timestamp,raw_red,raw_ir,filtered_red,filtered_ir,heart_rate,spo2,ac_dc_ratio
0.0,32100.4,35230.1,0.4102,0.5653,147.8,98.1,0.475
0.02,32211.0,35581.1,0.8606,1.4289,147.8,98.1,0.475
0.04,32349.9,35720.5,1.426,1.772,147.8,98.1,0.475
0.06,32345.7,35747.2,1.4086,1.8377,147.8,98.1,0.475
0.08,32211.0,35526.9,0.8605,1.2956,147.8,98.1,0.475
0.1,32241.9,35378.0,0.9862,0.9293,147.8,98.1,0.475
0.12,32051.4,35118.5,0.2109,0.2908,147.8,98.1,0.475
0.14,32038.2,35059.3,0.1571,0.1451,147.8,98.1,0.475
0.16,32012.2,35050.8,0.0513,0.1242,147.8,98.1,0.475
0.18,31944.6,34959.5,-0.2241,-0.1006,147.8,98.1,0.475
0.2,31898.9,34905.1,-0.41,-0.2343,147.8,98.1,0.475
0.22,31936.7,34764.2,-0.2562,-0.5811,147.8,98.1,0.475
0.24,31842.7,34804.4,-0.6389,-0.4821,147.8,98.1,0.475
0.26,31799.4,34650.4,-0.815,-0.861,147.8,98.1,0.475
0.28,31802.6,34723.4,-0.802,-0.6815,147.8,98.1,0.475
0.3,31782.9,34618.7,-0.8822,-0.9389,147.8,98.1,0.475
0.32,31836.2,34461.2,-0.6653,-1.3266,147.8,98.1,0.475
0.34,31832.6,34392.5,-0.68,-1.4957,147.8,98.1,0.475
0.36,31784.7,34548.5,-0.8749,-1.1117,147.8,98.1,0.475
0.38,31855.5,34810.6,-0.5867,-0.4668,147.8,98.1,0.475
0.4,32076.1,35059.8,0.3112,0.1464,147.8,98.1,0.475
0.42,32180.2,35483.7,0.735,1.1893,147.8,98.1,0.475
0.44,32269.4,35785.1,1.0982,1.9311,147.8,98.1,0.475
0.46,32390.7,35729.6,1.5919,1.7945,147.8,98.1,0.475
0.48,32301.2,35597.2,1.2277,1.4685,147.8,98.1,0.475
0.5,32214.2,35489.1,0.8736,1.2027,147.8,98.1,0.475
0.52,31963.1,35214.6,-0.1488,0.5272,147.8,98.1,0.475
0.54,32102.4,35162.6,0.4185,0.3992,147.8,98.1,0.475
0.56,32048.7,35085.6,0.1997,0.2099,147.8,98.1,0.475
0.58,31952.7,35077.9,-0.1909,0.1907,147.8,98.1,0.475
0.6,32015.8,34903.1,0.066,-0.2393,147.8,98.1,0.475
0.62,31911.6,34789.5,-0.3582,-0.5188,147.8,98.1,0.475
0.64,31822.9,34682.3,-0.7195,-0.7825,147.8,98.1,0.475
0.66,31911.9,34627.1,-0.3571,-0.9183,147.8,98.1,0.475
0.68,31842.0,34641.9,-0.6418,-0.8819,147.8,98.1,0.475
0.7,31872.6,34606.8,-0.5171,-0.9684,147.8,98.1,0.475
0.72,31766.8,34513.6,-0.9478,-1.1978,147.8,98.1,0.475
0.74,31801.3,34477.9,-0.8075,-1.2854,147.8,98.1,0.475
0.76,31682.6,34458.7,-1.2907,-1.3328,147.8,98.1,0.475
0.78,31751.8,34642.2,-1.0087,-0.8812,147.8,98.1,0.475
0.8,31937.4,34992.1,-0.2534,-0.0204,147.8,98.1,0.475
0.82,32125.7,35333.3,0.5131,0.8194,147.8,98.1,0.475
0.84,32281.7,35711.4,1.1482,1.7497,147.8,98.1,0.475
0.86,32314.0,35746.7,1.2798,1.8366,147.8,98.1,0.475
0.88,32310.5,35717.3,1.2653,1.7641,147.8,98.1,0.475
0.9,32240.5,35459.6,0.9807,1.13,147.8,98.1,0.475
0.92,32086.5,35291.7,0.3536,0.717,147.8,98.1,0.475
0.94,31957.5,35288.1,-0.1714,0.708,147.8,98.1,0.475
0.96,32063.7,35038.4,0.2607,0.0937,147.8,98.1,0.475
0.98,31990.2,35055.3,-0.0384,0.1351,147.8,98.1,0.475
1.0,32036.6,34927.7,0.1504,-0.1788,147.8,98.1,0.475
1.02,31940.3,34814.3,-0.2417,-0.4578,147.8,98.1,0.475
1.04,31855.4,34704.6,-0.5871,-0.7276,147.8,98.1,0.475
1.06,31809.8,34636.0,-0.7729,-0.8964,147.8,98.1,0.475
1.08,31842.7,34659.7,-0.6388,-0.8382,147.8,98.1,0.475
1.1,31808.9,34733.5,-0.7762,-0.6566,147.8,98.1,0.475
1.12,31795.0,34589.1,-0.8328,-1.0118,147.8,98.1,0.475
1.14,31793.8,34496.9,-0.8381,-1.2388,147.8,98.1,0.475
1.16,31649.6,34393.9,-1.4248,-1.4923,147.8,98.1,0.475
1.18,31835.7,34568.1,-0.6673,-1.0637,147.8,98.1,0.475
1.2,31946.3,34794.9,-0.2171,-0.5054,147.8,98.1,0.475
1.22,32088.9,35238.5,0.3635,0.5861,147.8,98.1,0.475
1.24,32227.5,35555.0,0.9275,1.3647,147.8,98.1,0.475
1.26,32293.9,35641.1,1.1978,1.5767,147.8,98.1,0.475
1.28,32323.9,35760.2,1.3202,1.8698,147.8,98.1,0.475
1.3,32200.5,35552.7,0.8177,1.359,147.8,98.1,0.475
1.32,32155.3,35288.0,0.6335,0.7079,147.8,98.1,0.475
1.34,32121.2,35270.1,0.4947,0.6639,147.8,98.1,0.475
1.36,32011.0,35124.8,0.0464,0.3062,147.8,98.1,0.475
1.38,32098.9,35040.0,0.4039,0.0976,147.8,98.1,0.475
1.4,32013.9,35003.6,0.0581,0.008,147.8,98.1,0.475
1.42,31912.4,34871.1,-0.3552,-0.318,147.8,98.1,0.475
1.44,31828.4,34751.2,-0.6969,-0.613,147.8,98.1,0.475
1.46,31903.6,34727.5,-0.3909,-0.6713,147.8,98.1,0.475
1.48,31884.3,34634.5,-0.4693,-0.9001,147.8,98.1,0.475
1.5,31810.4,34576.0,-0.7702,-1.044,147.8,98.1,0.475
1.52,31874.1,34565.6,-0.5108,-1.0697,147.8,98.1,0.475
1.54,31806.9,34566.0,-0.7846,-1.0688,147.8,98.1,0.475
1.56,31749.8,34414.5,-1.0171,-1.4414,147.8,98.1,0.475
1.58,31690.6,34457.9,-1.2581,-1.3347,147.8,98.1,0.475
1.6,31881.8,34641.6,-0.4795,-0.8827,147.8,98.1,0.475
1.62,32073.0,35077.8,0.2986,0.1907,147.8,98.1,0.475
1.64,32222.3,35494.6,0.9065,1.2162,147.8,98.1,0.475
1.66,32293.9,35720.2,1.198,1.7712,147.8,98.1,0.475
1.68,32232.4,35733.4,0.9473,1.8038,147.8,98.1,0.475
1.7,32280.2,35626.7,1.142,1.5413,147.8,98.1,0.475
1.72,32201.1,35489.8,0.8203,1.2043,147.8,98.1,0.475
1.74,32006.6,35312.3,0.0285,0.7675,147.8,98.1,0.475
1.76,32074.8,35091.7,0.3059,0.2247,147.8,98.1,0.475
1.78,31957.7,35044.7,-0.1707,0.109,147.8,98.1,0.475
1.8,32037.5,35062.6,0.1541,0.1531,147.8,98.1,0.475
1.82,31991.7,34924.7,-0.0324,-0.1862,147.8,98.1,0.475
1.84,31879.3,34760.3,-0.4896,-0.5906,147.8,98.1,0.475
1.86,31870.6,34727.9,-0.5252,-0.6703,147.8,98.1,0.475
1.88,31921.2,34742.5,-0.3194,-0.6345,147.8,98.1,0.475
1.9,31814.7,34716.7,-0.7529,-0.6979,147.8,98.1,0.475
1.92,31824.0,34568.5,-0.715,-1.0627,147.8,98.1,0.475
1.94,31799.3,34508.9,-0.8153,-1.2093,147.8,98.1,0.475
1.96,31766.3,34510.2,-0.9497,-1.2061,147.8,98.1,0.475
1.98,31715.3,34361.3,-1.1576,-1.5724,147.8,98.1,0.475
2.0,31866.9,34535.3,-0.5403,-1.1443,147.8,98.1,0.475
2.02,31977.1,34911.1,-0.0917,-0.2196,147.8,98.1,0.475
2.04,32150.3,35301.4,0.6132,0.7408,147.8,98.1,0.475
2.06,32292.0,35592.4,1.1901,1.4568,147.8,98.1,0.475
2.08,32414.1,35687.6,1.687,1.691,147.8,98.1,0.475
2.1,32295.5,35579.9,1.2044,1.426,147.8,98.1,0.475
2.12,32212.2,35388.0,0.8651,0.9538,147.8,98.1,0.475
2.14,32094.7,35270.4,0.3869,0.6646,147.8,98.1,0.475
2.16,32025.9,35196.5,0.107,0.4828,147.8,98.1,0.475
2.18,31976.6,35136.2,-0.0936,0.3342,147.8,98.1,0.475
2.2,31989.5,35125.6,-0.0414,0.3083,147.8,98.1,0.475
2.22,31969.6,34909.8,-0.1222,-0.2229,147.8,98.1,0.475
2.24,31926.2,34862.0,-0.299,-0.3403,147.8,98.1,0.475
2.26,31797.2,34782.0,-0.824,-0.5372,147.8,98.1,0.475
2.28,31872.1,34761.4,-0.5191,-0.588,147.8,98.1,0.475
2.3,31813.8,34693.1,-0.7565,-0.7559,147.8,98.1,0.475
2.32,31867.7,34656.5,-0.5369,-0.846,147.8,98.1,0.475
2.34,31847.4,34617.8,-0.6198,-0.9413,147.8,98.1,0.475
2.36,31821.4,34511.5,-0.7256,-1.2029,147.8,98.1,0.475
2.38,31749.7,34370.6,-1.0174,-1.5495,147.8,98.1,0.475
2.4,31804.0,34640.3,-0.7964,-0.8858,147.8,98.1,0.475
2.42,31844.5,34947.2,-0.6315,-0.1307,147.8,98.1,0.475
2.44,32103.1,35233.7,0.4211,0.5742,147.8,98.1,0.475
2.46,32301.1,35527.7,1.2273,1.2976,147.8,98.1,0.475
2.48,32299.0,35796.0,1.2185,1.9579,147.8,98.1,0.475
2.5,32296.8,35861.9,1.2095,2.1199,147.8,98.1,0.475
2.52,32228.1,35521.3,0.93,1.282,147.8,98.1,0.475
2.54,32139.8,35396.4,0.5704,0.9745,147.8,98.1,0.475
2.56,32056.4,35071.6,0.2311,0.1754,147.8,98.1,0.475
2.58,32104.9,35135.5,0.4286,0.3326,147.8,98.1,0.475
2.6,31993.2,35023.7,-0.0261,0.0575,147.8,98.1,0.475
2.62,31975.8,34998.6,-0.0969,-0.0044,147.8,98.1,0.475
2.64,31963.2,34864.9,-0.1481,-0.3332,147.8,98.1,0.475
2.66,31842.8,34738.0,-0.6384,-0.6454,147.8,98.1,0.475
2.68,31759.9,34589.4,-0.9758,-1.0112,147.8,98.1,0.475
2.7,31891.0,34696.6,-0.4422,-0.7473,147.8,98.1,0.475
2.72,31807.4,34687.3,-0.7824,-0.7703,147.8,98.1,0.475
2.74,31784.0,34601.4,-0.8778,-0.9815,147.8,98.1,0.475
2.76,31836.3,34510.6,-0.6648,-1.205,147.8,98.1,0.475
2.78,31779.7,34496.7,-0.8952,-1.2391,147.8,98.1,0.475
2.8,31817.4,34473.0,-0.7416,-1.2976,147.8,98.1,0.475
2.82,31896.3,34647.4,-0.4208,-0.8684,147.8,98.1,0.475
2.84,31976.3,35212.5,-0.0948,0.522,147.8,98.1,0.475
2.86,32219.3,35524.8,0.8941,1.2905,147.8,98.1,0.475
2.88,32240.8,35749.2,0.9816,1.8426,147.8,98.1,0.475
2.9,32390.8,35774.5,1.5923,1.9048,147.8,98.1,0.475
2.92,32196.9,35623.0,0.803,1.5322,147.8,98.1,0.475
2.94,32154.3,35402.2,0.6295,0.9888,147.8,98.1,0.475
2.96,32117.9,35168.8,0.4816,0.4146,147.8,98.1,0.475
2.98,31996.5,35174.5,-0.0126,0.4285,147.8,98.1,0.475
3.0,32032.8,35030.4,0.1349,0.0739,147.8,98.1,0.475
3.02,31996.1,35033.7,-0.0143,0.0822,147.8,98.1,0.475
3.04,32033.4,34969.1,0.1373,-0.077,147.8,98.1,0.475
3.06,31881.8,34831.2,-0.4798,-0.4161,147.8,98.1,0.475
3.08,31912.7,34690.3,-0.3539,-0.7629,147.8,98.1,0.475
3.1,31786.4,34689.4,-0.8679,-0.7651,147.8,98.1,0.475
3.12,31814.3,34677.3,-0.7545,-0.7948,147.8,98.1,0.475
3.14,31797.3,34645.5,-0.8238,-0.8731,147.8,98.1,0.475
3.16,31834.9,34552.0,-0.6707,-1.1032,147.8,98.1,0.475
3.18,31849.2,34432.1,-0.6122,-1.3982,147.8,98.1,0.475
3.2,31722.3,34439.9,-1.1291,-1.3791,147.8,98.1,0.475
3.22,31868.1,34584.9,-0.5355,-1.0223,147.8,98.1,0.475
3.24,31887.4,35038.9,-0.4569,0.0948,147.8,98.1,0.475
3.26,32114.2,35449.0,0.4663,1.104,147.8,98.1,0.475
3.28,32352.6,35659.4,1.437,1.6217,147.8,98.1,0.475
3.3,32287.0,35733.9,1.1699,1.8049,147.8,98.1,0.475
3.32,32261.2,35775.8,1.0649,1.9081,147.8,98.1,0.475
3.34,32228.9,35402.9,0.9332,0.9906,147.8,98.1,0.475
3.36,32068.1,35217.8,0.2786,0.5351,147.8,98.1,0.475
3.38,32088.1,35181.2,0.3603,0.4451,147.8,98.1,0.475
3.4,32026.6,35099.5,0.1099,0.2441,147.8,98.1,0.475
3.42,31965.4,35008.9,-0.1395,0.0211,147.8,98.1,0.475
3.44,31996.0,35012.5,-0.0148,0.0299,147.8,98.1,0.475
3.46,31885.3,34807.6,-0.4656,-0.4742,147.8,98.1,0.475
3.48,31869.2,34687.7,-0.531,-0.7693,147.8,98.1,0.475
3.5,31907.0,34591.7,-0.3771,-1.0056,147.8,98.1,0.475
3.52,31870.0,34651.1,-0.5276,-0.8594,147.8,98.1,0.475
3.54,31893.5,34768.3,-0.4319,-0.571,147.8,98.1,0.475
3.56,31807.6,34536.2,-0.7818,-1.1421,147.8,98.1,0.475
3.58,31801.0,34553.1,-0.8087,-1.1004,147.8,98.1,0.475
3.6,31773.8,34516.4,-0.9193,-1.1909,147.8,98.1,0.475
3.62,31859.9,34696.9,-0.5687,-0.7466,147.8,98.1,0.475
3.64,31960.8,34905.9,-0.1581,-0.2324,147.8,98.1,0.475
3.66,31987.1,35260.5,-0.0509,0.6403,147.8,98.1,0.475
3.68,32248.9,35685.3,1.0145,1.6855,147.8,98.1,0.475
3.7,32260.7,35616.1,1.0628,1.5151,147.8,98.1,0.475
3.72,32369.6,35733.7,1.506,1.8045,147.8,98.1,0.475
3.74,32245.0,35540.9,0.999,1.33,147.8,98.1,0.475
3.76,32135.7,35272.9,0.5539,0.6706,147.8,98.1,0.475
3.78,32062.2,35131.8,0.2548,0.3234,147.8,98.1,0.475
3.8,32078.8,35173.3,0.3222,0.4257,147.8,98.1,0.475
3.82,31985.6,35014.1,-0.0573,0.0338,147.8,98.1,0.475
3.84,31979.1,34965.1,-0.0835,-0.0868,147.8,98.1,0.475
3.86,31869.8,34944.3,-0.5284,-0.1378,147.8,98.1,0.475
3.88,31888.3,34753.5,-0.4534,-0.6074,147.8,98.1,0.475
3.9,31888.0,34641.6,-0.4543,-0.8826,147.8,98.1,0.475
3.92,31806.4,34685.2,-0.7865,-0.7753,147.8,98.1,0.475
3.94,31824.3,34681.8,-0.7137,-0.7838,147.8,98.1,0.475
3.96,31842.7,34602.5,-0.639,-0.9788,147.8,98.1,0.475
3.98,31759.0,34507.0,-0.9796,-1.214,147.8,98.1,0.475
4.0,31705.6,34355.7,-1.1971,-1.5863,147.8,98.1,0.475
4.02,31857.7,34448.1,-0.5779,-1.3589,147.8,98.1,0.475
4.04,31941.0,34789.6,-0.2386,-0.5185,147.8,98.1,0.475
4.06,32133.4,35196.2,0.5443,0.482,147.8,98.1,0.475
4.08,32205.5,35573.4,0.8381,1.41,147.8,98.1,0.475
4.1,32301.3,35754.9,1.2281,1.8567,147.8,98.1,0.475
4.12,32259.8,35707.2,1.059,1.7394,147.8,98.1,0.475
4.14,32246.0,35568.3,1.0028,1.3975,147.8,98.1,0.475
4.16,32169.9,35359.9,0.693,0.8848,147.8,98.1,0.475
4.18,32128.0,35169.1,0.5224,0.4154,147.8,98.1,0.475
4.2,32033.1,35153.9,0.1364,0.3779,147.8,98.1,0.475
4.22,32022.1,35057.8,0.0914,0.1414,147.8,98.1,0.475
4.24,32030.2,35026.5,0.1246,0.0643,147.8,98.1,0.475
4.26,31961.6,34942.3,-0.155,-0.1428,147.8,98.1,0.475
4.28,31946.0,34757.3,-0.2185,-0.598,147.8,98.1,0.475
4.3,31765.2,34778.2,-0.9543,-0.5466,147.8,98.1,0.475
4.32,31805.9,34660.7,-0.7888,-0.8357,147.8,98.1,0.475
4.34,31904.1,34678.9,-0.3889,-0.7909,147.8,98.1,0.475
4.36,31815.5,34620.0,-0.7497,-0.9357,147.8,98.1,0.475
4.38,31886.7,34523.3,-0.4596,-1.1738,147.8,98.1,0.475
4.4,31753.7,34419.1,-1.0011,-1.4302,147.8,98.1,0.475
4.42,31767.2,34470.6,-0.9463,-1.3035,147.8,98.1,0.475
4.44,31821.9,34707.5,-0.7235,-0.7207,147.8,98.1,0.475
4.46,31933.3,35041.4,-0.2699,0.101,147.8,98.1,0.475
4.48,32217.6,35350.3,0.8873,0.861,147.8,98.1,0.475
4.5,32242.8,35676.9,0.9898,1.6648,147.8,98.1,0.475
4.52,32225.1,35758.0,0.9176,1.8644,147.8,98.1,0.475
4.54,32310.4,35590.8,1.2651,1.4528,147.8,98.1,0.475
4.56,32207.9,35459.3,0.8479,1.1294,147.8,98.1,0.475
4.58,32123.6,35257.9,0.5046,0.6338,147.8,98.1,0.475
4.6,32144.0,35111.4,0.5877,0.2733,147.8,98.1,0.475
4.62,32042.7,35141.8,0.1753,0.3482,147.8,98.1,0.475
4.64,31980.0,35064.7,-0.0797,0.1583,147.8,98.1,0.475
4.66,31951.6,34895.9,-0.1955,-0.2569,147.8,98.1,0.475
4.68,31958.8,34687.5,-0.1661,-0.7697,147.8,98.1,0.475
4.7,31867.8,34744.9,-0.5367,-0.6284,147.8,98.1,0.475
4.72,31918.0,34727.7,-0.3322,-0.671,147.8,98.1,0.475
4.74,31878.4,34692.3,-0.4937,-0.758,147.8,98.1,0.475
4.76,31820.6,34648.4,-0.7289,-0.866,147.8,98.1,0.475
4.78,31826.2,34562.0,-0.706,-1.0785,147.8,98.1,0.475
4.8,31695.0,34479.9,-1.2399,-1.2806,147.8,98.1,0.475
4.82,31793.7,34461.1,-0.8382,-1.3268,147.8,98.1,0.475
4.84,31837.3,34613.9,-0.661,-0.9509,147.8,98.1,0.475
4.86,31999.8,34960.4,0.0007,-0.0983,147.8,98.1,0.475
4.88,32175.0,35295.1,0.7139,0.7253,147.8,98.1,0.475
4.9,32204.5,35602.9,0.8341,1.4825,147.8,98.1,0.475
4.92,32323.6,35799.1,1.3189,1.9655,147.8,98.1,0.475
4.94,32282.9,35653.0,1.153,1.606,147.8,98.1,0.475
4.96,32286.6,35492.2,1.1681,1.2103,147.8,98.1,0.475
4.98,32017.7,35267.9,0.0735,0.6583,147.8,98.1,0.475
5.0,32063.7,35172.0,0.2606,0.4223,147.8,98.1,0.475
5.02,32033.0,35180.5,0.1357,0.4434,147.8,98.1,0.475
5.04,32029.2,35045.7,0.1202,0.1116,147.8,98.1,0.475
5.06,32030.1,34961.5,0.124,-0.0955,147.8,98.1,0.475
5.08,31902.0,34882.7,-0.3973,-0.2895,147.8,98.1,0.475
5.1,31891.3,34709.2,-0.4409,-0.7165,147.8,98.1,0.475
5.12,31860.5,34562.3,-0.5665,-1.0779,147.8,98.1,0.475
5.14,31885.6,34741.4,-0.4643,-0.6372,147.8,98.1,0.475
5.16,31750.7,34632.2,-1.0131,-0.9058,147.8,98.1,0.475
5.18,31801.5,34599.1,-0.8065,-0.9873,147.8,98.1,0.475
5.2,31838.9,34412.6,-0.6543,-1.4462,147.8,98.1,0.475
5.22,31709.9,34499.9,-1.1796,-1.2314,147.8,98.1,0.475
5.24,31855.3,34554.8,-0.5874,-1.0962,147.8,98.1,0.475
5.26,31978.2,34866.2,-0.0871,-0.33,147.8,98.1,0.475
5.28,32090.7,35183.2,0.3706,0.45,147.8,98.1,0.475
5.3,32264.9,35600.5,1.0798,1.4768,147.8,98.1,0.475
5.32,32407.4,35789.9,1.6599,1.9429,147.8,98.1,0.475
5.34,32343.5,35734.9,1.3998,1.8073,147.8,98.1,0.475
5.36,32307.2,35576.5,1.2521,1.4177,147.8,98.1,0.475
5.38,32213.4,35371.8,0.8702,0.9139,147.8,98.1,0.475
5.4,32054.8,35088.6,0.2245,0.2171,147.8,98.1,0.475
5.42,32123.5,35119.1,0.5041,0.2921,147.8,98.1,0.475
5.44,32015.9,35053.7,0.066,0.1314,147.8,98.1,0.475
5.46,31995.3,34994.2,-0.0177,-0.0151,147.8,98.1,0.475
5.48,31894.4,34857.0,-0.4282,-0.3527,147.8,98.1,0.475
5.5,31826.6,34718.0,-0.7044,-0.6948,147.8,98.1,0.475
5.52,31843.4,34745.3,-0.636,-0.6274,147.8,98.1,0.475
5.54,31835.4,34692.2,-0.6686,-0.7582,147.8,98.1,0.475
5.56,31814.0,34703.5,-0.7555,-0.7304,147.8,98.1,0.475
5.58,31910.4,34679.2,-0.363,-0.7901,147.8,98.1,0.475
5.6,31709.7,34498.9,-1.1803,-1.2338,147.8,98.1,0.475
5.62,31783.3,34374.6,-0.8807,-1.5398,147.8,98.1,0.475
5.64,31818.5,34504.6,-0.7372,-1.2199,147.8,98.1,0.475
5.66,31794.4,34710.4,-0.8356,-0.7133,147.8,98.1,0.475
5.68,31993.4,35050.2,-0.0255,0.1226,147.8,98.1,0.475
5.7,32207.7,35445.5,0.8469,1.0952,147.8,98.1,0.475
5.72,32325.2,35626.4,1.3253,1.5406,147.8,98.1,0.475
5.74,32357.5,35833.6,1.4567,2.0503,147.8,98.1,0.475
5.76,32340.3,35567.5,1.3866,1.3956,147.8,98.1,0.475
5.78,32267.4,35380.0,1.0899,0.9341,147.8,98.1,0.475
5.8,32100.1,35202.6,0.4089,0.4976,147.8,98.1,0.475
5.82,32097.7,35142.2,0.3992,0.349,147.8,98.1,0.475
5.84,32053.9,35014.4,0.2209,0.0346,147.8,98.1,0.475
5.86,32050.3,35037.7,0.2063,0.092,147.8,98.1,0.475
5.88,31908.1,34963.3,-0.3727,-0.0912,147.8,98.1,0.475
5.9,31954.2,34760.6,-0.1848,-0.5898,147.8,98.1,0.475
5.92,31903.0,34776.6,-0.3932,-0.5506,147.8,98.1,0.475
5.94,31733.5,34607.7,-1.0834,-0.966,147.8,98.1,0.475
5.96,31875.9,34675.7,-0.5039,-0.7989,147.8,98.1,0.475
5.98,31834.2,34636.5,-0.6735,-0.8952,147.8,98.1,0.475
6.0,31885.2,34459.8,-0.466,-1.33,147.8,98.1,0.475
6.02,31839.2,34413.2,-0.6529,-1.4448,147.8,98.1,0.475
6.04,31815.2,34490.1,-0.7507,-1.2555,147.8,98.1,0.475
6.06,31923.3,34541.0,-0.3108,-1.1302,147.8,98.1,0.475
6.08,32017.6,35005.6,0.0733,0.0129,147.8,98.1,0.475
6.1,32157.0,35345.8,0.6406,0.8499,147.8,98.1,0.475
6.12,32358.2,35655.2,1.4595,1.6113,147.8,98.1,0.475
6.14,32316.2,35712.9,1.2886,1.7532,147.8,98.1,0.475
6.16,32310.5,35689.1,1.2654,1.6946,147.8,98.1,0.475
6.18,32267.2,35474.0,1.0894,1.1654,147.8,98.1,0.475
6.2,32169.5,35208.7,0.6916,0.5127,147.8,98.1,0.475
6.22,32117.9,35161.0,0.4813,0.3953,147.8,98.1,0.475
6.24,32020.7,35177.5,0.0857,0.436,147.8,98.1,0.475
6.26,31937.8,34972.6,-0.2517,-0.0682,147.8,98.1,0.475
6.28,31882.7,34896.5,-0.4761,-0.2555,147.8,98.1,0.475
6.3,31959.7,34788.0,-0.1625,-0.5225,147.8,98.1,0.475
6.32,31893.3,34810.5,-0.4328,-0.4672,147.8,98.1,0.475
6.34,31771.2,34714.2,-0.9299,-0.7042,147.8,98.1,0.475
6.36,31806.6,34717.8,-0.7857,-0.6952,147.8,98.1,0.475
6.38,31838.7,34689.8,-0.6552,-0.7641,147.8,98.1,0.475
6.4,31792.1,34611.4,-0.845,-0.9569,147.8,98.1,0.475
6.42,31810.2,34477.0,-0.771,-1.2876,147.8,98.1,0.475
6.44,31738.7,34407.5,-1.0624,-1.4588,147.8,98.1,0.475
6.46,31793.7,34567.5,-0.8382,-1.0649,147.8,98.1,0.475
6.48,31928.0,34879.7,-0.2917,-0.2969,147.8,98.1,0.475
6.5,32105.6,35278.4,0.4315,0.6843,147.8,98.1,0.475
6.52,32236.7,35582.7,0.9648,1.433,147.8,98.1,0.475
6.54,32274.5,35682.9,1.1188,1.6795,147.8,98.1,0.475
6.56,32377.2,35680.2,1.5369,1.6728,147.8,98.1,0.475
6.58,32175.4,35545.0,0.7155,1.3402,147.8,98.1,0.475
6.6,32242.9,35405.9,0.9903,0.998,147.8,98.1,0.475
6.62,32062.9,35156.1,0.2577,0.3832,147.8,98.1,0.475
6.64,32104.0,35036.8,0.425,0.0898,147.8,98.1,0.475
6.66,31991.9,35108.4,-0.0313,0.2659,147.8,98.1,0.475
6.68,32078.7,35009.6,0.3219,0.0227,147.8,98.1,0.475
6.7,32025.4,34813.4,0.105,-0.46,147.8,98.1,0.475
6.72,31881.9,34692.4,-0.4791,-0.7576,147.8,98.1,0.475
6.74,31856.6,34650.5,-0.5823,-0.8609,147.8,98.1,0.475
6.76,31937.2,34656.3,-0.2542,-0.8466,147.8,98.1,0.475
6.78,31810.8,34662.2,-0.7685,-0.8321,147.8,98.1,0.475
6.8,31741.5,34632.9,-1.0507,-0.9042,147.8,98.1,0.475
6.82,31704.9,34516.8,-1.1996,-1.1897,147.8,98.1,0.475
6.84,31735.4,34479.3,-1.0758,-1.282,147.8,98.1,0.475
6.86,31734.4,34513.4,-1.0798,-1.198,147.8,98.1,0.475
6.88,31900.3,34833.7,-0.4043,-0.41,147.8,98.1,0.475
6.9,32094.5,35171.9,0.3863,0.422,147.8,98.1,0.475
6.92,32109.3,35510.8,0.4464,1.2561,147.8,98.1,0.475
6.94,32310.3,35664.9,1.2645,1.6352,147.8,98.1,0.475
6.96,32346.0,35750.2,1.41,1.845,147.8,98.1,0.475
6.98,32275.0,35542.7,1.121,1.3345,147.8,98.1,0.475
7.0,32103.0,35431.4,0.4209,1.0606,147.8,98.1,0.475
7.02,32049.3,35261.5,0.2021,0.6425,147.8,98.1,0.475
7.04,32068.7,35175.6,0.2812,0.4312,147.8,98.1,0.475
7.06,31955.3,35122.2,-0.1805,0.2999,147.8,98.1,0.475
7.08,31972.0,35070.4,-0.1125,0.1724,147.8,98.1,0.475
7.1,31969.7,34875.6,-0.1217,-0.3069,147.8,98.1,0.475
7.12,31922.0,34807.2,-0.3162,-0.4752,147.8,98.1,0.475
7.14,31915.4,34772.2,-0.3427,-0.5614,147.8,98.1,0.475
7.16,31885.1,34718.0,-0.4663,-0.6948,147.8,98.1,0.475
7.18,31816.6,34680.3,-0.745,-0.7874,147.8,98.1,0.475
7.2,31824.4,34584.9,-0.7134,-1.0222,147.8,98.1,0.475
7.22,31844.0,34556.2,-0.6337,-1.0929,147.8,98.1,0.475
7.24,31780.8,34501.9,-0.8906,-1.2265,147.8,98.1,0.475
7.26,31805.6,34528.7,-0.7899,-1.1605,147.8,98.1,0.475
7.28,31826.8,34633.1,-0.7035,-0.9037,147.8,98.1,0.475
7.3,31924.9,35076.8,-0.3042,0.1881,147.8,98.1,0.475
7.32,32065.0,35420.7,0.266,1.0344,147.8,98.1,0.475
7.34,32348.6,35692.0,1.4206,1.7018,147.8,98.1,0.475
7.36,32351.2,35851.6,1.4313,2.0947,147.8,98.1,0.475
7.38,32354.2,35640.0,1.4432,1.574,147.8,98.1,0.475
7.4,32203.1,35460.6,0.8285,1.1324,147.8,98.1,0.475
7.42,32085.3,35275.2,0.3486,0.6763,147.8,98.1,0.475
7.44,32064.5,35146.3,0.2643,0.3592,147.8,98.1,0.475
7.46,32053.4,35080.2,0.2189,0.1964,147.8,98.1,0.475
7.48,32035.8,35056.1,0.1471,0.1371,147.8,98.1,0.475
7.5,32025.6,34882.6,0.1057,-0.2897,147.8,98.1,0.475
7.52,31957.1,34833.9,-0.173,-0.4095,147.8,98.1,0.475
7.54,31875.3,34827.9,-0.506,-0.4242,147.8,98.1,0.475
7.56,31819.9,34656.1,-0.7316,-0.847,147.8,98.1,0.475
7.58,31891.2,34682.4,-0.4412,-0.7824,147.8,98.1,0.475
7.6,31889.7,34641.5,-0.4473,-0.8828,147.8,98.1,0.475
7.62,31779.0,34595.3,-0.8983,-0.9965,147.8,98.1,0.475
7.64,31754.0,34463.0,-0.9997,-1.3222,147.8,98.1,0.475
7.66,31710.3,34417.4,-1.1779,-1.4345,147.8,98.1,0.475
7.68,31853.3,34627.0,-0.5957,-0.9187,147.8,98.1,0.475
7.7,32041.3,34977.6,0.1697,-0.056,147.8,98.1,0.475
7.72,32099.1,35339.2,0.4049,0.8338,147.8,98.1,0.475
7.74,32275.1,35585.3,1.1214,1.4393,147.8,98.1,0.475
7.76,32350.1,35750.4,1.4268,1.8457,147.8,98.1,0.475
7.78,32358.4,35735.5,1.4602,1.809,147.8,98.1,0.475
7.8,32305.5,35499.8,1.2449,1.229,147.8,98.1,0.475
7.82,32154.2,35319.0,0.6293,0.7841,147.8,98.1,0.475
7.84,32094.5,35130.9,0.3862,0.3212,147.8,98.1,0.475
7.86,31975.3,35140.5,-0.0989,0.345,147.8,98.1,0.475
7.88,31977.5,35017.3,-0.09,0.0418,147.8,98.1,0.475
7.9,31964.4,34989.8,-0.1434,-0.026,147.8,98.1,0.475
7.92,31959.5,34858.3,-0.1632,-0.3495,147.8,98.1,0.475
7.94,31789.7,34721.5,-0.8547,-0.686,147.8,98.1,0.475
7.96,31909.8,34640.8,-0.3656,-0.8846,147.8,98.1,0.475
7.98,31727.9,34690.0,-1.106,-0.7637,147.8,98.1,0.475
8.0,31925.5,34644.7,-0.3019,-0.875,147.8,98.1,0.475
8.02,31927.6,34588.4,-0.2934,-1.0137,147.8,98.1,0.475
8.04,31803.6,34528.7,-0.798,-1.1604,147.8,98.1,0.475
8.06,31760.2,34380.0,-0.9746,-1.5264,147.8,98.1,0.475
8.08,31786.3,34597.6,-0.8683,-0.9909,147.8,98.1,0.475
8.1,31875.4,34845.8,-0.5057,-0.3803,147.8,98.1,0.475
8.12,32013.1,35172.6,0.0548,0.4238,147.8,98.1,0.475
8.14,32254.8,35467.1,1.0386,1.1486,147.8,98.1,0.475
8.16,32258.0,35780.8,1.0516,1.9204,147.8,98.1,0.475
8.18,32381.5,35655.3,1.5545,1.6116,147.8,98.1,0.475
8.2,32337.8,35617.4,1.3767,1.5183,147.8,98.1,0.475
8.22,32127.0,35330.5,0.5183,0.8125,147.8,98.1,0.475
8.24,32007.6,35209.3,0.0326,0.5142,147.8,98.1,0.475
8.26,32016.2,35170.5,0.0675,0.4187,147.8,98.1,0.475
8.28,32068.9,35088.4,0.2818,0.2167,147.8,98.1,0.475
8.3,31992.3,35080.3,-0.03,0.1968,147.8,98.1,0.475
8.32,31970.4,34919.7,-0.1191,-0.1984,147.8,98.1,0.475
8.34,31871.4,34855.6,-0.522,-0.3561,147.8,98.1,0.475
8.36,31935.7,34697.7,-0.2602,-0.7446,147.8,98.1,0.475
8.38,31930.1,34624.5,-0.2831,-0.9249,147.8,98.1,0.475
8.4,31825.3,34642.4,-0.7097,-0.8808,147.8,98.1,0.475
8.42,31849.6,34584.5,-0.6107,-1.0232,147.8,98.1,0.475
8.44,31843.8,34553.4,-0.6342,-1.0998,147.8,98.1,0.475
8.46,31839.0,34467.3,-0.6539,-1.3117,147.8,98.1,0.475
8.48,31747.2,34484.4,-1.0275,-1.2695,147.8,98.1,0.475
8.5,31922.0,34610.8,-0.3159,-0.9585,147.8,98.1,0.475
8.52,32011.4,35033.5,0.0481,0.0817,147.8,98.1,0.475
8.54,32251.0,35500.6,1.0232,1.2309,147.8,98.1,0.475
8.56,32230.3,35732.4,0.939,1.8013,147.8,98.1,0.475
8.58,32345.5,35755.0,1.4078,1.8569,147.8,98.1,0.475
8.6,32362.6,35686.5,1.4776,1.6884,147.8,98.1,0.475
8.62,32188.0,35486.8,0.7667,1.197,147.8,98.1,0.475
8.64,32059.7,35310.9,0.2444,0.7642,147.8,98.1,0.475
8.66,32012.7,35188.5,0.0533,0.4631,147.8,98.1,0.475
8.68,32099.9,35070.4,0.4081,0.1724,147.8,98.1,0.475
8.7,31991.2,35045.9,-0.0345,0.112,147.8,98.1,0.475
8.72,32060.5,34737.2,0.2479,-0.6475,147.8,98.1,0.475
8.74,31868.6,34938.2,-0.5333,-0.153,147.8,98.1,0.475
8.76,31938.2,34716.2,-0.2503,-0.6991,147.8,98.1,0.475
8.78,31825.4,34640.1,-0.7094,-0.8864,147.8,98.1,0.475
8.8,31774.9,34697.1,-0.9148,-0.7463,147.8,98.1,0.475
8.82,31802.1,34605.0,-0.8041,-0.9727,147.8,98.1,0.475
8.84,31752.7,34570.6,-1.0053,-1.0575,147.8,98.1,0.475
8.86,31723.7,34481.2,-1.1232,-1.2773,147.8,98.1,0.475
8.88,31779.9,34514.4,-0.8945,-1.1957,147.8,98.1,0.475
8.9,31847.9,34575.2,-0.6178,-1.0462,147.8,98.1,0.475
8.92,32026.5,34883.8,0.1093,-0.2868,147.8,98.1,0.475
8.94,32139.8,35300.8,0.5704,0.7392,147.8,98.1,0.475
8.96,32334.6,35593.1,1.3638,1.4585,147.8,98.1,0.475
8.98,32285.5,35749.1,1.1636,1.8425,147.8,98.1,0.475
9.0,32303.2,35749.7,1.2356,1.8439,147.8,98.1,0.475
9.02,32158.8,35510.1,0.6479,1.2543,147.8,98.1,0.475
9.04,32142.6,35287.7,0.582,0.707,147.8,98.1,0.475
9.06,31994.1,35128.2,-0.0224,0.3145,147.8,98.1,0.475
9.08,32013.3,35122.9,0.0555,0.3015,147.8,98.1,0.475
9.1,31901.9,35070.5,-0.3979,0.1725,147.8,98.1,0.475
9.12,31976.0,34955.2,-0.0962,-0.1111,147.8,98.1,0.475
9.14,31998.3,34815.1,-0.0053,-0.4559,147.8,98.1,0.475
9.16,31846.5,34776.3,-0.6235,-0.5512,147.8,98.1,0.475
9.18,31897.9,34724.8,-0.4141,-0.6779,147.8,98.1,0.475
9.2,31921.0,34691.2,-0.3203,-0.7607,147.8,98.1,0.475
9.22,31901.3,34675.8,-0.4001,-0.7986,147.8,98.1,0.475
9.24,31807.0,34542.9,-0.784,-1.1256,147.8,98.1,0.475
9.26,31718.5,34520.9,-1.1444,-1.1796,147.8,98.1,0.475
9.28,31766.7,34416.6,-0.9481,-1.4364,147.8,98.1,0.475
9.3,31834.3,34573.1,-0.6729,-1.0512,147.8,98.1,0.475
9.32,31915.3,34810.3,-0.3432,-0.4677,147.8,98.1,0.475
9.34,32149.7,35159.5,0.6107,0.3917,147.8,98.1,0.475
9.36,32282.6,35576.6,1.1517,1.4179,147.8,98.1,0.475
9.38,32326.6,35705.4,1.3311,1.7349,147.8,98.1,0.475
9.4,32293.9,35764.2,1.1978,1.8794,147.8,98.1,0.475
9.42,32297.7,35506.2,1.2133,1.2447,147.8,98.1,0.475
9.44,32068.8,35290.9,0.2815,0.7151,147.8,98.1,0.475
9.46,32144.8,35248.6,0.5911,0.6109,147.8,98.1,0.475
9.48,32043.2,35139.3,0.1773,0.342,147.8,98.1,0.475
9.5,32092.3,34985.0,0.3774,-0.0376,147.8,98.1,0.475
9.52,32006.8,35060.5,0.0292,0.1479,147.8,98.1,0.475
9.54,31997.2,34847.0,-0.0098,-0.3774,147.8,98.1,0.475
9.56,31906.1,34846.8,-0.3806,-0.3777,147.8,98.1,0.475
9.58,31821.2,34668.5,-0.7263,-0.8164,147.8,98.1,0.475
9.6,31913.2,34726.0,-0.352,-0.675,147.8,98.1,0.475
9.62,31764.8,34541.3,-0.9561,-1.1295,147.8,98.1,0.475
9.64,31903.8,34542.3,-0.3901,-1.1271,147.8,98.1,0.475
9.66,31771.4,34464.1,-0.9289,-1.3195,147.8,98.1,0.475
9.68,31738.5,34399.5,-1.0631,-1.4785,147.8,98.1,0.475
9.7,31733.5,34503.3,-1.0833,-1.2229,147.8,98.1,0.475
9.72,31883.3,34698.1,-0.4735,-0.7436,147.8,98.1,0.475
9.74,32013.8,35038.9,0.0577,0.0949,147.8,98.1,0.475
9.76,32155.7,35448.6,0.6354,1.1029,147.8,98.1,0.475
9.78,32412.2,35732.2,1.6796,1.8009,147.8,98.1,0.475
9.8,32371.6,35753.7,1.5142,1.8538,147.8,98.1,0.475
9.82,32200.5,35581.0,0.8178,1.4289,147.8,98.1,0.475
9.84,32222.2,35396.9,0.9059,0.9759,147.8,98.1,0.475
9.86,32139.3,35207.1,0.5685,0.5089,147.8,98.1,0.475
9.88,31983.1,35077.4,-0.0673,0.1896,147.8,98.1,0.475
9.9,32113.0,35105.7,0.4617,0.2593,147.8,98.1,0.475
9.92,31998.5,34946.8,-0.0047,-0.1316,147.8,98.1,0.475
9.94,31939.0,34885.8,-0.2467,-0.2819,147.8,98.1,0.475
9.96,31904.1,34804.3,-0.389,-0.4824,147.8,98.1,0.475
9.98,31803.2,34709.0,-0.7995,-0.7168,147.8,98.1,0.475
10.0,31843.4,34761.1,-0.6358,-0.5887,147.8,98.1,0.475
10.02,31890.0,34710.8,-0.4461,-0.7125,147.8,98.1,0.475
10.04,31807.4,34656.8,-0.7827,-0.8453,147.8,98.1,0.475
10.06,31873.9,34528.4,-0.5118,-1.1613,147.8,98.1,0.475
10.08,31812.8,34468.5,-0.7605,-1.3085,147.8,98.1,0.475
10.1,31750.2,34473.8,-1.0153,-1.2955,147.8,98.1,0.475
10.12,31912.5,34707.8,-0.3548,-0.7199,147.8,98.1,0.475
10.14,31996.2,34894.8,-0.0141,-0.2596,147.8,98.1,0.475
10.16,32135.0,35333.7,0.551,0.8203,147.8,98.1,0.475
10.18,32216.7,35700.2,0.8835,1.722,147.8,98.1,0.475
10.2,32308.6,35771.4,1.2576,1.8972,147.8,98.1,0.475
10.22,32310.2,35642.6,1.2643,1.5802,147.8,98.1,0.475
10.24,32237.4,35498.7,0.9679,1.2263,147.8,98.1,0.475
10.26,32104.7,35314.0,0.4276,0.7718,147.8,98.1,0.475
10.28,31946.2,35133.0,-0.2177,0.3264,147.8,98.1,0.475
10.3,32058.5,35138.8,0.2396,0.3406,147.8,98.1,0.475
10.32,31972.7,35107.9,-0.1096,0.2648,147.8,98.1,0.475
10.34,31980.4,34920.7,-0.0783,-0.1959,147.8,98.1,0.475
10.36,31956.3,34773.1,-0.1766,-0.5591,147.8,98.1,0.475
10.38,31933.3,34800.0,-0.2701,-0.493,147.8,98.1,0.475
10.4,31839.4,34696.5,-0.6524,-0.7477,147.8,98.1,0.475
10.42,31846.4,34642.2,-0.6238,-0.8813,147.8,98.1,0.475
10.44,31824.6,34614.8,-0.7126,-0.9487,147.8,98.1,0.475
10.46,31808.1,34572.4,-0.7795,-1.053,147.8,98.1,0.475
10.48,31770.7,34446.6,-0.9318,-1.3626,147.8,98.1,0.475
10.5,31712.3,34439.2,-1.1696,-1.3808,147.8,98.1,0.475
10.52,31738.0,34606.1,-1.0652,-0.9701,147.8,98.1,0.475
10.54,31919.3,34855.5,-0.3269,-0.3563,147.8,98.1,0.475
10.56,32102.3,35296.1,0.4181,0.7278,147.8,98.1,0.475
10.58,32174.4,35559.6,0.7113,1.3761,147.8,98.1,0.475
10.6,32300.2,35726.7,1.2236,1.7873,147.8,98.1,0.475
10.62,32394.3,35644.8,1.6066,1.5857,147.8,98.1,0.475
10.64,32185.5,35473.0,0.7567,1.1631,147.8,98.1,0.475
10.66,32137.7,35386.8,0.562,0.951,147.8,98.1,0.475
10.68,32085.5,35111.8,0.3496,0.2742,147.8,98.1,0.475
10.7,32067.7,35219.8,0.2769,0.5399,147.8,98.1,0.475
10.72,31946.4,35015.7,-0.2165,0.0379,147.8,98.1,0.475
10.74,32036.4,35068.6,0.1497,0.168,147.8,98.1,0.475
10.76,31853.7,34860.7,-0.5941,-0.3435,147.8,98.1,0.475
10.78,31906.6,34799.0,-0.3785,-0.4955,147.8,98.1,0.475
10.8,31821.0,34742.7,-0.7271,-0.6339,147.8,98.1,0.475
10.82,31871.6,34640.2,-0.5214,-0.8862,147.8,98.1,0.475
10.84,31891.4,34696.6,-0.4407,-0.7474,147.8,98.1,0.475
10.86,31880.3,34593.0,-0.4857,-1.0023,147.8,98.1,0.475
10.88,31779.8,34641.9,-0.895,-0.8819,147.8,98.1,0.475
10.9,31763.2,34435.6,-0.9624,-1.3897,147.8,98.1,0.475
10.92,31735.7,34533.5,-1.0743,-1.1487,147.8,98.1,0.475
10.94,31886.7,34712.0,-0.4596,-0.7094,147.8,98.1,0.475
10.96,31999.1,35126.7,-0.0022,0.3109,147.8,98.1,0.475
10.98,32206.1,35523.4,0.8405,1.2869,147.8,98.1,0.475
11.0,32238.8,35783.0,0.9734,1.9258,147.8,98.1,0.475
11.02,32345.6,35741.8,1.4084,1.8245,147.8,98.1,0.475
11.04,32201.3,35581.7,0.8209,1.4305,147.8,98.1,0.475
11.06,32141.8,35491.2,0.5785,1.2079,147.8,98.1,0.475
11.08,32118.1,35180.5,0.4822,0.4434,147.8,98.1,0.475
11.1,32040.3,35139.3,0.1655,0.3418,147.8,98.1,0.475
11.12,32059.8,35042.3,0.2451,0.1033,147.8,98.1,0.475
11.14,32046.7,35039.5,0.1916,0.0964,147.8,98.1,0.475
11.16,31909.8,35019.0,-0.3657,0.0459,147.8,98.1,0.475
11.18,31954.3,34796.5,-0.1845,-0.5015,147.8,98.1,0.475
11.2,31846.6,34776.8,-0.6231,-0.55,147.8,98.1,0.475
11.22,31934.9,34680.5,-0.2636,-0.7871,147.8,98.1,0.475
11.24,31837.9,34681.5,-0.6584,-0.7845,147.8,98.1,0.475
11.26,31876.8,34689.7,-0.4998,-0.7643,147.8,98.1,0.475
11.28,31858.6,34486.1,-0.5742,-1.2654,147.8,98.1,0.475
11.3,31759.9,34433.1,-0.9757,-1.3959,147.8,98.1,0.475
11.32,31847.1,34455.9,-0.6207,-1.3397,147.8,98.1,0.475
11.34,31884.8,34647.2,-0.4674,-0.8688,147.8,98.1,0.475
11.36,32093.4,35026.2,0.3819,0.0635,147.8,98.1,0.475
11.38,32225.9,35439.6,0.9212,1.0808,147.8,98.1,0.475
11.4,32219.7,35640.5,0.8957,1.5752,147.8,98.1,0.475
11.42,32279.1,35787.2,1.1377,1.9362,147.8,98.1,0.475
11.44,32295.9,35620.7,1.2061,1.5266,147.8,98.1,0.475
11.46,32184.8,35506.2,0.7539,1.2447,147.8,98.1,0.475
11.48,32195.5,35276.8,0.7972,0.6802,147.8,98.1,0.475
11.5,32099.2,35149.2,0.4054,0.3662,147.8,98.1,0.475
11.52,31974.4,34952.3,-0.1029,-0.1183,147.8,98.1,0.475
11.54,31945.6,35088.5,-0.2198,0.217,147.8,98.1,0.475
11.56,31956.6,34856.8,-0.1751,-0.3532,147.8,98.1,0.475
11.58,31947.7,34935.6,-0.2115,-0.1592,147.8,98.1,0.475
11.6,31973.6,34805.4,-0.1058,-0.4796,147.8,98.1,0.475
11.62,31798.9,34699.0,-0.817,-0.7416,147.8,98.1,0.475
11.64,31882.3,34704.0,-0.4776,-0.7292,147.8,98.1,0.475
11.66,31935.4,34642.9,-0.2613,-0.8794,147.8,98.1,0.475
11.68,31779.2,34586.0,-0.8975,-1.0195,147.8,98.1,0.475
11.7,31796.2,34467.3,-0.8279,-1.3116,147.8,98.1,0.475
11.72,31722.7,34360.3,-1.1273,-1.5748,147.8,98.1,0.475
11.74,31926.3,34659.4,-0.2986,-0.839,147.8,98.1,0.475
11.76,31932.0,34810.8,-0.2754,-0.4664,147.8,98.1,0.475
11.78,32153.2,35264.3,0.6251,0.6495,147.8,98.1,0.475
11.8,32170.9,35593.1,0.6974,1.4584,147.8,98.1,0.475
11.82,32275.0,35793.4,1.1211,1.9515,147.8,98.1,0.475
11.84,32349.9,35677.6,1.4257,1.6665,147.8,98.1,0.475
11.86,32200.1,35575.9,0.8161,1.4163,147.8,98.1,0.475
11.88,32062.8,35349.5,0.2573,0.8593,147.8,98.1,0.475
11.9,32041.0,35152.1,0.1682,0.3735,147.8,98.1,0.475
11.92,31953.6,35053.5,-0.1875,0.1307,147.8,98.1,0.475
11.94,32006.5,35063.2,0.028,0.1546,147.8,98.1,0.475
11.96,31960.5,34947.6,-0.1592,-0.1298,147.8,98.1,0.475
11.98,31897.1,34865.9,-0.4176,-0.3308,147.8,98.1,0.475
12.0,31941.9,34779.8,-0.2349,-0.5426,147.8,98.1,0.475
12.02,31836.4,34714.4,-0.6646,-0.7037,147.8,98.1,0.475
12.04,31897.7,34661.2,-0.4151,-0.8346,147.8,98.1,0.475
12.06,31881.0,34675.2,-0.4828,-0.8,147.8,98.1,0.475
12.08,31834.5,34559.4,-0.6723,-1.0851,147.8,98.1,0.475
12.1,31793.6,34451.5,-0.8388,-1.3505,147.8,98.1,0.475
12.12,31744.1,34422.2,-1.0401,-1.4226,147.8,98.1,0.475
12.14,31767.3,34556.7,-0.9458,-1.0916,147.8,98.1,0.475
12.16,31926.0,34679.4,-0.2997,-0.7898,147.8,98.1,0.475
12.18,32072.7,35044.6,0.2973,0.1088,147.8,98.1,0.475
12.2,32237.0,35660.7,0.9663,1.6248,147.8,98.1,0.475
12.22,32322.4,35740.2,1.3138,1.8205,147.8,98.1,0.475
12.24,32342.9,35735.3,1.3972,1.8083,147.8,98.1,0.475
12.26,32200.2,35643.5,0.8166,1.5825,147.8,98.1,0.475
12.28,32153.3,35433.7,0.6254,1.0664,147.8,98.1,0.475
12.3,32128.0,35176.7,0.5227,0.434,147.8,98.1,0.475
12.32,32137.4,35118.6,0.5609,0.291,147.8,98.1,0.475
12.34,32012.9,35092.8,0.0542,0.2276,147.8,98.1,0.475
12.36,32020.4,34988.1,0.0847,-0.0302,147.8,98.1,0.475
12.38,32011.6,34915.9,0.0486,-0.2078,147.8,98.1,0.475
12.4,31947.5,34819.5,-0.212,-0.445,147.8,98.1,0.475
12.42,31938.1,34784.5,-0.2504,-0.5311,147.8,98.1,0.475
12.44,31843.6,34628.2,-0.635,-0.9156,147.8,98.1,0.475
12.46,31768.5,34588.0,-0.9408,-1.0146,147.8,98.1,0.475
12.48,31842.1,34635.8,-0.6413,-0.8971,147.8,98.1,0.475
12.5,31866.9,34576.7,-0.5404,-1.0423,147.8,98.1,0.475
12.52,31751.7,34479.8,-1.0094,-1.2808,147.8,98.1,0.475
12.54,31782.4,34438.8,-0.8841,-1.3818,147.8,98.1,0.475
12.56,31850.9,34750.9,-0.6055,-0.6137,147.8,98.1,0.475
12.58,32132.6,35037.7,0.5412,0.0918,147.8,98.1,0.475
12.6,32155.6,35411.3,0.6349,1.0113,147.8,98.1,0.475
12.62,32264.2,35665.3,1.0769,1.6361,147.8,98.1,0.475
12.64,32378.3,35767.2,1.5413,1.887,147.8,98.1,0.475
12.66,32349.4,35600.4,1.4238,1.4764,147.8,98.1,0.475
12.68,32198.8,35404.2,0.8106,0.9936,147.8,98.1,0.475
12.7,32173.6,35312.2,0.7082,0.7674,147.8,98.1,0.475
12.72,32030.7,35159.4,0.1264,0.3913,147.8,98.1,0.475
12.74,32034.7,35196.9,0.1428,0.4836,147.8,98.1,0.475
12.76,32061.5,34997.4,0.2518,-0.0072,147.8,98.1,0.475
12.78,31928.0,34932.3,-0.2917,-0.1673,147.8,98.1,0.475
12.8,31930.4,34895.3,-0.282,-0.2583,147.8,98.1,0.475
12.82,31925.0,34816.4,-0.3039,-0.4525,147.8,98.1,0.475
12.84,31882.8,34723.9,-0.4757,-0.6801,147.8,98.1,0.475
12.86,31923.6,34646.6,-0.3097,-0.8704,147.8,98.1,0.475
12.88,31959.6,34576.7,-0.1629,-1.0424,147.8,98.1,0.475
12.9,31831.0,34543.3,-0.6864,-1.1245,147.8,98.1,0.475
12.92,31785.6,34493.0,-0.8714,-1.2483,147.8,98.1,0.475
12.94,31716.0,34490.5,-1.1548,-1.2545,147.8,98.1,0.475
12.96,31828.8,34678.6,-0.6954,-0.7917,147.8,98.1,0.475
12.98,31975.7,34931.1,-0.0975,-0.1703,147.8,98.1,0.475
13.0,32140.6,35282.5,0.5737,0.6942,147.8,98.1,0.475
13.02,32311.3,35606.2,1.2689,1.4907,147.8,98.1,0.475
13.04,32384.9,35787.6,1.5685,1.9371,147.8,98.1,0.475
13.06,32296.0,35695.8,1.2064,1.7112,147.8,98.1,0.475
13.08,32173.8,35565.2,0.7092,1.3899,147.8,98.1,0.475
13.1,32201.1,35268.5,0.8199,0.6597,147.8,98.1,0.475
13.12,32093.6,35160.2,0.3824,0.3933,147.8,98.1,0.475
13.14,32042.0,35120.4,0.1725,0.2953,147.8,98.1,0.475
13.16,31976.9,34986.1,-0.0926,-0.0351,147.8,98.1,0.475
13.18,32103.4,35022.4,0.4224,0.0544,147.8,98.1,0.475
13.2,31932.7,34881.4,-0.2723,-0.2926,147.8,98.1,0.475
13.22,31903.2,34718.5,-0.3924,-0.6934,147.8,98.1,0.475
13.24,31821.8,34717.6,-0.7241,-0.6956,147.8,98.1,0.475
13.26,31777.9,34659.8,-0.9025,-0.838,147.8,98.1,0.475
13.28,31893.9,34619.8,-0.4304,-0.9364,147.8,98.1,0.475
13.3,31789.7,34557.1,-0.8544,-1.0907,147.8,98.1,0.475
13.32,31791.7,34437.9,-0.8465,-1.3839,147.8,98.1,0.475
13.34,31726.5,34514.6,-1.1119,-1.1951,147.8,98.1,0.475
13.36,31825.1,34533.4,-0.7105,-1.1489,147.8,98.1,0.475
13.38,32031.9,34876.9,0.1315,-0.3036,147.8,98.1,0.475
13.4,32034.8,35151.5,0.143,0.3719,147.8,98.1,0.475
13.42,32293.1,35538.1,1.1948,1.3231,147.8,98.1,0.475
13.44,32327.6,35759.0,1.3351,1.8667,147.8,98.1,0.475
13.46,32373.8,35727.3,1.523,1.7888,147.8,98.1,0.475
13.48,32234.6,35574.9,0.9564,1.4137,147.8,98.1,0.475
13.5,32114.6,35361.6,0.4681,0.8889,147.8,98.1,0.475
13.52,32120.4,35283.0,0.4915,0.6954,147.8,98.1,0.475
13.54,32076.1,35134.7,0.3113,0.3307,147.8,98.1,0.475
13.56,32043.6,35075.4,0.1789,0.1847,147.8,98.1,0.475
13.58,31961.6,34991.4,-0.1546,-0.022,147.8,98.1,0.475
13.6,31929.1,34968.2,-0.2872,-0.079,147.8,98.1,0.475
13.62,31929.8,34685.3,-0.2843,-0.7753,147.8,98.1,0.475
13.64,31945.1,34656.0,-0.2222,-0.8472,147.8,98.1,0.475
13.66,31874.2,34634.6,-0.5104,-0.8999,147.8,98.1,0.475
13.68,31899.8,34601.8,-0.4064,-0.9807,147.8,98.1,0.475
13.7,31875.1,34647.1,-0.5068,-0.8691,147.8,98.1,0.475
13.72,31776.3,34496.0,-0.9091,-1.241,147.8,98.1,0.475
13.74,31694.3,34497.6,-1.2431,-1.2371,147.8,98.1,0.475
13.76,31740.5,34562.1,-1.0549,-1.0783,147.8,98.1,0.475
13.78,31901.5,34778.4,-0.3995,-0.5462,147.8,98.1,0.475
13.8,32003.8,35144.6,0.0171,0.355,147.8,98.1,0.475
13.82,32187.5,35396.8,0.7646,0.9755,147.8,98.1,0.475
13.84,32362.2,35707.7,1.4759,1.7406,147.8,98.1,0.475
13.86,32334.1,35768.7,1.3614,1.8905,147.8,98.1,0.475
13.88,32326.0,35581.7,1.3287,1.4306,147.8,98.1,0.475
13.9,32243.2,35366.9,0.9916,0.9019,147.8,98.1,0.475
13.92,32186.5,35237.1,0.7608,0.5824,147.8,98.1,0.475
13.94,32111.3,35177.3,0.4546,0.4355,147.8,98.1,0.475
13.96,32129.7,35067.9,0.5293,0.1662,147.8,98.1,0.475
13.98,31914.9,34913.4,-0.3449,-0.2138,147.8,98.1,0.475
14.0,31983.9,34933.9,-0.0639,-0.1634,147.8,98.1,0.475
14.02,31849.3,34731.9,-0.6118,-0.6606,147.8,98.1,0.475
14.04,31902.0,34710.2,-0.3974,-0.714,147.8,98.1,0.475
14.06,31922.4,34691.4,-0.3145,-0.7601,147.8,98.1,0.475
14.08,31874.8,34668.7,-0.5083,-0.816,147.8,98.1,0.475
14.1,31733.7,34667.3,-1.0826,-0.8195,147.8,98.1,0.475
14.12,31724.0,34513.5,-1.1219,-1.198,147.8,98.1,0.475
14.14,31824.5,34480.3,-0.713,-1.2796,147.8,98.1,0.475
14.16,31776.7,34507.6,-0.9076,-1.2123,147.8,98.1,0.475
14.18,31827.4,34539.0,-0.7013,-1.1353,147.8,98.1,0.475
14.2,31932.7,34914.9,-0.2726,-0.2101,147.8,98.1,0.475
14.22,32142.8,35325.7,0.583,0.8005,147.8,98.1,0.475
14.24,32259.5,35641.0,1.0577,1.5763,147.8,98.1,0.475
14.26,32400.7,35758.6,1.6325,1.8659,147.8,98.1,0.475
14.28,32301.0,35639.4,1.2267,1.5724,147.8,98.1,0.475
14.3,32208.6,35595.7,0.8507,1.465,147.8,98.1,0.475
14.32,31992.0,35323.4,-0.0312,0.795,147.8,98.1,0.475
14.34,32137.3,35179.5,0.5606,0.4407,147.8,98.1,0.475
14.36,32067.0,35104.9,0.2743,0.2574,147.8,98.1,0.475
14.38,31964.8,34993.9,-0.1418,-0.0158,147.8,98.1,0.475
14.4,32045.2,35009.6,0.1854,0.0229,147.8,98.1,0.475
14.42,31884.5,34895.4,-0.4685,-0.2583,147.8,98.1,0.475
14.44,31876.8,34822.1,-0.5002,-0.4387,147.8,98.1,0.475
14.46,31841.2,34662.2,-0.6451,-0.8319,147.8,98.1,0.475
14.48,31774.1,34643.8,-0.9182,-0.8774,147.8,98.1,0.475
14.5,31781.2,34662.6,-0.8893,-0.8309,147.8,98.1,0.475
14.52,31927.1,34539.8,-0.2953,-1.1333,147.8,98.1,0.475
14.54,31768.0,34454.9,-0.9428,-1.3421,147.8,98.1,0.475
14.56,31810.1,34469.3,-0.7716,-1.3068,147.8,98.1,0.475
14.58,31832.0,34552.8,-0.6826,-1.1012,147.8,98.1,0.475
14.6,31891.7,34758.6,-0.4393,-0.5949,147.8,98.1,0.475
14.62,32032.4,35170.8,0.1335,0.4194,147.8,98.1,0.475
14.64,32210.2,35502.3,0.857,1.2352,147.8,98.1,0.475
14.66,32303.6,35770.5,1.2374,1.8952,147.8,98.1,0.475
14.68,32323.2,35796.2,1.3171,1.9583,147.8,98.1,0.475
14.7,32295.3,35516.0,1.2035,1.2689,147.8,98.1,0.475
14.72,32187.9,35272.4,0.7665,0.6694,147.8,98.1,0.475
14.74,32054.4,35136.3,0.223,0.3345,147.8,98.1,0.475
14.76,32062.5,35109.2,0.2561,0.2678,147.8,98.1,0.475
14.78,32101.6,35080.1,0.4149,0.1964,147.8,98.1,0.475
14.8,31961.6,34935.2,-0.1547,-0.1603,147.8,98.1,0.475
14.82,32026.5,34818.4,0.1093,-0.4477,147.8,98.1,0.475
14.84,31924.4,34788.0,-0.3061,-0.5225,147.8,98.1,0.475
14.86,31857.0,34682.0,-0.5805,-0.7833,147.8,98.1,0.475
14.88,31788.7,34616.5,-0.8588,-0.9445,147.8,98.1,0.475
14.9,31830.5,34648.5,-0.6885,-0.8656,147.8,98.1,0.475
14.92,31862.9,34634.2,-0.5565,-0.9009,147.8,98.1,0.475
14.94,31720.1,34521.6,-1.1379,-1.178,147.8,98.1,0.475
14.96,31754.8,34444.9,-0.9965,-1.3667,147.8,98.1,0.475
14.98,31748.9,34546.0,-1.0206,-1.1178,147.8,98.1,0.475
15.0,31845.9,34799.0,-0.6256,-0.4954,147.8,98.1,0.475
15.02,31927.4,35081.8,-0.294,0.2004,147.8,98.1,0.475
15.04,32224.7,35513.5,0.9162,1.2628,147.8,98.1,0.475
15.06,32187.0,35722.5,0.7626,1.7769,147.8,98.1,0.475
15.08,32289.2,35777.1,1.1786,1.9112,147.8,98.1,0.475
15.1,32385.8,35638.9,1.5719,1.5713,147.8,98.1,0.475
15.12,32185.0,35411.7,0.7544,1.0122,147.8,98.1,0.475
15.14,32059.2,35220.3,0.2427,0.5413,147.8,98.1,0.475
15.16,32037.0,35087.5,0.1519,0.2144,147.8,98.1,0.475
15.18,31995.6,35111.9,-0.0166,0.2745,147.8,98.1,0.475
15.2,31993.1,34981.7,-0.0267,-0.0458,147.8,98.1,0.475
15.22,31938.6,34994.6,-0.2485,-0.0142,147.8,98.1,0.475
15.24,31966.7,34744.2,-0.1342,-0.6302,147.8,98.1,0.475
15.26,31869.3,34713.5,-0.5305,-0.7058,147.8,98.1,0.475
15.28,31856.7,34665.6,-0.5819,-0.8237,147.8,98.1,0.475
15.3,31927.8,34633.8,-0.2925,-0.9019,147.8,98.1,0.475
15.32,31804.8,34621.2,-0.793,-0.9329,147.8,98.1,0.475
15.34,31878.5,34577.3,-0.4929,-1.0408,147.8,98.1,0.475
15.36,31773.3,34472.4,-0.9212,-1.299,147.8,98.1,0.475
15.38,31778.9,34459.0,-0.8985,-1.3319,147.8,98.1,0.475
15.4,31855.6,34647.9,-0.5862,-0.8672,147.8,98.1,0.475
15.42,31935.9,35038.6,-0.2595,0.0941,147.8,98.1,0.475
15.44,32171.1,35415.6,0.6979,1.0219,147.8,98.1,0.475
15.46,32304.7,35684.7,1.2419,1.6839,147.8,98.1,0.475
15.48,32360.8,35715.9,1.4702,1.7608,147.8,98.1,0.475
15.5,32301.4,35661.5,1.2283,1.6268,147.8,98.1,0.475
15.52,32281.4,35428.9,1.1468,1.0546,147.8,98.1,0.475
15.54,32162.8,35277.7,0.6644,0.6825,147.8,98.1,0.475
15.56,32128.4,35165.9,0.5241,0.4073,147.8,98.1,0.475
15.58,32009.3,35102.8,0.0392,0.252,147.8,98.1,0.475
15.6,32052.2,34968.5,0.2141,-0.0785,147.8,98.1,0.475
15.62,32045.5,34908.7,0.1869,-0.2255,147.8,98.1,0.475
15.64,31975.0,34905.8,-0.1004,-0.2327,147.8,98.1,0.475
15.66,31856.8,34747.0,-0.5813,-0.6233,147.8,98.1,0.475
15.68,31810.1,34652.5,-0.7716,-0.8559,147.8,98.1,0.475
15.7,31930.2,34722.3,-0.2827,-0.6842,147.8,98.1,0.475
15.72,31848.2,34626.3,-0.6163,-0.9203,147.8,98.1,0.475
15.74,31861.6,34539.8,-0.5618,-1.1331,147.8,98.1,0.475
15.76,31741.6,34374.7,-1.0503,-1.5395,147.8,98.1,0.475
15.78,31713.0,34538.0,-1.1668,-1.1376,147.8,98.1,0.475
15.8,31775.3,34584.6,-0.9133,-1.023,147.8,98.1,0.475
15.82,31917.0,34940.5,-0.3362,-0.1472,147.8,98.1,0.475
15.84,32070.7,35292.5,0.2894,0.719,147.8,98.1,0.475
15.86,32226.6,35573.8,0.9239,1.4111,147.8,98.1,0.475
15.88,32311.4,35719.7,1.2691,1.7702,147.8,98.1,0.475
15.9,32191.6,35725.6,0.7814,1.7846,147.8,98.1,0.475
15.92,32206.2,35454.5,0.8411,1.1175,147.8,98.1,0.475
15.94,32209.3,35337.6,0.8536,0.8299,147.8,98.1,0.475
15.96,32118.7,35247.9,0.4845,0.6092,147.8,98.1,0.475
15.98,32112.6,35076.2,0.4598,0.1866,147.8,98.1,0.475
16.0,32009.4,35035.2,0.0397,0.0858,147.8,98.1,0.475
16.02,31998.1,34952.4,-0.0062,-0.1181,147.8,98.1,0.475
16.04,31911.1,34779.2,-0.3605,-0.5441,147.8,98.1,0.475
16.06,31821.8,34760.6,-0.7239,-0.5899,147.8,98.1,0.475
16.08,31904.2,34686.5,-0.3884,-0.7723,147.8,98.1,0.475
16.1,31924.7,34750.8,-0.3049,-0.614,147.8,98.1,0.475
16.12,31805.9,34569.2,-0.7886,-1.0609,147.8,98.1,0.475
16.14,31838.5,34551.8,-0.6561,-1.1037,147.8,98.1,0.475
16.16,31792.2,34514.9,-0.8442,-1.1944,147.8,98.1,0.475
16.18,31724.3,34516.0,-1.1208,-1.1918,147.8,98.1,0.475
16.2,31859.3,34585.1,-0.5714,-1.0217,147.8,98.1,0.475
16.22,31879.1,34717.5,-0.4905,-0.6959,147.8,98.1,0.475
16.24,32077.2,35125.3,0.3156,0.3076,147.8,98.1,0.475
16.26,32220.5,35499.5,0.8992,1.2283,147.8,98.1,0.475
16.28,32247.0,35687.2,1.0071,1.69,147.8,98.1,0.475
16.3,32253.5,35724.5,1.0336,1.7819,147.8,98.1,0.475
16.32,32242.4,35581.2,0.9884,1.4292,147.8,98.1,0.475
16.34,32171.9,35419.0,0.7012,1.0302,147.8,98.1,0.475
16.36,32044.8,35209.2,0.1839,0.514,147.8,98.1,0.475
16.38,32089.1,35003.7,0.364,0.0083,147.8,98.1,0.475
16.4,32082.0,35037.2,0.3352,0.0906,147.8,98.1,0.475
16.42,31992.5,35007.8,-0.0291,0.0183,147.8,98.1,0.475
16.44,31979.4,34954.5,-0.0822,-0.1128,147.8,98.1,0.475
16.46,31795.9,34821.6,-0.8293,-0.4398,147.8,98.1,0.475
16.48,31875.3,34770.5,-0.5061,-0.5654,147.8,98.1,0.475
16.5,31898.3,34642.5,-0.4125,-0.8805,147.8,98.1,0.475
16.52,31821.8,34790.7,-0.724,-0.5159,147.8,98.1,0.475
16.54,31800.3,34651.2,-0.8114,-0.859,147.8,98.1,0.475
16.56,31776.6,34553.6,-0.9078,-1.0993,147.8,98.1,0.475
16.58,31774.2,34440.7,-0.9178,-1.377,147.8,98.1,0.475
16.6,31799.9,34416.7,-0.813,-1.436,147.8,98.1,0.475
16.62,31916.3,34568.0,-0.3391,-1.0638,147.8,98.1,0.475
16.64,32018.1,35050.1,0.0753,0.1224,147.8,98.1,0.475
16.66,32281.8,35442.9,1.1487,1.089,147.8,98.1,0.475
16.68,32299.6,35676.0,1.2211,1.6625,147.8,98.1,0.475
16.7,32266.4,35779.8,1.0859,1.918,147.8,98.1,0.475
16.72,32338.1,35703.9,1.378,1.7311,147.8,98.1,0.475
16.74,32198.9,35467.6,0.8111,1.1498,147.8,98.1,0.475
16.76,32019.1,35218.6,0.0792,0.537,147.8,98.1,0.475
16.78,32040.2,35161.1,0.1651,0.3955,147.8,98.1,0.475
16.8,31946.7,35110.4,-0.2155,0.2707,147.8,98.1,0.475
16.82,32045.6,35011.6,0.1869,0.0277,147.8,98.1,0.475
16.84,32001.3,34901.5,0.0067,-0.2433,147.8,98.1,0.475
16.86,31875.4,34772.7,-0.5058,-0.5601,147.8,98.1,0.475
16.88,31869.8,34794.2,-0.5283,-0.5072,147.8,98.1,0.475
16.9,31894.2,34777.1,-0.4293,-0.5493,147.8,98.1,0.475
16.92,31924.0,34649.5,-0.3078,-0.8632,147.8,98.1,0.475
16.94,31867.4,34677.6,-0.5382,-0.7942,147.8,98.1,0.475
16.96,31841.0,34479.8,-0.6456,-1.2809,147.8,98.1,0.475
16.98,31769.9,34439.5,-0.9352,-1.38,147.8,98.1,0.475
17.0,31888.7,34499.8,-0.4514,-1.2316,147.8,98.1,0.475
17.02,31856.2,34612.5,-0.5839,-0.9543,147.8,98.1,0.475
17.04,31932.7,34919.2,-0.2723,-0.1996,147.8,98.1,0.475
17.06,32092.8,35361.1,0.3792,0.8877,147.8,98.1,0.475
17.08,32301.9,35604.3,1.2303,1.4862,147.8,98.1,0.475
17.1,32415.2,35761.8,1.6917,1.8736,147.8,98.1,0.475
17.12,32315.5,35705.1,1.2857,1.7342,147.8,98.1,0.475
17.14,32182.9,35517.8,0.746,1.2734,147.8,98.1,0.475
17.16,32063.1,35215.1,0.2583,0.5285,147.8,98.1,0.475
17.18,32026.9,35265.1,0.1111,0.6514,147.8,98.1,0.475
17.2,32079.2,35095.9,0.3237,0.2351,147.8,98.1,0.475
17.22,31905.0,35034.4,-0.3851,0.0839,147.8,98.1,0.475
17.24,31971.4,34942.1,-0.1149,-0.1432,147.8,98.1,0.475
17.26,31853.1,34830.1,-0.5966,-0.419,147.8,98.1,0.475
17.28,31977.3,34731.2,-0.0909,-0.6622,147.8,98.1,0.475
17.3,31831.1,34713.2,-0.6862,-0.7066,147.8,98.1,0.475
17.32,31926.9,34696.0,-0.2961,-0.7489,147.8,98.1,0.475
17.34,31871.1,34705.6,-0.5234,-0.7253,147.8,98.1,0.475
17.36,31850.4,34625.4,-0.6073,-0.9225,147.8,98.1,0.475
17.38,31800.2,34498.6,-0.8118,-1.2346,147.8,98.1,0.475
17.4,31793.7,34435.6,-0.8383,-1.3897,147.8,98.1,0.475
17.42,31804.7,34611.2,-0.7935,-0.9575,147.8,98.1,0.475
17.44,31881.4,34826.5,-0.4812,-0.4278,147.8,98.1,0.475
17.46,32017.7,35158.5,0.0734,0.3892,147.8,98.1,0.475
17.48,32274.3,35381.0,1.1183,0.9367,147.8,98.1,0.475
17.5,32380.9,35784.4,1.5521,1.9292,147.8,98.1,0.475
17.52,32278.7,35666.7,1.1359,1.6397,147.8,98.1,0.475
17.54,32258.7,35596.6,1.0546,1.4672,147.8,98.1,0.475
17.56,32154.0,35407.8,0.6285,1.0026,147.8,98.1,0.475
17.58,32127.8,35226.0,0.5218,0.5553,147.8,98.1,0.475
17.6,32013.4,35161.6,0.0562,0.3967,147.8,98.1,0.475
17.62,32029.9,35119.5,0.1233,0.2932,147.8,98.1,0.475
17.64,31935.5,34993.2,-0.2611,-0.0175,147.8,98.1,0.475
17.66,31975.6,34862.9,-0.0979,-0.3381,147.8,98.1,0.475
17.68,31895.5,34837.1,-0.4237,-0.4018,147.8,98.1,0.475
17.7,31848.0,34676.1,-0.6173,-0.7978,147.8,98.1,0.475
17.72,31880.9,34670.6,-0.4834,-0.8113,147.8,98.1,0.475
17.74,31881.7,34636.5,-0.4801,-0.8954,147.8,98.1,0.475
17.76,31863.6,34720.6,-0.5536,-0.6882,147.8,98.1,0.475
17.78,31807.4,34395.8,-0.7824,-1.4876,147.8,98.1,0.475
17.8,31649.6,34460.1,-1.4249,-1.3294,147.8,98.1,0.475
17.82,31729.0,34538.6,-1.1017,-1.1362,147.8,98.1,0.475
17.84,31904.7,34618.8,-0.3864,-0.9389,147.8,98.1,0.475
17.86,32039.2,35048.6,0.1612,0.1188,147.8,98.1,0.475
17.88,32246.9,35453.8,1.0065,1.1157,147.8,98.1,0.475
17.9,32319.0,35716.5,1.3002,1.7621,147.8,98.1,0.475
17.92,32235.1,35734.0,0.9585,1.8053,147.8,98.1,0.475
17.94,32304.2,35690.2,1.2398,1.6975,147.8,98.1,0.475
17.96,32261.7,35361.6,1.067,0.889,147.8,98.1,0.475
17.98,32142.1,35202.8,0.5801,0.4981,147.8,98.1,0.475
18.0,32017.8,35198.5,0.0739,0.4875,147.8,98.1,0.475
18.02,31976.8,35187.7,-0.0929,0.461,147.8,98.1,0.475
18.04,32008.5,35003.5,0.036,0.0078,147.8,98.1,0.475
18.06,31977.2,34861.8,-0.0914,-0.3408,147.8,98.1,0.475
18.08,31951.3,34819.3,-0.1966,-0.4455,147.8,98.1,0.475
18.1,31840.5,34730.4,-0.6478,-0.6642,147.8,98.1,0.475
18.12,31900.3,34731.2,-0.4042,-0.6622,147.8,98.1,0.475
18.14,31871.6,34662.2,-0.5212,-0.8321,147.8,98.1,0.475
18.16,31834.9,34630.5,-0.6707,-0.9101,147.8,98.1,0.475
18.18,31817.4,34565.1,-0.7419,-1.0709,147.8,98.1,0.475
18.2,31762.6,34489.9,-0.965,-1.256,147.8,98.1,0.475
18.22,31778.0,34487.3,-0.9021,-1.2623,147.8,98.1,0.475
18.24,31869.6,34621.1,-0.5292,-0.933,147.8,98.1,0.475
18.26,31935.1,34881.8,-0.2628,-0.2918,147.8,98.1,0.475
18.28,32138.6,35253.4,0.5655,0.6226,147.8,98.1,0.475
18.3,32229.0,35626.3,0.9339,1.5402,147.8,98.1,0.475
18.32,32393.9,35700.5,1.6051,1.7229,147.8,98.1,0.475
18.34,32290.7,35699.5,1.1849,1.7203,147.8,98.1,0.475
18.36,32233.6,35479.3,0.9523,1.1785,147.8,98.1,0.475
18.38,32124.2,35327.9,0.5073,0.8061,147.8,98.1,0.475
18.4,32167.0,35222.5,0.6815,0.5466,147.8,98.1,0.475
18.42,31972.2,35097.7,-0.1115,0.2394,147.8,98.1,0.475
18.44,32084.2,35149.4,0.3441,0.3668,147.8,98.1,0.475
18.46,31970.7,34888.4,-0.1176,-0.2754,147.8,98.1,0.475
18.48,31894.9,34846.5,-0.4263,-0.3786,147.8,98.1,0.475
18.5,31894.2,34676.8,-0.429,-0.7962,147.8,98.1,0.475
18.52,31868.3,34765.7,-0.5347,-0.5774,147.8,98.1,0.475
18.54,31899.6,34582.7,-0.4071,-1.0276,147.8,98.1,0.475
18.56,31843.0,34601.9,-0.6376,-0.9805,147.8,98.1,0.475
18.58,31847.4,34532.9,-0.6195,-1.1501,147.8,98.1,0.475
18.6,31820.2,34468.2,-0.7305,-1.3094,147.8,98.1,0.475
18.62,31723.5,34494.9,-1.1239,-1.2436,147.8,98.1,0.475
18.64,31818.7,34715.6,-0.7364,-0.7005,147.8,98.1,0.475
18.66,31980.5,34907.9,-0.078,-0.2275,147.8,98.1,0.475
18.68,32097.6,35300.2,0.399,0.7377,147.8,98.1,0.475
18.7,32243.6,35578.6,0.9932,1.4228,147.8,98.1,0.475
18.72,32466.0,35673.8,1.8985,1.6572,147.8,98.1,0.475
18.74,32329.9,35681.3,1.3444,1.6757,147.8,98.1,0.475
18.76,32242.2,35600.6,0.9875,1.4769,147.8,98.1,0.475
18.78,32231.2,35280.8,0.9427,0.6901,147.8,98.1,0.475
18.8,32144.4,35275.7,0.5891,0.6774,147.8,98.1,0.475
18.82,32000.8,35120.3,0.0049,0.2952,147.8,98.1,0.475
18.84,32008.0,35055.9,0.0342,0.1366,147.8,98.1,0.475
18.86,31925.9,35078.4,-0.3002,0.192,147.8,98.1,0.475
18.88,31938.9,34851.0,-0.2471,-0.3674,147.8,98.1,0.475
18.9,31960.9,34848.7,-0.1576,-0.3731,147.8,98.1,0.475
18.92,31852.6,34715.4,-0.5986,-0.7011,147.8,98.1,0.475
18.94,31929.5,34622.9,-0.2855,-0.9288,147.8,98.1,0.475
18.96,31787.8,34716.5,-0.8622,-0.6984,147.8,98.1,0.475
18.98,31899.0,34642.3,-0.4098,-0.8809,147.8,98.1,0.475
19.0,31783.2,34467.0,-0.881,-1.3123,147.8,98.1,0.475
19.02,31849.2,34545.6,-0.6123,-1.1188,147.8,98.1,0.475
19.04,31865.1,34481.6,-0.5475,-1.2764,147.8,98.1,0.475
19.06,31912.9,34676.4,-0.3529,-0.7971,147.8,98.1,0.475
19.08,31980.7,35071.4,-0.077,0.1748,147.8,98.1,0.475
19.1,32165.2,35396.0,0.674,0.9735,147.8,98.1,0.475
19.12,32306.0,35609.6,1.2473,1.4991,147.8,98.1,0.475
19.14,32258.8,35803.1,1.0549,1.9753,147.8,98.1,0.475
19.16,32287.5,35650.0,1.172,1.5984,147.8,98.1,0.475
19.18,32215.2,35321.2,0.8777,0.7895,147.8,98.1,0.475
19.2,32153.6,35143.1,0.6267,0.3513,147.8,98.1,0.475
19.22,32112.1,35165.7,0.458,0.4069,147.8,98.1,0.475
19.24,32008.7,35122.9,0.0369,0.3015,147.8,98.1,0.475
19.26,32046.7,35110.8,0.1916,0.2718,147.8,98.1,0.475
19.28,32018.1,34881.4,0.0751,-0.2926,147.8,98.1,0.475
19.3,31820.5,34941.0,-0.7291,-0.146,147.8,98.1,0.475
19.32,31851.4,34645.5,-0.6034,-0.8731,147.8,98.1,0.475
19.34,31945.0,34739.0,-0.2225,-0.643,147.8,98.1,0.475
19.36,31804.6,34729.3,-0.794,-0.6668,147.8,98.1,0.475
19.38,31845.9,34558.2,-0.6257,-1.088,147.8,98.1,0.475
19.4,31755.6,34534.1,-0.9935,-1.1473,147.8,98.1,0.475
19.42,31794.9,34386.7,-0.8336,-1.51,147.8,98.1,0.475
19.44,31773.6,34497.5,-0.9202,-1.2373,147.8,98.1,0.475
19.46,31826.8,34623.6,-0.7035,-0.9271,147.8,98.1,0.475
19.48,32036.2,34997.2,0.1489,-0.0078,147.8,98.1,0.475
19.5,32113.1,35365.6,0.4619,0.8987,147.8,98.1,0.475
19.52,32322.0,35620.6,1.3121,1.5261,147.8,98.1,0.475
19.54,32316.5,35816.1,1.2897,2.0071,147.8,98.1,0.475
19.56,32248.9,35685.2,1.0147,1.6852,147.8,98.1,0.475
19.58,32169.9,35497.2,0.6933,1.2226,147.8,98.1,0.475
19.6,32125.5,35276.5,0.5123,0.6795,147.8,98.1,0.475
19.62,32003.9,35140.9,0.0175,0.3457,147.8,98.1,0.475
19.64,31978.7,35166.6,-0.0851,0.4091,147.8,98.1,0.475
19.66,32010.7,35073.3,0.0449,0.1794,147.8,98.1,0.475
19.68,31977.5,34950.9,-0.0902,-0.1218,147.8,98.1,0.475
19.7,31932.4,34874.9,-0.2736,-0.3086,147.8,98.1,0.475
19.72,31817.9,34662.7,-0.7397,-0.8307,147.8,98.1,0.475
19.74,31857.4,34678.6,-0.5791,-0.7917,147.8,98.1,0.475
19.76,31826.9,34639.1,-0.7033,-0.8888,147.8,98.1,0.475
19.78,31801.1,34634.2,-0.8081,-0.901,147.8,98.1,0.475
19.8,31800.0,34544.6,-0.8125,-1.1214,147.8,98.1,0.475
19.82,31740.1,34505.3,-1.0566,-1.2181,147.8,98.1,0.475
19.84,31716.2,34463.4,-1.1539,-1.3212,147.8,98.1,0.475
19.86,31831.7,34566.9,-0.6835,-1.0665,147.8,98.1,0.475
19.88,31977.3,34894.7,-0.0911,-0.26,147.8,98.1,0.475
19.9,32095.7,35253.7,0.3911,0.6235,147.8,98.1,0.475
19.92,32213.7,35667.9,0.8714,1.6427,147.8,98.1,0.475
19.94,32317.4,35799.4,1.2937,1.9662,147.8,98.1,0.475
19.96,32305.7,35666.0,1.2458,1.638,147.8,98.1,0.475
19.98,32250.5,35527.3,1.0211,1.2967,147.8,98.1,0.475
20.0,32186.4,35323.9,0.7602,0.7961,147.8,98.1,0.475
20.02,32080.8,35262.3,0.3304,0.6446,147.8,98.1,0.475
20.04,32050.9,35044.3,0.2088,0.1081,147.8,98.1,0.475
20.06,31967.1,35082.1,-0.1324,0.2011,147.8,98.1,0.475
20.08,32000.4,34929.2,0.0032,-0.175,147.8,98.1,0.475
20.1,31883.9,34868.6,-0.4711,-0.3242,147.8,98.1,0.475
20.12,31826.2,34703.3,-0.706,-0.7309,147.8,98.1,0.475
20.14,31866.8,34643.6,-0.5408,-0.8777,147.8,98.1,0.475
20.16,31912.2,34584.3,-0.3558,-1.0236,147.8,98.1,0.475
20.18,31831.0,34606.9,-0.6864,-0.9682,147.8,98.1,0.475
20.2,31915.7,34632.4,-0.3418,-0.9053,147.8,98.1,0.475
20.22,31816.7,34495.7,-0.7446,-1.2416,147.8,98.1,0.475
20.24,31742.7,34482.2,-1.0459,-1.2749,147.8,98.1,0.475
20.26,31789.6,34496.7,-0.8549,-1.2391,147.8,98.1,0.475
20.28,31867.3,34740.1,-0.5389,-0.6404,147.8,98.1,0.475
20.3,32085.2,35091.9,0.3481,0.2252,147.8,98.1,0.475
20.32,32203.5,35532.7,0.8298,1.3098,147.8,98.1,0.475
20.34,32188.4,35751.6,0.7683,1.8485,147.8,98.1,0.475
20.36,32378.1,35809.5,1.5407,1.9911,147.8,98.1,0.475
20.38,32232.6,35541.6,0.9485,1.3318,147.8,98.1,0.475
20.4,32158.0,35476.4,0.6448,1.1715,147.8,98.1,0.475
20.42,32124.1,35153.4,0.5068,0.3767,147.8,98.1,0.475
20.44,32153.9,35150.4,0.628,0.3691,147.8,98.1,0.475
20.46,31982.1,34958.0,-0.0716,-0.1041,147.8,98.1,0.475
20.48,32000.8,34999.1,0.0048,-0.003,147.8,98.1,0.475
20.5,32012.4,34924.4,0.0519,-0.187,147.8,98.1,0.475
20.52,31925.4,34799.4,-0.3023,-0.4944,147.8,98.1,0.475
20.54,31810.1,34769.9,-0.7715,-0.5671,147.8,98.1,0.475
20.56,31842.4,34664.9,-0.6399,-0.8253,147.8,98.1,0.475
20.58,31864.0,34627.1,-0.552,-0.9184,147.8,98.1,0.475
20.6,31892.7,34666.6,-0.4351,-0.8212,147.8,98.1,0.475
20.62,31861.7,34469.8,-0.5617,-1.3054,147.8,98.1,0.475
20.64,31728.0,34439.2,-1.1056,-1.3808,147.8,98.1,0.475
20.66,31737.1,34524.2,-1.0687,-1.1715,147.8,98.1,0.475
20.68,31838.0,34661.5,-0.6581,-0.8337,147.8,98.1,0.475
20.7,32020.0,35023.7,0.083,0.0575,147.8,98.1,0.475
20.72,32194.7,35370.3,0.794,0.9103,147.8,98.1,0.475
20.74,32267.8,35680.6,1.0915,1.6739,147.8,98.1,0.475
20.76,32361.6,35769.7,1.4735,1.893,147.8,98.1,0.475
20.78,32316.8,35531.1,1.291,1.3061,147.8,98.1,0.475
20.8,32140.2,35426.9,0.5722,1.0496,147.8,98.1,0.475
20.82,32061.7,35321.9,0.2527,0.7912,147.8,98.1,0.475
20.84,32045.6,35156.5,0.1871,0.3842,147.8,98.1,0.475
20.86,32040.9,35020.4,0.1679,0.0495,147.8,98.1,0.475
20.88,31927.5,35012.4,-0.2935,0.0298,147.8,98.1,0.475
20.9,31987.8,34849.0,-0.0481,-0.3725,147.8,98.1,0.475
20.92,31853.0,34851.6,-0.597,-0.366,147.8,98.1,0.475
20.94,31906.8,34677.3,-0.3781,-0.795,147.8,98.1,0.475
20.96,31857.4,34689.1,-0.5792,-0.7658,147.8,98.1,0.475
20.98,31835.7,34679.1,-0.6675,-0.7904,147.8,98.1,0.475
21.0,31715.0,34642.3,-1.1588,-0.881,147.8,98.1,0.475
21.02,31755.9,34630.2,-0.9922,-0.9109,147.8,98.1,0.475
21.04,31773.0,34489.6,-0.9227,-1.2567,147.8,98.1,0.475
21.06,31691.4,34457.9,-1.2547,-1.3347,147.8,98.1,0.475
21.08,31820.1,34608.9,-0.731,-0.9633,147.8,98.1,0.475
21.1,31976.1,34875.7,-0.0956,-0.3066,147.8,98.1,0.475
21.12,32059.2,35276.3,0.2425,0.6791,147.8,98.1,0.475
21.14,32171.3,35628.9,0.6988,1.5466,147.8,98.1,0.475
21.16,32309.5,35728.9,1.2614,1.7928,147.8,98.1,0.475
21.18,32316.9,35673.4,1.2917,1.6562,147.8,98.1,0.475
21.2,32194.0,35497.2,0.7913,1.2226,147.8,98.1,0.475
21.22,32179.1,35328.3,0.7306,0.807,147.8,98.1,0.475
21.24,32079.6,35210.7,0.3254,0.5176,147.8,98.1,0.475
21.26,32081.7,35128.1,0.334,0.3144,147.8,98.1,0.475
21.28,32049.8,35070.1,0.2041,0.1717,147.8,98.1,0.475
21.3,32020.7,34989.0,0.0857,-0.0279,147.8,98.1,0.475
21.32,31941.5,34878.7,-0.2364,-0.2993,147.8,98.1,0.475
21.34,31858.6,34749.5,-0.5742,-0.6173,147.8,98.1,0.475
21.36,31896.8,34665.8,-0.4188,-0.8231,147.8,98.1,0.475
21.38,31920.6,34639.0,-0.3218,-0.8891,147.8,98.1,0.475
21.4,31883.9,34693.1,-0.4711,-0.7559,147.8,98.1,0.475
21.42,31800.0,34547.2,-0.8128,-1.1149,147.8,98.1,0.475
21.44,31784.2,34479.0,-0.8769,-1.2829,147.8,98.1,0.475
21.46,31780.6,34478.8,-0.8916,-1.2832,147.8,98.1,0.475
21.48,31754.8,34545.8,-0.9967,-1.1184,147.8,98.1,0.475
21.5,31931.3,34871.8,-0.278,-0.3163,147.8,98.1,0.475
21.52,32128.8,35188.4,0.5259,0.4626,147.8,98.1,0.475
21.54,32209.8,35538.4,0.8557,1.3238,147.8,98.1,0.475
21.56,32294.8,35742.9,1.2015,1.8273,147.8,98.1,0.475
21.58,32221.9,35684.9,0.9049,1.6844,147.8,98.1,0.475
21.6,32246.5,35614.7,1.0051,1.5117,147.8,98.1,0.475
21.62,32257.9,35403.6,1.0514,0.9922,147.8,98.1,0.475
21.64,31999.0,35136.3,-0.0027,0.3346,147.8,98.1,0.475
21.66,32051.4,35163.7,0.2107,0.402,147.8,98.1,0.475
21.68,32009.3,35071.5,0.0393,0.1751,147.8,98.1,0.475
21.7,31999.5,35086.2,-0.0005,0.2112,147.8,98.1,0.475
21.72,31953.2,34914.7,-0.1891,-0.2106,147.8,98.1,0.475
21.74,31860.7,34788.1,-0.5656,-0.5222,147.8,98.1,0.475
21.76,31873.1,34685.7,-0.5153,-0.7743,147.8,98.1,0.475
21.78,31892.5,34669.8,-0.4363,-0.8134,147.8,98.1,0.475
21.8,31823.3,34521.8,-0.7179,-1.1776,147.8,98.1,0.475
21.82,31732.0,34585.9,-1.0895,-1.0198,147.8,98.1,0.475
21.84,31795.3,34517.5,-0.8316,-1.188,147.8,98.1,0.475
21.86,31763.0,34375.8,-0.9633,-1.5367,147.8,98.1,0.475
21.88,31810.5,34531.1,-0.7701,-1.1546,147.8,98.1,0.475
21.9,31873.4,34720.2,-0.5138,-0.6894,147.8,98.1,0.475
21.92,32108.9,35110.6,0.4447,0.2712,147.8,98.1,0.475
21.94,32185.7,35390.7,0.7574,0.9605,147.8,98.1,0.475
21.96,32226.2,35733.9,0.9222,1.805,147.8,98.1,0.475
21.98,32340.5,35784.3,1.3875,1.9291,147.8,98.1,0.475
22.0,32204.5,35733.1,0.8339,1.8031,147.8,98.1,0.475
22.02,32147.0,35448.2,0.5999,1.102,147.8,98.1,0.475
22.04,32080.3,35223.2,0.3284,0.5483,147.8,98.1,0.475
22.06,31980.5,35057.5,-0.0777,0.1407,147.8,98.1,0.475
22.08,32072.6,35093.8,0.2971,0.2299,147.8,98.1,0.475
22.1,31987.2,35081.0,-0.0508,0.1984,147.8,98.1,0.475
22.12,31993.1,34972.8,-0.0265,-0.0679,147.8,98.1,0.475
22.14,31860.9,34858.0,-0.5648,-0.3503,147.8,98.1,0.475
22.16,31938.2,34802.2,-0.25,-0.4875,147.8,98.1,0.475
22.18,31944.9,34712.1,-0.2228,-0.7092,147.8,98.1,0.475
22.2,31907.9,34708.1,-0.3733,-0.719,147.8,98.1,0.475
22.22,31835.7,34572.9,-0.6673,-1.0517,147.8,98.1,0.475
22.24,31733.9,34515.3,-1.0819,-1.1935,147.8,98.1,0.475
22.26,31727.1,34512.9,-1.1095,-1.1994,147.8,98.1,0.475
22.28,31712.0,34519.7,-1.1707,-1.1826,147.8,98.1,0.475
22.3,31856.7,34584.5,-0.5818,-1.0231,147.8,98.1,0.475
22.32,31961.6,35061.2,-0.1548,0.1497,147.8,98.1,0.475
22.34,32118.2,35301.3,0.4825,0.7404,147.8,98.1,0.475
22.36,32332.6,35607.9,1.3554,1.4949,147.8,98.1,0.475
22.38,32316.6,35762.9,1.2903,1.8764,147.8,98.1,0.475
22.4,32170.9,35550.6,0.6971,1.354,147.8,98.1,0.475
22.42,32150.2,35470.9,0.613,1.1579,147.8,98.1,0.475
22.44,32136.3,35316.3,0.5563,0.7776,147.8,98.1,0.475
22.46,31986.9,35248.9,-0.0517,0.6117,147.8,98.1,0.475
22.48,32006.5,35054.4,0.0279,0.133,147.8,98.1,0.475
22.5,32099.8,35043.1,0.4076,0.1052,147.8,98.1,0.475
22.52,32019.0,35025.1,0.079,0.0609,147.8,98.1,0.475
22.54,31942.0,34857.1,-0.2348,-0.3525,147.8,98.1,0.475
22.56,31884.6,34698.7,-0.4683,-0.7423,147.8,98.1,0.475
22.58,31922.0,34733.9,-0.3161,-0.6556,147.8,98.1,0.475
22.6,31930.8,34605.0,-0.28,-0.9728,147.8,98.1,0.475
22.62,31842.6,34657.9,-0.6391,-0.8426,147.8,98.1,0.475
22.64,31818.1,34615.3,-0.7389,-0.9475,147.8,98.1,0.475
22.66,31701.3,34492.7,-1.2145,-1.249,147.8,98.1,0.475
22.68,31705.2,34434.5,-1.1987,-1.3923,147.8,98.1,0.475
22.7,31803.9,34613.2,-0.7969,-0.9525,147.8,98.1,0.475
22.72,31919.9,34856.2,-0.3247,-0.3546,147.8,98.1,0.475
22.74,32107.3,35290.9,0.4383,0.7148,147.8,98.1,0.475
22.76,32291.5,35545.3,1.1881,1.3409,147.8,98.1,0.475
22.78,32289.6,35715.7,1.1803,1.7603,147.8,98.1,0.475
22.8,32347.6,35702.0,1.4165,1.7265,147.8,98.1,0.475
22.82,32187.4,35611.0,0.7644,1.5026,147.8,98.1,0.475
22.84,32243.5,35400.6,0.9929,0.985,147.8,98.1,0.475
22.86,32031.9,35170.4,0.1314,0.4183,147.8,98.1,0.475
22.88,32096.5,35100.0,0.3942,0.2452,147.8,98.1,0.475
22.9,32029.0,35108.4,0.1196,0.2659,147.8,98.1,0.475
22.92,32052.7,35009.7,0.2161,0.0231,147.8,98.1,0.475
22.94,31941.0,34748.1,-0.2386,-0.6208,147.8,98.1,0.475
22.96,31849.1,34796.3,-0.613,-0.502,147.8,98.1,0.475
22.98,31731.2,34679.1,-1.0926,-0.7905,147.8,98.1,0.475
23.0,31891.9,34630.0,-0.4385,-0.9112,147.8,98.1,0.475
23.02,31882.5,34561.8,-0.4768,-1.079,147.8,98.1,0.475
23.04,31868.4,34578.1,-0.5342,-1.0391,147.8,98.1,0.475
23.06,31823.2,34568.9,-0.7181,-1.0615,147.8,98.1,0.475
23.08,31759.4,34389.1,-0.978,-1.5041,147.8,98.1,0.475
23.1,31718.1,34536.0,-1.146,-1.1426,147.8,98.1,0.475
23.12,31958.4,34791.1,-0.1679,-0.5149,147.8,98.1,0.475
23.14,32083.2,35061.1,0.3403,0.1496,147.8,98.1,0.475
23.16,32223.0,35470.1,0.9095,1.156,147.8,98.1,0.475
23.18,32331.6,35704.4,1.3515,1.7323,147.8,98.1,0.475
23.2,32357.2,35711.2,1.4554,1.7492,147.8,98.1,0.475
23.22,32321.2,35667.0,1.3091,1.6403,147.8,98.1,0.475
23.24,32194.0,35438.0,0.7913,1.0769,147.8,98.1,0.475
23.26,32075.9,35188.7,0.3104,0.4634,147.8,98.1,0.475
23.28,31892.8,35176.1,-0.4349,0.4325,147.8,98.1,0.475
23.3,32093.6,34992.9,0.3827,-0.0183,147.8,98.1,0.475
23.32,32007.5,34992.0,0.032,-0.0205,147.8,98.1,0.475
23.34,31940.2,34981.3,-0.2419,-0.0469,147.8,98.1,0.475
23.36,31873.6,34934.9,-0.5131,-0.1609,147.8,98.1,0.475
23.38,31886.6,34677.1,-0.4602,-0.7953,147.8,98.1,0.475
23.4,31822.4,34659.1,-0.7216,-0.8396,147.8,98.1,0.475
23.42,31846.0,34635.9,-0.6252,-0.8967,147.8,98.1,0.475
23.44,31886.4,34586.8,-0.461,-1.0176,147.8,98.1,0.475
23.46,31814.7,34515.9,-0.7527,-1.1921,147.8,98.1,0.475
23.48,31762.0,34435.1,-0.9675,-1.3908,147.8,98.1,0.475
23.5,31828.1,34553.1,-0.6981,-1.1004,147.8,98.1,0.475
23.52,31846.1,34564.5,-0.6251,-1.0725,147.8,98.1,0.475
23.54,31946.3,34940.1,-0.2171,-0.1481,147.8,98.1,0.475
23.56,32120.9,35408.3,0.4935,1.0038,147.8,98.1,0.475
23.58,32258.5,35728.8,1.0537,1.7926,147.8,98.1,0.475
23.6,32279.0,35700.3,1.1374,1.7222,147.8,98.1,0.475
23.62,32272.6,35623.7,1.111,1.5338,147.8,98.1,0.475
23.64,32202.2,35499.8,0.8247,1.2289,147.8,98.1,0.475
23.66,32098.7,35310.0,0.4035,0.7619,147.8,98.1,0.475
23.68,32053.9,35177.7,0.2208,0.4365,147.8,98.1,0.475
23.7,31988.1,35062.9,-0.0468,0.1539,147.8,98.1,0.475
23.72,32037.0,35054.9,0.1522,0.1342,147.8,98.1,0.475
23.74,32006.5,34952.3,0.0278,-0.1181,147.8,98.1,0.475
23.76,31829.9,34874.4,-0.6909,-0.3099,147.8,98.1,0.475
23.78,31847.4,34782.7,-0.6198,-0.5355,147.8,98.1,0.475
23.8,31841.7,34791.0,-0.6429,-0.515,147.8,98.1,0.475
23.82,31908.9,34619.5,-0.3694,-0.9372,147.8,98.1,0.475
23.84,31860.5,34648.2,-0.5664,-0.8663,147.8,98.1,0.475
23.86,31850.0,34688.6,-0.6093,-0.767,147.8,98.1,0.475
23.88,31772.8,34497.9,-0.9233,-1.2363,147.8,98.1,0.475
23.9,31723.3,34404.8,-1.125,-1.4654,147.8,98.1,0.475
23.92,31857.7,34528.9,-0.578,-1.1599,147.8,98.1,0.475
23.94,31978.2,34845.9,-0.0871,-0.3801,147.8,98.1,0.475
23.96,32072.3,35278.0,0.2959,0.6831,147.8,98.1,0.475
23.98,32255.9,35566.9,1.0431,1.394,147.8,98.1,0.475
24.0,32300.0,35685.0,1.2227,1.6847,147.8,98.1,0.475
24.02,32264.3,35766.1,1.0774,1.8841,147.8,98.1,0.475
24.04,32253.4,35519.7,1.0329,1.278,147.8,98.1,0.475
24.06,32204.7,35309.5,0.8346,0.7607,147.8,98.1,0.475
24.08,32095.7,35152.3,0.3911,0.3739,147.8,98.1,0.475
24.1,32051.3,35117.2,0.2105,0.2877,147.8,98.1,0.475
24.12,32053.9,35015.8,0.2208,0.038,147.8,98.1,0.475
24.14,32007.9,34988.4,0.0337,-0.0294,147.8,98.1,0.475
24.16,31999.9,34890.5,0.0012,-0.2704,147.8,98.1,0.475
24.18,31928.4,34782.2,-0.2899,-0.5367,147.8,98.1,0.475
24.2,31908.6,34693.8,-0.3705,-0.7542,147.8,98.1,0.475
24.22,31829.7,34620.3,-0.6917,-0.9352,147.8,98.1,0.475
24.24,31858.9,34645.7,-0.5729,-0.8726,147.8,98.1,0.475
24.26,31762.2,34599.0,-0.9666,-0.9876,147.8,98.1,0.475
24.28,31821.9,34417.8,-0.7234,-1.4333,147.8,98.1,0.475
24.3,31776.2,34514.1,-0.9093,-1.1964,147.8,98.1,0.475
24.32,31866.7,34510.7,-0.5411,-1.2047,147.8,98.1,0.475
24.34,31948.2,34808.6,-0.2095,-0.4717,147.8,98.1,0.475
24.36,32140.5,35163.6,0.5734,0.4018,147.8,98.1,0.475
24.38,32172.4,35626.1,0.7032,1.5398,147.8,98.1,0.475
24.4,32343.8,35697.3,1.4012,1.715,147.8,98.1,0.475
24.42,32373.2,35747.5,1.5209,1.8384,147.8,98.1,0.475
24.44,32334.1,35564.0,1.3617,1.3871,147.8,98.1,0.475
24.46,32186.4,35389.2,0.7602,0.9569,147.8,98.1,0.475
24.48,32046.3,35186.7,0.1901,0.4585,147.8,98.1,0.475
24.5,32131.7,35151.2,0.5375,0.3713,147.8,98.1,0.475
24.52,32085.8,35091.3,0.3508,0.2238,147.8,98.1,0.475
24.54,31915.4,35027.3,-0.3429,0.0665,147.8,98.1,0.475
24.56,31907.1,34944.4,-0.3765,-0.1376,147.8,98.1,0.475
24.58,31844.8,34802.1,-0.6304,-0.4879,147.8,98.1,0.475
24.6,31929.3,34657.4,-0.2862,-0.8439,147.8,98.1,0.475
24.62,31881.0,34723.9,-0.4829,-0.6801,147.8,98.1,0.475
24.64,31924.5,34691.8,-0.306,-0.7591,147.8,98.1,0.475
24.66,31799.6,34601.4,-0.8141,-0.9817,147.8,98.1,0.475
24.68,31758.4,34592.9,-0.9819,-1.0026,147.8,98.1,0.475
24.7,31837.6,34455.9,-0.6595,-1.3397,147.8,98.1,0.475
24.72,31687.7,34568.9,-1.27,-1.0615,147.8,98.1,0.475
24.74,31820.5,34612.3,-0.7291,-0.9549,147.8,98.1,0.475
24.76,31983.1,35013.1,-0.0674,0.0315,147.8,98.1,0.475
24.78,32108.4,35306.8,0.4427,0.7541,147.8,98.1,0.475
24.8,32191.6,35601.4,0.7813,1.479,147.8,98.1,0.475
24.82,32347.3,35747.3,1.4152,1.8379,147.8,98.1,0.475
24.84,32254.1,35663.5,1.036,1.6319,147.8,98.1,0.475
24.86,32214.3,35518.6,0.8738,1.2753,147.8,98.1,0.475
24.88,32067.8,35166.8,0.2776,0.4095,147.8,98.1,0.475
24.9,32093.2,35212.5,0.381,0.5219,147.8,98.1,0.475
24.92,32088.4,35063.6,0.3615,0.1558,147.8,98.1,0.475
24.94,31929.4,34991.6,-0.2859,-0.0214,147.8,98.1,0.475
24.96,31988.1,34894.9,-0.047,-0.2594,147.8,98.1,0.475
24.98,31860.6,34821.4,-0.5658,-0.4403,147.8,98.1,0.475
25.0,31851.8,34691.9,-0.6018,-0.7591,147.8,98.1,0.475
25.02,31883.8,34655.0,-0.4715,-0.8497,147.8,98.1,0.475
25.04,31920.5,34649.1,-0.3222,-0.8642,147.8,98.1,0.475
25.06,31787.3,34657.2,-0.8642,-0.8444,147.8,98.1,0.475
25.08,31767.5,34577.1,-0.9449,-1.0414,147.8,98.1,0.475
25.1,31738.7,34451.6,-1.062,-1.3501,147.8,98.1,0.475
25.12,31819.5,34455.3,-0.7334,-1.3412,147.8,98.1,0.475
25.14,31853.3,34662.4,-0.5956,-0.8314,147.8,98.1,0.475
25.16,31944.4,34930.3,-0.2248,-0.1724,147.8,98.1,0.475
25.18,32140.0,35309.5,0.5712,0.7607,147.8,98.1,0.475
25.2,32255.5,35618.0,1.0414,1.5198,147.8,98.1,0.475
25.22,32305.3,35816.5,1.2442,2.0082,147.8,98.1,0.475
25.24,32295.4,35659.0,1.2038,1.6207,147.8,98.1,0.475
25.26,32283.1,35479.3,1.154,1.1786,147.8,98.1,0.475
25.28,32115.9,35282.0,0.4732,0.6931,147.8,98.1,0.475
25.3,32045.2,35247.6,0.1854,0.6083,147.8,98.1,0.475
25.32,32037.7,35107.7,0.155,0.2642,147.8,98.1,0.475
25.34,32087.4,35075.6,0.3574,0.1853,147.8,98.1,0.475
25.36,31973.4,34940.9,-0.1067,-0.1463,147.8,98.1,0.475
25.38,31905.9,34844.7,-0.3814,-0.3829,147.8,98.1,0.475
25.4,31842.2,34708.6,-0.6408,-0.7177,147.8,98.1,0.475
25.42,31848.9,34608.5,-0.6137,-0.9642,147.8,98.1,0.475
25.44,31893.8,34694.9,-0.4309,-0.7516,147.8,98.1,0.475
25.46,31811.7,34574.3,-0.7651,-1.0483,147.8,98.1,0.475
25.48,31753.4,34617.1,-1.0023,-0.943,147.8,98.1,0.475
25.5,31773.5,34533.3,-0.9204,-1.1491,147.8,98.1,0.475
25.52,31803.5,34511.8,-0.7982,-1.2021,147.8,98.1,0.475
25.54,31820.2,34526.3,-0.7304,-1.1665,147.8,98.1,0.475
25.56,31896.7,34777.1,-0.4192,-0.5492,147.8,98.1,0.475
25.58,32116.0,35089.2,0.4738,0.2187,147.8,98.1,0.475
25.6,32272.9,35567.8,1.1125,1.3964,147.8,98.1,0.475
25.62,32305.1,35715.7,1.2433,1.7602,147.8,98.1,0.475
25.64,32348.4,35708.2,1.4196,1.7418,147.8,98.1,0.475
25.66,32305.5,35518.3,1.2451,1.2744,147.8,98.1,0.475
25.68,32125.8,35357.9,0.5136,0.8798,147.8,98.1,0.475
25.7,32091.8,35173.2,0.3752,0.4253,147.8,98.1,0.475
25.72,31999.0,35163.5,-0.0027,0.4015,147.8,98.1,0.475
25.74,32038.5,35011.5,0.1581,0.0275,147.8,98.1,0.475
25.76,32003.9,35073.9,0.0174,0.181,147.8,98.1,0.475
25.78,31895.8,34883.3,-0.4226,-0.288,147.8,98.1,0.475
25.8,31901.7,34839.2,-0.3987,-0.3965,147.8,98.1,0.475
25.82,31888.2,34645.6,-0.4535,-0.8729,147.8,98.1,0.475
25.84,31841.5,34699.5,-0.6436,-0.7403,147.8,98.1,0.475
25.86,31812.3,34745.1,-0.7624,-0.6281,147.8,98.1,0.475
25.88,31889.0,34677.9,-0.4505,-0.7934,147.8,98.1,0.475
25.9,31761.5,34543.2,-0.9694,-1.1249,147.8,98.1,0.475
25.92,31775.3,34372.8,-0.9132,-1.5441,147.8,98.1,0.475
25.94,31816.8,34555.2,-0.7444,-1.0954,147.8,98.1,0.475
25.96,31902.8,34619.6,-0.3941,-0.9368,147.8,98.1,0.475
25.98,32082.3,35011.3,0.3366,0.027,147.8,98.1,0.475
26.0,32156.7,35393.7,0.6395,0.968,147.8,98.1,0.475
26.02,32232.5,35670.0,0.9478,1.6478,147.8,98.1,0.475
26.04,32363.7,35697.8,1.482,1.7162,147.8,98.1,0.475
26.06,32225.1,35639.8,0.9178,1.5734,147.8,98.1,0.475
26.08,32254.4,35447.3,1.0369,1.0999,147.8,98.1,0.475
26.1,32088.2,35275.5,0.3606,0.677,147.8,98.1,0.475
26.12,32050.8,35117.3,0.2082,0.2879,147.8,98.1,0.475
26.14,32029.0,35089.7,0.1196,0.2198,147.8,98.1,0.475
26.16,31965.9,35078.3,-0.1375,0.1919,147.8,98.1,0.475
26.18,31953.3,34992.3,-0.1887,-0.0197,147.8,98.1,0.475
26.2,31940.9,34772.7,-0.2389,-0.5601,147.8,98.1,0.475
26.22,31859.7,34690.2,-0.5695,-0.7631,147.8,98.1,0.475
26.24,31833.9,34681.4,-0.6745,-0.7847,147.8,98.1,0.475
26.26,31900.5,34701.3,-0.4035,-0.7359,147.8,98.1,0.475
26.28,31820.2,34621.6,-0.7304,-0.932,147.8,98.1,0.475
26.3,31758.9,34553.6,-0.9798,-1.0993,147.8,98.1,0.475
26.32,31790.6,34514.0,-0.8511,-1.1968,147.8,98.1,0.475
26.34,31812.5,34432.0,-0.7619,-1.3985,147.8,98.1,0.475
26.36,31829.4,34609.2,-0.6931,-0.9625,147.8,98.1,0.475
26.38,32011.6,34965.0,0.0486,-0.0869,147.8,98.1,0.475
26.4,32211.5,35226.9,0.8623,0.5574,147.8,98.1,0.475
26.42,32310.6,35633.6,1.2659,1.5581,147.8,98.1,0.475
26.44,32368.4,35801.3,1.5012,1.9707,147.8,98.1,0.475
26.46,32320.7,35685.0,1.307,1.6846,147.8,98.1,0.475
26.48,32240.6,35571.6,0.981,1.4056,147.8,98.1,0.475
26.5,32153.8,35281.3,0.6276,0.6914,147.8,98.1,0.475
26.52,31957.4,35270.2,-0.172,0.6641,147.8,98.1,0.475
26.54,31953.2,35045.6,-0.1891,0.1113,147.8,98.1,0.475
26.56,32042.4,35010.0,0.1741,0.0237,147.8,98.1,0.475
26.58,32001.2,35003.9,0.0066,0.0088,147.8,98.1,0.475
26.6,31970.9,34819.4,-0.1169,-0.4453,147.8,98.1,0.475
26.62,31889.7,34688.1,-0.4475,-0.7684,147.8,98.1,0.475
26.64,31810.7,34736.6,-0.7693,-0.6489,147.8,98.1,0.475
26.66,31893.4,34686.8,-0.4324,-0.7715,147.8,98.1,0.475
26.68,31825.0,34648.1,-0.7108,-0.8667,147.8,98.1,0.475
26.7,31854.2,34626.3,-0.5922,-0.9204,147.8,98.1,0.475
26.72,31754.2,34499.8,-0.9993,-1.2315,147.8,98.1,0.475
26.74,31761.4,34439.9,-0.97,-1.3791,147.8,98.1,0.475
26.76,31824.6,34549.9,-0.7124,-1.1083,147.8,98.1,0.475
26.78,31888.9,34851.7,-0.4507,-0.3657,147.8,98.1,0.475
26.8,32033.0,35183.3,0.1358,0.4502,147.8,98.1,0.475
26.82,32245.3,35581.7,1.0,1.4304,147.8,98.1,0.475
26.84,32258.7,35695.4,1.0545,1.7103,147.8,98.1,0.475
26.86,32256.5,35740.3,1.0457,1.8208,147.8,98.1,0.475
26.88,32149.3,35586.5,0.6094,1.4422,147.8,98.1,0.475
26.9,32249.5,35300.2,1.0173,0.7379,147.8,98.1,0.475
26.92,32026.1,35195.0,0.1076,0.4789,147.8,98.1,0.475
26.94,31941.6,35064.9,-0.2363,0.1589,147.8,98.1,0.475
26.96,32037.1,35056.9,0.1527,0.1392,147.8,98.1,0.475
26.98,32014.1,34908.2,0.0591,-0.2267,147.8,98.1,0.475
27.0,31914.5,34972.6,-0.3466,-0.0681,147.8,98.1,0.475
27.02,31835.3,34773.2,-0.6688,-0.5589,147.8,98.1,0.475
27.04,31882.1,34683.5,-0.4783,-0.7795,147.8,98.1,0.475
27.06,31850.5,34604.5,-0.6069,-0.9741,147.8,98.1,0.475
27.08,31869.8,34703.0,-0.5284,-0.7317,147.8,98.1,0.475
27.1,31731.8,34557.0,-1.0905,-1.0909,147.8,98.1,0.475
27.12,31724.6,34553.7,-1.1196,-1.0989,147.8,98.1,0.475
27.14,31762.0,34418.5,-0.9671,-1.4316,147.8,98.1,0.475
27.16,31791.4,34616.3,-0.8477,-0.9451,147.8,98.1,0.475
27.18,31870.1,34767.7,-0.5272,-0.5724,147.8,98.1,0.475
27.2,32041.5,35117.5,0.1703,0.2883,147.8,98.1,0.475
27.22,32233.7,35499.7,0.9529,1.2288,147.8,98.1,0.475
27.24,32341.2,35752.8,1.3906,1.8515,147.8,98.1,0.475
27.26,32281.8,35732.6,1.1486,1.8018,147.8,98.1,0.475
27.28,32296.5,35596.2,1.2085,1.4661,147.8,98.1,0.475
27.3,32175.6,35465.9,0.7164,1.1456,147.8,98.1,0.475
27.32,32117.4,35154.6,0.4792,0.3795,147.8,98.1,0.475
27.34,32023.4,35148.6,0.097,0.3647,147.8,98.1,0.475
27.36,31983.1,35036.8,-0.0674,0.0898,147.8,98.1,0.475
27.38,31989.6,35047.0,-0.0407,0.1148,147.8,98.1,0.475
27.4,31938.7,34892.7,-0.248,-0.2648,147.8,98.1,0.475
27.42,31920.7,34848.8,-0.3214,-0.373,147.8,98.1,0.475
27.44,31854.0,34567.3,-0.593,-1.0656,147.8,98.1,0.475
27.46,31890.3,34771.9,-0.4449,-0.5621,147.8,98.1,0.475
27.48,31806.6,34694.0,-0.7857,-0.7538,147.8,98.1,0.475
27.5,31766.5,34627.3,-0.949,-0.9178,147.8,98.1,0.475
27.52,31805.1,34503.8,-0.7917,-1.2217,147.8,98.1,0.475
27.54,31832.7,34486.3,-0.6796,-1.2648,147.8,98.1,0.475
27.56,31706.8,34531.8,-1.1921,-1.1528,147.8,98.1,0.475
27.58,31800.6,34638.3,-0.8102,-0.8908,147.8,98.1,0.475
27.6,32091.6,34914.2,0.3742,-0.2119,147.8,98.1,0.475
27.62,32089.0,35331.2,0.3639,0.8141,147.8,98.1,0.475
27.64,32262.9,35655.4,1.0715,1.6119,147.8,98.1,0.475
27.66,32268.5,35713.3,1.0945,1.7542,147.8,98.1,0.475
27.68,32233.7,35596.0,0.9529,1.4656,147.8,98.1,0.475
27.7,32172.4,35445.8,0.7033,1.0962,147.8,98.1,0.475
27.72,32088.0,35197.2,0.3597,0.4844,147.8,98.1,0.475
27.74,32003.7,35202.9,0.0164,0.4984,147.8,98.1,0.475
27.76,31953.3,35092.8,-0.1887,0.2275,147.8,98.1,0.475
27.78,31935.3,35055.6,-0.2619,0.136,147.8,98.1,0.475
27.8,32002.5,34911.5,0.0118,-0.2185,147.8,98.1,0.475
27.82,31996.5,34840.5,-0.0126,-0.3932,147.8,98.1,0.475
27.84,31924.4,34734.2,-0.3064,-0.6549,147.8,98.1,0.475
27.86,31867.6,34691.9,-0.5374,-0.7588,147.8,98.1,0.475
27.88,31874.1,34560.9,-0.5112,-1.0813,147.8,98.1,0.475
27.9,31880.3,34715.3,-0.4857,-0.7013,147.8,98.1,0.475
27.92,31782.4,34530.7,-0.8841,-1.1557,147.8,98.1,0.475
27.94,31829.9,34505.3,-0.691,-1.218,147.8,98.1,0.475
27.96,31828.7,34432.9,-0.6956,-1.3963,147.8,98.1,0.475
27.98,31803.3,34582.9,-0.799,-1.027,147.8,98.1,0.475
28.0,31945.9,34882.1,-0.2186,-0.2909,147.8,98.1,0.475
28.02,32151.0,35239.8,0.6161,0.5892,147.8,98.1,0.475
28.04,32348.6,35539.0,1.4204,1.3254,147.8,98.1,0.475
28.06,32312.4,35745.0,1.2734,1.8324,147.8,98.1,0.475
28.08,32340.7,35802.6,1.3883,1.9741,147.8,98.1,0.475
28.1,32239.0,35544.3,0.9744,1.3384,147.8,98.1,0.475
28.12,32168.0,35350.9,0.6855,0.8625,147.8,98.1,0.475
28.14,32082.2,35080.0,0.3361,0.196,147.8,98.1,0.475
28.16,32067.4,35152.9,0.2758,0.3754,147.8,98.1,0.475
28.18,32003.2,35123.5,0.0145,0.3032,147.8,98.1,0.475
28.2,31969.2,35011.3,-0.1237,0.027,147.8,98.1,0.475
28.22,31920.8,34885.3,-0.321,-0.2831,147.8,98.1,0.475
28.24,31918.6,34725.9,-0.3299,-0.6753,147.8,98.1,0.475
28.26,31901.9,34709.6,-0.398,-0.7153,147.8,98.1,0.475
28.28,31845.3,34650.8,-0.6281,-0.86,147.8,98.1,0.475
28.3,31851.9,34626.7,-0.6015,-0.9193,147.8,98.1,0.475
28.32,31916.1,34588.3,-0.3402,-1.0137,147.8,98.1,0.475
28.34,31836.8,34536.9,-0.6629,-1.1404,147.8,98.1,0.475
28.36,31760.3,34422.7,-0.9743,-1.4214,147.8,98.1,0.475
28.38,31814.0,34523.5,-0.7555,-1.1733,147.8,98.1,0.475
28.4,31825.0,34715.4,-0.7107,-0.7012,147.8,98.1,0.475
28.42,32082.7,35125.0,0.3381,0.3066,147.8,98.1,0.475
28.44,32200.7,35439.6,0.8185,1.0809,147.8,98.1,0.475
28.46,32365.8,35803.7,1.4905,1.9768,147.8,98.1,0.475
28.48,32298.9,35809.7,1.2184,1.9916,147.8,98.1,0.475
28.5,32304.9,35637.1,1.2427,1.5668,147.8,98.1,0.475
28.52,32193.8,35426.1,0.7906,1.0477,147.8,98.1,0.475
28.54,32086.8,35148.4,0.3546,0.3642,147.8,98.1,0.475
28.56,32065.5,35119.6,0.2683,0.2936,147.8,98.1,0.475
28.58,32026.6,35064.3,0.1099,0.1573,147.8,98.1,0.475
28.6,31974.6,35051.2,-0.102,0.1251,147.8,98.1,0.475
28.62,32063.9,34928.4,0.2616,-0.1769,147.8,98.1,0.475
28.64,31906.8,34804.0,-0.3778,-0.483,147.8,98.1,0.475
28.66,31897.0,34638.0,-0.4177,-0.8915,147.8,98.1,0.475
28.68,31867.1,34643.5,-0.5397,-0.8779,147.8,98.1,0.475
28.7,31841.8,34696.4,-0.6423,-0.7477,147.8,98.1,0.475
28.72,31867.0,34606.1,-0.5401,-0.9702,147.8,98.1,0.475
28.74,31780.8,34457.3,-0.891,-1.3361,147.8,98.1,0.475
28.76,31815.9,34418.8,-0.7479,-1.431,147.8,98.1,0.475
28.78,31800.7,34526.8,-0.81,-1.1651,147.8,98.1,0.475
28.8,31856.9,34728.1,-0.5812,-0.6699,147.8,98.1,0.475
28.82,31992.4,34905.0,-0.0293,-0.2346,147.8,98.1,0.475
28.84,32204.0,35332.7,0.832,0.8177,147.8,98.1,0.475
28.86,32336.3,35657.4,1.3703,1.6166,147.8,98.1,0.475
28.88,32321.6,35840.8,1.3106,2.0681,147.8,98.1,0.475
28.9,32267.9,35665.1,1.0919,1.6357,147.8,98.1,0.475
28.92,32143.7,35483.0,0.5865,1.1876,147.8,98.1,0.475
28.94,32173.5,35298.1,0.7078,0.7328,147.8,98.1,0.475
28.96,32088.1,35102.9,0.36,0.2523,147.8,98.1,0.475
28.98,32072.2,35030.0,0.2956,0.0731,147.8,98.1,0.475
29.0,32042.8,35120.1,0.1757,0.2946,147.8,98.1,0.475
29.02,31956.7,34874.3,-0.1746,-0.3102,147.8,98.1,0.475
29.04,31979.8,34838.6,-0.0809,-0.398,147.8,98.1,0.475
29.06,31949.3,34869.9,-0.2049,-0.3209,147.8,98.1,0.475
29.08,31851.2,34625.5,-0.6041,-0.9224,147.8,98.1,0.475
29.1,31867.4,34623.0,-0.5382,-0.9285,147.8,98.1,0.475
29.12,31821.9,34631.8,-0.7236,-0.9069,147.8,98.1,0.475
29.14,31829.6,34550.3,-0.6922,-1.1074,147.8,98.1,0.475
29.16,31809.4,34487.6,-0.7743,-1.2615,147.8,98.1,0.475
29.18,31763.7,34487.0,-0.9604,-1.2632,147.8,98.1,0.475
29.2,31948.5,34601.1,-0.2081,-0.9824,147.8,98.1,0.475
29.22,31898.8,34973.7,-0.4106,-0.0654,147.8,98.1,0.475
29.24,32108.7,35231.3,0.4438,0.5684,147.8,98.1,0.475
29.26,32239.9,35557.4,0.978,1.3707,147.8,98.1,0.475
29.28,32431.8,35767.3,1.7591,1.8872,147.8,98.1,0.475
29.3,32362.1,35666.4,1.4757,1.6388,147.8,98.1,0.475
29.32,32168.0,35479.1,0.6852,1.1779,147.8,98.1,0.475
29.34,32115.7,35248.5,0.4726,0.6107,147.8,98.1,0.475
29.36,32158.1,35231.8,0.645,0.5695,147.8,98.1,0.475
29.38,32110.9,35068.2,0.4531,0.1671,147.8,98.1,0.475
29.4,32036.7,35184.5,0.1507,0.4532,147.8,98.1,0.475
29.42,32012.6,34981.0,0.0529,-0.0475,147.8,98.1,0.475
29.44,31937.7,34852.2,-0.2522,-0.3644,147.8,98.1,0.475
29.46,31905.0,34764.8,-0.3851,-0.5795,147.8,98.1,0.475
29.48,32015.4,34723.3,0.0642,-0.6817,147.8,98.1,0.475
29.5,31858.3,34698.4,-0.5754,-0.7428,147.8,98.1,0.475
29.52,31791.4,34800.4,-0.8478,-0.4921,147.8,98.1,0.475
29.54,31820.8,34554.4,-0.7281,-1.0974,147.8,98.1,0.475
29.56,31834.9,34447.7,-0.6704,-1.3597,147.8,98.1,0.475
29.58,31707.5,34430.9,-1.1893,-1.4012,147.8,98.1,0.475
29.6,31770.9,34532.3,-0.9313,-1.1516,147.8,98.1,0.475
29.62,31972.0,34827.1,-0.1124,-0.4262,147.8,98.1,0.475
29.64,32087.3,35110.4,0.3567,0.2708,147.8,98.1,0.475
29.66,32292.2,35487.9,1.1911,1.1998,147.8,98.1,0.475
29.68,32387.6,35678.4,1.5795,1.6685,147.8,98.1,0.475
29.7,32252.7,35723.5,1.03,1.7795,147.8,98.1,0.475
29.72,32250.2,35620.4,1.0202,1.5258,147.8,98.1,0.475
29.74,32145.5,35395.0,0.5937,0.971,147.8,98.1,0.475
29.76,32179.4,35237.2,0.732,0.5829,147.8,98.1,0.475
29.78,32129.8,35144.6,0.5297,0.3551,147.8,98.1,0.475
29.8,31991.6,35091.1,-0.0327,0.2233,147.8,98.1,0.475
29.82,31987.1,35131.3,-0.0509,0.3223,147.8,98.1,0.475
29.84,31876.8,34887.5,-0.5,-0.2777,147.8,98.1,0.475
29.86,31886.8,34740.8,-0.4593,-0.6387,147.8,98.1,0.475
29.88,31918.6,34816.1,-0.3299,-0.4535,147.8,98.1,0.475
29.9,31962.5,34596.9,-0.1513,-0.9926,147.8,98.1,0.475
29.92,31783.6,34680.1,-0.8794,-0.788,147.8,98.1,0.475
29.94,31843.1,34644.0,-0.6371,-0.8767,147.8,98.1,0.475
29.96,31802.3,34534.7,-0.8035,-1.1458,147.8,98.1,0.475
29.98,31766.4,34471.4,-0.9496,-1.3015,147.8,98.1,0.475
30.0,31723.6,34447.1,-1.1236,-1.3612,147.8,98.1,0.475
30.02,31878.6,34635.8,-0.4927,-0.897,147.8,98.1,0.475
30.04,32040.9,35029.4,0.1679,0.0715,147.8,98.1,0.475
30.06,32176.6,35387.0,0.7203,0.9513,147.8,98.1,0.475
30.08,32249.2,35722.1,1.0161,1.7759,147.8,98.1,0.475
30.1,32261.4,35755.1,1.0654,1.8572,147.8,98.1,0.475
30.12,32270.2,35628.9,1.1013,1.5467,147.8,98.1,0.475
30.14,32178.5,35371.9,0.7281,0.9143,147.8,98.1,0.475
30.16,32147.4,35240.1,0.6015,0.59,147.8,98.1,0.475
30.18,32033.6,35081.5,0.1383,0.1996,147.8,98.1,0.475
30.2,32157.2,35055.8,0.6412,0.1366,147.8,98.1,0.475
30.22,32056.2,35023.9,0.2304,0.0579,147.8,98.1,0.475
30.24,31916.5,34884.5,-0.3385,-0.2849,147.8,98.1,0.475
30.26,31867.0,34866.2,-0.54,-0.33,147.8,98.1,0.475
30.28,31928.5,34676.8,-0.2894,-0.7961,147.8,98.1,0.475
30.3,31793.3,34659.4,-0.84,-0.8388,147.8,98.1,0.475
30.32,31796.7,34654.1,-0.8261,-0.8519,147.8,98.1,0.475
30.34,31794.2,34594.5,-0.8364,-0.9987,147.8,98.1,0.475
30.36,31765.3,34597.6,-0.954,-0.991,147.8,98.1,0.475
30.38,31812.5,34445.9,-0.7616,-1.3643,147.8,98.1,0.475
30.4,31761.7,34514.7,-0.9684,-1.195,147.8,98.1,0.475
30.42,31874.0,34590.0,-0.5113,-1.0096,147.8,98.1,0.475
30.44,31979.5,34952.1,-0.0821,-0.1187,147.8,98.1,0.475
30.46,32125.3,35298.9,0.5115,0.7346,147.8,98.1,0.475
30.48,32301.7,35585.4,1.2296,1.4397,147.8,98.1,0.475
30.5,32357.3,35722.1,1.4558,1.776,147.8,98.1,0.475
30.52,32360.3,35745.0,1.4682,1.8323,147.8,98.1,0.475
30.54,32237.1,35562.5,0.9665,1.3832,147.8,98.1,0.475
30.56,32169.1,35316.1,0.69,0.777,147.8,98.1,0.475
30.58,32086.3,35180.4,0.3527,0.4429,147.8,98.1,0.475
30.6,32056.0,35002.4,0.2293,0.0051,147.8,98.1,0.475
30.62,32040.9,34986.8,0.1679,-0.0332,147.8,98.1,0.475
30.64,31909.9,34924.0,-0.3654,-0.1879,147.8,98.1,0.475
30.66,31903.5,34900.5,-0.3915,-0.2456,147.8,98.1,0.475
30.68,31906.1,34738.1,-0.3809,-0.6453,147.8,98.1,0.475
30.7,31896.6,34639.8,-0.4196,-0.8872,147.8,98.1,0.475
30.72,31876.3,34675.5,-0.5022,-0.7993,147.8,98.1,0.475
30.74,31926.0,34624.0,-0.2999,-0.9259,147.8,98.1,0.475
30.76,31761.2,34591.3,-0.9706,-1.0064,147.8,98.1,0.475
30.78,31753.9,34397.4,-1.0003,-1.4836,147.8,98.1,0.475
30.8,31793.4,34392.9,-0.8395,-1.4947,147.8,98.1,0.475
30.82,31815.9,34527.7,-0.7481,-1.1629,147.8,98.1,0.475
30.84,31984.7,34838.8,-0.0608,-0.3975,147.8,98.1,0.475
30.86,32102.5,35221.5,0.4188,0.5441,147.8,98.1,0.475
30.88,32213.7,35602.3,0.8714,1.4812,147.8,98.1,0.475
30.9,32346.4,35715.9,1.4117,1.7607,147.8,98.1,0.475
30.92,32288.4,35723.1,1.1753,1.7785,147.8,98.1,0.475
30.94,32246.6,35603.3,1.0054,1.4837,147.8,98.1,0.475
30.96,32186.5,35328.6,0.7607,0.8078,147.8,98.1,0.475
30.98,32080.8,35212.7,0.3302,0.5225,147.8,98.1,0.475
31.0,32060.3,35087.2,0.2469,0.2137,147.8,98.1,0.475
31.02,32071.6,34970.0,0.2932,-0.0746,147.8,98.1,0.475
31.04,32005.4,35004.4,0.0234,0.0099,147.8,98.1,0.475
31.06,31880.7,34883.7,-0.4843,-0.2871,147.8,98.1,0.475
31.08,31942.6,34748.3,-0.2321,-0.6201,147.8,98.1,0.475
31.1,31804.2,34758.3,-0.7956,-0.5957,147.8,98.1,0.475
31.12,31992.5,34647.3,-0.0292,-0.8686,147.8,98.1,0.475
31.14,31876.8,34673.0,-0.5001,-0.8054,147.8,98.1,0.475
31.16,31819.5,34580.0,-0.7331,-1.0343,147.8,98.1,0.475
31.18,31842.5,34553.8,-0.6398,-1.0987,147.8,98.1,0.475
31.2,31741.2,34380.3,-1.052,-1.5258,147.8,98.1,0.475
31.22,31838.1,34525.8,-0.6574,-1.1677,147.8,98.1,0.475
31.24,31888.0,34676.6,-0.4543,-0.7966,147.8,98.1,0.475
31.26,32044.3,35017.9,0.1819,0.0432,147.8,98.1,0.475
31.28,32223.7,35533.4,0.9121,1.3117,147.8,98.1,0.475
31.3,32295.5,35773.9,1.2044,1.9034,147.8,98.1,0.475
31.32,32306.6,35738.1,1.2497,1.8153,147.8,98.1,0.475
31.34,32437.6,35630.5,1.7827,1.5506,147.8,98.1,0.475
31.36,32243.0,35405.4,0.9907,0.9966,147.8,98.1,0.475
31.38,32103.5,35097.2,0.4227,0.2383,147.8,98.1,0.475
31.4,32084.9,35068.4,0.347,0.1674,147.8,98.1,0.475
31.42,31975.7,35086.0,-0.0975,0.2107,147.8,98.1,0.475
31.44,31976.1,34999.2,-0.0958,-0.0029,147.8,98.1,0.475
31.46,31983.3,34879.0,-0.0663,-0.2986,147.8,98.1,0.475
31.48,31939.0,34828.2,-0.2467,-0.4235,147.8,98.1,0.475
31.5,31825.0,34761.6,-0.7108,-0.5875,147.8,98.1,0.475
31.52,31887.0,34604.1,-0.4583,-0.975,147.8,98.1,0.475
31.54,31792.8,34594.9,-0.842,-0.9975,147.8,98.1,0.475
31.56,31838.3,34615.7,-0.6569,-0.9464,147.8,98.1,0.475
31.58,31719.1,34461.1,-1.142,-1.3269,147.8,98.1,0.475
31.6,31769.0,34514.1,-0.9388,-1.1964,147.8,98.1,0.475
31.62,31744.3,34497.5,-1.0392,-1.2374,147.8,98.1,0.475
31.64,31819.1,34687.1,-0.7349,-0.7708,147.8,98.1,0.475
31.66,31954.3,34895.8,-0.1845,-0.2573,147.8,98.1,0.475
31.68,32078.8,35386.0,0.3221,0.9489,147.8,98.1,0.475
31.7,32320.0,35679.6,1.3043,1.6715,147.8,98.1,0.475
31.72,32398.6,35800.3,1.6243,1.9685,147.8,98.1,0.475
31.74,32272.4,35530.5,1.1105,1.3046,147.8,98.1,0.475
31.76,32304.5,35538.9,1.2408,1.3251,147.8,98.1,0.475
31.78,32189.8,35294.6,0.7739,0.7241,147.8,98.1,0.475
31.8,32160.7,35185.3,0.6556,0.4551,147.8,98.1,0.475
31.82,32049.7,35018.4,0.2039,0.0445,147.8,98.1,0.475
31.84,31983.7,35128.1,-0.0651,0.3144,147.8,98.1,0.475
31.86,32051.6,34934.4,0.2117,-0.1623,147.8,98.1,0.475
31.88,31953.2,34832.6,-0.1889,-0.4126,147.8,98.1,0.475
31.9,31841.3,34746.7,-0.6444,-0.6241,147.8,98.1,0.475
31.92,31810.7,34591.2,-0.7689,-1.0067,147.8,98.1,0.475
31.94,31765.4,34750.0,-0.9535,-0.616,147.8,98.1,0.475
31.96,31897.2,34790.1,-0.417,-0.5174,147.8,98.1,0.475
31.98,31761.5,34575.4,-0.9695,-1.0455,147.8,98.1,0.475
32.0,31690.3,34457.5,-1.259,-1.3358,147.8,98.1,0.475
32.02,31750.8,34500.2,-1.0128,-1.2308,147.8,98.1,0.475
32.04,31869.7,34548.2,-0.5291,-1.1125,147.8,98.1,0.475
32.06,31960.3,34845.5,-0.16,-0.3811,147.8,98.1,0.475
32.08,32086.1,35284.5,0.3521,0.6991,147.8,98.1,0.475
32.1,32284.7,35569.0,1.1604,1.3993,147.8,98.1,0.475
32.12,32257.6,35830.4,1.0502,2.0424,147.8,98.1,0.475
32.14,32183.7,35778.1,0.7492,1.9138,147.8,98.1,0.475
32.16,32229.4,35538.0,0.9355,1.3229,147.8,98.1,0.475
32.18,32186.0,35288.6,0.7586,0.7094,147.8,98.1,0.475
32.2,32071.1,35192.4,0.2909,0.4725,147.8,98.1,0.475
32.22,32070.3,35066.2,0.2875,0.1621,147.8,98.1,0.475
32.24,31990.8,35063.8,-0.0361,0.1561,147.8,98.1,0.475
32.26,31958.8,35052.9,-0.1663,0.1294,147.8,98.1,0.475
32.28,31953.9,34783.6,-0.1863,-0.5334,147.8,98.1,0.475
32.3,31919.4,34721.8,-0.3264,-0.6854,147.8,98.1,0.475
32.32,31794.8,34675.4,-0.8337,-0.7995,147.8,98.1,0.475
32.34,31860.6,34635.8,-0.5659,-0.8969,147.8,98.1,0.475
32.36,31805.7,34613.2,-0.7893,-0.9526,147.8,98.1,0.475
32.38,31846.2,34618.0,-0.6248,-0.9407,147.8,98.1,0.475
32.4,31744.0,34494.3,-1.0405,-1.2452,147.8,98.1,0.475
32.42,31719.5,34552.3,-1.1404,-1.1025,147.8,98.1,0.475
32.44,31844.0,34591.0,-0.6335,-1.0072,147.8,98.1,0.475
32.46,31946.1,34800.4,-0.2181,-0.4919,147.8,98.1,0.475
32.48,32087.0,35061.3,0.3555,0.1501,147.8,98.1,0.475
32.5,32226.5,35475.7,0.9236,1.1697,147.8,98.1,0.475
32.52,32270.6,35752.7,1.1031,1.8513,147.8,98.1,0.475
32.54,32281.7,35836.1,1.1483,2.0564,147.8,98.1,0.475
32.56,32259.5,35627.8,1.0577,1.5438,147.8,98.1,0.475
32.58,32216.9,35416.6,0.8844,1.0243,147.8,98.1,0.475
32.6,32077.9,35210.5,0.3185,0.5172,147.8,98.1,0.475
32.62,32126.5,35069.7,0.5166,0.1706,147.8,98.1,0.475
32.64,32025.1,35112.0,0.1037,0.2747,147.8,98.1,0.475
32.66,31966.6,35017.7,-0.1344,0.0428,147.8,98.1,0.475
32.68,31926.6,34927.1,-0.2972,-0.1802,147.8,98.1,0.475
32.7,31928.9,34836.0,-0.2878,-0.4044,147.8,98.1,0.475
32.72,31915.5,34689.3,-0.3424,-0.7653,147.8,98.1,0.475
32.74,31807.9,34642.8,-0.7806,-0.8797,147.8,98.1,0.475
32.76,31861.1,34586.0,-0.564,-1.0194,147.8,98.1,0.475
32.78,31867.3,34610.3,-0.5385,-0.9598,147.8,98.1,0.475
32.8,31815.3,34592.4,-0.7505,-1.0038,147.8,98.1,0.475
32.82,31662.9,34459.9,-1.3709,-1.3297,147.8,98.1,0.475
32.84,31770.4,34507.2,-0.9331,-1.2135,147.8,98.1,0.475
32.86,31784.3,34676.0,-0.8767,-0.798,147.8,98.1,0.475
32.88,32057.9,34946.4,0.237,-0.1327,147.8,98.1,0.475
32.9,32271.8,35348.8,1.1079,0.8574,147.8,98.1,0.475
32.92,32307.6,35674.2,1.2537,1.6581,147.8,98.1,0.475
32.94,32352.8,35800.4,1.4376,1.9686,147.8,98.1,0.475
32.96,32315.0,35690.3,1.2837,1.6977,147.8,98.1,0.475
32.98,32175.4,35406.1,0.7156,0.9984,147.8,98.1,0.475
33.0,32104.2,35347.5,0.4258,0.8542,147.8,98.1,0.475
33.02,32016.4,35185.4,0.0683,0.4554,147.8,98.1,0.475
33.04,32018.6,34989.2,0.0771,-0.0274,147.8,98.1,0.475
33.06,32044.5,35033.5,0.1825,0.0815,147.8,98.1,0.475
33.08,32002.4,34973.5,0.0111,-0.066,147.8,98.1,0.475
33.1,31944.4,34844.2,-0.2248,-0.3842,147.8,98.1,0.475
33.12,31902.2,34791.9,-0.3967,-0.5129,147.8,98.1,0.475
33.14,31966.4,34665.4,-0.1353,-0.8241,147.8,98.1,0.475
33.16,31820.9,34714.0,-0.7275,-0.7045,147.8,98.1,0.475
33.18,31870.2,34685.9,-0.5268,-0.7737,147.8,98.1,0.475
33.2,31877.0,34602.3,-0.499,-0.9795,147.8,98.1,0.475
33.22,31713.7,34470.7,-1.1641,-1.3033,147.8,98.1,0.475
33.24,31805.7,34457.3,-0.7896,-1.3362,147.8,98.1,0.475
33.26,31838.0,34627.3,-0.6578,-0.918,147.8,98.1,0.475
33.28,31891.3,34786.8,-0.4411,-0.5255,147.8,98.1,0.475
33.3,32020.2,35276.9,0.0838,0.6804,147.8,98.1,0.475
33.32,32201.5,35624.4,0.8215,1.5356,147.8,98.1,0.475
33.34,32284.6,35760.3,1.1599,1.8701,147.8,98.1,0.475
33.36,32288.1,35722.2,1.1742,1.7761,147.8,98.1,0.475
33.38,32220.0,35575.7,0.897,1.4157,147.8,98.1,0.475
33.4,32182.8,35298.1,0.7458,0.7326,147.8,98.1,0.475
33.42,31994.0,35089.1,-0.023,0.2183,147.8,98.1,0.475
33.44,32178.3,35178.5,0.7273,0.4383,147.8,98.1,0.475
33.46,31954.9,35063.4,-0.1822,0.1552,147.8,98.1,0.475
33.48,32023.0,34957.0,0.095,-0.1067,147.8,98.1,0.475
33.5,31915.8,34877.0,-0.3413,-0.3035,147.8,98.1,0.475
33.52,31870.2,34749.5,-0.5267,-0.6171,147.8,98.1,0.475
33.54,31875.1,34701.2,-0.507,-0.7361,147.8,98.1,0.475
33.56,31823.6,34721.1,-0.7166,-0.6872,147.8,98.1,0.475
33.58,31936.7,34673.6,-0.2562,-0.8039,147.8,98.1,0.475
33.6,31854.8,34514.0,-0.5895,-1.1967,147.8,98.1,0.475
33.62,31817.3,34489.7,-0.7423,-1.2566,147.8,98.1,0.475
33.64,31774.9,34426.9,-0.915,-1.4111,147.8,98.1,0.475
33.66,31865.1,34495.3,-0.5477,-1.2428,147.8,98.1,0.475
33.68,31890.5,34731.1,-0.4443,-0.6625,147.8,98.1,0.475
33.7,32031.3,35160.2,0.1289,0.3934,147.8,98.1,0.475
33.72,32196.4,35535.2,0.8008,1.3162,147.8,98.1,0.475
33.74,32276.3,35680.1,1.1261,1.6725,147.8,98.1,0.475
33.76,32288.5,35694.5,1.1759,1.708,147.8,98.1,0.475
33.78,32263.2,35641.4,1.0729,1.5774,147.8,98.1,0.475
33.8,32150.5,35428.9,0.6139,1.0544,147.8,98.1,0.475
33.82,32136.0,35255.5,0.5551,0.6279,147.8,98.1,0.475
33.84,31942.5,35139.4,-0.2327,0.3422,147.8,98.1,0.475
33.86,32072.3,35010.1,0.296,0.024,147.8,98.1,0.475
33.88,32126.6,34952.2,0.5168,-0.1186,147.8,98.1,0.475
33.9,32051.0,34800.9,0.209,-0.4908,147.8,98.1,0.475
33.92,31947.5,34740.5,-0.2122,-0.6394,147.8,98.1,0.475
33.94,31883.8,34767.3,-0.4717,-0.5734,147.8,98.1,0.475
33.96,31780.3,34628.9,-0.8929,-0.9139,147.8,98.1,0.475
33.98,31883.3,34655.7,-0.4737,-0.848,147.8,98.1,0.475
34.0,31864.4,34635.7,-0.5506,-0.8972,147.8,98.1,0.475
34.02,31815.6,34587.3,-0.7493,-1.0164,147.8,98.1,0.475
34.04,31697.3,34496.6,-1.2305,-1.2396,147.8,98.1,0.475
34.06,31678.4,34528.2,-1.3076,-1.1618,147.8,98.1,0.475
34.08,31817.2,34737.5,-0.7428,-0.6469,147.8,98.1,0.475
34.1,31980.1,35084.6,-0.0794,0.2074,147.8,98.1,0.475
34.12,32186.6,35416.2,0.7612,1.0232,147.8,98.1,0.475
34.14,32345.2,35759.9,1.4066,1.869,147.8,98.1,0.475
34.16,32253.6,35721.4,1.034,1.7742,147.8,98.1,0.475
34.18,32264.7,35711.8,1.079,1.7506,147.8,98.1,0.475
34.2,32216.9,35425.2,0.8846,1.0454,147.8,98.1,0.475
34.22,32153.7,35296.5,0.6273,0.7286,147.8,98.1,0.475
34.24,32003.5,35060.9,0.0158,0.1491,147.8,98.1,0.475
34.26,32025.0,35117.7,0.1032,0.2888,147.8,98.1,0.475
34.28,31953.3,35140.9,-0.1887,0.3458,147.8,98.1,0.475
34.3,31843.7,34986.7,-0.6347,-0.0335,147.8,98.1,0.475
34.32,31884.8,34761.6,-0.4674,-0.5874,147.8,98.1,0.475
34.34,31859.9,34733.6,-0.569,-0.6564,147.8,98.1,0.475
34.36,31875.1,34700.4,-0.507,-0.7379,147.8,98.1,0.475
34.38,31896.1,34733.0,-0.4216,-0.6578,147.8,98.1,0.475
34.4,31864.8,34534.7,-0.5488,-1.1458,147.8,98.1,0.475
34.42,31829.1,34555.1,-0.6943,-1.0956,147.8,98.1,0.475
34.44,31730.2,34459.2,-1.097,-1.3316,147.8,98.1,0.475
34.46,31762.7,34474.8,-0.9645,-1.2932,147.8,98.1,0.475
34.48,31894.3,34635.5,-0.4288,-0.8977,147.8,98.1,0.475
34.5,31917.3,34909.6,-0.335,-0.2232,147.8,98.1,0.475
34.52,32181.5,35349.3,0.7405,0.8587,147.8,98.1,0.475
34.54,32354.9,35678.5,1.4461,1.6687,147.8,98.1,0.475
34.56,32380.3,35700.6,1.5495,1.7231,147.8,98.1,0.475
34.58,32222.3,35604.5,0.9066,1.4865,147.8,98.1,0.475
34.6,32182.2,35480.7,0.7433,1.1821,147.8,98.1,0.475
34.62,32040.4,35320.7,0.1659,0.7883,147.8,98.1,0.475
34.64,32087.8,35223.4,0.3588,0.549,147.8,98.1,0.475
34.66,32063.1,35070.8,0.2584,0.1734,147.8,98.1,0.475
34.68,31908.4,35036.4,-0.3713,0.0888,147.8,98.1,0.475
34.7,31948.1,34989.7,-0.2098,-0.0261,147.8,98.1,0.475
34.72,31843.4,34829.5,-0.6361,-0.4203,147.8,98.1,0.475
34.74,31921.7,34768.8,-0.3172,-0.5698,147.8,98.1,0.475
34.76,31860.0,34622.6,-0.5684,-0.9294,147.8,98.1,0.475
34.78,31857.1,34726.9,-0.5803,-0.6728,147.8,98.1,0.475
34.8,31849.2,34645.2,-0.6123,-0.8739,147.8,98.1,0.475
34.82,31740.8,34532.8,-1.0535,-1.1504,147.8,98.1,0.475
34.84,31869.8,34468.7,-0.5285,-1.3082,147.8,98.1,0.475
34.86,31802.4,34404.5,-0.8028,-1.4661,147.8,98.1,0.475
34.88,31878.9,34612.1,-0.4916,-0.9553,147.8,98.1,0.475
34.9,31872.9,34867.3,-0.5159,-0.3274,147.8,98.1,0.475
34.92,31958.4,35149.9,-0.1679,0.368,147.8,98.1,0.475
34.94,32191.5,35597.3,0.7808,1.4688,147.8,98.1,0.475
34.96,32297.0,35788.7,1.2104,1.9397,147.8,98.1,0.475
34.98,32350.1,35811.0,1.4267,1.9948,147.8,98.1,0.475
35.0,32283.2,35516.2,1.1545,1.2694,147.8,98.1,0.475
35.02,32099.0,35443.7,0.4045,1.0909,147.8,98.1,0.475
35.04,32075.0,35242.9,0.3066,0.5968,147.8,98.1,0.475
35.06,32006.2,35092.2,0.0267,0.2261,147.8,98.1,0.475
35.08,32098.1,35032.7,0.401,0.0796,147.8,98.1,0.475
35.1,32009.9,35099.6,0.0418,0.2443,147.8,98.1,0.475
35.12,31992.3,34862.9,-0.0297,-0.3383,147.8,98.1,0.475
35.14,31880.6,34799.4,-0.4845,-0.4945,147.8,98.1,0.475
35.16,31898.5,34743.2,-0.4118,-0.6326,147.8,98.1,0.475
35.18,31868.0,34636.6,-0.5359,-0.895,147.8,98.1,0.475
35.2,31838.4,34628.7,-0.6563,-0.9145,147.8,98.1,0.475
35.22,31848.4,34544.9,-0.6154,-1.1206,147.8,98.1,0.475
35.24,31812.0,34559.0,-0.7637,-1.0859,147.8,98.1,0.475
35.26,31771.3,34439.4,-0.9294,-1.3801,147.8,98.1,0.475
35.28,31824.0,34532.1,-0.715,-1.1521,147.8,98.1,0.475
35.3,31907.9,34840.4,-0.3733,-0.3936,147.8,98.1,0.475
35.32,31947.0,35090.9,-0.2144,0.2228,147.8,98.1,0.475
35.34,32205.1,35504.9,0.8364,1.2414,147.8,98.1,0.475
35.36,32416.2,35708.6,1.6957,1.7428,147.8,98.1,0.475
35.38,32341.6,35787.6,1.3921,1.9372,147.8,98.1,0.475
35.4,32245.1,35618.1,0.9994,1.5202,147.8,98.1,0.475
35.42,32169.2,35391.4,0.6904,0.9623,147.8,98.1,0.475
35.44,32062.7,35245.1,0.2568,0.6022,147.8,98.1,0.475
35.46,32156.4,35086.7,0.6381,0.2126,147.8,98.1,0.475
35.48,32105.6,35128.1,0.4313,0.3143,147.8,98.1,0.475
35.5,31958.9,35007.6,-0.1658,0.0179,147.8,98.1,0.475
35.52,31978.6,34978.5,-0.0854,-0.0537,147.8,98.1,0.475
35.54,31883.7,34826.8,-0.472,-0.427,147.8,98.1,0.475
35.56,31907.2,34688.8,-0.3761,-0.7666,147.8,98.1,0.475
35.58,31824.3,34647.4,-0.7138,-0.8684,147.8,98.1,0.475
35.6,31793.8,34676.6,-0.8379,-0.7966,147.8,98.1,0.475
35.62,31820.6,34588.5,-0.7287,-1.0134,147.8,98.1,0.475
35.64,31716.3,34435.0,-1.1534,-1.391,147.8,98.1,0.475
35.66,31838.0,34507.7,-0.6581,-1.2122,147.8,98.1,0.475
35.68,31762.2,34472.9,-0.9664,-1.2978,147.8,98.1,0.475
35.7,31853.3,34575.5,-0.5958,-1.0453,147.8,98.1,0.475
35.72,31940.6,34943.2,-0.2404,-0.1405,147.8,98.1,0.475
35.74,32122.3,35330.4,0.4995,0.8121,147.8,98.1,0.475
35.76,32356.5,35556.4,1.4528,1.3682,147.8,98.1,0.475
35.78,32307.7,35729.6,1.2542,1.7944,147.8,98.1,0.475
35.8,32224.9,35744.0,0.9169,1.83,147.8,98.1,0.475
35.82,32176.7,35555.0,0.7208,1.3649,147.8,98.1,0.475
35.84,32135.0,35312.7,0.5509,0.7685,147.8,98.1,0.475
35.86,32077.0,35155.6,0.3149,0.382,147.8,98.1,0.475
35.88,32068.0,35065.3,0.2785,0.1599,147.8,98.1,0.475
35.9,31927.4,35010.9,-0.2942,0.0259,147.8,98.1,0.475
35.92,31953.0,34901.8,-0.1897,-0.2424,147.8,98.1,0.475
35.94,31922.1,34791.8,-0.3155,-0.5132,147.8,98.1,0.475
35.96,31836.0,34769.1,-0.6661,-0.569,147.8,98.1,0.475
35.98,31886.0,34654.4,-0.4624,-0.8512,147.8,98.1,0.475
36.0,31879.1,34716.4,-0.4906,-0.6986,147.8,98.1,0.475
36.02,31740.5,34660.0,-1.055,-0.8374,147.8,98.1,0.475
36.04,31866.7,34588.2,-0.5409,-1.0141,147.8,98.1,0.475
36.06,31829.0,34501.1,-0.6945,-1.2284,147.8,98.1,0.475
36.08,31772.3,34446.3,-0.9254,-1.3632,147.8,98.1,0.475
36.1,31798.1,34544.9,-0.8205,-1.1207,147.8,98.1,0.475
36.12,31920.2,34893.5,-0.3234,-0.263,147.8,98.1,0.475
36.14,32181.5,35245.4,0.7403,0.6031,147.8,98.1,0.475
36.16,32228.0,35557.0,0.9297,1.3697,147.8,98.1,0.475
36.18,32269.7,35832.7,1.0995,2.0482,147.8,98.1,0.475
36.2,32364.1,35733.7,1.4838,1.8046,147.8,98.1,0.475
36.22,32295.5,35567.3,1.2043,1.395,147.8,98.1,0.475
36.24,32121.1,35312.3,0.4946,0.7676,147.8,98.1,0.475
36.26,32070.2,35183.9,0.2873,0.4516,147.8,98.1,0.475
36.28,32015.9,35191.1,0.0663,0.4695,147.8,98.1,0.475
36.3,32037.8,35124.8,0.1555,0.3061,147.8,98.1,0.475
36.32,31950.2,35009.2,-0.2012,0.0218,147.8,98.1,0.475
36.34,31988.0,34910.0,-0.0475,-0.2223,147.8,98.1,0.475
36.36,31892.1,34767.4,-0.4378,-0.5731,147.8,98.1,0.475
36.38,31948.2,34726.8,-0.2096,-0.673,147.8,98.1,0.475
36.4,31831.7,34698.7,-0.6835,-0.7422,147.8,98.1,0.475
36.42,31817.4,34730.2,-0.7418,-0.6648,147.8,98.1,0.475
36.44,31766.9,34521.5,-0.9472,-1.1782,147.8,98.1,0.475
36.46,31767.6,34556.6,-0.9445,-1.0919,147.8,98.1,0.475
36.48,31709.6,34397.9,-1.1807,-1.4823,147.8,98.1,0.475
36.5,31804.2,34512.8,-0.7954,-1.1997,147.8,98.1,0.475
36.52,31882.3,34795.8,-0.4777,-0.5032,147.8,98.1,0.475
36.54,32018.7,35084.1,0.0778,0.2062,147.8,98.1,0.475
36.56,32222.0,35489.9,0.9054,1.2046,147.8,98.1,0.475
36.58,32252.7,35657.5,1.0303,1.617,147.8,98.1,0.475
36.6,32376.3,35835.5,1.5333,2.0549,147.8,98.1,0.475
36.62,32257.7,35621.5,1.0504,1.5285,147.8,98.1,0.475
36.64,32245.6,35425.4,1.0013,1.0459,147.8,98.1,0.475
36.66,32101.2,35164.7,0.4135,0.4045,147.8,98.1,0.475
36.68,32011.8,35125.8,0.0494,0.3087,147.8,98.1,0.475
36.7,32061.2,35090.9,0.2508,0.2228,147.8,98.1,0.475
36.72,31949.7,34984.0,-0.2032,-0.0403,147.8,98.1,0.475
36.74,31925.5,34846.6,-0.3019,-0.3782,147.8,98.1,0.475
36.76,31905.3,34841.8,-0.3838,-0.3901,147.8,98.1,0.475
36.78,31842.6,34774.2,-0.6393,-0.5565,147.8,98.1,0.475
36.8,31886.4,34686.4,-0.4611,-0.7724,147.8,98.1,0.475
36.82,31791.7,34696.6,-0.8464,-0.7474,147.8,98.1,0.475
36.84,31826.2,34507.1,-0.706,-1.2138,147.8,98.1,0.475
36.86,31742.9,34481.9,-1.0449,-1.2758,147.8,98.1,0.475
36.88,31786.0,34486.5,-0.8696,-1.2644,147.8,98.1,0.475
36.9,31841.7,34564.0,-0.6431,-1.0736,147.8,98.1,0.475
36.92,31897.0,34718.8,-0.4179,-0.6927,147.8,98.1,0.475
36.94,31988.5,34964.3,-0.0452,-0.0886,147.8,98.1,0.475
36.96,32041.4,35380.9,0.1701,0.9364,147.8,98.1,0.475
36.98,32235.7,35615.2,0.9608,1.513,147.8,98.1,0.475
37.0,32313.9,35688.3,1.2792,1.6927,147.8,98.1,0.475
37.02,32307.7,35653.6,1.2541,1.6073,147.8,98.1,0.475
37.04,32228.4,35442.7,0.9313,1.0885,147.8,98.1,0.475
37.06,32184.8,35311.7,0.754,0.7661,147.8,98.1,0.475
37.08,32079.5,35113.4,0.3251,0.2781,147.8,98.1,0.475
37.1,32046.0,35026.5,0.1888,0.0644,147.8,98.1,0.475
37.12,32111.1,35024.9,0.4536,0.0605,147.8,98.1,0.475
37.14,32033.2,34957.9,0.1365,-0.1043,147.8,98.1,0.475
37.16,31959.1,34912.2,-0.1648,-0.2169,147.8,98.1,0.475
37.18,31841.5,34680.1,-0.6436,-0.7881,147.8,98.1,0.475
37.2,31918.4,34720.2,-0.3305,-0.6893,147.8,98.1,0.475
37.22,31831.9,34617.7,-0.6829,-0.9416,147.8,98.1,0.475
37.24,31887.6,34696.5,-0.4562,-0.7476,147.8,98.1,0.475
37.26,31779.3,34542.0,-0.8967,-1.1277,147.8,98.1,0.475
37.28,31743.2,34440.6,-1.0439,-1.3772,147.8,98.1,0.475
37.3,31688.2,34492.2,-1.2678,-1.2502,147.8,98.1,0.475
37.32,31868.2,34644.0,-0.5351,-0.8768,147.8,98.1,0.475
37.34,31980.8,34895.6,-0.0769,-0.2577,147.8,98.1,0.475
37.36,32128.6,35353.2,0.5252,0.8683,147.8,98.1,0.475
37.38,32184.1,35617.5,0.7509,1.5185,147.8,98.1,0.475
37.4,32328.3,35695.9,1.3377,1.7115,147.8,98.1,0.475
37.42,32353.1,35677.5,1.4389,1.6663,147.8,98.1,0.475
37.44,32219.1,35478.8,0.8933,1.1772,147.8,98.1,0.475
37.46,32168.1,35292.1,0.6857,0.7179,147.8,98.1,0.475
37.48,32054.4,35140.7,0.2228,0.3453,147.8,98.1,0.475
37.5,32048.0,35120.9,0.197,0.2967,147.8,98.1,0.475
37.52,32012.3,34947.9,0.0515,-0.129,147.8,98.1,0.475
37.54,31979.5,34946.6,-0.0821,-0.1323,147.8,98.1,0.475
37.56,31930.1,34824.1,-0.2831,-0.4336,147.8,98.1,0.475
37.58,31903.9,34818.2,-0.3898,-0.448,147.8,98.1,0.475
37.6,31882.9,34674.5,-0.4754,-0.8019,147.8,98.1,0.475
37.62,31848.6,34706.5,-0.6148,-0.723,147.8,98.1,0.475
37.64,31859.6,34609.3,-0.5701,-0.9621,147.8,98.1,0.475
37.66,31856.0,34587.5,-0.5848,-1.0158,147.8,98.1,0.475
37.68,31784.5,34555.0,-0.8759,-1.0958,147.8,98.1,0.475
37.7,31829.2,34410.0,-0.6937,-1.4525,147.8,98.1,0.475
37.72,31821.8,34525.5,-0.7241,-1.1684,147.8,98.1,0.475
37.74,31927.4,34881.5,-0.2941,-0.2925,147.8,98.1,0.475
37.76,32045.6,35205.4,0.187,0.5046,147.8,98.1,0.475
37.78,32213.2,35487.3,0.8693,1.1983,147.8,98.1,0.475
37.8,32217.4,35728.0,0.8863,1.7905,147.8,98.1,0.475
37.82,32414.8,35713.0,1.6901,1.7535,147.8,98.1,0.475
37.84,32234.2,35575.1,0.9547,1.4143,147.8,98.1,0.475
37.86,32233.6,35446.3,0.9524,1.0974,147.8,98.1,0.475
37.88,32101.2,35150.7,0.4135,0.3699,147.8,98.1,0.475
37.9,32060.7,35111.0,0.2485,0.2724,147.8,98.1,0.475
37.92,32143.5,35041.6,0.5856,0.1016,147.8,98.1,0.475
37.94,31979.1,34970.6,-0.0836,-0.0732,147.8,98.1,0.475
37.96,31992.6,34944.7,-0.0285,-0.1368,147.8,98.1,0.475
37.98,31929.4,34695.2,-0.2859,-0.7507,147.8,98.1,0.475
38.0,31883.8,34809.4,-0.4717,-0.4699,147.8,98.1,0.475
38.02,31868.7,34677.2,-0.5331,-0.795,147.8,98.1,0.475
38.04,31791.2,34684.3,-0.8486,-0.7777,147.8,98.1,0.475
38.06,31835.8,34620.9,-0.667,-0.9337,147.8,98.1,0.475
38.08,31798.6,34559.8,-0.8183,-1.0839,147.8,98.1,0.475
38.1,31728.0,34445.0,-1.1056,-1.3664,147.8,98.1,0.475
38.12,31825.4,34466.5,-0.7091,-1.3135,147.8,98.1,0.475
38.14,31905.9,34643.3,-0.3814,-0.8784,147.8,98.1,0.475
38.16,31939.5,35108.8,-0.2448,0.2669,147.8,98.1,0.475
38.18,32082.9,35358.8,0.339,0.8821,147.8,98.1,0.475
38.2,32285.2,35732.4,1.1624,1.8013,147.8,98.1,0.475
38.22,32315.7,35783.7,1.2867,1.9275,147.8,98.1,0.475
38.24,32247.8,35662.9,1.0102,1.6304,147.8,98.1,0.475
38.26,32172.6,35481.3,0.7041,1.1834,147.8,98.1,0.475
38.28,32128.9,35189.3,0.5264,0.4649,147.8,98.1,0.475
38.3,32115.1,35114.3,0.4702,0.2803,147.8,98.1,0.475
38.32,31961.5,35122.2,-0.1553,0.2998,147.8,98.1,0.475
38.34,31996.3,35093.1,-0.0137,0.2283,147.8,98.1,0.475
38.36,31987.6,34885.9,-0.049,-0.2815,147.8,98.1,0.475
38.38,31996.2,34841.2,-0.014,-0.3916,147.8,98.1,0.475
38.4,31892.3,34669.7,-0.4369,-0.8135,147.8,98.1,0.475
38.42,31800.8,34677.1,-0.8093,-0.7954,147.8,98.1,0.475
38.44,31887.8,34633.9,-0.4554,-0.9017,147.8,98.1,0.475
38.46,31864.4,34645.8,-0.5507,-0.8724,147.8,98.1,0.475
38.48,31816.2,34560.1,-0.7468,-1.0832,147.8,98.1,0.475
38.5,31808.5,34435.2,-0.7782,-1.3905,147.8,98.1,0.475
38.52,31692.6,34425.3,-1.25,-1.415,147.8,98.1,0.475
38.54,31798.9,34590.5,-0.8171,-1.0084,147.8,98.1,0.475
38.56,31954.6,34939.9,-0.1835,-0.1487,147.8,98.1,0.475
38.58,32065.2,35290.4,0.267,0.7138,147.8,98.1,0.475
38.6,32317.4,35621.3,1.2934,1.5279,147.8,98.1,0.475
38.62,32324.5,35731.4,1.3226,1.7987,147.8,98.1,0.475
38.64,32238.6,35541.9,0.9729,1.3324,147.8,98.1,0.475
38.66,32318.6,35437.7,1.2984,1.0762,147.8,98.1,0.475
38.68,32156.6,35279.2,0.639,0.6861,147.8,98.1,0.475
38.7,32138.9,35220.2,0.5671,0.5409,147.8,98.1,0.475
38.72,32070.3,35125.0,0.2877,0.3067,147.8,98.1,0.475
38.74,32005.1,35024.8,0.0223,0.0601,147.8,98.1,0.475
38.76,31977.6,34934.7,-0.0895,-0.1614,147.8,98.1,0.475
38.78,31931.9,34873.0,-0.2756,-0.3133,147.8,98.1,0.475
38.8,31929.0,34747.5,-0.2877,-0.6221,147.8,98.1,0.475
38.82,31735.4,34627.4,-1.0758,-0.9177,147.8,98.1,0.475
38.84,31756.8,34717.8,-0.9885,-0.6952,147.8,98.1,0.475
38.86,31931.2,34615.8,-0.2787,-0.9461,147.8,98.1,0.475
38.88,31841.4,34632.8,-0.6442,-0.9045,147.8,98.1,0.475
38.9,31886.4,34615.3,-0.4609,-0.9473,147.8,98.1,0.475
38.92,31787.5,34474.3,-0.8636,-1.2944,147.8,98.1,0.475
38.94,31723.7,34472.2,-1.1234,-1.2995,147.8,98.1,0.475
38.96,31964.4,34843.3,-0.1435,-0.3865,147.8,98.1,0.475
38.98,32110.0,35176.6,0.4492,0.4338,147.8,98.1,0.475
39.0,32258.5,35611.5,1.054,1.5038,147.8,98.1,0.475
39.02,32309.9,35727.0,1.2631,1.788,147.8,98.1,0.475
39.04,32291.2,35763.1,1.1869,1.8768,147.8,98.1,0.475
39.06,32229.9,35570.7,0.9374,1.4034,147.8,98.1,0.475
39.08,32175.4,35413.9,0.7155,1.0177,147.8,98.1,0.475
39.1,32039.9,35277.3,0.1638,0.6814,147.8,98.1,0.475
39.12,32015.6,35082.1,0.0649,0.2012,147.8,98.1,0.475
39.14,32081.3,35057.0,0.3324,0.1394,147.8,98.1,0.475
39.16,31980.5,35034.2,-0.0779,0.0834,147.8,98.1,0.475
39.18,32043.0,34922.9,0.1764,-0.1906,147.8,98.1,0.475
39.2,31842.6,34776.9,-0.6391,-0.5497,147.8,98.1,0.475
39.22,31928.0,34759.4,-0.2917,-0.5928,147.8,98.1,0.475
39.24,31838.9,34680.5,-0.6542,-0.7871,147.8,98.1,0.475
39.26,31826.5,34667.8,-0.7048,-0.8184,147.8,98.1,0.475
39.28,31790.0,34653.6,-0.8534,-0.8531,147.8,98.1,0.475
39.3,31805.3,34433.2,-0.7913,-1.3955,147.8,98.1,0.475
39.32,31721.4,34503.8,-1.1326,-1.2219,147.8,98.1,0.475
39.34,31650.5,34461.3,-1.4211,-1.3264,147.8,98.1,0.475
39.36,31835.0,34692.5,-0.6703,-0.7575,147.8,98.1,0.475
39.38,32108.9,35039.5,0.4449,0.0964,147.8,98.1,0.475
39.4,32306.8,35447.1,1.2503,1.0994,147.8,98.1,0.475
39.42,32374.7,35703.4,1.5269,1.7299,147.8,98.1,0.475
39.44,32228.1,35746.7,0.9302,1.8365,147.8,98.1,0.475
39.46,32316.4,35571.3,1.2893,1.4049,147.8,98.1,0.475
39.48,32234.6,35375.3,0.9565,0.9226,147.8,98.1,0.475
39.5,31994.5,35245.0,-0.0208,0.6019,147.8,98.1,0.475
39.52,32041.2,35154.7,0.1694,0.3799,147.8,98.1,0.475
39.54,32031.1,35141.9,0.1281,0.3484,147.8,98.1,0.475
39.56,31921.1,35034.4,-0.3195,0.0838,147.8,98.1,0.475
39.58,31960.0,34866.8,-0.1615,-0.3286,147.8,98.1,0.475
39.6,31986.3,34797.3,-0.0545,-0.4996,147.8,98.1,0.475
39.62,31855.3,34752.4,-0.5875,-0.6101,147.8,98.1,0.475
39.64,31856.7,34691.0,-0.5819,-0.7613,147.8,98.1,0.475
39.66,31822.1,34672.0,-0.7229,-0.8078,147.8,98.1,0.475
39.68,31838.5,34658.1,-0.6561,-0.8421,147.8,98.1,0.475
39.7,31767.0,34485.6,-0.9471,-1.2666,147.8,98.1,0.475
39.72,31828.7,34484.3,-0.6957,-1.2698,147.8,98.1,0.475
39.74,31680.2,34537.8,-1.3001,-1.1382,147.8,98.1,0.475
39.76,31806.0,34574.2,-0.7882,-1.0484,147.8,98.1,0.475
39.78,31971.3,34849.0,-0.1155,-0.3723,147.8,98.1,0.475
39.8,32132.2,35285.1,0.5398,0.7008,147.8,98.1,0.475
39.82,32282.2,35672.1,1.1503,1.6529,147.8,98.1,0.475
39.84,32339.5,35786.1,1.3836,1.9334,147.8,98.1,0.475
39.86,32320.5,35614.1,1.3061,1.5101,147.8,98.1,0.475
39.88,32180.6,35503.8,0.7365,1.2387,147.8,98.1,0.475
39.9,32109.5,35317.6,0.4473,0.7808,147.8,98.1,0.475
39.92,32154.8,35076.2,0.6318,0.1867,147.8,98.1,0.475
39.94,32052.1,35069.3,0.2135,0.1697,147.8,98.1,0.475
39.96,31935.9,35014.5,-0.2593,0.0349,147.8,98.1,0.475
39.98,31972.9,34915.3,-0.1088,-0.2093,147.8,98.1,0.475
40.0,32011.7,34806.2,0.0493,-0.4777,147.8,98.1,0.475
40.02,31904.4,34741.5,-0.3878,-0.6369,147.8,98.1,0.475
40.04,31857.1,34701.6,-0.5802,-0.7352,147.8,98.1,0.475
40.06,31945.9,34592.9,-0.2189,-1.0025,147.8,98.1,0.475
40.08,31896.9,34689.7,-0.4184,-0.7644,147.8,98.1,0.475
40.1,31865.4,34522.3,-0.5462,-1.1763,147.8,98.1,0.475
40.12,31780.6,34476.0,-0.8914,-1.2902,147.8,98.1,0.475
40.14,31790.0,34504.3,-0.8532,-1.2205,147.8,98.1,0.475
40.16,31788.1,34575.3,-0.861,-1.0458,147.8,98.1,0.475
40.18,31882.2,34861.6,-0.4779,-0.3414,147.8,98.1,0.475
40.2,32027.2,35249.5,0.1123,0.6131,147.8,98.1,0.475
40.22,32263.1,35615.0,1.0724,1.5124,147.8,98.1,0.475
40.24,32229.7,35882.9,0.9366,2.1716,147.8,98.1,0.475
40.26,32214.3,35700.3,0.874,1.7224,147.8,98.1,0.475
40.28,32223.1,35564.5,0.9098,1.3881,147.8,98.1,0.475
40.3,32088.6,35335.9,0.362,0.8256,147.8,98.1,0.475
40.32,32153.2,35204.2,0.625,0.5016,147.8,98.1,0.475
40.34,32113.4,35170.4,0.4633,0.4185,147.8,98.1,0.475
40.36,31946.5,35072.7,-0.2165,0.1779,147.8,98.1,0.475
40.38,31993.5,34971.5,-0.0249,-0.071,147.8,98.1,0.475
40.4,31911.8,34859.3,-0.3574,-0.347,147.8,98.1,0.475
40.42,31918.3,34686.7,-0.3311,-0.7718,147.8,98.1,0.475
40.44,31944.4,34733.7,-0.2249,-0.656,147.8,98.1,0.475
40.46,31826.8,34711.9,-0.7037,-0.7098,147.8,98.1,0.475
40.48,31850.1,34666.4,-0.6086,-0.8216,147.8,98.1,0.475
40.5,31864.1,34575.4,-0.5515,-1.0456,147.8,98.1,0.475
40.52,31728.4,34473.5,-1.1041,-1.2962,147.8,98.1,0.475
40.54,31809.4,34557.3,-0.7742,-1.0902,147.8,98.1,0.475
40.56,31795.8,34557.8,-0.8298,-1.089,147.8,98.1,0.475
40.58,31903.7,34663.1,-0.3904,-0.8298,147.8,98.1,0.475
40.6,32111.1,35058.3,0.4539,0.1426,147.8,98.1,0.475
40.62,32205.1,35426.3,0.8363,1.0481,147.8,98.1,0.475
40.64,32306.4,35671.4,1.2486,1.6513,147.8,98.1,0.475
40.66,32231.0,35772.2,0.942,1.8993,147.8,98.1,0.475
40.68,32354.1,35664.0,1.443,1.633,147.8,98.1,0.475
40.7,32214.4,35378.1,0.8741,0.9294,147.8,98.1,0.475
40.72,32063.0,35269.8,0.2578,0.663,147.8,98.1,0.475
40.74,32064.6,35103.4,0.2645,0.2537,147.8,98.1,0.475
40.76,32034.6,35028.4,0.1424,0.0691,147.8,98.1,0.475
40.78,32021.5,34923.5,0.089,-0.1891,147.8,98.1,0.475
40.8,31951.2,34864.3,-0.1973,-0.3348,147.8,98.1,0.475
40.82,31928.6,34696.4,-0.289,-0.7479,147.8,98.1,0.475
40.84,31912.3,34711.3,-0.3556,-0.7111,147.8,98.1,0.475
40.86,31841.7,34664.0,-0.643,-0.8276,147.8,98.1,0.475
40.88,31843.8,34615.7,-0.6342,-0.9464,147.8,98.1,0.475
40.9,31867.2,34672.9,-0.5392,-0.8057,147.8,98.1,0.475
40.92,31803.6,34542.8,-0.7978,-1.1259,147.8,98.1,0.475
40.94,31717.3,34504.8,-1.1494,-1.2194,147.8,98.1,0.475
40.96,31766.0,34517.7,-0.9509,-1.1876,147.8,98.1,0.475
40.98,31811.2,34602.7,-0.7669,-0.9784,147.8,98.1,0.475
41.0,32094.5,34988.8,0.3862,-0.0284,147.8,98.1,0.475
41.02,32115.8,35396.7,0.4729,0.9753,147.8,98.1,0.475
41.04,32356.4,35739.7,1.4524,1.8192,147.8,98.1,0.475
41.06,32248.8,35721.2,1.0142,1.7738,147.8,98.1,0.475
41.08,32248.0,35623.8,1.011,1.5341,147.8,98.1,0.475
41.1,32226.6,35404.6,0.924,0.9947,147.8,98.1,0.475
41.12,32125.3,35243.5,0.5117,0.5984,147.8,98.1,0.475
41.14,32065.8,35068.4,0.2694,0.1674,147.8,98.1,0.475
41.16,31981.0,35097.9,-0.0758,0.24,147.8,98.1,0.475
41.18,32016.8,35056.9,0.0699,0.1392,147.8,98.1,0.475
41.2,31921.6,34925.7,-0.3178,-0.1836,147.8,98.1,0.475
41.22,32008.9,34885.1,0.0377,-0.2836,147.8,98.1,0.475
41.24,31900.8,34748.6,-0.4024,-0.6194,147.8,98.1,0.475
41.26,31968.6,34707.3,-0.1262,-0.7211,147.8,98.1,0.475
41.28,31938.6,34707.4,-0.2483,-0.7207,147.8,98.1,0.475
41.3,31857.1,34695.7,-0.5803,-0.7495,147.8,98.1,0.475
41.32,31793.1,34508.1,-0.8406,-1.2113,147.8,98.1,0.475
41.34,31821.3,34534.2,-0.7259,-1.147,147.8,98.1,0.475
41.36,31733.8,34483.8,-1.0819,-1.2709,147.8,98.1,0.475
41.38,31803.4,34534.4,-0.7987,-1.1466,147.8,98.1,0.475
41.4,31914.0,34857.9,-0.3488,-0.3505,147.8,98.1,0.475
41.42,32147.9,35354.7,0.6035,0.8719,147.8,98.1,0.475
41.44,32285.0,35579.6,1.1616,1.4253,147.8,98.1,0.475
41.46,32340.3,35714.9,1.3869,1.7582,147.8,98.1,0.475
41.48,32279.7,35693.8,1.14,1.7063,147.8,98.1,0.475
41.5,32292.3,35517.4,1.1915,1.2722,147.8,98.1,0.475
41.52,32120.8,35400.5,0.4931,0.9847,147.8,98.1,0.475
41.54,32130.5,35100.2,0.5328,0.2456,147.8,98.1,0.475
41.56,32137.3,35112.4,0.5605,0.2757,147.8,98.1,0.475
41.58,32080.5,35094.4,0.329,0.2315,147.8,98.1,0.475
41.6,32040.3,35033.4,0.1656,0.0814,147.8,98.1,0.475
41.62,31979.2,34931.5,-0.0831,-0.1694,147.8,98.1,0.475
41.64,31955.7,34774.0,-0.1789,-0.5569,147.8,98.1,0.475
41.66,31913.9,34633.9,-0.3488,-0.9016,147.8,98.1,0.475
41.68,31793.0,34620.0,-0.841,-0.9357,147.8,98.1,0.475
41.7,31864.7,34669.0,-0.5492,-0.8152,147.8,98.1,0.475
41.72,31858.5,34675.7,-0.5745,-0.7987,147.8,98.1,0.475
41.74,31766.8,34498.3,-0.9478,-1.2354,147.8,98.1,0.475
41.76,31768.1,34416.9,-0.9423,-1.4355,147.8,98.1,0.475
41.78,31833.1,34573.3,-0.6778,-1.0507,147.8,98.1,0.475
41.8,31871.0,34727.2,-0.5235,-0.6721,147.8,98.1,0.475
41.82,32068.3,35221.6,0.2794,0.5443,147.8,98.1,0.475
41.84,32254.8,35532.6,1.0386,1.3098,147.8,98.1,0.475
41.86,32331.6,35680.1,1.3515,1.6727,147.8,98.1,0.475
41.88,32280.3,35753.0,1.1426,1.8519,147.8,98.1,0.475
41.9,32220.5,35471.8,0.8991,1.1601,147.8,98.1,0.475
41.92,32165.3,35427.4,0.6742,1.0508,147.8,98.1,0.475
41.94,32166.6,35215.0,0.6796,0.5281,147.8,98.1,0.475
41.96,32005.2,35102.0,0.0228,0.25,147.8,98.1,0.475
41.98,32119.6,35085.5,0.4885,0.2094,147.8,98.1,0.475
42.0,32008.1,34988.2,0.0345,-0.0298,147.8,98.1,0.475
42.02,31989.4,34862.0,-0.0416,-0.3403,147.8,98.1,0.475
42.04,31791.3,34745.7,-0.8482,-0.6266,147.8,98.1,0.475
42.06,31950.3,34751.1,-0.2007,-0.6133,147.8,98.1,0.475
42.08,31845.5,34750.7,-0.6275,-0.6143,147.8,98.1,0.475
42.1,31784.7,34620.2,-0.875,-0.9354,147.8,98.1,0.475
42.12,31880.9,34616.5,-0.4834,-0.9444,147.8,98.1,0.475
42.14,31797.7,34549.7,-0.8219,-1.1088,147.8,98.1,0.475
42.16,31679.6,34486.7,-1.3027,-1.264,147.8,98.1,0.475
42.18,31825.2,34584.9,-0.7101,-1.0221,147.8,98.1,0.475
42.2,31877.1,34710.7,-0.4986,-0.7127,147.8,98.1,0.475
42.22,31992.9,35078.1,-0.0274,0.1913,147.8,98.1,0.475
42.24,32324.5,35397.3,1.3226,0.9767,147.8,98.1,0.475
42.26,32301.0,35710.6,1.2268,1.7475,147.8,98.1,0.475
42.28,32284.1,35758.9,1.1581,1.8665,147.8,98.1,0.475
42.3,32263.8,35657.6,1.0755,1.6172,147.8,98.1,0.475
42.32,32236.7,35465.8,0.9649,1.1454,147.8,98.1,0.475
42.34,32160.5,35281.9,0.6547,0.6928,147.8,98.1,0.475
42.36,31983.6,35188.5,-0.0653,0.463,147.8,98.1,0.475
42.38,31993.2,35039.4,-0.0261,0.0961,147.8,98.1,0.475
42.4,31953.3,34982.9,-0.1885,-0.043,147.8,98.1,0.475
42.42,31910.1,34859.1,-0.3644,-0.3474,147.8,98.1,0.475
42.44,31976.4,34737.7,-0.0946,-0.6462,147.8,98.1,0.475
42.46,31876.2,34739.8,-0.5025,-0.6411,147.8,98.1,0.475
42.48,31867.0,34613.1,-0.5398,-0.9527,147.8,98.1,0.475
42.5,31819.5,34638.4,-0.7334,-0.8906,147.8,98.1,0.475
42.52,31770.7,34607.4,-0.9319,-0.9669,147.8,98.1,0.475
42.54,31807.1,34621.4,-0.7839,-0.9325,147.8,98.1,0.475
42.56,31769.0,34456.6,-0.939,-1.338,147.8,98.1,0.475
42.58,31747.4,34530.9,-1.0268,-1.1552,147.8,98.1,0.475
42.6,31780.0,34624.6,-0.8941,-0.9245,147.8,98.1,0.475
42.62,32003.4,34918.2,0.0154,-0.2022,147.8,98.1,0.475
42.64,32069.5,35318.6,0.2844,0.7831,147.8,98.1,0.475
42.66,32284.4,35620.6,1.159,1.5262,147.8,98.1,0.475
42.68,32379.1,35733.8,1.5446,1.8048,147.8,98.1,0.475
42.7,32342.7,35633.5,1.3966,1.558,147.8,98.1,0.475
42.72,32257.4,35591.0,1.0494,1.4534,147.8,98.1,0.475
42.74,32048.2,35406.3,0.1979,0.9989,147.8,98.1,0.475
42.76,32070.7,35171.8,0.2892,0.422,147.8,98.1,0.475
42.78,31995.4,35102.3,-0.0173,0.251,147.8,98.1,0.475
42.8,31998.8,35036.0,-0.0033,0.0878,147.8,98.1,0.475
42.82,31965.9,35015.0,-0.1373,0.0362,147.8,98.1,0.475
42.84,31951.5,34889.4,-0.1959,-0.2731,147.8,98.1,0.475
42.86,31936.2,34768.4,-0.2582,-0.5707,147.8,98.1,0.475
42.88,31807.9,34648.2,-0.7804,-0.8664,147.8,98.1,0.475
42.9,31819.2,34662.0,-0.7347,-0.8325,147.8,98.1,0.475
42.92,31921.3,34626.8,-0.319,-0.9192,147.8,98.1,0.475
42.94,31852.4,34549.6,-0.5993,-1.1091,147.8,98.1,0.475
42.96,31800.0,34457.2,-0.8126,-1.3365,147.8,98.1,0.475
42.98,31754.7,34444.2,-0.997,-1.3684,147.8,98.1,0.475
43.0,31822.3,34542.6,-0.7217,-1.1264,147.8,98.1,0.475
43.02,31895.0,34867.3,-0.426,-0.3274,147.8,98.1,0.475
43.04,32037.1,35239.2,0.1526,0.5877,147.8,98.1,0.475
43.06,32329.0,35460.9,1.3407,1.1332,147.8,98.1,0.475
43.08,32372.6,35716.0,1.5184,1.761,147.8,98.1,0.475
43.1,32367.6,35807.6,1.498,1.9864,147.8,98.1,0.475
43.12,32264.7,35550.4,1.079,1.3535,147.8,98.1,0.475
43.14,32165.6,35348.8,0.6757,0.8575,147.8,98.1,0.475
43.16,32057.0,35179.0,0.2337,0.4397,147.8,98.1,0.475
43.18,31836.0,35101.1,-0.6661,0.2479,147.8,98.1,0.475
43.2,32078.5,35099.0,0.321,0.2428,147.8,98.1,0.475
43.22,32023.8,34898.4,0.0982,-0.2507,147.8,98.1,0.475
43.24,31971.0,34865.0,-0.1165,-0.3329,147.8,98.1,0.475
43.26,31891.2,34764.3,-0.4416,-0.5808,147.8,98.1,0.475
43.28,31874.4,34648.9,-0.5098,-0.8647,147.8,98.1,0.475
43.3,31790.6,34639.9,-0.8507,-0.8868,147.8,98.1,0.475
43.32,31847.3,34544.1,-0.6203,-1.1227,147.8,98.1,0.475
43.34,31837.4,34591.8,-0.6606,-1.0054,147.8,98.1,0.475
43.36,31802.8,34496.9,-0.8013,-1.2388,147.8,98.1,0.475
43.38,31781.3,34520.4,-0.889,-1.181,147.8,98.1,0.475
43.4,31761.7,34467.7,-0.9684,-1.3106,147.8,98.1,0.475
43.42,31796.5,34774.4,-0.8269,-0.5559,147.8,98.1,0.475
43.44,32108.3,35081.5,0.4425,0.1997,147.8,98.1,0.475
43.46,32155.6,35506.5,0.6347,1.2456,147.8,98.1,0.475
43.48,32363.2,35735.3,1.4799,1.8083,147.8,98.1,0.475
43.5,32342.5,35721.7,1.3956,1.7749,147.8,98.1,0.475
43.52,32206.5,35599.0,0.8422,1.4731,147.8,98.1,0.475
43.54,32142.0,35392.4,0.5796,0.9647,147.8,98.1,0.475
43.56,32184.0,35237.2,0.7504,0.5829,147.8,98.1,0.475
43.58,32009.6,35243.0,0.0405,0.5971,147.8,98.1,0.475
43.6,31985.2,35100.8,-0.0589,0.2472,147.8,98.1,0.475
43.62,32033.7,35077.3,0.1385,0.1895,147.8,98.1,0.475
43.64,32017.4,34889.7,0.0722,-0.2722,147.8,98.1,0.475
43.66,31935.3,34853.2,-0.2619,-0.362,147.8,98.1,0.475
43.68,31899.8,34734.9,-0.4064,-0.653,147.8,98.1,0.475
43.7,31870.7,34651.8,-0.5247,-0.8576,147.8,98.1,0.475
43.72,31876.7,34717.5,-0.5003,-0.696,147.8,98.1,0.475
43.74,31916.1,34614.0,-0.34,-0.9506,147.8,98.1,0.475
43.76,31813.9,34512.5,-0.7562,-1.2003,147.8,98.1,0.475
43.78,31668.1,34489.0,-1.3497,-1.2582,147.8,98.1,0.475
43.8,31739.6,34420.4,-1.0586,-1.4271,147.8,98.1,0.475
43.82,31862.6,34656.2,-0.5579,-0.8467,147.8,98.1,0.475
43.84,32004.9,34915.9,0.0216,-0.2077,147.8,98.1,0.475
43.86,32110.0,35349.2,0.4492,0.8585,147.8,98.1,0.475
43.88,32299.7,35552.1,1.2215,1.3577,147.8,98.1,0.475
43.9,32264.2,35808.1,1.0771,1.9876,147.8,98.1,0.475
43.92,32314.8,35775.4,1.2831,1.9072,147.8,98.1,0.475
43.94,32158.7,35420.6,0.6475,1.0341,147.8,98.1,0.475
43.96,32101.9,35277.5,0.4163,0.6821,147.8,98.1,0.475
43.98,32078.0,35080.5,0.3188,0.1972,147.8,98.1,0.475
44.0,31986.8,35112.1,-0.0521,0.275,147.8,98.1,0.475
44.02,32090.3,34967.0,0.3692,-0.082,147.8,98.1,0.475
44.04,31990.8,34954.5,-0.0359,-0.1128,147.8,98.1,0.475
44.06,31954.2,34807.4,-0.185,-0.4748,147.8,98.1,0.475
44.08,31899.9,34769.1,-0.4058,-0.5691,147.8,98.1,0.475
44.1,31849.5,34708.6,-0.611,-0.7179,147.8,98.1,0.475
44.12,31871.7,34707.8,-0.5209,-0.7197,147.8,98.1,0.475
44.14,31901.1,34660.6,-0.401,-0.8359,147.8,98.1,0.475
44.16,31836.5,34557.3,-0.6643,-1.0902,147.8,98.1,0.475
44.18,31809.7,34525.9,-0.7731,-1.1675,147.8,98.1,0.475
44.2,31774.0,34385.9,-0.9187,-1.5118,147.8,98.1,0.475
44.22,31806.6,34609.1,-0.7858,-0.9626,147.8,98.1,0.475
44.24,31919.4,34792.9,-0.3264,-0.5104,147.8,98.1,0.475
44.26,32019.7,35230.0,0.0816,0.5652,147.8,98.1,0.475
44.28,32355.3,35428.9,1.4478,1.0544,147.8,98.1,0.475
44.3,32286.4,35709.0,1.1672,1.7436,147.8,98.1,0.475
44.32,32331.4,35710.8,1.3507,1.7481,147.8,98.1,0.475
44.34,32207.9,35570.8,0.8479,1.4035,147.8,98.1,0.475
44.36,32197.3,35314.0,0.8047,0.7717,147.8,98.1,0.475
44.38,32027.6,35129.3,0.114,0.3174,147.8,98.1,0.475
44.4,32028.3,35172.3,0.1167,0.423,147.8,98.1,0.475
44.42,31989.0,35055.7,-0.0435,0.1363,147.8,98.1,0.475
44.44,31956.7,35006.6,-0.1749,0.0153,147.8,98.1,0.475
44.46,31956.5,34867.2,-0.1757,-0.3276,147.8,98.1,0.475
44.48,31932.3,34745.7,-0.274,-0.6265,147.8,98.1,0.475
44.5,31895.7,34784.3,-0.4231,-0.5316,147.8,98.1,0.475
44.52,31903.1,34725.5,-0.3929,-0.6763,147.8,98.1,0.475
44.54,31777.3,34601.8,-0.9049,-0.9806,147.8,98.1,0.475
44.56,31892.5,34614.4,-0.436,-0.9498,147.8,98.1,0.475
44.58,31728.2,34393.6,-1.1047,-1.493,147.8,98.1,0.475
44.6,31802.2,34459.6,-0.8037,-1.3305,147.8,98.1,0.475
44.62,31850.8,34524.5,-0.6059,-1.1709,147.8,98.1,0.475
44.64,31857.4,34827.8,-0.5791,-0.4245,147.8,98.1,0.475
44.66,31975.3,35094.8,-0.0991,0.2325,147.8,98.1,0.475
44.68,32201.3,35579.5,0.8211,1.4251,147.8,98.1,0.475
44.7,32283.6,35835.4,1.1559,2.0548,147.8,98.1,0.475
44.72,32307.2,35739.2,1.2519,1.818,147.8,98.1,0.475
44.74,32231.6,35620.9,0.9443,1.5268,147.8,98.1,0.475
44.76,32242.7,35386.4,0.9894,0.9499,147.8,98.1,0.475
44.78,32057.2,35305.6,0.2343,0.7512,147.8,98.1,0.475
44.8,32000.2,35112.5,0.0025,0.2759,147.8,98.1,0.475
44.82,32040.3,35092.9,0.1655,0.2277,147.8,98.1,0.475
44.84,32038.9,35051.1,0.1597,0.125,147.8,98.1,0.475
