timestamp,raw_red,raw_ir,filtered_red,filtered_ir,heart_rate,spo2,ac_dc_ratio
0.0,32166.8,35146.4,0.6774,0.3589,145.6,97.0,0.518
0.02,32187.7,35487.9,0.7621,1.1991,145.6,97.0,0.518
0.04,32382.1,35755.2,1.5487,1.8566,145.6,97.0,0.518
0.06,32322.9,35753.7,1.3093,1.8529,145.6,97.0,0.518
0.08,32278.1,35545.4,1.128,1.3406,145.6,97.0,0.518
0.1,32242.3,35433.1,0.983,1.0641,145.6,97.0,0.518
0.12,32092.7,35143.7,0.3776,0.3522,145.6,97.0,0.518
0.14,32158.9,35153.5,0.6455,0.3764,145.6,97.0,0.518
0.16,31991.8,35114.1,-0.031,0.2793,145.6,97.0,0.518
0.18,31948.1,35078.1,-0.2075,0.191,145.6,97.0,0.518
0.2,31925.8,34907.8,-0.2977,-0.2281,145.6,97.0,0.518
0.22,31975.4,34831.9,-0.097,-0.4149,145.6,97.0,0.518
0.24,31840.4,34711.9,-0.6435,-0.7101,145.6,97.0,0.518
0.26,31845.8,34821.9,-0.6214,-0.4393,145.6,97.0,0.518
0.28,31924.8,34702.8,-0.3019,-0.7325,145.6,97.0,0.518
0.3,31777.1,34593.5,-0.8997,-1.0013,145.6,97.0,0.518
0.32,31743.1,34557.3,-1.0374,-1.0903,145.6,97.0,0.518
0.34,31751.5,34533.0,-1.0034,-1.1502,145.6,97.0,0.518
0.36,31670.1,34515.1,-1.3328,-1.1941,145.6,97.0,0.518
0.38,31821.5,34675.2,-0.72,-0.8002,145.6,97.0,0.518
0.4,31933.6,34887.0,-0.2663,-0.2792,145.6,97.0,0.518
0.42,32180.8,35462.1,0.734,1.1356,145.6,97.0,0.518
0.44,32365.6,35558.6,1.4819,1.373,145.6,97.0,0.518
0.46,32408.9,35664.4,1.6572,1.6333,145.6,97.0,0.518
0.48,32356.3,35742.5,1.4444,1.8253,145.6,97.0,0.518
0.5,32211.5,35545.9,0.8581,1.3417,145.6,97.0,0.518
0.52,32160.5,35308.9,0.6519,0.7586,145.6,97.0,0.518
0.54,32023.3,35184.9,0.0966,0.4537,145.6,97.0,0.518
0.56,32063.7,35128.6,0.2604,0.3152,145.6,97.0,0.518
0.58,32063.6,35105.5,0.2599,0.2583,145.6,97.0,0.518
0.6,31894.5,35053.3,-0.4245,0.1297,145.6,97.0,0.518
0.62,31879.5,34872.9,-0.4852,-0.3139,145.6,97.0,0.518
0.64,31922.7,34772.4,-0.3104,-0.5611,145.6,97.0,0.518
0.66,31824.4,34743.1,-0.7084,-0.6332,145.6,97.0,0.518
0.68,31813.4,34678.9,-0.7526,-0.7911,145.6,97.0,0.518
0.7,31859.5,34661.4,-0.5662,-0.8342,145.6,97.0,0.518
0.72,31852.3,34581.2,-0.5952,-1.0315,145.6,97.0,0.518
0.74,31685.5,34473.0,-1.2705,-1.2978,145.6,97.0,0.518
0.76,31744.1,34371.5,-1.0331,-1.5475,145.6,97.0,0.518
0.78,31721.5,34522.5,-1.1245,-1.1759,145.6,97.0,0.518
0.8,31892.9,34739.0,-0.431,-0.6434,145.6,97.0,0.518
0.82,32010.3,35109.4,0.0442,0.268,145.6,97.0,0.518
0.84,32283.1,35468.7,1.1479,1.1517,145.6,97.0,0.518
0.86,32364.6,35795.2,1.4779,1.955,145.6,97.0,0.518
0.88,32395.5,35766.4,1.603,1.8842,145.6,97.0,0.518
0.9,32306.6,35647.0,1.2433,1.5905,145.6,97.0,0.518
0.92,32202.3,35398.9,0.8212,0.9801,145.6,97.0,0.518
0.94,32167.2,35230.3,0.6789,0.5653,145.6,97.0,0.518
0.96,32011.5,35144.1,0.0488,0.3533,145.6,97.0,0.518
0.98,32138.3,35113.2,0.5623,0.2773,145.6,97.0,0.518
1.0,32012.9,35064.5,0.0545,0.1575,145.6,97.0,0.518
1.02,31947.9,34923.7,-0.2084,-0.1891,145.6,97.0,0.518
1.04,31928.6,34871.8,-0.2867,-0.3165,145.6,97.0,0.518
1.06,31797.6,34743.0,-0.8167,-0.6334,145.6,97.0,0.518
1.08,31758.6,34644.0,-0.9744,-0.877,145.6,97.0,0.518
1.1,31837.9,34659.6,-0.6538,-0.8386,145.6,97.0,0.518
1.12,31852.2,34639.3,-0.5957,-0.8886,145.6,97.0,0.518
1.14,31790.5,34562.6,-0.8453,-1.0772,145.6,97.0,0.518
1.16,31663.2,34539.7,-1.3605,-1.1336,145.6,97.0,0.518
1.18,31745.5,34391.7,-1.0275,-1.4979,145.6,97.0,0.518
1.2,31808.9,34624.0,-0.7711,-0.9264,145.6,97.0,0.518
1.22,31953.9,34834.9,-0.1841,-0.4074,145.6,97.0,0.518
1.24,32024.1,35294.7,0.0999,0.7238,145.6,97.0,0.518
1.26,32203.2,35559.2,0.8247,1.3744,145.6,97.0,0.518
1.28,32357.6,35765.5,1.4497,1.882,145.6,97.0,0.518
1.3,32382.9,35716.1,1.5518,1.7604,145.6,97.0,0.518
1.32,32211.7,35446.6,0.859,1.0973,145.6,97.0,0.518
1.34,32148.3,35328.3,0.6026,0.8064,145.6,97.0,0.518
1.36,32100.3,35180.9,0.4083,0.4437,145.6,97.0,0.518
1.38,32115.0,35110.8,0.4677,0.2712,145.6,97.0,0.518
1.4,31939.3,35115.0,-0.2433,0.2816,145.6,97.0,0.518
1.42,32009.0,35044.9,0.0388,0.1091,145.6,97.0,0.518
1.44,31882.4,34860.7,-0.4733,-0.344,145.6,97.0,0.518
1.46,31895.8,34777.2,-0.4195,-0.5493,145.6,97.0,0.518
1.48,31841.8,34677.9,-0.6377,-0.7937,145.6,97.0,0.518
1.5,31921.3,34652.1,-0.3163,-0.8571,145.6,97.0,0.518
1.52,31746.8,34647.1,-1.0221,-0.8694,145.6,97.0,0.518
1.54,31911.7,34645.0,-0.3551,-0.8746,145.6,97.0,0.518
1.56,31754.1,34536.2,-0.9927,-1.1422,145.6,97.0,0.518
1.58,31853.3,34475.0,-0.5912,-1.2929,145.6,97.0,0.518
1.6,31704.3,34460.8,-1.1941,-1.3278,145.6,97.0,0.518
1.62,31772.9,34572.1,-0.9168,-1.0539,145.6,97.0,0.518
1.64,31975.1,34983.5,-0.0983,-0.0418,145.6,97.0,0.518
1.66,32217.6,35335.6,0.8831,0.8243,145.6,97.0,0.518
1.68,32306.8,35666.0,1.2441,1.6372,145.6,97.0,0.518
1.7,32355.6,35767.9,1.4413,1.888,145.6,97.0,0.518
1.72,32236.0,35666.0,0.9575,1.6372,145.6,97.0,0.518
1.74,32214.9,35469.3,0.8722,1.1532,145.6,97.0,0.518
1.76,32118.6,35189.0,0.4824,0.4638,145.6,97.0,0.518
1.78,32134.7,35106.0,0.5476,0.2594,145.6,97.0,0.518
1.8,32070.1,35079.8,0.2862,0.1951,145.6,97.0,0.518
1.82,32066.4,35077.6,0.2713,0.1897,145.6,97.0,0.518
1.84,31975.8,34944.9,-0.0957,-0.1369,145.6,97.0,0.518
1.86,31953.7,34849.3,-0.1848,-0.3719,145.6,97.0,0.518
1.88,31849.4,34770.5,-0.6073,-0.5658,145.6,97.0,0.518
1.9,31842.0,34592.9,-0.6371,-1.0029,145.6,97.0,0.518
1.92,31839.6,34648.0,-0.6465,-0.8672,145.6,97.0,0.518
1.94,31817.4,34765.1,-0.7364,-0.5791,145.6,97.0,0.518
1.96,31780.8,34580.2,-0.8847,-1.0341,145.6,97.0,0.518
1.98,31740.3,34510.3,-1.0484,-1.206,145.6,97.0,0.518
2.0,31828.5,34471.7,-0.6915,-1.3009,145.6,97.0,0.518
2.02,31691.8,34435.1,-1.245,-1.3909,145.6,97.0,0.518
2.04,31797.9,34759.5,-0.8156,-0.5929,145.6,97.0,0.518
2.06,32041.8,35186.4,0.1716,0.4573,145.6,97.0,0.518
2.08,32240.0,35475.6,0.9735,1.1687,145.6,97.0,0.518
2.1,32395.9,35696.2,1.6044,1.7114,145.6,97.0,0.518
2.12,32419.3,35753.4,1.6993,1.8522,145.6,97.0,0.518
2.14,32312.8,35557.1,1.2683,1.3692,145.6,97.0,0.518
2.16,32225.6,35361.2,0.9154,0.8874,145.6,97.0,0.518
2.18,32141.7,35269.4,0.576,0.6615,145.6,97.0,0.518
2.2,32070.1,35130.0,0.286,0.3186,145.6,97.0,0.518
2.22,32028.7,35071.7,0.1187,0.1751,145.6,97.0,0.518
2.24,32026.3,35024.2,0.1087,0.0582,145.6,97.0,0.518
2.26,31956.5,34889.2,-0.1735,-0.2739,145.6,97.0,0.518
2.28,31833.9,34915.5,-0.6698,-0.2091,145.6,97.0,0.518
2.3,31847.4,34743.1,-0.6152,-0.6332,145.6,97.0,0.518
2.32,31855.9,34684.0,-0.5808,-0.7787,145.6,97.0,0.518
2.34,31874.1,34687.6,-0.5071,-0.7699,145.6,97.0,0.518
2.36,31850.6,34572.3,-0.6023,-1.0534,145.6,97.0,0.518
2.38,31824.1,34596.1,-0.7096,-0.9949,145.6,97.0,0.518
2.4,31785.2,34475.7,-0.8669,-1.2912,145.6,97.0,0.518
2.42,31685.0,34515.9,-1.2725,-1.1922,145.6,97.0,0.518
2.44,31846.5,34585.0,-0.6189,-1.0222,145.6,97.0,0.518
2.46,32016.5,34911.6,0.0691,-0.2188,145.6,97.0,0.518
2.48,32174.7,35374.7,0.7095,0.9206,145.6,97.0,0.518
2.5,32319.8,35608.4,1.2966,1.4954,145.6,97.0,0.518
2.52,32350.6,35826.3,1.4211,2.0316,145.6,97.0,0.518
2.54,32305.5,35630.6,1.2388,1.5502,145.6,97.0,0.518
2.56,32250.0,35436.0,1.0143,1.0714,145.6,97.0,0.518
2.58,32249.6,35263.2,1.0125,0.6464,145.6,97.0,0.518
2.6,32100.5,35137.3,0.4092,0.3365,145.6,97.0,0.518
2.62,31959.0,35079.1,-0.1634,0.1934,145.6,97.0,0.518
2.64,32045.4,35104.2,0.186,0.2551,145.6,97.0,0.518
2.66,31972.7,34941.5,-0.1082,-0.1452,145.6,97.0,0.518
2.68,31887.7,34877.1,-0.452,-0.3036,145.6,97.0,0.518
2.7,31864.9,34810.6,-0.5444,-0.4671,145.6,97.0,0.518
2.72,31862.2,34647.1,-0.5551,-0.8693,145.6,97.0,0.518
2.74,31881.7,34725.3,-0.4763,-0.6771,145.6,97.0,0.518
2.76,31829.6,34631.3,-0.687,-0.9084,145.6,97.0,0.518
2.78,31737.1,34529.2,-1.0616,-1.1594,145.6,97.0,0.518
2.8,31812.2,34514.0,-0.7578,-1.1968,145.6,97.0,0.518
2.82,31737.1,34514.8,-1.0615,-1.1949,145.6,97.0,0.518
2.84,31800.3,34515.2,-0.8058,-1.1939,145.6,97.0,0.518
2.86,31941.8,34638.2,-0.2331,-0.8914,145.6,97.0,0.518
2.88,31985.9,35043.7,-0.0548,0.1062,145.6,97.0,0.518
2.9,32202.7,35348.6,0.8228,0.8564,145.6,97.0,0.518
2.92,32324.7,35618.1,1.3163,1.5194,145.6,97.0,0.518
2.94,32311.1,35777.0,1.2614,1.9104,145.6,97.0,0.518
2.96,32272.4,35664.7,1.1048,1.634,145.6,97.0,0.518
2.98,32219.5,35482.3,0.8908,1.1853,145.6,97.0,0.518
3.0,32090.6,35280.8,0.3691,0.6897,145.6,97.0,0.518
3.02,32074.6,35141.8,0.3042,0.3477,145.6,97.0,0.518
3.04,32018.9,35139.7,0.0788,0.3424,145.6,97.0,0.518
3.06,32009.2,35140.7,0.0397,0.3448,145.6,97.0,0.518
3.08,31980.4,34887.4,-0.0771,-0.2782,145.6,97.0,0.518
3.1,31913.5,34874.4,-0.3475,-0.3101,145.6,97.0,0.518
3.12,31853.6,34681.4,-0.5902,-0.785,145.6,97.0,0.518
3.14,31831.2,34748.2,-0.6808,-0.6208,145.6,97.0,0.518
3.16,31929.6,34643.3,-0.2826,-0.8789,145.6,97.0,0.518
3.18,31798.3,34650.5,-0.8138,-0.8612,145.6,97.0,0.518
3.2,31857.1,34580.9,-0.5758,-1.0324,145.6,97.0,0.518
3.22,31776.3,34471.0,-0.9029,-1.3027,145.6,97.0,0.518
3.24,31704.5,34427.7,-1.1934,-1.4091,145.6,97.0,0.518
3.26,31761.3,34601.2,-0.9638,-0.9824,145.6,97.0,0.518
3.28,31914.9,34927.4,-0.3418,-0.1799,145.6,97.0,0.518
3.3,32260.1,35257.4,1.055,0.6319,145.6,97.0,0.518
3.32,32281.2,35622.1,1.1405,1.5292,145.6,97.0,0.518
3.34,32267.2,35716.1,1.0836,1.7606,145.6,97.0,0.518
3.36,32371.1,35687.5,1.5042,1.6901,145.6,97.0,0.518
3.38,32347.4,35573.4,1.4081,1.4093,145.6,97.0,0.518
3.4,32235.4,35408.1,0.955,1.0028,145.6,97.0,0.518
3.42,32069.9,35243.2,0.2854,0.5971,145.6,97.0,0.518
3.44,32107.5,35093.9,0.4374,0.2296,145.6,97.0,0.518
3.46,32046.4,35069.4,0.1903,0.1694,145.6,97.0,0.518
3.48,31995.6,35006.0,-0.0154,0.0134,145.6,97.0,0.518
3.5,31901.8,34922.2,-0.3949,-0.1927,145.6,97.0,0.518
3.52,31858.2,34709.9,-0.5714,-0.715,145.6,97.0,0.518
3.54,31881.9,34565.5,-0.4753,-1.0702,145.6,97.0,0.518
3.56,31830.2,34691.1,-0.6848,-0.7611,145.6,97.0,0.518
3.58,31787.9,34586.8,-0.8561,-1.0177,145.6,97.0,0.518
3.6,31771.1,34657.5,-0.924,-0.8438,145.6,97.0,0.518
3.62,31872.8,34579.3,-0.5124,-1.0363,145.6,97.0,0.518
3.64,31717.9,34484.4,-1.1392,-1.2697,145.6,97.0,0.518
3.66,31804.7,34493.9,-0.7879,-1.2465,145.6,97.0,0.518
3.68,31914.2,34696.7,-0.3449,-0.7475,145.6,97.0,0.518
3.7,32061.0,34988.7,0.2494,-0.029,145.6,97.0,0.518
3.72,32153.7,35415.0,0.6243,1.0198,145.6,97.0,0.518
3.74,32440.2,35635.4,1.7838,1.562,145.6,97.0,0.518
3.76,32305.0,35706.1,1.2367,1.7358,145.6,97.0,0.518
3.78,32255.4,35615.4,1.036,1.5128,145.6,97.0,0.518
3.8,32232.4,35443.3,0.9429,1.0893,145.6,97.0,0.518
3.82,32114.6,35222.3,0.4662,0.5456,145.6,97.0,0.518
3.84,32079.6,35239.4,0.3247,0.5878,145.6,97.0,0.518
3.86,32102.8,35036.4,0.4183,0.0884,145.6,97.0,0.518
3.88,31947.2,35033.1,-0.2115,0.0801,145.6,97.0,0.518
3.9,31902.8,35005.4,-0.391,0.012,145.6,97.0,0.518
3.92,31906.7,34870.6,-0.375,-0.3196,145.6,97.0,0.518
3.94,31869.3,34744.5,-0.5267,-0.6298,145.6,97.0,0.518
3.96,31808.3,34708.0,-0.7733,-0.7196,145.6,97.0,0.518
3.98,31900.9,34611.8,-0.3988,-0.9563,145.6,97.0,0.518
4.0,31866.6,34591.2,-0.5373,-1.0069,145.6,97.0,0.518
4.02,31769.5,34514.4,-0.9304,-1.196,145.6,97.0,0.518
4.04,31826.8,34476.4,-0.6987,-1.2894,145.6,97.0,0.518
4.06,31775.9,34515.0,-0.9047,-1.1945,145.6,97.0,0.518
4.08,31733.3,34590.6,-1.077,-1.0085,145.6,97.0,0.518
4.1,31941.1,34682.9,-0.236,-0.7815,145.6,97.0,0.518
4.12,32007.2,35186.5,0.0317,0.4576,145.6,97.0,0.518
4.14,32300.4,35471.7,1.2181,1.1591,145.6,97.0,0.518
4.16,32394.7,35656.2,1.5997,1.6132,145.6,97.0,0.518
4.18,32324.0,35757.0,1.3136,1.861,145.6,97.0,0.518
4.2,32231.0,35578.7,0.9371,1.4225,145.6,97.0,0.518
4.22,32284.4,35500.6,1.1533,1.2302,145.6,97.0,0.518
4.24,32138.2,35150.9,0.5615,0.3699,145.6,97.0,0.518
4.26,32100.9,35152.8,0.4107,0.3745,145.6,97.0,0.518
4.28,31982.3,35138.7,-0.0692,0.3399,145.6,97.0,0.518
4.3,31962.8,35031.7,-0.148,0.0767,145.6,97.0,0.518
4.32,32049.0,34852.4,0.2009,-0.3644,145.6,97.0,0.518
4.34,31933.6,34820.8,-0.2663,-0.442,145.6,97.0,0.518
4.36,31843.1,34680.8,-0.6324,-0.7864,145.6,97.0,0.518
4.38,31814.6,34768.9,-0.748,-0.5697,145.6,97.0,0.518
4.4,31824.7,34716.1,-0.7069,-0.6996,145.6,97.0,0.518
4.42,31799.4,34474.6,-0.8096,-1.2937,145.6,97.0,0.518
4.44,31670.6,34525.3,-1.3307,-1.1691,145.6,97.0,0.518
4.46,31759.9,34469.1,-0.9693,-1.3074,145.6,97.0,0.518
4.48,31819.4,34511.0,-0.7284,-1.2043,145.6,97.0,0.518
4.5,31823.7,34665.1,-0.7112,-0.8251,145.6,97.0,0.518
4.52,32002.1,34882.7,0.011,-0.2898,145.6,97.0,0.518
4.54,32062.5,35288.5,0.2554,0.7086,145.6,97.0,0.518
4.56,32267.9,35605.7,1.0867,1.4888,145.6,97.0,0.518
4.58,32319.5,35738.4,1.2955,1.8153,145.6,97.0,0.518
4.6,32340.0,35715.1,1.3782,1.7581,145.6,97.0,0.518
4.62,32215.5,35509.1,0.8747,1.2513,145.6,97.0,0.518
4.64,32111.1,35335.9,0.4521,0.8251,145.6,97.0,0.518
4.66,32177.1,35221.8,0.7192,0.5445,145.6,97.0,0.518
4.68,32076.9,34980.9,0.3135,-0.0483,145.6,97.0,0.518
4.7,31997.7,35072.8,-0.0071,0.1779,145.6,97.0,0.518
4.72,31970.6,35045.1,-0.1166,0.1098,145.6,97.0,0.518
4.74,31811.1,34961.4,-0.7621,-0.0963,145.6,97.0,0.518
4.76,31918.5,34649.5,-0.3272,-0.8635,145.6,97.0,0.518
4.78,31870.0,34659.1,-0.5237,-0.84,145.6,97.0,0.518
4.8,31845.6,34672.7,-0.6225,-0.8065,145.6,97.0,0.518
4.82,31820.3,34664.5,-0.725,-0.8267,145.6,97.0,0.518
4.84,31773.0,34632.6,-0.9162,-0.9052,145.6,97.0,0.518
4.86,31726.0,34518.8,-1.1066,-1.1851,145.6,97.0,0.518
4.88,31797.1,34442.8,-0.8188,-1.372,145.6,97.0,0.518
4.9,31815.5,34482.1,-0.7444,-1.2755,145.6,97.0,0.518
4.92,31887.7,34755.0,-0.4519,-0.604,145.6,97.0,0.518
4.94,32088.5,35117.1,0.3607,0.2868,145.6,97.0,0.518
4.96,32246.0,35493.6,0.9981,1.2132,145.6,97.0,0.518
4.98,32384.7,35615.6,1.5591,1.5132,145.6,97.0,0.518
5.0,32313.7,35816.5,1.272,2.0075,145.6,97.0,0.518
5.02,32350.6,35579.1,1.4212,1.4235,145.6,97.0,0.518
5.04,32199.2,35344.4,0.8085,0.846,145.6,97.0,0.518
5.06,32131.1,35264.1,0.5331,0.6485,145.6,97.0,0.518
5.08,31961.4,35243.6,-0.1539,0.598,145.6,97.0,0.518
5.1,32059.1,35078.5,0.2418,0.1918,145.6,97.0,0.518
5.12,31964.4,35102.6,-0.1416,0.2512,145.6,97.0,0.518
5.14,32038.1,34916.3,0.1565,-0.2073,145.6,97.0,0.518
5.16,31948.7,34774.1,-0.2052,-0.5571,145.6,97.0,0.518
5.18,31908.3,34662.4,-0.3686,-0.8318,145.6,97.0,0.518
5.2,31973.4,34688.6,-0.1051,-0.7673,145.6,97.0,0.518
5.22,31897.6,34679.2,-0.4122,-0.7904,145.6,97.0,0.518
5.24,31856.0,34660.6,-0.5805,-0.8361,145.6,97.0,0.518
5.26,31766.4,34713.3,-0.9431,-0.7066,145.6,97.0,0.518
5.28,31738.3,34438.6,-1.0566,-1.3824,145.6,97.0,0.518
5.3,31773.6,34433.0,-0.9139,-1.3962,145.6,97.0,0.518
5.32,31777.5,34573.7,-0.8979,-1.05,145.6,97.0,0.518
5.34,31878.9,34820.9,-0.4879,-0.4419,145.6,97.0,0.518
5.36,32131.5,35185.8,0.5348,0.4558,145.6,97.0,0.518
5.38,32272.5,35525.2,1.1051,1.2909,145.6,97.0,0.518
5.4,32342.5,35686.7,1.3883,1.6881,145.6,97.0,0.518
5.42,32359.6,35644.2,1.4576,1.5836,145.6,97.0,0.518
5.44,32238.6,35587.1,0.9681,1.443,145.6,97.0,0.518
5.46,32257.6,35329.3,1.0447,0.8088,145.6,97.0,0.518
5.48,32038.9,35122.1,0.16,0.2991,145.6,97.0,0.518
5.5,32064.5,35156.8,0.2635,0.3846,145.6,97.0,0.518
5.52,32064.8,35131.8,0.2648,0.3229,145.6,97.0,0.518
5.54,32058.7,34930.4,0.2398,-0.1725,145.6,97.0,0.518
5.56,31928.8,34853.7,-0.2856,-0.3613,145.6,97.0,0.518
5.58,31874.9,34868.8,-0.5037,-0.324,145.6,97.0,0.518
5.6,31796.7,34677.3,-0.8203,-0.7951,145.6,97.0,0.518
5.62,31856.0,34632.9,-0.5805,-0.9044,145.6,97.0,0.518
5.64,31891.7,34645.7,-0.4358,-0.8729,145.6,97.0,0.518
5.66,31802.2,34524.2,-0.7979,-1.1717,145.6,97.0,0.518
5.68,31729.6,34556.3,-1.092,-1.0929,145.6,97.0,0.518
5.7,31785.4,34424.5,-0.8661,-1.4171,145.6,97.0,0.518
5.72,31755.2,34462.0,-0.9882,-1.3248,145.6,97.0,0.518
5.74,31972.5,34753.8,-0.1091,-0.6069,145.6,97.0,0.518
5.76,32074.3,35013.2,0.303,0.0311,145.6,97.0,0.518
5.78,32159.9,35413.0,0.6497,1.0147,145.6,97.0,0.518
5.8,32311.3,35784.9,1.2621,1.9298,145.6,97.0,0.518
5.82,32348.6,35769.2,1.413,1.8911,145.6,97.0,0.518
5.84,32312.8,35572.7,1.2682,1.4076,145.6,97.0,0.518
5.86,32286.5,35461.8,1.1619,1.1349,145.6,97.0,0.518
5.88,32146.6,35339.4,0.5956,0.8337,145.6,97.0,0.518
5.9,32097.6,35162.6,0.3974,0.3987,145.6,97.0,0.518
5.92,32018.8,35033.0,0.0784,0.0799,145.6,97.0,0.518
5.94,32010.1,35139.1,0.0434,0.341,145.6,97.0,0.518
5.96,31956.9,34940.3,-0.1719,-0.148,145.6,97.0,0.518
5.98,31964.6,34774.6,-0.1408,-0.5558,145.6,97.0,0.518
6.0,31927.9,34671.8,-0.2894,-0.8087,145.6,97.0,0.518
6.02,31848.7,34714.3,-0.61,-0.7042,145.6,97.0,0.518
6.04,31920.5,34650.9,-0.3195,-0.8601,145.6,97.0,0.518
6.06,31837.2,34615.1,-0.6563,-0.9481,145.6,97.0,0.518
6.08,31907.4,34621.1,-0.3724,-0.9334,145.6,97.0,0.518
6.1,31821.3,34571.6,-0.7207,-1.0552,145.6,97.0,0.518
6.12,31808.0,34478.9,-0.7746,-1.2833,145.6,97.0,0.518
6.14,31714.7,34539.6,-1.1522,-1.134,145.6,97.0,0.518
6.16,31855.8,34914.8,-0.5811,-0.2109,145.6,97.0,0.518
6.18,31998.8,35069.3,-0.0024,0.1692,145.6,97.0,0.518
6.2,32393.5,35502.1,1.5948,1.2341,145.6,97.0,0.518
6.22,32386.4,35656.2,1.5662,1.613,145.6,97.0,0.518
6.24,32387.9,35817.0,1.572,2.0086,145.6,97.0,0.518
6.26,32296.8,35628.3,1.2037,1.5443,145.6,97.0,0.518
6.28,32199.4,35387.8,0.8091,0.9528,145.6,97.0,0.518
6.3,32065.6,35231.1,0.2678,0.5673,145.6,97.0,0.518
6.32,32092.1,35014.0,0.3751,0.0332,145.6,97.0,0.518
6.34,31935.8,35118.1,-0.2574,0.2893,145.6,97.0,0.518
6.36,32019.1,35046.9,0.0796,0.1142,145.6,97.0,0.518
6.38,31951.1,34817.6,-0.1957,-0.4501,145.6,97.0,0.518
6.4,31919.7,34815.3,-0.3227,-0.4557,145.6,97.0,0.518
6.42,31917.0,34752.1,-0.3335,-0.611,145.6,97.0,0.518
6.44,31809.0,34714.7,-0.7707,-0.7032,145.6,97.0,0.518
6.46,31851.4,34693.8,-0.599,-0.7546,145.6,97.0,0.518
6.48,31735.1,34656.7,-1.0695,-0.8458,145.6,97.0,0.518
6.5,31710.6,34556.0,-1.1689,-1.0936,145.6,97.0,0.518
6.52,31794.0,34534.9,-0.8313,-1.1455,145.6,97.0,0.518
6.54,31714.2,34463.3,-1.1541,-1.3216,145.6,97.0,0.518
6.56,31815.3,34573.5,-0.745,-1.0506,145.6,97.0,0.518
6.58,31998.9,34881.4,-0.0022,-0.2931,145.6,97.0,0.518
6.6,32176.1,35319.5,0.7152,0.7848,145.6,97.0,0.518
6.62,32349.7,35666.1,1.4176,1.6374,145.6,97.0,0.518
6.64,32313.9,35727.6,1.2728,1.7886,145.6,97.0,0.518
6.66,32331.3,35701.2,1.3431,1.7237,145.6,97.0,0.518
6.68,32303.3,35539.1,1.23,1.325,145.6,97.0,0.518
6.7,32115.8,35215.7,0.4711,0.5295,145.6,97.0,0.518
6.72,32043.0,35156.5,0.1766,0.3838,145.6,97.0,0.518
6.74,32007.9,35055.0,0.0344,0.1341,145.6,97.0,0.518
6.76,32023.0,35140.7,0.0956,0.345,145.6,97.0,0.518
6.78,31983.0,34986.7,-0.0666,-0.034,145.6,97.0,0.518
6.8,31899.7,34859.9,-0.4034,-0.346,145.6,97.0,0.518
6.82,31863.7,34712.7,-0.5493,-0.708,145.6,97.0,0.518
6.84,31888.6,34689.0,-0.4485,-0.7663,145.6,97.0,0.518
6.86,31781.1,34671.1,-0.8836,-0.8103,145.6,97.0,0.518
6.88,31874.8,34658.8,-0.5044,-0.8406,145.6,97.0,0.518
6.9,31845.7,34626.6,-0.6219,-0.9198,145.6,97.0,0.518
6.92,31773.8,34421.8,-0.9129,-1.4237,145.6,97.0,0.518
6.94,31730.7,34490.0,-1.0875,-1.256,145.6,97.0,0.518
6.96,31852.3,34439.1,-0.5954,-1.381,145.6,97.0,0.518
6.98,31850.9,34827.5,-0.6009,-0.4257,145.6,97.0,0.518
7.0,32062.2,35066.2,0.254,0.1616,145.6,97.0,0.518
7.02,32178.4,35477.9,0.7243,1.1745,145.6,97.0,0.518
7.04,32353.0,35675.3,1.4309,1.66,145.6,97.0,0.518
7.06,32425.4,35869.1,1.7238,2.1368,145.6,97.0,0.518
7.08,32317.3,35655.1,1.2867,1.6103,145.6,97.0,0.518
7.1,32245.9,35420.0,0.9977,1.0319,145.6,97.0,0.518
7.12,32156.0,35285.0,0.6336,0.6998,145.6,97.0,0.518
7.14,32110.9,35177.8,0.4513,0.4362,145.6,97.0,0.518
7.16,32158.1,35114.4,0.6421,0.2802,145.6,97.0,0.518
7.18,31978.4,35072.3,-0.0849,0.1765,145.6,97.0,0.518
7.2,31947.7,34977.5,-0.2091,-0.0567,145.6,97.0,0.518
7.22,31943.8,34790.0,-0.2249,-0.5179,145.6,97.0,0.518
7.24,31876.1,34744.3,-0.4989,-0.6303,145.6,97.0,0.518
7.26,31788.6,34714.2,-0.8529,-0.7043,145.6,97.0,0.518
7.28,31744.7,34601.0,-1.0306,-0.9829,145.6,97.0,0.518
7.3,31786.2,34664.8,-0.8628,-0.8259,145.6,97.0,0.518
7.32,31830.1,34611.8,-0.6852,-0.9563,145.6,97.0,0.518
7.34,31806.0,34453.6,-0.7829,-1.3455,145.6,97.0,0.518
7.36,31662.0,34300.1,-1.3656,-1.7231,145.6,97.0,0.518
7.38,31750.3,34476.0,-1.0082,-1.2905,145.6,97.0,0.518
7.4,31989.8,34849.1,-0.039,-0.3724,145.6,97.0,0.518
7.42,32067.3,35256.3,0.2748,0.6292,145.6,97.0,0.518
7.44,32202.1,35649.2,0.8202,1.5957,145.6,97.0,0.518
7.46,32361.2,35891.7,1.4642,2.1925,145.6,97.0,0.518
7.48,32439.6,35725.9,1.7813,1.7845,145.6,97.0,0.518
7.5,32233.3,35568.9,0.9463,1.3983,145.6,97.0,0.518
7.52,32083.1,35350.0,0.3389,0.8598,145.6,97.0,0.518
7.54,32045.7,35166.8,0.1874,0.409,145.6,97.0,0.518
7.56,32047.7,35085.5,0.1953,0.209,145.6,97.0,0.518
7.58,32019.9,35130.9,0.0829,0.3207,145.6,97.0,0.518
7.6,32004.7,34923.9,0.0213,-0.1885,145.6,97.0,0.518
7.62,32007.4,34857.4,0.0324,-0.3522,145.6,97.0,0.518
7.64,31883.1,34848.8,-0.4708,-0.3732,145.6,97.0,0.518
7.66,31899.1,34652.1,-0.4058,-0.8573,145.6,97.0,0.518
7.68,31880.5,34705.7,-0.4814,-0.7254,145.6,97.0,0.518
7.7,31814.0,34602.2,-0.7502,-0.98,145.6,97.0,0.518
7.72,31798.0,34658.7,-0.8152,-0.8409,145.6,97.0,0.518
7.74,31742.6,34553.4,-1.0392,-1.1,145.6,97.0,0.518
7.76,31765.3,34483.6,-0.9473,-1.2716,145.6,97.0,0.518
7.78,31749.1,34505.8,-1.0131,-1.217,145.6,97.0,0.518
7.8,31828.1,34660.7,-0.6931,-0.8361,145.6,97.0,0.518
7.82,32042.2,35044.4,0.1731,0.1081,145.6,97.0,0.518
7.84,32134.3,35323.9,0.5457,0.7956,145.6,97.0,0.518
7.86,32376.2,35693.6,1.5248,1.705,145.6,97.0,0.518
7.88,32407.7,35768.1,1.6522,1.8883,145.6,97.0,0.518
7.9,32336.4,35635.3,1.3636,1.5617,145.6,97.0,0.518
7.92,32087.7,35434.1,0.3572,1.0666,145.6,97.0,0.518
7.94,32183.3,35208.9,0.7443,0.5126,145.6,97.0,0.518
7.96,32032.8,35155.1,0.135,0.3803,145.6,97.0,0.518
7.98,32048.5,35065.1,0.1987,0.1588,145.6,97.0,0.518
8.0,31928.3,35018.4,-0.2879,0.044,145.6,97.0,0.518
8.02,32026.2,34952.3,0.1085,-0.1185,145.6,97.0,0.518
8.04,31983.1,34847.7,-0.0658,-0.3759,145.6,97.0,0.518
8.06,31909.0,34834.8,-0.3659,-0.4078,145.6,97.0,0.518
8.08,31819.2,34680.2,-0.7291,-0.788,145.6,97.0,0.518
8.1,31894.1,34659.2,-0.4262,-0.8396,145.6,97.0,0.518
8.12,31802.4,34662.8,-0.7971,-0.8308,145.6,97.0,0.518
8.14,31707.8,34570.2,-1.1802,-1.0586,145.6,97.0,0.518
8.16,31757.8,34469.6,-0.9777,-1.3062,145.6,97.0,0.518
8.18,31797.3,34459.0,-0.818,-1.3321,145.6,97.0,0.518
8.2,31758.9,34529.3,-0.9732,-1.1594,145.6,97.0,0.518
8.22,31907.4,34862.8,-0.3722,-0.3389,145.6,97.0,0.518
8.24,32053.4,35171.0,0.2187,0.4194,145.6,97.0,0.518
8.26,32193.1,35487.1,0.7839,1.1971,145.6,97.0,0.518
8.28,32348.7,35785.4,1.4137,1.931,145.6,97.0,0.518
8.3,32408.0,35715.6,1.6536,1.7593,145.6,97.0,0.518
8.32,32299.9,35668.6,1.216,1.6437,145.6,97.0,0.518
8.34,32286.6,35395.9,1.1624,0.9727,145.6,97.0,0.518
8.36,32137.3,35196.8,0.5582,0.4829,145.6,97.0,0.518
8.38,31997.1,35164.0,-0.0095,0.4021,145.6,97.0,0.518
8.4,32068.0,34910.8,0.2776,-0.2207,145.6,97.0,0.518
8.42,31977.2,35047.8,-0.0899,0.1163,145.6,97.0,0.518
8.44,31985.0,34928.7,-0.0583,-0.1766,145.6,97.0,0.518
8.46,31916.9,34791.5,-0.334,-0.5141,145.6,97.0,0.518
8.48,31943.4,34769.4,-0.2266,-0.5686,145.6,97.0,0.518
8.5,31883.5,34690.7,-0.4689,-0.7622,145.6,97.0,0.518
8.52,31875.8,34662.4,-0.5,-0.8319,145.6,97.0,0.518
8.54,31853.7,34678.2,-0.5896,-0.793,145.6,97.0,0.518
8.56,31845.9,34560.3,-0.6212,-1.083,145.6,97.0,0.518
8.58,31757.8,34486.7,-0.9778,-1.264,145.6,97.0,0.518
8.6,31861.5,34447.9,-0.558,-1.3595,145.6,97.0,0.518
8.62,31825.8,34634.5,-0.7027,-0.9004,145.6,97.0,0.518
8.64,31945.6,34932.6,-0.2177,-0.1671,145.6,97.0,0.518
8.66,32208.6,35257.8,0.8465,0.6329,145.6,97.0,0.518
8.68,32302.1,35659.0,1.2251,1.62,145.6,97.0,0.518
8.7,32357.1,35776.5,1.4475,1.909,145.6,97.0,0.518
8.72,32350.6,35670.6,1.4211,1.6485,145.6,97.0,0.518
8.74,32278.0,35496.8,1.1275,1.221,145.6,97.0,0.518
8.76,32255.2,35298.1,1.0353,0.732,145.6,97.0,0.518
8.78,32126.8,35177.7,0.5154,0.436,145.6,97.0,0.518
8.8,32010.7,35171.0,0.0459,0.4194,145.6,97.0,0.518
8.82,32020.1,35052.4,0.0838,0.1277,145.6,97.0,0.518
8.84,31958.0,35032.5,-0.1676,0.0786,145.6,97.0,0.518
8.86,31846.7,34897.8,-0.6181,-0.2527,145.6,97.0,0.518
8.88,31800.0,34775.3,-0.807,-0.554,145.6,97.0,0.518
8.9,31824.8,34773.5,-0.7066,-0.5585,145.6,97.0,0.518
8.92,31909.0,34636.4,-0.366,-0.8959,145.6,97.0,0.518
8.94,31756.0,34666.2,-0.9852,-0.8224,145.6,97.0,0.518
8.96,31810.0,34566.2,-0.7667,-1.0684,145.6,97.0,0.518
8.98,31854.2,34565.3,-0.5877,-1.0707,145.6,97.0,0.518
9.0,31743.2,34416.5,-1.0367,-1.4367,145.6,97.0,0.518
9.02,31708.9,34573.4,-1.1756,-1.0507,145.6,97.0,0.518
9.04,31845.9,34720.2,-0.6211,-0.6895,145.6,97.0,0.518
9.06,31912.2,35043.7,-0.353,0.1063,145.6,97.0,0.518
9.08,32252.6,35538.6,1.0248,1.3238,145.6,97.0,0.518
9.1,32324.1,35735.1,1.3141,1.8072,145.6,97.0,0.518
9.12,32417.3,35667.1,1.6913,1.6398,145.6,97.0,0.518
9.14,32280.3,35575.8,1.1368,1.4153,145.6,97.0,0.518
9.16,32227.2,35547.1,0.9218,1.3448,145.6,97.0,0.518
9.18,32117.1,35315.0,0.4761,0.7737,145.6,97.0,0.518
9.2,32068.3,35149.0,0.2787,0.3653,145.6,97.0,0.518
9.22,31978.8,34943.3,-0.0836,-0.1408,145.6,97.0,0.518
9.24,32013.5,34990.4,0.0572,-0.0249,145.6,97.0,0.518
9.26,31928.7,34946.9,-0.2862,-0.1319,145.6,97.0,0.518
9.28,31827.4,34920.2,-0.6963,-0.1976,145.6,97.0,0.518
9.3,31826.1,34784.0,-0.7014,-0.5326,145.6,97.0,0.518
9.32,31897.1,34677.4,-0.4139,-0.7949,145.6,97.0,0.518
9.34,31857.6,34676.7,-0.5741,-0.7966,145.6,97.0,0.518
9.36,31768.1,34729.7,-0.9359,-0.6663,145.6,97.0,0.518
9.38,31827.7,34545.8,-0.695,-1.1186,145.6,97.0,0.518
9.4,31816.8,34402.9,-0.7388,-1.4701,145.6,97.0,0.518
9.42,31707.4,34415.5,-1.1815,-1.4392,145.6,97.0,0.518
9.44,31789.8,34524.3,-0.8481,-1.1715,145.6,97.0,0.518
9.46,31954.3,34880.9,-0.1826,-0.2943,145.6,97.0,0.518
9.48,32045.8,35209.0,0.1878,0.513,145.6,97.0,0.518
9.5,32247.2,35615.1,1.0027,1.512,145.6,97.0,0.518
9.52,32340.2,35767.7,1.3791,1.8874,145.6,97.0,0.518
9.54,32416.6,35689.0,1.6885,1.6937,145.6,97.0,0.518
9.56,32314.6,35578.1,1.2755,1.4209,145.6,97.0,0.518
9.58,32111.7,35349.8,0.4545,0.8592,145.6,97.0,0.518
9.6,32170.0,35244.1,0.6905,0.5993,145.6,97.0,0.518
9.62,32037.1,35129.6,0.1524,0.3175,145.6,97.0,0.518
9.64,32031.8,35109.0,0.1312,0.2668,145.6,97.0,0.518
9.66,31995.9,34953.6,-0.0141,-0.1154,145.6,97.0,0.518
9.68,32000.1,34918.1,0.0027,-0.2028,145.6,97.0,0.518
9.7,31817.0,34796.9,-0.738,-0.501,145.6,97.0,0.518
9.72,31771.1,34809.1,-0.9239,-0.4709,145.6,97.0,0.518
9.74,31807.6,34683.6,-0.7761,-0.7797,145.6,97.0,0.518
9.76,31761.5,34558.8,-0.963,-1.0866,145.6,97.0,0.518
9.78,31906.4,34540.1,-0.3764,-1.1328,145.6,97.0,0.518
9.8,31695.1,34574.9,-1.2315,-1.0471,145.6,97.0,0.518
9.82,31720.5,34418.4,-1.1286,-1.4321,145.6,97.0,0.518
9.84,31750.6,34472.7,-1.007,-1.2984,145.6,97.0,0.518
9.86,31866.3,34681.9,-0.5386,-0.7838,145.6,97.0,0.518
9.88,31950.0,35007.5,-0.2001,0.0172,145.6,97.0,0.518
9.9,32156.5,35384.2,0.6356,0.944,145.6,97.0,0.518
9.92,32258.2,35708.2,1.0473,1.7411,145.6,97.0,0.518
9.94,32412.8,35789.6,1.6729,1.9413,145.6,97.0,0.518
9.96,32429.3,35676.9,1.7398,1.6639,145.6,97.0,0.518
9.98,32392.7,35441.5,1.5917,1.0848,145.6,97.0,0.518
10.0,32108.0,35223.6,0.4394,0.5487,145.6,97.0,0.518
10.02,32008.9,35155.6,0.0382,0.3815,145.6,97.0,0.518
10.04,31972.2,35117.2,-0.11,0.287,145.6,97.0,0.518
10.06,32114.3,35063.4,0.4648,0.1548,145.6,97.0,0.518
10.08,31964.4,34927.5,-0.1415,-0.1797,145.6,97.0,0.518
10.1,31915.2,34904.0,-0.3407,-0.2373,145.6,97.0,0.518
10.12,31853.6,34780.4,-0.5899,-0.5414,145.6,97.0,0.518
10.14,31909.3,34739.3,-0.3647,-0.6427,145.6,97.0,0.518
10.16,31830.9,34689.1,-0.6821,-0.766,145.6,97.0,0.518
10.18,31959.8,34623.7,-0.1605,-0.9271,145.6,97.0,0.518
10.2,31822.8,34576.5,-0.7147,-1.0432,145.6,97.0,0.518
10.22,31712.0,34566.8,-1.163,-1.067,145.6,97.0,0.518
10.24,31761.9,34472.8,-0.9613,-1.2982,145.6,97.0,0.518
10.26,31797.6,34526.0,-0.8168,-1.1673,145.6,97.0,0.518
10.28,31935.7,34765.1,-0.2579,-0.5791,145.6,97.0,0.518
10.3,32083.5,35183.2,0.3404,0.4494,145.6,97.0,0.518
10.32,32340.4,35402.6,1.38,0.9891,145.6,97.0,0.518
10.34,32226.5,35730.7,0.9191,1.7962,145.6,97.0,0.518
10.36,32280.5,35734.3,1.1376,1.8052,145.6,97.0,0.518
10.38,32297.7,35586.5,1.2072,1.4417,145.6,97.0,0.518
10.4,32185.2,35413.9,0.7517,1.0169,145.6,97.0,0.518
10.42,32160.6,35257.1,0.6523,0.6313,145.6,97.0,0.518
10.44,32074.1,35091.6,0.3024,0.2241,145.6,97.0,0.518
10.46,32071.4,35011.2,0.2912,0.0262,145.6,97.0,0.518
10.48,31989.6,35009.2,-0.0398,0.0214,145.6,97.0,0.518
10.5,31990.2,34911.8,-0.0375,-0.2182,145.6,97.0,0.518
10.52,31855.1,34755.5,-0.5841,-0.6027,145.6,97.0,0.518
10.54,31872.5,34707.9,-0.5135,-0.7199,145.6,97.0,0.518
10.56,31792.0,34780.9,-0.8394,-0.5402,145.6,97.0,0.518
10.58,31816.1,34606.3,-0.7417,-0.9699,145.6,97.0,0.518
10.6,31930.8,34662.2,-0.2777,-0.8323,145.6,97.0,0.518
10.62,31718.0,34445.0,-1.1387,-1.3667,145.6,97.0,0.518
10.64,31742.9,34526.9,-1.0382,-1.1653,145.6,97.0,0.518
10.66,31820.1,34486.2,-0.7258,-1.2652,145.6,97.0,0.518
10.68,31866.9,34568.4,-0.5363,-1.063,145.6,97.0,0.518
10.7,31915.0,34834.3,-0.3417,-0.4089,145.6,97.0,0.518
10.72,32194.7,35257.9,0.7903,0.6332,145.6,97.0,0.518
10.74,32290.0,35594.0,1.1758,1.46,145.6,97.0,0.518
10.76,32289.5,35757.2,1.1738,1.8616,145.6,97.0,0.518
10.78,32406.8,35715.7,1.6487,1.7595,145.6,97.0,0.518
10.8,32256.7,35530.0,1.0414,1.3026,145.6,97.0,0.518
10.82,32152.7,35269.6,0.6203,0.662,145.6,97.0,0.518
10.84,32035.7,35186.0,0.1468,0.4564,145.6,97.0,0.518
10.86,32020.2,35012.7,0.084,0.03,145.6,97.0,0.518
10.88,32053.0,35033.6,0.2169,0.0815,145.6,97.0,0.518
10.9,32099.6,34941.0,0.4056,-0.1465,145.6,97.0,0.518
10.92,31919.0,34815.3,-0.3255,-0.4557,145.6,97.0,0.518
10.94,31909.3,34750.5,-0.3648,-0.615,145.6,97.0,0.518
10.96,31847.6,34742.6,-0.6142,-0.6346,145.6,97.0,0.518
10.98,31860.9,34609.6,-0.5607,-0.9618,145.6,97.0,0.518
11.0,31865.9,34629.6,-0.5403,-0.9126,145.6,97.0,0.518
11.02,31847.1,34573.1,-0.6165,-1.0514,145.6,97.0,0.518
11.04,31709.2,34499.3,-1.1744,-1.233,145.6,97.0,0.518
11.06,31685.9,34422.0,-1.2689,-1.4232,145.6,97.0,0.518
11.08,31782.3,34461.9,-0.8786,-1.3251,145.6,97.0,0.518
11.1,31939.9,34811.3,-0.2407,-0.4656,145.6,97.0,0.518
11.12,32060.8,35086.3,0.2484,0.2111,145.6,97.0,0.518
11.14,32233.4,35315.9,0.9471,0.776,145.6,97.0,0.518
11.16,32314.1,35788.3,1.2734,1.9381,145.6,97.0,0.518
11.18,32268.2,35749.2,1.0877,1.8418,145.6,97.0,0.518
11.2,32251.7,35769.9,1.0211,1.8927,145.6,97.0,0.518
11.22,32245.4,35456.4,0.9956,1.1216,145.6,97.0,0.518
11.24,32144.1,35209.6,0.5854,0.5145,145.6,97.0,0.518
11.26,32048.5,35145.3,0.1986,0.3561,145.6,97.0,0.518
11.28,32077.3,35193.4,0.3153,0.4745,145.6,97.0,0.518
11.3,32029.0,34948.3,0.1199,-0.1285,145.6,97.0,0.518
11.32,31995.7,35016.4,-0.0151,0.0392,145.6,97.0,0.518
11.34,31925.4,34856.0,-0.2995,-0.3555,145.6,97.0,0.518
11.36,31852.0,34672.6,-0.5966,-0.8066,145.6,97.0,0.518
11.38,31806.0,34734.1,-0.7826,-0.6554,145.6,97.0,0.518
11.4,31822.8,34727.0,-0.7149,-0.6729,145.6,97.0,0.518
11.42,31739.9,34571.9,-1.0504,-1.0544,145.6,97.0,0.518
11.44,31804.6,34565.6,-0.7883,-1.0699,145.6,97.0,0.518
11.46,31708.6,34561.6,-1.177,-1.0798,145.6,97.0,0.518
11.48,31750.4,34419.6,-1.0078,-1.4291,145.6,97.0,0.518
11.5,31817.7,34603.9,-0.7353,-0.9758,145.6,97.0,0.518
11.52,31900.1,34997.0,-0.4018,-0.0086,145.6,97.0,0.518
11.54,32159.0,35251.4,0.6456,0.6172,145.6,97.0,0.518
11.56,32365.8,35596.4,1.4826,1.4659,145.6,97.0,0.518
11.58,32370.8,35700.2,1.503,1.7213,145.6,97.0,0.518
11.6,32337.6,35766.4,1.3688,1.8842,145.6,97.0,0.518
11.62,32210.7,35436.5,0.8552,1.0726,145.6,97.0,0.518
11.64,32101.6,35338.9,0.4137,0.8326,145.6,97.0,0.518
11.66,32113.1,35111.6,0.46,0.2732,145.6,97.0,0.518
11.68,32035.7,35137.1,0.1468,0.336,145.6,97.0,0.518
11.7,32076.1,34977.1,0.3104,-0.0577,145.6,97.0,0.518
11.72,32085.2,35005.6,0.3472,0.0125,145.6,97.0,0.518
11.74,31957.5,34909.7,-0.1698,-0.2234,145.6,97.0,0.518
11.76,31903.2,34817.1,-0.3895,-0.4513,145.6,97.0,0.518
11.78,31907.2,34778.0,-0.3733,-0.5474,145.6,97.0,0.518
11.8,31812.8,34690.3,-0.7551,-0.7631,145.6,97.0,0.518
11.82,31827.4,34696.6,-0.6962,-0.7476,145.6,97.0,0.518
11.84,31805.7,34666.7,-0.7841,-0.8212,145.6,97.0,0.518
11.86,31766.8,34612.9,-0.9415,-0.9535,145.6,97.0,0.518
11.88,31771.2,34443.4,-0.9234,-1.3705,145.6,97.0,0.518
11.9,31675.2,34440.8,-1.312,-1.377,145.6,97.0,0.518
11.92,31801.3,34712.9,-0.8017,-0.7075,145.6,97.0,0.518
11.94,32028.1,35045.0,0.1162,0.1093,145.6,97.0,0.518
11.96,32148.3,35418.1,0.6024,1.0274,145.6,97.0,0.518
11.98,32253.8,35693.4,1.0295,1.7047,145.6,97.0,0.518
12.0,32381.2,35719.0,1.5449,1.7677,145.6,97.0,0.518
12.02,32450.8,35636.9,1.8269,1.5657,145.6,97.0,0.518
12.04,32213.7,35426.3,0.8672,1.0474,145.6,97.0,0.518
12.06,32171.7,35320.7,0.6971,0.7878,145.6,97.0,0.518
12.08,32111.6,35084.8,0.4541,0.2073,145.6,97.0,0.518
12.1,32021.8,35107.9,0.0906,0.2643,145.6,97.0,0.518
12.12,32018.8,34957.3,0.0786,-0.1063,145.6,97.0,0.518
12.14,31964.6,35017.5,-0.1409,0.0419,145.6,97.0,0.518
12.16,31923.5,34866.1,-0.3073,-0.3306,145.6,97.0,0.518
12.18,31897.5,34698.7,-0.4125,-0.7426,145.6,97.0,0.518
12.2,31864.9,34760.9,-0.5445,-0.5895,145.6,97.0,0.518
12.22,31834.3,34624.8,-0.6682,-0.9244,145.6,97.0,0.518
12.24,31821.3,34718.7,-0.7208,-0.6932,145.6,97.0,0.518
12.26,31847.4,34578.5,-0.6151,-1.0381,145.6,97.0,0.518
12.28,31818.8,34571.9,-0.731,-1.0544,145.6,97.0,0.518
12.3,31860.3,34464.4,-0.5631,-1.3189,145.6,97.0,0.518
12.32,31665.7,34487.7,-1.3503,-1.2617,145.6,97.0,0.518
12.34,31843.0,34824.9,-0.6328,-0.4321,145.6,97.0,0.518
12.36,32007.1,35202.1,0.031,0.4959,145.6,97.0,0.518
12.38,32229.2,35487.7,0.93,1.1985,145.6,97.0,0.518
12.4,32328.2,35617.5,1.3305,1.518,145.6,97.0,0.518
12.42,32467.9,35658.4,1.8959,1.6185,145.6,97.0,0.518
12.44,32340.0,35653.7,1.3784,1.607,145.6,97.0,0.518
12.46,32182.7,35385.9,0.7419,0.9481,145.6,97.0,0.518
12.48,32102.4,35217.1,0.4168,0.5328,145.6,97.0,0.518
12.5,32091.6,35151.4,0.3729,0.3712,145.6,97.0,0.518
12.52,32055.3,35007.5,0.2261,0.0172,145.6,97.0,0.518
12.54,31902.1,35124.6,-0.394,0.3053,145.6,97.0,0.518
12.56,31925.0,34964.7,-0.3013,-0.0882,145.6,97.0,0.518
12.58,31919.6,34845.8,-0.323,-0.3805,145.6,97.0,0.518
12.6,31859.2,34703.5,-0.5673,-0.7308,145.6,97.0,0.518
12.62,31845.9,34550.5,-0.6214,-1.1071,145.6,97.0,0.518
12.64,31833.7,34695.5,-0.6708,-0.7504,145.6,97.0,0.518
12.66,31820.5,34601.0,-0.724,-0.9829,145.6,97.0,0.518
12.68,31763.9,34544.5,-0.9532,-1.1219,145.6,97.0,0.518
12.7,31808.0,34437.9,-0.7745,-1.3842,145.6,97.0,0.518
12.72,31836.5,34438.8,-0.6591,-1.3819,145.6,97.0,0.518
12.74,31809.1,34516.1,-0.77,-1.1917,145.6,97.0,0.518
12.76,31959.4,34877.7,-0.1618,-0.3022,145.6,97.0,0.518
12.78,32116.7,35260.9,0.4746,0.6407,145.6,97.0,0.518
12.8,32343.0,35606.5,1.3905,1.4909,145.6,97.0,0.518
12.82,32370.6,35833.9,1.5022,2.0502,145.6,97.0,0.518
12.84,32342.5,35785.4,1.3883,1.931,145.6,97.0,0.518
12.86,32297.5,35505.4,1.2063,1.242,145.6,97.0,0.518
12.88,32174.3,35362.3,0.7079,0.8901,145.6,97.0,0.518
12.9,32072.7,35160.7,0.2964,0.3941,145.6,97.0,0.518
12.92,32039.8,35116.9,0.1633,0.2863,145.6,97.0,0.518
12.94,32004.4,35054.0,0.0202,0.1317,145.6,97.0,0.518
12.96,32033.8,35028.6,0.1393,0.069,145.6,97.0,0.518
12.98,31926.7,34866.1,-0.2941,-0.3308,145.6,97.0,0.518
13.0,31967.5,34769.7,-0.1292,-0.5678,145.6,97.0,0.518
13.02,31876.7,34745.7,-0.4966,-0.6268,145.6,97.0,0.518
13.04,31804.1,34678.9,-0.7903,-0.7913,145.6,97.0,0.518
13.06,31800.5,34648.6,-0.8049,-0.8659,145.6,97.0,0.518
13.08,31947.2,34667.6,-0.2114,-0.8191,145.6,97.0,0.518
13.1,31801.6,34421.7,-0.8006,-1.4241,145.6,97.0,0.518
13.12,31780.3,34479.4,-0.8866,-1.2821,145.6,97.0,0.518
13.14,31798.4,34454.7,-0.8135,-1.3428,145.6,97.0,0.518
13.16,31864.0,34742.2,-0.548,-0.6354,145.6,97.0,0.518
13.18,32050.4,35115.7,0.2063,0.2833,145.6,97.0,0.518
13.2,32242.9,35446.2,0.9852,1.0965,145.6,97.0,0.518
13.22,32281.2,35635.5,1.1404,1.562,145.6,97.0,0.518
13.24,32387.9,35830.4,1.5722,2.0417,145.6,97.0,0.518
13.26,32258.5,35583.6,1.0487,1.4344,145.6,97.0,0.518
13.28,32232.7,35455.3,0.9439,1.1189,145.6,97.0,0.518
13.3,32081.2,35287.0,0.3308,0.7048,145.6,97.0,0.518
13.32,32046.9,35062.8,0.1921,0.1532,145.6,97.0,0.518
13.34,32142.8,35100.9,0.5803,0.2469,145.6,97.0,0.518
13.36,32064.2,35048.4,0.2624,0.1178,145.6,97.0,0.518
13.38,32025.0,34993.0,0.1035,-0.0184,145.6,97.0,0.518
13.4,31904.0,34876.2,-0.3859,-0.3058,145.6,97.0,0.518
13.42,31794.5,34777.4,-0.8291,-0.5488,145.6,97.0,0.518
13.44,31812.2,34666.9,-0.7577,-0.8206,145.6,97.0,0.518
13.46,31856.8,34727.7,-0.5769,-0.6711,145.6,97.0,0.518
13.48,31885.3,34636.3,-0.4618,-0.896,145.6,97.0,0.518
13.5,31784.4,34523.2,-0.8703,-1.1743,145.6,97.0,0.518
13.52,31749.9,34552.5,-1.0098,-1.1021,145.6,97.0,0.518
13.54,31755.4,34532.7,-0.9875,-1.1508,145.6,97.0,0.518
13.56,31716.1,34641.2,-1.1465,-0.8841,145.6,97.0,0.518
13.58,31984.4,34777.8,-0.0606,-0.548,145.6,97.0,0.518
13.6,32085.7,35219.3,0.3493,0.5382,145.6,97.0,0.518
13.62,32260.4,35485.3,1.0562,1.1925,145.6,97.0,0.518
13.64,32337.7,35709.0,1.369,1.743,145.6,97.0,0.518
13.66,32365.1,35774.3,1.4797,1.9036,145.6,97.0,0.518
13.68,32261.0,35541.7,1.0588,1.3314,145.6,97.0,0.518
13.7,32087.9,35305.9,0.358,0.7514,145.6,97.0,0.518
13.72,32106.8,35087.0,0.4345,0.2128,145.6,97.0,0.518
13.74,32071.9,35112.6,0.2934,0.2757,145.6,97.0,0.518
13.76,32007.7,35069.1,0.0337,0.1688,145.6,97.0,0.518
13.78,32045.1,35007.6,0.1849,0.0173,145.6,97.0,0.518
13.8,32082.0,34961.6,0.3344,-0.0957,145.6,97.0,0.518
13.82,31892.5,34714.4,-0.4324,-0.7039,145.6,97.0,0.518
13.84,31878.4,34689.0,-0.4896,-0.7663,145.6,97.0,0.518
13.86,31768.5,34610.4,-0.9345,-0.9597,145.6,97.0,0.518
13.88,31746.8,34680.0,-1.0221,-0.7885,145.6,97.0,0.518
13.9,31807.9,34609.2,-0.7749,-0.9628,145.6,97.0,0.518
13.92,31705.5,34563.9,-1.1892,-1.0741,145.6,97.0,0.518
13.94,31695.6,34511.9,-1.2295,-1.202,145.6,97.0,0.518
13.96,31757.2,34519.1,-0.98,-1.1844,145.6,97.0,0.518
13.98,31837.9,34672.0,-0.6537,-0.8081,145.6,97.0,0.518
14.0,31966.4,34992.0,-0.1336,-0.0209,145.6,97.0,0.518
14.02,32124.2,35383.9,0.5052,0.9431,145.6,97.0,0.518
14.04,32371.8,35632.0,1.5072,1.5536,145.6,97.0,0.518
14.06,32352.8,35773.7,1.4301,1.9021,145.6,97.0,0.518
14.08,32376.3,35692.0,1.5252,1.7011,145.6,97.0,0.518
14.1,32243.4,35494.2,0.9875,1.2146,145.6,97.0,0.518
14.12,32170.8,35239.1,0.6936,0.5869,145.6,97.0,0.518
14.14,32086.6,35161.9,0.353,0.397,145.6,97.0,0.518
14.16,32031.7,35091.5,0.1306,0.2237,145.6,97.0,0.518
14.18,31963.0,35054.1,-0.1472,0.1318,145.6,97.0,0.518
14.2,31971.2,34890.4,-0.114,-0.2708,145.6,97.0,0.518
14.22,31878.4,34838.5,-0.4896,-0.3986,145.6,97.0,0.518
14.24,31894.4,34779.9,-0.4249,-0.5428,145.6,97.0,0.518
14.26,31813.1,34669.5,-0.754,-0.8144,145.6,97.0,0.518
14.28,31738.0,34681.0,-1.058,-0.7861,145.6,97.0,0.518
14.3,31781.1,34603.8,-0.8835,-0.9759,145.6,97.0,0.518
14.32,31810.4,34613.9,-0.7649,-0.9512,145.6,97.0,0.518
14.34,31770.1,34437.4,-0.9278,-1.3854,145.6,97.0,0.518
14.36,31725.6,34412.4,-1.1082,-1.4468,145.6,97.0,0.518
14.38,31760.5,34556.0,-0.9669,-1.0936,145.6,97.0,0.518
14.4,31880.3,34800.3,-0.482,-0.4925,145.6,97.0,0.518
14.42,32186.8,35101.3,0.7585,0.2479,145.6,97.0,0.518
14.44,32312.7,35583.4,1.2679,1.434,145.6,97.0,0.518
14.46,32378.0,35670.3,1.5321,1.6478,145.6,97.0,0.518
14.48,32390.8,35785.1,1.584,1.9303,145.6,97.0,0.518
14.5,32300.5,35611.6,1.2184,1.5034,145.6,97.0,0.518
14.52,32163.3,35428.3,0.6633,1.0524,145.6,97.0,0.518
14.54,32104.0,35150.5,0.4234,0.369,145.6,97.0,0.518
14.56,32074.5,35196.2,0.3038,0.4815,145.6,97.0,0.518
14.58,32077.2,35065.6,0.3149,0.1601,145.6,97.0,0.518
14.6,31940.9,35024.8,-0.2368,0.0598,145.6,97.0,0.518
14.62,32001.7,34963.7,0.0092,-0.0906,145.6,97.0,0.518
14.64,31933.4,34826.0,-0.2672,-0.4293,145.6,97.0,0.518
14.66,31897.2,34695.1,-0.4136,-0.7515,145.6,97.0,0.518
14.68,31870.2,34625.2,-0.5227,-0.9232,145.6,97.0,0.518
14.7,31842.5,34584.9,-0.6352,-1.0224,145.6,97.0,0.518
14.72,31802.7,34657.4,-0.7959,-0.8441,145.6,97.0,0.518
14.74,31806.2,34627.1,-0.782,-0.9188,145.6,97.0,0.518
14.76,31639.8,34355.7,-1.4554,-1.5863,145.6,97.0,0.518
14.78,31746.3,34392.9,-1.0242,-1.4948,145.6,97.0,0.518
14.8,31850.4,34728.5,-0.603,-0.6692,145.6,97.0,0.518
14.82,32003.3,34962.7,0.0159,-0.0929,145.6,97.0,0.518
14.84,32112.2,35206.1,0.4566,0.5057,145.6,97.0,0.518
14.86,32313.7,35562.6,1.2719,1.3828,145.6,97.0,0.518
14.88,32360.0,35792.0,1.4593,1.9471,145.6,97.0,0.518
14.9,32271.2,35706.7,1.1,1.7373,145.6,97.0,0.518
14.92,32324.9,35544.4,1.3172,1.338,145.6,97.0,0.518
14.94,32148.5,35333.8,0.6035,0.82,145.6,97.0,0.518
14.96,32025.1,35244.7,0.1038,0.6008,145.6,97.0,0.518
14.98,31983.1,35058.8,-0.0658,0.1435,145.6,97.0,0.518
15.0,31969.1,35127.0,-0.1226,0.3111,145.6,97.0,0.518
15.02,31912.5,35119.4,-0.3519,0.2924,145.6,97.0,0.518
15.04,31935.4,34840.5,-0.2589,-0.3936,145.6,97.0,0.518
15.06,31907.6,34728.1,-0.3716,-0.6702,145.6,97.0,0.518
15.08,31844.7,34644.8,-0.6261,-0.8752,145.6,97.0,0.518
15.1,31748.1,34618.5,-1.0168,-0.9399,145.6,97.0,0.518
15.12,31771.3,34717.0,-0.9231,-0.6975,145.6,97.0,0.518
15.14,31823.4,34539.1,-0.7124,-1.1352,145.6,97.0,0.518
15.16,31784.4,34588.9,-0.8703,-1.0126,145.6,97.0,0.518
15.18,31770.2,34465.1,-0.9277,-1.3171,145.6,97.0,0.518
15.2,31813.2,34524.2,-0.7535,-1.1718,145.6,97.0,0.518
15.22,31853.8,34783.1,-0.5892,-0.5348,145.6,97.0,0.518
15.24,31958.4,35052.9,-0.1661,0.1288,145.6,97.0,0.518
15.26,32206.8,35408.5,0.8392,1.0037,145.6,97.0,0.518
15.28,32399.0,35750.2,1.6171,1.8443,145.6,97.0,0.518
15.3,32373.6,35697.4,1.5144,1.7145,145.6,97.0,0.518
15.32,32278.2,35661.2,1.128,1.6255,145.6,97.0,0.518
15.34,32175.4,35513.9,0.7122,1.2629,145.6,97.0,0.518
15.36,32108.7,35349.2,0.4423,0.8578,145.6,97.0,0.518
15.38,32109.7,35176.1,0.4464,0.4319,145.6,97.0,0.518
15.4,32075.1,35170.5,0.3064,0.4183,145.6,97.0,0.518
15.42,31910.6,34981.2,-0.3594,-0.0475,145.6,97.0,0.518
15.44,31936.5,34907.0,-0.2544,-0.23,145.6,97.0,0.518
15.46,31885.3,34867.5,-0.4619,-0.3273,145.6,97.0,0.518
15.48,31800.8,34783.8,-0.8039,-0.5332,145.6,97.0,0.518
15.5,31863.0,34671.5,-0.5519,-0.8094,145.6,97.0,0.518
15.52,31901.0,34698.7,-0.3983,-0.7425,145.6,97.0,0.518
15.54,31784.4,34576.6,-0.87,-1.0429,145.6,97.0,0.518
15.56,31855.4,34566.1,-0.583,-1.0687,145.6,97.0,0.518
15.58,31734.2,34427.9,-1.0731,-1.4088,145.6,97.0,0.518
15.6,31734.7,34401.7,-1.0714,-1.4732,145.6,97.0,0.518
15.62,31747.2,34507.7,-1.0205,-1.2124,145.6,97.0,0.518
15.64,31940.4,34885.0,-0.2389,-0.2841,145.6,97.0,0.518
15.66,32056.5,35191.7,0.2311,0.4703,145.6,97.0,0.518
15.68,32290.3,35625.3,1.1771,1.537,145.6,97.0,0.518
15.7,32355.8,35631.8,1.4423,1.553,145.6,97.0,0.518
15.72,32372.4,35720.5,1.5093,1.7714,145.6,97.0,0.518
15.74,32334.7,35486.7,1.357,1.1962,145.6,97.0,0.518
15.76,32180.9,35374.8,0.7345,0.9209,145.6,97.0,0.518
15.78,32090.2,35215.8,0.3672,0.5296,145.6,97.0,0.518
15.8,32003.8,35103.1,0.0177,0.2525,145.6,97.0,0.518
15.82,32076.5,35076.3,0.3122,0.1865,145.6,97.0,0.518
15.84,32066.2,34994.2,0.2704,-0.0156,145.6,97.0,0.518
15.86,32004.3,34893.7,0.0198,-0.2627,145.6,97.0,0.518
15.88,31930.3,34801.7,-0.2797,-0.489,145.6,97.0,0.518
15.9,31852.2,34740.2,-0.5957,-0.6405,145.6,97.0,0.518
15.92,31896.2,34716.2,-0.4178,-0.6994,145.6,97.0,0.518
15.94,31856.0,34695.8,-0.5805,-0.7497,145.6,97.0,0.518
15.96,31870.5,34603.6,-0.5219,-0.9764,145.6,97.0,0.518
15.98,31775.0,34515.2,-0.908,-1.194,145.6,97.0,0.518
16.0,31696.9,34429.0,-1.2241,-1.4061,145.6,97.0,0.518
16.02,31754.3,34429.9,-0.9919,-1.4037,145.6,97.0,0.518
16.04,31722.4,34670.1,-1.121,-0.813,145.6,97.0,0.518
16.06,31977.8,34996.2,-0.0874,-0.0106,145.6,97.0,0.518
16.08,32166.3,35266.0,0.6752,0.6531,145.6,97.0,0.518
16.1,32377.9,35632.9,1.5317,1.5556,145.6,97.0,0.518
16.12,32359.3,35788.1,1.4564,1.9375,145.6,97.0,0.518
16.14,32356.1,35684.3,1.4437,1.6823,145.6,97.0,0.518
16.16,32220.3,35447.3,0.8939,1.0991,145.6,97.0,0.518
16.18,32078.1,35361.2,0.3183,0.8874,145.6,97.0,0.518
16.2,32092.6,35174.2,0.3771,0.4273,145.6,97.0,0.518
16.22,32090.2,35109.9,0.3674,0.2691,145.6,97.0,0.518
16.24,31944.8,35057.6,-0.2212,0.1406,145.6,97.0,0.518
16.26,32047.3,34977.3,0.1939,-0.0572,145.6,97.0,0.518
16.28,31966.6,34900.5,-0.1328,-0.246,145.6,97.0,0.518
16.3,31927.8,34659.7,-0.2897,-0.8384,145.6,97.0,0.518
16.32,31767.8,34819.2,-0.9372,-0.4461,145.6,97.0,0.518
16.34,31776.5,34674.9,-0.9019,-0.8011,145.6,97.0,0.518
16.36,31838.9,34566.7,-0.6494,-1.0672,145.6,97.0,0.518
16.38,31769.5,34570.6,-0.9303,-1.0577,145.6,97.0,0.518
16.4,31802.9,34545.2,-0.7953,-1.1201,145.6,97.0,0.518
16.42,31763.2,34479.6,-0.9558,-1.2815,145.6,97.0,0.518
16.44,31713.0,34516.6,-1.159,-1.1906,145.6,97.0,0.518
16.46,31939.8,34688.8,-0.2414,-0.7669,145.6,97.0,0.518
16.48,32001.3,35209.2,0.0076,0.5135,145.6,97.0,0.518
16.5,32200.7,35464.3,0.8145,1.141,145.6,97.0,0.518
16.52,32376.2,35695.6,1.5249,1.71,145.6,97.0,0.518
16.54,32367.8,35726.3,1.491,1.7856,145.6,97.0,0.518
16.56,32336.2,35563.7,1.3628,1.3855,145.6,97.0,0.518
16.58,32212.4,35329.1,0.862,0.8083,145.6,97.0,0.518
16.6,31957.8,35274.7,-0.1682,0.6745,145.6,97.0,0.518
16.62,32060.8,35135.2,0.2486,0.3313,145.6,97.0,0.518
16.64,32015.4,35012.8,0.0648,0.0302,145.6,97.0,0.518
16.66,31958.5,34987.0,-0.1657,-0.0333,145.6,97.0,0.518
16.68,31976.6,34884.3,-0.0923,-0.286,145.6,97.0,0.518
16.7,31960.1,34787.4,-0.1592,-0.5243,145.6,97.0,0.518
16.72,31866.1,34706.1,-0.5395,-0.7242,145.6,97.0,0.518
16.74,31758.0,34642.4,-0.9771,-0.8811,145.6,97.0,0.518
16.76,31804.2,34703.9,-0.7898,-0.7298,145.6,97.0,0.518
16.78,31958.4,34685.5,-0.1659,-0.7749,145.6,97.0,0.518
16.8,31891.0,34573.8,-0.4385,-1.0499,145.6,97.0,0.518
16.82,31663.6,34498.0,-1.3591,-1.2363,145.6,97.0,0.518
16.84,31759.8,34382.6,-0.9697,-1.5202,145.6,97.0,0.518
16.86,31783.1,34439.4,-0.8753,-1.3803,145.6,97.0,0.518
16.88,31965.0,34968.7,-0.1393,-0.0782,145.6,97.0,0.518
16.9,32091.5,35280.1,0.3726,0.6879,145.6,97.0,0.518
16.92,32226.0,35641.6,0.9171,1.5772,145.6,97.0,0.518
16.94,32277.2,35627.3,1.1243,1.5419,145.6,97.0,0.518
16.96,32381.3,35708.3,1.5455,1.7412,145.6,97.0,0.518
16.98,32217.0,35460.3,0.8806,1.131,145.6,97.0,0.518
17.0,32088.5,35381.1,0.3604,0.9364,145.6,97.0,0.518
17.02,32012.0,35167.5,0.0511,0.4107,145.6,97.0,0.518
17.04,32031.4,35053.5,0.1295,0.1304,145.6,97.0,0.518
17.06,31970.0,35052.8,-0.1189,0.1286,145.6,97.0,0.518
17.08,31992.2,35025.8,-0.0292,0.0621,145.6,97.0,0.518
17.1,31990.8,34866.6,-0.0346,-0.3295,145.6,97.0,0.518
17.12,31839.0,34701.9,-0.6493,-0.7346,145.6,97.0,0.518
17.14,31791.0,34726.0,-0.8435,-0.6753,145.6,97.0,0.518
17.16,31826.5,34664.7,-0.6998,-0.826,145.6,97.0,0.518
17.18,31886.0,34706.3,-0.4588,-0.7239,145.6,97.0,0.518
17.2,31899.3,34573.7,-0.4051,-1.0499,145.6,97.0,0.518
17.22,31825.5,34468.1,-0.7038,-1.3097,145.6,97.0,0.518
17.24,31678.7,34592.5,-1.2978,-1.0039,145.6,97.0,0.518
17.26,31797.2,34482.6,-0.8185,-1.2742,145.6,97.0,0.518
17.28,31867.2,34766.0,-0.5351,-0.577,145.6,97.0,0.518
17.3,32030.7,35035.2,0.1264,0.0854,145.6,97.0,0.518
17.32,32188.5,35536.4,0.7653,1.3184,145.6,97.0,0.518
17.34,32314.6,35701.3,1.2755,1.724,145.6,97.0,0.518
17.36,32399.5,35780.1,1.619,1.9179,145.6,97.0,0.518
17.38,32355.4,35657.6,1.4405,1.6165,145.6,97.0,0.518
17.4,32267.0,35474.5,1.083,1.166,145.6,97.0,0.518
17.42,32102.4,35267.4,0.4168,0.6567,145.6,97.0,0.518
17.44,32079.8,35175.4,0.3254,0.4303,145.6,97.0,0.518
17.46,32047.9,35129.1,0.1961,0.3164,145.6,97.0,0.518
17.48,32066.9,34942.1,0.273,-0.1436,145.6,97.0,0.518
17.5,31948.1,35051.8,-0.2077,0.1261,145.6,97.0,0.518
17.52,31889.9,34842.9,-0.443,-0.3877,145.6,97.0,0.518
17.54,31851.3,34770.9,-0.5995,-0.5648,145.6,97.0,0.518
17.56,31756.5,34609.5,-0.9832,-0.962,145.6,97.0,0.518
17.58,31887.1,34753.8,-0.4545,-0.607,145.6,97.0,0.518
17.6,31703.7,34622.8,-1.1968,-0.9291,145.6,97.0,0.518
17.62,31761.8,34573.4,-0.9616,-1.0507,145.6,97.0,0.518
17.64,31706.4,34517.2,-1.1856,-1.1891,145.6,97.0,0.518
17.66,31743.4,34435.8,-1.036,-1.3892,145.6,97.0,0.518
17.68,31759.2,34578.5,-0.972,-1.0382,145.6,97.0,0.518
17.7,31876.4,34880.1,-0.4979,-0.2962,145.6,97.0,0.518
17.72,32100.0,35206.5,0.4071,0.5067,145.6,97.0,0.518
17.74,32293.3,35555.9,1.1893,1.3664,145.6,97.0,0.518
17.76,32322.2,35737.1,1.3064,1.8122,145.6,97.0,0.518
17.78,32388.5,35816.1,1.5746,2.0064,145.6,97.0,0.518
17.8,32316.5,35565.0,1.2832,1.3888,145.6,97.0,0.518
17.82,32207.2,35378.3,0.8409,0.9294,145.6,97.0,0.518
17.84,32059.7,35249.7,0.2441,0.613,145.6,97.0,0.518
17.86,32091.3,35176.7,0.3718,0.4335,145.6,97.0,0.518
17.88,32078.0,35108.5,0.3182,0.2657,145.6,97.0,0.518
17.9,32039.9,35120.2,0.1637,0.2944,145.6,97.0,0.518
17.92,31960.4,34965.6,-0.1578,-0.0859,145.6,97.0,0.518
17.94,31900.6,34787.0,-0.4,-0.5253,145.6,97.0,0.518
17.96,31908.3,34687.8,-0.3687,-0.7694,145.6,97.0,0.518
17.98,31791.1,34660.3,-0.8432,-0.8369,145.6,97.0,0.518
18.0,31853.3,34637.4,-0.5913,-0.8933,145.6,97.0,0.518
18.02,31914.5,34668.5,-0.3436,-0.8167,145.6,97.0,0.518
18.04,31795.7,34520.8,-0.8242,-1.1802,145.6,97.0,0.518
18.06,31785.1,34462.7,-0.8671,-1.3232,145.6,97.0,0.518
18.08,31824.5,34449.4,-0.7078,-1.3559,145.6,97.0,0.518
18.1,31831.8,34599.7,-0.6781,-0.9861,145.6,97.0,0.518
18.12,31966.9,34993.3,-0.1317,-0.0177,145.6,97.0,0.518
18.14,32094.8,35378.1,0.3862,0.929,145.6,97.0,0.518
18.16,32404.0,35685.3,1.6374,1.6848,145.6,97.0,0.518
18.18,32378.8,35753.8,1.5352,1.8532,145.6,97.0,0.518
18.2,32310.6,35678.1,1.2592,1.6669,145.6,97.0,0.518
18.22,32251.6,35498.4,1.0204,1.2248,145.6,97.0,0.518
18.24,32062.5,35366.6,0.2554,0.9006,145.6,97.0,0.518
18.26,32048.0,35171.4,0.1968,0.4203,145.6,97.0,0.518
18.28,32082.3,35124.0,0.3354,0.3038,145.6,97.0,0.518
18.3,31993.9,34993.1,-0.0224,-0.0182,145.6,97.0,0.518
18.32,31989.7,34929.0,-0.0393,-0.176,145.6,97.0,0.518
18.34,31839.6,34887.6,-0.6469,-0.2779,145.6,97.0,0.518
18.36,31906.0,34780.2,-0.3778,-0.5419,145.6,97.0,0.518
18.38,31854.3,34761.6,-0.5872,-0.5877,145.6,97.0,0.518
18.4,31838.8,34660.6,-0.6499,-0.8362,145.6,97.0,0.518
18.42,31872.9,34642.7,-0.5118,-0.8803,145.6,97.0,0.518
18.44,31790.1,34677.1,-0.847,-0.7957,145.6,97.0,0.518
18.46,31789.4,34514.3,-0.8499,-1.1962,145.6,97.0,0.518
18.48,31734.9,34509.6,-1.0704,-1.2077,145.6,97.0,0.518
18.5,31814.1,34542.4,-0.75,-1.127,145.6,97.0,0.518
18.52,31883.4,34729.5,-0.4693,-0.6668,145.6,97.0,0.518
18.54,32089.1,35050.5,0.3628,0.1229,145.6,97.0,0.518
18.56,32272.9,35466.1,1.107,1.1455,145.6,97.0,0.518
18.58,32338.0,35792.4,1.3704,1.9481,145.6,97.0,0.518
18.6,32393.9,35750.1,1.5963,1.8442,145.6,97.0,0.518
18.62,32317.8,35680.8,1.2885,1.6736,145.6,97.0,0.518
18.64,32203.0,35412.8,0.824,1.0142,145.6,97.0,0.518
18.66,32109.7,35281.5,0.4465,0.6911,145.6,97.0,0.518
18.68,32162.8,35136.9,0.6614,0.3356,145.6,97.0,0.518
18.7,32028.7,35053.5,0.1184,0.1303,145.6,97.0,0.518
18.72,31946.6,35046.3,-0.2136,0.1127,145.6,97.0,0.518
18.74,31992.7,34914.8,-0.0272,-0.2108,145.6,97.0,0.518
18.76,31967.2,34811.5,-0.1304,-0.4651,145.6,97.0,0.518
18.78,31866.3,34711.2,-0.5388,-0.7118,145.6,97.0,0.518
18.8,31832.9,34673.8,-0.6737,-0.8039,145.6,97.0,0.518
18.82,31810.0,34641.8,-0.7664,-0.8825,145.6,97.0,0.518
18.84,31770.1,34708.8,-0.9279,-0.7177,145.6,97.0,0.518
18.86,31674.7,34565.2,-1.3142,-1.0709,145.6,97.0,0.518
18.88,31638.7,34544.7,-1.4599,-1.1213,145.6,97.0,0.518
18.9,31769.2,34526.3,-0.9315,-1.1666,145.6,97.0,0.518
18.92,31866.7,34554.4,-0.5372,-1.0976,145.6,97.0,0.518
18.94,31929.6,34972.7,-0.2824,-0.0683,145.6,97.0,0.518
18.96,32135.9,35324.9,0.5523,0.798,145.6,97.0,0.518
18.98,32312.0,35681.1,1.265,1.6745,145.6,97.0,0.518
19.0,32388.4,35818.3,1.5743,2.0118,145.6,97.0,0.518
19.02,32291.2,35644.2,1.181,1.5836,145.6,97.0,0.518
19.04,32255.8,35645.2,1.0376,1.586,145.6,97.0,0.518
19.06,32102.9,35323.1,0.4187,0.7936,145.6,97.0,0.518
19.08,31994.0,35123.1,-0.0219,0.3015,145.6,97.0,0.518
19.1,32045.1,35142.9,0.1849,0.3502,145.6,97.0,0.518
19.12,32078.9,34966.1,0.3218,-0.0846,145.6,97.0,0.518
19.14,31962.1,35034.6,-0.1508,0.0839,145.6,97.0,0.518
19.16,31976.4,34876.9,-0.093,-0.304,145.6,97.0,0.518
19.18,31912.1,34786.7,-0.3533,-0.5261,145.6,97.0,0.518
19.2,31939.7,34667.1,-0.2417,-0.8202,145.6,97.0,0.518
19.22,31962.5,34659.9,-0.1495,-0.8379,145.6,97.0,0.518
19.24,31874.5,34692.7,-0.5053,-0.7573,145.6,97.0,0.518
19.26,31790.5,34576.4,-0.8455,-1.0434,145.6,97.0,0.518
19.28,31679.5,34421.4,-1.2948,-1.4246,145.6,97.0,0.518
19.3,31666.1,34440.2,-1.3489,-1.3785,145.6,97.0,0.518
19.32,31808.0,34533.9,-0.7745,-1.148,145.6,97.0,0.518
19.34,31893.2,34707.8,-0.43,-0.7202,145.6,97.0,0.518
19.36,32063.9,34950.6,0.2611,-0.1228,145.6,97.0,0.518
19.38,32201.1,35448.3,0.8164,1.1017,145.6,97.0,0.518
19.4,32360.2,35695.1,1.4601,1.7087,145.6,97.0,0.518
19.42,32365.2,35747.6,1.4804,1.838,145.6,97.0,0.518
19.44,32254.7,35722.6,1.0331,1.7763,145.6,97.0,0.518
19.46,32241.3,35583.2,0.9789,1.4336,145.6,97.0,0.518
19.48,32155.6,35265.5,0.6321,0.6519,145.6,97.0,0.518
19.5,31942.6,35187.9,-0.2298,0.461,145.6,97.0,0.518
19.52,31940.5,35157.2,-0.2383,0.3854,145.6,97.0,0.518
19.54,31995.3,35025.1,-0.0168,0.0604,145.6,97.0,0.518
19.56,31908.5,34961.1,-0.368,-0.0969,145.6,97.0,0.518
19.58,31863.9,34953.9,-0.5484,-0.1147,145.6,97.0,0.518
19.6,31811.2,34727.7,-0.7615,-0.6713,145.6,97.0,0.518
19.62,31749.6,34687.5,-1.011,-0.7701,145.6,97.0,0.518
19.64,31871.6,34632.9,-0.5171,-0.9043,145.6,97.0,0.518
19.66,31944.4,34657.9,-0.2225,-0.8429,145.6,97.0,0.518
19.68,31867.4,34517.0,-0.5341,-1.1896,145.6,97.0,0.518
19.7,31755.4,34419.6,-0.9874,-1.4291,145.6,97.0,0.518
19.72,31709.4,34449.5,-1.1738,-1.3555,145.6,97.0,0.518
19.74,31884.0,34460.0,-0.4672,-1.3298,145.6,97.0,0.518
19.76,31947.9,34796.8,-0.2084,-0.5011,145.6,97.0,0.518
19.78,32128.1,35254.0,0.5208,0.6236,145.6,97.0,0.518
19.8,32329.1,35535.5,1.3343,1.3161,145.6,97.0,0.518
19.82,32348.5,35669.0,1.4127,1.6445,145.6,97.0,0.518
19.84,32330.3,35815.6,1.3391,2.0052,145.6,97.0,0.518
19.86,32212.2,35597.1,0.8612,1.4676,145.6,97.0,0.518
19.88,32169.6,35383.7,0.6888,0.9427,145.6,97.0,0.518
19.9,32057.3,35149.3,0.2343,0.366,145.6,97.0,0.518
19.92,32100.1,35199.1,0.4076,0.4885,145.6,97.0,0.518
19.94,31994.9,35122.3,-0.0181,0.2995,145.6,97.0,0.518
19.96,32040.8,34924.5,0.1674,-0.187,145.6,97.0,0.518
19.98,31944.1,34903.6,-0.224,-0.2384,145.6,97.0,0.518
20.0,31921.2,34815.7,-0.3166,-0.4548,145.6,97.0,0.518
20.02,31923.7,34724.2,-0.3062,-0.6799,145.6,97.0,0.518
20.04,31895.9,34653.9,-0.4188,-0.8528,145.6,97.0,0.518
20.06,31800.0,34679.7,-0.8069,-0.7892,145.6,97.0,0.518
20.08,31884.0,34565.9,-0.4669,-1.0691,145.6,97.0,0.518
20.1,31872.8,34669.0,-0.5126,-0.8155,145.6,97.0,0.518
20.12,31731.7,34407.5,-1.0832,-1.4589,145.6,97.0,0.518
20.14,31758.2,34442.8,-0.9763,-1.372,145.6,97.0,0.518
20.16,31819.7,34579.0,-0.7274,-1.037,145.6,97.0,0.518
20.18,32083.0,34996.7,0.3381,-0.0094,145.6,97.0,0.518
20.2,32233.2,35342.8,0.9462,0.842,145.6,97.0,0.518
20.22,32249.3,35616.9,1.0114,1.5163,145.6,97.0,0.518
20.24,32296.6,35792.3,1.2029,1.9478,145.6,97.0,0.518
20.26,32287.6,35733.6,1.1661,1.8034,145.6,97.0,0.518
20.28,32217.0,35500.6,0.8805,1.2303,145.6,97.0,0.518
20.3,32154.2,35319.3,0.6266,0.7844,145.6,97.0,0.518
20.32,32178.7,35229.6,0.7256,0.5635,145.6,97.0,0.518
20.34,32021.8,35069.1,0.0905,0.1687,145.6,97.0,0.518
20.36,32078.9,35084.0,0.3218,0.2054,145.6,97.0,0.518
20.38,31976.5,34949.6,-0.0925,-0.1252,145.6,97.0,0.518
20.4,31844.4,34819.1,-0.6274,-0.4462,145.6,97.0,0.518
20.42,31878.2,34737.5,-0.4904,-0.647,145.6,97.0,0.518
20.44,31922.4,34719.4,-0.3118,-0.6916,145.6,97.0,0.518
20.46,31805.6,34748.9,-0.7844,-0.619,145.6,97.0,0.518
20.48,31887.3,34601.1,-0.4538,-0.9827,145.6,97.0,0.518
20.5,31854.4,34535.0,-0.5869,-1.1452,145.6,97.0,0.518
20.52,31674.9,34436.0,-1.3133,-1.3888,145.6,97.0,0.518
20.54,31725.9,34428.9,-1.1069,-1.4063,145.6,97.0,0.518
20.56,31757.5,34488.0,-0.9789,-1.2608,145.6,97.0,0.518
20.58,31869.5,34808.7,-0.5257,-0.4718,145.6,97.0,0.518
20.6,32083.7,35152.4,0.341,0.3737,145.6,97.0,0.518
20.62,32270.3,35521.2,1.0963,1.281,145.6,97.0,0.518
20.64,32327.7,35759.0,1.3284,1.866,145.6,97.0,0.518
20.66,32383.4,35660.7,1.554,1.6243,145.6,97.0,0.518
20.68,32249.1,35622.6,1.0104,1.5304,145.6,97.0,0.518
20.7,32209.3,35403.4,0.8494,0.9911,145.6,97.0,0.518
20.72,32132.4,35271.6,0.5381,0.6669,145.6,97.0,0.518
20.74,31988.8,35207.0,-0.0431,0.508,145.6,97.0,0.518
20.76,32123.8,35043.3,0.5036,0.1051,145.6,97.0,0.518
20.78,31974.7,35071.0,-0.1,0.1734,145.6,97.0,0.518
20.8,31953.7,34977.0,-0.1849,-0.0577,145.6,97.0,0.518
20.82,31965.2,34745.1,-0.1384,-0.6283,145.6,97.0,0.518
20.84,31797.6,34693.3,-0.8166,-0.7558,145.6,97.0,0.518
20.86,31867.6,34713.2,-0.5335,-0.7069,145.6,97.0,0.518
20.88,31843.7,34651.0,-0.6302,-0.8598,145.6,97.0,0.518
20.9,31830.0,34616.1,-0.6855,-0.9458,145.6,97.0,0.518
20.92,31786.3,34589.8,-0.8624,-1.0105,145.6,97.0,0.518
20.94,31795.0,34476.5,-0.8274,-1.2891,145.6,97.0,0.518
20.96,31700.5,34524.2,-1.2097,-1.1718,145.6,97.0,0.518
20.98,31822.7,34662.0,-0.715,-0.8327,145.6,97.0,0.518
21.0,31918.4,34838.6,-0.3278,-0.3985,145.6,97.0,0.518
21.02,32206.5,35256.5,0.8379,0.6298,145.6,97.0,0.518
21.04,32186.9,35629.9,0.7586,1.5485,145.6,97.0,0.518
21.06,32334.9,35674.3,1.3577,1.6576,145.6,97.0,0.518
21.08,32459.4,35671.3,1.8614,1.6503,145.6,97.0,0.518
21.1,32246.1,35547.6,0.9983,1.3458,145.6,97.0,0.518
21.12,32197.9,35369.5,0.8034,0.9077,145.6,97.0,0.518
21.14,32086.8,35238.6,0.3537,0.5857,145.6,97.0,0.518
21.16,31953.2,35080.3,-0.1868,0.1964,145.6,97.0,0.518
21.18,32011.2,35096.0,0.0479,0.2349,145.6,97.0,0.518
21.2,32012.6,34924.3,0.0532,-0.1875,145.6,97.0,0.518
21.22,31919.3,34952.1,-0.3242,-0.119,145.6,97.0,0.518
21.24,31802.3,34677.7,-0.7975,-0.7941,145.6,97.0,0.518
21.26,31878.6,34722.6,-0.4887,-0.6838,145.6,97.0,0.518
21.28,31879.7,34746.3,-0.4842,-0.6255,145.6,97.0,0.518
21.3,31864.9,34707.9,-0.5443,-0.7199,145.6,97.0,0.518
21.32,31810.4,34589.4,-0.7648,-1.0114,145.6,97.0,0.518
21.34,31782.9,34535.0,-0.8763,-1.1452,145.6,97.0,0.518
21.36,31722.6,34460.2,-1.1202,-1.3291,145.6,97.0,0.518
21.38,31737.7,34461.0,-1.0589,-1.3274,145.6,97.0,0.518
21.4,31810.6,34731.1,-0.7639,-0.6629,145.6,97.0,0.518
21.42,32080.6,35074.7,0.3287,0.1824,145.6,97.0,0.518
21.44,32216.8,35360.7,0.8798,0.8862,145.6,97.0,0.518
21.46,32302.7,35629.3,1.2273,1.5469,145.6,97.0,0.518
21.48,32341.2,35666.3,1.3833,1.6378,145.6,97.0,0.518
21.5,32406.4,35639.8,1.6469,1.5727,145.6,97.0,0.518
21.52,32168.6,35421.7,0.6847,1.0362,145.6,97.0,0.518
21.54,32148.6,35296.4,0.6039,0.728,145.6,97.0,0.518
21.56,32080.5,35077.7,0.3283,0.1898,145.6,97.0,0.518
21.58,31956.0,35169.5,-0.1755,0.4158,145.6,97.0,0.518
21.6,32061.1,35052.4,0.2495,0.1277,145.6,97.0,0.518
21.62,31922.8,34925.1,-0.3101,-0.1856,145.6,97.0,0.518
21.64,31944.1,34823.2,-0.2238,-0.4362,145.6,97.0,0.518
21.66,31836.5,34694.4,-0.6593,-0.753,145.6,97.0,0.518
21.68,31819.5,34686.9,-0.7279,-0.7715,145.6,97.0,0.518
21.7,31822.5,34646.3,-0.7159,-0.8714,145.6,97.0,0.518
21.72,31917.8,34604.6,-0.3303,-0.9741,145.6,97.0,0.518
21.74,31796.0,34653.2,-0.8234,-0.8544,145.6,97.0,0.518
21.76,31749.5,34540.7,-1.0115,-1.1313,145.6,97.0,0.518
21.78,31747.1,34485.1,-1.0209,-1.268,145.6,97.0,0.518
21.8,31809.6,34529.7,-0.7682,-1.1583,145.6,97.0,0.518
21.82,31902.4,34857.2,-0.3928,-0.3525,145.6,97.0,0.518
21.84,32021.9,35211.2,0.0912,0.5183,145.6,97.0,0.518
21.86,32262.2,35550.6,1.0634,1.3533,145.6,97.0,0.518
21.88,32294.1,35757.3,1.1927,1.8617,145.6,97.0,0.518
21.9,32369.7,35669.4,1.4985,1.6456,145.6,97.0,0.518
21.92,32357.1,35526.0,1.4476,1.2927,145.6,97.0,0.518
21.94,32212.6,35367.4,0.8629,0.9026,145.6,97.0,0.518
21.96,32107.4,35166.0,0.437,0.407,145.6,97.0,0.518
21.98,32041.3,35062.7,0.1695,0.153,145.6,97.0,0.518
22.0,32090.0,34998.1,0.3668,-0.006,145.6,97.0,0.518
22.02,31939.8,34878.3,-0.2412,-0.3007,145.6,97.0,0.518
22.04,31993.3,34923.9,-0.0249,-0.1884,145.6,97.0,0.518
22.06,32033.6,34797.1,0.1385,-0.5005,145.6,97.0,0.518
22.08,31882.5,34687.4,-0.4733,-0.7704,145.6,97.0,0.518
22.1,31825.3,34689.5,-0.7046,-0.7652,145.6,97.0,0.518
22.12,31857.3,34671.5,-0.5751,-0.8094,145.6,97.0,0.518
22.14,31872.4,34631.5,-0.5138,-0.9078,145.6,97.0,0.518
22.16,31813.0,34528.8,-0.7543,-1.1604,145.6,97.0,0.518
22.18,31826.7,34401.1,-0.6988,-1.4746,145.6,97.0,0.518
22.2,31720.8,34475.5,-1.1276,-1.2915,145.6,97.0,0.518
22.22,31891.8,34653.7,-0.4354,-0.8533,145.6,97.0,0.518
22.24,31982.1,34971.8,-0.0699,-0.0707,145.6,97.0,0.518
22.26,32207.7,35371.6,0.8428,0.9128,145.6,97.0,0.518
22.28,32311.0,35534.3,1.2612,1.3131,145.6,97.0,0.518
22.3,32329.5,35715.5,1.336,1.7589,145.6,97.0,0.518
22.32,32340.8,35784.8,1.3815,1.9294,145.6,97.0,0.518
22.34,32172.2,35501.8,0.6991,1.2333,145.6,97.0,0.518
22.36,32196.1,35268.8,0.796,0.66,145.6,97.0,0.518
22.38,32199.1,35160.9,0.808,0.3947,145.6,97.0,0.518
22.4,32099.5,35052.8,0.4051,0.1285,145.6,97.0,0.518
22.42,32062.5,34989.5,0.2554,-0.027,145.6,97.0,0.518
22.44,32010.2,34995.8,0.0435,-0.0117,145.6,97.0,0.518
22.46,32010.4,34764.3,0.0447,-0.5812,145.6,97.0,0.518
22.48,31918.8,34734.3,-0.3263,-0.6548,145.6,97.0,0.518
22.5,31869.7,34726.3,-0.5248,-0.6746,145.6,97.0,0.518
22.52,31815.3,34683.4,-0.7452,-0.7802,145.6,97.0,0.518
22.54,31844.7,34716.4,-0.6262,-0.699,145.6,97.0,0.518
22.56,31759.8,34644.8,-0.9696,-0.8752,145.6,97.0,0.518
22.58,31833.0,34527.2,-0.6732,-1.1644,145.6,97.0,0.518
22.6,31684.0,34437.2,-1.2764,-1.3858,145.6,97.0,0.518
22.62,31758.8,34525.8,-0.9736,-1.1679,145.6,97.0,0.518
22.64,31897.7,34716.6,-0.4118,-0.6985,145.6,97.0,0.518
22.66,32079.2,35149.7,0.3228,0.3671,145.6,97.0,0.518
22.68,32373.7,35516.3,1.5148,1.2688,145.6,97.0,0.518
22.7,32279.9,35630.7,1.135,1.5504,145.6,97.0,0.518
22.72,32230.4,35731.3,0.9347,1.7978,145.6,97.0,0.518
22.74,32252.3,35671.2,1.0236,1.6499,145.6,97.0,0.518
22.76,32162.2,35407.0,0.6588,1.0,145.6,97.0,0.518
22.78,32086.7,35239.5,0.3534,0.5878,145.6,97.0,0.518
22.8,32077.3,35145.2,0.3152,0.356,145.6,97.0,0.518
22.82,32038.0,35149.9,0.156,0.3675,145.6,97.0,0.518
22.84,32046.3,34969.6,0.1899,-0.0759,145.6,97.0,0.518
22.86,31916.5,34877.1,-0.3355,-0.3036,145.6,97.0,0.518
22.88,31905.4,34859.1,-0.3805,-0.3479,145.6,97.0,0.518
22.9,31882.9,34706.0,-0.4713,-0.7245,145.6,97.0,0.518
22.92,31828.4,34674.7,-0.6922,-0.8015,145.6,97.0,0.518
22.94,31808.2,34722.7,-0.7737,-0.6834,145.6,97.0,0.518
22.96,31810.4,34698.4,-0.765,-0.7432,145.6,97.0,0.518
22.98,31856.8,34617.7,-0.577,-0.9417,145.6,97.0,0.518
23.0,31798.8,34423.5,-0.8117,-1.4196,145.6,97.0,0.518
23.02,31797.9,34459.0,-0.8156,-1.3323,145.6,97.0,0.518
23.04,31813.3,34638.2,-0.7531,-0.8913,145.6,97.0,0.518
23.06,31951.3,34907.7,-0.1949,-0.2283,145.6,97.0,0.518
23.08,32105.6,35286.2,0.4297,0.7029,145.6,97.0,0.518
23.1,32287.7,35615.0,1.1667,1.5118,145.6,97.0,0.518
23.12,32358.5,35738.2,1.453,1.8148,145.6,97.0,0.518
23.14,32302.8,35733.6,1.2279,1.8035,145.6,97.0,0.518
23.16,32272.8,35516.5,1.1064,1.2694,145.6,97.0,0.518
23.18,32224.7,35326.4,0.9116,0.8017,145.6,97.0,0.518
23.2,32192.0,35181.7,0.7795,0.4457,145.6,97.0,0.518
23.22,32040.6,35164.0,0.1666,0.4021,145.6,97.0,0.518
23.24,32022.0,35072.1,0.0914,0.1761,145.6,97.0,0.518
23.26,31989.0,34938.7,-0.0422,-0.152,145.6,97.0,0.518
23.28,31934.1,34884.3,-0.2643,-0.2859,145.6,97.0,0.518
23.3,31825.7,34758.6,-0.7029,-0.5953,145.6,97.0,0.518
23.32,31846.8,34674.9,-0.6176,-0.8012,145.6,97.0,0.518
23.34,31849.0,34757.9,-0.6087,-0.5968,145.6,97.0,0.518
23.36,31884.2,34656.9,-0.4663,-0.8453,145.6,97.0,0.518
23.38,31939.4,34653.0,-0.2428,-0.855,145.6,97.0,0.518
23.4,31723.1,34435.3,-1.1184,-1.3904,145.6,97.0,0.518
23.42,31683.1,34431.2,-1.28,-1.4006,145.6,97.0,0.518
23.44,31739.3,34455.2,-1.0524,-1.3415,145.6,97.0,0.518
23.46,31875.4,34743.6,-0.5019,-0.6321,145.6,97.0,0.518
23.48,32006.6,35057.6,0.0293,0.1405,145.6,97.0,0.518
23.5,32179.5,35454.1,0.7286,1.1159,145.6,97.0,0.518
23.52,32391.5,35679.0,1.5869,1.6692,145.6,97.0,0.518
23.54,32347.9,35790.1,1.4105,1.9426,145.6,97.0,0.518
23.56,32260.0,35686.1,1.0548,1.6867,145.6,97.0,0.518
23.58,32209.4,35326.7,0.85,0.8025,145.6,97.0,0.518
23.6,32133.6,35282.3,0.5429,0.6931,145.6,97.0,0.518
23.62,32080.4,35159.5,0.3279,0.3911,145.6,97.0,0.518
23.64,32039.5,35123.8,0.1624,0.3032,145.6,97.0,0.518
23.66,32012.3,35083.2,0.0522,0.2033,145.6,97.0,0.518
23.68,32083.9,34882.4,0.342,-0.2906,145.6,97.0,0.518
23.7,31911.3,34726.3,-0.3567,-0.6746,145.6,97.0,0.518
23.72,31871.5,34784.3,-0.5177,-0.5318,145.6,97.0,0.518
23.74,31811.2,34711.7,-0.7614,-0.7106,145.6,97.0,0.518
23.76,31770.5,34622.1,-0.9263,-0.9309,145.6,97.0,0.518
23.78,31793.6,34691.7,-0.8328,-0.7597,145.6,97.0,0.518
23.8,31783.2,34575.0,-0.875,-1.0468,145.6,97.0,0.518
23.82,31778.9,34462.4,-0.8925,-1.3237,145.6,97.0,0.518
23.84,31856.9,34489.8,-0.5765,-1.2563,145.6,97.0,0.518
23.86,31772.7,34574.7,-0.9173,-1.0476,145.6,97.0,0.518
23.88,31926.5,34859.7,-0.295,-0.3465,145.6,97.0,0.518
23.9,32075.5,35265.7,0.308,0.6524,145.6,97.0,0.518
23.92,32339.9,35544.4,1.3778,1.338,145.6,97.0,0.518
23.94,32320.7,35788.2,1.3003,1.9379,145.6,97.0,0.518
23.96,32346.2,35734.9,1.4036,1.8067,145.6,97.0,0.518
23.98,32153.9,35620.2,0.6251,1.5245,145.6,97.0,0.518
24.0,32255.1,35350.1,1.0349,0.8599,145.6,97.0,0.518
24.02,32137.6,35150.9,0.5591,0.3701,145.6,97.0,0.518
24.04,32121.8,35081.0,0.4953,0.1979,145.6,97.0,0.518
24.06,32047.3,35000.7,0.1936,0.0005,145.6,97.0,0.518
24.08,31965.4,35011.8,-0.1375,0.0277,145.6,97.0,0.518
24.1,31984.0,34874.9,-0.0625,-0.3091,145.6,97.0,0.518
24.12,31881.5,34736.6,-0.4773,-0.6493,145.6,97.0,0.518
24.14,31864.8,34767.6,-0.5446,-0.573,145.6,97.0,0.518
24.16,31904.8,34674.9,-0.383,-0.801,145.6,97.0,0.518
24.18,31886.5,34700.3,-0.4567,-0.7386,145.6,97.0,0.518
24.2,31816.4,34569.9,-0.7406,-1.0593,145.6,97.0,0.518
24.22,31741.8,34466.5,-1.0425,-1.3137,145.6,97.0,0.518
24.24,31693.4,34390.5,-1.2382,-1.5008,145.6,97.0,0.518
24.26,31840.1,34514.3,-0.6447,-1.1961,145.6,97.0,0.518
24.28,31820.5,34655.2,-0.7239,-0.8495,145.6,97.0,0.518
24.3,32046.2,34989.1,0.1895,-0.0282,145.6,97.0,0.518
24.32,32138.3,35337.5,0.5621,0.8291,145.6,97.0,0.518
24.34,32233.7,35731.2,0.9482,1.7975,145.6,97.0,0.518
24.36,32396.8,35792.6,1.6083,1.9486,145.6,97.0,0.518
24.38,32314.4,35701.0,1.2749,1.7233,145.6,97.0,0.518
24.4,32223.5,35468.0,0.9071,1.1501,145.6,97.0,0.518
24.42,32138.7,35278.4,0.5638,0.6835,145.6,97.0,0.518
24.44,32028.8,35154.5,0.1191,0.3788,145.6,97.0,0.518
24.46,32100.8,35127.7,0.4104,0.3128,145.6,97.0,0.518
24.48,31944.1,35023.1,-0.2236,0.0556,145.6,97.0,0.518
24.5,31929.4,34895.0,-0.2831,-0.2596,145.6,97.0,0.518
24.52,32004.8,34843.6,0.0219,-0.3861,145.6,97.0,0.518
24.54,31901.9,34720.9,-0.3946,-0.6879,145.6,97.0,0.518
24.56,31862.0,34719.4,-0.5562,-0.6917,145.6,97.0,0.518
24.58,31823.0,34798.9,-0.7138,-0.4961,145.6,97.0,0.518
24.6,31809.7,34646.0,-0.7678,-0.8722,145.6,97.0,0.518
24.62,31810.6,34627.2,-0.7639,-0.9184,145.6,97.0,0.518
24.64,31791.5,34442.5,-0.8412,-1.3727,145.6,97.0,0.518
24.66,31740.8,34475.2,-1.0467,-1.2923,145.6,97.0,0.518
24.68,31791.1,34514.2,-0.8429,-1.1963,145.6,97.0,0.518
24.7,31816.7,34768.6,-0.7393,-0.5704,145.6,97.0,0.518
24.72,32087.6,35228.8,0.3569,0.5616,145.6,97.0,0.518
24.74,32185.3,35518.7,0.7523,1.2747,145.6,97.0,0.518
24.76,32348.0,35705.0,1.4108,1.7331,145.6,97.0,0.518
24.78,32198.6,35716.2,0.8061,1.7608,145.6,97.0,0.518
24.8,32289.4,35657.6,1.1736,1.6166,145.6,97.0,0.518
24.82,32195.8,35420.9,0.7948,1.0343,145.6,97.0,0.518
24.84,32231.4,35103.0,0.9389,0.2521,145.6,97.0,0.518
24.86,31971.2,35170.0,-0.1142,0.4169,145.6,97.0,0.518
24.88,31985.2,35131.2,-0.0575,0.3216,145.6,97.0,0.518
24.9,32107.9,35060.7,0.439,0.148,145.6,97.0,0.518
24.92,31889.5,34921.2,-0.4448,-0.195,145.6,97.0,0.518
24.94,31860.7,34719.9,-0.5612,-0.6904,145.6,97.0,0.518
24.96,31834.4,34636.9,-0.6676,-0.8945,145.6,97.0,0.518
24.98,31812.8,34720.9,-0.7551,-0.6879,145.6,97.0,0.518
25.0,31762.0,34659.6,-0.9608,-0.8387,145.6,97.0,0.518
25.02,31771.1,34678.4,-0.924,-0.7924,145.6,97.0,0.518
25.04,31837.6,34472.9,-0.655,-1.2979,145.6,97.0,0.518
25.06,31686.4,34419.5,-1.2667,-1.4295,145.6,97.0,0.518
25.08,31831.9,34469.4,-0.6781,-1.3066,145.6,97.0,0.518
25.1,31866.3,34520.5,-0.5385,-1.181,145.6,97.0,0.518
25.12,31878.3,34926.9,-0.4902,-0.1811,145.6,97.0,0.518
25.14,32234.9,35254.6,0.9528,0.625,145.6,97.0,0.518
25.16,32269.9,35647.3,1.0947,1.5913,145.6,97.0,0.518
25.18,32295.1,35720.6,1.1968,1.7715,145.6,97.0,0.518
25.2,32226.9,35635.1,0.9205,1.5611,145.6,97.0,0.518
25.22,32272.5,35485.5,1.1052,1.1932,145.6,97.0,0.518
25.24,32127.2,35220.8,0.5172,0.542,145.6,97.0,0.518
25.26,32100.1,35154.3,0.4076,0.3784,145.6,97.0,0.518
25.28,32062.7,35104.0,0.256,0.2546,145.6,97.0,0.518
25.3,32070.8,35071.7,0.2887,0.175,145.6,97.0,0.518
25.32,32024.4,34856.1,0.101,-0.3553,145.6,97.0,0.518
25.34,31886.7,34918.6,-0.4563,-0.2014,145.6,97.0,0.518
25.36,31920.1,34772.6,-0.3211,-0.5607,145.6,97.0,0.518
25.38,31907.6,34711.3,-0.3716,-0.7115,145.6,97.0,0.518
25.4,31903.6,34713.0,-0.3875,-0.7074,145.6,97.0,0.518
25.42,31769.0,34660.2,-0.9325,-0.8373,145.6,97.0,0.518
25.44,31816.4,34573.5,-0.7408,-1.0506,145.6,97.0,0.518
25.46,31697.9,34469.9,-1.2203,-1.3055,145.6,97.0,0.518
25.48,31742.6,34546.4,-1.0391,-1.1172,145.6,97.0,0.518
25.5,31829.7,34575.1,-0.6869,-1.0465,145.6,97.0,0.518
25.52,31849.6,34632.8,-0.6061,-0.9047,145.6,97.0,0.518
25.54,32071.7,35003.1,0.2927,0.0063,145.6,97.0,0.518
25.56,32208.0,35374.0,0.8441,0.9189,145.6,97.0,0.518
25.58,32348.5,35568.6,1.4127,1.3977,145.6,97.0,0.518
25.6,32294.6,35729.6,1.1947,1.7936,145.6,97.0,0.518
25.62,32245.8,35724.5,0.9972,1.781,145.6,97.0,0.518
25.64,32225.0,35525.3,0.9131,1.2911,145.6,97.0,0.518
25.66,32111.4,35217.7,0.4533,0.5343,145.6,97.0,0.518
25.68,32011.4,35102.4,0.0486,0.2507,145.6,97.0,0.518
25.7,31968.5,35095.6,-0.1251,0.2339,145.6,97.0,0.518
25.72,32150.5,35022.4,0.6114,0.0538,145.6,97.0,0.518
25.74,31974.4,34999.0,-0.1011,-0.0038,145.6,97.0,0.518
25.76,31991.4,34800.0,-0.0325,-0.4933,145.6,97.0,0.518
25.78,31847.3,34797.9,-0.6154,-0.4985,145.6,97.0,0.518
25.8,31881.5,34726.7,-0.477,-0.6737,145.6,97.0,0.518
25.82,31843.6,34674.0,-0.6307,-0.8032,145.6,97.0,0.518
25.84,31853.0,34628.8,-0.5925,-0.9145,145.6,97.0,0.518
25.86,31864.3,34640.1,-0.5466,-0.8867,145.6,97.0,0.518
25.88,31807.7,34510.4,-0.7757,-1.2056,145.6,97.0,0.518
25.9,31695.7,34476.3,-1.2292,-1.2897,145.6,97.0,0.518
25.92,31750.4,34556.2,-1.0075,-1.0931,145.6,97.0,0.518
25.94,32027.8,34799.3,0.1149,-0.4949,145.6,97.0,0.518
25.96,32107.3,35237.1,0.4365,0.5821,145.6,97.0,0.518
25.98,32183.4,35488.0,0.7446,1.1993,145.6,97.0,0.518
26.0,32347.0,35744.9,1.4068,1.8313,145.6,97.0,0.518
26.02,32272.4,35699.6,1.1047,1.7198,145.6,97.0,0.518
26.04,32268.7,35607.9,1.0896,1.4942,145.6,97.0,0.518
26.06,32217.4,35354.3,0.8822,0.8704,145.6,97.0,0.518
26.08,32058.8,35258.7,0.2404,0.6351,145.6,97.0,0.518
26.1,32075.9,35101.8,0.3095,0.2491,145.6,97.0,0.518
26.12,32133.4,35111.3,0.5424,0.2725,145.6,97.0,0.518
26.14,31994.1,34960.2,-0.0216,-0.0991,145.6,97.0,0.518
26.16,31935.9,34875.6,-0.2572,-0.3074,145.6,97.0,0.518
26.18,31953.7,34810.7,-0.1849,-0.4671,145.6,97.0,0.518
26.2,31958.4,34718.3,-0.1661,-0.6944,145.6,97.0,0.518
26.22,31835.9,34716.4,-0.6617,-0.6989,145.6,97.0,0.518
26.24,31793.4,34725.3,-0.8339,-0.677,145.6,97.0,0.518
26.26,31847.5,34669.1,-0.6149,-0.8153,145.6,97.0,0.518
26.28,31738.1,34491.7,-1.0574,-1.2518,145.6,97.0,0.518
26.3,31749.9,34466.1,-1.0098,-1.3149,145.6,97.0,0.518
26.32,31737.8,34440.3,-1.0586,-1.3781,145.6,97.0,0.518
26.34,31887.7,34575.2,-0.4523,-1.0464,145.6,97.0,0.518
26.36,31944.7,34939.2,-0.2213,-0.1509,145.6,97.0,0.518
26.38,32206.7,35364.1,0.8388,0.8945,145.6,97.0,0.518
26.4,32336.5,35601.0,1.3641,1.4773,145.6,97.0,0.518
26.42,32406.7,35741.2,1.6481,1.8221,145.6,97.0,0.518
26.44,32367.1,35688.0,1.4882,1.6913,145.6,97.0,0.518
26.46,32200.7,35498.4,0.8145,1.225,145.6,97.0,0.518
26.48,32132.0,35299.6,0.5364,0.7359,145.6,97.0,0.518
26.5,32064.9,35149.3,0.2651,0.3662,145.6,97.0,0.518
26.52,32128.4,35181.3,0.5221,0.4447,145.6,97.0,0.518
26.54,32070.6,35069.7,0.2883,0.1702,145.6,97.0,0.518
26.56,31967.0,34934.1,-0.1312,-0.1634,145.6,97.0,0.518
26.58,32000.5,34799.2,0.0045,-0.4952,145.6,97.0,0.518
26.6,31852.9,34671.5,-0.593,-0.8095,145.6,97.0,0.518
26.62,31823.9,34792.6,-0.7104,-0.5116,145.6,97.0,0.518
26.64,31839.0,34674.8,-0.6492,-0.8013,145.6,97.0,0.518
26.66,31903.5,34553.9,-0.3881,-1.0988,145.6,97.0,0.518
26.68,31778.9,34609.5,-0.8922,-0.962,145.6,97.0,0.518
26.7,31754.1,34455.7,-0.9927,-1.3403,145.6,97.0,0.518
26.72,31683.2,34528.3,-1.2798,-1.1618,145.6,97.0,0.518
26.74,31749.1,34526.8,-1.0131,-1.1654,145.6,97.0,0.518
26.76,31845.8,34739.7,-0.6217,-0.6417,145.6,97.0,0.518
26.78,32048.0,35152.2,0.1968,0.3731,145.6,97.0,0.518
26.8,32252.9,35514.9,1.0258,1.2655,145.6,97.0,0.518
26.82,32389.2,35694.2,1.5773,1.7066,145.6,97.0,0.518
26.84,32380.4,35745.4,1.5419,1.8325,145.6,97.0,0.518
26.86,32324.8,35638.0,1.3169,1.5684,145.6,97.0,0.518
26.88,32205.3,35331.4,0.8333,0.8141,145.6,97.0,0.518
26.9,32068.6,35262.3,0.2801,0.644,145.6,97.0,0.518
26.92,32029.0,35093.0,0.1198,0.2275,145.6,97.0,0.518
26.94,32062.8,35110.8,0.2567,0.2712,145.6,97.0,0.518
26.96,31992.6,35086.3,-0.0275,0.2111,145.6,97.0,0.518
26.98,32041.9,34916.6,0.1718,-0.2064,145.6,97.0,0.518
27.0,31847.5,34850.3,-0.6146,-0.3695,145.6,97.0,0.518
27.02,31867.6,34651.3,-0.5332,-0.8592,145.6,97.0,0.518
27.04,31836.8,34591.6,-0.6579,-1.006,145.6,97.0,0.518
27.06,31841.3,34672.6,-0.6399,-0.8066,145.6,97.0,0.518
27.08,31820.2,34567.2,-0.7252,-1.0661,145.6,97.0,0.518
27.1,31814.9,34649.1,-0.7465,-0.8645,145.6,97.0,0.518
27.12,31821.9,34414.7,-0.7184,-1.4412,145.6,97.0,0.518
27.14,31798.9,34485.3,-0.8116,-1.2676,145.6,97.0,0.518
27.16,31808.0,34607.0,-0.7747,-0.9682,145.6,97.0,0.518
27.18,31926.0,34952.7,-0.297,-0.1176,145.6,97.0,0.518
27.2,32093.4,35261.3,0.3803,0.6416,145.6,97.0,0.518
27.22,32330.6,35619.3,1.3404,1.5223,145.6,97.0,0.518
27.24,32363.7,35783.2,1.4744,1.9255,145.6,97.0,0.518
27.26,32329.9,35801.7,1.3376,1.9711,145.6,97.0,0.518
27.28,32243.2,35518.5,0.9867,1.2744,145.6,97.0,0.518
27.3,32161.6,35414.5,0.6562,1.0184,145.6,97.0,0.518
27.32,32048.6,35080.3,0.1989,0.1963,145.6,97.0,0.518
27.34,31969.9,35051.2,-0.1192,0.1246,145.6,97.0,0.518
27.36,32033.9,34931.1,0.1396,-0.1706,145.6,97.0,0.518
27.38,31918.2,35060.5,-0.3288,0.1475,145.6,97.0,0.518
27.4,31952.0,34794.2,-0.1919,-0.5075,145.6,97.0,0.518
27.42,31880.7,34746.9,-0.4802,-0.6239,145.6,97.0,0.518
27.44,31854.5,34693.1,-0.5865,-0.7563,145.6,97.0,0.518
27.46,31926.7,34806.7,-0.2944,-0.4767,145.6,97.0,0.518
27.48,31895.9,34648.5,-0.4191,-0.8659,145.6,97.0,0.518
27.5,31811.3,34668.4,-0.7614,-0.8169,145.6,97.0,0.518
27.52,31799.2,34565.9,-0.8101,-1.0692,145.6,97.0,0.518
27.54,31709.0,34418.0,-1.175,-1.433,145.6,97.0,0.518
27.56,31795.5,34546.0,-0.8253,-1.1181,145.6,97.0,0.518
27.58,31853.1,34696.9,-0.592,-0.747,145.6,97.0,0.518
27.6,32040.7,34961.8,0.1673,-0.0951,145.6,97.0,0.518
27.62,32145.5,35436.1,0.591,1.0716,145.6,97.0,0.518
27.64,32251.4,35684.5,1.0197,1.6827,145.6,97.0,0.518
27.66,32386.1,35677.2,1.5648,1.6647,145.6,97.0,0.518
27.68,32340.4,35635.0,1.3798,1.5609,145.6,97.0,0.518
27.7,32139.6,35438.8,0.5675,1.0783,145.6,97.0,0.518
27.72,32176.8,35240.7,0.718,0.591,145.6,97.0,0.518
27.74,32039.4,35114.7,0.1617,0.2809,145.6,97.0,0.518
27.76,32078.4,35090.4,0.3195,0.2211,145.6,97.0,0.518
27.78,32045.4,35051.0,0.1862,0.1243,145.6,97.0,0.518
27.8,32021.2,34897.7,0.0883,-0.2529,145.6,97.0,0.518
27.82,31914.6,34812.3,-0.343,-0.463,145.6,97.0,0.518
27.84,31850.0,34769.2,-0.6047,-0.5692,145.6,97.0,0.518
27.86,31819.8,34704.6,-0.7267,-0.7279,145.6,97.0,0.518
27.88,31744.8,34699.8,-1.0303,-0.7398,145.6,97.0,0.518
27.9,31852.6,34647.4,-0.5943,-0.8687,145.6,97.0,0.518
27.92,31831.5,34513.0,-0.6795,-1.1994,145.6,97.0,0.518
27.94,31686.4,34440.9,-1.2666,-1.3768,145.6,97.0,0.518
27.96,31672.8,34466.9,-1.3219,-1.3128,145.6,97.0,0.518
27.98,31711.0,34579.6,-1.167,-1.0354,145.6,97.0,0.518
28.0,31869.6,34813.8,-0.5254,-0.4594,145.6,97.0,0.518
28.02,32138.9,35199.8,0.5646,0.4903,145.6,97.0,0.518
28.04,32238.8,35609.8,0.9688,1.4989,145.6,97.0,0.518
28.06,32341.0,35669.5,1.3822,1.6457,145.6,97.0,0.518
28.08,32370.9,35710.2,1.5034,1.746,145.6,97.0,0.518
28.1,32237.3,35632.7,0.9625,1.5552,145.6,97.0,0.518
28.12,32092.2,35417.0,0.3755,1.0245,145.6,97.0,0.518
28.14,32100.5,35178.3,0.4091,0.4375,145.6,97.0,0.518
28.16,32027.4,35177.3,0.1135,0.435,145.6,97.0,0.518
28.18,32116.5,35074.4,0.4737,0.1818,145.6,97.0,0.518
28.2,31983.6,35014.6,-0.0642,0.0346,145.6,97.0,0.518
28.22,31961.8,34866.1,-0.152,-0.3307,145.6,97.0,0.518
28.24,31916.9,34822.8,-0.334,-0.4372,145.6,97.0,0.518
28.26,31897.1,34751.8,-0.414,-0.6118,145.6,97.0,0.518
28.28,31866.4,34611.6,-0.5383,-0.9568,145.6,97.0,0.518
28.3,31828.6,34709.2,-0.6912,-0.7167,145.6,97.0,0.518
28.32,31830.7,34624.2,-0.6826,-0.9258,145.6,97.0,0.518
28.34,31707.1,34479.9,-1.1829,-1.2807,145.6,97.0,0.518
28.36,31733.3,34509.8,-1.0771,-1.2072,145.6,97.0,0.518
28.38,31766.3,34477.4,-0.9433,-1.287,145.6,97.0,0.518
28.4,31813.2,34631.9,-0.7535,-0.9069,145.6,97.0,0.518
28.42,31979.1,34978.3,-0.0822,-0.0548,145.6,97.0,0.518
28.44,32110.3,35350.4,0.4488,0.8608,145.6,97.0,0.518
28.46,32336.3,35554.4,1.3633,1.3626,145.6,97.0,0.518
28.48,32453.3,35776.1,1.8367,1.9081,145.6,97.0,0.518
28.5,32227.1,35599.4,0.9212,1.4734,145.6,97.0,0.518
28.52,32230.7,35395.8,0.9361,0.9725,145.6,97.0,0.518
28.54,32222.8,35260.7,0.9039,0.6402,145.6,97.0,0.518
28.56,32093.3,35185.9,0.3799,0.456,145.6,97.0,0.518
28.58,32039.7,35033.1,0.163,0.0802,145.6,97.0,0.518
28.6,32105.0,34965.6,0.4274,-0.086,145.6,97.0,0.518
28.62,32045.7,34983.2,0.1873,-0.0425,145.6,97.0,0.518
28.64,31956.5,34808.4,-0.1737,-0.4727,145.6,97.0,0.518
28.66,31847.8,34736.0,-0.6136,-0.6508,145.6,97.0,0.518
28.68,31827.7,34724.8,-0.6948,-0.6783,145.6,97.0,0.518
28.7,31937.6,34648.4,-0.2502,-0.8662,145.6,97.0,0.518
28.72,31948.3,34690.8,-0.2068,-0.7619,145.6,97.0,0.518
28.74,31731.3,34615.7,-1.085,-0.9466,145.6,97.0,0.518
28.76,31794.2,34507.2,-0.8303,-1.2137,145.6,97.0,0.518
28.78,31683.0,34489.1,-1.2804,-1.258,145.6,97.0,0.518
28.8,31736.0,34523.0,-1.0661,-1.1747,145.6,97.0,0.518
28.82,31906.0,34805.2,-0.3781,-0.4806,145.6,97.0,0.518
28.84,32065.4,35098.5,0.2672,0.241,145.6,97.0,0.518
28.86,32205.7,35544.6,0.835,1.3386,145.6,97.0,0.518
28.88,32250.0,35723.5,1.0141,1.7787,145.6,97.0,0.518
28.9,32355.2,35811.5,1.4399,1.995,145.6,97.0,0.518
28.92,32288.3,35612.1,1.169,1.5047,145.6,97.0,0.518
28.94,32247.9,35492.8,1.0057,1.2111,145.6,97.0,0.518
28.96,32069.4,35262.9,0.2832,0.6455,145.6,97.0,0.518
28.98,32039.3,35171.8,0.1616,0.4215,145.6,97.0,0.518
29.0,32041.6,35087.4,0.1709,0.2138,145.6,97.0,0.518
29.02,32000.1,34938.9,0.0028,-0.1516,145.6,97.0,0.518
29.04,32062.4,34955.1,0.2549,-0.1118,145.6,97.0,0.518
29.06,31979.5,34763.2,-0.0805,-0.5839,145.6,97.0,0.518
29.08,31896.8,34754.8,-0.4153,-0.6044,145.6,97.0,0.518
29.1,31899.9,34710.9,-0.4029,-0.7124,145.6,97.0,0.518
29.12,31673.7,34735.5,-1.318,-0.652,145.6,97.0,0.518
29.14,31906.0,34651.3,-0.3781,-0.8591,145.6,97.0,0.518
29.16,31791.8,34533.1,-0.8402,-1.1498,145.6,97.0,0.518
29.18,31753.3,34543.9,-0.9959,-1.1234,145.6,97.0,0.518
29.2,31725.2,34438.3,-1.1095,-1.3831,145.6,97.0,0.518
29.22,31838.2,34637.2,-0.6525,-0.8938,145.6,97.0,0.518
29.24,31884.2,34873.4,-0.4664,-0.3126,145.6,97.0,0.518
29.26,32204.7,35268.3,0.8309,0.6588,145.6,97.0,0.518
29.28,32217.6,35588.7,0.8828,1.4469,145.6,97.0,0.518
29.3,32367.2,35756.1,1.4884,1.8589,145.6,97.0,0.518
29.32,32335.3,35683.6,1.3592,1.6805,145.6,97.0,0.518
29.34,32180.6,35603.0,0.7333,1.4822,145.6,97.0,0.518
29.36,32166.5,35305.9,0.6762,0.7512,145.6,97.0,0.518
29.38,32110.9,35279.0,0.4513,0.6852,145.6,97.0,0.518
29.4,32118.6,35091.1,0.4822,0.2229,145.6,97.0,0.518
29.42,31957.0,35003.3,-0.1716,0.0069,145.6,97.0,0.518
29.44,31967.6,34977.4,-0.1288,-0.0567,145.6,97.0,0.518
29.46,31845.1,34916.3,-0.6245,-0.2073,145.6,97.0,0.518
29.48,31986.7,34795.5,-0.0515,-0.5043,145.6,97.0,0.518
29.5,31860.3,34695.0,-0.5631,-0.7517,145.6,97.0,0.518
29.52,31878.5,34734.8,-0.4895,-0.6536,145.6,97.0,0.518
29.54,31792.3,34687.4,-0.8381,-0.7702,145.6,97.0,0.518
29.56,31821.4,34592.6,-0.7204,-1.0035,145.6,97.0,0.518
29.58,31771.1,34516.6,-0.9241,-1.1905,145.6,97.0,0.518
29.6,31810.6,34398.2,-0.7642,-1.4818,145.6,97.0,0.518
29.62,31808.0,34506.0,-0.7744,-1.2167,145.6,97.0,0.518
29.64,31812.9,34676.7,-0.7548,-0.7967,145.6,97.0,0.518
29.66,32072.0,34966.7,0.2938,-0.0833,145.6,97.0,0.518
29.68,32222.4,35327.9,0.9024,0.8055,145.6,97.0,0.518
29.7,32352.3,35717.9,1.428,1.7649,145.6,97.0,0.518
29.72,32306.5,35738.5,1.2429,1.8155,145.6,97.0,0.518
29.74,32270.3,35678.1,1.0961,1.6668,145.6,97.0,0.518
29.76,32266.4,35479.7,1.0805,1.1788,145.6,97.0,0.518
29.78,32082.3,35242.2,0.3353,0.5945,145.6,97.0,0.518
29.8,31952.3,35089.6,-0.1905,0.2193,145.6,97.0,0.518
29.82,32080.8,35137.3,0.3295,0.3366,145.6,97.0,0.518
29.84,31978.3,34996.8,-0.0855,-0.0091,145.6,97.0,0.518
29.86,31899.1,34937.0,-0.4058,-0.1562,145.6,97.0,0.518
29.88,31962.9,34812.6,-0.1477,-0.4623,145.6,97.0,0.518
29.9,31801.4,34736.1,-0.8015,-0.6504,145.6,97.0,0.518
29.92,31918.0,34650.3,-0.3295,-0.8615,145.6,97.0,0.518
29.94,31839.5,34573.3,-0.6472,-1.0509,145.6,97.0,0.518
29.96,31831.8,34643.5,-0.6784,-0.8784,145.6,97.0,0.518
29.98,31696.0,34555.0,-1.2279,-1.096,145.6,97.0,0.518
30.0,31788.8,34421.5,-0.8525,-1.4245,145.6,97.0,0.518
30.02,31716.5,34533.6,-1.1451,-1.1487,145.6,97.0,0.518
30.04,31861.6,34630.7,-0.5577,-0.9097,145.6,97.0,0.518
30.06,31980.9,34884.7,-0.0748,-0.2849,145.6,97.0,0.518
30.08,32084.7,35310.6,0.345,0.7627,145.6,97.0,0.518
30.1,32257.1,35605.6,1.0429,1.4887,145.6,97.0,0.518
30.12,32411.2,35706.5,1.6665,1.7367,145.6,97.0,0.518
30.14,32341.5,35705.9,1.3845,1.7353,145.6,97.0,0.518
30.16,32290.9,35625.4,1.1795,1.5374,145.6,97.0,0.518
30.18,32145.9,35407.9,0.5928,1.0022,145.6,97.0,0.518
30.2,32103.0,35209.0,0.4191,0.5129,145.6,97.0,0.518
30.22,32001.2,35115.8,0.0074,0.2837,145.6,97.0,0.518
30.24,32044.4,35081.0,0.1819,0.198,145.6,97.0,0.518
30.26,32034.7,34932.5,0.1427,-0.1673,145.6,97.0,0.518
30.28,31993.0,34871.1,-0.026,-0.3183,145.6,97.0,0.518
30.3,31884.3,34867.4,-0.4658,-0.3275,145.6,97.0,0.518
30.32,31908.8,34652.9,-0.3668,-0.8552,145.6,97.0,0.518
30.34,31798.8,34676.2,-0.8119,-0.7979,145.6,97.0,0.518
30.36,31847.7,34686.2,-0.614,-0.7732,145.6,97.0,0.518
30.38,31800.5,34632.4,-0.8051,-0.9055,145.6,97.0,0.518
30.4,31730.5,34621.0,-1.0883,-0.9336,145.6,97.0,0.518
30.42,31747.5,34499.7,-1.0196,-1.232,145.6,97.0,0.518
30.44,31750.2,34430.3,-1.0085,-1.4029,145.6,97.0,0.518
30.46,31907.9,34676.7,-0.3705,-0.7967,145.6,97.0,0.518
30.48,32010.0,34901.6,0.0429,-0.2434,145.6,97.0,0.518
30.5,32212.6,35335.0,0.8629,0.8229,145.6,97.0,0.518
30.52,32354.4,35659.9,1.4365,1.6222,145.6,97.0,0.518
30.54,32327.1,35764.7,1.3262,1.8801,145.6,97.0,0.518
30.56,32334.4,35644.0,1.3556,1.5831,145.6,97.0,0.518
30.58,32297.5,35520.4,1.2065,1.2791,145.6,97.0,0.518
30.6,32118.7,35261.8,0.4829,0.6427,145.6,97.0,0.518
30.62,32071.0,35178.5,0.2899,0.4378,145.6,97.0,0.518
30.64,32043.5,35069.9,0.1783,0.1707,145.6,97.0,0.518
30.66,32084.2,34923.2,0.343,-0.1901,145.6,97.0,0.518
30.68,31989.0,35007.4,-0.0422,0.0169,145.6,97.0,0.518
30.7,31947.5,34904.1,-0.2099,-0.2373,145.6,97.0,0.518
30.72,31839.9,34694.8,-0.6456,-0.752,145.6,97.0,0.518
30.74,31901.6,34615.5,-0.3957,-0.9471,145.6,97.0,0.518
30.76,31756.3,34684.6,-0.9839,-0.7772,145.6,97.0,0.518
30.78,31900.6,34687.2,-0.4,-0.7707,145.6,97.0,0.518
30.8,31850.6,34654.0,-0.6024,-0.8525,145.6,97.0,0.518
30.82,31726.4,34489.3,-1.1047,-1.2575,145.6,97.0,0.518
30.84,31744.1,34375.5,-1.033,-1.5376,145.6,97.0,0.518
30.86,31765.6,34481.8,-0.9464,-1.2762,145.6,97.0,0.518
30.88,31859.7,34754.9,-0.5655,-0.6042,145.6,97.0,0.518
30.9,32064.2,35035.6,0.2623,0.0862,145.6,97.0,0.518
30.92,32152.7,35534.2,0.6204,1.3129,145.6,97.0,0.518
30.94,32374.5,35682.0,1.5181,1.6766,145.6,97.0,0.518
30.96,32372.5,35738.3,1.5097,1.815,145.6,97.0,0.518
30.98,32242.7,35694.4,0.9847,1.707,145.6,97.0,0.518
31.0,32240.3,35445.9,0.9747,1.0956,145.6,97.0,0.518
31.02,32102.4,35278.5,0.4169,0.6839,145.6,97.0,0.518
31.04,32091.4,35194.8,0.3723,0.4779,145.6,97.0,0.518
31.06,32069.4,35057.2,0.2834,0.1395,145.6,97.0,0.518
31.08,32095.7,35060.6,0.3899,0.1478,145.6,97.0,0.518
31.1,32024.9,34962.5,0.103,-0.0936,145.6,97.0,0.518
31.12,31899.3,34860.5,-0.405,-0.3445,145.6,97.0,0.518
31.14,31937.4,34678.2,-0.2509,-0.793,145.6,97.0,0.518
31.16,31853.3,34753.9,-0.5912,-0.6067,145.6,97.0,0.518
31.18,31842.9,34798.4,-0.6333,-0.4973,145.6,97.0,0.518
31.2,31792.4,34718.1,-0.8377,-0.6948,145.6,97.0,0.518
31.22,31744.1,34429.7,-1.0333,-1.4043,145.6,97.0,0.518
31.24,31818.0,34498.6,-0.7343,-1.2349,145.6,97.0,0.518
31.26,31771.1,34487.6,-0.9239,-1.2619,145.6,97.0,0.518
31.28,31904.6,34508.7,-0.3839,-1.21,145.6,97.0,0.518
31.3,31895.7,34876.8,-0.4198,-0.3043,145.6,97.0,0.518
31.32,32134.0,35301.6,0.5449,0.7408,145.6,97.0,0.518
31.34,32194.0,35552.0,0.7877,1.3568,145.6,97.0,0.518
31.36,32365.5,35648.9,1.4815,1.5952,145.6,97.0,0.518
31.38,32395.0,35747.5,1.601,1.8377,145.6,97.0,0.518
31.4,32253.8,35593.3,1.0293,1.4582,145.6,97.0,0.518
31.42,32198.8,35303.6,0.8071,0.7456,145.6,97.0,0.518
31.44,32041.1,35140.6,0.1686,0.3446,145.6,97.0,0.518
31.46,32067.4,35197.5,0.2752,0.4847,145.6,97.0,0.518
31.48,31948.2,35017.6,-0.2071,0.042,145.6,97.0,0.518
31.5,32054.7,35013.3,0.2238,0.0314,145.6,97.0,0.518
31.52,31993.1,34827.2,-0.0255,-0.4263,145.6,97.0,0.518
31.54,31877.5,34832.2,-0.4934,-0.4141,145.6,97.0,0.518
31.56,31830.4,34706.7,-0.684,-0.7227,145.6,97.0,0.518
31.58,31890.4,34760.1,-0.441,-0.5915,145.6,97.0,0.518
31.6,31767.8,34628.4,-0.9373,-0.9155,145.6,97.0,0.518
31.62,31848.0,34573.5,-0.6127,-1.0505,145.6,97.0,0.518
31.64,31757.0,34562.8,-0.9808,-1.0768,145.6,97.0,0.518
31.66,31754.6,34464.4,-0.9906,-1.3189,145.6,97.0,0.518
31.68,31689.5,34461.4,-1.2543,-1.3263,145.6,97.0,0.518
31.7,31872.1,34701.4,-0.5152,-0.7358,145.6,97.0,0.518
31.72,32005.6,35028.6,0.0249,0.0691,145.6,97.0,0.518
31.74,32190.8,35454.2,0.7747,1.1162,145.6,97.0,0.518
31.76,32262.7,35712.2,1.0656,1.7509,145.6,97.0,0.518
31.78,32359.3,35669.8,1.4563,1.6465,145.6,97.0,0.518
31.8,32291.7,35639.4,1.183,1.5717,145.6,97.0,0.518
31.82,32218.3,35432.3,0.886,1.0622,145.6,97.0,0.518
31.84,32150.3,35292.6,0.6107,0.7185,145.6,97.0,0.518
31.86,32074.6,35074.4,0.3042,0.1819,145.6,97.0,0.518
31.88,32051.5,35199.6,0.2109,0.4897,145.6,97.0,0.518
31.9,32079.5,35026.3,0.3242,0.0635,145.6,97.0,0.518
31.92,32048.9,35009.5,0.2005,0.0222,145.6,97.0,0.518
31.94,31926.2,34761.2,-0.2964,-0.5887,145.6,97.0,0.518
31.96,31869.0,34727.5,-0.5277,-0.6717,145.6,97.0,0.518
31.98,31881.2,34678.3,-0.4784,-0.7927,145.6,97.0,0.518
32.0,31938.0,34644.1,-0.2486,-0.8768,145.6,97.0,0.518
32.02,31832.6,34574.7,-0.6751,-1.0476,145.6,97.0,0.518
32.04,31779.3,34641.3,-0.8908,-0.8838,145.6,97.0,0.518
32.06,31774.8,34524.2,-0.909,-1.1719,145.6,97.0,0.518
32.08,31728.5,34465.0,-1.0962,-1.3173,145.6,97.0,0.518
32.1,31842.1,34614.2,-0.6367,-0.9503,145.6,97.0,0.518
32.12,31974.2,34907.2,-0.1022,-0.2296,145.6,97.0,0.518
32.14,32123.2,35282.2,0.5008,0.6931,145.6,97.0,0.518
32.16,32278.2,35518.0,1.128,1.2732,145.6,97.0,0.518
32.18,32393.0,35813.2,1.5926,1.9993,145.6,97.0,0.518
32.2,32305.6,35700.0,1.239,1.7209,145.6,97.0,0.518
32.22,32219.7,35551.3,0.8916,1.3551,145.6,97.0,0.518
32.24,32197.6,35330.2,0.8021,0.8111,145.6,97.0,0.518
32.26,32103.1,35225.5,0.4196,0.5535,145.6,97.0,0.518
32.28,32038.2,35063.1,0.1571,0.1539,145.6,97.0,0.518
32.3,32014.6,35059.0,0.0615,0.1439,145.6,97.0,0.518
32.32,31961.4,34986.8,-0.1537,-0.0339,145.6,97.0,0.518
32.34,31896.8,34902.1,-0.4154,-0.2421,145.6,97.0,0.518
32.36,31980.9,34718.3,-0.0749,-0.6942,145.6,97.0,0.518
32.38,31887.9,34832.2,-0.4511,-0.4141,145.6,97.0,0.518
32.4,31868.5,34616.2,-0.5297,-0.9455,145.6,97.0,0.518
32.42,31918.1,34779.1,-0.3292,-0.5448,145.6,97.0,0.518
32.44,31730.5,34639.0,-1.0883,-0.8894,145.6,97.0,0.518
32.46,31771.6,34522.7,-0.9219,-1.1755,145.6,97.0,0.518
32.48,31700.9,34389.5,-1.2082,-1.5031,145.6,97.0,0.518
32.5,31693.4,34474.5,-1.2385,-1.2942,145.6,97.0,0.518
32.52,31809.2,34608.1,-0.7697,-0.9653,145.6,97.0,0.518
32.54,32046.3,35030.0,0.1897,0.0726,145.6,97.0,0.518
32.56,32151.1,35312.3,0.614,0.767,145.6,97.0,0.518
32.58,32367.1,35497.8,1.4879,1.2233,145.6,97.0,0.518
32.6,32409.9,35746.8,1.6613,1.8359,145.6,97.0,0.518
32.62,32377.3,35614.5,1.5291,1.5106,145.6,97.0,0.518
32.64,32249.5,35529.4,1.0121,1.3011,145.6,97.0,0.518
32.66,32134.4,35301.5,0.5463,0.7405,145.6,97.0,0.518
32.68,32057.0,35139.4,0.2332,0.3417,145.6,97.0,0.518
32.7,32061.0,35060.7,0.2494,0.148,145.6,97.0,0.518
32.72,32025.9,35021.6,0.1072,0.0519,145.6,97.0,0.518
32.74,31985.5,34990.4,-0.0563,-0.0248,145.6,97.0,0.518
32.76,31898.0,34912.6,-0.4103,-0.2162,145.6,97.0,0.518
32.78,31901.2,34807.2,-0.3973,-0.4755,145.6,97.0,0.518
32.8,31966.1,34717.3,-0.1347,-0.6967,145.6,97.0,0.518
32.82,31785.4,34552.1,-0.8662,-1.1033,145.6,97.0,0.518
32.84,31774.5,34689.3,-0.9103,-0.7656,145.6,97.0,0.518
32.86,31937.6,34556.1,-0.25,-1.0933,145.6,97.0,0.518
32.88,31745.2,34531.4,-1.0288,-1.1541,145.6,97.0,0.518
32.9,31652.3,34473.9,-1.4045,-1.2954,145.6,97.0,0.518
32.92,31805.6,34435.7,-0.7843,-1.3895,145.6,97.0,0.518
32.94,31841.0,34675.7,-0.641,-0.7992,145.6,97.0,0.518
32.96,32072.3,35190.8,0.2951,0.4681,145.6,97.0,0.518
32.98,32302.2,35486.8,1.2255,1.1964,145.6,97.0,0.518
33.0,32349.0,35726.2,1.4146,1.7853,145.6,97.0,0.518
33.02,32368.2,35733.2,1.4925,1.8026,145.6,97.0,0.518
33.04,32375.8,35665.2,1.5234,1.6352,145.6,97.0,0.518
33.06,32164.6,35337.8,0.6684,0.8297,145.6,97.0,0.518
33.08,32180.7,35236.9,0.7337,0.5816,145.6,97.0,0.518
33.1,32124.3,35209.8,0.5054,0.5148,145.6,97.0,0.518
33.12,32039.9,35118.3,0.1637,0.2898,145.6,97.0,0.518
33.14,32041.3,35002.4,0.1697,0.0045,145.6,97.0,0.518
33.16,31888.1,34918.2,-0.4505,-0.2025,145.6,97.0,0.518
33.18,32020.1,34938.9,0.0837,-0.1515,145.6,97.0,0.518
33.2,31901.8,34705.5,-0.3949,-0.7257,145.6,97.0,0.518
33.22,31925.7,34619.7,-0.2981,-0.9369,145.6,97.0,0.518
33.24,31819.6,34660.7,-0.7276,-0.836,145.6,97.0,0.518
33.26,31926.4,34649.3,-0.2956,-0.8641,145.6,97.0,0.518
33.28,31715.6,34589.2,-1.1483,-1.0119,145.6,97.0,0.518
33.3,31721.2,34521.5,-1.1259,-1.1784,145.6,97.0,0.518
33.32,31676.1,34443.7,-1.3082,-1.3698,145.6,97.0,0.518
33.34,31811.6,34658.9,-0.76,-0.8403,145.6,97.0,0.518
33.36,31961.3,34996.6,-0.1542,-0.0096,145.6,97.0,0.518
33.38,32080.3,35329.7,0.3273,0.8099,145.6,97.0,0.518
33.4,32317.4,35590.6,1.2867,1.4517,145.6,97.0,0.518
33.42,32332.8,35815.7,1.3491,2.0054,145.6,97.0,0.518
33.44,32334.3,35658.9,1.3553,1.6198,145.6,97.0,0.518
33.46,32188.7,35547.4,0.766,1.3453,145.6,97.0,0.518
33.48,32147.7,35430.5,0.6001,1.0578,145.6,97.0,0.518
33.5,32058.0,35215.3,0.2372,0.5285,145.6,97.0,0.518
33.52,32099.0,35095.0,0.4029,0.2325,145.6,97.0,0.518
33.54,32028.1,35053.9,0.1161,0.1314,145.6,97.0,0.518
33.56,31982.0,34948.5,-0.0703,-0.1279,145.6,97.0,0.518
33.58,31963.0,34823.6,-0.1474,-0.4352,145.6,97.0,0.518
33.6,31834.4,34779.1,-0.6677,-0.5447,145.6,97.0,0.518
33.62,31795.3,34729.7,-0.8261,-0.6662,145.6,97.0,0.518
33.64,31824.0,34709.3,-0.7099,-0.7164,145.6,97.0,0.518
33.66,31800.6,34641.1,-0.8047,-0.8843,145.6,97.0,0.518
33.68,31767.6,34601.1,-0.9379,-0.9825,145.6,97.0,0.518
33.7,31798.0,34536.0,-0.815,-1.1428,145.6,97.0,0.518
33.72,31734.8,34488.4,-1.0708,-1.26,145.6,97.0,0.518
33.74,31725.9,34469.9,-1.1069,-1.3053,145.6,97.0,0.518
33.76,31874.8,34735.6,-0.5042,-0.6517,145.6,97.0,0.518
33.78,31975.9,34980.2,-0.0952,-0.0499,145.6,97.0,0.518
33.8,32311.5,35471.1,1.2629,1.1578,145.6,97.0,0.518
33.82,32331.5,35575.6,1.3439,1.4147,145.6,97.0,0.518
33.84,32332.9,35832.0,1.3497,2.0455,145.6,97.0,0.518
33.86,32240.7,35601.3,0.9765,1.478,145.6,97.0,0.518
33.88,32290.5,35443.9,1.1781,1.0907,145.6,97.0,0.518
33.9,32122.6,35272.6,0.4983,0.6694,145.6,97.0,0.518
33.92,32083.5,35201.0,0.3404,0.4933,145.6,97.0,0.518
33.94,32134.9,35083.0,0.5484,0.2028,145.6,97.0,0.518
33.96,31989.5,35053.3,-0.0401,0.13,145.6,97.0,0.518
33.98,31992.1,34974.0,-0.0294,-0.0653,145.6,97.0,0.518
34.0,31935.0,34851.8,-0.2607,-0.3659,145.6,97.0,0.518
34.02,31900.6,34706.2,-0.3999,-0.7241,145.6,97.0,0.518
34.04,31855.3,34674.5,-0.5832,-0.8019,145.6,97.0,0.518
34.06,31866.4,34697.5,-0.5381,-0.7454,145.6,97.0,0.518
34.08,31846.0,34652.4,-0.6209,-0.8563,145.6,97.0,0.518
34.1,31747.3,34625.2,-1.0201,-0.9232,145.6,97.0,0.518
34.12,31732.0,34478.4,-1.0821,-1.2845,145.6,97.0,0.518
34.14,31728.5,34464.5,-1.0965,-1.3186,145.6,97.0,0.518
34.16,31770.4,34575.3,-0.9268,-1.0461,145.6,97.0,0.518
34.18,31949.2,34826.1,-0.2031,-0.429,145.6,97.0,0.518
34.2,32121.3,35242.0,0.4931,0.5942,145.6,97.0,0.518
34.22,32263.3,35489.8,1.0679,1.2037,145.6,97.0,0.518
34.24,32438.6,35753.4,1.7774,1.8523,145.6,97.0,0.518
34.26,32325.5,35690.8,1.3196,1.6983,145.6,97.0,0.518
34.28,32323.2,35615.4,1.3103,1.5128,145.6,97.0,0.518
34.3,32118.4,35419.7,0.4815,1.0313,145.6,97.0,0.518
34.32,32117.1,35161.9,0.4761,0.397,145.6,97.0,0.518
34.34,32098.0,35166.3,0.3989,0.408,145.6,97.0,0.518
34.36,32030.6,35124.7,0.1262,0.3056,145.6,97.0,0.518
34.38,32077.7,35026.8,0.3167,0.0646,145.6,97.0,0.518
34.4,32053.7,34930.0,0.2197,-0.1734,145.6,97.0,0.518
34.42,31881.0,34829.4,-0.4791,-0.4209,145.6,97.0,0.518
34.44,31825.5,34634.5,-0.704,-0.9005,145.6,97.0,0.518
34.46,31899.4,34585.0,-0.4046,-1.0223,145.6,97.0,0.518
34.48,31757.1,34737.8,-0.9804,-0.6464,145.6,97.0,0.518
34.5,31764.0,34560.6,-0.9527,-1.0823,145.6,97.0,0.518
34.52,31844.1,34467.7,-0.6285,-1.3107,145.6,97.0,0.518
34.54,31827.4,34470.3,-0.6963,-1.3045,145.6,97.0,0.518
34.56,31779.4,34510.9,-0.8905,-1.2045,145.6,97.0,0.518
34.58,31802.7,34613.6,-0.7962,-0.9519,145.6,97.0,0.518
34.6,32067.9,35007.2,0.2771,0.0165,145.6,97.0,0.518
34.62,32220.4,35318.9,0.8944,0.7834,145.6,97.0,0.518
34.64,32317.0,35658.9,1.2852,1.6198,145.6,97.0,0.518
34.66,32332.9,35837.6,1.3497,2.0594,145.6,97.0,0.518
34.68,32374.8,35650.8,1.5194,1.5997,145.6,97.0,0.518
34.7,32205.6,35593.2,0.8346,1.4581,145.6,97.0,0.518
34.72,32072.6,35370.9,0.2961,0.9113,145.6,97.0,0.518
34.74,32029.7,35186.4,0.1225,0.4573,145.6,97.0,0.518
34.76,32121.3,35150.0,0.4933,0.3677,145.6,97.0,0.518
34.78,32044.9,35137.9,0.1841,0.3379,145.6,97.0,0.518
34.8,32022.6,34974.0,0.0939,-0.0652,145.6,97.0,0.518
34.82,31908.3,34825.0,-0.3688,-0.4319,145.6,97.0,0.518
34.84,31846.9,34779.1,-0.6173,-0.5447,145.6,97.0,0.518
34.86,31789.2,34675.7,-0.8506,-0.7991,145.6,97.0,0.518
34.88,31888.0,34707.8,-0.4507,-0.72,145.6,97.0,0.518
34.9,31793.3,34609.7,-0.8342,-0.9614,145.6,97.0,0.518
34.92,31745.6,34621.9,-1.0269,-0.9314,145.6,97.0,0.518
34.94,31807.2,34447.3,-0.7779,-1.361,145.6,97.0,0.518
34.96,31754.0,34320.4,-0.993,-1.6731,145.6,97.0,0.518
34.98,31690.5,34549.8,-1.2502,-1.1088,145.6,97.0,0.518
35.0,31947.9,34667.7,-0.2086,-0.8188,145.6,97.0,0.518
35.02,32063.9,35044.8,0.2611,0.109,145.6,97.0,0.518
35.04,32207.6,35417.4,0.8424,1.0255,145.6,97.0,0.518
35.06,32315.8,35643.8,1.2803,1.5826,145.6,97.0,0.518
35.08,32394.6,35748.1,1.5994,1.8392,145.6,97.0,0.518
35.1,32255.7,35589.2,1.0371,1.4482,145.6,97.0,0.518
35.12,32160.2,35441.7,0.6506,1.0854,145.6,97.0,0.518
35.14,32146.8,35197.6,0.5963,0.4849,145.6,97.0,0.518
35.16,32044.6,35222.6,0.1829,0.5463,145.6,97.0,0.518
35.18,32076.7,35059.1,0.3127,0.1442,145.6,97.0,0.518
35.2,32049.3,35135.2,0.2018,0.3313,145.6,97.0,0.518
35.22,31903.2,34940.7,-0.3892,-0.1472,145.6,97.0,0.518
35.24,31984.2,34864.9,-0.0616,-0.3335,145.6,97.0,0.518
35.26,31899.3,34732.0,-0.405,-0.6606,145.6,97.0,0.518
35.28,31821.3,34646.0,-0.7209,-0.8721,145.6,97.0,0.518
35.3,31787.3,34676.1,-0.8582,-0.7981,145.6,97.0,0.518
35.32,31856.2,34607.9,-0.5795,-0.9658,145.6,97.0,0.518
35.34,31778.9,34540.1,-0.8924,-1.1326,145.6,97.0,0.518
35.36,31708.9,34443.7,-1.1758,-1.3699,145.6,97.0,0.518
35.38,31761.4,34419.3,-0.9631,-1.4298,145.6,97.0,0.518
35.4,31863.6,34604.3,-0.5497,-0.9747,145.6,97.0,0.518
35.42,31894.7,34894.1,-0.4239,-0.2617,145.6,97.0,0.518
35.44,32113.8,35218.9,0.4629,0.5373,145.6,97.0,0.518
35.46,32221.0,35583.8,0.8966,1.4349,145.6,97.0,0.518
35.48,32325.7,35708.7,1.3203,1.7423,145.6,97.0,0.518
35.5,32460.6,35667.6,1.8662,1.6411,145.6,97.0,0.518
35.52,32320.0,35464.8,1.2972,1.1422,145.6,97.0,0.518
35.54,32073.9,35365.4,0.3016,0.8977,145.6,97.0,0.518
35.56,32134.1,35204.4,0.5451,0.5016,145.6,97.0,0.518
35.58,32074.1,35168.2,0.3022,0.4124,145.6,97.0,0.518
35.6,32108.3,35108.4,0.4407,0.2653,145.6,97.0,0.518
35.62,31954.4,35010.9,-0.1821,0.0256,145.6,97.0,0.518
35.64,31856.8,34872.7,-0.5769,-0.3143,145.6,97.0,0.518
35.66,31832.1,34800.2,-0.6772,-0.4929,145.6,97.0,0.518
35.68,31873.6,34673.2,-0.5092,-0.8054,145.6,97.0,0.518
35.7,31927.9,34628.2,-0.2893,-0.9159,145.6,97.0,0.518
35.72,31779.2,34696.9,-0.8913,-0.7469,145.6,97.0,0.518
35.74,31912.2,34573.1,-0.3531,-1.0515,145.6,97.0,0.518
35.76,31777.1,34525.6,-0.8998,-1.1683,145.6,97.0,0.518
35.78,31800.2,34426.1,-0.8062,-1.4132,145.6,97.0,0.518
35.8,31729.0,34449.1,-1.0943,-1.3566,145.6,97.0,0.518
35.82,31787.4,34720.3,-0.858,-0.6893,145.6,97.0,0.518
35.84,32085.4,35077.3,0.3481,0.1889,145.6,97.0,0.518
35.86,32167.4,35403.1,0.68,0.9903,145.6,97.0,0.518
35.88,32281.3,35688.5,1.1409,1.6924,145.6,97.0,0.518
35.9,32337.5,35830.9,1.3684,2.0429,145.6,97.0,0.518
35.92,32332.9,35643.3,1.3494,1.5814,145.6,97.0,0.518
35.94,32207.9,35466.0,0.8435,1.1451,145.6,97.0,0.518
35.96,32132.4,35272.4,0.5381,0.669,145.6,97.0,0.518
35.98,32054.6,35079.4,0.2233,0.1941,145.6,97.0,0.518
36.0,31997.6,35147.2,-0.0073,0.3608,145.6,97.0,0.518
36.02,32080.0,35078.5,0.326,0.1918,145.6,97.0,0.518
36.04,32023.2,34936.3,0.0962,-0.158,145.6,97.0,0.518
36.06,31963.0,34879.2,-0.1474,-0.2984,145.6,97.0,0.518
36.08,31905.2,34697.4,-0.3814,-0.7458,145.6,97.0,0.518
36.1,31878.7,34716.7,-0.4886,-0.6983,145.6,97.0,0.518
36.12,31942.0,34633.4,-0.2321,-0.9031,145.6,97.0,0.518
36.14,31817.6,34653.5,-0.736,-0.8537,145.6,97.0,0.518
36.16,31788.3,34553.1,-0.8543,-1.1008,145.6,97.0,0.518
36.18,31782.9,34479.2,-0.876,-1.2826,145.6,97.0,0.518
36.2,31723.6,34440.3,-1.116,-1.3781,145.6,97.0,0.518
36.22,31796.3,34521.6,-0.822,-1.1783,145.6,97.0,0.518
36.24,31853.6,34838.3,-0.5899,-0.3991,145.6,97.0,0.518
36.26,32109.3,35215.9,0.4447,0.53,145.6,97.0,0.518
36.28,32272.4,35611.7,1.1047,1.5037,145.6,97.0,0.518
36.3,32372.1,35674.7,1.5084,1.6586,145.6,97.0,0.518
36.32,32317.8,35743.9,1.2883,1.8289,145.6,97.0,0.518
36.34,32219.8,35596.3,0.8918,1.4658,145.6,97.0,0.518
36.36,32116.6,35364.4,0.4741,0.8951,145.6,97.0,0.518
36.38,32093.5,35209.0,0.3807,0.5129,145.6,97.0,0.518
36.4,32013.7,35051.7,0.058,0.126,145.6,97.0,0.518
36.42,31949.0,35130.9,-0.2041,0.3207,145.6,97.0,0.518
36.44,31937.1,34978.8,-0.252,-0.0535,145.6,97.0,0.518
36.46,31979.3,34878.5,-0.0812,-0.3001,145.6,97.0,0.518
36.48,31901.8,34790.2,-0.3951,-0.5175,145.6,97.0,0.518
36.5,31787.9,34674.7,-0.8561,-0.8014,145.6,97.0,0.518
36.52,31777.2,34657.4,-0.8992,-0.8442,145.6,97.0,0.518
36.54,31903.0,34665.6,-0.3902,-0.8238,145.6,97.0,0.518
36.56,31851.9,34594.3,-0.5969,-0.9995,145.6,97.0,0.518
36.58,31821.1,34543.0,-0.7215,-1.1256,145.6,97.0,0.518
36.6,31748.9,34479.3,-1.0139,-1.2823,145.6,97.0,0.518
36.62,31766.1,34420.9,-0.9442,-1.426,145.6,97.0,0.518
36.64,31900.6,34677.5,-0.3999,-0.7946,145.6,97.0,0.518
36.66,31962.8,34891.4,-0.1482,-0.2685,145.6,97.0,0.518
36.68,32096.4,35351.3,0.3926,0.8631,145.6,97.0,0.518
36.7,32286.5,35643.6,1.1618,1.5821,145.6,97.0,0.518
36.72,32399.4,35769.1,1.6188,1.8909,145.6,97.0,0.518
36.74,32316.1,35650.2,1.2816,1.5983,145.6,97.0,0.518
36.76,32196.0,35469.9,0.7956,1.1547,145.6,97.0,0.518
36.78,32171.0,35176.5,0.6943,0.4329,145.6,97.0,0.518
36.8,32091.1,35262.9,0.3709,0.6455,145.6,97.0,0.518
36.82,32116.2,35122.5,0.4728,0.3,145.6,97.0,0.518
36.84,32003.8,35102.2,0.0178,0.2503,145.6,97.0,0.518
36.86,31941.2,34993.6,-0.2357,-0.0171,145.6,97.0,0.518
36.88,31942.2,34837.4,-0.2314,-0.4012,145.6,97.0,0.518
36.9,31798.4,34814.6,-0.8136,-0.4573,145.6,97.0,0.518
36.92,31906.7,34702.9,-0.3753,-0.7321,145.6,97.0,0.518
36.94,31886.8,34607.0,-0.4555,-0.9682,145.6,97.0,0.518
36.96,31861.4,34611.6,-0.5584,-0.9569,145.6,97.0,0.518
36.98,31831.5,34588.8,-0.6794,-1.0128,145.6,97.0,0.518
37.0,31719.0,34471.6,-1.1346,-1.3011,145.6,97.0,0.518
37.02,31757.5,34389.7,-0.9791,-1.5028,145.6,97.0,0.518
37.04,31732.1,34497.7,-1.0819,-1.2371,145.6,97.0,0.518
37.06,31855.8,34691.8,-0.5813,-0.7594,145.6,97.0,0.518
37.08,31965.0,35046.1,-0.1391,0.1121,145.6,97.0,0.518
37.1,32291.3,35529.3,1.1813,1.3009,145.6,97.0,0.518
37.12,32369.9,35764.0,1.4995,1.8783,145.6,97.0,0.518
37.14,32351.2,35688.7,1.4237,1.693,145.6,97.0,0.518
37.16,32267.1,35597.2,1.0832,1.4678,145.6,97.0,0.518
37.18,32264.7,35382.5,1.0736,0.9397,145.6,97.0,0.518
37.2,32129.8,35280.4,0.5276,0.6887,145.6,97.0,0.518
37.22,32072.6,35111.9,0.2963,0.274,145.6,97.0,0.518
37.24,32076.0,35164.3,0.3098,0.403,145.6,97.0,0.518
37.26,32019.7,35031.0,0.0822,0.0749,145.6,97.0,0.518
37.28,31969.3,34843.5,-0.1218,-0.3862,145.6,97.0,0.518
37.3,31907.5,34769.4,-0.3719,-0.5686,145.6,97.0,0.518
37.32,31845.4,34699.3,-0.6234,-0.7409,145.6,97.0,0.518
37.34,31775.4,34693.9,-0.9065,-0.7542,145.6,97.0,0.518
37.36,31801.0,34646.9,-0.8028,-0.8698,145.6,97.0,0.518
37.38,31825.4,34685.0,-0.704,-0.7762,145.6,97.0,0.518
37.4,31764.4,34516.7,-0.9511,-1.1903,145.6,97.0,0.518
37.42,31723.8,34463.3,-1.1154,-1.3217,145.6,97.0,0.518
37.44,31704.2,34526.6,-1.1946,-1.1659,145.6,97.0,0.518
37.46,31826.7,34606.8,-0.699,-0.9685,145.6,97.0,0.518
37.48,31982.9,34864.1,-0.0667,-0.3355,145.6,97.0,0.518
37.5,32109.8,35281.5,0.4467,0.6913,145.6,97.0,0.518
37.52,32272.2,35597.2,1.1041,1.4679,145.6,97.0,0.518
37.54,32316.7,35799.3,1.2841,1.9651,145.6,97.0,0.518
37.56,32247.4,35741.1,1.0035,1.8221,145.6,97.0,0.518
37.58,32280.3,35620.3,1.1367,1.5248,145.6,97.0,0.518
37.6,32163.3,35259.4,0.6634,0.6369,145.6,97.0,0.518
37.62,32161.0,35187.7,0.6538,0.4604,145.6,97.0,0.518
37.64,31973.9,35099.8,-0.1033,0.2444,145.6,97.0,0.518
37.66,31966.2,35094.2,-0.1344,0.2306,145.6,97.0,0.518
37.68,32027.0,35008.7,0.1118,0.02,145.6,97.0,0.518
37.7,31930.8,34834.1,-0.2777,-0.4094,145.6,97.0,0.518
37.72,31783.7,34684.5,-0.873,-0.7775,145.6,97.0,0.518
37.74,31771.2,34715.9,-0.9235,-0.7002,145.6,97.0,0.518
37.76,31807.0,34695.2,-0.7788,-0.7511,145.6,97.0,0.518
37.78,31856.8,34674.0,-0.577,-0.8033,145.6,97.0,0.518
37.8,31800.1,34542.3,-0.8068,-1.1274,145.6,97.0,0.518
37.82,31753.2,34521.0,-0.9963,-1.1797,145.6,97.0,0.518
37.84,31687.7,34555.9,-1.2614,-1.0938,145.6,97.0,0.518
37.86,31756.8,34476.4,-0.9818,-1.2893,145.6,97.0,0.518
37.88,31838.7,34704.1,-0.6504,-0.7293,145.6,97.0,0.518
37.9,32004.8,35105.5,0.0219,0.2582,145.6,97.0,0.518
37.92,32107.0,35446.5,0.4356,1.0971,145.6,97.0,0.518
37.94,32305.8,35689.6,1.24,1.6951,145.6,97.0,0.518
37.96,32319.4,35598.7,1.2948,1.4717,145.6,97.0,0.518
37.98,32283.2,35596.0,1.1486,1.4649,145.6,97.0,0.518
38.0,32222.7,35377.4,0.9036,0.9271,145.6,97.0,0.518
38.02,32171.8,35316.0,0.6975,0.776,145.6,97.0,0.518
38.04,32100.2,35137.8,0.4081,0.3377,145.6,97.0,0.518
38.06,31979.2,35045.1,-0.0818,0.1096,145.6,97.0,0.518
38.08,32051.8,35031.5,0.212,0.0762,145.6,97.0,0.518
38.1,31865.2,34881.6,-0.5433,-0.2924,145.6,97.0,0.518
38.12,31893.2,34759.4,-0.4298,-0.5931,145.6,97.0,0.518
38.14,31872.0,34787.2,-0.5156,-0.5248,145.6,97.0,0.518
38.16,31861.6,34744.7,-0.5577,-0.6294,145.6,97.0,0.518
38.18,31956.5,34668.1,-0.1737,-0.8178,145.6,97.0,0.518
38.2,31785.8,34553.0,-0.8646,-1.101,145.6,97.0,0.518
38.22,31773.0,34524.8,-0.9164,-1.1704,145.6,97.0,0.518
38.24,31832.4,34562.1,-0.6759,-1.0786,145.6,97.0,0.518
38.26,31765.1,34496.4,-0.9484,-1.2403,145.6,97.0,0.518
38.28,31754.0,34473.9,-0.9932,-1.2956,145.6,97.0,0.518
38.3,31934.6,34829.2,-0.2624,-0.4215,145.6,97.0,0.518
38.32,32098.4,35124.5,0.4005,0.305,145.6,97.0,0.518
38.34,32171.6,35524.1,0.6967,1.2881,145.6,97.0,0.518
38.36,32303.4,35755.0,1.2302,1.856,145.6,97.0,0.518
38.38,32394.8,35733.3,1.6002,1.8028,145.6,97.0,0.518
38.4,32256.8,35432.8,1.0416,1.0634,145.6,97.0,0.518
38.42,32182.8,35423.9,0.742,1.0416,145.6,97.0,0.518
38.44,32123.5,35201.7,0.502,0.4949,145.6,97.0,0.518
38.46,32029.1,35110.4,0.1202,0.2704,145.6,97.0,0.518
38.48,31977.8,35113.5,-0.0873,0.2781,145.6,97.0,0.518
38.5,31954.7,34996.9,-0.181,-0.0088,145.6,97.0,0.518
38.52,31918.8,34894.5,-0.3264,-0.2608,145.6,97.0,0.518
38.54,31785.3,34873.8,-0.8663,-0.3118,145.6,97.0,0.518
38.56,31889.3,34766.0,-0.4455,-0.5769,145.6,97.0,0.518
38.58,31867.4,34735.3,-0.5341,-0.6524,145.6,97.0,0.518
38.6,31858.5,34645.7,-0.5703,-0.8729,145.6,97.0,0.518
38.62,31837.0,34560.7,-0.6574,-1.082,145.6,97.0,0.518
38.64,31768.5,34634.1,-0.9346,-0.9014,145.6,97.0,0.518
38.66,31813.6,34557.3,-0.7517,-1.0903,145.6,97.0,0.518
38.68,31793.4,34385.8,-0.8338,-1.5122,145.6,97.0,0.518
38.7,31711.3,34581.9,-1.1658,-1.0299,145.6,97.0,0.518
38.72,32076.6,34970.8,0.3125,-0.073,145.6,97.0,0.518
38.74,32153.7,35268.7,0.6244,0.6598,145.6,97.0,0.518
38.76,32297.0,35590.5,1.2045,1.4513,145.6,97.0,0.518
38.78,32388.9,35682.4,1.5761,1.6776,145.6,97.0,0.518
38.8,32294.6,35722.1,1.1947,1.7751,145.6,97.0,0.518
38.82,32300.6,35530.2,1.219,1.3032,145.6,97.0,0.518
38.84,32143.0,35256.6,0.5809,0.6301,145.6,97.0,0.518
38.86,32108.1,35201.5,0.4398,0.4945,145.6,97.0,0.518
38.88,32076.0,35074.0,0.3099,0.1808,145.6,97.0,0.518
38.9,32015.5,35065.0,0.0652,0.1586,145.6,97.0,0.518
38.92,31980.5,34883.5,-0.0764,-0.2878,145.6,97.0,0.518
38.94,31966.2,34771.9,-0.1344,-0.5624,145.6,97.0,0.518
38.96,31859.5,34788.8,-0.566,-0.5207,145.6,97.0,0.518
38.98,31909.2,34710.2,-0.3649,-0.7142,145.6,97.0,0.518
39.0,31780.6,34662.8,-0.8855,-0.8307,145.6,97.0,0.518
39.02,31903.2,34635.2,-0.3894,-0.8987,145.6,97.0,0.518
39.04,31731.6,34561.0,-1.0838,-1.0814,145.6,97.0,0.518
39.06,31822.4,34448.8,-0.7164,-1.3573,145.6,97.0,0.518
39.08,31657.8,34501.4,-1.3826,-1.228,145.6,97.0,0.518
39.1,31769.7,34598.0,-0.9296,-0.9903,145.6,97.0,0.518
39.12,31869.3,34786.5,-0.5267,-0.5266,145.6,97.0,0.518
39.14,32092.3,35023.0,0.3758,0.0554,145.6,97.0,0.518
39.16,32220.8,35372.3,0.896,0.9147,145.6,97.0,0.518
39.18,32343.2,35590.7,1.3914,1.4519,145.6,97.0,0.518
39.2,32480.6,35777.7,1.9472,1.9121,145.6,97.0,0.518
39.22,32356.1,35623.1,1.4434,1.5316,145.6,97.0,0.518
39.24,32184.8,35481.9,0.7503,1.1843,145.6,97.0,0.518
39.26,32129.1,35310.7,0.5248,0.7631,145.6,97.0,0.518
39.28,32037.9,35075.0,0.1559,0.1831,145.6,97.0,0.518
39.3,32056.3,35087.4,0.2303,0.2139,145.6,97.0,0.518
39.32,32003.3,35025.1,0.0158,0.0606,145.6,97.0,0.518
39.34,32001.6,34877.3,0.009,-0.3031,145.6,97.0,0.518
39.36,31951.7,34780.1,-0.193,-0.5423,145.6,97.0,0.518
39.38,31929.0,34641.0,-0.2849,-0.8845,145.6,97.0,0.518
39.4,31860.2,34714.9,-0.5633,-0.7027,145.6,97.0,0.518
39.42,31865.5,34614.6,-0.542,-0.9494,145.6,97.0,0.518
39.44,31870.7,34605.5,-0.5208,-0.9719,145.6,97.0,0.518
39.46,31934.9,34576.8,-0.2609,-1.0425,145.6,97.0,0.518
39.48,31795.0,34444.4,-0.8274,-1.3682,145.6,97.0,0.518
39.5,31668.2,34525.4,-1.3404,-1.1688,145.6,97.0,0.518
39.52,31823.7,34526.9,-0.7109,-1.1652,145.6,97.0,0.518
39.54,31931.9,34877.4,-0.2731,-0.3028,145.6,97.0,0.518
39.56,32093.1,35197.6,0.379,0.4849,145.6,97.0,0.518
39.58,32273.6,35617.0,1.1098,1.5168,145.6,97.0,0.518
39.6,32367.7,35809.9,1.4905,1.9912,145.6,97.0,0.518
39.62,32362.5,35699.0,1.4692,1.7183,145.6,97.0,0.518
39.64,32290.3,35472.2,1.1772,1.1604,145.6,97.0,0.518
39.66,32198.1,35338.1,0.8042,0.8305,145.6,97.0,0.518
39.68,32104.3,35110.8,0.4244,0.2714,145.6,97.0,0.518
39.7,32008.4,35069.6,0.0364,0.17,145.6,97.0,0.518
39.72,32006.7,35091.7,0.0294,0.2243,145.6,97.0,0.518
39.74,31943.6,34979.2,-0.226,-0.0525,145.6,97.0,0.518
39.76,31965.1,34901.6,-0.139,-0.2433,145.6,97.0,0.518
39.78,31818.8,34744.5,-0.731,-0.6298,145.6,97.0,0.518
39.8,31917.7,34649.4,-0.3305,-0.8638,145.6,97.0,0.518
39.82,31818.9,34662.3,-0.7303,-0.832,145.6,97.0,0.518
39.84,31789.0,34582.5,-0.8516,-1.0283,145.6,97.0,0.518
39.86,31743.1,34694.3,-1.0373,-0.7534,145.6,97.0,0.518
39.88,31775.8,34597.9,-0.9049,-0.9906,145.6,97.0,0.518
39.9,31754.4,34423.5,-0.9917,-1.4196,145.6,97.0,0.518
39.92,31732.9,34562.2,-1.0784,-1.0783,145.6,97.0,0.518
39.94,31886.2,34666.8,-0.458,-0.8209,145.6,97.0,0.518
39.96,31951.2,35003.1,-0.1953,0.0063,145.6,97.0,0.518
39.98,32178.1,35428.7,0.7231,1.0534,145.6,97.0,0.518
40.0,32277.1,35632.2,1.1238,1.5539,145.6,97.0,0.518
40.02,32278.5,35640.4,1.1294,1.5743,145.6,97.0,0.519
40.04,32325.5,35646.3,1.3196,1.5888,145.6,97.0,0.519
40.06,32186.7,35451.1,0.7578,1.1085,145.6,97.0,0.52
40.08,32156.8,35331.5,0.6371,0.8144,145.5,97.0,0.52
40.1,32107.3,35183.8,0.4366,0.4508,145.5,97.0,0.521
40.12,32048.6,35107.9,0.1992,0.2641,145.5,97.0,0.521
40.14,32089.4,35021.7,0.3642,0.0521,145.5,97.0,0.522
40.16,31935.8,34877.8,-0.2573,-0.3019,145.5,96.9,0.522
40.18,31916.5,34881.9,-0.3354,-0.2918,145.4,96.9,0.523
40.2,31938.4,34757.3,-0.2469,-0.5982,145.4,96.9,0.523
40.22,31792.5,34670.7,-0.8372,-0.8113,145.4,96.9,0.524
40.24,31846.3,34681.1,-0.6197,-0.7858,145.4,96.9,0.524
40.26,31972.5,34603.8,-0.1089,-0.9759,145.4,96.9,0.525
40.28,31837.9,34538.9,-0.6535,-1.1355,145.3,96.9,0.525
40.3,31681.0,34567.4,-1.2886,-1.0654,145.3,96.9,0.526
40.32,31609.0,34386.1,-1.5798,-1.5117,145.3,96.8,0.526
40.34,31742.0,34551.3,-1.0418,-1.1052,145.3,96.8,0.527
40.36,31859.5,34885.9,-0.5661,-0.282,145.3,96.8,0.527
40.38,32038.5,35202.2,0.1584,0.4962,145.2,96.8,0.528
40.4,32130.9,35539.9,0.5321,1.3269,145.2,96.8,0.528
40.42,32371.3,35782.7,1.505,1.9243,145.2,96.8,0.529
40.44,32330.0,35730.6,1.338,1.796,145.2,96.8,0.529
40.46,32241.6,35587.1,0.9802,1.4431,145.2,96.8,0.53
40.48,32216.7,35426.1,0.8795,1.0469,145.1,96.7,0.53
40.5,32036.1,35249.8,0.1486,0.6132,145.1,96.7,0.531
40.52,32009.4,35162.8,0.0404,0.3993,145.1,96.7,0.531
40.54,31948.8,35107.1,-0.2047,0.2623,145.1,96.7,0.532
40.56,32000.0,35109.6,0.0022,0.2684,145.1,96.7,0.532
40.58,31886.6,34920.3,-0.4566,-0.1972,145.0,96.7,0.533
40.6,31812.6,34747.3,-0.7562,-0.6229,145.0,96.7,0.533
40.62,31892.2,34678.7,-0.434,-0.7917,145.0,96.7,0.534
40.64,31816.0,34709.5,-0.7423,-0.716,145.0,96.6,0.534
40.66,31816.3,34691.3,-0.7409,-0.7607,145.0,96.6,0.535
40.68,31810.4,34528.6,-0.7649,-1.1609,144.9,96.6,0.535
40.7,31684.3,34494.4,-1.2752,-1.2451,144.9,96.6,0.536
40.72,31778.0,34475.6,-0.8959,-1.2914,144.9,96.6,0.536
40.74,31665.7,34475.3,-1.3503,-1.292,144.9,96.6,0.537
40.76,31849.1,34638.7,-0.6084,-0.8901,144.9,96.6,0.537
40.78,31835.5,34922.5,-0.6633,-0.1919,144.8,96.6,0.538
40.8,32226.9,35331.4,0.9208,0.8141,144.8,96.5,0.538
40.82,32282.1,35676.8,1.1441,1.6637,144.8,96.5,0.539
40.84,32274.9,35689.5,1.1147,1.6951,144.8,96.5,0.539
40.86,32378.5,35733.8,1.5341,1.8041,144.8,96.5,0.54
40.88,32261.4,35667.7,1.0603,1.6413,144.7,96.5,0.541
40.9,32139.3,35276.2,0.5661,0.6783,144.7,96.5,0.541
40.92,32146.8,35213.6,0.5963,0.5243,144.7,96.5,0.542
40.94,32006.6,35106.3,0.0293,0.2602,144.7,96.4,0.542
40.96,31998.2,35090.4,-0.005,0.2212,144.7,96.4,0.543
40.98,32003.2,35039.2,0.0154,0.0951,144.6,96.4,0.543
41.0,31885.3,34854.1,-0.4619,-0.3601,144.6,96.4,0.544
41.02,31918.5,34732.0,-0.3273,-0.6606,144.6,96.4,0.544
41.04,31858.8,34650.9,-0.5691,-0.86,144.6,96.4,0.545
41.06,31855.2,34707.6,-0.5837,-0.7205,144.6,96.4,0.545
41.08,31721.7,34772.9,-1.124,-0.56,144.5,96.4,0.546
41.1,31767.4,34691.5,-0.9387,-0.7601,144.5,96.3,0.546
41.12,31765.5,34483.9,-0.9465,-1.2709,144.5,96.3,0.547
41.14,31758.5,34362.1,-0.9748,-1.5705,144.5,96.3,0.547
41.16,31773.4,34485.6,-0.9145,-1.2667,144.5,96.3,0.548
41.18,31903.2,34750.0,-0.3895,-0.6164,144.4,96.3,0.548
41.2,32037.6,35008.9,0.1546,0.0206,144.4,96.3,0.549
41.22,32157.9,35378.9,0.6415,0.9308,144.4,96.3,0.549
41.24,32319.3,35669.1,1.2944,1.6447,144.4,96.3,0.55
41.26,32310.9,35742.7,1.2606,1.8258,144.4,96.2,0.55
41.28,32374.5,35688.3,1.5179,1.692,144.3,96.2,0.551
41.3,32221.6,35516.9,0.899,1.2705,144.3,96.2,0.551
41.32,32099.0,35236.0,0.4032,0.5793,144.3,96.2,0.552
41.34,32109.4,35122.8,0.4449,0.301,144.3,96.2,0.552
41.36,32070.5,35121.2,0.2879,0.2968,144.3,96.2,0.553
41.38,31929.5,35055.7,-0.2828,0.1359,144.2,96.2,0.553
41.4,32056.5,34970.0,0.2309,-0.0751,144.2,96.2,0.554
41.42,31984.5,34879.1,-0.0603,-0.2988,144.2,96.1,0.554
41.44,31869.1,34710.4,-0.5274,-0.7136,144.2,96.1,0.555
41.46,31832.3,34759.2,-0.6761,-0.5936,144.2,96.1,0.555
41.48,31861.8,34665.2,-0.557,-0.8249,144.1,96.1,0.556
41.5,31888.7,34640.5,-0.448,-0.8858,144.1,96.1,0.556
41.52,31786.9,34665.5,-0.8599,-0.8242,144.1,96.1,0.557
41.54,31782.7,34445.4,-0.8771,-1.3657,144.1,96.1,0.557
41.56,31726.0,34405.7,-1.1063,-1.4633,144.1,96.1,0.558
41.58,31705.2,34502.0,-1.1904,-1.2264,144.0,96.0,0.558
41.6,31908.8,34772.7,-0.3667,-0.5604,144.0,96.0,0.559
41.62,32083.4,35003.6,0.3398,0.0076,144.0,96.0,0.559
41.64,32234.4,35445.2,0.9511,1.094,144.0,96.0,0.56
41.66,32291.9,35735.4,1.1838,1.808,144.0,96.0,0.56
41.68,32315.1,35705.3,1.2777,1.734,143.9,96.0,0.561
41.7,32233.5,35565.0,0.9472,1.3888,143.9,96.0,0.561
41.72,32227.8,35496.1,0.9242,1.2193,143.9,96.0,0.562
41.74,32122.4,35216.8,0.4977,0.5322,143.9,95.9,0.562
41.76,32100.6,35143.8,0.4095,0.3525,143.9,95.9,0.563
41.78,31948.6,35087.9,-0.2057,0.215,143.8,95.9,0.563
41.8,32034.8,35055.5,0.1434,0.1353,143.8,95.9,0.564
41.82,31905.7,34965.9,-0.3791,-0.0851,143.8,95.9,0.564
41.84,31931.0,34768.9,-0.2768,-0.5697,143.8,95.9,0.565
41.86,31874.0,34663.4,-0.5074,-0.8294,143.8,95.9,0.565
41.88,31900.9,34658.9,-0.3987,-0.8403,143.7,95.9,0.566
41.9,31824.7,34636.9,-0.707,-0.8947,143.7,95.8,0.566
41.92,31823.0,34569.7,-0.7138,-1.0599,143.7,95.8,0.567
41.94,31668.3,34552.2,-1.3398,-1.1028,143.7,95.8,0.567
41.96,31750.6,34462.6,-1.0068,-1.3233,143.7,95.8,0.568
41.98,31648.4,34436.1,-1.4205,-1.3885,143.6,95.8,0.569
42.0,31824.4,34408.2,-0.7084,-1.4572,143.6,95.8,0.569
42.02,31837.3,34818.0,-0.6561,-0.449,143.6,95.8,0.57
42.04,32135.7,35101.1,0.5517,0.2476,143.6,95.7,0.57
42.06,32208.0,35414.5,0.8441,1.0185,143.6,95.7,0.571
42.08,32461.4,35673.1,1.8696,1.6546,143.5,95.7,0.571
42.1,32312.3,35697.5,1.2661,1.7146,143.5,95.7,0.572
42.12,32334.8,35568.5,1.3573,1.3973,143.5,95.7,0.572
42.14,32201.0,35519.8,0.8159,1.2776,143.5,95.7,0.573
42.16,32099.0,35308.8,0.4029,0.7583,143.5,95.7,0.573
42.18,32131.5,35047.9,0.5345,0.1167,143.4,95.7,0.574
42.2,32081.0,35103.5,0.33,0.2534,143.4,95.6,0.574
42.22,31990.9,34990.2,-0.0345,-0.0254,143.4,95.6,0.575
42.24,31892.9,34892.2,-0.431,-0.2664,143.4,95.6,0.575
42.26,31936.3,34850.3,-0.2554,-0.3695,143.4,95.6,0.576
42.28,31846.6,34723.2,-0.6183,-0.6823,143.3,95.6,0.576
42.3,31851.1,34707.5,-0.6002,-0.7209,143.3,95.6,0.577
42.32,31920.3,34677.2,-0.3199,-0.7953,143.3,95.6,0.577
42.34,31836.3,34640.1,-0.6602,-0.8868,143.3,95.6,0.578
42.36,31709.1,34582.8,-1.175,-1.0277,143.3,95.5,0.578
42.38,31740.8,34399.3,-1.0464,-1.4791,143.2,95.5,0.579
42.4,31662.6,34461.4,-1.3631,-1.3263,143.2,95.5,0.579
42.42,31691.5,34509.1,-1.2461,-1.2089,143.2,95.5,0.58
42.44,31829.9,34846.9,-0.686,-0.378,143.2,95.5,0.58
42.46,32089.1,35187.5,0.3628,0.4601,143.2,95.5,0.581
42.48,32302.2,35535.8,1.2252,1.317,143.1,95.5,0.581
42.5,32422.3,35665.6,1.7114,1.6362,143.1,95.5,0.582
42.52,32360.2,35781.1,1.4601,1.9204,143.1,95.4,0.582
42.54,32367.9,35597.8,1.4913,1.4694,143.1,95.4,0.583
42.56,32228.3,35352.1,0.9263,0.8648,143.1,95.4,0.583
42.58,32220.5,35192.5,0.8946,0.4723,143.0,95.4,0.584
42.6,32269.8,35126.5,1.0944,0.3099,143.0,95.4,0.584
42.62,32038.2,35108.9,0.1569,0.2668,143.0,95.4,0.585
42.64,32104.5,35065.3,0.4254,0.1595,143.0,95.4,0.585
42.66,31886.8,34878.3,-0.4555,-0.3006,143.0,95.4,0.586
42.68,31826.9,34776.7,-0.698,-0.5505,142.9,95.3,0.586
42.7,31823.4,34676.4,-0.7123,-0.7973,142.9,95.3,0.587
42.72,31835.4,34701.6,-0.6636,-0.7354,142.9,95.3,0.587
42.74,31814.4,34640.1,-0.7486,-0.8868,142.9,95.3,0.588
42.76,31783.4,34569.3,-0.874,-1.0609,142.9,95.3,0.588
42.78,31754.6,34518.1,-0.9906,-1.1868,142.8,95.3,0.589
42.8,31642.4,34440.9,-1.4447,-1.3766,142.8,95.3,0.589
42.82,31715.3,34466.8,-1.1499,-1.313,142.8,95.3,0.59
42.84,31754.6,34543.9,-0.9907,-1.1234,142.8,95.2,0.59
42.86,31902.4,34777.5,-0.3927,-0.5487,142.8,95.2,0.591
42.88,32055.3,35200.3,0.2261,0.4916,142.7,95.2,0.591
42.9,32298.3,35556.7,1.2096,1.3683,142.7,95.2,0.592
42.92,32386.6,35708.1,1.567,1.7407,142.7,95.2,0.592
42.94,32376.2,35778.9,1.5248,1.915,142.7,95.2,0.593
42.96,32285.0,35595.2,1.1558,1.4631,142.7,95.2,0.593
42.98,32197.6,35312.7,0.8019,0.7681,142.6,95.2,0.594
43.0,32042.0,35309.8,0.1725,0.7608,142.6,95.1,0.594
43.02,32080.7,35213.3,0.329,0.5234,142.6,95.1,0.595
43.04,32067.8,35122.9,0.2769,0.3011,142.6,95.1,0.595
43.06,31991.5,35093.3,-0.0318,0.2283,142.6,95.1,0.596
43.08,31920.9,34979.0,-0.3176,-0.0528,142.5,95.1,0.597
43.1,31973.4,34859.0,-0.1054,-0.348,142.5,95.1,0.597
43.12,31779.3,34756.3,-0.8906,-0.6008,142.5,95.1,0.598
43.14,31870.5,34785.9,-0.5215,-0.528,142.5,95.0,0.598
43.16,31739.8,34744.3,-1.0505,-0.6304,142.5,95.0,0.599
43.18,31866.1,34683.0,-0.5397,-0.7812,142.4,95.0,0.599
43.2,31740.6,34566.0,-1.0473,-1.0689,142.4,95.0,0.6
43.22,31716.0,34523.2,-1.1471,-1.1742,142.4,95.0,0.6
43.24,31733.0,34374.3,-1.0779,-1.5406,142.4,95.0,0.601
43.26,31725.5,34486.0,-1.1083,-1.2658,142.4,95.0,0.601
43.28,31843.5,34843.4,-0.6308,-0.3866,142.3,95.0,0.602
43.3,32071.9,35039.2,0.2935,0.0952,142.3,94.9,0.602
43.32,32260.8,35491.2,1.0579,1.2072,142.3,94.9,0.603
43.34,32339.9,35828.9,1.3778,2.0381,142.3,94.9,0.603
43.36,32445.8,35725.6,1.8064,1.7838,142.3,94.9,0.604
43.38,32359.4,35728.8,1.4569,1.7916,142.2,94.9,0.604
43.4,32257.2,35377.5,1.0433,0.9275,142.2,94.9,0.605
43.42,32165.0,35237.7,0.6701,0.5835,142.2,94.9,0.605
43.44,32049.2,35178.7,0.2014,0.4383,142.2,94.9,0.606
43.46,32003.6,35113.1,0.0168,0.2769,142.2,94.8,0.606
43.48,31921.2,34999.1,-0.3166,-0.0035,142.1,94.8,0.607
43.5,31906.3,34880.0,-0.3769,-0.2965,142.1,94.8,0.607
43.52,31896.8,34932.1,-0.4154,-0.1684,142.1,94.8,0.608
43.54,31837.8,34686.2,-0.6538,-0.7733,142.1,94.8,0.608
43.56,31876.9,34623.3,-0.4956,-0.928,142.1,94.8,0.609
43.58,31759.1,34724.3,-0.9724,-0.6796,142.0,94.8,0.609
43.6,31794.1,34653.3,-0.8311,-0.8543,142.0,94.8,0.61
43.62,31720.6,34587.9,-1.1281,-1.015,142.0,94.7,0.61
43.64,31738.4,34551.3,-1.0561,-1.105,142.0,94.7,0.611
43.66,31700.5,34465.1,-1.2097,-1.3173,142.0,94.7,0.611
43.68,31773.0,34589.8,-0.9161,-1.0103,141.9,94.7,0.612
43.7,31930.1,34790.9,-0.2803,-0.5158,141.9,94.7,0.612
43.72,31982.7,35117.9,-0.0676,0.2887,141.9,94.7,0.613
43.74,32302.8,35531.6,1.2278,1.3066,141.9,94.7,0.613
43.76,32417.5,35794.7,1.6919,1.9538,141.9,94.7,0.614
43.78,32439.1,35707.5,1.7793,1.7394,141.8,94.6,0.614
43.8,32405.6,35607.4,1.6437,1.4931,141.8,94.6,0.615
43.82,32184.8,35400.5,0.7502,0.9841,141.8,94.6,0.615
43.84,32318.4,35290.4,1.2909,0.713,141.8,94.6,0.616
43.86,32034.4,35095.6,0.1416,0.2339,141.8,94.6,0.616
43.88,32073.7,35124.9,0.3005,0.3061,141.7,94.6,0.617
43.9,31965.9,35046.3,-0.1354,0.1126,141.7,94.6,0.617
43.92,31999.4,34936.1,-0.0002,-0.1584,141.7,94.6,0.618
43.94,31861.6,34862.4,-0.5579,-0.3398,141.7,94.5,0.618
43.96,31878.2,34773.7,-0.4905,-0.5579,141.7,94.5,0.619
43.98,31882.4,34647.0,-0.4733,-0.8697,141.6,94.5,0.619
44.0,31810.6,34718.9,-0.7642,-0.6929,141.6,94.5,0.62
44.02,31775.4,34633.1,-0.9064,-0.904,141.6,94.5,0.62
44.04,31689.8,34601.3,-1.2531,-0.982,141.6,94.5,0.621
44.06,31752.7,34489.6,-0.9982,-1.2568,141.6,94.5,0.621
44.08,31613.4,34399.8,-1.5623,-1.4778,141.5,94.5,0.622
44.1,31762.3,34392.9,-0.9597,-1.4948,141.5,94.4,0.622
44.12,31795.6,34708.5,-0.8248,-0.7184,141.5,94.4,0.623
44.14,32040.8,35024.9,0.1673,0.06,141.5,94.4,0.623
44.16,32178.8,35405.6,0.7258,0.9965,141.5,94.4,0.624
44.18,32407.6,35648.3,1.6518,1.5936,141.4,94.4,0.625
44.2,32400.4,35727.3,1.6229,1.788,141.4,94.4,0.625
44.22,32306.9,35688.6,1.2443,1.6929,141.4,94.4,0.626
44.24,32271.6,35427.6,1.1013,1.0508,141.4,94.3,0.626
44.26,32259.3,35284.3,1.0516,0.6981,141.4,94.3,0.627
44.28,32125.6,35158.5,0.5108,0.3886,141.3,94.3,0.627
44.3,32110.5,35087.8,0.4496,0.2147,141.3,94.3,0.628
44.32,32064.2,35153.8,0.262,0.3772,141.3,94.3,0.628
44.34,31994.7,35136.9,-0.0192,0.3355,141.3,94.3,0.629
44.36,31774.2,34783.4,-0.9112,-0.5342,141.3,94.3,0.629
44.38,31825.9,34819.4,-0.7021,-0.4457,141.2,94.3,0.63
44.4,31857.8,34635.1,-0.5729,-0.899,141.2,94.2,0.63
44.42,31749.8,34672.2,-1.0101,-0.8077,141.2,94.2,0.631
44.44,31873.1,34668.5,-0.511,-0.8167,141.2,94.2,0.631
44.46,31730.3,34555.9,-1.0892,-1.0937,141.2,94.2,0.632
44.48,31745.5,34479.0,-1.0274,-1.2831,141.1,94.2,0.632
44.5,31708.3,34518.1,-1.1782,-1.1869,141.1,94.2,0.633
44.52,31613.7,34385.4,-1.5611,-1.5134,141.1,94.2,0.633
44.54,31814.8,34569.4,-0.747,-1.0606,141.1,94.2,0.634
44.56,31894.7,34945.2,-0.4239,-0.1361,141.1,94.1,0.634
44.58,32300.9,35315.1,1.2201,0.7739,141.0,94.1,0.635
44.6,32362.7,35557.1,1.47,1.3694,141.0,94.1,0.635
44.62,32517.9,35738.7,2.0982,1.816,141.0,94.1,0.636
44.64,32433.0,35688.6,1.7548,1.6928,141.0,94.1,0.636
44.66,32341.4,35551.7,1.384,1.3559,141.0,94.1,0.637
44.68,32159.1,35334.1,0.6461,0.8207,140.9,94.1,0.637
44.7,32111.6,35167.4,0.454,0.4107,140.9,94.1,0.638
44.72,32134.2,35151.6,0.5453,0.3718,140.9,94.0,0.638
44.74,31958.9,35140.8,-0.164,0.3452,140.9,94.0,0.639
44.76,31992.7,35077.7,-0.027,0.1899,140.9,94.0,0.639
44.78,31956.2,34918.9,-0.1747,-0.2008,140.8,94.0,0.64
44.8,31940.7,34807.5,-0.2378,-0.4748,140.8,94.0,0.64
44.82,31790.6,34657.0,-0.8449,-0.845,140.8,94.0,0.641
44.84,31866.3,34678.2,-0.5385,-0.7929,140.8,94.0,0.641
44.86,31782.8,34768.7,-0.8767,-0.5703,140.8,94.0,0.642
44.88,31758.1,34651.2,-0.9767,-0.8594,140.7,93.9,0.642
