timestamp,raw_red,raw_ir,filtered_red,filtered_ir,heart_rate,spo2,ac_dc_ratio
0.0,32000.7,35168.8,-0.0003,0.415,143.7,98.5,0.46
0.02,32225.9,35582.5,0.9307,1.4318,143.7,98.5,0.46
0.04,32330.3,35790.8,1.3622,1.9441,143.7,98.5,0.46
0.06,32320.6,35661.3,1.3219,1.6257,143.7,98.5,0.46
0.08,32147.9,35621.5,0.6084,1.5279,143.7,98.5,0.46
0.1,32194.5,35326.4,0.8009,0.8022,143.7,98.5,0.46
0.12,31996.8,35242.8,-0.0164,0.5968,143.7,98.5,0.46
0.14,32032.4,35180.6,0.1306,0.4439,143.7,98.5,0.46
0.16,31981.5,35093.8,-0.0798,0.2305,143.7,98.5,0.46
0.18,31987.6,35033.8,-0.0543,0.083,143.7,98.5,0.46
0.2,31933.0,34973.5,-0.2799,-0.0652,143.7,98.5,0.46
0.22,31956.2,34773.3,-0.1843,-0.5574,143.7,98.5,0.46
0.24,31875.0,34728.7,-0.52,-0.6669,143.7,98.5,0.46
0.26,31882.8,34644.3,-0.4875,-0.8746,143.7,98.5,0.46
0.28,31801.2,34619.0,-0.825,-0.9366,143.7,98.5,0.46
0.3,31799.6,34779.1,-0.8316,-0.5432,143.7,98.5,0.46
0.32,31873.4,34519.7,-0.5264,-1.1808,143.7,98.5,0.46
0.34,31767.6,34594.4,-0.9639,-0.9972,143.7,98.5,0.46
0.36,31712.3,34346.4,-1.1924,-1.6069,143.7,98.5,0.46
0.38,31870.2,34588.5,-0.5396,-1.0116,143.7,98.5,0.46
0.4,31934.4,34782.6,-0.2741,-0.5345,143.7,98.5,0.46
0.42,32067.4,35207.2,0.2754,0.5093,143.7,98.5,0.46
0.44,32228.5,35633.2,0.9413,1.5567,143.7,98.5,0.46
0.46,32226.1,35712.8,0.9314,1.7523,143.7,98.5,0.46
0.48,32315.7,35754.2,1.3019,1.8541,143.7,98.5,0.46
0.5,32168.8,35633.5,0.6947,1.5572,143.7,98.5,0.46
0.52,32173.8,35429.2,0.7151,1.0551,143.7,98.5,0.46
0.54,32130.6,35084.3,0.5365,0.2073,143.7,98.5,0.46
0.56,32093.4,35107.1,0.3828,0.2631,143.7,98.5,0.46
0.58,32087.7,35076.4,0.3594,0.1878,143.7,98.5,0.46
0.6,32005.5,34992.6,0.0198,-0.0183,143.7,98.5,0.46
0.62,32050.0,34858.8,0.2035,-0.3471,143.7,98.5,0.46
0.64,31861.0,34821.3,-0.5775,-0.4395,143.7,98.5,0.46
0.66,31896.6,34638.4,-0.4303,-0.8889,143.7,98.5,0.46
0.68,31784.1,34713.2,-0.8956,-0.7052,143.7,98.5,0.46
0.7,31883.7,34692.1,-0.4839,-0.7569,143.7,98.5,0.46
0.72,31831.7,34625.8,-0.6987,-0.9199,143.7,98.5,0.46
0.74,31840.8,34505.3,-0.6613,-1.2163,143.7,98.5,0.46
0.76,31799.7,34468.5,-0.8311,-1.3066,143.7,98.5,0.46
0.78,31772.3,34416.5,-0.9441,-1.4344,143.7,98.5,0.46
0.8,31766.7,34581.6,-0.9674,-1.0286,143.7,98.5,0.46
0.82,32049.9,34829.8,0.203,-0.4185,143.7,98.5,0.46
0.84,32203.1,35360.2,0.8365,0.8855,143.7,98.5,0.46
0.86,32279.4,35547.6,1.1519,1.3463,143.7,98.5,0.46
0.88,32283.9,35764.2,1.1702,1.8785,143.7,98.5,0.46
0.9,32358.8,35716.3,1.48,1.7609,143.7,98.5,0.46
0.92,32245.7,35576.3,1.0123,1.4168,143.7,98.5,0.46
0.94,32142.6,35409.8,0.5861,1.0074,143.7,98.5,0.46
0.96,32067.6,35168.0,0.2764,0.4128,143.7,98.5,0.46
0.98,32033.6,35168.9,0.1358,0.4151,143.7,98.5,0.46
1.0,32004.0,35179.3,0.0136,0.4406,143.7,98.5,0.46
1.02,31934.7,35035.9,-0.2731,0.0882,143.7,98.5,0.46
1.04,31977.0,34857.8,-0.098,-0.3496,143.7,98.5,0.46
1.06,31962.7,34808.9,-0.1574,-0.4698,143.7,98.5,0.46
1.08,31906.6,34711.0,-0.389,-0.7105,143.7,98.5,0.46
1.1,31847.2,34697.4,-0.6347,-0.744,143.7,98.5,0.46
1.12,31917.4,34613.0,-0.3446,-0.9516,143.7,98.5,0.46
1.14,31811.5,34646.6,-0.7821,-0.869,143.7,98.5,0.46
1.16,31834.7,34555.7,-0.6862,-1.0922,143.7,98.5,0.46
1.18,31760.4,34460.2,-0.9936,-1.3271,143.7,98.5,0.46
1.2,31833.4,34582.2,-0.6918,-1.0272,143.7,98.5,0.46
1.22,31742.5,34591.7,-1.0674,-1.0038,143.7,98.5,0.46
1.24,32018.7,34932.0,0.074,-0.1671,143.7,98.5,0.46
1.26,32108.6,35347.4,0.4456,0.8541,143.7,98.5,0.46
1.28,32276.9,35573.1,1.1413,1.4089,143.7,98.5,0.46
1.3,32397.7,35820.2,1.6406,2.0162,143.7,98.5,0.46
1.32,32317.3,35693.9,1.3082,1.7058,143.7,98.5,0.46
1.34,32205.4,35573.1,0.846,1.4088,143.7,98.5,0.46
1.36,32124.1,35306.5,0.5097,0.7534,143.7,98.5,0.46
1.38,31997.7,35227.4,-0.0127,0.559,143.7,98.5,0.46
1.4,32077.4,35146.5,0.3168,0.3601,143.7,98.5,0.46
1.42,32053.2,35091.1,0.2169,0.224,143.7,98.5,0.46
1.44,32042.5,34928.9,0.1725,-0.1748,143.7,98.5,0.46
1.46,32008.3,34830.3,0.0311,-0.4172,143.7,98.5,0.46
1.48,31938.1,34828.7,-0.259,-0.4211,143.7,98.5,0.46
1.5,31867.2,34613.8,-0.5521,-0.9495,143.7,98.5,0.46
1.52,31794.5,34656.8,-0.8524,-0.8437,143.7,98.5,0.46
1.54,31788.3,34606.4,-0.878,-0.9677,143.7,98.5,0.46
1.56,31932.7,34610.6,-0.2812,-0.9573,143.7,98.5,0.46
1.58,31794.4,34537.0,-0.8528,-1.1382,143.7,98.5,0.46
1.6,31699.6,34401.3,-1.2448,-1.4719,143.7,98.5,0.46
1.62,31806.2,34407.8,-0.8043,-1.456,143.7,98.5,0.46
1.64,31860.4,34657.9,-0.5801,-0.841,143.7,98.5,0.46
1.66,31972.5,35010.1,-0.1167,0.0247,143.7,98.5,0.46
1.68,32198.2,35384.7,0.816,0.9458,143.7,98.5,0.46
1.7,32363.9,35623.5,1.5011,1.5327,143.7,98.5,0.46
1.72,32348.5,35807.8,1.4372,1.9857,143.7,98.5,0.46
1.74,32291.4,35734.8,1.2012,1.8063,143.7,98.5,0.46
1.76,32242.9,35524.4,1.0008,1.2891,143.7,98.5,0.46
1.78,32228.1,35299.8,0.9398,0.7371,143.7,98.5,0.46
1.8,32119.4,35121.9,0.4903,0.2995,143.7,98.5,0.46
1.82,32112.0,35089.4,0.4599,0.2198,143.7,98.5,0.46
1.84,32028.3,35106.1,0.1139,0.2607,143.7,98.5,0.46
1.86,32098.1,35001.2,0.4025,0.003,143.7,98.5,0.46
1.88,31967.7,34829.2,-0.1366,-0.4199,143.7,98.5,0.46
1.9,31922.2,34777.2,-0.3248,-0.5478,143.7,98.5,0.46
1.92,31907.6,34710.2,-0.3852,-0.7125,143.7,98.5,0.46
1.94,31866.7,34619.6,-0.5541,-0.9351,143.7,98.5,0.46
1.96,31832.8,34689.0,-0.6944,-0.7647,143.7,98.5,0.46
1.98,31872.5,34696.7,-0.5302,-0.7457,143.7,98.5,0.46
2.0,31793.0,34531.2,-0.8585,-1.1526,143.7,98.5,0.46
2.02,31803.3,34491.2,-0.816,-1.251,143.7,98.5,0.46
2.04,31830.9,34531.1,-0.7022,-1.1529,143.7,98.5,0.46
2.06,31822.4,34666.7,-0.7371,-0.8196,143.7,98.5,0.46
2.08,31975.1,34991.2,-0.106,-0.0217,143.7,98.5,0.46
2.1,32065.6,35394.9,0.2678,0.9707,143.7,98.5,0.46
2.12,32286.4,35633.2,1.1805,1.5566,143.7,98.5,0.46
2.14,32303.2,35829.1,1.2503,2.0382,143.7,98.5,0.46
2.16,32309.8,35718.4,1.2775,1.7661,143.7,98.5,0.46
2.18,32192.3,35586.2,0.7919,1.441,143.7,98.5,0.46
2.2,32175.3,35314.5,0.7215,0.7732,143.7,98.5,0.46
2.22,32044.8,35206.2,0.1822,0.5068,143.7,98.5,0.46
2.24,32011.3,35080.4,0.0435,0.1975,143.7,98.5,0.46
2.26,31957.5,35071.5,-0.1787,0.1756,143.7,98.5,0.46
2.28,31949.8,34906.6,-0.2106,-0.2297,143.7,98.5,0.46
2.3,31900.8,34910.8,-0.413,-0.2193,143.7,98.5,0.46
2.32,31854.9,34722.9,-0.6028,-0.6814,143.7,98.5,0.46
2.34,31905.5,34607.3,-0.3939,-0.9656,143.7,98.5,0.46
2.36,31867.7,34654.2,-0.5499,-0.8502,143.7,98.5,0.46
2.38,31816.3,34696.6,-0.7623,-0.746,143.7,98.5,0.46
2.4,31827.5,34584.6,-0.7161,-1.0213,143.7,98.5,0.46
2.42,31806.2,34559.1,-0.8044,-1.084,143.7,98.5,0.46
2.44,31810.4,34483.5,-0.7867,-1.2698,143.7,98.5,0.46
2.46,31803.7,34502.3,-0.8146,-1.2237,143.7,98.5,0.46
2.48,31856.8,34726.4,-0.5951,-0.6727,143.7,98.5,0.46
2.5,31970.8,35067.0,-0.1239,0.1648,143.7,98.5,0.46
2.52,32131.2,35467.2,0.5392,1.1484,143.7,98.5,0.46
2.54,32333.5,35669.6,1.3753,1.646,143.7,98.5,0.46
2.56,32337.4,35746.7,1.3916,1.8356,143.7,98.5,0.46
2.58,32261.6,35631.1,1.0782,1.5513,143.7,98.5,0.46
2.6,32243.4,35415.3,1.0031,1.0209,143.7,98.5,0.46
2.62,32132.5,35244.2,0.5446,0.6002,143.7,98.5,0.46
2.64,32056.2,35193.0,0.2293,0.4743,143.7,98.5,0.46
2.66,32022.5,35114.4,0.09,0.2812,143.7,98.5,0.46
2.68,32005.0,35010.3,0.0176,0.0253,143.7,98.5,0.46
2.7,31948.6,34848.9,-0.2156,-0.3714,143.7,98.5,0.46
2.72,31939.1,34830.6,-0.255,-0.4166,143.7,98.5,0.46
2.74,31873.8,34658.7,-0.5246,-0.8392,143.7,98.5,0.46
2.76,31859.5,34656.1,-0.5838,-0.8456,143.7,98.5,0.46
2.78,31891.9,34660.6,-0.4501,-0.8346,143.7,98.5,0.46
2.8,31776.9,34649.2,-0.9251,-0.8625,143.7,98.5,0.46
2.82,31802.7,34554.4,-0.8186,-1.0954,143.7,98.5,0.46
2.84,31822.0,34602.3,-0.7387,-0.9779,143.7,98.5,0.46
2.86,31762.7,34442.8,-0.9841,-1.3699,143.7,98.5,0.46
2.88,31764.8,34554.7,-0.9753,-1.0949,143.7,98.5,0.46
2.9,31839.7,34679.1,-0.6656,-0.7888,143.7,98.5,0.46
2.92,32131.0,35201.6,0.5384,0.4955,143.7,98.5,0.46
2.94,32229.6,35506.4,0.9458,1.245,143.7,98.5,0.46
2.96,32335.4,35716.6,1.3832,1.7615,143.7,98.5,0.46
2.98,32372.2,35724.6,1.5352,1.7813,143.7,98.5,0.46
3.0,32379.8,35549.4,1.5668,1.3505,143.7,98.5,0.46
3.02,32239.5,35437.3,0.9867,1.0751,143.7,98.5,0.46
3.04,32095.4,35258.3,0.3913,0.6351,143.7,98.5,0.46
3.06,32075.7,35098.8,0.3098,0.2429,143.7,98.5,0.46
3.08,32097.5,34995.8,0.3999,-0.0103,143.7,98.5,0.46
3.1,32120.0,35088.0,0.493,0.2163,143.7,98.5,0.46
3.12,31951.7,34952.5,-0.2029,-0.1168,143.7,98.5,0.46
3.14,31969.2,34930.1,-0.1306,-0.172,143.7,98.5,0.46
3.16,31899.2,34733.0,-0.4197,-0.6564,143.7,98.5,0.46
3.18,31828.8,34676.5,-0.7107,-0.7953,143.7,98.5,0.46
3.2,31860.8,34667.1,-0.5786,-0.8185,143.7,98.5,0.46
3.22,31786.7,34606.9,-0.8848,-0.9665,143.7,98.5,0.46
3.24,31695.9,34519.2,-1.26,-1.182,143.7,98.5,0.46
3.26,31682.4,34551.3,-1.3159,-1.103,143.7,98.5,0.46
3.28,31803.3,34427.6,-0.816,-1.4072,143.7,98.5,0.46
3.3,31825.0,34597.5,-0.7265,-0.9895,143.7,98.5,0.46
3.32,31926.3,34772.3,-0.3079,-0.5599,143.7,98.5,0.46
3.34,32062.1,35182.1,0.2536,0.4477,143.7,98.5,0.46
3.36,32153.4,35514.3,0.6308,1.2643,143.7,98.5,0.46
3.38,32329.8,35776.0,1.3599,1.9075,143.7,98.5,0.46
3.4,32294.0,35719.9,1.2121,1.7698,143.7,98.5,0.46
3.42,32287.7,35566.8,1.1861,1.3933,143.7,98.5,0.46
3.44,32127.4,35425.1,0.5233,1.0451,143.7,98.5,0.46
3.46,32147.9,35151.8,0.6082,0.3731,143.7,98.5,0.46
3.48,32128.9,35099.3,0.5298,0.2441,143.7,98.5,0.46
3.5,32031.6,35100.2,0.1274,0.2462,143.7,98.5,0.46
3.52,32055.2,35065.7,0.2252,0.1615,143.7,98.5,0.46
3.54,31937.9,34941.9,-0.2598,-0.1428,143.7,98.5,0.46
3.56,31989.0,34761.7,-0.0485,-0.586,143.7,98.5,0.46
3.58,31919.8,34811.7,-0.3348,-0.4629,143.7,98.5,0.46
3.6,31751.8,34676.4,-1.029,-0.7955,143.7,98.5,0.46
3.62,31906.0,34586.2,-0.3916,-1.0174,143.7,98.5,0.46
3.64,31829.1,34625.8,-0.7097,-0.92,143.7,98.5,0.46
3.66,31892.5,34503.5,-0.4473,-1.2207,143.7,98.5,0.46
3.68,31836.2,34504.7,-0.6802,-1.2176,143.7,98.5,0.46
3.7,31770.2,34460.1,-0.9531,-1.3274,143.7,98.5,0.46
3.72,31848.6,34601.7,-0.629,-0.9792,143.7,98.5,0.46
3.74,31912.4,34861.0,-0.3652,-0.3417,143.7,98.5,0.46
3.76,32085.5,35216.7,0.3504,0.5326,143.7,98.5,0.46
3.78,32206.6,35513.7,0.8509,1.2627,143.7,98.5,0.46
3.8,32344.6,35753.5,1.4211,1.8523,143.7,98.5,0.46
3.82,32282.9,35673.5,1.1661,1.6556,143.7,98.5,0.46
3.84,32234.7,35550.7,0.9672,1.3538,143.7,98.5,0.46
3.86,32103.8,35487.9,0.426,1.1993,143.7,98.5,0.46
3.88,31994.8,35164.9,-0.0246,0.4054,143.7,98.5,0.46
3.9,32063.8,35055.4,0.2604,0.1361,143.7,98.5,0.46
3.92,31978.2,35014.6,-0.0934,0.0359,143.7,98.5,0.46
3.94,31961.4,35006.6,-0.1626,0.0162,143.7,98.5,0.46
3.96,31991.5,34915.9,-0.0381,-0.2069,143.7,98.5,0.46
3.98,31936.4,34768.0,-0.2661,-0.5704,143.7,98.5,0.46
4.0,31839.4,34670.5,-0.6669,-0.8101,143.7,98.5,0.46
4.02,31922.3,34652.5,-0.3245,-0.8543,143.7,98.5,0.46
4.04,31817.2,34605.8,-0.7588,-0.9692,143.7,98.5,0.46
4.06,31926.1,34614.9,-0.3084,-0.9467,143.7,98.5,0.46
4.08,31910.6,34564.0,-0.3728,-1.072,143.7,98.5,0.46
4.1,31811.0,34451.1,-0.7844,-1.3494,143.7,98.5,0.46
4.12,31694.4,34430.4,-1.2662,-1.4004,143.7,98.5,0.46
4.14,31783.3,34628.5,-0.8988,-0.9132,143.7,98.5,0.46
4.16,31968.4,34897.1,-0.1338,-0.2531,143.7,98.5,0.46
4.18,32103.6,35331.8,0.4249,0.8158,143.7,98.5,0.46
4.2,32281.9,35583.6,1.1621,1.4347,143.7,98.5,0.46
4.22,32332.8,35601.0,1.3725,1.4775,143.7,98.5,0.46
4.24,32340.0,35710.7,1.4024,1.7472,143.7,98.5,0.46
4.26,32174.4,35490.6,0.7179,1.2061,143.7,98.5,0.46
4.28,32062.8,35388.4,0.2565,0.9548,143.7,98.5,0.46
4.3,32105.2,35201.3,0.4318,0.4949,143.7,98.5,0.46
4.32,32077.9,35124.1,0.319,0.305,143.7,98.5,0.46
4.34,31938.1,35051.8,-0.2589,0.1274,143.7,98.5,0.46
4.36,32077.9,35036.2,0.319,0.0889,143.7,98.5,0.46
4.38,31958.3,34928.1,-0.1757,-0.1769,143.7,98.5,0.46
4.4,31939.0,34772.2,-0.2552,-0.56,143.7,98.5,0.46
4.42,31890.7,34671.6,-0.455,-0.8075,143.7,98.5,0.46
4.44,31826.5,34603.9,-0.7201,-0.9738,143.7,98.5,0.46
4.46,31847.6,34672.9,-0.6331,-0.8041,143.7,98.5,0.46
4.48,31862.1,34563.2,-0.5729,-1.0738,143.7,98.5,0.46
4.5,31797.4,34651.7,-0.8406,-0.8564,143.7,98.5,0.46
4.52,31739.2,34483.9,-1.0812,-1.2687,143.7,98.5,0.46
4.54,31830.1,34536.8,-0.7054,-1.1388,143.7,98.5,0.46
4.56,31827.6,34637.4,-0.7156,-0.8915,143.7,98.5,0.46
4.58,31946.9,34960.0,-0.2224,-0.0983,143.7,98.5,0.46
4.6,32232.1,35344.7,0.9564,0.8475,143.7,98.5,0.46
4.62,32285.3,35554.5,1.1761,1.3632,143.7,98.5,0.46
4.64,32329.5,35805.4,1.3588,1.98,143.7,98.5,0.46
4.66,32252.4,35715.5,1.0401,1.7588,143.7,98.5,0.46
4.68,32305.8,35491.7,1.2611,1.2086,143.7,98.5,0.46
4.7,32094.7,35324.0,0.3884,0.7964,143.7,98.5,0.46
4.72,32131.7,35267.4,0.5412,0.6572,143.7,98.5,0.46
4.74,32035.1,35152.8,0.1418,0.3755,143.7,98.5,0.46
4.76,31992.4,35019.6,-0.0345,0.0482,143.7,98.5,0.46
4.78,31973.1,35041.1,-0.1142,0.1011,143.7,98.5,0.46
4.8,31951.9,34963.9,-0.2019,-0.0888,143.7,98.5,0.46
4.82,31900.2,34709.6,-0.4158,-0.714,143.7,98.5,0.46
4.84,31830.2,34707.1,-0.7052,-0.72,143.7,98.5,0.46
4.86,31800.2,34765.2,-0.829,-0.5772,143.7,98.5,0.46
4.88,31920.2,34621.2,-0.333,-0.9314,143.7,98.5,0.46
4.9,31752.8,34547.9,-1.0248,-1.1114,143.7,98.5,0.46
4.92,31761.9,34534.9,-0.9873,-1.1434,143.7,98.5,0.46
4.94,31733.4,34410.2,-1.1051,-1.45,143.7,98.5,0.46
4.96,31806.8,34474.3,-0.8018,-1.2923,143.7,98.5,0.46
4.98,31829.4,34654.6,-0.7082,-0.8492,143.7,98.5,0.46
5.0,31972.9,34937.5,-0.1151,-0.1538,143.7,98.5,0.46
5.02,32158.3,35356.5,0.6511,0.8763,143.7,98.5,0.46
5.04,32218.0,35640.8,0.898,1.5754,143.7,98.5,0.46
5.06,32332.6,35669.5,1.3715,1.6457,143.7,98.5,0.46
5.08,32319.6,35733.9,1.3179,1.8042,143.7,98.5,0.46
5.1,32132.8,35487.6,0.5459,1.1987,143.7,98.5,0.46
5.12,32120.2,35249.1,0.4937,0.6123,143.7,98.5,0.46
5.14,32077.5,35172.4,0.3172,0.4239,143.7,98.5,0.46
5.16,31988.0,35068.3,-0.0527,0.1678,143.7,98.5,0.46
5.18,32040.9,35067.2,0.1661,0.1651,143.7,98.5,0.46
5.2,31942.8,34915.1,-0.2395,-0.2088,143.7,98.5,0.46
5.22,31938.7,34909.8,-0.2567,-0.2219,143.7,98.5,0.46
5.24,31925.7,34739.9,-0.3104,-0.6395,143.7,98.5,0.46
5.26,31892.4,34586.4,-0.4477,-1.0168,143.7,98.5,0.46
5.28,31837.1,34680.3,-0.6764,-0.7861,143.7,98.5,0.46
5.3,31862.8,34615.9,-0.5702,-0.9444,143.7,98.5,0.46
5.32,31843.7,34581.6,-0.6492,-1.0288,143.7,98.5,0.46
5.34,31722.8,34437.0,-1.1488,-1.3842,143.7,98.5,0.46
5.36,31727.2,34441.1,-1.1308,-1.3741,143.7,98.5,0.46
5.38,31757.0,34455.8,-1.0074,-1.338,143.7,98.5,0.46
5.4,31916.8,34595.3,-0.3472,-0.995,143.7,98.5,0.46
5.42,31905.3,35030.1,-0.3945,0.0739,143.7,98.5,0.46
5.44,32269.1,35488.5,1.1092,1.201,143.7,98.5,0.46
5.46,32360.3,35678.6,1.4861,1.6683,143.7,98.5,0.46
5.48,32359.3,35759.1,1.4818,1.866,143.7,98.5,0.46
5.5,32249.7,35661.4,1.0288,1.6258,143.7,98.5,0.46
5.52,32232.4,35579.2,0.9576,1.4238,143.7,98.5,0.46
5.54,32194.6,35388.7,0.8014,0.9556,143.7,98.5,0.46
5.56,32095.8,35062.0,0.3927,0.1522,143.7,98.5,0.46
5.58,32131.2,35072.6,0.539,0.1785,143.7,98.5,0.46
5.6,32007.5,35120.8,0.0279,0.297,143.7,98.5,0.46
5.62,31928.6,34902.1,-0.2982,-0.2407,143.7,98.5,0.46
5.64,31914.4,34879.7,-0.3569,-0.2957,143.7,98.5,0.46
5.66,31897.7,34783.1,-0.4259,-0.5334,143.7,98.5,0.46
5.68,31901.9,34729.8,-0.4084,-0.6643,143.7,98.5,0.46
5.7,31796.3,34655.0,-0.8452,-0.8483,143.7,98.5,0.46
5.72,31805.6,34638.9,-0.8067,-0.8877,143.7,98.5,0.46
5.74,31747.5,34684.5,-1.0468,-0.7757,143.7,98.5,0.46
5.76,31818.9,34551.6,-0.7518,-1.1024,143.7,98.5,0.46
5.78,31748.4,34443.9,-1.0429,-1.3671,143.7,98.5,0.46
5.8,31729.4,34512.1,-1.1217,-1.1994,143.7,98.5,0.46
5.82,31889.9,34733.2,-0.4582,-0.656,143.7,98.5,0.46
5.84,32058.9,35103.6,0.2404,0.2546,143.7,98.5,0.46
5.86,32237.3,35441.5,0.9777,1.0852,143.7,98.5,0.46
5.88,32300.5,35714.1,1.2391,1.7555,143.7,98.5,0.46
5.9,32345.2,35767.3,1.4238,1.8862,143.7,98.5,0.46
5.92,32266.1,35655.3,1.0968,1.611,143.7,98.5,0.46
5.94,32246.2,35403.0,1.0145,0.9908,143.7,98.5,0.46
5.96,32119.5,35298.5,0.4907,0.7338,143.7,98.5,0.46
5.98,32013.2,35114.7,0.0515,0.2818,143.7,98.5,0.46
6.0,32037.0,35081.9,0.1499,0.2013,143.7,98.5,0.46
6.02,31948.9,35051.8,-0.2142,0.1272,143.7,98.5,0.46
6.04,31978.3,34936.0,-0.0929,-0.1574,143.7,98.5,0.46
6.06,31927.0,34772.6,-0.3047,-0.5592,143.7,98.5,0.46
6.08,31842.2,34653.6,-0.6552,-0.8517,143.7,98.5,0.46
6.1,31915.0,34663.7,-0.3543,-0.8268,143.7,98.5,0.46
6.12,31889.1,34579.6,-0.4615,-1.0337,143.7,98.5,0.46
6.14,31922.3,34631.9,-0.3245,-0.9051,143.7,98.5,0.46
6.16,31856.5,34577.4,-0.5963,-1.0389,143.7,98.5,0.46
6.18,31870.2,34399.8,-0.5396,-1.4755,143.7,98.5,0.46
6.2,31735.2,34443.9,-1.0976,-1.3671,143.7,98.5,0.46
6.22,31739.3,34583.3,-1.0808,-1.0245,143.7,98.5,0.46
6.24,31915.8,34751.8,-0.3511,-0.6102,143.7,98.5,0.46
6.26,32040.9,35174.9,0.1659,0.43,143.7,98.5,0.46
6.28,32253.3,35555.8,1.0438,1.3664,143.7,98.5,0.46
6.3,32347.3,35843.6,1.4326,2.0738,143.7,98.5,0.46
6.32,32362.0,35752.8,1.4933,1.8505,143.7,98.5,0.46
6.34,32249.8,35639.1,1.0294,1.5712,143.7,98.5,0.46
6.36,32192.6,35480.7,0.7931,1.1816,143.7,98.5,0.46
6.38,32117.9,35224.3,0.4843,0.5514,143.7,98.5,0.46
6.4,32012.7,35154.5,0.0494,0.3796,143.7,98.5,0.46
6.42,32056.8,35032.7,0.2318,0.0802,143.7,98.5,0.46
6.44,31970.0,35031.2,-0.1273,0.0767,143.7,98.5,0.46
6.46,31963.2,34882.7,-0.1553,-0.2884,143.7,98.5,0.46
6.48,31889.6,34842.6,-0.4593,-0.387,143.7,98.5,0.46
6.5,31888.0,34731.1,-0.4661,-0.6611,143.7,98.5,0.46
6.52,31802.8,34684.1,-0.8182,-0.7767,143.7,98.5,0.46
6.54,31921.0,34734.9,-0.3296,-0.6518,143.7,98.5,0.46
6.56,31858.7,34715.6,-0.5871,-0.6993,143.7,98.5,0.46
6.58,31813.9,34501.0,-0.7723,-1.2269,143.7,98.5,0.46
6.6,31797.3,34464.1,-0.8411,-1.3175,143.7,98.5,0.46
6.62,31794.7,34512.4,-0.8518,-1.1987,143.7,98.5,0.46
6.64,31841.7,34542.1,-0.6575,-1.1257,143.7,98.5,0.46
6.66,31933.8,34840.1,-0.2767,-0.3931,143.7,98.5,0.46
6.68,32075.8,35240.6,0.3104,0.5914,143.7,98.5,0.46
6.7,32224.0,35487.1,0.9229,1.1973,143.7,98.5,0.46
6.72,32288.2,35667.3,1.1882,1.6403,143.7,98.5,0.46
6.74,32326.1,35651.1,1.3448,1.6006,143.7,98.5,0.46
6.76,32306.7,35598.4,1.2645,1.4711,143.7,98.5,0.46
6.78,32155.9,35412.9,0.6413,1.0149,143.7,98.5,0.46
6.8,32155.4,35254.9,0.6392,0.6265,143.7,98.5,0.46
6.82,32065.1,34977.8,0.2661,-0.0547,143.7,98.5,0.46
6.84,32082.0,35077.5,0.3357,0.1905,143.7,98.5,0.46
6.86,31966.7,35008.9,-0.1409,0.0218,143.7,98.5,0.46
6.88,31973.8,34901.4,-0.1115,-0.2425,143.7,98.5,0.46
6.9,31788.3,34842.5,-0.878,-0.3873,143.7,98.5,0.46
6.92,31935.3,34738.9,-0.2707,-0.6418,143.7,98.5,0.46
6.94,31829.4,34727.3,-0.7081,-0.6705,143.7,98.5,0.46
6.96,31859.4,34595.5,-0.5842,-0.9944,143.7,98.5,0.46
6.98,31892.9,34578.9,-0.446,-1.0352,143.7,98.5,0.46
7.0,31795.4,34570.2,-0.8487,-1.0566,143.7,98.5,0.46
7.02,31779.3,34398.7,-0.9152,-1.4782,143.7,98.5,0.46
7.04,31875.6,34460.2,-0.5172,-1.3271,143.7,98.5,0.46
7.06,31746.3,34640.0,-1.0517,-0.8851,143.7,98.5,0.46
7.08,31905.3,34799.1,-0.3944,-0.494,143.7,98.5,0.46
7.1,32080.6,35269.4,0.3301,0.6622,143.7,98.5,0.46
7.12,32205.1,35577.2,0.8446,1.419,143.7,98.5,0.46
7.14,32316.6,35705.8,1.3053,1.735,143.7,98.5,0.46
7.16,32297.5,35775.8,1.2264,1.9071,143.7,98.5,0.46
7.18,32257.2,35591.3,1.06,1.4536,143.7,98.5,0.46
7.2,32123.6,35474.9,0.508,1.1675,143.7,98.5,0.46
7.22,32115.7,35206.0,0.4751,0.5064,143.7,98.5,0.46
7.24,31961.2,35139.0,-0.1635,0.3417,143.7,98.5,0.46
7.26,32079.1,35034.9,0.3238,0.0858,143.7,98.5,0.46
7.28,32003.1,35071.4,0.0097,0.1754,143.7,98.5,0.46
7.3,32006.2,34991.1,0.0226,-0.022,143.7,98.5,0.46
7.32,31947.7,34812.4,-0.2195,-0.4612,143.7,98.5,0.46
7.34,31819.2,34691.8,-0.7506,-0.7577,143.7,98.5,0.46
7.36,31849.8,34678.0,-0.624,-0.7917,143.7,98.5,0.46
7.38,31790.9,34659.3,-0.8673,-0.8377,143.7,98.5,0.46
7.4,31962.8,34642.5,-0.1567,-0.8789,143.7,98.5,0.46
7.42,31807.0,34525.2,-0.8008,-1.1674,143.7,98.5,0.46
7.44,31755.9,34466.1,-1.012,-1.3125,143.7,98.5,0.46
7.46,31760.8,34494.9,-0.9917,-1.2418,143.7,98.5,0.46
7.48,31892.1,34583.4,-0.449,-1.0243,143.7,98.5,0.46
7.5,32003.8,34957.0,0.0127,-0.1057,143.7,98.5,0.46
7.52,32143.1,35325.7,0.5884,0.8007,143.7,98.5,0.46
7.54,32218.4,35618.1,0.8995,1.5195,143.7,98.5,0.46
7.56,32240.4,35804.3,0.9906,1.9773,143.7,98.5,0.46
7.58,32265.9,35714.7,1.096,1.7569,143.7,98.5,0.46
7.6,32257.2,35602.7,1.0599,1.4815,143.7,98.5,0.46
7.62,32059.9,35353.6,0.2445,0.8693,143.7,98.5,0.46
7.64,32103.5,35118.1,0.4246,0.2904,143.7,98.5,0.46
7.66,31940.2,35106.0,-0.2502,0.2605,143.7,98.5,0.46
7.68,32025.0,35053.6,0.1003,0.1318,143.7,98.5,0.46
7.7,31990.1,34923.4,-0.044,-0.1884,143.7,98.5,0.46
7.72,31928.6,34912.7,-0.2981,-0.2146,143.7,98.5,0.46
7.74,31831.3,34698.5,-0.7005,-0.7412,143.7,98.5,0.46
7.76,31983.1,34674.0,-0.0729,-0.8015,143.7,98.5,0.46
7.78,31892.9,34730.5,-0.4459,-0.6627,143.7,98.5,0.46
7.8,31850.4,34637.6,-0.6216,-0.8911,143.7,98.5,0.46
7.82,31809.5,34626.8,-0.7906,-0.9176,143.7,98.5,0.46
7.84,31828.6,34517.1,-0.7114,-1.1873,143.7,98.5,0.46
7.86,31689.7,34447.1,-1.2856,-1.3594,143.7,98.5,0.46
7.88,31762.9,34451.5,-0.9833,-1.3485,143.7,98.5,0.46
7.9,31841.8,34586.3,-0.6569,-1.0172,143.7,98.5,0.46
7.92,32011.8,34888.1,0.0455,-0.2751,143.7,98.5,0.46
7.94,32119.6,35315.7,0.491,0.7761,143.7,98.5,0.46
7.96,32304.1,35603.1,1.2538,1.4827,143.7,98.5,0.46
7.98,32326.1,35666.1,1.3449,1.6375,143.7,98.5,0.46
8.0,32283.1,35642.3,1.1669,1.579,143.7,98.5,0.46
8.02,32234.8,35477.6,0.9674,1.1741,143.7,98.5,0.46
8.04,32163.6,35295.8,0.6731,0.727,143.7,98.5,0.46
8.06,32069.5,35126.6,0.284,0.3112,143.7,98.5,0.46
8.08,32081.8,35083.2,0.335,0.2044,143.7,98.5,0.46
8.1,31993.7,35079.7,-0.0293,0.196,143.7,98.5,0.46
8.12,32023.8,34939.3,0.0951,-0.1494,143.7,98.5,0.46
8.14,31978.0,34938.6,-0.0939,-0.151,143.7,98.5,0.46
8.16,31987.9,34908.9,-0.0531,-0.2241,143.7,98.5,0.46
8.18,31858.2,34729.3,-0.5893,-0.6656,143.7,98.5,0.46
8.2,31913.0,34721.0,-0.3627,-0.6861,143.7,98.5,0.46
8.22,31876.6,34671.4,-0.513,-0.8078,143.7,98.5,0.46
8.24,31776.4,34589.9,-0.9272,-1.0083,143.7,98.5,0.46
8.26,31830.7,34495.1,-0.7027,-1.2412,143.7,98.5,0.46
8.28,31749.1,34515.7,-1.04,-1.1907,143.7,98.5,0.46
8.3,31870.5,34427.6,-0.5384,-1.4071,143.7,98.5,0.46
8.32,31932.1,34694.7,-0.2837,-0.7506,143.7,98.5,0.46
8.34,32007.1,35087.2,0.0263,0.2143,143.7,98.5,0.46
8.36,32183.7,35319.1,0.7561,0.7843,143.7,98.5,0.46
8.38,32303.2,35611.7,1.25,1.5037,143.7,98.5,0.46
8.4,32338.5,35757.7,1.396,1.8626,143.7,98.5,0.46
8.42,32220.5,35734.6,0.9083,1.806,143.7,98.5,0.46
8.44,32288.4,35554.2,1.1888,1.3623,143.7,98.5,0.46
8.46,32101.4,35300.8,0.4161,0.7394,143.7,98.5,0.46
8.48,32061.9,35099.6,0.2529,0.2448,143.7,98.5,0.46
8.5,32045.3,35095.9,0.1841,0.2356,143.7,98.5,0.46
8.52,31995.3,35054.9,-0.0224,0.135,143.7,98.5,0.46
8.54,31943.4,35015.8,-0.2372,0.0389,143.7,98.5,0.46
8.56,31927.7,34825.1,-0.3019,-0.4301,143.7,98.5,0.46
8.58,31910.3,34804.4,-0.374,-0.4808,143.7,98.5,0.46
8.6,31865.8,34818.2,-0.5577,-0.4469,143.7,98.5,0.46
8.62,31823.3,34613.8,-0.7336,-0.9495,143.7,98.5,0.46
8.64,31784.8,34652.3,-0.8927,-0.8549,143.7,98.5,0.46
8.66,31871.8,34637.0,-0.5331,-0.8925,143.7,98.5,0.46
8.68,31706.1,34489.0,-1.2179,-1.2562,143.7,98.5,0.46
8.7,31682.6,34520.4,-1.315,-1.1791,143.7,98.5,0.46
8.72,31807.2,34474.7,-0.8,-1.2916,143.7,98.5,0.46
8.74,31877.8,34755.8,-0.5081,-0.6003,143.7,98.5,0.46
8.76,31991.2,35019.0,-0.0393,0.0466,143.7,98.5,0.46
8.78,32254.1,35414.7,1.0473,1.0195,143.7,98.5,0.46
8.8,32243.4,35794.9,1.0031,1.9542,143.7,98.5,0.46
8.82,32406.2,35746.8,1.6761,1.836,143.7,98.5,0.46
8.84,32244.8,35520.3,1.0089,1.279,143.7,98.5,0.46
8.86,32137.6,35396.9,0.5657,0.9756,143.7,98.5,0.46
8.88,32155.4,35218.4,0.6393,0.5368,143.7,98.5,0.46
8.9,32136.5,35094.3,0.5611,0.2318,143.7,98.5,0.46
8.92,32048.3,35031.5,0.1965,0.0774,143.7,98.5,0.46
8.94,32147.3,35005.5,0.6056,0.0135,143.7,98.5,0.46
8.96,31899.8,34889.9,-0.4171,-0.2707,143.7,98.5,0.46
8.98,32030.2,34781.8,0.1218,-0.5364,143.7,98.5,0.46
9.0,31876.5,34820.4,-0.5135,-0.4415,143.7,98.5,0.46
9.02,31945.9,34633.7,-0.2267,-0.9006,143.7,98.5,0.46
9.04,31903.8,34665.3,-0.4007,-0.8228,143.7,98.5,0.46
9.06,31937.8,34663.8,-0.26,-0.8266,143.7,98.5,0.46
9.08,31735.8,34597.3,-1.0952,-0.9901,143.7,98.5,0.46
9.1,31739.8,34590.6,-1.0785,-1.0066,143.7,98.5,0.46
9.12,31743.3,34483.0,-1.0642,-1.2711,143.7,98.5,0.46
9.14,31859.2,34525.4,-0.5853,-1.1667,143.7,98.5,0.46
9.16,31826.6,34777.7,-0.7198,-0.5467,143.7,98.5,0.46
9.18,32036.5,35033.8,0.1476,0.0831,143.7,98.5,0.46
9.2,32207.9,35465.4,0.8562,1.1441,143.7,98.5,0.46
9.22,32273.3,35618.7,1.1266,1.5209,143.7,98.5,0.46
9.24,32346.2,35793.9,1.4278,1.9517,143.7,98.5,0.46
9.26,32269.9,35673.6,1.1125,1.656,143.7,98.5,0.46
9.28,32194.3,35481.6,0.8,1.1839,143.7,98.5,0.46
9.3,32110.2,35340.4,0.4522,0.8369,143.7,98.5,0.46
9.32,32067.9,35150.1,0.2774,0.3688,143.7,98.5,0.46
9.34,32077.9,35161.6,0.3189,0.3972,143.7,98.5,0.46
9.36,31961.8,35046.4,-0.1608,0.1141,143.7,98.5,0.46
9.38,31945.4,34940.6,-0.2288,-0.1462,143.7,98.5,0.46
9.4,31875.3,34716.7,-0.5186,-0.6965,143.7,98.5,0.46
9.42,31915.9,34737.5,-0.3509,-0.6454,143.7,98.5,0.46
9.44,31915.6,34678.3,-0.3518,-0.791,143.7,98.5,0.46
9.46,31932.9,34681.4,-0.2804,-0.7834,143.7,98.5,0.46
9.48,31836.5,34613.1,-0.6789,-0.9511,143.7,98.5,0.46
9.5,31827.6,34543.7,-0.7156,-1.1218,143.7,98.5,0.46
9.52,31755.5,34634.5,-1.0139,-0.8985,143.7,98.5,0.46
9.54,31738.4,34499.2,-1.0845,-1.2311,143.7,98.5,0.46
9.56,31788.2,34529.0,-0.8785,-1.158,143.7,98.5,0.46
9.58,31898.8,34767.8,-0.4215,-0.5708,143.7,98.5,0.46
9.6,32064.5,35085.0,0.2635,0.209,143.7,98.5,0.46
9.62,32243.8,35479.3,1.0046,1.1783,143.7,98.5,0.46
9.64,32236.2,35643.5,0.9734,1.582,143.7,98.5,0.46
9.66,32340.7,35790.4,1.4052,1.9432,143.7,98.5,0.46
9.68,32239.8,35594.1,0.9882,1.4606,143.7,98.5,0.46
9.7,32104.4,35340.4,0.4284,0.8369,143.7,98.5,0.46
9.72,32032.6,35336.9,0.1316,0.8282,143.7,98.5,0.46
9.74,32052.6,35169.7,0.2145,0.4171,143.7,98.5,0.46
9.76,31975.0,34960.9,-0.1066,-0.0961,143.7,98.5,0.46
9.78,32061.5,35071.0,0.2512,0.1744,143.7,98.5,0.46
9.8,31910.7,35031.6,-0.3724,0.0775,143.7,98.5,0.46
9.82,31850.2,34824.4,-0.6223,-0.4318,143.7,98.5,0.46
9.84,31974.8,34771.3,-0.1071,-0.5624,143.7,98.5,0.46
9.86,31756.9,34728.1,-1.0081,-0.6684,143.7,98.5,0.46
9.88,31806.3,34628.7,-0.8037,-0.9129,143.7,98.5,0.46
9.9,31785.6,34595.1,-0.8895,-0.9954,143.7,98.5,0.46
9.92,31763.4,34520.6,-0.9811,-1.1785,143.7,98.5,0.46
9.94,31732.9,34592.5,-1.1071,-1.0019,143.7,98.5,0.46
9.96,31855.6,34366.7,-0.5999,-1.5569,143.7,98.5,0.46
9.98,31776.7,34478.2,-0.926,-1.2828,143.7,98.5,0.46
10.0,31939.5,34817.0,-0.2533,-0.45,143.7,98.5,0.46
10.02,32141.1,35178.5,0.5802,0.4388,143.7,98.5,0.46
10.04,32253.5,35508.9,1.0448,1.2511,143.7,98.5,0.46
10.06,32295.0,35720.3,1.216,1.7706,143.7,98.5,0.46
10.08,32344.8,35745.2,1.4219,1.8319,143.7,98.5,0.46
10.1,32303.2,35626.7,1.2503,1.5405,143.7,98.5,0.46
10.12,32080.3,35344.8,0.3286,0.8476,143.7,98.5,0.46
10.14,32118.9,35132.7,0.4881,0.3263,143.7,98.5,0.46
10.16,32039.2,35177.2,0.1589,0.4357,143.7,98.5,0.46
10.18,32050.1,35054.3,0.2038,0.1334,143.7,98.5,0.46
10.2,32014.9,34996.8,0.0583,-0.008,143.7,98.5,0.46
10.22,31979.9,34918.9,-0.0862,-0.1993,143.7,98.5,0.46
10.24,31898.5,34790.6,-0.4225,-0.5148,143.7,98.5,0.46
10.26,31842.7,34672.1,-0.6533,-0.8062,143.7,98.5,0.46
10.28,31861.7,34671.0,-0.5746,-0.8088,143.7,98.5,0.46
10.3,31829.7,34653.6,-0.707,-0.8515,143.7,98.5,0.46
10.32,31844.4,34671.1,-0.6461,-0.8087,143.7,98.5,0.46
10.34,31928.9,34550.8,-0.2969,-1.1043,143.7,98.5,0.46
10.36,31807.7,34487.2,-0.7979,-1.2607,143.7,98.5,0.46
10.38,31850.9,34443.4,-0.6194,-1.3685,143.7,98.5,0.46
10.4,31797.8,34486.9,-0.839,-1.2616,143.7,98.5,0.46
10.42,31897.0,34813.9,-0.4288,-0.4575,143.7,98.5,0.46
10.44,32149.7,35222.2,0.6157,0.5461,143.7,98.5,0.46
10.46,32169.5,35662.7,0.6974,1.6292,143.7,98.5,0.46
10.48,32250.9,35749.9,1.0341,1.8436,143.7,98.5,0.46
10.5,32344.6,35676.2,1.4214,1.6622,143.7,98.5,0.46
10.52,32264.6,35576.0,1.0904,1.4161,143.7,98.5,0.46
10.54,32094.8,35406.7,0.3887,0.9997,143.7,98.5,0.46
10.56,32080.9,35230.0,0.3314,0.5654,143.7,98.5,0.46
10.58,32047.9,35113.6,0.1949,0.2791,143.7,98.5,0.46
10.6,31934.6,35075.7,-0.2733,0.186,143.7,98.5,0.46
10.62,32040.9,34934.0,0.1658,-0.1623,143.7,98.5,0.46
10.64,31944.6,34883.4,-0.2319,-0.2866,143.7,98.5,0.46
10.66,31863.6,34795.2,-0.5668,-0.5036,143.7,98.5,0.46
10.68,31913.5,34730.3,-0.3605,-0.6631,143.7,98.5,0.46
10.7,31831.9,34674.1,-0.6978,-0.8013,143.7,98.5,0.46
10.72,31875.7,34666.9,-0.5168,-0.8189,143.7,98.5,0.46
10.74,31796.5,34605.2,-0.8441,-0.9706,143.7,98.5,0.46
10.76,31810.3,34573.6,-0.7872,-1.0483,143.7,98.5,0.46
10.78,31755.6,34378.0,-1.0135,-1.5292,143.7,98.5,0.46
10.8,31740.8,34465.0,-1.0746,-1.3154,143.7,98.5,0.46
10.82,31881.7,34648.2,-0.4922,-0.8648,143.7,98.5,0.46
10.84,31983.6,34886.1,-0.0708,-0.2801,143.7,98.5,0.46
10.86,32097.2,35386.1,0.3988,0.9492,143.7,98.5,0.46
10.88,32281.3,35610.3,1.1597,1.5002,143.7,98.5,0.46
10.9,32177.9,35641.1,0.7323,1.5761,143.7,98.5,0.46
10.92,32244.0,35676.0,1.0054,1.6618,143.7,98.5,0.46
10.94,32266.4,35471.4,1.098,1.1588,143.7,98.5,0.46
10.96,32181.8,35320.7,0.7481,0.7883,143.7,98.5,0.46
10.98,32058.0,35228.6,0.2364,0.562,143.7,98.5,0.46
11.0,32049.1,35056.6,0.1998,0.139,143.7,98.5,0.46
11.02,32136.8,34921.9,0.5623,-0.192,143.7,98.5,0.46
11.04,31936.8,34956.2,-0.2645,-0.1078,143.7,98.5,0.46
11.06,31929.9,34877.0,-0.2929,-0.3025,143.7,98.5,0.46
11.08,31909.1,34796.0,-0.3787,-0.5015,143.7,98.5,0.46
11.1,31869.3,34690.1,-0.5433,-0.7618,143.7,98.5,0.46
11.12,31835.6,34573.6,-0.6827,-1.0483,143.7,98.5,0.46
11.14,31868.6,34583.7,-0.5463,-1.0234,143.7,98.5,0.46
11.16,31755.8,34662.2,-1.0123,-0.8306,143.7,98.5,0.46
11.18,31844.0,34564.4,-0.648,-1.071,143.7,98.5,0.46
11.2,31747.1,34450.4,-1.0485,-1.3511,143.7,98.5,0.46
11.22,31829.3,34542.4,-0.7088,-1.1249,143.7,98.5,0.46
11.24,31827.2,34645.2,-0.7174,-0.8724,143.7,98.5,0.46
11.26,32071.8,35007.7,0.2936,0.0189,143.7,98.5,0.46
11.28,32111.3,35330.0,0.4567,0.8112,143.7,98.5,0.46
11.3,32341.9,35591.9,1.4103,1.4551,143.7,98.5,0.46
11.32,32409.1,35700.2,1.688,1.7213,143.7,98.5,0.46
11.34,32204.3,35746.7,0.8413,1.8356,143.7,98.5,0.46
11.36,32197.4,35392.3,0.8126,0.9643,143.7,98.5,0.46
11.38,32096.5,35343.9,0.3958,0.8453,143.7,98.5,0.46
11.4,32047.8,35081.8,0.1945,0.2011,143.7,98.5,0.46
11.42,32074.1,35121.6,0.303,0.2989,143.7,98.5,0.46
11.44,32055.8,35098.0,0.2277,0.2409,143.7,98.5,0.46
11.46,31992.5,34871.7,-0.0342,-0.3155,143.7,98.5,0.46
11.48,31957.4,34913.2,-0.179,-0.2133,143.7,98.5,0.46
11.5,31870.4,34819.0,-0.5388,-0.445,143.7,98.5,0.46
11.52,31937.2,34640.9,-0.2625,-0.8828,143.7,98.5,0.46
11.54,31947.0,34645.9,-0.2221,-0.8705,143.7,98.5,0.46
11.56,31810.4,34645.7,-0.7867,-0.8711,143.7,98.5,0.46
11.58,31832.0,34651.9,-0.6975,-0.8558,143.7,98.5,0.46
11.6,31779.5,34514.9,-0.9146,-1.1926,143.7,98.5,0.46
11.62,31858.5,34501.3,-0.5879,-1.2262,143.7,98.5,0.46
11.64,31760.7,34442.0,-0.9924,-1.3718,143.7,98.5,0.46
11.66,31791.9,34640.4,-0.8635,-0.884,143.7,98.5,0.46
11.68,32042.8,34982.3,0.174,-0.0435,143.7,98.5,0.46
11.7,32159.1,35352.2,0.6544,0.8658,143.7,98.5,0.46
11.72,32201.2,35712.3,0.8283,1.751,143.7,98.5,0.46
11.74,32341.2,35760.1,1.4072,1.8687,143.7,98.5,0.46
11.76,32265.9,35680.7,1.096,1.6734,143.7,98.5,0.46
11.78,32264.0,35525.1,1.0882,1.2908,143.7,98.5,0.46
11.8,32082.1,35285.3,0.3362,0.7014,143.7,98.5,0.46
11.82,32209.9,35214.7,0.8644,0.5278,143.7,98.5,0.46
11.84,32059.2,35067.0,0.2417,0.1645,143.7,98.5,0.46
11.86,32021.2,35013.4,0.0845,0.0328,143.7,98.5,0.46
11.88,32055.6,35055.0,0.2267,0.1351,143.7,98.5,0.46
11.9,31891.8,34750.3,-0.4505,-0.6138,143.7,98.5,0.46
11.92,31786.3,34697.0,-0.8866,-0.745,143.7,98.5,0.46
11.94,31851.7,34715.2,-0.6159,-0.7002,143.7,98.5,0.46
11.96,31870.6,34603.6,-0.5381,-0.9745,143.7,98.5,0.46
11.98,31894.1,34666.2,-0.441,-0.8206,143.7,98.5,0.46
12.0,31890.7,34618.4,-0.4549,-0.9382,143.7,98.5,0.46
12.02,31722.2,34539.2,-1.1512,-1.1329,143.7,98.5,0.46
12.04,31739.2,34426.0,-1.0812,-1.4112,143.7,98.5,0.46
12.06,31782.7,34440.2,-0.9012,-1.3762,143.7,98.5,0.46
12.08,31913.5,34740.8,-0.3607,-0.6373,143.7,98.5,0.46
12.1,32062.9,35024.0,0.2569,0.059,143.7,98.5,0.46
12.12,32127.1,35525.4,0.522,1.2915,143.7,98.5,0.46
12.14,32292.3,35622.5,1.2052,1.5303,143.7,98.5,0.46
12.16,32359.2,35789.0,1.4817,1.9396,143.7,98.5,0.46
12.18,32298.6,35562.7,1.231,1.3833,143.7,98.5,0.46
12.2,32181.5,35486.0,0.7471,1.1948,143.7,98.5,0.46
12.22,32148.6,35310.1,0.6113,0.7623,143.7,98.5,0.46
12.24,32111.7,35168.0,0.4588,0.413,143.7,98.5,0.46
12.26,32013.9,35074.3,0.0542,0.1826,143.7,98.5,0.46
12.28,32021.8,35009.4,0.0868,0.023,143.7,98.5,0.46
12.3,31968.6,34935.1,-0.1329,-0.1596,143.7,98.5,0.46
12.32,31898.3,34900.2,-0.4234,-0.2455,143.7,98.5,0.46
12.34,31941.8,34782.2,-0.2436,-0.5355,143.7,98.5,0.46
12.36,31898.4,34744.6,-0.4232,-0.6279,143.7,98.5,0.46
12.38,31801.5,34694.2,-0.8234,-0.7519,143.7,98.5,0.46
12.4,31759.2,34669.0,-0.9985,-0.8137,143.7,98.5,0.46
12.42,31906.6,34610.1,-0.3891,-0.9587,143.7,98.5,0.46
12.44,31836.7,34510.1,-0.6783,-1.2043,143.7,98.5,0.46
12.46,31727.6,34421.0,-1.129,-1.4234,143.7,98.5,0.46
12.48,31792.9,34584.0,-0.859,-1.0227,143.7,98.5,0.46
12.5,31934.1,34751.2,-0.2755,-0.6116,143.7,98.5,0.46
12.52,32034.0,35075.3,0.1375,0.185,143.7,98.5,0.46
12.54,32092.1,35490.6,0.3776,1.206,143.7,98.5,0.46
12.56,32296.4,35677.7,1.2222,1.6659,143.7,98.5,0.46
12.58,32333.5,35779.4,1.3754,1.9161,143.7,98.5,0.46
12.6,32187.6,35617.3,0.7724,1.5174,143.7,98.5,0.46
12.62,32156.9,35444.6,0.6456,1.093,143.7,98.5,0.46
12.64,32094.7,35327.4,0.3883,0.8048,143.7,98.5,0.46
12.66,32073.5,35191.2,0.3005,0.4701,143.7,98.5,0.46
12.68,31884.8,35007.0,-0.4794,0.017,143.7,98.5,0.46
12.7,32016.9,34975.4,0.0668,-0.0604,143.7,98.5,0.46
12.72,31885.1,34874.0,-0.4782,-0.3098,143.7,98.5,0.46
12.74,31847.7,34803.1,-0.6325,-0.484,143.7,98.5,0.46
12.76,31910.0,34771.7,-0.3751,-0.5612,143.7,98.5,0.46
12.78,31810.8,34711.4,-0.7854,-0.7096,143.7,98.5,0.46
12.8,31871.0,34616.9,-0.5363,-0.942,143.7,98.5,0.46
12.82,31839.4,34676.4,-0.6668,-0.7957,143.7,98.5,0.46
12.84,31776.9,34645.3,-0.9254,-0.8719,143.7,98.5,0.46
12.86,31775.1,34501.5,-0.9327,-1.2256,143.7,98.5,0.46
12.88,31906.2,34386.1,-0.391,-1.5093,143.7,98.5,0.46
12.9,31720.3,34423.5,-1.1592,-1.4174,143.7,98.5,0.46
12.92,31947.7,34787.5,-0.2192,-0.5226,143.7,98.5,0.46
12.94,32024.9,35248.2,0.0998,0.61,143.7,98.5,0.46
12.96,32142.2,35527.1,0.5848,1.2957,143.7,98.5,0.46
12.98,32318.0,35723.9,1.3112,1.7795,143.7,98.5,0.46
13.0,32281.1,35767.7,1.1589,1.8873,143.7,98.5,0.46
13.02,32307.7,35556.6,1.2687,1.3682,143.7,98.5,0.46
13.04,32100.2,35353.6,0.4111,0.8692,143.7,98.5,0.46
13.06,32080.7,35230.8,0.3303,0.5674,143.7,98.5,0.46
13.08,32117.3,35175.7,0.4818,0.4319,143.7,98.5,0.46
13.1,32067.4,35099.4,0.2753,0.2443,143.7,98.5,0.46
13.12,32020.5,35052.7,0.0814,0.1294,143.7,98.5,0.46
13.14,32011.5,34918.5,0.0442,-0.2005,143.7,98.5,0.46
13.16,31908.8,34783.4,-0.38,-0.5327,143.7,98.5,0.46
13.18,31822.4,34763.9,-0.7374,-0.5805,143.7,98.5,0.46
13.2,31864.8,34706.5,-0.5619,-0.7216,143.7,98.5,0.46
13.22,31855.2,34626.1,-0.6016,-0.9193,143.7,98.5,0.46
13.24,31868.5,34684.5,-0.5466,-0.7757,143.7,98.5,0.46
13.26,31819.7,34558.6,-0.7482,-1.0853,143.7,98.5,0.46
13.28,31723.9,34507.2,-1.1443,-1.2114,143.7,98.5,0.46
13.3,31765.5,34378.9,-0.9724,-1.5271,143.7,98.5,0.46
13.32,31743.3,34704.1,-1.0641,-0.7276,143.7,98.5,0.46
13.34,31904.4,34829.6,-0.3984,-0.4191,143.7,98.5,0.46
13.36,32092.5,35196.0,0.3794,0.4819,143.7,98.5,0.46
13.38,32210.7,35566.1,0.8678,1.3915,143.7,98.5,0.46
13.4,32307.3,35800.8,1.2671,1.9687,143.7,98.5,0.46
13.42,32320.9,35722.7,1.3234,1.7767,143.7,98.5,0.46
13.44,32263.2,35573.2,1.0846,1.4091,143.7,98.5,0.46
13.46,32217.2,35302.3,0.8947,0.7432,143.7,98.5,0.46
13.48,32111.7,35211.3,0.4587,0.5195,143.7,98.5,0.46
13.5,31973.7,35117.3,-0.1118,0.2882,143.7,98.5,0.46
13.52,32001.1,35045.1,0.0015,0.1108,143.7,98.5,0.46
13.54,32041.4,34928.9,0.1679,-0.1749,143.7,98.5,0.46
13.56,32005.2,34963.3,0.0183,-0.0903,143.7,98.5,0.46
13.58,31877.4,34867.4,-0.5098,-0.3261,143.7,98.5,0.46
13.6,31922.6,34708.7,-0.3232,-0.7161,143.7,98.5,0.46
13.62,31847.8,34772.4,-0.6322,-0.5597,143.7,98.5,0.46
13.64,31812.5,34594.3,-0.7779,-0.9975,143.7,98.5,0.46
13.66,31850.5,34624.3,-0.6209,-0.9236,143.7,98.5,0.46
13.68,31844.1,34574.6,-0.6474,-1.0457,143.7,98.5,0.46
13.7,31703.5,34409.6,-1.2285,-1.4514,143.7,98.5,0.46
13.72,31770.4,34439.1,-0.952,-1.3789,143.7,98.5,0.46
13.74,31819.1,34636.0,-0.7507,-0.8949,143.7,98.5,0.46
13.76,31858.5,34901.2,-0.588,-0.2429,143.7,98.5,0.46
13.78,32114.5,35256.0,0.4703,0.6294,143.7,98.5,0.46
13.8,32294.0,35590.1,1.2122,1.4505,143.7,98.5,0.46
13.82,32364.1,35855.1,1.5017,2.1022,143.7,98.5,0.46
13.84,32365.3,35747.5,1.5068,1.8375,143.7,98.5,0.46
13.86,32213.5,35603.3,0.8795,1.483,143.7,98.5,0.46
13.88,32087.7,35360.3,0.3594,0.8858,143.7,98.5,0.46
13.9,32140.1,35273.3,0.5759,0.6719,143.7,98.5,0.46
13.92,32076.6,35118.0,0.3136,0.29,143.7,98.5,0.46
13.94,32001.9,34984.6,0.0048,-0.038,143.7,98.5,0.46
13.96,32070.6,34987.5,0.2886,-0.0307,143.7,98.5,0.46
13.98,32030.9,34913.4,0.1245,-0.2129,143.7,98.5,0.46
14.0,31914.5,34747.0,-0.3563,-0.622,143.7,98.5,0.46
14.02,31858.0,34670.5,-0.5902,-0.8101,143.7,98.5,0.46
14.04,31899.0,34721.6,-0.4207,-0.6846,143.7,98.5,0.46
14.06,31883.4,34660.1,-0.4851,-0.8358,143.7,98.5,0.46
14.08,31848.3,34631.8,-0.6301,-0.9053,143.7,98.5,0.46
14.1,31847.8,34640.9,-0.6322,-0.8828,143.7,98.5,0.46
14.12,31735.6,34462.4,-1.0962,-1.3217,143.7,98.5,0.46
14.14,31808.4,34531.6,-0.7949,-1.1515,143.7,98.5,0.46
14.16,31884.3,34700.9,-0.4813,-0.7353,143.7,98.5,0.46
14.18,31947.0,34961.8,-0.2221,-0.0939,143.7,98.5,0.46
14.2,32160.9,35305.3,0.662,0.7504,143.7,98.5,0.46
14.22,32277.9,35687.8,1.1454,1.6908,143.7,98.5,0.46
14.24,32330.1,35705.6,1.3614,1.7347,143.7,98.5,0.46
14.26,32368.4,35725.6,1.5198,1.7837,143.7,98.5,0.46
14.28,32228.0,35571.4,0.9395,1.4047,143.7,98.5,0.46
14.3,32197.0,35311.5,0.8111,0.7656,143.7,98.5,0.46
14.32,32079.4,35220.8,0.3252,0.5427,143.7,98.5,0.46
14.34,32041.6,35135.9,0.1688,0.334,143.7,98.5,0.46
14.36,32009.9,35031.9,0.038,0.0783,143.7,98.5,0.46
14.38,31871.5,34977.0,-0.5344,-0.0566,143.7,98.5,0.46
14.4,31997.3,34938.9,-0.0141,-0.1502,143.7,98.5,0.46
14.42,31988.7,34746.8,-0.0499,-0.6224,143.7,98.5,0.46
14.44,31827.8,34680.1,-0.7149,-0.7866,143.7,98.5,0.46
14.46,31889.2,34647.3,-0.461,-0.8672,143.7,98.5,0.46
14.48,31868.9,34632.1,-0.545,-0.9046,143.7,98.5,0.46
14.5,31842.8,34670.6,-0.6528,-0.81,143.7,98.5,0.46
14.52,31803.0,34532.7,-0.8172,-1.1488,143.7,98.5,0.46
14.54,31829.0,34522.9,-0.71,-1.173,143.7,98.5,0.46
14.56,31831.0,34460.2,-0.7016,-1.3271,143.7,98.5,0.46
14.58,31896.5,34595.5,-0.431,-0.9944,143.7,98.5,0.46
14.6,32051.8,34974.5,0.2108,-0.0627,143.7,98.5,0.46
14.62,32107.2,35351.2,0.4398,0.8634,143.7,98.5,0.46
14.64,32232.2,35597.3,0.9565,1.4682,143.7,98.5,0.46
14.66,32206.7,35719.5,0.8511,1.7687,143.7,98.5,0.46
14.68,32295.2,35703.5,1.217,1.7294,143.7,98.5,0.46
14.7,32137.8,35425.7,0.5667,1.0465,143.7,98.5,0.46
14.72,32150.5,35360.3,0.6191,0.8856,143.7,98.5,0.46
14.74,32115.7,35059.8,0.4752,0.1469,143.7,98.5,0.46
14.76,31962.8,34979.2,-0.1571,-0.0513,143.7,98.5,0.46
14.78,31939.8,35074.7,-0.2518,0.1835,143.7,98.5,0.46
14.8,32011.2,35017.6,0.043,0.0432,143.7,98.5,0.46
14.82,31930.9,34838.6,-0.2886,-0.3968,143.7,98.5,0.46
14.84,31962.6,34726.8,-0.1578,-0.6717,143.7,98.5,0.46
14.86,31807.9,34682.9,-0.7973,-0.7796,143.7,98.5,0.46
14.88,31964.9,34696.7,-0.1482,-0.7456,143.7,98.5,0.46
14.9,31826.0,34606.6,-0.7222,-0.9672,143.7,98.5,0.46
14.92,31769.1,34595.7,-0.9577,-0.994,143.7,98.5,0.46
14.94,31744.2,34478.7,-1.0605,-1.2815,143.7,98.5,0.46
14.96,31770.6,34408.6,-0.9512,-1.454,143.7,98.5,0.46
14.98,31755.0,34484.7,-1.0157,-1.2669,143.7,98.5,0.46
15.0,31881.8,34683.9,-0.4917,-0.7773,143.7,98.5,0.46
15.02,31962.7,35120.0,-0.1573,0.295,143.7,98.5,0.46
15.04,32161.0,35451.0,0.6625,1.1086,143.7,98.5,0.46
15.06,32245.8,35642.3,1.0128,1.5789,143.7,98.5,0.46
15.08,32335.5,35750.6,1.3838,1.8452,143.7,98.5,0.46
15.1,32360.9,35685.5,1.4886,1.6851,143.7,98.5,0.46
15.12,32222.9,35432.7,0.9184,1.0638,143.7,98.5,0.46
15.14,32088.9,35318.6,0.3645,0.7832,143.7,98.5,0.46
15.16,31978.8,35206.5,-0.0909,0.5076,143.7,98.5,0.46
15.18,32059.7,35022.8,0.2436,0.0561,143.7,98.5,0.46
15.2,32006.6,35062.5,0.0242,0.1537,143.7,98.5,0.46
15.22,32016.9,34966.0,0.0668,-0.0836,143.7,98.5,0.46
15.24,32025.0,34835.9,0.1001,-0.4035,143.7,98.5,0.46
15.26,31944.4,34771.2,-0.2331,-0.5626,143.7,98.5,0.46
15.28,31861.2,34658.8,-0.5769,-0.8388,143.7,98.5,0.46
15.3,31786.9,34609.4,-0.8838,-0.9604,143.7,98.5,0.46
15.32,31864.7,34670.7,-0.5626,-0.8097,143.7,98.5,0.46
15.34,31799.7,34582.9,-0.831,-1.0256,143.7,98.5,0.46
15.36,31770.9,34503.2,-0.9501,-1.2215,143.7,98.5,0.46
15.38,31787.3,34507.3,-0.8824,-1.2113,143.7,98.5,0.46
15.4,31769.7,34452.4,-0.955,-1.3464,143.7,98.5,0.46
15.42,31865.2,34788.6,-0.5602,-0.5197,143.7,98.5,0.46
15.44,32012.3,35071.7,0.0476,0.1763,143.7,98.5,0.46
15.46,32265.7,35402.4,1.0951,0.9891,143.7,98.5,0.46
15.48,32389.5,35720.9,1.6069,1.7722,143.7,98.5,0.46
15.5,32263.4,35650.3,1.0857,1.5987,143.7,98.5,0.46
15.52,32316.1,35716.0,1.3034,1.7601,143.7,98.5,0.46
15.54,32229.3,35530.1,0.9447,1.303,143.7,98.5,0.46
15.56,32138.8,35279.4,0.5705,0.6869,143.7,98.5,0.46
15.58,32081.7,35193.7,0.3345,0.4761,143.7,98.5,0.46
15.6,32024.6,35037.5,0.0985,0.0921,143.7,98.5,0.46
15.62,32032.5,34950.3,0.1313,-0.1223,143.7,98.5,0.46
15.64,31994.9,34958.5,-0.0243,-0.1021,143.7,98.5,0.46
15.66,31952.8,34902.8,-0.1984,-0.239,143.7,98.5,0.46
15.68,31878.5,34695.3,-0.5053,-0.7491,143.7,98.5,0.46
15.7,31878.8,34574.3,-0.5042,-1.0466,143.7,98.5,0.46
15.72,31918.9,34678.7,-0.3383,-0.7899,143.7,98.5,0.46
15.74,31839.6,34619.2,-0.666,-0.9362,143.7,98.5,0.46
15.76,31849.7,34662.3,-0.6244,-0.8303,143.7,98.5,0.46
15.78,31717.9,34482.7,-1.1691,-1.2718,143.7,98.5,0.46
15.8,31672.5,34500.0,-1.3569,-1.2293,143.7,98.5,0.46
15.82,31922.5,34512.2,-0.3236,-1.1991,143.7,98.5,0.46
15.84,31972.7,34744.8,-0.1159,-0.6275,143.7,98.5,0.46
15.86,32047.8,35149.0,0.1945,0.3663,143.7,98.5,0.46
15.88,32201.1,35437.3,0.828,1.075,143.7,98.5,0.46
15.9,32277.5,35661.1,1.1439,1.6251,143.7,98.5,0.46
15.92,32302.9,35817.8,1.2487,2.0104,143.7,98.5,0.46
15.94,32222.9,35678.5,0.9181,1.6681,143.7,98.5,0.46
15.96,32095.7,35465.1,0.3924,1.1433,143.7,98.5,0.46
15.98,32052.5,35167.0,0.214,0.4105,143.7,98.5,0.46
16.0,32047.4,35162.2,0.1927,0.3986,143.7,98.5,0.46
16.02,32074.4,35073.2,0.3044,0.18,143.7,98.5,0.46
16.04,32011.9,35095.2,0.0459,0.2339,143.7,98.5,0.46
16.06,31984.7,34918.7,-0.0664,-0.1999,143.7,98.5,0.46
16.08,31877.9,34784.8,-0.508,-0.5291,143.7,98.5,0.46
16.1,31896.2,34737.6,-0.4322,-0.6452,143.7,98.5,0.46
16.12,31893.7,34648.8,-0.4423,-0.8634,143.7,98.5,0.46
16.14,31906.3,34597.6,-0.3904,-0.9893,143.7,98.5,0.46
16.16,31865.0,34646.1,-0.5613,-0.8701,143.7,98.5,0.46
16.18,31800.2,34701.3,-0.8291,-0.7345,143.7,98.5,0.46
16.2,31811.0,34566.1,-0.7842,-1.0669,143.7,98.5,0.46
16.22,31815.9,34556.4,-0.764,-1.0906,143.7,98.5,0.46
16.24,31683.0,34470.2,-1.3134,-1.3025,143.7,98.5,0.46
16.26,31842.4,34812.6,-0.6546,-0.4608,143.7,98.5,0.46
16.28,32125.3,35215.3,0.5149,0.5292,143.7,98.5,0.46
16.3,32176.1,35491.3,0.7247,1.2077,143.7,98.5,0.46
16.32,32325.7,35783.0,1.3433,1.9248,143.7,98.5,0.46
16.34,32325.8,35836.3,1.3437,2.0559,143.7,98.5,0.46
16.36,32295.1,35597.2,1.2166,1.4681,143.7,98.5,0.46
16.38,32190.3,35336.9,0.7834,0.8281,143.7,98.5,0.46
16.4,32102.4,35208.0,0.4202,0.5112,143.7,98.5,0.46
16.42,32014.0,35130.5,0.0546,0.3208,143.7,98.5,0.46
16.44,31991.8,35159.2,-0.0371,0.3912,143.7,98.5,0.46
16.46,32046.4,34976.9,0.1887,-0.0569,143.7,98.5,0.46
16.48,31928.3,34933.5,-0.2995,-0.1636,143.7,98.5,0.46
16.5,31870.4,34705.6,-0.539,-0.7238,143.7,98.5,0.46
16.52,31932.5,34789.0,-0.2822,-0.5188,143.7,98.5,0.46
16.54,31831.1,34655.3,-0.7012,-0.8475,143.7,98.5,0.46
16.56,31787.0,34593.7,-0.8836,-0.9988,143.7,98.5,0.46
16.58,31860.8,34659.5,-0.5786,-0.8371,143.7,98.5,0.46
16.6,31784.7,34615.3,-0.893,-0.9459,143.7,98.5,0.46
16.62,31826.5,34445.6,-0.7204,-1.3631,143.7,98.5,0.46
16.64,31783.0,34525.9,-0.9001,-1.1655,143.7,98.5,0.46
16.66,31826.1,34530.3,-0.7218,-1.1547,143.7,98.5,0.46
16.68,31926.0,34822.0,-0.3089,-0.4376,143.7,98.5,0.46
16.7,32047.1,35204.3,0.1916,0.5021,143.7,98.5,0.46
16.72,32273.0,35640.5,1.1252,1.5745,143.7,98.5,0.46
16.74,32282.5,35793.6,1.1644,1.9509,143.7,98.5,0.46
16.76,32239.0,35693.6,0.9846,1.705,143.7,98.5,0.46
16.78,32220.0,35500.0,0.9062,1.2291,143.7,98.5,0.46
16.8,32178.9,35321.5,0.7363,0.7903,143.7,98.5,0.46
16.82,32072.4,35158.3,0.296,0.3892,143.7,98.5,0.46
16.84,32026.9,35058.0,0.1081,0.1426,143.7,98.5,0.46
16.86,32075.8,35162.2,0.3103,0.3988,143.7,98.5,0.46
16.88,32066.8,34961.0,0.273,-0.0959,143.7,98.5,0.46
16.9,31924.3,34915.6,-0.316,-0.2077,143.7,98.5,0.46
16.92,31954.7,34870.9,-0.1904,-0.3174,143.7,98.5,0.46
16.94,31908.5,34729.6,-0.3814,-0.6647,143.7,98.5,0.46
16.96,31843.0,34690.7,-0.6521,-0.7605,143.7,98.5,0.46
16.98,31727.7,34534.6,-1.1284,-1.1442,143.7,98.5,0.46
17.0,31798.6,34491.2,-0.8355,-1.251,143.7,98.5,0.46
17.02,31815.6,34570.8,-0.7651,-1.0551,143.7,98.5,0.46
17.04,31821.3,34505.4,-0.742,-1.2159,143.7,98.5,0.46
17.06,31760.2,34454.4,-0.9944,-1.3414,143.7,98.5,0.46
17.08,31861.0,34633.5,-0.5776,-0.9011,143.7,98.5,0.46
17.1,32053.3,34897.0,0.2173,-0.2532,143.7,98.5,0.46
17.12,32049.0,35308.3,0.1996,0.7579,143.7,98.5,0.46
17.14,32221.6,35603.1,0.9128,1.4825,143.7,98.5,0.46
17.16,32376.4,35824.4,1.5528,2.0265,143.7,98.5,0.46
17.18,32347.4,35741.2,1.4327,1.8221,143.7,98.5,0.46
17.2,32238.1,35511.0,0.9809,1.2562,143.7,98.5,0.46
17.22,32159.3,35420.9,0.6552,1.0347,143.7,98.5,0.46
17.24,32169.9,35167.7,0.6991,0.4122,143.7,98.5,0.46
17.26,32059.0,35092.7,0.2406,0.2278,143.7,98.5,0.46
17.28,31985.6,35091.3,-0.0626,0.2245,143.7,98.5,0.46
17.3,32058.6,35037.4,0.2391,0.0919,143.7,98.5,0.46
17.32,32037.1,34908.9,0.1504,-0.224,143.7,98.5,0.46
17.34,31889.2,34756.6,-0.4612,-0.5984,143.7,98.5,0.46
17.36,31892.3,34804.3,-0.4482,-0.4811,143.7,98.5,0.46
17.38,31846.5,34744.7,-0.6376,-0.6276,143.7,98.5,0.46
17.4,31886.3,34642.1,-0.4732,-0.88,143.7,98.5,0.46
17.42,31902.3,34601.9,-0.4071,-0.9786,143.7,98.5,0.46
17.44,31806.5,34537.2,-0.8028,-1.1378,143.7,98.5,0.46
17.46,31820.9,34482.1,-0.7435,-1.2733,143.7,98.5,0.46
17.48,31908.1,34446.5,-0.3828,-1.3607,143.7,98.5,0.46
17.5,31912.1,34633.2,-0.3665,-0.9017,143.7,98.5,0.46
17.52,31956.0,34953.7,-0.1849,-0.1139,143.7,98.5,0.46
17.54,32112.7,35355.8,0.4627,0.8746,143.7,98.5,0.46
17.56,32288.9,35600.6,1.191,1.4765,143.7,98.5,0.46
17.58,32262.9,35731.3,1.0835,1.7978,143.7,98.5,0.46
17.6,32357.3,35737.9,1.4739,1.814,143.7,98.5,0.46
17.62,32235.9,35459.1,0.9719,1.1286,143.7,98.5,0.46
17.64,32207.5,35330.8,0.8543,0.8131,143.7,98.5,0.46
17.66,32134.5,35191.7,0.5528,0.4713,143.7,98.5,0.46
17.68,32045.8,35130.5,0.1862,0.3207,143.7,98.5,0.46
17.7,32081.0,35072.2,0.3315,0.1774,143.7,98.5,0.46
17.72,32012.6,34965.7,0.0488,-0.0845,143.7,98.5,0.46
17.74,31963.2,34883.8,-0.155,-0.2857,143.7,98.5,0.46
17.76,31887.4,34751.4,-0.4684,-0.6111,143.7,98.5,0.46
17.78,31994.1,34715.3,-0.0277,-0.6999,143.7,98.5,0.46
17.8,31706.1,34637.8,-1.2181,-0.8904,143.7,98.5,0.46
17.82,31887.8,34599.6,-0.467,-0.9844,143.7,98.5,0.46
17.84,31910.5,34534.4,-0.373,-1.1447,143.7,98.5,0.46
17.86,31775.2,34337.0,-0.9325,-1.63,143.7,98.5,0.46
17.88,31759.6,34433.1,-0.9968,-1.3936,143.7,98.5,0.46
17.9,31739.4,34530.3,-1.0804,-1.1547,143.7,98.5,0.46
17.92,31856.8,34690.2,-0.5948,-0.7618,143.7,98.5,0.46
17.94,31941.4,34894.4,-0.2454,-0.2597,143.7,98.5,0.46
17.96,32165.8,35357.2,0.6821,0.8782,143.7,98.5,0.46
17.98,32157.1,35723.3,0.6462,1.778,143.7,98.5,0.46
18.0,32369.9,35761.0,1.5258,1.8708,143.7,98.5,0.46
18.02,32227.7,35668.3,0.9382,1.6428,143.7,98.5,0.46
18.04,32164.0,35468.6,0.6746,1.1519,143.7,98.5,0.46
18.06,32115.4,35339.0,0.4739,0.8334,143.7,98.5,0.46
18.08,32014.1,35138.4,0.0551,0.3403,143.7,98.5,0.46
18.1,31993.3,35162.2,-0.0308,0.3986,143.7,98.5,0.46
18.12,31982.0,35000.0,-0.0776,0.0,143.7,98.5,0.46
18.14,31950.0,34983.8,-0.2096,-0.0399,143.7,98.5,0.46
18.16,31883.8,34956.0,-0.4833,-0.1081,143.7,98.5,0.46
18.18,31937.4,34798.6,-0.2619,-0.4953,143.7,98.5,0.46
18.2,31802.7,34716.3,-0.8187,-0.6975,143.7,98.5,0.46
18.22,31886.6,34688.9,-0.4717,-0.7648,143.7,98.5,0.46
18.24,31883.1,34675.2,-0.4863,-0.7984,143.7,98.5,0.46
18.26,31803.2,34608.1,-0.8167,-0.9636,143.7,98.5,0.46
18.28,31841.1,34533.7,-0.6599,-1.1463,143.7,98.5,0.46
18.3,31755.8,34426.3,-1.0124,-1.4104,143.7,98.5,0.46
18.32,31824.4,34551.9,-0.7288,-1.1017,143.7,98.5,0.46
18.34,31858.4,34670.4,-0.5884,-0.8104,143.7,98.5,0.46
18.36,31990.9,35023.6,-0.0406,0.0581,143.7,98.5,0.46
18.38,32141.1,35365.7,0.5801,0.899,143.7,98.5,0.46
18.4,32247.6,35651.6,1.0204,1.6019,143.7,98.5,0.46
18.42,32316.8,35765.3,1.3064,1.8813,143.7,98.5,0.46
18.44,32301.2,35594.3,1.2418,1.4609,143.7,98.5,0.46
18.46,32266.2,35510.6,1.097,1.2551,143.7,98.5,0.46
18.48,32148.4,35301.4,0.6103,0.741,143.7,98.5,0.46
18.5,32066.2,35142.8,0.2704,0.351,143.7,98.5,0.46
18.52,32078.9,35011.2,0.3229,0.0275,143.7,98.5,0.46
18.54,32103.1,35077.1,0.4231,0.1895,143.7,98.5,0.46
18.56,31962.7,35042.4,-0.1573,0.1043,143.7,98.5,0.46
18.58,31932.5,34841.1,-0.2819,-0.3907,143.7,98.5,0.46
18.6,31880.9,34680.8,-0.4955,-0.7847,143.7,98.5,0.46
18.62,31858.9,34591.7,-0.5863,-1.0038,143.7,98.5,0.46
18.64,31800.9,34649.6,-0.8262,-0.8614,143.7,98.5,0.46
18.66,31837.8,34678.1,-0.6737,-0.7914,143.7,98.5,0.46
18.68,31808.4,34616.9,-0.795,-0.9418,143.7,98.5,0.46
18.7,31693.0,34570.8,-1.2723,-1.0551,143.7,98.5,0.46
18.72,31688.9,34489.3,-1.2891,-1.2556,143.7,98.5,0.46
18.74,31813.3,34487.4,-0.7749,-1.2603,143.7,98.5,0.46
18.76,31959.8,34782.8,-0.1693,-0.5341,143.7,98.5,0.46
18.78,32059.4,35028.5,0.2423,0.07,143.7,98.5,0.46
18.8,32144.7,35445.3,0.5948,1.0948,143.7,98.5,0.46
18.82,32345.0,35705.8,1.4229,1.735,143.7,98.5,0.46
18.84,32382.6,35760.2,1.5782,1.8687,143.7,98.5,0.46
18.86,32216.3,35629.2,0.8911,1.5467,143.7,98.5,0.46
18.88,32185.9,35367.5,0.7652,0.9034,143.7,98.5,0.46
18.9,32031.1,35257.6,0.1255,0.6332,143.7,98.5,0.46
18.92,32060.2,35069.4,0.2458,0.1705,143.7,98.5,0.46
18.94,32008.1,35118.8,0.0304,0.292,143.7,98.5,0.46
18.96,31985.5,35007.4,-0.0632,0.0182,143.7,98.5,0.46
18.98,32002.0,34924.1,0.005,-0.1866,143.7,98.5,0.46
19.0,31876.9,34876.2,-0.5121,-0.3045,143.7,98.5,0.46
19.02,31938.5,34729.4,-0.2574,-0.6654,143.7,98.5,0.46
19.04,31818.3,34785.8,-0.7542,-0.5266,143.7,98.5,0.46
19.06,31829.0,34576.2,-0.7099,-1.0418,143.7,98.5,0.46
19.08,31839.2,34611.4,-0.668,-0.9554,143.7,98.5,0.46
19.1,31941.7,34501.5,-0.2442,-1.2255,143.7,98.5,0.46
19.12,31740.6,34466.2,-1.0752,-1.3125,143.7,98.5,0.46
19.14,31663.7,34490.9,-1.393,-1.2516,143.7,98.5,0.46
19.16,31902.1,34466.5,-0.4076,-1.3117,143.7,98.5,0.46
19.18,31882.3,34792.5,-0.4896,-0.5101,143.7,98.5,0.46
19.2,32062.2,35134.4,0.2542,0.3302,143.7,98.5,0.46
19.22,32150.8,35476.5,0.62,1.1712,143.7,98.5,0.46
19.24,32377.9,35797.9,1.559,1.9615,143.7,98.5,0.46
19.26,32247.2,35785.9,1.0188,1.9321,143.7,98.5,0.46
19.28,32317.8,35650.6,1.3104,1.5994,143.7,98.5,0.46
19.3,32073.9,35426.7,0.3024,1.0489,143.7,98.5,0.46
19.32,32120.4,35243.9,0.4947,0.5996,143.7,98.5,0.46
19.34,32094.4,35096.7,0.3872,0.2377,143.7,98.5,0.46
19.36,31984.1,35138.6,-0.0687,0.3406,143.7,98.5,0.46
19.38,32006.8,35044.7,0.025,0.1099,143.7,98.5,0.46
19.4,31973.2,34911.7,-0.1141,-0.217,143.7,98.5,0.46
19.42,31875.7,34832.8,-0.517,-0.4111,143.7,98.5,0.46
19.44,31841.3,34791.6,-0.6589,-0.5124,143.7,98.5,0.46
19.46,31879.3,34726.5,-0.5019,-0.6724,143.7,98.5,0.46
19.48,31849.5,34747.4,-0.6253,-0.6211,143.7,98.5,0.46
19.5,31913.1,34655.2,-0.3622,-0.8478,143.7,98.5,0.46
19.52,31777.0,34587.1,-0.925,-1.0151,143.7,98.5,0.46
19.54,31751.7,34558.4,-1.0293,-1.0858,143.7,98.5,0.46
19.56,31794.8,34503.8,-0.8511,-1.22,143.7,98.5,0.46
19.58,31885.4,34534.4,-0.4768,-1.1447,143.7,98.5,0.46
19.6,31946.6,34764.1,-0.2237,-0.5801,143.7,98.5,0.46
19.62,32041.3,35115.3,0.1677,0.2835,143.7,98.5,0.46
19.64,32273.4,35555.3,1.1268,1.3651,143.7,98.5,0.46
19.66,32421.2,35686.3,1.738,1.6871,143.7,98.5,0.46
19.68,32382.9,35707.3,1.5797,1.7387,143.7,98.5,0.46
19.7,32235.0,35601.4,0.9681,1.4783,143.7,98.5,0.46
19.72,32178.6,35313.9,0.7352,0.7716,143.7,98.5,0.46
19.74,32040.7,35221.6,0.1653,0.5447,143.7,98.5,0.46
19.76,32010.4,35098.5,0.04,0.242,143.7,98.5,0.46
19.78,32031.4,35109.4,0.1266,0.2689,143.7,98.5,0.46
19.8,32011.7,35058.3,0.0452,0.1433,143.7,98.5,0.46
19.82,31951.1,34889.3,-0.2052,-0.2721,143.7,98.5,0.46
19.84,31993.3,34882.1,-0.0307,-0.2899,143.7,98.5,0.46
19.86,31934.6,34695.6,-0.2734,-0.7483,143.7,98.5,0.46
19.88,31811.7,34656.8,-0.7812,-0.8439,143.7,98.5,0.46
19.9,31885.3,34722.2,-0.4773,-0.6831,143.7,98.5,0.46
19.92,31811.2,34486.5,-0.7834,-1.2625,143.7,98.5,0.46
19.94,31883.6,34646.9,-0.4843,-0.8681,143.7,98.5,0.46
19.96,31762.4,34429.2,-0.9852,-1.4033,143.7,98.5,0.46
19.98,31768.1,34473.8,-0.9617,-1.2935,143.7,98.5,0.46
20.0,31825.4,34545.0,-0.7247,-1.1186,143.7,98.5,0.46
20.02,32040.3,34876.1,0.1634,-0.3048,143.7,98.5,0.46
20.04,32091.6,35279.8,0.3756,0.6877,143.7,98.5,0.46
20.06,32209.0,35558.8,0.8606,1.3737,143.7,98.5,0.46
20.08,32405.0,35757.6,1.6711,1.8625,143.7,98.5,0.46
20.1,32245.7,35718.7,1.0124,1.7668,143.7,98.5,0.46
20.12,32218.7,35699.5,0.9007,1.7197,143.7,98.5,0.46
20.14,32191.7,35377.4,0.7894,0.9277,143.7,98.5,0.46
20.16,32150.4,35221.1,0.6185,0.5436,143.7,98.5,0.46
20.18,32097.6,35124.2,0.4002,0.3052,143.7,98.5,0.46
20.2,31887.8,35100.7,-0.4667,0.2476,143.7,98.5,0.46
20.22,31985.1,35145.2,-0.0647,0.3569,143.7,98.5,0.46
20.24,32009.0,34918.2,0.0339,-0.2012,143.7,98.5,0.46
20.26,31940.1,34753.2,-0.2508,-0.6068,143.7,98.5,0.46
20.28,31891.9,34740.4,-0.45,-0.6383,143.7,98.5,0.46
20.3,31898.0,34657.2,-0.4248,-0.8429,143.7,98.5,0.46
20.32,31869.4,34575.0,-0.543,-1.0449,143.7,98.5,0.46
20.34,31813.7,34561.3,-0.7732,-1.0786,143.7,98.5,0.46
20.36,31777.0,34629.9,-0.9247,-0.9099,143.7,98.5,0.46
20.38,31735.7,34394.5,-1.0958,-1.4887,143.7,98.5,0.46
20.4,31738.1,34423.2,-1.0857,-1.418,143.7,98.5,0.46
20.42,31808.1,34613.1,-0.7963,-0.9512,143.7,98.5,0.46
20.44,32026.5,34950.8,0.1062,-0.1209,143.7,98.5,0.46
20.46,32144.2,35310.1,0.5931,0.7623,143.7,98.5,0.46
20.48,32196.1,35598.6,0.8076,1.4714,143.7,98.5,0.46
20.5,32426.8,35849.8,1.7609,2.0891,143.7,98.5,0.46
20.52,32261.0,35660.7,1.0755,1.6242,143.7,98.5,0.46
20.54,32152.0,35493.8,0.6253,1.214,143.7,98.5,0.46
20.56,32168.3,35332.8,0.6927,0.818,143.7,98.5,0.46
20.58,32133.3,35213.4,0.5477,0.5246,143.7,98.5,0.46
20.6,32053.9,35048.3,0.2195,0.1188,143.7,98.5,0.46
20.62,32027.1,35008.7,0.109,0.0212,143.7,98.5,0.46
20.64,31952.6,34999.3,-0.1992,-0.0019,143.7,98.5,0.46
20.66,32004.3,34995.2,0.0145,-0.0119,143.7,98.5,0.46
20.68,31910.7,34784.1,-0.3724,-0.5309,143.7,98.5,0.46
20.7,31795.8,34685.2,-0.8473,-0.7739,143.7,98.5,0.46
20.72,32032.1,34653.6,0.1298,-0.8517,143.7,98.5,0.46
20.74,31881.5,34592.5,-0.493,-1.0019,143.7,98.5,0.46
20.76,31837.4,34650.0,-0.6751,-0.8605,143.7,98.5,0.46
20.78,31796.8,34552.3,-0.8431,-1.1007,143.7,98.5,0.46
20.8,31702.5,34417.4,-1.233,-1.4324,143.7,98.5,0.46
20.82,31685.7,34452.5,-1.3021,-1.3461,143.7,98.5,0.46
20.84,31878.2,34628.0,-0.5064,-0.9145,143.7,98.5,0.46
20.86,31965.1,34955.3,-0.1473,-0.1099,143.7,98.5,0.46
20.88,32109.6,35407.8,0.4501,1.0026,143.7,98.5,0.46
20.9,32186.8,35614.1,0.7688,1.5097,143.7,98.5,0.46
20.92,32247.0,35717.1,1.0179,1.7628,143.7,98.5,0.46
20.94,32313.9,35587.1,1.2943,1.4432,143.7,98.5,0.46
20.96,32272.9,35504.7,1.125,1.2406,143.7,98.5,0.46
20.98,32159.3,35273.0,0.6551,0.6711,143.7,98.5,0.46
21.0,32096.4,35226.1,0.3953,0.5558,143.7,98.5,0.46
21.02,32057.2,35059.4,0.2334,0.146,143.7,98.5,0.46
21.04,32028.1,35021.5,0.113,0.0529,143.7,98.5,0.46
21.06,31922.9,34918.2,-0.3219,-0.2011,143.7,98.5,0.46
21.08,31959.5,34858.9,-0.1705,-0.347,143.7,98.5,0.46
21.1,31919.4,34693.2,-0.3364,-0.7543,143.7,98.5,0.46
21.12,31806.8,34727.6,-0.8016,-0.6696,143.7,98.5,0.46
21.14,31897.6,34699.6,-0.4263,-0.7387,143.7,98.5,0.46
21.16,31892.7,34718.0,-0.4467,-0.6934,143.7,98.5,0.46
21.18,31896.8,34646.5,-0.4296,-0.869,143.7,98.5,0.46
21.2,31808.1,34539.1,-0.7962,-1.133,143.7,98.5,0.46
21.22,31789.4,34535.5,-0.8737,-1.1419,143.7,98.5,0.46
21.24,31699.1,34481.1,-1.2469,-1.2756,143.7,98.5,0.46
21.26,31908.1,34746.3,-0.3828,-0.6237,143.7,98.5,0.46
21.28,32023.8,35014.8,0.0953,0.0362,143.7,98.5,0.46
21.3,32134.2,35355.7,0.5515,0.8743,143.7,98.5,0.46
21.32,32248.6,35708.1,1.0246,1.7408,143.7,98.5,0.46
21.34,32320.4,35754.8,1.3212,1.8556,143.7,98.5,0.46
21.36,32289.4,35712.0,1.1929,1.7502,143.7,98.5,0.46
21.38,32147.5,35505.4,0.6064,1.2423,143.7,98.5,0.46
21.4,32074.2,35311.2,0.3034,0.765,143.7,98.5,0.46
21.42,31975.0,35176.6,-0.1066,0.4342,143.7,98.5,0.46
21.44,31979.7,35121.6,-0.0872,0.299,143.7,98.5,0.46
21.46,31989.0,35113.5,-0.0486,0.279,143.7,98.5,0.46
21.48,31966.5,34935.4,-0.1417,-0.1588,143.7,98.5,0.46
21.5,31880.6,34845.6,-0.4966,-0.3796,143.7,98.5,0.46
21.52,31930.6,34838.7,-0.2899,-0.3965,143.7,98.5,0.46
21.54,31893.9,34768.0,-0.4417,-0.5703,143.7,98.5,0.46
21.56,31869.6,34687.3,-0.5422,-0.7688,143.7,98.5,0.46
21.58,31833.4,34693.8,-0.6919,-0.7529,143.7,98.5,0.46
21.6,31873.8,34588.3,-0.5246,-1.0122,143.7,98.5,0.46
21.62,31723.7,34662.6,-1.1452,-0.8296,143.7,98.5,0.46
21.64,31813.0,34423.9,-0.7759,-1.4163,143.7,98.5,0.46
21.66,31860.0,34583.3,-0.5816,-1.0244,143.7,98.5,0.46
21.68,31859.9,34650.9,-0.5821,-0.8584,143.7,98.5,0.46
21.7,32005.5,35023.7,0.0195,0.0583,143.7,98.5,0.46
21.72,32168.6,35496.6,0.6939,1.2209,143.7,98.5,0.46
21.74,32283.7,35701.2,1.1694,1.7237,143.7,98.5,0.46
21.76,32374.6,35742.9,1.5451,1.8262,143.7,98.5,0.46
21.78,32282.5,35589.7,1.1647,1.4495,143.7,98.5,0.46
21.8,32264.2,35610.7,1.0889,1.5014,143.7,98.5,0.46
21.82,32133.2,35281.9,0.5475,0.6929,143.7,98.5,0.46
21.84,32068.1,35159.2,0.2782,0.3913,143.7,98.5,0.46
21.86,32070.7,35108.0,0.289,0.2655,143.7,98.5,0.46
21.88,32023.3,35061.2,0.093,0.1504,143.7,98.5,0.46
21.9,31948.9,34947.3,-0.2145,-0.1296,143.7,98.5,0.46
21.92,31937.6,34883.0,-0.261,-0.2876,143.7,98.5,0.46
21.94,31940.6,34761.4,-0.2485,-0.5867,143.7,98.5,0.46
21.96,31892.3,34691.1,-0.4483,-0.7594,143.7,98.5,0.46
21.98,31879.5,34709.4,-0.5014,-0.7146,143.7,98.5,0.46
22.0,31842.5,34740.0,-0.6543,-0.6392,143.7,98.5,0.46
22.02,31834.3,34517.7,-0.6878,-1.1857,143.7,98.5,0.46
22.04,31771.8,34614.2,-0.9465,-0.9486,143.7,98.5,0.46
22.06,31785.4,34381.6,-0.8902,-1.5202,143.7,98.5,0.46
22.08,31730.1,34471.7,-1.1186,-1.2989,143.7,98.5,0.46
22.1,32007.5,34724.2,0.0277,-0.6782,143.7,98.5,0.46
22.12,32043.3,35119.4,0.1759,0.2935,143.7,98.5,0.46
22.14,32176.0,35486.6,0.7245,1.1963,143.7,98.5,0.46
22.16,32274.8,35800.3,1.1327,1.9674,143.7,98.5,0.46
22.18,32267.1,35767.3,1.1007,1.8863,143.7,98.5,0.46
22.2,32305.1,35578.2,1.2581,1.4214,143.7,98.5,0.46
22.22,32101.9,35448.4,0.418,1.1022,143.7,98.5,0.46
22.24,32125.3,35246.4,0.5149,0.6057,143.7,98.5,0.46
22.26,32065.0,35252.1,0.2654,0.6198,143.7,98.5,0.46
22.28,31998.3,35005.0,-0.0101,0.0122,143.7,98.5,0.46
22.3,31985.8,35057.7,-0.0619,0.1417,143.7,98.5,0.46
22.32,32067.2,34906.4,0.2745,-0.2301,143.7,98.5,0.46
22.34,31809.0,34765.6,-0.7926,-0.5762,143.7,98.5,0.46
22.36,31940.4,34719.3,-0.2494,-0.6902,143.7,98.5,0.46
22.38,31891.1,34731.4,-0.4531,-0.6603,143.7,98.5,0.46
22.4,31898.8,34713.0,-0.4214,-0.7057,143.7,98.5,0.46
22.42,31807.2,34609.4,-0.8,-0.9603,143.7,98.5,0.46
22.44,31804.5,34695.8,-0.8111,-0.7479,143.7,98.5,0.46
22.46,31802.8,34533.1,-0.8182,-1.1479,143.7,98.5,0.46
22.48,31800.1,34526.8,-0.8293,-1.1634,143.7,98.5,0.46
22.5,31761.7,34505.3,-0.9881,-1.2161,143.7,98.5,0.46
22.52,31947.1,34767.4,-0.2218,-0.5718,143.7,98.5,0.46
22.54,32066.0,35160.4,0.2698,0.3942,143.7,98.5,0.46
22.56,32197.4,35468.6,0.8127,1.1519,143.7,98.5,0.46
22.58,32317.3,35716.0,1.3084,1.7602,143.7,98.5,0.46
22.6,32231.7,35729.7,0.9546,1.7939,143.7,98.5,0.46
22.62,32179.5,35689.7,0.7388,1.6955,143.7,98.5,0.46
22.64,32168.3,35384.3,0.6925,0.9447,143.7,98.5,0.46
22.66,31992.7,35241.1,-0.0333,0.5926,143.7,98.5,0.46
22.68,32087.9,35124.5,0.3602,0.3059,143.7,98.5,0.46
22.7,32010.5,35046.3,0.0402,0.1137,143.7,98.5,0.46
22.72,32055.9,34935.9,0.2281,-0.1576,143.7,98.5,0.46
22.74,32063.9,35019.3,0.2611,0.0473,143.7,98.5,0.46
22.76,31911.3,34723.4,-0.3696,-0.68,143.7,98.5,0.46
22.78,31838.3,34634.4,-0.6714,-0.8989,143.7,98.5,0.46
22.8,31832.5,34605.7,-0.6957,-0.9694,143.7,98.5,0.46
22.82,31842.5,34689.9,-0.6541,-0.7624,143.7,98.5,0.46
22.84,31768.5,34669.7,-0.9602,-0.8122,143.7,98.5,0.46
22.86,31865.2,34456.2,-0.5601,-1.3369,143.7,98.5,0.46
22.88,31788.2,34460.1,-0.8787,-1.3275,143.7,98.5,0.46
22.9,31798.6,34463.7,-0.8358,-1.3185,143.7,98.5,0.46
22.92,31849.6,34529.8,-0.6248,-1.1561,143.7,98.5,0.46
22.94,31963.8,34861.9,-0.1528,-0.3396,143.7,98.5,0.46
22.96,31980.5,35212.0,-0.0839,0.521,143.7,98.5,0.46
22.98,32209.4,35623.2,0.8626,1.5319,143.7,98.5,0.46
23.0,32251.0,35759.5,1.0344,1.8671,143.7,98.5,0.46
23.02,32280.1,35724.0,1.1546,1.7797,143.7,98.5,0.46
23.04,32183.8,35644.5,0.7567,1.5843,143.7,98.5,0.46
23.06,32130.5,35471.4,0.5363,1.1589,143.7,98.5,0.46
23.08,32080.3,35212.3,0.3289,0.5218,143.7,98.5,0.46
23.1,31971.6,35127.4,-0.1205,0.313,143.7,98.5,0.46
23.12,32056.1,35049.5,0.2289,0.1217,143.7,98.5,0.46
23.14,32032.7,35099.0,0.1321,0.2433,143.7,98.5,0.46
23.16,31979.2,34972.2,-0.0893,-0.0685,143.7,98.5,0.46
23.18,31930.2,34823.3,-0.2916,-0.4344,143.7,98.5,0.46
23.2,31870.4,34574.7,-0.5387,-1.0457,143.7,98.5,0.46
23.22,31831.7,34587.4,-0.6989,-1.0143,143.7,98.5,0.46
23.24,31819.4,34626.2,-0.7495,-0.9191,143.7,98.5,0.46
23.26,31791.9,34586.9,-0.8634,-1.0155,143.7,98.5,0.46
23.28,31860.2,34622.9,-0.5808,-0.9271,143.7,98.5,0.46
23.3,31822.0,34559.6,-0.7388,-1.0827,143.7,98.5,0.46
23.32,31753.5,34491.0,-1.0219,-1.2514,143.7,98.5,0.46
23.34,31825.8,34614.2,-0.7231,-0.9486,143.7,98.5,0.46
23.36,31929.4,34778.9,-0.2947,-0.5435,143.7,98.5,0.46
23.38,32063.9,35246.1,0.2609,0.605,143.7,98.5,0.46
23.4,32242.2,35613.1,0.9978,1.5072,143.7,98.5,0.46
23.42,32355.7,35730.1,1.4673,1.7949,143.7,98.5,0.46
23.44,32299.5,35677.8,1.235,1.6662,143.7,98.5,0.46
23.46,32254.9,35467.8,1.0506,1.1501,143.7,98.5,0.46
23.48,32124.8,35347.9,0.5128,0.8552,143.7,98.5,0.46
23.5,32149.7,35249.4,0.6156,0.6131,143.7,98.5,0.46
23.52,31976.4,35108.8,-0.1009,0.2674,143.7,98.5,0.46
23.54,32007.0,35050.7,0.0257,0.1246,143.7,98.5,0.46
23.56,31996.9,35004.7,-0.016,0.0114,143.7,98.5,0.46
23.58,31998.0,34911.1,-0.0115,-0.2186,143.7,98.5,0.46
23.6,31924.7,34770.3,-0.3144,-0.5649,143.7,98.5,0.46
23.62,31863.0,34730.1,-0.5695,-0.6636,143.7,98.5,0.46
23.64,31809.6,34599.9,-0.7901,-0.9838,143.7,98.5,0.46
23.66,31877.2,34601.4,-0.5106,-0.9799,143.7,98.5,0.46
23.68,31854.0,34739.2,-0.6064,-0.6413,143.7,98.5,0.46
23.7,31883.7,34557.0,-0.4839,-1.0891,143.7,98.5,0.46
23.72,31714.4,34560.3,-1.1835,-1.081,143.7,98.5,0.46
23.74,31692.3,34468.8,-1.2748,-1.306,143.7,98.5,0.46
23.76,31896.6,34684.9,-0.4306,-0.7746,143.7,98.5,0.46
23.78,31955.6,34974.6,-0.1868,-0.0626,143.7,98.5,0.46
23.8,32130.5,35296.0,0.5364,0.7275,143.7,98.5,0.46
23.82,32245.0,35556.8,1.0096,1.3687,143.7,98.5,0.46
23.84,32348.4,35781.0,1.437,1.9199,143.7,98.5,0.46
23.86,32314.3,35652.9,1.2958,1.6051,143.7,98.5,0.46
23.88,32172.7,35523.0,0.7108,1.2857,143.7,98.5,0.46
23.9,32144.2,35324.6,0.593,0.7979,143.7,98.5,0.46
23.92,32070.0,35249.7,0.2861,0.6137,143.7,98.5,0.46
23.94,32068.4,35092.1,0.2795,0.2263,143.7,98.5,0.46
23.96,32021.5,35022.0,0.0857,0.054,143.7,98.5,0.46
23.98,32011.9,34964.3,0.046,-0.0878,143.7,98.5,0.46
24.0,31968.9,34993.1,-0.1317,-0.017,143.7,98.5,0.46
24.02,31882.7,34664.0,-0.4881,-0.8261,143.7,98.5,0.46
24.04,31862.0,34773.0,-0.5735,-0.5581,143.7,98.5,0.46
24.06,31862.9,34664.7,-0.5699,-0.8243,143.7,98.5,0.46
24.08,31860.9,34700.7,-0.5779,-0.7359,143.7,98.5,0.46
24.1,31810.8,34657.1,-0.785,-0.843,143.7,98.5,0.46
24.12,31769.9,34491.4,-0.9543,-1.2504,143.7,98.5,0.46
24.14,31748.1,34500.7,-1.0445,-1.2276,143.7,98.5,0.46
24.16,31788.4,34515.2,-0.8778,-1.1918,143.7,98.5,0.46
24.18,31836.6,34659.1,-0.6786,-0.8381,143.7,98.5,0.46
24.2,32001.4,34922.3,0.0026,-0.1911,143.7,98.5,0.46
24.22,32144.0,35297.1,0.5921,0.7303,143.7,98.5,0.46
24.24,32312.1,35614.7,1.2867,1.5111,143.7,98.5,0.46
24.26,32263.7,35683.6,1.087,1.6805,143.7,98.5,0.46
24.28,32293.8,35798.5,1.2111,1.9629,143.7,98.5,0.46
24.3,32207.0,35617.5,0.8526,1.518,143.7,98.5,0.46
24.32,32126.3,35378.5,0.5188,0.9304,143.7,98.5,0.46
24.34,32074.5,35154.2,0.3047,0.3791,143.7,98.5,0.46
24.36,31996.3,35117.1,-0.0186,0.2878,143.7,98.5,0.46
24.38,31987.1,35089.6,-0.0563,0.2202,143.7,98.5,0.46
24.4,31946.6,34972.1,-0.2237,-0.0685,143.7,98.5,0.46
24.42,31872.6,34830.7,-0.5295,-0.4164,143.7,98.5,0.46
24.44,31884.9,34678.4,-0.4788,-0.7906,143.7,98.5,0.46
24.46,31835.5,34686.6,-0.6832,-0.7705,143.7,98.5,0.46
24.48,31773.5,34686.8,-0.9394,-0.7701,143.7,98.5,0.46
24.5,31768.0,34653.6,-0.9621,-0.8518,143.7,98.5,0.46
24.52,31840.1,34744.6,-0.6639,-0.6278,143.7,98.5,0.46
24.54,31756.2,34446.4,-1.0108,-1.3611,143.7,98.5,0.46
24.56,31823.6,34490.2,-0.7324,-1.2534,143.7,98.5,0.46
24.58,31694.4,34596.9,-1.2661,-0.9911,143.7,98.5,0.46
24.6,31876.7,34692.0,-0.5126,-0.7572,143.7,98.5,0.46
24.62,32066.6,35016.7,0.2721,0.041,143.7,98.5,0.46
24.64,32113.9,35511.6,0.4675,1.2577,143.7,98.5,0.46
24.66,32244.4,35647.8,1.007,1.5926,143.7,98.5,0.46
24.68,32319.9,35735.5,1.3191,1.808,143.7,98.5,0.46
24.7,32236.7,35658.7,0.9754,1.6193,143.7,98.5,0.46
24.72,32190.3,35523.5,0.7833,1.2869,143.7,98.5,0.46
24.74,32091.0,35236.9,0.373,0.5822,143.7,98.5,0.46
24.76,32057.1,35135.0,0.2328,0.3319,143.7,98.5,0.46
24.78,32041.3,35135.8,0.1675,0.3338,143.7,98.5,0.46
24.8,32024.9,35039.5,0.0999,0.0972,143.7,98.5,0.46
24.82,32042.6,35047.3,0.173,0.1162,143.7,98.5,0.46
24.84,31842.2,34813.6,-0.6554,-0.4583,143.7,98.5,0.46
24.86,31873.3,34757.1,-0.5269,-0.5971,143.7,98.5,0.46
24.88,31784.8,34733.4,-0.8928,-0.6554,143.7,98.5,0.46
24.9,31793.8,34714.6,-0.8555,-0.7018,143.7,98.5,0.46
24.92,31766.1,34643.5,-0.9699,-0.8765,143.7,98.5,0.46
24.94,31859.6,34500.2,-0.5834,-1.2288,143.7,98.5,0.46
24.96,31813.6,34536.7,-0.7734,-1.1391,143.7,98.5,0.46
24.98,31865.7,34454.5,-0.5582,-1.3412,143.7,98.5,0.46
25.0,31793.6,34531.1,-0.8564,-1.1527,143.7,98.5,0.46
25.02,31876.5,34728.4,-0.5137,-0.6677,143.7,98.5,0.46
25.04,31962.8,35007.8,-0.1567,0.0192,143.7,98.5,0.46
25.06,32212.6,35434.0,0.8758,1.0669,143.7,98.5,0.46
25.08,32365.2,35719.3,1.5064,1.7683,143.7,98.5,0.46
25.1,32246.6,35832.7,1.0161,2.047,143.7,98.5,0.46
25.12,32356.6,35708.4,1.471,1.7415,143.7,98.5,0.46
25.14,32257.6,35410.8,1.0618,1.0098,143.7,98.5,0.46
25.16,32138.4,35271.2,0.5691,0.6666,143.7,98.5,0.46
25.18,31991.8,35165.0,-0.0371,0.4057,143.7,98.5,0.46
25.2,32030.2,35011.7,0.1217,0.0286,143.7,98.5,0.46
25.22,31929.1,34977.1,-0.2963,-0.0563,143.7,98.5,0.46
25.24,31923.5,35016.4,-0.3192,0.0403,143.7,98.5,0.46
25.26,31907.8,34962.6,-0.3844,-0.092,143.7,98.5,0.46
25.28,31897.1,34859.2,-0.4283,-0.3461,143.7,98.5,0.46
25.3,31916.9,34689.8,-0.3465,-0.7627,143.7,98.5,0.46
25.32,31908.2,34658.0,-0.3825,-0.8409,143.7,98.5,0.46
25.34,31871.7,34593.7,-0.5332,-0.9988,143.7,98.5,0.46
25.36,31931.3,34553.1,-0.2871,-1.0988,143.7,98.5,0.46
25.38,31807.4,34532.3,-0.7993,-1.1498,143.7,98.5,0.46
25.4,31784.1,34466.5,-0.8956,-1.3116,143.7,98.5,0.46
25.42,31738.1,34542.8,-1.0858,-1.124,143.7,98.5,0.46
25.44,31869.7,34848.0,-0.5419,-0.3737,143.7,98.5,0.46
25.46,32088.3,35104.0,0.3618,0.2557,143.7,98.5,0.46
25.48,32225.3,35437.6,0.9283,1.0758,143.7,98.5,0.46
25.5,32316.7,35649.9,1.306,1.5977,143.7,98.5,0.46
25.52,32330.6,35703.1,1.3632,1.7284,143.7,98.5,0.46
25.54,32268.6,35642.9,1.1073,1.5804,143.7,98.5,0.46
25.56,32233.5,35440.4,0.962,1.0826,143.7,98.5,0.46
25.58,32041.6,35276.3,0.169,0.6792,143.7,98.5,0.46
25.6,32046.0,35125.8,0.187,0.3093,143.7,98.5,0.46
25.62,32011.1,35055.7,0.0428,0.1369,143.7,98.5,0.46
25.64,31931.7,35102.6,-0.2856,0.2521,143.7,98.5,0.46
25.66,31941.0,34963.1,-0.2471,-0.0908,143.7,98.5,0.46
25.68,31851.8,34830.0,-0.6157,-0.4181,143.7,98.5,0.46
25.7,31858.0,34678.3,-0.59,-0.791,143.7,98.5,0.46
25.72,31856.7,34708.0,-0.5956,-0.7179,143.7,98.5,0.46
25.74,31903.9,34631.3,-0.4002,-0.9063,143.7,98.5,0.46
25.76,31954.3,34656.2,-0.1919,-0.8453,143.7,98.5,0.46
25.78,31889.9,34548.7,-0.4582,-1.1094,143.7,98.5,0.46
25.8,31802.9,34518.1,-0.8178,-1.1848,143.7,98.5,0.46
25.82,31804.3,34446.2,-0.8119,-1.3615,143.7,98.5,0.46
25.84,31847.7,34541.5,-0.6325,-1.1272,143.7,98.5,0.46
25.86,31892.7,34750.9,-0.4464,-0.6124,143.7,98.5,0.46
25.88,32069.5,35152.7,0.2841,0.3753,143.7,98.5,0.46
25.9,32265.9,35510.7,1.0959,1.2554,143.7,98.5,0.46
25.92,32337.7,35723.8,1.3929,1.7794,143.7,98.5,0.46
25.94,32332.7,35783.6,1.3719,1.9264,143.7,98.5,0.46
25.96,32245.7,35556.1,1.0124,1.3672,143.7,98.5,0.46
25.98,32079.2,35412.9,0.3242,1.015,143.7,98.5,0.46
26.0,32124.5,35262.2,0.5114,0.6445,143.7,98.5,0.46
26.02,32091.4,35258.1,0.3747,0.6345,143.7,98.5,0.46
26.04,31915.3,35049.2,-0.3533,0.121,143.7,98.5,0.46
26.06,32057.5,35046.9,0.2344,0.1153,143.7,98.5,0.46
26.08,31930.1,34899.6,-0.2921,-0.247,143.7,98.5,0.46
26.1,31981.4,34923.4,-0.08,-0.1883,143.7,98.5,0.46
26.12,31908.7,34743.1,-0.3804,-0.6315,143.7,98.5,0.46
26.14,31844.1,34671.9,-0.6473,-0.8067,143.7,98.5,0.46
26.16,31830.4,34601.5,-0.7042,-0.9796,143.7,98.5,0.46
26.18,31901.1,34564.5,-0.4119,-1.0706,143.7,98.5,0.46
26.2,31763.1,34602.4,-0.9823,-0.9775,143.7,98.5,0.46
26.22,31824.9,34503.6,-0.7269,-1.2204,143.7,98.5,0.46
26.24,31875.1,34501.6,-0.5196,-1.2253,143.7,98.5,0.46
26.26,31777.1,34546.4,-0.9246,-1.1153,143.7,98.5,0.46
26.28,31872.4,34820.7,-0.5307,-0.4408,143.7,98.5,0.46
26.3,32092.9,35209.0,0.381,0.5137,143.7,98.5,0.46
26.32,32292.5,35477.6,1.2059,1.174,143.7,98.5,0.46
26.34,32350.8,35782.4,1.4468,1.9233,143.7,98.5,0.46
26.36,32345.1,35776.9,1.4233,1.91,143.7,98.5,0.46
26.38,32300.7,35540.0,1.24,1.3274,143.7,98.5,0.46
26.4,32151.2,35256.5,0.6217,0.6305,143.7,98.5,0.46
26.42,32091.0,35148.3,0.373,0.3646,143.7,98.5,0.46
26.44,32018.6,35119.7,0.074,0.2941,143.7,98.5,0.46
26.46,31986.1,35166.5,-0.0604,0.4094,143.7,98.5,0.46
26.48,31948.3,34976.0,-0.2167,-0.0591,143.7,98.5,0.46
26.5,31946.6,34908.2,-0.2238,-0.2258,143.7,98.5,0.46
26.52,31941.3,34844.7,-0.2457,-0.3817,143.7,98.5,0.46
26.54,31956.2,34749.2,-0.184,-0.6167,143.7,98.5,0.46
26.56,31871.8,34662.9,-0.5331,-0.8289,143.7,98.5,0.46
26.58,31850.1,34646.5,-0.6225,-0.8691,143.7,98.5,0.46
26.6,31850.6,34647.9,-0.6205,-0.8656,143.7,98.5,0.46
26.62,31875.1,34520.9,-0.5195,-1.1779,143.7,98.5,0.46
26.64,31730.1,34461.5,-1.1188,-1.3239,143.7,98.5,0.46
26.66,31832.7,34429.9,-0.6946,-1.4016,143.7,98.5,0.46
26.68,31801.2,34468.8,-0.8249,-1.306,143.7,98.5,0.46
26.7,31908.5,34948.9,-0.3813,-0.1257,143.7,98.5,0.46
26.72,32066.3,35215.9,0.2709,0.5307,143.7,98.5,0.46
26.74,32272.6,35564.4,1.1236,1.3875,143.7,98.5,0.46
26.76,32323.0,35720.6,1.3318,1.7714,143.7,98.5,0.46
26.78,32295.0,35684.2,1.2161,1.6821,143.7,98.5,0.46
26.8,32282.0,35465.9,1.1624,1.1453,143.7,98.5,0.46
26.82,32095.7,35327.5,0.3924,0.805,143.7,98.5,0.46
26.84,32079.9,35177.5,0.327,0.4364,143.7,98.5,0.46
26.86,32059.0,35151.2,0.2408,0.3717,143.7,98.5,0.46
26.88,32043.2,35072.7,0.1754,0.1788,143.7,98.5,0.46
26.9,31925.3,34998.6,-0.3118,-0.0036,143.7,98.5,0.46
26.92,31981.4,34922.0,-0.0801,-0.1917,143.7,98.5,0.46
26.94,31900.4,34802.6,-0.4148,-0.4854,143.7,98.5,0.46
26.96,31952.4,34783.5,-0.2,-0.5322,143.7,98.5,0.46
26.98,31950.0,34779.4,-0.2096,-0.5423,143.7,98.5,0.46
27.0,31923.6,34624.4,-0.3188,-0.9234,143.7,98.5,0.46
27.02,31756.4,34645.2,-1.0099,-0.8722,143.7,98.5,0.46
27.04,31803.9,34528.6,-0.8135,-1.159,143.7,98.5,0.46
27.06,31691.5,34457.7,-1.2782,-1.3332,143.7,98.5,0.46
27.08,31847.1,34489.6,-0.6351,-1.2548,143.7,98.5,0.46
27.1,31863.3,34594.8,-0.5683,-0.9963,143.7,98.5,0.46
27.12,31926.2,34964.3,-0.3082,-0.0877,143.7,98.5,0.46
27.14,32143.9,35331.4,0.5918,0.8145,143.7,98.5,0.46
27.16,32208.4,35640.9,0.8582,1.5755,143.7,98.5,0.46
27.18,32348.5,35828.3,1.4373,2.0362,143.7,98.5,0.46
27.2,32327.5,35711.3,1.3506,1.7486,143.7,98.5,0.46
27.22,32300.1,35520.1,1.2371,1.2787,143.7,98.5,0.46
27.24,32220.7,35252.3,0.9091,0.6201,143.7,98.5,0.46
27.26,32092.3,35096.4,0.3782,0.2369,143.7,98.5,0.46
27.28,32027.6,35161.1,0.1111,0.396,143.7,98.5,0.46
27.3,32009.2,34993.6,0.0349,-0.0158,143.7,98.5,0.46
27.32,32074.2,34904.6,0.3037,-0.2345,143.7,98.5,0.46
27.34,31930.3,34940.8,-0.2913,-0.1456,143.7,98.5,0.46
27.36,31878.1,34785.5,-0.507,-0.5274,143.7,98.5,0.46
27.38,31865.7,34757.4,-0.5583,-0.5964,143.7,98.5,0.46
27.4,31836.2,34720.7,-0.68,-0.6867,143.7,98.5,0.46
27.42,31812.9,34686.5,-0.7765,-0.7707,143.7,98.5,0.46
27.44,31877.8,34610.2,-0.5083,-0.9583,143.7,98.5,0.46
27.46,31695.0,34535.5,-1.2638,-1.1419,143.7,98.5,0.46
27.48,31831.4,34474.1,-0.7,-1.293,143.7,98.5,0.46
27.5,31874.6,34437.7,-0.5213,-1.3823,143.7,98.5,0.46
27.52,31910.8,34637.5,-0.372,-0.8913,143.7,98.5,0.46
27.54,31964.5,35003.4,-0.1499,0.0082,143.7,98.5,0.46
27.56,32106.1,35345.5,0.4353,0.8494,143.7,98.5,0.46
27.58,32269.0,35670.3,1.1086,1.6478,143.7,98.5,0.46
27.6,32334.1,35758.3,1.378,1.864,143.7,98.5,0.46
27.62,32279.6,35707.5,1.1524,1.7392,143.7,98.5,0.46
27.64,32239.3,35459.7,0.9862,1.1301,143.7,98.5,0.46
27.66,32060.2,35232.8,0.2459,0.5723,143.7,98.5,0.46
27.68,32103.2,35159.7,0.4233,0.3925,143.7,98.5,0.46
27.7,32122.8,34999.5,0.5045,-0.0014,143.7,98.5,0.46
27.72,31951.5,34946.7,-0.2035,-0.1311,143.7,98.5,0.46
27.74,32108.8,35045.4,0.4466,0.1116,143.7,98.5,0.46
27.76,32016.7,34786.5,0.0661,-0.5249,143.7,98.5,0.46
27.78,31937.4,34676.5,-0.2618,-0.7953,143.7,98.5,0.46
27.8,31803.7,34763.4,-0.8144,-0.5818,143.7,98.5,0.46
27.82,31829.8,34653.1,-0.7065,-0.8528,143.7,98.5,0.46
27.84,31917.9,34732.7,-0.3425,-0.6572,143.7,98.5,0.46
27.86,31859.7,34573.7,-0.5832,-1.0482,143.7,98.5,0.46
27.88,31868.0,34528.0,-0.5489,-1.1603,143.7,98.5,0.46
27.9,31688.1,34479.6,-1.2924,-1.2795,143.7,98.5,0.46
27.92,31828.7,34542.9,-0.7113,-1.1237,143.7,98.5,0.46
27.94,31894.7,34763.7,-0.4385,-0.581,143.7,98.5,0.46
27.96,32064.5,34984.3,0.2634,-0.0387,143.7,98.5,0.46
27.98,32106.4,35445.9,0.4368,1.0962,143.7,98.5,0.46
28.0,32351.1,35711.8,1.448,1.7498,143.7,98.5,0.46
28.02,32361.0,35838.7,1.489,2.0618,143.7,98.5,0.46
28.04,32197.6,35688.4,0.8136,1.6922,143.7,98.5,0.46
28.06,32164.1,35467.6,0.6753,1.1495,143.7,98.5,0.46
28.08,32263.4,35241.4,1.0856,0.5934,143.7,98.5,0.46
28.1,32067.1,35112.8,0.2742,0.2773,143.7,98.5,0.46
28.12,32067.6,34999.9,0.2764,-0.0003,143.7,98.5,0.46
28.14,31937.5,34984.9,-0.2614,-0.0371,143.7,98.5,0.46
28.16,31962.3,34974.3,-0.159,-0.0633,143.7,98.5,0.46
28.18,31923.2,34787.4,-0.3206,-0.5227,143.7,98.5,0.46
28.2,31889.4,34702.6,-0.4601,-0.7311,143.7,98.5,0.46
28.22,31913.3,34666.4,-0.3614,-0.8201,143.7,98.5,0.46
28.24,31917.7,34613.3,-0.3435,-0.9506,143.7,98.5,0.46
28.26,31814.8,34661.8,-0.7685,-0.8314,143.7,98.5,0.46
28.28,31926.9,34692.1,-0.3052,-0.7569,143.7,98.5,0.46
28.3,31706.5,34558.8,-1.2164,-1.0848,143.7,98.5,0.46
28.32,31709.0,34493.9,-1.2057,-1.2442,143.7,98.5,0.46
28.34,31777.7,34572.8,-0.9218,-1.0503,143.7,98.5,0.46
28.36,31991.9,34674.9,-0.0367,-0.7993,143.7,98.5,0.46
28.38,32105.5,35003.8,0.433,0.0092,143.7,98.5,0.46
28.4,32170.5,35418.3,0.7015,1.0283,143.7,98.5,0.46
28.42,32208.8,35620.1,0.8597,1.5243,143.7,98.5,0.46
28.44,32366.1,35746.2,1.51,1.8345,143.7,98.5,0.46
28.46,32278.7,35646.8,1.1489,1.5901,143.7,98.5,0.46
28.48,32192.5,35508.5,0.7924,1.2502,143.7,98.5,0.46
28.5,32093.2,35212.2,0.3821,0.5217,143.7,98.5,0.46
28.52,32208.2,35055.6,0.8574,0.1366,143.7,98.5,0.46
28.54,32046.1,35050.9,0.1876,0.125,143.7,98.5,0.46
28.56,32090.0,35011.2,0.3689,0.0274,143.7,98.5,0.46
28.58,32001.4,34989.7,0.0027,-0.0254,143.7,98.5,0.46
28.6,31911.5,34883.2,-0.3688,-0.2871,143.7,98.5,0.46
28.62,31786.0,34746.6,-0.8876,-0.6231,143.7,98.5,0.46
28.64,31820.1,34588.8,-0.7466,-1.0109,143.7,98.5,0.46
28.66,31910.7,34629.7,-0.3724,-0.9103,143.7,98.5,0.46
28.68,31885.1,34601.8,-0.4782,-0.9791,143.7,98.5,0.46
28.7,31763.6,34589.7,-0.9802,-1.0087,143.7,98.5,0.46
28.72,31793.0,34567.5,-0.8586,-1.0634,143.7,98.5,0.46
28.74,31741.8,34448.8,-1.0703,-1.3552,143.7,98.5,0.46
28.76,31760.2,34492.2,-0.9944,-1.2485,143.7,98.5,0.46
28.78,31947.2,34779.8,-0.2214,-0.5413,143.7,98.5,0.46
28.8,32065.5,35164.3,0.2675,0.4038,143.7,98.5,0.46
28.82,32196.4,35445.4,0.8088,1.0948,143.7,98.5,0.46
28.84,32379.8,35768.9,1.5666,1.8903,143.7,98.5,0.46
28.86,32340.9,35794.5,1.4059,1.9531,143.7,98.5,0.46
28.88,32277.6,35601.2,1.1445,1.478,143.7,98.5,0.46
28.9,32155.2,35418.1,0.6383,1.0278,143.7,98.5,0.46
28.92,32161.6,35286.8,0.665,0.7051,143.7,98.5,0.46
28.94,32096.3,35056.8,0.395,0.1395,143.7,98.5,0.46
28.96,32075.3,35053.1,0.308,0.1305,143.7,98.5,0.46
28.98,31994.7,35020.6,-0.025,0.0506,143.7,98.5,0.46
29.0,31999.5,34927.9,-0.0052,-0.1774,143.7,98.5,0.46
29.02,32019.6,34769.7,0.078,-0.5663,143.7,98.5,0.46
29.04,31828.6,34783.7,-0.7115,-0.5317,143.7,98.5,0.46
29.06,31926.8,34592.0,-0.3058,-1.003,143.7,98.5,0.46
29.08,31872.5,34616.6,-0.53,-0.9427,143.7,98.5,0.46
29.1,31770.7,34641.5,-0.951,-0.8813,143.7,98.5,0.46
29.12,31781.6,34658.2,-0.9059,-0.8404,143.7,98.5,0.46
29.14,31759.4,34441.6,-0.9975,-1.3728,143.7,98.5,0.46
29.16,31810.2,34373.3,-0.7876,-1.5408,143.7,98.5,0.46
29.18,31814.8,34613.0,-0.7686,-0.9515,143.7,98.5,0.46
29.2,31953.1,34768.5,-0.1971,-0.5692,143.7,98.5,0.46
29.22,32167.3,35142.3,0.6886,0.3497,143.7,98.5,0.46
29.24,32144.2,35616.5,0.5927,1.5156,143.7,98.5,0.46
29.26,32284.7,35793.2,1.1737,1.95,143.7,98.5,0.46
29.28,32325.7,35765.7,1.3432,1.8823,143.7,98.5,0.46
29.3,32248.3,35554.3,1.0233,1.3627,143.7,98.5,0.46
29.32,32129.8,35411.7,0.5334,1.012,143.7,98.5,0.46
29.34,32101.4,35154.1,0.4158,0.3788,143.7,98.5,0.46
29.36,32080.2,35223.7,0.3283,0.5499,143.7,98.5,0.46
29.38,32028.6,35047.8,0.1152,0.1175,143.7,98.5,0.46
29.4,31999.7,34984.7,-0.0045,-0.0378,143.7,98.5,0.46
29.42,32116.4,35002.3,0.4778,0.0057,143.7,98.5,0.46
29.44,31905.4,34868.8,-0.394,-0.3226,143.7,98.5,0.46
29.46,31976.5,34800.8,-0.1001,-0.4898,143.7,98.5,0.46
29.48,31880.4,34630.1,-0.4974,-0.9095,143.7,98.5,0.46
29.5,31841.6,34656.4,-0.6577,-0.8448,143.7,98.5,0.46
29.52,31877.2,34745.2,-0.5109,-0.6265,143.7,98.5,0.46
29.54,31804.1,34675.7,-0.8128,-0.7974,143.7,98.5,0.46
29.56,31789.5,34461.3,-0.8733,-1.3245,143.7,98.5,0.46
29.58,31667.1,34500.3,-1.3792,-1.2284,143.7,98.5,0.46
29.6,31812.7,34528.6,-0.7774,-1.1589,143.7,98.5,0.46
29.62,32059.7,34802.3,0.2438,-0.486,143.7,98.5,0.46
29.64,32119.3,35263.8,0.4902,0.6484,143.7,98.5,0.46
29.66,32273.9,35572.5,1.1289,1.4073,143.7,98.5,0.46
29.68,32328.2,35726.4,1.3535,1.7856,143.7,98.5,0.46
29.7,32359.2,35650.6,1.4815,1.5994,143.7,98.5,0.46
29.72,32225.6,35580.5,0.9295,1.4271,143.7,98.5,0.46
29.74,32153.3,35395.9,0.6307,0.9733,143.7,98.5,0.46
29.76,32054.2,35241.2,0.2209,0.5928,143.7,98.5,0.46
29.78,32040.8,35028.8,0.1655,0.0708,143.7,98.5,0.46
29.8,32017.0,35077.4,0.0673,0.1901,143.7,98.5,0.46
29.82,32030.1,35002.7,0.1214,0.0065,143.7,98.5,0.46
29.84,31946.8,34956.3,-0.2229,-0.1074,143.7,98.5,0.46
29.86,31917.1,34775.4,-0.3456,-0.5521,143.7,98.5,0.46
29.88,31912.2,34661.2,-0.3659,-0.833,143.7,98.5,0.46
29.9,31888.1,34784.0,-0.4657,-0.5311,143.7,98.5,0.46
29.92,31866.8,34719.8,-0.5539,-0.6888,143.7,98.5,0.46
29.94,31815.7,34595.1,-0.7648,-0.9955,143.7,98.5,0.46
29.96,31804.3,34544.7,-0.8122,-1.1193,143.7,98.5,0.46
29.98,31714.0,34511.7,-1.1851,-1.2005,143.7,98.5,0.46
30.0,31787.7,34452.1,-0.8805,-1.347,143.7,98.5,0.46
30.02,31793.9,34585.2,-0.8551,-1.0199,143.7,98.5,0.46
30.04,31936.1,34894.0,-0.2674,-0.2607,143.7,98.5,0.46
30.06,32076.5,35271.7,0.3131,0.6678,143.7,98.5,0.46
30.08,32334.0,35501.5,1.3773,1.2329,143.7,98.5,0.46
30.1,32292.5,35746.8,1.2058,1.8358,143.7,98.5,0.46
30.12,32160.3,35711.0,0.6596,1.7479,143.7,98.5,0.46
30.14,32308.2,35621.1,1.271,1.5268,143.7,98.5,0.46
30.16,32255.7,35408.0,1.0539,1.0029,143.7,98.5,0.46
30.18,32094.3,35122.5,0.3865,0.3011,143.7,98.5,0.46
30.2,32081.0,35148.4,0.3317,0.3648,143.7,98.5,0.46
30.22,32080.0,35106.1,0.3277,0.2607,143.7,98.5,0.46
30.24,31991.9,35027.9,-0.0365,0.0685,143.7,98.5,0.46
30.26,31977.2,34888.3,-0.0974,-0.2746,143.7,98.5,0.46
30.28,31972.1,34866.1,-0.1183,-0.3293,143.7,98.5,0.46
30.3,31791.7,34708.9,-0.864,-0.7157,143.7,98.5,0.46
30.32,31831.2,34729.1,-0.701,-0.6661,143.7,98.5,0.46
30.34,31827.9,34599.4,-0.7143,-0.9849,143.7,98.5,0.46
30.36,31840.1,34635.8,-0.6639,-0.8955,143.7,98.5,0.46
30.38,31856.1,34590.0,-0.5979,-1.008,143.7,98.5,0.46
30.4,31769.8,34552.5,-0.9548,-1.1003,143.7,98.5,0.46
30.42,31814.7,34485.6,-0.7692,-1.2647,143.7,98.5,0.46
30.44,31905.2,34629.0,-0.395,-0.9121,143.7,98.5,0.46
30.46,31930.9,34951.6,-0.2889,-0.1192,143.7,98.5,0.46
30.48,32096.5,35312.5,0.3959,0.7682,143.7,98.5,0.46
30.5,32290.5,35678.5,1.1974,1.6679,143.7,98.5,0.46
30.52,32281.5,35713.9,1.1604,1.7551,143.7,98.5,0.46
30.54,32233.9,35677.0,0.9637,1.6642,143.7,98.5,0.46
30.56,32233.0,35664.3,0.9598,1.633,143.7,98.5,0.46
30.58,32056.4,35338.0,0.2298,0.8309,143.7,98.5,0.46
30.6,32140.0,35212.1,0.5758,0.5213,143.7,98.5,0.46
30.62,32004.5,34987.4,0.0153,-0.031,143.7,98.5,0.46
30.64,31993.4,35117.4,-0.0303,0.2886,143.7,98.5,0.46
30.66,31921.8,35075.0,-0.3265,0.1844,143.7,98.5,0.46
30.68,31956.0,34911.6,-0.1849,-0.2173,143.7,98.5,0.46
30.7,31895.5,34797.0,-0.4352,-0.4991,143.7,98.5,0.46
30.72,31894.0,34627.1,-0.4414,-0.9167,143.7,98.5,0.46
30.74,31884.5,34654.7,-0.4805,-0.849,143.7,98.5,0.46
30.76,31776.9,34734.1,-0.9251,-0.6538,143.7,98.5,0.46
30.78,31794.9,34629.6,-0.8508,-0.9106,143.7,98.5,0.46
30.8,31840.9,34560.7,-0.6608,-1.0801,143.7,98.5,0.46
30.82,31737.9,34462.6,-1.0866,-1.3211,143.7,98.5,0.46
30.84,31775.2,34462.0,-0.9322,-1.3226,143.7,98.5,0.46
30.86,31907.7,34727.8,-0.3845,-0.6692,143.7,98.5,0.46
30.88,31968.3,34976.5,-0.134,-0.0579,143.7,98.5,0.46
30.9,32167.2,35392.8,0.6881,0.9657,143.7,98.5,0.46
30.92,32302.3,35637.8,1.2462,1.5679,143.7,98.5,0.46
30.94,32294.1,35680.4,1.2123,1.6727,143.7,98.5,0.46
30.96,32317.1,35727.7,1.3077,1.7889,143.7,98.5,0.46
30.98,32224.6,35558.9,0.9251,1.374,143.7,98.5,0.46
31.0,32143.7,35313.8,0.5909,0.7713,143.7,98.5,0.46
31.02,32127.8,35142.8,0.5251,0.3509,143.7,98.5,0.46
31.04,32129.0,35172.9,0.5303,0.425,143.7,98.5,0.46
31.06,32031.9,35021.1,0.1287,0.0518,143.7,98.5,0.46
31.08,31946.4,35012.8,-0.2247,0.0315,143.7,98.5,0.46
31.1,31994.0,34810.3,-0.0278,-0.4663,143.7,98.5,0.46
31.12,31876.6,34684.2,-0.5132,-0.7763,143.7,98.5,0.46
31.14,31842.7,34645.3,-0.6532,-0.872,143.7,98.5,0.46
31.16,31883.6,34675.6,-0.4842,-0.7975,143.7,98.5,0.46
31.18,31799.5,34611.7,-0.832,-0.9547,143.7,98.5,0.46
31.2,31876.6,34707.4,-0.5133,-0.7195,143.7,98.5,0.46
31.22,31896.1,34410.3,-0.4324,-1.4498,143.7,98.5,0.46
31.24,31747.6,34464.6,-1.0464,-1.3162,143.7,98.5,0.46
31.26,31848.9,34532.6,-0.6275,-1.149,143.7,98.5,0.46
31.28,31864.1,34650.9,-0.5649,-0.8582,143.7,98.5,0.46
31.3,32017.8,34966.2,0.0706,-0.0832,143.7,98.5,0.46
31.32,32144.2,35370.0,0.5929,0.9096,143.7,98.5,0.46
31.34,32232.4,35741.0,0.9575,1.8215,143.7,98.5,0.46
31.36,32357.4,35713.9,1.4741,1.755,143.7,98.5,0.46
31.38,32202.8,35687.9,0.835,1.6912,143.7,98.5,0.46
31.4,32156.9,35465.6,0.6454,1.1446,143.7,98.5,0.46
31.42,32188.9,35236.1,0.7779,0.5804,143.7,98.5,0.46
31.44,32066.8,35181.1,0.2729,0.4452,143.7,98.5,0.46
31.46,32099.7,35094.0,0.409,0.231,143.7,98.5,0.46
31.48,32026.3,35001.7,0.1056,0.0042,143.7,98.5,0.46
31.5,32005.4,34959.0,0.0194,-0.1008,143.7,98.5,0.46
31.52,31978.9,34809.7,-0.0902,-0.4679,143.7,98.5,0.46
31.54,31853.3,34699.8,-0.6096,-0.7382,143.7,98.5,0.46
31.56,31898.8,34661.1,-0.4213,-0.8333,143.7,98.5,0.46
31.58,31819.6,34609.8,-0.7487,-0.9593,143.7,98.5,0.46
31.6,31878.3,34622.4,-0.5061,-0.9285,143.7,98.5,0.46
31.62,31848.4,34654.8,-0.6297,-0.8486,143.7,98.5,0.46
31.64,31803.9,34565.2,-0.8137,-1.0689,143.7,98.5,0.46
31.66,31754.6,34490.8,-1.0176,-1.2519,143.7,98.5,0.46
31.68,31826.4,34530.8,-0.7206,-1.1535,143.7,98.5,0.46
31.7,31888.0,34744.2,-0.4661,-0.6289,143.7,98.5,0.46
31.72,32029.3,35068.8,0.1181,0.169,143.7,98.5,0.46
31.74,32196.8,35432.2,0.8103,1.0625,143.7,98.5,0.46
31.76,32285.1,35770.7,1.1754,1.8947,143.7,98.5,0.46
31.78,32326.4,35672.8,1.3459,1.6539,143.7,98.5,0.46
31.8,32230.8,35617.9,0.9508,1.519,143.7,98.5,0.46
31.82,32184.8,35457.2,0.7605,1.124,143.7,98.5,0.46
31.84,32040.5,35151.3,0.1645,0.3718,143.7,98.5,0.46
31.86,32080.5,35099.4,0.3297,0.2442,143.7,98.5,0.46
31.88,32019.8,35158.2,0.0786,0.3888,143.7,98.5,0.46
31.9,31971.3,34995.6,-0.1217,-0.0109,143.7,98.5,0.46
31.92,31940.1,34808.7,-0.2505,-0.4702,143.7,98.5,0.46
31.94,31913.4,34842.5,-0.3612,-0.3872,143.7,98.5,0.46
31.96,31841.6,34773.9,-0.6578,-0.556,143.7,98.5,0.46
31.98,31862.4,34716.4,-0.5721,-0.6973,143.7,98.5,0.46
32.0,31810.9,34687.8,-0.7847,-0.7675,143.7,98.5,0.46
32.02,31848.7,34720.1,-0.6284,-0.6881,143.7,98.5,0.46
32.04,31864.3,34474.8,-0.5641,-1.2912,143.7,98.5,0.46
32.06,31756.2,34466.1,-1.0109,-1.3127,143.7,98.5,0.46
32.08,31752.6,34417.6,-1.0257,-1.4318,143.7,98.5,0.46
32.1,31824.9,34553.4,-0.727,-1.098,143.7,98.5,0.46
32.12,31962.7,34742.5,-0.1571,-0.6331,143.7,98.5,0.46
32.14,32085.7,35273.9,0.3511,0.6733,143.7,98.5,0.46
32.16,32200.1,35458.8,0.824,1.128,143.7,98.5,0.46
32.18,32343.5,35644.4,1.4166,1.5841,143.7,98.5,0.46
32.2,32337.4,35771.3,1.3914,1.896,143.7,98.5,0.46
32.22,32278.5,35610.1,1.148,1.4998,143.7,98.5,0.46
32.24,32164.7,35445.0,0.6776,1.0939,143.7,98.5,0.46
32.26,32076.3,35227.5,0.3121,0.5591,143.7,98.5,0.46
32.28,31969.1,35066.1,-0.1307,0.1624,143.7,98.5,0.46
32.3,32072.2,35171.3,0.2952,0.4211,143.7,98.5,0.46
32.32,32071.4,35088.8,0.2921,0.2181,143.7,98.5,0.46
32.34,31961.0,34914.6,-0.1642,-0.21,143.7,98.5,0.46
32.36,31956.5,34826.6,-0.1829,-0.4263,143.7,98.5,0.46
32.38,31856.4,34718.1,-0.5965,-0.693,143.7,98.5,0.46
32.4,31835.2,34643.6,-0.6844,-0.8762,143.7,98.5,0.46
32.42,31876.7,34729.0,-0.5129,-0.6662,143.7,98.5,0.46
32.44,31845.0,34573.5,-0.6437,-1.0485,143.7,98.5,0.46
32.46,31835.6,34581.7,-0.6826,-1.0285,143.7,98.5,0.46
32.48,31791.2,34538.0,-0.8662,-1.1357,143.7,98.5,0.46
32.5,31812.9,34492.4,-0.7767,-1.248,143.7,98.5,0.46
32.52,31745.0,34586.2,-1.057,-1.0172,143.7,98.5,0.46
32.54,31979.0,34846.3,-0.09,-0.3779,143.7,98.5,0.46
32.56,32054.5,35223.7,0.2223,0.5498,143.7,98.5,0.46
32.58,32185.0,35505.9,0.7615,1.2436,143.7,98.5,0.46
32.6,32273.3,35717.1,1.1264,1.7629,143.7,98.5,0.46
32.62,32410.9,35779.8,1.6953,1.917,143.7,98.5,0.46
32.64,32401.3,35627.8,1.6556,1.5433,143.7,98.5,0.46
32.66,32179.8,35336.1,0.7401,0.8262,143.7,98.5,0.46
32.68,32092.7,35250.3,0.3802,0.6152,143.7,98.5,0.46
32.7,31998.3,35133.8,-0.01,0.3288,143.7,98.5,0.46
32.72,32099.6,35073.1,0.4084,0.1796,143.7,98.5,0.46
32.74,32010.4,34999.6,0.0397,-0.0009,143.7,98.5,0.46
32.76,31906.7,34964.6,-0.3889,-0.0871,143.7,98.5,0.46
32.78,31969.3,34752.6,-0.1299,-0.6083,143.7,98.5,0.46
32.8,31885.3,34719.8,-0.4772,-0.6888,143.7,98.5,0.46
32.82,31899.3,34734.0,-0.4195,-0.6541,143.7,98.5,0.46
32.84,31810.4,34601.1,-0.7868,-0.9808,143.7,98.5,0.46
32.86,31826.2,34570.6,-0.7214,-1.0557,143.7,98.5,0.46
32.88,31888.2,34476.3,-0.465,-1.2875,143.7,98.5,0.46
32.9,31795.1,34576.4,-0.85,-1.0415,143.7,98.5,0.46
32.92,31767.1,34448.7,-0.9658,-1.3554,143.7,98.5,0.46
32.94,31852.5,34618.8,-0.6127,-0.9372,143.7,98.5,0.46
32.96,31971.2,34931.0,-0.1223,-0.1696,143.7,98.5,0.46
32.98,32116.1,35235.6,0.4769,0.579,143.7,98.5,0.46
33.0,32253.6,35562.3,1.0451,1.3822,143.7,98.5,0.46
33.02,32408.5,35821.3,1.6855,2.0191,143.7,98.5,0.46
33.04,32296.4,35836.0,1.2219,2.0552,143.7,98.5,0.46
33.06,32242.2,35495.8,0.9978,1.2187,143.7,98.5,0.46
33.08,32210.0,35406.0,0.8647,0.9979,143.7,98.5,0.46
33.1,32044.9,35203.7,0.1823,0.5006,143.7,98.5,0.46
33.12,32033.4,35118.7,0.1348,0.2918,143.7,98.5,0.46
33.14,31986.4,35066.5,-0.0595,0.1634,143.7,98.5,0.46
33.16,32026.8,35084.1,0.1075,0.2067,143.7,98.5,0.46
33.18,31950.2,34821.6,-0.2089,-0.4386,143.7,98.5,0.46
33.2,31933.3,34736.9,-0.2787,-0.6469,143.7,98.5,0.46
33.22,31872.9,34697.7,-0.5286,-0.7432,143.7,98.5,0.46
33.24,31879.6,34696.0,-0.5008,-0.7475,143.7,98.5,0.46
33.26,31853.8,34715.5,-0.6075,-0.6994,143.7,98.5,0.46
33.28,31819.0,34654.2,-0.7514,-0.8501,143.7,98.5,0.46
33.3,31808.8,34610.2,-0.7934,-0.9582,143.7,98.5,0.46
33.32,31797.9,34438.5,-0.8383,-1.3805,143.7,98.5,0.46
33.34,31793.2,34523.1,-0.858,-1.1726,143.7,98.5,0.46
33.36,31859.7,34557.0,-0.5829,-1.0891,143.7,98.5,0.46
33.38,31977.7,34792.1,-0.0954,-0.5111,143.7,98.5,0.46
33.4,32036.9,35259.6,0.1495,0.6381,143.7,98.5,0.46
33.42,32186.0,35594.0,0.7656,1.4602,143.7,98.5,0.46
33.44,32305.8,35711.9,1.261,1.75,143.7,98.5,0.46
33.46,32321.9,35691.0,1.3272,1.6987,143.7,98.5,0.46
33.48,32265.1,35540.1,1.0925,1.3277,143.7,98.5,0.46
33.5,32129.5,35294.6,0.5322,0.7242,143.7,98.5,0.46
33.52,32077.8,35152.2,0.3184,0.374,143.7,98.5,0.46
33.54,32070.0,35171.3,0.2861,0.421,143.7,98.5,0.46
33.56,32067.9,35085.9,0.2774,0.2111,143.7,98.5,0.46
33.58,31986.8,34936.4,-0.0579,-0.1565,143.7,98.5,0.46
33.6,32015.1,34905.9,0.0592,-0.2314,143.7,98.5,0.46
33.62,31811.1,34682.2,-0.784,-0.7813,143.7,98.5,0.46
33.64,31811.2,34723.6,-0.7835,-0.6795,143.7,98.5,0.46
33.66,31867.2,34618.4,-0.5519,-0.9382,143.7,98.5,0.46
33.68,31928.0,34693.4,-0.3008,-0.7538,143.7,98.5,0.46
33.7,31811.7,34530.5,-0.7816,-1.1542,143.7,98.5,0.46
33.72,31877.8,34458.3,-0.5084,-1.3318,143.7,98.5,0.46
33.74,31749.5,34397.3,-1.0387,-1.4817,143.7,98.5,0.46
33.76,31778.7,34553.9,-0.9178,-1.0969,143.7,98.5,0.46
33.78,31849.0,34664.2,-0.6273,-0.8256,143.7,98.5,0.46
33.8,31951.3,34983.0,-0.2044,-0.0419,143.7,98.5,0.46
33.82,32162.9,35362.2,0.6702,0.8903,143.7,98.5,0.46
33.84,32274.9,35599.6,1.1332,1.4739,143.7,98.5,0.46
33.86,32398.6,35722.1,1.6445,1.775,143.7,98.5,0.46
33.88,32352.9,35700.0,1.4555,1.7208,143.7,98.5,0.46
33.9,32269.3,35505.0,1.1099,1.2414,143.7,98.5,0.46
33.92,32067.5,35320.1,0.276,0.7868,143.7,98.5,0.46
33.94,32055.7,35159.7,0.2271,0.3926,143.7,98.5,0.46
33.96,32111.9,35021.9,0.4595,0.0538,143.7,98.5,0.46
33.98,32066.0,35014.0,0.2698,0.0345,143.7,98.5,0.46
34.0,31971.3,34927.0,-0.1216,-0.1795,143.7,98.5,0.46
34.02,31866.0,34857.5,-0.5568,-0.3504,143.7,98.5,0.46
34.04,31933.9,34817.6,-0.2765,-0.4485,143.7,98.5,0.46
34.06,31968.8,34742.9,-0.132,-0.6322,143.7,98.5,0.46
34.08,31815.6,34713.7,-0.7651,-0.704,143.7,98.5,0.46
34.1,31816.9,34620.3,-0.7599,-0.9334,143.7,98.5,0.46
34.12,31881.8,34550.1,-0.4919,-1.106,143.7,98.5,0.46
34.14,31803.7,34600.9,-0.8145,-0.9813,143.7,98.5,0.46
34.16,31705.6,34352.6,-1.22,-1.5916,143.7,98.5,0.46
34.18,31779.5,34412.2,-0.9145,-1.445,143.7,98.5,0.46
34.2,31918.4,34757.9,-0.3404,-0.5952,143.7,98.5,0.46
34.22,32071.7,35022.8,0.2931,0.0561,143.7,98.5,0.46
34.24,32172.9,35374.0,0.7116,0.9194,143.7,98.5,0.46
34.26,32248.5,35603.9,1.024,1.4846,143.7,98.5,0.46
34.28,32343.4,35816.5,1.4162,2.0073,143.7,98.5,0.46
34.3,32293.5,35676.2,1.2102,1.6623,143.7,98.5,0.46
34.32,32223.3,35394.7,0.9197,0.9702,143.7,98.5,0.46
34.34,32111.5,35243.2,0.4577,0.5979,143.7,98.5,0.46
34.36,32008.9,35067.0,0.0338,0.1647,143.7,98.5,0.46
34.38,32037.7,35027.4,0.1525,0.0672,143.7,98.5,0.46
34.4,32038.8,35030.1,0.1571,0.0739,143.7,98.5,0.46
34.42,32018.6,34949.3,0.074,-0.1247,143.7,98.5,0.46
34.44,31909.9,34909.1,-0.3756,-0.2235,143.7,98.5,0.46
34.46,31834.1,34716.3,-0.689,-0.6975,143.7,98.5,0.46
34.48,31846.2,34648.8,-0.6389,-0.8633,143.7,98.5,0.46
34.5,31915.9,34695.7,-0.3507,-0.7482,143.7,98.5,0.46
34.52,31913.9,34625.2,-0.3589,-0.9214,143.7,98.5,0.46
34.54,31805.5,34556.6,-0.8072,-1.0901,143.7,98.5,0.46
34.56,31789.3,34516.9,-0.874,-1.1877,143.7,98.5,0.46
34.58,31805.6,34423.8,-0.8068,-1.4166,143.7,98.5,0.46
34.6,31707.7,34558.1,-1.2113,-1.0863,143.7,98.5,0.46
34.62,31870.0,34749.5,-0.5406,-0.6158,143.7,98.5,0.46
34.64,31968.6,35063.1,-0.1329,0.1551,143.7,98.5,0.46
34.66,32216.5,35496.8,0.8918,1.2213,143.7,98.5,0.46
34.68,32361.3,35709.4,1.4904,1.7439,143.7,98.5,0.46
34.7,32259.5,35831.0,1.0694,2.0427,143.7,98.5,0.46
34.72,32370.5,35575.6,1.5281,1.415,143.7,98.5,0.46
34.74,32256.3,35435.7,1.0562,1.0711,143.7,98.5,0.46
34.76,32057.6,35226.4,0.2348,0.5566,143.7,98.5,0.46
34.78,32058.7,35200.5,0.2396,0.4927,143.7,98.5,0.46
34.8,32098.2,35203.2,0.4029,0.4995,143.7,98.5,0.46
34.82,32009.0,35038.9,0.0343,0.0955,143.7,98.5,0.46
34.84,32004.0,35003.6,0.0135,0.0089,143.7,98.5,0.46
34.86,32029.6,34751.5,0.119,-0.6109,143.7,98.5,0.46
34.88,31892.7,34759.2,-0.4464,-0.592,143.7,98.5,0.46
34.9,31869.7,34674.4,-0.5418,-0.8006,143.7,98.5,0.46
34.92,31736.3,34725.1,-1.0929,-0.6759,143.7,98.5,0.46
34.94,31851.0,34659.1,-0.6189,-0.8381,143.7,98.5,0.46
34.96,31812.2,34619.3,-0.7794,-0.936,143.7,98.5,0.46
34.98,31817.6,34417.1,-0.7572,-1.4332,143.7,98.5,0.46
35.0,31767.0,34429.6,-0.9661,-1.4023,143.7,98.5,0.46
35.02,31751.9,34507.8,-1.0285,-1.2101,143.7,98.5,0.46
35.04,31939.9,34756.7,-0.2516,-0.5983,143.7,98.5,0.46
35.06,32021.1,35046.2,0.0841,0.1135,143.7,98.5,0.46
35.08,32268.9,35518.5,1.1082,1.2745,143.7,98.5,0.46
35.1,32266.6,35708.2,1.0986,1.7411,143.7,98.5,0.46
35.12,32296.5,35719.2,1.2226,1.7679,143.7,98.5,0.46
35.14,32139.4,35607.0,0.573,1.4921,143.7,98.5,0.46
35.16,32133.8,35345.9,0.5501,0.8502,143.7,98.5,0.46
35.18,32087.8,35246.2,0.3596,0.6053,143.7,98.5,0.46
35.2,31960.4,35012.5,-0.1669,0.0308,143.7,98.5,0.46
35.22,31985.4,35218.8,-0.0634,0.5378,143.7,98.5,0.46
35.24,32015.4,35010.7,0.0605,0.0264,143.7,98.5,0.46
35.26,31949.9,34922.6,-0.2102,-0.1903,143.7,98.5,0.46
35.28,31930.1,34801.4,-0.2918,-0.4882,143.7,98.5,0.46
35.3,31873.9,34768.7,-0.5244,-0.5688,143.7,98.5,0.46
35.32,31919.4,34664.6,-0.3361,-0.8246,143.7,98.5,0.46
35.34,31810.1,34682.6,-0.7882,-0.7803,143.7,98.5,0.46
35.36,31868.2,34607.7,-0.5477,-0.9644,143.7,98.5,0.46
35.38,31809.2,34522.7,-0.7918,-1.1736,143.7,98.5,0.46
35.4,31851.0,34509.2,-0.6189,-1.2065,143.7,98.5,0.46
35.42,31736.3,34464.0,-1.0931,-1.3177,143.7,98.5,0.46
35.44,31789.0,34484.4,-0.8751,-1.2675,143.7,98.5,0.46
35.46,31948.4,34795.0,-0.2162,-0.504,143.7,98.5,0.46
35.48,32131.6,35195.1,0.5408,0.4796,143.7,98.5,0.46
35.5,32197.3,35514.5,0.8122,1.2647,143.7,98.5,0.46
35.52,32309.4,35757.7,1.2756,1.8625,143.7,98.5,0.46
35.54,32371.9,35738.4,1.5341,1.8152,143.7,98.5,0.46
35.56,32271.5,35542.5,1.1191,1.3337,143.7,98.5,0.46
35.58,32174.1,35427.4,0.7166,1.0507,143.7,98.5,0.46
35.6,32178.3,35205.9,0.7339,0.506,143.7,98.5,0.46
35.62,32001.4,35042.8,0.0029,0.1052,143.7,98.5,0.46
35.64,31948.7,35075.1,-0.2152,0.1846,143.7,98.5,0.46
35.66,32041.6,34992.4,0.1687,-0.0187,143.7,98.5,0.46
35.68,31947.5,34854.2,-0.2202,-0.3584,143.7,98.5,0.46
35.7,31891.8,34775.5,-0.4503,-0.5518,143.7,98.5,0.46
35.72,31737.3,34759.3,-1.0888,-0.5918,143.7,98.5,0.46
35.74,31807.8,34634.5,-0.7976,-0.8985,143.7,98.5,0.46
35.76,31936.7,34688.3,-0.2647,-0.7663,143.7,98.5,0.46
35.78,31831.1,34589.8,-0.7011,-1.0085,143.7,98.5,0.46
35.8,31910.8,34586.3,-0.3716,-1.017,143.7,98.5,0.46
35.82,31733.9,34457.4,-1.1032,-1.334,143.7,98.5,0.46
35.84,31804.5,34449.3,-0.811,-1.3538,143.7,98.5,0.46
35.86,31773.5,34516.3,-0.9393,-1.1893,143.7,98.5,0.46
35.88,31959.1,34905.3,-0.1723,-0.2329,143.7,98.5,0.46
35.9,32101.2,35197.6,0.4153,0.4856,143.7,98.5,0.46
35.92,32259.3,35575.3,1.0685,1.4142,143.7,98.5,0.46
35.94,32354.4,35766.6,1.4616,1.8845,143.7,98.5,0.46
35.96,32357.0,35805.7,1.4724,1.9807,143.7,98.5,0.46
35.98,32283.2,35557.3,1.1675,1.3701,143.7,98.5,0.46
36.0,32196.7,35324.7,0.8099,0.7981,143.7,98.5,0.46
36.02,32054.7,35249.0,0.2231,0.6121,143.7,98.5,0.46
36.04,31979.5,35220.8,-0.0877,0.5429,143.7,98.5,0.46
36.06,31981.1,34995.4,-0.0813,-0.0114,143.7,98.5,0.46
36.08,31924.8,35032.9,-0.3139,0.0809,143.7,98.5,0.46
36.1,31997.1,34938.1,-0.0153,-0.1522,143.7,98.5,0.46
36.12,31895.7,34830.2,-0.4344,-0.4176,143.7,98.5,0.46
36.14,31797.1,34690.4,-0.842,-0.7611,143.7,98.5,0.46
36.16,31936.1,34729.8,-0.2673,-0.6644,143.7,98.5,0.46
36.18,31895.7,34667.4,-0.4344,-0.8177,143.7,98.5,0.46
36.2,31807.2,34677.8,-0.8,-0.7921,143.7,98.5,0.46
36.22,31874.5,34630.1,-0.5218,-0.9094,143.7,98.5,0.46
36.24,31760.1,34352.1,-0.9947,-1.5928,143.7,98.5,0.46
36.26,31788.8,34403.1,-0.8759,-1.4675,143.7,98.5,0.46
36.28,31811.4,34599.3,-0.7828,-0.985,143.7,98.5,0.46
36.3,31983.2,34794.9,-0.0727,-0.5043,143.7,98.5,0.46
36.32,32122.3,35354.7,0.5026,0.8719,143.7,98.5,0.46
36.34,32277.9,35570.8,1.1454,1.4033,143.7,98.5,0.46
36.36,32329.3,35701.5,1.3582,1.7245,143.7,98.5,0.46
36.38,32415.4,35692.3,1.7138,1.7018,143.7,98.5,0.46
36.4,32313.0,35661.1,1.2908,1.6252,143.7,98.5,0.46
36.42,32076.7,35403.7,0.3137,0.9924,143.7,98.5,0.46
36.44,32142.0,35158.5,0.5838,0.3895,143.7,98.5,0.46
36.46,32083.3,35094.6,0.3412,0.2326,143.7,98.5,0.46
36.48,32128.2,35076.9,0.527,0.1891,143.7,98.5,0.46
36.5,31934.1,35027.4,-0.2754,0.0673,143.7,98.5,0.46
36.52,31947.8,34967.7,-0.2189,-0.0795,143.7,98.5,0.46
36.54,32045.8,34781.0,0.1863,-0.5384,143.7,98.5,0.46
36.56,31783.7,34687.1,-0.8974,-0.7693,143.7,98.5,0.46
36.58,31901.5,34749.1,-0.4103,-0.6169,143.7,98.5,0.46
36.6,31900.5,34691.2,-0.4142,-0.7592,143.7,98.5,0.46
36.62,31835.4,34623.5,-0.6834,-0.9256,143.7,98.5,0.46
36.64,31827.6,34510.1,-0.7156,-1.2045,143.7,98.5,0.46
36.66,31789.0,34430.0,-0.8752,-1.4014,143.7,98.5,0.46
36.68,31783.7,34490.8,-0.8972,-1.2518,143.7,98.5,0.46
36.7,31787.5,34556.9,-0.8816,-1.0895,143.7,98.5,0.46
36.72,31969.9,34924.4,-0.1276,-0.186,143.7,98.5,0.46
36.74,32076.3,35230.8,0.3122,0.5674,143.7,98.5,0.46
36.76,32197.9,35647.1,0.8149,1.5907,143.7,98.5,0.46
36.78,32347.7,35791.0,1.4341,1.9446,143.7,98.5,0.46
36.8,32301.8,35630.8,1.2442,1.5507,143.7,98.5,0.46
36.82,32273.9,35521.3,1.1288,1.2814,143.7,98.5,0.46
36.84,32101.7,35313.6,0.4173,0.771,143.7,98.5,0.46
36.86,32053.9,35240.0,0.2198,0.5901,143.7,98.5,0.46
36.88,32019.3,35115.4,0.0766,0.2837,143.7,98.5,0.46
36.9,32010.4,35100.9,0.0397,0.2479,143.7,98.5,0.46
36.92,32046.7,34970.2,0.19,-0.0733,143.7,98.5,0.46
36.94,31906.7,34913.6,-0.3886,-0.2125,143.7,98.5,0.46
36.96,31945.5,34764.0,-0.2284,-0.5802,143.7,98.5,0.46
36.98,31860.8,34728.4,-0.5785,-0.6679,143.7,98.5,0.46
37.0,31791.4,34675.1,-0.8653,-0.7987,143.7,98.5,0.46
37.02,31852.5,34621.8,-0.6126,-0.9299,143.7,98.5,0.46
37.04,31909.8,34599.0,-0.3758,-0.9858,143.7,98.5,0.46
37.06,31771.7,34584.4,-0.9467,-1.0219,143.7,98.5,0.46
37.08,31737.2,34488.9,-1.0893,-1.2564,143.7,98.5,0.46
37.1,31768.3,34549.9,-0.9606,-1.1065,143.7,98.5,0.46
37.12,31835.6,34702.2,-0.6828,-0.7322,143.7,98.5,0.46
37.14,32003.9,35002.4,0.0128,0.0059,143.7,98.5,0.46
37.16,32103.5,35369.4,0.4247,0.9081,143.7,98.5,0.46
37.18,32355.3,35553.1,1.4655,1.3596,143.7,98.5,0.46
37.2,32366.4,35706.9,1.5113,1.7377,143.7,98.5,0.46
37.22,32373.0,35690.9,1.5387,1.6985,143.7,98.5,0.46
37.24,32173.8,35545.5,0.7152,1.341,143.7,98.5,0.46
37.26,32094.4,35392.0,0.3869,0.9636,143.7,98.5,0.46
37.28,32129.7,35199.6,0.533,0.4907,143.7,98.5,0.46
37.3,31992.3,35106.0,-0.0348,0.2606,143.7,98.5,0.46
37.32,32063.7,34965.9,0.26,-0.0839,143.7,98.5,0.46
37.34,31973.9,35039.8,-0.1109,0.0977,143.7,98.5,0.46
37.36,31888.3,34847.1,-0.4647,-0.3759,143.7,98.5,0.46
37.38,31860.7,34761.1,-0.579,-0.5874,143.7,98.5,0.46
37.4,31838.7,34639.1,-0.67,-0.8874,143.7,98.5,0.46
37.42,31876.4,34604.2,-0.5142,-0.973,143.7,98.5,0.46
37.44,31825.1,34689.1,-0.726,-0.7644,143.7,98.5,0.46
37.46,31843.1,34490.5,-0.6515,-1.2525,143.7,98.5,0.46
37.48,31865.7,34575.4,-0.5582,-1.044,143.7,98.5,0.46
37.5,31774.5,34489.2,-0.9353,-1.2557,143.7,98.5,0.46
37.52,31752.1,34413.8,-1.0278,-1.4411,143.7,98.5,0.46
37.54,31861.2,34700.8,-0.577,-0.7355,143.7,98.5,0.46
37.56,31966.1,34950.7,-0.1434,-0.1213,143.7,98.5,0.46
37.58,32104.6,35403.0,0.4294,0.9906,143.7,98.5,0.46
37.6,32324.5,35649.4,1.3383,1.5963,143.7,98.5,0.46
37.62,32388.3,35855.1,1.6021,2.1022,143.7,98.5,0.46
37.64,32364.1,35700.9,1.5018,1.7229,143.7,98.5,0.46
37.66,32201.6,35470.2,0.8302,1.1558,143.7,98.5,0.46
37.68,32115.2,35351.2,0.4729,0.8634,143.7,98.5,0.46
37.7,32082.9,35213.8,0.3394,0.5254,143.7,98.5,0.46
37.72,32012.6,35065.0,0.0491,0.1596,143.7,98.5,0.46
37.74,32026.4,35014.2,0.1059,0.0348,143.7,98.5,0.46
37.76,31982.2,34985.1,-0.0766,-0.0366,143.7,98.5,0.46
37.78,32014.3,34895.8,0.056,-0.2563,143.7,98.5,0.46
37.8,31887.0,34755.2,-0.4702,-0.6019,143.7,98.5,0.46
37.82,31807.5,34746.2,-0.799,-0.6241,143.7,98.5,0.46
37.84,31817.4,34689.7,-0.7581,-0.7629,143.7,98.5,0.46
37.86,31852.7,34733.4,-0.612,-0.6554,143.7,98.5,0.46
37.88,31862.4,34581.4,-0.572,-1.0291,143.7,98.5,0.46
37.9,31830.4,34561.4,-0.704,-1.0784,143.7,98.5,0.46
37.92,31801.6,34465.3,-0.8231,-1.3146,143.7,98.5,0.46
37.94,31822.9,34511.0,-0.7351,-1.2021,143.7,98.5,0.46
37.96,31757.7,34648.9,-1.0046,-0.8632,143.7,98.5,0.46
37.98,32025.9,34995.8,0.1041,-0.0103,143.7,98.5,0.46
38.0,32258.1,35411.0,1.0636,1.0103,143.7,98.5,0.46
38.02,32353.2,35642.8,1.4567,1.5801,143.7,98.5,0.46
38.04,32374.1,35800.0,1.5431,1.9666,143.7,98.5,0.46
38.06,32310.2,35704.0,1.279,1.7307,143.7,98.5,0.46
38.08,32078.8,35470.2,0.3228,1.1558,143.7,98.5,0.46
38.1,32228.4,35308.5,0.9408,0.7585,143.7,98.5,0.46
38.12,32051.3,35184.1,0.2091,0.4526,143.7,98.5,0.46
38.14,32095.7,35165.8,0.3926,0.4076,143.7,98.5,0.46
38.16,32001.8,35075.1,0.0044,0.1846,143.7,98.5,0.46
38.18,31936.2,34960.3,-0.2667,-0.0977,143.7,98.5,0.46
38.2,31950.9,34784.8,-0.2059,-0.5291,143.7,98.5,0.46
38.22,31890.8,34770.2,-0.4543,-0.5649,143.7,98.5,0.46
38.24,31823.4,34664.2,-0.7331,-0.8256,143.7,98.5,0.46
38.26,31842.2,34691.1,-0.6555,-0.7594,143.7,98.5,0.46
38.28,31844.2,34695.3,-0.647,-0.7491,143.7,98.5,0.46
38.3,31822.4,34660.6,-0.7372,-0.8344,143.7,98.5,0.46
38.32,31796.0,34497.6,-0.8464,-1.2352,143.7,98.5,0.46
38.34,31773.1,34394.4,-0.9411,-1.489,143.7,98.5,0.46
38.36,31849.3,34486.7,-0.6258,-1.2619,143.7,98.5,0.46
38.38,31903.6,34804.4,-0.4015,-0.4809,143.7,98.5,0.46
38.4,32066.4,35149.0,0.2713,0.3663,143.7,98.5,0.46
38.42,32223.3,35497.8,0.9198,1.2238,143.7,98.5,0.46
38.44,32308.2,35797.2,1.2706,1.9597,143.7,98.5,0.46
38.46,32363.3,35773.9,1.4987,1.9026,143.7,98.5,0.46
38.48,32245.1,35530.2,1.0098,1.3034,143.7,98.5,0.46
38.5,32110.8,35482.6,0.4551,1.1862,143.7,98.5,0.46
38.52,32162.7,35283.3,0.6693,0.6965,143.7,98.5,0.46
38.54,31989.1,35148.0,-0.0483,0.3637,143.7,98.5,0.46
38.56,31996.1,35112.6,-0.019,0.2767,143.7,98.5,0.46
38.58,32031.5,34983.1,0.1269,-0.0416,143.7,98.5,0.46
38.6,32002.6,34961.1,0.0077,-0.0956,143.7,98.5,0.46
38.62,31979.9,34875.6,-0.0864,-0.3058,143.7,98.5,0.46
38.64,31792.3,34672.6,-0.8618,-0.8049,143.7,98.5,0.46
38.66,31858.1,34670.1,-0.5898,-0.8111,143.7,98.5,0.46
38.68,31948.4,34791.2,-0.2166,-0.5134,143.7,98.5,0.46
38.7,31768.5,34605.1,-0.9599,-0.9708,143.7,98.5,0.46
38.72,31918.8,34508.8,-0.3387,-1.2075,143.7,98.5,0.46
38.74,31821.6,34547.8,-0.7407,-1.1118,143.7,98.5,0.46
38.76,31821.7,34389.3,-0.74,-1.5015,143.7,98.5,0.46
38.78,31793.3,34546.9,-0.8575,-1.114,143.7,98.5,0.46
38.8,31906.3,34752.4,-0.3903,-0.6088,143.7,98.5,0.46
38.82,32125.7,35230.0,0.5163,0.5653,143.7,98.5,0.46
38.84,32253.4,35448.6,1.0443,1.1027,143.7,98.5,0.46
38.86,32323.9,35713.9,1.3358,1.7551,143.7,98.5,0.46
38.88,32253.8,35752.1,1.0457,1.849,143.7,98.5,0.46
38.9,32254.1,35600.2,1.0472,1.4755,143.7,98.5,0.46
38.92,32115.3,35373.6,0.4734,0.9183,143.7,98.5,0.46
38.94,32090.0,35247.4,0.3689,0.608,143.7,98.5,0.46
38.96,31986.9,35304.1,-0.0573,0.7475,143.7,98.5,0.46
38.98,32118.2,35035.7,0.4855,0.0878,143.7,98.5,0.46
39.0,32077.1,34993.2,0.3156,-0.0167,143.7,98.5,0.46
39.02,31891.2,34973.5,-0.453,-0.0652,143.7,98.5,0.46
39.04,31911.8,34793.0,-0.3675,-0.509,143.7,98.5,0.46
39.06,31962.8,34718.4,-0.157,-0.6922,143.7,98.5,0.46
39.08,31900.0,34708.6,-0.4165,-0.7165,143.7,98.5,0.46
39.1,31867.4,34666.7,-0.5512,-0.8195,143.7,98.5,0.46
39.12,31837.3,34704.1,-0.6756,-0.7275,143.7,98.5,0.46
39.14,31841.4,34564.6,-0.6586,-1.0704,143.7,98.5,0.46
39.16,31739.9,34462.4,-1.0782,-1.3216,143.7,98.5,0.46
39.18,31787.7,34399.2,-0.8807,-1.4772,143.7,98.5,0.46
39.2,31876.0,34576.5,-0.5156,-1.0411,143.7,98.5,0.46
39.22,31938.8,34784.4,-0.2559,-0.5302,143.7,98.5,0.46
39.24,32160.3,35140.5,0.6596,0.3454,143.7,98.5,0.46
39.26,32268.8,35553.4,1.1078,1.3604,143.7,98.5,0.46
39.28,32243.7,35743.4,1.0042,1.8275,143.7,98.5,0.46
39.3,32252.6,35723.2,1.0409,1.7778,143.7,98.5,0.46
39.32,32237.9,35656.2,0.9802,1.613,143.7,98.5,0.46
39.34,32154.7,35526.1,0.6364,1.2933,143.7,98.5,0.46
39.36,32069.7,35198.1,0.2848,0.4869,143.7,98.5,0.46
39.38,32057.0,35152.0,0.2324,0.3736,143.7,98.5,0.46
39.4,32052.1,35085.3,0.2123,0.2096,143.7,98.5,0.46
39.42,32055.6,35055.6,0.2268,0.1365,143.7,98.5,0.46
39.44,31964.2,34853.3,-0.1511,-0.3607,143.7,98.5,0.46
39.46,31890.1,34814.5,-0.4576,-0.456,143.7,98.5,0.46
39.48,31927.1,34676.5,-0.3046,-0.7953,143.7,98.5,0.46
39.5,31816.3,34728.9,-0.7622,-0.6665,143.7,98.5,0.46
39.52,31898.1,34712.9,-0.4241,-0.7059,143.7,98.5,0.46
39.54,31823.6,34705.2,-0.7321,-0.7247,143.7,98.5,0.46
39.56,31864.0,34577.1,-0.5654,-1.0398,143.7,98.5,0.46
39.58,31809.5,34450.7,-0.7904,-1.3505,143.7,98.5,0.46
39.6,31742.9,34486.5,-1.0658,-1.2624,143.7,98.5,0.46
39.62,31823.4,34588.5,-0.733,-1.0117,143.7,98.5,0.46
39.64,31910.1,34927.4,-0.3746,-0.1786,143.7,98.5,0.46
39.66,32052.1,35202.7,0.2122,0.4982,143.7,98.5,0.46
39.68,32186.2,35583.9,0.7665,1.4353,143.7,98.5,0.46
39.7,32399.3,35691.1,1.6475,1.699,143.7,98.5,0.46
39.72,32303.9,35731.6,1.2532,1.7984,143.7,98.5,0.46
39.74,32129.6,35574.6,0.5324,1.4126,143.7,98.5,0.46
39.76,32116.4,35296.8,0.478,0.7297,143.7,98.5,0.46
39.78,32098.6,35224.0,0.4045,0.5506,143.7,98.5,0.46
39.8,32148.1,35209.7,0.609,0.5155,143.7,98.5,0.46
39.82,32097.2,34918.2,0.3986,-0.2011,143.7,98.5,0.46
39.84,32019.2,34995.7,0.0761,-0.0106,143.7,98.5,0.46
39.86,31998.5,34876.3,-0.0094,-0.3042,143.7,98.5,0.46
39.88,31936.9,34796.2,-0.2639,-0.501,143.7,98.5,0.46
39.9,31980.7,34701.1,-0.083,-0.7349,143.7,98.5,0.46
39.92,31915.3,34725.4,-0.353,-0.675,143.7,98.5,0.46
39.94,31898.5,34635.4,-0.4227,-0.8963,143.7,98.5,0.46
39.96,31821.4,34586.9,-0.7413,-1.0156,143.7,98.5,0.46
39.98,31841.8,34548.8,-0.6571,-1.1093,143.7,98.5,0.46
40.0,31830.9,34555.4,-0.7019,-1.0931,143.7,98.5,0.46
40.02,31775.3,34520.3,-0.9321,-1.1793,143.7,98.5,0.46
40.04,31873.1,34580.0,-0.5276,-1.0326,143.7,98.5,0.46
40.06,31959.3,34999.9,-0.1713,-0.0002,143.7,98.5,0.46
40.08,32055.6,35354.8,0.2267,0.8722,143.7,98.5,0.46
40.1,32199.1,35584.4,0.8197,1.4365,143.7,98.5,0.46
40.12,32272.8,35752.3,1.1243,1.8495,143.7,98.5,0.46
40.14,32277.8,35666.9,1.1449,1.6394,143.7,98.5,0.46
40.16,32215.9,35628.3,0.8891,1.5445,143.7,98.5,0.46
40.18,32181.7,35351.8,0.748,0.8649,143.7,98.5,0.46
40.2,32091.7,35218.6,0.3758,0.5374,143.7,98.5,0.46
40.22,32097.0,35119.6,0.3979,0.294,143.7,98.5,0.46
40.24,32008.8,35049.8,0.0332,0.1224,143.7,98.5,0.46
40.26,31886.2,35047.7,-0.4733,0.1172,143.7,98.5,0.46
40.28,31912.0,34827.9,-0.367,-0.4233,143.7,98.5,0.46
40.3,31911.2,34788.3,-0.3701,-0.5206,143.7,98.5,0.46
40.32,31869.0,34704.5,-0.5445,-0.7264,143.7,98.5,0.46
40.34,31923.1,34588.5,-0.3211,-1.0117,143.7,98.5,0.46
40.36,31877.1,34582.4,-0.5111,-1.0268,143.7,98.5,0.46
40.38,31875.2,34576.8,-0.519,-1.0405,143.7,98.5,0.46
40.4,31769.9,34484.3,-0.9542,-1.268,143.7,98.5,0.46
40.42,31750.3,34430.8,-1.0353,-1.3993,143.7,98.5,0.46
40.44,31772.9,34533.1,-0.9419,-1.1478,143.7,98.5,0.46
40.46,31793.9,34628.9,-0.8549,-0.9123,143.7,98.5,0.46
40.48,32044.1,34923.0,0.1792,-0.1895,143.7,98.5,0.46
40.5,32192.4,35378.2,0.7922,0.9296,143.7,98.5,0.46
40.52,32228.9,35676.7,0.9428,1.6636,143.7,98.5,0.46
40.54,32287.0,35792.3,1.1832,1.9477,143.7,98.5,0.46
40.56,32300.4,35628.6,1.2386,1.5453,143.7,98.5,0.46
40.58,32214.0,35491.8,0.8814,1.209,143.7,98.5,0.46
40.6,32182.8,35334.6,0.7526,0.8225,143.7,98.5,0.46
40.62,32054.1,35214.8,0.2206,0.5279,143.7,98.5,0.46
40.64,32118.0,35234.7,0.4847,0.5769,143.7,98.5,0.46
40.66,31977.9,35128.4,-0.0945,0.3157,143.7,98.5,0.46
40.68,31940.4,34983.5,-0.2496,-0.0406,143.7,98.5,0.46
40.7,32006.1,34954.6,0.0221,-0.1117,143.7,98.5,0.46
40.72,31865.4,34738.8,-0.5595,-0.6421,143.7,98.5,0.46
40.74,31860.3,34617.5,-0.5805,-0.9403,143.7,98.5,0.46
40.76,31905.8,34627.4,-0.3925,-0.9161,143.7,98.5,0.46
40.78,31912.9,34677.6,-0.3631,-0.7926,143.7,98.5,0.46
40.8,31882.1,34542.4,-0.4904,-1.1251,143.7,98.5,0.46
40.82,31774.9,34524.5,-0.9334,-1.1691,143.7,98.5,0.46
40.84,31795.3,34413.6,-0.8493,-1.4415,143.7,98.5,0.46
40.86,31762.6,34355.3,-0.9843,-1.5851,143.7,98.5,0.46
40.88,31953.7,34771.2,-0.1945,-0.5626,143.7,98.5,0.46
40.9,31971.5,35096.2,-0.1208,0.2365,143.7,98.5,0.46
40.92,32103.0,35418.4,0.4227,1.0284,143.7,98.5,0.46
40.94,32152.5,35639.1,0.6274,1.5711,143.7,98.5,0.46
40.96,32317.4,35846.2,1.3086,2.0803,143.7,98.5,0.46
40.98,32249.5,35540.3,1.0282,1.3283,143.7,98.5,0.46
41.0,32193.9,35426.6,0.7984,1.0488,143.7,98.5,0.46
41.02,32094.9,35251.4,0.389,0.618,143.7,98.5,0.46
41.04,32067.3,35087.0,0.2751,0.2138,143.7,98.5,0.46
41.06,32042.8,35060.6,0.1736,0.1488,143.7,98.5,0.46
41.08,32041.4,35060.8,0.1682,0.1495,143.7,98.5,0.46
41.1,32047.1,35081.9,0.1915,0.2014,143.7,98.5,0.46
41.12,31893.1,34805.4,-0.4449,-0.4784,143.7,98.5,0.46
41.14,31951.6,34765.8,-0.2032,-0.5758,143.7,98.5,0.46
41.16,31800.1,34735.6,-0.8293,-0.6501,143.7,98.5,0.46
41.18,31865.6,34740.0,-0.5585,-0.6393,143.7,98.5,0.46
41.2,31791.5,34638.0,-0.865,-0.8899,143.7,98.5,0.46
41.22,31862.9,34613.4,-0.5696,-0.9506,143.7,98.5,0.46
41.24,31754.4,34402.3,-1.0181,-1.4696,143.7,98.5,0.46
41.26,31783.5,34446.4,-0.8981,-1.361,143.7,98.5,0.46
41.28,31811.8,34562.1,-0.7808,-1.0767,143.7,98.5,0.46
41.3,31878.2,34711.1,-0.5067,-0.7102,143.7,98.5,0.46
41.32,31983.7,35026.0,-0.0705,0.0639,143.7,98.5,0.46
41.34,32090.6,35422.9,0.3712,1.0397,143.7,98.5,0.46
41.36,32304.5,35725.4,1.2555,1.7833,143.7,98.5,0.46
41.38,32380.7,35812.0,1.5704,1.9961,143.7,98.5,0.46
41.4,32319.8,35680.8,1.3188,1.6736,143.7,98.5,0.46
41.42,32222.4,35414.9,0.916,1.0198,143.7,98.5,0.46
41.44,32114.5,35245.1,0.4701,0.6024,143.7,98.5,0.46
41.46,32070.3,35119.1,0.2873,0.2928,143.7,98.5,0.46
41.48,32079.8,35078.2,0.3268,0.1923,143.7,98.5,0.46
41.5,32067.3,35079.2,0.2749,0.1947,143.7,98.5,0.46
41.52,32026.3,34921.7,0.1054,-0.1926,143.7,98.5,0.46
41.54,31929.7,34887.5,-0.2936,-0.2765,143.7,98.5,0.46
41.56,31943.0,34696.1,-0.2387,-0.7471,143.7,98.5,0.46
41.58,31847.6,34684.2,-0.633,-0.7764,143.7,98.5,0.46
41.6,31856.6,34681.2,-0.5959,-0.7838,143.7,98.5,0.46
41.62,31819.8,34631.3,-0.7481,-0.9064,143.7,98.5,0.46
41.64,31882.2,34456.2,-0.4902,-1.3369,143.7,98.5,0.46
41.66,31826.2,34469.4,-0.7213,-1.3044,143.7,98.5,0.46
41.68,31726.6,34409.5,-1.133,-1.4518,143.7,98.5,0.46
41.7,31815.5,34523.1,-0.7658,-1.1725,143.7,98.5,0.46
41.72,31919.6,34787.0,-0.3355,-0.5237,143.7,98.5,0.46
41.74,32056.3,35140.4,0.2297,0.345,143.7,98.5,0.46
41.76,32204.8,35394.1,0.8434,0.9687,143.7,98.5,0.46
41.78,32238.2,35735.5,0.9812,1.808,143.7,98.5,0.46
41.8,32337.4,35776.5,1.3916,1.9088,143.7,98.5,0.46
41.82,32254.4,35691.0,1.0485,1.6986,143.7,98.5,0.46
41.84,32172.2,35400.3,0.7086,0.984,143.7,98.5,0.46
41.86,32068.6,35237.3,0.2805,0.5832,143.7,98.5,0.46
41.88,32182.1,35150.6,0.7496,0.3701,143.7,98.5,0.46
41.9,32080.5,35073.7,0.3297,0.1812,143.7,98.5,0.46
41.92,31984.4,34990.2,-0.0675,-0.0242,143.7,98.5,0.46
41.94,31987.4,34950.9,-0.055,-0.1207,143.7,98.5,0.46
41.96,31896.7,34807.3,-0.4299,-0.4739,143.7,98.5,0.46
41.98,31872.2,34589.4,-0.5312,-1.0095,143.7,98.5,0.46
42.0,31848.9,34758.8,-0.6275,-0.5929,143.7,98.5,0.46
42.02,31876.3,34688.1,-0.5144,-0.7669,143.7,98.5,0.46
42.04,31860.7,34713.6,-0.579,-0.7043,143.7,98.5,0.46
42.06,31821.1,34572.3,-0.7427,-1.0516,143.7,98.5,0.46
42.08,31703.6,34500.1,-1.228,-1.2289,143.7,98.5,0.46
42.1,31761.0,34399.4,-0.991,-1.4766,143.7,98.5,0.46
42.12,31891.8,34568.6,-0.4505,-1.0605,143.7,98.5,0.46
42.14,31873.4,34775.9,-0.5265,-0.5509,143.7,98.5,0.46
42.16,32024.5,35253.2,0.0982,0.6224,143.7,98.5,0.46
42.18,32275.7,35567.2,1.1363,1.3944,143.7,98.5,0.46
42.2,32329.9,35658.4,1.3606,1.6186,143.7,98.5,0.46
42.22,32301.2,35690.3,1.2417,1.697,143.7,98.5,0.46
42.24,32260.7,35591.7,1.0744,1.4546,143.7,98.5,0.46
42.26,32180.3,35365.9,0.742,0.8995,143.7,98.5,0.46
42.28,32143.4,35257.1,0.5897,0.6321,143.7,98.5,0.46
42.3,32094.1,35134.4,0.3859,0.3304,143.7,98.5,0.46
42.32,31981.9,35058.5,-0.0779,0.1439,143.7,98.5,0.46
42.34,31960.9,35095.4,-0.1646,0.2345,143.7,98.5,0.46
42.36,31984.4,34966.2,-0.0676,-0.0831,143.7,98.5,0.46
42.38,31888.2,34846.4,-0.4654,-0.3776,143.7,98.5,0.46
42.4,31871.1,34672.9,-0.5361,-0.8042,143.7,98.5,0.46
42.42,31944.8,34670.2,-0.2311,-0.8109,143.7,98.5,0.46
42.44,31831.8,34691.6,-0.6984,-0.7583,143.7,98.5,0.46
42.46,31877.1,34571.0,-0.511,-1.0547,143.7,98.5,0.46
42.48,31830.9,34631.0,-0.7021,-0.9073,143.7,98.5,0.46
42.5,31728.6,34468.0,-1.1247,-1.3079,143.7,98.5,0.46
42.52,31736.8,34558.3,-1.0912,-1.086,143.7,98.5,0.46
42.54,31829.1,34516.4,-0.7096,-1.1889,143.7,98.5,0.46
42.56,31962.5,34883.7,-0.1581,-0.2859,143.7,98.5,0.46
42.58,32116.1,35183.7,0.4768,0.4515,143.7,98.5,0.46
42.6,32297.9,35665.4,1.2281,1.6357,143.7,98.5,0.46
42.62,32274.2,35777.4,1.1304,1.9111,143.7,98.5,0.46
42.64,32292.1,35689.5,1.2042,1.6949,143.7,98.5,0.46
42.66,32214.3,35538.4,0.8826,1.3235,143.7,98.5,0.46
42.68,32160.6,35410.7,0.6608,1.0097,143.7,98.5,0.46
42.7,32129.9,35215.4,0.5337,0.5296,143.7,98.5,0.46
42.72,32007.2,35175.5,0.0265,0.4313,143.7,98.5,0.46
42.74,31980.9,35030.0,-0.0822,0.0737,143.7,98.5,0.46
42.76,31972.1,35052.8,-0.1185,0.1297,143.7,98.5,0.46
42.78,31925.5,34917.3,-0.3111,-0.2033,143.7,98.5,0.46
42.8,31958.9,34791.3,-0.173,-0.513,143.7,98.5,0.46
42.82,31883.7,34701.0,-0.4838,-0.7352,143.7,98.5,0.46
42.84,31831.3,34723.8,-0.7005,-0.679,143.7,98.5,0.46
42.86,31846.8,34683.6,-0.6362,-0.778,143.7,98.5,0.46
42.88,31917.3,34534.2,-0.3451,-1.1453,143.7,98.5,0.46
42.9,31848.6,34514.4,-0.6288,-1.1938,143.7,98.5,0.46
42.92,31725.7,34512.0,-1.137,-1.1998,143.7,98.5,0.46
42.94,31794.2,34443.1,-0.8539,-1.3691,143.7,98.5,0.46
42.96,31869.5,34590.1,-0.5427,-1.0078,143.7,98.5,0.46
42.98,32005.9,34978.7,0.0215,-0.0524,143.7,98.5,0.46
43.0,32110.6,35223.7,0.4538,0.5498,143.7,98.5,0.46
43.02,32186.4,35689.3,0.7672,1.6945,143.7,98.5,0.46
43.04,32336.3,35721.1,1.387,1.7726,143.7,98.5,0.46
43.06,32247.2,35782.8,1.0186,1.9243,143.7,98.5,0.46
43.08,32196.4,35530.0,0.8086,1.303,143.7,98.5,0.46
43.1,32162.0,35310.0,0.6663,0.7622,143.7,98.5,0.46
43.12,31995.9,35137.5,-0.0201,0.338,143.7,98.5,0.46
43.14,31988.4,35145.5,-0.0513,0.3576,143.7,98.5,0.46
43.16,32050.9,35035.4,0.2075,0.0869,143.7,98.5,0.46
43.18,32004.8,34984.1,0.0168,-0.0392,143.7,98.5,0.46
43.2,31997.2,34886.6,-0.0146,-0.2788,143.7,98.5,0.46
43.22,31936.3,34743.6,-0.2663,-0.6303,143.7,98.5,0.46
43.24,31910.8,34681.1,-0.3718,-0.784,143.7,98.5,0.46
43.26,31907.3,34673.1,-0.3863,-0.8036,143.7,98.5,0.46
43.28,31823.0,34715.0,-0.7349,-0.7006,143.7,98.5,0.46
43.3,31864.1,34613.8,-0.5648,-0.9495,143.7,98.5,0.46
43.32,31850.4,34532.2,-0.6214,-1.15,143.7,98.5,0.46
43.34,31862.0,34479.8,-0.5734,-1.279,143.7,98.5,0.46
43.36,31814.9,34346.4,-0.7684,-1.6069,143.7,98.5,0.46
43.38,31812.5,34674.8,-0.7783,-0.7995,143.7,98.5,0.46
43.4,31963.7,34990.8,-0.1532,-0.0226,143.7,98.5,0.46
43.42,32182.5,35326.7,0.7514,0.8032,143.7,98.5,0.46
43.44,32232.8,35507.4,0.959,1.2474,143.7,98.5,0.46
43.46,32343.8,35668.7,1.418,1.644,143.7,98.5,0.46
43.48,32295.8,35680.3,1.2196,1.6725,143.7,98.5,0.46
43.5,32225.7,35529.8,0.9296,1.3024,143.7,98.5,0.46
43.52,32076.0,35320.7,0.3112,0.7885,143.7,98.5,0.46
43.54,32065.2,35197.6,0.2666,0.4857,143.7,98.5,0.46
43.56,32049.7,35137.0,0.2023,0.3368,143.7,98.5,0.46
43.58,32039.2,34966.5,0.1588,-0.0823,143.7,98.5,0.46
43.6,31951.5,34921.1,-0.2035,-0.194,143.7,98.5,0.46
43.62,31958.2,34982.2,-0.1759,-0.0437,143.7,98.5,0.46
43.64,31908.3,34776.5,-0.382,-0.5494,143.7,98.5,0.46
43.66,31837.4,34665.0,-0.6754,-0.8236,143.7,98.5,0.46
43.68,31885.3,34610.5,-0.4772,-0.9577,143.7,98.5,0.46
43.7,31808.4,34563.2,-0.7952,-1.0738,143.7,98.5,0.46
43.72,31853.3,34579.0,-0.6094,-1.035,143.7,98.5,0.46
43.74,31716.2,34641.8,-1.176,-0.8805,143.7,98.5,0.46
43.76,31812.6,34430.6,-0.7778,-1.3999,143.7,98.5,0.46
43.78,31829.8,34448.4,-0.7067,-1.356,143.7,98.5,0.46
43.8,31771.3,34636.0,-0.9483,-0.8949,143.7,98.5,0.46
43.82,31946.9,35084.2,-0.2227,0.2068,143.7,98.5,0.46
43.84,32152.6,35434.4,0.6275,1.068,143.7,98.5,0.46
43.86,32314.1,35718.6,1.2952,1.7665,143.7,98.5,0.46
43.88,32344.8,35741.8,1.422,1.8235,143.7,98.5,0.46
43.9,32302.1,35539.9,1.2458,1.3273,143.7,98.5,0.46
43.92,32247.8,35525.7,1.0212,1.2924,143.7,98.5,0.46
43.94,32189.4,35257.0,0.7795,0.6317,143.7,98.5,0.46
43.96,32059.4,35133.4,0.2426,0.3279,143.7,98.5,0.46
43.98,31971.4,35165.5,-0.1214,0.4067,143.7,98.5,0.46
44.0,32059.2,35066.9,0.2416,0.1644,143.7,98.5,0.46
44.02,31974.1,35012.8,-0.1103,0.0313,143.7,98.5,0.46
44.04,32028.8,34939.5,0.1159,-0.1487,143.7,98.5,0.46
44.06,31855.5,34668.6,-0.6005,-0.8148,143.7,98.5,0.46
44.08,31859.2,34679.2,-0.5851,-0.7886,143.7,98.5,0.46
44.1,31899.1,34688.9,-0.4203,-0.765,143.7,98.5,0.46
44.12,31892.0,34671.6,-0.4495,-0.8074,143.7,98.5,0.46
44.14,31775.6,34593.6,-0.9304,-0.9992,143.7,98.5,0.46
44.16,31844.9,34536.9,-0.6443,-1.1384,143.7,98.5,0.46
44.18,31802.0,34492.3,-0.8215,-1.2483,143.7,98.5,0.46
44.2,31749.0,34463.2,-1.0408,-1.3198,143.7,98.5,0.46
44.22,31863.1,34639.1,-0.569,-0.8872,143.7,98.5,0.46
44.24,31992.7,35041.4,-0.0332,0.1018,143.7,98.5,0.46
44.26,32165.0,35466.4,0.6787,1.1465,143.7,98.5,0.46
44.28,32235.1,35643.7,0.9688,1.5825,143.7,98.5,0.46
44.3,32357.0,35650.7,1.4724,1.5997,143.7,98.5,0.46
44.32,32389.0,35583.7,1.6047,1.435,143.7,98.5,0.46
44.34,32305.8,35484.0,1.2609,1.1897,143.7,98.5,0.46
44.36,32118.6,35199.9,0.487,0.4914,143.7,98.5,0.46
44.38,32062.7,35125.3,0.2559,0.308,143.7,98.5,0.46
44.4,31981.1,35019.7,-0.0811,0.0484,143.7,98.5,0.46
44.42,31987.3,34930.8,-0.0557,-0.1702,143.7,98.5,0.46
44.44,31994.7,34892.9,-0.0252,-0.2634,143.7,98.5,0.46
44.46,31946.2,34737.3,-0.2257,-0.646,143.7,98.5,0.46
44.48,31817.7,34676.3,-0.7567,-0.7957,143.7,98.5,0.46
44.5,31865.4,34639.8,-0.5596,-0.8856,143.7,98.5,0.46
44.52,31894.3,34651.6,-0.4399,-0.8565,143.7,98.5,0.46
44.54,31878.5,34645.9,-0.5053,-0.8705,143.7,98.5,0.46
44.56,31827.1,34632.0,-0.7177,-0.9048,143.7,98.5,0.46
44.58,31702.4,34453.0,-1.2331,-1.3448,143.7,98.5,0.46
44.6,31727.1,34478.4,-1.1311,-1.2823,143.7,98.5,0.46
44.62,31818.4,34540.1,-0.7538,-1.1306,143.7,98.5,0.46
44.64,31914.1,34762.1,-0.3584,-0.585,143.7,98.5,0.46
44.66,32075.9,35086.2,0.3106,0.2118,143.7,98.5,0.46
44.68,32132.7,35372.5,0.5453,0.9157,143.7,98.5,0.46
44.7,32327.8,35752.8,1.3519,1.8506,143.7,98.5,0.46
44.72,32327.7,35736.1,1.3514,1.8096,143.7,98.5,0.46
44.74,32287.0,35629.2,1.1833,1.5469,143.7,98.5,0.46
44.76,32180.4,35458.4,0.7427,1.1269,143.7,98.5,0.46
44.78,32038.3,35237.8,0.1551,0.5847,143.7,98.5,0.46
44.8,32076.3,35122.3,0.3125,0.3007,143.7,98.5,0.46
44.82,32050.3,35066.4,0.2047,0.1632,143.7,98.5,0.46
44.84,31947.7,35091.4,-0.2192,0.2246,143.7,98.5,0.46
44.86,31980.0,34903.6,-0.0856,-0.237,143.7,98.5,0.46
44.88,31955.3,34852.9,-0.1881,-0.3617,143.7,98.5,0.46
44.9,31742.0,34718.4,-1.0696,-0.6924,143.7,98.5,0.46
44.92,31885.1,34686.3,-0.4781,-0.7713,143.7,98.5,0.46
44.94,31933.6,34714.7,-0.2776,-0.7014,143.7,98.5,0.46
44.96,31898.7,34724.4,-0.4219,-0.6776,143.7,98.5,0.46
44.98,31835.1,34600.8,-0.6847,-0.9814,143.7,98.5,0.46
45.0,31776.9,34487.8,-0.9252,-1.2593,143.7,98.5,0.46
45.02,31751.1,34414.0,-1.032,-1.4408,143.7,98.5,0.46
45.04,31674.4,34433.3,-1.3489,-1.3933,143.7,98.5,0.46
45.06,31860.7,34755.9,-0.5791,-0.6,143.7,98.5,0.46
45.08,32066.2,35149.5,0.2703,0.3673,143.7,98.5,0.46
45.1,32184.1,35486.0,0.7578,1.1947,143.7,98.5,0.46
45.12,32299.9,35682.9,1.2365,1.6788,143.7,98.5,0.46
45.14,32351.2,35727.6,1.4484,1.7887,143.7,98.5,0.46
45.16,32198.2,35646.3,0.8161,1.5887,143.7,98.5,0.46
45.18,32253.6,35394.0,1.045,0.9686,143.7,98.5,0.46
45.2,32121.6,35313.3,0.4994,0.7702,143.7,98.5,0.46
45.22,32142.1,35199.0,0.5842,0.4891,143.7,98.5,0.46
45.24,32030.8,35046.1,0.1241,0.1134,143.7,98.5,0.46
45.26,32130.5,35063.4,0.5362,0.1558,143.7,98.5,0.46
45.28,32033.9,34928.5,0.1368,-0.1758,143.7,98.5,0.46
45.3,31928.7,34746.6,-0.2979,-0.623,143.7,98.5,0.46
45.32,31928.7,34738.2,-0.2978,-0.6438,143.7,98.5,0.46
45.34,31937.0,34776.3,-0.2634,-0.55,143.7,98.5,0.46
45.36,31816.1,34696.1,-0.7632,-0.7471,143.7,98.5,0.46
45.38,31810.5,34585.3,-0.7866,-1.0196,143.7,98.5,0.46
45.4,31813.4,34656.6,-0.7745,-0.8442,143.7,98.5,0.46
45.42,31797.2,34434.6,-0.8413,-1.3901,143.7,98.5,0.46
45.44,31745.4,34485.6,-1.0556,-1.2647,143.7,98.5,0.46
45.46,31848.9,34619.8,-0.6278,-0.9349,143.7,98.5,0.46
45.48,31884.0,34744.6,-0.4824,-0.6279,143.7,98.5,0.46
45.5,32093.4,35145.2,0.3831,0.3569,143.7,98.5,0.46
45.52,32154.3,35580.4,0.6348,1.4269,143.7,98.5,0.46
45.54,32342.2,35705.9,1.4113,1.7353,143.7,98.5,0.46
45.56,32328.0,35692.7,1.3528,1.7028,143.7,98.5,0.46
45.58,32228.0,35583.5,0.9391,1.4343,143.7,98.5,0.46
45.6,32120.3,35294.1,0.4939,0.7228,143.7,98.5,0.46
45.62,32153.0,35212.9,0.6295,0.5233,143.7,98.5,0.46
45.64,32110.4,35123.0,0.4532,0.3024,143.7,98.5,0.46
45.66,31951.7,35073.5,-0.2029,0.1807,143.7,98.5,0.46
45.68,31986.4,34996.6,-0.0593,-0.0084,143.7,98.5,0.46
45.7,31983.9,34905.1,-0.0697,-0.2333,143.7,98.5,0.46
45.72,31920.5,34756.1,-0.3315,-0.5998,143.7,98.5,0.46
