timestamp,raw_red,raw_ir,filtered_red,filtered_ir,heart_rate,spo2,ac_dc_ratio
0.0,32114.3,35190.1,0.4859,0.4683,148.9,96.5,0.541
0.02,32264.1,35530.7,1.1224,1.3081,148.9,96.5,0.541
0.04,32317.4,35710.4,1.349,1.7512,148.9,96.5,0.541
0.06,32373.6,35746.6,1.588,1.8405,148.9,96.5,0.541
0.08,32300.7,35617.9,1.2781,1.5233,148.9,96.5,0.541
0.1,32168.6,35423.4,0.7169,1.0436,148.9,96.5,0.541
0.12,32197.5,35301.9,0.8396,0.7439,148.9,96.5,0.541
0.14,32039.4,35203.2,0.1677,0.5008,148.9,96.5,0.541
0.16,32042.5,35054.9,0.181,0.1351,148.9,96.5,0.541
0.18,31996.7,35044.4,-0.0139,0.1092,148.9,96.5,0.541
0.2,31881.7,34905.9,-0.5024,-0.2323,148.9,96.5,0.541
0.22,31901.4,34830.3,-0.4188,-0.4187,148.9,96.5,0.541
0.24,31822.9,34631.4,-0.7521,-0.9091,148.9,96.5,0.541
0.26,31847.2,34659.0,-0.6492,-0.8412,148.9,96.5,0.541
0.28,31753.7,34605.1,-1.0463,-0.974,148.9,96.5,0.541
0.3,31768.8,34496.0,-0.9823,-1.2431,148.9,96.5,0.541
0.32,31768.7,34495.4,-0.9825,-1.2444,148.9,96.5,0.541
0.34,31756.8,34524.5,-1.033,-1.1726,148.9,96.5,0.541
0.36,31845.9,34533.4,-0.6547,-1.1508,148.9,96.5,0.541
0.38,31914.1,34784.8,-0.3646,-0.5309,148.9,96.5,0.541
0.4,32096.2,35078.6,0.4092,0.1934,148.9,96.5,0.541
0.42,32268.9,35495.5,1.1431,1.2215,148.9,96.5,0.541
0.44,32510.0,35664.4,2.1677,1.638,148.9,96.5,0.541
0.46,32359.8,35746.1,1.5293,1.8393,148.9,96.5,0.541
0.48,32313.0,35603.6,1.3304,1.488,148.9,96.5,0.541
0.5,32194.9,35379.0,0.8287,0.9342,148.9,96.5,0.541
0.52,32151.8,35265.3,0.6452,0.6538,148.9,96.5,0.541
0.54,31996.0,35124.7,-0.0168,0.3072,148.9,96.5,0.541
0.56,32060.4,35114.1,0.2568,0.2809,148.9,96.5,0.541
0.58,31976.6,35003.1,-0.099,0.0074,148.9,96.5,0.541
0.6,31965.6,34938.7,-0.1461,-0.1515,148.9,96.5,0.541
0.62,31904.0,34889.1,-0.4075,-0.2737,148.9,96.5,0.541
0.64,31871.3,34621.8,-0.5468,-0.9328,148.9,96.5,0.541
0.66,31721.9,34700.0,-1.1814,-0.7401,148.9,96.5,0.541
0.68,31803.8,34576.9,-0.8335,-1.0435,148.9,96.5,0.541
0.7,31729.6,34624.2,-1.1488,-0.927,148.9,96.5,0.541
0.72,31758.3,34510.4,-1.027,-1.2075,148.9,96.5,0.541
0.74,31816.9,34376.9,-0.778,-1.5366,148.9,96.5,0.541
0.76,31756.6,34513.2,-1.034,-1.2006,148.9,96.5,0.541
0.78,31890.6,34734.0,-0.4647,-0.6562,148.9,96.5,0.541
0.8,32067.1,34973.5,0.2855,-0.0656,148.9,96.5,0.541
0.82,32231.1,35408.2,0.9823,1.0063,148.9,96.5,0.541
0.84,32342.7,35683.6,1.4567,1.6852,148.9,96.5,0.541
0.86,32278.4,35749.6,1.1833,1.8479,148.9,96.5,0.541
0.88,32247.4,35598.1,1.0516,1.4743,148.9,96.5,0.541
0.9,32162.2,35428.4,0.6894,1.056,148.9,96.5,0.541
0.92,32100.9,35214.7,0.4289,0.5291,148.9,96.5,0.541
0.94,32033.5,35190.3,0.1427,0.469,148.9,96.5,0.541
0.96,32067.7,35126.6,0.2879,0.3117,148.9,96.5,0.541
0.98,31968.3,35028.9,-0.1342,0.071,148.9,96.5,0.541
1.0,31960.1,34942.4,-0.1694,-0.1423,148.9,96.5,0.541
1.02,31985.2,34791.4,-0.0625,-0.5147,148.9,96.5,0.541
1.04,31939.1,34785.9,-0.2584,-0.5282,148.9,96.5,0.541
1.06,31799.9,34693.3,-0.8499,-0.7565,148.9,96.5,0.541
1.08,31919.9,34733.9,-0.3402,-0.6564,148.9,96.5,0.541
1.1,31758.5,34641.0,-1.0259,-0.8855,148.9,96.5,0.541
1.12,31823.2,34499.4,-0.751,-1.2346,148.9,96.5,0.541
1.14,31715.9,34504.1,-1.2068,-1.223,148.9,96.5,0.541
1.16,31795.7,34492.2,-0.8679,-1.2524,148.9,96.5,0.541
1.18,31891.8,34710.1,-0.4597,-0.715,148.9,96.5,0.541
1.2,32063.3,34981.1,0.2693,-0.0469,148.9,96.5,0.541
1.22,32185.1,35370.6,0.7869,0.9135,148.9,96.5,0.541
1.24,32308.1,35634.0,1.3096,1.5629,148.9,96.5,0.541
1.26,32361.6,35772.9,1.5368,1.9054,148.9,96.5,0.541
1.28,32403.1,35636.3,1.7131,1.5686,148.9,96.5,0.541
1.3,32271.4,35355.0,1.1535,0.8749,148.9,96.5,0.541
1.32,32140.6,35279.6,0.5976,0.6892,148.9,96.5,0.541
1.34,32087.3,35143.7,0.3713,0.354,148.9,96.5,0.541
1.36,32039.2,35049.0,0.167,0.1205,148.9,96.5,0.541
1.38,32049.3,35086.9,0.2097,0.2139,148.9,96.5,0.541
1.4,31980.9,34929.1,-0.0808,-0.175,148.9,96.5,0.541
1.42,31886.8,34796.8,-0.4806,-0.5013,148.9,96.5,0.541
1.44,31852.0,34710.8,-0.6287,-0.7133,148.9,96.5,0.541
1.46,31926.3,34633.3,-0.3129,-0.9046,148.9,96.5,0.541
1.48,31903.5,34725.8,-0.41,-0.6764,148.9,96.5,0.541
1.5,31755.7,34631.1,-1.038,-0.9099,148.9,96.5,0.541
1.52,31876.1,34557.4,-0.5264,-1.0915,148.9,96.5,0.541
1.54,31740.6,34412.3,-1.102,-1.4495,148.9,96.5,0.541
1.56,31740.9,34440.3,-1.1006,-1.3803,148.9,96.5,0.541
1.58,31833.8,34530.8,-0.7058,-1.1572,148.9,96.5,0.541
1.6,32057.7,34923.7,0.2454,-0.1885,148.9,96.5,0.541
1.62,32134.4,35297.9,0.5715,0.7342,148.9,96.5,0.541
1.64,32278.4,35551.6,1.1834,1.3598,148.9,96.5,0.541
1.66,32335.0,35750.3,1.4241,1.8496,148.9,96.5,0.541
1.68,32381.0,35669.8,1.6192,1.6511,148.9,96.5,0.541
1.7,32230.1,35469.1,0.9782,1.1563,148.9,96.5,0.541
1.72,32145.2,35216.5,0.6173,0.5334,148.9,96.5,0.541
1.74,32080.3,35092.9,0.3416,0.2286,148.9,96.5,0.541
1.76,32185.4,34967.3,0.7884,-0.0811,148.9,96.5,0.541
1.78,32094.7,35076.4,0.4025,0.1882,148.9,96.5,0.541
1.8,31931.0,35010.0,-0.2929,0.0243,148.9,96.5,0.541
1.82,31941.0,34854.4,-0.2503,-0.3593,148.9,96.5,0.541
1.84,31847.6,34706.9,-0.6472,-0.7231,148.9,96.5,0.541
1.86,31851.8,34682.1,-0.6294,-0.7842,148.9,96.5,0.541
1.88,31822.5,34697.3,-0.7541,-0.7467,148.9,96.5,0.541
1.9,31847.6,34616.1,-0.6475,-0.9468,148.9,96.5,0.541
1.92,31784.1,34633.2,-0.9173,-0.9048,148.9,96.5,0.541
1.94,31717.7,34440.3,-1.1995,-1.3804,148.9,96.5,0.541
1.96,31726.9,34473.7,-1.16,-1.298,148.9,96.5,0.541
1.98,31767.0,34535.4,-0.9899,-1.1458,148.9,96.5,0.541
2.0,31893.4,34852.0,-0.4525,-0.3651,148.9,96.5,0.541
2.02,32201.4,35069.7,0.8563,0.1715,148.9,96.5,0.541
2.04,32237.3,35577.6,1.0086,1.4237,148.9,96.5,0.541
2.06,32322.1,35821.8,1.3689,2.0261,148.9,96.5,0.541
2.08,32364.4,35718.3,1.5486,1.7707,148.9,96.5,0.541
2.1,32246.9,35504.3,1.0496,1.2431,148.9,96.5,0.541
2.12,32175.5,35343.0,0.7459,0.8453,148.9,96.5,0.541
2.14,32162.9,35144.3,0.6924,0.3555,148.9,96.5,0.541
2.16,31967.7,35072.2,-0.1369,0.1778,148.9,96.5,0.541
2.18,32023.1,35021.9,0.0986,0.0537,148.9,96.5,0.541
2.2,31995.3,35031.5,-0.0196,0.0774,148.9,96.5,0.541
2.22,31967.6,34842.1,-0.1375,-0.3896,148.9,96.5,0.541
2.24,31833.8,34807.8,-0.7059,-0.4743,148.9,96.5,0.541
2.26,31830.0,34652.7,-0.7221,-0.8566,148.9,96.5,0.541
2.28,31780.2,34733.0,-0.9339,-0.6587,148.9,96.5,0.541
2.3,31742.8,34730.8,-1.0926,-0.664,148.9,96.5,0.541
2.32,31802.8,34560.8,-0.8377,-1.0833,148.9,96.5,0.541
2.34,31736.1,34466.2,-1.1211,-1.3166,148.9,96.5,0.541
2.36,31753.4,34385.1,-1.0477,-1.5163,148.9,96.5,0.541
2.38,31648.9,34592.0,-1.4916,-1.0062,148.9,96.5,0.541
2.4,31970.5,34803.3,-0.1251,-0.4853,148.9,96.5,0.541
2.42,32027.0,35214.4,0.1149,0.5283,148.9,96.5,0.541
2.44,32248.3,35597.9,1.0556,1.4739,148.9,96.5,0.541
2.46,32286.4,35787.4,1.2173,1.9411,148.9,96.5,0.541
2.48,32360.7,35716.3,1.5332,1.7658,148.9,96.5,0.541
2.5,32270.2,35595.7,1.1485,1.4686,148.9,96.5,0.541
2.52,32127.8,35437.9,0.5432,1.0795,148.9,96.5,0.541
2.54,32140.8,35189.3,0.5987,0.4665,148.9,96.5,0.541
2.56,32065.0,35152.9,0.2766,0.3767,148.9,96.5,0.541
2.58,32079.1,35065.3,0.3363,0.1606,148.9,96.5,0.541
2.6,31993.2,34962.9,-0.0287,-0.0918,148.9,96.5,0.541
2.62,32016.7,34831.1,0.0713,-0.4169,148.9,96.5,0.541
2.64,31845.4,34850.2,-0.6566,-0.3697,148.9,96.5,0.541
2.66,31885.0,34675.8,-0.4884,-0.7997,148.9,96.5,0.541
2.68,31802.0,34663.0,-0.841,-0.8312,148.9,96.5,0.541
2.7,31753.7,34589.2,-1.0462,-1.0133,148.9,96.5,0.541
2.72,31839.8,34633.0,-0.6805,-0.9052,148.9,96.5,0.541
2.74,31788.2,34470.7,-0.8996,-1.3055,148.9,96.5,0.541
2.76,31697.4,34446.6,-1.2858,-1.3648,148.9,96.5,0.541
2.78,31757.2,34477.2,-1.0313,-1.2894,148.9,96.5,0.541
2.8,31908.1,34709.6,-0.3901,-0.7163,148.9,96.5,0.541
2.82,32126.2,35209.5,0.5365,0.5163,148.9,96.5,0.541
2.84,32288.4,35486.7,1.2259,1.1998,148.9,96.5,0.541
2.86,32426.5,35687.1,1.8128,1.6938,148.9,96.5,0.541
2.88,32385.5,35725.6,1.6383,1.7888,148.9,96.5,0.541
2.9,32257.0,35615.7,1.0925,1.5178,148.9,96.5,0.541
2.92,32209.1,35288.2,0.8889,0.7103,148.9,96.5,0.541
2.94,32085.7,35209.0,0.3646,0.5151,148.9,96.5,0.541
2.96,32122.9,35114.3,0.5226,0.2815,148.9,96.5,0.541
2.98,32114.1,35058.5,0.4851,0.1438,148.9,96.5,0.541
3.0,31984.1,35000.4,-0.0672,0.0006,148.9,96.5,0.541
3.02,31948.2,34831.1,-0.2197,-0.4169,148.9,96.5,0.541
3.04,31866.0,34832.2,-0.5691,-0.414,148.9,96.5,0.541
3.06,31879.4,34712.5,-0.5122,-0.7092,148.9,96.5,0.541
3.08,31822.9,34690.1,-0.7523,-0.7643,148.9,96.5,0.541
3.1,31856.9,34689.7,-0.6076,-0.7653,148.9,96.5,0.541
3.12,31876.5,34651.7,-0.5244,-0.8591,148.9,96.5,0.541
3.14,31758.2,34533.3,-1.0273,-1.151,148.9,96.5,0.541
3.16,31661.6,34330.0,-1.4378,-1.6523,148.9,96.5,0.541
3.18,31769.2,34507.7,-0.9805,-1.2143,148.9,96.5,0.541
3.2,31875.9,34752.8,-0.527,-0.6098,148.9,96.5,0.541
3.22,32031.5,35035.7,0.1342,0.0877,148.9,96.5,0.541
3.24,32307.7,35481.6,1.3078,1.1872,148.9,96.5,0.541
3.26,32364.8,35661.8,1.5507,1.6313,148.9,96.5,0.541
3.28,32411.1,35815.9,1.7471,2.0114,148.9,96.5,0.541
3.3,32359.9,35614.8,1.5298,1.5154,148.9,96.5,0.541
3.32,32264.9,35384.7,1.1259,0.9482,148.9,96.5,0.541
3.34,32109.2,35157.0,0.4643,0.3869,148.9,96.5,0.541
3.36,32110.0,35133.5,0.4677,0.3288,148.9,96.5,0.541
3.38,32009.2,35106.8,0.0395,0.2629,148.9,96.5,0.541
3.4,31994.8,35036.8,-0.0218,0.0904,148.9,96.5,0.541
3.42,31957.0,34862.0,-0.1826,-0.3407,148.9,96.5,0.541
3.44,31864.7,34881.8,-0.5746,-0.2919,148.9,96.5,0.541
3.46,31898.7,34715.5,-0.4301,-0.7018,148.9,96.5,0.541
3.48,31959.0,34677.8,-0.1739,-0.7947,148.9,96.5,0.541
3.5,31846.7,34652.7,-0.6512,-0.8566,148.9,96.5,0.541
3.52,31779.0,34584.5,-0.9387,-1.0249,148.9,96.5,0.541
3.54,31793.7,34546.9,-0.8766,-1.1174,148.9,96.5,0.541
3.56,31719.6,34414.5,-1.1914,-1.444,148.9,96.5,0.541
3.58,31685.9,34598.1,-1.3343,-0.9912,148.9,96.5,0.541
3.6,31790.1,34669.7,-0.8916,-0.8146,148.9,96.5,0.541
3.62,31987.6,35018.7,-0.0522,0.0459,148.9,96.5,0.541
3.64,32204.7,35383.7,0.8701,0.9458,148.9,96.5,0.541
3.66,32321.4,35674.0,1.3662,1.6616,148.9,96.5,0.541
3.68,32297.5,35845.6,1.2645,2.0845,148.9,96.5,0.541
3.7,32338.8,35600.5,1.4398,1.4802,148.9,96.5,0.541
3.72,32238.9,35502.9,1.0153,1.2396,148.9,96.5,0.541
3.74,32187.2,35204.8,0.7959,0.5047,148.9,96.5,0.541
3.76,32123.8,35112.6,0.5264,0.2772,148.9,96.5,0.541
3.78,32053.9,35138.2,0.2294,0.3403,148.9,96.5,0.541
3.8,32041.1,35065.8,0.1747,0.162,148.9,96.5,0.541
3.82,31979.1,34906.7,-0.0883,-0.2304,148.9,96.5,0.541
3.84,31859.9,34735.0,-0.595,-0.6537,148.9,96.5,0.541
3.86,31813.8,34759.9,-0.7909,-0.5923,148.9,96.5,0.541
3.88,31789.7,34694.0,-0.8934,-0.7548,148.9,96.5,0.541
3.9,31843.7,34678.6,-0.6637,-0.7929,148.9,96.5,0.541
3.92,31936.4,34659.0,-0.2698,-0.841,148.9,96.5,0.541
3.94,31777.7,34569.8,-0.9445,-1.0611,148.9,96.5,0.541
3.96,31620.3,34432.7,-1.6131,-1.3991,148.9,96.5,0.541
3.98,31833.1,34446.6,-0.7088,-1.3648,148.9,96.5,0.541
4.0,31756.9,34623.9,-1.0328,-0.9276,148.9,96.5,0.541
4.02,31994.7,34920.8,-0.0222,-0.1957,148.9,96.5,0.541
4.04,32199.1,35372.7,0.8463,0.9187,148.9,96.5,0.541
4.06,32341.8,35675.3,1.4527,1.6646,148.9,96.5,0.541
4.08,32333.6,35767.4,1.4177,1.8918,148.9,96.5,0.541
4.1,32323.2,35611.6,1.3739,1.5076,148.9,96.5,0.541
4.12,32224.8,35457.5,0.9554,1.1277,148.9,96.5,0.541
4.14,32120.5,35226.5,0.5122,0.5581,148.9,96.5,0.541
4.16,32011.7,35199.6,0.05,0.4919,148.9,96.5,0.541
4.18,32059.5,35070.5,0.2532,0.1736,148.9,96.5,0.541
4.2,31947.4,35108.1,-0.2233,0.2663,148.9,96.5,0.541
4.22,32007.5,34854.9,0.0322,-0.3581,148.9,96.5,0.541
4.24,32008.6,34879.2,0.0367,-0.2981,148.9,96.5,0.541
4.26,31846.1,34792.6,-0.6536,-0.5117,148.9,96.5,0.541
4.28,31741.0,34690.3,-1.1002,-0.7638,148.9,96.5,0.541
4.3,31819.1,34735.2,-0.7683,-0.6533,148.9,96.5,0.541
4.32,31771.6,34644.1,-0.9705,-0.8777,148.9,96.5,0.541
4.34,31841.7,34598.4,-0.6723,-0.9905,148.9,96.5,0.541
4.36,31728.4,34544.1,-1.154,-1.1243,148.9,96.5,0.541
4.38,31708.9,34506.6,-1.2367,-1.2168,148.9,96.5,0.541
4.4,31793.1,34575.7,-0.8788,-1.0464,148.9,96.5,0.541
4.42,31915.8,34911.8,-0.3574,-0.2177,148.9,96.5,0.541
4.44,32053.6,35339.3,0.2281,0.8362,148.9,96.5,0.541
4.46,32291.8,35610.5,1.2403,1.505,148.9,96.5,0.541
4.48,32477.7,35693.3,2.0305,1.7091,148.9,96.5,0.541
4.5,32326.5,35706.5,1.3879,1.7416,148.9,96.5,0.541
4.52,32233.7,35459.0,0.9934,1.1314,148.9,96.5,0.541
4.54,32174.2,35369.8,0.7404,0.9114,148.9,96.5,0.541
4.56,32159.7,35171.5,0.6792,0.4225,148.9,96.5,0.541
4.58,31955.3,35109.6,-0.1897,0.27,148.9,96.5,0.541
4.6,31934.7,35087.2,-0.2774,0.2148,148.9,96.5,0.541
4.62,31992.6,34928.4,-0.0314,-0.1769,148.9,96.5,0.541
4.64,31902.8,34882.6,-0.4126,-0.2898,148.9,96.5,0.541
4.66,31860.6,34705.4,-0.5923,-0.7267,148.9,96.5,0.541
4.68,31882.8,34726.0,-0.4979,-0.6758,148.9,96.5,0.541
4.7,31823.3,34630.2,-0.7507,-0.9121,148.9,96.5,0.541
4.72,31849.5,34744.9,-0.6394,-0.6294,148.9,96.5,0.541
4.74,31772.5,34636.5,-0.9666,-0.8965,148.9,96.5,0.541
4.76,31787.1,34554.3,-0.9045,-1.0991,148.9,96.5,0.541
4.78,31760.6,34415.6,-1.0172,-1.4412,148.9,96.5,0.541
4.8,31741.5,34595.1,-1.0983,-0.9986,148.9,96.5,0.541
4.82,31963.8,34811.5,-0.1536,-0.4651,148.9,96.5,0.541
4.84,32137.9,35197.0,0.5864,0.4854,148.9,96.5,0.541
4.86,32231.2,35602.3,0.9826,1.4846,148.9,96.5,0.541
4.88,32405.3,35799.1,1.7225,1.9699,148.9,96.5,0.541
4.9,32254.8,35742.0,1.083,1.8291,148.9,96.5,0.541
4.92,32241.7,35622.0,1.0276,1.5334,148.9,96.5,0.541
4.94,32153.6,35287.3,0.6531,0.708,148.9,96.5,0.541
4.96,32027.7,35177.4,0.1179,0.437,148.9,96.5,0.541
4.98,31999.6,35141.1,-0.0013,0.3476,148.9,96.5,0.541
5.0,32184.5,35055.0,0.7844,0.1352,148.9,96.5,0.541
5.02,31993.2,34899.9,-0.0285,-0.2472,148.9,96.5,0.541
5.04,31909.1,34896.6,-0.386,-0.2554,148.9,96.5,0.541
5.06,31828.6,34729.8,-0.728,-0.6664,148.9,96.5,0.541
5.08,31871.3,34755.8,-0.5466,-0.6025,148.9,96.5,0.541
5.1,31863.7,34658.4,-0.579,-0.8427,148.9,96.5,0.541
5.12,31893.8,34645.6,-0.4509,-0.8742,148.9,96.5,0.541
5.14,31825.9,34588.1,-0.7397,-1.0159,148.9,96.5,0.541
5.16,31697.9,34486.1,-1.2833,-1.2675,148.9,96.5,0.541
5.18,31747.5,34374.1,-1.0727,-1.5436,148.9,96.5,0.541
5.2,31772.9,34542.5,-0.9646,-1.1283,148.9,96.5,0.541
5.22,31953.9,34830.1,-0.1956,-0.4191,148.9,96.5,0.541
5.24,32047.7,35172.0,0.203,0.4237,148.9,96.5,0.541
5.26,32294.0,35455.1,1.2497,1.1217,148.9,96.5,0.541
5.28,32352.1,35778.3,1.4964,1.9188,148.9,96.5,0.541
5.3,32345.1,35806.3,1.4669,1.9877,148.9,96.5,0.541
5.32,32342.4,35449.1,1.4554,1.107,148.9,96.5,0.541
5.34,32154.4,35389.7,0.6564,0.9607,148.9,96.5,0.541
5.36,32224.5,35213.1,0.9542,0.5251,148.9,96.5,0.541
5.38,32133.4,35123.6,0.5671,0.3044,148.9,96.5,0.541
5.4,32027.3,35039.6,0.1165,0.0973,148.9,96.5,0.541
5.42,31996.6,35045.3,-0.0141,0.1113,148.9,96.5,0.541
5.44,31883.4,34921.9,-0.4951,-0.193,148.9,96.5,0.541
5.46,31897.3,34769.8,-0.4362,-0.568,148.9,96.5,0.541
5.48,31831.6,34664.9,-0.7151,-0.8265,148.9,96.5,0.541
5.5,31783.8,34625.7,-0.9185,-0.9231,148.9,96.5,0.541
5.52,31867.2,34641.6,-0.564,-0.8841,148.9,96.5,0.541
5.54,31857.2,34642.7,-0.6066,-0.8812,148.9,96.5,0.541
5.56,31760.5,34543.9,-1.0175,-1.1249,148.9,96.5,0.541
5.58,31766.1,34380.7,-0.9937,-1.5272,148.9,96.5,0.541
5.6,31762.2,34538.3,-1.0104,-1.1386,148.9,96.5,0.541
5.62,31851.5,34758.5,-0.6309,-0.5958,148.9,96.5,0.541
5.64,32093.8,35162.0,0.399,0.3992,148.9,96.5,0.541
5.66,32185.1,35605.6,0.7869,1.4929,148.9,96.5,0.541
5.68,32358.7,35693.9,1.5245,1.7106,148.9,96.5,0.541
5.7,32328.4,35704.3,1.3959,1.7362,148.9,96.5,0.541
5.72,32267.6,35571.1,1.1377,1.4077,148.9,96.5,0.541
5.74,32144.7,35386.2,0.6151,0.952,148.9,96.5,0.541
5.76,32128.7,35131.9,0.5474,0.3249,148.9,96.5,0.541
5.78,32068.3,35081.2,0.2905,0.1998,148.9,96.5,0.541
5.8,32048.4,35107.1,0.206,0.2638,148.9,96.5,0.541
5.82,32011.4,34971.4,0.0489,-0.0709,148.9,96.5,0.541
5.84,32006.2,34832.9,0.0266,-0.4123,148.9,96.5,0.541
5.86,31916.2,34818.7,-0.3559,-0.4473,148.9,96.5,0.541
5.88,31844.2,34633.2,-0.6617,-0.9046,148.9,96.5,0.541
5.9,31822.3,34651.2,-0.7548,-0.8603,148.9,96.5,0.541
5.92,31972.1,34688.7,-0.1183,-0.768,148.9,96.5,0.541
5.94,31650.0,34556.6,-1.4869,-1.0937,148.9,96.5,0.541
5.96,31711.2,34555.7,-1.2269,-1.0957,148.9,96.5,0.541
5.98,31699.9,34471.4,-1.2748,-1.3036,148.9,96.5,0.541
6.0,31810.1,34443.3,-0.8069,-1.373,148.9,96.5,0.541
6.02,31821.2,34726.8,-0.7597,-0.674,148.9,96.5,0.541
6.04,31966.1,34998.9,-0.1436,-0.003,148.9,96.5,0.541
6.06,32262.0,35379.4,1.1136,0.9351,148.9,96.5,0.541
6.08,32390.4,35721.6,1.6593,1.7789,148.9,96.5,0.541
6.1,32374.0,35798.8,1.5896,1.9693,148.9,96.5,0.541
6.12,32402.2,35609.5,1.7093,1.5026,148.9,96.5,0.541
6.14,32282.2,35410.3,1.1993,1.0114,148.9,96.5,0.541
6.16,32199.6,35148.3,0.8486,0.3653,148.9,96.5,0.541
6.18,32078.6,35146.0,0.3341,0.3596,148.9,96.5,0.541
6.2,32028.4,35001.7,0.121,0.0038,148.9,96.5,0.541
6.22,32047.4,35116.8,0.2018,0.2877,148.9,96.5,0.541
6.24,31935.6,34900.9,-0.2733,-0.2447,148.9,96.5,0.541
6.26,31921.6,34781.9,-0.3327,-0.5381,148.9,96.5,0.541
6.28,31863.4,34718.5,-0.5803,-0.6944,148.9,96.5,0.541
6.3,31752.6,34634.5,-1.0511,-0.9015,148.9,96.5,0.541
6.32,31853.3,34643.0,-0.6232,-0.8806,148.9,96.5,0.541
6.34,31754.4,34635.3,-1.0432,-0.8996,148.9,96.5,0.541
6.36,31687.8,34637.3,-1.3263,-0.8947,148.9,96.5,0.541
6.38,31730.9,34445.0,-1.1433,-1.3687,148.9,96.5,0.541
6.4,31779.6,34513.1,-0.9363,-1.2007,148.9,96.5,0.541
6.42,31889.2,34729.9,-0.4704,-0.6663,148.9,96.5,0.541
6.44,32037.8,35003.6,0.1607,0.0086,148.9,96.5,0.541
6.46,32195.8,35474.7,0.8325,1.1702,148.9,96.5,0.541
6.48,32440.5,35594.2,1.8723,1.4648,148.9,96.5,0.541
6.5,32329.7,35722.2,1.4015,1.7803,148.9,96.5,0.541
6.52,32342.1,35712.4,1.4539,1.7562,148.9,96.5,0.541
6.54,32217.5,35539.1,0.9245,1.3289,148.9,96.5,0.541
6.56,32086.1,35219.9,0.366,0.5419,148.9,96.5,0.541
6.58,32074.7,35154.6,0.3178,0.3809,148.9,96.5,0.541
6.6,32033.9,35085.1,0.1443,0.2095,148.9,96.5,0.541
6.62,32032.1,34997.9,0.1369,-0.0056,148.9,96.5,0.541
6.64,32011.1,34875.2,0.0474,-0.3081,148.9,96.5,0.541
6.66,31862.2,34804.9,-0.5853,-0.4815,148.9,96.5,0.541
6.68,31853.0,34782.9,-0.6245,-0.5357,148.9,96.5,0.541
6.7,31823.9,34666.9,-0.7481,-0.8217,148.9,96.5,0.541
6.72,31891.1,34674.5,-0.4626,-0.8029,148.9,96.5,0.541
6.74,31907.4,34601.4,-0.3931,-0.9831,148.9,96.5,0.541
6.76,31755.0,34532.1,-1.0406,-1.1541,148.9,96.5,0.541
6.78,31728.9,34442.9,-1.1519,-1.3738,148.9,96.5,0.541
6.8,31844.1,34499.5,-0.6623,-1.2343,148.9,96.5,0.541
6.82,31749.9,34586.7,-1.0624,-1.0193,148.9,96.5,0.541
6.84,32095.5,34969.9,0.4061,-0.0745,148.9,96.5,0.541
6.86,32173.2,35259.0,0.7362,0.6384,148.9,96.5,0.541
6.88,32304.5,35593.3,1.2943,1.4627,148.9,96.5,0.541
6.9,32422.7,35669.6,1.7964,1.6506,148.9,96.5,0.541
6.92,32322.2,35691.9,1.3693,1.7056,148.9,96.5,0.541
6.94,32179.3,35395.2,0.7621,0.9741,148.9,96.5,0.541
6.96,32240.7,35273.2,1.023,0.6734,148.9,96.5,0.541
6.98,32029.4,35147.4,0.1254,0.3632,148.9,96.5,0.541
7.0,32102.3,35094.6,0.4349,0.233,148.9,96.5,0.541
7.02,32027.0,35045.2,0.1151,0.1112,148.9,96.5,0.541
7.04,31997.4,34918.4,-0.0106,-0.2016,148.9,96.5,0.541
7.06,31901.4,34865.6,-0.4188,-0.3318,148.9,96.5,0.541
7.08,31876.7,34777.4,-0.5238,-0.5493,148.9,96.5,0.541
7.1,31793.7,34699.0,-0.8762,-0.7426,148.9,96.5,0.541
7.12,31902.6,34680.2,-0.4136,-0.7887,148.9,96.5,0.541
7.14,31837.8,34660.0,-0.6889,-0.8386,148.9,96.5,0.541
7.16,31609.0,34608.7,-1.6614,-0.9651,148.9,96.5,0.541
7.18,31746.9,34491.8,-1.0751,-1.2535,148.9,96.5,0.541
7.2,31776.0,34487.0,-0.9514,-1.2651,148.9,96.5,0.541
7.22,31820.2,34551.7,-0.7637,-1.1058,148.9,96.5,0.541
7.24,31878.7,34797.6,-0.5153,-0.4993,148.9,96.5,0.541
7.26,32112.7,35272.3,0.4792,0.671,148.9,96.5,0.541
7.28,32338.7,35602.0,1.4398,1.484,148.9,96.5,0.541
7.3,32348.0,35764.9,1.4791,1.8857,148.9,96.5,0.541
7.32,32373.7,35790.3,1.5883,1.9482,148.9,96.5,0.541
7.34,32251.7,35638.5,1.0697,1.574,148.9,96.5,0.541
7.36,32181.0,35290.3,0.7695,0.7153,148.9,96.5,0.541
7.38,32059.5,35224.9,0.2533,0.5543,148.9,96.5,0.541
7.4,32156.0,35099.1,0.663,0.2439,148.9,96.5,0.541
7.42,32029.3,35009.6,0.1248,0.0234,148.9,96.5,0.541
7.44,31987.3,35010.0,-0.0538,0.0242,148.9,96.5,0.541
7.46,31883.6,34797.4,-0.4945,-0.4998,148.9,96.5,0.541
7.48,31901.6,34826.5,-0.418,-0.4281,148.9,96.5,0.541
7.5,31851.2,34668.1,-0.632,-0.8188,148.9,96.5,0.541
7.52,31807.7,34686.0,-0.817,-0.7744,148.9,96.5,0.541
7.54,31809.9,34616.9,-0.8077,-0.9448,148.9,96.5,0.541
7.56,31795.8,34511.8,-0.8675,-1.204,148.9,96.5,0.541
7.58,31690.1,34519.4,-1.3167,-1.1854,148.9,96.5,0.541
7.6,31687.4,34477.6,-1.3279,-1.2883,148.9,96.5,0.541
7.62,31804.2,34582.9,-0.8316,-1.0286,148.9,96.5,0.541
7.64,31972.1,34787.5,-0.1181,-0.5243,148.9,96.5,0.541
7.66,32081.1,35221.3,0.3449,0.5454,148.9,96.5,0.541
7.68,32308.4,35571.7,1.3109,1.4094,148.9,96.5,0.541
7.7,32440.7,35786.0,1.8729,1.9377,148.9,96.5,0.541
7.72,32406.2,35775.4,1.7265,1.9114,148.9,96.5,0.541
7.74,32264.8,35495.7,1.1257,1.2218,148.9,96.5,0.541
7.76,32123.6,35259.3,0.5256,0.639,148.9,96.5,0.541
7.78,32175.7,35082.5,0.7469,0.2031,148.9,96.5,0.541
7.8,32093.8,35098.1,0.399,0.2416,148.9,96.5,0.541
7.82,32077.1,35090.4,0.328,0.2226,148.9,96.5,0.541
7.84,32004.5,34993.0,0.0194,-0.0176,148.9,96.5,0.541
7.86,31930.4,34782.8,-0.2956,-0.5358,148.9,96.5,0.541
7.88,31873.8,34731.6,-0.5361,-0.6621,148.9,96.5,0.541
7.9,31813.7,34727.0,-0.7915,-0.6733,148.9,96.5,0.541
7.92,31797.0,34679.7,-0.8625,-0.79,148.9,96.5,0.541
7.94,31847.1,34662.6,-0.6493,-0.8322,148.9,96.5,0.541
7.96,31779.4,34497.3,-0.9371,-1.2399,148.9,96.5,0.541
7.98,31803.6,34449.4,-0.8343,-1.3578,148.9,96.5,0.541
8.0,31852.1,34349.8,-0.6282,-1.6036,148.9,96.5,0.541
8.02,31826.7,34615.7,-0.7363,-0.9479,148.9,96.5,0.541
8.04,31866.2,34816.2,-0.5682,-0.4535,148.9,96.5,0.541
8.06,32115.6,35245.5,0.4916,0.605,148.9,96.5,0.541
8.08,32243.9,35495.4,1.0369,1.2211,148.9,96.5,0.541
8.1,32260.8,35670.1,1.1087,1.6518,148.9,96.5,0.541
8.12,32404.8,35660.0,1.7205,1.6271,148.9,96.5,0.541
8.14,32316.2,35607.6,1.3439,1.4978,148.9,96.5,0.541
8.16,32205.4,35364.0,0.8732,0.897,148.9,96.5,0.541
8.18,32116.0,35310.4,0.4934,0.765,148.9,96.5,0.541
8.2,32089.4,35115.9,0.3803,0.2856,148.9,96.5,0.541
8.22,31969.5,35086.3,-0.1293,0.2124,148.9,96.5,0.541
8.24,31934.4,34977.8,-0.2783,-0.055,148.9,96.5,0.541
8.26,31928.5,34876.9,-0.3036,-0.3038,148.9,96.5,0.541
8.28,31881.5,34803.4,-0.5034,-0.485,148.9,96.5,0.541
8.3,31877.3,34719.8,-0.5213,-0.6912,148.9,96.5,0.541
8.32,31765.7,34733.0,-0.9952,-0.6587,148.9,96.5,0.541
8.34,31792.2,34725.6,-0.8827,-0.6768,148.9,96.5,0.541
8.36,31771.5,34688.8,-0.9705,-0.7677,148.9,96.5,0.541
8.38,31793.5,34593.3,-0.8772,-1.003,148.9,96.5,0.541
8.4,31804.5,34444.2,-0.8303,-1.3707,148.9,96.5,0.541
8.42,31846.3,34549.1,-0.6528,-1.1122,148.9,96.5,0.541
8.44,31832.9,34808.3,-0.7097,-0.4731,148.9,96.5,0.541
8.46,31958.4,35133.9,-0.1764,0.3298,148.9,96.5,0.541
8.48,32213.7,35394.0,0.9084,0.9712,148.9,96.5,0.541
8.5,32331.7,35729.5,1.4097,1.7984,148.9,96.5,0.541
8.52,32388.0,35788.0,1.6493,1.9426,148.9,96.5,0.541
8.54,32349.4,35544.4,1.4849,1.3419,148.9,96.5,0.541
8.56,32285.2,35359.0,1.2122,0.8849,148.9,96.5,0.541
8.58,32138.2,35284.2,0.5874,0.7005,148.9,96.5,0.541
8.6,32124.8,35113.4,0.5305,0.2793,148.9,96.5,0.541
8.62,32074.1,35085.6,0.3152,0.2108,148.9,96.5,0.541
8.64,32070.9,34992.5,0.3017,-0.0187,148.9,96.5,0.541
8.66,31973.5,34838.0,-0.1122,-0.3999,148.9,96.5,0.541
8.68,31903.2,34827.8,-0.4108,-0.4248,148.9,96.5,0.541
8.7,31782.8,34769.9,-0.9226,-0.5676,148.9,96.5,0.541
8.72,31885.4,34711.5,-0.4867,-0.7115,148.9,96.5,0.541
8.74,31772.7,34674.2,-0.9657,-0.8035,148.9,96.5,0.541
8.76,31836.5,34632.3,-0.6943,-0.9069,148.9,96.5,0.541
8.78,31797.6,34551.2,-0.8599,-1.1069,148.9,96.5,0.541
8.8,31713.2,34484.2,-1.2183,-1.2721,148.9,96.5,0.541
8.82,31798.5,34488.1,-0.8559,-1.2624,148.9,96.5,0.541
8.84,31794.0,34749.5,-0.8752,-0.6179,148.9,96.5,0.541
8.86,32009.2,35085.3,0.0395,0.2099,148.9,96.5,0.541
8.88,32188.4,35383.2,0.8009,0.9446,148.9,96.5,0.541
8.9,32311.8,35643.2,1.3253,1.5857,148.9,96.5,0.541
8.92,32389.0,35756.2,1.6532,1.8642,148.9,96.5,0.541
8.94,32295.8,35608.6,1.2573,1.5004,148.9,96.5,0.541
8.96,32118.3,35440.8,0.5029,1.0866,148.9,96.5,0.541
8.98,32137.0,35301.0,0.5826,0.7418,148.9,96.5,0.541
9.0,32040.6,35138.8,0.1729,0.342,148.9,96.5,0.541
9.02,32064.8,35114.2,0.2755,0.2813,148.9,96.5,0.541
9.04,31965.5,35076.6,-0.1463,0.1886,148.9,96.5,0.541
9.06,32017.2,34908.6,0.0734,-0.2257,148.9,96.5,0.541
9.08,31928.2,34811.3,-0.3047,-0.4655,148.9,96.5,0.541
9.1,31815.7,34801.7,-0.7828,-0.4892,148.9,96.5,0.541
9.12,31898.6,34682.0,-0.4307,-0.7845,148.9,96.5,0.541
9.14,31878.1,34703.9,-0.5178,-0.7305,148.9,96.5,0.541
9.16,31780.8,34677.1,-0.931,-0.7966,148.9,96.5,0.541
9.18,31786.7,34508.1,-0.906,-1.2131,148.9,96.5,0.541
9.2,31717.7,34423.8,-1.1995,-1.421,148.9,96.5,0.541
9.22,31776.8,34482.7,-0.9484,-1.2757,148.9,96.5,0.541
9.24,31822.0,34599.6,-0.7563,-0.9874,148.9,96.5,0.541
9.26,32053.2,34996.4,0.2263,-0.0091,148.9,96.5,0.541
9.28,32235.6,35329.7,1.0015,0.8127,148.9,96.5,0.541
9.3,32337.2,35655.0,1.4332,1.6146,148.9,96.5,0.541
9.32,32275.9,35753.7,1.1729,1.8579,148.9,96.5,0.541
9.34,32370.5,35679.4,1.5746,1.6748,148.9,96.5,0.541
9.36,32230.6,35486.6,0.9801,1.1996,148.9,96.5,0.541
9.38,32197.0,35294.8,0.8376,0.7265,148.9,96.5,0.541
9.4,32126.3,35206.3,0.5372,0.5084,148.9,96.5,0.541
9.42,32039.2,35093.0,0.167,0.2289,148.9,96.5,0.541
9.44,32042.9,35042.2,0.1826,0.1037,148.9,96.5,0.541
9.46,32049.5,34923.0,0.2107,-0.1902,148.9,96.5,0.541
9.48,31937.4,34835.3,-0.2656,-0.4064,148.9,96.5,0.541
9.5,31952.3,34630.1,-0.2022,-0.9125,148.9,96.5,0.541
9.52,31771.6,34703.1,-0.9705,-0.7323,148.9,96.5,0.541
9.54,31883.6,34640.2,-0.4943,-0.8874,148.9,96.5,0.541
9.56,31807.2,34662.3,-0.8191,-0.833,148.9,96.5,0.541
9.58,31789.8,34653.7,-0.8928,-0.8542,148.9,96.5,0.541
9.6,31693.4,34429.3,-1.3027,-1.4073,148.9,96.5,0.541
9.62,31669.0,34552.7,-1.4065,-1.1033,148.9,96.5,0.541
9.64,31816.4,34663.1,-0.7801,-0.831,148.9,96.5,0.541
9.66,31983.9,34928.8,-0.0681,-0.1758,148.9,96.5,0.541
9.68,32130.0,35333.6,0.5528,0.8221,148.9,96.5,0.541
9.7,32385.2,35607.2,1.6371,1.4968,148.9,96.5,0.541
9.72,32456.4,35734.3,1.9399,1.8101,148.9,96.5,0.541
9.74,32368.3,35704.5,1.5655,1.7368,148.9,96.5,0.541
9.76,32206.0,35566.3,0.8757,1.396,148.9,96.5,0.541
9.78,32165.1,35272.2,0.7017,0.6707,148.9,96.5,0.541
9.8,32016.6,35279.5,0.0708,0.6888,148.9,96.5,0.541
9.82,32013.5,35079.8,0.0578,0.1965,148.9,96.5,0.541
9.84,32006.8,35054.7,0.0293,0.1346,148.9,96.5,0.541
9.86,31944.4,34976.2,-0.236,-0.059,148.9,96.5,0.541
9.88,31913.8,34803.8,-0.3661,-0.484,148.9,96.5,0.541
9.9,31913.5,34694.8,-0.3672,-0.7528,148.9,96.5,0.541
9.92,31812.3,34651.2,-0.7974,-0.8604,148.9,96.5,0.541
9.94,31841.7,34691.1,-0.6725,-0.762,148.9,96.5,0.541
9.96,31752.5,34674.0,-1.0513,-0.8041,148.9,96.5,0.541
9.98,31745.7,34593.7,-1.0805,-1.0022,148.9,96.5,0.541
10.0,31715.6,34518.6,-1.2081,-1.1874,148.9,96.5,0.541
10.02,31760.7,34521.0,-1.0166,-1.1813,148.9,96.5,0.541
10.04,31783.4,34523.0,-0.9203,-1.1764,148.9,96.5,0.541
10.06,31895.4,34818.9,-0.4443,-0.4468,148.9,96.5,0.541
10.08,32106.9,35208.3,0.4547,0.5133,148.9,96.5,0.541
10.1,32312.2,35574.6,1.327,1.4165,148.9,96.5,0.541
10.12,32375.7,35662.6,1.5969,1.6333,148.9,96.5,0.541
10.14,32189.0,35628.0,0.8036,1.5481,148.9,96.5,0.541
10.16,32234.9,35551.9,0.9983,1.3604,148.9,96.5,0.541
10.18,32096.4,35300.4,0.41,0.7403,148.9,96.5,0.541
10.2,32060.0,35286.0,0.2554,0.7049,148.9,96.5,0.541
10.22,32070.6,35114.6,0.3004,0.2821,148.9,96.5,0.541
10.24,32085.5,35040.5,0.3637,0.0996,148.9,96.5,0.541
10.26,31993.3,34932.5,-0.0283,-0.1667,148.9,96.5,0.541
10.28,31935.4,34917.8,-0.2744,-0.2029,148.9,96.5,0.541
10.3,31864.5,34786.8,-0.5754,-0.5261,148.9,96.5,0.541
10.32,31848.3,34679.0,-0.6442,-0.7918,148.9,96.5,0.541
10.34,31872.3,34730.6,-0.5426,-0.6645,148.9,96.5,0.541
10.36,31743.8,34660.2,-1.0886,-0.8382,148.9,96.5,0.541
10.38,31850.4,34600.6,-0.6356,-0.9852,148.9,96.5,0.541
10.4,31747.1,34590.9,-1.0742,-1.0091,148.9,96.5,0.541
10.42,31716.0,34483.5,-1.2067,-1.2738,148.9,96.5,0.541
10.44,31760.7,34541.4,-1.0167,-1.131,148.9,96.5,0.541
10.46,31786.5,34785.8,-0.9071,-0.5283,148.9,96.5,0.541
10.48,32048.0,35138.6,0.2044,0.3414,148.9,96.5,0.541
10.5,32323.0,35531.4,1.3729,1.31,148.9,96.5,0.541
10.52,32430.3,35732.2,1.8287,1.805,148.9,96.5,0.541
10.54,32410.1,35710.4,1.743,1.7513,148.9,96.5,0.541
10.56,32283.9,35567.0,1.2068,1.3978,148.9,96.5,0.541
10.58,32136.8,35382.1,0.5816,0.9418,148.9,96.5,0.541
10.6,32092.8,35194.6,0.3946,0.4796,148.9,96.5,0.541
10.62,32022.2,35133.4,0.0947,0.3286,148.9,96.5,0.541
10.64,32046.3,35018.1,0.197,0.0443,148.9,96.5,0.541
10.66,32035.3,35024.9,0.1502,0.0611,148.9,96.5,0.541
10.68,31945.4,34846.7,-0.2317,-0.3783,148.9,96.5,0.541
10.7,31800.2,34849.7,-0.8487,-0.3708,148.9,96.5,0.541
10.72,31836.9,34666.8,-0.6926,-0.822,148.9,96.5,0.541
10.74,31786.5,34625.2,-0.907,-0.9244,148.9,96.5,0.541
10.76,31810.0,34619.0,-0.8072,-0.9398,148.9,96.5,0.541
10.78,31795.2,34644.8,-0.87,-0.8762,148.9,96.5,0.541
10.8,31731.1,34488.9,-1.1422,-1.2606,148.9,96.5,0.541
10.82,31679.3,34378.7,-1.3625,-1.5323,148.9,96.5,0.541
10.84,31754.4,34540.7,-1.0433,-1.1328,148.9,96.5,0.541
10.86,31833.9,34674.5,-0.7054,-0.8029,148.9,96.5,0.541
10.88,32003.3,35179.7,0.0142,0.4428,148.9,96.5,0.541
10.9,32208.9,35413.1,0.8881,1.0182,148.9,96.5,0.541
10.92,32454.8,35808.2,1.9328,1.9924,148.9,96.5,0.541
10.94,32399.4,35734.5,1.6978,1.8107,148.9,96.5,0.541
10.96,32310.8,35575.8,1.3209,1.4193,148.9,96.5,0.541
10.98,32289.8,35439.2,1.2319,1.0826,148.9,96.5,0.541
11.0,32101.4,35290.0,0.431,0.7148,148.9,96.5,0.541
11.02,31973.8,35120.9,-0.1112,0.2977,148.9,96.5,0.541
11.04,32038.3,35030.0,0.163,0.0737,148.9,96.5,0.541
11.06,31894.3,35024.8,-0.449,0.0609,148.9,96.5,0.541
11.08,31931.1,34879.1,-0.2924,-0.2984,148.9,96.5,0.541
11.1,31945.8,34812.6,-0.2299,-0.4624,148.9,96.5,0.541
11.12,31862.0,34683.7,-0.5863,-0.7802,148.9,96.5,0.541
11.14,31840.3,34673.8,-0.6782,-0.8047,148.9,96.5,0.541
11.16,31862.4,34722.7,-0.5843,-0.684,148.9,96.5,0.541
11.18,31805.6,34595.8,-0.8258,-0.997,148.9,96.5,0.541
11.2,31819.0,34488.7,-0.769,-1.2609,148.9,96.5,0.541
11.22,31711.2,34512.5,-1.2272,-1.2023,148.9,96.5,0.541
11.24,31697.7,34496.3,-1.2841,-1.2423,148.9,96.5,0.541
11.26,31858.5,34720.5,-0.601,-0.6896,148.9,96.5,0.541
11.28,32003.3,35027.6,0.0143,0.0678,148.9,96.5,0.541
11.3,32191.3,35405.8,0.8134,1.0004,148.9,96.5,0.541
11.32,32359.7,35791.5,1.529,1.9513,148.9,96.5,0.541
11.34,32467.9,35800.5,1.9884,1.9734,148.9,96.5,0.541
11.36,32289.7,35563.8,1.2312,1.3898,148.9,96.5,0.541
11.38,32205.6,35366.2,0.8741,0.9027,148.9,96.5,0.541
11.4,32132.2,35297.6,0.5621,0.7335,148.9,96.5,0.541
11.42,32061.2,35134.8,0.2602,0.332,148.9,96.5,0.541
11.44,32022.2,35038.7,0.0946,0.0951,148.9,96.5,0.541
11.46,31901.1,35062.9,-0.42,0.1549,148.9,96.5,0.541
11.48,32003.0,34880.4,0.013,-0.2953,148.9,96.5,0.541
11.5,31999.8,34737.8,-0.0006,-0.6469,148.9,96.5,0.541
11.52,31898.6,34732.4,-0.4306,-0.6601,148.9,96.5,0.541
11.54,31868.0,34668.2,-0.5606,-0.8185,148.9,96.5,0.541
11.56,31804.2,34649.4,-0.8319,-0.8648,148.9,96.5,0.541
11.58,31872.8,34626.4,-0.5401,-0.9215,148.9,96.5,0.541
11.6,31795.1,34503.4,-0.8703,-1.2248,148.9,96.5,0.541
11.62,31698.3,34443.1,-1.282,-1.3735,148.9,96.5,0.541
11.64,31805.6,34537.8,-0.826,-1.14,148.9,96.5,0.541
11.66,31748.7,34747.0,-1.0677,-0.6242,148.9,96.5,0.541
11.68,32033.9,34946.2,0.1443,-0.1329,148.9,96.5,0.541
11.7,32267.1,35434.6,1.1353,1.0712,148.9,96.5,0.541
11.72,32343.3,35535.7,1.4589,1.3206,148.9,96.5,0.541
11.74,32364.4,35712.2,1.5488,1.7558,148.9,96.5,0.541
11.76,32280.4,35639.5,1.1918,1.5765,148.9,96.5,0.541
11.78,32285.2,35506.3,1.2123,1.248,148.9,96.5,0.541
11.8,32083.2,35247.0,0.3539,0.6087,148.9,96.5,0.541
11.82,32184.0,35209.6,0.7821,0.5164,148.9,96.5,0.541
11.84,32100.7,35053.0,0.4281,0.1305,148.9,96.5,0.541
11.86,32022.5,35057.1,0.0961,0.1404,148.9,96.5,0.541
11.88,32022.4,34871.1,0.0955,-0.3182,148.9,96.5,0.541
11.9,31888.7,34824.9,-0.4725,-0.432,148.9,96.5,0.541
11.92,31886.0,34761.5,-0.484,-0.5885,148.9,96.5,0.541
11.94,31861.8,34624.5,-0.5872,-0.9261,148.9,96.5,0.541
11.96,31802.0,34610.7,-0.8413,-0.9601,148.9,96.5,0.541
11.98,31828.9,34702.1,-0.7269,-0.7348,148.9,96.5,0.541
12.0,31781.4,34553.4,-0.9287,-1.1015,148.9,96.5,0.541
12.02,31711.9,34513.5,-1.224,-1.1999,148.9,96.5,0.541
12.04,31726.1,34420.2,-1.1634,-1.43,148.9,96.5,0.541
12.06,31795.5,34673.4,-0.8686,-0.8055,148.9,96.5,0.541
12.08,31905.0,34997.8,-0.4034,-0.0057,148.9,96.5,0.541
12.1,32239.7,35350.4,1.0188,0.8636,148.9,96.5,0.541
12.12,32284.6,35682.5,1.2095,1.6824,148.9,96.5,0.541
12.14,32344.9,35851.3,1.466,2.0987,148.9,96.5,0.541
12.16,32294.6,35689.2,1.252,1.6989,148.9,96.5,0.541
12.18,32178.2,35444.6,0.7576,1.0959,148.9,96.5,0.541
12.2,32081.4,35329.3,0.3463,0.8116,148.9,96.5,0.541
12.22,32013.6,35128.1,0.0582,0.3156,148.9,96.5,0.541
12.24,32108.0,35108.2,0.4594,0.2665,148.9,96.5,0.541
12.26,32022.2,35067.7,0.0947,0.1666,148.9,96.5,0.541
12.28,31870.3,34924.2,-0.5509,-0.1871,148.9,96.5,0.541
12.3,31940.9,34886.9,-0.2508,-0.2791,148.9,96.5,0.541
12.32,31818.7,34753.6,-0.7703,-0.6079,148.9,96.5,0.541
12.34,31841.1,34740.5,-0.6751,-0.6401,148.9,96.5,0.541
12.36,31814.5,34676.8,-0.7878,-0.7972,148.9,96.5,0.541
12.38,31841.2,34612.5,-0.6747,-0.9557,148.9,96.5,0.541
12.4,31827.3,34690.1,-0.7334,-0.7644,148.9,96.5,0.541
12.42,31819.1,34450.9,-0.7684,-1.3541,148.9,96.5,0.541
12.44,31740.1,34443.6,-1.104,-1.3721,148.9,96.5,0.541
12.46,31784.2,34595.5,-0.9168,-0.9978,148.9,96.5,0.541
12.48,31899.9,34852.8,-0.4249,-0.3633,148.9,96.5,0.541
12.5,32119.0,35331.7,0.5062,0.8174,148.9,96.5,0.541
12.52,32404.8,35631.5,1.7205,1.5567,148.9,96.5,0.541
12.54,32401.0,35778.9,1.7045,1.9202,148.9,96.5,0.541
12.56,32295.4,35734.5,1.2555,1.8108,148.9,96.5,0.541
12.58,32253.5,35539.5,1.0777,1.3299,148.9,96.5,0.541
12.6,32137.4,35273.3,0.5842,0.6734,148.9,96.5,0.541
12.62,32043.0,35185.5,0.1828,0.4569,148.9,96.5,0.541
12.64,32058.9,35078.6,0.2506,0.1934,148.9,96.5,0.541
12.66,31982.9,35051.9,-0.0724,0.1276,148.9,96.5,0.541
12.68,31998.2,34879.6,-0.0073,-0.2973,148.9,96.5,0.541
12.7,31911.3,34867.7,-0.3767,-0.3266,148.9,96.5,0.541
12.72,31822.3,34746.4,-0.755,-0.6255,148.9,96.5,0.541
12.74,31821.3,34690.3,-0.759,-0.764,148.9,96.5,0.541
12.76,31942.0,34704.0,-0.2461,-0.7302,148.9,96.5,0.541
12.78,31772.4,34649.7,-0.9668,-0.8639,148.9,96.5,0.541
12.8,31786.3,34606.6,-0.908,-0.9704,148.9,96.5,0.541
12.82,31802.6,34548.9,-0.8384,-1.1126,148.9,96.5,0.541
12.84,31751.9,34405.3,-1.054,-1.4667,148.9,96.5,0.541
12.86,31812.7,34614.5,-0.7957,-0.9509,148.9,96.5,0.541
12.88,31933.3,34867.7,-0.2831,-0.3266,148.9,96.5,0.541
12.9,32058.5,35260.8,0.2489,0.6426,148.9,96.5,0.541
12.92,32233.9,35518.9,0.9942,1.279,148.9,96.5,0.541
12.94,32449.2,35804.8,1.9091,1.984,148.9,96.5,0.541
12.96,32317.3,35858.5,1.3489,2.1165,148.9,96.5,0.541
12.98,32274.5,35545.2,1.167,1.3439,148.9,96.5,0.541
13.0,32124.6,35359.3,0.5298,0.8855,148.9,96.5,0.541
13.02,31963.5,35187.8,-0.155,0.4627,148.9,96.5,0.541
13.04,32046.8,35133.3,0.1993,0.3284,148.9,96.5,0.541
13.06,32082.4,34980.8,0.3505,-0.0475,148.9,96.5,0.541
13.08,31997.2,35073.8,-0.0114,0.1815,148.9,96.5,0.541
13.1,31948.9,34905.0,-0.2171,-0.2346,148.9,96.5,0.541
13.12,31921.4,34739.6,-0.3335,-0.6423,148.9,96.5,0.541
13.14,31886.6,34744.2,-0.4815,-0.631,148.9,96.5,0.541
13.16,31817.5,34550.6,-0.7753,-1.1083,148.9,96.5,0.541
13.18,31771.4,34627.2,-0.971,-0.9195,148.9,96.5,0.541
13.2,31820.1,34587.3,-0.7642,-1.018,148.9,96.5,0.541
13.22,31745.0,34499.9,-1.0835,-1.2335,148.9,96.5,0.541
13.24,31714.4,34454.2,-1.2132,-1.346,148.9,96.5,0.541
13.26,31768.3,34567.7,-0.9842,-1.0662,148.9,96.5,0.541
13.28,31918.6,34819.9,-0.3455,-0.4444,148.9,96.5,0.541
13.3,32065.0,35224.0,0.2764,0.5519,148.9,96.5,0.541
13.32,32238.4,35504.8,1.0136,1.2442,148.9,96.5,0.541
13.34,32294.9,35745.4,1.2536,1.8376,148.9,96.5,0.541
13.36,32318.3,35760.8,1.3531,1.8756,148.9,96.5,0.541
13.38,32349.9,35526.6,1.4871,1.298,148.9,96.5,0.541
13.4,32224.7,35392.9,0.9551,0.9684,148.9,96.5,0.541
13.42,32134.5,35232.7,0.572,0.5733,148.9,96.5,0.541
13.44,32093.5,35086.5,0.3976,0.2129,148.9,96.5,0.541
13.46,31954.1,35096.8,-0.1948,0.2384,148.9,96.5,0.541
13.48,32050.2,35000.1,0.2137,-0.0001,148.9,96.5,0.541
13.5,31954.2,34940.1,-0.1944,-0.1479,148.9,96.5,0.541
13.52,31913.9,34764.9,-0.3655,-0.5801,148.9,96.5,0.541
13.54,31825.7,34623.6,-0.7402,-0.9283,148.9,96.5,0.541
13.56,31879.2,34698.0,-0.5131,-0.7449,148.9,96.5,0.541
13.58,31802.6,34616.9,-0.8385,-0.9449,148.9,96.5,0.541
13.6,31841.0,34617.3,-0.6754,-0.9439,148.9,96.5,0.541
13.62,31738.2,34560.7,-1.1122,-1.0834,148.9,96.5,0.541
13.64,31698.8,34475.2,-1.2795,-1.2942,148.9,96.5,0.541
13.66,31795.4,34453.8,-0.869,-1.347,148.9,96.5,0.541
13.68,31932.3,34704.6,-0.2874,-0.7287,148.9,96.5,0.541
13.7,32072.7,35043.9,0.3092,0.1078,148.9,96.5,0.541
13.72,32189.6,35545.0,0.8062,1.3434,148.9,96.5,0.541
13.74,32350.6,35624.8,1.4902,1.5401,148.9,96.5,0.541
13.76,32298.8,35712.9,1.2701,1.7573,148.9,96.5,0.541
13.78,32258.8,35702.7,1.1001,1.7322,148.9,96.5,0.541
13.8,32144.0,35396.8,0.6123,0.978,148.9,96.5,0.541
13.82,32091.3,35143.6,0.3884,0.3536,148.9,96.5,0.541
13.84,32067.4,35119.5,0.2867,0.2943,148.9,96.5,0.541
13.86,32071.3,35080.9,0.3032,0.1991,148.9,96.5,0.541
13.88,31969.4,35010.0,-0.1298,0.0243,148.9,96.5,0.541
13.9,31895.8,34902.3,-0.4424,-0.2412,148.9,96.5,0.541
13.92,31858.2,34868.1,-0.6023,-0.3254,148.9,96.5,0.541
13.94,31848.3,34757.5,-0.6444,-0.5982,148.9,96.5,0.541
13.96,31798.8,34646.6,-0.8547,-0.8717,148.9,96.5,0.541
13.98,31828.7,34612.0,-0.7276,-0.957,148.9,96.5,0.541
14.0,31804.4,34518.0,-0.8307,-1.1888,148.9,96.5,0.541
14.02,31752.0,34539.9,-1.0536,-1.1348,148.9,96.5,0.541
14.04,31670.8,34464.7,-1.3987,-1.3202,148.9,96.5,0.541
14.06,31662.8,34389.1,-1.4328,-1.5066,148.9,96.5,0.541
14.08,31874.6,34711.0,-0.5325,-0.713,148.9,96.5,0.541
14.1,32012.7,35043.5,0.0543,0.1069,148.9,96.5,0.541
14.12,32196.4,35383.2,0.8349,0.9446,148.9,96.5,0.541
14.14,32372.0,35662.6,1.5809,1.6335,148.9,96.5,0.541
14.16,32471.6,35804.5,2.0043,1.9833,148.9,96.5,0.541
14.18,32296.3,35634.6,1.2596,1.5645,148.9,96.5,0.541
14.2,32245.3,35367.4,1.0425,0.9057,148.9,96.5,0.541
14.22,32106.1,35254.4,0.4513,0.627,148.9,96.5,0.541
14.24,32015.5,35119.6,0.0663,0.2947,148.9,96.5,0.541
14.26,32101.0,35088.4,0.4295,0.2176,148.9,96.5,0.541
14.28,31979.8,34986.0,-0.0857,-0.0348,148.9,96.5,0.541
14.3,31886.4,34897.4,-0.4825,-0.2533,148.9,96.5,0.541
14.32,31905.6,34829.6,-0.4009,-0.4205,148.9,96.5,0.541
14.34,31847.2,34803.8,-0.649,-0.484,148.9,96.5,0.541
14.36,31888.8,34604.8,-0.4722,-0.9747,148.9,96.5,0.541
14.38,31870.4,34704.8,-0.5503,-0.7282,148.9,96.5,0.541
14.4,31827.2,34656.9,-0.734,-0.8462,148.9,96.5,0.541
14.42,31851.1,34588.5,-0.6326,-1.0148,148.9,96.5,0.541
14.44,31703.9,34500.2,-1.2578,-1.2326,148.9,96.5,0.541
14.46,31763.6,34444.0,-1.0043,-1.3713,148.9,96.5,0.541
14.48,31872.1,34649.5,-0.5432,-0.8646,148.9,96.5,0.541
14.5,31990.3,35036.6,-0.0408,0.0899,148.9,96.5,0.541
14.52,32128.8,35380.9,0.5477,0.9389,148.9,96.5,0.541
14.54,32211.2,35548.3,0.8979,1.3516,148.9,96.5,0.541
14.56,32315.2,35809.2,1.3399,1.9949,148.9,96.5,0.541
14.58,32313.0,35696.0,1.3303,1.7157,148.9,96.5,0.541
14.6,32225.1,35472.4,0.9569,1.1645,148.9,96.5,0.541
14.62,32122.5,35292.9,0.5207,0.7218,148.9,96.5,0.541
14.64,32122.1,35197.5,0.5192,0.4867,148.9,96.5,0.541
14.66,32149.6,35153.5,0.636,0.3782,148.9,96.5,0.541
14.68,31988.6,35111.8,-0.048,0.2755,148.9,96.5,0.541
14.7,31942.8,34934.2,-0.2428,-0.1626,148.9,96.5,0.541
14.72,31940.0,34779.6,-0.2545,-0.5438,148.9,96.5,0.541
14.74,31894.0,34691.7,-0.4502,-0.7605,148.9,96.5,0.541
14.76,31914.4,34678.5,-0.3635,-0.7931,148.9,96.5,0.541
14.78,31811.7,34787.8,-0.7999,-0.5236,148.9,96.5,0.541
14.8,31874.1,34655.9,-0.5348,-0.8486,148.9,96.5,0.541
14.82,31751.7,34538.1,-1.0547,-1.1391,148.9,96.5,0.541
14.84,31681.3,34371.3,-1.3541,-1.5505,148.9,96.5,0.541
14.86,31770.8,34547.1,-0.9739,-1.1171,148.9,96.5,0.541
14.88,31741.3,34599.4,-1.099,-0.9882,148.9,96.5,0.541
14.9,31916.7,34890.4,-0.3536,-0.2705,148.9,96.5,0.541
14.92,32244.2,35333.3,1.0381,0.8214,148.9,96.5,0.541
14.94,32314.7,35640.0,1.3376,1.5777,148.9,96.5,0.541
14.96,32322.7,35720.7,1.3714,1.7768,148.9,96.5,0.541
14.98,32289.2,35666.1,1.2291,1.6421,148.9,96.5,0.541
15.0,32238.5,35520.8,1.0138,1.2837,148.9,96.5,0.541
15.02,32171.6,35305.8,0.7296,0.7538,148.9,96.5,0.541
15.04,32110.9,35190.4,0.4714,0.4693,148.9,96.5,0.541
15.06,31996.8,35148.8,-0.0132,0.3667,148.9,96.5,0.541
15.08,32114.4,35029.3,0.4863,0.072,148.9,96.5,0.541
15.1,31970.6,34949.8,-0.1248,-0.1241,148.9,96.5,0.541
15.12,31926.8,34859.9,-0.3108,-0.3456,148.9,96.5,0.541
15.14,31871.3,34643.8,-0.5467,-0.8785,148.9,96.5,0.541
15.16,31855.2,34682.4,-0.6149,-0.7834,148.9,96.5,0.541
15.18,31870.5,34684.4,-0.5501,-0.7785,148.9,96.5,0.541
15.2,31843.1,34637.9,-0.6663,-0.8931,148.9,96.5,0.541
15.22,31766.6,34544.3,-0.9915,-1.124,148.9,96.5,0.541
15.24,31758.9,34485.1,-1.0242,-1.2699,148.9,96.5,0.541
15.26,31825.1,34490.7,-0.743,-1.2561,148.9,96.5,0.541
15.28,31837.1,34693.9,-0.692,-0.7551,148.9,96.5,0.541
15.3,32003.7,34886.8,0.016,-0.2795,148.9,96.5,0.541
15.32,32134.8,35187.4,0.573,0.4618,148.9,96.5,0.541
15.34,32299.0,35568.7,1.2709,1.4018,148.9,96.5,0.541
15.36,32353.4,35623.1,1.502,1.536,148.9,96.5,0.541
15.38,32343.0,35657.3,1.458,1.6204,148.9,96.5,0.541
15.4,32176.3,35580.9,0.7495,1.432,148.9,96.5,0.541
15.42,32094.5,35249.9,0.4019,0.6159,148.9,96.5,0.541
15.44,32121.3,35251.2,0.5157,0.619,148.9,96.5,0.541
15.46,32140.8,35114.5,0.5985,0.282,148.9,96.5,0.541
15.48,32075.0,35003.3,0.319,0.0077,148.9,96.5,0.541
15.5,31939.3,35032.8,-0.2575,0.0805,148.9,96.5,0.541
15.52,31865.2,34852.1,-0.5724,-0.365,148.9,96.5,0.541
15.54,31910.8,34710.9,-0.3789,-0.7131,148.9,96.5,0.541
15.56,31824.6,34714.1,-0.7452,-0.7051,148.9,96.5,0.541
15.58,31775.4,34727.5,-0.9539,-0.6721,148.9,96.5,0.541
15.6,31869.4,34624.7,-0.5549,-0.9256,148.9,96.5,0.541
15.62,31792.4,34530.2,-0.8817,-1.1587,148.9,96.5,0.541
15.64,31717.1,34483.7,-1.2018,-1.2734,148.9,96.5,0.541
15.66,31735.9,34526.4,-1.122,-1.168,148.9,96.5,0.541
15.68,31918.6,34574.3,-0.3454,-1.05,148.9,96.5,0.541
15.7,31900.7,34817.1,-0.4218,-0.4513,148.9,96.5,0.541
15.72,32025.5,35247.1,0.1086,0.609,148.9,96.5,0.541
15.74,32300.3,35464.2,1.2766,1.1443,148.9,96.5,0.541
15.76,32358.6,35694.0,1.5241,1.7109,148.9,96.5,0.541
15.78,32288.4,35745.7,1.2257,1.8384,148.9,96.5,0.541
15.8,32293.2,35664.3,1.2461,1.6377,148.9,96.5,0.541
15.82,32133.8,35284.8,0.5689,0.7018,148.9,96.5,0.541
15.84,32072.3,35305.1,0.3075,0.7521,148.9,96.5,0.541
15.86,32006.0,35094.1,0.0259,0.2316,148.9,96.5,0.541
15.88,32060.8,35097.2,0.2588,0.2393,148.9,96.5,0.541
15.9,32031.6,35029.7,0.1345,0.0728,148.9,96.5,0.541
15.92,31988.2,34926.2,-0.0499,-0.1822,148.9,96.5,0.541
15.94,31781.8,34769.4,-0.927,-0.569,148.9,96.5,0.541
15.96,31875.8,34662.3,-0.5277,-0.833,148.9,96.5,0.541
15.98,31856.4,34685.1,-0.6099,-0.7766,148.9,96.5,0.541
16.0,31833.6,34709.4,-0.707,-0.7168,148.9,96.5,0.541
16.02,31794.0,34527.1,-0.8752,-1.1662,148.9,96.5,0.541
16.04,31702.4,34545.5,-1.2642,-1.1211,148.9,96.5,0.541
16.06,31685.0,34391.0,-1.3383,-1.5019,148.9,96.5,0.541
16.08,31853.0,34472.3,-0.6244,-1.3014,148.9,96.5,0.541
16.1,32005.3,34695.8,0.0228,-0.7504,148.9,96.5,0.541
16.12,32062.6,35137.8,0.2665,0.3396,148.9,96.5,0.541
16.14,32331.9,35531.6,1.4109,1.3105,148.9,96.5,0.541
16.16,32268.7,35657.8,1.1421,1.6215,148.9,96.5,0.541
16.18,32435.1,35761.6,1.8491,1.8776,148.9,96.5,0.541
16.2,32313.5,35475.0,1.3324,1.1707,148.9,96.5,0.541
16.22,32167.5,35364.8,0.7123,0.8991,148.9,96.5,0.541
16.24,32034.4,35301.6,0.1463,0.7433,148.9,96.5,0.541
16.26,31983.0,35092.1,-0.0721,0.2269,148.9,96.5,0.541
16.28,32109.4,34987.6,0.4653,-0.0309,148.9,96.5,0.541
16.3,31996.7,35007.6,-0.0139,0.0185,148.9,96.5,0.541
16.32,31943.1,34925.3,-0.2415,-0.1845,148.9,96.5,0.541
16.34,31766.8,34800.9,-0.9909,-0.4913,148.9,96.5,0.541
16.36,31907.4,34721.6,-0.393,-0.6866,148.9,96.5,0.541
16.38,31898.1,34733.0,-0.4327,-0.6587,148.9,96.5,0.541
16.4,31800.7,34696.1,-0.8465,-0.7496,148.9,96.5,0.541
16.42,31858.6,34663.7,-0.6004,-0.8295,148.9,96.5,0.541
16.44,31719.0,34392.1,-1.1937,-1.4991,148.9,96.5,0.541
16.46,31724.4,34483.4,-1.1709,-1.2742,148.9,96.5,0.541
16.48,31686.3,34534.9,-1.3328,-1.147,148.9,96.5,0.541
16.5,31837.5,34731.7,-0.6901,-0.6619,148.9,96.5,0.541
16.52,32020.9,35036.1,0.0891,0.0888,148.9,96.5,0.541
16.54,32316.5,35553.3,1.3452,1.3638,148.9,96.5,0.541
16.56,32297.5,35652.7,1.2645,1.609,148.9,96.5,0.541
16.58,32346.9,35773.6,1.4746,1.9072,148.9,96.5,0.541
16.6,32384.7,35619.3,1.6351,1.5266,148.9,96.5,0.541
16.62,32195.6,35472.5,0.8314,1.1647,148.9,96.5,0.541
16.64,32109.1,35167.7,0.4638,0.4131,148.9,96.5,0.541
16.66,31981.0,35088.5,-0.0805,0.218,148.9,96.5,0.541
16.68,32087.9,35054.6,0.3738,0.1342,148.9,96.5,0.541
16.7,32010.4,34980.9,0.0444,-0.0475,148.9,96.5,0.541
16.72,31872.6,34798.0,-0.5409,-0.4983,148.9,96.5,0.541
16.74,31902.1,34707.8,-0.4156,-0.7209,148.9,96.5,0.541
16.76,31908.8,34697.3,-0.3874,-0.7467,148.9,96.5,0.541
16.78,31843.4,34715.1,-0.6651,-0.7029,148.9,96.5,0.541
16.8,31843.1,34689.8,-0.6665,-0.7653,148.9,96.5,0.541
16.82,31871.1,34564.6,-0.5473,-1.0739,148.9,96.5,0.541
16.84,31695.6,34608.5,-1.2933,-0.9655,148.9,96.5,0.541
16.86,31734.3,34413.5,-1.1289,-1.4465,148.9,96.5,0.541
16.88,31712.1,34478.6,-1.2229,-1.2859,148.9,96.5,0.541
16.9,31790.8,34714.0,-0.8888,-0.7054,148.9,96.5,0.541
16.92,32042.7,34983.5,0.1817,-0.041,148.9,96.5,0.541
16.94,32179.0,35405.0,0.7608,0.9982,148.9,96.5,0.541
16.96,32310.4,35708.6,1.3196,1.7467,148.9,96.5,0.541
16.98,32416.0,35689.4,1.7681,1.6996,148.9,96.5,0.541
17.0,32258.5,35675.2,1.0989,1.6644,148.9,96.5,0.541
17.02,32243.9,35498.7,1.0366,1.2292,148.9,96.5,0.541
17.04,32156.2,35241.5,0.6641,0.595,148.9,96.5,0.541
17.06,32067.8,35168.3,0.2883,0.4147,148.9,96.5,0.541
17.08,32026.6,35207.4,0.1135,0.5111,148.9,96.5,0.541
17.1,32057.5,34976.3,0.2444,-0.0589,148.9,96.5,0.541
17.12,31952.9,35010.9,-0.1999,0.0265,148.9,96.5,0.541
17.14,31847.6,34784.5,-0.6473,-0.5317,148.9,96.5,0.541
17.16,31829.3,34683.1,-0.725,-0.7817,148.9,96.5,0.541
17.18,31860.6,34677.2,-0.592,-0.7961,148.9,96.5,0.541
17.2,31911.4,34724.0,-0.3763,-0.6808,148.9,96.5,0.541
17.22,31834.3,34581.5,-0.7039,-1.0321,148.9,96.5,0.541
17.24,31777.1,34591.4,-0.9467,-1.0077,148.9,96.5,0.541
17.26,31795.7,34428.1,-0.8678,-1.4105,148.9,96.5,0.541
17.28,31674.5,34423.0,-1.3828,-1.423,148.9,96.5,0.541
17.3,31699.9,34607.7,-1.2751,-0.9676,148.9,96.5,0.541
17.32,31975.9,35070.4,-0.1022,0.1734,148.9,96.5,0.541
17.34,32129.5,35219.8,0.5508,0.5416,148.9,96.5,0.541
17.36,32362.7,35664.8,1.5415,1.6389,148.9,96.5,0.541
17.38,32315.0,35743.1,1.3391,1.8319,148.9,96.5,0.541
17.4,32298.2,35660.9,1.2673,1.6293,148.9,96.5,0.541
17.42,32295.2,35533.7,1.2546,1.3156,148.9,96.5,0.541
17.44,32103.3,35317.3,0.4392,0.7821,148.9,96.5,0.541
17.46,32115.4,35107.4,0.4907,0.2646,148.9,96.5,0.541
17.48,31993.0,35207.6,-0.0293,0.5115,148.9,96.5,0.541
17.5,32080.9,34983.8,0.3441,-0.0403,148.9,96.5,0.541
17.52,32019.4,34951.5,0.0825,-0.1199,148.9,96.5,0.541
17.54,31948.6,34851.5,-0.2182,-0.3664,148.9,96.5,0.541
17.56,31811.9,34742.9,-0.7992,-0.6343,148.9,96.5,0.541
17.58,31954.0,34704.1,-0.1951,-0.7298,148.9,96.5,0.541
17.6,31863.1,34654.6,-0.5816,-0.852,148.9,96.5,0.541
17.62,31858.1,34702.5,-0.6026,-0.7337,148.9,96.5,0.541
17.64,31818.6,34505.8,-0.7706,-1.2187,148.9,96.5,0.541
17.66,31802.4,34477.5,-0.8396,-1.2887,148.9,96.5,0.541
17.68,31717.9,34454.5,-1.1986,-1.3454,148.9,96.5,0.541
17.7,31736.5,34543.9,-1.1196,-1.1248,148.9,96.5,0.541
17.72,31921.7,34910.3,-0.3323,-0.2214,148.9,96.5,0.541
17.74,32129.1,35249.1,0.5491,0.6138,148.9,96.5,0.541
17.76,32302.9,35671.2,1.2875,1.6546,148.9,96.5,0.541
17.78,32400.3,35806.3,1.7015,1.9876,148.9,96.5,0.541
17.8,32310.5,35662.4,1.3198,1.6329,148.9,96.5,0.541
17.82,32251.9,35463.3,1.0706,1.1421,148.9,96.5,0.541
17.84,32152.6,35259.8,0.6487,0.6403,148.9,96.5,0.541
17.86,32030.3,35206.9,0.1289,0.5098,148.9,96.5,0.541
17.88,31958.5,35073.9,-0.1761,0.182,148.9,96.5,0.541
17.9,31974.1,35104.4,-0.1098,0.2571,148.9,96.5,0.541
17.92,31985.3,35071.0,-0.0621,0.1746,148.9,96.5,0.541
17.94,31959.0,34851.4,-0.1741,-0.3668,148.9,96.5,0.541
17.96,31790.2,34726.6,-0.8914,-0.6744,148.9,96.5,0.541
17.98,31784.6,34672.0,-0.9152,-0.8091,148.9,96.5,0.541
18.0,31797.1,34661.6,-0.862,-0.8347,148.9,96.5,0.541
18.02,31844.4,34636.5,-0.6608,-0.8965,148.9,96.5,0.541
18.04,31798.7,34552.3,-0.8551,-1.1041,148.9,96.5,0.541
18.06,31839.7,34450.0,-0.6808,-1.3565,148.9,96.5,0.541
18.08,31669.2,34420.8,-1.4055,-1.4285,148.9,96.5,0.541
18.1,31809.1,34552.0,-0.8109,-1.105,148.9,96.5,0.541
18.12,31972.9,34849.4,-0.115,-0.3715,148.9,96.5,0.541
18.14,32170.5,35235.8,0.7247,0.5811,148.9,96.5,0.541
18.16,32276.0,35589.4,1.1733,1.4529,148.9,96.5,0.541
18.18,32451.2,35758.2,1.9178,1.8692,148.9,96.5,0.541
18.2,32449.6,35733.7,1.9109,1.8087,148.9,96.5,0.541
18.22,32283.1,35564.7,1.2032,1.3921,148.9,96.5,0.541
18.24,32194.2,35315.9,0.8255,0.7786,148.9,96.5,0.541
18.26,32152.6,35194.3,0.6487,0.4787,148.9,96.5,0.541
18.28,31975.2,35178.9,-0.105,0.4407,148.9,96.5,0.541
18.3,32009.1,35064.4,0.0391,0.1586,148.9,96.5,0.541
18.32,32026.7,35022.7,0.1137,0.0556,148.9,96.5,0.541
18.34,31894.2,34784.3,-0.4493,-0.5322,148.9,96.5,0.541
18.36,31876.5,34692.4,-0.5246,-0.7587,148.9,96.5,0.541
18.38,31851.2,34655.4,-0.6321,-0.85,148.9,96.5,0.541
18.4,31869.7,34707.5,-0.5534,-0.7215,148.9,96.5,0.541
18.42,31789.6,34690.3,-0.8938,-0.7638,148.9,96.5,0.541
18.44,31794.0,34481.0,-0.875,-1.28,148.9,96.5,0.541
18.46,31706.8,34463.3,-1.2456,-1.3235,148.9,96.5,0.541
18.48,31687.0,34397.9,-1.3296,-1.4849,148.9,96.5,0.541
18.5,31818.9,34512.3,-0.7694,-1.2028,148.9,96.5,0.541
18.52,31896.2,34791.8,-0.4408,-0.5136,148.9,96.5,0.541
18.54,32121.6,35093.2,0.5171,0.2294,148.9,96.5,0.541
18.56,32375.0,35494.8,1.5939,1.2196,148.9,96.5,0.541
18.58,32429.6,35677.8,1.8257,1.671,148.9,96.5,0.541
18.6,32368.5,35701.5,1.5663,1.7293,148.9,96.5,0.541
18.62,32266.8,35644.8,1.134,1.5895,148.9,96.5,0.541
18.64,32209.9,35435.2,0.8925,1.0728,148.9,96.5,0.541
18.66,32041.2,35211.8,0.1755,0.522,148.9,96.5,0.541
18.68,32171.5,35095.0,0.7289,0.2338,148.9,96.5,0.541
18.7,32087.7,35057.9,0.3728,0.1424,148.9,96.5,0.541
18.72,31964.4,35053.3,-0.1511,0.1311,148.9,96.5,0.541
18.74,31974.5,34910.9,-0.108,-0.22,148.9,96.5,0.541
18.76,31869.5,34752.4,-0.5544,-0.6107,148.9,96.5,0.541
18.78,31881.4,34741.0,-0.5035,-0.639,148.9,96.5,0.541
18.8,31842.0,34769.2,-0.671,-0.5693,148.9,96.5,0.541
18.82,31748.5,34585.3,-1.0683,-1.0229,148.9,96.5,0.541
18.84,31823.8,34600.1,-0.7484,-0.9864,148.9,96.5,0.541
18.86,31724.7,34541.2,-1.1696,-1.1315,148.9,96.5,0.541
18.88,31716.4,34509.8,-1.205,-1.209,148.9,96.5,0.541
18.9,31833.7,34549.5,-0.7063,-1.111,148.9,96.5,0.541
18.92,31830.3,34830.1,-0.7207,-0.4193,148.9,96.5,0.541
18.94,32076.2,35068.5,0.3242,0.1686,148.9,96.5,0.541
18.96,32276.4,35507.9,1.175,1.252,148.9,96.5,0.541
18.98,32391.0,35789.9,1.6618,1.9473,148.9,96.5,0.541
19.0,32442.7,35720.3,1.8816,1.7756,148.9,96.5,0.541
19.02,32154.1,35610.3,0.655,1.5044,148.9,96.5,0.541
19.04,32231.4,35427.9,0.9838,1.0547,148.9,96.5,0.541
19.06,32024.7,35252.5,0.1052,0.6222,148.9,96.5,0.541
19.08,32070.8,35020.6,0.301,0.0505,148.9,96.5,0.541
19.1,32035.7,35101.3,0.1519,0.2493,148.9,96.5,0.541
19.12,32014.3,35048.0,0.061,0.1179,148.9,96.5,0.541
19.14,31996.6,35004.0,-0.0142,0.0096,148.9,96.5,0.541
19.16,31931.1,34758.5,-0.2923,-0.5959,148.9,96.5,0.541
19.18,31922.8,34649.3,-0.3278,-0.865,148.9,96.5,0.541
19.2,31920.6,34727.6,-0.3369,-0.6719,148.9,96.5,0.541
19.22,31855.6,34614.5,-0.6134,-0.9508,148.9,96.5,0.541
19.24,31917.9,34611.5,-0.3486,-0.9581,148.9,96.5,0.541
19.26,31867.4,34558.2,-0.5632,-1.0897,148.9,96.5,0.541
19.28,31708.1,34396.9,-1.2401,-1.4872,148.9,96.5,0.541
19.3,31789.4,34529.7,-0.8947,-1.16,148.9,96.5,0.541
19.32,31742.7,34646.3,-1.0932,-0.8724,148.9,96.5,0.541
19.34,32134.5,35082.0,0.5717,0.2018,148.9,96.5,0.541
19.36,32243.1,35410.0,1.0335,1.0106,148.9,96.5,0.541
19.38,32252.9,35628.8,1.0752,1.5501,148.9,96.5,0.541
19.4,32469.6,35697.9,1.9957,1.7204,148.9,96.5,0.541
19.42,32306.5,35589.8,1.3026,1.454,148.9,96.5,0.541
19.44,32237.9,35444.8,1.0113,1.0963,148.9,96.5,0.541
19.46,32040.6,35208.0,0.1727,0.5126,148.9,96.5,0.541
19.48,32097.2,35198.5,0.4133,0.489,148.9,96.5,0.541
19.5,32068.8,35112.7,0.2926,0.2777,148.9,96.5,0.541
19.52,32112.3,34998.6,0.4773,-0.0037,148.9,96.5,0.541
19.54,31913.2,34924.3,-0.3684,-0.1869,148.9,96.5,0.541
19.56,31901.4,34795.5,-0.4188,-0.5046,148.9,96.5,0.541
19.58,31821.3,34605.0,-0.759,-0.9743,148.9,96.5,0.541
19.6,31870.6,34568.6,-0.5494,-1.0639,148.9,96.5,0.541
19.62,31818.3,34609.2,-0.7718,-0.9639,148.9,96.5,0.541
19.64,31804.4,34606.7,-0.8307,-0.9701,148.9,96.5,0.541
19.66,31809.5,34572.0,-0.8091,-1.0557,148.9,96.5,0.541
19.68,31721.6,34617.4,-1.1826,-0.9437,148.9,96.5,0.541
19.7,31808.3,34489.3,-0.8145,-1.2595,148.9,96.5,0.541
19.72,31742.2,34577.0,-1.095,-1.0433,148.9,96.5,0.541
19.74,32009.2,35075.0,0.0393,0.1846,148.9,96.5,0.541
19.76,32143.8,35360.2,0.6112,0.8877,148.9,96.5,0.541
19.78,32235.6,35665.6,1.0015,1.6408,148.9,96.5,0.541
19.8,32459.4,35737.1,1.9523,1.8172,148.9,96.5,0.541
19.82,32345.2,35709.4,1.4674,1.7487,148.9,96.5,0.541
19.84,32185.6,35439.9,0.7891,1.0842,148.9,96.5,0.541
19.86,32176.7,35255.8,0.7511,0.6304,148.9,96.5,0.541
19.88,32107.7,35087.6,0.4581,0.2157,148.9,96.5,0.541
19.9,32184.4,35083.7,0.784,0.2061,148.9,96.5,0.541
19.92,32045.7,35080.7,0.1946,0.1986,148.9,96.5,0.541
19.94,31949.9,34949.3,-0.2125,-0.1252,148.9,96.5,0.541
19.96,31894.9,34911.8,-0.4461,-0.2179,148.9,96.5,0.541
19.98,31891.0,34647.8,-0.4628,-0.8688,148.9,96.5,0.541
20.0,31878.5,34699.2,-0.5158,-0.7419,148.9,96.5,0.541
20.02,31877.2,34718.4,-0.5216,-0.6947,148.9,96.5,0.541
20.04,31822.5,34610.9,-0.7541,-0.9597,148.9,96.5,0.541
20.06,31800.2,34655.8,-0.8487,-0.849,148.9,96.5,0.541
20.08,31682.2,34571.5,-1.3504,-1.0568,148.9,96.5,0.541
20.1,31749.9,34357.4,-1.0626,-1.5847,148.9,96.5,0.541
20.12,31762.8,34623.2,-1.0076,-0.9294,148.9,96.5,0.541
20.14,31956.6,34980.1,-0.1841,-0.0495,148.9,96.5,0.541
20.16,32072.9,35351.2,0.3099,0.8657,148.9,96.5,0.541
20.18,32395.5,35662.4,1.6808,1.633,148.9,96.5,0.541
20.2,32386.9,35747.2,1.6443,1.842,148.9,96.5,0.541
20.22,32330.0,35755.6,1.4024,1.8626,148.9,96.5,0.541
20.24,32294.6,35394.5,1.2522,0.9725,148.9,96.5,0.541
20.26,32236.1,35283.0,1.0034,0.6975,148.9,96.5,0.541
20.28,32052.6,35143.7,0.2237,0.3541,148.9,96.5,0.541
20.3,32093.3,35155.8,0.3967,0.3837,148.9,96.5,0.541
20.32,31988.1,35040.7,-0.0504,0.1001,148.9,96.5,0.541
20.34,31944.5,34950.6,-0.2355,-0.1221,148.9,96.5,0.541
20.36,32006.0,34938.0,0.0256,-0.1533,148.9,96.5,0.541
20.38,31765.3,34806.9,-0.9972,-0.4764,148.9,96.5,0.541
20.4,31855.3,34656.2,-0.6146,-0.848,148.9,96.5,0.541
20.42,31729.3,34651.7,-1.1501,-0.8591,148.9,96.5,0.541
20.44,31854.2,34701.8,-0.6194,-0.7357,148.9,96.5,0.541
20.46,31807.8,34632.2,-0.8163,-0.9071,148.9,96.5,0.541
20.48,31696.3,34547.3,-1.2903,-1.1164,148.9,96.5,0.541
20.5,31676.0,34504.1,-1.3766,-1.223,148.9,96.5,0.541
20.52,31647.7,34594.2,-1.4967,-1.0009,148.9,96.5,0.541
20.54,31994.7,34901.3,-0.022,-0.2436,148.9,96.5,0.541
20.56,32137.7,35254.8,0.5856,0.6279,148.9,96.5,0.541
20.58,32284.4,35677.3,1.2088,1.6695,148.9,96.5,0.541
20.6,32412.2,35794.2,1.7517,1.9578,148.9,96.5,0.541
20.62,32416.8,35667.3,1.7716,1.6451,148.9,96.5,0.541
20.64,32389.2,35534.4,1.6541,1.3173,148.9,96.5,0.541
20.66,32153.8,35393.1,0.6541,0.9689,148.9,96.5,0.541
20.68,32119.0,35113.9,0.5058,0.2805,148.9,96.5,0.541
20.7,32071.7,35126.9,0.305,0.3125,148.9,96.5,0.541
20.72,32041.3,35068.8,0.1759,0.1694,148.9,96.5,0.541
20.74,32016.4,34923.5,0.07,-0.189,148.9,96.5,0.541
20.76,31878.3,34763.6,-0.5168,-0.5833,148.9,96.5,0.541
20.78,31838.8,34763.1,-0.6849,-0.5845,148.9,96.5,0.541
20.8,31885.1,34718.1,-0.488,-0.6953,148.9,96.5,0.541
20.82,31903.1,34698.0,-0.4116,-0.745,148.9,96.5,0.541
20.84,31865.4,34653.7,-0.5717,-0.8542,148.9,96.5,0.541
20.86,31785.8,34546.2,-0.9101,-1.1193,148.9,96.5,0.541
20.88,31714.6,34525.5,-1.2124,-1.1701,148.9,96.5,0.541
20.9,31697.4,34510.0,-1.2856,-1.2085,148.9,96.5,0.541
20.92,31710.5,34540.1,-1.2298,-1.1343,148.9,96.5,0.541
20.94,31937.0,34778.5,-0.2674,-0.5466,148.9,96.5,0.541
20.96,32080.5,35149.5,0.3425,0.3683,148.9,96.5,0.541
20.98,32255.5,35506.4,1.0862,1.2482,148.9,96.5,0.541
21.0,32335.7,35612.7,1.4268,1.5104,148.9,96.5,0.541
21.02,32338.7,35706.3,1.4397,1.7413,148.9,96.5,0.541
21.04,32285.0,35651.0,1.2114,1.6047,148.9,96.5,0.541
21.06,32183.4,35305.3,0.7797,0.7524,148.9,96.5,0.541
21.08,32168.9,35219.6,0.718,0.5412,148.9,96.5,0.541
21.1,32033.9,35050.2,0.1444,0.1235,148.9,96.5,0.541
21.12,31985.6,35024.0,-0.0609,0.0588,148.9,96.5,0.541
21.14,31868.9,34913.7,-0.5569,-0.2132,148.9,96.5,0.541
21.16,31961.3,34810.7,-0.1641,-0.4672,148.9,96.5,0.541
21.18,31898.5,34800.4,-0.431,-0.4925,148.9,96.5,0.541
21.2,31954.7,34703.8,-0.1922,-0.7305,148.9,96.5,0.541
21.22,31753.0,34736.2,-1.0493,-0.6508,148.9,96.5,0.541
21.24,31842.6,34668.1,-0.6686,-0.8187,148.9,96.5,0.541
21.26,31841.4,34587.8,-0.6735,-1.0166,148.9,96.5,0.541
21.28,31823.0,34563.3,-0.7518,-1.077,148.9,96.5,0.541
21.3,31699.5,34461.9,-1.2767,-1.3271,148.9,96.5,0.541
21.32,31708.8,34521.0,-1.2372,-1.1813,148.9,96.5,0.541
21.34,31796.7,34866.9,-0.8637,-0.3286,148.9,96.5,0.541
21.36,32013.5,35179.1,0.0576,0.4412,148.9,96.5,0.541
21.38,32234.6,35459.9,0.9973,1.1336,148.9,96.5,0.541
21.4,32346.7,35742.8,1.4737,1.831,148.9,96.5,0.541
21.42,32365.3,35659.0,1.5527,1.6246,148.9,96.5,0.541
21.44,32229.9,35559.4,0.9773,1.3789,148.9,96.5,0.541
21.46,32169.7,35425.2,0.7216,1.048,148.9,96.5,0.541
21.48,32171.5,35217.9,0.7291,0.537,148.9,96.5,0.541
21.5,32058.3,35095.3,0.2481,0.2346,148.9,96.5,0.541
21.52,32020.8,35149.9,0.0885,0.3692,148.9,96.5,0.541
21.54,31988.3,35110.1,-0.0495,0.2711,148.9,96.5,0.541
21.56,31956.0,34882.1,-0.1866,-0.291,148.9,96.5,0.541
21.58,31849.8,34821.6,-0.6379,-0.4402,148.9,96.5,0.541
21.6,31866.2,34700.5,-0.5681,-0.7387,148.9,96.5,0.541
21.62,31809.7,34686.6,-0.8083,-0.7729,148.9,96.5,0.541
21.64,31903.0,34624.3,-0.4118,-0.9266,148.9,96.5,0.541
21.66,31809.2,34618.8,-0.8107,-0.9403,148.9,96.5,0.541
21.68,31712.9,34533.5,-1.2199,-1.1504,148.9,96.5,0.541
21.7,31692.5,34517.7,-1.3063,-1.1895,148.9,96.5,0.541
21.72,31800.6,34478.6,-0.8469,-1.286,148.9,96.5,0.541
21.74,31804.9,34708.2,-0.8287,-0.7198,148.9,96.5,0.541
21.76,32041.3,35057.6,0.176,0.1418,148.9,96.5,0.541
21.78,32138.7,35335.9,0.5897,0.8278,148.9,96.5,0.541
21.8,32423.0,35696.7,1.798,1.7174,148.9,96.5,0.541
21.82,32361.8,35783.6,1.5376,1.9316,148.9,96.5,0.541
21.84,32246.3,35625.7,1.047,1.5425,148.9,96.5,0.541
21.86,32211.6,35385.2,0.8993,0.9494,148.9,96.5,0.541
21.88,32097.5,35287.5,0.4147,0.7086,148.9,96.5,0.541
21.9,32118.0,35107.4,0.5016,0.2644,148.9,96.5,0.541
21.92,31984.6,35208.0,-0.0653,0.5125,148.9,96.5,0.541
21.94,31949.8,34952.8,-0.2132,-0.1168,148.9,96.5,0.541
21.96,31936.1,34897.7,-0.271,-0.2525,148.9,96.5,0.541
21.98,31889.1,34802.0,-0.4708,-0.4885,148.9,96.5,0.541
22.0,31782.1,34767.7,-0.9256,-0.5731,148.9,96.5,0.541
22.02,31870.9,34660.5,-0.5484,-0.8374,148.9,96.5,0.541
22.04,31814.9,34679.3,-0.7861,-0.7912,148.9,96.5,0.541
22.06,31870.2,34559.4,-0.5512,-1.0868,148.9,96.5,0.541
22.08,31828.9,34610.3,-0.7268,-0.9611,148.9,96.5,0.541
22.1,31688.5,34432.6,-1.3233,-1.3993,148.9,96.5,0.541
22.12,31670.2,34440.8,-1.4011,-1.379,148.9,96.5,0.541
22.14,31827.1,34718.0,-0.7343,-0.6955,148.9,96.5,0.541
22.16,32015.2,35058.5,0.065,0.144,148.9,96.5,0.541
22.18,32199.1,35520.9,0.8465,1.284,148.9,96.5,0.541
22.2,32343.6,35607.4,1.4604,1.4972,148.9,96.5,0.541
22.22,32446.2,35830.6,1.8963,2.0476,148.9,96.5,0.541
22.24,32336.6,35607.2,1.4305,1.4968,148.9,96.5,0.541
22.26,32297.7,35444.8,1.2654,1.0964,148.9,96.5,0.541
22.28,32183.7,35315.6,0.7811,0.7778,148.9,96.5,0.541
22.3,32124.7,35242.6,0.5304,0.598,148.9,96.5,0.541
22.32,32075.9,35087.9,0.323,0.2165,148.9,96.5,0.541
22.34,32077.8,35014.9,0.331,0.0365,148.9,96.5,0.541
22.36,31911.9,35021.7,-0.3742,0.0531,148.9,96.5,0.541
22.38,31873.9,34863.9,-0.5357,-0.3359,148.9,96.5,0.541
22.4,31761.5,34727.7,-1.013,-0.6718,148.9,96.5,0.541
22.42,31882.7,34666.6,-0.4983,-0.8223,148.9,96.5,0.541
22.44,31827.0,34685.3,-0.7348,-0.7762,148.9,96.5,0.541
22.46,31818.4,34649.6,-0.7713,-0.8642,148.9,96.5,0.541
22.48,31729.2,34548.0,-1.1504,-1.1149,148.9,96.5,0.541
22.5,31758.6,34464.0,-1.0255,-1.3218,148.9,96.5,0.541
22.52,31721.1,34483.0,-1.185,-1.2751,148.9,96.5,0.541
22.54,31791.4,34666.9,-0.8862,-0.8217,148.9,96.5,0.541
22.56,32046.0,35026.7,0.1958,0.0655,148.9,96.5,0.541
22.58,32167.2,35329.6,0.711,0.8124,148.9,96.5,0.541
22.6,32303.2,35645.7,1.2886,1.5917,148.9,96.5,0.541
22.62,32337.5,35731.7,1.4345,1.8038,148.9,96.5,0.541
22.64,32247.8,35567.8,1.0535,1.3996,148.9,96.5,0.541
22.66,32249.0,35471.6,1.0586,1.1624,148.9,96.5,0.541
22.68,32178.2,35287.4,0.7577,0.7083,148.9,96.5,0.541
22.7,32158.9,35078.2,0.6754,0.1926,148.9,96.5,0.541
22.72,32014.0,34962.0,0.0596,-0.094,148.9,96.5,0.541
22.74,32097.1,34997.5,0.4128,-0.0066,148.9,96.5,0.541
22.76,31969.6,34974.8,-0.1288,-0.0623,148.9,96.5,0.541
22.78,31842.6,34759.9,-0.6685,-0.5922,148.9,96.5,0.541
22.8,31977.4,34656.6,-0.0959,-0.847,148.9,96.5,0.541
22.82,31910.0,34648.3,-0.3822,-0.8674,148.9,96.5,0.541
22.84,31749.9,34654.0,-1.0625,-0.8534,148.9,96.5,0.541
22.86,31787.0,34647.5,-0.9049,-0.8695,148.9,96.5,0.541
22.88,31746.5,34546.4,-1.0767,-1.1187,148.9,96.5,0.541
22.9,31750.1,34466.4,-1.0615,-1.316,148.9,96.5,0.541
22.92,31737.7,34459.5,-1.1144,-1.3329,148.9,96.5,0.541
22.94,31881.8,34677.3,-0.502,-0.796,148.9,96.5,0.541
22.96,31971.0,34951.8,-0.1231,-0.1193,148.9,96.5,0.541
22.98,32277.8,35335.5,1.1808,0.8268,148.9,96.5,0.541
23.0,32282.2,35688.7,1.1995,1.6977,148.9,96.5,0.541
23.02,32367.9,35695.8,1.5639,1.7153,148.9,96.5,0.541
23.04,32291.0,35673.6,1.2369,1.6606,148.9,96.5,0.541
23.06,32308.8,35437.0,1.3124,1.077,148.9,96.5,0.541
23.08,32187.0,35281.8,0.7951,0.6945,148.9,96.5,0.541
23.1,32078.0,35138.6,0.332,0.3415,148.9,96.5,0.541
23.12,32056.5,35077.8,0.2404,0.1915,148.9,96.5,0.541
23.14,31988.9,35043.8,-0.0469,0.1077,148.9,96.5,0.541
23.16,32007.5,34956.2,0.0323,-0.1083,148.9,96.5,0.541
23.18,31959.7,34825.8,-0.1709,-0.4298,148.9,96.5,0.541
23.2,31852.2,34644.0,-0.6278,-0.8781,148.9,96.5,0.541
23.22,31785.3,34737.6,-0.9123,-0.6474,148.9,96.5,0.541
23.24,31903.9,34689.3,-0.4081,-0.7664,148.9,96.5,0.541
23.26,31776.0,34668.2,-0.9514,-0.8183,148.9,96.5,0.541
23.28,31831.6,34696.3,-0.7154,-0.749,148.9,96.5,0.541
23.3,31808.2,34489.5,-0.8146,-1.2591,148.9,96.5,0.541
23.32,31786.4,34455.7,-0.9076,-1.3424,148.9,96.5,0.541
23.34,31779.6,34537.2,-0.9364,-1.1413,148.9,96.5,0.541
23.36,31925.0,34913.0,-0.3185,-0.2149,148.9,96.5,0.541
23.38,32054.9,35182.3,0.2334,0.4492,148.9,96.5,0.541
23.4,32286.6,35552.6,1.2181,1.3621,148.9,96.5,0.541
23.42,32413.7,35652.9,1.7584,1.6096,148.9,96.5,0.541
23.44,32280.6,35752.7,1.1929,1.8556,148.9,96.5,0.541
23.46,32220.5,35567.6,0.9374,1.3992,148.9,96.5,0.541
23.48,32213.0,35340.8,0.9053,0.8399,148.9,96.5,0.541
23.5,32079.0,35141.0,0.3362,0.3473,148.9,96.5,0.541
23.52,32073.1,35142.4,0.3111,0.3508,148.9,96.5,0.541
23.54,31983.4,35036.8,-0.0701,0.0903,148.9,96.5,0.541
23.56,32026.2,34950.3,0.1116,-0.1228,148.9,96.5,0.541
23.58,31906.1,34801.1,-0.3986,-0.4908,148.9,96.5,0.541
23.6,31882.8,34739.5,-0.4977,-0.6426,148.9,96.5,0.541
23.62,31860.6,34726.1,-0.5921,-0.6755,148.9,96.5,0.541
23.64,31763.9,34600.6,-1.0029,-0.9852,148.9,96.5,0.541
23.66,31803.4,34685.4,-0.835,-0.776,148.9,96.5,0.541
23.68,31903.3,34574.8,-0.4105,-1.0488,148.9,96.5,0.541
23.7,31679.9,34415.7,-1.36,-1.441,148.9,96.5,0.541
23.72,31712.2,34423.5,-1.2226,-1.4219,148.9,96.5,0.541
23.74,31782.2,34533.5,-0.9251,-1.1506,148.9,96.5,0.541
23.76,31903.2,34821.9,-0.411,-0.4394,148.9,96.5,0.541
23.78,32134.5,35083.6,0.5721,0.2057,148.9,96.5,0.541
23.8,32261.9,35525.3,1.1132,1.2948,148.9,96.5,0.541
23.82,32330.7,35612.6,1.4057,1.5101,148.9,96.5,0.541
23.84,32316.4,35646.2,1.3446,1.5931,148.9,96.5,0.541
23.86,32140.9,35648.4,0.5988,1.5984,148.9,96.5,0.541
23.88,32151.8,35458.5,0.6453,1.1302,148.9,96.5,0.541
23.9,32157.0,35196.8,0.6676,0.485,148.9,96.5,0.541
23.92,32065.2,35111.4,0.2774,0.2743,148.9,96.5,0.541
23.94,31988.9,34990.7,-0.0468,-0.0233,148.9,96.5,0.541
23.96,31990.7,35021.3,-0.0392,0.0521,148.9,96.5,0.541
23.98,32028.4,34900.5,0.1209,-0.2458,148.9,96.5,0.541
24.0,31882.1,34722.2,-0.5006,-0.6853,148.9,96.5,0.541
24.02,31811.4,34688.8,-0.8013,-0.7677,148.9,96.5,0.541
24.04,31782.4,34649.5,-0.9243,-0.8644,148.9,96.5,0.541
24.06,31829.4,34661.9,-0.7246,-0.8338,148.9,96.5,0.541
24.08,31827.4,34588.8,-0.7331,-1.0141,148.9,96.5,0.541
24.1,31666.4,34522.8,-1.4174,-1.177,148.9,96.5,0.541
24.12,31756.7,34435.8,-1.0335,-1.3915,148.9,96.5,0.541
24.14,31668.8,34521.8,-1.4072,-1.1794,148.9,96.5,0.541
24.16,31855.8,34752.3,-0.6125,-0.6111,148.9,96.5,0.541
24.18,32075.5,35053.8,0.321,0.1322,148.9,96.5,0.541
24.2,32274.1,35549.8,1.1651,1.3552,148.9,96.5,0.541
24.22,32410.2,35727.0,1.7434,1.7921,148.9,96.5,0.541
24.24,32314.9,35694.5,1.3383,1.7122,148.9,96.5,0.541
24.26,32216.3,35613.7,0.9193,1.5128,148.9,96.5,0.541
24.28,32255.2,35442.4,1.0847,1.0906,148.9,96.5,0.541
24.3,32098.3,35249.0,0.4182,0.6135,148.9,96.5,0.541
24.32,32185.3,35127.9,0.7876,0.315,148.9,96.5,0.541
24.34,32045.4,35048.8,0.1934,0.1201,148.9,96.5,0.541
24.36,32070.2,34997.3,0.2988,-0.0069,148.9,96.5,0.541
24.38,31913.7,34941.1,-0.3665,-0.1456,148.9,96.5,0.541
24.4,31901.6,34784.4,-0.4179,-0.532,148.9,96.5,0.541
24.42,31838.7,34656.4,-0.6852,-0.8475,148.9,96.5,0.541
24.44,31730.4,34654.5,-1.1452,-0.8523,148.9,96.5,0.541
24.46,31849.5,34637.3,-0.6393,-0.8947,148.9,96.5,0.541
24.48,31819.6,34665.9,-0.7661,-0.8242,148.9,96.5,0.541
24.5,31805.4,34581.7,-0.8266,-1.0317,148.9,96.5,0.541
24.52,31802.6,34437.9,-0.8386,-1.3863,148.9,96.5,0.541
24.54,31742.5,34617.6,-1.094,-0.9431,148.9,96.5,0.541
24.56,31871.0,34769.0,-0.5479,-0.57,148.9,96.5,0.541
24.58,31916.6,34997.4,-0.3539,-0.0067,148.9,96.5,0.541
24.6,32183.4,35471.9,0.7798,1.1631,148.9,96.5,0.541
24.62,32293.9,35632.8,1.2492,1.5601,148.9,96.5,0.541
24.64,32347.1,35691.9,1.4754,1.7056,148.9,96.5,0.541
24.66,32310.0,35602.5,1.3176,1.4852,148.9,96.5,0.541
24.68,32248.7,35466.9,1.0572,1.1508,148.9,96.5,0.541
24.7,32139.3,35179.1,0.5923,0.4412,148.9,96.5,0.541
24.72,32045.2,35125.9,0.1925,0.3102,148.9,96.5,0.541
24.74,32046.2,35047.5,0.1966,0.1169,148.9,96.5,0.541
24.76,31978.8,34984.6,-0.0897,-0.0383,148.9,96.5,0.541
24.78,31942.4,34893.4,-0.2443,-0.2633,148.9,96.5,0.541
24.8,31906.3,34851.0,-0.398,-0.3678,148.9,96.5,0.541
24.82,31911.5,34669.8,-0.3757,-0.8145,148.9,96.5,0.541
24.84,31819.5,34605.8,-0.7666,-0.9724,148.9,96.5,0.541
24.86,31797.4,34591.6,-0.8609,-1.0073,148.9,96.5,0.541
24.88,31780.8,34668.4,-0.9311,-0.818,148.9,96.5,0.541
24.9,31794.6,34553.6,-0.8724,-1.101,148.9,96.5,0.541
24.92,31577.5,34408.3,-1.795,-1.4593,148.9,96.5,0.541
24.94,31759.8,34472.0,-1.0203,-1.3022,148.9,96.5,0.541
24.96,31639.5,34648.9,-1.5319,-0.8661,148.9,96.5,0.541
24.98,31994.5,34981.3,-0.0233,-0.0464,148.9,96.5,0.541
25.0,32112.4,35257.9,0.4781,0.6356,148.9,96.5,0.541
25.02,32331.4,35764.5,1.4084,1.8847,148.9,96.5,0.541
25.04,32484.3,35731.6,2.0585,1.8035,148.9,96.5,0.541
25.06,32381.8,35700.2,1.6227,1.7261,148.9,96.5,0.541
25.08,32170.6,35436.1,0.7251,1.075,148.9,96.5,0.541
25.1,32157.5,35292.1,0.6696,0.7199,148.9,96.5,0.541
25.12,32082.1,35183.3,0.3494,0.4516,148.9,96.5,0.541
25.14,31993.7,35085.7,-0.0267,0.211,148.9,96.5,0.541
25.16,32032.5,35048.8,0.1385,0.12,148.9,96.5,0.541
25.18,31861.2,34987.2,-0.5897,-0.0319,148.9,96.5,0.541
25.2,32004.4,34824.8,0.0189,-0.4324,148.9,96.5,0.541
25.22,31819.6,34758.1,-0.7665,-0.5968,148.9,96.5,0.541
25.24,31794.5,34676.9,-0.873,-0.797,148.9,96.5,0.541
25.26,31812.6,34649.8,-0.7962,-0.8639,148.9,96.5,0.541
25.28,31829.9,34626.5,-0.7224,-0.9213,148.9,96.5,0.541
25.3,31663.9,34636.6,-1.4278,-0.8962,148.9,96.5,0.541
25.32,31744.5,34494.6,-1.0856,-1.2465,148.9,96.5,0.541
25.34,31739.7,34563.4,-1.106,-1.0767,148.9,96.5,0.541
25.36,31710.5,34630.3,-1.2301,-0.9118,148.9,96.5,0.541
25.38,32011.5,34942.6,0.0493,-0.1418,148.9,96.5,0.541
25.4,32080.9,35339.6,0.344,0.837,148.9,96.5,0.541
25.42,32354.3,35716.8,1.5057,1.767,148.9,96.5,0.541
25.44,32266.3,35752.1,1.1318,1.8541,148.9,96.5,0.541
25.46,32308.3,35643.3,1.3105,1.5859,148.9,96.5,0.541
25.48,32168.5,35486.8,0.7164,1.2,148.9,96.5,0.541
25.5,32128.3,35366.4,0.5457,0.9031,148.9,96.5,0.541
25.52,32016.4,35197.5,0.07,0.4868,148.9,96.5,0.541
25.54,32011.0,35117.1,0.047,0.2883,148.9,96.5,0.541
25.56,32100.4,35093.6,0.4271,0.2304,148.9,96.5,0.541
25.58,31929.1,34980.4,-0.3008,-0.0487,148.9,96.5,0.541
25.6,32016.3,34884.4,0.0695,-0.2853,148.9,96.5,0.541
25.62,31956.4,34694.8,-0.185,-0.7529,148.9,96.5,0.541
25.64,31955.8,34719.8,-0.1877,-0.6912,148.9,96.5,0.541
25.66,31842.8,34651.7,-0.6679,-0.8592,148.9,96.5,0.541
25.68,31855.7,34576.2,-0.613,-1.0453,148.9,96.5,0.541
25.7,31817.9,34571.1,-0.7736,-1.0579,148.9,96.5,0.541
25.72,31692.0,34544.2,-1.3086,-1.1241,148.9,96.5,0.541
25.74,31732.9,34447.6,-1.1348,-1.3624,148.9,96.5,0.541
25.76,31845.4,34627.7,-0.6565,-0.9184,148.9,96.5,0.541
25.78,31975.3,34919.2,-0.1045,-0.1996,148.9,96.5,0.541
25.8,32126.0,35358.3,0.5355,0.8831,148.9,96.5,0.541
25.82,32332.2,35590.2,1.4119,1.4549,148.9,96.5,0.541
25.84,32394.5,35730.4,1.6767,1.8007,148.9,96.5,0.541
25.86,32355.4,35781.0,1.5105,1.9253,148.9,96.5,0.541
25.88,32293.1,35485.5,1.2459,1.1968,148.9,96.5,0.541
25.9,32146.3,35250.6,0.622,0.6176,148.9,96.5,0.541
25.92,32106.2,35192.0,0.4515,0.473,148.9,96.5,0.541
25.94,32005.0,35133.5,0.0217,0.3288,148.9,96.5,0.541
25.96,32021.6,35122.1,0.092,0.3008,148.9,96.5,0.541
25.98,32000.7,35021.7,0.0032,0.0532,148.9,96.5,0.541
26.0,31860.7,34797.2,-0.5917,-0.5002,148.9,96.5,0.541
26.02,31823.2,34759.7,-0.751,-0.5929,148.9,96.5,0.541
26.04,31852.8,34740.2,-0.6252,-0.6409,148.9,96.5,0.541
26.06,31786.6,34673.4,-0.9066,-0.8056,148.9,96.5,0.541
26.08,31866.3,34641.6,-0.5679,-0.884,148.9,96.5,0.541
26.1,31824.5,34577.1,-0.7457,-1.0431,148.9,96.5,0.541
26.12,31795.2,34468.3,-0.87,-1.3112,148.9,96.5,0.541
26.14,31669.9,34503.2,-1.4025,-1.2252,148.9,96.5,0.541
26.16,31770.6,34480.1,-0.9745,-1.2822,148.9,96.5,0.541
26.18,31881.7,34905.4,-0.5023,-0.2336,148.9,96.5,0.541
26.2,32091.5,35268.8,0.3892,0.6624,148.9,96.5,0.541
26.22,32322.5,35578.8,1.3706,1.4268,148.9,96.5,0.541
26.24,32328.6,35790.5,1.3966,1.9487,148.9,96.5,0.541
26.26,32303.1,35720.8,1.2882,1.7769,148.9,96.5,0.541
26.28,32332.1,35567.5,1.4115,1.399,148.9,96.5,0.541
26.3,32173.1,35377.9,0.736,0.9315,148.9,96.5,0.541
26.32,32103.9,35227.5,0.4418,0.5605,148.9,96.5,0.541
26.34,32064.9,35073.8,0.2761,0.1817,148.9,96.5,0.541
26.36,32032.7,34973.4,0.1393,-0.0659,148.9,96.5,0.541
26.38,32026.4,35017.4,0.1125,0.0427,148.9,96.5,0.541
26.4,31864.4,34798.4,-0.576,-0.4975,148.9,96.5,0.541
26.42,31896.0,34874.9,-0.4417,-0.3088,148.9,96.5,0.541
26.44,31829.2,34759.7,-0.7255,-0.5927,148.9,96.5,0.541
26.46,31862.5,34715.9,-0.5838,-0.7007,148.9,96.5,0.541
26.48,31874.7,34634.1,-0.532,-0.9025,148.9,96.5,0.541
26.5,31738.5,34568.4,-1.1109,-1.0644,148.9,96.5,0.541
26.52,31747.6,34519.0,-1.0725,-1.1862,148.9,96.5,0.541
26.54,31659.0,34507.1,-1.4486,-1.2156,148.9,96.5,0.541
26.56,31616.6,34573.0,-1.629,-1.0533,148.9,96.5,0.541
26.58,31929.3,34655.5,-0.3002,-0.8498,148.9,96.5,0.541
26.6,32083.3,35091.1,0.3543,0.2242,148.9,96.5,0.541
26.62,32305.6,35522.3,1.299,1.2875,148.9,96.5,0.541
26.64,32400.2,35654.3,1.7009,1.6128,148.9,96.5,0.541
26.66,32357.2,35769.4,1.518,1.8967,148.9,96.5,0.541
26.68,32312.4,35520.2,1.3278,1.2822,148.9,96.5,0.541
26.7,32176.7,35317.5,0.7511,0.7825,148.9,96.5,0.541
26.72,32092.0,35247.7,0.3912,0.6104,148.9,96.5,0.541
26.74,32087.8,35146.6,0.3733,0.3613,148.9,96.5,0.541
26.76,31976.5,35058.0,-0.0995,0.1427,148.9,96.5,0.541
26.78,32006.8,34973.5,0.0291,-0.0656,148.9,96.5,0.541
26.8,31950.1,34899.1,-0.2119,-0.2491,148.9,96.5,0.541
26.82,31902.5,34757.0,-0.414,-0.5994,148.9,96.5,0.541
26.84,31914.1,34660.1,-0.3649,-0.8385,148.9,96.5,0.541
26.86,31897.5,34732.1,-0.4351,-0.661,148.9,96.5,0.541
26.88,31829.7,34584.3,-0.7234,-1.0253,148.9,96.5,0.541
26.9,31816.1,34648.5,-0.7811,-0.867,148.9,96.5,0.541
26.92,31682.7,34528.8,-1.3479,-1.1622,148.9,96.5,0.541
26.94,31716.1,34431.1,-1.2063,-1.4029,148.9,96.5,0.541
26.96,31712.8,34545.4,-1.2201,-1.1212,148.9,96.5,0.541
26.98,31857.4,34666.6,-0.6056,-0.8223,148.9,96.5,0.541
27.0,32028.1,35130.1,0.1198,0.3204,148.9,96.5,0.541
27.02,32187.3,35455.3,0.7961,1.1222,148.9,96.5,0.541
27.04,32288.9,35667.8,1.228,1.6462,148.9,96.5,0.541
27.06,32272.5,35750.1,1.1583,1.8491,148.9,96.5,0.541
27.08,32282.2,35622.9,1.1993,1.5354,148.9,96.5,0.541
27.1,32209.8,35432.7,0.8917,1.0665,148.9,96.5,0.541
27.12,32122.3,35249.5,0.5199,0.6148,148.9,96.5,0.541
27.14,31992.1,35224.0,-0.0334,0.5519,148.9,96.5,0.541
27.16,32070.9,35069.1,0.3016,0.17,148.9,96.5,0.541
27.18,32031.3,34992.6,0.1334,-0.0185,148.9,96.5,0.541
27.2,31956.4,35000.8,-0.1849,0.0017,148.9,96.5,0.541
27.22,31903.4,34733.9,-0.41,-0.6565,148.9,96.5,0.541
27.24,31803.0,34680.3,-0.837,-0.7886,148.9,96.5,0.541
27.26,31792.5,34671.5,-0.8817,-0.8103,148.9,96.5,0.541
27.28,31856.8,34629.7,-0.6081,-0.9134,148.9,96.5,0.541
27.3,31816.7,34616.5,-0.7784,-0.946,148.9,96.5,0.541
27.32,31759.5,34563.0,-1.0217,-1.0779,148.9,96.5,0.541
27.34,31754.3,34414.2,-1.0438,-1.4446,148.9,96.5,0.541
27.36,31694.4,34470.7,-1.2983,-1.3054,148.9,96.5,0.541
27.38,31856.1,34703.1,-0.6114,-0.7325,148.9,96.5,0.541
27.4,31930.0,35052.4,-0.297,0.1289,148.9,96.5,0.541
27.42,32106.1,35513.3,0.451,1.2653,148.9,96.5,0.541
27.44,32333.4,35715.1,1.4171,1.7629,148.9,96.5,0.541
27.46,32445.7,35850.4,1.8942,2.0964,148.9,96.5,0.541
27.48,32314.2,35629.1,1.3354,1.5509,148.9,96.5,0.541
27.5,32256.7,35347.0,1.0911,0.8553,148.9,96.5,0.541
27.52,32060.2,35252.0,0.2563,0.6211,148.9,96.5,0.541
27.54,32061.9,35126.8,0.2633,0.3122,148.9,96.5,0.541
27.56,32057.3,35085.5,0.2438,0.2104,148.9,96.5,0.541
27.58,32092.8,34984.6,0.3946,-0.0384,148.9,96.5,0.541
27.6,31873.0,34897.2,-0.5394,-0.2538,148.9,96.5,0.541
27.62,31906.9,34912.5,-0.3953,-0.2162,148.9,96.5,0.541
27.64,31862.4,34692.8,-0.5842,-0.7578,148.9,96.5,0.541
27.66,31840.1,34694.3,-0.6792,-0.7541,148.9,96.5,0.541
27.68,31826.6,34658.0,-0.7367,-0.8436,148.9,96.5,0.541
27.7,31854.0,34673.4,-0.62,-0.8056,148.9,96.5,0.541
27.72,31841.7,34512.2,-0.6726,-1.203,148.9,96.5,0.541
27.74,31711.2,34390.8,-1.2268,-1.5025,148.9,96.5,0.541
27.76,31708.7,34527.4,-1.2375,-1.1655,148.9,96.5,0.541
27.78,31825.8,34661.8,-0.7399,-0.8342,148.9,96.5,0.541
27.8,31917.0,34870.3,-0.3526,-0.3202,148.9,96.5,0.541
27.82,32206.8,35394.7,0.8791,0.9728,148.9,96.5,0.541
27.84,32361.3,35595.1,1.5355,1.467,148.9,96.5,0.541
27.86,32464.1,35738.8,1.9727,1.8212,148.9,96.5,0.541
27.88,32304.3,35725.2,1.2935,1.7879,148.9,96.5,0.541
27.9,32215.7,35427.6,0.9168,1.054,148.9,96.5,0.541
27.92,32184.7,35196.4,0.7851,0.4839,148.9,96.5,0.541
27.94,32085.0,35209.3,0.3614,0.5156,148.9,96.5,0.541
27.96,32056.0,35028.2,0.2381,0.0691,148.9,96.5,0.541
27.98,31960.1,35072.2,-0.1695,0.1778,148.9,96.5,0.541
28.0,32011.9,35064.2,0.0507,0.1579,148.9,96.5,0.541
28.02,31871.0,34833.4,-0.5479,-0.4111,148.9,96.5,0.541
28.04,31839.5,34730.7,-0.6816,-0.6643,148.9,96.5,0.541
28.06,31800.0,34654.3,-0.8496,-0.8526,148.9,96.5,0.541
28.08,31856.0,34643.1,-0.6116,-0.8803,148.9,96.5,0.541
28.1,31788.7,34592.7,-0.8978,-1.0046,148.9,96.5,0.541
28.12,31803.6,34635.8,-0.8342,-0.8983,148.9,96.5,0.541
28.14,31812.9,34431.8,-0.7948,-1.4013,148.9,96.5,0.541
28.16,31686.7,34465.0,-1.3311,-1.3194,148.9,96.5,0.541
28.18,31745.5,34675.0,-1.081,-0.8017,148.9,96.5,0.541
28.2,31959.1,34872.1,-0.1736,-0.3158,148.9,96.5,0.541
28.22,32216.4,35333.3,0.92,0.8214,148.9,96.5,0.541
28.24,32252.7,35622.0,1.0741,1.5333,148.9,96.5,0.541
28.26,32352.5,35743.8,1.4981,1.8337,148.9,96.5,0.541
28.28,32398.3,35721.2,1.6927,1.7778,148.9,96.5,0.541
28.3,32197.1,35540.3,0.8379,1.3318,148.9,96.5,0.541
28.32,32255.9,35342.8,1.0876,0.8448,148.9,96.5,0.541
28.34,32022.0,35203.9,0.0939,0.5024,148.9,96.5,0.541
28.36,32088.7,35098.8,0.377,0.2433,148.9,96.5,0.541
28.38,31995.8,35068.2,-0.0176,0.1679,148.9,96.5,0.541
28.4,32008.2,35035.1,0.035,0.0862,148.9,96.5,0.541
28.42,31915.4,34819.4,-0.3592,-0.4455,148.9,96.5,0.541
28.44,31900.9,34708.4,-0.4209,-0.7193,148.9,96.5,0.541
28.46,31870.7,34585.3,-0.5493,-1.0227,148.9,96.5,0.541
28.48,31808.6,34648.9,-0.8129,-0.866,148.9,96.5,0.541
28.5,31823.3,34668.9,-0.7506,-0.8167,148.9,96.5,0.541
28.52,31837.5,34568.0,-0.6904,-1.0656,148.9,96.5,0.541
28.54,31736.6,34504.8,-1.1191,-1.2212,148.9,96.5,0.541
28.56,31759.1,34467.4,-1.0232,-1.3136,148.9,96.5,0.541
28.58,31774.1,34528.6,-0.9595,-1.1627,148.9,96.5,0.541
28.6,31896.5,34848.9,-0.4394,-0.3729,148.9,96.5,0.541
28.62,32042.2,35188.6,0.1798,0.4647,148.9,96.5,0.541
28.64,32307.5,35595.2,1.3071,1.4671,148.9,96.5,0.541
28.66,32390.7,35828.7,1.6608,2.043,148.9,96.5,0.541
28.68,32407.6,35655.0,1.7323,1.6147,148.9,96.5,0.541
28.7,32250.5,35608.4,1.0648,1.4998,148.9,96.5,0.541
28.72,32188.7,35304.2,0.802,0.7497,148.9,96.5,0.541
28.74,32120.0,35221.2,0.51,0.545,148.9,96.5,0.541
28.76,31989.2,35011.4,-0.0458,0.0278,148.9,96.5,0.541
28.78,31997.0,35120.7,-0.0126,0.2972,148.9,96.5,0.541
28.8,31952.7,35031.6,-0.2006,0.0775,148.9,96.5,0.541
28.82,32057.7,34818.0,0.2453,-0.449,148.9,96.5,0.541
28.84,31862.1,34853.1,-0.5858,-0.3624,148.9,96.5,0.541
28.86,31861.1,34709.6,-0.5898,-0.7163,148.9,96.5,0.541
28.88,31875.2,34691.5,-0.5302,-0.7609,148.9,96.5,0.541
28.9,31769.7,34593.3,-0.9782,-1.0031,148.9,96.5,0.541
28.92,31764.2,34562.3,-1.0019,-1.0796,148.9,96.5,0.541
28.94,31706.0,34570.5,-1.2492,-1.0592,148.9,96.5,0.541
28.96,31801.8,34519.8,-0.8421,-1.1844,148.9,96.5,0.541
28.98,31772.7,34489.9,-0.9656,-1.2579,148.9,96.5,0.541
29.0,31877.8,34775.6,-0.519,-0.5535,148.9,96.5,0.541
29.02,32037.1,35160.7,0.1578,0.3959,148.9,96.5,0.541
29.04,32339.9,35572.7,1.4445,1.4119,148.9,96.5,0.541
29.06,32478.0,35756.2,2.0315,1.8642,148.9,96.5,0.541
29.08,32446.5,35724.7,1.8979,1.7866,148.9,96.5,0.541
29.1,32319.9,35500.6,1.3599,1.2339,148.9,96.5,0.541
29.12,32205.4,35415.5,0.8731,1.0242,148.9,96.5,0.541
29.14,32139.0,35270.6,0.5911,0.6669,148.9,96.5,0.541
29.16,32042.8,35130.7,0.1823,0.322,148.9,96.5,0.541
29.18,32055.4,35074.7,0.2359,0.1839,148.9,96.5,0.541
29.2,32062.8,35042.2,0.267,0.1036,148.9,96.5,0.541
29.22,31909.5,34872.2,-0.3841,-0.3154,148.9,96.5,0.541
29.24,31821.3,34788.4,-0.7589,-0.5222,148.9,96.5,0.541
29.26,31921.1,34692.1,-0.3348,-0.7594,148.9,96.5,0.541
29.28,31886.7,34683.3,-0.4812,-0.7813,148.9,96.5,0.541
29.3,31781.1,34662.4,-0.93,-0.8326,148.9,96.5,0.541
29.32,31842.2,34613.3,-0.6702,-0.9539,148.9,96.5,0.541
29.34,31692.6,34472.9,-1.3061,-1.3,148.9,96.5,0.541
29.36,31697.1,34593.1,-1.2869,-1.0035,148.9,96.5,0.541
29.38,31794.9,34550.7,-0.8713,-1.1081,148.9,96.5,0.541
29.4,31893.5,34772.4,-0.4521,-0.5615,148.9,96.5,0.541
29.42,32015.4,35081.1,0.0657,0.1997,148.9,96.5,0.541
29.44,32167.0,35374.5,0.71,0.9231,148.9,96.5,0.541
29.46,32336.1,35741.8,1.4284,1.8287,148.9,96.5,0.541
29.48,32412.7,35725.6,1.754,1.7887,148.9,96.5,0.541
29.5,32296.9,35561.5,1.2618,1.3842,148.9,96.5,0.541
29.52,32211.1,35384.1,0.8975,0.9467,148.9,96.5,0.541
29.54,32197.6,35238.7,0.8398,0.5881,148.9,96.5,0.541
29.56,31983.8,35137.3,-0.0686,0.3383,148.9,96.5,0.541
29.58,31963.9,35088.4,-0.1531,0.2176,148.9,96.5,0.541
29.6,31973.2,34991.6,-0.1136,-0.0209,148.9,96.5,0.541
29.62,31974.1,34931.9,-0.1096,-0.1683,148.9,96.5,0.541
29.64,31839.9,34828.2,-0.6801,-0.4239,148.9,96.5,0.541
29.66,31890.6,34725.8,-0.4646,-0.6764,148.9,96.5,0.541
29.68,32013.0,34721.2,0.0555,-0.6878,148.9,96.5,0.541
29.7,31863.9,34726.1,-0.5783,-0.6757,148.9,96.5,0.541
29.72,31741.6,34662.6,-1.0977,-0.8322,148.9,96.5,0.541
29.74,31725.4,34494.4,-1.1666,-1.2468,148.9,96.5,0.541
29.76,31809.3,34469.1,-0.8102,-1.3094,148.9,96.5,0.541
29.78,31723.8,34486.5,-1.1733,-1.2665,148.9,96.5,0.541
29.8,31749.6,34787.4,-1.0638,-0.5245,148.9,96.5,0.541
29.82,32056.4,35062.0,0.2401,0.1526,148.9,96.5,0.541
29.84,32217.1,35513.8,0.9227,1.2665,148.9,96.5,0.541
29.86,32423.6,35645.4,1.8002,1.5911,148.9,96.5,0.541
29.88,32395.3,35794.0,1.6802,1.9574,148.9,96.5,0.541
29.9,32253.7,35590.2,1.0784,1.4549,148.9,96.5,0.541
29.92,32241.2,35458.5,1.0254,1.1301,148.9,96.5,0.541
29.94,32104.9,35271.0,0.4462,0.6679,148.9,96.5,0.541
29.96,32068.6,35144.5,0.2919,0.3561,148.9,96.5,0.541
29.98,32008.5,35070.7,0.0365,0.174,148.9,96.5,0.541
30.0,31922.4,34982.3,-0.3296,-0.0439,148.9,96.5,0.541
30.02,31969.3,34919.7,-0.1303,-0.1983,148.9,96.5,0.541
30.04,31926.7,34791.4,-0.3111,-0.5147,148.9,96.5,0.541
30.06,31798.0,34712.0,-0.8583,-0.7105,148.9,96.5,0.541
30.08,31792.4,34709.5,-0.882,-0.7167,148.9,96.5,0.541
30.1,31817.9,34725.3,-0.7734,-0.6777,148.9,96.5,0.541
30.12,31857.1,34532.7,-0.6071,-1.1526,148.9,96.5,0.541
30.14,31779.1,34548.1,-0.9386,-1.1145,148.9,96.5,0.541
30.16,31793.4,34450.7,-0.8776,-1.3548,148.9,96.5,0.541
30.18,31684.4,34480.5,-1.341,-1.2813,148.9,96.5,0.541
30.2,31803.5,34705.7,-0.8346,-0.7261,148.9,96.5,0.541
30.22,32002.3,34969.8,0.0102,-0.0748,148.9,96.5,0.541
30.24,32232.1,35430.1,0.9865,1.06,148.9,96.5,0.541
30.26,32355.6,35686.6,1.5112,1.6926,148.9,96.5,0.541
30.28,32387.6,35757.3,1.6472,1.8668,148.9,96.5,0.541
30.3,32240.5,35594.7,1.0225,1.4661,148.9,96.5,0.541
30.32,32193.9,35468.5,0.8242,1.1549,148.9,96.5,0.541
30.34,32029.8,35282.9,0.127,0.6972,148.9,96.5,0.541
30.36,31993.3,35159.5,-0.028,0.3929,148.9,96.5,0.541
30.38,32067.8,35076.4,0.2883,0.188,148.9,96.5,0.541
30.4,32032.6,35096.1,0.1389,0.2366,148.9,96.5,0.541
30.42,32003.9,35107.0,0.017,0.2634,148.9,96.5,0.541
30.44,31903.9,34810.1,-0.4079,-0.4686,148.9,96.5,0.541
30.46,31896.7,34733.3,-0.4386,-0.6579,148.9,96.5,0.541
30.48,31880.7,34687.7,-0.5065,-0.7703,148.9,96.5,0.541
30.5,31848.1,34628.1,-0.6453,-0.9173,148.9,96.5,0.541
30.52,31786.8,34645.7,-0.9057,-0.874,148.9,96.5,0.541
30.54,31803.2,34514.7,-0.8359,-1.197,148.9,96.5,0.541
30.56,31638.6,34405.2,-1.5353,-1.4669,148.9,96.5,0.541
30.58,31728.7,34488.8,-1.1527,-1.2606,148.9,96.5,0.541
30.6,31819.3,34608.6,-0.7678,-0.9655,148.9,96.5,0.541
30.62,32054.9,34963.6,0.2334,-0.0902,148.9,96.5,0.541
30.64,32104.8,35397.2,0.4458,0.979,148.9,96.5,0.541
30.66,32309.4,35650.5,1.3152,1.6035,148.9,96.5,0.541
30.68,32376.9,35852.4,1.6018,2.1015,148.9,96.5,0.541
30.7,32401.5,35674.2,1.7065,1.6621,148.9,96.5,0.541
30.72,32212.7,35484.7,0.9042,1.1949,148.9,96.5,0.541
30.74,32164.3,35199.3,0.6983,0.4911,148.9,96.5,0.541
30.76,32109.4,35155.1,0.4653,0.382,148.9,96.5,0.541
30.78,32059.1,35105.5,0.2516,0.2599,148.9,96.5,0.541
30.8,32045.3,35111.8,0.193,0.2754,148.9,96.5,0.541
30.82,31956.0,35010.4,-0.1868,0.0253,148.9,96.5,0.541
30.84,31880.2,34850.9,-0.5087,-0.3679,148.9,96.5,0.541
30.86,31935.0,34734.2,-0.2758,-0.6556,148.9,96.5,0.541
30.88,31885.2,34739.2,-0.4876,-0.6434,148.9,96.5,0.541
30.9,31836.4,34619.3,-0.695,-0.9391,148.9,96.5,0.541
30.92,31858.7,34566.2,-0.6002,-1.0698,148.9,96.5,0.541
30.94,31827.4,34557.3,-0.733,-1.0918,148.9,96.5,0.541
30.96,31754.6,34424.8,-1.0426,-1.4186,148.9,96.5,0.541
30.98,31778.8,34446.7,-0.9395,-1.3646,148.9,96.5,0.541
31.0,31819.7,34604.1,-0.7658,-0.9764,148.9,96.5,0.541
31.02,31899.8,35068.7,-0.4255,0.169,148.9,96.5,0.541
31.04,32052.0,35155.1,0.2214,0.3821,148.9,96.5,0.541
31.06,32295.4,35623.2,1.2556,1.5363,148.9,96.5,0.541
31.08,32369.6,35735.3,1.5711,1.8126,148.9,96.5,0.541
31.1,32313.9,35831.4,1.3341,2.0497,148.9,96.5,0.541
31.12,32204.3,35469.7,0.8683,1.1577,148.9,96.5,0.541
31.14,32186.6,35291.4,0.7932,0.7181,148.9,96.5,0.541
31.16,32075.1,35156.9,0.3195,0.3866,148.9,96.5,0.541
31.18,32073.1,35186.4,0.3108,0.4592,148.9,96.5,0.541
31.2,31949.4,35091.3,-0.2147,0.2247,148.9,96.5,0.541
31.22,32044.0,34982.0,0.1871,-0.0447,148.9,96.5,0.541
31.24,31957.6,34820.5,-0.18,-0.443,148.9,96.5,0.541
31.26,31886.9,34850.0,-0.4805,-0.3702,148.9,96.5,0.541
31.28,31737.2,34742.0,-1.1163,-0.6364,148.9,96.5,0.541
31.3,31795.7,34726.6,-0.8681,-0.6745,148.9,96.5,0.541
31.32,31744.8,34656.2,-1.0841,-0.8481,148.9,96.5,0.541
31.34,31789.3,34602.6,-0.8953,-0.9801,148.9,96.5,0.541
31.36,31841.5,34487.2,-0.6734,-1.2646,148.9,96.5,0.541
31.38,31684.4,34477.9,-1.3407,-1.2876,148.9,96.5,0.541
31.4,31713.5,34588.3,-1.2171,-1.0155,148.9,96.5,0.541
31.42,32028.3,34799.7,0.1204,-0.4943,148.9,96.5,0.541
31.44,32119.5,35212.3,0.5083,0.5231,148.9,96.5,0.541
31.46,32232.6,35515.3,0.9887,1.2703,148.9,96.5,0.541
31.48,32283.9,35790.7,1.2068,1.9493,148.9,96.5,0.541
31.5,32402.6,35662.5,1.7111,1.6331,148.9,96.5,0.541
31.52,32230.0,35497.2,0.9776,1.2255,148.9,96.5,0.541
31.54,32197.8,35333.8,0.841,0.8227,148.9,96.5,0.541
31.56,32192.0,35163.7,0.816,0.4033,148.9,96.5,0.541
31.58,32052.7,35044.8,0.2241,0.1103,148.9,96.5,0.541
31.6,32001.9,35063.5,0.0084,0.1561,148.9,96.5,0.541
31.62,32097.6,35036.0,0.4149,0.0884,148.9,96.5,0.541
31.64,31986.8,34845.5,-0.0558,-0.3814,148.9,96.5,0.541
31.66,31844.0,34750.5,-0.6628,-0.6156,148.9,96.5,0.541
31.68,31846.9,34731.0,-0.6504,-0.6636,148.9,96.5,0.541
31.7,31916.4,34683.1,-0.3551,-0.7816,148.9,96.5,0.541
31.72,31845.6,34619.3,-0.6559,-0.9389,148.9,96.5,0.541
31.74,31853.2,34540.0,-0.6235,-1.1345,148.9,96.5,0.541
31.76,31748.9,34537.7,-1.0668,-1.1401,148.9,96.5,0.541
31.78,31719.6,34384.4,-1.1913,-1.5181,148.9,96.5,0.541
31.8,31770.7,34487.7,-0.974,-1.2635,148.9,96.5,0.541
31.82,31813.7,34778.4,-0.7916,-0.5466,148.9,96.5,0.541
31.84,32005.1,35208.6,0.0219,0.5139,148.9,96.5,0.541
31.86,32286.2,35574.5,1.2166,1.4161,148.9,96.5,0.541
31.88,32311.3,35825.5,1.3231,2.0349,148.9,96.5,0.541
31.9,32245.7,35722.0,1.0445,1.7799,148.9,96.5,0.541
31.92,32312.0,35690.8,1.3263,1.7029,148.9,96.5,0.541
31.94,32159.2,35416.7,0.6767,1.0271,148.9,96.5,0.541
31.96,32118.4,35101.0,0.5034,0.2487,148.9,96.5,0.541
31.98,32156.8,35070.3,0.6667,0.173,148.9,96.5,0.541
32.0,31974.3,35138.5,-0.1088,0.3412,148.9,96.5,0.541
32.02,32022.8,34959.9,0.0973,-0.0991,148.9,96.5,0.541
32.04,31889.5,34896.8,-0.4695,-0.2548,148.9,96.5,0.541
32.06,31837.3,34746.2,-0.6911,-0.626,148.9,96.5,0.541
32.08,31868.1,34730.7,-0.5604,-0.6644,148.9,96.5,0.541
32.1,31811.3,34712.3,-0.8015,-0.7097,148.9,96.5,0.541
32.12,31754.9,34597.9,-1.0411,-0.9917,148.9,96.5,0.541
32.14,31733.4,34545.6,-1.1328,-1.1208,148.9,96.5,0.541
32.16,31781.2,34504.7,-0.9297,-1.2215,148.9,96.5,0.541
32.18,31696.9,34497.2,-1.2875,-1.2401,148.9,96.5,0.541
32.2,31829.4,34503.7,-0.7245,-1.224,148.9,96.5,0.541
32.22,31870.9,34748.1,-0.5483,-0.6214,148.9,96.5,0.541
32.24,32104.5,35116.8,0.4442,0.2877,148.9,96.5,0.541
32.26,32204.5,35450.7,0.8693,1.1109,148.9,96.5,0.541
32.28,32322.0,35684.3,1.3687,1.687,148.9,96.5,0.541
32.3,32342.3,35744.6,1.4549,1.8356,148.9,96.5,0.541
32.32,32341.7,35641.5,1.4523,1.5813,148.9,96.5,0.541
32.34,32275.0,35379.4,1.169,0.9351,148.9,96.5,0.541
32.36,32088.3,35256.3,0.3755,0.6315,148.9,96.5,0.541
32.38,32012.7,35080.6,0.0541,0.1984,148.9,96.5,0.541
32.4,32027.2,35207.6,0.1158,0.5116,148.9,96.5,0.541
32.42,31988.0,35038.6,-0.0508,0.0949,148.9,96.5,0.541
32.44,31926.3,34877.7,-0.313,-0.3018,148.9,96.5,0.541
32.46,31688.0,34829.0,-1.3255,-0.4219,148.9,96.5,0.541
32.48,31805.5,34643.5,-0.8262,-0.8793,148.9,96.5,0.541
32.5,31843.6,34660.0,-0.6642,-0.8387,148.9,96.5,0.541
32.52,31864.2,34730.2,-0.5769,-0.6654,148.9,96.5,0.541
32.54,31832.0,34619.7,-0.7137,-0.9381,148.9,96.5,0.541
32.56,31811.3,34636.7,-0.8018,-0.8961,148.9,96.5,0.541
32.58,31849.1,34424.5,-0.6408,-1.4194,148.9,96.5,0.541
32.6,31774.2,34488.6,-0.9594,-1.2613,148.9,96.5,0.541
32.62,31884.2,34668.7,-0.4917,-0.8173,148.9,96.5,0.541
32.64,31971.3,35129.4,-0.1217,0.3188,148.9,96.5,0.541
32.66,32203.6,35344.5,0.8656,0.849,148.9,96.5,0.541
32.68,32313.7,35714.3,1.3335,1.7609,148.9,96.5,0.541
32.7,32369.1,35794.1,1.5688,1.9577,148.9,96.5,0.541
32.72,32307.4,35718.2,1.3068,1.7704,148.9,96.5,0.541
32.74,32243.5,35511.4,1.0349,1.2605,148.9,96.5,0.541
32.76,32112.6,35239.8,0.4788,0.591,148.9,96.5,0.541
32.78,32064.9,35195.9,0.276,0.4826,148.9,96.5,0.541
32.8,32006.8,35066.6,0.0291,0.1639,148.9,96.5,0.541
32.82,32092.2,35083.8,0.3922,0.2063,148.9,96.5,0.541
32.84,31909.3,34914.1,-0.3851,-0.2121,148.9,96.5,0.541
32.86,31878.2,34771.7,-0.5174,-0.5633,148.9,96.5,0.541
32.88,31830.2,34774.0,-0.7213,-0.5575,148.9,96.5,0.541
32.9,31822.4,34680.5,-0.7543,-0.7881,148.9,96.5,0.541
32.92,31769.7,34664.2,-0.9783,-0.8283,148.9,96.5,0.541
32.94,31929.4,34670.6,-0.2996,-0.8125,148.9,96.5,0.541
32.96,31687.6,34471.0,-1.3274,-1.3046,148.9,96.5,0.541
32.98,31718.1,34450.4,-1.1976,-1.3555,148.9,96.5,0.541
33.0,31803.8,34570.9,-0.8336,-1.0584,148.9,96.5,0.541
33.02,31813.7,34632.3,-0.7914,-0.9069,148.9,96.5,0.541
33.04,31935.7,34901.7,-0.2732,-0.2426,148.9,96.5,0.541
33.06,32178.8,35341.0,0.76,0.8404,148.9,96.5,0.541
33.08,32364.0,35683.2,1.5471,1.6841,148.9,96.5,0.541
33.1,32372.2,35777.3,1.5819,1.9163,148.9,96.5,0.541
33.12,32264.9,35664.3,1.1261,1.6377,148.9,96.5,0.541
33.14,32275.7,35512.7,1.1717,1.2638,148.9,96.5,0.541
33.16,32078.9,35221.5,0.3358,0.5459,148.9,96.5,0.541
33.18,32020.4,35146.1,0.0871,0.36,148.9,96.5,0.541
33.2,32032.1,35225.4,0.1365,0.5555,148.9,96.5,0.541
33.22,32030.3,34945.2,0.1289,-0.1355,148.9,96.5,0.541
33.24,32019.0,34981.1,0.0811,-0.0469,148.9,96.5,0.541
33.26,31930.4,34896.5,-0.2956,-0.2555,148.9,96.5,0.541
33.28,31898.0,34690.0,-0.4332,-0.7646,148.9,96.5,0.541
33.3,31852.5,34631.3,-0.6266,-0.9095,148.9,96.5,0.541
33.32,31843.8,34662.5,-0.6634,-0.8325,148.9,96.5,0.541
33.34,31812.9,34648.8,-0.795,-0.8663,148.9,96.5,0.541
33.36,31810.9,34582.6,-0.8032,-1.0296,148.9,96.5,0.541
33.38,31715.7,34494.2,-1.2078,-1.2474,148.9,96.5,0.541
33.4,31632.1,34510.2,-1.5629,-1.2079,148.9,96.5,0.541
33.42,31844.0,34620.1,-0.6626,-0.937,148.9,96.5,0.541
33.44,31942.9,34946.6,-0.2425,-0.1319,148.9,96.5,0.541
33.46,32103.5,35308.2,0.4401,0.7596,148.9,96.5,0.541
33.48,32266.8,35571.9,1.1343,1.4098,148.9,96.5,0.541
33.5,32456.7,35763.0,1.9412,1.8809,148.9,96.5,0.541
33.52,32214.8,35754.9,0.9129,1.8609,148.9,96.5,0.541
33.54,32291.7,35521.1,1.2398,1.2845,148.9,96.5,0.541
33.56,32132.4,35252.2,0.5631,0.6214,148.9,96.5,0.541
33.58,32099.4,35232.9,0.4228,0.574,148.9,96.5,0.541
33.6,32047.1,35064.0,0.2005,0.1574,148.9,96.5,0.541
33.62,31994.0,35090.0,-0.0254,0.2217,148.9,96.5,0.541
33.64,31986.0,34993.2,-0.0591,-0.0172,148.9,96.5,0.541
33.66,31970.9,34857.2,-0.1234,-0.3525,148.9,96.5,0.541
33.68,31876.6,34741.5,-0.5241,-0.6376,148.9,96.5,0.541
33.7,31861.3,34606.2,-0.5891,-0.9713,148.9,96.5,0.541
33.72,31910.9,34690.9,-0.3785,-0.7625,148.9,96.5,0.541
33.74,31828.1,34646.4,-0.7302,-0.8723,148.9,96.5,0.541
33.76,31807.5,34637.9,-0.8176,-0.8932,148.9,96.5,0.541
33.78,31806.5,34531.8,-0.8221,-1.1548,148.9,96.5,0.541
33.8,31736.1,34508.5,-1.121,-1.2122,148.9,96.5,0.541
33.82,31863.7,34653.7,-0.579,-0.8542,148.9,96.5,0.541
33.84,31893.3,34935.2,-0.4531,-0.1602,148.9,96.5,0.541
33.86,32089.3,35199.3,0.3797,0.491,148.9,96.5,0.541
33.88,32299.6,35559.2,1.2734,1.3785,148.9,96.5,0.541
33.9,32427.4,35726.2,1.8166,1.7903,148.9,96.5,0.541
33.92,32334.2,35703.6,1.4206,1.7344,148.9,96.5,0.541
33.94,32290.2,35468.3,1.2334,1.1543,148.9,96.5,0.541
33.96,32180.4,35265.9,0.767,0.6552,148.9,96.5,0.541
33.98,32049.3,35122.8,0.2099,0.3024,148.9,96.5,0.541
34.0,32094.8,35070.9,0.4033,0.1746,148.9,96.5,0.541
34.02,31962.9,35117.3,-0.1572,0.2888,148.9,96.5,0.541
34.04,32011.4,34940.8,0.0486,-0.1463,148.9,96.5,0.541
34.06,31904.7,34946.0,-0.4048,-0.1334,148.9,96.5,0.541
34.08,31896.4,34810.6,-0.4398,-0.4672,148.9,96.5,0.541
34.1,31869.1,34687.5,-0.5561,-0.7708,148.9,96.5,0.541
34.12,31817.1,34632.2,-0.7771,-0.9071,148.9,96.5,0.541
34.14,31813.0,34587.9,-0.7943,-1.0165,148.9,96.5,0.541
34.16,31818.1,34591.0,-0.7727,-1.0088,148.9,96.5,0.541
34.18,31765.2,34585.3,-0.9977,-1.0227,148.9,96.5,0.541
34.2,31764.0,34399.5,-1.0028,-1.481,148.9,96.5,0.541
34.22,31757.3,34599.2,-1.031,-0.9886,148.9,96.5,0.541
34.24,31865.6,34770.9,-0.5707,-0.5651,148.9,96.5,0.541
34.26,32080.2,35181.9,0.3413,0.4481,148.9,96.5,0.541
34.28,32284.6,35494.1,1.2095,1.2181,148.9,96.5,0.541
34.3,32314.7,35737.1,1.3378,1.8171,148.9,96.5,0.541
34.32,32384.7,35676.5,1.6349,1.6676,148.9,96.5,0.541
34.34,32363.3,35539.8,1.5441,1.3306,148.9,96.5,0.541
34.36,32177.8,35448.3,0.7559,1.105,148.9,96.5,0.541
34.38,32125.3,35209.8,0.5328,0.5171,148.9,96.5,0.541
34.4,32074.9,35046.5,0.3188,0.1144,148.9,96.5,0.541
34.42,32135.8,35068.0,0.5774,0.1673,148.9,96.5,0.541
34.44,31996.6,34974.7,-0.0142,-0.0626,148.9,96.5,0.541
34.46,31963.3,34925.2,-0.1558,-0.1847,148.9,96.5,0.541
34.48,31945.2,34689.4,-0.2328,-0.7661,148.9,96.5,0.541
34.5,31751.4,34760.6,-1.0561,-0.5905,148.9,96.5,0.541
34.52,31763.9,34629.6,-1.0029,-0.9136,148.9,96.5,0.541
34.54,31848.8,34670.8,-0.6422,-0.8121,148.9,96.5,0.541
34.56,31759.3,34716.2,-1.0225,-0.6999,148.9,96.5,0.541
34.58,31800.4,34521.8,-0.8478,-1.1794,148.9,96.5,0.541
34.6,31724.7,34390.7,-1.1695,-1.5027,148.9,96.5,0.541
34.62,31702.0,34607.3,-1.2661,-0.9685,148.9,96.5,0.541
34.64,31972.5,34780.6,-0.1164,-0.5413,148.9,96.5,0.541
34.66,32075.3,35209.6,0.3203,0.5166,148.9,96.5,0.541
34.68,32323.7,35461.1,1.376,1.1367,148.9,96.5,0.541
34.7,32362.9,35580.1,1.5426,1.43,148.9,96.5,0.541
34.72,32381.5,35817.2,1.6217,2.0145,148.9,96.5,0.541
34.74,32172.1,35556.0,0.7316,1.3706,148.9,96.5,0.541
34.76,32239.0,35385.5,1.0158,0.9501,148.9,96.5,0.541
34.78,32172.4,35207.4,0.733,0.5109,148.9,96.5,0.541
34.8,32019.7,35057.2,0.0839,0.1408,148.9,96.5,0.541
34.82,32040.6,35031.8,0.173,0.0782,148.9,96.5,0.541
34.84,32019.9,34905.4,0.0848,-0.2335,148.9,96.5,0.541
34.86,31985.1,34960.4,-0.063,-0.0979,148.9,96.5,0.541
34.88,31934.8,34821.4,-0.2767,-0.4408,148.9,96.5,0.541
34.9,31925.7,34738.5,-0.3155,-0.6451,148.9,96.5,0.541
34.92,31825.7,34752.2,-0.7402,-0.6112,148.9,96.5,0.541
34.94,31876.2,34707.6,-0.5259,-0.7212,148.9,96.5,0.541
34.96,31867.1,34554.1,-0.5645,-1.0998,148.9,96.5,0.541
34.98,31767.2,34569.2,-0.9888,-1.0626,148.9,96.5,0.541
35.0,31680.1,34416.4,-1.359,-1.4393,148.9,96.5,0.541
35.02,31769.4,34528.2,-0.9797,-1.1637,148.9,96.5,0.541
35.04,31868.7,34691.7,-0.5575,-0.7606,148.9,96.5,0.541
35.06,32105.2,35098.6,0.4472,0.2429,148.9,96.5,0.541
35.08,32238.7,35401.1,1.0147,0.9886,148.9,96.5,0.541
35.1,32324.1,35743.9,1.3778,1.8338,148.9,96.5,0.541
35.12,32361.0,35801.5,1.5345,1.9758,148.9,96.5,0.541
35.14,32248.8,35632.5,1.0575,1.5591,148.9,96.5,0.541
35.16,32275.2,35408.4,1.1698,1.0065,148.9,96.5,0.541
35.18,32126.7,35178.9,0.5388,0.4408,148.9,96.5,0.541
35.2,32043.1,35034.4,0.1832,0.0846,148.9,96.5,0.541
35.22,32057.1,35131.1,0.2431,0.323,148.9,96.5,0.541
35.24,31926.6,34956.8,-0.3117,-0.1068,148.9,96.5,0.541
35.26,32008.3,34892.0,0.0354,-0.2667,148.9,96.5,0.541
35.28,31860.9,34820.8,-0.5906,-0.442,148.9,96.5,0.541
35.3,31906.7,34737.5,-0.3963,-0.6475,148.9,96.5,0.541
35.32,31879.1,34654.4,-0.5136,-0.8525,148.9,96.5,0.541
35.34,31906.3,34697.8,-0.3978,-0.7455,148.9,96.5,0.541
35.36,31801.9,34702.4,-0.8415,-0.734,148.9,96.5,0.541
35.38,31728.0,34581.0,-1.1556,-1.0334,148.9,96.5,0.541
35.4,31710.9,34520.2,-1.2284,-1.1833,148.9,96.5,0.541
35.42,31760.1,34498.4,-1.0191,-1.2371,148.9,96.5,0.541
35.44,31795.9,34611.2,-0.8671,-0.9589,148.9,96.5,0.541
35.46,31964.4,35027.6,-0.1508,0.0676,148.9,96.5,0.541
35.48,32229.6,35341.3,0.9762,0.8412,148.9,96.5,0.541
35.5,32378.3,35754.1,1.6081,1.859,148.9,96.5,0.541
35.52,32296.9,35792.7,1.262,1.9543,148.9,96.5,0.541
35.54,32301.7,35648.6,1.2823,1.599,148.9,96.5,0.541
35.56,32292.5,35477.5,1.2433,1.1771,148.9,96.5,0.541
35.58,32047.5,35220.3,0.2022,0.5429,148.9,96.5,0.541
35.6,32140.5,35147.3,0.5972,0.3628,148.9,96.5,0.541
35.62,31986.8,35009.2,-0.0556,0.0225,148.9,96.5,0.541
35.64,31968.6,35089.5,-0.1332,0.2204,148.9,96.5,0.541
35.66,31896.2,34927.1,-0.4409,-0.18,148.9,96.5,0.541
35.68,31922.6,34750.2,-0.3288,-0.6164,148.9,96.5,0.541
35.7,31790.2,34690.4,-0.8913,-0.7636,148.9,96.5,0.541
35.72,31862.8,34737.5,-0.5826,-0.6476,148.9,96.5,0.541
35.74,31735.8,34688.3,-1.1224,-0.7689,148.9,96.5,0.541
35.76,31851.2,34567.1,-0.632,-1.0678,148.9,96.5,0.541
35.78,31875.6,34587.3,-0.5283,-1.0178,148.9,96.5,0.541
35.8,31786.6,34504.6,-0.9066,-1.2218,148.9,96.5,0.541
35.82,31784.6,34481.3,-0.9151,-1.2793,148.9,96.5,0.541
35.84,31796.3,34576.1,-0.8654,-1.0456,148.9,96.5,0.541
35.86,31968.4,35005.9,-0.1339,0.0143,148.9,96.5,0.541
35.88,32140.4,35304.9,0.597,0.7514,148.9,96.5,0.541
35.9,32294.2,35576.0,1.2505,1.4198,148.9,96.5,0.541
35.92,32399.3,35707.6,1.6973,1.7445,148.9,96.5,0.541
35.94,32386.8,35707.9,1.6441,1.745,148.9,96.5,0.541
35.96,32210.6,35530.0,0.8951,1.3064,148.9,96.5,0.541
35.98,32110.7,35303.5,0.4705,0.7481,148.9,96.5,0.541
36.0,32161.1,35162.5,0.6848,0.4002,148.9,96.5,0.541
36.02,32093.4,35038.6,0.397,0.0948,148.9,96.5,0.541
36.04,31909.1,35031.5,-0.3861,0.0773,148.9,96.5,0.541
36.06,31951.3,34952.3,-0.2069,-0.1179,148.9,96.5,0.541
36.08,31846.9,34824.7,-0.6504,-0.4325,148.9,96.5,0.541
36.1,31856.7,34789.5,-0.6086,-0.5193,148.9,96.5,0.541
36.12,31825.6,34639.5,-0.7406,-0.8891,148.9,96.5,0.541
36.14,31846.2,34542.6,-0.6533,-1.128,148.9,96.5,0.541
36.16,31843.9,34762.4,-0.663,-0.586,148.9,96.5,0.541
36.18,31724.9,34593.7,-1.1688,-1.0021,148.9,96.5,0.541
36.2,31765.6,34559.2,-0.9957,-1.0873,148.9,96.5,0.541
36.22,31713.5,34490.6,-1.217,-1.2563,148.9,96.5,0.541
36.24,31771.4,34532.3,-0.971,-1.1535,148.9,96.5,0.541
36.26,31968.6,34961.7,-0.1333,-0.0949,148.9,96.5,0.541
36.28,32157.5,35313.8,0.6696,0.7733,148.9,96.5,0.541
36.3,32371.9,35560.6,1.5805,1.382,148.9,96.5,0.541
36.32,32463.0,35803.2,1.968,1.9802,148.9,96.5,0.541
36.34,32373.0,35772.6,1.5852,1.9045,148.9,96.5,0.541
36.36,32171.5,35511.1,0.729,1.2599,148.9,96.5,0.541
36.38,32163.8,35299.6,0.6963,0.7383,148.9,96.5,0.541
36.4,32147.9,35159.9,0.6287,0.394,148.9,96.5,0.541
36.42,31991.4,35008.7,-0.0363,0.0211,148.9,96.5,0.541
36.44,32001.2,35092.1,0.0054,0.2267,148.9,96.5,0.541
36.46,32040.0,34992.3,0.1701,-0.0192,148.9,96.5,0.541
36.48,31997.1,34882.9,-0.0119,-0.2891,148.9,96.5,0.541
36.5,31869.0,34681.8,-0.5563,-0.7848,148.9,96.5,0.541
36.52,31825.2,34758.2,-0.7423,-0.5964,148.9,96.5,0.541
36.54,31804.5,34633.6,-0.8305,-0.9038,148.9,96.5,0.541
36.56,31801.9,34815.0,-0.8417,-0.4564,148.9,96.5,0.541
36.58,31794.1,34591.8,-0.8746,-1.0068,148.9,96.5,0.541
36.6,31756.9,34500.4,-1.0328,-1.2322,148.9,96.5,0.541
36.62,31733.5,34493.9,-1.1324,-1.2482,148.9,96.5,0.541
36.64,31815.5,34609.4,-0.7838,-0.9633,148.9,96.5,0.541
36.66,31957.9,34872.9,-0.1787,-0.3137,148.9,96.5,0.541
36.68,32153.0,35153.8,0.6503,0.3789,148.9,96.5,0.541
36.7,32341.9,35562.7,1.4533,1.3872,148.9,96.5,0.541
36.72,32403.0,35809.4,1.7128,1.9953,148.9,96.5,0.541
36.74,32365.6,35715.6,1.5538,1.7641,148.9,96.5,0.541
36.76,32156.0,35593.6,0.6633,1.4632,148.9,96.5,0.541
36.78,32132.9,35464.2,0.5652,1.1443,148.9,96.5,0.541
36.8,32105.4,35216.3,0.4483,0.5329,148.9,96.5,0.541
36.82,32056.0,35106.6,0.2384,0.2626,148.9,96.5,0.541
36.84,32033.0,35080.3,0.1405,0.1977,148.9,96.5,0.541
36.86,31985.9,34950.1,-0.0594,-0.1234,148.9,96.5,0.541
36.88,31991.2,34921.3,-0.037,-0.1943,148.9,96.5,0.541
36.9,31851.2,34791.9,-0.632,-0.5133,148.9,96.5,0.541
36.92,31856.0,34718.5,-0.6114,-0.6944,148.9,96.5,0.541
36.94,31831.7,34584.0,-0.7148,-1.0261,148.9,96.5,0.541
36.96,31869.7,34773.1,-0.5534,-0.5597,148.9,96.5,0.541
36.98,31854.8,34533.9,-0.6166,-1.1494,148.9,96.5,0.541
37.0,31766.3,34586.3,-0.9927,-1.0202,148.9,96.5,0.541
37.02,31642.5,34405.8,-1.519,-1.4655,148.9,96.5,0.541
37.04,31742.8,34590.9,-1.0926,-1.0091,148.9,96.5,0.541
37.06,31855.7,34763.8,-0.6129,-0.5827,148.9,96.5,0.541
37.08,32090.7,35230.1,0.3856,0.567,148.9,96.5,0.541
37.1,32214.6,35495.5,0.9121,1.2215,148.9,96.5,0.541
37.12,32362.5,35681.6,1.5409,1.6803,148.9,96.5,0.541
37.14,32332.9,35707.6,1.415,1.7444,148.9,96.5,0.541
37.16,32211.0,35551.2,0.897,1.3587,148.9,96.5,0.541
37.18,32091.0,35402.1,0.3868,0.9911,148.9,96.5,0.541
37.2,32141.3,35211.8,0.6008,0.5219,148.9,96.5,0.541
37.22,31997.1,35004.9,-0.0119,0.0119,148.9,96.5,0.541
37.24,32007.6,35096.5,0.0327,0.2375,148.9,96.5,0.541
37.26,32069.1,34996.7,0.294,-0.0084,148.9,96.5,0.541
37.28,31939.7,34955.2,-0.256,-0.1107,148.9,96.5,0.541
37.3,31919.1,34735.0,-0.3434,-0.6537,148.9,96.5,0.541
37.32,31818.3,34614.5,-0.7719,-0.9508,148.9,96.5,0.541
37.34,31795.1,34633.1,-0.8704,-0.905,148.9,96.5,0.541
37.36,31791.2,34654.0,-0.8869,-0.8535,148.9,96.5,0.541
37.38,31780.9,34628.9,-0.9309,-0.9154,148.9,96.5,0.541
37.4,31814.0,34542.8,-0.7902,-1.1276,148.9,96.5,0.541
37.42,31759.6,34458.7,-1.0212,-1.335,148.9,96.5,0.541
37.44,31740.8,34450.3,-1.1012,-1.3557,148.9,96.5,0.541
37.46,31852.6,34757.3,-0.6261,-0.5987,148.9,96.5,0.541
37.48,32101.9,35096.5,0.4334,0.2375,148.9,96.5,0.541
37.5,32196.4,35424.5,0.8349,1.0464,148.9,96.5,0.541
37.52,32342.4,35702.3,1.4555,1.7312,148.9,96.5,0.541
37.54,32361.6,35758.2,1.5369,1.869,148.9,96.5,0.541
37.56,32258.5,35647.6,1.099,1.5965,148.9,96.5,0.541
37.58,32267.9,35386.2,1.1388,0.952,148.9,96.5,0.541
37.6,32175.7,35231.3,0.7467,0.57,148.9,96.5,0.541
37.62,32042.8,35042.1,0.1822,0.1035,148.9,96.5,0.541
37.64,32046.8,35075.4,0.1993,0.1855,148.9,96.5,0.541
37.66,31969.2,34998.3,-0.1307,-0.0045,148.9,96.5,0.541
37.68,31923.1,34864.4,-0.3265,-0.3347,148.9,96.5,0.541
37.7,31970.5,34863.4,-0.1249,-0.337,148.9,96.5,0.541
37.72,31943.2,34703.1,-0.2413,-0.7324,148.9,96.5,0.541
37.74,31907.9,34628.6,-0.3912,-0.9161,148.9,96.5,0.541
37.76,31776.0,34750.9,-0.9518,-0.6146,148.9,96.5,0.541
37.78,31782.1,34590.2,-0.9257,-1.0106,148.9,96.5,0.541
37.8,31709.0,34579.4,-1.2365,-1.0373,148.9,96.5,0.541
37.82,31710.3,34543.2,-1.2309,-1.1266,148.9,96.5,0.541
37.84,31889.5,34500.5,-0.4691,-1.232,148.9,96.5,0.541
37.86,31788.6,34731.3,-0.8983,-0.6629,148.9,96.5,0.541
37.88,31982.1,35001.7,-0.0758,0.0037,148.9,96.5,0.541
37.9,32255.7,35404.7,1.087,0.9975,148.9,96.5,0.541
37.92,32325.5,35738.0,1.3837,1.8193,148.9,96.5,0.541
37.94,32316.3,35783.5,1.3445,1.9314,148.9,96.5,0.541
37.96,32242.6,35548.7,1.0312,1.3526,148.9,96.5,0.541
37.98,32173.4,35459.9,0.737,1.1337,148.9,96.5,0.541
38.0,32210.6,35283.4,0.8951,0.6984,148.9,96.5,0.541
38.02,32067.6,35105.9,0.2874,0.2607,148.9,96.5,0.541
38.04,31939.1,34988.5,-0.2585,-0.0287,148.9,96.5,0.541
38.06,32009.2,35110.1,0.0395,0.2712,148.9,96.5,0.541
38.08,31961.6,34934.7,-0.163,-0.1612,148.9,96.5,0.541
38.1,31937.0,34762.0,-0.2674,-0.587,148.9,96.5,0.541
38.12,31826.4,34678.9,-0.7373,-0.792,148.9,96.5,0.541
38.14,31797.5,34634.3,-0.8601,-0.9021,148.9,96.5,0.541
38.16,31845.3,34544.0,-0.6569,-1.1247,148.9,96.5,0.541
38.18,31936.8,34628.7,-0.2682,-0.9157,148.9,96.5,0.541
38.2,31824.9,34570.9,-0.7438,-1.0582,148.9,96.5,0.541
38.22,31753.1,34440.4,-1.0491,-1.3801,148.9,96.5,0.541
38.24,31760.5,34328.1,-1.0176,-1.657,148.9,96.5,0.541
38.26,31782.3,34620.0,-0.9247,-0.9372,148.9,96.5,0.541
38.28,31934.2,35085.2,-0.2794,0.2099,148.9,96.5,0.541
38.3,32270.8,35252.2,1.1509,0.6214,148.9,96.5,0.541
38.32,32357.8,35586.5,1.5208,1.4457,148.9,96.5,0.541
38.34,32305.8,35759.0,1.3,1.871,148.9,96.5,0.541
38.36,32311.2,35707.8,1.3227,1.745,148.9,96.5,0.541
38.38,32262.8,35490.2,1.1173,1.2083,148.9,96.5,0.541
38.4,32082.7,35277.9,0.3518,0.6849,148.9,96.5,0.541
38.42,32122.0,35107.0,0.5189,0.2634,148.9,96.5,0.541
38.44,32150.6,35043.9,0.6404,0.1079,148.9,96.5,0.541
38.46,32001.1,35098.4,0.0051,0.2422,148.9,96.5,0.541
38.48,31943.5,34869.5,-0.2399,-0.3222,148.9,96.5,0.541
38.5,31895.8,34723.6,-0.4425,-0.6818,148.9,96.5,0.541
38.52,31869.0,34667.5,-0.5563,-0.8201,148.9,96.5,0.541
38.54,31872.9,34663.0,-0.5398,-0.8313,148.9,96.5,0.541
38.56,31820.1,34638.4,-0.7643,-0.892,148.9,96.5,0.541
38.58,31828.9,34758.2,-0.7267,-0.5964,148.9,96.5,0.541
38.6,31743.3,34522.6,-1.0904,-1.1775,148.9,96.5,0.541
38.62,31728.9,34423.0,-1.1516,-1.4231,148.9,96.5,0.541
38.64,31754.4,34320.2,-1.0434,-1.6765,148.9,96.5,0.541
38.66,31774.7,34645.5,-0.9572,-0.8745,148.9,96.5,0.541
38.68,32047.6,34920.0,0.2026,-0.1976,148.9,96.5,0.541
38.7,32191.6,35291.1,0.8145,0.7175,148.9,96.5,0.541
38.72,32329.9,35651.6,1.4023,1.6063,148.9,96.5,0.541
38.74,32379.6,35758.2,1.6134,1.8691,148.9,96.5,0.541
38.76,32317.0,35851.6,1.3474,2.0994,148.9,96.5,0.541
38.78,32227.8,35482.6,0.9682,1.1896,148.9,96.5,0.541
38.8,32145.1,35318.0,0.617,0.7836,148.9,96.5,0.541
38.82,32037.4,35154.8,0.1592,0.3814,148.9,96.5,0.541
38.84,32038.7,35125.2,0.1649,0.3084,148.9,96.5,0.541
38.86,32070.5,35014.5,0.2998,0.0355,148.9,96.5,0.541
38.88,31970.9,34795.4,-0.1232,-0.5047,148.9,96.5,0.541
38.9,31994.2,34854.5,-0.0242,-0.359,148.9,96.5,0.541
38.92,31985.6,34743.9,-0.061,-0.6317,148.9,96.5,0.541
38.94,31848.9,34769.0,-0.6417,-0.5698,148.9,96.5,0.541
38.96,31849.6,34748.9,-0.6386,-0.6194,148.9,96.5,0.541
38.98,31720.0,34676.2,-1.1897,-0.7987,148.9,96.5,0.541
39.0,31706.7,34556.6,-1.2462,-1.0937,148.9,96.5,0.541
39.02,31740.9,34471.7,-1.1008,-1.303,148.9,96.5,0.541
39.04,31699.2,34596.0,-1.2778,-0.9965,148.9,96.5,0.541
39.06,31856.0,34595.1,-0.6116,-0.9987,148.9,96.5,0.541
39.08,31936.3,34767.6,-0.2706,-0.5733,148.9,96.5,0.541
39.1,32130.0,35117.8,0.5526,0.2902,148.9,96.5,0.541
39.12,32325.5,35506.7,1.3835,1.249,148.9,96.5,0.541
39.14,32332.7,35746.0,1.414,1.8391,148.9,96.5,0.541
39.16,32376.6,35661.0,1.6007,1.6295,148.9,96.5,0.541
39.18,32231.6,35455.1,0.9844,1.1218,148.9,96.5,0.541
39.2,32135.1,35249.3,0.5742,0.6143,148.9,96.5,0.541
39.22,32075.6,35259.0,0.3217,0.6382,148.9,96.5,0.541
39.24,32036.6,35105.2,0.156,0.259,148.9,96.5,0.541
39.26,32129.3,35068.0,0.5498,0.1673,148.9,96.5,0.541
39.28,32028.9,34917.3,0.1229,-0.2042,148.9,96.5,0.541
39.3,31922.9,34888.2,-0.3271,-0.2759,148.9,96.5,0.541
39.32,31912.5,34779.2,-0.3714,-0.5447,148.9,96.5,0.541
39.34,31795.4,34702.8,-0.8693,-0.7331,148.9,96.5,0.541
39.36,31894.7,34622.8,-0.4473,-0.9304,148.9,96.5,0.541
39.38,31860.0,34608.2,-0.5945,-0.9663,148.9,96.5,0.541
39.4,31839.1,34592.7,-0.6832,-1.0046,148.9,96.5,0.541
39.42,31798.3,34481.3,-0.8566,-1.2794,148.9,96.5,0.541
39.44,31732.1,34415.2,-1.1382,-1.4421,148.9,96.5,0.541
39.46,31698.7,34673.1,-1.2799,-0.8064,148.9,96.5,0.541
39.48,31925.1,34878.0,-0.318,-0.3011,148.9,96.5,0.541
39.5,32082.3,35148.6,0.3502,0.3661,148.9,96.5,0.541
39.52,32254.8,35590.5,1.0831,1.4556,148.9,96.5,0.541
39.54,32322.8,35689.8,1.3722,1.7005,148.9,96.5,0.541
39.56,32335.1,35746.9,1.4243,1.8414,148.9,96.5,0.541
39.58,32288.6,35552.8,1.2269,1.3626,148.9,96.5,0.541
39.6,32134.6,35406.3,0.5724,1.0014,148.9,96.5,0.541
39.62,32092.4,35131.8,0.3928,0.3247,148.9,96.5,0.541
39.64,32123.0,35100.2,0.5228,0.2467,148.9,96.5,0.541
39.66,32051.4,35093.4,0.2187,0.2299,148.9,96.5,0.541
39.68,32045.5,35002.1,0.1938,0.005,148.9,96.5,0.541
39.7,31989.2,34888.9,-0.0456,-0.2742,148.9,96.5,0.541
39.72,31931.6,34716.4,-0.2906,-0.6996,148.9,96.5,0.541
39.74,31852.5,34734.4,-0.6267,-0.6551,148.9,96.5,0.541
39.76,31808.1,34732.3,-0.8154,-0.6603,148.9,96.5,0.541
39.78,31835.3,34676.7,-0.6998,-0.7974,148.9,96.5,0.541
39.8,31734.9,34545.0,-1.1264,-1.1221,148.9,96.5,0.541
39.82,31725.5,34549.9,-1.1662,-1.1102,148.9,96.5,0.541
39.84,31694.0,34539.4,-1.3001,-1.1359,148.9,96.5,0.541
39.86,31844.5,34552.8,-0.6605,-1.103,148.9,96.5,0.541
39.88,31897.2,34761.5,-0.4368,-0.5885,148.9,96.5,0.541
39.9,32033.6,35174.0,0.143,0.4286,148.9,96.5,0.541
39.92,32252.4,35525.4,1.0729,1.2951,148.9,96.5,0.541
39.94,32406.6,35740.8,1.728,1.8263,148.9,96.5,0.541
39.96,32427.5,35652.1,1.8168,1.6074,148.9,96.5,0.541
39.98,32260.9,35567.5,1.1089,1.3988,148.9,96.5,0.541
40.0,32175.0,35387.3,0.7441,0.9547,148.9,96.5,0.541
40.02,32041.9,35230.5,0.1784,0.5681,148.9,96.5,0.541
40.04,32058.3,35111.9,0.2482,0.2756,148.9,96.5,0.541
40.06,32066.4,35131.8,0.2824,0.3246,148.9,96.5,0.541
40.08,32086.6,34968.5,0.3683,-0.078,148.9,96.5,0.541
40.1,32057.1,34789.0,0.2428,-0.5206,148.9,96.5,0.541
40.12,31843.2,34854.0,-0.6661,-0.3604,148.9,96.5,0.541
40.14,31845.3,34718.1,-0.657,-0.6953,148.9,96.5,0.541
40.16,31870.9,34607.7,-0.5482,-0.9675,148.9,96.5,0.541
40.18,31772.4,34704.0,-0.9667,-0.7301,148.9,96.5,0.541
40.2,31802.2,34679.2,-0.8402,-0.7912,148.9,96.5,0.541
40.22,31780.9,34524.7,-0.9308,-1.1723,148.9,96.5,0.541
40.24,31697.8,34451.8,-1.2839,-1.3521,148.9,96.5,0.541
40.26,31736.0,34436.2,-1.1217,-1.3903,148.9,96.5,0.541
40.28,31861.2,34715.9,-0.5896,-0.7008,148.9,96.5,0.541
40.3,32089.7,35102.8,0.3816,0.2532,148.9,96.5,0.541
40.32,32274.1,35431.4,1.1653,1.0635,148.9,96.5,0.541
40.34,32353.3,35787.8,1.5016,1.942,148.9,96.5,0.541
40.36,32408.3,35725.0,1.7354,1.7871,148.9,96.5,0.541
40.38,32358.7,35638.4,1.5246,1.5737,148.9,96.5,0.541
40.4,32247.7,35399.1,1.0528,0.9838,148.9,96.5,0.541
40.42,32111.9,35228.5,0.4759,0.5631,148.9,96.5,0.541
40.44,32111.1,35088.2,0.4723,0.2171,148.9,96.5,0.541
40.46,32006.8,35050.2,0.0292,0.1234,148.9,96.5,0.541
40.48,32039.2,35165.8,0.1668,0.4086,148.9,96.5,0.541
40.5,31973.7,34823.1,-0.1116,-0.4364,148.9,96.5,0.541
40.52,31827.5,34786.4,-0.7329,-0.527,148.9,96.5,0.541
40.54,31859.4,34778.0,-0.5973,-0.5476,148.9,96.5,0.541
40.56,31935.9,34692.2,-0.272,-0.7593,148.9,96.5,0.541
40.58,31792.7,34708.8,-0.8808,-0.7182,148.9,96.5,0.541
40.6,31777.9,34539.3,-0.9437,-1.1362,148.9,96.5,0.541
40.62,31885.7,34535.1,-0.4855,-1.1465,148.9,96.5,0.541
40.64,31738.9,34415.2,-1.1091,-1.4423,148.9,96.5,0.541
40.66,31796.5,34520.3,-0.8644,-1.1831,148.9,96.5,0.541
40.68,31888.9,34676.9,-0.4718,-0.797,148.9,96.5,0.541
40.7,31968.1,35070.6,-0.1352,0.1738,148.9,96.5,0.541
40.72,32187.3,35388.6,0.7963,0.9578,148.9,96.5,0.541
40.74,32285.9,35697.0,1.2152,1.7183,148.9,96.5,0.541
40.76,32360.9,35756.3,1.5341,1.8644,148.9,96.5,0.541
40.78,32306.0,35666.0,1.3007,1.6419,148.9,96.5,0.541
40.8,32250.3,35431.6,1.0641,1.0638,148.9,96.5,0.541
40.82,32032.7,35263.6,0.1395,0.6497,148.9,96.5,0.541
40.84,32070.2,35208.4,0.2988,0.5135,148.9,96.5,0.541
40.86,32079.8,35065.2,0.3396,0.1604,148.9,96.5,0.541
40.88,32055.6,34911.0,0.2365,-0.2198,148.9,96.5,0.541
40.9,32038.0,34992.7,0.1619,-0.0184,148.9,96.5,0.541
40.92,31834.8,34838.8,-0.7017,-0.3978,148.9,96.5,0.541
40.94,31881.1,34715.2,-0.5048,-0.7024,148.9,96.5,0.541
40.96,31729.8,34700.2,-1.1479,-0.7396,148.9,96.5,0.541
40.98,31878.1,34750.7,-0.5179,-0.6149,148.9,96.5,0.541
41.0,31808.9,34728.0,-0.8118,-0.6709,148.9,96.5,0.541
41.02,31729.6,34550.7,-1.1489,-1.1082,148.9,96.5,0.541
41.04,31722.1,34497.3,-1.1808,-1.2398,148.9,96.5,0.541
41.06,31699.6,34426.7,-1.2763,-1.4138,148.9,96.5,0.541
41.08,31724.8,34716.5,-1.169,-0.6994,148.9,96.5,0.541
41.1,31988.5,34962.5,-0.0488,-0.0927,148.9,96.5,0.541
41.12,32220.2,35273.3,0.9362,0.6735,148.9,96.5,0.541
41.14,32304.6,35742.4,1.2947,1.8301,148.9,96.5,0.541
41.16,32358.3,35735.6,1.5229,1.8134,148.9,96.5,0.541
41.18,32286.3,35641.8,1.217,1.5822,148.9,96.5,0.541
41.2,32322.9,35453.1,1.3726,1.117,148.9,96.5,0.541
41.22,32128.9,35235.4,0.5478,0.5802,148.9,96.5,0.541
41.24,32082.3,35081.2,0.3501,0.1998,148.9,96.5,0.541
41.26,32083.0,35097.5,0.3528,0.24,148.9,96.5,0.541
41.28,31963.3,35010.9,-0.1557,0.0265,148.9,96.5,0.541
41.3,31976.0,34913.0,-0.1015,-0.2148,148.9,96.5,0.541
41.32,31889.8,34795.8,-0.4681,-0.5037,148.9,96.5,0.541
41.34,31835.1,34696.3,-0.7003,-0.7491,148.9,96.5,0.541
41.36,31810.8,34637.3,-0.8038,-0.8946,148.9,96.5,0.541
41.38,31856.5,34667.2,-0.6096,-0.8209,148.9,96.5,0.541
41.4,31813.8,34680.6,-0.7909,-0.788,148.9,96.5,0.541
41.42,31814.6,34562.7,-0.7877,-1.0785,148.9,96.5,0.541
41.44,31735.2,34445.7,-1.1251,-1.367,148.9,96.5,0.541
41.46,31797.9,34390.1,-0.8583,-1.5041,148.9,96.5,0.541
41.48,31841.2,34605.8,-0.6743,-0.9723,148.9,96.5,0.541
41.5,31971.1,34940.3,-0.1224,-0.1475,148.9,96.5,0.541
41.52,32103.0,35285.8,0.4381,0.7045,148.9,96.5,0.541
41.54,32291.6,35708.9,1.2395,1.7476,148.9,96.5,0.541
41.56,32339.1,35812.4,1.4413,2.0026,148.9,96.5,0.541
41.58,32359.8,35704.3,1.5292,1.7363,148.9,96.5,0.541
41.6,32245.0,35475.5,1.0413,1.172,148.9,96.5,0.541
41.62,32185.5,35303.4,0.7884,0.7479,148.9,96.5,0.541
41.64,32037.8,35086.4,0.1611,0.2126,148.9,96.5,0.541
41.66,32003.6,35054.2,0.0155,0.1333,148.9,96.5,0.541
41.68,32033.7,35155.4,0.1434,0.3827,148.9,96.5,0.541
41.7,32065.3,34982.7,0.2778,-0.0429,148.9,96.5,0.541
41.72,31914.9,34847.1,-0.3612,-0.3773,148.9,96.5,0.541
41.74,31958.8,34769.4,-0.1747,-0.5689,148.9,96.5,0.541
41.76,31802.4,34696.1,-0.8393,-0.7496,148.9,96.5,0.541
41.78,31837.9,34748.5,-0.6886,-0.6204,148.9,96.5,0.541
41.8,31728.4,34697.2,-1.1537,-0.7468,148.9,96.5,0.541
41.82,31893.2,34557.5,-0.4536,-1.0914,148.9,96.5,0.541
41.84,31788.0,34541.1,-0.9007,-1.1317,148.9,96.5,0.541
41.86,31640.0,34454.3,-1.5294,-1.3459,148.9,96.5,0.541
41.88,31752.8,34499.5,-1.0501,-1.2343,148.9,96.5,0.541
41.9,31910.7,34794.4,-0.379,-0.5072,148.9,96.5,0.541
41.92,32072.5,35153.4,0.3085,0.3779,148.9,96.5,0.541
41.94,32311.1,35545.7,1.3225,1.3453,148.9,96.5,0.541
41.96,32314.9,35712.6,1.3383,1.7566,148.9,96.5,0.541
41.98,32399.5,35685.6,1.6979,1.6901,148.9,96.5,0.541
42.0,32343.2,35572.7,1.4587,1.4117,148.9,96.5,0.541
42.02,32214.9,35353.9,0.9137,0.8723,148.9,96.5,0.541
42.04,32044.8,35199.0,0.1906,0.4903,148.9,96.5,0.541
42.06,32034.5,35165.6,0.1467,0.4081,148.9,96.5,0.541
42.08,32146.6,35095.6,0.6231,0.2353,148.9,96.5,0.541
42.1,32074.2,35069.6,0.3156,0.1713,148.9,96.5,0.541
42.12,31906.1,34850.5,-0.3988,-0.369,148.9,96.5,0.541
42.14,31884.1,34792.9,-0.4923,-0.5111,148.9,96.5,0.541
42.16,31835.6,34660.0,-0.6983,-0.8385,148.9,96.5,0.541
42.18,31782.2,34621.9,-0.9251,-0.9325,148.9,96.5,0.541
42.2,31842.0,34622.9,-0.6712,-0.9302,148.9,96.5,0.541
42.22,31796.8,34609.9,-0.8631,-0.9621,148.9,96.5,0.541
42.24,31669.2,34507.8,-1.4054,-1.2138,148.9,96.5,0.541
42.26,31830.2,34415.7,-0.7214,-1.4409,148.9,96.5,0.541
42.28,31793.4,34598.9,-0.8777,-0.9892,148.9,96.5,0.541
42.3,31822.3,34732.8,-0.7548,-0.6591,148.9,96.5,0.541
42.32,32125.8,35257.0,0.535,0.6333,148.9,96.5,0.541
42.34,32226.1,35590.2,0.9613,1.4548,148.9,96.5,0.541
42.36,32423.2,35728.2,1.7989,1.7952,148.9,96.5,0.541
42.38,32285.2,35658.2,1.2123,1.6227,148.9,96.5,0.541
42.4,32242.5,35664.4,1.0308,1.6377,148.9,96.5,0.541
42.42,32153.7,35397.2,0.6534,0.9791,148.9,96.5,0.541
42.44,32112.9,35188.0,0.4801,0.4632,148.9,96.5,0.541
42.46,32094.5,35062.8,0.4019,0.1546,148.9,96.5,0.541
42.48,32065.6,35059.3,0.2789,0.1458,148.9,96.5,0.541
42.5,32022.5,35023.4,0.0961,0.0575,148.9,96.5,0.541
42.52,31977.5,34896.7,-0.0954,-0.2551,148.9,96.5,0.541
42.54,31978.4,34802.8,-0.0913,-0.4864,148.9,96.5,0.541
42.56,31814.9,34698.5,-0.7863,-0.7438,148.9,96.5,0.541
42.58,31821.1,34676.8,-0.7597,-0.7972,148.9,96.5,0.541
42.6,31819.7,34623.7,-0.7657,-0.9281,148.9,96.5,0.541
42.62,31801.5,34581.8,-0.8433,-1.0314,148.9,96.5,0.541
42.64,31765.3,34594.7,-0.9972,-0.9997,148.9,96.5,0.541
42.66,31752.4,34402.1,-1.0517,-1.4744,148.9,96.5,0.541
42.68,31674.6,34540.2,-1.3825,-1.1341,148.9,96.5,0.541
42.7,31829.2,34700.3,-0.7256,-0.7393,148.9,96.5,0.541
42.72,32027.9,35128.2,0.1187,0.3159,148.9,96.5,0.541
42.74,32222.0,35400.3,0.9438,0.9867,148.9,96.5,0.541
42.76,32319.6,35757.9,1.3585,1.8683,148.9,96.5,0.541
42.78,32318.2,35683.5,1.3526,1.6849,148.9,96.5,0.541
42.8,32299.4,35679.5,1.2725,1.675,148.9,96.5,0.541
42.82,32236.6,35385.2,1.0056,0.9494,148.9,96.5,0.541
42.84,32052.6,35227.9,0.2239,0.5617,148.9,96.5,0.541
42.86,32182.1,35268.0,0.7743,0.6606,148.9,96.5,0.541
42.88,32067.0,35118.1,0.285,0.2909,148.9,96.5,0.541
42.9,32135.6,35024.3,0.5765,0.0596,148.9,96.5,0.541
42.92,31989.3,34995.6,-0.045,-0.0113,148.9,96.5,0.541
42.94,31928.6,34823.6,-0.3032,-0.4354,148.9,96.5,0.541
42.96,31751.8,34698.0,-1.0544,-0.7449,148.9,96.5,0.541
42.98,31846.0,34741.5,-0.6541,-0.6377,148.9,96.5,0.541
43.0,31803.0,34650.2,-0.8368,-0.8629,148.9,96.5,0.541
43.02,31712.7,34638.7,-1.2207,-0.8911,148.9,96.5,0.541
43.04,31802.2,34538.8,-0.8402,-1.1375,148.9,96.5,0.541
43.06,31767.0,34404.2,-0.9899,-1.4693,148.9,96.5,0.541
43.08,31782.6,34530.5,-0.9234,-1.1579,148.9,96.5,0.541
43.1,31850.1,34754.8,-0.6369,-0.6049,148.9,96.5,0.541
43.12,32028.7,35022.5,0.1224,0.0552,148.9,96.5,0.541
43.14,32208.7,35464.5,0.8871,1.1449,148.9,96.5,0.541
43.16,32364.8,35731.3,1.5504,1.8028,148.9,96.5,0.541
43.18,32385.3,35778.2,1.6377,1.9185,148.9,96.5,0.541
43.2,32309.9,35600.8,1.3171,1.4811,148.9,96.5,0.541
43.22,32262.4,35404.4,1.1153,0.9967,148.9,96.5,0.541
43.24,32165.4,35244.4,0.7034,0.6022,148.9,96.5,0.541
43.26,32010.3,35192.7,0.044,0.4749,148.9,96.5,0.541
43.28,31985.1,35123.7,-0.0631,0.3046,148.9,96.5,0.541
43.3,31944.8,35032.5,-0.2344,0.0799,148.9,96.5,0.541
43.32,31930.1,35023.4,-0.2968,0.0574,148.9,96.5,0.541
43.34,31950.0,34825.0,-0.212,-0.4318,148.9,96.5,0.541
43.36,31812.1,34722.0,-0.7983,-0.6858,148.9,96.5,0.541
43.38,31703.6,34669.5,-1.2592,-0.8153,148.9,96.5,0.541
43.4,31917.9,34704.6,-0.3485,-0.7286,148.9,96.5,0.541
43.42,31787.5,34599.7,-0.9029,-0.9873,148.9,96.5,0.541
43.44,31739.8,34532.7,-1.1055,-1.1524,148.9,96.5,0.541
43.46,31749.2,34473.9,-1.0657,-1.2974,148.9,96.5,0.541
43.48,31749.4,34429.6,-1.0645,-1.4068,148.9,96.5,0.541
43.5,31948.7,34708.4,-0.2177,-0.7194,148.9,96.5,0.541
43.52,31950.8,34948.1,-0.2088,-0.1284,148.9,96.5,0.541
43.54,32149.1,35407.1,0.6341,1.0033,148.9,96.5,0.541
43.56,32351.7,35611.4,1.4948,1.5072,148.9,96.5,0.541
43.58,32334.1,35778.2,1.4201,1.9183,148.9,96.5,0.541
43.6,32319.8,35543.0,1.3592,1.3386,148.9,96.5,0.541
43.62,32292.1,35467.3,1.2417,1.1518,148.9,96.5,0.541
43.64,32204.1,35235.1,0.8677,0.5795,148.9,96.5,0.541
43.66,32012.5,35219.0,0.0535,0.5395,148.9,96.5,0.541
43.68,31994.9,35116.1,-0.0214,0.2859,148.9,96.5,0.541
43.7,32047.3,35050.5,0.2012,0.1243,148.9,96.5,0.541
43.72,31904.7,34983.9,-0.4046,-0.0399,148.9,96.5,0.541
43.74,31912.0,34800.9,-0.3737,-0.4913,148.9,96.5,0.541
43.76,31827.1,34681.9,-0.7343,-0.7845,148.9,96.5,0.541
43.78,31821.6,34675.9,-0.7577,-0.7995,148.9,96.5,0.541
43.8,31792.4,34571.6,-0.8819,-1.0566,148.9,96.5,0.541
43.82,31871.4,34569.7,-0.5463,-1.0612,148.9,96.5,0.541
43.84,31746.7,34621.0,-1.0763,-0.9348,148.9,96.5,0.541
43.86,31712.5,34498.7,-1.2214,-1.2364,148.9,96.5,0.541
43.88,31820.3,34468.1,-0.7634,-1.3117,148.9,96.5,0.541
43.9,31850.4,34549.2,-0.6353,-1.1119,148.9,96.5,0.541
43.92,32009.7,34964.1,0.0415,-0.0888,148.9,96.5,0.541
43.94,32129.4,35301.8,0.55,0.7439,148.9,96.5,0.541
43.96,32278.8,35718.3,1.1849,1.7709,148.9,96.5,0.541
43.98,32302.1,35717.8,1.2839,1.7696,148.9,96.5,0.541
44.0,32297.4,35716.1,1.2641,1.7652,148.9,96.5,0.541
44.02,32329.3,35542.1,1.3998,1.3362,148.9,96.5,0.541
44.04,32164.6,35282.8,0.6997,0.6969,148.9,96.5,0.541
44.06,32071.9,35143.9,0.3057,0.3545,148.9,96.5,0.541
44.08,32035.8,35051.1,0.1523,0.1257,148.9,96.5,0.541
44.1,32127.5,34961.9,0.542,-0.0943,148.9,96.5,0.541
44.12,31933.5,35053.8,-0.2823,0.1324,148.9,96.5,0.541
44.14,31979.1,34902.8,-0.0883,-0.2399,148.9,96.5,0.541
44.16,31843.3,34747.9,-0.6656,-0.6219,148.9,96.5,0.541
44.18,31846.6,34632.6,-0.6518,-0.9061,148.9,96.5,0.541
44.2,31774.4,34664.3,-0.9586,-0.828,148.9,96.5,0.541
44.22,31871.9,34561.7,-0.544,-1.0809,148.9,96.5,0.541
44.24,31850.8,34516.1,-0.6336,-1.1935,148.9,96.5,0.541
44.26,31720.5,34490.0,-1.1876,-1.2578,148.9,96.5,0.541
44.28,31681.7,34467.1,-1.3523,-1.3142,148.9,96.5,0.541
44.3,31833.3,34575.4,-0.708,-1.0471,148.9,96.5,0.541
44.32,32037.9,34848.6,0.1614,-0.3736,148.9,96.5,0.541
44.34,32070.7,35322.7,0.3008,0.7953,148.9,96.5,0.541
44.36,32375.2,35615.6,1.5947,1.5174,148.9,96.5,0.541
44.38,32342.6,35763.4,1.456,1.8818,148.9,96.5,0.541
44.4,32332.9,35698.5,1.4149,1.722,148.9,96.5,0.541
44.42,32256.9,35635.6,1.0921,1.5667,148.9,96.5,0.541
44.44,32148.8,35239.1,0.6327,0.5893,148.9,96.5,0.541
44.46,32055.4,35204.6,0.2356,0.5041,148.9,96.5,0.541
44.48,32119.0,35031.4,0.5061,0.077,148.9,96.5,0.541
44.5,32070.7,35059.4,0.3008,0.1462,148.9,96.5,0.541
44.52,31907.2,35024.6,-0.3942,0.0604,148.9,96.5,0.541
44.54,31892.8,34829.0,-0.4553,-0.422,148.9,96.5,0.541
44.56,31859.8,34618.6,-0.5955,-0.9408,148.9,96.5,0.541
44.58,31838.5,34720.9,-0.6862,-0.6885,148.9,96.5,0.541
44.6,31809.7,34741.3,-0.8085,-0.6381,148.9,96.5,0.541
44.62,31820.8,34683.6,-0.7612,-0.7805,148.9,96.5,0.541
44.64,31785.6,34614.4,-0.9107,-0.9509,148.9,96.5,0.541
44.66,31713.2,34446.4,-1.2184,-1.3652,148.9,96.5,0.541
44.68,31774.0,34523.3,-0.9601,-1.1757,148.9,96.5,0.541
44.7,31807.4,34567.1,-0.8184,-1.0677,148.9,96.5,0.541
44.72,31989.0,34805.3,-0.0466,-0.4805,148.9,96.5,0.541
44.74,32166.6,35207.2,0.7081,0.5105,148.9,96.5,0.541
44.76,32315.7,35627.2,1.342,1.546,148.9,96.5,0.541
44.78,32410.6,35719.1,1.7452,1.7726,148.9,96.5,0.541
44.8,32377.4,35713.7,1.604,1.7595,148.9,96.5,0.541
44.82,32200.8,35558.4,0.8534,1.3765,148.9,96.5,0.541
44.84,32215.6,35263.1,0.9165,0.6483,148.9,96.5,0.541
44.86,32028.4,35168.7,0.121,0.4157,148.9,96.5,0.541
