timestamp,raw_red,raw_ir,filtered_red,filtered_ir,heart_rate,spo2,ac_dc_ratio
0.0,31955.1,35079.7,-0.7402,0.9458,142.6,96.4,0.543
0.02,31979.6,35162.8,-0.3313,1.9386,142.6,96.4,0.543
0.04,32033.5,35158.4,0.5711,1.8863,142.6,96.4,0.543
0.06,32088.6,35065.8,1.494,0.7784,142.6,96.4,0.543
0.08,32096.9,35068.3,1.6341,0.8091,142.6,96.4,0.543
0.1,32041.6,35060.4,0.7068,0.7147,142.6,96.4,0.543
0.12,31996.9,34984.2,-0.0415,-0.1965,142.6,96.4,0.543
0.14,31973.7,35002.4,-0.4299,0.021,142.6,96.4,0.543
0.16,32001.9,34979.9,0.0431,-0.2478,142.6,96.4,0.543
0.18,32045.1,34970.6,0.7664,-0.3598,142.6,96.4,0.543
0.2,31919.7,34975.2,-1.3337,-0.3047,142.6,96.4,0.543
0.22,32041.8,34922.9,0.7107,-0.9302,142.6,96.4,0.543
0.24,31965.8,34899.5,-0.5617,-1.2093,142.6,96.4,0.543
0.26,32095.2,34882.5,1.605,-1.4127,142.6,96.4,0.543
0.28,32007.8,35007.0,0.1412,0.0759,142.6,96.4,0.543
0.3,31975.5,34973.1,-0.4,-0.3291,142.6,96.4,0.543
0.32,31946.9,34952.0,-0.879,-0.5824,142.6,96.4,0.543
0.34,31989.3,34922.6,-0.1682,-0.9336,142.6,96.4,0.543
0.36,31916.6,34940.7,-1.3859,-0.7165,142.6,96.4,0.543
0.38,32033.4,34889.9,0.5703,-1.324,142.6,96.4,0.543
0.4,32045.5,35011.6,0.7731,0.1314,142.6,96.4,0.543
0.42,32020.0,35051.3,0.3452,0.6052,142.6,96.4,0.543
0.44,32137.4,35042.6,2.3112,0.5017,142.6,96.4,0.543
0.46,32016.8,35100.2,0.2918,1.1899,142.6,96.4,0.543
0.48,32005.9,35048.0,0.1091,0.5661,142.6,96.4,0.543
0.5,31978.6,35051.1,-0.3481,0.6037,142.6,96.4,0.543
0.52,32082.9,35123.7,1.399,1.4711,142.6,96.4,0.543
0.54,32066.4,35035.2,1.1226,0.4134,142.6,96.4,0.543
0.56,32007.7,34991.9,0.1395,-0.1051,142.6,96.4,0.543
0.58,32045.7,35006.2,0.776,0.0663,142.6,96.4,0.543
0.6,32035.2,35070.0,0.6002,0.8297,142.6,96.4,0.543
0.62,32102.5,34951.1,1.7267,-0.5922,142.6,96.4,0.543
0.64,32052.4,34964.9,0.8882,-0.4271,142.6,96.4,0.543
0.66,31916.1,34926.9,-1.394,-0.8825,142.6,96.4,0.543
0.68,31855.5,34889.8,-2.4086,-1.3256,142.6,96.4,0.543
0.7,31996.1,34900.5,-0.0546,-1.1979,142.6,96.4,0.543
0.72,31969.0,34835.8,-0.5075,-1.9712,142.6,96.4,0.543
0.74,31944.1,34953.6,-0.9258,-0.5623,142.6,96.4,0.543
0.76,31906.5,34920.9,-1.5553,-0.9536,142.6,96.4,0.543
0.78,31995.9,34874.6,-0.0578,-1.5076,142.6,96.4,0.543
0.8,32020.2,34925.1,0.3496,-0.9035,142.6,96.4,0.543
0.82,32022.2,34935.0,0.3834,-0.7851,142.6,96.4,0.543
0.84,31962.1,35032.1,-0.6242,0.376,142.6,96.4,0.543
0.86,32083.5,35003.6,1.4096,0.0351,142.6,96.4,0.543
0.88,32077.3,35117.6,1.305,1.3981,142.6,96.4,0.543
0.9,32022.5,35126.7,0.3879,1.5076,142.6,96.4,0.543
0.92,32128.7,35052.2,2.165,0.6164,142.6,96.4,0.543
0.94,31931.0,35114.6,-1.1437,1.3628,142.6,96.4,0.543
0.96,32066.9,35021.3,1.1308,0.247,142.6,96.4,0.543
0.98,32071.9,35102.0,1.2156,1.2123,142.6,96.4,0.543
1.0,32000.6,35066.8,0.0211,0.7904,142.6,96.4,0.543
1.02,31993.8,35041.1,-0.0924,0.4841,142.6,96.4,0.543
1.04,32007.0,35061.1,0.1288,0.7233,142.6,96.4,0.543
1.06,31968.1,34899.8,-0.523,-1.2059,142.6,96.4,0.543
1.08,31889.1,34976.3,-1.8462,-0.2916,142.6,96.4,0.543
1.1,31940.0,34912.8,-0.9933,-1.0505,142.6,96.4,0.543
1.12,31956.2,34899.5,-0.7217,-1.2098,142.6,96.4,0.543
1.14,31971.6,34905.1,-0.4644,-1.1423,142.6,96.4,0.543
1.16,31997.0,34919.4,-0.0396,-0.9713,142.6,96.4,0.543
1.18,31998.7,34943.1,-0.011,-0.6879,142.6,96.4,0.543
1.2,31963.3,34829.4,-0.6043,-2.0477,142.6,96.4,0.543
1.22,31923.2,34950.1,-1.2749,-0.6046,142.6,96.4,0.543
1.24,32036.5,34934.6,0.6228,-0.7901,142.6,96.4,0.543
1.26,31990.3,35096.6,-0.1514,1.1469,142.6,96.4,0.543
1.28,32023.0,35104.9,0.3967,1.247,142.6,96.4,0.543
1.3,32083.8,35053.1,1.4147,0.6274,142.6,96.4,0.543
1.32,32112.8,35089.5,1.9004,1.0621,142.6,96.4,0.543
1.34,32091.1,35079.4,1.5371,0.942,142.6,96.4,0.543
1.36,31983.4,35017.7,-0.2675,0.204,142.6,96.4,0.543
1.38,32014.0,35116.5,0.2447,1.3856,142.6,96.4,0.543
1.4,31911.8,34993.9,-1.4657,-0.0812,142.6,96.4,0.543
1.42,31988.0,35059.6,-0.19,0.7044,142.6,96.4,0.543
1.44,32035.7,34981.9,0.6089,-0.2241,142.6,96.4,0.543
1.46,31931.4,34979.7,-1.1378,-0.2508,142.6,96.4,0.543
1.48,31858.2,34991.2,-2.364,-0.1134,142.6,96.4,0.543
1.5,31938.9,35037.3,-1.0125,0.4383,142.6,96.4,0.543
1.52,31940.6,34996.4,-0.9837,-0.0508,142.6,96.4,0.543
1.54,32040.8,34983.9,0.6939,-0.2003,142.6,96.4,0.543
1.56,32042.9,34934.2,0.7296,-0.7951,142.6,96.4,0.543
1.58,31909.9,34911.7,-1.4976,-1.064,142.6,96.4,0.543
1.6,31913.0,34914.8,-1.4463,-1.0262,142.6,96.4,0.543
1.62,31843.8,34904.7,-2.6049,-1.1477,142.6,96.4,0.543
1.64,32034.5,34912.1,0.5888,-1.0588,142.6,96.4,0.543
1.66,31978.5,34886.1,-0.3487,-1.3698,142.6,96.4,0.543
1.68,31967.0,35027.3,-0.5419,0.3184,142.6,96.4,0.543
1.7,31981.9,35114.3,-0.2924,1.3586,142.6,96.4,0.543
1.72,32051.7,35138.5,0.8768,1.6483,142.6,96.4,0.543
1.74,32077.3,35076.4,1.3056,0.9053,142.6,96.4,0.543
1.76,32073.9,35056.3,1.2476,0.6659,142.6,96.4,0.543
1.78,32017.1,34982.3,0.2977,-0.2194,142.6,96.4,0.543
1.8,32076.9,35070.7,1.2979,0.8373,142.6,96.4,0.543
1.82,31943.7,35016.5,-0.9317,0.1891,142.6,96.4,0.543
1.84,32003.4,35027.7,0.0677,0.324,142.6,96.4,0.543
1.86,32030.6,34981.0,0.5227,-0.2347,142.6,96.4,0.543
1.88,31964.1,35013.4,-0.5908,0.1525,142.6,96.4,0.543
1.9,32018.3,34957.0,0.3168,-0.5216,142.6,96.4,0.543
1.92,31944.8,35006.2,-0.914,0.0659,142.6,96.4,0.543
1.94,31983.2,34908.7,-0.2706,-1.0999,142.6,96.4,0.543
1.96,31988.4,34926.5,-0.184,-0.887,142.6,96.4,0.543
1.98,31987.0,34911.5,-0.2066,-1.0658,142.6,96.4,0.543
2.0,31923.5,34945.7,-1.2693,-0.6571,142.6,96.4,0.543
2.02,31993.4,34825.4,-0.1001,-2.0957,142.6,96.4,0.543
2.04,31900.4,34895.6,-1.6564,-1.2568,142.6,96.4,0.543
2.06,31941.4,34937.9,-0.9696,-0.7511,142.6,96.4,0.543
2.08,32012.1,34916.9,0.2138,-1.0021,142.6,96.4,0.543
2.1,31951.9,35101.9,-0.7942,1.2105,142.6,96.4,0.543
2.12,32046.3,35032.2,0.7868,0.3774,142.6,96.4,0.543
2.14,32053.8,35103.9,0.9115,1.2343,142.6,96.4,0.543
2.16,32105.2,35153.4,1.7723,1.8264,142.6,96.4,0.543
2.18,32082.4,35127.9,1.391,1.5215,142.6,96.4,0.543
2.2,31956.5,35071.5,-0.7176,0.8468,142.6,96.4,0.543
2.22,32035.3,35059.4,0.6027,0.7024,142.6,96.4,0.543
2.24,32018.0,35049.1,0.3117,0.5789,142.6,96.4,0.543
2.26,32017.0,34961.3,0.2957,-0.4711,142.6,96.4,0.543
2.28,31975.7,35011.6,-0.3964,0.1307,142.6,96.4,0.543
2.3,32014.6,34986.0,0.2549,-0.1758,142.6,96.4,0.543
2.32,32055.1,34920.0,0.9328,-0.9651,142.6,96.4,0.543
2.34,31995.7,35033.4,-0.0605,0.3911,142.6,96.4,0.543
2.36,32016.5,34893.4,0.2873,-1.2827,142.6,96.4,0.543
2.38,31988.1,34970.5,-0.1891,-0.3611,142.6,96.4,0.543
2.4,31951.5,34842.0,-0.8015,-1.8973,142.6,96.4,0.543
2.42,32024.3,34892.5,0.417,-1.2929,142.6,96.4,0.543
2.44,31974.4,34989.2,-0.418,-0.1375,142.6,96.4,0.543
2.46,31922.1,34877.9,-1.2941,-1.4678,142.6,96.4,0.543
2.48,31962.4,34932.3,-0.6179,-0.8178,142.6,96.4,0.543
2.5,31851.8,34963.4,-2.4704,-0.4453,142.6,96.4,0.543
2.52,31995.1,34989.8,-0.0712,-0.1293,142.6,96.4,0.543
2.54,32065.4,35062.6,1.1064,0.741,142.6,96.4,0.543
2.56,32024.0,35020.4,0.4135,0.2363,142.6,96.4,0.543
2.58,32026.8,35139.2,0.4602,1.6572,142.6,96.4,0.543
2.6,32020.7,35198.2,0.3575,2.3625,142.6,96.4,0.543
2.62,32020.0,35132.5,0.3455,1.5765,142.6,96.4,0.543
2.64,32064.6,35066.9,1.0927,0.7921,142.6,96.4,0.543
2.66,32062.0,34978.2,1.0494,-0.2686,142.6,96.4,0.543
2.68,31974.3,35029.9,-0.4186,0.3501,142.6,96.4,0.543
2.7,31990.7,35028.6,-0.1449,0.3342,142.6,96.4,0.543
2.72,31910.0,34944.3,-1.4954,-0.6739,142.6,96.4,0.543
2.74,32005.9,34988.5,0.1094,-0.1449,142.6,96.4,0.543
2.76,31997.5,34915.8,-0.0302,-1.0153,142.6,96.4,0.543
2.78,31989.4,34924.4,-0.1664,-0.9124,142.6,96.4,0.543
2.8,31972.9,34950.5,-0.443,-0.5998,142.6,96.4,0.543
2.82,31867.8,34886.8,-2.2032,-1.3621,142.6,96.4,0.543
2.84,31962.6,34973.6,-0.6157,-0.3234,142.6,96.4,0.543
2.86,31962.4,34876.6,-0.6193,-1.484,142.6,96.4,0.543
2.88,31940.5,34981.2,-0.985,-0.2324,142.6,96.4,0.543
2.9,31942.3,34941.6,-0.9557,-0.7065,142.6,96.4,0.543
2.92,31970.2,35025.5,-0.4877,0.2974,142.6,96.4,0.543
2.94,31976.5,35014.4,-0.3818,0.164,142.6,96.4,0.543
2.96,31948.8,35065.6,-0.8463,0.7768,142.6,96.4,0.543
2.98,32011.7,35241.1,0.2068,2.8754,142.6,96.4,0.543
3.0,31987.6,35177.8,-0.1963,2.1187,142.6,96.4,0.543
3.02,32061.6,35207.0,1.0421,2.4678,142.6,96.4,0.543
3.04,32029.7,35105.4,0.5082,1.2523,142.6,96.4,0.543
3.06,32020.2,34976.3,0.3494,-0.2918,142.6,96.4,0.543
3.08,32005.6,35033.3,0.1049,0.3904,142.6,96.4,0.543
3.1,32035.3,35045.2,0.6013,0.5332,142.6,96.4,0.543
3.12,31986.5,35060.4,-0.2154,0.7139,142.6,96.4,0.543
3.14,32014.7,35034.3,0.2572,0.4026,142.6,96.4,0.543
3.16,31995.6,34950.2,-0.0634,-0.604,142.6,96.4,0.543
3.18,32058.1,34936.3,0.9836,-0.7701,142.6,96.4,0.543
3.2,31976.9,34936.4,-0.3754,-0.7688,142.6,96.4,0.543
3.22,32006.3,34961.7,0.1169,-0.4653,142.6,96.4,0.543
3.24,31943.8,34983.8,-0.9294,-0.2022,142.6,96.4,0.543
3.26,31923.0,34889.1,-1.2785,-1.3346,142.6,96.4,0.543
3.28,31900.4,34845.4,-1.6575,-1.8569,142.6,96.4,0.543
3.3,31958.4,34932.5,-0.6858,-0.8156,142.6,96.4,0.543
3.32,31999.3,34951.0,-0.0014,-0.5935,142.6,96.4,0.543
3.34,31969.1,34927.5,-0.5059,-0.8745,142.6,96.4,0.543
3.36,32126.5,35009.0,2.1285,0.0993,142.6,96.4,0.543
3.38,32066.6,35080.0,1.1257,0.949,142.6,96.4,0.543
3.4,32061.7,35094.7,1.044,1.1248,142.6,96.4,0.543
3.42,32107.4,35153.4,1.8097,1.8263,142.6,96.4,0.543
3.44,32059.5,35125.9,1.0078,1.4972,142.6,96.4,0.543
3.46,31951.1,35015.2,-0.8084,0.1742,142.6,96.4,0.543
3.48,32009.0,34999.7,0.1615,-0.0115,142.6,96.4,0.543
3.5,32010.3,35092.8,0.1837,1.1018,142.6,96.4,0.543
3.52,31952.3,35032.8,-0.7875,0.3849,142.6,96.4,0.543
3.54,31961.2,35044.8,-0.6394,0.5274,142.6,96.4,0.543
3.56,32048.1,35003.3,0.8162,0.0319,142.6,96.4,0.543
3.58,31922.9,35042.4,-1.2801,0.4989,142.6,96.4,0.543
3.6,32002.5,34960.3,0.0531,-0.483,142.6,96.4,0.543
3.62,31952.6,34983.0,-0.7835,-0.2115,142.6,96.4,0.543
3.64,32125.8,34948.5,2.1173,-0.6242,142.6,96.4,0.543
3.66,31932.0,34940.0,-1.1282,-0.7248,142.6,96.4,0.543
3.68,32002.9,34822.7,0.0601,-2.1276,142.6,96.4,0.543
3.7,31940.6,34981.1,-0.9833,-0.2342,142.6,96.4,0.543
3.72,31947.4,34921.2,-0.869,-0.95,142.6,96.4,0.543
3.74,32006.3,34875.0,0.1166,-1.5026,142.6,96.4,0.543
3.76,31998.4,34911.7,-0.016,-1.0641,142.6,96.4,0.543
3.78,32073.1,35066.2,1.2354,0.7836,142.6,96.4,0.543
3.8,32021.3,35106.7,0.3672,1.2687,142.6,96.4,0.543
3.82,32077.5,35087.2,1.3088,1.0354,142.6,96.4,0.543
3.84,32026.8,35052.7,0.4594,0.623,142.6,96.4,0.543
3.86,32005.2,35202.6,0.0972,2.4145,142.6,96.4,0.543
3.88,31989.9,35096.5,-0.1579,1.1464,142.6,96.4,0.543
3.9,31955.0,34960.4,-0.7419,-0.482,142.6,96.4,0.543
3.92,31956.6,34967.7,-0.7157,-0.3946,142.6,96.4,0.543
3.94,32013.5,35092.5,0.2369,1.0986,142.6,96.4,0.543
3.96,32085.5,34977.5,1.443,-0.2774,142.6,96.4,0.543
3.98,31959.7,34949.3,-0.6642,-0.6147,142.6,96.4,0.543
4.0,32099.2,34948.4,1.6714,-0.6245,142.6,96.4,0.543
4.02,31936.7,34964.1,-1.0487,-0.4368,142.6,96.4,0.543
4.04,31991.5,34879.5,-0.1322,-1.4488,142.6,96.4,0.543
4.06,31983.3,34852.9,-0.2689,-1.7664,142.6,96.4,0.543
4.08,32006.8,34972.6,0.1244,-0.3354,142.6,96.4,0.543
4.1,31974.1,34948.2,-0.4223,-0.6271,142.6,96.4,0.543
4.12,31912.6,34876.3,-1.4532,-1.4868,142.6,96.4,0.543
4.14,31942.0,34893.8,-0.9597,-1.2784,142.6,96.4,0.543
4.16,32044.8,34936.2,0.7605,-0.7712,142.6,96.4,0.543
4.18,32069.7,34953.2,1.1779,-0.5674,142.6,96.4,0.543
4.2,31955.0,35097.8,-0.742,1.1614,142.6,96.4,0.543
4.22,31984.9,35036.4,-0.2421,0.4274,142.6,96.4,0.543
4.24,32112.1,35190.1,1.8882,2.2657,142.6,96.4,0.543
4.26,32008.2,35099.5,0.1487,1.1818,142.6,96.4,0.543
4.28,32094.9,35095.1,1.6,1.1295,142.6,96.4,0.543
4.3,31945.7,35125.7,-0.8986,1.4952,142.6,96.4,0.543
4.32,31993.6,35009.5,-0.0967,0.1061,142.6,96.4,0.543
4.34,31989.7,35152.3,-0.162,1.8131,142.6,96.4,0.543
4.36,31987.0,35025.7,-0.2063,0.2995,142.6,96.4,0.543
4.38,31969.3,34991.9,-0.5027,-0.1051,142.6,96.4,0.543
4.4,32002.6,35037.6,0.054,0.4419,142.6,96.4,0.543
4.42,32036.5,34946.9,0.6221,-0.6431,142.6,96.4,0.543
4.44,31964.5,34982.8,-0.5843,-0.2133,142.6,96.4,0.543
4.46,32020.8,34959.2,0.359,-0.4962,142.6,96.4,0.543
4.48,31956.6,34964.8,-0.7157,-0.4286,142.6,96.4,0.543
4.5,32013.5,35007.6,0.2377,0.0831,142.6,96.4,0.543
4.52,32010.4,34962.0,0.1854,-0.4627,142.6,96.4,0.543
4.54,31971.4,34912.3,-0.4679,-1.0566,142.6,96.4,0.543
4.56,32020.2,34947.7,0.3488,-0.6331,142.6,96.4,0.543
4.58,31972.4,34940.9,-0.4507,-0.7152,142.6,96.4,0.543
4.6,32062.5,34915.6,1.0571,-1.0173,142.6,96.4,0.543
4.62,32069.7,34981.6,1.1776,-0.2283,142.6,96.4,0.543
4.64,32062.3,35009.3,1.0537,0.1034,142.6,96.4,0.543
4.66,31975.1,35182.1,-0.406,2.1694,142.6,96.4,0.543
4.68,32069.5,35137.2,1.1742,1.6329,142.6,96.4,0.543
4.7,32061.5,35118.3,1.0414,1.4069,142.6,96.4,0.543
4.72,32058.4,35105.0,0.9887,1.2474,142.6,96.4,0.543
4.74,32022.0,35134.7,0.3786,1.6035,142.6,96.4,0.543
4.76,31990.0,35051.4,-0.1564,0.6063,142.6,96.4,0.543
4.78,32061.2,34943.6,1.0357,-0.6826,142.6,96.4,0.543
4.8,31989.7,34962.1,-0.1622,-0.4607,142.6,96.4,0.543
4.82,31993.2,35090.2,-0.1038,1.0707,142.6,96.4,0.543
4.84,32060.5,34982.4,1.0235,-0.2183,142.6,96.4,0.543
4.86,31993.4,34923.1,-0.0991,-0.9279,142.6,96.4,0.543
4.88,31938.7,34907.6,-1.0163,-1.1133,142.6,96.4,0.543
4.9,31921.6,34864.3,-1.3013,-1.6302,142.6,96.4,0.543
4.92,32020.7,34937.3,0.3576,-0.7574,142.6,96.4,0.543
4.94,32037.8,34966.7,0.6433,-0.4062,142.6,96.4,0.543
4.96,32012.3,34904.7,0.2168,-1.1474,142.6,96.4,0.543
4.98,31915.9,34840.9,-1.3973,-1.9104,142.6,96.4,0.543
5.0,31987.1,34899.8,-0.2058,-1.2066,142.6,96.4,0.543
5.02,31883.2,34861.8,-1.9442,-1.6602,142.6,96.4,0.543
5.04,32002.0,35011.8,0.0445,0.1335,142.6,96.4,0.543
5.06,32038.1,35078.9,0.6496,0.9362,142.6,96.4,0.543
5.08,32037.3,35137.1,0.636,1.6314,142.6,96.4,0.543
5.1,32080.6,35006.2,1.3609,0.0658,142.6,96.4,0.543
5.12,32162.3,35099.7,2.7287,1.1839,142.6,96.4,0.543
5.14,31996.1,35026.8,-0.0543,0.3125,142.6,96.4,0.543
5.16,32135.3,35103.8,2.2766,1.2329,142.6,96.4,0.543
5.18,31975.7,34964.2,-0.3959,-0.436,142.6,96.4,0.543
5.2,32010.1,35036.0,0.1806,0.4228,142.6,96.4,0.543
5.22,32092.6,35077.1,1.5615,0.9145,142.6,96.4,0.543
5.24,31933.0,35080.0,-1.1103,0.9484,142.6,96.4,0.543
5.26,31999.2,34934.1,-0.0022,-0.7956,142.6,96.4,0.543
5.28,32001.7,34974.5,0.0387,-0.3125,142.6,96.4,0.543
5.3,31977.8,34944.1,-0.3615,-0.6759,142.6,96.4,0.543
5.32,32043.3,34909.9,0.7357,-1.0855,142.6,96.4,0.543
5.34,31996.1,34981.4,-0.054,-0.2298,142.6,96.4,0.543
5.36,31935.3,34913.1,-1.0731,-1.0474,142.6,96.4,0.543
5.38,31994.8,34920.8,-0.0757,-0.9552,142.6,96.4,0.543
5.4,31997.7,34860.6,-0.0281,-1.6749,142.6,96.4,0.543
5.42,32011.8,34910.3,0.2085,-1.0809,142.6,96.4,0.543
5.44,32046.9,34985.7,0.7967,-0.1791,142.6,96.4,0.543
5.46,31946.8,35064.0,-0.8793,0.7576,142.6,96.4,0.543
5.48,32075.0,35036.4,1.2674,0.4272,142.6,96.4,0.543
5.5,32031.2,35144.8,0.5325,1.724,142.6,96.4,0.543
5.52,32057.1,35068.1,0.9676,0.806,142.6,96.4,0.543
5.54,31949.6,35185.1,-0.833,2.2056,142.6,96.4,0.543
5.56,32097.5,35107.0,1.6438,1.2722,142.6,96.4,0.543
5.58,32090.2,35092.2,1.5213,1.095,142.6,96.4,0.543
5.6,32090.5,35018.4,1.527,0.2117,142.6,96.4,0.543
5.62,31963.3,34998.1,-0.6035,-0.0303,142.6,96.4,0.543
5.64,32013.0,34981.3,0.2289,-0.2319,142.6,96.4,0.543
5.66,31985.0,34932.0,-0.2396,-0.8209,142.6,96.4,0.543
5.68,32077.2,34979.5,1.3032,-0.2533,142.6,96.4,0.543
5.7,32046.8,35009.2,0.7949,0.1027,142.6,96.4,0.543
5.72,32002.9,34919.2,0.059,-0.9737,142.6,96.4,0.543
5.74,32020.0,34938.1,0.3461,-0.7484,142.6,96.4,0.543
5.76,32025.6,34944.2,0.4394,-0.6747,142.6,96.4,0.543
5.78,31941.4,34972.0,-0.9695,-0.3426,142.6,96.4,0.543
5.8,31942.0,34925.7,-0.9606,-0.8963,142.6,96.4,0.543
5.82,31902.3,34918.7,-1.625,-0.98,142.6,96.4,0.543
5.84,32031.9,34931.3,0.5451,-0.8294,142.6,96.4,0.543
5.86,31950.4,34989.5,-0.8195,-0.1329,142.6,96.4,0.543
5.88,31947.4,34983.3,-0.8704,-0.2076,142.6,96.4,0.543
5.9,32040.3,35085.5,0.6855,1.0147,142.6,96.4,0.543
5.92,31982.4,35088.7,-0.2839,1.0529,142.6,96.4,0.543
5.94,32058.8,35142.0,0.9955,1.6908,142.6,96.4,0.543
5.96,32069.8,35072.2,1.1796,0.8561,142.6,96.4,0.543
5.98,32012.5,35071.5,0.2196,0.8471,142.6,96.4,0.543
6.0,32012.8,35071.5,0.2248,0.8469,142.6,96.4,0.543
6.02,31988.2,35014.4,-0.1864,0.1649,142.6,96.4,0.543
6.04,31981.9,35110.4,-0.2928,1.3127,142.6,96.4,0.543
6.06,32073.0,35020.3,1.234,0.2348,142.6,96.4,0.543
6.08,32006.6,35004.1,0.1206,0.0417,142.6,96.4,0.543
6.1,31885.3,35035.5,-1.9093,0.4165,142.6,96.4,0.543
6.12,31923.2,35007.9,-1.2743,0.087,142.6,96.4,0.543
6.14,31953.2,34955.0,-0.7725,-0.5458,142.6,96.4,0.543
6.16,32003.9,34946.1,0.0756,-0.6528,142.6,96.4,0.543
6.18,31952.5,34981.5,-0.784,-0.2295,142.6,96.4,0.543
6.2,32035.4,34947.1,0.6036,-0.6406,142.6,96.4,0.543
6.22,32024.9,34917.4,0.427,-0.9954,142.6,96.4,0.543
6.24,31987.9,34938.1,-0.1918,-0.7484,142.6,96.4,0.543
6.26,31961.2,34902.9,-0.6383,-1.1685,142.6,96.4,0.543
6.28,32052.1,34939.4,0.8826,-0.7325,142.6,96.4,0.543
6.3,32025.1,35090.0,0.4308,1.0683,142.6,96.4,0.543
6.32,31944.5,34957.4,-0.9178,-0.5174,142.6,96.4,0.543
6.34,32068.2,35154.5,1.1522,1.8398,142.6,96.4,0.543
6.36,31997.1,35152.8,-0.0373,1.8192,142.6,96.4,0.543
6.38,32033.3,35102.5,0.5688,1.2176,142.6,96.4,0.543
6.4,32029.1,35082.8,0.4977,0.982,142.6,96.4,0.543
6.42,31991.0,35122.8,-0.1403,1.4603,142.6,96.4,0.543
6.44,31961.2,35090.0,-0.6384,1.0685,142.6,96.4,0.543
6.46,32067.7,34926.6,1.1448,-0.8854,142.6,96.4,0.543
6.48,32005.4,34960.6,0.1018,-0.4786,142.6,96.4,0.543
6.5,32003.5,34986.7,0.0691,-0.1673,142.6,96.4,0.543
6.52,31951.4,34984.4,-0.8032,-0.1942,142.6,96.4,0.543
6.54,31979.5,34888.2,-0.3318,-1.3453,142.6,96.4,0.543
6.56,31920.2,34971.8,-1.3259,-0.3448,142.6,96.4,0.543
6.58,31928.1,34924.1,-1.1935,-0.9154,142.6,96.4,0.543
6.6,31978.7,34858.4,-0.3466,-1.701,142.6,96.4,0.543
6.62,31946.3,34933.8,-0.888,-0.7991,142.6,96.4,0.543
6.64,31889.4,34881.9,-1.8418,-1.4208,142.6,96.4,0.543
6.66,31994.0,34966.2,-0.0893,-0.4122,142.6,96.4,0.543
6.68,31971.1,34828.6,-0.4725,-2.0573,142.6,96.4,0.543
6.7,31948.1,34907.2,-0.8589,-1.1175,142.6,96.4,0.543
6.72,31995.5,35033.3,-0.0644,0.3908,142.6,96.4,0.543
6.74,32053.8,35105.1,0.9117,1.2489,142.6,96.4,0.543
6.76,31998.6,35141.8,-0.0131,1.6883,142.6,96.4,0.543
6.78,32132.5,35192.3,2.23,2.2918,142.6,96.4,0.543
6.8,32028.1,35068.4,0.4816,0.8106,142.6,96.4,0.543
6.82,32096.3,34990.5,1.6227,-0.1214,142.6,96.4,0.543
6.84,32042.1,34998.3,0.7166,-0.0276,142.6,96.4,0.543
6.86,32033.8,35089.5,0.5776,1.0627,142.6,96.4,0.543
6.88,32015.4,34937.0,0.2696,-0.7611,142.6,96.4,0.543
6.9,32019.7,35081.4,0.3406,0.966,142.6,96.4,0.543
6.92,31938.1,34929.1,-1.0256,-0.8559,142.6,96.4,0.543
6.94,32024.6,35008.6,0.423,0.0949,142.6,96.4,0.543
6.96,32042.3,34972.4,0.7191,-0.3377,142.6,96.4,0.543
6.98,31952.4,34976.1,-0.7865,-0.2937,142.6,96.4,0.543
7.0,31902.1,34965.9,-1.6286,-0.4157,142.6,96.4,0.543
7.02,31980.8,34965.8,-0.3109,-0.4174,142.6,96.4,0.543
7.04,31922.7,34890.2,-1.2831,-1.3212,142.6,96.4,0.543
7.06,31850.1,34956.0,-2.499,-0.5344,142.6,96.4,0.543
7.08,31980.3,34919.1,-0.3196,-0.9756,142.6,96.4,0.543
7.1,31965.5,34890.2,-0.5676,-1.3212,142.6,96.4,0.543
7.12,31967.0,34918.4,-0.5424,-0.9837,142.6,96.4,0.543
7.14,32051.1,35048.4,0.8658,0.5704,142.6,96.4,0.543
7.16,31999.3,34963.9,-0.0008,-0.4396,142.6,96.4,0.543
7.18,32070.6,35109.1,1.1938,1.2973,142.6,96.4,0.543
7.2,32086.8,35044.5,1.4647,0.5238,142.6,96.4,0.543
7.22,32069.2,35067.6,1.1704,0.8009,142.6,96.4,0.543
7.24,32045.4,35101.2,0.7709,1.2022,142.6,96.4,0.543
7.26,32073.5,35091.2,1.2423,1.0823,142.6,96.4,0.543
7.28,31964.8,35082.3,-0.5777,0.9766,142.6,96.4,0.543
7.3,32052.6,34982.3,0.8925,-0.22,142.6,96.4,0.543
7.32,32076.1,34963.7,1.285,-0.4416,142.6,96.4,0.543
7.34,32037.8,34905.5,0.6443,-1.138,142.6,96.4,0.543
7.36,31958.0,34937.4,-0.6928,-0.7559,142.6,96.4,0.543
7.38,31998.1,35033.5,-0.0203,0.393,142.6,96.4,0.543
7.4,31996.5,34944.2,-0.0471,-0.6756,142.6,96.4,0.543
7.42,32068.9,34937.8,1.165,-0.7522,142.6,96.4,0.543
7.44,31922.7,34998.9,-1.2833,-0.0216,142.6,96.4,0.543
7.46,31928.8,34987.0,-1.1815,-0.1636,142.6,96.4,0.543
7.48,31946.4,34950.5,-0.8858,-0.6004,142.6,96.4,0.543
7.5,31912.2,34819.1,-1.4596,-2.1712,142.6,96.4,0.543
7.52,31967.5,34879.6,-0.5334,-1.4473,142.6,96.4,0.543
7.54,32041.1,34922.0,0.6987,-0.9411,142.6,96.4,0.543
7.56,31951.5,35023.9,-0.8019,0.2784,142.6,96.4,0.543
7.58,32041.9,35023.6,0.7124,0.2748,142.6,96.4,0.543
7.6,32065.6,35110.7,1.1097,1.3164,142.6,96.4,0.543
7.62,32075.8,35176.1,1.2804,2.0979,142.6,96.4,0.543
7.64,32073.0,35126.1,1.2332,1.4996,142.6,96.4,0.543
7.66,31996.2,35127.8,-0.0535,1.5199,142.6,96.4,0.543
7.68,32018.9,35068.0,0.3267,0.8049,142.6,96.4,0.543
7.7,31992.5,35043.3,-0.115,0.5101,142.6,96.4,0.543
7.72,32058.3,34960.3,0.9866,-0.4821,142.6,96.4,0.543
7.74,31966.5,35058.0,-0.5499,0.6855,142.6,96.4,0.543
7.76,31943.6,34997.0,-0.9341,-0.0441,142.6,96.4,0.543
7.78,32026.2,34998.0,0.449,-0.0314,142.6,96.4,0.543
7.8,32075.6,34974.6,1.2761,-0.3121,142.6,96.4,0.543
7.82,32025.4,35039.7,0.4366,0.467,142.6,96.4,0.543
7.84,32121.9,34996.2,2.0519,-0.0535,142.6,96.4,0.543
7.86,32063.9,35004.4,1.081,0.0445,142.6,96.4,0.543
7.88,31949.2,34926.0,-0.8398,-0.8927,142.6,96.4,0.543
7.9,31941.1,34908.3,-0.9754,-1.105,142.6,96.4,0.543
7.92,32017.2,34890.1,0.2985,-1.3218,142.6,96.4,0.543
7.94,31972.8,35052.6,-0.4451,0.6213,142.6,96.4,0.543
7.96,32047.7,34868.9,0.8092,-1.5754,142.6,96.4,0.543
7.98,32046.4,35093.2,0.7872,1.1067,142.6,96.4,0.543
8.0,31988.6,34956.9,-0.1799,-0.5235,142.6,96.4,0.543
8.02,32025.7,35191.7,0.4415,2.2851,142.6,96.4,0.543
8.04,32112.6,35084.8,1.8955,1.0067,142.6,96.4,0.543
8.06,32108.4,35087.2,1.8252,1.0348,142.6,96.4,0.543
8.08,32044.1,35077.8,0.7486,0.923,142.6,96.4,0.543
8.1,31975.1,35070.2,-0.4062,0.8318,142.6,96.4,0.543
8.12,31946.1,35047.2,-0.8909,0.5561,142.6,96.4,0.543
8.14,32019.0,34962.4,0.3297,-0.4578,142.6,96.4,0.543
8.16,31932.8,35075.8,-1.1137,0.8982,142.6,96.4,0.543
8.18,32012.2,35039.0,0.2148,0.4589,142.6,96.4,0.543
8.2,31965.7,34939.1,-0.5636,-0.7367,142.6,96.4,0.543
8.22,31962.0,34974.0,-0.6246,-0.3194,142.6,96.4,0.543
8.24,32025.5,34882.3,0.4383,-1.4156,142.6,96.4,0.543
8.26,32026.0,34936.9,0.4455,-0.762,142.6,96.4,0.543
8.28,31986.4,34991.4,-0.2165,-0.1112,142.6,96.4,0.543
8.3,31899.8,34911.4,-1.6676,-1.0669,142.6,96.4,0.543
8.32,31982.4,34909.8,-0.2835,-1.0868,142.6,96.4,0.543
8.34,31919.6,34887.4,-1.3347,-1.3541,142.6,96.4,0.543
8.36,31946.4,34894.8,-0.8869,-1.2653,142.6,96.4,0.543
8.38,31946.9,34931.4,-0.8788,-0.8285,142.6,96.4,0.543
8.4,32021.4,34969.7,0.3693,-0.3697,142.6,96.4,0.543
8.42,31983.8,35032.8,-0.2609,0.3838,142.6,96.4,0.543
8.44,32120.2,35143.1,2.0239,1.7034,142.6,96.4,0.543
8.46,32107.2,35128.5,1.8053,1.5289,142.6,96.4,0.543
8.48,32055.1,35154.6,0.9341,1.8405,142.6,96.4,0.543
8.5,32136.2,35192.8,2.2912,2.2981,142.6,96.4,0.543
8.52,31984.8,35130.4,-0.244,1.5517,142.6,96.4,0.543
8.54,31986.1,34961.5,-0.2214,-0.4685,142.6,96.4,0.543
8.56,32046.1,35062.1,0.7835,0.735,142.6,96.4,0.543
8.58,31953.6,35064.8,-0.7656,0.767,142.6,96.4,0.543
8.6,31999.7,35011.4,0.0062,0.1287,142.6,96.4,0.543
8.62,31854.9,34950.6,-2.419,-0.5989,142.6,96.4,0.543
8.64,31981.8,34915.1,-0.2941,-1.023,142.6,96.4,0.543
8.66,31946.0,34987.5,-0.893,-0.1572,142.6,96.4,0.543
8.68,31898.4,34911.2,-1.6899,-1.0692,142.6,96.4,0.543
8.7,32024.3,34963.3,0.418,-0.4469,142.6,96.4,0.543
8.72,31998.0,34921.4,-0.0226,-0.9477,142.6,96.4,0.543
8.74,31985.4,34969.7,-0.233,-0.3706,142.6,96.4,0.543
8.76,31968.2,34888.6,-0.5218,-1.3398,142.6,96.4,0.543
8.78,31980.5,34919.8,-0.3152,-0.9672,142.6,96.4,0.543
8.8,31924.7,34949.3,-1.2497,-0.6147,142.6,96.4,0.543
8.82,32037.6,35023.1,0.6405,0.2681,142.6,96.4,0.543
8.84,32006.1,35053.7,0.1122,0.6346,142.6,96.4,0.543
8.86,31988.6,35139.2,-0.1802,1.657,142.6,96.4,0.543
8.88,32052.8,35221.1,0.8955,2.6359,142.6,96.4,0.543
8.9,32031.4,35135.2,0.5374,1.6093,142.6,96.4,0.543
8.92,32036.0,35105.4,0.6145,1.2527,142.6,96.4,0.543
8.94,31968.1,35067.0,-0.5232,0.7928,142.6,96.4,0.543
8.96,31934.0,35019.7,-1.0935,0.2277,142.6,96.4,0.543
8.98,31996.5,34922.1,-0.0485,-0.9394,142.6,96.4,0.543
9.0,31994.0,35046.2,-0.0902,0.5445,142.6,96.4,0.543
9.02,31970.3,34980.3,-0.487,-0.2433,142.6,96.4,0.543
9.04,31974.2,34955.6,-0.4205,-0.5392,142.6,96.4,0.543
9.06,32022.7,35043.5,0.3916,0.5118,142.6,96.4,0.543
9.08,32062.4,34981.6,1.0565,-0.2283,142.6,96.4,0.543
9.1,31992.0,34988.3,-0.1231,-0.148,142.6,96.4,0.543
9.12,32008.0,34918.8,0.1446,-0.9795,142.6,96.4,0.543
9.14,32005.5,35004.1,0.1035,0.0418,142.6,96.4,0.543
9.16,32000.2,35028.3,0.0149,0.3302,142.6,96.4,0.543
9.18,31944.7,34917.1,-0.9154,-0.9992,142.6,96.4,0.543
9.2,31951.1,34916.0,-0.8078,-1.0128,142.6,96.4,0.543
9.22,32054.3,34853.0,0.9193,-1.7663,142.6,96.4,0.543
9.24,31984.5,35089.4,-0.2481,1.0613,142.6,96.4,0.543
9.26,31968.5,35140.9,-0.5161,1.6768,142.6,96.4,0.543
9.28,32041.8,35089.0,0.7107,1.0562,142.6,96.4,0.543
9.3,32035.2,35095.5,0.5997,1.1345,142.6,96.4,0.543
9.32,32033.5,35096.0,0.5718,1.1406,142.6,96.4,0.543
9.34,32020.3,35086.5,0.3504,1.0271,142.6,96.4,0.543
9.36,32055.1,35067.2,0.9338,0.7963,142.6,96.4,0.543
9.38,32004.1,35018.8,0.0797,0.2174,142.6,96.4,0.543
9.4,32053.9,34991.8,0.913,-0.1056,142.6,96.4,0.543
9.42,31997.3,35034.4,-0.0349,0.4035,142.6,96.4,0.543
9.44,32065.7,35046.8,1.1113,0.5515,142.6,96.4,0.543
9.46,31987.8,34979.7,-0.1936,-0.2502,142.6,96.4,0.543
9.48,32002.9,34917.7,0.0591,-0.9924,142.6,96.4,0.543
9.5,31936.6,34978.6,-1.051,-0.2633,142.6,96.4,0.543
9.52,32012.5,34972.2,0.2206,-0.3402,142.6,96.4,0.543
9.54,31943.6,34995.5,-0.9338,-0.0614,142.6,96.4,0.543
9.56,31996.1,34974.4,-0.0544,-0.3146,142.6,96.4,0.543
9.58,32042.6,34893.3,0.7234,-1.2833,142.6,96.4,0.543
9.6,31930.3,34965.9,-1.157,-0.4159,142.6,96.4,0.543
9.62,31957.6,34860.7,-0.6998,-1.6734,142.6,96.4,0.543
9.64,31964.7,34974.9,-0.5797,-0.3077,142.6,96.4,0.543
9.66,32015.7,34939.8,0.2732,-0.7283,142.6,96.4,0.543
9.68,32002.9,35108.8,0.0591,1.2938,142.6,96.4,0.543
9.7,32024.2,35152.3,0.416,1.814,142.6,96.4,0.543
9.72,31976.8,35208.1,-0.3768,2.4812,142.6,96.4,0.543
9.74,32030.9,35107.9,0.5291,1.2822,142.6,96.4,0.543
9.76,32026.6,35091.2,0.4559,1.0832,142.6,96.4,0.543
9.78,32065.8,35050.2,1.1125,0.5923,142.6,96.4,0.543
9.8,32011.7,35076.6,0.2063,0.9086,142.6,96.4,0.543
9.82,32038.3,35038.1,0.6518,0.4481,142.6,96.4,0.543
9.84,31980.1,35022.6,-0.3223,0.2629,142.6,96.4,0.543
9.86,32136.2,35017.8,2.2911,0.2051,142.6,96.4,0.543
9.88,31912.3,34980.7,-1.4571,-0.2392,142.6,96.4,0.543
9.9,32018.6,34995.1,0.3224,-0.0669,142.6,96.4,0.543
9.92,31925.1,35045.5,-1.2437,0.5364,142.6,96.4,0.543
9.94,31902.7,35043.6,-1.6191,0.5139,142.6,96.4,0.543
9.96,31998.8,34909.2,-0.0093,-1.0943,142.6,96.4,0.543
9.98,32030.5,34862.6,0.5217,-1.6505,142.6,96.4,0.543
10.0,31948.5,34916.7,-0.8519,-1.0045,142.6,96.4,0.543
10.02,32020.0,34847.9,0.3461,-1.8274,142.6,96.4,0.543
10.04,31906.2,34840.7,-1.5592,-1.9126,142.6,96.4,0.543
10.06,31952.7,34916.7,-0.781,-1.0042,142.6,96.4,0.543
10.08,32044.5,34967.1,0.7561,-0.4017,142.6,96.4,0.543
10.1,32057.5,35029.2,0.974,0.3413,142.6,96.4,0.543
10.12,32103.8,35034.3,1.7489,0.4028,142.6,96.4,0.543
10.14,32147.3,35165.9,2.4782,1.9766,142.6,96.4,0.543
10.16,32007.5,35016.5,0.1373,0.1898,142.6,96.4,0.543
10.18,31997.7,35044.5,-0.0272,0.5245,142.6,96.4,0.543
10.2,31957.1,35122.3,-0.707,1.4543,142.6,96.4,0.543
10.22,32021.7,35005.5,0.3748,0.0577,142.6,96.4,0.543
10.24,32053.7,35033.6,0.91,0.3936,142.6,96.4,0.543
10.26,32029.4,34959.9,0.5033,-0.487,142.6,96.4,0.543
10.28,31939.6,35039.8,-1.0012,0.4687,142.6,96.4,0.543
10.3,32012.9,34990.6,0.2262,-0.1198,142.6,96.4,0.543
10.32,32046.5,34955.8,0.7901,-0.536,142.6,96.4,0.543
10.34,32008.3,35045.9,0.1501,0.5416,142.6,96.4,0.543
10.36,32016.2,34987.1,0.2816,-0.1625,142.6,96.4,0.543
10.38,31949.1,34839.6,-0.842,-1.9258,142.6,96.4,0.543
10.4,32022.7,34912.1,0.3907,-1.059,142.6,96.4,0.543
10.42,32063.9,34990.2,1.0811,-0.1256,142.6,96.4,0.543
10.44,31925.5,34949.4,-1.2364,-0.6127,142.6,96.4,0.543
10.46,31949.5,34854.0,-0.8341,-1.7533,142.6,96.4,0.543
10.48,32042.6,34964.6,0.7246,-0.4316,142.6,96.4,0.543
10.5,32062.3,34961.5,1.0536,-0.4686,142.6,96.4,0.543
10.52,31966.3,34896.5,-0.5532,-1.2456,142.6,96.4,0.543
10.54,31937.0,35100.6,-1.0445,1.1953,142.6,96.4,0.543
10.56,32046.0,35055.7,0.7814,0.6578,142.6,96.4,0.543
10.58,32133.9,35096.5,2.2524,1.1463,142.6,96.4,0.543
10.6,32077.5,35131.3,1.3081,1.5626,142.6,96.4,0.543
10.62,31909.4,35088.3,-1.5059,1.0487,142.6,96.4,0.543
10.64,32067.5,35022.7,1.1413,0.2632,142.6,96.4,0.543
10.66,31964.6,35047.4,-0.5819,0.5593,142.6,96.4,0.543
10.68,31987.4,35058.3,-0.2002,0.6888,142.6,96.4,0.543
10.7,32044.4,35026.1,0.7551,0.3048,142.6,96.4,0.543
10.72,31958.1,35001.5,-0.6913,0.0098,142.6,96.4,0.543
10.74,31946.3,34974.9,-0.8884,-0.3086,142.6,96.4,0.543
10.76,32029.7,34930.8,0.5076,-0.8353,142.6,96.4,0.543
10.78,31978.8,35034.3,-0.3439,0.4018,142.6,96.4,0.543
10.8,31927.7,34947.0,-1.1991,-0.6422,142.6,96.4,0.543
10.82,31971.0,34966.4,-0.4754,-0.4093,142.6,96.4,0.543
10.84,31967.8,34895.6,-0.5283,-1.2561,142.6,96.4,0.543
10.86,31983.2,34916.0,-0.2711,-1.0119,142.6,96.4,0.543
10.88,31958.4,34955.9,-0.6859,-0.5347,142.6,96.4,0.543
10.9,31965.7,34812.6,-0.5638,-2.2488,142.6,96.4,0.543
10.92,31952.4,34982.2,-0.7856,-0.2208,142.6,96.4,0.543
10.94,32050.7,34943.6,0.8591,-0.6824,142.6,96.4,0.543
10.96,32041.6,35073.6,0.7067,0.8721,142.6,96.4,0.543
10.98,32074.6,35193.9,1.26,2.3105,142.6,96.4,0.543
11.0,32045.7,35149.5,0.7769,1.7795,142.6,96.4,0.543
11.02,32116.4,35043.5,1.9602,0.5126,142.6,96.4,0.543
11.04,32008.7,35098.7,0.1569,1.173,142.6,96.4,0.543
11.06,32041.9,35057.4,0.7117,0.6786,142.6,96.4,0.543
11.08,32066.1,35001.4,1.1172,0.0091,142.6,96.4,0.543
11.1,31954.8,35039.1,-0.7463,0.4598,142.6,96.4,0.543
11.12,31960.1,34919.6,-0.6567,-0.9689,142.6,96.4,0.543
11.14,32038.4,35016.1,0.6541,0.185,142.6,96.4,0.543
11.16,31922.2,34974.5,-1.2913,-0.3126,142.6,96.4,0.543
11.18,31996.8,34980.4,-0.0424,-0.2426,142.6,96.4,0.543
11.2,31920.2,34944.2,-1.3249,-0.6746,142.6,96.4,0.543
11.22,31942.3,34971.3,-0.9558,-0.3507,142.6,96.4,0.543
11.24,31968.4,34801.2,-0.5176,-2.3851,142.6,96.4,0.543
11.26,31950.0,34919.8,-0.8255,-0.9671,142.6,96.4,0.543
11.28,31969.5,34966.2,-0.4997,-0.4124,142.6,96.4,0.543
11.3,31949.9,35003.0,-0.8288,0.0282,142.6,96.4,0.543
11.32,32029.1,34882.1,0.4986,-1.4178,142.6,96.4,0.543
11.34,32013.3,34943.6,0.2329,-0.6827,142.6,96.4,0.543
11.36,32024.9,35001.9,0.4275,0.0146,142.6,96.4,0.543
11.38,32009.1,35085.3,0.1624,1.0117,142.6,96.4,0.543
11.4,32041.8,35135.0,0.71,1.6063,142.6,96.4,0.543
11.42,32052.3,35156.8,0.8867,1.8667,142.6,96.4,0.543
11.44,32084.8,35134.9,1.4306,1.6056,142.6,96.4,0.543
11.46,31954.8,35090.6,-0.7454,1.0756,142.6,96.4,0.543
11.48,32089.3,35014.1,1.5068,0.1607,142.6,96.4,0.543
11.5,32094.1,35066.8,1.5861,0.7906,142.6,96.4,0.543
11.52,31965.1,34906.0,-0.5734,-1.132,142.6,96.4,0.543
11.54,31990.8,35037.7,-0.1432,0.4425,142.6,96.4,0.543
11.56,31993.2,34922.9,-0.1022,-0.9297,142.6,96.4,0.543
11.58,31924.4,35001.8,-1.2552,0.0142,142.6,96.4,0.543
11.6,32010.0,34995.7,0.1778,-0.059,142.6,96.4,0.543
11.62,31989.4,34905.1,-0.1661,-1.1423,142.6,96.4,0.543
11.64,32008.4,34970.4,0.1519,-0.3613,142.6,96.4,0.543
11.66,32090.9,34933.3,1.5334,-0.8051,142.6,96.4,0.543
11.68,31938.3,34905.0,-1.0215,-1.1441,142.6,96.4,0.543
11.7,31942.6,34893.2,-0.9501,-1.2855,142.6,96.4,0.543
11.72,31969.7,34922.5,-0.4969,-0.9345,142.6,96.4,0.543
11.74,32042.7,34975.1,0.7267,-0.3058,142.6,96.4,0.543
11.76,32012.9,34953.9,0.2269,-0.559,142.6,96.4,0.543
11.78,32052.6,34988.3,0.8922,-0.1483,142.6,96.4,0.543
11.8,32065.9,35014.9,1.1149,0.1704,142.6,96.4,0.543
11.82,32123.1,35160.0,2.072,1.9055,142.6,96.4,0.543
11.84,31979.8,35104.2,-0.3269,1.2378,142.6,96.4,0.543
11.86,32085.0,35128.2,1.4349,1.5258,142.6,96.4,0.543
11.88,32018.0,35067.4,0.3128,0.7982,142.6,96.4,0.543
11.9,32026.1,35030.2,0.4473,0.3528,142.6,96.4,0.543
11.92,32033.5,34968.8,0.5721,-0.3808,142.6,96.4,0.543
11.94,32006.6,35042.5,0.1207,0.5002,142.6,96.4,0.543
11.96,31965.2,35042.8,-0.5711,0.5039,142.6,96.4,0.543
11.98,32087.0,35031.8,1.4683,0.3725,142.6,96.4,0.543
12.0,31961.1,34948.7,-0.64,-0.6211,142.6,96.4,0.543
12.02,31958.7,34978.5,-0.68,-0.2652,142.6,96.4,0.543
12.04,32024.9,34821.5,0.4274,-2.1428,142.6,96.4,0.543
12.06,32011.6,34870.1,0.205,-1.5611,142.6,96.4,0.543
12.08,31968.3,34919.9,-0.5203,-0.9663,142.6,96.4,0.543
12.1,31961.7,34943.8,-0.6297,-0.6804,142.6,96.4,0.543
12.12,31973.2,34923.7,-0.4384,-0.9202,142.6,96.4,0.543
12.14,31951.4,34885.8,-0.8034,-1.3738,142.6,96.4,0.543
12.16,31979.0,34953.3,-0.3405,-0.5664,142.6,96.4,0.543
12.18,32049.0,34892.7,0.831,-1.2913,142.6,96.4,0.543
12.2,31997.1,34994.0,-0.0375,-0.0792,142.6,96.4,0.543
12.22,32010.0,35029.6,0.1777,0.3466,142.6,96.4,0.543
12.24,32077.7,35072.5,1.3112,0.8592,142.6,96.4,0.543
12.26,32042.1,35146.0,0.7164,1.7384,142.6,96.4,0.543
12.28,32089.2,35160.5,1.5045,1.9115,142.6,96.4,0.543
12.3,31986.4,35127.4,-0.2165,1.516,142.6,96.4,0.543
12.32,32070.2,35018.9,1.1857,0.2176,142.6,96.4,0.543
12.34,32089.0,35050.2,1.5009,0.5923,142.6,96.4,0.543
12.36,31902.0,34987.0,-1.63,-0.1634,142.6,96.4,0.543
12.38,32090.1,35062.4,1.5203,0.7389,142.6,96.4,0.543
12.4,32004.9,34920.3,0.0928,-0.9614,142.6,96.4,0.543
12.42,31974.5,35032.5,-0.4168,0.3803,142.6,96.4,0.543
12.44,32027.0,35000.2,0.4623,-0.0059,142.6,96.4,0.543
12.46,32038.8,34908.3,0.6606,-1.1042,142.6,96.4,0.543
12.48,32017.0,34854.7,0.2956,-1.746,142.6,96.4,0.543
12.5,32042.0,34914.3,0.7148,-1.0329,142.6,96.4,0.543
12.52,31982.2,34994.1,-0.2866,-0.0789,142.6,96.4,0.543
12.54,31965.0,35000.6,-0.5752,-0.0007,142.6,96.4,0.543
12.56,31980.0,34947.4,-0.324,-0.6372,142.6,96.4,0.543
12.58,32033.3,34966.4,0.5677,-0.41,142.6,96.4,0.543
12.6,31936.1,34940.5,-1.0583,-0.7193,142.6,96.4,0.543
12.62,31986.0,34996.9,-0.223,-0.0444,142.6,96.4,0.543
12.64,31981.2,35113.4,-0.3034,1.3486,142.6,96.4,0.543
12.66,32024.0,35112.6,0.4123,1.3388,142.6,96.4,0.543
12.68,32008.6,35072.9,0.1544,0.8644,142.6,96.4,0.543
12.7,32017.7,35009.9,0.3073,0.1105,142.6,96.4,0.543
12.72,32019.4,35108.5,0.336,1.2892,142.6,96.4,0.543
12.74,32051.8,35007.3,0.8789,0.079,142.6,96.4,0.543
12.76,32070.5,35113.9,1.1917,1.3537,142.6,96.4,0.543
12.78,32041.8,34954.1,0.7106,-0.5571,142.6,96.4,0.543
12.8,32002.8,35057.3,0.0582,0.6777,142.6,96.4,0.543
12.82,31945.0,34976.3,-0.9098,-0.2916,142.6,96.4,0.543
12.84,31990.7,34964.5,-0.1454,-0.4328,142.6,96.4,0.543
12.86,32002.0,34914.3,0.0448,-1.0325,142.6,96.4,0.543
12.88,31938.3,34919.2,-1.0223,-0.9746,142.6,96.4,0.543
12.9,31959.4,34921.6,-0.6695,-0.945,142.6,96.4,0.543
12.92,31955.8,34922.1,-0.7292,-0.9399,142.6,96.4,0.543
12.94,32036.7,34908.8,0.6246,-1.0981,142.6,96.4,0.543
12.96,31966.1,34936.0,-0.557,-0.7731,142.6,96.4,0.543
12.98,31947.8,34889.7,-0.8634,-1.3265,142.6,96.4,0.543
13.0,31985.0,34932.5,-0.2404,-0.8146,142.6,96.4,0.543
13.02,31975.4,34919.9,-0.4009,-0.9658,142.6,96.4,0.543
13.04,32038.7,34990.9,0.6593,-0.1166,142.6,96.4,0.543
13.06,32069.6,35034.6,1.1764,0.406,142.6,96.4,0.543
13.08,32096.8,35153.1,1.6323,1.823,142.6,96.4,0.543
13.1,32066.3,35180.4,1.1214,2.1492,142.6,96.4,0.543
13.12,32020.3,35127.3,0.351,1.5145,142.6,96.4,0.543
13.14,31999.3,35137.7,-0.0007,1.6389,142.6,96.4,0.543
13.16,31965.9,35071.4,-0.5608,0.8456,142.6,96.4,0.543
13.18,32035.6,35012.6,0.6069,0.1426,142.6,96.4,0.543
13.2,32063.6,35067.0,1.0761,0.7934,142.6,96.4,0.543
13.22,31965.1,35033.2,-0.5729,0.389,142.6,96.4,0.543
13.24,32011.0,35000.5,0.195,-0.0014,142.6,96.4,0.543
13.26,32040.7,35032.9,0.6932,0.3856,142.6,96.4,0.543
13.28,31914.1,35054.2,-1.4274,0.64,142.6,96.4,0.543
13.3,31924.2,34882.6,-1.2586,-1.4117,142.6,96.4,0.543
13.32,31940.4,34918.3,-0.9874,-0.9843,142.6,96.4,0.543
13.34,31920.3,34932.0,-1.3229,-0.8208,142.6,96.4,0.543
13.36,32003.5,34948.1,0.0702,-0.628,142.6,96.4,0.543
13.38,31872.3,34897.9,-2.1266,-1.2293,142.6,96.4,0.543
13.4,32004.9,34912.7,0.0922,-1.0522,142.6,96.4,0.543
13.42,31972.0,34973.0,-0.458,-0.3305,142.6,96.4,0.543
13.44,31996.8,35052.6,-0.0423,0.6216,142.6,96.4,0.543
13.46,32005.9,35124.1,0.11,1.4766,142.6,96.4,0.543
13.48,32071.0,35086.5,1.1999,1.0271,142.6,96.4,0.543
13.5,32136.2,35134.6,2.2918,1.6016,142.6,96.4,0.543
13.52,32075.8,35094.0,1.2795,1.1166,142.6,96.4,0.543
13.54,32155.8,35064.9,2.6198,0.7686,142.6,96.4,0.543
13.56,32002.8,35104.7,0.0585,1.2446,142.6,96.4,0.543
13.58,31877.7,35012.8,-2.0372,0.1447,142.6,96.4,0.543
13.6,31962.4,35017.7,-0.6195,0.2035,142.6,96.4,0.543
13.62,31969.7,35067.3,-0.4958,0.7975,142.6,96.4,0.543
13.64,31891.0,34954.9,-1.8139,-0.5468,142.6,96.4,0.543
13.66,31961.9,34998.5,-0.6274,-0.0261,142.6,96.4,0.543
13.68,32051.7,34996.9,0.8757,-0.0448,142.6,96.4,0.543
13.7,32056.9,34919.7,0.9634,-0.968,142.6,96.4,0.543
13.72,32027.7,34909.4,0.4742,-1.0919,142.6,96.4,0.543
13.74,31992.7,34985.7,-0.1116,-0.1789,142.6,96.4,0.543
13.76,31989.6,34853.2,-0.1637,-1.764,142.6,96.4,0.543
13.78,31874.4,34913.0,-2.0918,-1.0481,142.6,96.4,0.543
13.8,32015.0,35011.6,0.2622,0.1314,142.6,96.4,0.543
13.82,32027.8,34820.7,0.4758,-2.1515,142.6,96.4,0.543
13.84,31843.4,34988.5,-2.6105,-0.1457,142.6,96.4,0.543
13.86,31988.7,35001.9,-0.1783,0.0144,142.6,96.4,0.543
13.88,32088.9,34857.2,1.4992,-1.716,142.6,96.4,0.543
13.9,32045.6,35073.4,0.7747,0.87,142.6,96.4,0.543
13.92,32072.5,35082.2,1.2256,0.9755,142.6,96.4,0.543
13.94,32140.4,35132.7,2.3621,1.5794,142.6,96.4,0.543
13.96,32098.9,35097.0,1.667,1.1527,142.6,96.4,0.543
13.98,32055.8,35084.7,0.9457,1.0047,142.6,96.4,0.543
14.0,31945.7,35083.6,-0.899,0.992,142.6,96.4,0.543
14.02,32130.8,35068.2,2.2013,0.8078,142.6,96.4,0.543
14.04,32068.1,35000.7,1.1509,-0.0,142.6,96.4,0.543
14.06,31904.6,35010.6,-1.587,0.1191,142.6,96.4,0.543
14.08,31989.9,35020.3,-0.1576,0.2353,142.6,96.4,0.543
14.1,31980.0,35102.4,-0.3235,1.2171,142.6,96.4,0.543
14.12,31781.0,34913.3,-3.6569,-1.0444,142.6,96.4,0.543
14.14,31982.1,35016.6,-0.2883,0.1905,142.6,96.4,0.543
14.16,31999.7,34910.2,0.0053,-1.0813,142.6,96.4,0.543
14.18,31926.7,34916.7,-1.2168,-1.0035,142.6,96.4,0.543
14.2,31992.2,34962.2,-0.1201,-0.4596,142.6,96.4,0.543
14.22,32010.3,34883.3,0.1833,-1.4037,142.6,96.4,0.543
14.24,31875.2,34986.9,-2.0781,-0.1644,142.6,96.4,0.543
14.26,31950.5,34984.8,-0.8181,-0.1897,142.6,96.4,0.543
14.28,32005.4,34927.1,0.1017,-0.8794,142.6,96.4,0.543
14.3,31915.7,35012.2,-1.4001,0.138,142.6,96.4,0.543
14.32,32035.7,35050.0,0.6094,0.5897,142.6,96.4,0.543
14.34,31953.3,35129.6,-0.7713,1.5418,142.6,96.4,0.543
14.36,32062.5,35169.5,1.057,2.0189,142.6,96.4,0.543
14.38,32093.7,35111.3,1.5797,1.3231,142.6,96.4,0.543
14.4,32053.0,35060.7,0.8979,0.7183,142.6,96.4,0.543
14.42,32007.4,35004.9,0.1353,0.0509,142.6,96.4,0.543
14.44,31988.1,35034.4,-0.1887,0.4031,142.6,96.4,0.543
14.46,32120.7,34969.9,2.0316,-0.3674,142.6,96.4,0.543
14.48,31966.9,35007.3,-0.544,0.0791,142.6,96.4,0.543
14.5,32157.2,35004.7,2.6436,0.0486,142.6,96.4,0.543
14.52,31921.9,35024.4,-1.2969,0.2844,142.6,96.4,0.543
14.54,31990.6,34952.4,-0.146,-0.5767,142.6,96.4,0.543
14.56,31935.4,35019.9,-1.0712,0.2304,142.6,96.4,0.543
14.58,32001.0,34997.3,0.028,-0.0407,142.6,96.4,0.543
14.6,31964.8,34933.5,-0.5778,-0.8027,142.6,96.4,0.543
14.62,32007.8,34945.1,0.1414,-0.664,142.6,96.4,0.543
14.64,32024.0,34927.8,0.412,-0.8713,142.6,96.4,0.543
14.66,31962.9,34877.7,-0.6109,-1.4709,142.6,96.4,0.543
14.68,31948.9,34973.4,-0.8453,-0.3255,142.6,96.4,0.543
14.7,31980.2,34826.5,-0.3212,-2.083,142.6,96.4,0.543
14.72,32014.2,35004.8,0.2489,0.0496,142.6,96.4,0.543
14.74,32070.7,35098.1,1.1947,1.1655,142.6,96.4,0.543
14.76,32056.6,34966.2,0.9581,-0.4125,142.6,96.4,0.543
14.78,32110.8,35192.6,1.8669,2.2949,142.6,96.4,0.543
14.8,32112.5,35218.3,1.8941,2.6028,142.6,96.4,0.543
14.82,31999.9,35118.1,0.0087,1.404,142.6,96.4,0.543
14.84,32002.4,35098.5,0.0507,1.1701,142.6,96.4,0.543
14.86,32010.3,34941.9,0.1831,-0.7024,142.6,96.4,0.543
14.88,31996.7,35028.5,-0.0444,0.3325,142.6,96.4,0.543
14.9,32054.9,35028.3,0.931,0.3304,142.6,96.4,0.543
14.92,31893.0,34990.1,-1.7805,-0.1264,142.6,96.4,0.543
14.94,32041.9,35029.8,0.7125,0.3483,142.6,96.4,0.543
14.96,32043.3,34955.5,0.7366,-0.5405,142.6,96.4,0.543
14.98,31928.6,34945.8,-1.1853,-0.6555,142.6,96.4,0.543
15.0,31953.1,34983.0,-0.7745,-0.2107,142.6,96.4,0.543
15.02,31964.8,34871.9,-0.5786,-1.54,142.6,96.4,0.543
15.04,31996.5,34909.1,-0.0479,-1.0944,142.6,96.4,0.543
15.06,32007.3,34941.3,0.1337,-0.7094,142.6,96.4,0.543
15.08,31959.1,34922.6,-0.6747,-0.933,142.6,96.4,0.543
15.1,31855.6,34887.8,-2.407,-1.3492,142.6,96.4,0.543
15.12,31929.1,34920.0,-1.1767,-0.9642,142.6,96.4,0.543
15.14,32001.7,34984.7,0.0387,-0.1906,142.6,96.4,0.543
15.16,32116.5,35138.1,1.9622,1.644,142.6,96.4,0.543
15.18,32144.1,35139.1,2.4234,1.6558,142.6,96.4,0.543
15.2,32122.3,35169.5,2.0594,2.0192,142.6,96.4,0.543
15.22,32026.9,35152.0,0.4621,1.8093,142.6,96.4,0.543
15.24,32045.3,35077.4,0.7696,0.9179,142.6,96.4,0.543
15.26,31980.5,35068.7,-0.3164,0.8141,142.6,96.4,0.543
15.28,32004.4,34987.0,0.0852,-0.163,142.6,96.4,0.543
15.3,32040.6,35067.0,0.6905,0.7935,142.6,96.4,0.543
15.32,31915.0,34973.6,-1.4122,-0.3241,142.6,96.4,0.543
15.34,31963.5,34966.1,-0.5997,-0.4127,142.6,96.4,0.543
15.36,32050.4,35043.3,0.8548,0.5097,142.6,96.4,0.543
15.38,32082.6,34879.1,1.3932,-1.4532,142.6,96.4,0.543
15.4,31985.6,34997.6,-0.2297,-0.0363,142.6,96.4,0.543
15.42,31987.3,34961.9,-0.2013,-0.4631,142.6,96.4,0.543
15.44,31914.3,34951.1,-1.4245,-0.593,142.6,96.4,0.543
15.46,32029.3,34904.3,0.5012,-1.1527,142.6,96.4,0.543
15.48,31936.0,34912.5,-1.0604,-1.0542,142.6,96.4,0.543
15.5,31970.0,34935.7,-0.491,-0.7773,142.6,96.4,0.543
15.52,31915.3,34897.8,-1.4066,-1.2305,142.6,96.4,0.543
15.54,31978.3,34890.7,-0.3526,-1.3148,142.6,96.4,0.543
15.56,32024.5,35009.4,0.4212,0.1047,142.6,96.4,0.543
15.58,32022.5,35035.5,0.3876,0.4161,142.6,96.4,0.543
15.6,32153.2,35143.0,2.5766,1.7024,142.6,96.4,0.543
15.62,32019.5,35115.5,0.3374,1.3734,142.6,96.4,0.543
15.64,32098.6,35110.6,1.6612,1.3151,142.6,96.4,0.543
15.66,31973.0,35042.5,-0.4414,0.5007,142.6,96.4,0.543
15.68,32017.8,34980.8,0.3096,-0.237,142.6,96.4,0.543
15.7,31933.9,35100.4,-1.0967,1.1925,142.6,96.4,0.543
15.72,31958.8,35026.1,-0.6791,0.3047,142.6,96.4,0.543
15.74,31960.0,35080.3,-0.6589,0.9519,142.6,96.4,0.543
15.76,31987.6,34991.9,-0.1963,-0.105,142.6,96.4,0.543
15.78,32039.4,35066.2,0.6701,0.7843,142.6,96.4,0.543
15.8,31986.3,35014.5,-0.2178,0.1653,142.6,96.4,0.543
15.82,31997.8,34922.1,-0.0261,-0.9397,142.6,96.4,0.543
15.84,32065.1,34917.1,1.1007,-0.9998,142.6,96.4,0.543
15.86,31976.5,34935.5,-0.3818,-0.7793,142.6,96.4,0.543
15.88,31903.4,34973.3,-1.6069,-0.3266,142.6,96.4,0.543
15.9,31914.2,34998.1,-1.4266,-0.0304,142.6,96.4,0.543
15.92,31963.4,34957.1,-0.6011,-0.5203,142.6,96.4,0.543
15.94,31932.2,34928.8,-1.1247,-0.8588,142.6,96.4,0.543
15.96,32000.6,35041.3,0.0212,0.4866,142.6,96.4,0.543
15.98,31974.4,34946.9,-0.4174,-0.6426,142.6,96.4,0.543
16.0,31996.6,35012.9,-0.0456,0.1463,142.6,96.4,0.543
16.02,32007.0,35181.4,0.1284,2.1609,142.6,96.4,0.543
16.04,31992.9,35158.8,-0.1086,1.8914,142.6,96.4,0.543
16.06,32015.1,35212.6,0.2641,2.5346,142.6,96.4,0.543
16.08,32114.9,35011.6,1.9346,0.1307,142.6,96.4,0.543
16.1,32030.5,35052.0,0.5224,0.6142,142.6,96.4,0.543
16.12,32067.7,35076.1,1.1437,0.9021,142.6,96.4,0.543
16.14,31936.5,35022.2,-1.0531,0.2578,142.6,96.4,0.543
16.16,31960.3,34978.6,-0.6536,-0.2641,142.6,96.4,0.543
16.18,32078.3,34904.0,1.3213,-1.1565,142.6,96.4,0.543
16.2,31880.8,35006.7,-1.9857,0.0718,142.6,96.4,0.543
16.22,32002.0,34894.4,0.0444,-1.2701,142.6,96.4,0.543
16.24,31934.3,34891.4,-1.089,-1.3064,142.6,96.4,0.543
16.26,31963.3,34907.4,-0.6044,-1.1148,142.6,96.4,0.543
16.28,31974.2,34935.1,-0.4215,-0.784,142.6,96.4,0.543
16.3,31995.1,34908.5,-0.0718,-1.1015,142.6,96.4,0.543
16.32,32002.9,34961.5,0.0591,-0.4677,142.6,96.4,0.543
16.34,31904.9,34994.4,-1.5809,-0.0752,142.6,96.4,0.543
16.36,31956.0,34833.3,-0.7252,-2.0017,142.6,96.4,0.543
16.38,32014.8,34912.9,0.2582,-1.0492,142.6,96.4,0.543
16.4,31933.7,34999.4,-1.0998,-0.015,142.6,96.4,0.543
16.42,31997.2,35164.1,-0.0364,1.9544,142.6,96.4,0.543
16.44,32045.8,35120.5,0.7773,1.433,142.6,96.4,0.543
16.46,32153.9,35116.0,2.5873,1.3797,142.6,96.4,0.543
16.48,31995.0,35145.3,-0.0731,1.7296,142.6,96.4,0.543
16.5,32037.4,35129.9,0.6366,1.546,142.6,96.4,0.543
16.52,31927.6,35086.2,-1.2011,1.023,142.6,96.4,0.543
16.54,31996.2,35030.2,-0.053,0.3537,142.6,96.4,0.543
16.56,32072.5,35009.7,1.2243,0.1086,142.6,96.4,0.543
16.58,32034.7,34958.3,0.5917,-0.5064,142.6,96.4,0.543
16.6,31938.9,35003.7,-1.013,0.0363,142.6,96.4,0.543
16.62,31986.2,34889.3,-0.2196,-1.3317,142.6,96.4,0.543
16.64,31919.1,34927.8,-1.3437,-0.8718,142.6,96.4,0.543
16.66,31936.0,34967.8,-1.0609,-0.3929,142.6,96.4,0.543
16.68,32039.2,34963.4,0.6679,-0.4453,142.6,96.4,0.543
16.7,32030.9,34933.8,0.5275,-0.7994,142.6,96.4,0.543
16.72,31946.6,34926.4,-0.8826,-0.8875,142.6,96.4,0.543
16.74,31905.7,34855.7,-1.5685,-1.7339,142.6,96.4,0.543
16.76,31950.7,34863.6,-0.8143,-1.6386,142.6,96.4,0.543
16.78,31926.9,34965.7,-1.2129,-0.418,142.6,96.4,0.543
16.8,31972.0,34850.0,-0.4583,-1.8012,142.6,96.4,0.543
16.82,31955.7,35067.6,-0.7308,0.8004,142.6,96.4,0.543
16.84,32041.1,35107.3,0.6991,1.2756,142.6,96.4,0.543
16.86,32059.3,35010.9,1.0031,0.1231,142.6,96.4,0.543
16.88,32162.2,35061.0,2.7274,0.7222,142.6,96.4,0.543
16.9,32061.9,35136.0,1.0481,1.6182,142.6,96.4,0.543
16.92,32024.0,35066.2,0.4133,0.7838,142.6,96.4,0.543
16.94,32071.4,35026.6,1.206,0.3105,142.6,96.4,0.543
16.96,31944.9,35093.8,-0.9112,1.1143,142.6,96.4,0.543
16.98,31947.7,35001.4,-0.8655,0.0086,142.6,96.4,0.543
17.0,32026.5,35006.4,0.4551,0.0684,142.6,96.4,0.543
17.02,32044.7,34947.3,0.759,-0.638,142.6,96.4,0.543
17.04,31986.0,34928.7,-0.223,-0.8606,142.6,96.4,0.543
17.06,32011.3,34907.2,0.2007,-1.1173,142.6,96.4,0.543
17.08,32024.8,34895.6,0.4255,-1.2565,142.6,96.4,0.543
17.1,31930.2,34975.7,-1.1587,-0.298,142.6,96.4,0.543
17.12,31994.6,34958.9,-0.0797,-0.4988,142.6,96.4,0.543
17.14,32079.7,34861.5,1.3454,-1.6639,142.6,96.4,0.543
17.16,31857.4,34967.1,-2.3777,-0.4012,142.6,96.4,0.543
17.18,31897.1,34902.7,-1.7114,-1.1709,142.6,96.4,0.543
17.2,31982.7,34903.3,-0.2788,-1.1637,142.6,96.4,0.543
17.22,31908.4,34948.4,-1.5231,-0.6249,142.6,96.4,0.543
17.24,32059.0,34975.2,0.9983,-0.3039,142.6,96.4,0.543
17.26,32066.0,35157.3,1.1161,1.8736,142.6,96.4,0.543
17.28,32065.3,35096.0,1.1046,1.1405,142.6,96.4,0.543
17.3,32019.2,35087.9,0.333,1.0429,142.6,96.4,0.543
17.32,32139.6,35154.8,2.3489,1.8431,142.6,96.4,0.543
17.34,32121.7,34993.8,2.0488,-0.082,142.6,96.4,0.543
17.36,31982.1,35056.6,-0.2892,0.6689,142.6,96.4,0.543
17.38,32034.7,35159.4,0.5925,1.8986,142.6,96.4,0.543
17.4,31987.4,35007.7,-0.1995,0.0846,142.6,96.4,0.543
17.42,31952.0,35001.8,-0.7937,0.0142,142.6,96.4,0.543
17.44,32053.5,35034.3,0.9066,0.4024,142.6,96.4,0.543
17.46,31913.5,35052.4,-1.4369,0.6182,142.6,96.4,0.543
17.48,32003.3,34984.0,0.0663,-0.1994,142.6,96.4,0.543
17.5,32029.4,34924.9,0.5037,-0.9055,142.6,96.4,0.543
17.52,31966.3,34991.9,-0.5537,-0.1049,142.6,96.4,0.543
17.54,31975.1,34956.5,-0.4068,-0.5278,142.6,96.4,0.543
17.56,31993.7,34955.9,-0.0952,-0.5348,142.6,96.4,0.543
17.58,32009.9,34888.0,0.1758,-1.3478,142.6,96.4,0.543
17.6,31929.2,35031.1,-1.1751,0.364,142.6,96.4,0.543
17.62,32003.8,34949.3,0.0741,-0.6144,142.6,96.4,0.543
17.64,31912.7,34900.6,-1.4508,-1.1967,142.6,96.4,0.543
17.66,32053.7,34975.6,0.9108,-0.2993,142.6,96.4,0.543
17.68,32033.7,35020.3,0.5744,0.2355,142.6,96.4,0.543
17.7,32081.0,35137.0,1.3678,1.6305,142.6,96.4,0.543
17.72,32088.1,35059.2,1.4858,0.6997,142.6,96.4,0.543
17.74,32116.3,35158.9,1.9587,1.8922,142.6,96.4,0.543
17.76,32036.4,35081.7,0.6202,0.9686,142.6,96.4,0.543
17.78,32046.3,34995.9,0.786,-0.0569,142.6,96.4,0.543
17.8,32100.9,34980.5,1.7008,-0.2413,142.6,96.4,0.543
17.82,32085.8,35080.0,1.4468,0.9486,142.6,96.4,0.543
17.84,32119.9,34974.1,2.0189,-0.3182,142.6,96.4,0.543
17.86,31936.4,35024.2,-1.054,0.2812,142.6,96.4,0.543
17.88,31977.9,35066.5,-0.3588,0.7873,142.6,96.4,0.543
17.9,32023.3,34962.1,0.4006,-0.4614,142.6,96.4,0.543
17.92,31989.0,35009.0,-0.1737,0.1002,142.6,96.4,0.543
17.94,31941.0,34985.1,-0.9766,-0.1863,142.6,96.4,0.543
17.96,32036.2,34896.7,0.6178,-1.2431,142.6,96.4,0.543
17.98,31940.0,34904.5,-0.9943,-1.1496,142.6,96.4,0.543
18.0,31938.7,34870.2,-1.0154,-1.5596,142.6,96.4,0.543
18.02,31992.5,35002.8,-0.1147,0.0257,142.6,96.4,0.543
18.04,32112.5,34888.8,1.8949,-1.3378,142.6,96.4,0.543
18.06,32037.6,34980.1,0.64,-0.2455,142.6,96.4,0.543
18.08,32053.6,35042.1,0.9092,0.4959,142.6,96.4,0.543
18.1,31996.5,35112.4,-0.0478,1.3367,142.6,96.4,0.543
18.12,32129.1,35104.3,2.1719,1.2399,142.6,96.4,0.543
18.14,32020.9,35117.5,0.3604,1.397,142.6,96.4,0.543
18.16,32127.0,35187.1,2.138,2.2292,142.6,96.4,0.543
18.18,32042.5,35084.9,0.7227,1.0076,142.6,96.4,0.543
18.2,32058.7,35051.5,0.993,0.6083,142.6,96.4,0.543
18.22,31926.0,35044.2,-1.228,0.5211,142.6,96.4,0.543
18.24,32018.2,35051.4,0.3152,0.6072,142.6,96.4,0.543
18.26,31966.9,35111.2,-0.5428,1.322,142.6,96.4,0.543
18.28,32026.5,34956.0,0.4552,-0.5335,142.6,96.4,0.543
18.3,32033.3,34996.1,0.5692,-0.0543,142.6,96.4,0.543
18.32,31857.7,34891.7,-2.3727,-1.3025,142.6,96.4,0.543
18.34,31934.2,34985.9,-1.0913,-0.1763,142.6,96.4,0.543
18.36,32041.3,34939.8,0.7026,-0.7283,142.6,96.4,0.543
18.38,31910.9,34952.5,-1.481,-0.5759,142.6,96.4,0.543
18.4,31977.6,34973.7,-0.364,-0.3225,142.6,96.4,0.543
18.42,32024.4,34901.0,0.4198,-1.1919,142.6,96.4,0.543
18.44,31969.5,34905.6,-0.5006,-1.1369,142.6,96.4,0.543
18.46,31981.9,34957.9,-0.2924,-0.5114,142.6,96.4,0.543
18.48,32002.2,34986.1,0.0481,-0.1744,142.6,96.4,0.543
18.5,32034.5,35065.3,0.589,0.7726,142.6,96.4,0.543
18.52,32063.9,35086.9,1.0805,1.0308,142.6,96.4,0.543
18.54,32064.6,35036.4,1.0928,0.4279,142.6,96.4,0.543
18.56,32122.8,35083.1,2.0676,0.9863,142.6,96.4,0.543
18.58,32165.8,35155.3,2.7871,1.8494,142.6,96.4,0.543
18.6,31940.6,34974.0,-0.9832,-0.3193,142.6,96.4,0.543
18.62,32014.4,35090.1,0.2515,1.0698,142.6,96.4,0.543
18.64,31988.8,35042.4,-0.1771,0.4997,142.6,96.4,0.543
18.66,31971.7,35038.0,-0.4632,0.4469,142.6,96.4,0.543
18.68,31907.3,35072.4,-1.5411,0.8584,142.6,96.4,0.543
18.7,31977.7,34975.3,-0.3627,-0.3028,142.6,96.4,0.543
18.72,32003.5,34917.4,0.0698,-0.9956,142.6,96.4,0.543
18.74,31972.0,34996.7,-0.4586,-0.0475,142.6,96.4,0.543
18.76,31912.2,34949.4,-1.4591,-0.6125,142.6,96.4,0.543
18.78,31945.5,34941.9,-0.9021,-0.7028,142.6,96.4,0.543
18.8,31938.8,34932.9,-1.0138,-0.8097,142.6,96.4,0.543
18.82,31906.3,34966.2,-1.5588,-0.412,142.6,96.4,0.543
18.84,31954.5,34918.5,-0.7501,-0.9828,142.6,96.4,0.543
18.86,31900.9,34914.8,-1.6483,-1.0267,142.6,96.4,0.543
18.88,32046.9,35040.5,0.7967,0.4767,142.6,96.4,0.543
18.9,31980.6,35066.9,-0.3132,0.7922,142.6,96.4,0.543
18.92,32001.7,34934.2,0.0396,-0.7949,142.6,96.4,0.543
18.94,32062.8,35009.7,1.0631,0.1076,142.6,96.4,0.543
18.96,31973.2,35004.1,-0.4376,0.0413,142.6,96.4,0.543
18.98,32018.5,35156.3,0.3213,1.861,142.6,96.4,0.543
19.0,32046.4,35156.0,0.7877,1.8574,142.6,96.4,0.543
19.02,32055.7,35013.7,0.9441,0.1559,142.6,96.4,0.543
19.04,32076.0,35008.0,1.2832,0.0874,142.6,96.4,0.543
19.06,31986.5,35084.2,-0.2158,0.9994,142.6,96.4,0.543
19.08,32085.1,34934.2,1.4359,-0.7946,142.6,96.4,0.543
19.1,32023.6,34960.8,0.4062,-0.4763,142.6,96.4,0.543
19.12,31943.2,35053.9,-0.94,0.6367,142.6,96.4,0.543
19.14,32084.8,34973.2,1.4307,-0.3281,142.6,96.4,0.543
19.16,32019.5,34941.9,0.3378,-0.7022,142.6,96.4,0.543
19.18,32049.1,34927.7,0.8338,-0.8725,142.6,96.4,0.543
19.2,31927.5,35040.3,-1.2039,0.4742,142.6,96.4,0.543
19.22,32050.6,34973.5,0.8574,-0.3247,142.6,96.4,0.543
19.24,31937.0,34869.6,-1.0433,-1.5671,142.6,96.4,0.543
19.26,31981.2,34908.3,-0.3039,-1.1041,142.6,96.4,0.543
19.28,31988.7,34914.7,-0.1782,-1.0285,142.6,96.4,0.543
19.3,32026.6,34940.3,0.4568,-0.7216,142.6,96.4,0.543
19.32,31939.8,34932.2,-0.9964,-0.8188,142.6,96.4,0.543
19.34,32044.7,35098.1,0.7593,1.1648,142.6,96.4,0.543
19.36,31985.4,35087.2,-0.2341,1.0346,142.6,96.4,0.543
19.38,32085.8,35073.1,1.4477,0.8669,142.6,96.4,0.543
19.4,32020.0,35270.2,0.3457,3.2232,142.6,96.4,0.543
19.42,32174.0,35115.9,2.924,1.378,142.6,96.4,0.543
19.44,32041.2,35071.9,0.7003,0.8514,142.6,96.4,0.543
19.46,31987.5,35128.2,-0.1984,1.5257,142.6,96.4,0.543
19.48,31957.9,35016.1,-0.6942,0.1849,142.6,96.4,0.543
19.5,31997.9,34905.1,-0.0236,-1.1429,142.6,96.4,0.543
19.52,31961.9,34975.1,-0.627,-0.3056,142.6,96.4,0.543
19.54,32033.6,35015.5,0.574,0.1777,142.6,96.4,0.543
19.56,32029.2,34980.8,0.4998,-0.2373,142.6,96.4,0.543
19.58,32012.2,34976.1,0.2153,-0.2938,142.6,96.4,0.543
19.6,31922.0,35003.0,-1.2957,0.0278,142.6,96.4,0.543
19.62,31892.6,34896.8,-1.7874,-1.2419,142.6,96.4,0.543
19.64,32035.0,34962.8,0.597,-0.4523,142.6,96.4,0.543
19.66,31944.4,34885.1,-0.9201,-1.3817,142.6,96.4,0.543
19.68,32022.3,34909.1,0.3843,-1.0954,142.6,96.4,0.543
19.7,31915.7,34745.2,-1.4,-3.0545,142.6,96.4,0.543
19.72,31973.7,34932.0,-0.4288,-0.8214,142.6,96.4,0.543
19.74,31991.0,34889.8,-0.1392,-1.3257,142.6,96.4,0.543
19.76,32007.7,34898.5,0.1405,-1.2215,142.6,96.4,0.543
19.78,31997.4,35052.3,-0.0332,0.6173,142.6,96.4,0.543
19.8,32058.7,35171.9,0.9939,2.0484,142.6,96.4,0.543
19.82,32125.5,35170.3,2.112,2.0287,142.6,96.4,0.543
19.84,32090.2,35129.5,1.522,1.5404,142.6,96.4,0.543
19.86,32053.3,35103.1,0.904,1.2246,142.6,96.4,0.543
19.88,32059.6,35079.7,1.0081,0.9452,142.6,96.4,0.543
19.9,31939.7,35042.8,-0.9984,0.5037,142.6,96.4,0.543
19.92,32027.2,35114.2,0.4659,1.3577,142.6,96.4,0.543
19.94,32050.3,34902.2,0.8537,-1.1775,142.6,96.4,0.543
19.96,32045.2,34987.6,0.7684,-0.1563,142.6,96.4,0.543
19.98,31946.3,34975.0,-0.8885,-0.3071,142.6,96.4,0.543
20.0,31942.9,34861.8,-0.9459,-1.6607,142.6,96.4,0.543
20.02,32000.4,34989.2,0.0174,-0.1364,142.6,96.4,0.543
20.04,31947.3,34938.9,-0.8721,-0.7387,142.6,96.4,0.543
20.06,32040.1,35018.0,0.682,0.2075,142.6,96.4,0.543
20.08,32098.3,34945.4,1.6575,-0.6608,142.6,96.4,0.543
20.1,32005.9,34910.4,0.1099,-1.079,142.6,96.4,0.543
20.12,31994.8,34894.9,-0.0757,-1.2652,142.6,96.4,0.543
20.14,31965.0,34946.7,-0.576,-0.6458,142.6,96.4,0.543
20.16,32046.9,34956.3,0.7969,-0.53,142.6,96.4,0.543
20.18,31941.7,34917.8,-0.965,-0.9913,142.6,96.4,0.543
20.2,31966.7,35092.2,-0.5465,1.0951,142.6,96.4,0.543
20.22,32023.7,35090.8,0.4078,1.0778,142.6,96.4,0.543
20.24,32011.2,35104.7,0.1992,1.2439,142.6,96.4,0.543
20.26,32040.2,35040.5,0.6839,0.4768,142.6,96.4,0.543
20.28,32023.2,35155.6,0.4,1.8531,142.6,96.4,0.543
20.3,31994.6,34993.6,-0.0793,-0.0843,142.6,96.4,0.543
20.32,32007.8,35096.6,0.142,1.1468,142.6,96.4,0.543
20.34,32043.7,35019.9,0.7433,0.2302,142.6,96.4,0.543
20.36,31997.9,35061.9,-0.025,0.7324,142.6,96.4,0.543
20.38,32042.3,34965.0,0.7191,-0.4262,142.6,96.4,0.543
20.4,31943.2,34941.2,-0.9406,-0.7115,142.6,96.4,0.543
20.42,31992.7,34923.9,-0.1119,-0.9181,142.6,96.4,0.543
20.44,31940.1,35041.8,-0.9923,0.4915,142.6,96.4,0.543
20.46,31970.4,34988.8,-0.4841,-0.1421,142.6,96.4,0.543
20.48,32054.5,34946.8,0.924,-0.6443,142.6,96.4,0.543
20.5,31912.5,34967.8,-1.455,-0.3934,142.6,96.4,0.543
20.52,31981.3,34897.4,-0.3027,-1.2343,142.6,96.4,0.543
20.54,31963.4,34906.1,-0.6022,-1.1307,142.6,96.4,0.543
20.56,31923.2,34827.6,-1.2755,-2.069,142.6,96.4,0.543
20.58,31974.1,34986.5,-0.4226,-0.1694,142.6,96.4,0.543
20.6,31961.9,35008.4,-0.6266,0.0921,142.6,96.4,0.543
20.62,31928.4,35060.7,-1.1876,0.7175,142.6,96.4,0.543
20.64,32028.7,35071.7,0.4921,0.8495,142.6,96.4,0.543
20.66,32053.1,35201.6,0.9004,2.4028,142.6,96.4,0.543
20.68,32005.7,35199.7,0.1063,2.3807,142.6,96.4,0.543
20.7,32001.5,35079.9,0.0358,0.9476,142.6,96.4,0.543
20.72,32009.9,35089.4,0.1759,1.0607,142.6,96.4,0.543
20.74,31998.4,35142.7,-0.0163,1.6984,142.6,96.4,0.543
20.76,32070.6,34999.4,1.1936,-0.0148,142.6,96.4,0.543
20.78,31998.5,34957.2,-0.0137,-0.5197,142.6,96.4,0.543
20.8,31999.6,35038.4,0.0036,0.4512,142.6,96.4,0.543
20.82,32023.7,35059.9,0.4078,0.7089,142.6,96.4,0.543
20.84,31942.8,34985.0,-0.9474,-0.1875,142.6,96.4,0.543
20.86,32022.6,34986.7,0.39,-0.167,142.6,96.4,0.543
20.88,31856.8,34916.2,-2.3867,-1.01,142.6,96.4,0.543
20.9,31935.4,34942.1,-1.0711,-0.7007,142.6,96.4,0.543
20.92,32025.0,34923.0,0.4295,-0.9285,142.6,96.4,0.543
20.94,31906.9,34927.0,-1.5476,-0.8803,142.6,96.4,0.543
20.96,32029.8,34935.5,0.5099,-0.7795,142.6,96.4,0.543
20.98,32017.8,34904.3,0.3096,-1.1518,142.6,96.4,0.543
21.0,31941.7,34980.1,-0.9645,-0.2462,142.6,96.4,0.543
21.02,31970.1,35030.7,-0.4893,0.3593,142.6,96.4,0.543
21.04,32020.7,35088.0,0.3572,1.0449,142.6,96.4,0.543
21.06,32107.0,35095.5,1.8028,1.134,142.6,96.4,0.543
21.08,32130.7,35074.4,2.2002,0.8819,142.6,96.4,0.543
21.1,32041.1,35137.2,0.6984,1.6332,142.6,96.4,0.543
21.12,32102.8,35063.4,1.7315,0.7502,142.6,96.4,0.543
21.14,32049.9,35104.6,0.8472,1.2425,142.6,96.4,0.543
21.16,31977.4,34940.8,-0.3668,-0.7158,142.6,96.4,0.543
21.18,32033.6,35056.0,0.5736,0.6622,142.6,96.4,0.543
21.2,31983.2,34939.9,-0.2702,-0.7269,142.6,96.4,0.543
21.22,32017.6,34957.7,0.3061,-0.5135,142.6,96.4,0.543
21.24,32050.3,35083.4,0.8537,0.9898,142.6,96.4,0.543
21.26,31991.6,35012.8,-0.1306,0.1449,142.6,96.4,0.543
21.28,32032.5,34938.8,0.5547,-0.7395,142.6,96.4,0.543
21.3,31927.8,34955.7,-1.1977,-0.5378,142.6,96.4,0.543
21.32,32014.4,34934.6,0.2526,-0.7896,142.6,96.4,0.543
21.34,31930.1,35015.3,-1.1603,0.1754,142.6,96.4,0.543
21.36,31944.8,34841.1,-0.9132,-1.9085,142.6,96.4,0.543
21.38,32003.2,34923.7,0.0653,-0.9203,142.6,96.4,0.543
21.4,31859.5,34990.8,-2.3412,-0.1183,142.6,96.4,0.543
21.42,31938.8,34790.8,-1.0134,-2.5097,142.6,96.4,0.543
21.44,31940.4,35031.1,-0.9874,0.3643,142.6,96.4,0.543
21.46,32048.3,35042.9,0.819,0.5054,142.6,96.4,0.543
21.48,32083.5,35096.7,1.4098,1.1482,142.6,96.4,0.543
21.5,32138.4,35167.0,2.3288,1.9895,142.6,96.4,0.543
21.52,31964.4,35082.8,-0.5847,0.9825,142.6,96.4,0.543
21.54,31984.6,35103.0,-0.2475,1.2238,142.6,96.4,0.543
21.56,32001.5,35040.6,0.0366,0.4775,142.6,96.4,0.543
21.58,32082.4,35042.6,1.3908,0.5012,142.6,96.4,0.543
21.6,32047.0,35036.6,0.7976,0.43,142.6,96.4,0.543
21.62,32036.5,35041.4,0.6223,0.4871,142.6,96.4,0.543
21.64,31952.8,34944.0,-0.7788,-0.6773,142.6,96.4,0.543
21.66,31983.9,35003.1,-0.258,0.0294,142.6,96.4,0.543
21.68,31981.8,34967.5,-0.2941,-0.3968,142.6,96.4,0.543
21.7,31980.6,34952.2,-0.3144,-0.58,142.6,96.4,0.543
21.72,31926.5,34961.3,-1.2195,-0.4709,142.6,96.4,0.543
21.74,31962.9,34969.0,-0.611,-0.379,142.6,96.4,0.543
21.76,31994.1,34987.3,-0.0884,-0.1598,142.6,96.4,0.543
21.78,31999.7,35003.2,0.005,0.0305,142.6,96.4,0.543
21.8,31979.0,34885.7,-0.3403,-1.3743,142.6,96.4,0.543
21.82,31901.6,34828.7,-1.6362,-2.0559,142.6,96.4,0.543
21.84,31982.8,35062.4,-0.2773,0.7379,142.6,96.4,0.543
21.86,32010.9,34963.2,0.1936,-0.4485,142.6,96.4,0.543
21.88,31930.7,34961.9,-1.149,-0.4638,142.6,96.4,0.543
21.9,32091.2,35184.4,1.5381,2.1975,142.6,96.4,0.543
21.92,32080.4,35118.5,1.357,1.409,142.6,96.4,0.543
21.94,32090.3,35147.1,1.5225,1.751,142.6,96.4,0.543
21.96,32065.8,35141.8,1.1121,1.6873,142.6,96.4,0.543
21.98,31958.1,35166.0,-0.69,1.9777,142.6,96.4,0.543
22.0,32057.0,34962.3,0.9652,-0.4589,142.6,96.4,0.543
22.02,31977.4,35020.3,-0.3677,0.2347,142.6,96.4,0.543
22.04,31977.0,34945.8,-0.3737,-0.6565,142.6,96.4,0.543
22.06,31909.0,35051.1,-1.5127,0.6035,142.6,96.4,0.543
22.08,32009.5,34932.6,0.1699,-0.8144,142.6,96.4,0.543
22.1,31999.1,34939.4,-0.0044,-0.7325,142.6,96.4,0.543
22.12,31929.3,34895.2,-1.1731,-1.261,142.6,96.4,0.543
22.14,31882.0,34950.4,-1.9657,-0.6004,142.6,96.4,0.543
22.16,31922.9,34895.7,-1.2808,-1.255,142.6,96.4,0.543
22.18,32014.3,34940.1,0.2498,-0.7241,142.6,96.4,0.543
22.2,31901.9,34861.5,-1.6311,-1.6646,142.6,96.4,0.543
22.22,31934.3,34943.0,-1.0898,-0.6897,142.6,96.4,0.543
22.24,31972.4,34858.9,-0.4508,-1.6957,142.6,96.4,0.543
22.26,31993.9,34886.3,-0.0908,-1.3671,142.6,96.4,0.543
22.28,31993.7,35043.6,-0.0942,0.5134,142.6,96.4,0.543
22.3,32081.3,35040.8,1.3719,0.4803,142.6,96.4,0.543
22.32,31985.7,35056.3,-0.2292,0.6659,142.6,96.4,0.543
22.34,32019.3,35123.1,0.334,1.4645,142.6,96.4,0.543
22.36,32050.7,35133.5,0.8602,1.5883,142.6,96.4,0.543
22.38,32099.4,35128.0,1.6757,1.5223,142.6,96.4,0.543
22.4,32051.8,35060.9,0.8789,0.7205,142.6,96.4,0.543
22.42,31975.9,34979.1,-0.3919,-0.258,142.6,96.4,0.543
22.44,31956.7,34986.1,-0.7145,-0.1739,142.6,96.4,0.543
22.46,32020.4,35013.7,0.3517,0.156,142.6,96.4,0.543
22.48,32005.7,35004.4,0.107,0.045,142.6,96.4,0.543
22.5,31978.1,35027.5,-0.3557,0.3209,142.6,96.4,0.543
22.52,31946.3,34970.5,-0.888,-0.3601,142.6,96.4,0.543
22.54,32074.1,34894.8,1.2518,-1.2663,142.6,96.4,0.543
22.56,32021.2,34896.6,0.3657,-1.2439,142.6,96.4,0.543
22.58,31981.6,35012.1,-0.298,0.137,142.6,96.4,0.543
22.6,31992.1,34985.2,-0.1208,-0.1847,142.6,96.4,0.543
22.62,31930.2,34920.2,-1.1573,-0.9623,142.6,96.4,0.543
22.64,31929.8,34898.7,-1.1639,-1.2195,142.6,96.4,0.543
22.66,31939.5,34928.2,-1.0024,-0.8665,142.6,96.4,0.543
22.68,31918.1,34956.2,-1.3603,-0.5315,142.6,96.4,0.543
22.7,32030.2,34992.7,0.5158,-0.0947,142.6,96.4,0.543
22.72,32069.6,35027.5,1.1764,0.321,142.6,96.4,0.543
22.74,32013.5,35090.1,0.2362,1.0698,142.6,96.4,0.543
22.76,32124.4,35146.8,2.0945,1.7474,142.6,96.4,0.543
22.78,32106.9,35105.0,1.8005,1.2479,142.6,96.4,0.543
22.8,32027.0,35134.1,0.4624,1.5954,142.6,96.4,0.543
22.82,32074.5,34984.4,1.2591,-0.1939,142.6,96.4,0.543
22.84,31989.6,34936.2,-0.1625,-0.771,142.6,96.4,0.543
22.86,32037.3,34989.6,0.6352,-0.1325,142.6,96.4,0.543
22.88,32042.2,35073.5,0.7181,0.8716,142.6,96.4,0.543
22.9,31990.5,35012.8,-0.1476,0.145,142.6,96.4,0.543
22.92,31950.2,34966.9,-0.8224,-0.4033,142.6,96.4,0.543
22.94,32030.4,35021.2,0.5193,0.2456,142.6,96.4,0.543
22.96,31983.2,35040.5,-0.2706,0.4768,142.6,96.4,0.543
22.98,31976.2,34914.7,-0.3876,-1.0279,142.6,96.4,0.543
23.0,31892.5,34866.2,-1.7891,-1.6081,142.6,96.4,0.543
23.02,31948.1,34986.2,-0.858,-0.1734,142.6,96.4,0.543
23.04,32024.1,34925.3,0.4138,-0.9007,142.6,96.4,0.543
23.06,32030.8,35054.4,0.5268,0.6427,142.6,96.4,0.543
23.08,32050.4,34871.5,0.8553,-1.5442,142.6,96.4,0.543
23.1,32015.5,34953.5,0.2703,-0.5642,142.6,96.4,0.543
23.12,31925.6,34926.7,-1.2356,-0.8849,142.6,96.4,0.543
23.14,31919.2,35134.3,-1.342,1.5979,142.6,96.4,0.543
23.16,32101.5,35133.4,1.7099,1.5869,142.6,96.4,0.543
23.18,32038.1,35149.0,0.6488,1.7743,142.6,96.4,0.543
23.2,32063.0,35014.0,1.066,0.1593,142.6,96.4,0.543
23.22,32004.1,35152.9,0.079,1.8206,142.6,96.4,0.543
23.24,32159.5,35140.9,2.6815,1.6776,142.6,96.4,0.543
23.26,31987.6,35056.6,-0.1963,0.6691,142.6,96.4,0.543
23.28,31977.1,34991.7,-0.3727,-0.1072,142.6,96.4,0.543
23.3,31985.0,35030.2,-0.2405,0.3529,142.6,96.4,0.543
23.32,31942.6,34998.6,-0.9497,-0.0241,142.6,96.4,0.543
23.34,31960.1,35041.7,-0.6568,0.491,142.6,96.4,0.543
23.36,31963.1,34870.3,-0.6064,-1.5586,142.6,96.4,0.543
23.38,31877.1,34833.0,-2.0471,-2.0053,142.6,96.4,0.543
23.4,31983.7,34861.9,-0.262,-1.6592,142.6,96.4,0.543
23.42,31942.9,34944.9,-0.9452,-0.6665,142.6,96.4,0.543
23.44,31895.3,34902.1,-1.7417,-1.1783,142.6,96.4,0.543
23.46,32048.6,34939.0,0.8241,-0.7376,142.6,96.4,0.543
23.48,31970.0,34894.7,-0.4918,-1.2675,142.6,96.4,0.543
23.5,31930.7,34968.6,-1.1488,-0.3835,142.6,96.4,0.543
23.52,31984.1,34922.1,-0.255,-0.9393,142.6,96.4,0.543
23.54,31989.5,35045.0,-0.1649,0.53,142.6,96.4,0.543
23.56,31972.5,34971.8,-0.4496,-0.3454,142.6,96.4,0.543
23.58,32018.7,35143.9,0.3248,1.7134,142.6,96.4,0.543
23.6,32180.3,35126.4,3.0304,1.5039,142.6,96.4,0.543
23.62,31978.8,35157.0,-0.3447,1.8693,142.6,96.4,0.543
23.64,32146.2,35133.3,2.4591,1.5867,142.6,96.4,0.543
23.66,32060.7,35047.6,1.0273,0.5612,142.6,96.4,0.543
23.68,31972.3,35008.1,-0.4526,0.0892,142.6,96.4,0.543
23.7,31960.4,34994.9,-0.6528,-0.0694,142.6,96.4,0.543
23.72,31922.9,35019.3,-1.2806,0.2226,142.6,96.4,0.543
23.74,32005.4,34977.4,0.1005,-0.2776,142.6,96.4,0.543
23.76,31954.5,34990.0,-0.7511,-0.1278,142.6,96.4,0.543
23.78,31953.0,35013.8,-0.7767,0.1569,142.6,96.4,0.543
23.8,31934.7,35001.4,-1.0824,0.0088,142.6,96.4,0.543
23.82,31909.7,34925.8,-1.5018,-0.8953,142.6,96.4,0.543
23.84,31919.3,34889.7,-1.3399,-1.3271,142.6,96.4,0.543
23.86,31903.4,34925.0,-1.6061,-0.9053,142.6,96.4,0.543
23.88,32038.0,34957.1,0.6473,-0.5214,142.6,96.4,0.543
23.9,31955.0,34965.1,-0.7434,-0.4249,142.6,96.4,0.543
23.92,31990.5,34892.0,-0.1488,-1.2995,142.6,96.4,0.543
23.94,31972.4,35034.5,-0.4514,0.4044,142.6,96.4,0.543
23.96,32023.2,34933.7,0.3988,-0.8002,142.6,96.4,0.543
23.98,31999.5,35078.1,0.0024,0.9256,142.6,96.4,0.543
24.0,32022.0,35076.0,0.3793,0.9015,142.6,96.4,0.543
24.02,32089.7,35108.3,1.5136,1.2868,142.6,96.4,0.543
24.04,32165.2,35116.3,2.7766,1.3826,142.6,96.4,0.543
24.06,32063.4,35058.1,1.0726,0.6865,142.6,96.4,0.543
24.08,31956.9,35070.3,-0.7102,0.8331,142.6,96.4,0.543
24.1,31987.9,35004.5,-0.1915,0.046,142.6,96.4,0.543
24.12,32034.2,35088.1,0.5842,1.0454,142.6,96.4,0.543
24.14,32033.0,35011.2,0.5631,0.1258,142.6,96.4,0.543
24.16,31969.6,34967.8,-0.4987,-0.3935,142.6,96.4,0.543
24.18,31977.9,35015.1,-0.3584,0.1724,142.6,96.4,0.543
24.2,31897.5,34924.7,-1.7058,-0.9088,142.6,96.4,0.543
24.22,32000.1,35030.7,0.0129,0.3592,142.6,96.4,0.543
24.24,31921.2,34933.1,-1.3083,-0.8083,142.6,96.4,0.543
24.26,32000.4,34995.0,0.0176,-0.0678,142.6,96.4,0.543
24.28,31962.7,34885.3,-0.6136,-1.3792,142.6,96.4,0.543
24.3,31956.0,34922.5,-0.7266,-0.9349,142.6,96.4,0.543
24.32,31980.5,34950.3,-0.3152,-0.6022,142.6,96.4,0.543
24.34,31926.2,34785.1,-1.2252,-2.578,142.6,96.4,0.543
24.36,31966.8,34937.4,-0.5448,-0.7565,142.6,96.4,0.543
24.38,31998.2,34949.5,-0.0193,-0.6119,142.6,96.4,0.543
24.4,32107.9,35023.1,1.8169,0.2682,142.6,96.4,0.543
24.42,32075.9,35092.0,1.2817,1.0918,142.6,96.4,0.543
24.44,32035.4,35058.3,0.6035,0.6888,142.6,96.4,0.543
24.46,32104.5,35128.3,1.7615,1.5259,142.6,96.4,0.543
24.48,32031.7,35062.6,0.5417,0.7409,142.6,96.4,0.543
24.5,32090.4,34999.9,1.5245,-0.0092,142.6,96.4,0.543
24.52,32090.4,35077.5,1.5253,0.9186,142.6,96.4,0.543
24.54,31911.2,34978.4,-1.4759,-0.2665,142.6,96.4,0.543
24.56,32001.4,34927.4,0.0349,-0.8766,142.6,96.4,0.543
24.58,31963.9,35068.1,-0.5943,0.8062,142.6,96.4,0.543
24.6,32007.9,34883.4,0.1435,-1.402,142.6,96.4,0.543
24.62,31982.1,34951.5,-0.2885,-0.5883,142.6,96.4,0.543
24.64,31849.6,34916.8,-2.5078,-1.0031,142.6,96.4,0.543
24.66,31967.8,34919.4,-0.5291,-0.9721,142.6,96.4,0.543
24.68,31953.8,34926.1,-0.7619,-0.8916,142.6,96.4,0.543
24.7,31972.4,34950.8,-0.4507,-0.5966,142.6,96.4,0.543
24.72,31872.1,34931.9,-2.13,-0.8219,142.6,96.4,0.543
24.74,31900.2,34893.8,-1.6603,-1.2783,142.6,96.4,0.543
24.76,31992.8,34918.7,-0.1096,-0.9797,142.6,96.4,0.543
24.78,32018.0,35003.8,0.3124,0.0372,142.6,96.4,0.543
24.8,31993.7,34931.8,-0.0943,-0.8234,142.6,96.4,0.543
24.82,31956.0,34997.3,-0.726,-0.0405,142.6,96.4,0.543
24.84,32029.6,35070.3,0.5062,0.8325,142.6,96.4,0.543
24.86,32081.6,35122.0,1.3771,1.4509,142.6,96.4,0.543
24.88,32002.0,35092.6,0.0441,1.0994,142.6,96.4,0.543
24.9,32031.8,34982.3,0.5434,-0.219,142.6,96.4,0.543
24.92,32060.5,35052.6,1.0243,0.6211,142.6,96.4,0.543
24.94,32058.8,35025.1,0.9962,0.2921,142.6,96.4,0.543
24.96,31940.0,35048.7,-0.9933,0.5743,142.6,96.4,0.543
24.98,31976.4,34981.1,-0.3836,-0.2339,142.6,96.4,0.543
25.0,32028.4,35044.2,0.4856,0.5203,142.6,96.4,0.543
25.02,31999.0,34963.3,-0.0056,-0.4471,142.6,96.4,0.543
25.04,31952.7,35004.6,-0.7811,0.0467,142.6,96.4,0.543
25.06,31987.2,34944.6,-0.2032,-0.6698,142.6,96.4,0.543
25.08,31962.2,34898.8,-0.6225,-1.2183,142.6,96.4,0.543
25.1,31946.3,34934.3,-0.8877,-0.7938,142.6,96.4,0.543
25.12,31969.1,35043.0,-0.5061,0.5067,142.6,96.4,0.543
25.14,32064.7,34884.8,1.0941,-1.386,142.6,96.4,0.543
25.16,31972.5,34905.0,-0.4504,-1.1441,142.6,96.4,0.543
25.18,31997.1,34893.1,-0.0384,-1.2866,142.6,96.4,0.543
25.2,32064.7,34874.1,1.0942,-1.5137,142.6,96.4,0.543
25.22,31954.4,34892.5,-0.752,-1.2931,142.6,96.4,0.543
25.24,31982.9,34973.1,-0.2756,-0.33,142.6,96.4,0.543
25.26,32033.0,35067.8,0.5631,0.8025,142.6,96.4,0.543
25.28,32058.3,35104.0,0.9869,1.2361,142.6,96.4,0.543
25.3,32042.8,35170.8,0.7276,2.0352,142.6,96.4,0.543
25.32,32119.2,35024.5,2.0065,0.2847,142.6,96.4,0.543
25.34,31968.3,35013.7,-0.5203,0.1556,142.6,96.4,0.543
25.36,32027.4,35043.4,0.4703,0.5105,142.6,96.4,0.543
25.38,32061.1,35059.1,1.0333,0.6986,142.6,96.4,0.543
25.4,31991.0,34966.9,-0.1392,-0.4034,142.6,96.4,0.543
25.42,31993.6,35012.8,-0.0965,0.1453,142.6,96.4,0.543
25.44,32003.5,35053.0,0.0687,0.6258,142.6,96.4,0.543
25.46,31919.8,34971.0,-1.3316,-0.355,142.6,96.4,0.543
25.48,31990.9,34946.6,-0.1421,-0.647,142.6,96.4,0.543
25.5,32000.6,34980.9,0.0203,-0.2364,142.6,96.4,0.543
25.52,31971.4,34954.0,-0.4673,-0.5578,142.6,96.4,0.543
25.54,31977.5,35040.9,-0.3653,0.4811,142.6,96.4,0.543
25.56,32012.0,34923.4,0.2117,-0.924,142.6,96.4,0.543
25.58,31995.9,34936.2,-0.0571,-0.7707,142.6,96.4,0.543
25.6,32077.1,34855.0,1.3012,-1.7423,142.6,96.4,0.543
25.62,31942.9,34939.5,-0.9458,-0.7311,142.6,96.4,0.543
25.64,32080.7,34981.9,1.3613,-0.2248,142.6,96.4,0.543
25.66,31952.2,34963.9,-0.7888,-0.4394,142.6,96.4,0.543
25.68,32125.6,35050.1,2.1141,0.5907,142.6,96.4,0.543
25.7,32043.8,35130.7,0.7444,1.555,142.6,96.4,0.543
25.72,32079.9,35083.3,1.3494,0.9888,142.6,96.4,0.543
25.74,31992.5,35127.7,-0.114,1.5196,142.6,96.4,0.543
25.76,31909.8,35019.9,-1.4986,0.2303,142.6,96.4,0.543
25.78,32048.7,35017.7,0.8261,0.2042,142.6,96.4,0.543
25.8,32091.8,35010.5,1.5483,0.1171,142.6,96.4,0.543
25.82,31997.9,34973.9,-0.0242,-0.3204,142.6,96.4,0.543
25.84,31966.9,34917.2,-0.5426,-0.9986,142.6,96.4,0.543
25.86,32066.0,35005.3,1.1155,0.0555,142.6,96.4,0.543
25.88,32006.6,34904.7,0.1218,-1.148,142.6,96.4,0.543
25.9,31917.5,34981.5,-1.3712,-0.2295,142.6,96.4,0.543
25.92,31890.4,34961.3,-1.8245,-0.4709,142.6,96.4,0.543
25.94,31962.8,34914.4,-0.6115,-1.0318,142.6,96.4,0.543
25.96,31938.4,34933.8,-1.0199,-0.7995,142.6,96.4,0.543
25.98,31916.2,34860.1,-1.3916,-1.681,142.6,96.4,0.543
26.0,31989.7,34854.6,-0.1611,-1.7471,142.6,96.4,0.543
26.02,31870.3,34880.0,-2.1603,-1.4426,142.6,96.4,0.543
26.04,31925.2,35002.8,-1.2419,0.026,142.6,96.4,0.543
26.06,32031.6,34907.3,0.5405,-1.1167,142.6,96.4,0.543
26.08,31984.8,35024.5,-0.2439,0.285,142.6,96.4,0.543
26.1,32080.2,35053.6,1.3539,0.6332,142.6,96.4,0.543
26.12,32031.8,35110.1,0.5434,1.3084,142.6,96.4,0.543
26.14,32046.7,35053.8,0.792,0.6354,142.6,96.4,0.543
26.16,32078.2,35020.4,1.3205,0.2361,142.6,96.4,0.543
26.18,32036.5,34950.7,0.6224,-0.597,142.6,96.4,0.543
26.2,32030.2,34998.1,0.5164,-0.0303,142.6,96.4,0.543
26.22,32002.0,35123.6,0.0449,1.4701,142.6,96.4,0.543
26.24,32037.5,34993.6,0.6385,-0.0838,142.6,96.4,0.543
26.26,32011.8,34955.0,0.2087,-0.5466,142.6,96.4,0.543
26.28,31952.3,35020.2,-0.7878,0.2336,142.6,96.4,0.543
26.3,31944.8,34923.8,-0.9128,-0.9186,142.6,96.4,0.543
26.32,31868.5,35032.2,-2.1917,0.3776,142.6,96.4,0.543
26.34,31999.7,35051.7,0.0065,0.6101,142.6,96.4,0.543
26.36,31974.9,34890.2,-0.4092,-1.321,142.6,96.4,0.543
26.38,31978.6,34940.1,-0.3468,-0.7245,142.6,96.4,0.543
26.4,32032.8,34911.9,0.5594,-1.0615,142.6,96.4,0.543
26.42,31889.8,34925.0,-1.8342,-0.9047,142.6,96.4,0.543
26.44,31989.4,34927.8,-0.1665,-0.8713,142.6,96.4,0.543
26.46,31972.5,34876.8,-0.4499,-1.4807,142.6,96.4,0.543
26.48,31880.2,34885.1,-1.9958,-1.3815,142.6,96.4,0.543
26.5,31957.1,35074.4,-0.7069,0.8813,142.6,96.4,0.543
26.52,32011.2,35083.0,0.1988,0.9843,142.6,96.4,0.543
26.54,32191.4,35048.4,3.2153,0.5708,142.6,96.4,0.543
26.56,32115.6,35162.6,1.9464,1.9367,142.6,96.4,0.543
26.58,32100.7,35079.0,1.6976,0.937,142.6,96.4,0.543
26.6,32019.6,35034.1,0.3392,0.4004,142.6,96.4,0.543
26.62,31972.7,35040.9,-0.4466,0.4808,142.6,96.4,0.543
26.64,32052.8,35006.4,0.8955,0.069,142.6,96.4,0.543
26.66,31983.3,35013.7,-0.2685,0.1565,142.6,96.4,0.543
26.68,32053.9,35027.9,0.9135,0.3261,142.6,96.4,0.543
26.7,32022.7,35041.5,0.3918,0.489,142.6,96.4,0.543
26.72,31987.8,35021.6,-0.1933,0.25,142.6,96.4,0.543
26.74,32053.1,34949.0,0.8997,-0.6176,142.6,96.4,0.543
26.76,31943.4,34961.9,-0.9369,-0.4635,142.6,96.4,0.543
26.78,31978.0,34886.9,-0.3567,-1.3608,142.6,96.4,0.543
26.8,31944.1,34899.9,-0.9257,-1.2048,142.6,96.4,0.543
26.82,32062.4,34894.7,1.0556,-1.2669,142.6,96.4,0.543
26.84,31997.1,34913.5,-0.0374,-1.0421,142.6,96.4,0.543
26.86,31923.2,34854.5,-1.2754,-1.7482,142.6,96.4,0.543
26.88,31990.4,34956.2,-0.1495,-0.5318,142.6,96.4,0.543
26.9,31940.5,34914.9,-0.9857,-1.0254,142.6,96.4,0.543
26.92,31985.6,35026.0,-0.2308,0.3035,142.6,96.4,0.543
26.94,32000.1,34995.2,0.0124,-0.0655,142.6,96.4,0.543
26.96,31980.5,35141.3,-0.3158,1.6823,142.6,96.4,0.543
26.98,32030.1,35186.5,0.5147,2.222,142.6,96.4,0.543
27.0,32066.8,35061.4,1.1294,0.7258,142.6,96.4,0.543
27.02,32022.7,35077.6,0.391,0.9199,142.6,96.4,0.543
27.04,31986.9,35097.3,-0.2082,1.1559,142.6,96.4,0.543
27.06,31978.8,34958.6,-0.344,-0.5033,142.6,96.4,0.543
27.08,32019.5,35023.1,0.3372,0.2686,142.6,96.4,0.543
27.1,31967.0,34995.6,-0.5415,-0.0602,142.6,96.4,0.543
27.12,31984.4,34957.8,-0.2506,-0.5124,142.6,96.4,0.543
27.14,32049.7,34965.2,0.8435,-0.4237,142.6,96.4,0.543
27.16,32009.8,34974.7,0.1751,-0.3107,142.6,96.4,0.543
27.18,31972.6,34964.2,-0.4486,-0.4359,142.6,96.4,0.543
27.2,32008.9,34991.0,0.1591,-0.1152,142.6,96.4,0.543
27.22,32016.4,34923.5,0.2858,-0.923,142.6,96.4,0.543
27.24,31972.5,34838.4,-0.4497,-1.9403,142.6,96.4,0.543
27.26,31960.6,34971.6,-0.6492,-0.3477,142.6,96.4,0.543
27.28,31914.3,34981.1,-1.4237,-0.2341,142.6,96.4,0.543
27.3,31884.5,34926.1,-1.9226,-0.8914,142.6,96.4,0.543
27.32,31904.2,34930.3,-1.5931,-0.841,142.6,96.4,0.543
27.34,31928.3,35000.6,-1.1898,-0.0001,142.6,96.4,0.543
27.36,32062.7,34996.4,1.0612,-0.0512,142.6,96.4,0.543
27.38,32045.3,35030.1,0.7702,0.3521,142.6,96.4,0.543
27.4,32021.2,35179.4,0.3656,2.1372,142.6,96.4,0.543
27.42,31984.1,35103.3,-0.2559,1.2272,142.6,96.4,0.543
27.44,32061.7,35073.4,1.0443,0.8698,142.6,96.4,0.543
27.46,32087.6,35014.8,1.4785,0.1688,142.6,96.4,0.543
27.48,32017.1,34947.7,0.2974,-0.633,142.6,96.4,0.543
27.5,32002.2,35081.7,0.0479,0.9698,142.6,96.4,0.543
27.52,31980.4,35032.7,-0.3167,0.3831,142.6,96.4,0.543
27.54,32022.1,34895.1,0.3803,-1.2629,142.6,96.4,0.543
27.56,31914.1,34949.8,-1.4267,-0.6082,142.6,96.4,0.543
27.58,31941.4,34963.0,-0.9704,-0.4504,142.6,96.4,0.543
27.6,32067.0,34924.8,1.133,-0.9071,142.6,96.4,0.543
27.62,32021.2,34980.1,0.3651,-0.2454,142.6,96.4,0.543
27.64,31972.3,34972.7,-0.4533,-0.3344,142.6,96.4,0.543
27.66,32019.9,34938.0,0.3445,-0.7495,142.6,96.4,0.543
27.68,31928.0,34988.4,-1.1948,-0.147,142.6,96.4,0.543
27.7,31887.5,34914.8,-1.8722,-1.0268,142.6,96.4,0.543
27.72,31907.1,34879.3,-1.5445,-1.4512,142.6,96.4,0.543
27.74,31927.1,34969.9,-1.2101,-0.3682,142.6,96.4,0.543
27.76,32124.4,35061.5,2.0936,0.7281,142.6,96.4,0.543
27.78,32076.0,35003.4,1.2832,0.0333,142.6,96.4,0.543
27.8,32141.0,35051.4,2.3714,0.6064,142.6,96.4,0.543
27.82,32174.9,35117.0,2.9396,1.3911,142.6,96.4,0.543
27.84,32036.1,35097.5,0.6156,1.1576,142.6,96.4,0.543
27.86,32044.9,35085.9,0.7627,1.0199,142.6,96.4,0.543
27.88,32018.7,35079.1,0.3238,0.9381,142.6,96.4,0.543
27.9,31925.6,35029.7,-1.2344,0.3479,142.6,96.4,0.543
27.92,31985.5,35012.1,-0.232,0.1366,142.6,96.4,0.543
27.94,31970.5,34993.1,-0.4827,-0.0905,142.6,96.4,0.543
27.96,31996.7,35043.4,-0.0442,0.511,142.6,96.4,0.543
27.98,32083.9,34999.9,1.4157,-0.0092,142.6,96.4,0.543
28.0,32014.3,35057.9,0.2496,0.6844,142.6,96.4,0.543
28.02,31966.2,34984.3,-0.5551,-0.1953,142.6,96.4,0.543
28.04,31899.1,34957.2,-1.6794,-0.5191,142.6,96.4,0.543
28.06,31909.5,34950.9,-1.5039,-0.5949,142.6,96.4,0.543
28.08,32024.9,34922.1,0.4284,-0.9391,142.6,96.4,0.543
28.1,31914.8,34881.8,-1.4163,-1.4215,142.6,96.4,0.543
28.12,31965.9,34876.5,-0.5601,-1.4851,142.6,96.4,0.543
28.14,32002.3,34925.4,0.0488,-0.8995,142.6,96.4,0.543
28.16,31981.0,34971.8,-0.3067,-0.3446,142.6,96.4,0.543
28.18,32035.3,34948.6,0.6022,-0.6224,142.6,96.4,0.543
28.2,31948.3,35023.9,-0.8553,0.2776,142.6,96.4,0.543
28.22,32056.7,35119.3,0.9601,1.4191,142.6,96.4,0.543
28.24,32053.8,35171.3,0.9111,2.0408,142.6,96.4,0.543
28.26,32069.8,35138.7,1.1791,1.6514,142.6,96.4,0.543
28.28,32024.7,35170.4,0.4253,2.0295,142.6,96.4,0.543
28.3,31988.5,35114.9,-0.1814,1.3661,142.6,96.4,0.543
28.32,32099.4,35103.2,1.6747,1.2259,142.6,96.4,0.543
28.34,32014.8,34986.1,0.2594,-0.1736,142.6,96.4,0.543
28.36,31948.6,35057.4,-0.849,0.679,142.6,96.4,0.543
28.38,32028.4,35002.6,0.4864,0.0227,142.6,96.4,0.543
28.4,31963.7,34955.3,-0.5972,-0.542,142.6,96.4,0.543
28.42,31999.7,34995.6,0.0065,-0.0609,142.6,96.4,0.543
28.44,31965.8,34979.4,-0.5624,-0.2543,142.6,96.4,0.543
28.46,32019.8,35007.4,0.3418,0.0804,142.6,96.4,0.543
28.48,31947.2,34964.5,-0.8732,-0.4323,142.6,96.4,0.543
28.5,31900.8,34914.5,-1.6503,-1.0309,142.6,96.4,0.543
28.52,31913.5,34826.3,-1.4369,-2.0846,142.6,96.4,0.543
28.54,31957.7,34805.1,-0.6979,-2.3381,142.6,96.4,0.543
28.56,31859.6,34991.1,-2.3401,-0.1148,142.6,96.4,0.543
28.58,31975.1,34922.7,-0.4064,-0.9318,142.6,96.4,0.543
28.6,31966.8,35008.7,-0.5454,0.0965,142.6,96.4,0.543
28.62,32079.4,35090.3,1.34,1.0724,142.6,96.4,0.543
28.64,32077.2,35137.6,1.3041,1.6382,142.6,96.4,0.543
28.66,32071.4,35101.6,1.2062,1.2076,142.6,96.4,0.543
28.68,32137.6,34996.8,2.315,-0.0459,142.6,96.4,0.543
28.7,32050.6,35093.6,0.8583,1.1117,142.6,96.4,0.543
28.72,32094.5,35044.6,1.5929,0.5251,142.6,96.4,0.543
28.74,32066.7,35016.2,1.1274,0.1853,142.6,96.4,0.543
28.76,31967.3,34984.6,-0.536,-0.192,142.6,96.4,0.543
28.78,31935.9,35000.5,-1.063,-0.0022,142.6,96.4,0.543
28.8,31981.9,35023.4,-0.2923,0.2719,142.6,96.4,0.543
28.82,31941.2,34995.0,-0.9732,-0.0682,142.6,96.4,0.543
28.84,31995.3,34965.8,-0.0674,-0.4168,142.6,96.4,0.543
28.86,31986.8,34991.1,-0.2106,-0.1148,142.6,96.4,0.543
28.88,31899.3,34961.6,-1.6755,-0.4674,142.6,96.4,0.543
28.9,31950.7,34911.1,-0.815,-1.0708,142.6,96.4,0.543
28.92,31933.8,34935.0,-1.0975,-0.7856,142.6,96.4,0.543
28.94,31988.9,34906.2,-0.1746,-1.1291,142.6,96.4,0.543
28.96,31988.0,35013.3,-0.1902,0.1511,142.6,96.4,0.543
28.98,31926.4,34882.8,-1.2223,-1.4096,142.6,96.4,0.543
29.0,31942.0,34967.3,-0.9608,-0.3989,142.6,96.4,0.543
29.02,32063.9,34963.4,1.0808,-0.4457,142.6,96.4,0.543
29.04,31999.4,35052.2,0.0007,0.6166,142.6,96.4,0.543
29.06,32006.6,35048.0,0.1206,0.5658,142.6,96.4,0.543
29.08,32064.5,35173.6,1.0915,2.0681,142.6,96.4,0.543
29.1,32130.4,35008.0,2.1943,0.0879,142.6,96.4,0.543
29.12,32062.6,35114.8,1.0584,1.3654,142.6,96.4,0.543
29.14,31977.6,34995.8,-0.3639,-0.0576,142.6,96.4,0.543
29.16,32071.1,35031.0,1.2016,0.3633,142.6,96.4,0.543
29.18,32002.2,35091.6,0.048,1.087,142.6,96.4,0.543
29.2,31933.1,34924.6,-1.1091,-0.9098,142.6,96.4,0.543
29.22,32043.2,34897.6,0.7346,-1.2324,142.6,96.4,0.543
29.24,32040.3,34955.9,0.6855,-0.5352,142.6,96.4,0.543
29.26,31969.2,35036.0,-0.505,0.423,142.6,96.4,0.543
29.28,31965.3,34951.6,-0.5706,-0.5861,142.6,96.4,0.543
29.3,32029.3,34988.4,0.5019,-0.1462,142.6,96.4,0.543
29.32,31969.1,34972.9,-0.5069,-0.3324,142.6,96.4,0.543
29.34,31972.0,34884.2,-0.458,-1.3925,142.6,96.4,0.543
29.36,31984.5,34903.2,-0.248,-1.1653,142.6,96.4,0.543
29.38,32012.2,34996.8,0.2149,-0.0461,142.6,96.4,0.543
29.4,32031.1,34942.2,0.532,-0.6993,142.6,96.4,0.543
29.42,31935.2,34962.1,-1.0745,-0.4614,142.6,96.4,0.543
29.44,31953.0,34994.7,-0.7756,-0.0716,142.6,96.4,0.543
29.46,32083.3,35159.4,1.405,1.8981,142.6,96.4,0.543
29.48,32027.7,35082.3,0.475,0.9767,142.6,96.4,0.543
29.5,32036.6,35062.9,0.6233,0.7446,142.6,96.4,0.543
29.52,32073.0,35164.4,1.2336,1.9584,142.6,96.4,0.543
29.54,32028.1,35104.1,0.4821,1.2366,142.6,96.4,0.543
29.56,32006.4,34970.0,0.1176,-0.3671,142.6,96.4,0.543
29.58,32059.9,34992.3,1.0136,-0.0995,142.6,96.4,0.543
29.6,32049.1,34995.3,0.8336,-0.0646,142.6,96.4,0.543
29.62,32057.7,35014.1,0.9778,0.1609,142.6,96.4,0.543
29.64,32053.0,34966.1,0.8983,-0.4134,142.6,96.4,0.543
29.66,31963.5,34986.1,-0.6011,-0.1747,142.6,96.4,0.543
29.68,32011.4,34898.4,0.2025,-1.2232,142.6,96.4,0.543
29.7,31904.9,34944.3,-1.5814,-0.6742,142.6,96.4,0.543
29.72,32006.2,34955.3,0.1151,-0.5429,142.6,96.4,0.543
29.74,31979.4,34961.8,-0.3338,-0.4651,142.6,96.4,0.543
29.76,32002.1,34960.3,0.0466,-0.4821,142.6,96.4,0.543
29.78,31966.4,34916.6,-0.5513,-1.0049,142.6,96.4,0.543
29.8,31970.9,34857.3,-0.4766,-1.715,142.6,96.4,0.543
29.82,31926.8,34907.4,-1.214,-1.1154,142.6,96.4,0.543
29.84,31934.0,34954.4,-1.0935,-0.5535,142.6,96.4,0.543
29.86,31998.3,34932.9,-0.0176,-0.8101,142.6,96.4,0.543
29.88,32018.5,34978.5,0.3201,-0.2648,142.6,96.4,0.543
29.9,32165.2,35082.6,2.7765,0.9804,142.6,96.4,0.543
29.92,32056.9,35081.4,0.9633,0.9652,142.6,96.4,0.543
29.94,31953.5,35100.9,-0.7679,1.1987,142.6,96.4,0.543
29.96,31970.9,35034.6,-0.4762,0.4056,142.6,96.4,0.543
29.98,32117.4,35027.1,1.9772,0.3158,142.6,96.4,0.543
30.0,32074.2,34973.7,1.254,-0.3227,142.6,96.4,0.543
30.02,32043.7,35045.5,0.742,0.5366,142.6,96.4,0.543
30.04,31896.9,35064.2,-1.7152,0.7601,142.6,96.4,0.543
30.06,32015.8,34870.2,0.2747,-1.5602,142.6,96.4,0.543
30.08,31979.3,35052.5,-0.3355,0.62,142.6,96.4,0.543
30.1,31973.2,34997.8,-0.4371,-0.0336,142.6,96.4,0.543
30.12,32030.5,34950.2,0.5211,-0.6037,142.6,96.4,0.543
30.14,31977.3,34942.5,-0.3693,-0.6955,142.6,96.4,0.543
30.16,31954.5,34966.6,-0.7512,-0.4078,142.6,96.4,0.543
30.18,31998.9,34910.0,-0.0079,-1.0839,142.6,96.4,0.543
30.2,31944.3,34940.2,-0.9216,-0.7232,142.6,96.4,0.543
30.22,31962.3,34855.3,-0.6212,-1.7379,142.6,96.4,0.543
30.24,32007.5,34965.0,0.1371,-0.427,142.6,96.4,0.543
30.26,31896.5,34976.0,-1.7228,-0.2954,142.6,96.4,0.543
30.28,32012.2,35016.8,0.2144,0.1931,142.6,96.4,0.543
30.3,32041.8,35120.9,0.711,1.4378,142.6,96.4,0.543
30.32,32141.6,35089.9,2.3824,1.0676,142.6,96.4,0.543
30.34,32114.5,35027.9,1.9276,0.3258,142.6,96.4,0.543
30.36,32057.0,35153.4,0.9657,1.8266,142.6,96.4,0.543
30.38,32010.8,35152.3,0.1925,1.813,142.6,96.4,0.543
30.4,32053.4,35013.7,0.9045,0.156,142.6,96.4,0.543
30.42,31955.9,35081.8,-0.7268,0.9704,142.6,96.4,0.543
30.44,31997.7,35055.3,-0.0274,0.6537,142.6,96.4,0.543
30.46,32078.3,35049.1,1.3219,0.5792,142.6,96.4,0.543
30.48,32004.0,34994.8,0.0775,-0.0699,142.6,96.4,0.543
30.5,32020.1,34923.0,0.3472,-0.9291,142.6,96.4,0.543
30.52,31995.4,34939.8,-0.0654,-0.7283,142.6,96.4,0.543
30.54,32054.9,34934.6,0.9301,-0.7901,142.6,96.4,0.543
30.56,32005.4,34972.6,0.1012,-0.3354,142.6,96.4,0.543
30.58,31921.5,35047.1,-1.3042,0.5552,142.6,96.4,0.543
30.6,31896.0,35002.9,-1.73,0.0263,142.6,96.4,0.543
30.62,31940.5,34925.7,-0.9862,-0.8967,142.6,96.4,0.543
30.64,31967.8,34978.9,-0.5286,-0.2604,142.6,96.4,0.543
30.66,32066.7,34885.0,1.1273,-1.3828,142.6,96.4,0.543
30.68,31850.3,34914.9,-2.4961,-1.0259,142.6,96.4,0.543
30.7,31936.0,35021.5,-1.0605,0.2496,142.6,96.4,0.543
30.72,32087.0,35021.2,1.4678,0.2459,142.6,96.4,0.543
30.74,32033.3,35033.7,0.5684,0.3951,142.6,96.4,0.543
30.76,32100.8,35175.3,1.6986,2.0885,142.6,96.4,0.543
30.78,32061.3,35100.1,1.0371,1.1895,142.6,96.4,0.543
30.8,32044.8,35093.7,0.7606,1.1128,142.6,96.4,0.543
30.82,31960.2,35023.6,-0.6563,0.274,142.6,96.4,0.543
30.84,32077.7,35088.8,1.3117,1.0542,142.6,96.4,0.543
30.86,32014.4,35113.4,0.2525,1.3477,142.6,96.4,0.543
30.88,31940.5,34975.8,-0.985,-0.2974,142.6,96.4,0.543
30.9,32018.6,34947.9,0.3216,-0.631,142.6,96.4,0.543
30.92,32093.5,35030.3,1.576,0.3543,142.6,96.4,0.543
30.94,32043.0,34882.0,0.7305,-1.4187,142.6,96.4,0.543
30.96,31990.5,35046.1,-0.1482,0.543,142.6,96.4,0.543
30.98,32009.2,34905.7,0.1657,-1.1356,142.6,96.4,0.543
31.0,31991.5,34921.8,-0.1309,-0.9431,142.6,96.4,0.543
31.02,32023.3,34861.1,0.4016,-1.6684,142.6,96.4,0.543
31.04,31965.7,34906.9,-0.563,-1.1211,142.6,96.4,0.543
31.06,31857.5,34909.9,-2.3744,-1.0849,142.6,96.4,0.543
31.08,31960.6,34923.8,-0.6489,-0.9189,142.6,96.4,0.543
31.1,31969.2,34865.9,-0.5044,-1.6113,142.6,96.4,0.543
31.12,31958.3,35001.5,-0.688,0.0097,142.6,96.4,0.543
31.14,31965.4,34947.0,-0.5688,-0.6411,142.6,96.4,0.543
31.16,32065.8,35080.5,1.1123,0.9543,142.6,96.4,0.543
31.18,32065.4,35134.1,1.106,1.5963,142.6,96.4,0.543
31.2,32035.1,35148.5,0.5981,1.7682,142.6,96.4,0.543
31.22,32006.5,35035.3,0.1196,0.4137,142.6,96.4,0.543
31.24,31976.9,35059.3,-0.3759,0.7009,142.6,96.4,0.543
31.26,32005.0,35023.5,0.0944,0.2737,142.6,96.4,0.543
31.28,32012.5,35093.9,0.2197,1.1147,142.6,96.4,0.543
31.3,31996.9,35139.7,-0.041,1.6628,142.6,96.4,0.543
31.32,32016.9,35067.9,0.2939,0.8043,142.6,96.4,0.543
31.34,32006.1,35018.5,0.1128,0.2134,142.6,96.4,0.543
31.36,31949.3,34991.4,-0.8375,-0.1112,142.6,96.4,0.543
31.38,31963.3,34905.8,-0.6038,-1.1343,142.6,96.4,0.543
31.4,32016.3,34900.4,0.2842,-1.1995,142.6,96.4,0.543
31.42,32001.8,34985.2,0.0402,-0.1845,142.6,96.4,0.543
31.44,31938.5,34941.2,-1.0185,-0.7109,142.6,96.4,0.543
31.46,31999.5,34925.9,0.0025,-0.8939,142.6,96.4,0.543
31.48,32020.6,34897.6,0.3566,-1.2323,142.6,96.4,0.543
31.5,31908.0,34820.5,-1.5292,-2.1545,142.6,96.4,0.543
31.52,31984.9,34968.5,-0.2411,-0.3849,142.6,96.4,0.543
31.54,31957.7,35018.8,-0.6967,0.2174,142.6,96.4,0.543
31.56,32054.3,35083.3,0.9204,0.9881,142.6,96.4,0.543
31.58,31938.0,35072.5,-1.0273,0.8594,142.6,96.4,0.543
31.6,32037.9,35117.5,0.6459,1.3971,142.6,96.4,0.543
31.62,32054.4,35146.4,0.9222,1.7424,142.6,96.4,0.543
31.64,31991.5,35039.0,-0.1307,0.4584,142.6,96.4,0.543
31.66,32028.0,34958.2,0.4799,-0.5076,142.6,96.4,0.543
31.68,32149.4,35020.9,2.5127,0.2417,142.6,96.4,0.543
31.7,32085.2,35151.2,1.4369,1.8003,142.6,96.4,0.543
31.72,32019.9,35049.2,0.3438,0.5805,142.6,96.4,0.543
31.74,31989.5,34967.6,-0.1654,-0.3959,142.6,96.4,0.543
31.76,32018.7,34989.6,0.3246,-0.132,142.6,96.4,0.543
31.78,32047.8,35063.3,0.8118,0.7497,142.6,96.4,0.543
31.8,32006.9,34911.3,0.1265,-1.0689,142.6,96.4,0.543
31.82,31963.1,34969.0,-0.6076,-0.3783,142.6,96.4,0.543
31.84,31959.0,34915.4,-0.6749,-1.0194,142.6,96.4,0.543
31.86,31962.3,34904.5,-0.6204,-1.1497,142.6,96.4,0.543
31.88,31925.9,34916.8,-1.2302,-1.0027,142.6,96.4,0.543
31.9,31950.1,34899.3,-0.8252,-1.2116,142.6,96.4,0.543
31.92,31973.0,34849.9,-0.4414,-1.8034,142.6,96.4,0.543
31.94,31924.1,34914.4,-1.2592,-1.0312,142.6,96.4,0.543
31.96,32042.1,34931.0,0.7154,-0.8325,142.6,96.4,0.543
31.98,32006.3,35008.9,0.116,0.0986,142.6,96.4,0.543
32.0,32045.5,35081.9,0.7724,0.9718,142.6,96.4,0.543
32.02,32078.6,35093.0,1.3277,1.104,142.6,96.4,0.543
32.04,32047.3,35182.0,0.8023,2.1683,142.6,96.4,0.543
32.06,32007.8,35145.7,0.1419,1.7342,142.6,96.4,0.543
32.08,32080.6,35076.1,1.3599,0.9027,142.6,96.4,0.543
32.1,31934.8,34956.9,-1.0812,-0.5236,142.6,96.4,0.543
32.12,32024.2,35097.2,0.416,1.155,142.6,96.4,0.543
32.14,31979.8,35024.5,-0.3279,0.2855,142.6,96.4,0.543
32.16,32070.7,35007.0,1.1941,0.0761,142.6,96.4,0.543
32.18,31956.3,35114.9,-0.7205,1.3656,142.6,96.4,0.543
32.2,32003.8,34926.3,0.0744,-0.8894,142.6,96.4,0.543
32.22,32038.3,34910.0,0.6529,-1.084,142.6,96.4,0.543
32.24,31959.9,34950.2,-0.6612,-0.6032,142.6,96.4,0.543
32.26,31964.2,34958.6,-0.5879,-0.5034,142.6,96.4,0.543
32.28,31963.0,34913.0,-0.6094,-1.0479,142.6,96.4,0.543
32.3,31911.8,34951.1,-1.4658,-0.5922,142.6,96.4,0.543
32.32,31944.9,34914.1,-0.9111,-1.0347,142.6,96.4,0.543
32.34,31999.6,34935.0,0.0039,-0.7851,142.6,96.4,0.543
32.36,32002.3,34950.0,0.0499,-0.6053,142.6,96.4,0.543
32.38,31999.4,34993.8,0.0006,-0.0817,142.6,96.4,0.543
32.4,31966.1,35025.4,-0.556,0.2965,142.6,96.4,0.543
32.42,32035.7,35076.1,0.6094,0.9022,142.6,96.4,0.543
32.44,32078.6,35132.4,1.3266,1.575,142.6,96.4,0.543
32.46,31969.6,35023.2,-0.4979,0.2695,142.6,96.4,0.543
32.48,32056.8,35057.7,0.9617,0.6816,142.6,96.4,0.543
32.5,32085.2,34991.1,1.4369,-0.1142,142.6,96.4,0.543
32.52,32049.1,35033.0,0.8323,0.3869,142.6,96.4,0.543
32.54,31995.8,34995.1,-0.0595,-0.0662,142.6,96.4,0.543
32.56,32019.9,34999.5,0.3439,-0.0134,142.6,96.4,0.543
32.58,32022.5,35074.9,0.3874,0.8878,142.6,96.4,0.543
32.6,31987.7,34955.5,-0.1952,-0.5397,142.6,96.4,0.543
32.62,31978.9,34956.2,-0.343,-0.5312,142.6,96.4,0.543
32.64,32002.1,34958.3,0.0467,-0.5061,142.6,96.4,0.543
32.66,31987.5,34995.9,-0.1989,-0.0566,142.6,96.4,0.543
32.68,32045.4,34922.8,0.7706,-0.9308,142.6,96.4,0.543
32.7,32004.7,34956.1,0.089,-0.5333,142.6,96.4,0.543
32.72,32078.5,34948.0,1.3259,-0.6296,142.6,96.4,0.543
32.74,31955.2,35051.9,-0.739,0.613,142.6,96.4,0.543
32.76,31983.4,34849.2,-0.2676,-1.8118,142.6,96.4,0.543
32.78,32029.1,35006.4,0.4975,0.0693,142.6,96.4,0.543
32.8,31982.0,35039.9,-0.2904,0.469,142.6,96.4,0.543
32.82,32062.0,35056.7,1.0484,0.6697,142.6,96.4,0.543
32.84,32054.4,35085.3,0.9224,1.0119,142.6,96.4,0.543
32.86,32079.8,35152.6,1.3473,1.8175,142.6,96.4,0.543
32.88,32083.2,35059.9,1.4035,0.7081,142.6,96.4,0.543
32.9,32073.8,35113.5,1.2463,1.3498,142.6,96.4,0.543
32.92,31967.6,35041.5,-0.5315,0.4885,142.6,96.4,0.543
32.94,31916.1,35054.9,-1.3942,0.6491,142.6,96.4,0.543
32.96,32111.0,35096.4,1.8687,1.1452,142.6,96.4,0.543
32.98,32000.8,35042.5,0.0248,0.5004,142.6,96.4,0.543
33.0,31940.0,35010.1,-0.994,0.1127,142.6,96.4,0.543
33.02,32056.8,34884.3,0.9627,-1.3917,142.6,96.4,0.543
33.04,32028.6,34988.6,0.4902,-0.1439,142.6,96.4,0.543
33.06,31912.5,34902.1,-1.4542,-1.1789,142.6,96.4,0.543
33.08,31854.7,34988.7,-2.4222,-0.1432,142.6,96.4,0.543
33.1,31996.5,34914.6,-0.0474,-1.0292,142.6,96.4,0.543
33.12,32023.1,34921.0,0.3977,-0.9523,142.6,96.4,0.543
33.14,31974.9,34968.9,-0.4099,-0.3799,142.6,96.4,0.543
33.16,31912.7,34973.8,-1.4505,-0.3215,142.6,96.4,0.543
33.18,31987.3,34810.8,-0.2014,-2.2703,142.6,96.4,0.543
33.2,31842.7,34976.2,-2.6229,-0.2922,142.6,96.4,0.543
33.22,32011.9,35051.3,0.2108,0.6056,142.6,96.4,0.543
33.24,32071.6,35080.9,1.2094,0.9599,142.6,96.4,0.543
33.26,32035.5,35065.3,0.606,0.7725,142.6,96.4,0.543
33.28,32085.6,35136.1,1.4441,1.6196,142.6,96.4,0.543
33.3,32053.0,35178.1,0.8991,2.1215,142.6,96.4,0.543
33.32,31983.6,35037.8,-0.2641,0.4447,142.6,96.4,0.543
33.34,31933.5,35049.2,-1.1028,0.5809,142.6,96.4,0.543
33.36,32023.2,35013.3,0.3997,0.1507,142.6,96.4,0.543
33.38,32018.9,34963.6,0.3276,-0.4437,142.6,96.4,0.543
33.4,31978.1,35026.3,-0.3561,0.3067,142.6,96.4,0.543
33.42,31997.8,35037.8,-0.0259,0.4439,142.6,96.4,0.543
33.44,31991.0,34988.2,-0.1391,-0.1493,142.6,96.4,0.543
33.46,31971.1,34995.3,-0.4726,-0.0643,142.6,96.4,0.543
33.48,31964.7,34932.9,-0.5797,-0.8103,142.6,96.4,0.543
33.5,31950.2,34950.5,-0.8223,-0.6,142.6,96.4,0.543
33.52,31999.5,34932.0,0.0029,-0.8215,142.6,96.4,0.543
33.54,31968.0,34949.5,-0.5248,-0.6115,142.6,96.4,0.543
33.56,31988.1,34812.9,-0.1878,-2.2456,142.6,96.4,0.543
33.58,31930.9,34956.6,-1.1461,-0.5272,142.6,96.4,0.543
33.6,31979.6,34817.7,-0.3308,-2.1874,142.6,96.4,0.543
33.62,31870.0,34975.3,-2.166,-0.3031,142.6,96.4,0.543
33.64,31978.8,34947.3,-0.3441,-0.6387,142.6,96.4,0.543
33.66,32038.9,35017.2,0.6619,0.1973,142.6,96.4,0.543
33.68,32072.9,35055.3,1.231,0.6529,142.6,96.4,0.543
33.7,32042.6,35126.2,0.7245,1.5013,142.6,96.4,0.543
33.72,32047.3,35100.2,0.8031,1.1907,142.6,96.4,0.543
33.74,31986.3,35151.8,-0.2188,1.8076,142.6,96.4,0.543
33.76,31979.4,35067.7,-0.3344,0.8023,142.6,96.4,0.543
33.78,32051.2,35083.6,0.8685,0.992,142.6,96.4,0.543
33.8,31990.3,34982.1,-0.1521,-0.2224,142.6,96.4,0.543
33.82,32005.8,34917.4,0.1079,-0.9951,142.6,96.4,0.543
33.84,31937.6,34950.0,-1.0335,-0.6052,142.6,96.4,0.543
33.86,31983.0,35055.3,-0.274,0.6534,142.6,96.4,0.543
33.88,32040.0,35000.2,0.6806,-0.0058,142.6,96.4,0.543
33.9,31927.6,34974.1,-1.2019,-0.3182,142.6,96.4,0.543
33.92,32021.5,34979.0,0.3701,-0.2587,142.6,96.4,0.543
33.94,31978.4,34970.6,-0.3503,-0.3597,142.6,96.4,0.543
33.96,31931.6,34847.1,-1.1343,-1.8358,142.6,96.4,0.543
33.98,32005.6,34942.4,0.1044,-0.6968,142.6,96.4,0.543
34.0,31958.3,34887.4,-0.6881,-1.3547,142.6,96.4,0.543
34.02,31999.7,34808.8,0.0054,-2.2947,142.6,96.4,0.543
34.04,31978.9,34945.2,-0.3426,-0.6628,142.6,96.4,0.543
34.06,32020.5,34963.4,0.3538,-0.4456,142.6,96.4,0.543
34.08,32144.8,35092.7,2.4361,1.1005,142.6,96.4,0.543
34.1,32066.1,35099.5,1.1181,1.1819,142.6,96.4,0.543
34.12,32056.1,35056.2,0.9502,0.6637,142.6,96.4,0.543
34.14,32027.1,35066.1,0.4638,0.7823,142.6,96.4,0.543
34.16,32074.8,35160.7,1.2636,1.9143,142.6,96.4,0.543
34.18,31985.8,35096.8,-0.2274,1.1503,142.6,96.4,0.543
34.2,32042.5,34995.1,0.7228,-0.0666,142.6,96.4,0.543
34.22,32112.8,35034.5,1.9,0.4053,142.6,96.4,0.543
34.24,32077.3,35046.5,1.3045,0.5488,142.6,96.4,0.543
34.26,32017.4,35058.4,0.3016,0.6911,142.6,96.4,0.543
34.28,31937.6,35048.7,-1.0336,0.5746,142.6,96.4,0.543
34.3,31919.5,34938.3,-1.3363,-0.7452,142.6,96.4,0.543
34.32,31952.6,34998.3,-0.7827,-0.0284,142.6,96.4,0.543
34.34,32000.1,34990.1,0.0124,-0.1262,142.6,96.4,0.543
34.36,31967.1,34861.8,-0.5398,-1.661,142.6,96.4,0.543
34.38,31871.1,34958.3,-2.1482,-0.5063,142.6,96.4,0.543
34.4,31877.4,34922.4,-2.0416,-0.9353,142.6,96.4,0.543
34.42,31967.9,34915.0,-0.5266,-1.0238,142.6,96.4,0.543
34.44,31995.9,34958.5,-0.0584,-0.5038,142.6,96.4,0.543
34.46,32048.9,34995.0,0.8298,-0.0671,142.6,96.4,0.543
34.48,31955.4,35004.5,-0.7366,0.046,142.6,96.4,0.543
34.5,32027.4,35011.2,0.4691,0.1259,142.6,96.4,0.543
34.52,32033.4,35065.7,0.5696,0.7784,142.6,96.4,0.543
34.54,32081.6,35077.8,1.3766,0.9223,142.6,96.4,0.543
34.56,32168.0,35134.4,2.8246,1.5999,142.6,96.4,0.543
34.58,32075.1,35063.4,1.2684,0.7498,142.6,96.4,0.543
34.6,31921.7,35021.5,-1.3007,0.2493,142.6,96.4,0.543
34.62,32025.1,35030.2,0.4307,0.3536,142.6,96.4,0.543
34.64,32009.4,35012.8,0.1676,0.1453,142.6,96.4,0.543
34.66,31935.8,35071.7,-1.0637,0.8496,142.6,96.4,0.543
34.68,31987.5,35007.4,-0.198,0.0807,142.6,96.4,0.543
34.7,32008.7,35012.0,0.1574,0.1351,142.6,96.4,0.543
34.72,32031.7,35003.8,0.5424,0.0377,142.6,96.4,0.543
34.74,31923.9,34918.5,-1.2634,-0.9823,142.6,96.4,0.543
34.76,32074.8,34923.8,1.2635,-0.9192,142.6,96.4,0.543
34.78,31970.7,35025.3,-0.4804,0.2948,142.6,96.4,0.543
34.8,31948.0,34916.8,-0.8596,-1.0031,142.6,96.4,0.543
34.82,31947.4,34968.8,-0.8693,-0.3806,142.6,96.4,0.543
34.84,31947.7,34853.7,-0.8642,-1.7571,142.6,96.4,0.543
34.86,31919.5,34794.5,-1.3377,-2.4649,142.6,96.4,0.543
34.88,31884.9,35037.3,-1.9156,0.4384,142.6,96.4,0.543
34.9,32039.4,35020.5,0.6699,0.2378,142.6,96.4,0.543
34.92,32014.8,34993.9,0.2579,-0.0809,142.6,96.4,0.543
34.94,32036.1,35022.5,0.616,0.2609,142.6,96.4,0.543
34.96,32046.9,35168.4,0.7969,2.0058,142.6,96.4,0.543
34.98,32021.6,35065.7,0.3731,0.7775,142.6,96.4,0.543
35.0,32059.6,35121.2,1.0085,1.4421,142.6,96.4,0.543
35.02,31958.3,35042.4,-0.6879,0.4996,142.6,96.4,0.543
35.04,32051.5,35083.4,0.8725,0.9899,142.6,96.4,0.543
35.06,32073.2,35009.6,1.2367,0.1069,142.6,96.4,0.543
35.08,32057.5,35060.4,0.9733,0.714,142.6,96.4,0.543
35.1,31997.6,35002.4,-0.0287,0.0211,142.6,96.4,0.543
35.12,32004.5,34976.7,0.0865,-0.2868,142.6,96.4,0.543
35.14,32020.1,34885.8,0.3468,-1.3733,142.6,96.4,0.543
35.16,31952.8,34985.8,-0.7792,-0.1776,142.6,96.4,0.543
35.18,31900.8,34859.3,-1.6495,-1.6907,142.6,96.4,0.543
35.2,31996.0,34890.3,-0.0553,-1.32,142.6,96.4,0.543
35.22,31987.9,35033.8,-0.1916,0.3964,142.6,96.4,0.543
35.24,31915.5,34928.9,-1.4041,-0.8581,142.6,96.4,0.543
35.26,31948.1,35003.6,-0.8585,0.0354,142.6,96.4,0.543
35.28,31974.0,35002.0,-0.4237,0.0162,142.6,96.4,0.543
35.3,31918.5,34880.3,-1.3537,-1.4388,142.6,96.4,0.543
35.32,31976.4,34986.4,-0.3841,-0.1711,142.6,96.4,0.543
35.34,32038.2,35050.5,0.65,0.5966,142.6,96.4,0.543
35.36,32046.5,35168.9,0.7895,2.0124,142.6,96.4,0.543
35.38,32061.1,35049.9,1.0333,0.5884,142.6,96.4,0.543
35.4,32061.6,35124.7,1.0423,1.4837,142.6,96.4,0.543
35.42,32003.8,35137.6,0.0744,1.6372,142.6,96.4,0.543
35.44,32014.3,35078.1,0.2507,0.9266,142.6,96.4,0.543
35.46,32040.7,35047.3,0.6928,0.5577,142.6,96.4,0.543
35.48,32084.2,35013.5,1.4206,0.1541,142.6,96.4,0.543
35.5,32047.1,35008.9,0.7995,0.0987,142.6,96.4,0.543
35.52,32045.0,34962.5,0.764,-0.4561,142.6,96.4,0.543
35.54,31976.5,35021.3,-0.3831,0.247,142.6,96.4,0.543
35.56,31894.8,34919.3,-1.7509,-0.9726,142.6,96.4,0.543
35.58,31949.6,34963.0,-0.8326,-0.4507,142.6,96.4,0.543
35.6,31999.6,34972.1,0.0045,-0.342,142.6,96.4,0.543
35.62,31886.4,34839.4,-1.8914,-1.9284,142.6,96.4,0.543
35.64,31956.7,34951.6,-0.7145,-0.5864,142.6,96.4,0.543
35.66,32043.9,34923.0,0.7466,-0.9292,142.6,96.4,0.543
35.68,31921.1,34940.3,-1.311,-0.7214,142.6,96.4,0.543
35.7,31980.7,34897.1,-0.3126,-1.2387,142.6,96.4,0.543
35.72,31932.4,35030.3,-1.121,0.354,142.6,96.4,0.543
35.74,31991.4,34926.6,-0.1337,-0.8853,142.6,96.4,0.543
35.76,31965.0,35031.9,-0.5759,0.3737,142.6,96.4,0.543
35.78,32105.2,34995.9,1.7723,-0.0565,142.6,96.4,0.543
35.8,32028.6,35081.4,0.4899,0.9657,142.6,96.4,0.543
35.82,32113.4,35089.8,1.9103,1.066,142.6,96.4,0.543
35.84,32036.6,35022.5,0.624,0.2612,142.6,96.4,0.543
35.86,32053.9,34994.0,0.9138,-0.0791,142.6,96.4,0.543
35.88,32052.3,35070.0,0.8861,0.8295,142.6,96.4,0.543
35.9,31918.0,35059.8,-1.3623,0.7072,142.6,96.4,0.543
35.92,32037.4,34961.7,0.6377,-0.4664,142.6,96.4,0.543
35.94,32005.5,34941.8,0.1031,-0.7037,142.6,96.4,0.543
35.96,31961.3,35019.1,-0.6372,0.2203,142.6,96.4,0.543
35.98,32030.2,35030.8,0.5168,0.3609,142.6,96.4,0.543
36.0,31974.0,34944.6,-0.4242,-0.6704,142.6,96.4,0.543
36.02,31955.8,34888.3,-0.7297,-1.3435,142.6,96.4,0.543
36.04,31991.2,34926.6,-0.1372,-0.8861,142.6,96.4,0.543
36.06,31942.6,34987.4,-0.9502,-0.1586,142.6,96.4,0.543
36.08,31937.2,34828.6,-1.0408,-2.0578,142.6,96.4,0.543
36.1,31918.0,34918.9,-1.3622,-0.9783,142.6,96.4,0.543
36.12,31916.1,34912.1,-1.3943,-1.0594,142.6,96.4,0.543
36.14,31932.8,35011.9,-1.1147,0.1342,142.6,96.4,0.543
36.16,32055.2,34969.3,0.9359,-0.3752,142.6,96.4,0.543
36.18,31937.4,35021.9,-1.0366,0.2535,142.6,96.4,0.543
36.2,32042.5,35015.4,0.722,0.1758,142.6,96.4,0.543
36.22,32073.0,35125.9,1.2325,1.4978,142.6,96.4,0.543
36.24,31997.6,35080.8,-0.0287,0.9584,142.6,96.4,0.543
36.26,32013.1,35123.8,0.231,1.4723,142.6,96.4,0.543
36.28,32074.6,35129.3,1.2608,1.5383,142.6,96.4,0.543
36.3,32076.6,35038.1,1.2929,0.4484,142.6,96.4,0.543
36.32,32029.1,35041.1,0.4988,0.4832,142.6,96.4,0.543
36.34,32037.4,35046.7,0.6376,0.5501,142.6,96.4,0.543
36.36,32035.9,35006.6,0.6117,0.0715,142.6,96.4,0.543
36.38,32073.8,34996.8,1.2462,-0.0462,142.6,96.4,0.543
36.4,31926.4,34984.1,-1.222,-0.1978,142.6,96.4,0.543
36.42,31941.1,34878.1,-0.9753,-1.4652,142.6,96.4,0.543
36.44,31979.9,34950.6,-0.325,-0.5989,142.6,96.4,0.543
36.46,31989.4,35132.0,-0.1667,1.5713,142.6,96.4,0.543
36.48,31934.0,35027.8,-1.0935,0.3248,142.6,96.4,0.543
36.5,31956.2,34989.6,-0.7226,-0.1317,142.6,96.4,0.543
36.52,31998.2,34923.9,-0.0184,-0.9183,142.6,96.4,0.543
36.54,31882.6,34824.6,-1.9548,-2.1059,142.6,96.4,0.543
36.56,31917.2,34844.8,-1.3748,-1.8643,142.6,96.4,0.543
36.58,31965.1,35004.1,-0.5738,0.0406,142.6,96.4,0.543
36.6,32038.8,34925.3,0.6599,-0.9012,142.6,96.4,0.543
36.62,32032.9,34960.2,0.5613,-0.4842,142.6,96.4,0.543
36.64,32017.0,35179.4,0.2948,2.1371,142.6,96.4,0.543
36.66,31996.6,35098.4,-0.0464,1.1684,142.6,96.4,0.543
36.68,32111.4,35157.0,1.8756,1.8694,142.6,96.4,0.543
36.7,32050.8,35101.6,0.8621,1.2077,142.6,96.4,0.543
36.72,31998.0,35044.7,-0.0221,0.5267,142.6,96.4,0.543
36.74,31990.4,35064.9,-0.1506,0.7682,142.6,96.4,0.543
36.76,32006.5,35128.7,0.1193,1.5315,142.6,96.4,0.543
36.78,31960.8,35009.5,-0.6453,0.1063,142.6,96.4,0.543
36.8,31995.5,34998.7,-0.0649,-0.0231,142.6,96.4,0.543
36.82,31978.9,35050.5,-0.3432,0.596,142.6,96.4,0.543
36.84,31880.6,34909.0,-1.9877,-1.0963,142.6,96.4,0.543
36.86,31908.2,34894.8,-1.526,-1.2661,142.6,96.4,0.543
36.88,31970.9,34941.9,-0.4765,-0.703,142.6,96.4,0.543
36.9,32024.8,34935.4,0.4268,-0.7805,142.6,96.4,0.543
36.92,31986.6,34919.1,-0.2133,-0.9752,142.6,96.4,0.543
36.94,31890.1,34912.6,-1.8288,-1.0536,142.6,96.4,0.543
36.96,31934.6,34939.2,-1.0849,-0.7348,142.6,96.4,0.543
36.98,31981.4,34957.6,-0.2998,-0.5146,142.6,96.4,0.543
37.0,32037.5,35035.1,0.6384,0.4123,142.6,96.4,0.543
37.02,31965.8,34993.3,-0.5623,-0.0877,142.6,96.4,0.543
37.04,32054.8,35175.6,0.9285,2.0924,142.6,96.4,0.543
37.06,31963.6,35061.4,-0.5992,0.7269,142.6,96.4,0.543
37.08,32070.8,35152.1,1.1969,1.8114,142.6,96.4,0.543
37.1,32027.7,34993.8,0.4747,-0.0818,142.6,96.4,0.543
37.12,32041.5,35069.1,0.7062,0.8185,142.6,96.4,0.543
37.14,32079.8,35054.5,1.3463,0.6439,142.6,96.4,0.543
37.16,32011.5,35093.2,0.2029,1.107,142.6,96.4,0.543
37.18,32036.5,34935.1,0.622,-0.7843,142.6,96.4,0.543
37.2,32044.7,35025.7,0.76,0.3,142.6,96.4,0.543
37.22,32041.4,34969.3,0.7034,-0.3753,142.6,96.4,0.543
37.24,32079.9,34944.8,1.3482,-0.6682,142.6,96.4,0.543
37.26,31891.9,35019.3,-1.7991,0.2228,142.6,96.4,0.543
37.28,31997.3,35030.4,-0.0338,0.3553,142.6,96.4,0.543
37.3,31916.0,35000.8,-1.3962,0.0015,142.6,96.4,0.543
37.32,31966.0,34973.1,-0.5582,-0.3296,142.6,96.4,0.543
37.34,32071.3,34909.9,1.2056,-1.0849,142.6,96.4,0.543
37.36,31941.9,34891.1,-0.9625,-1.3104,142.6,96.4,0.543
37.38,31914.6,34896.4,-1.4189,-1.2463,142.6,96.4,0.543
37.4,31928.3,34890.0,-1.1893,-1.3238,142.6,96.4,0.543
37.42,31962.8,34858.5,-0.6125,-1.7,142.6,96.4,0.543
37.44,32013.9,35021.6,0.2428,0.25,142.6,96.4,0.543
37.46,32018.8,35007.0,0.3258,0.0755,142.6,96.4,0.543
37.48,32058.8,35172.8,0.9953,2.0585,142.6,96.4,0.543
37.5,32133.1,35054.0,2.2403,0.6377,142.6,96.4,0.543
37.52,32122.0,35161.4,2.0544,1.9223,142.6,96.4,0.543
37.54,31911.6,35094.3,-1.4689,1.1202,142.6,96.4,0.543
37.56,32102.6,35125.2,1.729,1.489,142.6,96.4,0.543
37.58,31919.1,35021.2,-1.3434,0.2451,142.6,96.4,0.543
37.6,31958.9,34955.1,-0.6778,-0.545,142.6,96.4,0.543
37.62,31944.7,34954.7,-0.9154,-0.5495,142.6,96.4,0.543
37.64,32021.2,34980.6,0.3662,-0.2401,142.6,96.4,0.543
37.66,31960.8,34979.3,-0.6457,-0.2556,142.6,96.4,0.543
37.68,31948.7,34926.0,-0.8486,-0.8926,142.6,96.4,0.543
37.7,32007.4,35047.6,0.134,0.5611,142.6,96.4,0.543
37.72,31891.3,34974.7,-1.8098,-0.3104,142.6,96.4,0.543
37.74,32031.0,34843.9,0.5298,-1.8741,142.6,96.4,0.543
37.76,32043.8,34967.8,0.7442,-0.3935,142.6,96.4,0.543
37.78,31871.0,34916.3,-2.1498,-1.0084,142.6,96.4,0.543
37.8,31992.8,34886.9,-0.11,-1.3601,142.6,96.4,0.543
37.82,31929.6,34913.2,-1.1687,-1.0457,142.6,96.4,0.543
37.84,32018.5,35038.8,0.3201,0.456,142.6,96.4,0.543
37.86,32038.0,35020.6,0.6474,0.238,142.6,96.4,0.543
37.88,31995.0,35014.5,-0.0728,0.165,142.6,96.4,0.543
37.9,32039.1,35205.6,0.6656,2.4506,142.6,96.4,0.543
37.92,32046.2,35172.3,0.785,2.0527,142.6,96.4,0.543
37.94,32167.5,35047.0,2.8159,0.5545,142.6,96.4,0.543
37.96,32058.9,35142.4,0.9974,1.6952,142.6,96.4,0.543
37.98,32123.2,35135.2,2.0733,1.6088,142.6,96.4,0.543
38.0,32000.8,34901.1,0.0235,-1.1904,142.6,96.4,0.543
38.02,32089.5,34972.0,1.5097,-0.3429,142.6,96.4,0.543
38.04,31973.6,35044.9,-0.432,0.5291,142.6,96.4,0.543
38.06,32066.1,34995.0,1.117,-0.068,142.6,96.4,0.543
38.08,31994.8,35042.0,-0.0764,0.4942,142.6,96.4,0.543
38.1,31935.4,34956.4,-1.0704,-0.5291,142.6,96.4,0.543
38.12,32056.5,34879.9,0.9565,-1.4441,142.6,96.4,0.543
38.14,31992.7,34947.2,-0.112,-0.6396,142.6,96.4,0.543
38.16,31924.1,34928.2,-1.2601,-0.8669,142.6,96.4,0.543
38.18,31914.3,34967.3,-1.4248,-0.3992,142.6,96.4,0.543
38.2,31919.8,34928.2,-1.3326,-0.8662,142.6,96.4,0.543
38.22,31923.6,34974.1,-1.2683,-0.3182,142.6,96.4,0.543
38.24,31910.1,34900.3,-1.4947,-1.2,142.6,96.4,0.543
38.26,32024.4,34892.0,0.4197,-1.2997,142.6,96.4,0.543
38.28,32003.6,34982.6,0.0705,-0.2158,142.6,96.4,0.543
38.3,32027.4,35108.2,0.4692,1.2861,142.6,96.4,0.543
38.32,32062.0,35157.4,1.0488,1.8748,142.6,96.4,0.543
38.34,32072.4,35089.2,1.223,1.0583,142.6,96.4,0.543
38.36,32111.3,35118.1,1.8745,1.404,142.6,96.4,0.543
38.38,31980.5,35101.2,-0.3156,1.2029,142.6,96.4,0.543
38.4,32021.1,35007.2,0.3647,0.0786,142.6,96.4,0.543
38.42,31940.1,35035.3,-0.9926,0.4148,142.6,96.4,0.543
38.44,31927.5,34991.1,-1.2028,-0.1139,142.6,96.4,0.543
38.46,32052.7,35098.1,0.893,1.1648,142.6,96.4,0.543
38.48,32110.8,34985.8,1.8661,-0.1776,142.6,96.4,0.543
38.5,32002.8,34987.0,0.0571,-0.1634,142.6,96.4,0.543
38.52,31956.2,35030.1,-0.7233,0.3517,142.6,96.4,0.543
38.54,31907.8,34999.3,-1.5328,-0.0157,142.6,96.4,0.543
38.56,31985.4,34922.1,-0.2333,-0.9395,142.6,96.4,0.543
38.58,31984.4,34939.9,-0.2499,-0.7271,142.6,96.4,0.543
38.6,32045.6,34873.2,0.7736,-1.5244,142.6,96.4,0.543
38.62,31920.5,34877.5,-1.3197,-1.4727,142.6,96.4,0.543
38.64,31960.2,34905.8,-0.6552,-1.1345,142.6,96.4,0.543
38.66,31851.1,34958.5,-2.4828,-0.5037,142.6,96.4,0.543
38.68,32014.3,35023.1,0.25,0.2686,142.6,96.4,0.543
38.7,31989.1,35053.6,-0.172,0.6331,142.6,96.4,0.543
38.72,32094.2,35095.7,1.5887,1.1361,142.6,96.4,0.543
38.74,32049.4,35145.3,0.8388,1.7303,142.6,96.4,0.543
38.76,32058.4,35102.3,0.989,1.2152,142.6,96.4,0.543
38.78,32074.6,35126.0,1.2603,1.4991,142.6,96.4,0.543
38.8,32070.3,35018.5,1.188,0.2134,142.6,96.4,0.543
38.82,31938.1,35128.7,-1.0254,1.5316,142.6,96.4,0.543
38.84,32024.0,35036.7,0.4132,0.4305,142.6,96.4,0.543
38.86,32076.3,34959.4,1.2888,-0.4932,142.6,96.4,0.543
38.88,31995.1,34999.1,-0.0712,-0.0182,142.6,96.4,0.543
38.9,31997.9,34939.1,-0.025,-0.7363,142.6,96.4,0.543
38.92,32070.5,34919.4,1.1913,-0.9722,142.6,96.4,0.543
38.94,31950.5,34988.2,-0.8186,-0.1486,142.6,96.4,0.543
38.96,31928.0,35001.6,-1.1944,0.0114,142.6,96.4,0.543
38.98,31979.7,34949.1,-0.329,-0.6162,142.6,96.4,0.543
39.0,31943.3,34931.5,-0.9391,-0.8275,142.6,96.4,0.543
39.02,31949.3,34929.5,-0.8377,-0.8505,142.6,96.4,0.543
39.04,31927.4,34850.0,-1.2053,-1.8017,142.6,96.4,0.543
39.06,31943.8,34844.4,-0.93,-1.8684,142.6,96.4,0.543
39.08,31919.1,34885.2,-1.343,-1.3805,142.6,96.4,0.543
39.1,31942.6,34990.1,-0.9506,-0.1261,142.6,96.4,0.543
39.12,32013.2,34938.5,0.2324,-0.7428,142.6,96.4,0.543
39.14,32026.4,34988.3,0.4522,-0.1484,142.6,96.4,0.543
39.16,32061.0,35096.1,1.0315,1.1413,142.6,96.4,0.543
39.18,32093.7,35192.3,1.5796,2.2916,142.6,96.4,0.543
39.2,31998.8,35069.8,-0.0089,0.8267,142.6,96.4,0.543
39.22,31996.5,35000.9,-0.0472,0.0034,142.6,96.4,0.543
39.24,32072.0,35104.9,1.2156,1.2469,142.6,96.4,0.543
39.26,32090.9,34974.4,1.5329,-0.3139,142.6,96.4,0.543
39.28,32133.2,34906.5,2.2419,-1.1259,142.6,96.4,0.543
39.3,32049.4,34945.6,0.8373,-0.6585,142.6,96.4,0.543
39.32,31962.1,35012.2,-0.623,0.1379,142.6,96.4,0.543
39.34,31974.1,35062.0,-0.4227,0.7338,142.6,96.4,0.543
39.36,31980.6,34927.5,-0.3142,-0.8743,142.6,96.4,0.543
39.38,32013.4,34957.2,0.2346,-0.5199,142.6,96.4,0.543
39.4,31973.9,34963.7,-0.4257,-0.4414,142.6,96.4,0.543
39.42,32001.2,34981.8,0.0305,-0.225,142.6,96.4,0.543
39.44,32009.2,34952.7,0.1654,-0.574,142.6,96.4,0.543
39.46,31972.9,35037.4,-0.4435,0.4394,142.6,96.4,0.543
39.48,31924.5,34939.4,-1.2531,-0.732,142.6,96.4,0.543
39.5,31934.1,34899.3,-1.0921,-1.2124,142.6,96.4,0.543
39.52,31938.1,34933.1,-1.0259,-0.8077,142.6,96.4,0.543
39.54,31916.8,35031.9,-1.383,0.3732,142.6,96.4,0.543
39.56,32126.2,35017.2,2.1237,0.1981,142.6,96.4,0.543
39.58,32094.2,35092.9,1.5874,1.1032,142.6,96.4,0.543
39.6,32092.3,35112.5,1.5562,1.3369,142.6,96.4,0.543
39.62,32034.5,35111.1,0.5884,1.3204,142.6,96.4,0.543
39.64,32062.2,35116.0,1.0522,1.3797,142.6,96.4,0.543
39.66,32017.1,35060.2,0.297,0.7124,142.6,96.4,0.543
39.68,32048.2,34942.0,0.8173,-0.701,142.6,96.4,0.543
39.7,32020.6,35124.2,0.3553,1.4773,142.6,96.4,0.543
39.72,32070.4,34924.7,1.1902,-0.9085,142.6,96.4,0.543
39.74,32026.6,34929.4,0.4564,-0.8518,142.6,96.4,0.543
39.76,31928.2,34857.7,-1.1911,-1.7098,142.6,96.4,0.543
39.78,32067.4,35001.2,1.14,0.0069,142.6,96.4,0.543
39.8,32022.5,34986.3,0.3882,-0.1715,142.6,96.4,0.543
39.82,31994.7,34954.0,-0.0779,-0.5578,142.6,96.4,0.543
39.84,32153.7,34954.1,2.5836,-0.5564,142.6,96.4,0.543
39.86,31972.0,34788.5,-0.4577,-2.5372,142.6,96.4,0.543
39.88,31950.6,34938.4,-0.8161,-0.745,142.6,96.4,0.543
39.9,31978.8,34913.7,-0.3444,-1.0405,142.6,96.4,0.543
39.92,32043.8,34883.0,0.7445,-1.4069,142.6,96.4,0.543
39.94,31881.4,34952.8,-1.9756,-0.5723,142.6,96.4,0.543
39.96,31885.9,35005.9,-1.8991,0.0622,142.6,96.4,0.543
39.98,32037.7,35052.1,0.6415,0.6153,142.6,96.4,0.543
40.0,32184.5,35199.6,3.1002,2.3786,142.6,96.4,0.543
40.02,32032.6,35041.9,0.5562,0.4938,142.6,96.4,0.543
40.04,32083.2,35136.0,1.4037,1.6188,142.6,96.4,0.543
40.06,31925.9,35041.3,-1.23,0.4856,142.6,96.4,0.543
40.08,32019.9,35102.6,0.3437,1.219,142.6,96.4,0.543
40.1,32040.1,35012.5,0.682,0.1414,142.6,96.4,0.543
40.12,32075.6,34999.5,1.2764,-0.0142,142.6,96.4,0.543
40.14,32064.2,35071.0,1.0866,0.8415,142.6,96.4,0.543
40.16,31972.0,34957.1,-0.4576,-0.5213,142.6,96.4,0.543
40.18,32015.4,34855.4,0.2686,-1.7371,142.6,96.4,0.543
40.2,32015.7,35016.8,0.2734,0.1934,142.6,96.4,0.543
40.22,31968.2,34862.4,-0.5223,-1.6539,142.6,96.4,0.543
40.24,31912.4,34941.6,-1.4561,-0.7059,142.6,96.4,0.543
40.26,32032.7,35054.4,0.5576,0.6427,142.6,96.4,0.543
40.28,32011.7,34895.8,0.2072,-1.2534,142.6,96.4,0.543
40.3,31974.7,34927.5,-0.4121,-0.8754,142.6,96.4,0.543
40.32,31993.4,34872.5,-0.1003,-1.533,142.6,96.4,0.543
40.34,31892.8,34994.8,-1.7836,-0.0697,142.6,96.4,0.543
40.36,31928.3,34928.7,-1.1894,-0.8604,142.6,96.4,0.543
40.38,32010.0,34987.1,0.1786,-0.1624,142.6,96.4,0.543
40.4,31971.1,35068.7,-0.4736,0.8133,142.6,96.4,0.543
40.42,32058.3,35105.1,0.9873,1.2488,142.6,96.4,0.543
40.44,31924.0,35080.0,-1.2617,0.9486,142.6,96.4,0.543
40.46,31999.9,35157.7,0.0088,1.8776,142.6,96.4,0.543
40.48,31964.8,35076.4,-0.5785,0.9054,142.6,96.4,0.543
40.5,32075.3,35035.4,1.2712,0.4159,142.6,96.4,0.543
40.52,31921.5,35063.0,-1.304,0.7461,142.6,96.4,0.543
40.54,32032.3,35043.4,0.551,0.5113,142.6,96.4,0.543
40.56,31942.0,34921.2,-0.9597,-0.9498,142.6,96.4,0.543
40.58,31956.6,34995.0,-0.716,-0.0674,142.6,96.4,0.543
40.6,32002.0,35011.4,0.0438,0.1285,142.6,96.4,0.543
40.62,32020.5,34929.4,0.3549,-0.8523,142.6,96.4,0.543
40.64,31976.3,35014.6,-0.3866,0.1672,142.6,96.4,0.543
40.66,31941.9,35006.8,-0.9623,0.0735,142.6,96.4,0.543
40.68,31938.5,34918.5,-1.0196,-0.9821,142.6,96.4,0.543
40.7,31970.4,34937.9,-0.4847,-0.7511,142.6,96.4,0.543
40.72,31989.9,34858.0,-0.1575,-1.7059,142.6,96.4,0.543
40.74,31980.4,34821.4,-0.317,-2.1435,142.6,96.4,0.543
40.76,31927.5,34877.9,-1.2036,-1.4684,142.6,96.4,0.543
40.78,31895.6,34955.7,-1.7379,-0.5382,142.6,96.4,0.543
40.8,32006.6,34899.3,0.1208,-1.2117,142.6,96.4,0.543
40.82,31999.5,35015.0,0.0022,0.1713,142.6,96.4,0.543
40.84,31982.2,35040.0,-0.2864,0.4704,142.6,96.4,0.543
40.86,32084.4,35071.6,1.4248,0.8481,142.6,96.4,0.543
40.88,32078.1,35183.8,1.3193,2.1901,142.6,96.4,0.543
40.9,32102.3,35121.6,1.7242,1.4461,142.6,96.4,0.543
40.92,32088.2,34991.8,1.4872,-0.1062,142.6,96.4,0.543
40.94,32013.0,35044.3,0.2282,0.5216,142.6,96.4,0.543
40.96,32081.5,34997.8,1.3755,-0.034,142.6,96.4,0.543
40.98,31994.6,34865.9,-0.0801,-1.6115,142.6,96.4,0.543
41.0,32032.7,35055.3,0.5588,0.6536,142.6,96.4,0.543
41.02,31962.7,34997.1,-0.6138,-0.043,142.6,96.4,0.543
41.04,31850.1,34938.3,-2.4987,-0.7463,142.6,96.4,0.543
41.06,31978.9,35040.0,-0.3417,0.4702,142.6,96.4,0.543
41.08,31954.4,34883.9,-0.7532,-1.396,142.6,96.4,0.543
41.1,31902.0,34900.2,-1.6295,-1.2017,142.6,96.4,0.543
41.12,31974.6,34945.6,-0.4136,-0.6582,142.6,96.4,0.543
41.14,31944.0,34859.9,-0.9265,-1.6832,142.6,96.4,0.543
41.16,32012.8,34923.1,0.2245,-0.9278,142.6,96.4,0.543
41.18,31932.2,34931.3,-1.1243,-0.8289,142.6,96.4,0.543
41.2,31899.6,34891.5,-1.6704,-1.3053,142.6,96.4,0.543
41.22,31984.4,34959.6,-0.2499,-0.4911,142.6,96.4,0.543
41.24,32023.5,35105.7,0.4052,1.2565,142.6,96.4,0.543
41.26,32017.3,35143.7,0.3003,1.7111,142.6,96.4,0.543
41.28,32086.1,35145.5,1.4531,1.7322,142.6,96.4,0.543
41.3,32128.1,35133.3,2.1556,1.5861,142.6,96.4,0.543
41.32,31943.0,35040.5,-0.9428,0.4764,142.6,96.4,0.543
41.34,32005.5,35041.4,0.1031,0.4873,142.6,96.4,0.543
41.36,31971.9,35037.8,-0.4602,0.4438,142.6,96.4,0.543
41.38,32030.0,35016.4,0.5129,0.1883,142.6,96.4,0.543
41.4,31953.9,34927.6,-0.7616,-0.8739,142.6,96.4,0.543
41.42,31978.4,35069.9,-0.3515,0.8285,142.6,96.4,0.543
41.44,32017.5,34980.8,0.3046,-0.237,142.6,96.4,0.543
41.46,32071.8,34964.2,1.2133,-0.4354,142.6,96.4,0.543
41.48,32019.3,34993.3,0.3338,-0.0884,142.6,96.4,0.543
41.5,31993.5,34955.6,-0.0976,-0.5393,142.6,96.4,0.543
41.52,31943.8,34985.5,-0.9302,-0.1815,142.6,96.4,0.543
41.54,31942.6,34900.0,-0.9497,-1.2036,142.6,96.4,0.543
41.56,32016.3,34921.5,0.2833,-0.9465,142.6,96.4,0.543
41.58,31937.3,34964.1,-1.0397,-0.4367,142.6,96.4,0.543
41.6,31954.6,34894.2,-0.7495,-1.2728,142.6,96.4,0.543
41.62,31937.3,34920.1,-1.0398,-0.9633,142.6,96.4,0.543
41.64,32058.4,34944.5,0.9882,-0.6715,142.6,96.4,0.543
41.66,32037.3,35041.0,0.635,0.4825,142.6,96.4,0.543
41.68,32076.4,35183.4,1.2903,2.1854,142.6,96.4,0.543
41.7,32013.4,35162.8,0.2361,1.9396,142.6,96.4,0.543
41.72,32003.2,35096.9,0.0643,1.1509,142.6,96.4,0.543
41.74,32156.8,35024.8,2.636,0.2889,142.6,96.4,0.543
41.76,32136.7,35097.9,2.3006,1.1633,142.6,96.4,0.543
41.78,31979.5,34973.7,-0.3315,-0.3226,142.6,96.4,0.543
41.8,32041.9,34979.6,0.7132,-0.2513,142.6,96.4,0.543
41.82,32119.8,34987.7,2.0173,-0.1546,142.6,96.4,0.543
41.84,31918.5,34965.5,-1.3531,-0.4207,142.6,96.4,0.543
41.86,31964.0,34989.2,-0.5913,-0.1374,142.6,96.4,0.543
41.88,31968.3,34942.5,-0.5196,-0.695,142.6,96.4,0.543
41.9,32012.3,34830.8,0.2161,-2.0315,142.6,96.4,0.543
41.92,32028.2,34947.6,0.483,-0.6344,142.6,96.4,0.543
41.94,31960.0,34971.4,-0.6585,-0.3499,142.6,96.4,0.543
41.96,31968.4,34910.7,-0.5185,-1.076,142.6,96.4,0.543
41.98,31971.3,34866.5,-0.4689,-1.6046,142.6,96.4,0.543
42.0,32076.9,34915.0,1.2992,-1.0246,142.6,96.4,0.543
42.02,31879.4,34920.8,-2.0093,-0.9548,142.6,96.4,0.543
42.04,31893.6,35017.8,-1.7708,0.2054,142.6,96.4,0.543
42.06,32008.2,35015.6,0.1487,0.1789,142.6,96.4,0.543
42.08,32056.8,35156.6,0.9618,1.8655,142.6,96.4,0.543
42.1,32073.1,35047.5,1.2341,0.5596,142.6,96.4,0.543
42.12,32011.4,35081.5,0.2016,0.9672,142.6,96.4,0.543
42.14,32011.3,35068.6,0.2004,0.8128,142.6,96.4,0.543
42.16,32069.5,35089.9,1.175,1.0671,142.6,96.4,0.543
42.18,31978.3,35041.8,-0.3532,0.4921,142.6,96.4,0.543
42.2,32021.4,35111.7,0.3697,1.3284,142.6,96.4,0.543
42.22,31957.1,35048.7,-0.7081,0.5746,142.6,96.4,0.543
42.24,31949.9,35010.3,-0.8286,0.1153,142.6,96.4,0.543
42.26,32056.0,34944.0,0.948,-0.6778,142.6,96.4,0.543
42.28,31977.7,35037.9,-0.3631,0.4448,142.6,96.4,0.543
42.3,31994.1,34937.1,-0.0885,-0.7596,142.6,96.4,0.543
42.32,31966.4,34871.7,-0.5521,-1.5422,142.6,96.4,0.543
42.34,31992.6,34986.7,-0.1128,-0.1675,142.6,96.4,0.543
42.36,31932.5,34922.1,-1.1189,-0.9389,142.6,96.4,0.543
42.38,32038.7,34982.2,0.6588,-0.2206,142.6,96.4,0.543
42.4,32025.0,34835.5,0.4289,-1.9747,142.6,96.4,0.543
42.42,31993.0,34855.5,-0.1063,-1.7359,142.6,96.4,0.543
42.44,31946.8,34874.2,-0.8792,-1.5122,142.6,96.4,0.543
42.46,31969.6,34972.3,-0.4984,-0.3387,142.6,96.4,0.543
42.48,32050.0,35038.7,0.8488,0.4551,142.6,96.4,0.543
42.5,32038.5,35062.0,0.6561,0.7334,142.6,96.4,0.543
42.52,32104.4,35016.1,1.7589,0.1847,142.6,96.4,0.543
42.54,31974.7,35105.7,-0.412,1.2563,142.6,96.4,0.543
42.56,31994.7,35239.5,-0.0773,2.8561,142.6,96.4,0.543
42.58,32023.3,35103.2,0.401,1.2261,142.6,96.4,0.543
42.6,31966.9,35111.8,-0.5441,1.3296,142.6,96.4,0.543
42.62,32022.3,35039.4,0.384,0.4627,142.6,96.4,0.543
42.64,32000.8,34886.1,0.025,-1.3698,142.6,96.4,0.543
42.66,32021.7,35014.9,0.3745,0.1708,142.6,96.4,0.543
42.68,32062.0,35010.1,1.0485,0.1131,142.6,96.4,0.543
42.7,31907.0,34923.4,-1.546,-0.9234,142.6,96.4,0.543
42.72,31988.0,35076.9,-0.1896,0.9121,142.6,96.4,0.543
42.74,31885.9,34981.1,-1.8999,-0.2338,142.6,96.4,0.543
42.76,32067.9,34982.4,1.1472,-0.2187,142.6,96.4,0.543
42.78,32083.9,35014.9,1.4154,0.1707,142.6,96.4,0.543
42.8,31971.9,34874.6,-0.4591,-1.5074,142.6,96.4,0.543
42.82,31988.5,34964.5,-0.1817,-0.4324,142.6,96.4,0.543
42.84,31875.2,34931.0,-2.0788,-0.8326,142.6,96.4,0.543
42.86,31987.0,34894.2,-0.2064,-1.2736,142.6,96.4,0.543
42.88,32012.3,34891.1,0.2169,-1.3104,142.6,96.4,0.543
42.9,31931.3,35044.2,-1.1402,0.5201,142.6,96.4,0.543
42.92,32052.0,35040.1,0.8818,0.4713,142.6,96.4,0.543
42.94,32038.1,35069.5,0.6495,0.8238,142.6,96.4,0.543
42.96,31996.9,35098.8,-0.0414,1.1742,142.6,96.4,0.543
42.98,32081.8,35084.0,1.3811,0.9963,142.6,96.4,0.543
43.0,32060.7,35074.8,1.0274,0.8872,142.6,96.4,0.543
43.02,31995.5,34920.3,-0.0648,-0.9613,142.6,96.4,0.543
43.04,31966.1,34933.6,-0.5572,-0.8015,142.6,96.4,0.543
43.06,32050.3,35026.7,0.8539,0.312,142.6,96.4,0.543
43.08,31985.8,34969.2,-0.2268,-0.3764,142.6,96.4,0.543
43.1,32030.7,35038.7,0.5249,0.4552,142.6,96.4,0.543
43.12,31998.8,34968.9,-0.0088,-0.3802,142.6,96.4,0.543
43.14,32041.3,35052.8,0.7019,0.6236,142.6,96.4,0.543
43.16,31973.1,34881.0,-0.4401,-1.4313,142.6,96.4,0.543
43.18,31966.5,34908.3,-0.5494,-1.1045,142.6,96.4,0.543
43.2,31991.9,34936.3,-0.1253,-0.7699,142.6,96.4,0.543
43.22,31995.2,34916.7,-0.0694,-1.0037,142.6,96.4,0.543
43.24,31936.2,35014.2,-1.0571,0.1622,142.6,96.4,0.543
43.26,31983.4,34886.3,-0.2663,-1.3681,142.6,96.4,0.543
43.28,31980.0,34950.2,-0.3236,-0.6033,142.6,96.4,0.543
43.3,31903.2,34969.8,-1.6104,-0.3694,142.6,96.4,0.543
43.32,31991.6,35005.5,-0.129,0.058,142.6,96.4,0.543
43.34,31986.0,35020.9,-0.2233,0.2419,142.6,96.4,0.543
43.36,32012.9,35143.0,0.2265,1.7026,142.6,96.4,0.543
43.38,32070.2,35109.5,1.1872,1.3018,142.6,96.4,0.543
43.4,32026.9,35180.9,0.4611,2.1556,142.6,96.4,0.543
43.42,32131.7,35056.3,2.2164,0.6654,142.6,96.4,0.543
43.44,32110.1,34980.3,1.8541,-0.2435,142.6,96.4,0.543
43.46,32036.3,34941.8,0.6191,-0.7037,142.6,96.4,0.543
43.48,31969.9,35112.5,-0.4923,1.3378,142.6,96.4,0.543
43.5,31943.9,35020.9,-0.9281,0.2426,142.6,96.4,0.543
43.52,32034.3,34928.5,0.5854,-0.8626,142.6,96.4,0.543
43.54,31990.0,34935.6,-0.1566,-0.7775,142.6,96.4,0.543
43.56,31974.6,34945.7,-0.4151,-0.6568,142.6,96.4,0.543
43.58,31878.3,34847.6,-2.0264,-1.8302,142.6,96.4,0.543
43.6,31863.6,34915.3,-2.2729,-1.0208,142.6,96.4,0.543
43.62,32002.0,34878.0,0.044,-1.4666,142.6,96.4,0.543
43.64,31913.4,35022.9,-1.4393,0.2662,142.6,96.4,0.543
43.66,31950.7,34970.3,-0.8152,-0.3632,142.6,96.4,0.543
43.68,31884.9,34879.2,-1.9169,-1.4531,142.6,96.4,0.543
43.7,32028.4,34849.0,0.4866,-1.814,142.6,96.4,0.543
43.72,31993.4,34819.2,-0.1001,-2.1696,142.6,96.4,0.543
43.74,31944.7,34921.7,-0.915,-0.9445,142.6,96.4,0.543
43.76,32080.8,34912.9,1.3641,-1.0492,142.6,96.4,0.543
43.78,32020.6,35142.3,0.3552,1.6938,142.6,96.4,0.543
43.8,31987.5,35110.7,-0.1991,1.3154,142.6,96.4,0.543
43.82,32008.8,35090.8,0.1584,1.0783,142.6,96.4,0.543
43.84,32034.6,35028.3,0.5907,0.3307,142.6,96.4,0.543
43.86,32033.1,35019.7,0.5644,0.2279,142.6,96.4,0.543
43.88,32026.5,35068.2,0.4547,0.8073,142.6,96.4,0.543
43.9,32012.5,35081.4,0.2197,0.966,142.6,96.4,0.543
43.92,31964.8,34924.3,-0.5787,-0.9133,142.6,96.4,0.543
43.94,31925.7,34937.7,-1.234,-0.7527,142.6,96.4,0.543
43.96,31929.5,34948.5,-1.1703,-0.6233,142.6,96.4,0.543
43.98,31964.9,35024.0,-0.5768,0.2794,142.6,96.4,0.543
44.0,31979.8,34975.5,-0.3268,-0.3012,142.6,96.4,0.543
44.02,32060.8,34891.9,1.029,-1.3009,142.6,96.4,0.543
44.04,31981.8,34989.1,-0.2941,-0.1387,142.6,96.4,0.543
44.06,31971.0,34942.6,-0.4747,-0.6938,142.6,96.4,0.543
44.08,31965.0,34918.6,-0.5747,-0.9819,142.6,96.4,0.543
44.1,31878.6,34948.2,-2.0218,-0.6277,142.6,96.4,0.543
44.12,31874.4,34851.5,-2.0928,-1.7833,142.6,96.4,0.543
44.14,31979.2,34913.4,-0.337,-1.0436,142.6,96.4,0.543
44.16,31980.0,35039.4,-0.3244,0.4633,142.6,96.4,0.543
44.18,32022.8,35076.2,0.3923,0.9032,142.6,96.4,0.543
44.2,32031.4,35152.4,0.536,1.815,142.6,96.4,0.543
44.22,32061.1,35129.6,1.0341,1.5415,142.6,96.4,0.543
44.24,32164.2,35092.7,2.7607,1.101,142.6,96.4,0.543
44.26,32026.8,35084.6,0.4604,1.0039,142.6,96.4,0.543
44.28,31987.6,35144.9,-0.1961,1.7249,142.6,96.4,0.543
44.3,32014.3,35060.6,0.2496,0.7164,142.6,96.4,0.543
44.32,31973.9,35033.2,-0.4258,0.3896,142.6,96.4,0.543
44.34,31936.6,35052.0,-1.0502,0.6134,142.6,96.4,0.543
44.36,31988.7,35043.2,-0.1785,0.5085,142.6,96.4,0.543
44.38,31981.3,34925.8,-0.3028,-0.8954,142.6,96.4,0.543
44.4,31978.5,35065.0,-0.3485,0.7697,142.6,96.4,0.543
44.42,32001.4,34914.6,0.0344,-1.0294,142.6,96.4,0.543
44.44,32069.2,34949.6,1.1693,-0.6102,142.6,96.4,0.543
44.46,32037.7,34864.9,0.6416,-1.6232,142.6,96.4,0.543
44.48,31988.1,34965.5,-0.1878,-0.4204,142.6,96.4,0.543
44.5,31980.8,34961.7,-0.3113,-0.4656,142.6,96.4,0.543
44.52,31979.1,34881.4,-0.3391,-1.4264,142.6,96.4,0.543
44.54,31825.8,34954.3,-2.9058,-0.5546,142.6,96.4,0.543
44.56,32016.3,34924.2,0.284,-0.914,142.6,96.4,0.543
44.58,32052.6,35060.5,0.8911,0.7151,142.6,96.4,0.543
44.6,32050.6,34996.4,0.8574,-0.0508,142.6,96.4,0.543
44.62,32060.4,35096.1,1.0215,1.1413,142.6,96.4,0.543
44.64,32005.3,35106.5,0.0995,1.266,142.6,96.4,0.543
44.66,32067.7,35054.1,1.1442,0.6395,142.6,96.4,0.543
44.68,32083.6,35096.5,1.4109,1.1461,142.6,96.4,0.543
44.7,32040.1,34981.2,0.6822,-0.2332,142.6,96.4,0.543
44.72,32055.7,35034.1,0.9427,0.4001,142.6,96.4,0.543
44.74,31988.7,34985.8,-0.1782,-0.1778,142.6,96.4,0.543
44.76,32019.4,35134.3,0.3363,1.5982,142.6,96.4,0.543
44.78,31990.1,34960.2,-0.155,-0.4841,142.6,96.4,0.543
44.8,31959.8,34971.1,-0.6623,-0.3538,142.6,96.4,0.543
44.82,32049.1,34971.3,0.8332,-0.3509,142.6,96.4,0.543
44.84,32066.4,34948.3,1.1231,-0.626,142.6,96.4,0.543
44.86,31849.8,34923.0,-2.5034,-0.9286,142.6,96.4,0.543
44.88,32054.6,34961.6,0.9257,-0.4676,142.6,96.4,0.543
44.9,31975.0,34868.3,-0.4078,-1.5829,142.6,96.4,0.543
