timestamp,raw_red,raw_ir,filtered_red,filtered_ir,heart_rate,spo2,ac_dc_ratio
0.0,32022.5,35223.2,0.1163,0.548,139.4,97.6,0.496
0.02,32249.9,35493.2,1.311,1.2136,139.4,97.6,0.496
0.04,32317.4,35721.5,1.6656,1.7763,139.4,97.6,0.496
0.06,32294.7,35755.4,1.5462,1.8597,139.4,97.6,0.496
0.08,32257.7,35586.5,1.352,1.4436,139.4,97.6,0.496
0.1,32215.4,35401.3,1.1297,0.987,139.4,97.6,0.496
0.12,32176.6,35269.5,0.926,0.6621,139.4,97.6,0.496
0.14,31997.8,35184.4,-0.0136,0.4524,139.4,97.6,0.496
0.16,32063.1,35032.4,0.3294,0.0777,139.4,97.6,0.496
0.18,31976.2,35075.5,-0.1268,0.184,139.4,97.6,0.496
0.2,31918.8,35016.2,-0.4284,0.0377,139.4,97.6,0.496
0.22,31983.0,34864.9,-0.0911,-0.3351,139.4,97.6,0.496
0.24,31847.4,34706.2,-0.8036,-0.7263,139.4,97.6,0.496
0.26,31828.2,34683.4,-0.9042,-0.7825,139.4,97.6,0.496
0.28,31908.8,34584.4,-0.4812,-1.0265,139.4,97.6,0.496
0.3,31823.3,34587.2,-0.9299,-1.0195,139.4,97.6,0.496
0.32,31936.5,34496.1,-0.3356,-1.2441,139.4,97.6,0.496
0.34,31796.7,34610.7,-1.0698,-0.9617,139.4,97.6,0.496
0.36,31792.2,34385.0,-1.0934,-1.5179,139.4,97.6,0.496
0.38,31784.0,34445.0,-1.1366,-1.3701,139.4,97.6,0.496
0.4,31819.2,34610.7,-0.9516,-0.9617,139.4,97.6,0.496
0.42,31997.4,35043.9,-0.0156,0.1062,139.4,97.6,0.496
0.44,32084.6,35356.0,0.4425,0.8753,139.4,97.6,0.496
0.46,32293.3,35651.4,1.5387,1.6035,139.4,97.6,0.496
0.48,32347.4,35772.2,1.8231,1.9012,139.4,97.6,0.496
0.5,32393.9,35739.8,2.0676,1.8215,139.4,97.6,0.496
0.52,32289.1,35615.6,1.5169,1.5153,139.4,97.6,0.496
0.54,32194.4,35281.5,1.0192,0.6918,139.4,97.6,0.496
0.56,32089.8,35221.5,0.4699,0.5439,139.4,97.6,0.496
0.58,32065.3,35072.0,0.341,0.1754,139.4,97.6,0.496
0.6,32040.5,35152.1,0.211,0.3729,139.4,97.6,0.496
0.62,31981.5,34977.2,-0.0992,-0.0584,139.4,97.6,0.496
0.64,32027.4,34902.4,0.1419,-0.2426,139.4,97.6,0.496
0.66,31943.0,34791.0,-0.3012,-0.5172,139.4,97.6,0.496
0.68,31861.8,34705.8,-0.728,-0.7272,139.4,97.6,0.496
0.7,31923.1,34756.0,-0.4058,-0.6035,139.4,97.6,0.496
0.72,31850.8,34633.5,-0.7858,-0.9053,139.4,97.6,0.496
0.74,31805.6,34658.7,-1.0231,-0.8434,139.4,97.6,0.496
0.76,31755.3,34586.2,-1.2873,-1.022,139.4,97.6,0.496
0.78,31774.0,34413.5,-1.189,-1.4477,139.4,97.6,0.496
0.8,31724.0,34330.0,-1.4521,-1.6534,139.4,97.6,0.496
0.82,31875.7,34571.3,-0.655,-1.0587,139.4,97.6,0.496
0.84,31850.0,34753.2,-0.7901,-0.6103,139.4,97.6,0.496
0.86,32042.7,35128.7,0.2222,0.315,139.4,97.6,0.496
0.88,32236.5,35489.3,1.2405,1.2038,139.4,97.6,0.496
0.9,32301.2,35737.7,1.5805,1.8162,139.4,97.6,0.496
0.92,32399.6,35728.8,2.0971,1.7942,139.4,97.6,0.496
0.94,32339.2,35667.7,1.7801,1.6437,139.4,97.6,0.496
0.96,32175.5,35471.6,0.92,1.1602,139.4,97.6,0.496
0.98,32046.2,35233.8,0.241,0.5742,139.4,97.6,0.496
1.0,32082.4,35100.1,0.4311,0.2446,139.4,97.6,0.496
1.02,32059.3,35118.9,0.3098,0.2911,139.4,97.6,0.496
1.04,31973.2,35053.0,-0.1429,0.1286,139.4,97.6,0.496
1.06,32026.2,34991.1,0.136,-0.0239,139.4,97.6,0.496
1.08,31933.7,34918.3,-0.35,-0.2034,139.4,97.6,0.496
1.1,31971.4,34708.6,-0.1519,-0.7203,139.4,97.6,0.496
1.12,31854.1,34740.6,-0.7686,-0.6414,139.4,97.6,0.496
1.14,31858.0,34673.7,-0.7479,-0.8064,139.4,97.6,0.496
1.16,31876.9,34619.4,-0.6487,-0.9401,139.4,97.6,0.496
1.18,31823.5,34680.8,-0.929,-0.7888,139.4,97.6,0.496
1.2,31829.2,34475.1,-0.8994,-1.2958,139.4,97.6,0.496
1.22,31859.0,34536.6,-0.7426,-1.1444,139.4,97.6,0.496
1.24,31740.5,34458.5,-1.3652,-1.3368,139.4,97.6,0.496
1.26,31828.8,34685.7,-0.9011,-0.7767,139.4,97.6,0.496
1.28,31990.7,34915.6,-0.0506,-0.21,139.4,97.6,0.496
1.3,32229.6,35344.9,1.2042,0.8481,139.4,97.6,0.496
1.32,32169.0,35612.7,0.8861,1.5082,139.4,97.6,0.496
1.34,32360.5,35747.5,1.8918,1.8404,139.4,97.6,0.496
1.36,32259.1,35646.8,1.3595,1.5921,139.4,97.6,0.496
1.38,32287.8,35617.8,1.5102,1.5207,139.4,97.6,0.496
1.4,32139.0,35415.6,0.7285,1.0224,139.4,97.6,0.496
1.42,32119.9,35220.7,0.6282,0.5419,139.4,97.6,0.496
1.44,32097.5,35117.4,0.5102,0.2874,139.4,97.6,0.496
1.46,31986.1,35069.4,-0.0747,0.1689,139.4,97.6,0.496
1.48,31935.3,34999.7,-0.3419,-0.0027,139.4,97.6,0.496
1.5,31897.6,34912.3,-0.5397,-0.2183,139.4,97.6,0.496
1.52,31918.2,34763.4,-0.4314,-0.5851,139.4,97.6,0.496
1.54,31867.6,34751.4,-0.6973,-0.6147,139.4,97.6,0.496
1.56,31824.1,34675.8,-0.9259,-0.8012,139.4,97.6,0.496
1.58,31822.7,34646.8,-0.9333,-0.8726,139.4,97.6,0.496
1.6,31824.6,34733.9,-0.9234,-0.658,139.4,97.6,0.496
1.62,31709.0,34565.5,-1.5309,-1.0731,139.4,97.6,0.496
1.64,31827.0,34518.7,-0.9109,-1.1884,139.4,97.6,0.496
1.66,31721.0,34439.3,-1.4675,-1.3841,139.4,97.6,0.496
1.68,31784.4,34567.1,-1.1347,-1.0691,139.4,97.6,0.496
1.7,31986.6,34805.9,-0.0726,-0.4805,139.4,97.6,0.496
1.72,32035.2,35094.7,0.183,0.2313,139.4,97.6,0.496
1.74,32219.2,35463.6,1.1496,1.1406,139.4,97.6,0.496
1.76,32325.7,35715.8,1.7094,1.7623,139.4,97.6,0.496
1.78,32355.2,35818.8,1.8642,2.0161,139.4,97.6,0.496
1.8,32243.8,35580.2,1.2789,1.428,139.4,97.6,0.496
1.82,32155.8,35452.6,0.8168,1.1135,139.4,97.6,0.496
1.84,32066.4,35311.3,0.3468,0.7652,139.4,97.6,0.496
1.86,32036.4,35218.2,0.1893,0.5358,139.4,97.6,0.496
1.88,32070.7,35148.0,0.3696,0.3627,139.4,97.6,0.496
1.9,32066.9,35142.9,0.3497,0.3501,139.4,97.6,0.496
1.92,31976.4,34885.3,-0.1261,-0.2848,139.4,97.6,0.496
1.94,31985.8,34879.4,-0.0765,-0.2994,139.4,97.6,0.496
1.96,31979.9,34693.5,-0.1076,-0.7576,139.4,97.6,0.496
1.98,31813.0,34760.9,-0.9842,-0.5914,139.4,97.6,0.496
2.0,31837.7,34646.4,-0.8544,-0.8737,139.4,97.6,0.496
2.02,31828.6,34604.0,-0.9024,-0.9782,139.4,97.6,0.496
2.04,31789.4,34630.4,-1.1083,-0.913,139.4,97.6,0.496
2.06,31907.2,34514.9,-0.4893,-1.1977,139.4,97.6,0.496
2.08,31682.7,34452.5,-1.6688,-1.3514,139.4,97.6,0.496
2.1,31746.6,34508.0,-1.3332,-1.2148,139.4,97.6,0.496
2.12,31799.4,34731.3,-1.0556,-0.6643,139.4,97.6,0.496
2.14,31905.4,34915.6,-0.4987,-0.21,139.4,97.6,0.496
2.16,32046.2,35297.5,0.241,0.7312,139.4,97.6,0.496
2.18,32272.9,35578.1,1.4315,1.4229,139.4,97.6,0.496
2.2,32398.6,35787.3,2.0922,1.9385,139.4,97.6,0.496
2.22,32274.7,35701.4,1.4414,1.7267,139.4,97.6,0.496
2.24,32179.4,35480.0,0.9406,1.1811,139.4,97.6,0.496
2.26,32086.6,35383.4,0.4531,0.943,139.4,97.6,0.496
2.28,32008.3,35171.3,0.0418,0.4202,139.4,97.6,0.496
2.3,32109.9,35094.5,0.5755,0.231,139.4,97.6,0.496
2.32,32000.2,34966.7,-0.0007,-0.0842,139.4,97.6,0.496
2.34,31969.5,34966.1,-0.1621,-0.0856,139.4,97.6,0.496
2.36,31986.6,35007.8,-0.0725,0.0172,139.4,97.6,0.496
2.38,32099.4,34896.4,0.5203,-0.2574,139.4,97.6,0.496
2.4,31831.2,34709.4,-0.8887,-0.7182,139.4,97.6,0.496
2.42,31845.0,34752.2,-0.8163,-0.6129,139.4,97.6,0.496
2.44,31835.9,34703.9,-0.8642,-0.7318,139.4,97.6,0.496
2.46,31871.2,34673.8,-0.6785,-0.8061,139.4,97.6,0.496
2.48,31797.8,34494.8,-1.0643,-1.2473,139.4,97.6,0.496
2.5,31777.0,34486.2,-1.1734,-1.2684,139.4,97.6,0.496
2.52,31627.6,34391.5,-1.9585,-1.502,139.4,97.6,0.496
2.54,31776.1,34399.5,-1.178,-1.4821,139.4,97.6,0.496
2.56,31923.0,34679.3,-0.4062,-0.7926,139.4,97.6,0.496
2.58,31993.4,35056.6,-0.0368,0.1374,139.4,97.6,0.496
2.6,32272.4,35376.8,1.429,0.9267,139.4,97.6,0.496
2.62,32303.6,35660.0,1.5931,1.6245,139.4,97.6,0.496
2.64,32309.6,35804.4,1.6244,1.9805,139.4,97.6,0.496
2.66,32344.3,35665.3,1.8071,1.6377,139.4,97.6,0.496
2.68,32232.8,35497.7,1.221,1.2246,139.4,97.6,0.496
2.7,32282.3,35268.1,1.4811,0.6588,139.4,97.6,0.496
2.72,32078.4,35178.1,0.4099,0.4368,139.4,97.6,0.496
2.74,32049.5,35174.7,0.2583,0.4284,139.4,97.6,0.496
2.76,32063.2,35062.8,0.33,0.1528,139.4,97.6,0.496
2.78,31923.9,34958.8,-0.4017,-0.1037,139.4,97.6,0.496
2.8,31926.7,34886.1,-0.3868,-0.2827,139.4,97.6,0.496
2.82,31914.8,34805.1,-0.4497,-0.4824,139.4,97.6,0.496
2.84,31938.5,34678.5,-0.3248,-0.7945,139.4,97.6,0.496
2.86,31830.5,34684.1,-0.8921,-0.7806,139.4,97.6,0.496
2.88,31834.4,34635.9,-0.8721,-0.8996,139.4,97.6,0.496
2.9,31746.2,34649.9,-1.3352,-0.865,139.4,97.6,0.496
2.92,31782.2,34570.9,-1.1463,-1.0598,139.4,97.6,0.496
2.94,31755.3,34395.4,-1.2873,-1.4924,139.4,97.6,0.496
2.96,31812.7,34498.7,-0.986,-1.2376,139.4,97.6,0.496
2.98,31797.6,34637.4,-1.065,-0.8957,139.4,97.6,0.496
3.0,31947.8,34999.0,-0.2761,-0.0046,139.4,97.6,0.496
3.02,32150.0,35238.7,0.7861,0.5863,139.4,97.6,0.496
3.04,32238.5,35550.1,1.2513,1.3537,139.4,97.6,0.496
3.06,32258.1,35715.5,1.3541,1.7615,139.4,97.6,0.496
3.08,32409.2,35728.1,2.1477,1.7924,139.4,97.6,0.496
3.1,32257.5,35591.1,1.3509,1.4548,139.4,97.6,0.496
3.12,32141.5,35384.8,0.7413,0.9463,139.4,97.6,0.496
3.14,32053.0,35203.6,0.2767,0.4997,139.4,97.6,0.496
3.16,32034.4,35134.5,0.1788,0.3293,139.4,97.6,0.496
3.18,32071.2,35034.9,0.3722,0.084,139.4,97.6,0.496
3.2,31914.2,35030.0,-0.4524,0.0718,139.4,97.6,0.496
3.22,32007.0,34803.9,0.0346,-0.4855,139.4,97.6,0.496
3.24,31949.5,34743.4,-0.267,-0.6346,139.4,97.6,0.496
3.26,31859.4,34746.2,-0.7408,-0.6276,139.4,97.6,0.496
3.28,31793.4,34714.6,-1.0874,-0.7056,139.4,97.6,0.496
3.3,31853.3,34616.8,-0.7728,-0.9466,139.4,97.6,0.496
3.32,31728.3,34603.4,-1.4293,-0.9797,139.4,97.6,0.496
3.34,31825.3,34474.0,-0.9199,-1.2985,139.4,97.6,0.496
3.36,31775.7,34497.3,-1.1801,-1.2411,139.4,97.6,0.496
3.38,31783.3,34449.2,-1.1403,-1.3597,139.4,97.6,0.496
3.4,31839.7,34541.1,-0.8442,-1.1333,139.4,97.6,0.496
3.42,31869.8,34739.5,-0.6857,-0.6442,139.4,97.6,0.496
3.44,32033.7,35083.4,0.175,0.2035,139.4,97.6,0.496
3.46,32198.8,35429.6,1.0427,1.0567,139.4,97.6,0.496
3.48,32227.0,35694.9,1.1907,1.7107,139.4,97.6,0.496
3.5,32343.3,35808.6,1.8014,1.991,139.4,97.6,0.496
3.52,32297.8,35729.5,1.5624,1.7961,139.4,97.6,0.496
3.54,32245.5,35414.0,1.288,1.0184,139.4,97.6,0.496
3.56,32105.2,35284.8,0.5508,0.7,139.4,97.6,0.496
3.58,32080.9,35172.8,0.4232,0.4238,139.4,97.6,0.496
3.6,32071.9,35112.9,0.3758,0.2762,139.4,97.6,0.496
3.62,32084.9,34943.0,0.444,-0.1426,139.4,97.6,0.496
3.64,31983.6,34930.5,-0.0878,-0.1733,139.4,97.6,0.496
3.66,31968.9,34895.1,-0.165,-0.2607,139.4,97.6,0.496
3.68,31870.8,34873.1,-0.6809,-0.3148,139.4,97.6,0.496
3.7,31869.3,34742.7,-0.6887,-0.6362,139.4,97.6,0.496
3.72,31767.5,34718.8,-1.2232,-0.6951,139.4,97.6,0.496
3.74,31851.6,34618.1,-0.7818,-0.9434,139.4,97.6,0.496
3.76,31779.4,34627.5,-1.161,-0.9201,139.4,97.6,0.496
3.78,31860.1,34609.5,-0.7369,-0.9645,139.4,97.6,0.496
3.8,31738.3,34385.4,-1.3766,-1.517,139.4,97.6,0.496
3.82,31834.8,34492.7,-0.8696,-1.2525,139.4,97.6,0.496
3.84,31802.4,34522.6,-1.04,-1.1787,139.4,97.6,0.496
3.86,31922.2,34926.3,-0.4105,-0.1837,139.4,97.6,0.496
3.88,32122.9,35267.6,0.6439,0.6576,139.4,97.6,0.496
3.9,32258.7,35553.1,1.3573,1.3611,139.4,97.6,0.496
3.92,32291.1,35725.5,1.5273,1.7861,139.4,97.6,0.496
3.94,32302.4,35803.0,1.5866,1.9771,139.4,97.6,0.496
3.96,32294.4,35584.1,1.5448,1.4375,139.4,97.6,0.496
3.98,32079.2,35424.4,0.4143,1.0439,139.4,97.6,0.496
4.0,32103.9,35310.7,0.5439,0.7638,139.4,97.6,0.496
4.02,32048.1,35186.0,0.2508,0.4563,139.4,97.6,0.496
4.04,32101.7,35074.8,0.5321,0.1823,139.4,97.6,0.496
4.06,31996.0,35030.5,-0.0229,0.0731,139.4,97.6,0.496
4.08,32047.1,34861.1,0.2454,-0.3443,139.4,97.6,0.496
4.1,32059.4,34805.2,0.3101,-0.4823,139.4,97.6,0.496
4.12,31861.1,34741.5,-0.7314,-0.6393,139.4,97.6,0.496
4.14,31866.7,34641.1,-0.7021,-0.8868,139.4,97.6,0.496
4.16,31889.5,34705.2,-0.5822,-0.7287,139.4,97.6,0.496
4.18,31861.7,34571.4,-0.7285,-1.0585,139.4,97.6,0.496
4.2,31667.7,34615.2,-1.7478,-0.9506,139.4,97.6,0.496
4.22,31655.6,34540.2,-1.811,-1.1353,139.4,97.6,0.496
4.24,31826.0,34372.0,-0.9159,-1.5499,139.4,97.6,0.496
4.26,31789.9,34551.0,-1.1059,-1.1088,139.4,97.6,0.496
4.28,31949.8,34699.8,-0.2658,-0.742,139.4,97.6,0.496
4.3,32027.7,35088.2,0.1435,0.2152,139.4,97.6,0.496
4.32,32120.4,35405.1,0.6304,0.9964,139.4,97.6,0.496
4.34,32318.5,35669.1,1.6715,1.647,139.4,97.6,0.496
4.36,32343.5,35742.5,1.8028,1.8279,139.4,97.6,0.496
4.38,32253.2,35665.1,1.3285,1.6372,139.4,97.6,0.496
4.4,32340.0,35451.1,1.7841,1.1099,139.4,97.6,0.496
4.42,32144.7,35245.4,0.7584,0.6028,139.4,97.6,0.496
4.44,32166.0,35116.0,0.8701,0.2837,139.4,97.6,0.496
4.46,31944.5,35114.3,-0.2937,0.2795,139.4,97.6,0.496
4.48,32120.7,35092.4,0.6322,0.2256,139.4,97.6,0.496
4.5,31899.5,34962.3,-0.5301,-0.0949,139.4,97.6,0.496
4.52,31972.0,34953.2,-0.149,-0.1173,139.4,97.6,0.496
4.54,31884.1,34766.3,-0.6109,-0.578,139.4,97.6,0.496
4.56,31843.7,34720.9,-0.823,-0.69,139.4,97.6,0.496
4.58,31855.2,34743.0,-0.7626,-0.6355,139.4,97.6,0.496
4.6,31834.1,34653.5,-0.8733,-0.8562,139.4,97.6,0.496
4.62,31873.1,34593.1,-0.6687,-1.0049,139.4,97.6,0.496
4.64,31834.2,34613.1,-0.8728,-0.9557,139.4,97.6,0.496
4.66,31744.1,34507.7,-1.3463,-1.2154,139.4,97.6,0.496
4.68,31787.6,34372.3,-1.118,-1.5493,139.4,97.6,0.496
4.7,31858.4,34554.8,-0.7459,-1.0994,139.4,97.6,0.496
4.72,31966.6,34839.0,-0.1774,-0.3988,139.4,97.6,0.496
4.74,32100.3,35161.4,0.525,0.3958,139.4,97.6,0.496
4.76,32249.6,35576.0,1.3096,1.4177,139.4,97.6,0.496
4.78,32345.9,35789.0,1.8153,1.9425,139.4,97.6,0.496
4.8,32359.6,35717.8,1.8872,1.7671,139.4,97.6,0.496
4.82,32245.6,35564.0,1.2882,1.3881,139.4,97.6,0.496
4.84,32155.3,35470.1,0.8141,1.1565,139.4,97.6,0.496
4.86,32023.6,35215.6,0.122,0.5293,139.4,97.6,0.496
4.88,32065.6,35011.5,0.3429,0.0262,139.4,97.6,0.496
4.9,32125.3,35111.1,0.6561,0.2716,139.4,97.6,0.496
4.92,31917.0,35019.7,-0.4381,0.0465,139.4,97.6,0.496
4.94,32016.7,34958.1,0.0859,-0.1053,139.4,97.6,0.496
4.96,31936.3,34868.9,-0.3366,-0.3253,139.4,97.6,0.496
4.98,31912.1,34848.1,-0.4635,-0.3764,139.4,97.6,0.496
5.0,31900.7,34695.5,-0.5234,-0.7526,139.4,97.6,0.496
5.02,31848.0,34658.2,-0.8004,-0.8447,139.4,97.6,0.496
5.04,31924.3,34633.0,-0.3996,-0.9067,139.4,97.6,0.496
5.06,31913.5,34604.3,-0.4563,-0.9774,139.4,97.6,0.496
5.08,31801.8,34477.1,-1.0432,-1.2909,139.4,97.6,0.496
5.1,31746.7,34477.8,-1.3324,-1.2891,139.4,97.6,0.496
5.12,31889.4,34488.8,-0.5828,-1.262,139.4,97.6,0.496
5.14,31907.4,34747.2,-0.4884,-0.6251,139.4,97.6,0.496
5.16,31952.9,35086.3,-0.2494,0.2107,139.4,97.6,0.496
5.18,32216.0,35375.0,1.1326,0.9223,139.4,97.6,0.496
5.2,32317.3,35727.7,1.6648,1.7914,139.4,97.6,0.496
5.22,32336.7,35744.7,1.767,1.8334,139.4,97.6,0.496
5.24,32302.3,35679.7,1.5863,1.6732,139.4,97.6,0.496
5.26,32229.0,35505.0,1.2014,1.2426,139.4,97.6,0.496
5.28,32221.9,35378.1,1.1639,0.9298,139.4,97.6,0.496
5.3,32182.5,35174.4,0.9568,0.4279,139.4,97.6,0.496
5.32,32070.2,35112.2,0.3669,0.2745,139.4,97.6,0.496
5.34,32027.5,35029.3,0.1428,0.0701,139.4,97.6,0.496
5.36,31988.9,35053.9,-0.06,0.1307,139.4,97.6,0.496
5.38,31933.9,34827.6,-0.3492,-0.427,139.4,97.6,0.496
5.4,31942.8,34847.0,-0.3024,-0.3793,139.4,97.6,0.496
5.42,31779.7,34712.9,-1.1593,-0.7097,139.4,97.6,0.496
5.44,31838.7,34682.5,-0.8492,-0.7845,139.4,97.6,0.496
5.46,31904.7,34688.8,-0.5027,-0.7692,139.4,97.6,0.496
5.48,31750.8,34645.0,-1.3108,-0.877,139.4,97.6,0.496
5.5,31830.8,34593.3,-0.891,-1.0044,139.4,97.6,0.496
5.52,31803.5,34472.4,-1.0344,-1.3024,139.4,97.6,0.496
5.54,31738.9,34424.5,-1.3738,-1.4207,139.4,97.6,0.496
5.56,31858.9,34656.3,-0.743,-0.8492,139.4,97.6,0.496
5.58,31922.8,34830.9,-0.4077,-0.4188,139.4,97.6,0.496
5.6,32121.8,35163.2,0.6379,0.4002,139.4,97.6,0.496
5.62,32244.0,35569.1,1.2798,1.4006,139.4,97.6,0.496
5.64,32336.4,35732.3,1.7651,1.8029,139.4,97.6,0.496
5.66,32324.1,35655.4,1.7005,1.6132,139.4,97.6,0.496
5.68,32306.2,35591.7,1.6065,1.4564,139.4,97.6,0.496
5.7,32223.9,35394.9,1.1743,0.9713,139.4,97.6,0.496
5.72,32157.1,35268.7,0.8233,0.6603,139.4,97.6,0.496
5.74,32108.3,35200.5,0.5671,0.4922,139.4,97.6,0.496
5.76,32017.4,35048.7,0.0897,0.1179,139.4,97.6,0.496
5.78,31988.0,35005.0,-0.0651,0.0102,139.4,97.6,0.496
5.8,31942.8,34984.7,-0.3026,-0.0397,139.4,97.6,0.496
5.82,31947.1,34804.7,-0.2796,-0.4833,139.4,97.6,0.496
5.84,31912.3,34713.1,-0.4629,-0.7092,139.4,97.6,0.496
5.86,31840.3,34701.0,-0.8407,-0.7392,139.4,97.6,0.496
5.88,31699.1,34545.2,-1.5829,-1.1231,139.4,97.6,0.496
5.9,31769.1,34711.2,-1.2151,-0.714,139.4,97.6,0.496
5.92,31822.9,34601.7,-0.9325,-0.9837,139.4,97.6,0.496
5.94,31801.6,34466.4,-1.044,-1.3173,139.4,97.6,0.496
5.96,31767.2,34437.2,-1.2247,-1.3892,139.4,97.6,0.496
5.98,31744.1,34463.4,-1.3464,-1.3247,139.4,97.6,0.496
6.0,31839.0,34751.8,-0.8478,-0.6137,139.4,97.6,0.496
6.02,31966.2,35014.9,-0.1794,0.0346,139.4,97.6,0.496
6.04,32228.0,35366.4,1.1961,0.9011,139.4,97.6,0.496
6.06,32316.8,35570.2,1.6622,1.4033,139.4,97.6,0.496
6.08,32374.9,35847.8,1.9676,2.0875,139.4,97.6,0.496
6.1,32270.7,35702.9,1.4201,1.7304,139.4,97.6,0.496
6.12,32297.2,35440.1,1.5592,1.0826,139.4,97.6,0.496
6.14,32175.9,35252.3,0.9221,0.6197,139.4,97.6,0.496
6.16,32108.8,35187.5,0.5698,0.4601,139.4,97.6,0.496
6.18,32128.0,35084.9,0.6704,0.2071,139.4,97.6,0.496
6.2,32020.1,35162.1,0.1039,0.3975,139.4,97.6,0.496
6.22,31958.2,34981.2,-0.2215,-0.0483,139.4,97.6,0.496
6.24,31974.1,34821.8,-0.138,-0.4413,139.4,97.6,0.496
6.26,31862.9,34758.7,-0.7219,-0.5969,139.4,97.6,0.496
6.28,31953.4,34676.7,-0.2467,-0.799,139.4,97.6,0.496
6.3,31935.1,34818.7,-0.343,-0.4489,139.4,97.6,0.496
6.32,31817.4,34787.3,-0.9611,-0.5264,139.4,97.6,0.496
6.34,31807.8,34644.0,-1.0114,-0.8794,139.4,97.6,0.496
6.36,31837.4,34485.5,-0.8559,-1.2701,139.4,97.6,0.496
6.38,31676.5,34482.5,-1.7016,-1.2776,139.4,97.6,0.496
6.4,31671.6,34470.2,-1.7269,-1.3079,139.4,97.6,0.496
6.42,31808.6,34595.6,-1.0077,-0.9989,139.4,97.6,0.496
6.44,31940.9,34792.9,-0.3123,-0.5125,139.4,97.6,0.496
6.46,32048.6,35181.3,0.2532,0.4447,139.4,97.6,0.496
6.48,32232.0,35562.0,1.2166,1.3831,139.4,97.6,0.496
6.5,32268.0,35746.0,1.4059,1.8367,139.4,97.6,0.496
6.52,32335.7,35800.3,1.7618,1.9704,139.4,97.6,0.496
6.54,32239.8,35676.0,1.2578,1.664,139.4,97.6,0.496
6.56,32333.7,35433.7,1.751,1.0669,139.4,97.6,0.496
6.58,31979.6,35196.5,-0.1091,0.4822,139.4,97.6,0.496
6.6,32101.6,35099.7,0.5319,0.2436,139.4,97.6,0.496
6.62,32087.0,35119.8,0.4554,0.2932,139.4,97.6,0.496
6.64,32068.8,35099.3,0.3596,0.2427,139.4,97.6,0.496
6.66,31878.2,34971.4,-0.6415,-0.0725,139.4,97.6,0.496
6.68,31814.9,34912.8,-0.9746,-0.2169,139.4,97.6,0.496
6.7,31828.0,34783.8,-0.9057,-0.5349,139.4,97.6,0.496
6.72,31859.7,34760.9,-0.739,-0.5913,139.4,97.6,0.496
6.74,31912.1,34670.3,-0.4636,-0.8148,139.4,97.6,0.496
6.76,31796.4,34597.5,-1.0715,-0.9941,139.4,97.6,0.496
6.78,31729.3,34648.5,-1.424,-0.8685,139.4,97.6,0.496
6.8,31767.6,34588.5,-1.2227,-1.0162,139.4,97.6,0.496
6.82,31800.2,34470.1,-1.0516,-1.3081,139.4,97.6,0.496
6.84,31837.4,34512.9,-0.8562,-1.2025,139.4,97.6,0.496
6.86,31813.8,34740.0,-0.9801,-0.6429,139.4,97.6,0.496
6.88,31949.3,34982.1,-0.2683,-0.0461,139.4,97.6,0.496
6.9,32185.4,35382.6,0.972,0.9409,139.4,97.6,0.496
6.92,32318.3,35619.5,1.6704,1.5249,139.4,97.6,0.496
6.94,32450.2,35788.5,2.3631,1.9414,139.4,97.6,0.496
6.96,32278.4,35655.6,1.4607,1.6138,139.4,97.6,0.496
6.98,32334.8,35386.2,1.7572,0.9499,139.4,97.6,0.496
7.0,32132.1,35296.2,0.6918,0.728,139.4,97.6,0.496
7.02,32082.0,35202.1,0.4288,0.496,139.4,97.6,0.496
7.04,32108.2,35135.5,0.5667,0.3319,139.4,97.6,0.496
7.06,32079.1,35030.7,0.4138,0.0736,139.4,97.6,0.496
7.08,32047.3,34968.9,0.2468,-0.0787,139.4,97.6,0.496
7.1,32045.0,34909.0,0.2346,-0.2263,139.4,97.6,0.496
7.12,31907.1,34809.5,-0.4901,-0.4716,139.4,97.6,0.496
7.14,31869.7,34643.1,-0.6862,-0.8818,139.4,97.6,0.496
7.16,31851.5,34626.5,-0.782,-0.9226,139.4,97.6,0.496
7.18,31803.3,34722.0,-1.0351,-0.6874,139.4,97.6,0.496
7.2,31785.1,34688.1,-1.1309,-0.771,139.4,97.6,0.496
7.22,31768.0,34679.2,-1.2208,-0.7928,139.4,97.6,0.496
7.24,31766.5,34441.7,-1.2286,-1.3781,139.4,97.6,0.496
7.26,31688.2,34463.6,-1.64,-1.3243,139.4,97.6,0.496
7.28,31854.6,34548.7,-0.7657,-1.1145,139.4,97.6,0.496
7.3,31914.8,34915.8,-0.4495,-0.2096,139.4,97.6,0.496
7.32,32055.9,35172.6,0.2918,0.4234,139.4,97.6,0.496
7.34,32278.0,35427.4,1.4585,1.0514,139.4,97.6,0.496
7.36,32203.5,35678.9,1.0669,1.6712,139.4,97.6,0.496
7.38,32439.7,35755.3,2.3078,1.8595,139.4,97.6,0.496
7.4,32330.0,35647.7,1.732,1.5943,139.4,97.6,0.496
7.42,32199.7,35292.1,1.047,0.7178,139.4,97.6,0.496
7.44,32116.2,35152.9,0.6085,0.3747,139.4,97.6,0.496
7.46,32036.3,35102.1,0.1889,0.2496,139.4,97.6,0.496
7.48,32057.8,35047.6,0.3018,0.1153,139.4,97.6,0.496
7.5,32004.9,35014.2,0.0237,0.0328,139.4,97.6,0.496
7.52,31921.7,34966.3,-0.4132,-0.0853,139.4,97.6,0.496
7.54,31893.0,34894.7,-0.564,-0.2617,139.4,97.6,0.496
7.56,31890.8,34786.2,-0.5755,-0.529,139.4,97.6,0.496
7.58,31814.7,34788.5,-0.9751,-0.5235,139.4,97.6,0.496
7.6,31771.7,34684.2,-1.2011,-0.7805,139.4,97.6,0.496
7.62,31792.0,34666.4,-1.0945,-0.8243,139.4,97.6,0.496
7.64,31781.8,34590.4,-1.1481,-1.0117,139.4,97.6,0.496
7.66,31713.3,34599.0,-1.5081,-0.9904,139.4,97.6,0.496
7.68,31779.5,34442.3,-1.1604,-1.3767,139.4,97.6,0.496
7.7,31806.6,34501.8,-1.018,-1.23,139.4,97.6,0.496
7.72,31932.4,34660.7,-0.3571,-0.8384,139.4,97.6,0.496
7.74,31996.1,34923.6,-0.0224,-0.1903,139.4,97.6,0.496
7.76,32065.6,35342.6,0.3426,0.8424,139.4,97.6,0.496
7.78,32400.2,35600.1,2.1008,1.4771,139.4,97.6,0.496
7.8,32344.5,35817.5,1.8079,2.0128,139.4,97.6,0.496
7.82,32242.8,35584.4,1.2737,1.4384,139.4,97.6,0.496
7.84,32225.3,35524.3,1.1815,1.2901,139.4,97.6,0.496
7.86,32073.7,35302.4,0.385,0.7433,139.4,97.6,0.496
7.88,32000.0,35145.0,-0.0017,0.3553,139.4,97.6,0.496
7.9,32101.8,35115.3,0.5329,0.2822,139.4,97.6,0.496
7.92,32042.1,35073.3,0.2194,0.1786,139.4,97.6,0.496
7.94,31988.3,34965.4,-0.0634,-0.0873,139.4,97.6,0.496
7.96,31989.2,34953.3,-0.0588,-0.1173,139.4,97.6,0.496
7.98,31913.2,34671.9,-0.4578,-0.8107,139.4,97.6,0.496
8.0,31977.5,34710.1,-0.1203,-0.7166,139.4,97.6,0.496
8.02,31868.1,34708.2,-0.695,-0.7214,139.4,97.6,0.496
8.04,31861.0,34611.2,-0.732,-0.9603,139.4,97.6,0.496
8.06,31810.3,34671.3,-0.9987,-0.8122,139.4,97.6,0.496
8.08,31888.0,34608.1,-0.5905,-0.968,139.4,97.6,0.496
8.1,31742.2,34494.1,-1.3564,-1.249,139.4,97.6,0.496
8.12,31731.5,34472.0,-1.4126,-1.3035,139.4,97.6,0.496
8.14,31769.1,34526.9,-1.2147,-1.1682,139.4,97.6,0.496
8.16,31816.7,34859.3,-0.9647,-0.3488,139.4,97.6,0.496
8.18,32080.5,35128.0,0.4212,0.3134,139.4,97.6,0.496
8.2,32268.6,35477.6,1.4092,1.1751,139.4,97.6,0.496
8.22,32331.4,35685.2,1.739,1.6867,139.4,97.6,0.496
8.24,32315.6,35673.6,1.6559,1.6581,139.4,97.6,0.496
8.26,32270.3,35692.9,1.4183,1.7057,139.4,97.6,0.496
8.28,32295.1,35541.1,1.5485,1.3316,139.4,97.6,0.496
8.3,32124.5,35268.0,0.6524,0.6585,139.4,97.6,0.496
8.32,32050.7,35172.0,0.2643,0.4219,139.4,97.6,0.496
8.34,31928.7,35159.0,-0.3767,0.3899,139.4,97.6,0.496
8.36,32082.1,35015.8,0.4296,0.037,139.4,97.6,0.496
8.38,31974.4,34961.2,-0.1364,-0.0977,139.4,97.6,0.496
8.4,32066.2,34781.2,0.3458,-0.5414,139.4,97.6,0.496
8.42,31964.9,34809.5,-0.1861,-0.4716,139.4,97.6,0.496
8.44,31852.7,34678.9,-0.776,-0.7936,139.4,97.6,0.496
8.46,31846.7,34738.8,-0.8074,-0.6459,139.4,97.6,0.496
8.48,31746.0,34771.8,-1.3365,-0.5646,139.4,97.6,0.496
8.5,31807.6,34618.3,-1.0126,-0.9428,139.4,97.6,0.496
8.52,31746.7,34546.4,-1.3328,-1.1201,139.4,97.6,0.496
8.54,31731.7,34458.9,-1.4117,-1.3357,139.4,97.6,0.496
8.56,31769.9,34453.4,-1.2106,-1.3493,139.4,97.6,0.496
8.58,31787.2,34678.9,-1.1197,-0.7935,139.4,97.6,0.496
8.6,31962.3,34970.0,-0.2001,-0.0761,139.4,97.6,0.496
8.62,32205.1,35424.6,1.0756,1.0444,139.4,97.6,0.496
8.64,32349.8,35624.2,1.836,1.5363,139.4,97.6,0.496
8.66,32455.7,35795.3,2.3923,1.9582,139.4,97.6,0.496
8.68,32336.6,35657.0,1.7666,1.6172,139.4,97.6,0.496
8.7,32348.5,35538.3,1.8289,1.3247,139.4,97.6,0.496
8.72,32188.1,35431.2,0.9862,1.0607,139.4,97.6,0.496
8.74,32008.3,35172.0,0.0417,0.422,139.4,97.6,0.496
8.76,32026.0,35126.9,0.1347,0.3107,139.4,97.6,0.496
8.78,32055.0,35040.1,0.287,0.0967,139.4,97.6,0.496
8.8,32080.5,35034.0,0.4211,0.0816,139.4,97.6,0.496
8.82,31952.4,34954.7,-0.2518,-0.1138,139.4,97.6,0.496
8.84,31934.4,34758.9,-0.3468,-0.5963,139.4,97.6,0.496
8.86,31867.0,34598.8,-0.7005,-0.9908,139.4,97.6,0.496
8.88,31891.7,34730.6,-0.5709,-0.6662,139.4,97.6,0.496
8.9,31794.8,34740.7,-1.0798,-0.6413,139.4,97.6,0.496
8.92,31815.3,34635.6,-0.972,-0.9004,139.4,97.6,0.496
8.94,31793.3,34555.5,-1.0879,-1.0976,139.4,97.6,0.496
8.96,31720.2,34457.1,-1.4717,-1.3403,139.4,97.6,0.496
8.98,31760.1,34432.2,-1.2622,-1.4015,139.4,97.6,0.496
9.0,31838.6,34474.0,-0.8496,-1.2985,139.4,97.6,0.496
9.02,31938.8,34776.8,-0.3234,-0.5521,139.4,97.6,0.496
9.04,32005.4,35105.1,0.0262,0.2569,139.4,97.6,0.496
9.06,32100.7,35539.4,0.5274,1.3275,139.4,97.6,0.496
9.08,32312.1,35744.8,1.6378,1.8336,139.4,97.6,0.496
9.1,32391.9,35697.3,2.057,1.7165,139.4,97.6,0.496
9.12,32320.9,35574.8,1.6841,1.4146,139.4,97.6,0.496
9.14,32221.2,35459.2,1.1603,1.1296,139.4,97.6,0.496
9.16,32090.5,35234.2,0.4737,0.5751,139.4,97.6,0.496
9.18,32133.8,35169.0,0.701,0.4145,139.4,97.6,0.496
9.2,32125.3,35117.6,0.6562,0.2878,139.4,97.6,0.496
9.22,31957.0,35076.1,-0.2277,0.1854,139.4,97.6,0.496
9.24,32045.4,34990.5,0.2367,-0.0256,139.4,97.6,0.496
9.26,31887.1,34937.3,-0.5951,-0.1566,139.4,97.6,0.496
9.28,31871.0,34691.3,-0.6796,-0.7628,139.4,97.6,0.496
9.3,31837.7,34706.9,-0.8547,-0.7245,139.4,97.6,0.496
9.32,31891.5,34636.4,-0.5718,-0.8982,139.4,97.6,0.496
9.34,31739.8,34649.2,-1.3688,-0.8667,139.4,97.6,0.496
9.36,31761.1,34552.6,-1.2567,-1.1047,139.4,97.6,0.496
9.38,31824.5,34511.8,-0.9236,-1.2053,139.4,97.6,0.496
9.4,31749.6,34453.3,-1.3174,-1.3496,139.4,97.6,0.496
9.42,31837.3,34470.6,-0.8568,-1.3069,139.4,97.6,0.496
9.44,31842.9,34643.0,-0.8274,-0.8821,139.4,97.6,0.496
9.46,31912.5,34965.1,-0.4614,-0.0881,139.4,97.6,0.496
9.48,32200.1,35319.5,1.0496,0.7854,139.4,97.6,0.496
9.5,32225.7,35652.4,1.1838,1.6059,139.4,97.6,0.496
9.52,32177.2,35744.2,0.9292,1.8321,139.4,97.6,0.496
9.54,32337.0,35650.5,1.7688,1.6012,139.4,97.6,0.496
9.56,32263.2,35475.0,1.3806,1.1686,139.4,97.6,0.496
9.58,32193.4,35385.1,1.014,0.947,139.4,97.6,0.496
9.6,32127.5,35167.6,0.6676,0.4111,139.4,97.6,0.496
9.62,32016.1,35131.5,0.0827,0.3221,139.4,97.6,0.496
9.64,31939.9,35103.6,-0.3174,0.2534,139.4,97.6,0.496
9.66,32074.6,35017.4,0.3898,0.0408,139.4,97.6,0.496
9.68,31983.3,34959.9,-0.0898,-0.1009,139.4,97.6,0.496
9.7,31831.4,34806.7,-0.8878,-0.4786,139.4,97.6,0.496
9.72,31819.5,34825.3,-0.9503,-0.4327,139.4,97.6,0.496
9.74,31844.7,34719.0,-0.8176,-0.6946,139.4,97.6,0.496
9.76,31796.8,34633.5,-1.0693,-0.9054,139.4,97.6,0.496
9.78,31795.3,34704.5,-1.0775,-0.7304,139.4,97.6,0.496
9.8,31896.3,34512.0,-0.5466,-1.2048,139.4,97.6,0.496
9.82,31751.9,34551.6,-1.3053,-1.1072,139.4,97.6,0.496
9.84,31823.0,34446.0,-0.9315,-1.3676,139.4,97.6,0.496
9.86,31769.5,34511.7,-1.2128,-1.2056,139.4,97.6,0.496
9.88,31905.9,34747.6,-0.4962,-0.6242,139.4,97.6,0.496
9.9,32060.0,35169.1,0.3133,0.4146,139.4,97.6,0.496
9.92,32223.9,35346.1,1.1741,0.851,139.4,97.6,0.496
9.94,32294.6,35649.9,1.5456,1.5999,139.4,97.6,0.496
9.96,32303.9,35701.3,1.5948,1.7263,139.4,97.6,0.496
9.98,32295.3,35637.9,1.5494,1.5701,139.4,97.6,0.496
10.0,32254.4,35494.5,1.3344,1.2167,139.4,97.6,0.496
10.02,32089.3,35248.4,0.4675,0.6101,139.4,97.6,0.496
10.04,32114.6,35149.6,0.6004,0.3667,139.4,97.6,0.496
10.06,32027.9,35127.3,0.1444,0.3117,139.4,97.6,0.496
10.08,32100.8,35067.6,0.5275,0.1645,139.4,97.6,0.496
10.1,31991.4,34990.7,-0.0471,-0.025,139.4,97.6,0.496
10.12,31921.0,34875.0,-0.4169,-0.3102,139.4,97.6,0.496
10.14,31843.3,34716.8,-0.825,-0.7,139.4,97.6,0.496
10.16,31800.5,34697.1,-1.0499,-0.7486,139.4,97.6,0.496
10.18,31873.3,34641.4,-0.6677,-0.886,139.4,97.6,0.496
10.2,31829.3,34719.4,-0.8984,-0.6937,139.4,97.6,0.496
10.22,31820.4,34646.3,-0.9456,-0.874,139.4,97.6,0.496
10.24,31772.0,34546.5,-1.1995,-1.1199,139.4,97.6,0.496
10.26,31698.9,34437.2,-1.5839,-1.3891,139.4,97.6,0.496
10.28,31803.8,34459.3,-1.0325,-1.3347,139.4,97.6,0.496
10.3,31769.2,34720.4,-1.2144,-0.6911,139.4,97.6,0.496
10.32,31914.1,34939.2,-0.4532,-0.1519,139.4,97.6,0.496
10.34,32134.7,35210.7,0.706,0.5173,139.4,97.6,0.496
10.36,32363.0,35539.2,1.9052,1.327,139.4,97.6,0.496
10.38,32364.2,35700.4,1.9113,1.7243,139.4,97.6,0.496
10.4,32324.3,35692.9,1.7015,1.7058,139.4,97.6,0.496
10.42,32273.1,35610.2,1.4326,1.502,139.4,97.6,0.496
10.44,32225.0,35431.1,1.1803,1.0604,139.4,97.6,0.496
10.46,32160.9,35189.2,0.8435,0.4642,139.4,97.6,0.496
10.48,32045.7,35100.2,0.2384,0.245,139.4,97.6,0.496
10.5,32052.7,35106.1,0.2747,0.2593,139.4,97.6,0.496
10.52,32093.9,34966.3,0.4913,-0.0853,139.4,97.6,0.496
10.54,31926.3,34874.4,-0.389,-0.3118,139.4,97.6,0.496
10.56,31927.0,34827.7,-0.3854,-0.4267,139.4,97.6,0.496
10.58,31863.8,34735.0,-0.7176,-0.6551,139.4,97.6,0.496
10.6,31881.5,34659.2,-0.6243,-0.8421,139.4,97.6,0.496
10.62,31774.4,34631.7,-1.1873,-0.9098,139.4,97.6,0.496
10.64,31889.8,34600.6,-0.5808,-0.9864,139.4,97.6,0.496
10.66,31803.9,34512.0,-1.0322,-1.2049,139.4,97.6,0.496
10.68,31785.3,34518.9,-1.1297,-1.188,139.4,97.6,0.496
10.7,31704.3,34467.9,-1.5555,-1.3136,139.4,97.6,0.496
10.72,31878.3,34482.3,-0.6415,-1.278,139.4,97.6,0.496
10.74,31950.9,34721.0,-0.2598,-0.6897,139.4,97.6,0.496
10.76,32031.4,35116.6,0.163,0.2853,139.4,97.6,0.496
10.78,32149.7,35421.9,0.7846,1.0379,139.4,97.6,0.496
10.8,32222.5,35709.4,1.1669,1.7464,139.4,97.6,0.496
10.82,32331.1,35723.8,1.7374,1.7818,139.4,97.6,0.496
10.84,32264.7,35595.0,1.3887,1.4645,139.4,97.6,0.496
10.86,32170.6,35439.7,0.8943,1.0817,139.4,97.6,0.496
10.88,32100.3,35258.1,0.5251,0.634,139.4,97.6,0.496
10.9,32069.9,35154.1,0.3654,0.3777,139.4,97.6,0.496
10.92,32089.2,35121.0,0.4667,0.2961,139.4,97.6,0.496
10.94,32055.8,35042.1,0.2912,0.1017,139.4,97.6,0.496
10.96,32027.9,34985.4,0.1448,-0.0382,139.4,97.6,0.496
10.98,31886.5,34926.4,-0.5983,-0.1834,139.4,97.6,0.496
11.0,31912.6,34725.4,-0.4612,-0.6789,139.4,97.6,0.496
11.02,31929.1,34706.5,-0.3746,-0.7256,139.4,97.6,0.496
11.04,31833.2,34714.7,-0.878,-0.7052,139.4,97.6,0.496
11.06,31872.0,34673.0,-0.6742,-0.8081,139.4,97.6,0.496
11.08,31865.7,34668.9,-0.7072,-0.8182,139.4,97.6,0.496
11.1,31811.0,34642.3,-0.9948,-0.8838,139.4,97.6,0.496
11.12,31788.4,34487.8,-1.1135,-1.2645,139.4,97.6,0.496
11.14,31748.2,34482.4,-1.3248,-1.2778,139.4,97.6,0.496
11.16,31841.8,34637.9,-0.833,-0.8947,139.4,97.6,0.496
11.18,31950.6,34881.4,-0.2613,-0.2944,139.4,97.6,0.496
11.2,32081.5,35160.7,0.426,0.394,139.4,97.6,0.496
11.22,32336.5,35600.7,1.7657,1.4785,139.4,97.6,0.496
11.24,32322.9,35820.1,1.6943,2.0193,139.4,97.6,0.496
11.26,32394.7,35650.3,2.0719,1.6007,139.4,97.6,0.496
11.28,32179.2,35563.2,0.9394,1.3861,139.4,97.6,0.496
11.3,32175.7,35360.3,0.9213,0.886,139.4,97.6,0.496
11.32,32133.3,35216.5,0.6986,0.5316,139.4,97.6,0.496
11.34,32099.8,35093.9,0.5226,0.2294,139.4,97.6,0.496
11.36,32031.0,35018.6,0.1609,0.0437,139.4,97.6,0.496
11.38,31988.2,35092.8,-0.0641,0.2266,139.4,97.6,0.496
11.4,31952.2,34956.7,-0.2528,-0.1089,139.4,97.6,0.496
11.42,31893.7,34767.7,-0.5602,-0.5746,139.4,97.6,0.496
11.44,31931.1,34770.0,-0.3636,-0.569,139.4,97.6,0.496
11.46,31918.2,34724.8,-0.4315,-0.6805,139.4,97.6,0.496
11.48,31936.3,34748.8,-0.3368,-0.6211,139.4,97.6,0.496
11.5,31865.3,34642.1,-0.7095,-0.8841,139.4,97.6,0.496
11.52,31835.3,34608.9,-0.8674,-0.9661,139.4,97.6,0.496
11.54,31813.6,34496.4,-0.9811,-1.2434,139.4,97.6,0.496
11.56,31806.9,34381.5,-1.0163,-1.5265,139.4,97.6,0.496
11.58,31756.4,34498.6,-1.2817,-1.2378,139.4,97.6,0.496
11.6,31789.2,34772.0,-1.1095,-0.5641,139.4,97.6,0.496
11.62,32049.4,35002.1,0.2578,0.0031,139.4,97.6,0.496
11.64,32175.5,35455.6,0.9203,1.1209,139.4,97.6,0.496
11.66,32258.1,35711.3,1.3541,1.7511,139.4,97.6,0.496
11.68,32363.9,35789.8,1.9101,1.9446,139.4,97.6,0.496
11.7,32331.4,35711.0,1.7392,1.7503,139.4,97.6,0.496
11.72,32260.2,35409.5,1.3649,1.0074,139.4,97.6,0.496
11.74,32067.3,35344.2,0.3515,0.8462,139.4,97.6,0.496
11.76,32074.3,35166.6,0.3886,0.4085,139.4,97.6,0.496
11.78,31993.1,35071.9,-0.0379,0.1752,139.4,97.6,0.496
11.8,32028.8,35130.4,0.1493,0.3193,139.4,97.6,0.496
11.82,32018.1,35037.1,0.0931,0.0895,139.4,97.6,0.496
11.84,31917.9,34898.8,-0.4332,-0.2515,139.4,97.6,0.496
11.86,31936.4,34773.4,-0.3359,-0.5605,139.4,97.6,0.496
11.88,31911.1,34610.7,-0.4687,-0.9615,139.4,97.6,0.496
11.9,31832.9,34675.5,-0.8796,-0.8018,139.4,97.6,0.496
11.92,31839.9,34703.5,-0.8432,-0.7328,139.4,97.6,0.496
11.94,31854.0,34669.6,-0.7689,-0.8164,139.4,97.6,0.496
11.96,31895.6,34586.5,-0.5503,-1.0212,139.4,97.6,0.496
11.98,31738.9,34531.0,-1.3738,-1.158,139.4,97.6,0.496
12.0,31753.2,34552.0,-1.2984,-1.1062,139.4,97.6,0.496
12.02,31782.7,34582.3,-1.1437,-1.0317,139.4,97.6,0.496
12.04,31859.2,34927.7,-0.7416,-0.1804,139.4,97.6,0.496
12.06,32137.7,35162.3,0.7213,0.398,139.4,97.6,0.496
12.08,32177.6,35627.1,0.9309,1.5436,139.4,97.6,0.496
12.1,32307.2,35704.1,1.6122,1.7334,139.4,97.6,0.496
12.12,32288.0,35680.8,1.5113,1.676,139.4,97.6,0.496
12.14,32299.0,35587.6,1.5688,1.4463,139.4,97.6,0.496
12.16,32246.9,35376.1,1.295,0.9249,139.4,97.6,0.496
12.18,32194.0,35265.9,1.0172,0.6533,139.4,97.6,0.496
12.2,32055.0,35029.8,0.2868,0.0713,139.4,97.6,0.496
12.22,31999.5,35120.0,-0.0043,0.2938,139.4,97.6,0.496
12.24,31926.1,35080.9,-0.39,0.1974,139.4,97.6,0.496
12.26,32037.0,34915.2,0.1927,-0.2112,139.4,97.6,0.496
12.28,31945.4,34814.4,-0.2888,-0.4596,139.4,97.6,0.496
12.3,31891.1,34709.7,-0.5741,-0.7176,139.4,97.6,0.496
12.32,31835.4,34781.4,-0.8665,-0.5408,139.4,97.6,0.496
12.34,31859.4,34745.1,-0.7404,-0.6304,139.4,97.6,0.496
12.36,31862.4,34515.2,-0.7247,-1.197,139.4,97.6,0.496
12.38,31771.0,34667.4,-1.2048,-0.8219,139.4,97.6,0.496
12.4,31732.1,34516.2,-1.4093,-1.1946,139.4,97.6,0.496
12.42,31746.7,34427.2,-1.3324,-1.4138,139.4,97.6,0.496
12.44,31819.1,34449.6,-0.9521,-1.3588,139.4,97.6,0.496
12.46,31892.4,34692.5,-0.567,-0.7599,139.4,97.6,0.496
12.48,32032.8,35046.0,0.1704,0.1114,139.4,97.6,0.496
12.5,32169.9,35436.4,0.8905,1.0736,139.4,97.6,0.496
12.52,32255.2,35689.9,1.3389,1.6984,139.4,97.6,0.496
12.54,32280.9,35955.8,1.4735,2.3538,139.4,97.6,0.496
12.56,32257.8,35585.0,1.3523,1.4398,139.4,97.6,0.496
12.58,32288.5,35525.6,1.5138,1.2934,139.4,97.6,0.496
12.6,32140.1,35305.9,0.7339,0.7519,139.4,97.6,0.496
12.62,32061.4,35163.3,0.3204,0.4005,139.4,97.6,0.496
12.64,32061.9,35209.3,0.3231,0.5137,139.4,97.6,0.496
12.66,32107.9,35075.4,0.5651,0.1839,139.4,97.6,0.496
12.68,32082.9,35032.8,0.4338,0.0787,139.4,97.6,0.496
12.7,31955.9,34903.2,-0.2335,-0.2407,139.4,97.6,0.496
12.72,31842.4,34822.9,-0.8298,-0.4385,139.4,97.6,0.496
12.74,31871.7,34682.6,-0.6758,-0.7843,139.4,97.6,0.496
12.76,31873.3,34692.1,-0.6676,-0.761,139.4,97.6,0.496
12.78,31835.2,34638.5,-0.8678,-0.893,139.4,97.6,0.496
12.8,31801.1,34642.9,-1.047,-0.8823,139.4,97.6,0.496
12.82,31756.4,34579.7,-1.2817,-1.0379,139.4,97.6,0.496
12.84,31729.4,34451.4,-1.4235,-1.3544,139.4,97.6,0.496
12.86,31657.4,34467.4,-1.8015,-1.3149,139.4,97.6,0.496
12.88,31770.5,34570.5,-1.2074,-1.0606,139.4,97.6,0.496
12.9,31955.3,34943.5,-0.2366,-0.1413,139.4,97.6,0.496
12.92,32075.4,35271.0,0.394,0.6659,139.4,97.6,0.496
12.94,32313.0,35566.0,1.6423,1.3931,139.4,97.6,0.496
12.96,32359.6,35778.4,1.8874,1.9165,139.4,97.6,0.496
12.98,32317.5,35724.5,1.6662,1.7837,139.4,97.6,0.496
13.0,32298.7,35559.1,1.5675,1.3759,139.4,97.6,0.496
13.02,32241.4,35387.9,1.2662,0.9541,139.4,97.6,0.496
13.04,32142.0,35216.0,0.7443,0.5304,139.4,97.6,0.496
13.06,32024.4,35136.9,0.1264,0.3354,139.4,97.6,0.496
13.08,31958.4,35100.2,-0.2202,0.2449,139.4,97.6,0.496
13.1,32017.6,35104.8,0.0906,0.2563,139.4,97.6,0.496
13.12,32060.9,34996.8,0.3182,-0.0099,139.4,97.6,0.496
13.14,31952.2,34857.9,-0.2533,-0.3523,139.4,97.6,0.496
13.16,31981.0,34693.2,-0.1019,-0.7583,139.4,97.6,0.496
13.18,31889.1,34654.8,-0.5845,-0.8528,139.4,97.6,0.496
13.2,31863.8,34722.7,-0.7173,-0.6856,139.4,97.6,0.496
13.22,31906.9,34541.8,-0.4912,-1.1313,139.4,97.6,0.496
13.24,31724.0,34602.8,-1.4519,-0.9811,139.4,97.6,0.496
13.26,31725.5,34467.5,-1.444,-1.3145,139.4,97.6,0.496
13.28,31792.9,34348.3,-1.0897,-1.6084,139.4,97.6,0.496
13.3,31792.8,34492.9,-1.0905,-1.2519,139.4,97.6,0.496
13.32,31903.9,34711.6,-0.5067,-0.713,139.4,97.6,0.496
13.34,31932.2,34950.9,-0.3582,-0.1231,139.4,97.6,0.496
13.36,32112.6,35385.2,0.5895,0.9473,139.4,97.6,0.496
13.38,32209.2,35763.7,1.0971,1.8803,139.4,97.6,0.496
13.4,32335.5,35726.5,1.7608,1.7887,139.4,97.6,0.496
13.42,32279.5,35750.4,1.4667,1.8474,139.4,97.6,0.496
13.44,32235.9,35589.9,1.2375,1.452,139.4,97.6,0.496
13.46,32239.3,35190.1,1.2554,0.4665,139.4,97.6,0.496
13.48,32216.7,35242.3,1.1364,0.5951,139.4,97.6,0.496
13.5,32037.5,35160.4,0.195,0.3932,139.4,97.6,0.496
13.52,32070.1,35028.9,0.3666,0.0692,139.4,97.6,0.496
13.54,31991.4,35016.9,-0.0473,0.0396,139.4,97.6,0.496
13.56,31948.2,34930.5,-0.2741,-0.1734,139.4,97.6,0.496
13.58,31957.2,34716.1,-0.2266,-0.7019,139.4,97.6,0.496
13.6,31808.7,34783.8,-1.0067,-0.5349,139.4,97.6,0.496
13.62,31821.6,34652.2,-0.9392,-0.8594,139.4,97.6,0.496
13.64,31807.4,34763.2,-1.0135,-0.5858,139.4,97.6,0.496
13.66,31858.0,34702.7,-0.748,-0.735,139.4,97.6,0.496
13.68,31807.8,34579.1,-1.0115,-1.0395,139.4,97.6,0.496
13.7,31828.2,34492.5,-0.9046,-1.2531,139.4,97.6,0.496
13.72,31746.5,34467.9,-1.3334,-1.3136,139.4,97.6,0.496
13.74,31811.2,34639.4,-0.9937,-0.8908,139.4,97.6,0.496
13.76,31913.0,34771.3,-0.4591,-0.5658,139.4,97.6,0.496
13.78,32059.5,35173.9,0.3105,0.4265,139.4,97.6,0.496
13.8,32293.6,35480.8,1.5407,1.183,139.4,97.6,0.496
13.82,32324.6,35769.1,1.7032,1.8936,139.4,97.6,0.496
13.84,32352.0,35809.7,1.8471,1.9937,139.4,97.6,0.496
13.86,32255.1,35579.8,1.338,1.427,139.4,97.6,0.496
13.88,32158.1,35553.5,0.8287,1.362,139.4,97.6,0.496
13.9,32137.6,35289.8,0.7208,0.7121,139.4,97.6,0.496
13.92,32086.0,35141.0,0.4497,0.3455,139.4,97.6,0.496
13.94,31996.1,35100.0,-0.0222,0.2443,139.4,97.6,0.496
13.96,31979.2,35008.1,-0.1112,0.0178,139.4,97.6,0.496
13.98,31946.6,34934.9,-0.2823,-0.1625,139.4,97.6,0.496
14.0,31875.3,34836.0,-0.6569,-0.4062,139.4,97.6,0.496
14.02,31787.7,34815.4,-1.1172,-0.457,139.4,97.6,0.496
14.04,31925.8,34736.2,-0.3918,-0.6523,139.4,97.6,0.496
14.06,31870.3,34719.5,-0.6832,-0.6934,139.4,97.6,0.496
14.08,31959.5,34721.3,-0.2146,-0.689,139.4,97.6,0.496
14.1,31803.1,34531.9,-1.0363,-1.1559,139.4,97.6,0.496
14.12,31768.2,34546.3,-1.2199,-1.1203,139.4,97.6,0.496
14.14,31737.4,34433.8,-1.3816,-1.3976,139.4,97.6,0.496
14.16,31771.0,34436.7,-1.2047,-1.3904,139.4,97.6,0.496
14.18,31785.7,34642.8,-1.1279,-0.8825,139.4,97.6,0.496
14.2,32046.7,34897.3,0.2437,-0.2552,139.4,97.6,0.496
14.22,32190.2,35288.3,0.9975,0.7084,139.4,97.6,0.496
14.24,32359.9,35575.4,1.8887,1.4162,139.4,97.6,0.496
14.26,32267.4,35776.9,1.4029,1.9127,139.4,97.6,0.496
14.28,32245.7,35668.6,1.2888,1.6459,139.4,97.6,0.496
14.3,32270.0,35575.3,1.4167,1.416,139.4,97.6,0.496
14.32,32222.0,35343.5,1.1644,0.8447,139.4,97.6,0.496
14.34,32094.1,35102.6,0.4922,0.2507,139.4,97.6,0.496
14.36,32160.5,35099.6,0.8414,0.2435,139.4,97.6,0.496
14.38,32006.9,35110.2,0.0345,0.2696,139.4,97.6,0.496
14.4,31975.5,34925.7,-0.1309,-0.1853,139.4,97.6,0.496
14.42,31891.8,34928.1,-0.5703,-0.1794,139.4,97.6,0.496
14.44,32003.7,34927.3,0.0176,-0.1813,139.4,97.6,0.496
14.46,31907.6,34712.1,-0.4873,-0.7117,139.4,97.6,0.496
14.48,31807.2,34674.6,-1.0149,-0.8042,139.4,97.6,0.496
14.5,31823.1,34692.6,-0.9315,-0.7597,139.4,97.6,0.496
14.52,31739.5,34690.4,-1.3702,-0.7653,139.4,97.6,0.496
14.54,31863.1,34563.9,-0.721,-1.0769,139.4,97.6,0.496
14.56,31746.2,34490.5,-1.3354,-1.2579,139.4,97.6,0.496
14.58,31743.1,34504.2,-1.3514,-1.2241,139.4,97.6,0.496
14.6,31843.0,34546.5,-0.8268,-1.1198,139.4,97.6,0.496
14.62,31909.7,34846.4,-0.4764,-0.3806,139.4,97.6,0.496
14.64,32117.5,35136.7,0.6156,0.3348,139.4,97.6,0.496
14.66,32321.5,35461.4,1.687,1.1351,139.4,97.6,0.496
14.68,32221.1,35808.6,1.1594,1.991,139.4,97.6,0.496
14.7,32346.9,35756.1,1.8206,1.8615,139.4,97.6,0.496
14.72,32329.3,35654.7,1.7282,1.6116,139.4,97.6,0.496
14.74,32137.2,35326.8,0.719,0.8034,139.4,97.6,0.496
14.76,32102.6,35213.7,0.537,0.5246,139.4,97.6,0.496
14.78,32107.1,35180.8,0.5606,0.4436,139.4,97.6,0.496
14.8,32089.5,35019.2,0.4682,0.0453,139.4,97.6,0.496
14.82,31910.7,35032.0,-0.471,0.0769,139.4,97.6,0.496
14.84,32008.5,34950.8,0.0429,-0.1234,139.4,97.6,0.496
14.86,31985.8,34916.0,-0.0763,-0.2091,139.4,97.6,0.496
14.88,31828.2,34715.6,-0.9046,-0.703,139.4,97.6,0.496
14.9,31918.7,34649.1,-0.4292,-0.8668,139.4,97.6,0.496
14.92,31912.9,34648.0,-0.4597,-0.8696,139.4,97.6,0.496
14.94,31918.3,34635.4,-0.431,-0.9007,139.4,97.6,0.496
14.96,31808.8,34666.3,-1.0066,-0.8244,139.4,97.6,0.496
14.98,31836.3,34559.3,-0.862,-1.0882,139.4,97.6,0.496
15.0,31743.3,34442.4,-1.3503,-1.3764,139.4,97.6,0.496
15.02,31788.6,34475.6,-1.1126,-1.2945,139.4,97.6,0.496
15.04,31880.0,34623.4,-0.6322,-0.9303,139.4,97.6,0.496
15.06,31908.0,34973.9,-0.4853,-0.0665,139.4,97.6,0.496
15.08,32232.3,35364.6,1.2184,0.8965,139.4,97.6,0.496
15.1,32353.3,35652.8,1.8541,1.607,139.4,97.6,0.496
15.12,32379.3,35693.3,1.9905,1.7068,139.4,97.6,0.496
15.14,32318.8,35772.0,1.6731,1.9006,139.4,97.6,0.496
15.16,32274.6,35516.3,1.4406,1.2704,139.4,97.6,0.496
15.18,32166.5,35322.1,0.8727,0.7919,139.4,97.6,0.496
15.2,32098.0,35254.8,0.5127,0.6259,139.4,97.6,0.496
15.22,32084.5,35186.1,0.4421,0.4566,139.4,97.6,0.496
15.24,31985.3,35071.2,-0.079,0.1733,139.4,97.6,0.496
15.26,32028.9,35027.5,0.1497,0.0657,139.4,97.6,0.496
15.28,32006.2,34839.1,0.0307,-0.3988,139.4,97.6,0.496
15.3,31941.9,34780.6,-0.3071,-0.5428,139.4,97.6,0.496
15.32,31929.7,34615.8,-0.3714,-0.949,139.4,97.6,0.496
15.34,31821.7,34656.8,-0.9387,-0.8479,139.4,97.6,0.496
15.36,31826.7,34627.2,-0.9125,-0.9209,139.4,97.6,0.496
15.38,31830.1,34586.0,-0.8945,-1.0225,139.4,97.6,0.496
15.4,31864.0,34621.7,-0.7164,-0.9345,139.4,97.6,0.496
15.42,31787.2,34485.5,-1.1198,-1.2702,139.4,97.6,0.496
15.44,31723.4,34489.3,-1.4551,-1.2608,139.4,97.6,0.496
15.46,31826.0,34504.5,-0.9158,-1.2232,139.4,97.6,0.496
15.48,31818.1,34787.9,-0.9575,-0.5249,139.4,97.6,0.496
15.5,32014.7,35104.5,0.0751,0.2556,139.4,97.6,0.496
15.52,32161.8,35516.6,0.8481,1.2711,139.4,97.6,0.496
15.54,32370.7,35769.8,1.9454,1.8953,139.4,97.6,0.496
15.56,32392.5,35747.8,2.0599,1.841,139.4,97.6,0.496
15.58,32403.6,35560.1,2.1182,1.3784,139.4,97.6,0.496
15.6,32215.8,35351.8,1.1318,0.8649,139.4,97.6,0.496
15.62,32097.4,35230.7,0.5099,0.5665,139.4,97.6,0.496
15.64,32011.3,35150.3,0.0576,0.3685,139.4,97.6,0.496
15.66,32060.2,35072.6,0.3146,0.1769,139.4,97.6,0.496
15.68,31893.1,34963.9,-0.5634,-0.0912,139.4,97.6,0.496
15.7,32045.4,34926.5,0.2367,-0.1832,139.4,97.6,0.496
15.72,31974.1,34877.1,-0.1382,-0.305,139.4,97.6,0.496
15.74,31844.1,34786.7,-0.8209,-0.5279,139.4,97.6,0.496
15.76,31787.1,34690.6,-1.1203,-0.7648,139.4,97.6,0.496
15.78,31854.5,34750.0,-0.7663,-0.6184,139.4,97.6,0.496
15.8,31901.4,34676.6,-0.52,-0.7991,139.4,97.6,0.496
15.82,31788.6,34585.5,-1.1127,-1.0237,139.4,97.6,0.496
15.84,31797.6,34570.3,-1.0654,-1.0611,139.4,97.6,0.496
15.86,31813.8,34464.2,-0.9799,-1.3227,139.4,97.6,0.496
15.88,31695.7,34443.7,-1.6006,-1.3731,139.4,97.6,0.496
15.9,31793.4,34693.9,-1.087,-0.7566,139.4,97.6,0.496
15.92,31947.5,34967.3,-0.2776,-0.0828,139.4,97.6,0.496
15.94,32116.1,35252.4,0.608,0.62,139.4,97.6,0.496
15.96,32275.7,35589.5,1.4466,1.4509,139.4,97.6,0.496
15.98,32306.4,35720.4,1.6075,1.7736,139.4,97.6,0.496
16.0,32292.7,35699.2,1.536,1.7213,139.4,97.6,0.496
16.02,32279.7,35533.2,1.4675,1.3122,139.4,97.6,0.496
16.04,32107.7,35330.8,0.564,0.8133,139.4,97.6,0.496
16.06,32075.3,35163.7,0.3938,0.4013,139.4,97.6,0.496
16.08,32130.0,35108.6,0.6812,0.2655,139.4,97.6,0.496
16.1,31914.1,35108.9,-0.4534,0.2663,139.4,97.6,0.496
16.12,32052.0,35074.2,0.2711,0.1809,139.4,97.6,0.496
16.14,32006.2,34893.2,0.0306,-0.2653,139.4,97.6,0.496
16.16,31895.9,34821.0,-0.5488,-0.4433,139.4,97.6,0.496
16.18,31835.6,34854.7,-0.8655,-0.3603,139.4,97.6,0.496
16.2,31842.8,34707.1,-0.8276,-0.7241,139.4,97.6,0.496
16.22,31909.9,34605.7,-0.4752,-0.974,139.4,97.6,0.496
16.24,31910.1,34617.6,-0.4741,-0.9446,139.4,97.6,0.496
16.26,31800.2,34597.4,-1.0516,-0.9944,139.4,97.6,0.496
16.28,31759.2,34458.9,-1.267,-1.3357,139.4,97.6,0.496
16.3,31801.2,34479.2,-1.046,-1.2858,139.4,97.6,0.496
16.32,31677.7,34510.8,-1.6951,-1.2079,139.4,97.6,0.496
16.34,31946.5,34671.3,-0.283,-0.8122,139.4,97.6,0.496
16.36,32097.4,35188.0,0.5098,0.4614,139.4,97.6,0.496
16.38,32246.0,35472.7,1.2903,1.1629,139.4,97.6,0.496
16.4,32247.6,35686.1,1.2991,1.6891,139.4,97.6,0.496
16.42,32422.9,35749.1,2.22,1.8442,139.4,97.6,0.496
16.44,32268.3,35651.4,1.4075,1.6035,139.4,97.6,0.496
16.46,32139.2,35448.5,0.7296,1.1033,139.4,97.6,0.496
16.48,32017.3,35246.3,0.0889,0.6051,139.4,97.6,0.496
16.5,32084.4,35192.6,0.4413,0.4726,139.4,97.6,0.496
16.52,32039.8,35150.8,0.2071,0.3696,139.4,97.6,0.496
16.54,31998.8,35038.5,-0.0084,0.0927,139.4,97.6,0.496
16.56,31941.8,34866.0,-0.3077,-0.3324,139.4,97.6,0.496
16.58,31984.2,34770.1,-0.0851,-0.5688,139.4,97.6,0.496
16.6,31878.6,34816.2,-0.6395,-0.455,139.4,97.6,0.496
16.62,31808.6,34608.0,-1.0076,-0.9683,139.4,97.6,0.496
16.64,32005.1,34614.6,0.0246,-0.9519,139.4,97.6,0.496
16.66,31850.5,34703.7,-0.7875,-0.7323,139.4,97.6,0.496
16.68,31734.1,34653.9,-1.3987,-0.8551,139.4,97.6,0.496
16.7,31794.6,34556.5,-1.081,-1.0952,139.4,97.6,0.496
16.72,31823.1,34503.7,-0.9313,-1.2253,139.4,97.6,0.496
16.74,31653.9,34486.6,-1.8201,-1.2675,139.4,97.6,0.496
16.76,31775.0,34702.5,-1.1842,-0.7354,139.4,97.6,0.496
16.78,31904.6,34848.0,-0.5031,-0.3768,139.4,97.6,0.496
16.8,32077.0,35375.9,0.4025,0.9245,139.4,97.6,0.496
16.82,32219.7,35638.8,1.1521,1.5724,139.4,97.6,0.496
16.84,32352.5,35722.1,1.8499,1.7777,139.4,97.6,0.496
16.86,32276.2,35764.1,1.449,1.8813,139.4,97.6,0.496
16.88,32215.5,35616.4,1.1304,1.5172,139.4,97.6,0.496
16.9,32098.0,35385.5,0.5132,0.9481,139.4,97.6,0.496
16.92,32095.2,35255.7,0.498,0.6282,139.4,97.6,0.496
16.94,32089.7,35066.8,0.4695,0.1625,139.4,97.6,0.496
16.96,32006.3,35094.1,0.0313,0.2299,139.4,97.6,0.496
16.98,31967.5,34999.6,-0.1728,-0.003,139.4,97.6,0.496
17.0,31986.7,34929.4,-0.0716,-0.176,139.4,97.6,0.496
17.02,31886.4,34736.5,-0.5989,-0.6516,139.4,97.6,0.496
17.04,31782.1,34677.7,-1.1468,-0.7965,139.4,97.6,0.496
17.06,31873.3,34627.4,-0.6676,-0.9204,139.4,97.6,0.496
17.08,31814.0,34715.6,-0.9791,-0.7031,139.4,97.6,0.496
17.1,31906.1,34516.0,-0.4953,-1.1951,139.4,97.6,0.496
17.12,31800.2,34581.6,-1.0516,-1.0333,139.4,97.6,0.496
17.14,31714.3,34468.5,-1.5028,-1.3122,139.4,97.6,0.496
17.16,31771.9,34480.1,-1.2001,-1.2834,139.4,97.6,0.496
17.18,31772.2,34529.7,-1.1987,-1.1614,139.4,97.6,0.496
17.2,32012.4,34783.4,0.063,-0.536,139.4,97.6,0.496
17.22,31961.5,35109.8,-0.2042,0.2685,139.4,97.6,0.496
17.24,32159.5,35469.7,0.8361,1.1555,139.4,97.6,0.496
17.26,32371.1,35668.1,1.9475,1.6447,139.4,97.6,0.496
17.28,32320.5,35740.5,1.6819,1.823,139.4,97.6,0.496
17.3,32282.5,35599.3,1.4821,1.4752,139.4,97.6,0.496
17.32,32232.4,35536.4,1.2188,1.3201,139.4,97.6,0.496
17.34,32257.2,35256.6,1.3492,0.6303,139.4,97.6,0.496
17.36,32055.2,35198.8,0.2878,0.4879,139.4,97.6,0.496
17.38,32121.7,35048.8,0.6376,0.1182,139.4,97.6,0.496
17.4,32070.8,35037.6,0.3698,0.0906,139.4,97.6,0.496
17.42,31973.0,34967.2,-0.1436,-0.0829,139.4,97.6,0.496
17.44,31898.5,34855.5,-0.5353,-0.3581,139.4,97.6,0.496
17.46,31917.7,34818.5,-0.4342,-0.4494,139.4,97.6,0.496
17.48,31931.6,34707.4,-0.3611,-0.7234,139.4,97.6,0.496
17.5,31889.4,34573.8,-0.5828,-1.0526,139.4,97.6,0.496
17.52,31843.9,34681.5,-0.8217,-0.787,139.4,97.6,0.496
17.54,31867.6,34580.6,-0.6975,-1.0358,139.4,97.6,0.496
17.56,31747.8,34519.9,-1.3269,-1.1854,139.4,97.6,0.496
17.58,31756.2,34559.8,-1.2829,-1.0871,139.4,97.6,0.496
17.6,31710.2,34444.6,-1.5246,-1.371,139.4,97.6,0.496
17.62,31781.4,34670.7,-1.1504,-0.8138,139.4,97.6,0.496
17.64,31930.3,34916.2,-0.3678,-0.2085,139.4,97.6,0.496
17.66,32050.4,35134.9,0.2628,0.3305,139.4,97.6,0.496
17.68,32233.1,35569.2,1.2228,1.4008,139.4,97.6,0.496
17.7,32303.7,35703.1,1.5937,1.7308,139.4,97.6,0.496
17.72,32434.1,35699.5,2.2788,1.7219,139.4,97.6,0.496
17.74,32227.7,35567.6,1.1945,1.3968,139.4,97.6,0.496
17.76,32223.3,35376.8,1.1714,0.9266,139.4,97.6,0.496
17.78,32069.8,35204.2,0.3648,0.5013,139.4,97.6,0.496
17.8,32001.2,35075.8,0.0043,0.1846,139.4,97.6,0.496
17.82,32042.1,35057.2,0.2194,0.1389,139.4,97.6,0.496
17.84,32027.4,35116.7,0.1422,0.2856,139.4,97.6,0.496
17.86,31952.3,34868.9,-0.2526,-0.3253,139.4,97.6,0.496
17.88,31917.8,34891.3,-0.4337,-0.27,139.4,97.6,0.496
17.9,31892.0,34688.3,-0.5693,-0.7704,139.4,97.6,0.496
17.92,31899.3,34718.9,-0.5309,-0.695,139.4,97.6,0.496
17.94,31878.2,34737.0,-0.6418,-0.6503,139.4,97.6,0.496
17.96,31839.5,34602.2,-0.8451,-0.9825,139.4,97.6,0.496
17.98,31710.3,34589.0,-1.5238,-1.0152,139.4,97.6,0.496
18.0,31778.7,34441.9,-1.1646,-1.3776,139.4,97.6,0.496
18.02,31750.5,34375.4,-1.3128,-1.5415,139.4,97.6,0.496
18.04,31755.5,34472.6,-1.2863,-1.3019,139.4,97.6,0.496
18.06,31843.8,34704.7,-0.8227,-0.7299,139.4,97.6,0.496
18.08,32056.0,35021.3,0.2921,0.0505,139.4,97.6,0.496
18.1,32161.5,35508.2,0.8466,1.2506,139.4,97.6,0.496
18.12,32271.1,35723.8,1.4224,1.7818,139.4,97.6,0.496
18.14,32296.2,35746.3,1.5542,1.8374,139.4,97.6,0.496
18.16,32306.2,35685.1,1.6068,1.6864,139.4,97.6,0.496
18.18,32240.7,35540.1,1.2624,1.3292,139.4,97.6,0.496
18.2,32145.0,35210.7,0.76,0.5172,139.4,97.6,0.496
18.22,32065.3,35144.6,0.3409,0.3542,139.4,97.6,0.496
18.24,32003.6,35095.5,0.0172,0.2333,139.4,97.6,0.496
18.26,31986.9,35050.0,-0.0706,0.1213,139.4,97.6,0.496
18.28,32045.8,34952.6,0.2385,-0.119,139.4,97.6,0.496
18.3,31951.8,34873.5,-0.2552,-0.3138,139.4,97.6,0.496
18.32,31914.8,34760.2,-0.4493,-0.5932,139.4,97.6,0.496
18.34,31814.0,34622.2,-0.9788,-0.9333,139.4,97.6,0.496
18.36,31890.2,34695.5,-0.5788,-0.7526,139.4,97.6,0.496
18.38,31814.6,34722.1,-0.976,-0.687,139.4,97.6,0.496
18.4,31854.1,34685.3,-0.7682,-0.7778,139.4,97.6,0.496
18.42,31692.1,34603.3,-1.6192,-0.9798,139.4,97.6,0.496
18.44,31815.8,34402.4,-0.9698,-1.4751,139.4,97.6,0.496
18.46,31765.8,34410.7,-1.2322,-1.4544,139.4,97.6,0.496
18.48,31809.8,34636.7,-1.0011,-0.8975,139.4,97.6,0.496
18.5,31921.3,34897.4,-0.4155,-0.2549,139.4,97.6,0.496
18.52,32097.8,35273.9,0.5117,0.673,139.4,97.6,0.496
18.54,32353.4,35553.4,1.8545,1.3619,139.4,97.6,0.496
18.56,32299.3,35822.9,1.5703,2.0261,139.4,97.6,0.496
18.58,32417.9,35737.8,2.1937,1.8165,139.4,97.6,0.496
18.6,32300.8,35542.4,1.5783,1.3347,139.4,97.6,0.496
18.62,32146.8,35446.6,0.7692,1.0987,139.4,97.6,0.496
18.64,32109.2,35224.9,0.5718,0.5523,139.4,97.6,0.496
18.66,32048.1,35223.2,0.2508,0.548,139.4,97.6,0.496
18.68,32005.4,35124.5,0.0267,0.3047,139.4,97.6,0.496
18.7,31936.6,34993.8,-0.3352,-0.0173,139.4,97.6,0.496
18.72,31990.1,34993.5,-0.0539,-0.0182,139.4,97.6,0.496
18.74,31868.5,34848.2,-0.6925,-0.3761,139.4,97.6,0.496
18.76,31936.9,34744.4,-0.3334,-0.632,139.4,97.6,0.496
18.78,31774.3,34720.3,-1.1878,-0.6916,139.4,97.6,0.496
18.8,31973.5,34668.4,-0.1414,-0.8194,139.4,97.6,0.496
18.82,31811.0,34670.8,-0.9951,-0.8135,139.4,97.6,0.496
18.84,31862.7,34554.7,-0.723,-1.0995,139.4,97.6,0.496
18.86,31805.1,34377.0,-1.0256,-1.5376,139.4,97.6,0.496
18.88,31676.9,34457.1,-1.6992,-1.3401,139.4,97.6,0.496
18.9,31802.9,34529.1,-1.0372,-1.1627,139.4,97.6,0.496
18.92,31964.3,34766.4,-0.1896,-0.5779,139.4,97.6,0.496
18.94,31958.0,35056.6,-0.2224,0.1375,139.4,97.6,0.496
18.96,32150.2,35443.8,0.787,1.0917,139.4,97.6,0.496
18.98,32346.5,35610.4,1.8183,1.5024,139.4,97.6,0.496
19.0,32350.1,35691.0,1.8374,1.7011,139.4,97.6,0.496
19.02,32354.2,35743.6,1.859,1.8307,139.4,97.6,0.496
19.04,32250.5,35509.1,1.3139,1.2527,139.4,97.6,0.496
19.06,32254.5,35374.1,1.3349,0.9199,139.4,97.6,0.496
19.08,32083.6,35203.9,0.4373,0.5006,139.4,97.6,0.496
19.1,32005.8,35045.7,0.0286,0.1105,139.4,97.6,0.496
19.12,32025.3,35066.5,0.1307,0.1617,139.4,97.6,0.496
19.14,32018.7,34969.3,0.0963,-0.0777,139.4,97.6,0.496
19.16,31967.6,34853.0,-0.1719,-0.3643,139.4,97.6,0.496
19.18,31890.5,34800.6,-0.577,-0.4934,139.4,97.6,0.496
19.2,31802.3,34718.8,-1.0405,-0.6951,139.4,97.6,0.496
19.22,31844.3,34694.7,-0.8201,-0.7546,139.4,97.6,0.496
19.24,31825.9,34693.1,-0.9167,-0.7585,139.4,97.6,0.496
19.26,31747.2,34659.6,-1.3302,-0.841,139.4,97.6,0.496
19.28,31863.4,34531.4,-0.7197,-1.157,139.4,97.6,0.496
19.3,31697.8,34467.8,-1.5895,-1.3139,139.4,97.6,0.496
19.32,31847.2,34553.7,-0.8046,-1.1022,139.4,97.6,0.496
19.34,31788.2,34640.1,-1.1147,-0.8892,139.4,97.6,0.496
19.36,31844.2,34856.3,-0.8204,-0.3562,139.4,97.6,0.496
19.38,32056.3,35230.7,0.2941,0.5666,139.4,97.6,0.496
19.4,32241.3,35663.9,1.2659,1.6342,139.4,97.6,0.496
19.42,32299.7,35708.4,1.5725,1.7439,139.4,97.6,0.496
19.44,32267.1,35755.1,1.4013,1.8591,139.4,97.6,0.496
19.46,32305.3,35590.8,1.6019,1.4541,139.4,97.6,0.496
19.48,32184.3,35299.3,0.9665,0.7356,139.4,97.6,0.496
19.5,32187.2,35222.1,0.9813,0.5454,139.4,97.6,0.496
19.52,32060.6,35133.8,0.3163,0.3277,139.4,97.6,0.496
19.54,32029.8,35027.4,0.1546,0.0655,139.4,97.6,0.496
19.56,32025.7,35058.3,0.1333,0.1416,139.4,97.6,0.496
19.58,32003.5,34964.1,0.0166,-0.0906,139.4,97.6,0.496
19.6,31929.6,34782.8,-0.3719,-0.5375,139.4,97.6,0.496
19.62,31849.8,34678.5,-0.7912,-0.7944,139.4,97.6,0.496
19.64,31853.7,34701.0,-0.7706,-0.7391,139.4,97.6,0.496
19.66,31842.6,34644.4,-0.8289,-0.8786,139.4,97.6,0.496
19.68,31821.9,34563.5,-0.9375,-1.0779,139.4,97.6,0.496
19.7,31790.4,34563.0,-1.1032,-1.0792,139.4,97.6,0.496
19.72,31811.4,34504.3,-0.9929,-1.224,139.4,97.6,0.496
19.74,31711.9,34467.1,-1.5154,-1.3156,139.4,97.6,0.496
19.76,31695.3,34546.4,-1.6027,-1.1202,139.4,97.6,0.496
19.78,31906.0,34706.2,-0.4958,-0.7261,139.4,97.6,0.496
19.8,32027.1,35023.3,0.1405,0.0554,139.4,97.6,0.496
19.82,32230.6,35385.5,1.2096,0.9481,139.4,97.6,0.496
19.84,32258.2,35719.7,1.3546,1.7718,139.4,97.6,0.496
19.86,32387.4,35661.0,2.0333,1.6272,139.4,97.6,0.496
19.88,32251.4,35620.6,1.3186,1.5275,139.4,97.6,0.496
19.9,32158.2,35451.5,0.8293,1.1107,139.4,97.6,0.496
19.92,32277.8,35211.7,1.4576,0.5198,139.4,97.6,0.496
19.94,32013.7,35280.9,0.0699,0.6904,139.4,97.6,0.496
19.96,32023.3,35119.9,0.1207,0.2933,139.4,97.6,0.496
19.98,32006.1,35120.1,0.0304,0.294,139.4,97.6,0.496
20.0,32026.2,35066.0,0.136,0.1605,139.4,97.6,0.496
20.02,31914.4,34827.9,-0.4514,-0.4262,139.4,97.6,0.496
20.04,31889.0,34753.5,-0.5849,-0.6097,139.4,97.6,0.496
20.06,31853.8,34667.9,-0.77,-0.8206,139.4,97.6,0.496
20.08,31854.4,34700.0,-0.767,-0.7415,139.4,97.6,0.496
20.1,31773.9,34593.8,-1.1897,-1.0033,139.4,97.6,0.496
20.12,31869.5,34706.7,-0.6877,-0.7251,139.4,97.6,0.496
20.14,31856.3,34548.1,-0.7571,-1.1158,139.4,97.6,0.496
20.16,31761.6,34439.9,-1.2543,-1.3826,139.4,97.6,0.496
20.18,31834.6,34457.5,-0.8707,-1.3391,139.4,97.6,0.496
20.2,31787.3,34650.2,-1.1191,-0.8642,139.4,97.6,0.496
20.22,32038.9,34773.0,0.2024,-0.5616,139.4,97.6,0.496
20.24,32083.9,35252.7,0.439,0.6206,139.4,97.6,0.496
20.26,32256.2,35558.3,1.3439,1.374,139.4,97.6,0.496
20.28,32325.9,35730.1,1.7102,1.7975,139.4,97.6,0.496
20.3,32377.0,35712.5,1.9785,1.7541,139.4,97.6,0.496
20.32,32246.4,35646.7,1.2927,1.5919,139.4,97.6,0.496
20.34,32132.6,35401.0,0.6947,0.9863,139.4,97.6,0.496
20.36,32089.1,35177.9,0.4661,0.4364,139.4,97.6,0.496
20.38,32048.8,35040.9,0.2545,0.0987,139.4,97.6,0.496
20.4,32027.7,35004.9,0.1435,0.0099,139.4,97.6,0.496
20.42,32064.5,35010.6,0.3368,0.024,139.4,97.6,0.496
20.44,31963.6,35035.9,-0.1933,0.0864,139.4,97.6,0.496
20.46,31976.2,34841.3,-0.1272,-0.3934,139.4,97.6,0.496
20.48,31961.3,34717.7,-0.2051,-0.6979,139.4,97.6,0.496
20.5,31813.7,34644.1,-0.9807,-0.8793,139.4,97.6,0.496
20.52,31880.8,34688.4,-0.6282,-0.7701,139.4,97.6,0.496
20.54,31910.6,34718.3,-0.4714,-0.6964,139.4,97.6,0.496
20.56,31788.6,34526.7,-1.1127,-1.1688,139.4,97.6,0.496
20.58,31754.8,34621.3,-1.2902,-0.9356,139.4,97.6,0.496
20.6,31810.6,34457.4,-0.9969,-1.3394,139.4,97.6,0.496
20.62,31721.8,34538.4,-1.4632,-1.1398,139.4,97.6,0.496
20.64,31907.6,34659.8,-0.4874,-0.8406,139.4,97.6,0.496
20.66,32115.2,35015.3,0.6033,0.0355,139.4,97.6,0.496
20.68,32156.1,35441.8,0.8182,1.0869,139.4,97.6,0.496
20.7,32262.1,35672.3,1.3753,1.655,139.4,97.6,0.496
20.72,32440.2,35787.3,2.3108,1.9385,139.4,97.6,0.496
20.74,32313.7,35731.0,1.646,1.7997,139.4,97.6,0.496
20.76,32231.1,35560.4,1.2121,1.3792,139.4,97.6,0.496
20.78,32147.5,35413.4,0.7729,1.0168,139.4,97.6,0.496
20.8,32055.3,35196.3,0.2885,0.4817,139.4,97.6,0.496
20.82,31989.9,35117.1,-0.0551,0.2865,139.4,97.6,0.496
20.84,32002.9,35015.3,0.0133,0.0357,139.4,97.6,0.496
20.86,31960.1,34939.5,-0.2116,-0.1512,139.4,97.6,0.496
20.88,31941.4,34827.0,-0.31,-0.4285,139.4,97.6,0.496
20.9,31901.9,34742.4,-0.5174,-0.637,139.4,97.6,0.496
20.92,31843.5,34693.3,-0.8241,-0.758,139.4,97.6,0.496
20.94,31842.4,34639.2,-0.8299,-0.8913,139.4,97.6,0.496
20.96,31802.1,34684.3,-1.0414,-0.7803,139.4,97.6,0.496
20.98,31870.8,34615.2,-0.6807,-0.9505,139.4,97.6,0.496
21.0,31730.6,34543.5,-1.4173,-1.1272,139.4,97.6,0.496
21.02,31831.2,34460.3,-0.8889,-1.3324,139.4,97.6,0.496
21.04,31677.4,34451.2,-1.6967,-1.3548,139.4,97.6,0.496
21.06,31791.0,34611.8,-1.1,-0.9589,139.4,97.6,0.496
21.08,31937.9,34808.7,-0.328,-0.4736,139.4,97.6,0.496
21.1,32053.3,35177.8,0.2783,0.4362,139.4,97.6,0.496
21.12,32200.8,35556.9,1.053,1.3705,139.4,97.6,0.496
21.14,32339.1,35653.4,1.7793,1.6083,139.4,97.6,0.496
21.16,32362.8,35671.3,1.9038,1.6526,139.4,97.6,0.496
21.18,32350.1,35661.3,1.8374,1.6279,139.4,97.6,0.496
21.2,32252.5,35521.3,1.3248,1.2828,139.4,97.6,0.496
21.22,32102.8,35211.9,0.5384,0.5203,139.4,97.6,0.496
21.24,32066.7,35187.9,0.3485,0.461,139.4,97.6,0.496
21.26,32031.8,35070.5,0.1654,0.1716,139.4,97.6,0.496
21.28,31907.5,35072.2,-0.488,0.1758,139.4,97.6,0.496
21.3,32012.8,34940.7,0.0652,-0.1482,139.4,97.6,0.496
21.32,31865.7,34879.9,-0.7072,-0.2982,139.4,97.6,0.496
21.34,31888.8,34754.6,-0.5863,-0.607,139.4,97.6,0.496
21.36,31801.9,34735.3,-1.0428,-0.6546,139.4,97.6,0.496
21.38,31862.8,34627.8,-0.7227,-0.9195,139.4,97.6,0.496
21.4,31847.0,34566.3,-0.8056,-1.0711,139.4,97.6,0.496
21.42,31849.6,34483.0,-0.792,-1.2764,139.4,97.6,0.496
21.44,31753.6,34578.0,-1.2962,-1.0423,139.4,97.6,0.496
21.46,31799.3,34495.1,-1.0562,-1.2466,139.4,97.6,0.496
21.48,31779.4,34547.1,-1.1607,-1.1184,139.4,97.6,0.496
21.5,31839.9,34706.1,-0.8431,-0.7265,139.4,97.6,0.496
21.52,32005.9,35021.3,0.029,0.0504,139.4,97.6,0.496
21.54,32264.6,35398.2,1.3881,0.9794,139.4,97.6,0.496
21.56,32249.9,35622.3,1.3112,1.5316,139.4,97.6,0.496
21.58,32388.6,35760.6,2.0397,1.8727,139.4,97.6,0.496
21.6,32348.6,35647.8,1.8295,1.5945,139.4,97.6,0.496
21.62,32169.0,35499.0,0.8861,1.2279,139.4,97.6,0.496
21.64,32193.1,35338.4,1.0128,0.832,139.4,97.6,0.496
21.66,32070.6,35233.9,0.3689,0.5743,139.4,97.6,0.496
21.68,31965.6,35109.6,-0.1828,0.268,139.4,97.6,0.496
21.7,32037.9,35137.2,0.1973,0.336,139.4,97.6,0.496
21.72,31968.0,34994.8,-0.17,-0.015,139.4,97.6,0.496
21.74,31911.8,34981.6,-0.4652,-0.0475,139.4,97.6,0.496
21.76,31923.0,34821.8,-0.4062,-0.4413,139.4,97.6,0.496
21.78,31864.2,34751.6,-0.7155,-0.6143,139.4,97.6,0.496
21.8,31889.8,34680.6,-0.5811,-0.7893,139.4,97.6,0.496
21.82,31803.6,34650.2,-1.0339,-0.8641,139.4,97.6,0.496
21.84,31773.3,34597.4,-1.1931,-0.9945,139.4,97.6,0.496
21.86,31788.5,34532.1,-1.1128,-1.1553,139.4,97.6,0.496
21.88,31805.8,34506.2,-1.0221,-1.2193,139.4,97.6,0.496
21.9,31800.0,34447.6,-1.0527,-1.3635,139.4,97.6,0.496
21.92,31791.5,34528.3,-1.0973,-1.1647,139.4,97.6,0.496
21.94,31919.0,34765.0,-0.4277,-0.5814,139.4,97.6,0.496
21.96,32081.0,35123.3,0.4236,0.3018,139.4,97.6,0.496
21.98,32255.8,35466.7,1.3417,1.1482,139.4,97.6,0.496
22.0,32310.5,35655.9,1.6292,1.6146,139.4,97.6,0.496
22.02,32361.4,35839.4,1.8966,2.0669,139.4,97.6,0.496
22.04,32265.4,35593.1,1.3926,1.4598,139.4,97.6,0.496
22.06,32075.3,35410.8,0.3939,1.0105,139.4,97.6,0.496
22.08,32026.5,35252.1,0.1375,0.6193,139.4,97.6,0.496
22.1,32073.5,35120.7,0.3844,0.2953,139.4,97.6,0.496
22.12,32093.7,35054.7,0.4901,0.1328,139.4,97.6,0.496
22.14,32022.7,34956.1,0.1175,-0.1102,139.4,97.6,0.496
22.16,32001.6,34928.0,0.0065,-0.1795,139.4,97.6,0.496
22.18,31933.8,35000.1,-0.3495,-0.0019,139.4,97.6,0.496
22.2,31919.9,34750.6,-0.4227,-0.6167,139.4,97.6,0.496
22.22,31777.1,34636.4,-1.1731,-0.8983,139.4,97.6,0.496
22.24,31908.9,34693.5,-0.4804,-0.7575,139.4,97.6,0.496
22.26,31827.4,34720.9,-0.9086,-0.69,139.4,97.6,0.496
22.28,31790.4,34594.2,-1.1029,-1.0024,139.4,97.6,0.496
22.3,31786.5,34504.0,-1.1234,-1.2247,139.4,97.6,0.496
22.32,31744.4,34436.7,-1.3449,-1.3904,139.4,97.6,0.496
22.34,31811.6,34511.4,-0.9919,-1.2063,139.4,97.6,0.496
22.36,31846.6,34568.7,-0.8077,-1.0651,139.4,97.6,0.496
22.38,32019.8,34974.6,0.1023,-0.0647,139.4,97.6,0.496
22.4,32185.3,35341.4,0.9716,0.8395,139.4,97.6,0.496
22.42,32313.0,35655.0,1.6423,1.6124,139.4,97.6,0.496
22.44,32373.6,35849.9,1.9608,2.0927,139.4,97.6,0.496
22.46,32338.4,35736.3,1.7759,1.8128,139.4,97.6,0.496
22.48,32336.0,35444.8,1.7635,1.0943,139.4,97.6,0.496
22.5,32061.4,35334.7,0.3206,0.8229,139.4,97.6,0.496
22.52,32059.2,35329.0,0.309,0.8089,139.4,97.6,0.496
22.54,32053.4,35036.2,0.2785,0.0871,139.4,97.6,0.496
22.56,32057.7,35242.4,0.301,0.5954,139.4,97.6,0.496
22.58,31959.7,34994.0,-0.2137,-0.0168,139.4,97.6,0.496
22.6,31912.5,34987.5,-0.4615,-0.0329,139.4,97.6,0.496
22.62,31979.6,34794.3,-0.1092,-0.5092,139.4,97.6,0.496
22.64,31912.7,34785.1,-0.4607,-0.5318,139.4,97.6,0.496
22.66,31774.2,34729.9,-1.1884,-0.6678,139.4,97.6,0.496
22.68,31873.5,34649.8,-0.6662,-0.8651,139.4,97.6,0.496
22.7,31795.6,34605.5,-1.0755,-0.9743,139.4,97.6,0.496
22.72,31868.4,34550.4,-0.6935,-1.1103,139.4,97.6,0.496
22.74,31826.1,34543.7,-0.9153,-1.1267,139.4,97.6,0.496
22.76,31799.9,34455.3,-1.053,-1.3446,139.4,97.6,0.496
22.78,31823.4,34540.3,-0.9294,-1.1352,139.4,97.6,0.496
22.8,31964.5,34831.5,-0.1882,-0.4173,139.4,97.6,0.496
22.82,32119.2,35204.0,0.6241,0.5006,139.4,97.6,0.496
22.84,32298.4,35429.2,1.5659,1.0559,139.4,97.6,0.496
22.86,32353.7,35781.9,1.8564,1.9251,139.4,97.6,0.496
22.88,32233.4,35826.8,1.2243,2.0359,139.4,97.6,0.496
22.9,32256.0,35731.5,1.3428,1.8008,139.4,97.6,0.496
22.92,32117.6,35419.5,0.6161,1.0319,139.4,97.6,0.496
22.94,32098.0,35266.4,0.5129,0.6545,139.4,97.6,0.496
22.96,32045.7,35101.9,0.2382,0.2491,139.4,97.6,0.496
22.98,32023.5,35099.5,0.1214,0.2431,139.4,97.6,0.496
23.0,32068.5,34931.5,0.358,-0.171,139.4,97.6,0.496
23.02,31981.4,34906.2,-0.0994,-0.2332,139.4,97.6,0.496
23.04,31910.4,34836.2,-0.4725,-0.4059,139.4,97.6,0.496
23.06,31781.9,34761.3,-1.1477,-0.5903,139.4,97.6,0.496
23.08,31786.0,34625.2,-1.1259,-0.926,139.4,97.6,0.496
23.1,31881.3,34736.5,-0.6256,-0.6514,139.4,97.6,0.496
23.12,31905.0,34634.9,-0.5008,-0.902,139.4,97.6,0.496
23.14,31830.1,34579.0,-0.8942,-1.0398,139.4,97.6,0.496
23.16,31767.5,34416.9,-1.2233,-1.4393,139.4,97.6,0.496
23.18,31763.6,34466.2,-1.2438,-1.3178,139.4,97.6,0.496
23.2,31791.0,34438.3,-1.1,-1.3866,139.4,97.6,0.496
23.22,31865.9,34653.2,-0.7062,-0.857,139.4,97.6,0.496
23.24,31944.8,34961.2,-0.2918,-0.0977,139.4,97.6,0.496
23.26,32151.0,35269.7,0.7915,0.6626,139.4,97.6,0.496
23.28,32328.8,35607.4,1.7253,1.495,139.4,97.6,0.496
23.3,32354.4,35783.8,1.8599,1.9298,139.4,97.6,0.496
23.32,32419.1,35728.4,2.2,1.7932,139.4,97.6,0.496
23.34,32174.6,35410.5,0.9151,1.0096,139.4,97.6,0.496
23.36,32240.3,35344.1,1.2605,0.8462,139.4,97.6,0.496
23.38,32132.6,35206.6,0.6948,0.507,139.4,97.6,0.496
23.4,32077.3,35201.9,0.4043,0.4955,139.4,97.6,0.496
23.42,31971.4,35048.6,-0.1519,0.1177,139.4,97.6,0.496
23.44,31959.5,35066.2,-0.2146,0.1612,139.4,97.6,0.496
23.46,32005.7,34949.3,0.0283,-0.1271,139.4,97.6,0.496
23.48,31922.5,34828.5,-0.4092,-0.4247,139.4,97.6,0.496
23.5,31794.9,34735.3,-1.0796,-0.6545,139.4,97.6,0.496
23.52,31913.8,34670.4,-0.4546,-0.8145,139.4,97.6,0.496
23.54,31832.3,34612.1,-0.8831,-0.9582,139.4,97.6,0.496
23.56,31874.5,34572.2,-0.6614,-1.0565,139.4,97.6,0.496
23.58,31859.8,34578.7,-0.7387,-1.0404,139.4,97.6,0.496
23.6,31757.0,34544.8,-1.2783,-1.1241,139.4,97.6,0.496
23.62,31760.7,34435.3,-1.2589,-1.3939,139.4,97.6,0.496
23.64,31770.4,34486.8,-1.2082,-1.2671,139.4,97.6,0.496
23.66,31826.8,34869.4,-0.9118,-0.3239,139.4,97.6,0.496
23.68,32129.9,35202.0,0.6806,0.4958,139.4,97.6,0.496
23.7,32174.2,35406.5,0.9132,0.9998,139.4,97.6,0.496
23.72,32335.0,35744.7,1.7581,1.8334,139.4,97.6,0.496
23.74,32409.9,35772.4,2.1515,1.9018,139.4,97.6,0.496
23.76,32284.5,35602.2,1.4929,1.4822,139.4,97.6,0.496
23.78,32166.3,35412.5,0.8719,1.0146,139.4,97.6,0.496
23.8,32112.3,35251.0,0.5878,0.6166,139.4,97.6,0.496
23.82,32133.9,35168.1,0.7016,0.4121,139.4,97.6,0.496
23.84,32061.9,35094.5,0.3232,0.2309,139.4,97.6,0.496
23.86,31965.5,35051.3,-0.1832,0.1244,139.4,97.6,0.496
23.88,32012.8,34951.3,0.0652,-0.1222,139.4,97.6,0.496
23.9,31918.9,34966.9,-0.4279,-0.0836,139.4,97.6,0.496
23.92,31892.2,34768.1,-0.568,-0.5736,139.4,97.6,0.496
23.94,31823.4,34642.1,-0.9298,-0.8841,139.4,97.6,0.496
23.96,31818.4,34659.5,-0.9559,-0.8414,139.4,97.6,0.496
23.98,31904.0,34606.4,-0.506,-0.9723,139.4,97.6,0.496
24.0,31866.0,34612.0,-0.7057,-0.9583,139.4,97.6,0.496
24.02,31718.1,34474.4,-1.4826,-1.2975,139.4,97.6,0.496
24.04,31647.3,34478.2,-1.8547,-1.2882,139.4,97.6,0.496
24.06,31765.8,34478.9,-1.2325,-1.2865,139.4,97.6,0.496
24.08,31752.4,34731.3,-1.3025,-0.6644,139.4,97.6,0.496
24.1,31994.0,35025.6,-0.0336,0.0611,139.4,97.6,0.496
24.12,32138.3,35249.6,0.7244,0.6132,139.4,97.6,0.496
24.14,32227.2,35657.9,1.1918,1.6195,139.4,97.6,0.496
24.16,32388.3,35720.5,2.0382,1.7738,139.4,97.6,0.496
24.18,32391.7,35688.4,2.0559,1.6947,139.4,97.6,0.496
24.2,32211.6,35583.5,1.1099,1.4361,139.4,97.6,0.496
24.22,32009.5,35392.9,0.0481,0.9664,139.4,97.6,0.496
24.24,32081.9,35155.7,0.4282,0.3818,139.4,97.6,0.496
24.26,32114.5,35091.6,0.5997,0.2237,139.4,97.6,0.496
24.28,32069.0,35067.7,0.3607,0.1648,139.4,97.6,0.496
24.3,32056.7,35026.6,0.2958,0.0634,139.4,97.6,0.496
24.32,32047.4,34855.4,0.2474,-0.3584,139.4,97.6,0.496
24.34,31888.1,34883.4,-0.5898,-0.2894,139.4,97.6,0.496
24.36,31840.7,34673.2,-0.8386,-0.8074,139.4,97.6,0.496
24.38,31822.2,34716.2,-0.9359,-0.7017,139.4,97.6,0.496
24.4,31878.7,34652.1,-0.639,-0.8596,139.4,97.6,0.496
24.42,31817.0,34684.9,-0.9634,-0.7788,139.4,97.6,0.496
24.44,31745.9,34583.0,-1.3371,-1.0298,139.4,97.6,0.496
24.46,31824.0,34518.8,-0.9267,-1.1882,139.4,97.6,0.496
24.48,31715.0,34469.8,-1.4989,-1.3088,139.4,97.6,0.496
24.5,31837.4,34534.6,-0.856,-1.1493,139.4,97.6,0.496
24.52,31938.5,34779.2,-0.3249,-0.5464,139.4,97.6,0.496
24.54,32063.0,35088.4,0.3292,0.2159,139.4,97.6,0.496
24.56,32143.7,35564.0,0.7532,1.3881,139.4,97.6,0.496
24.58,32435.5,35688.8,2.2858,1.6956,139.4,97.6,0.496
24.6,32353.3,35829.8,1.8543,2.0432,139.4,97.6,0.496
24.62,32196.5,35635.7,1.0307,1.5648,139.4,97.6,0.496
24.64,32286.2,35433.6,1.5014,1.0667,139.4,97.6,0.496
24.66,32113.6,35212.1,0.5948,0.5208,139.4,97.6,0.496
24.68,32086.2,35222.7,0.4508,0.5467,139.4,97.6,0.496
24.7,32063.8,35125.2,0.3334,0.3065,139.4,97.6,0.496
24.72,32042.1,35032.9,0.2192,0.079,139.4,97.6,0.496
24.74,32005.5,34973.2,0.0271,-0.0681,139.4,97.6,0.496
24.76,31937.1,34884.4,-0.3322,-0.287,139.4,97.6,0.496
24.78,31896.3,34709.7,-0.5468,-0.7175,139.4,97.6,0.496
24.8,31831.3,34755.4,-0.8884,-0.6049,139.4,97.6,0.496
24.82,31904.1,34649.5,-0.5058,-0.8659,139.4,97.6,0.496
24.84,31807.3,34633.4,-1.0144,-0.9058,139.4,97.6,0.496
24.86,31841.3,34596.2,-0.8357,-0.9974,139.4,97.6,0.496
24.88,31747.4,34528.2,-1.3291,-1.1649,139.4,97.6,0.496
24.9,31725.6,34473.0,-1.4435,-1.301,139.4,97.6,0.496
24.92,31803.7,34504.6,-1.0331,-1.2231,139.4,97.6,0.496
24.94,31821.9,34591.4,-0.9374,-1.0093,139.4,97.6,0.496
24.96,32013.2,34884.7,0.0675,-0.2863,139.4,97.6,0.496
24.98,32059.2,35290.1,0.309,0.7129,139.4,97.6,0.496
25.0,32282.0,35700.6,1.4793,1.7247,139.4,97.6,0.496
25.02,32344.8,35746.8,1.8097,1.8386,139.4,97.6,0.496
25.04,32320.9,35678.0,1.6837,1.6691,139.4,97.6,0.496
25.06,32298.0,35514.3,1.5638,1.2655,139.4,97.6,0.496
25.08,32205.4,35457.6,1.0771,1.1257,139.4,97.6,0.496
25.1,32086.5,35213.5,0.4525,0.5241,139.4,97.6,0.496
25.12,32072.9,35037.6,0.3811,0.0906,139.4,97.6,0.496
25.14,32020.0,35150.2,0.1034,0.3682,139.4,97.6,0.496
25.16,31958.2,35020.7,-0.2213,0.049,139.4,97.6,0.496
25.18,31933.1,34915.1,-0.3534,-0.2112,139.4,97.6,0.496
25.2,31994.3,34803.5,-0.032,-0.4864,139.4,97.6,0.496
25.22,31843.8,34835.9,-0.8224,-0.4065,139.4,97.6,0.496
25.24,31900.2,34730.2,-0.5265,-0.6671,139.4,97.6,0.496
25.26,31857.7,34572.6,-0.7496,-1.0554,139.4,97.6,0.496
25.28,31911.9,34670.5,-0.4647,-0.8142,139.4,97.6,0.496
25.3,31818.5,34611.2,-0.9553,-0.9603,139.4,97.6,0.496
25.32,31724.4,34494.7,-1.4497,-1.2476,139.4,97.6,0.496
25.34,31736.7,34511.9,-1.3852,-1.2052,139.4,97.6,0.496
25.36,31785.9,34526.2,-1.1265,-1.1699,139.4,97.6,0.496
25.38,31859.2,34834.6,-0.7417,-0.4099,139.4,97.6,0.496
25.4,31952.3,35060.1,-0.2527,0.1462,139.4,97.6,0.496
25.42,32159.6,35442.2,0.8366,1.0877,139.4,97.6,0.496
25.44,32355.6,35635.6,1.8663,1.5646,139.4,97.6,0.496
25.46,32367.0,35822.4,1.9263,2.025,139.4,97.6,0.496
25.48,32320.9,35616.3,1.6838,1.5169,139.4,97.6,0.496
25.5,32232.3,35403.5,1.2182,0.9924,139.4,97.6,0.496
25.52,32160.7,35255.8,0.8424,0.6284,139.4,97.6,0.496
25.54,32109.9,35068.4,0.5756,0.1665,139.4,97.6,0.496
25.56,32094.2,35137.8,0.4932,0.3375,139.4,97.6,0.496
25.58,32056.2,35050.1,0.2935,0.1213,139.4,97.6,0.496
25.6,31973.2,34965.1,-0.1425,-0.088,139.4,97.6,0.496
25.62,31936.9,34945.9,-0.3333,-0.1354,139.4,97.6,0.496
25.64,31909.1,34787.9,-0.4794,-0.5249,139.4,97.6,0.496
25.66,31752.3,34677.5,-1.3034,-0.7969,139.4,97.6,0.496
25.68,31944.2,34684.2,-0.295,-0.7805,139.4,97.6,0.496
25.7,31855.8,34662.7,-0.7593,-0.8333,139.4,97.6,0.496
25.72,31847.2,34605.1,-0.8044,-0.9753,139.4,97.6,0.496
25.74,31794.9,34559.6,-1.0791,-1.0877,139.4,97.6,0.496
25.76,31739.9,34392.8,-1.3682,-1.4987,139.4,97.6,0.496
25.78,31710.6,34530.4,-1.5221,-1.1595,139.4,97.6,0.496
25.8,31835.8,34586.6,-0.8644,-1.021,139.4,97.6,0.496
25.82,32031.9,34901.9,0.1657,-0.2439,139.4,97.6,0.496
25.84,32112.3,35261.0,0.5883,0.6411,139.4,97.6,0.496
25.86,32320.9,35625.9,1.6841,1.5405,139.4,97.6,0.496
25.88,32298.8,35802.5,1.568,1.976,139.4,97.6,0.496
25.9,32314.9,35686.6,1.6525,1.6903,139.4,97.6,0.496
25.92,32256.9,35493.2,1.3475,1.2136,139.4,97.6,0.496
25.94,32233.6,35360.4,1.2254,0.8863,139.4,97.6,0.496
25.96,32061.3,35274.0,0.3201,0.6732,139.4,97.6,0.496
25.98,32023.4,35060.2,0.1212,0.1462,139.4,97.6,0.496
26.0,32083.0,35134.5,0.4342,0.3295,139.4,97.6,0.496
26.02,32086.1,34928.8,0.4504,-0.1775,139.4,97.6,0.496
26.04,31980.8,34986.5,-0.1028,-0.0354,139.4,97.6,0.496
26.06,31960.0,34874.8,-0.2119,-0.3106,139.4,97.6,0.496
26.08,31983.0,34764.8,-0.0914,-0.5817,139.4,97.6,0.496
26.1,31810.1,34777.2,-0.9994,-0.5512,139.4,97.6,0.496
26.12,31784.9,34613.6,-1.1317,-0.9545,139.4,97.6,0.496
26.14,31854.5,34665.1,-0.7661,-0.8276,139.4,97.6,0.496
26.16,31780.8,34563.0,-1.1534,-1.0792,139.4,97.6,0.496
26.18,31837.5,34551.6,-0.8559,-1.1074,139.4,97.6,0.496
26.2,31761.9,34488.5,-1.2529,-1.2627,139.4,97.6,0.496
26.22,31732.4,34473.8,-1.4077,-1.2991,139.4,97.6,0.496
26.24,31866.2,34726.4,-0.7051,-0.6765,139.4,97.6,0.496
26.26,32051.7,35129.7,0.2696,0.3177,139.4,97.6,0.496
26.28,32155.5,35409.2,0.815,1.0065,139.4,97.6,0.496
26.3,32369.8,35708.3,1.9407,1.7437,139.4,97.6,0.496
26.32,32407.6,35731.2,2.1395,1.8002,139.4,97.6,0.496
26.34,32252.4,35675.2,1.3242,1.6621,139.4,97.6,0.496
26.36,32175.3,35423.8,0.9189,1.0425,139.4,97.6,0.496
26.38,32071.4,35300.1,0.3731,0.7375,139.4,97.6,0.496
26.4,32091.4,35074.6,0.4784,0.1817,139.4,97.6,0.496
26.42,32049.3,35117.4,0.2571,0.2873,139.4,97.6,0.496
26.44,32082.5,34986.6,0.4318,-0.0352,139.4,97.6,0.496
26.46,31990.6,35043.0,-0.0515,0.1039,139.4,97.6,0.496
26.48,31883.1,34785.7,-0.6162,-0.5303,139.4,97.6,0.496
26.5,31913.4,34787.1,-0.4568,-0.5269,139.4,97.6,0.496
26.52,31888.1,34694.8,-0.5897,-0.7544,139.4,97.6,0.496
26.54,31812.3,34663.3,-0.9878,-0.832,139.4,97.6,0.496
26.56,31770.3,34728.3,-1.2087,-0.6718,139.4,97.6,0.496
26.58,31741.4,34649.7,-1.3606,-0.8655,139.4,97.6,0.496
26.6,31688.6,34574.9,-1.6378,-1.0497,139.4,97.6,0.496
26.62,31804.2,34492.3,-1.0304,-1.2535,139.4,97.6,0.496
26.64,31824.2,34429.9,-0.9254,-1.4072,139.4,97.6,0.496
26.66,31812.8,34602.2,-0.9854,-0.9826,139.4,97.6,0.496
26.68,31901.0,34975.0,-0.5221,-0.0636,139.4,97.6,0.496
26.7,32033.6,35231.5,0.1746,0.5684,139.4,97.6,0.496
26.72,32107.1,35513.4,0.5608,1.2634,139.4,97.6,0.496
26.74,32293.3,35784.1,1.5387,1.9306,139.4,97.6,0.496
26.76,32443.8,35687.1,2.3295,1.6914,139.4,97.6,0.496
26.78,32272.5,35575.1,1.4297,1.4155,139.4,97.6,0.496
26.8,32093.6,35364.9,0.4896,0.8973,139.4,97.6,0.496
26.82,32051.8,35314.3,0.2701,0.7727,139.4,97.6,0.496
26.84,32075.9,35127.4,0.3967,0.312,139.4,97.6,0.496
26.86,32045.2,35038.9,0.2354,0.0937,139.4,97.6,0.496
26.88,32022.7,35080.8,0.1171,0.197,139.4,97.6,0.496
26.9,32005.8,35004.2,0.0284,0.0083,139.4,97.6,0.496
26.92,31957.8,34753.9,-0.2234,-0.6086,139.4,97.6,0.496
26.94,31915.1,34671.7,-0.4477,-0.8113,139.4,97.6,0.496
26.96,31985.2,34624.1,-0.0798,-0.9286,139.4,97.6,0.496
26.98,31912.1,34654.9,-0.4638,-0.8528,139.4,97.6,0.496
27.0,31905.0,34663.9,-0.5009,-0.8305,139.4,97.6,0.496
27.02,31862.2,34641.8,-0.7258,-0.885,139.4,97.6,0.496
27.04,31768.8,34503.4,-1.2167,-1.2261,139.4,97.6,0.496
27.06,31719.4,34524.3,-1.4758,-1.1746,139.4,97.6,0.496
27.08,31808.4,34498.8,-1.0086,-1.2373,139.4,97.6,0.496
27.1,31931.2,34696.8,-0.3634,-0.7495,139.4,97.6,0.496
27.12,32049.0,35019.5,0.2557,0.046,139.4,97.6,0.496
27.14,32215.0,35435.3,1.1276,1.0707,139.4,97.6,0.496
27.16,32320.1,35607.4,1.6796,1.4951,139.4,97.6,0.496
27.18,32341.5,35747.9,1.7921,1.8412,139.4,97.6,0.496
27.2,32262.6,35619.6,1.3776,1.5251,139.4,97.6,0.496
27.22,32249.5,35522.3,1.3087,1.2853,139.4,97.6,0.496
27.24,32146.8,35287.2,0.7694,0.7058,139.4,97.6,0.496
27.26,32100.6,35079.9,0.5264,0.1948,139.4,97.6,0.496
27.28,32087.7,35080.7,0.4586,0.1969,139.4,97.6,0.496
27.3,32066.1,35070.4,0.3455,0.1713,139.4,97.6,0.496
27.32,31972.4,35023.6,-0.1467,0.056,139.4,97.6,0.496
27.34,31946.7,34910.4,-0.2819,-0.223,139.4,97.6,0.496
27.36,31911.0,34781.0,-0.4694,-0.5417,139.4,97.6,0.496
27.38,31873.3,34774.1,-0.6675,-0.5589,139.4,97.6,0.496
27.4,31801.7,34681.4,-1.0434,-0.7873,139.4,97.6,0.496
27.42,31771.2,34650.4,-1.2037,-0.8637,139.4,97.6,0.496
27.44,31844.6,34543.8,-0.8183,-1.1265,139.4,97.6,0.496
27.46,31794.1,34584.0,-1.0834,-1.0275,139.4,97.6,0.496
27.48,31751.3,34524.1,-1.3084,-1.175,139.4,97.6,0.496
27.5,31808.6,34450.7,-1.0073,-1.3559,139.4,97.6,0.496
27.52,31888.4,34600.2,-0.5882,-0.9874,139.4,97.6,0.496
27.54,31947.2,34814.6,-0.279,-0.4589,139.4,97.6,0.496
27.56,32118.2,35276.0,0.619,0.6783,139.4,97.6,0.496
27.58,32224.5,35569.2,1.1776,1.4009,139.4,97.6,0.496
27.6,32363.3,35688.8,1.9069,1.6957,139.4,97.6,0.496
27.62,32369.9,35839.5,1.9415,2.067,139.4,97.6,0.496
27.64,32296.4,35644.1,1.555,1.5855,139.4,97.6,0.496
27.66,32069.8,35406.0,0.3648,0.9986,139.4,97.6,0.496
27.68,32064.9,35093.2,0.339,0.2276,139.4,97.6,0.496
27.7,32053.8,35137.5,0.2807,0.3369,139.4,97.6,0.496
27.72,31986.2,35053.8,-0.0744,0.1306,139.4,97.6,0.496
27.74,31985.7,35089.1,-0.0768,0.2176,139.4,97.6,0.496
27.76,31924.0,35005.0,-0.4014,0.0102,139.4,97.6,0.496
27.78,31995.4,34787.0,-0.0259,-0.5272,139.4,97.6,0.496
27.8,31829.4,34748.6,-0.8984,-0.6216,139.4,97.6,0.496
27.82,31881.9,34632.9,-0.6223,-0.9069,139.4,97.6,0.496
27.84,31854.9,34747.3,-0.7643,-0.6248,139.4,97.6,0.496
27.86,31945.3,34617.8,-0.289,-0.944,139.4,97.6,0.496
27.88,31814.8,34654.5,-0.975,-0.8538,139.4,97.6,0.496
27.9,31851.0,34556.0,-0.7849,-1.0964,139.4,97.6,0.496
27.92,31756.2,34479.4,-1.2828,-1.2853,139.4,97.6,0.496
27.94,31705.8,34497.2,-1.5473,-1.2414,139.4,97.6,0.496
27.96,31795.1,34809.5,-1.0785,-0.4717,139.4,97.6,0.496
27.98,32038.5,34925.4,0.2001,-0.186,139.4,97.6,0.496
28.0,32244.5,35375.4,1.2823,0.9233,139.4,97.6,0.496
28.02,32406.6,35736.4,2.1339,1.8128,139.4,97.6,0.496
28.04,32397.6,35749.9,2.0867,1.8463,139.4,97.6,0.496
28.06,32327.3,35775.3,1.7174,1.9089,139.4,97.6,0.496
28.08,32223.6,35575.4,1.1729,1.416,139.4,97.6,0.496
28.1,32123.8,35322.7,0.6484,0.7934,139.4,97.6,0.496
28.12,32128.2,35148.9,0.6716,0.3649,139.4,97.6,0.496
28.14,32061.8,35186.0,0.3228,0.4564,139.4,97.6,0.496
28.16,32038.4,35069.6,0.1997,0.1693,139.4,97.6,0.496
28.18,31941.2,34974.3,-0.3109,-0.0654,139.4,97.6,0.496
28.2,31921.9,34911.2,-0.4123,-0.221,139.4,97.6,0.496
28.22,31856.4,34823.4,-0.7561,-0.4374,139.4,97.6,0.496
28.24,31852.4,34703.2,-0.7771,-0.7335,139.4,97.6,0.496
28.26,31793.6,34613.5,-1.0864,-0.9548,139.4,97.6,0.496
28.28,31856.5,34681.6,-0.7556,-0.7868,139.4,97.6,0.496
28.3,31768.4,34702.9,-1.2184,-0.7343,139.4,97.6,0.496
28.32,31808.3,34515.2,-1.0091,-1.1971,139.4,97.6,0.496
28.34,31825.8,34480.2,-0.9169,-1.2832,139.4,97.6,0.496
28.36,31753.3,34409.0,-1.2978,-1.4588,139.4,97.6,0.496
28.38,31729.1,34549.3,-1.4248,-1.1129,139.4,97.6,0.496
28.4,31928.8,34860.4,-0.3758,-0.3461,139.4,97.6,0.496
28.42,32061.6,35167.8,0.3218,0.4115,139.4,97.6,0.496
28.44,32253.8,35531.5,1.3313,1.308,139.4,97.6,0.496
28.46,32275.4,35687.5,1.445,1.6925,139.4,97.6,0.496
28.48,32342.2,35724.9,1.7956,1.7845,139.4,97.6,0.496
28.5,32304.4,35638.6,1.5973,1.572,139.4,97.6,0.496
28.52,32190.5,35450.2,0.9986,1.1077,139.4,97.6,0.496
28.54,32082.5,35248.3,0.4313,0.6098,139.4,97.6,0.496
28.56,32065.0,35064.8,0.3396,0.1577,139.4,97.6,0.496
28.58,32057.0,35107.7,0.2974,0.2633,139.4,97.6,0.496
28.6,32045.1,35063.6,0.235,0.1546,139.4,97.6,0.496
28.62,32098.8,34879.8,0.517,-0.2984,139.4,97.6,0.496
28.64,31924.1,34881.5,-0.4006,-0.2942,139.4,97.6,0.496
28.66,31886.4,34764.1,-0.5985,-0.5836,139.4,97.6,0.496
28.68,31847.7,34642.8,-0.802,-0.8826,139.4,97.6,0.496
28.7,31858.3,34735.1,-0.7463,-0.655,139.4,97.6,0.496
28.72,31809.5,34589.8,-1.0027,-1.013,139.4,97.6,0.496
28.74,31784.3,34533.2,-1.1352,-1.1527,139.4,97.6,0.496
28.76,31844.5,34564.5,-0.8186,-1.0756,139.4,97.6,0.496
28.78,31718.7,34396.0,-1.4799,-1.4909,139.4,97.6,0.496
28.8,31774.1,34469.5,-1.1884,-1.3097,139.4,97.6,0.496
28.82,31816.6,34680.1,-0.9656,-0.7906,139.4,97.6,0.496
28.84,31938.7,35092.5,-0.3238,0.2259,139.4,97.6,0.496
28.86,32222.5,35343.9,1.1672,0.8455,139.4,97.6,0.496
28.88,32269.7,35563.1,1.4149,1.3858,139.4,97.6,0.496
28.9,32243.3,35672.8,1.2761,1.6562,139.4,97.6,0.496
28.92,32223.4,35720.9,1.172,1.7747,139.4,97.6,0.496
28.94,32212.2,35469.7,1.113,1.1555,139.4,97.6,0.496
28.96,32178.2,35320.0,0.9345,0.7866,139.4,97.6,0.496
28.98,32066.7,35202.3,0.3487,0.4965,139.4,97.6,0.496
29.0,32041.3,35126.3,0.2151,0.3091,139.4,97.6,0.496
29.02,32037.5,35136.0,0.1949,0.3331,139.4,97.6,0.496
29.04,32034.4,35090.7,0.1786,0.2216,139.4,97.6,0.496
29.06,31981.4,34982.1,-0.0996,-0.0463,139.4,97.6,0.496
29.08,31905.0,34780.3,-0.5012,-0.5435,139.4,97.6,0.496
29.1,31884.8,34752.7,-0.6071,-0.6116,139.4,97.6,0.496
29.12,31803.9,34758.5,-1.0323,-0.5974,139.4,97.6,0.496
29.14,31836.4,34674.7,-0.8613,-0.8039,139.4,97.6,0.496
29.16,31768.7,34579.6,-1.2171,-1.0383,139.4,97.6,0.496
29.18,31787.9,34573.0,-1.1161,-1.0545,139.4,97.6,0.496
29.2,31812.4,34566.2,-0.9875,-1.0712,139.4,97.6,0.496
29.22,31771.6,34483.1,-1.2017,-1.276,139.4,97.6,0.496
29.24,31724.0,34531.8,-1.4516,-1.1561,139.4,97.6,0.496
29.26,31853.1,34899.4,-0.7737,-0.2499,139.4,97.6,0.496
29.28,32141.2,35271.0,0.7401,0.6658,139.4,97.6,0.496
29.3,32193.4,35570.8,1.0142,1.4047,139.4,97.6,0.496
29.32,32327.7,35843.8,1.7194,2.0776,139.4,97.6,0.496
29.34,32297.0,35724.1,1.5585,1.7828,139.4,97.6,0.496
29.36,32339.5,35662.7,1.7819,1.6314,139.4,97.6,0.496
29.38,32211.4,35466.9,1.1088,1.1487,139.4,97.6,0.496
29.4,32083.8,35265.5,0.4381,0.6523,139.4,97.6,0.496
29.42,32090.4,35110.9,0.4729,0.2713,139.4,97.6,0.496
29.44,32115.8,35151.3,0.6066,0.3708,139.4,97.6,0.496
29.46,32010.0,35099.9,0.0508,0.2442,139.4,97.6,0.496
29.48,32021.5,34953.0,0.111,-0.1179,139.4,97.6,0.496
29.5,31989.2,34877.7,-0.0585,-0.3036,139.4,97.6,0.496
29.52,31939.2,34791.8,-0.3216,-0.5153,139.4,97.6,0.496
29.54,31841.2,34673.4,-0.8364,-0.8072,139.4,97.6,0.496
29.56,31879.4,34622.3,-0.6355,-0.9331,139.4,97.6,0.496
29.58,31825.9,34602.5,-0.9165,-0.9818,139.4,97.6,0.496
29.6,31765.4,34565.3,-1.2344,-1.0734,139.4,97.6,0.496
29.62,31853.5,34519.0,-0.7715,-1.1877,139.4,97.6,0.496
29.64,31808.4,34423.8,-1.0086,-1.4224,139.4,97.6,0.496
29.66,31758.0,34405.0,-1.2731,-1.4686,139.4,97.6,0.496
29.68,31902.1,34684.9,-0.5161,-0.7786,139.4,97.6,0.496
29.7,31925.7,34985.9,-0.3922,-0.0367,139.4,97.6,0.496
29.72,32115.7,35359.1,0.6057,0.8829,139.4,97.6,0.496
29.74,32355.7,35636.6,1.8666,1.5669,139.4,97.6,0.496
29.76,32309.5,35814.6,1.6241,2.0056,139.4,97.6,0.496
29.78,32327.0,35749.0,1.7159,1.8441,139.4,97.6,0.496
29.8,32142.9,35511.9,0.7491,1.2597,139.4,97.6,0.496
29.82,32232.0,35299.8,1.2168,0.7368,139.4,97.6,0.496
29.84,32079.5,35100.7,0.4158,0.2461,139.4,97.6,0.496
29.86,32036.4,35041.8,0.1895,0.1009,139.4,97.6,0.496
29.88,32076.0,35028.4,0.3972,0.068,139.4,97.6,0.496
29.9,32058.6,34950.4,0.3061,-0.1243,139.4,97.6,0.496
29.92,31965.0,34833.3,-0.186,-0.413,139.4,97.6,0.496
29.94,31824.0,34709.8,-0.9263,-0.7173,139.4,97.6,0.496
29.96,31851.0,34630.8,-0.7849,-0.9121,139.4,97.6,0.496
29.98,31806.9,34686.0,-1.0164,-0.776,139.4,97.6,0.496
30.0,31858.2,34700.8,-0.7471,-0.7394,139.4,97.6,0.496
30.02,31830.8,34597.1,-0.8907,-0.995,139.4,97.6,0.496
30.04,31721.6,34573.5,-1.4645,-1.0532,139.4,97.6,0.496
30.06,31696.0,34479.5,-1.5987,-1.2851,139.4,97.6,0.496
30.08,31777.3,34554.8,-1.1717,-1.0995,139.4,97.6,0.496
30.1,31816.6,34561.3,-0.9652,-1.0835,139.4,97.6,0.496
30.12,31921.7,34858.0,-0.4132,-0.352,139.4,97.6,0.496
30.14,32080.1,35157.4,0.4188,0.3859,139.4,97.6,0.496
30.16,32227.5,35484.5,1.193,1.1921,139.4,97.6,0.496
30.18,32312.6,35740.0,1.6402,1.8219,139.4,97.6,0.496
30.2,32321.2,35779.6,1.6857,1.9194,139.4,97.6,0.496
30.22,32186.8,35598.0,0.9795,1.4719,139.4,97.6,0.496
30.24,32237.4,35476.9,1.2454,1.1734,139.4,97.6,0.496
30.26,32099.7,35334.1,0.5218,0.8214,139.4,97.6,0.496
30.28,32078.4,35151.8,0.4099,0.372,139.4,97.6,0.496
30.3,32000.0,35025.4,-0.0017,0.0606,139.4,97.6,0.496
30.32,31950.9,35127.3,-0.2601,0.3116,139.4,97.6,0.496
30.34,31971.1,34980.1,-0.154,-0.0512,139.4,97.6,0.496
30.36,31939.4,34875.3,-0.3205,-0.3093,139.4,97.6,0.496
30.38,31884.3,34784.6,-0.6098,-0.533,139.4,97.6,0.496
30.4,31908.0,34642.4,-0.4853,-0.8834,139.4,97.6,0.496
30.42,31725.8,34696.6,-1.4425,-0.7498,139.4,97.6,0.496
30.44,31806.4,34608.2,-1.0188,-0.9678,139.4,97.6,0.496
30.46,31852.0,34596.9,-0.7794,-0.9957,139.4,97.6,0.496
30.48,31881.7,34477.2,-0.6232,-1.2907,139.4,97.6,0.496
30.5,31709.7,34470.4,-1.5272,-1.3075,139.4,97.6,0.496
30.52,31782.9,34467.1,-1.1426,-1.3156,139.4,97.6,0.496
30.54,31818.6,34653.3,-0.9547,-0.8566,139.4,97.6,0.496
30.56,31918.9,34967.0,-0.4278,-0.0834,139.4,97.6,0.496
30.58,32202.1,35352.5,1.0596,0.8667,139.4,97.6,0.496
30.6,32261.1,35556.1,1.3699,1.3685,139.4,97.6,0.496
30.62,32367.8,35821.6,1.9305,2.0228,139.4,97.6,0.496
30.64,32257.1,35604.8,1.3487,1.4886,139.4,97.6,0.496
30.66,32181.4,35529.3,0.9509,1.3025,139.4,97.6,0.496
30.68,32179.9,35345.3,0.9432,0.8489,139.4,97.6,0.496
30.7,32061.0,35207.4,0.3185,0.509,139.4,97.6,0.496
30.72,32106.4,35048.3,0.5569,0.117,139.4,97.6,0.496
30.74,32050.9,35105.4,0.2654,0.2577,139.4,97.6,0.496
30.76,32017.9,35068.1,0.0923,0.1658,139.4,97.6,0.496
30.78,32004.1,34903.1,0.0197,-0.2409,139.4,97.6,0.496
30.8,31938.3,34817.7,-0.326,-0.4514,139.4,97.6,0.496
30.82,31819.3,34682.7,-0.9513,-0.7841,139.4,97.6,0.496
30.84,31751.1,34565.1,-1.3096,-1.0741,139.4,97.6,0.496
30.86,31801.2,34622.9,-1.0463,-0.9316,139.4,97.6,0.496
30.88,31867.1,34667.5,-0.7003,-0.8215,139.4,97.6,0.496
30.9,31815.1,34644.2,-0.9732,-0.8789,139.4,97.6,0.496
30.92,31778.8,34466.3,-1.1637,-1.3174,139.4,97.6,0.496
30.94,31760.5,34428.4,-1.2599,-1.411,139.4,97.6,0.496
30.96,31802.0,34506.5,-1.042,-1.2184,139.4,97.6,0.496
30.98,31884.6,34823.7,-0.6083,-0.4366,139.4,97.6,0.496
31.0,32055.2,35131.6,0.288,0.3223,139.4,97.6,0.496
31.02,32172.4,35571.0,0.9037,1.4053,139.4,97.6,0.496
31.04,32366.7,35650.3,1.9248,1.6007,139.4,97.6,0.496
31.06,32415.6,35790.9,2.1814,1.9472,139.4,97.6,0.496
31.08,32269.2,35504.1,1.4124,1.2403,139.4,97.6,0.496
31.1,32217.6,35373.6,1.1413,0.9188,139.4,97.6,0.496
31.12,32144.5,35309.6,0.7573,0.7611,139.4,97.6,0.496
31.14,32116.2,35209.2,0.6085,0.5135,139.4,97.6,0.496
31.16,32076.1,35170.4,0.3978,0.418,139.4,97.6,0.496
31.18,32046.0,35099.4,0.2397,0.243,139.4,97.6,0.496
31.2,31940.7,34931.4,-0.3134,-0.1711,139.4,97.6,0.496
31.22,31939.8,34891.2,-0.3183,-0.2704,139.4,97.6,0.496
31.24,31933.9,34816.2,-0.3493,-0.4551,139.4,97.6,0.496
31.26,31805.8,34693.2,-1.0222,-0.7583,139.4,97.6,0.496
31.28,31778.8,34675.3,-1.1638,-0.8023,139.4,97.6,0.496
31.3,31824.5,34690.0,-0.9239,-0.7662,139.4,97.6,0.496
31.32,31865.5,34577.7,-0.7086,-1.0431,139.4,97.6,0.496
31.34,31758.9,34526.4,-1.2684,-1.1694,139.4,97.6,0.496
31.36,31714.3,34446.8,-1.5027,-1.3656,139.4,97.6,0.496
31.38,31747.4,34438.1,-1.3291,-1.387,139.4,97.6,0.496
31.4,31829.9,34650.9,-0.8954,-0.8625,139.4,97.6,0.496
31.42,31946.5,34954.9,-0.283,-0.1133,139.4,97.6,0.496
31.44,32221.9,35303.0,1.1637,0.7448,139.4,97.6,0.496
31.46,32329.0,35581.1,1.7266,1.4301,139.4,97.6,0.496
31.48,32393.3,35686.0,2.0641,1.6887,139.4,97.6,0.496
31.5,32332.3,35745.7,1.7436,1.8358,139.4,97.6,0.496
31.52,32316.8,35558.5,1.6626,1.3745,139.4,97.6,0.496
31.54,32201.4,35320.9,1.056,0.789,139.4,97.6,0.496
31.56,32210.1,35143.6,1.1019,0.3518,139.4,97.6,0.496
31.58,32108.9,35195.9,0.5703,0.4807,139.4,97.6,0.496
31.6,32004.2,35066.1,0.0202,0.1609,139.4,97.6,0.496
31.62,31995.5,35029.8,-0.0257,0.0714,139.4,97.6,0.496
31.64,32104.6,34982.9,0.5474,-0.0443,139.4,97.6,0.496
31.66,31808.3,34810.8,-1.0088,-0.4683,139.4,97.6,0.496
31.68,31883.3,34731.9,-0.6152,-0.6629,139.4,97.6,0.496
31.7,31863.9,34659.5,-0.717,-0.8414,139.4,97.6,0.496
31.72,31801.5,34667.0,-1.0446,-0.8229,139.4,97.6,0.496
31.74,31788.5,34653.3,-1.113,-0.8565,139.4,97.6,0.496
31.76,31800.3,34596.2,-1.0509,-0.9972,139.4,97.6,0.496
31.78,31768.9,34492.8,-1.2159,-1.2522,139.4,97.6,0.496
31.8,31816.3,34465.3,-0.967,-1.32,139.4,97.6,0.496
31.82,31891.3,34485.7,-0.5729,-1.2698,139.4,97.6,0.496
31.84,31915.4,34784.0,-0.4466,-0.5346,139.4,97.6,0.496
31.86,32152.8,35133.0,0.8009,0.3256,139.4,97.6,0.496
31.88,32276.7,35442.6,1.4515,1.0889,139.4,97.6,0.496
31.9,32306.1,35702.9,1.6063,1.7304,139.4,97.6,0.496
31.92,32403.0,35736.0,2.1154,1.8121,139.4,97.6,0.496
31.94,32271.1,35707.3,1.4223,1.7412,139.4,97.6,0.496
31.96,32255.3,35496.6,1.3393,1.2219,139.4,97.6,0.496
31.98,32138.9,35224.8,0.7277,0.552,139.4,97.6,0.496
32.0,32100.9,35119.1,0.5281,0.2916,139.4,97.6,0.496
32.02,32025.9,35073.4,0.1341,0.1789,139.4,97.6,0.496
32.04,31953.8,35020.3,-0.2444,0.048,139.4,97.6,0.496
32.06,31984.2,35059.6,-0.0848,0.1448,139.4,97.6,0.496
32.08,31969.2,34911.5,-0.1639,-0.2203,139.4,97.6,0.496
32.1,31794.8,34762.8,-1.08,-0.5866,139.4,97.6,0.496
32.12,31838.8,34697.8,-0.8485,-0.747,139.4,97.6,0.496
32.14,31809.6,34672.7,-1.0022,-0.8088,139.4,97.6,0.496
32.16,31787.1,34671.9,-1.1205,-0.8108,139.4,97.6,0.496
32.18,31801.2,34625.2,-1.0465,-0.9259,139.4,97.6,0.496
32.2,31787.5,34501.1,-1.118,-1.2318,139.4,97.6,0.496
32.22,31730.2,34369.7,-1.4194,-1.5556,139.4,97.6,0.496
32.24,31775.7,34417.3,-1.1801,-1.4384,139.4,97.6,0.496
32.26,31782.8,34540.2,-1.143,-1.1355,139.4,97.6,0.496
32.28,31958.2,34888.2,-0.2216,-0.2777,139.4,97.6,0.496
32.3,32155.8,35255.6,0.8166,0.6278,139.4,97.6,0.496
32.32,32247.2,35602.1,1.2967,1.482,139.4,97.6,0.496
32.34,32331.1,35716.0,1.7374,1.7627,139.4,97.6,0.496
32.36,32408.3,35689.2,2.1429,1.6967,139.4,97.6,0.496
32.38,32242.4,35555.8,1.2717,1.3678,139.4,97.6,0.496
32.4,32095.5,35399.4,0.4996,0.9823,139.4,97.6,0.496
32.42,32012.3,35231.2,0.0625,0.5677,139.4,97.6,0.496
32.44,31967.5,35143.0,-0.1727,0.3503,139.4,97.6,0.496
32.46,32112.2,35120.8,0.5875,0.2957,139.4,97.6,0.496
32.48,31989.9,35051.0,-0.0548,0.1235,139.4,97.6,0.496
32.5,31953.2,35033.5,-0.2477,0.0806,139.4,97.6,0.496
32.52,31873.1,34854.4,-0.6688,-0.361,139.4,97.6,0.496
32.54,31917.1,34743.6,-0.4373,-0.6339,139.4,97.6,0.496
32.56,31874.5,34673.6,-0.6612,-0.8065,139.4,97.6,0.496
32.58,31831.5,34553.2,-0.8872,-1.1033,139.4,97.6,0.496
32.6,31812.9,34603.6,-0.9847,-0.9791,139.4,97.6,0.496
32.62,31779.8,34573.0,-1.1586,-1.0545,139.4,97.6,0.496
32.64,31756.6,34486.7,-1.2804,-1.2673,139.4,97.6,0.496
32.66,31755.6,34446.2,-1.2858,-1.367,139.4,97.6,0.496
32.68,31689.6,34638.8,-1.6328,-0.8924,139.4,97.6,0.496
32.7,31961.0,34798.6,-0.2069,-0.4985,139.4,97.6,0.496
32.72,32081.2,35175.8,0.4246,0.4312,139.4,97.6,0.496
32.74,32182.6,35527.0,0.9573,1.2969,139.4,97.6,0.496
32.76,32325.2,35631.5,1.7065,1.5543,139.4,97.6,0.496
32.78,32383.0,35709.0,2.0101,1.7454,139.4,97.6,0.496
32.8,32275.9,35664.2,1.4473,1.635,139.4,97.6,0.496
32.82,32276.8,35394.6,1.4522,0.9704,139.4,97.6,0.496
32.84,32114.9,35209.4,0.602,0.514,139.4,97.6,0.496
32.86,32021.7,35172.1,0.1121,0.4222,139.4,97.6,0.496
32.88,31971.1,35136.8,-0.1539,0.335,139.4,97.6,0.496
32.9,31990.1,35056.7,-0.0537,0.1378,139.4,97.6,0.496
32.92,32001.0,34952.6,0.0033,-0.1188,139.4,97.6,0.496
32.94,31875.7,34763.4,-0.655,-0.5853,139.4,97.6,0.496
32.96,31948.5,34772.4,-0.2722,-0.5631,139.4,97.6,0.496
32.98,31829.8,34773.6,-0.8961,-0.5602,139.4,97.6,0.496
33.0,31805.7,34597.7,-1.0227,-0.9935,139.4,97.6,0.496
33.02,31885.2,34569.5,-0.6049,-1.0631,139.4,97.6,0.496
33.04,31860.8,34590.5,-0.7334,-1.0114,139.4,97.6,0.496
33.06,31815.9,34565.5,-0.9691,-1.073,139.4,97.6,0.496
33.08,31688.3,34353.8,-1.6395,-1.5948,139.4,97.6,0.496
33.1,31732.4,34503.7,-1.4077,-1.2253,139.4,97.6,0.496
33.12,31832.6,34624.5,-0.8814,-0.9277,139.4,97.6,0.496
33.14,32018.7,34792.0,0.0964,-0.5148,139.4,97.6,0.496
33.16,32077.9,35217.5,0.4071,0.534,139.4,97.6,0.496
33.18,32243.8,35601.4,1.2786,1.4803,139.4,97.6,0.496
33.2,32308.0,35748.7,1.6162,1.8434,139.4,97.6,0.496
33.22,32409.9,35810.2,2.1514,1.995,139.4,97.6,0.496
33.24,32298.5,35603.9,1.566,1.4864,139.4,97.6,0.496
33.26,32098.1,35452.9,0.5134,1.1142,139.4,97.6,0.496
33.28,32097.1,35192.5,0.508,0.4723,139.4,97.6,0.496
33.3,32152.1,35246.0,0.7973,0.6042,139.4,97.6,0.496
33.32,32099.9,35026.6,0.5228,0.0635,139.4,97.6,0.496
33.34,32083.6,34953.1,0.4375,-0.1178,139.4,97.6,0.496
33.36,31979.6,34876.2,-0.1093,-0.3073,139.4,97.6,0.496
33.38,31829.4,34828.7,-0.8981,-0.4244,139.4,97.6,0.496
33.4,31808.0,34726.2,-1.0105,-0.6768,139.4,97.6,0.496
33.42,31903.2,34647.1,-0.5102,-0.872,139.4,97.6,0.496
33.44,31901.2,34696.9,-0.521,-0.7492,139.4,97.6,0.496
33.46,31750.2,34653.8,-1.3142,-0.8555,139.4,97.6,0.496
33.48,31773.9,34603.6,-1.1895,-0.9792,139.4,97.6,0.496
33.5,31747.8,34513.4,-1.3268,-1.2013,139.4,97.6,0.496
33.52,31762.5,34506.4,-1.2497,-1.2186,139.4,97.6,0.496
33.54,31715.9,34495.6,-1.4945,-1.2453,139.4,97.6,0.496
33.56,31863.5,34732.2,-0.7192,-0.662,139.4,97.6,0.496
33.58,32119.8,35064.7,0.6275,0.1573,139.4,97.6,0.496
33.6,32237.0,35471.6,1.2433,1.1604,139.4,97.6,0.496
33.62,32249.5,35678.2,1.3089,1.6696,139.4,97.6,0.496
33.64,32379.9,35875.7,1.9938,2.1562,139.4,97.6,0.496
33.66,32300.8,35674.9,1.5785,1.6613,139.4,97.6,0.496
33.68,32283.2,35531.1,1.486,1.307,139.4,97.6,0.496
33.7,32219.7,35343.6,1.1523,0.8448,139.4,97.6,0.496
33.72,32058.3,35108.1,0.3046,0.2644,139.4,97.6,0.496
33.74,32089.5,35107.4,0.4684,0.2626,139.4,97.6,0.496
33.76,31970.8,34925.1,-0.1552,-0.1867,139.4,97.6,0.496
33.78,31980.6,34931.5,-0.1037,-0.1709,139.4,97.6,0.496
33.8,31790.9,34975.4,-1.1003,-0.0628,139.4,97.6,0.496
33.82,31868.4,34790.6,-0.693,-0.5181,139.4,97.6,0.496
33.84,31845.0,34671.9,-0.8161,-0.8107,139.4,97.6,0.496
33.86,31879.5,34643.5,-0.635,-0.8809,139.4,97.6,0.496
33.88,31823.1,34662.5,-0.9312,-0.8339,139.4,97.6,0.496
33.9,31775.2,34597.8,-1.183,-0.9935,139.4,97.6,0.496
33.92,31807.9,34463.3,-1.0113,-1.3249,139.4,97.6,0.496
33.94,31686.5,34462.2,-1.649,-1.3277,139.4,97.6,0.496
33.96,31805.9,34535.8,-1.0214,-1.1463,139.4,97.6,0.496
33.98,31902.5,34579.4,-0.514,-1.0388,139.4,97.6,0.496
34.0,31931.4,34892.2,-0.3623,-0.2678,139.4,97.6,0.496
34.02,32113.4,35262.7,0.5939,0.6455,139.4,97.6,0.496
34.04,32229.4,35559.5,1.2032,1.3769,139.4,97.6,0.496
34.06,32353.2,35705.7,1.8539,1.7373,139.4,97.6,0.496
34.08,32422.5,35709.3,2.2175,1.7462,139.4,97.6,0.496
34.1,32319.0,35521.6,1.6739,1.2836,139.4,97.6,0.496
34.12,32122.0,35358.4,0.6388,0.8812,139.4,97.6,0.496
34.14,32157.3,35219.8,0.8247,0.5397,139.4,97.6,0.496
34.16,32074.5,35081.8,0.3894,0.1996,139.4,97.6,0.496
34.18,32067.8,35110.1,0.3543,0.2692,139.4,97.6,0.496
34.2,32086.5,35167.0,0.4524,0.4096,139.4,97.6,0.496
34.22,31945.2,34933.0,-0.2899,-0.1673,139.4,97.6,0.496
34.24,31895.4,34838.1,-0.5516,-0.4012,139.4,97.6,0.496
34.26,31921.4,34758.1,-0.4147,-0.5982,139.4,97.6,0.496
34.28,31864.5,34599.9,-0.7139,-0.9882,139.4,97.6,0.496
34.3,31903.5,34704.0,-0.509,-0.7317,139.4,97.6,0.496
34.32,31835.4,34702.7,-0.8666,-0.7348,139.4,97.6,0.496
34.34,31782.7,34571.2,-1.1433,-1.0589,139.4,97.6,0.496
34.36,31870.8,34459.3,-0.6808,-1.3349,139.4,97.6,0.496
34.38,31770.2,34466.5,-1.209,-1.3169,139.4,97.6,0.496
34.4,31794.1,34548.9,-1.0835,-1.1139,139.4,97.6,0.496
34.42,31863.8,34704.9,-0.7174,-0.7294,139.4,97.6,0.496
34.44,32008.6,34957.0,0.0431,-0.1081,139.4,97.6,0.496
34.46,32216.2,35379.7,1.1341,0.9337,139.4,97.6,0.496
34.48,32322.9,35700.8,1.6947,1.7253,139.4,97.6,0.496
34.5,32301.0,35726.0,1.5795,1.7873,139.4,97.6,0.496
34.52,32345.5,35718.9,1.8132,1.7697,139.4,97.6,0.496
34.54,32239.1,35515.9,1.2541,1.2694,139.4,97.6,0.496
34.56,32190.0,35340.6,0.9962,0.8375,139.4,97.6,0.496
34.58,32033.6,35221.9,0.1748,0.5448,139.4,97.6,0.496
34.6,32063.0,35031.9,0.3292,0.0766,139.4,97.6,0.496
34.62,32016.7,35036.3,0.0858,0.0874,139.4,97.6,0.496
34.64,31996.6,34992.1,-0.0197,-0.0216,139.4,97.6,0.496
34.66,31931.0,34936.7,-0.3644,-0.1581,139.4,97.6,0.496
34.68,31903.9,34787.2,-0.5065,-0.5265,139.4,97.6,0.496
34.7,31814.5,34735.8,-0.9762,-0.6532,139.4,97.6,0.496
34.72,31892.8,34651.9,-0.5653,-0.8601,139.4,97.6,0.496
34.74,31925.3,34616.4,-0.3943,-0.9475,139.4,97.6,0.496
34.76,31828.5,34617.9,-0.9031,-0.9438,139.4,97.6,0.496
34.78,31819.6,34535.3,-0.9496,-1.1474,139.4,97.6,0.496
34.8,31672.4,34451.4,-1.7227,-1.3542,139.4,97.6,0.496
34.82,31763.1,34518.3,-1.2465,-1.1894,139.4,97.6,0.496
34.84,31813.6,34567.2,-0.9809,-1.0687,139.4,97.6,0.496
34.86,31918.6,34848.2,-0.4298,-0.3761,139.4,97.6,0.496
34.88,32051.9,35089.9,0.2706,0.2196,139.4,97.6,0.496
34.9,32236.6,35603.5,1.2412,1.4853,139.4,97.6,0.496
34.92,32311.2,35787.8,1.6331,1.9396,139.4,97.6,0.496
34.94,32327.5,35780.6,1.7185,1.9219,139.4,97.6,0.496
34.96,32233.8,35579.2,1.2262,1.4254,139.4,97.6,0.496
34.98,32158.5,35343.7,0.8308,0.8451,139.4,97.6,0.496
35.0,32134.4,35246.0,0.7043,0.6042,139.4,97.6,0.496
35.02,32077.3,35082.1,0.4043,0.2003,139.4,97.6,0.496
35.04,32023.5,35075.0,0.1215,0.1827,139.4,97.6,0.496
35.06,32118.1,34992.9,0.6183,-0.0195,139.4,97.6,0.496
35.08,31980.8,34982.4,-0.1029,-0.0455,139.4,97.6,0.496
35.1,31956.3,34873.3,-0.2317,-0.3144,139.4,97.6,0.496
35.12,31897.0,34711.7,-0.543,-0.7127,139.4,97.6,0.496
35.14,31980.9,34672.1,-0.1025,-0.8103,139.4,97.6,0.496
35.16,31878.8,34574.4,-0.6389,-1.0511,139.4,97.6,0.496
35.18,31805.8,34556.6,-1.0223,-1.0949,139.4,97.6,0.496
35.2,31851.6,34648.5,-0.7814,-0.8685,139.4,97.6,0.496
35.22,31757.8,34460.7,-1.2742,-1.3314,139.4,97.6,0.496
35.24,31725.5,34405.1,-1.4437,-1.4685,139.4,97.6,0.496
35.26,31690.2,34554.1,-1.6293,-1.1011,139.4,97.6,0.496
35.28,31695.0,34751.8,-1.6044,-0.6138,139.4,97.6,0.496
35.3,32031.9,34999.3,0.1659,-0.0038,139.4,97.6,0.496
35.32,32222.9,35336.3,1.1693,0.8268,139.4,97.6,0.496
35.34,32301.7,35653.6,1.5832,1.6089,139.4,97.6,0.496
35.36,32352.3,35688.2,1.8488,1.6941,139.4,97.6,0.496
35.38,32379.4,35661.7,1.991,1.629,139.4,97.6,0.496
35.4,32251.0,35447.7,1.3168,1.1015,139.4,97.6,0.496
35.42,32212.2,35306.8,1.1126,0.7542,139.4,97.6,0.496
35.44,32106.3,35252.8,0.5567,0.6211,139.4,97.6,0.496
35.46,32057.9,35149.4,0.3024,0.3662,139.4,97.6,0.496
35.48,32040.2,35073.1,0.2094,0.1781,139.4,97.6,0.496
35.5,32042.4,35051.6,0.2206,0.1252,139.4,97.6,0.496
35.52,31894.0,34900.1,-0.5586,-0.2482,139.4,97.6,0.496
35.54,31901.3,34831.4,-0.5206,-0.4176,139.4,97.6,0.496
35.56,31856.8,34704.1,-0.7543,-0.7315,139.4,97.6,0.496
35.58,31837.0,34679.5,-0.8581,-0.792,139.4,97.6,0.496
35.6,31849.7,34656.1,-0.7916,-0.8496,139.4,97.6,0.496
35.62,31848.5,34566.1,-0.7976,-1.0714,139.4,97.6,0.496
35.64,31808.5,34496.9,-1.0077,-1.242,139.4,97.6,0.496
35.66,31732.2,34405.3,-1.4089,-1.4678,139.4,97.6,0.496
35.68,31807.3,34486.0,-1.0141,-1.269,139.4,97.6,0.496
35.7,31781.4,34542.1,-1.1502,-1.1307,139.4,97.6,0.496
35.72,32061.0,34825.7,0.3185,-0.4317,139.4,97.6,0.496
35.74,32093.0,35090.7,0.4865,0.2215,139.4,97.6,0.496
35.76,32316.4,35636.8,1.6605,1.5675,139.4,97.6,0.496
35.78,32379.6,35767.4,1.9924,1.8894,139.4,97.6,0.496
35.8,32271.7,35802.3,1.4253,1.9753,139.4,97.6,0.496
35.82,32288.8,35611.1,1.5154,1.504,139.4,97.6,0.496
35.84,32176.9,35404.8,0.9276,0.9957,139.4,97.6,0.496
35.86,32091.2,35314.3,0.4772,0.7726,139.4,97.6,0.496
35.88,32059.3,35107.3,0.3096,0.2624,139.4,97.6,0.496
35.9,32092.6,35075.3,0.4844,0.1835,139.4,97.6,0.496
35.92,32035.1,35058.6,0.1824,0.1423,139.4,97.6,0.496
35.94,31987.2,34786.5,-0.0693,-0.5282,139.4,97.6,0.496
35.96,31974.6,34817.4,-0.1353,-0.452,139.4,97.6,0.496
35.98,31891.9,34767.8,-0.5696,-0.5744,139.4,97.6,0.496
36.0,31794.8,34646.9,-1.0799,-0.8724,139.4,97.6,0.496
36.02,31914.7,34684.1,-0.4498,-0.7806,139.4,97.6,0.496
36.04,31902.5,34545.2,-0.514,-1.1229,139.4,97.6,0.496
36.06,31754.1,34667.5,-1.2938,-0.8216,139.4,97.6,0.496
36.08,31777.9,34424.5,-1.1686,-1.4206,139.4,97.6,0.496
36.1,31673.0,34394.4,-1.7199,-1.4947,139.4,97.6,0.496
36.12,31803.3,34512.1,-1.0354,-1.2048,139.4,97.6,0.496
36.14,31891.7,34759.1,-0.5711,-0.5958,139.4,97.6,0.496
36.16,31921.1,34945.3,-0.4165,-0.1368,139.4,97.6,0.496
36.18,32198.5,35416.8,1.0411,1.0252,139.4,97.6,0.496
36.2,32195.1,35591.7,1.0231,1.4562,139.4,97.6,0.496
36.22,32343.1,35758.4,1.8006,1.8672,139.4,97.6,0.496
36.24,32298.1,35738.7,1.564,1.8187,139.4,97.6,0.496
36.26,32201.6,35442.1,1.0571,1.0876,139.4,97.6,0.496
36.28,32092.9,35334.7,0.4863,0.8228,139.4,97.6,0.496
36.3,32087.9,35177.3,0.4599,0.4348,139.4,97.6,0.496
36.32,32062.2,35132.4,0.3248,0.3242,139.4,97.6,0.496
36.34,31987.0,35064.9,-0.0702,0.1578,139.4,97.6,0.496
36.36,32101.5,35037.6,0.5312,0.0907,139.4,97.6,0.496
36.38,31928.0,34921.8,-0.3802,-0.1947,139.4,97.6,0.496
36.4,31952.4,34813.6,-0.2521,-0.4615,139.4,97.6,0.496
36.42,31867.3,34657.4,-0.6989,-0.8466,139.4,97.6,0.496
36.44,31863.4,34651.4,-0.7198,-0.8613,139.4,97.6,0.496
36.46,31817.1,34715.0,-0.9628,-0.7045,139.4,97.6,0.496
36.48,31837.4,34605.4,-0.856,-0.9746,139.4,97.6,0.496
36.5,31838.2,34611.6,-0.852,-0.9595,139.4,97.6,0.496
36.52,31759.2,34377.5,-1.2667,-1.5364,139.4,97.6,0.496
36.54,31763.8,34405.5,-1.2429,-1.4673,139.4,97.6,0.496
36.56,31763.4,34574.9,-1.2449,-1.0498,139.4,97.6,0.496
36.58,31934.1,34836.8,-0.3481,-0.4044,139.4,97.6,0.496
36.6,32094.7,35146.3,0.4954,0.3586,139.4,97.6,0.496
36.62,32132.4,35469.0,0.6935,1.154,139.4,97.6,0.496
36.64,32373.5,35670.1,1.9602,1.6494,139.4,97.6,0.496
36.66,32366.7,35777.7,1.9246,1.9147,139.4,97.6,0.496
36.68,32312.0,35705.3,1.6371,1.7364,139.4,97.6,0.496
36.7,32239.4,35378.8,1.256,0.9316,139.4,97.6,0.496
36.72,32176.2,35236.9,0.9238,0.5819,139.4,97.6,0.496
36.74,32151.3,35124.7,0.7927,0.3054,139.4,97.6,0.496
36.76,32054.5,35142.3,0.2844,0.3488,139.4,97.6,0.496
36.78,32026.8,35079.7,0.1388,0.1944,139.4,97.6,0.496
36.8,31964.6,34955.3,-0.1877,-0.1121,139.4,97.6,0.496
36.82,31961.8,34791.9,-0.2024,-0.515,139.4,97.6,0.496
36.84,31833.5,34781.6,-0.8764,-0.5404,139.4,97.6,0.496
36.86,31844.9,34699.9,-0.8165,-0.7418,139.4,97.6,0.496
36.88,31876.6,34678.0,-0.6504,-0.7956,139.4,97.6,0.496
36.9,31820.9,34678.1,-0.9427,-0.7955,139.4,97.6,0.496
36.92,31833.4,34585.4,-0.8773,-1.0241,139.4,97.6,0.496
36.94,31705.6,34494.0,-1.5487,-1.2493,139.4,97.6,0.496
36.96,31767.5,34473.0,-1.2235,-1.3011,139.4,97.6,0.496
36.98,31771.0,34537.7,-1.205,-1.1415,139.4,97.6,0.496
37.0,31863.5,34636.8,-0.7192,-0.8973,139.4,97.6,0.496
37.02,32044.0,34955.0,0.2293,-0.113,139.4,97.6,0.496
37.04,32091.2,35330.9,0.4771,0.8136,139.4,97.6,0.496
37.06,32239.1,35610.2,1.2542,1.5018,139.4,97.6,0.496
37.08,32390.6,35761.1,2.0503,1.8739,139.4,97.6,0.496
37.1,32299.9,35716.4,1.5735,1.7636,139.4,97.6,0.496
37.12,32235.8,35508.9,1.2367,1.2522,139.4,97.6,0.496
37.14,32148.3,35319.5,0.7773,0.7853,139.4,97.6,0.496
37.16,32110.7,35256.7,0.5799,0.6305,139.4,97.6,0.496
37.18,32064.2,35090.0,0.3351,0.2198,139.4,97.6,0.496
37.2,32019.1,35189.9,0.0983,0.4659,139.4,97.6,0.496
37.22,31931.4,35091.0,-0.3622,0.2223,139.4,97.6,0.496
37.24,31949.5,34910.7,-0.2674,-0.2221,139.4,97.6,0.496
37.26,31849.8,34760.7,-0.7911,-0.5918,139.4,97.6,0.496
37.28,31866.2,34715.8,-0.7048,-0.7026,139.4,97.6,0.496
37.3,31873.8,34690.2,-0.6649,-0.7657,139.4,97.6,0.496
37.32,31836.9,34604.6,-0.8589,-0.9766,139.4,97.6,0.496
37.34,31918.9,34632.4,-0.428,-0.9082,139.4,97.6,0.496
37.36,31802.2,34536.7,-1.041,-1.1441,139.4,97.6,0.496
37.38,31800.5,34422.8,-1.0498,-1.4247,139.4,97.6,0.496
37.4,31714.8,34460.4,-1.5003,-1.3321,139.4,97.6,0.496
37.42,31801.7,34516.7,-1.0437,-1.1933,139.4,97.6,0.496
37.44,31976.6,34815.1,-0.1249,-0.4579,139.4,97.6,0.496
37.46,32035.1,35185.6,0.1822,0.4554,139.4,97.6,0.496
37.48,32228.2,35588.8,1.1969,1.4492,139.4,97.6,0.496
37.5,32381.3,35693.5,2.0011,1.7073,139.4,97.6,0.496
37.52,32308.4,35794.2,1.6181,1.9554,139.4,97.6,0.496
37.54,32366.1,35620.5,1.9212,1.5273,139.4,97.6,0.496
37.56,32167.6,35451.5,0.8788,1.1107,139.4,97.6,0.496
37.58,32092.7,35330.0,0.4849,0.8113,139.4,97.6,0.496
37.6,32022.0,35076.2,0.1135,0.1857,139.4,97.6,0.496
37.62,32094.8,35105.8,0.4961,0.2588,139.4,97.6,0.496
37.64,32105.3,34993.0,0.5511,-0.0193,139.4,97.6,0.496
37.66,32027.9,35004.9,0.1446,0.01,139.4,97.6,0.496
37.68,31920.1,34840.0,-0.4215,-0.3964,139.4,97.6,0.496
37.7,31797.9,34759.1,-1.0637,-0.5959,139.4,97.6,0.496
37.72,31837.8,34693.3,-0.8538,-0.7579,139.4,97.6,0.496
37.74,31760.0,34693.2,-1.2627,-0.7583,139.4,97.6,0.496
37.76,31909.7,34670.8,-0.4765,-0.8135,139.4,97.6,0.496
37.78,31854.0,34537.9,-0.7691,-1.1412,139.4,97.6,0.496
37.8,31666.4,34584.0,-1.7546,-1.0274,139.4,97.6,0.496
37.82,31674.4,34396.7,-1.7122,-1.489,139.4,97.6,0.496
37.84,31709.4,34457.7,-1.5284,-1.3388,139.4,97.6,0.496
37.86,31852.7,34658.5,-0.776,-0.8439,139.4,97.6,0.496
37.88,31982.3,34974.4,-0.0951,-0.0651,139.4,97.6,0.496
37.9,32168.4,35374.4,0.883,0.9208,139.4,97.6,0.496
37.92,32350.8,35587.5,1.8412,1.4461,139.4,97.6,0.496
37.94,32358.9,35777.3,1.8835,1.9138,139.4,97.6,0.496
37.96,32351.7,35599.6,1.8457,1.4758,139.4,97.6,0.496
37.98,32254.1,35585.1,1.3331,1.44,139.4,97.6,0.496
38.0,32098.9,35397.0,0.5176,0.9764,139.4,97.6,0.496
38.02,31957.3,35137.8,-0.2264,0.3375,139.4,97.6,0.496
38.04,32023.1,35092.5,0.1192,0.226,139.4,97.6,0.496
38.06,32025.1,35037.0,0.1299,0.0892,139.4,97.6,0.496
38.08,32072.4,35072.4,0.3786,0.1763,139.4,97.6,0.496
38.1,31932.9,34857.8,-0.3546,-0.3525,139.4,97.6,0.496
38.12,31936.6,34771.1,-0.3352,-0.5663,139.4,97.6,0.496
38.14,31831.5,34746.0,-0.8869,-0.6282,139.4,97.6,0.496
38.16,31903.4,34720.5,-0.5092,-0.6911,139.4,97.6,0.496
38.18,31867.6,34635.3,-0.6975,-0.901,139.4,97.6,0.496
38.2,31763.5,34632.8,-1.2444,-0.9072,139.4,97.6,0.496
38.22,31746.1,34472.6,-1.3358,-1.3021,139.4,97.6,0.496
38.24,31652.1,34405.7,-1.8298,-1.4668,139.4,97.6,0.496
38.26,31767.9,34422.5,-1.2212,-1.4254,139.4,97.6,0.496
38.28,31776.4,34617.4,-1.1767,-0.9452,139.4,97.6,0.496
38.3,31884.8,34734.3,-0.607,-0.657,139.4,97.6,0.496
38.32,32064.5,35155.4,0.3372,0.3809,139.4,97.6,0.496
38.34,32329.3,35555.4,1.7279,1.3669,139.4,97.6,0.496
38.36,32215.6,35732.7,1.131,1.8039,139.4,97.6,0.496
38.38,32412.1,35839.1,2.163,2.066,139.4,97.6,0.496
38.4,32324.4,35628.1,1.7025,1.546,139.4,97.6,0.496
38.42,32187.9,35593.8,0.9852,1.4616,139.4,97.6,0.496
38.44,32229.1,35286.0,1.2015,0.7028,139.4,97.6,0.496
38.46,32077.2,35128.4,0.4038,0.3144,139.4,97.6,0.496
38.48,32006.1,35112.7,0.03,0.2758,139.4,97.6,0.496
38.5,32010.1,35080.1,0.0513,0.1953,139.4,97.6,0.496
38.52,32021.3,35000.3,0.1099,-0.0014,139.4,97.6,0.496
38.54,31982.6,34885.0,-0.0935,-0.2854,139.4,97.6,0.496
38.56,31904.7,34755.3,-0.5024,-0.6051,139.4,97.6,0.496
38.58,31803.5,34655.5,-1.0344,-0.8512,139.4,97.6,0.496
38.6,31790.5,34712.2,-1.1023,-0.7113,139.4,97.6,0.496
38.62,31918.3,34613.7,-0.4313,-0.9543,139.4,97.6,0.496
38.64,31696.9,34620.1,-1.594,-0.9385,139.4,97.6,0.496
38.66,31895.5,34506.9,-0.5507,-1.2174,139.4,97.6,0.496
38.68,31833.4,34397.6,-0.877,-1.4868,139.4,97.6,0.496
38.7,31723.1,34555.7,-1.4565,-1.0973,139.4,97.6,0.496
38.72,31883.8,34579.7,-0.6124,-1.0381,139.4,97.6,0.496
38.74,32034.9,34918.1,0.1815,-0.204,139.4,97.6,0.496
38.76,32259.1,35296.1,1.3591,0.7278,139.4,97.6,0.496
38.78,32319.5,35512.2,1.6763,1.2604,139.4,97.6,0.496
38.8,32343.0,35756.9,1.8001,1.8634,139.4,97.6,0.496
38.82,32338.6,35744.5,1.777,1.8329,139.4,97.6,0.496
38.84,32237.6,35570.4,1.2463,1.4038,139.4,97.6,0.496
38.86,32254.0,35369.7,1.3324,0.909,139.4,97.6,0.496
38.88,32014.4,35331.2,0.074,0.8143,139.4,97.6,0.496
38.9,32055.8,35158.1,0.2911,0.3875,139.4,97.6,0.496
38.92,32081.1,35063.3,0.4243,0.154,139.4,97.6,0.496
38.94,31945.7,35099.1,-0.2872,0.2423,139.4,97.6,0.496
38.96,31916.2,34931.7,-0.4422,-0.1704,139.4,97.6,0.496
38.98,31960.8,34780.4,-0.208,-0.5434,139.4,97.6,0.496
39.0,31889.3,34822.0,-0.5836,-0.4408,139.4,97.6,0.496
39.02,31871.8,34678.0,-0.6754,-0.7957,139.4,97.6,0.496
39.04,31805.5,34687.1,-1.0236,-0.7732,139.4,97.6,0.496
39.06,31841.2,34668.0,-0.8363,-0.8205,139.4,97.6,0.496
39.08,31881.3,34552.7,-0.6256,-1.1046,139.4,97.6,0.496
39.1,31691.1,34504.6,-1.6245,-1.2232,139.4,97.6,0.496
39.12,31715.7,34374.2,-1.4956,-1.5446,139.4,97.6,0.496
39.14,31828.1,34505.4,-0.9048,-1.221,139.4,97.6,0.496
39.16,31895.3,34815.7,-0.552,-0.4564,139.4,97.6,0.496
39.18,32122.3,35140.2,0.6405,0.3435,139.4,97.6,0.496
39.2,32171.0,35545.9,0.8964,1.3434,139.4,97.6,0.496
39.22,32262.5,35703.6,1.3773,1.7322,139.4,97.6,0.496
39.24,32324.4,35750.0,1.7022,1.8466,139.4,97.6,0.496
39.26,32266.5,35589.8,1.398,1.4515,139.4,97.6,0.496
39.28,32187.5,35532.0,0.9831,1.3092,139.4,97.6,0.496
39.3,32075.5,35326.8,0.3949,0.8035,139.4,97.6,0.496
39.32,32055.7,35184.4,0.2908,0.4525,139.4,97.6,0.496
39.34,32095.5,35179.5,0.4997,0.4404,139.4,97.6,0.496
39.36,32006.2,35041.3,0.0307,0.0998,139.4,97.6,0.496
39.38,32027.3,35029.9,0.1414,0.0715,139.4,97.6,0.496
39.4,31960.2,34869.9,-0.2109,-0.3228,139.4,97.6,0.496
39.42,31891.6,34764.9,-0.5714,-0.5815,139.4,97.6,0.496
39.44,31825.7,34739.3,-0.9174,-0.6446,139.4,97.6,0.496
39.46,31810.6,34678.6,-0.9967,-0.7944,139.4,97.6,0.496
39.48,31878.1,34696.7,-0.6424,-0.7496,139.4,97.6,0.496
39.5,31775.3,34577.3,-1.1824,-1.0439,139.4,97.6,0.496
39.52,31778.3,34494.4,-1.1668,-1.2483,139.4,97.6,0.496
39.54,31784.6,34452.2,-1.1334,-1.3523,139.4,97.6,0.496
39.56,31743.9,34454.5,-1.3473,-1.3466,139.4,97.6,0.496
39.58,31777.6,34613.6,-1.1703,-0.9546,139.4,97.6,0.496
39.6,31922.9,34901.1,-0.407,-0.2459,139.4,97.6,0.496
39.62,32138.4,35245.3,0.7252,0.6026,139.4,97.6,0.496
39.64,32310.2,35632.3,1.6278,1.5563,139.4,97.6,0.496
39.66,32342.8,35676.5,1.7989,1.6653,139.4,97.6,0.496
39.68,32341.9,35782.1,1.7944,1.9256,139.4,97.6,0.496
39.7,32187.4,35673.0,0.9827,1.6567,139.4,97.6,0.496
39.72,32155.3,35328.5,0.8138,0.8077,139.4,97.6,0.496
39.74,32135.9,35341.7,0.7118,0.8401,139.4,97.6,0.496
39.76,32013.8,35135.2,0.0709,0.3312,139.4,97.6,0.496
39.78,31959.0,35103.3,-0.2175,0.2525,139.4,97.6,0.496
39.8,32103.5,35064.6,0.5418,0.1571,139.4,97.6,0.496
39.82,31890.1,34987.4,-0.579,-0.0331,139.4,97.6,0.496
39.84,31851.9,34849.7,-0.7799,-0.3726,139.4,97.6,0.496
39.86,31848.8,34631.8,-0.7963,-0.9096,139.4,97.6,0.496
39.88,31863.7,34700.3,-0.718,-0.7408,139.4,97.6,0.496
39.9,31924.0,34654.6,-0.401,-0.8535,139.4,97.6,0.496
39.92,31867.2,34603.7,-0.6998,-0.9789,139.4,97.6,0.496
39.94,31829.0,34563.4,-0.9001,-1.0782,139.4,97.6,0.496
39.96,31808.8,34488.7,-1.0062,-1.2624,139.4,97.6,0.496
39.98,31658.1,34426.0,-1.7981,-1.4168,139.4,97.6,0.496
40.0,31803.0,34574.1,-1.0366,-1.0518,139.4,97.6,0.496
40.02,31901.1,34644.8,-0.5214,-0.8775,139.4,97.6,0.496
40.04,31961.9,35141.5,-0.202,0.3468,139.4,97.6,0.496
40.06,32243.1,35460.2,1.2751,1.1323,139.4,97.6,0.496
40.08,32358.8,35708.9,1.8829,1.7453,139.4,97.6,0.496
40.1,32322.7,35759.7,1.6936,1.8704,139.4,97.6,0.496
40.12,32284.1,35569.7,1.4906,1.4022,139.4,97.6,0.496
40.14,32266.0,35506.0,1.3953,1.2452,139.4,97.6,0.496
40.16,32176.3,35369.8,0.9243,0.9093,139.4,97.6,0.496
40.18,32041.4,35184.8,0.2154,0.4535,139.4,97.6,0.496
40.2,32097.1,35102.0,0.5083,0.2493,139.4,97.6,0.496
40.22,32030.0,35122.2,0.1556,0.299,139.4,97.6,0.496
40.24,32003.6,34966.4,0.0172,-0.0848,139.4,97.6,0.496
40.26,31947.4,34823.2,-0.2785,-0.4378,139.4,97.6,0.496
40.28,31925.2,34721.4,-0.3947,-0.6889,139.4,97.6,0.496
40.3,31793.4,34667.1,-1.0875,-0.8226,139.4,97.6,0.496
40.32,31881.1,34732.7,-0.6266,-0.6609,139.4,97.6,0.496
40.34,31819.8,34633.8,-0.9487,-0.9047,139.4,97.6,0.496
40.36,31816.7,34557.8,-0.9647,-1.092,139.4,97.6,0.496
40.38,31782.7,34531.3,-1.1437,-1.1573,139.4,97.6,0.496
40.4,31817.4,34461.1,-0.9611,-1.3304,139.4,97.6,0.496
40.42,31777.1,34505.8,-1.1731,-1.2201,139.4,97.6,0.496
40.44,31827.7,34565.2,-0.9069,-1.0738,139.4,97.6,0.496
40.46,31915.2,34932.6,-0.4474,-0.1682,139.4,97.6,0.496
40.48,32112.3,35308.5,0.588,0.7583,139.4,97.6,0.496
40.5,32206.9,35690.1,1.0848,1.6988,139.4,97.6,0.496
40.52,32346.6,35678.7,1.8191,1.6707,139.4,97.6,0.496
40.54,32313.1,35732.2,1.6427,1.8027,139.4,97.6,0.496
40.56,32296.3,35548.7,1.5548,1.3503,139.4,97.6,0.496
40.58,32178.7,35309.8,0.9371,0.7615,139.4,97.6,0.496
40.6,32104.1,35206.8,0.5452,0.5076,139.4,97.6,0.496
40.62,32067.3,35217.4,0.3518,0.5338,139.4,97.6,0.496
40.64,32029.7,35096.2,0.1539,0.235,139.4,97.6,0.496
40.66,32016.1,35129.7,0.0829,0.3175,139.4,97.6,0.496
40.68,32000.3,34930.0,-0.0004,-0.1746,139.4,97.6,0.496
40.7,31934.7,34851.7,-0.345,-0.3676,139.4,97.6,0.496
40.72,31807.1,34737.0,-1.015,-0.6504,139.4,97.6,0.496
40.74,31826.5,34753.6,-0.9136,-0.6093,139.4,97.6,0.496
40.76,31885.7,34716.8,-0.6021,-0.7,139.4,97.6,0.496
40.78,31893.2,34610.3,-0.5628,-0.9627,139.4,97.6,0.496
40.8,31878.7,34589.2,-0.6389,-1.0147,139.4,97.6,0.496
40.82,31865.5,34513.6,-0.7087,-1.2009,139.4,97.6,0.496
40.84,31785.2,34433.5,-1.1304,-1.3984,139.4,97.6,0.496
40.86,31784.6,34521.0,-1.1337,-1.1826,139.4,97.6,0.496
40.88,31886.2,34762.7,-0.5995,-0.587,139.4,97.6,0.496
40.9,31986.9,35031.2,-0.0707,0.0748,139.4,97.6,0.496
40.92,32196.3,35399.9,1.0294,0.9836,139.4,97.6,0.496
40.94,32387.2,35659.8,2.032,1.6243,139.4,97.6,0.496
40.96,32373.0,35764.7,1.9578,1.8827,139.4,97.6,0.496
40.98,32411.7,35665.8,2.1612,1.6389,139.4,97.6,0.496
41.0,32121.3,35542.3,0.6355,1.3345,139.4,97.6,0.496
41.02,32092.1,35315.7,0.4821,0.7761,139.4,97.6,0.496
41.04,31995.3,35047.7,-0.0265,0.1155,139.4,97.6,0.496
41.06,32039.4,35066.9,0.2053,0.1628,139.4,97.6,0.496
41.08,31958.7,35077.5,-0.2191,0.1889,139.4,97.6,0.496
41.1,32049.3,34914.6,0.2571,-0.2127,139.4,97.6,0.496
41.12,31962.5,34851.8,-0.1989,-0.3675,139.4,97.6,0.496
41.14,32038.9,34768.8,0.2024,-0.5719,139.4,97.6,0.496
41.16,31974.7,34769.5,-0.135,-0.5703,139.4,97.6,0.496
41.18,31882.4,34664.5,-0.6198,-0.829,139.4,97.6,0.496
41.2,31887.1,34647.5,-0.5948,-0.8709,139.4,97.6,0.496
41.22,31852.5,34611.0,-0.777,-0.9609,139.4,97.6,0.496
41.24,31788.1,34610.2,-1.115,-0.9628,139.4,97.6,0.496
41.26,31735.5,34482.3,-1.3913,-1.2782,139.4,97.6,0.496
41.28,31840.9,34502.3,-0.8378,-1.2288,139.4,97.6,0.496
41.3,31834.4,34645.8,-0.8719,-0.8752,139.4,97.6,0.496
41.32,31976.1,34889.1,-0.1273,-0.2754,139.4,97.6,0.496
41.34,32161.2,35228.1,0.845,0.56,139.4,97.6,0.496
41.36,32203.3,35631.6,1.0661,1.5545,139.4,97.6,0.496
41.38,32416.5,35657.9,2.186,1.6195,139.4,97.6,0.496
41.4,32402.5,35813.4,2.1126,2.0027,139.4,97.6,0.496
41.42,32215.1,35504.3,1.1283,1.2408,139.4,97.6,0.496
41.44,32194.9,35386.8,1.022,0.9512,139.4,97.6,0.496
41.46,32136.0,35192.1,0.7126,0.4715,139.4,97.6,0.496
41.48,32075.7,35226.6,0.3958,0.5564,139.4,97.6,0.496
41.5,31903.0,34980.6,-0.5115,-0.05,139.4,97.6,0.496
41.52,32043.7,35011.7,0.2276,0.0268,139.4,97.6,0.496
41.54,32069.4,34858.3,0.3625,-0.3514,139.4,97.6,0.496
41.56,31885.4,34865.0,-0.6039,-0.3348,139.4,97.6,0.496
41.58,31829.2,34768.9,-0.8994,-0.5716,139.4,97.6,0.496
41.6,31860.5,34730.6,-0.7349,-0.666,139.4,97.6,0.496
41.62,31876.5,34660.9,-0.6505,-0.8379,139.4,97.6,0.496
41.64,31848.0,34690.4,-0.8003,-0.7651,139.4,97.6,0.496
41.66,31861.2,34651.9,-0.7311,-0.86,139.4,97.6,0.496
41.68,31709.4,34525.1,-1.5283,-1.1726,139.4,97.6,0.496
41.7,31692.9,34447.9,-1.615,-1.3628,139.4,97.6,0.496
41.72,31726.9,34590.6,-1.4365,-1.0112,139.4,97.6,0.496
41.74,31950.0,34668.2,-0.2645,-0.8198,139.4,97.6,0.496
41.76,32005.2,35072.8,0.0255,0.1775,139.4,97.6,0.496
41.78,32156.3,35403.2,0.8194,0.9918,139.4,97.6,0.496
41.8,32284.7,35714.6,1.4937,1.7592,139.4,97.6,0.496
41.82,32332.2,35702.5,1.7433,1.7294,139.4,97.6,0.496
41.84,32375.3,35611.7,1.9699,1.5057,139.4,97.6,0.496
41.86,32319.1,35532.0,1.6746,1.3092,139.4,97.6,0.496
41.88,32141.9,35333.0,0.7435,0.8186,139.4,97.6,0.496
41.9,32117.8,35091.9,0.617,0.2245,139.4,97.6,0.496
41.92,32021.9,35161.4,0.1133,0.3957,139.4,97.6,0.496
41.94,32020.0,34930.9,0.1029,-0.1724,139.4,97.6,0.496
41.96,31986.1,34945.3,-0.0751,-0.1369,139.4,97.6,0.496
41.98,32047.9,34905.6,0.2498,-0.2348,139.4,97.6,0.496
42.0,31874.8,34820.3,-0.6595,-0.445,139.4,97.6,0.496
42.02,31849.1,34726.7,-0.7946,-0.6756,139.4,97.6,0.496
42.04,31842.3,34624.1,-0.8303,-0.9287,139.4,97.6,0.496
42.06,31838.8,34648.5,-0.8488,-0.8683,139.4,97.6,0.496
42.08,31759.2,34642.2,-1.2668,-0.884,139.4,97.6,0.496
42.1,31804.4,34552.8,-1.0293,-1.1043,139.4,97.6,0.496
42.12,31732.3,34513.2,-1.4084,-1.2019,139.4,97.6,0.496
42.14,31699.0,34483.6,-1.5832,-1.2749,139.4,97.6,0.496
42.16,31782.1,34574.4,-1.1464,-1.0511,139.4,97.6,0.496
42.18,32005.4,34920.2,0.0265,-0.1988,139.4,97.6,0.496
42.2,32077.1,35221.4,0.403,0.5436,139.4,97.6,0.496
42.22,32284.3,35582.9,1.4914,1.4347,139.4,97.6,0.496
42.24,32356.6,35764.8,1.8717,1.8831,139.4,97.6,0.496
42.26,32320.2,35816.9,1.6801,2.0113,139.4,97.6,0.496
42.28,32419.4,35555.5,2.2012,1.3671,139.4,97.6,0.496
42.3,32153.2,35309.2,0.8029,0.7601,139.4,97.6,0.496
42.32,32119.4,35202.3,0.6253,0.4966,139.4,97.6,0.496
42.34,32037.1,35177.2,0.1932,0.4347,139.4,97.6,0.496
42.36,32059.6,35093.6,0.3111,0.2286,139.4,97.6,0.496
42.38,31968.9,35017.0,-0.165,0.0397,139.4,97.6,0.496
42.4,31988.0,34860.6,-0.0649,-0.3457,139.4,97.6,0.496
42.42,31924.2,34801.0,-0.4001,-0.4925,139.4,97.6,0.496
42.44,31770.8,34653.9,-1.2057,-0.8551,139.4,97.6,0.496
42.46,31835.9,34602.1,-0.8641,-0.9829,139.4,97.6,0.496
42.48,31842.6,34607.5,-0.8288,-0.9696,139.4,97.6,0.496
42.5,31823.0,34630.4,-0.932,-0.9131,139.4,97.6,0.496
42.52,31776.9,34632.0,-1.1741,-0.9092,139.4,97.6,0.496
42.54,31769.1,34568.9,-1.2148,-1.0647,139.4,97.6,0.496
42.56,31768.1,34401.9,-1.2202,-1.4762,139.4,97.6,0.496
42.58,31774.0,34497.6,-1.1894,-1.2404,139.4,97.6,0.496
42.6,31984.3,34737.7,-0.0843,-0.6485,139.4,97.6,0.496
42.62,31954.5,35020.1,-0.2408,0.0474,139.4,97.6,0.496
42.64,32186.6,35415.6,0.9785,1.0222,139.4,97.6,0.496
42.66,32335.7,35647.0,1.7618,1.5925,139.4,97.6,0.496
42.68,32328.5,35651.7,1.7236,1.6041,139.4,97.6,0.496
42.7,32240.1,35659.4,1.2595,1.6231,139.4,97.6,0.496
42.72,32226.6,35437.3,1.1883,1.0758,139.4,97.6,0.496
42.74,32088.3,35263.6,0.4618,0.6477,139.4,97.6,0.496
42.76,32083.7,35194.7,0.4379,0.4778,139.4,97.6,0.496
42.78,32135.5,35140.6,0.71,0.3445,139.4,97.6,0.496
42.8,32015.0,35051.7,0.0767,0.1254,139.4,97.6,0.496
42.82,31985.6,34961.4,-0.0775,-0.0973,139.4,97.6,0.496
42.84,32059.7,34929.0,0.312,-0.1772,139.4,97.6,0.496
42.86,31986.2,34764.9,-0.0744,-0.5816,139.4,97.6,0.496
42.88,31770.6,34735.7,-1.2069,-0.6535,139.4,97.6,0.496
42.9,31891.3,34686.5,-0.5732,-0.7748,139.4,97.6,0.496
42.92,31847.0,34655.6,-0.8059,-0.851,139.4,97.6,0.496
42.94,31805.9,34617.4,-1.0217,-0.945,139.4,97.6,0.496
42.96,31782.4,34607.0,-1.1453,-0.9708,139.4,97.6,0.496
42.98,31799.6,34521.2,-1.0548,-1.1822,139.4,97.6,0.496
43.0,31779.1,34491.1,-1.1622,-1.2563,139.4,97.6,0.496
43.02,31797.7,34595.8,-1.0647,-0.9983,139.4,97.6,0.496
43.04,31894.9,34948.1,-0.5539,-0.13,139.4,97.6,0.496
43.06,32029.2,35156.2,0.1515,0.383,139.4,97.6,0.496
43.08,32283.6,35590.8,1.4882,1.4541,139.4,97.6,0.496
43.1,32270.3,35780.2,1.4183,1.9208,139.4,97.6,0.496
43.12,32291.2,35692.0,1.5279,1.7034,139.4,97.6,0.496
43.14,32273.6,35584.1,1.4352,1.4375,139.4,97.6,0.496
43.16,32282.2,35482.5,1.4804,1.1872,139.4,97.6,0.496
43.18,32017.7,35237.6,0.091,0.5836,139.4,97.6,0.496
43.2,32078.6,35087.7,0.4112,0.214,139.4,97.6,0.496
43.22,32028.8,35042.5,0.1492,0.1026,139.4,97.6,0.496
43.24,32014.5,35126.6,0.0743,0.31,139.4,97.6,0.496
43.26,31988.4,34933.0,-0.0628,-0.1673,139.4,97.6,0.496
43.28,31921.9,34826.2,-0.4122,-0.4305,139.4,97.6,0.496
43.3,31941.0,34680.8,-0.3119,-0.7889,139.4,97.6,0.496
43.32,31800.7,34656.8,-1.049,-0.8479,139.4,97.6,0.496
43.34,31822.1,34763.4,-0.9366,-0.5853,139.4,97.6,0.496
43.36,31838.3,34729.5,-0.8514,-0.6687,139.4,97.6,0.496
43.38,31806.1,34666.6,-1.0206,-0.8239,139.4,97.6,0.496
43.4,31734.6,34430.9,-1.3959,-1.4049,139.4,97.6,0.496
43.42,31786.8,34476.7,-1.1221,-1.2919,139.4,97.6,0.496
43.44,31782.7,34519.1,-1.1434,-1.1874,139.4,97.6,0.496
43.46,31788.7,34651.6,-1.1122,-0.8609,139.4,97.6,0.496
43.48,32060.1,35075.8,0.3141,0.1847,139.4,97.6,0.496
43.5,32132.1,35331.4,0.6921,0.8147,139.4,97.6,0.496
43.52,32402.1,35669.6,2.1107,1.6483,139.4,97.6,0.496
43.54,32324.3,35672.9,1.7018,1.6564,139.4,97.6,0.496
43.56,32358.3,35704.3,1.8806,1.7338,139.4,97.6,0.496
43.58,32207.9,35570.4,1.0904,1.4039,139.4,97.6,0.496
43.6,32128.9,35360.0,0.6751,0.8853,139.4,97.6,0.496
43.62,32057.2,35130.9,0.2985,0.3206,139.4,97.6,0.496
43.64,32034.2,35103.9,0.178,0.2539,139.4,97.6,0.496
43.66,32010.9,35032.5,0.0554,0.0781,139.4,97.6,0.496
43.68,31974.7,35053.7,-0.1348,0.1304,139.4,97.6,0.496
43.7,31915.5,34970.6,-0.4457,-0.0745,139.4,97.6,0.496
43.72,31979.3,34760.4,-0.1109,-0.5927,139.4,97.6,0.496
43.74,31842.1,34702.6,-0.8313,-0.735,139.4,97.6,0.496
43.76,31905.5,34574.0,-0.4984,-1.0522,139.4,97.6,0.496
43.78,31791.6,34704.8,-1.0965,-0.7298,139.4,97.6,0.496
43.8,31886.9,34653.2,-0.5959,-0.8568,139.4,97.6,0.496
43.82,31718.5,34586.0,-1.4806,-1.0224,139.4,97.6,0.496
43.84,31671.5,34498.0,-1.7278,-1.2394,139.4,97.6,0.496
43.86,31801.5,34507.2,-1.0446,-1.2168,139.4,97.6,0.496
43.88,31723.3,34535.9,-1.4554,-1.1459,139.4,97.6,0.496
43.9,31938.3,34827.5,-0.3258,-0.4272,139.4,97.6,0.496
43.92,32042.3,35217.0,0.2204,0.5327,139.4,97.6,0.496
43.94,32225.6,35581.8,1.1835,1.4319,139.4,97.6,0.496
43.96,32353.7,35740.0,1.8563,1.8218,139.4,97.6,0.496
43.98,32347.7,35758.0,1.8245,1.8663,139.4,97.6,0.496
44.0,32318.1,35552.0,1.6692,1.3584,139.4,97.6,0.496
44.02,32154.6,35460.6,0.8102,1.1333,139.4,97.6,0.496
44.04,32080.3,35307.7,0.4197,0.7563,139.4,97.6,0.496
44.06,32036.7,35095.0,0.191,0.232,139.4,97.6,0.496
44.08,32072.3,35095.4,0.3777,0.233,139.4,97.6,0.496
44.1,31975.1,35072.3,-0.1325,0.1762,139.4,97.6,0.496
44.12,32059.3,34974.7,0.3095,-0.0644,139.4,97.6,0.496
44.14,32027.9,34922.6,0.1444,-0.193,139.4,97.6,0.496
44.16,31885.4,34739.8,-0.6042,-0.6434,139.4,97.6,0.496
44.18,31870.9,34568.0,-0.6803,-1.0669,139.4,97.6,0.496
44.2,31904.2,34630.4,-0.5053,-0.9131,139.4,97.6,0.496
44.22,31847.0,34653.9,-0.8055,-0.8551,139.4,97.6,0.496
44.24,31782.3,34660.4,-1.1457,-0.8391,139.4,97.6,0.496
44.26,31778.7,34481.9,-1.1643,-1.2792,139.4,97.6,0.496
44.28,31671.7,34469.5,-1.7264,-1.3096,139.4,97.6,0.496
44.3,31777.1,34505.3,-1.1731,-1.2213,139.4,97.6,0.496
44.32,31753.1,34677.3,-1.299,-0.7974,139.4,97.6,0.496
44.34,31992.3,34968.9,-0.0426,-0.0788,139.4,97.6,0.496
44.36,32152.8,35343.5,0.801,0.8446,139.4,97.6,0.496
44.38,32254.4,35694.2,1.3348,1.7089,139.4,97.6,0.496
44.4,32369.5,35812.0,1.939,1.9993,139.4,97.6,0.496
44.42,32414.0,35772.0,2.1729,1.9008,139.4,97.6,0.496
44.44,32213.2,35551.7,1.1179,1.3578,139.4,97.6,0.496
44.46,32147.8,35341.6,0.7745,0.8398,139.4,97.6,0.496
44.48,32143.5,35143.3,0.7522,0.3511,139.4,97.6,0.496
44.5,32039.3,35078.7,0.2046,0.1919,139.4,97.6,0.496
44.52,32038.1,34993.9,0.1983,-0.0171,139.4,97.6,0.496
44.54,32037.4,34959.4,0.1948,-0.102,139.4,97.6,0.496
44.56,31970.0,34874.5,-0.1594,-0.3113,139.4,97.6,0.496
44.58,31872.6,34840.9,-0.6713,-0.3943,139.4,97.6,0.496
44.6,31784.9,34765.4,-1.1317,-0.5803,139.4,97.6,0.496
44.62,31804.1,34597.5,-1.0312,-0.9941,139.4,97.6,0.496
44.64,31843.5,34660.3,-0.8241,-0.8393,139.4,97.6,0.496
44.66,31851.6,34766.7,-0.7813,-0.577,139.4,97.6,0.496
44.68,31826.4,34483.6,-0.9137,-1.2748,139.4,97.6,0.496
44.7,31705.5,34479.2,-1.549,-1.2857,139.4,97.6,0.496
44.72,31877.4,34509.5,-0.6459,-1.2112,139.4,97.6,0.496
44.74,31817.9,34536.0,-0.9584,-1.1458,139.4,97.6,0.496
44.76,32019.0,34754.0,0.0978,-0.6085,139.4,97.6,0.496
44.78,32016.8,35266.3,0.0863,0.6542,139.4,97.6,0.496
44.8,32220.4,35627.9,1.1559,1.5455,139.4,97.6,0.496
44.82,32324.9,35812.1,1.7047,1.9994,139.4,97.6,0.496
44.84,32396.3,35839.6,2.0803,2.0673,139.4,97.6,0.496
44.86,32306.1,35632.6,1.6064,1.5571,139.4,97.6,0.496
