timestamp,raw_red,raw_ir,filtered_red,filtered_ir,heart_rate,spo2,ac_dc_ratio
0.0,32079.0,35126.9,0.3741,0.3098,145.3,96.4,0.544
0.02,32339.8,35604.8,1.6356,1.4836,145.3,96.4,0.544
0.04,32225.1,35703.7,1.0806,1.7265,145.3,96.4,0.544
0.06,32492.4,35703.7,2.3737,1.7266,145.3,96.4,0.544
0.08,32287.1,35544.1,1.3807,1.3344,145.3,96.4,0.544
0.1,32229.1,35305.1,1.1001,0.7474,145.3,96.4,0.544
0.12,32109.2,35231.5,0.5199,0.5665,145.3,96.4,0.544
0.14,32057.4,35204.3,0.2694,0.4997,145.3,96.4,0.544
0.16,32073.7,35163.6,0.3483,0.3998,145.3,96.4,0.544
0.18,32046.5,35009.6,0.2166,0.0217,145.3,96.4,0.544
0.2,31985.7,34932.5,-0.0774,-0.1678,145.3,96.4,0.544
0.22,31944.7,34822.9,-0.2758,-0.437,145.3,96.4,0.544
0.24,31770.1,34730.4,-1.1201,-0.6643,145.3,96.4,0.544
0.26,31901.3,34587.0,-0.4855,-1.0163,145.3,96.4,0.544
0.28,31757.8,34618.7,-1.1796,-0.9387,145.3,96.4,0.544
0.3,31815.9,34648.4,-0.8984,-0.8655,145.3,96.4,0.544
0.32,31802.9,34616.2,-0.9616,-0.9446,145.3,96.4,0.544
0.34,31744.0,34543.9,-1.2465,-1.1224,145.3,96.4,0.544
0.36,31690.5,34508.2,-1.5053,-1.2101,145.3,96.4,0.544
0.38,31819.8,34688.2,-0.88,-0.768,145.3,96.4,0.544
0.4,32047.6,34839.7,0.222,-0.3957,145.3,96.4,0.544
0.42,32228.6,35259.0,1.0977,0.6341,145.3,96.4,0.544
0.44,32310.2,35616.0,1.4923,1.5111,145.3,96.4,0.544
0.46,32417.2,35719.1,2.0098,1.7645,145.3,96.4,0.544
0.48,32374.6,35740.6,1.8038,1.8171,145.3,96.4,0.544
0.5,32182.6,35471.2,0.8752,1.1553,145.3,96.4,0.544
0.52,32085.6,35395.6,0.4058,0.9698,145.3,96.4,0.544
0.54,32143.2,35147.1,0.6847,0.3594,145.3,96.4,0.544
0.56,32086.2,35102.4,0.409,0.2495,145.3,96.4,0.544
0.58,32040.9,35116.5,0.1898,0.2841,145.3,96.4,0.544
0.6,32041.2,35014.9,0.1909,0.0346,145.3,96.4,0.544
0.62,31941.6,34838.9,-0.2906,-0.3977,145.3,96.4,0.544
0.64,31927.6,34725.0,-0.3584,-0.6774,145.3,96.4,0.544
0.66,31859.3,34778.7,-0.6888,-0.5457,145.3,96.4,0.544
0.68,31820.1,34634.1,-0.8782,-0.9007,145.3,96.4,0.544
0.7,31831.4,34609.2,-0.8239,-0.962,145.3,96.4,0.544
0.72,31872.5,34611.1,-0.6249,-0.9574,145.3,96.4,0.544
0.74,31669.5,34509.7,-1.6069,-1.2063,145.3,96.4,0.544
0.76,31720.5,34400.8,-1.3601,-1.4737,145.3,96.4,0.544
0.78,31785.7,34470.3,-1.0447,-1.3031,145.3,96.4,0.544
0.8,31929.3,34720.9,-0.3501,-0.6876,145.3,96.4,0.544
0.82,32147.9,35106.9,0.7072,0.2606,145.3,96.4,0.544
0.84,32184.3,35461.8,0.8831,1.1324,145.3,96.4,0.544
0.86,32356.7,35698.9,1.7173,1.7148,145.3,96.4,0.544
0.88,32388.2,35776.6,1.8694,1.9055,145.3,96.4,0.544
0.9,32214.1,35645.0,1.0273,1.5823,145.3,96.4,0.544
0.92,32202.3,35427.6,0.9705,1.0484,145.3,96.4,0.544
0.94,32095.8,35218.2,0.455,0.5341,145.3,96.4,0.544
0.96,32112.5,35142.2,0.5358,0.3473,145.3,96.4,0.544
0.98,32182.3,35104.1,0.8735,0.2537,145.3,96.4,0.544
1.0,31983.5,34971.2,-0.0881,-0.0727,145.3,96.4,0.544
1.02,32042.1,34998.3,0.1955,-0.0062,145.3,96.4,0.544
1.04,31898.1,34844.2,-0.5013,-0.3847,145.3,96.4,0.544
1.06,31832.8,34739.3,-0.8168,-0.6423,145.3,96.4,0.544
1.08,31853.8,34702.2,-0.7154,-0.7335,145.3,96.4,0.544
1.1,31797.6,34722.8,-0.9872,-0.6828,145.3,96.4,0.544
1.12,31800.7,34641.9,-0.9724,-0.8815,145.3,96.4,0.544
1.14,31875.0,34693.0,-0.613,-0.7561,145.3,96.4,0.544
1.16,31766.0,34492.9,-1.1398,-1.2476,145.3,96.4,0.544
1.18,31779.3,34347.4,-1.0758,-1.605,145.3,96.4,0.544
1.2,31820.4,34537.5,-0.877,-1.138,145.3,96.4,0.544
1.22,31923.0,34818.8,-0.3808,-0.4472,145.3,96.4,0.544
1.24,32076.4,35204.6,0.3612,0.5005,145.3,96.4,0.544
1.26,32265.6,35487.4,1.2766,1.1952,145.3,96.4,0.544
1.28,32389.5,35754.4,1.8757,1.851,145.3,96.4,0.544
1.3,32406.2,35747.0,1.9566,1.8329,145.3,96.4,0.544
1.32,32311.6,35578.4,1.4989,1.4188,145.3,96.4,0.544
1.34,32207.0,35351.1,0.9931,0.8605,145.3,96.4,0.544
1.36,32104.8,35200.0,0.4989,0.4893,145.3,96.4,0.544
1.38,32049.6,35184.6,0.2316,0.4515,145.3,96.4,0.544
1.4,32055.1,35003.3,0.2581,0.0061,145.3,96.4,0.544
1.42,31928.7,35036.5,-0.3531,0.0876,145.3,96.4,0.544
1.44,32024.5,34877.3,0.1104,-0.3033,145.3,96.4,0.544
1.46,31882.3,34758.8,-0.5776,-0.5945,145.3,96.4,0.544
1.48,31834.3,34712.4,-0.8098,-0.7085,145.3,96.4,0.544
1.5,31930.9,34705.6,-0.3426,-0.7251,145.3,96.4,0.544
1.52,31782.8,34679.6,-1.0587,-0.789,145.3,96.4,0.544
1.54,31819.4,34563.8,-0.8818,-1.0735,145.3,96.4,0.544
1.56,31854.4,34535.2,-0.7125,-1.1438,145.3,96.4,0.544
1.58,31737.8,34519.5,-1.2765,-1.1822,145.3,96.4,0.544
1.6,31704.3,34512.0,-1.4385,-1.2007,145.3,96.4,0.544
1.62,31849.8,34671.0,-0.7349,-0.81,145.3,96.4,0.544
1.64,31936.2,34964.3,-0.317,-0.0898,145.3,96.4,0.544
1.66,32182.1,35346.4,0.8725,0.8489,145.3,96.4,0.544
1.68,32321.0,35611.8,1.5448,1.5008,145.3,96.4,0.544
1.7,32365.8,35875.4,1.7611,2.1484,145.3,96.4,0.544
1.72,32253.6,35697.8,1.2183,1.7119,145.3,96.4,0.544
1.74,32235.7,35433.9,1.1318,1.0637,145.3,96.4,0.544
1.76,32043.3,35246.9,0.2015,0.6044,145.3,96.4,0.544
1.78,32037.7,35230.9,0.1743,0.5651,145.3,96.4,0.544
1.8,32099.6,35160.3,0.4734,0.3917,145.3,96.4,0.544
1.82,32044.7,35128.3,0.2078,0.3132,145.3,96.4,0.544
1.84,32017.4,34939.1,0.076,-0.1517,145.3,96.4,0.544
1.86,31837.8,34886.7,-0.7926,-0.2802,145.3,96.4,0.544
1.88,31874.8,34774.3,-0.6138,-0.5564,145.3,96.4,0.544
1.9,31834.1,34594.8,-0.8106,-0.9973,145.3,96.4,0.544
1.92,31875.9,34746.9,-0.6084,-0.6236,145.3,96.4,0.544
1.94,31803.1,34749.1,-0.9603,-0.6183,145.3,96.4,0.544
1.96,31931.2,34564.7,-0.3409,-1.0713,145.3,96.4,0.544
1.98,31796.6,34492.0,-0.9921,-1.2498,145.3,96.4,0.544
2.0,31772.0,34378.7,-1.1111,-1.5282,145.3,96.4,0.544
2.02,31693.0,34378.0,-1.4932,-1.5299,145.3,96.4,0.544
2.04,31900.1,34765.2,-0.4915,-0.5787,145.3,96.4,0.544
2.06,32005.2,35056.6,0.017,0.1371,145.3,96.4,0.544
2.08,32203.3,35453.2,0.975,1.1113,145.3,96.4,0.544
2.1,32336.0,35694.2,1.6172,1.7033,145.3,96.4,0.544
2.12,32391.0,35822.6,1.8833,2.0186,145.3,96.4,0.544
2.14,32309.8,35709.6,1.4904,1.7411,145.3,96.4,0.544
2.16,32191.5,35471.1,0.9183,1.1553,145.3,96.4,0.544
2.18,32140.4,35350.1,0.6711,0.858,145.3,96.4,0.544
2.2,32003.7,35050.6,0.0099,0.1223,145.3,96.4,0.544
2.22,32032.6,35021.5,0.1495,0.0509,145.3,96.4,0.544
2.24,32053.4,35037.5,0.2503,0.0902,145.3,96.4,0.544
2.26,31976.9,34848.3,-0.1198,-0.3746,145.3,96.4,0.544
2.28,31932.5,34903.4,-0.3345,-0.2392,145.3,96.4,0.544
2.3,31766.1,34735.1,-1.1396,-0.6527,145.3,96.4,0.544
2.32,31941.8,34747.0,-0.2899,-0.6234,145.3,96.4,0.544
2.34,31876.2,34698.2,-0.6072,-0.7434,145.3,96.4,0.544
2.36,31762.7,34704.5,-1.1559,-0.7278,145.3,96.4,0.544
2.38,31786.6,34546.9,-1.0401,-1.115,145.3,96.4,0.544
2.4,31714.7,34450.9,-1.3881,-1.3508,145.3,96.4,0.544
2.42,31768.8,34523.6,-1.1266,-1.1723,145.3,96.4,0.544
2.44,31764.8,34629.9,-1.1456,-0.911,145.3,96.4,0.544
2.46,31887.7,34749.6,-0.5516,-0.617,145.3,96.4,0.544
2.48,32190.0,35294.5,0.9108,0.7215,145.3,96.4,0.544
2.5,32345.7,35503.3,1.664,1.2344,145.3,96.4,0.544
2.52,32314.7,35764.4,1.514,1.8756,145.3,96.4,0.544
2.54,32352.9,35700.8,1.6987,1.7194,145.3,96.4,0.544
2.56,32279.8,35664.9,1.3451,1.6313,145.3,96.4,0.544
2.58,32166.1,35305.6,0.7952,0.7486,145.3,96.4,0.544
2.6,32083.9,35242.7,0.3979,0.5941,145.3,96.4,0.544
2.62,32000.4,35119.4,-0.006,0.2913,145.3,96.4,0.544
2.64,32043.8,34990.9,0.2036,-0.0243,145.3,96.4,0.544
2.66,32075.6,35012.6,0.3573,0.0289,145.3,96.4,0.544
2.68,31945.3,34890.8,-0.2728,-0.2702,145.3,96.4,0.544
2.7,31872.1,34778.5,-0.6268,-0.546,145.3,96.4,0.544
2.72,31879.2,34765.8,-0.5923,-0.5773,145.3,96.4,0.544
2.74,31811.6,34672.5,-0.9195,-0.8064,145.3,96.4,0.544
2.76,31879.4,34654.3,-0.5916,-0.8512,145.3,96.4,0.544
2.78,31675.6,34663.0,-1.5771,-0.8299,145.3,96.4,0.544
2.8,31760.8,34536.7,-1.165,-1.14,145.3,96.4,0.544
2.82,31757.4,34493.1,-1.1817,-1.2472,145.3,96.4,0.544
2.84,31656.1,34560.4,-1.6715,-1.0819,145.3,96.4,0.544
2.86,31904.4,34580.3,-0.4708,-1.033,145.3,96.4,0.544
2.88,32026.6,34927.6,0.1205,-0.1799,145.3,96.4,0.544
2.9,32201.3,35371.6,0.9655,0.9107,145.3,96.4,0.544
2.92,32380.2,35621.9,1.831,1.5257,145.3,96.4,0.544
2.94,32402.8,35740.8,1.9401,1.8177,145.3,96.4,0.544
2.96,32298.7,35596.0,1.4369,1.4621,145.3,96.4,0.544
2.98,32298.6,35462.9,1.4364,1.1349,145.3,96.4,0.544
3.0,32136.5,35346.0,0.6523,0.8479,145.3,96.4,0.544
3.02,32070.2,35239.6,0.3315,0.5864,145.3,96.4,0.544
3.04,32059.2,35073.9,0.2782,0.1795,145.3,96.4,0.544
3.06,32000.7,35090.7,-0.0049,0.2207,145.3,96.4,0.544
3.08,31997.8,35028.9,-0.0186,0.069,145.3,96.4,0.544
3.1,31906.6,34855.1,-0.4598,-0.3578,145.3,96.4,0.544
3.12,31887.7,34796.5,-0.5515,-0.5019,145.3,96.4,0.544
3.14,31791.3,34699.4,-1.0179,-0.7404,145.3,96.4,0.544
3.16,31863.8,34635.8,-0.6669,-0.8966,145.3,96.4,0.544
3.18,31788.8,34669.6,-1.0295,-0.8136,145.3,96.4,0.544
3.2,31866.9,34625.9,-0.6518,-0.9208,145.3,96.4,0.544
3.22,31737.8,34544.7,-1.2766,-1.1204,145.3,96.4,0.544
3.24,31708.3,34479.1,-1.4189,-1.2815,145.3,96.4,0.544
3.26,31662.5,34502.9,-1.6407,-1.2231,145.3,96.4,0.544
3.28,31828.2,34749.6,-0.8393,-0.617,145.3,96.4,0.544
3.3,31983.1,35167.7,-0.09,0.4099,145.3,96.4,0.544
3.32,32319.3,35476.2,1.5363,1.1676,145.3,96.4,0.544
3.34,32342.5,35708.0,1.6486,1.737,145.3,96.4,0.544
3.36,32373.8,35834.2,1.7998,2.0471,145.3,96.4,0.544
3.38,32309.0,35547.5,1.4866,1.343,145.3,96.4,0.544
3.4,32216.3,35388.4,1.0382,0.9519,145.3,96.4,0.544
3.42,32156.1,35191.4,0.7467,0.4681,145.3,96.4,0.544
3.44,32197.1,35140.3,0.9453,0.3426,145.3,96.4,0.544
3.46,32136.2,35143.3,0.6508,0.3501,145.3,96.4,0.544
3.48,31977.3,35026.5,-0.118,0.0631,145.3,96.4,0.544
3.5,31925.3,34969.0,-0.3694,-0.0782,145.3,96.4,0.544
3.52,31881.3,34915.6,-0.5823,-0.2093,145.3,96.4,0.544
3.54,31800.6,34684.3,-0.9725,-0.7774,145.3,96.4,0.544
3.56,31942.4,34729.8,-0.2869,-0.6657,145.3,96.4,0.544
3.58,31781.0,34591.8,-1.0674,-1.0047,145.3,96.4,0.544
3.6,31845.9,34618.0,-0.7538,-0.9403,145.3,96.4,0.544
3.62,31754.9,34534.5,-1.1938,-1.1455,145.3,96.4,0.544
3.64,31656.6,34477.1,-1.6693,-1.2863,145.3,96.4,0.544
3.66,31746.7,34522.9,-1.2334,-1.1738,145.3,96.4,0.544
3.68,31790.0,34668.8,-1.0239,-0.8156,145.3,96.4,0.544
3.7,31924.7,34928.3,-0.3726,-0.178,145.3,96.4,0.544
3.72,32136.1,35285.3,0.6501,0.6988,145.3,96.4,0.544
3.74,32200.9,35586.8,0.9638,1.4394,145.3,96.4,0.544
3.76,32427.7,35700.2,2.0604,1.7179,145.3,96.4,0.544
3.78,32375.6,35722.9,1.8085,1.7737,145.3,96.4,0.544
3.8,32225.1,35567.5,1.0805,1.392,145.3,96.4,0.544
3.82,32247.1,35413.2,1.187,1.0129,145.3,96.4,0.544
3.84,32184.2,35233.9,0.883,0.5724,145.3,96.4,0.544
3.86,31994.7,35100.5,-0.0338,0.2449,145.3,96.4,0.544
3.88,31999.8,35110.4,-0.0091,0.2693,145.3,96.4,0.544
3.9,32004.7,34892.8,0.0146,-0.2653,145.3,96.4,0.544
3.92,31981.8,34929.1,-0.096,-0.1762,145.3,96.4,0.544
3.94,31919.9,34755.1,-0.3955,-0.6036,145.3,96.4,0.544
3.96,31842.8,34677.4,-0.7685,-0.7945,145.3,96.4,0.544
3.98,31786.9,34601.1,-1.0391,-0.9818,145.3,96.4,0.544
4.0,31781.8,34669.4,-1.0637,-0.8141,145.3,96.4,0.544
4.02,31821.5,34564.2,-0.8717,-1.0726,145.3,96.4,0.544
4.04,31641.7,34546.9,-1.7415,-1.115,145.3,96.4,0.544
4.06,31690.4,34532.4,-1.5058,-1.1505,145.3,96.4,0.544
4.08,31772.3,34454.5,-1.1096,-1.3419,145.3,96.4,0.544
4.1,31834.5,34701.0,-0.8085,-0.7365,145.3,96.4,0.544
4.12,31923.0,34973.2,-0.3806,-0.0679,145.3,96.4,0.544
4.14,32191.4,35392.9,0.9176,0.9632,145.3,96.4,0.544
4.16,32300.8,35559.8,1.4467,1.3731,145.3,96.4,0.544
4.18,32395.5,35701.3,1.9047,1.7207,145.3,96.4,0.544
4.2,32318.8,35662.3,1.5341,1.6247,145.3,96.4,0.544
4.22,32262.9,35547.1,1.2634,1.3419,145.3,96.4,0.544
4.24,32180.9,35225.6,0.8667,0.5522,145.3,96.4,0.544
4.26,32046.8,35189.5,0.2182,0.4635,145.3,96.4,0.544
4.28,32025.1,35185.1,0.1134,0.4527,145.3,96.4,0.544
4.3,32107.6,35106.9,0.5124,0.2607,145.3,96.4,0.544
4.32,31996.9,34929.3,-0.0231,-0.1757,145.3,96.4,0.544
4.34,31937.1,34886.9,-0.3122,-0.2797,145.3,96.4,0.544
4.36,31964.9,34733.2,-0.1777,-0.6574,145.3,96.4,0.544
4.38,31938.6,34633.4,-0.3051,-0.9024,145.3,96.4,0.544
4.4,31823.8,34677.3,-0.8602,-0.7946,145.3,96.4,0.544
4.42,31866.8,34651.6,-0.6523,-0.8578,145.3,96.4,0.544
4.44,31770.6,34561.8,-1.118,-1.0784,145.3,96.4,0.544
4.46,31705.2,34433.4,-1.4339,-1.3938,145.3,96.4,0.544
4.48,31696.1,34440.2,-1.4783,-1.377,145.3,96.4,0.544
4.5,31693.2,34485.0,-1.4922,-1.267,145.3,96.4,0.544
4.52,31910.7,34827.2,-0.4403,-0.4266,145.3,96.4,0.544
4.54,32154.6,35082.8,0.7396,0.2014,145.3,96.4,0.544
4.56,32163.5,35436.8,0.7826,1.0709,145.3,96.4,0.544
4.58,32388.5,35728.4,1.8709,1.7872,145.3,96.4,0.544
4.6,32387.3,35629.5,1.8654,1.5443,145.3,96.4,0.544
4.62,32260.5,35541.3,1.2518,1.3275,145.3,96.4,0.544
4.64,32262.5,35390.8,1.2617,0.958,145.3,96.4,0.544
4.66,32172.4,35330.5,0.8258,0.8099,145.3,96.4,0.544
4.68,32062.2,35074.3,0.2927,0.1805,145.3,96.4,0.544
4.7,32041.5,35145.5,0.1927,0.3555,145.3,96.4,0.544
4.72,32038.1,34983.5,0.1759,-0.0426,145.3,96.4,0.544
4.74,31941.1,34899.9,-0.2929,-0.248,145.3,96.4,0.544
4.76,31881.1,34840.9,-0.5832,-0.3928,145.3,96.4,0.544
4.78,31802.0,34837.3,-0.9658,-0.4015,145.3,96.4,0.544
4.8,31837.7,34681.5,-0.7933,-0.7843,145.3,96.4,0.544
4.82,31925.9,34622.4,-0.3665,-0.9295,145.3,96.4,0.544
4.84,31834.8,34662.0,-0.8073,-0.8322,145.3,96.4,0.544
4.86,31758.7,34604.7,-1.1752,-0.9729,145.3,96.4,0.544
4.88,31805.5,34464.7,-0.9492,-1.3168,145.3,96.4,0.544
4.9,31748.2,34495.5,-1.2262,-1.2413,145.3,96.4,0.544
4.92,31778.7,34544.6,-1.0786,-1.1205,145.3,96.4,0.544
4.94,31907.7,34818.3,-0.4546,-0.4483,145.3,96.4,0.544
4.96,32107.6,35291.9,0.5124,0.7151,145.3,96.4,0.544
4.98,32314.5,35529.4,1.513,1.2985,145.3,96.4,0.544
5.0,32386.2,35663.6,1.8598,1.6279,145.3,96.4,0.544
5.02,32253.7,35780.8,1.2188,1.916,145.3,96.4,0.544
5.04,32298.3,35536.0,1.4349,1.3147,145.3,96.4,0.544
5.06,32138.1,35314.6,0.6598,0.7708,145.3,96.4,0.544
5.08,32055.1,35214.8,0.2584,0.5257,145.3,96.4,0.544
5.1,32083.6,35091.2,0.3964,0.2221,145.3,96.4,0.544
5.12,32039.8,34975.9,0.1842,-0.0611,145.3,96.4,0.544
5.14,31969.1,34946.3,-0.1577,-0.134,145.3,96.4,0.544
5.16,31924.5,34816.8,-0.3733,-0.4521,145.3,96.4,0.544
5.18,31836.8,34944.0,-0.7974,-0.1394,145.3,96.4,0.544
5.2,31913.6,34675.2,-0.4262,-0.7998,145.3,96.4,0.544
5.22,31800.9,34647.1,-0.9713,-0.8687,145.3,96.4,0.544
5.24,31801.6,34649.8,-0.968,-0.8622,145.3,96.4,0.544
5.26,31862.8,34573.9,-0.6718,-1.0487,145.3,96.4,0.544
5.28,31771.5,34587.4,-1.1133,-1.0155,145.3,96.4,0.544
5.3,31787.9,34463.0,-1.0339,-1.321,145.3,96.4,0.544
5.32,31787.1,34493.1,-1.038,-1.2471,145.3,96.4,0.544
5.34,31771.6,34657.6,-1.113,-0.843,145.3,96.4,0.544
5.36,32050.8,35048.5,0.2377,0.1172,145.3,96.4,0.544
5.38,32146.4,35335.5,0.6998,0.822,145.3,96.4,0.544
5.4,32352.0,35611.9,1.6947,1.5011,145.3,96.4,0.544
5.42,32343.6,35794.5,1.6538,1.9495,145.3,96.4,0.544
5.44,32332.1,35717.3,1.5983,1.7598,145.3,96.4,0.544
5.46,32089.2,35491.8,0.4235,1.2061,145.3,96.4,0.544
5.48,32133.3,35301.7,0.6366,0.739,145.3,96.4,0.544
5.5,32055.8,35203.6,0.262,0.4981,145.3,96.4,0.544
5.52,32108.5,35160.5,0.5168,0.3921,145.3,96.4,0.544
5.54,31960.7,35051.9,-0.1982,0.1254,145.3,96.4,0.544
5.56,31895.8,34932.1,-0.5121,-0.1688,145.3,96.4,0.544
5.58,31951.0,34862.9,-0.2453,-0.3387,145.3,96.4,0.544
5.6,31809.1,34700.9,-0.9317,-0.7366,145.3,96.4,0.544
5.62,31750.1,34643.7,-1.2167,-0.8771,145.3,96.4,0.544
5.64,31851.4,34675.4,-0.7267,-0.7992,145.3,96.4,0.544
5.66,31763.5,34590.4,-1.1522,-1.008,145.3,96.4,0.544
5.68,31696.9,34683.7,-1.4743,-0.7789,145.3,96.4,0.544
5.7,31790.1,34476.5,-1.0234,-1.2879,145.3,96.4,0.544
5.72,31707.4,34513.6,-1.4233,-1.1967,145.3,96.4,0.544
5.74,31908.6,34505.3,-0.4501,-1.2172,145.3,96.4,0.544
5.76,31874.5,34847.6,-0.615,-0.3763,145.3,96.4,0.544
5.78,32091.9,35141.0,0.4365,0.3444,145.3,96.4,0.544
5.8,32221.9,35453.7,1.0651,1.1125,145.3,96.4,0.544
5.82,32418.4,35717.6,2.0156,1.7607,145.3,96.4,0.544
5.84,32334.8,35764.2,1.6114,1.875,145.3,96.4,0.544
5.86,32287.8,35604.1,1.3838,1.4818,145.3,96.4,0.544
5.88,32126.7,35374.2,0.6047,0.9172,145.3,96.4,0.544
5.9,32111.9,35198.5,0.5331,0.4856,145.3,96.4,0.544
5.92,32047.1,35196.2,0.2197,0.48,145.3,96.4,0.544
5.94,32021.2,34989.2,0.0946,-0.0286,145.3,96.4,0.544
5.96,31982.6,34995.3,-0.0922,-0.0136,145.3,96.4,0.544
5.98,31920.7,34937.8,-0.3916,-0.1548,145.3,96.4,0.544
6.0,31939.2,34886.3,-0.302,-0.2814,145.3,96.4,0.544
6.02,31912.5,34736.7,-0.4314,-0.6487,145.3,96.4,0.544
6.04,31800.8,34588.1,-0.9719,-1.0138,145.3,96.4,0.544
6.06,31985.9,34685.4,-0.0762,-0.7748,145.3,96.4,0.544
6.08,31879.7,34524.1,-0.5901,-1.1708,145.3,96.4,0.544
6.1,31756.5,34530.5,-1.1858,-1.1554,145.3,96.4,0.544
6.12,31684.6,34582.6,-1.5338,-1.0273,145.3,96.4,0.544
6.14,31748.8,34393.9,-1.2234,-1.4906,145.3,96.4,0.544
6.16,31789.6,34605.6,-1.026,-0.9709,145.3,96.4,0.544
6.18,31987.4,34830.3,-0.0691,-0.4189,145.3,96.4,0.544
6.2,32172.9,35255.1,0.8281,0.6246,145.3,96.4,0.544
6.22,32264.3,35535.0,1.2704,1.3122,145.3,96.4,0.544
6.24,32426.5,35772.7,2.0551,1.8959,145.3,96.4,0.544
6.26,32298.6,35666.0,1.4363,1.6339,145.3,96.4,0.544
6.28,32247.3,35407.3,1.1883,0.9985,145.3,96.4,0.544
6.3,32245.6,35313.9,1.1799,0.7691,145.3,96.4,0.544
6.32,32105.2,35222.8,0.5007,0.5454,145.3,96.4,0.544
6.34,32022.1,35135.2,0.0988,0.3301,145.3,96.4,0.544
6.36,32101.5,35058.8,0.4828,0.1424,145.3,96.4,0.544
6.38,31980.0,34926.9,-0.1047,-0.1816,145.3,96.4,0.544
6.4,31883.9,34919.0,-0.5699,-0.2009,145.3,96.4,0.544
6.42,31827.0,34876.4,-0.8449,-0.3056,145.3,96.4,0.544
6.44,31889.6,34668.3,-0.5422,-0.8169,145.3,96.4,0.544
6.46,31844.1,34679.1,-0.7625,-0.7903,145.3,96.4,0.544
6.48,31819.1,34720.9,-0.8832,-0.6876,145.3,96.4,0.544
6.5,31805.9,34671.1,-0.9472,-0.8099,145.3,96.4,0.544
6.52,31718.7,34443.3,-1.3686,-1.3694,145.3,96.4,0.544
6.54,31709.2,34528.5,-1.415,-1.1601,145.3,96.4,0.544
6.56,31830.2,34546.5,-0.8294,-1.116,145.3,96.4,0.544
6.58,31898.3,34724.1,-0.5,-0.6797,145.3,96.4,0.544
6.6,31856.8,35059.1,-0.7006,0.1431,145.3,96.4,0.544
6.62,32212.6,35447.2,1.0202,1.0966,145.3,96.4,0.544
6.64,32313.8,35604.3,1.5099,1.4824,145.3,96.4,0.544
6.66,32319.7,35770.0,1.5384,1.8895,145.3,96.4,0.544
6.68,32349.9,35618.8,1.6843,1.5179,145.3,96.4,0.544
6.7,32197.8,35524.6,0.9486,1.2865,145.3,96.4,0.544
6.72,32192.3,35335.6,0.922,0.8224,145.3,96.4,0.544
6.74,32018.5,35146.1,0.0812,0.3569,145.3,96.4,0.544
6.76,32063.8,34977.8,0.3003,-0.0566,145.3,96.4,0.544
6.78,32007.9,35117.4,0.03,0.2864,145.3,96.4,0.544
6.8,32054.4,35031.6,0.2549,0.0757,145.3,96.4,0.544
6.82,32026.0,34846.8,0.1174,-0.3783,145.3,96.4,0.544
6.84,31907.6,34792.7,-0.4549,-0.5113,145.3,96.4,0.544
6.86,31913.2,34631.3,-0.428,-0.9076,145.3,96.4,0.544
6.88,31859.5,34634.8,-0.6879,-0.8992,145.3,96.4,0.544
6.9,31901.0,34700.1,-0.4868,-0.7387,145.3,96.4,0.544
6.92,31860.6,34545.9,-0.6825,-1.1175,145.3,96.4,0.544
6.94,31808.5,34437.7,-0.9345,-1.3832,145.3,96.4,0.544
6.96,31822.2,34440.5,-0.8681,-1.3763,145.3,96.4,0.544
6.98,31818.1,34557.5,-0.8879,-1.0888,145.3,96.4,0.544
7.0,31865.4,34831.3,-0.6591,-0.4164,145.3,96.4,0.544
7.02,32061.5,35324.8,0.2891,0.7959,145.3,96.4,0.544
7.04,32249.2,35507.2,1.1974,1.2439,145.3,96.4,0.544
7.06,32351.0,35717.6,1.6897,1.7606,145.3,96.4,0.544
7.08,32326.8,35746.5,1.5727,1.8317,145.3,96.4,0.544
7.1,32274.1,35585.2,1.3177,1.4354,145.3,96.4,0.544
7.12,32189.9,35445.4,0.9102,1.0921,145.3,96.4,0.544
7.14,32126.9,35252.8,0.6055,0.619,145.3,96.4,0.544
7.16,31977.0,35165.4,-0.1196,0.4044,145.3,96.4,0.544
7.18,32113.8,35080.2,0.5422,0.1951,145.3,96.4,0.544
7.2,32081.7,34934.4,0.3868,-0.1632,145.3,96.4,0.544
7.22,31943.6,34928.4,-0.2808,-0.178,145.3,96.4,0.544
7.24,31906.0,34740.4,-0.4626,-0.6397,145.3,96.4,0.544
7.26,31864.6,34746.8,-0.6629,-0.624,145.3,96.4,0.544
7.28,31824.2,34675.0,-0.8586,-0.8004,145.3,96.4,0.544
7.3,31879.2,34664.5,-0.5927,-0.8262,145.3,96.4,0.544
7.32,31846.6,34619.6,-0.7499,-0.9364,145.3,96.4,0.544
7.34,31904.1,34480.9,-0.472,-1.277,145.3,96.4,0.544
7.36,31720.4,34463.7,-1.3607,-1.3194,145.3,96.4,0.544
7.38,31721.7,34477.1,-1.3544,-1.2865,145.3,96.4,0.544
7.4,31780.9,34593.4,-1.0682,-1.0008,145.3,96.4,0.544
7.42,31985.9,34910.2,-0.0763,-0.2226,145.3,96.4,0.544
7.44,32142.5,35202.7,0.6811,0.496,145.3,96.4,0.544
7.46,32323.9,35628.5,1.5587,1.5418,145.3,96.4,0.544
7.48,32382.5,35676.0,1.8421,1.6584,145.3,96.4,0.544
7.5,32365.8,35671.1,1.761,1.6464,145.3,96.4,0.544
7.52,32266.7,35499.9,1.2817,1.2258,145.3,96.4,0.544
7.54,32111.5,35343.4,0.5311,0.8416,145.3,96.4,0.544
7.56,32079.2,35209.6,0.3752,0.5128,145.3,96.4,0.544
7.58,32058.9,35041.0,0.2769,0.0988,145.3,96.4,0.544
7.6,32090.1,35038.4,0.4277,0.0924,145.3,96.4,0.544
7.62,32003.0,35061.8,0.0063,0.1498,145.3,96.4,0.544
7.64,31971.1,34831.2,-0.1481,-0.4167,145.3,96.4,0.544
7.66,31945.9,34701.9,-0.2697,-0.7342,145.3,96.4,0.544
7.68,31846.3,34654.0,-0.7514,-0.8519,145.3,96.4,0.544
7.7,31782.4,34613.8,-1.0606,-0.9505,145.3,96.4,0.544
7.72,31882.4,34622.7,-0.577,-0.9288,145.3,96.4,0.544
7.74,31818.6,34633.2,-0.8858,-0.903,145.3,96.4,0.544
7.76,31831.6,34575.0,-0.8229,-1.0458,145.3,96.4,0.544
7.78,31747.6,34493.2,-1.2292,-1.2468,145.3,96.4,0.544
7.8,31789.5,34453.7,-1.0266,-1.3438,145.3,96.4,0.544
7.82,31841.6,34767.0,-0.7743,-0.5743,145.3,96.4,0.544
7.84,31963.2,35086.9,-0.186,0.2114,145.3,96.4,0.544
7.86,32144.3,35328.6,0.6898,0.8051,145.3,96.4,0.544
7.88,32271.9,35619.9,1.3069,1.5207,145.3,96.4,0.544
7.9,32379.7,35717.1,1.8284,1.7595,145.3,96.4,0.544
7.92,32272.1,35711.3,1.308,1.7451,145.3,96.4,0.544
7.94,32235.2,35442.0,1.1297,1.0836,145.3,96.4,0.544
7.96,32162.1,35321.7,0.7761,0.7882,145.3,96.4,0.544
7.98,31989.2,35099.9,-0.0603,0.2434,145.3,96.4,0.544
8.0,32091.1,35060.7,0.4323,0.147,145.3,96.4,0.544
8.02,31967.5,34962.9,-0.1656,-0.0932,145.3,96.4,0.544
8.04,31870.5,35045.2,-0.6347,0.109,145.3,96.4,0.544
8.06,31946.1,34860.8,-0.2689,-0.3438,145.3,96.4,0.544
8.08,31921.3,34770.1,-0.389,-0.5668,145.3,96.4,0.544
8.1,31784.3,34681.5,-1.0517,-0.7843,145.3,96.4,0.544
8.12,31838.0,34592.3,-0.7917,-1.0033,145.3,96.4,0.544
8.14,31899.9,34582.0,-0.4922,-1.0288,145.3,96.4,0.544
8.16,31731.6,34537.2,-1.3067,-1.1387,145.3,96.4,0.544
8.18,31696.7,34521.5,-1.4751,-1.1772,145.3,96.4,0.544
8.2,31785.2,34368.7,-1.0473,-1.5527,145.3,96.4,0.544
8.22,31769.5,34552.5,-1.1233,-1.1011,145.3,96.4,0.544
8.24,31968.8,34779.9,-0.1592,-0.5426,145.3,96.4,0.544
8.26,32098.1,35182.1,0.4662,0.4452,145.3,96.4,0.544
8.28,32193.0,35471.2,0.9252,1.1554,145.3,96.4,0.544
8.3,32342.9,35691.4,1.6503,1.6964,145.3,96.4,0.544
8.32,32358.9,35801.3,1.7277,1.9664,145.3,96.4,0.544
8.34,32280.4,35771.2,1.3479,1.8923,145.3,96.4,0.544
8.36,32228.1,35395.0,1.0951,0.9682,145.3,96.4,0.544
8.38,32172.7,35303.9,0.8271,0.7446,145.3,96.4,0.544
8.4,32094.6,35139.3,0.4493,0.3402,145.3,96.4,0.544
8.42,32066.9,35116.6,0.3156,0.2844,145.3,96.4,0.544
8.44,32008.2,35005.2,0.0315,0.0108,145.3,96.4,0.544
8.46,31906.0,34774.4,-0.463,-0.5561,145.3,96.4,0.544
8.48,31858.3,34883.7,-0.6937,-0.2877,145.3,96.4,0.544
8.5,31835.2,34655.2,-0.8052,-0.8489,145.3,96.4,0.544
8.52,31887.3,34582.4,-0.5534,-1.0277,145.3,96.4,0.544
8.54,31744.8,34618.8,-1.2427,-0.9383,145.3,96.4,0.544
8.56,31854.7,34669.7,-0.7109,-0.8133,145.3,96.4,0.544
8.58,31687.2,34561.8,-1.521,-1.0783,145.3,96.4,0.544
8.6,31726.3,34447.9,-1.3321,-1.3582,145.3,96.4,0.544
8.62,31748.7,34497.2,-1.2239,-1.237,145.3,96.4,0.544
8.64,31796.1,34717.5,-0.9943,-0.6959,145.3,96.4,0.544
8.66,32025.0,34948.2,0.1128,-0.1292,145.3,96.4,0.544
8.68,32172.0,35323.4,0.8238,0.7924,145.3,96.4,0.544
8.7,32277.1,35612.8,1.3322,1.5031,145.3,96.4,0.544
8.72,32341.4,35764.5,1.6434,1.8759,145.3,96.4,0.544
8.74,32315.4,35737.6,1.5176,1.8099,145.3,96.4,0.544
8.76,32251.6,35513.2,1.2088,1.2587,145.3,96.4,0.544
8.78,32109.2,35330.2,0.5198,0.8091,145.3,96.4,0.544
8.8,32168.5,35163.1,0.807,0.3986,145.3,96.4,0.544
8.82,32021.9,35139.7,0.0976,0.3411,145.3,96.4,0.544
8.84,32013.8,34972.4,0.0587,-0.0699,145.3,96.4,0.544
8.86,32052.2,34983.4,0.2445,-0.0427,145.3,96.4,0.544
8.88,31876.3,34806.3,-0.6066,-0.4777,145.3,96.4,0.544
8.9,31868.5,34869.5,-0.6441,-0.3226,145.3,96.4,0.544
8.92,31825.6,34672.3,-0.8518,-0.8068,145.3,96.4,0.544
8.94,31891.7,34751.3,-0.532,-0.6128,145.3,96.4,0.544
8.96,31862.9,34664.7,-0.6713,-0.8255,145.3,96.4,0.544
8.98,31806.1,34631.8,-0.946,-0.9065,145.3,96.4,0.544
9.0,31792.8,34530.2,-1.0105,-1.1559,145.3,96.4,0.544
9.02,31618.2,34505.6,-1.8547,-1.2165,145.3,96.4,0.544
9.04,31744.9,34499.4,-1.2422,-1.2316,145.3,96.4,0.544
9.06,31834.6,34665.1,-0.8082,-0.8245,145.3,96.4,0.544
9.08,32061.1,35107.7,0.2876,0.2627,145.3,96.4,0.544
9.1,32262.2,35440.6,1.2602,1.0803,145.3,96.4,0.544
9.12,32398.6,35686.1,1.92,1.6832,145.3,96.4,0.544
9.14,32382.4,35765.7,1.8417,1.8788,145.3,96.4,0.544
9.16,32308.5,35684.7,1.4839,1.6798,145.3,96.4,0.544
9.18,32289.3,35378.6,1.3913,0.9279,145.3,96.4,0.544
9.2,32229.2,35219.4,1.1007,0.5368,145.3,96.4,0.544
9.22,32037.1,35092.6,0.1713,0.2256,145.3,96.4,0.544
9.24,32062.4,35005.0,0.2939,0.0104,145.3,96.4,0.544
9.26,32029.8,34965.8,0.1358,-0.086,145.3,96.4,0.544
9.28,31935.1,34896.0,-0.3219,-0.2573,145.3,96.4,0.544
9.3,31916.3,34804.9,-0.413,-0.4812,145.3,96.4,0.544
9.32,31845.6,34706.7,-0.7549,-0.7225,145.3,96.4,0.544
9.34,31838.0,34681.1,-0.7918,-0.7853,145.3,96.4,0.544
9.36,31814.8,34641.0,-0.9037,-0.8838,145.3,96.4,0.544
9.38,31788.1,34639.3,-1.0331,-0.8879,145.3,96.4,0.544
9.4,31807.7,34617.7,-0.9383,-0.9409,145.3,96.4,0.544
9.42,31727.6,34480.9,-1.326,-1.277,145.3,96.4,0.544
9.44,31806.2,34437.6,-0.9457,-1.3834,145.3,96.4,0.544
9.46,31882.5,34590.5,-0.5765,-1.0079,145.3,96.4,0.544
9.48,32035.0,34935.7,0.1611,-0.1599,145.3,96.4,0.544
9.5,32022.6,35213.9,0.101,0.5234,145.3,96.4,0.544
9.52,32326.7,35558.0,1.5722,1.3685,145.3,96.4,0.544
9.54,32365.9,35715.6,1.7616,1.7558,145.3,96.4,0.544
9.56,32319.4,35737.0,1.5367,1.8083,145.3,96.4,0.544
9.58,32167.8,35600.6,0.8035,1.4734,145.3,96.4,0.544
9.6,32111.7,35369.7,0.5323,0.9061,145.3,96.4,0.544
9.62,32120.3,35220.2,0.5737,0.539,145.3,96.4,0.544
9.64,31979.9,35072.4,-0.1052,0.1759,145.3,96.4,0.544
9.66,32045.9,35124.2,0.2141,0.303,145.3,96.4,0.544
9.68,32021.8,34986.8,0.0973,-0.0344,145.3,96.4,0.544
9.7,31962.4,34906.7,-0.1899,-0.2311,145.3,96.4,0.544
9.72,31885.6,34739.3,-0.5617,-0.6423,145.3,96.4,0.544
9.74,31795.8,34680.6,-0.9959,-0.7866,145.3,96.4,0.544
9.76,31818.6,34673.5,-0.8858,-0.8039,145.3,96.4,0.544
9.78,31888.0,34610.5,-0.5499,-0.9588,145.3,96.4,0.544
9.8,31832.9,34758.1,-0.8165,-0.5962,145.3,96.4,0.544
9.82,31847.5,34583.1,-0.7456,-1.026,145.3,96.4,0.544
9.84,31676.6,34512.6,-1.5724,-1.1993,145.3,96.4,0.544
9.86,31666.5,34390.9,-1.6212,-1.498,145.3,96.4,0.544
9.88,31829.2,34580.4,-0.8345,-1.0327,145.3,96.4,0.544
9.9,32012.7,35029.2,0.0531,0.0697,145.3,96.4,0.544
9.92,32248.8,35250.0,1.1951,0.6122,145.3,96.4,0.544
9.94,32207.7,35674.3,0.9964,1.6542,145.3,96.4,0.544
9.96,32428.1,35748.3,2.0627,1.836,145.3,96.4,0.544
9.98,32463.9,35717.1,2.2359,1.7595,145.3,96.4,0.544
10.0,32268.9,35429.9,1.2924,1.0539,145.3,96.4,0.544
10.02,32129.9,35253.3,0.62,0.6203,145.3,96.4,0.544
10.04,32136.7,35144.4,0.6531,0.3528,145.3,96.4,0.544
10.06,31973.1,35135.4,-0.1384,0.3306,145.3,96.4,0.544
10.08,32058.8,35053.6,0.2761,0.1297,145.3,96.4,0.544
10.1,31955.7,34986.0,-0.2224,-0.0363,145.3,96.4,0.544
10.12,31909.7,34771.7,-0.445,-0.5628,145.3,96.4,0.544
10.14,31883.2,34830.6,-0.5731,-0.4181,145.3,96.4,0.544
10.16,31766.8,34785.8,-1.1364,-0.5281,145.3,96.4,0.544
10.18,31812.4,34563.2,-0.9157,-1.075,145.3,96.4,0.544
10.2,31917.1,34707.2,-0.4089,-0.7213,145.3,96.4,0.544
10.22,31864.9,34579.5,-0.6618,-1.035,145.3,96.4,0.544
10.24,31676.9,34566.0,-1.5711,-1.068,145.3,96.4,0.544
10.26,31780.6,34406.7,-1.0692,-1.4593,145.3,96.4,0.544
10.28,31701.4,34518.9,-1.4525,-1.1838,145.3,96.4,0.544
10.3,31857.6,34738.2,-0.697,-0.645,145.3,96.4,0.544
10.32,32029.3,35007.5,0.1334,0.0164,145.3,96.4,0.544
10.34,32293.4,35474.1,1.411,1.1626,145.3,96.4,0.544
10.36,32377.1,35678.8,1.8159,1.6653,145.3,96.4,0.544
10.38,32340.3,35860.5,1.638,2.1117,145.3,96.4,0.544
10.4,32281.9,35610.3,1.3552,1.4971,145.3,96.4,0.544
10.42,32230.6,35355.1,1.1073,0.8701,145.3,96.4,0.544
10.44,32090.1,35257.7,0.4275,0.6309,145.3,96.4,0.544
10.46,32067.1,35151.3,0.3165,0.3697,145.3,96.4,0.544
10.48,32004.1,35118.2,0.0118,0.2884,145.3,96.4,0.544
10.5,32020.4,35029.9,0.0907,0.0714,145.3,96.4,0.544
10.52,32112.4,34880.0,0.5354,-0.2967,145.3,96.4,0.544
10.54,32026.4,34811.4,0.1193,-0.4652,145.3,96.4,0.544
10.56,31947.5,34748.5,-0.2619,-0.6198,145.3,96.4,0.544
10.58,31908.6,34671.5,-0.4502,-0.8089,145.3,96.4,0.544
10.6,31832.6,34664.5,-0.8181,-0.8261,145.3,96.4,0.544
10.62,31790.9,34552.9,-1.0198,-1.1001,145.3,96.4,0.544
10.64,31790.6,34660.0,-1.021,-0.8372,145.3,96.4,0.544
10.66,31779.4,34447.9,-1.0754,-1.3582,145.3,96.4,0.544
10.68,31721.1,34493.3,-1.3571,-1.2466,145.3,96.4,0.544
10.7,31904.8,34556.2,-0.4685,-1.0922,145.3,96.4,0.544
10.72,31813.1,34929.6,-0.9122,-0.175,145.3,96.4,0.544
10.74,32062.4,35205.2,0.2939,0.5021,145.3,96.4,0.544
10.76,32308.0,35550.4,1.4815,1.35,145.3,96.4,0.544
10.78,32447.0,35767.1,2.1541,1.8823,145.3,96.4,0.544
10.8,32374.8,35766.4,1.8048,1.8806,145.3,96.4,0.544
10.82,32316.9,35556.4,1.5245,1.3647,145.3,96.4,0.544
10.84,32217.4,35338.7,1.0435,0.8301,145.3,96.4,0.544
10.86,31978.2,35234.5,-0.1134,0.5739,145.3,96.4,0.544
10.88,32106.7,35182.3,0.5079,0.4459,145.3,96.4,0.544
10.9,31943.9,35117.8,-0.2795,0.2875,145.3,96.4,0.544
10.92,31902.6,35089.3,-0.4794,0.2173,145.3,96.4,0.544
10.94,31953.9,34893.8,-0.2312,-0.2628,145.3,96.4,0.544
10.96,31915.3,34751.6,-0.4177,-0.6122,145.3,96.4,0.544
10.98,31785.9,34694.7,-1.0436,-0.7518,145.3,96.4,0.544
11.0,31847.1,34670.3,-0.7479,-0.8117,145.3,96.4,0.544
11.02,31892.3,34653.8,-0.5289,-0.8523,145.3,96.4,0.544
11.04,31833.0,34545.8,-0.8161,-1.1177,145.3,96.4,0.544
11.06,31781.7,34541.9,-1.0639,-1.1272,145.3,96.4,0.544
11.08,31704.3,34493.8,-1.4386,-1.2454,145.3,96.4,0.544
11.1,31789.8,34529.2,-1.0249,-1.1583,145.3,96.4,0.544
11.12,31783.6,34628.4,-1.0548,-0.9147,145.3,96.4,0.544
11.14,32051.1,34882.2,0.2389,-0.2914,145.3,96.4,0.544
11.16,32183.3,35357.8,0.8786,0.8768,145.3,96.4,0.544
11.18,32361.0,35668.0,1.738,1.6387,145.3,96.4,0.544
11.2,32482.4,35770.1,2.3253,1.8896,145.3,96.4,0.544
11.22,32342.9,35673.2,1.6505,1.6516,145.3,96.4,0.544
11.24,32274.6,35441.5,1.3201,1.0825,145.3,96.4,0.544
11.26,32106.2,35285.7,0.5057,0.6999,145.3,96.4,0.544
11.28,32089.4,35142.1,0.4241,0.3472,145.3,96.4,0.544
11.3,32015.4,35047.0,0.0663,0.1134,145.3,96.4,0.544
11.32,31982.7,34936.4,-0.0917,-0.1583,145.3,96.4,0.544
11.34,32046.4,35041.7,0.2165,0.1004,145.3,96.4,0.544
11.36,31920.8,34893.7,-0.3911,-0.263,145.3,96.4,0.544
11.38,31959.0,34760.3,-0.2065,-0.5908,145.3,96.4,0.544
11.4,31877.8,34765.0,-0.5995,-0.5792,145.3,96.4,0.544
11.42,31781.6,34725.7,-1.0645,-0.6757,145.3,96.4,0.544
11.44,31871.8,34611.6,-0.6285,-0.9559,145.3,96.4,0.544
11.46,31772.6,34577.7,-1.1082,-1.0392,145.3,96.4,0.544
11.48,31697.6,34542.0,-1.4709,-1.127,145.3,96.4,0.544
11.5,31810.0,34461.3,-0.9274,-1.3251,145.3,96.4,0.544
11.52,31783.9,34554.6,-1.0536,-1.0961,145.3,96.4,0.544
11.54,31882.4,34771.0,-0.577,-0.5644,145.3,96.4,0.544
11.56,32109.6,35193.3,0.5218,0.4729,145.3,96.4,0.544
11.58,32222.8,35480.4,1.0696,1.1781,145.3,96.4,0.544
11.6,32366.2,35739.4,1.7633,1.8142,145.3,96.4,0.544
11.62,32358.5,35778.1,1.7257,1.9094,145.3,96.4,0.544
11.64,32292.8,35636.4,1.4083,1.5613,145.3,96.4,0.544
11.66,32208.0,35400.4,0.9981,0.9815,145.3,96.4,0.544
11.68,32147.4,35218.7,0.7046,0.5352,145.3,96.4,0.544
11.7,31999.2,35163.4,-0.0118,0.3995,145.3,96.4,0.544
11.72,32090.4,35136.3,0.4293,0.3329,145.3,96.4,0.544
11.74,32013.4,35030.3,0.0566,0.0725,145.3,96.4,0.544
11.76,31998.6,35038.4,-0.0151,0.0924,145.3,96.4,0.544
11.78,31920.4,34799.5,-0.393,-0.4945,145.3,96.4,0.544
11.8,31805.2,34649.2,-0.9506,-0.8638,145.3,96.4,0.544
11.82,31927.3,34673.4,-0.3596,-0.8041,145.3,96.4,0.544
11.84,31866.6,34670.5,-0.6535,-0.8114,145.3,96.4,0.544
11.86,31849.1,34533.1,-0.7379,-1.1487,145.3,96.4,0.544
11.88,31762.3,34568.8,-1.1581,-1.0612,145.3,96.4,0.544
11.9,31750.1,34575.9,-1.2169,-1.0437,145.3,96.4,0.544
11.92,31793.9,34456.1,-1.0049,-1.3379,145.3,96.4,0.544
11.94,31774.1,34542.2,-1.1009,-1.1265,145.3,96.4,0.544
11.96,31865.5,34855.5,-0.6588,-0.3568,145.3,96.4,0.544
11.98,32089.4,35191.4,0.4245,0.4682,145.3,96.4,0.544
12.0,32279.4,35531.6,1.3435,1.3039,145.3,96.4,0.544
12.02,32363.7,35764.6,1.7511,1.876,145.3,96.4,0.544
12.04,32361.9,35706.9,1.7423,1.7344,145.3,96.4,0.544
12.06,32169.0,35540.4,0.8093,1.3254,145.3,96.4,0.544
12.08,32197.6,35386.9,0.9477,0.9484,145.3,96.4,0.544
12.1,32097.7,35230.0,0.4643,0.5631,145.3,96.4,0.544
12.12,32130.2,35167.2,0.6216,0.4086,145.3,96.4,0.544
12.14,32071.2,35125.6,0.3364,0.3066,145.3,96.4,0.544
12.16,31974.8,35046.4,-0.13,0.1119,145.3,96.4,0.544
12.18,31980.9,34993.3,-0.1005,-0.0184,145.3,96.4,0.544
12.2,31926.9,34791.1,-0.3617,-0.5151,145.3,96.4,0.544
12.22,31814.7,34737.5,-0.9044,-0.6469,145.3,96.4,0.544
12.24,31795.0,34708.6,-0.9996,-0.7177,145.3,96.4,0.544
12.26,31794.3,34659.6,-1.0033,-0.8382,145.3,96.4,0.544
12.28,31839.3,34660.4,-0.7854,-0.836,145.3,96.4,0.544
12.3,31795.8,34511.2,-0.9961,-1.2026,145.3,96.4,0.544
12.32,31720.6,34440.1,-1.3594,-1.3773,145.3,96.4,0.544
12.34,31692.2,34580.9,-1.4968,-1.0313,145.3,96.4,0.544
12.36,31830.8,34630.0,-0.8263,-0.9109,145.3,96.4,0.544
12.38,32047.8,35000.4,0.2232,-0.0011,145.3,96.4,0.544
12.4,32129.7,35403.9,0.6192,0.9902,145.3,96.4,0.544
12.42,32285.0,35753.7,1.3706,1.8493,145.3,96.4,0.544
12.44,32384.9,35838.8,1.8538,2.0583,145.3,96.4,0.544
12.46,32267.6,35636.1,1.2863,1.5605,145.3,96.4,0.544
12.48,32296.0,35472.0,1.4237,1.1573,145.3,96.4,0.544
12.5,32130.6,35300.5,0.6237,0.7361,145.3,96.4,0.544
12.52,32097.1,35251.4,0.4617,0.6155,145.3,96.4,0.544
12.54,32123.3,35148.7,0.5884,0.3633,145.3,96.4,0.544
12.56,32094.1,34988.9,0.447,-0.0293,145.3,96.4,0.544
12.58,31976.7,34989.6,-0.1207,-0.0276,145.3,96.4,0.544
12.6,31969.1,34914.1,-0.1575,-0.2131,145.3,96.4,0.544
12.62,31867.0,34802.0,-0.6513,-0.4883,145.3,96.4,0.544
12.64,31927.1,34654.8,-0.3606,-0.8499,145.3,96.4,0.544
12.66,31834.9,34679.1,-0.8069,-0.7902,145.3,96.4,0.544
12.68,31870.5,34721.4,-0.6346,-0.6864,145.3,96.4,0.544
12.7,31838.6,34621.0,-0.789,-0.933,145.3,96.4,0.544
12.72,31809.0,34444.3,-0.9322,-1.367,145.3,96.4,0.544
12.74,31705.6,34463.7,-1.432,-1.3194,145.3,96.4,0.544
12.76,31767.5,34470.9,-1.1327,-1.3016,145.3,96.4,0.544
12.78,31836.5,34858.4,-0.7989,-0.3497,145.3,96.4,0.544
12.8,32006.4,35103.3,0.0226,0.2517,145.3,96.4,0.544
12.82,32235.4,35543.5,1.1306,1.3331,145.3,96.4,0.544
12.84,32323.8,35649.4,1.558,1.5933,145.3,96.4,0.544
12.86,32367.6,35731.9,1.7701,1.7957,145.3,96.4,0.544
12.88,32254.7,35611.4,1.2236,1.4997,145.3,96.4,0.544
12.9,32137.8,35434.0,0.6586,1.0641,145.3,96.4,0.544
12.92,32153.1,35192.9,0.7325,0.4719,145.3,96.4,0.544
12.94,31989.7,35086.6,-0.0578,0.2107,145.3,96.4,0.544
12.96,31981.7,35071.8,-0.0965,0.1743,145.3,96.4,0.544
12.98,32102.4,35057.3,0.4873,0.1387,145.3,96.4,0.544
13.0,31991.7,34966.0,-0.0483,-0.0854,145.3,96.4,0.544
13.02,31914.2,34922.3,-0.4231,-0.1928,145.3,96.4,0.544
13.04,31857.5,34743.0,-0.6974,-0.6332,145.3,96.4,0.544
13.06,31818.7,34709.2,-0.8852,-0.7162,145.3,96.4,0.544
13.08,31757.5,34645.4,-1.1809,-0.8731,145.3,96.4,0.544
13.1,31844.5,34681.1,-0.7605,-0.7854,145.3,96.4,0.544
13.12,31867.9,34607.5,-0.6472,-0.9662,145.3,96.4,0.544
13.14,31646.2,34384.8,-1.7194,-1.5132,145.3,96.4,0.544
13.16,31650.3,34430.9,-1.6998,-1.3998,145.3,96.4,0.544
13.18,31787.1,34553.0,-1.0378,-1.1,145.3,96.4,0.544
13.2,31966.3,34954.3,-0.1711,-0.1142,145.3,96.4,0.544
13.22,32173.1,35194.2,0.829,0.4751,145.3,96.4,0.544
13.24,32284.9,35670.6,1.3701,1.6451,145.3,96.4,0.544
13.26,32450.0,35722.5,2.1685,1.7727,145.3,96.4,0.544
13.28,32347.0,35707.0,1.6701,1.7346,145.3,96.4,0.544
13.3,32297.0,35557.4,1.4286,1.3673,145.3,96.4,0.544
13.32,32191.6,35337.8,0.9187,0.8278,145.3,96.4,0.544
13.34,32029.8,35198.8,0.1359,0.4864,145.3,96.4,0.544
13.36,32069.4,35228.2,0.3273,0.5585,145.3,96.4,0.544
13.38,32130.5,35031.5,0.6231,0.0755,145.3,96.4,0.544
13.4,32019.2,35007.8,0.0847,0.0172,145.3,96.4,0.544
13.42,31955.3,34997.4,-0.2246,-0.0085,145.3,96.4,0.544
13.44,31908.6,34713.5,-0.4504,-0.7057,145.3,96.4,0.544
13.46,31810.6,34676.4,-0.9244,-0.797,145.3,96.4,0.544
13.48,31881.5,34753.5,-0.5812,-0.6075,145.3,96.4,0.544
13.5,31828.5,34710.3,-0.8379,-0.7136,145.3,96.4,0.544
13.52,31844.1,34650.3,-0.762,-0.8609,145.3,96.4,0.544
13.54,31772.4,34547.0,-1.1091,-1.1148,145.3,96.4,0.544
13.56,31728.5,34489.6,-1.3212,-1.2558,145.3,96.4,0.544
13.58,31768.2,34492.4,-1.1295,-1.2487,145.3,96.4,0.544
13.6,31837.1,34673.3,-0.7962,-0.8046,145.3,96.4,0.544
13.62,32015.4,35048.8,0.0663,0.1179,145.3,96.4,0.544
13.64,32120.5,35445.6,0.5745,1.0925,145.3,96.4,0.544
13.66,32440.2,35698.5,2.1213,1.7139,145.3,96.4,0.544
13.68,32354.6,35661.6,1.707,1.623,145.3,96.4,0.544
13.7,32237.5,35633.8,1.1405,1.5548,145.3,96.4,0.544
13.72,32228.5,35490.6,1.0973,1.203,145.3,96.4,0.544
13.74,32133.1,35305.0,0.6358,0.7472,145.3,96.4,0.544
13.76,32138.8,35098.9,0.6631,0.2409,145.3,96.4,0.544
13.78,32079.3,35078.2,0.3756,0.1901,145.3,96.4,0.544
13.8,31974.2,35028.6,-0.1329,0.0682,145.3,96.4,0.544
13.82,32028.7,34972.0,0.1306,-0.0708,145.3,96.4,0.544
13.84,31900.9,34865.3,-0.4874,-0.3328,145.3,96.4,0.544
13.86,31854.4,34743.0,-0.7126,-0.6332,145.3,96.4,0.544
13.88,31848.0,34715.9,-0.7435,-0.6997,145.3,96.4,0.544
13.9,31912.2,34592.3,-0.4328,-1.0035,145.3,96.4,0.544
13.92,31873.6,34666.8,-0.6195,-0.8205,145.3,96.4,0.544
13.94,31733.2,34587.9,-1.2986,-1.0143,145.3,96.4,0.544
13.96,31694.3,34504.1,-1.4867,-1.2201,145.3,96.4,0.544
13.98,31720.2,34428.6,-1.3616,-1.4056,145.3,96.4,0.544
14.0,31784.8,34495.2,-1.0489,-1.2419,145.3,96.4,0.544
14.02,31865.7,34879.2,-0.658,-0.2987,145.3,96.4,0.544
14.04,32102.5,35146.3,0.4878,0.3573,145.3,96.4,0.544
14.06,32219.5,35529.3,1.0536,1.2981,145.3,96.4,0.544
14.08,32361.7,35776.7,1.7413,1.9058,145.3,96.4,0.544
14.1,32443.6,35807.8,2.1374,1.9822,145.3,96.4,0.544
14.12,32295.6,35581.0,1.4218,1.4252,145.3,96.4,0.544
14.14,32190.6,35421.3,0.9136,1.0329,145.3,96.4,0.544
14.16,32208.9,35201.6,1.0024,0.4933,145.3,96.4,0.544
14.18,32077.8,35066.1,0.368,0.1605,145.3,96.4,0.544
14.2,32128.3,34965.5,0.6124,-0.0867,145.3,96.4,0.544
14.22,32067.4,34919.4,0.318,-0.1999,145.3,96.4,0.544
14.24,31895.1,34885.8,-0.5154,-0.2824,145.3,96.4,0.544
14.26,31805.0,34843.7,-0.9516,-0.386,145.3,96.4,0.544
14.28,31807.8,34775.8,-0.9377,-0.5527,145.3,96.4,0.544
14.3,31776.4,34695.9,-1.0895,-0.7489,145.3,96.4,0.544
14.32,31855.4,34645.8,-0.7074,-0.872,145.3,96.4,0.544
14.34,31855.5,34586.6,-0.7071,-1.0174,145.3,96.4,0.544
14.36,31826.8,34553.5,-0.8458,-1.0988,145.3,96.4,0.544
14.38,31776.1,34462.1,-1.0913,-1.3233,145.3,96.4,0.544
14.4,31653.3,34375.8,-1.6853,-1.5353,145.3,96.4,0.544
14.42,31860.3,34629.8,-0.684,-0.9114,145.3,96.4,0.544
14.44,32013.6,34939.5,0.0578,-0.1506,145.3,96.4,0.544
14.46,32082.5,35316.1,0.3909,0.7746,145.3,96.4,0.544
14.48,32289.6,35639.9,1.3927,1.5697,145.3,96.4,0.544
14.5,32295.6,35719.6,1.4218,1.7657,145.3,96.4,0.544
14.52,32298.5,35735.5,1.4356,1.8047,145.3,96.4,0.544
14.54,32190.7,35639.7,0.9144,1.5693,145.3,96.4,0.544
14.56,32226.3,35346.3,1.0863,0.8486,145.3,96.4,0.544
14.58,32151.2,35215.3,0.7231,0.5269,145.3,96.4,0.544
14.6,32115.1,35119.6,0.5485,0.2919,145.3,96.4,0.544
14.62,32067.6,35085.5,0.3187,0.2081,145.3,96.4,0.544
14.64,31953.0,34941.3,-0.2354,-0.1461,145.3,96.4,0.544
14.66,31881.3,34846.3,-0.5823,-0.3796,145.3,96.4,0.544
14.68,31847.7,34708.0,-0.7447,-0.7193,145.3,96.4,0.544
14.7,31915.0,34699.6,-0.4191,-0.7398,145.3,96.4,0.544
14.72,31849.8,34665.7,-0.7347,-0.8231,145.3,96.4,0.544
14.74,31762.9,34609.2,-1.1549,-0.9619,145.3,96.4,0.544
14.76,31861.5,34673.9,-0.6782,-0.803,145.3,96.4,0.544
14.78,31775.2,34485.2,-1.0953,-1.2666,145.3,96.4,0.544
14.8,31819.8,34439.9,-0.88,-1.3778,145.3,96.4,0.544
14.82,31748.2,34538.9,-1.2261,-1.1346,145.3,96.4,0.544
14.84,31862.6,34656.7,-0.673,-0.8453,145.3,96.4,0.544
14.86,31949.2,34993.4,-0.254,-0.0182,145.3,96.4,0.544
14.88,32228.3,35442.9,1.0963,1.086,145.3,96.4,0.544
14.9,32351.3,35719.0,1.6912,1.7642,145.3,96.4,0.544
14.92,32374.4,35739.6,1.8027,1.8148,145.3,96.4,0.544
14.94,32252.6,35672.8,1.2137,1.6505,145.3,96.4,0.544
14.96,32268.3,35460.6,1.2896,1.1294,145.3,96.4,0.544
14.98,32092.2,35245.5,0.438,0.601,145.3,96.4,0.544
15.0,32194.3,35125.2,0.9318,0.3055,145.3,96.4,0.544
15.02,31997.3,35041.0,-0.021,0.0987,145.3,96.4,0.544
15.04,31998.2,35056.9,-0.0171,0.1379,145.3,96.4,0.544
15.06,32000.3,35008.7,-0.0065,0.0194,145.3,96.4,0.544
15.08,31882.0,34860.4,-0.579,-0.3448,145.3,96.4,0.544
15.1,31856.0,34786.4,-0.7047,-0.5266,145.3,96.4,0.544
15.12,31969.0,34635.0,-0.1581,-0.8986,145.3,96.4,0.544
15.14,31796.8,34739.6,-0.9909,-0.6417,145.3,96.4,0.544
15.16,31880.4,34531.0,-0.5866,-1.1541,145.3,96.4,0.544
15.18,31811.9,34619.3,-0.9182,-0.937,145.3,96.4,0.544
15.2,31727.2,34449.8,-1.3277,-1.3536,145.3,96.4,0.544
15.22,31762.7,34433.3,-1.1559,-1.3939,145.3,96.4,0.544
15.24,31815.7,34576.3,-0.8996,-1.0428,145.3,96.4,0.544
15.26,31975.4,34790.8,-0.1272,-0.5157,145.3,96.4,0.544
15.28,31972.0,35122.6,-0.1434,0.2992,145.3,96.4,0.544
15.3,32273.4,35518.4,1.3141,1.2713,145.3,96.4,0.544
15.32,32382.3,35657.7,1.8411,1.6135,145.3,96.4,0.544
15.34,32348.3,35739.7,1.6767,1.8149,145.3,96.4,0.544
15.36,32376.3,35559.4,1.8123,1.3721,145.3,96.4,0.544
15.38,32158.4,35454.5,0.758,1.1145,145.3,96.4,0.544
15.4,32107.7,35185.5,0.513,0.4537,145.3,96.4,0.544
15.42,32136.2,35200.6,0.6506,0.4907,145.3,96.4,0.544
15.44,32078.8,35151.4,0.373,0.3698,145.3,96.4,0.544
15.46,31981.0,35076.7,-0.1002,0.1865,145.3,96.4,0.544
15.48,31927.6,34814.6,-0.3582,-0.4575,145.3,96.4,0.544
15.5,31851.5,34808.4,-0.7266,-0.4727,145.3,96.4,0.544
15.52,31846.1,34681.0,-0.7526,-0.7855,145.3,96.4,0.544
15.54,31854.3,34763.7,-0.713,-0.5824,145.3,96.4,0.544
15.56,31757.5,34619.6,-1.1811,-0.9364,145.3,96.4,0.544
15.58,31767.9,34659.5,-1.1307,-0.8383,145.3,96.4,0.544
15.6,31853.1,34548.0,-0.7187,-1.1122,145.3,96.4,0.544
15.62,31789.2,34460.8,-1.0278,-1.3265,145.3,96.4,0.544
15.64,31769.1,34405.1,-1.1252,-1.4634,145.3,96.4,0.544
15.66,31875.7,34660.9,-0.6093,-0.8349,145.3,96.4,0.544
15.68,31985.2,34865.3,-0.0798,-0.333,145.3,96.4,0.544
15.7,32156.6,35269.9,0.7494,0.6611,145.3,96.4,0.544
15.72,32335.1,35639.2,1.6126,1.5681,145.3,96.4,0.544
15.74,32394.0,35780.3,1.8978,1.9147,145.3,96.4,0.544
15.76,32295.1,35765.7,1.4194,1.8788,145.3,96.4,0.544
15.78,32296.0,35526.0,1.4236,1.2901,145.3,96.4,0.544
15.8,32062.0,35287.4,0.2917,0.7039,145.3,96.4,0.544
15.82,32152.3,35085.7,0.7288,0.2086,145.3,96.4,0.544
15.84,32012.3,35090.3,0.0513,0.2197,145.3,96.4,0.544
15.86,31954.4,35028.9,-0.2288,0.069,145.3,96.4,0.544
15.88,31957.1,35014.0,-0.2156,0.0325,145.3,96.4,0.544
15.9,31902.3,34912.3,-0.4809,-0.2175,145.3,96.4,0.544
15.92,31846.4,34799.6,-0.7509,-0.4942,145.3,96.4,0.544
15.94,31842.6,34727.7,-0.7697,-0.6709,145.3,96.4,0.544
15.96,31841.5,34713.7,-0.7748,-0.7051,145.3,96.4,0.544
15.98,31826.8,34685.3,-0.8459,-0.7749,145.3,96.4,0.544
16.0,31827.3,34547.1,-0.8434,-1.1146,145.3,96.4,0.544
16.02,31806.2,34478.8,-0.9456,-1.2821,145.3,96.4,0.544
16.04,31761.2,34567.9,-1.1634,-1.0634,145.3,96.4,0.544
16.06,31821.2,34467.4,-0.8731,-1.3101,145.3,96.4,0.544
16.08,31852.6,34713.9,-0.721,-0.7048,145.3,96.4,0.544
16.1,32140.0,35094.1,0.6691,0.2292,145.3,96.4,0.544
16.12,32214.0,35448.0,1.027,1.0985,145.3,96.4,0.544
16.14,32361.5,35717.3,1.7403,1.76,145.3,96.4,0.544
16.16,32396.5,35787.1,1.9097,1.9313,145.3,96.4,0.544
16.18,32311.6,35629.5,1.4993,1.5443,145.3,96.4,0.544
16.2,32125.8,35508.6,0.6003,1.2474,145.3,96.4,0.544
16.22,32122.8,35176.2,0.5856,0.4309,145.3,96.4,0.544
16.24,32043.3,35165.0,0.2014,0.4033,145.3,96.4,0.544
16.26,31996.9,35085.6,-0.0232,0.2082,145.3,96.4,0.544
16.28,32034.7,35031.9,0.1595,0.0764,145.3,96.4,0.544
16.3,31950.0,34856.5,-0.2501,-0.3544,145.3,96.4,0.544
16.32,32025.4,34850.5,0.1145,-0.3693,145.3,96.4,0.544
16.34,31837.9,34763.8,-0.7921,-0.5821,145.3,96.4,0.544
16.36,31856.6,34664.4,-0.702,-0.8263,145.3,96.4,0.544
16.38,31876.8,34703.8,-0.604,-0.7295,145.3,96.4,0.544
16.4,31797.7,34675.7,-0.9867,-0.7987,145.3,96.4,0.544
16.42,31713.4,34595.3,-1.3946,-0.9962,145.3,96.4,0.544
16.44,31763.0,34529.5,-1.1543,-1.1577,145.3,96.4,0.544
16.46,31637.7,34497.2,-1.7604,-1.237,145.3,96.4,0.544
16.48,31729.0,34582.5,-1.3188,-1.0276,145.3,96.4,0.544
16.5,31924.5,34873.2,-0.3733,-0.3133,145.3,96.4,0.544
16.52,32095.1,35193.7,0.4516,0.4738,145.3,96.4,0.544
16.54,32246.5,35535.8,1.1843,1.314,145.3,96.4,0.544
16.56,32343.1,35701.5,1.6514,1.7211,145.3,96.4,0.544
16.58,32403.6,35662.7,1.9439,1.6257,145.3,96.4,0.544
16.6,32352.9,35570.2,1.6988,1.3986,145.3,96.4,0.544
16.62,32236.1,35404.2,1.1337,0.9909,145.3,96.4,0.544
16.64,32139.2,35233.0,0.6652,0.5703,145.3,96.4,0.544
16.66,32051.3,35139.2,0.2398,0.34,145.3,96.4,0.544
16.68,32172.6,35083.6,0.8268,0.2033,145.3,96.4,0.544
16.7,32096.8,34941.1,0.4603,-0.1467,145.3,96.4,0.544
16.72,32039.4,34858.6,0.1822,-0.3492,145.3,96.4,0.544
16.74,31918.6,34799.7,-0.4019,-0.4939,145.3,96.4,0.544
16.76,31894.0,34706.2,-0.5207,-0.7237,145.3,96.4,0.544
16.78,31817.8,34686.1,-0.8895,-0.7731,145.3,96.4,0.544
16.8,31880.3,34707.4,-0.5871,-0.7207,145.3,96.4,0.544
16.82,31742.8,34620.5,-1.2521,-0.934,145.3,96.4,0.544
16.84,31692.7,34568.8,-1.4947,-1.0612,145.3,96.4,0.544
16.86,31744.5,34424.0,-1.2443,-1.4168,145.3,96.4,0.544
16.88,31784.2,34397.3,-1.0519,-1.4825,145.3,96.4,0.544
16.9,31856.9,34623.4,-0.7002,-0.927,145.3,96.4,0.544
16.92,32010.7,34894.5,0.0434,-0.2612,145.3,96.4,0.544
16.94,32164.5,35420.0,0.7876,1.0298,145.3,96.4,0.544
16.96,32265.3,35685.5,1.2752,1.6818,145.3,96.4,0.544
16.98,32431.0,35737.5,2.0766,1.8097,145.3,96.4,0.544
17.0,32312.1,35713.3,1.5015,1.7502,145.3,96.4,0.544
17.02,32295.3,35600.6,1.4202,1.4732,145.3,96.4,0.544
17.04,32114.7,35184.7,0.5465,0.4516,145.3,96.4,0.544
17.06,32100.6,35138.6,0.4787,0.3384,145.3,96.4,0.544
17.08,32092.3,35161.4,0.4385,0.3944,145.3,96.4,0.544
17.1,32104.9,35040.7,0.4992,0.0981,145.3,96.4,0.544
17.12,32080.1,34990.7,0.3792,-0.0249,145.3,96.4,0.544
17.14,31970.0,34816.4,-0.1532,-0.453,145.3,96.4,0.544
17.16,31928.7,34797.2,-0.3532,-0.5002,145.3,96.4,0.544
17.18,31884.1,34676.7,-0.5688,-0.7962,145.3,96.4,0.544
17.2,31785.9,34637.3,-1.0436,-0.8929,145.3,96.4,0.544
17.22,31908.2,34692.8,-0.4522,-0.7566,145.3,96.4,0.544
17.24,31861.1,34666.8,-0.6802,-0.8205,145.3,96.4,0.544
17.26,31696.4,34596.4,-1.4765,-0.9934,145.3,96.4,0.544
17.28,31812.9,34390.4,-0.9132,-1.4994,145.3,96.4,0.544
17.3,31766.3,34505.3,-1.1386,-1.2172,145.3,96.4,0.544
17.32,31850.5,34759.8,-0.7315,-0.592,145.3,96.4,0.544
17.34,32075.4,35106.4,0.3565,0.2593,145.3,96.4,0.544
17.36,32192.1,35417.6,0.9208,1.0238,145.3,96.4,0.544
17.38,32305.0,35659.1,1.4672,1.6169,145.3,96.4,0.544
17.4,32344.7,35812.1,1.6592,1.9927,145.3,96.4,0.544
17.42,32295.9,35539.6,1.4232,1.3235,145.3,96.4,0.544
17.44,32144.1,35349.1,0.689,0.8555,145.3,96.4,0.544
17.46,32156.7,35278.1,0.7498,0.6812,145.3,96.4,0.544
17.48,32075.4,35181.9,0.3564,0.4449,145.3,96.4,0.544
17.5,32097.8,35180.0,0.4648,0.4402,145.3,96.4,0.544
17.52,32056.1,35093.5,0.2632,0.2276,145.3,96.4,0.544
17.54,32003.1,34947.7,0.0069,-0.1305,145.3,96.4,0.544
17.56,31889.4,34791.6,-0.5432,-0.5139,145.3,96.4,0.544
17.58,31896.8,34761.2,-0.5074,-0.5885,145.3,96.4,0.544
17.6,31848.5,34714.6,-0.7411,-0.703,145.3,96.4,0.544
17.62,31932.8,34536.9,-0.3333,-1.1395,145.3,96.4,0.544
17.64,31802.3,34655.0,-0.9644,-0.8494,145.3,96.4,0.544
17.66,31761.1,34534.0,-1.1637,-1.1467,145.3,96.4,0.544
17.68,31732.0,34419.9,-1.3043,-1.4268,145.3,96.4,0.544
17.7,31712.7,34433.5,-1.398,-1.3936,145.3,96.4,0.544
17.72,31662.5,34517.3,-1.6405,-1.1876,145.3,96.4,0.544
17.74,31941.9,34843.2,-0.2891,-0.3872,145.3,96.4,0.544
17.76,32055.9,35294.5,0.2623,0.7214,145.3,96.4,0.544
17.78,32307.9,35578.6,1.4813,1.4193,145.3,96.4,0.544
17.8,32422.3,35761.2,2.0346,1.8677,145.3,96.4,0.544
17.82,32321.6,35670.1,1.5473,1.644,145.3,96.4,0.544
17.84,32249.2,35565.1,1.1971,1.386,145.3,96.4,0.544
17.86,32179.9,35319.2,0.8621,0.7821,145.3,96.4,0.544
17.88,32063.5,35205.8,0.2991,0.5036,145.3,96.4,0.544
17.9,32073.8,35093.5,0.3488,0.2277,145.3,96.4,0.544
17.92,32064.1,35094.6,0.3017,0.2304,145.3,96.4,0.544
17.94,32077.0,35019.4,0.3641,0.0457,145.3,96.4,0.544
17.96,31988.4,34882.1,-0.0642,-0.2915,145.3,96.4,0.544
17.98,31865.6,34779.1,-0.6584,-0.5447,145.3,96.4,0.544
18.0,31801.5,34653.1,-0.9685,-0.854,145.3,96.4,0.544
18.02,31875.6,34697.5,-0.6098,-0.745,145.3,96.4,0.544
18.04,31845.8,34707.9,-0.7539,-0.7194,145.3,96.4,0.544
18.06,31817.9,34523.6,-0.8889,-1.1721,145.3,96.4,0.544
18.08,31786.0,34660.5,-1.0431,-0.8358,145.3,96.4,0.544
18.1,31677.7,34557.9,-1.567,-1.0878,145.3,96.4,0.544
18.12,31759.2,34407.7,-1.1731,-1.4568,145.3,96.4,0.544
18.14,31795.0,34665.0,-0.9999,-0.8249,145.3,96.4,0.544
18.16,32049.1,34994.8,0.2292,-0.0147,145.3,96.4,0.544
18.18,32214.0,35398.0,1.0271,0.9757,145.3,96.4,0.544
18.2,32259.5,35671.3,1.2469,1.647,145.3,96.4,0.544
18.22,32210.4,35780.5,1.0098,1.9153,145.3,96.4,0.544
18.24,32327.3,35804.2,1.5748,1.9734,145.3,96.4,0.544
18.26,32236.7,35482.0,1.1367,1.1819,145.3,96.4,0.544
18.28,32106.8,35270.4,0.5085,0.6623,145.3,96.4,0.544
18.3,32021.7,35244.3,0.0967,0.5982,145.3,96.4,0.544
18.32,32080.7,35106.4,0.3821,0.2594,145.3,96.4,0.544
18.34,32105.8,34982.1,0.5036,-0.0461,145.3,96.4,0.544
18.36,32019.8,34902.4,0.0878,-0.2417,145.3,96.4,0.544
18.38,31876.9,34905.6,-0.6037,-0.234,145.3,96.4,0.544
18.4,31878.0,34754.7,-0.5983,-0.6045,145.3,96.4,0.544
18.42,31867.8,34605.1,-0.6478,-0.9721,145.3,96.4,0.544
18.44,31806.7,34755.5,-0.9434,-0.6026,145.3,96.4,0.544
18.46,31846.5,34604.8,-0.7505,-0.9727,145.3,96.4,0.544
18.48,31833.7,34613.1,-0.8128,-0.9524,145.3,96.4,0.544
18.5,31774.6,34551.6,-1.0985,-1.1034,145.3,96.4,0.544
18.52,31804.3,34406.7,-0.9549,-1.4593,145.3,96.4,0.544
18.54,31894.6,34492.5,-0.518,-1.2485,145.3,96.4,0.544
18.56,31841.8,34741.2,-0.7732,-0.6377,145.3,96.4,0.544
18.58,32084.0,35152.6,0.3982,0.3728,145.3,96.4,0.544
18.6,32266.4,35373.5,1.2804,0.9155,145.3,96.4,0.544
18.62,32452.0,35682.1,2.1783,1.6734,145.3,96.4,0.544
18.64,32394.8,35830.1,1.9016,2.0371,145.3,96.4,0.544
18.66,32364.8,35646.5,1.7565,1.586,145.3,96.4,0.544
18.68,32166.1,35395.0,0.7951,0.9683,145.3,96.4,0.544
18.7,32128.4,35286.5,0.613,0.7018,145.3,96.4,0.544
18.72,32126.7,35190.9,0.6045,0.4669,145.3,96.4,0.544
18.74,31997.7,35055.9,-0.0192,0.1352,145.3,96.4,0.544
18.76,32004.1,35055.0,0.0115,0.1331,145.3,96.4,0.544
18.78,32070.7,35024.3,0.334,0.0577,145.3,96.4,0.544
18.8,31851.9,34699.7,-0.7244,-0.7397,145.3,96.4,0.544
18.82,31856.7,34792.4,-0.7014,-0.512,145.3,96.4,0.544
18.84,31796.8,34711.9,-0.9912,-0.7096,145.3,96.4,0.544
18.86,31796.1,34652.0,-0.9946,-0.8567,145.3,96.4,0.544
18.88,31803.0,34672.3,-0.9609,-0.807,145.3,96.4,0.544
18.9,31845.7,34588.5,-0.7547,-1.0127,145.3,96.4,0.544
18.92,31613.7,34527.2,-1.8769,-1.1634,145.3,96.4,0.544
18.94,31682.1,34439.1,-1.546,-1.3798,145.3,96.4,0.544
18.96,31776.3,34545.8,-1.0902,-1.1176,145.3,96.4,0.544
18.98,31936.7,34893.4,-0.3144,-0.2637,145.3,96.4,0.544
19.0,32122.8,35261.6,0.586,0.6406,145.3,96.4,0.544
19.02,32363.7,35540.1,1.7511,1.3246,145.3,96.4,0.544
19.04,32397.5,35748.6,1.9146,1.8368,145.3,96.4,0.544
19.06,32309.1,35761.8,1.4871,1.8693,145.3,96.4,0.544
19.08,32324.5,35534.0,1.5617,1.3097,145.3,96.4,0.544
19.1,32168.7,35388.3,0.8081,0.9518,145.3,96.4,0.544
19.12,32162.2,35216.6,0.7764,0.53,145.3,96.4,0.544
19.14,32054.7,35135.1,0.2565,0.3298,145.3,96.4,0.544
19.16,32016.5,35145.6,0.0715,0.3556,145.3,96.4,0.544
19.18,32038.5,34968.5,0.1782,-0.0794,145.3,96.4,0.544
19.2,31886.4,34845.5,-0.5578,-0.3816,145.3,96.4,0.544
19.22,31925.9,34776.7,-0.3667,-0.5506,145.3,96.4,0.544
19.24,31808.0,34637.3,-0.9369,-0.8929,145.3,96.4,0.544
19.26,31821.2,34625.2,-0.8732,-0.9227,145.3,96.4,0.544
19.28,31898.5,34650.1,-0.4993,-0.8615,145.3,96.4,0.544
19.3,31809.8,34703.7,-0.9281,-0.7299,145.3,96.4,0.544
19.32,31805.6,34513.1,-0.9486,-1.1981,145.3,96.4,0.544
19.34,31682.9,34424.4,-1.5422,-1.4159,145.3,96.4,0.544
19.36,31798.2,34494.3,-0.9843,-1.2441,145.3,96.4,0.544
19.38,31925.2,34694.7,-0.3699,-0.7519,145.3,96.4,0.544
19.4,31914.9,34963.5,-0.4197,-0.0916,145.3,96.4,0.544
19.42,32141.7,35407.9,0.6773,1.0,145.3,96.4,0.544
19.44,32194.7,35652.6,0.9335,1.6009,145.3,96.4,0.544
19.46,32366.2,35682.3,1.7632,1.6739,145.3,96.4,0.544
19.48,32279.0,35696.3,1.3413,1.7084,145.3,96.4,0.544
19.5,32262.2,35478.5,1.2602,1.1735,145.3,96.4,0.544
19.52,32171.6,35247.3,0.8218,0.6054,145.3,96.4,0.544
19.54,32079.4,35074.4,0.376,0.1807,145.3,96.4,0.544
19.56,32035.1,35081.1,0.1618,0.1973,145.3,96.4,0.544
19.58,32085.4,35109.3,0.4048,0.2666,145.3,96.4,0.544
19.6,31917.2,34931.7,-0.4085,-0.1697,145.3,96.4,0.544
19.62,31942.6,34883.9,-0.2859,-0.2872,145.3,96.4,0.544
19.64,31872.3,34668.4,-0.6259,-0.8166,145.3,96.4,0.544
19.66,31853.4,34680.4,-0.7172,-0.7869,145.3,96.4,0.544
19.68,31818.1,34680.4,-0.8883,-0.787,145.3,96.4,0.544
19.7,31837.4,34611.4,-0.7947,-0.9564,145.3,96.4,0.544
19.72,31922.7,34613.9,-0.3823,-0.9504,145.3,96.4,0.544
19.74,31705.8,34536.9,-1.4312,-1.1395,145.3,96.4,0.544
19.76,31750.6,34429.4,-1.2143,-1.4035,145.3,96.4,0.544
19.78,31752.4,34553.9,-1.206,-1.0978,145.3,96.4,0.544
19.8,31806.0,34746.3,-0.9467,-0.6251,145.3,96.4,0.544
19.82,32005.0,35153.3,0.0161,0.3747,145.3,96.4,0.544
19.84,32265.2,35495.9,1.2746,1.216,145.3,96.4,0.544
19.86,32301.1,35835.5,1.4481,2.0502,145.3,96.4,0.544
19.88,32344.3,35732.5,1.6573,1.7972,145.3,96.4,0.544
19.9,32333.0,35559.1,1.6025,1.3714,145.3,96.4,0.544
19.92,32306.2,35419.2,1.4729,1.0278,145.3,96.4,0.544
19.94,32099.1,35157.9,0.4711,0.3859,145.3,96.4,0.544
19.96,32003.0,35140.5,0.0062,0.3432,145.3,96.4,0.544
19.98,32104.3,35081.5,0.4963,0.1982,145.3,96.4,0.544
20.0,32008.6,35091.8,0.0335,0.2235,145.3,96.4,0.544
20.02,32020.1,34963.0,0.0891,-0.0929,145.3,96.4,0.544
20.04,31999.6,34790.2,-0.0102,-0.5172,145.3,96.4,0.544
20.06,31946.3,34783.1,-0.2677,-0.5348,145.3,96.4,0.544
20.08,31843.1,34661.2,-0.767,-0.8342,145.3,96.4,0.544
20.1,31818.7,34671.3,-0.8849,-0.8093,145.3,96.4,0.544
20.12,31860.1,34663.1,-0.6849,-0.8294,145.3,96.4,0.544
20.14,31802.4,34587.5,-0.964,-1.0153,145.3,96.4,0.544
20.16,31710.6,34503.2,-1.4079,-1.2222,145.3,96.4,0.544
20.18,31681.7,34465.8,-1.548,-1.3141,145.3,96.4,0.544
20.2,31849.0,34578.9,-0.7388,-1.0364,145.3,96.4,0.544
20.22,32015.9,34799.7,0.0689,-0.4941,145.3,96.4,0.544
20.24,32141.7,35262.5,0.6774,0.6427,145.3,96.4,0.544
20.26,32238.9,35565.8,1.1475,1.3878,145.3,96.4,0.544
20.28,32371.9,35760.4,1.7906,1.8658,145.3,96.4,0.544
20.3,32326.9,35656.8,1.573,1.6114,145.3,96.4,0.544
20.32,32242.6,35607.0,1.1655,1.489,145.3,96.4,0.544
20.34,32226.2,35349.0,1.0858,0.8553,145.3,96.4,0.544
20.36,32075.2,35124.0,0.3554,0.3027,145.3,96.4,0.544
20.38,32049.1,35225.6,0.2294,0.5522,145.3,96.4,0.544
20.4,31942.1,35145.3,-0.2883,0.3549,145.3,96.4,0.544
20.42,32020.9,35016.7,0.093,0.039,145.3,96.4,0.544
20.44,31940.1,34893.2,-0.2979,-0.2644,145.3,96.4,0.544
20.46,31829.7,34728.2,-0.8319,-0.6696,145.3,96.4,0.544
20.48,31795.7,34644.2,-0.9966,-0.8759,145.3,96.4,0.544
20.5,31808.1,34680.1,-0.9362,-0.7878,145.3,96.4,0.544
20.52,31872.0,34682.5,-0.6272,-0.7818,145.3,96.4,0.544
20.54,31791.5,34636.1,-1.0165,-0.896,145.3,96.4,0.544
20.56,31744.0,34592.8,-1.2466,-1.0022,145.3,96.4,0.544
20.58,31655.7,34461.2,-1.6733,-1.3255,145.3,96.4,0.544
20.6,31794.6,34462.4,-1.0016,-1.3224,145.3,96.4,0.544
20.62,31816.4,34757.6,-0.8961,-0.5974,145.3,96.4,0.544
20.64,31994.7,34934.5,-0.0339,-0.1628,145.3,96.4,0.544
20.66,32189.0,35502.7,0.9063,1.2327,145.3,96.4,0.544
20.68,32383.6,35745.9,1.8475,1.8302,145.3,96.4,0.544
20.7,32424.9,35840.6,2.0469,2.0629,145.3,96.4,0.544
20.72,32440.6,35615.3,2.1231,1.5093,145.3,96.4,0.544
20.74,32122.6,35574.3,0.5851,1.4088,145.3,96.4,0.544
20.76,32099.2,35328.1,0.4717,0.804,145.3,96.4,0.544
20.78,32059.0,35127.8,0.2774,0.312,145.3,96.4,0.544
20.8,32080.5,35052.4,0.3813,0.1266,145.3,96.4,0.544
20.82,31982.6,35002.6,-0.0925,0.0045,145.3,96.4,0.544
20.84,32023.4,34984.3,0.1053,-0.0406,145.3,96.4,0.544
20.86,31950.2,34796.3,-0.249,-0.5024,145.3,96.4,0.544
20.88,31863.6,34709.6,-0.6677,-0.7154,145.3,96.4,0.544
20.9,31904.7,34727.3,-0.4689,-0.6717,145.3,96.4,0.544
20.92,31863.8,34709.5,-0.6671,-0.7157,145.3,96.4,0.544
20.94,31868.5,34636.2,-0.6444,-0.8956,145.3,96.4,0.544
20.96,31762.0,34567.0,-1.1593,-1.0656,145.3,96.4,0.544
20.98,31685.1,34543.0,-1.5313,-1.1244,145.3,96.4,0.544
21.0,31784.9,34457.3,-1.0485,-1.335,145.3,96.4,0.544
21.02,31793.5,34522.0,-1.0069,-1.176,145.3,96.4,0.544
21.04,31837.5,34732.5,-0.7942,-0.6591,145.3,96.4,0.544
21.06,32137.6,35197.5,0.6575,0.483,145.3,96.4,0.544
21.08,32284.6,35608.9,1.3683,1.4937,145.3,96.4,0.544
21.1,32365.4,35787.1,1.7595,1.9314,145.3,96.4,0.544
21.12,32358.7,35811.2,1.7271,1.9905,145.3,96.4,0.544
21.14,32360.5,35593.2,1.7354,1.4551,145.3,96.4,0.544
21.16,32117.6,35412.0,0.5605,1.0101,145.3,96.4,0.544
21.18,32102.8,35206.8,0.4889,0.5059,145.3,96.4,0.544
21.2,32062.7,35189.5,0.2953,0.4635,145.3,96.4,0.544
21.22,32075.7,34959.0,0.3582,-0.1028,145.3,96.4,0.544
21.24,32005.7,35054.2,0.0194,0.131,145.3,96.4,0.544
21.26,31947.7,34941.8,-0.2612,-0.1449,145.3,96.4,0.544
21.28,31825.1,34871.7,-0.854,-0.3172,145.3,96.4,0.544
21.3,31832.2,34717.0,-0.8196,-0.6972,145.3,96.4,0.544
21.32,31886.7,34585.8,-0.5562,-1.0195,145.3,96.4,0.544
21.34,31815.2,34751.9,-0.9019,-0.6115,145.3,96.4,0.544
21.36,31851.8,34709.2,-0.7249,-0.7162,145.3,96.4,0.544
21.38,31852.5,34517.0,-0.7214,-1.1885,145.3,96.4,0.544
21.4,31731.2,34370.6,-1.3082,-1.5479,145.3,96.4,0.544
21.42,31754.6,34472.3,-1.195,-1.2982,145.3,96.4,0.544
21.44,31810.7,34503.8,-0.9237,-1.2209,145.3,96.4,0.544
21.46,32001.6,34814.7,-0.0007,-0.4573,145.3,96.4,0.544
21.48,32219.4,35255.5,1.0531,0.6257,145.3,96.4,0.544
21.5,32393.6,35576.5,1.8956,1.414,145.3,96.4,0.544
21.52,32316.9,35710.3,1.5247,1.7428,145.3,96.4,0.544
21.54,32325.6,35735.3,1.5669,1.8041,145.3,96.4,0.544
21.56,32257.0,35526.9,1.2349,1.2923,145.3,96.4,0.544
21.58,32212.3,35297.4,1.0189,0.7286,145.3,96.4,0.544
21.6,32015.8,35151.3,0.0684,0.3696,145.3,96.4,0.544
21.62,32056.2,35122.8,0.2639,0.2995,145.3,96.4,0.544
21.64,32065.1,34970.1,0.3066,-0.0755,145.3,96.4,0.544
21.66,31996.1,35042.1,-0.027,0.1015,145.3,96.4,0.544
21.68,31922.8,34847.1,-0.3816,-0.3775,145.3,96.4,0.544
21.7,31858.9,34719.2,-0.6908,-0.6917,145.3,96.4,0.544
21.72,31805.2,34697.4,-0.9506,-0.7453,145.3,96.4,0.544
21.74,31792.5,34639.9,-1.0116,-0.8865,145.3,96.4,0.544
21.76,31772.6,34687.4,-1.108,-0.7698,145.3,96.4,0.544
21.78,31776.8,34555.5,-1.0878,-1.0939,145.3,96.4,0.544
21.8,31772.7,34530.5,-1.1074,-1.1553,145.3,96.4,0.544
21.82,31764.4,34505.2,-1.1476,-1.2175,145.3,96.4,0.544
21.84,31897.4,34523.3,-0.5045,-1.1729,145.3,96.4,0.544
21.86,31939.8,34684.0,-0.2994,-0.7782,145.3,96.4,0.544
21.88,32017.9,35118.6,0.0784,0.2892,145.3,96.4,0.544
21.9,32242.3,35430.2,1.1638,1.0547,145.3,96.4,0.544
21.92,32331.3,35611.1,1.5942,1.499,145.3,96.4,0.544
21.94,32350.8,35671.7,1.6885,1.648,145.3,96.4,0.544
21.96,32301.1,35638.1,1.4481,1.5653,145.3,96.4,0.544
21.98,32275.5,35426.1,1.3245,1.0447,145.3,96.4,0.544
22.0,32074.3,35218.6,0.351,0.535,145.3,96.4,0.544
22.02,32091.7,35211.7,0.4352,0.518,145.3,96.4,0.544
22.04,32063.2,35142.0,0.2977,0.3467,145.3,96.4,0.544
22.06,32039.4,35001.3,0.1822,0.0012,145.3,96.4,0.544
22.08,31907.8,34920.3,-0.454,-0.1976,145.3,96.4,0.544
22.1,31978.2,34918.4,-0.1134,-0.2023,145.3,96.4,0.544
22.12,31812.2,34784.5,-0.9165,-0.5313,145.3,96.4,0.544
22.14,31799.1,34747.6,-0.98,-0.6221,145.3,96.4,0.544
22.16,31808.4,34657.9,-0.9352,-0.8423,145.3,96.4,0.544
22.18,31701.2,34599.2,-1.4536,-0.9864,145.3,96.4,0.544
22.2,31811.7,34606.0,-0.9188,-0.9698,145.3,96.4,0.544
22.22,31757.3,34503.1,-1.182,-1.2225,145.3,96.4,0.544
22.24,31683.0,34348.5,-1.5415,-1.6023,145.3,96.4,0.544
22.26,31756.5,34520.5,-1.186,-1.1797,145.3,96.4,0.544
22.28,31886.3,34788.3,-0.558,-0.5219,145.3,96.4,0.544
22.3,32053.6,35180.2,0.2511,0.4407,145.3,96.4,0.544
22.32,32318.1,35589.5,1.5305,1.4459,145.3,96.4,0.544
22.34,32306.9,35668.9,1.4763,1.641,145.3,96.4,0.544
22.36,32322.6,35749.4,1.5525,1.8387,145.3,96.4,0.544
22.38,32265.8,35568.3,1.2777,1.3938,145.3,96.4,0.544
22.4,32140.7,35417.8,0.6723,1.0243,145.3,96.4,0.544
22.42,32129.0,35143.2,0.6159,0.3496,145.3,96.4,0.544
22.44,32126.9,35179.1,0.6057,0.4379,145.3,96.4,0.544
22.46,31949.6,35099.5,-0.2518,0.2424,145.3,96.4,0.544
22.48,31965.0,35039.7,-0.1776,0.0954,145.3,96.4,0.544
22.5,31970.4,34965.4,-0.1513,-0.0869,145.3,96.4,0.544
22.52,31971.4,34850.2,-0.1464,-0.3699,145.3,96.4,0.544
22.54,31914.8,34712.5,-0.4202,-0.7082,145.3,96.4,0.544
22.56,31807.9,34670.3,-0.9372,-0.8118,145.3,96.4,0.544
22.58,31801.4,34706.1,-0.9688,-0.7239,145.3,96.4,0.544
22.6,31749.7,34575.1,-1.219,-1.0457,145.3,96.4,0.544
22.62,31763.3,34610.8,-1.1531,-0.9579,145.3,96.4,0.544
22.64,31720.9,34415.2,-1.3582,-1.4384,145.3,96.4,0.544
22.66,31719.6,34538.9,-1.3646,-1.1346,145.3,96.4,0.544
22.68,31721.2,34638.7,-1.3565,-0.8895,145.3,96.4,0.544
22.7,31944.9,34946.6,-0.2747,-0.1332,145.3,96.4,0.544
22.72,32094.2,35296.9,0.4475,0.7272,145.3,96.4,0.544
22.74,32259.8,35620.8,1.2484,1.5228,145.3,96.4,0.544
22.76,32327.6,35697.2,1.5763,1.7105,145.3,96.4,0.544
22.78,32384.7,35666.9,1.8525,1.6362,145.3,96.4,0.544
22.8,32255.4,35532.5,1.2273,1.306,145.3,96.4,0.544
22.82,32287.0,35272.9,1.3799,0.6682,145.3,96.4,0.544
22.84,32120.0,35200.8,0.5723,0.4913,145.3,96.4,0.544
22.86,32121.5,35102.7,0.5794,0.2502,145.3,96.4,0.544
22.88,32041.9,35016.8,0.1947,0.0392,145.3,96.4,0.544
22.9,31959.5,34978.2,-0.2042,-0.0555,145.3,96.4,0.544
22.92,32062.3,34921.2,0.2934,-0.1956,145.3,96.4,0.544
22.94,31774.1,34774.8,-1.1006,-0.5552,145.3,96.4,0.544
22.96,31803.7,34791.5,-0.9576,-0.5141,145.3,96.4,0.544
22.98,31919.6,34608.9,-0.3971,-0.9627,145.3,96.4,0.544
23.0,31873.7,34567.4,-0.6189,-1.0647,145.3,96.4,0.544
23.02,31761.0,34693.0,-1.1644,-0.756,145.3,96.4,0.544
23.04,31710.8,34437.5,-1.4068,-1.3838,145.3,96.4,0.544
23.06,31780.4,34531.9,-1.0703,-1.1517,145.3,96.4,0.544
23.08,31738.0,34482.2,-1.2753,-1.2738,145.3,96.4,0.544
23.1,31885.8,34771.8,-0.5603,-0.5626,145.3,96.4,0.544
23.12,32067.6,35069.4,0.319,0.1685,145.3,96.4,0.544
23.14,32194.2,35369.2,0.9311,0.905,145.3,96.4,0.544
23.16,32318.9,35728.1,1.5343,1.7865,145.3,96.4,0.544
23.18,32358.0,35867.2,1.7236,2.1282,145.3,96.4,0.544
23.2,32368.1,35604.9,1.7724,1.4838,145.3,96.4,0.544
23.22,32150.3,35371.7,0.7191,0.911,145.3,96.4,0.544
23.24,32120.5,35271.0,0.5747,0.6638,145.3,96.4,0.544
23.26,32147.1,35134.4,0.7035,0.3281,145.3,96.4,0.544
23.28,32077.2,35044.9,0.3653,0.1083,145.3,96.4,0.544
23.3,32004.4,35078.6,0.013,0.1911,145.3,96.4,0.544
23.32,32017.3,35046.8,0.0754,0.113,145.3,96.4,0.544
23.34,31953.5,34856.4,-0.233,-0.3548,145.3,96.4,0.544
23.36,31840.1,34746.4,-0.7817,-0.625,145.3,96.4,0.544
23.38,31854.8,34649.1,-0.7103,-0.8639,145.3,96.4,0.544
23.4,31795.8,34700.7,-0.9959,-0.7372,145.3,96.4,0.544
23.42,31840.2,34563.0,-0.781,-1.0755,145.3,96.4,0.544
23.44,31774.1,34618.4,-1.1007,-0.9393,145.3,96.4,0.544
23.46,31768.7,34506.0,-1.1271,-1.2155,145.3,96.4,0.544
23.48,31676.4,34508.2,-1.5736,-1.21,145.3,96.4,0.544
23.5,31789.5,34574.6,-1.0265,-1.0468,145.3,96.4,0.544
23.52,31933.6,34917.8,-0.3295,-0.2039,145.3,96.4,0.544
23.54,32045.8,35162.2,0.2133,0.3965,145.3,96.4,0.544
23.56,32229.0,35533.5,1.0995,1.3083,145.3,96.4,0.544
23.58,32342.4,35722.1,1.6482,1.7716,145.3,96.4,0.544
23.6,32334.7,35819.6,1.6109,2.0112,145.3,96.4,0.544
23.62,32298.3,35594.6,1.4346,1.4586,145.3,96.4,0.544
23.64,32217.6,35309.7,1.0446,0.7588,145.3,96.4,0.544
23.66,32151.4,35172.2,0.724,0.4209,145.3,96.4,0.544
23.68,32165.3,35255.4,0.7914,0.6253,145.3,96.4,0.544
23.7,31999.9,35031.2,-0.0084,0.0746,145.3,96.4,0.544
23.72,32038.5,35000.4,0.1782,-0.0009,145.3,96.4,0.544
23.74,31990.0,34945.4,-0.0566,-0.1362,145.3,96.4,0.544
23.76,31877.0,34743.4,-0.603,-0.6323,145.3,96.4,0.544
23.78,31837.6,34668.9,-0.7939,-0.8152,145.3,96.4,0.544
23.8,31753.1,34663.9,-1.2025,-0.8277,145.3,96.4,0.544
23.82,31851.7,34607.8,-0.7254,-0.9653,145.3,96.4,0.544
23.84,31794.3,34618.8,-1.003,-0.9382,145.3,96.4,0.544
23.86,31793.2,34595.5,-1.0086,-0.9955,145.3,96.4,0.544
23.88,31717.0,34451.2,-1.3771,-1.3499,145.3,96.4,0.544
23.9,31727.8,34526.9,-1.325,-1.1641,145.3,96.4,0.544
23.92,31862.1,34633.9,-0.6751,-0.9013,145.3,96.4,0.544
23.94,31948.3,34906.3,-0.2581,-0.2322,145.3,96.4,0.544
23.96,32184.7,35241.6,0.8853,0.5915,145.3,96.4,0.544
23.98,32308.2,35720.6,1.4825,1.768,145.3,96.4,0.544
24.0,32418.1,35727.4,2.0144,1.7847,145.3,96.4,0.544
24.02,32408.0,35595.1,1.9655,1.4598,145.3,96.4,0.544
24.04,32266.2,35468.6,1.2796,1.1491,145.3,96.4,0.544
24.06,32067.1,35229.8,0.3166,0.5625,145.3,96.4,0.544
24.08,32121.1,35160.4,0.5776,0.3921,145.3,96.4,0.544
24.1,32092.6,35192.2,0.4396,0.4701,145.3,96.4,0.544
24.12,32031.8,35037.2,0.1459,0.0895,145.3,96.4,0.544
24.14,32005.5,35030.6,0.0183,0.0731,145.3,96.4,0.544
24.16,31882.8,34905.1,-0.5752,-0.2351,145.3,96.4,0.544
24.18,31866.6,34730.6,-0.6534,-0.6638,145.3,96.4,0.544
24.2,31765.0,34741.9,-1.1448,-0.636,145.3,96.4,0.544
24.22,31932.7,34657.4,-0.3336,-0.8435,145.3,96.4,0.544
24.24,31781.1,34601.7,-1.0671,-0.9804,145.3,96.4,0.544
24.26,31850.7,34605.6,-0.7306,-0.9708,145.3,96.4,0.544
24.28,31728.4,34475.2,-1.3221,-1.291,145.3,96.4,0.544
24.3,31764.0,34400.7,-1.1498,-1.4741,145.3,96.4,0.544
24.32,31841.1,34448.3,-0.7766,-1.3572,145.3,96.4,0.544
24.34,31815.3,34669.4,-0.9017,-0.8142,145.3,96.4,0.544
24.36,32013.7,35149.1,0.0582,0.3643,145.3,96.4,0.544
24.38,32206.3,35461.4,0.9896,1.1313,145.3,96.4,0.544
24.4,32425.1,35727.4,2.0479,1.7847,145.3,96.4,0.544
24.42,32302.8,35763.0,1.4564,1.8721,145.3,96.4,0.544
24.44,32369.9,35680.3,1.7809,1.669,145.3,96.4,0.544
24.46,32198.2,35435.4,0.9507,1.0676,145.3,96.4,0.544
24.48,32151.4,35272.2,0.724,0.6666,145.3,96.4,0.544
24.5,32119.6,35281.4,0.5705,0.6893,145.3,96.4,0.544
24.52,32047.4,34964.3,0.2213,-0.0896,145.3,96.4,0.544
24.54,32108.1,35049.9,0.5149,0.1206,145.3,96.4,0.544
24.56,31970.0,34920.1,-0.1534,-0.1983,145.3,96.4,0.544
24.58,31923.5,34889.0,-0.3782,-0.2747,145.3,96.4,0.544
24.6,31869.3,34757.0,-0.6402,-0.599,145.3,96.4,0.544
24.62,31915.4,34666.8,-0.4173,-0.8204,145.3,96.4,0.544
24.64,31834.7,34601.4,-0.8079,-0.981,145.3,96.4,0.544
24.66,31864.5,34646.2,-0.6634,-0.871,145.3,96.4,0.544
24.68,31840.3,34509.9,-0.7805,-1.2057,145.3,96.4,0.544
24.7,31771.2,34430.3,-1.1149,-1.4014,145.3,96.4,0.544
24.72,31711.4,34520.8,-1.4041,-1.1791,145.3,96.4,0.544
24.74,31810.6,34580.3,-0.9243,-1.0329,145.3,96.4,0.544
24.76,31973.7,34834.1,-0.1352,-0.4096,145.3,96.4,0.544
24.78,32092.4,35253.8,0.4386,0.6214,145.3,96.4,0.544
24.8,32304.4,35607.3,1.4644,1.4897,145.3,96.4,0.544
24.82,32241.1,35761.3,1.1579,1.8679,145.3,96.4,0.544
24.84,32319.6,35661.1,1.5376,1.6218,145.3,96.4,0.544
24.86,32276.3,35590.0,1.3281,1.4472,145.3,96.4,0.544
24.88,32173.9,35420.5,0.8331,1.0309,145.3,96.4,0.544
24.9,32084.7,35213.1,0.4015,0.5214,145.3,96.4,0.544
24.92,32099.9,35161.4,0.4748,0.3945,145.3,96.4,0.544
24.94,32005.3,35138.1,0.0175,0.3372,145.3,96.4,0.544
24.96,31949.8,35041.3,-0.2511,0.0994,145.3,96.4,0.544
24.98,32028.8,34960.7,0.1313,-0.0985,145.3,96.4,0.544
25.0,31963.3,34776.4,-0.1856,-0.5512,145.3,96.4,0.544
25.02,31822.1,34746.7,-0.8687,-0.6243,145.3,96.4,0.544
25.04,31885.9,34623.4,-0.56,-0.9271,145.3,96.4,0.544
25.06,31856.6,34663.2,-0.7016,-0.8293,145.3,96.4,0.544
25.08,31809.7,34646.8,-0.9289,-0.8696,145.3,96.4,0.544
25.1,31762.3,34504.7,-1.1579,-1.2186,145.3,96.4,0.544
25.12,31711.1,34502.8,-1.4058,-1.2233,145.3,96.4,0.544
25.14,31718.0,34455.5,-1.372,-1.3395,145.3,96.4,0.544
25.16,31785.5,34603.8,-1.0457,-0.9752,145.3,96.4,0.544
25.18,32018.2,34949.6,0.08,-0.1258,145.3,96.4,0.544
25.2,32205.5,35412.7,0.9857,1.0118,145.3,96.4,0.544
25.22,32303.2,35605.2,1.4583,1.4845,145.3,96.4,0.544
25.24,32334.5,35796.2,1.6098,1.9537,145.3,96.4,0.544
25.26,32323.1,35691.1,1.5548,1.6956,145.3,96.4,0.544
25.28,32204.7,35462.0,0.9822,1.1329,145.3,96.4,0.544
25.3,32116.1,35295.7,0.5535,0.7243,145.3,96.4,0.544
25.32,32063.7,35145.3,0.3,0.3548,145.3,96.4,0.544
25.34,32079.1,35040.2,0.3747,0.0968,145.3,96.4,0.544
25.36,32031.3,34990.3,0.1433,-0.0258,145.3,96.4,0.544
25.38,31940.1,34991.1,-0.2978,-0.0238,145.3,96.4,0.544
25.4,31971.2,34881.7,-0.1473,-0.2925,145.3,96.4,0.544
25.42,31873.1,34745.2,-0.6217,-0.6279,145.3,96.4,0.544
25.44,31801.8,34706.7,-0.967,-0.7225,145.3,96.4,0.544
25.46,31833.4,34709.1,-0.8142,-0.7167,145.3,96.4,0.544
25.48,31776.6,34695.0,-1.0889,-0.7512,145.3,96.4,0.544
25.5,31786.9,34695.9,-1.0391,-0.7489,145.3,96.4,0.544
25.52,31785.1,34454.4,-1.0477,-1.3421,145.3,96.4,0.544
25.54,31836.2,34441.2,-0.8005,-1.3745,145.3,96.4,0.544
25.56,31744.3,34478.7,-1.2448,-1.2825,145.3,96.4,0.544
25.58,31871.9,34646.0,-0.6277,-0.8715,145.3,96.4,0.544
25.6,31977.0,35112.8,-0.1193,0.2751,145.3,96.4,0.544
25.62,32223.5,35465.3,1.0732,1.141,145.3,96.4,0.544
25.64,32287.2,35749.3,1.3809,1.8385,145.3,96.4,0.544
25.66,32349.7,35777.7,1.6833,1.9084,145.3,96.4,0.544
25.68,32296.7,35598.9,1.4272,1.4691,145.3,96.4,0.544
25.7,32217.1,35436.5,1.042,1.0702,145.3,96.4,0.544
25.72,32121.7,35222.8,0.5806,0.5453,145.3,96.4,0.544
25.74,32079.4,35137.2,0.3757,0.335,145.3,96.4,0.544
25.76,31984.7,35127.2,-0.0821,0.3104,145.3,96.4,0.544
25.78,32048.0,35055.5,0.2239,0.1342,145.3,96.4,0.544
25.8,31995.3,34950.3,-0.031,-0.124,145.3,96.4,0.544
25.82,31898.7,34828.4,-0.4979,-0.4235,145.3,96.4,0.544
25.84,31791.6,34673.0,-1.0164,-0.8053,145.3,96.4,0.544
25.86,31800.8,34687.4,-0.9719,-0.7699,145.3,96.4,0.544
25.88,31803.5,34661.3,-0.9586,-0.8338,145.3,96.4,0.544
25.9,31812.1,34722.4,-0.9172,-0.6839,145.3,96.4,0.544
25.92,31828.4,34475.1,-0.8384,-1.2913,145.3,96.4,0.544
25.94,31805.0,34451.3,-0.9512,-1.3497,145.3,96.4,0.544
25.96,31710.5,34464.1,-1.4087,-1.3182,145.3,96.4,0.544
25.98,31786.1,34658.7,-1.0428,-0.8402,145.3,96.4,0.544
26.0,31966.5,34754.0,-0.1704,-0.6063,145.3,96.4,0.544
26.02,32112.9,35265.5,0.5381,0.6501,145.3,96.4,0.544
26.04,32242.3,35480.4,1.1637,1.1781,145.3,96.4,0.544
26.06,32486.9,35789.6,2.3468,1.9375,145.3,96.4,0.544
26.08,32367.4,35652.9,1.7692,1.6017,145.3,96.4,0.544
26.1,32225.4,35570.3,1.0823,1.3988,145.3,96.4,0.544
26.12,32264.4,35376.6,1.2706,0.9232,145.3,96.4,0.544
26.14,32229.6,35208.6,1.1024,0.5105,145.3,96.4,0.544
26.16,32106.8,35140.3,0.5086,0.3427,145.3,96.4,0.544
26.18,31939.9,35160.4,-0.2991,0.392,145.3,96.4,0.544
26.2,31946.6,34959.1,-0.2666,-0.1024,145.3,96.4,0.544
26.22,31907.2,34973.1,-0.4569,-0.0681,145.3,96.4,0.544
26.24,31830.7,34844.8,-0.8271,-0.3831,145.3,96.4,0.544
26.26,31830.0,34739.6,-0.8303,-0.6416,145.3,96.4,0.544
26.28,31846.6,34614.6,-0.7503,-0.9485,145.3,96.4,0.544
26.3,31798.5,34544.6,-0.983,-1.1206,145.3,96.4,0.544
26.32,31831.9,34630.6,-0.8214,-0.9094,145.3,96.4,0.544
26.34,31701.1,34459.4,-1.4541,-1.3299,145.3,96.4,0.544
26.36,31688.6,34570.6,-1.5145,-1.0567,145.3,96.4,0.544
26.38,31724.4,34498.1,-1.3413,-1.2347,145.3,96.4,0.544
26.4,31798.6,34662.4,-0.9821,-0.8313,145.3,96.4,0.544
26.42,32032.3,35007.5,0.148,0.0165,145.3,96.4,0.544
26.44,32202.1,35426.6,0.9696,1.046,145.3,96.4,0.544
26.46,32388.7,35589.8,1.872,1.4466,145.3,96.4,0.544
26.48,32400.7,35703.0,1.9298,1.7248,145.3,96.4,0.544
26.5,32277.3,35664.5,1.3332,1.6303,145.3,96.4,0.544
26.52,32275.9,35475.2,1.3265,1.1652,145.3,96.4,0.544
26.54,32144.2,35192.4,0.6892,0.4707,145.3,96.4,0.544
26.56,32110.1,35204.8,0.5245,0.5012,145.3,96.4,0.544
26.58,32000.3,35103.6,-0.0067,0.2524,145.3,96.4,0.544
26.6,32055.2,35069.9,0.259,0.1697,145.3,96.4,0.544
26.62,31911.8,34928.0,-0.4346,-0.1787,145.3,96.4,0.544
26.64,32007.9,34826.9,0.0302,-0.4272,145.3,96.4,0.544
26.66,31845.2,34720.0,-0.7569,-0.6896,145.3,96.4,0.544
26.68,31860.1,34671.9,-0.6849,-0.808,145.3,96.4,0.544
26.7,31906.4,34642.9,-0.4608,-0.879,145.3,96.4,0.544
26.72,31904.9,34598.1,-0.468,-0.9892,145.3,96.4,0.544
26.74,31927.9,34604.2,-0.357,-0.9742,145.3,96.4,0.544
26.76,31694.4,34440.5,-1.4863,-1.3764,145.3,96.4,0.544
26.78,31692.0,34434.9,-1.498,-1.3901,145.3,96.4,0.544
26.8,31741.2,34522.7,-1.2599,-1.1743,145.3,96.4,0.544
26.82,31828.7,34767.6,-0.8367,-0.5727,145.3,96.4,0.544
26.84,32097.6,35108.5,0.4639,0.2646,145.3,96.4,0.544
26.86,32228.3,35501.3,1.0961,1.2294,145.3,96.4,0.544
26.88,32395.8,35579.4,1.9063,1.4211,145.3,96.4,0.544
26.9,32451.1,35769.3,2.1741,1.8877,145.3,96.4,0.544
26.92,32241.4,35579.0,1.1597,1.4201,145.3,96.4,0.544
26.94,32232.0,35329.3,1.1142,0.8068,145.3,96.4,0.544
26.96,32081.5,35148.9,0.3863,0.3638,145.3,96.4,0.544
26.98,32058.6,35230.8,0.2751,0.5649,145.3,96.4,0.544
27.0,32069.5,35155.5,0.3281,0.3799,145.3,96.4,0.544
27.02,32039.6,35046.4,0.1832,0.1121,145.3,96.4,0.544
27.04,31937.1,34841.3,-0.3125,-0.3917,145.3,96.4,0.544
27.06,31934.2,34879.1,-0.3262,-0.299,145.3,96.4,0.544
27.08,31916.8,34814.6,-0.4108,-0.4574,145.3,96.4,0.544
27.1,31841.3,34700.3,-0.7758,-0.7381,145.3,96.4,0.544
27.12,31806.7,34667.8,-0.9429,-0.818,145.3,96.4,0.544
27.14,31827.5,34645.7,-0.8425,-0.8722,145.3,96.4,0.544
27.16,31710.8,34554.6,-1.4069,-1.096,145.3,96.4,0.544
27.18,31725.9,34526.1,-1.3338,-1.1661,145.3,96.4,0.544
27.2,31685.5,34539.0,-1.5296,-1.1345,145.3,96.4,0.544
27.22,31814.5,34602.9,-0.9052,-0.9773,145.3,96.4,0.544
27.24,31950.6,34828.5,-0.2471,-0.4234,145.3,96.4,0.544
27.26,32177.3,35313.1,0.8497,0.7672,145.3,96.4,0.544
27.28,32239.5,35579.7,1.1502,1.422,145.3,96.4,0.544
27.3,32372.9,35766.1,1.7955,1.8797,145.3,96.4,0.544
27.32,32259.1,35755.0,1.2451,1.8525,145.3,96.4,0.544
27.34,32314.0,35529.1,1.5108,1.2977,145.3,96.4,0.544
27.36,32114.8,35305.7,0.547,0.7488,145.3,96.4,0.544
27.38,32231.5,35265.2,1.1116,0.6494,145.3,96.4,0.544
27.4,32057.9,35138.5,0.2719,0.3381,145.3,96.4,0.544
27.42,32123.8,35096.3,0.5908,0.2346,145.3,96.4,0.544
27.44,31947.4,34980.0,-0.2628,-0.051,145.3,96.4,0.544
27.46,31962.7,34919.4,-0.1886,-0.1999,145.3,96.4,0.544
27.48,31955.2,34843.8,-0.225,-0.3857,145.3,96.4,0.544
27.5,31889.3,34688.9,-0.5434,-0.766,145.3,96.4,0.544
27.52,31880.0,34663.9,-0.5885,-0.8275,145.3,96.4,0.544
27.54,31746.5,34744.4,-1.2345,-0.6298,145.3,96.4,0.544
27.56,31799.6,34590.9,-0.9774,-1.0069,145.3,96.4,0.544
27.58,31816.0,34537.6,-0.8979,-1.1377,145.3,96.4,0.544
27.6,31696.2,34446.0,-1.4774,-1.3627,145.3,96.4,0.544
27.62,31711.1,34409.4,-1.4058,-1.4528,145.3,96.4,0.544
27.64,31880.8,34725.7,-0.5849,-0.6758,145.3,96.4,0.544
27.66,31922.7,35045.8,-0.3819,0.1106,145.3,96.4,0.544
27.68,32208.6,35361.5,1.0007,0.8861,145.3,96.4,0.544
27.7,32243.0,35646.8,1.1674,1.5868,145.3,96.4,0.544
27.72,32374.3,35753.0,1.8025,1.8477,145.3,96.4,0.544
27.74,32364.3,35693.9,1.7538,1.7026,145.3,96.4,0.544
27.76,32218.0,35464.0,1.0465,1.1377,145.3,96.4,0.544
27.78,32140.2,35326.1,0.6702,0.799,145.3,96.4,0.544
27.8,32061.2,35147.0,0.2877,0.3592,145.3,96.4,0.544
27.82,32029.0,35060.4,0.1323,0.1463,145.3,96.4,0.544
27.84,31984.1,35052.5,-0.0851,0.1269,145.3,96.4,0.544
27.86,31950.1,35000.3,-0.2497,-0.0011,145.3,96.4,0.544
27.88,31874.6,34850.3,-0.6147,-0.3697,145.3,96.4,0.544
27.9,31874.5,34668.5,-0.6151,-0.8163,145.3,96.4,0.544
27.92,31844.8,34635.4,-0.7587,-0.8975,145.3,96.4,0.544
27.94,31835.2,34730.7,-0.8051,-0.6634,145.3,96.4,0.544
27.96,31808.6,34669.4,-0.9341,-0.8141,145.3,96.4,0.544
27.98,31754.9,34656.5,-1.1939,-0.8456,145.3,96.4,0.544
28.0,31735.7,34391.3,-1.2865,-1.4973,145.3,96.4,0.544
28.02,31714.8,34435.0,-1.3879,-1.3898,145.3,96.4,0.544
28.04,31752.2,34592.0,-1.2069,-1.0042,145.3,96.4,0.544
28.06,31867.4,34776.0,-0.6494,-0.5523,145.3,96.4,0.544
28.08,32021.5,35080.4,0.096,0.1956,145.3,96.4,0.544
28.1,32286.1,35493.0,1.3759,1.2089,145.3,96.4,0.544
28.12,32310.1,35751.8,1.4916,1.8448,145.3,96.4,0.544
28.14,32379.5,35797.6,1.8275,1.9571,145.3,96.4,0.544
28.16,32325.6,35625.4,1.567,1.5341,145.3,96.4,0.544
28.18,32274.7,35408.4,1.3207,1.0012,145.3,96.4,0.544
28.2,32121.6,35254.6,0.5803,0.6234,145.3,96.4,0.544
28.22,32124.3,35197.8,0.5931,0.484,145.3,96.4,0.544
28.24,31988.2,35047.2,-0.0654,0.1139,145.3,96.4,0.544
28.26,31992.6,35048.2,-0.0439,0.1163,145.3,96.4,0.544
28.28,31975.6,35034.5,-0.1261,0.0828,145.3,96.4,0.544
28.3,31897.3,34802.5,-0.5047,-0.4872,145.3,96.4,0.544
28.32,31919.2,34784.0,-0.3989,-0.5325,145.3,96.4,0.544
28.34,31805.0,34679.6,-0.9513,-0.789,145.3,96.4,0.544
28.36,31855.5,34621.5,-0.7073,-0.9318,145.3,96.4,0.544
28.38,31873.1,34548.2,-0.6219,-1.1117,145.3,96.4,0.544
28.4,31748.9,34537.7,-1.2227,-1.1376,145.3,96.4,0.544
28.42,31752.2,34458.4,-1.2067,-1.3323,145.3,96.4,0.544
28.44,31729.4,34463.9,-1.317,-1.3187,145.3,96.4,0.544
28.46,31798.2,34609.8,-0.9843,-0.9605,145.3,96.4,0.544
28.48,31908.7,35002.7,-0.4499,0.0046,145.3,96.4,0.544
28.5,32080.2,35291.7,0.3797,0.7145,145.3,96.4,0.544
28.52,32359.3,35688.8,1.7299,1.6899,145.3,96.4,0.544
28.54,32371.0,35639.3,1.7866,1.5684,145.3,96.4,0.544
28.56,32390.2,35725.7,1.8794,1.7805,145.3,96.4,0.544
28.58,32230.2,35622.1,1.1055,1.5262,145.3,96.4,0.544
28.6,32156.8,35360.2,0.7502,0.8829,145.3,96.4,0.544
28.62,32106.4,35288.5,0.5066,0.7066,145.3,96.4,0.544
28.64,32017.5,35111.5,0.0765,0.2718,145.3,96.4,0.544
28.66,32028.9,35015.0,0.1315,0.0349,145.3,96.4,0.544
28.68,31953.1,34944.5,-0.2349,-0.1383,145.3,96.4,0.544
28.7,31923.0,34834.0,-0.3805,-0.4096,145.3,96.4,0.544
28.72,31888.0,34705.5,-0.5497,-0.7254,145.3,96.4,0.544
28.74,31876.7,34697.7,-0.6046,-0.7446,145.3,96.4,0.544
28.76,31757.6,34674.4,-1.1807,-0.8018,145.3,96.4,0.544
28.78,31757.1,34645.9,-1.1833,-0.8717,145.3,96.4,0.544
28.8,31816.9,34698.6,-0.8938,-0.7423,145.3,96.4,0.544
28.82,31723.9,34472.9,-1.3434,-1.2967,145.3,96.4,0.544
28.84,31695.3,34437.6,-1.4821,-1.3835,145.3,96.4,0.544
28.86,31761.8,34498.4,-1.1601,-1.234,145.3,96.4,0.544
28.88,31850.3,34741.4,-0.7321,-0.6371,145.3,96.4,0.544
28.9,31987.8,35046.0,-0.0674,0.1111,145.3,96.4,0.544
28.92,32192.9,35392.0,0.9247,0.9608,145.3,96.4,0.544
28.94,32339.7,35523.2,1.6348,1.2831,145.3,96.4,0.544
28.96,32456.0,35909.9,2.1976,2.2329,145.3,96.4,0.544
28.98,32376.9,35688.8,1.815,1.69,145.3,96.4,0.544
29.0,32200.0,35455.0,0.9592,1.1156,145.3,96.4,0.544
29.02,32129.2,35237.1,0.617,0.5804,145.3,96.4,0.544
29.04,32193.4,35153.4,0.9276,0.3747,145.3,96.4,0.544
29.06,32009.9,35053.2,0.0395,0.1286,145.3,96.4,0.544
29.08,32031.3,34977.5,0.143,-0.0573,145.3,96.4,0.544
29.1,31964.5,34929.1,-0.18,-0.1761,145.3,96.4,0.544
29.12,31932.9,34827.2,-0.3329,-0.4265,145.3,96.4,0.544
29.14,31895.9,34742.5,-0.5119,-0.6345,145.3,96.4,0.544
29.16,31838.3,34588.8,-0.7902,-1.0121,145.3,96.4,0.544
29.18,31905.0,34725.7,-0.4674,-0.6757,145.3,96.4,0.544
29.2,31780.9,34637.6,-1.0682,-0.8922,145.3,96.4,0.544
29.22,31722.2,34639.7,-1.3521,-0.887,145.3,96.4,0.544
29.24,31751.1,34544.7,-1.2122,-1.1203,145.3,96.4,0.544
29.26,31773.4,34465.5,-1.1044,-1.3148,145.3,96.4,0.544
29.28,31866.1,34543.3,-0.6558,-1.1237,145.3,96.4,0.544
29.3,31907.8,34748.8,-0.4543,-0.619,145.3,96.4,0.544
29.32,32146.5,35153.5,0.7005,0.375,145.3,96.4,0.544
29.34,32237.6,35509.6,1.1411,1.2497,145.3,96.4,0.544
29.36,32307.5,35774.4,1.4794,1.9002,145.3,96.4,0.544
29.38,32382.0,35687.8,1.8396,1.6876,145.3,96.4,0.544
29.4,32276.2,35615.5,1.3281,1.5099,145.3,96.4,0.544
29.42,32214.6,35379.9,1.03,0.9312,145.3,96.4,0.544
29.44,32065.0,35230.8,0.3064,0.565,145.3,96.4,0.544
29.46,32127.6,35170.4,0.609,0.4166,145.3,96.4,0.544
29.48,32030.6,35020.3,0.1396,0.0478,145.3,96.4,0.544
29.5,31941.2,35085.0,-0.2924,0.2068,145.3,96.4,0.544
29.52,31948.7,34951.8,-0.2565,-0.1203,145.3,96.4,0.544
29.54,32012.5,34819.4,0.0525,-0.4456,145.3,96.4,0.544
29.56,31917.7,34603.3,-0.4062,-0.9765,145.3,96.4,0.544
29.58,31804.2,34651.1,-0.9553,-0.859,145.3,96.4,0.544
29.6,31858.6,34714.3,-0.6921,-0.7038,145.3,96.4,0.544
29.62,31829.3,34655.4,-0.8337,-0.8485,145.3,96.4,0.544
29.64,31894.0,34571.8,-0.521,-1.0538,145.3,96.4,0.544
29.66,31703.0,34405.2,-1.4446,-1.4631,145.3,96.4,0.544
29.68,31757.4,34489.3,-1.1818,-1.2564,145.3,96.4,0.544
29.7,31783.3,34658.7,-1.0566,-0.8403,145.3,96.4,0.544
29.72,31943.2,34942.2,-0.2831,-0.1441,145.3,96.4,0.544
29.74,32089.1,35312.6,0.4229,0.7658,145.3,96.4,0.544
29.76,32366.0,35614.6,1.7621,1.5077,145.3,96.4,0.544
29.78,32463.7,35723.0,2.2346,1.774,145.3,96.4,0.544
29.8,32413.9,35696.7,1.994,1.7094,145.3,96.4,0.544
29.82,32282.8,35528.6,1.3597,1.2965,145.3,96.4,0.544
29.84,32168.5,35275.6,0.8071,0.6749,145.3,96.4,0.544
29.86,32133.3,35149.1,0.6368,0.3643,145.3,96.4,0.544
29.88,32038.1,35116.2,0.1762,0.2834,145.3,96.4,0.544
29.9,32060.2,35078.3,0.2831,0.1904,145.3,96.4,0.544
29.92,31998.1,35010.5,-0.0171,0.0238,145.3,96.4,0.544
29.94,31932.5,34835.7,-0.3344,-0.4057,145.3,96.4,0.544
29.96,31972.0,34813.3,-0.1434,-0.4605,145.3,96.4,0.544
29.98,31834.5,34641.7,-0.8086,-0.882,145.3,96.4,0.544
30.0,31855.8,34513.3,-0.7055,-1.1974,145.3,96.4,0.544
30.02,31812.0,34671.9,-0.9174,-0.808,145.3,96.4,0.544
30.04,31859.7,34573.2,-0.6866,-1.0505,145.3,96.4,0.544
30.06,31807.0,34470.9,-0.9419,-1.3017,145.3,96.4,0.544
30.08,31823.0,34435.2,-0.8641,-1.3892,145.3,96.4,0.544
30.1,31748.3,34474.2,-1.2257,-1.2936,145.3,96.4,0.544
30.12,31896.7,34846.8,-0.508,-0.3783,145.3,96.4,0.544
30.14,31969.0,35060.4,-0.1581,0.1464,145.3,96.4,0.544
30.16,32244.0,35500.5,1.1719,1.2274,145.3,96.4,0.544
30.18,32210.8,35646.3,1.0117,1.5855,145.3,96.4,0.544
30.2,32437.3,35768.8,2.1072,1.8864,145.3,96.4,0.544
30.22,32298.3,35683.1,1.4349,1.676,145.3,96.4,0.544
30.24,32187.8,35460.4,0.9003,1.1288,145.3,96.4,0.544
30.26,32087.7,35282.6,0.4161,0.6922,145.3,96.4,0.544
30.28,31975.8,35138.7,-0.1253,0.3388,145.3,96.4,0.544
30.3,32049.1,35140.3,0.2295,0.3426,145.3,96.4,0.544
30.32,32037.0,34973.7,0.1709,-0.0666,145.3,96.4,0.544
30.34,31953.2,34957.3,-0.2345,-0.1068,145.3,96.4,0.544
30.36,32041.2,34826.4,0.1913,-0.4283,145.3,96.4,0.544
30.38,31818.0,34734.3,-0.8887,-0.6547,145.3,96.4,0.544
30.4,31876.3,34695.2,-0.6066,-0.7506,145.3,96.4,0.544
30.42,31865.1,34719.8,-0.6606,-0.6902,145.3,96.4,0.544
30.44,31777.9,34578.3,-1.0825,-1.0379,145.3,96.4,0.544
30.46,31759.8,34628.7,-1.1698,-0.9141,145.3,96.4,0.544
30.48,31713.2,34507.2,-1.3956,-1.2124,145.3,96.4,0.544
30.5,31687.5,34415.4,-1.5196,-1.438,145.3,96.4,0.544
30.52,31817.0,34560.4,-0.8931,-1.0818,145.3,96.4,0.544
30.54,31938.7,34902.1,-0.3049,-0.2424,145.3,96.4,0.544
30.56,32035.3,35198.9,0.1626,0.4865,145.3,96.4,0.544
30.58,32260.7,35556.9,1.253,1.3658,145.3,96.4,0.544
30.6,32389.5,35672.2,1.876,1.6492,145.3,96.4,0.544
30.62,32411.0,35763.6,1.9797,1.8736,145.3,96.4,0.544
30.64,32259.3,35566.4,1.2462,1.3892,145.3,96.4,0.544
30.66,32090.1,35504.3,0.4279,1.2367,145.3,96.4,0.544
30.68,32103.1,35247.6,0.4903,0.6062,145.3,96.4,0.544
30.7,32017.5,35047.8,0.0764,0.1154,145.3,96.4,0.544
30.72,32038.0,35017.6,0.1755,0.0413,145.3,96.4,0.544
30.74,32081.3,34970.5,0.385,-0.0745,145.3,96.4,0.544
30.76,31990.2,35001.1,-0.0557,0.0008,145.3,96.4,0.544
30.78,31925.1,34792.6,-0.3704,-0.5115,145.3,96.4,0.544
30.8,31954.1,34646.3,-0.2301,-0.8709,145.3,96.4,0.544
30.82,31810.2,34718.8,-0.9265,-0.6928,145.3,96.4,0.544
30.84,31745.0,34735.0,-1.2414,-0.6528,145.3,96.4,0.544
30.86,31744.1,34593.2,-1.2461,-1.0011,145.3,96.4,0.544
30.88,31703.0,34561.1,-1.4446,-1.0801,145.3,96.4,0.544
30.9,31771.7,34544.9,-1.1123,-1.1198,145.3,96.4,0.544
30.92,31707.8,34569.0,-1.4217,-1.0608,145.3,96.4,0.544
30.94,31811.4,34676.6,-0.9202,-0.7964,145.3,96.4,0.544
30.96,31886.2,35032.3,-0.5588,0.0774,145.3,96.4,0.544
30.98,32134.9,35346.4,0.6445,0.8488,145.3,96.4,0.544
31.0,32307.4,35607.2,1.4785,1.4894,145.3,96.4,0.544
31.02,32446.7,35686.1,2.1526,1.6833,145.3,96.4,0.544
31.04,32381.0,35684.8,1.8348,1.68,145.3,96.4,0.544
31.06,32241.9,35516.8,1.1618,1.2675,145.3,96.4,0.544
31.08,32122.3,35303.7,0.5836,0.744,145.3,96.4,0.544
31.1,31972.1,35133.1,-0.1431,0.3249,145.3,96.4,0.544
31.12,32039.3,35048.5,0.1819,0.1172,145.3,96.4,0.544
31.14,32024.7,35049.7,0.1114,0.12,145.3,96.4,0.544
31.16,31937.6,34898.2,-0.3102,-0.2521,145.3,96.4,0.544
31.18,32004.2,34913.7,0.0122,-0.2141,145.3,96.4,0.544
31.2,31869.4,34784.2,-0.6396,-0.532,145.3,96.4,0.544
31.22,31830.1,34635.4,-0.8301,-0.8975,145.3,96.4,0.544
31.24,31727.1,34679.5,-1.3284,-0.7892,145.3,96.4,0.544
31.26,31825.2,34668.1,-0.8537,-0.8174,145.3,96.4,0.544
31.28,31814.3,34640.1,-0.9063,-0.8861,145.3,96.4,0.544
31.3,31692.6,34526.9,-1.4952,-1.1642,145.3,96.4,0.544
31.32,31745.7,34403.0,-1.2382,-1.4683,145.3,96.4,0.544
31.34,31683.6,34492.0,-1.5388,-1.2498,145.3,96.4,0.544
31.36,31883.8,34770.0,-0.57,-0.5669,145.3,96.4,0.544
31.38,32039.1,35076.8,0.1809,0.1867,145.3,96.4,0.544
31.4,32281.6,35482.9,1.3539,1.1842,145.3,96.4,0.544
31.42,32372.8,35717.3,1.7949,1.7599,145.3,96.4,0.544
31.44,32407.9,35703.3,1.9651,1.7256,145.3,96.4,0.544
31.46,32314.2,35714.6,1.5118,1.7533,145.3,96.4,0.544
31.48,32260.1,35526.6,1.2498,1.2916,145.3,96.4,0.544
31.5,32177.9,35274.7,0.8523,0.6728,145.3,96.4,0.544
31.52,32134.6,35220.4,0.6427,0.5394,145.3,96.4,0.544
31.54,32016.9,35109.0,0.0736,0.2658,145.3,96.4,0.544
31.56,32050.4,35074.2,0.2356,0.1803,145.3,96.4,0.544
31.58,32073.0,34955.8,0.3449,-0.1105,145.3,96.4,0.544
31.6,31881.1,34785.6,-0.5833,-0.5287,145.3,96.4,0.544
31.62,31836.1,34680.7,-0.801,-0.7862,145.3,96.4,0.544
31.64,31709.3,34639.2,-1.4141,-0.8883,145.3,96.4,0.544
31.66,31802.3,34623.6,-0.9644,-0.9265,145.3,96.4,0.544
31.68,31897.6,34550.8,-0.5035,-1.1054,145.3,96.4,0.544
31.7,31797.0,34495.7,-0.9901,-1.2406,145.3,96.4,0.544
31.72,31755.1,34491.8,-1.1928,-1.2503,145.3,96.4,0.544
31.74,31766.5,34444.5,-1.1376,-1.3665,145.3,96.4,0.544
31.76,31792.0,34611.9,-1.0145,-0.9552,145.3,96.4,0.544
31.78,31975.5,34812.9,-0.1269,-0.4617,145.3,96.4,0.544
31.8,32099.9,35155.9,0.4749,0.381,145.3,96.4,0.544
31.82,32257.5,35568.2,1.2373,1.3936,145.3,96.4,0.544
31.84,32309.8,35713.8,1.4904,1.7513,145.3,96.4,0.544
31.86,32262.8,35727.2,1.263,1.7843,145.3,96.4,0.544
31.88,32284.1,35504.1,1.366,1.2363,145.3,96.4,0.544
31.9,32212.8,35359.8,1.0214,0.8819,145.3,96.4,0.544
31.92,32061.3,35187.2,0.2884,0.4579,145.3,96.4,0.544
31.94,32078.8,35114.9,0.3731,0.2803,145.3,96.4,0.544
31.96,32056.1,35175.0,0.2632,0.428,145.3,96.4,0.544
31.98,31982.5,35040.4,-0.0928,0.0973,145.3,96.4,0.544
32.0,31963.4,34964.7,-0.1852,-0.0887,145.3,96.4,0.544
32.02,31842.0,34790.0,-0.7726,-0.5178,145.3,96.4,0.544
32.04,31796.4,34649.6,-0.9928,-0.8626,145.3,96.4,0.544
32.06,31878.4,34771.2,-0.5962,-0.564,145.3,96.4,0.544
32.08,31802.7,34729.5,-0.9627,-0.6663,145.3,96.4,0.544
32.1,31861.8,34607.8,-0.6766,-0.9653,145.3,96.4,0.544
32.12,31885.9,34594.7,-0.56,-0.9974,145.3,96.4,0.544
32.14,31730.2,34483.3,-1.3131,-1.2712,145.3,96.4,0.544
32.16,31701.3,34473.5,-1.4528,-1.2954,145.3,96.4,0.544
32.18,31884.9,34612.7,-0.5651,-0.9532,145.3,96.4,0.544
32.2,32070.5,34956.9,0.3327,-0.1078,145.3,96.4,0.544
32.22,32191.8,35240.9,0.9198,0.5897,145.3,96.4,0.544
32.24,32283.3,35611.9,1.3624,1.5009,145.3,96.4,0.544
32.26,32319.5,35769.0,1.5372,1.887,145.3,96.4,0.544
32.28,32365.0,35655.7,1.7575,1.6087,145.3,96.4,0.544
32.3,32297.1,35556.5,1.4288,1.3649,145.3,96.4,0.544
32.32,32113.3,35264.1,0.54,0.6467,145.3,96.4,0.544
32.34,32084.8,35104.6,0.402,0.255,145.3,96.4,0.544
32.36,32044.5,35208.4,0.207,0.51,145.3,96.4,0.544
32.38,32052.3,35149.8,0.2446,0.3659,145.3,96.4,0.544
32.4,31961.8,34973.4,-0.1927,-0.0674,145.3,96.4,0.544
32.42,31927.2,34910.6,-0.3605,-0.2216,145.3,96.4,0.544
32.44,31845.3,34817.6,-0.7563,-0.45,145.3,96.4,0.544
32.46,31808.6,34721.1,-0.9339,-0.687,145.3,96.4,0.544
32.48,31829.4,34732.1,-0.8332,-0.6601,145.3,96.4,0.544
32.5,31806.6,34732.6,-0.9439,-0.6588,145.3,96.4,0.544
32.52,31752.5,34623.2,-1.2053,-0.9274,145.3,96.4,0.544
32.54,31731.2,34605.1,-1.3085,-0.972,145.3,96.4,0.544
32.56,31694.0,34534.8,-1.4883,-1.1446,145.3,96.4,0.544
32.58,31717.5,34544.5,-1.3748,-1.121,145.3,96.4,0.544
32.6,31766.7,34732.1,-1.1366,-0.66,145.3,96.4,0.544
32.62,32053.5,35011.0,0.2507,0.0251,145.3,96.4,0.544
32.64,32298.2,35466.1,1.4342,1.1429,145.3,96.4,0.544
32.66,32379.7,35802.5,1.8283,1.9692,145.3,96.4,0.544
32.68,32382.4,35731.0,1.8417,1.7935,145.3,96.4,0.544
32.7,32214.6,35597.7,1.03,1.4661,145.3,96.4,0.544
32.72,32286.6,35398.7,1.3781,0.9772,145.3,96.4,0.544
32.74,32056.4,35248.2,0.2645,0.6077,145.3,96.4,0.544
32.76,32067.3,35052.9,0.3173,0.1279,145.3,96.4,0.544
32.78,32124.1,35157.7,0.5922,0.3853,145.3,96.4,0.544
32.8,32048.8,35045.6,0.2281,0.1101,145.3,96.4,0.544
32.82,31961.3,34925.0,-0.1955,-0.1861,145.3,96.4,0.544
32.84,31948.8,34821.7,-0.2558,-0.4398,145.3,96.4,0.544
32.86,31927.0,34774.2,-0.3614,-0.5565,145.3,96.4,0.544
32.88,31919.7,34748.4,-0.3968,-0.62,145.3,96.4,0.544
32.9,31865.2,34701.5,-0.6603,-0.7351,145.3,96.4,0.544
32.92,31818.9,34582.7,-0.8841,-1.027,145.3,96.4,0.544
32.94,31706.1,34727.9,-1.4296,-0.6704,145.3,96.4,0.544
32.96,31754.5,34474.7,-1.1958,-1.2923,145.3,96.4,0.544
32.98,31661.0,34407.7,-1.6481,-1.4569,145.3,96.4,0.544
33.0,31733.5,34562.2,-1.2974,-1.0773,145.3,96.4,0.544
33.02,31822.9,34965.8,-0.8648,-0.086,145.3,96.4,0.544
33.04,32016.6,35207.4,0.0721,0.5074,145.3,96.4,0.544
33.06,32369.1,35536.5,1.7771,1.3159,145.3,96.4,0.544
33.08,32286.3,35751.7,1.3768,1.8445,145.3,96.4,0.544
33.1,32320.1,35786.4,1.54,1.9297,145.3,96.4,0.544
33.12,32366.3,35574.1,1.7636,1.4082,145.3,96.4,0.544
33.14,32198.0,35367.0,0.9497,0.8994,145.3,96.4,0.544
33.16,31981.7,35136.6,-0.0969,0.3335,145.3,96.4,0.544
33.18,32110.0,35049.7,0.5237,0.1201,145.3,96.4,0.544
33.2,32147.7,35101.8,0.706,0.248,145.3,96.4,0.544
33.22,32058.8,35017.9,0.2765,0.042,145.3,96.4,0.544
33.24,31825.8,34889.2,-0.8509,-0.2742,145.3,96.4,0.544
33.26,31855.7,34737.9,-0.7061,-0.6457,145.3,96.4,0.544
33.28,31888.5,34647.6,-0.5472,-0.8677,145.3,96.4,0.544
33.3,31798.1,34634.3,-0.9849,-0.9003,145.3,96.4,0.544
33.32,31826.5,34638.4,-0.8473,-0.8902,145.3,96.4,0.544
33.34,31772.6,34631.6,-1.1082,-0.907,145.3,96.4,0.544
33.36,31738.6,34611.2,-1.2725,-0.9571,145.3,96.4,0.544
33.38,31781.1,34446.5,-1.0668,-1.3616,145.3,96.4,0.544
33.4,31804.5,34518.4,-0.9539,-1.1851,145.3,96.4,0.544
33.42,31812.4,34669.5,-0.9155,-0.8138,145.3,96.4,0.544
33.44,32033.9,34997.6,0.1556,-0.0079,145.3,96.4,0.544
33.46,32290.9,35427.5,1.399,1.0481,145.3,96.4,0.544
33.48,32361.2,35599.0,1.7389,1.4694,145.3,96.4,0.544
33.5,32394.8,35783.3,1.9015,1.922,145.3,96.4,0.544
33.52,32292.2,35750.9,1.4052,1.8423,145.3,96.4,0.544
33.54,32186.3,35450.5,0.8932,1.1045,145.3,96.4,0.544
33.56,32156.0,35271.1,0.7465,0.6639,145.3,96.4,0.544
33.58,32178.0,35086.5,0.853,0.2104,145.3,96.4,0.544
33.6,32003.4,35109.0,0.0082,0.2656,145.3,96.4,0.544
33.62,32084.6,35072.1,0.4012,0.175,145.3,96.4,0.544
33.64,31980.6,34960.6,-0.1022,-0.0988,145.3,96.4,0.544
33.66,31916.0,34840.2,-0.4147,-0.3946,145.3,96.4,0.544
33.68,31858.2,34718.1,-0.6939,-0.6944,145.3,96.4,0.544
33.7,31885.2,34682.5,-0.5635,-0.7819,145.3,96.4,0.544
33.72,31869.8,34732.3,-0.6377,-0.6595,145.3,96.4,0.544
33.74,31820.1,34664.1,-0.8784,-0.827,145.3,96.4,0.544
33.76,31846.1,34596.2,-0.7526,-0.9939,145.3,96.4,0.544
33.78,31772.4,34477.8,-1.1092,-1.2847,145.3,96.4,0.544
33.8,31753.7,34403.0,-1.1994,-1.4685,145.3,96.4,0.544
33.82,31759.6,34484.2,-1.1709,-1.2691,145.3,96.4,0.544
33.84,31752.5,34711.6,-1.2051,-0.7103,145.3,96.4,0.544
33.86,32031.7,35043.2,0.1452,0.1042,145.3,96.4,0.544
33.88,32265.6,35511.4,1.2766,1.2542,145.3,96.4,0.544
33.9,32295.2,35702.8,1.4196,1.7242,145.3,96.4,0.544
33.92,32446.2,35699.6,2.1499,1.7165,145.3,96.4,0.544
33.94,32353.4,35609.3,1.7011,1.4947,145.3,96.4,0.544
33.96,32192.9,35375.1,0.9248,0.9194,145.3,96.4,0.544
33.98,32109.1,35291.9,0.5198,0.7151,145.3,96.4,0.544
34.0,32043.8,35143.4,0.2037,0.3501,145.3,96.4,0.544
34.02,31973.0,35088.4,-0.139,0.2151,145.3,96.4,0.544
34.04,31936.2,34949.3,-0.3168,-0.1266,145.3,96.4,0.544
34.06,31969.5,34902.1,-0.1559,-0.2424,145.3,96.4,0.544
34.08,31894.3,34810.4,-0.5193,-0.4677,145.3,96.4,0.544
34.1,31987.8,34681.2,-0.067,-0.785,145.3,96.4,0.544
34.12,31966.0,34756.5,-0.1727,-0.6001,145.3,96.4,0.544
34.14,31931.6,34657.9,-0.3391,-0.8423,145.3,96.4,0.544
34.16,31852.2,34606.4,-0.723,-0.9689,145.3,96.4,0.544
34.18,31845.5,34591.5,-0.7553,-1.0055,145.3,96.4,0.544
34.2,31558.5,34499.4,-2.1435,-1.2315,145.3,96.4,0.544
34.22,31760.4,34474.2,-1.1671,-1.2936,145.3,96.4,0.544
34.24,31811.5,34620.5,-0.9198,-0.9342,145.3,96.4,0.544
34.26,31954.6,34837.7,-0.2277,-0.4006,145.3,96.4,0.544
34.28,32175.6,35278.3,0.8414,0.6816,145.3,96.4,0.544
34.3,32251.1,35513.7,1.2062,1.2597,145.3,96.4,0.544
34.32,32362.3,35833.0,1.7441,2.0442,145.3,96.4,0.544
34.34,32410.7,35764.2,1.9785,1.8752,145.3,96.4,0.544
34.36,32267.2,35577.5,1.2843,1.4165,145.3,96.4,0.544
34.38,32175.9,35330.1,0.8427,0.8089,145.3,96.4,0.544
34.4,32190.3,35251.9,0.9121,0.6168,145.3,96.4,0.544
34.42,32032.2,35121.3,0.1474,0.2961,145.3,96.4,0.544
34.44,31997.9,35038.5,-0.0184,0.0925,145.3,96.4,0.544
34.46,31961.3,34974.2,-0.1952,-0.0653,145.3,96.4,0.544
34.48,31899.3,34884.0,-0.4952,-0.2869,145.3,96.4,0.544
34.5,31892.7,34802.3,-0.5272,-0.4877,145.3,96.4,0.544
34.52,31921.9,34702.0,-0.3859,-0.734,145.3,96.4,0.544
34.54,31826.9,34657.2,-0.8453,-0.844,145.3,96.4,0.544
34.56,31838.9,34689.3,-0.7873,-0.7651,145.3,96.4,0.544
34.58,31830.6,34538.6,-0.8275,-1.1352,145.3,96.4,0.544
34.6,31718.2,34542.3,-1.3712,-1.1264,145.3,96.4,0.544
34.62,31670.9,34480.4,-1.6001,-1.2783,145.3,96.4,0.544
34.64,31668.9,34483.0,-1.6098,-1.2719,145.3,96.4,0.544
34.66,31901.6,34681.7,-0.4842,-0.7839,145.3,96.4,0.544
34.68,31952.3,34930.3,-0.2388,-0.1731,145.3,96.4,0.544
34.7,32287.5,35442.4,1.3826,1.0846,145.3,96.4,0.544
34.72,32349.1,35647.5,1.6807,1.5885,145.3,96.4,0.544
34.74,32365.6,35780.3,1.7602,1.9147,145.3,96.4,0.544
34.76,32332.1,35745.8,1.5984,1.83,145.3,96.4,0.544
34.78,32221.4,35522.5,1.0627,1.2814,145.3,96.4,0.544
34.8,32190.2,35308.0,0.9118,0.7545,145.3,96.4,0.544
34.82,32120.0,35117.3,0.5721,0.286,145.3,96.4,0.544
34.84,32042.7,35004.9,0.1985,0.0101,145.3,96.4,0.544
34.86,31982.9,35090.5,-0.091,0.2204,145.3,96.4,0.544
34.88,31968.3,34948.2,-0.1617,-0.1292,145.3,96.4,0.544
34.9,31958.5,34885.1,-0.209,-0.2842,145.3,96.4,0.544
34.92,31875.7,34737.3,-0.6092,-0.6472,145.3,96.4,0.544
34.94,31763.6,34696.2,-1.1516,-0.7482,145.3,96.4,0.544
34.96,31752.3,34585.9,-1.2064,-1.0193,145.3,96.4,0.544
34.98,31926.1,34666.3,-0.3656,-0.8218,145.3,96.4,0.544
35.0,31752.7,34517.0,-1.2042,-1.1884,145.3,96.4,0.544
35.02,31732.0,34431.8,-1.3045,-1.3978,145.3,96.4,0.544
35.04,31682.8,34442.0,-1.5427,-1.3726,145.3,96.4,0.544
35.06,31831.4,34545.6,-0.8235,-1.1181,145.3,96.4,0.544
35.08,31882.6,34759.9,-0.576,-0.5917,145.3,96.4,0.544
35.1,32116.5,35140.5,0.5554,0.3432,145.3,96.4,0.544
35.12,32214.6,35440.6,1.0297,1.0804,145.3,96.4,0.544
35.14,32302.9,35718.9,1.4568,1.7639,145.3,96.4,0.544
35.16,32401.0,35690.3,1.9316,1.6937,145.3,96.4,0.544
35.18,32356.1,35546.8,1.7144,1.3412,145.3,96.4,0.544
35.2,32183.5,35377.2,0.8795,0.9246,145.3,96.4,0.544
35.22,32069.2,35212.2,0.3268,0.5192,145.3,96.4,0.544
35.24,32006.4,35060.5,0.0229,0.1465,145.3,96.4,0.544
35.26,32020.7,35119.4,0.092,0.2913,145.3,96.4,0.544
35.28,32045.4,34979.7,0.2112,-0.0519,145.3,96.4,0.544
35.3,31992.4,35059.7,-0.0451,0.1447,145.3,96.4,0.544
35.32,31914.0,34861.0,-0.4242,-0.3435,145.3,96.4,0.544
35.34,31903.8,34604.6,-0.4734,-0.9732,145.3,96.4,0.544
35.36,31811.5,34643.4,-0.92,-0.878,145.3,96.4,0.544
35.38,31774.0,34645.3,-1.1013,-0.8734,145.3,96.4,0.544
35.4,31822.5,34663.8,-0.8666,-0.8279,145.3,96.4,0.544
35.42,31715.3,34637.6,-1.3853,-0.8922,145.3,96.4,0.544
35.44,31713.0,34539.8,-1.3964,-1.1324,145.3,96.4,0.544
35.46,31795.1,34443.5,-0.9991,-1.369,145.3,96.4,0.544
35.48,31726.8,34695.5,-1.3295,-0.7499,145.3,96.4,0.544
35.5,31913.1,34889.2,-0.4286,-0.2741,145.3,96.4,0.544
35.52,32240.7,35358.7,1.1561,0.8792,145.3,96.4,0.544
35.54,32259.1,35599.8,1.2449,1.4712,145.3,96.4,0.544
35.56,32351.7,35663.8,1.6931,1.6285,145.3,96.4,0.544
35.58,32348.9,35706.3,1.6796,1.733,145.3,96.4,0.544
35.6,32232.9,35521.8,1.1182,1.2797,145.3,96.4,0.544
35.62,32176.2,35320.9,0.8439,0.7863,145.3,96.4,0.544
35.64,32089.8,35133.3,0.4264,0.3254,145.3,96.4,0.544
35.66,32075.6,35082.8,0.3573,0.2013,145.3,96.4,0.544
35.68,31998.8,35005.2,-0.0142,0.0107,145.3,96.4,0.544
35.7,32049.4,34981.7,0.2306,-0.047,145.3,96.4,0.544
35.72,31912.8,34872.1,-0.4302,-0.3162,145.3,96.4,0.544
35.74,31953.2,34677.1,-0.2344,-0.7952,145.3,96.4,0.544
35.76,31914.9,34590.2,-0.4197,-1.0087,145.3,96.4,0.544
35.78,31891.5,34676.9,-0.5332,-0.7956,145.3,96.4,0.544
35.8,31780.8,34686.2,-1.0682,-0.7728,145.3,96.4,0.544
35.82,31772.0,34582.5,-1.1109,-1.0274,145.3,96.4,0.544
35.84,31737.8,34523.4,-1.2766,-1.1726,145.3,96.4,0.544
35.86,31735.5,34410.8,-1.2877,-1.4492,145.3,96.4,0.544
35.88,31818.8,34383.0,-0.8845,-1.5174,145.3,96.4,0.544
35.9,31813.0,34703.3,-0.9124,-0.7308,145.3,96.4,0.544
35.92,32040.4,35028.0,0.1874,0.0667,145.3,96.4,0.544
35.94,32124.1,35408.5,0.592,1.0015,145.3,96.4,0.544
35.96,32352.5,35640.0,1.6967,1.5701,145.3,96.4,0.544
35.98,32403.0,35750.9,1.9412,1.8425,145.3,96.4,0.544
36.0,32337.1,35564.8,1.6223,1.3852,145.3,96.4,0.544
36.02,32179.7,35503.1,0.8613,1.2338,145.3,96.4,0.544
36.04,32122.4,35278.6,0.5841,0.6824,145.3,96.4,0.544
36.06,32069.8,35191.6,0.3296,0.4687,145.3,96.4,0.544
36.08,32055.8,34984.8,0.262,-0.0394,145.3,96.4,0.544
36.1,31976.4,35091.4,-0.1221,0.2226,145.3,96.4,0.544
36.12,31904.9,34960.4,-0.4682,-0.0993,145.3,96.4,0.544
36.14,31941.4,34842.9,-0.2917,-0.3879,145.3,96.4,0.544
36.16,31982.6,34720.3,-0.0922,-0.689,145.3,96.4,0.544
36.18,31883.8,34721.5,-0.5702,-0.686,145.3,96.4,0.544
36.2,31865.8,34739.2,-0.6574,-0.6425,145.3,96.4,0.544
36.22,31818.7,34647.4,-0.8851,-0.8681,145.3,96.4,0.544
36.24,31883.2,34614.1,-0.5733,-0.9498,145.3,96.4,0.544
36.26,31740.5,34554.5,-1.2633,-1.0962,145.3,96.4,0.544
36.28,31737.3,34428.0,-1.2787,-1.4071,145.3,96.4,0.544
36.3,31850.2,34521.8,-0.7327,-1.1765,145.3,96.4,0.544
36.32,31884.6,34903.8,-0.5664,-0.2383,145.3,96.4,0.544
36.34,32012.7,35186.4,0.0531,0.4559,145.3,96.4,0.544
36.36,32203.5,35496.3,0.976,1.2171,145.3,96.4,0.544
36.38,32328.9,35606.3,1.5826,1.4873,145.3,96.4,0.544
36.4,32409.2,35693.8,1.971,1.7022,145.3,96.4,0.544
36.42,32393.3,35620.5,1.894,1.5222,145.3,96.4,0.544
36.44,32177.1,35407.1,0.8485,0.9981,145.3,96.4,0.544
36.46,32224.7,35298.7,1.0787,0.7317,145.3,96.4,0.544
36.48,32112.4,35233.8,0.5354,0.5722,145.3,96.4,0.544
36.5,32049.3,35065.3,0.2304,0.1584,145.3,96.4,0.544
36.52,31959.6,35110.9,-0.2037,0.2704,145.3,96.4,0.544
36.54,31898.5,34882.9,-0.499,-0.2897,145.3,96.4,0.544
36.56,31772.4,34807.7,-1.1089,-0.4743,145.3,96.4,0.544
36.58,31816.3,34671.0,-0.8968,-0.8102,145.3,96.4,0.544
36.6,31869.4,34664.8,-0.6399,-0.8253,145.3,96.4,0.544
36.62,31862.2,34753.8,-0.6746,-0.6066,145.3,96.4,0.544
36.64,31839.3,34658.7,-0.7855,-0.8404,145.3,96.4,0.544
36.66,31742.6,34564.8,-1.2531,-1.071,145.3,96.4,0.544
36.68,31687.0,34428.8,-1.5221,-1.405,145.3,96.4,0.544
36.7,31787.7,34439.7,-1.0352,-1.3783,145.3,96.4,0.544
36.72,31884.0,34613.6,-0.5692,-0.951,145.3,96.4,0.544
36.74,31959.2,34890.5,-0.2054,-0.271,145.3,96.4,0.544
36.76,32130.1,35337.9,0.6211,0.8279,145.3,96.4,0.544
36.78,32299.0,35599.1,1.4381,1.4696,145.3,96.4,0.544
36.8,32433.2,35723.8,2.0875,1.7759,145.3,96.4,0.544
36.82,32377.8,35744.8,1.8193,1.8276,145.3,96.4,0.544
36.84,32193.0,35418.6,0.9254,1.0263,145.3,96.4,0.544
36.86,32066.6,35387.3,0.314,0.9495,145.3,96.4,0.544
36.88,32210.0,35184.0,1.0076,0.45,145.3,96.4,0.544
36.9,31992.7,35143.6,-0.0436,0.3508,145.3,96.4,0.544
36.92,31975.8,35083.5,-0.1254,0.203,145.3,96.4,0.544
36.94,32040.9,35026.6,0.1899,0.0635,145.3,96.4,0.544
36.96,31934.8,34945.8,-0.3237,-0.1351,145.3,96.4,0.544
36.98,31973.2,34775.9,-0.1379,-0.5524,145.3,96.4,0.544
37.0,31886.0,34741.4,-0.5597,-0.6373,145.3,96.4,0.544
37.02,31800.7,34624.6,-0.9721,-0.9242,145.3,96.4,0.544
37.04,31873.0,34646.4,-0.6225,-0.8704,145.3,96.4,0.544
37.06,31837.0,34539.9,-0.7968,-1.1322,145.3,96.4,0.544
37.08,31747.9,34578.9,-1.2275,-1.0364,145.3,96.4,0.544
37.1,31719.7,34521.4,-1.3641,-1.1777,145.3,96.4,0.544
37.12,31643.0,34477.0,-1.7351,-1.2865,145.3,96.4,0.544
37.14,31886.6,34757.8,-0.5568,-0.5969,145.3,96.4,0.544
37.16,32104.9,34984.8,0.4992,-0.0394,145.3,96.4,0.544
37.18,32282.5,35505.8,1.3584,1.2403,145.3,96.4,0.544
37.2,32295.7,35763.2,1.4224,1.8727,145.3,96.4,0.544
37.22,32358.2,35737.8,1.7244,1.8103,145.3,96.4,0.544
37.24,32406.1,35624.1,1.956,1.531,145.3,96.4,0.544
37.26,32193.1,35480.7,0.926,1.1786,145.3,96.4,0.544
37.28,32210.1,35254.8,1.008,0.624,145.3,96.4,0.544
37.3,32149.2,35102.4,0.7134,0.2495,145.3,96.4,0.544
37.32,32006.3,35129.4,0.0221,0.3159,145.3,96.4,0.544
37.34,32022.5,35105.2,0.1006,0.2564,145.3,96.4,0.544
37.36,31976.2,34976.0,-0.1234,-0.061,145.3,96.4,0.544
37.38,31966.3,34783.6,-0.1714,-0.5334,145.3,96.4,0.544
37.4,31850.0,34744.4,-0.7338,-0.6299,145.3,96.4,0.544
37.42,31880.7,34675.1,-0.5851,-0.8001,145.3,96.4,0.544
37.44,31884.7,34616.0,-0.5657,-0.9453,145.3,96.4,0.544
37.46,31794.0,34664.4,-1.0046,-0.8264,145.3,96.4,0.544
37.48,31737.2,34580.1,-1.2792,-1.0334,145.3,96.4,0.544
37.5,31731.1,34471.9,-1.3086,-1.2991,145.3,96.4,0.544
37.52,31715.2,34512.1,-1.3855,-1.2005,145.3,96.4,0.544
37.54,31749.3,34663.5,-1.221,-0.8285,145.3,96.4,0.544
37.56,31925.3,34854.4,-0.3693,-0.3596,145.3,96.4,0.544
37.58,32080.4,35152.6,0.3808,0.3729,145.3,96.4,0.544
37.6,32306.3,35461.2,1.4736,1.1308,145.3,96.4,0.544
37.62,32358.5,35753.7,1.7261,1.8494,145.3,96.4,0.544
37.64,32436.1,35682.0,2.1013,1.6733,145.3,96.4,0.544
37.66,32231.3,35573.9,1.1105,1.4077,145.3,96.4,0.544
37.68,32329.0,35397.3,1.5834,0.9738,145.3,96.4,0.544
37.7,32133.9,35218.9,0.6397,0.5357,145.3,96.4,0.544
37.72,32071.9,35165.0,0.3396,0.4033,145.3,96.4,0.544
37.74,32085.6,35106.5,0.4058,0.2595,145.3,96.4,0.544
37.76,32025.8,35041.6,0.1166,0.1003,145.3,96.4,0.544
37.78,31964.6,34961.6,-0.1793,-0.0963,145.3,96.4,0.544
37.8,31850.3,34898.7,-0.732,-0.2509,145.3,96.4,0.544
37.82,31895.7,34661.9,-0.5127,-0.8326,145.3,96.4,0.544
37.84,31838.0,34641.6,-0.7915,-0.8823,145.3,96.4,0.544
37.86,31759.4,34644.9,-1.1719,-0.8742,145.3,96.4,0.544
37.88,31779.0,34572.4,-1.0771,-1.0524,145.3,96.4,0.544
37.9,31807.3,34503.0,-0.9401,-1.2228,145.3,96.4,0.544
37.92,31713.5,34416.2,-1.3938,-1.4359,145.3,96.4,0.544
37.94,31720.4,34491.1,-1.3607,-1.252,145.3,96.4,0.544
37.96,31765.7,34581.1,-1.1414,-1.0309,145.3,96.4,0.544
37.98,31991.7,35044.0,-0.0483,0.106,145.3,96.4,0.544
38.0,32028.1,35332.2,0.1277,0.814,145.3,96.4,0.544
38.02,32300.3,35664.8,1.4442,1.631,145.3,96.4,0.544
38.04,32340.1,35827.8,1.6368,2.0313,145.3,96.4,0.544
38.06,32305.7,35743.7,1.4706,1.8247,145.3,96.4,0.544
38.08,32254.8,35500.7,1.2244,1.2279,145.3,96.4,0.544
38.1,32194.4,35293.5,0.9323,0.719,145.3,96.4,0.544
38.12,31934.7,35170.5,-0.3238,0.4168,145.3,96.4,0.544
38.14,32074.9,35081.4,0.3539,0.1979,145.3,96.4,0.544
38.16,32052.4,35113.8,0.2454,0.2775,145.3,96.4,0.544
38.18,32000.5,34995.9,-0.0055,-0.0119,145.3,96.4,0.544
38.2,31973.0,34815.9,-0.139,-0.4543,145.3,96.4,0.544
38.22,31926.1,34742.4,-0.3655,-0.6348,145.3,96.4,0.544
38.24,31921.2,34761.3,-0.3895,-0.5882,145.3,96.4,0.544
38.26,31756.2,34554.6,-1.1876,-1.0961,145.3,96.4,0.544
38.28,31744.2,34652.6,-1.2453,-0.8552,145.3,96.4,0.544
38.3,31752.0,34624.2,-1.2078,-0.925,145.3,96.4,0.544
38.32,31749.0,34486.0,-1.222,-1.2645,145.3,96.4,0.544
38.34,31665.8,34496.4,-1.6249,-1.2391,145.3,96.4,0.544
38.36,31841.3,34538.7,-0.7759,-1.135,145.3,96.4,0.544
38.38,31818.6,34737.2,-0.8858,-0.6476,145.3,96.4,0.544
38.4,32004.1,35081.9,0.0116,0.1993,145.3,96.4,0.544
38.42,32122.1,35392.0,0.5824,0.9608,145.3,96.4,0.544
38.44,32347.7,35768.8,1.6738,1.8865,145.3,96.4,0.544
38.46,32434.7,35737.8,2.0944,1.8102,145.3,96.4,0.544
38.48,32295.0,35543.4,1.4186,1.3329,145.3,96.4,0.544
38.5,32116.0,35336.1,0.5527,0.8235,145.3,96.4,0.544
38.52,32163.5,35197.6,0.7829,0.4833,145.3,96.4,0.544
38.54,32069.9,35081.2,0.3299,0.1974,145.3,96.4,0.544
38.56,31947.8,35104.1,-0.2607,0.2536,145.3,96.4,0.544
38.58,31950.3,35102.7,-0.2485,0.2502,145.3,96.4,0.544
38.6,31952.5,34936.4,-0.2379,-0.1583,145.3,96.4,0.544
38.62,31957.7,34889.2,-0.2127,-0.2742,145.3,96.4,0.544
38.64,31913.9,34706.8,-0.4245,-0.7223,145.3,96.4,0.544
38.66,31773.0,34727.3,-1.1062,-0.6719,145.3,96.4,0.544
38.68,31812.1,34761.6,-0.9172,-0.5875,145.3,96.4,0.544
38.7,31839.9,34566.3,-0.7827,-1.0673,145.3,96.4,0.544
38.72,31732.9,34593.2,-1.3,-1.0012,145.3,96.4,0.544
38.74,31767.1,34484.8,-1.1347,-1.2675,145.3,96.4,0.544
38.76,31696.8,34447.6,-1.4749,-1.3588,145.3,96.4,0.544
38.78,31868.4,34574.4,-0.6447,-1.0475,145.3,96.4,0.544
38.8,31910.5,34887.8,-0.4412,-0.2777,145.3,96.4,0.544
38.82,32105.9,35176.6,0.5039,0.4318,145.3,96.4,0.544
38.84,32229.2,35527.0,1.1005,1.2924,145.3,96.4,0.544
38.86,32513.3,35794.4,2.4749,1.9493,145.3,96.4,0.544
38.88,32380.0,35729.2,1.8298,1.7892,145.3,96.4,0.544
38.9,32208.5,35615.2,1.0006,1.5091,145.3,96.4,0.544
38.92,32270.9,35256.8,1.3021,0.6289,145.3,96.4,0.544
38.94,32108.8,35242.8,0.5182,0.5945,145.3,96.4,0.544
38.96,32101.8,35164.4,0.4843,0.4017,145.3,96.4,0.544
38.98,32096.2,34995.0,0.4569,-0.0142,145.3,96.4,0.544
39.0,31995.3,35034.9,-0.0307,0.0838,145.3,96.4,0.544
39.02,31920.1,34934.7,-0.3947,-0.1625,145.3,96.4,0.544
39.04,31898.5,34764.1,-0.4991,-0.5814,145.3,96.4,0.544
39.06,31977.0,34728.2,-0.1193,-0.6696,145.3,96.4,0.544
39.08,31777.5,34710.4,-1.0846,-0.7134,145.3,96.4,0.544
39.1,31772.9,34655.8,-1.1067,-0.8475,145.3,96.4,0.544
39.12,31852.1,34669.8,-0.7235,-0.813,145.3,96.4,0.544
39.14,31807.3,34537.1,-0.9404,-1.1389,145.3,96.4,0.544
39.16,31746.9,34582.4,-1.2326,-1.0277,145.3,96.4,0.544
39.18,31749.7,34469.5,-1.2191,-1.3052,145.3,96.4,0.544
39.2,31862.4,34621.6,-0.6739,-0.9315,145.3,96.4,0.544
39.22,31930.8,34981.8,-0.3431,-0.0466,145.3,96.4,0.544
39.24,32281.6,35343.8,1.3541,0.8426,145.3,96.4,0.544
39.26,32308.8,35637.2,1.4856,1.5632,145.3,96.4,0.544
39.28,32354.4,35724.4,1.706,1.7774,145.3,96.4,0.544
39.3,32422.1,35722.5,2.0338,1.7728,145.3,96.4,0.544
39.32,32208.0,35478.6,0.9978,1.1736,145.3,96.4,0.544
39.34,32155.3,35301.6,0.7432,0.7389,145.3,96.4,0.544
39.36,32124.4,35159.9,0.5936,0.3907,145.3,96.4,0.544
39.38,32121.6,35069.3,0.5799,0.1683,145.3,96.4,0.544
39.4,32163.0,35034.4,0.7802,0.0825,145.3,96.4,0.544
39.42,32063.6,35001.7,0.2992,0.0023,145.3,96.4,0.544
39.44,31951.0,34800.3,-0.2452,-0.4924,145.3,96.4,0.544
39.46,31817.7,34758.5,-0.8899,-0.5951,145.3,96.4,0.544
39.48,31807.9,34766.9,-0.9374,-0.5745,145.3,96.4,0.544
39.5,31766.7,34747.2,-1.1369,-0.623,145.3,96.4,0.544
39.52,31852.2,34668.9,-0.723,-0.8153,145.3,96.4,0.544
39.54,31819.9,34598.1,-0.8794,-0.9892,145.3,96.4,0.544
39.56,31690.5,34538.4,-1.5051,-1.1359,145.3,96.4,0.544
39.58,31779.5,34454.6,-1.0747,-1.3416,145.3,96.4,0.544
39.6,31857.4,34490.7,-0.698,-1.2529,145.3,96.4,0.544
39.62,31932.3,34656.0,-0.3357,-0.8469,145.3,96.4,0.544
39.64,31992.0,35055.4,-0.0467,0.1341,145.3,96.4,0.544
39.66,32328.9,35455.1,1.5827,1.1159,145.3,96.4,0.544
39.68,32404.9,35720.2,1.9503,1.767,145.3,96.4,0.544
39.7,32385.9,35774.7,1.8585,1.901,145.3,96.4,0.544
39.72,32334.8,35621.4,1.6112,1.5243,145.3,96.4,0.544
39.74,32242.7,35542.3,1.1659,1.3302,145.3,96.4,0.544
39.76,32148.6,35237.6,0.7108,0.5816,145.3,96.4,0.544
39.78,32082.1,35200.9,0.3892,0.4914,145.3,96.4,0.544
39.8,32095.9,35104.6,0.4559,0.255,145.3,96.4,0.544
39.82,32032.5,35000.0,0.1491,-0.0019,145.3,96.4,0.544
39.84,31975.7,34893.4,-0.1257,-0.2637,145.3,96.4,0.544
39.86,31865.9,34834.8,-0.6569,-0.4078,145.3,96.4,0.544
39.88,31930.0,34764.5,-0.3468,-0.5805,145.3,96.4,0.544
39.9,31770.7,34698.7,-1.1175,-0.7421,145.3,96.4,0.544
39.92,31784.6,34658.8,-1.0502,-0.8402,145.3,96.4,0.544
39.94,31780.3,34612.7,-1.071,-0.9534,145.3,96.4,0.544
39.96,31798.6,34609.3,-0.9826,-0.9616,145.3,96.4,0.544
39.98,31827.1,34523.8,-0.8446,-1.1717,145.3,96.4,0.544
40.0,31682.7,34414.6,-1.5428,-1.44,145.3,96.4,0.544
40.02,31767.1,34586.2,-1.1346,-1.0184,145.3,96.4,0.544
40.04,31926.0,34881.0,-0.3663,-0.2943,145.3,96.4,0.544
40.06,32058.8,35246.3,0.2765,0.6029,145.3,96.4,0.544
40.08,32199.5,35519.2,0.957,1.2733,145.3,96.4,0.544
40.1,32331.2,35663.7,1.5938,1.6283,145.3,96.4,0.544
40.12,32366.6,35805.1,1.765,1.9757,145.3,96.4,0.544
40.14,32323.8,35555.7,1.5583,1.3631,145.3,96.4,0.544
40.16,32182.6,35386.2,0.8751,0.9467,145.3,96.4,0.544
40.18,32076.3,35222.3,0.3611,0.5441,145.3,96.4,0.544
40.2,32039.4,35176.8,0.1822,0.4323,145.3,96.4,0.544
40.22,32147.8,35034.9,0.7067,0.0838,145.3,96.4,0.544
40.24,32023.5,35065.0,0.1056,0.1577,145.3,96.4,0.544
40.26,32066.0,34873.7,0.311,-0.3121,145.3,96.4,0.544
40.28,31901.5,34832.5,-0.4848,-0.4135,145.3,96.4,0.544
40.3,31881.7,34708.3,-0.5802,-0.7185,145.3,96.4,0.544
40.32,31891.1,34678.4,-0.5348,-0.7919,145.3,96.4,0.544
40.34,31851.9,34666.5,-0.7244,-0.8212,145.3,96.4,0.544
40.36,31869.4,34572.9,-0.6399,-1.0511,145.3,96.4,0.544
40.38,31775.8,34481.1,-1.0925,-1.2765,145.3,96.4,0.544
40.4,31727.3,34506.3,-1.3273,-1.2147,145.3,96.4,0.544
40.42,31697.6,34466.3,-1.4711,-1.3129,145.3,96.4,0.544
40.44,31814.7,34566.5,-0.9044,-1.0667,145.3,96.4,0.544
40.46,31976.9,34879.4,-0.12,-0.2982,145.3,96.4,0.544
40.48,32138.3,35353.8,0.661,0.867,145.3,96.4,0.544
40.5,32317.4,35585.2,1.5273,1.4353,145.3,96.4,0.544
40.52,32410.8,35783.3,1.9791,1.9221,145.3,96.4,0.544
40.54,32412.4,35645.6,1.9865,1.5838,145.3,96.4,0.544
40.56,32192.5,35434.9,0.9228,1.0662,145.3,96.4,0.544
40.58,32062.2,35307.2,0.2929,0.7527,145.3,96.4,0.544
40.6,32013.9,35190.6,0.0592,0.4661,145.3,96.4,0.544
40.62,32015.2,35090.2,0.0653,0.2196,145.3,96.4,0.544
40.64,32085.3,34982.6,0.4043,-0.0448,145.3,96.4,0.544
40.66,31977.3,34878.4,-0.1179,-0.3008,145.3,96.4,0.544
40.68,31920.9,34748.6,-0.3906,-0.6195,145.3,96.4,0.544
40.7,31873.7,34761.8,-0.6191,-0.5871,145.3,96.4,0.544
40.72,31855.3,34737.6,-0.7079,-0.6464,145.3,96.4,0.544
40.74,31862.7,34753.0,-0.6722,-0.6087,145.3,96.4,0.544
40.76,31817.4,34650.4,-0.8915,-0.8606,145.3,96.4,0.544
40.78,31815.5,34599.9,-0.9006,-0.9848,145.3,96.4,0.544
40.8,31783.6,34452.1,-1.055,-1.3479,145.3,96.4,0.544
40.82,31691.1,34457.6,-1.5021,-1.3344,145.3,96.4,0.544
40.84,31774.8,34536.3,-1.0975,-1.141,145.3,96.4,0.544
40.86,31848.8,34682.7,-0.7397,-0.7813,145.3,96.4,0.544
40.88,32016.6,35042.4,0.0722,0.1022,145.3,96.4,0.544
40.9,32250.9,35492.4,1.2054,1.2076,145.3,96.4,0.544
40.92,32406.6,35752.9,1.9588,1.8474,145.3,96.4,0.544
40.94,32370.8,35693.0,1.7853,1.7001,145.3,96.4,0.544
40.96,32234.9,35654.9,1.1282,1.6067,145.3,96.4,0.544
40.98,32165.3,35489.4,0.7916,1.2001,145.3,96.4,0.544
41.0,32133.9,35217.8,0.6395,0.5329,145.3,96.4,0.544
41.02,32099.9,35144.7,0.4751,0.3534,145.3,96.4,0.544
41.04,31992.4,35044.6,-0.0451,0.1076,145.3,96.4,0.544
41.06,31953.6,34981.0,-0.2324,-0.0487,145.3,96.4,0.544
41.08,31895.8,34962.2,-0.5123,-0.0949,145.3,96.4,0.544
41.1,31963.8,34889.6,-0.1831,-0.2731,145.3,96.4,0.544
41.12,31863.2,34659.3,-0.6699,-0.8389,145.3,96.4,0.544
41.14,31857.8,34660.1,-0.6962,-0.8369,145.3,96.4,0.544
41.16,31864.1,34620.2,-0.6654,-0.935,145.3,96.4,0.544
41.18,31870.1,34564.8,-0.6363,-1.0709,145.3,96.4,0.544
41.2,31801.9,34584.6,-0.9661,-1.0222,145.3,96.4,0.544
41.22,31718.2,34435.9,-1.3711,-1.3877,145.3,96.4,0.544
41.24,31679.8,34397.2,-1.5571,-1.4825,145.3,96.4,0.544
41.26,31729.3,34592.8,-1.3174,-1.0023,145.3,96.4,0.544
41.28,31977.0,34857.1,-0.1195,-0.3529,145.3,96.4,0.544
41.3,32111.5,35317.5,0.531,0.778,145.3,96.4,0.544
41.32,32298.7,35648.2,1.4368,1.5903,145.3,96.4,0.544
41.34,32359.8,35757.2,1.732,1.858,145.3,96.4,0.544
41.36,32330.5,35682.7,1.5903,1.675,145.3,96.4,0.544
41.38,32354.7,35518.9,1.7075,1.2727,145.3,96.4,0.544
41.4,32204.2,35330.9,0.9795,0.8107,145.3,96.4,0.544
41.42,32006.4,35162.2,0.0227,0.3964,145.3,96.4,0.544
41.44,31995.5,35121.6,-0.0301,0.2968,145.3,96.4,0.544
41.46,32071.0,35028.2,0.3354,0.0673,145.3,96.4,0.544
41.48,32047.1,35041.8,0.2195,0.1007,145.3,96.4,0.544
41.5,32048.3,34884.7,0.2257,-0.2853,145.3,96.4,0.544
41.52,31923.0,34676.7,-0.3808,-0.7961,145.3,96.4,0.544
41.54,31791.3,34748.8,-1.0175,-0.6191,145.3,96.4,0.544
41.56,31880.1,34616.4,-0.5881,-0.9442,145.3,96.4,0.544
41.58,31764.4,34641.3,-1.1479,-0.883,145.3,96.4,0.544
41.6,31774.5,34686.3,-1.099,-0.7725,145.3,96.4,0.544
41.62,31758.2,34504.1,-1.1779,-1.2201,145.3,96.4,0.544
41.64,31740.0,34420.0,-1.2656,-1.4267,145.3,96.4,0.544
41.66,31781.0,34465.2,-1.0676,-1.3156,145.3,96.4,0.544
41.68,31731.2,34663.0,-1.3084,-0.8299,145.3,96.4,0.544
41.7,32040.8,34975.0,0.1893,-0.0635,145.3,96.4,0.544
41.72,32234.0,35409.6,1.1239,1.0042,145.3,96.4,0.544
41.74,32261.1,35676.8,1.2546,1.6605,145.3,96.4,0.544
41.76,32396.7,35725.5,1.9108,1.7802,145.3,96.4,0.544
41.78,32411.3,35671.1,1.9814,1.6464,145.3,96.4,0.544
41.8,32282.2,35491.3,1.357,1.2048,145.3,96.4,0.544
41.82,32123.6,35332.0,0.5898,0.8135,145.3,96.4,0.544
41.84,32071.3,35180.1,0.3369,0.4404,145.3,96.4,0.544
41.86,32027.7,35099.9,0.1256,0.2433,145.3,96.4,0.544
41.88,32069.4,34989.5,0.3274,-0.0277,145.3,96.4,0.544
41.9,31981.7,34964.2,-0.0965,-0.0899,145.3,96.4,0.544
41.92,31852.2,34823.5,-0.7231,-0.4355,145.3,96.4,0.544
41.94,31908.3,34770.2,-0.4516,-0.5664,145.3,96.4,0.544
41.96,31852.1,34745.7,-0.7234,-0.6267,145.3,96.4,0.544
41.98,31932.5,34752.3,-0.3346,-0.6104,145.3,96.4,0.544
42.0,31773.4,34582.2,-1.1042,-1.0282,145.3,96.4,0.544
42.02,31795.7,34606.4,-0.9965,-0.9688,145.3,96.4,0.544
42.04,31782.5,34527.0,-1.06,-1.1639,145.3,96.4,0.544
42.06,31737.2,34535.1,-1.2793,-1.1439,145.3,96.4,0.544
42.08,31720.8,34496.9,-1.3585,-1.2379,145.3,96.4,0.544
42.1,31909.5,34720.5,-0.4458,-0.6886,145.3,96.4,0.544
42.12,32038.4,35135.5,0.1774,0.3307,145.3,96.4,0.544
42.14,32238.5,35465.6,1.1453,1.1416,145.3,96.4,0.544
42.16,32404.1,35727.4,1.9467,1.7848,145.3,96.4,0.544
42.18,32430.7,35754.5,2.0751,1.8514,145.3,96.4,0.544
42.2,32323.1,35598.5,1.5547,1.4681,145.3,96.4,0.544
42.22,32249.0,35411.7,1.1964,1.0093,145.3,96.4,0.544
42.24,32208.5,35213.6,1.0003,0.5226,145.3,96.4,0.544
42.26,32019.5,35097.1,0.086,0.2365,145.3,96.4,0.544
42.28,32015.6,35072.3,0.0675,0.1756,145.3,96.4,0.544
42.3,31966.3,35040.3,-0.1712,0.0969,145.3,96.4,0.544
42.32,31983.9,34910.8,-0.0861,-0.2211,145.3,96.4,0.544
42.34,31961.0,34860.7,-0.1968,-0.3442,145.3,96.4,0.544
42.36,31913.5,34725.3,-0.4268,-0.6769,145.3,96.4,0.544
42.38,31880.0,34645.7,-0.5888,-0.8723,145.3,96.4,0.544
42.4,31823.1,34643.6,-0.8638,-0.8775,145.3,96.4,0.544
42.42,31817.5,34628.8,-0.8908,-0.9139,145.3,96.4,0.544
42.44,31791.1,34464.5,-1.0188,-1.3173,145.3,96.4,0.544
42.46,31772.1,34431.5,-1.1107,-1.3985,145.3,96.4,0.544
42.48,31673.4,34471.2,-1.5877,-1.3009,145.3,96.4,0.544
42.5,31815.2,34591.6,-0.9022,-1.0051,145.3,96.4,0.544
42.52,31878.7,34928.6,-0.5947,-0.1774,145.3,96.4,0.544
42.54,32188.2,35366.1,0.9022,0.8972,145.3,96.4,0.544
42.56,32211.1,35615.5,1.0129,1.5099,145.3,96.4,0.544
42.58,32376.0,35682.7,1.8106,1.6749,145.3,96.4,0.544
42.6,32437.1,35714.5,2.1063,1.7531,145.3,96.4,0.544
42.62,32224.1,35529.9,1.0758,1.2995,145.3,96.4,0.544
42.64,32113.0,35316.2,0.5382,0.7748,145.3,96.4,0.544
42.66,32034.4,35279.8,0.1581,0.6853,145.3,96.4,0.544
42.68,32143.8,35092.5,0.6872,0.2252,145.3,96.4,0.544
42.7,32021.1,35070.3,0.094,0.1707,145.3,96.4,0.544
42.72,31954.4,35032.4,-0.2287,0.0776,145.3,96.4,0.544
42.74,31962.5,34826.8,-0.1896,-0.4274,145.3,96.4,0.544
42.76,31927.7,34795.3,-0.3577,-0.5048,145.3,96.4,0.544
42.78,31908.3,34764.7,-0.4519,-0.5799,145.3,96.4,0.544
42.8,31788.1,34792.5,-1.0332,-0.5116,145.3,96.4,0.544
42.82,31820.8,34683.4,-0.8748,-0.7798,145.3,96.4,0.544
42.84,31863.1,34582.1,-0.6702,-1.0284,145.3,96.4,0.544
42.86,31757.7,34553.6,-1.1801,-1.0984,145.3,96.4,0.544
42.88,31699.5,34456.0,-1.4617,-1.3382,145.3,96.4,0.544
42.9,31722.3,34491.2,-1.3516,-1.2519,145.3,96.4,0.544
42.92,31935.0,34709.5,-0.3225,-0.7156,145.3,96.4,0.544
42.94,31997.4,34994.2,-0.0207,-0.0163,145.3,96.4,0.544
42.96,32116.0,35362.5,0.5531,0.8885,145.3,96.4,0.544
42.98,32267.6,35600.4,1.2863,1.4727,145.3,96.4,0.544
43.0,32277.7,35669.8,1.3352,1.6433,145.3,96.4,0.544
43.02,32343.4,35704.4,1.6528,1.7283,145.3,96.4,0.544
43.04,32337.6,35447.3,1.6251,1.0968,145.3,96.4,0.544
43.06,32165.3,35212.3,0.7912,0.5196,145.3,96.4,0.544
43.08,32027.3,35205.5,0.1237,0.5027,145.3,96.4,0.544
43.1,32077.0,35011.6,0.3645,0.0266,145.3,96.4,0.544
43.12,32045.5,35023.0,0.212,0.0544,145.3,96.4,0.544
43.14,31870.4,35008.3,-0.635,0.0183,145.3,96.4,0.544
43.16,31928.2,34921.7,-0.3556,-0.1944,145.3,96.4,0.544
43.18,31791.9,34736.5,-1.0147,-0.6491,145.3,96.4,0.544
43.2,31862.7,34629.2,-0.672,-0.9129,145.3,96.4,0.544
43.22,31776.4,34667.2,-1.0896,-0.8194,145.3,96.4,0.544
43.24,31928.9,34565.2,-0.3519,-1.07,145.3,96.4,0.544
43.26,31757.1,34471.1,-1.1829,-1.3012,145.3,96.4,0.544
43.28,31823.1,34521.2,-0.8639,-1.1782,145.3,96.4,0.544
43.3,31666.1,34508.1,-1.6231,-1.2103,145.3,96.4,0.544
43.32,31743.4,34526.7,-1.2495,-1.1645,145.3,96.4,0.544
43.34,31886.7,34773.9,-0.5563,-0.5575,145.3,96.4,0.544
43.36,32007.9,35101.1,0.0301,0.2462,145.3,96.4,0.544
43.38,32292.2,35486.9,1.4054,1.194,145.3,96.4,0.544
43.4,32405.3,35758.9,1.9525,1.8621,145.3,96.4,0.544
43.42,32396.8,35745.8,1.9111,1.8299,145.3,96.4,0.544
43.44,32236.4,35612.1,1.1353,1.5015,145.3,96.4,0.544
43.46,32208.8,35529.4,1.0018,1.2984,145.3,96.4,0.544
43.48,32082.6,35209.7,0.3915,0.5131,145.3,96.4,0.544
43.5,32034.6,35157.5,0.1591,0.3848,145.3,96.4,0.544
43.52,31985.7,35055.9,-0.0775,0.1352,145.3,96.4,0.544
43.54,32007.7,35012.2,0.029,0.0281,145.3,96.4,0.544
43.56,31996.8,34909.2,-0.0236,-0.225,145.3,96.4,0.544
43.58,31873.4,34714.3,-0.6203,-0.7039,145.3,96.4,0.544
43.6,31903.4,34684.9,-0.4756,-0.7759,145.3,96.4,0.544
43.62,31840.8,34649.3,-0.7783,-0.8635,145.3,96.4,0.544
43.64,31833.0,34594.1,-0.816,-0.9991,145.3,96.4,0.544
43.66,31918.2,34587.9,-0.4039,-1.0141,145.3,96.4,0.544
43.68,31766.9,34583.8,-1.1359,-1.0242,145.3,96.4,0.544
43.7,31692.6,34518.6,-1.4949,-1.1844,145.3,96.4,0.544
43.72,31817.3,34541.1,-0.892,-1.1293,145.3,96.4,0.544
43.74,31836.9,34601.3,-0.7973,-0.9814,145.3,96.4,0.544
43.76,32038.9,34987.3,0.1798,-0.0332,145.3,96.4,0.544
43.78,32128.5,35322.4,0.6135,0.7899,145.3,96.4,0.544
43.8,32279.9,35648.1,1.3457,1.5901,145.3,96.4,0.544
43.82,32368.4,35763.3,1.7736,1.8728,145.3,96.4,0.544
43.84,32405.3,35722.3,1.9525,1.7723,145.3,96.4,0.544
43.86,32281.1,35535.0,1.3517,1.3121,145.3,96.4,0.544
43.88,32168.0,35327.3,0.8045,0.802,145.3,96.4,0.544
43.9,32128.1,35157.7,0.6116,0.3855,145.3,96.4,0.544
43.92,32118.3,35129.7,0.5641,0.3167,145.3,96.4,0.544
43.94,32069.3,35051.8,0.327,0.1253,145.3,96.4,0.544
43.96,32008.6,34975.0,0.0335,-0.0634,145.3,96.4,0.544
43.98,31969.1,34840.2,-0.1574,-0.3946,145.3,96.4,0.544
44.0,31870.6,34701.4,-0.6339,-0.7353,145.3,96.4,0.544
44.02,31821.8,34714.0,-0.8701,-0.7046,145.3,96.4,0.544
44.04,31748.4,34615.4,-1.2253,-0.9466,145.3,96.4,0.544
44.06,31740.5,34590.6,-1.2632,-1.0076,145.3,96.4,0.544
44.08,31824.2,34579.3,-0.8584,-1.0355,145.3,96.4,0.544
44.1,31740.9,34528.1,-1.2615,-1.1611,145.3,96.4,0.544
44.12,31678.1,34417.5,-1.5652,-1.4329,145.3,96.4,0.544
44.14,31742.8,34526.2,-1.2523,-1.1659,145.3,96.4,0.544
44.16,31847.1,34558.2,-0.7478,-1.0872,145.3,96.4,0.544
44.18,32046.6,34958.3,0.217,-0.1043,145.3,96.4,0.544
44.2,32212.9,35431.2,1.0215,1.0573,145.3,96.4,0.544
44.22,32349.0,35710.4,1.6799,1.7429,145.3,96.4,0.544
44.24,32321.4,35789.4,1.5466,1.9371,145.3,96.4,0.544
44.26,32249.0,35680.5,1.1965,1.6695,145.3,96.4,0.544
44.28,32243.8,35486.6,1.1713,1.1933,145.3,96.4,0.544
44.3,32027.1,35236.5,0.1228,0.579,145.3,96.4,0.544
44.32,32141.5,35148.4,0.6762,0.3626,145.3,96.4,0.544
44.34,32054.6,34986.5,0.2559,-0.035,145.3,96.4,0.544
44.36,32025.2,35047.1,0.1137,0.1137,145.3,96.4,0.544
44.38,31981.8,35002.6,-0.0961,0.0045,145.3,96.4,0.544
44.4,32028.1,34810.8,0.1277,-0.4667,145.3,96.4,0.544
44.42,31817.8,34829.5,-0.8893,-0.4208,145.3,96.4,0.544
44.44,31847.0,34636.5,-0.7481,-0.8948,145.3,96.4,0.544
44.46,31823.0,34627.6,-0.8642,-0.9168,145.3,96.4,0.544
44.48,31784.5,34622.3,-1.0506,-0.9298,145.3,96.4,0.544
44.5,31753.5,34636.5,-1.2006,-0.8948,145.3,96.4,0.544
44.52,31838.0,34469.8,-0.7916,-1.3043,145.3,96.4,0.544
44.54,31769.3,34425.1,-1.1242,-1.4142,145.3,96.4,0.544
44.56,31724.6,34629.9,-1.3404,-0.9111,145.3,96.4,0.544
44.58,31926.3,34829.8,-0.3647,-0.4201,145.3,96.4,0.544
44.6,32092.4,35094.6,0.4388,0.2303,145.3,96.4,0.544
44.62,32238.3,35587.5,1.1446,1.441,145.3,96.4,0.544
44.64,32327.9,35799.7,1.5779,1.9624,145.3,96.4,0.544
44.66,32298.5,35623.9,1.4359,1.5306,145.3,96.4,0.544
44.68,32308.8,35590.1,1.4857,1.4475,145.3,96.4,0.544
44.7,32161.9,35468.9,0.7751,1.1498,145.3,96.4,0.544
44.72,32234.3,35165.6,1.1253,0.4047,145.3,96.4,0.544
44.74,32081.1,35131.1,0.3841,0.3202,145.3,96.4,0.544
44.76,32045.8,35104.3,0.2132,0.2542,145.3,96.4,0.544
44.78,31924.3,35014.8,-0.3741,0.0343,145.3,96.4,0.544
44.8,31923.8,34944.2,-0.3766,-0.1391,145.3,96.4,0.544
44.82,31933.4,34731.5,-0.3302,-0.6615,145.3,96.4,0.544
44.84,31801.2,34617.7,-0.9698,-0.941,145.3,96.4,0.544
44.86,31810.0,34688.0,-0.9273,-0.7684,145.3,96.4,0.544
