timestamp,raw_red,raw_ir,filtered_red,filtered_ir,heart_rate,spo2,ac_dc_ratio
0.0,32012.2,35030.8,0.2108,0.3591,136.4,98.1,0.474
0.02,32012.6,35145.3,0.2189,1.7174,136.4,98.1,0.474
0.04,32083.5,35178.3,1.4225,2.108,136.4,98.1,0.474
0.06,32049.1,35182.1,0.8379,2.153,136.4,98.1,0.474
0.08,32005.4,35066.0,0.0954,0.7767,136.4,98.1,0.474
0.1,32056.2,35063.9,0.9585,0.7517,136.4,98.1,0.474
0.12,32074.0,35068.6,1.2608,0.808,136.4,98.1,0.474
0.14,32063.0,35022.7,1.0737,0.2629,136.4,98.1,0.474
0.16,32037.1,35018.8,0.6346,0.2177,136.4,98.1,0.474
0.18,31961.6,35011.2,-0.6475,0.1271,136.4,98.1,0.474
0.2,32099.4,34987.3,1.6925,-0.1562,136.4,98.1,0.474
0.22,31941.3,34998.4,-0.9918,-0.025,136.4,98.1,0.474
0.24,32046.8,34976.5,0.7995,-0.2844,136.4,98.1,0.474
0.26,31946.2,35023.0,-0.9086,0.2666,136.4,98.1,0.474
0.28,31948.3,35013.6,-0.8743,0.1555,136.4,98.1,0.474
0.3,32010.4,34927.1,0.1808,-0.8708,136.4,98.1,0.474
0.32,31957.6,34923.0,-0.716,-0.9184,136.4,98.1,0.474
0.34,31990.5,34921.7,-0.1563,-0.934,136.4,98.1,0.474
0.36,31964.2,34993.0,-0.6031,-0.0892,136.4,98.1,0.474
0.38,31933.5,34853.9,-1.1254,-1.7381,136.4,98.1,0.474
0.4,31926.4,34985.4,-1.2459,-0.1794,136.4,98.1,0.474
0.42,32000.4,34954.6,0.0112,-0.5447,136.4,98.1,0.474
0.44,32023.3,35020.3,0.4,0.2351,136.4,98.1,0.474
0.46,32035.8,35077.2,0.6132,0.9091,136.4,98.1,0.474
0.48,32093.4,35083.1,1.5902,0.9792,136.4,98.1,0.474
0.5,32044.8,35144.6,0.7646,1.709,136.4,98.1,0.474
0.52,32014.1,35195.0,0.2434,2.307,136.4,98.1,0.474
0.54,31992.9,35023.1,-0.1158,0.2682,136.4,98.1,0.474
0.56,32015.4,35018.3,0.2655,0.2115,136.4,98.1,0.474
0.58,32017.0,35073.5,0.2939,0.8656,136.4,98.1,0.474
0.6,31996.3,35050.5,-0.0577,0.593,136.4,98.1,0.474
0.62,31987.7,35007.0,-0.2037,0.077,136.4,98.1,0.474
0.64,32012.3,34990.6,0.2125,-0.1171,136.4,98.1,0.474
0.66,32026.2,35026.9,0.4493,0.3128,136.4,98.1,0.474
0.68,31995.0,34907.9,-0.0805,-1.098,136.4,98.1,0.474
0.7,31999.4,34972.2,-0.0057,-0.3352,136.4,98.1,0.474
0.72,31994.6,34942.1,-0.0875,-0.6927,136.4,98.1,0.474
0.74,31989.1,34836.7,-0.1802,-1.942,136.4,98.1,0.474
0.76,32070.8,34999.5,1.2074,-0.0119,136.4,98.1,0.474
0.78,32043.8,35016.6,0.7475,0.1916,136.4,98.1,0.474
0.8,32041.0,34904.4,0.701,-1.1391,136.4,98.1,0.474
0.82,31928.2,34954.8,-1.2142,-0.5419,136.4,98.1,0.474
0.84,31948.9,34974.1,-0.8626,-0.3131,136.4,98.1,0.474
0.86,31923.0,34995.2,-1.3034,-0.063,136.4,98.1,0.474
0.88,31946.7,35012.5,-0.901,0.1425,136.4,98.1,0.474
0.9,31960.1,35027.5,-0.6727,0.3206,136.4,98.1,0.474
0.92,32058.9,35116.5,1.0043,1.3758,136.4,98.1,0.474
0.94,32046.9,35056.5,0.8002,0.6636,136.4,98.1,0.474
0.96,32103.4,35203.1,1.76,2.4028,136.4,98.1,0.474
0.98,32067.1,35126.0,1.1443,1.4888,136.4,98.1,0.474
1.0,32055.6,35052.4,0.9489,0.6154,136.4,98.1,0.474
1.02,32100.2,35077.3,1.7068,0.9109,136.4,98.1,0.474
1.04,32076.0,35098.4,1.2949,1.1606,136.4,98.1,0.474
1.06,32054.4,35039.8,0.9286,0.4658,136.4,98.1,0.474
1.08,31965.8,35054.6,-0.577,0.6413,136.4,98.1,0.474
1.1,31938.6,35066.9,-1.0384,0.7872,136.4,98.1,0.474
1.12,32025.4,34974.4,0.4353,-0.3095,136.4,98.1,0.474
1.14,32009.8,34944.9,0.1715,-0.659,136.4,98.1,0.474
1.16,31866.9,34935.5,-2.2561,-0.7707,136.4,98.1,0.474
1.18,31983.0,34842.1,-0.2848,-1.8786,136.4,98.1,0.474
1.2,31884.6,34878.3,-1.9558,-1.4488,136.4,98.1,0.474
1.22,31958.4,35013.4,-0.7027,0.1531,136.4,98.1,0.474
1.24,31932.5,34966.4,-1.1421,-0.4046,136.4,98.1,0.474
1.26,31853.3,34891.6,-2.4866,-1.2913,136.4,98.1,0.474
1.28,31890.7,34888.4,-1.852,-1.3296,136.4,98.1,0.474
1.3,31889.5,35001.7,-1.8717,0.0139,136.4,98.1,0.474
1.32,31981.3,34930.7,-0.3128,-0.828,136.4,98.1,0.474
1.34,31976.6,35058.9,-0.3929,0.6928,136.4,98.1,0.474
1.36,32061.4,35114.5,1.0468,1.3513,136.4,98.1,0.474
1.38,31997.4,35194.1,-0.0389,2.2957,136.4,98.1,0.474
1.4,32075.5,35094.5,1.287,1.1147,136.4,98.1,0.474
1.42,32086.6,35139.8,1.4744,1.6524,136.4,98.1,0.474
1.44,32021.6,35033.1,0.3714,0.3862,136.4,98.1,0.474
1.46,31975.6,35042.1,-0.4097,0.4931,136.4,98.1,0.474
1.48,32064.7,34950.7,1.1035,-0.5908,136.4,98.1,0.474
1.5,32025.8,35004.5,0.4431,0.0479,136.4,98.1,0.474
1.52,32056.7,34983.2,0.9669,-0.205,136.4,98.1,0.474
1.54,31942.1,34976.5,-0.9788,-0.2847,136.4,98.1,0.474
1.56,31993.7,34944.1,-0.1033,-0.6683,136.4,98.1,0.474
1.58,32009.3,34969.0,0.1621,-0.3732,136.4,98.1,0.474
1.6,32056.2,34939.9,0.9583,-0.7183,136.4,98.1,0.474
1.62,32042.4,34927.0,0.7252,-0.8714,136.4,98.1,0.474
1.64,31889.0,34929.4,-1.8813,-0.8432,136.4,98.1,0.474
1.66,32002.1,34935.9,0.0393,-0.7653,136.4,98.1,0.474
1.68,31944.7,34951.5,-0.9345,-0.5811,136.4,98.1,0.474
1.7,31940.2,34961.7,-1.0118,-0.4602,136.4,98.1,0.474
1.72,32003.7,34971.7,0.068,-0.3415,136.4,98.1,0.474
1.74,32032.2,35001.6,0.5516,0.0136,136.4,98.1,0.474
1.76,31993.5,35064.5,-0.1063,0.7593,136.4,98.1,0.474
1.78,31994.1,35074.2,-0.0962,0.8741,136.4,98.1,0.474
1.8,32003.9,35174.9,0.0712,2.068,136.4,98.1,0.474
1.82,32142.8,35156.4,2.429,1.8484,136.4,98.1,0.474
1.84,31998.8,35131.6,-0.016,1.5545,136.4,98.1,0.474
1.86,32096.4,35178.1,1.6413,2.1057,136.4,98.1,0.474
1.88,32011.1,34997.6,0.1929,-0.0343,136.4,98.1,0.474
1.9,32032.0,35088.7,0.5471,1.0457,136.4,98.1,0.474
1.92,31987.2,35013.0,-0.2135,0.1478,136.4,98.1,0.474
1.94,31964.7,35011.8,-0.5946,0.1336,136.4,98.1,0.474
1.96,31960.6,35015.8,-0.6651,0.1813,136.4,98.1,0.474
1.98,32040.5,35014.9,0.6928,0.1709,136.4,98.1,0.474
2.0,31959.8,34905.9,-0.6775,-1.1213,136.4,98.1,0.474
2.02,31993.5,34939.9,-0.1058,-0.7187,136.4,98.1,0.474
2.04,32031.4,34874.8,0.5383,-1.4902,136.4,98.1,0.474
2.06,31987.7,34957.7,-0.2044,-0.5077,136.4,98.1,0.474
2.08,31960.9,34983.0,-0.6593,-0.2071,136.4,98.1,0.474
2.1,31954.6,34978.9,-0.7668,-0.2565,136.4,98.1,0.474
2.12,31979.8,34910.4,-0.3381,-1.068,136.4,98.1,0.474
2.14,31900.2,34957.3,-1.6907,-0.512,136.4,98.1,0.474
2.16,31952.7,34920.8,-0.7984,-0.9447,136.4,98.1,0.474
2.18,31923.7,34968.1,-1.2914,-0.3836,136.4,98.1,0.474
2.2,32024.8,35072.3,0.4251,0.8515,136.4,98.1,0.474
2.22,31918.6,35060.4,-1.3782,0.7109,136.4,98.1,0.474
2.24,32029.2,35106.3,0.4999,1.2543,136.4,98.1,0.474
2.26,32085.8,35160.6,1.4609,1.898,136.4,98.1,0.474
2.28,32074.7,35105.7,1.2728,1.2479,136.4,98.1,0.474
2.3,32024.1,35082.3,0.4145,0.9705,136.4,98.1,0.474
2.32,31987.9,35010.9,-0.2008,0.1231,136.4,98.1,0.474
2.34,31937.8,35076.0,-1.0514,0.8948,136.4,98.1,0.474
2.36,31968.5,34997.1,-0.5301,-0.0408,136.4,98.1,0.474
2.38,32003.5,35011.2,0.0639,0.1266,136.4,98.1,0.474
2.4,31985.4,35002.3,-0.2439,0.0211,136.4,98.1,0.474
2.42,32077.2,34939.6,1.3159,-0.722,136.4,98.1,0.474
2.44,31923.5,34849.9,-1.295,-1.7851,136.4,98.1,0.474
2.46,31896.3,34889.9,-1.7572,-1.311,136.4,98.1,0.474
2.48,31949.0,34960.5,-0.8617,-0.4745,136.4,98.1,0.474
2.5,32025.6,34946.8,0.4396,-0.6363,136.4,98.1,0.474
2.52,31948.9,34911.2,-0.8642,-1.0593,136.4,98.1,0.474
2.54,31998.8,34843.5,-0.0155,-1.8609,136.4,98.1,0.474
2.56,31987.9,34863.6,-0.2014,-1.6232,136.4,98.1,0.474
2.58,32069.7,34813.5,1.1876,-2.2171,136.4,98.1,0.474
2.6,32018.6,34865.7,0.3209,-1.5979,136.4,98.1,0.474
2.62,31928.4,34942.7,-1.2115,-0.6854,136.4,98.1,0.474
2.64,32084.4,35034.0,1.4386,0.397,136.4,98.1,0.474
2.66,31946.2,35128.4,-0.9098,1.5163,136.4,98.1,0.474
2.68,32079.1,35109.3,1.3474,1.2907,136.4,98.1,0.474
2.7,32063.9,35137.3,1.0901,1.6225,136.4,98.1,0.474
2.72,32046.6,35118.7,0.7965,1.4019,136.4,98.1,0.474
2.74,32119.8,35067.1,2.0399,0.7904,136.4,98.1,0.474
2.76,32005.2,34977.8,0.0925,-0.2686,136.4,98.1,0.474
2.78,31996.8,35033.3,-0.0494,0.3885,136.4,98.1,0.474
2.8,31935.4,34916.2,-1.0935,-0.9992,136.4,98.1,0.474
2.82,32085.5,35005.6,1.4562,0.0609,136.4,98.1,0.474
2.84,32043.0,34965.2,0.7355,-0.4188,136.4,98.1,0.474
2.86,31955.2,35042.8,-0.7558,0.5016,136.4,98.1,0.474
2.88,31923.1,34955.7,-1.3012,-0.5312,136.4,98.1,0.474
2.9,31950.1,34932.5,-0.8438,-0.806,136.4,98.1,0.474
2.92,31967.3,34921.1,-0.5504,-0.9416,136.4,98.1,0.474
2.94,32001.5,34951.3,0.0308,-0.5829,136.4,98.1,0.474
2.96,31945.9,34898.7,-0.9147,-1.2065,136.4,98.1,0.474
2.98,32010.7,34898.6,0.1865,-1.2086,136.4,98.1,0.474
3.0,31977.6,34861.6,-0.3765,-1.6471,136.4,98.1,0.474
3.02,31971.5,34903.8,-0.4799,-1.1467,136.4,98.1,0.474
3.04,32001.6,34924.0,0.0321,-0.9071,136.4,98.1,0.474
3.06,32068.4,34951.7,1.1657,-0.5782,136.4,98.1,0.474
3.08,32001.9,35115.1,0.0369,1.3595,136.4,98.1,0.474
3.1,31956.9,35075.0,-0.7269,0.8838,136.4,98.1,0.474
3.12,32054.6,35076.0,0.9312,0.895,136.4,98.1,0.474
3.14,32033.9,35109.8,0.5806,1.2967,136.4,98.1,0.474
3.16,32108.6,35141.3,1.8489,1.6693,136.4,98.1,0.474
3.18,31995.7,35035.7,-0.0693,0.4177,136.4,98.1,0.474
3.2,32080.8,35012.5,1.377,0.142,136.4,98.1,0.474
3.22,32048.0,34958.4,0.8191,-0.4991,136.4,98.1,0.474
3.24,31952.6,35061.8,-0.8,0.727,136.4,98.1,0.474
3.26,31905.3,35053.6,-1.6047,0.6292,136.4,98.1,0.474
3.28,31934.1,35015.5,-1.1152,0.1785,136.4,98.1,0.474
3.3,31957.7,35044.4,-0.714,0.5211,136.4,98.1,0.474
3.32,31987.2,35015.5,-0.2129,0.1776,136.4,98.1,0.474
3.34,32012.1,35029.6,0.2105,0.3458,136.4,98.1,0.474
3.36,31900.4,34929.1,-1.6867,-0.8461,136.4,98.1,0.474
3.38,32010.4,35010.6,0.1811,0.1199,136.4,98.1,0.474
3.4,31925.7,34871.0,-1.2578,-1.5348,136.4,98.1,0.474
3.42,32018.7,34959.3,0.3227,-0.4887,136.4,98.1,0.474
3.44,31989.0,34838.2,-0.1827,-1.9238,136.4,98.1,0.474
3.46,32016.3,34961.9,0.2819,-0.4572,136.4,98.1,0.474
3.48,31979.9,34928.6,-0.3373,-0.8519,136.4,98.1,0.474
3.5,32015.1,34934.0,0.2612,-0.788,136.4,98.1,0.474
3.52,31962.8,35091.3,-0.6267,1.0765,136.4,98.1,0.474
3.54,32068.2,35153.7,1.1626,1.8165,136.4,98.1,0.474
3.56,32134.8,35131.5,2.2939,1.553,136.4,98.1,0.474
3.58,32060.7,35108.3,1.0359,1.2781,136.4,98.1,0.474
3.6,32008.8,35160.5,0.1544,1.8972,136.4,98.1,0.474
3.62,31975.5,35087.3,-0.4112,1.0293,136.4,98.1,0.474
3.64,32121.6,34998.8,2.07,-0.0199,136.4,98.1,0.474
3.66,31986.1,34926.3,-0.2308,-0.8798,136.4,98.1,0.474
3.68,32136.8,35036.6,2.3283,0.4281,136.4,98.1,0.474
3.7,31933.4,35079.6,-1.126,0.9385,136.4,98.1,0.474
3.72,31892.4,35016.3,-1.8235,0.188,136.4,98.1,0.474
3.74,32018.2,35040.5,0.3132,0.4742,136.4,98.1,0.474
3.76,31999.9,34848.4,0.0033,-1.8031,136.4,98.1,0.474
3.78,31949.0,34943.0,-0.8623,-0.6818,136.4,98.1,0.474
3.8,31895.7,34916.6,-1.7676,-0.9944,136.4,98.1,0.474
3.82,32032.0,34930.8,0.548,-0.8265,136.4,98.1,0.474
3.84,31965.9,34965.4,-0.5752,-0.4163,136.4,98.1,0.474
3.86,32035.9,34950.4,0.6135,-0.5943,136.4,98.1,0.474
3.88,31937.2,34847.5,-1.0628,-1.8138,136.4,98.1,0.474
3.9,31910.0,34801.6,-1.5245,-2.3588,136.4,98.1,0.474
3.92,31978.1,34842.9,-0.3673,-1.8683,136.4,98.1,0.474
3.94,31915.3,34966.0,-1.4334,-0.4087,136.4,98.1,0.474
3.96,31974.4,35071.8,-0.4303,0.8456,136.4,98.1,0.474
3.98,32063.3,35092.5,1.0795,1.091,136.4,98.1,0.474
4.0,32108.8,35163.4,1.852,1.9313,136.4,98.1,0.474
4.02,32044.5,35161.4,0.7596,1.9079,136.4,98.1,0.474
4.04,32081.0,35176.1,1.3806,2.0823,136.4,98.1,0.474
4.06,32109.4,35073.5,1.863,0.8654,136.4,98.1,0.474
4.08,32097.0,35066.3,1.6523,0.7805,136.4,98.1,0.474
4.1,32020.3,34998.7,0.3492,-0.0215,136.4,98.1,0.474
4.12,32020.1,35074.7,0.3455,0.8801,136.4,98.1,0.474
4.14,31981.3,34920.7,-0.3127,-0.9462,136.4,98.1,0.474
4.16,32068.8,35007.6,1.1733,0.0845,136.4,98.1,0.474
4.18,32099.6,34923.3,1.6957,-0.915,136.4,98.1,0.474
4.2,31972.9,34948.6,-0.455,-0.6148,136.4,98.1,0.474
4.22,32000.4,34923.8,0.0111,-0.9088,136.4,98.1,0.474
4.24,31905.3,34860.6,-1.6043,-1.6589,136.4,98.1,0.474
4.26,31980.6,34879.4,-0.3258,-1.4362,136.4,98.1,0.474
4.28,31904.4,34883.0,-1.6186,-1.3936,136.4,98.1,0.474
4.3,31943.4,34922.1,-0.9568,-0.9293,136.4,98.1,0.474
4.32,31950.2,34896.8,-0.8416,-1.23,136.4,98.1,0.474
4.34,31969.3,34959.0,-0.5169,-0.4925,136.4,98.1,0.474
4.36,31968.3,34951.7,-0.5335,-0.5783,136.4,98.1,0.474
4.38,31913.0,34968.7,-1.4737,-0.3768,136.4,98.1,0.474
4.4,32064.8,35108.7,1.1043,1.2833,136.4,98.1,0.474
4.42,32074.4,35032.1,1.2674,0.375,136.4,98.1,0.474
4.44,32066.3,35128.2,1.1299,1.5149,136.4,98.1,0.474
4.46,32133.6,35158.2,2.2729,1.8698,136.4,98.1,0.474
4.48,32087.5,35091.9,1.4909,1.0839,136.4,98.1,0.474
4.5,32108.7,35113.3,1.8501,1.3378,136.4,98.1,0.474
4.52,32023.9,34996.7,0.4099,-0.0453,136.4,98.1,0.474
4.54,32041.5,35049.6,0.7096,0.5823,136.4,98.1,0.474
4.56,31998.6,35018.6,-0.0197,0.2151,136.4,98.1,0.474
4.58,32035.9,35091.7,0.6137,1.0817,136.4,98.1,0.474
4.6,32033.9,34973.7,0.5805,-0.3182,136.4,98.1,0.474
4.62,31971.4,35071.2,-0.4806,0.8389,136.4,98.1,0.474
4.64,31980.0,34925.8,-0.3353,-0.8854,136.4,98.1,0.474
4.66,31899.4,34997.6,-1.7034,-0.0347,136.4,98.1,0.474
4.68,31949.9,34958.5,-0.8463,-0.4974,136.4,98.1,0.474
4.7,31956.0,34974.0,-0.7436,-0.3144,136.4,98.1,0.474
4.72,31987.7,34955.6,-0.2044,-0.5321,136.4,98.1,0.474
4.74,31955.5,34965.1,-0.7515,-0.4191,136.4,98.1,0.474
4.76,31965.7,34887.3,-0.5772,-1.3424,136.4,98.1,0.474
4.78,32076.4,34833.9,1.3022,-1.9752,136.4,98.1,0.474
4.8,31948.2,34904.1,-0.8754,-1.1424,136.4,98.1,0.474
4.82,32070.9,34953.2,1.2081,-0.5601,136.4,98.1,0.474
4.84,31920.2,35067.9,-1.3507,0.7988,136.4,98.1,0.474
4.86,32109.9,35027.5,1.8704,0.3198,136.4,98.1,0.474
4.88,31986.0,35132.9,-0.2331,1.5696,136.4,98.1,0.474
4.9,32084.0,35046.7,1.4303,0.5478,136.4,98.1,0.474
4.92,32051.5,35029.8,0.8789,0.3479,136.4,98.1,0.474
4.94,31979.6,35115.2,-0.3417,1.3602,136.4,98.1,0.474
4.96,31961.7,35017.5,-0.6465,0.2022,136.4,98.1,0.474
4.98,32067.3,35083.6,1.1478,0.985,136.4,98.1,0.474
5.0,31947.3,35032.3,-0.8903,0.3769,136.4,98.1,0.474
5.02,32002.3,34995.6,0.0436,-0.0575,136.4,98.1,0.474
5.04,31998.8,34965.8,-0.0164,-0.4111,136.4,98.1,0.474
5.06,31991.4,34993.1,-0.1408,-0.0874,136.4,98.1,0.474
5.08,31939.5,34944.4,-1.0222,-0.6649,136.4,98.1,0.474
5.1,32061.8,34927.9,1.0541,-0.8605,136.4,98.1,0.474
5.12,31942.2,34956.5,-0.9778,-0.5215,136.4,98.1,0.474
5.14,31930.7,34929.9,-1.1725,-0.837,136.4,98.1,0.474
5.16,31971.7,34988.3,-0.4759,-0.1449,136.4,98.1,0.474
5.18,31926.9,34896.8,-1.2379,-1.229,136.4,98.1,0.474
5.2,31984.8,34932.9,-0.2544,-0.8011,136.4,98.1,0.474
5.22,32014.6,34862.3,0.2525,-1.6382,136.4,98.1,0.474
5.24,31966.0,34872.4,-0.5724,-1.5183,136.4,98.1,0.474
5.26,32006.7,34979.8,0.1188,-0.2452,136.4,98.1,0.474
5.28,31914.7,35051.1,-1.4445,0.5997,136.4,98.1,0.474
5.3,32010.3,35035.9,0.1786,0.42,136.4,98.1,0.474
5.32,32074.4,35084.1,1.2676,0.991,136.4,98.1,0.474
5.34,31990.6,35176.6,-0.155,2.0885,136.4,98.1,0.474
5.36,32002.4,35161.6,0.0459,1.9108,136.4,98.1,0.474
5.38,31926.6,35053.1,-1.2425,0.6236,136.4,98.1,0.474
5.4,32082.7,35027.0,1.409,0.3149,136.4,98.1,0.474
5.42,31962.0,35028.0,-0.6416,0.3267,136.4,98.1,0.474
5.44,31900.2,34986.2,-1.6913,-0.1692,136.4,98.1,0.474
5.46,31952.4,34949.5,-0.8035,-0.6049,136.4,98.1,0.474
5.48,32019.3,35032.1,0.3323,0.3743,136.4,98.1,0.474
5.5,32034.8,34973.3,0.5955,-0.3228,136.4,98.1,0.474
5.52,32072.8,34952.5,1.2415,-0.5688,136.4,98.1,0.474
5.54,31981.3,34983.9,-0.3138,-0.1964,136.4,98.1,0.474
5.56,32017.5,34983.6,0.3017,-0.2005,136.4,98.1,0.474
5.58,31948.7,34939.7,-0.8664,-0.7214,136.4,98.1,0.474
5.6,31971.5,34855.4,-0.4802,-1.72,136.4,98.1,0.474
5.62,32031.0,34965.5,0.5307,-0.4144,136.4,98.1,0.474
5.64,32018.2,34925.0,0.314,-0.8948,136.4,98.1,0.474
5.66,31962.0,34913.3,-0.6414,-1.0344,136.4,98.1,0.474
5.68,31920.0,34908.1,-1.3545,-1.0958,136.4,98.1,0.474
5.7,31957.8,34943.4,-0.7122,-0.6764,136.4,98.1,0.474
5.72,32072.4,34958.4,1.2335,-0.4993,136.4,98.1,0.474
5.74,32026.6,35115.5,0.4563,1.3634,136.4,98.1,0.474
5.76,32122.8,35067.9,2.0903,0.7997,136.4,98.1,0.474
5.78,32093.1,35134.8,1.5863,1.5927,136.4,98.1,0.474
5.8,32021.6,35119.2,0.3707,1.4077,136.4,98.1,0.474
5.82,31935.9,35041.6,-1.084,0.487,136.4,98.1,0.474
5.84,32150.4,35003.3,2.5595,0.0331,136.4,98.1,0.474
5.86,31959.5,35035.1,-0.6836,0.4105,136.4,98.1,0.474
5.88,31915.9,35052.4,-1.423,0.6149,136.4,98.1,0.474
5.9,32032.0,35063.3,0.5477,0.7452,136.4,98.1,0.474
5.92,32028.8,34942.6,0.493,-0.6868,136.4,98.1,0.474
5.94,31999.1,34963.0,-0.0116,-0.4447,136.4,98.1,0.474
5.96,31915.7,34893.3,-1.4266,-1.2711,136.4,98.1,0.474
5.98,32075.2,34823.8,1.2824,-2.0952,136.4,98.1,0.474
6.0,31973.2,35011.1,-0.4506,0.1255,136.4,98.1,0.474
6.02,32001.3,34912.3,0.0266,-1.0453,136.4,98.1,0.474
6.04,31994.6,34952.7,-0.0865,-0.5672,136.4,98.1,0.474
6.06,31985.7,34977.2,-0.2378,-0.2759,136.4,98.1,0.474
6.08,31964.2,34859.9,-0.6042,-1.6672,136.4,98.1,0.474
6.1,31908.3,34936.6,-1.5529,-0.7581,136.4,98.1,0.474
6.12,31954.4,34911.2,-0.7694,-1.0589,136.4,98.1,0.474
6.14,31956.8,34933.6,-0.7295,-0.7932,136.4,98.1,0.474
6.16,31963.3,35034.1,-0.6188,0.3982,136.4,98.1,0.474
6.18,32063.7,35106.8,1.0859,1.2607,136.4,98.1,0.474
6.2,31963.3,35125.0,-0.6193,1.4768,136.4,98.1,0.474
6.22,32055.2,35151.0,0.9428,1.7852,136.4,98.1,0.474
6.24,32051.2,35063.6,0.8744,0.7484,136.4,98.1,0.474
6.26,32094.6,35048.2,1.6115,0.5656,136.4,98.1,0.474
6.28,31999.6,35028.7,-0.003,0.3349,136.4,98.1,0.474
6.3,32004.9,34953.8,0.0874,-0.5541,136.4,98.1,0.474
6.32,31915.1,35069.0,-1.4381,0.8129,136.4,98.1,0.474
6.34,31906.0,35093.7,-1.5925,1.1052,136.4,98.1,0.474
6.36,31904.8,34929.2,-1.6116,-0.8454,136.4,98.1,0.474
6.38,32024.8,34972.3,0.4265,-0.334,136.4,98.1,0.474
6.4,32031.5,34900.2,0.5389,-1.1897,136.4,98.1,0.474
6.42,32019.2,35025.0,0.3305,0.2904,136.4,98.1,0.474
6.44,31964.3,34871.0,-0.6024,-1.5355,136.4,98.1,0.474
6.46,32009.4,34966.2,0.1649,-0.4062,136.4,98.1,0.474
6.48,31988.9,34856.1,-0.1841,-1.7123,136.4,98.1,0.474
6.5,31931.1,34867.4,-1.1651,-1.578,136.4,98.1,0.474
6.52,31975.9,34902.3,-0.4049,-1.1643,136.4,98.1,0.474
6.54,31902.3,34989.9,-1.6556,-0.1253,136.4,98.1,0.474
6.56,31931.4,34927.4,-1.1605,-0.8666,136.4,98.1,0.474
6.58,31973.6,35031.0,-0.4438,0.3622,136.4,98.1,0.474
6.6,32042.5,34993.4,0.7259,-0.0837,136.4,98.1,0.474
6.62,31950.9,35028.0,-0.8299,0.3267,136.4,98.1,0.474
6.64,32047.4,35099.9,0.8095,1.1789,136.4,98.1,0.474
6.66,32023.7,35178.9,0.4071,2.1159,136.4,98.1,0.474
6.68,32064.3,35101.5,1.0972,1.1972,136.4,98.1,0.474
6.7,31950.1,35144.7,-0.8434,1.7098,136.4,98.1,0.474
6.72,32050.8,35073.8,0.8676,0.8687,136.4,98.1,0.474
6.74,31998.2,34943.9,-0.026,-0.6715,136.4,98.1,0.474
6.76,32094.8,34954.9,1.6141,-0.5405,136.4,98.1,0.474
6.78,31979.3,35017.5,-0.3464,0.2019,136.4,98.1,0.474
6.8,31979.6,35017.6,-0.3413,0.2028,136.4,98.1,0.474
6.82,32017.3,35007.9,0.2984,0.0881,136.4,98.1,0.474
6.84,31951.7,34966.7,-0.8162,-0.4005,136.4,98.1,0.474
6.86,32050.4,34978.4,0.8601,-0.2624,136.4,98.1,0.474
6.88,31919.2,34950.2,-1.3676,-0.5962,136.4,98.1,0.474
6.9,31943.2,34853.6,-0.9595,-1.7413,136.4,98.1,0.474
6.92,31961.0,34944.2,-0.6573,-0.6672,136.4,98.1,0.474
6.94,32039.1,34934.2,0.6687,-0.7866,136.4,98.1,0.474
6.96,31992.1,34854.3,-0.1298,-1.734,136.4,98.1,0.474
6.98,32008.2,34890.3,0.1441,-1.306,136.4,98.1,0.474
7.0,31967.5,34975.8,-0.5481,-0.2927,136.4,98.1,0.474
7.02,32027.4,34947.2,0.4703,-0.6317,136.4,98.1,0.474
7.04,32048.4,35086.0,0.8261,1.0144,136.4,98.1,0.474
7.06,32064.6,35146.2,1.1014,1.7281,136.4,98.1,0.474
7.08,32061.8,35097.6,1.0534,1.151,136.4,98.1,0.474
7.1,32047.2,35188.3,0.8062,2.2275,136.4,98.1,0.474
7.12,32010.7,35154.9,0.1861,1.8304,136.4,98.1,0.474
7.14,31981.1,35095.6,-0.3168,1.128,136.4,98.1,0.474
7.16,32039.6,34990.8,0.6767,-0.1149,136.4,98.1,0.474
7.18,32008.9,35197.0,0.1555,2.3298,136.4,98.1,0.474
7.2,32010.2,34976.5,0.1778,-0.2844,136.4,98.1,0.474
7.22,31995.8,35034.0,-0.0667,0.3976,136.4,98.1,0.474
7.24,31951.2,35011.8,-0.8249,0.1336,136.4,98.1,0.474
7.26,31952.7,35093.8,-0.7983,1.1064,136.4,98.1,0.474
7.28,32030.1,34927.0,0.5163,-0.872,136.4,98.1,0.474
7.3,31926.7,35003.2,-1.2409,0.0321,136.4,98.1,0.474
7.32,32011.8,34899.8,0.204,-1.1938,136.4,98.1,0.474
7.34,31947.7,34844.3,-0.8836,-1.8523,136.4,98.1,0.474
7.36,31922.6,34917.7,-1.3109,-0.9817,136.4,98.1,0.474
7.38,32002.1,34920.7,0.0408,-0.9461,136.4,98.1,0.474
7.4,31990.5,34878.6,-0.1568,-1.4448,136.4,98.1,0.474
7.42,31974.3,34992.5,-0.4321,-0.0948,136.4,98.1,0.474
7.44,31954.8,34954.0,-0.7636,-0.5509,136.4,98.1,0.474
7.46,32001.6,34996.2,0.0322,-0.0509,136.4,98.1,0.474
7.48,31960.8,35100.4,-0.6615,1.1848,136.4,98.1,0.474
7.5,32090.0,35032.4,1.5332,0.3782,136.4,98.1,0.474
7.52,32018.1,35147.9,0.3113,1.7484,136.4,98.1,0.474
7.54,32073.8,35099.3,1.2575,1.1714,136.4,98.1,0.474
7.56,32014.3,35116.6,0.2473,1.3764,136.4,98.1,0.474
7.58,32140.4,35063.9,2.3893,0.7519,136.4,98.1,0.474
7.6,31970.5,35123.4,-0.496,1.4576,136.4,98.1,0.474
7.62,31999.6,35052.0,-0.0016,0.6105,136.4,98.1,0.474
7.64,32013.2,35164.4,0.2295,1.9439,136.4,98.1,0.474
7.66,32041.1,35013.9,0.7024,0.1586,136.4,98.1,0.474
7.68,32062.9,34953.1,1.0733,-0.5617,136.4,98.1,0.474
7.7,31889.3,35006.9,-1.8764,0.0763,136.4,98.1,0.474
7.72,31957.0,34987.2,-0.7256,-0.1579,136.4,98.1,0.474
7.74,31897.8,34993.5,-1.7318,-0.0823,136.4,98.1,0.474
7.76,31997.8,34971.4,-0.0331,-0.3447,136.4,98.1,0.474
7.78,31927.2,34908.9,-1.2323,-1.0859,136.4,98.1,0.474
7.8,31934.9,34942.8,-1.1006,-0.6839,136.4,98.1,0.474
7.82,31972.0,34888.0,-0.4712,-1.3343,136.4,98.1,0.474
7.84,31923.3,34799.1,-1.2978,-2.3881,136.4,98.1,0.474
7.86,31944.8,34878.4,-0.9336,-1.4477,136.4,98.1,0.474
7.88,31948.2,34913.7,-0.8753,-1.0289,136.4,98.1,0.474
7.9,32099.1,34883.3,1.6868,-1.3899,136.4,98.1,0.474
7.92,31905.2,35056.3,-1.6061,0.6615,136.4,98.1,0.474
7.94,32056.2,35060.4,0.9593,0.7108,136.4,98.1,0.474
7.96,32080.1,35135.8,1.3647,1.6049,136.4,98.1,0.474
7.98,32008.3,35075.0,0.1457,0.8831,136.4,98.1,0.474
8.0,32018.9,35011.8,0.3262,0.1337,136.4,98.1,0.474
8.02,31960.8,35117.6,-0.6609,1.3888,136.4,98.1,0.474
8.04,32016.0,34982.5,0.2768,-0.2129,136.4,98.1,0.474
8.06,31940.9,35063.1,-0.9989,0.7422,136.4,98.1,0.474
8.08,32016.8,34954.9,0.2901,-0.5405,136.4,98.1,0.474
8.1,32089.3,34970.3,1.5204,-0.3575,136.4,98.1,0.474
8.12,32023.3,35043.9,0.4008,0.5145,136.4,98.1,0.474
8.14,31954.1,35021.0,-0.7745,0.2435,136.4,98.1,0.474
8.16,32020.3,34983.7,0.3484,-0.1994,136.4,98.1,0.474
8.18,32012.5,34851.0,0.2176,-1.7731,136.4,98.1,0.474
8.2,31904.8,35045.6,-1.6127,0.535,136.4,98.1,0.474
8.22,31948.7,34879.5,-0.8665,-1.4348,136.4,98.1,0.474
8.24,32026.1,34998.2,0.4469,-0.0271,136.4,98.1,0.474
8.26,31986.2,34938.2,-0.2292,-0.7391,136.4,98.1,0.474
8.28,31946.2,34932.6,-0.9098,-0.8054,136.4,98.1,0.474
8.3,31978.9,34847.7,-0.3537,-1.8118,136.4,98.1,0.474
8.32,31939.5,34933.0,-1.0229,-0.8003,136.4,98.1,0.474
8.34,31989.3,34974.6,-0.1767,-0.3074,136.4,98.1,0.474
8.36,32001.2,35048.7,0.0251,0.5713,136.4,98.1,0.474
8.38,32051.8,35128.4,0.8843,1.5168,136.4,98.1,0.474
8.4,32069.7,35052.0,1.1887,0.6106,136.4,98.1,0.474
8.42,32026.6,35088.7,0.4568,1.0462,136.4,98.1,0.474
8.44,32066.0,35103.1,1.1248,1.2166,136.4,98.1,0.474
8.46,32065.3,35029.4,1.1141,0.3434,136.4,98.1,0.474
8.48,32023.3,35053.1,0.4005,0.6241,136.4,98.1,0.474
8.5,32008.5,35070.7,0.1488,0.8323,136.4,98.1,0.474
8.52,32024.0,35026.7,0.4115,0.3109,136.4,98.1,0.474
8.54,32007.2,35005.7,0.126,0.0616,136.4,98.1,0.474
8.56,32004.3,34952.9,0.0781,-0.5648,136.4,98.1,0.474
8.58,31950.2,34970.1,-0.8411,-0.3609,136.4,98.1,0.474
8.6,32032.4,34966.6,0.5549,-0.4018,136.4,98.1,0.474
8.62,31990.6,35053.2,-0.155,0.625,136.4,98.1,0.474
8.64,31887.7,34949.1,-1.9024,-0.6095,136.4,98.1,0.474
8.66,31996.2,34923.1,-0.0603,-0.9175,136.4,98.1,0.474
8.68,31948.5,34956.1,-0.8709,-0.5263,136.4,98.1,0.474
8.7,31897.6,34887.0,-1.7342,-1.3458,136.4,98.1,0.474
8.72,31916.8,34907.5,-1.4082,-1.1023,136.4,98.1,0.474
8.74,31972.4,34959.5,-0.4638,-0.4857,136.4,98.1,0.474
8.76,32027.4,34916.5,0.4693,-0.9963,136.4,98.1,0.474
8.78,31988.5,35025.3,-0.1904,0.2942,136.4,98.1,0.474
8.8,32008.8,35023.3,0.1535,0.2708,136.4,98.1,0.474
8.82,32093.2,35116.2,1.587,1.3716,136.4,98.1,0.474
8.84,32008.6,35111.0,0.1497,1.3104,136.4,98.1,0.474
8.86,31956.7,35221.0,-0.7307,2.6141,136.4,98.1,0.474
8.88,32037.7,35224.5,0.6448,2.6567,136.4,98.1,0.474
8.9,31945.2,35113.8,-0.926,1.3437,136.4,98.1,0.474
8.92,32001.6,35010.1,0.0308,0.1142,136.4,98.1,0.474
8.94,32008.3,34935.9,0.1455,-0.7655,136.4,98.1,0.474
8.96,31954.8,35032.7,-0.7635,0.3822,136.4,98.1,0.474
8.98,32050.4,34949.8,0.8603,-0.6012,136.4,98.1,0.474
9.0,31961.3,34984.5,-0.653,-0.189,136.4,98.1,0.474
9.02,31987.0,34902.2,-0.2159,-1.165,136.4,98.1,0.474
9.04,31972.5,35077.6,-0.4627,0.9147,136.4,98.1,0.474
9.06,31960.5,34907.6,-0.6661,-1.1019,136.4,98.1,0.474
9.08,31982.6,34871.2,-0.2905,-1.5331,136.4,98.1,0.474
9.1,31942.9,34934.0,-0.9645,-0.789,136.4,98.1,0.474
9.12,31918.8,34797.6,-1.3751,-2.4061,136.4,98.1,0.474
9.14,32037.3,34949.9,0.6382,-0.6004,136.4,98.1,0.474
9.16,31927.3,34876.8,-1.2294,-1.467,136.4,98.1,0.474
9.18,31982.1,34837.8,-0.2993,-1.9289,136.4,98.1,0.474
9.2,31921.6,34851.2,-1.3275,-1.7698,136.4,98.1,0.474
9.22,32093.0,35019.1,1.5845,0.2207,136.4,98.1,0.474
9.24,31954.8,35001.9,-0.7625,0.0169,136.4,98.1,0.474
9.26,32062.3,35011.4,1.0625,0.1293,136.4,98.1,0.474
9.28,31994.2,35163.0,-0.0944,1.9271,136.4,98.1,0.474
9.3,32053.9,35062.8,0.9192,0.7386,136.4,98.1,0.474
9.32,32068.1,35100.5,1.1612,1.1856,136.4,98.1,0.474
9.34,32111.7,35129.9,1.902,1.5345,136.4,98.1,0.474
9.36,32034.6,35077.5,0.5923,0.9137,136.4,98.1,0.474
9.38,31984.6,34958.9,-0.2578,-0.4932,136.4,98.1,0.474
9.4,32005.2,34890.5,0.0924,-1.3045,136.4,98.1,0.474
9.42,32013.8,34917.5,0.2396,-0.9838,136.4,98.1,0.474
9.44,31926.9,35052.0,-1.2369,0.6107,136.4,98.1,0.474
9.46,31996.6,34949.4,-0.0535,-0.6053,136.4,98.1,0.474
9.48,31972.1,34980.3,-0.4702,-0.2392,136.4,98.1,0.474
9.5,32011.5,34928.6,0.1994,-0.8519,136.4,98.1,0.474
9.52,32013.9,34948.3,0.2401,-0.6192,136.4,98.1,0.474
9.54,31983.7,34939.5,-0.2728,-0.7228,136.4,98.1,0.474
9.56,32004.6,34914.6,0.0823,-1.019,136.4,98.1,0.474
9.58,31966.0,34910.4,-0.5735,-1.068,136.4,98.1,0.474
9.6,31857.0,34939.2,-2.4246,-0.7269,136.4,98.1,0.474
9.62,31981.7,34920.0,-0.3059,-0.9549,136.4,98.1,0.474
9.64,31939.6,34971.1,-1.0217,-0.3489,136.4,98.1,0.474
9.66,31994.4,34956.9,-0.0901,-0.517,136.4,98.1,0.474
9.68,32061.7,35051.8,1.0525,0.6083,136.4,98.1,0.474
9.7,32049.1,35093.3,0.8381,1.1007,136.4,98.1,0.474
9.72,32056.9,35179.2,0.9712,2.1193,136.4,98.1,0.474
9.74,31970.4,35145.5,-0.4977,1.719,136.4,98.1,0.474
9.76,32029.2,35187.8,0.5005,2.2214,136.4,98.1,0.474
9.78,31994.5,35033.7,-0.0888,0.3938,136.4,98.1,0.474
9.8,32017.0,34982.2,0.294,-0.2171,136.4,98.1,0.474
9.82,31962.3,35114.0,-0.6364,1.3463,136.4,98.1,0.474
9.84,31992.1,34980.8,-0.1298,-0.2334,136.4,98.1,0.474
9.86,31943.2,35074.7,-0.961,0.8799,136.4,98.1,0.474
9.88,31896.5,35002.8,-1.7542,0.0278,136.4,98.1,0.474
9.9,32026.0,34954.8,0.4459,-0.5419,136.4,98.1,0.474
9.92,31982.1,34855.6,-0.3001,-1.7184,136.4,98.1,0.474
9.94,31983.7,34963.5,-0.2718,-0.4384,136.4,98.1,0.474
9.96,32051.4,34895.4,0.8773,-1.2457,136.4,98.1,0.474
9.98,31944.8,34939.9,-0.9337,-0.7188,136.4,98.1,0.474
10.0,31984.4,34940.9,-0.2611,-0.7065,136.4,98.1,0.474
10.02,32019.7,34871.3,0.3397,-1.5316,136.4,98.1,0.474
10.04,32102.3,34911.7,1.7417,-1.0528,136.4,98.1,0.474
10.06,31969.2,34908.3,-0.519,-1.0928,136.4,98.1,0.474
10.08,32008.3,35037.3,0.1449,0.4363,136.4,98.1,0.474
10.1,31958.1,35002.4,-0.7065,0.023,136.4,98.1,0.474
10.12,32030.8,35014.9,0.5282,0.1709,136.4,98.1,0.474
10.14,32081.3,34988.6,1.385,-0.1407,136.4,98.1,0.474
10.16,32114.7,35162.0,1.9533,1.9146,136.4,98.1,0.474
10.18,32032.6,35087.0,0.5584,1.0254,136.4,98.1,0.474
10.2,32017.6,35162.9,0.3029,1.9257,136.4,98.1,0.474
10.22,31991.8,35061.4,-0.1343,0.7221,136.4,98.1,0.474
10.24,31946.5,34954.1,-0.904,-0.55,136.4,98.1,0.474
10.26,31908.7,34985.1,-1.5454,-0.1826,136.4,98.1,0.474
10.28,32092.2,35002.6,1.5708,0.0246,136.4,98.1,0.474
10.3,32000.1,34985.9,0.0065,-0.1729,136.4,98.1,0.474
10.32,31935.4,35006.5,-1.0933,0.0715,136.4,98.1,0.474
10.34,32054.4,35007.1,0.9291,0.0782,136.4,98.1,0.474
10.36,31934.3,34925.3,-1.1118,-0.8915,136.4,98.1,0.474
10.38,31961.4,34964.9,-0.6519,-0.4224,136.4,98.1,0.474
10.4,31970.2,34929.4,-0.5023,-0.8434,136.4,98.1,0.474
10.42,32021.6,34866.0,0.3719,-1.5947,136.4,98.1,0.474
10.44,31949.8,34857.0,-0.8487,-1.7018,136.4,98.1,0.474
10.46,31926.2,34834.0,-1.2496,-1.9736,136.4,98.1,0.474
10.48,31968.1,34928.6,-0.5371,-0.8522,136.4,98.1,0.474
10.5,32019.0,34869.5,0.3268,-1.5536,136.4,98.1,0.474
10.52,31973.2,34897.8,-0.4506,-1.2172,136.4,98.1,0.474
10.54,32046.2,35031.9,0.7893,0.3723,136.4,98.1,0.474
10.56,31856.2,35006.8,-2.4376,0.0747,136.4,98.1,0.474
10.58,32093.5,35133.5,1.5927,1.5768,136.4,98.1,0.474
10.6,32003.9,35077.8,0.0707,0.9168,136.4,98.1,0.474
10.62,32096.9,35161.7,1.6497,1.9117,136.4,98.1,0.474
10.64,32032.2,35071.8,0.5507,0.8451,136.4,98.1,0.474
10.66,32070.4,34981.3,1.2008,-0.2274,136.4,98.1,0.474
10.68,32052.5,35027.1,0.8953,0.3155,136.4,98.1,0.474
10.7,31931.1,35030.5,-1.1656,0.356,136.4,98.1,0.474
10.72,32064.0,35069.1,1.0918,0.8131,136.4,98.1,0.474
10.74,31961.0,35023.9,-0.6571,0.2774,136.4,98.1,0.474
10.76,31971.3,34957.8,-0.4826,-0.5064,136.4,98.1,0.474
10.78,32000.7,34861.6,0.017,-1.6464,136.4,98.1,0.474
10.8,31981.2,34933.0,-0.315,-0.8006,136.4,98.1,0.474
10.82,32002.3,34896.1,0.0436,-1.2383,136.4,98.1,0.474
10.84,31961.1,34926.8,-0.6564,-0.8735,136.4,98.1,0.474
10.86,32074.7,34858.7,1.2732,-1.6808,136.4,98.1,0.474
10.88,31870.8,34892.4,-2.1899,-1.2819,136.4,98.1,0.474
10.9,31909.5,34916.2,-1.532,-0.999,136.4,98.1,0.474
10.92,32003.2,34899.5,0.058,-1.198,136.4,98.1,0.474
10.94,31892.5,34856.3,-1.8205,-1.7095,136.4,98.1,0.474
10.96,31941.2,34927.0,-0.9938,-0.8712,136.4,98.1,0.474
10.98,31963.6,34933.8,-0.6131,-0.7912,136.4,98.1,0.474
11.0,32040.9,34986.5,0.699,-0.1655,136.4,98.1,0.474
11.02,32088.3,35127.2,1.5049,1.5025,136.4,98.1,0.474
11.04,32051.5,35075.8,0.88,0.8935,136.4,98.1,0.474
11.06,32137.9,35023.2,2.346,0.2692,136.4,98.1,0.474
11.08,31947.4,35171.8,-0.8881,2.0318,136.4,98.1,0.474
11.1,32096.9,35123.0,1.6505,1.4526,136.4,98.1,0.474
11.12,32065.9,35084.9,1.1245,1.0009,136.4,98.1,0.474
11.14,32007.1,35065.0,0.125,0.765,136.4,98.1,0.474
11.16,31948.5,35040.0,-0.87,0.4679,136.4,98.1,0.474
11.18,31977.0,35055.0,-0.3866,0.6458,136.4,98.1,0.474
11.2,32065.3,34900.6,1.1135,-1.1847,136.4,98.1,0.474
11.22,32055.8,34955.9,0.9519,-0.529,136.4,98.1,0.474
11.24,32060.4,34949.5,1.0307,-0.6044,136.4,98.1,0.474
11.26,32045.4,35008.0,0.7749,0.0885,136.4,98.1,0.474
11.28,31955.3,34869.9,-0.755,-1.5482,136.4,98.1,0.474
11.3,31910.4,34999.3,-1.5177,-0.0139,136.4,98.1,0.474
11.32,32011.8,34955.2,0.205,-0.5366,136.4,98.1,0.474
11.34,31901.6,34945.6,-1.6661,-0.6504,136.4,98.1,0.474
11.36,31906.8,34954.0,-1.5792,-0.5513,136.4,98.1,0.474
11.38,31951.9,34840.7,-0.8133,-1.895,136.4,98.1,0.474
11.4,31976.8,34990.8,-0.3891,-0.1147,136.4,98.1,0.474
11.42,31982.1,35047.6,-0.2993,0.5581,136.4,98.1,0.474
11.44,32027.6,35038.8,0.4732,0.4539,136.4,98.1,0.474
11.46,32056.6,35127.5,0.9661,1.5055,136.4,98.1,0.474
11.48,31965.5,35123.4,-0.5813,1.4573,136.4,98.1,0.474
11.5,32021.5,35123.0,0.3691,1.4522,136.4,98.1,0.474
11.52,32011.2,35083.1,0.1953,0.9799,136.4,98.1,0.474
11.54,32067.8,35064.3,1.1552,0.7565,136.4,98.1,0.474
11.56,31978.3,35060.4,-0.364,0.7107,136.4,98.1,0.474
11.58,31979.6,34973.7,-0.3428,-0.3172,136.4,98.1,0.474
11.6,31952.0,34951.5,-0.8114,-0.581,136.4,98.1,0.474
11.62,32024.5,35013.8,0.42,0.1581,136.4,98.1,0.474
11.64,32029.9,34954.4,0.5122,-0.5462,136.4,98.1,0.474
11.66,31879.4,35060.3,-2.0437,0.7092,136.4,98.1,0.474
11.68,31977.8,34925.2,-0.3731,-0.8933,136.4,98.1,0.474
11.7,32018.9,35008.4,0.3249,0.094,136.4,98.1,0.474
11.72,31895.4,34955.8,-1.7717,-0.5301,136.4,98.1,0.474
11.74,31916.9,35014.0,-1.4068,0.1601,136.4,98.1,0.474
11.76,31943.5,34924.4,-0.9553,-0.9019,136.4,98.1,0.474
11.78,32027.4,34931.4,0.4706,-0.8188,136.4,98.1,0.474
11.8,32003.8,34969.5,0.069,-0.3677,136.4,98.1,0.474
11.82,31986.9,34887.8,-0.2181,-1.3363,136.4,98.1,0.474
11.84,32057.4,34926.0,0.9788,-0.8828,136.4,98.1,0.474
11.86,31992.5,34919.1,-0.1236,-0.965,136.4,98.1,0.474
11.88,32081.2,35101.3,1.3839,1.1958,136.4,98.1,0.474
11.9,32019.9,35179.3,0.3432,2.1205,136.4,98.1,0.474
11.92,32108.0,35194.1,1.8384,2.2953,136.4,98.1,0.474
11.94,32010.2,35161.6,0.178,1.9107,136.4,98.1,0.474
11.96,32090.5,35085.0,1.541,1.0025,136.4,98.1,0.474
11.98,32159.2,35122.9,2.7076,1.4521,136.4,98.1,0.474
12.0,32019.5,35018.8,0.3352,0.2171,136.4,98.1,0.474
12.02,31994.7,34988.8,-0.0859,-0.1391,136.4,98.1,0.474
12.04,31983.9,35077.8,-0.2693,0.9171,136.4,98.1,0.474
12.06,31997.0,35011.3,-0.0472,0.1282,136.4,98.1,0.474
12.08,31950.2,35027.2,-0.8419,0.3168,136.4,98.1,0.474
12.1,31914.4,34970.9,-1.4499,-0.351,136.4,98.1,0.474
12.12,32065.4,34993.0,1.1145,-0.0883,136.4,98.1,0.474
12.14,32003.9,35000.4,0.0702,-0.0016,136.4,98.1,0.474
12.16,31979.2,34904.2,-0.3487,-1.1415,136.4,98.1,0.474
12.18,31791.3,34963.2,-3.5408,-0.4418,136.4,98.1,0.474
12.2,31961.7,34985.0,-0.6466,-0.1836,136.4,98.1,0.474
12.22,31963.3,34897.6,-0.6196,-1.2196,136.4,98.1,0.474
12.24,32034.5,34858.4,0.5904,-1.6852,136.4,98.1,0.474
12.26,32061.9,34939.4,1.0552,-0.7249,136.4,98.1,0.474
12.28,31999.9,35036.5,0.0021,0.4265,136.4,98.1,0.474
12.3,31987.5,34968.3,-0.2071,-0.382,136.4,98.1,0.474
12.32,32005.8,35018.7,0.1026,0.2165,136.4,98.1,0.474
12.34,31979.1,35160.7,-0.3497,1.8996,136.4,98.1,0.474
12.36,32086.6,35154.9,1.4749,1.8313,136.4,98.1,0.474
12.38,32049.7,35033.1,0.8484,0.3864,136.4,98.1,0.474
12.4,32004.6,35023.6,0.0831,0.2738,136.4,98.1,0.474
12.42,31914.7,35054.0,-1.4448,0.6345,136.4,98.1,0.474
12.44,32096.5,34942.2,1.6437,-0.6911,136.4,98.1,0.474
12.46,31949.6,34969.3,-0.851,-0.3704,136.4,98.1,0.474
12.48,32005.8,35004.7,0.1033,0.0495,136.4,98.1,0.474
12.5,32051.6,34980.2,0.8814,-0.2401,136.4,98.1,0.474
12.52,31973.7,34936.2,-0.4415,-0.7621,136.4,98.1,0.474
12.54,31988.0,34898.2,-0.1988,-1.2127,136.4,98.1,0.474
12.56,31950.1,35066.5,-0.8426,0.7832,136.4,98.1,0.474
12.58,32010.7,34939.4,0.1867,-0.724,136.4,98.1,0.474
12.6,31994.1,35003.6,-0.0953,0.0367,136.4,98.1,0.474
12.62,31974.1,34963.5,-0.4362,-0.4392,136.4,98.1,0.474
12.64,31977.4,34988.4,-0.3791,-0.1437,136.4,98.1,0.474
12.66,31949.7,34945.9,-0.8506,-0.6475,136.4,98.1,0.474
12.68,31976.9,34800.1,-0.3878,-2.3764,136.4,98.1,0.474
12.7,31997.5,34849.7,-0.0373,-1.7881,136.4,98.1,0.474
12.72,32006.9,34951.1,0.1215,-0.5861,136.4,98.1,0.474
12.74,32020.5,34959.6,0.3519,-0.4849,136.4,98.1,0.474
12.76,32107.5,35037.0,1.8305,0.433,136.4,98.1,0.474
12.78,32009.0,35030.1,0.1571,0.3509,136.4,98.1,0.474
12.8,32097.9,35241.8,1.6674,2.8616,136.4,98.1,0.474
12.82,32020.3,35090.8,0.3495,1.0706,136.4,98.1,0.474
12.84,32085.7,35031.6,1.4607,0.3687,136.4,98.1,0.474
12.86,32032.4,35045.2,0.5552,0.53,136.4,98.1,0.474
12.88,32079.9,35037.8,1.3611,0.4421,136.4,98.1,0.474
12.9,31921.1,35053.6,-1.336,0.6295,136.4,98.1,0.474
12.92,32037.3,35076.9,0.6378,0.9061,136.4,98.1,0.474
12.94,31930.5,35033.2,-1.1753,0.3879,136.4,98.1,0.474
12.96,31949.6,35032.6,-0.8512,0.3811,136.4,98.1,0.474
12.98,32040.9,35001.5,0.699,0.0122,136.4,98.1,0.474
13.0,32012.9,34907.2,0.2228,-1.1062,136.4,98.1,0.474
13.02,31952.0,35044.1,-0.8115,0.5168,136.4,98.1,0.474
13.04,31927.0,34886.6,-1.2349,-1.3506,136.4,98.1,0.474
13.06,31940.6,34988.1,-1.0049,-0.1467,136.4,98.1,0.474
13.08,32076.1,34858.7,1.2976,-1.6817,136.4,98.1,0.474
13.1,31890.4,34986.8,-1.8574,-0.162,136.4,98.1,0.474
13.12,32100.8,34885.1,1.7169,-1.3682,136.4,98.1,0.474
13.14,31969.1,34940.2,-0.5201,-0.7145,136.4,98.1,0.474
13.16,31963.0,34870.4,-0.6237,-1.542,136.4,98.1,0.474
13.18,32049.7,34899.0,0.8491,-1.2037,136.4,98.1,0.474
13.2,32054.1,35076.2,0.9228,0.8978,136.4,98.1,0.474
13.22,32015.1,35156.9,0.2613,1.8544,136.4,98.1,0.474
13.24,32056.5,35114.5,0.9632,1.3521,136.4,98.1,0.474
13.26,32070.6,35153.3,1.2032,1.8115,136.4,98.1,0.474
13.28,31977.3,35111.8,-0.3819,1.3193,136.4,98.1,0.474
13.3,32066.9,34972.8,1.1405,-0.3278,136.4,98.1,0.474
13.32,32105.5,35039.4,1.797,0.4614,136.4,98.1,0.474
13.34,32026.2,35017.3,0.4502,0.1992,136.4,98.1,0.474
13.36,32015.9,34985.8,0.2752,-0.1739,136.4,98.1,0.474
13.38,32037.9,35033.0,0.6479,0.3853,136.4,98.1,0.474
13.4,31924.8,34970.8,-1.2725,-0.3515,136.4,98.1,0.474
13.42,31975.5,34923.1,-0.4123,-0.9174,136.4,98.1,0.474
13.44,31924.3,34996.4,-1.2808,-0.0483,136.4,98.1,0.474
13.46,32063.3,34764.8,1.0794,-2.7952,136.4,98.1,0.474
13.48,31991.0,34972.8,-0.1476,-0.3287,136.4,98.1,0.474
13.5,31980.9,34913.9,-0.3197,-1.0263,136.4,98.1,0.474
13.52,31984.4,34941.7,-0.2598,-0.6966,136.4,98.1,0.474
13.54,31973.4,34923.8,-0.4467,-0.9095,136.4,98.1,0.474
13.56,32044.1,34963.0,0.7536,-0.4448,136.4,98.1,0.474
13.58,31893.2,34910.2,-1.8102,-1.0711,136.4,98.1,0.474
13.6,31969.4,34947.6,-0.5144,-0.6274,136.4,98.1,0.474
13.62,32015.5,34974.5,0.2671,-0.3077,136.4,98.1,0.474
13.64,32003.4,35025.9,0.0616,0.3009,136.4,98.1,0.474
13.66,32074.0,35074.8,1.2614,0.8806,136.4,98.1,0.474
13.68,32101.9,35129.1,1.7348,1.525,136.4,98.1,0.474
13.7,32042.9,35028.0,0.7324,0.3267,136.4,98.1,0.474
13.72,32064.9,35128.3,1.1067,1.5152,136.4,98.1,0.474
13.74,32040.8,35105.9,0.698,1.2499,136.4,98.1,0.474
13.76,32048.3,35025.0,0.824,0.2911,136.4,98.1,0.474
13.78,31982.4,35083.2,-0.2941,0.9812,136.4,98.1,0.474
13.8,31986.9,34948.4,-0.2174,-0.6175,136.4,98.1,0.474
13.82,32038.3,35030.2,0.6545,0.3518,136.4,98.1,0.474
13.84,31959.2,34979.1,-0.6881,-0.2532,136.4,98.1,0.474
13.86,31946.4,34908.8,-0.9054,-1.0874,136.4,98.1,0.474
13.88,31991.9,34943.4,-0.1328,-0.6771,136.4,98.1,0.474
13.9,31836.0,35001.1,-2.7805,0.0068,136.4,98.1,0.474
13.92,31983.4,34857.8,-0.2769,-1.6915,136.4,98.1,0.474
13.94,31945.9,35062.7,-0.9139,0.738,136.4,98.1,0.474
13.96,31992.4,34932.9,-0.1243,-0.8015,136.4,98.1,0.474
13.98,31922.2,34826.3,-1.3171,-2.0658,136.4,98.1,0.474
14.0,31948.5,34951.6,-0.8702,-0.5794,136.4,98.1,0.474
14.02,31968.6,34939.9,-0.5289,-0.7181,136.4,98.1,0.474
14.04,31960.2,34971.7,-0.6714,-0.341,136.4,98.1,0.474
14.06,32039.9,34973.4,0.6821,-0.3206,136.4,98.1,0.474
14.08,32015.8,35012.7,0.2724,0.1447,136.4,98.1,0.474
14.1,32013.1,35188.5,0.2278,2.2291,136.4,98.1,0.474
14.12,32059.7,35120.8,1.0181,1.427,136.4,98.1,0.474
14.14,32058.8,35180.6,1.0031,2.1359,136.4,98.1,0.474
14.16,32102.8,35056.2,1.75,0.6607,136.4,98.1,0.474
14.18,32016.9,35039.7,0.2919,0.4646,136.4,98.1,0.474
14.2,32040.0,34997.8,0.6831,-0.0314,136.4,98.1,0.474
14.22,32029.7,35074.8,0.5082,0.8815,136.4,98.1,0.474
14.24,32026.7,35007.5,0.4579,0.0833,136.4,98.1,0.474
14.26,32055.5,35004.1,0.9469,0.0426,136.4,98.1,0.474
14.28,31972.5,34959.6,-0.4626,-0.4848,136.4,98.1,0.474
14.3,32031.7,34970.7,0.5421,-0.3538,136.4,98.1,0.474
14.32,31983.8,34881.1,-0.2712,-1.4159,136.4,98.1,0.474
14.34,31852.2,34943.7,-2.5049,-0.6729,136.4,98.1,0.474
14.36,32031.3,34931.7,0.5359,-0.8157,136.4,98.1,0.474
14.38,31950.2,34925.5,-0.841,-0.8888,136.4,98.1,0.474
14.4,31955.0,35004.4,-0.7593,0.0467,136.4,98.1,0.474
14.42,32037.6,35004.4,0.6423,0.0466,136.4,98.1,0.474
14.44,31930.4,34934.7,-1.1771,-0.7804,136.4,98.1,0.474
14.46,31925.8,34890.7,-1.2558,-1.3014,136.4,98.1,0.474
14.48,32009.0,34875.2,0.1577,-1.4852,136.4,98.1,0.474
14.5,31978.9,34966.2,-0.3534,-0.4064,136.4,98.1,0.474
14.52,31975.7,35017.8,-0.4083,0.2057,136.4,98.1,0.474
14.54,32024.7,35111.4,0.4235,1.3148,136.4,98.1,0.474
14.56,31948.6,35113.5,-0.8693,1.3401,136.4,98.1,0.474
14.58,32048.2,35074.5,0.823,0.8773,136.4,98.1,0.474
14.6,32029.1,35152.7,0.4992,1.8048,136.4,98.1,0.474
14.62,32123.9,35104.8,2.1081,1.2368,136.4,98.1,0.474
14.64,31986.3,35040.1,-0.2289,0.4694,136.4,98.1,0.474
14.66,31972.6,35026.6,-0.461,0.3096,136.4,98.1,0.474
14.68,31978.9,34994.7,-0.3545,-0.0689,136.4,98.1,0.474
14.7,32017.6,34930.2,0.3037,-0.834,136.4,98.1,0.474
14.72,32079.1,35083.8,1.3472,0.9875,136.4,98.1,0.474
14.74,31885.3,34938.2,-1.9434,-0.7388,136.4,98.1,0.474
14.76,31948.9,34922.4,-0.8627,-0.9254,136.4,98.1,0.474
14.78,31883.5,34946.7,-1.9747,-0.6383,136.4,98.1,0.474
14.8,32000.8,34905.1,0.0174,-1.1314,136.4,98.1,0.474
14.82,31959.4,34873.5,-0.6843,-1.506,136.4,98.1,0.474
14.84,31967.4,34880.4,-0.5495,-1.4242,136.4,98.1,0.474
14.86,32037.3,34849.7,0.6375,-1.7882,136.4,98.1,0.474
14.88,32015.3,34948.5,0.265,-0.6165,136.4,98.1,0.474
14.9,32015.1,34930.3,0.2608,-0.832,136.4,98.1,0.474
14.92,31961.6,34982.5,-0.6477,-0.2131,136.4,98.1,0.474
14.94,32070.3,34981.6,1.1978,-0.2239,136.4,98.1,0.474
14.96,31921.0,35086.5,-1.3367,1.0203,136.4,98.1,0.474
14.98,32113.6,35196.0,1.9344,2.3182,136.4,98.1,0.474
15.0,32055.8,35084.2,0.9529,0.9921,136.4,98.1,0.474
15.02,32059.3,35182.3,1.0123,2.1559,136.4,98.1,0.474
15.04,32115.0,35092.6,1.9578,1.0926,136.4,98.1,0.474
15.06,32075.4,35012.4,1.2844,0.141,136.4,98.1,0.474
15.08,31989.1,34994.8,-0.1807,-0.0674,136.4,98.1,0.474
15.1,32044.7,34970.1,0.7632,-0.3599,136.4,98.1,0.474
15.12,32018.9,35031.1,0.3252,0.3626,136.4,98.1,0.474
15.14,31900.7,34994.8,-1.6814,-0.0674,136.4,98.1,0.474
15.16,32079.5,35024.1,1.355,0.2794,136.4,98.1,0.474
15.18,32002.6,34968.8,0.0488,-0.3759,136.4,98.1,0.474
15.2,31959.2,34936.4,-0.6887,-0.7594,136.4,98.1,0.474
15.22,31950.1,34953.6,-0.8424,-0.5555,136.4,98.1,0.474
15.24,31911.7,34990.2,-1.4955,-0.1224,136.4,98.1,0.474
15.26,31888.8,34898.3,-1.8847,-1.2114,136.4,98.1,0.474
15.28,31979.5,35023.0,-0.3445,0.2666,136.4,98.1,0.474
15.3,31912.0,34881.9,-1.4901,-1.4056,136.4,98.1,0.474
15.32,31838.1,34985.7,-2.7444,-0.1752,136.4,98.1,0.474
15.34,31984.1,34952.6,-0.2656,-0.5677,136.4,98.1,0.474
15.36,32015.9,34851.1,0.2753,-1.7719,136.4,98.1,0.474
15.38,31976.4,34961.8,-0.3956,-0.4593,136.4,98.1,0.474
15.4,32067.4,35137.2,1.1492,1.6205,136.4,98.1,0.474
15.42,32071.9,35045.2,1.2257,0.53,136.4,98.1,0.474
15.44,32006.6,35113.7,0.1158,1.3427,136.4,98.1,0.474
15.46,32032.1,35060.2,0.5489,0.7085,136.4,98.1,0.474
15.48,32016.0,35034.1,0.2755,0.3988,136.4,98.1,0.474
15.5,31945.4,35026.0,-0.9222,0.303,136.4,98.1,0.474
15.52,31986.3,35038.0,-0.2288,0.4446,136.4,98.1,0.474
15.54,31974.2,35011.1,-0.4336,0.1261,136.4,98.1,0.474
15.56,31948.7,35052.9,-0.8665,0.6218,136.4,98.1,0.474
15.58,31956.2,35040.2,-0.74,0.4711,136.4,98.1,0.474
15.6,31950.9,34959.5,-0.83,-0.4864,136.4,98.1,0.474
15.62,32046.3,34972.2,0.7901,-0.3351,136.4,98.1,0.474
15.64,31999.0,34934.0,-0.013,-0.7888,136.4,98.1,0.474
15.66,32002.4,34925.2,0.045,-0.8922,136.4,98.1,0.474
15.68,31927.7,34950.7,-1.223,-0.59,136.4,98.1,0.474
15.7,31890.2,34962.5,-1.8595,-0.4502,136.4,98.1,0.474
15.72,31995.1,34931.7,-0.0784,-0.8156,136.4,98.1,0.474
15.74,32025.7,34935.1,0.4401,-0.7755,136.4,98.1,0.474
15.76,31977.8,34912.5,-0.373,-1.0428,136.4,98.1,0.474
15.78,32016.1,34893.3,0.2785,-1.2712,136.4,98.1,0.474
15.8,31947.5,34908.0,-0.8866,-1.0971,136.4,98.1,0.474
15.82,32105.8,34971.9,1.8018,-0.3385,136.4,98.1,0.474
15.84,32013.0,35102.1,0.2258,1.2052,136.4,98.1,0.474
15.86,32085.5,35137.8,1.4567,1.628,136.4,98.1,0.474
15.88,32102.9,35225.2,1.7519,2.665,136.4,98.1,0.474
15.9,32023.5,35038.0,0.404,0.4454,136.4,98.1,0.474
15.92,32034.8,35051.0,0.5962,0.5994,136.4,98.1,0.474
15.94,32064.3,35076.6,1.0959,0.9022,136.4,98.1,0.474
15.96,32012.7,34993.0,0.2204,-0.0889,136.4,98.1,0.474
15.98,31996.7,35040.6,-0.0519,0.4754,136.4,98.1,0.474
16.0,32024.5,34994.5,0.4206,-0.0705,136.4,98.1,0.474
16.02,31988.1,34989.2,-0.1971,-0.1334,136.4,98.1,0.474
16.04,31981.9,35009.6,-0.3024,0.1084,136.4,98.1,0.474
16.06,32037.2,34896.0,0.6366,-1.2387,136.4,98.1,0.474
16.08,31974.8,34840.8,-0.4233,-1.893,136.4,98.1,0.474
16.1,32045.0,34999.8,0.7688,-0.008,136.4,98.1,0.474
16.12,32007.0,34968.1,0.123,-0.3839,136.4,98.1,0.474
16.14,32087.2,34923.2,1.4856,-0.917,136.4,98.1,0.474
16.16,31885.8,34941.7,-1.9343,-0.6967,136.4,98.1,0.474
16.18,32017.6,34886.5,0.3026,-1.3515,136.4,98.1,0.474
16.2,31919.4,34867.9,-1.3638,-1.5719,136.4,98.1,0.474
16.22,32008.4,34926.6,0.1479,-0.8765,136.4,98.1,0.474
16.24,31926.4,34860.1,-1.2456,-1.6647,136.4,98.1,0.474
16.26,31939.1,34965.4,-1.0299,-0.4163,136.4,98.1,0.474
16.28,32026.6,35076.7,0.4557,0.9041,136.4,98.1,0.474
16.3,32104.0,35142.6,1.7703,1.6851,136.4,98.1,0.474
16.32,32077.2,35071.2,1.3157,0.839,136.4,98.1,0.474
16.34,32101.5,35186.4,1.7285,2.2049,136.4,98.1,0.474
16.36,31956.0,35107.8,-0.7432,1.2721,136.4,98.1,0.474
16.38,31991.2,35026.7,-0.1442,0.3113,136.4,98.1,0.474
16.4,31971.2,35009.3,-0.4841,0.1039,136.4,98.1,0.474
16.42,31997.4,35006.1,-0.0396,0.0667,136.4,98.1,0.474
16.44,32026.6,34948.6,0.4556,-0.615,136.4,98.1,0.474
16.46,31971.2,35005.1,-0.4847,0.0544,136.4,98.1,0.474
16.48,31878.4,35009.5,-2.0607,0.1065,136.4,98.1,0.474
16.5,32046.2,35029.3,0.7895,0.3418,136.4,98.1,0.474
16.52,31992.3,34976.7,-0.1258,-0.2818,136.4,98.1,0.474
16.54,32052.5,34933.6,0.8964,-0.7929,136.4,98.1,0.474
16.56,31963.7,34844.8,-0.6122,-1.8457,136.4,98.1,0.474
16.58,31885.9,34921.0,-1.9329,-0.943,136.4,98.1,0.474
16.6,31945.7,34955.4,-0.9183,-0.5341,136.4,98.1,0.474
16.62,32045.2,34958.0,0.7719,-0.5043,136.4,98.1,0.474
16.64,32040.3,34877.7,0.689,-1.4555,136.4,98.1,0.474
16.66,32021.8,34893.2,0.375,-1.2725,136.4,98.1,0.474
16.68,32013.4,35022.7,0.232,0.2637,136.4,98.1,0.474
16.7,32016.9,35017.9,0.2911,0.2061,136.4,98.1,0.474
16.72,31997.6,35106.8,-0.0371,1.2611,136.4,98.1,0.474
16.74,32067.6,35108.4,1.1524,1.2794,136.4,98.1,0.474
16.76,32047.9,35080.2,0.8175,0.945,136.4,98.1,0.474
16.78,32052.4,35110.4,0.8949,1.3029,136.4,98.1,0.474
16.8,32029.9,34991.7,0.5122,-0.1046,136.4,98.1,0.474
16.82,32034.5,34967.8,0.5896,-0.3871,136.4,98.1,0.474
16.84,32048.1,35061.5,0.8222,0.723,136.4,98.1,0.474
16.86,31990.7,35082.7,-0.154,0.9744,136.4,98.1,0.474
16.88,32013.6,35033.3,0.2353,0.3889,136.4,98.1,0.474
16.9,31934.6,35017.8,-1.1068,0.2056,136.4,98.1,0.474
16.92,31973.9,34982.1,-0.4388,-0.2185,136.4,98.1,0.474
16.94,31892.7,35039.0,-1.8176,0.4567,136.4,98.1,0.474
16.96,31912.1,34946.8,-1.4887,-0.6361,136.4,98.1,0.474
16.98,31920.0,34957.9,-1.3543,-0.5052,136.4,98.1,0.474
17.0,31998.6,35076.5,-0.0191,0.9013,136.4,98.1,0.474
17.02,32003.3,34965.0,0.0608,-0.4207,136.4,98.1,0.474
17.04,31964.0,34947.6,-0.607,-0.6267,136.4,98.1,0.474
17.06,31979.5,34940.1,-0.3443,-0.7166,136.4,98.1,0.474
17.08,31965.6,34933.2,-0.579,-0.7984,136.4,98.1,0.474
17.1,31938.0,34923.6,-1.0487,-0.9116,136.4,98.1,0.474
17.12,31969.8,34978.5,-0.509,-0.2603,136.4,98.1,0.474
17.14,31948.8,35062.6,-0.8651,0.7365,136.4,98.1,0.474
17.16,32020.2,35111.0,0.3477,1.3099,136.4,98.1,0.474
17.18,31983.1,35228.3,-0.2822,2.7009,136.4,98.1,0.474
17.2,32062.2,35113.7,1.0613,1.3427,136.4,98.1,0.474
17.22,32070.6,35156.8,1.2033,1.8532,136.4,98.1,0.474
17.24,32053.3,35083.8,0.9089,0.9879,136.4,98.1,0.474
17.26,32101.5,35091.8,1.7284,1.0831,136.4,98.1,0.474
17.28,32034.2,35070.1,0.5855,0.8259,136.4,98.1,0.474
17.3,32098.2,35059.6,1.6718,0.7005,136.4,98.1,0.474
17.32,31948.5,35036.0,-0.8708,0.4205,136.4,98.1,0.474
17.34,31970.6,35050.8,-0.4945,0.596,136.4,98.1,0.474
17.36,32015.9,35044.4,0.2739,0.5208,136.4,98.1,0.474
17.38,31966.5,34883.5,-0.5651,-1.3868,136.4,98.1,0.474
17.4,32008.0,34999.1,0.1403,-0.0165,136.4,98.1,0.474
17.42,31942.8,34898.2,-0.9675,-1.2129,136.4,98.1,0.474
17.44,32012.8,34940.1,0.2212,-0.7156,136.4,98.1,0.474
17.46,32023.9,34888.0,0.4102,-1.3333,136.4,98.1,0.474
17.48,32031.5,34837.7,0.5402,-1.9307,136.4,98.1,0.474
17.5,31899.3,34848.9,-1.7063,-1.7972,136.4,98.1,0.474
17.52,31922.5,34952.5,-1.311,-0.5686,136.4,98.1,0.474
17.54,31985.7,34928.8,-0.2385,-0.8505,136.4,98.1,0.474
17.56,32070.1,34869.1,1.1946,-1.5584,136.4,98.1,0.474
17.58,31937.8,34878.7,-1.0526,-1.4441,136.4,98.1,0.474
17.6,32060.5,35076.9,1.0312,0.9063,136.4,98.1,0.474
17.62,31989.7,35112.0,-0.1707,1.3219,136.4,98.1,0.474
17.64,32006.5,35189.2,0.1157,2.2373,136.4,98.1,0.474
17.66,31981.1,35153.6,-0.3167,1.8153,136.4,98.1,0.474
17.68,32065.3,35156.3,1.1128,1.8474,136.4,98.1,0.474
17.7,32100.6,35121.7,1.7133,1.437,136.4,98.1,0.474
17.72,32036.5,35013.1,0.6244,0.1498,136.4,98.1,0.474
17.74,32029.2,35048.4,0.4997,0.5686,136.4,98.1,0.474
17.76,32064.4,34995.3,1.0982,-0.0618,136.4,98.1,0.474
17.78,31955.1,35035.7,-0.7583,0.4171,136.4,98.1,0.474
17.8,31935.7,34993.3,-1.0876,-0.0851,136.4,98.1,0.474
17.82,31943.7,34937.5,-0.9523,-0.7467,136.4,98.1,0.474
17.84,31909.7,34953.4,-1.5297,-0.5583,136.4,98.1,0.474
17.86,31929.9,34930.8,-1.1865,-0.8267,136.4,98.1,0.474
17.88,31896.8,34990.0,-1.7475,-0.1246,136.4,98.1,0.474
17.9,31929.7,34900.8,-1.1898,-1.1815,136.4,98.1,0.474
17.92,32015.8,34926.3,0.2733,-0.8796,136.4,98.1,0.474
17.94,32011.8,34972.7,0.2043,-0.3295,136.4,98.1,0.474
17.96,32036.6,34990.3,0.6259,-0.1206,136.4,98.1,0.474
17.98,31901.1,34914.8,-1.6759,-1.0164,136.4,98.1,0.474
18.0,31931.6,34954.9,-1.1578,-0.5406,136.4,98.1,0.474
18.02,31996.5,34970.4,-0.0554,-0.3562,136.4,98.1,0.474
18.04,32023.3,35092.9,0.4008,1.0953,136.4,98.1,0.474
18.06,32002.7,35069.3,0.051,0.8159,136.4,98.1,0.474
18.08,32055.3,35124.9,0.9441,1.4757,136.4,98.1,0.474
18.1,32173.8,35030.0,2.9562,0.3501,136.4,98.1,0.474
18.12,31995.3,35123.8,-0.0759,1.4621,136.4,98.1,0.474
18.14,32034.4,35123.1,0.588,1.4536,136.4,98.1,0.474
18.16,31964.8,35092.6,-0.5927,1.0922,136.4,98.1,0.474
18.18,32057.2,35020.5,0.976,0.2371,136.4,98.1,0.474
18.2,31973.6,35026.7,-0.4431,0.3102,136.4,98.1,0.474
18.22,32007.7,35125.9,0.1351,1.4875,136.4,98.1,0.474
18.24,31971.9,35074.8,-0.4724,0.8813,136.4,98.1,0.474
18.26,32038.1,34999.5,0.6512,-0.0122,136.4,98.1,0.474
18.28,32028.2,34882.7,0.483,-1.3964,136.4,98.1,0.474
18.3,31996.1,35015.5,-0.0617,0.1781,136.4,98.1,0.474
18.32,31978.8,34885.3,-0.3551,-1.3663,136.4,98.1,0.474
18.34,32032.6,34990.6,0.5586,-0.1172,136.4,98.1,0.474
18.36,31841.2,34843.5,-2.6917,-1.8615,136.4,98.1,0.474
18.38,32176.4,34927.9,3.0011,-0.8611,136.4,98.1,0.474
18.4,32006.7,34868.6,0.1178,-1.5643,136.4,98.1,0.474
18.42,32023.3,34963.8,0.3997,-0.4353,136.4,98.1,0.474
18.44,32008.2,34883.5,0.1441,-1.3874,136.4,98.1,0.474
18.46,31961.9,35072.1,-0.6422,0.8496,136.4,98.1,0.474
18.48,31997.8,34995.1,-0.033,-0.0643,136.4,98.1,0.474
18.5,32162.9,35050.0,2.7706,0.587,136.4,98.1,0.474
18.52,32026.5,35130.3,0.4538,1.5387,136.4,98.1,0.474
18.54,32051.5,35113.8,0.8793,1.3432,136.4,98.1,0.474
18.56,32066.5,35104.7,1.1341,1.236,136.4,98.1,0.474
18.58,32049.6,35039.1,0.8469,0.4577,136.4,98.1,0.474
18.6,31941.5,35041.0,-0.9885,0.4798,136.4,98.1,0.474
18.62,32047.8,35060.7,0.8162,0.7142,136.4,98.1,0.474
18.64,31985.9,35022.6,-0.2344,0.2618,136.4,98.1,0.474
18.66,31994.7,34989.9,-0.0858,-0.1261,136.4,98.1,0.474
18.68,31945.0,35037.9,-0.9297,0.4434,136.4,98.1,0.474
18.7,32001.4,35007.3,0.0287,0.0808,136.4,98.1,0.474
18.72,32025.9,34960.1,0.4444,-0.4784,136.4,98.1,0.474
18.74,31959.2,34933.8,-0.6884,-0.7903,136.4,98.1,0.474
18.76,32017.7,34952.6,0.3052,-0.5677,136.4,98.1,0.474
18.78,31951.9,34920.0,-0.8123,-0.9547,136.4,98.1,0.474
18.8,31950.4,34925.3,-0.8386,-0.8918,136.4,98.1,0.474
18.82,31915.3,34948.5,-1.4339,-0.617,136.4,98.1,0.474
18.84,31963.0,34853.1,-0.6243,-1.7475,136.4,98.1,0.474
18.86,32003.2,34913.8,0.0583,-1.0275,136.4,98.1,0.474
18.88,31926.0,35014.8,-1.2526,0.1694,136.4,98.1,0.474
18.9,31990.2,34981.2,-0.1623,-0.2284,136.4,98.1,0.474
18.92,31970.1,35058.4,-0.5035,0.6868,136.4,98.1,0.474
18.94,32003.3,35139.2,0.0604,1.6443,136.4,98.1,0.474
18.96,32010.7,35073.8,0.1861,0.8689,136.4,98.1,0.474
18.98,32093.6,35159.0,1.5949,1.8798,136.4,98.1,0.474
19.0,32040.6,35153.8,0.6934,1.8174,136.4,98.1,0.474
19.02,32032.3,34993.2,0.5537,-0.086,136.4,98.1,0.474
19.04,32005.0,35045.6,0.089,0.5347,136.4,98.1,0.474
19.06,31978.5,35077.9,-0.3602,0.918,136.4,98.1,0.474
19.08,32010.1,35005.5,0.1753,0.0591,136.4,98.1,0.474
19.1,31920.0,35022.9,-1.355,0.2651,136.4,98.1,0.474
19.12,32015.8,34985.3,0.2727,-0.1803,136.4,98.1,0.474
19.14,32038.8,34941.4,0.6642,-0.7012,136.4,98.1,0.474
19.16,31918.7,34939.7,-1.3764,-0.7204,136.4,98.1,0.474
19.18,32001.6,34912.2,0.0309,-1.0471,136.4,98.1,0.474
19.2,31982.4,34943.8,-0.2951,-0.6721,136.4,98.1,0.474
19.22,31941.6,34950.8,-0.9867,-0.5892,136.4,98.1,0.474
19.24,31868.9,34876.4,-2.2229,-1.4713,136.4,98.1,0.474
19.26,31975.2,34944.6,-0.4163,-0.6628,136.4,98.1,0.474
19.28,31941.0,34887.8,-0.9984,-1.3365,136.4,98.1,0.474
19.3,31983.9,34982.3,-0.2695,-0.2158,136.4,98.1,0.474
19.32,31974.3,35000.5,-0.4315,0.0005,136.4,98.1,0.474
19.34,31919.7,35038.7,-1.3593,0.4531,136.4,98.1,0.474
19.36,31981.5,35101.2,-0.3101,1.1943,136.4,98.1,0.474
19.38,32019.5,35116.5,0.335,1.3752,136.4,98.1,0.474
19.4,32008.6,35193.3,0.1507,2.286,136.4,98.1,0.474
19.42,32069.1,35138.2,1.1776,1.6327,136.4,98.1,0.474
19.44,32023.6,34990.8,0.4053,-0.1149,136.4,98.1,0.474
19.46,32024.1,35045.3,0.4136,0.5311,136.4,98.1,0.474
19.48,31954.2,35054.7,-0.7732,0.6423,136.4,98.1,0.474
19.5,32104.2,35027.3,1.7748,0.318,136.4,98.1,0.474
19.52,32053.3,35093.4,0.9103,1.1017,136.4,98.1,0.474
19.54,31996.8,34940.0,-0.0497,-0.7174,136.4,98.1,0.474
19.56,31974.7,34973.3,-0.4248,-0.3227,136.4,98.1,0.474
19.58,31962.0,34996.0,-0.6401,-0.0531,136.4,98.1,0.474
19.6,32019.9,35000.8,0.3418,0.0042,136.4,98.1,0.474
19.62,32018.6,34957.7,0.321,-0.5079,136.4,98.1,0.474
19.64,31975.0,34987.8,-0.4207,-0.1504,136.4,98.1,0.474
19.66,31985.7,34944.2,-0.2381,-0.6671,136.4,98.1,0.474
19.68,31947.1,34977.9,-0.8947,-0.2675,136.4,98.1,0.474
19.7,32046.6,35012.9,0.7956,0.1469,136.4,98.1,0.474
19.72,31902.4,34929.4,-1.6539,-0.8427,136.4,98.1,0.474
19.74,31967.8,34854.6,-0.543,-1.7297,136.4,98.1,0.474
19.76,32002.7,34919.9,0.0508,-0.9554,136.4,98.1,0.474
19.78,31989.1,34999.6,-0.181,-0.01,136.4,98.1,0.474
19.8,31943.4,35069.7,-0.9564,0.8207,136.4,98.1,0.474
19.82,32056.4,35122.7,0.9621,1.4495,136.4,98.1,0.474
19.84,32066.1,35093.1,1.1269,1.0986,136.4,98.1,0.474
19.86,32046.4,35140.2,0.7917,1.6567,136.4,98.1,0.474
19.88,32113.0,35029.8,1.9232,0.3474,136.4,98.1,0.474
19.9,31990.2,34986.5,-0.1612,-0.1659,136.4,98.1,0.474
19.92,32003.8,35045.6,0.0686,0.5348,136.4,98.1,0.474
19.94,31985.2,35041.3,-0.2469,0.4843,136.4,98.1,0.474
19.96,31955.8,35102.5,-0.7458,1.2094,136.4,98.1,0.474
19.98,31929.7,35016.1,-1.1898,0.1847,136.4,98.1,0.474
20.0,32040.9,34980.4,0.6993,-0.2383,136.4,98.1,0.474
20.02,31990.3,35074.9,-0.1601,0.8823,136.4,98.1,0.474
20.04,31971.0,35015.8,-0.4886,0.1821,136.4,98.1,0.474
20.06,31949.5,34947.8,-0.8526,-0.6244,136.4,98.1,0.474
20.08,31943.6,34931.7,-0.9532,-0.816,136.4,98.1,0.474
20.1,32067.1,34885.6,1.1442,-1.3628,136.4,98.1,0.474
20.12,32050.6,34976.8,0.8646,-0.2809,136.4,98.1,0.474
20.14,31921.9,34937.4,-1.3228,-0.7478,136.4,98.1,0.474
20.16,32042.6,34896.2,0.7286,-1.2361,136.4,98.1,0.474
20.18,32001.0,34929.4,0.0213,-0.843,136.4,98.1,0.474
20.2,31956.9,34899.9,-0.7281,-1.193,136.4,98.1,0.474
20.22,31946.9,34997.7,-0.8979,-0.0332,136.4,98.1,0.474
20.24,31937.2,35033.8,-1.0629,0.3953,136.4,98.1,0.474
20.26,32128.4,35113.4,2.1845,1.3389,136.4,98.1,0.474
20.28,32013.3,35026.1,0.2303,0.3041,136.4,98.1,0.474
20.3,32083.2,34985.6,1.4173,-0.1767,136.4,98.1,0.474
20.32,31942.4,35068.3,-0.9745,0.8045,136.4,98.1,0.474
20.34,32028.1,35030.6,0.4821,0.3574,136.4,98.1,0.474
20.36,31981.5,35066.2,-0.3089,0.7792,136.4,98.1,0.474
20.38,32040.3,35032.0,0.6888,0.3731,136.4,98.1,0.474
20.4,32041.9,34981.4,0.7167,-0.2266,136.4,98.1,0.474
20.42,31962.6,35007.1,-0.6309,0.0781,136.4,98.1,0.474
20.44,32008.8,35038.6,0.1543,0.4519,136.4,98.1,0.474
20.46,32050.2,35035.5,0.8567,0.4156,136.4,98.1,0.474
20.48,31956.7,34965.9,-0.7314,-0.4099,136.4,98.1,0.474
20.5,31986.2,35015.2,-0.2305,0.1743,136.4,98.1,0.474
20.52,31940.8,34928.9,-1.0013,-0.8493,136.4,98.1,0.474
20.54,32043.2,35036.8,0.7387,0.4307,136.4,98.1,0.474
20.56,31854.1,34925.6,-2.4731,-0.8885,136.4,98.1,0.474
20.58,31989.2,34859.7,-0.1797,-1.6693,136.4,98.1,0.474
20.6,31985.4,34901.1,-0.2443,-1.1786,136.4,98.1,0.474
20.62,31903.1,34876.1,-1.6419,-1.4753,136.4,98.1,0.474
20.64,31966.4,34934.4,-0.5665,-0.7833,136.4,98.1,0.474
20.66,32040.1,34970.5,0.6862,-0.3553,136.4,98.1,0.474
20.68,32045.2,35127.8,0.7726,1.51,136.4,98.1,0.474
20.7,32050.1,35173.9,0.8559,2.0559,136.4,98.1,0.474
20.72,32129.0,35117.4,2.1955,1.3861,136.4,98.1,0.474
20.74,32048.7,35135.5,0.8311,1.6014,136.4,98.1,0.474
20.76,31963.2,35115.9,-0.6204,1.3684,136.4,98.1,0.474
20.78,32064.5,35008.8,1.1,0.0983,136.4,98.1,0.474
20.8,32087.1,35003.4,1.4837,0.0344,136.4,98.1,0.474
20.82,32054.1,35018.9,0.9239,0.218,136.4,98.1,0.474
20.84,32009.9,35028.1,0.1732,0.3269,136.4,98.1,0.474
20.86,31914.0,34971.9,-1.4566,-0.3385,136.4,98.1,0.474
20.88,32000.7,35048.1,0.0171,0.5646,136.4,98.1,0.474
20.9,31924.4,34916.7,-1.2789,-0.9935,136.4,98.1,0.474
20.92,32011.5,34877.1,0.2005,-1.4626,136.4,98.1,0.474
20.94,32017.0,34974.3,0.2925,-0.3101,136.4,98.1,0.474
20.96,31996.4,34947.7,-0.0573,-0.6265,136.4,98.1,0.474
20.98,31916.8,34922.9,-1.4088,-0.9194,136.4,98.1,0.474
21.0,32003.3,34953.8,0.0611,-0.5533,136.4,98.1,0.474
21.02,31997.3,34913.3,-0.0416,-1.0337,136.4,98.1,0.474
21.04,31985.2,34937.7,-0.2461,-0.7443,136.4,98.1,0.474
21.06,31985.8,34940.5,-0.2374,-0.7114,136.4,98.1,0.474
21.08,31997.8,35017.2,-0.0336,0.1981,136.4,98.1,0.474
21.1,32029.3,34985.5,0.502,-0.1777,136.4,98.1,0.474
21.12,32120.4,35057.8,2.0485,0.6798,136.4,98.1,0.474
21.14,31970.5,35129.1,-0.4974,1.5245,136.4,98.1,0.474
21.16,32121.6,34998.3,2.0704,-0.0265,136.4,98.1,0.474
21.18,32122.2,35114.0,2.0807,1.3455,136.4,98.1,0.474
21.2,32028.0,35229.9,0.4793,2.7199,136.4,98.1,0.474
21.22,32076.9,35107.3,1.3097,1.2664,136.4,98.1,0.474
21.24,31950.2,35050.3,-0.8417,0.5905,136.4,98.1,0.474
21.26,32019.0,35028.3,0.3275,0.3295,136.4,98.1,0.474
21.28,32009.4,35007.4,0.1639,0.0818,136.4,98.1,0.474
21.3,31951.6,34979.8,-0.8169,-0.2459,136.4,98.1,0.474
21.32,32147.8,34978.0,2.5153,-0.2669,136.4,98.1,0.474
21.34,31934.4,34899.8,-1.1091,-1.194,136.4,98.1,0.474
21.36,32005.2,34900.8,0.0936,-1.1823,136.4,98.1,0.474
21.38,31968.6,35009.6,-0.5291,0.1083,136.4,98.1,0.474
21.4,32015.2,34995.6,0.262,-0.0584,136.4,98.1,0.474
21.42,31960.3,35019.2,-0.6703,0.2217,136.4,98.1,0.474
21.44,31982.3,34872.6,-0.2959,-1.5165,136.4,98.1,0.474
21.46,31976.8,34986.3,-0.3893,-0.1678,136.4,98.1,0.474
21.48,31935.9,34915.4,-1.0845,-1.0086,136.4,98.1,0.474
21.5,31909.1,34899.2,-1.5402,-1.2011,136.4,98.1,0.474
21.52,32004.8,34899.4,0.0853,-1.1992,136.4,98.1,0.474
21.54,32064.9,34972.5,1.1062,-0.3319,136.4,98.1,0.474
21.56,32059.1,35065.8,1.009,0.7746,136.4,98.1,0.474
21.58,32076.4,35106.7,1.3024,1.2594,136.4,98.1,0.474
21.6,32085.2,35141.9,1.4512,1.6768,136.4,98.1,0.474
21.62,32129.8,35259.0,2.2097,3.0649,136.4,98.1,0.474
21.64,32068.0,35091.8,1.159,1.0828,136.4,98.1,0.474
21.66,31985.1,34993.3,-0.2487,-0.0855,136.4,98.1,0.474
21.68,32064.9,35150.8,1.1071,1.7819,136.4,98.1,0.474
21.7,31909.1,34972.7,-1.5388,-0.3297,136.4,98.1,0.474
21.72,32019.6,34948.9,0.3368,-0.6119,136.4,98.1,0.474
21.74,31930.0,35068.1,-1.1836,0.8022,136.4,98.1,0.474
21.76,32047.3,35039.6,0.8084,0.4636,136.4,98.1,0.474
21.78,31932.7,34970.8,-1.1377,-0.3522,136.4,98.1,0.474
21.8,31967.1,35039.5,-0.5545,0.4624,136.4,98.1,0.474
21.82,32005.7,34918.2,0.1018,-0.9756,136.4,98.1,0.474
21.84,32001.1,35015.0,0.0237,0.1724,136.4,98.1,0.474
21.86,32020.2,34915.6,0.3481,-1.006,136.4,98.1,0.474
21.88,31984.3,34891.7,-0.262,-1.29,136.4,98.1,0.474
21.9,31857.0,34916.4,-2.4243,-0.9969,136.4,98.1,0.474
21.92,31976.6,34975.7,-0.3934,-0.2941,136.4,98.1,0.474
21.94,32033.3,34911.1,0.5704,-1.0602,136.4,98.1,0.474
21.96,31967.1,34878.6,-0.5546,-1.4456,136.4,98.1,0.474
21.98,31955.4,34913.6,-0.7531,-1.0308,136.4,98.1,0.474
22.0,31988.1,35084.8,-0.1976,1.0001,136.4,98.1,0.474
22.02,32009.6,35031.6,0.1666,0.369,136.4,98.1,0.474
22.04,32081.6,35197.9,1.3908,2.3413,136.4,98.1,0.474
22.06,32035.8,35098.0,0.6129,1.1558,136.4,98.1,0.474
22.08,32066.9,35103.6,1.1413,1.2231,136.4,98.1,0.474
22.1,32116.8,35002.1,1.9885,0.0191,136.4,98.1,0.474
22.12,32036.3,34940.0,0.6204,-0.7174,136.4,98.1,0.474
22.14,31996.6,35070.2,-0.0538,0.8267,136.4,98.1,0.474
22.16,32026.6,35017.9,0.4554,0.2065,136.4,98.1,0.474
22.18,32128.8,34968.8,2.1925,-0.3752,136.4,98.1,0.474
22.2,32016.5,34961.9,0.285,-0.4578,136.4,98.1,0.474
22.22,31944.6,35007.0,-0.9365,0.0776,136.4,98.1,0.474
22.24,31944.0,34966.3,-0.9471,-0.4058,136.4,98.1,0.474
22.26,31926.9,35021.0,-1.2367,0.2432,136.4,98.1,0.474
22.28,31890.7,34909.9,-1.852,-1.0744,136.4,98.1,0.474
22.3,31994.2,34925.6,-0.0937,-0.8878,136.4,98.1,0.474
22.32,31954.6,34853.1,-0.7665,-1.7481,136.4,98.1,0.474
22.34,31922.7,35023.2,-1.3078,0.2698,136.4,98.1,0.474
22.36,31992.2,34878.7,-0.1279,-1.4447,136.4,98.1,0.474
22.38,32018.0,34908.1,0.3093,-1.0953,136.4,98.1,0.474
22.4,31989.6,34875.9,-0.1716,-1.4774,136.4,98.1,0.474
22.42,32137.3,34994.0,2.3356,-0.0767,136.4,98.1,0.474
22.44,32006.9,34992.9,0.1211,-0.0904,136.4,98.1,0.474
22.46,31948.0,35105.7,-0.8784,1.2479,136.4,98.1,0.474
22.48,31946.8,35136.5,-0.8993,1.6128,136.4,98.1,0.474
22.5,31997.9,35111.0,-0.032,1.3109,136.4,98.1,0.474
22.52,32063.9,35117.8,1.0905,1.3916,136.4,98.1,0.474
22.54,32046.2,35129.8,0.7892,1.5334,136.4,98.1,0.474
22.56,32082.9,35018.0,1.4129,0.2074,136.4,98.1,0.474
22.58,31914.8,35013.0,-1.4432,0.1483,136.4,98.1,0.474
22.6,32139.3,35038.0,2.3706,0.4443,136.4,98.1,0.474
22.62,31884.9,35007.9,-1.951,0.0875,136.4,98.1,0.474
22.64,32054.8,34956.7,0.9343,-0.5187,136.4,98.1,0.474
22.66,31940.1,35013.7,-1.0132,0.1561,136.4,98.1,0.474
22.68,31966.3,34850.8,-0.5683,-1.7745,136.4,98.1,0.474
22.7,31980.5,34919.8,-0.3259,-0.9569,136.4,98.1,0.474
22.72,31921.2,35054.1,-1.3337,0.6351,136.4,98.1,0.474
22.74,32012.0,34922.6,0.2084,-0.9235,136.4,98.1,0.474
22.76,31938.8,34980.3,-1.0341,-0.2397,136.4,98.1,0.474
22.78,31948.9,34927.9,-0.8635,-0.8602,136.4,98.1,0.474
22.8,31963.7,34932.9,-0.6125,-0.8019,136.4,98.1,0.474
22.82,32012.7,34899.8,0.2202,-1.1939,136.4,98.1,0.474
22.84,32018.5,35036.5,0.3183,0.4275,136.4,98.1,0.474
22.86,31929.1,35047.1,-1.199,0.5528,136.4,98.1,0.474
22.88,32058.5,35145.7,0.9972,1.7217,136.4,98.1,0.474
22.9,32069.1,35080.7,1.1778,0.9513,136.4,98.1,0.474
22.92,32057.1,35102.4,0.974,1.2085,136.4,98.1,0.474
22.94,32037.4,35131.3,0.6404,1.551,136.4,98.1,0.474
22.96,32032.5,35233.7,0.5557,2.7652,136.4,98.1,0.474
22.98,31943.2,35088.7,-0.9602,1.0454,136.4,98.1,0.474
23.0,31987.7,35124.3,-0.2043,1.4682,136.4,98.1,0.474
23.02,31956.7,35012.0,-0.7304,0.1369,136.4,98.1,0.474
23.04,32047.1,35061.5,0.8038,0.7238,136.4,98.1,0.474
23.06,32030.3,35062.3,0.5198,0.7332,136.4,98.1,0.474
23.08,31944.7,34973.5,-0.9355,-0.32,136.4,98.1,0.474
23.1,32044.4,35002.8,0.7588,0.0275,136.4,98.1,0.474
23.12,31988.0,35036.1,-0.1994,0.422,136.4,98.1,0.474
23.14,31959.2,34956.6,-0.6886,-0.5199,136.4,98.1,0.474
23.16,31958.3,34974.7,-0.7041,-0.3063,136.4,98.1,0.474
23.18,31958.9,34836.5,-0.6928,-1.945,136.4,98.1,0.474
23.2,31972.2,34943.0,-0.4683,-0.682,136.4,98.1,0.474
23.22,31914.2,34881.9,-1.4527,-1.4067,136.4,98.1,0.474
23.24,31872.9,34894.0,-2.1544,-1.2628,136.4,98.1,0.474
23.26,31988.0,34824.0,-0.1989,-2.0924,136.4,98.1,0.474
23.28,31937.9,34949.7,-1.0508,-0.6022,136.4,98.1,0.474
23.3,31938.2,34986.3,-1.0458,-0.1677,136.4,98.1,0.474
23.32,31972.8,35032.5,-0.4567,0.3799,136.4,98.1,0.474
23.34,32146.4,35092.3,2.4905,1.0883,136.4,98.1,0.474
23.36,31973.2,35043.6,-0.4515,0.5118,136.4,98.1,0.474
23.38,32096.2,35180.6,1.6376,2.1357,136.4,98.1,0.474
23.4,32112.8,35102.8,1.921,1.213,136.4,98.1,0.474
23.42,31991.5,35070.1,-0.1406,0.8252,136.4,98.1,0.474
23.44,31998.6,35096.6,-0.019,1.1395,136.4,98.1,0.474
23.46,32023.1,35091.3,0.3971,1.0773,136.4,98.1,0.474
23.48,32052.6,34922.2,0.8985,-0.9278,136.4,98.1,0.474
23.5,31958.3,34995.8,-0.7041,-0.0551,136.4,98.1,0.474
23.52,32003.1,34941.6,0.057,-0.6981,136.4,98.1,0.474
23.54,31984.7,35029.3,-0.2547,0.3411,136.4,98.1,0.474
23.56,31863.6,34925.0,-2.312,-0.8953,136.4,98.1,0.474
23.58,31923.7,34942.8,-1.292,-0.6842,136.4,98.1,0.474
23.6,31977.6,34989.6,-0.3751,-0.1286,136.4,98.1,0.474
23.62,32032.6,34912.1,0.5588,-1.0485,136.4,98.1,0.474
23.64,32028.6,34942.1,0.4898,-0.6929,136.4,98.1,0.474
23.66,31911.3,34878.1,-1.5024,-1.4515,136.4,98.1,0.474
23.68,32018.6,34881.8,0.3203,-1.4075,136.4,98.1,0.474
23.7,32027.5,34900.7,0.4713,-1.1832,136.4,98.1,0.474
23.72,31956.3,34944.2,-0.7384,-0.6673,136.4,98.1,0.474
23.74,32047.8,34952.0,0.8156,-0.5754,136.4,98.1,0.474
23.76,32145.7,35053.0,2.4785,0.6223,136.4,98.1,0.474
23.78,32027.4,35132.7,0.4706,1.5678,136.4,98.1,0.474
23.8,32073.1,35075.6,1.2466,0.8907,136.4,98.1,0.474
23.82,32095.6,35065.0,1.6288,0.7652,136.4,98.1,0.474
23.84,31988.5,35058.3,-0.19,0.6858,136.4,98.1,0.474
23.86,31959.5,35022.0,-0.6826,0.2554,136.4,98.1,0.474
23.88,32021.0,35063.9,0.3617,0.7514,136.4,98.1,0.474
23.9,32089.1,34970.6,1.5175,-0.3549,136.4,98.1,0.474
23.92,31980.9,35032.4,-0.3199,0.3785,136.4,98.1,0.474
23.94,32006.2,34931.6,0.1104,-0.8166,136.4,98.1,0.474
23.96,31993.7,34932.4,-0.1027,-0.8077,136.4,98.1,0.474
23.98,31979.5,34898.2,-0.3443,-1.2131,136.4,98.1,0.474
24.0,31969.2,34945.8,-0.5181,-0.6488,136.4,98.1,0.474
24.02,31917.1,35011.2,-1.404,0.1267,136.4,98.1,0.474
24.04,31932.3,34887.7,-1.1461,-1.3376,136.4,98.1,0.474
24.06,32012.9,34981.4,0.2231,-0.2265,136.4,98.1,0.474
24.08,31988.1,34994.9,-0.1977,-0.0658,136.4,98.1,0.474
24.1,31939.5,34865.8,-1.0235,-1.5965,136.4,98.1,0.474
24.12,31912.3,34846.9,-1.4844,-1.8216,136.4,98.1,0.474
24.14,31969.1,34975.4,-0.5197,-0.2979,136.4,98.1,0.474
24.16,32047.3,34961.9,0.8072,-0.4578,136.4,98.1,0.474
24.18,32081.5,34975.2,1.3889,-0.2997,136.4,98.1,0.474
24.2,32057.2,35076.4,0.9762,0.8997,136.4,98.1,0.474
24.22,32032.0,35094.7,0.5481,1.1165,136.4,98.1,0.474
24.24,32044.8,35284.4,0.7645,3.3669,136.4,98.1,0.474
24.26,32118.5,35141.0,2.0173,1.6658,136.4,98.1,0.474
24.28,31998.8,35038.3,-0.0156,0.4485,136.4,98.1,0.474
24.3,32175.2,35108.9,2.9808,1.2855,136.4,98.1,0.474
24.32,32062.7,35053.2,1.0692,0.6251,136.4,98.1,0.474
24.34,31958.2,35000.5,-0.706,0.0003,136.4,98.1,0.474
24.36,32049.1,34970.2,0.8386,-0.3593,136.4,98.1,0.474
24.38,31932.6,34978.3,-1.1396,-0.2628,136.4,98.1,0.474
24.4,32011.8,35081.5,0.2052,0.9609,136.4,98.1,0.474
24.42,32015.1,34987.9,0.2601,-0.149,136.4,98.1,0.474
24.44,31969.6,34958.7,-0.5115,-0.4956,136.4,98.1,0.474
24.46,32029.7,34929.5,0.5085,-0.8421,136.4,98.1,0.474
24.48,32044.7,34890.6,0.7636,-1.3033,136.4,98.1,0.474
24.5,31881.4,35073.6,-2.0094,0.8669,136.4,98.1,0.474
24.52,31990.2,34968.5,-0.1623,-0.3795,136.4,98.1,0.474
24.54,31934.9,34927.8,-1.1016,-0.8618,136.4,98.1,0.474
24.56,31937.8,34891.5,-1.0525,-1.2929,136.4,98.1,0.474
24.58,31968.8,34852.0,-0.5248,-1.7601,136.4,98.1,0.474
24.6,31947.5,34902.3,-0.8874,-1.1643,136.4,98.1,0.474
24.62,32092.1,34973.5,1.569,-0.3202,136.4,98.1,0.474
24.64,32035.8,35054.0,0.612,0.6346,136.4,98.1,0.474
24.66,32031.1,35136.6,0.532,1.6134,136.4,98.1,0.474
24.68,32070.4,35145.2,1.2007,1.7162,136.4,98.1,0.474
24.7,31889.0,35069.1,-1.8802,0.8134,136.4,98.1,0.474
24.72,32034.8,35118.0,0.5946,1.393,136.4,98.1,0.474
24.74,31982.0,35086.1,-0.3011,1.0147,136.4,98.1,0.474
24.76,32018.2,35079.1,0.3132,0.9318,136.4,98.1,0.474
24.78,31907.6,35099.5,-1.5648,1.1739,136.4,98.1,0.474
24.8,32004.8,35025.5,0.0861,0.2968,136.4,98.1,0.474
24.82,31995.1,34967.8,-0.0792,-0.3872,136.4,98.1,0.474
24.84,31916.5,34962.4,-1.414,-0.4512,136.4,98.1,0.474
24.86,31939.7,34887.8,-1.0189,-1.3359,136.4,98.1,0.474
24.88,31952.1,34977.1,-0.8085,-0.277,136.4,98.1,0.474
24.9,31978.6,34966.6,-0.3598,-0.4022,136.4,98.1,0.474
24.92,31945.6,34953.8,-0.919,-0.5539,136.4,98.1,0.474
24.94,31976.9,34888.7,-0.3875,-1.3258,136.4,98.1,0.474
24.96,31894.9,34926.7,-1.7805,-0.8745,136.4,98.1,0.474
24.98,31921.2,34915.9,-1.3343,-1.0025,136.4,98.1,0.474
25.0,31901.2,34874.0,-1.6735,-1.4993,136.4,98.1,0.474
25.02,32028.3,34940.6,0.4853,-0.7101,136.4,98.1,0.474
25.04,31959.0,34962.8,-0.6923,-0.4468,136.4,98.1,0.474
25.06,32063.9,35101.6,1.0896,1.1992,136.4,98.1,0.474
25.08,32025.9,35011.3,0.4438,0.1285,136.4,98.1,0.474
25.1,31976.4,35042.0,-0.3959,0.4919,136.4,98.1,0.474
25.12,32008.5,35180.6,0.1489,2.1353,136.4,98.1,0.474
25.14,32054.6,35128.2,0.932,1.5146,136.4,98.1,0.474
25.16,32009.1,35118.0,0.1591,1.3929,136.4,98.1,0.474
25.18,32062.3,35061.7,1.0618,0.7257,136.4,98.1,0.474
25.2,32077.7,35045.5,1.3233,0.5333,136.4,98.1,0.474
25.22,32028.2,34932.4,0.484,-0.8075,136.4,98.1,0.474
25.24,31902.1,35060.3,-1.6577,0.7094,136.4,98.1,0.474
25.26,32074.4,35039.0,1.2675,0.4566,136.4,98.1,0.474
25.28,32098.7,35010.9,1.6812,0.1231,136.4,98.1,0.474
25.3,31990.6,34999.2,-0.1558,-0.015,136.4,98.1,0.474
25.32,32005.5,34981.2,0.0975,-0.2282,136.4,98.1,0.474
25.34,31946.8,34962.6,-0.8991,-0.4498,136.4,98.1,0.474
25.36,31950.9,34867.0,-0.8291,-1.5829,136.4,98.1,0.474
25.38,31928.0,34906.8,-1.2187,-1.1109,136.4,98.1,0.474
25.4,31863.7,34918.8,-2.3105,-0.9689,136.4,98.1,0.474
25.42,32002.6,34938.8,0.0492,-0.7312,136.4,98.1,0.474
25.44,32056.2,34929.7,0.9583,-0.8399,136.4,98.1,0.474
25.46,31926.8,34906.7,-1.238,-1.1126,136.4,98.1,0.474
25.48,31961.2,34950.3,-0.6553,-0.5957,136.4,98.1,0.474
25.5,32037.1,35048.3,0.6342,0.5663,136.4,98.1,0.474
25.52,31985.6,35074.5,-0.2404,0.8779,136.4,98.1,0.474
25.54,32032.7,35122.3,0.5605,1.4446,136.4,98.1,0.474
25.56,32042.1,35166.5,0.7192,1.9683,136.4,98.1,0.474
25.58,32106.5,35093.0,1.814,1.0972,136.4,98.1,0.474
25.6,32001.2,35084.4,0.0255,0.9951,136.4,98.1,0.474
25.62,31999.6,35067.2,-0.0027,0.7913,136.4,98.1,0.474
25.64,31993.8,35017.1,-0.1005,0.1971,136.4,98.1,0.474
25.66,31990.8,35074.0,-0.1522,0.8717,136.4,98.1,0.474
25.68,32045.0,35015.3,0.7692,0.1754,136.4,98.1,0.474
25.7,31910.4,35005.8,-1.518,0.0627,136.4,98.1,0.474
25.72,31887.2,35007.3,-1.9119,0.0811,136.4,98.1,0.474
25.74,32020.4,34884.5,0.3515,-1.3754,136.4,98.1,0.474
25.76,31918.3,34917.6,-1.3837,-0.9834,136.4,98.1,0.474
25.78,31987.7,34949.4,-0.2045,-0.6056,136.4,98.1,0.474
25.8,32010.3,34936.6,0.1797,-0.7572,136.4,98.1,0.474
25.82,31928.7,34971.7,-1.2059,-0.3416,136.4,98.1,0.474
25.84,31929.0,34940.9,-1.2021,-0.7064,136.4,98.1,0.474
25.86,31963.8,34946.4,-0.6109,-0.6416,136.4,98.1,0.474
25.88,32027.2,34939.7,0.4662,-0.7209,136.4,98.1,0.474
25.9,31886.2,34883.9,-1.9287,-1.3828,136.4,98.1,0.474
25.92,31979.9,34988.1,-0.3366,-0.1475,136.4,98.1,0.474
25.94,32032.5,34964.8,0.5564,-0.4234,136.4,98.1,0.474
25.96,32004.9,35035.8,0.0877,0.4186,136.4,98.1,0.474
25.98,32063.7,34998.7,1.0856,-0.0214,136.4,98.1,0.474
26.0,32145.9,35086.2,2.4831,1.0158,136.4,98.1,0.474
26.02,32079.3,35182.0,1.352,2.152,136.4,98.1,0.474
26.04,32107.3,35034.8,1.827,0.4072,136.4,98.1,0.474
26.06,32074.9,35046.2,1.2772,0.5415,136.4,98.1,0.474
26.08,32038.5,35014.4,0.6583,0.1648,136.4,98.1,0.474
26.1,31916.7,35101.8,-1.4103,1.2016,136.4,98.1,0.474
26.12,31974.4,34999.7,-0.4309,-0.0095,136.4,98.1,0.474
26.14,31997.2,35013.3,-0.0436,0.1514,136.4,98.1,0.474
26.16,32140.1,34864.1,2.3843,-1.6177,136.4,98.1,0.474
26.18,31976.2,34905.9,-0.4003,-1.1222,136.4,98.1,0.474
26.2,32023.7,34885.4,0.4069,-1.3649,136.4,98.1,0.474
26.22,31985.0,34863.8,-0.2508,-1.6205,136.4,98.1,0.474
26.24,32004.4,34912.7,0.0791,-1.0407,136.4,98.1,0.474
26.26,32082.5,34931.5,1.4054,-0.8177,136.4,98.1,0.474
26.28,32032.8,35015.8,0.5616,0.1821,136.4,98.1,0.474
26.3,31936.8,34835.3,-1.0682,-1.9589,136.4,98.1,0.474
26.32,31956.7,34881.8,-0.731,-1.4073,136.4,98.1,0.474
26.34,31920.3,34900.0,-1.3489,-1.1918,136.4,98.1,0.474
26.36,31996.8,34893.1,-0.0502,-1.2733,136.4,98.1,0.474
26.38,32000.8,34997.7,0.0175,-0.0333,136.4,98.1,0.474
26.4,32002.0,35147.0,0.0386,1.7367,136.4,98.1,0.474
26.42,32072.0,35121.5,1.2272,1.4345,136.4,98.1,0.474
26.44,31979.2,35068.4,-0.3491,0.8056,136.4,98.1,0.474
26.46,32058.9,35161.9,1.0041,1.9138,136.4,98.1,0.474
26.48,31993.3,35111.8,-0.109,1.3194,136.4,98.1,0.474
26.5,32002.6,35071.6,0.0483,0.8426,136.4,98.1,0.474
26.52,32020.8,34938.3,0.3579,-0.7374,136.4,98.1,0.474
26.54,32005.3,35023.5,0.094,0.2732,136.4,98.1,0.474
26.56,31957.5,34970.5,-0.7167,-0.3557,136.4,98.1,0.474
26.58,31911.7,34978.1,-1.495,-0.2656,136.4,98.1,0.474
26.6,32132.3,35005.8,2.252,0.0625,136.4,98.1,0.474
26.62,32065.2,34915.7,1.1117,-1.006,136.4,98.1,0.474
26.64,32005.4,34974.9,0.0963,-0.304,136.4,98.1,0.474
26.66,31948.0,34898.3,-0.8795,-1.2114,136.4,98.1,0.474
26.68,32050.3,34992.0,0.858,-0.1006,136.4,98.1,0.474
26.7,31992.5,34884.6,-0.1221,-1.3741,136.4,98.1,0.474
26.72,31995.1,34884.7,-0.078,-1.3724,136.4,98.1,0.474
26.74,31969.6,34903.0,-0.5119,-1.1559,136.4,98.1,0.474
26.76,31958.3,34922.5,-0.703,-0.925,136.4,98.1,0.474
26.78,32000.3,34830.7,0.0095,-2.0134,136.4,98.1,0.474
26.8,32005.9,35086.8,0.1043,1.0233,136.4,98.1,0.474
26.82,32032.2,34927.9,0.5515,-0.8609,136.4,98.1,0.474
26.84,32009.2,34958.8,0.1606,-0.4938,136.4,98.1,0.474
26.86,32133.5,35120.5,2.271,1.4225,136.4,98.1,0.474
26.88,32024.7,35068.7,0.4245,0.8084,136.4,98.1,0.474
26.9,32068.7,35194.8,1.1704,2.3046,136.4,98.1,0.474
26.92,31997.2,35094.4,-0.0431,1.1141,136.4,98.1,0.474
26.94,32017.1,35087.6,0.2954,1.0326,136.4,98.1,0.474
26.96,32119.4,35036.0,2.0322,0.421,136.4,98.1,0.474
26.98,32021.5,35030.7,0.3694,0.3579,136.4,98.1,0.474
27.0,32060.9,34992.2,1.039,-0.0977,136.4,98.1,0.474
27.02,32001.5,34968.4,0.0306,-0.381,136.4,98.1,0.474
27.04,31992.3,34916.6,-0.1258,-0.9942,136.4,98.1,0.474
27.06,31993.3,34904.2,-0.1096,-1.1418,136.4,98.1,0.474
27.08,32006.2,34984.1,0.11,-0.1938,136.4,98.1,0.474
27.1,31951.2,35033.5,-0.8241,0.3913,136.4,98.1,0.474
27.12,31949.7,34890.9,-0.8502,-1.3,136.4,98.1,0.474
27.14,31967.9,34962.6,-0.5401,-0.449,136.4,98.1,0.474
27.16,32073.4,34875.3,1.2503,-1.4842,136.4,98.1,0.474
27.18,32007.6,34932.3,0.1328,-0.8084,136.4,98.1,0.474
27.2,31987.9,34940.0,-0.2013,-0.7172,136.4,98.1,0.474
27.22,31995.4,34852.9,-0.0735,-1.7496,136.4,98.1,0.474
27.24,31970.0,34971.0,-0.5043,-0.3492,136.4,98.1,0.474
27.26,32030.9,34975.4,0.5299,-0.298,136.4,98.1,0.474
27.28,32005.7,35049.3,0.1015,0.5792,136.4,98.1,0.474
27.3,31960.3,35148.9,-0.6692,1.7597,136.4,98.1,0.474
27.32,32082.4,35067.4,1.4036,0.7932,136.4,98.1,0.474
27.34,32027.8,35121.2,0.4769,1.4319,136.4,98.1,0.474
27.36,32042.3,35053.0,0.723,0.6223,136.4,98.1,0.474
27.38,32102.5,35090.2,1.7447,1.0636,136.4,98.1,0.474
27.4,32016.1,35036.8,0.2782,0.4306,136.4,98.1,0.474
27.42,32013.6,34972.9,0.2349,-0.3271,136.4,98.1,0.474
27.44,31980.2,34989.1,-0.3321,-0.1351,136.4,98.1,0.474
27.46,32054.6,35013.8,0.9313,0.1579,136.4,98.1,0.474
27.48,32001.9,34975.3,0.0373,-0.2984,136.4,98.1,0.474
27.5,31929.3,34913.8,-1.1969,-1.0283,136.4,98.1,0.474
27.52,31904.0,34967.9,-1.6253,-0.387,136.4,98.1,0.474
27.54,31964.7,34887.3,-0.5955,-1.3423,136.4,98.1,0.474
27.56,32005.0,34963.3,0.0895,-0.4404,136.4,98.1,0.474
27.58,32037.4,34896.6,0.6399,-1.232,136.4,98.1,0.474
27.6,32038.1,34933.4,0.6508,-0.7956,136.4,98.1,0.474
27.62,31931.1,34876.4,-1.1654,-1.4708,136.4,98.1,0.474
27.64,31974.4,34937.0,-0.4309,-0.7525,136.4,98.1,0.474
27.66,31988.8,35058.7,-0.1864,0.6905,136.4,98.1,0.474
27.68,32032.0,34989.4,0.5479,-0.1313,136.4,98.1,0.474
27.7,31901.1,34970.0,-1.6745,-0.3615,136.4,98.1,0.474
27.72,31997.9,35076.6,-0.0305,0.9029,136.4,98.1,0.474
27.74,32119.9,34931.9,2.0408,-0.8137,136.4,98.1,0.474
27.76,31992.4,35110.6,-0.1238,1.3052,136.4,98.1,0.474
27.78,32063.2,35186.9,1.0782,2.2102,136.4,98.1,0.474
27.8,32038.7,35044.8,0.662,0.5254,136.4,98.1,0.474
27.82,31995.1,35026.1,-0.0794,0.3033,136.4,98.1,0.474
27.84,32046.8,34990.5,0.7991,-0.1185,136.4,98.1,0.474
27.86,32005.1,35001.8,0.0905,0.0157,136.4,98.1,0.474
27.88,31919.6,35021.9,-1.3608,0.2538,136.4,98.1,0.474
27.9,31997.3,34931.7,-0.042,-0.8158,136.4,98.1,0.474
27.92,31906.5,35000.8,-1.5827,0.0037,136.4,98.1,0.474
27.94,31986.0,34902.1,-0.2329,-1.1667,136.4,98.1,0.474
27.96,31960.9,34976.2,-0.6598,-0.2879,136.4,98.1,0.474
27.98,32059.0,35047.1,1.0065,0.5522,136.4,98.1,0.474
28.0,32065.3,34892.9,1.1143,-1.2763,136.4,98.1,0.474
28.02,31926.2,34934.8,-1.2481,-0.7793,136.4,98.1,0.474
28.04,32105.3,34928.3,1.793,-0.8563,136.4,98.1,0.474
28.06,31980.9,34946.6,-0.3202,-0.6395,136.4,98.1,0.474
28.08,31965.4,34964.3,-0.5836,-0.4297,136.4,98.1,0.474
28.1,32035.9,35023.0,0.615,0.2665,136.4,98.1,0.474
28.12,32011.7,34972.2,0.2025,-0.3359,136.4,98.1,0.474
28.14,32063.2,35061.0,1.0779,0.7173,136.4,98.1,0.474
28.16,32040.7,35080.6,0.6964,0.9496,136.4,98.1,0.474
28.18,32020.6,35193.5,0.3551,2.2882,136.4,98.1,0.474
28.2,32192.3,35107.1,3.2699,1.2637,136.4,98.1,0.474
28.22,32021.9,35063.8,0.3764,0.7508,136.4,98.1,0.474
28.24,31929.4,35101.7,-1.1938,1.2001,136.4,98.1,0.474
28.26,32055.0,35057.4,0.9382,0.6745,136.4,98.1,0.474
28.28,32073.2,35055.1,1.2474,0.6479,136.4,98.1,0.474
28.3,32033.8,35032.6,0.579,0.3803,136.4,98.1,0.474
28.32,32100.0,34960.1,1.7023,-0.4787,136.4,98.1,0.474
28.34,31996.2,34911.4,-0.0604,-1.0569,136.4,98.1,0.474
28.36,32016.1,35030.2,0.2782,0.3527,136.4,98.1,0.474
28.38,31954.4,34867.6,-0.7693,-1.5754,136.4,98.1,0.474
28.4,31982.9,34903.7,-0.2862,-1.1476,136.4,98.1,0.474
28.42,31970.1,34937.4,-0.5038,-0.7482,136.4,98.1,0.474
28.44,31881.2,34910.2,-2.0132,-1.0709,136.4,98.1,0.474
28.46,31906.0,34905.4,-1.5913,-1.1275,136.4,98.1,0.474
28.48,31913.1,34957.5,-1.4708,-0.5092,136.4,98.1,0.474
28.5,31928.2,34983.3,-1.2148,-0.2036,136.4,98.1,0.474
28.52,32032.3,34939.4,0.5523,-0.7244,136.4,98.1,0.474
28.54,31908.5,34917.4,-1.549,-0.9853,136.4,98.1,0.474
28.56,31915.1,35017.9,-1.4377,0.2069,136.4,98.1,0.474
28.58,32036.6,35033.8,0.6262,0.3948,136.4,98.1,0.474
28.6,31985.8,35070.0,-0.2362,0.8247,136.4,98.1,0.474
28.62,32097.9,35128.8,1.667,1.5217,136.4,98.1,0.474
28.64,32070.0,35128.4,1.1928,1.5167,136.4,98.1,0.474
28.66,32059.8,35107.5,1.0208,1.269,136.4,98.1,0.474
28.68,32055.3,35084.8,0.943,0.9997,136.4,98.1,0.474
28.7,32002.5,35031.0,0.0476,0.3622,136.4,98.1,0.474
28.72,32052.3,35032.4,0.8925,0.3781,136.4,98.1,0.474
28.74,32024.0,35076.4,0.4119,0.9004,136.4,98.1,0.474
28.76,31968.6,34958.1,-0.529,-0.5026,136.4,98.1,0.474
28.78,31912.7,35013.0,-1.4777,0.1484,136.4,98.1,0.474
28.8,31936.4,34913.5,-1.0763,-1.031,136.4,98.1,0.474
28.82,31922.3,34902.2,-1.3147,-1.166,136.4,98.1,0.474
28.84,31945.7,34996.1,-0.9173,-0.0516,136.4,98.1,0.474
28.86,31984.0,34936.1,-0.2665,-0.763,136.4,98.1,0.474
28.88,32007.7,34889.3,0.1351,-1.3185,136.4,98.1,0.474
28.9,31937.6,34948.1,-1.0557,-0.6208,136.4,98.1,0.474
28.92,31977.3,34850.6,-0.3812,-1.7768,136.4,98.1,0.474
28.94,32054.2,34857.8,0.9247,-1.6917,136.4,98.1,0.474
28.96,31917.5,34941.9,-1.3975,-0.6944,136.4,98.1,0.474
28.98,31963.4,34981.2,-0.6165,-0.2289,136.4,98.1,0.474
29.0,31863.2,34979.1,-2.3195,-0.2535,136.4,98.1,0.474
29.02,31998.1,34954.5,-0.028,-0.5451,136.4,98.1,0.474
29.04,32080.0,35160.0,1.364,1.8916,136.4,98.1,0.474
29.06,32038.4,35112.7,0.657,1.3306,136.4,98.1,0.474
29.08,32088.7,35074.4,1.5105,0.8764,136.4,98.1,0.474
29.1,32080.2,35034.9,1.3662,0.4083,136.4,98.1,0.474
29.12,32016.4,35129.3,0.2836,1.5275,136.4,98.1,0.474
29.14,32001.0,35092.5,0.0216,1.0908,136.4,98.1,0.474
29.16,32090.5,34990.7,1.542,-0.1162,136.4,98.1,0.474
29.18,31963.8,35061.2,-0.6112,0.7197,136.4,98.1,0.474
29.2,32034.3,35036.0,0.5865,0.4211,136.4,98.1,0.474
29.22,31997.1,35013.6,-0.0451,0.156,136.4,98.1,0.474
29.24,32041.6,35027.9,0.7115,0.3256,136.4,98.1,0.474
29.26,31974.2,35061.5,-0.4331,0.7233,136.4,98.1,0.474
29.28,31983.0,34990.2,-0.2838,-0.1219,136.4,98.1,0.474
29.3,32026.7,34927.5,0.4572,-0.8651,136.4,98.1,0.474
29.32,32015.6,34824.1,0.2698,-2.0913,136.4,98.1,0.474
29.34,31970.2,34938.0,-0.5011,-0.7408,136.4,98.1,0.474
29.36,32033.2,35016.8,0.5691,0.1938,136.4,98.1,0.474
29.38,31965.6,34825.5,-0.5803,-2.0752,136.4,98.1,0.474
29.4,31944.5,34908.8,-0.938,-1.0876,136.4,98.1,0.474
29.42,31962.8,34953.9,-0.627,-0.553,136.4,98.1,0.474
29.44,31951.5,34997.1,-0.8198,-0.0408,136.4,98.1,0.474
29.46,32055.7,35026.4,0.9506,0.3072,136.4,98.1,0.474
29.48,32037.3,35096.9,0.6373,1.1431,136.4,98.1,0.474
29.5,32092.4,35100.8,1.5739,1.1898,136.4,98.1,0.474
29.52,32025.3,35151.7,0.4343,1.7932,136.4,98.1,0.474
29.54,31934.5,35113.9,-1.1086,1.3445,136.4,98.1,0.474
29.56,31985.9,35061.7,-0.2346,0.7253,136.4,98.1,0.474
29.58,32103.6,35026.9,1.7632,0.3128,136.4,98.1,0.474
29.6,31873.4,35009.5,-2.1459,0.107,136.4,98.1,0.474
29.62,31953.1,35051.3,-0.7917,0.603,136.4,98.1,0.474
29.64,31946.1,34964.6,-0.9112,-0.4251,136.4,98.1,0.474
29.66,31958.7,35035.3,-0.6973,0.4132,136.4,98.1,0.474
29.68,31992.0,35005.0,-0.132,0.0533,136.4,98.1,0.474
29.7,32061.6,35070.3,1.051,0.828,136.4,98.1,0.474
29.72,32104.3,34920.4,1.7754,-0.9502,136.4,98.1,0.474
29.74,31924.0,35024.9,-1.2859,0.2896,136.4,98.1,0.474
29.76,32009.9,34915.4,0.1726,-1.0088,136.4,98.1,0.474
29.78,31952.2,34964.0,-0.8074,-0.4329,136.4,98.1,0.474
29.8,31954.3,34981.8,-0.7716,-0.2215,136.4,98.1,0.474
29.82,31980.9,34877.5,-0.3205,-1.4578,136.4,98.1,0.474
29.84,32068.5,34913.0,1.1685,-1.0375,136.4,98.1,0.474
29.86,31978.3,34946.5,-0.3647,-0.6403,136.4,98.1,0.474
29.88,31964.8,34899.4,-0.5938,-1.199,136.4,98.1,0.474
29.9,32091.6,34957.0,1.5601,-0.5154,136.4,98.1,0.474
29.92,32015.9,35051.1,0.2745,0.5998,136.4,98.1,0.474
29.94,32098.1,35042.0,1.67,0.4927,136.4,98.1,0.474
29.96,32047.1,35143.8,0.805,1.6992,136.4,98.1,0.474
29.98,31938.4,35134.7,-1.0415,1.5916,136.4,98.1,0.474
30.0,32038.6,35079.0,0.66,0.9308,136.4,98.1,0.474
30.02,32033.7,35044.5,0.5774,0.5221,136.4,98.1,0.474
30.04,31959.7,34986.5,-0.6808,-0.1656,136.4,98.1,0.474
30.06,32071.2,35120.2,1.2137,1.4192,136.4,98.1,0.474
30.08,31991.9,35049.4,-0.1323,0.58,136.4,98.1,0.474
30.1,31988.6,35117.7,-0.1887,1.3901,136.4,98.1,0.474
30.12,31895.7,35025.3,-1.7666,0.294,136.4,98.1,0.474
30.14,31967.6,35003.2,-0.5465,0.0326,136.4,98.1,0.474
30.16,31998.2,34926.1,-0.0261,-0.8816,136.4,98.1,0.474
30.18,31978.9,34911.3,-0.3545,-1.0574,136.4,98.1,0.474
30.2,32023.9,34937.7,0.4101,-0.745,136.4,98.1,0.474
30.22,31979.7,34880.1,-0.3406,-1.4273,136.4,98.1,0.474
30.24,31959.4,34874.1,-0.6859,-1.4983,136.4,98.1,0.474
30.26,31967.7,34915.5,-0.5434,-1.0079,136.4,98.1,0.474
30.28,31934.0,34859.5,-1.1164,-1.6717,136.4,98.1,0.474
30.3,31890.9,35023.3,-1.8492,0.2708,136.4,98.1,0.474
30.32,31973.0,34849.4,-0.4546,-1.7919,136.4,98.1,0.474
30.34,32014.5,35013.2,0.2499,0.1504,136.4,98.1,0.474
30.36,32062.1,35046.6,1.0595,0.5465,136.4,98.1,0.474
30.38,32017.7,35137.9,0.3048,1.6288,136.4,98.1,0.474
30.4,32033.4,35145.1,0.5716,1.7143,136.4,98.1,0.474
30.42,32042.5,35074.6,0.7268,0.8787,136.4,98.1,0.474
30.44,32033.9,35052.4,0.5803,0.6156,136.4,98.1,0.474
30.46,31985.4,35061.2,-0.2429,0.7195,136.4,98.1,0.474
30.48,31963.0,35114.7,-0.6238,1.3537,136.4,98.1,0.474
30.5,32010.5,35083.8,0.182,0.9878,136.4,98.1,0.474
30.52,32033.5,34886.2,0.5731,-1.355,136.4,98.1,0.474
30.54,31946.9,34985.9,-0.8974,-0.1735,136.4,98.1,0.474
30.56,32030.5,35074.5,0.5233,0.8775,136.4,98.1,0.474
30.58,31986.8,35027.2,-0.2197,0.3168,136.4,98.1,0.474
30.6,31976.0,35027.6,-0.4036,0.3218,136.4,98.1,0.474
30.62,32005.2,34894.1,0.0923,-1.2619,136.4,98.1,0.474
30.64,31984.2,34910.8,-0.2642,-1.0636,136.4,98.1,0.474
30.66,31981.7,34992.7,-0.3063,-0.0919,136.4,98.1,0.474
30.68,31929.9,34801.2,-1.1866,-2.3633,136.4,98.1,0.474
30.7,31916.5,34866.9,-1.4134,-1.5844,136.4,98.1,0.474
30.72,31978.1,34807.1,-0.3672,-2.2933,136.4,98.1,0.474
30.74,32028.6,34897.5,0.4903,-1.2207,136.4,98.1,0.474
30.76,31988.4,34919.5,-0.1926,-0.9604,136.4,98.1,0.474
30.78,31994.7,34944.9,-0.0861,-0.6586,136.4,98.1,0.474
30.8,32060.0,35131.4,1.0233,1.5528,136.4,98.1,0.474
30.82,32078.5,35197.9,1.3385,2.3406,136.4,98.1,0.474
30.84,32041.8,35192.5,0.7143,2.2771,136.4,98.1,0.474
30.86,32105.3,35061.9,1.7931,0.7285,136.4,98.1,0.474
30.88,32128.0,35143.8,2.1776,1.6989,136.4,98.1,0.474
30.9,32083.4,35047.3,1.4207,0.5551,136.4,98.1,0.474
30.92,32034.0,35119.2,0.5824,1.4073,136.4,98.1,0.474
30.94,31955.7,34967.4,-0.7481,-0.3919,136.4,98.1,0.474
30.96,31972.9,35049.0,-0.4557,0.5756,136.4,98.1,0.474
30.98,31899.4,34925.3,-1.7045,-0.8918,136.4,98.1,0.474
31.0,32078.6,34964.2,1.3395,-0.4308,136.4,98.1,0.474
31.02,32064.2,35023.1,1.0953,0.2685,136.4,98.1,0.474
31.04,31936.5,34893.7,-1.0747,-1.2662,136.4,98.1,0.474
31.06,31960.9,34847.9,-0.6604,-1.8089,136.4,98.1,0.474
31.08,31907.1,34950.9,-1.5728,-0.5884,136.4,98.1,0.474
31.1,31987.8,34957.9,-0.2033,-0.5049,136.4,98.1,0.474
31.12,32048.6,34867.4,0.8295,-1.5784,136.4,98.1,0.474
31.14,31984.1,34901.9,-0.265,-1.1687,136.4,98.1,0.474
31.16,31871.4,34821.3,-2.1802,-2.1248,136.4,98.1,0.474
31.18,31902.3,34822.5,-1.6554,-2.1105,136.4,98.1,0.474
31.2,31917.4,34981.6,-1.3992,-0.2237,136.4,98.1,0.474
31.22,32049.2,35020.6,0.8407,0.2385,136.4,98.1,0.474
31.24,32085.2,35099.3,1.4523,1.1714,136.4,98.1,0.474
31.26,31985.1,35030.3,-0.2489,0.3532,136.4,98.1,0.474
31.28,31955.6,35079.6,-0.7496,0.9376,136.4,98.1,0.474
31.3,32107.4,35174.7,1.8292,2.0653,136.4,98.1,0.474
31.32,31976.1,35080.9,-0.4015,0.9535,136.4,98.1,0.474
31.34,32036.4,35028.2,0.6224,0.3284,136.4,98.1,0.474
31.36,32004.5,35062.8,0.0806,0.7383,136.4,98.1,0.474
31.38,31976.0,34972.9,-0.4027,-0.3268,136.4,98.1,0.474
31.4,32080.8,35006.2,1.3772,0.0679,136.4,98.1,0.474
31.42,32026.0,34990.6,0.4457,-0.117,136.4,98.1,0.474
31.44,31931.0,34916.5,-1.1676,-0.9957,136.4,98.1,0.474
31.46,31956.3,34947.3,-0.7371,-0.6307,136.4,98.1,0.474
31.48,31969.5,34865.3,-0.5135,-1.6027,136.4,98.1,0.474
31.5,32013.0,34984.3,0.2254,-0.1918,136.4,98.1,0.474
31.52,31979.6,34872.8,-0.3414,-1.514,136.4,98.1,0.474
31.54,32034.0,34955.0,0.5816,-0.5388,136.4,98.1,0.474
31.56,31970.3,35056.1,-0.4995,0.66,136.4,98.1,0.474
31.58,31917.9,34845.9,-1.3899,-1.8332,136.4,98.1,0.474
31.6,31919.9,34835.2,-1.3552,-1.96,136.4,98.1,0.474
31.62,31989.9,34964.9,-0.1675,-0.4217,136.4,98.1,0.474
31.64,32065.2,35020.4,1.1125,0.2361,136.4,98.1,0.474
31.66,32119.4,35068.5,2.0316,0.8068,136.4,98.1,0.474
31.68,32044.4,35073.9,0.7577,0.871,136.4,98.1,0.474
31.7,32024.3,35151.3,0.4175,1.7888,136.4,98.1,0.474
31.72,32117.3,35142.7,1.9972,1.6857,136.4,98.1,0.474
31.74,32106.1,35197.6,1.8063,2.3372,136.4,98.1,0.474
31.76,32027.6,35049.4,0.4735,0.5804,136.4,98.1,0.474
31.78,32024.3,35015.7,0.418,0.1806,136.4,98.1,0.474
31.8,32020.5,35110.5,0.3525,1.3048,136.4,98.1,0.474
31.82,31956.1,35044.1,-0.7403,0.517,136.4,98.1,0.474
31.84,32083.0,35035.6,1.4135,0.416,136.4,98.1,0.474
31.86,31958.8,34974.3,-0.6947,-0.3106,136.4,98.1,0.474
31.88,32002.2,34956.0,0.042,-0.527,136.4,98.1,0.474
31.9,31985.4,34989.5,-0.2442,-0.1298,136.4,98.1,0.474
31.92,32029.8,34926.6,0.5103,-0.8762,136.4,98.1,0.474
31.94,31961.1,34976.9,-0.6566,-0.2799,136.4,98.1,0.474
31.96,31914.5,34929.5,-1.4477,-0.842,136.4,98.1,0.474
31.98,31936.3,34954.7,-1.0775,-0.5434,136.4,98.1,0.474
32.0,31937.5,34844.0,-1.0576,-1.8558,136.4,98.1,0.474
32.02,32010.2,34984.7,0.1774,-0.1874,136.4,98.1,0.474
32.04,31858.8,34923.3,-2.3934,-0.9152,136.4,98.1,0.474
32.06,31996.7,34928.7,-0.0508,-0.8507,136.4,98.1,0.474
32.08,31988.4,34961.1,-0.1924,-0.467,136.4,98.1,0.474
32.1,31935.3,35030.3,-1.0949,0.3537,136.4,98.1,0.474
32.12,32073.6,34998.1,1.2538,-0.0287,136.4,98.1,0.474
32.14,32133.7,35158.9,2.2748,1.8784,136.4,98.1,0.474
32.16,32004.7,35059.6,0.0836,0.7009,136.4,98.1,0.474
32.18,32119.3,35135.6,2.0313,1.6017,136.4,98.1,0.474
32.2,32023.4,35100.5,0.4016,1.1856,136.4,98.1,0.474
32.22,32002.9,35062.1,0.0538,0.7307,136.4,98.1,0.474
32.24,31991.2,35078.6,-0.145,0.9258,136.4,98.1,0.474
32.26,32029.4,34968.5,0.503,-0.3792,136.4,98.1,0.474
32.28,32083.5,34976.0,1.4227,-0.2907,136.4,98.1,0.474
32.3,32001.1,34882.5,0.0236,-1.3987,136.4,98.1,0.474
32.32,32005.9,35054.0,0.1049,0.6341,136.4,98.1,0.474
32.34,31977.3,34992.6,-0.3808,-0.094,136.4,98.1,0.474
32.36,32061.8,34896.5,1.0534,-1.2327,136.4,98.1,0.474
32.38,32068.7,34982.1,1.171,-0.2182,136.4,98.1,0.474
32.4,32010.9,34943.8,0.189,-0.6717,136.4,98.1,0.474
32.42,31848.0,34990.7,-2.5772,-0.1156,136.4,98.1,0.474
32.44,31981.9,34958.9,-0.3034,-0.4928,136.4,98.1,0.474
32.46,31962.6,34948.5,-0.6302,-0.6168,136.4,98.1,0.474
32.48,31929.7,34793.0,-1.1891,-2.4605,136.4,98.1,0.474
32.5,32022.9,34914.2,0.3938,-1.0234,136.4,98.1,0.474
32.52,31952.3,34970.2,-0.8054,-0.359,136.4,98.1,0.474
32.54,31933.3,35007.1,-1.1291,0.0789,136.4,98.1,0.474
32.56,32017.7,35054.9,0.3058,0.6453,136.4,98.1,0.474
32.58,32033.2,35185.5,0.5691,2.1935,136.4,98.1,0.474
32.6,32034.6,35108.3,0.5926,1.2782,136.4,98.1,0.474
32.62,31980.7,35124.7,-0.3241,1.4731,136.4,98.1,0.474
32.64,32086.7,35128.0,1.4771,1.512,136.4,98.1,0.474
32.66,32034.4,35005.2,0.5882,0.0556,136.4,98.1,0.474
32.68,32026.1,35098.4,0.4482,1.1605,136.4,98.1,0.474
32.7,32125.4,35082.8,2.1346,0.9754,136.4,98.1,0.474
32.72,31987.7,34992.6,-0.2036,-0.0936,136.4,98.1,0.474
32.74,31966.6,35015.4,-0.5634,0.1762,136.4,98.1,0.474
32.76,32044.4,35039.4,0.7578,0.4618,136.4,98.1,0.474
32.78,32025.4,34908.5,0.4352,-1.091,136.4,98.1,0.474
32.8,31920.1,34934.1,-1.3529,-0.7875,136.4,98.1,0.474
32.82,31997.5,34909.6,-0.0382,-1.0774,136.4,98.1,0.474
32.84,31946.4,34986.1,-0.9065,-0.17,136.4,98.1,0.474
32.86,32010.6,34847.7,0.1851,-1.812,136.4,98.1,0.474
32.88,31987.5,34941.1,-0.2075,-0.7037,136.4,98.1,0.474
32.9,31987.0,34909.0,-0.2163,-1.0851,136.4,98.1,0.474
32.92,32070.9,34923.6,1.209,-0.9113,136.4,98.1,0.474
32.94,31962.4,34904.3,-0.6333,-1.1403,136.4,98.1,0.474
32.96,31914.2,34835.8,-1.4528,-1.9528,136.4,98.1,0.474
32.98,31903.0,35003.3,-1.6421,0.0337,136.4,98.1,0.474
33.0,31994.8,35048.2,-0.0832,0.5663,136.4,98.1,0.474
33.02,32012.7,35046.3,0.2196,0.5437,136.4,98.1,0.474
33.04,32003.7,35002.2,0.0672,0.0205,136.4,98.1,0.474
33.06,32060.6,35068.0,1.0339,0.8,136.4,98.1,0.474
33.08,31984.3,35108.3,-0.263,1.2783,136.4,98.1,0.474
33.1,32024.7,35086.2,0.4237,1.0168,136.4,98.1,0.474
33.12,32039.7,35047.4,0.678,0.5564,136.4,98.1,0.474
33.14,32062.5,35122.8,1.0652,1.4508,136.4,98.1,0.474
33.16,31960.4,35021.8,-0.6674,0.2524,136.4,98.1,0.474
33.18,32055.6,34895.7,0.948,-1.2431,136.4,98.1,0.474
33.2,31997.7,35010.3,-0.0343,0.1167,136.4,98.1,0.474
33.22,32024.3,34947.1,0.4177,-0.6334,136.4,98.1,0.474
33.24,31985.1,34951.5,-0.2493,-0.5809,136.4,98.1,0.474
33.26,31969.0,34930.3,-0.5223,-0.8326,136.4,98.1,0.474
33.28,31948.8,34949.7,-0.8658,-0.6026,136.4,98.1,0.474
33.3,31922.0,34869.9,-1.321,-1.5484,136.4,98.1,0.474
33.32,31959.3,34870.2,-0.6869,-1.5446,136.4,98.1,0.474
33.34,31970.7,34792.0,-0.4931,-2.4722,136.4,98.1,0.474
33.36,31967.9,34913.1,-0.5409,-1.0363,136.4,98.1,0.474
33.38,31960.0,34959.2,-0.6753,-0.4891,136.4,98.1,0.474
33.4,32015.8,34905.7,0.2736,-1.1235,136.4,98.1,0.474
33.42,32012.6,35058.4,0.2189,0.6871,136.4,98.1,0.474
33.44,31980.1,35093.0,-0.333,1.0972,136.4,98.1,0.474
33.46,31948.4,35094.4,-0.8723,1.1133,136.4,98.1,0.474
33.48,32074.3,35078.4,1.2671,0.924,136.4,98.1,0.474
33.5,32077.7,35049.2,1.3239,0.5777,136.4,98.1,0.474
33.52,32007.4,35100.8,0.1301,1.1894,136.4,98.1,0.474
33.54,31980.5,35040.7,-0.3262,0.4766,136.4,98.1,0.474
33.56,31996.4,34974.9,-0.0569,-0.3029,136.4,98.1,0.474
33.58,31960.1,34984.3,-0.6731,-0.1922,136.4,98.1,0.474
33.6,31990.9,34982.6,-0.1506,-0.212,136.4,98.1,0.474
33.62,31981.6,35020.2,-0.3085,0.234,136.4,98.1,0.474
33.64,31905.5,34980.2,-1.5998,-0.241,136.4,98.1,0.474
33.66,31931.0,34960.1,-1.1676,-0.4791,136.4,98.1,0.474
33.68,31934.3,34928.5,-1.1119,-0.8535,136.4,98.1,0.474
33.7,31952.0,34994.4,-0.8114,-0.0726,136.4,98.1,0.474
33.72,32016.0,35004.6,0.2767,0.0492,136.4,98.1,0.474
33.74,31928.9,35020.8,-1.2033,0.2406,136.4,98.1,0.474
33.76,31983.5,34915.7,-0.276,-1.0057,136.4,98.1,0.474
33.78,32016.0,34976.1,0.2761,-0.2889,136.4,98.1,0.474
33.8,32015.1,34841.2,0.2607,-1.8888,136.4,98.1,0.474
33.82,31917.3,34937.6,-1.4006,-0.7456,136.4,98.1,0.474
33.84,32035.2,34938.9,0.6024,-0.7308,136.4,98.1,0.474
33.86,31970.3,34957.1,-0.4998,-0.5144,136.4,98.1,0.474
33.88,32059.3,35033.9,1.0108,0.3958,136.4,98.1,0.474
33.9,32064.1,35109.8,1.0931,1.2959,136.4,98.1,0.474
33.92,32107.3,35158.8,1.8271,1.8772,136.4,98.1,0.474
33.94,31996.5,35101.4,-0.0544,1.1969,136.4,98.1,0.474
33.96,32084.8,35037.3,1.4448,0.4364,136.4,98.1,0.474
33.98,31988.8,35037.2,-0.185,0.4358,136.4,98.1,0.474
34.0,31992.3,34998.5,-0.126,-0.0236,136.4,98.1,0.474
34.02,32051.3,34988.7,0.8753,-0.1397,136.4,98.1,0.474
34.04,31981.3,35059.7,-0.3126,0.7019,136.4,98.1,0.474
34.06,32096.1,34839.8,1.6363,-1.9049,136.4,98.1,0.474
34.08,32040.9,35001.5,0.6986,0.0117,136.4,98.1,0.474
34.1,31967.1,34934.4,-0.554,-0.7838,136.4,98.1,0.474
34.12,31997.2,34880.6,-0.0432,-1.4212,136.4,98.1,0.474
34.14,31978.1,34868.7,-0.367,-1.5627,136.4,98.1,0.474
34.16,31942.3,34871.6,-0.9753,-1.5278,136.4,98.1,0.474
34.18,32037.1,34960.3,0.6354,-0.4761,136.4,98.1,0.474
34.2,31866.4,34841.5,-2.2649,-1.8854,136.4,98.1,0.474
34.22,32016.4,34873.7,0.2824,-1.5039,136.4,98.1,0.474
34.24,31978.1,34901.9,-0.3668,-1.1689,136.4,98.1,0.474
34.26,31985.7,34949.7,-0.2376,-0.6023,136.4,98.1,0.474
34.28,31912.8,34850.9,-1.4771,-1.774,136.4,98.1,0.474
34.3,31942.7,34961.9,-0.9686,-0.4575,136.4,98.1,0.474
34.32,31933.2,35025.6,-1.13,0.2978,136.4,98.1,0.474
34.34,32051.8,35125.3,0.8845,1.4794,136.4,98.1,0.474
34.36,32108.6,35121.7,1.8495,1.4376,136.4,98.1,0.474
34.38,32184.6,35198.9,3.1404,2.3525,136.4,98.1,0.474
34.4,32039.8,34989.7,0.6804,-0.1274,136.4,98.1,0.474
34.42,32095.5,34953.3,1.6265,-0.5591,136.4,98.1,0.474
34.44,32033.7,35001.3,0.5769,0.0098,136.4,98.1,0.474
34.46,31958.2,35038.9,-0.7059,0.4554,136.4,98.1,0.474
34.48,31997.1,35144.5,-0.0445,1.7071,136.4,98.1,0.474
34.5,32019.0,35015.8,0.3269,0.1812,136.4,98.1,0.474
34.52,32046.6,34966.4,0.7964,-0.4048,136.4,98.1,0.474
34.54,32039.0,34936.7,0.6674,-0.7558,136.4,98.1,0.474
34.56,32043.7,34896.3,0.747,-1.2355,136.4,98.1,0.474
34.58,31998.7,34952.8,-0.0182,-0.5651,136.4,98.1,0.474
34.6,31961.2,34928.4,-0.6541,-0.8544,136.4,98.1,0.474
34.62,32021.3,34936.7,0.3662,-0.7561,136.4,98.1,0.474
34.64,31914.3,34959.8,-1.4504,-0.482,136.4,98.1,0.474
34.66,31827.0,34860.9,-2.934,-1.6558,136.4,98.1,0.474
34.68,31983.1,34890.2,-0.283,-1.3074,136.4,98.1,0.474
34.7,32089.8,34896.2,1.5301,-1.2367,136.4,98.1,0.474
34.72,31982.1,34996.9,-0.2991,-0.0431,136.4,98.1,0.474
34.74,31895.5,34996.0,-1.7706,-0.0531,136.4,98.1,0.474
34.76,32048.8,35109.2,0.8338,1.2894,136.4,98.1,0.474
34.78,32045.0,35161.2,0.7688,1.9057,136.4,98.1,0.474
34.8,32006.5,35120.1,0.1141,1.4188,136.4,98.1,0.474
34.82,32050.4,35116.1,0.8602,1.3711,136.4,98.1,0.474
34.84,32026.4,35022.1,0.4527,0.2557,136.4,98.1,0.474
34.86,32064.2,35052.8,1.0956,0.62,136.4,98.1,0.474
34.88,31898.0,35022.4,-1.7278,0.2594,136.4,98.1,0.474
34.9,32004.0,35106.6,0.0719,1.2576,136.4,98.1,0.474
34.92,31953.9,34952.8,-0.7778,-0.5656,136.4,98.1,0.474
34.94,32130.9,35068.3,2.2278,0.8037,136.4,98.1,0.474
34.96,32006.4,34931.9,0.1129,-0.8133,136.4,98.1,0.474
34.98,32056.8,34956.5,0.9688,-0.5213,136.4,98.1,0.474
35.0,32036.0,34894.9,0.6154,-1.2517,136.4,98.1,0.474
35.02,31941.7,34925.7,-0.9857,-0.8866,136.4,98.1,0.474
35.04,32027.7,35031.9,0.4744,0.3719,136.4,98.1,0.474
35.06,32007.8,35040.5,0.1369,0.474,136.4,98.1,0.474
35.08,31969.1,34870.0,-0.5211,-1.5471,136.4,98.1,0.474
35.1,31963.7,34900.3,-0.6114,-1.1883,136.4,98.1,0.474
35.12,32017.1,34895.2,0.2954,-1.2482,136.4,98.1,0.474
35.14,31954.6,34955.6,-0.7659,-0.5326,136.4,98.1,0.474
35.16,32069.6,34957.1,1.1864,-0.514,136.4,98.1,0.474
35.18,32124.8,34987.4,2.1234,-0.1547,136.4,98.1,0.474
35.2,32056.5,35099.9,0.9634,1.1787,136.4,98.1,0.474
35.22,32067.1,35205.6,1.1439,2.4319,136.4,98.1,0.474
35.24,32133.3,35173.1,2.2678,2.0466,136.4,98.1,0.474
35.26,31996.1,35042.9,-0.0625,0.5034,136.4,98.1,0.474
35.28,32038.5,34990.0,0.6584,-0.1242,136.4,98.1,0.474
35.3,31979.4,35129.2,-0.3447,1.5265,136.4,98.1,0.474
35.32,31966.4,34965.9,-0.5669,-0.41,136.4,98.1,0.474
35.34,31968.7,35066.3,-0.5271,0.7806,136.4,98.1,0.474
35.36,31917.9,35002.3,-1.3892,0.0217,136.4,98.1,0.474
35.38,31991.2,34994.6,-0.1452,-0.0702,136.4,98.1,0.474
35.4,32020.6,34948.8,0.3544,-0.613,136.4,98.1,0.474
35.42,32037.3,34891.5,0.6373,-1.2919,136.4,98.1,0.474
35.44,31962.2,34962.7,-0.6369,-0.4485,136.4,98.1,0.474
35.46,31923.7,34875.0,-1.2909,-1.4876,136.4,98.1,0.474
35.48,31975.7,35001.3,-0.4077,0.0096,136.4,98.1,0.474
35.5,32025.2,34817.4,0.4327,-2.171,136.4,98.1,0.474
35.52,31989.0,34864.1,-0.1821,-1.6168,136.4,98.1,0.474
35.54,31862.1,34912.0,-2.338,-1.0487,136.4,98.1,0.474
35.56,31907.6,34940.2,-1.5642,-0.7143,136.4,98.1,0.474
35.58,31978.6,34974.6,-0.3594,-0.3066,136.4,98.1,0.474
35.6,32016.4,35036.1,0.2833,0.422,136.4,98.1,0.474
35.62,31962.0,35007.8,-0.6409,0.0865,136.4,98.1,0.474
35.64,31966.4,35136.3,-0.5664,1.6108,136.4,98.1,0.474
35.66,32012.6,35072.4,0.2178,0.8521,136.4,98.1,0.474
35.68,32066.5,35088.6,1.1345,1.0445,136.4,98.1,0.474
35.7,32077.3,35054.9,1.3181,0.6457,136.4,98.1,0.474
35.72,32025.1,35054.4,0.4314,0.6396,136.4,98.1,0.474
35.74,31997.4,35121.5,-0.0405,1.4351,136.4,98.1,0.474
35.76,31937.5,35127.6,-1.0573,1.5072,136.4,98.1,0.474
35.78,32051.9,35028.6,0.8867,0.3332,136.4,98.1,0.474
35.8,31938.9,34970.3,-1.0331,-0.3585,136.4,98.1,0.474
35.82,32057.8,35003.6,0.9853,0.0366,136.4,98.1,0.474
35.84,31913.7,34993.0,-1.4604,-0.0893,136.4,98.1,0.474
35.86,31924.5,34915.8,-1.2772,-1.0047,136.4,98.1,0.474
35.88,31876.9,34838.0,-2.0854,-1.9265,136.4,98.1,0.474
35.9,31976.5,34939.9,-0.3945,-0.7185,136.4,98.1,0.474
35.92,32000.0,34940.0,0.0041,-0.7174,136.4,98.1,0.474
35.94,31992.7,34920.9,-0.1191,-0.9442,136.4,98.1,0.474
35.96,31948.6,34947.2,-0.8691,-0.6321,136.4,98.1,0.474
35.98,32021.4,34893.9,0.3678,-1.2638,136.4,98.1,0.474
36.0,31964.8,34901.7,-0.5941,-1.1718,136.4,98.1,0.474
36.02,31942.6,34947.0,-0.9709,-0.6343,136.4,98.1,0.474
36.04,32001.2,35010.6,0.0253,0.1203,136.4,98.1,0.474
36.06,31940.3,35005.5,-1.0088,0.0589,136.4,98.1,0.474
36.08,31965.1,35215.0,-0.589,2.5439,136.4,98.1,0.474
36.1,32046.1,35163.6,0.787,1.934,136.4,98.1,0.474
36.12,31946.3,35127.0,-0.9073,1.5006,136.4,98.1,0.474
36.14,32076.2,35018.0,1.2983,0.2081,136.4,98.1,0.474
36.16,32032.5,35006.6,0.557,0.0728,136.4,98.1,0.474
36.18,32146.1,34988.5,2.4854,-0.1419,136.4,98.1,0.474
36.2,32006.2,35000.9,0.1103,0.0051,136.4,98.1,0.474
36.22,31959.9,35086.5,-0.6767,1.0201,136.4,98.1,0.474
36.24,31995.7,35041.4,-0.0681,0.4852,136.4,98.1,0.474
36.26,31966.5,35027.5,-0.5641,0.3208,136.4,98.1,0.474
36.28,32039.8,35045.1,0.6811,0.5289,136.4,98.1,0.474
36.3,32026.0,34968.4,0.4464,-0.3802,136.4,98.1,0.474
36.32,32043.5,35054.3,0.7439,0.6375,136.4,98.1,0.474
36.34,31929.1,34964.9,-1.2004,-0.4218,136.4,98.1,0.474
36.36,32032.6,35011.6,0.5584,0.1313,136.4,98.1,0.474
36.38,31973.8,34902.2,-0.4405,-1.1658,136.4,98.1,0.474
36.4,31954.4,35054.8,-0.7695,0.6442,136.4,98.1,0.474
36.42,31875.9,34874.2,-2.1039,-1.4973,136.4,98.1,0.474
36.44,31914.9,34888.5,-1.4414,-1.3275,136.4,98.1,0.474
36.46,31987.9,34980.1,-0.2005,-0.2421,136.4,98.1,0.474
36.48,31975.7,34951.9,-0.4088,-0.5767,136.4,98.1,0.474
36.5,32001.4,35039.0,0.0277,0.4564,136.4,98.1,0.474
36.52,32042.4,35084.7,0.725,0.999,136.4,98.1,0.474
36.54,32039.8,35089.9,0.6799,1.0608,136.4,98.1,0.474
36.56,32134.5,35151.7,2.2883,1.7924,136.4,98.1,0.474
36.58,32046.9,35110.2,0.8006,1.3013,136.4,98.1,0.474
36.6,32070.8,35128.1,1.2063,1.5135,136.4,98.1,0.474
36.62,32114.5,35042.2,1.9487,0.4949,136.4,98.1,0.474
36.64,32026.8,35073.6,0.4598,0.8664,136.4,98.1,0.474
36.66,32068.5,35050.5,1.1672,0.5931,136.4,98.1,0.474
36.68,32040.8,35021.1,0.6971,0.2443,136.4,98.1,0.474
36.7,32005.4,35039.7,0.0954,0.4644,136.4,98.1,0.474
36.72,31968.6,35016.4,-0.5282,0.1882,136.4,98.1,0.474
36.74,31943.5,34894.7,-0.9553,-1.2542,136.4,98.1,0.474
36.76,32063.8,34860.1,1.0875,-1.6652,136.4,98.1,0.474
36.78,31956.0,34972.3,-0.742,-0.3342,136.4,98.1,0.474
36.8,31923.3,34992.7,-1.298,-0.0925,136.4,98.1,0.474
36.82,31973.2,34989.1,-0.4508,-0.1348,136.4,98.1,0.474
36.84,31937.7,34902.0,-1.0534,-1.1672,136.4,98.1,0.474
36.86,31992.7,34871.6,-0.1188,-1.5279,136.4,98.1,0.474
36.88,31953.7,34825.7,-0.7827,-2.0721,136.4,98.1,0.474
36.9,31971.0,34933.1,-0.4877,-0.7997,136.4,98.1,0.474
36.92,31944.4,35066.3,-0.9399,0.7798,136.4,98.1,0.474
36.94,32024.1,35036.7,0.4134,0.4296,136.4,98.1,0.474
36.96,32007.3,35145.9,0.1279,1.724,136.4,98.1,0.474
36.98,32080.3,35061.9,1.3676,0.7287,136.4,98.1,0.474
37.0,32063.7,35171.2,1.0868,2.0239,136.4,98.1,0.474
37.02,32113.8,35184.8,1.9378,2.1854,136.4,98.1,0.474
37.04,32006.4,35069.2,0.1123,0.8153,136.4,98.1,0.474
37.06,31961.0,35065.3,-0.6581,0.7681,136.4,98.1,0.474
37.08,31957.3,35083.4,-0.7216,0.9831,136.4,98.1,0.474
37.1,31897.0,35096.0,-1.7443,1.1326,136.4,98.1,0.474
37.12,31999.7,35004.0,0.0,0.0414,136.4,98.1,0.474
37.14,32015.8,34989.5,0.2726,-0.13,136.4,98.1,0.474
37.16,31985.6,34942.2,-0.2396,-0.6916,136.4,98.1,0.474
37.18,32079.9,34989.2,1.3616,-0.1334,136.4,98.1,0.474
37.2,32005.2,35062.3,0.0934,0.7333,136.4,98.1,0.474
37.22,31955.2,34953.8,-0.7571,-0.5542,136.4,98.1,0.474
37.24,31960.0,34957.2,-0.6753,-0.5132,136.4,98.1,0.474
37.26,31967.0,34907.5,-0.5568,-1.1026,136.4,98.1,0.474
37.28,31971.6,34978.9,-0.4774,-0.2563,136.4,98.1,0.474
37.3,32019.9,34899.6,0.3425,-1.1966,136.4,98.1,0.474
37.32,31876.8,34903.6,-2.0879,-1.1487,136.4,98.1,0.474
37.34,31959.6,34957.1,-0.6824,-0.5145,136.4,98.1,0.474
37.36,31924.1,34945.4,-1.285,-0.6534,136.4,98.1,0.474
37.38,32132.9,35047.3,2.2608,0.5549,136.4,98.1,0.474
37.4,32093.4,35043.2,1.5903,0.5065,136.4,98.1,0.474
37.42,32041.5,35077.0,0.7101,0.9078,136.4,98.1,0.474
37.44,31996.3,35089.0,-0.0581,1.0491,136.4,98.1,0.474
37.46,32081.1,35101.0,1.382,1.1923,136.4,98.1,0.474
37.48,32042.9,35043.2,0.7328,0.5065,136.4,98.1,0.474
37.5,31994.8,35125.6,-0.0837,1.484,136.4,98.1,0.474
37.52,32073.5,34991.5,1.2535,-0.1061,136.4,98.1,0.474
37.54,32049.6,35013.5,0.847,0.1543,136.4,98.1,0.474
37.56,32002.9,35034.0,0.0537,0.3973,136.4,98.1,0.474
37.58,31950.8,35022.1,-0.8315,0.2565,136.4,98.1,0.474
37.6,31975.6,34999.6,-0.4102,-0.0111,136.4,98.1,0.474
37.62,31977.2,34955.8,-0.3826,-0.5298,136.4,98.1,0.474
37.64,31928.1,35030.9,-1.2161,0.3604,136.4,98.1,0.474
37.66,32008.0,34906.5,0.1402,-1.115,136.4,98.1,0.474
37.68,31896.0,34900.3,-1.762,-1.1882,136.4,98.1,0.474
37.7,31939.7,34962.5,-1.02,-0.4501,136.4,98.1,0.474
37.72,31943.9,34909.6,-0.9477,-1.0779,136.4,98.1,0.474
37.74,31953.8,34909.8,-0.7803,-1.0753,136.4,98.1,0.474
37.76,31972.3,34927.2,-0.4655,-0.8695,136.4,98.1,0.474
37.78,32026.2,34971.3,0.4497,-0.3456,136.4,98.1,0.474
37.8,31918.6,34930.7,-1.3779,-0.8276,136.4,98.1,0.474
37.82,32012.9,34953.7,0.2242,-0.5544,136.4,98.1,0.474
37.84,32048.3,35091.2,0.8244,1.0753,136.4,98.1,0.474
37.86,32119.3,35156.4,2.0312,1.8482,136.4,98.1,0.474
37.88,32064.6,35114.9,1.1021,1.3568,136.4,98.1,0.474
37.9,32115.3,35106.6,1.9619,1.2581,136.4,98.1,0.474
37.92,32048.6,35066.8,0.8299,0.7861,136.4,98.1,0.474
37.94,32033.4,35036.3,0.5711,0.4252,136.4,98.1,0.474
37.96,31946.8,35041.5,-0.8999,0.4865,136.4,98.1,0.474
37.98,31943.2,35023.9,-0.9601,0.2775,136.4,98.1,0.474
38.0,32026.7,34921.2,0.4573,-0.9398,136.4,98.1,0.474
38.02,32050.5,35026.1,0.8619,0.3035,136.4,98.1,0.474
38.04,31983.5,34975.1,-0.2759,-0.3006,136.4,98.1,0.474
38.06,31988.6,34943.8,-0.1884,-0.6726,136.4,98.1,0.474
38.08,32060.7,35014.4,1.0359,0.1647,136.4,98.1,0.474
38.1,31943.2,34906.4,-0.9596,-1.1154,136.4,98.1,0.474
38.12,31913.5,34934.4,-1.4641,-0.7834,136.4,98.1,0.474
38.14,31962.9,34924.0,-0.6262,-0.9071,136.4,98.1,0.474
38.16,31958.4,34986.9,-0.7023,-0.1616,136.4,98.1,0.474
38.18,31977.4,34907.9,-0.3801,-1.0975,136.4,98.1,0.474
38.2,31839.8,34857.3,-2.7169,-1.6983,136.4,98.1,0.474
38.22,31958.0,34874.6,-0.7089,-1.4932,136.4,98.1,0.474
38.24,31987.8,35001.2,-0.2026,0.0082,136.4,98.1,0.474
38.26,32003.4,34941.8,0.0616,-0.6961,136.4,98.1,0.474
38.28,32039.1,35011.3,0.6686,0.1277,136.4,98.1,0.474
38.3,31981.0,35137.7,-0.318,1.6266,136.4,98.1,0.474
38.32,32026.2,35148.7,0.45,1.7575,136.4,98.1,0.474
38.34,32017.7,34947.0,0.3052,-0.634,136.4,98.1,0.474
38.36,31955.5,35038.2,-0.7506,0.4477,136.4,98.1,0.474
38.38,31977.2,35029.0,-0.3824,0.3384,136.4,98.1,0.474
38.4,31963.6,35040.5,-0.6146,0.4746,136.4,98.1,0.474
38.42,31946.1,35021.8,-0.9114,0.2527,136.4,98.1,0.474
38.44,31997.5,35042.0,-0.0386,0.4919,136.4,98.1,0.474
38.46,31991.6,35012.0,-0.1382,0.1367,136.4,98.1,0.474
38.48,32058.2,34894.8,0.9922,-1.2535,136.4,98.1,0.474
38.5,32035.8,35018.4,0.6118,0.2121,136.4,98.1,0.474
38.52,31897.1,35010.1,-1.7429,0.1138,136.4,98.1,0.474
38.54,32021.0,34874.3,0.3604,-1.4963,136.4,98.1,0.474
38.56,32056.9,34898.5,0.9703,-1.2093,136.4,98.1,0.474
38.58,31897.9,34950.1,-1.73,-0.5977,136.4,98.1,0.474
38.6,32008.2,34853.1,0.1443,-1.7479,136.4,98.1,0.474
38.62,31965.3,34989.7,-0.5853,-0.1282,136.4,98.1,0.474
38.64,31992.2,34972.6,-0.1277,-0.331,136.4,98.1,0.474
38.66,31988.6,34884.9,-0.1896,-1.3708,136.4,98.1,0.474
38.68,31966.7,34968.2,-0.5613,-0.3827,136.4,98.1,0.474
38.7,32045.1,35017.3,0.7709,0.1998,136.4,98.1,0.474
38.72,32005.3,35062.9,0.0948,0.7395,136.4,98.1,0.474
38.74,31999.1,35077.4,-0.0116,0.9117,136.4,98.1,0.474
38.76,32002.3,35212.1,0.0427,2.5087,136.4,98.1,0.474
38.78,31976.2,35028.6,-0.4002,0.333,136.4,98.1,0.474
38.8,32044.5,35096.0,0.7604,1.133,136.4,98.1,0.474
38.82,32004.0,35092.9,0.0725,1.0952,136.4,98.1,0.474
38.84,32078.7,35035.5,1.341,0.415,136.4,98.1,0.474
38.86,32008.0,35058.0,0.141,0.6818,136.4,98.1,0.474
38.88,31991.8,34968.6,-0.1354,-0.3782,136.4,98.1,0.474
38.9,32078.4,34915.0,1.3366,-1.014,136.4,98.1,0.474
38.92,31991.4,34979.7,-0.1421,-0.2462,136.4,98.1,0.474
38.94,31914.2,35024.9,-1.4531,0.2897,136.4,98.1,0.474
38.96,31899.6,34960.6,-1.7005,-0.4724,136.4,98.1,0.474
38.98,31969.8,34901.3,-0.5077,-1.176,136.4,98.1,0.474
39.0,31903.4,34796.4,-1.6367,-2.4206,136.4,98.1,0.474
39.02,31984.9,34948.1,-0.2527,-0.6211,136.4,98.1,0.474
39.04,31984.8,34797.5,-0.2535,-2.4075,136.4,98.1,0.474
39.06,31960.8,34923.1,-0.6614,-0.9178,136.4,98.1,0.474
39.08,31881.8,34908.7,-2.0029,-1.089,136.4,98.1,0.474
39.1,32030.3,34854.5,0.5189,-1.7308,136.4,98.1,0.474
39.12,31991.3,35000.4,-0.1437,-0.0006,136.4,98.1,0.474
39.14,32032.7,35074.4,0.5604,0.8758,136.4,98.1,0.474
39.16,32122.7,35087.6,2.0884,1.0334,136.4,98.1,0.474
39.18,32026.5,35111.9,0.4548,1.3208,136.4,98.1,0.474
39.2,32010.1,35169.2,0.1763,2.0004,136.4,98.1,0.474
39.22,32060.1,35103.3,1.0246,1.2196,136.4,98.1,0.474
39.24,32060.3,35017.7,1.029,0.2038,136.4,98.1,0.474
39.26,31964.2,35148.2,-0.6037,1.7511,136.4,98.1,0.474
39.28,31986.2,35144.6,-0.23,1.7089,136.4,98.1,0.474
39.3,32081.9,34976.8,1.3958,-0.2803,136.4,98.1,0.474
39.32,31992.9,34896.3,-0.1161,-1.2349,136.4,98.1,0.474
39.34,31909.9,34906.6,-1.525,-1.113,136.4,98.1,0.474
39.36,32020.1,35099.5,0.3452,1.1746,136.4,98.1,0.474
39.38,31976.5,34955.2,-0.3941,-0.5373,136.4,98.1,0.474
39.4,31982.0,34920.6,-0.3009,-0.9477,136.4,98.1,0.474
39.42,31986.1,34978.7,-0.2311,-0.2588,136.4,98.1,0.474
39.44,31982.8,34929.6,-0.287,-0.8403,136.4,98.1,0.474
39.46,31882.1,34990.9,-1.9987,-0.1141,136.4,98.1,0.474
39.48,31993.4,34953.1,-0.1082,-0.5614,136.4,98.1,0.474
39.5,32007.5,34942.3,0.1323,-0.6902,136.4,98.1,0.474
39.52,31960.6,34880.0,-0.665,-1.4289,136.4,98.1,0.474
39.54,31999.3,35028.5,-0.008,0.3323,136.4,98.1,0.474
39.56,31967.2,34973.1,-0.5532,-0.3243,136.4,98.1,0.474
39.58,32075.1,35071.4,1.2799,0.8408,136.4,98.1,0.474
39.6,32037.9,35045.1,0.6488,0.5288,136.4,98.1,0.474
39.62,32062.8,35114.0,1.0717,1.3462,136.4,98.1,0.474
39.64,32069.8,35092.7,1.1893,1.0931,136.4,98.1,0.474
39.66,32069.5,35111.6,1.1856,1.3171,136.4,98.1,0.474
39.68,32018.0,35031.6,0.3105,0.3684,136.4,98.1,0.474
39.7,32025.0,35023.8,0.4288,0.2761,136.4,98.1,0.474
39.72,32072.8,35088.4,1.2416,1.0423,136.4,98.1,0.474
39.74,32049.5,34971.3,0.8454,-0.3461,136.4,98.1,0.474
39.76,32034.1,35063.1,0.5841,0.7419,136.4,98.1,0.474
39.78,31972.2,35145.1,-0.468,1.715,136.4,98.1,0.474
39.8,32042.5,34950.4,0.7266,-0.5945,136.4,98.1,0.474
39.82,32063.3,34910.0,1.08,-1.0731,136.4,98.1,0.474
39.84,32013.7,35012.0,0.2376,0.1364,136.4,98.1,0.474
39.86,31952.9,34925.7,-0.7948,-0.8871,136.4,98.1,0.474
39.88,31944.4,34953.9,-0.9391,-0.5525,136.4,98.1,0.474
39.9,31878.4,34953.7,-2.0615,-0.5552,136.4,98.1,0.474
39.92,31930.1,34909.0,-1.1821,-1.0846,136.4,98.1,0.474
39.94,31971.3,34925.9,-0.4831,-0.8849,136.4,98.1,0.474
39.96,31867.4,34878.2,-2.2479,-1.4496,136.4,98.1,0.474
39.98,31831.0,34947.5,-2.8651,-0.6283,136.4,98.1,0.474
40.0,31960.0,35032.3,-0.6749,0.3772,136.4,98.1,0.474
40.02,31971.0,34988.6,-0.4881,-0.1413,136.4,98.1,0.474
40.04,31994.6,35097.1,-0.0876,1.146,136.4,98.1,0.474
40.06,32039.7,35126.8,0.6795,1.4974,136.4,98.1,0.474
40.08,32032.7,35102.2,0.5594,1.2064,136.4,98.1,0.474
40.1,32018.2,35115.7,0.313,1.3664,136.4,98.1,0.474
40.12,32008.5,35157.1,0.149,1.8573,136.4,98.1,0.474
40.14,32058.7,35007.6,1.0013,0.0848,136.4,98.1,0.474
40.16,32084.2,35027.3,1.4348,0.3179,136.4,98.1,0.474
40.18,32043.9,35028.1,0.7502,0.3277,136.4,98.1,0.474
40.2,31943.3,34949.9,-0.9585,-0.5998,136.4,98.1,0.474
40.22,32047.9,35016.0,0.8172,0.184,136.4,98.1,0.474
40.24,32070.9,34952.7,1.2092,-0.5666,136.4,98.1,0.474
40.26,32025.0,34970.0,0.4298,-0.3621,136.4,98.1,0.474
40.28,31966.5,34915.9,-0.564,-1.003,136.4,98.1,0.474
40.3,32027.3,35046.6,0.4688,0.5473,136.4,98.1,0.474
40.32,31955.9,34968.3,-0.7447,-0.3821,136.4,98.1,0.474
40.34,31966.6,35015.7,-0.5622,0.1803,136.4,98.1,0.474
40.36,31985.4,34949.9,-0.2435,-0.6002,136.4,98.1,0.474
40.38,32056.5,34900.4,0.9639,-1.1863,136.4,98.1,0.474
40.4,31995.0,35007.2,-0.0798,0.0794,136.4,98.1,0.474
40.42,31920.3,34939.8,-1.349,-0.7194,136.4,98.1,0.474
40.44,31803.5,34848.2,-3.3336,-1.8058,136.4,98.1,0.474
40.46,32030.6,35180.3,0.5241,2.1319,136.4,98.1,0.474
40.48,32021.2,35049.5,0.3642,0.5817,136.4,98.1,0.474
40.5,32164.5,35167.9,2.7981,1.9852,136.4,98.1,0.474
40.52,31921.9,35116.0,-1.3223,1.37,136.4,98.1,0.474
40.54,32101.4,35091.0,1.7258,1.073,136.4,98.1,0.474
40.56,32040.4,35087.0,0.6898,1.0256,136.4,98.1,0.474
40.58,32046.2,34928.0,0.7891,-0.8601,136.4,98.1,0.474
40.6,31886.4,35100.8,-1.9246,1.1891,136.4,98.1,0.474
40.62,31952.7,35004.3,-0.7992,0.0456,136.4,98.1,0.474
40.64,31956.2,35071.7,-0.7389,0.8442,136.4,98.1,0.474
40.66,31985.7,35025.5,-0.2388,0.2967,136.4,98.1,0.474
40.68,31889.7,35058.1,-1.8687,0.683,136.4,98.1,0.474
40.7,31908.9,34896.5,-1.5433,-1.2329,136.4,98.1,0.474
40.72,31960.7,34917.2,-0.6623,-0.9871,136.4,98.1,0.474
40.74,31991.9,34972.9,-0.1329,-0.3269,136.4,98.1,0.474
40.76,31889.2,34913.1,-1.878,-1.0367,136.4,98.1,0.474
40.78,31936.0,34967.6,-1.0822,-0.3899,136.4,98.1,0.474
40.8,32036.7,34916.6,0.627,-0.9944,136.4,98.1,0.474
40.82,31893.6,34873.6,-1.803,-1.504,136.4,98.1,0.474
40.84,31956.7,34951.6,-0.7302,-0.5793,136.4,98.1,0.474
40.86,32006.2,34955.9,0.1105,-0.5284,136.4,98.1,0.474
40.88,31942.0,34984.2,-0.9802,-0.193,136.4,98.1,0.474
40.9,31965.9,35033.9,-0.5748,0.3962,136.4,98.1,0.474
40.92,32054.4,35151.6,0.9278,1.7914,136.4,98.1,0.474
40.94,31997.0,35145.3,-0.0458,1.7176,136.4,98.1,0.474
40.96,32149.4,35196.9,2.542,2.3286,136.4,98.1,0.474
40.98,32065.0,34988.0,1.1082,-0.1477,136.4,98.1,0.474
41.0,32057.1,35053.4,0.9742,0.6268,136.4,98.1,0.474
41.02,32049.5,35015.6,0.8454,0.1796,136.4,98.1,0.474
41.04,32023.8,35063.3,0.409,0.7447,136.4,98.1,0.474
41.06,31980.4,35089.3,-0.3281,1.0531,136.4,98.1,0.474
41.08,32027.5,35027.5,0.4719,0.3209,136.4,98.1,0.474
41.1,31992.4,35080.6,-0.1239,0.9505,136.4,98.1,0.474
41.12,32056.2,35030.1,0.9596,0.3507,136.4,98.1,0.474
41.14,32050.6,35044.0,0.8645,0.5155,136.4,98.1,0.474
41.16,31894.3,34921.5,-1.7899,-0.9365,136.4,98.1,0.474
41.18,31877.3,34884.7,-2.0795,-1.3732,136.4,98.1,0.474
41.2,31907.7,34929.6,-1.5624,-0.84,136.4,98.1,0.474
41.22,31925.3,34931.0,-1.2646,-0.8244,136.4,98.1,0.474
41.24,31867.2,34866.2,-2.2517,-1.5919,136.4,98.1,0.474
41.26,32058.7,34963.2,1.0014,-0.442,136.4,98.1,0.474
41.28,31895.0,34810.3,-1.779,-2.2554,136.4,98.1,0.474
41.3,31970.1,34944.7,-0.5031,-0.6619,136.4,98.1,0.474
41.32,31965.5,34958.2,-0.5807,-0.5009,136.4,98.1,0.474
41.34,31916.4,35006.3,-1.415,0.0689,136.4,98.1,0.474
41.36,31999.5,35071.9,-0.0047,0.8472,136.4,98.1,0.474
41.38,31999.1,35196.1,-0.0108,2.3191,136.4,98.1,0.474
41.4,32003.8,35140.6,0.0695,1.6618,136.4,98.1,0.474
41.42,32085.1,35165.6,1.4494,1.9581,136.4,98.1,0.474
41.44,31951.8,35102.0,-0.8139,1.2039,136.4,98.1,0.474
41.46,32021.6,34968.1,0.3718,-0.3846,136.4,98.1,0.474
41.48,32036.2,34995.5,0.6195,-0.0597,136.4,98.1,0.474
41.5,32049.5,35050.8,0.845,0.5962,136.4,98.1,0.474
41.52,32021.5,34999.5,0.3691,-0.0122,136.4,98.1,0.474
41.54,31926.9,35015.0,-1.2369,0.1721,136.4,98.1,0.474
41.56,31908.4,34968.4,-1.5508,-0.3805,136.4,98.1,0.474
41.58,31906.9,34969.3,-1.577,-0.37,136.4,98.1,0.474
41.6,31982.0,34983.3,-0.3019,-0.2039,136.4,98.1,0.474
41.62,31966.8,34909.1,-0.5588,-1.084,136.4,98.1,0.474
41.64,32002.5,34860.8,0.047,-1.6563,136.4,98.1,0.474
41.66,31978.0,34980.9,-0.3696,-0.232,136.4,98.1,0.474
41.68,31972.0,34949.2,-0.4703,-0.6081,136.4,98.1,0.474
41.7,31870.9,34941.2,-2.1885,-0.7028,136.4,98.1,0.474
41.72,31892.8,34899.7,-1.8162,-1.1954,136.4,98.1,0.474
41.74,32053.0,34983.4,0.9039,-0.2027,136.4,98.1,0.474
41.76,31878.7,34954.4,-2.0549,-0.5466,136.4,98.1,0.474
41.78,31944.1,35046.0,-0.9441,0.5391,136.4,98.1,0.474
41.8,32092.7,35001.5,1.5785,0.0115,136.4,98.1,0.474
41.82,32044.4,35232.2,0.758,2.7473,136.4,98.1,0.474
41.84,32138.0,35044.7,2.3478,0.5247,136.4,98.1,0.474
41.86,31998.4,35170.7,-0.023,2.0178,136.4,98.1,0.474
41.88,31980.8,35095.1,-0.3215,1.1224,136.4,98.1,0.474
41.9,32053.8,35095.8,0.9189,1.1297,136.4,98.1,0.474
41.92,31886.5,34950.1,-1.9226,-0.5973,136.4,98.1,0.474
41.94,31919.0,35069.3,-1.3705,0.8157,136.4,98.1,0.474
41.96,31999.8,35022.5,0.0012,0.2605,136.4,98.1,0.474
41.98,32041.9,34938.4,0.7163,-0.7366,136.4,98.1,0.474
42.0,31952.4,35015.0,-0.8035,0.1724,136.4,98.1,0.474
42.02,32019.8,34986.9,0.341,-0.161,136.4,98.1,0.474
42.04,31975.2,34881.4,-0.4164,-1.4119,136.4,98.1,0.474
42.06,31926.2,34941.1,-1.2489,-0.704,136.4,98.1,0.474
42.08,32027.4,34964.5,0.4702,-0.4262,136.4,98.1,0.474
42.1,31989.6,34965.1,-0.1715,-0.4202,136.4,98.1,0.474
42.12,31978.5,34918.4,-0.3606,-0.9737,136.4,98.1,0.474
42.14,31878.1,35022.6,-2.0661,0.2623,136.4,98.1,0.474
42.16,31937.4,34868.4,-1.0585,-1.5664,136.4,98.1,0.474
42.18,31959.6,34915.9,-0.682,-1.0032,136.4,98.1,0.474
42.2,31990.2,35003.6,-0.1625,0.0369,136.4,98.1,0.474
42.22,32041.4,35108.1,0.7081,1.2757,136.4,98.1,0.474
42.24,32069.7,35112.7,1.1878,1.3303,136.4,98.1,0.474
42.26,32069.5,35141.3,1.1855,1.6693,136.4,98.1,0.474
42.28,32032.0,35195.7,0.5473,2.315,136.4,98.1,0.474
42.3,31993.5,35093.7,-0.1051,1.1053,136.4,98.1,0.474
42.32,32003.2,35117.0,0.0593,1.3815,136.4,98.1,0.474
42.34,32070.1,35045.2,1.1946,0.5298,136.4,98.1,0.474
42.36,32035.8,35022.6,0.6125,0.2619,136.4,98.1,0.474
42.38,32018.1,35047.4,0.3123,0.5563,136.4,98.1,0.474
42.4,32068.1,34992.7,1.1607,-0.0929,136.4,98.1,0.474
42.42,32064.1,34999.1,1.0931,-0.0168,136.4,98.1,0.474
42.44,31999.7,35009.3,0.0001,0.104,136.4,98.1,0.474
42.46,31944.6,34987.7,-0.9358,-0.1512,136.4,98.1,0.474
42.48,32104.6,34924.5,1.7817,-0.901,136.4,98.1,0.474
42.5,32009.9,34933.5,0.1721,-0.794,136.4,98.1,0.474
42.52,31995.9,34905.8,-0.0651,-1.1233,136.4,98.1,0.474
42.54,31961.0,34888.0,-0.6578,-1.3342,136.4,98.1,0.474
42.56,32023.2,34998.1,0.3982,-0.0279,136.4,98.1,0.474
42.58,31971.4,34912.0,-0.4808,-1.0488,136.4,98.1,0.474
42.6,32040.4,34830.9,0.6906,-2.011,136.4,98.1,0.474
42.62,31942.9,34899.2,-0.9648,-1.2007,136.4,98.1,0.474
42.64,31945.3,34934.0,-0.9244,-0.7882,136.4,98.1,0.474
42.66,32046.9,35003.9,0.8013,0.0407,136.4,98.1,0.474
42.68,31962.8,35133.9,-0.628,1.582,136.4,98.1,0.474
42.7,31980.8,35130.4,-0.3211,1.5403,136.4,98.1,0.474
42.72,32132.9,35078.5,2.2613,0.9245,136.4,98.1,0.474
42.74,32089.2,35125.6,1.5188,1.4834,136.4,98.1,0.474
42.76,32063.2,35083.3,1.0773,0.982,136.4,98.1,0.474
42.78,31979.6,35021.7,-0.3415,0.2517,136.4,98.1,0.474
42.8,31996.0,34934.7,-0.064,-0.7798,136.4,98.1,0.474
42.82,32024.2,35011.8,0.4151,0.134,136.4,98.1,0.474
42.84,31968.3,34993.8,-0.5348,-0.0796,136.4,98.1,0.474
42.86,31955.5,35007.1,-0.7513,0.0785,136.4,98.1,0.474
42.88,31981.4,34965.2,-0.3106,-0.4187,136.4,98.1,0.474
42.9,31892.1,34984.2,-1.828,-0.1933,136.4,98.1,0.474
42.92,32011.9,34937.6,0.2059,-0.7458,136.4,98.1,0.474
42.94,32046.4,35046.9,0.7925,0.5508,136.4,98.1,0.474
42.96,31968.1,34978.0,-0.5368,-0.2661,136.4,98.1,0.474
42.98,31989.2,35009.6,-0.1783,0.1084,136.4,98.1,0.474
43.0,31924.4,34946.5,-1.2803,-0.6402,136.4,98.1,0.474
43.02,31905.0,34956.2,-1.6098,-0.525,136.4,98.1,0.474
43.04,31961.4,34922.7,-0.6505,-0.922,136.4,98.1,0.474
43.06,31902.1,34808.1,-1.6588,-2.2818,136.4,98.1,0.474
43.08,32014.7,34954.2,0.2547,-0.5494,136.4,98.1,0.474
43.1,32032.4,34990.5,0.5548,-0.1187,136.4,98.1,0.474
43.12,31979.0,35056.1,-0.3516,0.6588,136.4,98.1,0.474
43.14,32059.9,35166.5,1.0211,1.968,136.4,98.1,0.474
43.16,32051.2,35087.5,0.8732,1.0314,136.4,98.1,0.474
43.18,32032.9,35124.6,0.5632,1.4713,136.4,98.1,0.474
43.2,32055.2,34996.0,0.942,-0.0528,136.4,98.1,0.474
43.22,32116.7,35090.9,1.9856,1.0719,136.4,98.1,0.474
43.24,32021.4,35004.7,0.3674,0.0498,136.4,98.1,0.474
43.26,32029.4,34947.6,0.5039,-0.6272,136.4,98.1,0.474
43.28,32053.8,35068.9,0.9175,0.8112,136.4,98.1,0.474
43.3,32015.8,34935.9,0.2725,-0.7657,136.4,98.1,0.474
43.32,31941.5,35034.2,-0.9898,0.4002,136.4,98.1,0.474
43.34,32013.4,34939.3,0.2324,-0.726,136.4,98.1,0.474
43.36,31976.7,34942.1,-0.3915,-0.6922,136.4,98.1,0.474
43.38,31998.0,34914.2,-0.03,-1.0236,136.4,98.1,0.474
43.4,31905.8,34986.0,-1.595,-0.1722,136.4,98.1,0.474
43.42,32072.2,34893.6,1.2303,-1.2677,136.4,98.1,0.474
43.44,32046.8,34923.8,0.7986,-0.9088,136.4,98.1,0.474
43.46,31997.5,34902.8,-0.0388,-1.1583,136.4,98.1,0.474
43.48,31989.9,34834.3,-0.1678,-1.9707,136.4,98.1,0.474
43.5,31928.5,34997.0,-1.2095,-0.0411,136.4,98.1,0.474
43.52,31967.9,35001.0,-0.5403,0.0064,136.4,98.1,0.474
43.54,31975.8,35008.8,-0.4067,0.0985,136.4,98.1,0.474
43.56,31992.4,35068.1,-0.1251,0.8019,136.4,98.1,0.474
43.58,32052.2,35136.8,0.8918,1.616,136.4,98.1,0.474
43.6,32049.0,35205.2,0.8359,2.4278,136.4,98.1,0.474
43.62,31985.1,35086.9,-0.2484,1.0251,136.4,98.1,0.474
43.64,32042.1,35142.2,0.7192,1.6807,136.4,98.1,0.474
43.66,31979.5,35119.8,-0.3433,1.4153,136.4,98.1,0.474
43.68,32007.3,35074.4,0.1288,0.876,136.4,98.1,0.474
43.7,32022.4,34933.0,0.3857,-0.8004,136.4,98.1,0.474
43.72,32128.0,34991.3,2.1786,-0.1091,136.4,98.1,0.474
43.74,31985.5,35051.4,-0.2416,0.6031,136.4,98.1,0.474
43.76,31979.3,34999.1,-0.3473,-0.0169,136.4,98.1,0.474
43.78,31983.8,35006.4,-0.2711,0.0701,136.4,98.1,0.474
43.8,32008.4,34841.4,0.1471,-1.8868,136.4,98.1,0.474
43.82,31920.7,34981.5,-1.3429,-0.2251,136.4,98.1,0.474
43.84,31991.7,35030.6,-0.1373,0.3566,136.4,98.1,0.474
43.86,31933.7,34965.4,-1.1218,-0.4157,136.4,98.1,0.474
43.88,32012.6,34926.3,0.2192,-0.8801,136.4,98.1,0.474
43.9,31969.8,34890.5,-0.5078,-1.3048,136.4,98.1,0.474
43.92,31924.8,34905.4,-1.2734,-1.1277,136.4,98.1,0.474
43.94,31852.1,34948.1,-2.5078,-0.6208,136.4,98.1,0.474
43.96,31943.3,35016.1,-0.9588,0.1856,136.4,98.1,0.474
43.98,32005.2,35054.6,0.0931,0.6419,136.4,98.1,0.474
44.0,32027.3,35128.9,0.4685,1.5231,136.4,98.1,0.474
44.02,32087.5,35023.8,1.4911,0.2759,136.4,98.1,0.474
44.04,31960.4,35172.3,-0.6679,2.0374,136.4,98.1,0.474
44.06,32081.7,35132.1,1.3926,1.5602,136.4,98.1,0.474
44.08,32045.4,35111.9,0.7762,1.3211,136.4,98.1,0.474
44.1,32010.8,34969.7,0.1887,-0.3645,136.4,98.1,0.474
44.12,31979.1,35056.7,-0.3498,0.6669,136.4,98.1,0.474
44.14,32059.8,35086.5,1.0202,1.0195,136.4,98.1,0.474
44.16,32028.4,35030.9,0.4866,0.3611,136.4,98.1,0.474
44.18,31995.4,35006.4,-0.0738,0.07,136.4,98.1,0.474
44.2,31980.3,34913.0,-0.3295,-1.0375,136.4,98.1,0.474
44.22,31923.5,34902.2,-1.295,-1.165,136.4,98.1,0.474
44.24,31979.0,35032.3,-0.352,0.3773,136.4,98.1,0.474
44.26,32037.8,34957.4,0.6462,-0.5112,136.4,98.1,0.474
44.28,31845.7,35058.1,-2.6165,0.6828,136.4,98.1,0.474
44.3,31873.3,34911.9,-2.1467,-1.0505,136.4,98.1,0.474
44.32,32073.4,35013.5,1.2517,0.1543,136.4,98.1,0.474
44.34,31931.1,34888.8,-1.1656,-1.3243,136.4,98.1,0.474
44.36,31913.7,34891.0,-1.462,-1.2981,136.4,98.1,0.474
44.38,31948.7,34942.5,-0.8665,-0.6878,136.4,98.1,0.474
44.4,32010.1,34900.4,0.1761,-1.1867,136.4,98.1,0.474
44.42,32033.3,35027.3,0.5692,0.3176,136.4,98.1,0.474
44.44,32054.9,35082.0,0.9368,0.967,136.4,98.1,0.474
44.46,32125.3,35116.3,2.1321,1.3732,136.4,98.1,0.474
44.48,32014.1,35139.3,0.2436,1.6463,136.4,98.1,0.474
44.5,32110.4,35006.6,1.8787,0.0721,136.4,98.1,0.474
44.52,31982.1,35127.1,-0.2994,1.5016,136.4,98.1,0.474
44.54,32047.6,35108.6,0.8136,1.2818,136.4,98.1,0.474
44.56,31980.3,35083.8,-0.3295,0.988,136.4,98.1,0.474
44.58,32089.7,34998.6,1.5275,-0.0229,136.4,98.1,0.474
44.6,31981.0,35013.9,-0.3176,0.159,136.4,98.1,0.474
44.62,31909.3,34925.5,-1.536,-0.8887,136.4,98.1,0.474
44.64,31988.2,34966.7,-0.1966,-0.4008,136.4,98.1,0.474
44.66,31957.9,34948.5,-0.7109,-0.6161,136.4,98.1,0.474
44.68,32016.5,34959.0,0.284,-0.492,136.4,98.1,0.474
44.7,31957.9,35001.9,-0.7104,0.0162,136.4,98.1,0.474
44.72,31943.3,35024.2,-0.9593,0.2817,136.4,98.1,0.474
44.74,31984.7,34871.8,-0.2561,-1.5263,136.4,98.1,0.474
44.76,31966.9,34898.9,-0.5576,-1.2041,136.4,98.1,0.474
44.78,31908.7,34977.3,-1.5469,-0.2747,136.4,98.1,0.474
44.8,31970.6,34968.4,-0.4953,-0.3811,136.4,98.1,0.474
44.82,31906.7,34917.5,-1.58,-0.9835,136.4,98.1,0.474
44.84,31992.0,34879.6,-0.1316,-1.4338,136.4,98.1,0.474
44.86,32009.1,35059.9,0.159,0.7039,136.4,98.1,0.474
44.88,32000.1,35118.8,0.0068,1.4027,136.4,98.1,0.474
44.9,32007.2,35131.2,0.1267,1.55,136.4,98.1,0.474
