timestamp,raw_red,raw_ir,filtered_red,filtered_ir,heart_rate,spo2,ac_dc_ratio
0.0,32052.4,35217.8,0.2467,0.535,140.5,96.4,0.544
0.02,32257.1,35533.2,1.2378,1.3114,140.5,96.4,0.544
0.04,32379.7,35736.2,1.8318,1.8112,140.5,96.4,0.544
0.06,32393.0,35693.9,1.8965,1.707,140.5,96.4,0.544
0.08,32299.8,35650.3,1.445,1.5997,140.5,96.4,0.544
0.1,32179.1,35410.7,0.86,1.01,140.5,96.4,0.544
0.12,32239.4,35242.8,1.1523,0.5966,140.5,96.4,0.544
0.14,32080.7,35166.2,0.3836,0.4081,140.5,96.4,0.544
0.16,32098.9,35048.5,0.4716,0.1183,140.5,96.4,0.544
0.18,32056.5,35107.2,0.2662,0.2627,140.5,96.4,0.544
0.2,31925.7,34956.0,-0.3673,-0.1094,140.5,96.4,0.544
0.22,31952.9,34809.7,-0.2353,-0.4696,140.5,96.4,0.544
0.24,31899.9,34766.6,-0.4922,-0.5758,140.5,96.4,0.544
0.26,31859.5,34656.3,-0.6881,-0.8473,140.5,96.4,0.544
0.28,31845.3,34696.4,-0.7566,-0.7485,140.5,96.4,0.544
0.3,31801.9,34767.1,-0.9669,-0.5745,140.5,96.4,0.544
0.32,31868.7,34601.7,-0.6431,-0.9816,140.5,96.4,0.544
0.34,31797.4,34435.7,-0.9887,-1.3904,140.5,96.4,0.544
0.36,31766.1,34496.8,-1.1401,-1.24,140.5,96.4,0.544
0.38,31739.0,34494.2,-1.2715,-1.2462,140.5,96.4,0.544
0.4,31872.7,34755.1,-0.6241,-0.604,140.5,96.4,0.544
0.42,32067.2,35075.9,0.3181,0.1856,140.5,96.4,0.544
0.44,32180.9,35380.6,0.8689,0.9358,140.5,96.4,0.544
0.46,32320.1,35673.7,1.543,1.6573,140.5,96.4,0.544
0.48,32365.2,35721.9,1.7616,1.7762,140.5,96.4,0.544
0.5,32315.2,35781.4,1.5194,1.9226,140.5,96.4,0.544
0.52,32283.2,35539.6,1.3647,1.3274,140.5,96.4,0.544
0.54,32131.4,35296.9,0.6289,0.7297,140.5,96.4,0.544
0.56,32083.6,35188.0,0.3974,0.4618,140.5,96.4,0.544
0.58,32032.0,35208.1,0.1476,0.5111,140.5,96.4,0.544
0.6,32120.3,34986.4,0.5752,-0.0345,140.5,96.4,0.544
0.62,32000.4,34933.0,-0.0052,-0.166,140.5,96.4,0.544
0.64,31892.5,34891.5,-0.5279,-0.2682,140.5,96.4,0.544
0.66,31817.0,34690.5,-0.8937,-0.7631,140.5,96.4,0.544
0.68,31839.5,34697.6,-0.7849,-0.7456,140.5,96.4,0.544
0.7,31853.0,34644.8,-0.7193,-0.8757,140.5,96.4,0.544
0.72,31812.9,34637.9,-0.9138,-0.8925,140.5,96.4,0.544
0.74,31814.2,34606.6,-0.9074,-0.9697,140.5,96.4,0.544
0.76,31863.2,34587.4,-0.6701,-1.017,140.5,96.4,0.544
0.78,31730.0,34599.3,-1.3151,-0.9876,140.5,96.4,0.544
0.8,31754.7,34474.2,-1.1953,-1.2956,140.5,96.4,0.544
0.82,31777.5,34546.3,-1.0851,-1.1181,140.5,96.4,0.544
0.84,31934.7,35005.4,-0.3234,0.0122,140.5,96.4,0.544
0.86,32088.2,35230.1,0.4197,0.5652,140.5,96.4,0.544
0.88,32270.6,35640.2,1.3035,1.5749,140.5,96.4,0.544
0.9,32371.9,35775.7,1.7942,1.9084,140.5,96.4,0.544
0.92,32353.9,35647.2,1.7067,1.5922,140.5,96.4,0.544
0.94,32298.3,35593.2,1.4376,1.4592,140.5,96.4,0.544
0.96,32203.2,35394.6,0.9769,0.9703,140.5,96.4,0.544
0.98,32061.5,35139.4,0.2908,0.342,140.5,96.4,0.544
1.0,32101.3,35149.5,0.4836,0.3668,140.5,96.4,0.544
1.02,32071.0,34974.6,0.3364,-0.0636,140.5,96.4,0.544
1.04,31911.0,34959.5,-0.4386,-0.1009,140.5,96.4,0.544
1.06,32001.7,34897.5,0.0011,-0.2534,140.5,96.4,0.544
1.08,31909.4,34661.9,-0.446,-0.8334,140.5,96.4,0.544
1.1,31891.2,34790.5,-0.5343,-0.5169,140.5,96.4,0.544
1.12,31885.5,34586.0,-0.5621,-1.0202,140.5,96.4,0.544
1.14,31877.9,34714.8,-0.5988,-0.7032,140.5,96.4,0.544
1.16,31892.5,34684.7,-0.528,-0.7772,140.5,96.4,0.544
1.18,31749.3,34562.2,-1.2215,-1.079,140.5,96.4,0.544
1.2,31701.7,34418.9,-1.4523,-1.4317,140.5,96.4,0.544
1.22,31758.3,34454.0,-1.1781,-1.3454,140.5,96.4,0.544
1.24,31801.2,34529.5,-0.9705,-1.1594,140.5,96.4,0.544
1.26,31857.8,34809.0,-0.6961,-0.4714,140.5,96.4,0.544
1.28,32036.0,35079.7,0.1671,0.1952,140.5,96.4,0.544
1.3,32285.6,35555.5,1.376,1.3664,140.5,96.4,0.544
1.32,32289.1,35716.5,1.393,1.7628,140.5,96.4,0.544
1.34,32363.4,35885.6,1.753,2.1791,140.5,96.4,0.544
1.36,32259.6,35634.7,1.2499,1.5613,140.5,96.4,0.544
1.38,32192.0,35434.9,0.9228,1.0694,140.5,96.4,0.544
1.4,32162.6,35216.6,0.7802,0.5321,140.5,96.4,0.544
1.42,31993.0,35171.4,-0.0414,0.4209,140.5,96.4,0.544
1.44,32157.5,35058.9,0.7556,0.1438,140.5,96.4,0.544
1.46,32021.3,35018.3,0.096,0.0439,140.5,96.4,0.544
1.48,31947.3,34979.8,-0.2628,-0.0508,140.5,96.4,0.544
1.5,31908.3,34830.6,-0.4517,-0.4181,140.5,96.4,0.544
1.52,31897.9,34762.8,-0.5017,-0.585,140.5,96.4,0.544
1.54,31882.0,34533.9,-0.5791,-1.1487,140.5,96.4,0.544
1.56,31814.3,34647.4,-0.9067,-0.8692,140.5,96.4,0.544
1.58,31828.4,34659.0,-0.8385,-0.8406,140.5,96.4,0.544
1.6,31892.2,34511.1,-0.5293,-1.2048,140.5,96.4,0.544
1.62,31826.3,34542.1,-0.8485,-1.1283,140.5,96.4,0.544
1.64,31737.5,34484.3,-1.2787,-1.2706,140.5,96.4,0.544
1.66,31718.6,34547.5,-1.3704,-1.115,140.5,96.4,0.544
1.68,31876.0,34692.9,-0.6077,-0.7573,140.5,96.4,0.544
1.7,31978.8,35118.1,-0.1098,0.2897,140.5,96.4,0.544
1.72,32120.7,35343.3,0.5772,0.8441,140.5,96.4,0.544
1.74,32313.0,35594.9,1.5089,1.4634,140.5,96.4,0.544
1.76,32334.7,35866.4,1.6141,2.1317,140.5,96.4,0.544
1.78,32285.0,35686.6,1.3734,1.6892,140.5,96.4,0.544
1.8,32229.2,35557.3,1.1027,1.3709,140.5,96.4,0.544
1.82,32113.8,35350.9,0.5438,0.8626,140.5,96.4,0.544
1.84,32144.9,35198.6,0.6946,0.4878,140.5,96.4,0.544
1.86,32118.2,35194.3,0.5652,0.4772,140.5,96.4,0.544
1.88,32064.7,35127.5,0.3063,0.3126,140.5,96.4,0.544
1.9,31968.3,34988.4,-0.1607,-0.0296,140.5,96.4,0.544
1.92,31923.5,34974.4,-0.3779,-0.0642,140.5,96.4,0.544
1.94,31911.5,34843.5,-0.4361,-0.3864,140.5,96.4,0.544
1.96,31890.6,34638.3,-0.5371,-0.8916,140.5,96.4,0.544
1.98,31831.6,34586.0,-0.823,-1.0202,140.5,96.4,0.544
2.0,31895.2,34684.2,-0.5151,-0.7786,140.5,96.4,0.544
2.02,31778.7,34647.5,-1.0793,-0.8688,140.5,96.4,0.544
2.04,31771.0,34487.7,-1.1166,-1.2622,140.5,96.4,0.544
2.06,31718.7,34472.2,-1.37,-1.3005,140.5,96.4,0.544
2.08,31676.7,34425.3,-1.5735,-1.4158,140.5,96.4,0.544
2.1,31864.4,34594.1,-0.664,-1.0005,140.5,96.4,0.544
2.12,31924.2,34936.0,-0.3744,-0.1586,140.5,96.4,0.544
2.14,32148.3,35236.8,0.7109,0.5818,140.5,96.4,0.544
2.16,32289.4,35617.8,1.3944,1.5199,140.5,96.4,0.544
2.18,32250.7,35710.3,1.2069,1.7475,140.5,96.4,0.544
2.2,32343.1,35627.0,1.6544,1.5423,140.5,96.4,0.544
2.22,32248.1,35575.4,1.1945,1.4154,140.5,96.4,0.544
2.24,32153.2,35425.8,0.7347,1.0472,140.5,96.4,0.544
2.26,32096.7,35235.7,0.4611,0.579,140.5,96.4,0.544
2.28,32114.9,35104.3,0.5493,0.2557,140.5,96.4,0.544
2.3,32035.7,35064.3,0.1658,0.1571,140.5,96.4,0.544
2.32,31936.7,35037.5,-0.3139,0.0913,140.5,96.4,0.544
2.34,31889.0,34964.7,-0.5448,-0.0879,140.5,96.4,0.544
2.36,31879.2,34894.4,-0.5923,-0.2612,140.5,96.4,0.544
2.38,31951.7,34692.3,-0.2411,-0.7588,140.5,96.4,0.544
2.4,31888.6,34662.3,-0.5471,-0.8325,140.5,96.4,0.544
2.42,31863.9,34593.0,-0.6667,-1.0031,140.5,96.4,0.544
2.44,31929.1,34697.7,-0.3507,-0.7453,140.5,96.4,0.544
2.46,31793.2,34612.0,-1.009,-0.9563,140.5,96.4,0.544
2.48,31736.4,34426.6,-1.2843,-1.4128,140.5,96.4,0.544
2.5,31810.3,34491.2,-0.9262,-1.2538,140.5,96.4,0.544
2.52,31733.5,34654.5,-1.298,-0.8516,140.5,96.4,0.544
2.54,31948.6,34772.8,-0.2564,-0.5605,140.5,96.4,0.544
2.56,31996.5,35097.7,-0.024,0.2393,140.5,96.4,0.544
2.58,32168.5,35363.0,0.8086,0.8926,140.5,96.4,0.544
2.6,32371.2,35668.8,1.7909,1.6453,140.5,96.4,0.544
2.62,32384.6,35836.0,1.8558,2.0568,140.5,96.4,0.544
2.64,32336.6,35711.5,1.6231,1.7505,140.5,96.4,0.544
2.66,32207.1,35549.2,0.9957,1.3509,140.5,96.4,0.544
2.68,32095.8,35192.9,0.4568,0.4739,140.5,96.4,0.544
2.7,32037.4,35242.1,0.1737,0.5948,140.5,96.4,0.544
2.72,32028.0,35068.6,0.1283,0.1678,140.5,96.4,0.544
2.74,32049.7,35108.5,0.2332,0.2659,140.5,96.4,0.544
2.76,31938.6,34891.6,-0.3046,-0.2681,140.5,96.4,0.544
2.78,31920.3,34908.7,-0.3932,-0.226,140.5,96.4,0.544
2.8,31890.4,34699.7,-0.5382,-0.7404,140.5,96.4,0.544
2.82,31819.6,34698.4,-0.881,-0.7436,140.5,96.4,0.544
2.84,31810.0,34709.7,-0.9277,-0.7157,140.5,96.4,0.544
2.86,31803.0,34707.1,-0.9617,-0.7222,140.5,96.4,0.544
2.88,31820.5,34523.8,-0.8765,-1.1736,140.5,96.4,0.544
2.9,31845.4,34584.9,-0.756,-1.0231,140.5,96.4,0.544
2.92,31674.4,34417.1,-1.5842,-1.4361,140.5,96.4,0.544
2.94,31726.9,34533.0,-1.3302,-1.1508,140.5,96.4,0.544
2.96,31778.9,34725.0,-1.0783,-0.6782,140.5,96.4,0.544
2.98,32036.9,35035.5,0.1716,0.0864,140.5,96.4,0.544
3.0,32179.1,35387.5,0.8604,0.9529,140.5,96.4,0.544
3.02,32390.8,35674.2,1.8855,1.6587,140.5,96.4,0.544
3.04,32354.9,35773.1,1.7118,1.902,140.5,96.4,0.544
3.06,32371.8,35710.7,1.7935,1.7483,140.5,96.4,0.544
3.08,32171.9,35476.6,0.8256,1.1722,140.5,96.4,0.544
3.1,32083.4,35449.6,0.3965,1.1057,140.5,96.4,0.544
3.12,32199.1,35176.3,0.9572,0.4329,140.5,96.4,0.544
3.14,32010.2,35098.1,0.042,0.2404,140.5,96.4,0.544
3.16,32020.4,35070.7,0.0915,0.1729,140.5,96.4,0.544
3.18,31914.2,34986.6,-0.4227,-0.0341,140.5,96.4,0.544
3.2,31991.9,34903.8,-0.0463,-0.238,140.5,96.4,0.544
3.22,31864.7,34737.9,-0.6625,-0.6465,140.5,96.4,0.544
3.24,31848.1,34658.8,-0.7433,-0.8412,140.5,96.4,0.544
3.26,31890.5,34608.8,-0.5375,-0.9641,140.5,96.4,0.544
3.28,31778.8,34627.0,-1.0788,-0.9193,140.5,96.4,0.544
3.3,31785.4,34701.3,-1.0466,-0.7364,140.5,96.4,0.544
3.32,31773.1,34542.1,-1.1066,-1.1285,140.5,96.4,0.544
3.34,31736.4,34435.4,-1.2841,-1.391,140.5,96.4,0.544
3.36,31779.4,34439.8,-1.0758,-1.3803,140.5,96.4,0.544
3.38,31825.2,34575.9,-0.8538,-1.0452,140.5,96.4,0.544
3.4,31913.4,34927.3,-0.4268,-0.1802,140.5,96.4,0.544
3.42,32141.9,35151.1,0.6799,0.3709,140.5,96.4,0.544
3.44,32281.5,35580.7,1.356,1.4284,140.5,96.4,0.544
3.46,32435.8,35702.8,2.1037,1.7291,140.5,96.4,0.544
3.48,32371.7,35748.4,1.793,1.8412,140.5,96.4,0.544
3.5,32245.2,35547.1,1.1806,1.3458,140.5,96.4,0.544
3.52,32078.2,35418.9,0.3717,1.0302,140.5,96.4,0.544
3.54,32103.4,35289.9,0.4935,0.7125,140.5,96.4,0.544
3.56,32044.6,35239.8,0.2085,0.5893,140.5,96.4,0.544
3.58,32004.6,35133.2,0.0149,0.3267,140.5,96.4,0.544
3.6,32135.7,35062.0,0.6498,0.1515,140.5,96.4,0.544
3.62,31997.6,34973.2,-0.0188,-0.0671,140.5,96.4,0.544
3.64,31862.7,34798.2,-0.6724,-0.498,140.5,96.4,0.544
3.66,31824.8,34660.5,-0.8559,-0.8369,140.5,96.4,0.544
3.68,31745.2,34725.6,-1.2416,-0.6767,140.5,96.4,0.544
3.7,31832.3,34726.4,-0.8198,-0.6746,140.5,96.4,0.544
3.72,31788.9,34693.2,-1.0299,-0.7563,140.5,96.4,0.544
3.74,31807.6,34568.6,-0.9391,-1.0631,140.5,96.4,0.544
3.76,31817.6,34486.2,-0.8908,-1.2661,140.5,96.4,0.544
3.78,31673.6,34385.8,-1.5883,-1.5132,140.5,96.4,0.544
3.8,31793.3,34490.2,-1.0084,-1.2561,140.5,96.4,0.544
3.82,31855.9,34768.4,-0.7054,-0.5712,140.5,96.4,0.544
3.84,32039.8,35122.5,0.1856,0.3004,140.5,96.4,0.544
3.86,32331.6,35482.7,1.5989,1.1873,140.5,96.4,0.544
3.88,32285.6,35687.6,1.3761,1.6917,140.5,96.4,0.544
3.9,32362.0,35771.8,1.746,1.8989,140.5,96.4,0.544
3.92,32342.5,35633.6,1.6518,1.5585,140.5,96.4,0.544
3.94,32196.7,35437.7,0.9454,1.0765,140.5,96.4,0.544
3.96,32062.2,35210.3,0.2939,0.5166,140.5,96.4,0.544
3.98,32123.9,35107.3,0.593,0.263,140.5,96.4,0.544
4.0,32002.7,35099.0,0.0058,0.2425,140.5,96.4,0.544
4.02,31988.2,34969.3,-0.0642,-0.0768,140.5,96.4,0.544
4.04,32025.8,35001.9,0.1177,0.0034,140.5,96.4,0.544
4.06,31915.3,34934.5,-0.4176,-0.1624,140.5,96.4,0.544
4.08,31850.0,34728.4,-0.7339,-0.6698,140.5,96.4,0.544
4.1,31934.5,34652.2,-0.3243,-0.8573,140.5,96.4,0.544
4.12,31797.9,34659.2,-0.9862,-0.84,140.5,96.4,0.544
4.14,31818.2,34707.8,-0.8881,-0.7205,140.5,96.4,0.544
4.16,31813.6,34660.9,-0.9102,-0.836,140.5,96.4,0.544
4.18,31782.1,34499.3,-1.0626,-1.2337,140.5,96.4,0.544
4.2,31691.4,34453.9,-1.5019,-1.3456,140.5,96.4,0.544
4.22,31692.6,34519.4,-1.4964,-1.1842,140.5,96.4,0.544
4.24,31810.8,34738.9,-0.9237,-0.6439,140.5,96.4,0.544
4.26,31884.5,34961.7,-0.5669,-0.0953,140.5,96.4,0.544
4.28,32233.1,35319.1,1.1216,0.7843,140.5,96.4,0.544
4.3,32413.9,35680.7,1.9976,1.6746,140.5,96.4,0.544
4.32,32386.4,35833.2,1.8643,2.0501,140.5,96.4,0.544
4.34,32399.6,35750.9,1.9283,1.8475,140.5,96.4,0.544
4.36,32279.3,35561.8,1.3457,1.382,140.5,96.4,0.544
4.38,32106.5,35301.9,0.5084,0.7421,140.5,96.4,0.544
4.4,32077.3,35234.5,0.3671,0.576,140.5,96.4,0.544
4.42,32089.4,35052.5,0.4256,0.1282,140.5,96.4,0.544
4.44,32039.4,35079.6,0.1834,0.1949,140.5,96.4,0.544
4.46,32006.7,35058.0,0.025,0.1416,140.5,96.4,0.544
4.48,31939.5,34863.8,-0.3005,-0.3365,140.5,96.4,0.544
4.5,31744.0,34832.1,-1.2474,-0.4144,140.5,96.4,0.544
4.52,31958.3,34695.0,-0.2093,-0.7521,140.5,96.4,0.544
4.54,31856.1,34690.8,-0.7045,-0.7624,140.5,96.4,0.544
4.56,31878.4,34599.6,-0.5965,-0.9868,140.5,96.4,0.544
4.58,31798.5,34617.0,-0.9833,-0.9441,140.5,96.4,0.544
4.6,31863.9,34532.2,-0.6665,-1.1528,140.5,96.4,0.544
4.62,31766.0,34452.1,-1.1406,-1.3499,140.5,96.4,0.544
4.64,31639.1,34393.6,-1.7555,-1.494,140.5,96.4,0.544
4.66,31765.3,34563.6,-1.1439,-1.0756,140.5,96.4,0.544
4.68,31851.2,34919.2,-0.7282,-0.1999,140.5,96.4,0.544
4.7,32101.7,35254.8,0.4852,0.6261,140.5,96.4,0.544
4.72,32293.5,35625.9,1.4145,1.5397,140.5,96.4,0.544
4.74,32348.4,35765.6,1.6803,1.8835,140.5,96.4,0.544
4.76,32310.1,35766.4,1.4948,1.8856,140.5,96.4,0.544
4.78,32311.3,35587.1,1.5006,1.4441,140.5,96.4,0.544
4.8,32287.6,35365.4,1.3856,0.8985,140.5,96.4,0.544
4.82,32098.8,35256.1,0.4711,0.6292,140.5,96.4,0.544
4.84,32113.9,35102.3,0.5443,0.2506,140.5,96.4,0.544
4.86,32018.5,35104.1,0.0821,0.2551,140.5,96.4,0.544
4.88,31986.1,34982.6,-0.0749,-0.044,140.5,96.4,0.544
4.9,31895.7,35004.2,-0.5127,0.0091,140.5,96.4,0.544
4.92,31979.3,34838.0,-0.1078,-0.4001,140.5,96.4,0.544
4.94,31826.5,34726.9,-0.8476,-0.6734,140.5,96.4,0.544
4.96,31869.2,34696.2,-0.6408,-0.749,140.5,96.4,0.544
4.98,31916.3,34677.1,-0.4127,-0.7961,140.5,96.4,0.544
5.0,31725.6,34671.4,-1.3364,-0.8102,140.5,96.4,0.544
5.02,31732.5,34567.1,-1.3032,-1.067,140.5,96.4,0.544
5.04,31743.2,34515.7,-1.251,-1.1934,140.5,96.4,0.544
5.06,31738.1,34492.8,-1.2757,-1.2496,140.5,96.4,0.544
5.08,31715.4,34439.9,-1.3856,-1.3799,140.5,96.4,0.544
5.1,31868.9,34673.9,-0.6425,-0.8039,140.5,96.4,0.544
5.12,32013.9,35115.6,0.0601,0.2834,140.5,96.4,0.544
5.14,32209.5,35368.4,1.0073,0.9057,140.5,96.4,0.544
5.16,32334.6,35692.7,1.6136,1.7041,140.5,96.4,0.544
5.18,32434.5,35769.7,2.0974,1.8936,140.5,96.4,0.544
5.2,32376.2,35717.9,1.8149,1.7663,140.5,96.4,0.544
5.22,32223.3,35464.4,1.0744,1.1422,140.5,96.4,0.544
5.24,32133.2,35307.8,0.6378,0.7565,140.5,96.4,0.544
5.26,32050.3,35178.3,0.2365,0.4377,140.5,96.4,0.544
5.28,31998.9,35127.0,-0.0125,0.3115,140.5,96.4,0.544
5.3,32027.8,34980.0,0.1272,-0.0503,140.5,96.4,0.544
5.32,32047.0,34936.6,0.2203,-0.1573,140.5,96.4,0.544
5.34,31988.9,34906.2,-0.0612,-0.232,140.5,96.4,0.544
5.36,31852.2,34847.2,-0.7232,-0.3772,140.5,96.4,0.544
5.38,31889.8,34652.9,-0.5412,-0.8556,140.5,96.4,0.544
5.4,31853.1,34703.5,-0.7187,-0.7311,140.5,96.4,0.544
5.42,31858.1,34695.3,-0.6948,-0.7512,140.5,96.4,0.544
5.44,31798.2,34576.1,-0.985,-1.0448,140.5,96.4,0.544
5.46,31756.3,34537.6,-1.1879,-1.1395,140.5,96.4,0.544
5.48,31776.8,34471.7,-1.0884,-1.3016,140.5,96.4,0.544
5.5,31767.7,34536.2,-1.1326,-1.1428,140.5,96.4,0.544
5.52,31926.9,34649.0,-0.3615,-0.8653,140.5,96.4,0.544
5.54,31974.1,35005.9,-0.1329,0.0133,140.5,96.4,0.544
5.56,32144.5,35300.5,0.6925,0.7386,140.5,96.4,0.544
5.58,32238.7,35663.8,1.149,1.633,140.5,96.4,0.544
5.6,32365.0,35835.5,1.7605,2.0558,140.5,96.4,0.544
5.62,32374.5,35690.5,1.8069,1.6988,140.5,96.4,0.544
5.64,32180.5,35393.6,0.867,0.9679,140.5,96.4,0.544
5.66,32139.5,35356.6,0.6682,0.8768,140.5,96.4,0.544
5.68,32167.2,35193.1,0.8028,0.4742,140.5,96.4,0.544
5.7,32055.9,35139.4,0.2633,0.342,140.5,96.4,0.544
5.72,32081.9,35067.6,0.3896,0.1653,140.5,96.4,0.544
5.74,32033.9,34933.7,0.1569,-0.1643,140.5,96.4,0.544
5.76,31901.1,34915.5,-0.4865,-0.209,140.5,96.4,0.544
5.78,31806.7,34725.4,-0.9438,-0.6771,140.5,96.4,0.544
5.8,31770.4,34733.3,-1.1196,-0.6576,140.5,96.4,0.544
5.82,31807.2,34714.3,-0.9413,-0.7044,140.5,96.4,0.544
5.84,31751.4,34672.0,-1.2116,-0.8086,140.5,96.4,0.544
5.86,31765.0,34676.4,-1.1454,-0.7977,140.5,96.4,0.544
5.88,31756.6,34627.5,-1.1861,-0.9183,140.5,96.4,0.544
5.9,31702.7,34429.4,-1.4472,-1.4058,140.5,96.4,0.544
5.92,31708.5,34423.9,-1.4194,-1.4193,140.5,96.4,0.544
5.94,31825.3,34596.2,-0.8534,-0.9951,140.5,96.4,0.544
5.96,31859.0,34751.1,-0.6903,-0.6138,140.5,96.4,0.544
5.98,32045.9,35226.3,0.215,0.5559,140.5,96.4,0.544
6.0,32279.9,35608.8,1.3482,1.4976,140.5,96.4,0.544
6.02,32343.8,35713.1,1.658,1.7543,140.5,96.4,0.544
6.04,32360.6,35676.0,1.7392,1.6632,140.5,96.4,0.544
6.06,32182.7,35558.6,0.8775,1.374,140.5,96.4,0.544
6.08,32143.2,35386.6,0.6862,0.9507,140.5,96.4,0.544
6.1,32219.4,35262.4,1.0555,0.6449,140.5,96.4,0.544
6.12,32013.5,35086.9,0.0582,0.2127,140.5,96.4,0.544
6.14,32041.4,35154.0,0.1932,0.3781,140.5,96.4,0.544
6.16,32016.3,35017.6,0.0715,0.0422,140.5,96.4,0.544
6.18,32003.7,34970.2,0.0106,-0.0745,140.5,96.4,0.544
6.2,31784.0,34903.4,-1.0536,-0.2389,140.5,96.4,0.544
6.22,31861.9,34698.3,-0.6763,-0.7439,140.5,96.4,0.544
6.24,31903.1,34658.8,-0.4769,-0.841,140.5,96.4,0.544
6.26,31830.2,34685.0,-0.8297,-0.7766,140.5,96.4,0.544
6.28,31864.6,34696.1,-0.6634,-0.7493,140.5,96.4,0.544
6.3,31773.8,34535.8,-1.1029,-1.144,140.5,96.4,0.544
6.32,31735.0,34511.0,-1.2911,-1.205,140.5,96.4,0.544
6.34,31790.7,34427.8,-1.0209,-1.4098,140.5,96.4,0.544
6.36,31642.2,34515.2,-1.7405,-1.1946,140.5,96.4,0.544
6.38,31807.8,34724.2,-0.9381,-0.6801,140.5,96.4,0.544
6.4,32097.0,34969.7,0.4625,-0.0758,140.5,96.4,0.544
6.42,32245.9,35480.7,1.1837,1.1823,140.5,96.4,0.544
6.44,32419.7,35669.6,2.0255,1.6473,140.5,96.4,0.544
6.46,32285.2,35774.8,1.3742,1.9062,140.5,96.4,0.544
6.48,32332.9,35594.3,1.6053,1.462,140.5,96.4,0.544
6.5,32143.0,35540.3,0.6851,1.3291,140.5,96.4,0.544
6.52,32126.7,35275.9,0.6065,0.6781,140.5,96.4,0.544
6.54,32200.8,35111.0,0.9652,0.2722,140.5,96.4,0.544
6.56,32100.5,35124.5,0.4795,0.3055,140.5,96.4,0.544
6.58,31980.1,35054.1,-0.1035,0.132,140.5,96.4,0.544
6.6,31935.4,34936.7,-0.3201,-0.157,140.5,96.4,0.544
6.62,31949.1,34866.5,-0.254,-0.3297,140.5,96.4,0.544
6.64,31824.6,34663.0,-0.857,-0.8308,140.5,96.4,0.544
6.66,31789.4,34675.0,-1.0272,-0.8013,140.5,96.4,0.544
6.68,31812.7,34676.0,-0.9147,-0.7986,140.5,96.4,0.544
6.7,31800.1,34667.9,-0.9756,-0.8186,140.5,96.4,0.544
6.72,31860.7,34652.1,-0.6819,-0.8576,140.5,96.4,0.544
6.74,31792.2,34582.4,-1.014,-1.0292,140.5,96.4,0.544
6.76,31779.7,34498.7,-1.0742,-1.2352,140.5,96.4,0.544
6.78,31763.5,34509.4,-1.1526,-1.209,140.5,96.4,0.544
6.8,31739.6,34696.9,-1.2687,-0.7472,140.5,96.4,0.544
6.82,31945.4,34916.5,-0.2719,-0.2067,140.5,96.4,0.544
6.84,32127.2,35216.9,0.6088,0.5328,140.5,96.4,0.544
6.86,32299.3,35587.9,1.4426,1.4462,140.5,96.4,0.544
6.88,32369.4,35697.6,1.7819,1.7163,140.5,96.4,0.544
6.9,32294.2,35677.2,1.4179,1.6659,140.5,96.4,0.544
6.92,32306.8,35580.4,1.4787,1.4276,140.5,96.4,0.544
6.94,32275.2,35348.4,1.3259,0.8565,140.5,96.4,0.544
6.96,32107.2,35259.9,0.5117,0.6386,140.5,96.4,0.544
6.98,32106.8,35151.6,0.5101,0.3722,140.5,96.4,0.544
7.0,31986.5,35054.5,-0.0728,0.133,140.5,96.4,0.544
7.02,32030.5,35041.1,0.1403,0.1,140.5,96.4,0.544
7.04,32058.1,35012.1,0.2742,0.0286,140.5,96.4,0.544
7.06,31938.2,34755.9,-0.3064,-0.602,140.5,96.4,0.544
7.08,31942.5,34794.6,-0.2859,-0.5067,140.5,96.4,0.544
7.1,31809.1,34662.5,-0.9318,-0.8319,140.5,96.4,0.544
7.12,31774.2,34757.0,-1.101,-0.5994,140.5,96.4,0.544
7.14,31803.1,34679.7,-0.961,-0.7897,140.5,96.4,0.544
7.16,31795.5,34611.1,-0.9981,-0.9585,140.5,96.4,0.544
7.18,31711.3,34474.0,-1.4056,-1.296,140.5,96.4,0.544
7.2,31818.1,34508.0,-0.8886,-1.2122,140.5,96.4,0.544
7.22,31807.4,34561.7,-0.9404,-1.0802,140.5,96.4,0.544
7.24,31974.9,34758.3,-0.1291,-0.5962,140.5,96.4,0.544
7.26,32134.7,35172.0,0.6453,0.4222,140.5,96.4,0.544
7.28,32204.9,35537.4,0.985,1.3218,140.5,96.4,0.544
7.3,32334.5,35747.8,1.6128,1.8398,140.5,96.4,0.544
7.32,32389.2,35845.3,1.878,2.0799,140.5,96.4,0.544
7.34,32363.7,35546.1,1.7542,1.3432,140.5,96.4,0.544
7.36,32232.6,35432.1,1.1191,1.0627,140.5,96.4,0.544
7.38,32136.9,35297.8,0.6556,0.732,140.5,96.4,0.544
7.4,32064.9,35215.5,0.3072,0.5295,140.5,96.4,0.544
7.42,32036.2,35074.0,0.1681,0.1811,140.5,96.4,0.544
7.44,32014.0,35068.3,0.0604,0.1669,140.5,96.4,0.544
7.46,31984.7,34976.6,-0.0813,-0.0587,140.5,96.4,0.544
7.48,31972.8,34832.0,-0.1391,-0.4148,140.5,96.4,0.544
7.5,31877.2,34728.8,-0.602,-0.6689,140.5,96.4,0.544
7.52,31894.2,34734.5,-0.5199,-0.6547,140.5,96.4,0.544
7.54,31885.1,34709.6,-0.5637,-0.716,140.5,96.4,0.544
7.56,31921.3,34634.2,-0.3887,-0.9018,140.5,96.4,0.544
7.58,31752.8,34544.4,-1.2047,-1.1227,140.5,96.4,0.544
7.6,31800.0,34462.0,-0.976,-1.3255,140.5,96.4,0.544
7.62,31686.8,34514.6,-1.5241,-1.196,140.5,96.4,0.544
7.64,31798.3,34550.1,-0.9845,-1.1086,140.5,96.4,0.544
7.66,31869.3,34658.1,-0.6405,-0.8429,140.5,96.4,0.544
7.68,32027.9,35144.2,0.1278,0.3538,140.5,96.4,0.544
7.7,32173.2,35517.2,0.8315,1.2722,140.5,96.4,0.544
7.72,32388.7,35723.4,1.8753,1.7797,140.5,96.4,0.544
7.74,32386.5,35690.9,1.8646,1.6996,140.5,96.4,0.544
7.76,32367.6,35680.8,1.7731,1.6749,140.5,96.4,0.544
7.78,32231.9,35451.9,1.116,1.1113,140.5,96.4,0.544
7.8,32137.7,35373.4,0.6595,0.9182,140.5,96.4,0.544
7.82,32172.3,35138.0,0.8272,0.3385,140.5,96.4,0.544
7.84,32047.4,35086.6,0.2225,0.2121,140.5,96.4,0.544
7.86,32013.1,35072.3,0.0563,0.1769,140.5,96.4,0.544
7.88,31941.2,35002.9,-0.2922,0.006,140.5,96.4,0.544
7.9,31954.8,34860.1,-0.2262,-0.3456,140.5,96.4,0.544
7.92,31858.0,34747.7,-0.6951,-0.6223,140.5,96.4,0.544
7.94,31851.7,34778.7,-0.7254,-0.5458,140.5,96.4,0.544
7.96,31744.2,34624.3,-1.2465,-0.9259,140.5,96.4,0.544
7.98,31832.7,34682.1,-0.8175,-0.7837,140.5,96.4,0.544
8.0,31783.2,34567.0,-1.0574,-1.067,140.5,96.4,0.544
8.02,31683.3,34546.9,-1.5414,-1.1166,140.5,96.4,0.544
8.04,31692.8,34459.7,-1.4955,-1.3311,140.5,96.4,0.544
8.06,31729.0,34503.2,-1.32,-1.2241,140.5,96.4,0.544
8.08,31779.4,34605.4,-1.0757,-0.9726,140.5,96.4,0.544
8.1,31918.0,35026.7,-0.4045,0.0645,140.5,96.4,0.544
8.12,32149.8,35327.5,0.7183,0.8051,140.5,96.4,0.544
8.14,32339.0,35616.4,1.6348,1.5163,140.5,96.4,0.544
8.16,32373.5,35723.3,1.802,1.7796,140.5,96.4,0.544
8.18,32364.9,35713.9,1.7601,1.7564,140.5,96.4,0.544
8.2,32242.6,35532.3,1.1678,1.3094,140.5,96.4,0.544
8.22,32224.2,35354.7,1.0787,0.8721,140.5,96.4,0.544
8.24,32020.1,35291.1,0.09,0.7154,140.5,96.4,0.544
8.26,32036.3,35074.7,0.1684,0.1828,140.5,96.4,0.544
8.28,32052.7,35001.7,0.2479,0.003,140.5,96.4,0.544
8.3,31968.5,35033.7,-0.1597,0.0819,140.5,96.4,0.544
8.32,31914.4,34962.7,-0.422,-0.0931,140.5,96.4,0.544
8.34,31857.4,34811.2,-0.6978,-0.466,140.5,96.4,0.544
8.36,31921.3,34719.7,-0.3883,-0.6912,140.5,96.4,0.544
8.38,31838.0,34670.9,-0.7918,-0.8114,140.5,96.4,0.544
8.4,31804.8,34585.4,-0.9528,-1.0219,140.5,96.4,0.544
8.42,31825.0,34738.1,-0.8552,-0.646,140.5,96.4,0.544
8.44,31705.1,34535.3,-1.4359,-1.1451,140.5,96.4,0.544
8.46,31797.5,34483.1,-0.9882,-1.2737,140.5,96.4,0.544
8.48,31765.3,34569.7,-1.1443,-1.0606,140.5,96.4,0.544
8.5,31691.2,34466.0,-1.5029,-1.3157,140.5,96.4,0.544
8.52,31897.4,34770.2,-0.5041,-0.5668,140.5,96.4,0.544
8.54,32005.1,35266.2,0.0176,0.6542,140.5,96.4,0.544
8.56,32231.8,35457.1,1.1156,1.1242,140.5,96.4,0.544
8.58,32354.4,35701.6,1.7094,1.7261,140.5,96.4,0.544
8.6,32375.4,35801.1,1.8109,1.971,140.5,96.4,0.544
8.62,32352.2,35630.2,1.6989,1.5502,140.5,96.4,0.544
8.64,32174.6,35439.3,0.8386,1.0804,140.5,96.4,0.544
8.66,32230.0,35342.4,1.1067,0.8417,140.5,96.4,0.544
8.68,32013.3,35105.2,0.0573,0.2578,140.5,96.4,0.544
8.7,32021.3,35094.8,0.0959,0.2323,140.5,96.4,0.544
8.72,31972.9,34957.1,-0.1386,-0.1067,140.5,96.4,0.544
8.74,31918.3,34930.4,-0.4031,-0.1724,140.5,96.4,0.544
8.76,31843.4,34806.2,-0.7658,-0.4782,140.5,96.4,0.544
8.78,31848.0,34733.7,-0.7436,-0.6566,140.5,96.4,0.544
8.8,31789.3,34639.6,-1.0281,-0.8884,140.5,96.4,0.544
8.82,31908.4,34651.9,-0.4509,-0.8581,140.5,96.4,0.544
8.84,31886.1,34626.4,-0.5589,-0.9207,140.5,96.4,0.544
8.86,31778.4,34687.0,-1.0808,-0.7716,140.5,96.4,0.544
8.88,31648.2,34545.0,-1.7113,-1.1212,140.5,96.4,0.544
8.9,31775.7,34508.7,-1.0939,-1.2106,140.5,96.4,0.544
8.92,31748.4,34565.6,-1.226,-1.0705,140.5,96.4,0.544
8.94,31779.5,34729.8,-1.0753,-0.6664,140.5,96.4,0.544
8.96,32079.6,35074.8,0.378,0.1831,140.5,96.4,0.544
8.98,32146.5,35399.6,0.7021,0.9826,140.5,96.4,0.544
9.0,32355.7,35685.2,1.7156,1.6857,140.5,96.4,0.544
9.02,32363.1,35758.9,1.7515,1.8672,140.5,96.4,0.544
9.04,32294.0,35643.3,1.4166,1.5825,140.5,96.4,0.544
9.06,32299.6,35483.5,1.4441,1.1892,140.5,96.4,0.544
9.08,32150.7,35267.6,0.7227,0.6577,140.5,96.4,0.544
9.1,32237.8,35154.7,1.1444,0.3797,140.5,96.4,0.544
9.12,32091.7,35106.2,0.437,0.2602,140.5,96.4,0.544
9.14,31945.0,34953.0,-0.2735,-0.1168,140.5,96.4,0.544
9.16,32007.1,34932.9,0.027,-0.1662,140.5,96.4,0.544
9.18,32021.1,34878.5,0.0947,-0.3003,140.5,96.4,0.544
9.2,31923.9,34652.2,-0.3761,-0.8574,140.5,96.4,0.544
9.22,31870.3,34706.0,-0.6355,-0.725,140.5,96.4,0.544
9.24,31848.1,34600.3,-0.7432,-0.9851,140.5,96.4,0.544
9.26,31880.2,34669.0,-0.5878,-0.816,140.5,96.4,0.544
9.28,31804.1,34571.2,-0.956,-1.0568,140.5,96.4,0.544
9.3,31783.3,34606.9,-1.0568,-0.9688,140.5,96.4,0.544
9.32,31762.4,34402.0,-1.1582,-1.4733,140.5,96.4,0.544
9.34,31815.0,34467.9,-0.9032,-1.311,140.5,96.4,0.544
9.36,31783.6,34585.1,-1.0556,-1.0226,140.5,96.4,0.544
9.38,31977.2,34825.1,-0.1179,-0.4316,140.5,96.4,0.544
9.4,32160.8,35178.6,0.7714,0.4386,140.5,96.4,0.544
9.42,32342.1,35532.2,1.6496,1.3089,140.5,96.4,0.544
9.44,32445.7,35760.4,2.1517,1.8709,140.5,96.4,0.544
9.46,32329.4,35680.2,1.5882,1.6733,140.5,96.4,0.544
9.48,32361.3,35641.0,1.7426,1.5768,140.5,96.4,0.544
9.5,32085.2,35392.0,0.4054,0.9638,140.5,96.4,0.544
9.52,32047.6,35304.9,0.2231,0.7495,140.5,96.4,0.544
9.54,32083.0,35117.6,0.3948,0.2885,140.5,96.4,0.544
9.56,32108.8,35022.7,0.5197,0.0548,140.5,96.4,0.544
9.58,32083.3,35022.2,0.3961,0.0536,140.5,96.4,0.544
9.6,31933.2,34905.4,-0.3308,-0.2341,140.5,96.4,0.544
9.62,31932.1,34823.3,-0.336,-0.4362,140.5,96.4,0.544
9.64,31895.6,34803.2,-0.5128,-0.4855,140.5,96.4,0.544
9.66,31878.9,34698.0,-0.5938,-0.7447,140.5,96.4,0.544
9.68,31865.5,34595.1,-0.6587,-0.9978,140.5,96.4,0.544
9.7,31790.9,34551.4,-1.0204,-1.1054,140.5,96.4,0.544
9.72,31799.6,34617.7,-0.9781,-0.9422,140.5,96.4,0.544
9.74,31774.0,34442.2,-1.1018,-1.3743,140.5,96.4,0.544
9.76,31709.4,34535.0,-1.4148,-1.146,140.5,96.4,0.544
9.78,31855.3,34491.6,-0.7084,-1.2526,140.5,96.4,0.544
9.8,31857.5,34772.6,-0.6973,-0.561,140.5,96.4,0.544
9.82,32049.6,35097.6,0.233,0.2391,140.5,96.4,0.544
9.84,32200.6,35611.1,0.9644,1.5033,140.5,96.4,0.544
9.86,32371.1,35753.9,1.7903,1.8548,140.5,96.4,0.544
9.88,32417.9,35688.1,2.0171,1.6927,140.5,96.4,0.544
9.9,32290.9,35636.9,1.4016,1.5668,140.5,96.4,0.544
9.92,32242.7,35480.4,1.1682,1.1816,140.5,96.4,0.544
9.94,32115.9,35248.6,0.554,0.6109,140.5,96.4,0.544
9.96,32092.8,35142.8,0.4423,0.3504,140.5,96.4,0.544
9.98,31975.4,35061.9,-0.1266,0.1512,140.5,96.4,0.544
10.0,31971.1,35138.5,-0.1473,0.3398,140.5,96.4,0.544
10.02,32053.8,34931.1,0.2535,-0.1707,140.5,96.4,0.544
10.04,31925.8,34915.2,-0.3669,-0.21,140.5,96.4,0.544
10.06,31927.4,34755.6,-0.359,-0.6028,140.5,96.4,0.544
10.08,31898.0,34758.8,-0.5013,-0.5949,140.5,96.4,0.544
10.1,31889.8,34747.8,-0.541,-0.6221,140.5,96.4,0.544
10.12,31804.2,34686.5,-0.9556,-0.7729,140.5,96.4,0.544
10.14,31725.0,34556.9,-1.3391,-1.092,140.5,96.4,0.544
10.16,31745.3,34572.0,-1.2412,-1.0547,140.5,96.4,0.544
10.18,31759.1,34492.2,-1.1743,-1.2513,140.5,96.4,0.544
10.2,31745.6,34624.0,-1.2397,-0.9269,140.5,96.4,0.544
10.22,31822.7,34770.6,-0.8661,-0.566,140.5,96.4,0.544
10.24,31948.2,35016.4,-0.2584,0.0392,140.5,96.4,0.544
10.26,32260.5,35407.1,1.2547,1.001,140.5,96.4,0.544
10.28,32391.5,35645.1,1.8891,1.5869,140.5,96.4,0.544
10.3,32328.8,35745.9,1.5854,1.8351,140.5,96.4,0.544
10.32,32316.3,35700.7,1.5248,1.7238,140.5,96.4,0.544
10.34,32235.6,35461.9,1.1337,1.136,140.5,96.4,0.544
10.36,32147.0,35309.0,0.7046,0.7595,140.5,96.4,0.544
10.38,32141.3,35088.6,0.6769,0.2169,140.5,96.4,0.544
10.4,31997.3,35132.0,-0.0202,0.3238,140.5,96.4,0.544
10.42,32054.3,35102.8,0.2557,0.2519,140.5,96.4,0.544
10.44,32017.0,34968.0,0.0749,-0.08,140.5,96.4,0.544
10.46,31933.6,34864.8,-0.3289,-0.3339,140.5,96.4,0.544
10.48,31877.2,34749.8,-0.6022,-0.6171,140.5,96.4,0.544
10.5,31965.7,34682.8,-0.1734,-0.7821,140.5,96.4,0.544
10.52,31840.0,34661.0,-0.7822,-0.8356,140.5,96.4,0.544
10.54,31946.1,34712.8,-0.2684,-0.7083,140.5,96.4,0.544
10.56,31923.6,34611.8,-0.3775,-0.9567,140.5,96.4,0.544
10.58,31780.8,34525.6,-1.0692,-1.1689,140.5,96.4,0.544
10.6,31719.6,34510.6,-1.3656,-1.2059,140.5,96.4,0.544
10.62,31735.6,34445.4,-1.2881,-1.3664,140.5,96.4,0.544
10.64,31724.5,34629.9,-1.342,-0.9123,140.5,96.4,0.544
10.66,31863.7,34826.9,-0.6673,-0.4273,140.5,96.4,0.544
10.68,32058.5,35142.2,0.2761,0.3489,140.5,96.4,0.544
10.7,32351.8,35673.9,1.6968,1.6579,140.5,96.4,0.544
10.72,32422.7,35730.0,2.0401,1.7959,140.5,96.4,0.544
10.74,32401.9,35788.7,1.9392,1.9406,140.5,96.4,0.544
10.76,32239.1,35548.5,1.151,1.3492,140.5,96.4,0.544
10.78,32216.5,35460.6,1.0414,1.1327,140.5,96.4,0.544
10.8,32064.2,35308.6,0.3039,0.7585,140.5,96.4,0.544
10.82,32048.6,35111.7,0.2279,0.274,140.5,96.4,0.544
10.84,32029.7,35074.6,0.1365,0.1824,140.5,96.4,0.544
10.86,32022.6,35019.0,0.1019,0.0457,140.5,96.4,0.544
10.88,31990.5,34941.6,-0.0535,-0.1449,140.5,96.4,0.544
10.9,31827.8,34794.8,-0.8415,-0.5063,140.5,96.4,0.544
10.92,31834.0,34639.0,-0.8112,-0.8898,140.5,96.4,0.544
10.94,31774.7,34679.8,-1.0987,-0.7894,140.5,96.4,0.544
10.96,31806.8,34662.6,-0.943,-0.8318,140.5,96.4,0.544
10.98,31942.9,34759.1,-0.2839,-0.5941,140.5,96.4,0.544
11.0,31815.4,34587.1,-0.9016,-1.0177,140.5,96.4,0.544
11.02,31728.0,34461.0,-1.3247,-1.328,140.5,96.4,0.544
11.04,31799.4,34477.1,-0.9789,-1.2884,140.5,96.4,0.544
11.06,31832.2,34550.5,-0.8201,-1.1078,140.5,96.4,0.544
11.08,31834.2,34773.4,-0.8102,-0.5589,140.5,96.4,0.544
11.1,32046.6,35258.8,0.2183,0.6359,140.5,96.4,0.544
11.12,32211.2,35519.7,1.0159,1.2782,140.5,96.4,0.544
11.14,32301.9,35714.5,1.4548,1.7578,140.5,96.4,0.544
11.16,32363.3,35734.7,1.7522,1.8076,140.5,96.4,0.544
11.18,32294.6,35586.8,1.4195,1.4435,140.5,96.4,0.544
11.2,32155.7,35377.0,0.7466,0.927,140.5,96.4,0.544
11.22,32102.8,35194.2,0.4905,0.477,140.5,96.4,0.544
11.24,32014.2,35175.1,0.0614,0.43,140.5,96.4,0.544
11.26,32041.6,35178.6,0.1942,0.4385,140.5,96.4,0.544
11.28,32043.7,34995.9,0.2043,-0.0113,140.5,96.4,0.544
11.3,31885.9,34915.5,-0.5598,-0.2092,140.5,96.4,0.544
11.32,31874.6,34803.6,-0.6148,-0.4845,140.5,96.4,0.544
11.34,31919.1,34794.5,-0.3991,-0.5071,140.5,96.4,0.544
11.36,31763.4,34691.5,-1.1532,-0.7605,140.5,96.4,0.544
11.38,31812.1,34588.0,-0.9176,-1.0154,140.5,96.4,0.544
11.4,31871.2,34658.3,-0.6314,-0.8422,140.5,96.4,0.544
11.42,31800.6,34681.4,-0.973,-0.7855,140.5,96.4,0.544
11.44,31773.9,34587.8,-1.1027,-1.0158,140.5,96.4,0.544
11.46,31710.8,34448.0,-1.4083,-1.3601,140.5,96.4,0.544
11.48,31863.0,34459.0,-0.6709,-1.3331,140.5,96.4,0.544
11.5,31772.2,34659.4,-1.1108,-0.8396,140.5,96.4,0.544
11.52,32039.6,35008.5,0.1846,0.0197,140.5,96.4,0.544
11.54,32098.7,35403.2,0.4707,0.9916,140.5,96.4,0.544
11.56,32239.1,35632.1,1.151,1.5549,140.5,96.4,0.544
11.58,32370.4,35731.0,1.7869,1.7985,140.5,96.4,0.544
11.6,32326.1,35670.4,1.5723,1.6493,140.5,96.4,0.544
11.62,32208.3,35498.7,1.0018,1.2267,140.5,96.4,0.544
11.64,32195.4,35397.7,0.9389,0.9779,140.5,96.4,0.544
11.66,32073.4,35154.6,0.3481,0.3793,140.5,96.4,0.544
11.68,32058.6,35056.1,0.2765,0.1369,140.5,96.4,0.544
11.7,32088.6,35114.3,0.4218,0.2802,140.5,96.4,0.544
11.72,31989.1,34992.3,-0.0602,-0.02,140.5,96.4,0.544
11.74,31950.5,34833.1,-0.2471,-0.412,140.5,96.4,0.544
11.76,31866.6,34813.4,-0.6535,-0.4606,140.5,96.4,0.544
11.78,31835.0,34715.1,-0.8066,-0.7024,140.5,96.4,0.544
11.8,31760.1,34698.7,-1.1692,-0.7429,140.5,96.4,0.544
11.82,31840.7,34692.8,-0.7788,-0.7573,140.5,96.4,0.544
11.84,31752.9,34522.9,-1.2043,-1.1756,140.5,96.4,0.544
11.86,31687.5,34546.6,-1.5208,-1.1174,140.5,96.4,0.544
11.88,31725.8,34435.6,-1.3355,-1.3906,140.5,96.4,0.544
11.9,31748.9,34584.3,-1.2236,-1.0246,140.5,96.4,0.544
11.92,31715.4,34545.7,-1.3858,-1.1196,140.5,96.4,0.544
11.94,31892.9,34864.6,-0.5259,-0.3346,140.5,96.4,0.544
11.96,32146.7,35247.4,0.7032,0.6079,140.5,96.4,0.544
11.98,32212.4,35546.5,1.0214,1.3441,140.5,96.4,0.544
12.0,32437.9,35765.7,2.1139,1.8839,140.5,96.4,0.544
12.02,32381.2,35754.1,1.8391,1.8552,140.5,96.4,0.544
12.04,32354.9,35640.5,1.7116,1.5755,140.5,96.4,0.544
12.06,32127.2,35432.7,0.609,1.064,140.5,96.4,0.544
12.08,32131.5,35153.3,0.6296,0.3763,140.5,96.4,0.544
12.1,32075.0,35174.7,0.3561,0.4289,140.5,96.4,0.544
12.12,31983.9,35023.9,-0.0852,0.0577,140.5,96.4,0.544
12.14,31942.0,35057.8,-0.2885,0.1413,140.5,96.4,0.544
12.16,31864.3,34864.0,-0.6644,-0.3359,140.5,96.4,0.544
12.18,31903.5,34871.5,-0.4747,-0.3175,140.5,96.4,0.544
12.2,31878.1,34723.6,-0.5977,-0.6815,140.5,96.4,0.544
12.22,31799.3,34704.1,-0.9793,-0.7297,140.5,96.4,0.544
12.24,31851.3,34644.5,-0.7274,-0.8763,140.5,96.4,0.544
12.26,31843.2,34584.1,-0.7669,-1.0249,140.5,96.4,0.544
12.28,31807.7,34578.7,-0.9388,-1.0382,140.5,96.4,0.544
12.3,31705.8,34458.1,-1.4321,-1.3351,140.5,96.4,0.544
12.32,31724.9,34506.1,-1.3396,-1.217,140.5,96.4,0.544
12.34,31754.9,34520.0,-1.1943,-1.1827,140.5,96.4,0.544
12.36,31893.2,34625.6,-0.5246,-0.9227,140.5,96.4,0.544
12.38,32122.0,35153.0,0.5839,0.3755,140.5,96.4,0.544
12.4,32192.9,35470.1,0.9271,1.156,140.5,96.4,0.544
12.42,32345.5,35805.7,1.6661,1.9822,140.5,96.4,0.544
12.44,32405.5,35732.0,1.9569,1.8008,140.5,96.4,0.544
12.46,32253.4,35529.0,1.2202,1.3011,140.5,96.4,0.544
12.48,32183.5,35401.7,0.8815,0.9878,140.5,96.4,0.544
12.5,32250.5,35334.9,1.2061,0.8233,140.5,96.4,0.544
12.52,32043.6,35201.6,0.2038,0.4952,140.5,96.4,0.544
12.54,31990.3,35057.3,-0.0544,0.1399,140.5,96.4,0.544
12.56,31959.5,35053.3,-0.2034,0.13,140.5,96.4,0.544
12.58,31970.6,34966.4,-0.1497,-0.084,140.5,96.4,0.544
12.6,31833.7,34900.4,-0.8127,-0.2464,140.5,96.4,0.544
12.62,31918.7,34657.0,-0.4009,-0.8455,140.5,96.4,0.544
12.64,31924.8,34683.0,-0.3715,-0.7815,140.5,96.4,0.544
12.66,31809.1,34650.9,-0.9321,-0.8606,140.5,96.4,0.544
12.68,31904.9,34739.0,-0.468,-0.6436,140.5,96.4,0.544
12.7,31878.5,34569.7,-0.5956,-1.0605,140.5,96.4,0.544
12.72,31813.6,34508.9,-0.9102,-1.2102,140.5,96.4,0.544
12.74,31721.3,34480.4,-1.3572,-1.2802,140.5,96.4,0.544
12.76,31715.4,34446.1,-1.3859,-1.3648,140.5,96.4,0.544
12.78,31813.6,34708.8,-0.9104,-0.7179,140.5,96.4,0.544
12.8,31937.4,35019.1,-0.3104,0.0459,140.5,96.4,0.544
12.82,32256.4,35327.8,1.2345,0.8057,140.5,96.4,0.544
12.84,32322.3,35654.3,1.5537,1.6096,140.5,96.4,0.544
12.86,32376.0,35803.7,1.814,1.9773,140.5,96.4,0.544
12.88,32355.3,35653.0,1.7138,1.6065,140.5,96.4,0.544
12.9,32286.8,35598.5,1.382,1.4723,140.5,96.4,0.544
12.92,32153.1,35331.6,0.7344,0.8152,140.5,96.4,0.544
12.94,32096.2,35251.2,0.4586,0.6173,140.5,96.4,0.544
12.96,32043.6,35133.8,0.2039,0.3284,140.5,96.4,0.544
12.98,32035.3,35047.1,0.1638,0.1148,140.5,96.4,0.544
13.0,32001.6,34986.8,0.0002,-0.0336,140.5,96.4,0.544
13.02,31954.8,34799.2,-0.2262,-0.4955,140.5,96.4,0.544
13.04,31867.1,34767.1,-0.6511,-0.5745,140.5,96.4,0.544
13.06,31798.2,34717.5,-0.9849,-0.6966,140.5,96.4,0.544
13.08,31824.1,34684.6,-0.8594,-0.7776,140.5,96.4,0.544
13.1,31856.2,34738.1,-0.7038,-0.646,140.5,96.4,0.544
13.12,31872.4,34639.8,-0.6254,-0.8878,140.5,96.4,0.544
13.14,31875.5,34618.9,-0.6102,-0.9393,140.5,96.4,0.544
13.16,31781.9,34394.0,-1.0636,-1.4929,140.5,96.4,0.544
13.18,31807.9,34415.5,-0.9378,-1.44,140.5,96.4,0.544
13.2,31789.1,34647.5,-1.0288,-0.869,140.5,96.4,0.544
13.22,31920.9,34835.4,-0.3905,-0.4064,140.5,96.4,0.544
13.24,32116.4,35172.7,0.5566,0.4241,140.5,96.4,0.544
13.26,32245.1,35602.0,1.1798,1.4809,140.5,96.4,0.544
13.28,32383.1,35786.3,1.8482,1.9346,140.5,96.4,0.544
13.3,32319.6,35721.2,1.5406,1.7743,140.5,96.4,0.544
13.32,32318.9,35602.5,1.5374,1.482,140.5,96.4,0.544
13.34,32281.8,35388.2,1.3577,0.9546,140.5,96.4,0.544
13.36,32091.0,35124.4,0.4333,0.305,140.5,96.4,0.544
13.38,31995.4,35141.4,-0.0294,0.347,140.5,96.4,0.544
13.4,32114.3,35071.9,0.5464,0.176,140.5,96.4,0.544
13.42,32056.8,35037.6,0.2676,0.0915,140.5,96.4,0.544
13.44,31950.2,34962.8,-0.2487,-0.0928,140.5,96.4,0.544
13.46,31819.4,34761.7,-0.882,-0.5878,140.5,96.4,0.544
13.48,31873.8,34789.3,-0.6185,-0.5199,140.5,96.4,0.544
13.5,31864.0,34673.2,-0.6663,-0.8056,140.5,96.4,0.544
13.52,31923.2,34687.9,-0.3792,-0.7694,140.5,96.4,0.544
13.54,31831.1,34576.1,-0.8255,-1.0446,140.5,96.4,0.544
13.56,31795.4,34590.1,-0.9985,-1.0101,140.5,96.4,0.544
13.58,31658.9,34509.4,-1.6594,-1.2088,140.5,96.4,0.544
13.6,31790.9,34485.2,-1.0201,-1.2685,140.5,96.4,0.544
13.62,31755.7,34559.2,-1.1904,-1.0864,140.5,96.4,0.544
13.64,31825.5,34714.9,-0.8526,-0.7029,140.5,96.4,0.544
13.66,32046.6,35136.3,0.2182,0.3343,140.5,96.4,0.544
13.68,32160.1,35450.0,0.768,1.1067,140.5,96.4,0.544
13.7,32353.1,35641.8,1.7031,1.5789,140.5,96.4,0.544
13.72,32403.1,35806.9,1.9452,1.9854,140.5,96.4,0.544
13.74,32358.9,35624.2,1.7313,1.5356,140.5,96.4,0.544
13.76,32180.7,35488.4,0.8681,1.2013,140.5,96.4,0.544
13.78,32149.9,35388.7,0.7185,0.9558,140.5,96.4,0.544
13.8,32088.8,35145.1,0.4231,0.3561,140.5,96.4,0.544
13.82,32073.0,35082.8,0.3461,0.2026,140.5,96.4,0.544
13.84,32052.5,35123.4,0.2469,0.3026,140.5,96.4,0.544
13.86,31985.8,35027.6,-0.0761,0.0667,140.5,96.4,0.544
13.88,32036.0,34812.9,0.1673,-0.4618,140.5,96.4,0.544
13.9,31831.8,34720.0,-0.8219,-0.6904,140.5,96.4,0.544
13.92,31846.9,34672.2,-0.7487,-0.8081,140.5,96.4,0.544
13.94,31914.8,34680.4,-0.4199,-0.788,140.5,96.4,0.544
13.96,31867.7,34625.6,-0.648,-0.9229,140.5,96.4,0.544
13.98,31819.3,34643.7,-0.8826,-0.8782,140.5,96.4,0.544
14.0,31697.0,34540.3,-1.4748,-1.1329,140.5,96.4,0.544
14.02,31717.3,34445.0,-1.3765,-1.3676,140.5,96.4,0.544
14.04,31685.4,34518.2,-1.5311,-1.1873,140.5,96.4,0.544
14.06,31823.8,34736.5,-0.8606,-0.6497,140.5,96.4,0.544
14.08,31923.3,34907.8,-0.3789,-0.228,140.5,96.4,0.544
14.1,32133.4,35288.3,0.6389,0.7085,140.5,96.4,0.544
14.12,32278.8,35673.0,1.3433,1.6557,140.5,96.4,0.544
14.14,32388.7,35830.3,1.8753,2.0429,140.5,96.4,0.544
14.16,32355.1,35628.8,1.7126,1.5468,140.5,96.4,0.544
14.18,32235.4,35497.1,1.1331,1.2226,140.5,96.4,0.544
14.2,32111.3,35389.3,0.5318,0.9572,140.5,96.4,0.544
14.22,32116.0,35130.0,0.5546,0.3188,140.5,96.4,0.544
14.24,32048.1,35151.5,0.2258,0.3717,140.5,96.4,0.544
14.26,32123.0,35145.7,0.5886,0.3576,140.5,96.4,0.544
14.28,31949.7,35056.4,-0.2509,0.1376,140.5,96.4,0.544
14.3,31951.4,34930.4,-0.2428,-0.1725,140.5,96.4,0.544
14.32,31877.2,34825.9,-0.6019,-0.4296,140.5,96.4,0.544
14.34,31787.2,34646.2,-1.0383,-0.8721,140.5,96.4,0.544
14.36,31822.4,34733.7,-0.8673,-0.6567,140.5,96.4,0.544
14.38,31935.8,34616.0,-0.3182,-0.9464,140.5,96.4,0.544
14.4,31834.4,34500.3,-0.8097,-1.2313,140.5,96.4,0.544
14.42,31838.5,34572.5,-0.7894,-1.0536,140.5,96.4,0.544
14.44,31762.0,34529.0,-1.1599,-1.1606,140.5,96.4,0.544
14.46,31766.5,34498.2,-1.1381,-1.2365,140.5,96.4,0.544
14.48,31801.5,34488.3,-0.9689,-1.2608,140.5,96.4,0.544
14.5,31933.4,34791.1,-0.3298,-0.5153,140.5,96.4,0.544
14.52,32104.3,35213.9,0.4981,0.5255,140.5,96.4,0.544
14.54,32225.9,35509.4,1.0869,1.2529,140.5,96.4,0.544
14.56,32298.0,35672.7,1.4362,1.6549,140.5,96.4,0.544
14.58,32284.9,35693.3,1.3729,1.7057,140.5,96.4,0.544
14.6,32311.5,35582.3,1.5017,1.4322,140.5,96.4,0.544
14.62,32103.3,35531.0,0.493,1.306,140.5,96.4,0.544
14.64,32010.8,35285.1,0.0452,0.7008,140.5,96.4,0.544
14.66,32029.6,35032.2,0.1359,0.0783,140.5,96.4,0.544
14.68,32055.8,35129.3,0.2631,0.3171,140.5,96.4,0.544
14.7,31966.7,35013.9,-0.1685,0.033,140.5,96.4,0.544
14.72,32025.6,34947.4,0.1165,-0.1306,140.5,96.4,0.544
14.74,31810.2,34844.2,-0.9268,-0.3847,140.5,96.4,0.544
14.76,31934.0,34709.9,-0.3272,-0.7154,140.5,96.4,0.544
14.78,31871.1,34620.7,-0.6316,-0.9348,140.5,96.4,0.544
14.8,31783.5,34709.4,-1.0558,-0.7166,140.5,96.4,0.544
14.82,31837.5,34624.3,-0.7943,-0.9259,140.5,96.4,0.544
14.84,31730.2,34570.8,-1.3143,-1.0576,140.5,96.4,0.544
14.86,31738.1,34518.0,-1.2759,-1.1878,140.5,96.4,0.544
14.88,31786.2,34505.7,-1.0431,-1.2179,140.5,96.4,0.544
14.9,31638.7,34503.2,-1.7574,-1.2242,140.5,96.4,0.544
14.92,31884.2,34749.3,-0.568,-0.6184,140.5,96.4,0.544
14.94,32075.8,35052.1,0.36,0.127,140.5,96.4,0.544
14.96,32183.1,35424.5,0.8798,1.0439,140.5,96.4,0.544
14.98,32329.2,35697.9,1.5873,1.7169,140.5,96.4,0.544
15.0,32393.8,35759.7,1.9004,1.869,140.5,96.4,0.544
15.02,32295.5,35630.9,1.424,1.552,140.5,96.4,0.544
15.04,32323.5,35467.0,1.5595,1.1486,140.5,96.4,0.544
15.06,32113.3,35210.1,0.5416,0.5161,140.5,96.4,0.544
15.08,32073.2,35098.1,0.347,0.2403,140.5,96.4,0.544
15.1,32046.3,35077.1,0.2168,0.1887,140.5,96.4,0.544
15.12,31991.6,35014.8,-0.0478,0.0353,140.5,96.4,0.544
15.14,31972.4,35029.4,-0.1411,0.0713,140.5,96.4,0.544
15.16,31933.7,35004.6,-0.3285,0.0101,140.5,96.4,0.544
15.18,31861.7,34765.2,-0.6772,-0.5793,140.5,96.4,0.544
15.2,31803.7,34619.1,-0.9581,-0.9387,140.5,96.4,0.544
15.22,31812.9,34669.6,-0.9135,-0.8145,140.5,96.4,0.544
15.24,31874.7,34599.1,-0.6142,-0.988,140.5,96.4,0.544
15.26,31824.4,34553.7,-0.8578,-1.0997,140.5,96.4,0.544
15.28,31788.9,34595.3,-1.0298,-0.9973,140.5,96.4,0.544
15.3,31730.5,34559.0,-1.3127,-1.0868,140.5,96.4,0.544
15.32,31737.5,34504.7,-1.2788,-1.2204,140.5,96.4,0.544
15.34,31869.6,34626.3,-0.6391,-0.9211,140.5,96.4,0.544
15.36,31984.2,34918.9,-0.084,-0.2009,140.5,96.4,0.544
15.38,32109.0,35215.3,0.5208,0.529,140.5,96.4,0.544
15.4,32310.6,35668.4,1.497,1.6443,140.5,96.4,0.544
15.42,32409.1,35805.3,1.9744,1.9813,140.5,96.4,0.544
15.44,32442.9,35700.2,2.1378,1.7226,140.5,96.4,0.544
15.46,32265.4,35574.1,1.2783,1.4122,140.5,96.4,0.544
15.48,32178.3,35400.5,0.8562,0.9848,140.5,96.4,0.544
15.5,32070.0,35196.7,0.3316,0.483,140.5,96.4,0.544
15.52,32128.6,35081.6,0.6155,0.1997,140.5,96.4,0.544
15.54,32014.6,35140.4,0.0636,0.3446,140.5,96.4,0.544
15.56,32045.8,35001.2,0.2143,0.0018,140.5,96.4,0.544
15.58,31926.5,34826.8,-0.3634,-0.4276,140.5,96.4,0.544
15.6,31894.4,34851.5,-0.5187,-0.3666,140.5,96.4,0.544
15.62,31835.2,34728.6,-0.8056,-0.6693,140.5,96.4,0.544
15.64,31865.8,34675.5,-0.6571,-0.8,140.5,96.4,0.544
15.66,31920.2,34602.3,-0.3938,-0.9803,140.5,96.4,0.544
15.68,31828.9,34745.9,-0.8359,-0.6267,140.5,96.4,0.544
15.7,31822.0,34583.3,-0.8697,-1.0269,140.5,96.4,0.544
15.72,31715.5,34489.9,-1.3853,-1.2569,140.5,96.4,0.544
15.74,31713.5,34453.5,-1.3951,-1.3465,140.5,96.4,0.544
15.76,31774.5,34549.1,-1.0997,-1.1111,140.5,96.4,0.544
15.78,31968.4,34817.9,-0.1602,-0.4495,140.5,96.4,0.544
15.8,32000.6,35133.4,-0.0045,0.3273,140.5,96.4,0.544
15.82,32240.5,35562.2,1.1577,1.3829,140.5,96.4,0.544
15.84,32309.0,35632.4,1.4893,1.5557,140.5,96.4,0.544
15.86,32405.2,35701.4,1.9552,1.7257,140.5,96.4,0.544
15.88,32254.2,35536.7,1.224,1.3201,140.5,96.4,0.544
15.9,32214.2,35389.2,1.0301,0.9569,140.5,96.4,0.544
15.92,32125.1,35291.2,0.5987,0.7158,140.5,96.4,0.544
15.94,32010.2,35110.0,0.0422,0.2696,140.5,96.4,0.544
15.96,32042.8,35021.6,0.2001,0.0521,140.5,96.4,0.544
15.98,32046.0,34959.7,0.2154,-0.1003,140.5,96.4,0.544
16.0,32086.2,34905.3,0.4105,-0.2344,140.5,96.4,0.544
16.02,31941.0,34900.0,-0.2932,-0.2473,140.5,96.4,0.544
16.04,31884.8,34769.9,-0.5655,-0.5675,140.5,96.4,0.544
16.06,31758.7,34597.2,-1.1759,-0.9927,140.5,96.4,0.544
16.08,31892.5,34664.9,-0.5282,-0.826,140.5,96.4,0.544
16.1,31751.6,34712.9,-1.2106,-0.7079,140.5,96.4,0.544
16.12,31881.1,34606.4,-0.5834,-0.9701,140.5,96.4,0.544
16.14,31770.9,34498.4,-1.1168,-1.2359,140.5,96.4,0.544
16.16,31663.8,34582.9,-1.6356,-1.0279,140.5,96.4,0.544
16.18,31723.2,34502.7,-1.3482,-1.2253,140.5,96.4,0.544
16.2,31771.8,34652.3,-1.1126,-0.857,140.5,96.4,0.544
16.22,31982.2,35058.8,-0.0935,0.1436,140.5,96.4,0.544
16.24,32128.0,35395.9,0.6126,0.9735,140.5,96.4,0.544
16.26,32402.0,35635.0,1.94,1.5621,140.5,96.4,0.544
16.28,32383.6,35883.9,1.8508,2.1749,140.5,96.4,0.544
16.3,32275.7,35730.8,1.3282,1.798,140.5,96.4,0.544
16.32,32210.7,35463.0,1.0135,1.1387,140.5,96.4,0.544
16.34,32103.3,35245.3,0.493,0.6027,140.5,96.4,0.544
16.36,32065.3,35236.9,0.3088,0.582,140.5,96.4,0.544
16.38,32044.1,35097.5,0.2063,0.2389,140.5,96.4,0.544
16.4,31939.4,35096.2,-0.301,0.2357,140.5,96.4,0.544
16.42,32064.9,34987.2,0.3068,-0.0326,140.5,96.4,0.544
16.44,31915.9,34887.1,-0.4146,-0.279,140.5,96.4,0.544
16.46,31922.4,34776.5,-0.3833,-0.5514,140.5,96.4,0.544
16.48,31848.0,34719.3,-0.7437,-0.6921,140.5,96.4,0.544
16.5,31854.3,34719.1,-0.713,-0.6926,140.5,96.4,0.544
16.52,31768.9,34651.5,-1.1269,-0.8591,140.5,96.4,0.544
16.54,31786.8,34628.7,-1.0402,-0.9152,140.5,96.4,0.544
16.56,31765.3,34526.1,-1.1439,-1.1677,140.5,96.4,0.544
16.58,31677.2,34470.9,-1.5709,-1.3037,140.5,96.4,0.544
16.6,31716.5,34530.3,-1.3805,-1.1575,140.5,96.4,0.544
16.62,31728.5,34622.5,-1.3224,-0.9305,140.5,96.4,0.544
16.64,32053.1,35015.5,0.2501,0.0369,140.5,96.4,0.544
16.66,32168.3,35246.2,0.8079,0.605,140.5,96.4,0.544
16.68,32253.3,35646.1,1.2196,1.5895,140.5,96.4,0.544
16.7,32341.1,35751.3,1.6448,1.8485,140.5,96.4,0.544
16.72,32349.4,35599.5,1.6853,1.4747,140.5,96.4,0.544
16.74,32297.4,35474.3,1.433,1.1666,140.5,96.4,0.544
16.76,32090.5,35327.9,0.4309,0.8061,140.5,96.4,0.544
16.78,32148.0,35221.0,0.7095,0.543,140.5,96.4,0.544
16.8,32116.3,35180.1,0.5561,0.4422,140.5,96.4,0.544
16.82,32102.1,35056.3,0.4872,0.1375,140.5,96.4,0.544
16.84,32064.6,35054.2,0.3055,0.1323,140.5,96.4,0.544
16.86,31956.3,34835.4,-0.2191,-0.4063,140.5,96.4,0.544
16.88,31926.9,34777.5,-0.3613,-0.5489,140.5,96.4,0.544
16.9,31863.5,34752.7,-0.6683,-0.61,140.5,96.4,0.544
16.92,31855.9,34614.2,-0.7051,-0.9509,140.5,96.4,0.544
16.94,31902.9,34595.6,-0.4776,-0.9968,140.5,96.4,0.544
16.96,31831.8,34623.5,-0.8221,-0.9279,140.5,96.4,0.544
16.98,31846.2,34553.6,-0.7524,-1.1,140.5,96.4,0.544
17.0,31731.0,34510.8,-1.3104,-1.2054,140.5,96.4,0.544
17.02,31661.7,34406.2,-1.6458,-1.4629,140.5,96.4,0.544
17.04,31777.2,34632.8,-1.0866,-0.9052,140.5,96.4,0.544
17.06,31918.3,34746.9,-0.4032,-0.6241,140.5,96.4,0.544
17.08,32084.6,35105.4,0.4025,0.2583,140.5,96.4,0.544
17.1,32267.2,35450.4,1.2872,1.1075,140.5,96.4,0.544
17.12,32313.8,35740.9,1.5129,1.8227,140.5,96.4,0.544
17.14,32372.8,35793.6,1.7986,1.9527,140.5,96.4,0.544
17.16,32235.2,35593.9,1.132,1.4608,140.5,96.4,0.544
17.18,32198.5,35424.9,0.9542,1.0449,140.5,96.4,0.544
17.2,32161.7,35272.5,0.7757,0.6696,140.5,96.4,0.544
17.22,32015.7,35039.2,0.0686,0.0953,140.5,96.4,0.544
17.24,32003.0,35054.7,0.007,0.1335,140.5,96.4,0.544
17.26,32019.9,34995.0,0.089,-0.0133,140.5,96.4,0.544
17.28,32033.1,34849.5,0.153,-0.3717,140.5,96.4,0.544
17.3,31889.7,34889.5,-0.5414,-0.2731,140.5,96.4,0.544
17.32,31817.6,34730.6,-0.891,-0.6644,140.5,96.4,0.544
17.34,31854.7,34643.1,-0.7112,-0.8797,140.5,96.4,0.544
17.36,31818.9,34762.6,-0.8844,-0.5857,140.5,96.4,0.544
17.38,31844.3,34579.4,-0.7616,-1.0366,140.5,96.4,0.544
17.4,31887.4,34616.1,-0.5526,-0.9463,140.5,96.4,0.544
17.42,31740.9,34445.8,-1.2621,-1.3656,140.5,96.4,0.544
17.44,31782.3,34517.6,-1.0619,-1.1887,140.5,96.4,0.544
17.46,31787.4,34519.7,-1.0369,-1.1835,140.5,96.4,0.544
17.48,31824.4,34761.7,-0.8579,-0.5879,140.5,96.4,0.544
17.5,31971.6,35009.6,-0.1451,0.0224,140.5,96.4,0.544
17.52,32130.8,35483.1,0.6261,1.1882,140.5,96.4,0.544
17.54,32286.4,35622.9,1.3798,1.5324,140.5,96.4,0.544
17.56,32427.7,35766.0,2.0644,1.8846,140.5,96.4,0.544
17.58,32242.3,35683.1,1.1662,1.6806,140.5,96.4,0.544
17.6,32254.5,35408.4,1.2254,1.0043,140.5,96.4,0.544
17.62,32171.7,35316.5,0.8243,0.7781,140.5,96.4,0.544
17.64,32029.8,35173.6,0.1369,0.4262,140.5,96.4,0.544
17.66,32109.3,35091.3,0.5219,0.2236,140.5,96.4,0.544
17.68,32115.5,35089.5,0.5521,0.2191,140.5,96.4,0.544
17.7,32002.3,35003.9,0.0038,0.0085,140.5,96.4,0.544
17.72,31936.3,34861.9,-0.316,-0.341,140.5,96.4,0.544
17.74,31857.2,34822.9,-0.6988,-0.4372,140.5,96.4,0.544
17.76,31824.4,34699.7,-0.8578,-0.7404,140.5,96.4,0.544
17.78,31800.4,34732.8,-0.9741,-0.659,140.5,96.4,0.544
17.8,31899.0,34694.2,-0.4965,-0.7541,140.5,96.4,0.544
17.82,31815.7,34685.9,-0.9002,-0.7745,140.5,96.4,0.544
17.84,31705.1,34545.1,-1.4356,-1.1209,140.5,96.4,0.544
17.86,31789.2,34386.6,-1.0285,-1.5113,140.5,96.4,0.544
17.88,31852.1,34470.6,-0.7238,-1.3043,140.5,96.4,0.544
17.9,31893.8,34636.2,-0.5219,-0.8967,140.5,96.4,0.544
17.92,32025.3,34871.0,0.1151,-0.3187,140.5,96.4,0.544
17.94,32093.4,35195.9,0.4452,0.4812,140.5,96.4,0.544
17.96,32244.5,35598.5,1.1768,1.4723,140.5,96.4,0.544
17.98,32367.1,35711.9,1.7707,1.7515,140.5,96.4,0.544
18.0,32258.3,35724.0,1.2439,1.7812,140.5,96.4,0.544
18.02,32334.1,35513.5,1.6111,1.2631,140.5,96.4,0.544
18.04,32187.4,35418.0,0.9005,1.0279,140.5,96.4,0.544
18.06,32048.9,35271.3,0.2295,0.6667,140.5,96.4,0.544
18.08,31976.0,35175.7,-0.1237,0.4313,140.5,96.4,0.544
18.1,32103.0,35065.8,0.4915,0.1609,140.5,96.4,0.544
18.12,31970.3,35026.2,-0.1514,0.0635,140.5,96.4,0.544
18.14,32010.5,34886.9,0.0434,-0.2796,140.5,96.4,0.544
18.16,31835.6,34869.2,-0.8039,-0.3232,140.5,96.4,0.544
18.18,31758.9,34679.0,-1.1749,-0.7915,140.5,96.4,0.544
18.2,31849.2,34694.1,-0.7378,-0.7541,140.5,96.4,0.544
18.22,31783.4,34707.2,-1.0563,-0.722,140.5,96.4,0.544
18.24,31936.4,34577.4,-0.3154,-1.0414,140.5,96.4,0.544
18.26,31744.5,34539.2,-1.245,-1.1355,140.5,96.4,0.544
18.28,31757.3,34522.2,-1.183,-1.1774,140.5,96.4,0.544
18.3,31727.0,34447.2,-1.3295,-1.3619,140.5,96.4,0.544
18.32,31659.3,34564.1,-1.6576,-1.0742,140.5,96.4,0.544
18.34,31880.0,34752.5,-0.5885,-0.6105,140.5,96.4,0.544
18.36,32067.3,35172.6,0.3186,0.4238,140.5,96.4,0.544
18.38,32286.6,35510.6,1.3811,1.2559,140.5,96.4,0.544
18.4,32404.6,35671.4,1.9527,1.6517,140.5,96.4,0.544
18.42,32422.9,35723.6,2.0411,1.7801,140.5,96.4,0.544
18.44,32258.6,35653.3,1.2452,1.6072,140.5,96.4,0.544
18.46,32214.7,35518.8,1.0325,1.276,140.5,96.4,0.544
18.48,32124.3,35254.9,0.5948,0.6264,140.5,96.4,0.544
18.5,32129.3,35138.8,0.6191,0.3406,140.5,96.4,0.544
18.52,32011.4,35116.6,0.0477,0.2859,140.5,96.4,0.544
18.54,31973.0,35027.4,-0.1383,0.0664,140.5,96.4,0.544
18.56,32038.0,34929.6,0.177,-0.1745,140.5,96.4,0.544
18.58,31979.6,34877.7,-0.1062,-0.3022,140.5,96.4,0.544
18.6,31945.0,34659.3,-0.2736,-0.84,140.5,96.4,0.544
18.62,31868.9,34675.1,-0.6426,-0.8009,140.5,96.4,0.544
18.64,31808.6,34645.9,-0.9345,-0.8728,140.5,96.4,0.544
18.66,31805.6,34691.3,-0.9491,-0.761,140.5,96.4,0.544
18.68,31768.7,34660.5,-1.1277,-0.8369,140.5,96.4,0.544
18.7,31717.8,34509.2,-1.3741,-1.2094,140.5,96.4,0.544
18.72,31675.7,34442.7,-1.5781,-1.3732,140.5,96.4,0.544
18.74,31758.9,34523.0,-1.175,-1.1755,140.5,96.4,0.544
18.76,31880.1,34666.4,-0.5878,-0.8223,140.5,96.4,0.544
18.78,32035.6,35128.7,0.165,0.3158,140.5,96.4,0.544
18.8,32261.1,35483.1,1.2574,1.1882,140.5,96.4,0.544
18.82,32348.0,35641.6,1.6784,1.5784,140.5,96.4,0.544
18.84,32436.1,35763.0,2.1049,1.8772,140.5,96.4,0.544
18.86,32413.2,35653.9,1.9943,1.6085,140.5,96.4,0.544
18.88,32303.6,35567.4,1.463,1.3957,140.5,96.4,0.544
18.9,32118.8,35293.7,0.5681,0.7219,140.5,96.4,0.544
18.92,32062.2,35165.1,0.2938,0.4053,140.5,96.4,0.544
18.94,32099.7,35060.8,0.4758,0.1486,140.5,96.4,0.544
18.96,32052.8,35038.1,0.2482,0.0926,140.5,96.4,0.544
18.98,31946.7,35056.0,-0.2655,0.1366,140.5,96.4,0.544
19.0,31889.7,34890.5,-0.5415,-0.2706,140.5,96.4,0.544
19.02,31908.9,34859.3,-0.4487,-0.3475,140.5,96.4,0.544
19.04,31871.0,34695.7,-0.6322,-0.7503,140.5,96.4,0.544
19.06,31814.8,34647.0,-0.9042,-0.8702,140.5,96.4,0.544
19.08,31873.0,34704.0,-0.6225,-0.7299,140.5,96.4,0.544
19.1,31814.2,34676.2,-0.9071,-0.7983,140.5,96.4,0.544
19.12,31833.5,34443.3,-0.8138,-1.3716,140.5,96.4,0.544
19.14,31754.3,34541.4,-1.1972,-1.1302,140.5,96.4,0.544
19.16,31856.3,34479.2,-0.7035,-1.2832,140.5,96.4,0.544
19.18,31878.7,34642.8,-0.595,-0.8804,140.5,96.4,0.544
19.2,31952.5,34935.8,-0.2374,-0.1591,140.5,96.4,0.544
19.22,32204.6,35224.8,0.9838,0.5522,140.5,96.4,0.544
19.24,32247.1,35671.9,1.1895,1.653,140.5,96.4,0.544
19.26,32370.7,35726.0,1.7884,1.7861,140.5,96.4,0.544
19.28,32372.1,35848.6,1.7951,2.0881,140.5,96.4,0.544
19.3,32229.3,35530.1,1.1032,1.3038,140.5,96.4,0.544
19.32,32243.3,35449.1,1.1713,1.1046,140.5,96.4,0.544
19.34,32175.7,35232.2,0.8439,0.5706,140.5,96.4,0.544
19.36,32081.0,35116.0,0.3851,0.2844,140.5,96.4,0.544
19.38,32044.8,35071.6,0.2095,0.1752,140.5,96.4,0.544
19.4,31997.1,35008.3,-0.0214,0.0192,140.5,96.4,0.544
19.42,32047.8,34860.0,0.2244,-0.3459,140.5,96.4,0.544
19.44,31926.7,34825.2,-0.3624,-0.4314,140.5,96.4,0.544
19.46,31774.7,34770.3,-1.0987,-0.5667,140.5,96.4,0.544
19.48,31804.9,34686.0,-0.9521,-0.7742,140.5,96.4,0.544
19.5,31893.5,34708.5,-0.5232,-0.7187,140.5,96.4,0.544
19.52,31826.2,34596.9,-0.849,-0.9934,140.5,96.4,0.544
19.54,31727.8,34517.7,-1.3256,-1.1883,140.5,96.4,0.544
19.56,31713.1,34481.7,-1.3968,-1.2771,140.5,96.4,0.544
19.58,31603.3,34482.1,-1.929,-1.2761,140.5,96.4,0.544
19.6,31887.9,34470.5,-0.5504,-1.3046,140.5,96.4,0.544
19.62,31957.4,34873.7,-0.2138,-0.312,140.5,96.4,0.544
19.64,32097.3,35167.3,0.4641,0.4107,140.5,96.4,0.544
19.66,32270.3,35499.4,1.3017,1.2284,140.5,96.4,0.544
19.68,32412.4,35720.6,1.9902,1.773,140.5,96.4,0.544
19.7,32360.2,35687.6,1.7374,1.6915,140.5,96.4,0.544
19.72,32341.8,35622.0,1.6482,1.5302,140.5,96.4,0.544
19.74,32263.1,35452.1,1.267,1.1118,140.5,96.4,0.544
19.76,32165.6,35180.7,0.795,0.4437,140.5,96.4,0.544
19.78,32021.2,35167.1,0.0955,0.4103,140.5,96.4,0.544
19.8,32085.0,35144.9,0.4044,0.3555,140.5,96.4,0.544
19.82,32016.9,35066.7,0.0746,0.1631,140.5,96.4,0.544
19.84,31897.1,35034.6,-0.5059,0.0841,140.5,96.4,0.544
19.86,31949.8,34805.0,-0.2503,-0.4811,140.5,96.4,0.544
19.88,31947.0,34665.2,-0.2638,-0.8254,140.5,96.4,0.544
19.9,31752.7,34709.3,-1.2052,-0.7168,140.5,96.4,0.544
19.92,31865.6,34690.7,-0.6583,-0.7626,140.5,96.4,0.544
19.94,31862.6,34653.8,-0.6727,-0.8535,140.5,96.4,0.544
19.96,31855.4,34670.1,-0.708,-0.8133,140.5,96.4,0.544
19.98,31778.4,34463.5,-1.0805,-1.3219,140.5,96.4,0.544
20.0,31750.9,34528.3,-1.214,-1.1624,140.5,96.4,0.544
20.02,31690.1,34431.5,-1.5084,-1.4006,140.5,96.4,0.544
20.04,31891.9,34752.0,-0.5308,-0.6117,140.5,96.4,0.544
20.06,32027.8,35077.8,0.1273,0.1903,140.5,96.4,0.544
20.08,32181.6,35409.3,0.8724,1.0066,140.5,96.4,0.544
20.1,32279.4,35735.4,1.3458,1.8092,140.5,96.4,0.544
20.12,32417.7,35777.0,2.016,1.9116,140.5,96.4,0.544
20.14,32398.8,35699.5,1.9243,1.7208,140.5,96.4,0.544
20.16,32153.7,35455.7,0.7373,1.1208,140.5,96.4,0.544
20.18,32203.8,35319.4,0.98,0.7851,140.5,96.4,0.544
20.2,32083.2,35154.4,0.3958,0.3789,140.5,96.4,0.544
20.22,32107.1,35087.4,0.5115,0.214,140.5,96.4,0.544
20.24,32032.4,35116.2,0.1494,0.2849,140.5,96.4,0.544
20.26,32079.2,34962.2,0.3762,-0.0942,140.5,96.4,0.544
20.28,31953.4,34895.0,-0.2332,-0.2596,140.5,96.4,0.544
20.3,31882.7,34703.8,-0.5755,-0.7304,140.5,96.4,0.544
20.32,31836.0,34704.9,-0.8016,-0.7276,140.5,96.4,0.544
20.34,31791.0,34607.8,-1.0199,-0.9666,140.5,96.4,0.544
20.36,31867.6,34712.5,-0.6486,-0.7089,140.5,96.4,0.544
20.38,31807.3,34629.3,-0.9408,-0.9138,140.5,96.4,0.544
20.4,31712.0,34567.7,-1.4022,-1.0654,140.5,96.4,0.544
20.42,31814.8,34506.4,-0.9046,-1.2162,140.5,96.4,0.544
20.44,31737.7,34393.9,-1.2778,-1.4932,140.5,96.4,0.544
20.46,31867.0,34640.9,-0.6513,-0.8852,140.5,96.4,0.544
20.48,31964.2,34893.4,-0.1808,-0.2637,140.5,96.4,0.544
20.5,32119.4,35213.3,0.5711,0.524,140.5,96.4,0.544
20.52,32318.0,35574.1,1.5329,1.4121,140.5,96.4,0.544
20.54,32290.8,35739.6,1.4014,1.8195,140.5,96.4,0.544
20.56,32319.9,35754.7,1.542,1.8568,140.5,96.4,0.544
20.58,32249.1,35540.2,1.1992,1.3287,140.5,96.4,0.544
20.6,32248.4,35298.4,1.196,0.7335,140.5,96.4,0.544
20.62,32169.2,35266.2,0.8122,0.6541,140.5,96.4,0.544
20.64,32112.5,35192.8,0.5377,0.4734,140.5,96.4,0.544
20.66,32041.4,35077.4,0.1932,0.1894,140.5,96.4,0.544
20.68,32118.5,35067.1,0.5667,0.164,140.5,96.4,0.544
20.7,32033.4,34838.7,0.1547,-0.3981,140.5,96.4,0.544
20.72,31904.1,34725.6,-0.4716,-0.6768,140.5,96.4,0.544
20.74,31890.4,34739.7,-0.538,-0.6419,140.5,96.4,0.544
20.76,31879.5,34634.9,-0.5912,-0.9,140.5,96.4,0.544
20.78,31800.9,34595.5,-0.9715,-0.9969,140.5,96.4,0.544
20.8,31782.0,34635.1,-1.0631,-0.8993,140.5,96.4,0.544
20.82,31724.3,34643.8,-1.3425,-0.878,140.5,96.4,0.544
20.84,31824.7,34549.8,-0.8562,-1.1094,140.5,96.4,0.544
20.86,31736.6,34433.0,-1.2831,-1.397,140.5,96.4,0.544
20.88,31792.9,34505.1,-1.0106,-1.2194,140.5,96.4,0.544
20.9,31910.7,34703.2,-0.44,-0.7317,140.5,96.4,0.544
20.92,32037.6,35060.7,0.1748,0.1482,140.5,96.4,0.544
20.94,32186.2,35492.4,0.8944,1.211,140.5,96.4,0.544
20.96,32371.1,35741.0,1.7903,1.8231,140.5,96.4,0.544
20.98,32376.9,35738.3,1.8185,1.8163,140.5,96.4,0.544
21.0,32373.4,35659.1,1.8013,1.6214,140.5,96.4,0.544
21.02,32283.1,35436.7,1.3641,1.0739,140.5,96.4,0.544
21.04,32173.6,35239.0,0.8336,0.5872,140.5,96.4,0.544
21.06,32064.5,35139.6,0.3052,0.3425,140.5,96.4,0.544
21.08,32085.4,35108.0,0.4064,0.2648,140.5,96.4,0.544
21.1,32093.9,35029.2,0.4475,0.0708,140.5,96.4,0.544
21.12,31977.4,35018.0,-0.1166,0.0431,140.5,96.4,0.544
21.14,31953.6,34699.1,-0.2319,-0.7419,140.5,96.4,0.544
21.16,31927.2,34780.5,-0.3599,-0.5415,140.5,96.4,0.544
21.18,31784.9,34671.6,-1.0492,-0.8096,140.5,96.4,0.544
21.2,31813.7,34680.7,-0.9099,-0.7871,140.5,96.4,0.544
21.22,31874.8,34630.9,-0.6139,-0.9099,140.5,96.4,0.544
21.24,31727.9,34600.1,-1.3252,-0.9856,140.5,96.4,0.544
21.26,31854.1,34438.4,-0.714,-1.3836,140.5,96.4,0.544
21.28,31726.0,34470.9,-1.3344,-1.3036,140.5,96.4,0.544
21.3,31722.6,34498.0,-1.3509,-1.2369,140.5,96.4,0.544
21.32,31889.7,34714.6,-0.5416,-0.7038,140.5,96.4,0.544
21.34,31952.1,34956.4,-0.2395,-0.1086,140.5,96.4,0.544
21.36,32261.3,35408.3,1.2581,1.004,140.5,96.4,0.544
21.38,32407.0,35590.5,1.9642,1.4524,140.5,96.4,0.544
21.4,32370.0,35716.8,1.7851,1.7635,140.5,96.4,0.544
21.42,32373.7,35713.6,1.8027,1.7555,140.5,96.4,0.544
21.44,32288.3,35485.0,1.3889,1.1928,140.5,96.4,0.544
21.46,32165.1,35285.0,0.7924,0.7005,140.5,96.4,0.544
21.48,32059.3,35151.3,0.2798,0.3713,140.5,96.4,0.544
21.5,32039.4,35153.7,0.1837,0.3773,140.5,96.4,0.544
21.52,32023.1,35105.0,0.1047,0.2572,140.5,96.4,0.544
21.54,31990.5,35027.4,-0.0534,0.0662,140.5,96.4,0.544
21.56,31863.8,34841.7,-0.6671,-0.3908,140.5,96.4,0.544
21.58,31973.6,34724.4,-0.1351,-0.6795,140.5,96.4,0.544
21.6,31879.1,34767.8,-0.5927,-0.5728,140.5,96.4,0.544
21.62,31827.0,34662.1,-0.8455,-0.8329,140.5,96.4,0.544
21.64,31764.3,34682.6,-1.149,-0.7826,140.5,96.4,0.544
21.66,31879.7,34633.6,-0.5901,-0.9032,140.5,96.4,0.544
21.68,31770.0,34639.6,-1.1216,-0.8883,140.5,96.4,0.544
21.7,31755.6,34419.2,-1.1912,-1.4308,140.5,96.4,0.544
21.72,31711.6,34452.8,-1.404,-1.3482,140.5,96.4,0.544
21.74,31912.9,34608.3,-0.4291,-0.9655,140.5,96.4,0.544
21.76,31964.4,34879.6,-0.1799,-0.2974,140.5,96.4,0.544
21.78,32120.9,35226.7,0.5783,0.5569,140.5,96.4,0.544
21.8,32291.9,35556.2,1.4067,1.368,140.5,96.4,0.544
21.82,32416.6,35683.1,2.0106,1.6806,140.5,96.4,0.544
21.84,32375.5,35732.4,1.8114,1.8018,140.5,96.4,0.544
21.86,32277.1,35627.4,1.3349,1.5434,140.5,96.4,0.544
21.88,32188.6,35412.7,0.9063,1.0148,140.5,96.4,0.544
21.9,32148.3,35270.3,0.7109,0.6642,140.5,96.4,0.544
21.92,31988.8,35162.0,-0.0617,0.3976,140.5,96.4,0.544
21.94,31995.7,35105.7,-0.0279,0.259,140.5,96.4,0.544
21.96,32035.8,35001.0,0.1662,0.0013,140.5,96.4,0.544
21.98,31909.3,34858.5,-0.4468,-0.3495,140.5,96.4,0.544
22.0,31865.3,34788.0,-0.6596,-0.523,140.5,96.4,0.544
22.02,31892.4,34694.5,-0.5285,-0.7533,140.5,96.4,0.544
22.04,31899.3,34701.6,-0.4952,-0.7358,140.5,96.4,0.544
22.06,31865.8,34750.5,-0.6572,-0.6152,140.5,96.4,0.544
22.08,31864.7,34578.2,-0.6629,-1.0395,140.5,96.4,0.544
22.1,31801.3,34573.0,-0.9698,-1.0524,140.5,96.4,0.544
22.12,31756.2,34470.3,-1.1884,-1.3051,140.5,96.4,0.544
22.14,31790.3,34435.6,-1.0229,-1.3906,140.5,96.4,0.544
22.16,31839.5,34542.2,-0.7846,-1.1282,140.5,96.4,0.544
22.18,31912.4,34761.0,-0.4317,-0.5896,140.5,96.4,0.544
22.2,32076.0,35089.3,0.361,0.2187,140.5,96.4,0.544
22.22,32162.7,35436.8,0.781,1.0743,140.5,96.4,0.544
22.24,32375.3,35665.3,1.8103,1.6367,140.5,96.4,0.544
22.26,32288.8,35824.0,1.3915,2.0275,140.5,96.4,0.544
22.28,32388.1,35738.4,1.8727,1.8167,140.5,96.4,0.544
22.3,32210.5,35465.9,1.0125,1.1459,140.5,96.4,0.544
22.32,32211.6,35276.4,1.0177,0.6792,140.5,96.4,0.544
22.34,32037.0,35183.8,0.1721,0.4514,140.5,96.4,0.544
22.36,32132.7,35077.2,0.6353,0.189,140.5,96.4,0.544
22.38,31967.3,34983.5,-0.1659,-0.0418,140.5,96.4,0.544
22.4,32015.4,34957.8,0.0673,-0.105,140.5,96.4,0.544
22.42,31947.0,34947.6,-0.2642,-0.1301,140.5,96.4,0.544
22.44,31937.0,34684.6,-0.3125,-0.7776,140.5,96.4,0.544
22.46,31875.5,34681.9,-0.6102,-0.7843,140.5,96.4,0.544
22.48,31796.1,34679.7,-0.9948,-0.7897,140.5,96.4,0.544
22.5,31826.4,34696.8,-0.8482,-0.7475,140.5,96.4,0.544
22.52,31786.3,34606.6,-1.0425,-0.9697,140.5,96.4,0.544
22.54,31777.5,34548.2,-1.0849,-1.1134,140.5,96.4,0.544
22.56,31735.5,34419.9,-1.2883,-1.4291,140.5,96.4,0.544
22.58,31666.4,34509.0,-1.6233,-1.21,140.5,96.4,0.544
22.6,31841.7,34677.3,-0.774,-0.7955,140.5,96.4,0.544
22.62,31972.4,35075.0,-0.1409,0.1836,140.5,96.4,0.544
22.64,32237.8,35436.2,1.1443,1.0726,140.5,96.4,0.544
22.66,32325.4,35600.7,1.5689,1.4778,140.5,96.4,0.544
22.68,32310.6,35702.1,1.4971,1.7273,140.5,96.4,0.544
22.7,32313.6,35682.0,1.5119,1.6778,140.5,96.4,0.544
22.72,32310.0,35535.0,1.4943,1.3159,140.5,96.4,0.544
22.74,32172.7,35287.5,0.829,0.7066,140.5,96.4,0.544
22.76,32082.2,35276.5,0.3909,0.6796,140.5,96.4,0.544
22.78,32055.4,35169.5,0.2609,0.416,140.5,96.4,0.544
22.8,31938.7,35058.3,-0.3042,0.1424,140.5,96.4,0.544
22.82,31922.6,35012.1,-0.3823,0.0287,140.5,96.4,0.544
22.84,32007.4,34963.5,0.0286,-0.0909,140.5,96.4,0.544
22.86,31952.5,34709.2,-0.2375,-0.717,140.5,96.4,0.544
22.88,31862.0,34709.4,-0.6757,-0.7165,140.5,96.4,0.544
22.9,31930.1,34621.8,-0.3458,-0.9321,140.5,96.4,0.544
22.92,31784.3,34714.4,-1.0519,-0.7041,140.5,96.4,0.544
22.94,31874.5,34563.4,-0.615,-1.0759,140.5,96.4,0.544
22.96,31680.4,34603.5,-1.5552,-0.9771,140.5,96.4,0.544
22.98,31813.9,34473.6,-0.9085,-1.2971,140.5,96.4,0.544
23.0,31765.2,34473.4,-1.1448,-1.2975,140.5,96.4,0.544
23.02,31770.8,34602.8,-1.1174,-0.9789,140.5,96.4,0.544
23.04,31999.8,34790.1,-0.0082,-0.5178,140.5,96.4,0.544
23.06,32128.0,35257.4,0.6125,0.6326,140.5,96.4,0.544
23.08,32263.2,35483.3,1.2674,1.1886,140.5,96.4,0.544
23.1,32379.4,35816.2,1.8304,2.0081,140.5,96.4,0.544
23.12,32366.1,35753.5,1.7661,1.8538,140.5,96.4,0.544
23.14,32294.8,35523.1,1.4205,1.2866,140.5,96.4,0.544
23.16,32265.1,35387.9,1.2767,0.9539,140.5,96.4,0.544
23.18,32145.6,35190.7,0.6979,0.4683,140.5,96.4,0.544
23.2,32115.3,35130.7,0.551,0.3205,140.5,96.4,0.544
23.22,32160.8,35128.8,0.7718,0.316,140.5,96.4,0.544
23.24,31989.9,34985.3,-0.0562,-0.0374,140.5,96.4,0.544
23.26,31981.7,34994.5,-0.096,-0.0146,140.5,96.4,0.544
23.28,31897.5,34769.6,-0.5038,-0.5683,140.5,96.4,0.544
23.3,31834.3,34754.5,-0.8101,-0.6056,140.5,96.4,0.544
23.32,31779.3,34641.0,-1.0766,-0.8848,140.5,96.4,0.544
23.34,31802.8,34662.3,-0.9625,-0.8325,140.5,96.4,0.544
23.36,31771.4,34608.5,-1.1145,-0.965,140.5,96.4,0.544
23.38,31758.9,34632.6,-1.175,-0.9057,140.5,96.4,0.544
23.4,31776.8,34498.9,-1.0883,-1.2347,140.5,96.4,0.544
23.42,31735.0,34451.0,-1.2907,-1.3526,140.5,96.4,0.544
23.44,31799.0,34642.1,-0.9809,-0.8821,140.5,96.4,0.544
23.46,31789.8,34686.0,-1.0253,-0.7741,140.5,96.4,0.544
23.48,32033.0,35091.3,0.1526,0.2236,140.5,96.4,0.544
23.5,32329.4,35350.0,1.5882,0.8605,140.5,96.4,0.544
23.52,32315.0,35685.4,1.5184,1.6862,140.5,96.4,0.544
23.54,32468.0,35839.0,2.2597,2.0642,140.5,96.4,0.544
23.56,32336.3,35645.8,1.6214,1.5887,140.5,96.4,0.544
23.58,32229.7,35501.3,1.1053,1.2331,140.5,96.4,0.544
23.6,32181.7,35288.1,0.8729,0.7082,140.5,96.4,0.544
23.62,32188.5,35139.3,0.9059,0.3418,140.5,96.4,0.544
23.64,32122.0,35195.1,0.5835,0.479,140.5,96.4,0.544
23.66,32072.7,35026.5,0.3449,0.0641,140.5,96.4,0.544
23.68,32059.5,34934.3,0.2808,-0.163,140.5,96.4,0.544
23.7,32013.1,34820.8,0.056,-0.4424,140.5,96.4,0.544
23.72,31857.7,34840.1,-0.6966,-0.3947,140.5,96.4,0.544
23.74,31797.3,34788.4,-0.9891,-0.5221,140.5,96.4,0.544
23.76,31928.8,34633.0,-0.3523,-0.9047,140.5,96.4,0.544
23.78,31898.3,34614.1,-0.4997,-0.9512,140.5,96.4,0.544
23.8,31776.6,34505.3,-1.0896,-1.219,140.5,96.4,0.544
23.82,31851.4,34552.2,-0.7269,-1.1035,140.5,96.4,0.544
23.84,31703.8,34358.8,-1.4421,-1.5795,140.5,96.4,0.544
23.86,31804.2,34416.0,-0.9559,-1.4387,140.5,96.4,0.544
23.88,31792.5,34730.4,-1.0123,-0.6647,140.5,96.4,0.544
23.9,31955.7,34962.4,-0.2221,-0.0937,140.5,96.4,0.544
23.92,32115.3,35391.5,0.5511,0.9627,140.5,96.4,0.544
23.94,32422.1,35645.8,2.0372,1.5886,140.5,96.4,0.544
23.96,32434.9,35749.2,2.0993,1.8432,140.5,96.4,0.544
23.98,32417.7,35718.0,2.0159,1.7664,140.5,96.4,0.544
24.0,32303.3,35626.9,1.4618,1.5421,140.5,96.4,0.544
24.02,32149.0,35385.0,0.7143,0.9465,140.5,96.4,0.544
24.04,32158.7,35211.7,0.7612,0.52,140.5,96.4,0.544
24.06,32055.3,35196.2,0.2608,0.4818,140.5,96.4,0.544
24.08,32100.0,35112.4,0.4773,0.2757,140.5,96.4,0.544
24.1,32034.5,34952.9,0.1597,-0.1171,140.5,96.4,0.544
24.12,31992.9,34950.4,-0.0415,-0.1233,140.5,96.4,0.544
24.14,31885.7,34757.4,-0.5607,-0.5984,140.5,96.4,0.544
24.16,31867.9,34796.3,-0.6472,-0.5025,140.5,96.4,0.544
24.18,31956.4,34581.3,-0.2183,-1.0319,140.5,96.4,0.544
24.2,31738.5,34625.1,-1.2738,-0.924,140.5,96.4,0.544
24.22,31841.6,34531.0,-0.7746,-1.1558,140.5,96.4,0.544
24.24,31794.7,34564.8,-1.0019,-1.0726,140.5,96.4,0.544
24.26,31814.5,34424.3,-0.9058,-1.4184,140.5,96.4,0.544
24.28,31811.0,34464.2,-0.923,-1.3201,140.5,96.4,0.544
24.3,31762.5,34694.2,-1.1575,-0.754,140.5,96.4,0.544
24.32,31984.1,34813.6,-0.0843,-0.4601,140.5,96.4,0.544
24.34,32027.7,35191.8,0.1267,0.471,140.5,96.4,0.544
24.36,32298.2,35528.3,1.4369,1.2994,140.5,96.4,0.544
24.38,32345.6,35660.6,1.6666,1.6251,140.5,96.4,0.544
24.4,32323.9,35686.0,1.5614,1.6877,140.5,96.4,0.544
24.42,32245.6,35558.4,1.1825,1.3736,140.5,96.4,0.544
24.44,32257.1,35404.6,1.2382,0.995,140.5,96.4,0.544
24.46,32186.7,35333.3,0.8968,0.8194,140.5,96.4,0.544
24.48,32055.6,35119.9,0.2621,0.2941,140.5,96.4,0.544
24.5,31978.7,35023.5,-0.1106,0.0566,140.5,96.4,0.544
24.52,31974.8,35050.3,-0.1295,0.1226,140.5,96.4,0.544
24.54,32007.3,34875.6,0.0282,-0.3073,140.5,96.4,0.544
24.56,31933.3,34888.4,-0.3306,-0.2759,140.5,96.4,0.544
24.58,31962.0,34648.5,-0.1915,-0.8665,140.5,96.4,0.544
24.6,31797.8,34709.0,-0.9868,-0.7175,140.5,96.4,0.544
24.62,31778.4,34681.6,-1.0809,-0.785,140.5,96.4,0.544
24.64,31886.5,34661.3,-0.5569,-0.8349,140.5,96.4,0.544
24.66,31864.1,34570.8,-0.6658,-1.0578,140.5,96.4,0.544
24.68,31741.7,34464.4,-1.2585,-1.3198,140.5,96.4,0.544
24.7,31680.4,34468.5,-1.5552,-1.3095,140.5,96.4,0.544
24.72,31770.6,34533.1,-1.1185,-1.1506,140.5,96.4,0.544
24.74,31790.7,34792.9,-1.0213,-0.5111,140.5,96.4,0.544
24.76,32004.7,35043.6,0.0156,0.1062,140.5,96.4,0.544
24.78,32211.1,35467.7,1.0154,1.1502,140.5,96.4,0.544
24.8,32402.9,35710.5,1.9441,1.7481,140.5,96.4,0.544
24.82,32394.9,35869.6,1.9054,2.1397,140.5,96.4,0.544
24.84,32313.2,35626.0,1.5097,1.5399,140.5,96.4,0.544
24.86,32230.0,35455.9,1.1066,1.1212,140.5,96.4,0.544
24.88,32202.2,35251.6,0.9719,0.6184,140.5,96.4,0.544
24.9,32068.9,35169.6,0.3264,0.4163,140.5,96.4,0.544
24.92,32059.2,34969.7,0.2792,-0.0756,140.5,96.4,0.544
24.94,32018.4,35102.8,0.0816,0.252,140.5,96.4,0.544
24.96,31944.2,34952.6,-0.2774,-0.1178,140.5,96.4,0.544
24.98,31890.0,34847.1,-0.5399,-0.3775,140.5,96.4,0.544
25.0,31921.5,34757.2,-0.3874,-0.5988,140.5,96.4,0.544
25.02,31902.6,34726.9,-0.479,-0.6734,140.5,96.4,0.544
25.04,31789.0,34707.0,-1.0292,-0.7225,140.5,96.4,0.544
25.06,31803.9,34697.6,-0.9573,-0.7456,140.5,96.4,0.544
25.08,31775.3,34613.6,-1.0957,-0.9524,140.5,96.4,0.544
25.1,31812.1,34573.3,-0.9175,-1.0515,140.5,96.4,0.544
25.12,31812.0,34472.2,-0.9178,-1.3006,140.5,96.4,0.544
25.14,31792.7,34507.7,-1.0115,-1.213,140.5,96.4,0.544
25.16,31808.8,34687.4,-0.9332,-0.7706,140.5,96.4,0.544
25.18,32015.5,35054.1,0.0677,0.1321,140.5,96.4,0.544
25.2,32125.0,35395.6,0.5984,0.9727,140.5,96.4,0.544
25.22,32287.1,35561.4,1.3833,1.3809,140.5,96.4,0.544
25.24,32346.7,35763.0,1.672,1.8771,140.5,96.4,0.544
25.26,32289.9,35725.6,1.397,1.7853,140.5,96.4,0.544
25.28,32292.6,35597.1,1.4098,1.4687,140.5,96.4,0.544
25.3,32150.9,35377.5,0.7234,0.9281,140.5,96.4,0.544
25.32,32105.6,35193.0,0.504,0.4739,140.5,96.4,0.544
25.34,32002.8,35066.2,0.0062,0.1618,140.5,96.4,0.544
25.36,32069.3,35080.8,0.3285,0.1977,140.5,96.4,0.544
25.38,32046.6,35005.5,0.2183,0.0124,140.5,96.4,0.544
25.4,31876.8,34825.3,-0.6041,-0.4313,140.5,96.4,0.544
25.42,31887.2,34772.0,-0.5536,-0.5624,140.5,96.4,0.544
25.44,31984.7,34671.8,-0.0813,-0.809,140.5,96.4,0.544
25.46,31793.8,34617.3,-1.006,-0.9433,140.5,96.4,0.544
25.48,31847.1,34570.1,-0.7478,-1.0595,140.5,96.4,0.544
25.5,31818.6,34666.3,-0.8859,-0.8226,140.5,96.4,0.544
25.52,31689.3,34668.8,-1.512,-0.8164,140.5,96.4,0.544
25.54,31752.1,34478.0,-1.2081,-1.2861,140.5,96.4,0.544
25.56,31709.2,34371.6,-1.4157,-1.5481,140.5,96.4,0.544
25.58,31736.5,34503.5,-1.2837,-1.2233,140.5,96.4,0.544
25.6,31929.4,34754.9,-0.3493,-0.6045,140.5,96.4,0.544
25.62,32092.5,35193.7,0.4405,0.4757,140.5,96.4,0.544
25.64,32236.0,35560.7,1.1357,1.3792,140.5,96.4,0.544
25.66,32442.5,35722.7,2.136,1.7781,140.5,96.4,0.544
25.68,32359.5,35625.0,1.7341,1.5374,140.5,96.4,0.544
25.7,32221.2,35570.0,1.0639,1.402,140.5,96.4,0.544
25.72,32156.1,35444.8,0.7487,1.094,140.5,96.4,0.544
25.74,32116.6,35341.5,0.5574,0.8395,140.5,96.4,0.544
25.76,32017.3,35141.3,0.0765,0.3468,140.5,96.4,0.544
25.78,32072.8,35095.2,0.3454,0.2332,140.5,96.4,0.544
25.8,32042.4,35090.4,0.198,0.2215,140.5,96.4,0.544
25.82,31937.9,34867.3,-0.3082,-0.3278,140.5,96.4,0.544
25.84,31880.5,34791.8,-0.5863,-0.5137,140.5,96.4,0.544
25.86,31924.6,34731.9,-0.3723,-0.6611,140.5,96.4,0.544
25.88,31902.6,34720.8,-0.4791,-0.6885,140.5,96.4,0.544
25.9,31851.6,34627.4,-0.726,-0.9184,140.5,96.4,0.544
25.92,31840.6,34669.6,-0.7796,-0.8144,140.5,96.4,0.544
25.94,31733.4,34509.0,-1.2987,-1.2098,140.5,96.4,0.544
25.96,31824.6,34561.5,-0.8568,-1.0807,140.5,96.4,0.544
25.98,31689.7,34514.1,-1.5101,-1.1974,140.5,96.4,0.544
26.0,31687.7,34612.2,-1.5199,-0.9559,140.5,96.4,0.544
26.02,31924.5,34670.9,-0.3728,-0.8114,140.5,96.4,0.544
26.04,32070.5,35054.5,0.3341,0.1331,140.5,96.4,0.544
26.06,32234.8,35425.3,1.1301,1.0459,140.5,96.4,0.544
26.08,32299.2,35687.8,1.4421,1.692,140.5,96.4,0.544
26.1,32374.5,35798.5,1.8066,1.9646,140.5,96.4,0.544
26.12,32214.4,35637.6,1.0313,1.5686,140.5,96.4,0.544
26.14,32267.6,35553.2,1.2891,1.3607,140.5,96.4,0.544
26.16,32122.5,35241.3,0.5859,0.5928,140.5,96.4,0.544
26.18,32120.3,35206.8,0.5753,0.5079,140.5,96.4,0.544
26.2,32085.1,35107.9,0.4051,0.2645,140.5,96.4,0.544
26.22,32081.9,35101.6,0.3894,0.249,140.5,96.4,0.544
26.24,32007.0,35011.8,0.0264,0.028,140.5,96.4,0.544
26.26,31950.7,34820.1,-0.2462,-0.4441,140.5,96.4,0.544
26.28,31897.4,34794.2,-0.504,-0.5078,140.5,96.4,0.544
26.3,31904.0,34671.7,-0.4723,-0.8093,140.5,96.4,0.544
26.32,31812.2,34635.4,-0.9169,-0.8987,140.5,96.4,0.544
26.34,31766.8,34619.5,-1.1366,-0.9378,140.5,96.4,0.544
26.36,31844.8,34689.0,-0.7593,-0.7667,140.5,96.4,0.544
26.38,31826.7,34597.1,-0.8468,-0.993,140.5,96.4,0.544
26.4,31722.4,34328.9,-1.3521,-1.6533,140.5,96.4,0.544
26.42,31774.6,34487.9,-1.099,-1.2617,140.5,96.4,0.544
26.44,31771.4,34615.3,-1.1144,-0.9481,140.5,96.4,0.544
26.46,31960.7,35075.6,-0.1975,0.1849,140.5,96.4,0.544
26.48,32155.0,35239.5,0.7437,0.5885,140.5,96.4,0.544
26.5,32282.9,35594.9,1.3632,1.4633,140.5,96.4,0.544
26.52,32450.3,35812.0,2.174,1.9979,140.5,96.4,0.544
26.54,32406.9,35730.3,1.9634,1.7967,140.5,96.4,0.544
26.56,32314.3,35540.8,1.515,1.3302,140.5,96.4,0.544
26.58,32113.2,35342.9,0.5412,0.8431,140.5,96.4,0.544
26.6,32112.1,35222.1,0.5355,0.5457,140.5,96.4,0.544
26.62,32034.5,35192.3,0.16,0.4724,140.5,96.4,0.544
26.64,32016.0,35143.0,0.0702,0.3509,140.5,96.4,0.544
26.66,32002.0,34990.1,0.0025,-0.0254,140.5,96.4,0.544
26.68,32013.6,34984.1,0.0587,-0.0404,140.5,96.4,0.544
26.7,31887.2,34792.8,-0.5535,-0.5112,140.5,96.4,0.544
26.72,31951.6,34630.3,-0.2418,-0.9112,140.5,96.4,0.544
26.74,31790.2,34696.6,-1.0235,-0.7481,140.5,96.4,0.544
26.76,31835.8,34696.6,-0.8028,-0.748,140.5,96.4,0.544
26.78,31792.3,34617.8,-1.0136,-0.9421,140.5,96.4,0.544
26.8,31869.4,34474.5,-0.6399,-1.2947,140.5,96.4,0.544
26.82,31702.2,34478.8,-1.4499,-1.2842,140.5,96.4,0.544
26.84,31592.3,34458.2,-1.982,-1.3349,140.5,96.4,0.544
26.86,31829.0,34488.2,-0.8356,-1.261,140.5,96.4,0.544
26.88,31895.1,34802.7,-0.5154,-0.4868,140.5,96.4,0.544
26.9,32051.6,35212.0,0.2424,0.5208,140.5,96.4,0.544
26.92,32165.0,35410.4,0.7918,1.0093,140.5,96.4,0.544
26.94,32260.0,35668.6,1.2523,1.6449,140.5,96.4,0.544
26.96,32372.5,35776.7,1.7969,1.911,140.5,96.4,0.544
26.98,32292.3,35577.6,1.4086,1.4209,140.5,96.4,0.544
27.0,32192.7,35398.7,0.9263,0.9804,140.5,96.4,0.544
27.02,32190.9,35199.9,0.9174,0.4909,140.5,96.4,0.544
27.04,32130.2,35154.0,0.6233,0.378,140.5,96.4,0.544
27.06,31977.9,35121.0,-0.1144,0.2968,140.5,96.4,0.544
27.08,32003.0,34971.3,0.0071,-0.0717,140.5,96.4,0.544
27.1,31907.5,34875.1,-0.4552,-0.3085,140.5,96.4,0.544
27.12,31889.4,34884.7,-0.5433,-0.2849,140.5,96.4,0.544
27.14,31865.0,34743.1,-0.6613,-0.6335,140.5,96.4,0.544
27.16,31867.7,34758.7,-0.6483,-0.5953,140.5,96.4,0.544
27.18,31903.4,34744.4,-0.4753,-0.6305,140.5,96.4,0.544
27.2,31783.1,34738.3,-1.058,-0.6455,140.5,96.4,0.544
27.22,31793.2,34628.8,-1.0089,-0.915,140.5,96.4,0.544
27.24,31760.7,34569.3,-1.1663,-1.0614,140.5,96.4,0.544
27.26,31779.2,34455.2,-1.077,-1.3423,140.5,96.4,0.544
27.28,31780.0,34447.6,-1.0732,-1.3611,140.5,96.4,0.544
27.3,31835.8,34668.1,-0.8027,-0.8181,140.5,96.4,0.544
27.32,32031.9,35081.5,0.1472,0.1995,140.5,96.4,0.544
27.34,32185.6,35370.8,0.8917,0.9116,140.5,96.4,0.544
27.36,32301.2,35688.7,1.4514,1.6944,140.5,96.4,0.544
27.38,32296.0,35737.1,1.4262,1.8134,140.5,96.4,0.544
27.4,32274.5,35678.4,1.3225,1.669,140.5,96.4,0.544
27.42,32378.4,35532.3,1.8255,1.3093,140.5,96.4,0.544
27.44,32231.0,35340.8,1.1114,0.838,140.5,96.4,0.544
27.46,32078.2,35173.7,0.3714,0.4266,140.5,96.4,0.544
27.48,32038.5,35100.0,0.1793,0.2449,140.5,96.4,0.544
27.5,31991.8,35138.7,-0.0473,0.3403,140.5,96.4,0.544
27.52,31945.3,35069.1,-0.2722,0.1691,140.5,96.4,0.544
27.54,31884.9,34820.3,-0.565,-0.4435,140.5,96.4,0.544
27.56,31873.2,34816.2,-0.6213,-0.4536,140.5,96.4,0.544
27.58,31869.9,34728.1,-0.6374,-0.6705,140.5,96.4,0.544
27.6,31947.5,34610.0,-0.2615,-0.9613,140.5,96.4,0.544
27.62,31769.5,34794.6,-1.1239,-0.5068,140.5,96.4,0.544
27.64,31777.4,34586.7,-1.0853,-1.0186,140.5,96.4,0.544
27.66,31744.0,34633.8,-1.2471,-0.9027,140.5,96.4,0.544
27.68,31717.3,34442.9,-1.3765,-1.3726,140.5,96.4,0.544
27.7,31764.2,34406.7,-1.1493,-1.4618,140.5,96.4,0.544
27.72,31845.0,34553.2,-0.7581,-1.1012,140.5,96.4,0.544
27.74,31906.7,34942.8,-0.4593,-0.1418,140.5,96.4,0.544
27.76,32140.7,35216.7,0.6743,0.5325,140.5,96.4,0.544
27.78,32236.7,35714.8,1.1391,1.7585,140.5,96.4,0.544
27.8,32400.4,35713.0,1.932,1.7541,140.5,96.4,0.544
27.82,32350.4,35735.4,1.6897,1.8092,140.5,96.4,0.544
27.84,32336.7,35527.4,1.6238,1.2971,140.5,96.4,0.544
27.86,32259.0,35501.3,1.2473,1.2331,140.5,96.4,0.544
27.88,32114.8,35145.8,0.549,0.3579,140.5,96.4,0.544
27.9,32112.2,35144.7,0.536,0.3552,140.5,96.4,0.544
27.92,31945.0,35088.3,-0.2737,0.2163,140.5,96.4,0.544
27.94,31982.3,35113.5,-0.0929,0.2784,140.5,96.4,0.544
27.96,31933.8,34889.3,-0.3277,-0.2737,140.5,96.4,0.544
27.98,31810.3,34814.5,-0.9263,-0.4579,140.5,96.4,0.544
28.0,31935.9,34726.7,-0.318,-0.6739,140.5,96.4,0.544
28.02,31794.4,34571.8,-1.003,-1.0554,140.5,96.4,0.544
28.04,31813.7,34681.7,-0.9096,-0.7847,140.5,96.4,0.544
28.06,31743.3,34813.1,-1.2505,-0.4612,140.5,96.4,0.544
28.08,31886.4,34518.4,-0.5577,-1.1866,140.5,96.4,0.544
28.1,31748.3,34493.6,-1.2263,-1.2477,140.5,96.4,0.544
28.12,31754.0,34431.2,-1.1989,-1.4014,140.5,96.4,0.544
28.14,31746.9,34471.4,-1.2331,-1.3024,140.5,96.4,0.544
28.16,31872.3,34818.2,-0.6258,-0.4486,140.5,96.4,0.544
28.18,32096.2,35236.1,0.4589,0.5802,140.5,96.4,0.544
28.2,32248.4,35454.7,1.1957,1.1182,140.5,96.4,0.544
28.22,32436.4,35628.3,2.1067,1.5456,140.5,96.4,0.544
28.24,32375.9,35696.1,1.8133,1.7125,140.5,96.4,0.544
28.26,32288.7,35586.3,1.3912,1.4422,140.5,96.4,0.544
28.28,32195.1,35492.2,0.9376,1.2105,140.5,96.4,0.544
28.3,32123.9,35257.0,0.5929,0.6314,140.5,96.4,0.544
28.32,32147.0,35204.6,0.7047,0.5025,140.5,96.4,0.544
28.34,32148.1,35150.6,0.7102,0.3696,140.5,96.4,0.544
28.36,31965.0,35010.6,-0.177,0.025,140.5,96.4,0.544
28.38,31981.3,34877.7,-0.098,-0.3023,140.5,96.4,0.544
28.4,31837.0,34847.0,-0.7968,-0.3779,140.5,96.4,0.544
28.42,31850.7,34704.5,-0.7306,-0.7287,140.5,96.4,0.544
28.44,31888.4,34720.7,-0.5481,-0.6888,140.5,96.4,0.544
28.46,31847.0,34636.7,-0.7484,-0.8954,140.5,96.4,0.544
28.48,31786.1,34551.6,-1.0432,-1.105,140.5,96.4,0.544
28.5,31802.7,34636.0,-0.963,-0.8972,140.5,96.4,0.544
28.52,31728.7,34529.5,-1.3216,-1.1595,140.5,96.4,0.544
28.54,31708.1,34429.4,-1.4214,-1.4057,140.5,96.4,0.544
28.56,31702.9,34515.2,-1.4462,-1.1946,140.5,96.4,0.544
28.58,31868.5,34727.1,-0.6443,-0.6729,140.5,96.4,0.544
28.6,31967.2,35026.0,-0.166,0.0628,140.5,96.4,0.544
28.62,32154.2,35346.3,0.7396,0.8514,140.5,96.4,0.544
28.64,32281.2,35637.6,1.3547,1.5686,140.5,96.4,0.544
28.66,32412.9,35770.7,1.9929,1.8962,140.5,96.4,0.544
28.68,32347.4,35709.3,1.6752,1.745,140.5,96.4,0.544
28.7,32257.3,35499.6,1.2392,1.2289,140.5,96.4,0.544
28.72,32086.7,35342.8,0.4125,0.8429,140.5,96.4,0.544
28.74,32128.9,35139.5,0.617,0.3422,140.5,96.4,0.544
28.76,32069.5,35118.8,0.3294,0.2912,140.5,96.4,0.544
28.78,32050.3,35013.9,0.2364,0.0331,140.5,96.4,0.544
28.8,31925.3,35124.0,-0.3693,0.304,140.5,96.4,0.544
28.82,31927.8,34857.5,-0.3572,-0.352,140.5,96.4,0.544
28.84,31965.9,34841.9,-0.1726,-0.3903,140.5,96.4,0.544
28.86,31913.7,34632.2,-0.4253,-0.9067,140.5,96.4,0.544
28.88,31835.4,34658.5,-0.8046,-0.8419,140.5,96.4,0.544
28.9,31827.2,34671.3,-0.8441,-0.8104,140.5,96.4,0.544
28.92,31753.3,34530.2,-1.2021,-1.1577,140.5,96.4,0.544
28.94,31807.6,34567.3,-0.9394,-1.0665,140.5,96.4,0.544
28.96,31730.3,34472.9,-1.3137,-1.2987,140.5,96.4,0.544
28.98,31647.9,34492.3,-1.7127,-1.2511,140.5,96.4,0.544
29.0,31846.7,34551.1,-0.7498,-1.1063,140.5,96.4,0.544
29.02,32003.2,34986.3,0.0081,-0.0349,140.5,96.4,0.544
29.04,32209.0,35304.6,1.0051,0.7486,140.5,96.4,0.544
29.06,32161.0,35595.7,0.7724,1.4654,140.5,96.4,0.544
29.08,32443.1,35805.7,2.139,1.9824,140.5,96.4,0.544
29.1,32435.6,35650.2,2.1028,1.5995,140.5,96.4,0.544
29.12,32339.1,35622.1,1.6352,1.5303,140.5,96.4,0.544
29.14,32169.8,35454.4,0.815,1.1174,140.5,96.4,0.544
29.16,32159.4,35213.9,0.7648,0.5256,140.5,96.4,0.544
29.18,32045.7,35086.8,0.2139,0.2126,140.5,96.4,0.544
29.2,32039.5,35031.1,0.1842,0.0753,140.5,96.4,0.544
29.22,32027.5,35012.6,0.1261,0.0298,140.5,96.4,0.544
29.24,31972.7,34937.6,-0.1397,-0.1547,140.5,96.4,0.544
29.26,31983.2,34838.3,-0.0887,-0.3991,140.5,96.4,0.544
29.28,31802.3,34735.9,-0.9651,-0.6512,140.5,96.4,0.544
29.3,31904.6,34686.2,-0.4695,-0.7736,140.5,96.4,0.544
29.32,31880.1,34725.6,-0.5879,-0.6766,140.5,96.4,0.544
29.34,31848.0,34641.4,-0.7437,-0.884,140.5,96.4,0.544
29.36,31795.9,34514.5,-0.9959,-1.1962,140.5,96.4,0.544
29.38,31800.4,34538.8,-0.9739,-1.1364,140.5,96.4,0.544
29.4,31678.2,34505.4,-1.5659,-1.2187,140.5,96.4,0.544
29.42,31747.5,34535.5,-1.2304,-1.1446,140.5,96.4,0.544
29.44,31918.4,34761.1,-0.4026,-0.5893,140.5,96.4,0.544
29.46,32186.5,35042.7,0.8962,0.1041,140.5,96.4,0.544
29.48,32337.7,35359.8,1.6283,0.8845,140.5,96.4,0.544
29.5,32308.6,35698.3,1.4874,1.718,140.5,96.4,0.544
29.52,32354.4,35692.0,1.7091,1.7024,140.5,96.4,0.544
29.54,32395.9,35680.6,1.9104,1.6745,140.5,96.4,0.544
29.56,32271.0,35491.8,1.3053,1.2095,140.5,96.4,0.544
29.58,32235.8,35222.4,1.1346,0.5464,140.5,96.4,0.544
29.6,32093.3,35267.0,0.4444,0.6562,140.5,96.4,0.544
29.62,32120.0,35212.7,0.574,0.5225,140.5,96.4,0.544
29.64,31983.4,34986.0,-0.0875,-0.0355,140.5,96.4,0.544
29.66,31921.0,34912.8,-0.3899,-0.2157,140.5,96.4,0.544
29.68,31927.9,34906.5,-0.3563,-0.2313,140.5,96.4,0.544
29.7,31877.0,34755.7,-0.6033,-0.6026,140.5,96.4,0.544
29.72,31836.2,34698.9,-0.8008,-0.7424,140.5,96.4,0.544
29.74,31822.6,34613.8,-0.8665,-0.9518,140.5,96.4,0.544
29.76,31785.5,34651.7,-1.0464,-0.8586,140.5,96.4,0.544
29.78,31821.8,34597.5,-0.8706,-0.992,140.5,96.4,0.544
29.8,31724.9,34469.5,-1.34,-1.3071,140.5,96.4,0.544
29.82,31681.3,34429.6,-1.5508,-1.4054,140.5,96.4,0.544
29.84,31735.4,34466.0,-1.2891,-1.3157,140.5,96.4,0.544
29.86,31805.3,34729.0,-0.9505,-0.6683,140.5,96.4,0.544
29.88,31938.8,35029.5,-0.3037,0.0715,140.5,96.4,0.544
29.9,32222.6,35403.6,1.0711,0.9924,140.5,96.4,0.544
29.92,32360.9,35690.6,1.7407,1.6989,140.5,96.4,0.544
29.94,32408.6,35732.5,1.9719,1.8022,140.5,96.4,0.544
29.96,32364.2,35762.7,1.7569,1.8764,140.5,96.4,0.544
29.98,32288.2,35503.9,1.3886,1.2394,140.5,96.4,0.544
30.0,32129.5,35366.6,0.6198,0.9013,140.5,96.4,0.544
30.02,32119.1,35227.7,0.5695,0.5593,140.5,96.4,0.544
30.04,32095.3,35123.6,0.4543,0.3031,140.5,96.4,0.544
30.06,32024.2,35101.9,0.1101,0.2496,140.5,96.4,0.544
30.08,32025.3,35085.1,0.1151,0.2083,140.5,96.4,0.544
30.1,32039.5,34904.4,0.1842,-0.2366,140.5,96.4,0.544
30.12,31958.6,34742.7,-0.2077,-0.6347,140.5,96.4,0.544
30.14,31899.9,34770.8,-0.4921,-0.5653,140.5,96.4,0.544
30.16,31845.3,34675.9,-0.7568,-0.799,140.5,96.4,0.544
30.18,31731.6,34671.5,-1.3073,-0.8099,140.5,96.4,0.544
30.2,31815.5,34651.9,-0.9011,-0.858,140.5,96.4,0.544
30.22,31810.7,34552.7,-0.9241,-1.1023,140.5,96.4,0.544
30.24,31783.1,34538.4,-1.0581,-1.1376,140.5,96.4,0.544
30.26,31714.2,34370.1,-1.3915,-1.5517,140.5,96.4,0.544
30.28,31858.5,34587.1,-0.6925,-1.0176,140.5,96.4,0.544
30.3,31944.1,34897.9,-0.2779,-0.2525,140.5,96.4,0.544
30.32,32204.8,35337.7,0.9847,0.8302,140.5,96.4,0.544
30.34,32331.6,35533.1,1.5987,1.3114,140.5,96.4,0.544
30.36,32446.6,35728.8,2.1561,1.7929,140.5,96.4,0.544
30.38,32296.5,35706.7,1.4286,1.7387,140.5,96.4,0.544
30.4,32316.9,35545.3,1.5277,1.3413,140.5,96.4,0.544
30.42,32144.4,35304.1,0.6923,0.7476,140.5,96.4,0.544
30.44,32095.7,35187.2,0.4562,0.4597,140.5,96.4,0.544
30.46,32053.0,35201.8,0.2496,0.4956,140.5,96.4,0.544
30.48,32024.7,35036.0,0.1123,0.0875,140.5,96.4,0.544
30.5,32048.7,35052.6,0.2284,0.1284,140.5,96.4,0.544
30.52,31933.7,34954.7,-0.3286,-0.1127,140.5,96.4,0.544
30.54,31862.9,34762.6,-0.6715,-0.5855,140.5,96.4,0.544
30.56,31872.2,34747.5,-0.6262,-0.6228,140.5,96.4,0.544
30.58,31832.3,34793.9,-0.8195,-0.5085,140.5,96.4,0.544
30.6,31783.4,34751.5,-1.0566,-0.613,140.5,96.4,0.544
30.62,31880.6,34568.5,-0.5854,-1.0634,140.5,96.4,0.544
30.64,31850.4,34589.1,-0.7317,-1.0126,140.5,96.4,0.544
30.66,31765.8,34539.7,-1.1419,-1.1343,140.5,96.4,0.544
30.68,31619.1,34498.9,-1.8523,-1.2347,140.5,96.4,0.544
30.7,31818.1,34637.0,-0.8884,-0.8948,140.5,96.4,0.544
30.72,31889.3,34762.8,-0.5436,-0.5851,140.5,96.4,0.544
30.74,32072.2,35111.6,0.3425,0.2735,140.5,96.4,0.544
30.76,32138.5,35496.8,0.6635,1.222,140.5,96.4,0.544
30.78,32333.0,35654.1,1.6059,1.6091,140.5,96.4,0.544
30.8,32287.9,35740.5,1.3874,1.8218,140.5,96.4,0.544
30.82,32324.3,35656.4,1.5634,1.6147,140.5,96.4,0.544
30.84,32131.1,35493.4,0.6276,1.2134,140.5,96.4,0.544
30.86,32178.7,35202.2,0.8583,0.4967,140.5,96.4,0.544
30.88,32099.5,35171.0,0.4746,0.4199,140.5,96.4,0.544
30.9,32007.3,35106.2,0.0281,0.2603,140.5,96.4,0.544
30.92,32007.3,35045.3,0.0279,0.1103,140.5,96.4,0.544
30.94,31951.9,34939.3,-0.2404,-0.1504,140.5,96.4,0.544
30.96,32017.5,34908.0,0.0777,-0.2277,140.5,96.4,0.544
30.98,31899.0,34786.8,-0.4967,-0.526,140.5,96.4,0.544
31.0,31919.8,34774.4,-0.3959,-0.5565,140.5,96.4,0.544
31.02,31807.9,34744.4,-0.9377,-0.6303,140.5,96.4,0.544
31.04,31825.4,34707.6,-0.853,-0.7209,140.5,96.4,0.544
31.06,31772.9,34663.6,-1.1074,-0.8294,140.5,96.4,0.544
31.08,31657.8,34501.7,-1.6648,-1.2279,140.5,96.4,0.544
31.1,31759.2,34444.2,-1.1737,-1.3695,140.5,96.4,0.544
31.12,31595.3,34496.9,-1.9674,-1.2396,140.5,96.4,0.544
31.14,31824.8,34694.2,-0.8558,-0.7539,140.5,96.4,0.544
31.16,31953.7,34888.2,-0.2316,-0.2764,140.5,96.4,0.544
31.18,32157.1,35314.4,0.7535,0.7729,140.5,96.4,0.544
31.2,32240.6,35652.3,1.1583,1.6046,140.5,96.4,0.544
31.22,32311.3,35691.5,1.5004,1.7012,140.5,96.4,0.544
31.24,32299.0,35790.6,1.4409,1.9451,140.5,96.4,0.544
31.26,32265.9,35481.1,1.2806,1.1833,140.5,96.4,0.544
31.28,32200.5,35307.2,0.964,0.7552,140.5,96.4,0.544
31.3,32158.7,35210.4,0.7614,0.5168,140.5,96.4,0.544
31.32,32042.1,35087.9,0.1966,0.2153,140.5,96.4,0.544
31.34,31975.0,35041.9,-0.1282,0.102,140.5,96.4,0.544
31.36,31983.4,35006.2,-0.0876,0.0141,140.5,96.4,0.544
31.38,31953.8,34917.4,-0.231,-0.2045,140.5,96.4,0.544
31.4,31916.6,34790.4,-0.4113,-0.5172,140.5,96.4,0.544
31.42,31745.7,34745.5,-1.2391,-0.6278,140.5,96.4,0.544
31.44,31860.0,34673.5,-0.6852,-0.8049,140.5,96.4,0.544
31.46,31793.7,34647.8,-1.0065,-0.8681,140.5,96.4,0.544
31.48,31844.3,34628.6,-0.7616,-0.9154,140.5,96.4,0.544
31.5,31757.1,34475.3,-1.1837,-1.2927,140.5,96.4,0.544
31.52,31765.0,34481.5,-1.1455,-1.2777,140.5,96.4,0.544
31.54,31772.6,34525.8,-1.1089,-1.1684,140.5,96.4,0.544
31.56,31749.3,34553.9,-1.2216,-1.0994,140.5,96.4,0.544
31.58,31858.1,34892.9,-0.6948,-0.2649,140.5,96.4,0.544
31.6,32126.9,35182.4,0.6075,0.4478,140.5,96.4,0.544
31.62,32158.5,35570.9,0.7603,1.4044,140.5,96.4,0.544
31.64,32281.8,35842.5,1.3577,2.073,140.5,96.4,0.544
31.66,32376.6,35761.8,1.817,1.8743,140.5,96.4,0.544
31.68,32325.3,35547.7,1.5685,1.3472,140.5,96.4,0.544
31.7,32094.1,35384.2,0.4483,0.9446,140.5,96.4,0.544
31.72,32116.6,35175.0,0.5576,0.4297,140.5,96.4,0.544
31.74,32032.6,35138.5,0.1506,0.3399,140.5,96.4,0.544
31.76,32027.5,35117.2,0.1259,0.2874,140.5,96.4,0.544
31.78,32017.3,34985.8,0.0765,-0.0361,140.5,96.4,0.544
31.8,31944.2,34958.3,-0.2774,-0.1038,140.5,96.4,0.544
31.82,32010.3,34767.2,0.0425,-0.5742,140.5,96.4,0.544
31.84,31841.9,34716.3,-0.7732,-0.6994,140.5,96.4,0.544
31.86,31808.2,34803.0,-0.9366,-0.4862,140.5,96.4,0.544
31.88,31844.0,34731.9,-0.7629,-0.6611,140.5,96.4,0.544
31.9,31701.0,34605.2,-1.4558,-0.9732,140.5,96.4,0.544
31.92,31876.7,34677.2,-0.6046,-0.7959,140.5,96.4,0.544
31.94,31816.9,34449.0,-0.8942,-1.3575,140.5,96.4,0.544
31.96,31648.3,34480.4,-1.7107,-1.2803,140.5,96.4,0.544
31.98,31734.2,34535.3,-1.2948,-1.1451,140.5,96.4,0.544
32.0,31946.1,34795.6,-0.2682,-0.5044,140.5,96.4,0.544
32.02,32112.5,35104.2,0.5375,0.2554,140.5,96.4,0.544
32.04,32173.3,35509.1,0.8321,1.252,140.5,96.4,0.544
32.06,32360.0,35695.3,1.7363,1.7106,140.5,96.4,0.544
32.08,32344.8,35724.2,1.6626,1.7817,140.5,96.4,0.544
32.1,32404.1,35715.4,1.9502,1.76,140.5,96.4,0.544
32.12,32189.7,35489.8,0.9114,1.2046,140.5,96.4,0.544
32.14,32214.6,35332.3,1.0322,0.8169,140.5,96.4,0.544
32.16,32096.5,35090.5,0.46,0.2216,140.5,96.4,0.544
32.18,32121.7,35098.5,0.582,0.2413,140.5,96.4,0.544
32.2,31995.5,35027.7,-0.0292,0.0671,140.5,96.4,0.544
32.22,31895.8,34959.5,-0.5119,-0.1009,140.5,96.4,0.544
32.24,31882.1,34842.0,-0.5784,-0.3901,140.5,96.4,0.544
32.26,31885.0,34791.2,-0.5645,-0.5151,140.5,96.4,0.544
32.28,31797.8,34683.6,-0.9867,-0.78,140.5,96.4,0.544
32.3,31809.3,34664.2,-0.9309,-0.8278,140.5,96.4,0.544
32.32,31863.4,34676.1,-0.6689,-0.7986,140.5,96.4,0.544
32.34,31890.5,34482.6,-0.5377,-1.2748,140.5,96.4,0.544
32.36,31796.4,34498.6,-0.9934,-1.2355,140.5,96.4,0.544
32.38,31772.6,34485.5,-1.109,-1.2676,140.5,96.4,0.544
32.4,31767.6,34475.5,-1.133,-1.2923,140.5,96.4,0.544
32.42,31850.2,34691.6,-0.7327,-0.7603,140.5,96.4,0.544
32.44,31976.2,35009.4,-0.1224,0.022,140.5,96.4,0.544
32.46,32238.7,35351.6,1.149,0.8644,140.5,96.4,0.544
32.48,32295.6,35599.7,1.4245,1.4753,140.5,96.4,0.544
32.5,32384.6,35713.9,1.8554,1.7563,140.5,96.4,0.544
32.52,32294.5,35668.1,1.4194,1.6436,140.5,96.4,0.544
32.54,32236.5,35505.4,1.1384,1.2429,140.5,96.4,0.544
32.56,32173.2,35372.8,0.8318,0.9167,140.5,96.4,0.544
32.58,32138.4,35194.1,0.663,0.4767,140.5,96.4,0.544
32.6,32061.1,35060.6,0.2887,0.1481,140.5,96.4,0.544
32.62,31953.1,35068.6,-0.2347,0.1677,140.5,96.4,0.544
32.64,32055.9,35038.5,0.2634,0.0936,140.5,96.4,0.544
32.66,32030.8,34990.0,0.1418,-0.0259,140.5,96.4,0.544
32.68,31920.0,34878.6,-0.395,-0.3001,140.5,96.4,0.544
32.7,31793.3,34658.2,-1.0087,-0.8426,140.5,96.4,0.544
32.72,31891.9,34635.2,-0.5307,-0.8993,140.5,96.4,0.544
32.74,31850.8,34637.3,-0.7298,-0.894,140.5,96.4,0.544
32.76,31800.5,34659.2,-0.9735,-0.8402,140.5,96.4,0.544
32.78,31720.2,34498.1,-1.3628,-1.2367,140.5,96.4,0.544
32.8,31727.7,34450.7,-1.326,-1.3534,140.5,96.4,0.544
32.82,31807.3,34487.5,-0.9408,-1.2628,140.5,96.4,0.544
32.84,31732.4,34681.1,-1.3037,-0.7862,140.5,96.4,0.544
32.86,31877.3,34914.4,-0.6018,-0.2119,140.5,96.4,0.544
32.88,32156.7,35129.8,0.7516,0.3185,140.5,96.4,0.544
32.9,32200.6,35521.7,0.9643,1.2832,140.5,96.4,0.544
32.92,32428.6,35695.9,2.0687,1.7121,140.5,96.4,0.544
32.94,32304.3,35605.1,1.4665,1.4886,140.5,96.4,0.544
32.96,32378.8,35583.6,1.8275,1.4357,140.5,96.4,0.544
32.98,32335.9,35295.4,1.6195,0.726,140.5,96.4,0.544
33.0,32154.8,35280.6,0.7423,0.6898,140.5,96.4,0.544
33.02,32095.2,35077.7,0.4538,0.1902,140.5,96.4,0.544
33.04,32012.0,35121.2,0.0507,0.2972,140.5,96.4,0.544
33.06,31987.0,35038.2,-0.0701,0.0928,140.5,96.4,0.544
33.08,31952.1,34924.7,-0.2391,-0.1865,140.5,96.4,0.544
33.1,31878.5,34817.6,-0.5959,-0.4503,140.5,96.4,0.544
33.12,31780.4,34694.6,-1.0712,-0.7529,140.5,96.4,0.544
33.14,31904.1,34682.3,-0.4719,-0.7833,140.5,96.4,0.544
33.16,31811.8,34708.7,-0.9189,-0.7183,140.5,96.4,0.544
33.18,31710.2,34637.2,-1.411,-0.8942,140.5,96.4,0.544
33.2,31736.3,34657.9,-1.2846,-0.8434,140.5,96.4,0.544
33.22,31735.5,34471.7,-1.2885,-1.3016,140.5,96.4,0.544
33.24,31782.8,34506.9,-1.0594,-1.2151,140.5,96.4,0.544
33.26,31768.8,34530.5,-1.1272,-1.157,140.5,96.4,0.544
33.28,31850.5,34727.9,-0.7317,-0.671,140.5,96.4,0.544
33.3,32117.6,34987.9,0.5625,-0.031,140.5,96.4,0.544
33.32,32266.2,35483.0,1.2819,1.188,140.5,96.4,0.544
33.34,32297.1,35705.4,1.4316,1.7355,140.5,96.4,0.544
33.36,32362.9,35736.1,1.7506,1.8109,140.5,96.4,0.544
33.38,32280.9,35636.9,1.3534,1.5667,140.5,96.4,0.544
33.4,32337.3,35544.2,1.6266,1.3385,140.5,96.4,0.544
33.42,32189.4,35266.0,0.9101,0.6538,140.5,96.4,0.544
33.44,32041.6,35209.5,0.1943,0.5147,140.5,96.4,0.544
33.46,32020.8,35051.5,0.0934,0.1257,140.5,96.4,0.544
33.48,31969.9,35036.8,-0.1533,0.0895,140.5,96.4,0.544
33.5,32008.9,34965.0,0.0359,-0.0873,140.5,96.4,0.544
33.52,31907.8,34821.6,-0.4538,-0.4402,140.5,96.4,0.544
33.54,31897.5,34769.0,-0.5037,-0.5697,140.5,96.4,0.544
33.56,31830.9,34613.6,-0.8264,-0.9525,140.5,96.4,0.544
33.58,31889.4,34653.1,-0.5432,-0.8551,140.5,96.4,0.544
33.6,31799.1,34590.3,-0.9805,-1.0096,140.5,96.4,0.544
33.62,31755.6,34635.8,-1.1911,-0.8977,140.5,96.4,0.544
33.64,31739.9,34574.9,-1.2673,-1.0476,140.5,96.4,0.544
33.66,31716.1,34566.2,-1.3827,-1.069,140.5,96.4,0.544
33.68,31729.0,34475.0,-1.3202,-1.2936,140.5,96.4,0.544
33.7,31834.0,34604.8,-0.8113,-0.9739,140.5,96.4,0.544
33.72,32045.4,34992.6,0.2124,-0.0192,140.5,96.4,0.544
33.74,32156.5,35290.6,0.7507,0.7143,140.5,96.4,0.544
33.76,32279.2,35660.1,1.3453,1.6238,140.5,96.4,0.544
33.78,32238.7,35730.5,1.1487,1.7971,140.5,96.4,0.544
33.8,32305.6,35743.2,1.4729,1.8284,140.5,96.4,0.544
33.82,32374.8,35507.6,1.8081,1.2484,140.5,96.4,0.544
33.84,32204.7,35325.6,0.9842,0.8004,140.5,96.4,0.544
33.86,32094.6,35207.2,0.4512,0.509,140.5,96.4,0.544
33.88,32032.8,35145.5,0.1514,0.3571,140.5,96.4,0.544
33.9,32036.7,35117.1,0.1705,0.2871,140.5,96.4,0.544
33.92,32041.0,34993.1,0.1912,-0.0181,140.5,96.4,0.544
33.94,31930.7,34888.1,-0.3432,-0.2767,140.5,96.4,0.544
33.96,31904.4,34823.8,-0.4702,-0.435,140.5,96.4,0.544
33.98,31852.8,34803.3,-0.7203,-0.4853,140.5,96.4,0.544
34.0,31864.1,34619.0,-0.6656,-0.9391,140.5,96.4,0.544
34.02,31820.0,34617.9,-0.8793,-0.9418,140.5,96.4,0.544
34.04,31772.5,34621.9,-1.1094,-0.932,140.5,96.4,0.544
34.06,31775.4,34506.2,-1.0954,-1.2168,140.5,96.4,0.544
34.08,31726.4,34495.7,-1.3326,-1.2425,140.5,96.4,0.544
34.1,31624.3,34525.1,-1.8271,-1.1703,140.5,96.4,0.544
34.12,31779.6,34528.7,-1.0748,-1.1614,140.5,96.4,0.544
34.14,31981.1,34857.6,-0.0987,-0.3517,140.5,96.4,0.544
34.16,32076.5,35187.9,0.3632,0.4614,140.5,96.4,0.544
34.18,32209.6,35441.5,1.008,1.0858,140.5,96.4,0.544
34.2,32343.1,35705.3,1.6546,1.7352,140.5,96.4,0.544
34.22,32381.1,35799.7,1.8388,1.9676,140.5,96.4,0.544
34.24,32232.4,35574.4,1.1185,1.4129,140.5,96.4,0.544
34.26,32111.0,35429.8,0.5303,1.057,140.5,96.4,0.544
34.28,32129.0,35273.2,0.6174,0.6715,140.5,96.4,0.544
34.3,32090.6,35210.1,0.4317,0.5162,140.5,96.4,0.544
34.32,32009.8,35046.8,0.04,0.1141,140.5,96.4,0.544
34.34,32109.9,34944.3,0.5248,-0.1383,140.5,96.4,0.544
34.36,31980.8,35048.6,-0.1005,0.1184,140.5,96.4,0.544
34.38,31904.3,34948.3,-0.4711,-0.1283,140.5,96.4,0.544
34.4,31902.2,34749.0,-0.4808,-0.619,140.5,96.4,0.544
34.42,31838.4,34693.1,-0.7902,-0.7566,140.5,96.4,0.544
34.44,31932.5,34672.0,-0.3342,-0.8087,140.5,96.4,0.544
34.46,31813.2,34660.5,-0.912,-0.837,140.5,96.4,0.544
34.48,31719.7,34594.3,-1.365,-0.9998,140.5,96.4,0.544
34.5,31793.0,34480.4,-1.0102,-1.2802,140.5,96.4,0.544
34.52,31750.0,34427.7,-1.2184,-1.4101,140.5,96.4,0.544
34.54,31705.8,34513.7,-1.4324,-1.1984,140.5,96.4,0.544
34.56,31935.9,34717.6,-0.3177,-0.6964,140.5,96.4,0.544
34.58,32037.7,35104.5,0.1751,0.2562,140.5,96.4,0.544
34.6,32235.1,35332.0,1.1315,0.8163,140.5,96.4,0.544
34.62,32299.9,35613.4,1.4455,1.509,140.5,96.4,0.544
34.64,32447.2,35806.6,2.1587,1.9845,140.5,96.4,0.544
34.66,32376.4,35677.9,1.8159,1.6677,140.5,96.4,0.544
34.68,32180.8,35442.8,0.8684,1.089,140.5,96.4,0.544
34.7,32100.3,35292.5,0.4784,0.719,140.5,96.4,0.544
34.72,32121.8,35193.7,0.5825,0.4757,140.5,96.4,0.544
34.74,32031.7,35161.5,0.1464,0.3964,140.5,96.4,0.544
34.76,32006.1,34960.3,0.0223,-0.0988,140.5,96.4,0.544
34.78,32011.4,35093.5,0.0478,0.2289,140.5,96.4,0.544
34.8,31895.1,34891.7,-0.5154,-0.2678,140.5,96.4,0.544
34.82,31862.3,34700.7,-0.6745,-0.738,140.5,96.4,0.544
34.84,31866.8,34698.2,-0.6525,-0.7441,140.5,96.4,0.544
34.86,31976.1,34632.3,-0.123,-0.9064,140.5,96.4,0.544
34.88,31809.9,34709.5,-0.9282,-0.7162,140.5,96.4,0.544
34.9,31862.2,34656.7,-0.6748,-0.8462,140.5,96.4,0.544
34.92,31760.3,34580.9,-1.1685,-1.0329,140.5,96.4,0.544
34.94,31804.0,34500.7,-0.9565,-1.2302,140.5,96.4,0.544
34.96,31776.1,34496.9,-1.0919,-1.2396,140.5,96.4,0.544
34.98,31764.2,34672.6,-1.1494,-0.8072,140.5,96.4,0.544
35.0,31925.6,34960.8,-0.3677,-0.0977,140.5,96.4,0.544
35.02,32065.2,35287.5,0.3087,0.7067,140.5,96.4,0.544
35.04,32310.9,35554.1,1.4987,1.3629,140.5,96.4,0.544
35.06,32403.7,35711.6,1.948,1.7507,140.5,96.4,0.544
35.08,32440.6,35794.4,2.127,1.9546,140.5,96.4,0.544
35.1,32371.2,35546.2,1.7907,1.3436,140.5,96.4,0.544
35.12,32128.7,35371.6,0.6159,0.9136,140.5,96.4,0.544
35.14,32184.2,35117.9,0.8848,0.2892,140.5,96.4,0.544
35.16,32154.9,35179.0,0.743,0.4395,140.5,96.4,0.544
35.18,32046.5,35120.2,0.2179,0.2947,140.5,96.4,0.544
35.2,32021.8,34993.6,0.0984,-0.0169,140.5,96.4,0.544
35.22,31957.3,34960.0,-0.2141,-0.0996,140.5,96.4,0.544
35.24,31886.5,34811.3,-0.5568,-0.4656,140.5,96.4,0.544
35.26,31903.9,34798.5,-0.4727,-0.4973,140.5,96.4,0.544
35.28,31919.0,34589.2,-0.3999,-1.0124,140.5,96.4,0.544
35.3,31839.3,34685.8,-0.7856,-0.7747,140.5,96.4,0.544
35.32,31801.6,34640.1,-0.9685,-0.8872,140.5,96.4,0.544
35.34,31817.3,34611.2,-0.8923,-0.9582,140.5,96.4,0.544
35.36,31729.4,34417.0,-1.3178,-1.4362,140.5,96.4,0.544
35.38,31772.1,34451.6,-1.1114,-1.3513,140.5,96.4,0.544
35.4,31818.9,34528.8,-0.8845,-1.161,140.5,96.4,0.544
35.42,31921.3,34782.9,-0.3884,-0.5356,140.5,96.4,0.544
35.44,32057.0,35105.4,0.2685,0.2583,140.5,96.4,0.544
35.46,32278.5,35588.8,1.3419,1.4483,140.5,96.4,0.544
35.48,32332.6,35756.6,1.6036,1.8616,140.5,96.4,0.544
35.5,32290.6,35739.6,1.4003,1.8195,140.5,96.4,0.544
35.52,32301.2,35604.5,1.4516,1.487,140.5,96.4,0.544
35.54,32100.2,35481.7,0.4779,1.1848,140.5,96.4,0.544
35.56,32139.1,35258.8,0.6664,0.636,140.5,96.4,0.544
35.58,32180.8,35195.5,0.8682,0.4802,140.5,96.4,0.544
35.6,32083.9,35104.9,0.3993,0.2571,140.5,96.4,0.544
35.62,32055.5,34950.5,0.2614,-0.123,140.5,96.4,0.544
35.64,31996.7,34953.7,-0.0233,-0.1151,140.5,96.4,0.544
35.66,31904.5,34811.6,-0.4701,-0.4651,140.5,96.4,0.544
35.68,31834.1,34771.5,-0.8111,-0.5637,140.5,96.4,0.544
35.7,31832.4,34661.8,-0.8189,-0.8338,140.5,96.4,0.544
35.72,31913.0,34686.7,-0.4288,-0.7725,140.5,96.4,0.544
35.74,31764.5,34674.2,-1.1482,-0.8031,140.5,96.4,0.544
35.76,31813.1,34584.1,-0.9127,-1.025,140.5,96.4,0.544
35.78,31713.9,34437.7,-1.3929,-1.3854,140.5,96.4,0.544
35.8,31699.3,34382.2,-1.464,-1.522,140.5,96.4,0.544
35.82,31823.4,34539.8,-0.8626,-1.1341,140.5,96.4,0.544
35.84,31770.1,34707.0,-1.1208,-0.7224,140.5,96.4,0.544
35.86,32045.6,35047.6,0.2138,0.116,140.5,96.4,0.544
35.88,32223.8,35432.6,1.0766,1.0639,140.5,96.4,0.544
35.9,32356.7,35756.8,1.7205,1.8618,140.5,96.4,0.544
35.92,32371.1,35769.0,1.7904,1.8919,140.5,96.4,0.544
35.94,32375.0,35670.2,1.8091,1.6487,140.5,96.4,0.544
35.96,32201.3,35513.7,0.9679,1.2634,140.5,96.4,0.544
35.98,32125.8,35336.5,0.602,0.8273,140.5,96.4,0.544
36.0,32121.6,35199.7,0.5816,0.4905,140.5,96.4,0.544
36.02,32146.3,35133.9,0.7015,0.3285,140.5,96.4,0.544
36.04,31997.8,35097.4,-0.0179,0.2386,140.5,96.4,0.544
36.06,31976.4,35026.6,-0.1217,0.0643,140.5,96.4,0.544
36.08,31914.8,34830.4,-0.4199,-0.4186,140.5,96.4,0.544
36.1,31859.9,34661.8,-0.686,-0.8337,140.5,96.4,0.544
36.12,31844.8,34680.3,-0.7593,-0.7881,140.5,96.4,0.544
36.14,31850.1,34583.2,-0.7332,-1.0273,140.5,96.4,0.544
36.16,31832.7,34669.0,-0.8175,-0.8161,140.5,96.4,0.544
36.18,31829.4,34647.3,-0.8335,-0.8694,140.5,96.4,0.544
36.2,31784.2,34569.3,-1.0525,-1.0614,140.5,96.4,0.544
36.22,31792.0,34374.9,-1.015,-1.54,140.5,96.4,0.544
36.24,31670.7,34374.8,-1.6024,-1.5402,140.5,96.4,0.544
36.26,31801.5,34673.6,-0.9689,-0.8047,140.5,96.4,0.544
36.28,32023.9,34945.3,0.1082,-0.1357,140.5,96.4,0.544
36.3,32072.6,35225.7,0.3445,0.5546,140.5,96.4,0.544
36.32,32310.5,35489.1,1.4966,1.2029,140.5,96.4,0.544
36.34,32340.4,35744.4,1.6417,1.8315,140.5,96.4,0.544
36.36,32378.2,35809.2,1.8244,1.9909,140.5,96.4,0.544
36.38,32344.6,35610.7,1.6618,1.5023,140.5,96.4,0.544
36.4,32166.3,35360.3,0.798,0.8858,140.5,96.4,0.544
36.42,32082.7,35212.8,0.3933,0.5228,140.5,96.4,0.544
36.44,32099.0,35152.9,0.4723,0.3752,140.5,96.4,0.544
36.46,31956.0,35080.1,-0.2205,0.196,140.5,96.4,0.544
36.48,32038.8,35058.9,0.1806,0.144,140.5,96.4,0.544
36.5,32035.1,34998.0,0.1625,-0.0061,140.5,96.4,0.544
36.52,31778.8,34764.6,-1.0787,-0.5808,140.5,96.4,0.544
36.54,31881.9,34747.7,-0.5793,-0.6223,140.5,96.4,0.544
36.56,31832.8,34679.0,-0.8172,-0.7913,140.5,96.4,0.544
36.58,31905.4,34665.3,-0.4657,-0.8252,140.5,96.4,0.544
36.6,31816.2,34632.9,-0.8976,-0.9049,140.5,96.4,0.544
36.62,31723.7,34514.8,-1.3456,-1.1956,140.5,96.4,0.544
36.64,31691.0,34435.4,-1.5041,-1.391,140.5,96.4,0.544
36.66,31729.2,34440.7,-1.3192,-1.3781,140.5,96.4,0.544
36.68,31820.1,34642.4,-0.8786,-0.8814,140.5,96.4,0.544
36.7,31849.2,34855.9,-0.7379,-0.3559,140.5,96.4,0.544
36.72,32077.6,35189.7,0.3687,0.466,140.5,96.4,0.544
36.74,32176.3,35471.0,0.8468,1.1584,140.5,96.4,0.544
36.76,32335.9,35668.3,1.6199,1.6442,140.5,96.4,0.544
36.78,32373.8,35784.8,1.8032,1.9308,140.5,96.4,0.544
36.8,32248.1,35674.7,1.1947,1.6598,140.5,96.4,0.544
36.82,32135.2,35500.6,0.6473,1.2312,140.5,96.4,0.544
36.84,32099.8,35183.7,0.476,0.451,140.5,96.4,0.544
36.86,32030.7,35035.4,0.1414,0.086,140.5,96.4,0.544
36.88,31969.8,35155.7,-0.1537,0.3821,140.5,96.4,0.544
36.9,32042.0,35022.9,0.1964,0.0552,140.5,96.4,0.544
36.92,32001.8,34967.7,0.0013,-0.0807,140.5,96.4,0.544
36.94,32036.4,34720.7,0.1692,-0.6888,140.5,96.4,0.544
36.96,31963.8,34718.6,-0.1828,-0.6938,140.5,96.4,0.544
36.98,31732.5,34674.9,-1.3028,-0.8014,140.5,96.4,0.544
37.0,31815.4,34680.1,-0.9016,-0.7886,140.5,96.4,0.544
37.02,31846.0,34694.8,-0.7531,-0.7525,140.5,96.4,0.544
37.04,31715.6,34554.9,-1.3851,-1.0969,140.5,96.4,0.544
37.06,31722.1,34423.1,-1.3532,-1.4212,140.5,96.4,0.544
37.08,31730.5,34506.4,-1.3129,-1.2162,140.5,96.4,0.544
37.1,31751.3,34536.1,-1.2122,-1.1431,140.5,96.4,0.544
37.12,31838.2,34668.7,-0.7911,-0.8168,140.5,96.4,0.544
37.14,31969.2,35029.6,-0.1565,0.0718,140.5,96.4,0.544
37.16,32179.5,35343.3,0.8622,0.844,140.5,96.4,0.544
37.18,32375.4,35595.7,1.8109,1.4653,140.5,96.4,0.544
37.2,32443.4,35694.4,2.1406,1.7084,140.5,96.4,0.544
37.22,32466.1,35663.9,2.2504,1.6333,140.5,96.4,0.544
37.24,32238.6,35578.1,1.1485,1.4219,140.5,96.4,0.544
37.26,32167.7,35298.8,0.805,0.7343,140.5,96.4,0.544
37.28,32101.9,35102.7,0.4862,0.2516,140.5,96.4,0.544
37.3,32192.8,35097.9,0.9264,0.2398,140.5,96.4,0.544
37.32,32026.0,35034.7,0.1186,0.0842,140.5,96.4,0.544
37.34,31998.9,35071.2,-0.0124,0.1741,140.5,96.4,0.544
37.36,31872.7,34828.7,-0.6239,-0.4229,140.5,96.4,0.544
37.38,31883.7,34801.8,-0.5708,-0.4891,140.5,96.4,0.544
37.4,31936.9,34671.4,-0.3127,-0.81,140.5,96.4,0.544
37.42,31828.0,34647.8,-0.8406,-0.8682,140.5,96.4,0.544
37.44,31837.5,34616.8,-0.7944,-0.9445,140.5,96.4,0.544
37.46,31793.5,34651.1,-1.0074,-0.8601,140.5,96.4,0.544
37.48,31671.0,34626.7,-1.601,-0.9202,140.5,96.4,0.544
37.5,31728.1,34402.9,-1.3243,-1.471,140.5,96.4,0.544
37.52,31642.9,34496.5,-1.737,-1.2405,140.5,96.4,0.544
37.54,31878.2,34589.4,-0.5974,-1.0119,140.5,96.4,0.544
37.56,31904.2,34931.6,-0.4714,-0.1695,140.5,96.4,0.544
37.58,32129.6,35190.3,0.6206,0.4674,140.5,96.4,0.544
37.6,32298.6,35603.0,1.439,1.4834,140.5,96.4,0.544
37.62,32416.3,35742.7,2.0091,1.8272,140.5,96.4,0.544
37.64,32303.8,35708.3,1.4645,1.7426,140.5,96.4,0.544
37.66,32260.3,35587.5,1.2533,1.4451,140.5,96.4,0.544
37.68,32258.4,35401.9,1.2443,0.9883,140.5,96.4,0.544
37.7,32115.0,35071.1,0.5498,0.1738,140.5,96.4,0.544
37.72,32130.3,35113.2,0.624,0.2775,140.5,96.4,0.544
37.74,32012.5,35166.2,0.0533,0.408,140.5,96.4,0.544
37.76,32060.2,34967.6,0.2843,-0.0809,140.5,96.4,0.544
37.78,31976.5,34897.8,-0.1211,-0.2528,140.5,96.4,0.544
37.8,31909.8,34760.3,-0.4441,-0.5913,140.5,96.4,0.544
37.82,31794.7,34659.1,-1.0016,-0.8403,140.5,96.4,0.544
37.84,31916.9,34691.8,-0.4097,-0.7599,140.5,96.4,0.544
37.86,31877.9,34689.3,-0.5989,-0.7659,140.5,96.4,0.544
37.88,31782.8,34675.5,-1.0592,-0.8001,140.5,96.4,0.544
37.9,31781.2,34543.3,-1.0671,-1.1254,140.5,96.4,0.544
37.92,31832.4,34503.3,-0.8191,-1.2239,140.5,96.4,0.544
37.94,31824.6,34478.4,-0.857,-1.2853,140.5,96.4,0.544
37.96,31760.5,34499.1,-1.1673,-1.2343,140.5,96.4,0.544
37.98,31890.6,34761.6,-0.5373,-0.588,140.5,96.4,0.544
38.0,32012.7,35210.9,0.0542,0.518,140.5,96.4,0.544
38.02,32181.8,35555.1,0.8735,1.3654,140.5,96.4,0.544
38.04,32257.5,35682.7,1.2402,1.6796,140.5,96.4,0.544
38.06,32345.5,35755.2,1.6663,1.858,140.5,96.4,0.544
38.08,32402.2,35650.3,1.9407,1.5997,140.5,96.4,0.544
38.1,32199.3,35455.6,0.9581,1.1204,140.5,96.4,0.544
38.12,32134.4,35282.4,0.6438,0.694,140.5,96.4,0.544
38.14,32040.0,35221.5,0.1862,0.5442,140.5,96.4,0.544
38.16,32037.1,35087.1,0.1722,0.2132,140.5,96.4,0.544
38.18,32061.7,35100.6,0.2913,0.2464,140.5,96.4,0.544
38.2,32030.8,34868.7,0.142,-0.3243,140.5,96.4,0.544
38.22,31854.3,34818.0,-0.7132,-0.4492,140.5,96.4,0.544
38.24,31919.5,34691.7,-0.3973,-0.76,140.5,96.4,0.544
38.26,31792.4,34703.8,-1.0126,-0.7304,140.5,96.4,0.544
38.28,31897.2,34721.3,-0.505,-0.6873,140.5,96.4,0.544
38.3,31817.3,34655.3,-0.8924,-0.8497,140.5,96.4,0.544
38.32,31731.6,34648.3,-1.3076,-0.8669,140.5,96.4,0.544
38.34,31701.6,34546.5,-1.4525,-1.1176,140.5,96.4,0.544
38.36,31712.2,34520.6,-1.4012,-1.1813,140.5,96.4,0.544
38.38,31797.2,34489.2,-0.9894,-1.2585,140.5,96.4,0.544
38.4,31801.1,34788.0,-0.9709,-0.523,140.5,96.4,0.544
38.42,32009.5,34953.3,0.0387,-0.1161,140.5,96.4,0.544
38.44,32176.4,35339.1,0.847,0.8335,140.5,96.4,0.544
38.46,32335.7,35638.5,1.6187,1.5706,140.5,96.4,0.544
38.48,32445.6,35781.1,2.1512,1.9219,140.5,96.4,0.544
38.5,32370.8,35706.4,1.7885,1.7378,140.5,96.4,0.544
38.52,32310.4,35441.3,1.496,1.0853,140.5,96.4,0.544
38.54,32166.9,35291.4,0.8011,0.7161,140.5,96.4,0.544
38.56,32080.2,35059.3,0.381,0.1449,140.5,96.4,0.544
38.58,32037.4,35107.5,0.174,0.2635,140.5,96.4,0.544
38.6,32140.2,35072.2,0.672,0.1767,140.5,96.4,0.544
38.62,32030.9,35062.0,0.1426,0.1516,140.5,96.4,0.544
38.64,31926.0,35031.4,-0.366,0.0761,140.5,96.4,0.544
38.66,31947.1,34810.2,-0.2637,-0.4684,140.5,96.4,0.544
38.68,31812.1,34783.6,-0.9176,-0.534,140.5,96.4,0.544
38.7,31812.0,34648.3,-0.9177,-0.8669,140.5,96.4,0.544
38.72,31873.1,34704.8,-0.6218,-0.7279,140.5,96.4,0.544
38.74,31824.0,34690.6,-0.8596,-0.7628,140.5,96.4,0.544
38.76,31858.0,34641.7,-0.6952,-0.8833,140.5,96.4,0.544
38.78,31757.5,34465.9,-1.1817,-1.316,140.5,96.4,0.544
38.8,31663.7,34512.2,-1.6364,-1.2021,140.5,96.4,0.544
38.82,31783.2,34531.7,-1.0573,-1.1539,140.5,96.4,0.544
38.84,31948.9,34896.3,-0.2549,-0.2564,140.5,96.4,0.544
38.86,32207.8,35256.1,0.9993,0.6294,140.5,96.4,0.544
38.88,32329.9,35531.3,1.5905,1.3069,140.5,96.4,0.544
38.9,32365.0,35728.3,1.7607,1.7919,140.5,96.4,0.544
38.92,32382.3,35708.9,1.8443,1.7441,140.5,96.4,0.544
38.94,32350.6,35467.7,1.6907,1.1503,140.5,96.4,0.544
38.96,32212.9,35414.1,1.0239,1.0183,140.5,96.4,0.544
38.98,32006.6,35228.1,0.0244,0.5604,140.5,96.4,0.544
39.0,32017.6,35184.2,0.0781,0.4522,140.5,96.4,0.544
39.02,32160.6,35142.2,0.7707,0.3489,140.5,96.4,0.544
39.04,32033.6,34941.5,0.1554,-0.1452,140.5,96.4,0.544
39.06,31981.7,34924.2,-0.096,-0.1878,140.5,96.4,0.544
39.08,31958.1,34821.3,-0.2105,-0.4412,140.5,96.4,0.544
39.1,31870.8,34699.7,-0.6331,-0.7405,140.5,96.4,0.544
39.12,31858.7,34610.5,-0.6919,-0.9601,140.5,96.4,0.544
39.14,31778.9,34625.6,-1.0781,-0.9229,140.5,96.4,0.544
39.16,31813.5,34585.3,-0.9106,-1.0219,140.5,96.4,0.544
39.18,31744.7,34610.8,-1.2439,-0.9594,140.5,96.4,0.544
39.2,31713.3,34447.2,-1.3958,-1.3621,140.5,96.4,0.544
39.22,31740.3,34383.4,-1.2653,-1.5191,140.5,96.4,0.544
39.24,31762.6,34613.7,-1.157,-0.9521,140.5,96.4,0.544
39.26,31881.1,34729.1,-0.5832,-0.6681,140.5,96.4,0.544
39.28,31987.0,35082.5,-0.0703,0.2019,140.5,96.4,0.544
39.3,32226.8,35512.2,1.0912,1.2599,140.5,96.4,0.544
39.32,32384.0,35722.6,1.8528,1.7778,140.5,96.4,0.544
39.34,32285.8,35764.8,1.3772,1.8817,140.5,96.4,0.544
39.36,32331.8,35677.8,1.5996,1.6674,140.5,96.4,0.544
39.38,32141.3,35385.9,0.6771,0.9489,140.5,96.4,0.544
39.4,32035.6,35212.0,0.1649,0.5208,140.5,96.4,0.544
39.42,32117.4,35137.6,0.5612,0.3377,140.5,96.4,0.544
39.44,32141.2,35083.0,0.6764,0.2033,140.5,96.4,0.544
39.46,32005.3,35030.6,0.0183,0.0742,140.5,96.4,0.544
39.48,31916.8,34929.0,-0.4102,-0.176,140.5,96.4,0.544
39.5,31987.3,34874.0,-0.0687,-0.3113,140.5,96.4,0.544
39.52,31891.5,34789.9,-0.5329,-0.5183,140.5,96.4,0.544
39.54,31840.0,34752.4,-0.7823,-0.6106,140.5,96.4,0.544
39.56,31811.5,34650.1,-0.9203,-0.8626,140.5,96.4,0.544
39.58,31823.8,34614.0,-0.8608,-0.9515,140.5,96.4,0.544
39.6,31771.0,34596.7,-1.1166,-0.9939,140.5,96.4,0.544
39.62,31749.8,34472.2,-1.2194,-1.3005,140.5,96.4,0.544
39.64,31619.2,34489.8,-1.8521,-1.2571,140.5,96.4,0.544
39.66,31728.6,34449.7,-1.322,-1.3558,140.5,96.4,0.544
39.68,31836.9,34670.9,-0.7972,-0.8114,140.5,96.4,0.544
39.7,32022.2,35097.0,0.1003,0.2376,140.5,96.4,0.544
39.72,32184.6,35459.4,0.8869,1.1297,140.5,96.4,0.544
39.74,32318.9,35682.0,1.5374,1.6777,140.5,96.4,0.544
39.76,32404.9,35825.9,1.9538,2.0321,140.5,96.4,0.544
39.78,32342.3,35700.8,1.6505,1.7241,140.5,96.4,0.544
39.8,32286.2,35483.2,1.379,1.1885,140.5,96.4,0.544
39.82,32216.2,35297.4,1.0398,0.7309,140.5,96.4,0.544
39.84,32046.3,35156.7,0.2169,0.3847,140.5,96.4,0.544
39.86,32054.1,35109.7,0.2547,0.2688,140.5,96.4,0.544
39.88,31995.1,35147.7,-0.0311,0.3625,140.5,96.4,0.544
39.9,32042.2,35058.0,0.197,0.1417,140.5,96.4,0.544
39.92,31953.2,34913.0,-0.2341,-0.2153,140.5,96.4,0.544
39.94,31949.8,34841.9,-0.2506,-0.3904,140.5,96.4,0.544
39.96,31830.9,34697.2,-0.8265,-0.7465,140.5,96.4,0.544
39.98,31841.6,34754.9,-0.7748,-0.6045,140.5,96.4,0.544
40.0,31830.3,34639.0,-0.8292,-0.8898,140.5,96.4,0.544
40.02,31851.7,34651.1,-0.7256,-0.8599,140.5,96.4,0.544
40.04,31803.8,34631.4,-0.9576,-0.9085,140.5,96.4,0.544
40.06,31801.9,34586.0,-0.9668,-1.0203,140.5,96.4,0.544
40.08,31748.9,34463.1,-1.2238,-1.3228,140.5,96.4,0.544
40.1,31728.7,34594.5,-1.3214,-0.9993,140.5,96.4,0.544
40.12,31932.1,34824.2,-0.3361,-0.434,140.5,96.4,0.544
40.14,32011.2,35256.1,0.047,0.6294,140.5,96.4,0.544
40.16,32310.2,35563.3,1.4952,1.3855,140.5,96.4,0.544
40.18,32384.9,35794.6,1.857,1.9549,140.5,96.4,0.544
40.2,32325.0,35720.7,1.5668,1.7731,140.5,96.4,0.544
40.22,32341.7,35513.3,1.6478,1.2626,140.5,96.4,0.544
40.24,32202.6,35394.9,0.9738,0.971,140.5,96.4,0.544
40.26,32101.2,35251.4,0.4829,0.6178,140.5,96.4,0.544
40.28,32013.2,35149.4,0.0564,0.3668,140.5,96.4,0.544
40.3,32033.2,35038.2,0.1534,0.093,140.5,96.4,0.544
40.32,32009.0,35016.1,0.0361,0.0386,140.5,96.4,0.544
40.34,31919.7,35005.3,-0.3963,0.012,140.5,96.4,0.544
40.36,31871.1,34751.4,-0.6316,-0.6132,140.5,96.4,0.544
40.38,31885.0,34834.8,-0.5645,-0.4078,140.5,96.4,0.544
40.4,31882.1,34750.9,-0.5782,-0.6143,140.5,96.4,0.544
40.42,31847.2,34604.5,-0.7475,-0.9749,140.5,96.4,0.544
40.44,31847.1,34579.8,-0.7477,-1.0356,140.5,96.4,0.544
40.46,31772.0,34602.3,-1.1116,-0.9803,140.5,96.4,0.544
40.48,31864.8,34493.5,-0.662,-1.2481,140.5,96.4,0.544
40.5,31719.3,34516.1,-1.3669,-1.1925,140.5,96.4,0.544
40.52,31766.6,34549.5,-1.1378,-1.1102,140.5,96.4,0.544
40.54,31845.3,34701.2,-0.7568,-0.7368,140.5,96.4,0.544
40.56,32041.5,35109.8,0.1935,0.2692,140.5,96.4,0.544
40.58,32249.2,35516.6,1.1996,1.2706,140.5,96.4,0.544
40.6,32375.1,35683.1,1.8094,1.6805,140.5,96.4,0.544
40.62,32342.6,35795.3,1.6524,1.9567,140.5,96.4,0.544
40.64,32369.7,35631.3,1.7836,1.553,140.5,96.4,0.544
40.66,32280.5,35440.6,1.3515,1.0836,140.5,96.4,0.544
40.68,32161.5,35268.5,0.7749,0.6599,140.5,96.4,0.544
40.7,32017.2,35110.8,0.0759,0.2718,140.5,96.4,0.544
40.72,32064.1,35157.2,0.3031,0.3859,140.5,96.4,0.544
40.74,32083.9,35017.4,0.3992,0.0416,140.5,96.4,0.544
40.76,32011.1,34901.9,0.0463,-0.2427,140.5,96.4,0.544
40.78,31811.8,34824.6,-0.919,-0.4329,140.5,96.4,0.544
40.8,31852.6,34716.4,-0.7214,-0.6992,140.5,96.4,0.544
40.82,31865.0,34717.2,-0.6614,-0.6974,140.5,96.4,0.544
40.84,31867.1,34712.6,-0.651,-0.7086,140.5,96.4,0.544
40.86,31767.8,34693.2,-1.1319,-0.7564,140.5,96.4,0.544
40.88,31822.5,34591.5,-0.8672,-1.0069,140.5,96.4,0.544
40.9,31822.8,34449.5,-0.8658,-1.3564,140.5,96.4,0.544
40.92,31665.9,34417.2,-1.6254,-1.436,140.5,96.4,0.544
40.94,31818.2,34460.6,-0.8881,-1.329,140.5,96.4,0.544
40.96,31844.3,34685.4,-0.7617,-0.7757,140.5,96.4,0.544
40.98,31931.3,35011.6,-0.3402,0.0273,140.5,96.4,0.544
41.0,32159.0,35332.3,0.7629,0.817,140.5,96.4,0.544
41.02,32340.8,35599.2,1.6433,1.474,140.5,96.4,0.544
41.04,32296.2,35759.5,1.4276,1.8686,140.5,96.4,0.544
41.06,32375.0,35688.3,1.8089,1.6932,140.5,96.4,0.544
41.08,32278.6,35473.6,1.3424,1.1648,140.5,96.4,0.544
41.1,32192.5,35321.8,0.9252,0.7911,140.5,96.4,0.544
41.12,32150.4,35214.9,0.7214,0.5279,140.5,96.4,0.544
41.14,32086.6,35099.2,0.4123,0.243,140.5,96.4,0.544
41.16,32070.9,35058.8,0.3361,0.1435,140.5,96.4,0.544
41.18,32035.9,35011.5,0.1663,0.0271,140.5,96.4,0.544
41.2,31864.8,34828.1,-0.6622,-0.4242,140.5,96.4,0.544
41.22,31863.6,34761.3,-0.6679,-0.5887,140.5,96.4,0.544
41.24,31839.2,34727.6,-0.7864,-0.6718,140.5,96.4,0.544
41.26,31817.1,34660.1,-0.8932,-0.8379,140.5,96.4,0.544
41.28,31889.9,34669.7,-0.5406,-0.8144,140.5,96.4,0.544
41.3,31741.4,34554.9,-1.2601,-1.097,140.5,96.4,0.544
41.32,31809.4,34536.3,-0.9306,-1.1427,140.5,96.4,0.544
41.34,31723.3,34502.6,-1.3474,-1.2257,140.5,96.4,0.544
41.36,31736.6,34445.2,-1.2831,-1.367,140.5,96.4,0.544
41.38,31815.6,34577.5,-0.9003,-1.0413,140.5,96.4,0.544
41.4,31894.6,34821.3,-0.518,-0.441,140.5,96.4,0.544
41.42,32119.3,35374.5,0.5704,0.9209,140.5,96.4,0.544
41.44,32231.4,35639.0,1.1134,1.572,140.5,96.4,0.544
41.46,32285.1,35796.2,1.3735,1.9588,140.5,96.4,0.544
41.48,32384.2,35718.6,1.8537,1.7679,140.5,96.4,0.544
41.5,32372.8,35657.5,1.7983,1.6175,140.5,96.4,0.544
41.52,32234.7,35356.4,1.1296,0.8763,140.5,96.4,0.544
41.54,32093.2,35209.3,0.4441,0.5141,140.5,96.4,0.544
41.56,32028.9,35146.6,0.1327,0.3596,140.5,96.4,0.544
41.58,32003.8,35034.2,0.0113,0.083,140.5,96.4,0.544
41.6,32080.3,35040.2,0.3819,0.0977,140.5,96.4,0.544
41.62,32007.0,34951.0,0.0267,-0.1218,140.5,96.4,0.544
41.64,31845.4,34767.6,-0.7561,-0.5732,140.5,96.4,0.544
41.66,31884.0,34766.2,-0.5693,-0.5767,140.5,96.4,0.544
41.68,31817.2,34603.2,-0.8928,-0.9781,140.5,96.4,0.544
41.7,31831.1,34634.0,-0.8252,-0.902,140.5,96.4,0.544
41.72,31905.6,34710.6,-0.4646,-0.7136,140.5,96.4,0.544
41.74,31757.1,34589.4,-1.1839,-1.0119,140.5,96.4,0.544
41.76,31770.4,34454.6,-1.1196,-1.3437,140.5,96.4,0.544
41.78,31694.3,34470.3,-1.4882,-1.3052,140.5,96.4,0.544
41.8,31710.7,34517.3,-1.4084,-1.1894,140.5,96.4,0.544
41.82,31832.5,34775.2,-0.8184,-0.5546,140.5,96.4,0.544
41.84,32011.6,35098.4,0.0489,0.2412,140.5,96.4,0.544
41.86,32238.3,35443.3,1.1469,1.0901,140.5,96.4,0.544
41.88,32441.1,35782.2,2.1295,1.9244,140.5,96.4,0.544
41.9,32477.7,35729.4,2.3064,1.7944,140.5,96.4,0.544
41.92,32247.8,35632.8,1.193,1.5566,140.5,96.4,0.544
41.94,32133.6,35443.8,0.6398,1.0914,140.5,96.4,0.544
41.96,32146.2,35257.2,0.7006,0.6322,140.5,96.4,0.544
41.98,32104.5,35215.8,0.4989,0.5302,140.5,96.4,0.544
42.0,31987.6,35130.0,-0.0673,0.3189,140.5,96.4,0.544
42.02,32111.9,35130.6,0.5348,0.3205,140.5,96.4,0.544
42.04,31999.4,34913.5,-0.01,-0.214,140.5,96.4,0.544
42.06,31859.5,34838.0,-0.6879,-0.3999,140.5,96.4,0.544
42.08,31902.3,34793.6,-0.4805,-0.5092,140.5,96.4,0.544
42.1,31814.1,34722.5,-0.9076,-0.6842,140.5,96.4,0.544
42.12,31886.2,34716.6,-0.5585,-0.6987,140.5,96.4,0.544
42.14,31947.1,34762.3,-0.2635,-0.5864,140.5,96.4,0.544
42.16,31766.0,34682.0,-1.1407,-0.784,140.5,96.4,0.544
42.18,31757.6,34556.4,-1.1813,-1.0931,140.5,96.4,0.544
42.2,31698.6,34481.2,-1.4671,-1.2783,140.5,96.4,0.544
42.22,31790.2,34462.1,-1.0237,-1.3254,140.5,96.4,0.544
42.24,31796.5,34682.9,-0.9931,-0.7817,140.5,96.4,0.544
42.26,32074.9,34925.0,0.3555,-0.1857,140.5,96.4,0.544
42.28,32113.3,35354.1,0.5414,0.8705,140.5,96.4,0.544
42.3,32275.4,35649.5,1.3268,1.5979,140.5,96.4,0.544
42.32,32368.3,35777.4,1.7765,1.9127,140.5,96.4,0.544
42.34,32324.1,35636.4,1.5626,1.5654,140.5,96.4,0.544
42.36,32263.1,35485.0,1.267,1.1928,140.5,96.4,0.544
42.38,32175.7,35356.2,0.8439,0.8758,140.5,96.4,0.544
42.4,32158.5,35111.8,0.7602,0.274,140.5,96.4,0.544
42.42,32119.0,35132.3,0.5689,0.3246,140.5,96.4,0.544
42.44,31971.3,35094.0,-0.1462,0.2303,140.5,96.4,0.544
42.46,31973.1,35012.3,-0.1375,0.0291,140.5,96.4,0.544
42.48,31996.0,34956.6,-0.0267,-0.108,140.5,96.4,0.544
42.5,31889.7,34793.1,-0.5415,-0.5104,140.5,96.4,0.544
42.52,31850.3,34762.3,-0.7323,-0.5863,140.5,96.4,0.544
42.54,31908.2,34701.6,-0.4521,-0.7358,140.5,96.4,0.544
42.56,31842.5,34655.3,-0.7702,-0.8496,140.5,96.4,0.544
42.58,31808.3,34653.5,-0.9359,-0.8541,140.5,96.4,0.544
42.6,31727.0,34539.1,-1.3296,-1.1359,140.5,96.4,0.544
42.62,31654.9,34467.6,-1.6787,-1.3118,140.5,96.4,0.544
42.64,31708.1,34399.7,-1.4212,-1.4791,140.5,96.4,0.544
42.66,31776.6,34540.4,-1.0893,-1.1325,140.5,96.4,0.544
42.68,31965.8,34869.0,-0.1728,-0.3236,140.5,96.4,0.544
42.7,32062.4,35192.9,0.2952,0.4737,140.5,96.4,0.544
42.72,32218.2,35504.4,1.0497,1.2406,140.5,96.4,0.544
42.74,32356.2,35718.2,1.7183,1.767,140.5,96.4,0.544
42.76,32325.0,35695.9,1.5671,1.7121,140.5,96.4,0.544
42.78,32246.5,35643.0,1.1866,1.5818,140.5,96.4,0.544
42.8,32183.0,35412.8,0.8793,1.015,140.5,96.4,0.544
42.82,32175.8,35235.2,0.8443,0.578,140.5,96.4,0.544
42.84,32036.7,35165.7,0.1705,0.4069,140.5,96.4,0.544
42.86,32007.4,35051.9,0.0286,0.1267,140.5,96.4,0.544
42.88,32023.7,35024.9,0.1073,0.0601,140.5,96.4,0.544
42.9,32097.5,34922.4,0.4649,-0.1922,140.5,96.4,0.544
42.92,31915.5,34896.2,-0.4164,-0.2566,140.5,96.4,0.544
42.94,31901.6,34786.6,-0.4839,-0.5266,140.5,96.4,0.544
42.96,31758.3,34675.9,-1.1779,-0.7991,140.5,96.4,0.544
42.98,31852.6,34693.8,-0.7211,-0.755,140.5,96.4,0.544
43.0,31839.3,34770.8,-0.7858,-0.5654,140.5,96.4,0.544
43.02,31831.4,34626.5,-0.8241,-0.9205,140.5,96.4,0.544
43.04,31734.4,34454.5,-1.2939,-1.3441,140.5,96.4,0.544
43.06,31783.3,34460.8,-1.0568,-1.3285,140.5,96.4,0.544
43.08,31835.1,34468.2,-0.8059,-1.3102,140.5,96.4,0.544
43.1,31869.1,34748.6,-0.6412,-0.62,140.5,96.4,0.544
43.12,32088.9,35020.3,0.4233,0.0489,140.5,96.4,0.544
43.14,32243.8,35465.2,1.1734,1.1442,140.5,96.4,0.544
43.16,32339.6,35556.9,1.6375,1.3699,140.5,96.4,0.544
43.18,32425.1,35724.6,2.0519,1.7826,140.5,96.4,0.544
43.2,32340.0,35676.2,1.6395,1.6634,140.5,96.4,0.544
43.22,32266.7,35447.6,1.2845,1.1007,140.5,96.4,0.544
43.24,32050.9,35254.6,0.2393,0.6256,140.5,96.4,0.544
43.26,32178.6,35186.1,0.8579,0.457,140.5,96.4,0.544
43.28,32066.8,35146.7,0.3164,0.36,140.5,96.4,0.544
43.3,32042.2,35046.1,0.1971,0.1122,140.5,96.4,0.544
43.32,31962.4,35067.0,-0.1893,0.1639,140.5,96.4,0.544
43.34,31941.9,34857.1,-0.2888,-0.353,140.5,96.4,0.544
43.36,31874.9,34737.3,-0.6134,-0.6479,140.5,96.4,0.544
43.38,31874.0,34774.1,-0.6174,-0.5572,140.5,96.4,0.544
43.4,31887.5,34613.3,-0.5523,-0.9532,140.5,96.4,0.544
43.42,31874.5,34601.8,-0.6151,-0.9813,140.5,96.4,0.544
43.44,31781.0,34620.0,-1.0682,-0.9365,140.5,96.4,0.544
43.46,31763.7,34611.5,-1.1521,-0.9576,140.5,96.4,0.544
43.48,31793.8,34455.3,-1.0062,-1.3421,140.5,96.4,0.544
43.5,31797.1,34450.7,-0.9903,-1.3534,140.5,96.4,0.544
43.52,31774.6,34586.7,-1.0989,-1.0185,140.5,96.4,0.544
43.54,31923.7,34914.2,-0.3767,-0.2123,140.5,96.4,0.544
43.56,32191.0,35256.6,0.9178,0.6307,140.5,96.4,0.544
43.58,32286.7,35594.0,1.3816,1.4611,140.5,96.4,0.544
43.6,32329.8,35818.5,1.59,2.0138,140.5,96.4,0.544
43.62,32357.2,35681.0,1.723,1.6754,140.5,96.4,0.544
43.64,32240.7,35585.8,1.1585,1.441,140.5,96.4,0.544
43.66,32260.9,35309.9,1.2566,0.7618,140.5,96.4,0.544
43.68,32118.9,35184.9,0.5686,0.454,140.5,96.4,0.544
43.7,32060.6,35125.5,0.2863,0.3079,140.5,96.4,0.544
43.72,32029.1,35176.5,0.1336,0.4333,140.5,96.4,0.544
43.74,32115.1,35006.5,0.5504,0.0149,140.5,96.4,0.544
43.76,31996.4,34894.5,-0.0247,-0.2609,140.5,96.4,0.544
43.78,31931.3,34753.0,-0.3401,-0.6091,140.5,96.4,0.544
43.8,31858.9,34709.8,-0.6908,-0.7155,140.5,96.4,0.544
43.82,31781.9,34628.6,-1.0636,-0.9154,140.5,96.4,0.544
43.84,31846.9,34663.8,-0.7489,-0.8287,140.5,96.4,0.544
43.86,31789.1,34653.1,-1.0287,-0.8551,140.5,96.4,0.544
43.88,31773.8,34603.1,-1.1029,-0.9781,140.5,96.4,0.544
43.9,31789.4,34514.7,-1.0276,-1.1959,140.5,96.4,0.544
43.92,31767.4,34529.9,-1.1339,-1.1585,140.5,96.4,0.544
43.94,31961.0,34504.0,-0.1964,-1.2221,140.5,96.4,0.544
43.96,31805.2,34882.8,-0.9507,-0.2897,140.5,96.4,0.544
43.98,32023.1,35283.7,0.1045,0.6973,140.5,96.4,0.544
44.0,32296.0,35507.5,1.4265,1.2483,140.5,96.4,0.544
44.02,32418.9,35676.7,2.0218,1.6646,140.5,96.4,0.544
44.04,32389.5,35759.2,1.8792,1.8678,140.5,96.4,0.544
44.06,32374.5,35598.0,1.8065,1.4709,140.5,96.4,0.544
44.08,32200.7,35413.1,0.9646,1.0158,140.5,96.4,0.544
44.1,32080.3,35237.4,0.3814,0.5833,140.5,96.4,0.544
44.12,32112.1,35133.7,0.5357,0.3279,140.5,96.4,0.544
44.14,32105.4,35099.8,0.5033,0.2445,140.5,96.4,0.544
44.16,32045.9,34975.9,0.2149,-0.0604,140.5,96.4,0.544
44.18,31972.2,34915.3,-0.142,-0.2098,140.5,96.4,0.544
44.2,31901.3,34817.1,-0.4854,-0.4513,140.5,96.4,0.544
44.22,31815.0,34794.2,-0.9032,-0.5078,140.5,96.4,0.544
44.24,31854.8,34668.2,-0.7107,-0.8179,140.5,96.4,0.544
44.26,31814.9,34643.2,-0.9039,-0.8795,140.5,96.4,0.544
44.28,31798.4,34629.1,-0.984,-0.9141,140.5,96.4,0.544
44.3,31862.1,34624.3,-0.6752,-0.9261,140.5,96.4,0.544
44.32,31891.4,34629.9,-0.5331,-0.9121,140.5,96.4,0.544
44.34,31762.3,34438.4,-1.1587,-1.3836,140.5,96.4,0.544
44.36,31765.9,34476.5,-1.1412,-1.29,140.5,96.4,0.544
44.38,31884.5,34715.6,-0.5669,-0.7012,140.5,96.4,0.544
44.4,32025.1,35020.4,0.1142,0.049,140.5,96.4,0.544
44.42,32220.0,35378.5,1.0581,0.9307,140.5,96.4,0.544
44.44,32296.2,35712.3,1.4275,1.7525,140.5,96.4,0.544
44.46,32396.8,35690.5,1.9145,1.6988,140.5,96.4,0.544
44.48,32309.2,35673.7,1.4903,1.6573,140.5,96.4,0.544
44.5,32253.7,35479.2,1.2213,1.1786,140.5,96.4,0.544
44.52,32133.1,35294.6,0.6374,0.7242,140.5,96.4,0.544
44.54,32129.7,35153.3,0.6208,0.3763,140.5,96.4,0.544
44.56,32160.0,35009.1,0.7679,0.0214,140.5,96.4,0.544
44.58,32050.9,35004.6,0.2392,0.0101,140.5,96.4,0.544
44.6,32065.8,34862.3,0.3114,-0.3402,140.5,96.4,0.544
44.62,31924.3,34853.2,-0.374,-0.3625,140.5,96.4,0.544
44.64,31903.7,34804.8,-0.4735,-0.4817,140.5,96.4,0.544
44.66,31792.3,34748.1,-1.0135,-0.6213,140.5,96.4,0.544
44.68,31812.2,34612.6,-0.9171,-0.9549,140.5,96.4,0.544
44.7,31800.3,34551.1,-0.9747,-1.1062,140.5,96.4,0.544
44.72,31813.6,34618.2,-0.9102,-0.9411,140.5,96.4,0.544
44.74,31862.9,34555.5,-0.6715,-1.0954,140.5,96.4,0.544
44.76,31726.4,34451.0,-1.3325,-1.3527,140.5,96.4,0.544
44.78,31683.3,34484.6,-1.5415,-1.27,140.5,96.4,0.544
44.8,31837.9,34558.7,-0.7926,-1.0875,140.5,96.4,0.544
44.82,32027.4,34931.9,0.1256,-0.1689,140.5,96.4,0.544
44.84,32149.3,35310.2,0.7158,0.7625,140.5,96.4,0.544
44.86,32299.4,35567.6,1.4427,1.3961,140.5,96.4,0.544
