timestamp,raw_red,raw_ir,filtered_red,filtered_ir,heart_rate,spo2,ac_dc_ratio
0.0,32007.6,35036.6,0.1184,0.4499,140.8,96.3,0.55
0.02,32043.5,35041.7,0.7051,0.5116,140.8,96.3,0.55
0.04,32076.1,35055.0,1.2394,0.6714,140.8,96.3,0.55
0.06,32085.3,35068.4,1.3907,0.8325,140.8,96.3,0.55
0.08,32016.5,35129.7,0.2638,1.5688,140.8,96.3,0.55
0.1,32033.2,35124.3,0.5375,1.5034,140.8,96.3,0.55
0.12,32022.0,35127.9,0.3533,1.5461,140.8,96.3,0.55
0.14,31989.1,34963.8,-0.1856,-0.4248,140.8,96.3,0.55
0.16,32032.4,35058.0,0.5246,0.7073,140.8,96.3,0.55
0.18,31994.3,35033.2,-0.0994,0.4087,140.8,96.3,0.55
0.2,31998.0,34916.3,-0.0393,-0.9942,140.8,96.3,0.55
0.22,31931.0,34979.1,-1.136,-0.2403,140.8,96.3,0.55
0.24,32102.5,35097.3,1.6725,1.1797,140.8,96.3,0.55
0.26,32001.1,34918.9,0.0118,-0.9635,140.8,96.3,0.55
0.28,31967.1,35007.8,-0.5455,0.1041,140.8,96.3,0.55
0.3,32010.3,34910.3,0.1621,-1.0665,140.8,96.3,0.55
0.32,32010.0,34945.4,0.1564,-0.6451,140.8,96.3,0.55
0.34,31943.4,34874.6,-0.9339,-1.4961,140.8,96.3,0.55
0.36,31990.5,34920.5,-0.1625,-0.9447,140.8,96.3,0.55
0.38,31901.1,35008.6,-1.6269,0.1136,140.8,96.3,0.55
0.4,31994.9,35040.0,-0.0906,0.4911,140.8,96.3,0.55
0.42,32023.1,35042.3,0.3717,0.5187,140.8,96.3,0.55
0.44,32115.6,34916.9,1.8864,-0.9873,140.8,96.3,0.55
0.46,32009.4,35035.9,0.1475,0.4413,140.8,96.3,0.55
0.48,32137.0,35073.8,2.2373,0.8967,140.8,96.3,0.55
0.5,32109.0,35190.6,1.7787,2.3002,140.8,96.3,0.55
0.52,32023.5,35033.4,0.3785,0.4116,140.8,96.3,0.55
0.54,32067.5,35032.4,1.0984,0.4002,140.8,96.3,0.55
0.56,31981.0,34988.7,-0.317,-0.1256,140.8,96.3,0.55
0.58,31997.7,35040.7,-0.044,0.4999,140.8,96.3,0.55
0.6,32055.1,35004.1,0.8954,0.0592,140.8,96.3,0.55
0.62,31923.8,34950.4,-1.2548,-0.5852,140.8,96.3,0.55
0.64,31954.5,34941.3,-0.751,-0.6944,140.8,96.3,0.55
0.66,32010.4,34979.2,0.1644,-0.239,140.8,96.3,0.55
0.68,32014.8,34899.6,0.2363,-1.1956,140.8,96.3,0.55
0.7,31969.1,35060.8,-0.5129,0.7412,140.8,96.3,0.55
0.72,31961.1,34978.2,-0.6435,-0.2516,140.8,96.3,0.55
0.74,31899.0,34849.9,-1.6606,-1.7916,140.8,96.3,0.55
0.76,32004.2,34932.7,0.062,-0.798,140.8,96.3,0.55
0.78,31951.5,34926.7,-0.8001,-0.87,140.8,96.3,0.55
0.8,31950.4,34915.4,-0.8194,-1.0054,140.8,96.3,0.55
0.82,31970.5,34978.7,-0.4896,-0.2452,140.8,96.3,0.55
0.84,32043.8,34931.4,0.7101,-0.813,140.8,96.3,0.55
0.86,32027.6,35017.4,0.4449,0.219,140.8,96.3,0.55
0.88,32045.6,35090.2,0.7395,1.0944,140.8,96.3,0.55
0.9,32001.1,35202.7,0.0107,2.4454,140.8,96.3,0.55
0.92,32113.2,35138.1,1.8477,1.6689,140.8,96.3,0.55
0.94,32102.4,35060.0,1.6698,0.7306,140.8,96.3,0.55
0.96,32024.7,35138.9,0.3977,1.679,140.8,96.3,0.55
0.98,32024.1,34982.5,0.3888,-0.1991,140.8,96.3,0.55
1.0,31993.9,35002.1,-0.1062,0.0357,140.8,96.3,0.55
1.02,32041.7,34964.5,0.6767,-0.4156,140.8,96.3,0.55
1.04,32039.9,34994.7,0.6472,-0.053,140.8,96.3,0.55
1.06,31998.4,35062.5,-0.0321,0.7608,140.8,96.3,0.55
1.08,31969.6,34986.7,-0.5038,-0.1497,140.8,96.3,0.55
1.1,31991.1,35000.5,-0.1524,0.0171,140.8,96.3,0.55
1.12,31971.0,34915.2,-0.4812,-1.0077,140.8,96.3,0.55
1.14,31949.0,34891.4,-0.8424,-1.2943,140.8,96.3,0.55
1.16,31927.9,34892.9,-1.1867,-1.2755,140.8,96.3,0.55
1.18,31942.4,34956.7,-0.9492,-0.5095,140.8,96.3,0.55
1.2,31965.2,34966.3,-0.577,-0.3941,140.8,96.3,0.55
1.22,31989.3,34895.2,-0.1825,-1.2478,140.8,96.3,0.55
1.24,32030.3,34937.2,0.4895,-0.744,140.8,96.3,0.55
1.26,31816.0,34855.3,-3.0202,-1.7268,140.8,96.3,0.55
1.28,31920.8,34992.5,-1.304,-0.0801,140.8,96.3,0.55
1.3,32077.8,35124.8,1.2675,1.5095,140.8,96.3,0.55
1.32,32040.5,35080.4,0.6574,0.9758,140.8,96.3,0.55
1.34,32098.4,35145.4,1.6049,1.7567,140.8,96.3,0.55
1.36,31984.5,35119.0,-0.2602,1.4396,140.8,96.3,0.55
1.38,32102.6,35033.9,1.6745,0.4175,140.8,96.3,0.55
1.4,31975.6,35002.5,-0.4055,0.04,140.8,96.3,0.55
1.42,32095.5,34969.3,1.5576,-0.3586,140.8,96.3,0.55
1.44,32070.9,34983.7,1.1542,-0.1853,140.8,96.3,0.55
1.46,31970.0,34957.0,-0.4981,-0.5054,140.8,96.3,0.55
1.48,31943.8,34982.5,-0.9275,-0.1995,140.8,96.3,0.55
1.5,31981.6,35069.5,-0.3075,0.8455,140.8,96.3,0.55
1.52,32045.8,34965.7,0.743,-0.4011,140.8,96.3,0.55
1.54,31991.4,34900.8,-0.1468,-1.1812,140.8,96.3,0.55
1.56,32004.1,34903.3,0.0613,-1.1513,140.8,96.3,0.55
1.58,32007.8,34887.7,0.1218,-1.3388,140.8,96.3,0.55
1.6,31944.5,34880.0,-0.9148,-1.4305,140.8,96.3,0.55
1.62,31949.8,34960.6,-0.8281,-0.4624,140.8,96.3,0.55
1.64,31941.7,34938.2,-0.9606,-0.7318,140.8,96.3,0.55
1.66,32067.7,34915.2,1.1029,-1.0083,140.8,96.3,0.55
1.68,31941.4,34955.8,-0.9657,-0.5207,140.8,96.3,0.55
1.7,32003.6,34977.8,0.0521,-0.2556,140.8,96.3,0.55
1.72,32087.2,34976.9,1.4217,-0.2671,140.8,96.3,0.55
1.74,32045.9,35129.2,0.7444,1.5628,140.8,96.3,0.55
1.76,32183.6,35101.9,3.0007,1.2346,140.8,96.3,0.55
1.78,32049.5,35086.4,0.8047,1.048,140.8,96.3,0.55
1.8,32087.4,35044.9,1.424,0.5497,140.8,96.3,0.55
1.82,32082.6,34992.0,1.3468,-0.0858,140.8,96.3,0.55
1.84,31997.7,35060.1,-0.0446,0.7321,140.8,96.3,0.55
1.86,31954.0,35040.4,-0.7604,0.4953,140.8,96.3,0.55
1.88,32122.7,34940.6,2.0032,-0.7033,140.8,96.3,0.55
1.9,32125.4,35019.0,2.0466,0.239,140.8,96.3,0.55
1.92,32105.9,35030.7,1.7281,0.3792,140.8,96.3,0.55
1.94,31949.1,34963.7,-0.8403,-0.4259,140.8,96.3,0.55
1.96,32002.3,34997.8,0.0308,-0.0155,140.8,96.3,0.55
1.98,32029.9,34920.3,0.4825,-0.9466,140.8,96.3,0.55
2.0,31913.9,34952.0,-1.4175,-0.5656,140.8,96.3,0.55
2.02,31963.7,34915.8,-0.6012,-1.0009,140.8,96.3,0.55
2.04,31949.0,35051.9,-0.8412,0.6334,140.8,96.3,0.55
2.06,31959.6,34859.3,-0.6681,-1.6794,140.8,96.3,0.55
2.08,32018.0,34890.4,0.2876,-1.3059,140.8,96.3,0.55
2.1,31906.3,34944.6,-1.5413,-0.6552,140.8,96.3,0.55
2.12,32030.6,34966.3,0.4948,-0.3947,140.8,96.3,0.55
2.14,31912.6,35031.7,-1.4378,0.3907,140.8,96.3,0.55
2.16,31974.3,35146.5,-0.4271,1.7697,140.8,96.3,0.55
2.18,32074.5,35108.2,1.2131,1.3095,140.8,96.3,0.55
2.2,32103.8,35070.7,1.6935,0.8591,140.8,96.3,0.55
2.22,32066.5,35137.4,1.0825,1.661,140.8,96.3,0.55
2.24,32008.2,35160.8,0.1284,1.9419,140.8,96.3,0.55
2.26,31961.3,35072.9,-0.6397,0.8863,140.8,96.3,0.55
2.28,32014.7,35022.1,0.2341,0.2754,140.8,96.3,0.55
2.3,31980.5,35067.8,-0.3253,0.8242,140.8,96.3,0.55
2.32,32053.7,34885.8,0.8731,-1.3613,140.8,96.3,0.55
2.34,31861.5,34955.4,-2.2747,-0.5252,140.8,96.3,0.55
2.36,32044.8,34970.3,0.7276,-0.3465,140.8,96.3,0.55
2.38,32007.9,34997.4,0.123,-0.0205,140.8,96.3,0.55
2.4,32015.8,34941.3,0.2526,-0.6949,140.8,96.3,0.55
2.42,31922.3,34905.7,-1.2798,-1.1221,140.8,96.3,0.55
2.44,32019.9,34868.3,0.3188,-1.5716,140.8,96.3,0.55
2.46,31920.8,34938.1,-1.3045,-0.7328,140.8,96.3,0.55
2.48,31964.7,34870.8,-0.5841,-1.5412,140.8,96.3,0.55
2.5,31974.8,34756.7,-0.419,-2.9122,140.8,96.3,0.55
2.52,32077.0,34832.0,1.2549,-2.007,140.8,96.3,0.55
2.54,32066.3,34993.7,1.079,-0.0646,140.8,96.3,0.55
2.56,32007.9,35013.2,0.1224,0.1695,140.8,96.3,0.55
2.58,32173.0,35088.1,2.826,1.0691,140.8,96.3,0.55
2.6,32071.6,35026.7,1.1654,0.3311,140.8,96.3,0.55
2.62,32096.7,35207.7,1.5778,2.5047,140.8,96.3,0.55
2.64,32058.4,35048.9,0.9495,0.598,140.8,96.3,0.55
2.66,32141.8,34969.2,2.3159,-0.3589,140.8,96.3,0.55
2.68,31984.1,35022.2,-0.2674,0.2775,140.8,96.3,0.55
2.7,31985.1,34965.4,-0.251,-0.4047,140.8,96.3,0.55
2.72,32021.3,35044.3,0.343,0.5429,140.8,96.3,0.55
2.74,32032.2,34968.2,0.5202,-0.3712,140.8,96.3,0.55
2.76,31971.3,34952.1,-0.4759,-0.5642,140.8,96.3,0.55
2.78,32009.7,34962.2,0.1525,-0.4432,140.8,96.3,0.55
2.8,32025.3,34916.4,0.4075,-0.9938,140.8,96.3,0.55
2.82,31933.0,34961.4,-1.1046,-0.4533,140.8,96.3,0.55
2.84,31933.5,34880.7,-1.0952,-1.4222,140.8,96.3,0.55
2.86,31974.4,34899.7,-0.4253,-1.1942,140.8,96.3,0.55
2.88,31937.1,34911.6,-1.0374,-1.0512,140.8,96.3,0.55
2.9,31949.8,34937.7,-0.8292,-0.738,140.8,96.3,0.55
2.92,31889.2,34935.3,-1.821,-0.7661,140.8,96.3,0.55
2.94,31897.4,34923.2,-1.6873,-0.9123,140.8,96.3,0.55
2.96,32002.9,35059.0,0.0406,0.7195,140.8,96.3,0.55
2.98,32035.9,35022.3,0.5808,0.2788,140.8,96.3,0.55
3.0,32084.2,35071.1,1.3723,0.8648,140.8,96.3,0.55
3.02,32086.4,35128.3,1.4092,1.5518,140.8,96.3,0.55
3.04,32056.7,35161.3,0.9223,1.9483,140.8,96.3,0.55
3.06,32035.3,35175.5,0.5709,2.1181,140.8,96.3,0.55
3.08,32074.2,35031.7,1.2086,0.3916,140.8,96.3,0.55
3.1,32002.1,34991.6,0.0281,-0.0908,140.8,96.3,0.55
3.12,32048.5,35104.7,0.7873,1.268,140.8,96.3,0.55
3.14,32042.0,35052.5,0.6812,0.6407,140.8,96.3,0.55
3.16,32085.1,34979.4,1.3869,-0.2374,140.8,96.3,0.55
3.18,31909.3,34993.5,-1.4921,-0.0675,140.8,96.3,0.55
3.2,31944.6,35039.8,-0.9145,0.4888,140.8,96.3,0.55
3.22,31955.4,34963.8,-0.7375,-0.4239,140.8,96.3,0.55
3.24,31900.3,34932.1,-1.639,-0.8047,140.8,96.3,0.55
3.26,31968.4,34969.6,-0.524,-0.3547,140.8,96.3,0.55
3.28,31983.1,34974.0,-0.2834,-0.3017,140.8,96.3,0.55
3.3,31987.3,34939.6,-0.2147,-0.7149,140.8,96.3,0.55
3.32,31924.7,34847.4,-1.2395,-1.8223,140.8,96.3,0.55
3.34,32050.6,34945.5,0.8225,-0.6439,140.8,96.3,0.55
3.36,31948.1,34910.6,-0.8565,-1.0636,140.8,96.3,0.55
3.38,31978.4,34937.4,-0.36,-0.7409,140.8,96.3,0.55
3.4,31924.4,34972.2,-1.2441,-0.3232,140.8,96.3,0.55
3.42,32051.8,34994.6,0.8423,-0.0541,140.8,96.3,0.55
3.44,32018.5,35136.1,0.2968,1.645,140.8,96.3,0.55
3.46,32086.5,35030.4,1.4107,0.3761,140.8,96.3,0.55
3.48,32019.1,35152.5,0.3061,1.8422,140.8,96.3,0.55
3.5,32032.0,35115.2,0.5171,1.3945,140.8,96.3,0.55
3.52,32068.3,35038.1,1.1124,0.4684,140.8,96.3,0.55
3.54,32112.4,35024.6,1.8341,0.3062,140.8,96.3,0.55
3.56,32004.3,35021.6,0.0646,0.2703,140.8,96.3,0.55
3.58,31882.2,35005.4,-1.9351,0.0756,140.8,96.3,0.55
3.6,31974.5,34922.0,-0.4246,-0.9267,140.8,96.3,0.55
3.62,31964.6,35027.2,-0.5857,0.3368,140.8,96.3,0.55
3.64,31972.1,34865.1,-0.4639,-1.6093,140.8,96.3,0.55
3.66,32014.9,34951.3,0.238,-0.5747,140.8,96.3,0.55
3.68,32027.0,34984.3,0.4364,-0.178,140.8,96.3,0.55
3.7,31938.5,34901.1,-1.0136,-1.1774,140.8,96.3,0.55
3.72,31901.7,34971.8,-1.6169,-0.3282,140.8,96.3,0.55
3.74,31976.4,34947.3,-0.3938,-0.622,140.8,96.3,0.55
3.76,31938.9,34930.8,-1.0077,-0.8211,140.8,96.3,0.55
3.78,32021.4,34876.5,0.344,-1.4728,140.8,96.3,0.55
3.8,32021.6,34912.3,0.3478,-1.0427,140.8,96.3,0.55
3.82,31964.5,35035.9,-0.5872,0.4415,140.8,96.3,0.55
3.84,32052.9,35052.8,0.8592,0.6445,140.8,96.3,0.55
3.86,31986.1,35131.1,-0.234,1.5854,140.8,96.3,0.55
3.88,32016.4,35024.1,0.2621,0.3004,140.8,96.3,0.55
3.9,32048.4,34977.1,0.7856,-0.265,140.8,96.3,0.55
3.92,32098.3,35008.7,1.6036,0.1156,140.8,96.3,0.55
3.94,31973.2,35123.5,-0.4459,1.4936,140.8,96.3,0.55
3.96,32117.0,34959.0,1.91,-0.4824,140.8,96.3,0.55
3.98,31982.4,34996.3,-0.2943,-0.0334,140.8,96.3,0.55
4.0,32017.0,35034.3,0.2724,0.4227,140.8,96.3,0.55
4.02,32081.2,35032.1,1.3237,0.3966,140.8,96.3,0.55
4.04,31960.6,34997.7,-0.6526,-0.0166,140.8,96.3,0.55
4.06,31856.1,34935.9,-2.3628,-0.7591,140.8,96.3,0.55
4.08,31966.5,34978.2,-0.5549,-0.2519,140.8,96.3,0.55
4.1,31917.3,34851.9,-1.3616,-1.768,140.8,96.3,0.55
4.12,31973.5,34946.2,-0.4407,-0.636,140.8,96.3,0.55
4.14,32017.6,34920.0,0.2809,-0.9507,140.8,96.3,0.55
4.16,31959.1,34983.6,-0.676,-0.1863,140.8,96.3,0.55
4.18,31956.9,34898.9,-0.7131,-1.2043,140.8,96.3,0.55
4.2,31988.6,34950.8,-0.194,-0.5804,140.8,96.3,0.55
4.22,32002.1,34994.7,0.028,-0.0532,140.8,96.3,0.55
4.24,31994.5,34951.9,-0.0969,-0.5675,140.8,96.3,0.55
4.26,31951.5,34924.2,-0.8011,-0.9003,140.8,96.3,0.55
4.28,31979.1,35071.3,-0.3493,0.8674,140.8,96.3,0.55
4.3,32090.2,35080.2,1.4705,0.9733,140.8,96.3,0.55
4.32,32036.0,35118.5,0.5833,1.4337,140.8,96.3,0.55
4.34,32014.7,35168.8,0.234,2.0376,140.8,96.3,0.55
4.36,32047.9,35044.9,0.7786,0.5495,140.8,96.3,0.55
4.38,32004.0,35016.6,0.0586,0.2099,140.8,96.3,0.55
4.4,31956.8,34977.7,-0.7145,-0.2577,140.8,96.3,0.55
4.42,31939.7,34974.2,-0.9945,-0.2998,140.8,96.3,0.55
4.44,32020.3,35043.4,0.3262,0.5316,140.8,96.3,0.55
4.46,32017.5,34995.2,0.2796,-0.0474,140.8,96.3,0.55
4.48,32033.8,35004.7,0.5469,0.067,140.8,96.3,0.55
4.5,31986.6,34933.2,-0.2259,-0.792,140.8,96.3,0.55
4.52,31959.5,34914.1,-0.67,-1.0216,140.8,96.3,0.55
4.54,31966.8,34985.0,-0.5505,-0.1698,140.8,96.3,0.55
4.56,31915.7,34979.5,-1.3872,-0.2359,140.8,96.3,0.55
4.58,31914.5,34833.9,-1.4063,-1.984,140.8,96.3,0.55
4.6,31865.5,34870.5,-2.2097,-1.5451,140.8,96.3,0.55
4.62,31974.5,34914.6,-0.4244,-1.015,140.8,96.3,0.55
4.64,31858.0,34895.9,-2.3316,-1.2402,140.8,96.3,0.55
4.66,31943.4,34978.4,-0.933,-0.2493,140.8,96.3,0.55
4.68,31969.3,34964.5,-0.5097,-0.4164,140.8,96.3,0.55
4.7,32143.9,35031.6,2.3502,0.3903,140.8,96.3,0.55
4.72,32067.2,35105.4,1.0944,1.2765,140.8,96.3,0.55
4.74,32109.6,35078.1,1.7889,0.9488,140.8,96.3,0.55
4.76,32092.2,35148.6,1.5039,1.795,140.8,96.3,0.55
4.78,32079.9,35101.7,1.3018,1.2325,140.8,96.3,0.55
4.8,31996.6,35135.8,-0.0627,1.6415,140.8,96.3,0.55
4.82,32038.4,35116.3,0.6229,1.4075,140.8,96.3,0.55
4.84,31904.3,35063.5,-1.5736,0.7727,140.8,96.3,0.55
4.86,32078.9,34982.6,1.2855,-0.198,140.8,96.3,0.55
4.88,31988.7,34981.8,-0.1912,-0.2082,140.8,96.3,0.55
4.9,31990.0,34936.8,-0.1711,-0.7483,140.8,96.3,0.55
4.92,32025.1,35045.0,0.4039,0.551,140.8,96.3,0.55
4.94,31963.3,34885.0,-0.6081,-1.371,140.8,96.3,0.55
4.96,31961.9,35006.9,-0.6298,0.0931,140.8,96.3,0.55
4.98,31978.3,35021.5,-0.3618,0.269,140.8,96.3,0.55
5.0,31964.7,35022.3,-0.5844,0.2784,140.8,96.3,0.55
5.02,31922.6,34917.5,-1.2746,-0.98,140.8,96.3,0.55
5.04,31891.9,34927.7,-1.7765,-0.8583,140.8,96.3,0.55
5.06,31993.4,34853.6,-0.1144,-1.7475,140.8,96.3,0.55
5.08,32001.3,34965.8,0.0139,-0.3997,140.8,96.3,0.55
5.1,32019.9,34978.6,0.3198,-0.2459,140.8,96.3,0.55
5.12,32136.1,34983.3,2.2227,-0.1903,140.8,96.3,0.55
5.14,32083.2,35126.0,1.3562,1.5243,140.8,96.3,0.55
5.16,32073.6,35148.4,1.1996,1.793,140.8,96.3,0.55
5.18,32014.5,35034.3,0.2305,0.423,140.8,96.3,0.55
5.2,32082.9,35012.7,1.3513,0.1636,140.8,96.3,0.55
5.22,32069.5,35119.9,1.1313,1.4505,140.8,96.3,0.55
5.24,31971.1,35051.8,-0.4799,0.6323,140.8,96.3,0.55
5.26,32015.0,34964.7,0.2395,-0.4138,140.8,96.3,0.55
5.28,32027.7,35049.0,0.4477,0.5992,140.8,96.3,0.55
5.3,31936.3,35060.3,-1.0491,0.7353,140.8,96.3,0.55
5.32,31930.7,34923.6,-1.1415,-0.9072,140.8,96.3,0.55
5.34,31996.3,34939.1,-0.0666,-0.7213,140.8,96.3,0.55
5.36,31948.2,35046.3,-0.8552,0.567,140.8,96.3,0.55
5.38,32036.7,35019.7,0.5937,0.2473,140.8,96.3,0.55
5.4,31919.8,35063.6,-1.3209,0.7744,140.8,96.3,0.55
5.42,31998.0,34904.5,-0.0387,-1.1369,140.8,96.3,0.55
5.44,31927.9,34943.4,-1.1872,-0.669,140.8,96.3,0.55
5.46,32001.9,34947.4,0.025,-0.6207,140.8,96.3,0.55
5.48,31947.6,34907.9,-0.8649,-1.0957,140.8,96.3,0.55
5.5,31996.5,34981.9,-0.0647,-0.2075,140.8,96.3,0.55
5.52,32005.8,34956.7,0.0888,-0.5096,140.8,96.3,0.55
5.54,32082.8,35028.4,1.3487,0.3518,140.8,96.3,0.55
5.56,32048.6,35035.2,0.7889,0.4332,140.8,96.3,0.55
5.58,32000.9,35170.9,0.0087,2.0626,140.8,96.3,0.55
5.6,32086.3,35052.6,1.4064,0.6417,140.8,96.3,0.55
5.62,32056.2,35079.3,0.914,0.9633,140.8,96.3,0.55
5.64,31967.9,35027.4,-0.5329,0.3397,140.8,96.3,0.55
5.66,32113.4,35050.0,1.8505,0.6113,140.8,96.3,0.55
5.68,32018.4,35031.5,0.2952,0.3889,140.8,96.3,0.55
5.7,31924.5,34978.9,-1.243,-0.243,140.8,96.3,0.55
5.72,32034.7,34963.3,0.5621,-0.4299,140.8,96.3,0.55
5.74,31912.7,34996.5,-1.4365,-0.0315,140.8,96.3,0.55
5.76,32037.9,35024.8,0.6146,0.308,140.8,96.3,0.55
5.78,31997.7,34874.7,-0.0443,-1.4944,140.8,96.3,0.55
5.8,31953.0,34997.4,-0.7772,-0.0202,140.8,96.3,0.55
5.82,31936.9,34987.6,-1.0403,-0.1389,140.8,96.3,0.55
5.84,32007.7,34950.1,0.1201,-0.5883,140.8,96.3,0.55
5.86,31976.7,34985.9,-0.3878,-0.1588,140.8,96.3,0.55
5.88,31964.6,34979.0,-0.5868,-0.2417,140.8,96.3,0.55
5.9,32036.1,34910.6,0.5841,-1.0635,140.8,96.3,0.55
5.92,31951.4,34908.4,-0.8019,-1.0893,140.8,96.3,0.55
5.94,32067.7,34932.7,1.1028,-0.7977,140.8,96.3,0.55
5.96,32016.8,35002.7,0.2691,0.0424,140.8,96.3,0.55
5.98,32095.4,35068.7,1.5564,0.8361,140.8,96.3,0.55
6.0,31986.8,35101.0,-0.2232,1.2232,140.8,96.3,0.55
6.02,32132.6,35118.6,2.1649,1.4348,140.8,96.3,0.55
6.04,32104.7,35059.1,1.7082,0.7202,140.8,96.3,0.55
6.06,32076.8,35016.0,1.2518,0.2027,140.8,96.3,0.55
6.08,32054.0,35135.4,0.8778,1.6373,140.8,96.3,0.55
6.1,31936.0,35036.5,-1.0552,0.4485,140.8,96.3,0.55
6.12,32036.0,34976.1,0.5823,-0.277,140.8,96.3,0.55
6.14,32042.0,35031.2,0.6812,0.3857,140.8,96.3,0.55
6.16,32021.5,35049.4,0.3451,0.6035,140.8,96.3,0.55
6.18,31949.2,34962.0,-0.8393,-0.446,140.8,96.3,0.55
6.2,32021.9,34901.6,0.3523,-1.1708,140.8,96.3,0.55
6.22,31963.6,35001.9,-0.6029,0.0332,140.8,96.3,0.55
6.24,31956.8,34973.1,-0.7133,-0.3126,140.8,96.3,0.55
6.26,31987.5,34917.1,-0.2113,-0.9846,140.8,96.3,0.55
6.28,32014.7,34931.3,0.2334,-0.8148,140.8,96.3,0.55
6.3,31978.1,34921.6,-0.3649,-0.9305,140.8,96.3,0.55
6.32,31999.4,34925.7,-0.0162,-0.8813,140.8,96.3,0.55
6.34,31923.9,34902.0,-1.2528,-1.1661,140.8,96.3,0.55
6.36,31947.4,34904.3,-0.8681,-1.1387,140.8,96.3,0.55
6.38,31946.9,34927.2,-0.8762,-0.8642,140.8,96.3,0.55
6.4,31993.1,34976.8,-0.12,-0.2681,140.8,96.3,0.55
6.42,32075.0,35113.3,1.2223,1.3708,140.8,96.3,0.55
6.44,32017.4,35046.8,0.2778,0.5728,140.8,96.3,0.55
6.46,32074.6,35006.0,1.2155,0.082,140.8,96.3,0.55
6.48,32081.9,35104.4,1.3352,1.2645,140.8,96.3,0.55
6.5,32055.9,35126.9,0.9081,1.5348,140.8,96.3,0.55
6.52,32033.8,35052.0,0.5466,0.6356,140.8,96.3,0.55
6.54,32034.6,35127.7,0.5598,1.5447,140.8,96.3,0.55
6.56,32006.1,35051.3,0.0936,0.6265,140.8,96.3,0.55
6.58,32098.6,34986.4,1.609,-0.1529,140.8,96.3,0.55
6.6,32022.5,34897.7,0.3621,-1.218,140.8,96.3,0.55
6.62,31956.2,34906.2,-0.7245,-1.1161,140.8,96.3,0.55
6.64,31954.5,34939.7,-0.7512,-0.7137,140.8,96.3,0.55
6.66,32019.5,34880.7,0.3122,-1.4228,140.8,96.3,0.55
6.68,31972.8,34943.9,-0.4514,-0.663,140.8,96.3,0.55
6.7,31950.2,34940.7,-0.823,-0.7017,140.8,96.3,0.55
6.72,31981.3,34903.8,-0.3131,-1.1444,140.8,96.3,0.55
6.74,31912.5,34803.1,-1.44,-2.3549,140.8,96.3,0.55
6.76,31968.1,34954.7,-0.5296,-0.5332,140.8,96.3,0.55
6.78,31940.2,34854.1,-0.9855,-1.7418,140.8,96.3,0.55
6.8,31900.0,34949.0,-1.645,-0.6026,140.8,96.3,0.55
6.82,32048.4,35002.4,0.7867,0.0397,140.8,96.3,0.55
6.84,31975.8,35060.2,-0.4028,0.734,140.8,96.3,0.55
6.86,32148.4,35129.4,2.4239,1.5651,140.8,96.3,0.55
6.88,32038.7,35108.2,0.6264,1.3098,140.8,96.3,0.55
6.9,32045.0,35052.6,0.7299,0.6427,140.8,96.3,0.55
6.92,32069.4,35053.1,1.1302,0.6487,140.8,96.3,0.55
6.94,32103.7,35114.1,1.6917,1.3814,140.8,96.3,0.55
6.96,32009.4,34997.3,0.1475,-0.0213,140.8,96.3,0.55
6.98,31982.3,35114.6,-0.2965,1.387,140.8,96.3,0.55
7.0,31925.7,34937.3,-1.223,-0.7425,140.8,96.3,0.55
7.02,31919.4,34972.9,-1.3262,-0.3146,140.8,96.3,0.55
7.04,32022.9,34987.1,0.3681,-0.1447,140.8,96.3,0.55
7.06,31967.6,34928.3,-0.5373,-0.8501,140.8,96.3,0.55
7.08,31990.5,34875.2,-0.1619,-1.4885,140.8,96.3,0.55
7.1,31940.3,34973.6,-0.9844,-0.3061,140.8,96.3,0.55
7.12,31943.2,34937.1,-0.9376,-0.7446,140.8,96.3,0.55
7.14,32029.0,34840.5,0.4688,-1.9054,140.8,96.3,0.55
7.16,31927.4,34920.1,-1.196,-0.9492,140.8,96.3,0.55
7.18,31846.4,34907.8,-2.5222,-1.0968,140.8,96.3,0.55
7.2,31947.8,34870.7,-0.8622,-1.5423,140.8,96.3,0.55
7.22,31953.7,34915.2,-0.765,-1.008,140.8,96.3,0.55
7.24,32004.5,35041.4,0.0672,0.5074,140.8,96.3,0.55
7.26,31983.6,35060.0,-0.2759,0.7307,140.8,96.3,0.55
7.28,32101.9,35087.5,1.6628,1.0608,140.8,96.3,0.55
7.3,32102.2,35123.1,1.6679,1.4885,140.8,96.3,0.55
7.32,32020.6,35095.4,0.3314,1.1558,140.8,96.3,0.55
7.34,32005.8,35160.8,0.0881,1.9418,140.8,96.3,0.55
7.36,32113.5,35047.4,1.8523,0.5798,140.8,96.3,0.55
7.38,32015.9,35015.7,0.2545,0.1986,140.8,96.3,0.55
7.4,32030.6,34943.3,0.494,-0.6703,140.8,96.3,0.55
7.42,31956.8,35051.8,-0.7139,0.6326,140.8,96.3,0.55
7.44,32017.8,34959.5,0.285,-0.4761,140.8,96.3,0.55
7.46,31971.8,34885.2,-0.4691,-1.3687,140.8,96.3,0.55
7.48,32034.6,34949.0,0.5607,-0.6022,140.8,96.3,0.55
7.5,31879.2,34912.4,-1.9844,-1.0415,140.8,96.3,0.55
7.52,31966.0,34974.8,-0.5626,-0.2924,140.8,96.3,0.55
7.54,31982.0,34819.8,-0.3021,-2.1541,140.8,96.3,0.55
7.56,32008.4,34960.8,0.1309,-0.4606,140.8,96.3,0.55
7.58,32083.3,35002.6,1.3569,0.0422,140.8,96.3,0.55
7.6,32014.3,34857.6,0.2281,-1.6997,140.8,96.3,0.55
7.62,31972.4,34909.4,-0.4584,-1.0771,140.8,96.3,0.55
7.64,32057.2,35011.8,0.9306,0.1523,140.8,96.3,0.55
7.66,32019.5,34998.9,0.3134,-0.003,140.8,96.3,0.55
7.68,32075.7,35113.8,1.2327,1.377,140.8,96.3,0.55
7.7,31997.7,35191.6,-0.0447,2.3122,140.8,96.3,0.55
7.72,32020.7,35185.8,0.3323,2.2421,140.8,96.3,0.55
7.74,32014.6,35182.3,0.2319,2.2004,140.8,96.3,0.55
7.76,32037.7,35134.2,0.6106,1.6229,140.8,96.3,0.55
7.78,32055.8,35058.7,0.9066,0.7156,140.8,96.3,0.55
7.8,32029.3,35013.5,0.4729,0.1725,140.8,96.3,0.55
7.82,31944.4,35025.3,-0.9168,0.3144,140.8,96.3,0.55
7.84,31970.9,35066.0,-0.4839,0.8031,140.8,96.3,0.55
7.86,31996.5,34988.3,-0.0635,-0.1306,140.8,96.3,0.55
7.88,31970.1,35034.5,-0.4956,0.4251,140.8,96.3,0.55
7.9,32034.3,34959.7,0.5555,-0.4732,140.8,96.3,0.55
7.92,31983.6,34936.6,-0.276,-0.7506,140.8,96.3,0.55
7.94,31914.0,34946.7,-1.4155,-0.6293,140.8,96.3,0.55
7.96,31937.5,34960.7,-1.0303,-0.4609,140.8,96.3,0.55
7.98,31885.6,34965.0,-1.8808,-0.4097,140.8,96.3,0.55
8.0,32010.4,35017.3,0.1632,0.2187,140.8,96.3,0.55
8.02,31850.4,34914.9,-2.4564,-1.0118,140.8,96.3,0.55
8.04,31969.8,34916.5,-0.502,-0.9928,140.8,96.3,0.55
8.06,31918.6,34957.0,-1.3396,-0.506,140.8,96.3,0.55
8.08,32005.6,35025.1,0.0852,0.3122,140.8,96.3,0.55
8.1,31994.8,34978.7,-0.0924,-0.2456,140.8,96.3,0.55
8.12,32039.8,35113.7,0.6452,1.3756,140.8,96.3,0.55
8.14,32066.3,35136.9,1.079,1.6552,140.8,96.3,0.55
8.16,32117.8,35103.7,1.9231,1.2555,140.8,96.3,0.55
8.18,32112.3,35021.4,1.8326,0.2677,140.8,96.3,0.55
8.2,32012.7,35019.1,0.2009,0.2396,140.8,96.3,0.55
8.22,32019.0,35084.0,0.3051,1.0195,140.8,96.3,0.55
8.24,32071.5,35027.2,1.1644,0.3374,140.8,96.3,0.55
8.26,31998.5,34929.1,-0.0317,-0.8407,140.8,96.3,0.55
8.28,32008.5,34937.3,0.1331,-0.7424,140.8,96.3,0.55
8.3,31937.8,34973.2,-1.0258,-0.3116,140.8,96.3,0.55
8.32,32000.6,34983.5,0.0035,-0.1879,140.8,96.3,0.55
8.34,32023.8,35001.3,0.3825,0.0259,140.8,96.3,0.55
8.36,31906.3,35028.3,-1.5411,0.3498,140.8,96.3,0.55
8.38,31941.3,34939.0,-0.9682,-0.7227,140.8,96.3,0.55
8.4,31896.5,34922.7,-1.7009,-0.9183,140.8,96.3,0.55
8.42,31995.6,34839.0,-0.0784,-1.9232,140.8,96.3,0.55
8.44,31974.1,34898.1,-0.4306,-1.2131,140.8,96.3,0.55
8.46,31978.3,34872.9,-0.3624,-1.5163,140.8,96.3,0.55
8.48,31920.8,34901.5,-1.303,-1.1719,140.8,96.3,0.55
8.5,31976.6,34994.9,-0.39,-0.0508,140.8,96.3,0.55
8.52,31998.4,35073.1,-0.0321,0.8879,140.8,96.3,0.55
8.54,32085.3,35069.5,1.3897,0.845,140.8,96.3,0.55
8.56,32139.9,35086.2,2.2854,1.046,140.8,96.3,0.55
8.58,32080.1,35143.7,1.3056,1.7364,140.8,96.3,0.55
8.6,31970.6,35106.8,-0.4883,1.2929,140.8,96.3,0.55
8.62,32055.6,35019.7,0.9034,0.2469,140.8,96.3,0.55
8.64,31965.0,35041.0,-0.5802,0.5029,140.8,96.3,0.55
8.66,32050.9,34970.3,0.8265,-0.3457,140.8,96.3,0.55
8.68,32041.5,35047.5,0.6732,0.5806,140.8,96.3,0.55
8.7,32056.3,34946.2,0.9155,-0.6353,140.8,96.3,0.55
8.72,31943.2,35042.5,-0.9375,0.5206,140.8,96.3,0.55
8.74,31974.6,34987.9,-0.4229,-0.1351,140.8,96.3,0.55
8.76,31958.7,35013.0,-0.6822,0.1671,140.8,96.3,0.55
8.78,32058.6,35000.5,0.9529,0.0161,140.8,96.3,0.55
8.8,32045.1,34917.4,0.7319,-0.9809,140.8,96.3,0.55
8.82,31923.1,34946.6,-1.2662,-0.6311,140.8,96.3,0.55
8.84,31972.7,34926.1,-0.4531,-0.8767,140.8,96.3,0.55
8.86,31916.7,34888.2,-1.371,-1.3322,140.8,96.3,0.55
8.88,31971.0,34885.0,-0.4823,-1.3708,140.8,96.3,0.55
8.9,31849.4,34934.0,-2.4727,-0.7823,140.8,96.3,0.55
8.92,31901.7,34964.9,-1.6163,-0.4109,140.8,96.3,0.55
8.94,31999.5,35109.5,-0.0147,1.3254,140.8,96.3,0.55
8.96,32065.8,35100.5,1.0715,1.217,140.8,96.3,0.55
8.98,32087.6,35101.1,1.4279,1.2242,140.8,96.3,0.55
9.0,31924.6,35196.3,-1.2409,2.3676,140.8,96.3,0.55
9.02,32044.3,35037.4,0.7183,0.4593,140.8,96.3,0.55
9.04,32048.2,35104.3,0.7824,1.2636,140.8,96.3,0.55
9.06,32054.9,35079.8,0.8923,0.9686,140.8,96.3,0.55
9.08,31976.8,35044.6,-0.386,0.5457,140.8,96.3,0.55
9.1,32097.9,34986.9,1.5967,-0.1473,140.8,96.3,0.55
9.12,31974.0,34948.5,-0.4322,-0.6078,140.8,96.3,0.55
9.14,32064.9,35004.9,1.0559,0.0688,140.8,96.3,0.55
9.16,31905.8,34988.3,-1.5495,-0.1302,140.8,96.3,0.55
9.18,32039.9,34937.1,0.647,-0.7453,140.8,96.3,0.55
9.2,31961.5,34895.8,-0.6376,-1.2406,140.8,96.3,0.55
9.22,32009.6,35009.8,0.1506,0.1278,140.8,96.3,0.55
9.24,31947.7,34958.7,-0.863,-0.4849,140.8,96.3,0.55
9.26,31982.7,34990.5,-0.2904,-0.103,140.8,96.3,0.55
9.28,31908.4,34959.3,-1.5069,-0.4782,140.8,96.3,0.55
9.3,32083.5,34907.5,1.3608,-1.1004,140.8,96.3,0.55
9.32,32031.2,34932.7,0.5047,-0.7978,140.8,96.3,0.55
9.34,31905.2,35023.8,-1.5596,0.2965,140.8,96.3,0.55
9.36,32010.8,34997.7,0.1697,-0.0172,140.8,96.3,0.55
9.38,32012.2,35069.6,0.1934,0.8459,140.8,96.3,0.55
9.4,32047.2,35094.1,0.7669,1.1404,140.8,96.3,0.55
9.42,32019.2,35126.5,0.3081,1.5292,140.8,96.3,0.55
9.44,32128.7,35129.8,2.1013,1.5694,140.8,96.3,0.55
9.46,32080.5,35175.1,1.3113,2.1137,140.8,96.3,0.55
9.48,32073.0,34980.7,1.1882,-0.2217,140.8,96.3,0.55
9.5,32043.8,35072.9,0.7103,0.8864,140.8,96.3,0.55
9.52,32082.7,35053.4,1.3475,0.6524,140.8,96.3,0.55
9.54,32042.0,35035.2,0.6809,0.4333,140.8,96.3,0.55
9.56,32008.9,34903.4,0.1389,-1.1499,140.8,96.3,0.55
9.58,31913.8,34987.0,-1.4176,-0.1456,140.8,96.3,0.55
9.6,31969.2,34952.2,-0.5108,-0.5639,140.8,96.3,0.55
9.62,31869.3,34874.9,-2.1472,-1.4918,140.8,96.3,0.55
9.64,31999.6,34908.8,-0.0138,-1.0844,140.8,96.3,0.55
9.66,31990.5,34904.8,-0.163,-1.1331,140.8,96.3,0.55
9.68,31947.3,34921.4,-0.8698,-0.9333,140.8,96.3,0.55
9.7,31955.7,34959.9,-0.7314,-0.4716,140.8,96.3,0.55
9.72,31898.1,34913.6,-1.676,-1.0267,140.8,96.3,0.55
9.74,31881.1,34901.0,-1.9536,-1.1781,140.8,96.3,0.55
9.76,32009.9,34953.4,0.1563,-0.549,140.8,96.3,0.55
9.78,32000.6,34957.4,0.0036,-0.5008,140.8,96.3,0.55
9.8,31982.4,35117.2,-0.2954,1.4185,140.8,96.3,0.55
9.82,31975.0,34973.9,-0.4157,-0.3035,140.8,96.3,0.55
9.84,32034.4,35200.7,0.5571,2.4212,140.8,96.3,0.55
9.86,32048.6,35181.6,0.7897,2.1915,140.8,96.3,0.55
9.88,32043.7,35090.7,0.7088,1.1004,140.8,96.3,0.55
9.9,32115.5,35078.6,1.8847,0.954,140.8,96.3,0.55
9.92,32030.2,35023.6,0.4888,0.2941,140.8,96.3,0.55
9.94,31934.1,35010.9,-1.0853,0.1416,140.8,96.3,0.55
9.96,32049.3,35047.0,0.8008,0.5751,140.8,96.3,0.55
9.98,32024.4,35021.4,0.3935,0.2679,140.8,96.3,0.55
10.0,31939.3,34989.4,-1.0015,-0.1167,140.8,96.3,0.55
10.02,32023.8,34953.8,0.3825,-0.5441,140.8,96.3,0.55
10.04,31953.2,35033.4,-0.7723,0.4113,140.8,96.3,0.55
10.06,32019.8,34949.4,0.3172,-0.5974,140.8,96.3,0.55
10.08,31955.5,34903.0,-0.736,-1.1542,140.8,96.3,0.55
10.1,32021.0,34955.6,0.3367,-0.5232,140.8,96.3,0.55
10.12,31907.5,34866.7,-1.5213,-1.5901,140.8,96.3,0.55
10.14,31971.1,34868.7,-0.4799,-1.566,140.8,96.3,0.55
10.16,31942.3,34841.9,-0.9511,-1.8887,140.8,96.3,0.55
10.18,31939.0,34897.8,-1.0048,-1.2167,140.8,96.3,0.55
10.2,31999.6,34956.8,-0.0134,-0.5083,140.8,96.3,0.55
10.22,31954.6,35065.2,-0.7508,0.7931,140.8,96.3,0.55
10.24,32006.9,35168.2,0.1071,2.0302,140.8,96.3,0.55
10.26,32077.0,35161.7,1.2549,1.9523,140.8,96.3,0.55
10.28,32015.2,35113.3,0.2431,1.3716,140.8,96.3,0.55
10.3,32020.9,35075.3,0.3352,0.9151,140.8,96.3,0.55
10.32,31962.8,35101.8,-0.6165,1.2326,140.8,96.3,0.55
10.34,32049.6,35127.2,0.806,1.5378,140.8,96.3,0.55
10.36,32001.9,35051.0,0.0239,0.6235,140.8,96.3,0.55
10.38,32049.5,34983.1,0.8043,-0.1919,140.8,96.3,0.55
10.4,32094.8,34984.0,1.5459,-0.1821,140.8,96.3,0.55
10.42,31982.7,35083.8,-0.2906,1.0164,140.8,96.3,0.55
10.44,31965.1,34976.8,-0.5788,-0.2686,140.8,96.3,0.55
10.46,31994.3,34990.9,-0.1006,-0.0992,140.8,96.3,0.55
10.48,31917.9,34894.7,-1.351,-1.2545,140.8,96.3,0.55
10.5,31996.9,34979.2,-0.0569,-0.2396,140.8,96.3,0.55
10.52,32016.2,34967.9,0.2595,-0.3756,140.8,96.3,0.55
10.54,31950.0,34995.7,-0.8257,-0.0417,140.8,96.3,0.55
10.56,31910.2,34877.1,-1.4769,-1.4651,140.8,96.3,0.55
10.58,31943.0,34979.0,-0.9399,-0.2412,140.8,96.3,0.55
10.6,31943.1,34964.6,-0.9388,-0.4145,140.8,96.3,0.55
10.62,31954.6,34933.1,-0.7507,-0.7935,140.8,96.3,0.55
10.64,32047.1,34958.8,0.7647,-0.4844,140.8,96.3,0.55
10.66,32084.8,35087.3,1.3822,1.0591,140.8,96.3,0.55
10.68,32090.5,35125.2,1.4753,1.5148,140.8,96.3,0.55
10.7,32014.6,35208.6,0.2326,2.5164,140.8,96.3,0.55
10.72,32143.0,35076.3,2.3348,0.9274,140.8,96.3,0.55
10.74,32098.4,34999.7,1.6052,0.0072,140.8,96.3,0.55
10.76,32068.9,35129.1,1.1217,1.5605,140.8,96.3,0.55
10.78,31981.5,34988.2,-0.309,-0.1307,140.8,96.3,0.55
10.8,32060.9,35032.1,0.9906,0.3964,140.8,96.3,0.55
10.82,31958.0,34927.9,-0.6938,-0.8549,140.8,96.3,0.55
10.84,31980.0,34935.3,-0.3334,-0.7671,140.8,96.3,0.55
10.86,31949.2,34975.7,-0.8383,-0.2816,140.8,96.3,0.55
10.88,32039.3,34950.8,0.6368,-0.5801,140.8,96.3,0.55
10.9,31891.6,34959.8,-1.7814,-0.4722,140.8,96.3,0.55
10.92,32009.6,35017.4,0.1505,0.2196,140.8,96.3,0.55
10.94,31944.7,34928.6,-0.9117,-0.847,140.8,96.3,0.55
10.96,31993.6,34963.4,-0.1112,-0.429,140.8,96.3,0.55
10.98,32026.2,34873.0,0.4218,-1.5143,140.8,96.3,0.55
11.0,31987.7,34894.6,-0.2088,-1.255,140.8,96.3,0.55
11.02,31931.9,34947.3,-1.1225,-0.6223,140.8,96.3,0.55
11.04,31887.6,34912.2,-1.8472,-1.0442,140.8,96.3,0.55
11.06,31942.3,34962.6,-0.9511,-0.4387,140.8,96.3,0.55
11.08,31998.4,35145.8,-0.0322,1.7618,140.8,96.3,0.55
11.1,32007.6,35119.3,0.1178,1.4432,140.8,96.3,0.55
11.12,32067.5,35158.3,1.0984,1.9118,140.8,96.3,0.55
11.14,32064.2,35156.4,1.0443,1.8895,140.8,96.3,0.55
11.16,32100.9,35083.1,1.6464,1.0081,140.8,96.3,0.55
11.18,32037.1,35100.8,0.6003,1.2208,140.8,96.3,0.55
11.2,32036.3,35004.3,0.5882,0.0625,140.8,96.3,0.55
11.22,32025.5,34952.9,0.4105,-0.5552,140.8,96.3,0.55
11.24,32089.4,34993.4,1.4573,-0.0688,140.8,96.3,0.55
11.26,32062.9,34984.9,1.0231,-0.1712,140.8,96.3,0.55
11.28,32035.3,34883.3,0.5708,-1.3912,140.8,96.3,0.55
11.3,31896.8,35005.0,-1.6969,0.0703,140.8,96.3,0.55
11.32,32091.2,34965.8,1.4866,-0.3999,140.8,96.3,0.55
11.34,31972.9,34904.5,-0.4498,-1.1369,140.8,96.3,0.55
11.36,32047.7,34974.0,0.7747,-0.3021,140.8,96.3,0.55
11.38,31995.8,34976.5,-0.0751,-0.2714,140.8,96.3,0.55
11.4,31983.2,34902.9,-0.2812,-1.1555,140.8,96.3,0.55
11.42,32019.0,34973.1,0.3049,-0.3125,140.8,96.3,0.55
11.44,32090.2,34864.7,1.4703,-1.6144,140.8,96.3,0.55
11.46,31874.0,34957.7,-2.0706,-0.4972,140.8,96.3,0.55
11.48,32091.0,34964.3,1.4836,-0.4186,140.8,96.3,0.55
11.5,31946.5,35074.4,-0.8821,0.9036,140.8,96.3,0.55
11.52,32052.7,35042.8,0.8573,0.524,140.8,96.3,0.55
11.54,31961.2,35099.7,-0.6415,1.2081,140.8,96.3,0.55
11.56,32082.5,35156.7,1.3441,1.8921,140.8,96.3,0.55
11.58,32029.2,35118.6,0.4709,1.4346,140.8,96.3,0.55
11.6,32032.9,35144.9,0.5315,1.7512,140.8,96.3,0.55
11.62,32021.3,34961.3,0.3423,-0.4546,140.8,96.3,0.55
11.64,32034.9,34960.3,0.5643,-0.4664,140.8,96.3,0.55
11.66,31981.8,35022.1,-0.3054,0.2757,140.8,96.3,0.55
11.68,31882.3,35072.1,-1.9336,0.8764,140.8,96.3,0.55
11.7,32043.6,35009.2,0.708,0.1214,140.8,96.3,0.55
11.72,31999.1,34977.3,-0.0211,-0.2621,140.8,96.3,0.55
11.74,32061.2,34953.2,0.9951,-0.5516,140.8,96.3,0.55
11.76,32014.1,34882.0,0.2245,-1.4063,140.8,96.3,0.55
11.78,32000.2,34881.9,-0.0036,-1.4077,140.8,96.3,0.55
11.8,31994.7,34897.9,-0.0939,-1.2161,140.8,96.3,0.55
11.82,31994.6,34972.7,-0.0954,-0.3173,140.8,96.3,0.55
11.84,31908.8,34960.4,-1.4997,-0.4656,140.8,96.3,0.55
11.86,31924.9,34939.1,-1.2369,-0.721,140.8,96.3,0.55
11.88,31977.7,34914.9,-0.3719,-1.0119,140.8,96.3,0.55
11.9,31932.0,34884.3,-1.1199,-1.3785,140.8,96.3,0.55
11.92,31996.3,34960.8,-0.0679,-0.4599,140.8,96.3,0.55
11.94,32024.0,35093.3,0.3858,1.1313,140.8,96.3,0.55
11.96,32022.7,35092.3,0.365,1.119,140.8,96.3,0.55
11.98,32026.1,35101.1,0.4204,1.225,140.8,96.3,0.55
12.0,32107.7,35090.6,1.7573,1.099,140.8,96.3,0.55
12.02,31911.8,35025.0,-1.4509,0.3107,140.8,96.3,0.55
12.04,32062.1,35077.9,1.0098,0.9463,140.8,96.3,0.55
12.06,31942.4,35109.7,-0.9507,1.3285,140.8,96.3,0.55
12.08,31914.1,34946.5,-1.4133,-0.6321,140.8,96.3,0.55
12.1,31918.9,35021.9,-1.3345,0.274,140.8,96.3,0.55
12.12,32039.0,34909.0,0.6324,-1.0826,140.8,96.3,0.55
12.14,31939.9,35002.9,-0.9916,0.045,140.8,96.3,0.55
12.16,31907.3,35022.6,-1.5248,0.282,140.8,96.3,0.55
12.18,32046.6,34996.2,0.7559,-0.0345,140.8,96.3,0.55
12.2,31904.4,34991.3,-1.5717,-0.0935,140.8,96.3,0.55
12.22,31998.0,34978.5,-0.0386,-0.2482,140.8,96.3,0.55
12.24,31997.8,34970.2,-0.043,-0.3474,140.8,96.3,0.55
12.26,31991.4,34922.2,-0.148,-0.9241,140.8,96.3,0.55
12.28,32007.7,34865.4,0.1199,-1.6065,140.8,96.3,0.55
12.3,31860.7,34869.3,-2.2883,-1.5588,140.8,96.3,0.55
12.32,31900.9,34904.9,-1.6291,-1.1313,140.8,96.3,0.55
12.34,32024.9,35023.7,0.402,0.2953,140.8,96.3,0.55
12.36,32004.9,35122.2,0.0735,1.4787,140.8,96.3,0.55
12.38,32062.8,35071.7,1.022,0.8713,140.8,96.3,0.55
12.4,32048.6,35008.2,0.7896,0.1089,140.8,96.3,0.55
12.42,32005.9,35145.7,0.0904,1.76,140.8,96.3,0.55
12.44,32066.5,35124.4,1.082,1.5046,140.8,96.3,0.55
12.46,31990.9,35047.0,-0.1553,0.5751,140.8,96.3,0.55
12.48,31977.8,34953.0,-0.3706,-0.5535,140.8,96.3,0.55
12.5,31952.4,35025.6,-0.7866,0.3179,140.8,96.3,0.55
12.52,32074.0,35031.2,1.2051,0.3855,140.8,96.3,0.55
12.54,32100.4,34945.7,1.6383,-0.6418,140.8,96.3,0.55
12.56,32010.5,35066.1,0.1646,0.8044,140.8,96.3,0.55
12.58,31974.4,35040.6,-0.4264,0.4984,140.8,96.3,0.55
12.6,31998.1,34911.2,-0.0379,-1.0562,140.8,96.3,0.55
12.62,31986.4,34915.3,-0.2301,-1.0063,140.8,96.3,0.55
12.64,31991.9,34920.7,-0.1398,-0.9413,140.8,96.3,0.55
12.66,31911.6,34974.3,-1.4541,-0.2982,140.8,96.3,0.55
12.68,32001.2,34814.7,0.0124,-2.2145,140.8,96.3,0.55
12.7,31973.3,34911.5,-0.4439,-1.053,140.8,96.3,0.55
12.72,32004.1,34926.8,0.0609,-0.8688,140.8,96.3,0.55
12.74,31940.4,34912.6,-0.9835,-1.0387,140.8,96.3,0.55
12.76,32005.3,34954.8,0.0803,-0.5329,140.8,96.3,0.55
12.78,32082.2,35020.5,1.3395,0.2567,140.8,96.3,0.55
12.8,31992.9,34966.4,-0.1228,-0.3924,140.8,96.3,0.55
12.82,32103.0,35109.4,1.6796,1.325,140.8,96.3,0.55
12.84,32027.3,35130.0,0.4403,1.5721,140.8,96.3,0.55
12.86,32071.2,35071.3,1.1598,0.8664,140.8,96.3,0.55
12.88,31982.8,35103.7,-0.2879,1.2557,140.8,96.3,0.55
12.9,32066.5,35045.7,1.0833,0.5597,140.8,96.3,0.55
12.92,32050.2,34992.1,0.8153,-0.0843,140.8,96.3,0.55
12.94,32030.2,35026.9,0.4886,0.3332,140.8,96.3,0.55
12.96,31914.7,35018.7,-1.4035,0.2347,140.8,96.3,0.55
12.98,31952.6,34999.7,-0.7828,0.0067,140.8,96.3,0.55
13.0,31985.2,35029.9,-0.2492,0.3691,140.8,96.3,0.55
13.02,31957.3,34962.0,-0.7054,-0.4459,140.8,96.3,0.55
13.04,31920.7,34973.2,-1.3049,-0.3114,140.8,96.3,0.55
13.06,31988.0,34962.4,-0.2029,-0.4412,140.8,96.3,0.55
13.08,31959.9,34916.9,-0.6629,-0.9876,140.8,96.3,0.55
13.1,31985.2,34922.3,-0.2488,-0.9229,140.8,96.3,0.55
13.12,31952.8,34973.3,-0.779,-0.3106,140.8,96.3,0.55
13.14,31980.5,34876.5,-0.3251,-1.4722,140.8,96.3,0.55
13.16,31872.2,34940.7,-2.0992,-0.7016,140.8,96.3,0.55
13.18,32024.8,34922.8,0.4001,-0.9168,140.8,96.3,0.55
13.2,32049.8,35090.4,0.8084,1.0958,140.8,96.3,0.55
13.22,32080.5,35030.2,1.3114,0.3737,140.8,96.3,0.55
13.24,32035.2,35069.4,0.57,0.8439,140.8,96.3,0.55
13.26,32078.8,35082.0,1.284,0.9959,140.8,96.3,0.55
13.28,32057.3,35135.7,0.9313,1.6405,140.8,96.3,0.55
13.3,32031.4,35066.3,0.5079,0.8065,140.8,96.3,0.55
13.32,32014.4,35037.6,0.2288,0.4626,140.8,96.3,0.55
13.34,32024.7,35057.1,0.3978,0.6967,140.8,96.3,0.55
13.36,32034.5,35009.4,0.5591,0.1231,140.8,96.3,0.55
13.38,32015.0,35014.2,0.2399,0.1806,140.8,96.3,0.55
13.4,32025.8,34925.2,0.4153,-0.8878,140.8,96.3,0.55
13.42,31862.5,35062.5,-2.259,0.7608,140.8,96.3,0.55
13.44,31916.5,34897.4,-1.3736,-1.2216,140.8,96.3,0.55
13.46,31946.5,35051.0,-0.8827,0.6225,140.8,96.3,0.55
13.48,31946.8,34998.8,-0.8774,-0.004,140.8,96.3,0.55
13.5,32060.1,34971.7,0.9769,-0.3298,140.8,96.3,0.55
13.52,31990.9,34945.4,-0.155,-0.6457,140.8,96.3,0.55
13.54,31950.7,35023.1,-0.8143,0.2875,140.8,96.3,0.55
13.56,31887.3,34982.1,-1.8527,-0.205,140.8,96.3,0.55
13.58,31921.6,34882.9,-1.2905,-1.3959,140.8,96.3,0.55
13.6,31984.0,34932.7,-0.2686,-0.7983,140.8,96.3,0.55
13.62,31982.4,34975.1,-0.2947,-0.2887,140.8,96.3,0.55
13.64,32036.6,35079.2,0.5934,0.9621,140.8,96.3,0.55
13.66,32030.4,35137.3,0.4909,1.6599,140.8,96.3,0.55
13.68,32069.0,35063.4,1.1231,0.7719,140.8,96.3,0.55
13.7,32092.6,35150.8,1.5097,1.8216,140.8,96.3,0.55
13.72,32030.2,35074.4,0.4885,0.9035,140.8,96.3,0.55
13.74,32014.7,35137.0,0.2349,1.6561,140.8,96.3,0.55
13.76,32033.8,35065.0,0.5464,0.7907,140.8,96.3,0.55
13.78,31994.4,34982.5,-0.0987,-0.1995,140.8,96.3,0.55
13.8,31935.8,35047.2,-1.0587,0.5776,140.8,96.3,0.55
13.82,31977.8,34963.6,-0.3702,-0.4268,140.8,96.3,0.55
13.84,31966.8,34971.3,-0.5497,-0.3347,140.8,96.3,0.55
13.86,31970.0,35025.1,-0.4984,0.3125,140.8,96.3,0.55
13.88,32050.2,34945.4,0.8158,-0.6453,140.8,96.3,0.55
13.9,31937.9,34892.8,-1.0243,-1.277,140.8,96.3,0.55
13.92,31937.9,34997.8,-1.0236,-0.0155,140.8,96.3,0.55
13.94,31893.1,34917.5,-1.7572,-0.9803,140.8,96.3,0.55
13.96,31949.4,34958.4,-0.8346,-0.489,140.8,96.3,0.55
13.98,31947.5,34841.3,-0.8665,-1.8956,140.8,96.3,0.55
14.0,32052.6,34955.9,0.855,-0.519,140.8,96.3,0.55
14.02,31937.5,34915.8,-1.0298,-1.0007,140.8,96.3,0.55
14.04,31977.6,34943.1,-0.3735,-0.6734,140.8,96.3,0.55
14.06,32011.5,35009.2,0.182,0.1213,140.8,96.3,0.55
14.08,32036.4,35066.3,0.5898,0.8065,140.8,96.3,0.55
14.1,32020.9,35057.3,0.335,0.6981,140.8,96.3,0.55
14.12,32080.0,35058.6,1.3031,0.7139,140.8,96.3,0.55
14.14,32077.7,35056.1,1.2655,0.6839,140.8,96.3,0.55
14.16,32031.2,35023.8,0.5046,0.2966,140.8,96.3,0.55
14.18,32021.3,34985.8,0.3419,-0.1606,140.8,96.3,0.55
14.2,31982.5,35017.3,-0.2928,0.2184,140.8,96.3,0.55
14.22,32008.2,35085.9,0.1281,1.042,140.8,96.3,0.55
14.24,32003.7,35001.0,0.0542,0.0227,140.8,96.3,0.55
14.26,31951.7,34989.3,-0.7979,-0.1176,140.8,96.3,0.55
14.28,31972.0,34908.6,-0.4647,-1.0868,140.8,96.3,0.55
14.3,31954.4,34888.7,-0.7534,-1.3262,140.8,96.3,0.55
14.32,31975.2,34980.3,-0.4125,-0.2265,140.8,96.3,0.55
14.34,31936.8,34930.3,-1.0416,-0.8268,140.8,96.3,0.55
14.36,31963.7,34973.7,-0.6013,-0.3056,140.8,96.3,0.55
14.38,31909.1,34860.1,-1.4953,-1.6701,140.8,96.3,0.55
14.4,32125.7,34911.7,2.052,-1.0504,140.8,96.3,0.55
14.42,31892.5,34823.6,-1.7676,-2.1077,140.8,96.3,0.55
14.44,31898.5,34893.7,-1.6684,-1.2656,140.8,96.3,0.55
14.46,31982.1,35025.5,-0.2995,0.3163,140.8,96.3,0.55
14.48,31979.2,34960.3,-0.3479,-0.4664,140.8,96.3,0.55
14.5,32004.8,34985.2,0.0728,-0.1676,140.8,96.3,0.55
14.52,32045.2,35079.8,0.7332,0.9692,140.8,96.3,0.55
14.54,32080.0,35118.8,1.3039,1.4379,140.8,96.3,0.55
14.56,32053.9,35167.2,0.8755,2.0181,140.8,96.3,0.55
14.58,32013.6,35097.8,0.2157,1.1854,140.8,96.3,0.55
14.6,32019.0,35097.2,0.3048,1.1781,140.8,96.3,0.55
14.62,32084.9,35094.0,1.3833,1.1401,140.8,96.3,0.55
14.64,32109.3,35104.4,1.7832,1.2639,140.8,96.3,0.55
14.66,31944.9,35012.7,-0.9087,0.1634,140.8,96.3,0.55
14.68,32064.9,34906.7,1.057,-1.1106,140.8,96.3,0.55
14.7,31999.9,34943.3,-0.0086,-0.6699,140.8,96.3,0.55
14.72,31970.4,34939.8,-0.491,-0.7122,140.8,96.3,0.55
14.74,31965.4,34939.4,-0.5727,-0.7175,140.8,96.3,0.55
14.76,31978.0,34940.7,-0.3673,-0.7018,140.8,96.3,0.55
14.78,31983.2,34906.0,-0.2819,-1.1184,140.8,96.3,0.55
14.8,31976.6,34957.4,-0.3901,-0.5015,140.8,96.3,0.55
14.82,31922.5,34845.7,-1.2759,-1.8428,140.8,96.3,0.55
14.84,31994.0,34915.2,-0.1048,-1.0081,140.8,96.3,0.55
14.86,32007.1,34958.6,0.1097,-0.4862,140.8,96.3,0.55
14.88,32032.6,34902.4,0.5277,-1.1612,140.8,96.3,0.55
14.9,32039.0,34938.4,0.6328,-0.7294,140.8,96.3,0.55
14.92,32025.9,35075.6,0.418,0.9183,140.8,96.3,0.55
14.94,32115.1,35097.4,1.8789,1.1801,140.8,96.3,0.55
14.96,32068.2,35154.6,1.1109,1.8677,140.8,96.3,0.55
14.98,32114.4,35138.9,1.8662,1.6793,140.8,96.3,0.55
15.0,32059.0,35094.7,0.9594,1.1473,140.8,96.3,0.55
15.02,31968.3,35095.6,-0.5259,1.1584,140.8,96.3,0.55
15.04,32080.5,35009.0,1.3119,0.1192,140.8,96.3,0.55
15.06,32014.0,35076.2,0.2226,0.9253,140.8,96.3,0.55
15.08,31963.0,34992.9,-0.6118,-0.0744,140.8,96.3,0.55
15.1,31942.3,35056.3,-0.9513,0.6872,140.8,96.3,0.55
15.12,32001.6,35090.7,0.0188,1.1004,140.8,96.3,0.55
15.14,32012.2,34965.3,0.1931,-0.4058,140.8,96.3,0.55
15.16,31984.6,34952.3,-0.2581,-0.5628,140.8,96.3,0.55
15.18,31924.6,34935.5,-1.2411,-0.7643,140.8,96.3,0.55
15.2,31912.9,34955.6,-1.4335,-0.5223,140.8,96.3,0.55
15.22,31973.6,34899.4,-0.4392,-1.198,140.8,96.3,0.55
15.24,31938.5,34894.6,-1.0137,-1.2553,140.8,96.3,0.55
15.26,31999.2,34812.9,-0.0199,-2.2361,140.8,96.3,0.55
15.28,31988.1,34894.9,-0.202,-1.2521,140.8,96.3,0.55
15.3,31883.4,34964.0,-1.9169,-0.4222,140.8,96.3,0.55
15.32,32041.6,34993.8,0.6744,-0.0637,140.8,96.3,0.55
15.34,32002.1,35051.0,0.0283,0.6231,140.8,96.3,0.55
15.36,32059.1,35140.3,0.962,1.6952,140.8,96.3,0.55
15.38,32064.3,35224.4,1.0465,2.7056,140.8,96.3,0.55
15.4,32035.4,35133.9,0.5736,1.6188,140.8,96.3,0.55
15.42,32012.3,35067.6,0.1947,0.8224,140.8,96.3,0.55
15.44,32026.3,35053.2,0.4239,0.6498,140.8,96.3,0.55
15.46,32067.6,35000.3,1.1,0.0145,140.8,96.3,0.55
15.48,31949.8,34981.4,-0.8286,-0.213,140.8,96.3,0.55
15.5,32083.6,35000.4,1.3619,0.015,140.8,96.3,0.55
15.52,31935.2,34974.9,-1.068,-0.2909,140.8,96.3,0.55
15.54,32038.1,35036.1,0.6177,0.4443,140.8,96.3,0.55
15.56,32018.9,34967.1,0.3031,-0.3847,140.8,96.3,0.55
15.58,32002.5,34939.2,0.035,-0.7193,140.8,96.3,0.55
15.6,31985.4,34994.7,-0.2449,-0.0526,140.8,96.3,0.55
15.62,31972.4,35036.9,-0.458,0.4537,140.8,96.3,0.55
15.64,31921.9,34984.0,-1.2858,-0.182,140.8,96.3,0.55
15.66,31941.8,34890.0,-0.9591,-1.3111,140.8,96.3,0.55
15.68,32029.5,34906.1,0.4763,-1.1171,140.8,96.3,0.55
15.7,31934.1,34909.6,-1.0852,-1.0755,140.8,96.3,0.55
15.72,31960.0,34926.0,-0.661,-0.8787,140.8,96.3,0.55
15.74,32005.9,34982.0,0.0908,-0.2062,140.8,96.3,0.55
15.76,31966.1,35053.3,-0.5616,0.6511,140.8,96.3,0.55
15.78,32052.6,35076.6,0.8548,0.9306,140.8,96.3,0.55
15.8,32083.9,35118.1,1.367,1.429,140.8,96.3,0.55
15.82,32087.5,35105.7,1.427,1.2795,140.8,96.3,0.55
15.84,32073.7,35159.3,1.2005,1.9233,140.8,96.3,0.55
15.86,32091.2,35084.2,1.4864,1.0214,140.8,96.3,0.55
15.88,31896.7,35061.4,-1.6983,0.7485,140.8,96.3,0.55
15.9,31920.5,34927.2,-1.308,-0.8641,140.8,96.3,0.55
15.92,32048.3,35022.2,0.7848,0.277,140.8,96.3,0.55
15.94,32037.1,35030.0,0.6006,0.3703,140.8,96.3,0.55
15.96,31989.6,34963.9,-0.1768,-0.4233,140.8,96.3,0.55
15.98,32001.8,35033.9,0.0224,0.4176,140.8,96.3,0.55
16.0,31939.7,34970.1,-0.9943,-0.3488,140.8,96.3,0.55
16.02,32004.5,34952.5,0.0671,-0.5602,140.8,96.3,0.55
16.04,31880.4,34903.4,-1.9654,-1.1493,140.8,96.3,0.55
16.06,31990.4,35054.4,-0.164,0.6635,140.8,96.3,0.55
16.08,31991.7,34971.2,-0.1429,-0.3357,140.8,96.3,0.55
16.1,31969.9,34966.8,-0.5003,-0.3885,140.8,96.3,0.55
16.12,31976.7,34882.9,-0.3887,-1.396,140.8,96.3,0.55
16.14,32003.3,34937.7,0.0476,-0.7374,140.8,96.3,0.55
16.16,32020.0,35014.7,0.3209,0.1872,140.8,96.3,0.55
16.18,32006.1,34935.8,0.094,-0.7611,140.8,96.3,0.55
16.2,32067.8,35068.0,1.1036,0.8276,140.8,96.3,0.55
16.22,32168.4,35046.0,2.7517,0.5634,140.8,96.3,0.55
16.24,32121.3,35154.9,1.9795,1.8705,140.8,96.3,0.55
16.26,32029.1,35090.5,0.4703,1.0973,140.8,96.3,0.55
16.28,32064.2,35056.4,1.0454,0.6883,140.8,96.3,0.55
16.3,32056.6,35016.2,0.9198,0.2051,140.8,96.3,0.55
16.32,32052.4,35063.8,0.852,0.7763,140.8,96.3,0.55
16.34,32056.8,34976.7,0.9233,-0.2693,140.8,96.3,0.55
16.36,32049.6,34966.2,0.8061,-0.3957,140.8,96.3,0.55
16.38,31931.3,35019.0,-1.1314,0.2388,140.8,96.3,0.55
16.4,31976.3,34993.6,-0.3951,-0.0666,140.8,96.3,0.55
16.42,32024.8,34903.5,0.3991,-1.1479,140.8,96.3,0.55
16.44,32034.7,34914.4,0.5623,-1.0174,140.8,96.3,0.55
16.46,32046.1,34982.8,0.7482,-0.1964,140.8,96.3,0.55
16.48,32102.2,34972.5,1.6667,-0.3196,140.8,96.3,0.55
16.5,31951.6,34920.8,-0.8,-0.9407,140.8,96.3,0.55
16.52,31948.3,34959.0,-0.8541,-0.4817,140.8,96.3,0.55
16.54,31926.9,34887.3,-1.203,-1.3426,140.8,96.3,0.55
16.56,32021.0,34929.0,0.3368,-0.8421,140.8,96.3,0.55
16.58,31965.9,34883.1,-0.5645,-1.393,140.8,96.3,0.55
16.6,31969.9,34916.5,-0.4997,-0.9918,140.8,96.3,0.55
16.62,31985.6,34948.0,-0.2422,-0.6145,140.8,96.3,0.55
16.64,31960.1,34999.3,-0.6595,0.0017,140.8,96.3,0.55
16.66,32046.3,34981.4,0.7516,-0.2125,140.8,96.3,0.55
16.68,31993.6,35043.4,-0.1108,0.5312,140.8,96.3,0.55
16.7,32142.5,35077.4,2.327,0.9398,140.8,96.3,0.55
16.72,31996.1,34961.8,-0.0711,-0.4481,140.8,96.3,0.55
16.74,32039.1,35073.4,0.6345,0.8926,140.8,96.3,0.55
16.76,32070.1,35101.6,1.1422,1.2304,140.8,96.3,0.55
16.78,32045.3,35007.7,0.7349,0.1027,140.8,96.3,0.55
16.8,31923.3,35027.2,-1.2625,0.3368,140.8,96.3,0.55
16.82,32004.1,34942.5,0.06,-0.68,140.8,96.3,0.55
16.84,31932.2,34952.4,-1.1166,-0.5617,140.8,96.3,0.55
16.86,31956.8,34901.8,-0.7144,-1.1692,140.8,96.3,0.55
16.88,31965.1,34985.7,-0.5783,-0.1618,140.8,96.3,0.55
16.9,31941.8,34946.3,-0.9591,-0.6348,140.8,96.3,0.55
16.92,31987.1,34974.4,-0.2183,-0.2972,140.8,96.3,0.55
16.94,32032.1,34954.5,0.5199,-0.5364,140.8,96.3,0.55
16.96,32026.6,34882.1,0.4292,-1.4058,140.8,96.3,0.55
16.98,32034.7,34899.0,0.5616,-1.2022,140.8,96.3,0.55
17.0,31912.3,34882.5,-1.4422,-1.4007,140.8,96.3,0.55
17.02,31983.4,34883.2,-0.2777,-1.3927,140.8,96.3,0.55
17.04,31984.1,35004.6,-0.2675,0.0663,140.8,96.3,0.55
17.06,32080.8,35150.2,1.3172,1.8142,140.8,96.3,0.55
17.08,32013.6,35171.8,0.2154,2.0733,140.8,96.3,0.55
17.1,32144.3,35076.4,2.3563,0.9285,140.8,96.3,0.55
17.12,32044.8,35097.8,0.7279,1.1848,140.8,96.3,0.55
17.14,32064.2,34950.8,1.0442,-0.58,140.8,96.3,0.55
17.16,31990.0,35025.8,-0.1712,0.3199,140.8,96.3,0.55
17.18,32059.0,35065.0,0.9589,0.7907,140.8,96.3,0.55
17.2,32025.5,35056.0,0.4118,0.6827,140.8,96.3,0.55
17.22,32003.8,35037.9,0.0552,0.466,140.8,96.3,0.55
17.24,31976.8,34972.6,-0.3861,-0.3191,140.8,96.3,0.55
17.26,31958.1,34919.0,-0.6924,-0.9618,140.8,96.3,0.55
17.28,31817.4,34896.6,-2.997,-1.2308,140.8,96.3,0.55
17.3,31935.6,34912.2,-1.0614,-1.0437,140.8,96.3,0.55
17.32,32020.1,34792.8,0.3233,-2.4785,140.8,96.3,0.55
17.34,32044.3,34975.3,0.7195,-0.2856,140.8,96.3,0.55
17.36,31917.3,34911.5,-1.3604,-1.0521,140.8,96.3,0.55
17.38,31927.2,34888.0,-1.1988,-1.3343,140.8,96.3,0.55
17.4,31946.0,34922.8,-0.8906,-0.9165,140.8,96.3,0.55
17.42,31904.6,34934.8,-1.5694,-0.7724,140.8,96.3,0.55
17.44,32055.0,34942.5,0.8948,-0.6795,140.8,96.3,0.55
17.46,31970.7,34971.5,-0.4861,-0.3321,140.8,96.3,0.55
17.48,31958.6,35079.6,-0.684,0.9667,140.8,96.3,0.55
17.5,31973.8,35097.7,-0.4359,1.184,140.8,96.3,0.55
17.52,32117.1,35076.1,1.9106,0.925,140.8,96.3,0.55
17.54,32067.1,35077.1,1.0929,0.9369,140.8,96.3,0.55
17.56,32101.3,35144.2,1.6527,1.7419,140.8,96.3,0.55
17.58,32064.0,35115.3,1.042,1.3957,140.8,96.3,0.55
17.6,31980.8,35065.2,-0.3216,0.7936,140.8,96.3,0.55
17.62,32004.3,35037.3,0.0643,0.4583,140.8,96.3,0.55
17.64,31993.3,35005.8,-0.1164,0.0802,140.8,96.3,0.55
17.66,32023.0,35067.6,0.3704,0.8229,140.8,96.3,0.55
17.68,31984.0,34902.7,-0.2692,-1.1584,140.8,96.3,0.55
17.7,32021.9,34930.6,0.3517,-0.8234,140.8,96.3,0.55
17.72,31949.6,34912.2,-0.8325,-1.0444,140.8,96.3,0.55
17.74,31988.2,34935.6,-0.2001,-0.7629,140.8,96.3,0.55
17.76,31946.6,34930.1,-0.8809,-0.8289,140.8,96.3,0.55
17.78,32048.0,34951.0,0.7797,-0.5776,140.8,96.3,0.55
17.8,32038.8,34860.7,0.6288,-1.6627,140.8,96.3,0.55
17.82,31931.6,34912.4,-1.126,-1.0414,140.8,96.3,0.55
17.84,31875.8,34869.4,-2.0403,-1.5577,140.8,96.3,0.55
17.86,31980.8,34965.6,-0.321,-0.4031,140.8,96.3,0.55
17.88,31960.7,34955.9,-0.65,-0.5197,140.8,96.3,0.55
17.9,31988.1,35033.2,-0.2008,0.4094,140.8,96.3,0.55
17.92,32091.6,35147.0,1.493,1.7757,140.8,96.3,0.55
17.94,32109.2,35075.9,1.7827,0.9215,140.8,96.3,0.55
17.96,32041.3,35110.5,0.6701,1.3375,140.8,96.3,0.55
17.98,32064.9,35023.2,1.0564,0.2897,140.8,96.3,0.55
18.0,32012.3,35080.4,0.1953,0.9756,140.8,96.3,0.55
18.02,31941.3,34963.0,-0.9675,-0.4333,140.8,96.3,0.55
18.04,32010.4,34984.5,0.1633,-0.1754,140.8,96.3,0.55
18.06,32051.7,35011.4,0.8401,0.147,140.8,96.3,0.55
18.08,32014.5,34959.9,0.2305,-0.4716,140.8,96.3,0.55
18.1,31978.6,35023.1,-0.3564,0.2882,140.8,96.3,0.55
18.12,31961.6,35013.8,-0.636,0.1759,140.8,96.3,0.55
18.14,32045.0,34928.0,0.7307,-0.854,140.8,96.3,0.55
18.16,31951.3,34949.8,-0.8035,-0.5922,140.8,96.3,0.55
18.18,31923.9,35002.9,-1.2527,0.0451,140.8,96.3,0.55
18.2,32000.4,35052.8,0.0003,0.645,140.8,96.3,0.55
18.22,31984.5,34949.8,-0.2604,-0.5925,140.8,96.3,0.55
18.24,31999.5,34907.1,-0.0144,-1.105,140.8,96.3,0.55
18.26,31932.0,35024.0,-1.1195,0.2985,140.8,96.3,0.55
18.28,31891.0,34904.8,-1.7911,-1.1324,140.8,96.3,0.55
18.3,31963.5,34846.4,-0.6049,-1.834,140.8,96.3,0.55
18.32,32040.8,34991.1,0.6616,-0.0968,140.8,96.3,0.55
18.34,32070.2,35127.6,1.1428,1.5429,140.8,96.3,0.55
18.36,32101.3,35112.0,1.6523,1.3557,140.8,96.3,0.55
18.38,32062.2,34929.2,1.0124,-0.8392,140.8,96.3,0.55
18.4,32063.7,35176.1,1.0362,2.1259,140.8,96.3,0.55
18.42,32005.6,35125.5,0.0852,1.5176,140.8,96.3,0.55
18.44,32049.6,34988.6,0.806,-0.1266,140.8,96.3,0.55
18.46,31991.8,35046.2,-0.1402,0.5655,140.8,96.3,0.55
18.48,31997.4,35004.7,-0.0499,0.0671,140.8,96.3,0.55
18.5,32031.3,34970.2,0.5056,-0.3479,140.8,96.3,0.55
18.52,32070.4,35086.6,1.1462,1.051,140.8,96.3,0.55
18.54,31979.1,34974.2,-0.3488,-0.2995,140.8,96.3,0.55
18.56,31917.2,34917.5,-1.3635,-0.9799,140.8,96.3,0.55
18.58,32046.4,34891.9,0.7537,-1.2873,140.8,96.3,0.55
18.6,31986.0,34947.6,-0.2352,-0.6189,140.8,96.3,0.55
18.62,31922.1,34898.5,-1.2826,-1.2086,140.8,96.3,0.55
18.64,31953.6,34966.9,-0.7658,-0.3871,140.8,96.3,0.55
18.66,31949.1,34861.1,-0.8408,-1.6583,140.8,96.3,0.55
18.68,31861.0,34848.2,-2.2834,-1.8126,140.8,96.3,0.55
18.7,31940.4,34973.5,-0.9827,-0.3073,140.8,96.3,0.55
18.72,31922.0,34985.2,-1.2836,-0.1667,140.8,96.3,0.55
18.74,32067.8,34972.6,1.1031,-0.3191,140.8,96.3,0.55
18.76,31950.1,34952.3,-0.8242,-0.5619,140.8,96.3,0.55
18.78,32039.7,35004.3,0.6439,0.0617,140.8,96.3,0.55
18.8,32052.8,35138.7,0.8585,1.6762,140.8,96.3,0.55
18.82,32000.6,35105.8,0.0028,1.2808,140.8,96.3,0.55
18.84,32047.7,35111.1,0.7743,1.3452,140.8,96.3,0.55
18.86,31932.4,35011.6,-1.1134,0.1504,140.8,96.3,0.55
18.88,32042.8,35033.8,0.6943,0.4159,140.8,96.3,0.55
18.9,31956.1,34950.3,-0.7253,-0.5859,140.8,96.3,0.55
18.92,32101.6,34986.6,1.6579,-0.1501,140.8,96.3,0.55
18.94,31938.9,34968.8,-1.0072,-0.3637,140.8,96.3,0.55
18.96,31980.0,34936.8,-0.3341,-0.7483,140.8,96.3,0.55
18.98,31963.4,34989.4,-0.6056,-0.1166,140.8,96.3,0.55
19.0,32013.8,35007.3,0.2187,0.0988,140.8,96.3,0.55
19.02,31915.9,34996.0,-1.3837,-0.0375,140.8,96.3,0.55
19.04,32020.6,34989.8,0.3316,-0.1124,140.8,96.3,0.55
19.06,31878.5,34937.9,-1.9972,-0.7347,140.8,96.3,0.55
19.08,31927.3,34910.6,-1.1974,-1.0632,140.8,96.3,0.55
19.1,31986.7,34995.1,-0.2246,-0.0484,140.8,96.3,0.55
19.12,31968.9,34844.0,-0.5156,-1.8626,140.8,96.3,0.55
19.14,31973.3,34940.6,-0.4442,-0.7034,140.8,96.3,0.55
19.16,32025.2,35027.8,0.4058,0.3444,140.8,96.3,0.55
19.18,32068.3,34968.5,1.1112,-0.3672,140.8,96.3,0.55
19.2,32088.1,35137.7,1.4361,1.6645,140.8,96.3,0.55
19.22,32065.5,35075.7,1.0669,0.9196,140.8,96.3,0.55
19.24,32063.2,35166.5,1.0292,2.01,140.8,96.3,0.55
19.26,32020.5,35179.9,0.3299,2.1708,140.8,96.3,0.55
19.28,32083.5,35031.1,1.3614,0.3837,140.8,96.3,0.55
19.3,31963.5,35013.3,-0.6039,0.1706,140.8,96.3,0.55
19.32,32015.2,35071.5,0.2421,0.8689,140.8,96.3,0.55
19.34,31990.7,35006.4,-0.1595,0.0875,140.8,96.3,0.55
19.36,31909.0,35002.6,-1.4964,0.0412,140.8,96.3,0.55
19.38,31918.2,35030.3,-1.3459,0.3742,140.8,96.3,0.55
19.4,32027.2,34995.5,0.4389,-0.0434,140.8,96.3,0.55
19.42,31866.4,34888.7,-2.1945,-1.3264,140.8,96.3,0.55
19.44,31961.0,34880.8,-0.6454,-1.4205,140.8,96.3,0.55
19.46,31945.0,34909.2,-0.9076,-1.0801,140.8,96.3,0.55
19.48,32015.8,34931.0,0.253,-0.8177,140.8,96.3,0.55
19.5,31909.6,34922.7,-1.4869,-0.9181,140.8,96.3,0.55
19.52,31967.5,34969.0,-0.5383,-0.362,140.8,96.3,0.55
19.54,31899.5,34837.2,-1.6533,-1.9451,140.8,96.3,0.55
19.56,31884.0,34921.0,-1.9071,-0.9382,140.8,96.3,0.55
19.58,31993.2,34928.4,-0.1176,-0.8492,140.8,96.3,0.55
19.6,31953.8,35109.9,-0.7627,1.331,140.8,96.3,0.55
19.62,32042.3,35128.5,0.6862,1.5544,140.8,96.3,0.55
19.64,31977.2,35150.9,-0.3794,1.8231,140.8,96.3,0.55
19.66,32040.9,35211.4,0.6624,2.5493,140.8,96.3,0.55
19.68,32094.9,35063.6,1.5484,0.7746,140.8,96.3,0.55
19.7,32061.0,35050.2,0.9924,0.613,140.8,96.3,0.55
19.72,32090.7,35042.0,1.4784,0.5155,140.8,96.3,0.55
19.74,32022.4,34911.1,0.3597,-1.0566,140.8,96.3,0.55
19.76,32023.9,35052.3,0.3849,0.6389,140.8,96.3,0.55
19.78,31955.5,34949.4,-0.736,-0.5973,140.8,96.3,0.55
19.8,32003.3,34962.7,0.0476,-0.4371,140.8,96.3,0.55
19.82,31997.6,34920.5,-0.0466,-0.9442,140.8,96.3,0.55
19.84,32049.6,34937.3,0.806,-0.7422,140.8,96.3,0.55
19.86,31976.4,34962.3,-0.3937,-0.4426,140.8,96.3,0.55
19.88,31998.5,34918.6,-0.0313,-0.9667,140.8,96.3,0.55
19.9,32039.6,34877.3,0.6417,-1.4633,140.8,96.3,0.55
19.92,31995.1,35025.7,-0.0872,0.3189,140.8,96.3,0.55
19.94,31920.3,34845.1,-1.3115,-1.8495,140.8,96.3,0.55
19.96,31881.6,34873.0,-1.9464,-1.5143,140.8,96.3,0.55
19.98,31933.3,34961.7,-1.0997,-0.4498,140.8,96.3,0.55
20.0,31954.3,34978.3,-0.7556,-0.2497,140.8,96.3,0.55
20.02,32002.6,34898.5,0.0363,-1.2082,140.8,96.3,0.55
20.04,32059.3,35049.8,0.9645,0.6086,140.8,96.3,0.55
20.06,31974.3,35181.0,-0.4278,2.1846,140.8,96.3,0.55
20.08,32089.3,35025.6,1.4554,0.3179,140.8,96.3,0.55
20.1,32049.9,35137.2,0.8108,1.6581,140.8,96.3,0.55
20.12,32001.9,35063.5,0.0242,0.773,140.8,96.3,0.55
20.14,32009.3,35016.3,0.1455,0.2059,140.8,96.3,0.55
20.16,31955.2,35056.1,-0.7402,0.6843,140.8,96.3,0.55
20.18,31979.4,35055.4,-0.3436,0.6754,140.8,96.3,0.55
20.2,32074.8,35032.0,1.218,0.3949,140.8,96.3,0.55
20.22,32047.8,34927.3,0.776,-0.8625,140.8,96.3,0.55
20.24,32025.5,34863.1,0.4105,-1.634,140.8,96.3,0.55
20.26,32013.4,34979.9,0.2121,-0.2314,140.8,96.3,0.55
20.28,32030.0,35009.5,0.4855,0.1245,140.8,96.3,0.55
20.3,32007.3,34892.2,0.1127,-1.2846,140.8,96.3,0.55
20.32,31874.6,34843.6,-2.0601,-1.8684,140.8,96.3,0.55
20.34,31923.2,34935.4,-1.2644,-0.7659,140.8,96.3,0.55
20.36,31999.7,34913.8,-0.0118,-1.0248,140.8,96.3,0.55
20.38,31871.6,34867.3,-2.1102,-1.5836,140.8,96.3,0.55
20.4,31934.5,34872.6,-1.0788,-1.5198,140.8,96.3,0.55
20.42,31988.8,34965.6,-0.1902,-0.403,140.8,96.3,0.55
20.44,32031.9,34966.5,0.5164,-0.3916,140.8,96.3,0.55
20.46,32094.7,35103.3,1.5442,1.2511,140.8,96.3,0.55
20.48,32037.2,35074.7,0.6034,0.908,140.8,96.3,0.55
20.5,31986.6,35120.0,-0.2255,1.4523,140.8,96.3,0.55
20.52,31993.1,35132.2,-0.1201,1.5986,140.8,96.3,0.55
20.54,32077.2,35153.0,1.2581,1.848,140.8,96.3,0.55
20.56,32030.9,35051.3,0.4992,0.6268,140.8,96.3,0.55
20.58,31988.3,34997.7,-0.1984,-0.0169,140.8,96.3,0.55
20.6,31965.2,35087.6,-0.5773,1.0624,140.8,96.3,0.55
20.62,32042.3,35015.3,0.6861,0.1942,140.8,96.3,0.55
20.64,31950.5,34974.7,-0.8172,-0.2939,140.8,96.3,0.55
20.66,32034.9,34990.3,0.5645,-0.1063,140.8,96.3,0.55
20.68,31912.1,34987.3,-1.4466,-0.1416,140.8,96.3,0.55
20.7,31935.2,34986.1,-1.0681,-0.1565,140.8,96.3,0.55
20.72,31878.1,34950.3,-2.0038,-0.5866,140.8,96.3,0.55
20.74,31980.6,34833.8,-0.3248,-1.9857,140.8,96.3,0.55
20.76,32000.8,35024.1,0.0066,0.2996,140.8,96.3,0.55
20.78,31956.0,34986.1,-0.727,-0.1559,140.8,96.3,0.55
20.8,31920.1,34896.9,-1.3145,-1.2275,140.8,96.3,0.55
20.82,31994.0,34923.1,-0.1054,-0.9133,140.8,96.3,0.55
20.84,31913.3,34950.5,-1.4262,-0.584,140.8,96.3,0.55
20.86,32010.3,35011.9,0.1625,0.1532,140.8,96.3,0.55
20.88,31920.7,34926.8,-1.3051,-0.8685,140.8,96.3,0.55
20.9,32100.1,35130.6,1.6333,1.5786,140.8,96.3,0.55
20.92,32151.3,35111.6,2.4721,1.3507,140.8,96.3,0.55
20.94,32105.1,35114.6,1.715,1.3869,140.8,96.3,0.55
20.96,32011.3,35023.1,0.1781,0.2875,140.8,96.3,0.55
20.98,31977.0,35013.6,-0.3827,0.1739,140.8,96.3,0.55
21.0,32056.4,35002.1,0.9177,0.0357,140.8,96.3,0.55
21.02,32026.1,34975.8,0.4211,-0.2799,140.8,96.3,0.55
21.04,32003.9,35036.3,0.0571,0.4462,140.8,96.3,0.55
21.06,32084.7,34943.5,1.3803,-0.6677,140.8,96.3,0.55
21.08,31991.1,34974.9,-0.1528,-0.2912,140.8,96.3,0.55
21.1,31997.1,34926.2,-0.0547,-0.876,140.8,96.3,0.55
21.12,32004.6,34959.9,0.0691,-0.4707,140.8,96.3,0.55
21.14,32016.1,34918.9,0.2576,-0.964,140.8,96.3,0.55
21.16,31934.2,34852.7,-1.0848,-1.7585,140.8,96.3,0.55
21.18,32008.8,34906.3,0.1379,-1.1144,140.8,96.3,0.55
21.2,32029.6,34967.5,0.4782,-0.3802,140.8,96.3,0.55
21.22,32056.6,34886.4,0.9197,-1.3542,140.8,96.3,0.55
21.24,31933.6,34862.1,-1.0949,-1.6454,140.8,96.3,0.55
21.26,32010.4,34859.4,0.1634,-1.6787,140.8,96.3,0.55
21.28,32018.7,34958.3,0.2999,-0.4908,140.8,96.3,0.55
21.3,32042.6,34909.8,0.6912,-1.0728,140.8,96.3,0.55
21.32,32018.2,35180.8,0.292,2.1814,140.8,96.3,0.55
21.34,32025.2,35136.3,0.4062,1.6469,140.8,96.3,0.55
21.36,32067.2,35138.5,1.0944,1.6744,140.8,96.3,0.55
21.38,31955.9,35171.0,-0.7296,2.0644,140.8,96.3,0.55
21.4,31940.3,35070.4,-0.9841,0.8563,140.8,96.3,0.55
21.42,31996.0,35010.1,-0.0721,0.1317,140.8,96.3,0.55
21.44,31995.3,35035.3,-0.0838,0.434,140.8,96.3,0.55
21.46,32015.9,35009.3,0.2544,0.1225,140.8,96.3,0.55
21.48,32034.4,35107.7,0.5576,1.3044,140.8,96.3,0.55
21.5,31985.2,34978.9,-0.2496,-0.2425,140.8,96.3,0.55
21.52,32016.3,35036.8,0.261,0.4531,140.8,96.3,0.55
21.54,31927.7,34953.8,-1.1903,-0.5439,140.8,96.3,0.55
21.56,31936.8,34978.5,-1.0424,-0.2477,140.8,96.3,0.55
21.58,31900.7,34983.2,-1.6332,-0.1911,140.8,96.3,0.55
21.6,32003.8,34947.5,0.0559,-0.6195,140.8,96.3,0.55
21.62,32016.1,34923.5,0.257,-0.9086,140.8,96.3,0.55
21.64,31924.8,34964.5,-1.2374,-0.4155,140.8,96.3,0.55
21.66,32031.1,34980.7,0.5029,-0.2207,140.8,96.3,0.55
21.68,31919.0,34991.0,-1.3331,-0.0971,140.8,96.3,0.55
21.7,31998.9,34948.9,-0.0253,-0.603,140.8,96.3,0.55
21.72,32034.8,34993.5,0.5641,-0.067,140.8,96.3,0.55
21.74,31977.8,35009.3,-0.3701,0.1218,140.8,96.3,0.55
21.76,32058.9,35020.4,0.958,0.2556,140.8,96.3,0.55
21.78,32074.1,35112.0,1.2072,1.356,140.8,96.3,0.55
21.8,31962.2,35091.9,-0.6259,1.1141,140.8,96.3,0.55
21.82,32036.8,35095.1,0.5957,1.1529,140.8,96.3,0.55
21.84,32073.3,35028.5,1.1946,0.3526,140.8,96.3,0.55
21.86,32015.8,35025.3,0.2528,0.3139,140.8,96.3,0.55
21.88,31947.7,35098.0,-0.8628,1.1879,140.8,96.3,0.55
21.9,32021.3,35048.1,0.3428,0.5884,140.8,96.3,0.55
21.92,32116.4,34952.9,1.9005,-0.5557,140.8,96.3,0.55
21.94,31999.5,34997.9,-0.0152,-0.0148,140.8,96.3,0.55
21.96,31966.3,35000.7,-0.5581,0.0191,140.8,96.3,0.55
21.98,31886.3,34984.5,-1.8685,-0.1759,140.8,96.3,0.55
22.0,32008.6,34931.0,0.1349,-0.8178,140.8,96.3,0.55
22.02,31969.6,34883.7,-0.5039,-1.386,140.8,96.3,0.55
22.04,31912.3,34961.5,-1.4429,-0.4521,140.8,96.3,0.55
22.06,31935.4,34921.2,-1.0644,-0.9357,140.8,96.3,0.55
22.08,31990.0,34871.6,-0.1703,-1.5317,140.8,96.3,0.55
22.1,31939.1,34832.6,-1.0045,-2.0002,140.8,96.3,0.55
22.12,31944.0,34929.7,-0.924,-0.8344,140.8,96.3,0.55
22.14,31980.5,34922.2,-0.3252,-0.9236,140.8,96.3,0.55
22.16,31975.2,35021.6,-0.4128,0.2701,140.8,96.3,0.55
22.18,31961.6,35043.4,-0.636,0.5313,140.8,96.3,0.55
22.2,31984.1,35083.7,-0.2668,1.0163,140.8,96.3,0.55
22.22,32078.4,35070.1,1.278,0.8525,140.8,96.3,0.55
22.24,32024.4,35143.8,0.3923,1.7372,140.8,96.3,0.55
22.26,32091.8,35089.9,1.4976,1.0908,140.8,96.3,0.55
22.28,32034.6,35135.9,0.5594,1.6423,140.8,96.3,0.55
22.3,32101.6,34958.0,1.658,-0.4937,140.8,96.3,0.55
22.32,31999.5,34972.4,-0.0143,-0.3205,140.8,96.3,0.55
22.34,31979.8,34956.5,-0.3374,-0.5122,140.8,96.3,0.55
22.36,32029.4,35026.5,0.4754,0.3293,140.8,96.3,0.55
22.38,31936.4,34964.9,-1.0483,-0.4105,140.8,96.3,0.55
22.4,31915.5,34946.7,-1.3908,-0.6295,140.8,96.3,0.55
22.42,31965.3,34986.5,-0.5744,-0.151,140.8,96.3,0.55
22.44,31944.5,34828.2,-0.9157,-2.053,140.8,96.3,0.55
22.46,32000.9,34921.0,0.0073,-0.9382,140.8,96.3,0.55
22.48,31982.8,34910.1,-0.2887,-1.0698,140.8,96.3,0.55
22.5,31957.5,34958.3,-0.7021,-0.4908,140.8,96.3,0.55
22.52,31945.1,34891.6,-0.9064,-1.2908,140.8,96.3,0.55
22.54,31962.0,34851.3,-0.6296,-1.775,140.8,96.3,0.55
22.56,31979.5,34907.8,-0.342,-1.0973,140.8,96.3,0.55
22.58,32055.1,35058.3,0.8954,0.7112,140.8,96.3,0.55
22.6,32037.4,35059.4,0.6057,0.7236,140.8,96.3,0.55
22.62,32083.0,35193.9,1.353,2.3389,140.8,96.3,0.55
22.64,32104.1,35181.8,1.6986,2.1943,140.8,96.3,0.55
22.66,32087.0,35011.1,1.4188,0.1444,140.8,96.3,0.55
22.68,32012.0,35057.2,0.1898,0.6969,140.8,96.3,0.55
22.7,31974.4,35070.7,-0.4257,0.8592,140.8,96.3,0.55
22.72,32016.6,35075.9,0.2655,0.9219,140.8,96.3,0.55
22.74,32103.2,35051.5,1.6833,0.6289,140.8,96.3,0.55
22.76,32137.1,34964.2,2.2382,-0.4192,140.8,96.3,0.55
22.78,32001.5,34967.7,0.0172,-0.3771,140.8,96.3,0.55
22.8,32044.0,34995.5,0.7134,-0.0439,140.8,96.3,0.55
22.82,31962.8,34928.1,-0.6165,-0.8535,140.8,96.3,0.55
22.84,31949.7,34994.7,-0.8303,-0.053,140.8,96.3,0.55
22.86,31934.5,34964.5,-1.0793,-0.4161,140.8,96.3,0.55
22.88,31955.0,35009.5,-0.7436,0.1242,140.8,96.3,0.55
22.9,32075.9,34911.0,1.237,-1.0589,140.8,96.3,0.55
22.92,31925.6,34923.5,-1.2252,-0.9077,140.8,96.3,0.55
22.94,31910.7,34946.9,-1.4692,-0.627,140.8,96.3,0.55
22.96,31988.6,34857.9,-0.1925,-1.6967,140.8,96.3,0.55
22.98,31952.5,34926.4,-0.7844,-0.8729,140.8,96.3,0.55
23.0,32014.9,35149.7,0.2371,1.8083,140.8,96.3,0.55
23.02,32083.6,35071.6,1.3633,0.87,140.8,96.3,0.55
23.04,32102.5,35112.1,1.6719,1.3563,140.8,96.3,0.55
23.06,31976.1,35166.4,-0.3982,2.0093,140.8,96.3,0.55
23.08,32031.2,35152.8,0.5037,1.8463,140.8,96.3,0.55
23.1,31988.0,35126.7,-0.2033,1.5328,140.8,96.3,0.55
23.12,32023.8,34998.0,0.3831,-0.0136,140.8,96.3,0.55
23.14,31940.7,35029.2,-0.9785,0.3616,140.8,96.3,0.55
23.16,32023.9,35051.5,0.3848,0.6293,140.8,96.3,0.55
23.18,31944.7,35003.6,-0.9117,0.0539,140.8,96.3,0.55
23.2,32017.5,35066.0,0.2794,0.8034,140.8,96.3,0.55
23.22,31993.0,34980.7,-0.1207,-0.2215,140.8,96.3,0.55
23.24,31994.4,35012.5,-0.0984,0.1607,140.8,96.3,0.55
23.26,31958.2,35044.8,-0.6916,0.549,140.8,96.3,0.55
23.28,32059.2,34904.4,0.9626,-1.1373,140.8,96.3,0.55
23.3,31954.0,34912.3,-0.7603,-1.0433,140.8,96.3,0.55
23.32,31990.2,35007.4,-0.1673,0.0995,140.8,96.3,0.55
23.34,32024.3,34907.8,0.3909,-1.0973,140.8,96.3,0.55
23.36,31932.9,34845.4,-1.1063,-1.8462,140.8,96.3,0.55
23.38,31954.1,34931.6,-0.7581,-0.8113,140.8,96.3,0.55
23.4,31934.5,34911.6,-1.0795,-1.0511,140.8,96.3,0.55
23.42,31936.9,34993.9,-1.0397,-0.0632,140.8,96.3,0.55
23.44,32091.0,35064.3,1.4845,0.7826,140.8,96.3,0.55
23.46,32128.3,35085.2,2.0951,1.0338,140.8,96.3,0.55
23.48,32068.9,35149.2,1.1218,1.8024,140.8,96.3,0.55
23.5,32005.5,35131.3,0.0839,1.5873,140.8,96.3,0.55
23.52,32093.9,35129.2,1.5315,1.5624,140.8,96.3,0.55
23.54,32051.4,35089.8,0.8358,1.089,140.8,96.3,0.55
23.56,32038.8,35086.0,0.629,1.0431,140.8,96.3,0.55
23.58,31911.9,34925.5,-1.4488,-0.884,140.8,96.3,0.55
23.6,32023.0,35039.0,0.3705,0.4785,140.8,96.3,0.55
23.62,31977.0,35009.4,-0.3827,0.1235,140.8,96.3,0.55
23.64,31984.2,35016.7,-0.2654,0.2109,140.8,96.3,0.55
23.66,31933.0,34899.6,-1.1041,-1.1954,140.8,96.3,0.55
23.68,31923.0,34969.5,-1.2673,-0.3564,140.8,96.3,0.55
23.7,31868.6,34927.4,-2.1581,-0.8611,140.8,96.3,0.55
23.72,31888.9,34942.5,-1.8261,-0.68,140.8,96.3,0.55
23.74,32117.4,35001.9,1.9169,0.0337,140.8,96.3,0.55
23.76,31857.7,34914.3,-2.3371,-1.0192,140.8,96.3,0.55
23.78,32038.2,34929.9,0.6194,-0.8316,140.8,96.3,0.55
23.8,32043.3,34908.7,0.7019,-1.0861,140.8,96.3,0.55
23.82,32004.4,34969.2,0.0654,-0.3589,140.8,96.3,0.55
23.84,31939.7,34917.5,-0.995,-0.9808,140.8,96.3,0.55
23.86,32058.1,35064.1,0.9448,0.7807,140.8,96.3,0.55
23.88,32014.5,35085.2,0.2309,1.034,140.8,96.3,0.55
23.9,32043.2,35223.0,0.7008,2.6883,140.8,96.3,0.55
23.92,32117.3,35167.1,1.914,2.0176,140.8,96.3,0.55
23.94,32073.3,35085.7,1.1939,1.0399,140.8,96.3,0.55
23.96,32054.9,35084.2,0.8923,1.0214,140.8,96.3,0.55
23.98,32043.6,35016.7,0.7073,0.2109,140.8,96.3,0.55
24.0,32006.6,35105.3,0.1007,1.2752,140.8,96.3,0.55
24.02,32005.4,35027.0,0.0825,0.3352,140.8,96.3,0.55
24.04,32013.1,35038.5,0.2081,0.4734,140.8,96.3,0.55
24.06,31957.5,35024.1,-0.7018,0.3005,140.8,96.3,0.55
24.08,31865.1,35030.2,-2.2166,0.3733,140.8,96.3,0.55
24.1,31948.9,34902.1,-0.8435,-1.1657,140.8,96.3,0.55
24.12,31977.9,34970.1,-0.3687,-0.3484,140.8,96.3,0.55
24.14,32038.9,34946.3,0.6306,-0.6349,140.8,96.3,0.55
24.16,32002.4,34885.2,0.0328,-1.3678,140.8,96.3,0.55
24.18,31987.4,34857.2,-0.2129,-1.7046,140.8,96.3,0.55
24.2,31889.7,34837.8,-1.8128,-1.938,140.8,96.3,0.55
24.22,31913.8,34968.6,-1.4188,-0.3669,140.8,96.3,0.55
24.24,32035.9,34864.6,0.5812,-1.6153,140.8,96.3,0.55
24.26,32006.1,34986.3,0.0938,-0.1536,140.8,96.3,0.55
24.28,31982.0,35072.0,-0.3012,0.8751,140.8,96.3,0.55
24.3,32055.4,35118.4,0.9008,1.4329,140.8,96.3,0.55
24.32,32050.0,35105.7,0.8128,1.2806,140.8,96.3,0.55
24.34,32098.6,35064.8,1.6089,0.7889,140.8,96.3,0.55
24.36,32119.9,35021.9,1.9564,0.2733,140.8,96.3,0.55
24.38,32039.2,35076.9,0.6348,0.9341,140.8,96.3,0.55
24.4,31997.2,35143.3,-0.0528,1.7318,140.8,96.3,0.55
24.42,31999.3,34957.2,-0.0173,-0.5031,140.8,96.3,0.55
24.44,31997.1,35022.1,-0.0548,0.2762,140.8,96.3,0.55
24.46,32057.3,34851.8,0.9314,-1.7697,140.8,96.3,0.55
24.48,31934.3,34903.4,-1.0831,-1.1495,140.8,96.3,0.55
24.5,32026.4,34972.5,0.4253,-0.3202,140.8,96.3,0.55
24.52,32005.1,34911.7,0.0762,-1.0505,140.8,96.3,0.55
24.54,31969.4,34897.7,-0.5079,-1.2177,140.8,96.3,0.55
24.56,31971.1,35001.8,-0.4795,0.0324,140.8,96.3,0.55
24.58,31980.3,35000.3,-0.3293,0.0145,140.8,96.3,0.55
24.6,31987.7,34955.0,-0.2077,-0.5304,140.8,96.3,0.55
24.62,31986.0,34833.6,-0.2365,-1.9884,140.8,96.3,0.55
24.64,31952.8,34904.0,-0.7799,-1.1424,140.8,96.3,0.55
24.66,32003.1,34973.0,0.0445,-0.3137,140.8,96.3,0.55
24.68,32027.8,34976.7,0.4481,-0.269,140.8,96.3,0.55
24.7,31983.7,34924.1,-0.2732,-0.9007,140.8,96.3,0.55
24.72,31919.1,35125.5,-1.3313,1.5174,140.8,96.3,0.55
24.74,31999.3,35244.0,-0.0183,2.9409,140.8,96.3,0.55
24.76,32093.4,35110.3,1.5229,1.3358,140.8,96.3,0.55
24.78,32022.3,35048.7,0.3594,0.5952,140.8,96.3,0.55
24.8,32045.2,35009.1,0.7339,0.1198,140.8,96.3,0.55
24.82,32077.8,35080.7,1.2669,0.9799,140.8,96.3,0.55
24.84,32019.0,35065.2,0.3041,0.7941,140.8,96.3,0.55
24.86,32014.0,35059.2,0.2222,0.7218,140.8,96.3,0.55
24.88,31940.4,34975.3,-0.9826,-0.286,140.8,96.3,0.55
24.9,32018.4,34907.5,0.2944,-1.1002,140.8,96.3,0.55
24.92,32031.2,35041.2,0.5041,0.5058,140.8,96.3,0.55
24.94,32057.7,34982.7,0.9377,-0.1971,140.8,96.3,0.55
24.96,31903.4,34981.3,-1.5882,-0.2141,140.8,96.3,0.55
24.98,32078.0,34978.3,1.2706,-0.2504,140.8,96.3,0.55
25.0,31921.8,35060.2,-1.287,0.7336,140.8,96.3,0.55
25.02,31950.5,35015.7,-0.8172,0.1996,140.8,96.3,0.55
25.04,31934.5,34950.1,-1.0795,-0.5886,140.8,96.3,0.55
25.06,31975.2,34915.4,-0.4122,-1.0051,140.8,96.3,0.55
25.08,31947.1,34927.3,-0.8726,-0.8624,140.8,96.3,0.55
25.1,31899.8,34917.9,-1.647,-0.9754,140.8,96.3,0.55
25.12,32009.2,34948.2,0.1448,-0.6118,140.8,96.3,0.55
25.14,32039.2,35023.9,0.6361,0.2974,140.8,96.3,0.55
25.16,32116.7,35022.2,1.9046,0.2766,140.8,96.3,0.55
25.18,32045.0,35078.0,0.7298,0.9475,140.8,96.3,0.55
25.2,32045.3,35074.1,0.7351,0.9,140.8,96.3,0.55
25.22,31941.9,35034.5,-0.9579,0.4248,140.8,96.3,0.55
25.24,32009.0,35000.7,0.1408,0.0186,140.8,96.3,0.55
25.26,32006.5,35002.8,0.1,0.0442,140.8,96.3,0.55
25.28,32011.0,35065.1,0.1739,0.7921,140.8,96.3,0.55
25.3,31951.6,34968.5,-0.7999,-0.3677,140.8,96.3,0.55
25.32,32074.2,35005.5,1.2087,0.0772,140.8,96.3,0.55
25.34,32095.4,35035.0,1.5563,0.4307,140.8,96.3,0.55
25.36,31959.0,34945.0,-0.6778,-0.6495,140.8,96.3,0.55
25.38,31980.9,34896.4,-0.3199,-1.2338,140.8,96.3,0.55
25.4,31958.1,34989.9,-0.693,-0.1107,140.8,96.3,0.55
25.42,31951.8,34857.3,-0.7956,-1.7038,140.8,96.3,0.55
25.44,32025.3,35005.8,0.4072,0.0807,140.8,96.3,0.55
25.46,32084.0,34973.5,1.3691,-0.3073,140.8,96.3,0.55
25.48,31945.1,34959.4,-0.9051,-0.4777,140.8,96.3,0.55
25.5,31958.9,34905.6,-0.6799,-1.1238,140.8,96.3,0.55
25.52,32016.0,34974.9,0.2556,-0.2911,140.8,96.3,0.55
25.54,31954.4,34943.4,-0.7528,-0.6691,140.8,96.3,0.55
25.56,31970.1,34891.0,-0.4957,-1.2985,140.8,96.3,0.55
25.58,32152.3,35140.0,2.4882,1.6925,140.8,96.3,0.55
25.6,32028.7,35122.5,0.4638,1.4818,140.8,96.3,0.55
25.62,32068.9,35128.8,1.1216,1.5574,140.8,96.3,0.55
25.64,32025.9,35097.5,0.4171,1.1811,140.8,96.3,0.55
25.66,31921.2,35118.0,-1.2978,1.4282,140.8,96.3,0.55
25.68,32076.0,34993.2,1.2387,-0.0707,140.8,96.3,0.55
25.7,31982.6,35097.8,-0.291,1.1854,140.8,96.3,0.55
25.72,32084.4,34978.4,1.3753,-0.2492,140.8,96.3,0.55
25.74,32029.2,34967.8,0.4712,-0.3764,140.8,96.3,0.55
25.76,31980.1,34956.6,-0.333,-0.511,140.8,96.3,0.55
25.78,32010.0,35012.5,0.157,0.1609,140.8,96.3,0.55
25.8,31910.1,34971.4,-1.4797,-0.3334,140.8,96.3,0.55
25.82,31972.8,34898.1,-0.4523,-1.2134,140.8,96.3,0.55
25.84,32020.8,34943.7,0.3347,-0.6658,140.8,96.3,0.55
25.86,32015.1,34989.9,0.241,-0.1108,140.8,96.3,0.55
25.88,31891.4,34883.6,-1.7851,-1.3877,140.8,96.3,0.55
25.9,31984.7,34971.0,-0.2579,-0.3376,140.8,96.3,0.55
25.92,32012.1,34898.7,0.1909,-1.2063,140.8,96.3,0.55
25.94,31938.9,34974.1,-1.0078,-0.3011,140.8,96.3,0.55
25.96,31972.4,34929.0,-0.4593,-0.8427,140.8,96.3,0.55
25.98,32000.7,34975.1,0.0054,-0.2884,140.8,96.3,0.55
26.0,32043.9,34981.0,0.7129,-0.2176,140.8,96.3,0.55
26.02,31972.2,35060.4,-0.4612,0.7364,140.8,96.3,0.55
26.04,32062.2,35071.6,1.0126,0.87,140.8,96.3,0.55
26.06,32047.3,35103.2,0.7681,1.2499,140.8,96.3,0.55
26.08,32043.5,35077.0,0.7058,0.9354,140.8,96.3,0.55
26.1,32017.6,34993.8,0.2814,-0.0634,140.8,96.3,0.55
26.12,32047.9,35006.2,0.7777,0.0848,140.8,96.3,0.55
26.14,32002.0,34929.2,0.027,-0.8395,140.8,96.3,0.55
26.16,31951.8,35088.6,-0.7965,1.0747,140.8,96.3,0.55
26.18,32065.9,35013.3,1.0732,0.1709,140.8,96.3,0.55
26.2,31810.8,34946.5,-3.1054,-0.6325,140.8,96.3,0.55
26.22,32049.7,34996.5,0.8066,-0.0319,140.8,96.3,0.55
26.24,31989.7,34955.3,-0.1756,-0.5263,140.8,96.3,0.55
26.26,31945.1,34903.1,-0.9058,-1.1534,140.8,96.3,0.55
26.28,32023.2,34966.0,0.3728,-0.3973,140.8,96.3,0.55
26.3,31961.8,34890.9,-0.6314,-1.2999,140.8,96.3,0.55
26.32,32040.9,34932.7,0.6636,-0.7972,140.8,96.3,0.55
26.34,31958.8,34893.8,-0.6816,-1.2649,140.8,96.3,0.55
26.36,31992.5,34916.2,-0.1289,-0.9963,140.8,96.3,0.55
26.38,31846.1,34838.6,-2.5269,-1.9275,140.8,96.3,0.55
26.4,31905.4,34962.3,-1.556,-0.4422,140.8,96.3,0.55
26.42,32094.4,35043.7,1.5393,0.5353,140.8,96.3,0.55
26.44,32018.9,35085.0,0.3034,1.0317,140.8,96.3,0.55
26.46,32159.0,35197.8,2.5967,2.3861,140.8,96.3,0.55
26.48,32052.6,35083.4,0.8541,1.0126,140.8,96.3,0.55
26.5,32047.7,35082.9,0.7753,1.0062,140.8,96.3,0.55
26.52,32013.8,35051.7,0.2186,0.6315,140.8,96.3,0.55
26.54,32030.2,35029.5,0.4877,0.3642,140.8,96.3,0.55
26.56,31965.3,35090.1,-0.5756,1.0925,140.8,96.3,0.55
26.58,32001.0,35000.4,0.0102,0.015,140.8,96.3,0.55
26.6,31973.1,35060.3,-0.4478,0.7349,140.8,96.3,0.55
26.62,31994.7,34973.0,-0.0933,-0.3132,140.8,96.3,0.55
26.64,31980.9,35016.1,-0.3197,0.2036,140.8,96.3,0.55
26.66,31934.8,34935.5,-1.0741,-0.7637,140.8,96.3,0.55
26.68,32036.4,34946.7,0.5899,-0.6292,140.8,96.3,0.55
26.7,31953.5,35002.5,-0.7682,0.0403,140.8,96.3,0.55
26.72,31972.4,35032.5,-0.459,0.4003,140.8,96.3,0.55
26.74,31954.2,34902.0,-0.7573,-1.1659,140.8,96.3,0.55
26.76,31957.6,34877.6,-0.7008,-1.4592,140.8,96.3,0.55
26.78,31921.6,34944.6,-1.29,-0.6544,140.8,96.3,0.55
26.8,31960.5,34875.7,-0.6529,-1.4822,140.8,96.3,0.55
26.82,32025.0,35029.3,0.4024,0.3621,140.8,96.3,0.55
26.84,31954.2,35063.2,-0.7575,0.7694,140.8,96.3,0.55
26.86,32042.6,35135.4,0.6908,1.6373,140.8,96.3,0.55
26.88,32110.2,35033.5,1.799,0.4131,140.8,96.3,0.55
26.9,32122.4,35164.3,1.9974,1.9834,140.8,96.3,0.55
26.92,31977.7,35137.2,-0.3724,1.6578,140.8,96.3,0.55
26.94,31992.1,35036.1,-0.1362,0.4436,140.8,96.3,0.55
26.96,32017.3,35020.1,0.2772,0.2524,140.8,96.3,0.55
26.98,32044.5,35077.7,0.7222,0.9438,140.8,96.3,0.55
27.0,32100.0,35053.9,1.6311,0.6577,140.8,96.3,0.55
27.02,31975.4,34948.4,-0.4101,-0.6095,140.8,96.3,0.55
27.04,31987.5,34873.4,-0.2106,-1.5102,140.8,96.3,0.55
27.06,31968.0,35024.5,-0.5305,0.3048,140.8,96.3,0.55
27.08,31929.4,34975.0,-1.1631,-0.2901,140.8,96.3,0.55
27.1,31901.7,34958.5,-1.617,-0.4882,140.8,96.3,0.55
27.12,32022.9,34940.3,0.3679,-0.7063,140.8,96.3,0.55
27.14,32033.4,34999.2,0.5409,0.0006,140.8,96.3,0.55
27.16,32010.9,34974.2,0.1724,-0.2996,140.8,96.3,0.55
27.18,31897.9,34989.3,-1.679,-0.1182,140.8,96.3,0.55
27.2,32065.3,34939.2,1.062,-0.7193,140.8,96.3,0.55
27.22,32068.7,34842.9,1.1191,-1.8757,140.8,96.3,0.55
27.24,31997.8,34965.0,-0.0421,-0.4094,140.8,96.3,0.55
27.26,31980.6,35003.8,-0.3245,0.0559,140.8,96.3,0.55
27.28,32037.5,35087.5,0.6069,1.0613,140.8,96.3,0.55
27.3,32014.7,35137.8,0.234,1.6654,140.8,96.3,0.55
27.32,32059.7,35170.1,0.9712,2.0532,140.8,96.3,0.55
27.34,32057.6,35144.6,0.9361,1.7469,140.8,96.3,0.55
27.36,31953.9,35110.7,-0.7611,1.3402,140.8,96.3,0.55
27.38,32027.3,34994.9,0.4397,-0.0511,140.8,96.3,0.55
27.4,32061.8,35039.6,1.0048,0.4861,140.8,96.3,0.55
27.42,32003.6,35109.6,0.0527,1.3272,140.8,96.3,0.55
27.44,32001.7,35047.1,0.0215,0.5758,140.8,96.3,0.55
27.46,31949.2,34996.3,-0.8394,-0.0337,140.8,96.3,0.55
27.48,31968.1,35002.0,-0.529,0.0348,140.8,96.3,0.55
27.5,31944.5,35028.4,-0.9154,0.3515,140.8,96.3,0.55
27.52,31945.7,35007.9,-0.8952,0.1059,140.8,96.3,0.55
27.54,31915.9,35057.9,-1.3839,0.7055,140.8,96.3,0.55
27.56,31820.8,34905.0,-2.9418,-1.1303,140.8,96.3,0.55
27.58,31957.4,34900.7,-0.705,-1.1822,140.8,96.3,0.55
27.6,31936.4,35018.8,-1.0474,0.2367,140.8,96.3,0.55
27.62,31952.3,34963.8,-0.7875,-0.4244,140.8,96.3,0.55
27.64,32003.6,34908.2,0.0523,-1.0924,140.8,96.3,0.55
27.66,31987.4,34937.6,-0.2134,-0.7383,140.8,96.3,0.55
27.68,32083.2,35046.1,1.3552,0.5639,140.8,96.3,0.55
27.7,32002.7,35034.2,0.0381,0.4214,140.8,96.3,0.55
27.72,32049.2,35164.5,0.7989,1.9863,140.8,96.3,0.55
27.74,31999.6,35141.5,-0.0124,1.7098,140.8,96.3,0.55
27.76,32042.8,35068.4,0.6941,0.8324,140.8,96.3,0.55
27.78,32087.9,35094.6,1.4322,1.1468,140.8,96.3,0.55
27.8,32120.7,35019.6,1.9696,0.2461,140.8,96.3,0.55
27.82,32006.5,35078.6,0.0998,0.9542,140.8,96.3,0.55
27.84,32017.9,35060.0,0.2873,0.731,140.8,96.3,0.55
27.86,31997.2,35003.4,-0.053,0.0512,140.8,96.3,0.55
27.88,32009.2,34983.0,0.1433,-0.1937,140.8,96.3,0.55
27.9,32007.2,35039.0,0.1111,0.4792,140.8,96.3,0.55
27.92,31870.2,34975.8,-2.1324,-0.2802,140.8,96.3,0.55
27.94,31995.1,34949.6,-0.0863,-0.5953,140.8,96.3,0.55
27.96,32059.9,34892.8,0.9744,-1.2766,140.8,96.3,0.55
27.98,31963.1,34963.2,-0.6113,-0.431,140.8,96.3,0.55
28.0,31924.0,34902.7,-1.2516,-1.1583,140.8,96.3,0.55
28.02,31924.0,34900.3,-1.2514,-1.1873,140.8,96.3,0.55
28.04,31965.6,34916.9,-0.5703,-0.987,140.8,96.3,0.55
28.06,31923.0,34824.8,-1.267,-2.0938,140.8,96.3,0.55
28.08,31918.1,34895.1,-1.3485,-1.2493,140.8,96.3,0.55
28.1,31958.7,35022.9,-0.6822,0.2861,140.8,96.3,0.55
28.12,32023.1,35011.8,0.3711,0.1518,140.8,96.3,0.55
28.14,32008.9,35104.7,0.1384,1.2685,140.8,96.3,0.55
28.16,32072.3,35121.7,1.1767,1.4716,140.8,96.3,0.55
28.18,32028.0,35094.2,0.452,1.1417,140.8,96.3,0.55
28.2,31989.6,35173.6,-0.1766,2.0951,140.8,96.3,0.55
28.22,32055.7,35048.7,0.9063,0.5955,140.8,96.3,0.55
28.24,31998.7,35024.2,-0.0277,0.3006,140.8,96.3,0.55
28.26,32051.6,35005.0,0.8389,0.0703,140.8,96.3,0.55
28.28,32003.6,35093.6,0.0522,1.1351,140.8,96.3,0.55
28.3,32042.6,35021.8,0.6916,0.2727,140.8,96.3,0.55
28.32,32058.1,34989.7,0.9457,-0.1136,140.8,96.3,0.55
28.34,31973.3,34940.3,-0.4436,-0.706,140.8,96.3,0.55
28.36,31895.6,34968.8,-1.7164,-0.3636,140.8,96.3,0.55
28.38,32047.0,35003.6,0.7624,0.0536,140.8,96.3,0.55
28.4,32007.1,34902.5,0.1094,-1.16,140.8,96.3,0.55
28.42,31939.0,34829.7,-1.0062,-2.0343,140.8,96.3,0.55
28.44,31967.8,34922.3,-0.5338,-0.9227,140.8,96.3,0.55
28.46,31931.0,34923.0,-1.1369,-0.9148,140.8,96.3,0.55
28.48,31896.9,34936.5,-1.6951,-0.7517,140.8,96.3,0.55
28.5,32080.2,34916.6,1.3072,-0.9906,140.8,96.3,0.55
28.52,32051.5,34983.2,0.8371,-0.191,140.8,96.3,0.55
28.54,32018.4,34991.4,0.2954,-0.093,140.8,96.3,0.55
28.56,31933.0,35075.1,-1.1046,0.9124,140.8,96.3,0.55
28.58,32032.9,35087.7,0.5315,1.0638,140.8,96.3,0.55
28.6,32074.5,35144.4,1.2142,1.7452,140.8,96.3,0.55
28.62,32127.5,35066.5,2.0815,0.8097,140.8,96.3,0.55
28.64,32032.3,34972.2,0.5226,-0.3235,140.8,96.3,0.55
28.66,31862.1,35047.2,-2.2655,0.5775,140.8,96.3,0.55
28.68,32115.3,34978.2,1.8812,-0.2511,140.8,96.3,0.55
28.7,32062.2,34989.1,1.0116,-0.1204,140.8,96.3,0.55
28.72,31978.3,35035.6,-0.3613,0.4379,140.8,96.3,0.55
28.74,32056.3,34905.4,0.9151,-1.1262,140.8,96.3,0.55
28.76,31997.4,34928.1,-0.0497,-0.8526,140.8,96.3,0.55
28.78,31998.5,34947.8,-0.0306,-0.6162,140.8,96.3,0.55
28.8,32014.0,34935.3,0.2229,-0.7666,140.8,96.3,0.55
28.82,31901.5,34956.8,-1.62,-0.5085,140.8,96.3,0.55
28.84,32054.7,34968.0,0.8893,-0.3737,140.8,96.3,0.55
28.86,31917.2,34883.7,-1.3627,-1.3865,140.8,96.3,0.55
28.88,32012.6,34920.9,0.1997,-0.9391,140.8,96.3,0.55
28.9,31969.0,34902.3,-0.5144,-1.1624,140.8,96.3,0.55
28.92,31966.0,34907.6,-0.5641,-1.0988,140.8,96.3,0.55
28.94,31937.0,34926.2,-1.0391,-0.8755,140.8,96.3,0.55
28.96,32017.2,34946.9,0.2754,-0.6273,140.8,96.3,0.55
28.98,32071.8,35036.9,1.17,0.4536,140.8,96.3,0.55
29.0,32058.6,35167.2,0.9534,2.0188,140.8,96.3,0.55
29.02,32040.1,35172.3,0.6502,2.0798,140.8,96.3,0.55
29.04,32053.9,35076.9,0.8769,0.934,140.8,96.3,0.55
29.06,32106.6,35138.8,1.7387,1.6775,140.8,96.3,0.55
29.08,32040.9,35069.8,0.6631,0.8483,140.8,96.3,0.55
29.1,32030.0,35021.4,0.4853,0.2679,140.8,96.3,0.55
29.12,31953.4,34980.2,-0.7693,-0.2268,140.8,96.3,0.55
29.14,31980.7,35027.6,-0.3229,0.342,140.8,96.3,0.55
29.16,31936.5,34997.1,-1.046,-0.0247,140.8,96.3,0.55
29.18,31907.8,35005.8,-1.5159,0.0806,140.8,96.3,0.55
29.2,31995.2,34958.9,-0.0853,-0.4835,140.8,96.3,0.55
29.22,32051.7,35000.1,0.8398,0.0116,140.8,96.3,0.55
29.24,31944.6,34934.1,-0.9139,-0.7808,140.8,96.3,0.55
29.26,31984.5,34893.6,-0.26,-1.2672,140.8,96.3,0.55
29.28,32020.5,34933.0,0.3295,-0.7937,140.8,96.3,0.55
29.3,31941.0,34978.7,-0.9725,-0.2454,140.8,96.3,0.55
29.32,31896.3,34903.3,-1.7048,-1.1505,140.8,96.3,0.55
29.34,31894.7,34980.4,-1.7312,-0.2252,140.8,96.3,0.55
29.36,31939.0,34906.0,-1.0056,-1.1189,140.8,96.3,0.55
29.38,31908.9,34965.6,-1.4983,-0.4021,140.8,96.3,0.55
29.4,32009.7,34912.1,0.1517,-1.0448,140.8,96.3,0.55
29.42,31997.7,35028.7,-0.0451,0.3549,140.8,96.3,0.55
29.44,32147.4,35122.8,2.4078,1.485,140.8,96.3,0.55
29.46,32050.2,35119.4,0.8159,1.4442,140.8,96.3,0.55
29.48,32003.5,35114.4,0.0505,1.3845,140.8,96.3,0.55
29.5,32052.1,35101.1,0.8472,1.2246,140.8,96.3,0.55
29.52,31994.5,35009.5,-0.0974,0.1243,140.8,96.3,0.55
29.54,32036.0,34947.3,0.5828,-0.6222,140.8,96.3,0.55
29.56,31937.4,34934.0,-1.0312,-0.7817,140.8,96.3,0.55
29.58,32007.8,34978.7,0.1211,-0.2448,140.8,96.3,0.55
29.6,32016.6,34896.8,0.2653,-1.2285,140.8,96.3,0.55
29.62,32079.2,34984.9,1.2897,-0.1711,140.8,96.3,0.55
29.64,31928.7,35015.2,-1.1737,0.1926,140.8,96.3,0.55
29.66,31981.1,34938.4,-0.3156,-0.7295,140.8,96.3,0.55
29.68,31870.1,34937.7,-2.1341,-0.7376,140.8,96.3,0.55
29.7,31896.2,34896.0,-1.7071,-1.2383,140.8,96.3,0.55
29.72,31963.5,34909.2,-0.6045,-1.0799,140.8,96.3,0.55
29.74,31900.1,34901.9,-1.6427,-1.1671,140.8,96.3,0.55
29.76,32007.4,34871.0,0.1153,-1.5386,140.8,96.3,0.55
29.78,31897.3,34909.4,-1.688,-1.0778,140.8,96.3,0.55
29.8,31905.9,35046.2,-1.5481,0.5659,140.8,96.3,0.55
29.82,32052.1,35034.2,0.8474,0.4217,140.8,96.3,0.55
29.84,32065.2,35051.7,1.0605,0.6314,140.8,96.3,0.55
29.86,32062.1,35174.3,1.011,2.1041,140.8,96.3,0.55
29.88,32064.4,35194.4,1.0476,2.3451,140.8,96.3,0.55
29.9,32087.6,35068.4,1.4288,0.8323,140.8,96.3,0.55
29.92,31915.5,35083.6,-1.3906,1.0148,140.8,96.3,0.55
29.94,32042.7,35064.9,0.6929,0.7897,140.8,96.3,0.55
29.96,31981.8,35064.5,-0.305,0.7852,140.8,96.3,0.55
29.98,31976.5,34996.7,-0.3913,-0.0293,140.8,96.3,0.55
30.0,32051.0,34972.6,0.8288,-0.3189,140.8,96.3,0.55
30.02,31996.0,34927.4,-0.0727,-0.8613,140.8,96.3,0.55
30.04,32063.7,35003.2,1.0364,0.0484,140.8,96.3,0.55
30.06,31930.4,34920.1,-1.1459,-0.9488,140.8,96.3,0.55
30.08,32067.2,34963.5,1.0933,-0.4273,140.8,96.3,0.55
30.1,31922.8,34964.8,-1.2712,-0.4128,140.8,96.3,0.55
30.12,32024.5,34962.7,0.3944,-0.438,140.8,96.3,0.55
30.14,31894.7,34884.5,-1.7316,-1.3766,140.8,96.3,0.55
30.16,31952.4,34880.8,-0.786,-1.4207,140.8,96.3,0.55
30.18,31905.3,34951.6,-1.5573,-0.5704,140.8,96.3,0.55
30.2,32016.5,34844.2,0.264,-1.8607,140.8,96.3,0.55
30.22,32031.3,34949.5,0.5059,-0.5963,140.8,96.3,0.55
30.24,31988.7,35003.6,-0.1921,0.0541,140.8,96.3,0.55
30.26,32077.3,35051.9,1.259,0.6336,140.8,96.3,0.55
30.28,32067.1,35100.7,1.092,1.2201,140.8,96.3,0.55
30.3,32044.1,35101.0,0.7161,1.2231,140.8,96.3,0.55
30.32,32081.0,35164.5,1.3203,1.9865,140.8,96.3,0.55
30.34,32088.5,35062.2,1.4425,0.7581,140.8,96.3,0.55
30.36,32020.5,34992.9,0.3287,-0.0743,140.8,96.3,0.55
30.38,32163.7,35000.3,2.675,0.0139,140.8,96.3,0.55
30.4,31901.6,35119.8,-1.6175,1.4488,140.8,96.3,0.55
30.42,32054.3,34963.2,0.8822,-0.4309,140.8,96.3,0.55
30.44,32062.6,35024.3,1.0182,0.3024,140.8,96.3,0.55
30.46,31986.3,35003.9,-0.2312,0.0578,140.8,96.3,0.55
30.48,31967.5,34993.1,-0.5387,-0.0724,140.8,96.3,0.55
30.5,31988.5,35037.9,-0.1955,0.4653,140.8,96.3,0.55
30.52,31981.5,34958.8,-0.309,-0.4845,140.8,96.3,0.55
30.54,31995.3,34982.1,-0.0842,-0.2041,140.8,96.3,0.55
30.56,32001.1,34829.5,0.0113,-2.0377,140.8,96.3,0.55
30.58,31878.9,34844.5,-1.9901,-1.8576,140.8,96.3,0.55
30.6,31918.2,34920.9,-1.3464,-0.9399,140.8,96.3,0.55
30.62,31981.7,34932.2,-0.307,-0.8039,140.8,96.3,0.55
30.64,32011.1,34919.2,0.1746,-0.9593,140.8,96.3,0.55
30.66,32017.7,34981.6,0.2836,-0.2099,140.8,96.3,0.55
30.68,32068.5,35064.9,1.1151,0.7905,140.8,96.3,0.55
30.7,32077.3,35075.0,1.259,0.9112,140.8,96.3,0.55
30.72,32060.8,35191.8,0.9885,2.3135,140.8,96.3,0.55
30.74,31999.5,35229.6,-0.0153,2.7677,140.8,96.3,0.55
30.76,31961.7,35044.8,-0.6347,0.5481,140.8,96.3,0.55
30.78,32037.4,35000.8,0.6056,0.0199,140.8,96.3,0.55
30.8,32016.1,35095.3,0.2572,1.1552,140.8,96.3,0.55
30.82,32012.0,35096.9,0.1894,1.174,140.8,96.3,0.55
30.84,32045.4,35035.1,0.7376,0.4318,140.8,96.3,0.55
30.86,31913.0,34967.5,-1.4308,-0.3792,140.8,96.3,0.55
30.88,31977.8,35017.9,-0.3701,0.2251,140.8,96.3,0.55
30.9,32078.7,35017.3,1.2819,0.2184,140.8,96.3,0.55
30.92,32072.0,34910.0,1.1726,-1.0705,140.8,96.3,0.55
30.94,32006.2,34945.0,0.0946,-0.6501,140.8,96.3,0.55
30.96,32072.4,34811.6,1.1791,-2.2524,140.8,96.3,0.55
30.98,31964.7,34925.3,-0.5849,-0.8865,140.8,96.3,0.55
31.0,31984.1,34906.9,-0.2674,-1.1077,140.8,96.3,0.55
31.02,31986.8,34947.1,-0.2221,-0.6245,140.8,96.3,0.55
31.04,31978.9,34812.4,-0.3517,-2.2428,140.8,96.3,0.55
31.06,31947.1,34967.5,-0.8728,-0.3797,140.8,96.3,0.55
31.08,31943.3,34983.1,-0.9357,-0.1925,140.8,96.3,0.55
31.1,31972.7,34909.4,-0.4533,-1.0773,140.8,96.3,0.55
31.12,32047.5,35099.5,0.7716,1.2056,140.8,96.3,0.55
31.14,31985.8,35160.5,-0.2394,1.938,140.8,96.3,0.55
31.16,32082.0,35109.9,1.3364,1.3306,140.8,96.3,0.55
31.18,32036.2,35205.0,0.5857,2.4732,140.8,96.3,0.55
31.2,32032.1,35147.3,0.5189,1.7793,140.8,96.3,0.55
31.22,32041.9,35083.0,0.6798,1.0075,140.8,96.3,0.55
31.24,31991.4,35009.6,-0.1481,0.1254,140.8,96.3,0.55
31.26,31966.5,34930.3,-0.5547,-0.8271,140.8,96.3,0.55
31.28,32067.0,35049.4,1.0907,0.6033,140.8,96.3,0.55
31.3,31989.0,34939.4,-0.1864,-0.7178,140.8,96.3,0.55
31.32,31910.1,34947.1,-1.4784,-0.6249,140.8,96.3,0.55
31.34,32015.0,34946.4,0.2384,-0.6335,140.8,96.3,0.55
31.36,31934.4,34868.5,-1.0804,-1.5693,140.8,96.3,0.55
31.38,31991.1,34987.6,-0.1527,-0.1386,140.8,96.3,0.55
31.4,31935.3,34899.9,-1.0657,-1.1913,140.8,96.3,0.55
31.42,32009.7,34960.4,0.153,-0.4645,140.8,96.3,0.55
31.44,31951.5,34927.7,-0.8011,-0.8573,140.8,96.3,0.55
31.46,31981.8,34879.8,-0.3039,-1.433,140.8,96.3,0.55
31.48,31885.5,34877.7,-1.8824,-1.4588,140.8,96.3,0.55
31.5,31984.9,34928.6,-0.2535,-0.8465,140.8,96.3,0.55
31.52,32022.3,35034.7,0.3585,0.4273,140.8,96.3,0.55
31.54,31995.2,35061.2,-0.086,0.745,140.8,96.3,0.55
31.56,32055.1,35074.8,0.8952,0.9092,140.8,96.3,0.55
31.58,32124.0,35146.7,2.0238,1.7721,140.8,96.3,0.55
31.6,32112.8,35129.4,1.8404,1.5647,140.8,96.3,0.55
31.62,31989.9,35115.4,-0.1721,1.3963,140.8,96.3,0.55
31.64,32022.2,35069.7,0.357,0.8481,140.8,96.3,0.55
31.66,32053.1,35047.2,0.8631,0.577,140.8,96.3,0.55
31.68,31946.1,35001.8,-0.8889,0.0321,140.8,96.3,0.55
31.7,31903.4,34982.8,-1.5892,-0.1965,140.8,96.3,0.55
31.72,32020.5,35028.8,0.3296,0.3568,140.8,96.3,0.55
31.74,31913.4,35043.4,-1.4255,0.5316,140.8,96.3,0.55
31.76,32000.7,34928.5,0.0042,-0.8487,140.8,96.3,0.55
31.78,31943.0,34965.9,-0.9394,-0.3985,140.8,96.3,0.55
31.8,31966.1,34941.3,-0.5616,-0.6947,140.8,96.3,0.55
31.82,31956.8,34914.6,-0.7149,-1.0156,140.8,96.3,0.55
31.84,31931.5,34954.5,-1.1287,-0.5364,140.8,96.3,0.55
31.86,31953.8,34906.2,-0.7637,-1.116,140.8,96.3,0.55
31.88,32005.1,34963.7,0.077,-0.4251,140.8,96.3,0.55
31.9,31916.6,34971.9,-1.373,-0.327,140.8,96.3,0.55
31.92,32004.0,34923.1,0.0594,-0.9134,140.8,96.3,0.55
31.94,31985.6,34948.7,-0.242,-0.6061,140.8,96.3,0.55
31.96,32055.0,35057.8,0.8944,0.7051,140.8,96.3,0.55
31.98,32094.5,35154.3,1.5409,1.8631,140.8,96.3,0.55
32.0,32021.0,35196.8,0.3378,2.3744,140.8,96.3,0.55
32.02,32001.5,34980.4,0.0177,-0.2247,140.8,96.3,0.55
32.04,32076.2,35036.4,1.2412,0.4477,140.8,96.3,0.55
32.06,32045.9,35036.2,0.7446,0.445,140.8,96.3,0.55
32.08,32012.7,35067.1,0.2021,0.8168,140.8,96.3,0.55
32.1,32024.1,35087.0,0.3881,1.0551,140.8,96.3,0.55
32.12,32023.5,34951.3,0.3777,-0.5746,140.8,96.3,0.55
32.14,32040.8,35061.9,0.6622,0.7539,140.8,96.3,0.55
32.16,31950.1,35072.7,-0.8245,0.8838,140.8,96.3,0.55
32.18,31949.3,35013.8,-0.8372,0.1768,140.8,96.3,0.55
32.2,31971.5,34886.9,-0.4735,-1.3479,140.8,96.3,0.55
32.22,31911.9,34933.3,-1.4487,-0.7911,140.8,96.3,0.55
32.24,31964.6,34928.8,-0.5863,-0.8445,140.8,96.3,0.55
32.26,32019.3,34873.6,0.3088,-1.5079,140.8,96.3,0.55
32.28,31914.5,34874.7,-1.4065,-1.4947,140.8,96.3,0.55
32.3,32027.0,34928.0,0.4348,-0.854,140.8,96.3,0.55
32.32,31937.4,34900.4,-1.0325,-1.1855,140.8,96.3,0.55
32.34,31914.4,34926.2,-1.4088,-0.8762,140.8,96.3,0.55
32.36,32030.5,34901.7,0.4934,-1.1695,140.8,96.3,0.55
32.38,32101.0,35026.3,1.6478,0.3266,140.8,96.3,0.55
32.4,32083.0,35105.8,1.3521,1.2811,140.8,96.3,0.55
32.42,32067.6,35107.0,1.1,1.2957,140.8,96.3,0.55
32.44,32077.7,35119.7,1.2655,1.4483,140.8,96.3,0.55
32.46,32080.5,35085.1,1.3122,1.0324,140.8,96.3,0.55
32.48,32084.0,35059.7,1.3686,0.7273,140.8,96.3,0.55
32.5,32023.6,35200.9,0.3805,2.4229,140.8,96.3,0.55
32.52,32016.8,35057.2,0.2681,0.6972,140.8,96.3,0.55
32.54,31988.8,35015.1,-0.1908,0.1919,140.8,96.3,0.55
32.56,31898.6,35020.4,-1.6665,0.2554,140.8,96.3,0.55
32.58,32025.3,34990.1,0.4079,-0.1087,140.8,96.3,0.55
32.6,31924.8,35009.3,-1.2383,0.1224,140.8,96.3,0.55
32.62,32021.8,34967.7,0.3504,-0.3771,140.8,96.3,0.55
32.64,31961.1,34976.2,-0.6444,-0.275,140.8,96.3,0.55
32.66,31995.3,34896.8,-0.0839,-1.2294,140.8,96.3,0.55
32.68,31979.3,34902.6,-0.3453,-1.1596,140.8,96.3,0.55
32.7,31941.5,34884.4,-0.9639,-1.3777,140.8,96.3,0.55
32.72,32035.6,34822.3,0.5769,-2.1234,140.8,96.3,0.55
32.74,31838.7,34928.7,-2.6475,-0.8456,140.8,96.3,0.55
32.76,31861.7,34964.2,-2.2721,-0.419,140.8,96.3,0.55
32.78,32059.2,35070.5,0.9635,0.857,140.8,96.3,0.55
32.8,31940.5,34971.6,-0.9809,-0.3309,140.8,96.3,0.55
32.82,31976.0,35042.0,-0.3994,0.5151,140.8,96.3,0.55
32.84,32079.1,35054.3,1.2884,0.6622,140.8,96.3,0.55
32.86,32066.3,35070.4,1.0787,0.8559,140.8,96.3,0.55
32.88,32108.4,35084.4,1.7694,1.0237,140.8,96.3,0.55
32.9,32082.2,35047.1,1.3388,0.5768,140.8,96.3,0.55
32.92,32037.4,35099.8,0.6051,1.2089,140.8,96.3,0.55
32.94,32119.6,35109.5,1.9521,1.3259,140.8,96.3,0.55
32.96,31981.5,34957.0,-0.3089,-0.5055,140.8,96.3,0.55
32.98,31950.0,35000.7,-0.8262,0.0192,140.8,96.3,0.55
33.0,32058.2,34941.9,0.9468,-0.6867,140.8,96.3,0.55
33.02,32068.0,34988.3,1.1077,-0.1297,140.8,96.3,0.55
33.04,31936.6,34915.2,-1.0441,-1.0077,140.8,96.3,0.55
33.06,31961.1,35040.0,-0.6429,0.4911,140.8,96.3,0.55
33.08,31997.3,34929.8,-0.0504,-0.8322,140.8,96.3,0.55
33.1,31901.8,34942.8,-1.6147,-0.6763,140.8,96.3,0.55
33.12,31848.3,34909.1,-2.4903,-1.0809,140.8,96.3,0.55
33.14,31874.6,34891.5,-2.0607,-1.2921,140.8,96.3,0.55
33.16,32005.2,34879.8,0.078,-1.4327,140.8,96.3,0.55
33.18,31896.5,34887.1,-1.7022,-1.345,140.8,96.3,0.55
33.2,31975.6,34934.9,-0.4064,-0.7717,140.8,96.3,0.55
33.22,32049.8,34857.9,0.8096,-1.6961,140.8,96.3,0.55
33.24,31941.2,35054.4,-0.9699,0.6641,140.8,96.3,0.55
33.26,32146.1,35171.6,2.3862,2.0712,140.8,96.3,0.55
33.28,32147.7,35146.7,2.4128,1.7723,140.8,96.3,0.55
33.3,32019.2,35009.8,0.3082,0.1287,140.8,96.3,0.55
33.32,32114.1,35033.4,1.8615,0.4113,140.8,96.3,0.55
33.34,31989.9,35062.4,-0.1717,0.7601,140.8,96.3,0.55
33.36,31989.4,35045.6,-0.1804,0.5582,140.8,96.3,0.55
33.38,32009.6,34982.3,0.1511,-0.2016,140.8,96.3,0.55
33.4,32072.1,35125.8,1.1745,1.5217,140.8,96.3,0.55
33.42,32004.5,35064.9,0.0666,0.7904,140.8,96.3,0.55
33.44,32097.5,35057.9,1.5909,0.7055,140.8,96.3,0.55
33.46,32002.7,34994.0,0.038,-0.061,140.8,96.3,0.55
33.48,31925.0,34935.9,-1.2346,-0.7598,140.8,96.3,0.55
33.5,31911.8,34889.6,-1.4509,-1.3155,140.8,96.3,0.55
33.52,32025.6,34894.7,0.4124,-1.2538,140.8,96.3,0.55
33.54,31965.8,34929.8,-0.566,-0.8322,140.8,96.3,0.55
33.56,32051.8,34929.8,0.8413,-0.8327,140.8,96.3,0.55
33.58,31910.8,34872.2,-1.4681,-1.5246,140.8,96.3,0.55
33.6,31920.6,34955.0,-1.307,-0.53,140.8,96.3,0.55
33.62,32034.2,34971.3,0.5536,-0.3338,140.8,96.3,0.55
33.64,32011.7,34793.6,0.1855,-2.4685,140.8,96.3,0.55
33.66,32072.8,34966.4,1.1852,-0.3933,140.8,96.3,0.55
33.68,32063.4,35140.5,1.0321,1.6978,140.8,96.3,0.55
33.7,31953.2,35092.7,-0.7724,1.1235,140.8,96.3,0.55
33.72,32054.9,35070.1,0.8929,0.852,140.8,96.3,0.55
33.74,32011.9,35085.9,0.188,1.0424,140.8,96.3,0.55
33.76,32063.2,35110.6,1.0293,1.3389,140.8,96.3,0.55
33.78,31984.6,35156.6,-0.2594,1.8918,140.8,96.3,0.55
33.8,32024.1,34839.4,0.3877,-1.9188,140.8,96.3,0.55
33.82,32030.4,34970.8,0.4921,-0.3399,140.8,96.3,0.55
33.84,32000.0,35087.5,-0.0059,1.0616,140.8,96.3,0.55
33.86,32029.6,35012.2,0.4789,0.1573,140.8,96.3,0.55
33.88,32001.0,34989.7,0.0094,-0.1128,140.8,96.3,0.55
33.9,31884.7,34850.7,-1.8942,-1.7823,140.8,96.3,0.55
33.92,31954.9,34965.5,-0.7459,-0.4037,140.8,96.3,0.55
33.94,31987.6,34896.1,-0.209,-1.237,140.8,96.3,0.55
33.96,32058.3,34936.9,0.9486,-0.7477,140.8,96.3,0.55
33.98,31931.6,34950.1,-1.1267,-0.5886,140.8,96.3,0.55
34.0,31976.7,34851.4,-0.3885,-1.7746,140.8,96.3,0.55
34.02,31928.6,34908.3,-1.1765,-1.0904,140.8,96.3,0.55
34.04,32052.9,34923.3,0.859,-0.9112,140.8,96.3,0.55
34.06,31958.8,34880.5,-0.681,-1.4248,140.8,96.3,0.55
34.08,31968.0,34992.2,-0.5304,-0.083,140.8,96.3,0.55
34.1,32098.2,34966.0,1.6011,-0.398,140.8,96.3,0.55
34.12,32077.6,35133.6,1.2643,1.6153,140.8,96.3,0.55
34.14,32121.4,35147.5,1.9811,1.7824,140.8,96.3,0.55
34.16,32001.0,35151.3,0.0101,1.8273,140.8,96.3,0.55
34.18,32020.8,35131.1,0.3336,1.5853,140.8,96.3,0.55
34.2,32032.7,35101.0,0.5283,1.2238,140.8,96.3,0.55
34.22,31949.6,35021.0,-0.8324,0.263,140.8,96.3,0.55
34.24,31952.4,35057.8,-0.7865,0.7041,140.8,96.3,0.55
34.26,32031.5,34949.7,0.509,-0.5939,140.8,96.3,0.55
34.28,32018.7,35004.7,0.2997,0.0673,140.8,96.3,0.55
34.3,32058.9,34962.3,0.9584,-0.4427,140.8,96.3,0.55
34.32,31981.0,34891.5,-0.317,-1.2928,140.8,96.3,0.55
34.34,32013.8,34870.1,0.2195,-1.5498,140.8,96.3,0.55
34.36,31985.0,34943.2,-0.252,-0.6712,140.8,96.3,0.55
34.38,31968.5,34952.3,-0.5217,-0.5628,140.8,96.3,0.55
34.4,31955.8,34874.4,-0.7309,-1.4979,140.8,96.3,0.55
34.42,31919.0,34908.9,-1.3324,-1.0842,140.8,96.3,0.55
34.44,31957.7,34846.4,-0.6988,-1.8342,140.8,96.3,0.55
34.46,31853.3,34920.1,-2.409,-0.9488,140.8,96.3,0.55
34.48,31916.8,34983.4,-1.369,-0.1888,140.8,96.3,0.55
34.5,32033.4,35049.9,0.5402,0.61,140.8,96.3,0.55
34.52,31979.8,35023.3,-0.3366,0.2905,140.8,96.3,0.55
34.54,32123.2,35146.7,2.0114,1.7722,140.8,96.3,0.55
34.56,32029.9,35103.3,0.4837,1.2515,140.8,96.3,0.55
34.58,32138.1,35188.7,2.255,2.277,140.8,96.3,0.55
34.6,32089.2,35091.1,1.4536,1.1049,140.8,96.3,0.55
34.62,32086.3,35111.1,1.4067,1.3454,140.8,96.3,0.55
34.64,31952.0,35122.5,-0.7932,1.4817,140.8,96.3,0.55
34.66,32041.2,34993.0,0.6675,-0.0732,140.8,96.3,0.55
34.68,32022.5,35017.0,0.3625,0.2151,140.8,96.3,0.55
34.7,32033.3,34993.8,0.5387,-0.0643,140.8,96.3,0.55
34.72,31919.2,34986.6,-1.3301,-0.1508,140.8,96.3,0.55
34.74,31948.0,34951.3,-0.8587,-0.574,140.8,96.3,0.55
34.76,32027.7,34927.4,0.4465,-0.862,140.8,96.3,0.55
34.78,31941.3,34866.9,-0.9685,-1.5886,140.8,96.3,0.55
34.8,31912.5,34861.8,-1.439,-1.6493,140.8,96.3,0.55
34.82,32000.1,34898.4,-0.0047,-1.2097,140.8,96.3,0.55
34.84,32026.2,34883.7,0.4224,-1.3868,140.8,96.3,0.55
34.86,32014.5,34910.5,0.2316,-1.0648,140.8,96.3,0.55
34.88,31797.5,34876.3,-3.3235,-1.4748,140.8,96.3,0.55
34.9,32058.8,34872.7,0.9568,-1.5181,140.8,96.3,0.55
34.92,32018.9,34948.1,0.3026,-0.613,140.8,96.3,0.55
34.94,32059.4,35082.9,0.9666,1.0063,140.8,96.3,0.55
34.96,31989.8,35088.6,-0.1742,1.0747,140.8,96.3,0.55
34.98,32124.5,35097.4,2.0321,1.1808,140.8,96.3,0.55
35.0,32007.5,35083.4,0.1158,1.0119,140.8,96.3,0.55
35.02,32043.3,35035.3,0.7024,0.4347,140.8,96.3,0.55
35.04,32173.3,35068.6,2.8315,0.8347,140.8,96.3,0.55
35.06,32028.5,34979.9,0.4599,-0.2305,140.8,96.3,0.55
35.08,31939.3,35020.6,-1.0009,0.2583,140.8,96.3,0.55
35.1,32025.0,35077.2,0.403,0.9376,140.8,96.3,0.55
35.12,31868.8,35037.4,-2.156,0.4597,140.8,96.3,0.55
35.14,32050.1,34978.8,0.8139,-0.2438,140.8,96.3,0.55
35.16,31982.6,34955.7,-0.2917,-0.5213,140.8,96.3,0.55
35.18,32027.6,34922.4,0.4448,-0.9213,140.8,96.3,0.55
35.2,32024.5,34946.3,0.3955,-0.6342,140.8,96.3,0.55
35.22,31977.0,34938.3,-0.3833,-0.7303,140.8,96.3,0.55
35.24,32011.0,34942.6,0.1736,-0.679,140.8,96.3,0.55
35.26,32061.4,35017.3,0.9986,0.2178,140.8,96.3,0.55
35.28,32031.6,35036.2,0.5117,0.4456,140.8,96.3,0.55
35.3,31988.0,34937.5,-0.203,-0.7405,140.8,96.3,0.55
35.32,31943.5,34910.0,-0.9314,-1.0703,140.8,96.3,0.55
35.34,32007.1,34954.4,0.1094,-0.5367,140.8,96.3,0.55
35.36,31871.8,35063.6,-2.1059,0.7747,140.8,96.3,0.55
35.38,32074.2,35052.8,1.2087,0.6451,140.8,96.3,0.55
35.4,32094.4,35087.1,1.5398,1.057,140.8,96.3,0.55
35.42,32050.1,35008.2,0.8133,0.1084,140.8,96.3,0.55
35.44,32078.7,35044.2,1.2827,0.5416,140.8,96.3,0.55
35.46,32043.2,35162.7,0.7003,1.9643,140.8,96.3,0.55
35.48,32014.1,35122.6,0.2242,1.4832,140.8,96.3,0.55
35.5,32042.6,35021.1,0.6918,0.2644,140.8,96.3,0.55
35.52,31988.8,35025.6,-0.1908,0.3175,140.8,96.3,0.55
35.54,31980.1,34985.3,-0.332,-0.1662,140.8,96.3,0.55
35.56,31964.4,34984.5,-0.5895,-0.1754,140.8,96.3,0.55
35.58,32000.7,34986.8,0.0046,-0.148,140.8,96.3,0.55
35.6,32023.7,34972.6,0.3812,-0.3183,140.8,96.3,0.55
35.62,32000.0,34973.5,-0.0063,-0.3077,140.8,96.3,0.55
35.64,31906.8,34889.6,-1.5334,-1.3156,140.8,96.3,0.55
35.66,32061.6,34848.7,1.003,-1.8061,140.8,96.3,0.55
35.68,31993.5,34932.7,-0.1132,-0.7983,140.8,96.3,0.55
35.7,31999.3,34922.3,-0.0178,-0.9221,140.8,96.3,0.55
35.72,31883.8,34956.6,-1.9098,-0.5105,140.8,96.3,0.55
35.74,32004.3,34861.9,0.0636,-1.6482,140.8,96.3,0.55
35.76,32045.6,34838.0,0.7394,-1.9353,140.8,96.3,0.55
35.78,32026.4,34954.0,0.4252,-0.5418,140.8,96.3,0.55
35.8,32041.9,35102.4,0.6801,1.2403,140.8,96.3,0.55
35.82,31982.2,35158.0,-0.2979,1.9078,140.8,96.3,0.55
35.84,32095.7,35127.4,1.5612,1.5412,140.8,96.3,0.55
35.86,32047.6,35071.4,0.7726,0.8684,140.8,96.3,0.55
35.88,32044.6,35242.2,0.7238,2.9195,140.8,96.3,0.55
35.9,32033.0,35053.6,0.5344,0.6544,140.8,96.3,0.55
35.92,31965.2,35098.5,-0.5772,1.1932,140.8,96.3,0.55
35.94,32054.5,35036.8,0.8854,0.4523,140.8,96.3,0.55
35.96,32044.7,35039.8,0.7261,0.488,140.8,96.3,0.55
35.98,31987.6,35042.7,-0.2093,0.523,140.8,96.3,0.55
36.0,32031.4,34950.6,0.5074,-0.5828,140.8,96.3,0.55
36.02,31998.2,34922.9,-0.0356,-0.9158,140.8,96.3,0.55
36.04,31933.1,34935.0,-1.1017,-0.7703,140.8,96.3,0.55
36.06,31998.0,34897.8,-0.0399,-1.2175,140.8,96.3,0.55
36.08,31864.2,34956.0,-2.231,-0.518,140.8,96.3,0.55
36.1,31934.0,34963.7,-1.0869,-0.4249,140.8,96.3,0.55
36.12,31949.6,34935.8,-0.8324,-0.7607,140.8,96.3,0.55
36.14,31954.7,34864.1,-0.7478,-1.622,140.8,96.3,0.55
36.16,32024.3,34973.3,0.3921,-0.31,140.8,96.3,0.55
36.18,31906.6,34911.7,-1.5365,-1.05,140.8,96.3,0.55
36.2,31950.4,35001.5,-0.8183,0.0285,140.8,96.3,0.55
36.22,32140.0,35120.2,2.2863,1.4546,140.8,96.3,0.55
36.24,32053.7,35142.9,0.8736,1.7271,140.8,96.3,0.55
36.26,31964.2,35145.6,-0.5923,1.7591,140.8,96.3,0.55
36.28,32029.8,35180.9,0.4808,2.1835,140.8,96.3,0.55
36.3,32087.7,35099.9,1.43,1.2109,140.8,96.3,0.55
36.32,32059.7,35135.9,0.9708,1.6431,140.8,96.3,0.55
36.34,31991.7,35037.4,-0.1424,0.46,140.8,96.3,0.55
36.36,31912.4,35003.1,-1.4411,0.0476,140.8,96.3,0.55
36.38,31872.7,35066.5,-2.0907,0.8097,140.8,96.3,0.55
36.4,32002.4,35063.4,0.0322,0.7723,140.8,96.3,0.55
36.42,31944.6,34946.4,-0.9141,-0.6333,140.8,96.3,0.55
36.44,31981.5,35003.3,-0.3096,0.0507,140.8,96.3,0.55
36.46,31911.8,34901.9,-1.4506,-1.1671,140.8,96.3,0.55
36.48,31999.6,34929.1,-0.0125,-0.8416,140.8,96.3,0.55
36.5,31971.8,34962.1,-0.4678,-0.4452,140.8,96.3,0.55
36.52,32032.0,34937.2,0.5167,-0.7433,140.8,96.3,0.55
36.54,31887.4,34876.9,-1.8508,-1.4682,140.8,96.3,0.55
36.56,31992.3,34920.8,-0.1331,-0.9406,140.8,96.3,0.55
36.58,31938.2,34868.1,-1.0185,-1.574,140.8,96.3,0.55
36.6,31929.0,34863.3,-1.169,-1.6316,140.8,96.3,0.55
36.62,31988.4,34956.3,-0.1965,-0.5146,140.8,96.3,0.55
36.64,31932.6,34998.5,-1.1103,-0.008,140.8,96.3,0.55
36.66,32030.3,35091.8,0.4904,1.1137,140.8,96.3,0.55
36.68,32064.4,35124.0,1.0481,1.4997,140.8,96.3,0.55
36.7,32030.9,35077.6,0.4997,0.9423,140.8,96.3,0.55
36.72,31974.2,35118.5,-0.4292,1.4336,140.8,96.3,0.55
36.74,32018.5,35075.9,0.2971,0.9217,140.8,96.3,0.55
36.76,31895.7,35041.7,-1.7143,0.5116,140.8,96.3,0.55
36.78,32114.4,35020.7,1.8671,0.2593,140.8,96.3,0.55
36.8,32093.1,35033.0,1.518,0.4063,140.8,96.3,0.55
36.82,31977.0,34995.5,-0.383,-0.0432,140.8,96.3,0.55
36.84,31965.8,35060.7,-0.5662,0.74,140.8,96.3,0.55
36.86,32017.9,34965.6,0.2869,-0.4032,140.8,96.3,0.55
36.88,31924.8,35075.9,-1.2377,0.9226,140.8,96.3,0.55
36.9,31952.3,34964.8,-0.787,-0.4123,140.8,96.3,0.55
36.92,31917.1,35005.6,-1.3646,0.0781,140.8,96.3,0.55
36.94,31906.6,34884.0,-1.5361,-1.3828,140.8,96.3,0.55
36.96,31944.4,34973.3,-0.9165,-0.3107,140.8,96.3,0.55
36.98,31965.8,34965.7,-0.5666,-0.4012,140.8,96.3,0.55
37.0,31940.4,34950.3,-0.9827,-0.5864,140.8,96.3,0.55
37.02,32008.2,35036.7,0.1282,0.4515,140.8,96.3,0.55
37.04,31911.4,34940.6,-1.4574,-0.7029,140.8,96.3,0.55
37.06,32027.4,35175.3,0.4414,2.1161,140.8,96.3,0.55
37.08,32091.1,35040.7,1.4847,0.4991,140.8,96.3,0.55
37.1,31969.4,35032.7,-0.508,0.4038,140.8,96.3,0.55
37.12,32080.2,35159.0,1.3073,1.9206,140.8,96.3,0.55
37.14,32140.3,35078.6,2.2917,0.9546,140.8,96.3,0.55
37.16,31994.4,35039.7,-0.0979,0.4875,140.8,96.3,0.55
37.18,32063.6,35101.0,1.0343,1.2231,140.8,96.3,0.55
37.2,31998.6,35123.7,-0.0295,1.4964,140.8,96.3,0.55
37.22,32004.4,35035.2,0.0647,0.4338,140.8,96.3,0.55
37.24,31925.2,34965.2,-1.2319,-0.408,140.8,96.3,0.55
37.26,32044.7,34963.7,0.7258,-0.4253,140.8,96.3,0.55
37.28,31930.4,34938.0,-1.1466,-0.7343,140.8,96.3,0.55
37.3,31926.0,34933.6,-1.2189,-0.787,140.8,96.3,0.55
37.32,31934.0,35014.5,-1.0883,0.1847,140.8,96.3,0.55
37.34,31938.1,34926.6,-1.0197,-0.8709,140.8,96.3,0.55
37.36,31937.2,34868.6,-1.0349,-1.5674,140.8,96.3,0.55
37.38,32020.3,34858.2,0.3255,-1.6923,140.8,96.3,0.55
37.4,32029.4,34918.9,0.4741,-0.9636,140.8,96.3,0.55
37.42,31910.2,34853.4,-1.477,-1.7503,140.8,96.3,0.55
37.44,31991.6,34891.5,-0.1436,-1.2922,140.8,96.3,0.55
37.46,31908.8,34919.0,-1.5004,-0.9623,140.8,96.3,0.55
37.48,31992.9,35010.8,-0.123,0.1402,140.8,96.3,0.55
37.5,32074.2,35033.6,1.2084,0.4145,140.8,96.3,0.55
37.52,32098.0,35159.7,1.5985,1.9285,140.8,96.3,0.55
37.54,32177.9,35076.6,2.9078,0.9305,140.8,96.3,0.55
37.56,32013.5,35298.0,0.2152,3.5898,140.8,96.3,0.55
37.58,31971.2,35085.0,-0.4789,1.0311,140.8,96.3,0.55
37.6,32059.8,35000.6,0.9722,0.0179,140.8,96.3,0.55
37.62,31996.6,35006.0,-0.0627,0.0821,140.8,96.3,0.55
37.64,32037.7,34981.1,0.6116,-0.217,140.8,96.3,0.55
37.66,32028.7,34954.6,0.463,-0.535,140.8,96.3,0.55
37.68,31946.1,35059.3,-0.8886,0.723,140.8,96.3,0.55
37.7,31978.5,34953.8,-0.3584,-0.5442,140.8,96.3,0.55
37.72,31963.2,34964.5,-0.609,-0.4161,140.8,96.3,0.55
37.74,32009.6,34929.4,0.1506,-0.838,140.8,96.3,0.55
37.76,31873.8,35004.3,-2.074,0.0624,140.8,96.3,0.55
37.78,31963.8,34805.2,-0.5998,-2.3296,140.8,96.3,0.55
37.8,31999.5,34944.0,-0.0155,-0.6615,140.8,96.3,0.55
37.82,31987.3,34914.9,-0.2142,-1.0111,140.8,96.3,0.55
37.84,31916.5,34888.0,-1.3749,-1.3349,140.8,96.3,0.55
37.86,31988.5,34813.6,-0.1947,-2.2285,140.8,96.3,0.55
37.88,31924.4,34870.8,-1.2446,-1.5409,140.8,96.3,0.55
37.9,32011.1,34910.4,0.1755,-1.066,140.8,96.3,0.55
37.92,31979.9,35065.4,-0.3352,0.7965,140.8,96.3,0.55
37.94,32044.9,35051.4,0.7283,0.6275,140.8,96.3,0.55
37.96,31966.2,35049.1,-0.5604,0.5997,140.8,96.3,0.55
37.98,32013.3,35132.4,0.2114,1.6011,140.8,96.3,0.55
38.0,32043.4,35145.7,0.7043,1.7603,140.8,96.3,0.55
38.02,32056.2,35106.9,0.914,1.2938,140.8,96.3,0.55
38.04,32061.5,35024.5,1.0004,0.3052,140.8,96.3,0.55
38.06,31907.7,35048.9,-1.5183,0.5979,140.8,96.3,0.55
38.08,32026.8,34991.0,0.4331,-0.098,140.8,96.3,0.55
38.1,31984.5,34946.2,-0.2597,-0.6355,140.8,96.3,0.55
38.12,32046.7,35076.5,0.7585,0.9292,140.8,96.3,0.55
38.14,32080.7,34938.5,1.3151,-0.7284,140.8,96.3,0.55
38.16,32035.2,34890.4,0.5695,-1.3059,140.8,96.3,0.55
38.18,32020.9,34985.4,0.3356,-0.1644,140.8,96.3,0.55
38.2,31980.0,34990.5,-0.3336,-0.1038,140.8,96.3,0.55
38.22,32022.0,34971.4,0.3531,-0.3332,140.8,96.3,0.55
38.24,31851.8,34896.3,-2.4345,-1.2351,140.8,96.3,0.55
38.26,32000.7,34921.5,0.0056,-0.932,140.8,96.3,0.55
38.28,31882.5,34878.1,-1.9305,-1.4539,140.8,96.3,0.55
38.3,32010.4,34946.1,0.163,-0.6371,140.8,96.3,0.55
38.32,32039.2,34925.6,0.6351,-0.8831,140.8,96.3,0.55
38.34,31990.8,35049.8,-0.1567,0.6081,140.8,96.3,0.55
38.36,32040.0,34985.2,0.6488,-0.1676,140.8,96.3,0.55
38.38,31996.9,35091.4,-0.0569,1.1078,140.8,96.3,0.55
38.4,32142.0,35068.1,2.3198,0.8282,140.8,96.3,0.55
38.42,31981.4,35147.5,-0.3107,1.782,140.8,96.3,0.55
38.44,32102.8,35125.1,1.6773,1.5129,140.8,96.3,0.55
38.46,32038.6,35068.7,0.6258,0.8361,140.8,96.3,0.55
38.48,31986.3,35130.0,-0.231,1.572,140.8,96.3,0.55
38.5,31960.1,35054.9,-0.6608,0.6695,140.8,96.3,0.55
38.52,32018.6,34992.9,0.2981,-0.0742,140.8,96.3,0.55
38.54,31961.9,34990.0,-0.6312,-0.1092,140.8,96.3,0.55
38.56,32018.4,34948.1,0.2945,-0.6123,140.8,96.3,0.55
38.58,31995.8,34969.8,-0.075,-0.352,140.8,96.3,0.55
38.6,31977.3,34980.6,-0.3776,-0.2222,140.8,96.3,0.55
38.62,31965.9,34914.4,-0.5646,-1.0174,140.8,96.3,0.55
38.64,31917.6,34918.7,-1.3566,-0.9654,140.8,96.3,0.55
38.66,31962.4,34982.0,-0.622,-0.2061,140.8,96.3,0.55
38.68,31957.4,34874.1,-0.7049,-1.5012,140.8,96.3,0.55
38.7,32031.5,34974.7,0.5092,-0.2929,140.8,96.3,0.55
38.72,31960.5,34937.5,-0.6535,-0.7396,140.8,96.3,0.55
38.74,31997.2,34960.0,-0.0521,-0.4697,140.8,96.3,0.55
38.76,31989.4,35050.7,-0.1806,0.6196,140.8,96.3,0.55
38.78,32129.7,35089.5,2.1169,1.0857,140.8,96.3,0.55
38.8,32141.7,35105.5,2.3138,1.2776,140.8,96.3,0.55
38.82,32135.4,35098.9,2.2115,1.1983,140.8,96.3,0.55
38.84,32147.0,35139.7,2.4001,1.6883,140.8,96.3,0.55
38.86,32069.8,35100.1,1.1367,1.2132,140.8,96.3,0.55
38.88,31989.6,35085.1,-0.1774,1.0321,140.8,96.3,0.55
38.9,32002.9,35056.6,0.0412,0.6903,140.8,96.3,0.55
38.92,31991.1,34978.6,-0.1525,-0.2466,140.8,96.3,0.55
38.94,31996.3,34880.5,-0.068,-1.4244,140.8,96.3,0.55
38.96,31992.1,34989.3,-0.1357,-0.1184,140.8,96.3,0.55
38.98,31943.7,34981.5,-0.9289,-0.2116,140.8,96.3,0.55
39.0,31968.9,34996.3,-0.5167,-0.0336,140.8,96.3,0.55
39.02,32026.1,34972.9,0.4201,-0.315,140.8,96.3,0.55
39.04,31930.5,34948.5,-1.1454,-0.6079,140.8,96.3,0.55
39.06,31933.6,34977.6,-1.0938,-0.2588,140.8,96.3,0.55
39.08,32012.1,34936.9,0.1913,-0.7468,140.8,96.3,0.55
39.1,31903.1,34999.7,-1.5943,0.0071,140.8,96.3,0.55
39.12,31958.1,34954.3,-0.6925,-0.5389,140.8,96.3,0.55
39.14,32041.3,34872.6,0.6705,-1.5191,140.8,96.3,0.55
39.16,31972.7,34843.6,-0.4534,-1.8674,140.8,96.3,0.55
39.18,31975.0,34851.6,-0.4161,-1.7713,140.8,96.3,0.55
39.2,32021.1,35062.7,0.3395,0.764,140.8,96.3,0.55
39.22,31997.9,35069.2,-0.0411,0.8416,140.8,96.3,0.55
39.24,32022.4,35011.7,0.3602,0.1509,140.8,96.3,0.55
39.26,31956.2,35105.0,-0.7235,1.2714,140.8,96.3,0.55
39.28,32133.7,35125.6,2.1833,1.5194,140.8,96.3,0.55
39.3,31938.4,35058.6,-1.0157,0.7145,140.8,96.3,0.55
39.32,32000.5,35019.4,0.0017,0.2435,140.8,96.3,0.55
39.34,32062.7,35120.8,1.0196,1.4613,140.8,96.3,0.55
39.36,32036.0,35005.2,0.5833,0.0725,140.8,96.3,0.55
39.38,31994.0,35023.8,-0.1047,0.2964,140.8,96.3,0.55
39.4,32025.3,35034.6,0.4075,0.4264,140.8,96.3,0.55
39.42,32005.0,34937.4,0.0754,-0.7407,140.8,96.3,0.55
39.44,32035.4,35031.1,0.5739,0.3846,140.8,96.3,0.55
39.46,31980.6,34988.4,-0.325,-0.1288,140.8,96.3,0.55
39.48,31971.9,34974.0,-0.4674,-0.3014,140.8,96.3,0.55
39.5,32008.7,35014.8,0.1356,0.1878,140.8,96.3,0.55
39.52,32012.4,35000.8,0.1958,0.0203,140.8,96.3,0.55
39.54,31951.4,34922.7,-0.8033,-0.9184,140.8,96.3,0.55
39.56,32006.1,34947.2,0.0926,-0.6237,140.8,96.3,0.55
39.58,32017.2,34944.3,0.275,-0.6583,140.8,96.3,0.55
39.6,31993.0,34935.2,-0.1218,-0.7679,140.8,96.3,0.55
39.62,32004.5,35027.6,0.0675,0.3421,140.8,96.3,0.55
39.64,32105.9,35151.3,1.7274,1.8279,140.8,96.3,0.55
39.66,32124.4,35091.8,2.0312,1.1125,140.8,96.3,0.55
39.68,32127.0,35167.3,2.0737,2.02,140.8,96.3,0.55
39.7,32152.2,35078.3,2.4867,0.9504,140.8,96.3,0.55
39.72,32120.2,35023.6,1.9625,0.294,140.8,96.3,0.55
39.74,32058.8,35052.7,0.9561,0.644,140.8,96.3,0.55
39.76,31992.3,35043.6,-0.1322,0.5336,140.8,96.3,0.55
39.78,32063.5,34951.6,1.033,-0.5706,140.8,96.3,0.55
39.8,32025.6,34991.6,0.4133,-0.0909,140.8,96.3,0.55
39.82,31987.8,34988.6,-0.2062,-0.1269,140.8,96.3,0.55
39.84,32030.5,34905.5,0.4926,-1.124,140.8,96.3,0.55
39.86,31879.2,35023.9,-1.9846,0.2981,140.8,96.3,0.55
39.88,31906.6,34900.3,-1.5356,-1.1873,140.8,96.3,0.55
39.9,31976.5,34946.7,-0.3918,-0.6295,140.8,96.3,0.55
39.92,31950.4,34927.9,-0.8192,-0.8558,140.8,96.3,0.55
39.94,31965.3,34962.6,-0.5754,-0.4384,140.8,96.3,0.55
39.96,31977.5,34908.3,-0.3755,-1.0903,140.8,96.3,0.55
39.98,31940.1,34901.3,-0.9876,-1.1754,140.8,96.3,0.55
40.0,31958.3,34994.6,-0.6892,-0.0545,140.8,96.3,0.55
40.02,31968.7,34859.0,-0.5185,-1.6825,140.8,96.3,0.55
40.04,31936.2,34964.4,-1.0517,-0.4169,140.8,96.3,0.55
40.06,32038.0,35027.0,0.6152,0.3344,140.8,96.3,0.55
40.08,32083.5,35152.4,1.3607,1.8409,140.8,96.3,0.55
40.1,32101.9,35087.8,1.6628,1.0644,140.8,96.3,0.55
40.12,32094.5,35156.0,1.5418,1.8837,140.8,96.3,0.55
40.14,32101.7,35004.6,1.6591,0.0657,140.8,96.3,0.55
40.16,31933.1,35007.7,-1.1027,0.1033,140.8,96.3,0.55
40.18,31959.1,35038.0,-0.6771,0.4671,140.8,96.3,0.55
40.2,31944.3,35039.6,-0.9189,0.4857,140.8,96.3,0.55
40.22,31954.3,34948.1,-0.7545,-0.6134,140.8,96.3,0.55
40.24,32106.5,34922.0,1.7384,-0.9266,140.8,96.3,0.55
40.26,31896.9,34913.2,-1.6952,-1.0321,140.8,96.3,0.55
40.28,31954.4,34907.3,-0.7532,-1.1026,140.8,96.3,0.55
40.3,32030.7,34991.4,0.4964,-0.093,140.8,96.3,0.55
40.32,31981.1,34965.6,-0.3166,-0.4025,140.8,96.3,0.55
40.34,31903.5,34979.4,-1.5875,-0.2371,140.8,96.3,0.55
40.36,31935.9,34949.9,-1.0566,-0.5911,140.8,96.3,0.55
40.38,32015.3,34924.6,0.2435,-0.8952,140.8,96.3,0.55
40.4,31933.8,34889.2,-1.0914,-1.32,140.8,96.3,0.55
40.42,32063.5,34906.3,1.0328,-1.1143,140.8,96.3,0.55
40.44,31910.0,34893.3,-1.4805,-1.2706,140.8,96.3,0.55
40.46,32027.5,34959.1,0.4436,-0.4804,140.8,96.3,0.55
40.48,32048.4,35111.9,0.7854,1.3547,140.8,96.3,0.55
40.5,32028.4,35169.1,0.4586,2.0413,140.8,96.3,0.55
40.52,32015.2,35192.5,0.2429,2.3228,140.8,96.3,0.55
40.54,32033.9,35174.5,0.5493,2.1061,140.8,96.3,0.55
40.56,32107.7,35040.0,1.7567,0.4908,140.8,96.3,0.55
40.58,32057.0,35046.7,0.9265,0.5712,140.8,96.3,0.55
40.6,32063.9,35052.2,1.0401,0.6369,140.8,96.3,0.55
40.62,32007.8,34985.9,0.1217,-0.1583,140.8,96.3,0.55
40.64,31905.7,34976.0,-1.5507,-0.2782,140.8,96.3,0.55
40.66,31986.7,34963.5,-0.2243,-0.4273,140.8,96.3,0.55
40.68,31999.8,34948.3,-0.0095,-0.6104,140.8,96.3,0.55
40.7,31944.0,34906.0,-0.9236,-1.1185,140.8,96.3,0.55
40.72,31966.7,34946.6,-0.552,-0.631,140.8,96.3,0.55
40.74,31868.6,34934.3,-2.1589,-0.779,140.8,96.3,0.55
40.76,31962.6,35017.9,-0.6186,0.2256,140.8,96.3,0.55
40.78,31991.9,34933.1,-0.1388,-0.7925,140.8,96.3,0.55
40.8,31942.4,34930.1,-0.9501,-0.8288,140.8,96.3,0.55
40.82,31923.4,34884.1,-1.2616,-1.381,140.8,96.3,0.55
40.84,31930.9,34835.4,-1.1384,-1.9658,140.8,96.3,0.55
40.86,31996.8,34896.2,-0.0594,-1.2367,140.8,96.3,0.55
40.88,31961.3,35002.6,-0.6402,0.0423,140.8,96.3,0.55
40.9,31971.5,35033.0,-0.474,0.4072,140.8,96.3,0.55
40.92,32043.8,35094.9,0.7112,1.1498,140.8,96.3,0.55
40.94,32133.0,35187.9,2.1721,2.2669,140.8,96.3,0.55
40.96,32087.5,35162.5,1.427,1.962,140.8,96.3,0.55
40.98,32048.7,35164.3,0.7907,1.9842,140.8,96.3,0.55
41.0,32028.5,35175.8,0.4594,2.1216,140.8,96.3,0.55
41.02,31995.7,35121.7,-0.0777,1.4717,140.8,96.3,0.55
41.04,32031.1,35048.0,0.5029,0.5864,140.8,96.3,0.55
41.06,32078.9,35024.1,1.2862,0.3003,140.8,96.3,0.55
41.08,32048.7,34883.2,0.7906,-1.3926,140.8,96.3,0.55
41.1,31988.9,34963.9,-0.1878,-0.4228,140.8,96.3,0.55
41.12,32048.5,34945.9,0.7883,-0.6397,140.8,96.3,0.55
41.14,32048.2,34930.1,0.7836,-0.829,140.8,96.3,0.55
41.16,32055.6,34914.1,0.904,-1.0209,140.8,96.3,0.55
41.18,31981.8,34922.2,-0.3052,-0.9241,140.8,96.3,0.55
41.2,31981.4,34995.3,-0.3114,-0.0463,140.8,96.3,0.55
41.22,31958.2,34964.5,-0.6913,-0.4157,140.8,96.3,0.55
41.24,32017.3,34856.0,0.2772,-1.719,140.8,96.3,0.55
41.26,31966.9,34934.3,-0.5479,-0.7791,140.8,96.3,0.55
41.28,31972.1,34923.7,-0.4641,-0.9059,140.8,96.3,0.55
41.3,32083.5,34949.9,1.3615,-0.5908,140.8,96.3,0.55
41.32,32003.1,35003.5,0.0446,0.052,140.8,96.3,0.55
41.34,32053.3,35101.5,0.8669,1.2295,140.8,96.3,0.55
41.36,32077.8,35169.9,1.2677,2.0516,140.8,96.3,0.55
41.38,32104.0,35036.1,1.6965,0.4445,140.8,96.3,0.55
41.4,32130.4,35133.7,2.1283,1.6161,140.8,96.3,0.55
41.42,31965.9,35089.0,-0.5651,1.079,140.8,96.3,0.55
41.44,32047.7,35106.7,0.7753,1.2915,140.8,96.3,0.55
41.46,32063.3,35006.7,1.0294,0.0909,140.8,96.3,0.55
41.48,32102.8,34956.6,1.6771,-0.5111,140.8,96.3,0.55
41.5,32018.8,34958.6,0.3005,-0.4869,140.8,96.3,0.55
41.52,31997.7,35091.3,-0.0444,1.1072,140.8,96.3,0.55
41.54,31986.9,34872.2,-0.2212,-1.5246,140.8,96.3,0.55
41.56,31921.4,34979.5,-1.2938,-0.2352,140.8,96.3,0.55
41.58,32027.6,34943.2,0.4449,-0.6711,140.8,96.3,0.55
41.6,31981.8,34959.9,-0.3051,-0.4716,140.8,96.3,0.55
41.62,31894.2,34957.4,-1.7388,-0.5006,140.8,96.3,0.55
41.64,31981.1,34921.0,-0.316,-0.9388,140.8,96.3,0.55
41.66,31989.6,34946.2,-0.1774,-0.6358,140.8,96.3,0.55
41.68,31947.5,34835.4,-0.8667,-1.9665,140.8,96.3,0.55
41.7,31999.6,34883.7,-0.0137,-1.3858,140.8,96.3,0.55
41.72,32042.6,34887.3,0.6908,-1.3432,140.8,96.3,0.55
41.74,31993.6,34941.5,-0.1119,-0.6924,140.8,96.3,0.55
41.76,31909.4,35142.1,-1.4906,1.7176,140.8,96.3,0.55
41.78,32024.7,35081.2,0.3986,0.9861,140.8,96.3,0.55
41.8,32015.2,35185.1,0.2426,2.234,140.8,96.3,0.55
41.82,32058.5,35149.3,0.9507,1.8031,140.8,96.3,0.55
41.84,32010.6,35051.9,0.1668,0.6341,140.8,96.3,0.55
41.86,32094.8,35037.0,1.5456,0.4549,140.8,96.3,0.55
41.88,32017.5,35051.0,0.28,0.6229,140.8,96.3,0.55
41.9,32058.9,34998.2,0.9587,-0.0111,140.8,96.3,0.55
41.92,31939.8,35063.4,-0.9927,0.7716,140.8,96.3,0.55
41.94,32023.1,35058.1,0.371,0.7086,140.8,96.3,0.55
41.96,32053.2,34959.9,0.8647,-0.4712,140.8,96.3,0.55
41.98,31977.1,34952.5,-0.382,-0.5605,140.8,96.3,0.55
42.0,32030.2,34955.7,0.4883,-0.5216,140.8,96.3,0.55
42.02,31953.1,35025.6,-0.775,0.3174,140.8,96.3,0.55
42.04,31992.8,34979.5,-0.1251,-0.2352,140.8,96.3,0.55
42.06,32061.5,35045.4,1.0003,0.5558,140.8,96.3,0.55
42.08,32012.4,34983.5,0.1963,-0.1879,140.8,96.3,0.55
42.1,31956.9,34891.6,-0.7132,-1.2913,140.8,96.3,0.55
42.12,31898.5,34898.1,-1.6683,-1.2134,140.8,96.3,0.55
42.14,31950.5,34925.8,-0.8179,-0.8812,140.8,96.3,0.55
42.16,32040.7,34980.9,0.6594,-0.2185,140.8,96.3,0.55
42.18,31975.0,35056.5,-0.4157,0.6888,140.8,96.3,0.55
42.2,32090.0,35093.6,1.4681,1.1353,140.8,96.3,0.55
42.22,32094.4,35081.2,1.5388,0.9854,140.8,96.3,0.55
42.24,32109.6,35116.1,1.7889,1.4045,140.8,96.3,0.55
42.26,31958.8,35063.5,-0.6815,0.7734,140.8,96.3,0.55
42.28,31996.2,35088.4,-0.0689,1.0721,140.8,96.3,0.55
42.3,32127.8,35055.5,2.0866,0.6772,140.8,96.3,0.55
42.32,31979.3,35007.3,-0.3456,0.0979,140.8,96.3,0.55
42.34,31996.6,35040.8,-0.0625,0.5001,140.8,96.3,0.55
42.36,31971.6,34973.0,-0.4715,-0.3138,140.8,96.3,0.55
42.38,31923.3,35001.7,-1.262,0.0309,140.8,96.3,0.55
42.4,31890.6,34947.1,-1.799,-0.6249,140.8,96.3,0.55
42.42,32015.6,34993.6,0.2492,-0.0661,140.8,96.3,0.55
42.44,31951.7,34870.6,-0.7977,-1.5433,140.8,96.3,0.55
42.46,31985.7,34883.7,-0.2414,-1.3859,140.8,96.3,0.55
42.48,31904.4,34905.5,-1.572,-1.1247,140.8,96.3,0.55
42.5,31916.9,34935.5,-1.3673,-0.7637,140.8,96.3,0.55
42.52,31984.6,34983.2,-0.2582,-0.1909,140.8,96.3,0.55
42.54,31974.1,34861.7,-0.4311,-1.6503,140.8,96.3,0.55
42.56,31877.2,34862.1,-2.0176,-1.6451,140.8,96.3,0.55
42.58,31995.9,34913.3,-0.0737,-1.0312,140.8,96.3,0.55
42.6,31955.0,34959.8,-0.7431,-0.4727,140.8,96.3,0.55
42.62,32049.2,35124.1,0.7996,1.5007,140.8,96.3,0.55
42.64,32056.2,35063.6,0.9145,0.774,140.8,96.3,0.55
42.66,32068.7,35143.7,1.1191,1.7366,140.8,96.3,0.55
42.68,32091.3,35168.9,1.4892,2.0385,140.8,96.3,0.55
42.7,32055.6,35047.3,0.9044,0.5781,140.8,96.3,0.55
42.72,32018.9,35100.9,0.3022,1.2222,140.8,96.3,0.55
42.74,32106.7,35090.4,1.7405,1.0964,140.8,96.3,0.55
42.76,31940.6,35009.8,-0.9788,0.1276,140.8,96.3,0.55
42.78,31992.4,34976.6,-0.1309,-0.2703,140.8,96.3,0.55
42.8,31983.0,34956.5,-0.2847,-0.5116,140.8,96.3,0.55
42.82,31956.3,34931.8,-0.7228,-0.8091,140.8,96.3,0.55
42.84,31974.2,34819.1,-0.4292,-2.1625,140.8,96.3,0.55
42.86,31973.8,34910.1,-0.435,-1.0692,140.8,96.3,0.55
42.88,31987.0,34956.9,-0.2191,-0.5075,140.8,96.3,0.55
42.9,31974.0,34911.2,-0.432,-1.0561,140.8,96.3,0.55
42.92,32058.5,34903.9,0.952,-1.144,140.8,96.3,0.55
42.94,31963.6,34816.3,-0.6033,-2.1962,140.8,96.3,0.55
42.96,31988.8,34982.9,-0.19,-0.1943,140.8,96.3,0.55
42.98,31930.9,34906.4,-1.1375,-1.1134,140.8,96.3,0.55
43.0,31916.7,34965.8,-1.3702,-0.4006,140.8,96.3,0.55
43.02,31927.5,35007.0,-1.1933,0.094,140.8,96.3,0.55
43.04,32049.9,35071.8,0.8113,0.8728,140.8,96.3,0.55
43.06,31997.9,35047.3,-0.0416,0.5781,140.8,96.3,0.55
43.08,32079.4,35035.1,1.2936,0.4318,140.8,96.3,0.55
43.1,32080.6,35150.5,1.3131,1.8186,140.8,96.3,0.55
43.12,32027.9,35112.7,0.4504,1.364,140.8,96.3,0.55
43.14,32047.2,34996.2,0.7666,-0.0355,140.8,96.3,0.55
43.16,32080.7,35156.1,1.3148,1.8857,140.8,96.3,0.55
43.18,32019.6,35081.2,0.3152,0.9852,140.8,96.3,0.55
43.2,32022.6,35069.1,0.3639,0.8403,140.8,96.3,0.55
43.22,31951.9,34946.7,-0.7939,-0.6291,140.8,96.3,0.55
43.24,32032.4,34948.7,0.5234,-0.6061,140.8,96.3,0.55
43.26,31951.4,34983.3,-0.8021,-0.1901,140.8,96.3,0.55
43.28,32031.2,34960.6,0.5049,-0.4623,140.8,96.3,0.55
43.3,32007.7,34908.6,0.1201,-1.0877,140.8,96.3,0.55
43.32,31936.8,34831.4,-1.0409,-2.0144,140.8,96.3,0.55
43.34,31923.0,34899.4,-1.2674,-1.1978,140.8,96.3,0.55
43.36,32025.0,34963.3,0.4023,-0.43,140.8,96.3,0.55
43.38,32017.2,34955.5,0.2743,-0.5239,140.8,96.3,0.55
43.4,31990.6,34920.9,-0.1611,-0.9393,140.8,96.3,0.55
43.42,31926.0,34870.0,-1.2193,-1.5507,140.8,96.3,0.55
43.44,32010.4,34944.9,0.1632,-0.6518,140.8,96.3,0.55
43.46,32121.4,35044.8,1.9822,0.5486,140.8,96.3,0.55
43.48,31951.3,35045.2,-0.8046,0.553,140.8,96.3,0.55
43.5,32077.9,35255.4,1.2694,3.0774,140.8,96.3,0.55
43.52,31981.7,35117.0,-0.3061,1.4155,140.8,96.3,0.55
43.54,32075.9,35059.7,1.2365,0.7277,140.8,96.3,0.55
43.56,32024.3,35067.5,0.3916,0.8216,140.8,96.3,0.55
43.58,31916.6,35053.0,-1.3724,0.6471,140.8,96.3,0.55
43.6,31990.4,35021.7,-0.1633,0.2714,140.8,96.3,0.55
43.62,32044.7,34925.2,0.7256,-0.8877,140.8,96.3,0.55
43.64,32003.9,35002.6,0.0569,0.0413,140.8,96.3,0.55
43.66,32004.5,34957.7,0.0667,-0.4974,140.8,96.3,0.55
43.68,32015.3,34957.9,0.2446,-0.4951,140.8,96.3,0.55
43.7,31929.1,34851.8,-1.1674,-1.7692,140.8,96.3,0.55
43.72,31935.7,34923.8,-1.0597,-0.9047,140.8,96.3,0.55
43.74,31979.6,35006.4,-0.3404,0.0876,140.8,96.3,0.55
43.76,31987.8,34927.6,-0.2058,-0.8591,140.8,96.3,0.55
43.78,31945.0,34922.0,-0.9069,-0.9263,140.8,96.3,0.55
43.8,32015.9,34939.8,0.2539,-0.7128,140.8,96.3,0.55
43.82,31953.6,34819.4,-0.7668,-2.1586,140.8,96.3,0.55
43.84,31951.9,34962.9,-0.7938,-0.4345,140.8,96.3,0.55
43.86,31983.0,34957.4,-0.2857,-0.5006,140.8,96.3,0.55
43.88,32003.4,34960.6,0.0497,-0.4625,140.8,96.3,0.55
43.9,32078.3,35099.5,1.2751,1.2054,140.8,96.3,0.55
43.92,32093.3,35102.9,1.5207,1.2462,140.8,96.3,0.55
43.94,32079.8,35096.5,1.2998,1.1696,140.8,96.3,0.55
43.96,32043.7,35045.8,0.7093,0.5606,140.8,96.3,0.55
43.98,32095.6,35088.6,1.5584,1.0746,140.8,96.3,0.55
44.0,31949.5,35047.8,-0.8337,0.5851,140.8,96.3,0.55
44.02,32018.2,34989.7,0.2915,-0.1129,140.8,96.3,0.55
44.04,32016.7,35063.5,0.2662,0.7733,140.8,96.3,0.55
44.06,32006.6,34914.2,0.1009,-1.0204,140.8,96.3,0.55
44.08,32003.5,34915.5,0.0515,-1.0046,140.8,96.3,0.55
44.1,32052.3,34949.2,0.85,-0.5998,140.8,96.3,0.55
44.12,31950.1,34935.4,-0.8246,-0.7648,140.8,96.3,0.55
44.14,32093.6,34986.4,1.5271,-0.1524,140.8,96.3,0.55
44.16,31945.5,34790.6,-0.8987,-2.5045,140.8,96.3,0.55
44.18,32007.6,34955.6,0.1179,-0.523,140.8,96.3,0.55
44.2,32002.0,34934.1,0.0255,-0.7813,140.8,96.3,0.55
44.22,31879.8,34945.7,-1.9754,-0.6413,140.8,96.3,0.55
44.24,32033.7,34967.4,0.5448,-0.3814,140.8,96.3,0.55
44.26,32091.0,34952.4,1.4845,-0.5611,140.8,96.3,0.55
44.28,31928.5,34952.9,-1.1773,-0.5549,140.8,96.3,0.55
44.3,31949.2,34987.3,-0.8388,-0.1421,140.8,96.3,0.55
44.32,31951.1,35075.0,-0.8074,0.9117,140.8,96.3,0.55
44.34,32039.1,35099.5,0.6332,1.205,140.8,96.3,0.55
44.36,32112.1,35117.9,1.8294,1.4263,140.8,96.3,0.55
44.38,32044.1,35042.9,0.7159,0.5263,140.8,96.3,0.55
44.4,31980.6,35099.7,-0.3242,1.2085,140.8,96.3,0.55
44.42,32019.7,35051.5,0.3159,0.629,140.8,96.3,0.55
44.44,31951.0,35073.9,-0.8098,0.8976,140.8,96.3,0.55
44.46,32013.9,35070.4,0.2219,0.8559,140.8,96.3,0.55
44.48,31934.6,34991.9,-1.078,-0.0863,140.8,96.3,0.55
44.5,32016.2,34959.9,0.2583,-0.4713,140.8,96.3,0.55
44.52,32079.5,34945.6,1.2952,-0.6428,140.8,96.3,0.55
44.54,31965.3,34942.4,-0.5741,-0.6814,140.8,96.3,0.55
44.56,32029.9,34972.5,0.4834,-0.3199,140.8,96.3,0.55
44.58,31987.6,34873.1,-0.2103,-1.5135,140.8,96.3,0.55
44.6,31930.2,35009.3,-1.1504,0.1217,140.8,96.3,0.55
44.62,31904.1,34899.9,-1.5776,-1.1915,140.8,96.3,0.55
44.64,32023.6,34959.4,0.3792,-0.4774,140.8,96.3,0.55
44.66,31990.3,34924.4,-0.1659,-0.8976,140.8,96.3,0.55
44.68,31903.4,34916.3,-1.5888,-0.9947,140.8,96.3,0.55
44.7,31851.1,34887.1,-2.4447,-1.3449,140.8,96.3,0.55
44.72,31964.5,34981.1,-0.5881,-0.2168,140.8,96.3,0.55
44.74,32073.3,35076.0,1.1933,0.9239,140.8,96.3,0.55
44.76,32113.3,35015.6,1.8491,0.1984,140.8,96.3,0.55
44.78,32022.6,35132.4,0.3629,1.6003,140.8,96.3,0.55
44.8,31978.1,35092.3,-0.3647,1.1193,140.8,96.3,0.55
44.82,32118.9,35023.6,1.9413,0.2934,140.8,96.3,0.55
44.84,32168.6,35040.6,2.7543,0.4982,140.8,96.3,0.55
44.86,31984.4,35071.1,-0.262,0.8647,140.8,96.3,0.55
44.88,31991.2,34972.3,-0.1502,-0.3227,140.8,96.3,0.55
44.9,31915.6,34981.8,-1.3889,-0.2078,140.8,96.3,0.55
44.92,31952.0,34979.7,-0.7923,-0.2337,140.8,96.3,0.55
44.94,31955.5,34985.9,-0.735,-0.159,140.8,96.3,0.55
44.96,31973.4,35020.9,-0.4415,0.2611,140.8,96.3,0.55
44.98,32053.0,35004.8,0.8619,0.0687,140.8,96.3,0.55
45.0,31964.7,35006.1,-0.5854,0.0833,140.8,96.3,0.55
45.02,31910.1,34959.3,-1.4788,-0.4779,140.8,96.3,0.55
45.04,32019.8,34974.9,0.3174,-0.2904,140.8,96.3,0.55
45.06,31875.4,34975.1,-2.0468,-0.2882,140.8,96.3,0.55
45.08,31958.1,34955.8,-0.6928,-0.5204,140.8,96.3,0.55
45.1,31977.6,34900.3,-0.373,-1.1869,140.8,96.3,0.55
45.12,31920.2,34867.7,-1.3128,-1.5787,140.8,96.3,0.55
45.14,31955.0,35028.4,-0.7441,0.3519,140.8,96.3,0.55
45.16,32104.5,35024.6,1.7047,0.306,140.8,96.3,0.55
45.18,32041.5,35045.2,0.6737,0.5538,140.8,96.3,0.55
45.2,32054.1,35064.4,0.8801,0.7843,140.8,96.3,0.55
45.22,31914.0,35153.8,-1.4146,1.8578,140.8,96.3,0.55
45.24,32165.3,34988.6,2.7003,-0.1258,140.8,96.3,0.55
45.26,31964.4,35083.5,-0.5898,1.0137,140.8,96.3,0.55
45.28,32051.9,34893.1,0.843,-1.2734,140.8,96.3,0.55
45.3,32005.5,35046.5,0.0831,0.5685,140.8,96.3,0.55
45.32,32106.4,35017.9,1.7361,0.2252,140.8,96.3,0.55
45.34,32040.9,35011.1,0.6626,0.1436,140.8,96.3,0.55
45.36,32022.0,34965.5,0.354,-0.404,140.8,96.3,0.55
45.38,32058.8,34896.0,0.9566,-1.2385,140.8,96.3,0.55
45.4,32010.9,34981.9,0.1722,-0.207,140.8,96.3,0.55
45.42,31959.2,35021.6,-0.6753,0.2698,140.8,96.3,0.55
45.44,32009.4,34874.4,0.1467,-1.4982,140.8,96.3,0.55
45.46,31980.3,34978.5,-0.3295,-0.2477,140.8,96.3,0.55
45.48,31991.0,34849.4,-0.1545,-1.7978,140.8,96.3,0.55
45.5,31908.0,34918.7,-1.5132,-0.966,140.8,96.3,0.55
45.52,31894.0,34858.4,-1.743,-1.6904,140.8,96.3,0.55
45.54,31989.2,34913.6,-0.1833,-1.0276,140.8,96.3,0.55
45.56,32059.7,34859.3,0.9704,-1.6796,140.8,96.3,0.55
45.58,31965.9,34982.7,-0.5646,-0.1974,140.8,96.3,0.55
45.6,32066.2,34965.4,1.0775,-0.4048,140.8,96.3,0.55
45.62,32061.5,35042.1,1.0007,0.5167,140.8,96.3,0.55
45.64,32012.7,35092.5,0.2012,1.1211,140.8,96.3,0.55
45.66,31997.1,35254.0,-0.0548,3.0609,140.8,96.3,0.55
45.68,32008.3,35114.5,0.1291,1.3854,140.8,96.3,0.55
45.7,32114.8,35052.5,1.8739,0.6411,140.8,96.3,0.55
45.72,32019.2,35050.1,0.3086,0.6118,140.8,96.3,0.55
45.74,32056.8,34964.2,0.9236,-0.4195,140.8,96.3,0.55
