timestamp,raw_red,raw_ir,filtered_red,filtered_ir,heart_rate,spo2,ac_dc_ratio
0.0,32057.2,35128.9,0.2654,0.3145,135.0,98.1,0.477
0.02,32196.6,35440.9,0.9184,1.0805,135.0,98.1,0.477
0.04,32232.1,35739.6,1.0847,1.8139,135.0,98.1,0.477
0.06,32329.9,35845.3,1.5429,2.0734,135.0,98.1,0.477
0.08,32233.7,35601.5,1.0922,1.4748,135.0,98.1,0.477
0.1,32181.8,35535.4,0.8491,1.3124,135.0,98.1,0.477
0.12,32108.1,35337.9,0.5041,0.8275,135.0,98.1,0.477
0.14,32027.8,35264.2,0.1276,0.6466,135.0,98.1,0.477
0.16,32010.2,35116.9,0.0454,0.2852,135.0,98.1,0.477
0.18,32058.6,35068.4,0.2718,0.1659,135.0,98.1,0.477
0.2,31982.6,35014.1,-0.0838,0.0326,135.0,98.1,0.477
0.22,31945.9,34900.7,-0.2557,-0.2458,135.0,98.1,0.477
0.24,31839.4,34789.1,-0.7545,-0.5198,135.0,98.1,0.477
0.26,31810.6,34779.9,-0.8894,-0.5424,135.0,98.1,0.477
0.28,31843.8,34693.4,-0.7342,-0.7547,135.0,98.1,0.477
0.3,31905.9,34688.9,-0.4433,-0.7656,135.0,98.1,0.477
0.32,31890.9,34736.2,-0.5137,-0.6496,135.0,98.1,0.477
0.34,31762.5,34576.9,-1.1149,-1.0408,135.0,98.1,0.477
0.36,31758.2,34530.1,-1.1348,-1.1555,135.0,98.1,0.477
0.38,31718.2,34471.4,-1.3223,-1.2996,135.0,98.1,0.477
0.4,31903.1,34529.0,-0.4562,-1.1582,135.0,98.1,0.477
0.42,31882.2,34759.2,-0.5542,-0.593,135.0,98.1,0.477
0.44,31994.2,35096.3,-0.0297,0.2344,135.0,98.1,0.477
0.46,32119.9,35408.8,0.5593,1.0015,135.0,98.1,0.477
0.48,32271.9,35646.3,1.271,1.5847,135.0,98.1,0.477
0.5,32355.9,35838.2,1.6646,2.0558,135.0,98.1,0.477
0.52,32370.2,35721.5,1.7316,1.7693,135.0,98.1,0.477
0.54,32270.4,35419.9,1.2641,1.029,135.0,98.1,0.477
0.56,32150.5,35243.3,0.7025,0.5953,135.0,98.1,0.477
0.58,32120.9,35255.1,0.5639,0.6244,135.0,98.1,0.477
0.6,32020.8,35166.6,0.0949,0.407,135.0,98.1,0.477
0.62,32031.6,35123.6,0.1456,0.3015,135.0,98.1,0.477
0.64,32046.7,34994.2,0.2162,-0.0163,135.0,98.1,0.477
0.66,31904.7,34936.6,-0.449,-0.1576,135.0,98.1,0.477
0.68,31955.5,34849.3,-0.2107,-0.3718,135.0,98.1,0.477
0.7,31843.1,34827.2,-0.7372,-0.4262,135.0,98.1,0.477
0.72,31840.7,34763.7,-0.7486,-0.5822,135.0,98.1,0.477
0.74,31848.2,34680.1,-0.7133,-0.7873,135.0,98.1,0.477
0.76,31948.5,34637.0,-0.2438,-0.8931,135.0,98.1,0.477
0.78,31864.2,34561.0,-0.6384,-1.0796,135.0,98.1,0.477
0.8,31785.9,34516.8,-1.005,-1.1883,135.0,98.1,0.477
0.82,31736.6,34461.0,-1.2362,-1.3252,135.0,98.1,0.477
0.84,31700.4,34509.4,-1.4057,-1.2065,135.0,98.1,0.477
0.86,31855.7,34612.4,-0.6783,-0.9535,135.0,98.1,0.477
0.88,31975.8,34972.9,-0.1158,-0.0686,135.0,98.1,0.477
0.9,32150.5,35341.6,0.7026,0.8368,135.0,98.1,0.477
0.92,32185.4,35718.2,0.8657,1.7612,135.0,98.1,0.477
0.94,32402.9,35777.0,1.8847,1.9055,135.0,98.1,0.477
0.96,32334.4,35727.4,1.5636,1.7838,135.0,98.1,0.477
0.98,32207.8,35629.9,0.9706,1.5444,135.0,98.1,0.477
1.0,32189.2,35373.4,0.8835,0.9149,135.0,98.1,0.477
1.02,32048.9,35204.1,0.2265,0.4991,135.0,98.1,0.477
1.04,32054.4,35068.9,0.2523,0.1673,135.0,98.1,0.477
1.06,31994.1,35087.6,-0.0299,0.2132,135.0,98.1,0.477
1.08,31950.6,34968.3,-0.2337,-0.0797,135.0,98.1,0.477
1.1,31945.0,34895.3,-0.26,-0.2589,135.0,98.1,0.477
1.12,31955.1,34856.3,-0.2129,-0.3546,135.0,98.1,0.477
1.14,31969.9,34852.6,-0.1436,-0.3638,135.0,98.1,0.477
1.16,31855.1,34645.4,-0.6809,-0.8725,135.0,98.1,0.477
1.18,31821.9,34664.7,-0.8368,-0.8251,135.0,98.1,0.477
1.2,31772.1,34587.7,-1.0699,-1.014,135.0,98.1,0.477
1.22,31753.6,34597.7,-1.1563,-0.9897,135.0,98.1,0.477
1.24,31814.4,34560.9,-0.8717,-1.0799,135.0,98.1,0.477
1.26,31657.5,34428.9,-1.6066,-1.4039,135.0,98.1,0.477
1.28,31710.9,34485.0,-1.3564,-1.2662,135.0,98.1,0.477
1.3,31828.5,34537.6,-0.8056,-1.1371,135.0,98.1,0.477
1.32,31922.2,34867.7,-0.3667,-0.3267,135.0,98.1,0.477
1.34,32123.0,35226.8,0.5739,0.5549,135.0,98.1,0.477
1.36,32185.8,35634.1,0.8675,1.5547,135.0,98.1,0.477
1.38,32364.8,35721.8,1.7061,1.77,135.0,98.1,0.477
1.4,32277.7,35725.2,1.298,1.7784,135.0,98.1,0.477
1.42,32228.2,35548.8,1.0663,1.3453,135.0,98.1,0.477
1.44,32200.7,35354.9,0.9376,0.8694,135.0,98.1,0.477
1.46,32098.6,35242.7,0.4592,0.5939,135.0,98.1,0.477
1.48,32050.0,35141.1,0.2317,0.3444,135.0,98.1,0.477
1.5,32072.7,35124.1,0.338,0.3026,135.0,98.1,0.477
1.52,32016.7,34936.9,0.0756,-0.1569,135.0,98.1,0.477
1.54,31874.4,34925.7,-0.5905,-0.1842,135.0,98.1,0.477
1.56,32018.4,34866.7,0.0836,-0.3292,135.0,98.1,0.477
1.58,31825.7,34781.3,-0.8187,-0.5387,135.0,98.1,0.477
1.6,31914.6,34713.8,-0.4026,-0.7044,135.0,98.1,0.477
1.62,31864.9,34622.2,-0.6353,-0.9294,135.0,98.1,0.477
1.64,31835.8,34675.1,-0.7716,-0.7995,135.0,98.1,0.477
1.66,31811.3,34698.5,-0.8865,-0.7421,135.0,98.1,0.477
1.68,31759.4,34499.9,-1.1294,-1.2296,135.0,98.1,0.477
1.7,31798.9,34475.0,-0.9443,-1.2908,135.0,98.1,0.477
1.72,31808.3,34510.4,-0.9003,-1.2038,135.0,98.1,0.477
1.74,31803.8,34592.5,-0.9215,-1.0024,135.0,98.1,0.477
1.76,31962.2,34818.2,-0.1797,-0.4483,135.0,98.1,0.477
1.78,32000.2,35112.7,-0.0014,0.2746,135.0,98.1,0.477
1.8,32111.7,35491.2,0.5208,1.2039,135.0,98.1,0.477
1.82,32332.9,35731.3,1.5568,1.7934,135.0,98.1,0.477
1.84,32360.8,35751.5,1.6874,1.843,135.0,98.1,0.477
1.86,32262.2,35680.6,1.2255,1.6689,135.0,98.1,0.477
1.88,32262.2,35512.1,1.2257,1.2552,135.0,98.1,0.477
1.9,32116.2,35264.2,0.5419,0.6467,135.0,98.1,0.477
1.92,32096.0,35176.7,0.4473,0.4318,135.0,98.1,0.477
1.94,31928.5,35123.9,-0.3372,0.3024,135.0,98.1,0.477
1.96,32040.5,35016.6,0.1875,0.0387,135.0,98.1,0.477
1.98,31982.3,35047.9,-0.0855,0.1156,135.0,98.1,0.477
2.0,32003.9,34927.7,0.0156,-0.1794,135.0,98.1,0.477
2.02,31989.5,34836.7,-0.0514,-0.4029,135.0,98.1,0.477
2.04,31859.3,34732.3,-0.6614,-0.659,135.0,98.1,0.477
2.06,31869.9,34668.5,-0.6118,-0.8157,135.0,98.1,0.477
2.08,31844.7,34683.1,-0.7296,-0.78,135.0,98.1,0.477
2.1,31841.8,34702.0,-0.7434,-0.7335,135.0,98.1,0.477
2.12,31893.4,34580.9,-0.5019,-1.0309,135.0,98.1,0.477
2.14,31831.9,34523.9,-0.7898,-1.1708,135.0,98.1,0.477
2.16,31724.7,34449.8,-1.2919,-1.3528,135.0,98.1,0.477
2.18,31815.1,34530.2,-0.8686,-1.1552,135.0,98.1,0.477
2.2,31913.8,34694.5,-0.4064,-0.7519,135.0,98.1,0.477
2.22,32025.7,35010.0,0.1177,0.0227,135.0,98.1,0.477
2.24,32200.0,35452.0,0.9343,1.1078,135.0,98.1,0.477
2.26,32281.9,35642.9,1.3177,1.5764,135.0,98.1,0.477
2.28,32285.6,35783.6,1.3353,1.9218,135.0,98.1,0.477
2.3,32389.5,35620.8,1.8217,1.5222,135.0,98.1,0.477
2.32,32287.6,35485.6,1.3444,1.1903,135.0,98.1,0.477
2.34,32104.8,35318.8,0.4886,0.7808,135.0,98.1,0.477
2.36,32133.4,35250.0,0.6224,0.6118,135.0,98.1,0.477
2.38,32069.0,35132.6,0.3206,0.3237,135.0,98.1,0.477
2.4,32035.7,35091.0,0.1647,0.2214,135.0,98.1,0.477
2.42,31934.9,35014.5,-0.3072,0.0337,135.0,98.1,0.477
2.44,32025.4,34947.5,0.1167,-0.1309,135.0,98.1,0.477
2.46,31800.2,34767.5,-0.9381,-0.5728,135.0,98.1,0.477
2.48,31840.8,34766.0,-0.748,-0.5765,135.0,98.1,0.477
2.5,31842.0,34585.0,-0.7427,-1.0208,135.0,98.1,0.477
2.52,31877.1,34646.4,-0.5782,-0.8699,135.0,98.1,0.477
2.54,31838.1,34583.3,-0.7605,-1.025,135.0,98.1,0.477
2.56,31803.0,34623.6,-0.9252,-0.926,135.0,98.1,0.477
2.58,31798.2,34442.7,-0.9478,-1.3701,135.0,98.1,0.477
2.6,31834.2,34524.8,-0.7789,-1.1687,135.0,98.1,0.477
2.62,31892.0,34557.0,-0.5082,-1.0895,135.0,98.1,0.477
2.64,31832.6,34706.3,-0.7863,-0.7231,135.0,98.1,0.477
2.66,32061.4,35115.1,0.2849,0.2806,135.0,98.1,0.477
2.68,32215.8,35350.7,1.0083,0.859,135.0,98.1,0.477
2.7,32345.3,35601.1,1.6149,1.4739,135.0,98.1,0.477
2.72,32277.2,35801.7,1.2958,1.9662,135.0,98.1,0.477
2.74,32359.3,35815.1,1.6804,1.9991,135.0,98.1,0.477
2.76,32285.3,35571.3,1.3337,1.4007,135.0,98.1,0.477
2.78,32084.9,35265.5,0.3952,0.6498,135.0,98.1,0.477
2.8,32138.1,35132.3,0.6444,0.3228,135.0,98.1,0.477
2.82,32023.9,35126.5,0.1096,0.3087,135.0,98.1,0.477
2.84,31993.2,35004.3,-0.0342,0.0086,135.0,98.1,0.477
2.86,32018.7,35071.9,0.0853,0.1746,135.0,98.1,0.477
2.88,32038.0,34868.7,0.1756,-0.3244,135.0,98.1,0.477
2.9,31972.1,34799.2,-0.1332,-0.4949,135.0,98.1,0.477
2.92,31891.9,34642.1,-0.5085,-0.8806,135.0,98.1,0.477
2.94,31835.7,34675.3,-0.7721,-0.7991,135.0,98.1,0.477
2.96,31924.6,34641.5,-0.3556,-0.8821,135.0,98.1,0.477
2.98,31793.7,34641.2,-0.9689,-0.8827,135.0,98.1,0.477
3.0,31876.3,34476.9,-0.5819,-1.2861,135.0,98.1,0.477
3.02,31821.8,34612.5,-0.8371,-0.9533,135.0,98.1,0.477
3.04,31756.0,34393.6,-1.1453,-1.4906,135.0,98.1,0.477
3.06,31734.4,34438.9,-1.2465,-1.3795,135.0,98.1,0.477
3.08,31900.3,34670.3,-0.4693,-0.8114,135.0,98.1,0.477
3.1,32019.0,34999.6,0.0867,-0.003,135.0,98.1,0.477
3.12,32173.0,35261.1,0.8076,0.6391,135.0,98.1,0.477
3.14,32194.6,35665.6,0.9088,1.6322,135.0,98.1,0.477
3.16,32213.6,35739.5,0.9979,1.8136,135.0,98.1,0.477
3.18,32335.3,35779.9,1.568,1.9128,135.0,98.1,0.477
3.2,32309.1,35564.6,1.4454,1.3841,135.0,98.1,0.477
3.22,32124.8,35310.3,0.5821,0.7599,135.0,98.1,0.477
3.24,32071.1,35266.9,0.3307,0.6534,135.0,98.1,0.477
3.26,32047.3,35118.7,0.2192,0.2895,135.0,98.1,0.477
3.28,31965.3,35050.1,-0.1648,0.1211,135.0,98.1,0.477
3.3,31955.8,34971.8,-0.2097,-0.0711,135.0,98.1,0.477
3.32,32026.6,34906.7,0.1221,-0.2309,135.0,98.1,0.477
3.34,31918.1,34812.0,-0.3861,-0.4636,135.0,98.1,0.477
3.36,31808.6,34709.8,-0.8988,-0.7145,135.0,98.1,0.477
3.38,31915.9,34749.4,-0.3962,-0.6173,135.0,98.1,0.477
3.4,31914.2,34658.9,-0.4042,-0.8394,135.0,98.1,0.477
3.42,31827.1,34686.1,-0.8124,-0.7726,135.0,98.1,0.477
3.44,31745.4,34680.9,-1.1951,-0.7852,135.0,98.1,0.477
3.46,31872.4,34519.4,-0.6002,-1.1817,135.0,98.1,0.477
3.48,31769.9,34364.4,-1.0802,-1.5623,135.0,98.1,0.477
3.5,31786.0,34501.3,-1.0048,-1.2261,135.0,98.1,0.477
3.52,31811.5,34642.0,-0.8853,-0.8807,135.0,98.1,0.477
3.54,32024.9,34902.9,0.1142,-0.2403,135.0,98.1,0.477
3.56,32066.0,35209.7,0.3067,0.5129,135.0,98.1,0.477
3.58,32247.3,35571.6,1.1556,1.4014,135.0,98.1,0.477
3.6,32272.9,35735.6,1.2758,1.804,135.0,98.1,0.477
3.62,32365.3,35694.8,1.7085,1.7038,135.0,98.1,0.477
3.64,32272.7,35639.4,1.2748,1.5679,135.0,98.1,0.477
3.66,32290.8,35347.2,1.3593,0.8504,135.0,98.1,0.477
3.68,32095.8,35194.1,0.4464,0.4746,135.0,98.1,0.477
3.7,32090.1,35207.4,0.4197,0.5073,135.0,98.1,0.477
3.72,32094.3,35124.8,0.4391,0.3044,135.0,98.1,0.477
3.74,31983.9,35067.2,-0.0779,0.163,135.0,98.1,0.477
3.76,31982.6,35051.3,-0.0839,0.1241,135.0,98.1,0.477
3.78,31932.3,34758.3,-0.3194,-0.5954,135.0,98.1,0.477
3.8,31864.7,34757.2,-0.636,-0.598,135.0,98.1,0.477
3.82,31843.9,34675.4,-0.7337,-0.7989,135.0,98.1,0.477
3.84,31897.3,34693.4,-0.4833,-0.7546,135.0,98.1,0.477
3.86,31793.5,34587.9,-0.9698,-1.0137,135.0,98.1,0.477
3.88,31870.7,34662.0,-0.6081,-0.8318,135.0,98.1,0.477
3.9,31804.3,34561.2,-0.9189,-1.0791,135.0,98.1,0.477
3.92,31725.7,34510.7,-1.2873,-1.2032,135.0,98.1,0.477
3.94,31820.2,34495.5,-0.8447,-1.2405,135.0,98.1,0.477
3.96,31819.8,34603.6,-0.8465,-0.9752,135.0,98.1,0.477
3.98,31936.1,34784.3,-0.3019,-0.5316,135.0,98.1,0.477
4.0,32032.4,35157.6,0.1491,0.385,135.0,98.1,0.477
4.02,32169.8,35457.8,0.7926,1.122,135.0,98.1,0.477
4.04,32252.3,35779.0,1.1795,1.9104,135.0,98.1,0.477
4.06,32355.1,35722.6,1.6605,1.7721,135.0,98.1,0.477
4.08,32295.6,35556.3,1.3818,1.3637,135.0,98.1,0.477
4.1,32286.7,35521.5,1.3403,1.2782,135.0,98.1,0.477
4.12,32102.3,35249.8,0.4768,0.6113,135.0,98.1,0.477
4.14,32092.8,35183.6,0.432,0.4488,135.0,98.1,0.477
4.16,32040.3,35069.3,0.1861,0.1682,135.0,98.1,0.477
4.18,32029.4,35138.9,0.1354,0.339,135.0,98.1,0.477
4.2,31954.1,35058.3,-0.2177,0.1411,135.0,98.1,0.477
4.22,31867.6,34947.7,-0.6226,-0.1303,135.0,98.1,0.477
4.24,31892.0,34786.4,-0.5084,-0.5263,135.0,98.1,0.477
4.26,31892.4,34725.7,-0.5065,-0.6752,135.0,98.1,0.477
4.28,31854.7,34575.7,-0.6829,-1.0435,135.0,98.1,0.477
4.3,31904.6,34607.5,-0.4492,-0.9656,135.0,98.1,0.477
4.32,31824.5,34627.6,-0.8243,-0.9161,135.0,98.1,0.477
4.34,31834.7,34643.0,-0.7768,-0.8783,135.0,98.1,0.477
4.36,31802.3,34514.4,-0.9286,-1.194,135.0,98.1,0.477
4.38,31739.9,34463.4,-1.2207,-1.3193,135.0,98.1,0.477
4.4,31860.6,34501.7,-0.6556,-1.2252,135.0,98.1,0.477
4.42,31893.4,34750.8,-0.5015,-0.6136,135.0,98.1,0.477
4.44,32035.8,35041.2,0.165,0.0991,135.0,98.1,0.477
4.46,32121.4,35454.0,0.5662,1.1126,135.0,98.1,0.477
4.48,32295.6,35641.9,1.3818,1.5739,135.0,98.1,0.477
4.5,32333.0,35758.5,1.557,1.8601,135.0,98.1,0.477
4.52,32277.4,35685.4,1.2966,1.6807,135.0,98.1,0.477
4.54,32333.7,35543.2,1.5605,1.3317,135.0,98.1,0.477
4.56,32249.5,35306.9,1.166,0.7514,135.0,98.1,0.477
4.58,32130.2,35211.6,0.6072,0.5176,135.0,98.1,0.477
4.6,32083.7,35072.9,0.3894,0.177,135.0,98.1,0.477
4.62,32036.6,35041.3,0.1692,0.0995,135.0,98.1,0.477
4.64,31975.4,34974.1,-0.1179,-0.0656,135.0,98.1,0.477
4.66,32032.7,34965.4,0.1509,-0.0868,135.0,98.1,0.477
4.68,31947.2,34797.7,-0.2498,-0.4987,135.0,98.1,0.477
4.7,31821.8,34610.5,-0.837,-0.9583,135.0,98.1,0.477
4.72,31859.6,34633.6,-0.6602,-0.9014,135.0,98.1,0.477
4.74,31846.7,34688.7,-0.7204,-0.7661,135.0,98.1,0.477
4.76,31874.3,34650.8,-0.5911,-0.8592,135.0,98.1,0.477
4.78,31892.5,34603.2,-0.5059,-0.976,135.0,98.1,0.477
4.8,31828.3,34445.4,-0.8067,-1.3634,135.0,98.1,0.477
4.82,31745.7,34414.5,-1.1936,-1.4394,135.0,98.1,0.477
4.84,31832.0,34468.3,-0.7894,-1.3072,135.0,98.1,0.477
4.86,31808.1,34649.5,-0.901,-0.8624,135.0,98.1,0.477
4.88,31934.2,34973.2,-0.3104,-0.0677,135.0,98.1,0.477
4.9,32108.0,35315.4,0.5035,0.7724,135.0,98.1,0.477
4.92,32241.5,35722.7,1.1286,1.7722,135.0,98.1,0.477
4.94,32327.4,35779.0,1.5311,1.9106,135.0,98.1,0.477
4.96,32312.3,35695.9,1.4602,1.7064,135.0,98.1,0.477
4.98,32217.6,35581.6,1.0168,1.426,135.0,98.1,0.477
5.0,32164.3,35372.9,0.7671,0.9134,135.0,98.1,0.477
5.02,32145.5,35177.9,0.679,0.4347,135.0,98.1,0.477
5.04,32090.2,35090.1,0.4198,0.2192,135.0,98.1,0.477
5.06,32015.9,35084.1,0.0718,0.2045,135.0,98.1,0.477
5.08,31908.8,35015.4,-0.4296,0.0359,135.0,98.1,0.477
5.1,31946.5,34854.1,-0.253,-0.3601,135.0,98.1,0.477
5.12,31950.4,34780.2,-0.2346,-0.5416,135.0,98.1,0.477
5.14,32032.7,34699.1,0.1505,-0.7407,135.0,98.1,0.477
5.16,31874.1,34640.8,-0.592,-0.8838,135.0,98.1,0.477
5.18,31872.1,34583.5,-0.6013,-1.0245,135.0,98.1,0.477
5.2,31791.4,34671.4,-0.9793,-0.8087,135.0,98.1,0.477
5.22,31804.7,34637.1,-0.9172,-0.8927,135.0,98.1,0.477
5.24,31720.6,34557.8,-1.3113,-1.0875,135.0,98.1,0.477
5.26,31763.3,34572.2,-1.111,-1.0522,135.0,98.1,0.477
5.28,31724.0,34497.5,-1.2953,-1.2356,135.0,98.1,0.477
5.3,31818.7,34711.4,-0.8516,-0.7104,135.0,98.1,0.477
5.32,31977.7,35003.7,-0.1067,0.0072,135.0,98.1,0.477
5.34,32080.7,35316.8,0.3757,0.7758,135.0,98.1,0.477
5.36,32348.2,35575.7,1.6286,1.4114,135.0,98.1,0.477
5.38,32333.9,35752.3,1.5613,1.845,135.0,98.1,0.477
5.4,32420.9,35807.7,1.9691,1.981,135.0,98.1,0.477
5.42,32222.1,35572.3,1.0376,1.4029,135.0,98.1,0.477
5.44,32155.6,35379.3,0.7265,0.9291,135.0,98.1,0.477
5.46,32099.0,35291.7,0.4612,0.7141,135.0,98.1,0.477
5.48,32025.6,35135.8,0.1174,0.3315,135.0,98.1,0.477
5.5,32041.4,35235.6,0.1916,0.5766,135.0,98.1,0.477
5.52,32001.2,35105.7,0.0032,0.2576,135.0,98.1,0.477
5.54,31947.5,34942.8,-0.2485,-0.1424,135.0,98.1,0.477
5.56,31905.9,34858.5,-0.4434,-0.3493,135.0,98.1,0.477
5.58,32043.9,34722.5,0.2032,-0.6832,135.0,98.1,0.477
5.6,31888.0,34679.6,-0.5268,-0.7886,135.0,98.1,0.477
5.62,31805.3,34657.0,-0.9145,-0.8439,135.0,98.1,0.477
5.64,31898.0,34728.7,-0.4802,-0.668,135.0,98.1,0.477
5.66,31796.1,34624.7,-0.9574,-0.9233,135.0,98.1,0.477
5.68,31816.4,34550.0,-0.8625,-1.1066,135.0,98.1,0.477
5.7,31795.5,34534.2,-0.9602,-1.1455,135.0,98.1,0.477
5.72,31656.7,34519.1,-1.6105,-1.1827,135.0,98.1,0.477
5.74,31818.1,34527.1,-0.8544,-1.163,135.0,98.1,0.477
5.76,31931.2,34838.5,-0.3249,-0.3984,135.0,98.1,0.477
5.78,32046.6,35229.0,0.2157,0.5603,135.0,98.1,0.477
5.8,32235.2,35490.6,1.0991,1.2024,135.0,98.1,0.477
5.82,32327.9,35626.5,1.5333,1.5361,135.0,98.1,0.477
5.84,32352.6,35640.4,1.6488,1.5703,135.0,98.1,0.477
5.86,32214.3,35620.9,1.0012,1.5224,135.0,98.1,0.477
5.88,32256.3,35419.8,1.1979,1.0287,135.0,98.1,0.477
5.9,32090.1,35307.0,0.4196,0.7518,135.0,98.1,0.477
5.92,32038.5,35242.2,0.1779,0.5926,135.0,98.1,0.477
5.94,32110.3,35116.9,0.5143,0.2851,135.0,98.1,0.477
5.96,32031.7,35112.6,0.1461,0.2744,135.0,98.1,0.477
5.98,31939.6,35016.9,-0.2856,0.0396,135.0,98.1,0.477
6.0,31977.5,34868.9,-0.108,-0.3237,135.0,98.1,0.477
6.02,31883.7,34669.5,-0.5473,-0.8134,135.0,98.1,0.477
6.04,31832.1,34675.7,-0.789,-0.7982,135.0,98.1,0.477
6.06,31867.5,34588.5,-0.623,-1.0121,135.0,98.1,0.477
6.08,31870.4,34677.2,-0.6092,-0.7945,135.0,98.1,0.477
6.1,31873.6,34549.8,-0.5944,-1.1071,135.0,98.1,0.477
6.12,31836.9,34627.3,-0.7662,-0.9169,135.0,98.1,0.477
6.14,31720.3,34437.5,-1.3126,-1.3829,135.0,98.1,0.477
6.16,31757.9,34370.7,-1.1365,-1.5468,135.0,98.1,0.477
6.18,31700.1,34668.2,-1.4072,-0.8165,135.0,98.1,0.477
6.2,31964.2,34803.1,-0.1699,-0.4853,135.0,98.1,0.477
6.22,32062.7,35132.9,0.2914,0.3242,135.0,98.1,0.477
6.24,32114.5,35473.8,0.5337,1.1613,135.0,98.1,0.477
6.26,32349.3,35700.7,1.6334,1.7183,135.0,98.1,0.477
6.28,32321.0,35835.8,1.5012,2.05,135.0,98.1,0.477
6.3,32358.4,35787.1,1.6761,1.9304,135.0,98.1,0.477
6.32,32216.7,35498.6,1.0125,1.2222,135.0,98.1,0.477
6.34,32112.6,35346.7,0.5248,0.8491,135.0,98.1,0.477
6.36,32120.2,35131.4,0.5606,0.3207,135.0,98.1,0.477
6.38,31976.7,35158.8,-0.1116,0.3878,135.0,98.1,0.477
6.4,32052.2,35026.3,0.2422,0.0627,135.0,98.1,0.477
6.42,32006.6,34935.5,0.0283,-0.1603,135.0,98.1,0.477
6.44,31900.0,34895.3,-0.471,-0.259,135.0,98.1,0.477
6.46,31976.8,34784.6,-0.1111,-0.5308,135.0,98.1,0.477
6.48,31929.2,34664.7,-0.3342,-0.8252,135.0,98.1,0.477
6.5,31837.8,34728.7,-0.7619,-0.6679,135.0,98.1,0.477
6.52,31822.2,34670.7,-0.8353,-0.8104,135.0,98.1,0.477
6.54,31703.8,34582.4,-1.3896,-1.027,135.0,98.1,0.477
6.56,31809.8,34630.1,-0.8935,-0.9101,135.0,98.1,0.477
6.58,31795.3,34510.6,-0.9613,-1.2034,135.0,98.1,0.477
6.6,31756.7,34471.0,-1.142,-1.3006,135.0,98.1,0.477
6.62,31771.2,34447.5,-1.0739,-1.3584,135.0,98.1,0.477
6.64,31862.7,34792.5,-0.6453,-0.5115,135.0,98.1,0.477
6.66,32039.0,35013.1,0.1803,0.0301,135.0,98.1,0.477
6.68,32256.2,35295.2,1.1975,0.7228,135.0,98.1,0.477
6.7,32288.2,35584.9,1.3473,1.434,135.0,98.1,0.477
6.72,32363.6,35819.0,1.7003,2.0087,135.0,98.1,0.477
6.74,32298.9,35731.6,1.3973,1.7941,135.0,98.1,0.477
6.76,32281.6,35554.2,1.3164,1.3586,135.0,98.1,0.477
6.78,32176.2,35354.3,0.8226,0.8679,135.0,98.1,0.477
6.8,32052.0,35294.7,0.2409,0.7214,135.0,98.1,0.477
6.82,32054.4,35130.9,0.2526,0.3194,135.0,98.1,0.477
6.84,32081.3,35057.4,0.3785,0.139,135.0,98.1,0.477
6.86,32047.8,35070.1,0.2214,0.1701,135.0,98.1,0.477
6.88,32111.7,34913.2,0.5206,-0.2151,135.0,98.1,0.477
6.9,31969.5,34788.8,-0.1451,-0.5204,135.0,98.1,0.477
6.92,31928.7,34747.8,-0.3366,-0.6212,135.0,98.1,0.477
6.94,31940.8,34692.3,-0.2798,-0.7574,135.0,98.1,0.477
6.96,31919.9,34658.2,-0.3776,-0.841,135.0,98.1,0.477
6.98,31848.1,34728.6,-0.7139,-0.6682,135.0,98.1,0.477
7.0,31801.4,34541.9,-0.9326,-1.1267,135.0,98.1,0.477
7.02,31768.6,34516.5,-1.0863,-1.1889,135.0,98.1,0.477
7.04,31784.1,34515.8,-1.0134,-1.1906,135.0,98.1,0.477
7.06,31818.6,34551.8,-0.8518,-1.1024,135.0,98.1,0.477
7.08,31816.0,34674.7,-0.8644,-0.8004,135.0,98.1,0.477
7.1,31920.9,34930.1,-0.3728,-0.1736,135.0,98.1,0.477
7.12,32159.1,35303.2,0.7429,0.7424,135.0,98.1,0.477
7.14,32243.1,35572.7,1.1362,1.4041,135.0,98.1,0.477
7.16,32332.1,35770.4,1.5531,1.8895,135.0,98.1,0.477
7.18,32300.3,35732.5,1.4041,1.7963,135.0,98.1,0.477
7.2,32244.7,35609.4,1.1437,1.4942,135.0,98.1,0.477
7.22,32274.2,35329.0,1.2818,0.8057,135.0,98.1,0.477
7.24,32092.9,35182.7,0.4326,0.4467,135.0,98.1,0.477
7.26,31981.9,35092.3,-0.0873,0.2246,135.0,98.1,0.477
7.28,31950.4,35067.1,-0.2347,0.1627,135.0,98.1,0.477
7.3,31999.4,35124.0,-0.0052,0.3026,135.0,98.1,0.477
7.32,31941.4,34943.7,-0.2767,-0.1401,135.0,98.1,0.477
7.34,31997.9,34809.0,-0.0124,-0.4709,135.0,98.1,0.477
7.36,31960.6,34798.0,-0.1869,-0.4977,135.0,98.1,0.477
7.38,31965.6,34634.6,-0.1636,-0.8989,135.0,98.1,0.477
7.4,31803.5,34711.9,-0.9229,-0.7092,135.0,98.1,0.477
7.42,31872.0,34686.6,-0.6021,-0.7714,135.0,98.1,0.477
7.44,31898.5,34569.1,-0.478,-1.0597,135.0,98.1,0.477
7.46,31737.5,34532.6,-1.2318,-1.1493,135.0,98.1,0.477
7.48,31713.8,34413.8,-1.3429,-1.441,135.0,98.1,0.477
7.5,31785.2,34557.0,-1.0085,-1.0895,135.0,98.1,0.477
7.52,31867.7,34586.2,-0.622,-1.0177,135.0,98.1,0.477
7.54,32005.0,34986.1,0.0208,-0.0362,135.0,98.1,0.477
7.56,32078.6,35268.5,0.3656,0.6573,135.0,98.1,0.477
7.58,32199.6,35543.1,0.9325,1.3313,135.0,98.1,0.477
7.6,32391.7,35773.9,1.8319,1.8979,135.0,98.1,0.477
7.62,32410.7,35712.1,1.9212,1.7463,135.0,98.1,0.477
7.64,32283.9,35521.0,1.327,1.2772,135.0,98.1,0.477
7.66,32167.7,35352.1,0.7831,0.8624,135.0,98.1,0.477
7.68,32107.7,35141.3,0.5019,0.3449,135.0,98.1,0.477
7.7,32144.6,35202.9,0.675,0.4962,135.0,98.1,0.477
7.72,31945.5,35069.6,-0.2577,0.1688,135.0,98.1,0.477
7.74,31948.6,35087.7,-0.2433,0.2133,135.0,98.1,0.477
7.76,32002.3,34951.6,0.0083,-0.1208,135.0,98.1,0.477
7.78,31885.0,34895.1,-0.5411,-0.2595,135.0,98.1,0.477
7.8,31865.4,34817.1,-0.633,-0.4509,135.0,98.1,0.477
7.82,31919.6,34721.9,-0.3788,-0.6847,135.0,98.1,0.477
7.84,31773.5,34733.9,-1.0632,-0.6551,135.0,98.1,0.477
7.86,31859.7,34613.3,-0.6595,-0.9513,135.0,98.1,0.477
7.88,31900.6,34594.4,-0.468,-0.9976,135.0,98.1,0.477
7.9,31846.0,34511.7,-0.7237,-1.2007,135.0,98.1,0.477
7.92,31828.1,34489.3,-0.8075,-1.2557,135.0,98.1,0.477
7.94,31726.0,34477.1,-1.2857,-1.2858,135.0,98.1,0.477
7.96,31802.8,34697.5,-0.9261,-0.7445,135.0,98.1,0.477
7.98,31972.3,34744.9,-0.132,-0.6283,135.0,98.1,0.477
8.0,32032.2,35160.5,0.1483,0.3921,135.0,98.1,0.477
8.02,32194.6,35377.4,0.9091,0.9246,135.0,98.1,0.477
8.04,32343.6,35676.4,1.6068,1.6586,135.0,98.1,0.477
8.06,32349.4,35801.9,1.634,1.9668,135.0,98.1,0.477
8.08,32289.0,35644.8,1.3509,1.581,135.0,98.1,0.477
8.1,32220.4,35521.7,1.0298,1.2788,135.0,98.1,0.477
8.12,32114.9,35274.4,0.5359,0.6716,135.0,98.1,0.477
8.14,32115.1,35171.1,0.5364,0.4181,135.0,98.1,0.477
8.16,32024.3,35115.6,0.1116,0.2817,135.0,98.1,0.477
8.18,32031.6,35031.0,0.1456,0.0741,135.0,98.1,0.477
8.2,31920.5,34928.6,-0.3747,-0.1773,135.0,98.1,0.477
8.22,31939.8,34950.7,-0.2843,-0.1231,135.0,98.1,0.477
8.24,31874.3,34861.7,-0.5914,-0.3414,135.0,98.1,0.477
8.26,31907.4,34765.3,-0.436,-0.578,135.0,98.1,0.477
8.28,31849.2,34660.5,-0.7087,-0.8355,135.0,98.1,0.477
8.3,31874.5,34640.2,-0.5903,-0.8852,135.0,98.1,0.477
8.32,31813.9,34610.6,-0.874,-0.9579,135.0,98.1,0.477
8.34,31809.5,34530.2,-0.8948,-1.1552,135.0,98.1,0.477
8.36,31709.0,34497.6,-1.3655,-1.2352,135.0,98.1,0.477
8.38,31787.5,34494.8,-0.9978,-1.2421,135.0,98.1,0.477
8.4,31762.6,34540.4,-1.1144,-1.1304,135.0,98.1,0.477
8.42,31927.9,34704.7,-0.3404,-0.7268,135.0,98.1,0.477
8.44,31989.4,35080.7,-0.0519,0.1962,135.0,98.1,0.477
8.46,32190.0,35502.1,0.8873,1.2307,135.0,98.1,0.477
8.48,32172.4,35726.7,0.8049,1.782,135.0,98.1,0.477
8.5,32350.5,35656.7,1.6391,1.6102,135.0,98.1,0.477
8.52,32345.8,35735.2,1.6171,1.8028,135.0,98.1,0.477
8.54,32171.9,35476.7,0.8027,1.1684,135.0,98.1,0.477
8.56,32104.6,35226.8,0.4876,0.5549,135.0,98.1,0.477
8.58,32089.1,35195.8,0.4148,0.4787,135.0,98.1,0.477
8.6,32017.8,35129.1,0.0809,0.315,135.0,98.1,0.477
8.62,31999.8,35107.0,-0.0033,0.2608,135.0,98.1,0.477
8.64,32019.8,35015.8,0.0902,0.0368,135.0,98.1,0.477
8.66,31935.2,34873.7,-0.3058,-0.312,135.0,98.1,0.477
8.68,31884.1,34884.2,-0.5452,-0.2862,135.0,98.1,0.477
8.7,31851.8,34753.6,-0.6965,-0.6069,135.0,98.1,0.477
8.72,31787.8,34622.4,-0.9964,-0.929,135.0,98.1,0.477
8.74,31871.6,34773.1,-0.6038,-0.559,135.0,98.1,0.477
8.76,31868.8,34649.9,-0.6168,-0.8614,135.0,98.1,0.477
8.78,31739.1,34593.3,-1.2245,-1.0003,135.0,98.1,0.477
8.8,31741.0,34551.9,-1.2156,-1.1019,135.0,98.1,0.477
8.82,31748.1,34463.5,-1.1824,-1.3191,135.0,98.1,0.477
8.84,31796.9,34476.7,-0.9538,-1.2866,135.0,98.1,0.477
8.86,31810.3,34661.6,-0.8908,-0.8326,135.0,98.1,0.477
8.88,31969.4,34996.9,-0.1458,-0.0096,135.0,98.1,0.477
8.9,32151.4,35327.8,0.7068,0.8028,135.0,98.1,0.477
8.92,32325.2,35652.6,1.5205,1.6002,135.0,98.1,0.477
8.94,32313.4,35777.0,1.4652,1.9056,135.0,98.1,0.477
8.96,32365.4,35764.4,1.7087,1.8746,135.0,98.1,0.477
8.98,32299.0,35543.0,1.398,1.3312,135.0,98.1,0.477
9.0,32240.0,35286.1,1.1215,0.7005,135.0,98.1,0.477
9.02,32128.0,35195.9,0.597,0.4791,135.0,98.1,0.477
9.04,31993.6,35086.8,-0.0325,0.2112,135.0,98.1,0.477
9.06,32080.8,35106.8,0.376,0.2603,135.0,98.1,0.477
9.08,31950.1,35122.1,-0.236,0.2978,135.0,98.1,0.477
9.1,32031.6,35021.9,0.1458,0.0518,135.0,98.1,0.477
9.12,31939.9,34764.1,-0.2838,-0.5811,135.0,98.1,0.477
9.14,31934.7,34824.5,-0.3085,-0.4327,135.0,98.1,0.477
9.16,31894.1,34700.4,-0.4984,-0.7374,135.0,98.1,0.477
9.18,31888.4,34635.3,-0.5252,-0.8973,135.0,98.1,0.477
9.2,31830.2,34646.8,-0.7978,-0.8689,135.0,98.1,0.477
9.22,31904.4,34558.7,-0.4501,-1.0852,135.0,98.1,0.477
9.24,31726.4,34483.0,-1.2838,-1.2713,135.0,98.1,0.477
9.26,31725.1,34450.7,-1.29,-1.3504,135.0,98.1,0.477
9.28,31844.1,34492.1,-0.7325,-1.2489,135.0,98.1,0.477
9.3,31764.8,34613.1,-1.1041,-0.9517,135.0,98.1,0.477
9.32,31982.7,34905.0,-0.0834,-0.2351,135.0,98.1,0.477
9.34,32110.3,35335.2,0.5142,0.821,135.0,98.1,0.477
9.36,32222.6,35576.6,1.0401,1.4136,135.0,98.1,0.477
9.38,32226.9,35726.6,1.0604,1.7818,135.0,98.1,0.477
9.4,32320.9,35688.7,1.5006,1.6887,135.0,98.1,0.477
9.42,32340.5,35644.2,1.5923,1.5796,135.0,98.1,0.477
9.44,32111.5,35363.0,0.5196,0.8891,135.0,98.1,0.477
9.46,32207.6,35229.4,0.9698,0.5611,135.0,98.1,0.477
9.48,32095.6,35081.4,0.4452,0.1979,135.0,98.1,0.477
9.5,31994.3,35074.1,-0.0292,0.1799,135.0,98.1,0.477
9.52,32009.8,35071.3,0.0434,0.1731,135.0,98.1,0.477
9.54,31937.5,34989.6,-0.2952,-0.0274,135.0,98.1,0.477
9.56,31986.6,34821.5,-0.0654,-0.4401,135.0,98.1,0.477
9.58,31827.7,34802.4,-0.8092,-0.487,135.0,98.1,0.477
9.6,31848.8,34687.6,-0.7107,-0.7689,135.0,98.1,0.477
9.62,31920.4,34694.6,-0.3752,-0.7518,135.0,98.1,0.477
9.64,31868.3,34734.6,-0.6193,-0.6536,135.0,98.1,0.477
9.66,31815.4,34608.3,-0.867,-0.9636,135.0,98.1,0.477
9.68,31789.1,34517.3,-0.9902,-1.187,135.0,98.1,0.477
9.7,31773.4,34509.0,-1.0637,-1.2073,135.0,98.1,0.477
9.72,31747.7,34403.8,-1.184,-1.4656,135.0,98.1,0.477
9.74,31896.0,34604.9,-0.4895,-0.972,135.0,98.1,0.477
9.76,31945.4,34878.8,-0.2582,-0.2995,135.0,98.1,0.477
9.78,32029.2,35127.2,0.1345,0.3104,135.0,98.1,0.477
9.8,32181.0,35549.4,0.8453,1.3469,135.0,98.1,0.477
9.82,32302.1,35735.0,1.4124,1.8026,135.0,98.1,0.477
9.84,32298.6,35731.6,1.396,1.794,135.0,98.1,0.477
9.86,32314.5,35600.8,1.4707,1.4731,135.0,98.1,0.477
9.88,32269.6,35379.8,1.2603,0.9304,135.0,98.1,0.477
9.9,32167.5,35289.8,0.7818,0.7095,135.0,98.1,0.477
9.92,32025.6,35094.9,0.1173,0.2311,135.0,98.1,0.477
9.94,32037.0,35151.7,0.1707,0.3704,135.0,98.1,0.477
9.96,32087.0,35138.2,0.4051,0.3373,135.0,98.1,0.477
9.98,31985.5,35018.2,-0.0703,0.0427,135.0,98.1,0.477
10.0,31918.4,34846.9,-0.3847,-0.3779,135.0,98.1,0.477
10.02,31897.7,34780.5,-0.4815,-0.5407,135.0,98.1,0.477
10.04,31897.6,34660.6,-0.4819,-0.8351,135.0,98.1,0.477
10.06,31851.2,34666.4,-0.6992,-0.8209,135.0,98.1,0.477
10.08,31865.6,34665.6,-0.632,-0.8228,135.0,98.1,0.477
10.1,31928.0,34754.9,-0.3399,-0.6037,135.0,98.1,0.477
10.12,31870.4,34553.0,-0.6094,-1.0992,135.0,98.1,0.477
10.14,31829.7,34501.7,-0.7999,-1.2252,135.0,98.1,0.477
10.16,31825.5,34447.0,-0.8195,-1.3595,135.0,98.1,0.477
10.18,31865.3,34539.9,-0.6331,-1.1314,135.0,98.1,0.477
10.2,31848.6,34710.2,-0.7113,-0.7133,135.0,98.1,0.477
10.22,32101.2,35149.4,0.4716,0.3648,135.0,98.1,0.477
10.24,32199.3,35479.6,0.9309,1.1755,135.0,98.1,0.477
10.26,32291.9,35666.6,1.3646,1.6346,135.0,98.1,0.477
10.28,32278.9,35715.8,1.3036,1.7554,135.0,98.1,0.477
10.3,32324.1,35648.4,1.5155,1.5898,135.0,98.1,0.477
10.32,32264.2,35396.5,1.2347,0.9716,135.0,98.1,0.477
10.34,32153.5,35327.4,0.7163,0.8019,135.0,98.1,0.477
10.36,32058.5,35119.8,0.2715,0.2921,135.0,98.1,0.477
10.38,32121.9,35026.0,0.5685,0.0619,135.0,98.1,0.477
10.4,32041.2,35143.3,0.1905,0.3499,135.0,98.1,0.477
10.42,31968.5,35026.9,-0.1498,0.0642,135.0,98.1,0.477
10.44,31921.4,34825.1,-0.3708,-0.4313,135.0,98.1,0.477
10.46,31967.2,34822.6,-0.1562,-0.4375,135.0,98.1,0.477
10.48,31826.0,34772.1,-0.8174,-0.5615,135.0,98.1,0.477
10.5,31819.4,34702.5,-0.8485,-0.7323,135.0,98.1,0.477
10.52,31836.1,34635.4,-0.7703,-0.8971,135.0,98.1,0.477
10.54,31806.5,34646.3,-0.9087,-0.8704,135.0,98.1,0.477
10.56,31824.9,34576.6,-0.8225,-1.0414,135.0,98.1,0.477
10.58,31812.8,34443.1,-0.8793,-1.3691,135.0,98.1,0.477
10.6,31706.9,34520.0,-1.3751,-1.1803,135.0,98.1,0.477
10.62,31745.7,34541.5,-1.1936,-1.1277,135.0,98.1,0.477
10.64,31858.2,34747.7,-0.6666,-0.6214,135.0,98.1,0.477
10.66,32010.6,35125.2,0.047,0.3055,135.0,98.1,0.477
10.68,32144.8,35368.6,0.6757,0.9029,135.0,98.1,0.477
10.7,32290.2,35738.3,1.3565,1.8105,135.0,98.1,0.477
10.72,32299.5,35787.3,1.4001,1.9308,135.0,98.1,0.477
10.74,32297.4,35716.3,1.3903,1.7566,135.0,98.1,0.477
10.76,32174.4,35482.2,0.8146,1.1818,135.0,98.1,0.477
10.78,32157.5,35430.6,0.7352,1.0552,135.0,98.1,0.477
10.8,32035.3,35154.6,0.1627,0.3776,135.0,98.1,0.477
10.82,32031.5,35184.9,0.1452,0.452,135.0,98.1,0.477
10.84,32044.4,35056.5,0.2056,0.1368,135.0,98.1,0.477
10.86,31966.5,35052.0,-0.1595,0.1257,135.0,98.1,0.477
10.88,31995.9,34874.5,-0.0215,-0.31,135.0,98.1,0.477
10.9,31872.7,34877.5,-0.5987,-0.3028,135.0,98.1,0.477
10.92,32069.3,34807.0,0.322,-0.4757,135.0,98.1,0.477
10.94,31836.4,34644.1,-0.7689,-0.8758,135.0,98.1,0.477
10.96,31791.3,34703.0,-0.9797,-0.7312,135.0,98.1,0.477
10.98,31855.0,34660.8,-0.6816,-0.8347,135.0,98.1,0.477
11.0,31931.7,34643.5,-0.3222,-0.8772,135.0,98.1,0.477
11.02,31812.5,34515.1,-0.8808,-1.1924,135.0,98.1,0.477
11.04,31674.5,34493.6,-1.527,-1.2453,135.0,98.1,0.477
11.06,31805.8,34433.5,-0.9122,-1.3926,135.0,98.1,0.477
11.08,31853.6,34734.4,-0.6882,-0.654,135.0,98.1,0.477
11.1,31908.0,35017.9,-0.4333,0.0419,135.0,98.1,0.477
11.12,32174.7,35350.1,0.8157,0.8576,135.0,98.1,0.477
11.14,32257.9,35617.7,1.2055,1.5146,135.0,98.1,0.477
11.16,32255.2,35727.0,1.193,1.7828,135.0,98.1,0.477
11.18,32273.7,35768.1,1.2795,1.8837,135.0,98.1,0.477
11.2,32341.2,35602.9,1.5958,1.4783,135.0,98.1,0.477
11.22,32284.2,35374.1,1.3288,0.9164,135.0,98.1,0.477
11.24,32130.6,35278.6,0.6092,0.682,135.0,98.1,0.477
11.26,32070.1,35072.8,0.3259,0.1768,135.0,98.1,0.477
11.28,32060.0,35065.7,0.2784,0.1594,135.0,98.1,0.477
11.3,32081.7,35046.1,0.3803,0.1112,135.0,98.1,0.477
11.32,32074.5,34970.1,0.3463,-0.0752,135.0,98.1,0.477
11.34,31896.5,34794.7,-0.4871,-0.506,135.0,98.1,0.477
11.36,31900.3,34797.7,-0.4694,-0.4986,135.0,98.1,0.477
11.38,31933.1,34695.1,-0.3158,-0.7505,135.0,98.1,0.477
11.4,31864.4,34656.1,-0.6376,-0.8463,135.0,98.1,0.477
11.42,31913.1,34765.2,-0.4096,-0.5783,135.0,98.1,0.477
11.44,31832.1,34601.2,-0.7886,-0.9809,135.0,98.1,0.477
11.46,31741.4,34459.6,-1.2135,-1.3285,135.0,98.1,0.477
11.48,31718.0,34473.3,-1.3234,-1.295,135.0,98.1,0.477
11.5,31662.5,34572.0,-1.5833,-1.0526,135.0,98.1,0.477
11.52,31840.2,34594.9,-0.7507,-0.9964,135.0,98.1,0.477
11.54,32007.9,34900.7,0.0345,-0.2458,135.0,98.1,0.477
11.56,32152.7,35218.0,0.7128,0.5333,135.0,98.1,0.477
11.58,32333.0,35560.6,1.5573,1.3742,135.0,98.1,0.477
11.6,32310.9,35859.2,1.4536,2.1074,135.0,98.1,0.477
11.62,32360.7,35774.9,1.687,1.9005,135.0,98.1,0.477
11.64,32268.8,35652.7,1.2565,1.6005,135.0,98.1,0.477
11.66,32201.8,35427.2,0.9426,1.0468,135.0,98.1,0.477
11.68,32075.4,35231.0,0.3506,0.5653,135.0,98.1,0.477
11.7,32156.6,35128.5,0.7309,0.3136,135.0,98.1,0.477
11.72,31994.5,35053.5,-0.0284,0.1294,135.0,98.1,0.477
11.74,31946.5,35039.5,-0.2528,0.095,135.0,98.1,0.477
11.76,31973.2,35021.6,-0.1279,0.0511,135.0,98.1,0.477
11.78,31914.1,34870.0,-0.4049,-0.321,135.0,98.1,0.477
11.8,31917.8,34730.8,-0.3873,-0.6629,135.0,98.1,0.477
11.82,31820.7,34764.6,-0.8423,-0.5799,135.0,98.1,0.477
11.84,31939.0,34572.3,-0.2882,-1.052,135.0,98.1,0.477
11.86,31870.0,34660.3,-0.6115,-0.836,135.0,98.1,0.477
11.88,31768.9,34653.5,-1.0849,-0.8525,135.0,98.1,0.477
11.9,31812.8,34618.7,-0.8792,-0.938,135.0,98.1,0.477
11.92,31796.7,34421.4,-0.9544,-1.4224,135.0,98.1,0.477
11.94,31748.6,34517.8,-1.1801,-1.1856,135.0,98.1,0.477
11.96,31796.4,34602.5,-0.9559,-0.9778,135.0,98.1,0.477
11.98,31986.1,34877.4,-0.0673,-0.3029,135.0,98.1,0.477
12.0,32012.7,35161.9,0.0568,0.3955,135.0,98.1,0.477
12.02,32176.5,35504.0,0.8243,1.2354,135.0,98.1,0.477
12.04,32243.9,35699.5,1.1399,1.7153,135.0,98.1,0.477
12.06,32299.7,35707.9,1.4011,1.7359,135.0,98.1,0.477
12.08,32258.7,35709.5,1.2092,1.7398,135.0,98.1,0.477
12.1,32175.3,35537.3,0.8188,1.3172,135.0,98.1,0.477
12.12,32182.8,35297.2,0.8538,0.7278,135.0,98.1,0.477
12.14,32082.3,35108.2,0.3831,0.2637,135.0,98.1,0.477
12.16,32050.6,35080.0,0.2348,0.1944,135.0,98.1,0.477
12.18,32041.6,35097.8,0.1922,0.2381,135.0,98.1,0.477
12.2,32012.5,34911.1,0.056,-0.2202,135.0,98.1,0.477
12.22,32030.5,34817.0,0.1402,-0.4511,135.0,98.1,0.477
12.24,31942.7,34783.6,-0.2708,-0.5332,135.0,98.1,0.477
12.26,31838.9,34737.9,-0.7569,-0.6455,135.0,98.1,0.477
12.28,31829.0,34594.0,-0.8034,-0.9987,135.0,98.1,0.477
12.3,31892.3,34529.7,-0.507,-1.1564,135.0,98.1,0.477
12.32,31810.3,34682.9,-0.891,-0.7804,135.0,98.1,0.477
12.34,31818.5,34602.6,-0.8525,-0.9774,135.0,98.1,0.477
12.36,31721.1,34455.2,-1.3089,-1.3395,135.0,98.1,0.477
12.38,31750.6,34586.1,-1.1707,-1.0181,135.0,98.1,0.477
12.4,31935.1,34625.1,-0.3065,-0.9223,135.0,98.1,0.477
12.42,31910.6,34791.0,-0.4209,-0.5149,135.0,98.1,0.477
12.44,32085.5,35058.5,0.3982,0.1417,135.0,98.1,0.477
12.46,32155.4,35339.4,0.7256,0.8314,135.0,98.1,0.477
12.48,32279.4,35712.1,1.3062,1.7464,135.0,98.1,0.477
12.5,32256.4,35728.2,1.1986,1.7859,135.0,98.1,0.477
12.52,32305.8,35656.6,1.4297,1.61,135.0,98.1,0.477
12.54,32201.4,35441.4,0.9409,1.0816,135.0,98.1,0.477
12.56,32170.1,35331.6,0.794,0.8121,135.0,98.1,0.477
12.58,32077.9,35219.4,0.3625,0.5368,135.0,98.1,0.477
12.6,32027.7,35127.8,0.1274,0.3119,135.0,98.1,0.477
12.62,31973.4,35140.6,-0.1271,0.3432,135.0,98.1,0.477
12.64,31979.8,34954.6,-0.0968,-0.1135,135.0,98.1,0.477
12.66,31883.9,34919.6,-0.5461,-0.1994,135.0,98.1,0.477
12.68,31934.0,34839.2,-0.3116,-0.3968,135.0,98.1,0.477
12.7,31864.5,34697.9,-0.6372,-0.7435,135.0,98.1,0.477
12.72,31872.2,34633.3,-0.6012,-0.9022,135.0,98.1,0.477
12.74,31918.2,34630.1,-0.3854,-0.91,135.0,98.1,0.477
12.76,31788.8,34669.2,-0.9918,-0.814,135.0,98.1,0.477
12.78,31849.7,34677.2,-0.7062,-0.7943,135.0,98.1,0.477
12.8,31723.6,34474.4,-1.2972,-1.2923,135.0,98.1,0.477
12.82,31761.3,34474.0,-1.1206,-1.2933,135.0,98.1,0.477
12.84,31870.4,34574.8,-0.6092,-1.0458,135.0,98.1,0.477
12.86,31863.8,34730.4,-0.6405,-0.6638,135.0,98.1,0.477
12.88,31991.6,34941.7,-0.0416,-0.1451,135.0,98.1,0.477
12.9,32215.7,35391.5,1.0079,0.9593,135.0,98.1,0.477
12.92,32245.2,35716.0,1.1461,1.7558,135.0,98.1,0.477
12.94,32228.6,35802.2,1.0684,1.9674,135.0,98.1,0.477
12.96,32347.0,35816.7,1.6227,2.0029,135.0,98.1,0.477
12.98,32269.1,35546.5,1.258,1.3398,135.0,98.1,0.477
13.0,32133.3,35378.5,0.6219,0.9273,135.0,98.1,0.477
13.02,32082.4,35205.2,0.3834,0.5019,135.0,98.1,0.477
13.04,32038.0,35076.1,0.1753,0.1849,135.0,98.1,0.477
13.06,32010.9,35103.2,0.0488,0.2513,135.0,98.1,0.477
13.08,32123.9,35104.5,0.5776,0.2546,135.0,98.1,0.477
13.1,32004.1,34903.6,0.0167,-0.2387,135.0,98.1,0.477
13.12,31940.8,34772.5,-0.2796,-0.5605,135.0,98.1,0.477
13.14,31897.3,34771.9,-0.4837,-0.562,135.0,98.1,0.477
13.16,31909.2,34683.2,-0.4279,-0.7797,135.0,98.1,0.477
13.18,31853.0,34644.0,-0.6911,-0.8758,135.0,98.1,0.477
13.2,31813.4,34748.5,-0.8765,-0.6194,135.0,98.1,0.477
13.22,31824.0,34588.7,-0.8268,-1.0116,135.0,98.1,0.477
13.24,31817.8,34490.5,-0.8558,-1.2527,135.0,98.1,0.477
13.26,31693.5,34468.1,-1.4379,-1.3079,135.0,98.1,0.477
13.28,31714.5,34435.4,-1.3397,-1.388,135.0,98.1,0.477
13.3,31901.9,34728.9,-0.4618,-0.6675,135.0,98.1,0.477
13.32,31951.7,34988.2,-0.2288,-0.0308,135.0,98.1,0.477
13.34,32096.2,35252.4,0.4481,0.6176,135.0,98.1,0.477
13.36,32200.7,35564.6,0.9375,1.3842,135.0,98.1,0.477
13.38,32340.2,35770.1,1.5911,1.8887,135.0,98.1,0.477
13.4,32366.5,35762.7,1.714,1.8704,135.0,98.1,0.477
13.42,32228.3,35639.2,1.0667,1.5674,135.0,98.1,0.477
13.44,32224.3,35398.9,1.0479,0.9773,135.0,98.1,0.477
13.46,32095.8,35234.8,0.4464,0.5744,135.0,98.1,0.477
13.48,32089.7,35141.9,0.4179,0.3464,135.0,98.1,0.477
13.5,32022.4,35070.6,0.1024,0.1714,135.0,98.1,0.477
13.52,32009.4,35002.9,0.0414,0.0052,135.0,98.1,0.477
13.54,31990.2,34898.9,-0.0485,-0.2502,135.0,98.1,0.477
13.56,31912.8,34778.7,-0.4108,-0.5452,135.0,98.1,0.477
13.58,31870.1,34745.2,-0.6111,-0.6274,135.0,98.1,0.477
13.6,31929.8,34723.9,-0.3314,-0.6798,135.0,98.1,0.477
13.62,31858.8,34733.6,-0.6636,-0.656,135.0,98.1,0.477
13.64,31850.0,34684.9,-0.7049,-0.7754,135.0,98.1,0.477
13.66,31764.9,34540.7,-1.1035,-1.1295,135.0,98.1,0.477
13.68,31770.9,34602.9,-1.0753,-0.9769,135.0,98.1,0.477
13.7,31741.8,34436.5,-1.2119,-1.3852,135.0,98.1,0.477
13.72,31834.5,34492.4,-0.7774,-1.2482,135.0,98.1,0.477
13.74,31840.3,34655.2,-0.7505,-0.8485,135.0,98.1,0.477
13.76,31952.3,34840.9,-0.2259,-0.3926,135.0,98.1,0.477
13.78,32119.6,35094.4,0.5577,0.2297,135.0,98.1,0.477
13.8,32210.1,35493.9,0.9817,1.2106,135.0,98.1,0.477
13.82,32260.8,35708.3,1.2192,1.7368,135.0,98.1,0.477
13.84,32332.7,35735.4,1.5559,1.8034,135.0,98.1,0.477
13.86,32297.4,35649.9,1.3905,1.5936,135.0,98.1,0.477
13.88,32200.6,35527.4,0.9372,1.2927,135.0,98.1,0.477
13.9,32158.3,35257.9,0.7391,0.6312,135.0,98.1,0.477
13.92,32099.4,35077.6,0.4633,0.1885,135.0,98.1,0.477
13.94,32127.7,35057.1,0.5956,0.1383,135.0,98.1,0.477
13.96,32072.2,35090.3,0.3359,0.2197,135.0,98.1,0.477
13.98,31987.6,34995.1,-0.0607,-0.014,135.0,98.1,0.477
14.0,31973.9,34894.2,-0.1246,-0.2616,135.0,98.1,0.477
14.02,31899.4,34730.3,-0.4735,-0.6642,135.0,98.1,0.477
14.04,31903.9,34689.9,-0.4524,-0.7632,135.0,98.1,0.477
14.06,31874.9,34705.2,-0.5886,-0.7257,135.0,98.1,0.477
14.08,31880.6,34711.2,-0.5615,-0.711,135.0,98.1,0.477
14.1,31779.3,34600.2,-1.0363,-0.9835,135.0,98.1,0.477
14.12,31795.4,34643.7,-0.9609,-0.8765,135.0,98.1,0.477
14.14,31816.1,34475.7,-0.8636,-1.289,135.0,98.1,0.477
14.16,31828.0,34463.6,-0.8082,-1.3188,135.0,98.1,0.477
14.18,31693.8,34567.6,-1.4366,-1.0636,135.0,98.1,0.477
14.2,31861.0,34747.3,-0.6535,-0.6223,135.0,98.1,0.477
14.22,32046.4,35075.0,0.215,0.1821,135.0,98.1,0.477
14.24,32231.7,35438.6,1.0829,1.0749,135.0,98.1,0.477
14.26,32168.9,35712.8,0.7888,1.748,135.0,98.1,0.477
14.28,32303.9,35783.6,1.4211,1.9217,135.0,98.1,0.477
14.3,32247.4,35709.0,1.1564,1.7387,135.0,98.1,0.477
14.32,32229.5,35515.8,1.0725,1.2644,135.0,98.1,0.477
14.34,32090.5,35317.0,0.4213,0.7763,135.0,98.1,0.477
14.36,32048.2,35156.0,0.2235,0.381,135.0,98.1,0.477
14.38,32018.9,35123.3,0.086,0.3008,135.0,98.1,0.477
14.4,32075.2,35136.8,0.3498,0.3339,135.0,98.1,0.477
14.42,31971.2,34971.5,-0.1375,-0.0719,135.0,98.1,0.477
14.44,31966.8,34959.7,-0.158,-0.101,135.0,98.1,0.477
14.46,31932.8,34782.1,-0.317,-0.5369,135.0,98.1,0.477
14.48,31770.4,34762.4,-1.0778,-0.5852,135.0,98.1,0.477
14.5,31799.0,34683.3,-0.9441,-0.7794,135.0,98.1,0.477
14.52,31981.7,34741.7,-0.0883,-0.6362,135.0,98.1,0.477
14.54,31896.3,34715.9,-0.4883,-0.6995,135.0,98.1,0.477
14.56,31765.7,34533.9,-1.0999,-1.1462,135.0,98.1,0.477
14.58,31741.9,34533.7,-1.2113,-1.1466,135.0,98.1,0.477
14.6,31655.6,34463.5,-1.6153,-1.319,135.0,98.1,0.477
14.62,31770.9,34454.5,-1.0752,-1.341,135.0,98.1,0.477
14.64,31961.0,34786.9,-0.185,-0.5251,135.0,98.1,0.477
14.66,31972.9,34986.8,-0.1293,-0.0343,135.0,98.1,0.477
14.68,32110.6,35498.4,0.5153,1.2217,135.0,98.1,0.477
14.7,32311.9,35596.6,1.4584,1.4626,135.0,98.1,0.477
14.72,32377.6,35687.6,1.766,1.6862,135.0,98.1,0.477
14.74,32265.1,35690.6,1.2394,1.6935,135.0,98.1,0.477
14.76,32239.4,35542.5,1.1186,1.33,135.0,98.1,0.477
14.78,32198.9,35300.0,0.929,0.7346,135.0,98.1,0.477
14.8,32126.5,35175.8,0.5898,0.4297,135.0,98.1,0.477
14.82,32071.7,35118.2,0.3333,0.2883,135.0,98.1,0.477
14.84,31951.0,35151.5,-0.2321,0.37,135.0,98.1,0.477
14.86,32011.8,35004.2,0.0529,0.0084,135.0,98.1,0.477
14.88,32012.3,34894.9,0.0552,-0.2599,135.0,98.1,0.477
14.9,31894.8,34876.8,-0.4951,-0.3045,135.0,98.1,0.477
14.92,31829.5,34678.5,-0.8011,-0.7913,135.0,98.1,0.477
14.94,31908.7,34628.3,-0.4299,-0.9143,135.0,98.1,0.477
14.96,31857.7,34652.3,-0.6691,-0.8555,135.0,98.1,0.477
14.98,31756.8,34610.0,-1.1414,-0.9593,135.0,98.1,0.477
15.0,31778.7,34637.6,-1.0389,-0.8916,135.0,98.1,0.477
15.02,31770.6,34557.0,-1.077,-1.0894,135.0,98.1,0.477
15.04,31839.4,34429.6,-0.7546,-1.4022,135.0,98.1,0.477
15.06,31704.7,34484.1,-1.3854,-1.2686,135.0,98.1,0.477
15.08,31828.2,34624.2,-0.8069,-0.9245,135.0,98.1,0.477
15.1,31888.7,34861.1,-0.5236,-0.3429,135.0,98.1,0.477
15.12,32195.0,35249.7,0.9107,0.611,135.0,98.1,0.477
15.14,32278.3,35514.7,1.3012,1.2616,135.0,98.1,0.477
15.16,32332.1,35732.5,1.5531,1.7963,135.0,98.1,0.477
15.18,32365.4,35711.1,1.709,1.7438,135.0,98.1,0.477
15.2,32128.8,35605.2,0.6008,1.4837,135.0,98.1,0.477
15.22,32199.7,35316.0,0.9331,0.7738,135.0,98.1,0.477
15.24,32115.2,35291.5,0.5371,0.7137,135.0,98.1,0.477
15.26,32034.4,35096.6,0.1587,0.2353,135.0,98.1,0.477
15.28,32046.3,35052.9,0.2145,0.128,135.0,98.1,0.477
15.3,31940.9,35071.6,-0.2791,0.1737,135.0,98.1,0.477
15.32,31822.3,34894.5,-0.8347,-0.2609,135.0,98.1,0.477
15.34,31995.4,34839.6,-0.0242,-0.3957,135.0,98.1,0.477
15.36,31892.9,34733.2,-0.5039,-0.6568,135.0,98.1,0.477
15.38,31929.7,34745.7,-0.3315,-0.6262,135.0,98.1,0.477
15.4,31894.8,34693.5,-0.4952,-0.7545,135.0,98.1,0.477
15.42,31829.5,34576.3,-0.8012,-1.0421,135.0,98.1,0.477
15.44,31902.3,34658.9,-0.4602,-0.8392,135.0,98.1,0.477
15.46,31790.8,34524.1,-0.9823,-1.1703,135.0,98.1,0.477
15.48,31694.1,34400.1,-1.4351,-1.4747,135.0,98.1,0.477
15.5,31784.0,34443.7,-1.014,-1.3675,135.0,98.1,0.477
15.52,31909.0,34615.1,-0.4288,-0.947,135.0,98.1,0.477
15.54,31881.8,34849.8,-0.5563,-0.3707,135.0,98.1,0.477
15.56,32069.1,35215.6,0.3212,0.5274,135.0,98.1,0.477
15.58,32229.2,35570.0,1.0709,1.3974,135.0,98.1,0.477
15.6,32284.0,35650.3,1.3276,1.5944,135.0,98.1,0.477
15.62,32406.6,35759.1,1.9018,1.8616,135.0,98.1,0.477
15.64,32270.3,35665.2,1.2633,1.6311,135.0,98.1,0.477
15.66,32164.9,35419.3,0.77,1.0274,135.0,98.1,0.477
15.68,32025.5,35336.3,0.1172,0.8237,135.0,98.1,0.477
15.7,32101.8,35147.7,0.4743,0.3607,135.0,98.1,0.477
15.72,31999.5,35083.5,-0.0048,0.2032,135.0,98.1,0.477
15.74,32008.7,35003.3,0.0382,0.0061,135.0,98.1,0.477
15.76,32003.0,34895.4,0.0117,-0.2588,135.0,98.1,0.477
15.78,31968.0,34924.5,-0.1524,-0.1873,135.0,98.1,0.477
15.8,31827.7,34721.7,-0.8094,-0.6851,135.0,98.1,0.477
15.82,31891.6,34775.5,-0.5102,-0.5531,135.0,98.1,0.477
15.84,31909.6,34657.0,-0.4258,-0.8441,135.0,98.1,0.477
15.86,31872.0,34664.6,-0.6022,-0.8254,135.0,98.1,0.477
15.88,31839.1,34670.8,-0.7563,-0.8102,135.0,98.1,0.477
15.9,31793.2,34536.2,-0.9711,-1.1406,135.0,98.1,0.477
15.92,31836.4,34575.7,-0.7688,-1.0437,135.0,98.1,0.477
15.94,31803.7,34527.8,-0.9221,-1.1612,135.0,98.1,0.477
15.96,31824.7,34531.1,-0.8237,-1.1531,135.0,98.1,0.477
15.98,32046.1,34858.7,0.2136,-0.3488,135.0,98.1,0.477
16.0,32107.0,35176.3,0.4985,0.4308,135.0,98.1,0.477
16.02,32220.7,35581.3,1.031,1.425,135.0,98.1,0.477
16.04,32304.3,35759.2,1.4229,1.8619,135.0,98.1,0.477
16.06,32387.8,35722.1,1.8137,1.7707,135.0,98.1,0.477
16.08,32288.3,35654.6,1.3479,1.6052,135.0,98.1,0.477
16.1,32188.4,35507.8,0.8799,1.2447,135.0,98.1,0.477
16.12,32111.8,35344.8,0.5214,0.8447,135.0,98.1,0.477
16.14,32022.1,35157.0,0.1009,0.3835,135.0,98.1,0.477
16.16,32020.4,35104.0,0.0931,0.2534,135.0,98.1,0.477
16.18,32037.8,34975.9,0.1747,-0.061,135.0,98.1,0.477
16.2,31976.4,35039.5,-0.1128,0.095,135.0,98.1,0.477
16.22,31938.7,34832.3,-0.2897,-0.4137,135.0,98.1,0.477
16.24,31859.0,34794.1,-0.663,-0.5074,135.0,98.1,0.477
16.26,31830.7,34667.0,-0.7955,-0.8196,135.0,98.1,0.477
16.28,31803.7,34628.6,-0.9217,-0.9137,135.0,98.1,0.477
16.3,31892.6,34679.1,-0.5056,-0.7898,135.0,98.1,0.477
16.32,31852.8,34585.0,-0.6921,-1.0207,135.0,98.1,0.477
16.34,31886.2,34507.0,-0.5352,-1.2121,135.0,98.1,0.477
16.36,31713.1,34586.3,-1.3462,-1.0176,135.0,98.1,0.477
16.38,31780.4,34472.4,-1.0308,-1.2972,135.0,98.1,0.477
16.4,31834.7,34478.3,-0.7767,-1.2827,135.0,98.1,0.477
16.42,31959.2,34747.7,-0.1937,-0.6213,135.0,98.1,0.477
16.44,31993.6,35104.3,-0.0326,0.2542,135.0,98.1,0.477
16.46,32178.2,35420.7,0.8319,1.0309,135.0,98.1,0.477
16.48,32362.3,35725.1,1.6945,1.7782,135.0,98.1,0.477
16.5,32408.3,35719.5,1.91,1.7644,135.0,98.1,0.477
16.52,32266.9,35725.5,1.2477,1.7791,135.0,98.1,0.477
16.54,32278.1,35478.4,1.3,1.1726,135.0,98.1,0.477
16.56,32120.0,35344.0,0.5597,0.8425,135.0,98.1,0.477
16.58,32120.1,35219.7,0.5602,0.5375,135.0,98.1,0.477
16.6,32001.6,35016.7,0.005,0.0391,135.0,98.1,0.477
16.62,32037.3,35081.7,0.1721,0.1987,135.0,98.1,0.477
16.64,32080.6,35121.4,0.375,0.2961,135.0,98.1,0.477
16.66,31907.2,34892.0,-0.4373,-0.267,135.0,98.1,0.477
16.68,31940.2,34814.1,-0.2826,-0.4584,135.0,98.1,0.477
16.7,31908.4,34790.2,-0.4315,-0.5171,135.0,98.1,0.477
16.72,31875.2,34692.8,-0.5869,-0.756,135.0,98.1,0.477
16.74,31789.6,34771.2,-0.9877,-0.5637,135.0,98.1,0.477
16.76,31852.5,34593.4,-0.6931,-1.0001,135.0,98.1,0.477
16.78,31790.4,34620.5,-0.9843,-0.9335,135.0,98.1,0.477
16.8,31738.5,34541.4,-1.2271,-1.1278,135.0,98.1,0.477
16.82,31709.9,34412.6,-1.3613,-1.4439,135.0,98.1,0.477
16.84,31650.6,34435.1,-1.6389,-1.3887,135.0,98.1,0.477
16.86,31937.9,34819.9,-0.2934,-0.444,135.0,98.1,0.477
16.88,31998.4,35094.2,-0.0098,0.2293,135.0,98.1,0.477
16.9,32184.3,35341.7,0.8609,0.837,135.0,98.1,0.477
16.92,32288.0,35600.6,1.3466,1.4726,135.0,98.1,0.477
16.94,32270.9,35731.2,1.2663,1.7932,135.0,98.1,0.477
16.96,32319.3,35774.5,1.4929,1.8994,135.0,98.1,0.477
16.98,32303.1,35562.9,1.4172,1.3799,135.0,98.1,0.477
17.0,32148.4,35255.8,0.6928,0.626,135.0,98.1,0.477
17.02,32068.9,35132.7,0.3204,0.3239,135.0,98.1,0.477
17.04,32048.2,35058.1,0.2233,0.1408,135.0,98.1,0.477
17.06,32082.6,35127.4,0.3842,0.3109,135.0,98.1,0.477
17.08,32090.1,35025.9,0.4195,0.0617,135.0,98.1,0.477
17.1,31970.1,34930.2,-0.1426,-0.1733,135.0,98.1,0.477
17.12,31847.1,34812.5,-0.7185,-0.4623,135.0,98.1,0.477
17.14,31914.4,34684.9,-0.4032,-0.7755,135.0,98.1,0.477
17.16,31952.9,34708.5,-0.2231,-0.7176,135.0,98.1,0.477
17.18,31872.6,34654.6,-0.5993,-0.8498,135.0,98.1,0.477
17.2,31828.4,34669.0,-0.8062,-0.8145,135.0,98.1,0.477
17.22,31752.0,34602.8,-1.164,-0.9771,135.0,98.1,0.477
17.24,31824.1,34500.4,-0.8265,-1.2284,135.0,98.1,0.477
17.26,31753.6,34546.4,-1.1564,-1.1155,135.0,98.1,0.477
17.28,31787.5,34470.3,-0.9975,-1.3024,135.0,98.1,0.477
17.3,31778.1,34632.7,-1.0416,-0.9037,135.0,98.1,0.477
17.32,31918.7,34939.6,-0.3833,-0.1501,135.0,98.1,0.477
17.34,32142.0,35337.6,0.6628,0.8268,135.0,98.1,0.477
17.36,32226.4,35599.9,1.0578,1.4709,135.0,98.1,0.477
17.38,32341.5,35746.1,1.5972,1.8298,135.0,98.1,0.477
17.4,32334.7,35774.2,1.5654,1.8987,135.0,98.1,0.477
17.42,32238.6,35451.9,1.1153,1.1074,135.0,98.1,0.477
17.44,32167.2,35490.2,0.7808,1.2014,135.0,98.1,0.477
17.46,32088.1,35222.9,0.4102,0.5454,135.0,98.1,0.477
17.48,32095.4,35122.5,0.4444,0.2988,135.0,98.1,0.477
17.5,32050.9,35001.5,0.2357,0.0017,135.0,98.1,0.477
17.52,32080.3,35029.6,0.3735,0.0708,135.0,98.1,0.477
17.54,32026.9,34971.4,0.1236,-0.0721,135.0,98.1,0.477
17.56,31946.9,34841.5,-0.2513,-0.391,135.0,98.1,0.477
17.58,31933.9,34800.3,-0.3119,-0.4921,135.0,98.1,0.477
17.6,31831.3,34714.0,-0.7926,-0.7041,135.0,98.1,0.477
17.62,31848.7,34723.9,-0.7108,-0.6798,135.0,98.1,0.477
17.64,31846.7,34751.2,-0.7207,-0.6127,135.0,98.1,0.477
17.66,31828.7,34722.6,-0.8046,-0.683,135.0,98.1,0.477
17.68,31760.9,34557.0,-1.1223,-1.0896,135.0,98.1,0.477
17.7,31773.6,34456.6,-1.0629,-1.3361,135.0,98.1,0.477
17.72,31778.4,34495.5,-1.0401,-1.2405,135.0,98.1,0.477
17.74,31907.7,34587.2,-0.4348,-1.0155,135.0,98.1,0.477
17.76,32038.7,34842.2,0.1788,-0.3892,135.0,98.1,0.477
17.78,31974.1,35231.8,-0.1236,0.567,135.0,98.1,0.477
17.8,32269.5,35472.2,1.2598,1.1573,135.0,98.1,0.477
17.82,32327.9,35745.1,1.5331,1.8274,135.0,98.1,0.477
17.84,32345.9,35719.0,1.6174,1.7633,135.0,98.1,0.477
17.86,32367.5,35607.3,1.7187,1.4889,135.0,98.1,0.477
17.88,32243.2,35462.7,1.1368,1.134,135.0,98.1,0.477
17.9,32085.7,35244.1,0.3991,0.5972,135.0,98.1,0.477
17.92,32067.6,35089.6,0.3143,0.2179,135.0,98.1,0.477
17.94,32028.3,35039.4,0.1302,0.0948,135.0,98.1,0.477
17.96,32045.5,35047.9,0.2106,0.1155,135.0,98.1,0.477
17.98,32069.9,35029.7,0.3251,0.0711,135.0,98.1,0.477
18.0,31984.3,34806.3,-0.0758,-0.4776,135.0,98.1,0.477
18.02,31844.7,34742.2,-0.7296,-0.6347,135.0,98.1,0.477
18.04,31867.6,34781.1,-0.6224,-0.5394,135.0,98.1,0.477
18.06,31781.3,34660.9,-1.0269,-0.8344,135.0,98.1,0.477
18.08,31815.4,34596.8,-0.8669,-0.9919,135.0,98.1,0.477
18.1,31920.9,34661.4,-0.3731,-0.8331,135.0,98.1,0.477
18.12,31829.1,34507.6,-0.8028,-1.2107,135.0,98.1,0.477
18.14,31704.3,34430.5,-1.3874,-1.4001,135.0,98.1,0.477
18.16,31753.3,34349.9,-1.158,-1.5978,135.0,98.1,0.477
18.18,31719.7,34585.1,-1.3151,-1.0204,135.0,98.1,0.477
18.2,31884.8,34741.1,-0.542,-0.6375,135.0,98.1,0.477
18.22,32033.9,35095.5,0.1565,0.2325,135.0,98.1,0.477
18.24,32200.1,35534.2,0.9348,1.3095,135.0,98.1,0.477
18.26,32252.5,35649.9,1.1803,1.5936,135.0,98.1,0.477
18.28,32353.0,35700.2,1.6511,1.717,135.0,98.1,0.477
18.3,32299.9,35664.5,1.4022,1.6293,135.0,98.1,0.477
18.32,32262.1,35509.5,1.225,1.2488,135.0,98.1,0.477
18.34,32155.2,35249.7,0.7245,0.611,135.0,98.1,0.477
18.36,32006.2,35174.1,0.0265,0.4254,135.0,98.1,0.477
18.38,32110.0,35081.1,0.5128,0.1973,135.0,98.1,0.477
18.4,32011.8,35004.8,0.0527,0.0098,135.0,98.1,0.477
18.42,31968.3,34955.8,-0.151,-0.1104,135.0,98.1,0.477
18.44,32029.1,34931.4,0.1337,-0.1703,135.0,98.1,0.477
18.46,31899.4,34732.3,-0.4737,-0.6592,135.0,98.1,0.477
18.48,31876.2,34839.0,-0.5824,-0.3972,135.0,98.1,0.477
18.5,31787.0,34713.6,-1.0001,-0.705,135.0,98.1,0.477
18.52,31830.3,34760.2,-0.7972,-0.5906,135.0,98.1,0.477
18.54,31928.5,34610.0,-0.3372,-0.9594,135.0,98.1,0.477
18.56,31879.6,34578.8,-0.5665,-1.0359,135.0,98.1,0.477
18.58,31779.9,34517.9,-1.0331,-1.1854,135.0,98.1,0.477
18.6,31842.3,34493.6,-0.7413,-1.2452,135.0,98.1,0.477
18.62,31712.3,34444.2,-1.3499,-1.3663,135.0,98.1,0.477
18.64,31872.7,34663.6,-0.5985,-0.8278,135.0,98.1,0.477
18.66,31996.6,35062.1,-0.0184,0.1505,135.0,98.1,0.477
18.68,32166.6,35447.3,0.7778,1.0962,135.0,98.1,0.477
18.7,32233.6,35696.6,1.0914,1.7083,135.0,98.1,0.477
18.72,32312.7,35773.6,1.4621,1.8973,135.0,98.1,0.477
18.74,32318.6,35643.0,1.49,1.5765,135.0,98.1,0.477
18.76,32262.7,35577.5,1.2279,1.4157,135.0,98.1,0.477
18.78,32311.8,35289.7,1.458,0.7093,135.0,98.1,0.477
18.8,32126.5,35287.0,0.5898,0.7026,135.0,98.1,0.477
18.82,32070.7,35082.2,0.3288,0.1998,135.0,98.1,0.477
18.84,32045.1,35104.9,0.2088,0.2556,135.0,98.1,0.477
18.86,32017.8,34948.5,0.081,-0.1285,135.0,98.1,0.477
18.88,32028.3,34933.7,0.13,-0.1646,135.0,98.1,0.477
18.9,31900.0,34883.9,-0.4709,-0.2869,135.0,98.1,0.477
18.92,31900.3,34773.7,-0.4696,-0.5576,135.0,98.1,0.477
18.94,31893.0,34653.7,-0.5035,-0.8521,135.0,98.1,0.477
18.96,31768.9,34619.1,-1.0849,-0.937,135.0,98.1,0.477
18.98,31885.2,34583.8,-0.5399,-1.0238,135.0,98.1,0.477
19.0,31784.3,34605.0,-1.0129,-0.9717,135.0,98.1,0.477
19.02,31805.0,34413.5,-0.9158,-1.4417,135.0,98.1,0.477
19.04,31763.7,34303.7,-1.109,-1.7114,135.0,98.1,0.477
19.06,31799.9,34506.9,-0.9394,-1.2125,135.0,98.1,0.477
19.08,31826.4,34637.5,-0.8153,-0.8919,135.0,98.1,0.477
19.1,32009.3,35035.4,0.0412,0.085,135.0,98.1,0.477
19.12,32133.6,35378.8,0.6234,0.9281,135.0,98.1,0.477
19.14,32205.0,35608.4,0.9578,1.4916,135.0,98.1,0.477
19.16,32318.1,35773.0,1.4874,1.8958,135.0,98.1,0.477
19.18,32324.4,35774.3,1.517,1.899,135.0,98.1,0.477
19.2,32366.8,35618.6,1.7157,1.5168,135.0,98.1,0.477
19.22,32248.5,35386.1,1.1615,0.946,135.0,98.1,0.477
19.24,32080.7,35277.5,0.3756,0.6793,135.0,98.1,0.477
19.26,32043.3,35110.8,0.2001,0.27,135.0,98.1,0.477
19.28,32034.7,35126.0,0.1602,0.3074,135.0,98.1,0.477
19.3,32055.2,35078.2,0.256,0.19,135.0,98.1,0.477
19.32,31958.7,34873.6,-0.1961,-0.3123,135.0,98.1,0.477
19.34,31949.5,34964.8,-0.2391,-0.0885,135.0,98.1,0.477
19.36,31862.0,34759.7,-0.6486,-0.5919,135.0,98.1,0.477
19.38,31824.9,34745.6,-0.8224,-0.6265,135.0,98.1,0.477
19.4,31911.4,34649.8,-0.4174,-0.8617,135.0,98.1,0.477
19.42,31806.3,34599.6,-0.9097,-0.9849,135.0,98.1,0.477
19.44,31730.4,34548.8,-1.2654,-1.1097,135.0,98.1,0.477
19.46,31784.2,34595.6,-1.013,-0.9946,135.0,98.1,0.477
19.48,31745.8,34523.9,-1.193,-1.1708,135.0,98.1,0.477
19.5,31678.7,34422.6,-1.5075,-1.4195,135.0,98.1,0.477
19.52,31793.6,34560.2,-0.9692,-1.0817,135.0,98.1,0.477
19.54,31982.5,34965.6,-0.0843,-0.0864,135.0,98.1,0.477
19.56,32120.9,35337.2,0.5639,0.8259,135.0,98.1,0.477
19.58,32236.7,35494.0,1.1064,1.2109,135.0,98.1,0.477
19.6,32301.4,35805.1,1.4091,1.9745,135.0,98.1,0.477
19.62,32247.3,35786.5,1.1558,1.9289,135.0,98.1,0.477
19.64,32192.1,35547.2,0.8975,1.3415,135.0,98.1,0.477
19.66,32225.8,35438.4,1.0551,1.0744,135.0,98.1,0.477
19.68,32085.2,35269.9,0.3965,0.6606,135.0,98.1,0.477
19.7,32089.8,35125.6,0.4182,0.3064,135.0,98.1,0.477
19.72,32042.0,35084.8,0.1944,0.2064,135.0,98.1,0.477
19.74,32093.3,35097.6,0.4345,0.2376,135.0,98.1,0.477
19.76,32060.0,34896.9,0.2784,-0.255,135.0,98.1,0.477
19.78,31909.4,34873.3,-0.4267,-0.313,135.0,98.1,0.477
19.8,31869.7,34802.4,-0.6126,-0.487,135.0,98.1,0.477
19.82,31899.7,34694.7,-0.4721,-0.7514,135.0,98.1,0.477
19.84,31936.7,34700.1,-0.2991,-0.7382,135.0,98.1,0.477
19.86,31960.5,34661.5,-0.1875,-0.8329,135.0,98.1,0.477
19.88,31739.2,34585.4,-1.2238,-1.0198,135.0,98.1,0.477
19.9,31803.6,34554.9,-0.9225,-1.0947,135.0,98.1,0.477
19.92,31744.4,34571.8,-1.1997,-1.0532,135.0,98.1,0.477
19.94,31732.0,34482.4,-1.2576,-1.2726,135.0,98.1,0.477
19.96,31799.3,34662.5,-0.9423,-0.8306,135.0,98.1,0.477
19.98,31963.8,34863.4,-0.172,-0.3374,135.0,98.1,0.477
20.0,32057.3,35092.0,0.2657,0.224,135.0,98.1,0.477
20.02,32150.5,35567.0,0.7025,1.3899,135.0,98.1,0.477
20.04,32259.8,35706.8,1.2145,1.7331,135.0,98.1,0.477
20.06,32340.5,35824.0,1.5923,2.0211,135.0,98.1,0.477
20.08,32293.4,35696.1,1.3717,1.707,135.0,98.1,0.477
20.1,32170.1,35443.9,0.794,1.0878,135.0,98.1,0.477
20.12,32094.2,35307.7,0.4386,0.7534,135.0,98.1,0.477
20.14,32070.7,35241.1,0.3287,0.59,135.0,98.1,0.477
20.16,31989.2,35095.0,-0.0529,0.2314,135.0,98.1,0.477
20.18,32054.8,34956.9,0.2544,-0.1077,135.0,98.1,0.477
20.2,31969.7,35000.5,-0.1444,-0.0006,135.0,98.1,0.477
20.22,31970.4,34843.1,-0.1411,-0.3871,135.0,98.1,0.477
20.24,31956.1,34829.4,-0.2082,-0.4208,135.0,98.1,0.477
20.26,31941.6,34723.8,-0.276,-0.6801,135.0,98.1,0.477
20.28,31846.6,34730.0,-0.7209,-0.6647,135.0,98.1,0.477
20.3,31828.2,34725.6,-0.8073,-0.6756,135.0,98.1,0.477
20.32,31877.5,34620.1,-0.5761,-0.9346,135.0,98.1,0.477
20.34,31882.5,34550.0,-0.5528,-1.1066,135.0,98.1,0.477
20.36,31771.5,34543.2,-1.0728,-1.1233,135.0,98.1,0.477
20.38,31745.9,34462.2,-1.1925,-1.3222,135.0,98.1,0.477
20.4,31719.2,34489.7,-1.3178,-1.2546,135.0,98.1,0.477
20.42,31905.2,34796.7,-0.4466,-0.501,135.0,98.1,0.477
20.44,32086.7,35147.1,0.4037,0.3591,135.0,98.1,0.477
20.46,32152.9,35394.7,0.7136,0.9671,135.0,98.1,0.477
20.48,32385.8,35711.5,1.8045,1.7448,135.0,98.1,0.477
20.5,32177.8,35779.8,0.8302,1.9126,135.0,98.1,0.477
20.52,32294.3,35685.3,1.3759,1.6805,135.0,98.1,0.477
20.54,32166.3,35523.3,0.7765,1.2828,135.0,98.1,0.477
20.56,32196.0,35286.6,0.9153,0.7018,135.0,98.1,0.477
20.58,32093.1,35217.4,0.4334,0.5317,135.0,98.1,0.477
20.6,32105.6,35093.5,0.4922,0.2276,135.0,98.1,0.477
20.62,31978.6,35060.2,-0.1027,0.1458,135.0,98.1,0.477
20.64,31978.2,34996.1,-0.1044,-0.0115,135.0,98.1,0.477
20.66,31996.6,34878.4,-0.0183,-0.3004,135.0,98.1,0.477
20.68,31918.7,34902.9,-0.3831,-0.2404,135.0,98.1,0.477
20.7,31931.7,34688.9,-0.3223,-0.7657,135.0,98.1,0.477
20.72,31884.9,34797.2,-0.5416,-0.4999,135.0,98.1,0.477
20.74,31871.3,34720.4,-0.6053,-0.6883,135.0,98.1,0.477
20.76,31791.1,34624.6,-0.9807,-0.9235,135.0,98.1,0.477
20.78,31790.9,34545.8,-0.9816,-1.1171,135.0,98.1,0.477
20.8,31851.0,34514.9,-0.7002,-1.1928,135.0,98.1,0.477
20.82,31717.2,34328.1,-1.3271,-1.6514,135.0,98.1,0.477
20.84,31785.1,34507.6,-1.009,-1.2108,135.0,98.1,0.477
20.86,31820.0,34678.4,-0.8454,-0.7914,135.0,98.1,0.477
20.88,32070.7,34956.2,0.3287,-0.1095,135.0,98.1,0.477
20.9,32166.2,35411.8,0.776,1.0089,135.0,98.1,0.477
20.92,32222.3,35655.6,1.0385,1.6076,135.0,98.1,0.477
20.94,32384.5,35794.9,1.7982,1.9496,135.0,98.1,0.477
20.96,32363.5,35703.7,1.6999,1.7255,135.0,98.1,0.477
20.98,32233.9,35633.2,1.093,1.5526,135.0,98.1,0.477
21.0,32137.4,35341.7,0.6412,0.8371,135.0,98.1,0.477
21.02,32123.7,35284.6,0.5769,0.6968,135.0,98.1,0.477
21.04,31992.7,35145.4,-0.0369,0.3549,135.0,98.1,0.477
21.06,32033.5,34980.9,0.1542,-0.0489,135.0,98.1,0.477
21.08,32009.2,34999.2,0.0406,-0.004,135.0,98.1,0.477
21.1,32003.0,34988.4,0.0117,-0.0305,135.0,98.1,0.477
21.12,31891.9,34857.4,-0.5086,-0.352,135.0,98.1,0.477
21.14,31891.5,34790.6,-0.5107,-0.5161,135.0,98.1,0.477
21.16,31846.8,34609.2,-0.72,-0.9613,135.0,98.1,0.477
21.18,31875.7,34709.6,-0.5845,-0.7149,135.0,98.1,0.477
21.2,31908.0,34709.2,-0.4333,-0.7159,135.0,98.1,0.477
21.22,31771.5,34507.0,-1.0726,-1.2121,135.0,98.1,0.477
21.24,31829.4,34517.3,-0.8013,-1.187,135.0,98.1,0.477
21.26,31737.6,34449.1,-1.2314,-1.3545,135.0,98.1,0.477
21.28,31769.9,34500.9,-1.0801,-1.2272,135.0,98.1,0.477
21.3,31883.9,34667.2,-0.546,-0.819,135.0,98.1,0.477
21.32,31934.2,34928.0,-0.3104,-0.1788,135.0,98.1,0.477
21.34,32183.2,35310.1,0.8558,0.7594,135.0,98.1,0.477
21.36,32264.6,35576.6,1.2369,1.4137,135.0,98.1,0.477
21.38,32313.5,35748.0,1.4657,1.8344,135.0,98.1,0.477
21.4,32284.0,35744.0,1.3276,1.8246,135.0,98.1,0.477
21.42,32206.1,35567.2,0.9626,1.3906,135.0,98.1,0.477
21.44,32245.2,35377.3,1.1459,0.9244,135.0,98.1,0.477
21.46,32025.3,35244.3,0.1163,0.5977,135.0,98.1,0.477
21.48,32003.3,35093.1,0.0129,0.2266,135.0,98.1,0.477
21.5,32057.9,35102.1,0.2688,0.2486,135.0,98.1,0.477
21.52,31980.1,35112.1,-0.0958,0.2733,135.0,98.1,0.477
21.54,32025.3,34802.3,0.1159,-0.4873,135.0,98.1,0.477
21.56,31902.9,34834.6,-0.4571,-0.4081,135.0,98.1,0.477
21.58,31877.0,34653.9,-0.5784,-0.8517,135.0,98.1,0.477
21.6,31830.0,34580.1,-0.7985,-1.0329,135.0,98.1,0.477
21.62,31795.2,34630.6,-0.9617,-0.9089,135.0,98.1,0.477
21.64,31797.4,34662.7,-0.9512,-0.83,135.0,98.1,0.477
21.66,31940.3,34640.9,-0.2819,-0.8834,135.0,98.1,0.477
21.68,31833.9,34577.7,-0.7802,-1.0387,135.0,98.1,0.477
21.7,31718.7,34417.7,-1.3199,-1.4314,135.0,98.1,0.477
21.72,31761.7,34460.5,-1.1185,-1.3263,135.0,98.1,0.477
21.74,31880.4,34503.2,-0.5626,-1.2215,135.0,98.1,0.477
21.76,31953.0,34893.0,-0.2224,-0.2647,135.0,98.1,0.477
21.78,32080.2,35216.2,0.3734,0.5288,135.0,98.1,0.477
21.8,32274.5,35537.0,1.2831,1.3163,135.0,98.1,0.477
21.82,32342.8,35732.6,1.6033,1.7965,135.0,98.1,0.477
21.84,32467.7,35716.2,2.1879,1.7563,135.0,98.1,0.477
21.86,32319.5,35616.7,1.4938,1.512,135.0,98.1,0.477
21.88,32161.6,35526.7,0.7542,1.291,135.0,98.1,0.477
21.9,32056.1,35310.0,0.2605,0.759,135.0,98.1,0.477
21.92,32083.5,35117.9,0.3888,0.2874,135.0,98.1,0.477
21.94,32154.5,35170.9,0.721,0.4176,135.0,98.1,0.477
21.96,32030.6,35074.0,0.1411,0.1797,135.0,98.1,0.477
21.98,31996.2,34941.1,-0.0201,-0.1465,135.0,98.1,0.477
22.0,31929.9,34918.9,-0.3309,-0.2011,135.0,98.1,0.477
22.02,32009.7,34742.8,0.0432,-0.6333,135.0,98.1,0.477
22.04,31880.0,34736.7,-0.5646,-0.6485,135.0,98.1,0.477
22.06,31773.1,34699.6,-1.0654,-0.7395,135.0,98.1,0.477
22.08,31821.3,34699.5,-0.8393,-0.7396,135.0,98.1,0.477
22.1,31868.4,34606.4,-0.6187,-0.9682,135.0,98.1,0.477
22.12,31895.0,34528.4,-0.4941,-1.1597,135.0,98.1,0.477
22.14,31758.5,34476.9,-1.1334,-1.2861,135.0,98.1,0.477
22.16,31812.6,34538.2,-0.8801,-1.1356,135.0,98.1,0.477
22.18,31789.3,34630.4,-0.9891,-0.9094,135.0,98.1,0.477
22.2,31898.1,34675.4,-0.4797,-0.7987,135.0,98.1,0.477
22.22,32069.3,35121.7,0.3222,0.2969,135.0,98.1,0.477
22.24,32228.7,35504.1,1.0685,1.2357,135.0,98.1,0.477
22.26,32321.9,35760.8,1.5053,1.8657,135.0,98.1,0.477
22.28,32338.2,35777.9,1.5815,1.9078,135.0,98.1,0.477
22.3,32270.7,35751.5,1.2653,1.8429,135.0,98.1,0.477
22.32,32227.6,35450.3,1.0636,1.1035,135.0,98.1,0.477
22.34,32163.4,35344.3,0.763,0.8433,135.0,98.1,0.477
22.36,32108.0,35171.9,0.5034,0.4201,135.0,98.1,0.477
22.38,32035.5,35128.4,0.1639,0.3134,135.0,98.1,0.477
22.4,32047.5,35074.9,0.2199,0.1819,135.0,98.1,0.477
22.42,32050.6,34999.6,0.2347,-0.0029,135.0,98.1,0.477
22.44,31999.8,34918.1,-0.0032,-0.2031,135.0,98.1,0.477
22.46,31847.5,34801.5,-0.7167,-0.4891,135.0,98.1,0.477
22.48,31899.1,34771.7,-0.4749,-0.5625,135.0,98.1,0.477
22.5,31885.4,34677.9,-0.539,-0.7926,135.0,98.1,0.477
22.52,31799.4,34549.7,-0.942,-1.1075,135.0,98.1,0.477
22.54,31828.5,34679.1,-0.8058,-0.7898,135.0,98.1,0.477
22.56,31816.2,34566.1,-0.8631,-1.0672,135.0,98.1,0.477
22.58,31779.3,34641.4,-1.0361,-0.8822,135.0,98.1,0.477
22.6,31765.4,34426.6,-1.101,-1.4095,135.0,98.1,0.477
22.62,31762.7,34513.1,-1.1136,-1.1973,135.0,98.1,0.477
22.64,31963.6,34773.1,-0.1729,-0.559,135.0,98.1,0.477
22.66,32001.1,35051.3,0.0028,0.1239,135.0,98.1,0.477
22.68,32109.6,35379.5,0.5109,0.9298,135.0,98.1,0.477
22.7,32318.2,35649.4,1.488,1.5923,135.0,98.1,0.477
22.72,32429.7,35685.7,2.0101,1.6815,135.0,98.1,0.477
22.74,32257.7,35596.1,1.2044,1.4615,135.0,98.1,0.477
22.76,32307.1,35566.9,1.4358,1.3898,135.0,98.1,0.477
22.78,32055.0,35331.5,0.2551,0.812,135.0,98.1,0.477
22.8,32012.0,35140.5,0.0537,0.3429,135.0,98.1,0.477
22.82,32052.2,35216.7,0.2421,0.5302,135.0,98.1,0.477
22.84,32004.0,35082.2,0.0162,0.1999,135.0,98.1,0.477
22.86,32039.9,34999.3,0.1844,-0.0037,135.0,98.1,0.477
22.88,31890.7,34871.4,-0.5143,-0.3177,135.0,98.1,0.477
22.9,31817.6,34798.3,-0.8566,-0.4971,135.0,98.1,0.477
22.92,31915.0,34704.8,-0.4004,-0.7266,135.0,98.1,0.477
22.94,31832.1,34768.7,-0.7889,-0.5697,135.0,98.1,0.477
22.96,31902.7,34664.7,-0.4581,-0.825,135.0,98.1,0.477
22.98,31804.5,34646.7,-0.9183,-0.8693,135.0,98.1,0.477
23.0,31849.1,34626.8,-0.7093,-0.9182,135.0,98.1,0.477
23.02,31760.7,34422.7,-1.1234,-1.4193,135.0,98.1,0.477
23.04,31740.5,34432.7,-1.2177,-1.3946,135.0,98.1,0.477
23.06,31698.1,34500.7,-1.4166,-1.2276,135.0,98.1,0.477
23.08,31790.8,34704.9,-0.982,-0.7265,135.0,98.1,0.477
23.1,31964.6,35037.6,-0.1683,0.0904,135.0,98.1,0.477
23.12,32244.1,35299.2,1.1409,0.7325,135.0,98.1,0.477
23.14,32295.6,35638.9,1.3818,1.5667,135.0,98.1,0.477
23.16,32371.0,35705.5,1.7352,1.7302,135.0,98.1,0.477
23.18,32319.0,35717.4,1.4917,1.7593,135.0,98.1,0.477
23.2,32188.9,35602.3,0.8822,1.4767,135.0,98.1,0.477
23.22,32159.5,35350.2,0.7447,0.8577,135.0,98.1,0.477
23.24,32093.9,35185.9,0.4372,0.4544,135.0,98.1,0.477
23.26,32155.4,35165.4,0.7253,0.4041,135.0,98.1,0.477
23.28,31955.4,35040.1,-0.2112,0.0964,135.0,98.1,0.477
23.3,31975.6,34975.3,-0.1168,-0.0627,135.0,98.1,0.477
23.32,31969.8,35010.7,-0.1439,0.0244,135.0,98.1,0.477
23.34,31944.5,34830.5,-0.2624,-0.4181,135.0,98.1,0.477
23.36,31981.0,34731.9,-0.0913,-0.6602,135.0,98.1,0.477
23.38,31855.3,34617.1,-0.6802,-0.9419,135.0,98.1,0.477
23.4,31802.9,34613.8,-0.9255,-0.9501,135.0,98.1,0.477
23.42,31811.7,34674.7,-0.8845,-0.8004,135.0,98.1,0.477
23.44,31901.7,34554.7,-0.463,-1.0952,135.0,98.1,0.477
23.46,31781.8,34613.9,-1.0245,-0.9498,135.0,98.1,0.477
23.48,31746.3,34503.8,-1.1907,-1.2201,135.0,98.1,0.477
23.5,31732.9,34420.9,-1.2533,-1.4237,135.0,98.1,0.477
23.52,31772.9,34689.4,-1.066,-0.7645,135.0,98.1,0.477
23.54,31931.8,34863.6,-0.3218,-0.3367,135.0,98.1,0.477
23.56,32150.2,35249.5,0.7009,0.6106,135.0,98.1,0.477
23.58,32238.8,35589.7,1.116,1.4458,135.0,98.1,0.477
23.6,32347.1,35716.0,1.623,1.7559,135.0,98.1,0.477
23.62,32207.7,35816.3,0.9702,2.002,135.0,98.1,0.477
23.64,32298.3,35512.4,1.3945,1.256,135.0,98.1,0.477
23.66,32271.0,35479.3,1.2668,1.1747,135.0,98.1,0.477
23.68,32126.3,35216.9,0.5892,0.5306,135.0,98.1,0.477
23.7,32028.6,35054.2,0.1316,0.1311,135.0,98.1,0.477
23.72,32085.1,35061.1,0.3959,0.1481,135.0,98.1,0.477
23.74,32088.7,35095.7,0.4128,0.233,135.0,98.1,0.477
23.76,31881.9,34917.5,-0.5557,-0.2045,135.0,98.1,0.477
23.78,31978.5,34893.1,-0.103,-0.2644,135.0,98.1,0.477
23.8,31903.3,34802.3,-0.4555,-0.4874,135.0,98.1,0.477
23.82,31869.1,34634.8,-0.6156,-0.8985,135.0,98.1,0.477
23.84,31833.6,34665.6,-0.7819,-0.823,135.0,98.1,0.477
23.86,31755.9,34735.7,-1.1455,-0.6507,135.0,98.1,0.477
23.88,31841.2,34628.9,-0.7461,-0.9129,135.0,98.1,0.477
23.9,31797.1,34574.2,-0.953,-1.0473,135.0,98.1,0.477
23.92,31748.1,34418.6,-1.1823,-1.4292,135.0,98.1,0.477
23.94,31718.1,34358.8,-1.3228,-1.5761,135.0,98.1,0.477
23.96,31746.0,34572.1,-1.1921,-1.0524,135.0,98.1,0.477
23.98,31933.6,34768.7,-0.3134,-0.5698,135.0,98.1,0.477
24.0,32141.3,35181.7,0.6592,0.4442,135.0,98.1,0.477
24.02,32299.1,35510.6,1.3983,1.2516,135.0,98.1,0.477
24.04,32263.5,35750.4,1.2317,1.8402,135.0,98.1,0.477
24.06,32348.4,35781.9,1.6295,1.9175,135.0,98.1,0.477
24.08,32356.8,35639.6,1.6688,1.5683,135.0,98.1,0.477
24.1,32143.0,35446.9,0.6674,1.0953,135.0,98.1,0.477
24.12,32161.9,35379.2,0.7559,0.929,135.0,98.1,0.477
24.14,32143.6,35046.2,0.6701,0.1115,135.0,98.1,0.477
24.16,32086.4,35157.7,0.4024,0.3852,135.0,98.1,0.477
24.18,32076.9,35071.4,0.3575,0.1734,135.0,98.1,0.477
24.2,31997.6,34998.3,-0.0138,-0.0061,135.0,98.1,0.477
24.22,31859.6,34867.9,-0.6599,-0.3263,135.0,98.1,0.477
24.24,31974.6,34755.7,-0.1215,-0.6016,135.0,98.1,0.477
24.26,31906.5,34765.6,-0.4406,-0.5774,135.0,98.1,0.477
24.28,31899.9,34727.5,-0.4715,-0.671,135.0,98.1,0.477
24.3,31841.4,34625.2,-0.7454,-0.9222,135.0,98.1,0.477
24.32,31805.1,34538.7,-0.9154,-1.1344,135.0,98.1,0.477
24.34,31908.4,34642.7,-0.4315,-0.879,135.0,98.1,0.477
24.36,31664.5,34520.7,-1.5737,-1.1786,135.0,98.1,0.477
24.38,31792.5,34356.3,-0.9744,-1.5821,135.0,98.1,0.477
24.4,31820.0,34574.5,-0.8455,-1.0466,135.0,98.1,0.477
24.42,31889.5,34707.9,-0.5198,-0.719,135.0,98.1,0.477
24.44,32033.9,35103.7,0.1561,0.2526,135.0,98.1,0.477
24.46,32164.2,35551.7,0.7664,1.3526,135.0,98.1,0.477
24.48,32329.7,35651.5,1.5419,1.5976,135.0,98.1,0.477
24.5,32332.9,35829.4,1.5569,2.0342,135.0,98.1,0.477
24.52,32295.8,35618.9,1.3828,1.5175,135.0,98.1,0.477
24.54,32247.4,35513.1,1.1563,1.2577,135.0,98.1,0.477
24.56,32112.3,35276.1,0.5235,0.676,135.0,98.1,0.477
24.58,32089.0,35280.8,0.4144,0.6875,135.0,98.1,0.477
24.6,32036.4,35243.0,0.168,0.5947,135.0,98.1,0.477
24.62,32047.8,35042.0,0.2214,0.1012,135.0,98.1,0.477
24.64,32042.5,34992.3,0.1965,-0.0208,135.0,98.1,0.477
24.66,32000.6,34923.1,0.0004,-0.1907,135.0,98.1,0.477
24.68,31875.0,34727.6,-0.5879,-0.6707,135.0,98.1,0.477
24.7,31863.8,34577.7,-0.6401,-1.0387,135.0,98.1,0.477
24.72,31779.1,34730.0,-1.0372,-0.6648,135.0,98.1,0.477
24.74,31889.0,34767.0,-0.5222,-0.5739,135.0,98.1,0.477
24.76,31861.0,34708.9,-0.6535,-0.7166,135.0,98.1,0.477
24.78,31754.2,34615.3,-1.1538,-0.9464,135.0,98.1,0.477
24.8,31765.3,34524.0,-1.1016,-1.1704,135.0,98.1,0.477
24.82,31780.6,34516.7,-1.0301,-1.1884,135.0,98.1,0.477
24.84,31873.9,34548.0,-0.5933,-1.1115,135.0,98.1,0.477
24.86,31794.1,34692.5,-0.9668,-0.7569,135.0,98.1,0.477
24.88,31978.5,35061.7,-0.1034,0.1496,135.0,98.1,0.477
24.9,32107.1,35375.8,0.4993,0.9206,135.0,98.1,0.477
24.92,32348.8,35644.8,1.6313,1.581,135.0,98.1,0.477
24.94,32283.3,35775.1,1.3243,1.9008,135.0,98.1,0.477
24.96,32309.9,35722.8,1.449,1.7724,135.0,98.1,0.477
24.98,32266.8,35595.6,1.247,1.4603,135.0,98.1,0.477
25.0,32120.5,35306.7,0.5617,0.7509,135.0,98.1,0.477
25.02,32037.7,35215.2,0.1742,0.5263,135.0,98.1,0.477
25.04,32031.3,35187.2,0.1443,0.4577,135.0,98.1,0.477
25.06,32054.3,35052.5,0.2516,0.127,135.0,98.1,0.477
25.08,31993.8,34997.0,-0.0316,-0.0093,135.0,98.1,0.477
25.1,31983.0,35003.9,-0.0823,0.0076,135.0,98.1,0.477
25.12,31991.0,34850.6,-0.0447,-0.3688,135.0,98.1,0.477
25.14,31821.0,34788.1,-0.8407,-0.5221,135.0,98.1,0.477
25.16,31838.3,34644.1,-0.7596,-0.8756,135.0,98.1,0.477
25.18,31795.3,34719.6,-0.9612,-0.6902,135.0,98.1,0.477
25.2,31950.8,34621.5,-0.2329,-0.9311,135.0,98.1,0.477
25.22,31824.4,34687.4,-0.825,-0.7693,135.0,98.1,0.477
25.24,31835.9,34481.9,-0.7711,-1.2739,135.0,98.1,0.477
25.26,31748.7,34443.3,-1.1795,-1.3685,135.0,98.1,0.477
25.28,31712.6,34498.5,-1.3485,-1.2331,135.0,98.1,0.477
25.3,31861.9,34629.4,-0.6491,-0.9118,135.0,98.1,0.477
25.32,31922.0,35023.2,-0.3679,0.0551,135.0,98.1,0.477
25.34,32036.7,35260.8,0.1696,0.6384,135.0,98.1,0.477
25.36,32240.5,35615.6,1.124,1.5093,135.0,98.1,0.477
25.38,32432.7,35731.4,2.0241,1.7936,135.0,98.1,0.477
25.4,32350.2,35739.2,1.638,1.8128,135.0,98.1,0.477
25.42,32169.9,35556.2,0.7935,1.3635,135.0,98.1,0.477
25.44,32193.8,35375.0,0.9051,0.9188,135.0,98.1,0.477
25.46,32105.2,35259.1,0.49,0.6341,135.0,98.1,0.477
25.48,31994.0,35121.9,-0.0305,0.2973,135.0,98.1,0.477
25.5,32013.4,35059.7,0.0604,0.1447,135.0,98.1,0.477
25.52,31977.4,34992.0,-0.1085,-0.0216,135.0,98.1,0.477
25.54,31918.4,34867.9,-0.3847,-0.3263,135.0,98.1,0.477
25.56,31953.0,34844.9,-0.2224,-0.3826,135.0,98.1,0.477
25.58,32021.0,34693.5,0.0957,-0.7544,135.0,98.1,0.477
25.6,31848.9,34659.6,-0.7103,-0.8376,135.0,98.1,0.477
25.62,31832.4,34575.2,-0.7874,-1.0449,135.0,98.1,0.477
25.64,31846.7,34672.6,-0.7203,-0.8056,135.0,98.1,0.477
25.66,31832.4,34518.3,-0.7875,-1.1844,135.0,98.1,0.477
25.68,31848.6,34550.5,-0.7115,-1.1055,135.0,98.1,0.477
25.7,31757.1,34397.5,-1.1399,-1.4812,135.0,98.1,0.477
25.72,31791.5,34427.0,-0.979,-1.4086,135.0,98.1,0.477
25.74,31866.7,34634.2,-0.627,-0.9,135.0,98.1,0.477
25.76,31909.9,34882.3,-0.4242,-0.291,135.0,98.1,0.477
25.78,32119.1,35204.6,0.5555,0.5004,135.0,98.1,0.477
25.8,32213.9,35565.3,0.9993,1.3858,135.0,98.1,0.477
25.82,32306.2,35703.0,1.4317,1.724,135.0,98.1,0.477
25.84,32283.3,35745.4,1.3245,1.828,135.0,98.1,0.477
25.86,32297.4,35638.1,1.3904,1.5646,135.0,98.1,0.477
25.88,32170.8,35408.0,0.7975,0.9996,135.0,98.1,0.477
25.9,32060.0,35212.6,0.2787,0.5199,135.0,98.1,0.477
25.92,32018.0,35245.4,0.082,0.6005,135.0,98.1,0.477
25.94,32100.8,35078.3,0.4697,0.1904,135.0,98.1,0.477
25.96,32035.1,34950.3,0.1621,-0.1239,135.0,98.1,0.477
25.98,31938.7,34977.6,-0.2895,-0.0569,135.0,98.1,0.477
26.0,31943.2,34877.3,-0.2683,-0.303,135.0,98.1,0.477
26.02,31979.3,34771.9,-0.0992,-0.562,135.0,98.1,0.477
26.04,31981.5,34614.4,-0.0891,-0.9486,135.0,98.1,0.477
26.06,31977.3,34641.5,-0.1089,-0.8822,135.0,98.1,0.477
26.08,31883.9,34599.0,-0.5464,-0.9865,135.0,98.1,0.477
26.1,31704.3,34564.6,-1.3875,-1.0707,135.0,98.1,0.477
26.12,31773.9,34612.3,-1.0615,-0.9537,135.0,98.1,0.477
26.14,31795.8,34436.8,-0.9589,-1.3847,135.0,98.1,0.477
26.16,31748.7,34514.8,-1.1793,-1.193,135.0,98.1,0.477
26.18,31824.8,34514.1,-0.8228,-1.1949,135.0,98.1,0.477
26.2,31828.2,34863.9,-0.8071,-0.3361,135.0,98.1,0.477
26.22,32108.8,35141.5,0.5069,0.3453,135.0,98.1,0.477
26.24,32212.2,35560.2,0.9914,1.3732,135.0,98.1,0.477
26.26,32326.6,35785.4,1.5271,1.9262,135.0,98.1,0.477
26.28,32361.9,35839.1,1.6925,2.058,135.0,98.1,0.477
26.3,32328.1,35663.6,1.5342,1.6271,135.0,98.1,0.477
26.32,32212.7,35504.4,0.9936,1.2364,135.0,98.1,0.477
26.34,32076.7,35238.8,0.3566,0.5844,135.0,98.1,0.477
26.36,32084.4,35120.1,0.3926,0.2928,135.0,98.1,0.477
26.38,32024.0,34990.3,0.1098,-0.0258,135.0,98.1,0.477
26.4,32096.6,35033.1,0.45,0.0794,135.0,98.1,0.477
26.42,31911.8,35026.2,-0.4154,0.0624,135.0,98.1,0.477
26.44,31943.5,34846.5,-0.2672,-0.3787,135.0,98.1,0.477
26.46,31902.3,34851.5,-0.4599,-0.3664,135.0,98.1,0.477
26.48,31823.1,34684.0,-0.8311,-0.7778,135.0,98.1,0.477
26.5,31827.8,34617.7,-0.8092,-0.9404,135.0,98.1,0.477
26.52,31876.2,34645.5,-0.5821,-0.8722,135.0,98.1,0.477
26.54,31862.9,34623.9,-0.6447,-0.9252,135.0,98.1,0.477
26.56,31806.3,34610.1,-0.9096,-0.9592,135.0,98.1,0.477
26.58,31703.4,34475.7,-1.3915,-1.289,135.0,98.1,0.477
26.6,31713.6,34410.5,-1.3436,-1.4492,135.0,98.1,0.477
26.62,31810.4,34538.6,-0.8907,-1.1346,135.0,98.1,0.477
26.64,31913.7,34704.0,-0.4068,-0.7286,135.0,98.1,0.477
26.66,31960.1,35119.8,-0.1893,0.2922,135.0,98.1,0.477
26.68,32243.1,35471.6,1.136,1.1559,135.0,98.1,0.477
26.7,32248.7,35600.6,1.1623,1.4726,135.0,98.1,0.477
26.72,32349.0,35654.7,1.632,1.6054,135.0,98.1,0.477
26.74,32268.8,35711.6,1.2567,1.7449,135.0,98.1,0.477
26.76,32170.2,35510.3,0.7947,1.2508,135.0,98.1,0.477
26.78,32159.1,35392.1,0.7429,0.9606,135.0,98.1,0.477
26.8,32133.1,35234.4,0.6208,0.5735,135.0,98.1,0.477
26.82,32091.3,35149.7,0.4252,0.3656,135.0,98.1,0.477
26.84,32016.0,35044.8,0.0725,0.108,135.0,98.1,0.477
26.86,31978.1,34942.0,-0.1052,-0.1444,135.0,98.1,0.477
26.88,31958.6,34799.6,-0.1962,-0.494,135.0,98.1,0.477
26.9,31876.9,34830.4,-0.5792,-0.4184,135.0,98.1,0.477
26.92,31892.4,34721.7,-0.5065,-0.6852,135.0,98.1,0.477
26.94,31827.0,34744.3,-0.8126,-0.6297,135.0,98.1,0.477
26.96,31730.8,34607.0,-1.2633,-0.9669,135.0,98.1,0.477
26.98,31910.0,34646.2,-0.424,-0.8705,135.0,98.1,0.477
27.0,31777.8,34587.9,-1.0429,-1.0136,135.0,98.1,0.477
27.02,31728.2,34519.1,-1.2754,-1.1826,135.0,98.1,0.477
27.04,31698.1,34428.2,-1.4164,-1.4058,135.0,98.1,0.477
27.06,31777.9,34457.6,-1.0426,-1.3335,135.0,98.1,0.477
27.08,31736.8,34641.0,-1.2351,-0.8833,135.0,98.1,0.477
27.1,31941.8,35083.0,-0.2749,0.2018,135.0,98.1,0.477
27.12,32167.2,35266.1,0.7806,0.6513,135.0,98.1,0.477
27.14,32308.0,35575.8,1.4401,1.4117,135.0,98.1,0.477
27.16,32189.9,35815.6,0.8867,2.0003,135.0,98.1,0.477
27.18,32250.1,35696.9,1.169,1.7089,135.0,98.1,0.477
27.2,32200.5,35606.4,0.9364,1.4868,135.0,98.1,0.477
27.22,32082.2,35394.7,0.3825,0.9671,135.0,98.1,0.477
27.24,32061.9,35209.0,0.2874,0.5112,135.0,98.1,0.477
27.26,32009.8,35085.1,0.0435,0.207,135.0,98.1,0.477
27.28,32035.2,35112.1,0.1626,0.2732,135.0,98.1,0.477
27.3,32053.3,35011.5,0.2471,0.0262,135.0,98.1,0.477
27.32,31956.1,34965.5,-0.2081,-0.0866,135.0,98.1,0.477
27.34,31866.6,34752.4,-0.6272,-0.6099,135.0,98.1,0.477
27.36,31886.0,34695.5,-0.5362,-0.7494,135.0,98.1,0.477
27.38,31879.8,34672.1,-0.5654,-0.8069,135.0,98.1,0.477
27.4,31877.0,34627.2,-0.5785,-0.9172,135.0,98.1,0.477
27.42,31757.3,34644.4,-1.1394,-0.875,135.0,98.1,0.477
27.44,31806.5,34579.8,-0.9088,-1.0335,135.0,98.1,0.477
27.46,31753.4,34554.2,-1.1575,-1.0964,135.0,98.1,0.477
27.48,31777.5,34355.2,-1.0446,-1.585,135.0,98.1,0.477
27.5,31765.3,34466.0,-1.1018,-1.3128,135.0,98.1,0.477
27.52,31910.5,34641.6,-0.4218,-0.8818,135.0,98.1,0.477
27.54,31906.6,35012.5,-0.44,0.0288,135.0,98.1,0.477
27.56,32130.0,35279.1,0.6065,0.6833,135.0,98.1,0.477
27.58,32172.6,35524.1,0.8057,1.2848,135.0,98.1,0.477
27.6,32261.3,35731.5,1.2215,1.7939,135.0,98.1,0.477
27.62,32312.9,35693.9,1.4629,1.7016,135.0,98.1,0.477
27.64,32233.5,35561.5,1.0911,1.3766,135.0,98.1,0.477
27.66,32190.0,35378.4,0.8873,0.9271,135.0,98.1,0.477
27.68,32090.1,35261.4,0.4198,0.6398,135.0,98.1,0.477
27.7,32142.1,35182.6,0.6631,0.4464,135.0,98.1,0.477
27.72,32070.5,35131.6,0.3276,0.321,135.0,98.1,0.477
27.74,31977.9,34955.3,-0.1058,-0.1116,135.0,98.1,0.477
27.76,31925.7,34973.6,-0.3505,-0.0667,135.0,98.1,0.477
27.78,31906.7,34876.7,-0.4396,-0.3045,135.0,98.1,0.477
27.8,31887.4,34720.2,-0.5297,-0.6888,135.0,98.1,0.477
27.82,31793.2,34701.4,-0.971,-0.7349,135.0,98.1,0.477
27.84,31795.6,34650.3,-0.9596,-0.8604,135.0,98.1,0.477
27.86,31787.4,34555.6,-0.9982,-1.093,135.0,98.1,0.477
27.88,31810.6,34619.2,-0.8895,-0.9367,135.0,98.1,0.477
27.9,31841.1,34466.5,-0.7466,-1.3117,135.0,98.1,0.477
27.92,31845.4,34475.9,-0.7265,-1.2886,135.0,98.1,0.477
27.94,31723.7,34503.5,-1.2963,-1.2209,135.0,98.1,0.477
27.96,31835.1,34615.2,-0.7748,-0.9466,135.0,98.1,0.477
27.98,31966.5,34847.6,-0.1592,-0.3761,135.0,98.1,0.477
28.0,32088.4,35214.5,0.4114,0.5247,135.0,98.1,0.477
28.02,32223.3,35506.4,1.0436,1.2413,135.0,98.1,0.477
28.04,32343.8,35737.6,1.6079,1.8088,135.0,98.1,0.477
28.06,32416.2,35713.6,1.9469,1.75,135.0,98.1,0.477
28.08,32297.2,35584.0,1.3897,1.4319,135.0,98.1,0.477
28.1,32080.0,35416.9,0.3724,1.0214,135.0,98.1,0.477
28.12,32174.8,35185.1,0.8162,0.4524,135.0,98.1,0.477
28.14,32097.1,35174.2,0.4523,0.4257,135.0,98.1,0.477
28.16,32085.7,35105.9,0.399,0.2581,135.0,98.1,0.477
28.18,32017.2,35068.2,0.0782,0.1655,135.0,98.1,0.477
28.2,31938.3,34994.2,-0.2916,-0.0163,135.0,98.1,0.477
28.22,31974.4,34968.6,-0.1222,-0.0791,135.0,98.1,0.477
28.24,31919.2,34742.7,-0.381,-0.6337,135.0,98.1,0.477
28.26,31825.9,34776.8,-0.8177,-0.5498,135.0,98.1,0.477
28.28,31796.9,34709.9,-0.9536,-0.7142,135.0,98.1,0.477
28.3,31865.8,34695.3,-0.6312,-0.7499,135.0,98.1,0.477
28.32,31896.6,34690.7,-0.4865,-0.7612,135.0,98.1,0.477
28.34,31752.8,34585.2,-1.1602,-1.0203,135.0,98.1,0.477
28.36,31788.9,34419.7,-0.991,-1.4265,135.0,98.1,0.477
28.38,31748.7,34455.0,-1.1793,-1.3398,135.0,98.1,0.477
28.4,31801.7,34527.1,-0.9311,-1.163,135.0,98.1,0.477
28.42,31927.8,34797.9,-0.3406,-0.498,135.0,98.1,0.477
28.44,31999.2,35015.9,-0.0062,0.0371,135.0,98.1,0.477
28.46,32323.6,35461.4,1.5134,1.1308,135.0,98.1,0.477
28.48,32270.8,35733.7,1.2657,1.7992,135.0,98.1,0.477
28.5,32317.2,35725.3,1.4831,1.7786,135.0,98.1,0.477
28.52,32281.8,35642.4,1.3174,1.5751,135.0,98.1,0.477
28.54,32170.7,35560.5,0.7971,1.374,135.0,98.1,0.477
28.56,32174.7,35282.2,0.8157,0.6907,135.0,98.1,0.477
28.58,32180.5,35254.3,0.8429,0.6223,135.0,98.1,0.477
28.6,32010.4,35167.2,0.0462,0.4086,135.0,98.1,0.477
28.62,32045.8,35050.5,0.2121,0.122,135.0,98.1,0.477
28.64,32035.2,35037.4,0.1626,0.0898,135.0,98.1,0.477
28.66,31974.0,34932.6,-0.1241,-0.1674,135.0,98.1,0.477
28.68,31911.7,34746.2,-0.4161,-0.625,135.0,98.1,0.477
28.7,31897.2,34772.0,-0.484,-0.5616,135.0,98.1,0.477
28.72,31859.6,34700.1,-0.66,-0.7381,135.0,98.1,0.477
28.74,31856.6,34629.4,-0.6742,-0.9117,135.0,98.1,0.477
28.76,31909.5,34635.1,-0.4262,-0.8977,135.0,98.1,0.477
28.78,31778.7,34533.8,-1.0388,-1.1465,135.0,98.1,0.477
28.8,31696.1,34525.8,-1.4258,-1.1661,135.0,98.1,0.477
28.82,31738.7,34471.4,-1.2264,-1.2997,135.0,98.1,0.477
28.84,31788.4,34468.3,-0.9937,-1.3073,135.0,98.1,0.477
28.86,31838.9,34706.0,-0.757,-0.7237,135.0,98.1,0.477
28.88,32124.3,35069.3,0.5795,0.1681,135.0,98.1,0.477
28.9,32137.8,35418.2,0.6428,1.0247,135.0,98.1,0.477
28.92,32231.1,35644.8,1.0797,1.5812,135.0,98.1,0.477
28.94,32331.2,35717.6,1.549,1.7597,135.0,98.1,0.477
28.96,32295.4,35686.0,1.3809,1.6822,135.0,98.1,0.477
28.98,32268.2,35533.3,1.2536,1.3074,135.0,98.1,0.477
29.0,32115.2,35292.7,0.5369,0.7167,135.0,98.1,0.477
29.02,32063.3,35236.0,0.2941,0.5775,135.0,98.1,0.477
29.04,32089.3,35087.4,0.4158,0.2127,135.0,98.1,0.477
29.06,32067.7,35093.5,0.3146,0.2276,135.0,98.1,0.477
29.08,31983.7,34951.6,-0.0789,-0.1208,135.0,98.1,0.477
29.1,31948.4,34872.8,-0.2439,-0.3143,135.0,98.1,0.477
29.12,31973.3,34896.6,-0.1274,-0.2557,135.0,98.1,0.477
29.14,31741.3,34805.7,-1.2139,-0.4789,135.0,98.1,0.477
29.16,31784.0,34563.2,-1.014,-1.0744,135.0,98.1,0.477
29.18,31950.3,34757.3,-0.2351,-0.5977,135.0,98.1,0.477
29.2,31802.6,34589.7,-0.9268,-1.0091,135.0,98.1,0.477
29.22,31931.4,34638.5,-0.3239,-0.8894,135.0,98.1,0.477
29.24,31764.5,34485.2,-1.1054,-1.2658,135.0,98.1,0.477
29.26,31786.5,34482.4,-1.0025,-1.2726,135.0,98.1,0.477
29.28,31814.3,34499.2,-0.872,-1.2314,135.0,98.1,0.477
29.3,31830.2,34632.7,-0.7979,-0.9037,135.0,98.1,0.477
29.32,31957.5,35034.6,-0.2017,0.0829,135.0,98.1,0.477
29.34,32187.6,35348.7,0.876,0.854,135.0,98.1,0.477
29.36,32240.2,35627.8,1.1223,1.5392,135.0,98.1,0.477
29.38,32196.5,35713.5,0.9177,1.7497,135.0,98.1,0.477
29.4,32447.6,35697.0,2.094,1.7091,135.0,98.1,0.477
29.42,32349.2,35461.4,1.6329,1.1309,135.0,98.1,0.477
29.44,32204.8,35331.5,0.9566,0.812,135.0,98.1,0.477
29.46,32106.7,35230.8,0.4975,0.5648,135.0,98.1,0.477
29.48,32071.4,35069.9,0.3321,0.1695,135.0,98.1,0.477
29.5,32065.5,35079.3,0.3043,0.1928,135.0,98.1,0.477
29.52,32069.0,34988.6,0.3208,-0.03,135.0,98.1,0.477
29.54,31994.7,34929.9,-0.0272,-0.1741,135.0,98.1,0.477
29.56,31916.3,34799.5,-0.3944,-0.4941,135.0,98.1,0.477
29.58,31928.7,34770.9,-0.3362,-0.5643,135.0,98.1,0.477
29.6,31899.6,34702.1,-0.4729,-0.7332,135.0,98.1,0.477
29.62,31799.0,34660.2,-0.944,-0.8361,135.0,98.1,0.477
29.64,31919.1,34645.3,-0.3812,-0.8728,135.0,98.1,0.477
29.66,31905.3,34615.3,-0.4459,-0.9465,135.0,98.1,0.477
29.68,31828.5,34545.0,-0.8057,-1.1188,135.0,98.1,0.477
29.7,31836.3,34440.6,-0.7692,-1.3751,135.0,98.1,0.477
29.72,31762.7,34455.5,-1.1138,-1.3387,135.0,98.1,0.477
29.74,31868.7,34676.5,-0.6172,-0.796,135.0,98.1,0.477
29.76,31906.7,34784.3,-0.4395,-0.5315,135.0,98.1,0.477
29.78,32138.8,35152.2,0.6475,0.3717,135.0,98.1,0.477
29.8,32244.9,35533.9,1.1445,1.3087,135.0,98.1,0.477
29.82,32327.8,35732.1,1.5326,1.7952,135.0,98.1,0.477
29.84,32344.8,35752.0,1.6124,1.8443,135.0,98.1,0.477
29.86,32278.3,35630.2,1.3012,1.5453,135.0,98.1,0.477
29.88,32203.9,35510.7,0.9528,1.2517,135.0,98.1,0.477
29.9,32121.7,35281.8,0.5676,0.6898,135.0,98.1,0.477
29.92,32046.5,35170.5,0.2152,0.4166,135.0,98.1,0.477
29.94,32008.1,35221.4,0.0353,0.5417,135.0,98.1,0.477
29.96,31995.0,35089.3,-0.0258,0.2173,135.0,98.1,0.477
29.98,32004.7,35030.8,0.0194,0.0737,135.0,98.1,0.477
30.0,32024.5,34915.0,0.1123,-0.2107,135.0,98.1,0.477
30.02,31879.2,34804.0,-0.5684,-0.4832,135.0,98.1,0.477
30.04,31919.9,34701.0,-0.3778,-0.7359,135.0,98.1,0.477
30.06,31914.5,34599.6,-0.4029,-0.9848,135.0,98.1,0.477
30.08,31872.2,34758.6,-0.601,-0.5945,135.0,98.1,0.477
30.1,31806.9,34635.1,-0.907,-0.8978,135.0,98.1,0.477
30.12,31800.1,34544.3,-0.9388,-1.1208,135.0,98.1,0.477
30.14,31718.4,34469.0,-1.3214,-1.3056,135.0,98.1,0.477
30.16,31707.7,34458.0,-1.3716,-1.3325,135.0,98.1,0.477
30.18,31829.6,34629.1,-0.8005,-0.9125,135.0,98.1,0.477
30.2,31937.2,34831.4,-0.2965,-0.4159,135.0,98.1,0.477
30.22,32056.1,35242.6,0.2602,0.5936,135.0,98.1,0.477
30.24,32196.4,35445.6,0.9175,1.0921,135.0,98.1,0.477
30.26,32368.5,35690.8,1.7232,1.694,135.0,98.1,0.477
30.28,32216.6,35799.9,1.0119,1.9618,135.0,98.1,0.477
30.3,32358.0,35718.2,1.6741,1.7613,135.0,98.1,0.477
30.32,32264.8,35503.0,1.238,1.233,135.0,98.1,0.477
30.34,32116.1,35308.0,0.5415,0.7543,135.0,98.1,0.477
30.36,32101.7,35179.0,0.4738,0.4375,135.0,98.1,0.477
30.38,31989.5,35023.9,-0.0516,0.0568,135.0,98.1,0.477
30.4,31982.6,35075.9,-0.084,0.1843,135.0,98.1,0.477
30.42,31894.1,35052.4,-0.4987,0.1268,135.0,98.1,0.477
30.44,31987.4,34938.5,-0.0613,-0.1529,135.0,98.1,0.477
30.46,31837.6,34746.0,-0.7631,-0.6256,135.0,98.1,0.477
30.48,31853.9,34700.4,-0.6869,-0.7375,135.0,98.1,0.477
30.5,31891.1,34641.1,-0.5126,-0.8831,135.0,98.1,0.477
30.52,31830.3,34631.3,-0.7971,-0.907,135.0,98.1,0.477
30.54,31836.9,34541.2,-0.7661,-1.1282,135.0,98.1,0.477
30.56,31756.1,34533.3,-1.1449,-1.1477,135.0,98.1,0.477
30.58,31761.5,34508.9,-1.1196,-1.2075,135.0,98.1,0.477
30.6,31726.9,34382.9,-1.2817,-1.5169,135.0,98.1,0.477
30.62,31794.8,34499.4,-0.9635,-1.2309,135.0,98.1,0.477
30.64,31862.9,34751.3,-0.6444,-0.6126,135.0,98.1,0.477
30.66,31979.3,35155.0,-0.0996,0.3786,135.0,98.1,0.477
30.68,32172.7,35436.1,0.8064,1.0687,135.0,98.1,0.477
30.7,32286.6,35577.6,1.3397,1.4161,135.0,98.1,0.477
30.72,32396.2,35724.3,1.853,1.7763,135.0,98.1,0.477
30.74,32375.7,35669.7,1.7574,1.6422,135.0,98.1,0.477
30.76,32282.0,35568.9,1.3182,1.3947,135.0,98.1,0.477
30.78,32109.7,35321.7,0.5111,0.7879,135.0,98.1,0.477
30.8,32165.9,35166.5,0.7744,0.4069,135.0,98.1,0.477
30.82,32110.4,35137.3,0.5145,0.335,135.0,98.1,0.477
30.84,31950.1,35082.2,-0.2363,0.1999,135.0,98.1,0.477
30.86,31890.9,35049.3,-0.5134,0.119,135.0,98.1,0.477
30.88,31921.6,34922.1,-0.3696,-0.1931,135.0,98.1,0.477
30.9,31859.1,34845.8,-0.6624,-0.3804,135.0,98.1,0.477
30.92,31941.6,34721.7,-0.2761,-0.6852,135.0,98.1,0.477
30.94,31951.5,34658.6,-0.2298,-0.84,135.0,98.1,0.477
30.96,31893.0,34642.5,-0.5035,-0.8795,135.0,98.1,0.477
30.98,31848.8,34669.5,-0.7108,-0.8133,135.0,98.1,0.477
31.0,31857.5,34563.4,-0.67,-1.0739,135.0,98.1,0.477
31.02,31809.8,34500.8,-0.8931,-1.2275,135.0,98.1,0.477
31.04,31766.2,34423.4,-1.0975,-1.4174,135.0,98.1,0.477
31.06,31726.7,34538.8,-1.2823,-1.1343,135.0,98.1,0.477
31.08,31868.9,34695.5,-0.6165,-0.7495,135.0,98.1,0.477
31.1,32025.5,34989.9,0.1171,-0.0268,135.0,98.1,0.477
31.12,32133.6,35336.2,0.6231,0.8234,135.0,98.1,0.477
31.14,32321.6,35575.6,1.5036,1.411,135.0,98.1,0.477
31.16,32349.6,35822.7,1.635,2.0178,135.0,98.1,0.477
31.18,32301.0,35737.3,1.4073,1.8082,135.0,98.1,0.477
31.2,32223.4,35582.7,1.0437,1.4285,135.0,98.1,0.477
31.22,32166.7,35296.2,0.7783,0.7252,135.0,98.1,0.477
31.24,32152.7,35186.9,0.7127,0.4568,135.0,98.1,0.477
31.26,32029.8,35104.3,0.1372,0.2541,135.0,98.1,0.477
31.28,32075.7,35102.7,0.3523,0.2502,135.0,98.1,0.477
31.3,32069.7,34982.3,0.324,-0.0454,135.0,98.1,0.477
31.32,31960.9,35036.5,-0.1855,0.0878,135.0,98.1,0.477
31.34,31941.2,34860.8,-0.278,-0.3437,135.0,98.1,0.477
31.36,31947.7,34683.5,-0.2476,-0.7789,135.0,98.1,0.477
31.38,31893.0,34651.4,-0.5034,-0.8577,135.0,98.1,0.477
31.4,31826.8,34644.2,-0.8135,-0.8755,135.0,98.1,0.477
31.42,31820.6,34616.9,-0.8427,-0.9424,135.0,98.1,0.477
31.44,31864.2,34637.0,-0.6384,-0.8932,135.0,98.1,0.477
31.46,31791.1,34511.5,-0.981,-1.2011,135.0,98.1,0.477
31.48,31750.5,34423.1,-1.1708,-1.4182,135.0,98.1,0.477
31.5,31722.1,34422.4,-1.3042,-1.4199,135.0,98.1,0.477
31.52,31859.3,34623.8,-0.6612,-0.9254,135.0,98.1,0.477
31.54,31972.0,34899.8,-0.1338,-0.248,135.0,98.1,0.477
31.56,32132.0,35303.0,0.6156,0.742,135.0,98.1,0.477
31.58,32200.9,35569.6,0.9385,1.3964,135.0,98.1,0.477
31.6,32270.0,35710.2,1.2619,1.7416,135.0,98.1,0.477
31.62,32405.2,35787.7,1.8955,1.9318,135.0,98.1,0.477
31.64,32200.8,35521.9,0.9378,1.2794,135.0,98.1,0.477
31.66,32194.8,35437.6,0.9098,1.0725,135.0,98.1,0.477
31.68,32075.7,35297.1,0.3521,0.7274,135.0,98.1,0.477
31.7,32077.0,35101.0,0.3583,0.246,135.0,98.1,0.477
31.72,31976.2,35090.2,-0.1139,0.2194,135.0,98.1,0.477
31.74,32070.9,35083.5,0.3298,0.203,135.0,98.1,0.477
31.76,31895.4,34971.6,-0.4923,-0.0717,135.0,98.1,0.477
31.78,31950.7,34915.7,-0.2335,-0.209,135.0,98.1,0.477
31.8,31923.4,34713.0,-0.3614,-0.7066,135.0,98.1,0.477
31.82,31839.2,34675.0,-0.7557,-0.7999,135.0,98.1,0.477
31.84,31823.4,34636.4,-0.8295,-0.8945,135.0,98.1,0.477
31.86,31810.4,34623.8,-0.8903,-0.9254,135.0,98.1,0.477
31.88,31851.1,34667.9,-0.6997,-0.8172,135.0,98.1,0.477
31.9,31758.6,34531.4,-1.1331,-1.1524,135.0,98.1,0.477
31.92,31842.7,34447.8,-0.7392,-1.3575,135.0,98.1,0.477
31.94,31745.3,34436.9,-1.1954,-1.3844,135.0,98.1,0.477
31.96,31875.6,34564.6,-0.585,-1.0709,135.0,98.1,0.477
31.98,31944.5,34780.4,-0.2622,-0.5411,135.0,98.1,0.477
32.0,32019.0,35120.6,0.0866,0.2942,135.0,98.1,0.477
32.02,32265.3,35512.0,1.2402,1.2551,135.0,98.1,0.477
32.04,32281.9,35683.0,1.3179,1.6749,135.0,98.1,0.477
32.06,32415.9,35668.7,1.9455,1.6396,135.0,98.1,0.477
32.08,32249.8,35591.3,1.1677,1.4497,135.0,98.1,0.477
32.1,32209.6,35382.9,0.979,0.9381,135.0,98.1,0.477
32.12,32124.3,35291.6,0.5798,0.7138,135.0,98.1,0.477
32.14,32104.0,35211.5,0.4845,0.5174,135.0,98.1,0.477
32.16,31986.5,35088.9,-0.0659,0.2162,135.0,98.1,0.477
32.18,32060.9,35079.4,0.2827,0.1931,135.0,98.1,0.477
32.2,31932.3,34900.8,-0.3193,-0.2456,135.0,98.1,0.477
32.22,31869.5,34863.8,-0.6138,-0.3362,135.0,98.1,0.477
32.24,31873.2,34797.1,-0.5961,-0.4999,135.0,98.1,0.477
32.26,31822.9,34745.6,-0.832,-0.6265,135.0,98.1,0.477
32.28,31839.3,34638.0,-0.7553,-0.8906,135.0,98.1,0.477
32.3,31864.2,34761.3,-0.6385,-0.5879,135.0,98.1,0.477
32.32,31897.1,34578.9,-0.4845,-1.0358,135.0,98.1,0.477
32.34,31789.6,34526.9,-0.988,-1.1634,135.0,98.1,0.477
32.36,31735.8,34471.5,-1.24,-1.2993,135.0,98.1,0.477
32.38,31779.1,34435.0,-1.0371,-1.389,135.0,98.1,0.477
32.4,31831.5,34596.5,-0.7918,-0.9925,135.0,98.1,0.477
32.42,31907.5,34682.4,-0.4358,-0.7817,135.0,98.1,0.477
32.44,32111.5,35160.4,0.5196,0.3918,135.0,98.1,0.477
32.46,32165.6,35550.2,0.7734,1.3489,135.0,98.1,0.477
32.48,32321.0,35655.2,1.501,1.6065,135.0,98.1,0.477
32.5,32349.7,35828.8,1.6356,2.0327,135.0,98.1,0.477
32.52,32312.2,35686.3,1.4598,1.683,135.0,98.1,0.477
32.54,32141.6,35465.2,0.6606,1.1402,135.0,98.1,0.477
32.56,32139.5,35243.4,0.6511,0.5957,135.0,98.1,0.477
32.58,32188.2,35236.4,0.8792,0.5785,135.0,98.1,0.477
32.6,32048.6,35080.2,0.2251,0.1949,135.0,98.1,0.477
32.62,32000.0,35019.3,-0.0024,0.0454,135.0,98.1,0.477
32.64,32013.5,35048.7,0.061,0.1176,135.0,98.1,0.477
32.66,32006.5,34854.5,0.0279,-0.3592,135.0,98.1,0.477
32.68,31952.2,34880.5,-0.2261,-0.2954,135.0,98.1,0.477
32.7,31887.6,34688.0,-0.5287,-0.768,135.0,98.1,0.477
32.72,31882.8,34696.0,-0.5512,-0.7484,135.0,98.1,0.477
32.74,31860.1,34634.0,-0.6578,-0.9004,135.0,98.1,0.477
32.76,31857.3,34693.8,-0.6709,-0.7537,135.0,98.1,0.477
32.78,31820.6,34563.5,-0.8426,-1.0735,135.0,98.1,0.477
32.8,31789.3,34473.9,-0.9893,-1.2935,135.0,98.1,0.477
32.82,31862.9,34307.7,-0.6447,-1.7015,135.0,98.1,0.477
32.84,31753.9,34491.7,-1.1552,-1.2497,135.0,98.1,0.477
32.86,31889.9,34727.9,-0.5179,-0.6698,135.0,98.1,0.477
32.88,31953.1,35039.7,-0.2223,0.0954,135.0,98.1,0.477
32.9,32108.1,35383.7,0.5039,0.94,135.0,98.1,0.477
32.92,32265.9,35644.5,1.2428,1.5804,135.0,98.1,0.477
32.94,32311.2,35722.0,1.4549,1.7706,135.0,98.1,0.477
32.96,32375.0,35753.7,1.7537,1.8483,135.0,98.1,0.477
32.98,32296.2,35564.2,1.3849,1.3831,135.0,98.1,0.477
33.0,32075.0,35381.6,0.349,0.9349,135.0,98.1,0.477
33.02,32059.4,35185.1,0.2758,0.4524,135.0,98.1,0.477
33.04,32132.5,35116.7,0.6183,0.2845,135.0,98.1,0.477
33.06,32055.4,35133.1,0.2571,0.3249,135.0,98.1,0.477
33.08,32024.1,35157.3,0.1106,0.3842,135.0,98.1,0.477
33.1,31927.3,34923.3,-0.3429,-0.1902,135.0,98.1,0.477
33.12,31850.1,34684.4,-0.7043,-0.7768,135.0,98.1,0.477
33.14,32003.3,34655.8,0.0131,-0.8471,135.0,98.1,0.477
33.16,31809.4,34658.0,-0.8949,-0.8416,135.0,98.1,0.477
33.18,31810.6,34672.0,-0.8896,-0.8072,135.0,98.1,0.477
33.2,31833.0,34594.2,-0.7846,-0.9982,135.0,98.1,0.477
33.22,31846.9,34613.0,-0.7197,-0.952,135.0,98.1,0.477
33.24,31791.9,34476.7,-0.9771,-1.2867,135.0,98.1,0.477
33.26,31711.7,34428.5,-1.3526,-1.4049,135.0,98.1,0.477
33.28,31779.8,34536.2,-1.0338,-1.1405,135.0,98.1,0.477
33.3,31883.3,34680.6,-0.5492,-0.7861,135.0,98.1,0.477
33.32,31989.4,34950.2,-0.052,-0.1241,135.0,98.1,0.477
33.34,32122.4,35368.0,0.5706,0.9014,135.0,98.1,0.477
33.36,32267.4,35690.4,1.2498,1.6929,135.0,98.1,0.477
33.38,32289.9,35750.7,1.3555,1.841,135.0,98.1,0.477
33.4,32219.9,35664.7,1.0277,1.6298,135.0,98.1,0.477
33.42,32222.1,35596.4,1.0379,1.4622,135.0,98.1,0.477
33.44,32171.9,35280.8,0.8026,0.6873,135.0,98.1,0.477
33.46,32021.1,35222.1,0.0964,0.5433,135.0,98.1,0.477
33.48,32139.4,35216.3,0.6504,0.529,135.0,98.1,0.477
33.5,32049.9,35088.9,0.2311,0.2163,135.0,98.1,0.477
33.52,32111.5,35074.9,0.5198,0.1819,135.0,98.1,0.477
33.54,31992.5,35006.8,-0.0377,0.0147,135.0,98.1,0.477
33.56,31899.6,34880.0,-0.4725,-0.2965,135.0,98.1,0.477
33.58,31952.6,34733.8,-0.2246,-0.6555,135.0,98.1,0.477
33.6,31849.3,34781.6,-0.7084,-0.5382,135.0,98.1,0.477
33.62,31909.4,34700.9,-0.4269,-0.7362,135.0,98.1,0.477
33.64,31796.2,34551.8,-0.9569,-1.1023,135.0,98.1,0.477
33.66,31794.0,34638.7,-0.9673,-0.8889,135.0,98.1,0.477
33.68,31657.7,34550.4,-1.6055,-1.1057,135.0,98.1,0.477
33.7,31866.4,34411.8,-0.6282,-1.4461,135.0,98.1,0.477
33.72,31782.5,34484.0,-1.021,-1.2687,135.0,98.1,0.477
33.74,31763.0,34712.5,-1.1126,-0.7079,135.0,98.1,0.477
33.76,31962.4,34792.4,-0.1783,-0.5115,135.0,98.1,0.477
33.78,32060.9,35306.5,0.2828,0.7505,135.0,98.1,0.477
33.8,32192.6,35567.8,0.8995,1.392,135.0,98.1,0.477
33.82,32321.2,35782.2,1.5018,1.9183,135.0,98.1,0.477
33.84,32186.5,35735.5,0.8708,1.8037,135.0,98.1,0.477
33.86,32182.3,35636.1,0.8514,1.5597,135.0,98.1,0.477
33.88,32113.5,35420.1,0.5292,1.0295,135.0,98.1,0.477
33.9,32112.1,35194.5,0.5225,0.4755,135.0,98.1,0.477
33.92,32102.2,35060.3,0.4761,0.1462,135.0,98.1,0.477
33.94,32068.7,35064.8,0.3191,0.157,135.0,98.1,0.477
33.96,31971.2,35021.4,-0.1372,0.0507,135.0,98.1,0.477
33.98,32055.9,34968.5,0.2594,-0.0793,135.0,98.1,0.477
34.0,31913.6,34898.2,-0.4071,-0.2519,135.0,98.1,0.477
34.02,32037.8,34782.8,0.1745,-0.5352,135.0,98.1,0.477
34.04,31956.2,34727.9,-0.2074,-0.67,135.0,98.1,0.477
34.06,31932.4,34616.8,-0.3189,-0.9427,135.0,98.1,0.477
34.08,31841.1,34668.6,-0.7468,-0.8155,135.0,98.1,0.477
34.1,31805.6,34550.2,-0.9129,-1.1063,135.0,98.1,0.477
34.12,31796.2,34534.5,-0.957,-1.1447,135.0,98.1,0.477
34.14,31766.2,34513.3,-1.0976,-1.1968,135.0,98.1,0.477
34.16,31691.0,34412.8,-1.4497,-1.4434,135.0,98.1,0.477
34.18,31839.9,34500.0,-0.7522,-1.2295,135.0,98.1,0.477
34.2,31903.2,34840.6,-0.4558,-0.3932,135.0,98.1,0.477
34.22,32010.1,35171.0,0.0447,0.4178,135.0,98.1,0.477
34.24,32186.3,35455.3,0.87,1.1157,135.0,98.1,0.477
34.26,32359.6,35731.5,1.6818,1.7938,135.0,98.1,0.477
34.28,32323.0,35791.9,1.5105,1.9422,135.0,98.1,0.477
34.3,32284.2,35638.3,1.3288,1.5652,135.0,98.1,0.477
34.32,32156.0,35425.5,0.7284,1.0426,135.0,98.1,0.477
34.34,32125.8,35280.8,0.5866,0.6873,135.0,98.1,0.477
34.36,32126.2,35206.7,0.5887,0.5054,135.0,98.1,0.477
34.38,32056.5,35092.1,0.2621,0.224,135.0,98.1,0.477
34.4,31969.9,35104.5,-0.1436,0.2546,135.0,98.1,0.477
34.42,32019.6,35058.2,0.0893,0.1409,135.0,98.1,0.477
34.44,31963.4,34930.0,-0.1737,-0.1737,135.0,98.1,0.477
34.46,31870.8,34795.9,-0.6077,-0.503,135.0,98.1,0.477
34.48,31996.0,34722.9,-0.0211,-0.6823,135.0,98.1,0.477
34.5,31897.1,34720.1,-0.4844,-0.689,135.0,98.1,0.477
34.52,31877.4,34574.3,-0.5767,-1.047,135.0,98.1,0.477
34.54,31811.0,34573.9,-0.8878,-1.048,135.0,98.1,0.477
34.56,31704.1,34539.8,-1.3883,-1.1318,135.0,98.1,0.477
34.58,31755.4,34479.4,-1.1481,-1.2801,135.0,98.1,0.477
34.6,31766.5,34415.8,-1.096,-1.4361,135.0,98.1,0.477
34.62,31735.0,34600.9,-1.2436,-0.9816,135.0,98.1,0.477
34.64,31961.1,34778.9,-0.1847,-0.5447,135.0,98.1,0.477
34.66,32001.0,35053.7,0.0021,0.1299,135.0,98.1,0.477
34.68,32155.6,35379.9,0.7265,0.9308,135.0,98.1,0.477
34.7,32351.4,35715.4,1.6432,1.7543,135.0,98.1,0.477
34.72,32275.8,35717.5,1.2895,1.7594,135.0,98.1,0.477
34.74,32290.2,35670.6,1.3567,1.6443,135.0,98.1,0.477
34.76,32194.1,35520.0,0.9067,1.2747,135.0,98.1,0.477
34.78,32154.4,35304.7,0.7205,0.7462,135.0,98.1,0.477
34.8,32063.2,35178.4,0.2934,0.436,135.0,98.1,0.477
34.82,32016.3,35180.4,0.0741,0.4409,135.0,98.1,0.477
34.84,32041.5,35043.7,0.1919,0.1054,135.0,98.1,0.477
34.86,32013.7,35078.7,0.0618,0.1913,135.0,98.1,0.477
34.88,32011.4,35008.5,0.0511,0.019,135.0,98.1,0.477
34.9,31824.0,34809.6,-0.8266,-0.4695,135.0,98.1,0.477
34.92,31933.1,34722.1,-0.3156,-0.6843,135.0,98.1,0.477
34.94,31813.7,34600.3,-0.8752,-0.9832,135.0,98.1,0.477
34.96,31916.5,34727.7,-0.3933,-0.6703,135.0,98.1,0.477
34.98,31846.7,34649.9,-0.7203,-0.8613,135.0,98.1,0.477
35.0,31807.9,34551.8,-0.9021,-1.1022,135.0,98.1,0.477
35.02,31679.2,34504.9,-1.505,-1.2175,135.0,98.1,0.477
35.04,31746.5,34442.3,-1.1899,-1.371,135.0,98.1,0.477
35.06,31757.7,34480.6,-1.1371,-1.277,135.0,98.1,0.477
35.08,31797.9,34748.1,-0.9488,-0.6203,135.0,98.1,0.477
35.1,32021.2,34983.4,0.0967,-0.0428,135.0,98.1,0.477
35.12,32111.0,35303.7,0.5175,0.7436,135.0,98.1,0.477
35.14,32296.6,35607.5,1.3866,1.4895,135.0,98.1,0.477
35.16,32333.9,35718.1,1.5612,1.7611,135.0,98.1,0.477
35.18,32355.6,35739.6,1.6629,1.8138,135.0,98.1,0.477
35.2,32272.5,35506.4,1.2738,1.2414,135.0,98.1,0.477
35.22,32179.1,35406.3,0.8362,0.9956,135.0,98.1,0.477
35.24,32138.4,35163.1,0.646,0.3984,135.0,98.1,0.477
35.26,31981.7,35165.0,-0.088,0.4031,135.0,98.1,0.477
35.28,31979.9,35070.2,-0.0964,0.1703,135.0,98.1,0.477
35.3,31903.6,34988.7,-0.4539,-0.0297,135.0,98.1,0.477
35.32,32056.5,34859.9,0.2621,-0.3458,135.0,98.1,0.477
35.34,31857.7,34788.8,-0.669,-0.5204,135.0,98.1,0.477
35.36,32035.4,34771.6,0.1636,-0.5627,135.0,98.1,0.477
35.38,31834.5,34692.2,-0.7776,-0.7575,135.0,98.1,0.477
35.4,31826.6,34606.2,-0.8145,-0.9687,135.0,98.1,0.477
35.42,31788.5,34604.9,-0.9932,-0.972,135.0,98.1,0.477
35.44,31790.7,34685.8,-0.9829,-0.7732,135.0,98.1,0.477
35.46,31750.7,34526.5,-1.1702,-1.1643,135.0,98.1,0.477
35.48,31840.8,34376.8,-0.7482,-1.532,135.0,98.1,0.477
35.5,31692.5,34489.9,-1.4428,-1.2541,135.0,98.1,0.477
35.52,31855.3,34584.1,-0.6801,-1.0229,135.0,98.1,0.477
35.54,31974.1,34892.1,-0.1236,-0.2667,135.0,98.1,0.477
35.56,32159.6,35249.2,0.745,0.6099,135.0,98.1,0.477
35.58,32247.3,35501.0,1.1556,1.2279,135.0,98.1,0.477
35.6,32336.9,35652.4,1.5753,1.5997,135.0,98.1,0.477
35.62,32324.9,35699.3,1.519,1.7148,135.0,98.1,0.477
35.64,32324.3,35597.4,1.5164,1.4647,135.0,98.1,0.477
35.66,32136.5,35468.1,0.637,1.1473,135.0,98.1,0.477
35.68,31972.5,35233.5,-0.1315,0.5713,135.0,98.1,0.477
35.7,32071.5,35140.5,0.3326,0.343,135.0,98.1,0.477
35.72,32031.7,35077.7,0.146,0.1889,135.0,98.1,0.477
35.74,32030.0,34972.9,0.138,-0.0685,135.0,98.1,0.477
35.76,31988.9,34928.2,-0.0547,-0.1782,135.0,98.1,0.477
35.78,31905.9,34895.1,-0.4431,-0.2594,135.0,98.1,0.477
35.8,31818.6,34767.6,-0.8519,-0.5724,135.0,98.1,0.477
35.82,31853.9,34761.4,-0.6869,-0.5876,135.0,98.1,0.477
35.84,31798.7,34691.4,-0.9452,-0.7595,135.0,98.1,0.477
35.86,31901.5,34653.6,-0.4637,-0.8524,135.0,98.1,0.477
35.88,31749.0,34561.9,-1.1778,-1.0775,135.0,98.1,0.477
35.9,31924.6,34622.9,-0.3554,-0.9276,135.0,98.1,0.477
35.92,31716.5,34401.8,-1.3305,-1.4704,135.0,98.1,0.477
35.94,31795.1,34438.5,-0.9621,-1.3805,135.0,98.1,0.477
35.96,31795.4,34621.8,-0.9606,-0.9303,135.0,98.1,0.477
35.98,31909.4,34890.3,-0.4267,-0.2713,135.0,98.1,0.477
36.0,32095.1,35229.1,0.443,0.5605,135.0,98.1,0.477
36.02,32202.1,35578.0,0.9442,1.417,135.0,98.1,0.477
36.04,32303.6,35661.9,1.4196,1.6229,135.0,98.1,0.477
36.06,32344.1,35717.3,1.6091,1.7589,135.0,98.1,0.477
36.08,32256.5,35631.6,1.1987,1.5487,135.0,98.1,0.477
36.1,32208.8,35423.0,0.9753,1.0365,135.0,98.1,0.477
36.12,32125.0,35261.0,0.5832,0.6388,135.0,98.1,0.477
36.14,32102.4,35160.2,0.477,0.3913,135.0,98.1,0.477
36.16,32063.5,35022.4,0.2949,0.053,135.0,98.1,0.477
36.18,32015.7,35144.7,0.0709,0.3533,135.0,98.1,0.477
36.2,32029.0,34935.1,0.1336,-0.1612,135.0,98.1,0.477
36.22,31839.4,34909.1,-0.7545,-0.2251,135.0,98.1,0.477
36.24,31920.6,34770.1,-0.3742,-0.5663,135.0,98.1,0.477
36.26,31900.6,34766.9,-0.4682,-0.5741,135.0,98.1,0.477
36.28,31915.7,34639.7,-0.3972,-0.8865,135.0,98.1,0.477
36.3,31769.2,34731.0,-1.0835,-0.6623,135.0,98.1,0.477
36.32,31786.8,34663.3,-1.0009,-0.8285,135.0,98.1,0.477
36.34,31834.8,34529.8,-0.7762,-1.1563,135.0,98.1,0.477
36.36,31781.5,34450.0,-1.0257,-1.3521,135.0,98.1,0.477
36.38,31724.4,34463.3,-1.2934,-1.3196,135.0,98.1,0.477
36.4,31749.4,34540.6,-1.1759,-1.1297,135.0,98.1,0.477
36.42,31906.0,34719.9,-0.4425,-0.6896,135.0,98.1,0.477
36.44,32162.4,35054.6,0.7584,0.1322,135.0,98.1,0.477
36.46,32141.6,35415.0,0.6605,1.0168,135.0,98.1,0.477
36.48,32263.3,35679.2,1.2308,1.6656,135.0,98.1,0.477
36.5,32335.1,35742.2,1.5672,1.8202,135.0,98.1,0.477
36.52,32347.1,35641.3,1.6234,1.5725,135.0,98.1,0.477
36.54,32284.7,35531.8,1.3309,1.3036,135.0,98.1,0.477
36.56,32170.4,35300.5,0.7958,0.7357,135.0,98.1,0.477
36.58,31980.7,35158.8,-0.0931,0.3879,135.0,98.1,0.477
36.6,32053.9,35075.3,0.2501,0.1829,135.0,98.1,0.477
36.62,32035.2,35026.2,0.1625,0.0624,135.0,98.1,0.477
36.64,32089.9,35057.0,0.4186,0.1379,135.0,98.1,0.477
36.66,31919.1,34857.9,-0.3814,-0.3509,135.0,98.1,0.477
36.68,31978.2,34772.7,-0.1044,-0.5601,135.0,98.1,0.477
36.7,31861.4,34735.6,-0.6514,-0.651,135.0,98.1,0.477
36.72,31852.0,34694.5,-0.6956,-0.752,135.0,98.1,0.477
36.74,31877.2,34690.8,-0.5775,-0.7609,135.0,98.1,0.477
36.76,31955.0,34583.5,-0.2132,-1.0245,135.0,98.1,0.477
36.78,31900.2,34636.7,-0.4697,-0.8939,135.0,98.1,0.477
36.8,31778.0,34476.4,-1.0423,-1.2874,135.0,98.1,0.477
36.82,31736.5,34435.9,-1.2366,-1.3869,135.0,98.1,0.477
36.84,31768.2,34513.1,-1.0882,-1.1974,135.0,98.1,0.477
36.86,31834.8,34689.4,-0.7764,-0.7645,135.0,98.1,0.477
36.88,32012.4,35117.6,0.0554,0.2868,135.0,98.1,0.477
36.9,32206.9,35355.0,0.9668,0.8695,135.0,98.1,0.477
36.92,32205.5,35590.2,0.9601,1.447,135.0,98.1,0.477
36.94,32363.3,35783.0,1.6991,1.9204,135.0,98.1,0.477
36.96,32352.7,35715.1,1.6496,1.7537,135.0,98.1,0.477
36.98,32163.6,35589.4,0.7639,1.445,135.0,98.1,0.477
37.0,32175.9,35299.4,0.8215,0.7331,135.0,98.1,0.477
37.02,32115.2,35177.4,0.537,0.4335,135.0,98.1,0.477
37.04,32082.5,35128.4,0.3839,0.3132,135.0,98.1,0.477
37.06,32002.4,35087.5,0.0087,0.2128,135.0,98.1,0.477
37.08,31989.9,35045.4,-0.0498,0.1094,135.0,98.1,0.477
37.1,31963.9,34961.2,-0.1717,-0.0973,135.0,98.1,0.477
37.12,31879.7,34791.1,-0.5658,-0.5147,135.0,98.1,0.477
37.14,31781.2,34673.6,-1.0273,-0.8033,135.0,98.1,0.477
37.16,31757.8,34697.8,-1.1369,-0.7439,135.0,98.1,0.477
37.18,31811.1,34643.2,-0.8871,-0.878,135.0,98.1,0.477
37.2,31733.3,34719.7,-1.2517,-0.6902,135.0,98.1,0.477
37.22,31799.2,34714.0,-0.943,-0.7042,135.0,98.1,0.477
37.24,31710.1,34509.0,-1.3601,-1.2073,135.0,98.1,0.477
37.26,31706.1,34434.4,-1.3792,-1.3905,135.0,98.1,0.477
37.28,31762.6,34473.8,-1.1141,-1.2937,135.0,98.1,0.477
37.3,31827.8,34642.0,-0.809,-0.8807,135.0,98.1,0.477
37.32,32110.9,34890.6,0.5169,-0.2704,135.0,98.1,0.477
37.34,32077.3,35284.2,0.3595,0.6958,135.0,98.1,0.477
37.36,32209.3,35580.6,0.978,1.4234,135.0,98.1,0.477
37.38,32385.8,35750.1,1.8046,1.8395,135.0,98.1,0.477
37.4,32336.2,35764.8,1.572,1.8758,135.0,98.1,0.477
37.42,32259.0,35564.7,1.2108,1.3843,135.0,98.1,0.477
37.44,32177.2,35338.1,0.8274,0.8282,135.0,98.1,0.477
37.46,32176.2,35126.0,0.8229,0.3073,135.0,98.1,0.477
37.48,32003.2,35185.4,0.0125,0.4531,135.0,98.1,0.477
37.5,31963.5,35094.7,-0.1732,0.2306,135.0,98.1,0.477
37.52,31995.2,34956.8,-0.025,-0.1079,135.0,98.1,0.477
37.54,31995.7,34992.2,-0.0228,-0.0211,135.0,98.1,0.477
37.56,31949.6,34867.1,-0.2383,-0.3282,135.0,98.1,0.477
37.58,31841.7,34688.0,-0.7439,-0.7679,135.0,98.1,0.477
37.6,31866.5,34705.7,-0.6276,-0.7244,135.0,98.1,0.477
37.62,31939.8,34669.4,-0.2842,-0.8135,135.0,98.1,0.477
37.64,31821.2,34647.4,-0.84,-0.8677,135.0,98.1,0.477
37.66,31847.5,34641.8,-0.7169,-0.8813,135.0,98.1,0.477
37.68,31814.3,34577.0,-0.8722,-1.0405,135.0,98.1,0.477
37.7,31861.4,34482.6,-0.6518,-1.2721,135.0,98.1,0.477
37.72,31816.5,34422.3,-0.8621,-1.4201,135.0,98.1,0.477
37.74,31748.1,34528.4,-1.1824,-1.1596,135.0,98.1,0.477
37.76,31973.7,34927.8,-0.1257,-0.1793,135.0,98.1,0.477
37.78,32000.0,35242.7,-0.0026,0.5939,135.0,98.1,0.477
37.8,32295.5,35522.8,1.3816,1.2815,135.0,98.1,0.477
37.82,32380.8,35720.2,1.7809,1.7661,135.0,98.1,0.477
37.84,32315.4,35749.3,1.4749,1.8377,135.0,98.1,0.477
37.86,32168.6,35716.9,0.7873,1.7581,135.0,98.1,0.477
37.88,32236.7,35391.1,1.1062,0.9583,135.0,98.1,0.477
37.9,32117.7,35359.7,0.5486,0.881,135.0,98.1,0.477
37.92,32118.3,35159.2,0.5516,0.389,135.0,98.1,0.477
37.94,32150.7,35254.1,0.7032,0.6218,135.0,98.1,0.477
37.96,32110.4,35083.7,0.5148,0.2036,135.0,98.1,0.477
37.98,32025.3,34969.2,0.116,-0.0775,135.0,98.1,0.477
38.0,32009.7,34839.2,0.0431,-0.3966,135.0,98.1,0.477
38.02,31848.0,34778.5,-0.7146,-0.5456,135.0,98.1,0.477
38.04,31872.9,34729.0,-0.5975,-0.6673,135.0,98.1,0.477
38.06,31780.3,34619.8,-1.0315,-0.9353,135.0,98.1,0.477
38.08,31832.2,34641.9,-0.7882,-0.8812,135.0,98.1,0.477
38.1,31744.5,34617.0,-1.1989,-0.9422,135.0,98.1,0.477
38.12,31898.0,34509.6,-0.4801,-1.2058,135.0,98.1,0.477
38.14,31760.7,34480.3,-1.1235,-1.2777,135.0,98.1,0.477
38.16,31709.6,34342.1,-1.3627,-1.6172,135.0,98.1,0.477
38.18,31850.3,34609.1,-0.7036,-0.9615,135.0,98.1,0.477
38.2,31917.0,34911.8,-0.3911,-0.2185,135.0,98.1,0.477
38.22,32074.1,35183.1,0.3445,0.4477,135.0,98.1,0.477
38.24,32191.7,35474.5,0.8953,1.163,135.0,98.1,0.477
38.26,32201.8,35769.8,0.9426,1.888,135.0,98.1,0.477
38.28,32317.4,35701.8,1.484,1.7209,135.0,98.1,0.477
38.3,32361.2,35680.7,1.6891,1.6691,135.0,98.1,0.477
38.32,32221.4,35440.9,1.0345,1.0804,135.0,98.1,0.477
38.34,32187.1,35232.5,0.8739,0.5689,135.0,98.1,0.477
38.36,32052.0,35144.6,0.241,0.3529,135.0,98.1,0.477
38.38,32117.4,35146.3,0.5472,0.3572,135.0,98.1,0.477
38.4,32132.1,34998.8,0.6163,-0.0048,135.0,98.1,0.477
38.42,31941.8,34959.2,-0.2752,-0.1022,135.0,98.1,0.477
38.44,31995.9,34932.0,-0.0217,-0.1688,135.0,98.1,0.477
38.46,31862.4,34780.8,-0.6469,-0.5401,135.0,98.1,0.477
38.48,31918.4,34729.2,-0.3846,-0.6667,135.0,98.1,0.477
38.5,31786.5,34554.8,-1.0025,-1.0948,135.0,98.1,0.477
38.52,31904.9,34602.3,-0.448,-0.9783,135.0,98.1,0.477
38.54,31804.6,34616.7,-0.9175,-0.943,135.0,98.1,0.477
38.56,31819.2,34487.9,-0.8491,-1.259,135.0,98.1,0.477
38.58,31706.4,34510.3,-1.3775,-1.2041,135.0,98.1,0.477
38.6,31820.4,34560.0,-0.8436,-1.0821,135.0,98.1,0.477
38.62,31789.6,34453.5,-0.9879,-1.3436,135.0,98.1,0.477
38.64,31864.6,34753.6,-0.6366,-0.6068,135.0,98.1,0.477
38.66,32052.8,35019.4,0.2449,0.0457,135.0,98.1,0.477
38.68,32210.5,35435.8,0.9835,1.0679,135.0,98.1,0.477
38.7,32297.3,35670.1,1.3901,1.6431,135.0,98.1,0.477
38.72,32379.2,35810.0,1.7737,1.9867,135.0,98.1,0.477
38.74,32344.4,35686.9,1.6106,1.6843,135.0,98.1,0.477
38.76,32281.0,35584.3,1.3135,1.4325,135.0,98.1,0.477
38.78,32087.8,35316.3,0.4089,0.7746,135.0,98.1,0.477
38.8,32089.2,35166.5,0.4155,0.4069,135.0,98.1,0.477
38.82,32051.8,35052.0,0.2403,0.1256,135.0,98.1,0.477
38.84,32125.2,35082.9,0.5841,0.2015,135.0,98.1,0.477
38.86,31977.4,35103.1,-0.1082,0.2513,135.0,98.1,0.477
38.88,31969.2,34851.6,-0.1466,-0.3663,135.0,98.1,0.477
38.9,31907.8,34850.5,-0.4341,-0.3688,135.0,98.1,0.477
38.92,31977.4,34600.1,-0.1082,-0.9837,135.0,98.1,0.477
38.94,31888.3,34772.6,-0.5256,-0.5602,135.0,98.1,0.477
38.96,31796.6,34680.2,-0.9549,-0.7869,135.0,98.1,0.477
38.98,31803.9,34551.1,-0.921,-1.104,135.0,98.1,0.477
39.0,31880.7,34616.3,-0.5611,-0.944,135.0,98.1,0.477
39.02,31753.6,34427.7,-1.1567,-1.4069,135.0,98.1,0.477
39.04,31817.7,34416.9,-0.8564,-1.4335,135.0,98.1,0.477
39.06,31792.5,34468.6,-0.9742,-1.3064,135.0,98.1,0.477
39.08,31793.8,34760.5,-0.968,-0.59,135.0,98.1,0.477
39.1,31953.4,34987.4,-0.2208,-0.0329,135.0,98.1,0.477
39.12,32169.2,35409.7,0.7898,1.0039,135.0,98.1,0.477
39.14,32299.7,35683.5,1.4012,1.676,135.0,98.1,0.477
39.16,32361.9,35756.1,1.6928,1.8542,135.0,98.1,0.477
39.18,32227.2,35757.2,1.0617,1.857,135.0,98.1,0.477
39.2,32346.8,35586.9,1.6217,1.4388,135.0,98.1,0.477
39.22,32217.8,35300.8,1.0176,0.7365,135.0,98.1,0.477
39.24,32097.6,35166.8,0.4545,0.4076,135.0,98.1,0.477
39.26,32064.8,35155.0,0.3011,0.3786,135.0,98.1,0.477
39.28,32009.6,35053.4,0.0427,0.1292,135.0,98.1,0.477
39.3,32060.4,35041.8,0.2804,0.1006,135.0,98.1,0.477
39.32,31917.1,34910.1,-0.3906,-0.2226,135.0,98.1,0.477
39.34,31908.4,34907.9,-0.4313,-0.228,135.0,98.1,0.477
39.36,31779.3,34784.5,-1.0359,-0.531,135.0,98.1,0.477
39.38,31877.0,34646.6,-0.5787,-0.8695,135.0,98.1,0.477
39.4,31820.5,34587.2,-0.8431,-1.0152,135.0,98.1,0.477
39.42,31816.9,34681.9,-0.8598,-0.7828,135.0,98.1,0.477
39.44,31778.6,34635.5,-1.0395,-0.8968,135.0,98.1,0.477
39.46,31898.2,34490.3,-0.4792,-1.2534,135.0,98.1,0.477
39.48,31865.8,34419.9,-0.6308,-1.4261,135.0,98.1,0.477
39.5,31708.7,34466.9,-1.3669,-1.3106,135.0,98.1,0.477
39.52,31797.8,34579.5,-0.9493,-1.0344,135.0,98.1,0.477
39.54,31997.8,34935.8,-0.0129,-0.1595,135.0,98.1,0.477
39.56,32051.5,35335.3,0.2389,0.8212,135.0,98.1,0.477
39.58,32244.3,35637.5,1.1419,1.563,135.0,98.1,0.477
39.6,32290.7,35729.1,1.3591,1.788,135.0,98.1,0.477
39.62,32316.0,35725.3,1.4777,1.7788,135.0,98.1,0.477
39.64,32200.6,35661.7,0.9371,1.6225,135.0,98.1,0.477
39.66,32151.0,35389.9,0.7048,0.9553,135.0,98.1,0.477
39.68,32094.4,35304.7,0.4395,0.7462,135.0,98.1,0.477
39.7,32125.4,35145.1,0.5848,0.3542,135.0,98.1,0.477
39.72,32086.3,35107.2,0.4019,0.2613,135.0,98.1,0.477
39.74,31999.9,35034.8,-0.0031,0.0835,135.0,98.1,0.477
39.76,31901.3,34904.8,-0.4645,-0.2356,135.0,98.1,0.477
39.78,31851.4,34824.6,-0.6984,-0.4325,135.0,98.1,0.477
39.8,31898.1,34750.1,-0.4797,-0.6154,135.0,98.1,0.477
39.82,31869.2,34671.7,-0.6151,-0.808,135.0,98.1,0.477
39.84,31804.6,34647.8,-0.9176,-0.8667,135.0,98.1,0.477
39.86,31846.7,34650.2,-0.7205,-0.8607,135.0,98.1,0.477
39.88,31816.3,34625.0,-0.863,-0.9227,135.0,98.1,0.477
39.9,31835.3,34534.4,-0.7736,-1.145,135.0,98.1,0.477
39.92,31793.8,34409.7,-0.968,-1.4511,135.0,98.1,0.477
39.94,31738.3,34544.7,-1.2282,-1.1198,135.0,98.1,0.477
39.96,31715.4,34585.0,-1.3352,-1.0208,135.0,98.1,0.477
39.98,31907.5,34868.7,-0.4355,-0.3242,135.0,98.1,0.477
40.0,32033.7,35272.7,0.1552,0.6676,135.0,98.1,0.477
40.02,32187.2,35582.9,0.8744,1.429,135.0,98.1,0.477
40.04,32324.7,35695.2,1.5185,1.7047,135.0,98.1,0.477
40.06,32306.3,35718.6,1.4322,1.7622,135.0,98.1,0.477
40.08,32276.3,35560.6,1.2915,1.3742,135.0,98.1,0.477
40.1,32184.9,35355.1,0.8634,0.8697,135.0,98.1,0.477
40.12,32128.8,35263.2,0.6008,0.6441,135.0,98.1,0.477
40.14,32087.4,35190.9,0.4069,0.4667,135.0,98.1,0.477
40.16,32071.4,35040.0,0.3321,0.0962,135.0,98.1,0.477
40.18,32060.8,35069.5,0.2822,0.1688,135.0,98.1,0.477
40.2,31931.0,34948.9,-0.3256,-0.1274,135.0,98.1,0.477
40.22,32001.5,34875.1,0.0047,-0.3086,135.0,98.1,0.477
40.24,31898.5,34723.3,-0.4777,-0.6812,135.0,98.1,0.477
40.26,31906.1,34639.4,-0.442,-0.8872,135.0,98.1,0.477
40.28,31897.7,34689.2,-0.4814,-0.7649,135.0,98.1,0.477
40.3,31827.9,34636.3,-0.8085,-0.8948,135.0,98.1,0.477
40.32,31853.8,34631.5,-0.6872,-0.9065,135.0,98.1,0.477
40.34,31894.5,34485.5,-0.4967,-1.2651,135.0,98.1,0.477
40.36,31765.1,34475.5,-1.1025,-1.2895,135.0,98.1,0.477
40.38,31860.8,34392.6,-0.6545,-1.4931,135.0,98.1,0.477
40.4,31819.8,34513.7,-0.8466,-1.1958,135.0,98.1,0.477
40.42,31822.9,34824.5,-0.8319,-0.4329,135.0,98.1,0.477
40.44,31971.7,35055.0,-0.135,0.133,135.0,98.1,0.477
40.46,32149.7,35401.7,0.6985,0.9842,135.0,98.1,0.477
40.48,32245.9,35630.6,1.1494,1.5463,135.0,98.1,0.477
40.5,32323.0,35759.7,1.5105,1.863,135.0,98.1,0.477
40.52,32261.5,35647.9,1.2222,1.5888,135.0,98.1,0.477
40.54,32159.6,35492.8,0.7451,1.208,135.0,98.1,0.477
40.56,32184.5,35318.0,0.8615,0.7789,135.0,98.1,0.477
40.58,32071.4,35228.1,0.3318,0.5581,135.0,98.1,0.477
40.6,32083.4,35078.7,0.3883,0.1913,135.0,98.1,0.477
40.62,32102.4,35058.8,0.4772,0.1424,135.0,98.1,0.477
40.64,31968.5,35012.7,-0.1501,0.0292,135.0,98.1,0.477
40.66,32018.7,34869.8,0.0851,-0.3215,135.0,98.1,0.477
40.68,31841.9,34815.9,-0.7429,-0.454,135.0,98.1,0.477
40.7,31890.5,34755.1,-0.5152,-0.6032,135.0,98.1,0.477
40.72,31839.1,34699.5,-0.7561,-0.7396,135.0,98.1,0.477
40.74,31921.7,34640.6,-0.3693,-0.8842,135.0,98.1,0.477
40.76,31768.5,34676.2,-1.0867,-0.7968,135.0,98.1,0.477
40.78,31829.5,34452.1,-0.8008,-1.347,135.0,98.1,0.477
40.8,31706.4,34620.3,-1.3777,-0.934,135.0,98.1,0.477
40.82,31868.2,34352.8,-0.6199,-1.5908,135.0,98.1,0.477
40.84,31867.4,34485.3,-0.6235,-1.2654,135.0,98.1,0.477
40.86,31812.8,34706.0,-0.8792,-0.7237,135.0,98.1,0.477
40.88,32017.4,35080.6,0.0791,0.196,135.0,98.1,0.477
40.9,32121.6,35423.8,0.5671,1.0384,135.0,98.1,0.477
40.92,32290.2,35631.0,1.3567,1.5472,135.0,98.1,0.477
40.94,32340.4,35650.3,1.5919,1.5945,135.0,98.1,0.477
40.96,32330.6,35702.6,1.546,1.7229,135.0,98.1,0.477
40.98,32239.6,35543.5,1.1196,1.3322,135.0,98.1,0.477
41.0,32168.9,35282.5,0.7886,0.6915,135.0,98.1,0.477
41.02,32124.2,35160.3,0.5794,0.3915,135.0,98.1,0.477
41.04,32009.5,35192.9,0.0419,0.4715,135.0,98.1,0.477
41.06,32014.9,35082.9,0.0672,0.2015,135.0,98.1,0.477
41.08,31952.1,35082.9,-0.2269,0.2015,135.0,98.1,0.477
41.1,32008.6,34972.6,0.0376,-0.0691,135.0,98.1,0.477
41.12,31879.1,34817.4,-0.5689,-0.4501,135.0,98.1,0.477
41.14,31883.2,34777.0,-0.5495,-0.5493,135.0,98.1,0.477
41.16,31951.7,34673.3,-0.2289,-0.804,135.0,98.1,0.477
41.18,31830.0,34673.3,-0.7985,-0.8041,135.0,98.1,0.477
41.2,31815.1,34578.3,-0.8686,-1.0371,135.0,98.1,0.477
41.22,31855.7,34625.0,-0.6782,-0.9227,135.0,98.1,0.477
41.24,31808.0,34518.3,-0.9019,-1.1844,135.0,98.1,0.477
41.26,31749.1,34486.4,-1.1775,-1.2629,135.0,98.1,0.477
41.28,31790.1,34472.2,-0.9853,-1.2976,135.0,98.1,0.477
41.3,31758.0,34644.5,-1.1357,-0.8747,135.0,98.1,0.477
41.32,32025.1,34984.9,0.1153,-0.0389,135.0,98.1,0.477
41.34,32171.3,35278.4,0.8,0.6814,135.0,98.1,0.477
41.36,32298.1,35641.4,1.3938,1.5727,135.0,98.1,0.477
41.38,32256.7,35857.6,1.1996,2.1034,135.0,98.1,0.477
41.4,32341.6,35761.7,1.5975,1.8681,135.0,98.1,0.477
41.42,32249.6,35574.5,1.1665,1.4084,135.0,98.1,0.477
41.44,32176.3,35442.6,0.8231,1.0846,135.0,98.1,0.477
41.46,32038.5,35333.8,0.1781,0.8175,135.0,98.1,0.477
41.48,32045.1,35148.8,0.209,0.3634,135.0,98.1,0.477
41.5,31952.1,35111.1,-0.227,0.2708,135.0,98.1,0.477
41.52,32049.0,35027.2,0.2272,0.0648,135.0,98.1,0.477
41.54,31968.4,34927.9,-0.1502,-0.179,135.0,98.1,0.477
41.56,31944.3,34826.4,-0.2631,-0.428,135.0,98.1,0.477
41.58,31954.6,34816.5,-0.2152,-0.4524,135.0,98.1,0.477
41.6,31944.8,34654.3,-0.2611,-0.8507,135.0,98.1,0.477
41.62,31823.8,34703.7,-0.8276,-0.7293,135.0,98.1,0.477
41.64,31821.2,34673.3,-0.8398,-0.804,135.0,98.1,0.477
41.66,31780.0,34627.4,-1.033,-0.9166,135.0,98.1,0.477
41.68,31802.3,34515.5,-0.9285,-1.1914,135.0,98.1,0.477
41.7,31843.3,34446.4,-0.7364,-1.3609,135.0,98.1,0.477
41.72,31813.1,34353.6,-0.8777,-1.5888,135.0,98.1,0.477
41.74,31815.6,34658.7,-0.8659,-0.8397,135.0,98.1,0.477
41.76,31930.6,34939.9,-0.3273,-0.1495,135.0,98.1,0.477
41.78,31999.4,35345.6,-0.0053,0.8466,135.0,98.1,0.477
41.8,32186.1,35573.7,0.8692,1.4064,135.0,98.1,0.477
41.82,32260.8,35727.1,1.219,1.783,135.0,98.1,0.477
41.84,32290.6,35763.0,1.3584,1.8711,135.0,98.1,0.477
41.86,32263.2,35629.5,1.2303,1.5434,135.0,98.1,0.477
41.88,32133.0,35466.5,0.6204,1.1432,135.0,98.1,0.477
41.9,32083.7,35236.5,0.3896,0.5788,135.0,98.1,0.477
41.92,31996.2,35176.5,-0.0205,0.4313,135.0,98.1,0.477
41.94,32003.2,35068.9,0.0125,0.1671,135.0,98.1,0.477
41.96,32071.4,35052.5,0.332,0.127,135.0,98.1,0.477
41.98,31931.9,34976.4,-0.3214,-0.0598,135.0,98.1,0.477
42.0,31899.5,34887.3,-0.4733,-0.2785,135.0,98.1,0.477
42.02,31862.9,34808.5,-0.6445,-0.4722,135.0,98.1,0.477
42.04,31833.0,34701.1,-0.7848,-0.7357,135.0,98.1,0.477
42.06,31868.8,34541.9,-0.6169,-1.1266,135.0,98.1,0.477
42.08,31904.7,34645.8,-0.4486,-0.8715,135.0,98.1,0.477
42.1,31813.5,34652.7,-0.8759,-0.8546,135.0,98.1,0.477
42.12,31877.5,34503.5,-0.5762,-1.2209,135.0,98.1,0.477
42.14,31778.5,34524.1,-1.0398,-1.1704,135.0,98.1,0.477
42.16,31671.9,34434.3,-1.539,-1.3908,135.0,98.1,0.477
42.18,31783.6,34545.9,-1.0158,-1.1167,135.0,98.1,0.477
42.2,31995.7,34854.8,-0.0226,-0.3584,135.0,98.1,0.477
42.22,32017.3,35189.3,0.0787,0.4628,135.0,98.1,0.477
42.24,32227.3,35484.6,1.0621,1.1879,135.0,98.1,0.477
42.26,32344.8,35706.4,1.6124,1.7324,135.0,98.1,0.477
42.28,32248.5,35748.1,1.1615,1.8345,135.0,98.1,0.477
42.3,32231.5,35675.2,1.0817,1.6556,135.0,98.1,0.477
42.32,32212.5,35489.4,0.9927,1.1996,135.0,98.1,0.477
42.34,32119.5,35262.0,0.5574,0.6413,135.0,98.1,0.477
42.36,32028.6,35216.9,0.1315,0.5304,135.0,98.1,0.477
42.38,31946.2,35099.0,-0.2544,0.241,135.0,98.1,0.477
42.4,31976.0,35100.5,-0.1149,0.2447,135.0,98.1,0.477
42.42,32054.7,35007.7,0.2535,0.0171,135.0,98.1,0.477
42.44,31812.1,34881.1,-0.8826,-0.2938,135.0,98.1,0.477
42.46,32029.5,34836.5,0.1358,-0.4032,135.0,98.1,0.477
42.48,31876.1,34650.7,-0.5825,-0.8595,135.0,98.1,0.477
42.5,31860.2,34631.6,-0.657,-0.9064,135.0,98.1,0.477
42.52,31903.5,34663.4,-0.4545,-0.8284,135.0,98.1,0.477
42.54,31843.4,34658.0,-0.736,-0.8416,135.0,98.1,0.477
42.56,31745.7,34618.1,-1.1934,-0.9395,135.0,98.1,0.477
42.58,31733.5,34448.5,-1.2507,-1.3559,135.0,98.1,0.477
42.6,31790.4,34421.9,-0.9844,-1.4211,135.0,98.1,0.477
42.62,31824.6,34537.6,-0.8239,-1.1371,135.0,98.1,0.477
42.64,31900.6,34742.8,-0.4681,-0.6333,135.0,98.1,0.477
42.66,31997.8,35036.1,-0.0129,0.0868,135.0,98.1,0.477
42.68,32218.3,35533.2,1.0198,1.3071,135.0,98.1,0.477
42.7,32283.8,35679.3,1.3268,1.6657,135.0,98.1,0.477
42.72,32267.1,35778.8,1.2486,1.91,135.0,98.1,0.477
42.74,32314.9,35703.0,1.4722,1.7239,135.0,98.1,0.477
42.76,32217.2,35598.7,1.015,1.4678,135.0,98.1,0.477
42.78,32136.8,35334.9,0.6383,0.8202,135.0,98.1,0.477
42.8,32065.7,35251.4,0.3054,0.6153,135.0,98.1,0.477
42.82,32008.3,35091.4,0.0363,0.2224,135.0,98.1,0.477
42.84,32026.7,35015.0,0.1227,0.0349,135.0,98.1,0.477
42.86,31917.6,34999.3,-0.3885,-0.0038,135.0,98.1,0.477
42.88,31972.9,34858.2,-0.1296,-0.3501,135.0,98.1,0.477
42.9,31864.7,34830.2,-0.6363,-0.4189,135.0,98.1,0.477
42.92,31809.2,34784.2,-0.8963,-0.5318,135.0,98.1,0.477
42.94,31812.2,34644.4,-0.882,-0.8749,135.0,98.1,0.477
42.96,31898.2,34606.3,-0.4795,-0.9684,135.0,98.1,0.477
42.98,31872.9,34548.2,-0.5978,-1.1111,135.0,98.1,0.477
43.0,31901.1,34599.1,-0.4655,-0.9862,135.0,98.1,0.477
43.02,31743.3,34452.0,-1.2045,-1.3473,135.0,98.1,0.477
43.04,31739.4,34378.6,-1.223,-1.5274,135.0,98.1,0.477
43.06,31847.3,34528.5,-0.7178,-1.1594,135.0,98.1,0.477
43.08,31767.7,34565.1,-1.0906,-1.0695,135.0,98.1,0.477
43.1,32000.3,34947.5,-0.001,-0.1308,135.0,98.1,0.477
43.12,32257.2,35385.6,1.2023,0.9448,135.0,98.1,0.477
43.14,32282.3,35663.7,1.3198,1.6274,135.0,98.1,0.477
43.16,32265.1,35705.4,1.2394,1.7298,135.0,98.1,0.477
43.18,32307.6,35707.0,1.4381,1.7338,135.0,98.1,0.477
43.2,32299.0,35497.2,1.398,1.2187,135.0,98.1,0.477
43.22,32139.1,35441.1,0.6492,1.081,135.0,98.1,0.477
43.24,32178.0,35233.9,0.8311,0.5723,135.0,98.1,0.477
43.26,32036.4,35101.3,0.1679,0.2468,135.0,98.1,0.477
43.28,32074.3,35203.3,0.3454,0.4973,135.0,98.1,0.477
43.3,31998.7,35051.6,-0.0087,0.1246,135.0,98.1,0.477
43.32,32006.6,34950.8,0.0284,-0.1228,135.0,98.1,0.477
43.34,31896.6,34795.9,-0.4869,-0.5029,135.0,98.1,0.477
43.36,31885.4,34800.3,-0.5391,-0.4922,135.0,98.1,0.477
43.38,31942.9,34620.9,-0.2698,-0.9326,135.0,98.1,0.477
43.4,31878.8,34581.6,-0.5702,-1.0291,135.0,98.1,0.477
43.42,31895.4,34637.1,-0.4923,-0.8928,135.0,98.1,0.477
43.44,31744.7,34564.1,-1.198,-1.072,135.0,98.1,0.477
43.46,31966.7,34565.3,-0.1585,-1.069,135.0,98.1,0.477
43.48,31807.6,34528.3,-0.9036,-1.16,135.0,98.1,0.477
43.5,31751.7,34512.1,-1.1655,-1.1997,135.0,98.1,0.477
43.52,31819.4,34548.8,-0.8481,-1.1097,135.0,98.1,0.477
43.54,31982.0,34941.6,-0.087,-0.1453,135.0,98.1,0.477
43.56,32093.5,35322.6,0.4353,0.79,135.0,98.1,0.477
43.58,32258.7,35563.8,1.209,1.3821,135.0,98.1,0.477
43.6,32351.8,35808.9,1.6453,1.9838,135.0,98.1,0.477
43.62,32372.7,35749.6,1.743,1.8384,135.0,98.1,0.477
43.64,32251.0,35630.3,1.1733,1.5454,135.0,98.1,0.477
43.66,32163.0,35352.7,0.7611,0.864,135.0,98.1,0.477
43.68,32115.3,35317.2,0.5376,0.7769,135.0,98.1,0.477
43.7,32033.9,35108.3,0.1563,0.2639,135.0,98.1,0.477
43.72,32058.3,35088.6,0.2705,0.2156,135.0,98.1,0.477
43.74,32035.0,35037.4,0.1615,0.0899,135.0,98.1,0.477
43.76,31943.3,34931.9,-0.2682,-0.1692,135.0,98.1,0.477
43.78,32018.2,34868.2,0.0827,-0.3254,135.0,98.1,0.477
43.8,31850.6,34779.3,-0.702,-0.5438,135.0,98.1,0.477
43.82,31894.2,34646.3,-0.4979,-0.8702,135.0,98.1,0.477
43.84,31839.5,34687.9,-0.7544,-0.768,135.0,98.1,0.477
43.86,31837.4,34695.8,-0.7642,-0.7487,135.0,98.1,0.477
43.88,31820.5,34665.5,-0.843,-0.8232,135.0,98.1,0.477
43.9,31849.5,34583.7,-0.7072,-1.024,135.0,98.1,0.477
43.92,31743.4,34558.4,-1.2043,-1.086,135.0,98.1,0.477
43.94,31745.3,34443.0,-1.1955,-1.3693,135.0,98.1,0.477
43.96,31812.1,34619.7,-0.8824,-0.9355,135.0,98.1,0.477
43.98,31933.2,34819.2,-0.3152,-0.4457,135.0,98.1,0.477
44.0,32067.3,35168.5,0.3129,0.4116,135.0,98.1,0.477
44.02,32135.8,35608.3,0.6336,1.4916,135.0,98.1,0.477
44.04,32311.3,35777.9,1.4553,1.9077,135.0,98.1,0.477
44.06,32309.9,35779.7,1.4488,1.9122,135.0,98.1,0.477
44.08,32229.4,35570.9,1.0721,1.3996,135.0,98.1,0.477
44.1,32222.6,35380.9,1.0403,0.9333,135.0,98.1,0.477
44.12,32100.5,35355.7,0.4681,0.8714,135.0,98.1,0.477
44.14,32130.3,35176.2,0.6079,0.4305,135.0,98.1,0.477
44.16,32021.8,35093.4,0.0998,0.2273,135.0,98.1,0.477
44.18,32051.8,35047.4,0.2401,0.1143,135.0,98.1,0.477
44.2,31986.5,34995.5,-0.0656,-0.013,135.0,98.1,0.477
44.22,32001.8,34938.9,0.0061,-0.152,135.0,98.1,0.477
44.24,31905.1,34719.7,-0.447,-0.6901,135.0,98.1,0.477
44.26,31797.7,34657.0,-0.9499,-0.8439,135.0,98.1,0.477
44.28,31834.7,34748.8,-0.7768,-0.6187,135.0,98.1,0.477
44.3,31876.7,34697.6,-0.5798,-0.7444,135.0,98.1,0.477
44.32,31855.7,34636.0,-0.6783,-0.8955,135.0,98.1,0.477
44.34,31773.7,34506.5,-1.0623,-1.2134,135.0,98.1,0.477
44.36,31850.5,34571.8,-0.7025,-1.0532,135.0,98.1,0.477
44.38,31783.3,34455.8,-1.0175,-1.338,135.0,98.1,0.477
44.4,31766.9,34531.0,-1.0943,-1.1534,135.0,98.1,0.477
44.42,31847.8,34867.0,-0.7153,-0.3284,135.0,98.1,0.477
44.44,32026.0,35093.7,0.1193,0.2282,135.0,98.1,0.477
44.46,32223.3,35481.3,1.0434,1.1796,135.0,98.1,0.477
44.48,32245.6,35613.6,1.1477,1.5045,135.0,98.1,0.477
44.5,32334.3,35782.0,1.5631,1.9178,135.0,98.1,0.477
44.52,32314.2,35703.0,1.469,1.724,135.0,98.1,0.477
44.54,32250.7,35507.2,1.1717,1.2432,135.0,98.1,0.477
44.56,32160.4,35291.4,0.7486,0.7133,135.0,98.1,0.477
44.58,32059.8,35143.9,0.2778,0.3513,135.0,98.1,0.477
44.6,32051.2,35061.9,0.2374,0.1499,135.0,98.1,0.477
44.62,32045.9,35042.0,0.2125,0.1012,135.0,98.1,0.477
44.64,31974.0,34999.4,-0.1243,-0.0034,135.0,98.1,0.477
44.66,31870.0,34845.6,-0.6115,-0.381,135.0,98.1,0.477
44.68,31806.4,34762.6,-0.9092,-0.5848,135.0,98.1,0.477
44.7,31907.2,34612.3,-0.4369,-0.9537,135.0,98.1,0.477
44.72,31835.7,34625.0,-0.7721,-0.9227,135.0,98.1,0.477
44.74,31830.3,34710.2,-0.7972,-0.7135,135.0,98.1,0.477
44.76,31815.6,34692.5,-0.8662,-0.7568,135.0,98.1,0.477
44.78,31728.0,34656.6,-1.2764,-0.845,135.0,98.1,0.477
44.8,31810.9,34452.8,-0.8883,-1.3454,135.0,98.1,0.477
44.82,31715.8,34388.4,-1.3337,-1.5034,135.0,98.1,0.477
44.84,31747.2,34523.2,-1.1864,-1.1725,135.0,98.1,0.477
