timestamp,raw_red,raw_ir,filtered_red,filtered_ir,heart_rate,spo2,ac_dc_ratio
0.0,32019.3,35224.0,1.1844,1.196,145.7,97.9,0.484
0.02,32261.6,35417.3,1.1998,1.2072,145.7,97.9,0.484
0.04,32334.4,35716.4,1.2044,1.2245,145.7,97.9,0.484
0.06,32363.0,35779.1,1.2062,1.2282,145.7,97.9,0.484
0.08,32128.3,35511.2,1.1913,1.2127,145.7,97.9,0.484
0.1,32260.3,35375.5,1.1997,1.2048,145.7,97.9,0.484
0.12,32037.9,35102.3,1.1856,1.189,145.7,97.9,0.484
0.14,32091.5,35128.1,1.189,1.1905,145.7,97.9,0.484
0.16,32044.5,35130.8,1.186,1.1906,145.7,97.9,0.484
0.18,32033.4,34981.4,1.1853,1.182,145.7,97.9,0.484
0.2,31878.8,34975.4,1.1755,1.1816,145.7,97.9,0.484
0.22,31946.7,34845.3,1.1798,1.1741,145.7,97.9,0.484
0.24,31825.7,34767.6,1.1721,1.1696,145.7,97.9,0.484
0.26,31815.9,34676.5,1.1715,1.1643,145.7,97.9,0.484
0.28,31876.3,34684.1,1.1753,1.1647,145.7,97.9,0.484
0.3,31820.4,34576.8,1.1718,1.1585,145.7,97.9,0.484
0.32,31749.0,34528.4,1.1673,1.1557,145.7,97.9,0.484
0.34,31760.9,34469.9,1.168,1.1523,145.7,97.9,0.484
0.36,31667.4,34412.2,1.1621,1.149,145.7,97.9,0.484
0.38,31972.8,34596.2,1.1815,1.1596,145.7,97.9,0.484
0.4,31929.9,34964.1,1.1787,1.181,145.7,97.9,0.484
0.42,32121.9,35304.6,1.1909,1.2007,145.7,97.9,0.484
0.44,32257.3,35595.8,1.1995,1.2176,145.7,97.9,0.484
0.46,32227.4,35769.9,1.1976,1.2276,145.7,97.9,0.484
0.48,32374.7,35683.2,1.2069,1.2226,145.7,97.9,0.484
0.5,32235.0,35574.4,1.1981,1.2163,145.7,97.9,0.484
0.52,32044.4,35189.3,1.186,1.194,145.7,97.9,0.484
0.54,32104.5,35201.5,1.1898,1.1947,145.7,97.9,0.484
0.56,32095.6,35051.7,1.1892,1.186,145.7,97.9,0.484
0.58,32013.4,35045.0,1.184,1.1856,145.7,97.9,0.484
0.6,32050.4,34980.1,1.1864,1.1819,145.7,97.9,0.484
0.62,31917.7,34905.0,1.178,1.1775,145.7,97.9,0.484
0.64,31916.9,34766.4,1.1779,1.1695,145.7,97.9,0.484
0.66,31876.5,34678.4,1.1754,1.1644,145.7,97.9,0.484
0.68,31832.1,34665.7,1.1725,1.1637,145.7,97.9,0.484
0.7,31879.1,34652.0,1.1755,1.1629,145.7,97.9,0.484
0.72,31845.9,34747.3,1.1734,1.1684,145.7,97.9,0.484
0.74,31819.0,34503.5,1.1717,1.1543,145.7,97.9,0.484
0.76,31717.9,34511.9,1.1653,1.1547,145.7,97.9,0.484
0.78,31815.9,34515.3,1.1715,1.1549,145.7,97.9,0.484
0.8,31873.9,34724.0,1.1752,1.167,145.7,97.9,0.484
0.82,32154.1,35163.9,1.193,1.1925,145.7,97.9,0.484
0.84,32247.5,35515.8,1.1989,1.2129,145.7,97.9,0.484
0.86,32274.9,35677.3,1.2006,1.2223,145.7,97.9,0.484
0.88,32356.2,35805.3,1.2058,1.2297,145.7,97.9,0.484
0.9,32318.4,35627.1,1.2034,1.2194,145.7,97.9,0.484
0.92,32174.2,35530.4,1.1942,1.2138,145.7,97.9,0.484
0.94,32084.5,35212.4,1.1885,1.1953,145.7,97.9,0.484
0.96,32030.6,35101.6,1.1851,1.1889,145.7,97.9,0.484
0.98,31980.2,35092.2,1.1819,1.1884,145.7,97.9,0.484
1.0,32067.7,35065.2,1.1875,1.1868,145.7,97.9,0.484
1.02,32035.3,34938.2,1.1854,1.1795,145.7,97.9,0.484
1.04,31871.3,34858.1,1.175,1.1748,145.7,97.9,0.484
1.06,31903.7,34779.0,1.1771,1.1702,145.7,97.9,0.484
1.08,31891.4,34668.6,1.1763,1.1638,145.7,97.9,0.484
1.1,31766.5,34575.5,1.1684,1.1584,145.7,97.9,0.484
1.12,31929.7,34667.6,1.1787,1.1638,145.7,97.9,0.484
1.14,31815.6,34526.8,1.1715,1.1556,145.7,97.9,0.484
1.16,31736.1,34465.5,1.1665,1.1521,145.7,97.9,0.484
1.18,31738.2,34449.5,1.1666,1.1511,145.7,97.9,0.484
1.2,31865.8,34627.3,1.1747,1.1614,145.7,97.9,0.484
1.22,31984.8,34848.4,1.1822,1.1742,145.7,97.9,0.484
1.24,32039.6,35127.0,1.1857,1.1904,145.7,97.9,0.484
1.26,32273.8,35597.9,1.2005,1.2177,145.7,97.9,0.484
1.28,32366.7,35751.6,1.2064,1.2266,145.7,97.9,0.484
1.3,32359.4,35710.7,1.206,1.2242,145.7,97.9,0.484
1.32,32230.2,35564.9,1.1978,1.2158,145.7,97.9,0.484
1.34,32164.1,35287.9,1.1936,1.1997,145.7,97.9,0.484
1.36,32033.7,35102.7,1.1853,1.189,145.7,97.9,0.484
1.38,32011.9,35056.4,1.1839,1.1863,145.7,97.9,0.484
1.4,32032.5,35089.6,1.1852,1.1882,145.7,97.9,0.484
1.42,31937.5,35034.2,1.1792,1.185,145.7,97.9,0.484
1.44,31984.8,34962.4,1.1822,1.1809,145.7,97.9,0.484
1.46,31898.3,34795.9,1.1767,1.1712,145.7,97.9,0.484
1.48,31937.8,34612.8,1.1792,1.1606,145.7,97.9,0.484
1.5,31855.3,34702.4,1.174,1.1658,145.7,97.9,0.484
1.52,31833.7,34607.7,1.1726,1.1603,145.7,97.9,0.484
1.54,31788.7,34638.6,1.1698,1.1621,145.7,97.9,0.484
1.56,31792.7,34483.4,1.17,1.1531,145.7,97.9,0.484
1.58,31710.7,34404.4,1.1649,1.1485,145.7,97.9,0.484
1.6,31745.8,34427.4,1.1671,1.1499,145.7,97.9,0.484
1.62,31896.1,34747.2,1.1766,1.1684,145.7,97.9,0.484
1.64,32117.1,34982.6,1.1906,1.182,145.7,97.9,0.484
1.66,32268.3,35343.7,1.2002,1.2029,145.7,97.9,0.484
1.68,32332.8,35705.6,1.2043,1.2239,145.7,97.9,0.484
1.7,32390.8,35735.1,1.208,1.2256,145.7,97.9,0.484
1.72,32283.5,35676.8,1.2012,1.2223,145.7,97.9,0.484
1.74,32148.3,35388.9,1.1926,1.2056,145.7,97.9,0.484
1.76,32157.0,35271.0,1.1931,1.1987,145.7,97.9,0.484
1.78,32092.0,35092.5,1.189,1.1884,145.7,97.9,0.484
1.8,32017.5,35141.3,1.1843,1.1912,145.7,97.9,0.484
1.82,32024.6,35024.9,1.1847,1.1845,145.7,97.9,0.484
1.84,32015.9,34964.3,1.1842,1.181,145.7,97.9,0.484
1.86,31841.6,34857.2,1.1731,1.1748,145.7,97.9,0.484
1.88,31828.5,34676.0,1.1723,1.1643,145.7,97.9,0.484
1.9,31828.7,34812.6,1.1723,1.1722,145.7,97.9,0.484
1.92,31853.0,34731.9,1.1739,1.1675,145.7,97.9,0.484
1.94,31827.2,34632.6,1.1722,1.1617,145.7,97.9,0.484
1.96,31775.6,34571.5,1.169,1.1582,145.7,97.9,0.484
1.98,31811.0,34567.1,1.1712,1.1579,145.7,97.9,0.484
2.0,31689.0,34450.8,1.1635,1.1512,145.7,97.9,0.484
2.02,31752.3,34477.5,1.1675,1.1528,145.7,97.9,0.484
2.04,31902.0,34789.5,1.177,1.1708,145.7,97.9,0.484
2.06,32185.3,35162.2,1.1949,1.1924,145.7,97.9,0.484
2.08,32106.9,35462.8,1.19,1.2099,145.7,97.9,0.484
2.1,32328.7,35726.4,1.204,1.2251,145.7,97.9,0.484
2.12,32305.5,35685.3,1.2026,1.2227,145.7,97.9,0.484
2.14,32255.2,35567.5,1.1994,1.2159,145.7,97.9,0.484
2.16,32201.8,35435.7,1.196,1.2083,145.7,97.9,0.484
2.18,32076.3,35281.9,1.188,1.1994,145.7,97.9,0.484
2.2,32066.6,35091.0,1.1874,1.1883,145.7,97.9,0.484
2.22,32001.3,34971.5,1.1833,1.1814,145.7,97.9,0.484
2.24,31909.7,34986.9,1.1775,1.1823,145.7,97.9,0.484
2.26,31985.4,34821.8,1.1823,1.1727,145.7,97.9,0.484
2.28,31927.1,34811.5,1.1786,1.1721,145.7,97.9,0.484
2.3,31828.8,34649.4,1.1723,1.1627,145.7,97.9,0.484
2.32,31853.2,34649.1,1.1739,1.1627,145.7,97.9,0.484
2.34,31749.0,34728.2,1.1673,1.1673,145.7,97.9,0.484
2.36,31856.5,34699.1,1.1741,1.1656,145.7,97.9,0.484
2.38,31782.9,34415.7,1.1694,1.1492,145.7,97.9,0.484
2.4,31679.4,34484.7,1.1629,1.1532,145.7,97.9,0.484
2.42,31687.2,34429.5,1.1634,1.15,145.7,97.9,0.484
2.44,31787.3,34620.1,1.1697,1.161,145.7,97.9,0.484
2.46,32054.1,34953.3,1.1866,1.1803,145.7,97.9,0.484
2.48,32173.5,35376.6,1.1942,1.2049,145.7,97.9,0.484
2.5,32268.6,35666.5,1.2002,1.2217,145.7,97.9,0.484
2.52,32342.7,35794.4,1.2049,1.2291,145.7,97.9,0.484
2.54,32240.1,35755.4,1.1984,1.2268,145.7,97.9,0.484
2.56,32327.2,35453.1,1.2039,1.2093,145.7,97.9,0.484
2.58,32025.4,35267.4,1.1848,1.1985,145.7,97.9,0.484
2.6,32057.2,35185.0,1.1868,1.1938,145.7,97.9,0.484
2.62,32033.2,35153.5,1.1853,1.1919,145.7,97.9,0.484
2.64,32055.8,35075.2,1.1867,1.1874,145.7,97.9,0.484
2.66,31989.5,34960.7,1.1825,1.1808,145.7,97.9,0.484
2.68,31945.2,34876.9,1.1797,1.1759,145.7,97.9,0.484
2.7,31906.0,34707.3,1.1772,1.1661,145.7,97.9,0.484
2.72,31945.8,34767.8,1.1798,1.1696,145.7,97.9,0.484
2.74,31945.3,34665.0,1.1797,1.1636,145.7,97.9,0.484
2.76,31870.7,34699.6,1.175,1.1656,145.7,97.9,0.484
2.78,31804.2,34590.4,1.1708,1.1593,145.7,97.9,0.484
2.8,31791.3,34541.7,1.17,1.1565,145.7,97.9,0.484
2.82,31771.0,34450.8,1.1687,1.1512,145.7,97.9,0.484
2.84,31853.0,34486.1,1.1739,1.1533,145.7,97.9,0.484
2.86,31923.0,34686.8,1.1783,1.1649,145.7,97.9,0.484
2.88,32024.2,35101.2,1.1847,1.1889,145.7,97.9,0.484
2.9,32244.6,35475.7,1.1987,1.2106,145.7,97.9,0.484
2.92,32266.3,35717.1,1.2001,1.2246,145.7,97.9,0.484
2.94,32339.6,35742.1,1.2047,1.226,145.7,97.9,0.484
2.96,32266.0,35698.0,1.2,1.2235,145.7,97.9,0.484
2.98,32272.6,35371.3,1.2005,1.2045,145.7,97.9,0.484
3.0,32100.0,35229.7,1.1895,1.1963,145.7,97.9,0.484
3.02,32092.7,35104.3,1.1891,1.1891,145.7,97.9,0.484
3.04,32028.5,35044.6,1.185,1.1856,145.7,97.9,0.484
3.06,32008.2,35005.5,1.1837,1.1834,145.7,97.9,0.484
3.08,31982.3,34984.0,1.1821,1.1821,145.7,97.9,0.484
3.1,31896.1,34902.7,1.1766,1.1774,145.7,97.9,0.484
3.12,31803.0,34745.6,1.1707,1.1683,145.7,97.9,0.484
3.14,31801.6,34723.8,1.1706,1.167,145.7,97.9,0.484
3.16,31916.7,34709.1,1.1779,1.1662,145.7,97.9,0.484
3.18,31843.0,34666.4,1.1732,1.1637,145.7,97.9,0.484
3.2,31731.7,34673.8,1.1662,1.1641,145.7,97.9,0.484
3.22,31795.9,34499.0,1.1702,1.154,145.7,97.9,0.484
3.24,31729.3,34517.7,1.166,1.1551,145.7,97.9,0.484
3.26,31803.3,34617.1,1.1707,1.1608,145.7,97.9,0.484
3.28,31895.4,34864.0,1.1766,1.1752,145.7,97.9,0.484
3.3,32130.4,35301.8,1.1915,1.2005,145.7,97.9,0.484
3.32,32320.0,35534.6,1.2035,1.214,145.7,97.9,0.484
3.34,32332.3,35742.5,1.2042,1.2261,145.7,97.9,0.484
3.36,32314.7,35799.4,1.2031,1.2294,145.7,97.9,0.484
3.38,32207.5,35613.5,1.1963,1.2186,145.7,97.9,0.484
3.4,32156.3,35414.9,1.1931,1.2071,145.7,97.9,0.484
3.42,32059.4,35201.7,1.187,1.1947,145.7,97.9,0.484
3.44,32061.0,35097.7,1.1871,1.1887,145.7,97.9,0.484
3.46,32083.5,35081.4,1.1885,1.1878,145.7,97.9,0.484
3.48,32066.1,34987.3,1.1874,1.1823,145.7,97.9,0.484
3.5,31890.9,34963.6,1.1763,1.1809,145.7,97.9,0.484
3.52,31961.0,34841.8,1.1807,1.1739,145.7,97.9,0.484
3.54,31958.5,34745.0,1.1806,1.1683,145.7,97.9,0.484
3.56,31784.9,34669.2,1.1696,1.1639,145.7,97.9,0.484
3.58,31857.7,34753.9,1.1742,1.1688,145.7,97.9,0.484
3.6,31876.6,34596.3,1.1754,1.1596,145.7,97.9,0.484
3.62,31744.2,34520.2,1.167,1.1552,145.7,97.9,0.484
3.64,31868.1,34486.8,1.1748,1.1533,145.7,97.9,0.484
3.66,31783.2,34486.5,1.1694,1.1533,145.7,97.9,0.484
3.68,31928.0,34733.9,1.1786,1.1676,145.7,97.9,0.484
3.7,31847.8,35015.2,1.1735,1.1839,145.7,97.9,0.484
3.72,32165.6,35432.6,1.1937,1.2081,145.7,97.9,0.484
3.74,32267.6,35553.0,1.2001,1.2151,145.7,97.9,0.484
3.76,32343.6,35823.1,1.205,1.2307,145.7,97.9,0.484
3.78,32313.2,35716.9,1.203,1.2246,145.7,97.9,0.484
3.8,32230.7,35487.0,1.1978,1.2113,145.7,97.9,0.484
3.82,32116.7,35239.3,1.1906,1.1969,145.7,97.9,0.484
3.84,32102.3,35164.4,1.1897,1.1926,145.7,97.9,0.484
3.86,32021.5,35053.7,1.1846,1.1861,145.7,97.9,0.484
3.88,32007.4,35033.8,1.1837,1.185,145.7,97.9,0.484
3.9,31933.6,34892.8,1.179,1.1768,145.7,97.9,0.484
3.92,31989.0,34816.0,1.1825,1.1724,145.7,97.9,0.484
3.94,31943.4,34790.4,1.1796,1.1709,145.7,97.9,0.484
3.96,31831.7,34736.1,1.1725,1.1677,145.7,97.9,0.484
3.98,31835.7,34589.0,1.1728,1.1592,145.7,97.9,0.484
4.0,31922.3,34679.4,1.1783,1.1645,145.7,97.9,0.484
4.02,31717.1,34574.8,1.1653,1.1584,145.7,97.9,0.484
4.04,31728.9,34546.8,1.166,1.1568,145.7,97.9,0.484
4.06,31671.7,34382.2,1.1624,1.1472,145.7,97.9,0.484
4.08,31801.7,34508.2,1.1706,1.1545,145.7,97.9,0.484
4.1,31932.3,34840.7,1.1789,1.1738,145.7,97.9,0.484
4.12,32093.2,35186.5,1.1891,1.1938,145.7,97.9,0.484
4.14,32297.6,35578.0,1.2021,1.2165,145.7,97.9,0.484
4.16,32284.6,35750.6,1.2012,1.2265,145.7,97.9,0.484
4.18,32286.2,35812.0,1.2013,1.2301,145.7,97.9,0.484
4.2,32273.8,35635.9,1.2005,1.2199,145.7,97.9,0.484
4.22,32144.8,35374.7,1.1924,1.2047,145.7,97.9,0.484
4.24,32144.2,35176.1,1.1923,1.1932,145.7,97.9,0.484
4.26,31959.1,35104.8,1.1806,1.1891,145.7,97.9,0.484
4.28,32047.1,35062.5,1.1862,1.1867,145.7,97.9,0.484
4.3,32024.3,35036.6,1.1847,1.1852,145.7,97.9,0.484
4.32,31939.7,34936.8,1.1794,1.1794,145.7,97.9,0.484
4.34,31882.5,34784.0,1.1757,1.1705,145.7,97.9,0.484
4.36,31951.9,34652.8,1.1801,1.1629,145.7,97.9,0.484
4.38,31825.1,34670.0,1.1721,1.1639,145.7,97.9,0.484
4.4,31805.6,34642.3,1.1709,1.1623,145.7,97.9,0.484
4.42,31783.6,34603.3,1.1695,1.16,145.7,97.9,0.484
4.44,31834.0,34435.2,1.1727,1.1503,145.7,97.9,0.484
4.46,31802.3,34440.8,1.1707,1.1506,145.7,97.9,0.484
4.48,31836.1,34490.2,1.1728,1.1535,145.7,97.9,0.484
4.5,31953.1,34628.0,1.1802,1.1615,145.7,97.9,0.484
4.52,31990.6,35008.5,1.1826,1.1835,145.7,97.9,0.484
4.54,32152.0,35238.6,1.1928,1.1969,145.7,97.9,0.484
4.56,32238.3,35660.5,1.1983,1.2213,145.7,97.9,0.484
4.58,32353.3,35795.9,1.2056,1.2292,145.7,97.9,0.484
4.6,32273.6,35674.4,1.2005,1.2221,145.7,97.9,0.484
4.62,32159.7,35446.0,1.1933,1.2089,145.7,97.9,0.484
4.64,32031.2,35341.3,1.1852,1.2028,145.7,97.9,0.484
4.66,32053.6,35221.2,1.1866,1.1959,145.7,97.9,0.484
4.68,32020.5,35048.3,1.1845,1.1858,145.7,97.9,0.484
4.7,32048.9,35027.4,1.1863,1.1846,145.7,97.9,0.484
4.72,32015.0,34991.3,1.1841,1.1825,145.7,97.9,0.484
4.74,31921.4,34827.6,1.1782,1.173,145.7,97.9,0.484
4.76,31906.7,34739.1,1.1773,1.1679,145.7,97.9,0.484
4.78,31788.1,34750.0,1.1698,1.1685,145.7,97.9,0.484
4.8,31826.5,34566.9,1.1722,1.1579,145.7,97.9,0.484
4.82,31842.2,34633.6,1.1732,1.1618,145.7,97.9,0.484
4.84,31875.6,34523.1,1.1753,1.1554,145.7,97.9,0.484
4.86,31743.5,34476.1,1.1669,1.1527,145.7,97.9,0.484
4.88,31753.7,34538.0,1.1676,1.1563,145.7,97.9,0.484
4.9,31674.0,34550.6,1.1625,1.157,145.7,97.9,0.484
4.92,31967.2,34773.0,1.1811,1.1699,145.7,97.9,0.484
4.94,32011.4,35011.5,1.1839,1.1837,145.7,97.9,0.484
4.96,32234.9,35461.9,1.1981,1.2098,145.7,97.9,0.484
4.98,32245.9,35727.6,1.1988,1.2252,145.7,97.9,0.484
5.0,32314.3,35752.7,1.2031,1.2266,145.7,97.9,0.484
5.02,32156.6,35644.1,1.1931,1.2204,145.7,97.9,0.484
5.04,32280.1,35500.9,1.2009,1.2121,145.7,97.9,0.484
5.06,32032.6,35277.9,1.1853,1.1991,145.7,97.9,0.484
5.08,31950.7,35174.3,1.1801,1.1931,145.7,97.9,0.484
5.1,32012.6,35175.8,1.184,1.1932,145.7,97.9,0.484
5.12,31984.9,35116.8,1.1822,1.1898,145.7,97.9,0.484
5.14,31939.0,34928.1,1.1793,1.1789,145.7,97.9,0.484
5.16,31870.7,34748.9,1.175,1.1685,145.7,97.9,0.484
5.18,31842.2,34692.1,1.1732,1.1652,145.7,97.9,0.484
5.2,31901.7,34606.6,1.177,1.1602,145.7,97.9,0.484
5.22,31813.4,34670.3,1.1714,1.1639,145.7,97.9,0.484
5.24,31885.3,34671.2,1.1759,1.164,145.7,97.9,0.484
5.26,31845.2,34401.6,1.1734,1.1484,145.7,97.9,0.484
5.28,31804.3,34373.4,1.1708,1.1467,145.7,97.9,0.484
5.3,31760.3,34520.6,1.168,1.1553,145.7,97.9,0.484
5.32,31836.6,34609.3,1.1728,1.1604,145.7,97.9,0.484
5.34,31936.4,34921.1,1.1792,1.1785,145.7,97.9,0.484
5.36,32105.8,35317.6,1.1899,1.2014,145.7,97.9,0.484
5.38,32253.1,35597.8,1.1992,1.2177,145.7,97.9,0.484
5.4,32319.7,35778.6,1.2035,1.2281,145.7,97.9,0.484
5.42,32355.1,35705.7,1.2057,1.2239,145.7,97.9,0.484
5.44,32231.7,35591.9,1.1979,1.2173,145.7,97.9,0.484
5.46,32251.2,35271.6,1.1991,1.1988,145.7,97.9,0.484
5.48,32066.3,35239.8,1.1874,1.1969,145.7,97.9,0.484
5.5,32130.7,35133.6,1.1915,1.1908,145.7,97.9,0.484
5.52,32046.6,35006.6,1.1861,1.1834,145.7,97.9,0.484
5.54,32077.1,34959.6,1.1881,1.1807,145.7,97.9,0.484
5.56,31902.8,34868.4,1.177,1.1754,145.7,97.9,0.484
5.58,31872.4,34723.4,1.1751,1.167,145.7,97.9,0.484
5.6,31862.2,34684.8,1.1745,1.1648,145.7,97.9,0.484
5.62,31782.5,34621.4,1.1694,1.1611,145.7,97.9,0.484
5.64,31857.6,34670.9,1.1742,1.164,145.7,97.9,0.484
5.66,31877.3,34624.0,1.1754,1.1612,145.7,97.9,0.484
5.68,31837.0,34487.2,1.1729,1.1533,145.7,97.9,0.484
5.7,31778.3,34463.7,1.1691,1.152,145.7,97.9,0.484
5.72,31848.1,34503.1,1.1736,1.1542,145.7,97.9,0.484
5.74,31859.8,34682.1,1.1743,1.1646,145.7,97.9,0.484
5.76,31991.9,34995.0,1.1827,1.1827,145.7,97.9,0.484
5.78,32108.5,35378.1,1.1901,1.2049,145.7,97.9,0.484
5.8,32318.1,35711.7,1.2033,1.2243,145.7,97.9,0.484
5.82,32346.2,35778.8,1.2051,1.2282,145.7,97.9,0.484
5.84,32238.5,35588.3,1.1983,1.2171,145.7,97.9,0.484
5.86,32228.5,35462.0,1.1977,1.2098,145.7,97.9,0.484
5.88,32139.8,35245.1,1.192,1.1972,145.7,97.9,0.484
5.9,32053.9,35260.0,1.1866,1.1981,145.7,97.9,0.484
5.92,32058.9,35135.3,1.1869,1.1909,145.7,97.9,0.484
5.94,32001.6,35053.6,1.1833,1.1861,145.7,97.9,0.484
5.96,31969.1,35019.4,1.1812,1.1842,145.7,97.9,0.484
5.98,31887.7,34843.6,1.1761,1.174,145.7,97.9,0.484
6.0,31874.4,34641.4,1.1752,1.1623,145.7,97.9,0.484
6.02,31888.1,34697.1,1.1761,1.1655,145.7,97.9,0.484
6.04,31932.2,34653.9,1.1789,1.163,145.7,97.9,0.484
6.06,31816.5,34653.1,1.1716,1.1629,145.7,97.9,0.484
6.08,31760.9,34605.0,1.168,1.1601,145.7,97.9,0.484
6.1,31817.0,34451.3,1.1716,1.1512,145.7,97.9,0.484
6.12,31834.4,34479.9,1.1727,1.1529,145.7,97.9,0.484
6.14,31854.4,34506.9,1.174,1.1545,145.7,97.9,0.484
6.16,31902.8,34729.6,1.177,1.1674,145.7,97.9,0.484
6.18,32136.1,35153.0,1.1918,1.1919,145.7,97.9,0.484
6.2,32129.8,35537.2,1.1914,1.2142,145.7,97.9,0.484
6.22,32431.3,35753.8,1.2105,1.2267,145.7,97.9,0.484
6.24,32330.9,35696.0,1.2042,1.2234,145.7,97.9,0.484
6.26,32270.0,35534.6,1.2003,1.214,145.7,97.9,0.484
6.28,32147.6,35397.4,1.1925,1.2061,145.7,97.9,0.484
6.3,32067.5,35174.2,1.1875,1.1931,145.7,97.9,0.484
6.32,32041.0,35163.9,1.1858,1.1925,145.7,97.9,0.484
6.34,31966.0,35030.9,1.181,1.1848,145.7,97.9,0.484
6.36,32008.4,35011.1,1.1837,1.1837,145.7,97.9,0.484
6.38,31964.3,34948.2,1.1809,1.18,145.7,97.9,0.484
6.4,31900.3,34897.2,1.1769,1.1771,145.7,97.9,0.484
6.42,31828.6,34573.9,1.1723,1.1583,145.7,97.9,0.484
6.44,31753.3,34683.0,1.1676,1.1647,145.7,97.9,0.484
6.46,31879.6,34730.0,1.1756,1.1674,145.7,97.9,0.484
6.48,31749.5,34636.0,1.1673,1.1619,145.7,97.9,0.484
6.5,31936.2,34536.9,1.1791,1.1562,145.7,97.9,0.484
6.52,31719.3,34432.8,1.1654,1.1502,145.7,97.9,0.484
6.54,31783.1,34459.6,1.1694,1.1517,145.7,97.9,0.484
6.56,31886.1,34573.0,1.176,1.1583,145.7,97.9,0.484
6.58,32019.9,34965.6,1.1844,1.181,145.7,97.9,0.484
6.6,32167.0,35262.2,1.1938,1.1982,145.7,97.9,0.484
6.62,32218.3,35568.2,1.197,1.216,145.7,97.9,0.484
6.64,32328.5,35676.6,1.204,1.2222,145.7,97.9,0.484
6.66,32445.7,35679.9,1.2114,1.2224,145.7,97.9,0.484
6.68,32212.1,35502.0,1.1966,1.2121,145.7,97.9,0.484
6.7,32148.1,35372.2,1.1926,1.2046,145.7,97.9,0.484
6.72,32011.9,35190.7,1.1839,1.1941,145.7,97.9,0.484
6.74,32067.2,35057.5,1.1874,1.1864,145.7,97.9,0.484
6.76,31967.3,35069.9,1.1811,1.1871,145.7,97.9,0.484
6.78,32007.7,35000.1,1.1837,1.183,145.7,97.9,0.484
6.8,31962.2,34894.0,1.1808,1.1769,145.7,97.9,0.484
6.82,31823.1,34701.1,1.172,1.1657,145.7,97.9,0.484
6.84,31895.2,34725.9,1.1765,1.1672,145.7,97.9,0.484
6.86,31834.1,34697.3,1.1727,1.1655,145.7,97.9,0.484
6.88,31830.2,34655.9,1.1724,1.1631,145.7,97.9,0.484
6.9,31861.8,34657.6,1.1744,1.1632,145.7,97.9,0.484
6.92,31803.3,34552.0,1.1707,1.1571,145.7,97.9,0.484
6.94,31705.4,34513.1,1.1645,1.1548,145.7,97.9,0.484
6.96,31831.8,34563.8,1.1725,1.1578,145.7,97.9,0.484
6.98,31915.2,34785.8,1.1778,1.1706,145.7,97.9,0.484
7.0,32050.6,35140.2,1.1864,1.1912,145.7,97.9,0.484
7.02,32189.2,35482.9,1.1952,1.211,145.7,97.9,0.484
7.04,32396.6,35741.8,1.2083,1.226,145.7,97.9,0.484
7.06,32371.4,35780.5,1.2067,1.2283,145.7,97.9,0.484
7.08,32254.6,35730.5,1.1993,1.2254,145.7,97.9,0.484
7.1,32266.6,35372.4,1.2001,1.2046,145.7,97.9,0.484
7.12,32137.0,35208.3,1.1919,1.1951,145.7,97.9,0.484
7.14,32012.3,35139.7,1.184,1.1911,145.7,97.9,0.484
7.16,32002.1,35016.3,1.1833,1.184,145.7,97.9,0.484
7.18,32036.5,35010.7,1.1855,1.1837,145.7,97.9,0.484
7.2,31973.0,34820.2,1.1815,1.1726,145.7,97.9,0.484
7.22,31945.1,34812.4,1.1797,1.1722,145.7,97.9,0.484
7.24,31883.1,34706.6,1.1758,1.166,145.7,97.9,0.484
7.26,31815.1,34724.4,1.1715,1.1671,145.7,97.9,0.484
7.28,31867.1,34678.4,1.1748,1.1644,145.7,97.9,0.484
7.3,31849.1,34667.9,1.1736,1.1638,145.7,97.9,0.484
7.32,31766.5,34509.1,1.1684,1.1546,145.7,97.9,0.484
7.34,31742.8,34456.0,1.1669,1.1515,145.7,97.9,0.484
7.36,31781.4,34452.3,1.1693,1.1513,145.7,97.9,0.484
7.38,31827.9,34526.9,1.1723,1.1556,145.7,97.9,0.484
7.4,31984.9,34913.2,1.1822,1.178,145.7,97.9,0.484
7.42,32114.6,35214.3,1.1905,1.1954,145.7,97.9,0.484
7.44,32264.1,35670.4,1.1999,1.2219,145.7,97.9,0.484
7.46,32285.4,35720.0,1.2013,1.2248,145.7,97.9,0.484
7.48,32279.4,35668.6,1.2009,1.2218,145.7,97.9,0.484
7.5,32185.3,35584.2,1.1949,1.2169,145.7,97.9,0.484
7.52,32039.1,35325.1,1.1857,1.2019,145.7,97.9,0.484
7.54,32039.3,35143.8,1.1857,1.1914,145.7,97.9,0.484
7.56,32107.8,35131.5,1.19,1.1907,145.7,97.9,0.484
7.58,31997.9,35073.4,1.1831,1.1873,145.7,97.9,0.484
7.6,32027.8,35018.4,1.1849,1.1841,145.7,97.9,0.484
7.62,32022.0,34922.7,1.1846,1.1786,145.7,97.9,0.484
7.64,31919.2,34740.3,1.1781,1.168,145.7,97.9,0.484
7.66,31819.0,34711.4,1.1717,1.1663,145.7,97.9,0.484
7.68,31851.3,34638.1,1.1738,1.1621,145.7,97.9,0.484
7.7,31903.0,34594.2,1.177,1.1595,145.7,97.9,0.484
7.72,31803.4,34702.8,1.1707,1.1658,145.7,97.9,0.484
7.74,31712.1,34477.2,1.1649,1.1527,145.7,97.9,0.484
7.76,31875.5,34370.7,1.1753,1.1466,145.7,97.9,0.484
7.78,31715.8,34517.1,1.1652,1.1551,145.7,97.9,0.484
7.8,31878.3,34696.9,1.1755,1.1655,145.7,97.9,0.484
7.82,32092.8,35009.1,1.1891,1.1836,145.7,97.9,0.484
7.84,32235.3,35342.9,1.1981,1.2029,145.7,97.9,0.484
7.86,32292.2,35696.1,1.2017,1.2234,145.7,97.9,0.484
7.88,32341.8,35860.2,1.2049,1.2329,145.7,97.9,0.484
7.9,32287.5,35670.5,1.2014,1.2219,145.7,97.9,0.484
7.92,32178.9,35444.7,1.1945,1.2088,145.7,97.9,0.484
7.94,32094.1,35238.8,1.1892,1.1969,145.7,97.9,0.484
7.96,32038.4,35139.6,1.1856,1.1911,145.7,97.9,0.484
7.98,32048.5,34988.3,1.1863,1.1824,145.7,97.9,0.484
8.0,31947.4,35007.3,1.1799,1.1835,145.7,97.9,0.484
8.02,32030.3,34909.1,1.1851,1.1778,145.7,97.9,0.484
8.04,31904.9,34834.6,1.1772,1.1734,145.7,97.9,0.484
8.06,31864.2,34642.9,1.1746,1.1623,145.7,97.9,0.484
8.08,31782.1,34725.7,1.1694,1.1671,145.7,97.9,0.484
8.1,31793.4,34640.9,1.1701,1.1622,145.7,97.9,0.484
8.12,31747.0,34633.0,1.1671,1.1618,145.7,97.9,0.484
8.14,31855.7,34578.7,1.174,1.1586,145.7,97.9,0.484
8.16,31694.2,34521.2,1.1638,1.1553,145.7,97.9,0.484
8.18,31733.2,34357.2,1.1663,1.1458,145.7,97.9,0.484
8.2,31772.8,34591.2,1.1688,1.1593,145.7,97.9,0.484
8.22,31823.8,34869.3,1.172,1.1755,145.7,97.9,0.484
8.24,32059.7,35210.6,1.187,1.1952,145.7,97.9,0.484
8.26,32158.7,35557.5,1.1932,1.2153,145.7,97.9,0.484
8.28,32256.9,35791.9,1.1995,1.2289,145.7,97.9,0.484
8.3,32423.5,35728.3,1.21,1.2252,145.7,97.9,0.484
8.32,32213.9,35554.5,1.1967,1.2152,145.7,97.9,0.484
8.34,32129.4,35348.5,1.1914,1.2032,145.7,97.9,0.484
8.36,32072.1,35185.0,1.1878,1.1938,145.7,97.9,0.484
8.38,31996.2,35094.9,1.1829,1.1885,145.7,97.9,0.484
8.4,32029.8,35069.1,1.1851,1.187,145.7,97.9,0.484
8.42,31933.2,35107.3,1.179,1.1893,145.7,97.9,0.484
8.44,32059.1,34858.4,1.1869,1.1748,145.7,97.9,0.484
8.46,31894.4,34787.6,1.1765,1.1707,145.7,97.9,0.484
8.48,31836.5,34707.4,1.1728,1.1661,145.7,97.9,0.484
8.5,31801.0,34615.1,1.1706,1.1607,145.7,97.9,0.484
8.52,31821.4,34653.0,1.1719,1.1629,145.7,97.9,0.484
8.54,31805.0,34598.2,1.1708,1.1598,145.7,97.9,0.484
8.56,31889.5,34589.0,1.1762,1.1592,145.7,97.9,0.484
8.58,31741.1,34429.3,1.1668,1.15,145.7,97.9,0.484
8.6,31793.3,34431.5,1.1701,1.1501,145.7,97.9,0.484
8.62,31919.7,34764.7,1.1781,1.1694,145.7,97.9,0.484
8.64,32047.7,34974.6,1.1862,1.1816,145.7,97.9,0.484
8.66,32173.6,35240.8,1.1942,1.197,145.7,97.9,0.484
8.68,32281.5,35642.1,1.201,1.2202,145.7,97.9,0.484
8.7,32279.4,35793.4,1.2009,1.229,145.7,97.9,0.484
8.72,32313.7,35648.9,1.2031,1.2206,145.7,97.9,0.484
8.74,32239.2,35423.2,1.1984,1.2076,145.7,97.9,0.484
8.76,32153.9,35293.5,1.1929,1.2,145.7,97.9,0.484
8.78,32128.1,35135.4,1.1913,1.1909,145.7,97.9,0.484
8.8,32196.6,35108.7,1.1956,1.1893,145.7,97.9,0.484
8.82,32093.6,35042.6,1.1891,1.1855,145.7,97.9,0.484
8.84,31887.6,34966.2,1.1761,1.1811,145.7,97.9,0.484
8.86,31925.0,34901.8,1.1784,1.1773,145.7,97.9,0.484
8.88,31887.4,34741.5,1.176,1.1681,145.7,97.9,0.484
8.9,31863.1,34672.2,1.1745,1.164,145.7,97.9,0.484
8.92,31910.0,34596.8,1.1775,1.1597,145.7,97.9,0.484
8.94,31843.9,34674.0,1.1733,1.1641,145.7,97.9,0.484
8.96,31864.0,34623.6,1.1746,1.1612,145.7,97.9,0.484
8.98,31687.5,34541.5,1.1634,1.1565,145.7,97.9,0.484
9.0,31739.7,34402.1,1.1667,1.1484,145.7,97.9,0.484
9.02,31810.3,34658.2,1.1712,1.1632,145.7,97.9,0.484
9.04,31881.7,34805.0,1.1757,1.1717,145.7,97.9,0.484
9.06,32085.7,35124.8,1.1886,1.1903,145.7,97.9,0.484
9.08,32210.8,35468.5,1.1965,1.2102,145.7,97.9,0.484
9.1,32314.2,35655.7,1.2031,1.221,145.7,97.9,0.484
9.12,32338.3,35766.0,1.2046,1.2274,145.7,97.9,0.484
9.14,32229.5,35627.3,1.1977,1.2194,145.7,97.9,0.484
9.16,32123.5,35471.3,1.191,1.2103,145.7,97.9,0.484
9.18,32203.3,35247.5,1.1961,1.1974,145.7,97.9,0.484
9.2,32167.6,35058.8,1.1938,1.1864,145.7,97.9,0.484
9.22,32038.9,35047.8,1.1857,1.1858,145.7,97.9,0.484
9.24,31917.7,35093.4,1.178,1.1884,145.7,97.9,0.484
9.26,31911.6,34849.1,1.1776,1.1743,145.7,97.9,0.484
9.28,31969.5,34805.2,1.1813,1.1717,145.7,97.9,0.484
9.3,31876.6,34676.5,1.1754,1.1643,145.7,97.9,0.484
9.32,31838.3,34684.8,1.1729,1.1648,145.7,97.9,0.484
9.34,31844.9,34810.9,1.1734,1.1721,145.7,97.9,0.484
9.36,31802.5,34720.2,1.1707,1.1668,145.7,97.9,0.484
9.38,31854.0,34577.2,1.1739,1.1585,145.7,97.9,0.484
9.4,31845.6,34504.4,1.1734,1.1543,145.7,97.9,0.484
9.42,31778.5,34462.8,1.1691,1.1519,145.7,97.9,0.484
9.44,31836.8,34634.4,1.1728,1.1618,145.7,97.9,0.484
9.46,31887.7,34820.0,1.1761,1.1726,145.7,97.9,0.484
9.48,32210.4,35204.5,1.1965,1.1949,145.7,97.9,0.484
9.5,32258.5,35572.7,1.1996,1.2162,145.7,97.9,0.484
9.52,32302.8,35712.4,1.2024,1.2243,145.7,97.9,0.484
9.54,32306.3,35634.4,1.2026,1.2198,145.7,97.9,0.484
9.56,32194.5,35480.4,1.1955,1.2109,145.7,97.9,0.484
9.58,32125.8,35227.4,1.1912,1.1962,145.7,97.9,0.484
9.6,32072.7,35161.1,1.1878,1.1924,145.7,97.9,0.484
9.62,31983.1,35134.1,1.1821,1.1908,145.7,97.9,0.484
9.64,31973.5,35167.3,1.1815,1.1927,145.7,97.9,0.484
9.66,31996.1,34957.7,1.1829,1.1806,145.7,97.9,0.484
9.68,31975.3,34904.6,1.1816,1.1775,145.7,97.9,0.484
9.7,31905.3,34707.5,1.1772,1.1661,145.7,97.9,0.484
9.72,31845.1,34776.5,1.1734,1.1701,145.7,97.9,0.484
9.74,31848.1,34724.2,1.1736,1.1671,145.7,97.9,0.484
9.76,31839.8,34656.6,1.173,1.1631,145.7,97.9,0.484
9.78,31830.9,34632.1,1.1725,1.1617,145.7,97.9,0.484
9.8,31738.8,34494.4,1.1666,1.1537,145.7,97.9,0.484
9.82,31779.6,34435.3,1.1692,1.1503,145.7,97.9,0.484
9.84,31784.7,34545.4,1.1695,1.1567,145.7,97.9,0.484
9.86,31916.9,34630.6,1.1779,1.1616,145.7,97.9,0.484
9.88,31943.9,35052.1,1.1796,1.1861,145.7,97.9,0.484
9.9,32259.8,35448.9,1.1997,1.209,145.7,97.9,0.484
9.92,32344.9,35619.4,1.2051,1.2189,145.7,97.9,0.484
9.94,32363.7,35822.0,1.2062,1.2307,145.7,97.9,0.484
9.96,32303.3,35739.7,1.2024,1.2259,145.7,97.9,0.484
9.98,32122.9,35482.8,1.191,1.211,145.7,97.9,0.484
10.0,32144.7,35313.2,1.1924,1.2012,145.7,97.9,0.484
10.02,32144.9,35200.9,1.1924,1.1947,145.7,97.9,0.484
10.04,32064.5,34978.2,1.1873,1.1818,145.7,97.9,0.484
10.06,32073.7,35084.5,1.1879,1.1879,145.7,97.9,0.484
10.08,31991.2,34981.8,1.1826,1.182,145.7,97.9,0.484
10.1,31974.4,34798.8,1.1816,1.1714,145.7,97.9,0.484
10.12,31832.9,34720.5,1.1726,1.1668,145.7,97.9,0.484
10.14,31817.9,34751.4,1.1716,1.1686,145.7,97.9,0.484
10.16,31919.5,34696.7,1.1781,1.1655,145.7,97.9,0.484
10.18,31732.4,34677.1,1.1662,1.1643,145.7,97.9,0.484
10.2,31822.2,34519.3,1.1719,1.1552,145.7,97.9,0.484
10.22,31748.0,34509.3,1.1672,1.1546,145.7,97.9,0.484
10.24,31802.4,34446.1,1.1707,1.1509,145.7,97.9,0.484
10.26,31818.8,34530.0,1.1717,1.1558,145.7,97.9,0.484
10.28,31850.4,34805.8,1.1737,1.1718,145.7,97.9,0.484
10.3,32117.2,35085.4,1.1906,1.188,145.7,97.9,0.484
10.32,32188.8,35540.6,1.1952,1.2144,145.7,97.9,0.484
10.34,32231.4,35820.2,1.1979,1.2306,145.7,97.9,0.484
10.36,32325.3,35693.6,1.2038,1.2232,145.7,97.9,0.484
10.38,32249.3,35591.9,1.199,1.2173,145.7,97.9,0.484
10.4,32206.6,35428.7,1.1963,1.2079,145.7,97.9,0.484
10.42,32050.4,35169.3,1.1864,1.1928,145.7,97.9,0.484
10.44,32083.7,35090.5,1.1885,1.1883,145.7,97.9,0.484
10.46,32090.5,35128.3,1.1889,1.1905,145.7,97.9,0.484
10.48,32010.6,34982.6,1.1839,1.182,145.7,97.9,0.484
10.5,31910.6,34913.2,1.1775,1.178,145.7,97.9,0.484
10.52,31866.9,34749.0,1.1748,1.1685,145.7,97.9,0.484
10.54,31911.2,34742.4,1.1776,1.1681,145.7,97.9,0.484
10.56,31798.8,34703.8,1.1704,1.1659,145.7,97.9,0.484
10.58,31890.2,34653.7,1.1762,1.163,145.7,97.9,0.484
10.6,31771.8,34635.8,1.1687,1.1619,145.7,97.9,0.484
10.62,31781.7,34513.4,1.1693,1.1548,145.7,97.9,0.484
10.64,31743.7,34444.6,1.1669,1.1509,145.7,97.9,0.484
10.66,31699.5,34474.7,1.1641,1.1526,145.7,97.9,0.484
10.68,31817.3,34646.4,1.1716,1.1625,145.7,97.9,0.484
10.7,32005.8,35020.7,1.1836,1.1842,145.7,97.9,0.484
10.72,32203.7,35310.5,1.1961,1.201,145.7,97.9,0.484
10.74,32256.3,35608.9,1.1994,1.2183,145.7,97.9,0.484
10.76,32267.9,35807.1,1.2002,1.2298,145.7,97.9,0.484
10.78,32304.7,35736.7,1.2025,1.2257,145.7,97.9,0.484
10.8,32170.9,35447.9,1.194,1.209,145.7,97.9,0.484
10.82,32119.9,35289.9,1.1908,1.1998,145.7,97.9,0.484
10.84,32025.1,35133.3,1.1848,1.1908,145.7,97.9,0.484
10.86,32077.5,34996.6,1.1881,1.1828,145.7,97.9,0.484
10.88,31969.6,35092.7,1.1813,1.1884,145.7,97.9,0.484
10.9,31963.3,34986.8,1.1809,1.1823,145.7,97.9,0.484
10.92,31957.4,34841.0,1.1805,1.1738,145.7,97.9,0.484
10.94,31904.2,34797.2,1.1771,1.1713,145.7,97.9,0.484
10.96,31814.5,34680.2,1.1714,1.1645,145.7,97.9,0.484
10.98,31893.8,34659.3,1.1765,1.1633,145.7,97.9,0.484
11.0,31775.2,34711.9,1.1689,1.1663,145.7,97.9,0.484
11.02,31775.3,34555.7,1.1689,1.1573,145.7,97.9,0.484
11.04,31856.0,34483.6,1.1741,1.1531,145.7,97.9,0.484
11.06,31653.1,34411.4,1.1612,1.1489,145.7,97.9,0.484
11.08,31779.3,34563.0,1.1692,1.1577,145.7,97.9,0.484
11.1,31913.2,34753.6,1.1777,1.1688,145.7,97.9,0.484
11.12,32047.8,35111.6,1.1862,1.1895,145.7,97.9,0.484
11.14,32228.3,35467.5,1.1977,1.2101,145.7,97.9,0.484
11.16,32440.2,35733.2,1.2111,1.2255,145.7,97.9,0.484
11.18,32354.2,35763.6,1.2056,1.2273,145.7,97.9,0.484
11.2,32232.2,35597.1,1.1979,1.2176,145.7,97.9,0.484
11.22,32109.1,35448.7,1.1901,1.209,145.7,97.9,0.484
11.24,32095.1,35260.9,1.1892,1.1982,145.7,97.9,0.484
11.26,32080.6,35166.2,1.1883,1.1927,145.7,97.9,0.484
11.28,32044.7,35166.7,1.186,1.1927,145.7,97.9,0.484
11.3,31890.3,34960.7,1.1762,1.1808,145.7,97.9,0.484
11.32,32018.7,34878.7,1.1844,1.176,145.7,97.9,0.484
11.34,31909.8,34903.5,1.1775,1.1774,145.7,97.9,0.484
11.36,31928.5,34715.6,1.1787,1.1666,145.7,97.9,0.484
11.38,31902.4,34625.8,1.177,1.1613,145.7,97.9,0.484
11.4,31765.3,34675.4,1.1683,1.1642,145.7,97.9,0.484
11.42,31782.2,34613.9,1.1694,1.1607,145.7,97.9,0.484
11.44,31827.8,34542.9,1.1723,1.1565,145.7,97.9,0.484
11.46,31862.6,34418.6,1.1745,1.1493,145.7,97.9,0.484
11.48,31714.7,34461.8,1.1651,1.1519,145.7,97.9,0.484
11.5,31870.7,34651.0,1.175,1.1628,145.7,97.9,0.484
11.52,31917.3,34801.6,1.1779,1.1715,145.7,97.9,0.484
11.54,32062.6,35282.5,1.1872,1.1994,145.7,97.9,0.484
11.56,32284.1,35561.0,1.2012,1.2155,145.7,97.9,0.484
11.58,32346.9,35794.2,1.2052,1.2291,145.7,97.9,0.484
11.6,32310.1,35806.9,1.2028,1.2298,145.7,97.9,0.484
11.62,32158.0,35539.7,1.1932,1.2143,145.7,97.9,0.484
11.64,32202.0,35255.1,1.196,1.1978,145.7,97.9,0.484
11.66,32098.5,35256.7,1.1894,1.1979,145.7,97.9,0.484
11.68,31995.8,35192.9,1.1829,1.1942,145.7,97.9,0.484
11.7,31957.1,35060.2,1.1805,1.1865,145.7,97.9,0.484
11.72,32050.7,35015.1,1.1864,1.1839,145.7,97.9,0.484
11.74,32021.6,34927.0,1.1846,1.1788,145.7,97.9,0.484
11.76,31906.0,34872.2,1.1772,1.1756,145.7,97.9,0.484
11.78,31857.6,34623.5,1.1742,1.1612,145.7,97.9,0.484
11.8,31745.5,34614.7,1.1671,1.1607,145.7,97.9,0.484
11.82,31848.7,34707.0,1.1736,1.1661,145.7,97.9,0.484
11.84,31935.7,34646.1,1.1791,1.1625,145.7,97.9,0.484
11.86,31791.4,34577.8,1.17,1.1586,145.7,97.9,0.484
11.88,31734.0,34406.6,1.1663,1.1486,145.7,97.9,0.484
11.9,31805.8,34512.8,1.1709,1.1548,145.7,97.9,0.484
11.92,31960.1,34762.0,1.1807,1.1692,145.7,97.9,0.484
11.94,32054.4,35055.4,1.1866,1.1862,145.7,97.9,0.484
11.96,32233.5,35385.2,1.198,1.2054,145.7,97.9,0.484
11.98,32340.0,35700.2,1.2047,1.2236,145.7,97.9,0.484
12.0,32383.3,35776.0,1.2075,1.228,145.7,97.9,0.484
12.02,32252.6,35659.8,1.1992,1.2213,145.7,97.9,0.484
12.04,32188.1,35373.1,1.1951,1.2047,145.7,97.9,0.484
12.06,32146.9,35209.0,1.1925,1.1951,145.7,97.9,0.484
12.08,32176.4,35139.6,1.1944,1.1911,145.7,97.9,0.484
12.1,32036.6,35125.0,1.1855,1.1903,145.7,97.9,0.484
12.12,32032.4,35022.7,1.1852,1.1844,145.7,97.9,0.484
12.14,32026.4,35049.7,1.1849,1.1859,145.7,97.9,0.484
12.16,31965.4,34880.4,1.181,1.1761,145.7,97.9,0.484
12.18,31908.6,34697.8,1.1774,1.1655,145.7,97.9,0.484
12.2,31799.5,34683.0,1.1705,1.1647,145.7,97.9,0.484
12.22,31892.7,34704.2,1.1764,1.1659,145.7,97.9,0.484
12.24,31908.7,34568.2,1.1774,1.158,145.7,97.9,0.484
12.26,31715.0,34602.3,1.1651,1.16,145.7,97.9,0.484
12.28,31829.0,34471.1,1.1724,1.1524,145.7,97.9,0.484
12.3,31785.9,34475.7,1.1696,1.1527,145.7,97.9,0.484
12.32,31763.0,34592.2,1.1682,1.1594,145.7,97.9,0.484
12.34,31865.4,34745.5,1.1747,1.1683,145.7,97.9,0.484
12.36,32032.0,35234.3,1.1852,1.1966,145.7,97.9,0.484
12.38,32234.2,35624.3,1.198,1.2192,145.7,97.9,0.484
12.4,32345.0,35844.1,1.2051,1.2319,145.7,97.9,0.484
12.42,32418.9,35660.7,1.2097,1.2213,145.7,97.9,0.484
12.44,32251.3,35571.8,1.1991,1.2162,145.7,97.9,0.484
12.46,32052.9,35342.9,1.1865,1.2029,145.7,97.9,0.484
12.48,32002.9,35155.3,1.1834,1.192,145.7,97.9,0.484
12.5,32052.9,35171.9,1.1865,1.193,145.7,97.9,0.484
12.52,32052.8,35081.1,1.1865,1.1877,145.7,97.9,0.484
12.54,32035.3,34980.2,1.1854,1.1819,145.7,97.9,0.484
12.56,31924.9,34899.9,1.1784,1.1772,145.7,97.9,0.484
12.58,31880.7,34761.9,1.1756,1.1692,145.7,97.9,0.484
12.6,31939.2,34618.6,1.1793,1.1609,145.7,97.9,0.484
12.62,31911.5,34630.5,1.1776,1.1616,145.7,97.9,0.484
12.64,31915.4,34592.6,1.1778,1.1594,145.7,97.9,0.484
12.66,31802.2,34616.6,1.1707,1.1608,145.7,97.9,0.484
12.68,31772.3,34562.5,1.1688,1.1577,145.7,97.9,0.484
12.7,31822.9,34474.9,1.172,1.1526,145.7,97.9,0.484
12.72,31776.8,34440.2,1.169,1.1506,145.7,97.9,0.484
12.74,31754.1,34596.6,1.1676,1.1597,145.7,97.9,0.484
12.76,31971.7,34977.0,1.1814,1.1817,145.7,97.9,0.484
12.78,32239.7,35332.2,1.1984,1.2023,145.7,97.9,0.484
12.8,32201.7,35586.3,1.196,1.217,145.7,97.9,0.484
12.82,32340.4,35786.2,1.2048,1.2286,145.7,97.9,0.484
12.84,32423.7,35748.6,1.21,1.2264,145.7,97.9,0.484
12.86,32144.0,35486.3,1.1923,1.2112,145.7,97.9,0.484
12.88,32139.3,35363.0,1.192,1.2041,145.7,97.9,0.484
12.9,32035.2,35091.7,1.1854,1.1883,145.7,97.9,0.484
12.92,32046.8,35112.7,1.1862,1.1896,145.7,97.9,0.484
12.94,32072.0,35053.9,1.1877,1.1862,145.7,97.9,0.484
12.96,32066.6,34991.4,1.1874,1.1825,145.7,97.9,0.484
12.98,31907.7,34983.3,1.1773,1.1821,145.7,97.9,0.484
13.0,31882.8,34730.6,1.1758,1.1674,145.7,97.9,0.484
13.02,31858.2,34616.3,1.1742,1.1608,145.7,97.9,0.484
13.04,31800.4,34592.1,1.1705,1.1594,145.7,97.9,0.484
13.06,31848.1,34653.9,1.1736,1.163,145.7,97.9,0.484
13.08,31908.4,34636.8,1.1774,1.162,145.7,97.9,0.484
13.1,31732.3,34561.3,1.1662,1.1576,145.7,97.9,0.484
13.12,31866.0,34374.8,1.1747,1.1468,145.7,97.9,0.484
13.14,31752.6,34580.1,1.1675,1.1587,145.7,97.9,0.484
13.16,31905.8,34759.5,1.1772,1.1691,145.7,97.9,0.484
13.18,32010.2,35118.8,1.1838,1.1899,145.7,97.9,0.484
13.2,32180.4,35534.2,1.1946,1.214,145.7,97.9,0.484
13.22,32332.7,35735.6,1.2043,1.2257,145.7,97.9,0.484
13.24,32285.6,35700.3,1.2013,1.2236,145.7,97.9,0.484
13.26,32264.5,35575.8,1.2,1.2164,145.7,97.9,0.484
13.28,32185.7,35397.2,1.195,1.206,145.7,97.9,0.484
13.3,32157.1,35337.8,1.1931,1.2026,145.7,97.9,0.484
13.32,32059.5,35123.2,1.187,1.1902,145.7,97.9,0.484
13.34,31996.9,35045.4,1.183,1.1857,145.7,97.9,0.484
13.36,32010.5,35076.0,1.1839,1.1874,145.7,97.9,0.484
13.38,31969.8,34915.4,1.1813,1.1781,145.7,97.9,0.484
13.4,31908.4,34771.4,1.1774,1.1698,145.7,97.9,0.484
13.42,32001.9,34799.3,1.1833,1.1714,145.7,97.9,0.484
13.44,31885.3,34672.5,1.1759,1.1641,145.7,97.9,0.484
13.46,31836.0,34712.3,1.1728,1.1664,145.7,97.9,0.484
13.48,31869.7,34568.3,1.1749,1.158,145.7,97.9,0.484
13.5,31817.2,34479.1,1.1716,1.1528,145.7,97.9,0.484
13.52,31763.3,34436.1,1.1682,1.1504,145.7,97.9,0.484
13.54,31806.7,34427.7,1.1709,1.1499,145.7,97.9,0.484
13.56,31763.2,34574.9,1.1682,1.1584,145.7,97.9,0.484
13.58,31912.8,34930.0,1.1777,1.179,145.7,97.9,0.484
13.6,32161.4,35315.5,1.1934,1.2013,145.7,97.9,0.484
13.62,32258.3,35706.1,1.1996,1.2239,145.7,97.9,0.484
13.64,32361.8,35755.0,1.2061,1.2268,145.7,97.9,0.484
13.66,32298.4,35783.1,1.2021,1.2284,145.7,97.9,0.484
13.68,32188.0,35525.4,1.1951,1.2135,145.7,97.9,0.484
13.7,32139.0,35271.9,1.192,1.1988,145.7,97.9,0.484
13.72,32075.0,35199.0,1.1879,1.1946,145.7,97.9,0.484
13.74,32096.5,35164.9,1.1893,1.1926,145.7,97.9,0.484
13.76,32087.3,35037.6,1.1887,1.1852,145.7,97.9,0.484
13.78,32056.3,34981.7,1.1868,1.182,145.7,97.9,0.484
13.8,32000.5,34777.8,1.1832,1.1702,145.7,97.9,0.484
13.82,31850.7,34749.4,1.1737,1.1685,145.7,97.9,0.484
13.84,31946.0,34695.7,1.1798,1.1654,145.7,97.9,0.484
13.86,31781.9,34644.0,1.1694,1.1624,145.7,97.9,0.484
13.88,31825.4,34613.7,1.1721,1.1606,145.7,97.9,0.484
13.9,31880.8,34583.3,1.1756,1.1589,145.7,97.9,0.484
13.92,31679.0,34458.4,1.1628,1.1516,145.7,97.9,0.484
13.94,31753.4,34437.8,1.1676,1.1505,145.7,97.9,0.484
13.96,31752.3,34491.4,1.1675,1.1536,145.7,97.9,0.484
13.98,31947.5,34738.9,1.1799,1.1679,145.7,97.9,0.484
14.0,32049.0,35032.1,1.1863,1.1849,145.7,97.9,0.484
14.02,32239.2,35346.6,1.1984,1.2031,145.7,97.9,0.484
14.04,32307.8,35746.9,1.2027,1.2263,145.7,97.9,0.484
14.06,32341.4,35797.3,1.2048,1.2292,145.7,97.9,0.484
14.08,32295.0,35707.8,1.2019,1.224,145.7,97.9,0.484
14.1,32275.2,35359.4,1.2006,1.2039,145.7,97.9,0.484
14.12,32124.0,35281.1,1.191,1.1993,145.7,97.9,0.484
14.14,32047.5,35075.3,1.1862,1.1874,145.7,97.9,0.484
14.16,32058.0,35155.4,1.1869,1.192,145.7,97.9,0.484
14.18,31938.3,35042.2,1.1793,1.1855,145.7,97.9,0.484
14.2,31981.2,34940.9,1.182,1.1796,145.7,97.9,0.484
14.22,31939.5,34887.8,1.1794,1.1765,145.7,97.9,0.484
14.24,31952.0,34756.1,1.1801,1.1689,145.7,97.9,0.484
14.26,31760.2,34570.3,1.168,1.1581,145.7,97.9,0.484
14.28,31941.6,34767.9,1.1795,1.1696,145.7,97.9,0.484
14.3,31796.8,34653.3,1.1703,1.1629,145.7,97.9,0.484
14.32,31854.9,34527.6,1.174,1.1557,145.7,97.9,0.484
14.34,31784.9,34425.9,1.1696,1.1498,145.7,97.9,0.484
14.36,31675.1,34465.7,1.1626,1.1521,145.7,97.9,0.484
14.38,31786.5,34628.3,1.1697,1.1615,145.7,97.9,0.484
14.4,31912.6,34740.3,1.1776,1.168,145.7,97.9,0.484
14.42,32064.5,35275.7,1.1873,1.199,145.7,97.9,0.484
14.44,32251.2,35492.0,1.1991,1.2115,145.7,97.9,0.484
14.46,32394.7,35736.4,1.2082,1.2257,145.7,97.9,0.484
14.48,32401.5,35763.5,1.2086,1.2273,145.7,97.9,0.484
14.5,32225.4,35591.4,1.1975,1.2173,145.7,97.9,0.484
14.52,32179.5,35308.8,1.1946,1.2009,145.7,97.9,0.484
14.54,32106.4,35226.1,1.1899,1.1961,145.7,97.9,0.484
14.56,32059.1,35177.1,1.1869,1.1933,145.7,97.9,0.484
14.58,32047.3,35142.4,1.1862,1.1913,145.7,97.9,0.484
14.6,32016.4,34982.7,1.1842,1.182,145.7,97.9,0.484
14.62,31940.9,34907.9,1.1794,1.1777,145.7,97.9,0.484
14.64,31933.3,34806.3,1.179,1.1718,145.7,97.9,0.484
14.66,31906.8,34721.6,1.1773,1.1669,145.7,97.9,0.484
14.68,31882.2,34714.6,1.1757,1.1665,145.7,97.9,0.484
14.7,31970.8,34679.9,1.1813,1.1645,145.7,97.9,0.484
14.72,31805.9,34619.7,1.1709,1.161,145.7,97.9,0.484
14.74,31761.1,34480.9,1.168,1.153,145.7,97.9,0.484
14.76,31765.7,34425.5,1.1683,1.1497,145.7,97.9,0.484
14.78,31765.1,34502.3,1.1683,1.1542,145.7,97.9,0.484
14.8,31847.5,34683.6,1.1735,1.1647,145.7,97.9,0.484
14.82,31889.4,35046.3,1.1762,1.1857,145.7,97.9,0.484
14.84,32157.6,35417.0,1.1932,1.2072,145.7,97.9,0.484
14.86,32292.8,35653.2,1.2017,1.2209,145.7,97.9,0.484
14.88,32314.1,35768.4,1.2031,1.2276,145.7,97.9,0.484
14.9,32270.7,35644.4,1.2003,1.2204,145.7,97.9,0.484
14.92,32229.7,35446.4,1.1977,1.2089,145.7,97.9,0.484
14.94,32105.5,35313.7,1.1899,1.2012,145.7,97.9,0.484
14.96,32056.1,35220.4,1.1867,1.1958,145.7,97.9,0.484
14.98,32029.8,35049.0,1.1851,1.1859,145.7,97.9,0.484
15.0,31964.4,34980.5,1.1809,1.1819,145.7,97.9,0.484
15.02,31960.8,34907.0,1.1807,1.1776,145.7,97.9,0.484
15.04,31923.3,34768.9,1.1783,1.1696,145.7,97.9,0.484
15.06,31813.9,34785.8,1.1714,1.1706,145.7,97.9,0.484
15.08,31887.0,34722.8,1.176,1.167,145.7,97.9,0.484
15.1,31899.1,34557.1,1.1768,1.1574,145.7,97.9,0.484
15.12,31830.8,34752.6,1.1725,1.1687,145.7,97.9,0.484
15.14,31809.0,34560.1,1.1711,1.1575,145.7,97.9,0.484
15.16,31847.8,34483.8,1.1735,1.1531,145.7,97.9,0.484
15.18,31713.1,34457.8,1.165,1.1516,145.7,97.9,0.484
15.2,31826.8,34541.3,1.1722,1.1565,145.7,97.9,0.484
15.22,31857.3,34805.3,1.1741,1.1718,145.7,97.9,0.484
15.24,32005.8,35146.2,1.1836,1.1915,145.7,97.9,0.484
15.26,32263.4,35421.4,1.1999,1.2075,145.7,97.9,0.484
15.28,32273.2,35718.4,1.2005,1.2247,145.7,97.9,0.484
15.3,32310.7,35674.2,1.2029,1.2221,145.7,97.9,0.484
15.32,32345.9,35584.7,1.2051,1.2169,145.7,97.9,0.484
15.34,32175.1,35445.8,1.1943,1.2089,145.7,97.9,0.484
15.36,32110.3,35268.4,1.1902,1.1986,145.7,97.9,0.484
15.38,32106.2,35101.9,1.1899,1.1889,145.7,97.9,0.484
15.4,32080.2,35020.0,1.1883,1.1842,145.7,97.9,0.484
15.42,32030.7,34981.8,1.1851,1.182,145.7,97.9,0.484
15.44,31977.2,34844.8,1.1817,1.174,145.7,97.9,0.484
15.46,31884.1,34801.2,1.1758,1.1715,145.7,97.9,0.484
15.48,31840.4,34722.7,1.1731,1.167,145.7,97.9,0.484
15.5,31819.1,34661.1,1.1717,1.1634,145.7,97.9,0.484
15.52,31897.5,34664.5,1.1767,1.1636,145.7,97.9,0.484
15.54,31833.8,34590.8,1.1726,1.1593,145.7,97.9,0.484
15.56,31780.5,34559.4,1.1693,1.1575,145.7,97.9,0.484
15.58,31724.0,34517.2,1.1657,1.1551,145.7,97.9,0.484
15.6,31638.4,34412.0,1.1603,1.149,145.7,97.9,0.484
15.62,31855.7,34649.2,1.174,1.1627,145.7,97.9,0.484
15.64,31926.5,34963.7,1.1785,1.1809,145.7,97.9,0.484
15.66,32108.8,35277.0,1.1901,1.1991,145.7,97.9,0.484
15.68,32251.5,35619.5,1.1991,1.2189,145.7,97.9,0.484
15.7,32311.1,35750.0,1.2029,1.2265,145.7,97.9,0.484
15.72,32304.9,35780.8,1.2025,1.2283,145.7,97.9,0.484
15.74,32227.8,35417.7,1.1976,1.2072,145.7,97.9,0.484
15.76,32203.5,35320.5,1.1961,1.2016,145.7,97.9,0.484
15.78,32147.4,35152.1,1.1925,1.1918,145.7,97.9,0.484
15.8,32016.7,35095.6,1.1842,1.1886,145.7,97.9,0.484
15.82,32028.6,35112.4,1.185,1.1895,145.7,97.9,0.484
15.84,31963.7,34940.0,1.1809,1.1796,145.7,97.9,0.484
15.86,31966.7,34873.4,1.1811,1.1757,145.7,97.9,0.484
15.88,31976.2,34768.2,1.1817,1.1696,145.7,97.9,0.484
15.9,31936.2,34734.8,1.1791,1.1677,145.7,97.9,0.484
15.92,31910.3,34710.0,1.1775,1.1662,145.7,97.9,0.484
15.94,31868.9,34677.9,1.1749,1.1644,145.7,97.9,0.484
15.96,31771.7,34701.1,1.1687,1.1657,145.7,97.9,0.484
15.98,31805.0,34461.5,1.1708,1.1518,145.7,97.9,0.484
16.0,31697.1,34503.6,1.164,1.1543,145.7,97.9,0.484
16.02,31824.9,34467.1,1.1721,1.1522,145.7,97.9,0.484
16.04,31801.2,34669.2,1.1706,1.1639,145.7,97.9,0.484
16.06,31998.2,35031.5,1.1831,1.1849,145.7,97.9,0.484
16.08,32142.5,35424.0,1.1922,1.2076,145.7,97.9,0.484
16.1,32331.1,35696.4,1.2042,1.2234,145.7,97.9,0.484
16.12,32358.7,35741.6,1.2059,1.226,145.7,97.9,0.484
16.14,32282.2,35615.5,1.2011,1.2187,145.7,97.9,0.484
16.16,32142.7,35502.7,1.1922,1.2122,145.7,97.9,0.484
16.18,32194.9,35243.6,1.1955,1.1971,145.7,97.9,0.484
16.2,32015.2,35181.2,1.1842,1.1935,145.7,97.9,0.484
16.22,31976.2,35065.2,1.1817,1.1868,145.7,97.9,0.484
16.24,32027.1,34949.2,1.1849,1.1801,145.7,97.9,0.484
16.26,31912.9,34935.1,1.1777,1.1793,145.7,97.9,0.484
16.28,31994.6,34791.7,1.1828,1.171,145.7,97.9,0.484
16.3,31819.5,34743.7,1.1717,1.1682,145.7,97.9,0.484
16.32,31818.4,34696.4,1.1717,1.1654,145.7,97.9,0.484
16.34,31788.7,34680.1,1.1698,1.1645,145.7,97.9,0.484
16.36,31921.5,34650.0,1.1782,1.1628,145.7,97.9,0.484
16.38,31798.3,34552.5,1.1704,1.1571,145.7,97.9,0.484
16.4,31766.9,34574.8,1.1684,1.1584,145.7,97.9,0.484
16.42,31810.8,34525.5,1.1712,1.1555,145.7,97.9,0.484
16.44,31683.4,34652.9,1.1631,1.1629,145.7,97.9,0.484
16.46,31962.1,34848.1,1.1808,1.1742,145.7,97.9,0.484
16.48,32051.9,35207.4,1.1865,1.1951,145.7,97.9,0.484
16.5,32279.6,35541.0,1.2009,1.2144,145.7,97.9,0.484
16.52,32362.7,35766.0,1.2062,1.2274,145.7,97.9,0.484
16.54,32293.5,35768.7,1.2018,1.2276,145.7,97.9,0.484
16.56,32241.3,35489.3,1.1985,1.2114,145.7,97.9,0.484
16.58,32251.7,35357.2,1.1991,1.2037,145.7,97.9,0.484
16.6,32146.3,35193.3,1.1925,1.1942,145.7,97.9,0.484
16.62,32052.3,35111.7,1.1865,1.1895,145.7,97.9,0.484
16.64,32013.9,35038.3,1.1841,1.1853,145.7,97.9,0.484
16.66,32036.0,35019.9,1.1855,1.1842,145.7,97.9,0.484
16.68,31911.4,34909.6,1.1776,1.1778,145.7,97.9,0.484
16.7,31940.0,34787.5,1.1794,1.1707,145.7,97.9,0.484
16.72,31919.7,34652.1,1.1781,1.1629,145.7,97.9,0.484
16.74,31914.9,34725.7,1.1778,1.1671,145.7,97.9,0.484
16.76,31878.6,34672.1,1.1755,1.164,145.7,97.9,0.484
16.78,31784.2,34514.1,1.1695,1.1549,145.7,97.9,0.484
16.8,31741.4,34530.7,1.1668,1.1558,145.7,97.9,0.484
16.82,31791.1,34501.8,1.1699,1.1542,145.7,97.9,0.484
16.84,31738.2,34442.0,1.1666,1.1507,145.7,97.9,0.484
16.86,31869.0,34654.7,1.1749,1.163,145.7,97.9,0.484
16.88,32016.6,34995.4,1.1842,1.1828,145.7,97.9,0.484
16.9,32249.6,35430.1,1.199,1.208,145.7,97.9,0.484
16.92,32344.1,35661.2,1.205,1.2213,145.7,97.9,0.484
16.94,32348.1,35732.6,1.2053,1.2255,145.7,97.9,0.484
16.96,32288.0,35586.5,1.2014,1.217,145.7,97.9,0.484
16.98,32199.5,35569.8,1.1958,1.2161,145.7,97.9,0.484
17.0,32084.8,35296.3,1.1886,1.2002,145.7,97.9,0.484
17.02,32058.0,35099.6,1.1869,1.1888,145.7,97.9,0.484
17.04,32106.4,35062.8,1.1899,1.1867,145.7,97.9,0.484
17.06,32010.4,35061.8,1.1838,1.1866,145.7,97.9,0.484
17.08,32016.7,35043.9,1.1842,1.1856,145.7,97.9,0.484
17.1,31900.1,34857.1,1.1769,1.1748,145.7,97.9,0.484
17.12,31859.5,34765.8,1.1743,1.1695,145.7,97.9,0.484
17.14,31888.8,34660.0,1.1761,1.1633,145.7,97.9,0.484
17.16,31816.6,34740.3,1.1716,1.168,145.7,97.9,0.484
17.18,31878.0,34700.7,1.1755,1.1657,145.7,97.9,0.484
17.2,31793.3,34636.6,1.1701,1.162,145.7,97.9,0.484
17.22,31775.7,34482.1,1.169,1.153,145.7,97.9,0.484
17.24,31809.6,34488.7,1.1711,1.1534,145.7,97.9,0.484
17.26,31751.7,34550.6,1.1675,1.157,145.7,97.9,0.484
17.28,31877.1,34851.5,1.1754,1.1744,145.7,97.9,0.484
17.3,32039.0,35209.3,1.1857,1.1952,145.7,97.9,0.484
17.32,32226.4,35502.1,1.1975,1.2121,145.7,97.9,0.484
17.34,32275.5,35613.6,1.2006,1.2186,145.7,97.9,0.484
17.36,32339.1,35718.4,1.2047,1.2247,145.7,97.9,0.484
17.38,32245.5,35614.6,1.1987,1.2186,145.7,97.9,0.484
17.4,32143.6,35440.6,1.1923,1.2086,145.7,97.9,0.484
17.42,32084.2,35257.6,1.1885,1.198,145.7,97.9,0.484
17.44,32030.7,35177.3,1.1851,1.1933,145.7,97.9,0.484
17.46,32030.4,35115.8,1.1851,1.1897,145.7,97.9,0.484
17.48,32022.2,35076.8,1.1846,1.1875,145.7,97.9,0.484
17.5,31929.3,34932.6,1.1787,1.1791,145.7,97.9,0.484
17.52,31985.6,34818.9,1.1823,1.1725,145.7,97.9,0.484
17.54,31889.2,34716.8,1.1762,1.1666,145.7,97.9,0.484
17.56,31889.2,34652.3,1.1762,1.1629,145.7,97.9,0.484
17.58,31859.3,34645.9,1.1743,1.1625,145.7,97.9,0.484
17.6,31839.0,34546.4,1.173,1.1568,145.7,97.9,0.484
17.62,31775.9,34532.7,1.169,1.156,145.7,97.9,0.484
17.64,31738.6,34384.3,1.1666,1.1474,145.7,97.9,0.484
17.66,31737.0,34362.9,1.1665,1.1461,145.7,97.9,0.484
17.68,31759.5,34592.9,1.1679,1.1594,145.7,97.9,0.484
17.7,31997.8,34985.0,1.183,1.1822,145.7,97.9,0.484
17.72,32135.6,35307.7,1.1918,1.2009,145.7,97.9,0.484
17.74,32262.7,35546.8,1.1998,1.2147,145.7,97.9,0.484
17.76,32285.5,35749.6,1.2013,1.2265,145.7,97.9,0.484
17.78,32341.6,35683.5,1.2048,1.2226,145.7,97.9,0.484
17.8,32237.4,35513.3,1.1982,1.2128,145.7,97.9,0.484
17.82,32072.7,35344.4,1.1878,1.203,145.7,97.9,0.484
17.84,32154.9,35039.2,1.193,1.1853,145.7,97.9,0.484
17.86,31996.0,35118.6,1.1829,1.1899,145.7,97.9,0.484
17.88,32082.9,35113.6,1.1884,1.1896,145.7,97.9,0.484
17.9,31926.5,34985.1,1.1785,1.1822,145.7,97.9,0.484
17.92,31905.2,34894.8,1.1772,1.1769,145.7,97.9,0.484
17.94,31899.8,34778.6,1.1768,1.1702,145.7,97.9,0.484
17.96,31907.5,34595.5,1.1773,1.1596,145.7,97.9,0.484
17.98,31976.4,34678.7,1.1817,1.1644,145.7,97.9,0.484
18.0,31918.4,34704.1,1.178,1.1659,145.7,97.9,0.484
18.02,31851.8,34631.8,1.1738,1.1617,145.7,97.9,0.484
18.04,31795.9,34549.4,1.1703,1.1569,145.7,97.9,0.484
18.06,31717.7,34513.7,1.1653,1.1549,145.7,97.9,0.484
18.08,31770.3,34559.0,1.1686,1.1575,145.7,97.9,0.484
18.1,31861.7,34759.5,1.1744,1.1691,145.7,97.9,0.484
18.12,32114.0,35059.9,1.1904,1.1865,145.7,97.9,0.484
18.14,32172.5,35433.6,1.1941,1.2082,145.7,97.9,0.484
18.16,32344.2,35668.6,1.205,1.2218,145.7,97.9,0.484
18.18,32358.1,35735.1,1.2059,1.2256,145.7,97.9,0.484
18.2,32295.4,35585.4,1.2019,1.217,145.7,97.9,0.484
18.22,32191.3,35465.5,1.1953,1.21,145.7,97.9,0.484
18.24,32079.9,35222.4,1.1882,1.1959,145.7,97.9,0.484
18.26,31920.4,35161.1,1.1781,1.1924,145.7,97.9,0.484
18.28,32054.7,35058.5,1.1867,1.1864,145.7,97.9,0.484
18.3,32000.9,34967.6,1.1832,1.1812,145.7,97.9,0.484
18.32,32048.6,34953.0,1.1863,1.1803,145.7,97.9,0.484
18.34,31938.7,34834.7,1.1793,1.1735,145.7,97.9,0.484
18.36,31919.2,34732.4,1.1781,1.1675,145.7,97.9,0.484
18.38,31959.0,34725.7,1.1806,1.1671,145.7,97.9,0.484
18.4,31849.8,34644.9,1.1737,1.1625,145.7,97.9,0.484
18.42,31781.4,34640.2,1.1693,1.1622,145.7,97.9,0.484
18.44,31722.1,34513.8,1.1656,1.1549,145.7,97.9,0.484
18.46,31825.3,34489.4,1.1721,1.1535,145.7,97.9,0.484
18.48,31776.4,34362.4,1.169,1.1461,145.7,97.9,0.484
18.5,31862.6,34595.4,1.1745,1.1596,145.7,97.9,0.484
18.52,31923.3,34828.6,1.1783,1.1731,145.7,97.9,0.484
18.54,32039.7,35259.3,1.1857,1.1981,145.7,97.9,0.484
18.56,32250.8,35567.1,1.1991,1.2159,145.7,97.9,0.484
18.58,32323.1,35726.7,1.2037,1.2251,145.7,97.9,0.484
18.6,32406.6,35660.4,1.209,1.2213,145.7,97.9,0.484
18.62,32136.1,35544.2,1.1918,1.2146,145.7,97.9,0.484
18.64,32162.1,35324.2,1.1935,1.2018,145.7,97.9,0.484
18.66,32145.6,35247.7,1.1924,1.1974,145.7,97.9,0.484
18.68,32027.1,35069.4,1.1849,1.1871,145.7,97.9,0.484
18.7,32060.6,35078.2,1.187,1.1876,145.7,97.9,0.484
18.72,31964.9,35054.3,1.181,1.1862,145.7,97.9,0.484
18.74,31974.8,34920.6,1.1816,1.1784,145.7,97.9,0.484
18.76,31943.9,34767.6,1.1796,1.1696,145.7,97.9,0.484
18.78,31838.9,34657.1,1.173,1.1632,145.7,97.9,0.484
18.8,31838.3,34665.8,1.1729,1.1637,145.7,97.9,0.484
18.82,31816.7,34794.7,1.1716,1.1711,145.7,97.9,0.484
18.84,31814.0,34659.9,1.1714,1.1633,145.7,97.9,0.484
18.86,31824.5,34527.8,1.1721,1.1557,145.7,97.9,0.484
18.88,31841.9,34470.2,1.1732,1.1523,145.7,97.9,0.484
18.9,31739.6,34408.6,1.1667,1.1488,145.7,97.9,0.484
18.92,31920.3,34679.5,1.1781,1.1645,145.7,97.9,0.484
18.94,32074.7,35037.4,1.1879,1.1852,145.7,97.9,0.484
18.96,32233.8,35429.3,1.198,1.2079,145.7,97.9,0.484
18.98,32300.8,35691.3,1.2023,1.2231,145.7,97.9,0.484
19.0,32315.1,35728.5,1.2032,1.2252,145.7,97.9,0.484
19.02,32269.2,35737.9,1.2003,1.2258,145.7,97.9,0.484
19.04,32217.7,35496.4,1.197,1.2118,145.7,97.9,0.484
19.06,32197.6,35240.0,1.1957,1.1969,145.7,97.9,0.484
19.08,32123.6,35106.2,1.191,1.1892,145.7,97.9,0.484
19.1,32066.9,35004.3,1.1874,1.1833,145.7,97.9,0.484
19.12,32041.0,35100.2,1.1858,1.1888,145.7,97.9,0.484
19.14,31980.7,34899.0,1.182,1.1772,145.7,97.9,0.484
19.16,31916.9,34816.6,1.1779,1.1724,145.7,97.9,0.484
19.18,31957.7,34798.1,1.1805,1.1713,145.7,97.9,0.484
19.2,31838.7,34778.7,1.173,1.1702,145.7,97.9,0.484
19.22,31827.9,34638.9,1.1723,1.1621,145.7,97.9,0.484
19.24,31883.0,34652.7,1.1758,1.1629,145.7,97.9,0.484
19.26,31831.0,34565.3,1.1725,1.1578,145.7,97.9,0.484
19.28,31818.3,34481.3,1.1717,1.153,145.7,97.9,0.484
19.3,31794.8,34327.8,1.1702,1.1441,145.7,97.9,0.484
19.32,31833.1,34540.9,1.1726,1.1564,145.7,97.9,0.484
19.34,31900.8,34828.2,1.1769,1.1731,145.7,97.9,0.484
19.36,32081.6,35114.1,1.1884,1.1896,145.7,97.9,0.484
19.38,32270.5,35606.5,1.2003,1.2182,145.7,97.9,0.484
19.4,32272.0,35820.0,1.2004,1.2305,145.7,97.9,0.484
19.42,32376.8,35765.8,1.2071,1.2274,145.7,97.9,0.484
19.44,32406.3,35618.0,1.2089,1.2188,145.7,97.9,0.484
19.46,32126.1,35511.3,1.1912,1.2127,145.7,97.9,0.484
19.48,32143.2,35247.0,1.1923,1.1973,145.7,97.9,0.484
19.5,32068.0,35131.2,1.1875,1.1906,145.7,97.9,0.484
19.52,32008.8,35097.4,1.1837,1.1887,145.7,97.9,0.484
19.54,31959.4,34998.0,1.1806,1.1829,145.7,97.9,0.484
19.56,31891.5,34917.7,1.1763,1.1783,145.7,97.9,0.484
19.58,31861.4,34819.7,1.1744,1.1726,145.7,97.9,0.484
19.6,31901.4,34673.4,1.1769,1.1641,145.7,97.9,0.484
19.62,31860.4,34657.2,1.1743,1.1632,145.7,97.9,0.484
19.64,31817.0,34665.2,1.1716,1.1636,145.7,97.9,0.484
19.66,31814.6,34628.5,1.1714,1.1615,145.7,97.9,0.484
19.68,31863.3,34517.2,1.1745,1.1551,145.7,97.9,0.484
19.7,31685.5,34440.2,1.1633,1.1506,145.7,97.9,0.484
19.72,31869.5,34446.8,1.1749,1.151,145.7,97.9,0.484
19.74,31834.0,34605.3,1.1727,1.1602,145.7,97.9,0.484
19.76,31932.0,34881.0,1.1789,1.1761,145.7,97.9,0.484
19.78,32096.4,35279.7,1.1893,1.1992,145.7,97.9,0.484
19.8,32180.0,35641.7,1.1946,1.2202,145.7,97.9,0.484
19.82,32361.1,35713.1,1.2061,1.2244,145.7,97.9,0.484
19.84,32369.0,35710.8,1.2066,1.2242,145.7,97.9,0.484
19.86,32243.8,35586.4,1.1986,1.217,145.7,97.9,0.484
19.88,32086.3,35308.1,1.1887,1.2009,145.7,97.9,0.484
19.9,32088.9,35129.8,1.1888,1.1906,145.7,97.9,0.484
19.92,32040.9,35088.1,1.1858,1.1881,145.7,97.9,0.484
19.94,31942.5,34994.3,1.1795,1.1827,145.7,97.9,0.484
19.96,32013.1,35015.3,1.184,1.1839,145.7,97.9,0.484
19.98,31864.5,34956.3,1.1746,1.1805,145.7,97.9,0.484
20.0,31804.9,34737.2,1.1708,1.1678,145.7,97.9,0.484
20.02,31912.7,34794.9,1.1777,1.1711,145.7,97.9,0.484
20.04,31879.1,34599.2,1.1755,1.1598,145.7,97.9,0.484
20.06,31801.7,34664.5,1.1706,1.1636,145.7,97.9,0.484
20.08,31872.7,34616.2,1.1751,1.1608,145.7,97.9,0.484
20.1,31736.7,34415.7,1.1665,1.1492,145.7,97.9,0.484
20.12,31789.6,34455.5,1.1699,1.1515,145.7,97.9,0.484
20.14,31711.0,34570.3,1.1649,1.1581,145.7,97.9,0.484
20.16,31909.1,34735.5,1.1774,1.1677,145.7,97.9,0.484
20.18,32072.9,35037.8,1.1878,1.1852,145.7,97.9,0.484
20.2,32211.7,35448.2,1.1966,1.209,145.7,97.9,0.484
20.22,32271.6,35731.5,1.2004,1.2254,145.7,97.9,0.484
20.24,32353.9,35758.5,1.2056,1.227,145.7,97.9,0.484
20.26,32311.8,35583.6,1.203,1.2169,145.7,97.9,0.484
20.28,32135.1,35485.3,1.1917,1.2112,145.7,97.9,0.484
20.3,32152.9,35268.4,1.1929,1.1986,145.7,97.9,0.484
20.32,32078.9,35158.3,1.1882,1.1922,145.7,97.9,0.484
20.34,32079.1,35099.0,1.1882,1.1888,145.7,97.9,0.484
20.36,31991.9,34988.9,1.1827,1.1824,145.7,97.9,0.484
20.38,31964.9,34955.1,1.181,1.1804,145.7,97.9,0.484
20.4,31985.6,34886.4,1.1823,1.1765,145.7,97.9,0.484
20.42,31924.6,34786.7,1.1784,1.1707,145.7,97.9,0.484
20.44,31899.3,34638.8,1.1768,1.1621,145.7,97.9,0.484
20.46,31930.7,34630.7,1.1788,1.1616,145.7,97.9,0.484
20.48,31857.7,34672.6,1.1742,1.1641,145.7,97.9,0.484
20.5,31850.7,34557.8,1.1737,1.1574,145.7,97.9,0.484
20.52,31815.7,34508.8,1.1715,1.1546,145.7,97.9,0.484
20.54,31764.1,34404.6,1.1682,1.1485,145.7,97.9,0.484
20.56,31839.9,34517.5,1.173,1.1551,145.7,97.9,0.484
20.58,31843.7,34863.6,1.1733,1.1751,145.7,97.9,0.484
20.6,32039.9,35251.6,1.1857,1.1976,145.7,97.9,0.484
20.62,32196.2,35621.5,1.1956,1.219,145.7,97.9,0.484
20.64,32338.5,35777.7,1.2046,1.2281,145.7,97.9,0.484
20.66,32305.9,35789.1,1.2026,1.2288,145.7,97.9,0.484
20.68,32254.4,35655.5,1.1993,1.221,145.7,97.9,0.484
20.7,32187.3,35292.3,1.1951,1.2,145.7,97.9,0.484
20.72,32114.9,35275.4,1.1905,1.199,145.7,97.9,0.484
20.74,32071.3,35123.0,1.1877,1.1902,145.7,97.9,0.484
20.76,32005.0,35094.2,1.1835,1.1885,145.7,97.9,0.484
20.78,32118.5,34983.8,1.1907,1.1821,145.7,97.9,0.484
20.8,31942.1,34877.2,1.1795,1.1759,145.7,97.9,0.484
20.82,31921.3,34769.5,1.1782,1.1697,145.7,97.9,0.484
20.84,31890.3,34715.9,1.1762,1.1666,145.7,97.9,0.484
20.86,31905.7,34623.2,1.1772,1.1612,145.7,97.9,0.484
20.88,31822.6,34644.8,1.1719,1.1625,145.7,97.9,0.484
20.9,31796.0,34648.0,1.1703,1.1626,145.7,97.9,0.484
20.92,31766.4,34543.2,1.1684,1.1566,145.7,97.9,0.484
20.94,31718.9,34446.0,1.1654,1.1509,145.7,97.9,0.484
20.96,31778.8,34467.3,1.1692,1.1522,145.7,97.9,0.484
20.98,31826.8,34652.4,1.1722,1.1629,145.7,97.9,0.484
21.0,31942.8,35037.1,1.1796,1.1852,145.7,97.9,0.484
21.02,32185.1,35346.2,1.1949,1.2031,145.7,97.9,0.484
21.04,32234.7,35692.1,1.1981,1.2231,145.7,97.9,0.484
21.06,32381.2,35835.8,1.2073,1.2315,145.7,97.9,0.484
21.08,32324.7,35736.7,1.2038,1.2257,145.7,97.9,0.484
21.1,32169.7,35515.4,1.1939,1.2129,145.7,97.9,0.484
21.12,32176.4,35326.0,1.1944,1.2019,145.7,97.9,0.484
21.14,32021.3,35106.2,1.1845,1.1892,145.7,97.9,0.484
21.16,32055.1,35117.9,1.1867,1.1899,145.7,97.9,0.484
21.18,32057.7,35004.5,1.1868,1.1833,145.7,97.9,0.484
21.2,32008.7,35034.7,1.1837,1.185,145.7,97.9,0.484
21.22,31855.1,34862.3,1.174,1.1751,145.7,97.9,0.484
21.24,31800.6,34726.8,1.1706,1.1672,145.7,97.9,0.484
21.26,31810.1,34706.5,1.1712,1.166,145.7,97.9,0.484
21.28,31838.1,34558.0,1.1729,1.1574,145.7,97.9,0.484
21.3,31852.3,34636.3,1.1738,1.162,145.7,97.9,0.484
21.32,31912.1,34625.5,1.1776,1.1613,145.7,97.9,0.484
21.34,31852.0,34473.6,1.1738,1.1525,145.7,97.9,0.484
21.36,31740.3,34396.8,1.1667,1.1481,145.7,97.9,0.484
21.38,31667.9,34524.4,1.1621,1.1555,145.7,97.9,0.484
21.4,31950.1,34845.8,1.18,1.1741,145.7,97.9,0.484
21.42,32092.4,35217.8,1.189,1.1957,145.7,97.9,0.484
21.44,32339.6,35468.7,1.2047,1.2102,145.7,97.9,0.484
21.46,32305.9,35708.3,1.2026,1.2241,145.7,97.9,0.484
21.48,32361.5,35784.6,1.2061,1.2285,145.7,97.9,0.484
21.5,32309.8,35546.9,1.2028,1.2147,145.7,97.9,0.484
21.52,32178.3,35341.7,1.1945,1.2028,145.7,97.9,0.484
21.54,32093.2,35287.8,1.1891,1.1997,145.7,97.9,0.484
21.56,32050.9,35166.5,1.1864,1.1927,145.7,97.9,0.484
21.58,32026.5,35100.7,1.1849,1.1889,145.7,97.9,0.484
21.6,31943.1,35036.4,1.1796,1.1851,145.7,97.9,0.484
21.62,31912.1,34923.9,1.1776,1.1786,145.7,97.9,0.484
21.64,31995.0,34793.2,1.1829,1.1711,145.7,97.9,0.484
21.66,31791.0,34584.2,1.1699,1.1589,145.7,97.9,0.484
21.68,31813.4,34728.1,1.1714,1.1673,145.7,97.9,0.484
21.7,31891.5,34698.1,1.1763,1.1655,145.7,97.9,0.484
21.72,31825.9,34670.3,1.1722,1.1639,145.7,97.9,0.484
21.74,31800.8,34531.9,1.1706,1.1559,145.7,97.9,0.484
21.76,31691.0,34500.2,1.1636,1.1541,145.7,97.9,0.484
21.78,31816.2,34475.8,1.1715,1.1527,145.7,97.9,0.484
21.8,31808.3,34696.0,1.171,1.1654,145.7,97.9,0.484
21.82,31979.2,34870.4,1.1819,1.1755,145.7,97.9,0.484
21.84,32081.2,35240.3,1.1883,1.197,145.7,97.9,0.484
21.86,32252.5,35537.5,1.1992,1.2142,145.7,97.9,0.484
21.88,32240.9,35733.3,1.1985,1.2255,145.7,97.9,0.484
21.9,32293.3,35665.7,1.2018,1.2216,145.7,97.9,0.484
21.92,32168.7,35487.5,1.1939,1.2113,145.7,97.9,0.484
21.94,32110.6,35275.2,1.1902,1.199,145.7,97.9,0.484
21.96,32109.2,35198.9,1.1901,1.1946,145.7,97.9,0.484
21.98,32075.5,35123.0,1.188,1.1902,145.7,97.9,0.484
22.0,32024.0,35111.3,1.1847,1.1895,145.7,97.9,0.484
22.02,31986.0,34882.5,1.1823,1.1762,145.7,97.9,0.484
22.04,31935.1,34840.3,1.1791,1.1738,145.7,97.9,0.484
22.06,31878.5,34835.0,1.1755,1.1735,145.7,97.9,0.484
22.08,31798.2,34635.5,1.1704,1.1619,145.7,97.9,0.484
22.1,31892.0,34651.7,1.1763,1.1628,145.7,97.9,0.484
22.12,31861.1,34638.2,1.1744,1.1621,145.7,97.9,0.484
22.14,31813.3,34600.5,1.1714,1.1599,145.7,97.9,0.484
22.16,31748.3,34467.3,1.1672,1.1522,145.7,97.9,0.484
22.18,31774.4,34450.1,1.1689,1.1512,145.7,97.9,0.484
22.2,31810.1,34459.5,1.1711,1.1517,145.7,97.9,0.484
22.22,31814.6,34787.1,1.1714,1.1707,145.7,97.9,0.484
22.24,31999.1,35071.4,1.1831,1.1872,145.7,97.9,0.484
22.26,32167.3,35525.4,1.1938,1.2135,145.7,97.9,0.484
22.28,32320.3,35767.3,1.2035,1.2275,145.7,97.9,0.484
22.3,32291.6,35722.0,1.2017,1.2249,145.7,97.9,0.484
22.32,32364.7,35631.4,1.2063,1.2196,145.7,97.9,0.484
22.34,32155.3,35377.8,1.193,1.2049,145.7,97.9,0.484
22.36,32094.6,35277.9,1.1892,1.1991,145.7,97.9,0.484
22.38,32091.0,35113.5,1.189,1.1896,145.7,97.9,0.484
22.4,31968.0,35173.3,1.1812,1.1931,145.7,97.9,0.484
22.42,32007.5,35027.7,1.1837,1.1846,145.7,97.9,0.484
22.44,31940.2,34854.2,1.1794,1.1746,145.7,97.9,0.484
22.46,31983.4,34858.9,1.1821,1.1749,145.7,97.9,0.484
22.48,31826.3,34644.9,1.1722,1.1625,145.7,97.9,0.484
22.5,31893.0,34593.2,1.1764,1.1595,145.7,97.9,0.484
22.52,31734.5,34656.9,1.1664,1.1632,145.7,97.9,0.484
22.54,31851.7,34635.8,1.1738,1.1619,145.7,97.9,0.484
22.56,31760.2,34566.1,1.168,1.1579,145.7,97.9,0.484
22.58,31710.2,34495.1,1.1648,1.1538,145.7,97.9,0.484
22.6,31765.1,34419.8,1.1683,1.1494,145.7,97.9,0.484
22.62,31851.3,34540.8,1.1738,1.1564,145.7,97.9,0.484
22.64,32021.9,34811.4,1.1846,1.1721,145.7,97.9,0.484
22.66,32089.4,35177.7,1.1889,1.1933,145.7,97.9,0.484
22.68,32245.2,35584.7,1.1987,1.2169,145.7,97.9,0.484
22.7,32294.2,35786.6,1.2018,1.2286,145.7,97.9,0.484
22.72,32305.2,35747.4,1.2025,1.2263,145.7,97.9,0.484
22.74,32223.6,35478.5,1.1974,1.2108,145.7,97.9,0.484
22.76,32146.2,35284.8,1.1925,1.1995,145.7,97.9,0.484
22.78,32008.1,35134.3,1.1837,1.1908,145.7,97.9,0.484
22.8,32098.0,35024.5,1.1894,1.1845,145.7,97.9,0.484
22.82,32087.6,35130.6,1.1887,1.1906,145.7,97.9,0.484
22.84,31955.7,35022.3,1.1804,1.1843,145.7,97.9,0.484
22.86,31941.9,34829.4,1.1795,1.1731,145.7,97.9,0.484
22.88,31889.2,34765.9,1.1762,1.1695,145.7,97.9,0.484
22.9,31822.2,34662.9,1.1719,1.1635,145.7,97.9,0.484
22.92,31832.5,34582.3,1.1726,1.1588,145.7,97.9,0.484
22.94,31867.0,34695.4,1.1748,1.1654,145.7,97.9,0.484
22.96,31813.2,34634.8,1.1713,1.1619,145.7,97.9,0.484
22.98,31860.8,34522.5,1.1744,1.1554,145.7,97.9,0.484
23.0,31761.0,34398.5,1.168,1.1482,145.7,97.9,0.484
23.02,31686.1,34563.1,1.1633,1.1577,145.7,97.9,0.484
23.04,31885.3,34557.2,1.1759,1.1574,145.7,97.9,0.484
23.06,31975.3,34982.6,1.1816,1.182,145.7,97.9,0.484
23.08,32110.0,35384.4,1.1902,1.2053,145.7,97.9,0.484
23.1,32174.6,35601.1,1.1943,1.2179,145.7,97.9,0.484
23.12,32323.0,35737.6,1.2037,1.2258,145.7,97.9,0.484
23.14,32289.7,35698.9,1.2015,1.2235,145.7,97.9,0.484
23.16,32139.7,35468.2,1.192,1.2102,145.7,97.9,0.484
23.18,32086.0,35344.5,1.1886,1.203,145.7,97.9,0.484
23.2,32030.0,35087.7,1.1851,1.1881,145.7,97.9,0.484
23.22,32100.2,35178.1,1.1895,1.1934,145.7,97.9,0.484
23.24,32049.8,35095.8,1.1863,1.1886,145.7,97.9,0.484
23.26,31860.6,34975.6,1.1743,1.1816,145.7,97.9,0.484
23.28,31972.4,34848.4,1.1814,1.1742,145.7,97.9,0.484
23.3,31915.8,34661.6,1.1779,1.1634,145.7,97.9,0.484
23.32,31877.8,34666.1,1.1754,1.1637,145.7,97.9,0.484
23.34,31757.9,34677.9,1.1678,1.1644,145.7,97.9,0.484
23.36,31816.0,34720.1,1.1715,1.1668,145.7,97.9,0.484
23.38,31811.4,34618.7,1.1712,1.1609,145.7,97.9,0.484
23.4,31769.8,34462.1,1.1686,1.1519,145.7,97.9,0.484
23.42,31717.0,34426.1,1.1652,1.1498,145.7,97.9,0.484
23.44,31752.4,34512.1,1.1675,1.1548,145.7,97.9,0.484
23.46,31873.7,34823.8,1.1752,1.1728,145.7,97.9,0.484
23.48,32181.3,35157.0,1.1947,1.1921,145.7,97.9,0.484
23.5,32382.3,35561.4,1.2074,1.2156,145.7,97.9,0.484
23.52,32274.9,35746.1,1.2006,1.2263,145.7,97.9,0.484
23.54,32306.3,35736.2,1.2026,1.2257,145.7,97.9,0.484
23.56,32260.3,35547.8,1.1997,1.2148,145.7,97.9,0.484
23.58,32174.7,35362.5,1.1943,1.204,145.7,97.9,0.484
23.6,32006.6,35200.4,1.1836,1.1946,145.7,97.9,0.484
23.62,32115.4,35163.9,1.1905,1.1925,145.7,97.9,0.484
23.64,32108.7,35081.9,1.1901,1.1878,145.7,97.9,0.484
23.66,31997.0,35035.4,1.183,1.1851,145.7,97.9,0.484
23.68,32031.1,34869.4,1.1852,1.1755,145.7,97.9,0.484
23.7,31941.6,34862.6,1.1795,1.1751,145.7,97.9,0.484
23.72,31776.0,34800.2,1.169,1.1715,145.7,97.9,0.484
23.74,31905.1,34644.0,1.1772,1.1624,145.7,97.9,0.484
23.76,31804.6,34729.9,1.1708,1.1674,145.7,97.9,0.484
23.78,31833.3,34624.1,1.1726,1.1612,145.7,97.9,0.484
23.8,31852.4,34475.8,1.1738,1.1527,145.7,97.9,0.484
23.82,31780.2,34442.9,1.1693,1.1508,145.7,97.9,0.484
23.84,31648.0,34499.4,1.1609,1.154,145.7,97.9,0.484
23.86,31800.6,34653.3,1.1705,1.1629,145.7,97.9,0.484
23.88,31985.2,34936.2,1.1822,1.1793,145.7,97.9,0.484
23.9,32079.4,35300.4,1.1882,1.2004,145.7,97.9,0.484
23.92,32296.9,35626.4,1.202,1.2193,145.7,97.9,0.484
23.94,32313.2,35805.4,1.203,1.2297,145.7,97.9,0.484
23.96,32236.3,35682.6,1.1982,1.2226,145.7,97.9,0.484
23.98,32195.2,35521.4,1.1956,1.2132,145.7,97.9,0.484
24.0,32172.6,35346.8,1.1941,1.2031,145.7,97.9,0.484
24.02,32187.5,35076.7,1.1951,1.1875,145.7,97.9,0.484
24.04,32027.1,35151.7,1.1849,1.1918,145.7,97.9,0.484
24.06,32094.7,35083.1,1.1892,1.1879,145.7,97.9,0.484
24.08,31990.8,34996.3,1.1826,1.1828,145.7,97.9,0.484
24.1,32069.6,34874.8,1.1876,1.1758,145.7,97.9,0.484
24.12,31972.6,34793.5,1.1814,1.1711,145.7,97.9,0.484
24.14,31758.1,34700.3,1.1679,1.1657,145.7,97.9,0.484
24.16,31822.4,34726.2,1.1719,1.1672,145.7,97.9,0.484
24.18,31866.5,34619.2,1.1747,1.161,145.7,97.9,0.484
24.2,31777.4,34573.0,1.1691,1.1583,145.7,97.9,0.484
24.22,31808.7,34478.1,1.1711,1.1528,145.7,97.9,0.484
24.24,31773.7,34470.7,1.1688,1.1524,145.7,97.9,0.484
24.26,31619.2,34473.9,1.159,1.1525,145.7,97.9,0.484
24.28,31819.7,34761.3,1.1718,1.1692,145.7,97.9,0.484
24.3,32009.2,35082.8,1.1838,1.1878,145.7,97.9,0.484
24.32,32132.3,35444.5,1.1916,1.2088,145.7,97.9,0.484
24.34,32367.3,35740.8,1.2065,1.226,145.7,97.9,0.484
24.36,32322.2,35677.1,1.2036,1.2223,145.7,97.9,0.484
24.38,32226.2,35665.3,1.1975,1.2216,145.7,97.9,0.484
24.4,32209.1,35380.2,1.1964,1.2051,145.7,97.9,0.484
24.42,32041.0,35278.3,1.1858,1.1992,145.7,97.9,0.484
24.44,32071.8,35166.4,1.1877,1.1927,145.7,97.9,0.484
24.46,32033.9,35095.4,1.1853,1.1886,145.7,97.9,0.484
24.48,31957.2,35034.8,1.1805,1.185,145.7,97.9,0.484
24.5,31950.4,34938.2,1.18,1.1795,145.7,97.9,0.484
24.52,31954.6,34746.4,1.1803,1.1683,145.7,97.9,0.484
24.54,31887.5,34723.7,1.1761,1.167,145.7,97.9,0.484
24.56,31910.5,34608.9,1.1775,1.1604,145.7,97.9,0.484
24.58,31826.7,34733.9,1.1722,1.1676,145.7,97.9,0.484
24.6,31859.9,34679.0,1.1743,1.1644,145.7,97.9,0.484
24.62,31852.0,34574.6,1.1738,1.1584,145.7,97.9,0.484
24.64,31861.5,34512.4,1.1744,1.1548,145.7,97.9,0.484
24.66,31780.7,34398.1,1.1693,1.1482,145.7,97.9,0.484
24.68,31829.9,34608.3,1.1724,1.1603,145.7,97.9,0.484
24.7,31968.3,34917.0,1.1812,1.1782,145.7,97.9,0.484
24.72,32106.4,35219.7,1.1899,1.1958,145.7,97.9,0.484
24.74,32209.7,35602.6,1.1965,1.218,145.7,97.9,0.484
24.76,32420.0,35695.8,1.2098,1.2234,145.7,97.9,0.484
24.78,32267.1,35651.4,1.2001,1.2208,145.7,97.9,0.484
24.8,32211.9,35534.2,1.1966,1.214,145.7,97.9,0.484
24.82,32137.0,35302.4,1.1919,1.2006,145.7,97.9,0.484
24.84,32089.4,35243.0,1.1889,1.1971,145.7,97.9,0.484
24.86,32041.5,34951.5,1.1858,1.1802,145.7,97.9,0.484
24.88,32015.1,35053.5,1.1841,1.1861,145.7,97.9,0.484
24.9,32072.3,34942.4,1.1878,1.1797,145.7,97.9,0.484
24.92,31944.4,34924.8,1.1797,1.1787,145.7,97.9,0.484
24.94,31911.8,34754.2,1.1776,1.1688,145.7,97.9,0.484
24.96,31911.7,34647.3,1.1776,1.1626,145.7,97.9,0.484
24.98,31894.7,34731.8,1.1765,1.1675,145.7,97.9,0.484
25.0,31823.9,34637.4,1.172,1.162,145.7,97.9,0.484
25.02,31893.7,34595.2,1.1764,1.1596,145.7,97.9,0.484
25.04,31859.9,34521.7,1.1743,1.1553,145.7,97.9,0.484
25.06,31733.0,34390.8,1.1663,1.1477,145.7,97.9,0.484
25.08,31873.5,34494.9,1.1752,1.1538,145.7,97.9,0.484
25.1,31746.0,34604.1,1.1671,1.1601,145.7,97.9,0.484
25.12,32046.3,34959.8,1.1861,1.1807,145.7,97.9,0.484
25.14,32186.5,35486.2,1.195,1.2112,145.7,97.9,0.484
25.16,32314.5,35625.9,1.2031,1.2193,145.7,97.9,0.484
25.18,32280.0,35693.1,1.2009,1.2232,145.7,97.9,0.484
25.2,32273.4,35674.7,1.2005,1.2221,145.7,97.9,0.484
25.22,32185.7,35461.6,1.195,1.2098,145.7,97.9,0.484
25.24,32179.3,35321.6,1.1946,1.2017,145.7,97.9,0.484
25.26,32115.9,35220.2,1.1905,1.1958,145.7,97.9,0.484
25.28,31954.6,35161.3,1.1803,1.1924,145.7,97.9,0.484
25.3,32047.5,35059.8,1.1862,1.1865,145.7,97.9,0.484
25.32,31864.5,35003.6,1.1746,1.1832,145.7,97.9,0.484
25.34,31934.5,34759.7,1.179,1.1691,145.7,97.9,0.484
25.36,31834.7,34699.6,1.1727,1.1656,145.7,97.9,0.484
25.38,31831.2,34752.0,1.1725,1.1687,145.7,97.9,0.484
25.4,31891.1,34702.7,1.1763,1.1658,145.7,97.9,0.484
25.42,31746.3,34621.7,1.1671,1.1611,145.7,97.9,0.484
25.44,31885.4,34615.2,1.1759,1.1607,145.7,97.9,0.484
25.46,31758.1,34488.1,1.1679,1.1534,145.7,97.9,0.484
25.48,31806.0,34417.9,1.1709,1.1493,145.7,97.9,0.484
25.5,31739.9,34569.2,1.1667,1.1581,145.7,97.9,0.484
25.52,32020.0,34791.7,1.1845,1.171,145.7,97.9,0.484
25.54,32141.7,35220.0,1.1922,1.1958,145.7,97.9,0.484
25.56,32171.7,35606.1,1.1941,1.2182,145.7,97.9,0.484
25.58,32286.1,35724.1,1.2013,1.225,145.7,97.9,0.484
25.6,32293.8,35746.5,1.2018,1.2263,145.7,97.9,0.484
25.62,32194.2,35541.5,1.1955,1.2144,145.7,97.9,0.484
25.64,32063.1,35458.4,1.1872,1.2096,145.7,97.9,0.484
25.66,32121.1,35280.7,1.1909,1.1993,145.7,97.9,0.484
25.68,32164.4,35125.3,1.1936,1.1903,145.7,97.9,0.484
25.7,32062.9,35069.0,1.1872,1.187,145.7,97.9,0.484
25.72,32090.7,35041.6,1.1889,1.1854,145.7,97.9,0.484
25.74,31984.7,34945.4,1.1822,1.1799,145.7,97.9,0.484
25.76,31947.5,34754.2,1.1799,1.1688,145.7,97.9,0.484
25.78,31839.4,34690.1,1.173,1.1651,145.7,97.9,0.484
25.8,31855.6,34616.6,1.174,1.1608,145.7,97.9,0.484
25.82,31873.5,34586.1,1.1752,1.1591,145.7,97.9,0.484
25.84,31835.7,34616.6,1.1728,1.1608,145.7,97.9,0.484
25.86,31787.0,34573.3,1.1697,1.1583,145.7,97.9,0.484
25.88,31850.3,34474.9,1.1737,1.1526,145.7,97.9,0.484
25.9,31780.9,34384.2,1.1693,1.1474,145.7,97.9,0.484
25.92,31806.4,34706.3,1.1709,1.166,145.7,97.9,0.484
25.94,32027.6,34959.6,1.1849,1.1807,145.7,97.9,0.484
25.96,32218.7,35246.3,1.197,1.1973,145.7,97.9,0.484
25.98,32298.2,35611.0,1.2021,1.2184,145.7,97.9,0.484
26.0,32316.8,35755.2,1.2033,1.2268,145.7,97.9,0.484
26.02,32308.2,35631.8,1.2027,1.2196,145.7,97.9,0.484
26.04,32118.1,35489.8,1.1907,1.2114,145.7,97.9,0.484
26.06,32034.3,35389.1,1.1854,1.2056,145.7,97.9,0.484
26.08,32049.5,35182.8,1.1863,1.1936,145.7,97.9,0.484
26.1,32071.2,35065.3,1.1877,1.1868,145.7,97.9,0.484
26.12,32055.9,35085.9,1.1867,1.188,145.7,97.9,0.484
26.14,31989.9,35062.8,1.1825,1.1867,145.7,97.9,0.484
26.16,31962.1,34856.3,1.1808,1.1747,145.7,97.9,0.484
26.18,31795.5,34723.0,1.1702,1.167,145.7,97.9,0.484
26.2,31962.7,34639.4,1.1808,1.1621,145.7,97.9,0.484
26.22,31850.8,34675.3,1.1737,1.1642,145.7,97.9,0.484
26.24,31890.2,34651.3,1.1762,1.1628,145.7,97.9,0.484
26.26,31765.2,34570.0,1.1683,1.1581,145.7,97.9,0.484
26.28,31827.5,34514.5,1.1723,1.1549,145.7,97.9,0.484
26.3,31797.2,34478.0,1.1703,1.1528,145.7,97.9,0.484
26.32,31786.6,34504.6,1.1697,1.1543,145.7,97.9,0.484
26.34,31874.8,34801.7,1.1753,1.1715,145.7,97.9,0.484
26.36,31987.6,35176.9,1.1824,1.1933,145.7,97.9,0.484
26.38,32206.0,35461.6,1.1962,1.2098,145.7,97.9,0.484
26.4,32365.8,35611.1,1.2064,1.2184,145.7,97.9,0.484
26.42,32335.0,35834.0,1.2044,1.2314,145.7,97.9,0.484
26.44,32263.0,35630.0,1.1999,1.2195,145.7,97.9,0.484
26.46,32136.2,35478.4,1.1918,1.2108,145.7,97.9,0.484
26.48,32081.3,35346.7,1.1883,1.2031,145.7,97.9,0.484
26.5,32142.2,35074.3,1.1922,1.1873,145.7,97.9,0.484
26.52,32143.1,35059.8,1.1923,1.1865,145.7,97.9,0.484
26.54,31872.0,34964.3,1.1751,1.181,145.7,97.9,0.484
26.56,31880.1,34974.0,1.1756,1.1815,145.7,97.9,0.484
26.58,31916.5,34904.1,1.1779,1.1775,145.7,97.9,0.484
26.6,31896.2,34739.3,1.1766,1.1679,145.7,97.9,0.484
26.62,31846.4,34641.1,1.1734,1.1622,145.7,97.9,0.484
26.64,31854.8,34736.3,1.174,1.1678,145.7,97.9,0.484
26.66,31772.0,34648.3,1.1687,1.1627,145.7,97.9,0.484
26.68,31837.8,34544.9,1.1729,1.1567,145.7,97.9,0.484
26.7,31748.5,34444.7,1.1672,1.1509,145.7,97.9,0.484
26.72,31761.8,34460.9,1.1681,1.1518,145.7,97.9,0.484
26.74,31838.7,34590.0,1.173,1.1593,145.7,97.9,0.484
26.76,31827.1,34864.7,1.1722,1.1752,145.7,97.9,0.484
26.78,32099.1,35226.4,1.1895,1.1962,145.7,97.9,0.484
26.8,32234.3,35488.5,1.198,1.2113,145.7,97.9,0.484
26.82,32254.7,35719.5,1.1993,1.2247,145.7,97.9,0.484
26.84,32222.7,35663.6,1.1973,1.2215,145.7,97.9,0.484
26.86,32155.9,35564.3,1.1931,1.2157,145.7,97.9,0.484
26.88,32182.7,35278.3,1.1948,1.1992,145.7,97.9,0.484
26.9,32101.1,35193.4,1.1896,1.1942,145.7,97.9,0.484
26.92,32068.1,35116.5,1.1875,1.1898,145.7,97.9,0.484
26.94,32041.1,35067.7,1.1858,1.187,145.7,97.9,0.484
26.96,31966.9,35110.0,1.1811,1.1894,145.7,97.9,0.484
26.98,31952.7,34909.0,1.1802,1.1778,145.7,97.9,0.484
27.0,31830.8,34752.7,1.1725,1.1687,145.7,97.9,0.484
27.02,31890.0,34668.0,1.1762,1.1638,145.7,97.9,0.484
27.04,31824.4,34683.8,1.1721,1.1647,145.7,97.9,0.484
27.06,31876.1,34664.5,1.1753,1.1636,145.7,97.9,0.484
27.08,31827.8,34629.1,1.1723,1.1615,145.7,97.9,0.484
27.1,31763.0,34525.6,1.1682,1.1555,145.7,97.9,0.484
27.12,31773.2,34301.4,1.1688,1.1426,145.7,97.9,0.484
27.14,31799.2,34484.0,1.1705,1.1531,145.7,97.9,0.484
27.16,31914.4,34708.5,1.1778,1.1661,145.7,97.9,0.484
27.18,31994.0,35072.6,1.1828,1.1872,145.7,97.9,0.484
27.2,32139.9,35411.4,1.1921,1.2069,145.7,97.9,0.484
27.22,32292.7,35693.0,1.2017,1.2232,145.7,97.9,0.484
27.24,32287.9,35854.1,1.2014,1.2325,145.7,97.9,0.484
27.26,32309.7,35608.3,1.2028,1.2183,145.7,97.9,0.484
27.28,32162.2,35457.2,1.1935,1.2095,145.7,97.9,0.484
27.3,32083.6,35321.2,1.1885,1.2016,145.7,97.9,0.484
27.32,31980.7,35180.1,1.182,1.1935,145.7,97.9,0.484
27.34,32034.6,35032.9,1.1854,1.1849,145.7,97.9,0.484
27.36,31997.4,35060.5,1.183,1.1865,145.7,97.9,0.484
27.38,31964.7,34931.1,1.1809,1.179,145.7,97.9,0.484
27.4,31913.0,34804.9,1.1777,1.1717,145.7,97.9,0.484
27.42,31954.4,34738.2,1.1803,1.1679,145.7,97.9,0.484
27.44,31842.6,34632.0,1.1732,1.1617,145.7,97.9,0.484
27.46,31860.9,34616.2,1.1744,1.1608,145.7,97.9,0.484
27.48,31843.6,34687.7,1.1733,1.1649,145.7,97.9,0.484
27.5,31819.7,34525.7,1.1718,1.1555,145.7,97.9,0.484
27.52,31718.6,34526.6,1.1653,1.1556,145.7,97.9,0.484
27.54,31756.2,34414.9,1.1677,1.1491,145.7,97.9,0.484
27.56,31780.9,34502.3,1.1693,1.1542,145.7,97.9,0.484
27.58,32027.9,34773.0,1.185,1.1699,145.7,97.9,0.484
27.6,32165.1,35195.2,1.1937,1.1943,145.7,97.9,0.484
27.62,32235.2,35524.7,1.1981,1.2134,145.7,97.9,0.484
27.64,32344.6,35701.6,1.205,1.2237,145.7,97.9,0.484
27.66,32327.1,35571.5,1.2039,1.2161,145.7,97.9,0.484
27.68,32279.0,35569.5,1.2009,1.216,145.7,97.9,0.484
27.7,32235.4,35379.0,1.1981,1.205,145.7,97.9,0.484
27.72,32046.5,35202.2,1.1861,1.1948,145.7,97.9,0.484
27.74,32037.6,35090.2,1.1856,1.1883,145.7,97.9,0.484
27.76,32081.5,35065.6,1.1884,1.1868,145.7,97.9,0.484
27.78,32062.3,34949.8,1.1871,1.1801,145.7,97.9,0.484
27.8,31982.7,34957.7,1.1821,1.1806,145.7,97.9,0.484
27.82,31976.2,34769.6,1.1817,1.1697,145.7,97.9,0.484
27.84,31829.1,34632.0,1.1724,1.1617,145.7,97.9,0.484
27.86,31869.3,34737.1,1.1749,1.1678,145.7,97.9,0.484
27.88,31829.0,34792.0,1.1724,1.171,145.7,97.9,0.484
27.9,31837.8,34645.2,1.1729,1.1625,145.7,97.9,0.484
27.92,31726.5,34423.0,1.1659,1.1496,145.7,97.9,0.484
27.94,31720.6,34507.7,1.1655,1.1545,145.7,97.9,0.484
27.96,31743.8,34581.8,1.167,1.1588,145.7,97.9,0.484
27.98,31878.3,34720.2,1.1755,1.1668,145.7,97.9,0.484
28.0,31913.2,34919.3,1.1777,1.1784,145.7,97.9,0.484
28.02,32162.6,35313.3,1.1935,1.2012,145.7,97.9,0.484
28.04,32252.9,35603.0,1.1992,1.218,145.7,97.9,0.484
28.06,32396.4,35698.7,1.2083,1.2235,145.7,97.9,0.484
28.08,32210.3,35747.2,1.1965,1.2263,145.7,97.9,0.484
28.1,32187.7,35484.4,1.1951,1.2111,145.7,97.9,0.484
28.12,32115.9,35311.0,1.1905,1.2011,145.7,97.9,0.484
28.14,32093.1,35242.9,1.1891,1.1971,145.7,97.9,0.484
28.16,32013.8,35134.5,1.1841,1.1908,145.7,97.9,0.484
28.18,32031.6,35050.1,1.1852,1.1859,145.7,97.9,0.484
28.2,32059.2,34951.1,1.1869,1.1802,145.7,97.9,0.484
28.22,31927.6,34815.9,1.1786,1.1724,145.7,97.9,0.484
28.24,31855.9,34707.2,1.1741,1.1661,145.7,97.9,0.484
28.26,31794.9,34779.9,1.1702,1.1703,145.7,97.9,0.484
28.28,31830.1,34704.2,1.1724,1.1659,145.7,97.9,0.484
28.3,31825.4,34597.4,1.1721,1.1597,145.7,97.9,0.484
28.32,31765.4,34600.4,1.1683,1.1599,145.7,97.9,0.484
28.34,31731.9,34416.8,1.1662,1.1492,145.7,97.9,0.484
28.36,31737.5,34436.5,1.1665,1.1504,145.7,97.9,0.484
28.38,31815.3,34507.9,1.1715,1.1545,145.7,97.9,0.484
28.4,31866.6,34697.3,1.1747,1.1655,145.7,97.9,0.484
28.42,32003.2,35139.2,1.1834,1.1911,145.7,97.9,0.484
28.44,32129.1,35466.4,1.1914,1.2101,145.7,97.9,0.484
28.46,32243.4,35760.0,1.1986,1.2271,145.7,97.9,0.484
28.48,32371.2,35717.1,1.2067,1.2246,145.7,97.9,0.484
28.5,32363.7,35608.6,1.2062,1.2183,145.7,97.9,0.484
28.52,32184.8,35417.0,1.1949,1.2072,145.7,97.9,0.484
28.54,32055.0,35248.8,1.1867,1.1974,145.7,97.9,0.484
28.56,32020.5,35075.3,1.1845,1.1874,145.7,97.9,0.484
28.58,32060.2,35091.9,1.187,1.1884,145.7,97.9,0.484
28.6,32088.9,35041.5,1.1888,1.1854,145.7,97.9,0.484
28.62,31862.5,34945.2,1.1745,1.1799,145.7,97.9,0.484
28.64,31937.0,34768.3,1.1792,1.1696,145.7,97.9,0.484
28.66,31840.5,34697.3,1.1731,1.1655,145.7,97.9,0.484
28.68,31756.9,34730.7,1.1678,1.1674,145.7,97.9,0.484
28.7,31908.0,34637.6,1.1774,1.162,145.7,97.9,0.484
28.72,31837.4,34602.4,1.1729,1.16,145.7,97.9,0.484
28.74,31777.7,34581.2,1.1691,1.1588,145.7,97.9,0.484
28.76,31811.1,34435.3,1.1712,1.1503,145.7,97.9,0.484
28.78,31706.6,34444.0,1.1646,1.1508,145.7,97.9,0.484
28.8,31706.7,34576.3,1.1646,1.1585,145.7,97.9,0.484
28.82,31883.0,34851.2,1.1758,1.1744,145.7,97.9,0.484
28.84,32051.8,35246.7,1.1865,1.1973,145.7,97.9,0.484
28.86,32176.8,35546.5,1.1944,1.2147,145.7,97.9,0.484
28.88,32262.5,35807.1,1.1998,1.2298,145.7,97.9,0.484
28.9,32341.5,35662.6,1.2048,1.2214,145.7,97.9,0.484
28.92,32214.5,35503.8,1.1968,1.2122,145.7,97.9,0.484
28.94,32065.8,35280.8,1.1874,1.1993,145.7,97.9,0.484
28.96,32116.2,35084.2,1.1906,1.1879,145.7,97.9,0.484
28.98,32090.5,35203.9,1.1889,1.1949,145.7,97.9,0.484
29.0,31903.6,35086.7,1.1771,1.1881,145.7,97.9,0.484
29.02,32009.0,34969.9,1.1838,1.1813,145.7,97.9,0.484
29.04,31971.3,34844.6,1.1814,1.174,145.7,97.9,0.484
29.06,31904.8,34715.0,1.1772,1.1665,145.7,97.9,0.484
29.08,31781.2,34635.4,1.1693,1.1619,145.7,97.9,0.484
29.1,31817.7,34606.1,1.1716,1.1602,145.7,97.9,0.484
29.12,31840.4,34645.8,1.1731,1.1625,145.7,97.9,0.484
29.14,31868.8,34607.5,1.1749,1.1603,145.7,97.9,0.484
29.16,31759.1,34550.5,1.1679,1.157,145.7,97.9,0.484
29.18,31743.7,34437.3,1.1669,1.1504,145.7,97.9,0.484
29.2,31753.2,34447.6,1.1675,1.151,145.7,97.9,0.484
29.22,31764.5,34702.9,1.1683,1.1658,145.7,97.9,0.484
29.24,32057.9,35018.0,1.1869,1.1841,145.7,97.9,0.484
29.26,32132.9,35375.5,1.1916,1.2048,145.7,97.9,0.484
29.28,32271.8,35636.4,1.2004,1.2199,145.7,97.9,0.484
29.3,32341.5,35832.4,1.2048,1.2313,145.7,97.9,0.484
29.32,32321.9,35586.2,1.2036,1.217,145.7,97.9,0.484
29.34,32160.7,35522.9,1.1934,1.2133,145.7,97.9,0.484
29.36,32162.6,35216.1,1.1935,1.1956,145.7,97.9,0.484
29.38,32021.2,35075.8,1.1845,1.1874,145.7,97.9,0.484
29.4,32067.8,35049.4,1.1875,1.1859,145.7,97.9,0.484
29.42,32036.8,35010.6,1.1855,1.1836,145.7,97.9,0.484
29.44,31980.3,34979.9,1.1819,1.1819,145.7,97.9,0.484
29.46,31948.7,34845.3,1.1799,1.1741,145.7,97.9,0.484
29.48,31759.9,34755.0,1.168,1.1688,145.7,97.9,0.484
29.5,31975.8,34778.6,1.1817,1.1702,145.7,97.9,0.484
29.52,31897.6,34623.9,1.1767,1.1612,145.7,97.9,0.484
29.54,31852.1,34660.7,1.1738,1.1634,145.7,97.9,0.484
29.56,31885.2,34689.9,1.1759,1.1651,145.7,97.9,0.484
29.58,31715.5,34478.0,1.1652,1.1528,145.7,97.9,0.484
29.6,31847.0,34428.5,1.1735,1.1499,145.7,97.9,0.484
29.62,31802.7,34536.3,1.1707,1.1562,145.7,97.9,0.484
29.64,31949.9,34877.1,1.18,1.1759,145.7,97.9,0.484
29.66,32101.9,35159.8,1.1896,1.1923,145.7,97.9,0.484
29.68,32245.2,35587.3,1.1987,1.2171,145.7,97.9,0.484
29.7,32334.3,35703.9,1.2044,1.2238,145.7,97.9,0.484
29.72,32283.8,35628.2,1.2012,1.2194,145.7,97.9,0.484
29.74,32290.3,35572.5,1.2016,1.2162,145.7,97.9,0.484
29.76,32234.0,35403.2,1.198,1.2064,145.7,97.9,0.484
29.78,32109.3,35204.2,1.1901,1.1949,145.7,97.9,0.484
29.8,32099.3,35167.6,1.1895,1.1927,145.7,97.9,0.484
29.82,32032.2,35025.6,1.1852,1.1845,145.7,97.9,0.484
29.84,31913.7,34991.0,1.1777,1.1825,145.7,97.9,0.484
29.86,31888.8,34943.5,1.1761,1.1798,145.7,97.9,0.484
29.88,31914.9,34833.7,1.1778,1.1734,145.7,97.9,0.484
29.9,31850.5,34692.0,1.1737,1.1652,145.7,97.9,0.484
29.92,31849.4,34709.5,1.1736,1.1662,145.7,97.9,0.484
29.94,31895.1,34636.2,1.1765,1.162,145.7,97.9,0.484
29.96,31783.2,34663.2,1.1694,1.1635,145.7,97.9,0.484
29.98,31790.1,34628.3,1.1699,1.1615,145.7,97.9,0.484
30.0,31860.0,34582.7,1.1743,1.1589,145.7,97.9,0.484
30.02,31716.4,34576.9,1.1652,1.1585,145.7,97.9,0.484
30.04,31755.4,34575.5,1.1677,1.1584,145.7,97.9,0.484
30.06,31933.6,35010.0,1.179,1.1836,145.7,97.9,0.484
30.08,32067.8,35353.5,1.1875,1.2035,145.7,97.9,0.484
30.1,32235.3,35637.1,1.1981,1.22,145.7,97.9,0.484
30.12,32445.1,35764.6,1.2114,1.2273,145.7,97.9,0.484
30.14,32302.6,35696.3,1.2024,1.2234,145.7,97.9,0.484
30.16,32277.2,35512.6,1.2008,1.2127,145.7,97.9,0.484
30.18,32146.0,35291.2,1.1924,1.1999,145.7,97.9,0.484
30.2,32113.4,35142.2,1.1904,1.1913,145.7,97.9,0.484
30.22,32110.0,35122.4,1.1902,1.1901,145.7,97.9,0.484
30.24,31949.0,35011.1,1.18,1.1837,145.7,97.9,0.484
30.26,32010.8,34950.2,1.1839,1.1801,145.7,97.9,0.484
30.28,31923.5,34830.5,1.1783,1.1732,145.7,97.9,0.484
30.3,31879.4,34891.1,1.1755,1.1767,145.7,97.9,0.484
30.32,31842.8,34694.4,1.1732,1.1653,145.7,97.9,0.484
30.34,31806.3,34618.0,1.1709,1.1609,145.7,97.9,0.484
30.36,31829.3,34692.3,1.1724,1.1652,145.7,97.9,0.484
30.38,31722.6,34525.3,1.1656,1.1555,145.7,97.9,0.484
30.4,31839.1,34513.6,1.173,1.1548,145.7,97.9,0.484
30.42,31763.7,34389.7,1.1682,1.1477,145.7,97.9,0.484
30.44,31797.8,34521.9,1.1704,1.1553,145.7,97.9,0.484
30.46,31902.7,34663.1,1.177,1.1635,145.7,97.9,0.484
30.48,32046.6,35203.7,1.1861,1.1948,145.7,97.9,0.484
30.5,32149.5,35483.5,1.1927,1.211,145.7,97.9,0.484
30.52,32343.4,35644.1,1.205,1.2204,145.7,97.9,0.484
30.54,32342.2,35795.2,1.2049,1.2291,145.7,97.9,0.484
30.56,32246.9,35673.0,1.1988,1.222,145.7,97.9,0.484
30.58,32170.4,35452.7,1.194,1.2093,145.7,97.9,0.484
30.6,32085.4,35211.4,1.1886,1.1953,145.7,97.9,0.484
30.62,32084.6,35125.6,1.1885,1.1903,145.7,97.9,0.484
30.64,31957.9,34963.0,1.1805,1.1809,145.7,97.9,0.484
30.66,32029.9,34978.1,1.1851,1.1818,145.7,97.9,0.484
30.68,31970.7,34846.8,1.1813,1.1742,145.7,97.9,0.484
30.7,31970.0,34860.4,1.1813,1.1749,145.7,97.9,0.484
30.72,31905.9,34701.8,1.1772,1.1658,145.7,97.9,0.484
30.74,31836.9,34688.7,1.1728,1.165,145.7,97.9,0.484
30.76,31924.2,34640.1,1.1784,1.1622,145.7,97.9,0.484
30.78,31785.2,34652.7,1.1696,1.1629,145.7,97.9,0.484
30.8,31796.0,34555.8,1.1703,1.1573,145.7,97.9,0.484
30.82,31705.9,34420.0,1.1645,1.1494,145.7,97.9,0.484
30.84,31775.0,34458.5,1.1689,1.1517,145.7,97.9,0.484
30.86,31730.4,34568.1,1.1661,1.158,145.7,97.9,0.484
30.88,31929.0,34970.4,1.1787,1.1813,145.7,97.9,0.484
30.9,32121.3,35404.4,1.1909,1.2065,145.7,97.9,0.484
30.92,32264.4,35702.9,1.1999,1.2238,145.7,97.9,0.484
30.94,32236.6,35744.2,1.1982,1.2262,145.7,97.9,0.484
30.96,32251.0,35724.6,1.1991,1.225,145.7,97.9,0.484
30.98,32231.4,35502.0,1.1979,1.2121,145.7,97.9,0.484
31.0,32134.6,35219.5,1.1917,1.1958,145.7,97.9,0.484
31.02,32130.7,35133.1,1.1915,1.1907,145.7,97.9,0.484
31.04,32082.0,35207.1,1.1884,1.195,145.7,97.9,0.484
31.06,32021.0,35098.3,1.1845,1.1887,145.7,97.9,0.484
31.08,32004.1,34988.4,1.1834,1.1824,145.7,97.9,0.484
31.1,31954.3,34891.8,1.1803,1.1768,145.7,97.9,0.484
31.12,31926.6,34722.5,1.1785,1.167,145.7,97.9,0.484
31.14,31855.0,34703.4,1.174,1.1659,145.7,97.9,0.484
31.16,31806.0,34644.9,1.1709,1.1625,145.7,97.9,0.484
31.18,31869.5,34652.7,1.1749,1.1629,145.7,97.9,0.484
31.2,31840.3,34623.7,1.1731,1.1612,145.7,97.9,0.484
31.22,31789.1,34571.4,1.1698,1.1582,145.7,97.9,0.484
31.24,31684.1,34448.4,1.1632,1.1511,145.7,97.9,0.484
31.26,31785.6,34499.3,1.1696,1.154,145.7,97.9,0.484
31.28,31931.8,34705.1,1.1789,1.1659,145.7,97.9,0.484
31.3,32008.9,35002.0,1.1837,1.1831,145.7,97.9,0.484
31.32,32278.1,35396.3,1.2008,1.206,145.7,97.9,0.484
31.34,32331.3,35673.2,1.2042,1.222,145.7,97.9,0.484
31.36,32397.0,35682.9,1.2083,1.2226,145.7,97.9,0.484
31.38,32293.3,35600.2,1.2018,1.2178,145.7,97.9,0.484
31.4,32198.1,35573.3,1.1957,1.2163,145.7,97.9,0.484
31.42,32110.6,35297.6,1.1902,1.2003,145.7,97.9,0.484
31.44,32059.9,35110.6,1.187,1.1894,145.7,97.9,0.484
31.46,32138.2,35061.9,1.1919,1.1866,145.7,97.9,0.484
31.48,31987.8,35051.5,1.1824,1.186,145.7,97.9,0.484
31.5,31985.6,34968.0,1.1823,1.1812,145.7,97.9,0.484
31.52,31998.3,34807.1,1.1831,1.1719,145.7,97.9,0.484
31.54,31905.9,34702.4,1.1772,1.1658,145.7,97.9,0.484
31.56,31854.0,34626.5,1.1739,1.1614,145.7,97.9,0.484
31.58,31862.8,34647.4,1.1745,1.1626,145.7,97.9,0.484
31.6,31843.1,34683.3,1.1732,1.1647,145.7,97.9,0.484
31.62,31717.5,34529.0,1.1653,1.1557,145.7,97.9,0.484
31.64,31760.7,34464.9,1.168,1.152,145.7,97.9,0.484
31.66,31689.5,34523.8,1.1635,1.1554,145.7,97.9,0.484
31.68,31840.2,34577.4,1.1731,1.1585,145.7,97.9,0.484
31.7,31944.8,34767.9,1.1797,1.1696,145.7,97.9,0.484
31.72,32124.6,35207.2,1.1911,1.195,145.7,97.9,0.484
31.74,32183.2,35615.0,1.1948,1.2187,145.7,97.9,0.484
31.76,32423.1,35763.6,1.21,1.2273,145.7,97.9,0.484
31.78,32348.6,35770.3,1.2053,1.2277,145.7,97.9,0.484
31.8,32217.7,35608.6,1.197,1.2183,145.7,97.9,0.484
31.82,32176.4,35366.5,1.1944,1.2043,145.7,97.9,0.484
31.84,32038.5,35195.2,1.1856,1.1943,145.7,97.9,0.484
31.86,32123.0,35089.0,1.191,1.1882,145.7,97.9,0.484
31.88,32032.4,35007.7,1.1852,1.1835,145.7,97.9,0.484
31.9,31996.6,35013.9,1.183,1.1838,145.7,97.9,0.484
31.92,32034.5,34893.9,1.1854,1.1769,145.7,97.9,0.484
31.94,31901.8,34848.0,1.177,1.1742,145.7,97.9,0.484
31.96,31949.6,34689.2,1.18,1.165,145.7,97.9,0.484
31.98,31828.4,34703.6,1.1723,1.1659,145.7,97.9,0.484
32.0,31806.6,34714.7,1.1709,1.1665,145.7,97.9,0.484
32.02,31664.9,34605.7,1.1619,1.1602,145.7,97.9,0.484
32.04,31779.8,34474.2,1.1692,1.1526,145.7,97.9,0.484
32.06,31781.4,34522.5,1.1693,1.1554,145.7,97.9,0.484
32.08,31841.5,34414.5,1.1731,1.1491,145.7,97.9,0.484
32.1,31885.2,34573.8,1.1759,1.1583,145.7,97.9,0.484
32.12,32025.7,35055.1,1.1848,1.1862,145.7,97.9,0.484
32.14,32172.2,35246.7,1.1941,1.1973,145.7,97.9,0.484
32.16,32203.4,35593.1,1.1961,1.2174,145.7,97.9,0.484
32.18,32293.0,35730.6,1.2018,1.2254,145.7,97.9,0.484
32.2,32207.9,35649.9,1.1964,1.2207,145.7,97.9,0.484
32.22,32140.1,35453.5,1.1921,1.2093,145.7,97.9,0.484
32.24,32168.8,35367.1,1.1939,1.2043,145.7,97.9,0.484
32.26,32088.2,35094.4,1.1888,1.1885,145.7,97.9,0.484
32.28,32050.4,35110.8,1.1864,1.1895,145.7,97.9,0.484
32.3,32049.2,35044.8,1.1863,1.1856,145.7,97.9,0.484
32.32,31909.2,34920.2,1.1774,1.1784,145.7,97.9,0.484
32.34,31916.7,34854.0,1.1779,1.1746,145.7,97.9,0.484
32.36,31818.0,34755.9,1.1716,1.1689,145.7,97.9,0.484
32.38,31959.4,34704.8,1.1806,1.1659,145.7,97.9,0.484
32.4,31777.6,34672.5,1.1691,1.1641,145.7,97.9,0.484
32.42,31814.5,34606.1,1.1714,1.1602,145.7,97.9,0.484
32.44,31849.5,34519.7,1.1736,1.1552,145.7,97.9,0.484
32.46,31806.0,34457.7,1.1709,1.1516,145.7,97.9,0.484
32.48,31721.3,34449.6,1.1655,1.1511,145.7,97.9,0.484
32.5,31713.3,34388.9,1.165,1.1476,145.7,97.9,0.484
32.52,31845.9,34806.3,1.1734,1.1718,145.7,97.9,0.484
32.54,31964.9,35116.9,1.181,1.1898,145.7,97.9,0.484
32.56,32168.1,35483.5,1.1938,1.2111,145.7,97.9,0.484
32.58,32286.8,35695.8,1.2014,1.2234,145.7,97.9,0.484
32.6,32368.3,35775.9,1.2065,1.228,145.7,97.9,0.484
32.62,32306.8,35600.4,1.2026,1.2178,145.7,97.9,0.484
32.64,32194.0,35476.4,1.1955,1.2106,145.7,97.9,0.484
32.66,32051.9,35187.0,1.1865,1.1939,145.7,97.9,0.484
32.68,32015.3,35112.9,1.1842,1.1896,145.7,97.9,0.484
32.7,32075.5,35092.9,1.188,1.1884,145.7,97.9,0.484
32.72,32037.1,35085.0,1.1855,1.188,145.7,97.9,0.484
32.74,31960.3,34957.9,1.1807,1.1806,145.7,97.9,0.484
32.76,31928.1,34899.8,1.1786,1.1772,145.7,97.9,0.484
32.78,31917.8,34744.6,1.178,1.1682,145.7,97.9,0.484
32.8,31933.5,34650.7,1.179,1.1628,145.7,97.9,0.484
32.82,31919.6,34686.4,1.1781,1.1649,145.7,97.9,0.484
32.84,31865.2,34660.3,1.1746,1.1633,145.7,97.9,0.484
32.86,31812.6,34549.0,1.1713,1.1569,145.7,97.9,0.484
32.88,31766.8,34384.6,1.1684,1.1474,145.7,97.9,0.484
32.9,31801.5,34420.9,1.1706,1.1495,145.7,97.9,0.484
32.92,31855.4,34578.2,1.174,1.1586,145.7,97.9,0.484
32.94,31999.6,34927.0,1.1832,1.1788,145.7,97.9,0.484
32.96,32107.7,35270.4,1.19,1.1987,145.7,97.9,0.484
32.98,32302.7,35623.3,1.2024,1.2192,145.7,97.9,0.484
33.0,32307.6,35696.6,1.2027,1.2234,145.7,97.9,0.484
33.02,32357.9,35691.8,1.2059,1.2231,145.7,97.9,0.484
33.04,32309.1,35391.2,1.2028,1.2057,145.7,97.9,0.484
33.06,32208.7,35316.7,1.1964,1.2014,145.7,97.9,0.484
33.08,32106.5,35155.7,1.1899,1.1921,145.7,97.9,0.484
33.1,31980.2,35199.8,1.1819,1.1946,145.7,97.9,0.484
33.12,32086.3,34962.8,1.1887,1.1809,145.7,97.9,0.484
33.14,32107.6,34862.9,1.19,1.1751,145.7,97.9,0.484
33.16,31954.9,34964.8,1.1803,1.181,145.7,97.9,0.484
33.18,31965.3,34761.5,1.181,1.1692,145.7,97.9,0.484
33.2,31838.4,34754.8,1.1729,1.1688,145.7,97.9,0.484
33.22,31823.8,34641.4,1.172,1.1623,145.7,97.9,0.484
33.24,31803.7,34533.6,1.1707,1.156,145.7,97.9,0.484
33.26,31735.8,34607.4,1.1664,1.1603,145.7,97.9,0.484
33.28,31765.7,34515.6,1.1683,1.155,145.7,97.9,0.484
33.3,31752.3,34513.3,1.1675,1.1548,145.7,97.9,0.484
33.32,31787.8,34478.0,1.1697,1.1528,145.7,97.9,0.484
33.34,31884.6,34711.0,1.1759,1.1663,145.7,97.9,0.484
33.36,31973.6,35000.6,1.1815,1.1831,145.7,97.9,0.484
33.38,32167.5,35423.2,1.1938,1.2076,145.7,97.9,0.484
33.4,32293.2,35800.8,1.2018,1.2294,145.7,97.9,0.484
33.42,32247.9,35784.0,1.1989,1.2285,145.7,97.9,0.484
33.44,32251.9,35682.4,1.1992,1.2226,145.7,97.9,0.484
33.46,32167.0,35459.2,1.1938,1.2096,145.7,97.9,0.484
33.48,32199.7,35302.8,1.1958,1.2006,145.7,97.9,0.484
33.5,31949.1,35145.5,1.18,1.1915,145.7,97.9,0.484
33.52,32112.4,35134.6,1.1903,1.1908,145.7,97.9,0.484
33.54,31985.7,34955.1,1.1823,1.1804,145.7,97.9,0.484
33.56,32081.7,34941.1,1.1884,1.1796,145.7,97.9,0.484
33.58,31941.9,34777.9,1.1795,1.1702,145.7,97.9,0.484
33.6,31860.9,34731.6,1.1744,1.1675,145.7,97.9,0.484
33.62,31834.4,34706.2,1.1727,1.166,145.7,97.9,0.484
33.64,31877.7,34708.9,1.1754,1.1662,145.7,97.9,0.484
33.66,31770.9,34744.2,1.1687,1.1682,145.7,97.9,0.484
33.68,31826.8,34528.1,1.1722,1.1557,145.7,97.9,0.484
33.7,31849.0,34451.8,1.1736,1.1513,145.7,97.9,0.484
33.72,31733.1,34437.4,1.1663,1.1504,145.7,97.9,0.484
33.74,31800.8,34622.1,1.1706,1.1611,145.7,97.9,0.484
33.76,31884.7,34858.8,1.1759,1.1749,145.7,97.9,0.484
33.78,32030.5,35151.5,1.1851,1.1918,145.7,97.9,0.484
33.8,32204.1,35583.1,1.1961,1.2168,145.7,97.9,0.484
33.82,32254.7,35673.8,1.1993,1.2221,145.7,97.9,0.484
33.84,32354.6,35743.6,1.2057,1.2261,145.7,97.9,0.484
33.86,32214.0,35560.0,1.1968,1.2155,145.7,97.9,0.484
33.88,32192.2,35430.0,1.1954,1.208,145.7,97.9,0.484
33.9,32193.6,35114.4,1.1955,1.1897,145.7,97.9,0.484
33.92,31991.9,35128.6,1.1827,1.1905,145.7,97.9,0.484
33.94,32076.0,35053.3,1.188,1.1861,145.7,97.9,0.484
33.96,32048.4,34971.9,1.1863,1.1814,145.7,97.9,0.484
33.98,31976.0,34894.4,1.1817,1.1769,145.7,97.9,0.484
34.0,31869.0,34782.3,1.1749,1.1704,145.7,97.9,0.484
34.02,31911.0,34707.3,1.1775,1.1661,145.7,97.9,0.484
34.04,31823.6,34646.9,1.172,1.1626,145.7,97.9,0.484
34.06,31916.4,34616.3,1.1779,1.1608,145.7,97.9,0.484
34.08,31905.2,34572.0,1.1772,1.1582,145.7,97.9,0.484
34.1,31725.8,34593.2,1.1658,1.1595,145.7,97.9,0.484
34.12,31775.5,34540.9,1.169,1.1564,145.7,97.9,0.484
34.14,31793.6,34591.8,1.1701,1.1594,145.7,97.9,0.484
34.16,31889.3,34700.8,1.1762,1.1657,145.7,97.9,0.484
34.18,31963.9,34963.8,1.1809,1.1809,145.7,97.9,0.484
34.2,32254.7,35363.4,1.1993,1.2041,145.7,97.9,0.484
34.22,32282.3,35624.2,1.2011,1.2192,145.7,97.9,0.484
34.24,32293.3,35689.1,1.2018,1.223,145.7,97.9,0.484
34.26,32295.2,35620.0,1.2019,1.219,145.7,97.9,0.484
34.28,32149.2,35427.1,1.1926,1.2078,145.7,97.9,0.484
34.3,31997.2,35215.5,1.183,1.1955,145.7,97.9,0.484
34.32,32086.8,35224.5,1.1887,1.196,145.7,97.9,0.484
34.34,32049.5,35113.0,1.1863,1.1896,145.7,97.9,0.484
34.36,32028.6,35027.5,1.185,1.1846,145.7,97.9,0.484
34.38,32028.3,35006.2,1.185,1.1834,145.7,97.9,0.484
34.4,31858.2,34822.5,1.1742,1.1727,145.7,97.9,0.484
34.42,31860.9,34728.2,1.1744,1.1673,145.7,97.9,0.484
34.44,31868.3,34598.3,1.1748,1.1598,145.7,97.9,0.484
34.46,31791.3,34627.5,1.17,1.1614,145.7,97.9,0.484
34.48,31864.3,34725.9,1.1746,1.1671,145.7,97.9,0.484
34.5,31852.0,34634.5,1.1738,1.1619,145.7,97.9,0.484
34.52,31730.3,34524.7,1.1661,1.1555,145.7,97.9,0.484
34.54,31751.9,34588.3,1.1675,1.1592,145.7,97.9,0.484
34.56,31808.7,34536.8,1.1711,1.1562,145.7,97.9,0.484
34.58,31955.1,34659.8,1.1803,1.1633,145.7,97.9,0.484
34.6,32058.0,35118.8,1.1869,1.1899,145.7,97.9,0.484
34.62,32228.1,35420.4,1.1976,1.2074,145.7,97.9,0.484
34.64,32396.1,35770.2,1.2083,1.2277,145.7,97.9,0.484
34.66,32379.9,35788.0,1.2073,1.2287,145.7,97.9,0.484
34.68,32297.1,35560.2,1.202,1.2155,145.7,97.9,0.484
34.7,32246.5,35453.9,1.1988,1.2093,145.7,97.9,0.484
34.72,32155.7,35293.3,1.1931,1.2,145.7,97.9,0.484
34.74,32038.1,35158.6,1.1856,1.1922,145.7,97.9,0.484
34.76,32068.1,35057.2,1.1875,1.1864,145.7,97.9,0.484
34.78,31979.6,35026.1,1.1819,1.1845,145.7,97.9,0.484
34.8,32002.5,34945.3,1.1833,1.1799,145.7,97.9,0.484
34.82,31935.7,34794.2,1.1791,1.1711,145.7,97.9,0.484
34.84,31908.5,34758.2,1.1774,1.169,145.7,97.9,0.484
34.86,31851.5,34578.4,1.1738,1.1586,145.7,97.9,0.484
34.88,31758.6,34697.6,1.1679,1.1655,145.7,97.9,0.484
34.9,31957.8,34698.6,1.1805,1.1656,145.7,97.9,0.484
34.92,31784.2,34523.4,1.1695,1.1554,145.7,97.9,0.484
34.94,31814.5,34452.1,1.1714,1.1513,145.7,97.9,0.484
34.96,31700.6,34550.0,1.1642,1.157,145.7,97.9,0.484
34.98,31882.0,34598.8,1.1757,1.1598,145.7,97.9,0.484
35.0,31978.2,34932.8,1.1818,1.1791,145.7,97.9,0.484
35.02,32076.2,35321.8,1.188,1.2017,145.7,97.9,0.484
35.04,32306.0,35645.1,1.2026,1.2204,145.7,97.9,0.484
35.06,32396.5,35803.3,1.2083,1.2296,145.7,97.9,0.484
35.08,32344.3,35630.6,1.205,1.2196,145.7,97.9,0.484
35.1,32256.5,35560.5,1.1994,1.2155,145.7,97.9,0.484
35.12,32145.5,35312.2,1.1924,1.2011,145.7,97.9,0.484
35.14,32070.1,35109.0,1.1876,1.1894,145.7,97.9,0.484
35.16,31959.4,34994.7,1.1806,1.1827,145.7,97.9,0.484
35.18,32041.7,35045.6,1.1858,1.1857,145.7,97.9,0.484
35.2,31961.8,35013.4,1.1808,1.1838,145.7,97.9,0.484
35.22,32002.2,34909.9,1.1833,1.1778,145.7,97.9,0.484
35.24,32042.3,34738.9,1.1859,1.1679,145.7,97.9,0.484
35.26,31848.3,34624.9,1.1736,1.1613,145.7,97.9,0.484
35.28,31813.6,34784.5,1.1714,1.1705,145.7,97.9,0.484
35.3,31906.5,34650.8,1.1773,1.1628,145.7,97.9,0.484
35.32,31845.5,34552.2,1.1734,1.1571,145.7,97.9,0.484
35.34,31661.2,34525.3,1.1617,1.1555,145.7,97.9,0.484
35.36,31718.9,34485.2,1.1654,1.1532,145.7,97.9,0.484
35.38,31812.0,34494.2,1.1713,1.1537,145.7,97.9,0.484
35.4,31795.7,34731.9,1.1702,1.1675,145.7,97.9,0.484
35.42,32018.6,35026.3,1.1844,1.1846,145.7,97.9,0.484
35.44,32186.0,35435.3,1.195,1.2083,145.7,97.9,0.484
35.46,32284.8,35599.8,1.2012,1.2178,145.7,97.9,0.484
35.48,32376.0,35818.9,1.207,1.2305,145.7,97.9,0.484
35.5,32243.4,35727.5,1.1986,1.2252,145.7,97.9,0.484
35.52,32179.6,35510.3,1.1946,1.2126,145.7,97.9,0.484
35.54,32145.7,35358.6,1.1924,1.2038,145.7,97.9,0.484
35.56,32067.2,35070.3,1.1874,1.1871,145.7,97.9,0.484
35.58,32098.5,35116.3,1.1894,1.1898,145.7,97.9,0.484
35.6,32068.3,35094.1,1.1875,1.1885,145.7,97.9,0.484
35.62,31887.6,35035.2,1.1761,1.1851,145.7,97.9,0.484
35.64,31884.3,34853.2,1.1759,1.1745,145.7,97.9,0.484
35.66,31901.5,34757.6,1.1769,1.169,145.7,97.9,0.484
35.68,31829.1,34691.4,1.1724,1.1652,145.7,97.9,0.484
35.7,31854.4,34638.8,1.174,1.1621,145.7,97.9,0.484
35.72,31857.5,34599.3,1.1742,1.1598,145.7,97.9,0.484
35.74,31809.9,34519.8,1.1711,1.1552,145.7,97.9,0.484
35.76,31756.6,34483.7,1.1678,1.1531,145.7,97.9,0.484
35.78,31675.7,34483.3,1.1626,1.1531,145.7,97.9,0.484
35.8,31717.6,34557.2,1.1653,1.1574,145.7,97.9,0.484
35.82,31960.4,34738.4,1.1807,1.1679,145.7,97.9,0.484
35.84,32173.3,35206.1,1.1942,1.195,145.7,97.9,0.484
35.86,32280.5,35568.1,1.201,1.216,145.7,97.9,0.484
35.88,32341.8,35818.3,1.2049,1.2305,145.7,97.9,0.484
35.9,32308.4,35763.3,1.2027,1.2273,145.7,97.9,0.484
35.92,32338.9,35572.3,1.2047,1.2162,145.7,97.9,0.484
35.94,32061.2,35376.8,1.1871,1.2049,145.7,97.9,0.484
35.96,31990.7,35220.9,1.1826,1.1958,145.7,97.9,0.484
35.98,32091.8,35071.9,1.189,1.1872,145.7,97.9,0.484
36.0,32060.9,35169.7,1.187,1.1929,145.7,97.9,0.484
36.02,31927.4,34960.5,1.1786,1.1807,145.7,97.9,0.484
36.04,31989.3,34931.5,1.1825,1.1791,145.7,97.9,0.484
36.06,31821.9,34782.0,1.1719,1.1704,145.7,97.9,0.484
36.08,31881.2,34625.0,1.1757,1.1613,145.7,97.9,0.484
36.1,31811.6,34759.0,1.1712,1.1691,145.7,97.9,0.484
36.12,31901.3,34657.0,1.1769,1.1632,145.7,97.9,0.484
36.14,31804.9,34728.4,1.1708,1.1673,145.7,97.9,0.484
36.16,31799.0,34550.5,1.1704,1.157,145.7,97.9,0.484
36.18,31800.8,34516.9,1.1706,1.155,145.7,97.9,0.484
36.2,31712.2,34469.2,1.1649,1.1523,145.7,97.9,0.484
36.22,31835.1,34770.5,1.1727,1.1697,145.7,97.9,0.484
36.24,32015.9,34903.8,1.1842,1.1775,145.7,97.9,0.484
36.26,32140.7,35352.4,1.1921,1.2035,145.7,97.9,0.484
36.28,32237.1,35691.9,1.1982,1.2231,145.7,97.9,0.484
36.3,32307.1,35771.0,1.2027,1.2277,145.7,97.9,0.484
36.32,32262.4,35665.7,1.1998,1.2216,145.7,97.9,0.484
36.34,32214.0,35542.7,1.1968,1.2145,145.7,97.9,0.484
36.36,32221.4,35326.3,1.1972,1.2019,145.7,97.9,0.484
36.38,32028.5,35126.4,1.185,1.1904,145.7,97.9,0.484
36.4,32076.5,35022.6,1.188,1.1843,145.7,97.9,0.484
36.42,32072.1,35026.0,1.1878,1.1845,145.7,97.9,0.484
36.44,31906.8,35012.1,1.1773,1.1837,145.7,97.9,0.484
36.46,31848.6,34864.3,1.1736,1.1752,145.7,97.9,0.484
36.48,31887.0,34716.5,1.176,1.1666,145.7,97.9,0.484
36.5,31806.2,34683.0,1.1709,1.1647,145.7,97.9,0.484
36.52,31800.5,34721.4,1.1705,1.1669,145.7,97.9,0.484
36.54,31777.5,34733.6,1.1691,1.1676,145.7,97.9,0.484
36.56,31754.9,34613.2,1.1676,1.1606,145.7,97.9,0.484
36.58,31800.1,34439.8,1.1705,1.1506,145.7,97.9,0.484
36.6,31739.2,34378.4,1.1667,1.147,145.7,97.9,0.484
36.62,31751.7,34524.5,1.1674,1.1555,145.7,97.9,0.484
36.64,31853.5,34733.5,1.1739,1.1676,145.7,97.9,0.484
36.66,32085.0,35124.9,1.1886,1.1903,145.7,97.9,0.484
36.68,32217.2,35495.0,1.197,1.2117,145.7,97.9,0.484
36.7,32271.6,35763.1,1.2004,1.2273,145.7,97.9,0.484
36.72,32343.0,35701.9,1.2049,1.2237,145.7,97.9,0.484
36.74,32336.1,35617.1,1.2045,1.2188,145.7,97.9,0.484
36.76,32086.4,35321.4,1.1887,1.2017,145.7,97.9,0.484
36.78,32118.6,35125.4,1.1907,1.1903,145.7,97.9,0.484
36.8,32056.0,35236.9,1.1867,1.1968,145.7,97.9,0.484
36.82,32042.1,35080.8,1.1859,1.1877,145.7,97.9,0.484
36.84,31987.6,35060.2,1.1824,1.1865,145.7,97.9,0.484
36.86,31928.4,34938.7,1.1786,1.1795,145.7,97.9,0.484
36.88,31947.9,34755.4,1.1799,1.1689,145.7,97.9,0.484
36.9,31909.1,34725.4,1.1774,1.1671,145.7,97.9,0.484
36.92,31851.7,34633.6,1.1738,1.1618,145.7,97.9,0.484
36.94,31819.8,34674.1,1.1718,1.1642,145.7,97.9,0.484
36.96,31824.5,34654.3,1.1721,1.163,145.7,97.9,0.484
36.98,31924.0,34591.8,1.1784,1.1594,145.7,97.9,0.484
37.0,31765.3,34412.4,1.1683,1.149,145.7,97.9,0.484
37.02,31762.3,34393.0,1.1681,1.1479,145.7,97.9,0.484
37.04,31857.8,34678.3,1.1742,1.1644,145.7,97.9,0.484
37.06,31961.6,34946.0,1.1808,1.1799,145.7,97.9,0.484
37.08,32131.7,35315.8,1.1915,1.2013,145.7,97.9,0.484
37.1,32226.4,35568.7,1.1975,1.216,145.7,97.9,0.484
37.12,32154.2,35788.8,1.193,1.2287,145.7,97.9,0.484
37.14,32358.7,35666.3,1.2059,1.2216,145.7,97.9,0.484
37.16,32238.6,35512.1,1.1983,1.2127,145.7,97.9,0.484
37.18,32212.1,35369.5,1.1966,1.2044,145.7,97.9,0.484
37.2,32055.4,35203.9,1.1867,1.1948,145.7,97.9,0.484
37.22,32087.5,35037.7,1.1887,1.1852,145.7,97.9,0.484
37.24,32153.9,35026.7,1.1929,1.1846,145.7,97.9,0.484
37.26,31995.8,35002.3,1.1829,1.1832,145.7,97.9,0.484
37.28,31896.3,34984.0,1.1766,1.1821,145.7,97.9,0.484
37.3,31872.3,34744.7,1.1751,1.1682,145.7,97.9,0.484
37.32,31886.4,34731.4,1.176,1.1675,145.7,97.9,0.484
37.34,31871.9,34620.5,1.1751,1.161,145.7,97.9,0.484
37.36,31883.7,34666.6,1.1758,1.1637,145.7,97.9,0.484
37.38,31743.1,34683.1,1.1669,1.1647,145.7,97.9,0.484
37.4,31730.6,34505.4,1.1661,1.1544,145.7,97.9,0.484
37.42,31754.7,34469.3,1.1676,1.1523,145.7,97.9,0.484
37.44,31706.3,34516.7,1.1646,1.155,145.7,97.9,0.484
37.46,31806.0,34747.3,1.1709,1.1684,145.7,97.9,0.484
37.48,32066.3,35104.3,1.1874,1.1891,145.7,97.9,0.484
37.5,32274.7,35466.6,1.2006,1.2101,145.7,97.9,0.484
37.52,32367.6,35731.7,1.2065,1.2254,145.7,97.9,0.484
37.54,32265.1,35810.8,1.2,1.23,145.7,97.9,0.484
37.56,32201.9,35634.6,1.196,1.2198,145.7,97.9,0.484
37.58,32251.0,35453.5,1.1991,1.2093,145.7,97.9,0.484
37.6,32135.0,35305.1,1.1917,1.2007,145.7,97.9,0.484
37.62,32081.6,35131.5,1.1884,1.1907,145.7,97.9,0.484
37.64,32045.5,35108.0,1.1861,1.1893,145.7,97.9,0.484
37.66,32019.5,34994.6,1.1844,1.1827,145.7,97.9,0.484
37.68,31954.3,34931.6,1.1803,1.1791,145.7,97.9,0.484
37.7,32010.8,34795.5,1.1839,1.1712,145.7,97.9,0.484
37.72,31851.2,34824.6,1.1738,1.1729,145.7,97.9,0.484
37.74,31820.5,34607.8,1.1718,1.1603,145.7,97.9,0.484
37.76,31891.8,34703.6,1.1763,1.1659,145.7,97.9,0.484
37.78,31890.2,34726.0,1.1762,1.1672,145.7,97.9,0.484
37.8,31811.8,34582.9,1.1713,1.1589,145.7,97.9,0.484
37.82,31743.4,34499.0,1.1669,1.154,145.7,97.9,0.484
37.84,31739.0,34447.0,1.1666,1.151,145.7,97.9,0.484
37.86,31728.4,34542.5,1.166,1.1565,145.7,97.9,0.484
37.88,31818.7,34846.8,1.1717,1.1742,145.7,97.9,0.484
37.9,32155.2,35126.0,1.193,1.1903,145.7,97.9,0.484
37.92,32187.6,35519.1,1.1951,1.2131,145.7,97.9,0.484
37.94,32329.7,35754.4,1.2041,1.2267,145.7,97.9,0.484
37.96,32441.3,35748.2,1.2112,1.2264,145.7,97.9,0.484
37.98,32246.2,35626.2,1.1988,1.2193,145.7,97.9,0.484
38.0,32193.7,35392.3,1.1955,1.2058,145.7,97.9,0.484
38.02,32168.8,35178.6,1.1939,1.1934,145.7,97.9,0.484
38.04,32143.1,35075.0,1.1923,1.1874,145.7,97.9,0.484
38.06,32038.7,35185.3,1.1856,1.1938,145.7,97.9,0.484
38.08,31902.1,35014.7,1.177,1.1839,145.7,97.9,0.484
38.1,32018.2,34899.1,1.1843,1.1772,145.7,97.9,0.484
38.12,31824.7,34819.1,1.1721,1.1726,145.7,97.9,0.484
38.14,31884.8,34760.4,1.1759,1.1691,145.7,97.9,0.484
38.16,31881.4,34618.6,1.1757,1.1609,145.7,97.9,0.484
38.18,31787.3,34678.6,1.1697,1.1644,145.7,97.9,0.484
38.2,31890.9,34599.0,1.1763,1.1598,145.7,97.9,0.484
38.22,31802.9,34567.0,1.1707,1.1579,145.7,97.9,0.484
38.24,31864.3,34419.4,1.1746,1.1494,145.7,97.9,0.484
38.26,31842.9,34442.3,1.1732,1.1507,145.7,97.9,0.484
38.28,31844.5,34634.2,1.1733,1.1618,145.7,97.9,0.484
38.3,31993.3,35000.6,1.1828,1.1831,145.7,97.9,0.484
38.32,32176.4,35443.2,1.1944,1.2087,145.7,97.9,0.484
38.34,32407.9,35674.5,1.209,1.2221,145.7,97.9,0.484
38.36,32338.5,35772.5,1.2046,1.2278,145.7,97.9,0.484
38.38,32389.0,35742.5,1.2078,1.2261,145.7,97.9,0.484
38.4,32210.6,35483.9,1.1965,1.2111,145.7,97.9,0.484
38.42,32104.3,35306.2,1.1898,1.2008,145.7,97.9,0.484
38.44,32076.5,35163.4,1.188,1.1925,145.7,97.9,0.484
38.46,32024.3,35155.1,1.1847,1.192,145.7,97.9,0.484
38.48,32011.3,35037.6,1.1839,1.1852,145.7,97.9,0.484
38.5,32040.0,34893.7,1.1857,1.1769,145.7,97.9,0.484
38.52,31864.2,34847.9,1.1746,1.1742,145.7,97.9,0.484
38.54,31953.8,34798.1,1.1803,1.1713,145.7,97.9,0.484
38.56,31876.2,34735.5,1.1753,1.1677,145.7,97.9,0.484
38.58,31903.6,34621.3,1.1771,1.1611,145.7,97.9,0.484
38.6,31871.4,34683.9,1.175,1.1647,145.7,97.9,0.484
38.62,31796.3,34658.3,1.1703,1.1632,145.7,97.9,0.484
38.64,31818.3,34418.1,1.1717,1.1493,145.7,97.9,0.484
38.66,31741.8,34445.2,1.1668,1.1509,145.7,97.9,0.484
38.68,31781.8,34526.7,1.1694,1.1556,145.7,97.9,0.484
38.7,31945.9,34758.7,1.1798,1.1691,145.7,97.9,0.484
38.72,32019.5,35165.5,1.1844,1.1926,145.7,97.9,0.484
38.74,32181.5,35525.4,1.1947,1.2135,145.7,97.9,0.484
38.76,32345.3,35797.3,1.2051,1.2292,145.7,97.9,0.484
38.78,32321.7,35747.8,1.2036,1.2264,145.7,97.9,0.484
38.8,32297.0,35644.0,1.202,1.2204,145.7,97.9,0.484
38.82,32219.2,35446.2,1.1971,1.2089,145.7,97.9,0.484
38.84,32130.7,35226.9,1.1915,1.1962,145.7,97.9,0.484
38.86,32102.2,35141.9,1.1897,1.1913,145.7,97.9,0.484
38.88,32094.5,35020.1,1.1892,1.1842,145.7,97.9,0.484
38.9,31975.0,35040.3,1.1816,1.1854,145.7,97.9,0.484
38.92,31915.0,34867.5,1.1778,1.1754,145.7,97.9,0.484
38.94,31877.2,34827.1,1.1754,1.173,145.7,97.9,0.484
38.96,31902.2,34632.3,1.177,1.1617,145.7,97.9,0.484
38.98,31936.3,34691.9,1.1791,1.1652,145.7,97.9,0.484
39.0,31806.5,34660.1,1.1709,1.1633,145.7,97.9,0.484
39.02,31824.9,34655.1,1.1721,1.163,145.7,97.9,0.484
39.04,31849.9,34509.1,1.1737,1.1546,145.7,97.9,0.484
39.06,31748.1,34371.9,1.1672,1.1466,145.7,97.9,0.484
39.08,31821.7,34477.5,1.1719,1.1528,145.7,97.9,0.484
39.1,31782.9,34614.2,1.1694,1.1607,145.7,97.9,0.484
39.12,31897.4,34944.2,1.1767,1.1798,145.7,97.9,0.484
39.14,32110.9,35368.1,1.1902,1.2044,145.7,97.9,0.484
39.16,32245.2,35741.7,1.1987,1.226,145.7,97.9,0.484
39.18,32299.4,35754.9,1.2022,1.2268,145.7,97.9,0.484
39.2,32300.9,35771.7,1.2023,1.2278,145.7,97.9,0.484
39.22,32247.6,35513.9,1.1989,1.2128,145.7,97.9,0.484
39.24,32203.1,35249.7,1.1961,1.1975,145.7,97.9,0.484
39.26,32090.2,35213.2,1.1889,1.1954,145.7,97.9,0.484
39.28,31999.2,35146.6,1.1831,1.1915,145.7,97.9,0.484
39.3,31979.5,35094.5,1.1819,1.1885,145.7,97.9,0.484
39.32,32044.4,35024.8,1.186,1.1845,145.7,97.9,0.484
39.34,31914.2,34872.4,1.1777,1.1756,145.7,97.9,0.484
39.36,31831.2,34853.2,1.1725,1.1745,145.7,97.9,0.484
39.38,31907.7,34655.3,1.1773,1.1631,145.7,97.9,0.484
39.4,31853.5,34631.4,1.1739,1.1617,145.7,97.9,0.484
39.42,31883.4,34661.8,1.1758,1.1634,145.7,97.9,0.484
39.44,31855.8,34560.2,1.174,1.1576,145.7,97.9,0.484
39.46,31777.9,34480.8,1.1691,1.153,145.7,97.9,0.484
39.48,31775.5,34467.3,1.169,1.1522,145.7,97.9,0.484
39.5,31908.4,34553.2,1.1774,1.1571,145.7,97.9,0.484
39.52,31943.4,34691.4,1.1796,1.1652,145.7,97.9,0.484
39.54,32039.6,35106.8,1.1857,1.1892,145.7,97.9,0.484
39.56,32075.9,35443.4,1.188,1.2087,145.7,97.9,0.484
39.58,32336.9,35703.7,1.2045,1.2238,145.7,97.9,0.484
39.6,32279.9,35789.8,1.2009,1.2288,145.7,97.9,0.484
39.62,32311.5,35643.1,1.2029,1.2203,145.7,97.9,0.484
39.64,32165.1,35407.5,1.1937,1.2066,145.7,97.9,0.484
39.66,32172.9,35311.0,1.1941,1.2011,145.7,97.9,0.484
39.68,32084.3,35229.7,1.1885,1.1963,145.7,97.9,0.484
39.7,31990.7,35054.9,1.1826,1.1862,145.7,97.9,0.484
39.72,31953.5,35018.2,1.1802,1.1841,145.7,97.9,0.484
39.74,31963.5,34900.1,1.1809,1.1772,145.7,97.9,0.484
39.76,31970.6,34801.2,1.1813,1.1715,145.7,97.9,0.484
39.78,31811.2,34744.2,1.1712,1.1682,145.7,97.9,0.484
39.8,31866.1,34715.1,1.1747,1.1665,145.7,97.9,0.484
39.82,31887.1,34691.7,1.176,1.1652,145.7,97.9,0.484
39.84,31879.9,34708.3,1.1756,1.1661,145.7,97.9,0.484
39.86,31844.8,34586.5,1.1733,1.1591,145.7,97.9,0.484
39.88,31741.9,34505.4,1.1668,1.1544,145.7,97.9,0.484
39.9,31812.3,34428.0,1.1713,1.1499,145.7,97.9,0.484
39.92,31790.0,34620.1,1.1699,1.161,145.7,97.9,0.484
39.94,31945.0,34805.2,1.1797,1.1717,145.7,97.9,0.484
39.96,32147.7,35188.6,1.1925,1.194,145.7,97.9,0.484
39.98,32227.9,35502.7,1.1976,1.2122,145.7,97.9,0.484
40.0,32272.6,35721.1,1.2005,1.2248,145.7,97.9,0.484
40.02,32346.0,35721.6,1.2051,1.2248,145.7,97.9,0.484
40.04,32151.2,35559.0,1.1928,1.2154,145.7,97.9,0.484
40.06,32260.2,35354.6,1.1997,1.2036,145.7,97.9,0.484
40.08,32062.5,35211.2,1.1872,1.1953,145.7,97.9,0.484
40.1,32029.3,35177.4,1.185,1.1933,145.7,97.9,0.484
40.12,32081.6,35030.0,1.1884,1.1848,145.7,97.9,0.484
40.14,32024.7,34989.7,1.1847,1.1824,145.7,97.9,0.484
40.16,31955.0,34825.3,1.1803,1.1729,145.7,97.9,0.484
40.18,31935.7,34714.2,1.1791,1.1665,145.7,97.9,0.484
40.2,31833.0,34651.9,1.1726,1.1629,145.7,97.9,0.484
40.22,31716.2,34623.3,1.1652,1.1612,145.7,97.9,0.484
40.24,31856.3,34559.3,1.1741,1.1575,145.7,97.9,0.484
40.26,31958.6,34614.2,1.1806,1.1607,145.7,97.9,0.484
40.28,31775.5,34556.9,1.169,1.1574,145.7,97.9,0.484
40.3,31757.7,34414.8,1.1678,1.1491,145.7,97.9,0.484
40.32,31778.6,34456.7,1.1692,1.1516,145.7,97.9,0.484
40.34,31955.2,34607.5,1.1803,1.1603,145.7,97.9,0.484
40.36,32039.6,34984.6,1.1857,1.1821,145.7,97.9,0.484
40.38,32147.0,35455.2,1.1925,1.2094,145.7,97.9,0.484
40.4,32276.5,35706.6,1.2007,1.224,145.7,97.9,0.484
40.42,32286.8,35724.9,1.2014,1.225,145.7,97.9,0.484
40.44,32288.3,35668.3,1.2015,1.2218,145.7,97.9,0.484
40.46,32222.6,35447.1,1.1973,1.2089,145.7,97.9,0.484
40.48,32120.8,35287.5,1.1908,1.1997,145.7,97.9,0.484
40.5,32059.6,35134.1,1.187,1.1908,145.7,97.9,0.484
40.52,32042.7,35091.8,1.1859,1.1884,145.7,97.9,0.484
40.54,32027.6,35061.2,1.1849,1.1866,145.7,97.9,0.484
40.56,31965.1,34993.1,1.181,1.1826,145.7,97.9,0.484
40.58,31984.4,34914.1,1.1822,1.1781,145.7,97.9,0.484
40.6,31875.7,34777.8,1.1753,1.1702,145.7,97.9,0.484
40.62,31839.4,34680.5,1.173,1.1645,145.7,97.9,0.484
40.64,31861.9,34723.9,1.1744,1.167,145.7,97.9,0.484
40.66,31857.8,34687.2,1.1742,1.1649,145.7,97.9,0.484
40.68,31836.8,34547.0,1.1728,1.1568,145.7,97.9,0.484
40.7,31730.9,34528.3,1.1661,1.1557,145.7,97.9,0.484
40.72,31834.6,34491.0,1.1727,1.1535,145.7,97.9,0.484
40.74,31771.2,34576.0,1.1687,1.1585,145.7,97.9,0.484
40.76,31899.2,34780.1,1.1768,1.1703,145.7,97.9,0.484
40.78,32034.1,35054.3,1.1853,1.1862,145.7,97.9,0.484
40.8,32161.2,35532.1,1.1934,1.2139,145.7,97.9,0.484
40.82,32397.6,35750.0,1.2084,1.2265,145.7,97.9,0.484
40.84,32301.7,35813.0,1.2023,1.2301,145.7,97.9,0.484
40.86,32333.1,35570.4,1.2043,1.2161,145.7,97.9,0.484
40.88,32114.2,35335.9,1.1904,1.2025,145.7,97.9,0.484
40.9,32068.2,35249.9,1.1875,1.1975,145.7,97.9,0.484
40.92,32066.5,35024.3,1.1874,1.1844,145.7,97.9,0.484
40.94,32013.9,35041.5,1.1841,1.1854,145.7,97.9,0.484
40.96,32069.8,34979.7,1.1876,1.1819,145.7,97.9,0.484
40.98,31982.4,34864.0,1.1821,1.1752,145.7,97.9,0.484
41.0,31963.3,34780.3,1.1809,1.1703,145.7,97.9,0.484
41.02,31932.2,34723.4,1.1789,1.167,145.7,97.9,0.484
41.04,31795.0,34676.4,1.1702,1.1643,145.7,97.9,0.484
41.06,31897.5,34716.9,1.1767,1.1666,145.7,97.9,0.484
41.08,31848.8,34622.8,1.1736,1.1612,145.7,97.9,0.484
41.1,31760.8,34558.4,1.168,1.1574,145.7,97.9,0.484
41.12,31774.2,34515.2,1.1689,1.1549,145.7,97.9,0.484
41.14,31706.2,34568.7,1.1646,1.158,145.7,97.9,0.484
41.16,31947.3,34651.4,1.1798,1.1628,145.7,97.9,0.484
41.18,31944.2,34966.4,1.1796,1.1811,145.7,97.9,0.484
41.2,32167.0,35383.5,1.1938,1.2053,145.7,97.9,0.484
41.22,32218.4,35560.7,1.197,1.2155,145.7,97.9,0.484
41.24,32363.3,35777.1,1.2062,1.2281,145.7,97.9,0.484
41.26,32277.5,35695.3,1.2008,1.2233,145.7,97.9,0.484
41.28,32242.7,35507.7,1.1986,1.2125,145.7,97.9,0.484
41.3,32175.1,35343.9,1.1943,1.203,145.7,97.9,0.484
41.32,32102.1,35136.5,1.1897,1.1909,145.7,97.9,0.484
41.34,31926.7,35024.1,1.1785,1.1844,145.7,97.9,0.484
41.36,32162.0,35072.9,1.1935,1.1873,145.7,97.9,0.484
41.38,32032.2,35019.3,1.1852,1.1842,145.7,97.9,0.484
41.4,31900.0,34931.6,1.1768,1.1791,145.7,97.9,0.484
41.42,31855.7,34683.3,1.174,1.1647,145.7,97.9,0.484
41.44,31832.6,34586.0,1.1726,1.159,145.7,97.9,0.484
41.46,31847.4,34705.3,1.1735,1.166,145.7,97.9,0.484
41.48,31915.4,34570.9,1.1778,1.1582,145.7,97.9,0.484
41.5,31850.0,34543.0,1.1737,1.1566,145.7,97.9,0.484
41.52,31809.0,34506.3,1.1711,1.1544,145.7,97.9,0.484
41.54,31715.5,34394.9,1.1652,1.148,145.7,97.9,0.484
41.56,31728.2,34577.6,1.166,1.1586,145.7,97.9,0.484
41.58,31881.9,34657.1,1.1757,1.1632,145.7,97.9,0.484
41.6,32000.4,35005.7,1.1832,1.1834,145.7,97.9,0.484
41.62,32172.4,35350.6,1.1941,1.2033,145.7,97.9,0.484
41.64,32277.1,35745.9,1.2007,1.2263,145.7,97.9,0.484
41.66,32274.7,35665.0,1.2006,1.2216,145.7,97.9,0.484
41.68,32246.2,35590.4,1.1988,1.2172,145.7,97.9,0.484
41.7,32254.8,35462.5,1.1993,1.2098,145.7,97.9,0.484
41.72,32120.4,35167.2,1.1908,1.1927,145.7,97.9,0.484
41.74,32157.5,35232.2,1.1932,1.1965,145.7,97.9,0.484
41.76,32034.2,35091.4,1.1854,1.1883,145.7,97.9,0.484
41.78,32016.9,34932.3,1.1843,1.1791,145.7,97.9,0.484
41.8,32000.4,35004.8,1.1832,1.1833,145.7,97.9,0.484
41.82,31940.1,34813.7,1.1794,1.1722,145.7,97.9,0.484
41.84,31894.0,34739.0,1.1765,1.1679,145.7,97.9,0.484
41.86,31901.5,34714.4,1.1769,1.1665,145.7,97.9,0.484
41.88,31823.7,34679.9,1.172,1.1645,145.7,97.9,0.484
41.9,31778.2,34637.6,1.1691,1.162,145.7,97.9,0.484
41.92,31677.1,34625.8,1.1627,1.1614,145.7,97.9,0.484
41.94,31729.1,34455.1,1.166,1.1515,145.7,97.9,0.484
41.96,31793.1,34436.1,1.1701,1.1504,145.7,97.9,0.484
41.98,31714.3,34581.3,1.1651,1.1588,145.7,97.9,0.484
42.0,31969.3,34827.9,1.1812,1.1731,145.7,97.9,0.484
42.02,32072.3,35213.8,1.1878,1.1954,145.7,97.9,0.484
42.04,32260.7,35601.6,1.1997,1.2179,145.7,97.9,0.484
42.06,32375.5,35740.8,1.207,1.226,145.7,97.9,0.484
42.08,32288.8,35678.9,1.2015,1.2224,145.7,97.9,0.484
42.1,32282.2,35561.8,1.2011,1.2156,145.7,97.9,0.484
42.12,32174.8,35391.9,1.1943,1.2057,145.7,97.9,0.484
42.14,32062.1,35261.9,1.1871,1.1982,145.7,97.9,0.484
42.16,32074.8,35144.1,1.1879,1.1914,145.7,97.9,0.484
42.18,32049.2,35029.2,1.1863,1.1847,145.7,97.9,0.484
42.2,31991.6,35001.2,1.1827,1.1831,145.7,97.9,0.484
42.22,31921.7,34902.6,1.1782,1.1774,145.7,97.9,0.484
42.24,31941.6,34716.1,1.1795,1.1666,145.7,97.9,0.484
42.26,31834.1,34707.4,1.1727,1.1661,145.7,97.9,0.484
42.28,31896.2,34637.1,1.1766,1.162,145.7,97.9,0.484
42.3,31837.2,34596.2,1.1729,1.1596,145.7,97.9,0.484
42.32,31808.2,34681.9,1.171,1.1646,145.7,97.9,0.484
42.34,31842.3,34537.2,1.1732,1.1562,145.7,97.9,0.484
42.36,31755.6,34474.7,1.1677,1.1526,145.7,97.9,0.484
42.38,31821.9,34590.5,1.1719,1.1593,145.7,97.9,0.484
42.4,31927.3,34633.5,1.1786,1.1618,145.7,97.9,0.484
42.42,32092.2,34981.6,1.189,1.182,145.7,97.9,0.484
42.44,32077.0,35369.0,1.1881,1.2044,145.7,97.9,0.484
42.46,32250.5,35643.9,1.1991,1.2203,145.7,97.9,0.484
42.48,32321.6,35756.9,1.2036,1.2269,145.7,97.9,0.484
42.5,32299.6,35792.5,1.2022,1.229,145.7,97.9,0.484
42.52,32318.6,35429.7,1.2034,1.2079,145.7,97.9,0.484
42.54,32142.0,35238.3,1.1922,1.1968,145.7,97.9,0.484
42.56,32043.9,35169.8,1.186,1.1929,145.7,97.9,0.484
42.58,32091.2,35096.3,1.189,1.1886,145.7,97.9,0.484
42.6,32024.3,34993.2,1.1847,1.1826,145.7,97.9,0.484
42.62,32027.1,34919.6,1.1849,1.1784,145.7,97.9,0.484
42.64,31879.7,34878.0,1.1756,1.176,145.7,97.9,0.484
42.66,31895.6,34804.5,1.1766,1.1717,145.7,97.9,0.484
42.68,31858.4,34725.3,1.1742,1.1671,145.7,97.9,0.484
42.7,31839.4,34654.9,1.173,1.163,145.7,97.9,0.484
42.72,31875.0,34600.3,1.1753,1.1599,145.7,97.9,0.484
42.74,31844.2,34580.6,1.1733,1.1587,145.7,97.9,0.484
42.76,31782.6,34514.6,1.1694,1.1549,145.7,97.9,0.484
42.78,31788.4,34496.7,1.1698,1.1539,145.7,97.9,0.484
42.8,31851.5,34603.3,1.1738,1.16,145.7,97.9,0.484
42.82,31956.0,34803.4,1.1804,1.1716,145.7,97.9,0.484
42.84,32008.9,35207.8,1.1837,1.1951,145.7,97.9,0.484
42.86,32260.3,35542.4,1.1997,1.2145,145.7,97.9,0.484
42.88,32234.9,35757.6,1.1981,1.2269,145.7,97.9,0.484
42.9,32340.7,35706.9,1.2048,1.224,145.7,97.9,0.484
42.92,32313.1,35547.3,1.203,1.2147,145.7,97.9,0.484
42.94,32167.3,35434.6,1.1938,1.2082,145.7,97.9,0.484
42.96,32059.5,35250.8,1.187,1.1976,145.7,97.9,0.484
42.98,32084.3,35213.5,1.1885,1.1954,145.7,97.9,0.484
43.0,32028.5,35082.4,1.185,1.1878,145.7,97.9,0.484
43.02,31946.5,35097.3,1.1798,1.1887,145.7,97.9,0.484
43.04,31929.4,34965.7,1.1787,1.181,145.7,97.9,0.484
43.06,31930.7,34743.6,1.1788,1.1682,145.7,97.9,0.484
43.08,31934.2,34739.3,1.179,1.1679,145.7,97.9,0.484
43.1,31859.5,34712.5,1.1743,1.1664,145.7,97.9,0.484
43.12,31937.6,34656.6,1.1792,1.1631,145.7,97.9,0.484
43.14,31873.8,34677.2,1.1752,1.1643,145.7,97.9,0.484
43.16,31811.3,34516.1,1.1712,1.155,145.7,97.9,0.484
43.18,31704.0,34397.6,1.1644,1.1481,145.7,97.9,0.484
43.2,31745.3,34481.1,1.167,1.153,145.7,97.9,0.484
43.22,31847.7,34547.4,1.1735,1.1568,145.7,97.9,0.484
43.24,31870.5,34949.0,1.175,1.1801,145.7,97.9,0.484
43.26,32148.7,35422.5,1.1926,1.2075,145.7,97.9,0.484
43.28,32304.7,35719.4,1.2025,1.2247,145.7,97.9,0.484
43.3,32379.1,35780.7,1.2072,1.2283,145.7,97.9,0.484
43.32,32240.0,35672.9,1.1984,1.222,145.7,97.9,0.484
43.34,32176.8,35626.6,1.1944,1.2193,145.7,97.9,0.484
43.36,32151.2,35336.2,1.1928,1.2025,145.7,97.9,0.484
43.38,32036.3,35100.6,1.1855,1.1889,145.7,97.9,0.484
43.4,31983.7,35074.1,1.1822,1.1873,145.7,97.9,0.484
43.42,32014.8,35091.1,1.1841,1.1883,145.7,97.9,0.484
43.44,32022.8,34950.1,1.1846,1.1801,145.7,97.9,0.484
43.46,31887.3,34886.4,1.176,1.1765,145.7,97.9,0.484
43.48,31871.1,34781.0,1.175,1.1703,145.7,97.9,0.484
43.5,31894.7,34743.9,1.1765,1.1682,145.7,97.9,0.484
43.52,31817.0,34645.4,1.1716,1.1625,145.7,97.9,0.484
43.54,31863.2,34595.0,1.1745,1.1596,145.7,97.9,0.484
43.56,31870.6,34587.4,1.175,1.1591,145.7,97.9,0.484
43.58,31804.3,34513.0,1.1708,1.1548,145.7,97.9,0.484
43.6,31830.6,34425.4,1.1724,1.1497,145.7,97.9,0.484
43.62,31804.6,34509.1,1.1708,1.1546,145.7,97.9,0.484
43.64,31833.7,34716.7,1.1726,1.1666,145.7,97.9,0.484
43.66,31931.5,35087.7,1.1788,1.1881,145.7,97.9,0.484
43.68,32095.5,35433.8,1.1892,1.2082,145.7,97.9,0.484
43.7,32333.5,35691.0,1.2043,1.2231,145.7,97.9,0.484
43.72,32309.8,35818.0,1.2028,1.2304,145.7,97.9,0.484
43.74,32267.7,35635.0,1.2002,1.2198,145.7,97.9,0.484
43.76,32226.4,35377.1,1.1975,1.2049,145.7,97.9,0.484
43.78,32101.9,35242.4,1.1896,1.1971,145.7,97.9,0.484
43.8,32110.7,35083.8,1.1902,1.1879,145.7,97.9,0.484
43.82,31985.3,35062.3,1.1823,1.1866,145.7,97.9,0.484
43.84,32028.8,35016.9,1.185,1.184,145.7,97.9,0.484
43.86,32106.5,34887.5,1.1899,1.1765,145.7,97.9,0.484
43.88,31922.8,34813.2,1.1783,1.1722,145.7,97.9,0.484
43.9,31913.4,34751.5,1.1777,1.1686,145.7,97.9,0.484
43.92,31799.0,34646.1,1.1704,1.1625,145.7,97.9,0.484
43.94,31880.8,34627.2,1.1756,1.1614,145.7,97.9,0.484
43.96,31839.8,34566.1,1.173,1.1579,145.7,97.9,0.484
43.98,31828.4,34586.2,1.1723,1.1591,145.7,97.9,0.484
44.0,31794.3,34499.1,1.1701,1.154,145.7,97.9,0.484
44.02,31715.8,34410.5,1.1652,1.1489,145.7,97.9,0.484
44.04,31801.0,34554.4,1.1706,1.1572,145.7,97.9,0.484
44.06,31902.7,34889.4,1.177,1.1766,145.7,97.9,0.484
44.08,32104.7,35204.2,1.1898,1.1949,145.7,97.9,0.484
44.1,32218.9,35675.9,1.1971,1.2222,145.7,97.9,0.484
44.12,32307.4,35746.6,1.2027,1.2263,145.7,97.9,0.484
44.14,32351.4,35702.5,1.2055,1.2237,145.7,97.9,0.484
44.16,32260.5,35503.9,1.1997,1.2122,145.7,97.9,0.484
44.18,32144.2,35295.4,1.1923,1.2002,145.7,97.9,0.484
44.2,32143.9,35277.3,1.1923,1.1991,145.7,97.9,0.484
44.22,32055.5,35148.0,1.1867,1.1916,145.7,97.9,0.484
44.24,32015.2,35023.3,1.1841,1.1844,145.7,97.9,0.484
44.26,31860.7,35036.3,1.1744,1.1851,145.7,97.9,0.484
44.28,31823.8,34874.7,1.172,1.1758,145.7,97.9,0.484
44.3,31981.3,34732.3,1.182,1.1675,145.7,97.9,0.484
44.32,31847.0,34687.3,1.1735,1.1649,145.7,97.9,0.484
44.34,31841.7,34590.6,1.1732,1.1593,145.7,97.9,0.484
44.36,31823.6,34674.8,1.172,1.1642,145.7,97.9,0.484
44.38,31879.5,34679.4,1.1755,1.1645,145.7,97.9,0.484
44.4,31786.3,34500.7,1.1696,1.1541,145.7,97.9,0.484
44.42,31807.9,34378.6,1.171,1.147,145.7,97.9,0.484
44.44,31790.4,34487.4,1.1699,1.1533,145.7,97.9,0.484
44.46,31851.6,34722.3,1.1738,1.1669,145.7,97.9,0.484
44.48,31935.1,35108.1,1.1791,1.1893,145.7,97.9,0.484
44.5,32171.7,35363.4,1.1941,1.2041,145.7,97.9,0.484
44.52,32245.6,35656.8,1.1988,1.2211,145.7,97.9,0.484
44.54,32221.3,35834.6,1.1972,1.2314,145.7,97.9,0.484
44.56,32312.3,35646.8,1.203,1.2205,145.7,97.9,0.484
44.58,32081.2,35461.9,1.1883,1.2098,145.7,97.9,0.484
44.6,32072.0,35268.5,1.1877,1.1986,145.7,97.9,0.484
44.62,32045.2,35192.8,1.186,1.1942,145.7,97.9,0.484
44.64,32019.7,35110.2,1.1844,1.1894,145.7,97.9,0.484
44.66,32034.4,35009.6,1.1854,1.1836,145.7,97.9,0.484
44.68,32057.5,35058.2,1.1868,1.1864,145.7,97.9,0.484
44.7,31952.2,34843.3,1.1802,1.174,145.7,97.9,0.484
44.72,31901.5,34715.3,1.1769,1.1665,145.7,97.9,0.484
44.74,31911.7,34795.3,1.1776,1.1712,145.7,97.9,0.484
44.76,31862.9,34718.1,1.1745,1.1667,145.7,97.9,0.484
44.78,31762.6,34758.9,1.1681,1.1691,145.7,97.9,0.484
44.8,31817.7,34638.3,1.1716,1.1621,145.7,97.9,0.484
44.82,31803.7,34532.0,1.1707,1.1559,145.7,97.9,0.484
44.84,31779.9,34476.5,1.1692,1.1527,145.7,97.9,0.484
44.86,31801.1,34530.3,1.1706,1.1558,145.7,97.9,0.484
44.88,32000.8,34716.6,1.1832,1.1666,145.7,97.9,0.484
44.9,32129.6,35155.3,1.1914,1.192,145.7,97.9,0.484
44.92,32293.2,35587.5,1.2018,1.2171,145.7,97.9,0.484
44.94,32344.6,35711.0,1.205,1.2242,145.7,97.9,0.484
44.96,32378.4,35655.5,1.2072,1.221,145.7,97.9,0.484
44.98,32291.9,35670.2,1.2017,1.2219,145.7,97.9,0.484
45.0,32219.2,35385.6,1.1971,1.2054,145.7,97.9,0.484
45.02,32056.3,35222.6,1.1868,1.1959,145.7,97.9,0.484
45.04,32100.5,35045.0,1.1896,1.1856,145.7,97.9,0.484
45.06,32045.2,35036.5,1.1861,1.1851,145.7,97.9,0.484
45.08,31995.9,34991.7,1.1829,1.1826,145.7,97.9,0.484
45.1,31947.5,34942.2,1.1799,1.1797,145.7,97.9,0.484
45.12,31951.7,34857.4,1.1801,1.1748,145.7,97.9,0.484
45.14,31947.2,34668.5,1.1798,1.1638,145.7,97.9,0.484
45.16,31874.9,34707.1,1.1753,1.1661,145.7,97.9,0.484
45.18,31865.0,34689.3,1.1746,1.165,145.7,97.9,0.484
45.2,31853.0,34653.0,1.1739,1.1629,145.7,97.9,0.484
45.22,31808.1,34572.4,1.171,1.1583,145.7,97.9,0.484
45.24,31756.8,34456.1,1.1678,1.1515,145.7,97.9,0.484
45.26,31891.0,34520.9,1.1763,1.1553,145.7,97.9,0.484
45.28,31820.2,34638.5,1.1718,1.1621,145.7,97.9,0.484
45.3,31975.0,34983.6,1.1816,1.1821,145.7,97.9,0.484
45.32,32135.1,35277.8,1.1917,1.1991,145.7,97.9,0.484
45.34,32331.5,35639.9,1.2042,1.2201,145.7,97.9,0.484
45.36,32329.7,35807.5,1.2041,1.2298,145.7,97.9,0.484
45.38,32198.5,35706.8,1.1958,1.224,145.7,97.9,0.484
45.4,32205.2,35585.3,1.1962,1.2169,145.7,97.9,0.484
45.42,32131.6,35274.7,1.1915,1.199,145.7,97.9,0.484
45.44,32107.1,35137.9,1.19,1.191,145.7,97.9,0.484
45.46,32131.4,35156.5,1.1915,1.1921,145.7,97.9,0.484
45.48,32094.2,35055.0,1.1892,1.1862,145.7,97.9,0.484
45.5,31994.3,34939.8,1.1828,1.1795,145.7,97.9,0.484
45.52,31916.8,34809.4,1.1779,1.172,145.7,97.9,0.484
45.54,31922.6,34820.2,1.1783,1.1726,145.7,97.9,0.484
45.56,31881.4,34620.4,1.1757,1.161,145.7,97.9,0.484
45.58,31863.1,34675.4,1.1745,1.1642,145.7,97.9,0.484
45.6,31876.6,34590.2,1.1754,1.1593,145.7,97.9,0.484
45.62,31727.7,34661.3,1.1659,1.1634,145.7,97.9,0.484
45.64,31751.1,34493.8,1.1674,1.1537,145.7,97.9,0.484
45.66,31747.5,34491.1,1.1672,1.1535,145.7,97.9,0.484
45.68,31801.0,34494.6,1.1706,1.1537,145.7,97.9,0.484
45.7,31953.2,34716.9,1.1802,1.1666,145.7,97.9,0.484
45.72,32082.7,35041.7,1.1884,1.1854,145.7,97.9,0.484
45.74,32185.2,35473.1,1.1949,1.2104,145.7,97.9,0.484
45.76,32310.7,35701.0,1.2029,1.2237,145.7,97.9,0.484
45.78,32251.6,35720.2,1.1991,1.2248,145.7,97.9,0.484
