timestamp,raw_red,raw_ir,filtered_red,filtered_ir,heart_rate,spo2,ac_dc_ratio
0.0,32068.0,35213.3,0.0862,0.2711,144.7,97.6,0.497
0.02,32254.6,35457.1,0.3471,0.5612,144.7,97.6,0.497
0.04,32293.3,35742.3,0.4012,0.9006,144.7,97.6,0.497
0.06,32367.4,35695.1,0.5047,0.8445,144.7,97.6,0.497
0.08,32282.6,35613.7,0.3862,0.7476,144.7,97.6,0.497
0.1,32145.2,35415.8,0.1942,0.5121,144.7,97.6,0.497
0.12,32113.9,35231.0,0.1503,0.2921,144.7,97.6,0.497
0.14,32046.7,35116.6,0.0565,0.156,144.7,97.6,0.497
0.16,31982.9,35086.1,-0.0328,0.1197,144.7,97.6,0.497
0.18,31985.9,35115.4,-0.0286,0.1546,144.7,97.6,0.497
0.2,31960.4,34981.2,-0.0642,-0.0051,144.7,97.6,0.497
0.22,31903.3,34919.5,-0.144,-0.0786,144.7,97.6,0.497
0.24,31838.4,34691.4,-0.2348,-0.3499,144.7,97.6,0.497
0.26,31982.0,34695.9,-0.034,-0.3446,144.7,97.6,0.497
0.28,31934.8,34701.4,-0.1,-0.338,144.7,97.6,0.497
0.3,31812.7,34603.3,-0.2707,-0.4548,144.7,97.6,0.497
0.32,31789.5,34568.9,-0.3031,-0.4957,144.7,97.6,0.497
0.34,31688.5,34516.1,-0.4443,-0.5585,144.7,97.6,0.497
0.36,31726.9,34414.2,-0.3907,-0.6798,144.7,97.6,0.497
0.38,31771.8,34577.8,-0.3278,-0.4851,144.7,97.6,0.497
0.4,31966.2,34922.5,-0.0561,-0.0749,144.7,97.6,0.497
0.42,32153.0,35292.2,0.205,0.365,144.7,97.6,0.497
0.44,32162.0,35585.5,0.2175,0.7139,144.7,97.6,0.497
0.46,32241.1,35748.5,0.3282,0.908,144.7,97.6,0.497
0.48,32324.3,35721.5,0.4445,0.8759,144.7,97.6,0.497
0.5,32219.7,35518.6,0.2983,0.6344,144.7,97.6,0.497
0.52,32144.7,35336.8,0.1935,0.4181,144.7,97.6,0.497
0.54,31999.0,35259.3,-0.0103,0.3259,144.7,97.6,0.497
0.56,32122.5,35188.9,0.1624,0.2421,144.7,97.6,0.497
0.58,32014.3,35048.0,0.0111,0.0744,144.7,97.6,0.497
0.6,32075.1,35014.7,0.0961,0.0348,144.7,97.6,0.497
0.62,31946.6,34916.9,-0.0835,-0.0816,144.7,97.6,0.497
0.64,31911.9,34716.0,-0.132,-0.3207,144.7,97.6,0.497
0.66,31909.6,34595.5,-0.1352,-0.464,144.7,97.6,0.497
0.68,31886.7,34593.2,-0.1673,-0.4668,144.7,97.6,0.497
0.7,31823.1,34637.1,-0.2561,-0.4145,144.7,97.6,0.497
0.72,31834.0,34648.4,-0.2409,-0.4011,144.7,97.6,0.497
0.74,31797.1,34471.0,-0.2925,-0.6121,144.7,97.6,0.497
0.76,31783.1,34487.3,-0.3121,-0.5928,144.7,97.6,0.497
0.78,31768.4,34522.5,-0.3326,-0.5509,144.7,97.6,0.497
0.8,31785.3,34652.5,-0.3091,-0.3962,144.7,97.6,0.497
0.82,32079.3,34965.5,0.1019,-0.0238,144.7,97.6,0.497
0.84,32114.3,35471.0,0.1509,0.5778,144.7,97.6,0.497
0.86,32259.9,35677.1,0.3544,0.823,144.7,97.6,0.497
0.88,32364.8,35766.4,0.5011,0.9292,144.7,97.6,0.497
0.9,32370.9,35652.4,0.5096,0.7936,144.7,97.6,0.497
0.92,32173.2,35493.3,0.2333,0.6043,144.7,97.6,0.497
0.94,32052.7,35260.8,0.0649,0.3276,144.7,97.6,0.497
0.96,32158.6,35143.3,0.2128,0.1878,144.7,97.6,0.497
0.98,32022.9,35140.9,0.0232,0.185,144.7,97.6,0.497
1.0,32023.5,35032.4,0.024,0.0558,144.7,97.6,0.497
1.02,31986.2,35021.5,-0.0282,0.0428,144.7,97.6,0.497
1.04,31897.1,34862.1,-0.1527,-0.1468,144.7,97.6,0.497
1.06,31846.9,34826.9,-0.2229,-0.1886,144.7,97.6,0.497
1.08,31884.7,34785.0,-0.17,-0.2386,144.7,97.6,0.497
1.1,31817.9,34726.1,-0.2634,-0.3086,144.7,97.6,0.497
1.12,31790.8,34642.5,-0.3014,-0.4082,144.7,97.6,0.497
1.14,31827.9,34567.4,-0.2495,-0.4975,144.7,97.6,0.497
1.16,31791.6,34540.5,-0.3002,-0.5294,144.7,97.6,0.497
1.18,31735.1,34487.6,-0.3791,-0.5924,144.7,97.6,0.497
1.2,31820.7,34584.8,-0.2595,-0.4768,144.7,97.6,0.497
1.22,31814.9,34796.9,-0.2677,-0.2243,144.7,97.6,0.497
1.24,32078.0,35165.1,0.1002,0.2137,144.7,97.6,0.497
1.26,32184.8,35439.3,0.2495,0.54,144.7,97.6,0.497
1.28,32342.0,35678.4,0.4692,0.8245,144.7,97.6,0.497
1.3,32319.7,35822.5,0.4381,0.996,144.7,97.6,0.497
1.32,32254.5,35583.7,0.3469,0.7118,144.7,97.6,0.497
1.34,32180.4,35453.4,0.2433,0.5568,144.7,97.6,0.497
1.36,32012.3,35235.5,0.0083,0.2975,144.7,97.6,0.497
1.38,32081.2,35101.2,0.1047,0.1377,144.7,97.6,0.497
1.4,32066.0,35088.1,0.0834,0.1221,144.7,97.6,0.497
1.42,32016.9,35102.0,0.0148,0.1387,144.7,97.6,0.497
1.44,32004.6,35040.0,-0.0024,0.0649,144.7,97.6,0.497
1.46,31910.3,34799.9,-0.1342,-0.2209,144.7,97.6,0.497
1.48,31770.9,34685.3,-0.3291,-0.3571,144.7,97.6,0.497
1.5,31801.3,34643.7,-0.2866,-0.4066,144.7,97.6,0.497
1.52,31794.5,34703.3,-0.2962,-0.3358,144.7,97.6,0.497
1.54,31807.2,34637.8,-0.2783,-0.4137,144.7,97.6,0.497
1.56,31864.8,34652.7,-0.1979,-0.396,144.7,97.6,0.497
1.58,31823.1,34527.1,-0.2562,-0.5454,144.7,97.6,0.497
1.6,31713.8,34497.2,-0.4089,-0.5811,144.7,97.6,0.497
1.62,31806.5,34505.4,-0.2794,-0.5712,144.7,97.6,0.497
1.64,31929.1,34847.2,-0.108,-0.1645,144.7,97.6,0.497
1.66,32125.1,35205.5,0.166,0.2618,144.7,97.6,0.497
1.68,32255.0,35472.4,0.3476,0.5795,144.7,97.6,0.497
1.7,32374.7,35720.9,0.5149,0.8751,144.7,97.6,0.497
1.72,32354.2,35664.7,0.4863,0.8083,144.7,97.6,0.497
1.74,32218.8,35519.3,0.297,0.6352,144.7,97.6,0.497
1.76,32097.1,35358.6,0.1269,0.444,144.7,97.6,0.497
1.78,32060.3,35135.1,0.0754,0.1781,144.7,97.6,0.497
1.8,32075.6,35122.3,0.0968,0.1628,144.7,97.6,0.497
1.82,32054.5,35143.7,0.0672,0.1882,144.7,97.6,0.497
1.84,32094.4,34985.5,0.1231,0.0,144.7,97.6,0.497
1.86,31987.5,35043.8,-0.0264,0.0694,144.7,97.6,0.497
1.88,31863.6,34770.6,-0.1996,-0.2557,144.7,97.6,0.497
1.9,31885.9,34705.7,-0.1684,-0.333,144.7,97.6,0.497
1.92,31868.4,34659.8,-0.1928,-0.3875,144.7,97.6,0.497
1.94,31790.6,34619.8,-0.3015,-0.4351,144.7,97.6,0.497
1.96,31852.2,34589.5,-0.2154,-0.4712,144.7,97.6,0.497
1.98,31826.4,34547.1,-0.2516,-0.5216,144.7,97.6,0.497
2.0,31775.6,34467.9,-0.3225,-0.6159,144.7,97.6,0.497
2.02,31730.7,34467.6,-0.3854,-0.6162,144.7,97.6,0.497
2.04,31856.7,34705.9,-0.2092,-0.3326,144.7,97.6,0.497
2.06,32078.4,34869.7,0.1007,-0.1378,144.7,97.6,0.497
2.08,32076.2,35229.3,0.0977,0.2902,144.7,97.6,0.497
2.1,32283.4,35574.1,0.3872,0.7005,144.7,97.6,0.497
2.12,32397.3,35808.9,0.5465,0.9798,144.7,97.6,0.497
2.14,32268.0,35706.7,0.3657,0.8581,144.7,97.6,0.497
2.16,32174.7,35578.9,0.2353,0.7061,144.7,97.6,0.497
2.18,32068.2,35296.0,0.0864,0.3695,144.7,97.6,0.497
2.2,32110.5,35169.1,0.1455,0.2186,144.7,97.6,0.497
2.22,32003.4,35158.9,-0.0041,0.2064,144.7,97.6,0.497
2.24,31982.6,35123.8,-0.0332,0.1646,144.7,97.6,0.497
2.26,32057.4,34957.8,0.0714,-0.033,144.7,97.6,0.497
2.28,31956.6,34854.2,-0.0696,-0.1562,144.7,97.6,0.497
2.3,31932.7,34736.4,-0.1029,-0.2964,144.7,97.6,0.497
2.32,31894.4,34661.7,-0.1565,-0.3853,144.7,97.6,0.497
2.34,31827.8,34734.8,-0.2496,-0.2983,144.7,97.6,0.497
2.36,31830.1,34659.4,-0.2464,-0.388,144.7,97.6,0.497
2.38,31829.5,34634.2,-0.2472,-0.418,144.7,97.6,0.497
2.4,31803.4,34487.5,-0.2837,-0.5926,144.7,97.6,0.497
2.42,31661.6,34557.8,-0.482,-0.5089,144.7,97.6,0.497
2.44,31752.6,34511.4,-0.3547,-0.5641,144.7,97.6,0.497
2.46,31837.7,34778.1,-0.2357,-0.2468,144.7,97.6,0.497
2.48,32084.0,34999.1,0.1085,0.0162,144.7,97.6,0.497
2.5,32166.4,35464.6,0.2237,0.5701,144.7,97.6,0.497
2.52,32266.1,35688.5,0.3631,0.8366,144.7,97.6,0.497
2.54,32342.2,35680.8,0.4695,0.8274,144.7,97.6,0.497
2.56,32369.0,35675.5,0.507,0.821,144.7,97.6,0.497
2.58,32258.1,35368.9,0.3519,0.4563,144.7,97.6,0.497
2.6,32126.4,35208.6,0.1679,0.2654,144.7,97.6,0.497
2.62,32169.8,35225.7,0.2286,0.2859,144.7,97.6,0.497
2.64,31909.4,35059.7,-0.1355,0.0883,144.7,97.6,0.497
2.66,32051.1,34969.0,0.0626,-0.0196,144.7,97.6,0.497
2.68,31960.9,34928.1,-0.0635,-0.0683,144.7,97.6,0.497
2.7,31945.1,34839.7,-0.0857,-0.1734,144.7,97.6,0.497
2.72,31941.2,34774.8,-0.0911,-0.2507,144.7,97.6,0.497
2.74,31912.5,34676.5,-0.1312,-0.3677,144.7,97.6,0.497
2.76,31888.7,34653.1,-0.1645,-0.3955,144.7,97.6,0.497
2.78,31793.5,34716.0,-0.2976,-0.3207,144.7,97.6,0.497
2.8,31823.1,34590.1,-0.2562,-0.4704,144.7,97.6,0.497
2.82,31804.1,34487.5,-0.2827,-0.5925,144.7,97.6,0.497
2.84,31766.3,34459.8,-0.3356,-0.6255,144.7,97.6,0.497
2.86,31761.8,34584.0,-0.3418,-0.4777,144.7,97.6,0.497
2.88,31854.1,34690.6,-0.2128,-0.3509,144.7,97.6,0.497
2.9,32036.7,35062.2,0.0424,0.0913,144.7,97.6,0.497
2.92,32223.2,35500.3,0.3032,0.6126,144.7,97.6,0.497
2.94,32272.7,35771.6,0.3724,0.9354,144.7,97.6,0.497
2.96,32291.8,35715.6,0.399,0.8688,144.7,97.6,0.497
2.98,32361.7,35582.6,0.4968,0.7106,144.7,97.6,0.497
3.0,32174.9,35393.6,0.2356,0.4857,144.7,97.6,0.497
3.02,32070.5,35246.4,0.0897,0.3105,144.7,97.6,0.497
3.04,32031.9,35202.4,0.0358,0.2581,144.7,97.6,0.497
3.06,32019.9,35117.2,0.0189,0.1567,144.7,97.6,0.497
3.08,32000.3,35015.2,-0.0084,0.0353,144.7,97.6,0.497
3.1,31993.3,34904.9,-0.0182,-0.0958,144.7,97.6,0.497
3.12,31881.8,34838.9,-0.1741,-0.1744,144.7,97.6,0.497
3.14,31885.3,34707.8,-0.1692,-0.3304,144.7,97.6,0.497
3.16,31891.8,34784.9,-0.1602,-0.2387,144.7,97.6,0.497
3.18,31975.8,34719.0,-0.0427,-0.317,144.7,97.6,0.497
3.2,31745.2,34656.5,-0.3651,-0.3915,144.7,97.6,0.497
3.22,31797.9,34586.8,-0.2913,-0.4744,144.7,97.6,0.497
3.24,31723.3,34454.4,-0.3957,-0.632,144.7,97.6,0.497
3.26,31748.3,34528.5,-0.3608,-0.5438,144.7,97.6,0.497
3.28,31877.5,34617.3,-0.1802,-0.4381,144.7,97.6,0.497
3.3,31997.3,34867.0,-0.0126,-0.141,144.7,97.6,0.497
3.32,32067.4,35239.4,0.0854,0.3021,144.7,97.6,0.497
3.34,32280.6,35607.7,0.3834,0.7404,144.7,97.6,0.497
3.36,32314.9,35781.6,0.4313,0.9473,144.7,97.6,0.497
3.38,32468.8,35774.3,0.6465,0.9386,144.7,97.6,0.497
3.4,32221.1,35542.6,0.3002,0.663,144.7,97.6,0.497
3.42,32137.4,35389.9,0.1832,0.4812,144.7,97.6,0.497
3.44,32068.3,35119.6,0.0867,0.1596,144.7,97.6,0.497
3.46,31911.2,35148.3,-0.1331,0.1937,144.7,97.6,0.497
3.48,31949.9,35079.9,-0.079,0.1123,144.7,97.6,0.497
3.5,32074.5,35085.0,0.0952,0.1184,144.7,97.6,0.497
3.52,31914.5,34949.4,-0.1284,-0.0429,144.7,97.6,0.497
3.54,31939.1,34747.7,-0.094,-0.283,144.7,97.6,0.497
3.56,31877.2,34752.8,-0.1805,-0.2769,144.7,97.6,0.497
3.58,31908.1,34665.2,-0.1373,-0.3811,144.7,97.6,0.497
3.6,31808.9,34615.9,-0.276,-0.4398,144.7,97.6,0.497
3.62,31873.8,34652.0,-0.1853,-0.3968,144.7,97.6,0.497
3.64,31833.9,34402.1,-0.241,-0.6941,144.7,97.6,0.497
3.66,31725.2,34520.4,-0.3931,-0.5534,144.7,97.6,0.497
3.68,31755.3,34463.3,-0.3509,-0.6213,144.7,97.6,0.497
3.7,31862.1,34577.6,-0.2017,-0.4854,144.7,97.6,0.497
3.72,31940.9,34940.9,-0.0915,-0.0531,144.7,97.6,0.497
3.74,32198.3,35333.8,0.2684,0.4145,144.7,97.6,0.497
3.76,32239.7,35695.4,0.3263,0.8447,144.7,97.6,0.497
3.78,32344.4,35708.1,0.4726,0.8598,144.7,97.6,0.497
3.8,32271.6,35685.7,0.3708,0.8332,144.7,97.6,0.497
3.82,32222.5,35519.3,0.3022,0.6352,144.7,97.6,0.497
3.84,32180.4,35203.7,0.2433,0.2597,144.7,97.6,0.497
3.86,32006.7,35143.8,0.0005,0.1884,144.7,97.6,0.497
3.88,32087.6,35098.9,0.1136,0.135,144.7,97.6,0.497
3.9,32020.7,35001.8,0.0201,0.0194,144.7,97.6,0.497
3.92,32078.7,35043.9,0.1011,0.0695,144.7,97.6,0.497
3.94,31906.7,34900.7,-0.1393,-0.1009,144.7,97.6,0.497
3.96,31847.1,34716.9,-0.2227,-0.3196,144.7,97.6,0.497
3.98,31808.6,34712.3,-0.2764,-0.325,144.7,97.6,0.497
4.0,31891.1,34722.8,-0.1611,-0.3125,144.7,97.6,0.497
4.02,31875.0,34695.5,-0.1836,-0.345,144.7,97.6,0.497
4.04,31800.9,34608.4,-0.2872,-0.4487,144.7,97.6,0.497
4.06,31707.7,34587.2,-0.4175,-0.474,144.7,97.6,0.497
4.08,31698.6,34425.8,-0.4302,-0.6659,144.7,97.6,0.497
4.1,31737.7,34533.5,-0.3755,-0.5378,144.7,97.6,0.497
4.12,31807.4,34748.9,-0.2782,-0.2815,144.7,97.6,0.497
4.14,31977.1,35064.8,-0.0408,0.0944,144.7,97.6,0.497
4.16,32204.3,35391.7,0.2767,0.4834,144.7,97.6,0.497
4.18,32297.7,35619.5,0.4072,0.7545,144.7,97.6,0.497
4.2,32346.2,35714.4,0.475,0.8673,144.7,97.6,0.497
4.22,32276.5,35628.2,0.3777,0.7648,144.7,97.6,0.497
4.24,32163.5,35373.2,0.2197,0.4614,144.7,97.6,0.497
4.26,32088.7,35303.8,0.1152,0.3788,144.7,97.6,0.497
4.28,32082.7,35139.9,0.1068,0.1838,144.7,97.6,0.497
4.3,31970.9,35156.7,-0.0495,0.2038,144.7,97.6,0.497
4.32,32024.0,34928.6,0.0247,-0.0677,144.7,97.6,0.497
4.34,31962.4,34998.5,-0.0614,0.0155,144.7,97.6,0.497
4.36,31920.1,34844.3,-0.1206,-0.168,144.7,97.6,0.497
4.38,31865.5,34661.6,-0.1969,-0.3854,144.7,97.6,0.497
4.4,31778.2,34707.2,-0.3189,-0.3311,144.7,97.6,0.497
4.42,31885.9,34687.0,-0.1683,-0.3552,144.7,97.6,0.497
4.44,31792.0,34656.0,-0.2997,-0.3921,144.7,97.6,0.497
4.46,31856.6,34513.2,-0.2093,-0.5619,144.7,97.6,0.497
4.48,31816.8,34529.7,-0.265,-0.5423,144.7,97.6,0.497
4.5,31711.6,34531.5,-0.4121,-0.5402,144.7,97.6,0.497
4.52,31728.9,34605.8,-0.3879,-0.4517,144.7,97.6,0.497
4.54,31948.3,34815.5,-0.0811,-0.2022,144.7,97.6,0.497
4.56,31983.1,35188.0,-0.0324,0.241,144.7,97.6,0.497
4.58,32188.4,35466.8,0.2545,0.5728,144.7,97.6,0.497
4.6,32374.5,35795.5,0.5147,0.9639,144.7,97.6,0.497
4.62,32322.1,35721.1,0.4414,0.8753,144.7,97.6,0.497
4.64,32324.8,35544.9,0.4452,0.6657,144.7,97.6,0.497
4.66,32224.3,35421.6,0.3046,0.5189,144.7,97.6,0.497
4.68,32152.6,35309.4,0.2044,0.3854,144.7,97.6,0.497
4.7,32031.6,35136.5,0.0353,0.1797,144.7,97.6,0.497
4.72,32134.8,35074.6,0.1796,0.106,144.7,97.6,0.497
4.74,31998.0,35011.5,-0.0117,0.0309,144.7,97.6,0.497
4.76,32061.1,34893.2,0.0766,-0.1098,144.7,97.6,0.497
4.78,31839.5,34815.1,-0.2332,-0.2027,144.7,97.6,0.497
4.8,31840.7,34747.4,-0.2316,-0.2833,144.7,97.6,0.497
4.82,31681.8,34585.3,-0.4536,-0.4762,144.7,97.6,0.497
4.84,31826.8,34560.4,-0.251,-0.5058,144.7,97.6,0.497
4.86,31806.3,34612.1,-0.2797,-0.4443,144.7,97.6,0.497
4.88,31781.0,34601.7,-0.315,-0.4566,144.7,97.6,0.497
4.9,31806.0,34466.4,-0.28,-0.6177,144.7,97.6,0.497
4.92,31735.6,34512.6,-0.3785,-0.5627,144.7,97.6,0.497
4.94,31795.4,34610.3,-0.2949,-0.4464,144.7,97.6,0.497
4.96,32052.9,34890.5,0.065,-0.113,144.7,97.6,0.497
4.98,32150.0,35304.0,0.2008,0.379,144.7,97.6,0.497
5.0,32319.5,35645.9,0.4378,0.7859,144.7,97.6,0.497
5.02,32336.1,35829.5,0.461,1.0043,144.7,97.6,0.497
5.04,32365.7,35729.4,0.5024,0.8852,144.7,97.6,0.497
5.06,32254.1,35500.4,0.3463,0.6128,144.7,97.6,0.497
5.08,32200.8,35246.9,0.2718,0.3111,144.7,97.6,0.497
5.1,32150.3,35151.3,0.2013,0.1974,144.7,97.6,0.497
5.12,32030.1,35153.9,0.0332,0.2004,144.7,97.6,0.497
5.14,32009.4,34950.8,0.0043,-0.0413,144.7,97.6,0.497
5.16,31870.1,34977.3,-0.1905,-0.0098,144.7,97.6,0.497
5.18,31870.9,34838.4,-0.1894,-0.175,144.7,97.6,0.497
5.2,31900.5,34767.3,-0.1479,-0.2596,144.7,97.6,0.497
5.22,31910.2,34780.2,-0.1344,-0.2443,144.7,97.6,0.497
5.24,31899.7,34646.0,-0.1491,-0.4039,144.7,97.6,0.497
5.26,31800.7,34684.5,-0.2875,-0.3581,144.7,97.6,0.497
5.28,31808.5,34620.4,-0.2766,-0.4344,144.7,97.6,0.497
5.3,31832.1,34534.9,-0.2436,-0.5361,144.7,97.6,0.497
5.32,31680.3,34452.8,-0.4559,-0.6339,144.7,97.6,0.497
5.34,31820.1,34524.8,-0.2603,-0.5481,144.7,97.6,0.497
5.36,31814.7,34628.1,-0.2679,-0.4253,144.7,97.6,0.497
5.38,32029.5,34972.6,0.0324,-0.0153,144.7,97.6,0.497
5.4,32173.8,35445.9,0.2341,0.5479,144.7,97.6,0.497
5.42,32349.1,35670.5,0.4792,0.8151,144.7,97.6,0.497
5.44,32415.0,35769.6,0.5712,0.9331,144.7,97.6,0.497
5.46,32323.9,35729.9,0.4439,0.8858,144.7,97.6,0.497
5.48,32193.3,35493.6,0.2613,0.6046,144.7,97.6,0.497
5.5,32175.2,35298.4,0.2361,0.3723,144.7,97.6,0.497
5.52,32124.1,35152.1,0.1646,0.1982,144.7,97.6,0.497
5.54,32067.5,35090.7,0.0855,0.1252,144.7,97.6,0.497
5.56,31984.6,35010.9,-0.0304,0.0303,144.7,97.6,0.497
5.58,32072.9,34953.1,0.093,-0.0385,144.7,97.6,0.497
5.6,31867.9,34881.1,-0.1936,-0.1242,144.7,97.6,0.497
5.62,31944.8,34720.6,-0.0861,-0.3152,144.7,97.6,0.497
5.64,31819.4,34680.4,-0.2614,-0.363,144.7,97.6,0.497
5.66,31873.8,34705.8,-0.1853,-0.3329,144.7,97.6,0.497
5.68,31832.4,34770.5,-0.2431,-0.2558,144.7,97.6,0.497
5.7,31802.8,34552.6,-0.2846,-0.5151,144.7,97.6,0.497
5.72,31828.3,34457.2,-0.2488,-0.6287,144.7,97.6,0.497
5.74,31735.7,34402.6,-0.3783,-0.6935,144.7,97.6,0.497
5.76,31680.3,34598.7,-0.4558,-0.4602,144.7,97.6,0.497
5.78,31953.2,34788.2,-0.0743,-0.2348,144.7,97.6,0.497
5.8,31978.5,35047.1,-0.0389,0.0733,144.7,97.6,0.497
5.82,32137.4,35499.3,0.1832,0.6115,144.7,97.6,0.497
5.84,32344.9,35617.1,0.4733,0.7516,144.7,97.6,0.497
5.86,32293.5,35715.5,0.4014,0.8687,144.7,97.6,0.497
5.88,32254.6,35645.5,0.3471,0.7854,144.7,97.6,0.497
5.9,32271.1,35548.0,0.3701,0.6693,144.7,97.6,0.497
5.92,32120.5,35293.4,0.1596,0.3664,144.7,97.6,0.497
5.94,32047.7,35088.9,0.0578,0.123,144.7,97.6,0.497
5.96,32017.2,35029.3,0.0151,0.0521,144.7,97.6,0.497
5.98,32035.8,35051.6,0.0411,0.0787,144.7,97.6,0.497
6.0,31981.2,34952.2,-0.0351,-0.0396,144.7,97.6,0.497
6.02,31892.8,34760.8,-0.1587,-0.2673,144.7,97.6,0.497
6.04,31919.9,34763.0,-0.1208,-0.2648,144.7,97.6,0.497
6.06,31913.3,34656.4,-0.13,-0.3916,144.7,97.6,0.497
6.08,31806.0,34647.5,-0.2801,-0.4022,144.7,97.6,0.497
6.1,31870.5,34583.6,-0.19,-0.4782,144.7,97.6,0.497
6.12,31736.0,34559.1,-0.378,-0.5074,144.7,97.6,0.497
6.14,31719.2,34480.4,-0.4014,-0.601,144.7,97.6,0.497
6.16,31804.3,34411.6,-0.2824,-0.6828,144.7,97.6,0.497
6.18,31816.1,34620.1,-0.266,-0.4348,144.7,97.6,0.497
6.2,31890.2,34850.5,-0.1623,-0.1606,144.7,97.6,0.497
6.22,32106.6,35168.2,0.1401,0.2174,144.7,97.6,0.497
6.24,32264.0,35518.5,0.3601,0.6343,144.7,97.6,0.497
6.26,32321.6,35764.1,0.4407,0.9265,144.7,97.6,0.497
6.28,32403.7,35656.6,0.5554,0.7985,144.7,97.6,0.497
6.3,32334.1,35635.7,0.4582,0.7737,144.7,97.6,0.497
6.32,32178.9,35381.0,0.2413,0.4707,144.7,97.6,0.497
6.34,32089.0,35150.7,0.1156,0.1966,144.7,97.6,0.497
6.36,32032.6,35131.8,0.0367,0.1741,144.7,97.6,0.497
6.38,32010.7,35079.0,0.006,0.1113,144.7,97.6,0.497
6.4,31937.0,34995.8,-0.0969,0.0123,144.7,97.6,0.497
6.42,31943.1,34930.0,-0.0885,-0.066,144.7,97.6,0.497
6.44,31982.4,34746.1,-0.0335,-0.2849,144.7,97.6,0.497
6.46,31885.8,34717.3,-0.1685,-0.3191,144.7,97.6,0.497
6.48,31931.2,34711.6,-0.1051,-0.3258,144.7,97.6,0.497
6.5,31918.9,34676.1,-0.1222,-0.3682,144.7,97.6,0.497
6.52,31730.3,34566.1,-0.3859,-0.499,144.7,97.6,0.497
6.54,31857.2,34666.3,-0.2084,-0.3798,144.7,97.6,0.497
6.56,31810.4,34412.2,-0.2739,-0.6821,144.7,97.6,0.497
6.58,31714.8,34487.2,-0.4076,-0.5929,144.7,97.6,0.497
6.6,31746.0,34613.3,-0.364,-0.4428,144.7,97.6,0.497
6.62,32076.0,34962.8,0.0974,-0.027,144.7,97.6,0.497
6.64,32162.8,35322.0,0.2187,0.4005,144.7,97.6,0.497
6.66,32318.6,35637.5,0.4365,0.7759,144.7,97.6,0.497
6.68,32405.1,35808.6,0.5574,0.9794,144.7,97.6,0.497
6.7,32290.4,35597.8,0.397,0.7286,144.7,97.6,0.497
6.72,32260.0,35547.5,0.3546,0.6688,144.7,97.6,0.497
6.74,32202.3,35266.5,0.2739,0.3344,144.7,97.6,0.497
6.76,32017.6,35141.9,0.0158,0.1862,144.7,97.6,0.497
6.78,32104.8,35163.7,0.1377,0.2121,144.7,97.6,0.497
6.8,32018.2,35080.0,0.0165,0.1125,144.7,97.6,0.497
6.82,31937.4,34979.3,-0.0964,-0.0074,144.7,97.6,0.497
6.84,31980.3,34761.0,-0.0364,-0.2671,144.7,97.6,0.497
6.86,31945.1,34767.4,-0.0856,-0.2595,144.7,97.6,0.497
6.88,31809.9,34764.3,-0.2747,-0.2632,144.7,97.6,0.497
6.9,31908.2,34757.1,-0.1372,-0.2717,144.7,97.6,0.497
6.92,31822.2,34554.5,-0.2574,-0.5129,144.7,97.6,0.497
6.94,31798.3,34522.0,-0.2908,-0.5515,144.7,97.6,0.497
6.96,31734.0,34509.0,-0.3807,-0.567,144.7,97.6,0.497
6.98,31777.7,34470.4,-0.3196,-0.6129,144.7,97.6,0.497
7.0,31706.6,34506.9,-0.419,-0.5694,144.7,97.6,0.497
7.02,31837.0,34666.7,-0.2367,-0.3793,144.7,97.6,0.497
7.04,32064.2,35016.3,0.0809,0.0367,144.7,97.6,0.497
7.06,32205.5,35335.2,0.2784,0.4162,144.7,97.6,0.497
7.08,32269.4,35640.7,0.3677,0.7796,144.7,97.6,0.497
7.1,32335.1,35695.3,0.4595,0.8446,144.7,97.6,0.497
7.12,32309.4,35593.7,0.4236,0.7237,144.7,97.6,0.497
7.14,32201.0,35420.7,0.2721,0.5179,144.7,97.6,0.497
7.16,32079.7,35257.7,0.1025,0.3239,144.7,97.6,0.497
7.18,32186.8,35165.4,0.2523,0.2141,144.7,97.6,0.497
7.2,32041.5,35141.0,0.0491,0.1851,144.7,97.6,0.497
7.22,32078.8,35028.7,0.1013,0.0515,144.7,97.6,0.497
7.24,32068.9,35000.1,0.0875,0.0174,144.7,97.6,0.497
7.26,31903.8,34831.1,-0.1433,-0.1837,144.7,97.6,0.497
7.28,31779.9,34709.1,-0.3165,-0.3288,144.7,97.6,0.497
7.3,31905.2,34716.1,-0.1414,-0.3205,144.7,97.6,0.497
7.32,31807.1,34683.7,-0.2786,-0.359,144.7,97.6,0.497
7.34,31802.2,34616.5,-0.2854,-0.439,144.7,97.6,0.497
7.36,31808.5,34530.1,-0.2766,-0.5419,144.7,97.6,0.497
7.38,31748.8,34525.0,-0.3601,-0.548,144.7,97.6,0.497
7.4,31812.7,34413.1,-0.2708,-0.6811,144.7,97.6,0.497
7.42,31816.3,34575.1,-0.2657,-0.4883,144.7,97.6,0.497
7.44,31891.7,34758.3,-0.1603,-0.2704,144.7,97.6,0.497
7.46,32097.8,35152.6,0.1279,0.1989,144.7,97.6,0.497
7.48,32256.6,35539.5,0.3498,0.6593,144.7,97.6,0.497
7.5,32308.2,35669.8,0.422,0.8143,144.7,97.6,0.497
7.52,32333.2,35612.6,0.4569,0.7462,144.7,97.6,0.497
7.54,32352.8,35555.9,0.4842,0.6787,144.7,97.6,0.497
7.56,32208.1,35401.6,0.2821,0.4952,144.7,97.6,0.497
7.58,32044.0,35206.2,0.0527,0.2627,144.7,97.6,0.497
7.6,32131.8,35174.1,0.1754,0.2244,144.7,97.6,0.497
7.62,32059.0,35123.4,0.0736,0.1641,144.7,97.6,0.497
7.64,32061.0,35029.3,0.0764,0.0522,144.7,97.6,0.497
7.66,32064.0,34875.2,0.0806,-0.1312,144.7,97.6,0.497
7.68,31868.7,34907.8,-0.1925,-0.0925,144.7,97.6,0.497
7.7,31864.5,34650.7,-0.1982,-0.3984,144.7,97.6,0.497
7.72,31772.3,34762.9,-0.3272,-0.2649,144.7,97.6,0.497
7.74,31847.0,34514.4,-0.2227,-0.5605,144.7,97.6,0.497
7.76,31773.3,34659.0,-0.3257,-0.3885,144.7,97.6,0.497
7.78,31779.0,34621.0,-0.3178,-0.4337,144.7,97.6,0.497
7.8,31723.0,34466.5,-0.3962,-0.6176,144.7,97.6,0.497
7.82,31696.1,34438.7,-0.4336,-0.6507,144.7,97.6,0.497
7.84,31809.6,34577.8,-0.275,-0.4851,144.7,97.6,0.497
7.86,32022.5,34921.3,0.0225,-0.0763,144.7,97.6,0.497
7.88,32173.1,35283.0,0.2331,0.354,144.7,97.6,0.497
7.9,32258.7,35606.8,0.3528,0.7394,144.7,97.6,0.497
7.92,32340.5,35729.1,0.4672,0.8849,144.7,97.6,0.497
7.94,32300.0,35657.8,0.4105,0.8001,144.7,97.6,0.497
7.96,32244.8,35539.7,0.3333,0.6595,144.7,97.6,0.497
7.98,32156.4,35361.2,0.2098,0.447,144.7,97.6,0.497
8.0,32058.7,35329.2,0.0732,0.409,144.7,97.6,0.497
8.02,31991.6,35101.9,-0.0206,0.1386,144.7,97.6,0.497
8.04,32083.7,35006.0,0.1082,0.0244,144.7,97.6,0.497
8.06,32110.2,34896.1,0.1451,-0.1064,144.7,97.6,0.497
8.08,31928.8,34867.4,-0.1084,-0.1405,144.7,97.6,0.497
8.1,31813.9,34703.4,-0.269,-0.3357,144.7,97.6,0.497
8.12,31958.8,34726.0,-0.0665,-0.3087,144.7,97.6,0.497
8.14,31828.0,34699.9,-0.2493,-0.3398,144.7,97.6,0.497
8.16,31939.5,34734.5,-0.0935,-0.2987,144.7,97.6,0.497
8.18,31861.0,34549.5,-0.2032,-0.5188,144.7,97.6,0.497
8.2,31656.0,34522.3,-0.4897,-0.5512,144.7,97.6,0.497
8.22,31808.9,34412.1,-0.2761,-0.6823,144.7,97.6,0.497
8.24,31860.6,34522.6,-0.2037,-0.5507,144.7,97.6,0.497
8.26,31820.8,34608.5,-0.2594,-0.4486,144.7,97.6,0.497
8.28,31894.7,34927.4,-0.1561,-0.0692,144.7,97.6,0.497
8.3,32087.5,35350.9,0.1135,0.4348,144.7,97.6,0.497
8.32,32286.6,35644.5,0.3918,0.7842,144.7,97.6,0.497
8.34,32368.0,35824.7,0.5056,0.9986,144.7,97.6,0.497
8.36,32286.7,35662.5,0.3919,0.8056,144.7,97.6,0.497
8.38,32218.5,35530.7,0.2965,0.6488,144.7,97.6,0.497
8.4,32209.4,35295.2,0.2839,0.3685,144.7,97.6,0.497
8.42,32144.8,35136.3,0.1935,0.1795,144.7,97.6,0.497
8.44,32008.6,35143.7,0.0032,0.1883,144.7,97.6,0.497
8.46,31965.9,35064.0,-0.0565,0.0934,144.7,97.6,0.497
8.48,32000.4,35004.0,-0.0084,0.0221,144.7,97.6,0.497
8.5,31939.9,34921.4,-0.0928,-0.0762,144.7,97.6,0.497
8.52,31929.4,34750.9,-0.1076,-0.2792,144.7,97.6,0.497
8.54,31850.5,34600.9,-0.2178,-0.4576,144.7,97.6,0.497
8.56,31830.7,34654.6,-0.2455,-0.3938,144.7,97.6,0.497
8.58,31858.0,34730.9,-0.2074,-0.3029,144.7,97.6,0.497
8.6,31839.9,34534.3,-0.2326,-0.5369,144.7,97.6,0.497
8.62,31783.0,34483.4,-0.3122,-0.5975,144.7,97.6,0.497
8.64,31759.2,34445.2,-0.3455,-0.6429,144.7,97.6,0.497
8.66,31797.4,34559.7,-0.292,-0.5066,144.7,97.6,0.497
8.68,31812.0,34806.7,-0.2717,-0.2127,144.7,97.6,0.497
8.7,31950.9,35099.5,-0.0776,0.1357,144.7,97.6,0.497
8.72,32169.8,35485.7,0.2285,0.5952,144.7,97.6,0.497
8.74,32333.2,35781.0,0.457,0.9466,144.7,97.6,0.497
8.76,32397.5,35712.3,0.5468,0.8648,144.7,97.6,0.497
8.78,32260.0,35683.4,0.3546,0.8305,144.7,97.6,0.497
8.8,32181.6,35359.8,0.245,0.4454,144.7,97.6,0.497
8.82,32021.5,35201.3,0.0212,0.2568,144.7,97.6,0.497
8.84,32050.1,35203.0,0.0612,0.2589,144.7,97.6,0.497
8.86,32048.9,35043.4,0.0595,0.0689,144.7,97.6,0.497
8.88,32031.1,35017.6,0.0346,0.0382,144.7,97.6,0.497
8.9,31910.4,34893.5,-0.1341,-0.1094,144.7,97.6,0.497
8.92,31913.7,34789.2,-0.1295,-0.2335,144.7,97.6,0.497
8.94,31970.1,34664.4,-0.0507,-0.382,144.7,97.6,0.497
8.96,31847.9,34638.0,-0.2215,-0.4135,144.7,97.6,0.497
8.98,31824.1,34608.5,-0.2547,-0.4486,144.7,97.6,0.497
9.0,31840.2,34637.1,-0.2323,-0.4145,144.7,97.6,0.497
9.02,31938.8,34560.6,-0.0944,-0.5056,144.7,97.6,0.497
9.04,31822.7,34458.1,-0.2567,-0.6275,144.7,97.6,0.497
9.06,31770.2,34474.7,-0.3302,-0.6077,144.7,97.6,0.497
9.08,31776.2,34552.6,-0.3217,-0.5151,144.7,97.6,0.497
9.1,31893.9,34902.5,-0.1572,-0.0987,144.7,97.6,0.497
9.12,32120.8,35105.1,0.1599,0.1424,144.7,97.6,0.497
9.14,32210.4,35483.5,0.2852,0.5926,144.7,97.6,0.497
9.16,32362.8,35822.0,0.4983,0.9953,144.7,97.6,0.497
9.18,32286.7,35687.0,0.3918,0.8348,144.7,97.6,0.497
9.2,32268.6,35614.0,0.3666,0.7479,144.7,97.6,0.497
9.22,32248.5,35382.7,0.3385,0.4726,144.7,97.6,0.497
9.24,32095.1,35194.7,0.1241,0.249,144.7,97.6,0.497
9.26,32029.1,35114.9,0.0318,0.154,144.7,97.6,0.497
9.28,32020.3,35086.2,0.0195,0.1199,144.7,97.6,0.497
9.3,32037.8,34958.5,0.044,-0.0321,144.7,97.6,0.497
9.32,31995.0,34929.2,-0.0158,-0.067,144.7,97.6,0.497
9.34,31877.3,34770.7,-0.1804,-0.2556,144.7,97.6,0.497
9.36,31858.2,34660.1,-0.2071,-0.3872,144.7,97.6,0.497
9.38,31989.0,34659.6,-0.0242,-0.3878,144.7,97.6,0.497
9.4,31740.8,34638.0,-0.3712,-0.4134,144.7,97.6,0.497
9.42,31776.1,34544.2,-0.3219,-0.5251,144.7,97.6,0.497
9.44,31797.9,34552.8,-0.2913,-0.5148,144.7,97.6,0.497
9.46,31739.4,34555.4,-0.3732,-0.5117,144.7,97.6,0.497
9.48,31681.7,34506.6,-0.4538,-0.5698,144.7,97.6,0.497
9.5,31856.9,34581.9,-0.2088,-0.4803,144.7,97.6,0.497
9.52,31943.1,34860.6,-0.0884,-0.1486,144.7,97.6,0.497
9.54,32019.8,35308.6,0.0188,0.3845,144.7,97.6,0.497
9.56,32333.4,35550.7,0.4572,0.6725,144.7,97.6,0.497
9.58,32310.0,35752.5,0.4245,0.9127,144.7,97.6,0.497
9.6,32338.8,35670.1,0.4647,0.8147,144.7,97.6,0.497
9.62,32261.6,35550.3,0.3568,0.6721,144.7,97.6,0.497
9.64,32180.6,35385.6,0.2436,0.4761,144.7,97.6,0.497
9.66,32115.9,35053.8,0.1532,0.0813,144.7,97.6,0.497
9.68,32072.8,35138.2,0.0929,0.1818,144.7,97.6,0.497
9.7,31976.5,35148.4,-0.0417,0.1939,144.7,97.6,0.497
9.72,32045.0,35038.2,0.0541,0.0628,144.7,97.6,0.497
9.74,31923.7,34870.6,-0.1156,-0.1366,144.7,97.6,0.497
9.76,31890.2,34724.5,-0.1624,-0.3105,144.7,97.6,0.497
9.78,31861.6,34755.0,-0.2024,-0.2743,144.7,97.6,0.497
9.8,31854.1,34650.0,-0.2128,-0.3992,144.7,97.6,0.497
9.82,31910.1,34673.7,-0.1345,-0.371,144.7,97.6,0.497
9.84,31807.6,34668.9,-0.2778,-0.3767,144.7,97.6,0.497
9.86,31843.5,34482.6,-0.2277,-0.5984,144.7,97.6,0.497
9.88,31690.7,34513.7,-0.4413,-0.5614,144.7,97.6,0.497
9.9,31694.3,34450.7,-0.4362,-0.6364,144.7,97.6,0.497
9.92,31840.0,34694.0,-0.2326,-0.3468,144.7,97.6,0.497
9.94,31951.5,34908.6,-0.0766,-0.0915,144.7,97.6,0.497
9.96,32133.6,35421.6,0.178,0.519,144.7,97.6,0.497
9.98,32263.5,35657.4,0.3595,0.7996,144.7,97.6,0.497
10.0,32384.1,35700.0,0.5281,0.8502,144.7,97.6,0.497
10.02,32243.9,35633.4,0.332,0.771,144.7,97.6,0.497
10.04,32305.1,35421.6,0.4176,0.519,144.7,97.6,0.497
10.06,32092.5,35263.5,0.1204,0.3308,144.7,97.6,0.497
10.08,32006.7,35209.4,0.0005,0.2664,144.7,97.6,0.497
10.1,32069.9,35166.3,0.0888,0.2151,144.7,97.6,0.497
10.12,32049.3,35071.1,0.0601,0.1019,144.7,97.6,0.497
10.14,32049.6,34907.1,0.0605,-0.0932,144.7,97.6,0.497
10.16,31896.9,34789.4,-0.153,-0.2334,144.7,97.6,0.497
10.18,31837.4,34767.8,-0.2362,-0.259,144.7,97.6,0.497
10.2,31901.9,34693.0,-0.146,-0.348,144.7,97.6,0.497
10.22,31779.9,34681.7,-0.3165,-0.3615,144.7,97.6,0.497
10.24,31675.2,34595.2,-0.4629,-0.4644,144.7,97.6,0.497
10.26,31867.6,34533.3,-0.194,-0.538,144.7,97.6,0.497
10.28,31742.5,34491.5,-0.3688,-0.5878,144.7,97.6,0.497
10.3,31724.3,34411.8,-0.3943,-0.6827,144.7,97.6,0.497
10.32,31768.6,34494.6,-0.3324,-0.5841,144.7,97.6,0.497
10.34,31923.2,34733.2,-0.1162,-0.3002,144.7,97.6,0.497
10.36,32068.5,35146.3,0.0869,0.1913,144.7,97.6,0.497
10.38,32172.8,35426.1,0.2326,0.5243,144.7,97.6,0.497
10.4,32298.7,35769.9,0.4087,0.9334,144.7,97.6,0.497
10.42,32307.2,35789.6,0.4206,0.9568,144.7,97.6,0.497
10.44,32237.9,35599.7,0.3237,0.7309,144.7,97.6,0.497
10.46,32112.3,35427.7,0.1481,0.5262,144.7,97.6,0.497
10.48,32041.1,35359.6,0.0485,0.4452,144.7,97.6,0.497
10.5,32080.0,35154.7,0.1029,0.2014,144.7,97.6,0.497
10.52,32052.8,35131.9,0.065,0.1742,144.7,97.6,0.497
10.54,32033.8,34987.2,0.0384,0.002,144.7,97.6,0.497
10.56,31909.4,34888.5,-0.1355,-0.1154,144.7,97.6,0.497
10.58,31794.5,34744.3,-0.2961,-0.2869,144.7,97.6,0.497
10.6,31871.7,34747.0,-0.1882,-0.2838,144.7,97.6,0.497
10.62,31959.5,34713.9,-0.0655,-0.3232,144.7,97.6,0.497
10.64,31905.4,34624.5,-0.1411,-0.4295,144.7,97.6,0.497
10.66,31814.9,34659.6,-0.2677,-0.3877,144.7,97.6,0.497
10.68,31798.9,34588.8,-0.29,-0.472,144.7,97.6,0.497
10.7,31817.0,34438.9,-0.2647,-0.6504,144.7,97.6,0.497
10.72,31708.2,34411.3,-0.4167,-0.6832,144.7,97.6,0.497
10.74,31836.5,34490.3,-0.2375,-0.5893,144.7,97.6,0.497
10.76,31874.0,34820.0,-0.185,-0.1969,144.7,97.6,0.497
10.78,32041.7,35202.0,0.0495,0.2577,144.7,97.6,0.497
10.8,32266.9,35583.9,0.3643,0.7121,144.7,97.6,0.497
10.82,32283.4,35782.4,0.3874,0.9483,144.7,97.6,0.497
10.84,32295.0,35725.1,0.4036,0.8801,144.7,97.6,0.497
10.86,32258.8,35626.3,0.3529,0.7625,144.7,97.6,0.497
10.88,32167.0,35358.5,0.2245,0.4438,144.7,97.6,0.497
10.9,32183.2,35194.7,0.2472,0.249,144.7,97.6,0.497
10.92,31964.7,35072.3,-0.0583,0.1033,144.7,97.6,0.497
10.94,32068.6,35049.7,0.087,0.0764,144.7,97.6,0.497
10.96,32010.1,34971.4,0.0053,-0.0167,144.7,97.6,0.497
10.98,31934.2,34958.4,-0.1008,-0.0322,144.7,97.6,0.497
11.0,31996.5,34783.9,-0.0137,-0.2398,144.7,97.6,0.497
11.02,31891.7,34736.2,-0.1603,-0.2967,144.7,97.6,0.497
11.04,31837.4,34700.7,-0.2361,-0.3389,144.7,97.6,0.497
11.06,31839.9,34605.7,-0.2327,-0.452,144.7,97.6,0.497
11.08,31836.5,34647.0,-0.2375,-0.4028,144.7,97.6,0.497
11.1,31757.5,34523.6,-0.3479,-0.5497,144.7,97.6,0.497
11.12,31787.0,34452.9,-0.3067,-0.6338,144.7,97.6,0.497
11.14,31729.3,34441.5,-0.3874,-0.6473,144.7,97.6,0.497
11.16,31754.6,34662.0,-0.3519,-0.385,144.7,97.6,0.497
11.18,32010.4,34934.3,0.0057,-0.0609,144.7,97.6,0.497
11.2,32197.5,35304.6,0.2672,0.3797,144.7,97.6,0.497
11.22,32322.9,35591.6,0.4424,0.7213,144.7,97.6,0.497
11.24,32355.0,35790.0,0.4874,0.9573,144.7,97.6,0.497
11.26,32356.5,35660.9,0.4894,0.8037,144.7,97.6,0.497
11.28,32254.2,35565.6,0.3465,0.6903,144.7,97.6,0.497
11.3,32160.4,35333.2,0.2153,0.4137,144.7,97.6,0.497
11.32,32045.1,35176.4,0.0542,0.2272,144.7,97.6,0.497
11.34,31989.8,35138.6,-0.0231,0.1822,144.7,97.6,0.497
11.36,32012.2,35014.5,0.0082,0.0346,144.7,97.6,0.497
11.38,31976.5,35035.3,-0.0418,0.0593,144.7,97.6,0.497
11.4,31878.3,34770.9,-0.179,-0.2553,144.7,97.6,0.497
11.42,31911.4,34793.8,-0.1327,-0.2281,144.7,97.6,0.497
11.44,31843.0,34705.9,-0.2284,-0.3327,144.7,97.6,0.497
11.46,31797.9,34670.2,-0.2914,-0.3752,144.7,97.6,0.497
11.48,31875.5,34710.3,-0.1829,-0.3275,144.7,97.6,0.497
11.5,31793.0,34664.3,-0.2982,-0.3822,144.7,97.6,0.497
11.52,31741.6,34537.9,-0.37,-0.5326,144.7,97.6,0.497
11.54,31735.3,34375.7,-0.3789,-0.7256,144.7,97.6,0.497
11.56,31718.2,34520.6,-0.4028,-0.5532,144.7,97.6,0.497
11.58,31939.9,34683.3,-0.0929,-0.3596,144.7,97.6,0.497
11.6,32009.3,35000.2,0.0042,0.0176,144.7,97.6,0.497
11.62,32191.1,35392.4,0.2582,0.4842,144.7,97.6,0.497
11.64,32348.6,35702.2,0.4784,0.8529,144.7,97.6,0.497
11.66,32389.5,35707.8,0.5357,0.8595,144.7,97.6,0.497
11.68,32257.9,35693.7,0.3517,0.8427,144.7,97.6,0.497
11.7,32174.2,35439.9,0.2346,0.5408,144.7,97.6,0.497
11.72,32131.3,35320.1,0.1746,0.3982,144.7,97.6,0.497
11.74,31991.1,35199.3,-0.0213,0.2544,144.7,97.6,0.497
11.76,32077.2,35071.0,0.0991,0.1017,144.7,97.6,0.497
11.78,31988.6,35055.4,-0.0249,0.0832,144.7,97.6,0.497
11.8,31969.1,34916.4,-0.0521,-0.0822,144.7,97.6,0.497
11.82,31920.8,34863.0,-0.1196,-0.1458,144.7,97.6,0.497
11.84,31878.1,34746.1,-0.1793,-0.2849,144.7,97.6,0.497
11.86,31817.1,34622.8,-0.2645,-0.4316,144.7,97.6,0.497
11.88,31829.7,34653.4,-0.2469,-0.3952,144.7,97.6,0.497
11.9,31742.7,34655.2,-0.3685,-0.3931,144.7,97.6,0.497
11.92,31740.4,34562.9,-0.3718,-0.5029,144.7,97.6,0.497
11.94,31752.2,34548.8,-0.3552,-0.5196,144.7,97.6,0.497
11.96,31734.3,34471.9,-0.3803,-0.6111,144.7,97.6,0.497
11.98,31743.7,34598.1,-0.3671,-0.461,144.7,97.6,0.497
12.0,31937.3,34735.4,-0.0965,-0.2976,144.7,97.6,0.497
12.02,32127.4,35181.6,0.1692,0.2334,144.7,97.6,0.497
12.04,32260.7,35490.5,0.3555,0.601,144.7,97.6,0.497
12.06,32384.1,35749.6,0.528,0.9093,144.7,97.6,0.497
12.08,32317.3,35782.6,0.4346,0.9485,144.7,97.6,0.497
12.1,32264.3,35646.6,0.3606,0.7867,144.7,97.6,0.497
12.12,32085.7,35503.3,0.1109,0.6161,144.7,97.6,0.497
12.14,32072.5,35143.4,0.0925,0.188,144.7,97.6,0.497
12.16,32009.3,35141.2,0.0042,0.1853,144.7,97.6,0.497
12.18,32035.9,35043.3,0.0413,0.0688,144.7,97.6,0.497
12.2,31989.4,35040.6,-0.0237,0.0656,144.7,97.6,0.497
12.22,32013.7,34920.0,0.0102,-0.078,144.7,97.6,0.497
12.24,31836.4,34806.3,-0.2376,-0.2132,144.7,97.6,0.497
12.26,31911.8,34691.1,-0.1322,-0.3503,144.7,97.6,0.497
12.28,31810.8,34867.3,-0.2733,-0.1406,144.7,97.6,0.497
12.3,31823.7,34646.4,-0.2553,-0.4035,144.7,97.6,0.497
12.32,31858.2,34667.5,-0.207,-0.3784,144.7,97.6,0.497
12.34,31813.9,34525.3,-0.269,-0.5476,144.7,97.6,0.497
12.36,31809.0,34476.7,-0.2759,-0.6054,144.7,97.6,0.497
12.38,31700.9,34485.5,-0.427,-0.5949,144.7,97.6,0.497
12.4,31762.4,34636.0,-0.341,-0.4159,144.7,97.6,0.497
12.42,31959.3,34892.6,-0.0658,-0.1105,144.7,97.6,0.497
12.44,32098.8,35276.2,0.1292,0.346,144.7,97.6,0.497
12.46,32254.1,35561.0,0.3463,0.6849,144.7,97.6,0.497
12.48,32299.0,35798.6,0.4091,0.9675,144.7,97.6,0.497
12.5,32358.8,35707.1,0.4926,0.8587,144.7,97.6,0.497
12.52,32257.0,35542.4,0.3504,0.6627,144.7,97.6,0.497
12.54,32089.3,35281.1,0.116,0.3518,144.7,97.6,0.497
12.56,32065.6,35225.4,0.0828,0.2855,144.7,97.6,0.497
12.58,32075.8,35084.4,0.0971,0.1177,144.7,97.6,0.497
12.6,32116.1,35076.6,0.1535,0.1084,144.7,97.6,0.497
12.62,32009.0,34921.8,0.0038,-0.0757,144.7,97.6,0.497
12.64,31943.0,34764.9,-0.0886,-0.2625,144.7,97.6,0.497
12.66,31898.4,34879.1,-0.1509,-0.1266,144.7,97.6,0.497
12.68,31784.0,34772.7,-0.3108,-0.2532,144.7,97.6,0.497
12.7,31941.6,34745.5,-0.0905,-0.2855,144.7,97.6,0.497
12.72,31872.3,34664.7,-0.1873,-0.3817,144.7,97.6,0.497
12.74,31785.5,34593.8,-0.3087,-0.4661,144.7,97.6,0.497
12.76,31802.7,34598.5,-0.2846,-0.4605,144.7,97.6,0.497
12.78,31724.6,34437.8,-0.3939,-0.6516,144.7,97.6,0.497
12.8,31726.9,34386.0,-0.3907,-0.7133,144.7,97.6,0.497
12.82,31843.3,34521.4,-0.228,-0.5523,144.7,97.6,0.497
12.84,31866.6,34979.1,-0.1953,-0.0076,144.7,97.6,0.497
12.86,32178.6,35302.6,0.2408,0.3773,144.7,97.6,0.497
12.88,32303.1,35564.2,0.4148,0.6887,144.7,97.6,0.497
12.9,32369.4,35850.6,0.5076,1.0294,144.7,97.6,0.497
12.92,32368.4,35631.8,0.5062,0.7691,144.7,97.6,0.497
12.94,32114.4,35585.6,0.1511,0.7141,144.7,97.6,0.497
12.96,32125.4,35214.2,0.1665,0.2722,144.7,97.6,0.497
12.98,32078.1,35209.5,0.1004,0.2666,144.7,97.6,0.497
13.0,32045.2,35141.2,0.0544,0.1853,144.7,97.6,0.497
13.02,32093.2,35049.9,0.1214,0.0766,144.7,97.6,0.497
13.04,32002.5,35034.6,-0.0053,0.0585,144.7,97.6,0.497
13.06,31942.6,34833.1,-0.0891,-0.1813,144.7,97.6,0.497
13.08,31864.2,34791.7,-0.1987,-0.2306,144.7,97.6,0.497
13.1,31848.4,34735.6,-0.2208,-0.2974,144.7,97.6,0.497
13.12,31881.7,34678.5,-0.1742,-0.3653,144.7,97.6,0.497
13.14,31811.9,34586.7,-0.2719,-0.4745,144.7,97.6,0.497
13.16,31741.7,34692.0,-0.3699,-0.3492,144.7,97.6,0.497
13.18,31803.3,34512.3,-0.2838,-0.563,144.7,97.6,0.497
13.2,31748.7,34466.7,-0.3602,-0.6173,144.7,97.6,0.497
13.22,31773.5,34583.2,-0.3255,-0.4787,144.7,97.6,0.497
13.24,31908.5,34709.0,-0.1368,-0.329,144.7,97.6,0.497
13.26,32047.6,35047.2,0.0577,0.0734,144.7,97.6,0.497
13.28,32142.9,35503.3,0.1909,0.6161,144.7,97.6,0.497
13.3,32265.6,35730.5,0.3625,0.8865,144.7,97.6,0.497
13.32,32265.0,35696.8,0.3615,0.8464,144.7,97.6,0.497
13.34,32342.2,35707.7,0.4694,0.8594,144.7,97.6,0.497
13.36,32229.1,35419.1,0.3114,0.516,144.7,97.6,0.497
13.38,32211.5,35245.7,0.2868,0.3096,144.7,97.6,0.497
13.4,32045.2,35214.0,0.0543,0.2719,144.7,97.6,0.497
13.42,32070.1,35120.6,0.0892,0.1607,144.7,97.6,0.497
13.44,32040.4,35084.8,0.0475,0.1181,144.7,97.6,0.497
13.46,31992.1,35030.4,-0.0199,0.0534,144.7,97.6,0.497
13.48,31889.5,34840.5,-0.1633,-0.1725,144.7,97.6,0.497
13.5,31824.6,34764.6,-0.2541,-0.2628,144.7,97.6,0.497
13.52,31889.1,34622.7,-0.1639,-0.4317,144.7,97.6,0.497
13.54,31856.9,34711.0,-0.2089,-0.3266,144.7,97.6,0.497
13.56,31842.5,34579.2,-0.2291,-0.4834,144.7,97.6,0.497
13.58,31792.4,34489.4,-0.299,-0.5902,144.7,97.6,0.497
13.6,31772.0,34461.8,-0.3277,-0.6231,144.7,97.6,0.497
13.62,31717.3,34411.8,-0.4041,-0.6827,144.7,97.6,0.497
13.64,31773.6,34531.1,-0.3253,-0.5407,144.7,97.6,0.497
13.66,31876.8,34807.5,-0.181,-0.2118,144.7,97.6,0.497
13.68,32055.9,35238.3,0.0692,0.3008,144.7,97.6,0.497
13.7,32173.6,35513.9,0.2339,0.6288,144.7,97.6,0.497
13.72,32384.6,35628.2,0.5288,0.7648,144.7,97.6,0.497
13.74,32363.2,35788.0,0.4989,0.9549,144.7,97.6,0.497
13.76,32327.5,35504.2,0.4489,0.6173,144.7,97.6,0.497
13.78,32171.2,35496.4,0.2305,0.6079,144.7,97.6,0.497
13.8,31983.5,35183.2,-0.032,0.2353,144.7,97.6,0.497
13.82,32113.0,35176.2,0.149,0.227,144.7,97.6,0.497
13.84,32059.8,35048.6,0.0748,0.0751,144.7,97.6,0.497
13.86,31907.2,35018.1,-0.1386,0.0389,144.7,97.6,0.497
13.88,31938.6,34945.0,-0.0948,-0.0481,144.7,97.6,0.497
13.9,31871.0,34830.9,-0.1892,-0.1839,144.7,97.6,0.497
13.92,31877.1,34781.1,-0.1807,-0.2432,144.7,97.6,0.497
13.94,31820.9,34706.5,-0.2593,-0.3319,144.7,97.6,0.497
13.96,31849.8,34664.9,-0.2188,-0.3814,144.7,97.6,0.497
13.98,31831.9,34616.1,-0.2439,-0.4396,144.7,97.6,0.497
14.0,31738.8,34612.5,-0.3741,-0.4438,144.7,97.6,0.497
14.02,31757.8,34507.0,-0.3474,-0.5694,144.7,97.6,0.497
14.04,31705.7,34359.5,-0.4203,-0.7448,144.7,97.6,0.497
14.06,31899.6,34559.8,-0.1492,-0.5065,144.7,97.6,0.497
14.08,32014.4,34847.9,0.0113,-0.1638,144.7,97.6,0.497
14.1,32163.6,35313.3,0.2198,0.3901,144.7,97.6,0.497
14.12,32235.7,35634.0,0.3206,0.7716,144.7,97.6,0.497
14.14,32338.1,35760.1,0.4638,0.9217,144.7,97.6,0.497
14.16,32406.9,35722.4,0.5599,0.8769,144.7,97.6,0.497
14.18,32193.8,35497.5,0.262,0.6093,144.7,97.6,0.497
14.2,32067.6,35337.6,0.0857,0.4191,144.7,97.6,0.497
14.22,32082.7,35256.7,0.1068,0.3228,144.7,97.6,0.497
14.24,32055.4,35154.5,0.0686,0.2011,144.7,97.6,0.497
14.26,31999.5,35096.5,-0.0095,0.1321,144.7,97.6,0.497
14.28,32039.7,34978.9,0.0466,-0.0078,144.7,97.6,0.497
14.3,32007.5,34846.3,0.0016,-0.1656,144.7,97.6,0.497
14.32,31979.5,34766.8,-0.0376,-0.2602,144.7,97.6,0.497
14.34,31954.9,34697.6,-0.072,-0.3425,144.7,97.6,0.497
14.36,31898.8,34656.9,-0.1504,-0.3909,144.7,97.6,0.497
14.38,31801.9,34547.4,-0.2858,-0.5212,144.7,97.6,0.497
14.4,31854.7,34599.2,-0.212,-0.4596,144.7,97.6,0.497
14.42,31795.3,34573.3,-0.295,-0.4904,144.7,97.6,0.497
14.44,31757.6,34625.2,-0.3478,-0.4287,144.7,97.6,0.497
14.46,31728.6,34491.8,-0.3883,-0.5875,144.7,97.6,0.497
14.48,31809.6,34762.0,-0.275,-0.2659,144.7,97.6,0.497
14.5,32078.9,35093.5,0.1014,0.1286,144.7,97.6,0.497
14.52,32143.9,35397.7,0.1923,0.4905,144.7,97.6,0.497
14.54,32326.9,35681.9,0.4481,0.8287,144.7,97.6,0.497
14.56,32370.5,35814.6,0.5091,0.9866,144.7,97.6,0.497
14.58,32312.0,35650.2,0.4273,0.791,144.7,97.6,0.497
14.6,32181.2,35575.3,0.2444,0.7019,144.7,97.6,0.497
14.62,32079.6,35250.2,0.1025,0.315,144.7,97.6,0.497
14.64,32107.8,35201.4,0.1419,0.2569,144.7,97.6,0.497
14.66,32085.8,35159.9,0.111,0.2075,144.7,97.6,0.497
14.68,32091.2,34998.3,0.1186,0.0152,144.7,97.6,0.497
14.7,32054.3,34937.2,0.067,-0.0575,144.7,97.6,0.497
14.72,32026.1,34774.3,0.0276,-0.2513,144.7,97.6,0.497
14.74,31901.4,34676.6,-0.1467,-0.3676,144.7,97.6,0.497
14.76,31854.1,34668.6,-0.2128,-0.377,144.7,97.6,0.497
14.78,31875.8,34706.2,-0.1825,-0.3323,144.7,97.6,0.497
14.8,31730.0,34622.6,-0.3863,-0.4318,144.7,97.6,0.497
14.82,31819.5,34621.2,-0.2612,-0.4335,144.7,97.6,0.497
14.84,31792.5,34499.5,-0.299,-0.5783,144.7,97.6,0.497
14.86,31824.5,34513.9,-0.2542,-0.5611,144.7,97.6,0.497
14.88,31807.4,34559.8,-0.2781,-0.5066,144.7,97.6,0.497
14.9,31933.6,34785.7,-0.1016,-0.2377,144.7,97.6,0.497
14.92,32063.8,35181.7,0.0804,0.2334,144.7,97.6,0.497
14.94,32163.4,35544.5,0.2195,0.6652,144.7,97.6,0.497
14.96,32343.4,35685.4,0.4711,0.8329,144.7,97.6,0.497
14.98,32328.4,35769.0,0.4502,0.9323,144.7,97.6,0.497
15.0,32311.8,35519.9,0.427,0.6359,144.7,97.6,0.497
15.02,32257.8,35394.2,0.3515,0.4864,144.7,97.6,0.497
15.04,32188.0,35245.1,0.2539,0.3089,144.7,97.6,0.497
15.06,32082.0,35086.8,0.1058,0.1205,144.7,97.6,0.497
15.08,32076.1,35119.3,0.0975,0.1593,144.7,97.6,0.497
15.1,31924.3,34951.4,-0.1147,-0.0406,144.7,97.6,0.497
15.12,32015.8,34924.3,0.0132,-0.0728,144.7,97.6,0.497
15.14,31886.0,34900.9,-0.1682,-0.1006,144.7,97.6,0.497
15.16,31898.7,34813.7,-0.1504,-0.2044,144.7,97.6,0.497
15.18,31920.2,34665.5,-0.1204,-0.3807,144.7,97.6,0.497
15.2,31845.3,34627.5,-0.2252,-0.426,144.7,97.6,0.497
15.22,31875.0,34636.3,-0.1836,-0.4155,144.7,97.6,0.497
15.24,31843.2,34644.6,-0.228,-0.4057,144.7,97.6,0.497
15.26,31804.7,34435.2,-0.2819,-0.6548,144.7,97.6,0.497
15.28,31777.5,34493.4,-0.3199,-0.5856,144.7,97.6,0.497
15.3,31835.1,34601.8,-0.2394,-0.4566,144.7,97.6,0.497
15.32,31888.6,34786.9,-0.1646,-0.2363,144.7,97.6,0.497
15.34,32007.4,35258.3,0.0014,0.3247,144.7,97.6,0.497
15.36,32275.9,35574.2,0.3768,0.7005,144.7,97.6,0.497
15.38,32354.8,35750.8,0.4871,0.9106,144.7,97.6,0.497
15.4,32305.1,35792.2,0.4176,0.96,144.7,97.6,0.497
15.42,32215.4,35596.6,0.2923,0.7272,144.7,97.6,0.497
15.44,32124.5,35303.9,0.1652,0.3788,144.7,97.6,0.497
15.46,31987.9,35352.5,-0.0258,0.4367,144.7,97.6,0.497
15.48,31990.8,35070.1,-0.0217,0.1007,144.7,97.6,0.497
15.5,32018.1,35032.0,0.0164,0.0554,144.7,97.6,0.497
15.52,31945.7,34947.7,-0.0848,-0.045,144.7,97.6,0.497
15.54,32000.3,34936.0,-0.0085,-0.0588,144.7,97.6,0.497
15.56,31948.2,34821.0,-0.0812,-0.1957,144.7,97.6,0.497
15.58,31911.2,34813.3,-0.133,-0.2049,144.7,97.6,0.497
15.6,31822.0,34599.1,-0.2577,-0.4598,144.7,97.6,0.497
15.62,31783.6,34640.5,-0.3114,-0.4105,144.7,97.6,0.497
15.64,31839.1,34574.4,-0.2338,-0.4891,144.7,97.6,0.497
15.66,31771.6,34665.2,-0.3281,-0.3812,144.7,97.6,0.497
15.68,31863.3,34443.9,-0.2,-0.6445,144.7,97.6,0.497
15.7,31714.4,34513.2,-0.4081,-0.562,144.7,97.6,0.497
15.72,31860.6,34664.6,-0.2038,-0.3818,144.7,97.6,0.497
15.74,31965.1,34899.6,-0.0577,-0.1021,144.7,97.6,0.497
15.76,32053.8,35226.4,0.0664,0.2866,144.7,97.6,0.497
15.78,32299.9,35523.8,0.4104,0.6406,144.7,97.6,0.497
15.8,32343.0,35762.1,0.4707,0.9241,144.7,97.6,0.497
15.82,32336.1,35619.5,0.461,0.7544,144.7,97.6,0.497
15.84,32325.6,35550.0,0.4463,0.6718,144.7,97.6,0.497
15.86,32133.8,35333.6,0.1782,0.4142,144.7,97.6,0.497
15.88,32103.6,35269.9,0.136,0.3385,144.7,97.6,0.497
15.9,31993.7,34989.3,-0.0176,0.0045,144.7,97.6,0.497
15.92,31941.7,35071.3,-0.0904,0.1021,144.7,97.6,0.497
15.94,31981.2,34965.0,-0.0352,-0.0244,144.7,97.6,0.497
15.96,31921.8,34853.7,-0.1182,-0.1568,144.7,97.6,0.497
15.98,31912.7,34831.4,-0.1309,-0.1834,144.7,97.6,0.497
16.0,31920.2,34727.8,-0.1204,-0.3066,144.7,97.6,0.497
16.02,31715.8,34685.9,-0.4061,-0.3564,144.7,97.6,0.497
16.04,31844.9,34683.2,-0.2258,-0.3597,144.7,97.6,0.497
16.06,31749.1,34670.2,-0.3597,-0.3751,144.7,97.6,0.497
16.08,31704.2,34496.5,-0.4224,-0.5818,144.7,97.6,0.497
16.1,31774.7,34420.0,-0.3238,-0.6729,144.7,97.6,0.497
16.12,31832.9,34500.9,-0.2425,-0.5766,144.7,97.6,0.497
16.14,31857.7,34701.6,-0.2078,-0.3378,144.7,97.6,0.497
16.16,31980.8,35029.7,-0.0358,0.0527,144.7,97.6,0.497
16.18,32229.1,35360.2,0.3114,0.4459,144.7,97.6,0.497
16.2,32259.4,35748.0,0.3538,0.9073,144.7,97.6,0.497
16.22,32385.5,35773.2,0.53,0.9373,144.7,97.6,0.497
16.24,32350.1,35545.1,0.4806,0.666,144.7,97.6,0.497
16.26,32190.2,35453.3,0.257,0.5567,144.7,97.6,0.497
16.28,32159.7,35333.3,0.2144,0.4139,144.7,97.6,0.497
16.3,32003.3,35089.6,-0.0042,0.1238,144.7,97.6,0.497
16.32,32139.5,35082.1,0.1861,0.1149,144.7,97.6,0.497
16.34,32010.2,35100.6,0.0054,0.137,144.7,97.6,0.497
16.36,31949.3,34884.5,-0.0797,-0.1201,144.7,97.6,0.497
16.38,31921.3,34840.0,-0.1189,-0.1731,144.7,97.6,0.497
16.4,31920.9,34706.4,-0.1194,-0.3321,144.7,97.6,0.497
16.42,31880.5,34698.5,-0.1759,-0.3415,144.7,97.6,0.497
16.44,31784.4,34678.7,-0.3102,-0.3651,144.7,97.6,0.497
16.46,31867.9,34598.9,-0.1935,-0.46,144.7,97.6,0.497
16.48,31769.4,34608.0,-0.3312,-0.4492,144.7,97.6,0.497
16.5,31735.9,34429.3,-0.378,-0.6618,144.7,97.6,0.497
16.52,31734.9,34446.7,-0.3795,-0.6411,144.7,97.6,0.497
16.54,31794.3,34510.8,-0.2964,-0.5648,144.7,97.6,0.497
16.56,31948.1,34751.0,-0.0814,-0.279,144.7,97.6,0.497
16.58,32069.0,35074.1,0.0876,0.1054,144.7,97.6,0.497
16.6,32234.4,35517.4,0.3189,0.633,144.7,97.6,0.497
16.62,32361.9,35760.1,0.4971,0.9218,144.7,97.6,0.497
16.64,32274.4,35735.0,0.3747,0.8919,144.7,97.6,0.497
16.66,32236.5,35636.5,0.3217,0.7746,144.7,97.6,0.497
16.68,32146.1,35397.9,0.1953,0.4908,144.7,97.6,0.497
16.7,32186.8,35278.0,0.2522,0.3481,144.7,97.6,0.497
16.72,32079.9,35167.8,0.1028,0.2169,144.7,97.6,0.497
16.74,32140.0,35182.0,0.1869,0.2339,144.7,97.6,0.497
16.76,31996.3,34998.4,-0.014,0.0154,144.7,97.6,0.497
16.78,32012.9,35014.4,0.0092,0.0344,144.7,97.6,0.497
16.8,31929.2,34808.8,-0.1079,-0.2102,144.7,97.6,0.497
16.82,31881.1,34740.3,-0.175,-0.2917,144.7,97.6,0.497
16.84,31928.0,34696.2,-0.1096,-0.3442,144.7,97.6,0.497
16.86,31864.1,34702.3,-0.1989,-0.3369,144.7,97.6,0.497
16.88,31851.5,34640.5,-0.2165,-0.4105,144.7,97.6,0.497
16.9,31850.0,34529.6,-0.2185,-0.5425,144.7,97.6,0.497
16.92,31777.1,34495.9,-0.3205,-0.5825,144.7,97.6,0.497
16.94,31678.1,34454.4,-0.4589,-0.6319,144.7,97.6,0.497
16.96,31843.1,34572.4,-0.2283,-0.4915,144.7,97.6,0.497
16.98,31997.9,34802.7,-0.0118,-0.2175,144.7,97.6,0.497
17.0,32182.9,35203.7,0.2467,0.2597,144.7,97.6,0.497
17.02,32207.9,35619.1,0.2817,0.754,144.7,97.6,0.497
17.04,32377.2,35772.7,0.5184,0.9367,144.7,97.6,0.497
17.06,32306.3,35741.4,0.4194,0.8995,144.7,97.6,0.497
17.08,32253.6,35593.1,0.3457,0.723,144.7,97.6,0.497
17.1,32247.5,35351.6,0.337,0.4357,144.7,97.6,0.497
17.12,32120.8,35182.9,0.1599,0.2349,144.7,97.6,0.497
17.14,32098.8,35123.6,0.1292,0.1644,144.7,97.6,0.497
17.16,32016.5,35050.8,0.0143,0.0777,144.7,97.6,0.497
17.18,32068.7,35063.3,0.0871,0.0926,144.7,97.6,0.497
17.2,31929.6,34969.1,-0.1073,-0.0195,144.7,97.6,0.497
17.22,31890.6,34763.9,-0.1618,-0.2637,144.7,97.6,0.497
17.24,31891.2,34662.1,-0.161,-0.3848,144.7,97.6,0.497
17.26,31985.0,34656.2,-0.0299,-0.3919,144.7,97.6,0.497
17.28,31889.8,34672.5,-0.1629,-0.3725,144.7,97.6,0.497
17.3,31837.2,34630.6,-0.2364,-0.4223,144.7,97.6,0.497
17.32,31848.5,34601.7,-0.2206,-0.4567,144.7,97.6,0.497
17.34,31777.2,34494.9,-0.3204,-0.5838,144.7,97.6,0.497
17.36,31777.5,34460.4,-0.3199,-0.6248,144.7,97.6,0.497
17.38,31897.3,34545.6,-0.1525,-0.5234,144.7,97.6,0.497
17.4,32030.4,34975.2,0.0337,-0.0122,144.7,97.6,0.497
17.42,32185.4,35380.8,0.2503,0.4704,144.7,97.6,0.497
17.44,32341.5,35580.1,0.4685,0.7075,144.7,97.6,0.497
17.46,32400.1,35758.3,0.5504,0.9196,144.7,97.6,0.497
17.48,32302.8,35657.6,0.4145,0.7997,144.7,97.6,0.497
17.5,32227.6,35586.6,0.3092,0.7153,144.7,97.6,0.497
17.52,32099.4,35322.1,0.1301,0.4005,144.7,97.6,0.497
17.54,32098.3,35212.5,0.1286,0.2701,144.7,97.6,0.497
17.56,32072.4,35100.8,0.0924,0.1373,144.7,97.6,0.497
17.58,32085.2,35133.3,0.1102,0.1759,144.7,97.6,0.497
17.6,31983.5,34976.3,-0.032,-0.0109,144.7,97.6,0.497
17.62,31959.9,34861.9,-0.065,-0.1471,144.7,97.6,0.497
17.64,31877.5,34852.3,-0.1801,-0.1584,144.7,97.6,0.497
17.66,31797.0,34633.0,-0.2926,-0.4194,144.7,97.6,0.497
17.68,31871.2,34584.5,-0.189,-0.4772,144.7,97.6,0.497
17.7,31845.9,34611.9,-0.2243,-0.4445,144.7,97.6,0.497
17.72,31927.0,34603.8,-0.111,-0.4541,144.7,97.6,0.497
17.74,31843.2,34554.0,-0.2281,-0.5134,144.7,97.6,0.497
17.76,31706.2,34418.8,-0.4195,-0.6743,144.7,97.6,0.497
17.78,31760.5,34425.9,-0.3436,-0.6659,144.7,97.6,0.497
17.8,31763.5,34609.9,-0.3395,-0.4469,144.7,97.6,0.497
17.82,32076.3,35005.2,0.0978,0.0235,144.7,97.6,0.497
17.84,32283.4,35319.0,0.3872,0.3968,144.7,97.6,0.497
17.86,32299.2,35779.9,0.4094,0.9453,144.7,97.6,0.497
17.88,32382.9,35815.8,0.5264,0.9881,144.7,97.6,0.497
17.9,32246.1,35593.3,0.3352,0.7233,144.7,97.6,0.497
17.92,32225.8,35393.7,0.3068,0.4858,144.7,97.6,0.497
17.94,32104.1,35269.3,0.1366,0.3377,144.7,97.6,0.497
17.96,32099.7,35098.8,0.1305,0.1348,144.7,97.6,0.497
17.98,31985.7,35030.0,-0.0289,0.053,144.7,97.6,0.497
18.0,32058.2,35076.7,0.0726,0.1085,144.7,97.6,0.497
18.02,31928.7,34933.6,-0.1086,-0.0617,144.7,97.6,0.497
18.04,31871.1,34872.9,-0.1891,-0.134,144.7,97.6,0.497
18.06,31794.5,34702.2,-0.2962,-0.3371,144.7,97.6,0.497
18.08,31907.7,34656.1,-0.1379,-0.3919,144.7,97.6,0.497
18.1,31869.7,34709.6,-0.191,-0.3283,144.7,97.6,0.497
18.12,31907.0,34779.8,-0.1389,-0.2447,144.7,97.6,0.497
18.14,31807.7,34575.7,-0.2777,-0.4876,144.7,97.6,0.497
18.16,31680.3,34507.5,-0.4558,-0.5688,144.7,97.6,0.497
18.18,31837.8,34546.8,-0.2357,-0.522,144.7,97.6,0.497
18.2,31875.0,34630.5,-0.1837,-0.4224,144.7,97.6,0.497
18.22,31934.4,34783.5,-0.1006,-0.2403,144.7,97.6,0.497
18.24,32116.6,35255.8,0.1542,0.3216,144.7,97.6,0.497
18.26,32208.8,35439.1,0.283,0.5397,144.7,97.6,0.497
18.28,32356.4,35795.1,0.4893,0.9634,144.7,97.6,0.497
18.3,32297.3,35705.7,0.4067,0.857,144.7,97.6,0.497
18.32,32325.0,35516.7,0.4455,0.6321,144.7,97.6,0.497
18.34,32147.7,35376.9,0.1976,0.4658,144.7,97.6,0.497
18.36,32029.4,35238.7,0.0322,0.3013,144.7,97.6,0.497
18.38,32042.5,35131.8,0.0505,0.1741,144.7,97.6,0.497
18.4,31995.7,35064.0,-0.0148,0.0935,144.7,97.6,0.497
18.42,31966.1,34967.1,-0.0562,-0.0219,144.7,97.6,0.497
18.44,31942.8,34890.2,-0.0888,-0.1134,144.7,97.6,0.497
18.46,31861.0,34826.0,-0.2032,-0.1897,144.7,97.6,0.497
18.48,31973.3,34815.4,-0.0462,-0.2024,144.7,97.6,0.497
18.5,31699.0,34712.6,-0.4297,-0.3247,144.7,97.6,0.497
18.52,31801.3,34646.4,-0.2867,-0.4035,144.7,97.6,0.497
18.54,31882.9,34672.9,-0.1725,-0.372,144.7,97.6,0.497
18.56,31763.5,34517.9,-0.3395,-0.5564,144.7,97.6,0.497
18.58,31771.3,34505.7,-0.3286,-0.5709,144.7,97.6,0.497
18.6,31757.7,34477.2,-0.3476,-0.6049,144.7,97.6,0.497
18.62,31842.7,34578.9,-0.2288,-0.4838,144.7,97.6,0.497
18.64,31908.1,34902.8,-0.1373,-0.0984,144.7,97.6,0.497
18.66,32238.9,35336.5,0.3251,0.4177,144.7,97.6,0.497
18.68,32271.8,35661.4,0.3711,0.8043,144.7,97.6,0.497
18.7,32401.7,35680.7,0.5526,0.8273,144.7,97.6,0.497
18.72,32360.3,35703.3,0.4948,0.8542,144.7,97.6,0.497
18.74,32203.6,35480.1,0.2757,0.5886,144.7,97.6,0.497
18.76,32184.4,35360.8,0.2488,0.4466,144.7,97.6,0.497
18.78,32071.7,35240.1,0.0914,0.303,144.7,97.6,0.497
18.8,32025.4,35185.8,0.0267,0.2384,144.7,97.6,0.497
18.82,32050.5,34999.7,0.0618,0.0169,144.7,97.6,0.497
18.84,32064.8,34969.6,0.0818,-0.0189,144.7,97.6,0.497
18.86,31932.1,34908.4,-0.1037,-0.0917,144.7,97.6,0.497
18.88,31863.9,34614.4,-0.1992,-0.4416,144.7,97.6,0.497
18.9,31778.8,34676.9,-0.318,-0.3672,144.7,97.6,0.497
18.92,31766.2,34686.5,-0.3356,-0.3558,144.7,97.6,0.497
18.94,31728.8,34789.9,-0.388,-0.2327,144.7,97.6,0.497
18.96,31824.9,34534.0,-0.2537,-0.5372,144.7,97.6,0.497
18.98,31780.1,34541.8,-0.3163,-0.5279,144.7,97.6,0.497
19.0,31746.9,34458.1,-0.3626,-0.6276,144.7,97.6,0.497
19.02,31782.4,34527.0,-0.313,-0.5455,144.7,97.6,0.497
19.04,31846.7,34703.8,-0.2231,-0.3352,144.7,97.6,0.497
19.06,31910.9,35085.4,-0.1334,0.1189,144.7,97.6,0.497
19.08,32218.6,35406.9,0.2968,0.5015,144.7,97.6,0.497
19.1,32325.0,35684.2,0.4455,0.8314,144.7,97.6,0.497
19.12,32263.3,35764.3,0.3593,0.9267,144.7,97.6,0.497
19.14,32252.5,35640.2,0.3441,0.7791,144.7,97.6,0.497
19.16,32267.5,35573.5,0.3651,0.6997,144.7,97.6,0.497
19.18,32169.5,35316.3,0.2281,0.3937,144.7,97.6,0.497
19.2,32098.6,35157.6,0.129,0.2048,144.7,97.6,0.497
19.22,32010.2,35073.4,0.0053,0.1046,144.7,97.6,0.497
19.24,32041.3,35045.1,0.0489,0.0709,144.7,97.6,0.497
19.26,32008.0,34889.6,0.0023,-0.1141,144.7,97.6,0.497
19.28,31959.5,34886.0,-0.0655,-0.1184,144.7,97.6,0.497
19.3,31861.7,34816.0,-0.2022,-0.2017,144.7,97.6,0.497
19.32,31854.5,34667.6,-0.2122,-0.3783,144.7,97.6,0.497
19.34,31878.1,34701.7,-0.1793,-0.3377,144.7,97.6,0.497
19.36,31786.1,34656.9,-0.3079,-0.3909,144.7,97.6,0.497
19.38,31809.4,34519.9,-0.2754,-0.554,144.7,97.6,0.497
19.4,31752.9,34430.7,-0.3543,-0.6601,144.7,97.6,0.497
19.42,31832.6,34433.7,-0.2429,-0.6566,144.7,97.6,0.497
19.44,31700.4,34630.3,-0.4277,-0.4227,144.7,97.6,0.497
19.46,31847.2,34802.8,-0.2225,-0.2174,144.7,97.6,0.497
19.48,31987.0,35180.4,-0.027,0.232,144.7,97.6,0.497
19.5,32275.3,35486.8,0.3759,0.5966,144.7,97.6,0.497
19.52,32254.5,35729.6,0.3469,0.8854,144.7,97.6,0.497
19.54,32347.4,35675.6,0.4768,0.8212,144.7,97.6,0.497
19.56,32327.0,35607.0,0.4482,0.7396,144.7,97.6,0.497
19.58,32242.1,35436.9,0.3295,0.5372,144.7,97.6,0.497
19.6,32095.9,35227.8,0.1251,0.2884,144.7,97.6,0.497
19.62,32046.6,35101.3,0.0562,0.1378,144.7,97.6,0.497
19.64,32065.6,35137.1,0.0828,0.1804,144.7,97.6,0.497
19.66,31998.0,35050.3,-0.0116,0.0771,144.7,97.6,0.497
19.68,31959.9,34958.3,-0.0649,-0.0324,144.7,97.6,0.497
19.7,31845.9,34750.0,-0.2243,-0.2802,144.7,97.6,0.497
19.72,31818.8,34701.4,-0.2621,-0.338,144.7,97.6,0.497
19.74,31761.6,34640.7,-0.3421,-0.4103,144.7,97.6,0.497
19.76,31853.1,34660.8,-0.2142,-0.3864,144.7,97.6,0.497
19.78,31811.4,34649.0,-0.2726,-0.4003,144.7,97.6,0.497
19.8,31887.6,34576.0,-0.166,-0.4872,144.7,97.6,0.497
19.82,31795.1,34518.0,-0.2953,-0.5562,144.7,97.6,0.497
19.84,31751.6,34523.3,-0.3561,-0.5499,144.7,97.6,0.497
19.86,31748.0,34600.1,-0.3612,-0.4586,144.7,97.6,0.497
19.88,31871.8,34823.4,-0.1882,-0.1928,144.7,97.6,0.497
19.9,32095.6,35251.4,0.1247,0.3164,144.7,97.6,0.497
19.92,32246.8,35504.6,0.3362,0.6177,144.7,97.6,0.497
19.94,32293.4,35747.1,0.4012,0.9063,144.7,97.6,0.497
19.96,32349.9,35660.0,0.4802,0.8027,144.7,97.6,0.497
19.98,32328.2,35552.1,0.45,0.6743,144.7,97.6,0.497
20.0,32162.8,35413.3,0.2188,0.509,144.7,97.6,0.497
20.02,32097.1,35230.9,0.1269,0.2921,144.7,97.6,0.497
20.04,32111.7,35174.1,0.1472,0.2245,144.7,97.6,0.497
20.06,32052.6,35130.7,0.0647,0.1728,144.7,97.6,0.497
20.08,31959.6,35009.0,-0.0654,0.0279,144.7,97.6,0.497
20.1,31970.6,34906.4,-0.0499,-0.0941,144.7,97.6,0.497
20.12,31892.1,34844.7,-0.1597,-0.1675,144.7,97.6,0.497
20.14,31893.7,34648.8,-0.1574,-0.4007,144.7,97.6,0.497
20.16,31840.4,34639.4,-0.232,-0.4118,144.7,97.6,0.497
20.18,31825.6,34745.7,-0.2526,-0.2853,144.7,97.6,0.497
20.2,31863.1,34511.1,-0.2003,-0.5645,144.7,97.6,0.497
20.22,31874.2,34592.5,-0.1847,-0.4676,144.7,97.6,0.497
20.24,31797.7,34463.8,-0.2917,-0.6208,144.7,97.6,0.497
20.26,31799.3,34555.6,-0.2894,-0.5115,144.7,97.6,0.497
20.28,31886.0,34621.9,-0.1683,-0.4327,144.7,97.6,0.497
20.3,31982.5,34871.3,-0.0333,-0.1358,144.7,97.6,0.497
20.32,32206.4,35417.6,0.2797,0.5142,144.7,97.6,0.497
20.34,32235.7,35610.6,0.3205,0.7438,144.7,97.6,0.497
20.36,32389.9,35759.4,0.5362,0.9209,144.7,97.6,0.497
20.38,32314.6,35693.5,0.4309,0.8424,144.7,97.6,0.497
20.4,32295.7,35431.8,0.4045,0.5311,144.7,97.6,0.497
20.42,32060.3,35325.7,0.0754,0.4049,144.7,97.6,0.497
20.44,32059.4,35210.9,0.0742,0.2682,144.7,97.6,0.497
20.46,32032.7,35075.7,0.0369,0.1074,144.7,97.6,0.497
20.48,32101.6,35047.4,0.1331,0.0737,144.7,97.6,0.497
20.5,32048.3,35032.3,0.0587,0.0557,144.7,97.6,0.497
20.52,31902.4,34902.1,-0.1454,-0.0992,144.7,97.6,0.497
20.54,31857.6,34652.5,-0.2079,-0.3962,144.7,97.6,0.497
20.56,31811.8,34728.3,-0.272,-0.3061,144.7,97.6,0.497
20.58,31939.7,34566.8,-0.0931,-0.4982,144.7,97.6,0.497
20.6,31740.3,34628.8,-0.3719,-0.4244,144.7,97.6,0.497
20.62,31784.4,34497.8,-0.3103,-0.5803,144.7,97.6,0.497
20.64,31805.2,34492.3,-0.2812,-0.5869,144.7,97.6,0.497
20.66,31712.6,34486.6,-0.4106,-0.5936,144.7,97.6,0.497
20.68,31738.1,34614.2,-0.375,-0.4418,144.7,97.6,0.497
20.7,31897.9,34707.4,-0.1516,-0.3309,144.7,97.6,0.497
20.72,32015.9,35032.4,0.0134,0.0558,144.7,97.6,0.497
20.74,32241.8,35405.4,0.3291,0.4997,144.7,97.6,0.497
20.76,32252.6,35631.7,0.3442,0.7689,144.7,97.6,0.497
20.78,32309.4,35746.6,0.4237,0.9057,144.7,97.6,0.497
20.8,32260.7,35692.9,0.3556,0.8418,144.7,97.6,0.497
20.82,32187.2,35365.1,0.2528,0.4517,144.7,97.6,0.497
20.84,32128.7,35262.4,0.171,0.3295,144.7,97.6,0.497
20.86,32034.1,35207.4,0.0389,0.2641,144.7,97.6,0.497
20.88,32152.9,35025.5,0.2049,0.0476,144.7,97.6,0.497
20.9,32012.5,34936.1,0.0085,-0.0588,144.7,97.6,0.497
20.92,31977.1,34989.2,-0.0408,0.0045,144.7,97.6,0.497
20.94,31885.5,34894.0,-0.169,-0.1089,144.7,97.6,0.497
20.96,31840.4,34753.9,-0.232,-0.2756,144.7,97.6,0.497
20.98,31912.9,34725.5,-0.1307,-0.3093,144.7,97.6,0.497
21.0,31872.8,34686.9,-0.1868,-0.3553,144.7,97.6,0.497
21.02,31830.3,34666.0,-0.2461,-0.3802,144.7,97.6,0.497
21.04,31813.1,34472.7,-0.2702,-0.6102,144.7,97.6,0.497
21.06,31803.8,34460.7,-0.2831,-0.6244,144.7,97.6,0.497
21.08,31691.4,34431.9,-0.4402,-0.6587,144.7,97.6,0.497
21.1,31736.6,34542.6,-0.3771,-0.527,144.7,97.6,0.497
21.12,31912.5,34825.6,-0.1312,-0.1903,144.7,97.6,0.497
21.14,32103.0,35184.2,0.1351,0.2364,144.7,97.6,0.497
21.16,32354.9,35455.0,0.4873,0.5587,144.7,97.6,0.497
21.18,32361.8,35732.0,0.4969,0.8883,144.7,97.6,0.497
21.2,32387.5,35720.0,0.5329,0.874,144.7,97.6,0.497
21.22,32320.5,35551.7,0.4392,0.6737,144.7,97.6,0.497
21.24,32177.6,35407.2,0.2394,0.5018,144.7,97.6,0.497
21.26,32052.8,35209.7,0.0649,0.2668,144.7,97.6,0.497
21.28,32045.6,35223.8,0.0548,0.2835,144.7,97.6,0.497
21.3,31997.2,35115.7,-0.0128,0.1549,144.7,97.6,0.497
21.32,31995.0,34982.2,-0.0159,-0.0039,144.7,97.6,0.497
21.34,31985.9,35028.0,-0.0285,0.0506,144.7,97.6,0.497
21.36,31837.8,34742.7,-0.2356,-0.2889,144.7,97.6,0.497
21.38,31905.1,34672.7,-0.1416,-0.3721,144.7,97.6,0.497
21.4,31804.3,34633.6,-0.2824,-0.4187,144.7,97.6,0.497
21.42,31823.8,34598.7,-0.2552,-0.4602,144.7,97.6,0.497
21.44,31922.8,34687.4,-0.1168,-0.3547,144.7,97.6,0.497
21.46,31801.1,34477.6,-0.2869,-0.6043,144.7,97.6,0.497
21.48,31760.7,34477.1,-0.3434,-0.6049,144.7,97.6,0.497
21.5,31747.5,34404.7,-0.3618,-0.6911,144.7,97.6,0.497
21.52,31820.8,34667.9,-0.2594,-0.3779,144.7,97.6,0.497
21.54,31951.0,34876.7,-0.0774,-0.1295,144.7,97.6,0.497
21.56,32062.3,35231.3,0.0783,0.2925,144.7,97.6,0.497
21.58,32291.3,35579.7,0.3984,0.7071,144.7,97.6,0.497
21.6,32405.5,35717.8,0.5579,0.8714,144.7,97.6,0.497
21.62,32319.5,35679.2,0.4377,0.8254,144.7,97.6,0.497
21.64,32233.9,35610.8,0.3181,0.7441,144.7,97.6,0.497
21.66,32158.6,35334.8,0.2129,0.4156,144.7,97.6,0.497
21.68,32081.1,35070.7,0.1045,0.1015,144.7,97.6,0.497
21.7,32150.9,35112.5,0.202,0.1512,144.7,97.6,0.497
21.72,31971.4,35120.6,-0.0489,0.1608,144.7,97.6,0.497
21.74,31998.1,34977.9,-0.0116,-0.009,144.7,97.6,0.497
21.76,32016.4,34890.2,0.0141,-0.1133,144.7,97.6,0.497
21.78,31953.5,34773.5,-0.0739,-0.2523,144.7,97.6,0.497
21.8,31852.2,34690.2,-0.2155,-0.3514,144.7,97.6,0.497
21.82,31850.9,34700.7,-0.2174,-0.3388,144.7,97.6,0.497
21.84,31795.0,34691.2,-0.2955,-0.3502,144.7,97.6,0.497
21.86,31862.5,34642.5,-0.2011,-0.4081,144.7,97.6,0.497
21.88,31755.6,34508.9,-0.3505,-0.5671,144.7,97.6,0.497
21.9,31719.2,34470.3,-0.4014,-0.613,144.7,97.6,0.497
21.92,31713.0,34518.3,-0.4101,-0.5559,144.7,97.6,0.497
21.94,31928.1,34618.6,-0.1093,-0.4366,144.7,97.6,0.497
21.96,31894.2,34984.0,-0.1567,-0.0018,144.7,97.6,0.497
21.98,32177.0,35274.2,0.2386,0.3435,144.7,97.6,0.497
22.0,32319.5,35590.1,0.4378,0.7195,144.7,97.6,0.497
22.02,32269.1,35717.8,0.3673,0.8714,144.7,97.6,0.497
22.04,32204.7,35630.8,0.2772,0.7679,144.7,97.6,0.497
22.06,32279.8,35458.1,0.3823,0.5624,144.7,97.6,0.497
22.08,32041.8,35348.6,0.0495,0.4321,144.7,97.6,0.497
22.1,32053.3,35139.9,0.0657,0.1838,144.7,97.6,0.497
22.12,32068.3,35110.5,0.0866,0.1487,144.7,97.6,0.497
22.14,31985.1,34995.3,-0.0297,0.0117,144.7,97.6,0.497
22.16,32009.8,35047.0,0.0048,0.0733,144.7,97.6,0.497
22.18,31926.0,34774.8,-0.1123,-0.2507,144.7,97.6,0.497
22.2,31900.9,34689.3,-0.1473,-0.3524,144.7,97.6,0.497
22.22,31812.4,34718.5,-0.2711,-0.3177,144.7,97.6,0.497
22.24,31864.8,34672.2,-0.1978,-0.3728,144.7,97.6,0.497
22.26,31795.0,34665.7,-0.2955,-0.3805,144.7,97.6,0.497
22.28,31849.7,34609.1,-0.219,-0.4478,144.7,97.6,0.497
22.3,31673.2,34426.4,-0.4657,-0.6653,144.7,97.6,0.497
22.32,31761.0,34354.1,-0.343,-0.7512,144.7,97.6,0.497
22.34,31735.8,34560.8,-0.3782,-0.5053,144.7,97.6,0.497
22.36,31890.1,34705.4,-0.1625,-0.3333,144.7,97.6,0.497
22.38,32041.4,35135.7,0.049,0.1788,144.7,97.6,0.497
22.4,32108.5,35480.8,0.1428,0.5894,144.7,97.6,0.497
22.42,32309.2,35635.9,0.4233,0.7739,144.7,97.6,0.497
22.44,32310.1,35810.7,0.4246,0.9819,144.7,97.6,0.497
22.46,32338.3,35628.2,0.464,0.7648,144.7,97.6,0.497
22.48,32206.4,35480.1,0.2797,0.5886,144.7,97.6,0.497
22.5,32193.9,35191.7,0.2622,0.2454,144.7,97.6,0.497
22.52,32010.2,35133.1,0.0053,0.1756,144.7,97.6,0.497
22.54,32095.2,35023.5,0.1241,0.0453,144.7,97.6,0.497
22.56,32043.9,35034.6,0.0525,0.0584,144.7,97.6,0.497
22.58,32006.7,34955.8,0.0005,-0.0353,144.7,97.6,0.497
22.6,31905.2,34846.6,-0.1414,-0.1653,144.7,97.6,0.497
22.62,31927.4,34730.8,-0.1103,-0.303,144.7,97.6,0.497
22.64,31876.5,34648.5,-0.1815,-0.401,144.7,97.6,0.497
22.66,31766.3,34619.5,-0.3355,-0.4355,144.7,97.6,0.497
22.68,31789.0,34631.0,-0.3038,-0.4218,144.7,97.6,0.497
22.7,31871.3,34544.1,-0.1888,-0.5253,144.7,97.6,0.497
22.72,31851.5,34517.1,-0.2165,-0.5574,144.7,97.6,0.497
22.74,31813.2,34432.5,-0.2701,-0.658,144.7,97.6,0.497
22.76,31873.0,34603.7,-0.1864,-0.4543,144.7,97.6,0.497
22.78,31967.2,34762.0,-0.0547,-0.2659,144.7,97.6,0.497
22.8,32152.4,35158.3,0.2041,0.2056,144.7,97.6,0.497
22.82,32205.7,35526.6,0.2787,0.6439,144.7,97.6,0.497
22.84,32460.6,35740.9,0.635,0.8989,144.7,97.6,0.497
22.86,32393.8,35712.8,0.5416,0.8654,144.7,97.6,0.497
22.88,32303.1,35603.7,0.4148,0.7356,144.7,97.6,0.497
22.9,32177.7,35318.2,0.2395,0.3959,144.7,97.6,0.497
22.92,32198.0,35230.1,0.2679,0.2911,144.7,97.6,0.497
22.94,32049.8,35163.7,0.0608,0.2121,144.7,97.6,0.497
22.96,32068.2,35091.4,0.0864,0.126,144.7,97.6,0.497
22.98,32026.1,35057.4,0.0276,0.0856,144.7,97.6,0.497
23.0,31965.0,34925.9,-0.0578,-0.0709,144.7,97.6,0.497
23.02,31981.1,34776.8,-0.0353,-0.2483,144.7,97.6,0.497
23.04,31911.5,34718.4,-0.1326,-0.3178,144.7,97.6,0.497
23.06,31952.3,34614.8,-0.0755,-0.441,144.7,97.6,0.497
23.08,31854.9,34726.2,-0.2118,-0.3085,144.7,97.6,0.497
23.1,31764.1,34524.9,-0.3386,-0.5481,144.7,97.6,0.497
23.12,31872.4,34430.8,-0.1873,-0.66,144.7,97.6,0.497
23.14,31772.1,34406.5,-0.3275,-0.689,144.7,97.6,0.497
23.16,31806.5,34446.0,-0.2794,-0.642,144.7,97.6,0.497
23.18,31769.2,34724.5,-0.3315,-0.3106,144.7,97.6,0.497
23.2,31916.7,34968.3,-0.1253,-0.0204,144.7,97.6,0.497
23.22,32104.6,35342.8,0.1374,0.4251,144.7,97.6,0.497
23.24,32240.2,35591.9,0.327,0.7216,144.7,97.6,0.497
23.26,32427.7,35751.9,0.589,0.912,144.7,97.6,0.497
23.28,32314.7,35639.8,0.431,0.7786,144.7,97.6,0.497
23.3,32289.4,35503.8,0.3957,0.6167,144.7,97.6,0.497
23.32,32001.2,35404.8,-0.0071,0.4989,144.7,97.6,0.497
23.34,32137.5,35174.4,0.1833,0.2248,144.7,97.6,0.497
23.36,32069.1,35165.6,0.0878,0.2143,144.7,97.6,0.497
23.38,32097.5,35133.0,0.1275,0.1756,144.7,97.6,0.497
23.4,32041.2,34970.2,0.0488,-0.0182,144.7,97.6,0.497
23.42,31953.6,34810.8,-0.0738,-0.2079,144.7,97.6,0.497
23.44,31937.6,34749.1,-0.0961,-0.2813,144.7,97.6,0.497
23.46,31896.3,34687.5,-0.1538,-0.3546,144.7,97.6,0.497
23.48,31792.8,34635.1,-0.2985,-0.417,144.7,97.6,0.497
23.5,31785.5,34610.3,-0.3087,-0.4464,144.7,97.6,0.497
23.52,31791.2,34482.3,-0.3007,-0.5988,144.7,97.6,0.497
23.54,31860.8,34442.9,-0.2035,-0.6456,144.7,97.6,0.497
23.56,31851.5,34529.4,-0.2164,-0.5427,144.7,97.6,0.497
23.58,31731.2,34527.6,-0.3847,-0.5449,144.7,97.6,0.497
23.6,31898.0,34693.5,-0.1515,-0.3474,144.7,97.6,0.497
23.62,32084.1,34997.0,0.1086,0.0137,144.7,97.6,0.497
23.64,32176.2,35369.3,0.2374,0.4568,144.7,97.6,0.497
23.66,32331.2,35741.6,0.4541,0.8998,144.7,97.6,0.497
23.68,32420.0,35771.2,0.5782,0.935,144.7,97.6,0.497
23.7,32343.2,35683.6,0.471,0.8307,144.7,97.6,0.497
23.72,32235.6,35455.5,0.3205,0.5593,144.7,97.6,0.497
23.74,32067.8,35340.1,0.0859,0.4219,144.7,97.6,0.497
23.76,32061.6,35147.5,0.0772,0.1928,144.7,97.6,0.497
23.78,32005.6,35120.3,-0.001,0.1604,144.7,97.6,0.497
23.8,31975.4,35078.3,-0.0433,0.1105,144.7,97.6,0.497
23.82,31864.1,34998.7,-0.1988,0.0157,144.7,97.6,0.497
23.84,31990.2,34909.8,-0.0225,-0.09,144.7,97.6,0.497
23.86,31841.4,34806.7,-0.2305,-0.2127,144.7,97.6,0.497
23.88,31841.8,34615.4,-0.23,-0.4404,144.7,97.6,0.497
23.9,31829.7,34671.1,-0.2469,-0.3741,144.7,97.6,0.497
23.92,31809.0,34679.1,-0.2758,-0.3645,144.7,97.6,0.497
23.94,31924.6,34615.7,-0.1143,-0.44,144.7,97.6,0.497
23.96,31819.5,34477.1,-0.2612,-0.6049,144.7,97.6,0.497
23.98,31828.6,34533.7,-0.2485,-0.5376,144.7,97.6,0.497
24.0,31799.7,34494.0,-0.2888,-0.5849,144.7,97.6,0.497
24.02,31829.2,34751.3,-0.2476,-0.2787,144.7,97.6,0.497
24.04,32142.3,35155.6,0.1901,0.2025,144.7,97.6,0.497
24.06,32233.2,35516.2,0.3171,0.6316,144.7,97.6,0.497
24.08,32279.1,35764.0,0.3813,0.9263,144.7,97.6,0.497
24.1,32303.7,35769.3,0.4156,0.9327,144.7,97.6,0.497
24.12,32229.9,35531.3,0.3124,0.6495,144.7,97.6,0.497
24.14,32212.5,35451.3,0.2882,0.5542,144.7,97.6,0.497
24.16,32082.2,35214.6,0.106,0.2726,144.7,97.6,0.497
24.18,32034.0,35176.7,0.0387,0.2275,144.7,97.6,0.497
24.2,32000.6,35052.0,-0.008,0.0792,144.7,97.6,0.497
24.22,32045.2,35020.4,0.0543,0.0415,144.7,97.6,0.497
24.24,32075.4,35055.6,0.0966,0.0834,144.7,97.6,0.497
24.26,32017.7,34797.6,0.0158,-0.2236,144.7,97.6,0.497
24.28,31795.2,34765.0,-0.2951,-0.2623,144.7,97.6,0.497
24.3,31852.4,34684.1,-0.2152,-0.3586,144.7,97.6,0.497
24.32,31821.1,34719.7,-0.259,-0.3162,144.7,97.6,0.497
24.34,31852.2,34638.5,-0.2155,-0.4128,144.7,97.6,0.497
24.36,31793.8,34667.1,-0.2972,-0.3788,144.7,97.6,0.497
24.38,31806.9,34524.9,-0.2788,-0.548,144.7,97.6,0.497
24.4,31752.4,34429.1,-0.3549,-0.662,144.7,97.6,0.497
24.42,31733.3,34589.5,-0.3817,-0.4712,144.7,97.6,0.497
24.44,31895.3,34875.8,-0.1552,-0.1306,144.7,97.6,0.497
24.46,31986.3,35218.7,-0.028,0.2776,144.7,97.6,0.497
24.48,32209.4,35503.7,0.2838,0.6166,144.7,97.6,0.497
24.5,32370.9,35714.8,0.5096,0.8678,144.7,97.6,0.497
24.52,32359.0,35653.0,0.4929,0.7943,144.7,97.6,0.497
24.54,32222.7,35599.3,0.3024,0.7304,144.7,97.6,0.497
24.56,32157.9,35389.0,0.2119,0.4802,144.7,97.6,0.497
24.58,32117.2,35179.9,0.1549,0.2313,144.7,97.6,0.497
24.6,32098.9,35142.0,0.1294,0.1862,144.7,97.6,0.497
24.62,31969.6,35049.7,-0.0514,0.0764,144.7,97.6,0.497
24.64,31986.1,34976.4,-0.0283,-0.0109,144.7,97.6,0.497
24.66,31982.5,34936.6,-0.0334,-0.0581,144.7,97.6,0.497
24.68,31978.2,34791.3,-0.0393,-0.231,144.7,97.6,0.497
24.7,31778.3,34708.8,-0.3187,-0.3292,144.7,97.6,0.497
24.72,31910.6,34742.3,-0.1339,-0.2894,144.7,97.6,0.497
24.74,31856.1,34618.5,-0.21,-0.4366,144.7,97.6,0.497
24.76,31788.7,34613.9,-0.3042,-0.4422,144.7,97.6,0.497
24.78,31752.2,34513.5,-0.3553,-0.5616,144.7,97.6,0.497
24.8,31777.5,34507.3,-0.3199,-0.569,144.7,97.6,0.497
24.82,31795.6,34534.3,-0.2946,-0.5368,144.7,97.6,0.497
24.84,31821.2,34647.1,-0.2588,-0.4027,144.7,97.6,0.497
24.86,31946.1,34904.3,-0.0843,-0.0966,144.7,97.6,0.497
24.88,32095.2,35308.7,0.1241,0.3846,144.7,97.6,0.497
24.9,32276.8,35583.7,0.3781,0.7118,144.7,97.6,0.497
24.92,32352.7,35723.1,0.4841,0.8777,144.7,97.6,0.497
24.94,32406.0,35720.3,0.5587,0.8744,144.7,97.6,0.497
24.96,32252.8,35527.7,0.3446,0.6452,144.7,97.6,0.497
24.98,32164.7,35362.2,0.2214,0.4483,144.7,97.6,0.497
25.0,32091.7,35070.4,0.1194,0.101,144.7,97.6,0.497
25.02,32006.7,35067.6,0.0004,0.0977,144.7,97.6,0.497
25.04,32005.1,35044.4,-0.0017,0.0702,144.7,97.6,0.497
25.06,31934.5,35002.9,-0.1005,0.0208,144.7,97.6,0.497
25.08,32006.0,34908.7,-0.0005,-0.0914,144.7,97.6,0.497
25.1,31899.3,34738.9,-0.1496,-0.2934,144.7,97.6,0.497
25.12,31812.7,34819.2,-0.2706,-0.1979,144.7,97.6,0.497
25.14,31847.3,34676.2,-0.2224,-0.368,144.7,97.6,0.497
25.16,31939.9,34818.5,-0.093,-0.1986,144.7,97.6,0.497
25.18,31848.4,34481.0,-0.2208,-0.6003,144.7,97.6,0.497
25.2,31703.5,34570.2,-0.4234,-0.4942,144.7,97.6,0.497
25.22,31814.0,34475.3,-0.2689,-0.6071,144.7,97.6,0.497
25.24,31810.9,34563.6,-0.2731,-0.5019,144.7,97.6,0.497
25.26,31961.3,34718.7,-0.0629,-0.3175,144.7,97.6,0.497
25.28,32063.1,35038.8,0.0794,0.0634,144.7,97.6,0.497
25.3,32176.9,35400.6,0.2384,0.4939,144.7,97.6,0.497
25.32,32316.1,35762.9,0.433,0.9251,144.7,97.6,0.497
25.34,32383.4,35752.1,0.5271,0.9122,144.7,97.6,0.497
25.36,32253.2,35688.3,0.345,0.8363,144.7,97.6,0.497
25.38,32170.0,35375.0,0.2288,0.4635,144.7,97.6,0.497
25.4,32131.3,35349.0,0.1747,0.4326,144.7,97.6,0.497
25.42,32076.4,35244.3,0.0979,0.308,144.7,97.6,0.497
25.44,32073.8,35073.6,0.0943,0.1048,144.7,97.6,0.497
25.46,32127.6,35054.0,0.1695,0.0815,144.7,97.6,0.497
25.48,31943.7,34963.4,-0.0875,-0.0262,144.7,97.6,0.497
25.5,31925.7,34764.3,-0.1128,-0.2632,144.7,97.6,0.497
25.52,31856.3,34736.4,-0.2098,-0.2964,144.7,97.6,0.497
25.54,31849.8,34698.7,-0.2189,-0.3412,144.7,97.6,0.497
25.56,31879.5,34701.4,-0.1774,-0.3381,144.7,97.6,0.497
25.58,31844.0,34737.3,-0.227,-0.2953,144.7,97.6,0.497
25.6,31760.3,34646.9,-0.3439,-0.4029,144.7,97.6,0.497
25.62,31763.5,34485.2,-0.3394,-0.5953,144.7,97.6,0.497
25.64,31768.5,34413.7,-0.3325,-0.6804,144.7,97.6,0.497
25.66,31832.3,34539.6,-0.2433,-0.5306,144.7,97.6,0.497
25.68,31872.0,34825.4,-0.1878,-0.1905,144.7,97.6,0.497
25.7,32136.8,35144.5,0.1824,0.1892,144.7,97.6,0.497
25.72,32260.1,35535.2,0.3547,0.6541,144.7,97.6,0.497
25.74,32296.3,35659.6,0.4053,0.8021,144.7,97.6,0.497
25.76,32376.3,35672.8,0.5171,0.8179,144.7,97.6,0.497
25.78,32257.6,35682.7,0.3512,0.8296,144.7,97.6,0.497
25.8,32224.4,35432.6,0.3048,0.5321,144.7,97.6,0.497
25.82,32114.5,35265.7,0.1512,0.3335,144.7,97.6,0.497
25.84,32060.4,35185.8,0.0755,0.2384,144.7,97.6,0.497
25.86,32068.4,35084.4,0.0868,0.1177,144.7,97.6,0.497
25.88,31952.8,35042.9,-0.0749,0.0683,144.7,97.6,0.497
25.9,31893.4,34912.2,-0.1579,-0.0872,144.7,97.6,0.497
25.92,31889.4,34804.4,-0.1635,-0.2155,144.7,97.6,0.497
25.94,31878.5,34668.8,-0.1787,-0.3769,144.7,97.6,0.497
25.96,31833.5,34649.3,-0.2416,-0.4,144.7,97.6,0.497
25.98,31802.7,34593.4,-0.2846,-0.4666,144.7,97.6,0.497
26.0,31918.7,34589.0,-0.1225,-0.4717,144.7,97.6,0.497
26.02,31847.0,34519.7,-0.2227,-0.5542,144.7,97.6,0.497
26.04,31772.7,34458.0,-0.3266,-0.6277,144.7,97.6,0.497
26.06,31643.1,34404.5,-0.5078,-0.6914,144.7,97.6,0.497
26.08,31791.4,34549.3,-0.3004,-0.519,144.7,97.6,0.497
26.1,32094.0,34948.5,0.1225,-0.044,144.7,97.6,0.497
26.12,32150.5,35336.3,0.2015,0.4174,144.7,97.6,0.497
26.14,32173.8,35647.2,0.2341,0.7874,144.7,97.6,0.497
26.16,32365.0,35735.3,0.5013,0.8922,144.7,97.6,0.497
26.18,32219.5,35786.9,0.2979,0.9536,144.7,97.6,0.497
26.2,32178.9,35504.6,0.2413,0.6178,144.7,97.6,0.497
26.22,32144.7,35338.5,0.1934,0.42,144.7,97.6,0.497
26.24,32115.6,35220.9,0.1527,0.2801,144.7,97.6,0.497
26.26,32067.8,35105.9,0.086,0.1433,144.7,97.6,0.497
26.28,31985.2,35005.1,-0.0296,0.0233,144.7,97.6,0.497
26.3,31992.0,35036.4,-0.0201,0.0605,144.7,97.6,0.497
26.32,31941.4,34930.1,-0.0908,-0.0659,144.7,97.6,0.497
26.34,31872.0,34750.5,-0.1878,-0.2796,144.7,97.6,0.497
26.36,31939.6,34707.2,-0.0933,-0.3312,144.7,97.6,0.497
26.38,31863.1,34562.5,-0.2002,-0.5033,144.7,97.6,0.497
26.4,31818.0,34634.1,-0.2633,-0.4182,144.7,97.6,0.497
26.42,31844.5,34606.8,-0.2263,-0.4506,144.7,97.6,0.497
26.44,31786.0,34616.3,-0.308,-0.4393,144.7,97.6,0.497
26.46,31691.6,34553.3,-0.44,-0.5143,144.7,97.6,0.497
26.48,31767.9,34481.8,-0.3333,-0.5994,144.7,97.6,0.497
26.5,31830.7,34591.3,-0.2455,-0.469,144.7,97.6,0.497
26.52,31952.5,35045.1,-0.0753,0.0709,144.7,97.6,0.497
26.54,32168.8,35394.1,0.2271,0.4863,144.7,97.6,0.497
26.56,32369.5,35662.0,0.5077,0.8051,144.7,97.6,0.497
26.58,32352.8,35796.4,0.4842,0.965,144.7,97.6,0.497
26.6,32328.8,35761.1,0.4507,0.9229,144.7,97.6,0.497
26.62,32184.7,35516.8,0.2494,0.6323,144.7,97.6,0.497
26.64,32208.6,35316.4,0.2827,0.3938,144.7,97.6,0.497
26.66,32055.6,35071.8,0.0689,0.1028,144.7,97.6,0.497
26.68,32044.7,35087.5,0.0537,0.1214,144.7,97.6,0.497
26.7,32033.3,35109.8,0.0377,0.148,144.7,97.6,0.497
26.72,31978.7,35021.9,-0.0386,0.0434,144.7,97.6,0.497
26.74,31845.6,34901.6,-0.2247,-0.0998,144.7,97.6,0.497
26.76,31879.2,34733.4,-0.1777,-0.2999,144.7,97.6,0.497
26.78,31919.6,34686.2,-0.1212,-0.3562,144.7,97.6,0.497
26.8,31766.6,34612.8,-0.3352,-0.4435,144.7,97.6,0.497
26.82,31794.5,34637.7,-0.2961,-0.4139,144.7,97.6,0.497
26.84,31814.5,34610.7,-0.2683,-0.4459,144.7,97.6,0.497
26.86,31695.8,34449.4,-0.4341,-0.6379,144.7,97.6,0.497
26.88,31767.7,34489.0,-0.3336,-0.5908,144.7,97.6,0.497
26.9,31820.1,34534.8,-0.2604,-0.5362,144.7,97.6,0.497
26.92,31956.3,34761.2,-0.0699,-0.2668,144.7,97.6,0.497
26.94,32049.9,35125.8,0.0609,0.167,144.7,97.6,0.497
26.96,32196.0,35443.9,0.2651,0.5455,144.7,97.6,0.497
26.98,32361.8,35690.4,0.4969,0.8388,144.7,97.6,0.497
27.0,32341.4,35741.7,0.4684,0.8999,144.7,97.6,0.497
27.02,32281.6,35526.0,0.3848,0.6432,144.7,97.6,0.497
27.04,32265.5,35394.5,0.3623,0.4867,144.7,97.6,0.497
27.06,32117.0,35262.9,0.1547,0.3301,144.7,97.6,0.497
27.08,31984.5,35161.5,-0.0305,0.2094,144.7,97.6,0.497
27.1,32087.5,35110.8,0.1134,0.1491,144.7,97.6,0.497
27.12,32055.2,35015.7,0.0683,0.036,144.7,97.6,0.497
27.14,31929.1,34877.3,-0.1079,-0.1287,144.7,97.6,0.497
27.16,32018.9,34803.1,0.0175,-0.217,144.7,97.6,0.497
27.18,31813.5,34679.7,-0.2696,-0.3639,144.7,97.6,0.497
27.2,31893.7,34654.6,-0.1575,-0.3937,144.7,97.6,0.497
27.22,31872.9,34727.2,-0.1865,-0.3073,144.7,97.6,0.497
27.24,31820.6,34644.6,-0.2596,-0.4057,144.7,97.6,0.497
27.26,31754.0,34605.3,-0.3527,-0.4524,144.7,97.6,0.497
27.28,31737.4,34449.8,-0.3759,-0.6374,144.7,97.6,0.497
27.3,31897.9,34454.5,-0.1515,-0.6318,144.7,97.6,0.497
27.32,31923.8,34536.4,-0.1155,-0.5344,144.7,97.6,0.497
27.34,31906.1,34879.9,-0.1401,-0.1257,144.7,97.6,0.497
27.36,31993.7,35182.0,-0.0177,0.2339,144.7,97.6,0.497
27.38,32239.9,35550.3,0.3265,0.6722,144.7,97.6,0.497
27.4,32300.0,35612.2,0.4104,0.7458,144.7,97.6,0.497
27.42,32328.3,35656.3,0.45,0.7982,144.7,97.6,0.497
27.44,32182.7,35647.3,0.2465,0.7876,144.7,97.6,0.497
27.46,32134.0,35243.3,0.1784,0.3068,144.7,97.6,0.497
27.48,32028.7,35141.7,0.0312,0.1859,144.7,97.6,0.497
27.5,32025.0,35042.1,0.0261,0.0674,144.7,97.6,0.497
27.52,32062.1,35000.2,0.0779,0.0175,144.7,97.6,0.497
27.54,31986.2,35052.2,-0.0281,0.0794,144.7,97.6,0.497
27.56,31981.2,34883.5,-0.0351,-0.1213,144.7,97.6,0.497
27.58,31959.3,34786.3,-0.0658,-0.237,144.7,97.6,0.497
27.6,31864.2,34801.0,-0.1986,-0.2196,144.7,97.6,0.497
27.62,31770.1,34709.3,-0.3302,-0.3286,144.7,97.6,0.497
27.64,31779.4,34623.8,-0.3172,-0.4304,144.7,97.6,0.497
27.66,31872.4,34681.9,-0.1872,-0.3613,144.7,97.6,0.497
27.68,31778.2,34503.6,-0.3189,-0.5734,144.7,97.6,0.497
27.7,31726.9,34518.7,-0.3907,-0.5554,144.7,97.6,0.497
27.72,31803.0,34429.5,-0.2842,-0.6616,144.7,97.6,0.497
27.74,31904.0,34602.0,-0.1431,-0.4564,144.7,97.6,0.497
27.76,31974.3,34944.8,-0.0448,-0.0484,144.7,97.6,0.497
27.78,32096.0,35268.4,0.1254,0.3367,144.7,97.6,0.497
27.8,32243.6,35668.4,0.3316,0.8127,144.7,97.6,0.497
27.82,32336.4,35756.7,0.4613,0.9176,144.7,97.6,0.497
27.84,32342.4,35697.1,0.4698,0.8468,144.7,97.6,0.497
27.86,32297.3,35504.3,0.4067,0.6173,144.7,97.6,0.497
27.88,32138.7,35353.2,0.185,0.4376,144.7,97.6,0.497
27.9,32141.2,35174.3,0.1885,0.2246,144.7,97.6,0.497
27.92,32042.8,35095.6,0.051,0.131,144.7,97.6,0.497
27.94,32087.3,35061.0,0.1132,0.0899,144.7,97.6,0.497
27.96,31958.8,34973.0,-0.0665,-0.0148,144.7,97.6,0.497
27.98,31866.6,34835.4,-0.1953,-0.1786,144.7,97.6,0.497
28.0,31938.8,34677.4,-0.0944,-0.3665,144.7,97.6,0.497
28.02,31827.7,34626.1,-0.2498,-0.4277,144.7,97.6,0.497
28.04,31812.5,34671.0,-0.271,-0.3742,144.7,97.6,0.497
28.06,31857.4,34645.8,-0.2082,-0.4042,144.7,97.6,0.497
28.08,31810.0,34610.8,-0.2745,-0.4459,144.7,97.6,0.497
28.1,31801.5,34493.5,-0.2863,-0.5855,144.7,97.6,0.497
28.12,31753.5,34461.2,-0.3534,-0.6239,144.7,97.6,0.497
28.14,31827.0,34470.1,-0.2507,-0.6132,144.7,97.6,0.497
28.16,31872.9,34703.0,-0.1866,-0.3361,144.7,97.6,0.497
28.18,32031.8,35069.3,0.0355,0.0997,144.7,97.6,0.497
28.2,32225.2,35468.8,0.3059,0.5751,144.7,97.6,0.497
28.22,32309.6,35742.0,0.424,0.9002,144.7,97.6,0.497
28.24,32418.7,35749.5,0.5764,0.9092,144.7,97.6,0.497
28.26,32317.1,35622.3,0.4344,0.7578,144.7,97.6,0.497
28.28,32267.6,35489.8,0.3652,0.6001,144.7,97.6,0.497
28.3,32213.0,35252.3,0.2889,0.3174,144.7,97.6,0.497
28.32,32060.1,35157.0,0.0751,0.2041,144.7,97.6,0.497
28.34,31972.6,35065.8,-0.0472,0.0956,144.7,97.6,0.497
28.36,32035.3,35097.2,0.0404,0.133,144.7,97.6,0.497
28.38,31815.2,34901.3,-0.2671,-0.1002,144.7,97.6,0.497
28.4,31884.0,34886.8,-0.1711,-0.1175,144.7,97.6,0.497
28.42,31936.8,34770.8,-0.0972,-0.2554,144.7,97.6,0.497
28.44,31730.0,34676.5,-0.3863,-0.3676,144.7,97.6,0.497
28.46,31777.5,34720.4,-0.3199,-0.3154,144.7,97.6,0.497
28.48,31842.2,34702.8,-0.2294,-0.3363,144.7,97.6,0.497
28.5,31849.8,34544.7,-0.2189,-0.5245,144.7,97.6,0.497
28.52,31755.0,34597.1,-0.3514,-0.4621,144.7,97.6,0.497
28.54,31694.6,34392.3,-0.4357,-0.7058,144.7,97.6,0.497
28.56,31719.6,34483.0,-0.4008,-0.598,144.7,97.6,0.497
28.58,31895.2,34759.5,-0.1554,-0.2689,144.7,97.6,0.497
28.6,32041.1,35122.6,0.0486,0.1631,144.7,97.6,0.497
28.62,32169.0,35554.4,0.2274,0.6769,144.7,97.6,0.497
28.64,32394.5,35664.4,0.5426,0.8079,144.7,97.6,0.497
28.66,32386.9,35830.2,0.5319,1.0052,144.7,97.6,0.497
28.68,32324.2,35552.2,0.4443,0.6743,144.7,97.6,0.497
28.7,32119.9,35453.4,0.1588,0.5567,144.7,97.6,0.497
28.72,32118.1,35302.3,0.1562,0.377,144.7,97.6,0.497
28.74,32061.8,35116.3,0.0775,0.1557,144.7,97.6,0.497
28.76,32081.4,35024.6,0.1049,0.0465,144.7,97.6,0.497
28.78,32021.4,34988.9,0.021,0.0041,144.7,97.6,0.497
28.8,31933.6,34911.2,-0.1017,-0.0884,144.7,97.6,0.497
28.82,31903.7,34859.0,-0.1435,-0.1505,144.7,97.6,0.497
28.84,31841.2,34706.4,-0.2308,-0.3321,144.7,97.6,0.497
28.86,31800.5,34686.0,-0.2878,-0.3564,144.7,97.6,0.497
28.88,31890.5,34744.1,-0.1619,-0.2872,144.7,97.6,0.497
28.9,31891.3,34648.5,-0.1608,-0.401,144.7,97.6,0.497
28.92,31740.9,34593.9,-0.3711,-0.4659,144.7,97.6,0.497
28.94,31865.6,34560.4,-0.1968,-0.5059,144.7,97.6,0.497
28.96,31721.0,34501.2,-0.3989,-0.5762,144.7,97.6,0.497
28.98,31742.6,34543.0,-0.3686,-0.5265,144.7,97.6,0.497
29.0,31911.2,34857.2,-0.133,-0.1526,144.7,97.6,0.497
29.02,32169.8,35226.1,0.2285,0.2864,144.7,97.6,0.497
29.04,32274.0,35613.4,0.3741,0.7472,144.7,97.6,0.497
29.06,32374.8,35731.1,0.515,0.8873,144.7,97.6,0.497
29.08,32421.4,35758.8,0.5802,0.9202,144.7,97.6,0.497
29.1,32164.8,35532.4,0.2215,0.6508,144.7,97.6,0.497
29.12,32150.7,35323.8,0.2017,0.4026,144.7,97.6,0.497
29.14,32099.0,35243.0,0.1296,0.3065,144.7,97.6,0.497
29.16,32009.9,35143.4,0.005,0.1879,144.7,97.6,0.497
29.18,31966.7,35022.8,-0.0555,0.0445,144.7,97.6,0.497
29.2,32011.0,35035.9,0.0065,0.0601,144.7,97.6,0.497
29.22,31945.3,34884.6,-0.0853,-0.12,144.7,97.6,0.497
29.24,31879.0,34844.2,-0.1781,-0.1681,144.7,97.6,0.497
29.26,31844.2,34665.6,-0.2266,-0.3806,144.7,97.6,0.497
29.28,31852.7,34823.7,-0.2148,-0.1925,144.7,97.6,0.497
29.3,31726.3,34634.4,-0.3915,-0.4178,144.7,97.6,0.497
29.32,31810.1,34540.4,-0.2744,-0.5296,144.7,97.6,0.497
29.34,31795.0,34623.7,-0.2954,-0.4304,144.7,97.6,0.497
29.36,31685.3,34489.4,-0.4488,-0.5903,144.7,97.6,0.497
29.38,31732.4,34417.1,-0.383,-0.6763,144.7,97.6,0.497
29.4,31810.6,34620.9,-0.2736,-0.4338,144.7,97.6,0.497
29.42,31929.9,34940.6,-0.1068,-0.0534,144.7,97.6,0.497
29.44,32209.5,35382.6,0.2839,0.4725,144.7,97.6,0.497
29.46,32185.0,35691.3,0.2497,0.8398,144.7,97.6,0.497
29.48,32356.6,35779.5,0.4896,0.9448,144.7,97.6,0.497
29.5,32355.4,35702.7,0.488,0.8534,144.7,97.6,0.497
29.52,32172.6,35579.2,0.2324,0.7065,144.7,97.6,0.497
29.54,32056.2,35323.1,0.0697,0.4017,144.7,97.6,0.497
29.56,32081.4,35123.9,0.1049,0.1647,144.7,97.6,0.497
29.58,31986.4,35114.0,-0.0279,0.1529,144.7,97.6,0.497
29.6,32027.4,35085.6,0.0294,0.1191,144.7,97.6,0.497
29.62,31858.7,34999.4,-0.2064,0.0165,144.7,97.6,0.497
29.64,31976.5,34929.6,-0.0417,-0.0665,144.7,97.6,0.497
29.66,31877.0,34741.4,-0.1809,-0.2904,144.7,97.6,0.497
29.68,31835.3,34726.3,-0.2391,-0.3084,144.7,97.6,0.497
29.7,31896.2,34616.2,-0.1539,-0.4394,144.7,97.6,0.497
29.72,31856.7,34634.5,-0.2092,-0.4177,144.7,97.6,0.497
29.74,31829.8,34670.5,-0.2468,-0.3748,144.7,97.6,0.497
29.76,31819.6,34539.2,-0.2611,-0.5311,144.7,97.6,0.497
29.78,31741.0,34475.6,-0.3709,-0.6067,144.7,97.6,0.497
29.8,31810.8,34502.8,-0.2734,-0.5744,144.7,97.6,0.497
29.82,31844.0,34760.0,-0.227,-0.2684,144.7,97.6,0.497
29.84,32123.6,35166.8,0.1639,0.2158,144.7,97.6,0.497
29.86,32202.2,35410.2,0.2738,0.5054,144.7,97.6,0.497
29.88,32321.6,35671.3,0.4407,0.8161,144.7,97.6,0.497
29.9,32374.2,35765.3,0.5142,0.9279,144.7,97.6,0.497
29.92,32298.6,35657.1,0.4085,0.7991,144.7,97.6,0.497
29.94,32220.4,35366.7,0.2992,0.4537,144.7,97.6,0.497
29.96,32070.8,35279.1,0.0901,0.3493,144.7,97.6,0.497
29.98,31974.1,35146.3,-0.0451,0.1914,144.7,97.6,0.497
30.0,32466.9,35376.1,0.6438,0.4648,144.7,97.6,0.497
30.02,35796.4,35209.0,5.2981,0.2659,144.7,97.6,0.497
30.04,28247.4,35042.3,-5.2547,0.0676,144.7,97.6,0.497
30.06,34133.7,33958.2,2.9739,-1.2224,144.7,97.6,0.497
30.08,34393.8,32458.0,3.3374,-3.0075,144.7,97.6,0.497
30.1,30874.6,34638.5,-1.5821,-0.4129,144.7,97.6,0.497
30.12,31797.5,35361.1,-0.2919,0.447,144.7,97.6,0.497
30.14,27199.1,33284.8,-6.7201,-2.0237,144.7,97.6,0.497
30.16,29850.5,34468.6,-3.0137,-0.6151,144.7,97.6,0.497
30.18,32945.5,35907.3,1.3129,1.0969,144.7,97.6,0.497
30.2,31360.0,32915.6,-0.9035,-2.463,144.7,97.6,0.497
30.22,33883.5,40028.5,2.6241,6.0008,144.7,97.6,0.497
30.24,31945.5,35148.9,-0.085,0.1945,144.7,97.6,0.497
30.26,31982.5,36005.4,-0.0333,1.2136,144.7,97.6,0.497
30.28,31285.5,34327.1,-1.0076,-0.7834,144.7,97.6,0.497
30.3,33076.1,34190.3,1.4954,-0.9462,144.7,97.6,0.497
30.32,31627.1,37819.6,-0.5302,3.3724,144.7,97.6,0.497
30.34,33834.9,36180.0,2.5562,1.4214,144.7,97.6,0.497
30.36,32643.7,39888.0,0.891,5.8337,144.7,97.6,0.497
30.38,31959.5,30438.5,-0.0655,-5.4106,144.7,97.6,0.497
30.4,34663.7,35167.7,3.7148,0.2168,144.7,97.6,0.497
30.42,34277.3,36131.8,3.1746,1.364,144.7,97.6,0.497
30.44,34817.1,36546.4,3.9292,1.8574,144.7,97.6,0.497
30.46,29774.4,37520.2,-3.12,3.0162,144.7,97.6,0.497
30.48,31293.5,32630.8,-0.9965,-2.8019,144.7,97.6,0.497
30.5,30389.6,34729.4,-2.2601,-0.3048,144.7,97.6,0.497
30.52,32746.4,32601.7,1.0345,-2.8365,144.7,97.6,0.497
30.54,28797.2,33889.6,-4.486,-1.3041,144.7,97.6,0.497
30.56,28539.0,32548.8,-4.8471,-2.8995,144.7,97.6,0.497
30.58,30257.5,34434.2,-2.4447,-0.656,144.7,97.6,0.497
30.6,31863.9,31348.3,-0.1991,-4.328,144.7,97.6,0.497
30.62,34443.4,32127.1,3.4068,-3.4013,144.7,97.6,0.497
30.64,35617.3,32549.0,5.0477,-2.8993,144.7,97.6,0.497
30.66,31740.3,32971.9,-0.3719,-2.396,144.7,97.6,0.497
30.68,28964.9,33132.2,-4.2517,-2.2052,144.7,97.6,0.497
30.7,29412.1,34150.5,-3.6265,-0.9936,144.7,97.6,0.497
30.72,31139.0,36689.1,-1.2125,2.0271,144.7,97.6,0.497
30.74,33429.3,37028.1,1.9892,2.4305,144.7,97.6,0.497
30.76,30384.0,34706.0,-2.2678,-0.3326,144.7,97.6,0.497
30.78,32410.7,34568.3,0.5652,-0.4964,144.7,97.6,0.497
30.8,29827.1,33632.5,-3.0463,-1.6099,144.7,97.6,0.497
30.82,33499.8,37381.2,2.0878,2.8507,144.7,97.6,0.497
30.84,31710.7,37712.4,-0.4134,3.2448,144.7,97.6,0.497
30.86,32318.7,35568.6,0.4367,0.6939,144.7,97.6,0.497
30.88,32490.9,32257.0,0.6774,-3.2467,144.7,97.6,0.497
30.9,34804.7,31480.7,3.9119,-4.1704,144.7,97.6,0.497
30.92,33126.8,30899.5,1.5663,-4.862,144.7,97.6,0.497
30.94,28861.1,34049.9,-4.3968,-1.1132,144.7,97.6,0.497
30.96,32280.9,35473.9,0.3837,0.5812,144.7,97.6,0.497
30.98,35438.7,31854.3,4.7981,-3.7258,144.7,97.6,0.497
31.0,32196.4,33578.7,0.2657,-1.6739,144.7,97.6,0.497
31.02,30453.6,34962.9,-2.1706,-0.0268,144.7,97.6,0.497
31.04,29350.7,31393.7,-3.7124,-4.2739,144.7,97.6,0.497
31.06,30251.1,34959.8,-2.4536,-0.0306,144.7,97.6,0.497
31.08,33361.7,37954.6,1.8947,3.533,144.7,97.6,0.497
31.1,32201.3,35195.9,0.2725,0.2504,144.7,97.6,0.497
31.12,33509.3,33067.8,2.101,-2.2819,144.7,97.6,0.497
31.14,29514.2,34367.3,-3.4838,-0.7356,144.7,97.6,0.497
31.16,31287.2,34733.6,-1.0053,-0.2997,144.7,97.6,0.497
31.18,29563.4,37245.1,-3.4151,2.6887,144.7,97.6,0.497
31.2,29623.7,33987.2,-3.3308,-1.1879,144.7,97.6,0.497
31.22,31733.4,33974.1,-0.3815,-1.2035,144.7,97.6,0.497
31.24,33445.7,35771.7,2.012,0.9356,144.7,97.6,0.497
31.26,33742.5,31790.5,2.4269,-3.8018,144.7,97.6,0.497
31.28,33306.8,37570.5,1.818,3.076,144.7,97.6,0.497
31.3,32753.7,35040.2,1.0447,0.0651,144.7,97.6,0.497
31.32,33020.4,33094.4,1.4176,-2.2503,144.7,97.6,0.497
31.34,29059.3,34224.6,-4.1197,-0.9054,144.7,97.6,0.497
31.36,33425.7,35317.9,1.9841,0.3955,144.7,97.6,0.497
31.38,31412.8,35081.8,-0.8298,0.1146,144.7,97.6,0.497
31.4,31550.0,36315.6,-0.638,1.5828,144.7,97.6,0.497
31.42,33097.1,32255.2,1.5248,-3.2488,144.7,97.6,0.497
31.44,31797.0,37634.0,-0.2926,3.1515,144.7,97.6,0.497
31.46,33160.4,33736.7,1.6133,-1.486,144.7,97.6,0.497
31.48,31408.1,35085.5,-0.8363,0.119,144.7,97.6,0.497
31.5,32787.8,36658.9,1.0923,1.9912,144.7,97.6,0.497
31.52,31132.6,38573.1,-1.2214,4.269,144.7,97.6,0.497
31.54,28997.1,33937.2,-4.2067,-1.2473,144.7,97.6,0.497
31.56,33643.6,36118.4,2.2887,1.3481,144.7,97.6,0.497
31.58,30946.8,38237.7,-1.4811,3.8699,144.7,97.6,0.497
31.6,31076.6,32789.4,-1.2996,-2.6132,144.7,97.6,0.497
31.62,33077.1,35492.9,1.4968,0.6038,144.7,97.6,0.497
31.64,35732.7,33063.8,5.2092,-2.2866,144.7,97.6,0.497
31.66,31773.9,38730.9,-0.325,4.4568,144.7,97.6,0.497
31.68,30786.5,35667.2,-1.7052,0.8112,144.7,97.6,0.497
31.7,30209.9,35216.0,-2.5113,0.2743,144.7,97.6,0.497
31.72,33486.4,35577.3,2.0689,0.7042,144.7,97.6,0.497
31.74,30284.5,36513.0,-2.4069,1.8177,144.7,97.6,0.497
31.76,33899.9,33016.6,2.6471,-2.3428,144.7,97.6,0.497
31.78,30751.5,37897.1,-1.7542,3.4647,144.7,97.6,0.497
31.8,28882.8,32457.4,-4.3665,-3.0083,144.7,97.6,0.497
31.82,34382.1,33386.4,3.3211,-1.9028,144.7,97.6,0.497
31.84,34789.9,34626.7,3.8912,-0.4269,144.7,97.6,0.497
31.86,31847.9,33370.9,-0.2216,-1.9213,144.7,97.6,0.497
31.88,29285.1,33477.8,-3.804,-1.794,144.7,97.6,0.497
31.9,31991.6,33732.8,-0.0206,-1.4906,144.7,97.6,0.497
31.92,30889.9,31512.5,-1.5607,-4.1326,144.7,97.6,0.497
31.94,34540.5,37708.3,3.5426,3.24,144.7,97.6,0.497
31.96,31076.7,37237.0,-1.2996,2.6791,144.7,97.6,0.497
31.98,34140.5,35770.7,2.9833,0.9343,144.7,97.6,0.497
32.0,32392.1,38690.2,0.5392,4.4083,144.7,97.6,0.497
32.02,31643.1,33165.4,-0.5078,-2.1658,144.7,97.6,0.497
32.04,33447.0,39021.4,2.0139,4.8024,144.7,97.6,0.497
32.06,30392.9,30714.4,-2.2555,-5.0823,144.7,97.6,0.497
32.08,34845.0,31908.0,3.9681,-3.662,144.7,97.6,0.497
32.1,34521.0,33752.4,3.5153,-1.4673,144.7,97.6,0.497
32.12,33309.4,32956.9,1.8215,-2.4138,144.7,97.6,0.497
32.14,34622.1,38001.0,3.6566,3.5882,144.7,97.6,0.497
32.16,29838.9,34902.2,-3.0299,-0.0991,144.7,97.6,0.497
32.18,30583.4,36528.2,-1.9891,1.8357,144.7,97.6,0.497
32.2,31303.6,34597.7,-0.9824,-0.4614,144.7,97.6,0.497
32.22,31077.6,34845.3,-1.2984,-0.1668,144.7,97.6,0.497
32.24,31083.2,33021.4,-1.2904,-2.3371,144.7,97.6,0.497
32.26,30991.5,36465.5,-1.4186,1.7611,144.7,97.6,0.497
32.28,31989.9,34243.7,-0.0231,-0.8826,144.7,97.6,0.497
32.3,29620.7,33281.4,-3.3349,-2.0277,144.7,97.6,0.497
32.32,32020.5,34963.3,0.0197,-0.0264,144.7,97.6,0.497
32.34,29162.8,33742.9,-3.975,-1.4785,144.7,97.6,0.497
32.36,31894.4,35246.1,-0.1565,0.3101,144.7,97.6,0.497
32.38,31951.1,33908.4,-0.0773,-1.2816,144.7,97.6,0.497
32.4,31964.4,36035.1,-0.0586,1.2489,144.7,97.6,0.497
32.42,29779.3,34808.7,-3.1133,-0.2103,144.7,97.6,0.497
32.44,33166.5,31646.7,1.6217,-3.9729,144.7,97.6,0.497
32.46,32528.2,35197.8,0.7295,0.2526,144.7,97.6,0.497
32.48,31715.2,35535.5,-0.407,0.6545,144.7,97.6,0.497
32.5,30441.6,37659.9,-2.1873,3.1824,144.7,97.6,0.497
32.52,32872.4,35049.3,1.2107,0.0759,144.7,97.6,0.497
32.54,29790.3,35080.4,-3.0978,0.113,144.7,97.6,0.497
32.56,33805.3,33263.6,2.5147,-2.0489,144.7,97.6,0.497
32.58,32204.4,34443.5,0.2769,-0.6449,144.7,97.6,0.497
32.6,34677.2,35425.9,3.7336,0.5241,144.7,97.6,0.497
32.62,31262.2,30484.3,-1.0403,-5.3561,144.7,97.6,0.497
32.64,33839.8,36094.1,2.563,1.3192,144.7,97.6,0.497
32.66,30212.9,35703.6,-2.5071,0.8545,144.7,97.6,0.497
32.68,32827.8,36269.4,1.1482,1.5277,144.7,97.6,0.497
32.7,31166.6,31766.9,-1.1739,-3.8299,144.7,97.6,0.497
32.72,33895.6,37028.7,2.641,2.4313,144.7,97.6,0.497
32.74,30370.2,33781.3,-2.2872,-1.4329,144.7,97.6,0.497
32.76,33390.0,33114.0,1.9342,-2.2269,144.7,97.6,0.497
32.78,33689.1,34884.2,2.3523,-0.1206,144.7,97.6,0.497
32.8,34847.1,37841.9,3.9712,3.399,144.7,97.6,0.497
32.82,34273.8,33359.6,3.1697,-1.9347,144.7,97.6,0.497
32.84,25929.3,37430.5,-8.4952,2.9093,144.7,97.6,0.497
32.86,33377.3,34064.6,1.9164,-1.0957,144.7,97.6,0.497
32.88,31599.3,34622.3,-0.569,-0.4322,144.7,97.6,0.497
32.9,32026.0,37837.9,0.0275,3.3942,144.7,97.6,0.497
32.92,34729.4,35334.3,3.8066,0.415,144.7,97.6,0.497
32.94,31993.7,32554.3,-0.0176,-2.8929,144.7,97.6,0.497
32.96,29041.2,34207.6,-4.145,-0.9257,144.7,97.6,0.497
32.98,33462.8,32788.8,2.0359,-2.6138,144.7,97.6,0.497
33.0,29621.9,37444.0,-3.3332,2.9254,144.7,97.6,0.497
33.02,34233.9,32412.5,3.114,-3.0617,144.7,97.6,0.497
33.04,31120.5,32117.2,-1.2384,-3.4131,144.7,97.6,0.497
33.06,33667.5,37278.7,2.3221,2.7288,144.7,97.6,0.497
33.08,29916.1,32174.8,-2.922,-3.3445,144.7,97.6,0.497
33.1,30955.3,35079.4,-1.4692,0.1118,144.7,97.6,0.497
33.12,33701.7,37732.5,2.3699,3.2687,144.7,97.6,0.497
33.14,32344.9,33314.0,0.4733,-1.989,144.7,97.6,0.497
33.16,35569.0,31266.3,4.9802,-4.4256,144.7,97.6,0.497
33.18,32818.7,35960.8,1.1355,1.1606,144.7,97.6,0.497
33.2,31878.1,39915.5,-0.1793,5.8664,144.7,97.6,0.497
33.22,32696.3,36827.3,0.9645,2.1916,144.7,97.6,0.497
33.24,34145.4,30744.1,2.9901,-5.0469,144.7,97.6,0.497
33.26,34801.1,36994.6,3.9068,2.3906,144.7,97.6,0.497
33.28,31142.3,36190.6,-1.2078,1.434,144.7,97.6,0.497
33.3,30189.8,32757.6,-2.5393,-2.651,144.7,97.6,0.497
33.32,32911.9,34557.2,1.2659,-0.5096,144.7,97.6,0.497
33.34,32950.9,31709.8,1.3205,-3.8979,144.7,97.6,0.497
33.36,28520.7,35983.9,-4.8727,1.188,144.7,97.6,0.497
33.38,33986.7,33256.0,2.7683,-2.0579,144.7,97.6,0.497
33.4,32841.3,32446.8,1.1671,-3.0209,144.7,97.6,0.497
33.42,32056.4,34743.0,0.07,-0.2886,144.7,97.6,0.497
33.44,32986.8,34731.4,1.3705,-0.3023,144.7,97.6,0.497
33.46,33732.0,33017.5,2.4123,-2.3418,144.7,97.6,0.497
33.48,29673.1,34449.7,-3.2617,-0.6376,144.7,97.6,0.497
33.5,28925.9,34483.9,-4.3062,-0.5969,144.7,97.6,0.497
33.52,32696.4,32498.7,0.9647,-2.9591,144.7,97.6,0.497
33.54,33845.0,36359.2,2.5703,1.6346,144.7,97.6,0.497
33.56,30034.9,36390.3,-2.7559,1.6716,144.7,97.6,0.497
33.58,32938.9,35132.4,1.3036,0.1748,144.7,97.6,0.497
33.6,33632.8,37329.5,2.2736,2.7892,144.7,97.6,0.497
33.62,33416.5,33713.7,1.9712,-1.5133,144.7,97.6,0.497
33.64,31630.1,32427.1,-0.526,-3.0443,144.7,97.6,0.497
33.66,30518.4,38211.3,-2.0801,3.8385,144.7,97.6,0.497
33.68,31084.9,35748.7,-1.288,0.9081,144.7,97.6,0.497
33.7,28662.0,34391.5,-4.6751,-0.7068,144.7,97.6,0.497
33.72,33282.2,33124.8,1.7836,-2.2141,144.7,97.6,0.497
33.74,31169.4,34181.5,-1.17,-0.9567,144.7,97.6,0.497
33.76,30422.8,38890.4,-2.2137,4.6466,144.7,97.6,0.497
33.78,34025.5,33096.5,2.8226,-2.2477,144.7,97.6,0.497
33.8,32142.6,36819.6,0.1904,2.1825,144.7,97.6,0.497
33.82,30776.2,34919.1,-1.7196,-0.079,144.7,97.6,0.497
33.84,30226.0,30613.7,-2.4887,-5.202,144.7,97.6,0.497
33.86,33866.2,38020.5,2.6,3.6114,144.7,97.6,0.497
33.88,32237.1,37548.0,0.3226,3.0492,144.7,97.6,0.497
33.9,33349.8,31374.3,1.878,-4.297,144.7,97.6,0.497
33.92,33447.5,36989.6,2.0146,2.3847,144.7,97.6,0.497
33.94,31652.6,35470.5,-0.4945,0.5771,144.7,97.6,0.497
33.96,30210.8,33276.6,-2.51,-2.0334,144.7,97.6,0.497
33.98,34303.7,34464.6,3.2115,-0.6198,144.7,97.6,0.497
34.0,33326.2,38827.7,1.845,4.572,144.7,97.6,0.497
34.02,33402.1,33142.4,1.9512,-2.1931,144.7,97.6,0.497
34.04,27833.9,36588.1,-5.8328,1.907,144.7,97.6,0.497
34.06,29706.1,33198.9,-3.2156,-2.1258,144.7,97.6,0.497
34.08,34586.3,35019.7,3.6065,0.0407,144.7,97.6,0.497
34.1,31009.2,34899.4,-1.3939,-0.1024,144.7,97.6,0.497
34.12,28473.5,34518.7,-4.9387,-0.5555,144.7,97.6,0.497
34.14,30879.9,33035.3,-1.5747,-2.3205,144.7,97.6,0.497
34.16,31751.9,36632.6,-0.3557,1.9599,144.7,97.6,0.497
34.18,32415.9,32660.8,0.5726,-2.7662,144.7,97.6,0.497
34.2,33157.0,36970.6,1.6085,2.3621,144.7,97.6,0.497
34.22,35757.2,35259.2,5.2433,0.3257,144.7,97.6,0.497
34.24,29937.4,36375.3,-2.8922,1.6537,144.7,97.6,0.497
34.26,33426.6,33379.8,1.9853,-1.9106,144.7,97.6,0.497
34.28,32328.1,32792.8,0.4497,-2.6091,144.7,97.6,0.497
34.3,27546.0,33686.4,-6.2351,-1.5459,144.7,97.6,0.497
34.32,34999.7,32780.8,4.1844,-2.6233,144.7,97.6,0.497
34.34,32223.7,38055.5,0.3038,3.6531,144.7,97.6,0.497
34.36,31145.1,37706.8,-1.2039,3.2382,144.7,97.6,0.497
34.38,31458.9,38616.9,-0.7653,4.3211,144.7,97.6,0.497
34.4,32319.6,36161.3,0.4379,1.3991,144.7,97.6,0.497
34.42,29364.0,34910.8,-3.6937,-0.0889,144.7,97.6,0.497
34.44,31398.0,36323.9,-0.8504,1.5926,144.7,97.6,0.497
34.46,33000.7,38463.1,1.3901,4.1382,144.7,97.6,0.497
34.48,30489.9,35271.9,-2.1198,0.3408,144.7,97.6,0.497
34.5,32239.6,36271.8,0.3261,1.5307,144.7,97.6,0.497
34.52,32128.9,34427.6,0.1714,-0.6638,144.7,97.6,0.497
34.54,32529.0,33610.8,0.7307,-1.6357,144.7,97.6,0.497
34.56,30128.2,36622.9,-2.6255,1.9484,144.7,97.6,0.497
34.58,30776.0,33151.4,-1.7199,-2.1824,144.7,97.6,0.497
34.6,30825.4,34412.5,-1.6508,-0.6818,144.7,97.6,0.497
34.62,32974.0,33912.7,1.3526,-1.2765,144.7,97.6,0.497
34.64,31526.9,36981.0,-0.6702,2.3745,144.7,97.6,0.497
34.66,33072.5,32294.8,1.4904,-3.2018,144.7,97.6,0.497
34.68,29375.0,39028.2,-3.6784,4.8106,144.7,97.6,0.497
34.7,33698.1,38680.8,2.3649,4.3971,144.7,97.6,0.497
34.72,29576.6,30950.0,-3.3966,-4.802,144.7,97.6,0.497
34.74,33261.5,37871.5,1.7545,3.4342,144.7,97.6,0.497
34.76,30344.8,32778.8,-2.3227,-2.6258,144.7,97.6,0.497
34.78,31745.0,31305.5,-0.3653,-4.3789,144.7,97.6,0.497
34.8,35104.6,34962.1,4.3311,-0.0278,144.7,97.6,0.497
34.82,32715.2,33643.6,0.991,-1.5967,144.7,97.6,0.497
34.84,30920.9,35841.2,-1.5173,1.0182,144.7,97.6,0.497
34.86,33781.2,37458.0,2.481,2.9421,144.7,97.6,0.497
34.88,32349.9,32118.6,0.4803,-3.4113,144.7,97.6,0.497
34.9,35506.5,34583.2,4.8928,-0.4787,144.7,97.6,0.497
34.92,29812.5,40243.3,-3.0668,6.2564,144.7,97.6,0.497
34.94,29666.3,35426.7,-3.2711,0.5251,144.7,97.6,0.497
34.96,33593.7,34326.6,2.219,-0.784,144.7,97.6,0.497
34.98,35758.6,34230.2,5.2453,-0.8988,144.7,97.6,0.497
35.0,31226.8,31690.4,-1.0897,-3.9209,144.7,97.6,0.497
35.02,31292.8,34030.5,-0.9974,-1.1364,144.7,97.6,0.497
35.04,30195.2,33001.6,-2.5318,-2.3607,144.7,97.6,0.497
35.06,31059.7,34631.5,-1.3234,-0.4212,144.7,97.6,0.497
35.08,35041.8,34577.6,4.2433,-0.4853,144.7,97.6,0.497
35.1,33819.2,34636.7,2.5341,-0.4151,144.7,97.6,0.497
35.12,30809.4,37076.3,-1.6733,2.4879,144.7,97.6,0.497
35.14,29694.0,33747.6,-3.2325,-1.473,144.7,97.6,0.497
35.16,29874.4,35253.1,-2.9802,0.3185,144.7,97.6,0.497
35.18,30793.3,35134.0,-1.6957,0.1767,144.7,97.6,0.497
35.2,33975.4,38556.1,2.7525,4.2488,144.7,97.6,0.497
35.22,31109.7,36604.8,-1.2534,1.9268,144.7,97.6,0.497
35.24,30850.8,34882.7,-1.6154,-0.1223,144.7,97.6,0.497
35.26,33089.8,34558.9,1.5146,-0.5076,144.7,97.6,0.497
35.28,34124.1,36435.8,2.9604,1.7258,144.7,97.6,0.497
35.3,29894.1,35506.0,-2.9527,0.6194,144.7,97.6,0.497
35.32,31441.4,36854.4,-0.7898,2.2239,144.7,97.6,0.497
35.34,33383.7,36774.6,1.9254,2.1289,144.7,97.6,0.497
35.36,32313.0,33942.1,0.4286,-1.2415,144.7,97.6,0.497
35.38,30955.5,32648.3,-1.4689,-2.7811,144.7,97.6,0.497
35.4,31934.8,36187.0,-0.1001,1.4297,144.7,97.6,0.497
35.42,32618.9,30249.7,0.8563,-5.6352,144.7,97.6,0.497
35.44,36426.3,35153.7,6.1786,0.2001,144.7,97.6,0.497
35.46,33660.1,32823.8,2.3117,-2.5722,144.7,97.6,0.497
35.48,29981.2,32163.2,-2.8309,-3.3583,144.7,97.6,0.497
35.5,32443.8,35141.2,0.6115,0.1853,144.7,97.6,0.497
35.52,32397.9,34095.4,0.5473,-1.0592,144.7,97.6,0.497
35.54,32206.1,37934.7,0.2793,3.5094,144.7,97.6,0.497
35.56,31385.8,37821.6,-0.8675,3.3748,144.7,97.6,0.497
35.58,34955.1,30078.8,4.1221,-5.8385,144.7,97.6,0.497
35.6,32344.9,34461.0,0.4732,-0.6241,144.7,97.6,0.497
35.62,30576.2,35958.4,-1.9993,1.1577,144.7,97.6,0.497
35.64,35218.7,34657.1,4.4905,-0.3907,144.7,97.6,0.497
35.66,34290.1,37123.9,3.1924,2.5446,144.7,97.6,0.497
35.68,30485.1,37087.7,-2.1266,2.5014,144.7,97.6,0.497
35.7,30984.2,35782.5,-1.4289,0.9484,144.7,97.6,0.497
35.72,32924.0,35252.0,1.2828,0.3171,144.7,97.6,0.497
35.74,32712.7,36215.9,0.9874,1.4641,144.7,97.6,0.497
35.76,31633.9,36248.8,-0.5206,1.5032,144.7,97.6,0.497
35.78,29685.6,35322.8,-3.2441,0.4014,144.7,97.6,0.497
35.8,32338.5,34240.5,0.4643,-0.8865,144.7,97.6,0.497
35.82,31464.6,33243.1,-0.7574,-2.0733,144.7,97.6,0.497
35.84,27662.0,36463.1,-6.0731,1.7583,144.7,97.6,0.497
35.86,31008.5,36756.3,-1.3949,2.1071,144.7,97.6,0.497
35.88,31525.1,33152.4,-0.6727,-2.1812,144.7,97.6,0.497
35.9,34640.9,32116.7,3.6829,-3.4136,144.7,97.6,0.497
35.92,33500.5,36711.9,2.0887,2.0543,144.7,97.6,0.497
35.94,30886.1,32220.3,-1.566,-3.2904,144.7,97.6,0.497
35.96,32117.2,31326.1,0.155,-4.3544,144.7,97.6,0.497
35.98,31389.1,34329.3,-0.8629,-0.7808,144.7,97.6,0.497
36.0,33169.4,33561.6,1.6259,-1.6943,144.7,97.6,0.497
36.02,36032.7,33298.1,5.6284,-2.0079,144.7,97.6,0.497
36.04,31255.3,33568.8,-1.0498,-1.6857,144.7,97.6,0.497
36.06,31281.8,35164.7,-1.0128,0.2133,144.7,97.6,0.497
36.08,31698.4,33798.1,-0.4305,-1.4128,144.7,97.6,0.497
36.1,32018.4,33995.9,0.0169,-1.1776,144.7,97.6,0.497
36.12,32475.3,33624.2,0.6556,-1.6198,144.7,97.6,0.497
36.14,35176.6,37234.7,4.4317,2.6764,144.7,97.6,0.497
36.16,32501.0,35900.7,0.6915,1.089,144.7,97.6,0.497
36.18,30367.6,35340.9,-2.2908,0.4229,144.7,97.6,0.497
36.2,32033.8,34456.6,0.0383,-0.6294,144.7,97.6,0.497
36.22,36354.9,33517.7,6.0788,-1.7466,144.7,97.6,0.497
36.24,31678.0,36071.6,-0.459,1.2924,144.7,97.6,0.497
36.26,32308.2,34225.3,0.4219,-0.9045,144.7,97.6,0.497
36.28,30855.1,35689.3,-1.6094,0.8375,144.7,97.6,0.497
36.3,33044.2,32969.2,1.4509,-2.3992,144.7,97.6,0.497
36.32,28556.2,32045.1,-4.823,-3.4988,144.7,97.6,0.497
36.34,32905.7,35766.6,1.2572,0.9295,144.7,97.6,0.497
36.36,32600.8,32643.6,0.831,-2.7866,144.7,97.6,0.497
36.38,30557.2,34515.6,-2.0258,-0.5591,144.7,97.6,0.497
36.4,32749.1,33378.6,1.0383,-1.9121,144.7,97.6,0.497
36.42,29117.3,33401.8,-4.0387,-1.8845,144.7,97.6,0.497
36.44,34400.4,34263.1,3.3466,-0.8595,144.7,97.6,0.497
36.46,29340.7,33521.1,-3.7264,-1.7425,144.7,97.6,0.497
36.48,31950.5,35186.0,-0.078,0.2386,144.7,97.6,0.497
36.5,33356.9,31774.4,1.8879,-3.821,144.7,97.6,0.497
36.52,29387.9,40888.6,-3.6603,7.0242,144.7,97.6,0.497
36.54,30692.2,34400.4,-1.8371,-0.6962,144.7,97.6,0.497
36.56,35204.6,36421.9,4.4708,1.7092,144.7,97.6,0.497
36.58,34659.4,35367.8,3.7088,0.4549,144.7,97.6,0.497
36.6,32158.0,36208.0,0.212,1.4547,144.7,97.6,0.497
36.62,30066.1,36996.0,-2.7122,2.3924,144.7,97.6,0.497
36.64,28963.8,35866.6,-4.2532,1.0485,144.7,97.6,0.497
36.66,30500.3,35355.1,-2.1054,0.4399,144.7,97.6,0.497
36.68,32689.2,34250.8,0.9545,-0.8742,144.7,97.6,0.497
36.7,28421.9,36158.7,-5.0107,1.3961,144.7,97.6,0.497
36.72,33419.2,35122.0,1.975,0.1625,144.7,97.6,0.497
36.74,33186.5,34491.8,1.6497,-0.5875,144.7,97.6,0.497
36.76,33148.4,34235.7,1.5964,-0.8922,144.7,97.6,0.497
36.78,33862.4,37816.7,2.5946,3.369,144.7,97.6,0.497
36.8,30447.8,35281.1,-2.1787,0.3518,144.7,97.6,0.497
36.82,31346.5,31330.8,-0.9224,-4.3488,144.7,97.6,0.497
36.84,33156.9,38843.6,1.6084,4.5909,144.7,97.6,0.497
36.86,32870.2,37433.2,1.2076,2.9126,144.7,97.6,0.497
36.88,30938.9,39794.1,-1.4923,5.7219,144.7,97.6,0.497
36.9,31482.8,33138.5,-0.7318,-2.1977,144.7,97.6,0.497
36.92,31368.6,37572.8,-0.8916,3.0788,144.7,97.6,0.497
36.94,28035.7,36893.4,-5.5506,2.2703,144.7,97.6,0.497
36.96,32172.7,37837.8,0.2325,3.394,144.7,97.6,0.497
36.98,35078.3,36277.0,4.2942,1.5368,144.7,97.6,0.497
37.0,27102.7,34929.4,-6.8548,-0.0668,144.7,97.6,0.497
37.02,32664.0,32965.1,0.9194,-2.4041,144.7,97.6,0.497
37.04,30604.1,31567.9,-1.9603,-4.0667,144.7,97.6,0.497
37.06,35522.5,34219.2,4.9152,-0.9118,144.7,97.6,0.497
37.08,36482.5,31035.7,6.2573,-4.6999,144.7,97.6,0.497
37.1,32221.7,35795.4,0.3011,0.9638,144.7,97.6,0.497
37.12,28263.9,33073.3,-5.2316,-2.2753,144.7,97.6,0.497
37.14,30877.9,33867.9,-1.5775,-1.3298,144.7,97.6,0.497
37.16,31778.2,35339.0,-0.319,0.4207,144.7,97.6,0.497
37.18,34691.3,32966.0,3.7533,-2.403,144.7,97.6,0.497
37.2,30030.2,31102.3,-2.7625,-4.6207,144.7,97.6,0.497
37.22,32214.3,33566.8,0.2906,-1.6881,144.7,97.6,0.497
37.24,29775.6,33159.8,-3.1183,-2.1724,144.7,97.6,0.497
37.26,31432.8,33279.6,-0.8018,-2.0299,144.7,97.6,0.497
37.28,32641.0,30134.1,0.8872,-5.7728,144.7,97.6,0.497
37.3,33192.0,33297.5,1.6575,-2.0085,144.7,97.6,0.497
37.32,32171.9,32894.9,0.2314,-2.4876,144.7,97.6,0.497
37.34,31846.1,33595.3,-0.224,-1.6542,144.7,97.6,0.497
37.36,33957.9,32611.4,2.7281,-2.825,144.7,97.6,0.497
37.38,26356.1,38805.1,-7.8986,4.5451,144.7,97.6,0.497
37.4,35233.6,33673.5,4.5115,-1.5612,144.7,97.6,0.497
37.42,33040.4,36941.9,1.4455,2.3279,144.7,97.6,0.497
37.44,28446.5,33850.9,-4.9763,-1.3501,144.7,97.6,0.497
37.46,30546.7,35276.8,-2.0405,0.3466,144.7,97.6,0.497
37.48,33760.7,33309.7,2.4524,-1.9941,144.7,97.6,0.497
37.5,30016.5,36518.8,-2.7816,1.8245,144.7,97.6,0.497
37.52,34589.4,35275.0,3.6109,0.3445,144.7,97.6,0.497
37.54,33807.5,37071.5,2.5179,2.4822,144.7,97.6,0.497
37.56,32434.4,31911.4,0.5983,-3.6579,144.7,97.6,0.497
37.58,34229.9,33321.0,3.1083,-1.9806,144.7,97.6,0.497
37.6,31687.0,31344.7,-0.4464,-4.3322,144.7,97.6,0.497
37.62,32760.7,35930.6,1.0545,1.1247,144.7,97.6,0.497
37.64,33194.3,33803.3,1.6606,-1.4067,144.7,97.6,0.497
37.66,30391.2,36886.5,-2.2579,2.2621,144.7,97.6,0.497
37.68,35529.8,32605.6,4.9254,-2.8319,144.7,97.6,0.497
37.7,34238.9,30631.5,3.121,-5.1809,144.7,97.6,0.497
37.72,30946.5,34512.0,-1.4815,-0.5634,144.7,97.6,0.497
37.74,33263.7,36040.5,1.7577,1.2554,144.7,97.6,0.497
37.76,32526.9,34196.3,0.7277,-0.9391,144.7,97.6,0.497
37.78,34907.6,36642.3,4.0556,1.9715,144.7,97.6,0.497
37.8,31683.9,36704.9,-0.4508,2.046,144.7,97.6,0.497
37.82,32898.0,35940.5,1.2465,1.1364,144.7,97.6,0.497
37.84,30795.9,34298.7,-1.6921,-0.8173,144.7,97.6,0.497
37.86,30633.0,36721.9,-1.9199,2.0662,144.7,97.6,0.497
37.88,32332.7,35629.4,0.4562,0.7662,144.7,97.6,0.497
37.9,28137.8,35505.1,-5.4078,0.6183,144.7,97.6,0.497
37.92,33243.7,31707.4,1.7297,-3.9006,144.7,97.6,0.497
37.94,33716.0,36159.3,2.3899,1.3968,144.7,97.6,0.497
37.96,28742.3,34803.1,-4.5628,-0.217,144.7,97.6,0.497
37.98,30404.0,37213.5,-2.2399,2.6512,144.7,97.6,0.497
38.0,32495.1,33114.5,0.6832,-2.2263,144.7,97.6,0.497
38.02,31305.1,34555.4,-0.9803,-0.5118,144.7,97.6,0.497
38.04,30462.2,32652.8,-2.1586,-2.7757,144.7,97.6,0.497
38.06,31482.0,33223.8,-0.733,-2.0963,144.7,97.6,0.497
38.08,31185.4,31498.7,-1.1475,-4.149,144.7,97.6,0.497
38.1,32698.4,32505.0,0.9674,-2.9516,144.7,97.6,0.497
38.12,33277.7,35063.1,1.7773,0.0923,144.7,97.6,0.497
38.14,28690.4,38532.2,-4.6353,4.2203,144.7,97.6,0.497
38.16,31735.3,33976.0,-0.3789,-1.2012,144.7,97.6,0.497
38.18,31369.5,36333.4,-0.8903,1.6039,144.7,97.6,0.497
38.2,29780.8,35144.3,-3.1111,0.189,144.7,97.6,0.497
38.22,30212.4,32236.6,-2.5078,-3.2709,144.7,97.6,0.497
38.24,32974.7,34221.5,1.3536,-0.9091,144.7,97.6,0.497
38.26,31357.3,32789.7,-0.9073,-2.6128,144.7,97.6,0.497
38.28,27259.4,34617.7,-6.6358,-0.4377,144.7,97.6,0.497
38.3,28582.0,35834.2,-4.7869,1.01,144.7,97.6,0.497
38.32,34903.8,36730.8,4.0504,2.0769,144.7,97.6,0.497
38.34,34183.7,35204.2,3.0437,0.2603,144.7,97.6,0.497
38.36,34027.1,38224.5,2.8248,3.8541,144.7,97.6,0.497
38.38,30655.1,35148.3,-1.8889,0.1938,144.7,97.6,0.497
38.4,32985.5,34890.2,1.3687,-0.1133,144.7,97.6,0.497
38.42,30733.3,38721.5,-1.7795,4.4456,144.7,97.6,0.497
38.44,31278.8,36824.2,-1.0171,2.1879,144.7,97.6,0.497
38.46,29632.0,33378.0,-3.3191,-1.9127,144.7,97.6,0.497
38.48,33185.2,35940.1,1.6479,1.1359,144.7,97.6,0.497
38.5,32303.1,37557.2,0.4148,3.0601,144.7,97.6,0.497
38.52,32366.5,33429.2,0.5034,-1.8519,144.7,97.6,0.497
38.54,30206.0,39213.6,-2.5168,5.0311,144.7,97.6,0.497
38.56,30624.4,36886.6,-1.9318,2.2622,144.7,97.6,0.497
38.58,33903.9,35229.6,2.6526,0.2905,144.7,97.6,0.497
38.6,30851.2,37869.8,-1.6148,3.4321,144.7,97.6,0.497
38.62,31170.3,38495.3,-1.1687,4.1764,144.7,97.6,0.497
38.64,30784.2,34033.7,-1.7085,-1.1326,144.7,97.6,0.497
38.66,32567.0,34739.4,0.7838,-0.2928,144.7,97.6,0.497
38.68,30567.9,35547.0,-2.0108,0.6681,144.7,97.6,0.497
38.7,34638.2,33359.7,3.6791,-1.9345,144.7,97.6,0.497
38.72,29650.9,32877.2,-3.2927,-2.5087,144.7,97.6,0.497
38.74,29515.3,33363.3,-3.4823,-1.9303,144.7,97.6,0.497
38.76,31943.3,30658.0,-0.0882,-5.1494,144.7,97.6,0.497
38.78,34358.5,36678.4,3.2881,2.0145,144.7,97.6,0.497
38.8,33053.9,33898.7,1.4643,-1.2931,144.7,97.6,0.497
38.82,33620.7,34011.0,2.2567,-1.1595,144.7,97.6,0.497
38.84,30482.2,40075.4,-2.1306,6.0566,144.7,97.6,0.497
38.86,31619.3,34120.2,-0.5411,-1.0296,144.7,97.6,0.497
38.88,31868.2,37082.7,-0.1931,2.4955,144.7,97.6,0.497
38.9,30352.8,35651.9,-2.3114,0.793,144.7,97.6,0.497
38.92,31275.8,36396.8,-1.0213,1.6794,144.7,97.6,0.497
38.94,32625.7,32902.7,0.8658,-2.4783,144.7,97.6,0.497
38.96,33557.6,36262.9,2.1685,1.52,144.7,97.6,0.497
38.98,28102.8,38351.8,-5.4568,4.0057,144.7,97.6,0.497
39.0,31711.6,37853.8,-0.412,3.4131,144.7,97.6,0.497
39.02,33305.6,35835.9,1.8163,1.012,144.7,97.6,0.497
39.04,32101.9,34665.1,0.1336,-0.3812,144.7,97.6,0.497
39.06,29566.4,35754.1,-3.4108,0.9146,144.7,97.6,0.497
39.08,28487.1,36193.8,-4.9196,1.4378,144.7,97.6,0.497
39.1,31697.9,35072.5,-0.4312,0.1036,144.7,97.6,0.497
39.12,36837.8,33003.1,6.7538,-2.3589,144.7,97.6,0.497
39.14,30442.1,32354.7,-2.1867,-3.1304,144.7,97.6,0.497
39.16,31353.5,39317.2,-0.9127,5.1544,144.7,97.6,0.497
39.18,30220.1,38575.8,-2.497,4.2723,144.7,97.6,0.497
39.2,33871.4,37003.0,2.6072,2.4007,144.7,97.6,0.497
39.22,34033.6,36473.6,2.834,1.7708,144.7,97.6,0.497
39.24,33697.7,34212.4,2.3644,-0.9198,144.7,97.6,0.497
39.26,30877.6,30838.2,-1.5779,-4.935,144.7,97.6,0.497
39.28,30368.6,35894.3,-2.2894,1.0814,144.7,97.6,0.497
39.3,31614.5,31382.9,-0.5478,-4.2868,144.7,97.6,0.497
39.32,29677.4,33198.6,-3.2557,-2.1262,144.7,97.6,0.497
39.34,32321.4,35567.1,0.4403,0.692,144.7,97.6,0.497
39.36,32214.4,32022.7,0.2908,-3.5255,144.7,97.6,0.497
39.38,32644.1,29993.9,0.8915,-5.9396,144.7,97.6,0.497
39.4,31099.6,34594.9,-1.2676,-0.4647,144.7,97.6,0.497
39.42,31466.2,37215.6,-0.7551,2.6537,144.7,97.6,0.497
39.44,32880.4,35800.3,1.2218,0.9695,144.7,97.6,0.497
39.46,33029.0,35856.5,1.4295,1.0364,144.7,97.6,0.497
39.48,32538.8,34992.3,0.7443,0.0082,144.7,97.6,0.497
39.5,28365.6,33442.6,-5.0895,-1.8359,144.7,97.6,0.497
39.52,27881.9,40307.8,-5.7656,6.3332,144.7,97.6,0.497
39.54,32759.1,34955.8,1.0523,-0.0353,144.7,97.6,0.497
39.56,32538.2,36540.3,0.7435,1.8501,144.7,97.6,0.497
39.58,31813.7,34258.1,-0.2694,-0.8655,144.7,97.6,0.497
39.6,31705.9,33523.0,-0.42,-1.7402,144.7,97.6,0.497
39.62,31089.2,34517.3,-1.2821,-0.5571,144.7,97.6,0.497
39.64,29865.5,34244.1,-2.9927,-0.8822,144.7,97.6,0.497
39.66,35023.1,31711.1,4.2171,-3.8963,144.7,97.6,0.497
39.68,32278.0,36306.1,0.3798,1.5715,144.7,97.6,0.497
39.7,30822.8,36921.3,-1.6545,2.3034,144.7,97.6,0.497
39.72,28845.5,34450.4,-4.4186,-0.6367,144.7,97.6,0.497
39.74,33697.8,34479.4,2.3644,-0.6023,144.7,97.6,0.497
39.76,34491.4,33127.2,3.4739,-2.2113,144.7,97.6,0.497
39.78,28912.5,33086.8,-4.3249,-2.2593,144.7,97.6,0.497
39.8,32806.7,32891.4,1.1188,-2.4918,144.7,97.6,0.497
39.82,31389.7,36807.2,-0.8619,2.1677,144.7,97.6,0.497
39.84,33359.7,37779.0,1.8918,3.3241,144.7,97.6,0.497
39.86,32599.7,32815.1,0.8294,-2.5825,144.7,97.6,0.497
39.88,34180.9,34099.1,3.0398,-1.0547,144.7,97.6,0.497
39.9,33393.6,32348.1,1.9392,-3.1383,144.7,97.6,0.497
39.92,32432.3,36092.8,0.5954,1.3176,144.7,97.6,0.497
39.94,33910.9,38300.6,2.6623,3.9447,144.7,97.6,0.497
39.96,34580.2,34031.3,3.598,-1.1354,144.7,97.6,0.497
39.98,26716.6,36541.6,-7.3946,1.8516,144.7,97.6,0.497
40.0,30480.5,36883.4,-2.1329,2.2583,144.7,97.6,0.497
40.02,28507.8,35717.8,-4.8906,0.8715,144.7,97.6,0.497
40.04,33388.9,34245.5,1.9326,-0.8806,144.7,97.6,0.497
40.06,29138.5,34481.5,-4.0089,-0.5997,144.7,97.6,0.497
40.08,31212.8,33023.0,-1.1093,-2.3352,144.7,97.6,0.497
40.1,33441.5,37772.9,2.0062,3.3168,144.7,97.6,0.497
40.12,31117.2,32903.2,-1.243,-2.4777,144.7,97.6,0.497
40.14,31910.6,35085.4,-0.1338,0.1189,144.7,97.6,0.497
40.16,29908.8,36826.5,-2.9321,2.1907,144.7,97.6,0.497
40.18,29440.9,33488.9,-3.5862,-1.7808,144.7,97.6,0.497
40.2,28082.9,32554.0,-5.4846,-2.8933,144.7,97.6,0.497
40.22,30867.2,33687.9,-1.5925,-1.544,144.7,97.6,0.497
40.24,33069.5,34035.9,1.4862,-1.1299,144.7,97.6,0.497
40.26,30679.2,34814.4,-1.8552,-0.2035,144.7,97.6,0.497
40.28,33326.3,35083.3,1.8451,0.1164,144.7,97.6,0.497
40.3,31665.8,34250.6,-0.476,-0.8745,144.7,97.6,0.497
40.32,34575.9,33838.3,3.592,-1.365,144.7,97.6,0.497
40.34,34027.9,33994.4,2.826,-1.1793,144.7,97.6,0.497
40.36,30403.9,32230.0,-2.2401,-3.2788,144.7,97.6,0.497
40.38,32790.0,34766.5,1.0955,-0.2606,144.7,97.6,0.497
40.4,31631.8,32984.0,-0.5235,-2.3816,144.7,97.6,0.497
40.42,32112.0,32856.4,0.1477,-2.5335,144.7,97.6,0.497
40.44,30953.6,36526.9,-1.4717,1.8342,144.7,97.6,0.497
40.46,34151.9,32885.5,2.9992,-2.4988,144.7,97.6,0.497
40.48,34488.3,35692.5,3.4696,0.8413,144.7,97.6,0.497
40.5,29024.8,33405.7,-4.1679,-1.8798,144.7,97.6,0.497
40.52,30213.3,35741.4,-2.5065,0.8995,144.7,97.6,0.497
40.54,31969.3,37275.9,-0.0518,2.7254,144.7,97.6,0.497
40.56,32218.7,35114.6,0.2969,0.1537,144.7,97.6,0.497
40.58,37541.1,34236.0,7.737,-0.8918,144.7,97.6,0.497
40.6,34136.6,33774.6,2.9779,-1.4409,144.7,97.6,0.497
40.62,31575.0,36810.5,-0.6029,2.1716,144.7,97.6,0.497
40.64,34473.7,32289.3,3.4492,-3.2082,144.7,97.6,0.497
40.66,33959.4,35260.5,2.7302,0.3273,144.7,97.6,0.497
40.68,32787.0,37814.5,1.0913,3.3663,144.7,97.6,0.497
40.7,32958.9,36766.1,1.3316,2.1187,144.7,97.6,0.497
40.72,28991.2,37232.8,-4.2148,2.6742,144.7,97.6,0.497
40.74,31833.4,35070.1,-0.2418,0.1007,144.7,97.6,0.497
40.76,33727.2,33680.2,2.4055,-1.5531,144.7,97.6,0.497
40.78,30757.4,35416.4,-1.7459,0.5127,144.7,97.6,0.497
40.8,29966.3,32335.1,-2.8519,-3.1537,144.7,97.6,0.497
40.82,35181.1,37412.4,4.438,2.8879,144.7,97.6,0.497
40.84,32910.9,32510.4,1.2645,-2.9451,144.7,97.6,0.497
40.86,32668.9,37061.5,0.9262,2.4703,144.7,97.6,0.497
40.88,31798.0,34088.9,-0.2912,-1.0668,144.7,97.6,0.497
40.9,31383.8,35872.9,-0.8702,1.056,144.7,97.6,0.497
40.92,36196.5,37299.1,5.8574,2.753,144.7,97.6,0.497
40.94,29502.7,37750.4,-3.4999,3.2901,144.7,97.6,0.497
40.96,29715.5,36397.3,-3.2023,1.6799,144.7,97.6,0.497
40.98,31538.5,34798.3,-0.654,-0.2227,144.7,97.6,0.497
41.0,29045.4,34453.0,-4.1392,-0.6337,144.7,97.6,0.497
41.02,32676.1,31681.3,0.9363,-3.9317,144.7,97.6,0.497
41.04,35036.5,35280.4,4.2358,0.3509,144.7,97.6,0.497
41.06,35248.9,36703.3,4.5328,2.0441,144.7,97.6,0.497
41.08,34498.6,31424.6,3.484,-4.2372,144.7,97.6,0.497
41.1,29348.2,33530.6,-3.7159,-1.7312,144.7,97.6,0.497
41.12,31041.4,36723.9,-1.3488,2.0686,144.7,97.6,0.497
41.14,34677.9,33792.6,3.7346,-1.4194,144.7,97.6,0.497
41.16,32878.6,35679.8,1.2194,0.8262,144.7,97.6,0.497
41.18,31702.1,34026.0,-0.4253,-1.1417,144.7,97.6,0.497
41.2,28125.1,34760.1,-5.4256,-0.2682,144.7,97.6,0.497
41.22,38286.1,33561.2,8.7785,-1.6948,144.7,97.6,0.497
41.24,30694.6,31662.8,-1.8336,-3.9538,144.7,97.6,0.497
41.26,28215.2,31594.6,-5.2996,-4.0349,144.7,97.6,0.497
41.28,33032.3,35313.4,1.4342,0.3902,144.7,97.6,0.497
41.3,29959.9,32975.9,-2.8608,-2.3912,144.7,97.6,0.497
41.32,32458.8,36788.6,0.6325,2.1456,144.7,97.6,0.497
41.34,32976.4,30973.5,1.356,-4.774,144.7,97.6,0.497
41.36,29517.2,33376.4,-3.4797,-1.9146,144.7,97.6,0.497
41.38,36261.5,30514.2,5.9483,-5.3204,144.7,97.6,0.497
41.4,32397.4,35934.7,0.5466,1.1295,144.7,97.6,0.497
41.42,26852.0,34439.0,-7.2053,-0.6503,144.7,97.6,0.497
41.44,35076.6,34475.8,4.292,-0.6065,144.7,97.6,0.497
41.46,31963.3,34784.4,-0.0602,-0.2393,144.7,97.6,0.497
41.48,27986.4,39855.9,-5.6196,5.7955,144.7,97.6,0.497
41.5,31953.7,33696.6,-0.0736,-1.5337,144.7,97.6,0.497
41.52,32275.1,37744.2,0.3757,3.2826,144.7,97.6,0.497
41.54,34519.9,35668.8,3.5138,0.8131,144.7,97.6,0.497
41.56,32879.9,34879.4,1.2211,-0.1262,144.7,97.6,0.497
41.58,36817.8,33610.1,6.7259,-1.6366,144.7,97.6,0.497
41.6,34678.3,37762.5,3.7352,3.3044,144.7,97.6,0.497
41.62,32198.7,31355.7,0.269,-4.3192,144.7,97.6,0.497
41.64,32454.4,37632.4,0.6264,3.1497,144.7,97.6,0.497
41.66,34947.3,37328.4,4.1111,2.7879,144.7,97.6,0.497
41.68,32006.0,35588.3,-0.0005,0.7173,144.7,97.6,0.497
41.7,31113.4,37131.6,-1.2482,2.5537,144.7,97.6,0.497
41.72,35568.9,36881.7,4.9801,2.2564,144.7,97.6,0.497
41.74,31575.4,32224.8,-0.6024,-3.285,144.7,97.6,0.497
41.76,35753.2,36533.7,5.2377,1.8423,144.7,97.6,0.497
41.78,29198.9,36484.9,-3.9245,1.7843,144.7,97.6,0.497
41.8,31689.6,33309.6,-0.4428,-1.9942,144.7,97.6,0.497
41.82,29987.9,33615.8,-2.8215,-1.6298,144.7,97.6,0.497
41.84,32128.1,36421.7,0.1702,1.709,144.7,97.6,0.497
41.86,34160.6,31052.1,3.0115,-4.6804,144.7,97.6,0.497
41.88,33504.9,33581.0,2.0948,-1.6712,144.7,97.6,0.497
41.9,28273.6,36950.3,-5.218,2.338,144.7,97.6,0.497
41.92,34528.0,34486.1,3.525,-0.5942,144.7,97.6,0.497
41.94,30584.5,33964.9,-1.9877,-1.2144,144.7,97.6,0.497
41.96,32810.1,33304.7,1.1235,-2.0,144.7,97.6,0.497
41.98,30702.9,29682.0,-1.8221,-6.3107,144.7,97.6,0.497
42.0,35044.0,33489.8,4.2463,-1.7797,144.7,97.6,0.497
42.02,31185.2,33034.6,-1.1479,-2.3214,144.7,97.6,0.497
42.04,31583.4,37505.9,-0.5912,2.9991,144.7,97.6,0.497
42.06,33771.4,35008.5,2.4674,0.0273,144.7,97.6,0.497
42.08,31954.7,35805.2,-0.0721,0.9754,144.7,97.6,0.497
42.1,31697.7,38309.4,-0.4314,3.9552,144.7,97.6,0.497
42.12,35275.5,31708.8,4.57,-3.899,144.7,97.6,0.497
42.14,30785.6,37382.0,-1.7064,2.8517,144.7,97.6,0.497
42.16,30540.2,37012.7,-2.0496,2.4123,144.7,97.6,0.497
42.18,32010.6,30207.6,0.006,-5.6853,144.7,97.6,0.497
42.2,32093.3,34043.9,0.1216,-1.1204,144.7,97.6,0.497
42.22,29934.6,35779.5,-2.8962,0.9449,144.7,97.6,0.497
42.24,35544.8,35338.6,4.9465,0.4202,144.7,97.6,0.497
42.26,33721.8,29154.3,2.3981,-6.9386,144.7,97.6,0.497
42.28,30113.8,36285.1,-2.6457,1.5465,144.7,97.6,0.497
42.3,32047.8,35672.1,0.0579,0.817,144.7,97.6,0.497
42.32,35383.7,37761.0,4.7213,3.3027,144.7,97.6,0.497
42.34,32673.4,37011.8,0.9325,2.4112,144.7,97.6,0.497
42.36,32184.7,35088.6,0.2494,0.1227,144.7,97.6,0.497
42.38,32764.5,31871.1,1.0598,-3.7059,144.7,97.6,0.497
42.4,29620.9,34300.2,-3.3347,-0.8155,144.7,97.6,0.497
42.42,34154.5,34301.0,3.0029,-0.8145,144.7,97.6,0.497
42.44,31913.4,35270.2,-0.1299,0.3388,144.7,97.6,0.497
42.46,31749.9,33845.2,-0.3586,-1.3568,144.7,97.6,0.497
42.48,31803.5,36091.0,-0.2835,1.3155,144.7,97.6,0.497
42.5,32612.9,39474.6,0.8479,5.3417,144.7,97.6,0.497
42.52,31521.7,32531.3,-0.6774,-2.9203,144.7,97.6,0.497
42.54,31462.9,34706.5,-0.7598,-0.332,144.7,97.6,0.497
42.56,29427.4,33948.6,-3.6051,-1.2338,144.7,97.6,0.497
42.58,29954.4,37151.1,-2.8685,2.577,144.7,97.6,0.497
42.6,31155.5,36205.0,-1.1895,1.4511,144.7,97.6,0.497
42.62,32235.5,33020.7,0.3203,-2.338,144.7,97.6,0.497
42.64,30491.3,32718.5,-2.1179,-2.6976,144.7,97.6,0.497
42.66,33067.9,35987.5,1.4839,1.1924,144.7,97.6,0.497
42.68,33142.4,39098.0,1.5882,4.8936,144.7,97.6,0.497
42.7,33866.1,33833.1,2.5997,-1.3712,144.7,97.6,0.497
42.72,34613.6,39011.6,3.6447,4.7908,144.7,97.6,0.497
42.74,34040.3,32731.8,2.8432,-2.6817,144.7,97.6,0.497
42.76,32845.4,40812.2,1.1729,6.9334,144.7,97.6,0.497
42.78,34995.2,39083.8,4.1781,4.8767,144.7,97.6,0.497
42.8,31256.9,37314.3,-1.0477,2.7711,144.7,97.6,0.497
42.82,33409.5,33445.1,1.9615,-1.8329,144.7,97.6,0.497
42.84,36539.0,36029.9,6.3363,1.2428,144.7,97.6,0.497
42.86,35257.7,33456.4,4.5451,-1.8195,144.7,97.6,0.497
42.88,28593.6,33319.2,-4.7706,-1.9828,144.7,97.6,0.497
42.9,32023.0,33169.3,0.0232,-2.1612,144.7,97.6,0.497
42.92,35384.8,36284.6,4.7228,1.5458,144.7,97.6,0.497
42.94,29576.2,34805.2,-3.3971,-0.2145,144.7,97.6,0.497
42.96,33268.7,37823.0,1.7647,3.3764,144.7,97.6,0.497
42.98,32670.3,33971.9,0.9282,-1.206,144.7,97.6,0.497
43.0,32837.6,32340.5,1.1621,-3.1473,144.7,97.6,0.497
43.02,31849.6,35256.8,-0.2191,0.3229,144.7,97.6,0.497
43.04,34543.3,35614.9,3.5465,0.749,144.7,97.6,0.497
43.06,30586.1,34205.5,-1.9854,-0.9281,144.7,97.6,0.497
43.08,31614.6,35877.6,-0.5476,1.0616,144.7,97.6,0.497
43.1,32787.7,33426.3,1.0923,-1.8553,144.7,97.6,0.497
43.12,33857.8,29975.8,2.5881,-5.9611,144.7,97.6,0.497
43.14,32425.8,33615.9,0.5864,-1.6297,144.7,97.6,0.497
43.16,32033.1,39713.6,0.0374,5.6261,144.7,97.6,0.497
43.18,32672.1,34826.4,0.9307,-0.1892,144.7,97.6,0.497
43.2,31914.3,35853.9,-0.1286,1.0334,144.7,97.6,0.497
43.22,33527.4,36169.3,2.1263,1.4087,144.7,97.6,0.497
43.24,32870.0,36801.7,1.2073,2.1612,144.7,97.6,0.497
43.26,32279.7,37296.2,0.3822,2.7496,144.7,97.6,0.497
43.28,31896.2,32802.8,-0.154,-2.5972,144.7,97.6,0.497
43.3,33169.0,33085.3,1.6253,-2.2611,144.7,97.6,0.497
43.32,30461.3,35245.8,-2.1599,0.3098,144.7,97.6,0.497
43.34,31510.2,36103.8,-0.6935,1.3308,144.7,97.6,0.497
43.36,31402.2,34081.3,-0.8446,-1.076,144.7,97.6,0.497
43.38,32567.0,34475.1,0.7837,-0.6073,144.7,97.6,0.497
43.4,33778.2,35713.1,2.4769,0.8658,144.7,97.6,0.497
43.42,31935.2,33909.2,-0.0994,-1.2806,144.7,97.6,0.497
43.44,37267.9,33602.4,7.3551,-1.6458,144.7,97.6,0.497
43.46,33657.2,32681.8,2.3078,-2.7412,144.7,97.6,0.497
43.48,32005.1,35131.6,-0.0018,0.1739,144.7,97.6,0.497
43.5,34213.9,30520.2,3.0859,-5.3133,144.7,97.6,0.497
43.52,30246.7,35241.1,-2.4599,0.3042,144.7,97.6,0.497
43.54,28875.9,33915.6,-4.3761,-1.273,144.7,97.6,0.497
43.56,33194.5,35656.8,1.661,0.7988,144.7,97.6,0.497
43.58,33359.4,33664.5,1.8915,-1.5719,144.7,97.6,0.497
43.6,35377.2,32981.0,4.7122,-2.3852,144.7,97.6,0.497
43.62,31109.6,35056.7,-1.2536,0.0847,144.7,97.6,0.497
43.64,33394.6,37769.8,1.9407,3.3131,144.7,97.6,0.497
43.66,34501.6,37644.8,3.4881,3.1643,144.7,97.6,0.497
43.68,35639.5,31401.1,5.0788,-4.2651,144.7,97.6,0.497
43.7,30858.0,31479.1,-1.6053,-4.1723,144.7,97.6,0.497
43.72,32456.1,36985.0,0.6288,2.3793,144.7,97.6,0.497
43.74,29876.5,34337.5,-2.9773,-0.7711,144.7,97.6,0.497
43.76,33532.3,33328.1,2.1331,-1.9722,144.7,97.6,0.497
43.78,32068.9,34227.2,0.0875,-0.9022,144.7,97.6,0.497
43.8,34023.0,35221.5,2.8191,0.2809,144.7,97.6,0.497
43.82,33674.5,36062.1,2.3319,1.2811,144.7,97.6,0.497
43.84,26973.4,35821.5,-7.0356,0.9948,144.7,97.6,0.497
43.86,31919.0,36819.6,-0.1222,2.1825,144.7,97.6,0.497
43.88,34565.0,34847.5,3.5767,-0.1642,144.7,97.6,0.497
43.9,35247.7,35784.4,4.5311,0.9507,144.7,97.6,0.497
43.92,30890.1,38369.1,-1.5604,4.0263,144.7,97.6,0.497
43.94,29532.3,37316.2,-3.4585,2.7734,144.7,97.6,0.497
43.96,29604.8,37130.7,-3.3571,2.5527,144.7,97.6,0.497
43.98,31645.6,34062.4,-0.5043,-1.0984,144.7,97.6,0.497
44.0,32761.2,34137.2,1.0552,-1.0094,144.7,97.6,0.497
44.02,33748.4,35938.9,2.4352,1.1345,144.7,97.6,0.497
44.04,31166.0,34491.7,-1.1747,-0.5875,144.7,97.6,0.497
44.06,34872.8,33552.7,4.007,-1.7049,144.7,97.6,0.497
44.08,31240.3,32501.7,-1.0709,-2.9555,144.7,97.6,0.497
44.1,34152.8,31859.0,3.0005,-3.7203,144.7,97.6,0.497
44.12,29585.0,33560.0,-3.3848,-1.6962,144.7,97.6,0.497
44.14,35627.9,33024.6,5.0625,-2.3332,144.7,97.6,0.497
44.16,32944.4,41186.8,1.3114,7.3791,144.7,97.6,0.497
44.18,30753.2,31047.1,-1.7518,-4.6863,144.7,97.6,0.497
44.2,34997.0,35960.3,4.1806,1.16,144.7,97.6,0.497
44.22,30227.1,36702.0,-2.4873,2.0425,144.7,97.6,0.497
44.24,32722.8,31106.7,1.0016,-4.6155,144.7,97.6,0.497
44.26,33589.6,35661.6,2.2132,0.8045,144.7,97.6,0.497
44.28,33468.4,36302.7,2.0439,1.5674,144.7,97.6,0.497
44.3,29394.5,35560.9,-3.6512,0.6847,144.7,97.6,0.497
44.32,33142.4,32503.6,1.5881,-2.9532,144.7,97.6,0.497
44.34,28423.7,38082.2,-5.0082,3.6849,144.7,97.6,0.497
44.36,32444.2,35503.8,0.612,0.6168,144.7,97.6,0.497
44.38,28148.5,36183.9,-5.3929,1.426,144.7,97.6,0.497
44.4,31768.0,40608.7,-0.3331,6.6912,144.7,97.6,0.497
44.42,30614.8,37276.5,-1.9453,2.7262,144.7,97.6,0.497
44.44,29116.9,34999.0,-4.0391,0.0161,144.7,97.6,0.497
44.46,30051.0,37101.4,-2.7335,2.5178,144.7,97.6,0.497
44.48,36173.0,36930.3,5.8247,2.3141,144.7,97.6,0.497
44.5,32396.6,32372.9,0.5455,-3.1088,144.7,97.6,0.497
44.52,31910.5,30255.6,-0.134,-5.6282,144.7,97.6,0.497
44.54,31656.3,34845.7,-0.4893,-0.1663,144.7,97.6,0.497
44.56,31382.7,34176.9,-0.8718,-0.9622,144.7,97.6,0.497
44.58,29913.9,38036.8,-2.925,3.6308,144.7,97.6,0.497
44.6,35754.2,36885.4,5.2391,2.2608,144.7,97.6,0.497
44.62,31303.7,35424.3,-0.9822,0.5221,144.7,97.6,0.497
44.64,32603.0,32405.7,0.8341,-3.0697,144.7,97.6,0.497
44.66,30417.0,33786.1,-2.2217,-1.4271,144.7,97.6,0.497
44.68,29654.7,36103.3,-3.2874,1.3301,144.7,97.6,0.497
44.7,29064.2,29803.9,-4.1129,-6.1657,144.7,97.6,0.497
44.72,31780.8,36096.4,-0.3153,1.322,144.7,97.6,0.497
44.74,33184.0,37452.8,1.6463,2.936,144.7,97.6,0.497
44.76,35913.3,32012.6,5.4615,-3.5375,144.7,97.6,0.497
44.78,29773.6,36990.1,-3.1212,2.3854,144.7,97.6,0.497
44.8,34256.5,36105.5,3.1456,1.3328,144.7,97.6,0.497
44.82,31229.3,36246.1,-1.0863,1.5,144.7,97.6,0.497
44.84,33635.2,31206.7,2.277,-4.4965,144.7,97.6,0.497
44.86,31681.7,35806.3,-0.4539,0.9767,144.7,97.6,0.497
