timestamp,raw_red,raw_ir,filtered_red,filtered_ir,heart_rate,spo2,ac_dc_ratio
0.0,32154.4,35090.8,0.635,0.2246,141.9,98.5,0.46
0.02,32270.9,35571.3,1.1201,1.4047,141.9,98.5,0.46
0.04,32320.0,35771.0,1.3245,1.8952,141.9,98.5,0.46
0.06,32376.4,35691.8,1.559,1.7008,141.9,98.5,0.46
0.08,32228.7,35603.1,0.9442,1.483,141.9,98.5,0.46
0.1,32226.0,35402.1,0.9331,0.9893,141.9,98.5,0.46
0.12,32037.6,35300.3,0.149,0.7391,141.9,98.5,0.46
0.14,32101.3,35067.7,0.4141,0.1678,141.9,98.5,0.46
0.16,31873.6,35073.7,-0.5332,0.1828,141.9,98.5,0.46
0.18,32068.6,34938.5,0.278,-0.1494,141.9,98.5,0.46
0.2,31926.5,34965.2,-0.3131,-0.0839,141.9,98.5,0.46
0.22,31917.9,34849.1,-0.3489,-0.369,141.9,98.5,0.46
0.24,31852.5,34718.2,-0.6211,-0.6904,141.9,98.5,0.46
0.26,31908.4,34588.8,-0.3883,-1.0083,141.9,98.5,0.46
0.28,31824.1,34678.3,-0.7391,-0.7885,141.9,98.5,0.46
0.3,31893.5,34626.1,-0.4504,-0.9167,141.9,98.5,0.46
0.32,31832.0,34555.6,-0.7064,-1.0899,141.9,98.5,0.46
0.34,31809.3,34550.8,-0.801,-1.1015,141.9,98.5,0.46
0.36,31791.2,34398.5,-0.8761,-1.4756,141.9,98.5,0.46
0.38,31703.0,34549.1,-1.2433,-1.1059,141.9,98.5,0.46
0.4,31871.7,34782.5,-0.5413,-0.5325,141.9,98.5,0.46
0.42,32071.2,35061.1,0.2891,0.1518,141.9,98.5,0.46
0.44,32189.2,35428.4,0.7801,1.0538,141.9,98.5,0.46
0.46,32288.7,35760.0,1.1938,1.8682,141.9,98.5,0.46
0.48,32400.4,35693.1,1.6587,1.704,141.9,98.5,0.46
0.5,32250.8,35525.5,1.0363,1.2924,141.9,98.5,0.46
0.52,32243.7,35449.2,1.007,1.1049,141.9,98.5,0.46
0.54,32034.4,35347.5,0.1359,0.8551,141.9,98.5,0.46
0.56,31986.8,35106.7,-0.0622,0.2637,141.9,98.5,0.46
0.58,32097.3,35095.6,0.3975,0.2365,141.9,98.5,0.46
0.6,31978.1,34997.7,-0.0985,-0.004,141.9,98.5,0.46
0.62,31920.5,34939.3,-0.338,-0.1474,141.9,98.5,0.46
0.64,31929.5,34895.7,-0.3008,-0.2544,141.9,98.5,0.46
0.66,31872.8,34769.9,-0.5365,-0.5634,141.9,98.5,0.46
0.68,31937.5,34681.5,-0.2674,-0.7805,141.9,98.5,0.46
0.7,31870.9,34687.8,-0.5446,-0.7651,141.9,98.5,0.46
0.72,31885.5,34749.4,-0.4839,-0.6138,141.9,98.5,0.46
0.74,31847.4,34553.7,-0.6424,-1.0945,141.9,98.5,0.46
0.76,31764.7,34522.6,-0.9866,-1.1708,141.9,98.5,0.46
0.78,31773.3,34486.8,-0.9507,-1.2588,141.9,98.5,0.46
0.8,31757.0,34413.3,-1.0183,-1.4394,141.9,98.5,0.46
0.82,32009.9,34829.5,0.0337,-0.4171,141.9,98.5,0.46
0.84,31995.9,34965.3,-0.0243,-0.0837,141.9,98.5,0.46
0.86,32058.3,35375.1,0.2352,0.9228,141.9,98.5,0.46
0.88,32311.6,35701.2,1.2894,1.7238,141.9,98.5,0.46
0.9,32329.5,35668.7,1.3636,1.644,141.9,98.5,0.46
0.92,32366.6,35709.2,1.518,1.7436,141.9,98.5,0.46
0.94,32276.5,35449.6,1.1434,1.1059,141.9,98.5,0.46
0.96,32133.7,35254.1,0.5491,0.6258,141.9,98.5,0.46
0.98,32161.6,35080.5,0.6652,0.1995,141.9,98.5,0.46
1.0,32003.1,35058.2,0.0058,0.1447,141.9,98.5,0.46
1.02,31993.1,34991.4,-0.0358,-0.0195,141.9,98.5,0.46
1.04,32048.4,34955.1,0.194,-0.1087,141.9,98.5,0.46
1.06,31923.2,34734.9,-0.327,-0.6495,141.9,98.5,0.46
1.08,31947.3,34762.9,-0.2267,-0.5806,141.9,98.5,0.46
1.1,31818.7,34675.2,-0.7615,-0.796,141.9,98.5,0.46
1.12,31859.3,34599.6,-0.5929,-0.9817,141.9,98.5,0.46
1.14,31828.3,34578.2,-0.7216,-1.0343,141.9,98.5,0.46
1.16,31866.1,34582.0,-0.5647,-1.0251,141.9,98.5,0.46
1.18,31793.0,34568.6,-0.8688,-1.0579,141.9,98.5,0.46
1.2,31803.3,34423.3,-0.8258,-1.4147,141.9,98.5,0.46
1.22,31816.6,34508.2,-0.7704,-1.2062,141.9,98.5,0.46
1.24,31800.0,34625.5,-0.8396,-0.9182,141.9,98.5,0.46
1.26,32040.6,34952.1,0.1618,-0.116,141.9,98.5,0.46
1.28,32114.5,35427.6,0.4693,1.0518,141.9,98.5,0.46
1.3,32178.4,35600.5,0.7352,1.4766,141.9,98.5,0.46
1.32,32355.4,35733.9,1.4718,1.8042,141.9,98.5,0.46
1.34,32288.8,35660.3,1.1943,1.6234,141.9,98.5,0.46
1.36,32226.8,35589.2,0.9366,1.4488,141.9,98.5,0.46
1.38,32078.8,35288.4,0.3208,0.71,141.9,98.5,0.46
1.4,32085.4,35077.7,0.3482,0.1925,141.9,98.5,0.46
1.42,31968.1,35129.8,-0.1399,0.3203,141.9,98.5,0.46
1.44,32061.4,35043.2,0.2482,0.1078,141.9,98.5,0.46
1.46,32034.1,35093.4,0.1346,0.2311,141.9,98.5,0.46
1.48,32046.3,34839.4,0.1855,-0.3928,141.9,98.5,0.46
1.5,31932.1,34808.4,-0.2899,-0.469,141.9,98.5,0.46
1.52,31838.2,34754.8,-0.6805,-0.6006,141.9,98.5,0.46
1.54,31828.4,34582.3,-0.7214,-1.0242,141.9,98.5,0.46
1.56,31823.9,34634.2,-0.7401,-0.8967,141.9,98.5,0.46
1.58,31817.3,34638.4,-0.7677,-0.8864,141.9,98.5,0.46
1.6,31819.8,34487.9,-0.7571,-1.2562,141.9,98.5,0.46
1.62,31783.6,34401.7,-0.9076,-1.4677,141.9,98.5,0.46
1.64,31777.7,34483.0,-0.9322,-1.2682,141.9,98.5,0.46
1.66,31883.6,34681.2,-0.4916,-0.7813,141.9,98.5,0.46
1.68,31960.7,35037.7,-0.1708,0.0944,141.9,98.5,0.46
1.7,32253.4,35322.8,1.0472,0.7944,141.9,98.5,0.46
1.72,32290.8,35670.3,1.2028,1.648,141.9,98.5,0.46
1.74,32293.3,35768.4,1.2131,1.8889,141.9,98.5,0.46
1.76,32274.1,35759.0,1.1334,1.8659,141.9,98.5,0.46
1.78,32212.4,35517.9,0.8767,1.2736,141.9,98.5,0.46
1.8,32165.2,35395.3,0.6801,0.9726,141.9,98.5,0.46
1.82,32038.0,35178.8,0.151,0.4407,141.9,98.5,0.46
1.84,32053.9,35070.7,0.217,0.1754,141.9,98.5,0.46
1.86,32103.7,35030.5,0.4243,0.0767,141.9,98.5,0.46
1.88,31998.6,34953.3,-0.013,-0.1131,141.9,98.5,0.46
1.9,32036.6,34881.3,0.145,-0.2898,141.9,98.5,0.46
1.92,31958.6,34805.3,-0.1795,-0.4765,141.9,98.5,0.46
1.94,31832.2,34837.9,-0.7054,-0.3964,141.9,98.5,0.46
1.96,31931.4,34651.6,-0.2928,-0.854,141.9,98.5,0.46
1.98,31793.0,34620.8,-0.8688,-0.9296,141.9,98.5,0.46
2.0,31834.7,34651.5,-0.6952,-0.8543,141.9,98.5,0.46
2.02,31842.2,34594.6,-0.6638,-0.9941,141.9,98.5,0.46
2.04,31785.3,34449.4,-0.9006,-1.3506,141.9,98.5,0.46
2.06,31835.4,34370.3,-0.6923,-1.5449,141.9,98.5,0.46
2.08,31789.5,34648.1,-0.8834,-0.8626,141.9,98.5,0.46
2.1,31944.9,34770.7,-0.2364,-0.5615,141.9,98.5,0.46
2.12,32092.0,35252.9,0.3755,0.6227,141.9,98.5,0.46
2.14,32238.9,35551.4,0.9867,1.356,141.9,98.5,0.46
2.16,32311.7,35723.9,1.2896,1.7796,141.9,98.5,0.46
2.18,32213.7,35750.1,0.8818,1.8439,141.9,98.5,0.46
2.2,32142.7,35566.7,0.5864,1.3935,141.9,98.5,0.46
2.22,32186.1,35312.0,0.767,0.7678,141.9,98.5,0.46
2.24,32137.4,35155.2,0.5646,0.3828,141.9,98.5,0.46
2.26,32032.9,35167.6,0.1294,0.4133,141.9,98.5,0.46
2.28,32091.7,35095.2,0.3742,0.2355,141.9,98.5,0.46
2.3,32038.8,34953.0,0.1543,-0.1138,141.9,98.5,0.46
2.32,31896.7,34843.8,-0.4369,-0.3821,141.9,98.5,0.46
2.34,31877.7,34850.9,-0.5161,-0.3646,141.9,98.5,0.46
2.36,31818.5,34767.4,-0.7624,-0.5697,141.9,98.5,0.46
2.38,31812.8,34692.4,-0.7862,-0.7539,141.9,98.5,0.46
2.4,31897.6,34717.2,-0.4335,-0.693,141.9,98.5,0.46
2.42,31859.3,34640.6,-0.5927,-0.8811,141.9,98.5,0.46
2.44,31848.3,34599.1,-0.6384,-0.9828,141.9,98.5,0.46
2.46,31847.2,34544.9,-0.6429,-1.1162,141.9,98.5,0.46
2.48,31738.0,34534.6,-1.0974,-1.1415,141.9,98.5,0.46
2.5,31763.8,34459.5,-0.99,-1.3258,141.9,98.5,0.46
2.52,32002.5,34915.3,0.0033,-0.2063,141.9,98.5,0.46
2.54,32104.2,35123.0,0.4265,0.3038,141.9,98.5,0.46
2.56,32192.3,35518.3,0.7931,1.2747,141.9,98.5,0.46
2.58,32267.9,35766.8,1.1076,1.8848,141.9,98.5,0.46
2.6,32405.1,35730.1,1.6785,1.7948,141.9,98.5,0.46
2.62,32238.6,35631.2,0.9856,1.5518,141.9,98.5,0.46
2.64,32106.0,35455.3,0.4338,1.12,141.9,98.5,0.46
2.66,32191.1,35221.4,0.7877,0.5453,141.9,98.5,0.46
2.68,32136.1,35122.1,0.5588,0.3015,141.9,98.5,0.46
2.7,32051.8,35089.9,0.2084,0.2225,141.9,98.5,0.46
2.72,32058.6,35009.0,0.2367,0.0238,141.9,98.5,0.46
2.74,32016.9,34942.0,0.0631,-0.1408,141.9,98.5,0.46
2.76,31991.5,34802.3,-0.0426,-0.484,141.9,98.5,0.46
2.78,31854.7,34778.4,-0.6118,-0.5425,141.9,98.5,0.46
2.8,31947.1,34729.9,-0.2275,-0.6616,141.9,98.5,0.46
2.82,31859.1,34629.4,-0.5938,-0.9086,141.9,98.5,0.46
2.84,31844.1,34659.1,-0.6561,-0.8356,141.9,98.5,0.46
2.86,31800.1,34553.4,-0.8392,-1.0952,141.9,98.5,0.46
2.88,31819.4,34467.9,-0.7586,-1.3051,141.9,98.5,0.46
2.9,31740.1,34449.6,-1.0888,-1.3502,141.9,98.5,0.46
2.92,31761.4,34508.4,-1.0003,-1.2056,141.9,98.5,0.46
2.94,31912.7,34820.9,-0.3704,-0.4383,141.9,98.5,0.46
2.96,32122.2,35059.8,0.5013,0.1485,141.9,98.5,0.46
2.98,32249.4,35563.5,1.0307,1.3856,141.9,98.5,0.46
3.0,32290.0,35705.9,1.1994,1.7354,141.9,98.5,0.46
3.02,32304.7,35723.2,1.2605,1.7778,141.9,98.5,0.46
3.04,32340.6,35624.5,1.4098,1.5355,141.9,98.5,0.46
3.06,32113.4,35477.3,0.4646,1.174,141.9,98.5,0.46
3.08,32224.7,35217.6,0.9276,0.5361,141.9,98.5,0.46
3.1,32092.5,35162.7,0.3776,0.4014,141.9,98.5,0.46
3.12,32065.7,34989.5,0.266,-0.0241,141.9,98.5,0.46
3.14,32014.1,35010.2,0.0513,0.0266,141.9,98.5,0.46
3.16,32017.4,34973.1,0.0653,-0.0644,141.9,98.5,0.46
3.18,31923.7,34819.7,-0.3249,-0.4412,141.9,98.5,0.46
3.2,31924.7,34767.8,-0.3205,-0.5686,141.9,98.5,0.46
3.22,31807.5,34652.0,-0.8081,-0.853,141.9,98.5,0.46
3.24,31846.9,34718.0,-0.6443,-0.691,141.9,98.5,0.46
3.26,31878.5,34661.6,-0.513,-0.8294,141.9,98.5,0.46
3.28,31868.0,34555.0,-0.5565,-1.0913,141.9,98.5,0.46
3.3,31801.6,34517.1,-0.8329,-1.1844,141.9,98.5,0.46
3.32,31817.3,34476.2,-0.7675,-1.2847,141.9,98.5,0.46
3.34,31854.2,34546.6,-0.6141,-1.1119,141.9,98.5,0.46
3.36,31880.7,34769.9,-0.5037,-0.5636,141.9,98.5,0.46
3.38,31996.8,35056.2,-0.0204,0.1397,141.9,98.5,0.46
3.4,32157.3,35380.2,0.6474,0.9353,141.9,98.5,0.46
3.42,32310.3,35675.6,1.2838,1.6611,141.9,98.5,0.46
3.44,32351.5,35755.5,1.4554,1.8572,141.9,98.5,0.46
3.46,32247.0,35653.3,1.0206,1.6062,141.9,98.5,0.46
3.48,32244.3,35518.1,1.0092,1.2741,141.9,98.5,0.46
3.5,32069.3,35164.9,0.281,0.4066,141.9,98.5,0.46
3.52,32149.5,35079.7,0.6147,0.1975,141.9,98.5,0.46
3.54,32028.5,35026.8,0.1114,0.0675,141.9,98.5,0.46
3.56,32096.0,35019.9,0.3924,0.0505,141.9,98.5,0.46
3.58,31905.6,35045.5,-0.3999,0.1134,141.9,98.5,0.46
3.6,31952.8,34799.7,-0.2037,-0.4903,141.9,98.5,0.46
3.62,32000.9,34858.3,-0.0036,-0.3464,141.9,98.5,0.46
3.64,31806.8,34699.9,-0.8111,-0.7354,141.9,98.5,0.46
3.66,31775.8,34613.0,-0.9402,-0.9488,141.9,98.5,0.46
3.68,31923.5,34588.5,-0.3258,-1.009,141.9,98.5,0.46
3.7,31951.6,34663.6,-0.2087,-0.8246,141.9,98.5,0.46
3.72,31780.0,34435.2,-0.9229,-1.3855,141.9,98.5,0.46
3.74,31707.0,34529.7,-1.2266,-1.1535,141.9,98.5,0.46
3.76,31786.3,34467.0,-0.8963,-1.3074,141.9,98.5,0.46
3.78,31948.6,34698.7,-0.221,-0.7383,141.9,98.5,0.46
3.8,32063.3,35021.8,0.2563,0.0551,141.9,98.5,0.46
3.82,32115.4,35421.0,0.4729,1.0356,141.9,98.5,0.46
3.84,32307.3,35688.7,1.2713,1.6931,141.9,98.5,0.46
3.86,32370.7,35751.4,1.5354,1.8472,141.9,98.5,0.46
3.88,32190.6,35748.5,0.786,1.84,141.9,98.5,0.46
3.9,32212.3,35518.4,0.8763,1.2748,141.9,98.5,0.46
3.92,32126.5,35294.5,0.5191,0.7249,141.9,98.5,0.46
3.94,32083.8,35135.0,0.3416,0.3333,141.9,98.5,0.46
3.96,32007.7,35154.2,0.0247,0.3804,141.9,98.5,0.46
3.98,32114.1,35126.7,0.4675,0.313,141.9,98.5,0.46
4.0,32022.0,35007.4,0.0843,0.0199,141.9,98.5,0.46
4.02,31950.2,34924.4,-0.2145,-0.184,141.9,98.5,0.46
4.04,31920.0,34680.8,-0.3401,-0.7822,141.9,98.5,0.46
4.06,31912.8,34694.2,-0.3703,-0.7495,141.9,98.5,0.46
4.08,31872.6,34636.1,-0.5376,-0.892,141.9,98.5,0.46
4.1,31927.3,34639.7,-0.31,-0.8832,141.9,98.5,0.46
4.12,31886.3,34571.7,-0.4804,-1.0504,141.9,98.5,0.46
4.14,31742.3,34453.7,-1.0795,-1.3402,141.9,98.5,0.46
4.16,31833.5,34584.3,-0.7002,-1.0192,141.9,98.5,0.46
4.18,31735.3,34591.9,-1.1089,-1.0006,141.9,98.5,0.46
4.2,31917.4,34627.2,-0.3508,-0.914,141.9,98.5,0.46
4.22,31844.5,34987.6,-0.6541,-0.0287,141.9,98.5,0.46
4.24,32144.2,35388.8,0.5927,0.9567,141.9,98.5,0.46
4.26,32244.8,35618.5,1.0113,1.5208,141.9,98.5,0.46
4.28,32399.5,35813.3,1.6551,1.9992,141.9,98.5,0.46
4.3,32367.4,35633.7,1.5216,1.5581,141.9,98.5,0.46
4.32,32187.9,35562.7,0.7746,1.3838,141.9,98.5,0.46
4.34,32108.9,35306.8,0.4458,0.7552,141.9,98.5,0.46
4.36,32103.8,35243.9,0.4247,0.6006,141.9,98.5,0.46
4.38,32084.5,35028.9,0.3442,0.0727,141.9,98.5,0.46
4.4,31953.6,35072.9,-0.2003,0.1808,141.9,98.5,0.46
4.42,32019.0,35019.3,0.0718,0.0491,141.9,98.5,0.46
4.44,31922.7,34910.8,-0.329,-0.2175,141.9,98.5,0.46
4.46,31875.9,34824.8,-0.5236,-0.4286,141.9,98.5,0.46
4.48,31904.9,34668.4,-0.4029,-0.8127,141.9,98.5,0.46
4.5,31936.4,34551.4,-0.2719,-1.1001,141.9,98.5,0.46
4.52,31798.1,34737.9,-0.8476,-0.6421,141.9,98.5,0.46
4.54,31927.3,34539.7,-0.3097,-1.1289,141.9,98.5,0.46
4.56,31723.4,34559.0,-1.1582,-1.0814,141.9,98.5,0.46
4.58,31727.7,34433.7,-1.1405,-1.3891,141.9,98.5,0.46
4.6,31878.7,34391.7,-0.5119,-1.4925,141.9,98.5,0.46
4.62,31818.6,34594.1,-0.7623,-0.9952,141.9,98.5,0.46
4.64,32092.2,34965.5,0.3766,-0.0831,141.9,98.5,0.46
4.66,32078.1,35305.6,0.3175,0.7521,141.9,98.5,0.46
4.68,32238.6,35699.9,0.9855,1.7206,141.9,98.5,0.46
4.7,32337.8,35826.3,1.3983,2.0312,141.9,98.5,0.46
4.72,32272.3,35712.7,1.1256,1.752,141.9,98.5,0.46
4.74,32234.5,35534.8,0.9687,1.3152,141.9,98.5,0.46
4.76,32094.0,35356.8,0.3838,0.878,141.9,98.5,0.46
4.78,32073.8,35163.7,0.2998,0.4037,141.9,98.5,0.46
4.8,32060.6,35149.8,0.2449,0.3695,141.9,98.5,0.46
4.82,31989.6,35184.5,-0.0505,0.4549,141.9,98.5,0.46
4.84,32059.0,35056.1,0.2382,0.1394,141.9,98.5,0.46
4.86,32001.3,34863.1,-0.002,-0.3346,141.9,98.5,0.46
4.88,31882.9,34712.8,-0.4947,-0.7038,141.9,98.5,0.46
4.9,31841.4,34677.2,-0.6673,-0.7913,141.9,98.5,0.46
4.92,31910.1,34623.9,-0.3814,-0.9222,141.9,98.5,0.46
4.94,31881.8,34653.0,-0.4993,-0.8505,141.9,98.5,0.46
4.96,31805.8,34564.4,-0.8152,-1.0681,141.9,98.5,0.46
4.98,31844.6,34636.1,-0.654,-0.8921,141.9,98.5,0.46
5.0,31787.1,34444.8,-0.8931,-1.3619,141.9,98.5,0.46
5.02,31780.3,34428.4,-0.9214,-1.4023,141.9,98.5,0.46
5.04,31935.3,34555.6,-0.2766,-1.0897,141.9,98.5,0.46
5.06,31967.3,34957.3,-0.1432,-0.1031,141.9,98.5,0.46
5.08,32089.2,35186.4,0.3637,0.4594,141.9,98.5,0.46
5.1,32208.5,35635.2,0.8605,1.5617,141.9,98.5,0.46
5.12,32312.6,35694.9,1.2934,1.7085,141.9,98.5,0.46
5.14,32304.0,35711.6,1.2578,1.7494,141.9,98.5,0.46
5.16,32162.4,35623.1,0.6684,1.532,141.9,98.5,0.46
5.18,32124.4,35421.4,0.5105,1.0365,141.9,98.5,0.46
5.2,32154.9,35239.1,0.6372,0.5888,141.9,98.5,0.46
5.22,32056.4,35045.7,0.2275,0.1138,141.9,98.5,0.46
5.24,32045.5,35076.1,0.1819,0.1885,141.9,98.5,0.46
5.26,31901.5,34972.3,-0.4174,-0.0664,141.9,98.5,0.46
5.28,31941.4,34864.9,-0.251,-0.3302,141.9,98.5,0.46
5.3,31975.0,34828.3,-0.1113,-0.4201,141.9,98.5,0.46
5.32,31985.4,34729.3,-0.0678,-0.6632,141.9,98.5,0.46
5.34,31919.7,34741.8,-0.3414,-0.6324,141.9,98.5,0.46
5.36,31898.4,34666.9,-0.43,-0.8165,141.9,98.5,0.46
5.38,31812.4,34606.4,-0.7879,-0.9651,141.9,98.5,0.46
5.4,31891.0,34427.8,-0.4608,-1.4037,141.9,98.5,0.46
5.42,31828.1,34417.3,-0.7228,-1.4296,141.9,98.5,0.46
5.44,31834.4,34418.6,-0.6965,-1.4262,141.9,98.5,0.46
5.46,31786.7,34629.5,-0.8949,-0.9082,141.9,98.5,0.46
5.48,31882.0,34861.6,-0.4983,-0.3384,141.9,98.5,0.46
5.5,32038.2,35187.0,0.1518,0.461,141.9,98.5,0.46
5.52,32222.4,35511.8,0.918,1.2588,141.9,98.5,0.46
5.54,32256.5,35789.5,1.0603,1.9407,141.9,98.5,0.46
5.56,32320.2,35691.7,1.3251,1.7006,141.9,98.5,0.46
5.58,32319.0,35644.7,1.3201,1.5851,141.9,98.5,0.46
5.6,32205.4,35348.3,0.8476,0.8571,141.9,98.5,0.46
5.62,32073.4,35256.1,0.2981,0.6306,141.9,98.5,0.46
5.64,32039.1,35131.2,0.1553,0.3238,141.9,98.5,0.46
5.66,32079.9,35083.3,0.3251,0.2062,141.9,98.5,0.46
5.68,32154.9,34930.3,0.6373,-0.1694,141.9,98.5,0.46
5.7,31897.0,34839.1,-0.4359,-0.3934,141.9,98.5,0.46
5.72,31935.7,34787.1,-0.2749,-0.5213,141.9,98.5,0.46
5.74,31892.5,34716.7,-0.4544,-0.6941,141.9,98.5,0.46
5.76,31864.2,34704.0,-0.5723,-0.7254,141.9,98.5,0.46
5.78,31855.3,34708.4,-0.6096,-0.7146,141.9,98.5,0.46
5.8,31845.6,34540.0,-0.6496,-1.1281,141.9,98.5,0.46
5.82,31819.8,34531.1,-0.7571,-1.1501,141.9,98.5,0.46
5.84,31802.3,34679.4,-0.83,-0.7859,141.9,98.5,0.46
5.86,31802.2,34503.9,-0.8304,-1.2167,141.9,98.5,0.46
5.88,31735.6,34527.7,-1.1074,-1.1584,141.9,98.5,0.46
5.9,31877.2,34761.0,-0.5185,-0.5854,141.9,98.5,0.46
5.92,32148.5,35156.2,0.6107,0.3853,141.9,98.5,0.46
5.94,32249.6,35401.5,1.0313,0.9877,141.9,98.5,0.46
5.96,32326.3,35659.2,1.3505,1.6206,141.9,98.5,0.46
5.98,32271.7,35748.7,1.1235,1.8405,141.9,98.5,0.46
6.0,32194.9,35665.7,0.8036,1.6367,141.9,98.5,0.46
6.02,32261.8,35408.3,1.0821,1.0044,141.9,98.5,0.46
6.04,32105.0,35292.9,0.4298,0.7211,141.9,98.5,0.46
6.06,32027.5,35129.3,0.107,0.3193,141.9,98.5,0.46
6.08,31986.0,35125.0,-0.0655,0.3086,141.9,98.5,0.46
6.1,31903.5,34988.9,-0.4089,-0.0257,141.9,98.5,0.46
6.12,31926.5,34972.0,-0.313,-0.0671,141.9,98.5,0.46
6.14,31954.3,34790.8,-0.1975,-0.5122,141.9,98.5,0.46
6.16,31967.3,34781.3,-0.1434,-0.5355,141.9,98.5,0.46
6.18,31850.6,34703.4,-0.629,-0.7269,141.9,98.5,0.46
6.2,31883.0,34717.7,-0.4941,-0.6916,141.9,98.5,0.46
6.22,31824.0,34682.2,-0.7398,-0.7789,141.9,98.5,0.46
6.24,31863.1,34528.1,-0.5768,-1.1574,141.9,98.5,0.46
6.26,31888.2,34476.6,-0.4727,-1.2837,141.9,98.5,0.46
6.28,31790.5,34367.2,-0.8789,-1.5526,141.9,98.5,0.46
6.3,31857.0,34402.4,-0.6022,-1.4661,141.9,98.5,0.46
6.32,31910.0,34778.2,-0.3818,-0.5431,141.9,98.5,0.46
6.34,31960.4,35086.7,-0.1721,0.2146,141.9,98.5,0.46
6.36,32167.8,35472.4,0.6911,1.1619,141.9,98.5,0.46
6.38,32382.7,35651.0,1.5853,1.6005,141.9,98.5,0.46
6.4,32210.0,35684.3,0.8666,1.6823,141.9,98.5,0.46
6.42,32252.3,35648.4,1.0426,1.5941,141.9,98.5,0.46
6.44,32229.4,35535.6,0.9472,1.317,141.9,98.5,0.46
6.46,32074.1,35330.3,0.3009,0.8129,141.9,98.5,0.46
6.48,32079.4,35134.6,0.3233,0.3323,141.9,98.5,0.46
6.5,32026.1,35100.8,0.1014,0.2493,141.9,98.5,0.46
6.52,31960.3,35152.5,-0.1727,0.3762,141.9,98.5,0.46
6.54,32008.2,34996.3,0.0269,-0.0074,141.9,98.5,0.46
6.56,31973.0,34869.6,-0.1196,-0.3187,141.9,98.5,0.46
6.58,31869.4,34683.2,-0.5506,-0.7763,141.9,98.5,0.46
6.6,31818.1,34656.5,-0.7643,-0.8421,141.9,98.5,0.46
6.62,31848.3,34664.5,-0.6386,-0.8223,141.9,98.5,0.46
6.64,31797.0,34656.3,-0.8521,-0.8425,141.9,98.5,0.46
6.66,31799.1,34574.5,-0.8431,-1.0435,141.9,98.5,0.46
6.68,31759.0,34599.8,-1.0102,-0.9811,141.9,98.5,0.46
6.7,31766.1,34405.4,-0.9806,-1.4587,141.9,98.5,0.46
6.72,31706.1,34474.9,-1.2303,-1.288,141.9,98.5,0.46
6.74,31870.5,34684.9,-0.5461,-0.7722,141.9,98.5,0.46
6.76,31936.1,34946.1,-0.2732,-0.1307,141.9,98.5,0.46
6.78,32251.3,35468.4,1.0384,1.152,141.9,98.5,0.46
6.8,32232.6,35751.9,0.9604,1.8484,141.9,98.5,0.46
6.82,32371.1,35736.0,1.537,1.8094,141.9,98.5,0.46
6.84,32269.5,35704.9,1.1141,1.733,141.9,98.5,0.46
6.86,32245.8,35431.4,1.0154,1.0611,141.9,98.5,0.46
6.88,32067.9,35315.3,0.2752,0.7762,141.9,98.5,0.46
6.9,32152.1,35223.2,0.6258,0.5498,141.9,98.5,0.46
6.92,32079.9,35082.4,0.3252,0.2039,141.9,98.5,0.46
6.94,32030.6,35149.2,0.1201,0.3681,141.9,98.5,0.46
6.96,31983.8,34978.1,-0.0747,-0.052,141.9,98.5,0.46
6.98,31979.3,34860.3,-0.0935,-0.3414,141.9,98.5,0.46
7.0,31837.1,34883.3,-0.685,-0.285,141.9,98.5,0.46
7.02,31903.1,34755.5,-0.4105,-0.5989,141.9,98.5,0.46
7.04,31825.8,34668.6,-0.732,-0.8123,141.9,98.5,0.46
7.06,31884.5,34714.7,-0.4878,-0.6989,141.9,98.5,0.46
7.08,31892.1,34685.2,-0.4562,-0.7716,141.9,98.5,0.46
7.1,31795.5,34581.8,-0.8584,-1.0255,141.9,98.5,0.46
7.12,31784.5,34419.3,-0.9038,-1.4247,141.9,98.5,0.46
7.14,31807.4,34494.3,-0.8086,-1.2404,141.9,98.5,0.46
7.16,31800.3,34618.6,-0.8382,-0.935,141.9,98.5,0.46
7.18,31997.2,34925.1,-0.0188,-0.1823,141.9,98.5,0.46
7.2,32164.9,35330.7,0.6787,0.8139,141.9,98.5,0.46
7.22,32253.8,35679.2,1.0489,1.6697,141.9,98.5,0.46
7.24,32341.3,35749.3,1.413,1.8419,141.9,98.5,0.46
7.26,32231.2,35631.5,0.9549,1.5526,141.9,98.5,0.46
7.28,32145.9,35475.0,0.5999,1.1682,141.9,98.5,0.46
7.3,32113.1,35359.0,0.4632,0.8833,141.9,98.5,0.46
7.32,32043.3,35269.5,0.1728,0.6636,141.9,98.5,0.46
7.34,32001.4,35008.6,-0.0016,0.0229,141.9,98.5,0.46
7.36,31979.0,35043.7,-0.0946,0.109,141.9,98.5,0.46
7.38,32036.4,35010.4,0.1442,0.0272,141.9,98.5,0.46
7.4,31909.3,34905.0,-0.3847,-0.2315,141.9,98.5,0.46
7.42,31880.1,34758.1,-0.5063,-0.5926,141.9,98.5,0.46
7.44,31813.3,34758.0,-0.7841,-0.5926,141.9,98.5,0.46
7.46,31943.9,34621.3,-0.2407,-0.9284,141.9,98.5,0.46
7.48,31845.7,34562.1,-0.6492,-1.0737,141.9,98.5,0.46
7.5,31906.7,34570.4,-0.3956,-1.0534,141.9,98.5,0.46
7.52,31754.2,34551.0,-1.0301,-1.1011,141.9,98.5,0.46
7.54,31798.2,34448.6,-0.8472,-1.3526,141.9,98.5,0.46
7.56,31726.1,34357.7,-1.1469,-1.5758,141.9,98.5,0.46
7.58,31869.3,34535.5,-0.5511,-1.1392,141.9,98.5,0.46
7.6,31989.0,34976.8,-0.0532,-0.0553,141.9,98.5,0.46
7.62,32077.5,35365.8,0.3154,0.9,141.9,98.5,0.46
7.64,32315.9,35619.8,1.3071,1.5238,141.9,98.5,0.46
7.66,32271.9,35680.8,1.1243,1.6737,141.9,98.5,0.46
7.68,32258.4,35693.3,1.0678,1.7044,141.9,98.5,0.46
7.7,32185.8,35545.6,0.7657,1.3417,141.9,98.5,0.46
7.72,32157.3,35341.3,0.6473,0.84,141.9,98.5,0.46
7.74,32001.7,35104.0,-0.0002,0.2571,141.9,98.5,0.46
7.76,31950.3,35013.0,-0.2139,0.0335,141.9,98.5,0.46
7.78,32135.5,35090.5,0.5567,0.2239,141.9,98.5,0.46
7.8,32103.3,34994.0,0.4224,-0.013,141.9,98.5,0.46
7.82,31979.5,34943.1,-0.0924,-0.1381,141.9,98.5,0.46
7.84,31914.4,34773.2,-0.3637,-0.5554,141.9,98.5,0.46
7.86,31997.3,34751.8,-0.0186,-0.6079,141.9,98.5,0.46
7.88,31879.9,34744.9,-0.507,-0.6249,141.9,98.5,0.46
7.9,31862.5,34608.7,-0.5792,-0.9593,141.9,98.5,0.46
7.92,31896.1,34757.4,-0.4398,-0.5941,141.9,98.5,0.46
7.94,31902.0,34658.7,-0.4151,-0.8366,141.9,98.5,0.46
7.96,31800.6,34486.3,-0.8372,-1.2599,141.9,98.5,0.46
7.98,31762.9,34409.5,-0.994,-1.4486,141.9,98.5,0.46
8.0,31793.0,34542.3,-0.8688,-1.1224,141.9,98.5,0.46
8.02,32049.1,34864.8,0.1972,-0.3304,141.9,98.5,0.46
8.04,32086.3,35189.9,0.3516,0.4682,141.9,98.5,0.46
8.06,32167.3,35537.4,0.689,1.3215,141.9,98.5,0.46
8.08,32399.6,35768.1,1.6555,1.8881,141.9,98.5,0.46
8.1,32325.2,35766.2,1.3461,1.8836,141.9,98.5,0.46
8.12,32227.8,35655.0,0.9408,1.6103,141.9,98.5,0.46
8.14,32037.7,35513.7,0.1496,1.2634,141.9,98.5,0.46
8.16,32102.0,35205.6,0.4171,0.5065,141.9,98.5,0.46
8.18,32004.3,35121.8,0.0107,0.3009,141.9,98.5,0.46
8.2,32076.4,35097.2,0.3107,0.2403,141.9,98.5,0.46
8.22,32043.9,35023.9,0.1756,0.0604,141.9,98.5,0.46
8.24,32044.2,34932.0,0.1767,-0.1653,141.9,98.5,0.46
8.26,31992.2,34832.9,-0.0396,-0.4087,141.9,98.5,0.46
8.28,31934.5,34770.5,-0.2799,-0.5619,141.9,98.5,0.46
8.3,31900.7,34676.2,-0.4204,-0.7935,141.9,98.5,0.46
8.32,31850.9,34758.8,-0.6276,-0.5908,141.9,98.5,0.46
8.34,31755.3,34751.7,-1.0254,-0.6081,141.9,98.5,0.46
8.36,31850.5,34548.2,-0.6292,-1.1079,141.9,98.5,0.46
8.38,31772.0,34462.6,-0.9562,-1.3182,141.9,98.5,0.46
8.4,31792.1,34384.7,-0.8724,-1.5096,141.9,98.5,0.46
8.42,31799.2,34573.7,-0.8427,-1.0453,141.9,98.5,0.46
8.44,31846.9,34794.0,-0.6446,-0.5043,141.9,98.5,0.46
8.46,32152.1,35198.7,0.6258,0.4898,141.9,98.5,0.46
8.48,32159.9,35508.0,0.658,1.2494,141.9,98.5,0.46
8.5,32326.5,35738.7,1.3513,1.8159,141.9,98.5,0.46
8.52,32326.9,35778.7,1.3528,1.9141,141.9,98.5,0.46
8.54,32242.0,35617.4,0.9998,1.518,141.9,98.5,0.46
8.56,32156.1,35380.2,0.6422,0.9355,141.9,98.5,0.46
8.58,32131.3,35163.7,0.5391,0.4038,141.9,98.5,0.46
8.6,32034.1,35092.0,0.1345,0.2276,141.9,98.5,0.46
8.62,31985.8,35017.4,-0.0662,0.0445,141.9,98.5,0.46
8.64,32096.4,34999.1,0.3937,-0.0006,141.9,98.5,0.46
8.66,31975.3,34954.4,-0.11,-0.1104,141.9,98.5,0.46
8.68,31917.9,34871.6,-0.3488,-0.3138,141.9,98.5,0.46
8.7,31870.3,34765.4,-0.5472,-0.5746,141.9,98.5,0.46
8.72,31691.0,34699.8,-1.293,-0.7356,141.9,98.5,0.46
8.74,31870.1,34731.6,-0.5479,-0.6575,141.9,98.5,0.46
8.76,31867.1,34601.7,-0.5603,-0.9766,141.9,98.5,0.46
8.78,31894.2,34565.9,-0.4477,-1.0646,141.9,98.5,0.46
8.8,31727.8,34423.4,-1.1401,-1.4144,141.9,98.5,0.46
8.82,31888.3,34442.2,-0.472,-1.3683,141.9,98.5,0.46
8.84,31764.5,34486.9,-0.9871,-1.2586,141.9,98.5,0.46
8.86,31929.0,34820.3,-0.3029,-0.4398,141.9,98.5,0.46
8.88,31995.6,35164.7,-0.0254,0.4061,141.9,98.5,0.46
8.9,32226.9,35575.6,0.9369,1.4154,141.9,98.5,0.46
8.92,32234.6,35723.5,0.9691,1.7785,141.9,98.5,0.46
8.94,32274.0,35716.6,1.1329,1.7616,141.9,98.5,0.46
8.96,32238.3,35666.7,0.9842,1.6392,141.9,98.5,0.46
8.98,32165.7,35423.0,0.6823,1.0406,141.9,98.5,0.46
9.0,32133.8,35262.0,0.5495,0.6451,141.9,98.5,0.46
9.02,32118.8,35143.8,0.4872,0.3548,141.9,98.5,0.46
9.04,32000.1,35077.1,-0.0068,0.1911,141.9,98.5,0.46
9.06,32063.3,35021.9,0.2561,0.0555,141.9,98.5,0.46
9.08,32023.0,34936.2,0.0884,-0.1551,141.9,98.5,0.46
9.1,32034.8,34916.5,0.1377,-0.2035,141.9,98.5,0.46
9.12,31869.2,34657.7,-0.5514,-0.8391,141.9,98.5,0.46
9.14,31921.6,34672.2,-0.3333,-0.8035,141.9,98.5,0.46
9.16,31833.8,34590.5,-0.6987,-1.0041,141.9,98.5,0.46
9.18,31893.2,34651.1,-0.4516,-0.8553,141.9,98.5,0.46
9.2,31895.3,34570.0,-0.4429,-1.0544,141.9,98.5,0.46
9.22,31788.8,34483.3,-0.886,-1.2673,141.9,98.5,0.46
9.24,31755.6,34427.6,-1.0245,-1.4042,141.9,98.5,0.46
9.26,31786.9,34561.0,-0.8941,-1.0765,141.9,98.5,0.46
9.28,31854.6,34728.7,-0.6125,-0.6646,141.9,98.5,0.46
9.3,32073.1,35114.2,0.297,0.2821,141.9,98.5,0.46
9.32,32101.9,35424.4,0.4169,1.0441,141.9,98.5,0.46
9.34,32289.2,35731.1,1.1963,1.7973,141.9,98.5,0.46
9.36,32312.0,35710.3,1.291,1.7462,141.9,98.5,0.46
9.38,32259.9,35537.2,1.0742,1.3211,141.9,98.5,0.46
9.4,32219.8,35387.5,0.9072,0.9533,141.9,98.5,0.46
9.42,32133.7,35307.6,0.549,0.7573,141.9,98.5,0.46
9.44,32006.3,35188.7,0.0191,0.4651,141.9,98.5,0.46
9.46,32145.4,35100.5,0.5976,0.2486,141.9,98.5,0.46
9.48,32006.2,35138.0,0.0183,0.3406,141.9,98.5,0.46
9.5,32017.2,34975.6,0.0642,-0.0582,141.9,98.5,0.46
9.52,31954.5,34884.8,-0.1964,-0.2812,141.9,98.5,0.46
9.54,31964.7,34809.9,-0.1543,-0.4653,141.9,98.5,0.46
9.56,31952.2,34857.7,-0.2063,-0.3478,141.9,98.5,0.46
9.58,31788.2,34644.2,-0.8888,-0.8722,141.9,98.5,0.46
9.6,31735.6,34702.6,-1.1073,-0.7288,141.9,98.5,0.46
9.62,31803.0,34577.0,-0.8269,-1.0373,141.9,98.5,0.46
9.64,31819.1,34549.2,-0.7601,-1.1055,141.9,98.5,0.46
9.66,31806.2,34487.4,-0.8136,-1.2573,141.9,98.5,0.46
9.68,31778.7,34458.6,-0.9283,-1.328,141.9,98.5,0.46
9.7,31936.6,34591.9,-0.2712,-1.0006,141.9,98.5,0.46
9.72,31980.2,35021.0,-0.0898,0.0532,141.9,98.5,0.46
9.74,32197.8,35334.1,0.8156,0.8223,141.9,98.5,0.46
9.76,32207.2,35642.0,0.855,1.5784,141.9,98.5,0.46
9.78,32246.5,35757.9,1.0186,1.8631,141.9,98.5,0.46
9.8,32310.0,35657.1,1.2827,1.6155,141.9,98.5,0.46
9.82,32150.4,35459.9,0.6183,1.1312,141.9,98.5,0.46
9.84,32097.5,35277.6,0.3984,0.6836,141.9,98.5,0.46
9.86,32056.4,35195.8,0.2272,0.4827,141.9,98.5,0.46
9.88,32083.9,35083.8,0.3418,0.2076,141.9,98.5,0.46
9.9,32031.9,35058.0,0.1254,0.144,141.9,98.5,0.46
9.92,32021.6,34927.6,0.0826,-0.1762,141.9,98.5,0.46
9.94,31943.3,34897.3,-0.2432,-0.2506,141.9,98.5,0.46
9.96,31909.1,34797.2,-0.3854,-0.4964,141.9,98.5,0.46
9.98,31885.6,34691.1,-0.4833,-0.7569,141.9,98.5,0.46
10.0,31844.0,34620.5,-0.6563,-0.9304,141.9,98.5,0.46
10.02,31895.9,34652.9,-0.4405,-0.8509,141.9,98.5,0.46
10.04,31826.0,34640.9,-0.7315,-0.8803,141.9,98.5,0.46
10.06,31815.4,34587.3,-0.7755,-1.012,141.9,98.5,0.46
10.08,31764.5,34450.7,-0.9874,-1.3475,141.9,98.5,0.46
10.1,31777.1,34453.7,-0.9349,-1.34,141.9,98.5,0.46
10.12,31820.9,34766.6,-0.7524,-0.5716,141.9,98.5,0.46
10.14,31927.3,34986.1,-0.3099,-0.0325,141.9,98.5,0.46
10.16,32173.1,35332.4,0.7132,0.8182,141.9,98.5,0.46
10.18,32202.7,35604.7,0.8362,1.487,141.9,98.5,0.46
10.2,32300.8,35749.4,1.2442,1.8422,141.9,98.5,0.46
10.22,32299.7,35647.0,1.2398,1.5907,141.9,98.5,0.46
10.24,32287.9,35544.2,1.1905,1.3382,141.9,98.5,0.46
10.26,32086.8,35402.1,0.3538,0.9893,141.9,98.5,0.46
10.28,32028.2,35163.3,0.1102,0.4027,141.9,98.5,0.46
10.3,31971.9,35154.1,-0.1242,0.3801,141.9,98.5,0.46
10.32,31992.8,35094.1,-0.0372,0.2328,141.9,98.5,0.46
10.34,32040.2,35036.2,0.1602,0.0906,141.9,98.5,0.46
10.36,32077.8,34966.5,0.3166,-0.0806,141.9,98.5,0.46
10.38,31847.6,34772.0,-0.6413,-0.5583,141.9,98.5,0.46
10.4,31892.2,34651.1,-0.4557,-0.8554,141.9,98.5,0.46
10.42,31853.9,34675.9,-0.6152,-0.7944,141.9,98.5,0.46
10.44,31879.7,34611.8,-0.5079,-0.9518,141.9,98.5,0.46
10.46,31850.5,34644.7,-0.6292,-0.871,141.9,98.5,0.46
10.48,31840.1,34624.4,-0.6727,-0.9209,141.9,98.5,0.46
10.5,31792.1,34388.2,-0.8725,-1.501,141.9,98.5,0.46
10.52,31752.4,34508.8,-1.0375,-1.2047,141.9,98.5,0.46
10.54,31835.5,34593.9,-0.6918,-0.9957,141.9,98.5,0.46
10.56,31954.5,34842.0,-0.1967,-0.3865,141.9,98.5,0.46
10.58,32085.0,35300.3,0.3466,0.7393,141.9,98.5,0.46
10.6,32323.8,35663.7,1.3399,1.6318,141.9,98.5,0.46
10.62,32245.7,35897.9,1.0151,2.2069,141.9,98.5,0.46
10.64,32265.8,35679.7,1.0988,1.6711,141.9,98.5,0.46
10.66,32238.0,35590.4,0.9831,1.4517,141.9,98.5,0.46
10.68,32154.3,35413.9,0.6348,1.0183,141.9,98.5,0.46
10.7,32103.9,35207.5,0.4252,0.5113,141.9,98.5,0.46
10.72,32064.3,35078.4,0.2601,0.1943,141.9,98.5,0.46
10.74,32003.5,34997.9,0.0073,-0.0036,141.9,98.5,0.46
10.76,31982.9,35054.3,-0.0786,0.1351,141.9,98.5,0.46
10.78,31918.5,34814.9,-0.3466,-0.4531,141.9,98.5,0.46
10.8,31864.3,34846.7,-0.5718,-0.3749,141.9,98.5,0.46
10.82,31849.0,34706.6,-0.6358,-0.719,141.9,98.5,0.46
10.84,31801.4,34650.0,-0.8336,-0.8581,141.9,98.5,0.46
10.86,31859.7,34647.9,-0.5913,-0.8632,141.9,98.5,0.46
10.88,31802.7,34544.8,-0.8283,-1.1162,141.9,98.5,0.46
10.9,31755.5,34592.1,-1.0247,-1.0002,141.9,98.5,0.46
10.92,31692.1,34442.8,-1.2884,-1.3668,141.9,98.5,0.46
10.94,31792.0,34477.2,-0.8727,-1.2823,141.9,98.5,0.46
10.96,31730.4,34517.7,-1.1292,-1.183,141.9,98.5,0.46
10.98,31885.9,34925.0,-0.4822,-0.1826,141.9,98.5,0.46
11.0,32138.2,35124.1,0.568,0.3064,141.9,98.5,0.46
11.02,32253.8,35577.0,1.0488,1.4187,141.9,98.5,0.46
11.04,32375.2,35879.9,1.5541,2.1628,141.9,98.5,0.46
11.06,32309.6,35707.7,1.2808,1.7398,141.9,98.5,0.46
11.08,32219.9,35600.4,0.9078,1.4762,141.9,98.5,0.46
11.1,32115.6,35417.1,0.4739,1.0261,141.9,98.5,0.46
11.12,32137.9,35234.8,0.5666,0.5783,141.9,98.5,0.46
11.14,32083.5,35123.9,0.3402,0.306,141.9,98.5,0.46
11.16,32063.4,35127.3,0.2564,0.3142,141.9,98.5,0.46
11.18,31917.3,35058.1,-0.3513,0.1443,141.9,98.5,0.46
11.2,31949.0,34873.7,-0.2195,-0.3084,141.9,98.5,0.46
11.22,32018.8,34845.8,0.0708,-0.3772,141.9,98.5,0.46
11.24,31911.1,34618.0,-0.3771,-0.9365,141.9,98.5,0.46
11.26,31802.8,34682.5,-0.8281,-0.7781,141.9,98.5,0.46
11.28,31893.4,34745.5,-0.4509,-0.6235,141.9,98.5,0.46
11.3,31850.9,34637.6,-0.6275,-0.8884,141.9,98.5,0.46
11.32,31801.9,34566.0,-0.8317,-1.0643,141.9,98.5,0.46
11.34,31770.7,34436.0,-0.9616,-1.3836,141.9,98.5,0.46
11.36,31806.2,34518.3,-0.8139,-1.1813,141.9,98.5,0.46
11.38,31834.8,34528.0,-0.6945,-1.1575,141.9,98.5,0.46
11.4,31896.0,34926.5,-0.4401,-0.1789,141.9,98.5,0.46
11.42,32042.1,35130.6,0.168,0.3225,141.9,98.5,0.46
11.44,32194.8,35503.5,0.8034,1.2382,141.9,98.5,0.46
11.46,32258.3,35759.5,1.0677,1.867,141.9,98.5,0.46
11.48,32409.5,35777.7,1.6967,1.9118,141.9,98.5,0.46
11.5,32187.9,35614.7,0.7746,1.5115,141.9,98.5,0.46
11.52,32198.0,35475.6,0.8166,1.1698,141.9,98.5,0.46
11.54,32162.6,35187.5,0.6692,0.4622,141.9,98.5,0.46
11.56,32099.1,35097.5,0.405,0.2412,141.9,98.5,0.46
11.58,32038.6,35118.4,0.1535,0.2925,141.9,98.5,0.46
11.6,32037.3,35011.3,0.148,0.0293,141.9,98.5,0.46
11.62,31905.9,34939.4,-0.3987,-0.1472,141.9,98.5,0.46
11.64,31946.6,34821.1,-0.2295,-0.4377,141.9,98.5,0.46
11.66,31926.2,34623.5,-0.3146,-0.9231,141.9,98.5,0.46
11.68,31843.8,34586.4,-0.6572,-1.0141,141.9,98.5,0.46
11.7,31922.7,34683.0,-0.329,-0.7769,141.9,98.5,0.46
11.72,31792.7,34571.0,-0.87,-1.052,141.9,98.5,0.46
11.74,31805.0,34588.5,-0.8188,-1.0089,141.9,98.5,0.46
11.76,31874.1,34512.7,-0.5311,-1.1951,141.9,98.5,0.46
11.78,31786.5,34453.5,-0.8956,-1.3405,141.9,98.5,0.46
11.8,31800.9,34507.6,-0.8356,-1.2078,141.9,98.5,0.46
11.82,31862.5,34796.5,-0.5795,-0.4981,141.9,98.5,0.46
11.84,32114.3,35090.0,0.4682,0.2226,141.9,98.5,0.46
11.86,32181.7,35429.0,0.749,1.0553,141.9,98.5,0.46
11.88,32295.4,35660.2,1.2221,1.6231,141.9,98.5,0.46
11.9,32272.0,35770.1,1.1247,1.8931,141.9,98.5,0.46
11.92,32290.1,35667.9,1.1998,1.642,141.9,98.5,0.46
11.94,32157.8,35467.8,0.6495,1.1506,141.9,98.5,0.46
11.96,32053.2,35306.6,0.2141,0.7547,141.9,98.5,0.46
11.98,32103.1,35218.7,0.4218,0.5388,141.9,98.5,0.46
12.0,32065.8,35080.9,0.2665,0.2004,141.9,98.5,0.46
12.02,32043.9,35158.1,0.1754,0.39,141.9,98.5,0.46
12.04,32048.9,34927.1,0.196,-0.1773,141.9,98.5,0.46
12.06,31853.5,34872.0,-0.6168,-0.3127,141.9,98.5,0.46
12.08,31882.4,34761.7,-0.4967,-0.5836,141.9,98.5,0.46
12.1,31800.9,34701.3,-0.836,-0.7321,141.9,98.5,0.46
12.12,31849.1,34644.0,-0.6351,-0.8727,141.9,98.5,0.46
12.14,31833.5,34645.8,-0.7,-0.8683,141.9,98.5,0.46
12.16,31927.8,34676.3,-0.3078,-0.7933,141.9,98.5,0.46
12.18,31787.2,34547.9,-0.8927,-1.1088,141.9,98.5,0.46
12.2,31854.1,34444.4,-0.6145,-1.3629,141.9,98.5,0.46
12.22,31839.9,34499.0,-0.6736,-1.2288,141.9,98.5,0.46
12.24,31932.3,34744.7,-0.289,-0.6254,141.9,98.5,0.46
12.26,31973.8,35067.1,-0.1162,0.1663,141.9,98.5,0.46
12.28,32174.8,35344.4,0.7201,0.8474,141.9,98.5,0.46
12.3,32295.6,35656.3,1.2228,1.6136,141.9,98.5,0.46
12.32,32314.5,35723.9,1.3013,1.7796,141.9,98.5,0.46
12.34,32254.6,35596.5,1.0522,1.4667,141.9,98.5,0.46
12.36,32184.8,35433.2,0.7618,1.0657,141.9,98.5,0.46
12.38,32185.2,35322.0,0.7632,0.7926,141.9,98.5,0.46
12.4,31975.5,35271.6,-0.1094,0.6688,141.9,98.5,0.46
12.42,32014.4,35014.1,0.0525,0.0363,141.9,98.5,0.46
12.44,32036.4,35054.2,0.1442,0.1347,141.9,98.5,0.46
12.46,32022.8,35044.3,0.0877,0.1105,141.9,98.5,0.46
12.48,31947.6,34923.8,-0.2251,-0.1855,141.9,98.5,0.46
12.5,31896.1,34784.1,-0.4397,-0.5287,141.9,98.5,0.46
12.52,31926.4,34726.0,-0.3137,-0.6713,141.9,98.5,0.46
12.54,31806.9,34668.3,-0.8109,-0.8129,141.9,98.5,0.46
12.56,31862.3,34661.3,-0.5802,-0.8301,141.9,98.5,0.46
12.58,31831.9,34608.5,-0.7067,-0.9599,141.9,98.5,0.46
12.6,31739.6,34501.8,-1.0908,-1.2219,141.9,98.5,0.46
12.62,31710.8,34401.7,-1.2106,-1.4679,141.9,98.5,0.46
12.64,31792.3,34542.1,-0.8717,-1.123,141.9,98.5,0.46
12.66,31901.9,34680.3,-0.4153,-0.7836,141.9,98.5,0.46
12.68,31977.9,35031.5,-0.0994,0.079,141.9,98.5,0.46
12.7,32120.8,35308.5,0.4955,0.7595,141.9,98.5,0.46
12.72,32230.9,35632.0,0.9536,1.5538,141.9,98.5,0.46
12.74,32278.8,35777.7,1.153,1.9117,141.9,98.5,0.46
12.76,32289.8,35633.6,1.1985,1.5578,141.9,98.5,0.46
12.78,32200.3,35495.4,0.8264,1.2183,141.9,98.5,0.46
12.8,32173.0,35299.3,0.7126,0.7367,141.9,98.5,0.46
12.82,32060.6,35163.9,0.245,0.4042,141.9,98.5,0.46
12.84,32131.4,35125.5,0.5397,0.3099,141.9,98.5,0.46
12.86,32015.0,35134.3,0.0553,0.3316,141.9,98.5,0.46
12.88,31882.6,34962.7,-0.4957,-0.0899,141.9,98.5,0.46
12.9,31968.1,34913.2,-0.1401,-0.2115,141.9,98.5,0.46
12.92,31973.1,34676.3,-0.1192,-0.7933,141.9,98.5,0.46
12.94,31937.1,34740.1,-0.2691,-0.6367,141.9,98.5,0.46
12.96,31869.4,34669.1,-0.5506,-0.8111,141.9,98.5,0.46
12.98,31791.4,34647.1,-0.8753,-0.865,141.9,98.5,0.46
13.0,31866.5,34582.8,-0.563,-1.0229,141.9,98.5,0.46
13.02,31880.4,34501.8,-0.5051,-1.2219,141.9,98.5,0.46
13.04,31780.7,34458.1,-0.9197,-1.3293,141.9,98.5,0.46
13.06,31748.3,34488.5,-1.0547,-1.2547,141.9,98.5,0.46
13.08,31853.0,34678.7,-0.6189,-0.7874,141.9,98.5,0.46
13.1,32029.9,34936.2,0.117,-0.155,141.9,98.5,0.46
13.12,32063.4,35239.7,0.2564,0.5903,141.9,98.5,0.46
13.14,32193.5,35605.3,0.7977,1.4884,141.9,98.5,0.46
13.16,32267.4,35724.3,1.1056,1.7807,141.9,98.5,0.46
13.18,32279.5,35665.1,1.1557,1.6353,141.9,98.5,0.46
13.2,32264.7,35539.9,1.0942,1.3277,141.9,98.5,0.46
13.22,32144.2,35315.0,0.5929,0.7753,141.9,98.5,0.46
13.24,32204.9,35233.8,0.8455,0.576,141.9,98.5,0.46
13.26,32037.0,35114.2,0.1466,0.2822,141.9,98.5,0.46
13.28,31971.6,35136.3,-0.1254,0.3365,141.9,98.5,0.46
13.3,31976.2,35081.1,-0.1065,0.2008,141.9,98.5,0.46
13.32,31952.6,34898.8,-0.2043,-0.247,141.9,98.5,0.46
13.34,31824.7,34739.0,-0.7369,-0.6393,141.9,98.5,0.46
13.36,31935.4,34598.0,-0.2762,-0.9857,141.9,98.5,0.46
13.38,31900.4,34769.9,-0.4216,-0.5634,141.9,98.5,0.46
13.4,31884.9,34638.6,-0.4864,-0.8859,141.9,98.5,0.46
13.42,31819.7,34557.8,-0.7574,-1.0844,141.9,98.5,0.46
13.44,31849.6,34533.0,-0.633,-1.1452,141.9,98.5,0.46
13.46,31823.9,34489.0,-0.74,-1.2534,141.9,98.5,0.46
13.48,31751.4,34499.8,-1.0417,-1.2269,141.9,98.5,0.46
13.5,31873.3,34593.1,-0.5346,-0.9978,141.9,98.5,0.46
13.52,32041.2,34877.4,0.1641,-0.2995,141.9,98.5,0.46
13.54,32247.7,35185.6,1.0236,0.4575,141.9,98.5,0.46
13.56,32328.2,35556.9,1.3583,1.3694,141.9,98.5,0.46
13.58,32257.2,35764.6,1.063,1.8795,141.9,98.5,0.46
13.6,32386.6,35659.7,1.6014,1.6219,141.9,98.5,0.46
13.62,32236.6,35588.4,0.9773,1.4468,141.9,98.5,0.46
13.64,32138.5,35316.1,0.5691,0.778,141.9,98.5,0.46
13.66,32137.8,35163.8,0.5661,0.4041,141.9,98.5,0.46
13.68,32004.3,35196.4,0.0106,0.4841,141.9,98.5,0.46
13.7,31991.1,35077.1,-0.0443,0.1909,141.9,98.5,0.46
13.72,31947.0,35043.8,-0.2276,0.1092,141.9,98.5,0.46
13.74,31977.6,34918.5,-0.1004,-0.1985,141.9,98.5,0.46
13.76,31985.0,34820.5,-0.0696,-0.4392,141.9,98.5,0.46
13.78,31866.5,34729.2,-0.5627,-0.6634,141.9,98.5,0.46
13.8,31834.7,34608.1,-0.6952,-0.9609,141.9,98.5,0.46
13.82,31797.1,34617.4,-0.8518,-0.9381,141.9,98.5,0.46
13.84,31869.2,34688.4,-0.5517,-0.7636,141.9,98.5,0.46
13.86,31732.1,34474.4,-1.1222,-1.2893,141.9,98.5,0.46
13.88,31746.9,34524.5,-1.0604,-1.1662,141.9,98.5,0.46
13.9,31821.2,34518.1,-0.7514,-1.1819,141.9,98.5,0.46
13.92,31837.9,34552.0,-0.6819,-1.0987,141.9,98.5,0.46
13.94,31828.2,34840.3,-0.7223,-0.3907,141.9,98.5,0.46
13.96,32071.3,35215.1,0.2896,0.53,141.9,98.5,0.46
13.98,32301.3,35539.5,1.2465,1.3268,141.9,98.5,0.46
14.0,32342.9,35665.4,1.4197,1.636,141.9,98.5,0.46
14.02,32271.1,35642.5,1.121,1.5797,141.9,98.5,0.46
14.04,32317.8,35458.3,1.3152,1.1274,141.9,98.5,0.46
14.06,32174.3,35450.9,0.7178,1.109,141.9,98.5,0.46
14.08,32146.8,35294.4,0.6034,0.7246,141.9,98.5,0.46
14.1,32109.5,35136.2,0.4484,0.3363,141.9,98.5,0.46
14.12,32080.2,35095.8,0.3264,0.2369,141.9,98.5,0.46
14.14,32015.7,35049.4,0.058,0.123,141.9,98.5,0.46
14.16,31979.4,34877.0,-0.0929,-0.3004,141.9,98.5,0.46
14.18,31927.4,34851.2,-0.3095,-0.3638,141.9,98.5,0.46
14.2,31927.3,34723.9,-0.31,-0.6765,141.9,98.5,0.46
14.22,31911.4,34672.9,-0.376,-0.8017,141.9,98.5,0.46
14.24,31873.0,34707.4,-0.5357,-0.7171,141.9,98.5,0.46
14.26,31812.0,34706.8,-0.7895,-0.7184,141.9,98.5,0.46
14.28,31805.8,34582.2,-0.8153,-1.0244,141.9,98.5,0.46
14.3,31784.6,34471.3,-0.9038,-1.2969,141.9,98.5,0.46
14.32,31806.8,34469.6,-0.8114,-1.301,141.9,98.5,0.46
14.34,31837.4,34629.5,-0.684,-0.9084,141.9,98.5,0.46
14.36,31818.6,34823.0,-0.7621,-0.4331,141.9,98.5,0.46
14.38,32127.3,35177.2,0.5223,0.4369,141.9,98.5,0.46
14.4,32210.9,35467.7,0.8703,1.1503,141.9,98.5,0.46
14.42,32328.9,35743.2,1.3613,1.8271,141.9,98.5,0.46
14.44,32328.0,35742.9,1.3576,1.8263,141.9,98.5,0.46
14.46,32216.1,35606.3,0.892,1.4908,141.9,98.5,0.46
14.48,32251.5,35430.5,1.0391,1.0591,141.9,98.5,0.46
14.5,32175.9,35242.5,0.7245,0.5971,141.9,98.5,0.46
14.52,32131.3,35201.1,0.5392,0.4956,141.9,98.5,0.46
14.54,32184.5,35116.3,0.7604,0.2873,141.9,98.5,0.46
14.56,32129.3,35079.9,0.5306,0.1978,141.9,98.5,0.46
14.58,31977.9,34896.4,-0.0992,-0.2528,141.9,98.5,0.46
14.6,31885.9,34766.0,-0.4822,-0.573,141.9,98.5,0.46
14.62,31885.5,34693.4,-0.4838,-0.7513,141.9,98.5,0.46
14.64,31824.0,34679.9,-0.7395,-0.7846,141.9,98.5,0.46
14.66,31798.1,34635.0,-0.8476,-0.8949,141.9,98.5,0.46
14.68,31887.5,34588.0,-0.4753,-1.0101,141.9,98.5,0.46
14.7,31819.1,34668.6,-0.7601,-0.8123,141.9,98.5,0.46
14.72,31708.4,34541.5,-1.2209,-1.1245,141.9,98.5,0.46
14.74,31809.6,34373.6,-0.7994,-1.5368,141.9,98.5,0.46
14.76,31789.3,34563.0,-0.8842,-1.0716,141.9,98.5,0.46
14.78,31872.9,34712.8,-0.5361,-0.7037,141.9,98.5,0.46
14.8,32031.6,35026.8,0.1242,0.0675,141.9,98.5,0.46
14.82,32198.2,35435.1,0.8175,1.0702,141.9,98.5,0.46
14.84,32360.2,35682.0,1.4916,1.6768,141.9,98.5,0.46
14.86,32300.8,35737.2,1.2443,1.8123,141.9,98.5,0.46
14.88,32293.8,35678.2,1.2154,1.6672,141.9,98.5,0.46
14.9,32122.1,35465.7,0.5008,1.1454,141.9,98.5,0.46
14.92,32157.9,35208.7,0.6497,0.5142,141.9,98.5,0.46
14.94,32072.0,35169.3,0.2924,0.4175,141.9,98.5,0.46
14.96,31991.2,35105.5,-0.044,0.2607,141.9,98.5,0.46
14.98,32066.9,35045.4,0.2713,0.1132,141.9,98.5,0.46
15.0,32001.0,34960.0,-0.003,-0.0965,141.9,98.5,0.46
15.02,31918.7,34914.0,-0.3457,-0.2095,141.9,98.5,0.46
15.04,31817.8,34695.5,-0.7656,-0.7462,141.9,98.5,0.46
15.06,31875.8,34697.7,-0.524,-0.7408,141.9,98.5,0.46
15.08,31945.6,34712.6,-0.2337,-0.7042,141.9,98.5,0.46
15.1,31829.4,34719.2,-0.7171,-0.6879,141.9,98.5,0.46
15.12,31851.6,34656.3,-0.625,-0.8425,141.9,98.5,0.46
15.14,31817.8,34429.9,-0.7653,-1.3986,141.9,98.5,0.46
15.16,31821.7,34505.4,-0.7493,-1.2131,141.9,98.5,0.46
15.18,31725.9,34540.7,-1.1479,-1.1264,141.9,98.5,0.46
15.2,31872.4,34715.2,-0.5381,-0.6979,141.9,98.5,0.46
15.22,31967.7,34985.0,-0.1418,-0.0351,141.9,98.5,0.46
15.24,32167.0,35416.3,0.6878,1.0241,141.9,98.5,0.46
15.26,32250.6,35661.8,1.0356,1.627,141.9,98.5,0.46
15.28,32359.7,35723.8,1.4894,1.7795,141.9,98.5,0.46
15.3,32241.2,35605.4,0.9964,1.4886,141.9,98.5,0.46
15.32,32167.7,35463.1,0.6904,1.1391,141.9,98.5,0.46
15.34,32227.1,35332.6,0.9378,0.8186,141.9,98.5,0.46
15.36,32073.8,35120.2,0.2998,0.2969,141.9,98.5,0.46
15.38,32031.0,35135.3,0.1218,0.3341,141.9,98.5,0.46
15.4,32134.4,35036.9,0.552,0.0922,141.9,98.5,0.46
15.42,32088.5,34972.0,0.3608,-0.067,141.9,98.5,0.46
15.44,31955.0,34906.8,-0.1945,-0.2272,141.9,98.5,0.46
15.46,31759.9,34776.5,-1.0065,-0.5472,141.9,98.5,0.46
15.48,31947.9,34644.8,-0.224,-0.8708,141.9,98.5,0.46
15.5,31852.1,34627.0,-0.6228,-0.9143,141.9,98.5,0.46
15.52,31857.0,34624.0,-0.6025,-0.9218,141.9,98.5,0.46
15.54,31761.8,34546.4,-0.9985,-1.1124,141.9,98.5,0.46
15.56,31812.7,34472.8,-0.7866,-1.2931,141.9,98.5,0.46
15.58,31846.0,34463.1,-0.6483,-1.3171,141.9,98.5,0.46
15.6,31793.2,34504.9,-0.8677,-1.2142,141.9,98.5,0.46
15.62,31777.7,34721.9,-0.9322,-0.6813,141.9,98.5,0.46
15.64,32041.2,35073.3,0.1643,0.1817,141.9,98.5,0.46
15.66,32132.1,35439.5,0.5426,1.0812,141.9,98.5,0.46
15.68,32237.8,35665.0,0.9824,1.6349,141.9,98.5,0.46
15.7,32339.8,35840.6,1.4067,2.0663,141.9,98.5,0.46
15.72,32196.1,35788.7,0.8087,1.9389,141.9,98.5,0.46
15.74,32318.1,35500.8,1.3163,1.2316,141.9,98.5,0.46
15.76,32089.1,35226.4,0.3637,0.5577,141.9,98.5,0.46
15.78,32097.9,35173.5,0.4,0.4278,141.9,98.5,0.46
15.8,32143.0,35071.0,0.5876,0.176,141.9,98.5,0.46
15.82,31951.2,35049.7,-0.2102,0.1238,141.9,98.5,0.46
15.84,32097.5,35012.7,0.3984,0.033,141.9,98.5,0.46
15.86,31870.9,34885.8,-0.5447,-0.2787,141.9,98.5,0.46
15.88,31820.3,34741.6,-0.7552,-0.633,141.9,98.5,0.46
15.9,31967.8,34669.5,-0.1411,-0.81,141.9,98.5,0.46
15.92,31835.1,34591.4,-0.6933,-1.0019,141.9,98.5,0.46
15.94,31935.4,34728.1,-0.276,-0.6662,141.9,98.5,0.46
15.96,31833.4,34656.0,-0.7005,-0.8432,141.9,98.5,0.46
15.98,31862.0,34539.3,-0.5816,-1.1298,141.9,98.5,0.46
16.0,31815.3,34549.5,-0.776,-1.1049,141.9,98.5,0.46
16.02,31797.8,34523.8,-0.8485,-1.1678,141.9,98.5,0.46
16.04,31721.5,34572.8,-1.1661,-1.0477,141.9,98.5,0.46
16.06,31962.8,34920.9,-0.1623,-0.1926,141.9,98.5,0.46
16.08,32010.5,35314.3,0.0363,0.7737,141.9,98.5,0.46
16.1,32291.7,35636.5,1.2066,1.5651,141.9,98.5,0.46
16.12,32287.4,35807.0,1.1886,1.9836,141.9,98.5,0.46
16.14,32343.3,35668.3,1.4212,1.6431,141.9,98.5,0.46
16.16,32138.3,35593.9,0.5684,1.4603,141.9,98.5,0.46
16.18,32213.9,35281.4,0.8827,0.6927,141.9,98.5,0.46
16.2,32079.3,35217.7,0.3227,0.5364,141.9,98.5,0.46
16.22,32096.2,35058.6,0.393,0.1455,141.9,98.5,0.46
16.24,32004.9,35074.0,0.013,0.1833,141.9,98.5,0.46
16.26,31908.4,35109.1,-0.3884,0.2697,141.9,98.5,0.46
16.28,31959.8,34945.8,-0.1745,-0.1315,141.9,98.5,0.46
16.3,31878.2,34790.1,-0.514,-0.514,141.9,98.5,0.46
16.32,31970.9,34736.0,-0.1282,-0.6468,141.9,98.5,0.46
16.34,31916.5,34671.7,-0.3548,-0.8047,141.9,98.5,0.46
16.36,31931.9,34696.1,-0.2906,-0.7448,141.9,98.5,0.46
16.38,31847.9,34650.9,-0.6401,-0.8558,141.9,98.5,0.46
16.4,31835.9,34485.8,-0.6902,-1.2613,141.9,98.5,0.46
16.42,31806.1,34444.3,-0.8142,-1.3632,141.9,98.5,0.46
16.44,31793.6,34473.0,-0.866,-1.2927,141.9,98.5,0.46
16.46,31894.2,34628.2,-0.4473,-0.9115,141.9,98.5,0.46
16.48,31966.4,34852.1,-0.1471,-0.3615,141.9,98.5,0.46
16.5,32092.5,35167.7,0.3774,0.4135,141.9,98.5,0.46
16.52,32310.9,35627.8,1.2863,1.5435,141.9,98.5,0.46
16.54,32346.0,35697.9,1.4323,1.7156,141.9,98.5,0.46
16.56,32350.4,35754.4,1.4508,1.8545,141.9,98.5,0.46
16.58,32212.4,35519.1,0.8766,1.2765,141.9,98.5,0.46
16.6,32142.3,35360.1,0.5847,0.8861,141.9,98.5,0.46
16.62,32110.2,35165.7,0.4513,0.4086,141.9,98.5,0.46
16.64,32022.1,35089.2,0.0847,0.2207,141.9,98.5,0.46
16.66,32052.1,35073.9,0.2095,0.1832,141.9,98.5,0.46
16.68,32013.0,35045.8,0.0467,0.1142,141.9,98.5,0.46
16.7,32009.4,34958.5,0.032,-0.1002,141.9,98.5,0.46
16.72,31922.2,34804.1,-0.3311,-0.4794,141.9,98.5,0.46
16.74,31850.4,34788.8,-0.6298,-0.5171,141.9,98.5,0.46
16.76,31872.6,34629.6,-0.5376,-0.9081,141.9,98.5,0.46
16.78,31808.6,34675.4,-0.8037,-0.7956,141.9,98.5,0.46
16.8,31962.0,34633.2,-0.1652,-0.8993,141.9,98.5,0.46
16.82,31864.8,34534.9,-0.5699,-1.1406,141.9,98.5,0.46
16.84,31719.4,34500.9,-1.1751,-1.2242,141.9,98.5,0.46
16.86,31762.7,34487.3,-0.9947,-1.2575,141.9,98.5,0.46
16.88,31835.7,34584.5,-0.6911,-1.0189,141.9,98.5,0.46
16.9,31923.7,34839.3,-0.3248,-0.393,141.9,98.5,0.46
16.92,32017.6,35149.1,0.0661,0.368,141.9,98.5,0.46
16.94,32130.6,35581.0,0.5361,1.4286,141.9,98.5,0.46
16.96,32341.6,35688.4,1.4141,1.6925,141.9,98.5,0.46
16.98,32304.7,35667.6,1.2608,1.6413,141.9,98.5,0.46
17.0,32187.0,35597.9,0.7707,1.4702,141.9,98.5,0.46
17.02,32164.4,35248.2,0.6769,0.6113,141.9,98.5,0.46
17.04,32081.9,35187.4,0.3335,0.462,141.9,98.5,0.46
17.06,32094.9,35115.6,0.3877,0.2856,141.9,98.5,0.46
17.08,32005.3,35168.1,0.0149,0.4146,141.9,98.5,0.46
17.1,31980.4,35011.1,-0.089,0.029,141.9,98.5,0.46
17.12,32007.2,34886.5,0.0228,-0.277,141.9,98.5,0.46
17.14,31860.1,34767.4,-0.5894,-0.5697,141.9,98.5,0.46
17.16,31929.1,34744.7,-0.3024,-0.6253,141.9,98.5,0.46
17.18,31844.1,34662.7,-0.6559,-0.8268,141.9,98.5,0.46
17.2,31934.6,34667.8,-0.2792,-0.8142,141.9,98.5,0.46
17.22,31915.2,34635.8,-0.3601,-0.8928,141.9,98.5,0.46
17.24,31946.3,34553.6,-0.2308,-1.0948,141.9,98.5,0.46
17.26,31808.3,34580.7,-0.8051,-1.028,141.9,98.5,0.46
17.28,31853.7,34508.9,-0.6161,-1.2046,141.9,98.5,0.46
17.3,31874.7,34491.3,-0.5287,-1.2477,141.9,98.5,0.46
17.32,31770.0,34708.6,-0.9643,-0.714,141.9,98.5,0.46
17.34,32062.1,35175.4,0.2511,0.4324,141.9,98.5,0.46
17.36,32226.8,35468.2,0.9365,1.1516,141.9,98.5,0.46
17.38,32258.5,35624.6,1.0682,1.5356,141.9,98.5,0.46
17.4,32265.8,35689.1,1.0986,1.694,141.9,98.5,0.46
17.42,32263.0,35643.0,1.087,1.5808,141.9,98.5,0.46
17.44,32177.8,35453.2,0.7327,1.1147,141.9,98.5,0.46
17.46,32104.6,35265.9,0.4278,0.6547,141.9,98.5,0.46
17.48,32165.1,35102.7,0.6797,0.2538,141.9,98.5,0.46
17.5,32022.6,35066.0,0.0866,0.1638,141.9,98.5,0.46
17.52,32010.2,34997.6,0.0351,-0.0041,141.9,98.5,0.46
17.54,32017.5,34968.6,0.0654,-0.0755,141.9,98.5,0.46
17.56,31984.0,34764.5,-0.074,-0.5766,141.9,98.5,0.46
17.58,31980.5,34720.4,-0.0884,-0.685,141.9,98.5,0.46
17.6,31887.4,34678.1,-0.476,-0.789,141.9,98.5,0.46
17.62,31810.8,34680.0,-0.7944,-0.7842,141.9,98.5,0.46
17.64,31765.3,34669.9,-0.9838,-0.8092,141.9,98.5,0.46
17.66,31815.3,34679.7,-0.776,-0.785,141.9,98.5,0.46
17.68,31744.0,34431.0,-1.0724,-1.3957,141.9,98.5,0.46
17.7,31733.8,34501.3,-1.1148,-1.2232,141.9,98.5,0.46
17.72,31742.5,34595.9,-1.0787,-0.9909,141.9,98.5,0.46
17.74,31786.3,34740.5,-0.8965,-0.6357,141.9,98.5,0.46
17.76,32092.2,35121.4,0.3765,0.2999,141.9,98.5,0.46
17.78,32199.4,35389.9,0.8222,0.9592,141.9,98.5,0.46
17.8,32327.7,35698.1,1.3564,1.7162,141.9,98.5,0.46
17.82,32349.8,35659.2,1.4483,1.6207,141.9,98.5,0.46
17.84,32296.6,35726.7,1.2269,1.7866,141.9,98.5,0.46
17.86,32187.7,35431.9,0.7738,1.0624,141.9,98.5,0.46
17.88,32162.7,35197.8,0.6695,0.4876,141.9,98.5,0.46
17.9,31947.5,35197.5,-0.2259,0.4867,141.9,98.5,0.46
17.92,32137.7,35131.4,0.5655,0.3244,141.9,98.5,0.46
17.94,31949.8,35117.0,-0.2163,0.2891,141.9,98.5,0.46
17.96,32001.9,34864.5,0.0005,-0.3312,141.9,98.5,0.46
17.98,31899.8,34818.5,-0.4242,-0.444,141.9,98.5,0.46
18.0,31942.9,34769.1,-0.2447,-0.5654,141.9,98.5,0.46
18.02,31928.3,34699.1,-0.3055,-0.7373,141.9,98.5,0.46
18.04,31875.4,34577.9,-0.5259,-1.0351,141.9,98.5,0.46
18.06,31825.1,34687.8,-0.7351,-0.7651,141.9,98.5,0.46
18.08,31883.4,34632.6,-0.4923,-0.9007,141.9,98.5,0.46
18.1,31835.4,34526.6,-0.6922,-1.1609,141.9,98.5,0.46
18.12,31709.8,34438.8,-1.215,-1.3768,141.9,98.5,0.46
18.14,31710.3,34502.9,-1.2129,-1.2192,141.9,98.5,0.46
18.16,31859.7,34706.2,-0.5913,-0.72,141.9,98.5,0.46
18.18,32085.3,34989.3,0.3476,-0.0245,141.9,98.5,0.46
18.2,32199.9,35396.1,0.8247,0.9746,141.9,98.5,0.46
18.22,32320.7,35757.5,1.3273,1.8622,141.9,98.5,0.46
18.24,32358.2,35696.5,1.4833,1.7122,141.9,98.5,0.46
18.26,32279.5,35694.9,1.1557,1.7084,141.9,98.5,0.46
18.28,32188.6,35506.9,0.7776,1.2465,141.9,98.5,0.46
18.3,32101.9,35263.2,0.4166,0.6481,141.9,98.5,0.46
18.32,31999.4,35245.4,-0.0099,0.6044,141.9,98.5,0.46
18.34,32015.2,35177.6,0.0561,0.4379,141.9,98.5,0.46
18.36,32028.2,35014.3,0.11,0.0368,141.9,98.5,0.46
18.38,32082.7,35018.9,0.3369,0.0482,141.9,98.5,0.46
18.4,31950.0,34851.2,-0.2152,-0.3639,141.9,98.5,0.46
18.42,31906.3,34669.4,-0.3972,-0.8104,141.9,98.5,0.46
18.44,31866.8,34675.8,-0.5615,-0.7947,141.9,98.5,0.46
18.46,31805.4,34710.3,-0.8171,-0.7098,141.9,98.5,0.46
18.48,31885.4,34678.4,-0.4842,-0.7882,141.9,98.5,0.46
18.5,31787.3,34565.4,-0.8924,-1.0657,141.9,98.5,0.46
18.52,31832.5,34480.7,-0.7045,-1.2739,141.9,98.5,0.46
18.54,31819.0,34482.1,-0.7606,-1.2704,141.9,98.5,0.46
18.56,31786.2,34374.3,-0.897,-1.535,141.9,98.5,0.46
18.58,31978.5,34692.8,-0.0967,-0.7528,141.9,98.5,0.46
18.6,31978.2,34981.4,-0.0982,-0.0441,141.9,98.5,0.46
18.62,32113.5,35330.3,0.4649,0.8129,141.9,98.5,0.46
18.64,32246.5,35700.7,1.0183,1.7226,141.9,98.5,0.46
18.66,32396.4,35779.1,1.6421,1.9151,141.9,98.5,0.46
18.68,32291.4,35719.8,1.2054,1.7695,141.9,98.5,0.46
18.7,32163.8,35547.9,0.6742,1.3472,141.9,98.5,0.46
18.72,32079.9,35331.3,0.3251,0.8154,141.9,98.5,0.46
18.74,32099.1,35204.7,0.4051,0.5044,141.9,98.5,0.46
18.76,31893.1,35113.6,-0.452,0.2806,141.9,98.5,0.46
18.78,31995.8,34991.1,-0.0246,-0.0201,141.9,98.5,0.46
18.8,31982.5,34963.6,-0.0802,-0.0878,141.9,98.5,0.46
18.82,31965.7,34878.8,-0.15,-0.2959,141.9,98.5,0.46
18.84,31853.9,34730.8,-0.6154,-0.6595,141.9,98.5,0.46
18.86,31879.5,34618.0,-0.5086,-0.9365,141.9,98.5,0.46
18.88,31726.7,34714.0,-1.1447,-0.7007,141.9,98.5,0.46
18.9,31948.5,34737.5,-0.2215,-0.6431,141.9,98.5,0.46
18.92,31936.8,34655.4,-0.2704,-0.8446,141.9,98.5,0.46
18.94,31856.0,34536.1,-0.6067,-1.1376,141.9,98.5,0.46
18.96,31698.2,34545.5,-1.2632,-1.1145,141.9,98.5,0.46
18.98,31845.1,34458.4,-0.6519,-1.3286,141.9,98.5,0.46
19.0,31919.6,34600.5,-0.3419,-0.9796,141.9,98.5,0.46
19.02,32022.1,34928.5,0.0845,-0.1738,141.9,98.5,0.46
19.04,32190.4,35250.0,0.7849,0.6156,141.9,98.5,0.46
19.06,32177.6,35618.1,0.7319,1.5197,141.9,98.5,0.46
19.08,32319.9,35814.4,1.3238,2.0018,141.9,98.5,0.46
19.1,32349.4,35740.6,1.4465,1.8206,141.9,98.5,0.46
19.12,32161.2,35533.9,0.6635,1.3129,141.9,98.5,0.46
19.14,32146.8,35317.4,0.6036,0.7812,141.9,98.5,0.46
19.16,32124.0,35234.3,0.5086,0.577,141.9,98.5,0.46
19.18,32148.3,35124.5,0.6099,0.3076,141.9,98.5,0.46
19.2,31990.0,35044.5,-0.0491,0.1108,141.9,98.5,0.46
19.22,32025.0,35068.1,0.0969,0.1689,141.9,98.5,0.46
19.24,31904.5,34938.4,-0.4045,-0.1496,141.9,98.5,0.46
19.26,31923.1,34879.6,-0.3271,-0.294,141.9,98.5,0.46
19.28,31862.3,34736.3,-0.5805,-0.646,141.9,98.5,0.46
19.3,31866.6,34635.1,-0.5625,-0.8945,141.9,98.5,0.46
19.32,31851.2,34702.7,-0.6264,-0.7285,141.9,98.5,0.46
19.34,31767.0,34709.3,-0.9767,-0.7123,141.9,98.5,0.46
19.36,31799.8,34520.3,-0.8405,-1.1764,141.9,98.5,0.46
19.38,31770.8,34427.2,-0.9609,-1.4052,141.9,98.5,0.46
19.4,31775.1,34470.0,-0.9429,-1.3001,141.9,98.5,0.46
19.42,31828.1,34622.9,-0.7225,-0.9246,141.9,98.5,0.46
19.44,31996.9,34847.3,-0.0203,-0.3733,141.9,98.5,0.46
19.46,32139.1,35195.2,0.5716,0.481,141.9,98.5,0.46
19.48,32204.3,35620.6,0.843,1.526,141.9,98.5,0.46
19.5,32236.9,35754.3,0.9786,1.8542,141.9,98.5,0.46
19.52,32408.4,35775.3,1.6922,1.9059,141.9,98.5,0.46
19.54,32267.5,35531.9,1.106,1.3081,141.9,98.5,0.46
19.56,32181.8,35358.0,0.7491,0.8809,141.9,98.5,0.46
19.58,32019.8,35157.9,0.0752,0.3895,141.9,98.5,0.46
19.6,31971.7,35187.6,-0.1252,0.4625,141.9,98.5,0.46
19.62,32047.7,35147.3,0.1911,0.3633,141.9,98.5,0.46
19.64,31984.8,34975.6,-0.0705,-0.0582,141.9,98.5,0.46
19.66,32022.7,34915.2,0.0873,-0.2067,141.9,98.5,0.46
19.68,31960.4,34776.0,-0.1722,-0.5486,141.9,98.5,0.46
19.7,31825.1,34776.2,-0.735,-0.5481,141.9,98.5,0.46
19.72,31810.0,34688.4,-0.7978,-0.7637,141.9,98.5,0.46
19.74,31796.5,34669.8,-0.8541,-0.8094,141.9,98.5,0.46
19.76,31852.0,34578.6,-0.6232,-1.0332,141.9,98.5,0.46
19.78,31888.3,34526.8,-0.4723,-1.1605,141.9,98.5,0.46
19.8,31757.6,34503.2,-1.016,-1.2184,141.9,98.5,0.46
19.82,31874.4,34433.8,-0.5299,-1.3889,141.9,98.5,0.46
19.84,31779.2,34530.0,-0.9261,-1.1526,141.9,98.5,0.46
19.86,31987.9,34712.0,-0.0577,-0.7057,141.9,98.5,0.46
19.88,32122.5,35194.9,0.5023,0.4804,141.9,98.5,0.46
19.9,32263.1,35617.9,1.0875,1.5192,141.9,98.5,0.46
19.92,32371.0,35801.6,1.5365,1.9705,141.9,98.5,0.46
19.94,32264.6,35769.0,1.0937,1.8904,141.9,98.5,0.46
19.96,32233.7,35608.6,0.9652,1.4964,141.9,98.5,0.46
19.98,32148.3,35415.3,0.6097,1.0218,141.9,98.5,0.46
20.0,32090.2,35258.9,0.3679,0.6376,141.9,98.5,0.46
20.02,32004.6,35140.7,0.012,0.3473,141.9,98.5,0.46
20.04,32057.2,35034.8,0.2307,0.0872,141.9,98.5,0.46
20.06,32061.8,35053.1,0.2501,0.132,141.9,98.5,0.46
20.08,31993.7,34976.0,-0.0333,-0.0573,141.9,98.5,0.46
20.1,31812.3,34730.6,-0.7884,-0.6599,141.9,98.5,0.46
20.12,31836.1,34676.5,-0.6892,-0.7929,141.9,98.5,0.46
20.14,31886.3,34653.3,-0.4806,-0.8499,141.9,98.5,0.46
20.16,31827.7,34756.3,-0.7241,-0.5968,141.9,98.5,0.46
20.18,31938.7,34634.8,-0.2626,-0.8953,141.9,98.5,0.46
20.2,31843.4,34641.1,-0.6589,-0.8799,141.9,98.5,0.46
20.22,31733.2,34513.1,-1.1176,-1.1941,141.9,98.5,0.46
20.24,31773.8,34434.5,-0.9485,-1.3873,141.9,98.5,0.46
20.26,31798.0,34668.2,-0.848,-0.8133,141.9,98.5,0.46
20.28,31974.0,34715.1,-0.1157,-0.698,141.9,98.5,0.46
20.3,32005.4,35053.4,0.0151,0.1328,141.9,98.5,0.46
20.32,32200.4,35445.7,0.8267,1.0962,141.9,98.5,0.46
20.34,32312.4,35762.7,1.2925,1.875,141.9,98.5,0.46
20.36,32287.0,35743.3,1.1871,1.8273,141.9,98.5,0.46
20.38,32283.4,35565.4,1.1722,1.3902,141.9,98.5,0.46
20.4,32174.6,35472.0,0.7194,1.1609,141.9,98.5,0.46
20.42,32172.5,35216.9,0.7106,0.5344,141.9,98.5,0.46
20.44,32183.8,35121.5,0.7573,0.3002,141.9,98.5,0.46
20.46,32075.0,35071.3,0.3047,0.1768,141.9,98.5,0.46
20.48,31979.0,35025.7,-0.0945,0.0648,141.9,98.5,0.46
20.5,32015.6,34909.1,0.0577,-0.2216,141.9,98.5,0.46
20.52,31919.9,34806.4,-0.3405,-0.4739,141.9,98.5,0.46
20.54,31891.0,34763.4,-0.4608,-0.5795,141.9,98.5,0.46
20.56,31917.2,34764.7,-0.352,-0.5762,141.9,98.5,0.46
20.58,31902.3,34662.0,-0.4137,-0.8285,141.9,98.5,0.46
20.6,31889.0,34660.6,-0.4692,-0.8318,141.9,98.5,0.46
20.62,31818.4,34564.0,-0.7629,-1.0692,141.9,98.5,0.46
20.64,31810.5,34508.1,-0.7959,-1.2065,141.9,98.5,0.46
20.66,31789.8,34385.2,-0.8821,-1.5083,141.9,98.5,0.46
20.68,31761.9,34471.5,-0.9983,-1.2964,141.9,98.5,0.46
20.7,31905.3,34720.2,-0.4012,-0.6855,141.9,98.5,0.46
20.72,31945.5,35148.3,-0.234,0.3659,141.9,98.5,0.46
20.74,32224.1,35408.8,0.9253,1.0058,141.9,98.5,0.46
20.76,32266.6,35643.7,1.102,1.5825,141.9,98.5,0.46
20.78,32295.8,35749.4,1.2236,1.8423,141.9,98.5,0.46
20.8,32262.6,35693.7,1.0855,1.7054,141.9,98.5,0.46
20.82,32239.5,35376.0,0.9895,0.925,141.9,98.5,0.46
20.84,32118.4,35246.5,0.4852,0.6071,141.9,98.5,0.46
20.86,31981.8,35083.8,-0.083,0.2074,141.9,98.5,0.46
20.88,32007.7,35127.1,0.025,0.3137,141.9,98.5,0.46
20.9,32021.1,35112.3,0.0804,0.2776,141.9,98.5,0.46
20.92,32090.0,34965.4,0.3673,-0.0833,141.9,98.5,0.46
20.94,31927.8,34854.6,-0.3079,-0.3555,141.9,98.5,0.46
20.96,31900.8,34613.6,-0.4199,-0.9472,141.9,98.5,0.46
20.98,31924.6,34801.4,-0.3209,-0.4862,141.9,98.5,0.46
21.0,31932.4,34685.5,-0.2885,-0.7707,141.9,98.5,0.46
21.02,31811.8,34631.1,-0.7904,-0.9044,141.9,98.5,0.46
21.04,31789.8,34549.5,-0.8821,-1.1048,141.9,98.5,0.46
21.06,31759.0,34506.9,-1.0102,-1.2095,141.9,98.5,0.46
21.08,31829.6,34454.0,-0.7163,-1.3393,141.9,98.5,0.46
21.1,31782.8,34440.3,-0.9111,-1.3729,141.9,98.5,0.46
21.12,31923.7,34746.8,-0.3249,-0.6203,141.9,98.5,0.46
21.14,32025.8,35071.0,0.1003,0.1761,141.9,98.5,0.46
21.16,32133.6,35440.1,0.5485,1.0826,141.9,98.5,0.46
21.18,32267.9,35604.8,1.1074,1.4871,141.9,98.5,0.46
21.2,32327.2,35754.4,1.3543,1.8544,141.9,98.5,0.46
21.22,32311.1,35639.8,1.2872,1.573,141.9,98.5,0.46
21.24,32227.5,35513.6,0.9393,1.263,141.9,98.5,0.46
21.26,32215.5,35306.6,0.8893,0.7548,141.9,98.5,0.46
21.28,32115.5,35173.1,0.4734,0.4267,141.9,98.5,0.46
21.3,32031.3,35048.5,0.1228,0.1208,141.9,98.5,0.46
21.32,32027.8,35009.0,0.1084,0.0237,141.9,98.5,0.46
21.34,31938.1,34969.3,-0.2647,-0.0738,141.9,98.5,0.46
21.36,31921.2,34887.5,-0.3353,-0.2745,141.9,98.5,0.46
21.38,31980.3,34807.9,-0.0892,-0.4701,141.9,98.5,0.46
21.4,31859.4,34645.8,-0.5922,-0.8683,141.9,98.5,0.46
21.42,31820.4,34700.8,-0.7548,-0.7332,141.9,98.5,0.46
21.44,31801.8,34676.4,-0.8322,-0.7932,141.9,98.5,0.46
21.46,31808.1,34669.2,-0.8059,-0.8108,141.9,98.5,0.46
21.48,31807.6,34644.2,-0.808,-0.8721,141.9,98.5,0.46
21.5,31765.9,34574.6,-0.9815,-1.0431,141.9,98.5,0.46
21.52,31745.0,34423.0,-1.0684,-1.4155,141.9,98.5,0.46
21.54,31792.0,34669.5,-0.8727,-0.8101,141.9,98.5,0.46
21.56,32031.9,34918.6,0.1254,-0.1983,141.9,98.5,0.46
21.58,32123.0,35346.6,0.5043,0.853,141.9,98.5,0.46
21.6,32275.1,35614.6,1.1373,1.5112,141.9,98.5,0.46
21.62,32291.1,35776.8,1.2041,1.9095,141.9,98.5,0.46
21.64,32282.5,35725.6,1.1684,1.7837,141.9,98.5,0.46
21.66,32251.3,35540.4,1.0384,1.3288,141.9,98.5,0.46
21.68,32095.1,35340.1,0.3884,0.8369,141.9,98.5,0.46
21.7,32026.1,35188.8,0.1014,0.4653,141.9,98.5,0.46
21.72,32003.3,35076.8,0.0065,0.1904,141.9,98.5,0.46
21.74,32036.1,35097.6,0.1431,0.2415,141.9,98.5,0.46
21.76,32057.2,35011.2,0.2309,0.0291,141.9,98.5,0.46
21.78,31962.8,34888.2,-0.162,-0.2729,141.9,98.5,0.46
21.8,31876.8,34804.3,-0.5198,-0.4791,141.9,98.5,0.46
21.82,31824.3,34777.0,-0.7384,-0.546,141.9,98.5,0.46
21.84,31924.9,34647.3,-0.3197,-0.8645,141.9,98.5,0.46
21.86,31849.4,34665.0,-0.6342,-0.8212,141.9,98.5,0.46
21.88,31894.5,34678.9,-0.4464,-0.7871,141.9,98.5,0.46
21.9,31725.7,34585.4,-1.1486,-1.0165,141.9,98.5,0.46
21.92,31757.2,34564.1,-1.0177,-1.069,141.9,98.5,0.46
21.94,31786.9,34545.5,-0.8938,-1.1147,141.9,98.5,0.46
21.96,31957.2,34576.6,-0.1854,-1.0382,141.9,98.5,0.46
21.98,32090.7,34857.5,0.3701,-0.3484,141.9,98.5,0.46
22.0,32127.2,35299.4,0.5219,0.7369,141.9,98.5,0.46
22.02,32342.6,35673.2,1.4182,1.6551,141.9,98.5,0.46
22.04,32298.3,35751.1,1.234,1.8465,141.9,98.5,0.46
22.06,32348.6,35717.5,1.4432,1.7638,141.9,98.5,0.46
22.08,32276.6,35591.8,1.1436,1.4553,141.9,98.5,0.46
22.1,32105.6,35328.1,0.4322,0.8074,141.9,98.5,0.46
22.12,32090.0,35239.3,0.3672,0.5894,141.9,98.5,0.46
22.14,32003.9,35210.6,0.0088,0.5189,141.9,98.5,0.46
22.16,31974.5,35038.0,-0.1132,0.095,141.9,98.5,0.46
22.18,31965.5,35040.8,-0.1507,0.1019,141.9,98.5,0.46
22.2,31920.1,34875.6,-0.3399,-0.3038,141.9,98.5,0.46
22.22,31909.5,34787.9,-0.3841,-0.5193,141.9,98.5,0.46
22.24,31914.8,34701.2,-0.3617,-0.7322,141.9,98.5,0.46
22.26,31903.5,34680.4,-0.4086,-0.7834,141.9,98.5,0.46
22.28,31858.1,34645.8,-0.5979,-0.8684,141.9,98.5,0.46
22.3,31822.6,34679.5,-0.7457,-0.7856,141.9,98.5,0.46
22.32,31855.9,34530.9,-0.6068,-1.1505,141.9,98.5,0.46
22.34,31748.8,34485.7,-1.0524,-1.2616,141.9,98.5,0.46
22.36,31822.0,34470.5,-0.7478,-1.2988,141.9,98.5,0.46
22.38,31770.9,34579.2,-0.9607,-1.0319,141.9,98.5,0.46
22.4,31885.9,34869.4,-0.482,-0.3192,141.9,98.5,0.46
22.42,32144.1,35222.7,0.5924,0.5487,141.9,98.5,0.46
22.44,32281.4,35494.8,1.1636,1.2169,141.9,98.5,0.46
22.46,32401.1,35779.9,1.6616,1.9172,141.9,98.5,0.46
22.48,32388.1,35743.6,1.6075,1.8279,141.9,98.5,0.46
22.5,32187.2,35525.5,0.7718,1.2922,141.9,98.5,0.46
22.52,32159.8,35374.3,0.6575,0.921,141.9,98.5,0.46
22.54,32143.1,35236.5,0.588,0.5825,141.9,98.5,0.46
22.56,32174.7,35123.4,0.7196,0.3048,141.9,98.5,0.46
22.58,32044.1,35016.8,0.1762,0.0428,141.9,98.5,0.46
22.6,32007.5,35006.1,0.0238,0.0167,141.9,98.5,0.46
22.62,32072.9,35022.3,0.2961,0.0565,141.9,98.5,0.46
22.64,31921.7,34911.1,-0.3331,-0.2167,141.9,98.5,0.46
22.66,31866.3,34739.2,-0.5638,-0.6389,141.9,98.5,0.46
22.68,31920.3,34684.4,-0.3388,-0.7736,141.9,98.5,0.46
22.7,31857.8,34667.6,-0.5989,-0.8148,141.9,98.5,0.46
22.72,31930.3,34594.9,-0.2971,-0.9934,141.9,98.5,0.46
22.74,31780.0,34528.1,-0.9227,-1.1573,141.9,98.5,0.46
22.76,31768.1,34445.0,-0.9723,-1.3614,141.9,98.5,0.46
22.78,31872.5,34495.6,-0.538,-1.2372,141.9,98.5,0.46
22.8,31756.1,34519.7,-1.0224,-1.1779,141.9,98.5,0.46
22.82,31975.7,34889.5,-0.1086,-0.2697,141.9,98.5,0.46
22.84,32167.5,35189.8,0.6899,0.4678,141.9,98.5,0.46
22.86,32237.4,35439.6,0.9806,1.0814,141.9,98.5,0.46
22.88,32292.4,35684.1,1.2093,1.682,141.9,98.5,0.46
22.9,32307.6,35767.1,1.2725,1.8856,141.9,98.5,0.46
22.92,32196.1,35773.5,0.8089,1.9015,141.9,98.5,0.46
22.94,32249.1,35361.1,1.0294,0.8885,141.9,98.5,0.46
22.96,32112.2,35226.0,0.4596,0.5568,141.9,98.5,0.46
22.98,32050.8,35186.4,0.2041,0.4595,141.9,98.5,0.46
23.0,32064.0,35119.6,0.259,0.2954,141.9,98.5,0.46
23.02,32086.7,35012.8,0.3533,0.0332,141.9,98.5,0.46
23.04,32051.9,34977.3,0.2088,-0.0541,141.9,98.5,0.46
23.06,31989.6,34782.4,-0.0507,-0.5328,141.9,98.5,0.46
23.08,31922.4,34714.8,-0.3304,-0.6988,141.9,98.5,0.46
23.1,31846.2,34689.5,-0.6475,-0.761,141.9,98.5,0.46
23.12,31880.9,34742.1,-0.5029,-0.6318,141.9,98.5,0.46
23.14,31797.0,34615.5,-0.8519,-0.9427,141.9,98.5,0.46
23.16,31831.3,34587.0,-0.7095,-1.0128,141.9,98.5,0.46
23.18,31802.7,34486.7,-0.8284,-1.2589,141.9,98.5,0.46
23.2,31754.5,34485.8,-1.029,-1.2613,141.9,98.5,0.46
23.22,31787.2,34470.8,-0.8927,-1.298,141.9,98.5,0.46
23.24,31867.7,34802.7,-0.5578,-0.483,141.9,98.5,0.46
23.26,32029.8,35153.7,0.1165,0.3791,141.9,98.5,0.46
23.28,32277.1,35454.2,1.1457,1.1171,141.9,98.5,0.46
23.3,32278.6,35665.0,1.1521,1.6348,141.9,98.5,0.46
23.32,32318.1,35791.2,1.3162,1.9448,141.9,98.5,0.46
23.34,32246.1,35640.8,1.0168,1.5755,141.9,98.5,0.46
23.36,32235.7,35442.3,0.9735,1.088,141.9,98.5,0.46
23.38,32202.7,35238.8,0.836,0.5882,141.9,98.5,0.46
23.4,32000.0,35168.1,-0.0072,0.4145,141.9,98.5,0.46
23.42,32074.8,35047.6,0.3039,0.1185,141.9,98.5,0.46
23.44,32035.1,35047.1,0.1387,0.1173,141.9,98.5,0.46
23.46,31982.0,34970.3,-0.0821,-0.0712,141.9,98.5,0.46
23.48,31915.3,34872.5,-0.3596,-0.3116,141.9,98.5,0.46
23.5,31977.3,34658.9,-0.1017,-0.8362,141.9,98.5,0.46
23.52,31910.3,34590.5,-0.3805,-1.0041,141.9,98.5,0.46
23.54,31870.8,34661.7,-0.5451,-0.8293,141.9,98.5,0.46
23.56,31843.7,34690.0,-0.6576,-0.7597,141.9,98.5,0.46
23.58,31782.6,34573.1,-0.9121,-1.0468,141.9,98.5,0.46
23.6,31765.3,34564.6,-0.9838,-1.0676,141.9,98.5,0.46
23.62,31700.0,34469.9,-1.2556,-1.3003,141.9,98.5,0.46
23.64,31792.8,34435.4,-0.8696,-1.3851,141.9,98.5,0.46
23.66,31932.9,34707.2,-0.2867,-0.7175,141.9,98.5,0.46
23.68,32007.7,35057.5,0.0248,0.1428,141.9,98.5,0.46
23.7,32112.5,35419.7,0.4609,1.0324,141.9,98.5,0.46
23.72,32297.4,35717.9,1.2303,1.7648,141.9,98.5,0.46
23.74,32355.4,35744.3,1.4718,1.8296,141.9,98.5,0.46
23.76,32310.7,35590.3,1.2854,1.4515,141.9,98.5,0.46
23.78,32161.0,35484.2,0.6626,1.1909,141.9,98.5,0.46
23.8,32125.9,35259.7,0.5167,0.6395,141.9,98.5,0.46
23.82,32110.5,35163.2,0.4527,0.4024,141.9,98.5,0.46
23.84,32027.4,35108.9,0.1067,0.2691,141.9,98.5,0.46
23.86,32123.9,35102.8,0.5082,0.2541,141.9,98.5,0.46
23.88,32022.2,34914.9,0.0851,-0.2074,141.9,98.5,0.46
23.9,31921.1,34904.3,-0.3355,-0.2334,141.9,98.5,0.46
23.92,31867.1,34754.2,-0.5604,-0.6019,141.9,98.5,0.46
23.94,31893.6,34665.0,-0.45,-0.8211,141.9,98.5,0.46
23.96,31934.3,34716.6,-0.2807,-0.6943,141.9,98.5,0.46
23.98,31900.1,34706.0,-0.4229,-0.7204,141.9,98.5,0.46
24.0,31843.9,34525.3,-0.657,-1.1642,141.9,98.5,0.46
24.02,31777.6,34608.8,-0.9326,-0.9592,141.9,98.5,0.46
24.04,31719.7,34412.1,-1.1737,-1.4422,141.9,98.5,0.46
24.06,31803.2,34510.9,-0.8263,-1.1996,141.9,98.5,0.46
24.08,31889.3,34627.0,-0.4678,-0.9143,141.9,98.5,0.46
24.1,31971.3,35015.6,-0.1266,0.0401,141.9,98.5,0.46
24.12,32146.0,35407.7,0.6002,1.0029,141.9,98.5,0.46
24.14,32181.5,35743.4,0.7481,1.8276,141.9,98.5,0.46
24.16,32326.9,35714.9,1.3531,1.7576,141.9,98.5,0.46
24.18,32268.2,35688.5,1.1089,1.6927,141.9,98.5,0.46
24.2,32193.1,35404.0,0.796,0.9939,141.9,98.5,0.46
24.22,32165.2,35288.3,0.6802,0.7098,141.9,98.5,0.46
24.24,32080.3,35098.4,0.327,0.2433,141.9,98.5,0.46
24.26,32054.9,35128.6,0.2211,0.3175,141.9,98.5,0.46
24.28,32058.4,35100.4,0.2359,0.2482,141.9,98.5,0.46
24.3,32039.6,34952.9,0.1577,-0.114,141.9,98.5,0.46
24.32,31901.7,34911.5,-0.4162,-0.2157,141.9,98.5,0.46
24.34,31895.2,34761.9,-0.4432,-0.5832,141.9,98.5,0.46
24.36,31986.7,34748.4,-0.0626,-0.6162,141.9,98.5,0.46
24.38,31853.0,34757.4,-0.6189,-0.5943,141.9,98.5,0.46
24.4,31979.3,34652.1,-0.0936,-0.8527,141.9,98.5,0.46
24.42,31817.6,34543.7,-0.7663,-1.1189,141.9,98.5,0.46
24.44,31780.3,34513.0,-0.9213,-1.1945,141.9,98.5,0.46
24.46,31756.7,34397.8,-1.0195,-1.4774,141.9,98.5,0.46
24.48,31767.7,34457.1,-0.9739,-1.3316,141.9,98.5,0.46
24.5,31888.0,34635.8,-0.4733,-0.8928,141.9,98.5,0.46
24.52,31948.6,34997.9,-0.2212,-0.0034,141.9,98.5,0.46
24.54,32054.1,35278.1,0.2178,0.6848,141.9,98.5,0.46
24.56,32375.0,35632.1,1.5532,1.5541,141.9,98.5,0.46
24.58,32194.4,35775.6,0.8016,1.9066,141.9,98.5,0.46
24.6,32285.8,35744.0,1.182,1.829,141.9,98.5,0.46
24.62,32271.0,35536.6,1.1203,1.3195,141.9,98.5,0.46
24.64,32138.3,35391.7,0.5681,0.9637,141.9,98.5,0.46
24.66,32064.4,35189.3,0.2605,0.4667,141.9,98.5,0.46
24.68,32000.8,35129.4,-0.0039,0.3195,141.9,98.5,0.46
24.7,31986.6,35045.7,-0.0629,0.1139,141.9,98.5,0.46
24.72,31937.4,34968.0,-0.2678,-0.077,141.9,98.5,0.46
24.74,31920.7,34871.8,-0.3374,-0.3131,141.9,98.5,0.46
24.76,31938.9,34796.2,-0.2613,-0.4988,141.9,98.5,0.46
24.78,31929.5,34753.5,-0.3007,-0.6036,141.9,98.5,0.46
24.8,31886.1,34637.7,-0.4814,-0.8882,141.9,98.5,0.46
24.82,31877.8,34567.4,-0.516,-1.0609,141.9,98.5,0.46
24.84,31787.4,34601.2,-0.8918,-0.9779,141.9,98.5,0.46
24.86,31763.1,34566.2,-0.9929,-1.0639,141.9,98.5,0.46
24.88,31732.6,34355.6,-1.12,-1.5809,141.9,98.5,0.46
24.9,31705.2,34400.5,-1.2339,-1.4707,141.9,98.5,0.46
24.92,31764.5,34614.3,-0.9871,-0.9457,141.9,98.5,0.46
24.94,31933.8,34848.4,-0.2826,-0.3708,141.9,98.5,0.46
24.96,32217.7,35289.4,0.8988,0.7124,141.9,98.5,0.46
24.98,32252.1,35657.7,1.0417,1.6169,141.9,98.5,0.46
25.0,32375.9,35711.4,1.5567,1.749,141.9,98.5,0.46
25.02,32318.3,35635.7,1.3172,1.5631,141.9,98.5,0.46
25.04,32207.2,35569.1,0.855,1.3995,141.9,98.5,0.46
25.06,32115.8,35355.0,0.4748,0.8734,141.9,98.5,0.46
25.08,32045.2,35175.8,0.1808,0.4335,141.9,98.5,0.46
25.1,31976.1,35133.4,-0.1069,0.3293,141.9,98.5,0.46
25.12,32026.2,35050.4,0.1018,0.1254,141.9,98.5,0.46
25.14,32021.7,34975.4,0.0829,-0.0587,141.9,98.5,0.46
25.16,32039.4,34956.0,0.1565,-0.1063,141.9,98.5,0.46
25.18,31969.0,34780.5,-0.1363,-0.5375,141.9,98.5,0.46
25.2,31898.6,34770.4,-0.4294,-0.5623,141.9,98.5,0.46
25.22,31801.5,34736.3,-0.8331,-0.6461,141.9,98.5,0.46
25.24,31869.5,34616.5,-0.5503,-0.9402,141.9,98.5,0.46
25.26,31912.7,34617.9,-0.3705,-0.9367,141.9,98.5,0.46
25.28,31781.8,34571.3,-0.9154,-1.0511,141.9,98.5,0.46
25.3,31832.5,34464.9,-0.7043,-1.3127,141.9,98.5,0.46
25.32,31768.8,34542.7,-0.9694,-1.1215,141.9,98.5,0.46
25.34,31806.4,34628.9,-0.8127,-0.9098,141.9,98.5,0.46
25.36,31950.6,34850.6,-0.213,-0.3653,141.9,98.5,0.46
25.38,32086.3,35107.5,0.3519,0.2656,141.9,98.5,0.46
25.4,32160.3,35521.6,0.6599,1.2827,141.9,98.5,0.46
25.42,32288.5,35652.0,1.1931,1.603,141.9,98.5,0.46
25.44,32302.3,35760.8,1.2507,1.8703,141.9,98.5,0.46
25.46,32213.5,35609.1,0.8813,1.4976,141.9,98.5,0.46
25.48,32111.6,35329.5,0.457,0.8109,141.9,98.5,0.46
25.5,32080.0,35181.2,0.3257,0.4468,141.9,98.5,0.46
25.52,32063.3,35057.1,0.2561,0.1419,141.9,98.5,0.46
25.54,31939.1,35130.3,-0.2607,0.3216,141.9,98.5,0.46
25.56,32014.1,35093.3,0.0513,0.2307,141.9,98.5,0.46
25.58,32021.3,34943.6,0.0811,-0.1367,141.9,98.5,0.46
25.6,31976.3,34723.7,-0.1059,-0.6769,141.9,98.5,0.46
25.62,31902.7,34669.0,-0.4122,-0.8114,141.9,98.5,0.46
25.64,31825.4,34648.2,-0.7337,-0.8624,141.9,98.5,0.46
25.66,31809.7,34633.0,-0.7992,-0.8996,141.9,98.5,0.46
25.68,31777.4,34629.1,-0.9335,-0.9094,141.9,98.5,0.46
25.7,31861.4,34593.5,-0.5839,-0.9968,141.9,98.5,0.46
25.72,31876.9,34495.3,-0.5195,-1.2378,141.9,98.5,0.46
25.74,31781.6,34455.9,-0.9163,-1.3348,141.9,98.5,0.46
25.76,31929.7,34613.5,-0.2996,-0.9476,141.9,98.5,0.46
25.78,31865.2,34831.2,-0.568,-0.4129,141.9,98.5,0.46
25.8,32062.7,35166.9,0.2536,0.4115,141.9,98.5,0.46
25.82,32277.6,35453.4,1.1477,1.1153,141.9,98.5,0.46
25.84,32211.7,35717.4,0.8737,1.7638,141.9,98.5,0.46
25.86,32342.8,35773.2,1.4193,1.9006,141.9,98.5,0.46
25.88,32239.2,35624.3,0.9879,1.5349,141.9,98.5,0.46
25.9,32240.0,35370.1,0.9912,0.9107,141.9,98.5,0.46
25.92,32112.3,35183.8,0.4598,0.4531,141.9,98.5,0.46
25.94,32084.7,35070.8,0.3451,0.1756,141.9,98.5,0.46
25.96,32002.5,35113.1,0.0031,0.2795,141.9,98.5,0.46
25.98,32040.0,34965.3,0.1593,-0.0835,141.9,98.5,0.46
26.0,31985.0,34894.8,-0.0697,-0.2567,141.9,98.5,0.46
26.02,31863.7,34878.4,-0.5743,-0.297,141.9,98.5,0.46
26.04,31909.7,34744.6,-0.383,-0.6257,141.9,98.5,0.46
26.06,31874.6,34632.0,-0.5291,-0.9022,141.9,98.5,0.46
26.08,31983.5,34616.9,-0.076,-0.9392,141.9,98.5,0.46
26.1,31898.9,34530.6,-0.4279,-1.1513,141.9,98.5,0.46
26.12,31836.7,34516.3,-0.6868,-1.1863,141.9,98.5,0.46
26.14,31807.8,34542.0,-0.807,-1.1231,141.9,98.5,0.46
26.16,31724.5,34463.9,-1.1539,-1.3151,141.9,98.5,0.46
26.18,31794.0,34516.5,-0.8645,-1.1858,141.9,98.5,0.46
26.2,31883.5,34752.8,-0.4919,-0.6055,141.9,98.5,0.46
26.22,32027.9,35011.2,0.1089,0.0291,141.9,98.5,0.46
26.24,32192.5,35390.6,0.7939,0.961,141.9,98.5,0.46
26.26,32296.1,35745.2,1.2248,1.8318,141.9,98.5,0.46
26.28,32281.5,35758.7,1.164,1.865,141.9,98.5,0.46
26.3,32294.4,35659.5,1.2179,1.6215,141.9,98.5,0.46
26.32,32165.0,35387.7,0.6792,0.9538,141.9,98.5,0.46
26.34,32177.9,35335.1,0.7329,0.8248,141.9,98.5,0.46
26.36,32105.8,35073.2,0.4329,0.1815,141.9,98.5,0.46
26.38,32008.0,35118.2,0.0259,0.292,141.9,98.5,0.46
26.4,32033.1,35072.7,0.1303,0.1802,141.9,98.5,0.46
26.42,31979.1,35040.8,-0.0945,0.1018,141.9,98.5,0.46
26.44,31923.8,34866.1,-0.3245,-0.3272,141.9,98.5,0.46
26.46,32001.5,34836.7,-0.001,-0.3994,141.9,98.5,0.46
26.48,31965.3,34617.0,-0.1515,-0.939,141.9,98.5,0.46
26.5,31886.0,34606.0,-0.4816,-0.966,141.9,98.5,0.46
26.52,31838.9,34655.8,-0.6778,-0.8438,141.9,98.5,0.46
26.54,31790.6,34539.6,-0.8787,-1.1291,141.9,98.5,0.46
26.56,31793.0,34556.3,-0.8685,-1.0881,141.9,98.5,0.46
26.58,31826.3,34376.1,-0.7302,-1.5307,141.9,98.5,0.46
26.6,31725.1,34548.3,-1.1513,-1.1077,141.9,98.5,0.46
26.62,31941.5,34721.1,-0.2506,-0.6834,141.9,98.5,0.46
26.64,32013.2,34958.4,0.0478,-0.1006,141.9,98.5,0.46
26.66,32170.4,35377.7,0.7016,0.9293,141.9,98.5,0.46
26.68,32278.0,35699.0,1.1495,1.7183,141.9,98.5,0.46
26.7,32280.4,35772.9,1.1595,1.8999,141.9,98.5,0.46
26.72,32292.8,35638.1,1.2109,1.5689,141.9,98.5,0.46
26.74,32176.7,35408.1,0.728,1.004,141.9,98.5,0.46
26.76,32156.2,35310.1,0.6425,0.7633,141.9,98.5,0.46
26.78,32111.9,35153.3,0.4583,0.3781,141.9,98.5,0.46
26.8,32157.9,35065.0,0.6496,0.1612,141.9,98.5,0.46
26.82,32049.2,35066.4,0.1972,0.1646,141.9,98.5,0.46
26.84,32007.0,34947.6,0.022,-0.1269,141.9,98.5,0.46
26.86,31829.9,34879.5,-0.7152,-0.2944,141.9,98.5,0.46
26.88,31878.5,34768.6,-0.513,-0.5666,141.9,98.5,0.46
26.9,31883.4,34780.6,-0.4926,-0.5372,141.9,98.5,0.46
26.92,31849.1,34522.5,-0.6352,-1.1711,141.9,98.5,0.46
26.94,31866.8,34652.2,-0.5616,-0.8526,141.9,98.5,0.46
26.96,31802.4,34650.9,-0.8295,-0.8558,141.9,98.5,0.46
26.98,31747.3,34465.7,-1.059,-1.3107,141.9,98.5,0.46
27.0,31895.7,34466.0,-0.4414,-1.3098,141.9,98.5,0.46
27.02,31731.7,34486.1,-1.1238,-1.2605,141.9,98.5,0.46
27.04,31789.6,34634.1,-0.8827,-0.8971,141.9,98.5,0.46
27.06,31945.3,34997.0,-0.235,-0.0057,141.9,98.5,0.46
27.08,32168.2,35362.9,0.6927,0.893,141.9,98.5,0.46
27.1,32242.0,35585.0,0.9998,1.4385,141.9,98.5,0.46
27.12,32336.7,35710.6,1.3938,1.7469,141.9,98.5,0.46
27.14,32219.7,35652.4,0.9071,1.6039,141.9,98.5,0.46
27.16,32246.0,35642.4,1.0164,1.5794,141.9,98.5,0.46
27.18,32130.7,35298.7,0.5365,0.7354,141.9,98.5,0.46
27.2,32171.2,35244.4,0.705,0.6019,141.9,98.5,0.46
27.22,32085.4,35024.6,0.3479,0.0622,141.9,98.5,0.46
27.24,32047.8,35140.1,0.1916,0.3457,141.9,98.5,0.46
27.26,31910.6,35025.5,-0.3791,0.0642,141.9,98.5,0.46
27.28,31906.9,34880.7,-0.3949,-0.2913,141.9,98.5,0.46
27.3,31947.7,34800.5,-0.2247,-0.4882,141.9,98.5,0.46
27.32,31949.7,34690.1,-0.2165,-0.7595,141.9,98.5,0.46
27.34,31891.6,34591.0,-0.4585,-1.003,141.9,98.5,0.46
27.36,31812.2,34701.7,-0.7886,-0.731,141.9,98.5,0.46
27.38,31838.3,34635.0,-0.6803,-0.8948,141.9,98.5,0.46
27.4,31856.1,34441.3,-0.6062,-1.3706,141.9,98.5,0.46
27.42,31838.8,34557.2,-0.6779,-1.0859,141.9,98.5,0.46
27.44,31788.3,34540.6,-0.8881,-1.1267,141.9,98.5,0.46
27.46,31880.6,34590.7,-0.5043,-1.0035,141.9,98.5,0.46
27.48,32020.8,34932.9,0.0793,-0.1631,141.9,98.5,0.46
27.5,32072.9,35290.8,0.296,0.7159,141.9,98.5,0.46
27.52,32256.6,35625.3,1.0605,1.5375,141.9,98.5,0.46
27.54,32383.8,35814.0,1.5897,2.0009,141.9,98.5,0.46
27.56,32301.6,35773.3,1.2476,1.9009,141.9,98.5,0.46
27.58,32367.6,35562.3,1.5225,1.3828,141.9,98.5,0.46
27.6,32142.2,35398.0,0.5845,0.9791,141.9,98.5,0.46
27.62,32086.3,35232.5,0.3516,0.5726,141.9,98.5,0.46
27.64,32157.9,35114.2,0.6496,0.2821,141.9,98.5,0.46
27.66,32098.6,35109.6,0.4031,0.2708,141.9,98.5,0.46
27.68,32080.4,35004.6,0.3272,0.013,141.9,98.5,0.46
27.7,32001.4,34921.4,-0.0017,-0.1914,141.9,98.5,0.46
27.72,31887.4,34856.2,-0.476,-0.3515,141.9,98.5,0.46
27.74,31843.9,34634.7,-0.6567,-0.8955,141.9,98.5,0.46
27.76,31782.1,34629.1,-0.914,-0.9094,141.9,98.5,0.46
27.78,31817.9,34663.8,-0.7652,-0.824,141.9,98.5,0.46
27.8,31851.0,34621.9,-0.6274,-0.9271,141.9,98.5,0.46
27.82,31793.6,34524.3,-0.866,-1.1666,141.9,98.5,0.46
27.84,31712.9,34465.2,-1.2018,-1.3118,141.9,98.5,0.46
27.86,31834.0,34410.2,-0.698,-1.4469,141.9,98.5,0.46
27.88,31838.4,34620.8,-0.6799,-0.9296,141.9,98.5,0.46
27.9,31894.9,34925.5,-0.4447,-0.1813,141.9,98.5,0.46
27.92,32094.4,35175.0,0.3856,0.4314,141.9,98.5,0.46
27.94,32124.1,35590.9,0.5091,1.453,141.9,98.5,0.46
27.96,32309.3,35727.7,1.2799,1.789,141.9,98.5,0.46
27.98,32351.8,35687.7,1.4567,1.6906,141.9,98.5,0.46
28.0,32211.2,35595.7,0.8716,1.4647,141.9,98.5,0.46
28.02,32121.5,35392.7,0.4983,0.9662,141.9,98.5,0.46
28.04,32157.4,35153.7,0.6476,0.379,141.9,98.5,0.46
28.06,32064.2,35128.1,0.2597,0.3163,141.9,98.5,0.46
28.08,32088.5,35070.0,0.3611,0.1735,141.9,98.5,0.46
28.1,32028.8,35013.8,0.1124,0.0357,141.9,98.5,0.46
28.12,31950.5,34894.2,-0.2133,-0.2581,141.9,98.5,0.46
28.14,31912.0,34792.1,-0.3733,-0.5089,141.9,98.5,0.46
28.16,31877.4,34741.3,-0.5175,-0.6338,141.9,98.5,0.46
28.18,31849.6,34705.8,-0.633,-0.7209,141.9,98.5,0.46
28.2,31846.7,34695.9,-0.6451,-0.7453,141.9,98.5,0.46
28.22,31936.6,34525.9,-0.2712,-1.1628,141.9,98.5,0.46
28.24,31829.2,34452.2,-0.7182,-1.3437,141.9,98.5,0.46
28.26,31837.0,34409.5,-0.6855,-1.4486,141.9,98.5,0.46
28.28,31691.8,34385.2,-1.2898,-1.5084,141.9,98.5,0.46
28.3,31901.2,34546.3,-0.4183,-1.1127,141.9,98.5,0.46
28.32,31933.7,34736.9,-0.2834,-0.6444,141.9,98.5,0.46
28.34,32184.7,35255.2,0.7615,0.6285,141.9,98.5,0.46
28.36,32153.8,35542.0,0.6326,1.3328,141.9,98.5,0.46
28.38,32347.4,35736.9,1.4382,1.8115,141.9,98.5,0.46
28.4,32365.8,35792.1,1.5149,1.9472,141.9,98.5,0.46
28.42,32256.8,35584.0,1.0611,1.4359,141.9,98.5,0.46
28.44,32115.5,35393.9,0.4733,0.9692,141.9,98.5,0.46
28.46,32071.0,35206.2,0.2883,0.5081,141.9,98.5,0.46
28.48,32069.9,35103.3,0.2836,0.2553,141.9,98.5,0.46
28.5,32030.9,35015.9,0.1215,0.0406,141.9,98.5,0.46
28.52,31995.5,34999.2,-0.0259,-0.0002,141.9,98.5,0.46
28.54,31986.6,34911.6,-0.0629,-0.2153,141.9,98.5,0.46
28.56,31885.2,34886.6,-0.4852,-0.2769,141.9,98.5,0.46
28.58,31848.7,34616.4,-0.637,-0.9405,141.9,98.5,0.46
28.6,31876.2,34691.7,-0.5224,-0.7556,141.9,98.5,0.46
28.62,31823.3,34682.8,-0.7425,-0.7775,141.9,98.5,0.46
28.64,31790.4,34632.6,-0.8794,-0.9006,141.9,98.5,0.46
28.66,31908.2,34597.5,-0.3894,-0.987,141.9,98.5,0.46
28.68,31751.6,34455.9,-1.0411,-1.3347,141.9,98.5,0.46
28.7,31811.4,34423.1,-0.7922,-1.4153,141.9,98.5,0.46
28.72,31811.1,34533.1,-0.7932,-1.1451,141.9,98.5,0.46
28.74,31930.0,34784.6,-0.2984,-0.5275,141.9,98.5,0.46
28.76,32135.4,35169.1,0.5561,0.4169,141.9,98.5,0.46
28.78,32262.9,35471.8,1.0868,1.1603,141.9,98.5,0.46
28.8,32186.9,35679.1,0.7706,1.6696,141.9,98.5,0.46
28.82,32299.0,35713.4,1.2371,1.7538,141.9,98.5,0.46
28.84,32315.6,35641.3,1.3059,1.5768,141.9,98.5,0.46
28.86,32241.6,35429.8,0.9981,1.0572,141.9,98.5,0.46
28.88,32100.8,35294.1,0.4121,0.7241,141.9,98.5,0.46
28.9,32069.6,35229.8,0.2824,0.5661,141.9,98.5,0.46
28.92,32032.2,35192.3,0.1268,0.4741,141.9,98.5,0.46
28.94,32140.4,35049.4,0.5768,0.1231,141.9,98.5,0.46
28.96,32072.0,34956.2,0.2925,-0.106,141.9,98.5,0.46
28.98,31999.3,34791.1,-0.0101,-0.5113,141.9,98.5,0.46
29.0,31859.3,34680.2,-0.5929,-0.7837,141.9,98.5,0.46
29.02,31951.3,34716.3,-0.2099,-0.6952,141.9,98.5,0.46
29.04,31798.8,34739.4,-0.8446,-0.6384,141.9,98.5,0.46
29.06,31767.4,34579.8,-0.9753,-1.0304,141.9,98.5,0.46
29.08,31838.2,34483.8,-0.6806,-1.2663,141.9,98.5,0.46
29.1,31777.0,34501.6,-0.9353,-1.2224,141.9,98.5,0.46
29.12,31753.1,34426.9,-1.0346,-1.4059,141.9,98.5,0.46
29.14,31748.4,34534.9,-1.0541,-1.1407,141.9,98.5,0.46
29.16,31894.5,34776.0,-0.4462,-0.5485,141.9,98.5,0.46
29.18,31905.2,35084.9,-0.4019,0.2103,141.9,98.5,0.46
29.2,32126.4,35455.2,0.5188,1.1197,141.9,98.5,0.46
29.22,32313.2,35709.3,1.296,1.7437,141.9,98.5,0.46
29.24,32313.1,35715.9,1.2957,1.76,141.9,98.5,0.46
29.26,32230.2,35648.3,0.9506,1.594,141.9,98.5,0.46
29.28,32169.1,35481.8,0.6962,1.1851,141.9,98.5,0.46
29.3,32171.0,35247.4,0.7043,0.6093,141.9,98.5,0.46
29.32,32050.4,35196.1,0.2024,0.4834,141.9,98.5,0.46
29.34,32033.1,35088.0,0.1305,0.2177,141.9,98.5,0.46
29.36,32080.5,34948.2,0.3275,-0.1256,141.9,98.5,0.46
29.38,31998.4,35022.6,-0.014,0.0571,141.9,98.5,0.46
29.4,32036.6,34954.2,0.1451,-0.1109,141.9,98.5,0.46
29.42,31859.0,34714.1,-0.5941,-0.7005,141.9,98.5,0.46
29.44,31880.2,34743.2,-0.5056,-0.629,141.9,98.5,0.46
29.46,31825.1,34617.3,-0.735,-0.9382,141.9,98.5,0.46
29.48,31866.9,34657.3,-0.5613,-0.84,141.9,98.5,0.46
29.5,31890.7,34580.5,-0.4622,-1.0288,141.9,98.5,0.46
29.52,31764.7,34528.3,-0.9864,-1.1569,141.9,98.5,0.46
29.54,31792.1,34418.5,-0.8725,-1.4266,141.9,98.5,0.46
29.56,31778.9,34477.9,-0.9272,-1.2808,141.9,98.5,0.46
29.58,31855.1,34623.1,-0.6101,-0.9241,141.9,98.5,0.46
29.6,32007.5,35097.0,0.0241,0.2399,141.9,98.5,0.46
29.62,32218.9,35403.6,0.9037,0.9929,141.9,98.5,0.46
29.64,32258.4,35680.2,1.0679,1.6724,141.9,98.5,0.46
29.66,32362.1,35718.6,1.4993,1.7666,141.9,98.5,0.46
29.68,32260.0,35589.2,1.0744,1.4488,141.9,98.5,0.46
29.7,32189.5,35552.9,0.7812,1.3596,141.9,98.5,0.46
29.72,32242.3,35367.0,1.0011,0.903,141.9,98.5,0.46
29.74,32075.8,35162.7,0.308,0.4012,141.9,98.5,0.46
29.76,32095.2,35158.9,0.3887,0.3918,141.9,98.5,0.46
29.78,32122.0,34952.4,0.5005,-0.1151,141.9,98.5,0.46
29.8,31964.8,34935.4,-0.154,-0.1569,141.9,98.5,0.46
29.82,32040.1,34911.6,0.1598,-0.2154,141.9,98.5,0.46
29.84,31930.4,34762.9,-0.2968,-0.5806,141.9,98.5,0.46
29.86,31892.6,34583.0,-0.4542,-1.0226,141.9,98.5,0.46
29.88,31870.3,34630.8,-0.5469,-0.9051,141.9,98.5,0.46
29.9,31900.2,34687.6,-0.4226,-0.7656,141.9,98.5,0.46
29.92,31889.3,34626.3,-0.468,-0.9161,141.9,98.5,0.46
29.94,31796.3,34521.0,-0.8547,-1.1749,141.9,98.5,0.46
29.96,31755.0,34471.4,-1.0267,-1.2966,141.9,98.5,0.46
29.98,31727.7,34498.2,-1.1404,-1.2308,141.9,98.5,0.46
30.0,31826.5,34650.4,-0.7291,-0.8571,141.9,98.5,0.46
30.02,31978.6,34983.7,-0.0962,-0.0383,141.9,98.5,0.46
30.04,32132.8,35343.0,0.5454,0.844,141.9,98.5,0.46
30.06,32354.6,35706.2,1.4682,1.7361,141.9,98.5,0.46
30.08,32285.2,35751.4,1.1795,1.8472,141.9,98.5,0.46
30.1,32299.7,35753.5,1.2397,1.8522,141.9,98.5,0.46
30.12,32195.5,35466.2,0.8061,1.1466,141.9,98.5,0.46
30.14,32190.6,35278.7,0.786,0.6861,141.9,98.5,0.46
30.16,32177.0,35136.8,0.7294,0.3375,141.9,98.5,0.46
30.18,31980.8,35109.4,-0.0871,0.2704,141.9,98.5,0.46
30.2,32030.7,35100.9,0.1204,0.2495,141.9,98.5,0.46
30.22,31980.1,35062.7,-0.0901,0.1555,141.9,98.5,0.46
30.24,32019.7,34929.6,0.0747,-0.1713,141.9,98.5,0.46
30.26,31877.3,34821.6,-0.5178,-0.4364,141.9,98.5,0.46
30.28,31811.0,34758.8,-0.7939,-0.5908,141.9,98.5,0.46
30.3,31793.9,34621.9,-0.8648,-0.9269,141.9,98.5,0.46
30.32,31826.1,34599.0,-0.7311,-0.9831,141.9,98.5,0.46
30.34,31794.7,34703.9,-0.8615,-0.7256,141.9,98.5,0.46
30.36,31888.0,34608.5,-0.4733,-0.9598,141.9,98.5,0.46
30.38,31783.8,34454.1,-0.907,-1.339,141.9,98.5,0.46
30.4,31757.9,34495.2,-1.0149,-1.2381,141.9,98.5,0.46
30.42,31842.3,34630.7,-0.6634,-0.9053,141.9,98.5,0.46
30.44,32016.7,34851.9,0.0621,-0.362,141.9,98.5,0.46
30.46,32130.4,35237.1,0.5354,0.5841,141.9,98.5,0.46
30.48,32310.6,35671.4,1.2852,1.6507,141.9,98.5,0.46
30.5,32250.4,35684.8,1.0345,1.6836,141.9,98.5,0.46
30.52,32358.7,35700.4,1.4854,1.7218,141.9,98.5,0.46
30.54,32146.4,35465.2,0.6018,1.1442,141.9,98.5,0.46
30.56,32158.5,35343.6,0.6521,0.8456,141.9,98.5,0.46
30.58,32132.7,35134.1,0.545,0.3311,141.9,98.5,0.46
30.6,32052.6,35046.5,0.2117,0.1159,141.9,98.5,0.46
30.62,32018.5,35050.7,0.0698,0.1263,141.9,98.5,0.46
30.64,32075.2,35016.5,0.3058,0.0421,141.9,98.5,0.46
30.66,32008.7,34937.3,0.029,-0.1524,141.9,98.5,0.46
30.68,31899.5,34850.5,-0.4255,-0.3655,141.9,98.5,0.46
30.7,31940.2,34677.4,-0.256,-0.7907,141.9,98.5,0.46
30.72,31830.4,34738.2,-0.7128,-0.6414,141.9,98.5,0.46
30.74,31855.8,34638.9,-0.6074,-0.8853,141.9,98.5,0.46
30.76,31811.8,34615.4,-0.7903,-0.943,141.9,98.5,0.46
30.78,31821.3,34507.2,-0.7511,-1.2086,141.9,98.5,0.46
30.8,31797.1,34508.3,-0.8517,-1.206,141.9,98.5,0.46
30.82,31795.7,34452.7,-0.8574,-1.3425,141.9,98.5,0.46
30.84,31872.4,34523.9,-0.5381,-1.1678,141.9,98.5,0.46
30.86,31930.0,34829.5,-0.2984,-0.4172,141.9,98.5,0.46
30.88,32084.8,35270.1,0.3456,0.665,141.9,98.5,0.46
30.9,32332.4,35558.4,1.3757,1.3731,141.9,98.5,0.46
30.92,32320.2,35810.3,1.325,1.9918,141.9,98.5,0.46
30.94,32326.0,35692.8,1.3491,1.7033,141.9,98.5,0.46
30.96,32287.3,35557.3,1.1881,1.3705,141.9,98.5,0.46
30.98,32136.3,35419.1,0.5599,1.0309,141.9,98.5,0.46
31.0,32088.0,35179.0,0.3589,0.4413,141.9,98.5,0.46
31.02,32065.2,35088.5,0.2639,0.2189,141.9,98.5,0.46
31.04,31998.2,35064.9,-0.0148,0.1612,141.9,98.5,0.46
31.06,31983.4,35027.5,-0.0765,0.0692,141.9,98.5,0.46
31.08,31976.2,34932.5,-0.1063,-0.1642,141.9,98.5,0.46
31.1,31917.5,34822.0,-0.3507,-0.4354,141.9,98.5,0.46
31.12,31957.2,34766.8,-0.1854,-0.5711,141.9,98.5,0.46
31.14,31822.7,34744.7,-0.7453,-0.6253,141.9,98.5,0.46
31.16,31871.4,34644.9,-0.5426,-0.8705,141.9,98.5,0.46
31.18,31807.0,34698.2,-0.8104,-0.7396,141.9,98.5,0.46
31.2,31832.5,34594.6,-0.7043,-0.9939,141.9,98.5,0.46
31.22,31815.5,34510.7,-0.7749,-1.2,141.9,98.5,0.46
31.24,31798.3,34480.2,-0.8468,-1.2749,141.9,98.5,0.46
31.26,31904.9,34542.1,-0.4032,-1.1229,141.9,98.5,0.46
31.28,31946.5,34724.1,-0.2301,-0.6759,141.9,98.5,0.46
31.3,32036.8,35271.0,0.1459,0.6673,141.9,98.5,0.46
31.32,32146.3,35501.1,0.6017,1.2323,141.9,98.5,0.46
31.34,32238.0,35726.1,0.9831,1.7849,141.9,98.5,0.46
31.36,32236.9,35788.7,0.9785,1.9388,141.9,98.5,0.46
31.38,32154.8,35684.7,0.6367,1.6832,141.9,98.5,0.46
31.4,32141.6,35444.3,0.5817,1.0929,141.9,98.5,0.46
31.42,32109.8,35371.4,0.4497,0.9139,141.9,98.5,0.46
31.44,32087.5,35037.3,0.3567,0.0932,141.9,98.5,0.46
31.46,32059.0,35041.5,0.2382,0.1035,141.9,98.5,0.46
31.48,32071.0,35150.2,0.2881,0.3705,141.9,98.5,0.46
31.5,31989.5,34939.5,-0.0509,-0.1469,141.9,98.5,0.46
31.52,31894.4,34842.7,-0.4469,-0.3846,141.9,98.5,0.46
31.54,31829.0,34717.8,-0.7189,-0.6914,141.9,98.5,0.46
31.56,31890.7,34628.0,-0.462,-0.912,141.9,98.5,0.46
31.58,31893.9,34648.6,-0.449,-0.8614,141.9,98.5,0.46
31.6,31903.6,34621.9,-0.4085,-0.927,141.9,98.5,0.46
31.62,31878.5,34625.9,-0.5127,-0.9173,141.9,98.5,0.46
31.64,31813.5,34542.4,-0.7832,-1.1223,141.9,98.5,0.46
31.66,31691.3,34438.3,-1.2919,-1.3779,141.9,98.5,0.46
31.68,31808.2,34545.4,-0.8053,-1.1147,141.9,98.5,0.46
31.7,31832.4,34813.3,-0.7048,-0.4568,141.9,98.5,0.46
31.72,32016.8,35085.2,0.0626,0.2109,141.9,98.5,0.46
31.74,32225.1,35454.9,0.9292,1.1189,141.9,98.5,0.46
31.76,32317.6,35705.3,1.3143,1.734,141.9,98.5,0.46
31.78,32297.8,35706.0,1.2318,1.7357,141.9,98.5,0.46
31.8,32246.8,35690.6,1.0195,1.6979,141.9,98.5,0.46
31.82,32207.5,35425.9,0.8562,1.0476,141.9,98.5,0.46
31.84,32113.1,35230.9,0.4633,0.5687,141.9,98.5,0.46
31.86,32069.1,35127.4,0.2802,0.3146,141.9,98.5,0.46
31.88,32110.5,35106.9,0.4524,0.2641,141.9,98.5,0.46
31.9,32063.7,35019.2,0.2576,0.0488,141.9,98.5,0.46
31.92,31963.8,34861.6,-0.158,-0.3381,141.9,98.5,0.46
31.94,32007.9,34904.6,0.0257,-0.2327,141.9,98.5,0.46
31.96,31867.1,34780.5,-0.5601,-0.5374,141.9,98.5,0.46
31.98,31896.5,34669.1,-0.4379,-0.8111,141.9,98.5,0.46
32.0,31849.1,34671.5,-0.6351,-0.8051,141.9,98.5,0.46
32.02,31833.9,34605.0,-0.6985,-0.9685,141.9,98.5,0.46
32.04,31882.5,34582.2,-0.4962,-1.0244,141.9,98.5,0.46
32.06,31744.4,34494.1,-1.0708,-1.2409,141.9,98.5,0.46
32.08,31709.1,34522.5,-1.2179,-1.1711,141.9,98.5,0.46
32.1,31790.3,34481.9,-0.8801,-1.2707,141.9,98.5,0.46
32.12,31876.9,34728.7,-0.5197,-0.6646,141.9,98.5,0.46
32.14,32015.4,35054.3,0.0568,0.135,141.9,98.5,0.46
32.16,32199.5,35358.4,0.8229,0.8819,141.9,98.5,0.46
32.18,32306.0,35694.6,1.2659,1.7077,141.9,98.5,0.46
32.2,32361.9,35724.2,1.4988,1.7804,141.9,98.5,0.46
32.22,32274.6,35633.1,1.1352,1.5566,141.9,98.5,0.46
32.24,32185.5,35425.3,0.7646,1.0463,141.9,98.5,0.46
32.26,32106.5,35278.5,0.4359,0.6857,141.9,98.5,0.46
32.28,32045.9,35145.4,0.1836,0.3587,141.9,98.5,0.46
32.3,32075.5,35006.2,0.307,0.017,141.9,98.5,0.46
32.32,32077.7,35107.5,0.3161,0.2657,141.9,98.5,0.46
32.34,32044.2,35014.2,0.1766,0.0365,141.9,98.5,0.46
32.36,31940.8,34808.2,-0.2536,-0.4693,141.9,98.5,0.46
32.38,31893.1,34747.0,-0.4522,-0.6196,141.9,98.5,0.46
32.4,31838.7,34692.0,-0.6784,-0.7548,141.9,98.5,0.46
32.42,31827.3,34662.3,-0.7259,-0.8277,141.9,98.5,0.46
32.44,31806.1,34686.2,-0.8141,-0.7689,141.9,98.5,0.46
32.46,31818.7,34562.3,-0.7618,-1.0733,141.9,98.5,0.46
32.48,31696.3,34537.6,-1.271,-1.1341,141.9,98.5,0.46
32.5,31837.3,34349.1,-0.6843,-1.597,141.9,98.5,0.46
32.52,31926.0,34439.8,-0.3153,-1.3743,141.9,98.5,0.46
32.54,31892.8,34747.8,-0.4533,-0.6178,141.9,98.5,0.46
32.56,32035.4,35062.9,0.1399,0.1561,141.9,98.5,0.46
32.58,32214.6,35378.1,0.8855,0.9302,141.9,98.5,0.46
32.6,32342.3,35741.9,1.4169,1.8239,141.9,98.5,0.46
32.62,32255.1,35812.6,1.0542,1.9975,141.9,98.5,0.46
32.64,32289.1,35645.1,1.1958,1.586,141.9,98.5,0.46
32.66,32161.1,35534.1,0.663,1.3136,141.9,98.5,0.46
32.68,32142.3,35224.9,0.585,0.5539,141.9,98.5,0.46
32.7,32037.2,35202.5,0.1474,0.499,141.9,98.5,0.46
32.72,32038.2,35097.7,0.1517,0.2417,141.9,98.5,0.46
32.74,32048.8,35060.7,0.1959,0.1508,141.9,98.5,0.46
32.76,31994.5,34940.0,-0.0302,-0.1457,141.9,98.5,0.46
32.78,31959.9,34861.3,-0.1741,-0.339,141.9,98.5,0.46
32.8,31846.2,34771.9,-0.6472,-0.5585,141.9,98.5,0.46
32.82,31921.0,34777.1,-0.336,-0.5457,141.9,98.5,0.46
32.84,31805.5,34655.2,-0.8165,-0.8452,141.9,98.5,0.46
32.86,31839.5,34698.0,-0.6753,-0.7401,141.9,98.5,0.46
32.88,31827.3,34550.2,-0.7259,-1.1031,141.9,98.5,0.46
32.9,31734.5,34539.7,-1.1119,-1.1289,141.9,98.5,0.46
32.92,31800.5,34490.2,-0.8375,-1.2503,141.9,98.5,0.46
32.94,31729.6,34548.4,-1.1325,-1.1075,141.9,98.5,0.46
32.96,31838.8,34672.7,-0.6779,-0.8021,141.9,98.5,0.46
32.98,31896.3,34940.6,-0.4386,-0.1442,141.9,98.5,0.46
33.0,32190.7,35294.3,0.7862,0.7245,141.9,98.5,0.46
33.02,32314.5,35631.0,1.3015,1.5515,141.9,98.5,0.46
33.04,32361.5,35831.2,1.497,2.0431,141.9,98.5,0.46
33.06,32253.5,35759.2,1.0476,1.8663,141.9,98.5,0.46
33.08,32190.9,35521.0,0.787,1.2813,141.9,98.5,0.46
33.1,32095.4,35306.3,0.3897,0.754,141.9,98.5,0.46
33.12,32036.0,35227.7,0.1424,0.561,141.9,98.5,0.46
33.14,32078.1,35084.8,0.3175,0.2099,141.9,98.5,0.46
33.16,32045.1,35048.1,0.1802,0.1198,141.9,98.5,0.46
33.18,32050.2,34986.7,0.2015,-0.0311,141.9,98.5,0.46
33.2,32010.1,34866.6,0.0346,-0.326,141.9,98.5,0.46
33.22,31942.2,34853.4,-0.2477,-0.3585,141.9,98.5,0.46
33.24,31915.2,34678.9,-0.3601,-0.787,141.9,98.5,0.46
33.26,31885.2,34697.5,-0.4849,-0.7414,141.9,98.5,0.46
33.28,31863.1,34565.0,-0.577,-1.0667,141.9,98.5,0.46
33.3,31852.7,34555.3,-0.6204,-1.0905,141.9,98.5,0.46
33.32,31912.9,34596.4,-0.3696,-0.9896,141.9,98.5,0.46
33.34,31652.1,34445.7,-1.4548,-1.3597,141.9,98.5,0.46
33.36,31756.1,34525.5,-1.0221,-1.1636,141.9,98.5,0.46
33.38,31746.4,34529.4,-1.0625,-1.1541,141.9,98.5,0.46
33.4,31954.3,34857.7,-0.1973,-0.3479,141.9,98.5,0.46
33.42,32175.2,35265.2,0.7216,0.6529,141.9,98.5,0.46
33.44,32304.0,35583.8,1.2577,1.4354,141.9,98.5,0.46
33.46,32325.4,35703.0,1.3468,1.7282,141.9,98.5,0.46
33.48,32312.8,35833.7,1.2945,2.0492,141.9,98.5,0.46
33.5,32278.3,35521.9,1.1509,1.2834,141.9,98.5,0.46
33.52,32190.7,35382.5,0.7861,0.9412,141.9,98.5,0.46
33.54,32091.1,35172.6,0.3718,0.4257,141.9,98.5,0.46
33.56,32020.8,35166.7,0.0794,0.4111,141.9,98.5,0.46
33.58,32059.0,35019.4,0.2383,0.0492,141.9,98.5,0.46
33.6,31940.4,35045.4,-0.2553,0.1131,141.9,98.5,0.46
33.62,31897.6,34880.5,-0.4332,-0.2917,141.9,98.5,0.46
33.64,31961.5,34841.0,-0.1673,-0.3888,141.9,98.5,0.46
33.66,31877.6,34752.4,-0.5168,-0.6064,141.9,98.5,0.46
33.68,31826.0,34670.2,-0.7315,-0.8083,141.9,98.5,0.46
33.7,31798.3,34752.5,-0.8465,-0.6062,141.9,98.5,0.46
33.72,31884.6,34623.0,-0.4874,-0.9243,141.9,98.5,0.46
33.74,31847.7,34511.7,-0.6412,-1.1976,141.9,98.5,0.46
33.76,31744.0,34462.4,-1.0727,-1.3187,141.9,98.5,0.46
33.78,31739.2,34412.3,-1.0925,-1.4418,141.9,98.5,0.46
33.8,31850.5,34570.4,-0.6295,-1.0533,141.9,98.5,0.46
33.82,31933.7,34880.3,-0.2833,-0.2924,141.9,98.5,0.46
33.84,32079.1,35263.9,0.3217,0.6498,141.9,98.5,0.46
33.86,32283.9,35467.4,1.1739,1.1497,141.9,98.5,0.46
33.88,32334.3,35760.5,1.3836,1.8695,141.9,98.5,0.46
33.9,32316.7,35672.7,1.3107,1.6538,141.9,98.5,0.46
33.92,32268.6,35552.4,1.1102,1.3584,141.9,98.5,0.46
33.94,32155.7,35278.9,0.6405,0.6866,141.9,98.5,0.46
33.96,32133.8,35247.1,0.5494,0.6085,141.9,98.5,0.46
33.98,32012.1,35080.6,0.0429,0.1996,141.9,98.5,0.46
34.0,32132.8,35004.3,0.5453,0.0123,141.9,98.5,0.46
34.02,32064.5,34975.8,0.2609,-0.0577,141.9,98.5,0.46
34.04,31961.0,34884.3,-0.1696,-0.2826,141.9,98.5,0.46
34.06,31962.5,34754.8,-0.1634,-0.6005,141.9,98.5,0.46
34.08,31913.4,34688.0,-0.3675,-0.7646,141.9,98.5,0.46
34.1,31885.7,34699.3,-0.4828,-0.7368,141.9,98.5,0.46
34.12,31906.2,34658.2,-0.3976,-0.8379,141.9,98.5,0.46
34.14,31747.2,34547.0,-1.0592,-1.111,141.9,98.5,0.46
34.16,31744.9,34606.4,-1.069,-0.9649,141.9,98.5,0.46
34.18,31834.2,34493.6,-0.697,-1.2421,141.9,98.5,0.46
34.2,31772.8,34434.9,-0.9529,-1.3863,141.9,98.5,0.46
34.22,31804.8,34503.8,-0.8195,-1.217,141.9,98.5,0.46
34.24,31959.0,34781.4,-0.1777,-0.5352,141.9,98.5,0.46
34.26,32087.8,35207.6,0.3579,0.5116,141.9,98.5,0.46
34.28,32247.4,35537.2,1.0221,1.3211,141.9,98.5,0.46
34.3,32344.8,35723.4,1.4276,1.7783,141.9,98.5,0.46
34.32,32313.2,35701.7,1.296,1.7251,141.9,98.5,0.46
34.34,32193.8,35624.6,0.7992,1.5356,141.9,98.5,0.46
34.36,32038.9,35383.1,0.1547,0.9426,141.9,98.5,0.46
34.38,32080.6,35300.0,0.3279,0.7385,141.9,98.5,0.46
34.4,32067.8,35077.3,0.2748,0.1915,141.9,98.5,0.46
34.42,32055.9,35150.2,0.2254,0.3705,141.9,98.5,0.46
34.44,32076.9,35029.1,0.3126,0.0732,141.9,98.5,0.46
34.46,31924.5,34971.9,-0.3215,-0.0674,141.9,98.5,0.46
34.48,31941.5,34867.7,-0.2507,-0.3232,141.9,98.5,0.46
34.5,31832.7,34655.8,-0.7033,-0.8437,141.9,98.5,0.46
34.52,31890.7,34703.5,-0.462,-0.7266,141.9,98.5,0.46
34.54,31854.3,34649.3,-0.6134,-0.8598,141.9,98.5,0.46
34.56,31808.2,34748.2,-0.8055,-0.6168,141.9,98.5,0.46
34.58,31856.6,34503.8,-0.6039,-1.2171,141.9,98.5,0.46
34.6,31703.7,34505.9,-1.2401,-1.2118,141.9,98.5,0.46
34.62,31712.8,34530.0,-1.2025,-1.1527,141.9,98.5,0.46
34.64,31783.1,34553.6,-0.9099,-1.0947,141.9,98.5,0.46
34.66,31950.8,34791.9,-0.212,-0.5094,141.9,98.5,0.46
34.68,32076.1,35066.6,0.3095,0.1652,141.9,98.5,0.46
34.7,32262.6,35548.7,1.0855,1.3493,141.9,98.5,0.46
34.72,32368.9,35723.9,1.5277,1.7797,141.9,98.5,0.46
34.74,32251.6,35708.5,1.0396,1.7418,141.9,98.5,0.46
34.76,32296.9,35651.8,1.2282,1.6025,141.9,98.5,0.46
34.78,32312.5,35397.4,1.2929,0.9776,141.9,98.5,0.46
34.8,32159.5,35300.2,0.6564,0.7391,141.9,98.5,0.46
34.82,32032.2,35149.1,0.1267,0.3679,141.9,98.5,0.46
34.84,31989.7,35158.6,-0.0501,0.3912,141.9,98.5,0.46
34.86,32048.8,34936.9,0.1959,-0.1533,141.9,98.5,0.46
34.88,31948.6,34942.0,-0.2211,-0.1408,141.9,98.5,0.46
34.9,31944.7,34836.1,-0.2375,-0.4008,141.9,98.5,0.46
34.92,31916.8,34775.5,-0.3536,-0.5497,141.9,98.5,0.46
34.94,31809.9,34748.8,-0.7985,-0.6152,141.9,98.5,0.46
34.96,31887.3,34677.6,-0.4761,-0.7901,141.9,98.5,0.46
34.98,31794.2,34667.9,-0.8636,-0.8141,141.9,98.5,0.46
35.0,31767.0,34630.2,-0.9767,-0.9066,141.9,98.5,0.46
35.02,31766.4,34423.2,-0.9794,-1.4151,141.9,98.5,0.46
35.04,31788.3,34444.2,-0.8884,-1.3634,141.9,98.5,0.46
35.06,31862.4,34440.6,-0.5801,-1.3721,141.9,98.5,0.46
35.08,31924.5,34711.0,-0.3215,-0.7081,141.9,98.5,0.46
35.1,32007.0,35105.5,0.0219,0.2607,141.9,98.5,0.46
35.12,32150.7,35434.6,0.6198,1.0692,141.9,98.5,0.46
35.14,32365.6,35647.1,1.5138,1.5909,141.9,98.5,0.46
35.16,32330.2,35717.3,1.3666,1.7635,141.9,98.5,0.46
35.18,32310.3,35662.8,1.284,1.6295,141.9,98.5,0.46
35.2,32162.3,35426.3,0.668,1.0487,141.9,98.5,0.46
35.22,32097.2,35206.5,0.3972,0.5088,141.9,98.5,0.46
35.24,32070.4,35061.0,0.2856,0.1515,141.9,98.5,0.46
35.26,32018.1,35102.8,0.0681,0.2541,141.9,98.5,0.46
35.28,31920.8,34966.8,-0.3367,-0.0799,141.9,98.5,0.46
35.3,31988.2,34985.5,-0.0563,-0.034,141.9,98.5,0.46
35.32,31931.4,34895.4,-0.2926,-0.2552,141.9,98.5,0.46
35.34,31896.6,34786.9,-0.4374,-0.5218,141.9,98.5,0.46
35.36,31857.4,34671.9,-0.6009,-0.8042,141.9,98.5,0.46
35.38,31855.2,34702.4,-0.6097,-0.7291,141.9,98.5,0.46
35.4,31811.1,34605.2,-0.7935,-0.9681,141.9,98.5,0.46
35.42,31909.5,34691.6,-0.3837,-0.7557,141.9,98.5,0.46
35.44,31893.9,34462.2,-0.4487,-1.3192,141.9,98.5,0.46
35.46,31766.1,34514.2,-0.9806,-1.1914,141.9,98.5,0.46
35.48,31723.0,34436.8,-1.1599,-1.3815,141.9,98.5,0.46
35.5,31921.0,34720.6,-0.3362,-0.6846,141.9,98.5,0.46
35.52,32044.7,35048.6,0.1786,0.121,141.9,98.5,0.46
35.54,32230.3,35306.8,0.9512,0.7552,141.9,98.5,0.46
35.56,32328.3,35668.9,1.359,1.6446,141.9,98.5,0.46
35.58,32247.9,35806.0,1.0245,1.9813,141.9,98.5,0.46
35.6,32291.1,35735.4,1.204,1.8078,141.9,98.5,0.46
35.62,32243.2,35469.4,1.0046,1.1545,141.9,98.5,0.46
35.64,32145.8,35366.4,0.5992,0.9017,141.9,98.5,0.46
35.66,32061.6,35172.6,0.2491,0.4256,141.9,98.5,0.46
35.68,31967.6,35132.6,-0.142,0.3273,141.9,98.5,0.46
35.7,32015.7,35045.8,0.0581,0.1141,141.9,98.5,0.46
35.72,32020.8,34932.6,0.0793,-0.1639,141.9,98.5,0.46
35.74,31952.3,34792.8,-0.2058,-0.5073,141.9,98.5,0.46
35.76,31953.8,34789.0,-0.1997,-0.5166,141.9,98.5,0.46
35.78,31860.6,34702.0,-0.5874,-0.7302,141.9,98.5,0.46
35.8,31835.0,34659.3,-0.694,-0.835,141.9,98.5,0.46
35.82,31741.2,34664.8,-1.0844,-0.8216,141.9,98.5,0.46
35.84,31911.2,34630.8,-0.3768,-0.9052,141.9,98.5,0.46
35.86,31843.3,34538.0,-0.6595,-1.1331,141.9,98.5,0.46
35.88,31757.3,34564.7,-1.0172,-1.0674,141.9,98.5,0.46
35.9,31774.3,34463.7,-0.9465,-1.3154,141.9,98.5,0.46
35.92,31944.3,34683.3,-0.2392,-0.776,141.9,98.5,0.46
35.94,31966.1,34946.5,-0.1484,-0.1298,141.9,98.5,0.46
35.96,32054.6,35379.7,0.22,0.9341,141.9,98.5,0.46
35.98,32262.5,35597.2,1.0849,1.4684,141.9,98.5,0.46
36.0,32319.7,35781.3,1.3232,1.9206,141.9,98.5,0.46
36.02,32350.2,35623.4,1.4498,1.5326,141.9,98.5,0.46
36.04,32247.0,35540.5,1.0205,1.3291,141.9,98.5,0.46
36.06,32154.0,35304.2,0.6336,0.7488,141.9,98.5,0.46
36.08,32063.5,35164.6,0.2569,0.406,141.9,98.5,0.46
36.1,32028.9,35049.2,0.1131,0.1226,141.9,98.5,0.46
36.12,32144.2,35005.0,0.5928,0.014,141.9,98.5,0.46
36.14,32012.8,35070.6,0.0459,0.175,141.9,98.5,0.46
36.16,32031.7,34971.2,0.1247,-0.069,141.9,98.5,0.46
36.18,31863.4,34684.4,-0.5759,-0.7734,141.9,98.5,0.46
36.2,31886.9,34630.6,-0.4779,-0.9056,141.9,98.5,0.46
36.22,31828.4,34679.6,-0.7214,-0.7854,141.9,98.5,0.46
36.24,31879.3,34733.8,-0.5096,-0.6522,141.9,98.5,0.46
36.26,31909.3,34606.0,-0.3849,-0.9661,141.9,98.5,0.46
36.28,31782.4,34554.4,-0.9127,-1.0926,141.9,98.5,0.46
36.3,31786.8,34526.9,-0.8944,-1.1604,141.9,98.5,0.46
36.32,31835.7,34435.3,-0.6911,-1.3854,141.9,98.5,0.46
36.34,31863.2,34682.0,-0.5765,-0.7794,141.9,98.5,0.46
36.36,31892.0,34877.9,-0.4566,-0.2981,141.9,98.5,0.46
36.38,32110.5,35209.4,0.4527,0.5161,141.9,98.5,0.46
36.4,32218.6,35615.3,0.9022,1.5129,141.9,98.5,0.46
36.42,32320.8,35747.4,1.3274,1.8374,141.9,98.5,0.46
36.44,32381.1,35627.8,1.5785,1.5435,141.9,98.5,0.46
36.46,32301.9,35553.2,1.249,1.3603,141.9,98.5,0.46
36.48,32113.2,35279.9,0.4638,0.6891,141.9,98.5,0.46
36.5,32028.6,35252.6,0.1119,0.622,141.9,98.5,0.46
36.52,32066.3,35132.7,0.2688,0.3275,141.9,98.5,0.46
36.54,32035.1,35046.3,0.1389,0.1154,141.9,98.5,0.46
36.56,32016.7,35062.6,0.0624,0.1553,141.9,98.5,0.46
36.58,32067.1,34868.6,0.272,-0.321,141.9,98.5,0.46
36.6,31910.8,34790.3,-0.3784,-0.5135,141.9,98.5,0.46
36.62,31859.9,34769.6,-0.5903,-0.5643,141.9,98.5,0.46
36.64,31810.0,34574.5,-0.7977,-1.0433,141.9,98.5,0.46
36.66,31881.3,34658.8,-0.5011,-0.8363,141.9,98.5,0.46
36.68,31909.2,34775.1,-0.3853,-0.5508,141.9,98.5,0.46
36.7,31741.6,34556.6,-1.0824,-1.0874,141.9,98.5,0.46
36.72,31682.1,34472.4,-1.33,-1.2942,141.9,98.5,0.46
36.74,31747.7,34484.4,-1.057,-1.2647,141.9,98.5,0.46
36.76,31814.3,34610.9,-0.7798,-0.9541,141.9,98.5,0.46
36.78,31929.2,34948.4,-0.3019,-0.125,141.9,98.5,0.46
36.8,32059.5,35195.7,0.2403,0.4822,141.9,98.5,0.46
36.82,32133.3,35629.9,0.5476,1.5488,141.9,98.5,0.46
36.84,32293.2,35687.5,1.2128,1.6903,141.9,98.5,0.46
36.86,32413.8,35783.5,1.7144,1.9259,141.9,98.5,0.46
36.88,32262.0,35601.9,1.0828,1.4799,141.9,98.5,0.46
36.9,32094.4,35389.4,0.3857,0.9582,141.9,98.5,0.46
36.92,32121.8,35159.1,0.4996,0.3924,141.9,98.5,0.46
36.94,32030.4,35106.0,0.1193,0.262,141.9,98.5,0.46
36.96,32024.7,35097.6,0.0957,0.2415,141.9,98.5,0.46
36.98,31922.8,34957.9,-0.3285,-0.1018,141.9,98.5,0.46
37.0,31934.5,34884.6,-0.2797,-0.2818,141.9,98.5,0.46
37.02,31931.6,34791.5,-0.2918,-0.5105,141.9,98.5,0.46
37.04,31890.1,34718.7,-0.4647,-0.6891,141.9,98.5,0.46
37.06,31953.2,34606.6,-0.202,-0.9646,141.9,98.5,0.46
37.08,31855.9,34594.7,-0.6069,-0.9939,141.9,98.5,0.46
37.1,31852.5,34625.7,-0.621,-0.9176,141.9,98.5,0.46
37.12,31855.5,34571.5,-0.6085,-1.0507,141.9,98.5,0.46
37.14,31762.2,34532.1,-0.9969,-1.1476,141.9,98.5,0.46
37.16,31767.6,34531.7,-0.9745,-1.1484,141.9,98.5,0.46
37.18,31866.4,34545.5,-0.5632,-1.1145,141.9,98.5,0.46
37.2,31795.0,34786.5,-0.8604,-0.5227,141.9,98.5,0.46
37.22,32102.7,35160.0,0.42,0.3947,141.9,98.5,0.46
37.24,32242.5,35521.1,1.0018,1.2815,141.9,98.5,0.46
37.26,32201.1,35786.0,0.8296,1.9322,141.9,98.5,0.46
37.28,32322.8,35795.7,1.3359,1.9559,141.9,98.5,0.46
37.3,32315.0,35604.9,1.3034,1.4872,141.9,98.5,0.46
37.32,32214.9,35392.2,0.8871,0.9649,141.9,98.5,0.46
37.34,32142.5,35232.9,0.5857,0.5738,141.9,98.5,0.46
37.36,32069.3,35142.4,0.2811,0.3514,141.9,98.5,0.46
37.38,32084.6,35144.0,0.3449,0.3554,141.9,98.5,0.46
37.4,32017.0,35111.8,0.0635,0.2763,141.9,98.5,0.46
37.42,31929.3,35011.8,-0.3013,0.0306,141.9,98.5,0.46
37.44,31899.6,34818.2,-0.4251,-0.4449,141.9,98.5,0.46
37.46,31839.3,34712.4,-0.6758,-0.7047,141.9,98.5,0.46
37.48,31806.2,34661.0,-0.8136,-0.8309,141.9,98.5,0.46
37.5,31926.7,34656.0,-0.3122,-0.8432,141.9,98.5,0.46
37.52,31943.2,34544.4,-0.2437,-1.1172,141.9,98.5,0.46
37.54,31900.5,34647.0,-0.4212,-0.8652,141.9,98.5,0.46
37.56,31730.0,34461.7,-1.1307,-1.3205,141.9,98.5,0.46
37.58,31828.0,34437.0,-0.723,-1.3811,141.9,98.5,0.46
37.6,31761.8,34526.7,-0.9985,-1.1608,141.9,98.5,0.46
37.62,31954.6,34690.4,-0.1964,-0.7588,141.9,98.5,0.46
37.64,31988.9,35081.2,-0.0536,0.201,141.9,98.5,0.46
37.66,32241.9,35439.6,0.9994,1.0813,141.9,98.5,0.46
37.68,32313.7,35778.4,1.298,1.9134,141.9,98.5,0.46
37.7,32325.6,35758.6,1.3478,1.8648,141.9,98.5,0.46
37.72,32330.8,35689.7,1.3691,1.6957,141.9,98.5,0.46
37.74,32204.1,35463.1,0.8419,1.139,141.9,98.5,0.46
37.76,32081.8,35260.7,0.3332,0.642,141.9,98.5,0.46
37.78,31963.6,35211.1,-0.1587,0.5202,141.9,98.5,0.46
37.8,32045.0,35106.6,0.1801,0.2636,141.9,98.5,0.46
37.82,32002.7,35004.3,0.004,0.0122,141.9,98.5,0.46
37.84,32028.7,34881.4,0.1123,-0.2896,141.9,98.5,0.46
37.86,31930.0,34811.9,-0.2987,-0.4604,141.9,98.5,0.46
37.88,31928.3,34710.4,-0.3056,-0.7096,141.9,98.5,0.46
37.9,31810.0,34714.2,-0.7979,-0.7004,141.9,98.5,0.46
37.92,31943.1,34674.4,-0.2442,-0.798,141.9,98.5,0.46
37.94,31804.0,34550.3,-0.8228,-1.1029,141.9,98.5,0.46
37.96,31874.0,34582.7,-0.5317,-1.0234,141.9,98.5,0.46
37.98,31819.5,34609.6,-0.7584,-0.9573,141.9,98.5,0.46
38.0,31727.2,34512.1,-1.1424,-1.1967,141.9,98.5,0.46
38.02,31800.1,34536.4,-0.8391,-1.137,141.9,98.5,0.46
38.04,31835.0,34773.6,-0.6937,-0.5545,141.9,98.5,0.46
38.06,32018.0,35032.2,0.0674,0.0807,141.9,98.5,0.46
38.08,32189.0,35309.0,0.779,0.7606,141.9,98.5,0.46
38.1,32255.9,35692.1,1.0577,1.7015,141.9,98.5,0.46
38.12,32363.8,35719.8,1.5066,1.7696,141.9,98.5,0.46
38.14,32354.5,35641.8,1.468,1.5779,141.9,98.5,0.46
38.16,32273.3,35467.0,1.1299,1.1487,141.9,98.5,0.46
38.18,32210.8,35353.2,0.87,0.8692,141.9,98.5,0.46
38.2,31981.7,35137.0,-0.0836,0.3383,141.9,98.5,0.46
38.22,31985.5,35071.4,-0.0675,0.1771,141.9,98.5,0.46
38.24,32056.0,35014.4,0.2258,0.0369,141.9,98.5,0.46
38.26,31954.6,35061.7,-0.1962,0.1532,141.9,98.5,0.46
38.28,32036.6,34859.7,0.145,-0.3429,141.9,98.5,0.46
38.3,31881.7,34727.5,-0.4997,-0.6675,141.9,98.5,0.46
38.32,31912.4,34600.0,-0.372,-0.9808,141.9,98.5,0.46
38.34,31864.8,34563.3,-0.5699,-1.0709,141.9,98.5,0.46
38.36,31805.9,34560.4,-0.8148,-1.078,141.9,98.5,0.46
38.38,31892.8,34589.6,-0.4535,-1.0062,141.9,98.5,0.46
38.4,31870.8,34498.3,-0.5447,-1.2306,141.9,98.5,0.46
38.42,31804.9,34482.7,-0.819,-1.2688,141.9,98.5,0.46
38.44,31868.1,34448.0,-0.5564,-1.3541,141.9,98.5,0.46
38.46,31937.1,34765.7,-0.269,-0.5737,141.9,98.5,0.46
38.48,31992.3,35053.8,-0.0395,0.1338,141.9,98.5,0.46
38.5,32105.3,35315.3,0.431,0.776,141.9,98.5,0.46
38.52,32321.7,35646.3,1.3312,1.5891,141.9,98.5,0.46
38.54,32266.1,35699.0,1.1001,1.7185,141.9,98.5,0.46
38.56,32304.6,35641.5,1.2601,1.5771,141.9,98.5,0.46
38.58,32194.8,35409.3,0.8031,1.007,141.9,98.5,0.46
38.6,32217.7,35319.8,0.8988,0.7872,141.9,98.5,0.46
38.62,32115.6,35214.3,0.4737,0.5281,141.9,98.5,0.46
38.64,32163.9,35062.5,0.6749,0.155,141.9,98.5,0.46
38.66,32001.4,35070.7,-0.0014,0.1753,141.9,98.5,0.46
38.68,31910.1,35021.7,-0.3812,0.0551,141.9,98.5,0.46
38.7,31882.0,34870.2,-0.4983,-0.317,141.9,98.5,0.46
38.72,31992.2,34777.7,-0.0398,-0.5444,141.9,98.5,0.46
38.74,31909.1,34783.7,-0.3855,-0.5296,141.9,98.5,0.46
38.76,31794.0,34661.1,-0.8646,-0.8306,141.9,98.5,0.46
38.78,31778.3,34695.8,-0.9298,-0.7456,141.9,98.5,0.46
38.8,31818.3,34603.2,-0.7635,-0.9728,141.9,98.5,0.46
38.82,31792.1,34489.8,-0.8724,-1.2515,141.9,98.5,0.46
38.84,31721.0,34382.8,-1.1684,-1.5143,141.9,98.5,0.46
38.86,31718.9,34426.4,-1.1768,-1.4072,141.9,98.5,0.46
38.88,31816.8,34531.8,-0.7697,-1.1483,141.9,98.5,0.46
38.9,31961.3,35023.0,-0.1685,0.0582,141.9,98.5,0.46
38.92,32167.3,35270.4,0.689,0.6658,141.9,98.5,0.46
38.94,32254.0,35704.1,1.0495,1.7309,141.9,98.5,0.46
38.96,32254.8,35768.7,1.0528,1.8896,141.9,98.5,0.46
38.98,32390.7,35745.3,1.6187,1.8322,141.9,98.5,0.46
39.0,32213.8,35526.8,0.8822,1.2955,141.9,98.5,0.46
39.02,32116.2,35345.5,0.4763,0.8503,141.9,98.5,0.46
39.04,32116.8,35089.7,0.4786,0.222,141.9,98.5,0.46
39.06,32035.3,35138.8,0.1395,0.3425,141.9,98.5,0.46
39.08,32020.0,35010.4,0.0761,0.0272,141.9,98.5,0.46
39.1,32084.2,34966.3,0.3432,-0.081,141.9,98.5,0.46
39.12,31976.3,34913.6,-0.1058,-0.2106,141.9,98.5,0.46
39.14,31868.0,34828.7,-0.5567,-0.4191,141.9,98.5,0.46
39.16,31889.0,34686.2,-0.4691,-0.7691,141.9,98.5,0.46
39.18,31844.1,34592.8,-0.6562,-0.9985,141.9,98.5,0.46
39.2,31824.7,34659.9,-0.7368,-0.8337,141.9,98.5,0.46
39.22,31883.2,34527.6,-0.4933,-1.1587,141.9,98.5,0.46
39.24,31851.6,34492.7,-0.6248,-1.2442,141.9,98.5,0.46
39.26,31792.3,34417.3,-0.8717,-1.4295,141.9,98.5,0.46
39.28,31800.0,34378.0,-0.8397,-1.5261,141.9,98.5,0.46
39.3,31891.6,34637.5,-0.4583,-0.8887,141.9,98.5,0.46
39.32,32012.7,34874.4,0.0457,-0.3069,141.9,98.5,0.46
39.34,32083.8,35333.4,0.3415,0.8205,141.9,98.5,0.46
39.36,32257.0,35640.6,1.062,1.5751,141.9,98.5,0.46
39.38,32317.6,35859.8,1.3144,2.1134,141.9,98.5,0.46
39.4,32291.8,35701.3,1.2069,1.724,141.9,98.5,0.46
39.42,32200.0,35520.6,0.8251,1.2804,141.9,98.5,0.46
39.44,32183.4,35339.4,0.7559,0.8352,141.9,98.5,0.46
39.46,32032.0,35248.8,0.1258,0.6128,141.9,98.5,0.46
39.48,32032.0,35102.8,0.126,0.2541,141.9,98.5,0.46
39.5,31997.6,35075.2,-0.0174,0.1864,141.9,98.5,0.46
39.52,32010.1,35015.2,0.0346,0.0391,141.9,98.5,0.46
39.54,31976.2,34879.1,-0.1064,-0.2952,141.9,98.5,0.46
39.56,31871.9,34710.5,-0.5402,-0.7093,141.9,98.5,0.46
39.58,31861.1,34778.8,-0.5852,-0.5416,141.9,98.5,0.46
39.6,31822.8,34662.6,-0.7447,-0.8271,141.9,98.5,0.46
39.62,31849.9,34682.6,-0.6317,-0.7778,141.9,98.5,0.46
39.64,31859.0,34596.9,-0.5941,-0.9885,141.9,98.5,0.46
39.66,31844.9,34562.3,-0.6526,-1.0734,141.9,98.5,0.46
39.68,31804.0,34468.4,-0.8228,-1.304,141.9,98.5,0.46
39.7,31693.4,34530.3,-1.2832,-1.152,141.9,98.5,0.46
39.72,31889.3,34562.6,-0.4678,-1.0726,141.9,98.5,0.46
39.74,31917.7,34804.8,-0.3496,-0.4778,141.9,98.5,0.46
39.76,32141.0,35144.3,0.5795,0.356,141.9,98.5,0.46
39.78,32243.9,35585.3,1.0076,1.4393,141.9,98.5,0.46
39.8,32300.6,35672.5,1.2436,1.6534,141.9,98.5,0.46
39.82,32411.9,35748.2,1.7065,1.8393,141.9,98.5,0.46
39.84,32272.1,35572.1,1.1249,1.4068,141.9,98.5,0.46
39.86,32204.4,35385.4,0.8431,0.9483,141.9,98.5,0.46
39.88,32110.5,35240.8,0.4524,0.593,141.9,98.5,0.46
39.9,31950.2,35167.0,-0.2146,0.4118,141.9,98.5,0.46
39.92,32125.3,35094.1,0.5142,0.2328,141.9,98.5,0.46
39.94,32045.3,34922.6,0.1813,-0.1884,141.9,98.5,0.46
39.96,32012.4,34968.3,0.0442,-0.0762,141.9,98.5,0.46
39.98,31868.7,34829.0,-0.5538,-0.4184,141.9,98.5,0.46
40.0,31926.5,34648.2,-0.3132,-0.8624,141.9,98.5,0.46
40.02,31883.1,34691.2,-0.4936,-0.7567,141.9,98.5,0.46
40.04,31822.6,34543.8,-0.7453,-1.1187,141.9,98.5,0.46
40.06,31820.2,34647.1,-0.7553,-0.8651,141.9,98.5,0.46
40.08,31806.2,34596.8,-0.8139,-0.9886,141.9,98.5,0.46
40.1,31901.7,34464.8,-0.4164,-1.3128,141.9,98.5,0.46
40.12,31707.8,34394.1,-1.2234,-1.4866,141.9,98.5,0.46
40.14,31799.2,34533.7,-0.843,-1.1436,141.9,98.5,0.46
40.16,31970.1,34853.2,-0.1316,-0.3589,141.9,98.5,0.46
40.18,32170.6,35203.8,0.7027,0.5021,141.9,98.5,0.46
40.2,32194.8,35494.0,0.8031,1.2149,141.9,98.5,0.46
40.22,32357.0,35764.8,1.4783,1.88,141.9,98.5,0.46
40.24,32318.8,35863.9,1.3194,2.1235,141.9,98.5,0.46
40.26,32289.5,35583.6,1.1972,1.4349,141.9,98.5,0.46
40.28,32250.0,35477.0,1.0329,1.1731,141.9,98.5,0.46
40.3,32137.0,35227.2,0.5627,0.5596,141.9,98.5,0.46
40.32,32123.1,35162.8,0.5049,0.4016,141.9,98.5,0.46
40.34,32000.5,34964.0,-0.0052,-0.0867,141.9,98.5,0.46
40.36,32021.2,34889.9,0.0811,-0.2686,141.9,98.5,0.46
40.38,31871.2,34933.8,-0.5431,-0.1608,141.9,98.5,0.46
40.4,31935.7,34827.5,-0.275,-0.4219,141.9,98.5,0.46
40.42,31982.4,34750.3,-0.0805,-0.6115,141.9,98.5,0.46
40.44,31854.3,34688.9,-0.6135,-0.7624,141.9,98.5,0.46
40.46,31918.8,34559.7,-0.3451,-1.0797,141.9,98.5,0.46
40.48,31836.4,34690.9,-0.6882,-0.7574,141.9,98.5,0.46
40.5,31838.2,34588.8,-0.6805,-1.0084,141.9,98.5,0.46
40.52,31736.6,34523.6,-1.1033,-1.1684,141.9,98.5,0.46
40.54,31710.8,34484.9,-1.2108,-1.2634,141.9,98.5,0.46
40.56,31841.3,34553.4,-0.6677,-1.0952,141.9,98.5,0.46
40.58,31906.2,34730.2,-0.3975,-0.661,141.9,98.5,0.46
40.6,32102.9,35109.5,0.4209,0.2707,141.9,98.5,0.46
40.62,32069.5,35450.2,0.2818,1.1073,141.9,98.5,0.46
40.64,32231.5,35603.8,0.9558,1.4846,141.9,98.5,0.46
40.66,32245.4,35746.2,1.0138,1.8344,141.9,98.5,0.46
40.68,32362.6,35610.1,1.5016,1.5001,141.9,98.5,0.46
40.7,32263.9,35435.8,1.0907,1.0721,141.9,98.5,0.46
40.72,32127.9,35247.4,0.5249,0.6092,141.9,98.5,0.46
40.74,32038.2,35211.5,0.1516,0.5211,141.9,98.5,0.46
40.76,32075.4,35065.2,0.3065,0.1617,141.9,98.5,0.46
40.78,31932.8,34951.4,-0.287,-0.1178,141.9,98.5,0.46
40.8,32017.7,34879.6,0.0664,-0.294,141.9,98.5,0.46
40.82,31988.2,34803.2,-0.0564,-0.4818,141.9,98.5,0.46
40.84,31859.4,34743.1,-0.5925,-0.6293,141.9,98.5,0.46
40.86,31778.0,34670.6,-0.9309,-0.8074,141.9,98.5,0.46
40.88,31905.2,34628.8,-0.4017,-0.91,141.9,98.5,0.46
40.9,31828.2,34583.0,-0.7221,-1.0226,141.9,98.5,0.46
40.92,31906.0,34649.9,-0.3986,-0.8583,141.9,98.5,0.46
40.94,31692.3,34506.9,-1.2878,-1.2093,141.9,98.5,0.46
40.96,31762.5,34420.4,-0.9954,-1.4219,141.9,98.5,0.46
40.98,31872.6,34449.1,-0.5375,-1.3513,141.9,98.5,0.46
41.0,31900.4,34698.2,-0.4217,-0.7395,141.9,98.5,0.46
41.02,32048.5,35063.3,0.1945,0.1571,141.9,98.5,0.46
41.04,32117.3,35433.7,0.4809,1.0669,141.9,98.5,0.46
41.06,32226.9,35777.3,0.9371,1.9107,141.9,98.5,0.46
41.08,32326.6,35760.4,1.3516,1.8693,141.9,98.5,0.46
41.1,32258.0,35681.9,1.0661,1.6765,141.9,98.5,0.46
41.12,32309.0,35512.4,1.2784,1.2602,141.9,98.5,0.46
41.14,32085.3,35308.9,0.3475,0.7603,141.9,98.5,0.46
41.16,32040.2,35218.9,0.1601,0.5393,141.9,98.5,0.46
41.18,32045.3,35072.3,0.1814,0.1793,141.9,98.5,0.46
41.2,32014.1,35057.0,0.0516,0.1417,141.9,98.5,0.46
41.22,31946.8,34887.5,-0.2289,-0.2746,141.9,98.5,0.46
41.24,32015.9,34902.8,0.0591,-0.2371,141.9,98.5,0.46
41.26,31899.7,34714.2,-0.4245,-0.7002,141.9,98.5,0.46
41.28,31801.2,34811.7,-0.8345,-0.4607,141.9,98.5,0.46
41.3,31913.8,34625.9,-0.3658,-0.9172,141.9,98.5,0.46
41.32,31905.7,34698.3,-0.3995,-0.7393,141.9,98.5,0.46
41.34,31938.2,34598.8,-0.2646,-0.9837,141.9,98.5,0.46
41.36,31857.7,34528.8,-0.5993,-1.1556,141.9,98.5,0.46
41.38,31757.1,34427.8,-1.0182,-1.4038,141.9,98.5,0.46
41.4,31845.1,34480.7,-0.6517,-1.2737,141.9,98.5,0.46
41.42,31888.5,34674.1,-0.4714,-0.7988,141.9,98.5,0.46
41.44,31987.9,34995.0,-0.0577,-0.0105,141.9,98.5,0.46
41.46,32179.9,35423.5,0.7413,1.0418,141.9,98.5,0.46
41.48,32221.6,35663.7,0.9147,1.6318,141.9,98.5,0.46
41.5,32185.2,35748.6,0.7632,1.8402,141.9,98.5,0.46
41.52,32266.4,35765.6,1.1014,1.8819,141.9,98.5,0.46
41.54,32255.1,35521.6,1.0544,1.2827,141.9,98.5,0.46
41.56,32135.7,35299.7,0.5572,0.7377,141.9,98.5,0.46
41.58,32126.0,35256.7,0.5172,0.6321,141.9,98.5,0.46
41.6,32064.7,35071.3,0.262,0.1767,141.9,98.5,0.46
41.62,31964.9,35040.2,-0.1535,0.1005,141.9,98.5,0.46
41.64,31960.9,34902.3,-0.1698,-0.2384,141.9,98.5,0.46
41.66,31972.6,34861.3,-0.1214,-0.3391,141.9,98.5,0.46
41.68,31906.2,34774.0,-0.3976,-0.5533,141.9,98.5,0.46
41.7,32016.7,34691.8,0.0621,-0.7554,141.9,98.5,0.46
41.72,31785.4,34763.4,-0.9001,-0.5794,141.9,98.5,0.46
41.74,31814.4,34685.2,-0.7795,-0.7715,141.9,98.5,0.46
41.76,31962.3,34553.9,-0.1641,-1.094,141.9,98.5,0.46
41.78,31798.1,34518.6,-0.8476,-1.1807,141.9,98.5,0.46
41.8,31797.1,34491.8,-0.8516,-1.2465,141.9,98.5,0.46
41.82,31766.0,34381.0,-0.9811,-1.5187,141.9,98.5,0.46
41.84,31962.0,34636.1,-0.1653,-0.8921,141.9,98.5,0.46
41.86,31983.4,34948.8,-0.0765,-0.1241,141.9,98.5,0.46
41.88,32170.2,35312.4,0.7008,0.7689,141.9,98.5,0.46
41.9,32286.1,35554.8,1.1833,1.3643,141.9,98.5,0.46
41.92,32345.6,35742.4,1.4307,1.8249,141.9,98.5,0.46
41.94,32260.0,35678.7,1.0748,1.6687,141.9,98.5,0.46
41.96,32196.7,35546.5,0.8112,1.3439,141.9,98.5,0.46
41.98,32213.5,35323.1,0.8813,0.7952,141.9,98.5,0.46
42.0,32132.6,35202.7,0.5446,0.4994,141.9,98.5,0.46
42.02,32158.8,35177.6,0.6535,0.4378,141.9,98.5,0.46
42.04,31972.9,35139.3,-0.1202,0.3438,141.9,98.5,0.46
42.06,32103.4,35014.8,0.4229,0.0381,141.9,98.5,0.46
42.08,31907.8,34932.0,-0.3909,-0.1653,141.9,98.5,0.46
42.1,32018.3,34728.8,0.0687,-0.6645,141.9,98.5,0.46
42.12,31925.7,34672.3,-0.3163,-0.8033,141.9,98.5,0.46
42.14,31867.2,34663.7,-0.5597,-0.8244,141.9,98.5,0.46
42.16,31901.3,34708.7,-0.4181,-0.7138,141.9,98.5,0.46
42.18,31856.7,34658.8,-0.6037,-0.8363,141.9,98.5,0.46
42.2,31859.6,34518.4,-0.5915,-1.1811,141.9,98.5,0.46
42.22,31773.8,34525.3,-0.9486,-1.1641,141.9,98.5,0.46
42.24,31709.9,34442.3,-1.2146,-1.3682,141.9,98.5,0.46
42.26,31840.8,34700.5,-0.6696,-0.734,141.9,98.5,0.46
42.28,32009.8,34867.3,0.0333,-0.3243,141.9,98.5,0.46
42.3,32191.6,35179.7,0.7898,0.4429,141.9,98.5,0.46
42.32,32288.4,35547.3,1.1929,1.3459,141.9,98.5,0.46
42.34,32373.0,35734.7,1.5447,1.8061,141.9,98.5,0.46
42.36,32279.8,35750.8,1.1572,1.8456,141.9,98.5,0.46
42.38,32240.6,35601.5,0.9938,1.4789,141.9,98.5,0.46
42.4,32184.3,35381.8,0.7597,0.9395,141.9,98.5,0.46
42.42,32141.9,35308.5,0.5832,0.7594,141.9,98.5,0.46
42.44,32040.9,35130.2,0.163,0.3214,141.9,98.5,0.46
42.46,32105.4,35043.3,0.4315,0.1079,141.9,98.5,0.46
42.48,31993.1,35039.4,-0.036,0.0984,141.9,98.5,0.46
42.5,32022.9,34885.6,0.088,-0.2792,141.9,98.5,0.46
42.52,31892.1,34795.2,-0.4564,-0.5013,141.9,98.5,0.46
42.54,31893.9,34772.2,-0.4489,-0.5579,141.9,98.5,0.46
42.56,31870.3,34677.4,-0.5469,-0.7907,141.9,98.5,0.46
42.58,31804.2,34720.9,-0.8221,-0.6838,141.9,98.5,0.46
42.6,31792.0,34686.2,-0.8729,-0.769,141.9,98.5,0.46
42.62,31886.2,34638.2,-0.4807,-0.8868,141.9,98.5,0.46
42.64,31777.1,34440.7,-0.935,-1.372,141.9,98.5,0.46
42.66,31725.9,34409.0,-1.1479,-1.4499,141.9,98.5,0.46
42.68,31756.9,34592.0,-1.0189,-1.0003,141.9,98.5,0.46
42.7,31902.6,34794.9,-0.4125,-0.502,141.9,98.5,0.46
42.72,31986.0,35087.0,-0.0657,0.2153,141.9,98.5,0.46
42.74,32239.9,35527.4,0.991,1.297,141.9,98.5,0.46
42.76,32287.0,35737.8,1.187,1.8137,141.9,98.5,0.46
42.78,32250.8,35774.2,1.0364,1.9031,141.9,98.5,0.46
42.8,32230.4,35518.3,0.9516,1.2747,141.9,98.5,0.46
42.82,32115.6,35372.8,0.4738,0.9174,141.9,98.5,0.46
42.84,32113.1,35261.6,0.4634,0.6442,141.9,98.5,0.46
42.86,32016.3,35070.9,0.0607,0.1757,141.9,98.5,0.46
42.88,32078.4,35072.5,0.3188,0.1798,141.9,98.5,0.46
42.9,31994.8,35104.0,-0.0288,0.2571,141.9,98.5,0.46
42.92,32004.6,34989.4,0.0118,-0.0244,141.9,98.5,0.46
42.94,31899.3,34896.8,-0.4262,-0.2518,141.9,98.5,0.46
42.96,31870.5,34743.8,-0.5462,-0.6275,141.9,98.5,0.46
42.98,31848.5,34615.6,-0.6378,-0.9425,141.9,98.5,0.46
43.0,31807.0,34757.0,-0.8103,-0.5951,141.9,98.5,0.46
43.02,31838.7,34595.1,-0.6786,-0.9927,141.9,98.5,0.46
43.04,31832.2,34483.1,-0.7056,-1.2678,141.9,98.5,0.46
43.06,31736.9,34385.9,-1.102,-1.5067,141.9,98.5,0.46
43.08,31783.8,34410.2,-0.9067,-1.4469,141.9,98.5,0.46
43.1,31757.9,34538.1,-1.0149,-1.1328,141.9,98.5,0.46
43.12,31861.3,34809.2,-0.5846,-0.4669,141.9,98.5,0.46
43.14,32136.2,35075.5,0.5594,0.1871,141.9,98.5,0.46
43.16,32199.3,35495.9,0.8221,1.2196,141.9,98.5,0.46
43.18,32351.9,35796.5,1.4571,1.9578,141.9,98.5,0.46
43.2,32424.8,35797.0,1.7603,1.9592,141.9,98.5,0.46
43.22,32275.5,35721.9,1.1392,1.7747,141.9,98.5,0.46
43.24,32191.9,35397.4,0.7912,0.9776,141.9,98.5,0.46
43.26,31985.6,35256.4,-0.0671,0.6313,141.9,98.5,0.46
43.28,32182.2,35038.3,0.7508,0.0958,141.9,98.5,0.46
43.3,32121.3,35091.6,0.4974,0.2267,141.9,98.5,0.46
43.32,32031.0,35032.8,0.1218,0.0822,141.9,98.5,0.46
43.34,31973.2,34899.9,-0.1187,-0.2443,141.9,98.5,0.46
43.36,31940.7,34893.4,-0.254,-0.2602,141.9,98.5,0.46
43.38,31912.2,34732.0,-0.3725,-0.6565,141.9,98.5,0.46
43.4,31864.2,34752.9,-0.5723,-0.6053,141.9,98.5,0.46
43.42,31910.4,34631.6,-0.3801,-0.9031,141.9,98.5,0.46
43.44,31816.7,34611.0,-0.7699,-0.9536,141.9,98.5,0.46
43.46,31889.3,34523.2,-0.4678,-1.1693,141.9,98.5,0.46
43.48,31828.1,34530.3,-0.7226,-1.152,141.9,98.5,0.46
43.5,31819.3,34444.8,-0.7591,-1.362,141.9,98.5,0.46
43.52,31742.4,34453.6,-1.0794,-1.3403,141.9,98.5,0.46
43.54,31887.8,34734.1,-0.4742,-0.6513,141.9,98.5,0.46
43.56,32091.0,35020.0,0.3715,0.0507,141.9,98.5,0.46
43.58,32217.7,35523.8,0.8987,1.2882,141.9,98.5,0.46
43.6,32355.3,35716.0,1.4712,1.7601,141.9,98.5,0.46
43.62,32382.2,35711.8,1.5831,1.75,141.9,98.5,0.46
43.64,32255.5,35712.3,1.0558,1.751,141.9,98.5,0.46
43.66,32108.6,35450.8,0.4445,1.1089,141.9,98.5,0.46
43.68,32122.6,35211.7,0.5031,0.5217,141.9,98.5,0.46
43.7,32142.1,35218.0,0.584,0.537,141.9,98.5,0.46
43.72,32067.6,35078.6,0.2739,0.1946,141.9,98.5,0.46
43.74,32000.5,35064.1,-0.0051,0.159,141.9,98.5,0.46
43.76,31911.7,34971.4,-0.3747,-0.0685,141.9,98.5,0.46
43.78,31830.0,34893.7,-0.7145,-0.2594,141.9,98.5,0.46
43.8,31805.7,34659.8,-0.8157,-0.8339,141.9,98.5,0.46
43.82,31809.5,34742.1,-0.7999,-0.6317,141.9,98.5,0.46
43.84,31847.4,34701.2,-0.6423,-0.7321,141.9,98.5,0.46
43.86,31955.5,34665.5,-0.1925,-0.82,141.9,98.5,0.46
43.88,31724.1,34586.4,-1.1554,-1.0141,141.9,98.5,0.46
43.9,31771.3,34431.0,-0.9588,-1.3959,141.9,98.5,0.46
43.92,31786.6,34412.6,-0.8953,-1.441,141.9,98.5,0.46
43.94,31804.4,34540.8,-0.8211,-1.1262,141.9,98.5,0.46
43.96,31839.7,34745.7,-0.6744,-0.6229,141.9,98.5,0.46
43.98,32086.3,34982.8,0.352,-0.0407,141.9,98.5,0.46
44.0,32092.4,35387.6,0.3772,0.9537,141.9,98.5,0.46
44.02,32251.5,35704.3,1.0391,1.7316,141.9,98.5,0.46
44.04,32298.4,35829.4,1.2346,2.0388,141.9,98.5,0.46
44.06,32283.3,35702.2,1.1715,1.7263,141.9,98.5,0.46
44.08,32243.1,35400.4,1.0043,0.9851,141.9,98.5,0.46
44.1,32149.2,35317.4,0.6137,0.7813,141.9,98.5,0.46
44.12,32112.0,35230.3,0.4586,0.5674,141.9,98.5,0.46
44.14,32100.3,35074.8,0.4101,0.1854,141.9,98.5,0.46
44.16,32079.0,35160.8,0.3213,0.3966,141.9,98.5,0.46
44.18,31961.9,34862.2,-0.1659,-0.3367,141.9,98.5,0.46
44.2,31937.6,34866.9,-0.2668,-0.3252,141.9,98.5,0.46
44.22,31939.9,34782.7,-0.2573,-0.532,141.9,98.5,0.46
44.24,31837.2,34718.0,-0.6849,-0.691,141.9,98.5,0.46
44.26,31842.8,34706.7,-0.6614,-0.7187,141.9,98.5,0.46
44.28,31824.8,34696.7,-0.7364,-0.7434,141.9,98.5,0.46
44.3,31917.5,34616.9,-0.3504,-0.9393,141.9,98.5,0.46
44.32,31797.0,34573.3,-0.8521,-1.0463,141.9,98.5,0.46
44.34,31881.1,34544.6,-0.502,-1.1167,141.9,98.5,0.46
44.36,31843.5,34442.9,-0.6586,-1.3667,141.9,98.5,0.46
44.38,31906.9,34598.7,-0.3946,-0.9839,141.9,98.5,0.46
44.4,31991.7,34960.5,-0.0417,-0.0953,141.9,98.5,0.46
44.42,32176.5,35338.7,0.7272,0.8335,141.9,98.5,0.46
44.44,32222.6,35638.9,0.919,1.5709,141.9,98.5,0.46
44.46,32278.7,35796.7,1.1522,1.9584,141.9,98.5,0.46
44.48,32286.6,35737.9,1.1853,1.8139,141.9,98.5,0.46
44.5,32194.3,35530.0,0.8012,1.3034,141.9,98.5,0.46
44.52,32116.1,35332.6,0.4756,0.8185,141.9,98.5,0.46
44.54,32056.3,35210.8,0.227,0.5195,141.9,98.5,0.46
44.56,32073.1,35068.3,0.2969,0.1693,141.9,98.5,0.46
44.58,31950.8,35048.3,-0.2119,0.1203,141.9,98.5,0.46
44.6,31921.9,35007.7,-0.3324,0.0206,141.9,98.5,0.46
44.62,31888.6,34852.4,-0.4708,-0.361,141.9,98.5,0.46
44.64,31947.2,34773.6,-0.2268,-0.5544,141.9,98.5,0.46
44.66,31877.0,34647.7,-0.5191,-0.8637,141.9,98.5,0.46
44.68,31878.8,34549.0,-0.5118,-1.106,141.9,98.5,0.46
44.7,31883.6,34669.6,-0.4917,-0.8098,141.9,98.5,0.46
44.72,31860.9,34606.7,-0.586,-0.9642,141.9,98.5,0.46
44.74,31838.3,34471.3,-0.68,-1.2969,141.9,98.5,0.46
44.76,31816.1,34520.1,-0.7724,-1.177,141.9,98.5,0.46
44.78,31863.8,34466.3,-0.5741,-1.3092,141.9,98.5,0.46
44.8,31853.1,34604.3,-0.6187,-0.9701,141.9,98.5,0.46
44.82,31960.0,34939.2,-0.1735,-0.1477,141.9,98.5,0.46
44.84,32192.2,35256.7,0.7924,0.6322,141.9,98.5,0.46
44.86,32290.3,35685.3,1.2007,1.6848,141.9,98.5,0.46
44.88,32270.6,35778.5,1.1188,1.9138,141.9,98.5,0.46
44.9,32347.4,35711.5,1.4383,1.7491,141.9,98.5,0.46
44.92,32319.3,35587.9,1.3214,1.4456,141.9,98.5,0.46
44.94,32136.9,35376.8,0.5622,0.9271,141.9,98.5,0.46
44.96,32093.3,35183.0,0.381,0.4511,141.9,98.5,0.46
44.98,32010.6,35104.3,0.037,0.2577,141.9,98.5,0.46
45.0,32109.0,35088.3,0.4461,0.2184,141.9,98.5,0.46
45.02,32005.1,35006.4,0.0139,0.0173,141.9,98.5,0.46
45.04,31943.3,34890.2,-0.2434,-0.268,141.9,98.5,0.46
45.06,31846.0,34773.5,-0.6479,-0.5547,141.9,98.5,0.46
45.08,31862.0,34707.0,-0.5816,-0.718,141.9,98.5,0.46
45.1,31784.3,34563.5,-0.905,-1.0704,141.9,98.5,0.46
45.12,31876.8,34620.9,-0.5199,-0.9295,141.9,98.5,0.46
45.14,31874.8,34678.5,-0.5284,-0.788,141.9,98.5,0.46
45.16,31738.2,34566.2,-1.0968,-1.0637,141.9,98.5,0.46
45.18,31767.5,34423.4,-0.9749,-1.4145,141.9,98.5,0.46
45.2,31827.0,34403.3,-0.7271,-1.4637,141.9,98.5,0.46
45.22,31866.0,34563.9,-0.565,-1.0694,141.9,98.5,0.46
45.24,31948.2,34895.8,-0.2229,-0.2542,141.9,98.5,0.46
45.26,32202.0,35218.8,0.8332,0.5389,141.9,98.5,0.46
45.28,32229.4,35623.0,0.9472,1.5318,141.9,98.5,0.46
45.3,32290.3,35776.4,1.2009,1.9086,141.9,98.5,0.46
45.32,32234.8,35719.0,0.9699,1.7677,141.9,98.5,0.46
45.34,32276.2,35557.0,1.1421,1.3697,141.9,98.5,0.46
45.36,32193.5,35426.1,0.798,1.0482,141.9,98.5,0.46
45.38,32096.3,35209.9,0.3936,0.5171,141.9,98.5,0.46
45.4,32138.0,35072.9,0.5668,0.1808,141.9,98.5,0.46
45.42,32015.9,35079.0,0.0591,0.1957,141.9,98.5,0.46
45.44,32003.7,35037.1,0.008,0.0927,141.9,98.5,0.46
45.46,32074.3,34905.5,0.3019,-0.2305,141.9,98.5,0.46
45.48,31903.5,34857.2,-0.4087,-0.3491,141.9,98.5,0.46
45.5,31871.0,34783.3,-0.5439,-0.5306,141.9,98.5,0.46
45.52,31856.2,34654.0,-0.6059,-0.8481,141.9,98.5,0.46
45.54,31891.7,34572.4,-0.4578,-1.0487,141.9,98.5,0.46
45.56,31804.7,34688.8,-0.8198,-0.7627,141.9,98.5,0.46
45.58,31833.5,34547.8,-0.7001,-1.1089,141.9,98.5,0.46
45.6,31756.4,34477.9,-1.0208,-1.2807,141.9,98.5,0.46
45.62,31818.2,34459.7,-0.7638,-1.3253,141.9,98.5,0.46
45.64,31824.4,34537.2,-0.7379,-1.1349,141.9,98.5,0.46
45.66,31898.8,34833.1,-0.4285,-0.4082,141.9,98.5,0.46
45.68,32028.7,35217.6,0.1122,0.5362,141.9,98.5,0.46
45.7,32208.5,35525.2,0.8604,1.2915,141.9,98.5,0.46
