timestamp,raw_red,raw_ir,filtered_red,filtered_ir,heart_rate,spo2,ac_dc_ratio
0.0,32043.4,35009.8,0.7372,0.1169,148.2,97.7,0.491
0.02,31984.7,35002.2,-0.252,0.0254,148.2,97.7,0.491
0.04,32064.4,35052.5,1.0921,0.6321,148.2,97.7,0.491
0.06,32017.8,35065.6,0.3052,0.7897,148.2,97.7,0.491
0.08,32007.3,35090.7,0.128,1.0927,148.2,97.7,0.491
0.1,31999.4,35079.2,-0.0043,0.9542,148.2,97.7,0.491
0.12,32082.4,35003.2,1.3962,0.0365,148.2,97.7,0.491
0.14,32025.5,35036.3,0.4363,0.4357,148.2,97.7,0.491
0.16,32128.8,35044.0,2.1778,0.5289,148.2,97.7,0.491
0.18,32001.3,34950.1,0.0276,-0.6031,148.2,97.7,0.491
0.2,32105.8,34965.9,1.79,-0.4132,148.2,97.7,0.491
0.22,31990.2,34975.7,-0.1599,-0.2951,148.2,97.7,0.491
0.24,31978.9,35041.0,-0.3507,0.4931,148.2,97.7,0.491
0.26,32023.9,34958.7,0.4092,-0.5002,148.2,97.7,0.491
0.28,31950.1,34923.1,-0.8364,-0.9299,148.2,97.7,0.491
0.3,31986.6,35020.0,-0.2205,0.2401,148.2,97.7,0.491
0.32,31969.2,34978.5,-0.5146,-0.2615,148.2,97.7,0.491
0.34,32019.6,34894.4,0.3353,-1.2751,148.2,97.7,0.491
0.36,32049.0,35001.0,0.8327,0.011,148.2,97.7,0.491
0.38,31935.3,34881.1,-1.0867,-1.4359,148.2,97.7,0.491
0.4,31900.1,35020.7,-1.6807,0.2484,148.2,97.7,0.491
0.42,32051.4,35103.7,0.8728,1.2492,148.2,97.7,0.491
0.44,32001.2,35050.7,0.0258,0.6105,148.2,97.7,0.491
0.46,32009.4,35125.7,0.1646,1.515,148.2,97.7,0.491
0.48,32026.8,35080.3,0.4568,0.9669,148.2,97.7,0.491
0.5,32057.2,35109.2,0.9698,1.3159,148.2,97.7,0.491
0.52,32055.6,35054.7,0.9432,0.6584,148.2,97.7,0.491
0.54,32019.6,35050.7,0.3357,0.6098,148.2,97.7,0.491
0.56,32047.9,35053.0,0.8129,0.638,148.2,97.7,0.491
0.58,32093.4,34995.1,1.5805,-0.0611,148.2,97.7,0.491
0.6,31867.3,35003.4,-2.2336,0.0398,148.2,97.7,0.491
0.62,31901.1,35054.5,-1.6633,0.6553,148.2,97.7,0.491
0.64,31859.4,34980.9,-2.3669,-0.2316,148.2,97.7,0.491
0.66,31990.0,34906.4,-0.1628,-1.1312,148.2,97.7,0.491
0.68,31986.5,35022.3,-0.2226,0.2669,148.2,97.7,0.491
0.7,32016.2,34862.2,0.2789,-1.6642,148.2,97.7,0.491
0.72,31921.9,34940.8,-1.3127,-0.7164,148.2,97.7,0.491
0.74,32013.3,34859.6,0.2295,-1.6956,148.2,97.7,0.491
0.76,31915.7,34990.8,-1.4166,-0.1123,148.2,97.7,0.491
0.78,31970.3,34886.4,-0.4958,-1.372,148.2,97.7,0.491
0.8,31958.9,35053.2,-0.6874,0.6404,148.2,97.7,0.491
0.82,31972.4,35129.0,-0.4609,1.5551,148.2,97.7,0.491
0.84,32107.3,35146.8,1.8152,1.7693,148.2,97.7,0.491
0.86,32009.2,35108.7,0.1602,1.3095,148.2,97.7,0.491
0.88,32071.4,35097.6,1.2102,1.1757,148.2,97.7,0.491
0.9,32085.2,35126.7,1.4433,1.5275,148.2,97.7,0.491
0.92,32016.7,35089.8,0.2866,1.0813,148.2,97.7,0.491
0.94,31962.4,34994.8,-0.629,-0.0639,148.2,97.7,0.491
0.96,31963.2,35106.1,-0.6162,1.278,148.2,97.7,0.491
0.98,31959.4,34920.1,-0.6799,-0.9658,148.2,97.7,0.491
1.0,31945.1,34930.4,-0.9204,-0.8417,148.2,97.7,0.491
1.02,31874.3,35017.2,-2.1148,0.2053,148.2,97.7,0.491
1.04,32024.7,34930.3,0.4217,-0.8426,148.2,97.7,0.491
1.06,32024.7,34958.3,0.4213,-0.5043,148.2,97.7,0.491
1.08,32020.7,34839.5,0.3552,-1.9382,148.2,97.7,0.491
1.1,32045.6,34857.9,0.7749,-1.7159,148.2,97.7,0.491
1.12,31965.6,34857.4,-0.5742,-1.7223,148.2,97.7,0.491
1.14,31911.5,34933.8,-1.487,-0.8005,148.2,97.7,0.491
1.16,32036.1,34853.8,0.6148,-1.7652,148.2,97.7,0.491
1.18,31911.6,35005.9,-1.4864,0.0692,148.2,97.7,0.491
1.2,31950.6,35096.8,-0.8284,1.1659,148.2,97.7,0.491
1.22,32020.9,35054.7,0.3577,0.6584,148.2,97.7,0.491
1.24,32028.7,35153.8,0.4901,1.8544,148.2,97.7,0.491
1.26,31978.4,35117.4,-0.3595,1.4149,148.2,97.7,0.491
1.28,32119.6,35182.4,2.0238,2.1985,148.2,97.7,0.491
1.3,32004.3,35070.8,0.0773,0.8523,148.2,97.7,0.491
1.32,31993.2,35006.5,-0.1086,0.0768,148.2,97.7,0.491
1.34,32146.7,35032.4,2.481,0.3896,148.2,97.7,0.491
1.36,31933.2,35040.1,-1.1216,0.4816,148.2,97.7,0.491
1.38,32002.0,34983.4,0.0387,-0.2021,148.2,97.7,0.491
1.4,32021.4,34972.9,0.3671,-0.3282,148.2,97.7,0.491
1.42,31936.3,34920.8,-1.0699,-0.9574,148.2,97.7,0.491
1.44,31955.5,34863.6,-0.745,-1.647,148.2,97.7,0.491
1.46,32023.5,34899.3,0.4017,-1.217,148.2,97.7,0.491
1.48,32077.4,34928.3,1.3115,-0.8661,148.2,97.7,0.491
1.5,31896.9,35049.4,-1.7331,0.5947,148.2,97.7,0.491
1.52,31943.6,34980.7,-0.9463,-0.235,148.2,97.7,0.491
1.54,31908.7,34960.5,-1.5344,-0.4787,148.2,97.7,0.491
1.56,31993.8,34972.8,-0.0984,-0.3304,148.2,97.7,0.491
1.58,32033.4,34954.7,0.5688,-0.5479,148.2,97.7,0.491
1.6,31994.7,34982.7,-0.0839,-0.2104,148.2,97.7,0.491
1.62,31977.6,35004.7,-0.3729,0.0552,148.2,97.7,0.491
1.64,32078.8,35015.7,1.3347,0.1874,148.2,97.7,0.491
1.66,31996.1,35058.5,-0.0609,0.7045,148.2,97.7,0.491
1.68,32049.9,35111.3,0.8474,1.3417,148.2,97.7,0.491
1.7,32038.7,35032.7,0.6577,0.3928,148.2,97.7,0.491
1.72,31977.1,34995.8,-0.3806,-0.052,148.2,97.7,0.491
1.74,32044.4,34993.1,0.7536,-0.0846,148.2,97.7,0.491
1.76,32002.8,35060.6,0.0526,0.7295,148.2,97.7,0.491
1.78,32041.7,35003.2,0.7096,0.0371,148.2,97.7,0.491
1.8,32029.6,34966.0,0.505,-0.4117,148.2,97.7,0.491
1.82,31962.1,34964.0,-0.6348,-0.4364,148.2,97.7,0.491
1.84,32078.5,34920.7,1.3297,-0.9584,148.2,97.7,0.491
1.86,32001.4,35028.6,0.0294,0.3433,148.2,97.7,0.491
1.88,31901.1,35052.6,-1.6624,0.6334,148.2,97.7,0.491
1.9,32000.2,35005.4,0.0091,0.0632,148.2,97.7,0.491
1.92,31922.5,34981.2,-1.3014,-0.2281,148.2,97.7,0.491
1.94,31913.4,34914.0,-1.4549,-1.0387,148.2,97.7,0.491
1.96,32011.2,34955.5,0.1942,-0.5385,148.2,97.7,0.491
1.98,31908.2,34907.4,-1.5429,-1.1186,148.2,97.7,0.491
2.0,31961.2,34971.4,-0.6495,-0.3465,148.2,97.7,0.491
2.02,31990.4,34919.6,-0.1558,-0.9722,148.2,97.7,0.491
2.04,32006.7,35128.5,0.1179,1.5484,148.2,97.7,0.491
2.06,32100.4,35069.6,1.6993,0.8378,148.2,97.7,0.491
2.08,31969.2,35119.1,-0.5144,1.4353,148.2,97.7,0.491
2.1,32021.4,35125.7,0.3667,1.515,148.2,97.7,0.491
2.12,31984.1,34947.9,-0.2632,-0.6299,148.2,97.7,0.491
2.14,32063.0,35011.8,1.0687,0.1403,148.2,97.7,0.491
2.16,32034.2,35052.5,0.5821,0.6322,148.2,97.7,0.491
2.18,31996.8,34990.6,-0.0483,-0.1151,148.2,97.7,0.491
2.2,32030.5,35010.6,0.5197,0.1267,148.2,97.7,0.491
2.22,31987.0,34897.4,-0.2143,-1.2394,148.2,97.7,0.491
2.24,31960.7,34965.6,-0.658,-0.4162,148.2,97.7,0.491
2.26,32079.0,34935.4,1.3386,-0.7811,148.2,97.7,0.491
2.28,31961.4,34999.0,-0.6459,-0.0137,148.2,97.7,0.491
2.3,31906.4,34967.3,-1.5731,-0.3964,148.2,97.7,0.491
2.32,31955.4,34802.8,-0.7469,-2.3807,148.2,97.7,0.491
2.34,32022.1,34932.8,0.3778,-0.8122,148.2,97.7,0.491
2.36,31986.0,34841.1,-0.23,-1.9192,148.2,97.7,0.491
2.38,31935.8,34880.9,-1.0769,-1.4381,148.2,97.7,0.491
2.4,31920.4,34881.7,-1.3368,-1.4283,148.2,97.7,0.491
2.42,32094.4,35004.1,1.598,0.0479,148.2,97.7,0.491
2.44,32166.5,35034.3,2.8137,0.4118,148.2,97.7,0.491
2.46,32015.1,35098.2,0.2594,1.1833,148.2,97.7,0.491
2.48,32074.0,35291.5,1.2532,3.5157,148.2,97.7,0.491
2.5,31963.8,35095.2,-0.6059,1.1467,148.2,97.7,0.491
2.52,32027.7,35080.4,0.4731,0.9683,148.2,97.7,0.491
2.54,32014.8,35115.7,0.2554,1.3941,148.2,97.7,0.491
2.56,32003.8,35039.5,0.0693,0.4743,148.2,97.7,0.491
2.58,31999.7,34988.3,-0.0004,-0.1423,148.2,97.7,0.491
2.6,32065.0,35010.8,1.1017,0.1289,148.2,97.7,0.491
2.62,31999.5,34969.5,-0.0024,-0.3699,148.2,97.7,0.491
2.64,31936.9,34953.9,-1.0597,-0.5579,148.2,97.7,0.491
2.66,31914.5,34923.7,-1.4377,-0.9227,148.2,97.7,0.491
2.68,31931.1,34874.2,-1.1563,-1.5188,148.2,97.7,0.491
2.7,31927.3,34949.5,-1.2206,-0.6108,148.2,97.7,0.491
2.72,31978.1,34964.6,-0.3638,-0.4284,148.2,97.7,0.491
2.74,31966.8,34897.1,-0.5551,-1.243,148.2,97.7,0.491
2.76,31948.2,34878.2,-0.8691,-1.4713,148.2,97.7,0.491
2.78,31944.8,34847.3,-0.9257,-1.8441,148.2,97.7,0.491
2.8,32058.3,34902.0,0.9887,-1.1841,148.2,97.7,0.491
2.82,32051.2,34935.9,0.87,-0.7747,148.2,97.7,0.491
2.84,31946.0,35099.4,-0.9061,1.1977,148.2,97.7,0.491
2.86,32063.7,35062.3,1.0808,0.7503,148.2,97.7,0.491
2.88,31989.3,35218.9,-0.175,2.639,148.2,97.7,0.491
2.9,32097.2,35174.5,1.646,2.1032,148.2,97.7,0.491
2.92,32076.2,35097.0,1.2916,1.1685,148.2,97.7,0.491
2.94,31951.2,35159.2,-0.8186,1.9192,148.2,97.7,0.491
2.96,31921.0,35015.1,-1.3278,0.18,148.2,97.7,0.491
2.98,32037.3,35067.4,0.6346,0.8117,148.2,97.7,0.491
3.0,32032.2,34996.0,0.5479,-0.0498,148.2,97.7,0.491
3.02,31966.6,35066.6,-0.5581,0.8013,148.2,97.7,0.491
3.04,31971.2,35067.4,-0.4799,0.8111,148.2,97.7,0.491
3.06,31931.4,35030.9,-1.1514,0.3707,148.2,97.7,0.491
3.08,31955.0,34943.4,-0.7541,-0.6848,148.2,97.7,0.491
3.1,31919.4,34882.1,-1.3541,-1.4245,148.2,97.7,0.491
3.12,32003.5,34885.4,0.0644,-1.384,148.2,97.7,0.491
3.14,31982.6,34933.8,-0.2877,-0.8008,148.2,97.7,0.491
3.16,31949.1,34854.3,-0.8536,-1.759,148.2,97.7,0.491
3.18,31993.8,34936.8,-0.0999,-0.7637,148.2,97.7,0.491
3.2,31930.3,34915.1,-1.1708,-1.0261,148.2,97.7,0.491
3.22,31898.8,35006.7,-1.7019,0.0791,148.2,97.7,0.491
3.24,32144.9,35010.6,2.4499,0.1263,148.2,97.7,0.491
3.26,32033.4,35155.5,0.5689,1.8746,148.2,97.7,0.491
3.28,31968.0,35133.8,-0.5336,1.6127,148.2,97.7,0.491
3.3,32059.8,35133.0,1.0137,1.6031,148.2,97.7,0.491
3.32,32036.4,35016.4,0.6188,0.1959,148.2,97.7,0.491
3.34,32046.2,35068.9,0.7856,0.8297,148.2,97.7,0.491
3.36,32104.9,35045.6,1.7759,0.5481,148.2,97.7,0.491
3.38,32029.9,34924.8,0.5097,-0.9085,148.2,97.7,0.491
3.4,31938.7,35070.9,-1.0283,0.8542,148.2,97.7,0.491
3.42,31972.0,34981.4,-0.4663,-0.2263,148.2,97.7,0.491
3.44,31958.2,35069.9,-0.6993,0.8417,148.2,97.7,0.491
3.46,31933.6,34887.9,-1.114,-1.3536,148.2,97.7,0.491
3.48,31924.5,34942.3,-1.268,-0.6974,148.2,97.7,0.491
3.5,31997.0,34894.8,-0.0446,-1.2709,148.2,97.7,0.491
3.52,31961.5,34993.4,-0.6434,-0.0808,148.2,97.7,0.491
3.54,32055.0,34992.3,0.9328,-0.0948,148.2,97.7,0.491
3.56,31954.6,34953.8,-0.7597,-0.5587,148.2,97.7,0.491
3.58,31947.0,34926.4,-0.8894,-0.889,148.2,97.7,0.491
3.6,32005.5,35008.8,0.0979,0.1042,148.2,97.7,0.491
3.62,31921.1,34981.4,-1.3253,-0.2264,148.2,97.7,0.491
3.64,31953.6,34944.9,-0.7773,-0.6666,148.2,97.7,0.491
3.66,31983.8,35045.5,-0.2678,0.5469,148.2,97.7,0.491
3.68,31969.2,34991.9,-0.5139,-0.0994,148.2,97.7,0.491
3.7,31974.2,35131.0,-0.4305,1.579,148.2,97.7,0.491
3.72,32077.8,35049.1,1.3176,0.5906,148.2,97.7,0.491
3.74,32013.1,35097.0,0.2263,1.169,148.2,97.7,0.491
3.76,32151.0,35069.5,2.5525,0.8373,148.2,97.7,0.491
3.78,31997.4,34979.4,-0.0383,-0.2505,148.2,97.7,0.491
3.8,32013.5,35073.6,0.2331,0.8861,148.2,97.7,0.491
3.82,31981.7,35033.9,-0.303,0.4078,148.2,97.7,0.491
3.84,31981.7,35010.5,-0.3029,0.1246,148.2,97.7,0.491
3.86,31969.2,34979.9,-0.5134,-0.2437,148.2,97.7,0.491
3.88,31919.5,35006.3,-1.3522,0.074,148.2,97.7,0.491
3.9,31910.1,34959.1,-1.5119,-0.4948,148.2,97.7,0.491
3.92,31971.5,35028.6,-0.4757,0.343,148.2,97.7,0.491
3.94,31998.9,34914.5,-0.0139,-1.033,148.2,97.7,0.491
3.96,31955.9,34970.0,-0.7385,-0.363,148.2,97.7,0.491
3.98,31982.9,34942.3,-0.2836,-0.6977,148.2,97.7,0.491
4.0,31941.8,34849.8,-0.9769,-1.8138,148.2,97.7,0.491
4.02,32032.1,34927.9,0.5465,-0.8721,148.2,97.7,0.491
4.04,32046.1,34926.1,0.7839,-0.8937,148.2,97.7,0.491
4.06,32087.7,35039.1,1.4854,0.4699,148.2,97.7,0.491
4.08,32060.4,35128.1,1.0242,1.5442,148.2,97.7,0.491
4.1,32002.4,35186.7,0.0455,2.2511,148.2,97.7,0.491
4.12,32056.2,35084.4,0.9535,1.0165,148.2,97.7,0.491
4.14,32056.6,35031.5,0.9595,0.3787,148.2,97.7,0.491
4.16,31984.1,35035.0,-0.2637,0.4204,148.2,97.7,0.491
4.18,31970.1,34964.9,-0.4996,-0.4253,148.2,97.7,0.491
4.2,31988.7,35054.5,-0.1859,0.6558,148.2,97.7,0.491
4.22,32020.4,34950.0,0.3496,-0.6053,148.2,97.7,0.491
4.24,32019.7,34930.3,0.3385,-0.8424,148.2,97.7,0.491
4.26,32013.2,34980.8,0.2278,-0.233,148.2,97.7,0.491
4.28,31955.8,34967.7,-0.7409,-0.3908,148.2,97.7,0.491
4.3,31944.2,34900.5,-0.9367,-1.2015,148.2,97.7,0.491
4.32,32009.0,34954.4,0.1578,-0.5518,148.2,97.7,0.491
4.34,32025.2,34911.7,0.4302,-1.067,148.2,97.7,0.491
4.36,32000.1,34869.7,0.0065,-1.5731,148.2,97.7,0.491
4.38,31973.7,34917.0,-0.4382,-1.0031,148.2,97.7,0.491
4.4,31990.0,34933.8,-0.1631,-0.8005,148.2,97.7,0.491
4.42,32000.9,35006.6,0.0208,0.078,148.2,97.7,0.491
4.44,31912.7,35031.7,-1.4668,0.3812,148.2,97.7,0.491
4.46,31972.0,35056.1,-0.4677,0.6754,148.2,97.7,0.491
4.48,32051.1,35055.1,0.8677,0.6631,148.2,97.7,0.491
4.5,32096.9,34994.2,1.6394,-0.0714,148.2,97.7,0.491
4.52,32061.2,35146.7,1.0378,1.7687,148.2,97.7,0.491
4.54,31998.0,35021.5,-0.0279,0.2576,148.2,97.7,0.491
4.56,31957.9,35067.2,-0.7056,0.8095,148.2,97.7,0.491
4.58,32003.9,35064.0,0.0712,0.7704,148.2,97.7,0.491
4.6,32015.0,35031.4,0.2585,0.3768,148.2,97.7,0.491
4.62,32038.6,35076.8,0.6564,0.9251,148.2,97.7,0.491
4.64,32063.8,35019.4,1.0809,0.2323,148.2,97.7,0.491
4.66,31957.1,34957.8,-0.7181,-0.5111,148.2,97.7,0.491
4.68,31979.0,34903.6,-0.3492,-1.1642,148.2,97.7,0.491
4.7,31958.8,34986.8,-0.6889,-0.1605,148.2,97.7,0.491
4.72,31974.5,34926.4,-0.4255,-0.8901,148.2,97.7,0.491
4.74,31955.9,35005.6,-0.7389,0.0654,148.2,97.7,0.491
4.76,32027.7,34869.4,0.4727,-1.5779,148.2,97.7,0.491
4.78,31987.8,34869.8,-0.201,-1.5726,148.2,97.7,0.491
4.8,31929.6,34874.1,-1.1823,-1.5205,148.2,97.7,0.491
4.82,31977.3,34902.1,-0.3782,-1.1828,148.2,97.7,0.491
4.84,31989.2,34992.8,-0.1768,-0.0888,148.2,97.7,0.491
4.86,32027.8,35092.8,0.4743,1.1178,148.2,97.7,0.491
4.88,32067.6,35135.5,1.146,1.6329,148.2,97.7,0.491
4.9,32059.8,35125.2,1.0148,1.5088,148.2,97.7,0.491
4.92,32105.4,35164.7,1.7838,1.9851,148.2,97.7,0.491
4.94,31962.9,35123.6,-0.6212,1.4899,148.2,97.7,0.491
4.96,31969.8,35052.4,-0.504,0.6305,148.2,97.7,0.491
4.98,32042.9,35077.9,0.7295,0.9386,148.2,97.7,0.491
5.0,31986.1,34999.8,-0.2288,-0.0038,148.2,97.7,0.491
5.02,32019.0,35044.0,0.3254,0.5296,148.2,97.7,0.491
5.04,32046.3,35058.1,0.7871,0.6999,148.2,97.7,0.491
5.06,32001.3,34968.0,0.0266,-0.3874,148.2,97.7,0.491
5.08,32021.5,34924.7,0.3681,-0.9105,148.2,97.7,0.491
5.1,31987.4,34919.0,-0.2075,-0.9785,148.2,97.7,0.491
5.12,31938.2,34997.5,-1.038,-0.032,148.2,97.7,0.491
5.14,32024.5,34845.6,0.4192,-1.8642,148.2,97.7,0.491
5.16,31863.7,35016.6,-2.2935,0.199,148.2,97.7,0.491
5.18,31992.4,34892.7,-0.123,-1.2966,148.2,97.7,0.491
5.2,31927.7,34906.8,-1.2139,-1.1257,148.2,97.7,0.491
5.22,31972.5,34959.6,-0.459,-0.4887,148.2,97.7,0.491
5.24,31923.2,34943.6,-1.2898,-0.6825,148.2,97.7,0.491
5.26,31942.0,35056.4,-0.973,0.6793,148.2,97.7,0.491
5.28,31976.3,35094.0,-0.3946,1.1325,148.2,97.7,0.491
5.3,32100.9,35122.7,1.7076,1.4787,148.2,97.7,0.491
5.32,32024.3,35040.0,0.4146,0.4804,148.2,97.7,0.491
5.34,32027.1,35158.4,0.4633,1.9098,148.2,97.7,0.491
5.36,31978.8,35003.9,-0.3525,0.0452,148.2,97.7,0.491
5.38,31941.1,34997.4,-0.9889,-0.0325,148.2,97.7,0.491
5.4,32042.1,35044.7,0.7152,0.5376,148.2,97.7,0.491
5.42,31983.7,35013.3,-0.2698,0.1589,148.2,97.7,0.491
5.44,31972.8,34988.5,-0.4535,-0.1404,148.2,97.7,0.491
5.46,31989.6,35020.5,-0.1702,0.2457,148.2,97.7,0.491
5.48,32124.7,34960.0,2.1087,-0.4838,148.2,97.7,0.491
5.5,32075.5,34895.0,1.2794,-1.269,148.2,97.7,0.491
5.52,32034.8,34924.5,0.5932,-0.9131,148.2,97.7,0.491
5.54,32006.9,34953.4,0.1216,-0.564,148.2,97.7,0.491
5.56,31973.2,34900.1,-0.4475,-1.2068,148.2,97.7,0.491
5.58,31930.5,34891.6,-1.1676,-1.3097,148.2,97.7,0.491
5.6,31893.6,34898.0,-1.7888,-1.2324,148.2,97.7,0.491
5.62,31932.3,34875.7,-1.1361,-1.5008,148.2,97.7,0.491
5.64,32026.8,34905.8,0.4577,-1.1386,148.2,97.7,0.491
5.66,31905.8,34969.4,-1.5843,-0.3707,148.2,97.7,0.491
5.68,31947.2,35072.6,-0.8851,0.8744,148.2,97.7,0.491
5.7,32072.2,35097.8,1.2233,1.1788,148.2,97.7,0.491
5.72,32028.7,35130.1,0.49,1.5678,148.2,97.7,0.491
5.74,31961.8,35095.8,-0.6387,1.1546,148.2,97.7,0.491
5.76,32059.1,35019.4,1.0021,0.2325,148.2,97.7,0.491
5.78,32033.1,35049.7,0.563,0.5982,148.2,97.7,0.491
5.8,31996.3,34991.1,-0.0576,-0.1087,148.2,97.7,0.491
5.82,31954.2,34966.3,-0.7667,-0.4086,148.2,97.7,0.491
5.84,32018.4,34988.5,0.3151,-0.14,148.2,97.7,0.491
5.86,32044.4,35022.7,0.7538,0.2718,148.2,97.7,0.491
5.88,32010.7,34946.4,0.1865,-0.6485,148.2,97.7,0.491
5.9,31959.1,34862.2,-0.685,-1.6645,148.2,97.7,0.491
5.92,32100.1,34997.5,1.6941,-0.032,148.2,97.7,0.491
5.94,31906.0,34979.9,-1.581,-0.2446,148.2,97.7,0.491
5.96,31926.3,35026.6,-1.2374,0.3197,148.2,97.7,0.491
5.98,31908.9,34947.3,-1.5307,-0.637,148.2,97.7,0.491
6.0,31959.1,34866.9,-0.6847,-1.6071,148.2,97.7,0.491
6.02,31934.9,34884.7,-1.0927,-1.3921,148.2,97.7,0.491
6.04,32043.3,34853.4,0.7364,-1.7709,148.2,97.7,0.491
6.06,32002.8,34949.2,0.0533,-0.615,148.2,97.7,0.491
6.08,32054.9,35010.4,0.9324,0.1242,148.2,97.7,0.491
6.1,31968.3,35075.9,-0.5287,0.9138,148.2,97.7,0.491
6.12,32107.6,35118.7,1.8211,1.4302,148.2,97.7,0.491
6.14,32095.6,35106.2,1.6174,1.2791,148.2,97.7,0.491
6.16,31957.6,35074.1,-0.7103,0.892,148.2,97.7,0.491
6.18,32035.8,35067.2,0.6087,0.8094,148.2,97.7,0.491
6.2,31934.6,35046.2,-1.098,0.5563,148.2,97.7,0.491
6.22,32026.4,35057.6,0.4514,0.6927,148.2,97.7,0.491
6.24,31965.8,34952.4,-0.5713,-0.5758,148.2,97.7,0.491
6.26,32018.2,35006.0,0.3124,0.0704,148.2,97.7,0.491
6.28,32100.6,34947.0,1.7017,-0.6415,148.2,97.7,0.491
6.3,31995.3,34980.6,-0.0747,-0.236,148.2,97.7,0.491
6.32,31976.6,34900.1,-0.3892,-1.2067,148.2,97.7,0.491
6.34,32037.2,34919.8,0.6326,-0.9698,148.2,97.7,0.491
6.36,31972.1,35005.0,-0.4647,0.0584,148.2,97.7,0.491
6.38,31952.0,34866.0,-0.8049,-1.618,148.2,97.7,0.491
6.4,31948.6,34999.1,-0.8616,-0.0121,148.2,97.7,0.491
6.42,31896.1,34794.7,-1.7477,-2.4783,148.2,97.7,0.491
6.44,31953.1,35007.4,-0.786,0.0875,148.2,97.7,0.491
6.46,31939.4,35005.3,-1.0171,0.0621,148.2,97.7,0.491
6.48,31940.7,35039.5,-0.9949,0.4754,148.2,97.7,0.491
6.5,31927.8,35077.1,-1.212,0.9287,148.2,97.7,0.491
6.52,32021.1,35090.0,0.3621,1.0843,148.2,97.7,0.491
6.54,32126.5,35109.5,2.1392,1.32,148.2,97.7,0.491
6.56,32073.1,35054.5,1.2389,0.6555,148.2,97.7,0.491
6.58,32080.8,35039.5,1.3681,0.4746,148.2,97.7,0.491
6.6,31977.8,34994.3,-0.3697,-0.0699,148.2,97.7,0.491
6.62,31995.2,35006.3,-0.0756,0.0742,148.2,97.7,0.491
6.64,32067.4,35135.7,1.1417,1.635,148.2,97.7,0.491
6.66,32004.3,35051.0,0.0785,0.6139,148.2,97.7,0.491
6.68,31961.5,34983.3,-0.6437,-0.2026,148.2,97.7,0.491
6.7,31912.2,35020.8,-1.4751,0.2496,148.2,97.7,0.491
6.72,32009.6,35060.4,0.1674,0.727,148.2,97.7,0.491
6.74,31988.7,34980.3,-0.185,-0.2397,148.2,97.7,0.491
6.76,31889.6,35025.1,-1.8567,0.3007,148.2,97.7,0.491
6.78,31983.8,35002.2,-0.2681,0.0251,148.2,97.7,0.491
6.8,31921.6,34870.7,-1.3174,-1.5622,148.2,97.7,0.491
6.82,32078.7,34885.0,1.3334,-1.3891,148.2,97.7,0.491
6.84,31894.8,34875.9,-1.7688,-1.4994,148.2,97.7,0.491
6.86,31972.7,35041.7,-0.4559,0.5009,148.2,97.7,0.491
6.88,31975.2,35003.9,-0.4132,0.0456,148.2,97.7,0.491
6.9,32082.7,35141.2,1.4007,1.7014,148.2,97.7,0.491
6.92,31998.0,35158.3,-0.0291,1.9076,148.2,97.7,0.491
6.94,32060.4,35097.6,1.0246,1.1755,148.2,97.7,0.491
6.96,31985.7,35015.9,-0.2361,0.1899,148.2,97.7,0.491
6.98,32028.5,35032.7,0.4855,0.3923,148.2,97.7,0.491
7.0,31985.4,35095.1,-0.2412,1.1453,148.2,97.7,0.491
7.02,32056.9,34970.8,0.9661,-0.3534,148.2,97.7,0.491
7.04,31971.5,35022.6,-0.476,0.2706,148.2,97.7,0.491
7.06,32019.7,34908.4,0.3372,-1.107,148.2,97.7,0.491
7.08,32019.5,34985.5,0.3347,-0.1765,148.2,97.7,0.491
7.1,31962.0,34950.5,-0.6365,-0.5984,148.2,97.7,0.491
7.12,31992.6,34954.2,-0.1191,-0.5542,148.2,97.7,0.491
7.14,31964.4,34930.9,-0.5952,-0.8356,148.2,97.7,0.491
7.16,31940.3,34912.8,-1.0014,-1.0531,148.2,97.7,0.491
7.18,32018.1,34908.5,0.3099,-1.1061,148.2,97.7,0.491
7.2,31952.6,34989.7,-0.794,-0.1255,148.2,97.7,0.491
7.22,31855.7,34941.7,-2.4293,-0.705,148.2,97.7,0.491
7.24,31946.9,34869.7,-0.8896,-1.5736,148.2,97.7,0.491
7.26,31892.3,35008.3,-1.8123,0.0981,148.2,97.7,0.491
7.28,32018.4,35044.9,0.3166,0.5402,148.2,97.7,0.491
7.3,32102.9,35116.0,1.7415,1.3974,148.2,97.7,0.491
7.32,32103.2,35124.7,1.746,1.5025,148.2,97.7,0.491
7.34,32117.5,35030.3,1.9868,0.3644,148.2,97.7,0.491
7.36,32132.4,35173.0,2.2389,2.0858,148.2,97.7,0.491
7.38,32080.1,35061.6,1.3568,0.7411,148.2,97.7,0.491
7.4,31982.1,35079.9,-0.2964,0.9618,148.2,97.7,0.491
7.42,31978.7,34988.0,-0.3539,-0.146,148.2,97.7,0.491
7.44,31923.7,34945.3,-1.2823,-0.6617,148.2,97.7,0.491
7.46,32015.5,34921.2,0.2677,-0.9527,148.2,97.7,0.491
7.48,31957.1,34918.9,-0.718,-0.9803,148.2,97.7,0.491
7.5,31884.0,34930.9,-1.951,-0.8353,148.2,97.7,0.491
7.52,32008.7,34985.3,0.1527,-0.1789,148.2,97.7,0.491
7.54,31870.3,34842.6,-2.1821,-1.9008,148.2,97.7,0.491
7.56,31935.5,34973.9,-1.0824,-0.3165,148.2,97.7,0.491
7.58,31971.5,34956.0,-0.475,-0.532,148.2,97.7,0.491
7.6,31977.5,34971.0,-0.3736,-0.3512,148.2,97.7,0.491
7.62,31950.1,34942.7,-0.8357,-0.6929,148.2,97.7,0.491
7.64,31921.4,34918.0,-1.3204,-0.991,148.2,97.7,0.491
7.66,31971.9,34958.6,-0.4692,-0.5015,148.2,97.7,0.491
7.68,32003.0,34979.4,0.0553,-0.2504,148.2,97.7,0.491
7.7,32037.4,34989.9,0.6371,-0.123,148.2,97.7,0.491
7.72,32080.5,35070.0,1.3629,0.843,148.2,97.7,0.491
7.74,32059.8,35130.2,1.0147,1.5697,148.2,97.7,0.491
7.76,32072.3,35127.0,1.2253,1.5309,148.2,97.7,0.491
7.78,32029.5,35049.3,0.5022,0.5936,148.2,97.7,0.491
7.8,32062.6,35030.5,1.0621,0.3658,148.2,97.7,0.491
7.82,31990.5,35018.2,-0.1545,0.218,148.2,97.7,0.491
7.84,32025.1,35042.3,0.4288,0.509,148.2,97.7,0.491
7.86,32008.7,34997.4,0.1525,-0.0334,148.2,97.7,0.491
7.88,31983.7,35029.6,-0.2704,0.3557,148.2,97.7,0.491
7.9,31971.4,34918.0,-0.4774,-0.9905,148.2,97.7,0.491
7.92,32042.6,34954.5,0.7244,-0.5505,148.2,97.7,0.491
7.94,31963.6,34916.1,-0.6087,-1.0143,148.2,97.7,0.491
7.96,32006.2,34957.4,0.1093,-0.516,148.2,97.7,0.491
7.98,31984.9,34961.7,-0.2489,-0.4637,148.2,97.7,0.491
8.0,32001.0,34908.4,0.0227,-1.1074,148.2,97.7,0.491
8.02,31934.4,34863.6,-1.1006,-1.6478,148.2,97.7,0.491
8.04,31977.7,34931.5,-0.3712,-0.8275,148.2,97.7,0.491
8.06,31935.9,34848.7,-1.0756,-1.8269,148.2,97.7,0.491
8.08,32069.6,34949.8,1.1792,-0.607,148.2,97.7,0.491
8.1,32097.8,35024.9,1.6553,0.2989,148.2,97.7,0.491
8.12,31987.0,35074.5,-0.2142,0.8972,148.2,97.7,0.491
8.14,32184.1,35167.6,3.111,2.0205,148.2,97.7,0.491
8.16,32145.4,35073.3,2.4588,0.8832,148.2,97.7,0.491
8.18,31999.8,35092.7,0.0014,1.1163,148.2,97.7,0.491
8.2,31938.5,35070.7,-1.0314,0.851,148.2,97.7,0.491
8.22,32017.9,34979.1,0.3075,-0.2544,148.2,97.7,0.491
8.24,32070.0,35088.0,1.187,1.06,148.2,97.7,0.491
8.26,32010.9,34855.1,0.1889,-1.7494,148.2,97.7,0.491
8.28,32078.7,34982.6,1.3337,-0.2121,148.2,97.7,0.491
8.3,31965.7,34890.1,-0.5739,-1.327,148.2,97.7,0.491
8.32,31978.2,34926.9,-0.3619,-0.8837,148.2,97.7,0.491
8.34,31996.6,34973.2,-0.052,-0.3255,148.2,97.7,0.491
8.36,31980.0,34885.8,-0.3312,-1.3797,148.2,97.7,0.491
8.38,32082.3,34965.2,1.3932,-0.422,148.2,97.7,0.491
8.4,32043.8,35069.5,0.7442,0.8368,148.2,97.7,0.491
8.42,32012.3,34894.0,0.2132,-1.2811,148.2,97.7,0.491
8.44,31950.0,34969.0,-0.8379,-0.376,148.2,97.7,0.491
8.46,31992.6,34940.3,-0.1193,-0.7214,148.2,97.7,0.491
8.48,32059.6,34950.5,1.0115,-0.5984,148.2,97.7,0.491
8.5,31997.3,35114.2,-0.0405,1.3762,148.2,97.7,0.491
8.52,31999.8,35099.7,0.0021,1.2013,148.2,97.7,0.491
8.54,32042.6,35170.0,0.7236,2.0489,148.2,97.7,0.491
8.56,32112.6,35100.8,1.9057,1.214,148.2,97.7,0.491
8.58,32075.6,35186.7,1.2809,2.2514,148.2,97.7,0.491
8.6,32042.5,35051.9,0.7219,0.6243,148.2,97.7,0.491
8.62,32061.9,35077.5,1.0493,0.9336,148.2,97.7,0.491
8.64,32020.3,35017.2,0.348,0.2061,148.2,97.7,0.491
8.66,32012.4,35044.6,0.2146,0.536,148.2,97.7,0.491
8.68,31959.6,35042.0,-0.6765,0.5048,148.2,97.7,0.491
8.7,31971.0,35021.4,-0.4832,0.2565,148.2,97.7,0.491
8.72,32019.1,34941.5,0.3273,-0.7074,148.2,97.7,0.491
8.74,31888.9,34892.7,-1.8688,-1.2963,148.2,97.7,0.491
8.76,32013.3,34943.3,0.2299,-0.6862,148.2,97.7,0.491
8.78,31967.4,34928.7,-0.5437,-0.8613,148.2,97.7,0.491
8.8,31932.7,34898.9,-1.1295,-1.2214,148.2,97.7,0.491
8.82,31982.5,34850.3,-0.2905,-1.8074,148.2,97.7,0.491
8.84,32026.8,34983.6,0.4577,-0.1992,148.2,97.7,0.491
8.86,31944.2,34867.6,-0.9367,-1.5987,148.2,97.7,0.491
8.88,31883.7,34905.7,-1.957,-1.1397,148.2,97.7,0.491
8.9,32025.8,35018.6,0.4402,0.2228,148.2,97.7,0.491
8.92,32024.4,35006.7,0.4176,0.0796,148.2,97.7,0.491
8.94,32020.6,35119.9,0.3531,1.445,148.2,97.7,0.491
8.96,32068.4,35108.1,1.1592,1.3026,148.2,97.7,0.491
8.98,32043.0,35171.8,0.7303,2.0708,148.2,97.7,0.491
9.0,32143.1,35047.9,2.4191,0.5767,148.2,97.7,0.491
9.02,31958.0,35076.1,-0.7036,0.9162,148.2,97.7,0.491
9.04,32035.4,35058.6,0.6018,0.705,148.2,97.7,0.491
9.06,31986.3,34961.2,-0.2251,-0.4704,148.2,97.7,0.491
9.08,32017.3,35043.3,0.2979,0.5207,148.2,97.7,0.491
9.1,32009.9,35028.2,0.1716,0.3391,148.2,97.7,0.491
9.12,32027.3,35029.4,0.4667,0.3534,148.2,97.7,0.491
9.14,31925.8,34962.1,-1.2471,-0.4593,148.2,97.7,0.491
9.16,31993.2,34921.6,-0.1089,-0.9472,148.2,97.7,0.491
9.18,31975.3,34976.9,-0.4113,-0.2799,148.2,97.7,0.491
9.2,32003.6,34979.0,0.0654,-0.2553,148.2,97.7,0.491
9.22,31953.5,34924.7,-0.7796,-0.9105,148.2,97.7,0.491
9.24,31881.3,34910.5,-1.9971,-1.0815,148.2,97.7,0.491
9.26,32094.8,34883.1,1.6045,-1.4124,148.2,97.7,0.491
9.28,31899.9,34832.0,-1.6838,-2.0279,148.2,97.7,0.491
9.3,31951.5,34875.4,-0.8125,-1.505,148.2,97.7,0.491
9.32,31975.2,35047.9,-0.4137,0.5762,148.2,97.7,0.491
9.34,32016.5,35111.7,0.283,1.3456,148.2,97.7,0.491
9.36,32110.2,35134.4,1.8638,1.6199,148.2,97.7,0.491
9.38,32021.5,35174.5,0.3674,2.1039,148.2,97.7,0.491
9.4,32083.8,35082.0,1.4196,0.9876,148.2,97.7,0.491
9.42,31898.0,34977.0,-1.7152,-0.2786,148.2,97.7,0.491
9.44,31947.0,34989.1,-0.8882,-0.1327,148.2,97.7,0.491
9.46,32036.9,34998.2,0.6276,-0.0236,148.2,97.7,0.491
9.48,31892.0,35108.7,-1.8159,1.3094,148.2,97.7,0.491
9.5,31996.7,35103.2,-0.0509,1.2434,148.2,97.7,0.491
9.52,31979.6,34931.5,-0.338,-0.8279,148.2,97.7,0.491
9.54,32008.9,34922.6,0.1556,-0.9356,148.2,97.7,0.491
9.56,32036.5,34931.6,0.6203,-0.8274,148.2,97.7,0.491
9.58,32052.3,34968.3,0.888,-0.3837,148.2,97.7,0.491
9.6,32022.2,34869.1,0.3799,-1.5815,148.2,97.7,0.491
9.62,31933.0,34904.5,-1.1247,-1.1543,148.2,97.7,0.491
9.64,32006.6,34943.6,0.116,-0.6827,148.2,97.7,0.491
9.66,32014.2,34907.4,0.2442,-1.1187,148.2,97.7,0.491
9.68,32052.1,34983.6,0.8848,-0.1996,148.2,97.7,0.491
9.7,32011.1,34974.0,0.1929,-0.3151,148.2,97.7,0.491
9.72,32021.6,34983.1,0.3697,-0.2053,148.2,97.7,0.491
9.74,32045.4,35147.0,0.7707,1.7722,148.2,97.7,0.491
9.76,32062.7,35198.2,1.0634,2.389,148.2,97.7,0.491
9.78,31964.4,35201.3,-0.5951,2.4266,148.2,97.7,0.491
9.8,32031.8,35057.8,0.5412,0.6957,148.2,97.7,0.491
9.82,32096.9,35126.2,1.6401,1.5212,148.2,97.7,0.491
9.84,31972.9,34951.4,-0.4516,-0.5876,148.2,97.7,0.491
9.86,32067.7,35068.0,1.1472,0.819,148.2,97.7,0.491
9.88,32044.3,35053.4,0.7532,0.6431,148.2,97.7,0.491
9.9,32010.0,34976.2,0.1736,-0.2891,148.2,97.7,0.491
9.92,32007.3,34972.4,0.1278,-0.3341,148.2,97.7,0.491
9.94,31906.5,35050.2,-1.5727,0.6039,148.2,97.7,0.491
9.96,31922.2,34954.2,-1.3068,-0.5541,148.2,97.7,0.491
9.98,32049.6,34997.4,0.8419,-0.0326,148.2,97.7,0.491
10.0,32006.7,34912.2,0.1186,-1.0608,148.2,97.7,0.491
10.02,31968.1,34929.6,-0.5329,-0.8514,148.2,97.7,0.491
10.04,31970.0,34912.7,-0.5009,-1.0548,148.2,97.7,0.491
10.06,31947.6,34885.8,-0.8779,-1.3799,148.2,97.7,0.491
10.08,32013.1,34954.6,0.2256,-0.5498,148.2,97.7,0.491
10.1,31948.5,34976.9,-0.8634,-0.2802,148.2,97.7,0.491
10.12,31990.7,35019.8,-0.1515,0.2374,148.2,97.7,0.491
10.14,32094.9,35153.4,1.606,1.8492,148.2,97.7,0.491
10.16,31993.6,35081.3,-0.1022,0.9796,148.2,97.7,0.491
10.18,31991.9,35092.1,-0.1321,1.1095,148.2,97.7,0.491
10.2,32019.2,35135.6,0.3294,1.6349,148.2,97.7,0.491
10.22,32072.8,35101.0,1.2327,1.2175,148.2,97.7,0.491
10.24,32011.7,34982.1,0.2027,-0.2178,148.2,97.7,0.491
10.26,31941.8,34994.7,-0.9756,-0.066,148.2,97.7,0.491
10.28,32102.6,35074.6,1.7366,0.8978,148.2,97.7,0.491
10.3,32013.5,34970.0,0.2334,-0.3639,148.2,97.7,0.491
10.32,32016.5,35016.7,0.2838,0.1998,148.2,97.7,0.491
10.34,31988.1,34944.5,-0.1949,-0.6714,148.2,97.7,0.491
10.36,31989.3,34938.9,-0.176,-0.7385,148.2,97.7,0.491
10.38,31924.1,34958.0,-1.2758,-0.5086,148.2,97.7,0.491
10.4,31870.2,34920.6,-2.1835,-0.9595,148.2,97.7,0.491
10.42,31934.3,34914.2,-1.1036,-1.0363,148.2,97.7,0.491
10.44,31936.0,34951.7,-1.0744,-0.5846,148.2,97.7,0.491
10.46,31978.5,34892.6,-0.3577,-1.2968,148.2,97.7,0.491
10.48,31891.6,35051.5,-1.8238,0.6192,148.2,97.7,0.491
10.5,31909.1,34871.7,-1.5288,-1.5498,148.2,97.7,0.491
10.52,32025.0,35017.5,0.4263,0.2091,148.2,97.7,0.491
10.54,32000.3,35063.6,0.0103,0.7658,148.2,97.7,0.491
10.56,32104.0,35158.2,1.7599,1.9074,148.2,97.7,0.491
10.58,31979.7,35223.0,-0.3365,2.6891,148.2,97.7,0.491
10.6,32060.8,35198.1,1.0308,2.3881,148.2,97.7,0.491
10.62,32007.0,35009.4,0.1239,0.1118,148.2,97.7,0.491
10.64,31990.1,35046.7,-0.1622,0.5621,148.2,97.7,0.491
10.66,31988.0,35044.0,-0.197,0.5289,148.2,97.7,0.491
10.68,32054.0,35026.8,0.9172,0.3221,148.2,97.7,0.491
10.7,31988.1,34970.0,-0.1956,-0.3633,148.2,97.7,0.491
10.72,31937.0,35021.0,-1.0579,0.2514,148.2,97.7,0.491
10.74,32021.3,34919.8,0.365,-0.9698,148.2,97.7,0.491
10.76,31978.7,35008.7,-0.3532,0.103,148.2,97.7,0.491
10.78,31994.6,34947.2,-0.0864,-0.6391,148.2,97.7,0.491
10.8,32103.4,34940.5,1.7492,-0.7192,148.2,97.7,0.491
10.82,31978.6,34885.8,-0.3554,-1.3799,148.2,97.7,0.491
10.84,31939.4,34904.4,-1.0163,-1.1549,148.2,97.7,0.491
10.86,31963.8,34950.0,-0.6046,-0.6053,148.2,97.7,0.491
10.88,32037.9,34936.0,0.6454,-0.7736,148.2,97.7,0.491
10.9,31930.8,34939.8,-1.1617,-0.7274,148.2,97.7,0.491
10.92,31989.5,35008.1,-0.1715,0.0963,148.2,97.7,0.491
10.94,32074.4,34999.3,1.2608,-0.0104,148.2,97.7,0.491
10.96,31995.3,35169.0,-0.0738,2.0379,148.2,97.7,0.491
10.98,32073.1,35193.1,1.2382,2.3286,148.2,97.7,0.491
11.0,32007.1,35079.2,0.1258,0.9535,148.2,97.7,0.491
11.02,31990.9,35137.4,-0.1477,1.6561,148.2,97.7,0.491
11.04,32019.1,35002.0,0.3284,0.0221,148.2,97.7,0.491
11.06,31978.6,35034.9,-0.3565,0.4198,148.2,97.7,0.491
11.08,31985.4,35019.2,-0.2408,0.2298,148.2,97.7,0.491
11.1,31958.4,34989.0,-0.6961,-0.1344,148.2,97.7,0.491
11.12,31986.3,35030.3,-0.2263,0.3641,148.2,97.7,0.491
11.14,32048.8,35019.3,0.8282,0.2306,148.2,97.7,0.491
11.16,32000.4,34923.8,0.0121,-0.921,148.2,97.7,0.491
11.18,32036.4,34960.8,0.6196,-0.4747,148.2,97.7,0.491
11.2,31955.1,34892.3,-0.7526,-1.3012,148.2,97.7,0.491
11.22,31945.1,34982.1,-0.9202,-0.2172,148.2,97.7,0.491
11.24,32026.0,34954.4,0.4437,-0.5517,148.2,97.7,0.491
11.26,31885.4,34956.2,-1.9285,-0.5295,148.2,97.7,0.491
11.28,31955.6,34926.8,-0.7428,-0.8851,148.2,97.7,0.491
11.3,31986.4,34929.3,-0.2243,-0.8545,148.2,97.7,0.491
11.32,31989.9,35040.0,-0.1644,0.4805,148.2,97.7,0.491
11.34,32052.3,35083.2,0.8884,1.002,148.2,97.7,0.491
11.36,32077.1,35168.4,1.3055,2.03,148.2,97.7,0.491
11.38,31987.3,35052.0,-0.2083,0.6259,148.2,97.7,0.491
11.4,32017.4,35160.5,0.2995,1.9344,148.2,97.7,0.491
11.42,32018.9,35106.8,0.3242,1.2864,148.2,97.7,0.491
11.44,32001.0,35071.9,0.0225,0.8661,148.2,97.7,0.491
11.46,32027.9,35074.5,0.4754,0.8967,148.2,97.7,0.491
11.48,32054.8,35058.0,0.9291,0.6987,148.2,97.7,0.491
11.5,31949.2,35026.6,-0.8518,0.3193,148.2,97.7,0.491
11.52,32085.5,34965.2,1.448,-0.4214,148.2,97.7,0.491
11.54,31974.5,34966.1,-0.4256,-0.4101,148.2,97.7,0.491
11.56,32016.7,34989.6,0.2869,-0.127,148.2,97.7,0.491
11.58,31932.9,34956.1,-1.1263,-0.5319,148.2,97.7,0.491
11.6,31979.2,34969.5,-0.3448,-0.3702,148.2,97.7,0.491
11.62,31973.9,35016.4,-0.4347,0.1966,148.2,97.7,0.491
11.64,31950.3,34871.4,-0.8325,-1.5527,148.2,97.7,0.491
11.66,31981.7,34987.8,-0.3035,-0.1488,148.2,97.7,0.491
11.68,31953.7,34922.2,-0.7758,-0.9408,148.2,97.7,0.491
11.7,31998.1,34857.7,-0.0263,-1.7186,148.2,97.7,0.491
11.72,31979.4,34955.0,-0.3424,-0.5445,148.2,97.7,0.491
11.74,31911.7,34977.5,-1.4838,-0.2735,148.2,97.7,0.491
11.76,31990.6,35127.3,-0.1524,1.5342,148.2,97.7,0.491
11.78,32058.3,35065.4,0.9896,0.7879,148.2,97.7,0.491
11.8,32052.3,35143.2,0.8883,1.7258,148.2,97.7,0.491
11.82,32047.3,35051.8,0.8039,0.6229,148.2,97.7,0.491
11.84,32021.5,35097.3,0.3685,1.1721,148.2,97.7,0.491
11.86,32047.9,35030.7,0.8135,0.3682,148.2,97.7,0.491
11.88,32009.9,35084.9,0.1716,1.0233,148.2,97.7,0.491
11.9,32056.8,34969.2,0.9634,-0.3735,148.2,97.7,0.491
11.92,32069.3,34957.6,1.1752,-0.5126,148.2,97.7,0.491
11.94,31956.0,35002.1,-0.7376,0.0235,148.2,97.7,0.491
11.96,31931.9,34963.8,-1.1442,-0.4378,148.2,97.7,0.491
11.98,32027.3,34901.4,0.4652,-1.1909,148.2,97.7,0.491
12.0,31883.0,34915.2,-1.9676,-1.025,148.2,97.7,0.491
12.02,32064.4,34950.1,1.0923,-0.6035,148.2,97.7,0.491
12.04,32000.6,35043.2,0.0152,0.5194,148.2,97.7,0.491
12.06,32040.8,34901.0,0.6929,-1.1955,148.2,97.7,0.491
12.08,31913.8,34934.6,-1.4481,-0.7912,148.2,97.7,0.491
12.1,31964.0,34861.2,-0.6027,-1.676,148.2,97.7,0.491
12.12,31983.9,34911.2,-0.2658,-1.0736,148.2,97.7,0.491
12.14,32062.2,34954.8,1.0548,-0.5471,148.2,97.7,0.491
12.16,32023.6,35049.8,0.403,0.5994,148.2,97.7,0.491
12.18,32052.4,35155.6,0.889,1.8755,148.2,97.7,0.491
12.2,32099.1,35198.1,1.6778,2.3882,148.2,97.7,0.491
12.22,32035.6,35140.9,0.6062,1.6982,148.2,97.7,0.491
12.24,32048.5,34983.8,0.8242,-0.1967,148.2,97.7,0.491
12.26,32033.6,34986.6,0.5718,-0.1634,148.2,97.7,0.491
12.28,31943.2,34945.8,-0.9522,-0.6555,148.2,97.7,0.491
12.3,32017.4,35042.7,0.2985,0.5135,148.2,97.7,0.491
12.32,32010.7,34942.1,0.186,-0.7006,148.2,97.7,0.491
12.34,31923.6,34915.1,-1.2839,-1.0255,148.2,97.7,0.491
12.36,31980.9,34915.5,-0.3161,-1.0212,148.2,97.7,0.491
12.38,31941.5,34983.2,-0.9819,-0.2048,148.2,97.7,0.491
12.4,32035.2,34975.7,0.5993,-0.2953,148.2,97.7,0.491
12.42,31956.3,34961.7,-0.7315,-0.4636,148.2,97.7,0.491
12.44,31917.7,34961.5,-1.3838,-0.4662,148.2,97.7,0.491
12.46,32030.5,35002.3,0.5202,0.0255,148.2,97.7,0.491
12.48,31882.6,34912.3,-1.9745,-1.0595,148.2,97.7,0.491
12.5,32028.9,34982.8,0.493,-0.2096,148.2,97.7,0.491
12.52,31965.5,34980.1,-0.5759,-0.242,148.2,97.7,0.491
12.54,31911.1,34954.4,-1.4947,-0.5523,148.2,97.7,0.491
12.56,32075.0,35055.0,1.2701,0.6624,148.2,97.7,0.491
12.58,32150.9,35065.4,2.5503,0.787,148.2,97.7,0.491
12.6,32055.3,35062.2,0.9385,0.7482,148.2,97.7,0.491
12.62,32040.2,35088.0,0.6835,1.0607,148.2,97.7,0.491
12.64,32106.7,35007.3,1.805,0.0859,148.2,97.7,0.491
12.66,31924.4,35033.0,-1.2693,0.396,148.2,97.7,0.491
12.68,32004.5,34995.8,0.082,-0.0527,148.2,97.7,0.491
12.7,31980.0,34969.3,-0.3312,-0.372,148.2,97.7,0.491
12.72,31946.2,34994.3,-0.9027,-0.0709,148.2,97.7,0.491
12.74,32063.4,34982.4,1.0747,-0.2135,148.2,97.7,0.491
12.76,31979.9,34982.8,-0.3344,-0.2086,148.2,97.7,0.491
12.78,31985.5,35005.0,-0.2396,0.0585,148.2,97.7,0.491
12.8,31957.5,34980.1,-0.7111,-0.242,148.2,97.7,0.491
12.82,31971.8,34921.0,-0.4703,-0.9544,148.2,97.7,0.491
12.84,31957.4,34923.5,-0.7128,-0.9243,148.2,97.7,0.491
12.86,31899.8,34893.0,-1.6845,-1.2927,148.2,97.7,0.491
12.88,31870.4,34968.1,-2.1815,-0.3862,148.2,97.7,0.491
12.9,31944.0,34924.8,-0.9387,-0.9085,148.2,97.7,0.491
12.92,31945.9,34953.1,-0.9079,-0.5672,148.2,97.7,0.491
12.94,31975.1,34983.1,-0.4142,-0.2054,148.2,97.7,0.491
12.96,32062.8,34997.6,1.065,-0.0311,148.2,97.7,0.491
12.98,32105.7,35068.3,1.7891,0.8222,148.2,97.7,0.491
13.0,32071.2,35111.2,1.2066,1.3403,148.2,97.7,0.491
13.02,32014.8,35156.7,0.255,1.8894,148.2,97.7,0.491
13.04,31964.2,35077.4,-0.5987,0.9319,148.2,97.7,0.491
13.06,31984.6,35083.4,-0.2544,1.0046,148.2,97.7,0.491
13.08,31942.4,35032.7,-0.9671,0.3926,148.2,97.7,0.491
13.1,31962.7,35004.6,-0.624,0.0534,148.2,97.7,0.491
13.12,32012.2,34935.6,0.2117,-0.7787,148.2,97.7,0.491
13.14,31976.8,35015.6,-0.386,0.1871,148.2,97.7,0.491
13.16,31919.8,35053.9,-1.3473,0.6491,148.2,97.7,0.491
13.18,31908.8,34902.1,-1.5327,-1.1825,148.2,97.7,0.491
13.2,32047.8,34869.2,0.8118,-1.5793,148.2,97.7,0.491
13.22,32044.6,34997.5,0.7576,-0.0314,148.2,97.7,0.491
13.24,31994.4,35037.2,-0.0886,0.4469,148.2,97.7,0.491
13.26,31953.5,34936.8,-0.779,-0.7638,148.2,97.7,0.491
13.28,32036.6,34928.9,0.6223,-0.86,148.2,97.7,0.491
13.3,31917.8,34915.0,-1.3811,-1.0267,148.2,97.7,0.491
13.32,32086.0,34981.0,1.4568,-0.2304,148.2,97.7,0.491
13.34,31933.1,35032.3,-1.1235,0.3879,148.2,97.7,0.491
13.36,32056.6,35061.9,0.9595,0.745,148.2,97.7,0.491
13.38,31980.9,35086.8,-0.3162,1.0457,148.2,97.7,0.491
13.4,32090.1,35110.7,1.5253,1.3338,148.2,97.7,0.491
13.42,32119.6,35149.7,2.0224,1.8039,148.2,97.7,0.491
13.44,32068.7,35117.5,1.164,1.4154,148.2,97.7,0.491
13.46,32089.0,35031.0,1.5073,0.373,148.2,97.7,0.491
13.48,32045.6,35125.7,0.7752,1.5147,148.2,97.7,0.491
13.5,32048.2,34956.1,0.8184,-0.5313,148.2,97.7,0.491
13.52,32039.0,35003.9,0.663,0.0457,148.2,97.7,0.491
13.54,31957.6,35061.7,-0.7094,0.7426,148.2,97.7,0.491
13.56,32103.2,35032.4,1.7458,0.3894,148.2,97.7,0.491
13.58,31938.7,34924.9,-1.0285,-0.9079,148.2,97.7,0.491
13.6,31956.6,35056.8,-0.7261,0.6834,148.2,97.7,0.491
13.62,31991.8,34947.6,-0.1338,-0.6336,148.2,97.7,0.491
13.64,32037.1,34959.3,0.631,-0.4922,148.2,97.7,0.491
13.66,31943.0,34915.6,-0.9561,-1.0199,148.2,97.7,0.491
13.68,31966.8,34996.0,-0.5541,-0.0493,148.2,97.7,0.491
13.7,32002.5,34891.9,0.0482,-1.3061,148.2,97.7,0.491
13.72,31898.1,34935.4,-1.7134,-0.7809,148.2,97.7,0.491
13.74,31934.0,35028.3,-1.1081,0.3402,148.2,97.7,0.491
13.76,32043.5,35044.0,0.7393,0.5294,148.2,97.7,0.491
13.78,32017.2,35017.8,0.2964,0.2136,148.2,97.7,0.491
13.8,32035.7,35032.3,0.6076,0.3878,148.2,97.7,0.491
13.82,32037.7,35116.6,0.6406,1.4055,148.2,97.7,0.491
13.84,32019.2,35040.4,0.3295,0.4859,148.2,97.7,0.491
13.86,31964.4,35200.3,-0.595,2.4148,148.2,97.7,0.491
13.88,31970.2,35138.5,-0.4969,1.6699,148.2,97.7,0.491
13.9,32012.8,35051.9,0.2209,0.6251,148.2,97.7,0.491
13.92,31978.9,35026.1,-0.351,0.3134,148.2,97.7,0.491
13.94,32087.0,34920.2,1.4738,-0.9647,148.2,97.7,0.491
13.96,31933.7,34978.7,-1.1138,-0.2589,148.2,97.7,0.491
13.98,31974.7,34939.1,-0.4207,-0.736,148.2,97.7,0.491
14.0,31932.8,34810.6,-1.1278,-2.2868,148.2,97.7,0.491
14.02,32049.9,34999.7,0.8469,-0.0057,148.2,97.7,0.491
14.04,31943.7,34914.5,-0.9445,-1.0333,148.2,97.7,0.491
14.06,31967.4,34905.0,-0.5441,-1.1477,148.2,97.7,0.491
14.08,32022.9,34927.5,0.392,-0.8759,148.2,97.7,0.491
14.1,32031.7,34880.8,0.5402,-1.4394,148.2,97.7,0.491
14.12,31962.2,35015.5,-0.6324,0.185,148.2,97.7,0.491
14.14,32071.3,34865.3,1.2088,-1.6266,148.2,97.7,0.491
14.16,31988.9,35010.3,-0.1813,0.1221,148.2,97.7,0.491
14.18,32066.3,35112.3,1.1232,1.3532,148.2,97.7,0.491
14.2,32053.8,35070.0,0.9136,0.8431,148.2,97.7,0.491
14.22,32050.5,35086.6,0.8571,1.0427,148.2,97.7,0.491
14.24,32044.9,35150.5,0.7632,1.8136,148.2,97.7,0.491
14.26,32069.0,35061.5,1.1701,0.7409,148.2,97.7,0.491
14.28,31989.5,35003.0,-0.171,0.0345,148.2,97.7,0.491
14.3,32104.3,35005.5,1.7644,0.0643,148.2,97.7,0.491
14.32,32028.4,35003.3,0.4846,0.0385,148.2,97.7,0.491
14.34,32023.9,35022.0,0.4086,0.2642,148.2,97.7,0.491
14.36,32042.5,34966.7,0.7226,-0.404,148.2,97.7,0.491
14.38,32037.9,34958.4,0.6449,-0.5035,148.2,97.7,0.491
14.4,31855.4,34887.9,-2.4337,-1.3538,148.2,97.7,0.491
14.42,31899.4,34908.9,-1.6912,-1.1012,148.2,97.7,0.491
14.44,31904.9,34891.3,-1.599,-1.3128,148.2,97.7,0.491
14.46,31996.4,34944.4,-0.0554,-0.6728,148.2,97.7,0.491
14.48,31917.6,34979.2,-1.3849,-0.2521,148.2,97.7,0.491
14.5,32048.1,34874.0,0.8174,-1.5215,148.2,97.7,0.491
14.52,32037.1,34943.2,0.6316,-0.6872,148.2,97.7,0.491
14.54,32010.3,34832.8,0.1788,-2.0185,148.2,97.7,0.491
14.56,31931.9,34904.1,-1.1435,-1.1583,148.2,97.7,0.491
14.58,32029.8,34996.4,0.5085,-0.0455,148.2,97.7,0.491
14.6,31991.8,35069.8,-0.1323,0.8409,148.2,97.7,0.491
14.62,32037.6,35130.3,0.6389,1.5703,148.2,97.7,0.491
14.64,32025.0,35056.5,0.427,0.6805,148.2,97.7,0.491
14.66,32017.1,35083.2,0.2934,1.0027,148.2,97.7,0.491
14.68,32070.8,35032.7,1.1996,0.3934,148.2,97.7,0.491
14.7,32003.8,34997.7,0.069,-0.0291,148.2,97.7,0.491
14.72,32029.6,35038.1,0.5041,0.4586,148.2,97.7,0.491
14.74,32096.0,35031.6,1.6251,0.3793,148.2,97.7,0.491
14.76,32094.3,34944.6,1.5954,-0.6697,148.2,97.7,0.491
14.78,31933.5,34913.1,-1.1165,-1.0505,148.2,97.7,0.491
14.8,31967.9,34983.8,-0.5366,-0.1967,148.2,97.7,0.491
14.82,31912.9,34817.0,-1.4639,-2.2091,148.2,97.7,0.491
14.84,32015.5,34957.8,0.2666,-0.5108,148.2,97.7,0.491
14.86,31950.4,34979.9,-0.8313,-0.2447,148.2,97.7,0.491
14.88,31972.6,34961.9,-0.4572,-0.4612,148.2,97.7,0.491
14.9,31913.4,34969.8,-1.4559,-0.3661,148.2,97.7,0.491
14.92,31912.6,34977.4,-1.4697,-0.2746,148.2,97.7,0.491
14.94,31874.2,34923.2,-2.117,-0.9281,148.2,97.7,0.491
14.96,31985.7,34984.6,-0.2355,-0.1871,148.2,97.7,0.491
14.98,31991.4,34968.3,-0.1401,-0.3842,148.2,97.7,0.491
15.0,32002.1,35172.8,0.0402,2.0837,148.2,97.7,0.491
15.02,32110.3,35058.6,1.8656,0.705,148.2,97.7,0.491
15.04,31939.4,35115.9,-1.0168,1.3973,148.2,97.7,0.491
15.06,32023.1,35205.9,0.3957,2.4819,148.2,97.7,0.491
15.08,31994.2,34995.0,-0.0923,-0.0615,148.2,97.7,0.491
15.1,31992.9,35042.4,-0.1141,0.5098,148.2,97.7,0.491
15.12,32070.2,35016.9,1.1891,0.2028,148.2,97.7,0.491
15.14,32106.2,35056.4,1.7962,0.6793,148.2,97.7,0.491
15.16,32032.6,35063.1,0.5548,0.7591,148.2,97.7,0.491
15.18,32016.8,35007.1,0.2895,0.0834,148.2,97.7,0.491
15.2,31921.2,34980.6,-1.3246,-0.2362,148.2,97.7,0.491
15.22,31940.5,34969.3,-0.9977,-0.372,148.2,97.7,0.491
15.24,31957.5,34911.7,-0.7117,-1.0674,148.2,97.7,0.491
15.26,31978.1,34842.2,-0.3645,-1.9059,148.2,97.7,0.491
15.28,31997.8,34939.1,-0.0319,-0.737,148.2,97.7,0.491
15.3,31950.5,34965.8,-0.8291,-0.4144,148.2,97.7,0.491
15.32,31884.7,34895.8,-1.9391,-1.259,148.2,97.7,0.491
15.34,31977.9,34884.9,-0.3682,-1.3903,148.2,97.7,0.491
15.36,32102.3,34909.1,1.7308,-1.098,148.2,97.7,0.491
15.38,31987.0,34946.1,-0.2146,-0.6517,148.2,97.7,0.491
15.4,31992.2,35004.8,-0.1256,0.0558,148.2,97.7,0.491
15.42,32136.3,35133.6,2.3053,1.6102,148.2,97.7,0.491
15.44,32093.0,35138.6,1.5749,1.6709,148.2,97.7,0.491
15.46,32005.4,35088.3,0.0958,1.0638,148.2,97.7,0.491
15.48,32112.9,34967.0,1.9097,-0.3996,148.2,97.7,0.491
15.5,32014.3,35077.7,0.2474,0.9361,148.2,97.7,0.491
15.52,31944.1,35029.1,-0.9368,0.3491,148.2,97.7,0.491
15.54,32016.0,35016.8,0.2753,0.2008,148.2,97.7,0.491
15.56,31972.2,34888.4,-0.4638,-1.3476,148.2,97.7,0.491
15.58,31932.3,35048.3,-1.137,0.5814,148.2,97.7,0.491
15.6,31987.6,34855.3,-0.2044,-1.7474,148.2,97.7,0.491
15.62,31984.6,34897.1,-0.2547,-1.2435,148.2,97.7,0.491
15.64,31921.6,34982.1,-1.3174,-0.2182,148.2,97.7,0.491
15.66,32094.2,34980.6,1.5939,-0.2362,148.2,97.7,0.491
15.68,31942.1,34916.9,-0.9715,-1.0043,148.2,97.7,0.491
15.7,32029.7,34943.0,0.5064,-0.6888,148.2,97.7,0.491
15.72,32020.1,34943.9,0.3448,-0.6784,148.2,97.7,0.491
15.74,31990.1,34947.8,-0.1621,-0.6316,148.2,97.7,0.491
15.76,31837.9,34921.8,-2.7292,-0.9455,148.2,97.7,0.491
15.78,32040.6,34966.5,0.6911,-0.4064,148.2,97.7,0.491
15.8,32030.3,34993.0,0.5173,-0.0865,148.2,97.7,0.491
15.82,32023.3,35063.3,0.3984,0.7621,148.2,97.7,0.491
15.84,32014.7,35157.5,0.254,1.8986,148.2,97.7,0.491
15.86,32080.9,35103.9,1.3709,1.2518,148.2,97.7,0.491
15.88,32030.0,35023.0,0.5107,0.2756,148.2,97.7,0.491
15.9,32039.4,35024.6,0.6694,0.2946,148.2,97.7,0.491
15.92,32075.5,34947.4,1.2789,-0.6361,148.2,97.7,0.491
15.94,32024.4,35019.8,0.4167,0.2369,148.2,97.7,0.491
15.96,32016.4,35025.0,0.2829,0.3001,148.2,97.7,0.491
15.98,32043.9,35014.1,0.7457,0.168,148.2,97.7,0.491
16.0,32033.7,34934.6,0.5739,-0.7909,148.2,97.7,0.491
16.02,32062.7,34999.0,1.0639,-0.0132,148.2,97.7,0.491
16.04,31957.4,35003.2,-0.7134,0.0364,148.2,97.7,0.491
16.06,31954.3,34960.3,-0.7658,-0.4809,148.2,97.7,0.491
16.08,32037.2,35043.9,0.6338,0.5276,148.2,97.7,0.491
16.1,31914.8,34931.7,-1.4319,-0.8259,148.2,97.7,0.491
16.12,31994.8,34958.3,-0.0817,-0.5042,148.2,97.7,0.491
16.14,31963.5,34873.5,-0.61,-1.5281,148.2,97.7,0.491
16.16,31980.9,34933.8,-0.3167,-0.8007,148.2,97.7,0.491
16.18,32008.7,34995.9,0.1516,-0.0512,148.2,97.7,0.491
16.2,32035.4,35056.1,0.602,0.675,148.2,97.7,0.491
16.22,32010.1,35013.0,0.1754,0.1546,148.2,97.7,0.491
16.24,32041.4,35143.3,0.7031,1.7267,148.2,97.7,0.491
16.26,31954.4,35151.1,-0.7641,1.8217,148.2,97.7,0.491
16.28,32076.4,35158.1,1.295,1.9063,148.2,97.7,0.491
16.3,32050.8,35013.0,0.8632,0.1549,148.2,97.7,0.491
16.32,32024.9,35075.9,0.4258,0.9142,148.2,97.7,0.491
16.34,32031.2,35115.8,0.5324,1.396,148.2,97.7,0.491
16.36,32026.7,34941.9,0.4557,-0.7026,148.2,97.7,0.491
16.38,32078.6,35102.8,1.3314,1.2381,148.2,97.7,0.491
16.4,31983.8,34875.1,-0.2677,-1.5081,148.2,97.7,0.491
16.42,31896.1,35001.4,-1.7469,0.0151,148.2,97.7,0.491
16.44,31991.6,34906.3,-0.1364,-1.1326,148.2,97.7,0.491
16.46,32002.4,35000.1,0.0466,-0.0004,148.2,97.7,0.491
16.48,32088.7,34952.8,1.5019,-0.571,148.2,97.7,0.491
16.5,31945.9,34922.3,-0.9078,-0.9387,148.2,97.7,0.491
16.52,31952.2,34927.7,-0.8004,-0.8742,148.2,97.7,0.491
16.54,31976.1,34897.0,-0.3975,-1.2447,148.2,97.7,0.491
16.56,31919.3,34881.9,-1.3558,-1.4264,148.2,97.7,0.491
16.58,31984.3,34943.0,-0.259,-0.6888,148.2,97.7,0.491
16.6,32042.7,35020.3,0.7256,0.2429,148.2,97.7,0.491
16.62,31973.4,35108.2,-0.4436,1.3038,148.2,97.7,0.491
16.64,32033.5,35220.5,0.5705,2.6589,148.2,97.7,0.491
16.66,32062.1,35159.1,1.0532,1.9177,148.2,97.7,0.491
16.68,32075.9,35111.5,1.2855,1.3436,148.2,97.7,0.491
16.7,32015.0,35090.2,0.2579,1.0871,148.2,97.7,0.491
16.72,32045.0,35046.6,0.7645,0.5609,148.2,97.7,0.491
16.74,32013.5,35027.7,0.2326,0.3321,148.2,97.7,0.491
16.76,32014.3,34947.6,0.2461,-0.6333,148.2,97.7,0.491
16.78,32070.8,35022.4,1.199,0.2689,148.2,97.7,0.491
16.8,32039.0,34997.9,0.6634,-0.0274,148.2,97.7,0.491
16.82,32037.2,34959.1,0.6336,-0.4953,148.2,97.7,0.491
16.84,31993.3,34827.3,-0.1073,-2.0855,148.2,97.7,0.491
16.86,31981.9,34907.8,-0.3007,-1.1136,148.2,97.7,0.491
16.88,31999.8,34924.9,0.0027,-0.9074,148.2,97.7,0.491
16.9,31942.5,34938.3,-0.9639,-0.7466,148.2,97.7,0.491
16.92,31965.5,34936.2,-0.5766,-0.7709,148.2,97.7,0.491
16.94,31908.9,34999.6,-1.5321,-0.0069,148.2,97.7,0.491
16.96,31957.7,34935.6,-0.7085,-0.7786,148.2,97.7,0.491
16.98,31972.5,34906.8,-0.4585,-1.1264,148.2,97.7,0.491
17.0,32004.2,35023.4,0.0755,0.2807,148.2,97.7,0.491
17.02,32018.8,35083.9,0.3223,1.0105,148.2,97.7,0.491
17.04,32021.4,35161.6,0.3667,1.9486,148.2,97.7,0.491
17.06,32126.4,35211.8,2.1378,2.5538,148.2,97.7,0.491
17.08,31918.4,35108.1,-1.3706,1.3024,148.2,97.7,0.491
17.1,32131.7,35056.8,2.2267,0.6842,148.2,97.7,0.491
17.12,31895.8,34956.6,-1.7517,-0.5255,148.2,97.7,0.491
17.14,31926.8,35090.5,-1.2293,1.0901,148.2,97.7,0.491
17.16,31929.8,34986.9,-1.1781,-0.1601,148.2,97.7,0.491
17.18,31967.8,35045.4,-0.537,0.5467,148.2,97.7,0.491
17.2,31967.3,34970.1,-0.5462,-0.3619,148.2,97.7,0.491
17.22,32097.2,34955.3,1.6454,-0.5414,148.2,97.7,0.491
17.24,31907.0,34961.6,-1.5631,-0.4647,148.2,97.7,0.491
17.26,32043.0,34885.3,0.7315,-1.385,148.2,97.7,0.491
17.28,32046.8,34971.6,0.7952,-0.3445,148.2,97.7,0.491
17.3,31980.1,34920.3,-0.3311,-0.9628,148.2,97.7,0.491
17.32,31988.8,34943.7,-0.1833,-0.6813,148.2,97.7,0.491
17.34,31965.4,34902.2,-0.579,-1.1811,148.2,97.7,0.491
17.36,31942.3,34941.3,-0.9672,-0.7094,148.2,97.7,0.491
17.38,31964.9,34962.9,-0.5871,-0.4496,148.2,97.7,0.491
17.4,32041.6,35000.2,0.7073,0.0002,148.2,97.7,0.491
17.42,32027.9,35063.3,0.4763,0.7626,148.2,97.7,0.491
17.44,32140.8,35076.2,2.3806,0.9183,148.2,97.7,0.491
17.46,32087.9,35085.1,1.4888,1.0256,148.2,97.7,0.491
17.48,32108.2,35130.1,1.831,1.5686,148.2,97.7,0.491
17.5,31995.8,35082.5,-0.0661,0.9937,148.2,97.7,0.491
17.52,32092.8,35049.4,1.571,0.5944,148.2,97.7,0.491
17.54,31984.0,35012.1,-0.2641,0.144,148.2,97.7,0.491
17.56,32054.7,34978.4,0.9274,-0.2624,148.2,97.7,0.491
17.58,32022.3,35035.3,0.3808,0.4241,148.2,97.7,0.491
17.6,32027.4,35064.9,0.4677,0.7812,148.2,97.7,0.491
17.62,31992.5,34978.8,-0.1213,-0.2571,148.2,97.7,0.491
17.64,31914.3,34974.2,-1.4408,-0.3127,148.2,97.7,0.491
17.66,31951.4,34905.5,-0.8139,-1.142,148.2,97.7,0.491
17.68,31859.0,34952.4,-2.3734,-0.576,148.2,97.7,0.491
17.7,31982.3,34939.3,-0.2926,-0.7337,148.2,97.7,0.491
17.72,31962.6,35016.7,-0.6258,0.1996,148.2,97.7,0.491
17.74,32045.6,35001.9,0.7746,0.021,148.2,97.7,0.491
17.76,31941.8,34949.5,-0.9765,-0.6111,148.2,97.7,0.491
17.78,31941.4,34881.2,-0.9839,-1.4351,148.2,97.7,0.491
17.8,32063.8,34978.7,1.0817,-0.2589,148.2,97.7,0.491
17.82,32043.9,35092.6,0.7454,1.1161,148.2,97.7,0.491
17.84,32036.4,35082.3,0.6191,0.9918,148.2,97.7,0.491
17.86,32092.5,35154.1,1.5662,1.8571,148.2,97.7,0.491
17.88,31960.1,35133.6,-0.6678,1.6099,148.2,97.7,0.491
17.9,32076.8,35156.5,1.3002,1.887,148.2,97.7,0.491
17.92,31949.8,35054.3,-0.8417,0.653,148.2,97.7,0.491
17.94,31998.3,35027.9,-0.0233,0.3348,148.2,97.7,0.491
17.96,32084.7,35115.9,1.4342,1.3968,148.2,97.7,0.491
17.98,31996.8,35050.0,-0.0493,0.6015,148.2,97.7,0.491
18.0,31999.6,34975.9,-0.0009,-0.2921,148.2,97.7,0.491
18.02,31917.2,34956.0,-1.3921,-0.5321,148.2,97.7,0.491
18.04,32038.5,34914.5,0.6553,-1.0328,148.2,97.7,0.491
18.06,31932.4,34963.7,-1.1348,-0.4399,148.2,97.7,0.491
18.08,31940.8,35004.0,-0.9939,0.047,148.2,97.7,0.491
18.1,32004.9,34950.5,0.0888,-0.5984,148.2,97.7,0.491
18.12,31881.5,34931.1,-1.9931,-0.8328,148.2,97.7,0.491
18.14,31921.8,34860.5,-1.3132,-1.6841,148.2,97.7,0.491
18.16,31874.9,34917.6,-2.1046,-0.9963,148.2,97.7,0.491
18.18,31991.0,34854.3,-0.1459,-1.7597,148.2,97.7,0.491
18.2,32029.3,34941.6,0.499,-0.7064,148.2,97.7,0.491
18.22,32064.6,34992.3,1.0954,-0.0941,148.2,97.7,0.491
18.24,32033.8,35062.8,0.5764,0.7564,148.2,97.7,0.491
18.26,31892.2,35080.0,-1.8136,0.9631,148.2,97.7,0.491
18.28,32024.0,35081.7,0.4109,0.984,148.2,97.7,0.491
18.3,32058.4,35091.7,0.9908,1.1045,148.2,97.7,0.491
18.32,32045.1,35072.0,0.7659,0.8667,148.2,97.7,0.491
18.34,32057.9,35032.7,0.9821,0.3926,148.2,97.7,0.491
18.36,32012.3,35005.3,0.2128,0.0628,148.2,97.7,0.491
18.38,31986.4,34999.2,-0.2247,-0.0111,148.2,97.7,0.491
18.4,32042.9,35037.4,0.7293,0.4499,148.2,97.7,0.491
18.42,31990.1,35005.6,-0.1611,0.0664,148.2,97.7,0.491
18.44,32000.4,34899.7,0.0125,-1.2114,148.2,97.7,0.491
18.46,32041.4,34975.4,0.7033,-0.2989,148.2,97.7,0.491
18.48,32034.3,34965.7,0.5838,-0.4159,148.2,97.7,0.491
18.5,32010.9,34955.0,0.1892,-0.545,148.2,97.7,0.491
18.52,31976.1,34924.4,-0.3979,-0.9137,148.2,97.7,0.491
18.54,31953.7,34840.0,-0.7764,-1.9324,148.2,97.7,0.491
18.56,31961.6,34892.4,-0.6425,-1.3001,148.2,97.7,0.491
18.58,31954.7,34958.5,-0.7583,-0.5019,148.2,97.7,0.491
18.6,31949.2,34922.9,-0.8521,-0.9319,148.2,97.7,0.491
18.62,31893.3,34990.9,-1.7944,-0.112,148.2,97.7,0.491
18.64,32004.8,35027.6,0.0868,0.3315,148.2,97.7,0.491
18.66,31947.9,35158.9,-0.8727,1.9158,148.2,97.7,0.491
18.68,32038.0,35054.1,0.647,0.6516,148.2,97.7,0.491
18.7,32078.6,35026.0,1.3312,0.3122,148.2,97.7,0.491
18.72,32002.4,35079.8,0.0451,0.9615,148.2,97.7,0.491
18.74,31995.6,35092.7,-0.0683,1.1167,148.2,97.7,0.491
18.76,31893.5,35060.6,-1.7912,0.7293,148.2,97.7,0.491
18.78,32002.9,35130.3,0.0536,1.5709,148.2,97.7,0.491
18.8,31998.2,34999.0,-0.025,-0.0135,148.2,97.7,0.491
18.82,32041.6,34946.4,0.7066,-0.6486,148.2,97.7,0.491
18.84,32108.0,34935.8,1.8276,-0.7767,148.2,97.7,0.491
18.86,32057.3,34920.9,0.9721,-0.9562,148.2,97.7,0.491
18.88,31965.0,34957.5,-0.5846,-0.5138,148.2,97.7,0.491
18.9,31924.1,34929.3,-1.2752,-0.8546,148.2,97.7,0.491
18.92,31941.7,34837.4,-0.9776,-1.9635,148.2,97.7,0.491
18.94,32002.1,34923.6,0.0407,-0.9233,148.2,97.7,0.491
18.96,31996.1,34877.7,-0.0608,-1.4771,148.2,97.7,0.491
18.98,31944.0,34934.2,-0.9395,-0.7961,148.2,97.7,0.491
19.0,31905.1,34952.8,-1.5961,-0.5714,148.2,97.7,0.491
19.02,32101.1,34984.4,1.7103,-0.1896,148.2,97.7,0.491
19.04,32034.6,35098.2,0.5891,1.1827,148.2,97.7,0.491
19.06,32007.4,35131.4,0.1306,1.5834,148.2,97.7,0.491
19.08,32102.3,35096.4,1.7304,1.162,148.2,97.7,0.491
19.1,32128.2,35142.7,2.1682,1.7204,148.2,97.7,0.491
19.12,31981.3,35116.1,-0.3103,1.399,148.2,97.7,0.491
19.14,32068.2,35087.5,1.1556,1.0543,148.2,97.7,0.491
19.16,32002.5,34982.2,0.0483,-0.2169,148.2,97.7,0.491
19.18,32110.1,35141.6,1.8635,1.707,148.2,97.7,0.491
19.2,31990.2,35046.2,-0.1601,0.5559,148.2,97.7,0.491
19.22,32005.1,34939.2,0.0914,-0.7355,148.2,97.7,0.491
19.24,32035.6,35076.1,0.6065,0.917,148.2,97.7,0.491
19.26,31995.5,34970.6,-0.07,-0.3559,148.2,97.7,0.491
19.28,31943.8,35005.3,-0.943,0.0622,148.2,97.7,0.491
19.3,31904.3,34938.9,-1.6088,-0.7392,148.2,97.7,0.491
19.32,31943.2,34995.6,-0.9533,-0.0547,148.2,97.7,0.491
19.34,31926.1,34968.0,-1.242,-0.3877,148.2,97.7,0.491
19.36,31953.1,34948.0,-0.7862,-0.6295,148.2,97.7,0.491
19.38,31955.8,34903.0,-0.7401,-1.1721,148.2,97.7,0.491
19.4,31980.0,34929.9,-0.3317,-0.8468,148.2,97.7,0.491
19.42,31993.5,34963.8,-0.1044,-0.4386,148.2,97.7,0.491
19.44,32011.0,35078.2,0.1918,0.9418,148.2,97.7,0.491
19.46,32087.0,35096.3,1.4731,1.1597,148.2,97.7,0.491
19.48,32121.5,34988.9,2.0557,-0.1353,148.2,97.7,0.491
19.5,32029.8,35193.9,0.5088,2.3382,148.2,97.7,0.491
19.52,32018.8,35137.3,0.3217,1.6554,148.2,97.7,0.491
19.54,31957.1,35071.9,-0.719,0.8653,148.2,97.7,0.491
19.56,31993.0,34951.3,-0.112,-0.5887,148.2,97.7,0.491
19.58,31936.0,34997.5,-1.0736,-0.0321,148.2,97.7,0.491
19.6,32033.9,35064.5,0.5773,0.7761,148.2,97.7,0.491
19.62,32045.7,34976.3,0.7756,-0.2878,148.2,97.7,0.491
19.64,32069.9,34975.5,1.1853,-0.2974,148.2,97.7,0.491
19.66,31937.3,34997.6,-1.0521,-0.0301,148.2,97.7,0.491
19.68,31901.6,34921.3,-1.6549,-0.9514,148.2,97.7,0.491
19.7,31976.8,34908.0,-0.386,-1.1119,148.2,97.7,0.491
19.72,31945.3,34893.9,-0.9177,-1.2822,148.2,97.7,0.491
19.74,32002.5,34937.5,0.0471,-0.7563,148.2,97.7,0.491
19.76,31924.2,34879.2,-1.2726,-1.4595,148.2,97.7,0.491
19.78,31925.9,34832.7,-1.2443,-2.0205,148.2,97.7,0.491
19.8,31922.7,34869.3,-1.2981,-1.5781,148.2,97.7,0.491
19.82,31957.7,34953.7,-0.7088,-0.5605,148.2,97.7,0.491
19.84,32039.5,34988.6,0.6713,-0.1394,148.2,97.7,0.491
19.86,31926.8,35144.7,-1.229,1.7436,148.2,97.7,0.491
19.88,32145.6,35073.8,2.4616,0.8882,148.2,97.7,0.491
19.9,32016.2,35134.1,0.2782,1.616,148.2,97.7,0.491
19.92,32045.3,35055.7,0.7689,0.67,148.2,97.7,0.491
19.94,32070.2,35107.8,1.1894,1.2995,148.2,97.7,0.491
19.96,32021.1,34952.3,0.3608,-0.5774,148.2,97.7,0.491
19.98,32045.9,34980.8,0.779,-0.2329,148.2,97.7,0.491
20.0,32007.3,34988.3,0.1289,-0.1424,148.2,97.7,0.491
20.02,31986.1,35007.2,-0.2287,0.0852,148.2,97.7,0.491
20.04,32046.9,34997.1,0.7973,-0.0369,148.2,97.7,0.491
20.06,31981.0,34954.0,-0.3153,-0.5562,148.2,97.7,0.491
20.08,31977.0,34906.2,-0.3821,-1.1334,148.2,97.7,0.491
20.1,32035.7,34945.6,0.6077,-0.6574,148.2,97.7,0.491
20.12,31842.3,35037.7,-2.6551,0.4535,148.2,97.7,0.491
20.14,32072.9,34959.4,1.2357,-0.4912,148.2,97.7,0.491
20.16,31860.5,34925.6,-2.3488,-0.8987,148.2,97.7,0.491
20.18,31934.9,34905.1,-1.0932,-1.1464,148.2,97.7,0.491
20.2,31981.6,34935.0,-0.3045,-0.7857,148.2,97.7,0.491
20.22,31940.0,34947.2,-1.0064,-0.639,148.2,97.7,0.491
20.24,31982.3,35004.5,-0.2926,0.0524,148.2,97.7,0.491
20.26,32072.1,35099.0,1.2213,1.1933,148.2,97.7,0.491
20.28,32044.5,35138.2,0.7553,1.6655,148.2,97.7,0.491
20.3,32086.7,35196.1,1.4675,2.3645,148.2,97.7,0.491
20.32,32054.4,35078.8,0.9239,0.9491,148.2,97.7,0.491
20.34,32060.9,35044.6,1.0333,0.5368,148.2,97.7,0.491
20.36,32095.5,34957.4,1.6165,-0.5151,148.2,97.7,0.491
20.38,32023.7,34953.7,0.4055,-0.5599,148.2,97.7,0.491
20.4,31993.9,35087.0,-0.0976,1.0481,148.2,97.7,0.491
20.42,32011.3,35022.3,0.1954,0.2677,148.2,97.7,0.491
20.44,32073.9,34965.5,1.2525,-0.4178,148.2,97.7,0.491
20.46,32052.5,35038.2,0.8909,0.4592,148.2,97.7,0.491
20.48,32019.3,34850.1,0.3304,-1.8106,148.2,97.7,0.491
20.5,31951.4,34989.6,-0.8137,-0.1268,148.2,97.7,0.491
20.52,32018.2,34913.6,0.3127,-1.0439,148.2,97.7,0.491
20.54,31939.0,35046.5,-1.0232,0.5598,148.2,97.7,0.491
20.56,31959.2,34870.5,-0.6822,-1.5641,148.2,97.7,0.491
20.58,32016.7,34927.6,0.2869,-0.875,148.2,97.7,0.491
20.6,32027.1,34838.9,0.4621,-1.9454,148.2,97.7,0.491
20.62,32037.5,35066.5,0.6381,0.8011,148.2,97.7,0.491
20.64,31976.7,35057.9,-0.3882,0.6963,148.2,97.7,0.491
20.66,32013.7,35026.6,0.2363,0.319,148.2,97.7,0.491
20.68,32032.8,35094.6,0.5591,1.1395,148.2,97.7,0.491
20.7,32079.6,35091.6,1.3477,1.103,148.2,97.7,0.491
20.72,32153.6,35112.4,2.5967,1.3544,148.2,97.7,0.491
20.74,32089.3,35109.6,1.5114,1.3212,148.2,97.7,0.491
20.76,31958.7,34923.9,-0.691,-0.9197,148.2,97.7,0.491
20.78,31993.6,34974.3,-0.1021,-0.312,148.2,97.7,0.491
20.8,31995.1,35066.3,-0.0779,0.798,148.2,97.7,0.491
20.82,32175.6,35047.7,2.967,0.5734,148.2,97.7,0.491
20.84,31963.4,35013.2,-0.6126,0.1573,148.2,97.7,0.491
20.86,31943.4,34836.2,-0.9492,-1.9774,148.2,97.7,0.491
20.88,31967.6,34962.3,-0.5411,-0.4565,148.2,97.7,0.491
20.9,31931.2,34925.9,-1.1547,-0.8962,148.2,97.7,0.491
20.92,31930.4,34949.5,-1.1689,-0.6109,148.2,97.7,0.491
20.94,31958.8,34898.8,-0.6892,-1.2226,148.2,97.7,0.491
20.96,31931.1,34992.1,-1.1562,-0.0968,148.2,97.7,0.491
20.98,32006.3,34909.3,0.1116,-1.0959,148.2,97.7,0.491
21.0,31989.6,34867.2,-0.1694,-1.6033,148.2,97.7,0.491
21.02,31913.4,34927.2,-1.456,-0.8802,148.2,97.7,0.491
21.04,32009.7,34949.2,0.1684,-0.6141,148.2,97.7,0.491
21.06,32017.4,34975.7,0.2981,-0.2948,148.2,97.7,0.491
21.08,32153.2,34978.8,2.5892,-0.2572,148.2,97.7,0.491
21.1,31987.3,35086.5,-0.2089,1.0423,148.2,97.7,0.491
21.12,32051.3,35059.5,0.8713,0.7162,148.2,97.7,0.491
21.14,32017.4,35052.0,0.2997,0.6254,148.2,97.7,0.491
21.16,31971.0,35014.8,-0.4846,0.1767,148.2,97.7,0.491
21.18,31990.6,35058.2,-0.1535,0.7005,148.2,97.7,0.491
21.2,31971.0,34967.1,-0.4845,-0.3984,148.2,97.7,0.491
21.22,32062.3,34983.0,1.056,-0.2065,148.2,97.7,0.491
21.24,32039.0,35064.4,0.6628,0.7748,148.2,97.7,0.491
21.26,31965.0,34863.3,-0.5858,-1.6515,148.2,97.7,0.491
21.28,32005.0,34957.3,0.0892,-0.5171,148.2,97.7,0.491
21.3,32045.6,34948.7,0.7754,-0.6207,148.2,97.7,0.491
21.32,31887.7,34983.3,-1.8889,-0.2031,148.2,97.7,0.491
21.34,31895.9,34961.6,-1.7505,-0.4652,148.2,97.7,0.491
21.36,31970.8,34896.2,-0.4869,-1.2536,148.2,97.7,0.491
21.38,31962.7,34924.3,-0.6239,-0.9145,148.2,97.7,0.491
21.4,31917.6,34936.0,-1.3842,-0.7737,148.2,97.7,0.491
21.42,31940.7,34949.1,-0.9951,-0.6156,148.2,97.7,0.491
21.44,31923.6,34927.8,-1.2828,-0.8731,148.2,97.7,0.491
21.46,31923.4,35027.4,-1.2865,0.3286,148.2,97.7,0.491
21.48,32039.4,35011.0,0.6701,0.1312,148.2,97.7,0.491
21.5,32041.1,35111.0,0.6994,1.3371,148.2,97.7,0.491
21.52,32084.3,35175.2,1.4271,2.1117,148.2,97.7,0.491
21.54,31994.0,35171.6,-0.096,2.0692,148.2,97.7,0.491
21.56,31993.7,35131.6,-0.1006,1.5856,148.2,97.7,0.491
21.58,31926.5,35041.6,-1.2339,0.5001,148.2,97.7,0.491
21.6,32071.3,35007.5,1.2074,0.0891,148.2,97.7,0.491
21.62,32050.4,34985.3,0.8557,-0.1791,148.2,97.7,0.491
21.64,31984.6,34900.8,-0.2552,-1.1985,148.2,97.7,0.491
21.66,32042.0,34911.5,0.7134,-1.0697,148.2,97.7,0.491
21.68,31991.0,34923.5,-0.1458,-0.9246,148.2,97.7,0.491
21.7,31984.3,34936.1,-0.2588,-0.7729,148.2,97.7,0.491
21.72,31912.4,34947.2,-1.4728,-0.639,148.2,97.7,0.491
21.74,31951.0,35061.6,-0.8221,0.7413,148.2,97.7,0.491
21.76,31927.5,35066.6,-1.2169,0.8023,148.2,97.7,0.491
21.78,31998.5,34984.6,-0.0197,-0.188,148.2,97.7,0.491
21.8,31948.5,34961.1,-0.864,-0.4711,148.2,97.7,0.491
21.82,32022.8,34872.4,0.3903,-1.5413,148.2,97.7,0.491
21.84,31938.6,35014.7,-1.0298,0.1762,148.2,97.7,0.491
21.86,31979.0,34983.3,-0.3488,-0.2032,148.2,97.7,0.491
21.88,32057.2,35119.5,0.9707,1.4403,148.2,97.7,0.491
21.9,32101.2,35115.6,1.713,1.3934,148.2,97.7,0.491
21.92,32091.3,35118.8,1.5464,1.4314,148.2,97.7,0.491
21.94,32051.1,35137.5,0.8672,1.6573,148.2,97.7,0.491
21.96,32010.1,35107.8,0.1759,1.2985,148.2,97.7,0.491
21.98,32064.9,35064.2,1.0998,0.7732,148.2,97.7,0.491
22.0,31931.9,35006.9,-1.144,0.0822,148.2,97.7,0.491
22.02,32010.7,35074.3,0.1859,0.8953,148.2,97.7,0.491
22.04,32007.1,34940.1,0.1247,-0.7238,148.2,97.7,0.491
22.06,32152.4,35010.9,2.5767,0.1304,148.2,97.7,0.491
22.08,31936.0,34955.9,-1.074,-0.5341,148.2,97.7,0.491
22.1,31904.7,34908.9,-1.6017,-1.1004,148.2,97.7,0.491
22.12,31888.9,34944.1,-1.8697,-0.6765,148.2,97.7,0.491
22.14,31944.8,34967.1,-0.9261,-0.3985,148.2,97.7,0.491
22.16,31925.1,34864.6,-1.258,-1.6356,148.2,97.7,0.491
22.18,31950.2,34974.3,-0.8346,-0.3118,148.2,97.7,0.491
22.2,32005.8,34946.9,0.1036,-0.6428,148.2,97.7,0.491
22.22,31928.6,34902.8,-1.1995,-1.174,148.2,97.7,0.491
22.24,32059.3,34964.5,1.0059,-0.4299,148.2,97.7,0.491
22.26,31969.4,34958.9,-0.5111,-0.497,148.2,97.7,0.491
22.28,32084.5,35042.9,1.4301,0.5156,148.2,97.7,0.491
22.3,32080.6,35159.9,1.3645,1.927,148.2,97.7,0.491
22.32,32032.7,35061.8,0.5569,0.7446,148.2,97.7,0.491
22.34,31969.4,35114.6,-0.5104,1.3806,148.2,97.7,0.491
22.36,32000.2,35080.5,0.0089,0.9692,148.2,97.7,0.491
22.38,32004.5,35074.1,0.0815,0.8918,148.2,97.7,0.491
22.4,32032.8,34951.9,0.5593,-0.5825,148.2,97.7,0.491
22.42,32009.6,35117.5,0.1678,1.4155,148.2,97.7,0.491
22.44,32037.9,35006.6,0.6451,0.0785,148.2,97.7,0.491
22.46,31980.2,35029.6,-0.3284,0.3549,148.2,97.7,0.491
22.48,32006.6,34981.1,0.117,-0.2293,148.2,97.7,0.491
22.5,32052.9,34950.4,0.898,-0.5995,148.2,97.7,0.491
22.52,32004.7,35032.0,0.084,0.3839,148.2,97.7,0.491
22.54,31903.4,34988.8,-1.6248,-0.1368,148.2,97.7,0.491
22.56,31916.5,34978.5,-1.4037,-0.2607,148.2,97.7,0.491
22.58,31934.3,34984.7,-1.1024,-0.1858,148.2,97.7,0.491
22.6,32009.5,34834.5,0.166,-1.9984,148.2,97.7,0.491
22.62,31993.9,34912.8,-0.0971,-1.0533,148.2,97.7,0.491
22.64,31959.2,34867.7,-0.6821,-1.5973,148.2,97.7,0.491
22.66,31933.2,34886.3,-1.1209,-1.3729,148.2,97.7,0.491
22.68,32021.0,34971.7,0.3594,-0.3436,148.2,97.7,0.491
22.7,32075.5,35100.0,1.2786,1.2043,148.2,97.7,0.491
22.72,32034.4,35109.2,0.5855,1.3156,148.2,97.7,0.491
22.74,32020.2,35089.9,0.3457,1.0836,148.2,97.7,0.491
22.76,32061.0,35171.5,1.0338,2.0676,148.2,97.7,0.491
22.78,32113.4,35037.2,1.9189,0.4474,148.2,97.7,0.491
22.8,32048.7,34997.7,0.8275,-0.0293,148.2,97.7,0.491
22.82,31970.3,35131.4,-0.4951,1.5834,148.2,97.7,0.491
22.84,32029.1,35021.5,0.4963,0.2577,148.2,97.7,0.491
22.86,31936.1,35096.2,-1.0727,1.159,148.2,97.7,0.491
22.88,31959.1,35005.9,-0.685,0.0697,148.2,97.7,0.491
22.9,31984.5,34921.6,-0.2568,-0.9478,148.2,97.7,0.491
22.92,31982.9,34963.0,-0.2826,-0.4479,148.2,97.7,0.491
22.94,31993.5,35038.3,-0.1049,0.4602,148.2,97.7,0.491
22.96,32018.2,34907.9,0.3132,-1.1125,148.2,97.7,0.491
22.98,31973.1,34919.2,-0.449,-0.976,148.2,97.7,0.491
23.0,31967.9,34809.4,-0.5353,-2.3009,148.2,97.7,0.491
23.02,32071.4,34955.7,1.2103,-0.536,148.2,97.7,0.491
23.04,32052.5,34912.7,0.8918,-1.0543,148.2,97.7,0.491
23.06,32054.4,34941.9,0.9232,-0.7022,148.2,97.7,0.491
23.08,31928.1,35021.3,-1.2076,0.2553,148.2,97.7,0.491
23.1,31947.2,35108.3,-0.8853,1.3054,148.2,97.7,0.491
23.12,32063.7,35021.3,1.08,0.2552,148.2,97.7,0.491
23.14,32022.2,35102.1,0.3796,1.2304,148.2,97.7,0.491
23.16,32018.6,35004.3,0.3189,0.0501,148.2,97.7,0.491
23.18,32077.7,35045.0,1.3168,0.5409,148.2,97.7,0.491
23.2,32004.6,34946.1,0.0824,-0.6522,148.2,97.7,0.491
23.22,32023.2,34981.0,0.397,-0.2314,148.2,97.7,0.491
23.24,31880.6,35043.9,-2.0084,0.5279,148.2,97.7,0.491
23.26,31948.0,35074.8,-0.8723,0.901,148.2,97.7,0.491
23.28,31945.4,35011.5,-0.916,0.1377,148.2,97.7,0.491
23.3,31908.2,34953.4,-1.5432,-0.5637,148.2,97.7,0.491
23.32,32059.6,34950.7,1.0112,-0.596,148.2,97.7,0.491
23.34,32020.2,34940.4,0.3464,-0.7209,148.2,97.7,0.491
23.36,31932.5,34946.2,-1.1325,-0.651,148.2,97.7,0.491
23.38,32080.6,34945.5,1.3654,-0.6588,148.2,97.7,0.491
23.4,32017.3,34941.7,0.2977,-0.7052,148.2,97.7,0.491
23.42,31917.3,34930.9,-1.3893,-0.8358,148.2,97.7,0.491
23.44,32008.4,34935.0,0.1475,-0.7853,148.2,97.7,0.491
23.46,32001.4,34957.7,0.029,-0.5123,148.2,97.7,0.491
23.48,32059.6,35037.9,1.0102,0.456,148.2,97.7,0.491
23.5,32035.9,35114.6,0.6114,1.3814,148.2,97.7,0.491
23.52,32164.0,35244.0,2.7714,2.942,148.2,97.7,0.491
23.54,32057.6,35105.9,0.9766,1.2763,148.2,97.7,0.491
23.56,32056.2,35045.9,0.9529,0.5526,148.2,97.7,0.491
23.58,32050.1,35099.9,0.8502,1.2034,148.2,97.7,0.491
23.6,31958.2,35068.3,-0.699,0.8226,148.2,97.7,0.491
23.62,31986.3,34972.0,-0.2251,-0.34,148.2,97.7,0.491
23.64,31892.8,35076.4,-1.8023,0.9199,148.2,97.7,0.491
23.66,32085.6,34972.7,1.45,-0.3312,148.2,97.7,0.491
23.68,32063.5,34970.7,1.0768,-0.3553,148.2,97.7,0.491
23.7,31963.7,34991.2,-0.6073,-0.1079,148.2,97.7,0.491
23.72,31986.7,34849.3,-0.2186,-1.8203,148.2,97.7,0.491
23.74,31989.8,34867.0,-0.1672,-1.6067,148.2,97.7,0.491
23.76,32064.8,34954.4,1.0993,-0.5513,148.2,97.7,0.491
23.78,31913.5,34940.8,-1.4537,-0.7158,148.2,97.7,0.491
23.8,31931.4,34874.5,-1.1518,-1.5162,148.2,97.7,0.491
23.82,31837.9,34794.7,-2.7285,-2.4787,148.2,97.7,0.491
23.84,31958.7,34956.1,-0.6916,-0.5318,148.2,97.7,0.491
23.86,31994.2,35041.9,-0.0929,0.504,148.2,97.7,0.491
23.88,31977.6,35070.6,-0.3729,0.8498,148.2,97.7,0.491
23.9,31952.7,35098.4,-0.7917,1.185,148.2,97.7,0.491
23.92,32098.2,35153.9,1.6619,1.8557,148.2,97.7,0.491
23.94,32090.3,35085.2,1.5287,1.0268,148.2,97.7,0.491
23.96,32059.7,35096.0,1.0126,1.1568,148.2,97.7,0.491
23.98,32023.3,35017.9,0.3982,0.214,148.2,97.7,0.491
24.0,32060.6,35020.7,1.0277,0.2481,148.2,97.7,0.491
24.02,31995.0,35066.4,-0.0793,0.7998,148.2,97.7,0.491
24.04,32026.9,34959.6,0.4584,-0.4887,148.2,97.7,0.491
24.06,32132.5,35000.0,2.2413,-0.0013,148.2,97.7,0.491
24.08,32042.6,34991.1,0.7249,-0.1088,148.2,97.7,0.491
24.1,31956.1,34970.9,-0.7356,-0.3532,148.2,97.7,0.491
24.12,31902.4,34994.7,-1.6405,-0.0657,148.2,97.7,0.491
24.14,32019.1,34990.3,0.3275,-0.1182,148.2,97.7,0.491
24.16,31977.7,34882.5,-0.3716,-1.4192,148.2,97.7,0.491
24.18,31991.7,35021.1,-0.1338,0.2533,148.2,97.7,0.491
24.2,31971.8,34935.0,-0.4695,-0.7857,148.2,97.7,0.491
24.22,31983.7,34932.9,-0.2692,-0.811,148.2,97.7,0.491
24.24,31929.3,34944.0,-1.1866,-0.6775,148.2,97.7,0.491
24.26,31875.9,34943.6,-2.0882,-0.682,148.2,97.7,0.491
24.28,31928.7,34989.7,-1.198,-0.1253,148.2,97.7,0.491
24.3,31968.7,34984.8,-0.5221,-0.1856,148.2,97.7,0.491
24.32,32076.7,35064.1,1.2992,0.7722,148.2,97.7,0.491
24.34,32165.8,35209.1,2.8024,2.5209,148.2,97.7,0.491
24.36,31951.0,35108.1,-0.8211,1.3026,148.2,97.7,0.491
24.38,31996.1,35207.2,-0.0599,2.4985,148.2,97.7,0.491
24.4,32007.7,34992.8,0.1358,-0.0886,148.2,97.7,0.491
24.42,32090.1,35017.4,1.5247,0.2088,148.2,97.7,0.491
24.44,32014.5,35044.9,0.2494,0.5399,148.2,97.7,0.491
24.46,31945.6,34946.5,-0.9126,-0.6465,148.2,97.7,0.491
24.48,31984.2,34947.1,-0.2619,-0.6394,148.2,97.7,0.491
24.5,31966.6,35009.6,-0.5589,0.1144,148.2,97.7,0.491
24.52,31932.7,34913.1,-1.1304,-1.0501,148.2,97.7,0.491
24.54,31972.5,34971.7,-0.4589,-0.3435,148.2,97.7,0.491
24.56,32022.1,34884.4,0.3787,-1.3962,148.2,97.7,0.491
24.58,32103.2,34913.3,1.7472,-1.048,148.2,97.7,0.491
24.6,31930.7,34935.4,-1.1645,-0.7809,148.2,97.7,0.491
24.62,31961.4,34911.1,-0.6458,-1.0738,148.2,97.7,0.491
24.64,31883.5,34965.4,-1.9604,-0.4191,148.2,97.7,0.491
24.66,31914.2,34968.3,-1.4417,-0.3841,148.2,97.7,0.491
24.68,31980.1,34976.1,-0.3296,-0.2897,148.2,97.7,0.491
24.7,32092.8,35064.2,1.5713,0.7735,148.2,97.7,0.491
24.72,32023.1,35106.1,0.3959,1.2781,148.2,97.7,0.491
24.74,32209.4,35145.0,3.5377,1.7474,148.2,97.7,0.491
24.76,32065.1,35153.4,1.1034,1.8489,148.2,97.7,0.491
24.78,31995.7,35134.5,-0.0663,1.6211,148.2,97.7,0.491
24.8,32060.2,35083.3,1.0213,1.0038,148.2,97.7,0.491
24.82,32068.6,35029.7,1.1629,0.357,148.2,97.7,0.491
24.84,32016.2,35002.2,0.2791,0.0249,148.2,97.7,0.491
24.86,32072.9,35063.5,1.2354,0.7641,148.2,97.7,0.491
24.88,32021.6,35063.7,0.3702,0.7666,148.2,97.7,0.491
24.9,32106.1,34932.0,1.7955,-0.8217,148.2,97.7,0.491
24.92,31925.2,34894.9,-1.2566,-1.2693,148.2,97.7,0.491
24.94,32041.0,34996.7,0.6973,-0.0414,148.2,97.7,0.491
24.96,32042.3,34969.2,0.7184,-0.3733,148.2,97.7,0.491
24.98,32020.6,35020.6,0.3527,0.2464,148.2,97.7,0.491
25.0,31955.9,34926.2,-0.7384,-0.8923,148.2,97.7,0.491
25.02,31889.0,34979.4,-1.8664,-0.2505,148.2,97.7,0.491
25.04,31991.6,34932.1,-0.1363,-0.8208,148.2,97.7,0.491
25.06,31894.4,34952.9,-1.7767,-0.5699,148.2,97.7,0.491
25.08,32022.0,34958.4,0.3761,-0.5031,148.2,97.7,0.491
25.1,31988.2,35063.0,-0.1944,0.7584,148.2,97.7,0.491
25.12,32005.4,35095.5,0.0965,1.1505,148.2,97.7,0.491
25.14,32092.2,35083.1,1.56,1.0011,148.2,97.7,0.491
25.16,32126.3,35073.1,2.1358,0.8807,148.2,97.7,0.491
25.18,32134.9,35102.2,2.2804,1.2318,148.2,97.7,0.491
25.2,32045.6,35025.4,0.7749,0.3049,148.2,97.7,0.491
25.22,31914.8,34990.0,-1.4315,-0.1228,148.2,97.7,0.491
25.24,32049.0,35024.0,0.8317,0.2884,148.2,97.7,0.491
25.26,32021.7,35117.0,0.3708,1.4102,148.2,97.7,0.491
25.28,32027.7,35005.8,0.4731,0.0679,148.2,97.7,0.491
25.3,32014.9,34934.3,0.2564,-0.7938,148.2,97.7,0.491
25.32,32038.6,35021.3,0.6561,0.2548,148.2,97.7,0.491
25.34,31970.3,35000.2,-0.4958,0.0003,148.2,97.7,0.491
25.36,31946.4,34837.5,-0.8986,-1.9627,148.2,97.7,0.491
25.38,31926.6,34980.8,-1.2322,-0.2338,148.2,97.7,0.491
25.4,31939.1,34858.5,-1.0214,-1.7093,148.2,97.7,0.491
25.42,31927.1,34946.3,-1.2251,-0.6496,148.2,97.7,0.491
25.44,32062.1,34949.7,1.0533,-0.6086,148.2,97.7,0.491
25.46,32057.9,34888.2,0.9825,-1.351,148.2,97.7,0.491
25.48,31969.9,34896.5,-0.5024,-1.2502,148.2,97.7,0.491
25.5,31992.5,35045.0,-0.121,0.541,148.2,97.7,0.491
25.52,31937.8,35124.2,-1.0434,1.4966,148.2,97.7,0.491
25.54,32028.6,35135.9,0.4886,1.6379,148.2,97.7,0.491
25.56,31999.7,35121.3,-0.0002,1.4623,148.2,97.7,0.491
25.58,31925.4,35110.3,-1.2527,1.3289,148.2,97.7,0.491
25.6,32026.1,35028.0,0.4456,0.3362,148.2,97.7,0.491
25.62,32039.9,35050.9,0.6793,0.6122,148.2,97.7,0.491
25.64,32043.1,34979.9,0.7327,-0.2438,148.2,97.7,0.491
25.66,32008.7,34914.9,0.1517,-1.0287,148.2,97.7,0.491
25.68,32093.9,35048.6,1.5901,0.5841,148.2,97.7,0.491
25.7,32001.7,35094.3,0.0342,1.1364,148.2,97.7,0.491
25.72,31925.8,34990.6,-1.2466,-0.1151,148.2,97.7,0.491
25.74,31987.6,35012.2,-0.2035,0.1454,148.2,97.7,0.491
25.76,31942.0,35022.1,-0.9726,0.2654,148.2,97.7,0.491
25.78,32077.5,34968.4,1.3123,-0.3834,148.2,97.7,0.491
25.8,31947.4,34945.1,-0.8826,-0.6636,148.2,97.7,0.491
25.82,31865.1,34818.2,-2.2702,-2.195,148.2,97.7,0.491
25.84,32005.7,34942.7,0.1019,-0.6924,148.2,97.7,0.491
25.86,31927.9,34941.7,-1.2108,-0.7045,148.2,97.7,0.491
25.88,31874.8,34861.9,-2.1073,-1.6677,148.2,97.7,0.491
25.9,32066.9,35046.8,1.1341,0.5629,148.2,97.7,0.491
25.92,32101.8,34965.0,1.7228,-0.424,148.2,97.7,0.491
25.94,32129.1,35090.0,2.1831,1.0837,148.2,97.7,0.491
25.96,32023.6,35148.2,0.4032,1.7859,148.2,97.7,0.491
25.98,32125.1,35069.4,2.115,0.8355,148.2,97.7,0.491
26.0,31953.0,35053.5,-0.7881,0.6436,148.2,97.7,0.491
26.02,32029.5,35102.8,0.5031,1.2381,148.2,97.7,0.491
26.04,32068.9,34905.6,1.168,-1.14,148.2,97.7,0.491
26.06,32013.9,34942.6,0.2399,-0.6941,148.2,97.7,0.491
26.08,32046.7,34933.7,0.7927,-0.8016,148.2,97.7,0.491
26.1,31996.0,35003.0,-0.0628,0.0343,148.2,97.7,0.491
26.12,31871.1,35003.9,-2.1695,0.046,148.2,97.7,0.491
26.14,32040.8,34985.5,0.694,-0.176,148.2,97.7,0.491
26.16,32033.5,34899.1,0.5705,-1.2192,148.2,97.7,0.491
26.18,31984.9,34972.1,-0.2497,-0.3381,148.2,97.7,0.491
26.2,31920.2,34950.7,-1.3409,-0.5967,148.2,97.7,0.491
26.22,31960.6,34833.4,-0.6587,-2.0118,148.2,97.7,0.491
26.24,31951.4,34902.4,-0.8142,-1.1789,148.2,97.7,0.491
26.26,31960.9,34886.4,-0.6546,-1.3718,148.2,97.7,0.491
26.28,32013.7,34847.1,0.2368,-1.8468,148.2,97.7,0.491
26.3,31954.1,35016.5,-0.7696,0.1973,148.2,97.7,0.491
26.32,31823.8,34957.8,-2.9675,-0.5105,148.2,97.7,0.491
26.34,32022.8,35064.6,0.3893,0.7783,148.2,97.7,0.491
26.36,32006.3,35126.3,0.1125,1.5227,148.2,97.7,0.491
26.38,32076.7,35148.4,1.2996,1.7883,148.2,97.7,0.491
26.4,32111.4,35148.0,1.8855,1.784,148.2,97.7,0.491
26.42,32029.7,35078.1,0.507,0.9408,148.2,97.7,0.491
26.44,32015.4,35001.7,0.2659,0.0187,148.2,97.7,0.491
26.46,31937.2,35101.5,-1.0542,1.2231,148.2,97.7,0.491
26.48,31976.3,35082.9,-0.3945,0.998,148.2,97.7,0.491
26.5,31967.7,34967.6,-0.5395,-0.392,148.2,97.7,0.491
26.52,32021.9,34955.9,0.3746,-0.5335,148.2,97.7,0.491
26.54,32012.7,34935.3,0.2196,-0.7824,148.2,97.7,0.491
26.56,32049.2,34910.4,0.8349,-1.0828,148.2,97.7,0.491
26.58,31964.9,34979.9,-0.5873,-0.2441,148.2,97.7,0.491
26.6,32015.4,34939.6,0.2653,-0.731,148.2,97.7,0.491
26.62,32048.7,34931.2,0.8275,-0.8313,148.2,97.7,0.491
26.64,32007.4,34972.6,0.1302,-0.3328,148.2,97.7,0.491
26.66,31937.1,34916.5,-1.0561,-1.0092,148.2,97.7,0.491
26.68,31952.4,34949.9,-0.7975,-0.6066,148.2,97.7,0.491
26.7,31979.1,35053.4,-0.3467,0.6422,148.2,97.7,0.491
26.72,32012.7,34963.5,0.2199,-0.4423,148.2,97.7,0.491
26.74,32029.8,35016.0,0.5088,0.1919,148.2,97.7,0.491
26.76,32084.4,35043.1,1.4293,0.5185,148.2,97.7,0.491
26.78,32007.9,35195.3,0.1395,2.355,148.2,97.7,0.491
26.8,32041.3,35030.4,0.7025,0.3657,148.2,97.7,0.491
26.82,32084.0,34985.3,1.4222,-0.1787,148.2,97.7,0.491
26.84,32063.2,35068.3,1.072,0.823,148.2,97.7,0.491
26.86,31945.5,35020.7,-0.9145,0.2487,148.2,97.7,0.491
26.88,32122.9,35033.5,2.0795,0.4023,148.2,97.7,0.491
26.9,31929.4,35076.0,-1.1854,0.9147,148.2,97.7,0.491
26.92,31985.1,34939.6,-0.2455,-0.73,148.2,97.7,0.491
26.94,32098.1,34969.8,1.6603,-0.3658,148.2,97.7,0.491
26.96,31913.0,34933.5,-1.4624,-0.8045,148.2,97.7,0.491
26.98,31913.0,34848.7,-1.4624,-1.8271,148.2,97.7,0.491
27.0,31975.8,34996.6,-0.4024,-0.0428,148.2,97.7,0.491
27.02,31905.9,34920.2,-1.5826,-0.9643,148.2,97.7,0.491
27.04,31962.1,34925.2,-0.6337,-0.9038,148.2,97.7,0.491
27.06,31924.6,34908.2,-1.2658,-1.1087,148.2,97.7,0.491
27.08,31966.8,34974.0,-0.5549,-0.3151,148.2,97.7,0.491
27.1,31929.2,34913.4,-1.189,-1.0467,148.2,97.7,0.491
27.12,32070.9,34974.5,1.2018,-0.3094,148.2,97.7,0.491
27.14,32049.8,35019.6,0.8448,0.2348,148.2,97.7,0.491
27.16,32006.1,35102.5,0.1077,1.2346,148.2,97.7,0.491
27.18,32039.4,35143.1,0.6695,1.7249,148.2,97.7,0.491
27.2,32082.8,35062.4,1.402,0.751,148.2,97.7,0.491
27.22,32043.1,35053.3,0.732,0.6415,148.2,97.7,0.491
27.24,32005.8,35030.3,0.1027,0.3638,148.2,97.7,0.491
27.26,31977.6,34926.4,-0.3727,-0.8897,148.2,97.7,0.491
27.28,31845.3,35021.0,-2.6043,0.2523,148.2,97.7,0.491
27.3,32032.0,34954.1,0.5448,-0.555,148.2,97.7,0.491
27.32,32046.0,34987.9,0.7821,-0.1472,148.2,97.7,0.491
27.34,31952.1,35011.2,-0.8028,0.1329,148.2,97.7,0.491
27.36,32013.0,35000.3,0.2255,0.0014,148.2,97.7,0.491
27.38,32046.4,34892.7,0.7883,-1.2962,148.2,97.7,0.491
27.4,31917.9,34994.3,-1.38,-0.0707,148.2,97.7,0.491
27.42,31904.6,34889.1,-1.6037,-1.34,148.2,97.7,0.491
27.44,31923.4,34977.0,-1.2867,-0.2786,148.2,97.7,0.491
27.46,31913.2,34944.3,-1.4595,-0.6733,148.2,97.7,0.491
27.48,31905.0,34979.5,-1.5978,-0.249,148.2,97.7,0.491
27.5,31908.5,34973.2,-1.538,-0.3252,148.2,97.7,0.491
27.52,31994.8,34913.3,-0.0818,-1.0478,148.2,97.7,0.491
27.54,31992.3,35108.9,-0.1253,1.3123,148.2,97.7,0.491
27.56,32034.5,35019.8,0.587,0.2374,148.2,97.7,0.491
27.58,32062.6,35078.6,1.062,0.9463,148.2,97.7,0.491
27.6,32159.2,35052.6,2.6909,0.6335,148.2,97.7,0.491
27.62,32006.9,35112.1,0.1212,1.3505,148.2,97.7,0.491
27.64,31934.3,35055.7,-1.1027,0.67,148.2,97.7,0.491
27.66,31959.8,35151.3,-0.6729,1.8238,148.2,97.7,0.491
27.68,32022.8,35010.5,0.3905,0.125,148.2,97.7,0.491
27.7,32018.6,35027.5,0.3184,0.3302,148.2,97.7,0.491
27.72,31990.5,35032.5,-0.1545,0.3901,148.2,97.7,0.491
27.74,31971.3,35049.4,-0.4794,0.5943,148.2,97.7,0.491
27.76,31895.5,34965.0,-1.7568,-0.4244,148.2,97.7,0.491
27.78,32022.0,34937.5,0.3763,-0.7555,148.2,97.7,0.491
27.8,31969.9,34928.1,-0.5027,-0.8686,148.2,97.7,0.491
27.82,31897.2,34912.5,-1.7285,-1.0576,148.2,97.7,0.491
27.84,32021.0,34944.1,0.3593,-0.6761,148.2,97.7,0.491
27.86,31951.1,34891.9,-0.8194,-1.3056,148.2,97.7,0.491
27.88,31917.0,34939.8,-1.3942,-0.7284,148.2,97.7,0.491
27.9,31897.2,34953.0,-1.7286,-0.5691,148.2,97.7,0.491
27.92,31997.2,34936.5,-0.0424,-0.7683,148.2,97.7,0.491
27.94,32053.2,35056.8,0.9035,0.6832,148.2,97.7,0.491
27.96,32046.7,35060.5,0.7935,0.7285,148.2,97.7,0.491
27.98,32050.7,35090.2,0.8615,1.086,148.2,97.7,0.491
28.0,31974.6,35127.3,-0.423,1.5344,148.2,97.7,0.491
28.02,32107.5,35077.1,1.8191,0.929,148.2,97.7,0.491
28.04,31930.4,35018.7,-1.1694,0.2242,148.2,97.7,0.491
28.06,31911.6,35050.6,-1.4865,0.6085,148.2,97.7,0.491
28.08,31969.7,35045.3,-0.5063,0.5453,148.2,97.7,0.491
28.1,32040.9,34999.2,0.6948,-0.0113,148.2,97.7,0.491
28.12,32019.5,34937.1,0.3349,-0.7603,148.2,97.7,0.491
28.14,31980.8,34930.2,-0.3177,-0.8441,148.2,97.7,0.491
28.16,32068.5,34889.8,1.1614,-1.331,148.2,97.7,0.491
28.18,31942.6,34920.4,-0.9625,-0.9618,148.2,97.7,0.491
28.2,31979.7,34925.6,-0.3377,-0.8997,148.2,97.7,0.491
28.22,31909.2,34890.8,-1.5269,-1.3195,148.2,97.7,0.491
28.24,31974.0,34932.3,-0.4329,-0.818,148.2,97.7,0.491
28.26,31924.3,34895.5,-1.2721,-1.2626,148.2,97.7,0.491
28.28,31956.0,34961.3,-0.7361,-0.4682,148.2,97.7,0.491
28.3,31925.4,34919.8,-1.2535,-0.969,148.2,97.7,0.491
28.32,32055.6,34939.6,0.9428,-0.7299,148.2,97.7,0.491
28.34,32038.3,35020.4,0.652,0.2449,148.2,97.7,0.491
28.36,32010.7,34982.9,0.1864,-0.2075,148.2,97.7,0.491
28.38,32081.0,35122.2,1.3717,1.4724,148.2,97.7,0.491
28.4,32010.2,35067.8,0.177,0.8169,148.2,97.7,0.491
28.42,32056.0,35153.2,0.9507,1.8465,148.2,97.7,0.491
28.44,31987.9,35015.1,-0.1989,0.1803,148.2,97.7,0.491
28.46,31995.0,35068.9,-0.0785,0.83,148.2,97.7,0.491
28.48,31937.3,35060.6,-1.0529,0.7295,148.2,97.7,0.491
28.5,32026.8,35027.6,0.4576,0.3318,148.2,97.7,0.491
28.52,31941.8,35003.3,-0.9764,0.0382,148.2,97.7,0.491
28.54,31931.1,35089.0,-1.1577,1.0722,148.2,97.7,0.491
28.56,31984.1,34902.5,-0.2626,-1.1782,148.2,97.7,0.491
28.58,32086.0,34823.2,1.4561,-2.1345,148.2,97.7,0.491
28.6,31977.6,34876.5,-0.3722,-1.4917,148.2,97.7,0.491
28.62,32010.9,34924.0,0.189,-0.9185,148.2,97.7,0.491
28.64,32092.3,34927.5,1.5631,-0.8768,148.2,97.7,0.491
28.66,31951.9,34907.2,-0.8059,-1.1213,148.2,97.7,0.491
28.68,31956.3,34925.4,-0.7322,-0.9019,148.2,97.7,0.491
28.7,31942.8,34912.1,-0.9598,-1.0619,148.2,97.7,0.491
28.72,32040.4,34955.9,0.6867,-0.5337,148.2,97.7,0.491
28.74,32080.8,35003.2,1.3684,0.0366,148.2,97.7,0.491
28.76,32048.1,35153.7,0.8177,1.8531,148.2,97.7,0.491
28.78,32150.2,35152.1,2.5392,1.8336,148.2,97.7,0.491
28.8,32051.6,35178.7,0.8767,2.1539,148.2,97.7,0.491
28.82,32124.6,35126.2,2.1075,1.5213,148.2,97.7,0.491
28.84,32005.3,35022.9,0.0945,0.2743,148.2,97.7,0.491
28.86,32037.1,34952.7,0.632,-0.5728,148.2,97.7,0.491
28.88,32054.7,34971.5,0.9283,-0.346,148.2,97.7,0.491
28.9,31939.1,35043.3,-1.0221,0.5205,148.2,97.7,0.491
28.92,31943.5,34996.4,-0.9477,-0.0446,148.2,97.7,0.491
28.94,31940.6,34938.5,-0.9961,-0.7435,148.2,97.7,0.491
28.96,32051.8,35056.4,0.8792,0.6792,148.2,97.7,0.491
28.98,32050.8,34935.1,0.8619,-0.7846,148.2,97.7,0.491
29.0,31951.3,34927.3,-0.8166,-0.8792,148.2,97.7,0.491
29.02,32048.4,34849.2,0.8216,-1.8205,148.2,97.7,0.491
29.04,32010.5,34959.1,0.1821,-0.4948,148.2,97.7,0.491
29.06,31881.5,34896.7,-1.9939,-1.248,148.2,97.7,0.491
29.08,32027.8,34954.3,0.4743,-0.5531,148.2,97.7,0.491
29.1,31890.7,34932.8,-1.8383,-0.8126,148.2,97.7,0.491
29.12,32063.3,34949.7,1.073,-0.6081,148.2,97.7,0.491
29.14,31980.5,35066.7,-0.3228,0.803,148.2,97.7,0.491
29.16,31979.6,35054.4,-0.3389,0.6551,148.2,97.7,0.491
29.18,32103.6,35152.3,1.753,1.8361,148.2,97.7,0.491
29.2,32004.8,35157.6,0.0859,1.9,148.2,97.7,0.491
29.22,32077.1,35133.4,1.306,1.6084,148.2,97.7,0.491
29.24,32056.0,35047.8,0.9494,0.5756,148.2,97.7,0.491
29.26,31972.8,35038.6,-0.4532,0.4645,148.2,97.7,0.491
29.28,31974.5,34977.9,-0.424,-0.2679,148.2,97.7,0.491
29.3,32025.5,35075.9,0.4361,0.9135,148.2,97.7,0.491
29.32,32022.1,34909.9,0.3786,-1.0882,148.2,97.7,0.491
29.34,32020.1,34977.4,0.3437,-0.2745,148.2,97.7,0.491
29.36,32057.9,35023.3,0.9819,0.2789,148.2,97.7,0.491
29.38,31893.6,34943.4,-1.7901,-0.6843,148.2,97.7,0.491
29.4,31961.4,34958.6,-0.6459,-0.5005,148.2,97.7,0.491
29.42,32025.2,34918.4,0.4297,-0.9857,148.2,97.7,0.491
29.44,31952.9,34917.5,-0.7887,-0.997,148.2,97.7,0.491
29.46,31878.2,34942.7,-2.0488,-0.6926,148.2,97.7,0.491
29.48,32008.6,34933.3,0.1511,-0.8066,148.2,97.7,0.491
29.5,31950.5,34843.5,-0.8303,-1.8896,148.2,97.7,0.491
29.52,32040.1,34917.2,0.6814,-1.0004,148.2,97.7,0.491
29.54,32033.1,34960.1,0.5641,-0.4826,148.2,97.7,0.491
29.56,31970.1,34987.1,-0.4995,-0.1575,148.2,97.7,0.491
29.58,32126.9,35150.5,2.1467,1.8141,148.2,97.7,0.491
29.6,32045.9,35089.3,0.7802,1.0752,148.2,97.7,0.491
29.62,32037.3,35135.1,0.6344,1.6279,148.2,97.7,0.491
29.64,32099.1,35116.1,1.6772,1.3987,148.2,97.7,0.491
29.66,31984.5,35159.9,-0.2565,1.927,148.2,97.7,0.491
29.68,31964.4,35128.7,-0.5957,1.5512,148.2,97.7,0.491
29.7,32010.0,34969.4,0.1747,-0.3703,148.2,97.7,0.491
29.72,31970.5,34930.3,-0.4921,-0.8422,148.2,97.7,0.491
29.74,32101.5,34934.5,1.7177,-0.7919,148.2,97.7,0.491
29.76,31989.7,34980.2,-0.1679,-0.2411,148.2,97.7,0.491
29.78,31947.3,34867.9,-0.8829,-1.5951,148.2,97.7,0.491
29.8,32031.7,34897.3,0.5396,-1.2409,148.2,97.7,0.491
29.82,32040.3,34956.2,0.6854,-0.5298,148.2,97.7,0.491
29.84,31996.8,34924.0,-0.0484,-0.9183,148.2,97.7,0.491
29.86,32019.6,34984.6,0.3357,-0.1874,148.2,97.7,0.491
29.88,32005.0,34854.8,0.0903,-1.7533,148.2,97.7,0.491
29.9,31941.7,34896.0,-0.9777,-1.2566,148.2,97.7,0.491
29.92,31898.7,34964.2,-1.704,-0.4335,148.2,97.7,0.491
29.94,31949.9,34997.5,-0.8401,-0.0321,148.2,97.7,0.491
29.96,32032.5,35055.1,0.5545,0.6635,148.2,97.7,0.491
29.98,32032.2,35051.1,0.5484,0.6144,148.2,97.7,0.491
30.0,32160.9,35104.1,2.7203,1.2542,148.2,97.7,0.491
30.02,31967.5,35121.8,-0.5435,1.4681,148.2,97.7,0.491
30.04,32037.2,35106.6,0.6325,1.284,148.2,97.7,0.491
30.06,32020.1,35140.8,0.3452,1.6975,148.2,97.7,0.491
30.08,31991.2,35009.1,-0.143,0.1081,148.2,97.7,0.491
30.1,31925.7,35063.6,-1.2487,0.7656,148.2,97.7,0.491
30.12,31974.3,35002.4,-0.4288,0.0267,148.2,97.7,0.491
30.14,31999.6,34968.4,-0.0018,-0.3827,148.2,97.7,0.491
30.16,32065.4,34990.9,1.1088,-0.1112,148.2,97.7,0.491
30.18,32054.9,34900.1,0.9309,-1.2068,148.2,97.7,0.491
30.2,31974.1,34931.6,-0.4322,-0.8271,148.2,97.7,0.491
30.22,31955.8,35006.7,-0.7411,0.0792,148.2,97.7,0.491
30.24,31999.6,34948.0,-0.0019,-0.6291,148.2,97.7,0.491
30.26,31928.3,34938.3,-1.2035,-0.746,148.2,97.7,0.491
30.28,31999.9,34953.3,0.0031,-0.5654,148.2,97.7,0.491
30.3,32050.9,35020.3,0.8632,0.2427,148.2,97.7,0.491
30.32,31931.8,34976.5,-1.1452,-0.2852,148.2,97.7,0.491
30.34,32037.5,34953.4,0.6378,-0.5636,148.2,97.7,0.491
30.36,31900.4,34983.8,-1.6754,-0.1976,148.2,97.7,0.491
30.38,31995.8,35044.5,-0.0662,0.5351,148.2,97.7,0.491
30.4,31987.1,34992.8,-0.2117,-0.0882,148.2,97.7,0.491
30.42,32114.0,35183.1,1.9278,2.2072,148.2,97.7,0.491
30.44,32103.1,35059.5,1.7453,0.7165,148.2,97.7,0.491
30.46,32047.0,35103.3,0.7983,1.2442,148.2,97.7,0.491
30.48,32012.4,34977.9,0.2141,-0.2687,148.2,97.7,0.491
30.5,32058.8,34947.5,0.9974,-0.6348,148.2,97.7,0.491
30.52,32072.5,35005.4,1.229,0.0633,148.2,97.7,0.491
30.54,32031.8,34991.4,0.5422,-0.1053,148.2,97.7,0.491
30.56,31964.0,35009.9,-0.6012,0.1174,148.2,97.7,0.491
30.58,31989.8,35069.6,-0.1658,0.8376,148.2,97.7,0.491
30.6,31964.9,34965.4,-0.5864,-0.4189,148.2,97.7,0.491
30.62,32010.9,34936.3,0.1897,-0.7702,148.2,97.7,0.491
30.64,32032.3,35026.4,0.5509,0.3163,148.2,97.7,0.491
30.66,31971.8,34904.8,-0.4704,-1.1502,148.2,97.7,0.491
30.68,32048.9,34944.7,0.8295,-0.669,148.2,97.7,0.491
30.7,32009.7,34919.2,0.1682,-0.9765,148.2,97.7,0.491
30.72,31996.0,34865.4,-0.0623,-1.6259,148.2,97.7,0.491
30.74,32045.5,34871.4,0.7728,-1.5538,148.2,97.7,0.491
30.76,32117.7,34956.7,1.9918,-0.5241,148.2,97.7,0.491
30.78,32069.3,35042.6,1.1746,0.5128,148.2,97.7,0.491
30.8,32088.5,35037.8,1.4986,0.4545,148.2,97.7,0.491
30.82,32151.9,35148.9,2.5675,1.7948,148.2,97.7,0.491
30.84,31983.3,35157.1,-0.2772,1.8941,148.2,97.7,0.491
30.86,32031.3,35062.9,0.5336,0.7569,148.2,97.7,0.491
30.88,32067.7,35098.6,1.1475,1.1879,148.2,97.7,0.491
30.9,32043.1,35125.3,0.7318,1.5099,148.2,97.7,0.491
30.92,32011.6,35013.7,0.2017,0.1636,148.2,97.7,0.491
30.94,31965.1,35025.5,-0.583,0.3057,148.2,97.7,0.491
30.96,31935.3,34962.6,-1.0867,-0.4533,148.2,97.7,0.491
30.98,31994.7,34937.1,-0.0842,-0.76,148.2,97.7,0.491
31.0,31996.7,34924.3,-0.0495,-0.9147,148.2,97.7,0.491
31.02,32036.9,34913.7,0.6278,-1.0426,148.2,97.7,0.491
31.04,32015.2,34952.1,0.2614,-0.5792,148.2,97.7,0.491
31.06,31971.8,35008.3,-0.4704,0.0987,148.2,97.7,0.491
31.08,32015.0,34920.9,0.2589,-0.9554,148.2,97.7,0.491
31.1,31925.2,34904.2,-1.257,-1.1579,148.2,97.7,0.491
31.12,31967.0,34938.0,-0.5521,-0.7503,148.2,97.7,0.491
31.14,32051.4,34891.9,0.8723,-1.3054,148.2,97.7,0.491
31.16,32015.6,35000.0,0.2679,-0.0019,148.2,97.7,0.491
31.18,32047.9,34984.4,0.8129,-0.1898,148.2,97.7,0.491
31.2,32115.5,35085.7,1.954,1.0328,148.2,97.7,0.491
31.22,31996.1,35176.9,-0.0599,2.1326,148.2,97.7,0.491
31.24,32026.7,35134.5,0.4555,1.6206,148.2,97.7,0.491
31.26,32063.4,35107.5,1.0747,1.2949,148.2,97.7,0.491
31.28,32026.4,35058.9,0.45,0.7095,148.2,97.7,0.491
31.3,31968.4,35054.5,-0.528,0.6553,148.2,97.7,0.491
31.32,32013.1,34999.0,0.2264,-0.0135,148.2,97.7,0.491
31.34,32084.9,34987.2,1.4384,-0.1563,148.2,97.7,0.491
31.36,32034.8,35038.9,0.5923,0.4674,148.2,97.7,0.491
31.38,32023.7,35010.1,0.4044,0.1207,148.2,97.7,0.491
31.4,31944.6,34965.6,-0.93,-0.4161,148.2,97.7,0.491
31.42,32051.2,34960.5,0.8687,-0.4777,148.2,97.7,0.491
31.44,31961.2,34816.1,-0.6487,-2.2198,148.2,97.7,0.491
31.46,31909.9,35015.7,-1.5152,0.1874,148.2,97.7,0.491
31.48,31867.2,34931.3,-2.2342,-0.83,148.2,97.7,0.491
31.5,31881.9,34942.7,-1.9876,-0.6926,148.2,97.7,0.491
31.52,32005.6,34977.7,0.1005,-0.2703,148.2,97.7,0.491
31.54,32032.7,34878.2,0.5575,-1.4709,148.2,97.7,0.491
31.56,31986.4,34967.4,-0.2243,-0.3952,148.2,97.7,0.491
31.58,32054.4,35040.5,0.9228,0.4873,148.2,97.7,0.491
31.6,31968.9,35122.9,-0.5193,1.4811,148.2,97.7,0.491
31.62,31929.2,35133.5,-1.1883,1.6091,148.2,97.7,0.491
31.64,32087.8,35219.2,1.4861,2.6427,148.2,97.7,0.491
31.66,32075.6,35165.4,1.281,1.9936,148.2,97.7,0.491
31.68,31988.5,35054.8,-0.1884,0.6599,148.2,97.7,0.491
31.7,31982.9,35010.6,-0.2838,0.1257,148.2,97.7,0.491
31.72,32028.2,35106.1,0.4812,1.2788,148.2,97.7,0.491
31.74,32037.3,35040.6,0.6351,0.4887,148.2,97.7,0.491
31.76,31957.2,35022.1,-0.717,0.2644,148.2,97.7,0.491
31.78,32009.8,34994.7,0.1707,-0.0655,148.2,97.7,0.491
31.8,32012.6,34986.7,0.2187,-0.1616,148.2,97.7,0.491
31.82,31991.4,34972.4,-0.1399,-0.3348,148.2,97.7,0.491
31.84,32112.8,34987.6,1.9084,-0.1513,148.2,97.7,0.491
31.86,31942.4,34984.3,-0.9658,-0.1913,148.2,97.7,0.491
31.88,31982.2,34904.5,-0.2948,-1.1539,148.2,97.7,0.491
31.9,31951.2,34925.3,-0.8182,-0.9034,148.2,97.7,0.491
31.92,31894.6,34906.1,-1.7722,-1.1351,148.2,97.7,0.491
31.94,31981.3,35001.6,-0.3097,0.018,148.2,97.7,0.491
31.96,31954.9,35014.4,-0.7558,0.1716,148.2,97.7,0.491
31.98,32032.9,35007.1,0.5602,0.0837,148.2,97.7,0.491
32.0,32086.0,34930.5,1.4566,-0.84,148.2,97.7,0.491
32.02,32044.2,35116.5,0.7511,1.4034,148.2,97.7,0.491
32.04,32100.0,35127.0,1.6916,1.531,148.2,97.7,0.491
32.06,32077.4,35080.6,1.3118,0.9711,148.2,97.7,0.491
32.08,32117.1,35075.0,1.9816,0.9038,148.2,97.7,0.491
32.1,31988.9,35060.4,-0.1823,0.7273,148.2,97.7,0.491
32.12,32025.2,35072.0,0.4307,0.8668,148.2,97.7,0.491
32.14,31901.4,34929.2,-1.658,-0.8554,148.2,97.7,0.491
32.16,32006.4,34928.1,0.113,-0.8686,148.2,97.7,0.491
32.18,31970.0,34959.3,-0.5015,-0.4921,148.2,97.7,0.491
32.2,31964.9,34988.0,-0.586,-0.1469,148.2,97.7,0.491
32.22,32056.2,34910.5,0.9528,-1.0819,148.2,97.7,0.491
32.24,32066.3,34980.1,1.1235,-0.2423,148.2,97.7,0.491
32.26,31919.4,34884.5,-1.3546,-1.3955,148.2,97.7,0.491
32.28,32040.8,34988.7,0.693,-0.1384,148.2,97.7,0.491
32.3,31937.0,34905.1,-1.058,-1.1471,148.2,97.7,0.491
32.32,31907.2,34880.0,-1.5606,-1.4496,148.2,97.7,0.491
32.34,31915.3,34913.0,-1.4238,-1.0518,148.2,97.7,0.491
32.36,31987.2,34983.5,-0.2111,-0.2003,148.2,97.7,0.491
32.38,32022.7,34973.4,0.3875,-0.3228,148.2,97.7,0.491
32.4,31996.4,35015.8,-0.0547,0.1884,148.2,97.7,0.491
32.42,32086.2,35177.9,1.4601,2.1441,148.2,97.7,0.491
32.44,32069.3,35198.5,1.1746,2.3933,148.2,97.7,0.491
32.46,32026.2,35001.6,0.4474,0.0171,148.2,97.7,0.491
32.48,32077.3,35060.5,1.3091,0.7285,148.2,97.7,0.491
32.5,32031.4,35039.1,0.5346,0.4702,148.2,97.7,0.491
32.52,32082.8,35101.5,1.4028,1.2229,148.2,97.7,0.491
32.54,32000.4,35025.0,0.0129,0.3001,148.2,97.7,0.491
32.56,32030.1,34950.0,0.5131,-0.6043,148.2,97.7,0.491
32.58,31951.6,35048.7,-0.8118,0.5853,148.2,97.7,0.491
32.6,31990.4,35007.4,-0.1563,0.0871,148.2,97.7,0.491
32.62,31974.0,35014.0,-0.4325,0.1677,148.2,97.7,0.491
32.64,31993.4,34951.0,-0.1062,-0.5929,148.2,97.7,0.491
32.66,32037.1,34954.3,0.6316,-0.5533,148.2,97.7,0.491
32.68,32025.5,35063.2,0.435,0.761,148.2,97.7,0.491
32.7,31987.5,34909.9,-0.2052,-1.0885,148.2,97.7,0.491
32.72,31995.4,34917.8,-0.0723,-0.9934,148.2,97.7,0.491
32.74,31900.1,34925.5,-1.6797,-0.9011,148.2,97.7,0.491
32.76,31969.2,34968.8,-0.5143,-0.3778,148.2,97.7,0.491
32.78,31940.6,34971.5,-0.9975,-0.3454,148.2,97.7,0.491
32.8,32070.8,35089.7,1.199,1.0808,148.2,97.7,0.491
32.82,32074.4,35114.7,1.2608,1.382,148.2,97.7,0.491
32.84,32023.9,35110.6,0.4088,1.3324,148.2,97.7,0.491
32.86,32105.8,35095.1,1.7899,1.1459,148.2,97.7,0.491
32.88,32075.8,35086.8,1.2846,1.0454,148.2,97.7,0.491
32.9,31973.8,34970.6,-0.4363,-0.3561,148.2,97.7,0.491
32.92,32063.0,35073.4,1.0674,0.8836,148.2,97.7,0.491
32.94,32063.5,34941.5,1.0772,-0.707,148.2,97.7,0.491
32.96,32047.0,34938.6,0.7985,-0.7428,148.2,97.7,0.491
32.98,32017.2,35005.8,0.2962,0.068,148.2,97.7,0.491
33.0,32052.0,35018.7,0.8832,0.2236,148.2,97.7,0.491
33.02,31993.7,34975.3,-0.1007,-0.2991,148.2,97.7,0.491
33.04,31988.5,35028.4,-0.1894,0.3416,148.2,97.7,0.491
33.06,31910.3,34903.2,-1.5079,-1.1698,148.2,97.7,0.491
33.08,31967.0,34894.7,-0.5505,-1.2724,148.2,97.7,0.491
33.1,31971.2,34942.4,-0.4809,-0.6967,148.2,97.7,0.491
33.12,31968.5,34947.1,-0.5266,-0.64,148.2,97.7,0.491
33.14,31910.8,34998.0,-1.4999,-0.0264,148.2,97.7,0.491
33.16,31867.6,34925.3,-2.2287,-0.9027,148.2,97.7,0.491
33.18,32042.4,34902.2,0.7207,-1.1811,148.2,97.7,0.491
33.2,32002.1,35036.5,0.0411,0.4386,148.2,97.7,0.491
33.22,31972.3,35023.8,-0.4612,0.2857,148.2,97.7,0.491
33.24,32060.1,35124.0,1.0185,1.4938,148.2,97.7,0.491
33.26,32026.2,35075.5,0.4482,0.909,148.2,97.7,0.491
33.28,32064.1,35123.5,1.0867,1.4882,148.2,97.7,0.491
33.3,32040.7,35051.7,0.6927,0.6215,148.2,97.7,0.491
33.32,32039.0,35077.0,0.6629,0.9269,148.2,97.7,0.491
33.34,32041.5,35040.3,0.705,0.4842,148.2,97.7,0.491
33.36,31995.3,35047.3,-0.0733,0.5694,148.2,97.7,0.491
33.38,31981.2,35043.4,-0.3113,0.5222,148.2,97.7,0.491
33.4,31954.4,34953.8,-0.7639,-0.5591,148.2,97.7,0.491
33.42,31995.3,34987.3,-0.074,-0.1554,148.2,97.7,0.491
33.44,31922.6,34957.4,-1.3012,-0.5156,148.2,97.7,0.491
33.46,31896.3,34873.0,-1.7441,-1.5335,148.2,97.7,0.491
33.48,32055.9,34949.5,0.9486,-0.6106,148.2,97.7,0.491
33.5,32014.0,34992.0,0.2411,-0.0987,148.2,97.7,0.491
33.52,31949.0,34927.5,-0.8553,-0.8766,148.2,97.7,0.491
33.54,31948.6,34846.8,-0.8616,-1.8506,148.2,97.7,0.491
33.56,31967.8,35039.9,-0.5376,0.4798,148.2,97.7,0.491
33.58,32015.4,34974.3,0.2655,-0.3119,148.2,97.7,0.491
33.6,31932.2,34985.8,-1.1382,-0.1727,148.2,97.7,0.491
33.62,32031.6,35083.0,0.538,1.0002,148.2,97.7,0.491
33.64,31961.5,35112.3,-0.6437,1.3532,148.2,97.7,0.491
33.66,32089.0,35156.3,1.5064,1.8846,148.2,97.7,0.491
33.68,31967.1,35094.7,-0.5496,1.1404,148.2,97.7,0.491
33.7,32046.2,35112.5,0.7845,1.356,148.2,97.7,0.491
33.72,31998.8,35075.6,-0.0143,0.9099,148.2,97.7,0.491
33.74,32029.7,35034.3,0.506,0.4121,148.2,97.7,0.491
33.76,32039.2,35016.4,0.6661,0.1963,148.2,97.7,0.491
33.78,31946.4,34834.5,-0.8987,-1.9978,148.2,97.7,0.491
33.8,31927.4,35020.6,-1.22,0.2467,148.2,97.7,0.491
33.82,31949.5,35034.3,-0.8463,0.4122,148.2,97.7,0.491
33.84,31999.0,35009.8,-0.0118,0.1161,148.2,97.7,0.491
33.86,31947.0,34942.1,-0.8883,-0.6997,148.2,97.7,0.491
33.88,31973.0,34913.6,-0.4493,-1.0439,148.2,97.7,0.491
33.9,32021.9,34934.1,0.3751,-0.7968,148.2,97.7,0.491
33.92,31929.1,34876.4,-1.1902,-1.493,148.2,97.7,0.491
33.94,31857.2,34882.1,-2.4041,-1.4241,148.2,97.7,0.491
33.96,31963.0,34877.0,-0.6188,-1.4861,148.2,97.7,0.491
33.98,31913.6,34942.6,-1.4521,-0.6937,148.2,97.7,0.491
34.0,31920.8,35008.3,-1.331,0.0982,148.2,97.7,0.491
34.02,31991.4,35032.3,-0.14,0.3882,148.2,97.7,0.491
34.04,32036.3,35196.3,0.617,2.3671,148.2,97.7,0.491
34.06,31946.7,35165.0,-0.8943,1.9887,148.2,97.7,0.491
34.08,32082.2,35108.1,1.3922,1.303,148.2,97.7,0.491
34.1,31971.7,35045.4,-0.4712,0.5465,148.2,97.7,0.491
34.12,32059.9,35045.6,1.0167,0.5485,148.2,97.7,0.491
34.14,31991.9,35041.5,-0.132,0.4989,148.2,97.7,0.491
34.16,32017.1,35180.2,0.2943,2.1726,148.2,97.7,0.491
34.18,32038.1,34968.8,0.6482,-0.378,148.2,97.7,0.491
34.2,32018.0,34971.9,0.3083,-0.3409,148.2,97.7,0.491
34.22,32029.8,35042.5,0.5083,0.5107,148.2,97.7,0.491
34.24,31979.4,34912.1,-0.3413,-1.0625,148.2,97.7,0.491
34.26,31987.1,35056.7,-0.2119,0.6819,148.2,97.7,0.491
34.28,31911.1,34878.5,-1.4948,-1.4677,148.2,97.7,0.491
34.3,31913.2,34940.7,-1.4591,-0.7171,148.2,97.7,0.491
34.32,31974.8,34963.1,-0.4197,-0.4473,148.2,97.7,0.491
34.34,31980.3,34868.1,-0.3265,-1.5929,148.2,97.7,0.491
34.36,31939.6,35038.3,-1.0133,0.46,148.2,97.7,0.491
34.38,31902.0,34915.9,-1.6482,-1.0161,148.2,97.7,0.491
34.4,32004.3,34901.0,0.078,-1.196,148.2,97.7,0.491
34.42,32076.1,35079.6,1.2887,0.9589,148.2,97.7,0.491
34.44,32032.3,35063.2,0.5495,0.7613,148.2,97.7,0.491
34.46,32118.5,35122.8,2.0046,1.4795,148.2,97.7,0.491
34.48,32085.7,35147.4,1.4517,1.7773,148.2,97.7,0.491
34.5,32114.7,35224.7,1.9411,2.7089,148.2,97.7,0.491
34.52,31975.4,35058.9,-0.4089,0.7087,148.2,97.7,0.491
34.54,32036.8,35057.9,0.6263,0.6963,148.2,97.7,0.491
34.56,32034.2,35022.7,0.583,0.272,148.2,97.7,0.491
34.58,31977.4,34926.4,-0.3757,-0.8892,148.2,97.7,0.491
34.6,31862.4,34986.7,-2.3167,-0.1621,148.2,97.7,0.491
34.62,32028.7,34971.1,0.4891,-0.3499,148.2,97.7,0.491
34.64,31942.4,34969.2,-0.9662,-0.3731,148.2,97.7,0.491
34.66,31898.7,34967.9,-1.703,-0.3891,148.2,97.7,0.491
34.68,31979.9,34877.0,-0.333,-1.4853,148.2,97.7,0.491
34.7,31990.0,34916.8,-0.163,-1.0056,148.2,97.7,0.491
34.72,31997.9,34978.9,-0.0301,-0.2566,148.2,97.7,0.491
34.74,31933.3,34901.2,-1.1192,-1.1937,148.2,97.7,0.491
34.76,31917.3,34943.4,-1.3904,-0.6848,148.2,97.7,0.491
34.78,31982.7,34849.8,-0.287,-1.8141,148.2,97.7,0.491
34.8,32000.1,34962.4,0.0064,-0.455,148.2,97.7,0.491
34.82,31990.2,34966.0,-0.1599,-0.412,148.2,97.7,0.491
34.84,32071.3,34985.9,1.2077,-0.1719,148.2,97.7,0.491
34.86,32072.6,35144.5,1.2309,1.7412,148.2,97.7,0.491
34.88,31987.8,35110.9,-0.2009,1.3363,148.2,97.7,0.491
34.9,31988.9,35118.2,-0.1819,1.4249,148.2,97.7,0.491
34.92,32061.2,35098.5,1.0382,1.1862,148.2,97.7,0.491
34.94,32003.6,35039.6,0.0657,0.4759,148.2,97.7,0.491
34.96,32113.0,35022.3,1.9124,0.267,148.2,97.7,0.491
34.98,32009.8,34986.5,0.1703,-0.1641,148.2,97.7,0.491
35.0,32015.7,35008.8,0.2699,0.1044,148.2,97.7,0.491
35.02,31994.6,34883.6,-0.0854,-1.4055,148.2,97.7,0.491
35.04,32054.3,35005.9,0.9215,0.0693,148.2,97.7,0.491
35.06,32035.4,35034.4,0.6033,0.414,148.2,97.7,0.491
35.08,31992.9,35018.1,-0.1152,0.2168,148.2,97.7,0.491
35.1,31878.3,34942.4,-2.048,-0.6968,148.2,97.7,0.491
35.12,31926.1,34892.7,-1.241,-1.2964,148.2,97.7,0.491
35.14,31931.0,34894.1,-1.1586,-1.2789,148.2,97.7,0.491
35.16,31879.0,34868.2,-2.0352,-1.5915,148.2,97.7,0.491
35.18,31945.8,34867.9,-0.9098,-1.5949,148.2,97.7,0.491
35.2,31920.4,34909.5,-1.3373,-1.0934,148.2,97.7,0.491
35.22,32043.7,35005.9,0.7432,0.0701,148.2,97.7,0.491
35.24,32128.2,35006.5,2.1674,0.0765,148.2,97.7,0.491
35.26,32053.9,35153.1,0.9147,1.8451,148.2,97.7,0.491
35.28,32019.7,35153.3,0.3381,1.8475,148.2,97.7,0.491
35.3,32016.4,35043.3,0.2817,0.5209,148.2,97.7,0.491
35.32,31962.2,35028.0,-0.6318,0.3362,148.2,97.7,0.491
35.34,31952.5,34990.8,-0.7957,-0.1123,148.2,97.7,0.491
35.36,32018.0,34869.4,0.3091,-1.5769,148.2,97.7,0.491
35.38,31960.7,34918.1,-0.6579,-0.99,148.2,97.7,0.491
35.4,31981.9,35011.4,-0.2996,0.1356,148.2,97.7,0.491
35.42,32056.2,34988.7,0.9537,-0.1376,148.2,97.7,0.491
35.44,32018.9,34982.0,0.3242,-0.2188,148.2,97.7,0.491
35.46,31981.3,34929.8,-0.3107,-0.8483,148.2,97.7,0.491
35.48,31987.9,34907.9,-0.1993,-1.1134,148.2,97.7,0.491
35.5,31952.2,35002.0,-0.801,0.0228,148.2,97.7,0.491
35.52,31946.7,34921.3,-0.8931,-0.9506,148.2,97.7,0.491
35.54,31977.7,34982.1,-0.371,-0.2174,148.2,97.7,0.491
35.56,32007.3,34987.0,0.1283,-0.1583,148.2,97.7,0.491
35.58,32074.1,34950.7,1.2555,-0.596,148.2,97.7,0.491
35.6,31960.5,34932.2,-0.6612,-0.8197,148.2,97.7,0.491
35.62,32069.1,34994.7,1.1717,-0.0658,148.2,97.7,0.491
35.64,32005.3,35040.4,0.0942,0.4863,148.2,97.7,0.491
35.66,32007.8,35059.3,0.1362,0.7135,148.2,97.7,0.491
35.68,32017.8,35023.0,0.3059,0.2754,148.2,97.7,0.491
35.7,32017.2,35142.3,0.2957,1.7148,148.2,97.7,0.491
35.72,32021.2,35023.2,0.3635,0.2786,148.2,97.7,0.491
35.74,31961.7,34991.3,-0.6411,-0.1061,148.2,97.7,0.491
35.76,32056.9,34990.2,0.9652,-0.1194,148.2,97.7,0.491
35.78,31951.5,35041.7,-0.8121,0.502,148.2,97.7,0.491
35.8,32035.4,35078.4,0.6027,0.9448,148.2,97.7,0.491
35.82,31984.7,34922.8,-0.2525,-0.9329,148.2,97.7,0.491
35.84,32026.8,34987.2,0.4569,-0.1566,148.2,97.7,0.491
35.86,31982.8,34940.4,-0.284,-0.7203,148.2,97.7,0.491
35.88,31938.9,34974.5,-1.0254,-0.3088,148.2,97.7,0.491
35.9,32042.2,34988.6,0.7177,-0.1386,148.2,97.7,0.491
35.92,31960.8,34993.7,-0.6555,-0.078,148.2,97.7,0.491
35.94,32033.4,34865.7,0.5687,-1.6224,148.2,97.7,0.491
35.96,31983.1,34942.5,-0.2797,-0.6956,148.2,97.7,0.491
35.98,31930.0,34893.8,-1.1753,-1.2827,148.2,97.7,0.491
36.0,32038.7,34902.0,0.6576,-1.184,148.2,97.7,0.491
36.02,31911.0,34907.3,-1.4964,-1.1205,148.2,97.7,0.491
36.04,32026.8,35082.2,0.4568,0.9899,148.2,97.7,0.491
36.06,32017.5,35051.3,0.3002,0.6177,148.2,97.7,0.491
36.08,31995.5,35175.6,-0.0701,2.1165,148.2,97.7,0.491
36.1,32046.4,35246.3,0.7882,2.9695,148.2,97.7,0.491
36.12,32120.7,35123.6,2.0416,1.4901,148.2,97.7,0.491
36.14,32030.1,35018.9,0.5134,0.227,148.2,97.7,0.491
36.16,32070.8,35001.9,1.2001,0.0213,148.2,97.7,0.491
36.18,31971.1,34980.2,-0.4828,-0.2401,148.2,97.7,0.491
36.2,31939.5,34997.8,-1.0146,-0.0286,148.2,97.7,0.491
36.22,32018.9,35019.0,0.3247,0.2282,148.2,97.7,0.491
36.24,31954.3,35035.6,-0.7652,0.4277,148.2,97.7,0.491
36.26,31917.2,34892.6,-1.392,-1.2977,148.2,97.7,0.491
36.28,31974.4,34871.3,-0.4265,-1.5548,148.2,97.7,0.491
36.3,31864.3,34930.3,-2.2843,-0.8424,148.2,97.7,0.491
36.32,31923.8,34974.6,-1.2796,-0.3085,148.2,97.7,0.491
36.34,31951.9,34942.0,-0.8056,-0.7016,148.2,97.7,0.491
36.36,32062.7,34892.4,1.0623,-1.3002,148.2,97.7,0.491
36.38,31989.8,34989.0,-0.1661,-0.1349,148.2,97.7,0.491
36.4,31966.4,34987.0,-0.5608,-0.1588,148.2,97.7,0.491
36.42,32052.0,35025.8,0.8833,0.3091,148.2,97.7,0.491
36.44,31998.6,35047.6,-0.018,0.573,148.2,97.7,0.491
36.46,32004.0,35117.9,0.0721,1.4209,148.2,97.7,0.491
36.48,32104.0,35122.4,1.7597,1.4756,148.2,97.7,0.491
36.5,32182.9,35167.4,3.0915,2.0181,148.2,97.7,0.491
36.52,32085.7,35102.1,1.4518,1.2305,148.2,97.7,0.491
36.54,32084.0,35057.7,1.4221,0.695,148.2,97.7,0.491
36.56,31959.4,35050.3,-0.6796,0.605,148.2,97.7,0.491
36.58,32076.4,35059.3,1.2938,0.7132,148.2,97.7,0.491
36.6,32056.5,34990.8,0.9579,-0.1129,148.2,97.7,0.491
36.62,32069.7,34983.0,1.1815,-0.2073,148.2,97.7,0.491
36.64,32057.1,35012.7,0.9692,0.152,148.2,97.7,0.491
36.66,31889.9,34999.5,-1.8513,-0.0075,148.2,97.7,0.491
36.68,31901.0,34931.5,-1.6643,-0.8277,148.2,97.7,0.491
36.7,31984.5,34959.4,-0.2569,-0.4914,148.2,97.7,0.491
36.72,32028.2,34954.1,0.4816,-0.555,148.2,97.7,0.491
36.74,32027.1,34886.2,0.4632,-1.3746,148.2,97.7,0.491
36.76,32042.7,34835.9,0.7264,-1.981,148.2,97.7,0.491
36.78,31982.0,34967.0,-0.2988,-0.3999,148.2,97.7,0.491
36.8,31967.9,34816.4,-0.5359,-2.2164,148.2,97.7,0.491
36.82,31936.4,34985.7,-1.0677,-0.1747,148.2,97.7,0.491
36.84,31966.1,35044.1,-0.5667,0.5303,148.2,97.7,0.491
36.86,32014.6,34976.9,0.2517,-0.2806,148.2,97.7,0.491
36.88,32082.9,35090.4,1.404,1.0889,148.2,97.7,0.491
36.9,31989.3,35132.7,-0.1747,1.599,148.2,97.7,0.491
36.92,32027.3,35143.4,0.466,1.7279,148.2,97.7,0.491
36.94,32034.1,35113.3,0.5808,1.3658,148.2,97.7,0.491
36.96,31971.6,35050.0,-0.473,0.601,148.2,97.7,0.491
36.98,32015.0,34942.5,0.259,-0.6957,148.2,97.7,0.491
37.0,32058.7,35028.8,0.9957,0.3463,148.2,97.7,0.491
37.02,31987.1,34973.1,-0.2116,-0.3258,148.2,97.7,0.491
37.04,31902.7,34983.3,-1.636,-0.2034,148.2,97.7,0.491
37.06,31997.6,34955.3,-0.0345,-0.541,148.2,97.7,0.491
37.08,32013.3,34979.5,0.2294,-0.2494,148.2,97.7,0.491
37.1,31978.4,34946.0,-0.3596,-0.6529,148.2,97.7,0.491
37.12,31981.0,34930.1,-0.3153,-0.8448,148.2,97.7,0.491
37.14,31988.3,34961.9,-0.1928,-0.4609,148.2,97.7,0.491
37.16,31980.6,35040.4,-0.3219,0.4857,148.2,97.7,0.491
37.18,31778.3,34833.7,-3.7349,-2.0083,148.2,97.7,0.491
37.2,31986.4,34879.1,-0.2244,-1.4601,148.2,97.7,0.491
37.22,31925.2,34828.7,-1.2562,-2.0685,148.2,97.7,0.491
37.24,31945.5,34981.9,-0.9133,-0.2204,148.2,97.7,0.491
37.26,32042.2,35006.9,0.717,0.0813,148.2,97.7,0.491
37.28,32082.7,35052.0,1.4004,0.6256,148.2,97.7,0.491
37.3,31999.7,35144.4,0.0008,1.7411,148.2,97.7,0.491
37.32,32000.5,35053.1,0.0142,0.6386,148.2,97.7,0.491
37.34,31989.1,35176.3,-0.179,2.1255,148.2,97.7,0.491
37.36,31905.7,35025.8,-1.5858,0.31,148.2,97.7,0.491
37.38,32004.8,35006.4,0.0864,0.0759,148.2,97.7,0.491
37.4,31998.4,35030.2,-0.022,0.3625,148.2,97.7,0.491
37.42,31892.3,35058.6,-1.8114,0.7059,148.2,97.7,0.491
37.44,31999.7,34990.8,0.0008,-0.1127,148.2,97.7,0.491
37.46,31963.6,34976.3,-0.6091,-0.2876,148.2,97.7,0.491
37.48,32025.3,34942.7,0.4317,-0.6929,148.2,97.7,0.491
37.5,32009.4,34881.0,0.1647,-1.4368,148.2,97.7,0.491
37.52,31921.6,34958.3,-1.3168,-0.5051,148.2,97.7,0.491
37.54,32014.1,34904.1,0.243,-1.1584,148.2,97.7,0.491
37.56,32021.7,34916.5,0.3721,-1.0087,148.2,97.7,0.491
37.58,31903.3,34972.1,-1.6257,-0.3383,148.2,97.7,0.491
37.6,31974.2,34951.5,-0.4295,-0.5865,148.2,97.7,0.491
37.62,31921.5,34903.5,-1.3193,-1.1659,148.2,97.7,0.491
37.64,32043.2,34994.6,0.7342,-0.0668,148.2,97.7,0.491
37.66,32019.2,35039.8,0.3296,0.4788,148.2,97.7,0.491
37.68,32094.4,35103.6,1.5975,1.2482,148.2,97.7,0.491
37.7,32097.0,35219.1,1.6412,2.6417,148.2,97.7,0.491
37.72,32066.2,35155.0,1.1222,1.8684,148.2,97.7,0.491
37.74,31983.8,34966.9,-0.2673,-0.4009,148.2,97.7,0.491
37.76,32039.7,35009.0,0.6758,0.1065,148.2,97.7,0.491
37.78,32014.1,35136.6,0.2441,1.6469,148.2,97.7,0.491
37.8,32002.7,35030.3,0.0507,0.3642,148.2,97.7,0.491
37.82,31954.4,35078.7,-0.7631,0.9479,148.2,97.7,0.491
37.84,32078.5,34991.8,1.3303,-0.1006,148.2,97.7,0.491
37.86,31948.6,34977.5,-0.8624,-0.2736,148.2,97.7,0.491
37.88,31950.3,35011.0,-0.8329,0.1311,148.2,97.7,0.491
37.9,32012.0,34906.5,0.2072,-1.1302,148.2,97.7,0.491
37.92,31984.4,34952.6,-0.2578,-0.574,148.2,97.7,0.491
37.94,31911.2,34957.1,-1.4933,-0.5188,148.2,97.7,0.491
37.96,32018.7,34912.4,0.3205,-1.0587,148.2,97.7,0.491
37.98,31870.2,34873.9,-2.1844,-1.5229,148.2,97.7,0.491
38.0,31947.3,34948.3,-0.8831,-0.6251,148.2,97.7,0.491
38.02,32063.1,34926.3,1.0692,-0.8906,148.2,97.7,0.491
38.04,31929.8,34956.0,-1.1784,-0.5321,148.2,97.7,0.491
38.06,32087.9,34941.2,1.488,-0.7108,148.2,97.7,0.491
38.08,32047.2,35151.8,0.8018,1.8296,148.2,97.7,0.491
38.1,31995.3,35136.8,-0.0742,1.6488,148.2,97.7,0.491
38.12,32066.4,35082.4,1.126,0.992,148.2,97.7,0.491
38.14,32022.1,35117.3,0.3784,1.414,148.2,97.7,0.491
38.16,32023.1,35004.2,0.3946,0.0488,148.2,97.7,0.491
38.18,32091.4,35118.4,1.5478,1.427,148.2,97.7,0.491
38.2,32016.4,34992.8,0.282,-0.089,148.2,97.7,0.491
38.22,32036.2,34997.8,0.6169,-0.0283,148.2,97.7,0.491
38.24,31940.2,35031.6,-1.0027,0.3796,148.2,97.7,0.491
38.26,32065.8,35013.4,1.1153,0.1597,148.2,97.7,0.491
38.28,32048.9,35024.3,0.8302,0.2912,148.2,97.7,0.491
38.3,31898.9,34918.3,-1.701,-0.9872,148.2,97.7,0.491
38.32,32039.5,35114.3,0.6714,1.3776,148.2,97.7,0.491
38.34,32035.9,34970.9,0.6118,-0.3529,148.2,97.7,0.491
38.36,31981.8,35027.4,-0.3019,0.3292,148.2,97.7,0.491
38.38,31989.3,34892.8,-0.175,-1.2949,148.2,97.7,0.491
38.4,31942.8,34890.8,-0.9598,-1.3194,148.2,97.7,0.491
38.42,31964.4,34937.8,-0.5947,-0.7519,148.2,97.7,0.491
38.44,31991.4,34931.1,-0.1397,-0.8332,148.2,97.7,0.491
38.46,31969.6,35040.6,-0.5071,0.488,148.2,97.7,0.491
38.48,31981.4,35050.1,-0.3089,0.6033,148.2,97.7,0.491
38.5,32086.7,35110.7,1.4686,1.3333,148.2,97.7,0.491
38.52,32032.7,35081.8,0.5565,0.9847,148.2,97.7,0.491
38.54,32028.4,35079.7,0.4849,0.9595,148.2,97.7,0.491
38.56,32014.7,35063.5,0.2528,0.7642,148.2,97.7,0.491
38.58,31962.0,35088.4,-0.6357,1.0651,148.2,97.7,0.491
38.6,32034.5,35033.0,0.5875,0.3962,148.2,97.7,0.491
38.62,32020.7,35079.0,0.3538,0.9521,148.2,97.7,0.491
38.64,31995.4,35017.8,-0.0725,0.2128,148.2,97.7,0.491
38.66,32031.7,35098.3,0.5407,1.1846,148.2,97.7,0.491
38.68,32033.7,34985.4,0.5734,-0.1779,148.2,97.7,0.491
38.7,31956.8,34991.7,-0.7228,-0.1014,148.2,97.7,0.491
38.72,31987.1,34951.8,-0.2123,-0.5834,148.2,97.7,0.491
38.74,32000.2,34984.5,0.0096,-0.1886,148.2,97.7,0.491
38.76,31983.2,35112.1,-0.2781,1.3508,148.2,97.7,0.491
38.78,31971.5,34946.9,-0.4752,-0.6426,148.2,97.7,0.491
38.8,31992.2,34895.7,-0.1255,-1.26,148.2,97.7,0.491
38.82,31935.3,34913.2,-1.0867,-1.0489,148.2,97.7,0.491
38.84,32007.2,34931.0,0.1266,-0.8337,148.2,97.7,0.491
38.86,31972.5,35008.4,-0.4579,0.0996,148.2,97.7,0.491
38.88,31984.8,35075.8,-0.2505,0.913,148.2,97.7,0.491
38.9,32148.6,35034.9,2.5117,0.4193,148.2,97.7,0.491
38.92,32104.0,35048.1,1.7596,0.579,148.2,97.7,0.491
38.94,32122.2,35196.6,2.0668,2.3701,148.2,97.7,0.491
38.96,31957.0,35059.5,-0.7206,0.7159,148.2,97.7,0.491
38.98,31973.9,34987.7,-0.435,-0.1498,148.2,97.7,0.491
39.0,32073.7,34964.9,1.2483,-0.4251,148.2,97.7,0.491
39.02,32044.0,35017.7,0.7481,0.2114,148.2,97.7,0.491
39.04,32037.9,34965.9,0.6451,-0.413,148.2,97.7,0.491
39.06,31990.5,34941.7,-0.1555,-0.7054,148.2,97.7,0.491
39.08,31958.7,35013.1,-0.6917,0.1568,148.2,97.7,0.491
39.1,31984.1,34970.3,-0.2622,-0.3602,148.2,97.7,0.491
39.12,31940.7,34944.9,-0.9942,-0.6668,148.2,97.7,0.491
39.14,31961.2,34928.5,-0.6497,-0.8637,148.2,97.7,0.491
39.16,32013.1,34886.2,0.2269,-1.3746,148.2,97.7,0.491
39.18,32026.3,34912.2,0.4498,-1.061,148.2,97.7,0.491
39.2,32018.8,34924.0,0.3228,-0.9188,148.2,97.7,0.491
39.22,32013.5,34915.8,0.2337,-1.0169,148.2,97.7,0.491
39.24,32008.4,34889.1,0.1473,-1.3401,148.2,97.7,0.491
39.26,31947.4,34914.8,-0.8814,-1.03,148.2,97.7,0.491
39.28,31975.5,34999.8,-0.4088,-0.0036,148.2,97.7,0.491
39.3,32027.4,35067.1,0.468,0.8085,148.2,97.7,0.491
39.32,32070.5,35022.2,1.1954,0.2667,148.2,97.7,0.491
39.34,32034.8,35073.8,0.5918,0.8891,148.2,97.7,0.491
39.36,32023.2,35065.9,0.3965,0.7932,148.2,97.7,0.491
39.38,32090.0,35057.2,1.5243,0.6881,148.2,97.7,0.491
39.4,32016.8,35031.6,0.2894,0.3793,148.2,97.7,0.491
39.42,31961.1,34955.3,-0.6501,-0.5406,148.2,97.7,0.491
39.44,31960.6,34918.1,-0.6595,-0.9899,148.2,97.7,0.491
39.46,31997.1,34880.5,-0.0435,-1.4432,148.2,97.7,0.491
39.48,31986.7,34930.9,-0.2192,-0.8348,148.2,97.7,0.491
39.5,32008.7,35004.1,0.152,0.0481,148.2,97.7,0.491
39.52,32070.3,34992.2,1.1909,-0.0953,148.2,97.7,0.491
39.54,31967.6,34915.4,-0.5404,-1.0228,148.2,97.7,0.491
39.56,31874.7,34887.5,-2.1084,-1.3589,148.2,97.7,0.491
39.58,31940.9,34952.0,-0.9911,-0.5809,148.2,97.7,0.491
39.6,31829.8,34909.7,-2.8661,-1.0909,148.2,97.7,0.491
39.62,31933.8,34921.0,-1.1116,-0.9548,148.2,97.7,0.491
39.64,32036.2,34907.6,0.6154,-1.117,148.2,97.7,0.491
39.66,31941.0,34988.5,-0.9897,-0.1407,148.2,97.7,0.491
39.68,31970.9,34988.3,-0.4863,-0.1428,148.2,97.7,0.491
39.7,32019.9,35086.0,0.3403,1.036,148.2,97.7,0.491
39.72,32063.6,35139.9,1.0787,1.6868,148.2,97.7,0.491
39.74,32045.0,35078.0,0.7647,0.9392,148.2,97.7,0.491
39.76,32076.2,35111.8,1.291,1.347,148.2,97.7,0.491
39.78,32112.1,35013.2,1.8967,0.1573,148.2,97.7,0.491
39.8,32106.5,35070.0,1.8016,0.8433,148.2,97.7,0.491
39.82,32006.3,35050.3,0.112,0.6053,148.2,97.7,0.491
39.84,31949.6,34991.0,-0.8443,-0.1105,148.2,97.7,0.491
39.86,31959.8,34968.3,-0.672,-0.3837,148.2,97.7,0.491
39.88,32001.0,34987.1,0.0222,-0.1577,148.2,97.7,0.491
39.9,31952.0,35101.3,-0.8039,1.2205,148.2,97.7,0.491
39.92,31998.5,35019.1,-0.02,0.2291,148.2,97.7,0.491
39.94,31918.7,34977.8,-1.3663,-0.2698,148.2,97.7,0.491
39.96,31958.1,34899.5,-0.7011,-1.2137,148.2,97.7,0.491
39.98,31976.3,34986.0,-0.3952,-0.1706,148.2,97.7,0.491
40.0,31942.5,34924.4,-0.9653,-0.914,148.2,97.7,0.491
40.02,31974.9,34832.0,-0.4185,-2.0285,148.2,97.7,0.491
40.04,31945.1,34908.3,-0.9204,-1.1076,148.2,97.7,0.491
40.06,32027.4,34941.9,0.4671,-0.7021,148.2,97.7,0.491
40.08,31999.4,35083.4,-0.0049,1.0048,148.2,97.7,0.491
40.1,32012.3,34982.3,0.2126,-0.2158,148.2,97.7,0.491
40.12,32086.3,35062.0,1.4608,0.7458,148.2,97.7,0.491
40.14,32005.7,35044.5,0.1012,0.5353,148.2,97.7,0.491
40.16,32032.4,35087.8,0.5526,1.0578,148.2,97.7,0.491
40.18,31969.0,35040.8,-0.5178,0.4905,148.2,97.7,0.491
40.2,32013.6,35103.1,0.235,1.2418,148.2,97.7,0.491
40.22,32037.5,35022.1,0.6388,0.2653,148.2,97.7,0.491
40.24,32031.8,35025.3,0.5418,0.3034,148.2,97.7,0.491
40.26,32001.9,34981.9,0.0379,-0.2199,148.2,97.7,0.491
40.28,31965.8,34993.6,-0.5721,-0.0785,148.2,97.7,0.491
40.3,32043.7,34988.3,0.7429,-0.1432,148.2,97.7,0.491
40.32,32018.4,34882.1,0.3162,-1.4247,148.2,97.7,0.491
40.34,31926.9,34920.9,-1.2283,-0.9555,148.2,97.7,0.491
40.36,31982.8,34954.5,-0.2854,-0.551,148.2,97.7,0.491
40.38,31887.6,34920.8,-1.8915,-0.9568,148.2,97.7,0.491
40.4,31928.5,34918.5,-1.2015,-0.9848,148.2,97.7,0.491
40.42,31855.0,34875.5,-2.4401,-1.5031,148.2,97.7,0.491
40.44,31915.8,34827.6,-1.415,-2.0817,148.2,97.7,0.491
40.46,31978.4,34901.8,-0.3587,-1.1862,148.2,97.7,0.491
40.48,31887.6,34994.2,-1.8913,-0.0714,148.2,97.7,0.491
40.5,32032.5,35063.9,0.5541,0.7696,148.2,97.7,0.491
40.52,32075.0,35098.6,1.2709,1.1875,148.2,97.7,0.491
40.54,32010.3,35122.7,0.179,1.4785,148.2,97.7,0.491
40.56,32007.2,35066.2,0.1264,0.7975,148.2,97.7,0.491
40.58,32097.1,35028.1,1.6428,0.337,148.2,97.7,0.491
40.6,32020.6,35056.5,0.3527,0.6805,148.2,97.7,0.491
40.62,32020.0,35098.8,0.3433,1.19,148.2,97.7,0.491
40.64,32003.4,34933.9,0.0625,-0.7986,148.2,97.7,0.491
40.66,31974.5,34985.9,-0.4255,-0.1717,148.2,97.7,0.491
40.68,32013.6,35000.9,0.2345,0.0096,148.2,97.7,0.491
40.7,31971.8,34920.5,-0.4702,-0.9613,148.2,97.7,0.491
40.72,32075.1,34950.6,1.2728,-0.5974,148.2,97.7,0.491
40.74,32073.2,34980.6,1.2407,-0.2362,148.2,97.7,0.491
40.76,32011.8,34923.8,0.2044,-0.921,148.2,97.7,0.491
40.78,31927.7,34998.9,-1.2145,-0.0149,148.2,97.7,0.491
40.8,32041.5,35071.2,0.7049,0.8576,148.2,97.7,0.491
40.82,31959.8,34962.0,-0.673,-0.4604,148.2,97.7,0.491
40.84,32014.1,34943.7,0.2438,-0.6806,148.2,97.7,0.491
40.86,32005.0,35016.2,0.0899,0.1939,148.2,97.7,0.491
40.88,31979.9,34900.1,-0.3333,-1.2066,148.2,97.7,0.491
40.9,32020.0,35098.7,0.3423,1.1889,148.2,97.7,0.491
40.92,32049.1,35115.7,0.8336,1.3941,148.2,97.7,0.491
40.94,32109.9,35196.4,1.8594,2.3685,148.2,97.7,0.491
40.96,31998.0,35130.1,-0.0289,1.5679,148.2,97.7,0.491
40.98,32031.2,34985.4,0.5325,-0.178,148.2,97.7,0.491
41.0,32025.9,35098.8,0.4426,1.1902,148.2,97.7,0.491
41.02,32004.8,35024.3,0.0864,0.291,148.2,97.7,0.491
41.04,31971.3,35024.7,-0.4794,0.296,148.2,97.7,0.491
41.06,32015.2,35071.4,0.2617,0.8598,148.2,97.7,0.491
41.08,31986.1,34988.5,-0.2287,-0.1404,148.2,97.7,0.491
41.1,32151.3,34987.8,2.5574,-0.1483,148.2,97.7,0.491
41.12,31988.6,35027.5,-0.1875,0.3304,148.2,97.7,0.491
41.14,31972.1,34903.4,-0.4654,-1.1672,148.2,97.7,0.491
41.16,32010.4,34965.0,0.1812,-0.4236,148.2,97.7,0.491
41.18,31914.8,34907.5,-1.4313,-1.1171,148.2,97.7,0.491
41.2,32029.8,34933.2,0.5076,-0.8072,148.2,97.7,0.491
41.22,31912.4,34919.2,-1.4729,-0.9761,148.2,97.7,0.491
41.24,31845.4,34959.5,-2.6029,-0.4897,148.2,97.7,0.491
41.26,31877.3,35041.0,-2.0648,0.4932,148.2,97.7,0.491
41.28,31974.0,35027.9,-0.4331,0.3349,148.2,97.7,0.491
41.3,32000.3,34997.2,0.0112,-0.0357,148.2,97.7,0.491
41.32,32091.6,35072.9,1.5504,0.8779,148.2,97.7,0.491
41.34,32063.5,35077.4,1.0773,0.9326,148.2,97.7,0.491
41.36,32014.1,35078.3,0.243,0.9431,148.2,97.7,0.491
41.38,32017.9,35062.2,0.3079,0.7486,148.2,97.7,0.491
41.4,32039.8,35130.9,0.6762,1.5782,148.2,97.7,0.491
41.42,32077.1,35082.7,1.306,0.9961,148.2,97.7,0.491
41.44,31980.4,35096.0,-0.3249,1.156,148.2,97.7,0.491
41.46,31968.7,34912.4,-0.523,-1.0585,148.2,97.7,0.491
41.48,32058.9,34991.2,0.9984,-0.1081,148.2,97.7,0.491
41.5,32028.9,34968.2,0.4922,-0.3851,148.2,97.7,0.491
41.52,31963.4,34972.4,-0.6117,-0.3341,148.2,97.7,0.491
41.54,31953.5,34983.0,-0.7791,-0.2069,148.2,97.7,0.491
41.56,31991.6,34889.6,-0.1371,-1.3336,148.2,97.7,0.491
41.58,31966.4,34890.8,-0.5608,-1.3189,148.2,97.7,0.491
41.6,31899.8,34971.6,-1.6852,-0.3445,148.2,97.7,0.491
41.62,32015.4,34846.9,0.2648,-1.8483,148.2,97.7,0.491
41.64,31987.3,34906.5,-0.2089,-1.1302,148.2,97.7,0.491
41.66,32059.7,34922.9,1.0121,-0.9324,148.2,97.7,0.491
41.68,32013.5,34940.4,0.2325,-0.7209,148.2,97.7,0.491
41.7,32002.6,34932.3,0.049,-0.819,148.2,97.7,0.491
41.72,32020.5,35070.1,0.351,0.8443,148.2,97.7,0.491
41.74,32069.3,35115.3,1.175,1.39,148.2,97.7,0.491
41.76,32002.0,35080.7,0.0397,0.9722,148.2,97.7,0.491
41.78,32080.3,35246.2,1.3598,2.9686,148.2,97.7,0.491
41.8,32030.1,35195.5,0.5137,2.3569,148.2,97.7,0.491
41.82,31986.6,34926.3,-0.221,-0.8903,148.2,97.7,0.491
41.84,31954.8,35037.6,-0.757,0.4519,148.2,97.7,0.491
41.86,31992.5,34995.6,-0.1207,-0.0553,148.2,97.7,0.491
41.88,31996.8,35041.6,-0.0482,0.4999,148.2,97.7,0.491
41.9,31963.5,35090.9,-0.6097,1.0952,148.2,97.7,0.491
41.92,32023.4,34938.6,0.3998,-0.742,148.2,97.7,0.491
41.94,31934.7,34952.2,-1.0959,-0.578,148.2,97.7,0.491
41.96,32038.7,34869.1,0.6587,-1.5808,148.2,97.7,0.491
41.98,31904.3,34960.8,-1.6092,-0.4749,148.2,97.7,0.491
42.0,31961.4,35012.7,-0.6461,0.152,148.2,97.7,0.491
42.02,31962.8,34828.2,-0.6228,-2.0739,148.2,97.7,0.491
42.04,31967.7,34979.8,-0.539,-0.2451,148.2,97.7,0.491
42.06,31913.1,34973.9,-1.4607,-0.3169,148.2,97.7,0.491
42.08,31910.3,34859.2,-1.508,-1.7005,148.2,97.7,0.491
42.1,31977.4,35003.5,-0.3765,0.0409,148.2,97.7,0.491
42.12,32001.4,34992.1,0.0282,-0.0975,148.2,97.7,0.491
42.14,32070.3,35099.5,1.1915,1.1994,148.2,97.7,0.491
42.16,32028.3,35150.2,0.483,1.8105,148.2,97.7,0.491
42.18,32102.5,35100.7,1.7348,1.2138,148.2,97.7,0.491
42.2,31965.1,35080.4,-0.5828,0.9689,148.2,97.7,0.491
42.22,31919.3,35032.9,-1.3559,0.3951,148.2,97.7,0.491
42.24,31977.4,35108.3,-0.3766,1.3046,148.2,97.7,0.491
42.26,32014.4,34907.9,0.2487,-1.1125,148.2,97.7,0.491
42.28,31958.4,35025.1,-0.6971,0.3015,148.2,97.7,0.491
42.3,31871.6,35025.2,-2.1607,0.3019,148.2,97.7,0.491
42.32,31947.1,34993.6,-0.8873,-0.0794,148.2,97.7,0.491
42.34,31985.1,34877.7,-0.2455,-1.4774,148.2,97.7,0.491
42.36,31934.8,35013.2,-1.0952,0.1571,148.2,97.7,0.491
42.38,31982.2,34823.6,-0.2943,-2.1295,148.2,97.7,0.491
42.4,31961.0,34965.2,-0.6529,-0.4209,148.2,97.7,0.491
42.42,32021.6,34928.9,0.3705,-0.8594,148.2,97.7,0.491
42.44,31875.9,34922.8,-2.0874,-0.9328,148.2,97.7,0.491
42.46,31920.7,34861.5,-1.332,-1.6732,148.2,97.7,0.491
42.48,32042.6,34871.7,0.7248,-1.55,148.2,97.7,0.491
42.5,31975.1,34981.3,-0.4147,-0.2271,148.2,97.7,0.491
42.52,32034.6,35072.0,0.5898,0.8671,148.2,97.7,0.491
42.54,31957.5,34988.2,-0.7108,-0.1443,148.2,97.7,0.491
42.56,32092.0,35164.2,1.5578,1.9799,148.2,97.7,0.491
42.58,31930.4,35100.9,-1.1695,1.2152,148.2,97.7,0.491
42.6,31990.2,35077.5,-0.1603,0.9336,148.2,97.7,0.491
42.62,32089.9,35007.3,1.5217,0.0869,148.2,97.7,0.491
42.64,31963.7,35150.2,-0.6064,1.8103,148.2,97.7,0.491
42.66,31968.7,35035.3,-0.5226,0.4237,148.2,97.7,0.491
42.68,32017.7,34984.3,0.3044,-0.1906,148.2,97.7,0.491
42.7,32024.8,35009.7,0.4242,0.1151,148.2,97.7,0.491
42.72,31931.7,34938.4,-1.1476,-0.7445,148.2,97.7,0.491
42.74,32004.3,35021.0,0.0784,0.2519,148.2,97.7,0.491
42.76,31976.5,34943.9,-0.3912,-0.678,148.2,97.7,0.491
42.78,32032.6,35013.2,0.5561,0.1573,148.2,97.7,0.491
42.8,31976.3,34997.2,-0.3949,-0.0352,148.2,97.7,0.491
42.82,31991.0,34919.0,-0.1461,-0.9785,148.2,97.7,0.491
42.84,32013.4,35008.2,0.2313,0.0977,148.2,97.7,0.491
42.86,31998.1,34906.1,-0.026,-1.1342,148.2,97.7,0.491
42.88,31902.9,34887.9,-1.6325,-1.3543,148.2,97.7,0.491
42.9,31935.1,34904.8,-1.0898,-1.1499,148.2,97.7,0.491
42.92,31977.4,35009.5,-0.3763,0.1127,148.2,97.7,0.491
42.94,32013.5,35072.6,0.2337,0.8747,148.2,97.7,0.491
42.96,32068.3,35201.3,1.1583,2.4272,148.2,97.7,0.491
42.98,32037.1,35078.4,0.6308,0.9446,148.2,97.7,0.491
43.0,32037.5,35129.2,0.6383,1.5568,148.2,97.7,0.491
43.02,32085.2,35039.0,1.443,0.4684,148.2,97.7,0.491
43.04,32008.0,35051.9,0.1403,0.6249,148.2,97.7,0.491
43.06,32001.4,35040.6,0.029,0.4879,148.2,97.7,0.491
43.08,32043.0,35019.8,0.7301,0.2371,148.2,97.7,0.491
43.1,31919.0,35026.3,-1.3604,0.3163,148.2,97.7,0.491
43.12,32001.9,34971.6,0.0375,-0.3447,148.2,97.7,0.491
43.14,32043.9,34993.6,0.7464,-0.0789,148.2,97.7,0.491
43.16,31930.2,34937.2,-1.1727,-0.7593,148.2,97.7,0.491
43.18,31972.9,34884.9,-0.4517,-1.3902,148.2,97.7,0.491
43.2,31978.8,34911.0,-0.3518,-1.0757,148.2,97.7,0.491
43.22,31959.1,34942.7,-0.6845,-0.6935,148.2,97.7,0.491
43.24,31883.1,34917.9,-1.967,-0.9924,148.2,97.7,0.491
43.26,31989.7,34874.6,-0.1679,-1.5144,148.2,97.7,0.491
43.28,31918.8,35012.3,-1.3653,0.1464,148.2,97.7,0.491
43.3,31944.8,34946.3,-0.9256,-0.6494,148.2,97.7,0.491
43.32,32109.4,35098.9,1.8506,1.1914,148.2,97.7,0.491
43.34,31982.7,35046.1,-0.2857,0.5548,148.2,97.7,0.491
43.36,32020.9,35072.9,0.3576,0.8773,148.2,97.7,0.491
43.38,31985.5,35111.0,-0.2392,1.3378,148.2,97.7,0.491
43.4,32077.9,35077.6,1.3187,0.9342,148.2,97.7,0.491
43.42,32026.3,35062.0,0.4488,0.7461,148.2,97.7,0.491
43.44,31953.8,35048.9,-0.7737,0.5886,148.2,97.7,0.491
43.46,32034.7,34979.3,0.5905,-0.252,148.2,97.7,0.491
43.48,31938.2,35090.7,-1.0371,1.0929,148.2,97.7,0.491
43.5,32044.2,35123.9,0.751,1.4927,148.2,97.7,0.491
43.52,32082.8,34911.5,1.4022,-1.069,148.2,97.7,0.491
43.54,32027.7,35015.8,0.4724,0.1887,148.2,97.7,0.491
43.56,31990.8,34909.2,-0.1492,-1.0975,148.2,97.7,0.491
43.58,32016.8,34962.3,0.2884,-0.4562,148.2,97.7,0.491
43.6,31962.1,34914.8,-0.6344,-1.0296,148.2,97.7,0.491
43.62,31958.2,35011.0,-0.6995,0.131,148.2,97.7,0.491
43.64,31978.4,34880.4,-0.3586,-1.445,148.2,97.7,0.491
43.66,31959.7,34930.8,-0.6737,-0.8362,148.2,97.7,0.491
43.68,31936.1,34921.4,-1.0721,-0.9499,148.2,97.7,0.491
43.7,31883.0,34927.8,-1.9685,-0.8725,148.2,97.7,0.491
43.72,32040.5,35006.1,0.6894,0.0715,148.2,97.7,0.491
43.74,32093.0,35072.7,1.5748,0.8757,148.2,97.7,0.491
43.76,32095.7,35092.6,1.6203,1.1159,148.2,97.7,0.491
43.78,32019.8,35101.4,0.3398,1.2221,148.2,97.7,0.491
43.8,31964.9,35111.2,-0.5867,1.3399,148.2,97.7,0.491
43.82,32054.9,35097.3,0.9323,1.1728,148.2,97.7,0.491
43.84,32036.2,35002.3,0.6161,0.0265,148.2,97.7,0.491
43.86,32018.6,35082.3,0.3188,0.9918,148.2,97.7,0.491
43.88,31931.0,35036.2,-1.1584,0.4356,148.2,97.7,0.491
43.9,31906.6,34984.6,-1.5704,-0.1875,148.2,97.7,0.491
43.92,31974.1,34977.0,-0.4322,-0.2792,148.2,97.7,0.491
43.94,32035.7,34987.4,0.6084,-0.1541,148.2,97.7,0.491
43.96,31926.9,35034.8,-1.2272,0.4177,148.2,97.7,0.491
43.98,32027.4,34956.8,0.4669,-0.5229,148.2,97.7,0.491
44.0,32021.9,34923.9,0.3747,-0.9199,148.2,97.7,0.491
44.02,31936.6,34940.4,-1.0649,-0.7211,148.2,97.7,0.491
44.04,32014.4,34941.0,0.2483,-0.7139,148.2,97.7,0.491
44.06,31973.7,34904.0,-0.4382,-1.1598,148.2,97.7,0.491
44.08,31966.1,34854.8,-0.567,-1.7533,148.2,97.7,0.491
44.1,31967.8,34939.2,-0.538,-0.7357,148.2,97.7,0.491
44.12,31975.3,34956.5,-0.4121,-0.5267,148.2,97.7,0.491
44.14,31943.8,35016.8,-0.9428,0.2007,148.2,97.7,0.491
44.16,32067.1,35048.6,1.1372,0.5842,148.2,97.7,0.491
44.18,32033.0,35107.0,0.5616,1.2899,148.2,97.7,0.491
44.2,32018.1,35114.5,0.3114,1.3792,148.2,97.7,0.491
44.22,32075.1,35052.9,1.2717,0.6364,148.2,97.7,0.491
44.24,32112.8,35029.3,1.9087,0.3518,148.2,97.7,0.491
44.26,32020.9,35009.4,0.3573,0.1122,148.2,97.7,0.491
44.28,32027.3,35141.7,0.4651,1.7076,148.2,97.7,0.491
44.3,31985.0,34997.3,-0.2479,-0.0347,148.2,97.7,0.491
44.32,31991.3,34993.0,-0.1418,-0.0865,148.2,97.7,0.491
44.34,31862.0,34954.3,-2.3221,-0.5531,148.2,97.7,0.491
44.36,32086.2,34935.0,1.4591,-0.7854,148.2,97.7,0.491
44.38,31932.5,35014.3,-1.1335,0.1706,148.2,97.7,0.491
44.4,31970.5,34845.5,-0.4922,-1.8656,148.2,97.7,0.491
44.42,31954.9,34866.0,-0.7547,-1.6185,148.2,97.7,0.491
44.44,31914.9,35025.7,-1.431,0.3083,148.2,97.7,0.491
44.46,31915.2,34978.0,-1.4246,-0.2674,148.2,97.7,0.491
44.48,31922.1,34991.2,-1.3089,-0.108,148.2,97.7,0.491
44.5,31966.3,34914.1,-0.5628,-1.0377,148.2,97.7,0.491
44.52,31935.9,34962.2,-1.0765,-0.4578,148.2,97.7,0.491
44.54,32028.0,34993.2,0.4776,-0.0834,148.2,97.7,0.491
44.56,31985.4,35009.0,-0.2401,0.1073,148.2,97.7,0.491
44.58,32104.1,35085.6,1.7622,1.0307,148.2,97.7,0.491
44.6,32072.4,35133.5,1.2262,1.6093,148.2,97.7,0.491
44.62,32032.7,35088.5,0.5575,1.0659,148.2,97.7,0.491
44.64,31910.0,35112.6,-1.513,1.3573,148.2,97.7,0.491
44.66,32087.7,35041.3,1.4853,0.4963,148.2,97.7,0.491
44.68,31982.6,35043.8,-0.2876,0.5264,148.2,97.7,0.491
44.7,32166.1,34919.7,2.8071,-0.971,148.2,97.7,0.491
44.72,32006.3,34975.5,0.111,-0.2977,148.2,97.7,0.491
44.74,31897.8,35030.5,-1.7191,0.3659,148.2,97.7,0.491
44.76,31982.3,34855.3,-0.2931,-1.7476,148.2,97.7,0.491
44.78,32018.3,34986.4,0.3148,-0.1663,148.2,97.7,0.491
44.8,31989.6,34868.6,-0.1701,-1.5871,148.2,97.7,0.491
44.82,32038.3,35054.4,0.6511,0.6543,148.2,97.7,0.491
44.84,32002.2,34925.9,0.0417,-0.8953,148.2,97.7,0.491
44.86,32010.1,34952.4,0.1757,-0.5757,148.2,97.7,0.491
44.88,31886.4,34904.1,-1.9118,-1.1586,148.2,97.7,0.491
44.9,31992.1,34794.6,-0.1282,-2.4797,148.2,97.7,0.491
