timestamp,raw_red,raw_ir,filtered_red,filtered_ir,heart_rate,spo2,ac_dc_ratio
0.0,32193.6,35182.9,0.7714,0.451,147.5,97.6,0.495
0.02,32339.5,35507.4,1.3532,1.2499,147.5,97.6,0.495
0.04,32287.3,35665.1,1.145,1.6383,147.5,97.6,0.495
0.06,32265.1,35711.9,1.0567,1.7533,147.5,97.6,0.495
0.08,32270.9,35569.5,1.0796,1.4028,147.5,97.6,0.495
0.1,32211.9,35348.8,0.8444,0.8596,147.5,97.6,0.495
0.12,32029.8,35249.5,0.1186,0.6151,147.5,97.6,0.495
0.14,32137.5,35167.4,0.548,0.4131,147.5,97.6,0.495
0.16,32054.1,35155.5,0.2153,0.3837,147.5,97.6,0.495
0.18,31987.4,34953.1,-0.0505,-0.1145,147.5,97.6,0.495
0.2,31950.3,34902.0,-0.1985,-0.2403,147.5,97.6,0.495
0.22,31941.8,34790.8,-0.2325,-0.5141,147.5,97.6,0.495
0.24,31760.6,34708.5,-0.9551,-0.7165,147.5,97.6,0.495
0.26,31876.0,34644.5,-0.4948,-0.8741,147.5,97.6,0.495
0.28,31810.1,34727.1,-0.7575,-0.6709,147.5,97.6,0.495
0.3,31835.3,34602.6,-0.6573,-0.9773,147.5,97.6,0.495
0.32,31801.4,34599.0,-0.7923,-0.9863,147.5,97.6,0.495
0.34,31781.0,34397.3,-0.8739,-1.4826,147.5,97.6,0.495
0.36,31775.9,34458.6,-0.8939,-1.3318,147.5,97.6,0.495
0.38,31861.1,34709.3,-0.5544,-0.7146,147.5,97.6,0.495
0.4,32074.6,35068.4,0.297,0.1693,147.5,97.6,0.495
0.42,32090.6,35328.9,0.3608,0.8105,147.5,97.6,0.495
0.44,32326.2,35620.3,1.3002,1.528,147.5,97.6,0.495
0.46,32319.5,35728.4,1.2737,1.7939,147.5,97.6,0.495
0.48,32335.4,35652.8,1.3367,1.6079,147.5,97.6,0.495
0.5,32269.1,35398.9,1.0727,0.9829,147.5,97.6,0.495
0.52,32181.4,35149.3,0.7228,0.3684,147.5,97.6,0.495
0.54,32073.3,35106.9,0.292,0.2642,147.5,97.6,0.495
0.56,32039.2,35040.0,0.1557,0.0993,147.5,97.6,0.495
0.58,32108.4,35039.4,0.432,0.098,147.5,97.6,0.495
0.6,31981.8,34993.4,-0.0731,-0.0153,147.5,97.6,0.495
0.62,31932.7,34680.9,-0.2686,-0.7845,147.5,97.6,0.495
0.64,31912.7,34726.1,-0.3487,-0.6734,147.5,97.6,0.495
0.66,31855.7,34603.6,-0.5757,-0.9748,147.5,97.6,0.495
0.68,31814.4,34714.2,-0.7405,-0.7026,147.5,97.6,0.495
0.7,31814.1,34620.2,-0.7418,-0.9339,147.5,97.6,0.495
0.72,31806.1,34553.2,-0.7736,-1.0988,147.5,97.6,0.495
0.74,31767.8,34550.2,-0.9262,-1.1064,147.5,97.6,0.495
0.76,31749.0,34468.5,-1.0011,-1.3075,147.5,97.6,0.495
0.78,31847.1,34526.2,-0.6102,-1.1654,147.5,97.6,0.495
0.8,31949.0,34973.7,-0.2038,-0.0639,147.5,97.6,0.495
0.82,32089.3,35278.1,0.3555,0.6856,147.5,97.6,0.495
0.84,32303.2,35512.5,1.2087,1.2624,147.5,97.6,0.495
0.86,32374.6,35775.6,1.4934,1.9102,147.5,97.6,0.495
0.88,32283.1,35726.5,1.1283,1.7892,147.5,97.6,0.495
0.9,32244.9,35541.1,0.9759,1.3328,147.5,97.6,0.495
0.92,32132.1,35267.2,0.5262,0.6587,147.5,97.6,0.495
0.94,32025.7,35093.2,0.102,0.2303,147.5,97.6,0.495
0.96,32029.3,35081.4,0.1163,0.2012,147.5,97.6,0.495
0.98,32026.3,35014.6,0.1043,0.0368,147.5,97.6,0.495
1.0,31935.2,34998.7,-0.2587,-0.0022,147.5,97.6,0.495
1.02,31882.6,34856.4,-0.4687,-0.3525,147.5,97.6,0.495
1.04,31906.0,34762.7,-0.3752,-0.5833,147.5,97.6,0.495
1.06,31850.2,34696.3,-0.5977,-0.7468,147.5,97.6,0.495
1.08,31810.2,34701.3,-0.7573,-0.7344,147.5,97.6,0.495
1.1,31765.9,34568.3,-0.9339,-1.0618,147.5,97.6,0.495
1.12,31786.4,34562.5,-0.852,-1.0761,147.5,97.6,0.495
1.14,31751.7,34513.6,-0.9905,-1.1964,147.5,97.6,0.495
1.16,31854.7,34375.8,-0.5798,-1.5356,147.5,97.6,0.495
1.18,31833.1,34508.6,-0.6659,-1.2086,147.5,97.6,0.495
1.2,31948.7,34798.6,-0.2051,-0.4948,147.5,97.6,0.495
1.22,32125.0,35122.9,0.4981,0.3034,147.5,97.6,0.495
1.24,32249.0,35575.9,0.9924,1.4186,147.5,97.6,0.495
1.26,32357.7,35739.8,1.4259,1.8219,147.5,97.6,0.495
1.28,32336.5,35739.3,1.3413,1.8207,147.5,97.6,0.495
1.3,32299.3,35571.9,1.1928,1.4088,147.5,97.6,0.495
1.32,32226.4,35399.3,0.9024,0.9837,147.5,97.6,0.495
1.34,32177.8,35189.2,0.7086,0.4666,147.5,97.6,0.495
1.36,32173.8,35124.7,0.6925,0.308,147.5,97.6,0.495
1.38,32068.6,35093.9,0.2731,0.2321,147.5,97.6,0.495
1.4,32037.2,34945.7,0.1478,-0.1328,147.5,97.6,0.495
1.42,31968.4,34949.3,-0.1265,-0.1239,147.5,97.6,0.495
1.44,31908.6,34855.5,-0.365,-0.3548,147.5,97.6,0.495
1.46,31845.0,34755.6,-0.6187,-0.6006,147.5,97.6,0.495
1.48,31803.1,34669.2,-0.7855,-0.8134,147.5,97.6,0.495
1.5,31836.9,34722.7,-0.6509,-0.6817,147.5,97.6,0.495
1.52,31833.3,34669.1,-0.665,-0.8136,147.5,97.6,0.495
1.54,31769.9,34590.4,-0.9177,-1.0074,147.5,97.6,0.495
1.56,31843.0,34460.8,-0.6264,-1.3263,147.5,97.6,0.495
1.58,31810.6,34540.4,-0.7555,-1.1303,147.5,97.6,0.495
1.6,31957.3,34776.6,-0.1708,-0.5489,147.5,97.6,0.495
1.62,32061.5,35072.8,0.2447,0.1802,147.5,97.6,0.495
1.64,32178.9,35412.2,0.713,1.0156,147.5,97.6,0.495
1.66,32439.6,35608.0,1.7525,1.4975,147.5,97.6,0.495
1.68,32315.8,35837.9,1.2588,2.0635,147.5,97.6,0.495
1.7,32416.2,35669.0,1.659,1.6478,147.5,97.6,0.495
1.72,32238.3,35497.5,0.9499,1.2255,147.5,97.6,0.495
1.74,32078.4,35296.5,0.312,0.7308,147.5,97.6,0.495
1.76,31974.8,35141.4,-0.101,0.3491,147.5,97.6,0.495
1.78,32096.1,35142.9,0.3826,0.3528,147.5,97.6,0.495
1.8,32073.5,35037.3,0.2927,0.0928,147.5,97.6,0.495
1.82,32068.4,34986.1,0.2723,-0.0333,147.5,97.6,0.495
1.84,31935.1,34780.8,-0.2594,-0.5386,147.5,97.6,0.495
1.86,31803.6,34699.2,-0.7836,-0.7396,147.5,97.6,0.495
1.88,31786.4,34661.2,-0.8521,-0.833,147.5,97.6,0.495
1.9,31860.8,34706.9,-0.5553,-0.7205,147.5,97.6,0.495
1.92,31845.1,34581.2,-0.6183,-1.0299,147.5,97.6,0.495
1.94,31886.0,34598.3,-0.4549,-0.9879,147.5,97.6,0.495
1.96,31854.4,34550.2,-0.5808,-1.1062,147.5,97.6,0.495
1.98,31851.5,34451.7,-0.5925,-1.3488,147.5,97.6,0.495
2.0,31825.4,34542.3,-0.6964,-1.1257,147.5,97.6,0.495
2.02,31992.0,34988.5,-0.0324,-0.0274,147.5,97.6,0.495
2.04,32114.7,35269.1,0.4569,0.6633,147.5,97.6,0.495
2.06,32336.2,35631.4,1.3401,1.5552,147.5,97.6,0.495
2.08,32429.3,35764.8,1.7114,1.8836,147.5,97.6,0.495
2.1,32252.6,35728.4,1.0066,1.7939,147.5,97.6,0.495
2.12,32175.4,35489.2,0.6987,1.2051,147.5,97.6,0.495
2.14,32104.1,35283.1,0.4147,0.6979,147.5,97.6,0.495
2.16,32188.2,35162.0,0.7498,0.3997,147.5,97.6,0.495
2.18,32041.7,35046.2,0.166,0.1146,147.5,97.6,0.495
2.2,32066.4,35115.0,0.2642,0.2841,147.5,97.6,0.495
2.22,31952.1,34961.2,-0.1914,-0.0946,147.5,97.6,0.495
2.24,32043.7,34922.2,0.1738,-0.1906,147.5,97.6,0.495
2.26,31848.2,34737.4,-0.6059,-0.6454,147.5,97.6,0.495
2.28,31990.7,34749.0,-0.0376,-0.6169,147.5,97.6,0.495
2.3,31804.1,34683.0,-0.7817,-0.7793,147.5,97.6,0.495
2.32,31827.2,34723.9,-0.6895,-0.6788,147.5,97.6,0.495
2.34,31748.0,34609.2,-1.0052,-0.961,147.5,97.6,0.495
2.36,31733.8,34418.6,-1.0621,-1.4303,147.5,97.6,0.495
2.38,31767.3,34479.1,-0.9285,-1.2814,147.5,97.6,0.495
2.4,31802.5,34479.4,-0.7878,-1.2805,147.5,97.6,0.495
2.42,31917.4,34856.5,-0.3297,-0.3522,147.5,97.6,0.495
2.44,32139.6,35274.7,0.5561,0.6771,147.5,97.6,0.495
2.46,32199.9,35560.3,0.7966,1.3802,147.5,97.6,0.495
2.48,32337.9,35719.2,1.3468,1.7712,147.5,97.6,0.495
2.5,32247.0,35799.9,0.9844,1.97,147.5,97.6,0.495
2.52,32293.5,35581.2,1.1697,1.4317,147.5,97.6,0.495
2.54,32171.2,35360.9,0.6823,0.8893,147.5,97.6,0.495
2.56,32092.2,35161.6,0.3671,0.3987,147.5,97.6,0.495
2.58,32035.6,35097.3,0.1414,0.2405,147.5,97.6,0.495
2.6,31994.7,34995.2,-0.0218,-0.011,147.5,97.6,0.495
2.62,32022.2,34999.5,0.0882,-0.0003,147.5,97.6,0.495
2.64,32027.5,34941.7,0.1093,-0.1427,147.5,97.6,0.495
2.66,31902.1,34884.1,-0.3907,-0.2844,147.5,97.6,0.495
2.68,31844.2,34657.8,-0.6216,-0.8414,147.5,97.6,0.495
2.7,31851.7,34668.4,-0.5919,-0.8154,147.5,97.6,0.495
2.72,31831.1,34724.9,-0.6741,-0.6762,147.5,97.6,0.495
2.74,31841.8,34611.7,-0.6314,-0.9548,147.5,97.6,0.495
2.76,31739.2,34552.3,-1.0402,-1.1011,147.5,97.6,0.495
2.78,31830.3,34468.9,-0.677,-1.3065,147.5,97.6,0.495
2.8,31761.1,34481.2,-0.9528,-1.2761,147.5,97.6,0.495
2.82,31843.9,34666.1,-0.623,-0.821,147.5,97.6,0.495
2.84,32051.7,35075.3,0.2056,0.1863,147.5,97.6,0.495
2.86,32148.2,35324.9,0.5906,0.8007,147.5,97.6,0.495
2.88,32302.4,35612.7,1.2055,1.5092,147.5,97.6,0.495
2.9,32322.0,35862.4,1.2835,2.1237,147.5,97.6,0.495
2.92,32341.2,35567.0,1.3602,1.3966,147.5,97.6,0.495
2.94,32236.8,35456.2,0.9437,1.1239,147.5,97.6,0.495
2.96,32196.7,35301.2,0.784,0.7425,147.5,97.6,0.495
2.98,32026.5,35099.1,0.1053,0.2448,147.5,97.6,0.495
3.0,32060.2,35038.9,0.2395,0.0968,147.5,97.6,0.495
3.02,32027.6,35089.9,0.1098,0.2222,147.5,97.6,0.495
3.04,31968.7,34908.8,-0.1251,-0.2236,147.5,97.6,0.495
3.06,31820.9,34831.7,-0.7146,-0.4133,147.5,97.6,0.495
3.08,31779.7,34748.7,-0.8789,-0.6176,147.5,97.6,0.495
3.1,31911.9,34676.8,-0.3517,-0.7947,147.5,97.6,0.495
3.12,31872.5,34608.9,-0.5087,-0.9617,147.5,97.6,0.495
3.14,31872.5,34616.0,-0.5088,-0.9443,147.5,97.6,0.495
3.16,31857.8,34549.4,-0.5673,-1.1082,147.5,97.6,0.495
3.18,31789.7,34441.8,-0.8391,-1.3731,147.5,97.6,0.495
3.2,31764.1,34387.4,-0.9412,-1.507,147.5,97.6,0.495
3.22,31788.6,34652.0,-0.8434,-0.8557,147.5,97.6,0.495
3.24,31966.1,34873.2,-0.1358,-0.3111,147.5,97.6,0.495
3.26,32181.6,35262.2,0.7238,0.6464,147.5,97.6,0.495
3.28,32215.5,35646.1,0.8589,1.5915,147.5,97.6,0.495
3.3,32250.3,35802.9,0.9976,1.9774,147.5,97.6,0.495
3.32,32281.9,35633.5,1.1237,1.5603,147.5,97.6,0.495
3.34,32340.0,35434.9,1.3554,1.0716,147.5,97.6,0.495
3.36,32162.2,35309.3,0.6462,0.7624,147.5,97.6,0.495
3.38,32090.9,35169.5,0.362,0.4182,147.5,97.6,0.495
3.4,32000.4,35082.9,0.001,0.205,147.5,97.6,0.495
3.42,31992.2,34971.7,-0.0317,-0.0686,147.5,97.6,0.495
3.44,32050.4,34953.4,0.2004,-0.1139,147.5,97.6,0.495
3.46,31912.8,34775.9,-0.3479,-0.5508,147.5,97.6,0.495
3.48,31871.8,34719.4,-0.5116,-0.6897,147.5,97.6,0.495
3.5,31926.3,34679.5,-0.2944,-0.788,147.5,97.6,0.495
3.52,31856.5,34710.9,-0.5725,-0.7107,147.5,97.6,0.495
3.54,31871.1,34641.6,-0.5144,-0.8813,147.5,97.6,0.495
3.56,31803.2,34602.9,-0.7852,-0.9765,147.5,97.6,0.495
3.58,31818.1,34531.1,-0.7259,-1.1534,147.5,97.6,0.495
3.6,31798.0,34468.2,-0.8057,-1.308,147.5,97.6,0.495
3.62,31837.5,34492.4,-0.6485,-1.2486,147.5,97.6,0.495
3.64,31871.1,34868.6,-0.5145,-0.3226,147.5,97.6,0.495
3.66,32116.5,35235.6,0.4642,0.5808,147.5,97.6,0.495
3.68,32400.0,35543.3,1.5946,1.3384,147.5,97.6,0.495
3.7,32237.1,35714.4,0.9449,1.7595,147.5,97.6,0.495
3.72,32293.0,35768.1,1.1679,1.8916,147.5,97.6,0.495
3.74,32345.9,35557.7,1.3786,1.3736,147.5,97.6,0.495
3.76,32096.2,35411.0,0.383,1.0127,147.5,97.6,0.495
3.78,32056.0,35145.0,0.223,0.3578,147.5,97.6,0.495
3.8,32073.4,35176.7,0.2921,0.4359,147.5,97.6,0.495
3.82,32048.3,35094.0,0.1921,0.2324,147.5,97.6,0.495
3.84,31918.2,35015.4,-0.3267,0.039,147.5,97.6,0.495
3.86,32036.7,34946.9,0.1459,-0.1297,147.5,97.6,0.495
3.88,31882.7,34865.5,-0.4682,-0.3301,147.5,97.6,0.495
3.9,31874.1,34684.2,-0.5023,-0.7764,147.5,97.6,0.495
3.92,31897.4,34669.5,-0.4095,-0.8127,147.5,97.6,0.495
3.94,31860.5,34640.0,-0.5569,-0.8851,147.5,97.6,0.495
3.96,31791.7,34600.3,-0.8308,-0.9829,147.5,97.6,0.495
3.98,31879.8,34473.2,-0.4798,-1.2958,147.5,97.6,0.495
4.0,31798.2,34467.1,-0.8049,-1.3108,147.5,97.6,0.495
4.02,31754.3,34505.8,-0.9799,-1.2155,147.5,97.6,0.495
4.04,31917.7,34685.7,-0.3286,-0.7727,147.5,97.6,0.495
4.06,32009.5,35013.8,0.0374,0.0349,147.5,97.6,0.495
4.08,32152.2,35547.5,0.6063,1.3487,147.5,97.6,0.495
4.1,32331.4,35735.4,1.3211,1.8112,147.5,97.6,0.495
4.12,32261.3,35752.8,1.0416,1.854,147.5,97.6,0.495
4.14,32267.5,35599.4,1.066,1.4764,147.5,97.6,0.495
4.16,32253.1,35489.4,1.009,1.2057,147.5,97.6,0.495
4.18,32085.2,35283.0,0.3394,0.6975,147.5,97.6,0.495
4.2,32076.3,35030.1,0.304,0.0749,147.5,97.6,0.495
4.22,32127.1,35110.1,0.5065,0.272,147.5,97.6,0.495
4.24,31940.6,35033.8,-0.2372,0.0842,147.5,97.6,0.495
4.26,31913.7,34978.7,-0.3446,-0.0514,147.5,97.6,0.495
4.28,31899.0,34791.8,-0.4031,-0.5116,147.5,97.6,0.495
4.3,31905.3,34718.5,-0.3781,-0.692,147.5,97.6,0.495
4.32,31865.5,34612.9,-0.5366,-0.9519,147.5,97.6,0.495
4.34,31818.2,34596.7,-0.7254,-0.9918,147.5,97.6,0.495
4.36,31816.7,34693.7,-0.7314,-0.7531,147.5,97.6,0.495
4.38,31739.8,34665.8,-1.0379,-0.8217,147.5,97.6,0.495
4.4,31827.2,34472.9,-0.6894,-1.2967,147.5,97.6,0.495
4.42,31800.2,34533.4,-0.7971,-1.1476,147.5,97.6,0.495
4.44,31755.0,34614.1,-0.9775,-0.949,147.5,97.6,0.495
4.46,31970.3,34898.6,-0.1191,-0.2488,147.5,97.6,0.495
4.48,32205.8,35350.1,0.8203,0.8626,147.5,97.6,0.495
4.5,32250.9,35691.7,0.9999,1.7035,147.5,97.6,0.495
4.52,32339.3,35687.6,1.3525,1.6935,147.5,97.6,0.495
4.54,32356.2,35694.1,1.4199,1.7094,147.5,97.6,0.495
4.56,32243.8,35504.8,0.9718,1.2436,147.5,97.6,0.495
4.58,32145.6,35255.0,0.5801,0.6286,147.5,97.6,0.495
4.6,32149.6,35186.9,0.596,0.4609,147.5,97.6,0.495
4.62,32126.6,35092.8,0.5043,0.2295,147.5,97.6,0.495
4.64,32082.0,35015.7,0.3266,0.0396,147.5,97.6,0.495
4.66,31989.3,34930.6,-0.0432,-0.1698,147.5,97.6,0.495
4.68,32031.5,34772.7,0.1253,-0.5586,147.5,97.6,0.495
4.7,31882.0,34699.6,-0.471,-0.7386,147.5,97.6,0.495
4.72,31878.4,34708.9,-0.4854,-0.7157,147.5,97.6,0.495
4.74,31863.2,34690.6,-0.546,-0.7607,147.5,97.6,0.495
4.76,31829.1,34601.7,-0.6819,-0.9794,147.5,97.6,0.495
4.78,31739.1,34645.4,-1.0406,-0.8719,147.5,97.6,0.495
4.8,31794.6,34462.7,-0.8195,-1.3215,147.5,97.6,0.495
4.82,31741.1,34489.7,-1.0327,-1.2553,147.5,97.6,0.495
4.84,31772.7,34532.1,-0.9066,-1.1507,147.5,97.6,0.495
4.86,31773.8,34778.4,-0.9023,-0.5447,147.5,97.6,0.495
4.88,32106.5,35121.1,0.424,0.299,147.5,97.6,0.495
4.9,32243.3,35537.7,0.9699,1.3246,147.5,97.6,0.495
4.92,32371.6,35649.4,1.4812,1.5994,147.5,97.6,0.495
4.94,32303.2,35780.2,1.2085,1.9214,147.5,97.6,0.495
4.96,32278.1,35565.2,1.1084,1.3922,147.5,97.6,0.495
4.98,32106.8,35363.4,0.4254,0.8955,147.5,97.6,0.495
5.0,32096.6,35226.0,0.3849,0.5572,147.5,97.6,0.495
5.02,32125.5,35036.2,0.5,0.09,147.5,97.6,0.495
5.04,31993.7,35066.4,-0.0258,0.1644,147.5,97.6,0.495
5.06,31967.4,35014.5,-0.1303,0.0367,147.5,97.6,0.495
5.08,31891.5,34972.3,-0.4333,-0.0671,147.5,97.6,0.495
5.1,31893.5,34722.7,-0.4252,-0.6815,147.5,97.6,0.495
5.12,31766.5,34756.9,-0.9315,-0.5973,147.5,97.6,0.495
5.14,31896.1,34651.6,-0.4146,-0.8568,147.5,97.6,0.495
5.16,31873.5,34725.9,-0.5048,-0.6738,147.5,97.6,0.495
5.18,31822.3,34595.4,-0.7088,-0.995,147.5,97.6,0.495
5.2,31695.4,34501.5,-1.2151,-1.2261,147.5,97.6,0.495
5.22,31712.2,34407.7,-1.1482,-1.4571,147.5,97.6,0.495
5.24,31787.3,34500.8,-0.8484,-1.228,147.5,97.6,0.495
5.26,31852.2,34719.6,-0.5897,-0.6892,147.5,97.6,0.495
5.28,32017.3,35044.9,0.0686,0.1116,147.5,97.6,0.495
5.3,32221.9,35431.8,0.8845,1.0639,147.5,97.6,0.495
5.32,32251.4,35677.7,1.002,1.6691,147.5,97.6,0.495
5.34,32377.4,35810.7,1.5043,1.9965,147.5,97.6,0.495
5.36,32269.7,35584.2,1.0749,1.4391,147.5,97.6,0.495
5.38,32233.2,35505.7,0.9294,1.2458,147.5,97.6,0.495
5.4,32088.5,35221.9,0.3524,0.5472,147.5,97.6,0.495
5.42,32023.0,35196.6,0.0913,0.4848,147.5,97.6,0.495
5.44,31959.1,35055.9,-0.1634,0.1385,147.5,97.6,0.495
5.46,31994.9,35036.1,-0.0209,0.0897,147.5,97.6,0.495
5.48,31905.7,34921.2,-0.3765,-0.193,147.5,97.6,0.495
5.5,31861.8,34879.1,-0.5514,-0.2966,147.5,97.6,0.495
5.52,31915.6,34689.5,-0.3369,-0.7635,147.5,97.6,0.495
5.54,31775.9,34648.5,-0.894,-0.8643,147.5,97.6,0.495
5.56,31876.9,34609.8,-0.4912,-0.9596,147.5,97.6,0.495
5.58,31808.5,34609.8,-0.764,-0.9596,147.5,97.6,0.495
5.6,31846.7,34588.2,-0.6115,-1.0127,147.5,97.6,0.495
5.62,31725.7,34435.4,-1.0943,-1.3889,147.5,97.6,0.495
5.64,31847.2,34492.7,-0.6098,-1.2477,147.5,97.6,0.495
5.66,31862.5,34647.5,-0.5488,-0.8668,147.5,97.6,0.495
5.68,31938.8,34899.7,-0.2446,-0.2459,147.5,97.6,0.495
5.7,32156.6,35278.4,0.6238,0.6863,147.5,97.6,0.495
5.72,32261.1,35553.3,1.0407,1.363,147.5,97.6,0.495
5.74,32390.0,35731.3,1.5547,1.8012,147.5,97.6,0.495
5.76,32335.8,35724.7,1.3385,1.7847,147.5,97.6,0.495
5.78,32290.7,35450.8,1.1587,1.1107,147.5,97.6,0.495
5.8,32184.7,35277.9,0.7358,0.6849,147.5,97.6,0.495
5.82,32119.8,35160.4,0.4774,0.3957,147.5,97.6,0.495
5.84,32000.8,35069.5,0.0029,0.1721,147.5,97.6,0.495
5.86,32033.5,35072.6,0.1333,0.1796,147.5,97.6,0.495
5.88,31988.5,34964.4,-0.0465,-0.0866,147.5,97.6,0.495
5.9,31925.0,34777.9,-0.2994,-0.5458,147.5,97.6,0.495
5.92,31891.5,34816.5,-0.4331,-0.4507,147.5,97.6,0.495
5.94,31871.8,34681.3,-0.5118,-0.7836,147.5,97.6,0.495
5.96,31849.8,34729.4,-0.5991,-0.6653,147.5,97.6,0.495
5.98,31793.0,34590.7,-0.8257,-1.0066,147.5,97.6,0.495
6.0,31834.4,34486.4,-0.6605,-1.2633,147.5,97.6,0.495
6.02,31774.7,34465.8,-0.8988,-1.3141,147.5,97.6,0.495
6.04,31634.1,34478.7,-1.4594,-1.2822,147.5,97.6,0.495
6.06,31712.3,34659.9,-1.1476,-0.8363,147.5,97.6,0.495
6.08,31878.4,34859.5,-0.4851,-0.3449,147.5,97.6,0.495
6.1,32112.3,35124.3,0.4475,0.307,147.5,97.6,0.495
6.12,32244.5,35536.6,0.9746,1.3218,147.5,97.6,0.495
6.14,32342.7,35765.5,1.3659,1.8854,147.5,97.6,0.495
6.16,32445.6,35762.7,1.7765,1.8784,147.5,97.6,0.495
6.18,32246.2,35503.6,0.9812,1.2406,147.5,97.6,0.495
6.2,32140.6,35306.6,0.5602,0.7558,147.5,97.6,0.495
6.22,32121.2,35352.0,0.483,0.8674,147.5,97.6,0.495
6.24,31921.6,35117.9,-0.3129,0.2912,147.5,97.6,0.495
6.26,32034.5,34977.5,0.1373,-0.0545,147.5,97.6,0.495
6.28,31929.4,34987.4,-0.282,-0.03,147.5,97.6,0.495
6.3,32008.4,34909.9,0.033,-0.2208,147.5,97.6,0.495
6.32,31853.4,34743.4,-0.5849,-0.6308,147.5,97.6,0.495
6.34,31852.9,34746.8,-0.5868,-0.6224,147.5,97.6,0.495
6.36,31809.7,34662.0,-0.7594,-0.8312,147.5,97.6,0.495
6.38,31826.3,34678.0,-0.6932,-0.7916,147.5,97.6,0.495
6.4,31779.5,34586.8,-0.8796,-1.0161,147.5,97.6,0.495
6.42,31739.3,34495.1,-1.0399,-1.2418,147.5,97.6,0.495
6.44,31725.0,34405.0,-1.0968,-1.4638,147.5,97.6,0.495
6.46,31755.2,34449.7,-0.9765,-1.3536,147.5,97.6,0.495
6.48,31868.8,34682.7,-0.5236,-0.7802,147.5,97.6,0.495
6.5,32039.6,35019.0,0.1573,0.0477,147.5,97.6,0.495
6.52,32265.1,35451.5,1.0565,1.1123,147.5,97.6,0.495
6.54,32284.1,35780.4,1.1324,1.922,147.5,97.6,0.495
6.56,32337.8,35811.4,1.3467,1.9983,147.5,97.6,0.495
6.58,32252.2,35743.9,1.005,1.8322,147.5,97.6,0.495
6.6,32199.7,35331.6,0.7957,0.8172,147.5,97.6,0.495
6.62,32072.6,35243.4,0.2889,0.6002,147.5,97.6,0.495
6.64,32034.3,35143.9,0.1363,0.3551,147.5,97.6,0.495
6.66,32041.0,35180.9,0.1631,0.4463,147.5,97.6,0.495
6.68,32085.6,35029.5,0.3409,0.0737,147.5,97.6,0.495
6.7,31945.1,34904.9,-0.2193,-0.2331,147.5,97.6,0.495
6.72,31908.2,34830.4,-0.3665,-0.4166,147.5,97.6,0.495
6.74,31902.4,34669.7,-0.3897,-0.8121,147.5,97.6,0.495
6.76,31841.8,34721.9,-0.6313,-0.6837,147.5,97.6,0.495
6.78,31923.1,34680.1,-0.3069,-0.7865,147.5,97.6,0.495
6.8,31790.8,34595.3,-0.8346,-0.9953,147.5,97.6,0.495
6.82,31912.5,34540.2,-0.3494,-1.131,147.5,97.6,0.495
6.84,31744.9,34461.7,-1.0174,-1.3242,147.5,97.6,0.495
6.86,31797.5,34492.2,-0.808,-1.2491,147.5,97.6,0.495
6.88,31770.5,34653.0,-0.9154,-0.8533,147.5,97.6,0.495
6.9,31870.1,34962.9,-0.5185,-0.0904,147.5,97.6,0.495
6.92,32143.2,35310.9,0.5705,0.7662,147.5,97.6,0.495
6.94,32230.2,35668.9,0.9176,1.6476,147.5,97.6,0.495
6.96,32240.5,35744.1,0.9587,1.8326,147.5,97.6,0.495
6.98,32310.7,35755.7,1.2384,1.861,147.5,97.6,0.495
7.0,32231.4,35504.0,0.9223,1.2415,147.5,97.6,0.495
7.02,32143.9,35324.1,0.5735,0.7987,147.5,97.6,0.495
7.04,32031.4,35129.2,0.1249,0.3189,147.5,97.6,0.495
7.06,32107.8,35122.5,0.4292,0.3025,147.5,97.6,0.495
7.08,32045.4,35067.4,0.1807,0.1668,147.5,97.6,0.495
7.1,32027.4,34895.3,0.1089,-0.2569,147.5,97.6,0.495
7.12,31955.8,34925.1,-0.1767,-0.1835,147.5,97.6,0.495
7.14,31888.8,34702.3,-0.4437,-0.7318,147.5,97.6,0.495
7.16,31882.8,34790.7,-0.4679,-0.5142,147.5,97.6,0.495
7.18,31889.2,34685.1,-0.4423,-0.7743,147.5,97.6,0.495
7.2,31772.7,34643.8,-0.9068,-0.8759,147.5,97.6,0.495
7.22,31833.9,34490.1,-0.6626,-1.2541,147.5,97.6,0.495
7.24,31816.6,34477.3,-0.7316,-1.2856,147.5,97.6,0.495
7.26,31863.1,34475.7,-0.5463,-1.2897,147.5,97.6,0.495
7.28,31777.7,34581.7,-0.8869,-1.0287,147.5,97.6,0.495
7.3,31864.1,34753.7,-0.5424,-0.6053,147.5,97.6,0.495
7.32,32079.8,35138.1,0.3177,0.3409,147.5,97.6,0.495
7.34,32285.1,35533.2,1.1363,1.3134,147.5,97.6,0.495
7.36,32392.8,35720.6,1.5659,1.7748,147.5,97.6,0.495
7.38,32323.3,35746.8,1.2885,1.8393,147.5,97.6,0.495
7.4,32298.9,35659.2,1.1912,1.6237,147.5,97.6,0.495
7.42,32223.4,35326.9,0.8903,0.8056,147.5,97.6,0.495
7.44,32230.2,35191.2,0.9176,0.4716,147.5,97.6,0.495
7.46,32024.0,35156.1,0.0952,0.3851,147.5,97.6,0.495
7.48,32016.5,35088.5,0.0653,0.2189,147.5,97.6,0.495
7.5,32023.0,35048.4,0.0914,0.1202,147.5,97.6,0.495
7.52,31996.3,34930.4,-0.0152,-0.1703,147.5,97.6,0.495
7.54,31999.2,34836.2,-0.0037,-0.4022,147.5,97.6,0.495
7.56,31936.3,34741.1,-0.2542,-0.6364,147.5,97.6,0.495
7.58,31880.7,34658.7,-0.4761,-0.8391,147.5,97.6,0.495
7.6,31914.7,34643.5,-0.3407,-0.8766,147.5,97.6,0.495
7.62,31815.8,34603.0,-0.7348,-0.9763,147.5,97.6,0.495
7.64,31787.3,34533.7,-0.8486,-1.1469,147.5,97.6,0.495
7.66,31712.2,34397.0,-1.1479,-1.4835,147.5,97.6,0.495
7.68,31697.7,34533.3,-1.2059,-1.1478,147.5,97.6,0.495
7.7,31931.2,34723.0,-0.2749,-0.6809,147.5,97.6,0.495
7.72,32040.0,35004.2,0.1592,0.0112,147.5,97.6,0.495
7.74,32114.8,35552.8,0.4574,1.3616,147.5,97.6,0.495
7.76,32225.5,35611.6,0.8985,1.5063,147.5,97.6,0.495
7.78,32236.9,35802.9,0.9442,1.9773,147.5,97.6,0.495
7.8,32235.0,35554.9,0.9367,1.3668,147.5,97.6,0.495
7.82,32121.9,35483.1,0.4857,1.1902,147.5,97.6,0.495
7.84,32166.4,35192.6,0.6631,0.475,147.5,97.6,0.495
7.86,32129.2,35195.1,0.5147,0.4813,147.5,97.6,0.495
7.88,32001.1,35033.6,0.004,0.0836,147.5,97.6,0.495
7.9,31975.5,35104.1,-0.0979,0.2571,147.5,97.6,0.495
7.92,31902.9,34908.4,-0.3875,-0.2245,147.5,97.6,0.495
7.94,31907.0,34786.5,-0.3713,-0.5246,147.5,97.6,0.495
7.96,31876.4,34779.8,-0.4933,-0.5411,147.5,97.6,0.495
7.98,31858.2,34675.2,-0.5659,-0.7987,147.5,97.6,0.495
8.0,31766.1,34689.8,-0.9329,-0.7626,147.5,97.6,0.495
8.02,31841.7,34655.5,-0.6316,-0.847,147.5,97.6,0.495
8.04,31732.5,34586.8,-1.0669,-1.0163,147.5,97.6,0.495
8.06,31787.2,34335.7,-0.8488,-1.6343,147.5,97.6,0.495
8.08,31704.6,34488.8,-1.1783,-1.2574,147.5,97.6,0.495
8.1,31813.9,34587.1,-0.7425,-1.0154,147.5,97.6,0.495
8.12,31960.0,34919.9,-0.1601,-0.1962,147.5,97.6,0.495
8.14,32191.6,35271.2,0.7635,0.6684,147.5,97.6,0.495
8.16,32347.6,35595.8,1.3854,1.4675,147.5,97.6,0.495
8.18,32471.7,35687.1,1.8802,1.6922,147.5,97.6,0.495
8.2,32220.4,35761.0,0.8783,1.8742,147.5,97.6,0.495
8.22,32214.2,35492.5,0.8535,1.2132,147.5,97.6,0.495
8.24,32138.7,35302.1,0.5525,0.7445,147.5,97.6,0.495
8.26,32067.0,35170.7,0.2666,0.4212,147.5,97.6,0.495
8.28,32154.9,35148.8,0.6174,0.3671,147.5,97.6,0.495
8.3,32021.2,35052.2,0.0841,0.1295,147.5,97.6,0.495
8.32,31936.8,35013.8,-0.2525,0.0349,147.5,97.6,0.495
8.34,31909.7,34846.2,-0.3607,-0.3778,147.5,97.6,0.495
8.36,31931.3,34771.8,-0.2745,-0.5607,147.5,97.6,0.495
8.38,31857.2,34654.7,-0.5696,-0.8491,147.5,97.6,0.495
8.4,31876.8,34673.1,-0.4917,-0.8037,147.5,97.6,0.495
8.42,31890.8,34606.5,-0.4358,-0.9677,147.5,97.6,0.495
8.44,31866.5,34665.4,-0.5327,-0.8228,147.5,97.6,0.495
8.46,31821.3,34520.5,-0.713,-1.1793,147.5,97.6,0.495
8.48,31779.2,34516.4,-0.8807,-1.1894,147.5,97.6,0.495
8.5,31857.9,34493.7,-0.567,-1.2453,147.5,97.6,0.495
8.52,31827.2,34872.6,-0.6895,-0.3126,147.5,97.6,0.495
8.54,32070.8,35150.4,0.282,0.3711,147.5,97.6,0.495
8.56,32325.9,35483.6,1.2989,1.1915,147.5,97.6,0.495
8.58,32421.8,35761.3,1.6813,1.8749,147.5,97.6,0.495
8.6,32310.1,35722.1,1.2359,1.7784,147.5,97.6,0.495
8.62,32226.9,35554.7,0.9042,1.3664,147.5,97.6,0.495
8.64,32131.4,35426.9,0.5237,1.0517,147.5,97.6,0.495
8.66,32055.0,35242.1,0.219,0.5969,147.5,97.6,0.495
8.68,32103.9,35093.4,0.4137,0.2309,147.5,97.6,0.495
8.7,32021.7,35099.1,0.0861,0.245,147.5,97.6,0.495
8.72,31980.5,34983.7,-0.0784,-0.0391,147.5,97.6,0.495
8.74,31884.4,34855.3,-0.4612,-0.3553,147.5,97.6,0.495
8.76,31874.3,34775.8,-0.5016,-0.5508,147.5,97.6,0.495
8.78,31860.2,34732.6,-0.558,-0.6573,147.5,97.6,0.495
8.8,31827.8,34732.4,-0.6871,-0.6577,147.5,97.6,0.495
8.82,31825.9,34548.7,-0.6948,-1.1099,147.5,97.6,0.495
8.84,31779.2,34698.9,-0.8807,-0.7403,147.5,97.6,0.495
8.86,31786.9,34537.0,-0.8501,-1.1387,147.5,97.6,0.495
8.88,31742.1,34421.1,-1.0288,-1.424,147.5,97.6,0.495
8.9,31792.1,34533.5,-0.8292,-1.1473,147.5,97.6,0.495
8.92,31880.2,34697.2,-0.4783,-0.7444,147.5,97.6,0.495
8.94,31964.8,35042.6,-0.1406,0.1058,147.5,97.6,0.495
8.96,32081.4,35427.9,0.3243,1.0544,147.5,97.6,0.495
8.98,32278.9,35723.5,1.1114,1.782,147.5,97.6,0.495
9.0,32339.5,35729.3,1.3535,1.7962,147.5,97.6,0.495
9.02,32322.4,35678.2,1.2849,1.6703,147.5,97.6,0.495
9.04,32205.7,35423.0,0.8199,1.0421,147.5,97.6,0.495
9.06,32153.8,35237.8,0.6128,0.5862,147.5,97.6,0.495
9.08,32056.9,35043.3,0.2266,0.1075,147.5,97.6,0.495
9.1,32084.8,35081.5,0.3378,0.2015,147.5,97.6,0.495
9.12,31994.7,35014.5,-0.0214,0.0367,147.5,97.6,0.495
9.14,32022.0,34894.4,0.0873,-0.2589,147.5,97.6,0.495
9.16,31923.8,34877.2,-0.3042,-0.3013,147.5,97.6,0.495
9.18,31833.0,34826.3,-0.6664,-0.4267,147.5,97.6,0.495
9.2,31883.6,34640.9,-0.4644,-0.8831,147.5,97.6,0.495
9.22,31780.7,34684.1,-0.8748,-0.7766,147.5,97.6,0.495
9.24,31867.2,34550.5,-0.53,-1.1054,147.5,97.6,0.495
9.26,31814.4,34442.2,-0.7406,-1.3721,147.5,97.6,0.495
9.28,31755.4,34476.3,-0.9756,-1.2882,147.5,97.6,0.495
9.3,31830.5,34407.8,-0.6763,-1.4567,147.5,97.6,0.495
9.32,31825.4,34575.1,-0.6966,-1.0449,147.5,97.6,0.495
9.34,31986.5,35055.1,-0.0542,0.1367,147.5,97.6,0.495
9.36,32102.8,35285.0,0.4095,0.7026,147.5,97.6,0.495
9.38,32233.9,35641.3,0.9322,1.5795,147.5,97.6,0.495
9.4,32338.0,35796.1,1.3474,1.9606,147.5,97.6,0.495
9.42,32296.9,35670.0,1.1833,1.6502,147.5,97.6,0.495
9.44,32200.4,35519.7,0.7986,1.2802,147.5,97.6,0.495
9.46,32187.5,35363.1,0.7473,0.8948,147.5,97.6,0.495
9.48,31963.7,35210.9,-0.1451,0.5201,147.5,97.6,0.495
9.5,32090.0,35078.4,0.3583,0.194,147.5,97.6,0.495
9.52,32048.1,35135.9,0.1912,0.3354,147.5,97.6,0.495
9.54,31905.3,34984.4,-0.3782,-0.0375,147.5,97.6,0.495
9.56,31882.8,34920.8,-0.4679,-0.194,147.5,97.6,0.495
9.58,31963.9,34778.6,-0.1442,-0.544,147.5,97.6,0.495
9.6,31917.5,34661.0,-0.3294,-0.8336,147.5,97.6,0.495
9.62,31908.2,34640.0,-0.3666,-0.8851,147.5,97.6,0.495
9.64,31905.6,34626.4,-0.3768,-0.9187,147.5,97.6,0.495
9.66,31918.1,34545.1,-0.3268,-1.1187,147.5,97.6,0.495
9.68,31733.5,34489.7,-1.0631,-1.2552,147.5,97.6,0.495
9.7,31764.1,34380.0,-0.9412,-1.5252,147.5,97.6,0.495
9.72,31786.2,34565.1,-0.8531,-1.0696,147.5,97.6,0.495
9.74,31886.5,34812.4,-0.4532,-0.4608,147.5,97.6,0.495
9.76,32073.8,35096.4,0.294,0.2382,147.5,97.6,0.495
9.78,32242.8,35598.3,0.9676,1.4737,147.5,97.6,0.495
9.8,32269.6,35825.5,1.0744,2.0329,147.5,97.6,0.495
9.82,32360.2,35750.2,1.4357,1.8476,147.5,97.6,0.495
9.84,32270.4,35577.6,1.0778,1.4227,147.5,97.6,0.495
9.86,32249.7,35383.8,0.9954,0.9456,147.5,97.6,0.495
9.88,32085.6,35157.5,0.3409,0.3887,147.5,97.6,0.495
9.9,32021.8,35188.1,0.0864,0.4641,147.5,97.6,0.495
9.92,31938.7,35090.9,-0.2448,0.2247,147.5,97.6,0.495
9.94,32010.9,34966.6,0.0429,-0.0812,147.5,97.6,0.495
9.96,31979.2,34867.6,-0.0833,-0.3249,147.5,97.6,0.495
9.98,31902.5,34863.4,-0.3891,-0.3352,147.5,97.6,0.495
10.0,31851.6,34706.8,-0.5923,-0.7208,147.5,97.6,0.495
10.02,31942.9,34632.0,-0.2282,-0.9049,147.5,97.6,0.495
10.04,31856.1,34634.1,-0.5744,-0.8998,147.5,97.6,0.495
10.06,31801.7,34637.3,-0.7913,-0.8919,147.5,97.6,0.495
10.08,31797.5,34512.6,-0.8081,-1.1989,147.5,97.6,0.495
10.1,31772.6,34449.2,-0.9071,-1.3548,147.5,97.6,0.495
10.12,31720.9,34489.9,-1.1132,-1.2547,147.5,97.6,0.495
10.14,31904.8,34663.9,-0.3802,-0.8263,147.5,97.6,0.495
10.16,32045.7,35111.7,0.1819,0.2758,147.5,97.6,0.495
10.18,32126.8,35528.1,0.5053,1.3008,147.5,97.6,0.495
10.2,32289.4,35697.3,1.1536,1.7174,147.5,97.6,0.495
10.22,32357.6,35738.0,1.4255,1.8175,147.5,97.6,0.495
10.24,32263.9,35608.6,1.0518,1.499,147.5,97.6,0.495
10.26,32207.6,35453.3,0.8275,1.1167,147.5,97.6,0.495
10.28,32214.9,35243.6,0.8564,0.6006,147.5,97.6,0.495
10.3,32061.5,35198.7,0.2447,0.4901,147.5,97.6,0.495
10.32,32049.8,35108.3,0.1981,0.2676,147.5,97.6,0.495
10.34,31997.3,35098.3,-0.0111,0.243,147.5,97.6,0.495
10.36,31873.3,34874.5,-0.5056,-0.3079,147.5,97.6,0.495
10.38,31913.5,34781.4,-0.3454,-0.5372,147.5,97.6,0.495
10.4,31782.3,34729.0,-0.8686,-0.6662,147.5,97.6,0.495
10.42,31862.8,34652.7,-0.5476,-0.854,147.5,97.6,0.495
10.44,31813.3,34697.0,-0.7448,-0.745,147.5,97.6,0.495
10.46,31815.8,34588.3,-0.7348,-1.0126,147.5,97.6,0.495
10.48,31818.7,34599.4,-0.7235,-0.9852,147.5,97.6,0.495
10.5,31762.2,34579.8,-0.9486,-1.0333,147.5,97.6,0.495
10.52,31807.1,34529.4,-0.7695,-1.1575,147.5,97.6,0.495
10.54,31740.2,34694.3,-1.0364,-0.7516,147.5,97.6,0.495
10.56,31889.5,34916.5,-0.441,-0.2046,147.5,97.6,0.495
10.58,32120.2,35257.5,0.4789,0.6349,147.5,97.6,0.495
10.6,32249.6,35632.0,0.9947,1.5566,147.5,97.6,0.495
10.62,32341.9,35835.3,1.363,2.0571,147.5,97.6,0.495
10.64,32235.7,35811.2,0.9394,1.9977,147.5,97.6,0.495
10.66,32225.9,35469.5,0.9005,1.1567,147.5,97.6,0.495
10.68,32192.6,35373.8,0.7675,0.9211,147.5,97.6,0.495
10.7,32010.3,35102.3,0.0407,0.2528,147.5,97.6,0.495
10.72,32136.3,35128.3,0.5432,0.3168,147.5,97.6,0.495
10.74,31968.4,34999.6,-0.1264,-0.0001,147.5,97.6,0.495
10.76,31923.2,34952.6,-0.3068,-0.1158,147.5,97.6,0.495
10.78,31958.9,34808.9,-0.1643,-0.4694,147.5,97.6,0.495
10.8,31912.4,34796.9,-0.3499,-0.499,147.5,97.6,0.495
10.82,31861.5,34689.5,-0.5525,-0.7634,147.5,97.6,0.495
10.84,31807.6,34684.8,-0.7676,-0.7749,147.5,97.6,0.495
10.86,31917.5,34667.8,-0.3296,-0.8167,147.5,97.6,0.495
10.88,31798.3,34549.4,-0.8047,-1.1083,147.5,97.6,0.495
10.9,31749.8,34476.6,-0.998,-1.2874,147.5,97.6,0.495
10.92,31689.2,34461.1,-1.2397,-1.3257,147.5,97.6,0.495
10.94,31819.1,34471.2,-0.7218,-1.3007,147.5,97.6,0.495
10.96,31929.6,34898.9,-0.2811,-0.2478,147.5,97.6,0.495
10.98,32030.2,35186.3,0.12,0.4595,147.5,97.6,0.495
11.0,32326.9,35549.8,1.3031,1.3542,147.5,97.6,0.495
11.02,32418.0,35822.2,1.6663,2.0247,147.5,97.6,0.495
11.04,32291.2,35735.4,1.1606,1.8111,147.5,97.6,0.495
11.06,32259.2,35585.3,1.0329,1.4418,147.5,97.6,0.495
11.08,32194.6,35412.1,0.7754,1.0153,147.5,97.6,0.495
11.1,32101.9,35170.0,0.4059,0.4195,147.5,97.6,0.495
11.12,32049.4,35095.0,0.1967,0.2349,147.5,97.6,0.495
11.14,32029.2,35039.5,0.1158,0.0981,147.5,97.6,0.495
11.16,32029.0,34976.0,0.1152,-0.0581,147.5,97.6,0.495
11.18,31946.2,34924.1,-0.215,-0.186,147.5,97.6,0.495
11.2,31861.6,34767.2,-0.5522,-0.5721,147.5,97.6,0.495
11.22,31903.3,34699.4,-0.3861,-0.7389,147.5,97.6,0.495
11.24,31867.9,34675.9,-0.5272,-0.7969,147.5,97.6,0.495
11.26,31831.4,34676.0,-0.6728,-0.7966,147.5,97.6,0.495
11.28,31852.8,34598.5,-0.5874,-0.9873,147.5,97.6,0.495
11.3,31753.8,34538.6,-0.9823,-1.1349,147.5,97.6,0.495
11.32,31742.5,34471.7,-1.0273,-1.2996,147.5,97.6,0.495
11.34,31833.8,34442.9,-0.6631,-1.3704,147.5,97.6,0.495
11.36,31826.5,34777.7,-0.6923,-0.5463,147.5,97.6,0.495
11.38,32021.7,35062.7,0.0862,0.1552,147.5,97.6,0.495
11.4,32150.0,35365.0,0.5977,0.8994,147.5,97.6,0.495
11.42,32249.9,35631.3,0.9959,1.5549,147.5,97.6,0.495
11.44,32334.6,35792.9,1.3339,1.9527,147.5,97.6,0.495
11.46,32399.8,35592.8,1.5938,1.4601,147.5,97.6,0.495
11.48,32206.8,35377.4,0.824,0.9299,147.5,97.6,0.495
11.5,32074.7,35374.3,0.2972,0.9222,147.5,97.6,0.495
11.52,32179.7,35056.3,0.716,0.1395,147.5,97.6,0.495
11.54,31933.2,35123.7,-0.2668,0.3054,147.5,97.6,0.495
11.56,31988.9,35085.1,-0.0449,0.2104,147.5,97.6,0.495
11.58,32037.7,35015.1,0.15,0.0381,147.5,97.6,0.495
11.6,31973.5,34837.0,-0.1061,-0.4003,147.5,97.6,0.495
11.62,31848.3,34659.0,-0.6052,-0.8384,147.5,97.6,0.495
11.64,31864.2,34789.5,-0.5418,-0.5172,147.5,97.6,0.495
11.66,31756.2,34632.4,-0.9725,-0.904,147.5,97.6,0.495
11.68,31862.2,34572.1,-0.55,-1.0524,147.5,97.6,0.495
11.7,31813.8,34544.4,-0.7428,-1.1207,147.5,97.6,0.495
11.72,31896.4,34464.0,-0.4134,-1.3184,147.5,97.6,0.495
11.74,31808.6,34519.2,-0.7638,-1.1827,147.5,97.6,0.495
11.76,31834.6,34545.1,-0.6598,-1.1188,147.5,97.6,0.495
11.78,31942.5,34894.2,-0.2299,-0.2595,147.5,97.6,0.495
11.8,32140.8,35309.3,0.5611,0.7624,147.5,97.6,0.495
11.82,32249.0,35619.2,0.9923,1.5252,147.5,97.6,0.495
11.84,32305.1,35830.9,1.216,2.0463,147.5,97.6,0.495
11.86,32317.7,35746.7,1.2665,1.8391,147.5,97.6,0.495
11.88,32167.2,35362.3,0.6661,0.8929,147.5,97.6,0.495
11.9,32140.4,35383.4,0.5595,0.9448,147.5,97.6,0.495
11.92,32145.3,35073.8,0.5789,0.1825,147.5,97.6,0.495
11.94,32044.7,35068.1,0.178,0.1687,147.5,97.6,0.495
11.96,31922.8,35065.6,-0.3084,0.1625,147.5,97.6,0.495
11.98,32009.3,34921.7,0.0365,-0.1918,147.5,97.6,0.495
12.0,31928.7,34904.4,-0.2848,-0.2344,147.5,97.6,0.495
12.02,31876.8,34745.5,-0.4918,-0.6255,147.5,97.6,0.495
12.04,31930.5,34660.9,-0.2775,-0.8338,147.5,97.6,0.495
12.06,31868.0,34707.9,-0.5269,-0.718,147.5,97.6,0.495
12.08,31861.4,34612.2,-0.553,-0.9536,147.5,97.6,0.495
12.1,31782.1,34650.3,-0.8693,-0.8598,147.5,97.6,0.495
12.12,31788.4,34507.5,-0.8442,-1.2113,147.5,97.6,0.495
12.14,31788.4,34369.6,-0.844,-1.5508,147.5,97.6,0.495
12.16,31875.9,34520.2,-0.4955,-1.1802,147.5,97.6,0.495
12.18,31860.9,34866.3,-0.5549,-0.3282,147.5,97.6,0.495
12.2,32134.6,35140.9,0.5362,0.3478,147.5,97.6,0.495
12.22,32175.7,35614.5,0.7002,1.5137,147.5,97.6,0.495
12.24,32354.6,35731.2,1.4136,1.8008,147.5,97.6,0.495
12.26,32257.3,35800.7,1.0255,1.972,147.5,97.6,0.495
12.28,32257.3,35573.7,1.0254,1.4131,147.5,97.6,0.495
12.3,32143.9,35360.4,0.5732,0.8881,147.5,97.6,0.495
12.32,32081.5,35202.8,0.3244,0.5003,147.5,97.6,0.495
12.34,32100.7,35160.4,0.4011,0.3958,147.5,97.6,0.495
12.36,32084.2,35128.9,0.3353,0.3183,147.5,97.6,0.495
12.38,32017.3,34980.2,0.0687,-0.0479,147.5,97.6,0.495
12.4,32002.1,34868.3,0.0078,-0.3232,147.5,97.6,0.495
12.42,31935.0,34825.8,-0.2597,-0.4279,147.5,97.6,0.495
12.44,31931.3,34636.8,-0.2745,-0.893,147.5,97.6,0.495
12.46,31849.4,34640.9,-0.601,-0.883,147.5,97.6,0.495
12.48,31808.8,34700.7,-0.763,-0.7359,147.5,97.6,0.495
12.5,31804.4,34625.3,-0.7805,-0.9214,147.5,97.6,0.495
12.52,31740.6,34523.2,-1.0346,-1.1728,147.5,97.6,0.495
12.54,31804.2,34496.3,-0.7811,-1.239,147.5,97.6,0.495
12.56,31835.9,34499.9,-0.6549,-1.23,147.5,97.6,0.495
12.58,31924.0,34782.3,-0.3034,-0.535,147.5,97.6,0.495
12.6,32054.3,35069.5,0.2162,0.1721,147.5,97.6,0.495
12.62,32236.5,35398.9,0.9427,0.9828,147.5,97.6,0.495
12.64,32307.4,35710.4,1.2252,1.7497,147.5,97.6,0.495
12.66,32383.2,35707.5,1.5275,1.7424,147.5,97.6,0.495
12.68,32306.1,35660.8,1.22,1.6275,147.5,97.6,0.495
12.7,32177.9,35434.8,0.7087,1.0712,147.5,97.6,0.495
12.72,32051.1,35195.2,0.2031,0.4814,147.5,97.6,0.495
12.74,32163.7,35081.3,0.6524,0.2011,147.5,97.6,0.495
12.76,32073.3,35051.2,0.2917,0.1271,147.5,97.6,0.495
12.78,32074.8,35058.8,0.2979,0.1457,147.5,97.6,0.495
12.8,31959.0,34957.6,-0.1639,-0.1035,147.5,97.6,0.495
12.82,31934.8,34855.0,-0.2603,-0.356,147.5,97.6,0.495
12.84,32003.8,34740.5,0.0145,-0.6378,147.5,97.6,0.495
12.86,31926.1,34708.1,-0.2952,-0.7176,147.5,97.6,0.495
12.88,31874.6,34625.7,-0.5003,-0.9205,147.5,97.6,0.495
12.9,31891.6,34563.6,-0.4328,-1.0733,147.5,97.6,0.495
12.92,31793.8,34515.3,-0.8225,-1.1923,147.5,97.6,0.495
12.94,31839.5,34390.1,-0.6406,-1.5003,147.5,97.6,0.495
12.96,31847.1,34411.5,-0.6103,-1.4476,147.5,97.6,0.495
12.98,31839.4,34609.9,-0.641,-0.9594,147.5,97.6,0.495
13.0,31997.1,34955.8,-0.012,-0.1078,147.5,97.6,0.495
13.02,32154.7,35318.4,0.6166,0.7848,147.5,97.6,0.495
13.04,32287.8,35495.1,1.147,1.2197,147.5,97.6,0.495
13.06,32325.7,35735.2,1.2981,1.8108,147.5,97.6,0.495
13.08,32346.9,35755.6,1.3827,1.8609,147.5,97.6,0.495
13.1,32256.4,35566.1,1.0218,1.3944,147.5,97.6,0.495
13.12,32179.0,35299.2,0.7131,0.7375,147.5,97.6,0.495
13.14,32077.3,35145.2,0.3076,0.3583,147.5,97.6,0.495
13.16,32050.2,35128.6,0.1998,0.3174,147.5,97.6,0.495
13.18,32031.5,34982.4,0.1251,-0.0424,147.5,97.6,0.495
13.2,32096.9,35002.3,0.3859,0.0067,147.5,97.6,0.495
13.22,31903.9,34852.4,-0.3835,-0.3623,147.5,97.6,0.495
13.24,31863.8,34764.3,-0.5436,-0.5794,147.5,97.6,0.495
13.26,31837.3,34719.4,-0.6494,-0.6899,147.5,97.6,0.495
13.28,31751.7,34702.0,-0.9906,-0.7325,147.5,97.6,0.495
13.3,31863.2,34627.6,-0.546,-0.9157,147.5,97.6,0.495
13.32,31788.0,34544.6,-0.8459,-1.12,147.5,97.6,0.495
13.34,31713.5,34472.8,-1.1429,-1.2968,147.5,97.6,0.495
13.36,31754.6,34467.2,-0.9789,-1.3106,147.5,97.6,0.495
13.38,31824.7,34566.2,-0.6993,-1.0668,147.5,97.6,0.495
13.4,31919.8,34855.3,-0.3204,-0.3552,147.5,97.6,0.495
13.42,32023.0,35127.6,0.0913,0.3151,147.5,97.6,0.495
13.44,32316.2,35635.0,1.2603,1.5639,147.5,97.6,0.495
13.46,32440.1,35693.7,1.7543,1.7085,147.5,97.6,0.495
13.48,32269.3,35698.4,1.0734,1.7202,147.5,97.6,0.495
13.5,32278.3,35541.8,1.1094,1.3346,147.5,97.6,0.495
13.52,32209.9,35400.8,0.8367,0.9876,147.5,97.6,0.495
13.54,32177.1,35152.0,0.7058,0.3752,147.5,97.6,0.495
13.56,32127.9,35139.8,0.5097,0.345,147.5,97.6,0.495
13.58,32048.8,35005.2,0.1941,0.0137,147.5,97.6,0.495
13.6,31926.3,35064.2,-0.2945,0.1589,147.5,97.6,0.495
13.62,31846.6,34897.7,-0.6119,-0.2509,147.5,97.6,0.495
13.64,31939.0,34769.8,-0.2436,-0.5658,147.5,97.6,0.495
13.66,31882.5,34653.9,-0.4689,-0.851,147.5,97.6,0.495
13.68,31832.5,34704.9,-0.6683,-0.7255,147.5,97.6,0.495
13.7,31952.0,34702.3,-0.1916,-0.7318,147.5,97.6,0.495
13.72,31859.1,34695.4,-0.5622,-0.7488,147.5,97.6,0.495
13.74,31780.7,34476.4,-0.8749,-1.288,147.5,97.6,0.495
13.76,31733.3,34415.4,-1.064,-1.438,147.5,97.6,0.495
13.78,31764.7,34498.9,-0.9388,-1.2325,147.5,97.6,0.495
13.8,31756.5,34763.6,-0.9714,-0.5809,147.5,97.6,0.495
13.82,32122.1,35133.2,0.4866,0.3288,147.5,97.6,0.495
13.84,32177.5,35365.3,0.7073,0.9001,147.5,97.6,0.495
13.86,32192.5,35765.9,0.7673,1.8862,147.5,97.6,0.495
13.88,32394.0,35699.0,1.5705,1.7215,147.5,97.6,0.495
13.9,32246.2,35626.5,0.9811,1.5431,147.5,97.6,0.495
13.92,32188.1,35421.1,0.7496,1.0375,147.5,97.6,0.495
13.94,32081.2,35247.5,0.3233,0.6101,147.5,97.6,0.495
13.96,32067.3,35172.6,0.268,0.4259,147.5,97.6,0.495
13.98,32003.9,35079.3,0.0153,0.1962,147.5,97.6,0.495
14.0,32093.8,35002.2,0.3736,0.0063,147.5,97.6,0.495
14.02,31972.1,34920.8,-0.1117,-0.194,147.5,97.6,0.495
14.04,31949.5,34838.7,-0.2018,-0.3961,147.5,97.6,0.495
14.06,31918.8,34652.1,-0.3243,-0.8556,147.5,97.6,0.495
14.08,31921.3,34631.1,-0.3142,-0.9072,147.5,97.6,0.495
14.1,31845.8,34744.7,-0.6152,-0.6275,147.5,97.6,0.495
14.12,31845.6,34662.6,-0.616,-0.8296,147.5,97.6,0.495
14.14,31707.0,34590.7,-1.1689,-1.0067,147.5,97.6,0.495
14.16,31761.6,34473.7,-0.9508,-1.2945,147.5,97.6,0.495
14.18,31741.8,34505.9,-1.0299,-1.2154,147.5,97.6,0.495
14.2,31783.0,34620.2,-0.8657,-0.9339,147.5,97.6,0.495
14.22,31971.0,34927.8,-0.1162,-0.1767,147.5,97.6,0.495
14.24,32103.7,35338.3,0.4129,0.8338,147.5,97.6,0.495
14.26,32269.6,35645.3,1.0745,1.5895,147.5,97.6,0.495
14.28,32338.0,35705.2,1.3473,1.7369,147.5,97.6,0.495
14.3,32323.7,35717.8,1.2901,1.7677,147.5,97.6,0.495
14.32,32237.1,35535.4,0.9448,1.3189,147.5,97.6,0.495
14.34,32108.9,35361.0,0.4338,0.8895,147.5,97.6,0.495
14.36,32060.1,35162.2,0.2392,0.4001,147.5,97.6,0.495
14.38,32079.6,35005.9,0.3171,0.0154,147.5,97.6,0.495
14.4,31970.7,35036.9,-0.1173,0.0918,147.5,97.6,0.495
14.42,32073.5,34943.7,0.2927,-0.1377,147.5,97.6,0.495
14.44,31950.8,34890.9,-0.1966,-0.2677,147.5,97.6,0.495
14.46,31838.8,34735.3,-0.6433,-0.6506,147.5,97.6,0.495
14.48,31896.8,34652.3,-0.412,-0.8548,147.5,97.6,0.495
14.5,31871.3,34690.4,-0.5136,-0.7613,147.5,97.6,0.495
14.52,31823.5,34675.8,-0.7041,-0.7971,147.5,97.6,0.495
14.54,31695.9,34540.2,-1.2128,-1.131,147.5,97.6,0.495
14.56,31711.4,34570.8,-1.1512,-1.0556,147.5,97.6,0.495
14.58,31696.6,34500.0,-1.2103,-1.2299,147.5,97.6,0.495
14.6,31849.0,34662.9,-0.6026,-0.829,147.5,97.6,0.495
14.62,31874.7,34849.6,-0.5,-0.3694,147.5,97.6,0.495
14.64,32062.2,35113.4,0.2476,0.2802,147.5,97.6,0.495
14.66,32235.9,35545.1,0.9401,1.3427,147.5,97.6,0.495
14.68,32340.7,35736.1,1.3581,1.8128,147.5,97.6,0.495
14.7,32395.6,35707.0,1.577,1.7413,147.5,97.6,0.495
14.72,32294.9,35549.6,1.1755,1.3539,147.5,97.6,0.495
14.74,32180.8,35388.5,0.7206,0.9572,147.5,97.6,0.495
14.76,32120.8,35199.3,0.4812,0.4916,147.5,97.6,0.495
14.78,32043.0,35111.4,0.1711,0.2751,147.5,97.6,0.495
14.8,32065.5,35086.2,0.2607,0.2132,147.5,97.6,0.495
14.82,31935.4,35078.9,-0.258,0.1952,147.5,97.6,0.495
14.84,31982.0,34862.3,-0.0721,-0.338,147.5,97.6,0.495
14.86,31876.1,34725.3,-0.4943,-0.6751,147.5,97.6,0.495
14.88,31907.4,34614.9,-0.3696,-0.947,147.5,97.6,0.495
14.9,31848.7,34718.9,-0.6038,-0.6909,147.5,97.6,0.495
14.92,31870.7,34593.4,-0.5158,-1.0001,147.5,97.6,0.495
14.94,31814.9,34548.8,-0.7387,-1.1097,147.5,97.6,0.495
14.96,31777.2,34564.0,-0.8886,-1.0722,147.5,97.6,0.495
14.98,31716.8,34387.5,-1.1295,-1.5068,147.5,97.6,0.495
15.0,31701.6,34474.8,-1.1904,-1.2919,147.5,97.6,0.495
15.02,31842.2,34759.4,-0.6298,-0.5914,147.5,97.6,0.495
15.04,32049.7,35062.3,0.1977,0.1542,147.5,97.6,0.495
15.06,32127.5,35451.7,0.5078,1.1127,147.5,97.6,0.495
15.08,32250.3,35716.3,0.9976,1.7641,147.5,97.6,0.495
15.1,32330.2,35790.9,1.3161,1.9477,147.5,97.6,0.495
15.12,32337.6,35669.4,1.3457,1.6487,147.5,97.6,0.495
15.14,32153.4,35546.8,0.6111,1.347,147.5,97.6,0.495
15.16,32110.1,35278.6,0.4387,0.6869,147.5,97.6,0.495
15.18,32099.5,35135.0,0.3962,0.3333,147.5,97.6,0.495
15.2,32035.6,35076.8,0.1414,0.1899,147.5,97.6,0.495
15.22,32078.2,34939.7,0.3114,-0.1475,147.5,97.6,0.495
15.24,31959.3,34811.4,-0.1627,-0.4632,147.5,97.6,0.495
15.26,31870.5,34814.2,-0.5167,-0.4563,147.5,97.6,0.495
15.28,31809.4,34658.1,-0.7605,-0.8406,147.5,97.6,0.495
15.3,31737.2,34796.5,-1.0484,-0.5,147.5,97.6,0.495
15.32,31929.5,34612.8,-0.2814,-0.9521,147.5,97.6,0.495
15.34,31846.6,34690.9,-0.6121,-0.76,147.5,97.6,0.495
15.36,31766.6,34440.7,-0.9311,-1.3759,147.5,97.6,0.495
15.38,31661.7,34447.4,-1.3492,-1.3593,147.5,97.6,0.495
15.4,31788.2,34466.2,-0.845,-1.313,147.5,97.6,0.495
15.42,31845.0,34566.5,-0.6186,-1.0661,147.5,97.6,0.495
15.44,31919.2,34899.8,-0.3228,-0.2458,147.5,97.6,0.495
15.46,32114.0,35345.1,0.4542,0.8504,147.5,97.6,0.495
15.48,32334.1,35614.5,1.3319,1.5136,147.5,97.6,0.495
15.5,32333.9,35618.1,1.3311,1.5225,147.5,97.6,0.495
15.52,32268.0,35708.2,1.0682,1.7443,147.5,97.6,0.495
15.54,32267.2,35486.1,1.0649,1.1974,147.5,97.6,0.495
15.56,32155.8,35234.5,0.6207,0.5783,147.5,97.6,0.495
15.58,32136.6,35281.1,0.5443,0.693,147.5,97.6,0.495
15.6,32042.5,35038.6,0.1689,0.0961,147.5,97.6,0.495
15.62,32047.3,35037.7,0.1881,0.0938,147.5,97.6,0.495
15.64,31937.9,34951.1,-0.248,-0.1195,147.5,97.6,0.495
15.66,31979.3,34819.0,-0.083,-0.4447,147.5,97.6,0.495
15.68,31862.8,34794.0,-0.5473,-0.5062,147.5,97.6,0.495
15.7,31862.0,34764.4,-0.5507,-0.5789,147.5,97.6,0.495
15.72,31767.1,34721.3,-0.9292,-0.6852,147.5,97.6,0.495
15.74,31843.3,34610.4,-0.6254,-0.9582,147.5,97.6,0.495
15.76,31763.5,34548.5,-0.9433,-1.1105,147.5,97.6,0.495
15.78,31670.5,34504.4,-1.3141,-1.219,147.5,97.6,0.495
15.8,31839.3,34490.3,-0.6413,-1.2538,147.5,97.6,0.495
15.82,31853.8,34528.1,-0.5833,-1.1606,147.5,97.6,0.495
15.84,31997.5,34865.1,-0.0106,-0.3312,147.5,97.6,0.495
15.86,32090.0,35133.9,0.3582,0.3304,147.5,97.6,0.495
15.88,32170.0,35523.5,0.6775,1.2895,147.5,97.6,0.495
15.9,32268.8,35779.5,1.0715,1.9198,147.5,97.6,0.495
15.92,32245.5,35723.5,0.9784,1.7818,147.5,97.6,0.495
15.94,32247.6,35647.2,0.987,1.594,147.5,97.6,0.495
15.96,32271.2,35424.0,1.081,1.0446,147.5,97.6,0.495
15.98,32100.2,35209.3,0.3993,0.516,147.5,97.6,0.495
16.0,32012.5,35120.3,0.0495,0.2971,147.5,97.6,0.495
16.02,31960.7,35055.8,-0.1572,0.1383,147.5,97.6,0.495
16.04,31934.9,34963.6,-0.26,-0.0886,147.5,97.6,0.495
16.06,31965.6,34904.4,-0.1378,-0.2344,147.5,97.6,0.495
16.08,32016.9,34714.5,0.0669,-0.7018,147.5,97.6,0.495
16.1,32033.6,34760.1,0.1335,-0.5895,147.5,97.6,0.495
16.12,31949.6,34680.5,-0.2015,-0.7855,147.5,97.6,0.495
16.14,31849.3,34623.1,-0.6011,-0.9269,147.5,97.6,0.495
16.16,31837.2,34600.5,-0.6496,-0.9825,147.5,97.6,0.495
16.18,31750.5,34492.7,-0.9953,-1.2478,147.5,97.6,0.495
16.2,31788.4,34480.7,-0.844,-1.2773,147.5,97.6,0.495
16.22,31831.9,34496.8,-0.6708,-1.2378,147.5,97.6,0.495
16.24,31952.5,34664.2,-0.1897,-0.8258,147.5,97.6,0.495
16.26,31944.7,35058.2,-0.2208,0.1442,147.5,97.6,0.495
16.28,32160.0,35456.8,0.6375,1.1255,147.5,97.6,0.495
16.3,32360.1,35685.0,1.4355,1.687,147.5,97.6,0.495
16.32,32327.8,35791.6,1.3067,1.9496,147.5,97.6,0.495
16.34,32276.9,35640.0,1.1036,1.5763,147.5,97.6,0.495
16.36,32156.5,35404.0,0.6236,0.9954,147.5,97.6,0.495
16.38,32101.5,35316.0,0.4043,0.7787,147.5,97.6,0.495
16.4,32063.1,35064.1,0.2511,0.1588,147.5,97.6,0.495
16.42,31980.6,35177.3,-0.0776,0.4374,147.5,97.6,0.495
16.44,32061.8,34895.6,0.2461,-0.256,147.5,97.6,0.495
16.46,31928.8,34936.3,-0.2843,-0.156,147.5,97.6,0.495
16.48,31971.0,34808.7,-0.1162,-0.4699,147.5,97.6,0.495
16.5,31944.4,34638.2,-0.2223,-0.8896,147.5,97.6,0.495
16.52,31866.8,34671.3,-0.5317,-0.8081,147.5,97.6,0.495
16.54,31842.5,34643.7,-0.6286,-0.8761,147.5,97.6,0.495
16.56,31867.3,34594.1,-0.5296,-0.9981,147.5,97.6,0.495
16.58,31817.9,34598.7,-0.7264,-0.987,147.5,97.6,0.495
16.6,31704.5,34467.7,-1.1789,-1.3094,147.5,97.6,0.495
16.62,31725.1,34440.7,-1.0966,-1.3758,147.5,97.6,0.495
16.64,31863.4,34527.7,-0.5451,-1.1616,147.5,97.6,0.495
16.66,31811.0,34865.3,-0.7539,-0.3306,147.5,97.6,0.495
16.68,32064.8,35273.4,0.258,0.6739,147.5,97.6,0.495
16.7,32284.5,35564.1,1.1341,1.3894,147.5,97.6,0.495
16.72,32243.5,35662.4,0.9704,1.6315,147.5,97.6,0.495
16.74,32290.6,35655.2,1.1581,1.6139,147.5,97.6,0.495
16.76,32243.4,35513.5,0.9701,1.265,147.5,97.6,0.495
16.78,32074.8,35310.9,0.2977,0.7662,147.5,97.6,0.495
16.8,32096.1,35193.2,0.3829,0.4765,147.5,97.6,0.495
16.82,32095.0,35057.7,0.3783,0.1429,147.5,97.6,0.495
16.84,31927.2,35032.2,-0.2908,0.0801,147.5,97.6,0.495
16.86,31936.5,35090.0,-0.2538,0.2225,147.5,97.6,0.495
16.88,31842.3,34878.5,-0.6292,-0.298,147.5,97.6,0.495
16.9,31858.6,34785.7,-0.5644,-0.5266,147.5,97.6,0.495
16.92,32020.4,34689.3,0.081,-0.7638,147.5,97.6,0.495
16.94,31907.3,34681.0,-0.3702,-0.7844,147.5,97.6,0.495
16.96,31843.2,34626.2,-0.6255,-0.9192,147.5,97.6,0.495
16.98,31787.2,34559.2,-0.8491,-1.084,147.5,97.6,0.495
17.0,31734.1,34388.3,-1.0606,-1.5049,147.5,97.6,0.495
17.02,31705.4,34433.3,-1.1753,-1.394,147.5,97.6,0.495
17.04,31739.2,34604.5,-1.0403,-0.9726,147.5,97.6,0.495
17.06,31825.4,34863.8,-0.6967,-0.3344,147.5,97.6,0.495
17.08,32097.2,35212.6,0.3871,0.5243,147.5,97.6,0.495
17.1,32230.0,35603.1,0.9168,1.4855,147.5,97.6,0.495
17.12,32323.0,35718.7,1.2875,1.77,147.5,97.6,0.495
17.14,32295.1,35730.0,1.1762,1.7979,147.5,97.6,0.495
17.16,32192.9,35506.3,0.7687,1.2473,147.5,97.6,0.495
17.18,32084.4,35314.9,0.3362,0.7761,147.5,97.6,0.495
17.2,32058.7,35285.0,0.2335,0.7025,147.5,97.6,0.495
17.22,31976.4,35086.2,-0.0945,0.2132,147.5,97.6,0.495
17.24,32079.0,35130.9,0.3146,0.3231,147.5,97.6,0.495
17.26,31918.5,35036.8,-0.3252,0.0916,147.5,97.6,0.495
17.28,32043.9,34902.3,0.1745,-0.2396,147.5,97.6,0.495
17.3,31895.3,34785.9,-0.418,-0.526,147.5,97.6,0.495
17.32,31813.2,34743.9,-0.7454,-0.6296,147.5,97.6,0.495
17.34,31873.6,34679.1,-0.5045,-0.7889,147.5,97.6,0.495
17.36,31854.8,34665.9,-0.5795,-0.8216,147.5,97.6,0.495
17.38,31899.7,34514.2,-0.4004,-1.195,147.5,97.6,0.495
17.4,31790.6,34578.6,-0.8353,-1.0364,147.5,97.6,0.495
17.42,31819.3,34423.4,-0.721,-1.4185,147.5,97.6,0.495
17.44,31737.0,34545.0,-1.0491,-1.1191,147.5,97.6,0.495
17.46,31765.5,34656.5,-0.9355,-0.8445,147.5,97.6,0.495
17.48,32116.6,34989.6,0.4645,-0.0247,147.5,97.6,0.495
17.5,32108.8,35457.8,0.4334,1.1278,147.5,97.6,0.495
17.52,32399.8,35727.0,1.5937,1.7905,147.5,97.6,0.495
17.54,32376.9,35847.6,1.5025,2.0873,147.5,97.6,0.495
17.56,32350.3,35632.6,1.3962,1.5581,147.5,97.6,0.495
17.58,32160.5,35457.8,0.6396,1.1279,147.5,97.6,0.495
17.6,32149.6,35376.3,0.5959,0.9272,147.5,97.6,0.495
17.62,32054.8,35090.3,0.2179,0.2232,147.5,97.6,0.495
17.64,32023.8,34959.1,0.0945,-0.0996,147.5,97.6,0.495
17.66,31969.5,35123.5,-0.122,0.305,147.5,97.6,0.495
17.68,31920.9,34974.0,-0.3157,-0.063,147.5,97.6,0.495
17.7,31940.2,34875.2,-0.2388,-0.3062,147.5,97.6,0.495
17.72,31905.2,34707.8,-0.3786,-0.7184,147.5,97.6,0.495
17.74,31923.7,34711.1,-0.3045,-0.7101,147.5,97.6,0.495
17.76,31894.6,34651.8,-0.4209,-0.8561,147.5,97.6,0.495
17.78,31823.0,34644.7,-0.7063,-0.8738,147.5,97.6,0.495
17.8,31867.6,34615.2,-0.5282,-0.9462,147.5,97.6,0.495
17.82,31775.7,34427.4,-0.8949,-1.4086,147.5,97.6,0.495
17.84,31705.2,34447.3,-1.1759,-1.3597,147.5,97.6,0.495
17.86,31866.0,34655.7,-0.5349,-0.8467,147.5,97.6,0.495
17.88,31943.2,34881.8,-0.2271,-0.29,147.5,97.6,0.495
17.9,32042.9,35403.8,0.1708,0.995,147.5,97.6,0.495
17.92,32326.3,35592.6,1.3008,1.4597,147.5,97.6,0.495
17.94,32335.4,35777.5,1.337,1.9148,147.5,97.6,0.495
17.96,32364.4,35744.3,1.4526,1.8332,147.5,97.6,0.495
17.98,32195.2,35455.7,0.7777,1.1226,147.5,97.6,0.495
18.0,32108.7,35358.1,0.4332,0.8824,147.5,97.6,0.495
18.02,32014.3,35061.7,0.0567,0.1529,147.5,97.6,0.495
18.04,32039.7,35150.9,0.1578,0.3723,147.5,97.6,0.495
18.06,32040.6,35035.6,0.1613,0.0885,147.5,97.6,0.495
18.08,31998.0,34936.0,-0.0085,-0.1565,147.5,97.6,0.495
18.1,31857.5,34902.0,-0.5685,-0.2404,147.5,97.6,0.495
18.12,31886.9,34737.8,-0.4512,-0.6444,147.5,97.6,0.495
18.14,31933.2,34762.8,-0.2669,-0.5828,147.5,97.6,0.495
18.16,31834.8,34672.6,-0.6592,-0.8051,147.5,97.6,0.495
18.18,31838.1,34579.2,-0.646,-1.0348,147.5,97.6,0.495
18.2,31788.8,34580.7,-0.8425,-1.0312,147.5,97.6,0.495
18.22,31785.3,34548.2,-0.8567,-1.1112,147.5,97.6,0.495
18.24,31719.1,34421.1,-1.1204,-1.4241,147.5,97.6,0.495
18.26,31781.8,34546.1,-0.8704,-1.1163,147.5,97.6,0.495
18.28,31852.2,34810.1,-0.5899,-0.4664,147.5,97.6,0.495
18.3,32035.9,35138.8,0.1429,0.3427,147.5,97.6,0.495
18.32,32240.6,35515.2,0.9588,1.2692,147.5,97.6,0.495
18.34,32275.0,35752.8,1.096,1.854,147.5,97.6,0.495
18.36,32378.4,35708.9,1.5083,1.746,147.5,97.6,0.495
18.38,32253.7,35525.5,1.011,1.2945,147.5,97.6,0.495
18.4,32067.1,35346.1,0.2672,0.8528,147.5,97.6,0.495
18.42,31997.5,35131.1,-0.0103,0.3236,147.5,97.6,0.495
18.44,32051.2,35133.7,0.2037,0.33,147.5,97.6,0.495
18.46,32065.8,35103.7,0.262,0.2561,147.5,97.6,0.495
18.48,31961.1,35007.1,-0.1556,0.0184,147.5,97.6,0.495
18.5,31983.4,34940.8,-0.0667,-0.1449,147.5,97.6,0.495
18.52,31899.0,34756.2,-0.4031,-0.5993,147.5,97.6,0.495
18.54,31846.8,34824.5,-0.6112,-0.431,147.5,97.6,0.495
18.56,31792.5,34642.1,-0.828,-0.88,147.5,97.6,0.495
18.58,31866.8,34701.2,-0.5314,-0.7346,147.5,97.6,0.495
18.6,31839.5,34611.3,-0.6402,-0.9558,147.5,97.6,0.495
18.62,31787.4,34539.9,-0.848,-1.1317,147.5,97.6,0.495
18.64,31782.0,34454.9,-0.8698,-1.3409,147.5,97.6,0.495
18.66,31709.3,34503.4,-1.1597,-1.2215,147.5,97.6,0.495
18.68,31883.4,34701.1,-0.4653,-0.7349,147.5,97.6,0.495
18.7,32037.2,35062.3,0.1479,0.1543,147.5,97.6,0.495
18.72,32284.9,35491.0,1.1357,1.2096,147.5,97.6,0.495
18.74,32226.9,35713.1,0.9043,1.7564,147.5,97.6,0.495
18.76,32332.2,35804.6,1.3243,1.9816,147.5,97.6,0.495
18.78,32276.6,35657.7,1.1023,1.62,147.5,97.6,0.495
18.8,32244.5,35455.3,0.9746,1.1218,147.5,97.6,0.495
18.82,32103.9,35262.4,0.4138,0.6468,147.5,97.6,0.495
18.84,32054.6,35154.1,0.2172,0.3803,147.5,97.6,0.495
18.86,32032.8,35149.1,0.1304,0.3678,147.5,97.6,0.495
18.88,31965.6,35061.9,-0.1378,0.1534,147.5,97.6,0.495
18.9,31914.2,34983.5,-0.3424,-0.0396,147.5,97.6,0.495
18.92,31868.2,34859.7,-0.526,-0.3445,147.5,97.6,0.495
18.94,31915.9,34774.8,-0.3358,-0.5535,147.5,97.6,0.495
18.96,31919.2,34684.4,-0.3226,-0.7759,147.5,97.6,0.495
18.98,31895.0,34614.5,-0.419,-0.9481,147.5,97.6,0.495
19.0,31878.8,34665.0,-0.4836,-0.8238,147.5,97.6,0.495
19.02,31775.1,34557.7,-0.8973,-1.0879,147.5,97.6,0.495
19.04,31683.1,34468.4,-1.264,-1.3077,147.5,97.6,0.495
19.06,31786.7,34552.3,-0.8511,-1.101,147.5,97.6,0.495
19.08,31868.0,34601.5,-0.5266,-0.9801,147.5,97.6,0.495
19.1,32030.1,34902.0,0.1196,-0.2404,147.5,97.6,0.495
19.12,32141.5,35316.7,0.5639,0.7805,147.5,97.6,0.495
19.14,32362.6,35614.8,1.4454,1.5142,147.5,97.6,0.495
19.16,32366.6,35796.8,1.4612,1.9624,147.5,97.6,0.495
19.18,32321.6,35743.7,1.282,1.8316,147.5,97.6,0.495
19.2,32245.4,35444.6,0.9782,1.0952,147.5,97.6,0.495
19.22,32082.0,35311.6,0.3265,0.768,147.5,97.6,0.495
19.24,32088.9,35082.4,0.3539,0.2039,147.5,97.6,0.495
19.26,32051.8,35208.2,0.2062,0.5134,147.5,97.6,0.495
19.28,32034.9,34994.2,0.1388,-0.0133,147.5,97.6,0.495
19.3,32033.6,34937.0,0.1337,-0.1541,147.5,97.6,0.495
19.32,31965.6,34891.4,-0.1377,-0.2664,147.5,97.6,0.495
19.34,32014.7,34838.5,0.0582,-0.3967,147.5,97.6,0.495
19.36,31873.9,34656.6,-0.5031,-0.8444,147.5,97.6,0.495
19.38,31839.0,34609.9,-0.6423,-0.9593,147.5,97.6,0.495
19.4,31856.0,34657.7,-0.5748,-0.8417,147.5,97.6,0.495
19.42,31855.9,34585.7,-0.5749,-1.0189,147.5,97.6,0.495
19.44,31823.3,34497.6,-0.705,-1.2356,147.5,97.6,0.495
19.46,31714.9,34520.6,-1.1371,-1.1791,147.5,97.6,0.495
19.48,31825.4,34619.0,-0.6965,-0.9369,147.5,97.6,0.495
19.5,31845.6,34746.4,-0.6161,-0.6233,147.5,97.6,0.495
19.52,32130.0,35187.5,0.5179,0.4625,147.5,97.6,0.495
19.54,32305.0,35653.3,1.2157,1.6092,147.5,97.6,0.495
19.56,32370.7,35671.7,1.4778,1.6544,147.5,97.6,0.495
19.58,32332.5,35843.5,1.3254,2.0772,147.5,97.6,0.495
19.6,32241.1,35541.2,0.961,1.3331,147.5,97.6,0.495
19.62,32132.6,35335.4,0.5281,0.8266,147.5,97.6,0.495
19.64,32099.2,35194.9,0.3952,0.4808,147.5,97.6,0.495
19.66,32070.9,35002.1,0.2823,0.0061,147.5,97.6,0.495
19.68,32039.5,35040.7,0.157,0.101,147.5,97.6,0.495
19.7,32051.4,34939.1,0.2046,-0.1489,147.5,97.6,0.495
19.72,31969.3,34856.0,-0.1228,-0.3534,147.5,97.6,0.495
19.74,31881.6,34901.9,-0.4725,-0.2407,147.5,97.6,0.495
19.76,31935.5,34680.6,-0.2576,-0.7853,147.5,97.6,0.495
19.78,31808.0,34553.8,-0.7662,-1.0974,147.5,97.6,0.495
19.8,31798.9,34585.3,-0.8025,-1.0198,147.5,97.6,0.495
19.82,31811.2,34570.6,-0.7533,-1.056,147.5,97.6,0.495
19.84,31850.6,34557.2,-0.5962,-1.0891,147.5,97.6,0.495
19.86,31740.7,34434.3,-1.0343,-1.3916,147.5,97.6,0.495
19.88,31768.5,34474.6,-0.9236,-1.2924,147.5,97.6,0.495
19.9,31907.6,34708.5,-0.3689,-0.7165,147.5,97.6,0.495
19.92,32095.4,34949.0,0.3798,-0.1245,147.5,97.6,0.495
19.94,32220.4,35532.3,0.8783,1.3113,147.5,97.6,0.495
19.96,32379.8,35697.1,1.5138,1.7168,147.5,97.6,0.495
19.98,32400.8,35798.4,1.5976,1.9662,147.5,97.6,0.495
20.0,32385.0,35624.9,1.5345,1.5392,147.5,97.6,0.495
20.02,32143.8,35455.7,0.5729,1.1226,147.5,97.6,0.495
20.04,32118.0,35325.4,0.4702,0.8018,147.5,97.6,0.495
20.06,32122.4,35158.6,0.4878,0.3913,147.5,97.6,0.495
20.08,31957.6,35134.1,-0.1697,0.331,147.5,97.6,0.495
20.1,31847.0,35075.9,-0.6105,0.1879,147.5,97.6,0.495
20.12,31905.2,35004.5,-0.3784,0.0121,147.5,97.6,0.495
20.14,31970.8,34870.7,-0.1167,-0.3173,147.5,97.6,0.495
20.16,31947.7,34707.5,-0.2088,-0.719,147.5,97.6,0.495
20.18,31859.5,34711.5,-0.5607,-0.7092,147.5,97.6,0.495
20.2,31944.1,34671.5,-0.2232,-0.8077,147.5,97.6,0.495
20.22,31826.8,34593.9,-0.6911,-0.9987,147.5,97.6,0.495
20.24,31851.9,34526.3,-0.5908,-1.1651,147.5,97.6,0.495
20.26,31678.4,34644.4,-1.2826,-0.8743,147.5,97.6,0.495
20.28,31772.0,34424.3,-0.9094,-1.4163,147.5,97.6,0.495
20.3,31793.3,34602.3,-0.8246,-0.9781,147.5,97.6,0.495
20.32,31963.5,34930.2,-0.1461,-0.1708,147.5,97.6,0.495
20.34,32082.3,35419.1,0.3276,1.0326,147.5,97.6,0.495
20.36,32331.5,35679.9,1.3215,1.6745,147.5,97.6,0.495
20.38,32464.7,35842.2,1.8524,2.074,147.5,97.6,0.495
20.4,32283.8,35693.9,1.1311,1.709,147.5,97.6,0.495
20.42,32186.7,35531.4,0.7442,1.3091,147.5,97.6,0.495
20.44,32112.4,35235.8,0.4476,0.5813,147.5,97.6,0.495
20.46,32075.5,35129.6,0.3005,0.32,147.5,97.6,0.495
20.48,32085.1,35139.3,0.3387,0.3438,147.5,97.6,0.495
20.5,32041.5,35095.6,0.165,0.2362,147.5,97.6,0.495
20.52,31966.8,34906.5,-0.133,-0.2292,147.5,97.6,0.495
20.54,31922.5,34750.0,-0.3096,-0.6144,147.5,97.6,0.495
20.56,31871.8,34681.6,-0.5117,-0.7829,147.5,97.6,0.495
20.58,31882.1,34629.9,-0.4704,-0.9101,147.5,97.6,0.495
20.6,31884.4,34619.5,-0.4615,-0.9357,147.5,97.6,0.495
20.62,31787.9,34627.5,-0.8461,-0.916,147.5,97.6,0.495
20.64,31845.3,34554.9,-0.6171,-1.0946,147.5,97.6,0.495
20.66,31816.4,34488.3,-0.7326,-1.2586,147.5,97.6,0.495
20.68,31764.6,34473.5,-0.9391,-1.2952,147.5,97.6,0.495
20.7,31759.2,34472.0,-0.9605,-1.2989,147.5,97.6,0.495
20.72,31907.7,34768.8,-0.3683,-0.5682,147.5,97.6,0.495
20.74,32039.1,35254.0,0.1555,0.6261,147.5,97.6,0.495
20.76,32197.6,35496.1,0.7877,1.222,147.5,97.6,0.495
20.78,32367.5,35658.7,1.4651,1.6223,147.5,97.6,0.495
20.8,32255.8,35741.2,1.0194,1.8254,147.5,97.6,0.495
20.82,32265.6,35536.9,1.0588,1.3226,147.5,97.6,0.495
20.84,32180.0,35481.4,0.7171,1.1858,147.5,97.6,0.495
20.86,32072.5,35201.8,0.2888,0.4978,147.5,97.6,0.495
20.88,32049.2,35152.0,0.1957,0.3751,147.5,97.6,0.495
20.9,31993.2,35047.4,-0.0277,0.1175,147.5,97.6,0.495
20.92,32006.6,34973.4,0.0258,-0.0646,147.5,97.6,0.495
20.94,31922.5,34931.8,-0.3093,-0.167,147.5,97.6,0.495
20.96,31790.3,34776.6,-0.8367,-0.5489,147.5,97.6,0.495
20.98,31897.4,34676.9,-0.4096,-0.7943,147.5,97.6,0.495
21.0,31882.3,34658.8,-0.4697,-0.8388,147.5,97.6,0.495
21.02,31758.7,34632.2,-0.9625,-0.9044,147.5,97.6,0.495
21.04,31818.0,34513.0,-0.726,-1.1979,147.5,97.6,0.495
21.06,31758.8,34553.5,-0.9622,-1.098,147.5,97.6,0.495
21.08,31823.3,34392.5,-0.7051,-1.4945,147.5,97.6,0.495
21.1,31789.3,34440.0,-0.8404,-1.3775,147.5,97.6,0.495
21.12,31768.6,34690.0,-0.923,-0.7622,147.5,97.6,0.495
21.14,32020.5,35136.5,0.0814,0.337,147.5,97.6,0.495
21.16,32212.1,35371.7,0.8454,0.916,147.5,97.6,0.495
21.18,32327.3,35809.8,1.3045,1.9942,147.5,97.6,0.495
21.2,32392.8,35710.6,1.5659,1.7502,147.5,97.6,0.495
21.22,32345.5,35680.3,1.3772,1.6756,147.5,97.6,0.495
21.24,32234.0,35400.5,0.9326,0.9868,147.5,97.6,0.495
21.26,32129.6,35252.8,0.5162,0.6232,147.5,97.6,0.495
21.28,32090.5,35187.8,0.3605,0.4633,147.5,97.6,0.495
21.3,31994.1,35155.5,-0.0238,0.3837,147.5,97.6,0.495
21.32,31978.1,35011.5,-0.0876,0.0292,147.5,97.6,0.495
21.34,31971.0,34907.5,-0.1161,-0.2267,147.5,97.6,0.495
21.36,31935.9,34812.8,-0.2559,-0.46,147.5,97.6,0.495
21.38,31972.9,34856.8,-0.1083,-0.3517,147.5,97.6,0.495
21.4,31841.8,34709.2,-0.6314,-0.7148,147.5,97.6,0.495
21.42,31845.9,34736.7,-0.6149,-0.6473,147.5,97.6,0.495
21.44,31848.8,34460.3,-0.6033,-1.3275,147.5,97.6,0.495
21.46,31871.5,34535.3,-0.5127,-1.1431,147.5,97.6,0.495
21.48,31709.3,34411.6,-1.1595,-1.4475,147.5,97.6,0.495
21.5,31771.9,34448.7,-0.91,-1.3561,147.5,97.6,0.495
21.52,31853.9,34612.2,-0.5829,-0.9536,147.5,97.6,0.495
21.54,31887.2,34931.6,-0.4501,-0.1675,147.5,97.6,0.495
21.56,32243.5,35341.4,0.9706,0.8413,147.5,97.6,0.495
21.58,32246.2,35484.6,0.9811,1.1937,147.5,97.6,0.495
21.6,32237.4,35792.7,0.9462,1.9522,147.5,97.6,0.495
21.62,32367.6,35622.2,1.4653,1.5325,147.5,97.6,0.495
21.64,32229.0,35561.6,0.9125,1.3834,147.5,97.6,0.495
21.66,32148.3,35231.8,0.5908,0.5716,147.5,97.6,0.495
21.68,32092.3,35151.7,0.3675,0.3743,147.5,97.6,0.495
21.7,32049.5,35124.1,0.1969,0.3065,147.5,97.6,0.495
21.72,31973.4,34923.2,-0.1066,-0.1881,147.5,97.6,0.495
21.74,32043.9,34939.4,0.1745,-0.1483,147.5,97.6,0.495
21.76,31922.2,34811.0,-0.3107,-0.4644,147.5,97.6,0.495
21.78,31912.8,34788.3,-0.3481,-0.5202,147.5,97.6,0.495
21.8,31906.5,34630.3,-0.3734,-0.9092,147.5,97.6,0.495
21.82,31749.5,34807.6,-0.9993,-0.4726,147.5,97.6,0.495
21.84,31854.0,34607.6,-0.5826,-0.965,147.5,97.6,0.495
21.86,31823.0,34697.1,-0.7063,-0.7448,147.5,97.6,0.495
21.88,31769.2,34514.7,-0.9206,-1.1938,147.5,97.6,0.495
21.9,31681.2,34395.8,-1.2715,-1.4863,147.5,97.6,0.495
21.92,31787.1,34584.2,-0.8495,-1.0226,147.5,97.6,0.495
21.94,31939.9,34770.5,-0.2401,-0.5641,147.5,97.6,0.495
21.96,32082.4,35239.7,0.3281,0.591,147.5,97.6,0.495
21.98,32236.4,35496.8,0.9421,1.2237,147.5,97.6,0.495
22.0,32296.3,35759.8,1.181,1.8713,147.5,97.6,0.495
22.02,32341.1,35718.7,1.3598,1.77,147.5,97.6,0.495
22.04,32306.4,35526.7,1.2213,1.2974,147.5,97.6,0.495
22.06,32225.3,35353.1,0.8978,0.8701,147.5,97.6,0.495
22.08,32021.3,35155.5,0.0846,0.3837,147.5,97.6,0.495
22.1,32110.9,35125.2,0.4418,0.309,147.5,97.6,0.495
22.12,32053.3,35083.4,0.2122,0.2061,147.5,97.6,0.495
22.14,32005.5,35006.0,0.0214,0.0157,147.5,97.6,0.495
22.16,31991.4,34855.6,-0.0347,-0.3544,147.5,97.6,0.495
22.18,31919.7,34725.7,-0.3206,-0.6743,147.5,97.6,0.495
22.2,31840.5,34754.1,-0.6362,-0.6044,147.5,97.6,0.495
22.22,31864.0,34616.5,-0.5426,-0.9431,147.5,97.6,0.495
22.24,31813.0,34590.2,-0.7461,-1.0079,147.5,97.6,0.495
22.26,31899.4,34561.0,-0.4014,-1.0797,147.5,97.6,0.495
22.28,31779.1,34467.9,-0.8811,-1.3089,147.5,97.6,0.495
22.3,31738.7,34466.9,-1.0423,-1.3114,147.5,97.6,0.495
22.32,31760.5,34485.0,-0.9554,-1.2668,147.5,97.6,0.495
22.34,31945.9,34679.1,-0.216,-0.7889,147.5,97.6,0.495
22.36,32021.3,35135.8,0.0846,0.3353,147.5,97.6,0.495
22.38,32232.2,35455.1,0.9256,1.1213,147.5,97.6,0.495
22.4,32335.3,35625.0,1.3366,1.5395,147.5,97.6,0.495
22.42,32313.5,35719.0,1.2498,1.7707,147.5,97.6,0.495
22.44,32423.0,35750.6,1.6862,1.8485,147.5,97.6,0.495
22.46,32182.4,35463.8,0.7269,1.1427,147.5,97.6,0.495
22.48,32100.2,35299.3,0.399,0.7377,147.5,97.6,0.495
22.5,31993.4,35093.1,-0.0269,0.2302,147.5,97.6,0.495
22.52,32100.7,35048.9,0.401,0.1214,147.5,97.6,0.495
22.54,32025.8,35072.8,0.1023,0.1801,147.5,97.6,0.495
22.56,31985.1,34957.0,-0.06,-0.105,147.5,97.6,0.495
22.58,31936.0,34720.6,-0.2555,-0.6869,147.5,97.6,0.495
22.6,31873.2,34758.6,-0.5061,-0.5933,147.5,97.6,0.495
22.62,31829.9,34709.4,-0.6788,-0.7144,147.5,97.6,0.495
22.64,31879.9,34552.1,-0.4794,-1.1016,147.5,97.6,0.495
22.66,31822.0,34708.3,-0.7101,-0.7172,147.5,97.6,0.495
22.68,31795.2,34561.5,-0.8172,-1.0784,147.5,97.6,0.495
22.7,31714.2,34501.4,-1.1401,-1.2263,147.5,97.6,0.495
22.72,31743.5,34429.5,-1.0233,-1.4033,147.5,97.6,0.495
22.74,31843.3,34556.6,-0.6251,-1.0906,147.5,97.6,0.495
22.76,31919.8,34987.6,-0.3204,-0.0295,147.5,97.6,0.495
22.78,32130.7,35288.3,0.5206,0.7105,147.5,97.6,0.495
22.8,32295.1,35592.6,1.1762,1.4597,147.5,97.6,0.495
22.82,32350.3,35808.0,1.3963,1.9899,147.5,97.6,0.495
22.84,32275.4,35660.4,1.0976,1.6267,147.5,97.6,0.495
22.86,32257.9,35514.3,1.0281,1.2668,147.5,97.6,0.495
22.88,32146.1,35393.1,0.582,0.9686,147.5,97.6,0.495
22.9,32026.3,35150.1,0.1045,0.3703,147.5,97.6,0.495
22.92,32114.2,35128.5,0.4551,0.3173,147.5,97.6,0.495
22.94,32023.3,35046.5,0.0926,0.1155,147.5,97.6,0.495
22.96,31959.3,34952.7,-0.1627,-0.1154,147.5,97.6,0.495
22.98,31953.6,34819.5,-0.1856,-0.4434,147.5,97.6,0.495
23.0,31885.3,34801.1,-0.4578,-0.4886,147.5,97.6,0.495
23.02,31802.6,34678.4,-0.7877,-0.7906,147.5,97.6,0.495
23.04,31830.8,34634.5,-0.6752,-0.8988,147.5,97.6,0.495
23.06,31851.7,34594.7,-0.5918,-0.9966,147.5,97.6,0.495
23.08,31869.5,34558.1,-0.5208,-1.0868,147.5,97.6,0.495
23.1,31714.5,34545.8,-1.1387,-1.1171,147.5,97.6,0.495
23.12,31763.9,34504.0,-0.9419,-1.2201,147.5,97.6,0.495
23.14,31924.5,34558.0,-0.3015,-1.0871,147.5,97.6,0.495
23.16,31868.6,34840.5,-0.5245,-0.3916,147.5,97.6,0.495
23.18,32025.8,35166.7,0.1024,0.4114,147.5,97.6,0.495
23.2,32240.3,35579.1,0.9576,1.4265,147.5,97.6,0.495
23.22,32307.7,35772.9,1.2265,1.9034,147.5,97.6,0.495
23.24,32336.0,35695.0,1.3394,1.7116,147.5,97.6,0.495
23.26,32264.0,35558.4,1.0521,1.3756,147.5,97.6,0.495
23.28,32157.9,35446.5,0.6294,1.1,147.5,97.6,0.495
23.3,32088.6,35201.1,0.3528,0.496,147.5,97.6,0.495
23.32,32011.4,35081.5,0.0451,0.2016,147.5,97.6,0.495
23.34,32024.6,35058.9,0.0976,0.146,147.5,97.6,0.495
23.36,31981.8,34990.7,-0.073,-0.0219,147.5,97.6,0.495
23.38,31888.4,34914.2,-0.4453,-0.2103,147.5,97.6,0.495
23.4,31860.1,34810.5,-0.5584,-0.4656,147.5,97.6,0.495
23.42,31832.4,34699.5,-0.6686,-0.7389,147.5,97.6,0.495
23.44,31875.5,34658.2,-0.4968,-0.8405,147.5,97.6,0.495
23.46,31881.9,34611.1,-0.4712,-0.9564,147.5,97.6,0.495
23.48,31859.5,34641.0,-0.5606,-0.8829,147.5,97.6,0.495
23.5,31881.6,34513.1,-0.4726,-1.1977,147.5,97.6,0.495
23.52,31711.2,34473.1,-1.152,-1.296,147.5,97.6,0.495
23.54,31841.2,34523.6,-0.6335,-1.1717,147.5,97.6,0.495
23.56,31843.0,34643.2,-0.6266,-0.8774,147.5,97.6,0.495
23.58,32053.4,35045.7,0.2124,0.1134,147.5,97.6,0.495
23.6,32069.4,35370.9,0.2762,0.9139,147.5,97.6,0.495
23.62,32360.0,35675.5,1.4349,1.6638,147.5,97.6,0.495
23.64,32313.6,35753.9,1.2502,1.8568,147.5,97.6,0.495
23.66,32269.0,35602.1,1.0721,1.483,147.5,97.6,0.495
23.68,32178.8,35412.2,0.7124,1.0157,147.5,97.6,0.495
23.7,32150.3,35328.6,0.5989,0.8099,147.5,97.6,0.495
23.72,31972.4,35190.0,-0.1105,0.4687,147.5,97.6,0.495
23.74,32044.0,35097.8,0.1749,0.2418,147.5,97.6,0.495
23.76,32068.8,35024.7,0.2737,0.0617,147.5,97.6,0.495
23.78,32011.2,34953.5,0.0442,-0.1134,147.5,97.6,0.495
23.8,31903.4,34802.2,-0.3855,-0.486,147.5,97.6,0.495
23.82,31893.7,34684.9,-0.4241,-0.7747,147.5,97.6,0.495
23.84,31878.3,34686.0,-0.4859,-0.772,147.5,97.6,0.495
23.86,31856.4,34649.5,-0.5732,-0.8618,147.5,97.6,0.495
23.88,31774.8,34615.3,-0.8986,-0.9461,147.5,97.6,0.495
23.9,31791.1,34557.6,-0.8334,-1.0881,147.5,97.6,0.495
23.92,31837.9,34387.2,-0.647,-1.5074,147.5,97.6,0.495
23.94,31797.4,34513.5,-0.8084,-1.1965,147.5,97.6,0.495
23.96,31793.6,34619.2,-0.8234,-0.9364,147.5,97.6,0.495
23.98,31960.5,34943.3,-0.1578,-0.1385,147.5,97.6,0.495
24.0,32004.3,35241.1,0.0168,0.5943,147.5,97.6,0.495
24.02,32344.9,35547.2,1.3749,1.3479,147.5,97.6,0.495
24.04,32356.4,35832.1,1.4206,2.0492,147.5,97.6,0.495
24.06,32313.8,35659.5,1.2508,1.6244,147.5,97.6,0.495
24.08,32155.3,35498.6,0.6188,1.2283,147.5,97.6,0.495
24.1,32198.6,35311.5,0.7916,0.7678,147.5,97.6,0.495
24.12,32008.3,35095.6,0.0325,0.2363,147.5,97.6,0.495
24.14,32043.9,35147.3,0.1745,0.3636,147.5,97.6,0.495
24.16,32096.5,35117.7,0.3843,0.2906,147.5,97.6,0.495
24.18,31906.5,34888.9,-0.3733,-0.2726,147.5,97.6,0.495
24.2,31859.6,34730.7,-0.5602,-0.662,147.5,97.6,0.495
24.22,31847.0,34716.2,-0.6104,-0.6975,147.5,97.6,0.495
24.24,31900.1,34618.8,-0.3988,-0.9373,147.5,97.6,0.495
24.26,31864.0,34666.9,-0.5426,-0.819,147.5,97.6,0.495
24.28,31941.9,34564.5,-0.2321,-1.071,147.5,97.6,0.495
24.3,31815.3,34554.1,-0.7367,-1.0966,147.5,97.6,0.495
24.32,31731.6,34457.9,-1.0705,-1.3334,147.5,97.6,0.495
24.34,31733.3,34337.8,-1.0637,-1.629,147.5,97.6,0.495
24.36,31812.2,34532.4,-0.7495,-1.1502,147.5,97.6,0.495
24.38,31986.3,34696.6,-0.0549,-0.7458,147.5,97.6,0.495
24.4,32091.2,35215.0,0.3631,0.5301,147.5,97.6,0.495
24.42,32190.4,35428.5,0.7588,1.0556,147.5,97.6,0.495
24.44,32353.6,35776.3,1.4097,1.9118,147.5,97.6,0.495
24.46,32386.3,35821.9,1.5399,2.024,147.5,97.6,0.495
24.48,32283.5,35652.8,1.1299,1.608,147.5,97.6,0.495
24.5,32120.7,35433.3,0.481,1.0675,147.5,97.6,0.495
24.52,32096.4,35241.6,0.3838,0.5956,147.5,97.6,0.495
24.54,32031.6,35101.5,0.1256,0.2508,147.5,97.6,0.495
24.56,32024.0,35029.0,0.0953,0.0724,147.5,97.6,0.495
24.58,31976.9,35049.3,-0.0927,0.1223,147.5,97.6,0.495
24.6,31968.1,34922.4,-0.1277,-0.19,147.5,97.6,0.495
24.62,31875.9,34756.8,-0.4954,-0.5977,147.5,97.6,0.495
24.64,31875.7,34668.6,-0.4961,-0.8148,147.5,97.6,0.495
24.66,31918.0,34706.4,-0.3275,-0.7217,147.5,97.6,0.495
24.68,31785.8,34724.6,-0.8544,-0.677,147.5,97.6,0.495
24.7,31719.0,34507.3,-1.1208,-1.2119,147.5,97.6,0.495
24.72,31755.4,34569.8,-0.9758,-1.0581,147.5,97.6,0.495
24.74,31780.3,34458.2,-0.8766,-1.3327,147.5,97.6,0.495
24.76,31828.5,34491.3,-0.6845,-1.2514,147.5,97.6,0.495
24.78,31912.6,34769.0,-0.3487,-0.5676,147.5,97.6,0.495
24.8,32044.0,35006.4,0.1748,0.0167,147.5,97.6,0.495
24.82,32194.6,35455.1,0.7757,1.1212,147.5,97.6,0.495
24.84,32327.9,35667.0,1.3069,1.6429,147.5,97.6,0.495
24.86,32368.9,35780.9,1.4705,1.9232,147.5,97.6,0.495
24.88,32184.7,35624.4,0.7362,1.538,147.5,97.6,0.495
24.9,32180.8,35392.6,0.7206,0.9673,147.5,97.6,0.495
24.92,32085.7,35205.4,0.3412,0.5065,147.5,97.6,0.495
24.94,32160.3,35180.2,0.6387,0.4446,147.5,97.6,0.495
24.96,32009.5,35023.5,0.0376,0.0587,147.5,97.6,0.495
24.98,31992.8,35061.0,-0.029,0.151,147.5,97.6,0.495
25.0,32032.4,34972.4,0.1289,-0.067,147.5,97.6,0.495
25.02,31966.1,34911.6,-0.1355,-0.2166,147.5,97.6,0.495
25.04,31835.1,34655.1,-0.6578,-0.8481,147.5,97.6,0.495
25.06,31834.8,34748.7,-0.659,-0.6177,147.5,97.6,0.495
25.08,31875.4,34664.7,-0.4974,-0.8245,147.5,97.6,0.495
25.1,31796.3,34623.9,-0.8126,-0.9248,147.5,97.6,0.495
25.12,31704.1,34558.2,-1.1802,-1.0865,147.5,97.6,0.495
25.14,31761.6,34455.5,-0.951,-1.3394,147.5,97.6,0.495
25.16,31713.1,34382.9,-1.1444,-1.518,147.5,97.6,0.495
25.18,31804.2,34597.1,-0.7811,-0.9909,147.5,97.6,0.495
25.2,31963.9,34965.8,-0.1443,-0.0832,147.5,97.6,0.495
25.22,32103.8,35253.6,0.4133,0.6251,147.5,97.6,0.495
25.24,32210.5,35735.3,0.8389,1.811,147.5,97.6,0.495
25.26,32355.4,35721.4,1.4165,1.7767,147.5,97.6,0.495
25.28,32300.2,35679.1,1.1966,1.6726,147.5,97.6,0.495
25.3,32198.3,35600.5,0.7901,1.4791,147.5,97.6,0.495
25.32,32011.1,35285.5,0.0437,0.7037,147.5,97.6,0.495
25.34,32027.8,35134.1,0.1105,0.3311,147.5,97.6,0.495
25.36,31962.7,35129.7,-0.1491,0.3202,147.5,97.6,0.495
25.38,31990.9,35058.7,-0.0367,0.1455,147.5,97.6,0.495
25.4,32056.9,34950.3,0.2264,-0.1215,147.5,97.6,0.495
25.42,32021.6,34766.5,0.0858,-0.5737,147.5,97.6,0.495
25.44,31851.3,34788.4,-0.5934,-0.52,147.5,97.6,0.495
25.46,31811.5,34658.3,-0.7519,-0.8401,147.5,97.6,0.495
25.48,31819.1,34638.2,-0.7216,-0.8895,147.5,97.6,0.495
25.5,31791.2,34545.2,-0.8329,-1.1185,147.5,97.6,0.495
25.52,31746.4,34574.1,-1.0117,-1.0474,147.5,97.6,0.495
25.54,31782.1,34574.2,-0.8692,-1.0471,147.5,97.6,0.495
25.56,31776.1,34419.8,-0.8933,-1.4272,147.5,97.6,0.495
25.58,31850.4,34568.5,-0.5969,-1.0612,147.5,97.6,0.495
25.6,31939.2,34758.3,-0.243,-0.5941,147.5,97.6,0.495
25.62,32061.5,35133.8,0.2447,0.3302,147.5,97.6,0.495
25.64,32221.9,35620.4,0.8843,1.5282,147.5,97.6,0.495
25.66,32300.9,35727.5,1.1992,1.7917,147.5,97.6,0.495
25.68,32327.0,35751.5,1.3036,1.8508,147.5,97.6,0.495
25.7,32254.0,35606.9,1.0122,1.4948,147.5,97.6,0.495
25.72,32172.3,35329.3,0.6865,0.8114,147.5,97.6,0.495
25.74,32084.8,35217.4,0.3376,0.5362,147.5,97.6,0.495
25.76,32106.5,35175.8,0.4243,0.4336,147.5,97.6,0.495
25.78,32057.9,35201.9,0.2303,0.4979,147.5,97.6,0.495
25.8,32085.7,34987.4,0.3412,-0.0301,147.5,97.6,0.495
25.82,31881.1,34943.2,-0.4746,-0.1388,147.5,97.6,0.495
25.84,31847.2,34780.0,-0.6099,-0.5407,147.5,97.6,0.495
25.86,31820.9,34675.7,-0.7146,-0.7975,147.5,97.6,0.495
25.88,31872.7,34762.2,-0.5078,-0.5845,147.5,97.6,0.495
25.9,31901.4,34631.9,-0.3935,-0.9052,147.5,97.6,0.495
25.92,31815.2,34591.0,-0.7372,-1.0058,147.5,97.6,0.495
25.94,31736.6,34576.1,-1.0509,-1.0425,147.5,97.6,0.495
25.96,31753.2,34415.5,-0.9847,-1.4379,147.5,97.6,0.495
25.98,31736.2,34454.3,-1.0523,-1.3423,147.5,97.6,0.495
26.0,31813.3,34579.9,-0.745,-1.0331,147.5,97.6,0.495
26.02,32009.4,35008.9,0.0371,0.0229,147.5,97.6,0.495
26.04,32221.8,35426.5,0.8839,1.0508,147.5,97.6,0.495
26.06,32275.1,35728.8,1.0966,1.795,147.5,97.6,0.495
26.08,32381.0,35743.0,1.5187,1.8299,147.5,97.6,0.495
26.1,32210.8,35617.4,0.8402,1.5207,147.5,97.6,0.495
26.12,32230.9,35407.8,0.9204,1.0047,147.5,97.6,0.495
26.14,32125.9,35278.9,0.5014,0.6875,147.5,97.6,0.495
26.16,32009.1,35177.3,0.0359,0.4374,147.5,97.6,0.495
26.18,32022.4,35118.2,0.089,0.2918,147.5,97.6,0.495
26.2,32107.8,35004.4,0.4295,0.0117,147.5,97.6,0.495
26.22,31945.0,34934.4,-0.2196,-0.1607,147.5,97.6,0.495
26.24,31903.5,34759.9,-0.3852,-0.59,147.5,97.6,0.495
26.26,31860.8,34709.5,-0.5554,-0.714,147.5,97.6,0.495
26.28,31892.8,34658.0,-0.4279,-0.8409,147.5,97.6,0.495
26.3,31812.2,34605.8,-0.7493,-0.9694,147.5,97.6,0.495
26.32,31764.7,34709.3,-0.9385,-0.7145,147.5,97.6,0.495
26.34,31773.9,34591.8,-0.902,-1.0038,147.5,97.6,0.495
26.36,31721.9,34431.2,-1.1091,-1.3991,147.5,97.6,0.495
26.38,31741.9,34474.9,-1.0295,-1.2917,147.5,97.6,0.495
26.4,31855.6,34591.5,-0.576,-1.0047,147.5,97.6,0.495
26.42,31965.1,34930.7,-0.1396,-0.1697,147.5,97.6,0.495
26.44,32165.3,35363.1,0.6587,0.8947,147.5,97.6,0.495
26.46,32339.0,35583.3,1.3511,1.4368,147.5,97.6,0.495
26.48,32288.2,35776.7,1.1487,1.9128,147.5,97.6,0.495
26.5,32263.6,35685.8,1.0505,1.6892,147.5,97.6,0.495
26.52,32251.4,35574.2,1.0021,1.4144,147.5,97.6,0.495
26.54,32101.6,35317.2,0.4046,0.7817,147.5,97.6,0.495
26.56,32165.9,35191.8,0.661,0.473,147.5,97.6,0.495
26.58,32086.1,35095.3,0.343,0.2355,147.5,97.6,0.495
26.6,32041.8,34952.9,0.1661,-0.115,147.5,97.6,0.495
26.62,32043.2,34942.7,0.1718,-0.1402,147.5,97.6,0.495
26.64,31945.8,34942.4,-0.2165,-0.1408,147.5,97.6,0.495
26.66,31905.7,34790.4,-0.3765,-0.515,147.5,97.6,0.495
26.68,31818.1,34669.2,-0.7256,-0.8134,147.5,97.6,0.495
26.7,31822.3,34655.2,-0.7088,-0.8478,147.5,97.6,0.495
26.72,31860.7,34602.4,-0.5558,-0.9778,147.5,97.6,0.495
26.74,31776.8,34600.0,-0.8903,-0.9837,147.5,97.6,0.495
26.76,31796.0,34530.6,-0.814,-1.1546,147.5,97.6,0.495
26.78,31727.5,34482.8,-1.0868,-1.2721,147.5,97.6,0.495
26.8,31777.8,34529.7,-0.8862,-1.1567,147.5,97.6,0.495
26.82,31945.5,34773.5,-0.2176,-0.5566,147.5,97.6,0.495
26.84,32010.6,35163.3,0.042,0.4029,147.5,97.6,0.495
26.86,32251.5,35544.9,1.0026,1.3422,147.5,97.6,0.495
26.88,32377.0,35708.3,1.5026,1.7444,147.5,97.6,0.495
26.9,32452.3,35700.0,1.803,1.7241,147.5,97.6,0.495
26.92,32116.5,35597.7,0.4642,1.4722,147.5,97.6,0.495
26.94,32134.7,35349.5,0.5368,0.8612,147.5,97.6,0.495
26.96,32139.5,35261.0,0.5559,0.6433,147.5,97.6,0.495
26.98,32004.0,35144.1,0.0155,0.3557,147.5,97.6,0.495
27.0,32039.1,35111.2,0.1555,0.2746,147.5,97.6,0.495
27.02,31966.3,34966.0,-0.1348,-0.0827,147.5,97.6,0.495
27.04,31896.1,34889.1,-0.4148,-0.272,147.5,97.6,0.495
27.06,31938.8,34847.3,-0.2445,-0.375,147.5,97.6,0.495
27.08,31946.1,34669.9,-0.2154,-0.8117,147.5,97.6,0.495
27.1,31738.0,34610.5,-1.0453,-0.9577,147.5,97.6,0.495
27.12,31797.6,34707.2,-0.8075,-0.7199,147.5,97.6,0.495
27.14,31882.3,34620.0,-0.4699,-0.9345,147.5,97.6,0.495
27.16,31801.8,34545.5,-0.7909,-1.1179,147.5,97.6,0.495
27.18,31778.2,34503.3,-0.8848,-1.2217,147.5,97.6,0.495
27.2,31724.9,34468.3,-1.0972,-1.308,147.5,97.6,0.495
27.22,31808.8,34660.1,-0.7627,-0.8358,147.5,97.6,0.495
27.24,31980.6,34993.0,-0.0777,-0.0162,147.5,97.6,0.495
27.26,32199.8,35387.1,0.7964,0.9538,147.5,97.6,0.495
27.28,32311.8,35606.5,1.2427,1.4939,147.5,97.6,0.495
27.3,32294.5,35734.0,1.174,1.8076,147.5,97.6,0.495
27.32,32291.7,35589.7,1.1627,1.4526,147.5,97.6,0.495
27.34,32200.5,35475.7,0.7991,1.1719,147.5,97.6,0.495
27.36,32091.1,35260.5,0.3628,0.6422,147.5,97.6,0.495
27.38,31999.2,35014.4,-0.0034,0.0365,147.5,97.6,0.495
27.4,32015.4,35025.7,0.0612,0.0642,147.5,97.6,0.495
27.42,31950.0,34976.3,-0.1998,-0.0573,147.5,97.6,0.495
27.44,31980.8,34916.4,-0.0769,-0.2048,147.5,97.6,0.495
27.46,31978.0,34886.9,-0.0883,-0.2774,147.5,97.6,0.495
27.48,31915.6,34750.6,-0.3368,-0.6129,147.5,97.6,0.495
27.5,31883.0,34689.6,-0.4669,-0.7631,147.5,97.6,0.495
27.52,31796.5,34694.6,-0.8121,-0.7508,147.5,97.6,0.495
27.54,31793.3,34591.6,-0.8248,-1.0045,147.5,97.6,0.495
27.56,31850.7,34639.1,-0.5958,-0.8875,147.5,97.6,0.495
27.58,31797.2,34504.8,-0.8089,-1.2181,147.5,97.6,0.495
27.6,31692.0,34484.0,-1.2285,-1.2693,147.5,97.6,0.495
27.62,31820.7,34634.3,-0.7152,-0.8993,147.5,97.6,0.495
27.64,31865.7,34904.7,-0.536,-0.2337,147.5,97.6,0.495
27.66,32131.7,35227.6,0.5248,0.5611,147.5,97.6,0.495
27.68,32216.4,35566.0,0.8624,1.3942,147.5,97.6,0.495
27.7,32280.2,35714.5,1.1168,1.7598,147.5,97.6,0.495
27.72,32322.0,35701.4,1.2835,1.7276,147.5,97.6,0.495
27.74,32076.0,35453.6,0.3027,1.1176,147.5,97.6,0.495
27.76,32003.0,35383.5,0.0114,0.9449,147.5,97.6,0.495
27.78,32082.5,35261.9,0.3286,0.6455,147.5,97.6,0.495
27.8,32130.3,35090.8,0.519,0.2244,147.5,97.6,0.495
27.82,32035.3,35006.0,0.1401,0.0158,147.5,97.6,0.495
27.84,31856.6,34845.1,-0.5722,-0.3804,147.5,97.6,0.495
27.86,31819.9,34808.1,-0.7184,-0.4715,147.5,97.6,0.495
27.88,31892.1,34755.1,-0.4306,-0.6019,147.5,97.6,0.495
27.9,31872.9,34699.9,-0.5072,-0.7377,147.5,97.6,0.495
27.92,31848.8,34720.8,-0.6032,-0.6864,147.5,97.6,0.495
27.94,31880.2,34518.7,-0.4781,-1.1839,147.5,97.6,0.495
27.96,31783.3,34624.9,-0.8646,-0.9224,147.5,97.6,0.495
27.98,31770.7,34481.4,-0.9146,-1.2756,147.5,97.6,0.495
28.0,31730.3,34418.3,-1.0757,-1.4311,147.5,97.6,0.495
28.02,31713.6,34566.6,-1.1425,-1.0658,147.5,97.6,0.495
28.04,31917.2,34842.6,-0.3307,-0.3865,147.5,97.6,0.495
28.06,32054.0,35220.3,0.2149,0.5432,147.5,97.6,0.495
28.08,32200.3,35500.2,0.7983,1.2322,147.5,97.6,0.495
28.1,32307.2,35770.1,1.2247,1.8967,147.5,97.6,0.495
28.12,32274.1,35662.6,1.0925,1.632,147.5,97.6,0.495
28.14,32240.3,35525.5,0.9579,1.2944,147.5,97.6,0.495
28.16,32164.2,35295.5,0.6542,0.7284,147.5,97.6,0.495
28.18,32081.5,35154.3,0.3244,0.3809,147.5,97.6,0.495
28.2,32054.5,35147.1,0.217,0.3632,147.5,97.6,0.495
28.22,32048.7,35089.6,0.1939,0.2214,147.5,97.6,0.495
28.24,32020.2,34961.1,0.08,-0.0949,147.5,97.6,0.495
28.26,31939.9,34861.6,-0.24,-0.3396,147.5,97.6,0.495
28.28,31892.9,34814.8,-0.4275,-0.4548,147.5,97.6,0.495
28.3,31869.7,34681.4,-0.52,-0.7833,147.5,97.6,0.495
28.32,31738.5,34688.8,-1.043,-0.7651,147.5,97.6,0.495
28.34,31802.0,34731.2,-0.79,-0.6608,147.5,97.6,0.495
28.36,31864.9,34533.9,-0.5393,-1.1464,147.5,97.6,0.495
28.38,31853.9,34482.8,-0.583,-1.2721,147.5,97.6,0.495
28.4,31782.2,34375.0,-0.8689,-1.5375,147.5,97.6,0.495
28.42,31691.8,34445.0,-1.2295,-1.3652,147.5,97.6,0.495
28.44,31830.6,34693.4,-0.6757,-0.7538,147.5,97.6,0.495
28.46,32071.9,35074.2,0.2862,0.1836,147.5,97.6,0.495
28.48,32146.9,35412.4,0.5853,1.0162,147.5,97.6,0.495
28.5,32250.0,35739.5,0.9965,1.8212,147.5,97.6,0.495
28.52,32316.1,35798.9,1.2599,1.9675,147.5,97.6,0.495
28.54,32356.0,35658.5,1.4192,1.6219,147.5,97.6,0.495
28.56,32199.7,35392.2,0.7958,0.9663,147.5,97.6,0.495
28.58,32082.7,35211.5,0.3294,0.5215,147.5,97.6,0.495
28.6,32029.0,35102.5,0.1152,0.2532,147.5,97.6,0.495
28.62,32041.3,35029.9,0.1641,0.0746,147.5,97.6,0.495
28.64,31990.1,35036.4,-0.0399,0.0906,147.5,97.6,0.495
28.66,32018.2,34910.8,0.0722,-0.2187,147.5,97.6,0.495
28.68,31988.7,34900.1,-0.0457,-0.2449,147.5,97.6,0.495
28.7,31818.6,34826.5,-0.7237,-0.4262,147.5,97.6,0.495
28.72,31849.0,34759.4,-0.6027,-0.5912,147.5,97.6,0.495
28.74,31923.7,34651.9,-0.3045,-0.8559,147.5,97.6,0.495
28.76,31857.4,34592.5,-0.5691,-1.0021,147.5,97.6,0.495
28.78,31828.1,34511.1,-0.6858,-1.2026,147.5,97.6,0.495
28.8,31762.5,34515.8,-0.9475,-1.191,147.5,97.6,0.495
28.82,31757.5,34510.8,-0.9672,-1.2032,147.5,97.6,0.495
28.84,31827.8,34514.7,-0.6869,-1.1936,147.5,97.6,0.495
28.86,31885.3,35044.8,-0.4579,0.1112,147.5,97.6,0.495
28.88,32056.7,35475.9,0.2258,1.1723,147.5,97.6,0.495
28.9,32293.3,35717.2,1.1689,1.7664,147.5,97.6,0.495
28.92,32291.8,35859.5,1.163,2.1166,147.5,97.6,0.495
28.94,32249.3,35759.6,0.9936,1.8707,147.5,97.6,0.495
28.96,32167.9,35431.8,0.6689,1.0638,147.5,97.6,0.495
28.98,32078.5,35334.9,0.3125,0.8253,147.5,97.6,0.495
29.0,32134.5,35189.9,0.5359,0.4684,147.5,97.6,0.495
29.02,32093.9,35124.4,0.3738,0.3071,147.5,97.6,0.495
29.04,31976.1,35063.1,-0.0957,0.1562,147.5,97.6,0.495
29.06,31997.1,34920.3,-0.012,-0.1952,147.5,97.6,0.495
29.08,31892.0,34910.2,-0.4311,-0.22,147.5,97.6,0.495
29.1,31950.0,34743.8,-0.2,-0.6297,147.5,97.6,0.495
29.12,31765.1,34585.6,-0.937,-1.0192,147.5,97.6,0.495
29.14,31816.3,34597.4,-0.7329,-0.9901,147.5,97.6,0.495
29.16,31867.0,34689.1,-0.5307,-0.7645,147.5,97.6,0.495
29.18,31760.0,34569.0,-0.9576,-1.0601,147.5,97.6,0.495
29.2,31802.7,34522.9,-0.787,-1.1734,147.5,97.6,0.495
29.22,31773.2,34446.7,-0.9049,-1.361,147.5,97.6,0.495
29.24,31839.2,34532.2,-0.6414,-1.1506,147.5,97.6,0.495
29.26,31926.4,34812.4,-0.2938,-0.4608,147.5,97.6,0.495
29.28,32090.9,35160.4,0.362,0.3958,147.5,97.6,0.495
29.3,32215.1,35597.1,0.8572,1.4708,147.5,97.6,0.495
29.32,32371.4,35762.1,1.4806,1.8769,147.5,97.6,0.495
29.34,32398.3,35694.7,1.5876,1.711,147.5,97.6,0.495
29.36,32255.3,35619.7,1.0173,1.5265,147.5,97.6,0.495
29.38,32184.2,35374.2,0.734,0.922,147.5,97.6,0.495
29.4,32120.5,35144.4,0.48,0.3563,147.5,97.6,0.495
29.42,32080.7,35106.2,0.3213,0.2624,147.5,97.6,0.495
29.44,32045.4,35163.3,0.1804,0.4029,147.5,97.6,0.495
29.46,32038.4,35019.5,0.1525,0.0489,147.5,97.6,0.495
29.48,32048.3,34870.1,0.1922,-0.3187,147.5,97.6,0.495
29.5,31809.4,34827.2,-0.7606,-0.4245,147.5,97.6,0.495
29.52,31906.4,34728.0,-0.3736,-0.6686,147.5,97.6,0.495
29.54,31809.9,34628.5,-0.7583,-0.9135,147.5,97.6,0.495
29.56,31871.8,34598.5,-0.5116,-0.9873,147.5,97.6,0.495
29.58,31860.8,34592.3,-0.5555,-1.0025,147.5,97.6,0.495
29.6,31859.4,34510.5,-0.5611,-1.2041,147.5,97.6,0.495
29.62,31761.8,34363.6,-0.9504,-1.5656,147.5,97.6,0.495
29.64,31882.3,34426.7,-0.4699,-1.4103,147.5,97.6,0.495
29.66,31876.8,34683.0,-0.4917,-0.7795,147.5,97.6,0.495
29.68,32095.8,35048.1,0.3814,0.1192,147.5,97.6,0.495
29.7,32190.0,35452.0,0.7571,1.1135,147.5,97.6,0.495
29.72,32316.3,35636.8,1.2608,1.5685,147.5,97.6,0.495
29.74,32454.8,35635.2,1.8131,1.5645,147.5,97.6,0.495
29.76,32272.0,35602.7,1.0842,1.4846,147.5,97.6,0.495
29.78,32216.1,35370.5,0.8611,0.913,147.5,97.6,0.495
29.8,32063.9,35254.6,0.2543,0.6276,147.5,97.6,0.495
29.82,32061.2,35030.0,0.2436,0.0749,147.5,97.6,0.495
29.84,31958.2,35036.8,-0.1672,0.0914,147.5,97.6,0.495
29.86,31969.5,35013.5,-0.1219,0.0341,147.5,97.6,0.495
29.88,32076.1,34919.9,0.3031,-0.1963,147.5,97.6,0.495
29.9,31886.9,34881.0,-0.4513,-0.2921,147.5,97.6,0.495
29.92,31903.2,34855.9,-0.3866,-0.3538,147.5,97.6,0.495
29.94,31808.8,34627.3,-0.7627,-0.9164,147.5,97.6,0.495
29.96,31861.7,34649.6,-0.5519,-0.8617,147.5,97.6,0.495
29.98,31797.0,34619.8,-0.8098,-0.935,147.5,97.6,0.495
30.0,31803.4,34606.0,-0.7845,-0.9689,147.5,97.6,0.495
30.02,31757.0,34445.0,-0.9694,-1.3652,147.5,97.6,0.495
30.04,31757.5,34449.7,-0.9674,-1.3537,147.5,97.6,0.495
30.06,31850.5,34677.4,-0.5964,-0.7932,147.5,97.6,0.495
30.08,31962.2,34941.9,-0.1511,-0.142,147.5,97.6,0.495
30.1,32201.4,35277.1,0.8028,0.6831,147.5,97.6,0.495
30.12,32268.8,35551.2,1.0714,1.3579,147.5,97.6,0.495
30.14,32288.2,35706.8,1.1488,1.7407,147.5,97.6,0.495
30.16,32347.0,35642.9,1.3831,1.5834,147.5,97.6,0.495
30.18,32152.4,35514.5,0.6072,1.2675,147.5,97.6,0.495
30.2,32136.9,35287.9,0.5454,0.7096,147.5,97.6,0.495
30.22,32079.7,35197.6,0.3175,0.4875,147.5,97.6,0.495
30.24,32043.3,35121.0,0.1721,0.2989,147.5,97.6,0.495
30.26,32042.3,35050.0,0.1682,0.1239,147.5,97.6,0.495
30.28,31842.6,34944.6,-0.6281,-0.1353,147.5,97.6,0.495
30.3,31889.4,34842.5,-0.4414,-0.3867,147.5,97.6,0.495
30.32,31851.1,34760.8,-0.5941,-0.5879,147.5,97.6,0.495
30.34,31923.7,34726.6,-0.3046,-0.672,147.5,97.6,0.495
30.36,31864.6,34746.3,-0.5404,-0.6235,147.5,97.6,0.495
30.38,31908.4,34695.3,-0.3656,-0.7491,147.5,97.6,0.495
30.4,31865.1,34560.6,-0.5385,-1.0807,147.5,97.6,0.495
30.42,31738.6,34386.9,-1.0427,-1.5082,147.5,97.6,0.495
30.44,31842.6,34420.7,-0.6282,-1.4251,147.5,97.6,0.495
30.46,31769.1,34528.3,-0.9212,-1.1603,147.5,97.6,0.495
30.48,31975.9,34755.7,-0.0964,-0.6005,147.5,97.6,0.495
30.5,32080.1,35132.4,0.3189,0.3268,147.5,97.6,0.495
30.52,32262.0,35508.0,1.0441,1.2514,147.5,97.6,0.495
30.54,32339.1,35684.7,1.3518,1.6864,147.5,97.6,0.495
30.56,32370.1,35764.6,1.4753,1.8831,147.5,97.6,0.495
30.58,32391.7,35430.0,1.5615,1.0593,147.5,97.6,0.495
30.6,32123.5,35442.5,0.4919,1.0902,147.5,97.6,0.495
30.62,32104.6,35208.0,0.4166,0.5131,147.5,97.6,0.495
30.64,32095.2,35028.6,0.379,0.0714,147.5,97.6,0.495
30.66,32069.5,35043.1,0.2767,0.107,147.5,97.6,0.495
30.68,32000.4,34991.7,0.0012,-0.0195,147.5,97.6,0.495
30.7,31950.5,34932.1,-0.1979,-0.1661,147.5,97.6,0.495
30.72,31981.6,34715.5,-0.0739,-0.6995,147.5,97.6,0.495
30.74,31881.0,34711.8,-0.475,-0.7086,147.5,97.6,0.495
30.76,31899.7,34613.9,-0.4003,-0.9494,147.5,97.6,0.495
30.78,31966.4,34661.3,-0.1343,-0.8328,147.5,97.6,0.495
30.8,31728.4,34676.5,-1.0834,-0.7953,147.5,97.6,0.495
30.82,31731.4,34558.8,-1.0714,-1.085,147.5,97.6,0.495
30.84,31753.2,34512.6,-0.9845,-1.1989,147.5,97.6,0.495
30.86,31831.6,34441.4,-0.6719,-1.374,147.5,97.6,0.495
30.88,31936.5,34704.4,-0.2536,-0.7268,147.5,97.6,0.495
30.9,32048.2,35040.1,0.1917,0.0997,147.5,97.6,0.495
30.92,32223.5,35382.8,0.8908,0.9433,147.5,97.6,0.495
30.94,32329.5,35701.6,1.3136,1.728,147.5,97.6,0.495
30.96,32409.3,35796.2,1.6317,1.9607,147.5,97.6,0.495
30.98,32311.5,35684.2,1.2417,1.6852,147.5,97.6,0.495
31.0,32283.2,35452.4,1.1289,1.1146,147.5,97.6,0.495
31.02,32109.3,35266.3,0.4355,0.6565,147.5,97.6,0.495
31.04,32043.7,35171.2,0.1736,0.4223,147.5,97.6,0.495
31.06,32067.7,35135.0,0.2693,0.3331,147.5,97.6,0.495
31.08,32063.2,35045.5,0.2514,0.1129,147.5,97.6,0.495
31.1,32026.1,34892.9,0.1035,-0.2627,147.5,97.6,0.495
31.12,31951.0,34838.2,-0.1957,-0.3972,147.5,97.6,0.495
31.14,31879.0,34704.8,-0.4829,-0.7257,147.5,97.6,0.495
31.16,31826.5,34730.4,-0.6923,-0.6627,147.5,97.6,0.495
31.18,31905.8,34594.5,-0.3761,-0.9972,147.5,97.6,0.495
31.2,31786.6,34586.5,-0.8514,-1.0169,147.5,97.6,0.495
31.22,31869.3,34539.8,-0.5217,-1.1318,147.5,97.6,0.495
31.24,31816.1,34485.0,-0.7337,-1.2667,147.5,97.6,0.495
31.26,31736.5,34416.5,-1.0512,-1.4354,147.5,97.6,0.495
31.28,31769.9,34567.9,-0.9178,-1.0626,147.5,97.6,0.495
31.3,32012.9,35072.6,0.0508,0.1796,147.5,97.6,0.495
31.32,32179.1,35279.8,0.7136,0.6896,147.5,97.6,0.495
31.34,32208.7,35586.3,0.8317,1.444,147.5,97.6,0.495
31.36,32365.7,35762.2,1.4577,1.8771,147.5,97.6,0.495
31.38,32330.3,35767.5,1.3165,1.8902,147.5,97.6,0.495
31.4,32230.6,35472.5,0.9192,1.164,147.5,97.6,0.495
31.42,32138.8,35237.4,0.5531,0.5852,147.5,97.6,0.495
31.44,32137.6,35183.6,0.5482,0.4528,147.5,97.6,0.495
31.46,32096.4,35055.5,0.3841,0.1375,147.5,97.6,0.495
31.48,31964.9,35057.2,-0.1404,0.1416,147.5,97.6,0.495
31.5,32021.0,35019.7,0.0834,0.0495,147.5,97.6,0.495
31.52,31978.5,34829.0,-0.0861,-0.42,147.5,97.6,0.495
31.54,31927.3,34694.1,-0.2905,-0.752,147.5,97.6,0.495
31.56,31924.7,34696.2,-0.3007,-0.747,147.5,97.6,0.495
31.58,31825.8,34611.0,-0.6952,-0.9565,147.5,97.6,0.495
31.6,31865.3,34658.5,-0.5376,-0.8398,147.5,97.6,0.495
31.62,31828.8,34575.1,-0.6831,-1.045,147.5,97.6,0.495
31.64,31746.9,34463.5,-1.0095,-1.3198,147.5,97.6,0.495
31.66,31675.6,34486.3,-1.2938,-1.2636,147.5,97.6,0.495
31.68,31709.0,34486.6,-1.1606,-1.2628,147.5,97.6,0.495
31.7,31881.6,34839.7,-0.4725,-0.3936,147.5,97.6,0.495
31.72,32058.7,35148.2,0.2338,0.3657,147.5,97.6,0.495
31.74,32211.2,35536.2,0.8417,1.3208,147.5,97.6,0.495
31.76,32310.8,35733.6,1.2388,1.8067,147.5,97.6,0.495
31.78,32317.5,35691.5,1.2657,1.7031,147.5,97.6,0.495
31.8,32268.1,35592.9,1.0686,1.4605,147.5,97.6,0.495
31.82,32166.5,35419.5,0.6634,1.0335,147.5,97.6,0.495
31.84,31981.7,35186.0,-0.0736,0.4589,147.5,97.6,0.495
31.86,32039.5,35066.6,0.157,0.165,147.5,97.6,0.495
31.88,32003.3,35111.5,0.0127,0.2754,147.5,97.6,0.495
31.9,32046.1,35016.4,0.1832,0.0413,147.5,97.6,0.495
31.92,31926.8,34884.4,-0.2925,-0.2835,147.5,97.6,0.495
31.94,31879.5,34738.2,-0.4808,-0.6435,147.5,97.6,0.495
31.96,31804.9,34787.2,-0.7786,-0.5228,147.5,97.6,0.495
31.98,31964.8,34743.8,-0.1409,-0.6296,147.5,97.6,0.495
32.0,31848.5,34601.1,-0.6047,-0.9811,147.5,97.6,0.495
32.02,31820.4,34568.9,-0.7165,-1.0603,147.5,97.6,0.495
32.04,31771.2,34560.7,-0.9128,-1.0804,147.5,97.6,0.495
32.06,31683.4,34469.7,-1.2626,-1.3044,147.5,97.6,0.495
32.08,31858.7,34560.8,-0.5638,-1.0802,147.5,97.6,0.495
32.1,31792.6,34706.0,-0.8273,-0.7227,147.5,97.6,0.495
32.12,32017.4,35035.0,0.069,0.0872,147.5,97.6,0.495
32.14,32230.4,35336.5,0.9184,0.8293,147.5,97.6,0.495
32.16,32261.0,35691.6,1.0404,1.7033,147.5,97.6,0.495
32.18,32398.0,35776.0,1.5867,1.9112,147.5,97.6,0.495
32.2,32280.7,35647.1,1.119,1.5938,147.5,97.6,0.495
32.22,32102.8,35453.7,0.4096,1.1177,147.5,97.6,0.495
32.24,32150.4,35148.5,0.5991,0.3666,147.5,97.6,0.495
32.26,32060.6,35174.5,0.2411,0.4304,147.5,97.6,0.495
32.28,32134.3,35093.2,0.5349,0.2304,147.5,97.6,0.495
32.3,31979.2,35015.0,-0.0833,0.0379,147.5,97.6,0.495
32.32,31908.3,35004.4,-0.366,0.0118,147.5,97.6,0.495
32.34,31935.1,34844.2,-0.2591,-0.3825,147.5,97.6,0.495
32.36,31819.5,34675.0,-0.7203,-0.799,147.5,97.6,0.495
32.38,31859.4,34609.7,-0.561,-0.9599,147.5,97.6,0.495
32.4,31805.1,34678.7,-0.7776,-0.79,147.5,97.6,0.495
32.42,31805.9,34630.1,-0.7743,-0.9096,147.5,97.6,0.495
32.44,31801.0,34524.2,-0.7941,-1.1702,147.5,97.6,0.495
32.46,31741.1,34441.8,-1.0329,-1.373,147.5,97.6,0.495
32.48,31792.8,34456.8,-0.8266,-1.3362,147.5,97.6,0.495
32.5,31817.2,34588.4,-0.7293,-1.0123,147.5,97.6,0.495
32.52,31954.5,35000.3,-0.182,0.0018,147.5,97.6,0.495
32.54,32140.7,35313.8,0.5604,0.7734,147.5,97.6,0.495
32.56,32372.7,35678.9,1.4855,1.6722,147.5,97.6,0.495
32.58,32251.1,35798.0,1.0008,1.9654,147.5,97.6,0.495
32.6,32291.2,35681.4,1.1606,1.6784,147.5,97.6,0.495
32.62,32346.0,35496.7,1.3793,1.2237,147.5,97.6,0.495
32.64,32036.4,35323.4,0.1447,0.7969,147.5,97.6,0.495
32.66,32099.9,35255.6,0.3977,0.6301,147.5,97.6,0.495
32.68,31989.0,35176.8,-0.0444,0.436,147.5,97.6,0.495
32.7,31951.9,34968.9,-0.1922,-0.0756,147.5,97.6,0.495
32.72,32015.9,34899.7,0.0628,-0.2461,147.5,97.6,0.495
32.74,31946.5,34876.5,-0.2136,-0.3032,147.5,97.6,0.495
32.76,31911.5,34789.3,-0.3534,-0.5177,147.5,97.6,0.495
32.78,31857.6,34658.8,-0.5682,-0.8389,147.5,97.6,0.495
32.8,31802.4,34654.1,-0.7882,-0.8505,147.5,97.6,0.495
32.82,31879.5,34736.4,-0.4811,-0.648,147.5,97.6,0.495
32.84,31813.6,34578.9,-0.7436,-1.0356,147.5,97.6,0.495
32.86,31838.6,34520.9,-0.6439,-1.1784,147.5,97.6,0.495
32.88,31745.3,34495.1,-1.016,-1.2419,147.5,97.6,0.495
32.9,31764.4,34500.2,-0.9397,-1.2295,147.5,97.6,0.495
32.92,31913.2,34772.2,-0.3466,-0.5598,147.5,97.6,0.495
32.94,32027.5,35232.8,0.1092,0.574,147.5,97.6,0.495
32.96,32273.5,35568.1,1.0903,1.3993,147.5,97.6,0.495
32.98,32293.6,35719.9,1.1704,1.773,147.5,97.6,0.495
33.0,32377.7,35809.4,1.5056,1.9934,147.5,97.6,0.495
33.02,32307.0,35591.1,1.2238,1.4561,147.5,97.6,0.495
33.04,32099.5,35299.7,0.3961,0.7386,147.5,97.6,0.495
33.06,32178.2,35196.3,0.7101,0.4842,147.5,97.6,0.495
33.08,32076.6,35173.0,0.3049,0.4269,147.5,97.6,0.495
33.1,31993.3,35025.2,-0.027,0.063,147.5,97.6,0.495
33.12,31977.7,35034.8,-0.0894,0.0867,147.5,97.6,0.495
33.14,32011.0,34894.6,0.0436,-0.2584,147.5,97.6,0.495
33.16,31833.6,34847.8,-0.6641,-0.3737,147.5,97.6,0.495
33.18,31912.3,34773.9,-0.3499,-0.5557,147.5,97.6,0.495
33.2,31861.9,34711.8,-0.5512,-0.7085,147.5,97.6,0.495
33.22,31890.1,34684.5,-0.4387,-0.7758,147.5,97.6,0.495
33.24,31794.9,34642.0,-0.818,-0.8803,147.5,97.6,0.495
33.26,31800.1,34544.0,-0.7976,-1.1216,147.5,97.6,0.495
33.28,31792.9,34398.6,-0.8261,-1.4794,147.5,97.6,0.495
33.3,31847.3,34452.8,-0.6091,-1.346,147.5,97.6,0.495
33.32,31866.4,34697.5,-0.5332,-0.7436,147.5,97.6,0.495
33.34,31984.4,35033.0,-0.0626,0.0821,147.5,97.6,0.495
33.36,32196.0,35533.3,0.7811,1.3137,147.5,97.6,0.495
33.38,32326.5,35624.0,1.3014,1.5369,147.5,97.6,0.495
33.4,32384.1,35772.6,1.5313,1.9027,147.5,97.6,0.495
33.42,32294.9,35533.3,1.1756,1.3138,147.5,97.6,0.495
33.44,32066.0,35413.3,0.2627,1.0183,147.5,97.6,0.495
33.46,32110.8,35243.5,0.4413,0.6004,147.5,97.6,0.495
33.48,32107.2,35199.6,0.4271,0.4922,147.5,97.6,0.495
33.5,32010.3,35060.4,0.0405,0.1497,147.5,97.6,0.495
33.52,32012.9,35040.5,0.0511,0.1005,147.5,97.6,0.495
33.54,31944.3,34933.8,-0.2226,-0.1619,147.5,97.6,0.495
33.56,31920.5,34831.4,-0.3173,-0.4142,147.5,97.6,0.495
33.58,31884.3,34673.1,-0.462,-0.8038,147.5,97.6,0.495
33.6,31859.5,34671.8,-0.5608,-0.8069,147.5,97.6,0.495
33.62,31813.6,34628.2,-0.7438,-0.9143,147.5,97.6,0.495
33.64,31803.1,34609.9,-0.7855,-0.9593,147.5,97.6,0.495
33.66,31759.2,34491.2,-0.9606,-1.2515,147.5,97.6,0.495
33.68,31796.7,34481.1,-0.8113,-1.2764,147.5,97.6,0.495
33.7,31762.1,34509.7,-0.9489,-1.206,147.5,97.6,0.495
33.72,31776.6,34575.3,-0.8914,-1.0444,147.5,97.6,0.495
33.74,31882.0,34990.6,-0.4708,-0.0222,147.5,97.6,0.495
33.76,32191.4,35389.4,0.7628,0.9596,147.5,97.6,0.495
33.78,32295.2,35644.7,1.1767,1.5879,147.5,97.6,0.495
33.8,32379.3,35728.2,1.5122,1.7935,147.5,97.6,0.495
33.82,32232.2,35736.6,0.9253,1.8142,147.5,97.6,0.495
33.84,32227.2,35477.0,0.9055,1.175,147.5,97.6,0.495
33.86,32239.6,35368.5,0.955,0.9079,147.5,97.6,0.495
33.88,32125.4,35146.3,0.4997,0.3611,147.5,97.6,0.495
33.9,32083.4,35124.3,0.332,0.3069,147.5,97.6,0.495
33.92,31970.9,34956.0,-0.1165,-0.1073,147.5,97.6,0.495
33.94,31987.2,34990.7,-0.0515,-0.0219,147.5,97.6,0.495
33.96,31963.5,34850.4,-0.1459,-0.3673,147.5,97.6,0.495
33.98,31917.6,34782.9,-0.3292,-0.5335,147.5,97.6,0.495
34.0,31771.0,34682.7,-0.9137,-0.78,147.5,97.6,0.495
34.02,31825.8,34705.4,-0.6952,-0.7241,147.5,97.6,0.495
34.04,31818.1,34636.7,-0.7256,-0.8934,147.5,97.6,0.495
34.06,31762.1,34614.4,-0.9491,-0.9481,147.5,97.6,0.495
34.08,31812.7,34566.5,-0.7474,-1.0661,147.5,97.6,0.495
34.1,31738.4,34449.2,-1.0437,-1.3549,147.5,97.6,0.495
34.12,31779.7,34552.2,-0.8787,-1.1013,147.5,97.6,0.495
34.14,31876.4,34745.8,-0.4933,-0.6248,147.5,97.6,0.495
34.16,32154.4,35154.6,0.6152,0.3816,147.5,97.6,0.495
34.18,32276.8,35516.0,1.1032,1.2712,147.5,97.6,0.495
34.2,32297.8,35765.7,1.1872,1.8857,147.5,97.6,0.495
34.22,32289.9,35649.6,1.1556,1.6,147.5,97.6,0.495
34.24,32327.3,35583.6,1.3047,1.4374,147.5,97.6,0.495
34.26,32112.0,35394.1,0.4463,0.9711,147.5,97.6,0.495
34.28,32007.7,35141.2,0.0304,0.3486,147.5,97.6,0.495
34.3,32016.7,35148.0,0.0662,0.3652,147.5,97.6,0.495
34.32,32006.5,35092.8,0.0254,0.2293,147.5,97.6,0.495
34.34,31984.6,35013.7,-0.0617,0.0347,147.5,97.6,0.495
34.36,31915.9,34881.1,-0.3358,-0.2919,147.5,97.6,0.495
34.38,31957.3,34831.1,-0.1707,-0.4148,147.5,97.6,0.495
34.4,31927.4,34700.7,-0.2898,-0.7358,147.5,97.6,0.495
34.42,31854.2,34658.3,-0.5817,-0.8402,147.5,97.6,0.495
34.44,31784.0,34683.9,-0.8617,-0.7772,147.5,97.6,0.495
34.46,31856.8,34640.7,-0.5713,-0.8836,147.5,97.6,0.495
34.48,31841.0,34532.2,-0.6346,-1.1507,147.5,97.6,0.495
34.5,31791.0,34489.2,-0.8339,-1.2565,147.5,97.6,0.495
34.52,31716.1,34481.5,-1.1325,-1.2754,147.5,97.6,0.495
34.54,31752.6,34683.9,-0.9869,-0.7772,147.5,97.6,0.495
34.56,32000.7,35072.5,0.0024,0.1794,147.5,97.6,0.495
34.58,32201.1,35420.2,0.8016,1.0354,147.5,97.6,0.495
34.6,32298.7,35701.7,1.1904,1.7281,147.5,97.6,0.495
34.62,32324.8,35781.8,1.2946,1.9253,147.5,97.6,0.495
34.64,32259.2,35660.2,1.0331,1.626,147.5,97.6,0.495
34.66,32117.0,35512.8,0.4661,1.2631,147.5,97.6,0.495
34.68,32110.1,35182.6,0.4387,0.4505,147.5,97.6,0.495
34.7,32098.6,35121.3,0.3926,0.2996,147.5,97.6,0.495
34.72,32086.7,35075.7,0.3454,0.1874,147.5,97.6,0.495
34.74,32144.0,35041.1,0.5738,0.1022,147.5,97.6,0.495
34.76,31972.9,34987.4,-0.1083,-0.0301,147.5,97.6,0.495
34.78,31976.9,34850.5,-0.0925,-0.367,147.5,97.6,0.495
34.8,31873.5,34724.8,-0.5048,-0.6764,147.5,97.6,0.495
34.82,31838.7,34699.4,-0.6435,-0.7389,147.5,97.6,0.495
34.84,31821.9,34676.1,-0.7104,-0.7964,147.5,97.6,0.495
34.86,31837.4,34673.2,-0.6488,-0.8036,147.5,97.6,0.495
34.88,31793.8,34498.0,-0.8225,-1.2349,147.5,97.6,0.495
34.9,31749.0,34539.8,-1.0014,-1.1318,147.5,97.6,0.495
34.92,31796.1,34399.3,-0.8135,-1.4778,147.5,97.6,0.495
34.94,31842.5,34567.3,-0.6285,-1.0642,147.5,97.6,0.495
34.96,31986.0,34886.6,-0.0565,-0.2783,147.5,97.6,0.495
34.98,32117.5,35306.3,0.4682,0.755,147.5,97.6,0.495
35.0,32301.3,35635.1,1.2011,1.5644,147.5,97.6,0.495
35.02,32374.2,35793.7,1.4918,1.9546,147.5,97.6,0.495
35.04,32272.8,35739.6,1.0875,1.8216,147.5,97.6,0.495
35.06,32266.5,35588.6,1.0623,1.4499,147.5,97.6,0.495
35.08,32175.4,35323.7,0.6988,0.7978,147.5,97.6,0.495
35.1,32057.4,35124.9,0.2286,0.3085,147.5,97.6,0.495
35.12,32024.1,35155.5,0.0958,0.3838,147.5,97.6,0.495
35.14,32055.9,35055.3,0.2226,0.1372,147.5,97.6,0.495
35.16,31954.4,34984.6,-0.1822,-0.0369,147.5,97.6,0.495
35.18,31897.3,34957.2,-0.4099,-0.1045,147.5,97.6,0.495
35.2,31906.7,34712.2,-0.3726,-0.7074,147.5,97.6,0.495
35.22,31872.6,34754.1,-0.5083,-0.6043,147.5,97.6,0.495
35.24,31891.6,34695.7,-0.4325,-0.7482,147.5,97.6,0.495
35.26,31927.5,34681.2,-0.2894,-0.7837,147.5,97.6,0.495
35.28,31791.6,34577.3,-0.8314,-1.0395,147.5,97.6,0.495
35.3,31673.4,34546.6,-1.3027,-1.1151,147.5,97.6,0.495
35.32,31707.7,34404.5,-1.1659,-1.465,147.5,97.6,0.495
35.34,31787.3,34643.7,-0.8484,-0.876,147.5,97.6,0.495
35.36,31934.8,34820.1,-0.2604,-0.442,147.5,97.6,0.495
35.38,32117.7,35223.7,0.4688,0.5517,147.5,97.6,0.495
35.4,32307.2,35507.5,1.2245,1.2502,147.5,97.6,0.495
35.42,32210.0,35702.5,0.8368,1.7301,147.5,97.6,0.495
35.44,32418.9,35731.5,1.6697,1.8017,147.5,97.6,0.495
35.46,32350.6,35499.4,1.3977,1.2303,147.5,97.6,0.495
35.48,32205.6,35384.8,0.8193,0.9481,147.5,97.6,0.495
35.5,32092.9,35190.3,0.3701,0.4694,147.5,97.6,0.495
35.52,32024.3,35185.3,0.0964,0.4571,147.5,97.6,0.495
35.54,32015.3,34972.4,0.0606,-0.067,147.5,97.6,0.495
35.56,32019.5,35087.0,0.0775,0.215,147.5,97.6,0.495
35.58,31981.6,35022.3,-0.0737,0.0559,147.5,97.6,0.495
35.6,31870.8,34732.3,-0.5157,-0.658,147.5,97.6,0.495
35.62,31949.1,34784.7,-0.2035,-0.5291,147.5,97.6,0.495
35.64,31759.6,34668.6,-0.9591,-0.8149,147.5,97.6,0.495
35.66,31786.0,34673.2,-0.8537,-0.8035,147.5,97.6,0.495
35.68,31782.3,34617.2,-0.8684,-0.9413,147.5,97.6,0.495
35.7,31771.8,34517.0,-0.9104,-1.188,147.5,97.6,0.495
35.72,31786.2,34492.7,-0.8529,-1.2477,147.5,97.6,0.495
35.74,31615.2,34435.2,-1.5348,-1.3895,147.5,97.6,0.495
35.76,31872.6,34653.4,-0.5085,-0.8522,147.5,97.6,0.495
35.78,31968.0,35063.3,-0.1279,0.1569,147.5,97.6,0.495
35.8,32196.0,35396.8,0.7811,0.9776,147.5,97.6,0.495
35.82,32294.5,35762.6,1.1737,1.878,147.5,97.6,0.495
35.84,32382.7,35730.4,1.5254,1.7989,147.5,97.6,0.495
35.86,32235.2,35635.1,0.9374,1.5644,147.5,97.6,0.495
35.88,32133.0,35515.3,0.5299,1.2694,147.5,97.6,0.495
35.9,32112.6,35276.8,0.4484,0.6822,147.5,97.6,0.495
35.92,32044.6,35177.4,0.1773,0.4376,147.5,97.6,0.495
35.94,32120.7,35081.3,0.4809,0.201,147.5,97.6,0.495
35.96,32051.5,35112.2,0.205,0.2772,147.5,97.6,0.495
35.98,32006.1,35065.2,0.0239,0.1614,147.5,97.6,0.495
36.0,31888.3,34844.9,-0.4458,-0.3808,147.5,97.6,0.495
36.02,31835.8,34733.2,-0.6552,-0.6559,147.5,97.6,0.495
36.04,31999.9,34709.8,-0.0008,-0.7133,147.5,97.6,0.495
36.06,31851.3,34784.1,-0.5932,-0.5306,147.5,97.6,0.495
36.08,31902.3,34555.6,-0.3901,-1.093,147.5,97.6,0.495
36.1,31758.7,34490.2,-0.9627,-1.2541,147.5,97.6,0.495
36.12,31773.5,34463.1,-0.9035,-1.3207,147.5,97.6,0.495
36.14,31798.4,34508.8,-0.8041,-1.2082,147.5,97.6,0.495
36.16,31848.5,34601.3,-0.6045,-0.9805,147.5,97.6,0.495
36.18,31934.0,34921.4,-0.2636,-0.1926,147.5,97.6,0.495
36.2,32164.1,35323.9,0.654,0.7983,147.5,97.6,0.495
36.22,32278.6,35649.2,1.1106,1.599,147.5,97.6,0.495
36.24,32358.3,35843.6,1.4283,2.0775,147.5,97.6,0.495
36.26,32260.0,35714.6,1.0362,1.76,147.5,97.6,0.495
36.28,32276.4,35565.8,1.1018,1.3936,147.5,97.6,0.495
36.3,32063.1,35358.5,0.2512,0.8833,147.5,97.6,0.495
36.32,32040.3,35187.8,0.1603,0.4633,147.5,97.6,0.495
36.34,32060.8,35041.5,0.2422,0.103,147.5,97.6,0.495
36.36,32095.8,35052.2,0.3817,0.1294,147.5,97.6,0.495
36.38,32040.0,34938.1,0.1592,-0.1514,147.5,97.6,0.495
36.4,31972.1,34908.5,-0.1119,-0.2244,147.5,97.6,0.495
36.42,31854.3,34776.7,-0.5813,-0.5487,147.5,97.6,0.495
36.44,31882.0,34692.7,-0.4711,-0.7555,147.5,97.6,0.495
36.46,31846.7,34686.5,-0.6118,-0.7708,147.5,97.6,0.495
36.48,31822.4,34698.3,-0.7085,-0.7418,147.5,97.6,0.495
36.5,31783.5,34645.4,-0.8639,-0.872,147.5,97.6,0.495
36.52,31773.4,34545.7,-0.904,-1.1173,147.5,97.6,0.495
36.54,31704.3,34574.7,-1.1796,-1.046,147.5,97.6,0.495
36.56,31891.8,34549.4,-0.432,-1.1083,147.5,97.6,0.495
36.58,31916.9,34740.9,-0.3319,-0.6367,147.5,97.6,0.495
36.6,32055.2,35172.4,0.2197,0.4254,147.5,97.6,0.495
36.62,32335.7,35513.2,1.3381,1.2642,147.5,97.6,0.495
36.64,32424.1,35803.5,1.6907,1.9787,147.5,97.6,0.495
36.66,32373.1,35790.5,1.4873,1.9467,147.5,97.6,0.495
36.68,32305.0,35616.0,1.2158,1.5172,147.5,97.6,0.495
36.7,32102.8,35333.4,0.4095,0.8217,147.5,97.6,0.495
36.72,32040.3,35263.2,0.1602,0.6488,147.5,97.6,0.495
36.74,32069.5,35029.2,0.2766,0.0729,147.5,97.6,0.495
36.76,32014.8,35044.4,0.0586,0.1101,147.5,97.6,0.495
36.78,31965.0,35099.4,-0.1399,0.2455,147.5,97.6,0.495
36.8,31913.4,34844.9,-0.3458,-0.3808,147.5,97.6,0.495
36.82,31881.6,34822.8,-0.4725,-0.4352,147.5,97.6,0.495
36.84,31822.9,34707.5,-0.7066,-0.7191,147.5,97.6,0.495
36.86,31874.6,34729.8,-0.5003,-0.6641,147.5,97.6,0.495
36.88,31895.5,34684.3,-0.4171,-0.7762,147.5,97.6,0.495
36.9,31788.4,34595.3,-0.8443,-0.9952,147.5,97.6,0.495
36.92,31715.4,34490.5,-1.1352,-1.2533,147.5,97.6,0.495
36.94,31666.5,34574.9,-1.3301,-1.0454,147.5,97.6,0.495
36.96,31637.9,34566.2,-1.4444,-1.0669,147.5,97.6,0.495
36.98,31846.9,34621.8,-0.6109,-0.93,147.5,97.6,0.495
37.0,32061.1,35109.4,0.2432,0.2702,147.5,97.6,0.495
37.02,32226.8,35379.8,0.904,0.9358,147.5,97.6,0.495
37.04,32274.3,35687.3,1.0934,1.6927,147.5,97.6,0.495
37.06,32237.6,35733.2,0.9472,1.8057,147.5,97.6,0.495
37.08,32308.4,35596.9,1.2292,1.4702,147.5,97.6,0.495
37.1,32147.9,35481.8,0.5893,1.1868,147.5,97.6,0.495
37.12,32151.2,35391.0,0.6023,0.9634,147.5,97.6,0.495
37.14,32122.2,35119.1,0.4868,0.2941,147.5,97.6,0.495
37.16,32011.2,35031.1,0.0443,0.0774,147.5,97.6,0.495
37.18,32041.3,35077.5,0.1642,0.1917,147.5,97.6,0.495
37.2,32066.9,34978.3,0.2663,-0.0526,147.5,97.6,0.495
37.22,31872.1,34806.1,-0.5104,-0.4763,147.5,97.6,0.495
37.24,31865.5,34724.9,-0.5367,-0.6763,147.5,97.6,0.495
37.26,31927.7,34638.0,-0.2887,-0.8901,147.5,97.6,0.495
37.28,31840.0,34721.5,-0.6383,-0.6845,147.5,97.6,0.495
37.3,31831.2,34571.0,-0.6737,-1.0551,147.5,97.6,0.495
37.32,31825.6,34646.0,-0.6959,-0.8705,147.5,97.6,0.495
37.34,31745.6,34502.0,-1.0149,-1.2249,147.5,97.6,0.495
37.36,31831.0,34488.5,-0.6744,-1.2583,147.5,97.6,0.495
37.38,31872.2,34675.5,-0.5098,-0.7979,147.5,97.6,0.495
37.4,31920.8,34958.3,-0.3162,-0.1017,147.5,97.6,0.495
37.42,32084.8,35220.0,0.3378,0.5424,147.5,97.6,0.495
37.44,32295.0,35626.6,1.176,1.5434,147.5,97.6,0.495
37.46,32347.4,35834.1,1.3848,2.054,147.5,97.6,0.495
37.48,32334.6,35664.0,1.3336,1.6354,147.5,97.6,0.495
37.5,32178.4,35546.2,0.7108,1.3454,147.5,97.6,0.495
37.52,32096.2,35299.7,0.3832,0.7387,147.5,97.6,0.495
37.54,32035.1,35158.7,0.1397,0.3915,147.5,97.6,0.495
37.56,31984.1,35075.9,-0.0637,0.1878,147.5,97.6,0.495
37.58,31981.2,35083.1,-0.0752,0.2056,147.5,97.6,0.495
37.6,31909.6,34900.0,-0.3608,-0.2452,147.5,97.6,0.495
37.62,31949.5,34833.7,-0.2019,-0.4083,147.5,97.6,0.495
37.64,31847.1,34708.5,-0.6103,-0.7166,147.5,97.6,0.495
37.66,31885.7,34659.5,-0.4564,-0.8373,147.5,97.6,0.495
37.68,31854.3,34732.0,-0.5814,-0.6588,147.5,97.6,0.495
37.7,31851.7,34666.0,-0.5916,-0.8212,147.5,97.6,0.495
37.72,31810.0,34605.3,-0.7579,-0.9706,147.5,97.6,0.495
37.74,31755.1,34521.0,-0.977,-1.1781,147.5,97.6,0.495
37.76,31703.4,34458.3,-1.1831,-1.3326,147.5,97.6,0.495
37.78,31789.6,34547.2,-0.8395,-1.1137,147.5,97.6,0.495
37.8,31945.2,34738.8,-0.219,-0.642,147.5,97.6,0.495
37.82,32005.1,35264.5,0.02,0.6521,147.5,97.6,0.495
37.84,32294.1,35529.1,1.1724,1.3033,147.5,97.6,0.495
37.86,32281.3,35793.0,1.1212,1.953,147.5,97.6,0.495
37.88,32339.7,35627.3,1.3542,1.5452,147.5,97.6,0.495
37.9,32308.6,35585.7,1.23,1.4426,147.5,97.6,0.495
37.92,32094.0,35409.4,0.3743,1.0086,147.5,97.6,0.495
37.94,32113.3,35221.6,0.4512,0.5465,147.5,97.6,0.495
37.96,32057.2,35081.3,0.2276,0.2011,147.5,97.6,0.495
37.98,31975.6,35122.5,-0.0978,0.3025,147.5,97.6,0.495
38.0,32037.1,35015.0,0.1474,0.0379,147.5,97.6,0.495
38.02,32011.8,34818.5,0.0465,-0.4458,147.5,97.6,0.495
38.04,31951.1,34733.2,-0.1952,-0.6558,147.5,97.6,0.495
38.06,31896.7,34687.4,-0.4125,-0.7685,147.5,97.6,0.495
38.08,31825.8,34671.7,-0.6952,-0.8072,147.5,97.6,0.495
38.1,31880.6,34669.4,-0.4764,-0.8128,147.5,97.6,0.495
38.12,31789.4,34643.3,-0.8401,-0.8772,147.5,97.6,0.495
38.14,31729.8,34449.9,-1.0776,-1.3531,147.5,97.6,0.495
38.16,31834.1,34440.5,-0.6621,-1.3764,147.5,97.6,0.495
38.18,31775.0,34521.7,-0.8974,-1.1765,147.5,97.6,0.495
38.2,31844.9,34706.4,-0.619,-0.7217,147.5,97.6,0.495
38.22,32076.8,35039.0,0.3059,0.097,147.5,97.6,0.495
38.24,32067.1,35475.4,0.2671,1.1712,147.5,97.6,0.495
38.26,32288.5,35698.5,1.1498,1.7203,147.5,97.6,0.495
38.28,32416.6,35752.5,1.6606,1.8532,147.5,97.6,0.495
38.3,32308.8,35677.4,1.231,1.6684,147.5,97.6,0.495
38.32,32203.7,35421.4,0.8117,1.0383,147.5,97.6,0.495
38.34,32161.9,35290.0,0.645,0.7148,147.5,97.6,0.495
38.36,32038.3,35117.0,0.1523,0.2889,147.5,97.6,0.495
38.38,31955.0,35109.1,-0.18,0.2696,147.5,97.6,0.495
38.4,32041.9,35071.6,0.1665,0.1771,147.5,97.6,0.495
38.42,31980.1,34991.8,-0.0796,-0.0192,147.5,97.6,0.495
38.44,31920.1,34772.7,-0.3189,-0.5587,147.5,97.6,0.495
38.46,31925.5,34703.9,-0.2977,-0.7279,147.5,97.6,0.495
38.48,31868.1,34626.5,-0.5263,-0.9183,147.5,97.6,0.495
38.5,31854.3,34654.1,-0.5816,-0.8505,147.5,97.6,0.495
38.52,31850.9,34624.9,-0.5949,-0.9224,147.5,97.6,0.495
38.54,31824.0,34454.0,-0.7021,-1.3431,147.5,97.6,0.495
38.56,31740.2,34507.1,-1.0365,-1.2123,147.5,97.6,0.495
38.58,31744.4,34514.6,-1.0197,-1.1938,147.5,97.6,0.495
38.6,31851.2,34502.1,-0.5937,-1.2246,147.5,97.6,0.495
38.62,32015.5,34967.1,0.0614,-0.08,147.5,97.6,0.495
38.64,32165.4,35300.6,0.6589,0.7408,147.5,97.6,0.495
38.66,32402.7,35612.3,1.6051,1.5081,147.5,97.6,0.495
38.68,32335.6,35692.9,1.3378,1.7067,147.5,97.6,0.495
38.7,32372.8,35641.5,1.4862,1.5801,147.5,97.6,0.495
38.72,32203.5,35542.3,0.8108,1.3359,147.5,97.6,0.495
38.74,32067.2,35346.6,0.2676,0.8542,147.5,97.6,0.495
38.76,32054.8,35199.3,0.2181,0.4916,147.5,97.6,0.495
38.78,31992.5,35137.6,-0.0303,0.3396,147.5,97.6,0.495
38.8,32063.3,35101.7,0.252,0.2514,147.5,97.6,0.495
38.82,31973.6,34970.4,-0.1058,-0.0719,147.5,97.6,0.495
38.84,32057.8,34859.3,0.23,-0.3454,147.5,97.6,0.495
38.86,31831.0,34812.0,-0.6744,-0.4619,147.5,97.6,0.495
38.88,31947.4,34738.4,-0.2102,-0.6431,147.5,97.6,0.495
38.9,31864.5,34745.3,-0.5406,-0.6261,147.5,97.6,0.495
38.92,31814.0,34537.4,-0.742,-1.1378,147.5,97.6,0.495
38.94,31814.1,34628.9,-0.7419,-0.9127,147.5,97.6,0.495
38.96,31776.4,34504.6,-0.8919,-1.2186,147.5,97.6,0.495
38.98,31750.4,34461.7,-0.9958,-1.3242,147.5,97.6,0.495
39.0,31799.2,34516.8,-0.8011,-1.1885,147.5,97.6,0.495
39.02,31896.8,34863.2,-0.4118,-0.3357,147.5,97.6,0.495
39.04,32041.5,35146.2,0.1649,0.3608,147.5,97.6,0.495
39.06,32347.1,35559.5,1.3837,1.3781,147.5,97.6,0.495
39.08,32321.3,35669.8,1.2807,1.6498,147.5,97.6,0.495
39.1,32310.8,35824.5,1.2388,2.0305,147.5,97.6,0.495
39.12,32390.7,35663.9,1.5575,1.6351,147.5,97.6,0.495
39.14,32124.8,35311.5,0.497,0.7678,147.5,97.6,0.495
39.16,32186.3,35140.9,0.7424,0.3477,147.5,97.6,0.495
39.18,31929.2,35101.9,-0.2826,0.2519,147.5,97.6,0.495
39.2,32001.6,35071.0,0.0058,0.1758,147.5,97.6,0.495
39.22,31953.5,34971.8,-0.1859,-0.0685,147.5,97.6,0.495
39.24,31952.8,34965.7,-0.1886,-0.0835,147.5,97.6,0.495
39.26,31804.8,34822.2,-0.7787,-0.4367,147.5,97.6,0.495
39.28,31796.1,34751.8,-0.8136,-0.61,147.5,97.6,0.495
39.3,31803.8,34741.4,-0.7829,-0.6356,147.5,97.6,0.495
39.32,31807.4,34677.6,-0.7684,-0.7926,147.5,97.6,0.495
39.34,31842.9,34650.1,-0.6267,-0.8603,147.5,97.6,0.495
39.36,31760.8,34437.7,-0.9544,-1.3833,147.5,97.6,0.495
39.38,31714.3,34430.7,-1.1396,-1.4005,147.5,97.6,0.495
39.4,31787.7,34432.9,-0.847,-1.395,147.5,97.6,0.495
39.42,31868.7,34714.8,-0.524,-0.7012,147.5,97.6,0.495
39.44,31996.0,34963.8,-0.0166,-0.0883,147.5,97.6,0.495
39.46,32177.1,35423.9,0.7057,1.0443,147.5,97.6,0.495
39.48,32303.0,35666.1,1.2077,1.6406,147.5,97.6,0.495
39.5,32433.3,35835.5,1.7273,2.0577,147.5,97.6,0.495
39.52,32266.1,35610.7,1.0607,1.5041,147.5,97.6,0.495
39.54,32113.9,35495.9,0.4538,1.2216,147.5,97.6,0.495
39.56,32100.4,35241.2,0.3998,0.5947,147.5,97.6,0.495
39.58,32057.5,35228.3,0.2287,0.5629,147.5,97.6,0.495
39.6,32099.7,35044.8,0.397,0.1113,147.5,97.6,0.495
39.62,31993.6,35157.2,-0.0258,0.3879,147.5,97.6,0.495
39.64,31953.4,34970.3,-0.1861,-0.0721,147.5,97.6,0.495
39.66,31988.4,34919.7,-0.0469,-0.1967,147.5,97.6,0.495
39.68,31787.2,34757.2,-0.8491,-0.5968,147.5,97.6,0.495
39.7,31928.3,34586.9,-0.2864,-1.016,147.5,97.6,0.495
39.72,31848.0,34670.6,-0.6064,-0.8099,147.5,97.6,0.495
39.74,31844.3,34630.3,-0.6212,-0.9092,147.5,97.6,0.495
39.76,31799.9,34572.1,-0.7982,-1.0524,147.5,97.6,0.495
39.78,31757.9,34483.8,-0.9658,-1.2696,147.5,97.6,0.495
39.8,31730.3,34379.0,-1.0758,-1.5276,147.5,97.6,0.495
39.82,31801.9,34609.8,-0.7903,-0.9596,147.5,97.6,0.495
39.84,31942.5,34988.8,-0.2296,-0.0266,147.5,97.6,0.495
39.86,32075.6,35339.0,0.3011,0.8355,147.5,97.6,0.495
39.88,32321.6,35535.3,1.282,1.3187,147.5,97.6,0.495
39.9,32286.0,35756.1,1.1401,1.8621,147.5,97.6,0.495
39.92,32330.9,35754.5,1.319,1.8582,147.5,97.6,0.495
39.94,32205.1,35495.2,0.8175,1.22,147.5,97.6,0.495
39.96,32170.3,35236.5,0.6785,0.5831,147.5,97.6,0.495
39.98,32019.3,35144.0,0.0763,0.3553,147.5,97.6,0.495
40.0,32078.1,35109.9,0.311,0.2716,147.5,97.6,0.495
40.02,32115.6,34966.0,0.4606,-0.0828,147.5,97.6,0.495
40.04,32047.1,35070.3,0.1875,0.174,147.5,97.6,0.495
40.06,31917.8,34831.1,-0.328,-0.4149,147.5,97.6,0.495
40.08,31789.1,34772.3,-0.8413,-0.5597,147.5,97.6,0.495
40.1,31940.7,34689.6,-0.237,-0.7632,147.5,97.6,0.495
40.12,31828.1,34730.5,-0.6857,-0.6624,147.5,97.6,0.495
40.14,31898.9,34767.8,-0.4035,-0.5708,147.5,97.6,0.495
40.16,31753.8,34473.8,-0.9823,-1.2944,147.5,97.6,0.495
40.18,31832.7,34507.5,-0.6677,-1.2114,147.5,97.6,0.495
40.2,31785.4,34438.9,-0.8561,-1.3803,147.5,97.6,0.495
40.22,31749.3,34608.7,-1.0003,-0.9622,147.5,97.6,0.495
40.24,31915.9,34860.1,-0.336,-0.3434,147.5,97.6,0.495
40.26,32073.5,35123.8,0.2928,0.3056,147.5,97.6,0.495
40.28,32155.7,35508.5,0.6203,1.2527,147.5,97.6,0.495
40.3,32369.2,35781.9,1.4719,1.9256,147.5,97.6,0.495
40.32,32340.8,35673.1,1.3586,1.6579,147.5,97.6,0.495
40.34,32256.9,35661.7,1.0241,1.6298,147.5,97.6,0.495
40.36,32222.4,35419.5,0.8864,1.0336,147.5,97.6,0.495
40.38,32044.6,35216.7,0.1773,0.5344,147.5,97.6,0.495
40.4,32098.0,35059.2,0.3902,0.1466,147.5,97.6,0.495
40.42,32089.7,35027.6,0.3573,0.0688,147.5,97.6,0.495
40.44,31989.3,35002.3,-0.043,0.0065,147.5,97.6,0.495
40.46,31982.7,34869.7,-0.0695,-0.3198,147.5,97.6,0.495
40.48,31987.3,34772.8,-0.0511,-0.5584,147.5,97.6,0.495
40.5,31800.9,34755.3,-0.7941,-0.6015,147.5,97.6,0.495
40.52,31836.0,34697.7,-0.6543,-0.7432,147.5,97.6,0.495
40.54,31850.3,34605.9,-0.5975,-0.9691,147.5,97.6,0.495
40.56,31806.0,34608.1,-0.7738,-0.9638,147.5,97.6,0.495
40.58,31879.3,34593.7,-0.4816,-0.9993,147.5,97.6,0.495
40.6,31682.5,34448.8,-1.2666,-1.356,147.5,97.6,0.495
40.62,31703.3,34490.9,-1.1836,-1.2523,147.5,97.6,0.495
40.64,31795.6,34787.0,-0.8155,-0.5233,147.5,97.6,0.495
40.66,32024.0,34992.9,0.0952,-0.0165,147.5,97.6,0.495
40.68,32103.9,35444.8,0.414,1.0959,147.5,97.6,0.495
40.7,32387.1,35722.7,1.543,1.78,147.5,97.6,0.495
40.72,32365.2,35707.2,1.4559,1.7418,147.5,97.6,0.495
40.74,32318.5,35621.4,1.2696,1.5306,147.5,97.6,0.495
40.76,32233.7,35423.9,0.9312,1.0443,147.5,97.6,0.495
40.78,32150.8,35298.2,0.6007,0.7351,147.5,97.6,0.495
40.8,32124.0,35099.7,0.4939,0.2463,147.5,97.6,0.495
40.82,32042.0,35095.5,0.1671,0.2361,147.5,97.6,0.495
40.84,32032.8,35028.9,0.1304,0.0722,147.5,97.6,0.495
40.86,31935.6,34961.4,-0.2571,-0.0941,147.5,97.6,0.495
40.88,31908.6,34870.1,-0.3651,-0.3188,147.5,97.6,0.495
40.9,31804.9,34715.6,-0.7782,-0.699,147.5,97.6,0.495
40.92,31874.5,34664.7,-0.5008,-0.8245,147.5,97.6,0.495
40.94,31729.2,34699.4,-1.0801,-0.739,147.5,97.6,0.495
40.96,31883.9,34592.6,-0.4632,-1.0019,147.5,97.6,0.495
40.98,31872.1,34597.7,-0.5104,-0.9894,147.5,97.6,0.495
41.0,31778.6,34494.6,-0.8834,-1.2432,147.5,97.6,0.495
41.02,31697.1,34461.1,-1.2081,-1.3256,147.5,97.6,0.495
41.04,31800.1,34658.9,-0.7976,-0.8388,147.5,97.6,0.495
41.06,31995.1,34940.1,-0.0202,-0.1465,147.5,97.6,0.495
41.08,32088.5,35254.3,0.3523,0.6268,147.5,97.6,0.495
41.1,32273.8,35659.3,1.0911,1.6238,147.5,97.6,0.495
41.12,32307.8,35774.7,1.227,1.908,147.5,97.6,0.495
41.14,32352.7,35640.0,1.406,1.5764,147.5,97.6,0.495
41.16,32241.6,35558.5,0.9629,1.3756,147.5,97.6,0.495
41.18,32195.4,35258.2,0.7787,0.6364,147.5,97.6,0.495
41.2,32062.5,35245.5,0.2487,0.6051,147.5,97.6,0.495
41.22,32066.2,35136.0,0.2636,0.3356,147.5,97.6,0.495
41.24,32010.4,35020.5,0.041,0.0514,147.5,97.6,0.495
41.26,32037.2,34854.4,0.1478,-0.3576,147.5,97.6,0.495
41.28,31948.0,34877.9,-0.2079,-0.2995,147.5,97.6,0.495
41.3,31883.4,34757.9,-0.4655,-0.5951,147.5,97.6,0.495
41.32,31833.4,34664.4,-0.6645,-0.8251,147.5,97.6,0.495
41.34,31891.2,34637.1,-0.4341,-0.8924,147.5,97.6,0.495
41.36,31890.4,34692.0,-0.4376,-0.7571,147.5,97.6,0.495
41.38,31774.7,34618.5,-0.8988,-0.9382,147.5,97.6,0.495
41.4,31726.3,34435.6,-1.0918,-1.3885,147.5,97.6,0.495
41.42,31802.2,34416.7,-0.7891,-1.4348,147.5,97.6,0.495
41.44,31821.7,34490.5,-0.7115,-1.2532,147.5,97.6,0.495
41.46,31973.9,34854.1,-0.1047,-0.3581,147.5,97.6,0.495
41.48,32007.5,35232.9,0.0293,0.5742,147.5,97.6,0.495
41.5,32330.3,35522.1,1.3164,1.2862,147.5,97.6,0.495
41.52,32357.0,35774.1,1.4231,1.9065,147.5,97.6,0.495
41.54,32363.1,35769.0,1.4473,1.894,147.5,97.6,0.495
41.56,32364.1,35585.0,1.4512,1.4409,147.5,97.6,0.495
41.58,32282.9,35463.6,1.1276,1.1421,147.5,97.6,0.495
41.6,32143.7,35154.4,0.5724,0.3811,147.5,97.6,0.495
41.62,32098.5,35034.3,0.3923,0.0855,147.5,97.6,0.495
41.64,32044.0,35031.1,0.1751,0.0776,147.5,97.6,0.495
41.66,31991.5,34984.9,-0.0343,-0.0362,147.5,97.6,0.495
41.68,31922.1,34885.9,-0.311,-0.28,147.5,97.6,0.495
41.7,31825.8,34709.9,-0.6949,-0.7132,147.5,97.6,0.495
41.72,31852.4,34697.6,-0.5891,-0.7435,147.5,97.6,0.495
41.74,31874.9,34679.2,-0.4994,-0.7887,147.5,97.6,0.495
41.76,31855.7,34628.0,-0.5757,-0.9148,147.5,97.6,0.495
41.78,31849.8,34604.4,-0.5992,-0.9728,147.5,97.6,0.495
41.8,31794.2,34466.1,-0.8211,-1.3133,147.5,97.6,0.495
41.82,31746.9,34450.8,-1.0097,-1.3509,147.5,97.6,0.495
41.84,31751.6,34454.0,-0.9908,-1.3431,147.5,97.6,0.495
41.86,31833.3,34665.8,-0.6651,-0.8218,147.5,97.6,0.495
41.88,32089.2,35014.0,0.3553,0.0355,147.5,97.6,0.495
41.9,32143.3,35377.2,0.5711,0.9296,147.5,97.6,0.495
41.92,32282.5,35698.2,1.1258,1.7195,147.5,97.6,0.495
41.94,32354.4,35688.9,1.4128,1.6968,147.5,97.6,0.495
41.96,32255.9,35601.1,1.0199,1.4807,147.5,97.6,0.495
41.98,32205.4,35500.8,0.8184,1.2336,147.5,97.6,0.495
42.0,32093.5,35220.8,0.3722,0.5446,147.5,97.6,0.495
42.02,31982.1,35221.1,-0.0719,0.5453,147.5,97.6,0.495
42.04,32045.3,35091.8,0.1803,0.2268,147.5,97.6,0.495
42.06,32072.2,35095.4,0.2875,0.2357,147.5,97.6,0.495
42.08,31926.8,34899.1,-0.2923,-0.2473,147.5,97.6,0.495
42.1,31793.5,34809.7,-0.824,-0.4675,147.5,97.6,0.495
42.12,31839.9,34786.4,-0.6387,-0.5247,147.5,97.6,0.495
42.14,31911.8,34757.3,-0.352,-0.5966,147.5,97.6,0.495
42.16,31882.0,34710.3,-0.4708,-0.7121,147.5,97.6,0.495
42.18,31809.6,34588.7,-0.7598,-1.0115,147.5,97.6,0.495
42.2,31846.5,34538.5,-0.6124,-1.1351,147.5,97.6,0.495
42.22,31758.1,34512.6,-0.9651,-1.1989,147.5,97.6,0.495
42.24,31713.8,34484.2,-1.1416,-1.2688,147.5,97.6,0.495
42.26,31897.8,34526.3,-0.4079,-1.1651,147.5,97.6,0.495
42.28,31972.4,34989.1,-0.1105,-0.0258,147.5,97.6,0.495
42.3,32173.8,35387.5,0.6927,0.9548,147.5,97.6,0.495
42.32,32178.5,35625.0,0.7112,1.5395,147.5,97.6,0.495
42.34,32366.6,35749.3,1.4613,1.8454,147.5,97.6,0.495
42.36,32345.1,35669.1,1.3754,1.6479,147.5,97.6,0.495
42.38,32252.6,35471.6,1.0069,1.1618,147.5,97.6,0.495
42.4,32134.5,35272.0,0.536,0.6706,147.5,97.6,0.495
42.42,32036.1,35284.5,0.1435,0.7014,147.5,97.6,0.495
42.44,31958.6,35159.3,-0.1656,0.393,147.5,97.6,0.495
42.46,32056.2,35052.9,0.2237,0.1312,147.5,97.6,0.495
42.48,32031.8,35010.8,0.1263,0.0276,147.5,97.6,0.495
42.5,31974.7,34799.6,-0.1014,-0.4925,147.5,97.6,0.495
42.52,31929.6,34810.1,-0.2813,-0.4664,147.5,97.6,0.495
42.54,31885.6,34640.9,-0.4564,-0.8829,147.5,97.6,0.495
42.56,31863.2,34705.0,-0.5461,-0.7253,147.5,97.6,0.495
42.58,31860.6,34641.4,-0.5564,-0.8817,147.5,97.6,0.495
42.6,31806.1,34518.4,-0.7735,-1.1846,147.5,97.6,0.495
42.62,31804.2,34448.1,-0.7811,-1.3576,147.5,97.6,0.495
42.64,31783.9,34433.8,-0.862,-1.3928,147.5,97.6,0.495
42.66,31846.0,34534.3,-0.6145,-1.1453,147.5,97.6,0.495
42.68,31919.6,34868.3,-0.3208,-0.3233,147.5,97.6,0.495
42.7,32095.8,35184.2,0.3816,0.4544,147.5,97.6,0.495
42.72,32200.1,35540.6,0.7974,1.3316,147.5,97.6,0.495
42.74,32241.3,35742.8,0.9618,1.8294,147.5,97.6,0.495
42.76,32318.5,35731.2,1.2693,1.801,147.5,97.6,0.495
42.78,32176.4,35506.6,0.7031,1.2479,147.5,97.6,0.495
42.8,32153.2,35383.9,0.6104,0.946,147.5,97.6,0.495
42.82,32046.9,35148.5,0.1866,0.3666,147.5,97.6,0.495
42.84,31996.9,35169.3,-0.0128,0.4176,147.5,97.6,0.495
42.86,32025.8,35047.6,0.1025,0.1181,147.5,97.6,0.495
42.88,32026.6,34951.0,0.1055,-0.1197,147.5,97.6,0.495
42.9,31977.1,34850.8,-0.0919,-0.3664,147.5,97.6,0.495
42.92,31865.2,34769.6,-0.5381,-0.5662,147.5,97.6,0.495
42.94,31889.7,34685.9,-0.4404,-0.7723,147.5,97.6,0.495
42.96,31788.0,34777.1,-0.8456,-0.5476,147.5,97.6,0.495
42.98,31872.7,34687.7,-0.5082,-0.7678,147.5,97.6,0.495
43.0,31828.0,34594.8,-0.6862,-0.9966,147.5,97.6,0.495
43.02,31798.6,34491.4,-0.8035,-1.2511,147.5,97.6,0.495
43.04,31674.0,34507.5,-1.3003,-1.2114,147.5,97.6,0.495
43.06,31783.5,34484.8,-0.8635,-1.2672,147.5,97.6,0.495
43.08,31873.6,34624.4,-0.5046,-0.9235,147.5,97.6,0.495
43.1,32024.3,35185.3,0.0965,0.457,147.5,97.6,0.495
43.12,32208.2,35391.6,0.8296,0.9648,147.5,97.6,0.495
43.14,32323.1,35697.7,1.2879,1.7183,147.5,97.6,0.495
43.16,32256.9,35782.3,1.0241,1.9265,147.5,97.6,0.495
43.18,32289.3,35691.9,1.153,1.704,147.5,97.6,0.495
43.2,32288.1,35478.0,1.1482,1.1775,147.5,97.6,0.495
43.22,32061.5,35240.8,0.2448,0.5936,147.5,97.6,0.495
43.24,32021.0,35148.9,0.0834,0.3676,147.5,97.6,0.495
43.26,32093.7,35135.6,0.3732,0.3347,147.5,97.6,0.495
43.28,32101.4,35021.6,0.404,0.054,147.5,97.6,0.495
43.3,31924.9,34884.3,-0.2999,-0.2838,147.5,97.6,0.495
43.32,31906.2,34848.3,-0.3743,-0.3725,147.5,97.6,0.495
43.34,31807.3,34658.0,-0.769,-0.8409,147.5,97.6,0.495
43.36,31830.6,34678.9,-0.6761,-0.7896,147.5,97.6,0.495
43.38,31838.6,34700.2,-0.6439,-0.7369,147.5,97.6,0.495
43.4,31907.6,34676.4,-0.369,-0.7955,147.5,97.6,0.495
43.42,31772.3,34588.3,-0.9083,-1.0126,147.5,97.6,0.495
43.44,31826.1,34419.6,-0.6939,-1.4278,147.5,97.6,0.495
43.46,31796.1,34532.5,-0.8134,-1.1498,147.5,97.6,0.495
43.48,31882.4,34596.1,-0.4693,-0.9933,147.5,97.6,0.495
43.5,31984.9,34952.8,-0.0605,-0.1154,147.5,97.6,0.495
43.52,32097.7,35357.2,0.3893,0.8802,147.5,97.6,0.495
43.54,32320.2,35620.7,1.2762,1.5289,147.5,97.6,0.495
43.56,32323.5,35819.4,1.2894,2.0179,147.5,97.6,0.495
43.58,32288.2,35679.4,1.1486,1.6733,147.5,97.6,0.495
43.6,32219.4,35469.5,0.8744,1.1566,147.5,97.6,0.495
43.62,32148.6,35320.9,0.5923,0.7908,147.5,97.6,0.495
43.64,32059.0,35031.1,0.2349,0.0776,147.5,97.6,0.495
43.66,32071.5,35058.7,0.2848,0.1454,147.5,97.6,0.495
43.68,32105.2,35090.4,0.4191,0.2234,147.5,97.6,0.495
43.7,31978.9,34883.9,-0.0845,-0.2848,147.5,97.6,0.495
43.72,31975.3,34873.3,-0.099,-0.311,147.5,97.6,0.495
43.74,31928.9,34748.0,-0.2838,-0.6194,147.5,97.6,0.495
43.76,31842.0,34760.5,-0.6305,-0.5887,147.5,97.6,0.495
43.78,31814.6,34692.2,-0.7395,-0.7568,147.5,97.6,0.495
43.8,31837.0,34708.5,-0.6504,-0.7165,147.5,97.6,0.495
43.82,31817.2,34470.1,-0.7295,-1.3033,147.5,97.6,0.495
43.84,31754.9,34573.1,-0.9778,-1.0499,147.5,97.6,0.495
43.86,31683.8,34509.0,-1.2614,-1.2076,147.5,97.6,0.495
43.88,31775.4,34548.5,-0.8958,-1.1104,147.5,97.6,0.495
43.9,31969.0,34808.5,-0.1242,-0.4704,147.5,97.6,0.495
43.92,32109.4,35245.4,0.4357,0.605,147.5,97.6,0.495
43.94,32306.1,35487.7,1.2202,1.2015,147.5,97.6,0.495
43.96,32281.0,35719.0,1.1201,1.7708,147.5,97.6,0.495
43.98,32318.6,35688.7,1.2701,1.6963,147.5,97.6,0.495
44.0,32249.6,35627.9,0.9949,1.5464,147.5,97.6,0.495
44.02,32158.3,35326.0,0.6307,0.8035,147.5,97.6,0.495
44.04,32096.2,35254.5,0.3832,0.6274,147.5,97.6,0.495
44.06,32042.3,35040.8,0.1683,0.1013,147.5,97.6,0.495
44.08,31940.3,34997.5,-0.2386,-0.0052,147.5,97.6,0.495
44.1,31996.8,35118.6,-0.0131,0.2928,147.5,97.6,0.495
44.12,31932.2,34914.3,-0.2709,-0.2101,147.5,97.6,0.495
44.14,31852.7,34757.8,-0.5879,-0.5952,147.5,97.6,0.495
44.16,31863.8,34706.0,-0.5435,-0.7227,147.5,97.6,0.495
44.18,31914.6,34777.0,-0.3409,-0.5481,147.5,97.6,0.495
44.2,31903.5,34642.1,-0.3853,-0.88,147.5,97.6,0.495
44.22,31814.7,34593.2,-0.7393,-1.0005,147.5,97.6,0.495
44.24,31694.6,34531.6,-1.2183,-1.152,147.5,97.6,0.495
44.26,31737.5,34424.2,-1.0471,-1.4164,147.5,97.6,0.495
44.28,31796.5,34487.5,-0.8117,-1.2607,147.5,97.6,0.495
44.3,31856.9,34716.3,-0.5712,-0.6973,147.5,97.6,0.495
44.32,32059.9,35042.3,0.2385,0.1052,147.5,97.6,0.495
44.34,32177.5,35451.8,0.7075,1.1131,147.5,97.6,0.495
44.36,32327.8,35654.5,1.3068,1.6121,147.5,97.6,0.495
44.38,32399.0,35765.1,1.5905,1.8842,147.5,97.6,0.495
44.4,32283.1,35675.9,1.1283,1.6646,147.5,97.6,0.495
44.42,32188.9,35370.9,0.753,0.914,147.5,97.6,0.495
44.44,32114.4,35218.5,0.4556,0.5387,147.5,97.6,0.495
44.46,32063.6,35133.8,0.2532,0.3303,147.5,97.6,0.495
44.48,31971.8,35026.7,-0.1127,0.0668,147.5,97.6,0.495
44.5,31985.3,34969.9,-0.0592,-0.0732,147.5,97.6,0.495
44.52,31902.2,34947.9,-0.3904,-0.1272,147.5,97.6,0.495
44.54,31924.4,34722.6,-0.3018,-0.682,147.5,97.6,0.495
44.56,31852.5,34663.9,-0.5885,-0.8263,147.5,97.6,0.495
44.58,31897.4,34675.1,-0.4095,-0.7989,147.5,97.6,0.495
44.6,31859.7,34720.0,-0.56,-0.6883,147.5,97.6,0.495
44.62,31808.8,34634.7,-0.7629,-0.8982,147.5,97.6,0.495
44.64,31817.0,34607.2,-0.7301,-0.9659,147.5,97.6,0.495
44.66,31840.7,34482.2,-0.6357,-1.2736,147.5,97.6,0.495
44.68,31756.9,34428.8,-0.9697,-1.405,147.5,97.6,0.495
44.7,31896.3,34551.8,-0.4138,-1.1024,147.5,97.6,0.495
44.72,32107.0,34841.4,0.4262,-0.3894,147.5,97.6,0.495
44.74,32201.1,35319.2,0.8014,0.7867,147.5,97.6,0.495
44.76,32282.8,35647.0,1.1272,1.5937,147.5,97.6,0.495
44.78,32300.5,35711.5,1.1978,1.7524,147.5,97.6,0.495
44.8,32267.8,35690.9,1.0672,1.7016,147.5,97.6,0.495
44.82,32216.3,35560.1,0.8622,1.3797,147.5,97.6,0.495
44.84,32157.0,35338.8,0.6256,0.8348,147.5,97.6,0.495
44.86,31956.1,35108.3,-0.1755,0.2676,147.5,97.6,0.495
