timestamp,raw_red,raw_ir,filtered_red,filtered_ir,heart_rate,spo2,ac_dc_ratio
0.0,32131.3,35022.2,0.7268,0.053,136.8,98.2,0.471
0.02,32235.5,35503.5,1.3035,1.2354,136.8,98.2,0.471
0.04,32300.9,35676.5,1.6652,1.6603,136.8,98.2,0.471
0.06,32369.7,35704.4,2.0457,1.7289,136.8,98.2,0.471
0.08,32349.9,35641.2,1.9359,1.5735,136.8,98.2,0.471
0.1,32192.1,35456.9,1.0632,1.1209,136.8,98.2,0.471
0.12,32087.6,35318.1,0.4855,0.78,136.8,98.2,0.471
0.14,32096.2,35186.2,0.5331,0.4559,136.8,98.2,0.471
0.16,32150.7,35047.2,0.8341,0.1145,136.8,98.2,0.471
0.18,31980.8,35154.4,-0.1052,0.3779,136.8,98.2,0.471
0.2,31961.3,34980.4,-0.2134,-0.0496,136.8,98.2,0.471
0.22,31953.0,34836.6,-0.2592,-0.4028,136.8,98.2,0.471
0.24,31948.4,34818.4,-0.2846,-0.4475,136.8,98.2,0.471
0.26,31798.9,34675.7,-1.1111,-0.7981,136.8,98.2,0.471
0.28,31862.7,34682.1,-0.7584,-0.7823,136.8,98.2,0.471
0.3,31833.3,34615.1,-0.9207,-0.947,136.8,98.2,0.471
0.32,31908.2,34691.3,-0.5066,-0.7597,136.8,98.2,0.471
0.34,31826.1,34509.4,-0.9605,-1.2065,136.8,98.2,0.471
0.36,31755.2,34419.4,-1.3527,-1.4277,136.8,98.2,0.471
0.38,31686.0,34535.5,-1.7353,-1.1424,136.8,98.2,0.471
0.4,31778.9,34535.4,-1.2216,-1.1426,136.8,98.2,0.471
0.42,31955.4,34843.6,-0.2458,-0.3855,136.8,98.2,0.471
0.44,32011.3,35101.9,0.0635,0.2488,136.8,98.2,0.471
0.46,32261.0,35539.5,1.4442,1.3238,136.8,98.2,0.471
0.48,32315.1,35692.7,1.7437,1.7002,136.8,98.2,0.471
0.5,32240.2,35729.0,1.329,1.7893,136.8,98.2,0.471
0.52,32353.3,35597.4,1.9546,1.4661,136.8,98.2,0.471
0.54,32314.4,35427.3,1.7397,1.0483,136.8,98.2,0.471
0.56,32128.7,35280.3,0.7124,0.687,136.8,98.2,0.471
0.58,32129.7,35157.2,0.7183,0.3848,136.8,98.2,0.471
0.6,31998.6,35050.0,-0.0071,0.1214,136.8,98.2,0.471
0.62,32064.0,35038.0,0.3546,0.0919,136.8,98.2,0.471
0.64,31982.5,35048.0,-0.0961,0.1165,136.8,98.2,0.471
0.66,31881.9,34882.9,-0.6523,-0.2891,136.8,98.2,0.471
0.68,31992.4,34744.7,-0.0412,-0.6286,136.8,98.2,0.471
0.7,31861.4,34720.0,-0.7656,-0.6893,136.8,98.2,0.471
0.72,31858.5,34740.8,-0.7816,-0.6383,136.8,98.2,0.471
0.74,31850.7,34612.8,-0.8249,-0.9525,136.8,98.2,0.471
0.76,31867.1,34556.7,-0.734,-1.0904,136.8,98.2,0.471
0.78,31712.8,34578.3,-1.5872,-1.0372,136.8,98.2,0.471
0.8,31711.3,34472.3,-1.5956,-1.2976,136.8,98.2,0.471
0.82,31731.1,34412.0,-1.4859,-1.4458,136.8,98.2,0.471
0.84,31810.4,34530.6,-1.0475,-1.1544,136.8,98.2,0.471
0.86,32000.7,34810.8,0.0045,-0.4663,136.8,98.2,0.471
0.88,32138.3,35214.6,0.7655,0.5258,136.8,98.2,0.471
0.9,32155.1,35443.6,0.8589,1.0881,136.8,98.2,0.471
0.92,32301.5,35748.5,1.6681,1.8371,136.8,98.2,0.471
0.94,32388.9,35693.6,2.1515,1.7022,136.8,98.2,0.471
0.96,32332.9,35583.6,1.8421,1.4321,136.8,98.2,0.471
0.98,32228.0,35457.7,1.2617,1.1229,136.8,98.2,0.471
1.0,32173.6,35209.0,0.9612,0.512,136.8,98.2,0.471
1.02,32075.2,35129.3,0.4167,0.3161,136.8,98.2,0.471
1.04,32102.6,35071.8,0.5686,0.1749,136.8,98.2,0.471
1.06,32064.0,34932.1,0.3549,-0.1684,136.8,98.2,0.471
1.08,32046.3,34956.4,0.2571,-0.1084,136.8,98.2,0.471
1.1,31980.8,34816.3,-0.1053,-0.4526,136.8,98.2,0.471
1.12,31897.2,34820.3,-0.5677,-0.4428,136.8,98.2,0.471
1.14,31859.7,34647.0,-0.775,-0.8685,136.8,98.2,0.471
1.16,31890.9,34647.0,-0.6027,-0.8686,136.8,98.2,0.471
1.18,31931.9,34659.4,-0.3757,-0.8381,136.8,98.2,0.471
1.2,31846.6,34614.3,-0.8476,-0.9488,136.8,98.2,0.471
1.22,31770.6,34586.3,-1.2676,-1.0177,136.8,98.2,0.471
1.24,31824.3,34485.0,-0.9708,-1.2664,136.8,98.2,0.471
1.26,31761.1,34439.2,-1.3203,-1.3789,136.8,98.2,0.471
1.28,31722.9,34664.8,-1.5318,-0.8249,136.8,98.2,0.471
1.3,31970.0,34897.0,-0.1648,-0.2545,136.8,98.2,0.471
1.32,32106.5,35192.4,0.5899,0.4711,136.8,98.2,0.471
1.34,32243.3,35450.2,1.3466,1.1045,136.8,98.2,0.471
1.36,32335.6,35787.2,1.857,1.9323,136.8,98.2,0.471
1.38,32362.9,35790.6,2.008,1.9406,136.8,98.2,0.471
1.4,32282.1,35556.0,1.5611,1.3644,136.8,98.2,0.471
1.42,32177.6,35462.5,0.9832,1.1347,136.8,98.2,0.471
1.44,32092.1,35209.9,0.5105,0.5142,136.8,98.2,0.471
1.46,32082.7,35068.8,0.4582,0.1674,136.8,98.2,0.471
1.48,32043.6,35078.7,0.2417,0.1918,136.8,98.2,0.471
1.5,32057.0,35064.3,0.3163,0.1565,136.8,98.2,0.471
1.52,31992.5,34966.9,-0.0407,-0.0827,136.8,98.2,0.471
1.54,31927.3,34860.7,-0.4014,-0.3437,136.8,98.2,0.471
1.56,31811.2,34785.4,-1.0433,-0.5287,136.8,98.2,0.471
1.58,31894.0,34597.2,-0.5853,-0.9909,136.8,98.2,0.471
1.6,31823.3,34722.1,-0.9763,-0.6841,136.8,98.2,0.471
1.62,31813.3,34762.9,-1.0317,-0.5838,136.8,98.2,0.471
1.64,31778.3,34579.0,-1.2252,-1.0355,136.8,98.2,0.471
1.66,31890.6,34516.7,-0.6044,-1.1885,136.8,98.2,0.471
1.68,31632.3,34505.5,-2.0324,-1.2162,136.8,98.2,0.471
1.7,31716.7,34539.2,-1.566,-1.1333,136.8,98.2,0.471
1.72,31838.8,34668.0,-0.8908,-0.817,136.8,98.2,0.471
1.74,31942.1,34924.0,-0.3195,-0.1882,136.8,98.2,0.471
1.76,32042.7,35157.3,0.2368,0.385,136.8,98.2,0.471
1.78,32241.6,35569.8,1.3369,1.3981,136.8,98.2,0.471
1.8,32343.3,35732.0,1.8997,1.7966,136.8,98.2,0.471
1.82,32358.9,35715.7,1.9857,1.7567,136.8,98.2,0.471
1.84,32281.6,35569.5,1.5584,1.3976,136.8,98.2,0.471
1.86,32175.0,35299.6,0.9687,0.7346,136.8,98.2,0.471
1.88,32157.8,35237.2,0.8733,0.5813,136.8,98.2,0.471
1.9,32033.8,35190.3,0.1876,0.4661,136.8,98.2,0.471
1.92,32036.2,35089.3,0.2009,0.2179,136.8,98.2,0.471
1.94,32044.3,35019.9,0.2457,0.0474,136.8,98.2,0.471
1.96,31992.2,34973.6,-0.0424,-0.0663,136.8,98.2,0.471
1.98,31958.0,34843.1,-0.2316,-0.3868,136.8,98.2,0.471
2.0,31862.8,34768.7,-0.7581,-0.5696,136.8,98.2,0.471
2.02,31924.5,34633.6,-0.4167,-0.9016,136.8,98.2,0.471
2.04,31785.1,34776.7,-1.1874,-0.55,136.8,98.2,0.471
2.06,31852.8,34639.6,-0.813,-0.8868,136.8,98.2,0.471
2.08,31850.5,34734.9,-0.8259,-0.6527,136.8,98.2,0.471
2.1,31800.0,34586.9,-1.1052,-1.0161,136.8,98.2,0.471
2.12,31806.2,34385.5,-1.0708,-1.5108,136.8,98.2,0.471
2.14,31800.5,34406.7,-1.1025,-1.4588,136.8,98.2,0.471
2.16,31783.8,34554.8,-1.1945,-1.0951,136.8,98.2,0.471
2.18,32000.3,34904.6,0.0023,-0.2358,136.8,98.2,0.471
2.2,32202.2,35231.5,1.1193,0.5672,136.8,98.2,0.471
2.22,32252.0,35628.2,1.3946,1.5417,136.8,98.2,0.471
2.24,32315.6,35627.5,1.7463,1.54,136.8,98.2,0.471
2.26,32359.4,35773.4,1.9887,1.8983,136.8,98.2,0.471
2.28,32162.6,35598.7,0.8999,1.4691,136.8,98.2,0.471
2.3,32212.1,35413.4,1.174,1.0139,136.8,98.2,0.471
2.32,32064.9,35165.3,0.3598,0.4046,136.8,98.2,0.471
2.34,32034.5,35183.0,0.1916,0.4481,136.8,98.2,0.471
2.36,32165.6,35047.8,0.9165,0.1161,136.8,98.2,0.471
2.38,32020.9,35033.1,0.1164,0.08,136.8,98.2,0.471
2.4,31984.5,34918.6,-0.0849,-0.2015,136.8,98.2,0.471
2.42,31870.8,34854.2,-0.7138,-0.3596,136.8,98.2,0.471
2.44,31893.0,34754.2,-0.5909,-0.6053,136.8,98.2,0.471
2.46,31777.9,34600.3,-1.2275,-0.9834,136.8,98.2,0.471
2.48,31949.3,34667.2,-0.2797,-0.8189,136.8,98.2,0.471
2.5,31856.2,34731.9,-0.7944,-0.66,136.8,98.2,0.471
2.52,31857.6,34627.7,-0.7864,-0.9161,136.8,98.2,0.471
2.54,31786.8,34520.0,-1.1784,-1.1806,136.8,98.2,0.471
2.56,31670.0,34449.5,-1.8241,-1.3536,136.8,98.2,0.471
2.58,31832.7,34477.2,-0.9246,-1.2856,136.8,98.2,0.471
2.6,31834.5,34673.2,-0.9144,-0.8043,136.8,98.2,0.471
2.62,31886.7,34880.7,-0.6257,-0.2946,136.8,98.2,0.471
2.64,32115.5,35315.5,0.6399,0.7736,136.8,98.2,0.471
2.66,32231.0,35632.9,1.2782,1.5531,136.8,98.2,0.471
2.68,32332.4,35753.8,1.8389,1.8501,136.8,98.2,0.471
2.7,32400.6,35702.2,2.2161,1.7235,136.8,98.2,0.471
2.72,32291.9,35625.8,1.6154,1.5358,136.8,98.2,0.471
2.74,32262.3,35354.0,1.4515,0.868,136.8,98.2,0.471
2.76,32130.2,35238.3,0.7209,0.584,136.8,98.2,0.471
2.78,31957.2,35141.4,-0.2355,0.3459,136.8,98.2,0.471
2.8,31978.2,35011.2,-0.1194,0.026,136.8,98.2,0.471
2.82,32039.3,35047.6,0.2184,0.1155,136.8,98.2,0.471
2.84,31909.5,34947.0,-0.4997,-0.1317,136.8,98.2,0.471
2.86,31940.8,34863.3,-0.3267,-0.3373,136.8,98.2,0.471
2.88,31929.7,34734.6,-0.3879,-0.6533,136.8,98.2,0.471
2.9,31856.5,34674.9,-0.7928,-0.7999,136.8,98.2,0.471
2.92,31737.6,34680.4,-1.4503,-0.7864,136.8,98.2,0.471
2.94,31934.3,34590.3,-0.3623,-1.0079,136.8,98.2,0.471
2.96,31803.3,34576.6,-1.0871,-1.0416,136.8,98.2,0.471
2.98,31804.4,34483.8,-1.0807,-1.2695,136.8,98.2,0.471
3.0,31830.9,34452.2,-0.9345,-1.3471,136.8,98.2,0.471
3.02,31750.1,34455.7,-1.3811,-1.3384,136.8,98.2,0.471
3.04,31820.7,34623.5,-0.9906,-0.9264,136.8,98.2,0.471
3.06,32050.7,34984.1,0.281,-0.0405,136.8,98.2,0.471
3.08,32165.4,35293.4,0.9157,0.7194,136.8,98.2,0.471
3.1,32211.3,35603.4,1.1696,1.4808,136.8,98.2,0.471
3.12,32370.5,35733.4,2.0497,1.8,136.8,98.2,0.471
3.14,32263.5,35708.3,1.4579,1.7385,136.8,98.2,0.471
3.16,32281.9,35506.9,1.5598,1.2436,136.8,98.2,0.471
3.18,32173.2,35336.6,0.9587,0.8253,136.8,98.2,0.471
3.2,32057.4,35244.4,0.3181,0.5988,136.8,98.2,0.471
3.22,32033.6,35094.7,0.1869,0.2312,136.8,98.2,0.471
3.24,32032.1,35086.5,0.1784,0.2109,136.8,98.2,0.471
3.26,32006.4,34951.1,0.0363,-0.1216,136.8,98.2,0.471
3.28,31907.4,34858.7,-0.5111,-0.3486,136.8,98.2,0.471
3.3,31947.3,34824.9,-0.2906,-0.4315,136.8,98.2,0.471
3.32,31776.8,34709.6,-1.2335,-0.7148,136.8,98.2,0.471
3.34,31941.8,34680.9,-0.3211,-0.7854,136.8,98.2,0.471
3.36,31870.5,34669.1,-0.7151,-0.8142,136.8,98.2,0.471
3.38,31866.6,34652.6,-0.7369,-0.8549,136.8,98.2,0.471
3.4,31894.4,34514.3,-0.5833,-1.1945,136.8,98.2,0.471
3.42,31831.8,34510.8,-0.9295,-1.2032,136.8,98.2,0.471
3.44,31711.2,34494.5,-1.5962,-1.2433,136.8,98.2,0.471
3.46,31783.9,34407.9,-1.1942,-1.4558,136.8,98.2,0.471
3.48,31884.2,34638.5,-0.6396,-0.8894,136.8,98.2,0.471
3.5,31952.6,35015.7,-0.261,0.0372,136.8,98.2,0.471
3.52,32096.0,35422.7,0.5319,1.0368,136.8,98.2,0.471
3.54,32290.2,35650.0,1.6059,1.5951,136.8,98.2,0.471
3.56,32245.9,35807.5,1.361,1.9822,136.8,98.2,0.471
3.58,32306.9,35768.6,1.698,1.8867,136.8,98.2,0.471
3.6,32196.9,35543.1,1.0898,1.3327,136.8,98.2,0.471
3.62,32167.7,35312.9,0.9285,0.7672,136.8,98.2,0.471
3.64,32001.3,35234.8,0.0078,0.5753,136.8,98.2,0.471
3.66,32080.8,35143.1,0.4478,0.35,136.8,98.2,0.471
3.68,32021.3,35076.7,0.1184,0.1868,136.8,98.2,0.471
3.7,32030.0,35005.0,0.1671,0.0109,136.8,98.2,0.471
3.72,32001.7,34905.8,0.0103,-0.2329,136.8,98.2,0.471
3.74,31916.9,34791.0,-0.4584,-0.5148,136.8,98.2,0.471
3.76,31947.0,34677.1,-0.2925,-0.7947,136.8,98.2,0.471
3.78,31812.2,34630.7,-1.0379,-0.9086,136.8,98.2,0.471
3.8,31796.0,34678.7,-1.1275,-0.7906,136.8,98.2,0.471
3.82,31797.3,34633.5,-1.1201,-0.9018,136.8,98.2,0.471
3.84,31710.6,34501.7,-1.5996,-1.2254,136.8,98.2,0.471
3.86,31894.8,34508.6,-0.5809,-1.2085,136.8,98.2,0.471
3.88,31785.8,34375.0,-1.1836,-1.5368,136.8,98.2,0.471
3.9,31803.3,34557.6,-1.087,-1.0882,136.8,98.2,0.471
3.92,31878.3,34729.5,-0.6723,-0.6659,136.8,98.2,0.471
3.94,32071.5,35052.2,0.3963,0.1269,136.8,98.2,0.471
3.96,32234.4,35411.0,1.2972,1.0082,136.8,98.2,0.471
3.98,32334.0,35687.0,1.8482,1.6861,136.8,98.2,0.471
4.0,32408.9,35911.1,2.262,2.2365,136.8,98.2,0.471
4.02,32376.4,35755.1,2.0824,1.8534,136.8,98.2,0.471
4.04,32217.6,35505.4,1.2043,1.24,136.8,98.2,0.471
4.06,32083.5,35352.1,0.4627,0.8634,136.8,98.2,0.471
4.08,32105.3,35211.5,0.583,0.5181,136.8,98.2,0.471
4.1,32054.1,35154.7,0.3001,0.3785,136.8,98.2,0.471
4.12,32073.0,35020.3,0.4046,0.0485,136.8,98.2,0.471
4.14,31918.4,35032.6,-0.4502,0.0785,136.8,98.2,0.471
4.16,31913.8,34917.3,-0.4758,-0.2047,136.8,98.2,0.471
4.18,31891.8,34744.3,-0.5976,-0.6296,136.8,98.2,0.471
4.2,31876.1,34735.4,-0.6842,-0.6513,136.8,98.2,0.471
4.22,31818.0,34679.3,-1.0056,-0.7893,136.8,98.2,0.471
4.24,31802.9,34590.4,-1.0888,-1.0077,136.8,98.2,0.471
4.26,31750.7,34613.9,-1.3778,-0.9498,136.8,98.2,0.471
4.28,31778.9,34532.1,-1.2218,-1.1508,136.8,98.2,0.471
4.3,31839.7,34489.7,-0.8857,-1.2548,136.8,98.2,0.471
4.32,31712.1,34454.9,-1.5911,-1.3403,136.8,98.2,0.471
4.34,31802.6,34606.5,-1.0905,-0.9679,136.8,98.2,0.471
4.36,31925.3,34666.1,-0.412,-0.8218,136.8,98.2,0.471
4.38,32062.4,34978.0,0.3459,-0.0555,136.8,98.2,0.471
4.4,32162.4,35352.8,0.8987,0.8653,136.8,98.2,0.471
4.42,32312.3,35662.1,1.7281,1.6248,136.8,98.2,0.471
4.44,32334.2,35855.4,1.8489,2.0997,136.8,98.2,0.471
4.46,32306.0,35660.6,1.6933,1.6212,136.8,98.2,0.471
4.48,32212.3,35574.4,1.1747,1.4095,136.8,98.2,0.471
4.5,32109.7,35301.8,0.6075,0.7399,136.8,98.2,0.471
4.52,32095.4,35239.4,0.5283,0.5866,136.8,98.2,0.471
4.54,32019.8,35130.6,0.1102,0.3194,136.8,98.2,0.471
4.56,32071.5,35103.7,0.3963,0.2532,136.8,98.2,0.471
4.58,32069.0,35021.8,0.3823,0.0521,136.8,98.2,0.471
4.6,31984.1,34926.3,-0.0871,-0.1826,136.8,98.2,0.471
4.62,31930.1,34856.4,-0.3857,-0.3543,136.8,98.2,0.471
4.64,31913.3,34745.4,-0.4783,-0.6268,136.8,98.2,0.471
4.66,31891.5,34683.0,-0.5991,-0.7802,136.8,98.2,0.471
4.68,31755.5,34557.3,-1.3511,-1.0888,136.8,98.2,0.471
4.7,31822.6,34508.1,-0.98,-1.2097,136.8,98.2,0.471
4.72,31807.0,34605.0,-1.0664,-0.9716,136.8,98.2,0.471
4.74,31854.3,34486.9,-0.8048,-1.2617,136.8,98.2,0.471
4.76,31649.3,34400.8,-1.9383,-1.4734,136.8,98.2,0.471
4.78,31827.0,34569.9,-0.9559,-1.0581,136.8,98.2,0.471
4.8,31821.1,34720.5,-0.9885,-0.6879,136.8,98.2,0.471
4.82,32043.5,35075.8,0.2414,0.1848,136.8,98.2,0.471
4.84,32142.3,35422.9,0.7877,1.0374,136.8,98.2,0.471
4.86,32292.1,35627.7,1.616,1.5405,136.8,98.2,0.471
4.88,32226.9,35731.6,1.2559,1.7958,136.8,98.2,0.471
4.9,32324.1,35777.1,1.7935,1.9074,136.8,98.2,0.471
4.92,32187.4,35493.1,1.0371,1.2099,136.8,98.2,0.471
4.94,32088.8,35278.0,0.4919,0.6813,136.8,98.2,0.471
4.96,32133.3,35210.2,0.7382,0.5148,136.8,98.2,0.471
4.98,32076.9,35116.1,0.4264,0.2838,136.8,98.2,0.471
5.0,32101.3,35105.7,0.5612,0.2581,136.8,98.2,0.471
5.02,31987.4,34978.0,-0.0686,-0.0554,136.8,98.2,0.471
5.04,31981.1,34903.1,-0.1034,-0.2394,136.8,98.2,0.471
5.06,32013.3,34847.6,0.0745,-0.3759,136.8,98.2,0.471
5.08,31910.0,34667.3,-0.4966,-0.8187,136.8,98.2,0.471
5.1,31853.4,34612.7,-0.8098,-0.9528,136.8,98.2,0.471
5.12,31902.5,34711.0,-0.5385,-0.7113,136.8,98.2,0.471
5.14,31859.9,34577.0,-0.774,-1.0405,136.8,98.2,0.471
5.16,31840.6,34495.0,-0.8804,-1.2419,136.8,98.2,0.471
5.18,31835.9,34476.6,-0.9064,-1.2871,136.8,98.2,0.471
5.2,31724.3,34428.9,-1.5239,-1.4043,136.8,98.2,0.471
5.22,31721.7,34591.2,-1.5382,-1.0055,136.8,98.2,0.471
5.24,31938.6,34788.1,-0.3385,-0.522,136.8,98.2,0.471
5.26,32067.9,35155.9,0.3762,0.3816,136.8,98.2,0.471
5.28,32220.7,35385.2,1.2213,0.9447,136.8,98.2,0.471
5.3,32276.4,35687.2,1.5297,1.6866,136.8,98.2,0.471
5.32,32284.4,35737.8,1.5737,1.8108,136.8,98.2,0.471
5.34,32310.3,35775.5,1.7166,1.9036,136.8,98.2,0.471
5.36,32174.5,35423.7,0.9658,1.0393,136.8,98.2,0.471
5.38,32129.2,35258.7,0.7156,0.6341,136.8,98.2,0.471
5.4,32028.5,35139.6,0.1584,0.3416,136.8,98.2,0.471
5.42,32017.7,35052.7,0.0988,0.1281,136.8,98.2,0.471
5.44,31973.5,35073.0,-0.1454,0.1777,136.8,98.2,0.471
5.46,32007.6,35013.7,0.0427,0.0322,136.8,98.2,0.471
5.48,31971.7,34879.7,-0.1556,-0.297,136.8,98.2,0.471
5.5,31951.1,34862.9,-0.2698,-0.3383,136.8,98.2,0.471
5.52,31845.0,34691.0,-0.8563,-0.7604,136.8,98.2,0.471
5.54,31911.6,34668.5,-0.4882,-0.8158,136.8,98.2,0.471
5.56,31918.9,34732.5,-0.4478,-0.6584,136.8,98.2,0.471
5.58,31881.3,34675.2,-0.6555,-0.7994,136.8,98.2,0.471
5.6,31893.9,34553.7,-0.5858,-1.0977,136.8,98.2,0.471
5.62,31788.6,34567.9,-1.168,-1.063,136.8,98.2,0.471
5.64,31711.6,34502.0,-1.5939,-1.2248,136.8,98.2,0.471
5.66,31792.6,34560.7,-1.1461,-1.0806,136.8,98.2,0.471
5.68,31927.9,34715.9,-0.3979,-0.6992,136.8,98.2,0.471
5.7,32063.9,35059.9,0.3543,0.1458,136.8,98.2,0.471
5.72,32156.9,35461.5,0.8686,1.1322,136.8,98.2,0.471
5.74,32350.6,35669.9,1.9398,1.6442,136.8,98.2,0.471
5.76,32246.2,35796.0,1.3625,1.954,136.8,98.2,0.471
5.78,32306.4,35604.2,1.6954,1.4828,136.8,98.2,0.471
5.8,32206.2,35398.3,1.1409,0.977,136.8,98.2,0.471
5.82,32110.1,35267.0,0.6099,0.6545,136.8,98.2,0.471
5.84,32067.6,35211.2,0.3748,0.5173,136.8,98.2,0.471
5.86,32056.7,35125.6,0.3145,0.3072,136.8,98.2,0.471
5.88,32043.3,35008.3,0.2404,0.019,136.8,98.2,0.471
5.9,32003.6,34981.4,0.0209,-0.0472,136.8,98.2,0.471
5.92,31940.5,34935.2,-0.3283,-0.1605,136.8,98.2,0.471
5.94,31809.3,34757.6,-1.0538,-0.5968,136.8,98.2,0.471
5.96,31940.3,34706.5,-0.329,-0.7223,136.8,98.2,0.471
5.98,31837.0,34615.5,-0.9007,-0.9459,136.8,98.2,0.471
6.0,31830.7,34728.7,-0.9354,-0.6679,136.8,98.2,0.471
6.02,31807.2,34530.7,-1.0656,-1.1544,136.8,98.2,0.471
6.04,31730.2,34461.8,-1.4911,-1.3236,136.8,98.2,0.471
6.06,31782.7,34553.7,-1.2007,-1.0977,136.8,98.2,0.471
6.08,31841.7,34403.6,-0.8747,-1.4665,136.8,98.2,0.471
6.1,31860.7,34533.9,-0.7696,-1.1464,136.8,98.2,0.471
6.12,32013.3,34753.3,0.0743,-0.6075,136.8,98.2,0.471
6.14,32126.7,35175.9,0.7016,0.4307,136.8,98.2,0.471
6.16,32182.5,35495.4,1.0103,1.2155,136.8,98.2,0.471
6.18,32274.4,35775.9,1.5186,1.9045,136.8,98.2,0.471
6.2,32361.3,35842.9,1.9987,2.0691,136.8,98.2,0.471
6.22,32275.4,35689.5,1.5238,1.6923,136.8,98.2,0.471
6.24,32184.1,35446.9,1.0192,1.0964,136.8,98.2,0.471
6.26,32033.1,35373.1,0.184,0.9149,136.8,98.2,0.471
6.28,32030.1,35111.9,0.1673,0.2734,136.8,98.2,0.471
6.3,32051.7,35022.2,0.2868,0.053,136.8,98.2,0.471
6.32,32082.7,35143.5,0.4585,0.3511,136.8,98.2,0.471
6.34,32059.0,34944.6,0.3269,-0.1374,136.8,98.2,0.471
6.36,31960.6,34845.9,-0.2172,-0.3799,136.8,98.2,0.471
6.38,31901.3,34764.7,-0.5449,-0.5795,136.8,98.2,0.471
6.4,31845.5,34781.5,-0.8534,-0.5383,136.8,98.2,0.471
6.42,31905.6,34688.1,-0.5211,-0.7675,136.8,98.2,0.471
6.44,31845.0,34647.8,-0.8564,-0.8665,136.8,98.2,0.471
6.46,31883.7,34588.3,-0.6425,-1.0127,136.8,98.2,0.471
6.48,31813.8,34478.2,-1.0288,-1.2831,136.8,98.2,0.471
6.5,31712.4,34503.1,-1.5896,-1.222,136.8,98.2,0.471
6.52,31757.3,34440.0,-1.3413,-1.3771,136.8,98.2,0.471
6.54,31786.7,34597.2,-1.1787,-0.9908,136.8,98.2,0.471
6.56,31954.1,34920.6,-0.2527,-0.1964,136.8,98.2,0.471
6.58,32057.4,35186.2,0.3183,0.4559,136.8,98.2,0.471
6.6,32353.5,35394.8,1.956,0.9684,136.8,98.2,0.471
6.62,32293.6,35730.0,1.6248,1.7916,136.8,98.2,0.471
6.64,32291.4,35731.1,1.6121,1.7945,136.8,98.2,0.471
6.66,32228.4,35698.7,1.264,1.7149,136.8,98.2,0.471
6.68,32213.7,35383.3,1.1828,0.9402,136.8,98.2,0.471
6.7,32168.1,35318.8,0.9303,0.7816,136.8,98.2,0.471
6.72,31982.9,35113.8,-0.0934,0.2782,136.8,98.2,0.471
6.74,32077.7,35045.7,0.4304,0.1108,136.8,98.2,0.471
6.76,32029.7,35014.2,0.165,0.0335,136.8,98.2,0.471
6.78,32047.9,34975.9,0.2657,-0.0606,136.8,98.2,0.471
6.8,31968.1,34895.2,-0.1756,-0.2588,136.8,98.2,0.471
6.82,31959.1,34841.2,-0.2251,-0.3915,136.8,98.2,0.471
6.84,31853.0,34764.9,-0.8122,-0.5788,136.8,98.2,0.471
6.86,31945.5,34653.3,-0.3005,-0.8532,136.8,98.2,0.471
6.88,31899.6,34720.6,-0.5545,-0.6877,136.8,98.2,0.471
6.9,31815.3,34597.7,-1.0208,-0.9898,136.8,98.2,0.471
6.92,31805.0,34663.8,-1.0774,-0.8273,136.8,98.2,0.471
6.94,31825.8,34421.2,-0.9626,-1.4232,136.8,98.2,0.471
6.96,31792.1,34464.0,-1.149,-1.3182,136.8,98.2,0.471
6.98,31788.1,34483.2,-1.1711,-1.2709,136.8,98.2,0.471
7.0,31863.0,34883.7,-0.7566,-0.2871,136.8,98.2,0.471
7.02,32026.0,35220.1,0.1448,0.5392,136.8,98.2,0.471
7.04,32242.9,35521.8,1.3441,1.2804,136.8,98.2,0.471
7.06,32308.2,35731.0,1.7052,1.7943,136.8,98.2,0.471
7.08,32344.6,35781.8,1.9066,1.9189,136.8,98.2,0.471
7.1,32276.9,35683.4,1.5323,1.6774,136.8,98.2,0.471
7.12,32145.9,35418.6,0.8079,1.0269,136.8,98.2,0.471
7.14,32054.1,35211.7,0.2998,0.5185,136.8,98.2,0.471
7.16,32022.7,35157.9,0.1263,0.3863,136.8,98.2,0.471
7.18,32082.9,35097.5,0.4596,0.238,136.8,98.2,0.471
7.2,31942.5,35100.0,-0.3174,0.2441,136.8,98.2,0.471
7.22,31868.2,35001.3,-0.7279,0.0018,136.8,98.2,0.471
7.24,31862.0,34831.9,-0.7621,-0.4143,136.8,98.2,0.471
7.26,31886.8,34769.8,-0.6251,-0.5669,136.8,98.2,0.471
7.28,31928.9,34801.9,-0.392,-0.488,136.8,98.2,0.471
7.3,31875.6,34727.6,-0.6869,-0.6706,136.8,98.2,0.471
7.32,31789.5,34653.2,-1.163,-0.8532,136.8,98.2,0.471
7.34,31778.0,34678.1,-1.2266,-0.7921,136.8,98.2,0.471
7.36,31868.5,34585.9,-0.7261,-1.0187,136.8,98.2,0.471
7.38,31817.5,34360.7,-1.0086,-1.5719,136.8,98.2,0.471
7.4,31777.7,34502.8,-1.2287,-1.2228,136.8,98.2,0.471
7.42,31838.1,34632.3,-0.8945,-0.9046,136.8,98.2,0.471
7.44,31852.0,34866.2,-0.8177,-0.3302,136.8,98.2,0.471
7.46,32173.7,35271.7,0.9617,0.6661,136.8,98.2,0.471
7.48,32186.7,35433.0,1.0331,1.0622,136.8,98.2,0.471
7.5,32355.9,35613.8,1.9688,1.5063,136.8,98.2,0.471
7.52,32326.5,35782.6,1.8065,1.921,136.8,98.2,0.471
7.54,32351.9,35708.6,1.9472,1.7391,136.8,98.2,0.471
7.56,32210.8,35437.1,1.1667,1.0723,136.8,98.2,0.471
7.58,32133.8,35222.5,0.7408,0.5451,136.8,98.2,0.471
7.6,32068.8,35147.5,0.3813,0.3609,136.8,98.2,0.471
7.62,32077.1,35095.1,0.4273,0.2322,136.8,98.2,0.471
7.64,31994.4,34946.0,-0.03,-0.134,136.8,98.2,0.471
7.66,31951.6,34915.2,-0.2665,-0.2097,136.8,98.2,0.471
7.68,31907.7,34795.3,-0.5094,-0.5044,136.8,98.2,0.471
7.7,31847.6,34798.3,-0.8418,-0.497,136.8,98.2,0.471
7.72,31857.0,34666.8,-0.7898,-0.82,136.8,98.2,0.471
7.74,31883.3,34733.1,-0.6443,-0.6572,136.8,98.2,0.471
7.76,31861.2,34574.7,-0.7668,-1.0462,136.8,98.2,0.471
7.78,31888.9,34598.3,-0.6136,-0.9881,136.8,98.2,0.471
7.8,31750.3,34580.7,-1.3802,-1.0315,136.8,98.2,0.471
7.82,31775.4,34423.7,-1.2413,-1.417,136.8,98.2,0.471
7.84,31743.6,34418.2,-1.4169,-1.4305,136.8,98.2,0.471
7.86,31841.9,34618.3,-0.8736,-0.939,136.8,98.2,0.471
7.88,32003.6,34919.2,0.0207,-0.2,136.8,98.2,0.471
7.9,32154.1,35215.6,0.8531,0.5282,136.8,98.2,0.471
7.92,32244.8,35468.1,1.3545,1.1485,136.8,98.2,0.471
7.94,32310.0,35743.0,1.7154,1.8236,136.8,98.2,0.471
7.96,32344.2,35760.0,1.9042,1.8653,136.8,98.2,0.471
7.98,32311.6,35633.0,1.7243,1.5534,136.8,98.2,0.471
8.0,32174.7,35392.9,0.9669,0.9637,136.8,98.2,0.471
8.02,32065.2,35271.4,0.3614,0.6653,136.8,98.2,0.471
8.04,31992.8,35172.0,-0.0392,0.4211,136.8,98.2,0.471
8.06,32042.8,35023.8,0.2374,0.057,136.8,98.2,0.471
8.08,31970.1,35048.6,-0.1645,0.1179,136.8,98.2,0.471
8.1,32029.3,34935.9,0.163,-0.1589,136.8,98.2,0.471
8.12,31929.6,34880.2,-0.3883,-0.2958,136.8,98.2,0.471
8.14,31983.4,34786.7,-0.091,-0.5254,136.8,98.2,0.471
8.16,31909.3,34734.0,-0.5009,-0.6547,136.8,98.2,0.471
8.18,31743.2,34656.2,-1.4192,-0.8459,136.8,98.2,0.471
8.2,31746.4,34730.5,-1.4015,-0.6634,136.8,98.2,0.471
8.22,31808.6,34601.6,-1.0575,-0.9801,136.8,98.2,0.471
8.24,31757.6,34475.6,-1.3394,-1.2895,136.8,98.2,0.471
8.26,31920.1,34530.8,-0.4408,-1.1539,136.8,98.2,0.471
8.28,31763.2,34484.5,-1.3088,-1.2676,136.8,98.2,0.471
8.3,31824.9,34657.9,-0.9676,-0.8418,136.8,98.2,0.471
8.32,31979.2,34955.4,-0.114,-0.111,136.8,98.2,0.471
8.34,32054.5,35210.1,0.3023,0.5146,136.8,98.2,0.471
8.36,32262.3,35636.9,1.4513,1.5629,136.8,98.2,0.471
8.38,32400.7,35684.0,2.217,1.6787,136.8,98.2,0.471
8.4,32284.5,35808.2,1.5742,1.9839,136.8,98.2,0.471
8.42,32301.2,35612.1,1.6664,1.5021,136.8,98.2,0.471
8.44,32085.8,35422.2,0.4756,1.0356,136.8,98.2,0.471
8.46,32141.2,35217.3,0.7819,0.5322,136.8,98.2,0.471
8.48,31987.7,35100.4,-0.0671,0.2453,136.8,98.2,0.471
8.5,32038.7,35007.5,0.2151,0.017,136.8,98.2,0.471
8.52,31917.8,35086.1,-0.4536,0.2099,136.8,98.2,0.471
8.54,31984.2,34922.5,-0.0863,-0.1919,136.8,98.2,0.471
8.56,32023.9,34962.0,0.1331,-0.0948,136.8,98.2,0.471
8.58,31968.6,34736.3,-0.1727,-0.6493,136.8,98.2,0.471
8.6,31875.9,34690.3,-0.6854,-0.7621,136.8,98.2,0.471
8.62,31903.5,34640.5,-0.5326,-0.8846,136.8,98.2,0.471
8.64,31780.5,34576.5,-1.2127,-1.0418,136.8,98.2,0.471
8.66,31809.4,34531.2,-1.0531,-1.153,136.8,98.2,0.471
8.68,31798.5,34567.4,-1.1137,-1.0641,136.8,98.2,0.471
8.7,31792.2,34472.7,-1.1483,-1.2966,136.8,98.2,0.471
8.72,31736.8,34506.2,-1.4546,-1.2143,136.8,98.2,0.471
8.74,31862.3,34614.9,-0.7604,-0.9475,136.8,98.2,0.471
8.76,31954.9,34897.5,-0.2487,-0.2532,136.8,98.2,0.471
8.78,32154.8,35291.4,0.8572,0.7144,136.8,98.2,0.471
8.8,32290.6,35613.4,1.6082,1.5054,136.8,98.2,0.471
8.82,32342.3,35807.5,1.8937,1.9821,136.8,98.2,0.471
8.84,32339.6,35717.1,1.8787,1.7601,136.8,98.2,0.471
8.86,32274.9,35509.8,1.521,1.2509,136.8,98.2,0.471
8.88,32230.5,35399.3,1.2758,0.9795,136.8,98.2,0.471
8.9,32128.2,35199.7,0.7097,0.4891,136.8,98.2,0.471
8.92,32091.2,35102.3,0.5052,0.25,136.8,98.2,0.471
8.94,32031.7,35101.3,0.176,0.2475,136.8,98.2,0.471
8.96,32063.4,35075.1,0.3514,0.1831,136.8,98.2,0.471
8.98,31980.7,34946.5,-0.1057,-0.133,136.8,98.2,0.471
9.0,31895.6,34864.8,-0.5763,-0.3335,136.8,98.2,0.471
9.02,31971.3,34724.2,-0.158,-0.6789,136.8,98.2,0.471
9.04,31822.4,34769.9,-0.9815,-0.5667,136.8,98.2,0.471
9.06,31836.9,34709.3,-0.9013,-0.7154,136.8,98.2,0.471
9.08,31777.8,34770.9,-1.2278,-0.5643,136.8,98.2,0.471
9.1,31734.2,34623.7,-1.4688,-0.9258,136.8,98.2,0.471
9.12,31763.0,34515.9,-1.31,-1.1907,136.8,98.2,0.471
9.14,31863.7,34488.6,-0.753,-1.2577,136.8,98.2,0.471
9.16,31899.1,34473.4,-0.5572,-1.2951,136.8,98.2,0.471
9.18,31832.5,34665.7,-0.9255,-0.8226,136.8,98.2,0.471
9.2,32034.0,35051.5,0.189,0.1251,136.8,98.2,0.471
9.22,32132.4,35268.0,0.7333,0.6567,136.8,98.2,0.471
9.24,32227.9,35624.6,1.2611,1.5327,136.8,98.2,0.471
9.26,32324.9,35842.0,1.7974,2.0669,136.8,98.2,0.471
9.28,32349.7,35716.7,1.9349,1.7592,136.8,98.2,0.471
9.3,32179.8,35572.7,0.9954,1.4054,136.8,98.2,0.471
9.32,32098.4,35453.0,0.5452,1.1112,136.8,98.2,0.471
9.34,32163.9,35221.4,0.9071,0.5424,136.8,98.2,0.471
9.36,32075.9,35054.1,0.4206,0.1316,136.8,98.2,0.471
9.38,32036.2,35070.0,0.2013,0.1706,136.8,98.2,0.471
9.4,32041.4,35066.9,0.2298,0.163,136.8,98.2,0.471
9.42,31950.1,34991.8,-0.2752,-0.0215,136.8,98.2,0.471
9.44,31895.5,34820.8,-0.5772,-0.4416,136.8,98.2,0.471
9.46,31936.0,34691.4,-0.353,-0.7594,136.8,98.2,0.471
9.48,31904.2,34645.5,-0.5291,-0.8722,136.8,98.2,0.471
9.5,31913.4,34715.0,-0.4782,-0.7016,136.8,98.2,0.471
9.52,31868.1,34681.8,-0.7287,-0.783,136.8,98.2,0.471
9.54,31858.6,34579.6,-0.7813,-1.034,136.8,98.2,0.471
9.56,31790.6,34432.9,-1.1569,-1.3944,136.8,98.2,0.471
9.58,31719.9,34455.8,-1.5479,-1.3383,136.8,98.2,0.471
9.6,31710.1,34513.3,-1.6025,-1.197,136.8,98.2,0.471
9.62,31845.6,34775.0,-0.853,-0.5542,136.8,98.2,0.471
9.64,32030.2,34945.0,0.1681,-0.1366,136.8,98.2,0.471
9.66,32114.2,35378.9,0.6327,0.9294,136.8,98.2,0.471
9.68,32314.5,35657.9,1.7399,1.6147,136.8,98.2,0.471
9.7,32293.0,35726.2,1.621,1.7823,136.8,98.2,0.471
9.72,32296.7,35761.9,1.6417,1.87,136.8,98.2,0.471
9.74,32162.4,35511.7,0.8992,1.2555,136.8,98.2,0.471
9.76,32216.5,35320.7,1.1982,0.7863,136.8,98.2,0.471
9.78,32117.5,35223.0,0.6505,0.5464,136.8,98.2,0.471
9.8,32105.0,35065.5,0.5814,0.1594,136.8,98.2,0.471
9.82,32018.0,35097.2,0.1004,0.2374,136.8,98.2,0.471
9.84,32014.9,34898.4,0.0831,-0.2511,136.8,98.2,0.471
9.86,31930.8,35002.9,-0.382,0.0056,136.8,98.2,0.471
9.88,31900.3,34747.7,-0.5507,-0.6211,136.8,98.2,0.471
9.9,31794.5,34786.5,-1.1353,-0.5259,136.8,98.2,0.471
9.92,31890.1,34584.0,-0.6071,-1.0234,136.8,98.2,0.471
9.94,31881.5,34656.0,-0.6546,-0.8466,136.8,98.2,0.471
9.96,31798.9,34621.5,-1.1114,-0.9312,136.8,98.2,0.471
9.98,31873.3,34579.9,-0.6999,-1.0333,136.8,98.2,0.471
10.0,31811.3,34573.7,-1.0428,-1.0486,136.8,98.2,0.471
10.02,31768.9,34429.3,-1.277,-1.4033,136.8,98.2,0.471
10.04,31685.4,34570.2,-1.7389,-1.0573,136.8,98.2,0.471
10.06,31844.5,34774.5,-0.8592,-0.5554,136.8,98.2,0.471
10.08,32067.3,35049.9,0.3729,0.1211,136.8,98.2,0.471
10.1,32122.5,35427.8,0.6785,1.0495,136.8,98.2,0.471
10.12,32176.4,35712.7,0.9763,1.7491,136.8,98.2,0.471
10.14,32241.6,35847.0,1.3369,2.0791,136.8,98.2,0.471
10.16,32205.9,35717.9,1.1394,1.7621,136.8,98.2,0.471
10.18,32220.8,35593.2,1.2221,1.4557,136.8,98.2,0.471
10.2,32093.6,35269.8,0.5186,0.6612,136.8,98.2,0.471
10.22,32093.4,35223.5,0.5173,0.5475,136.8,98.2,0.471
10.24,32050.5,35116.2,0.2801,0.2839,136.8,98.2,0.471
10.26,32074.8,35154.5,0.4144,0.378,136.8,98.2,0.471
10.28,31978.3,34996.1,-0.1191,-0.011,136.8,98.2,0.471
10.3,31873.4,34885.3,-0.6992,-0.2831,136.8,98.2,0.471
10.32,31913.5,34753.5,-0.4774,-0.6069,136.8,98.2,0.471
10.34,31925.3,34825.3,-0.4119,-0.4305,136.8,98.2,0.471
10.36,31856.2,34660.5,-0.7943,-0.8354,136.8,98.2,0.471
10.38,31851.2,34642.4,-0.822,-0.8798,136.8,98.2,0.471
10.4,31866.1,34677.2,-0.7397,-0.7944,136.8,98.2,0.471
10.42,31707.3,34548.1,-1.618,-1.1114,136.8,98.2,0.471
10.44,31733.5,34535.0,-1.473,-1.1436,136.8,98.2,0.471
10.46,31742.4,34479.8,-1.4235,-1.2793,136.8,98.2,0.471
10.48,31794.2,34566.1,-1.1375,-1.0673,136.8,98.2,0.471
10.5,31848.9,34718.5,-0.8346,-0.6928,136.8,98.2,0.471
10.52,31986.2,35037.6,-0.0756,0.0909,136.8,98.2,0.471
10.54,32180.3,35437.2,0.9978,1.0726,136.8,98.2,0.471
10.56,32266.2,35652.6,1.4731,1.6015,136.8,98.2,0.471
10.58,32286.1,35773.1,1.5829,1.8976,136.8,98.2,0.471
10.6,32242.2,35724.3,1.34,1.7777,136.8,98.2,0.471
10.62,32111.9,35484.3,0.6199,1.1882,136.8,98.2,0.471
10.64,32189.3,35303.9,1.0475,0.7451,136.8,98.2,0.471
10.66,31982.4,35117.0,-0.0962,0.2858,136.8,98.2,0.471
10.68,32035.0,35147.7,0.1943,0.3614,136.8,98.2,0.471
10.7,32032.4,35058.9,0.1803,0.1432,136.8,98.2,0.471
10.72,32031.3,35011.3,0.174,0.0262,136.8,98.2,0.471
10.74,31925.4,34867.0,-0.4118,-0.328,136.8,98.2,0.471
10.76,31894.6,34748.2,-0.5819,-0.62,136.8,98.2,0.471
10.78,31896.9,34771.6,-0.5693,-0.5625,136.8,98.2,0.471
10.8,31822.8,34705.8,-0.9791,-0.7242,136.8,98.2,0.471
10.82,31908.2,34695.2,-0.5065,-0.7502,136.8,98.2,0.471
10.84,31892.0,34577.6,-0.5964,-1.039,136.8,98.2,0.471
10.86,31845.6,34583.2,-0.8528,-1.0252,136.8,98.2,0.471
10.88,31743.3,34509.8,-1.4189,-1.2055,136.8,98.2,0.471
10.9,31681.0,34475.5,-1.763,-1.29,136.8,98.2,0.471
10.92,31775.8,34487.1,-1.2391,-1.2613,136.8,98.2,0.471
10.94,31881.8,34711.2,-0.6527,-0.711,136.8,98.2,0.471
10.96,32088.4,35100.5,0.4896,0.2454,136.8,98.2,0.471
10.98,32203.1,35413.2,1.1239,1.0135,136.8,98.2,0.471
11.0,32331.9,35853.0,1.8362,2.0938,136.8,98.2,0.471
11.02,32306.9,35753.8,1.6982,1.8502,136.8,98.2,0.471
11.04,32205.1,35648.4,1.1351,1.5914,136.8,98.2,0.471
11.06,32189.8,35502.4,1.0505,1.2326,136.8,98.2,0.471
11.08,32094.9,35223.8,0.5259,0.5483,136.8,98.2,0.471
11.1,32109.7,35157.2,0.6078,0.3846,136.8,98.2,0.471
11.12,32053.9,35015.7,0.2987,0.0371,136.8,98.2,0.471
11.14,31999.6,35038.9,-0.0016,0.094,136.8,98.2,0.471
11.16,31988.5,35068.0,-0.0626,0.1655,136.8,98.2,0.471
11.18,32027.6,34920.4,0.1537,-0.1969,136.8,98.2,0.471
11.2,31909.0,34817.8,-0.5023,-0.449,136.8,98.2,0.471
11.22,31921.7,34692.5,-0.4323,-0.7569,136.8,98.2,0.471
11.24,31842.9,34707.2,-0.8677,-0.7206,136.8,98.2,0.471
11.26,31742.6,34647.3,-1.4226,-0.8678,136.8,98.2,0.471
11.28,31747.6,34625.8,-1.3951,-0.9206,136.8,98.2,0.471
11.3,31727.2,34616.2,-1.5079,-0.9443,136.8,98.2,0.471
11.32,31731.2,34429.3,-1.4857,-1.4034,136.8,98.2,0.471
11.34,31690.5,34423.3,-1.7108,-1.418,136.8,98.2,0.471
11.36,31727.7,34499.0,-1.5051,-1.2321,136.8,98.2,0.471
11.38,31814.3,34845.1,-1.0262,-0.3818,136.8,98.2,0.471
11.4,31959.5,35025.5,-0.2231,0.0612,136.8,98.2,0.471
11.42,32231.4,35378.1,1.2806,0.9274,136.8,98.2,0.471
11.44,32295.6,35714.4,1.6355,1.7534,136.8,98.2,0.471
11.46,32339.4,35714.1,1.8781,1.7528,136.8,98.2,0.471
11.48,32263.5,35573.6,1.458,1.4074,136.8,98.2,0.471
11.5,32227.0,35516.6,1.2562,1.2676,136.8,98.2,0.471
11.52,32032.2,35340.3,0.1788,0.8346,136.8,98.2,0.471
11.54,32096.2,35150.2,0.5327,0.3674,136.8,98.2,0.471
11.56,32006.3,35091.6,0.0359,0.2236,136.8,98.2,0.471
11.58,32129.9,35078.1,0.7192,0.1904,136.8,98.2,0.471
11.6,31939.0,35003.0,-0.3364,0.006,136.8,98.2,0.471
11.62,31953.4,34883.1,-0.2569,-0.2886,136.8,98.2,0.471
11.64,31966.5,34737.3,-0.1843,-0.6467,136.8,98.2,0.471
11.66,31938.9,34652.0,-0.3371,-0.8563,136.8,98.2,0.471
11.68,31820.4,34618.0,-0.9926,-0.9397,136.8,98.2,0.471
11.7,31880.4,34648.7,-0.6606,-0.8644,136.8,98.2,0.471
11.72,31761.0,34593.9,-1.3209,-0.9989,136.8,98.2,0.471
11.74,31794.5,34618.5,-1.1357,-0.9385,136.8,98.2,0.471
11.76,31802.7,34454.0,-1.0901,-1.3428,136.8,98.2,0.471
11.78,31790.9,34393.9,-1.1556,-1.4904,136.8,98.2,0.471
11.8,31847.0,34577.4,-0.8451,-1.0394,136.8,98.2,0.471
11.82,31895.5,34801.2,-0.5768,-0.4898,136.8,98.2,0.471
11.84,32064.0,35210.5,0.3546,0.5156,136.8,98.2,0.471
11.86,32203.7,35492.4,1.1272,1.208,136.8,98.2,0.471
11.88,32270.9,35689.2,1.4988,1.6916,136.8,98.2,0.471
11.9,32302.6,35768.6,1.6743,1.8865,136.8,98.2,0.471
11.92,32228.6,35664.7,1.2651,1.6314,136.8,98.2,0.471
11.94,32183.0,35483.5,1.0129,1.1863,136.8,98.2,0.471
11.96,32148.9,35354.0,0.8244,0.868,136.8,98.2,0.471
11.98,32121.1,35092.9,0.6707,0.2267,136.8,98.2,0.471
12.0,31985.3,35018.8,-0.0807,0.0447,136.8,98.2,0.471
12.02,32024.4,35018.8,0.1361,0.0447,136.8,98.2,0.471
12.04,32005.7,35028.7,0.0324,0.069,136.8,98.2,0.471
12.06,31944.9,34845.4,-0.304,-0.3813,136.8,98.2,0.471
12.08,31902.8,34876.8,-0.5364,-0.304,136.8,98.2,0.471
12.1,31788.4,34717.3,-1.1695,-0.6958,136.8,98.2,0.471
12.12,31826.8,34671.7,-0.9572,-0.8079,136.8,98.2,0.471
12.14,31861.0,34741.2,-0.7678,-0.6371,136.8,98.2,0.471
12.16,31839.1,34713.3,-0.8891,-0.7058,136.8,98.2,0.471
12.18,31795.4,34495.3,-1.1307,-1.2412,136.8,98.2,0.471
12.2,31723.5,34485.7,-1.5283,-1.2648,136.8,98.2,0.471
12.22,31788.1,34415.2,-1.1712,-1.4379,136.8,98.2,0.471
12.24,31868.2,34517.6,-0.7281,-1.1864,136.8,98.2,0.471
12.26,31943.6,34875.7,-0.3111,-0.3067,136.8,98.2,0.471
12.28,32109.9,35156.7,0.6085,0.3834,136.8,98.2,0.471
12.3,32173.8,35525.7,0.9618,1.2899,136.8,98.2,0.471
12.32,32269.1,35792.1,1.4891,1.9443,136.8,98.2,0.471
12.34,32255.9,35779.1,1.4163,1.9124,136.8,98.2,0.471
12.36,32298.2,35579.8,1.6498,1.4228,136.8,98.2,0.471
12.38,32247.3,35459.8,1.3682,1.1279,136.8,98.2,0.471
12.4,32135.0,35290.8,0.7473,0.7129,136.8,98.2,0.471
12.42,32023.5,35206.9,0.131,0.5068,136.8,98.2,0.471
12.44,32052.8,35033.6,0.2931,0.0811,136.8,98.2,0.471
12.46,32103.6,35019.6,0.574,0.0466,136.8,98.2,0.471
12.48,31994.8,34891.7,-0.0279,-0.2674,136.8,98.2,0.471
12.5,31935.0,34790.8,-0.3588,-0.5153,136.8,98.2,0.471
12.52,31760.7,34757.7,-1.3226,-0.5965,136.8,98.2,0.471
12.54,31759.5,34756.3,-1.3288,-0.6001,136.8,98.2,0.471
12.56,31937.8,34675.4,-0.3431,-0.7988,136.8,98.2,0.471
12.58,31915.5,34597.3,-0.4667,-0.9907,136.8,98.2,0.471
12.6,31885.7,34558.5,-0.6312,-1.0859,136.8,98.2,0.471
12.62,31865.7,34512.0,-0.7418,-1.2002,136.8,98.2,0.471
12.64,31721.1,34425.4,-1.5413,-1.4129,136.8,98.2,0.471
12.66,31816.5,34473.7,-1.014,-1.2942,136.8,98.2,0.471
12.68,31776.9,34488.3,-1.2328,-1.2584,136.8,98.2,0.471
12.7,31909.7,34840.1,-0.4985,-0.3941,136.8,98.2,0.471
12.72,32136.8,35135.9,0.7577,0.3324,136.8,98.2,0.471
12.74,32196.5,35450.3,1.0875,1.1048,136.8,98.2,0.471
12.76,32329.3,35649.0,1.8217,1.5928,136.8,98.2,0.471
12.78,32275.6,35800.2,1.5252,1.9641,136.8,98.2,0.471
12.8,32315.9,35625.0,1.7478,1.5337,136.8,98.2,0.471
12.82,32216.8,35380.8,1.1998,0.934,136.8,98.2,0.471
12.84,32133.3,35325.1,0.7382,0.7971,136.8,98.2,0.471
12.86,32056.0,35178.9,0.3107,0.4379,136.8,98.2,0.471
12.88,32069.7,35068.6,0.3862,0.167,136.8,98.2,0.471
12.9,32058.5,35051.2,0.3245,0.1243,136.8,98.2,0.471
12.92,31925.5,35000.0,-0.411,-0.0015,136.8,98.2,0.471
12.94,31968.2,34826.9,-0.1751,-0.4267,136.8,98.2,0.471
12.96,31880.0,34860.7,-0.6627,-0.3436,136.8,98.2,0.471
12.98,31841.7,34642.9,-0.8748,-0.8786,136.8,98.2,0.471
13.0,31863.9,34769.3,-0.7518,-0.5681,136.8,98.2,0.471
13.02,31861.2,34730.4,-0.7667,-0.6636,136.8,98.2,0.471
13.04,31823.7,34583.7,-0.9743,-1.024,136.8,98.2,0.471
13.06,31819.0,34647.6,-0.9999,-0.8671,136.8,98.2,0.471
13.08,31797.0,34489.1,-1.1219,-1.2564,136.8,98.2,0.471
13.1,31665.8,34491.0,-1.8473,-1.2518,136.8,98.2,0.471
13.12,31796.1,34630.0,-1.1265,-0.9104,136.8,98.2,0.471
13.14,31905.1,34838.5,-0.5239,-0.3981,136.8,98.2,0.471
13.16,32017.0,35256.5,0.0947,0.6286,136.8,98.2,0.471
13.18,32230.4,35604.7,1.2749,1.4839,136.8,98.2,0.471
13.2,32251.9,35764.7,1.394,1.877,136.8,98.2,0.471
13.22,32330.9,35810.9,1.8308,1.9903,136.8,98.2,0.471
13.24,32257.3,35597.0,1.4236,1.4649,136.8,98.2,0.471
13.26,32122.7,35425.6,0.6796,1.0439,136.8,98.2,0.471
13.28,32106.5,35215.0,0.5899,0.5267,136.8,98.2,0.471
13.3,32151.9,35153.2,0.8409,0.3748,136.8,98.2,0.471
13.32,32114.7,35132.0,0.6351,0.3228,136.8,98.2,0.471
13.34,31975.0,35032.6,-0.1373,0.0787,136.8,98.2,0.471
13.36,32056.8,34987.3,0.3151,-0.0327,136.8,98.2,0.471
13.38,31939.5,34816.8,-0.3335,-0.4516,136.8,98.2,0.471
13.4,31872.2,34727.4,-0.7059,-0.6711,136.8,98.2,0.471
13.42,31926.1,34772.3,-0.4078,-0.5608,136.8,98.2,0.471
13.44,31850.2,34690.9,-0.8276,-0.7608,136.8,98.2,0.471
13.46,31783.8,34668.1,-1.1948,-0.8167,136.8,98.2,0.471
13.48,31841.6,34569.5,-0.8749,-1.0588,136.8,98.2,0.471
13.5,31835.7,34554.7,-0.9078,-1.0953,136.8,98.2,0.471
13.52,31760.0,34498.8,-1.3264,-1.2327,136.8,98.2,0.471
13.54,31687.3,34427.2,-1.7282,-1.4085,136.8,98.2,0.471
13.56,31864.7,34556.9,-0.7474,-1.0899,136.8,98.2,0.471
13.58,31950.6,35028.8,-0.2723,0.0693,136.8,98.2,0.471
13.6,32095.3,35273.6,0.5278,0.6706,136.8,98.2,0.471
13.62,32251.6,35537.7,1.3924,1.3193,136.8,98.2,0.471
13.64,32389.9,35775.0,2.1569,1.9022,136.8,98.2,0.471
13.66,32292.3,35887.1,1.6173,2.1775,136.8,98.2,0.471
13.68,32202.6,35613.4,1.1213,1.5054,136.8,98.2,0.471
13.7,32201.8,35398.9,1.1169,0.9784,136.8,98.2,0.471
13.72,32104.4,35259.5,0.5784,0.636,136.8,98.2,0.471
13.74,32021.2,35115.0,0.118,0.2811,136.8,98.2,0.471
13.76,32018.7,35121.8,0.1041,0.2978,136.8,98.2,0.471
13.78,31998.7,35039.4,-0.0062,0.0954,136.8,98.2,0.471
13.8,31962.8,34939.5,-0.2049,-0.1502,136.8,98.2,0.471
13.82,31876.6,34923.4,-0.6815,-0.1897,136.8,98.2,0.471
13.84,31900.7,34634.0,-0.5485,-0.9005,136.8,98.2,0.471
13.86,31943.7,34776.3,-0.3106,-0.5509,136.8,98.2,0.471
13.88,31826.7,34672.0,-0.9576,-0.8071,136.8,98.2,0.471
13.9,31904.3,34644.9,-0.5285,-0.8736,136.8,98.2,0.471
13.92,31839.6,34679.0,-0.8862,-0.7899,136.8,98.2,0.471
13.94,31770.8,34579.0,-1.2668,-1.0357,136.8,98.2,0.471
13.96,31791.0,34552.6,-1.1552,-1.1004,136.8,98.2,0.471
13.98,31757.6,34498.4,-1.3396,-1.2335,136.8,98.2,0.471
14.0,31882.8,34669.4,-0.6475,-0.8136,136.8,98.2,0.471
14.02,31920.6,34840.0,-0.4382,-0.3946,136.8,98.2,0.471
14.04,32078.1,35212.9,0.4328,0.5216,136.8,98.2,0.471
14.06,32189.7,35661.4,1.0498,1.6231,136.8,98.2,0.471
14.08,32271.3,35794.0,1.5013,1.949,136.8,98.2,0.471
14.1,32235.0,35742.0,1.3006,1.8212,136.8,98.2,0.471
14.12,32308.0,35561.6,1.704,1.378,136.8,98.2,0.471
14.14,32255.1,35299.7,1.4114,0.7347,136.8,98.2,0.471
14.16,32091.0,35250.1,0.5042,0.6129,136.8,98.2,0.471
14.18,32139.2,35138.4,0.7704,0.3386,136.8,98.2,0.471
14.2,32065.0,35160.7,0.3605,0.3934,136.8,98.2,0.471
14.22,31932.7,35107.9,-0.3712,0.2636,136.8,98.2,0.471
14.24,32035.8,34963.5,0.1988,-0.091,136.8,98.2,0.471
14.26,31938.6,34849.0,-0.3388,-0.3724,136.8,98.2,0.471
14.28,31876.3,34750.2,-0.683,-0.615,136.8,98.2,0.471
14.3,31916.2,34730.4,-0.4627,-0.6637,136.8,98.2,0.471
14.32,31854.6,34748.6,-0.803,-0.619,136.8,98.2,0.471
14.34,31853.6,34639.4,-0.8087,-0.8873,136.8,98.2,0.471
14.36,31932.3,34618.8,-0.3736,-0.9378,136.8,98.2,0.471
14.38,31756.0,34516.7,-1.3485,-1.1886,136.8,98.2,0.471
14.4,31796.6,34434.9,-1.1238,-1.3897,136.8,98.2,0.471
14.42,31725.2,34467.1,-1.5186,-1.3106,136.8,98.2,0.471
14.44,31785.7,34679.7,-1.1844,-0.7883,136.8,98.2,0.471
14.46,31968.9,34928.1,-0.1708,-0.1782,136.8,98.2,0.471
14.48,32159.3,35343.6,0.8816,0.8426,136.8,98.2,0.471
14.5,32272.0,35574.3,1.5052,1.4092,136.8,98.2,0.471
14.52,32342.8,35801.9,1.8968,1.9683,136.8,98.2,0.471
14.54,32304.8,35679.7,1.6864,1.6681,136.8,98.2,0.471
14.56,32288.0,35593.7,1.5933,1.4568,136.8,98.2,0.471
14.58,32246.3,35361.5,1.363,0.8865,136.8,98.2,0.471
14.6,32047.6,35231.9,0.2642,0.5681,136.8,98.2,0.471
14.62,32093.0,35214.1,0.5151,0.5245,136.8,98.2,0.471
14.64,32089.6,35104.7,0.4962,0.2557,136.8,98.2,0.471
14.66,32025.3,35093.8,0.141,0.2289,136.8,98.2,0.471
14.68,32016.5,34896.2,0.092,-0.2563,136.8,98.2,0.471
14.7,31929.1,34855.7,-0.3912,-0.3558,136.8,98.2,0.471
14.72,31900.7,34780.8,-0.5481,-0.5398,136.8,98.2,0.471
14.74,31736.1,34617.7,-1.4588,-0.9405,136.8,98.2,0.471
14.76,31807.7,34659.4,-1.0626,-0.838,136.8,98.2,0.471
14.78,31876.8,34665.0,-0.6805,-0.8245,136.8,98.2,0.471
14.8,31915.0,34670.9,-0.4691,-0.8098,136.8,98.2,0.471
14.82,31754.9,34536.6,-1.3544,-1.1397,136.8,98.2,0.471
14.84,31749.4,34570.1,-1.3851,-1.0574,136.8,98.2,0.471
14.86,31760.6,34508.4,-1.3232,-1.2089,136.8,98.2,0.471
14.88,31825.5,34712.5,-0.9639,-0.7076,136.8,98.2,0.471
14.9,32075.0,34988.3,0.4157,-0.0302,136.8,98.2,0.471
14.92,32155.0,35355.8,0.8578,0.8725,136.8,98.2,0.471
14.94,32271.1,35610.2,1.5,1.4973,136.8,98.2,0.471
14.96,32320.1,35760.5,1.7709,1.8666,136.8,98.2,0.471
14.98,32304.5,35697.5,1.6846,1.712,136.8,98.2,0.471
15.0,32298.1,35516.4,1.6497,1.2671,136.8,98.2,0.471
15.02,32088.2,35420.7,0.4884,1.0319,136.8,98.2,0.471
15.04,32067.0,35255.2,0.3712,0.6253,136.8,98.2,0.471
15.06,32106.7,35003.2,0.5912,0.0065,136.8,98.2,0.471
15.08,31988.5,35167.0,-0.0625,0.4087,136.8,98.2,0.471
15.1,31984.9,35022.6,-0.0825,0.0542,136.8,98.2,0.471
15.12,32037.2,34984.7,0.2064,-0.0391,136.8,98.2,0.471
15.14,31954.1,34829.7,-0.2528,-0.4198,136.8,98.2,0.471
15.16,31826.5,34781.0,-0.9587,-0.5394,136.8,98.2,0.471
15.18,31890.8,34664.4,-0.6029,-0.8258,136.8,98.2,0.471
15.2,31837.6,34694.6,-0.897,-0.7515,136.8,98.2,0.471
15.22,31786.9,34574.4,-1.1775,-1.047,136.8,98.2,0.471
15.24,31844.2,34585.3,-0.8605,-1.0202,136.8,98.2,0.471
15.26,31872.4,34593.3,-0.7048,-1.0005,136.8,98.2,0.471
15.28,31752.3,34390.7,-1.3688,-1.4982,136.8,98.2,0.471
15.3,31807.2,34460.5,-1.0655,-1.3266,136.8,98.2,0.471
15.32,31744.9,34687.6,-1.4101,-0.7689,136.8,98.2,0.471
15.34,31942.3,34969.2,-0.3182,-0.0771,136.8,98.2,0.471
15.36,32188.3,35344.1,1.0422,0.8438,136.8,98.2,0.471
15.38,32284.1,35681.7,1.5718,1.6731,136.8,98.2,0.471
15.4,32404.4,35788.9,2.2373,1.9363,136.8,98.2,0.471
15.42,32296.2,35744.3,1.639,1.8267,136.8,98.2,0.471
15.44,32313.5,35531.6,1.7349,1.3044,136.8,98.2,0.471
15.46,32111.6,35403.3,0.618,0.9893,136.8,98.2,0.471
15.48,32102.3,35256.7,0.5668,0.6291,136.8,98.2,0.471
15.5,32071.9,35098.6,0.3984,0.2409,136.8,98.2,0.471
15.52,32033.3,35123.3,0.1851,0.3015,136.8,98.2,0.471
15.54,31933.2,35143.6,-0.3687,0.3513,136.8,98.2,0.471
15.56,31971.9,34967.2,-0.1545,-0.082,136.8,98.2,0.471
15.58,31875.1,34939.6,-0.69,-0.1497,136.8,98.2,0.471
15.6,31821.4,34604.0,-0.9865,-0.9742,136.8,98.2,0.471
15.62,31849.2,34712.3,-0.8331,-0.7082,136.8,98.2,0.471
15.64,31868.8,34686.4,-0.7247,-0.7717,136.8,98.2,0.471
15.66,31818.6,34583.7,-1.0025,-1.0242,136.8,98.2,0.471
15.68,31756.8,34583.5,-1.3441,-1.0245,136.8,98.2,0.471
15.7,31791.8,34516.3,-1.1505,-1.1896,136.8,98.2,0.471
15.72,31776.2,34448.1,-1.2367,-1.3571,136.8,98.2,0.471
15.74,31755.2,34443.5,-1.3532,-1.3683,136.8,98.2,0.471
15.76,31857.3,34687.5,-0.788,-0.769,136.8,98.2,0.471
15.78,32031.9,34982.1,0.1771,-0.0454,136.8,98.2,0.471
15.8,32110.6,35297.5,0.6123,0.7294,136.8,98.2,0.471
15.82,32229.1,35646.9,1.2676,1.5875,136.8,98.2,0.471
15.84,32302.6,35743.0,1.674,1.8236,136.8,98.2,0.471
15.86,32296.8,35746.8,1.6424,1.8329,136.8,98.2,0.471
15.88,32215.0,35523.7,1.1901,1.2851,136.8,98.2,0.471
15.9,32133.0,35403.5,0.7364,0.9898,136.8,98.2,0.471
15.92,32125.8,35244.9,0.6965,0.6002,136.8,98.2,0.471
15.94,32030.2,35085.0,0.1677,0.2073,136.8,98.2,0.471
15.96,32097.3,35056.5,0.5392,0.1373,136.8,98.2,0.471
15.98,32013.0,35054.8,0.0727,0.1332,136.8,98.2,0.471
16.0,31983.1,34984.4,-0.0924,-0.0398,136.8,98.2,0.471
16.02,31979.1,34798.2,-0.1149,-0.4971,136.8,98.2,0.471
16.04,31921.7,34773.9,-0.4322,-0.5569,136.8,98.2,0.471
16.06,31836.5,34576.9,-0.9032,-1.0408,136.8,98.2,0.471
16.08,31799.5,34679.9,-1.1079,-0.7877,136.8,98.2,0.471
16.1,31802.5,34622.6,-1.0912,-0.9286,136.8,98.2,0.471
16.12,31876.2,34610.6,-0.6839,-0.958,136.8,98.2,0.471
16.14,31798.3,34545.6,-1.1145,-1.1176,136.8,98.2,0.471
16.16,31759.6,34431.0,-1.3284,-1.3992,136.8,98.2,0.471
16.18,31849.9,34496.9,-0.8292,-1.2372,136.8,98.2,0.471
16.2,31862.5,34638.9,-0.7592,-0.8885,136.8,98.2,0.471
16.22,32018.1,35118.2,0.1007,0.2889,136.8,98.2,0.471
16.24,32261.3,35386.7,1.4461,0.9483,136.8,98.2,0.471
16.26,32352.8,35587.1,1.952,1.4406,136.8,98.2,0.471
16.28,32299.4,35740.4,1.6565,1.8172,136.8,98.2,0.471
16.3,32323.8,35727.5,1.7913,1.7855,136.8,98.2,0.471
16.32,32187.1,35468.2,1.0356,1.1487,136.8,98.2,0.471
16.34,32084.1,35303.8,0.466,0.7448,136.8,98.2,0.471
16.36,32142.7,35131.7,0.79,0.3221,136.8,98.2,0.471
16.38,32071.7,35062.8,0.3977,0.1529,136.8,98.2,0.471
16.4,32059.8,35089.6,0.3318,0.2185,136.8,98.2,0.471
16.42,32029.2,34983.4,0.1623,-0.0423,136.8,98.2,0.471
16.44,31957.5,34885.6,-0.2344,-0.2825,136.8,98.2,0.471
16.46,31911.1,34699.3,-0.4908,-0.7401,136.8,98.2,0.471
16.48,31916.2,34680.8,-0.4624,-0.7854,136.8,98.2,0.471
16.5,31940.0,34661.0,-0.3308,-0.8341,136.8,98.2,0.471
16.52,31841.4,34703.5,-0.8763,-0.7298,136.8,98.2,0.471
16.54,31767.8,34568.1,-1.2833,-1.0623,136.8,98.2,0.471
16.56,31841.7,34654.1,-0.8743,-0.8512,136.8,98.2,0.471
16.58,31654.7,34447.8,-1.9086,-1.3578,136.8,98.2,0.471
16.6,31759.7,34517.9,-1.3279,-1.1856,136.8,98.2,0.471
16.62,31755.1,34584.5,-1.3533,-1.022,136.8,98.2,0.471
16.64,31886.0,34648.7,-0.6294,-0.8644,136.8,98.2,0.471
16.66,32036.0,35061.5,0.2,0.1495,136.8,98.2,0.471
16.68,32162.3,35388.8,0.8985,0.9536,136.8,98.2,0.471
16.7,32260.4,35741.7,1.4408,1.8204,136.8,98.2,0.471
16.72,32353.4,35701.9,1.9555,1.7227,136.8,98.2,0.471
16.74,32253.3,35681.0,1.4016,1.6714,136.8,98.2,0.471
16.76,32136.4,35527.6,0.7552,1.2946,136.8,98.2,0.471
16.78,32171.5,35332.9,0.9495,0.8162,136.8,98.2,0.471
16.8,32048.4,35205.9,0.2686,0.5042,136.8,98.2,0.471
16.82,31932.6,35234.9,-0.3719,0.5756,136.8,98.2,0.471
16.84,31972.9,35063.8,-0.1492,0.1554,136.8,98.2,0.471
16.86,31977.5,35093.9,-0.1234,0.2293,136.8,98.2,0.471
16.88,32001.0,34893.5,0.0063,-0.263,136.8,98.2,0.471
16.9,31984.3,34787.4,-0.0857,-0.5237,136.8,98.2,0.471
16.92,31850.7,34776.5,-0.8249,-0.5503,136.8,98.2,0.471
16.94,31861.6,34619.9,-0.7646,-0.935,136.8,98.2,0.471
16.96,31881.8,34750.9,-0.6528,-0.6133,136.8,98.2,0.471
16.98,31755.1,34579.3,-1.3535,-1.0348,136.8,98.2,0.471
17.0,31815.4,34581.2,-1.0199,-1.0303,136.8,98.2,0.471
17.02,31761.9,34597.8,-1.3158,-0.9894,136.8,98.2,0.471
17.04,31832.7,34414.6,-0.9242,-1.4395,136.8,98.2,0.471
17.06,31859.9,34519.7,-0.7737,-1.1813,136.8,98.2,0.471
17.08,31805.1,34771.9,-1.0767,-0.5617,136.8,98.2,0.471
17.1,32132.2,35064.5,0.7322,0.157,136.8,98.2,0.471
17.12,32181.7,35455.2,1.0058,1.1166,136.8,98.2,0.471
17.14,32301.1,35729.7,1.6658,1.791,136.8,98.2,0.471
17.16,32221.0,35776.0,1.223,1.9048,136.8,98.2,0.471
17.18,32298.4,35613.6,1.6513,1.5057,136.8,98.2,0.471
17.2,32135.3,35512.4,0.7492,1.2571,136.8,98.2,0.471
17.22,32108.1,35233.8,0.5988,0.573,136.8,98.2,0.471
17.24,32094.5,35199.5,0.5236,0.4887,136.8,98.2,0.471
17.26,31997.0,35068.9,-0.0157,0.1679,136.8,98.2,0.471
17.28,31997.2,35069.7,-0.0144,0.1697,136.8,98.2,0.471
17.3,31999.4,35097.5,-0.0023,0.2381,136.8,98.2,0.471
17.32,31962.7,34999.9,-0.2052,-0.0016,136.8,98.2,0.471
17.34,31971.2,34851.2,-0.1584,-0.3669,136.8,98.2,0.471
17.36,31871.3,34703.8,-0.7106,-0.7291,136.8,98.2,0.471
17.38,31853.8,34689.7,-0.8076,-0.7637,136.8,98.2,0.471
17.4,31904.4,34734.9,-0.5279,-0.6525,136.8,98.2,0.471
17.42,31867.5,34653.5,-0.7321,-0.8527,136.8,98.2,0.471
17.44,31772.4,34560.5,-1.2577,-1.0811,136.8,98.2,0.471
17.46,31741.1,34434.2,-1.4308,-1.3913,136.8,98.2,0.471
17.48,31751.8,34376.5,-1.3718,-1.533,136.8,98.2,0.471
17.5,31816.8,34632.0,-1.0124,-0.9053,136.8,98.2,0.471
17.52,31874.9,34810.1,-0.691,-0.468,136.8,98.2,0.471
17.54,32056.5,35093.8,0.3132,0.2291,136.8,98.2,0.471
17.56,32189.8,35438.6,1.0504,1.0759,136.8,98.2,0.471
17.58,32321.0,35661.8,1.7761,1.6243,136.8,98.2,0.471
17.6,32339.2,35641.8,1.8766,1.5752,136.8,98.2,0.471
17.62,32318.9,35664.4,1.7646,1.6305,136.8,98.2,0.471
17.64,32264.1,35504.0,1.4612,1.2366,136.8,98.2,0.471
17.66,32181.3,35308.9,1.0036,0.7573,136.8,98.2,0.471
17.68,32088.3,35164.4,0.4891,0.4023,136.8,98.2,0.471
17.7,32029.7,35120.8,0.1653,0.2954,136.8,98.2,0.471
17.72,32010.9,35057.7,0.061,0.1403,136.8,98.2,0.471
17.74,31946.7,34993.9,-0.2939,-0.0164,136.8,98.2,0.471
17.76,31995.0,34886.5,-0.0267,-0.2802,136.8,98.2,0.471
17.78,31912.7,34786.7,-0.482,-0.5254,136.8,98.2,0.471
17.8,31898.5,34617.3,-0.5603,-0.9414,136.8,98.2,0.471
17.82,31871.3,34597.3,-0.711,-0.9907,136.8,98.2,0.471
17.84,31840.8,34675.3,-0.8793,-0.7991,136.8,98.2,0.471
17.86,31821.8,34638.0,-0.9844,-0.8906,136.8,98.2,0.471
17.88,31803.5,34655.5,-1.086,-0.8477,136.8,98.2,0.471
17.9,31850.7,34461.8,-0.8245,-1.3235,136.8,98.2,0.471
17.92,31767.5,34378.7,-1.2847,-1.5275,136.8,98.2,0.471
17.94,31698.1,34461.1,-1.6685,-1.3252,136.8,98.2,0.471
17.96,31952.9,34760.7,-0.2599,-0.5893,136.8,98.2,0.471
17.98,32075.8,35079.1,0.4199,0.1928,136.8,98.2,0.471
18.0,32146.6,35434.8,0.8115,1.0666,136.8,98.2,0.471
18.02,32300.8,35677.6,1.6642,1.6629,136.8,98.2,0.471
18.04,32358.3,35701.4,1.9824,1.7214,136.8,98.2,0.471
18.06,32310.0,35687.0,1.7153,1.6862,136.8,98.2,0.471
18.08,32248.5,35460.8,1.3753,1.1303,136.8,98.2,0.471
18.1,32094.5,35347.3,0.5233,0.8518,136.8,98.2,0.471
18.12,32133.4,35140.9,0.7387,0.3447,136.8,98.2,0.471
18.14,31995.4,35047.0,-0.0247,0.114,136.8,98.2,0.471
18.16,32135.6,35045.3,0.7508,0.1097,136.8,98.2,0.471
18.18,31905.3,35081.4,-0.5226,0.1985,136.8,98.2,0.471
18.2,31876.0,34860.7,-0.6848,-0.3435,136.8,98.2,0.471
18.22,31919.0,34710.9,-0.4468,-0.7115,136.8,98.2,0.471
18.24,31937.6,34848.5,-0.3442,-0.3736,136.8,98.2,0.471
18.26,31915.1,34752.1,-0.4685,-0.6104,136.8,98.2,0.471
18.28,31853.4,34588.1,-0.8097,-1.0134,136.8,98.2,0.471
18.3,31841.4,34596.3,-0.8764,-0.9931,136.8,98.2,0.471
18.32,31814.0,34515.8,-1.0279,-1.1908,136.8,98.2,0.471
18.34,31801.3,34467.0,-1.0979,-1.3107,136.8,98.2,0.471
18.36,31778.9,34402.7,-1.2216,-1.4686,136.8,98.2,0.471
18.38,31768.2,34443.5,-1.2809,-1.3684,136.8,98.2,0.471
18.4,31968.3,34843.3,-0.1743,-0.3864,136.8,98.2,0.471
18.42,32093.7,35129.8,0.5189,0.3175,136.8,98.2,0.471
18.44,32321.4,35382.3,1.7785,0.9375,136.8,98.2,0.471
18.46,32330.8,35655.7,1.8301,1.6093,136.8,98.2,0.471
18.48,32295.6,35644.4,1.6357,1.5815,136.8,98.2,0.471
18.5,32238.1,35674.5,1.3176,1.6553,136.8,98.2,0.471
18.52,32187.9,35490.4,1.0398,1.2033,136.8,98.2,0.471
18.54,32112.4,35222.2,0.6227,0.5442,136.8,98.2,0.471
18.56,32114.1,35298.4,0.6319,0.7316,136.8,98.2,0.471
18.58,32040.1,35107.8,0.2227,0.2633,136.8,98.2,0.471
18.6,31984.5,35112.6,-0.085,0.2752,136.8,98.2,0.471
18.62,32031.3,34930.9,0.1742,-0.1712,136.8,98.2,0.471
18.64,31930.0,34926.5,-0.386,-0.182,136.8,98.2,0.471
18.66,31943.1,34718.2,-0.3139,-0.6936,136.8,98.2,0.471
18.68,31880.4,34654.8,-0.6605,-0.8495,136.8,98.2,0.471
18.7,31843.0,34651.9,-0.8675,-0.8565,136.8,98.2,0.471
18.72,31877.1,34635.4,-0.679,-0.897,136.8,98.2,0.471
18.74,31773.4,34575.7,-1.2522,-1.0436,136.8,98.2,0.471
18.76,31839.2,34529.4,-0.8882,-1.1575,136.8,98.2,0.471
18.78,31725.6,34517.5,-1.5165,-1.1866,136.8,98.2,0.471
18.8,31744.5,34467.0,-1.4122,-1.3108,136.8,98.2,0.471
18.82,31866.7,34563.2,-0.736,-1.0744,136.8,98.2,0.471
18.84,31968.9,34760.8,-0.171,-0.5891,136.8,98.2,0.471
18.86,32072.5,35216.9,0.4018,0.5314,136.8,98.2,0.471
18.88,32211.7,35539.7,1.1714,1.3243,136.8,98.2,0.471
18.9,32372.3,35767.8,2.0597,1.8846,136.8,98.2,0.471
18.92,32340.9,35788.2,1.8859,1.9347,136.8,98.2,0.471
18.94,32248.7,35633.3,1.376,1.5541,136.8,98.2,0.471
18.96,32184.8,35446.1,1.0227,1.0943,136.8,98.2,0.471
18.98,32011.1,35216.1,0.0623,0.5293,136.8,98.2,0.471
19.0,32078.1,35213.7,0.4325,0.5234,136.8,98.2,0.471
19.02,32141.7,35104.8,0.7845,0.2561,136.8,98.2,0.471
19.04,31944.5,35066.0,-0.306,0.1606,136.8,98.2,0.471
19.06,31833.0,34970.0,-0.9224,-0.0751,136.8,98.2,0.471
19.08,32004.7,34866.0,0.0268,-0.3306,136.8,98.2,0.471
19.1,31923.6,34705.0,-0.4218,-0.7262,136.8,98.2,0.471
19.12,31785.0,34690.6,-1.1878,-0.7614,136.8,98.2,0.471
19.14,31844.4,34642.0,-0.8597,-0.8809,136.8,98.2,0.471
19.16,31793.1,34679.1,-1.1434,-0.7898,136.8,98.2,0.471
19.18,31845.0,34545.7,-0.8563,-1.1174,136.8,98.2,0.471
19.2,31750.2,34590.6,-1.3803,-1.0072,136.8,98.2,0.471
19.22,31636.5,34453.2,-2.0094,-1.3447,136.8,98.2,0.471
19.24,31844.9,34480.6,-0.8571,-1.2774,136.8,98.2,0.471
19.26,31815.0,34499.9,-1.0221,-1.2299,136.8,98.2,0.471
19.28,31989.5,34912.0,-0.0572,-0.2176,136.8,98.2,0.471
19.3,32016.7,35199.4,0.0935,0.4883,136.8,98.2,0.471
19.32,32201.5,35616.8,1.1151,1.5136,136.8,98.2,0.471
19.34,32276.3,35852.6,1.529,2.0929,136.8,98.2,0.471
19.36,32325.3,35720.0,1.8,1.7672,136.8,98.2,0.471
19.38,32208.8,35699.0,1.1559,1.7155,136.8,98.2,0.471
19.4,32187.7,35318.5,1.0388,0.7808,136.8,98.2,0.471
19.42,32173.2,35258.4,0.9585,0.6334,136.8,98.2,0.471
19.44,32137.2,35209.9,0.7595,0.5141,136.8,98.2,0.471
19.46,31928.4,35101.4,-0.3953,0.2476,136.8,98.2,0.471
19.48,31961.9,35074.2,-0.2101,0.1809,136.8,98.2,0.471
19.5,31850.4,34898.3,-0.8264,-0.2513,136.8,98.2,0.471
19.52,31968.8,34933.4,-0.1717,-0.165,136.8,98.2,0.471
19.54,31849.3,34761.6,-0.8326,-0.587,136.8,98.2,0.471
19.56,31906.9,34666.0,-0.5142,-0.8219,136.8,98.2,0.471
19.58,31880.4,34808.2,-0.6604,-0.4727,136.8,98.2,0.471
19.6,31800.4,34679.8,-1.1029,-0.7879,136.8,98.2,0.471
19.62,31850.6,34679.7,-0.8255,-0.7882,136.8,98.2,0.471
19.64,31791.9,34543.5,-1.1502,-1.1228,136.8,98.2,0.471
19.66,31711.1,34499.1,-1.5967,-1.2317,136.8,98.2,0.471
19.68,31718.2,34493.7,-1.5577,-1.2451,136.8,98.2,0.471
19.7,31807.4,34592.3,-1.0642,-1.0029,136.8,98.2,0.471
19.72,31875.5,34914.3,-0.6876,-0.212,136.8,98.2,0.471
19.74,32111.8,35221.9,0.6194,0.5435,136.8,98.2,0.471
19.76,32198.1,35523.7,1.0963,1.2849,136.8,98.2,0.471
19.78,32385.6,35715.5,2.1333,1.7561,136.8,98.2,0.471
19.8,32171.3,35756.5,0.9484,1.8567,136.8,98.2,0.471
19.82,32352.3,35613.3,1.9492,1.505,136.8,98.2,0.471
19.84,32182.4,35462.8,1.0098,1.1353,136.8,98.2,0.471
19.86,32067.3,35224.3,0.3733,0.5496,136.8,98.2,0.471
19.88,32044.1,35136.1,0.2448,0.3328,136.8,98.2,0.471
19.9,32067.3,35112.4,0.373,0.2745,136.8,98.2,0.471
19.92,31958.5,35003.6,-0.2289,0.0075,136.8,98.2,0.471
19.94,31955.6,34951.3,-0.2444,-0.1211,136.8,98.2,0.471
19.96,31934.5,34852.4,-0.3612,-0.3639,136.8,98.2,0.471
19.98,31847.7,34759.5,-0.8412,-0.5923,136.8,98.2,0.471
20.0,31831.9,34673.2,-0.9285,-0.8042,136.8,98.2,0.471
20.02,31840.8,34714.6,-0.8793,-0.7026,136.8,98.2,0.471
20.04,31775.6,34623.6,-1.24,-0.9261,136.8,98.2,0.471
20.06,31784.6,34669.3,-1.1906,-0.8139,136.8,98.2,0.471
20.08,31769.0,34476.3,-1.2765,-1.288,136.8,98.2,0.471
20.1,31751.4,34512.7,-1.3738,-1.1986,136.8,98.2,0.471
20.12,31801.3,34460.8,-1.0982,-1.3259,136.8,98.2,0.471
20.14,31852.5,34562.9,-0.815,-1.0752,136.8,98.2,0.471
20.16,31963.5,34910.0,-0.2008,-0.2226,136.8,98.2,0.471
20.18,32180.4,35188.8,0.9988,0.4622,136.8,98.2,0.471
20.2,32304.5,35473.1,1.6848,1.1607,136.8,98.2,0.471
20.22,32302.9,35746.7,1.676,1.8327,136.8,98.2,0.471
20.24,32259.6,35805.2,1.4366,1.9765,136.8,98.2,0.471
20.26,32296.8,35602.2,1.642,1.4779,136.8,98.2,0.471
20.28,32123.0,35453.5,0.6814,1.1125,136.8,98.2,0.471
20.3,32166.8,35178.6,0.9231,0.4373,136.8,98.2,0.471
20.32,32040.9,35158.6,0.2273,0.3882,136.8,98.2,0.471
20.34,32070.6,35061.2,0.3912,0.149,136.8,98.2,0.471
20.36,32033.4,35048.3,0.1857,0.1173,136.8,98.2,0.471
20.38,32020.4,34907.0,0.1138,-0.23,136.8,98.2,0.471
20.4,31934.0,34786.6,-0.3643,-0.5257,136.8,98.2,0.471
20.42,31907.3,34658.0,-0.5115,-0.8416,136.8,98.2,0.471
20.44,31824.5,34643.0,-0.9694,-0.8784,136.8,98.2,0.471
20.46,31883.6,34675.8,-0.6429,-0.7979,136.8,98.2,0.471
20.48,31907.7,34573.7,-0.5094,-1.0486,136.8,98.2,0.471
20.5,31835.3,34612.9,-0.9098,-0.9524,136.8,98.2,0.471
20.52,31786.3,34635.5,-1.1808,-0.8969,136.8,98.2,0.471
20.54,31748.2,34486.0,-1.3918,-1.264,136.8,98.2,0.471
20.56,31793.8,34555.2,-1.1395,-1.0939,136.8,98.2,0.471
20.58,31768.6,34662.7,-1.2786,-0.8301,136.8,98.2,0.471
20.6,31919.4,35022.8,-0.4446,0.0546,136.8,98.2,0.471
20.62,32201.9,35325.9,1.1172,0.7992,136.8,98.2,0.471
20.64,32249.6,35651.6,1.3811,1.5991,136.8,98.2,0.471
20.66,32346.0,35669.5,1.9144,1.643,136.8,98.2,0.471
20.68,32257.4,35807.8,1.4244,1.9828,136.8,98.2,0.471
20.7,32220.5,35627.8,1.2204,1.5407,136.8,98.2,0.471
20.72,32095.9,35292.1,0.5313,0.7161,136.8,98.2,0.471
20.74,32074.0,35243.1,0.4104,0.5956,136.8,98.2,0.471
20.76,32055.1,35234.9,0.3054,0.5754,136.8,98.2,0.471
20.78,32066.1,35176.9,0.3662,0.4331,136.8,98.2,0.471
20.8,31949.5,35094.8,-0.2781,0.2314,136.8,98.2,0.471
20.82,31979.3,34846.3,-0.1137,-0.3791,136.8,98.2,0.471
20.84,31999.4,34890.2,-0.0023,-0.2711,136.8,98.2,0.471
20.86,31943.8,34702.9,-0.3101,-0.7314,136.8,98.2,0.471
20.88,31849.1,34724.2,-0.8337,-0.679,136.8,98.2,0.471
20.9,31843.3,34646.2,-0.8658,-0.8706,136.8,98.2,0.471
20.92,31849.9,34619.1,-0.8294,-0.937,136.8,98.2,0.471
20.94,31901.5,34574.2,-0.5439,-1.0473,136.8,98.2,0.471
20.96,31853.0,34568.5,-0.8119,-1.0613,136.8,98.2,0.471
20.98,31761.2,34469.3,-1.3199,-1.305,136.8,98.2,0.471
21.0,31815.0,34440.6,-1.0221,-1.3755,136.8,98.2,0.471
21.02,31885.4,34620.3,-0.6327,-0.9341,136.8,98.2,0.471
21.04,32010.3,35001.1,0.0577,0.0012,136.8,98.2,0.471
21.06,32094.7,35276.9,0.5244,0.6786,136.8,98.2,0.471
21.08,32291.0,35596.0,1.61,1.4625,136.8,98.2,0.471
21.1,32295.6,35707.7,1.6356,1.7369,136.8,98.2,0.471
21.12,32325.9,35806.6,1.803,1.9798,136.8,98.2,0.471
21.14,32206.2,35553.9,1.1415,1.359,136.8,98.2,0.471
21.16,32082.3,35405.0,0.4562,0.9934,136.8,98.2,0.471
21.18,32157.9,35189.9,0.8744,0.4651,136.8,98.2,0.471
21.2,32023.7,35098.2,0.1322,0.2398,136.8,98.2,0.471
21.22,31896.0,35076.0,-0.5745,0.1852,136.8,98.2,0.471
21.24,31965.4,34999.2,-0.1905,-0.0033,136.8,98.2,0.471
21.26,31944.7,34957.9,-0.3048,-0.1048,136.8,98.2,0.471
21.28,31904.7,34842.9,-0.5262,-0.3874,136.8,98.2,0.471
21.3,31947.1,34749.6,-0.2914,-0.6164,136.8,98.2,0.471
21.32,31856.3,34796.8,-0.7938,-0.5005,136.8,98.2,0.471
21.34,31846.0,34610.8,-0.8507,-0.9574,136.8,98.2,0.471
21.36,31922.7,34631.5,-0.4265,-0.9066,136.8,98.2,0.471
21.38,31797.1,34568.3,-1.1211,-1.0619,136.8,98.2,0.471
21.4,31742.5,34549.6,-1.4232,-1.1078,136.8,98.2,0.471
21.42,31765.0,34430.0,-1.2987,-1.4017,136.8,98.2,0.471
21.44,31752.1,34475.7,-1.3699,-1.2894,136.8,98.2,0.471
21.46,31911.7,34593.3,-0.4875,-1.0006,136.8,98.2,0.471
21.48,31916.3,34981.9,-0.4621,-0.0459,136.8,98.2,0.471
21.5,32085.9,35301.4,0.476,0.739,136.8,98.2,0.471
21.52,32299.7,35645.8,1.6581,1.5848,136.8,98.2,0.471
21.54,32340.1,35708.9,1.8816,1.74,136.8,98.2,0.471
21.56,32183.8,35619.4,1.0172,1.52,136.8,98.2,0.471
21.58,32297.1,35451.7,1.6437,1.108,136.8,98.2,0.471
21.6,32138.6,35359.4,0.7673,0.8813,136.8,98.2,0.471
21.62,32105.7,35244.7,0.5852,0.5997,136.8,98.2,0.471
21.64,32088.4,35149.8,0.4895,0.3666,136.8,98.2,0.471
21.66,32121.8,35018.0,0.6747,0.0428,136.8,98.2,0.471
21.68,32047.1,34967.7,0.2616,-0.0808,136.8,98.2,0.471
21.7,31988.5,34834.4,-0.0626,-0.4083,136.8,98.2,0.471
21.72,31872.0,34841.4,-0.7068,-0.3909,136.8,98.2,0.471
21.74,31893.2,34794.2,-0.5899,-0.5071,136.8,98.2,0.471
21.76,31753.1,34745.3,-1.3645,-0.6271,136.8,98.2,0.471
21.78,31841.1,34642.7,-0.878,-0.8791,136.8,98.2,0.471
21.8,31852.5,34610.6,-0.8148,-0.9579,136.8,98.2,0.471
21.82,31814.7,34633.7,-1.0239,-0.9013,136.8,98.2,0.471
21.84,31773.7,34544.8,-1.2504,-1.1195,136.8,98.2,0.471
21.86,31839.3,34537.2,-0.8877,-1.1383,136.8,98.2,0.471
21.88,31822.1,34383.8,-0.9832,-1.5151,136.8,98.2,0.471
21.9,31840.6,34665.7,-0.8807,-0.8225,136.8,98.2,0.471
21.92,31990.9,34921.3,-0.0494,-0.1948,136.8,98.2,0.471
21.94,32135.1,35431.1,0.7481,1.0576,136.8,98.2,0.471
21.96,32303.0,35681.6,1.6764,1.6729,136.8,98.2,0.471
21.98,32276.0,35711.3,1.527,1.7459,136.8,98.2,0.471
22.0,32244.1,35682.3,1.3506,1.6747,136.8,98.2,0.471
22.02,32175.5,35523.7,0.9714,1.285,136.8,98.2,0.471
22.04,32044.6,35345.3,0.2474,0.8468,136.8,98.2,0.471
22.06,32041.2,35143.1,0.2289,0.3501,136.8,98.2,0.471
22.08,32024.1,35195.5,0.1341,0.4788,136.8,98.2,0.471
22.1,32014.3,35040.5,0.0797,0.098,136.8,98.2,0.471
22.12,31973.9,35053.2,-0.1434,0.1292,136.8,98.2,0.471
22.14,31950.2,34945.1,-0.2746,-0.1363,136.8,98.2,0.471
22.16,31968.5,34790.2,-0.1734,-0.5169,136.8,98.2,0.471
22.18,32013.0,34803.8,0.073,-0.4834,136.8,98.2,0.471
22.2,31830.7,34701.0,-0.9354,-0.736,136.8,98.2,0.471
22.22,31821.5,34720.8,-0.9861,-0.6872,136.8,98.2,0.471
22.24,31713.3,34653.8,-1.5848,-0.8519,136.8,98.2,0.471
22.26,31819.6,34529.2,-0.9968,-1.1579,136.8,98.2,0.471
22.28,31741.4,34479.5,-1.429,-1.28,136.8,98.2,0.471
22.3,31745.4,34549.7,-1.4071,-1.1076,136.8,98.2,0.471
22.32,31812.4,34558.8,-1.0364,-1.0853,136.8,98.2,0.471
22.34,31981.7,34694.3,-0.1003,-0.7524,136.8,98.2,0.471
22.36,31979.4,34905.2,-0.1132,-0.2343,136.8,98.2,0.471
22.38,32124.8,35403.4,0.6912,0.9895,136.8,98.2,0.471
22.4,32238.0,35631.7,1.3172,1.5503,136.8,98.2,0.471
22.42,32419.7,35676.2,2.3217,1.6596,136.8,98.2,0.471
22.44,32367.2,35634.8,2.0315,1.5578,136.8,98.2,0.471
22.46,32143.0,35524.7,0.7917,1.2873,136.8,98.2,0.471
22.48,32077.0,35324.1,0.4265,0.7946,136.8,98.2,0.471
22.5,32028.7,35184.0,0.1597,0.4506,136.8,98.2,0.471
22.52,32132.4,35160.0,0.7333,0.3915,136.8,98.2,0.471
22.54,32023.5,35024.7,0.1311,0.0593,136.8,98.2,0.471
22.56,31993.3,35003.9,-0.0364,0.0081,136.8,98.2,0.471
22.58,31988.0,34910.0,-0.0657,-0.2226,136.8,98.2,0.471
22.6,31900.2,34783.2,-0.5511,-0.5341,136.8,98.2,0.471
22.62,31765.5,34731.0,-1.2958,-0.6622,136.8,98.2,0.471
22.64,31803.2,34594.7,-1.0876,-0.997,136.8,98.2,0.471
22.66,31870.4,34651.8,-0.7157,-0.8567,136.8,98.2,0.471
22.68,31837.6,34540.3,-0.8969,-1.1306,136.8,98.2,0.471
22.7,31883.5,34606.2,-0.6433,-0.9687,136.8,98.2,0.471
22.72,31784.8,34543.6,-1.189,-1.1225,136.8,98.2,0.471
22.74,31738.2,34389.7,-1.4471,-1.5006,136.8,98.2,0.471
22.76,31728.2,34460.8,-1.5021,-1.3259,136.8,98.2,0.471
22.78,31831.5,34708.5,-0.931,-0.7175,136.8,98.2,0.471
22.8,32030.0,35055.0,0.1669,0.1336,136.8,98.2,0.471
22.82,32196.7,35448.5,1.0888,1.1003,136.8,98.2,0.471
22.84,32369.8,35684.8,2.0457,1.6808,136.8,98.2,0.471
22.86,32353.2,35676.0,1.9541,1.659,136.8,98.2,0.471
22.88,32336.3,35701.7,1.8608,1.7222,136.8,98.2,0.471
22.9,32168.5,35439.4,0.933,1.0779,136.8,98.2,0.471
22.92,32091.2,35380.8,0.5055,0.934,136.8,98.2,0.471
22.94,32113.1,35213.8,0.6266,0.5237,136.8,98.2,0.471
22.96,32058.1,35136.8,0.3221,0.3345,136.8,98.2,0.471
22.98,32066.3,35086.0,0.3677,0.2098,136.8,98.2,0.471
23.0,31911.7,35048.6,-0.4875,0.118,136.8,98.2,0.471
23.02,31953.1,34807.1,-0.2582,-0.4752,136.8,98.2,0.471
23.04,31957.1,34878.7,-0.2362,-0.2994,136.8,98.2,0.471
23.06,31912.8,34643.2,-0.4814,-0.8779,136.8,98.2,0.471
23.08,31928.7,34709.6,-0.3931,-0.7147,136.8,98.2,0.471
23.1,31821.2,34682.3,-0.9876,-0.7818,136.8,98.2,0.471
23.12,31893.6,34585.8,-0.5877,-1.0188,136.8,98.2,0.471
23.14,31754.7,34541.7,-1.3554,-1.1271,136.8,98.2,0.471
23.16,31781.8,34539.5,-1.206,-1.1326,136.8,98.2,0.471
23.18,31774.4,34418.7,-1.247,-1.4294,136.8,98.2,0.471
23.2,31824.6,34507.9,-0.9691,-1.2102,136.8,98.2,0.471
23.22,31883.2,34775.8,-0.6448,-0.5521,136.8,98.2,0.471
23.24,32030.1,35116.2,0.1673,0.2839,136.8,98.2,0.471
23.26,32191.3,35470.0,1.0589,1.1531,136.8,98.2,0.471
23.28,32354.9,35700.5,1.9638,1.7193,136.8,98.2,0.471
23.3,32424.2,35711.9,2.3465,1.7472,136.8,98.2,0.471
23.32,32242.4,35677.4,1.3413,1.6624,136.8,98.2,0.471
23.34,32227.2,35464.2,1.2573,1.1387,136.8,98.2,0.471
23.36,32047.9,35259.9,0.2655,0.637,136.8,98.2,0.471
23.38,32032.5,35154.6,0.1805,0.3783,136.8,98.2,0.471
23.4,32092.5,35111.8,0.5124,0.2733,136.8,98.2,0.471
23.42,32026.5,35010.7,0.1475,0.0248,136.8,98.2,0.471
23.44,31984.8,35033.5,-0.0833,0.081,136.8,98.2,0.471
23.46,31847.8,34996.3,-0.8409,-0.0106,136.8,98.2,0.471
23.48,31973.9,34830.2,-0.1435,-0.4185,136.8,98.2,0.471
23.5,31843.8,34651.0,-0.8627,-0.8588,136.8,98.2,0.471
23.52,31862.4,34688.0,-0.7599,-0.7678,136.8,98.2,0.471
23.54,31927.2,34643.1,-0.4019,-0.878,136.8,98.2,0.471
23.56,31841.2,34625.8,-0.8771,-0.9206,136.8,98.2,0.471
23.58,31750.5,34553.2,-1.3786,-1.0989,136.8,98.2,0.471
23.6,31701.2,34410.5,-1.6515,-1.4494,136.8,98.2,0.471
23.62,31707.3,34466.5,-1.6178,-1.3118,136.8,98.2,0.471
23.64,31767.7,34499.5,-1.2837,-1.2308,136.8,98.2,0.471
23.66,31995.6,34647.9,-0.0236,-0.8663,136.8,98.2,0.471
23.68,32096.8,35205.4,0.5364,0.5031,136.8,98.2,0.471
23.7,32211.1,35426.9,1.1686,1.0471,136.8,98.2,0.471
23.72,32323.6,35606.1,1.7906,1.4873,136.8,98.2,0.471
23.74,32295.5,35759.7,1.6353,1.8646,136.8,98.2,0.471
23.76,32230.0,35559.4,1.273,1.3726,136.8,98.2,0.471
23.78,32158.3,35464.7,0.8763,1.14,136.8,98.2,0.471
23.8,32243.8,35312.9,1.3491,0.7672,136.8,98.2,0.471
23.82,32023.2,35177.7,0.1294,0.435,136.8,98.2,0.471
23.84,32056.9,35133.9,0.3155,0.3275,136.8,98.2,0.471
23.86,32040.3,35040.8,0.2239,0.0989,136.8,98.2,0.471
23.88,32101.9,34919.3,0.5642,-0.1997,136.8,98.2,0.471
23.9,31835.4,34914.7,-0.9094,-0.211,136.8,98.2,0.471
23.92,31916.9,34827.5,-0.4585,-0.4251,136.8,98.2,0.471
23.94,31851.4,34714.1,-0.8209,-0.7037,136.8,98.2,0.471
23.96,31915.6,34611.6,-0.4661,-0.9555,136.8,98.2,0.471
23.98,31834.0,34729.3,-0.9171,-0.6663,136.8,98.2,0.471
24.0,31815.9,34583.5,-1.0172,-1.0245,136.8,98.2,0.471
24.02,31895.8,34532.7,-0.5756,-1.1494,136.8,98.2,0.471
24.04,31803.5,34511.0,-1.0859,-1.2026,136.8,98.2,0.471
24.06,31819.6,34535.4,-0.9965,-1.1427,136.8,98.2,0.471
24.08,31862.9,34538.1,-0.7571,-1.136,136.8,98.2,0.471
24.1,31863.6,34834.6,-0.7532,-0.4077,136.8,98.2,0.471
24.12,31978.4,35158.3,-0.1185,0.3875,136.8,98.2,0.471
24.14,32187.4,35451.1,1.0375,1.1065,136.8,98.2,0.471
24.16,32372.2,35726.1,2.0595,1.7822,136.8,98.2,0.471
24.18,32294.0,35839.0,1.627,2.0595,136.8,98.2,0.471
24.2,32232.9,35647.1,1.2889,1.588,136.8,98.2,0.471
24.22,32194.7,35447.2,1.0778,1.097,136.8,98.2,0.471
24.24,32078.7,35321.9,0.4363,0.7894,136.8,98.2,0.471
24.26,32079.6,35199.3,0.4408,0.4881,136.8,98.2,0.471
24.28,32067.2,35053.2,0.3725,0.1293,136.8,98.2,0.471
24.3,31988.7,35048.6,-0.0614,0.1178,136.8,98.2,0.471
24.32,31960.9,34961.4,-0.2151,-0.0962,136.8,98.2,0.471
24.34,31998.1,34918.3,-0.0096,-0.202,136.8,98.2,0.471
24.36,31889.6,34720.3,-0.6096,-0.6885,136.8,98.2,0.471
24.38,31887.5,34662.1,-0.621,-0.8315,136.8,98.2,0.471
24.4,31905.0,34664.7,-0.5244,-0.8252,136.8,98.2,0.471
24.42,31871.2,34607.1,-0.7111,-0.9666,136.8,98.2,0.471
24.44,31839.5,34672.9,-0.8867,-0.8049,136.8,98.2,0.471
24.46,31841.3,34570.8,-0.877,-1.0557,136.8,98.2,0.471
24.48,31770.4,34406.6,-1.2688,-1.4592,136.8,98.2,0.471
24.5,31889.6,34503.8,-0.6097,-1.2204,136.8,98.2,0.471
24.52,31790.2,34589.1,-1.1595,-1.0109,136.8,98.2,0.471
24.54,31933.6,34793.1,-0.3665,-0.5097,136.8,98.2,0.471
24.56,32020.1,35186.4,0.1118,0.4565,136.8,98.2,0.471
24.58,32183.7,35456.0,1.0167,1.1188,136.8,98.2,0.471
24.6,32252.0,35750.2,1.3947,1.8413,136.8,98.2,0.471
24.62,32362.7,35785.3,2.0068,1.9276,136.8,98.2,0.471
24.64,32244.2,35640.3,1.3512,1.5714,136.8,98.2,0.471
24.66,32160.0,35472.9,0.8857,1.1602,136.8,98.2,0.471
24.68,32162.4,35258.6,0.8991,0.6337,136.8,98.2,0.471
24.7,32135.0,35184.9,0.7477,0.4528,136.8,98.2,0.471
24.72,32058.9,35068.4,0.3269,0.1665,136.8,98.2,0.471
24.74,31950.5,35149.1,-0.2726,0.3648,136.8,98.2,0.471
24.76,31957.5,34965.6,-0.2343,-0.086,136.8,98.2,0.471
24.78,31938.5,34826.6,-0.339,-0.4273,136.8,98.2,0.471
24.8,31871.7,34831.5,-0.7086,-0.4153,136.8,98.2,0.471
24.82,31856.4,34746.5,-0.7933,-0.6241,136.8,98.2,0.471
24.84,31868.6,34692.5,-0.7259,-0.7568,136.8,98.2,0.471
24.86,31861.7,34641.1,-0.7638,-0.883,136.8,98.2,0.471
24.88,31851.6,34608.1,-0.8198,-0.964,136.8,98.2,0.471
24.9,31861.6,34543.3,-0.7644,-1.1233,136.8,98.2,0.471
24.92,31689.8,34463.0,-1.7148,-1.3205,136.8,98.2,0.471
24.94,31642.5,34441.9,-1.9763,-1.3724,136.8,98.2,0.471
24.96,31788.8,34555.4,-1.167,-1.0936,136.8,98.2,0.471
24.98,31979.1,34757.4,-0.1144,-0.5974,136.8,98.2,0.471
25.0,32038.9,35165.4,0.2162,0.4047,136.8,98.2,0.471
25.02,32185.5,35535.7,1.0267,1.3144,136.8,98.2,0.471
25.04,32350.5,35762.5,1.9391,1.8716,136.8,98.2,0.471
25.06,32365.8,35773.2,2.0239,1.8979,136.8,98.2,0.471
25.08,32264.8,35615.5,1.465,1.5104,136.8,98.2,0.471
25.1,32213.2,35507.9,1.1802,1.2462,136.8,98.2,0.471
25.12,32064.6,35144.6,0.3584,0.3538,136.8,98.2,0.471
25.14,32068.8,35286.8,0.3813,0.703,136.8,98.2,0.471
25.16,31967.3,35190.9,-0.1797,0.4674,136.8,98.2,0.471
25.18,32038.9,35042.5,0.2158,0.103,136.8,98.2,0.471
25.2,31915.8,34959.9,-0.4647,-0.1001,136.8,98.2,0.471
25.22,32041.8,34926.9,0.2323,-0.1811,136.8,98.2,0.471
25.24,31926.0,34800.7,-0.4086,-0.4909,136.8,98.2,0.471
25.26,31917.8,34745.1,-0.4536,-0.6275,136.8,98.2,0.471
25.28,31826.7,34645.2,-0.9575,-0.8731,136.8,98.2,0.471
25.3,31793.7,34634.0,-1.1398,-0.9005,136.8,98.2,0.471
25.32,31822.1,34583.4,-0.983,-1.0249,136.8,98.2,0.471
25.34,31746.8,34524.3,-1.3993,-1.1699,136.8,98.2,0.471
25.36,31756.8,34460.0,-1.3442,-1.3279,136.8,98.2,0.471
25.38,31711.8,34450.9,-1.5926,-1.3502,136.8,98.2,0.471
25.4,31851.7,34533.7,-0.819,-1.1468,136.8,98.2,0.471
25.42,31907.4,34838.3,-0.5112,-0.3987,136.8,98.2,0.471
25.44,32088.6,35254.3,0.4909,0.6233,136.8,98.2,0.471
25.46,32202.6,35527.0,1.1215,1.2931,136.8,98.2,0.471
25.48,32313.6,35733.6,1.7351,1.8005,136.8,98.2,0.471
25.5,32351.5,35723.4,1.9446,1.7756,136.8,98.2,0.471
25.52,32349.9,35579.2,1.9359,1.4213,136.8,98.2,0.471
25.54,32168.7,35341.9,0.9341,0.8384,136.8,98.2,0.471
25.56,32117.7,35217.9,0.6517,0.5337,136.8,98.2,0.471
25.58,32134.6,35184.2,0.745,0.4511,136.8,98.2,0.471
25.6,32037.5,35092.1,0.2084,0.2247,136.8,98.2,0.471
25.62,31945.5,35063.7,-0.3004,0.155,136.8,98.2,0.471
25.64,32027.2,34978.7,0.1515,-0.0537,136.8,98.2,0.471
25.66,31913.1,34803.4,-0.4797,-0.4843,136.8,98.2,0.471
25.68,31899.0,34792.6,-0.5577,-0.511,136.8,98.2,0.471
25.7,31813.6,34684.5,-1.0297,-0.7764,136.8,98.2,0.471
25.72,31904.4,34592.1,-0.5276,-1.0034,136.8,98.2,0.471
25.74,31813.3,34563.1,-1.0314,-1.0747,136.8,98.2,0.471
25.76,31868.5,34632.3,-0.7261,-0.9046,136.8,98.2,0.471
25.78,31789.1,34589.1,-1.1655,-1.0108,136.8,98.2,0.471
25.8,31680.5,34443.7,-1.7662,-1.3679,136.8,98.2,0.471
25.82,31739.8,34460.1,-1.4381,-1.3276,136.8,98.2,0.471
25.84,31861.1,34513.7,-0.7674,-1.196,136.8,98.2,0.471
25.86,31934.8,34893.2,-0.3595,-0.2638,136.8,98.2,0.471
25.88,32095.7,35154.0,0.5301,0.3769,136.8,98.2,0.471
25.9,32214.0,35489.5,1.1846,1.2011,136.8,98.2,0.471
25.92,32345.0,35688.9,1.9089,1.6908,136.8,98.2,0.471
25.94,32370.1,35701.7,2.0474,1.7221,136.8,98.2,0.471
25.96,32229.9,35527.5,1.2722,1.2942,136.8,98.2,0.471
25.98,32193.4,35393.8,1.0702,0.9658,136.8,98.2,0.471
26.0,32062.1,35241.2,0.3441,0.591,136.8,98.2,0.471
26.02,31991.3,35133.6,-0.047,0.3266,136.8,98.2,0.471
26.04,32039.5,35013.0,0.2196,0.0306,136.8,98.2,0.471
26.06,32076.1,35009.2,0.4215,0.0211,136.8,98.2,0.471
26.08,31968.0,34988.1,-0.1759,-0.0307,136.8,98.2,0.471
26.1,31967.0,34875.6,-0.1818,-0.3071,136.8,98.2,0.471
26.12,31879.5,34767.4,-0.6655,-0.5728,136.8,98.2,0.471
26.14,31788.5,34690.7,-1.1689,-0.7613,136.8,98.2,0.471
26.16,31927.0,34630.8,-0.4029,-0.9084,136.8,98.2,0.471
26.18,31859.9,34630.4,-0.7738,-0.9092,136.8,98.2,0.471
26.2,31764.9,34625.4,-1.2992,-0.9216,136.8,98.2,0.471
26.22,31801.3,34594.2,-1.0977,-0.9982,136.8,98.2,0.471
26.24,31709.8,34460.3,-1.6039,-1.3271,136.8,98.2,0.471
26.26,31784.5,34434.5,-1.191,-1.3905,136.8,98.2,0.471
26.28,31857.6,34597.5,-0.7867,-0.9901,136.8,98.2,0.471
26.3,31968.8,34855.5,-0.1719,-0.3563,136.8,98.2,0.471
26.32,32122.0,35265.0,0.6754,0.6495,136.8,98.2,0.471
26.34,32243.4,35570.9,1.3471,1.4009,136.8,98.2,0.471
26.36,32294.5,35787.2,1.6294,1.9322,136.8,98.2,0.471
26.38,32316.3,35682.9,1.7502,1.6761,136.8,98.2,0.471
26.4,32295.5,35551.1,1.6351,1.3522,136.8,98.2,0.471
26.42,32213.6,35331.5,1.1823,0.8128,136.8,98.2,0.471
26.44,32087.6,35142.7,0.4856,0.3491,136.8,98.2,0.471
26.46,32049.2,35208.5,0.2732,0.5107,136.8,98.2,0.471
26.48,32127.1,35164.4,0.7036,0.4025,136.8,98.2,0.471
26.5,31998.7,35044.8,-0.006,0.1085,136.8,98.2,0.471
26.52,32026.3,34841.3,0.1463,-0.3914,136.8,98.2,0.471
26.54,31913.9,34854.7,-0.475,-0.3583,136.8,98.2,0.471
26.56,31821.2,34725.8,-0.9881,-0.6751,136.8,98.2,0.471
26.58,31946.4,34773.7,-0.2958,-0.5572,136.8,98.2,0.471
26.6,31918.5,34606.0,-0.4501,-0.9692,136.8,98.2,0.471
26.62,31896.2,34610.2,-0.5729,-0.959,136.8,98.2,0.471
26.64,31874.4,34573.8,-0.6939,-1.0485,136.8,98.2,0.471
26.66,31776.6,34586.0,-1.2347,-1.0183,136.8,98.2,0.471
26.68,31774.4,34506.1,-1.2465,-1.2146,136.8,98.2,0.471
26.7,31758.7,34499.0,-1.3335,-1.232,136.8,98.2,0.471
26.72,31859.0,34592.8,-0.7787,-1.0016,136.8,98.2,0.471
26.74,31939.2,34935.3,-0.3353,-0.1603,136.8,98.2,0.471
26.76,32131.6,35282.9,0.7287,0.6936,136.8,98.2,0.471
26.78,32339.2,35582.4,1.8766,1.4291,136.8,98.2,0.471
26.8,32302.8,35680.8,1.6756,1.6708,136.8,98.2,0.471
26.82,32313.1,35706.7,1.7326,1.7345,136.8,98.2,0.471
26.84,32269.5,35606.5,1.4912,1.4883,136.8,98.2,0.471
26.86,32216.2,35361.7,1.1966,0.887,136.8,98.2,0.471
26.88,32116.6,35194.8,0.6455,0.4769,136.8,98.2,0.471
26.9,32119.5,35131.1,0.6617,0.3205,136.8,98.2,0.471
26.92,32018.2,35175.7,0.1014,0.4302,136.8,98.2,0.471
26.94,31968.2,35093.1,-0.1751,0.2272,136.8,98.2,0.471
26.96,31999.2,34946.4,-0.0034,-0.1331,136.8,98.2,0.471
26.98,31882.2,34836.7,-0.6504,-0.4026,136.8,98.2,0.471
27.0,31951.7,34800.1,-0.2663,-0.4926,136.8,98.2,0.471
27.02,31864.3,34646.4,-0.7498,-0.8699,136.8,98.2,0.471
27.04,31781.3,34663.9,-1.2088,-0.827,136.8,98.2,0.471
27.06,31857.1,34647.7,-0.7892,-0.8668,136.8,98.2,0.471
27.08,31782.6,34600.4,-1.2016,-0.9831,136.8,98.2,0.471
27.1,31834.9,34633.4,-0.9122,-0.9021,136.8,98.2,0.471
27.12,31865.0,34462.2,-0.7456,-1.3225,136.8,98.2,0.471
27.14,31758.7,34496.9,-1.3336,-1.2373,136.8,98.2,0.471
27.16,31843.0,34711.3,-0.8673,-0.7106,136.8,98.2,0.471
27.18,32053.8,34983.4,0.2982,-0.0421,136.8,98.2,0.471
27.2,32161.6,35298.6,0.8943,0.7321,136.8,98.2,0.471
27.22,32226.8,35565.3,1.2552,1.3871,136.8,98.2,0.471
27.24,32293.8,35676.6,1.6257,1.6605,136.8,98.2,0.471
27.26,32307.5,35769.8,1.7013,1.8894,136.8,98.2,0.471
27.28,32276.6,35678.7,1.5306,1.6658,136.8,98.2,0.471
27.3,32198.7,35339.2,1.0996,0.8318,136.8,98.2,0.471
27.32,32059.6,35191.1,0.3302,0.468,136.8,98.2,0.471
27.34,32074.2,35082.2,0.4112,0.2005,136.8,98.2,0.471
27.36,32059.9,35018.4,0.3322,0.0438,136.8,98.2,0.471
27.38,32000.3,35039.5,0.0028,0.0955,136.8,98.2,0.471
27.4,32004.2,34920.8,0.0243,-0.196,136.8,98.2,0.471
27.42,31934.7,34809.2,-0.3603,-0.4702,136.8,98.2,0.471
27.44,31890.7,34713.2,-0.6035,-0.7059,136.8,98.2,0.471
27.46,31915.7,34695.4,-0.4652,-0.7497,136.8,98.2,0.471
27.48,31848.1,34684.6,-0.839,-0.7761,136.8,98.2,0.471
27.5,31808.3,34688.1,-1.059,-0.7676,136.8,98.2,0.471
27.52,31920.9,34646.3,-0.4366,-0.8703,136.8,98.2,0.471
27.54,31734.7,34466.9,-1.4665,-1.3109,136.8,98.2,0.471
27.56,31683.2,34441.2,-1.7512,-1.374,136.8,98.2,0.471
27.58,31885.6,34470.2,-0.6318,-1.3029,136.8,98.2,0.471
27.6,31848.3,34638.6,-0.8379,-0.8891,136.8,98.2,0.471
27.62,32016.3,34880.2,0.0911,-0.2956,136.8,98.2,0.471
27.64,32110.4,35284.3,0.6114,0.6968,136.8,98.2,0.471
27.66,32297.5,35728.6,1.6459,1.7884,136.8,98.2,0.471
27.68,32371.5,35814.3,2.0554,1.9989,136.8,98.2,0.471
27.7,32229.1,35645.4,1.268,1.5839,136.8,98.2,0.471
27.72,32201.3,35533.0,1.114,1.3079,136.8,98.2,0.471
27.74,32203.8,35328.8,1.128,0.8061,136.8,98.2,0.471
27.76,32148.7,35271.2,0.823,0.6647,136.8,98.2,0.471
27.78,32101.6,35141.9,0.5629,0.3472,136.8,98.2,0.471
27.8,32037.9,35105.1,0.2104,0.2568,136.8,98.2,0.471
27.82,31973.8,35112.9,-0.1439,0.2759,136.8,98.2,0.471
27.84,31891.7,34931.6,-0.5979,-0.1695,136.8,98.2,0.471
27.86,31828.3,34861.4,-0.9486,-0.3419,136.8,98.2,0.471
27.88,31873.0,34806.2,-0.7013,-0.4774,136.8,98.2,0.471
27.9,31804.3,34614.2,-1.0816,-0.949,136.8,98.2,0.471
27.92,31894.5,34694.6,-0.5828,-0.7516,136.8,98.2,0.471
27.94,31812.2,34582.1,-1.0378,-1.0281,136.8,98.2,0.471
27.96,31814.4,34560.3,-1.0255,-1.0815,136.8,98.2,0.471
27.98,31748.0,34472.0,-1.3926,-1.2985,136.8,98.2,0.471
28.0,31703.7,34380.3,-1.6376,-1.5237,136.8,98.2,0.471
28.02,31792.4,34451.8,-1.1474,-1.3481,136.8,98.2,0.471
28.04,31852.8,34746.8,-0.8131,-0.6234,136.8,98.2,0.471
28.06,32000.2,35014.8,0.0019,0.035,136.8,98.2,0.471
28.08,32157.6,35405.4,0.8724,0.9944,136.8,98.2,0.471
28.1,32238.7,35696.3,1.3209,1.7089,136.8,98.2,0.471
28.12,32241.8,35745.6,1.3381,1.8301,136.8,98.2,0.471
28.14,32254.6,35701.7,1.4086,1.7221,136.8,98.2,0.471
28.16,32162.5,35538.9,0.8994,1.3223,136.8,98.2,0.471
28.18,32137.6,35372.8,0.762,0.9143,136.8,98.2,0.471
28.2,32234.2,35182.8,1.296,0.4475,136.8,98.2,0.471
28.22,32015.8,35139.8,0.0883,0.3419,136.8,98.2,0.471
28.24,32066.0,35116.5,0.3656,0.2848,136.8,98.2,0.471
28.26,31963.9,35051.7,-0.1988,0.1255,136.8,98.2,0.471
28.28,32021.7,34897.9,0.1212,-0.2522,136.8,98.2,0.471
28.3,31900.7,34846.2,-0.5482,-0.3793,136.8,98.2,0.471
28.32,31934.3,34686.7,-0.3623,-0.771,136.8,98.2,0.471
28.34,31940.8,34615.2,-0.3263,-0.9466,136.8,98.2,0.471
28.36,31871.4,34672.6,-0.7105,-0.8056,136.8,98.2,0.471
28.38,31866.4,34729.8,-0.7377,-0.6652,136.8,98.2,0.471
28.4,31821.0,34607.8,-0.9889,-0.965,136.8,98.2,0.471
28.42,31772.1,34571.0,-1.2595,-1.0552,136.8,98.2,0.471
28.44,31681.6,34397.0,-1.7599,-1.4827,136.8,98.2,0.471
28.46,31738.1,34526.9,-1.4476,-1.1635,136.8,98.2,0.471
28.48,31768.0,34725.6,-1.2824,-0.6755,136.8,98.2,0.471
28.5,31974.0,35057.8,-0.1428,0.1405,136.8,98.2,0.471
28.52,32212.0,35379.3,1.1731,0.9302,136.8,98.2,0.471
28.54,32229.9,35606.2,1.2721,1.4876,136.8,98.2,0.471
28.56,32457.9,35807.5,2.533,1.9821,136.8,98.2,0.471
28.58,32259.4,35680.6,1.4355,1.6703,136.8,98.2,0.471
28.6,32188.4,35573.9,1.0429,1.4084,136.8,98.2,0.471
28.62,32246.4,35282.3,1.3637,0.6921,136.8,98.2,0.471
28.64,32073.3,35221.4,0.4061,0.5424,136.8,98.2,0.471
28.66,32076.7,35114.6,0.4252,0.2801,136.8,98.2,0.471
28.68,32045.7,35006.4,0.2534,0.0142,136.8,98.2,0.471
28.7,31969.4,34963.4,-0.1684,-0.0913,136.8,98.2,0.471
28.72,32027.0,34888.4,0.1504,-0.2755,136.8,98.2,0.471
28.74,31924.2,34776.4,-0.4181,-0.5506,136.8,98.2,0.471
28.76,31980.7,34689.0,-0.1058,-0.7653,136.8,98.2,0.471
28.78,31904.0,34688.4,-0.5302,-0.7669,136.8,98.2,0.471
28.8,31885.3,34638.6,-0.6334,-0.8892,136.8,98.2,0.471
28.82,31889.2,34661.8,-0.6119,-0.8321,136.8,98.2,0.471
28.84,31831.6,34627.1,-0.9302,-0.9174,136.8,98.2,0.471
28.86,31803.2,34388.1,-1.0875,-1.5045,136.8,98.2,0.471
28.88,31782.5,34410.1,-1.2022,-1.4504,136.8,98.2,0.471
28.9,31753.1,34487.6,-1.3643,-1.2601,136.8,98.2,0.471
28.92,31921.4,34736.0,-0.4336,-0.6498,136.8,98.2,0.471
28.94,32021.7,35042.6,0.121,0.1032,136.8,98.2,0.471
28.96,32186.8,35445.8,1.0341,1.0937,136.8,98.2,0.471
28.98,32321.8,35655.3,1.7806,1.6083,136.8,98.2,0.471
29.0,32319.0,35745.9,1.7652,1.8308,136.8,98.2,0.471
29.02,32238.0,35716.5,1.3171,1.7585,136.8,98.2,0.471
29.04,32135.9,35512.3,0.7526,1.257,136.8,98.2,0.471
29.06,32179.0,35312.9,0.991,0.767,136.8,98.2,0.471
29.08,32014.7,35242.1,0.0823,0.5933,136.8,98.2,0.471
29.1,32002.7,35122.8,0.0158,0.3002,136.8,98.2,0.471
29.12,32083.3,35071.7,0.4617,0.1747,136.8,98.2,0.471
29.14,31971.8,34976.7,-0.1553,-0.0587,136.8,98.2,0.471
29.16,31884.9,34868.3,-0.6356,-0.3249,136.8,98.2,0.471
29.18,31897.2,34803.7,-0.5675,-0.4837,136.8,98.2,0.471
29.2,31815.4,34691.7,-1.0201,-0.7587,136.8,98.2,0.471
29.22,31935.3,34657.6,-0.3568,-0.8425,136.8,98.2,0.471
29.24,31886.5,34613.8,-0.627,-0.9501,136.8,98.2,0.471
29.26,31903.4,34579.5,-0.5334,-1.0344,136.8,98.2,0.471
29.28,31771.5,34627.1,-1.2629,-0.9173,136.8,98.2,0.471
29.3,31724.3,34478.1,-1.5236,-1.2834,136.8,98.2,0.471
29.32,31801.4,34374.3,-1.0973,-1.5384,136.8,98.2,0.471
29.34,31758.7,34502.5,-1.3338,-1.2236,136.8,98.2,0.471
29.36,31985.6,34799.5,-0.0786,-0.494,136.8,98.2,0.471
29.38,31996.8,35097.8,-0.0169,0.2387,136.8,98.2,0.471
29.4,32209.3,35449.9,1.1584,1.1036,136.8,98.2,0.471
29.42,32290.1,35719.6,1.6051,1.7661,136.8,98.2,0.471
29.44,32384.4,35748.0,2.1266,1.8359,136.8,98.2,0.471
29.46,32231.2,35772.4,1.2795,1.896,136.8,98.2,0.471
29.48,32154.3,35444.2,0.8545,1.0896,136.8,98.2,0.471
29.5,32162.0,35334.6,0.8966,0.8205,136.8,98.2,0.471
29.52,32083.3,35163.4,0.4614,0.4,136.8,98.2,0.471
29.54,32040.6,35126.5,0.2256,0.3093,136.8,98.2,0.471
29.56,32010.4,35027.2,0.0584,0.0653,136.8,98.2,0.471
29.58,31981.8,34931.1,-0.0996,-0.1708,136.8,98.2,0.471
29.6,32016.3,34849.9,0.091,-0.3702,136.8,98.2,0.471
29.62,31875.4,34809.8,-0.688,-0.4688,136.8,98.2,0.471
29.64,31898.6,34741.1,-0.5597,-0.6373,136.8,98.2,0.471
29.66,31829.7,34677.6,-0.9408,-0.7935,136.8,98.2,0.471
29.68,31811.5,34712.6,-1.0418,-0.7075,136.8,98.2,0.471
29.7,31786.7,34610.1,-1.1788,-0.9592,136.8,98.2,0.471
29.72,31785.0,34584.7,-1.1879,-1.0217,136.8,98.2,0.471
29.74,31809.9,34470.0,-1.0502,-1.3034,136.8,98.2,0.471
29.76,31715.4,34427.8,-1.5732,-1.407,136.8,98.2,0.471
29.78,31902.2,34533.1,-0.5402,-1.1482,136.8,98.2,0.471
29.8,31980.9,34766.3,-0.1045,-0.5756,136.8,98.2,0.471
29.82,32039.7,35093.8,0.2207,0.229,136.8,98.2,0.471
29.84,32151.6,35364.6,0.8395,0.8941,136.8,98.2,0.471
29.86,32302.4,35651.5,1.6735,1.5988,136.8,98.2,0.471
29.88,32325.2,35756.8,1.7993,1.8575,136.8,98.2,0.471
29.9,32265.1,35682.2,1.4672,1.6742,136.8,98.2,0.471
29.92,32143.2,35453.3,0.7926,1.112,136.8,98.2,0.471
29.94,32104.5,35257.9,0.5788,0.6321,136.8,98.2,0.471
29.96,32093.0,35124.0,0.5152,0.3032,136.8,98.2,0.471
29.98,32110.5,35085.3,0.6118,0.208,136.8,98.2,0.471
30.0,32067.4,35077.8,0.3737,0.1897,136.8,98.2,0.471
30.02,32038.1,35019.2,0.2118,0.0456,136.8,98.2,0.471
30.04,32070.9,34869.5,0.3933,-0.3221,136.8,98.2,0.471
30.06,31862.9,34691.8,-0.7575,-0.7586,136.8,98.2,0.471
30.08,31882.1,34684.8,-0.6514,-0.7758,136.8,98.2,0.471
30.1,31908.8,34684.3,-0.5034,-0.777,136.8,98.2,0.471
30.12,31943.7,34589.8,-0.3104,-1.009,136.8,98.2,0.471
30.14,31927.6,34705.7,-0.3992,-0.7244,136.8,98.2,0.471
30.16,31802.0,34592.8,-1.0938,-1.0016,136.8,98.2,0.471
30.18,31652.9,34585.3,-1.9186,-1.02,136.8,98.2,0.471
30.2,31749.3,34439.0,-1.3856,-1.3794,136.8,98.2,0.471
30.22,31766.6,34563.1,-1.2899,-1.0748,136.8,98.2,0.471
30.24,31839.6,34725.6,-0.8864,-0.6754,136.8,98.2,0.471
30.26,32017.7,35078.4,0.0989,0.1911,136.8,98.2,0.471
30.28,32183.0,35392.8,1.0129,0.9634,136.8,98.2,0.471
30.3,32257.3,35692.6,1.4236,1.7,136.8,98.2,0.471
30.32,32266.2,35723.8,1.4728,1.7764,136.8,98.2,0.471
30.34,32288.7,35583.5,1.5973,1.4318,136.8,98.2,0.471
30.36,32119.4,35498.5,0.6609,1.223,136.8,98.2,0.471
30.38,32089.1,35309.4,0.4935,0.7586,136.8,98.2,0.471
30.4,32042.9,35165.5,0.2383,0.4051,136.8,98.2,0.471
30.42,32012.2,35098.4,0.0681,0.2404,136.8,98.2,0.471
30.44,32016.1,35157.3,0.0897,0.3851,136.8,98.2,0.471
30.46,32010.2,35083.2,0.0573,0.2028,136.8,98.2,0.471
30.48,31991.2,34923.2,-0.0477,-0.1901,136.8,98.2,0.471
30.5,32028.5,34784.3,0.1583,-0.5312,136.8,98.2,0.471
30.52,31927.8,34734.2,-0.3983,-0.6543,136.8,98.2,0.471
30.54,31825.7,34616.7,-0.9628,-0.9429,136.8,98.2,0.471
30.56,31910.0,34728.1,-0.4968,-0.6693,136.8,98.2,0.471
30.58,31806.1,34671.4,-1.0714,-0.8086,136.8,98.2,0.471
30.6,31806.0,34441.4,-1.072,-1.3737,136.8,98.2,0.471
30.62,31848.6,34359.4,-0.8365,-1.575,136.8,98.2,0.471
30.64,31877.1,34508.9,-0.679,-1.2078,136.8,98.2,0.471
30.66,31859.7,34685.0,-0.7748,-0.7752,136.8,98.2,0.471
30.68,31896.2,34884.1,-0.573,-0.286,136.8,98.2,0.471
30.7,32057.8,35218.2,0.3204,0.5345,136.8,98.2,0.471
30.72,32294.5,35461.1,1.6297,1.1313,136.8,98.2,0.471
30.74,32385.2,35743.8,2.1309,1.8257,136.8,98.2,0.471
30.76,32211.7,35706.7,1.1717,1.7345,136.8,98.2,0.471
30.78,32323.8,35647.9,1.7914,1.59,136.8,98.2,0.471
30.8,32213.9,35405.6,1.1839,0.9948,136.8,98.2,0.471
30.82,32071.1,35242.8,0.394,0.5949,136.8,98.2,0.471
30.84,32095.7,35116.6,0.53,0.2849,136.8,98.2,0.471
30.86,32049.5,35059.8,0.2746,0.1455,136.8,98.2,0.471
30.88,31925.8,35105.5,-0.4097,0.2577,136.8,98.2,0.471
30.9,32005.7,34980.2,0.0324,-0.05,136.8,98.2,0.471
30.92,31895.6,34901.5,-0.5765,-0.2435,136.8,98.2,0.471
30.94,31865.6,34812.6,-0.7424,-0.4618,136.8,98.2,0.471
30.96,31861.6,34810.2,-0.7644,-0.4677,136.8,98.2,0.471
30.98,31901.3,34585.7,-0.5448,-1.0192,136.8,98.2,0.471
31.0,31858.6,34540.0,-0.781,-1.1314,136.8,98.2,0.471
31.02,31938.7,34599.2,-0.3381,-0.9859,136.8,98.2,0.471
31.04,31818.2,34542.9,-1.0045,-1.1242,136.8,98.2,0.471
31.06,31794.3,34527.5,-1.1366,-1.1622,136.8,98.2,0.471
31.08,31780.4,34399.2,-1.2135,-1.4772,136.8,98.2,0.471
31.1,31811.6,34563.8,-1.0409,-1.0729,136.8,98.2,0.471
31.12,31900.6,34855.3,-0.549,-0.3568,136.8,98.2,0.471
31.14,32139.3,35191.4,0.7713,0.4688,136.8,98.2,0.471
31.16,32195.0,35556.0,1.0791,1.3643,136.8,98.2,0.471
31.18,32347.3,35712.4,1.9214,1.7485,136.8,98.2,0.471
31.2,32288.5,35691.6,1.5963,1.6973,136.8,98.2,0.471
31.22,32386.2,35579.8,2.1366,1.4227,136.8,98.2,0.471
31.24,32233.8,35446.2,1.294,1.0946,136.8,98.2,0.471
31.26,32066.6,35282.5,0.3691,0.6924,136.8,98.2,0.471
31.28,31987.0,35250.9,-0.071,0.6148,136.8,98.2,0.471
31.3,31959.9,34996.9,-0.221,-0.009,136.8,98.2,0.471
31.32,32055.3,35131.4,0.3065,0.3214,136.8,98.2,0.471
31.34,31999.2,34991.2,-0.0034,-0.0231,136.8,98.2,0.471
31.36,31953.1,34873.8,-0.2587,-0.3115,136.8,98.2,0.471
31.38,31940.1,34752.8,-0.3304,-0.6087,136.8,98.2,0.471
31.4,31823.3,34654.8,-0.9765,-0.8494,136.8,98.2,0.471
31.42,31862.6,34685.1,-0.7591,-0.775,136.8,98.2,0.471
31.44,31769.8,34687.0,-1.2722,-0.7702,136.8,98.2,0.471
31.46,31836.8,34585.8,-0.9017,-1.0189,136.8,98.2,0.471
31.48,31885.0,34542.7,-0.6353,-1.1249,136.8,98.2,0.471
31.5,31868.2,34471.3,-0.7282,-1.3002,136.8,98.2,0.471
31.52,31784.8,34420.2,-1.1894,-1.4257,136.8,98.2,0.471
31.54,31803.4,34638.0,-1.0862,-0.8907,136.8,98.2,0.471
31.56,31810.2,34893.8,-1.0485,-0.2623,136.8,98.2,0.471
31.58,32064.7,35245.6,0.3586,0.6017,136.8,98.2,0.471
31.6,32259.9,35589.9,1.4379,1.4476,136.8,98.2,0.471
31.62,32298.2,35721.2,1.65,1.7701,136.8,98.2,0.471
31.64,32279.4,35725.0,1.5463,1.7794,136.8,98.2,0.471
31.66,32248.5,35686.1,1.3752,1.6838,136.8,98.2,0.471
31.68,32132.9,35504.1,0.736,1.2369,136.8,98.2,0.471
31.7,32071.6,35232.2,0.3968,0.5689,136.8,98.2,0.471
31.72,32028.4,35101.1,0.1579,0.2469,136.8,98.2,0.471
31.74,32095.7,35089.5,0.5303,0.2184,136.8,98.2,0.471
31.76,31994.0,35039.5,-0.0325,0.0955,136.8,98.2,0.471
31.78,31993.2,35073.1,-0.037,0.1781,136.8,98.2,0.471
31.8,31963.2,34892.8,-0.2028,-0.2647,136.8,98.2,0.471
31.82,31899.9,34798.6,-0.5526,-0.4962,136.8,98.2,0.471
31.84,31856.5,34729.3,-0.7929,-0.6663,136.8,98.2,0.471
31.86,31899.9,34674.0,-0.5526,-0.8023,136.8,98.2,0.471
31.88,31830.3,34676.1,-0.9377,-0.7971,136.8,98.2,0.471
31.9,31724.1,34634.9,-1.5249,-0.8983,136.8,98.2,0.471
31.92,31842.5,34519.1,-0.8699,-1.1828,136.8,98.2,0.471
31.94,31751.6,34449.3,-1.3728,-1.3543,136.8,98.2,0.471
31.96,31866.5,34547.0,-0.7374,-1.1141,136.8,98.2,0.471
31.98,31821.9,34647.4,-0.9841,-0.8675,136.8,98.2,0.471
32.0,31947.2,34982.5,-0.2913,-0.0444,136.8,98.2,0.471
32.02,32114.1,35269.2,0.6317,0.6598,136.8,98.2,0.471
32.04,32280.6,35504.2,1.5526,1.2371,136.8,98.2,0.471
32.06,32258.9,35702.0,1.4329,1.7229,136.8,98.2,0.471
32.08,32305.4,35729.9,1.6899,1.7915,136.8,98.2,0.471
32.1,32286.6,35628.4,1.5858,1.5421,136.8,98.2,0.471
32.12,32220.4,35373.1,1.22,0.915,136.8,98.2,0.471
32.14,32048.5,35162.1,0.2693,0.3968,136.8,98.2,0.471
32.16,32012.1,35120.5,0.0676,0.2946,136.8,98.2,0.471
32.18,32006.7,35043.5,0.0381,0.1053,136.8,98.2,0.471
32.2,32036.7,34922.2,0.2037,-0.1925,136.8,98.2,0.471
32.22,32029.7,34960.5,0.1651,-0.0986,136.8,98.2,0.471
32.24,31967.3,34774.5,-0.1801,-0.5553,136.8,98.2,0.471
32.26,31866.9,34867.0,-0.7354,-0.3282,136.8,98.2,0.471
32.28,31878.0,34601.3,-0.6739,-0.9809,136.8,98.2,0.471
32.3,31899.9,34584.4,-0.5527,-1.0224,136.8,98.2,0.471
32.32,31732.7,34638.8,-1.4771,-0.8887,136.8,98.2,0.471
32.34,31821.9,34677.6,-0.984,-0.7934,136.8,98.2,0.471
32.36,31830.5,34504.4,-0.9367,-1.2188,136.8,98.2,0.471
32.38,31770.4,34513.3,-1.2686,-1.1971,136.8,98.2,0.471
32.4,31822.1,34525.4,-0.983,-1.1673,136.8,98.2,0.471
32.42,31848.6,34682.0,-0.8362,-0.7826,136.8,98.2,0.471
32.44,31960.8,34885.0,-0.2161,-0.284,136.8,98.2,0.471
32.46,32059.1,35226.5,0.3276,0.555,136.8,98.2,0.471
32.48,32219.5,35560.4,1.2146,1.3751,136.8,98.2,0.471
32.5,32288.7,35799.6,1.5973,1.9627,136.8,98.2,0.471
32.52,32342.0,35711.9,1.892,1.7472,136.8,98.2,0.471
32.54,32148.6,35609.7,0.8226,1.4962,136.8,98.2,0.471
32.56,32119.7,35329.9,0.6629,0.8089,136.8,98.2,0.471
32.58,32086.4,35285.5,0.4789,0.6998,136.8,98.2,0.471
32.6,32061.1,35184.4,0.3388,0.4514,136.8,98.2,0.471
32.62,32097.6,35096.7,0.5408,0.2361,136.8,98.2,0.471
32.64,32088.5,35120.9,0.4902,0.2954,136.8,98.2,0.471
32.66,31968.3,34951.4,-0.1746,-0.1209,136.8,98.2,0.471
32.68,31921.4,34829.5,-0.4337,-0.4204,136.8,98.2,0.471
32.7,31899.2,34748.4,-0.5563,-0.6196,136.8,98.2,0.471
32.72,31915.7,34706.0,-0.4653,-0.7237,136.8,98.2,0.471
32.74,31855.5,34671.3,-0.7979,-0.8089,136.8,98.2,0.471
32.76,31839.1,34699.2,-0.8891,-0.7404,136.8,98.2,0.471
32.78,31844.4,34631.8,-0.8597,-0.906,136.8,98.2,0.471
32.8,31833.8,34531.8,-0.9183,-1.1515,136.8,98.2,0.471
32.82,31762.0,34433.5,-1.3153,-1.3929,136.8,98.2,0.471
32.84,31758.0,34475.4,-1.3374,-1.2901,136.8,98.2,0.471
32.86,31870.5,34710.7,-0.7152,-0.7122,136.8,98.2,0.471
32.88,32039.8,34967.8,0.2208,-0.0805,136.8,98.2,0.471
32.9,32090.8,35307.4,0.5032,0.7536,136.8,98.2,0.471
32.92,32282.2,35634.9,1.5613,1.5581,136.8,98.2,0.471
32.94,32298.8,35707.6,1.653,1.7367,136.8,98.2,0.471
32.96,32257.7,35705.1,1.4258,1.7306,136.8,98.2,0.471
32.98,32330.7,35528.4,1.83,1.2964,136.8,98.2,0.471
33.0,32199.0,35299.6,1.1013,0.7345,136.8,98.2,0.471
33.02,32118.9,35236.9,0.6586,0.5805,136.8,98.2,0.471
33.04,32103.0,35094.5,0.5707,0.2306,136.8,98.2,0.471
33.06,32057.5,35091.9,0.3189,0.2242,136.8,98.2,0.471
33.08,31994.1,35083.5,-0.0317,0.2037,136.8,98.2,0.471
33.1,31952.3,34963.3,-0.2631,-0.0916,136.8,98.2,0.471
33.12,31947.1,34938.9,-0.2915,-0.1514,136.8,98.2,0.471
33.14,31858.7,34686.9,-0.7805,-0.7706,136.8,98.2,0.471
33.16,31951.3,34750.4,-0.2685,-0.6146,136.8,98.2,0.471
33.18,31747.6,34694.3,-1.3947,-0.7523,136.8,98.2,0.471
33.2,31813.8,34687.2,-1.029,-0.7698,136.8,98.2,0.471
33.22,31785.0,34679.2,-1.1882,-0.7895,136.8,98.2,0.471
33.24,31765.7,34504.2,-1.2946,-1.2192,136.8,98.2,0.471
33.26,31746.9,34448.7,-1.399,-1.3556,136.8,98.2,0.471
33.28,31845.5,34414.0,-0.8538,-1.4408,136.8,98.2,0.471
33.3,31921.6,34642.6,-0.4329,-0.8794,136.8,98.2,0.471
33.32,32053.7,34928.8,0.2978,-0.1765,136.8,98.2,0.471
33.34,32171.8,35363.8,0.951,0.8923,136.8,98.2,0.471
33.36,32258.3,35516.8,1.4295,1.268,136.8,98.2,0.471
33.38,32325.1,35802.9,1.7989,1.9707,136.8,98.2,0.471
33.4,32315.8,35768.3,1.7475,1.8858,136.8,98.2,0.471
33.42,32189.2,35631.1,1.047,1.5488,136.8,98.2,0.471
33.44,32240.0,35397.0,1.3283,0.9739,136.8,98.2,0.471
33.46,32154.6,35262.5,0.856,0.6435,136.8,98.2,0.471
33.48,32155.7,35132.3,0.8622,0.3235,136.8,98.2,0.471
33.5,32042.5,35104.5,0.2361,0.2553,136.8,98.2,0.471
33.52,31940.5,35051.0,-0.328,0.1239,136.8,98.2,0.471
33.54,31945.9,34969.8,-0.2984,-0.0755,136.8,98.2,0.471
33.56,31860.9,34878.7,-0.7685,-0.2994,136.8,98.2,0.471
33.58,31885.0,34691.2,-0.6354,-0.76,136.8,98.2,0.471
33.6,31883.7,34629.1,-0.6423,-0.9125,136.8,98.2,0.471
33.62,31848.6,34761.5,-0.8365,-0.5874,136.8,98.2,0.471
33.64,31911.1,34636.7,-0.4907,-0.8938,136.8,98.2,0.471
33.66,31849.3,34565.7,-0.8324,-1.0682,136.8,98.2,0.471
33.68,31893.8,34532.7,-0.5865,-1.1493,136.8,98.2,0.471
33.7,31802.8,34486.7,-1.0897,-1.2623,136.8,98.2,0.471
33.72,31779.5,34534.2,-1.2185,-1.1455,136.8,98.2,0.471
33.74,31889.0,34721.0,-0.613,-0.6867,136.8,98.2,0.471
33.76,31994.6,34893.5,-0.0291,-0.2631,136.8,98.2,0.471
33.78,32104.3,35254.5,0.5779,0.6236,136.8,98.2,0.471
33.8,32311.2,35570.6,1.7221,1.4001,136.8,98.2,0.471
33.82,32351.0,35789.9,1.9422,1.9388,136.8,98.2,0.471
33.84,32275.2,35640.6,1.5226,1.572,136.8,98.2,0.471
33.86,32159.3,35524.5,0.8819,1.2869,136.8,98.2,0.471
33.88,32200.1,35373.7,1.1076,0.9166,136.8,98.2,0.471
33.9,32087.4,35200.6,0.4843,0.4914,136.8,98.2,0.471
33.92,32001.0,35055.7,0.0062,0.1354,136.8,98.2,0.471
33.94,31961.7,35072.3,-0.2108,0.1762,136.8,98.2,0.471
33.96,31987.8,35029.6,-0.0667,0.0713,136.8,98.2,0.471
33.98,31963.1,34890.0,-0.2031,-0.2716,136.8,98.2,0.471
34.0,32057.5,34823.2,0.3188,-0.4358,136.8,98.2,0.471
34.02,31824.5,34680.2,-0.9698,-0.7871,136.8,98.2,0.471
34.04,31910.0,34602.4,-0.497,-0.9781,136.8,98.2,0.471
34.06,31920.8,34639.1,-0.4372,-0.8879,136.8,98.2,0.471
34.08,31812.4,34716.9,-1.0368,-0.6968,136.8,98.2,0.471
34.1,31868.1,34630.7,-0.7287,-0.9085,136.8,98.2,0.471
34.12,31806.8,34554.7,-1.0674,-1.0952,136.8,98.2,0.471
34.14,31745.3,34413.5,-1.4079,-1.442,136.8,98.2,0.471
34.16,31783.5,34534.6,-1.1964,-1.1447,136.8,98.2,0.471
34.18,31920.4,34686.8,-0.4394,-0.7707,136.8,98.2,0.471
34.2,31982.2,35053.6,-0.0978,0.1303,136.8,98.2,0.471
34.22,32100.1,35429.5,0.5542,1.0535,136.8,98.2,0.471
34.24,32205.6,35734.3,1.1381,1.8023,136.8,98.2,0.471
34.26,32326.9,35851.6,1.8088,2.0905,136.8,98.2,0.471
34.28,32310.8,35628.9,1.7195,1.5434,136.8,98.2,0.471
34.3,32156.8,35559.2,0.8678,1.3721,136.8,98.2,0.471
34.32,32121.7,35344.0,0.6741,0.8435,136.8,98.2,0.471
34.34,32036.6,35249.7,0.2033,0.6119,136.8,98.2,0.471
34.36,32018.7,35082.5,0.1046,0.2011,136.8,98.2,0.471
34.38,32081.4,35044.6,0.451,0.1081,136.8,98.2,0.471
34.4,31928.3,34996.9,-0.3956,-0.0091,136.8,98.2,0.471
34.42,31852.7,34935.5,-0.8137,-0.1598,136.8,98.2,0.471
34.44,31907.9,34768.3,-0.5084,-0.5705,136.8,98.2,0.471
34.46,31754.1,34782.4,-1.3592,-0.5359,136.8,98.2,0.471
34.48,31807.5,34636.1,-1.0637,-0.8953,136.8,98.2,0.471
34.5,31831.3,34630.9,-0.9322,-0.9082,136.8,98.2,0.471
34.52,31910.8,34530.0,-0.4923,-1.1559,136.8,98.2,0.471
34.54,31795.2,34562.4,-1.1316,-1.0764,136.8,98.2,0.471
34.56,31758.3,34531.3,-1.3359,-1.1527,136.8,98.2,0.471
34.58,31704.9,34475.3,-1.6309,-1.2904,136.8,98.2,0.471
34.6,31806.8,34507.7,-1.0675,-1.2107,136.8,98.2,0.471
34.62,31897.3,34705.2,-0.567,-0.7256,136.8,98.2,0.471
34.64,32065.6,35089.1,0.3639,0.2174,136.8,98.2,0.471
34.66,32141.2,35401.6,0.7818,0.9851,136.8,98.2,0.471
34.68,32300.0,35734.5,1.6599,1.8028,136.8,98.2,0.471
34.7,32374.7,35749.0,2.0732,1.8385,136.8,98.2,0.471
34.72,32289.8,35634.3,1.6033,1.5567,136.8,98.2,0.471
34.74,32343.9,35513.3,1.9025,1.2595,136.8,98.2,0.471
34.76,32150.7,35280.3,0.834,0.6872,136.8,98.2,0.471
34.78,32181.7,35273.0,1.0058,0.6692,136.8,98.2,0.471
34.8,32081.4,35218.3,0.4512,0.5349,136.8,98.2,0.471
34.82,32085.7,35043.9,0.4746,0.1064,136.8,98.2,0.471
34.84,31967.8,35045.9,-0.1774,0.1113,136.8,98.2,0.471
34.86,31983.3,34888.1,-0.0917,-0.2763,136.8,98.2,0.471
34.88,31928.6,34813.1,-0.394,-0.4607,136.8,98.2,0.471
34.9,31890.2,34657.3,-0.6063,-0.8432,136.8,98.2,0.471
34.92,31874.9,34658.7,-0.6911,-0.8398,136.8,98.2,0.471
34.94,31834.5,34711.8,-0.9145,-0.7094,136.8,98.2,0.471
34.96,31884.3,34690.8,-0.6389,-0.7609,136.8,98.2,0.471
34.98,31749.7,34624.8,-1.3836,-0.9231,136.8,98.2,0.471
35.0,31829.4,34511.2,-0.9424,-1.2021,136.8,98.2,0.471
35.02,31707.1,34448.4,-1.6187,-1.3563,136.8,98.2,0.471
35.04,31746.8,34501.0,-1.3995,-1.2272,136.8,98.2,0.471
35.06,31840.3,34784.8,-0.8822,-0.5301,136.8,98.2,0.471
35.08,32017.0,35030.4,0.0951,0.0733,136.8,98.2,0.471
35.1,32153.8,35497.1,0.8516,1.2197,136.8,98.2,0.471
35.12,32287.1,35592.4,1.5888,1.4537,136.8,98.2,0.471
35.14,32342.1,35777.3,1.8928,1.9079,136.8,98.2,0.471
35.16,32293.0,35621.7,1.6214,1.5257,136.8,98.2,0.471
35.18,32244.6,35517.9,1.3535,1.2707,136.8,98.2,0.471
35.2,32111.5,35324.1,0.6177,0.7947,136.8,98.2,0.471
35.22,32162.1,35193.7,0.8975,0.4743,136.8,98.2,0.471
35.24,32001.8,35123.0,0.0106,0.3006,136.8,98.2,0.471
35.26,32049.1,35037.8,0.2724,0.0913,136.8,98.2,0.471
35.28,32001.5,34953.4,0.0093,-0.1158,136.8,98.2,0.471
35.3,31964.8,34828.4,-0.1936,-0.423,136.8,98.2,0.471
35.32,31863.4,34770.6,-0.7543,-0.565,136.8,98.2,0.471
35.34,31796.4,34741.9,-1.1249,-0.6354,136.8,98.2,0.471
35.36,31857.3,34683.4,-0.7884,-0.7791,136.8,98.2,0.471
35.38,31747.7,34708.1,-1.3941,-0.7184,136.8,98.2,0.471
35.4,31906.0,34674.7,-0.5188,-0.8005,136.8,98.2,0.471
35.42,31867.3,34578.6,-0.7331,-1.0365,136.8,98.2,0.471
35.44,31877.1,34529.3,-0.6788,-1.1577,136.8,98.2,0.471
35.46,31769.7,34478.4,-1.2728,-1.2827,136.8,98.2,0.471
35.48,31838.0,34504.9,-0.8952,-1.2176,136.8,98.2,0.471
35.5,31901.3,34786.3,-0.5451,-0.5264,136.8,98.2,0.471
35.52,32024.1,35143.6,0.1344,0.3512,136.8,98.2,0.471
35.54,32219.1,35386.6,1.2126,0.9481,136.8,98.2,0.471
35.56,32283.1,35755.5,1.5663,1.8543,136.8,98.2,0.471
35.58,32372.0,35750.9,2.0581,1.843,136.8,98.2,0.471
35.6,32256.7,35739.4,1.4205,1.8148,136.8,98.2,0.471
35.62,32191.1,35483.4,1.0576,1.1859,136.8,98.2,0.471
35.64,32092.5,35315.1,0.5122,0.7725,136.8,98.2,0.471
35.66,32024.0,35255.7,0.1335,0.6267,136.8,98.2,0.471
35.68,31994.9,35125.8,-0.0275,0.3075,136.8,98.2,0.471
35.7,31940.2,35049.5,-0.3298,0.1201,136.8,98.2,0.471
35.72,32054.4,35035.7,0.3019,0.0863,136.8,98.2,0.471
35.74,31953.0,34759.2,-0.2588,-0.5929,136.8,98.2,0.471
35.76,31882.1,34803.8,-0.6514,-0.4833,136.8,98.2,0.471
35.78,31873.9,34734.0,-0.6964,-0.6549,136.8,98.2,0.471
35.8,31807.8,34669.9,-1.0619,-0.8124,136.8,98.2,0.471
35.82,31944.2,34638.9,-0.3077,-0.8884,136.8,98.2,0.471
35.84,31760.2,34602.3,-1.3251,-0.9784,136.8,98.2,0.471
35.86,31810.4,34398.8,-1.0476,-1.4783,136.8,98.2,0.471
35.88,31772.8,34383.1,-1.2557,-1.5168,136.8,98.2,0.471
35.9,31792.6,34386.0,-1.1459,-1.5097,136.8,98.2,0.471
35.92,31765.1,34526.6,-1.298,-1.1643,136.8,98.2,0.471
35.94,31914.8,34737.0,-0.4704,-0.6476,136.8,98.2,0.471
35.96,31994.5,35110.9,-0.0298,0.2708,136.8,98.2,0.471
35.98,32216.5,35376.1,1.1983,0.9224,136.8,98.2,0.471
36.0,32333.1,35674.8,1.8429,1.6562,136.8,98.2,0.471
36.02,32209.9,35838.2,1.1616,2.0576,136.8,98.2,0.471
36.04,32266.8,35650.9,1.4766,1.5974,136.8,98.2,0.471
36.06,32174.2,35514.1,0.964,1.2613,136.8,98.2,0.471
36.08,32160.9,35310.7,0.8909,0.7616,136.8,98.2,0.471
36.1,32142.4,35158.4,0.7881,0.3877,136.8,98.2,0.471
36.12,32028.1,35129.7,0.1561,0.3172,136.8,98.2,0.471
36.14,31983.2,35124.0,-0.0922,0.3032,136.8,98.2,0.471
36.16,31934.0,35043.7,-0.3641,0.1059,136.8,98.2,0.471
36.18,31979.9,34851.9,-0.1103,-0.3651,136.8,98.2,0.471
36.2,31830.3,34793.3,-0.9377,-0.5091,136.8,98.2,0.471
36.22,31806.0,34711.1,-1.072,-0.7111,136.8,98.2,0.471
36.24,31885.3,34644.2,-0.6332,-0.8755,136.8,98.2,0.471
36.26,31813.7,34664.9,-1.0294,-0.8246,136.8,98.2,0.471
36.28,31900.2,34619.8,-0.5511,-0.9353,136.8,98.2,0.471
36.3,31683.1,34574.7,-1.7514,-1.0461,136.8,98.2,0.471
36.32,31807.5,34491.2,-1.0638,-1.2513,136.8,98.2,0.471
36.34,31783.5,34477.0,-1.1965,-1.286,136.8,98.2,0.471
36.36,31752.1,34559.8,-1.3703,-1.0828,136.8,98.2,0.471
36.38,31900.3,34798.6,-0.5503,-0.4961,136.8,98.2,0.471
36.4,32107.9,35122.3,0.5977,0.2988,136.8,98.2,0.471
36.42,32230.0,35499.8,1.2729,1.2262,136.8,98.2,0.471
36.44,32326.9,35869.7,1.8087,2.135,136.8,98.2,0.471
36.46,32250.9,35706.3,1.3884,1.7336,136.8,98.2,0.471
36.48,32276.5,35573.8,1.5298,1.408,136.8,98.2,0.471
36.5,32205.3,35476.8,1.1362,1.1697,136.8,98.2,0.471
36.52,32048.5,35330.2,0.2693,0.8098,136.8,98.2,0.471
36.54,32030.5,35178.1,0.1696,0.436,136.8,98.2,0.471
36.56,32071.2,35093.7,0.3946,0.2288,136.8,98.2,0.471
36.58,31959.6,34993.7,-0.2224,-0.0169,136.8,98.2,0.471
36.6,31958.7,34969.4,-0.2274,-0.0767,136.8,98.2,0.471
36.62,31966.1,34955.3,-0.1867,-0.1113,136.8,98.2,0.471
36.64,31921.6,34719.1,-0.4329,-0.6916,136.8,98.2,0.471
36.66,31892.9,34690.1,-0.5912,-0.7626,136.8,98.2,0.471
36.68,31839.9,34664.2,-0.8847,-0.8263,136.8,98.2,0.471
36.7,31915.4,34690.4,-0.4669,-0.7619,136.8,98.2,0.471
36.72,31911.4,34645.1,-0.489,-0.8732,136.8,98.2,0.471
36.74,31811.1,34517.5,-1.0435,-1.1865,136.8,98.2,0.471
36.76,31817.7,34475.2,-1.007,-1.2906,136.8,98.2,0.471
36.78,31747.2,34405.8,-1.3971,-1.461,136.8,98.2,0.471
36.8,31829.9,34534.6,-0.94,-1.1446,136.8,98.2,0.471
36.82,31912.3,34824.4,-0.4839,-0.4327,136.8,98.2,0.471
36.84,32019.4,35096.2,0.1081,0.2349,136.8,98.2,0.471
36.86,32209.3,35480.6,1.1582,1.1792,136.8,98.2,0.471
36.88,32302.1,35720.9,1.6718,1.7695,136.8,98.2,0.471
36.9,32244.8,35795.0,1.3547,1.9513,136.8,98.2,0.471
36.92,32155.0,35531.6,0.8579,1.3044,136.8,98.2,0.471
36.94,32189.8,35458.3,1.0507,1.1243,136.8,98.2,0.471
36.96,32170.3,35358.3,0.9426,0.8787,136.8,98.2,0.471
36.98,32101.6,35163.4,0.5628,0.4,136.8,98.2,0.471
37.0,32059.6,35129.9,0.3306,0.3177,136.8,98.2,0.471
37.02,32038.5,35070.8,0.2136,0.1724,136.8,98.2,0.471
37.04,32042.7,34911.9,0.2369,-0.2179,136.8,98.2,0.471
37.06,31947.3,34914.3,-0.2904,-0.2121,136.8,98.2,0.471
37.08,31858.0,34751.7,-0.7843,-0.6113,136.8,98.2,0.471
37.1,31899.0,34694.1,-0.5578,-0.7529,136.8,98.2,0.471
37.12,31877.2,34605.5,-0.6779,-0.9704,136.8,98.2,0.471
37.14,31874.5,34754.5,-0.6932,-0.6046,136.8,98.2,0.471
37.16,31801.3,34566.5,-1.0977,-1.0663,136.8,98.2,0.471
37.18,31923.8,34542.7,-0.4206,-1.1246,136.8,98.2,0.471
37.2,31837.3,34455.7,-0.8988,-1.3384,136.8,98.2,0.471
37.22,31769.8,34469.2,-1.272,-1.3053,136.8,98.2,0.471
37.24,31811.8,34562.1,-1.0399,-1.0771,136.8,98.2,0.471
37.26,31899.6,34924.8,-0.5542,-0.1863,136.8,98.2,0.471
37.28,32019.5,35238.5,0.1087,0.5845,136.8,98.2,0.471
37.3,32294.3,35638.2,1.6286,1.5661,136.8,98.2,0.471
37.32,32342.8,35675.3,1.8969,1.6573,136.8,98.2,0.471
37.34,32332.5,35813.3,1.8395,1.9963,136.8,98.2,0.471
37.36,32269.5,35672.6,1.4912,1.6508,136.8,98.2,0.471
37.38,32251.3,35436.0,1.3906,1.0695,136.8,98.2,0.471
37.4,32139.0,35267.1,0.7693,0.6547,136.8,98.2,0.471
37.42,32082.3,35119.1,0.4559,0.2912,136.8,98.2,0.471
37.44,31975.2,34997.5,-0.1365,-0.0075,136.8,98.2,0.471
37.46,31960.2,35001.3,-0.2193,0.0017,136.8,98.2,0.471
37.48,31977.6,34899.6,-0.1228,-0.2481,136.8,98.2,0.471
37.5,31966.2,34761.7,-0.1859,-0.5869,136.8,98.2,0.471
37.52,31857.6,34662.2,-0.7868,-0.8311,136.8,98.2,0.471
37.54,31833.6,34664.6,-0.9192,-0.8253,136.8,98.2,0.471
37.56,31851.1,34712.7,-0.8227,-0.7071,136.8,98.2,0.471
37.58,31767.3,34596.9,-1.2857,-0.9915,136.8,98.2,0.471
37.6,31816.6,34629.4,-1.0134,-0.9118,136.8,98.2,0.471
37.62,31815.5,34547.5,-1.0195,-1.1129,136.8,98.2,0.471
37.64,31728.9,34479.2,-1.4982,-1.2807,136.8,98.2,0.471
37.66,31784.1,34428.3,-1.1931,-1.4058,136.8,98.2,0.471
37.68,31840.6,34576.9,-0.8805,-1.0408,136.8,98.2,0.471
37.7,32062.7,34929.0,0.3479,-0.1758,136.8,98.2,0.471
37.72,32144.2,35366.3,0.7983,0.8983,136.8,98.2,0.471
37.74,32234.7,35633.7,1.2989,1.555,136.8,98.2,0.471
37.76,32286.8,35746.7,1.5869,1.8327,136.8,98.2,0.471
37.78,32253.4,35726.0,1.402,1.782,136.8,98.2,0.471
37.8,32305.0,35694.5,1.6875,1.7046,136.8,98.2,0.471
37.82,32207.3,35446.2,1.1473,1.0946,136.8,98.2,0.471
37.84,32113.7,35265.0,0.6294,0.6496,136.8,98.2,0.471
37.86,32048.5,35212.6,0.2691,0.5207,136.8,98.2,0.471
37.88,32076.3,35103.5,0.4228,0.2528,136.8,98.2,0.471
37.9,31981.0,34975.7,-0.1042,-0.0612,136.8,98.2,0.471
37.92,31964.1,34928.9,-0.1979,-0.1762,136.8,98.2,0.471
37.94,31961.9,34828.8,-0.2099,-0.422,136.8,98.2,0.471
37.96,31920.7,34748.4,-0.4375,-0.6196,136.8,98.2,0.471
37.98,31833.6,34652.5,-0.9194,-0.8551,136.8,98.2,0.471
38.0,31779.1,34642.6,-1.2208,-0.8794,136.8,98.2,0.471
38.02,31841.0,34631.1,-0.8782,-0.9077,136.8,98.2,0.471
38.04,31858.5,34606.1,-0.7814,-0.969,136.8,98.2,0.471
38.06,31806.3,34507.5,-1.0705,-1.2113,136.8,98.2,0.471
38.08,31749.0,34416.5,-1.3869,-1.4347,136.8,98.2,0.471
38.1,31728.6,34571.0,-1.4999,-1.0553,136.8,98.2,0.471
38.12,31716.0,34566.4,-1.5697,-1.0666,136.8,98.2,0.471
38.14,31956.8,34882.0,-0.238,-0.2913,136.8,98.2,0.471
38.16,32137.1,35257.6,0.7588,0.6314,136.8,98.2,0.471
38.18,32338.7,35663.2,1.8741,1.6276,136.8,98.2,0.471
38.2,32283.0,35739.5,1.5659,1.8151,136.8,98.2,0.471
38.22,32335.9,35733.7,1.8583,1.8008,136.8,98.2,0.471
38.24,32279.1,35560.2,1.5442,1.3746,136.8,98.2,0.471
38.26,32072.6,35363.3,0.4021,0.8908,136.8,98.2,0.471
38.28,32053.2,35286.9,0.2951,0.7032,136.8,98.2,0.471
38.3,32047.8,35194.8,0.2653,0.4771,136.8,98.2,0.471
38.32,31970.4,35030.5,-0.1629,0.0735,136.8,98.2,0.471
38.34,31947.1,35052.2,-0.2919,0.1269,136.8,98.2,0.471
38.36,31986.9,34892.7,-0.0715,-0.265,136.8,98.2,0.471
38.38,31907.0,34846.1,-0.5135,-0.3795,136.8,98.2,0.471
38.4,31924.6,34754.3,-0.4159,-0.6051,136.8,98.2,0.471
38.42,31863.7,34679.1,-0.7531,-0.7898,136.8,98.2,0.471
38.44,31874.9,34601.0,-0.6908,-0.9814,136.8,98.2,0.471
38.46,31815.7,34742.6,-1.0181,-0.6338,136.8,98.2,0.471
38.48,31878.5,34689.8,-0.6712,-0.7634,136.8,98.2,0.471
38.5,31808.9,34485.2,-1.056,-1.2661,136.8,98.2,0.471
38.52,31679.2,34476.9,-1.7731,-1.2863,136.8,98.2,0.471
38.54,31694.6,34510.8,-1.6883,-1.2032,136.8,98.2,0.471
38.56,31858.8,34577.5,-0.78,-1.0392,136.8,98.2,0.471
38.58,31961.6,35011.2,-0.2113,0.026,136.8,98.2,0.471
38.6,32188.1,35236.4,1.0412,0.5793,136.8,98.2,0.471
38.62,32209.1,35498.0,1.1571,1.2218,136.8,98.2,0.471
38.64,32322.2,35760.8,1.7827,1.8673,136.8,98.2,0.471
38.66,32333.2,35676.3,1.8434,1.6598,136.8,98.2,0.471
38.68,32270.2,35548.4,1.4952,1.3456,136.8,98.2,0.471
38.7,32084.9,35359.6,0.4704,0.8819,136.8,98.2,0.471
38.72,32038.6,35276.1,0.2142,0.6769,136.8,98.2,0.471
38.74,32086.4,35123.7,0.4785,0.3024,136.8,98.2,0.471
38.76,31980.5,35037.1,-0.107,0.0896,136.8,98.2,0.471
38.78,32012.4,35041.1,0.0694,0.0994,136.8,98.2,0.471
38.8,31989.2,34915.2,-0.0589,-0.2098,136.8,98.2,0.471
38.82,31924.1,34787.4,-0.4186,-0.5236,136.8,98.2,0.471
38.84,31887.6,34755.9,-0.6209,-0.601,136.8,98.2,0.471
38.86,31984.8,34650.6,-0.0834,-0.8598,136.8,98.2,0.471
38.88,31900.7,34641.9,-0.5483,-0.8812,136.8,98.2,0.471
38.9,31900.3,34616.0,-0.5505,-0.9448,136.8,98.2,0.471
38.92,31840.1,34654.5,-0.8834,-0.8501,136.8,98.2,0.471
38.94,31801.2,34485.2,-1.0984,-1.2661,136.8,98.2,0.471
38.96,31796.5,34510.2,-1.1247,-1.2045,136.8,98.2,0.471
38.98,31741.1,34536.6,-1.4306,-1.1398,136.8,98.2,0.471
39.0,31797.5,34712.6,-1.119,-0.7075,136.8,98.2,0.471
39.02,31879.2,35005.4,-0.667,0.0118,136.8,98.2,0.471
39.04,32157.8,35312.9,0.8737,0.7671,136.8,98.2,0.471
39.06,32297.5,35572.9,1.6462,1.4059,136.8,98.2,0.471
39.08,32354.2,35743.2,1.9596,1.8242,136.8,98.2,0.471
39.1,32346.7,35604.7,1.9182,1.484,136.8,98.2,0.471
39.12,32330.2,35520.3,1.8272,1.2767,136.8,98.2,0.471
39.14,32194.9,35456.4,1.0788,1.1196,136.8,98.2,0.471
39.16,32079.9,35263.0,0.4428,0.6446,136.8,98.2,0.471
39.18,32053.4,35113.5,0.2961,0.2773,136.8,98.2,0.471
39.2,32053.4,35065.2,0.296,0.1588,136.8,98.2,0.471
39.22,31907.9,35045.9,-0.5084,0.1113,136.8,98.2,0.471
39.24,31912.0,34902.1,-0.4856,-0.242,136.8,98.2,0.471
39.26,31991.1,34819.2,-0.0481,-0.4455,136.8,98.2,0.471
39.28,31776.1,34726.9,-1.2371,-0.6723,136.8,98.2,0.471
39.3,31991.6,34664.2,-0.0455,-0.8263,136.8,98.2,0.471
39.32,31852.6,34653.8,-0.8145,-0.8518,136.8,98.2,0.471
39.34,31878.2,34642.4,-0.6726,-0.8798,136.8,98.2,0.471
39.36,31826.1,34600.9,-0.961,-0.9817,136.8,98.2,0.471
39.38,31773.5,34538.2,-1.2518,-1.1357,136.8,98.2,0.471
39.4,31772.8,34442.6,-1.2556,-1.3706,136.8,98.2,0.471
39.42,31864.5,34570.8,-0.7485,-1.0556,136.8,98.2,0.471
39.44,31936.2,34709.0,-0.3519,-0.7163,136.8,98.2,0.471
39.46,31931.9,35009.1,-0.3759,0.0208,136.8,98.2,0.471
39.48,32120.0,35252.3,0.6643,0.6183,136.8,98.2,0.471
39.5,32248.8,35732.3,1.3769,1.7973,136.8,98.2,0.471
39.52,32353.1,35743.7,1.9536,1.8254,136.8,98.2,0.471
39.54,32272.2,35690.6,1.5063,1.6948,136.8,98.2,0.471
39.56,32277.1,35529.3,1.5335,1.2988,136.8,98.2,0.471
39.58,32135.0,35388.3,0.7474,0.9525,136.8,98.2,0.471
39.6,32137.4,35195.8,0.7607,0.4795,136.8,98.2,0.471
39.62,32099.2,35187.5,0.5495,0.4591,136.8,98.2,0.471
39.64,31924.6,35083.6,-0.4161,0.2039,136.8,98.2,0.471
39.66,31962.3,35182.1,-0.2075,0.4459,136.8,98.2,0.471
39.68,31944.5,35098.6,-0.3059,0.2407,136.8,98.2,0.471
39.7,31922.9,34851.5,-0.4253,-0.3663,136.8,98.2,0.471
39.72,31961.9,34685.1,-0.2095,-0.7749,136.8,98.2,0.471
39.74,31880.4,34640.0,-0.6603,-0.8858,136.8,98.2,0.471
39.76,31839.7,34652.5,-0.8854,-0.855,136.8,98.2,0.471
39.78,31805.3,34676.5,-1.0757,-0.7961,136.8,98.2,0.471
39.8,31828.7,34548.4,-0.9464,-1.1108,136.8,98.2,0.471
39.82,31732.5,34495.3,-1.4784,-1.2413,136.8,98.2,0.471
39.84,31730.9,34467.0,-1.4873,-1.3106,136.8,98.2,0.471
39.86,31789.5,34464.7,-1.1632,-1.3164,136.8,98.2,0.471
39.88,31854.4,34786.0,-0.8041,-0.5271,136.8,98.2,0.471
39.9,31906.5,34976.7,-0.5164,-0.0587,136.8,98.2,0.471
39.92,32149.9,35322.1,0.83,0.7897,136.8,98.2,0.471
39.94,32302.4,35698.0,1.6732,1.7132,136.8,98.2,0.471
39.96,32265.3,35857.6,1.4681,2.1052,136.8,98.2,0.471
39.98,32334.8,35710.8,1.8523,1.7445,136.8,98.2,0.471
40.0,32232.1,35501.6,1.2842,1.2308,136.8,98.2,0.471
40.02,32124.0,35386.0,0.6869,0.9467,136.8,98.2,0.471
40.04,32010.2,35253.1,0.0572,0.6204,136.8,98.2,0.471
40.06,32035.3,35128.9,0.1961,0.3151,136.8,98.2,0.471
40.08,31917.8,35045.0,-0.4539,0.109,136.8,98.2,0.471
40.1,32097.4,34933.9,0.5395,-0.1639,136.8,98.2,0.471
40.12,31992.8,34933.6,-0.0392,-0.1646,136.8,98.2,0.471
40.14,31901.7,34796.9,-0.5429,-0.5003,136.8,98.2,0.471
40.16,31881.0,34721.2,-0.6574,-0.6864,136.8,98.2,0.471
40.18,31923.3,34591.9,-0.4231,-1.004,136.8,98.2,0.471
40.2,31855.8,34642.4,-0.7966,-0.8799,136.8,98.2,0.471
40.22,31823.8,34680.2,-0.9734,-0.7871,136.8,98.2,0.471
40.24,31844.6,34637.1,-0.8585,-0.8929,136.8,98.2,0.471
40.26,31802.9,34544.1,-1.089,-1.1214,136.8,98.2,0.471
40.28,31760.7,34448.6,-1.3227,-1.3558,136.8,98.2,0.471
40.3,31766.3,34574.4,-1.2917,-1.0469,136.8,98.2,0.471
40.32,31930.5,34652.8,-0.3834,-0.8543,136.8,98.2,0.471
40.34,31921.0,34999.8,-0.436,-0.0019,136.8,98.2,0.471
40.36,32275.5,35402.6,1.5245,0.9875,136.8,98.2,0.471
40.38,32299.9,35662.0,1.6592,1.6247,136.8,98.2,0.471
40.4,32326.6,35770.3,1.8071,1.8906,136.8,98.2,0.471
40.42,32234.0,35671.1,1.2952,1.6471,136.8,98.2,0.471
40.44,32266.1,35480.0,1.4722,1.1775,136.8,98.2,0.471
40.46,32147.5,35322.2,0.8167,0.7899,136.8,98.2,0.471
40.48,32135.0,35140.2,0.7475,0.343,136.8,98.2,0.471
40.5,32097.9,35133.9,0.5425,0.3274,136.8,98.2,0.471
40.52,32036.2,35153.1,0.2011,0.3747,136.8,98.2,0.471
40.54,31994.7,34976.4,-0.0282,-0.0594,136.8,98.2,0.471
40.56,31889.1,34991.3,-0.6126,-0.0229,136.8,98.2,0.471
40.58,31945.9,34874.5,-0.2985,-0.3097,136.8,98.2,0.471
40.6,31909.7,34812.8,-0.4987,-0.4613,136.8,98.2,0.471
40.62,31920.6,34643.2,-0.438,-0.8779,136.8,98.2,0.471
40.64,31797.7,34698.3,-1.1176,-0.7425,136.8,98.2,0.471
40.66,31835.3,34650.1,-0.9101,-0.861,136.8,98.2,0.471
40.68,31766.7,34529.8,-1.2895,-1.1565,136.8,98.2,0.471
40.7,31800.6,34441.3,-1.1018,-1.3738,136.8,98.2,0.471
40.72,31700.3,34499.2,-1.6565,-1.2317,136.8,98.2,0.471
40.74,31726.2,34613.5,-1.5132,-0.9509,136.8,98.2,0.471
40.76,31806.4,34634.1,-1.0698,-0.9003,136.8,98.2,0.471
40.78,32046.2,34966.7,0.2562,-0.0833,136.8,98.2,0.471
40.8,32208.8,35422.2,1.1556,1.0357,136.8,98.2,0.471
40.82,32286.4,35716.2,1.5845,1.7579,136.8,98.2,0.471
40.84,32383.2,35807.2,2.1202,1.9813,136.8,98.2,0.471
40.86,32241.9,35671.9,1.3384,1.649,136.8,98.2,0.471
40.88,32234.2,35586.7,1.2963,1.4397,136.8,98.2,0.471
40.9,32177.8,35320.6,0.9844,0.786,136.8,98.2,0.471
40.92,32106.9,35178.7,0.5921,0.4376,136.8,98.2,0.471
40.94,32085.9,35193.3,0.4761,0.4733,136.8,98.2,0.471
40.96,32013.3,35162.3,0.0742,0.3973,136.8,98.2,0.471
40.98,31986.7,35047.0,-0.0727,0.1139,136.8,98.2,0.471
41.0,31954.2,34865.4,-0.2526,-0.3321,136.8,98.2,0.471
41.02,31898.0,34836.3,-0.5631,-0.4036,136.8,98.2,0.471
41.04,31865.2,34640.7,-0.7446,-0.8839,136.8,98.2,0.471
41.06,31845.6,34727.2,-0.8529,-0.6715,136.8,98.2,0.471
41.08,31938.6,34656.0,-0.3385,-0.8465,136.8,98.2,0.471
41.1,31781.1,34711.6,-1.2098,-0.71,136.8,98.2,0.471
41.12,31847.4,34597.3,-0.8429,-0.9907,136.8,98.2,0.471
41.14,31814.6,34468.6,-1.0246,-1.3067,136.8,98.2,0.471
41.16,31732.0,34478.7,-1.4814,-1.2819,136.8,98.2,0.471
41.18,31790.6,34611.8,-1.157,-0.955,136.8,98.2,0.471
41.2,31873.3,34865.1,-0.6997,-0.3329,136.8,98.2,0.471
41.22,31960.3,35052.7,-0.2188,0.1279,136.8,98.2,0.471
41.24,32114.8,35451.1,0.6358,1.1066,136.8,98.2,0.471
41.26,32377.0,35639.0,2.0855,1.5683,136.8,98.2,0.471
41.28,32289.4,35672.1,1.6015,1.6495,136.8,98.2,0.471
41.3,32231.8,35693.5,1.2827,1.7022,136.8,98.2,0.471
41.32,32096.2,35514.5,0.5327,1.2623,136.8,98.2,0.471
41.34,32067.2,35339.4,0.3725,0.8324,136.8,98.2,0.471
41.36,32102.8,35139.2,0.5695,0.3404,136.8,98.2,0.471
41.38,32075.5,35169.2,0.4187,0.4142,136.8,98.2,0.471
41.4,32080.9,34928.6,0.4482,-0.1769,136.8,98.2,0.471
41.42,32057.8,34993.8,0.3206,-0.0166,136.8,98.2,0.471
41.44,31948.6,34890.2,-0.2831,-0.2711,136.8,98.2,0.471
41.46,31877.8,34843.9,-0.675,-0.3849,136.8,98.2,0.471
41.48,31820.6,34833.7,-0.9914,-0.4098,136.8,98.2,0.471
41.5,31779.3,34697.9,-1.2194,-0.7435,136.8,98.2,0.471
41.52,31879.3,34691.2,-0.6665,-0.7601,136.8,98.2,0.471
41.54,31857.9,34757.0,-0.7849,-0.5984,136.8,98.2,0.471
41.56,31761.2,34565.6,-1.3195,-1.0685,136.8,98.2,0.471
41.58,31799.2,34540.7,-1.1096,-1.1296,136.8,98.2,0.471
41.6,31728.6,34416.6,-1.5001,-1.4345,136.8,98.2,0.471
41.62,31755.9,34579.7,-1.3489,-1.034,136.8,98.2,0.471
41.64,31984.3,34729.3,-0.0861,-0.6664,136.8,98.2,0.471
41.66,32003.7,35115.6,0.0212,0.2826,136.8,98.2,0.471
41.68,32168.1,35367.0,0.9305,0.9,136.8,98.2,0.471
41.7,32404.0,35752.5,2.2353,1.847,136.8,98.2,0.471
41.72,32280.4,35668.4,1.5517,1.6403,136.8,98.2,0.471
41.74,32302.6,35657.1,1.6743,1.6127,136.8,98.2,0.471
41.76,32255.9,35466.7,1.4163,1.1449,136.8,98.2,0.471
41.78,32079.3,35320.8,0.4393,0.7865,136.8,98.2,0.471
41.8,32051.1,35211.7,0.2834,0.5187,136.8,98.2,0.471
41.82,31991.9,35003.3,-0.0438,0.0065,136.8,98.2,0.471
41.84,32053.0,35085.7,0.2937,0.209,136.8,98.2,0.471
41.86,31982.6,34940.3,-0.0952,-0.148,136.8,98.2,0.471
41.88,32003.6,34867.6,0.0206,-0.3267,136.8,98.2,0.471
41.9,31940.0,34777.8,-0.3307,-0.5473,136.8,98.2,0.471
41.92,31838.1,34764.4,-0.8944,-0.5803,136.8,98.2,0.471
41.94,31828.8,34604.1,-0.9457,-0.9739,136.8,98.2,0.471
41.96,31882.1,34617.8,-0.6513,-0.9402,136.8,98.2,0.471
41.98,31862.7,34741.7,-0.7585,-0.636,136.8,98.2,0.471
42.0,31841.9,34592.6,-0.8736,-1.0023,136.8,98.2,0.471
42.02,31652.7,34501.8,-1.92,-1.2253,136.8,98.2,0.471
42.04,31834.0,34428.5,-0.917,-1.4053,136.8,98.2,0.471
42.06,31779.4,34604.1,-1.2191,-0.974,136.8,98.2,0.471
42.08,31831.7,34772.8,-0.93,-0.5596,136.8,98.2,0.471
42.1,32062.1,35032.2,0.3445,0.0776,136.8,98.2,0.471
42.12,32187.3,35526.2,1.0366,1.291,136.8,98.2,0.471
42.14,32300.0,35688.7,1.6597,1.6902,136.8,98.2,0.471
42.16,32275.5,35653.3,1.5244,1.6032,136.8,98.2,0.471
42.18,32282.3,35560.7,1.5623,1.3758,136.8,98.2,0.471
42.2,32207.1,35492.0,1.146,1.2072,136.8,98.2,0.471
42.22,32085.9,35252.9,0.4762,0.6199,136.8,98.2,0.471
42.24,32109.4,35286.2,0.6061,0.7016,136.8,98.2,0.471
42.26,32125.6,35112.5,0.6957,0.2748,136.8,98.2,0.471
42.28,32067.6,35061.1,0.3746,0.1486,136.8,98.2,0.471
42.3,32017.1,35001.9,0.0954,0.0032,136.8,98.2,0.471
42.32,31926.6,34881.5,-0.4052,-0.2926,136.8,98.2,0.471
42.34,31886.8,34789.8,-0.6253,-0.5178,136.8,98.2,0.471
42.36,31981.2,34702.6,-0.103,-0.732,136.8,98.2,0.471
42.38,31800.3,34713.3,-1.1037,-0.7056,136.8,98.2,0.471
42.4,31794.6,34636.0,-1.1348,-0.8956,136.8,98.2,0.471
42.42,31875.9,34689.8,-0.6856,-0.7633,136.8,98.2,0.471
42.44,31789.3,34497.9,-1.1645,-1.2348,136.8,98.2,0.471
42.46,31776.5,34523.4,-1.235,-1.1721,136.8,98.2,0.471
42.48,31732.4,34510.9,-1.4789,-1.2028,136.8,98.2,0.471
42.5,31834.9,34452.6,-0.9121,-1.3461,136.8,98.2,0.471
42.52,31953.1,34690.1,-0.2586,-0.7626,136.8,98.2,0.471
42.54,32140.2,35218.2,0.7765,0.5344,136.8,98.2,0.471
42.56,32224.3,35489.7,1.2411,1.2014,136.8,98.2,0.471
42.58,32406.5,35716.6,2.2487,1.7587,136.8,98.2,0.471
42.6,32302.2,35761.0,1.6723,1.8678,136.8,98.2,0.471
42.62,32236.1,35688.3,1.3063,1.6894,136.8,98.2,0.471
42.64,32153.6,35534.1,0.8501,1.3105,136.8,98.2,0.471
42.66,32167.0,35392.2,0.9245,0.962,136.8,98.2,0.471
42.68,32032.2,35168.6,0.1787,0.4127,136.8,98.2,0.471
42.7,31955.6,35015.9,-0.2448,0.0377,136.8,98.2,0.471
42.72,31989.1,35065.2,-0.0591,0.1588,136.8,98.2,0.471
42.74,32020.0,35071.6,0.1118,0.1745,136.8,98.2,0.471
42.76,31959.0,34950.8,-0.2259,-0.1224,136.8,98.2,0.471
42.78,31890.5,34678.8,-0.6046,-0.7905,136.8,98.2,0.471
42.8,31830.7,34708.2,-0.9352,-0.7181,136.8,98.2,0.471
42.82,31805.0,34750.3,-1.0774,-0.6147,136.8,98.2,0.471
42.84,31869.2,34643.8,-0.7224,-0.8765,136.8,98.2,0.471
42.86,31790.5,34632.4,-1.1575,-0.9044,136.8,98.2,0.471
42.88,31774.4,34473.6,-1.2469,-1.2945,136.8,98.2,0.471
42.9,31787.1,34449.6,-1.1764,-1.3536,136.8,98.2,0.471
42.92,31784.7,34441.4,-1.1896,-1.3737,136.8,98.2,0.471
42.94,31860.0,34618.1,-0.7734,-0.9396,136.8,98.2,0.471
42.96,31942.3,34806.3,-0.3185,-0.4772,136.8,98.2,0.471
42.98,32035.4,35225.3,0.1966,0.552,136.8,98.2,0.471
43.0,32206.7,35462.5,1.1437,1.1346,136.8,98.2,0.471
43.02,32274.7,35780.2,1.52,1.9151,136.8,98.2,0.471
43.04,32366.4,35832.0,2.027,2.0422,136.8,98.2,0.471
43.06,32284.6,35601.5,1.5747,1.4762,136.8,98.2,0.471
43.08,32236.6,35328.4,1.3093,0.8052,136.8,98.2,0.471
43.1,32103.9,35284.6,0.5754,0.6977,136.8,98.2,0.471
43.12,31996.7,35125.1,-0.0172,0.306,136.8,98.2,0.471
43.14,32090.0,35106.3,0.4988,0.2596,136.8,98.2,0.471
43.16,32110.3,34954.7,0.6107,-0.1126,136.8,98.2,0.471
43.18,31926.0,35013.2,-0.4084,0.0311,136.8,98.2,0.471
43.2,31975.6,34827.6,-0.1342,-0.4249,136.8,98.2,0.471
43.22,31904.5,34761.0,-0.527,-0.5885,136.8,98.2,0.471
43.24,31825.6,34592.7,-0.9638,-1.0018,136.8,98.2,0.471
43.26,31951.6,34649.7,-0.2666,-0.8618,136.8,98.2,0.471
43.28,31885.1,34766.6,-0.6346,-0.5748,136.8,98.2,0.471
43.3,31900.1,34615.1,-0.5517,-0.947,136.8,98.2,0.471
43.32,31808.3,34581.3,-1.0592,-1.0301,136.8,98.2,0.471
43.34,31851.9,34451.2,-0.8183,-1.3495,136.8,98.2,0.471
43.36,31797.0,34461.8,-1.1219,-1.3235,136.8,98.2,0.471
43.38,31822.1,34603.4,-0.9832,-0.9757,136.8,98.2,0.471
43.4,31994.3,34875.5,-0.0305,-0.3072,136.8,98.2,0.471
43.42,32102.4,35283.2,0.5674,0.6941,136.8,98.2,0.471
43.44,32243.9,35501.5,1.3498,1.2304,136.8,98.2,0.471
43.46,32295.6,35775.4,1.6359,1.9031,136.8,98.2,0.471
43.48,32282.1,35756.5,1.561,1.8569,136.8,98.2,0.471
43.5,32245.8,35569.7,1.36,1.3979,136.8,98.2,0.471
43.52,32209.1,35338.4,1.1574,0.8297,136.8,98.2,0.471
43.54,32047.8,35181.1,0.2654,0.4433,136.8,98.2,0.471
43.56,32033.3,35082.0,0.1852,0.2,136.8,98.2,0.471
43.58,32096.6,35077.0,0.5349,0.1876,136.8,98.2,0.471
43.6,32010.0,35057.3,0.0564,0.1393,136.8,98.2,0.471
43.62,32011.6,35005.5,0.0649,0.012,136.8,98.2,0.471
43.64,31967.7,34892.0,-0.1779,-0.2667,136.8,98.2,0.471
43.66,31887.2,34772.4,-0.6231,-0.5606,136.8,98.2,0.471
43.68,31868.8,34616.5,-0.7249,-0.9434,136.8,98.2,0.471
43.7,31872.1,34580.3,-0.7062,-1.0324,136.8,98.2,0.471
43.72,31886.6,34688.9,-0.6261,-0.7657,136.8,98.2,0.471
43.74,31826.7,34696.7,-0.9574,-0.7464,136.8,98.2,0.471
43.76,31695.9,34500.2,-1.6807,-1.2292,136.8,98.2,0.471
43.78,31762.3,34423.0,-1.3139,-1.4188,136.8,98.2,0.471
43.8,31764.3,34450.2,-1.3025,-1.3521,136.8,98.2,0.471
43.82,31953.3,34661.3,-0.2572,-0.8334,136.8,98.2,0.471
43.84,31844.3,34960.4,-0.86,-0.0987,136.8,98.2,0.471
43.86,32083.6,35167.0,0.4632,0.4088,136.8,98.2,0.471
43.88,32251.2,35562.0,1.3898,1.3789,136.8,98.2,0.471
43.9,32254.4,35733.8,1.4075,1.801,136.8,98.2,0.471
43.92,32326.1,35760.2,1.8041,1.8658,136.8,98.2,0.471
43.94,32235.7,35631.4,1.3045,1.5496,136.8,98.2,0.471
43.96,32108.9,35409.7,0.6033,1.0049,136.8,98.2,0.471
43.98,32128.4,35271.7,0.7109,0.666,136.8,98.2,0.471
44.0,32112.9,35078.3,0.6254,0.1909,136.8,98.2,0.471
44.02,32103.0,35063.2,0.5705,0.1539,136.8,98.2,0.471
44.04,31954.7,34983.5,-0.2494,-0.0419,136.8,98.2,0.471
44.06,31993.1,34955.6,-0.0372,-0.1105,136.8,98.2,0.471
44.08,31859.9,34866.4,-0.7738,-0.3297,136.8,98.2,0.471
44.1,31944.1,34812.5,-0.3085,-0.462,136.8,98.2,0.471
44.12,31808.8,34734.2,-1.0567,-0.6544,136.8,98.2,0.471
44.14,31853.8,34659.0,-0.8079,-0.8392,136.8,98.2,0.471
44.16,31865.9,34691.2,-0.7407,-0.76,136.8,98.2,0.471
44.18,31886.5,34653.5,-0.627,-0.8525,136.8,98.2,0.471
44.2,31872.2,34570.1,-0.7059,-1.0574,136.8,98.2,0.471
44.22,31806.9,34464.6,-1.0668,-1.3166,136.8,98.2,0.471
44.24,31790.6,34412.1,-1.1571,-1.4457,136.8,98.2,0.471
44.26,31737.6,34624.2,-1.4504,-0.9247,136.8,98.2,0.471
44.28,31957.3,34935.6,-0.2354,-0.1597,136.8,98.2,0.471
44.3,32130.9,35215.6,0.7247,0.5283,136.8,98.2,0.471
44.32,32236.7,35606.2,1.3101,1.4877,136.8,98.2,0.471
44.34,32163.1,35764.9,0.9028,1.8775,136.8,98.2,0.471
44.36,32257.9,35730.9,1.4269,1.7939,136.8,98.2,0.471
44.38,32216.5,35541.5,1.1982,1.3287,136.8,98.2,0.471
44.4,32083.1,35351.4,0.4605,0.8617,136.8,98.2,0.471
44.42,32030.1,35176.9,0.1672,0.4332,136.8,98.2,0.471
44.44,32040.7,35253.9,0.2259,0.6221,136.8,98.2,0.471
44.46,32014.8,35074.4,0.083,0.1814,136.8,98.2,0.471
44.48,32016.9,35076.9,0.0941,0.1875,136.8,98.2,0.471
44.5,31903.4,34989.2,-0.5331,-0.0279,136.8,98.2,0.471
44.52,31836.9,34850.9,-0.9013,-0.3676,136.8,98.2,0.471
44.54,31956.6,34826.1,-0.2389,-0.4286,136.8,98.2,0.471
44.56,31840.2,34739.9,-0.8826,-0.6405,136.8,98.2,0.471
44.58,31919.8,34641.4,-0.4428,-0.8822,136.8,98.2,0.471
44.6,31876.1,34668.9,-0.684,-0.8148,136.8,98.2,0.471
44.62,31808.0,34628.3,-1.0609,-0.9146,136.8,98.2,0.471
44.64,31742.5,34460.9,-1.4233,-1.3256,136.8,98.2,0.471
44.66,31847.5,34391.3,-0.8422,-1.4966,136.8,98.2,0.471
44.68,31850.7,34545.8,-0.8248,-1.1171,136.8,98.2,0.471
44.7,31826.1,34671.0,-0.9607,-0.8096,136.8,98.2,0.471
44.72,31902.9,34870.4,-0.5361,-0.3198,136.8,98.2,0.471
44.74,32052.4,35154.7,0.2909,0.3785,136.8,98.2,0.471
44.76,32295.2,35582.3,1.6334,1.4289,136.8,98.2,0.471
44.78,32260.2,35709.1,1.44,1.7403,136.8,98.2,0.471
44.8,32287.9,35739.5,1.5929,1.815,136.8,98.2,0.471
44.82,32270.8,35502.0,1.4985,1.2317,136.8,98.2,0.471
44.84,32167.6,35371.0,0.9278,0.9098,136.8,98.2,0.471
