timestamp,raw_red,raw_ir,filtered_red,filtered_ir,heart_rate,spo2,ac_dc_ratio
0.0,32125.9,35190.0,0.6089,0.4661,141.5,98.4,0.463
0.02,32233.7,35547.5,1.1299,1.3451,141.5,98.4,0.463
0.04,32266.2,35720.6,1.2869,1.7707,141.5,98.4,0.463
0.06,32287.2,35786.8,1.3886,1.9335,141.5,98.4,0.463
0.08,32230.3,35548.8,1.1135,1.3483,141.5,98.4,0.463
0.1,32171.9,35394.3,0.8309,0.9684,141.5,98.4,0.463
0.12,32132.7,35242.4,0.6415,0.595,141.5,98.4,0.463
0.14,32121.4,35183.9,0.5869,0.451,141.5,98.4,0.463
0.16,32087.3,35166.9,0.4223,0.4095,141.5,98.4,0.463
0.18,32028.5,35140.7,0.1377,0.3449,141.5,98.4,0.463
0.2,31953.3,34981.9,-0.2254,-0.0454,141.5,98.4,0.463
0.22,31974.6,34857.3,-0.1224,-0.3518,141.5,98.4,0.463
0.24,31956.4,34815.9,-0.2103,-0.4535,141.5,98.4,0.463
0.26,31842.7,34743.7,-0.7603,-0.6311,141.5,98.4,0.463
0.28,31845.5,34739.0,-0.7464,-0.6427,141.5,98.4,0.463
0.3,31771.2,34697.0,-1.1059,-0.7459,141.5,98.4,0.463
0.32,31891.2,34550.3,-0.5255,-1.1067,141.5,98.4,0.463
0.34,31722.8,34514.9,-1.3397,-1.1938,141.5,98.4,0.463
0.36,31808.9,34443.7,-0.9236,-1.3686,141.5,98.4,0.463
0.38,31856.3,34457.2,-0.6944,-1.3356,141.5,98.4,0.463
0.4,31883.2,34740.1,-0.5643,-0.6401,141.5,98.4,0.463
0.42,31904.8,35059.0,-0.4601,0.144,141.5,98.4,0.463
0.44,32160.9,35483.6,0.7778,1.1879,141.5,98.4,0.463
0.46,32322.1,35648.6,1.5572,1.5936,141.5,98.4,0.463
0.48,32274.3,35700.6,1.3262,1.7215,141.5,98.4,0.463
0.5,32220.0,35682.6,1.0633,1.6771,141.5,98.4,0.463
0.52,32213.6,35463.9,1.0327,1.1396,141.5,98.4,0.463
0.54,32072.9,35352.9,0.3526,0.8667,141.5,98.4,0.463
0.56,32006.4,35070.4,0.0313,0.1721,141.5,98.4,0.463
0.58,32058.9,35083.7,0.285,0.2048,141.5,98.4,0.463
0.6,32122.2,34990.5,0.5909,-0.0243,141.5,98.4,0.463
0.62,31959.9,35015.0,-0.1937,0.0359,141.5,98.4,0.463
0.64,31947.9,34906.4,-0.2515,-0.2312,141.5,98.4,0.463
0.66,32002.8,34815.5,0.0139,-0.4547,141.5,98.4,0.463
0.68,31850.6,34738.1,-0.7219,-0.6449,141.5,98.4,0.463
0.7,31811.8,34636.4,-0.9092,-0.895,141.5,98.4,0.463
0.72,31898.5,34708.7,-0.4902,-0.7171,141.5,98.4,0.463
0.74,31876.8,34612.7,-0.5954,-0.9532,141.5,98.4,0.463
0.76,31807.6,34567.8,-0.9297,-1.0637,141.5,98.4,0.463
0.78,31766.1,34498.4,-1.1302,-1.2343,141.5,98.4,0.463
0.8,31698.0,34446.8,-1.4593,-1.3611,141.5,98.4,0.463
0.82,31897.3,34691.0,-0.4961,-0.7608,141.5,98.4,0.463
0.84,32003.7,35019.8,0.0179,0.0477,141.5,98.4,0.463
0.86,32169.3,35367.0,0.8184,0.9013,141.5,98.4,0.463
0.88,32264.3,35717.6,1.2775,1.7633,141.5,98.4,0.463
0.9,32332.8,35771.3,1.6089,1.8953,141.5,98.4,0.463
0.92,32317.9,35827.1,1.5368,2.0324,141.5,98.4,0.463
0.94,32143.2,35506.3,0.6921,1.2437,141.5,98.4,0.463
0.96,32162.8,35227.4,0.787,0.5581,141.5,98.4,0.463
0.98,32240.8,35151.7,1.1639,0.372,141.5,98.4,0.463
1.0,32016.6,35048.7,0.0805,0.1187,141.5,98.4,0.463
1.02,32126.9,34972.8,0.6134,-0.0679,141.5,98.4,0.463
1.04,31966.2,35016.0,-0.1632,0.0383,141.5,98.4,0.463
1.06,31959.1,34984.2,-0.1975,-0.0399,141.5,98.4,0.463
1.08,31856.0,34726.4,-0.6958,-0.6738,141.5,98.4,0.463
1.1,31885.5,34646.2,-0.5532,-0.8708,141.5,98.4,0.463
1.12,31800.8,34690.5,-0.9628,-0.7619,141.5,98.4,0.463
1.14,31848.1,34567.0,-0.734,-1.0656,141.5,98.4,0.463
1.16,31750.6,34622.0,-1.2055,-0.9304,141.5,98.4,0.463
1.18,31846.3,34550.1,-0.7427,-1.1072,141.5,98.4,0.463
1.2,31845.5,34466.7,-0.7467,-1.3121,141.5,98.4,0.463
1.22,31757.0,34505.5,-1.1745,-1.2169,141.5,98.4,0.463
1.24,31816.1,34716.7,-0.8886,-0.6976,141.5,98.4,0.463
1.26,31988.7,34960.3,-0.0545,-0.0987,141.5,98.4,0.463
1.28,32173.4,35371.4,0.8381,0.9122,141.5,98.4,0.463
1.3,32261.4,35581.2,1.2635,1.4279,141.5,98.4,0.463
1.32,32290.1,35673.2,1.4024,1.6542,141.5,98.4,0.463
1.34,32331.8,35715.3,1.6038,1.7577,141.5,98.4,0.463
1.36,32220.2,35541.5,1.0647,1.3302,141.5,98.4,0.463
1.38,32198.4,35380.4,0.9589,0.9343,141.5,98.4,0.463
1.4,32107.2,35205.7,0.5182,0.5047,141.5,98.4,0.463
1.42,32002.2,35095.2,0.011,0.233,141.5,98.4,0.463
1.44,31976.3,35017.7,-0.1142,0.0425,141.5,98.4,0.463
1.46,31974.0,35017.2,-0.1256,0.0412,141.5,98.4,0.463
1.48,32053.5,34938.3,0.2587,-0.1527,141.5,98.4,0.463
1.5,31912.8,34854.1,-0.4214,-0.3596,141.5,98.4,0.463
1.52,31789.2,34676.8,-1.0184,-0.7956,141.5,98.4,0.463
1.54,31970.1,34734.1,-0.1442,-0.6548,141.5,98.4,0.463
1.56,31791.0,34657.2,-1.0101,-0.8438,141.5,98.4,0.463
1.58,31813.3,34677.8,-0.9022,-0.7931,141.5,98.4,0.463
1.6,31749.1,34625.7,-1.2123,-0.9212,141.5,98.4,0.463
1.62,31832.7,34451.3,-0.8084,-1.3501,141.5,98.4,0.463
1.64,31795.2,34461.7,-0.9897,-1.3245,141.5,98.4,0.463
1.66,31840.7,34592.1,-0.7697,-1.004,141.5,98.4,0.463
1.68,31937.5,34886.1,-0.3018,-0.2811,141.5,98.4,0.463
1.7,32121.9,35104.7,0.5892,0.2563,141.5,98.4,0.463
1.72,32249.7,35544.8,1.2071,1.3384,141.5,98.4,0.463
1.74,32266.6,35783.4,1.2886,1.9251,141.5,98.4,0.463
1.76,32320.4,35709.7,1.5486,1.7438,141.5,98.4,0.463
1.78,32216.3,35598.8,1.0459,1.4713,141.5,98.4,0.463
1.8,32250.1,35366.8,1.209,0.9008,141.5,98.4,0.463
1.82,32121.3,35222.8,0.5867,0.5468,141.5,98.4,0.463
1.84,32096.6,35177.7,0.4669,0.4358,141.5,98.4,0.463
1.86,32029.2,35092.1,0.1415,0.2254,141.5,98.4,0.463
1.88,31981.9,34982.7,-0.0875,-0.0436,141.5,98.4,0.463
1.9,31976.8,34976.2,-0.112,-0.0596,141.5,98.4,0.463
1.92,31990.4,34805.0,-0.0464,-0.4804,141.5,98.4,0.463
1.94,31941.7,34787.9,-0.2818,-0.5224,141.5,98.4,0.463
1.96,31859.8,34720.2,-0.6776,-0.689,141.5,98.4,0.463
1.98,31830.7,34793.7,-0.8181,-0.5082,141.5,98.4,0.463
2.0,31819.2,34593.5,-0.8735,-1.0003,141.5,98.4,0.463
2.02,31888.0,34610.5,-0.5409,-0.9587,141.5,98.4,0.463
2.04,31701.0,34455.6,-1.4452,-1.3396,141.5,98.4,0.463
2.06,31769.4,34503.8,-1.1145,-1.2209,141.5,98.4,0.463
2.08,31823.9,34531.7,-0.8509,-1.1523,141.5,98.4,0.463
2.1,31978.9,34708.0,-0.1017,-0.7189,141.5,98.4,0.463
2.12,32023.7,35171.6,0.1149,0.421,141.5,98.4,0.463
2.14,32244.3,35555.0,1.1809,1.3635,141.5,98.4,0.463
2.16,32259.9,35694.4,1.2563,1.7061,141.5,98.4,0.463
2.18,32351.9,35843.2,1.701,2.072,141.5,98.4,0.463
2.2,32281.0,35663.4,1.3582,1.6299,141.5,98.4,0.463
2.22,32159.0,35411.0,0.7688,1.0094,141.5,98.4,0.463
2.24,32101.1,35292.8,0.4889,0.719,141.5,98.4,0.463
2.26,32112.6,35078.5,0.5447,0.192,141.5,98.4,0.463
2.28,31993.6,35154.4,-0.0309,0.3785,141.5,98.4,0.463
2.3,32018.3,34997.5,0.0885,-0.0071,141.5,98.4,0.463
2.32,31956.5,34975.4,-0.2101,-0.0615,141.5,98.4,0.463
2.34,31947.0,34789.3,-0.2558,-0.5191,141.5,98.4,0.463
2.36,31771.3,34750.8,-1.1052,-0.6136,141.5,98.4,0.463
2.38,31884.1,34626.1,-0.5598,-0.9202,141.5,98.4,0.463
2.4,31912.9,34600.1,-0.4208,-0.9841,141.5,98.4,0.463
2.42,31861.3,34710.5,-0.6703,-0.7127,141.5,98.4,0.463
2.44,31847.7,34628.3,-0.736,-0.9148,141.5,98.4,0.463
2.46,31786.7,34524.7,-1.0308,-1.1696,141.5,98.4,0.463
2.48,31750.8,34499.6,-1.2041,-1.2313,141.5,98.4,0.463
2.5,31699.6,34592.0,-1.4517,-1.0041,141.5,98.4,0.463
2.52,31832.1,34766.3,-0.8113,-0.5757,141.5,98.4,0.463
2.54,31998.1,35073.0,-0.009,0.1786,141.5,98.4,0.463
2.56,32124.6,35410.0,0.6025,1.0069,141.5,98.4,0.463
2.58,32230.5,35743.0,1.1144,1.8257,141.5,98.4,0.463
2.6,32275.3,35740.5,1.3307,1.8195,141.5,98.4,0.463
2.62,32262.2,35649.4,1.2675,1.5955,141.5,98.4,0.463
2.64,32158.8,35476.2,0.7679,1.1699,141.5,98.4,0.463
2.66,32142.4,35260.5,0.6886,0.6394,141.5,98.4,0.463
2.68,32029.1,35107.6,0.141,0.2636,141.5,98.4,0.463
2.7,31973.6,35112.2,-0.1273,0.2749,141.5,98.4,0.463
2.72,31964.2,35016.9,-0.1728,0.0405,141.5,98.4,0.463
2.74,31967.3,34983.4,-0.1577,-0.0419,141.5,98.4,0.463
2.76,31911.6,34899.8,-0.427,-0.2474,141.5,98.4,0.463
2.78,31893.5,34867.3,-0.5147,-0.3272,141.5,98.4,0.463
2.8,31833.1,34633.7,-0.8063,-0.9017,141.5,98.4,0.463
2.82,31733.9,34716.1,-1.2859,-0.699,141.5,98.4,0.463
2.84,31798.2,34552.6,-0.9751,-1.1009,141.5,98.4,0.463
2.86,31762.7,34603.1,-1.1467,-0.9768,141.5,98.4,0.463
2.88,31880.0,34492.7,-0.5796,-1.2483,141.5,98.4,0.463
2.9,31800.5,34421.2,-0.9639,-1.4241,141.5,98.4,0.463
2.92,31753.7,34504.0,-1.1904,-1.2205,141.5,98.4,0.463
2.94,31869.1,34695.5,-0.6327,-0.7497,141.5,98.4,0.463
2.96,31987.8,35037.1,-0.0588,0.0902,141.5,98.4,0.463
2.98,32102.2,35399.9,0.4944,0.9822,141.5,98.4,0.463
3.0,32317.5,35648.6,1.5348,1.5937,141.5,98.4,0.463
3.02,32287.9,35846.0,1.3917,2.0789,141.5,98.4,0.463
3.04,32238.8,35628.1,1.1545,1.5432,141.5,98.4,0.463
3.06,32278.0,35428.7,1.3441,1.0529,141.5,98.4,0.463
3.08,32034.8,35367.0,0.1684,0.9014,141.5,98.4,0.463
3.1,32085.7,35188.0,0.4146,0.4613,141.5,98.4,0.463
3.12,32052.3,35080.2,0.2528,0.1963,141.5,98.4,0.463
3.14,31980.3,35142.2,-0.0952,0.3486,141.5,98.4,0.463
3.16,31948.9,34992.6,-0.2468,-0.0191,141.5,98.4,0.463
3.18,31840.0,35022.5,-0.773,0.0543,141.5,98.4,0.463
3.2,31860.9,34795.4,-0.6723,-0.504,141.5,98.4,0.463
3.22,31840.6,34716.2,-0.7703,-0.6989,141.5,98.4,0.463
3.24,31936.9,34594.8,-0.3047,-0.9973,141.5,98.4,0.463
3.26,31939.8,34570.5,-0.2909,-1.0571,141.5,98.4,0.463
3.28,31895.8,34622.4,-0.5036,-0.9294,141.5,98.4,0.463
3.3,31814.0,34576.8,-0.8989,-1.0416,141.5,98.4,0.463
3.32,31837.1,34442.1,-0.7873,-1.3726,141.5,98.4,0.463
3.34,31784.3,34457.5,-1.0422,-1.3348,141.5,98.4,0.463
3.36,31745.9,34580.1,-1.228,-1.0334,141.5,98.4,0.463
3.38,32033.8,34949.2,0.1635,-0.1259,141.5,98.4,0.463
3.4,32108.9,35382.1,0.5265,0.9383,141.5,98.4,0.463
3.42,32308.0,35644.4,1.4887,1.5832,141.5,98.4,0.463
3.44,32379.8,35789.3,1.8361,1.9396,141.5,98.4,0.463
3.46,32259.1,35731.0,1.2527,1.7963,141.5,98.4,0.463
3.48,32244.0,35600.6,1.1797,1.4757,141.5,98.4,0.463
3.5,32103.7,35308.7,0.5015,0.7581,141.5,98.4,0.463
3.52,32108.5,35298.9,0.5245,0.7338,141.5,98.4,0.463
3.54,32039.8,35063.1,0.1924,0.1541,141.5,98.4,0.463
3.56,32013.3,35041.7,0.0646,0.1015,141.5,98.4,0.463
3.58,32046.5,35095.2,0.2248,0.233,141.5,98.4,0.463
3.6,31934.6,34969.6,-0.3159,-0.0757,141.5,98.4,0.463
3.62,31914.2,34812.3,-0.4146,-0.4626,141.5,98.4,0.463
3.64,31811.8,34728.0,-0.9093,-0.6699,141.5,98.4,0.463
3.66,31868.7,34633.9,-0.6345,-0.9012,141.5,98.4,0.463
3.68,31857.0,34674.8,-0.6909,-0.8006,141.5,98.4,0.463
3.7,31930.8,34504.4,-0.3345,-1.2194,141.5,98.4,0.463
3.72,31872.8,34553.1,-0.6147,-1.0997,141.5,98.4,0.463
3.74,31799.2,34421.6,-0.9702,-1.4231,141.5,98.4,0.463
3.76,31711.0,34450.2,-1.3968,-1.3528,141.5,98.4,0.463
3.78,31777.3,34529.5,-1.0762,-1.1578,141.5,98.4,0.463
3.8,31908.5,34893.5,-0.4423,-0.2629,141.5,98.4,0.463
3.82,32118.6,35241.4,0.5733,0.5926,141.5,98.4,0.463
3.84,32170.6,35539.6,0.8246,1.3257,141.5,98.4,0.463
3.86,32312.9,35736.8,1.5125,1.8105,141.5,98.4,0.463
3.88,32297.3,35641.3,1.4371,1.5757,141.5,98.4,0.463
3.9,32217.3,35577.2,1.0504,1.418,141.5,98.4,0.463
3.92,32138.6,35410.9,0.6702,1.0093,141.5,98.4,0.463
3.94,32030.0,35263.8,0.1451,0.6477,141.5,98.4,0.463
3.96,32111.0,35167.3,0.5369,0.4102,141.5,98.4,0.463
3.98,31954.9,35000.2,-0.2178,-0.0004,141.5,98.4,0.463
4.0,32019.5,35126.0,0.0945,0.3088,141.5,98.4,0.463
4.02,31986.7,34970.6,-0.064,-0.0733,141.5,98.4,0.463
4.04,31936.4,34804.6,-0.307,-0.4813,141.5,98.4,0.463
4.06,31966.0,34706.4,-0.1641,-0.723,141.5,98.4,0.463
4.08,31862.7,34697.3,-0.6636,-0.7452,141.5,98.4,0.463
4.1,31869.0,34769.2,-0.6329,-0.5684,141.5,98.4,0.463
4.12,31759.1,34615.7,-1.1641,-0.9459,141.5,98.4,0.463
4.14,31834.6,34520.0,-0.7992,-1.1812,141.5,98.4,0.463
4.16,31843.2,34473.1,-0.7577,-1.2965,141.5,98.4,0.463
4.18,31793.1,34465.3,-0.9997,-1.3157,141.5,98.4,0.463
4.2,31763.9,34545.9,-1.1408,-1.1174,141.5,98.4,0.463
4.22,31850.8,34782.0,-0.7208,-0.537,141.5,98.4,0.463
4.24,32181.4,35154.7,0.8767,0.3793,141.5,98.4,0.463
4.26,32151.6,35480.7,0.7331,1.1807,141.5,98.4,0.463
4.28,32321.7,35767.1,1.5551,1.8849,141.5,98.4,0.463
4.3,32269.5,35760.7,1.303,1.8693,141.5,98.4,0.463
4.32,32377.2,35610.1,1.8235,1.4989,141.5,98.4,0.463
4.34,32197.4,35395.7,0.9543,0.9718,141.5,98.4,0.463
4.36,32179.0,35249.1,0.8651,0.6113,141.5,98.4,0.463
4.38,32136.8,35059.8,0.6615,0.1461,141.5,98.4,0.463
4.4,32009.8,35083.3,0.0474,0.2037,141.5,98.4,0.463
4.42,32049.2,35053.0,0.2379,0.1292,141.5,98.4,0.463
4.44,32094.0,34951.7,0.4546,-0.1196,141.5,98.4,0.463
4.46,31849.2,34808.6,-0.7286,-0.4715,141.5,98.4,0.463
4.48,31935.5,34710.4,-0.3117,-0.713,141.5,98.4,0.463
4.5,31920.5,34599.2,-0.3843,-0.9863,141.5,98.4,0.463
4.52,31909.4,34727.7,-0.4378,-0.6705,141.5,98.4,0.463
4.54,31749.8,34631.7,-1.2091,-0.9066,141.5,98.4,0.463
4.56,31760.0,34573.0,-1.1598,-1.0508,141.5,98.4,0.463
4.58,31798.9,34451.5,-0.9718,-1.3495,141.5,98.4,0.463
4.6,31731.2,34395.7,-1.299,-1.4867,141.5,98.4,0.463
4.62,31864.5,34477.9,-0.6547,-1.2847,141.5,98.4,0.463
4.64,31919.5,34697.1,-0.3887,-0.7456,141.5,98.4,0.463
4.66,31983.4,34969.2,-0.0798,-0.0768,141.5,98.4,0.463
4.68,32203.7,35438.5,0.9846,1.0772,141.5,98.4,0.463
4.7,32277.4,35689.0,1.3408,1.6931,141.5,98.4,0.463
4.72,32362.2,35892.2,1.7507,2.1926,141.5,98.4,0.463
4.74,32309.7,35691.3,1.497,1.6987,141.5,98.4,0.463
4.76,32134.4,35461.3,0.65,1.1331,141.5,98.4,0.463
4.78,32057.5,35307.1,0.2779,0.7541,141.5,98.4,0.463
4.8,32088.4,35241.8,0.4274,0.5936,141.5,98.4,0.463
4.82,31960.1,35049.1,-0.1925,0.1197,141.5,98.4,0.463
4.84,32064.9,35103.9,0.3138,0.2543,141.5,98.4,0.463
4.86,31910.7,35011.6,-0.4315,0.0276,141.5,98.4,0.463
4.88,32021.8,34920.2,0.1053,-0.1971,141.5,98.4,0.463
4.9,31919.8,34844.6,-0.3873,-0.383,141.5,98.4,0.463
4.92,31900.7,34673.9,-0.4798,-0.8028,141.5,98.4,0.463
4.94,31892.5,34618.5,-0.5195,-0.939,141.5,98.4,0.463
4.96,31906.3,34657.2,-0.4527,-0.8437,141.5,98.4,0.463
4.98,31854.7,34665.3,-0.7021,-0.8239,141.5,98.4,0.463
5.0,31811.3,34595.0,-0.9121,-0.9967,141.5,98.4,0.463
5.02,31823.5,34514.0,-0.8528,-1.196,141.5,98.4,0.463
5.04,31807.8,34550.6,-0.9289,-1.1059,141.5,98.4,0.463
5.06,31929.7,34700.1,-0.3395,-0.7382,141.5,98.4,0.463
5.08,32092.2,34968.8,0.4458,-0.0777,141.5,98.4,0.463
5.1,32209.2,35375.7,1.0112,0.9228,141.5,98.4,0.463
5.12,32265.7,35667.3,1.2844,1.6395,141.5,98.4,0.463
5.14,32260.3,35815.5,1.2582,2.004,141.5,98.4,0.463
5.16,32276.5,35759.6,1.3366,1.8666,141.5,98.4,0.463
5.18,32230.7,35506.9,1.1152,1.2454,141.5,98.4,0.463
5.2,32124.8,35337.9,0.6036,0.8297,141.5,98.4,0.463
5.22,32084.8,35161.7,0.41,0.3966,141.5,98.4,0.463
5.24,32001.0,35041.2,0.0053,0.1003,141.5,98.4,0.463
5.26,31942.4,35099.4,-0.2782,0.2434,141.5,98.4,0.463
5.28,32010.4,34935.9,0.0504,-0.1586,141.5,98.4,0.463
5.3,31938.2,34818.7,-0.2987,-0.4469,141.5,98.4,0.463
5.32,31973.1,34715.9,-0.13,-0.6995,141.5,98.4,0.463
5.34,31804.2,34680.4,-0.9463,-0.7868,141.5,98.4,0.463
5.36,31938.1,34632.1,-0.2992,-0.9055,141.5,98.4,0.463
5.38,31819.9,34677.3,-0.8701,-0.7943,141.5,98.4,0.463
5.4,31760.4,34600.7,-1.1581,-0.9828,141.5,98.4,0.463
5.42,31784.1,34497.3,-1.0433,-1.2371,141.5,98.4,0.463
5.44,31782.1,34446.7,-1.0529,-1.3612,141.5,98.4,0.463
5.46,31757.6,34540.6,-1.1713,-1.1306,141.5,98.4,0.463
5.48,31765.6,34788.1,-1.1329,-0.5219,141.5,98.4,0.463
5.5,31941.1,34959.5,-0.2843,-0.1005,141.5,98.4,0.463
5.52,32165.1,35285.0,0.798,0.6996,141.5,98.4,0.463
5.54,32184.1,35573.4,0.8901,1.4086,141.5,98.4,0.463
5.56,32404.3,35786.9,1.9545,1.9336,141.5,98.4,0.463
5.58,32330.9,35717.4,1.5998,1.7628,141.5,98.4,0.463
5.6,32264.5,35450.1,1.2786,1.1056,141.5,98.4,0.463
5.62,32157.9,35351.2,0.7635,0.8624,141.5,98.4,0.463
5.64,32041.3,35193.1,0.1996,0.4738,141.5,98.4,0.463
5.66,31980.8,35155.5,-0.0927,0.3814,141.5,98.4,0.463
5.68,32034.6,35064.8,0.1672,0.1583,141.5,98.4,0.463
5.7,32114.4,34946.8,0.5531,-0.1319,141.5,98.4,0.463
5.72,31887.4,34912.2,-0.5441,-0.2169,141.5,98.4,0.463
5.74,31853.0,34783.2,-0.7105,-0.534,141.5,98.4,0.463
5.76,31873.8,34751.1,-0.6098,-0.6129,141.5,98.4,0.463
5.78,31791.3,34692.0,-1.0087,-0.7582,141.5,98.4,0.463
5.8,31934.3,34589.2,-0.3172,-1.0109,141.5,98.4,0.463
5.82,31897.8,34660.1,-0.4938,-0.8367,141.5,98.4,0.463
5.84,31849.2,34557.4,-0.7289,-1.0892,141.5,98.4,0.463
5.86,31713.2,34539.2,-1.386,-1.134,141.5,98.4,0.463
5.88,31822.5,34469.7,-0.8579,-1.3047,141.5,98.4,0.463
5.9,31803.8,34621.1,-0.9479,-0.9325,141.5,98.4,0.463
5.92,32004.2,34887.9,0.0207,-0.2767,141.5,98.4,0.463
5.94,32087.8,35198.3,0.4243,0.4865,141.5,98.4,0.463
5.96,32236.0,35494.2,1.1408,1.214,141.5,98.4,0.463
5.98,32321.0,35769.0,1.5518,1.8896,141.5,98.4,0.463
6.0,32338.7,35756.5,1.6371,1.8589,141.5,98.4,0.463
6.02,32220.5,35712.0,1.0657,1.7494,141.5,98.4,0.463
6.04,32217.3,35422.9,1.0507,1.0388,141.5,98.4,0.463
6.06,32068.8,35215.1,0.3326,0.5278,141.5,98.4,0.463
6.08,32038.3,35211.2,0.1852,0.5182,141.5,98.4,0.463
6.1,32009.3,34990.6,0.0449,-0.024,141.5,98.4,0.463
6.12,32045.6,35022.6,0.2208,0.0545,141.5,98.4,0.463
6.14,32007.7,34885.2,0.0373,-0.2832,141.5,98.4,0.463
6.16,31932.7,34784.7,-0.325,-0.5303,141.5,98.4,0.463
6.18,31955.8,34685.6,-0.2137,-0.7739,141.5,98.4,0.463
6.2,31922.3,34700.1,-0.3753,-0.7384,141.5,98.4,0.463
6.22,31865.9,34651.2,-0.6482,-0.8586,141.5,98.4,0.463
6.24,31925.5,34679.4,-0.3597,-0.7892,141.5,98.4,0.463
6.26,31831.5,34643.9,-0.8144,-0.8766,141.5,98.4,0.463
6.28,31793.5,34420.6,-0.998,-1.4256,141.5,98.4,0.463
6.3,31740.3,34487.1,-1.2552,-1.2619,141.5,98.4,0.463
6.32,31745.1,34518.0,-1.232,-1.1859,141.5,98.4,0.463
6.34,31942.4,34769.6,-0.2784,-0.5675,141.5,98.4,0.463
6.36,32055.8,35140.0,0.2699,0.3433,141.5,98.4,0.463
6.38,32138.2,35445.2,0.6681,1.0935,141.5,98.4,0.463
6.4,32313.2,35685.7,1.514,1.6849,141.5,98.4,0.463
6.42,32352.0,35709.3,1.7014,1.7429,141.5,98.4,0.463
6.44,32283.2,35699.0,1.3689,1.7176,141.5,98.4,0.463
6.46,32155.5,35397.1,0.752,0.9753,141.5,98.4,0.463
6.48,32114.7,35308.6,0.5546,0.7577,141.5,98.4,0.463
6.5,32117.6,35169.5,0.5687,0.4158,141.5,98.4,0.463
6.52,32071.7,35097.6,0.3466,0.239,141.5,98.4,0.463
6.54,32004.7,35057.7,0.0229,0.1408,141.5,98.4,0.463
6.56,31947.0,35013.9,-0.2558,0.0332,141.5,98.4,0.463
6.58,31925.5,34831.4,-0.3599,-0.4155,141.5,98.4,0.463
6.6,31778.3,34765.1,-1.0716,-0.5786,141.5,98.4,0.463
6.62,31840.7,34706.0,-0.7696,-0.7239,141.5,98.4,0.463
6.64,31802.5,34705.3,-0.9541,-0.7256,141.5,98.4,0.463
6.66,31803.4,34590.4,-0.95,-1.0081,141.5,98.4,0.463
6.68,31804.2,34532.7,-0.9464,-1.15,141.5,98.4,0.463
6.7,31805.9,34488.7,-0.938,-1.2582,141.5,98.4,0.463
6.72,31752.8,34325.0,-1.1948,-1.6604,141.5,98.4,0.463
6.74,31806.5,34434.6,-0.9352,-1.3911,141.5,98.4,0.463
6.76,31892.1,34714.1,-0.5213,-0.7038,141.5,98.4,0.463
6.78,31962.2,35038.8,-0.1824,0.0945,141.5,98.4,0.463
6.8,32219.9,35488.6,1.0629,1.2002,141.5,98.4,0.463
6.82,32276.7,35646.8,1.3378,1.5892,141.5,98.4,0.463
6.84,32323.0,35711.6,1.5614,1.7485,141.5,98.4,0.463
6.86,32298.9,35603.9,1.445,1.4838,141.5,98.4,0.463
6.88,32141.8,35530.9,0.6856,1.3042,141.5,98.4,0.463
6.9,32151.0,35271.3,0.7302,0.666,141.5,98.4,0.463
6.92,32057.6,35201.5,0.2786,0.4944,141.5,98.4,0.463
6.94,32132.7,35117.0,0.6415,0.2866,141.5,98.4,0.463
6.96,32016.2,35076.6,0.0787,0.1873,141.5,98.4,0.463
6.98,32075.9,35038.1,0.367,0.0926,141.5,98.4,0.463
7.0,31951.8,34828.8,-0.233,-0.4219,141.5,98.4,0.463
7.02,31929.7,34753.0,-0.3397,-0.6084,141.5,98.4,0.463
7.04,31995.3,34704.2,-0.0225,-0.7284,141.5,98.4,0.463
7.06,31787.0,34658.1,-1.0294,-0.8415,141.5,98.4,0.463
7.08,31867.0,34676.1,-0.6426,-0.7974,141.5,98.4,0.463
7.1,31890.6,34613.0,-0.5284,-0.9524,141.5,98.4,0.463
7.12,31809.8,34534.2,-0.919,-1.1461,141.5,98.4,0.463
7.14,31799.3,34504.0,-0.9696,-1.2204,141.5,98.4,0.463
7.16,31770.5,34564.4,-1.1093,-1.072,141.5,98.4,0.463
7.18,31833.2,34594.9,-0.806,-0.9969,141.5,98.4,0.463
7.2,31908.9,34978.8,-0.4403,-0.0531,141.5,98.4,0.463
7.22,32173.3,35424.3,0.838,1.0421,141.5,98.4,0.463
7.24,32335.3,35626.5,1.6209,1.5393,141.5,98.4,0.463
7.26,32302.3,35733.7,1.4614,1.8029,141.5,98.4,0.463
7.28,32264.1,35701.2,1.2765,1.7229,141.5,98.4,0.463
7.3,32210.9,35597.3,1.0198,1.4675,141.5,98.4,0.463
7.32,32092.7,35266.9,0.4485,0.6552,141.5,98.4,0.463
7.34,32080.3,35237.2,0.3883,0.5823,141.5,98.4,0.463
7.36,32026.2,35088.2,0.1269,0.2158,141.5,98.4,0.463
7.38,31955.3,35091.5,-0.2159,0.224,141.5,98.4,0.463
7.4,31984.1,34986.6,-0.0766,-0.0339,141.5,98.4,0.463
7.42,31890.8,34911.5,-0.5276,-0.2187,141.5,98.4,0.463
7.44,31951.3,34598.2,-0.2354,-0.989,141.5,98.4,0.463
7.46,31889.5,34757.9,-0.5338,-0.5963,141.5,98.4,0.463
7.48,31831.4,34639.7,-0.8147,-0.8869,141.5,98.4,0.463
7.5,31861.2,34667.2,-0.6707,-0.8192,141.5,98.4,0.463
7.52,31733.0,34606.4,-1.2902,-0.9686,141.5,98.4,0.463
7.54,31773.1,34538.6,-1.0966,-1.1355,141.5,98.4,0.463
7.56,31782.9,34362.2,-1.049,-1.5691,141.5,98.4,0.463
7.58,31799.4,34486.5,-0.9694,-1.2634,141.5,98.4,0.463
7.6,31905.2,34610.3,-0.4582,-0.9592,141.5,98.4,0.463
7.62,32009.0,34856.5,0.0435,-0.3539,141.5,98.4,0.463
7.64,32162.2,35367.2,0.7844,0.9018,141.5,98.4,0.463
7.66,32288.3,35614.7,1.3935,1.5104,141.5,98.4,0.463
7.68,32373.9,35781.9,1.8073,1.9215,141.5,98.4,0.463
7.7,32251.8,35729.1,1.2172,1.7916,141.5,98.4,0.463
7.72,32209.9,35589.8,1.0147,1.4491,141.5,98.4,0.463
7.74,32140.5,35331.6,0.6795,0.8142,141.5,98.4,0.463
7.76,31981.6,35149.9,-0.0887,0.3675,141.5,98.4,0.463
7.78,32039.8,35121.7,0.1924,0.2983,141.5,98.4,0.463
7.8,32028.9,35134.9,0.1397,0.3306,141.5,98.4,0.463
7.82,32036.2,34961.5,0.1754,-0.0958,141.5,98.4,0.463
7.84,31916.1,34772.9,-0.4053,-0.5594,141.5,98.4,0.463
7.86,31864.2,34849.7,-0.6562,-0.3707,141.5,98.4,0.463
7.88,31862.3,34700.7,-0.6651,-0.7368,141.5,98.4,0.463
7.9,31844.1,34647.2,-0.7533,-0.8684,141.5,98.4,0.463
7.92,31877.4,34650.8,-0.5923,-0.8595,141.5,98.4,0.463
7.94,31952.0,34494.9,-0.2318,-1.2428,141.5,98.4,0.463
7.96,31842.4,34504.5,-0.7616,-1.2191,141.5,98.4,0.463
7.98,31721.1,34434.7,-1.3479,-1.3909,141.5,98.4,0.463
8.0,31787.3,34419.2,-1.0278,-1.4289,141.5,98.4,0.463
8.02,31923.1,34478.1,-0.3713,-1.2842,141.5,98.4,0.463
8.04,32003.1,34959.7,0.0153,-0.1002,141.5,98.4,0.463
8.06,32031.6,35180.5,0.1531,0.4428,141.5,98.4,0.463
8.08,32219.2,35481.3,1.0598,1.1822,141.5,98.4,0.463
8.1,32222.8,35762.5,1.0769,1.8737,141.5,98.4,0.463
8.12,32291.3,35756.7,1.4079,1.8595,141.5,98.4,0.463
8.14,32295.0,35618.9,1.4261,1.5206,141.5,98.4,0.463
8.16,32204.0,35454.2,0.9861,1.1156,141.5,98.4,0.463
8.18,32123.0,35240.4,0.5947,0.5901,141.5,98.4,0.463
8.2,32087.4,35101.4,0.4226,0.2483,141.5,98.4,0.463
8.22,32009.7,35134.5,0.0472,0.3297,141.5,98.4,0.463
8.24,32004.6,34957.0,0.0224,-0.1068,141.5,98.4,0.463
8.26,31930.0,34853.0,-0.338,-0.3625,141.5,98.4,0.463
8.28,31907.9,34889.6,-0.4451,-0.2725,141.5,98.4,0.463
8.3,31878.5,34757.4,-0.5869,-0.5976,141.5,98.4,0.463
8.32,31861.2,34652.9,-0.6707,-0.8545,141.5,98.4,0.463
8.34,31884.5,34595.4,-0.5579,-0.9958,141.5,98.4,0.463
8.36,31800.5,34649.7,-0.9639,-0.8624,141.5,98.4,0.463
8.38,31842.2,34623.8,-0.7627,-0.9258,141.5,98.4,0.463
8.4,31834.6,34517.3,-0.7994,-1.1878,141.5,98.4,0.463
8.42,31778.5,34463.7,-1.0703,-1.3196,141.5,98.4,0.463
8.44,31772.9,34561.4,-1.0975,-1.0794,141.5,98.4,0.463
8.46,31897.0,34883.9,-0.4975,-0.2864,141.5,98.4,0.463
8.48,32033.4,35146.6,0.1617,0.3593,141.5,98.4,0.463
8.5,32194.1,35418.9,0.9383,1.0289,141.5,98.4,0.463
8.52,32414.7,35645.3,2.0046,1.5855,141.5,98.4,0.463
8.54,32325.9,35711.3,1.5755,1.7477,141.5,98.4,0.463
8.56,32207.7,35641.1,1.004,1.5752,141.5,98.4,0.463
8.58,32153.5,35450.8,0.7423,1.1074,141.5,98.4,0.463
8.6,32112.5,35175.7,0.5439,0.431,141.5,98.4,0.463
8.62,31942.3,35033.4,-0.2788,0.0811,141.5,98.4,0.463
8.64,31991.0,35165.0,-0.0435,0.4048,141.5,98.4,0.463
8.66,32028.8,35100.1,0.1392,0.245,141.5,98.4,0.463
8.68,32008.6,34959.2,0.0419,-0.1012,141.5,98.4,0.463
8.7,31961.7,34896.2,-0.1851,-0.2563,141.5,98.4,0.463
8.72,31853.8,34791.8,-0.7064,-0.513,141.5,98.4,0.463
8.74,31986.8,34637.5,-0.0636,-0.8923,141.5,98.4,0.463
8.76,31906.6,34613.2,-0.451,-0.952,141.5,98.4,0.463
8.78,31772.0,34737.8,-1.102,-0.6457,141.5,98.4,0.463
8.8,31771.9,34548.9,-1.1023,-1.1101,141.5,98.4,0.463
8.82,31807.1,34552.9,-0.9319,-1.1001,141.5,98.4,0.463
8.84,31782.6,34359.3,-1.0506,-1.5762,141.5,98.4,0.463
8.86,31783.3,34584.9,-1.0473,-1.0216,141.5,98.4,0.463
8.88,31933.0,34762.6,-0.3234,-0.5848,141.5,98.4,0.463
8.9,31993.2,35070.8,-0.0327,0.173,141.5,98.4,0.463
8.92,32165.1,35408.4,0.7982,1.0031,141.5,98.4,0.463
8.94,32304.4,35730.3,1.4716,1.7945,141.5,98.4,0.463
8.96,32235.9,35771.3,1.1403,1.8953,141.5,98.4,0.463
8.98,32316.1,35639.5,1.5281,1.5714,141.5,98.4,0.463
9.0,32212.8,35520.3,1.0289,1.2783,141.5,98.4,0.463
9.02,32043.8,35295.5,0.212,0.7255,141.5,98.4,0.463
9.04,32189.3,35195.4,0.9149,0.4794,141.5,98.4,0.463
9.06,32092.2,35056.0,0.4457,0.1368,141.5,98.4,0.463
9.08,31974.5,35107.8,-0.1228,0.2641,141.5,98.4,0.463
9.1,31926.9,35099.9,-0.3532,0.2446,141.5,98.4,0.463
9.12,31951.6,34927.0,-0.2337,-0.1805,141.5,98.4,0.463
9.14,31939.9,34747.2,-0.2904,-0.6225,141.5,98.4,0.463
9.16,31788.2,34701.9,-1.0233,-0.7338,141.5,98.4,0.463
9.18,31975.1,34665.0,-0.1203,-0.8247,141.5,98.4,0.463
9.2,31875.0,34728.6,-0.6041,-0.6683,141.5,98.4,0.463
9.22,31860.2,34619.4,-0.6757,-0.9368,141.5,98.4,0.463
9.24,31816.9,34458.3,-0.8846,-1.3327,141.5,98.4,0.463
9.26,31809.7,34451.0,-0.9194,-1.3508,141.5,98.4,0.463
9.28,31815.5,34485.5,-0.8915,-1.2659,141.5,98.4,0.463
9.3,31765.0,34707.1,-1.1356,-0.7212,141.5,98.4,0.463
9.32,31957.7,34966.4,-0.2044,-0.0837,141.5,98.4,0.463
9.34,32236.8,35358.4,1.1446,0.8801,141.5,98.4,0.463
9.36,32316.1,35574.3,1.528,1.4109,141.5,98.4,0.463
9.38,32289.6,35712.6,1.3999,1.751,141.5,98.4,0.463
9.4,32330.1,35793.2,1.5959,1.9491,141.5,98.4,0.463
9.42,32202.2,35505.0,0.9776,1.2407,141.5,98.4,0.463
9.44,32121.9,35385.9,0.5892,0.9477,141.5,98.4,0.463
9.46,32135.3,35174.2,0.654,0.4272,141.5,98.4,0.463
9.48,32053.0,35088.2,0.2564,0.216,141.5,98.4,0.463
9.5,32058.4,35105.4,0.2823,0.2582,141.5,98.4,0.463
9.52,31984.9,35031.3,-0.0726,0.0758,141.5,98.4,0.463
9.54,31966.4,34866.8,-0.1622,-0.3285,141.5,98.4,0.463
9.56,31987.3,34732.3,-0.0613,-0.6592,141.5,98.4,0.463
9.58,31909.8,34770.1,-0.4356,-0.5663,141.5,98.4,0.463
9.6,31837.6,34700.5,-0.7848,-0.7373,141.5,98.4,0.463
9.62,31843.4,34712.0,-0.7567,-0.7091,141.5,98.4,0.463
9.64,31824.9,34652.8,-0.8463,-0.8546,141.5,98.4,0.463
9.66,31735.1,34579.3,-1.2799,-1.0353,141.5,98.4,0.463
9.68,31737.0,34481.3,-1.2711,-1.2764,141.5,98.4,0.463
9.7,31698.8,34397.2,-1.4555,-1.4831,141.5,98.4,0.463
9.72,31881.2,34554.8,-0.5738,-1.0957,141.5,98.4,0.463
9.74,32052.0,34960.9,0.2517,-0.0972,141.5,98.4,0.463
9.76,32104.4,35318.5,0.5048,0.7821,141.5,98.4,0.463
9.78,32215.3,35577.7,1.0409,1.4193,141.5,98.4,0.463
9.8,32333.3,35725.3,1.611,1.7822,141.5,98.4,0.463
9.82,32385.4,35688.4,1.8629,1.6914,141.5,98.4,0.463
9.84,32228.5,35518.5,1.1044,1.2738,141.5,98.4,0.463
9.86,32150.7,35336.3,0.7286,0.8259,141.5,98.4,0.463
9.88,32050.2,35228.4,0.243,0.5605,141.5,98.4,0.463
9.9,32033.1,35052.0,0.16,0.1269,141.5,98.4,0.463
9.92,32024.6,35121.5,0.1193,0.2978,141.5,98.4,0.463
9.94,32011.5,35006.5,0.0558,0.0149,141.5,98.4,0.463
9.96,31974.2,34919.9,-0.1245,-0.1979,141.5,98.4,0.463
9.98,31936.0,34828.2,-0.3089,-0.4233,141.5,98.4,0.463
10.0,31899.8,34687.8,-0.4842,-0.7686,141.5,98.4,0.463
10.02,31929.4,34700.0,-0.3412,-0.7386,141.5,98.4,0.463
10.04,31803.8,34663.9,-0.9483,-0.8274,141.5,98.4,0.463
10.06,31738.0,34666.4,-1.2662,-0.8213,141.5,98.4,0.463
10.08,31804.2,34560.8,-0.9459,-1.0807,141.5,98.4,0.463
10.1,31828.4,34586.8,-0.8291,-1.0168,141.5,98.4,0.463
10.12,31740.5,34434.1,-1.2539,-1.3923,141.5,98.4,0.463
10.14,31802.5,34571.5,-0.9546,-1.0544,141.5,98.4,0.463
10.16,31957.2,34796.3,-0.2065,-0.5017,141.5,98.4,0.463
10.18,32112.2,35047.0,0.5424,0.1145,141.5,98.4,0.463
10.2,32134.7,35531.6,0.6512,1.3061,141.5,98.4,0.463
10.22,32412.8,35726.4,1.9953,1.785,141.5,98.4,0.463
10.24,32340.9,35674.8,1.6479,1.6582,141.5,98.4,0.463
10.26,32236.2,35501.6,1.142,1.2322,141.5,98.4,0.463
10.28,32085.9,35344.3,0.4153,0.8454,141.5,98.4,0.463
10.3,32060.2,35383.4,0.291,0.9416,141.5,98.4,0.463
10.32,32037.8,35098.4,0.183,0.2409,141.5,98.4,0.463
10.34,32116.8,35115.8,0.5646,0.2837,141.5,98.4,0.463
10.36,31960.1,34918.5,-0.1925,-0.2014,141.5,98.4,0.463
10.38,31994.8,34861.6,-0.0249,-0.3413,141.5,98.4,0.463
10.4,31950.3,34937.9,-0.2401,-0.1537,141.5,98.4,0.463
10.42,31848.8,34772.2,-0.7306,-0.561,141.5,98.4,0.463
10.44,31772.7,34726.1,-1.0984,-0.6743,141.5,98.4,0.463
10.46,31868.3,34628.4,-0.6362,-0.9147,141.5,98.4,0.463
10.48,31843.2,34696.7,-0.7577,-0.7467,141.5,98.4,0.463
10.5,31837.4,34630.0,-0.7857,-0.9108,141.5,98.4,0.463
10.52,31729.0,34509.9,-1.3098,-1.2059,141.5,98.4,0.463
10.54,31775.1,34466.6,-1.0866,-1.3123,141.5,98.4,0.463
10.56,31830.5,34615.6,-0.819,-0.9461,141.5,98.4,0.463
10.58,31855.7,34664.7,-0.6972,-0.8253,141.5,98.4,0.463
10.6,32006.4,35054.0,0.031,0.1318,141.5,98.4,0.463
10.62,32205.8,35409.4,0.9947,1.0054,141.5,98.4,0.463
10.64,32311.6,35746.4,1.5062,1.834,141.5,98.4,0.463
10.66,32265.5,35775.0,1.2835,1.9045,141.5,98.4,0.463
10.68,32210.6,35503.5,1.0182,1.2369,141.5,98.4,0.463
10.7,32189.0,35344.4,0.9137,0.8457,141.5,98.4,0.463
10.72,32108.0,35227.9,0.5224,0.5593,141.5,98.4,0.463
10.74,32028.1,35099.3,0.1359,0.2431,141.5,98.4,0.463
10.76,32116.1,35129.7,0.5614,0.318,141.5,98.4,0.463
10.78,31986.9,34975.6,-0.0631,-0.061,141.5,98.4,0.463
10.8,32087.7,34924.8,0.4242,-0.1859,141.5,98.4,0.463
10.82,31956.7,34859.3,-0.2092,-0.3469,141.5,98.4,0.463
10.84,31892.4,34709.1,-0.5199,-0.7163,141.5,98.4,0.463
10.86,31913.7,34667.1,-0.4169,-0.8195,141.5,98.4,0.463
10.88,31905.4,34669.7,-0.4568,-0.813,141.5,98.4,0.463
10.9,31883.5,34617.0,-0.5629,-0.9426,141.5,98.4,0.463
10.92,31717.9,34689.2,-1.3632,-0.7653,141.5,98.4,0.463
10.94,31790.3,34601.0,-1.0133,-0.982,141.5,98.4,0.463
10.96,31766.6,34509.3,-1.128,-1.2075,141.5,98.4,0.463
10.98,31705.8,34501.9,-1.4218,-1.2257,141.5,98.4,0.463
11.0,31966.9,34695.1,-0.1599,-0.7506,141.5,98.4,0.463
11.02,32041.7,35053.6,0.2016,0.1308,141.5,98.4,0.463
11.04,32216.4,35432.3,1.0463,1.0619,141.5,98.4,0.463
11.06,32310.6,35689.0,1.5016,1.693,141.5,98.4,0.463
11.08,32218.6,35801.5,1.0567,1.9695,141.5,98.4,0.463
11.1,32296.3,35741.2,1.4323,1.8213,141.5,98.4,0.463
11.12,32158.9,35420.2,0.768,1.0322,141.5,98.4,0.463
11.14,32103.8,35312.6,0.5017,0.7676,141.5,98.4,0.463
11.16,32090.1,35206.5,0.4359,0.5068,141.5,98.4,0.463
11.18,32029.2,35113.4,0.1413,0.2779,141.5,98.4,0.463
11.2,32040.7,35115.3,0.1967,0.2824,141.5,98.4,0.463
11.22,31942.8,34924.2,-0.2761,-0.1873,141.5,98.4,0.463
11.24,31938.9,34888.6,-0.295,-0.2748,141.5,98.4,0.463
11.26,31918.3,34709.1,-0.3949,-0.7163,141.5,98.4,0.463
11.28,31887.1,34641.6,-0.5457,-0.8821,141.5,98.4,0.463
11.3,31868.9,34725.7,-0.6332,-0.6753,141.5,98.4,0.463
11.32,31902.0,34585.7,-0.4735,-1.0197,141.5,98.4,0.463
11.34,31857.2,34630.5,-0.6902,-0.9094,141.5,98.4,0.463
11.36,31641.4,34480.1,-1.7328,-1.2792,141.5,98.4,0.463
11.38,31853.1,34438.8,-0.7099,-1.3809,141.5,98.4,0.463
11.4,31748.9,34468.3,-1.2136,-1.3083,141.5,98.4,0.463
11.42,31818.8,34633.5,-0.8758,-0.9022,141.5,98.4,0.463
11.44,32074.8,35060.9,0.3619,0.1487,141.5,98.4,0.463
11.46,32158.0,35281.2,0.764,0.6902,141.5,98.4,0.463
11.48,32273.9,35635.2,1.3243,1.5606,141.5,98.4,0.463
11.5,32236.7,35811.2,1.1443,1.9935,141.5,98.4,0.463
11.52,32203.9,35653.7,0.986,1.6062,141.5,98.4,0.463
11.54,32136.7,35420.2,0.6607,1.0322,141.5,98.4,0.463
11.56,32082.0,35298.3,0.3966,0.7323,141.5,98.4,0.463
11.58,32057.1,35140.7,0.2761,0.3449,141.5,98.4,0.463
11.6,32097.1,35093.1,0.4698,0.228,141.5,98.4,0.463
11.62,32017.3,35061.3,0.0838,0.1496,141.5,98.4,0.463
11.64,31921.5,34966.2,-0.3794,-0.084,141.5,98.4,0.463
11.66,31878.9,34907.5,-0.5853,-0.2284,141.5,98.4,0.463
11.68,31955.0,34770.1,-0.2171,-0.5662,141.5,98.4,0.463
11.7,31805.9,34689.9,-0.9379,-0.7633,141.5,98.4,0.463
11.72,31910.7,34703.4,-0.4316,-0.7303,141.5,98.4,0.463
11.74,31894.5,34547.7,-0.5098,-1.113,141.5,98.4,0.463
11.76,31851.6,34691.9,-0.7172,-0.7585,141.5,98.4,0.463
11.78,31745.7,34527.1,-1.2288,-1.1636,141.5,98.4,0.463
11.8,31779.4,34492.7,-1.0661,-1.2483,141.5,98.4,0.463
11.82,31727.1,34489.8,-1.3189,-1.2554,141.5,98.4,0.463
11.84,31877.9,34645.3,-0.5902,-0.8732,141.5,98.4,0.463
11.86,31964.4,34913.1,-0.1719,-0.2147,141.5,98.4,0.463
11.88,32064.5,35291.8,0.3121,0.7165,141.5,98.4,0.463
11.9,32224.5,35524.1,1.0853,1.2874,141.5,98.4,0.463
11.92,32259.6,35777.4,1.255,1.9103,141.5,98.4,0.463
11.94,32446.4,35740.5,2.1578,1.8196,141.5,98.4,0.463
11.96,32204.8,35558.0,0.9899,1.3709,141.5,98.4,0.463
11.98,32124.7,35379.3,0.6031,0.9316,141.5,98.4,0.463
12.0,32103.0,35178.4,0.4981,0.4376,141.5,98.4,0.463
12.02,32011.4,35220.3,0.0552,0.5407,141.5,98.4,0.463
12.04,32029.3,35119.4,0.1418,0.2926,141.5,98.4,0.463
12.06,32074.2,35014.5,0.3587,0.0345,141.5,98.4,0.463
12.08,31994.3,34937.7,-0.0271,-0.1543,141.5,98.4,0.463
12.1,31825.2,34821.1,-0.8447,-0.4409,141.5,98.4,0.463
12.12,31883.2,34769.7,-0.5644,-0.5673,141.5,98.4,0.463
12.14,31836.9,34684.6,-0.7883,-0.7766,141.5,98.4,0.463
12.16,31839.6,34635.4,-0.7751,-0.8975,141.5,98.4,0.463
12.18,31870.7,34633.8,-0.6248,-0.9015,141.5,98.4,0.463
12.2,31772.8,34627.3,-1.0981,-0.9173,141.5,98.4,0.463
12.22,31864.3,34628.6,-0.6555,-0.9141,141.5,98.4,0.463
12.24,31781.2,34402.4,-1.0573,-1.4703,141.5,98.4,0.463
12.26,31847.5,34601.7,-0.737,-0.9802,141.5,98.4,0.463
12.28,31960.9,34853.4,-0.1889,-0.3614,141.5,98.4,0.463
12.3,32092.4,35228.8,0.4468,0.5616,141.5,98.4,0.463
12.32,32191.5,35542.7,0.9257,1.3333,141.5,98.4,0.463
12.34,32310.5,35713.1,1.5009,1.7521,141.5,98.4,0.463
12.36,32232.9,35622.5,1.126,1.5295,141.5,98.4,0.463
12.38,32203.3,35591.5,0.9827,1.4532,141.5,98.4,0.463
12.4,32262.5,35481.1,1.269,1.1817,141.5,98.4,0.463
12.42,32173.1,35223.3,0.8368,0.5481,141.5,98.4,0.463
12.44,32059.2,35217.7,0.2865,0.5342,141.5,98.4,0.463
12.46,32157.1,35049.7,0.7594,0.1211,141.5,98.4,0.463
12.48,31969.9,35183.1,-0.1452,0.4492,141.5,98.4,0.463
12.5,31969.1,34921.3,-0.1489,-0.1944,141.5,98.4,0.463
12.52,31885.7,34826.3,-0.552,-0.4281,141.5,98.4,0.463
12.54,31876.0,34703.7,-0.5991,-0.7296,141.5,98.4,0.463
12.56,31795.5,34696.4,-0.9884,-0.7473,141.5,98.4,0.463
12.58,31819.8,34669.5,-0.8707,-0.8137,141.5,98.4,0.463
12.6,31896.8,34624.8,-0.4987,-0.9235,141.5,98.4,0.463
12.62,31809.9,34638.1,-0.9187,-0.8907,141.5,98.4,0.463
12.64,31733.9,34502.7,-1.2859,-1.2236,141.5,98.4,0.463
12.66,31846.4,34485.2,-0.7423,-1.2667,141.5,98.4,0.463
12.68,31753.4,34545.1,-1.1918,-1.1195,141.5,98.4,0.463
12.7,31953.2,34762.7,-0.2258,-0.5844,141.5,98.4,0.463
12.72,32013.6,35106.6,0.0657,0.2612,141.5,98.4,0.463
12.74,32187.7,35485.9,0.9076,1.1936,141.5,98.4,0.463
12.76,32319.5,35705.6,1.5445,1.7337,141.5,98.4,0.463
12.78,32332.9,35753.9,1.609,1.8524,141.5,98.4,0.463
12.8,32339.8,35781.6,1.6426,1.9206,141.5,98.4,0.463
12.82,32129.1,35399.6,0.6241,0.9815,141.5,98.4,0.463
12.84,32074.5,35257.3,0.3601,0.6316,141.5,98.4,0.463
12.86,31999.0,35123.8,-0.0044,0.3035,141.5,98.4,0.463
12.88,32077.0,35133.1,0.3724,0.3262,141.5,98.4,0.463
12.9,32089.7,34969.7,0.4338,-0.0756,141.5,98.4,0.463
12.92,31952.2,34890.2,-0.2307,-0.2711,141.5,98.4,0.463
12.94,31923.4,34832.1,-0.3703,-0.4139,141.5,98.4,0.463
12.96,31948.9,34716.0,-0.2468,-0.6993,141.5,98.4,0.463
12.98,31953.5,34759.3,-0.2245,-0.5927,141.5,98.4,0.463
13.0,31890.7,34711.7,-0.528,-0.7097,141.5,98.4,0.463
13.02,31864.6,34685.4,-0.6545,-0.7746,141.5,98.4,0.463
13.04,31847.9,34568.4,-0.7351,-1.0621,141.5,98.4,0.463
13.06,31820.3,34476.4,-0.8683,-1.2883,141.5,98.4,0.463
13.08,31830.1,34372.8,-0.821,-1.543,141.5,98.4,0.463
13.1,31795.2,34538.6,-0.9899,-1.1354,141.5,98.4,0.463
13.12,31742.8,34749.6,-1.243,-0.6166,141.5,98.4,0.463
13.14,31999.4,35052.6,-0.0026,0.1284,141.5,98.4,0.463
13.16,32189.5,35368.1,0.9161,0.9041,141.5,98.4,0.463
13.18,32308.9,35684.5,1.4932,1.6819,141.5,98.4,0.463
13.2,32264.6,35725.7,1.2792,1.7832,141.5,98.4,0.463
13.22,32280.9,35571.4,1.3579,1.4038,141.5,98.4,0.463
13.24,32187.1,35535.0,0.9048,1.3143,141.5,98.4,0.463
13.26,32110.1,35323.0,0.5324,0.7932,141.5,98.4,0.463
13.28,32080.0,35108.0,0.3869,0.2645,141.5,98.4,0.463
13.3,32074.2,35072.1,0.3591,0.1763,141.5,98.4,0.463
13.32,32047.8,35045.4,0.2312,0.1105,141.5,98.4,0.463
13.34,31988.2,35112.9,-0.0567,0.2766,141.5,98.4,0.463
13.36,31872.7,34946.2,-0.615,-0.1333,141.5,98.4,0.463
13.38,31903.7,34768.2,-0.4652,-0.571,141.5,98.4,0.463
13.4,31875.7,34738.1,-0.6006,-0.6449,141.5,98.4,0.463
13.42,31814.2,34693.9,-0.8978,-0.7537,141.5,98.4,0.463
13.44,31869.1,34708.1,-0.6325,-0.7187,141.5,98.4,0.463
13.46,31937.5,34670.4,-0.302,-0.8113,141.5,98.4,0.463
13.48,31837.4,34495.6,-0.7857,-1.2412,141.5,98.4,0.463
13.5,31754.0,34325.0,-1.1888,-1.6606,141.5,98.4,0.463
13.52,31816.6,34502.6,-0.8862,-1.2238,141.5,98.4,0.463
13.54,31883.6,34672.9,-0.5623,-0.8053,141.5,98.4,0.463
13.56,32007.1,34960.4,0.0346,-0.0984,141.5,98.4,0.463
13.58,32139.5,35350.1,0.6744,0.8599,141.5,98.4,0.463
13.6,32276.9,35602.0,1.3384,1.4791,141.5,98.4,0.463
13.62,32338.7,35844.7,1.637,2.0757,141.5,98.4,0.463
13.64,32301.8,35656.8,1.459,1.6137,141.5,98.4,0.463
13.66,32177.1,35535.1,0.8562,1.3146,141.5,98.4,0.463
13.68,32171.5,35238.6,0.8291,0.5856,141.5,98.4,0.463
13.7,32079.8,35141.0,0.3858,0.3456,141.5,98.4,0.463
13.72,32083.5,34975.6,0.4037,-0.0611,141.5,98.4,0.463
13.74,32059.3,35115.3,0.2867,0.2824,141.5,98.4,0.463
13.76,31943.0,35063.0,-0.2755,0.1539,141.5,98.4,0.463
13.78,31979.2,34831.6,-0.1002,-0.415,141.5,98.4,0.463
13.8,31953.0,34926.5,-0.2271,-0.1817,141.5,98.4,0.463
13.82,31926.2,34710.1,-0.3566,-0.7138,141.5,98.4,0.463
13.84,31906.7,34671.2,-0.4508,-0.8094,141.5,98.4,0.463
13.86,31809.7,34622.3,-0.9196,-0.9297,141.5,98.4,0.463
13.88,31888.6,34664.1,-0.5382,-0.8268,141.5,98.4,0.463
13.9,31773.9,34631.7,-1.0924,-0.9065,141.5,98.4,0.463
13.92,31740.1,34479.1,-1.2558,-1.2816,141.5,98.4,0.463
13.94,31805.0,34463.8,-0.9422,-1.3194,141.5,98.4,0.463
13.96,31865.8,34574.5,-0.6486,-1.0471,141.5,98.4,0.463
13.98,32022.3,34884.2,0.1078,-0.2858,141.5,98.4,0.463
14.0,32131.2,35244.3,0.6345,0.5996,141.5,98.4,0.463
14.02,32321.5,35667.7,1.5542,1.6405,141.5,98.4,0.463
14.04,32182.4,35737.1,0.8816,1.8112,141.5,98.4,0.463
14.06,32310.4,35769.9,1.5003,1.8919,141.5,98.4,0.463
14.08,32263.3,35587.6,1.2727,1.4437,141.5,98.4,0.463
14.1,32147.8,35404.4,0.7144,0.9933,141.5,98.4,0.463
14.12,32041.3,35261.6,0.1998,0.6421,141.5,98.4,0.463
14.14,32094.1,35130.3,0.4549,0.3193,141.5,98.4,0.463
14.16,32003.6,35056.3,0.0175,0.1373,141.5,98.4,0.463
14.18,32011.2,35024.2,0.0545,0.0584,141.5,98.4,0.463
14.2,31925.1,34947.8,-0.3619,-0.1293,141.5,98.4,0.463
14.22,31800.9,34790.9,-0.962,-0.5151,141.5,98.4,0.463
14.24,31940.8,34784.1,-0.286,-0.5318,141.5,98.4,0.463
14.26,31906.0,34656.7,-0.4541,-0.845,141.5,98.4,0.463
14.28,31751.7,34676.9,-1.2001,-0.7954,141.5,98.4,0.463
14.3,31975.6,34683.1,-0.1178,-0.7802,141.5,98.4,0.463
14.32,31872.2,34554.5,-0.6176,-1.0963,141.5,98.4,0.463
14.34,31854.9,34482.0,-0.701,-1.2747,141.5,98.4,0.463
14.36,31742.8,34360.9,-1.2432,-1.5724,141.5,98.4,0.463
14.38,31857.4,34559.3,-0.689,-1.0846,141.5,98.4,0.463
14.4,31959.0,34698.2,-0.198,-0.7431,141.5,98.4,0.463
14.42,32010.2,35180.2,0.0497,0.442,141.5,98.4,0.463
14.44,32227.7,35574.9,1.1005,1.4125,141.5,98.4,0.463
14.46,32407.9,35840.8,1.9717,2.0661,141.5,98.4,0.463
14.48,32404.3,35764.1,1.9541,1.8776,141.5,98.4,0.463
14.5,32278.1,35537.9,1.3445,1.3216,141.5,98.4,0.463
14.52,32226.7,35392.3,1.0959,0.9635,141.5,98.4,0.463
14.54,32136.9,35113.3,0.6621,0.2775,141.5,98.4,0.463
14.56,32053.7,35053.2,0.26,0.1298,141.5,98.4,0.463
14.58,31948.2,35008.5,-0.2504,0.02,141.5,98.4,0.463
14.6,31990.3,35030.3,-0.0467,0.0736,141.5,98.4,0.463
14.62,31972.7,34972.8,-0.1315,-0.0678,141.5,98.4,0.463
14.64,31851.7,34838.1,-0.7167,-0.3989,141.5,98.4,0.463
14.66,31929.6,34668.7,-0.3398,-0.8156,141.5,98.4,0.463
14.68,31793.8,34637.7,-0.9964,-0.8919,141.5,98.4,0.463
14.7,31950.2,34753.5,-0.2405,-0.607,141.5,98.4,0.463
14.72,31866.9,34582.8,-0.6433,-1.0267,141.5,98.4,0.463
14.74,31907.9,34584.3,-0.4451,-1.0231,141.5,98.4,0.463
14.76,31792.8,34430.0,-1.0013,-1.4024,141.5,98.4,0.463
14.78,31742.1,34399.4,-1.2463,-1.4777,141.5,98.4,0.463
14.8,31796.1,34600.5,-0.9854,-0.9832,141.5,98.4,0.463
14.82,31890.1,34806.0,-0.5311,-0.4779,141.5,98.4,0.463
14.84,32097.0,35073.3,0.4688,0.1791,141.5,98.4,0.463
14.86,32249.6,35420.6,1.2064,1.0331,141.5,98.4,0.463
14.88,32323.9,35659.6,1.5659,1.6208,141.5,98.4,0.463
14.9,32394.2,35704.2,1.9055,1.7303,141.5,98.4,0.463
14.92,32293.9,35634.0,1.4206,1.5576,141.5,98.4,0.463
14.94,32225.7,35368.1,1.0909,0.9039,141.5,98.4,0.463
14.96,32136.7,35297.5,0.6608,0.7303,141.5,98.4,0.463
14.98,31981.2,35137.1,-0.0906,0.3361,141.5,98.4,0.463
15.0,32129.7,35029.6,0.6271,0.0718,141.5,98.4,0.463
15.02,31973.4,34984.0,-0.1284,-0.0405,141.5,98.4,0.463
15.04,31955.4,34977.8,-0.2156,-0.0555,141.5,98.4,0.463
15.06,32011.9,34881.0,0.0579,-0.2937,141.5,98.4,0.463
15.08,31874.3,34626.7,-0.6074,-0.9188,141.5,98.4,0.463
15.1,31937.5,34711.1,-0.3017,-0.7112,141.5,98.4,0.463
15.12,31929.8,34653.4,-0.3391,-0.8533,141.5,98.4,0.463
15.14,31860.2,34653.7,-0.6753,-0.8525,141.5,98.4,0.463
15.16,31828.1,34540.8,-0.8305,-1.13,141.5,98.4,0.463
15.18,31757.7,34484.3,-1.1708,-1.2688,141.5,98.4,0.463
15.2,31777.4,34505.6,-1.0755,-1.2165,141.5,98.4,0.463
15.22,31835.9,34483.6,-0.793,-1.2706,141.5,98.4,0.463
15.24,31960.3,34752.2,-0.1914,-0.6102,141.5,98.4,0.463
15.26,32011.4,34952.9,0.0552,-0.1168,141.5,98.4,0.463
15.28,32174.8,35361.8,0.8449,0.8885,141.5,98.4,0.463
15.3,32275.2,35722.9,1.3305,1.7763,141.5,98.4,0.463
15.32,32325.4,35686.8,1.5727,1.6876,141.5,98.4,0.463
15.34,32420.5,35606.4,2.0328,1.4898,141.5,98.4,0.463
15.36,32211.2,35512.3,1.0208,1.2585,141.5,98.4,0.463
15.38,32063.2,35335.9,0.3057,0.8248,141.5,98.4,0.463
15.4,32141.7,35233.2,0.6849,0.5723,141.5,98.4,0.463
15.42,32089.0,35002.0,0.4306,0.0039,141.5,98.4,0.463
15.44,32065.1,35067.3,0.3147,0.1645,141.5,98.4,0.463
15.46,32026.8,34966.6,0.13,-0.0832,141.5,98.4,0.463
15.48,31996.7,34908.8,-0.0158,-0.2253,141.5,98.4,0.463
15.5,31910.0,34791.4,-0.435,-0.5139,141.5,98.4,0.463
15.52,31874.1,34741.5,-0.6081,-0.6366,141.5,98.4,0.463
15.54,31911.3,34688.9,-0.4285,-0.7659,141.5,98.4,0.463
15.56,31853.4,34668.7,-0.7086,-0.8155,141.5,98.4,0.463
15.58,31895.0,34621.0,-0.5072,-0.9327,141.5,98.4,0.463
15.6,31616.8,34606.2,-1.8521,-0.9693,141.5,98.4,0.463
15.62,31755.4,34517.3,-1.182,-1.1879,141.5,98.4,0.463
15.64,31869.1,34485.8,-0.6323,-1.2651,141.5,98.4,0.463
15.66,31890.8,34617.0,-0.5275,-0.9427,141.5,98.4,0.463
15.68,31992.4,35020.5,-0.0367,0.0493,141.5,98.4,0.463
15.7,32091.2,35350.6,0.4409,0.861,141.5,98.4,0.463
15.72,32272.5,35572.2,1.3171,1.4057,141.5,98.4,0.463
15.74,32298.8,35757.6,1.4444,1.8615,141.5,98.4,0.463
15.76,32283.4,35673.6,1.3701,1.6551,141.5,98.4,0.463
15.78,32165.3,35539.7,0.7992,1.326,141.5,98.4,0.463
15.8,32141.7,35362.7,0.685,0.8908,141.5,98.4,0.463
15.82,32010.4,35242.4,0.0506,0.5951,141.5,98.4,0.463
15.84,32057.8,35118.8,0.2793,0.2911,141.5,98.4,0.463
15.86,32006.5,35101.0,0.0316,0.2472,141.5,98.4,0.463
15.88,31950.9,34896.3,-0.2373,-0.2559,141.5,98.4,0.463
15.9,31913.7,34902.4,-0.4168,-0.2411,141.5,98.4,0.463
15.92,31852.1,34787.6,-0.7146,-0.5233,141.5,98.4,0.463
15.94,31909.9,34696.6,-0.4351,-0.7469,141.5,98.4,0.463
15.96,31851.6,34695.4,-0.7171,-0.75,141.5,98.4,0.463
15.98,31870.1,34624.1,-0.6277,-0.9251,141.5,98.4,0.463
16.0,31758.3,34601.9,-1.1682,-0.9797,141.5,98.4,0.463
16.02,31865.1,34595.1,-0.652,-0.9966,141.5,98.4,0.463
16.04,31811.3,34407.2,-0.912,-1.4584,141.5,98.4,0.463
16.06,31700.2,34493.0,-1.4488,-1.2475,141.5,98.4,0.463
16.08,31817.7,34582.7,-0.8809,-1.0269,141.5,98.4,0.463
16.1,31904.7,34997.0,-0.4605,-0.0084,141.5,98.4,0.463
16.12,32089.3,35289.6,0.4317,0.711,141.5,98.4,0.463
16.14,32187.3,35565.2,0.9056,1.3886,141.5,98.4,0.463
16.16,32386.1,35807.6,1.8664,1.9846,141.5,98.4,0.463
16.18,32302.4,35771.5,1.462,1.8959,141.5,98.4,0.463
16.2,32179.0,35591.4,0.8655,1.4531,141.5,98.4,0.463
16.22,32189.3,35311.9,0.915,0.7657,141.5,98.4,0.463
16.24,32145.7,35172.2,0.7045,0.4223,141.5,98.4,0.463
16.26,32141.8,35063.8,0.6854,0.1558,141.5,98.4,0.463
16.28,31977.3,35014.4,-0.1095,0.0345,141.5,98.4,0.463
16.3,31977.3,35056.8,-0.1093,0.1387,141.5,98.4,0.463
16.32,32001.9,34987.1,0.0093,-0.0328,141.5,98.4,0.463
16.34,31859.4,34830.4,-0.6796,-0.4181,141.5,98.4,0.463
16.36,31865.0,34742.8,-0.6521,-0.6332,141.5,98.4,0.463
16.38,31914.5,34677.8,-0.4131,-0.7932,141.5,98.4,0.463
16.4,31869.4,34681.3,-0.631,-0.7847,141.5,98.4,0.463
16.42,31894.2,34633.7,-0.5113,-0.9016,141.5,98.4,0.463
16.44,31820.5,34494.7,-0.8672,-1.2432,141.5,98.4,0.463
16.46,31833.7,34494.2,-0.8034,-1.2445,141.5,98.4,0.463
16.48,31752.5,34363.8,-1.1962,-1.5652,141.5,98.4,0.463
16.5,31870.9,34542.1,-0.6239,-1.1268,141.5,98.4,0.463
16.52,31910.7,34794.8,-0.4313,-0.5056,141.5,98.4,0.463
16.54,32178.2,35178.8,0.8613,0.4385,141.5,98.4,0.463
16.56,32226.8,35508.1,1.0965,1.2482,141.5,98.4,0.463
16.58,32333.8,35672.1,1.6134,1.6515,141.5,98.4,0.463
16.6,32217.8,35755.7,1.053,1.857,141.5,98.4,0.463
16.62,32214.8,35715.5,1.0384,1.7581,141.5,98.4,0.463
16.64,32140.2,35475.6,0.6779,1.1682,141.5,98.4,0.463
16.66,32132.0,35293.3,0.6382,0.7201,141.5,98.4,0.463
16.68,32088.1,35149.0,0.4261,0.3654,141.5,98.4,0.463
16.7,31957.2,35160.1,-0.2069,0.3925,141.5,98.4,0.463
16.72,31973.4,34959.3,-0.1285,-0.101,141.5,98.4,0.463
16.74,31961.6,34998.8,-0.1855,-0.0039,141.5,98.4,0.463
16.76,31911.5,34819.1,-0.4275,-0.4458,141.5,98.4,0.463
16.78,31886.0,34707.8,-0.5506,-0.7194,141.5,98.4,0.463
16.8,31931.5,34669.1,-0.3309,-0.8147,141.5,98.4,0.463
16.82,31861.3,34640.8,-0.6701,-0.884,141.5,98.4,0.463
16.84,31818.4,34572.9,-0.8777,-1.0511,141.5,98.4,0.463
16.86,31795.4,34566.0,-0.9885,-1.0681,141.5,98.4,0.463
16.88,31844.2,34492.3,-0.7529,-1.2493,141.5,98.4,0.463
16.9,31764.0,34397.6,-1.1404,-1.4821,141.5,98.4,0.463
16.92,31773.5,34515.9,-1.0946,-1.1912,141.5,98.4,0.463
16.94,31861.6,34737.5,-0.6686,-0.6463,141.5,98.4,0.463
16.96,31969.9,35126.6,-0.1451,0.3103,141.5,98.4,0.463
16.98,32214.9,35474.8,1.039,1.1664,141.5,98.4,0.463
17.0,32219.8,35790.7,1.0627,1.9431,141.5,98.4,0.463
17.02,32239.2,35722.0,1.1563,1.7741,141.5,98.4,0.463
17.04,32234.7,35702.8,1.1347,1.7269,141.5,98.4,0.463
17.06,32169.9,35442.8,0.8213,1.0878,141.5,98.4,0.463
17.08,32096.1,35278.5,0.4647,0.6838,141.5,98.4,0.463
17.1,32013.8,35153.7,0.0671,0.3769,141.5,98.4,0.463
17.12,32018.2,35121.3,0.088,0.2972,141.5,98.4,0.463
17.14,31975.5,35009.2,-0.1182,0.0216,141.5,98.4,0.463
17.16,31932.4,34903.3,-0.3266,-0.2388,141.5,98.4,0.463
17.18,31961.9,34920.1,-0.1842,-0.1975,141.5,98.4,0.463
17.2,31882.9,34750.7,-0.5658,-0.6139,141.5,98.4,0.463
17.22,31841.8,34708.7,-0.7646,-0.7172,141.5,98.4,0.463
17.24,31844.2,34710.1,-0.7528,-0.7138,141.5,98.4,0.463
17.26,31773.8,34720.2,-1.0931,-0.689,141.5,98.4,0.463
17.28,31716.5,34603.5,-1.3698,-0.9759,141.5,98.4,0.463
17.3,31884.6,34508.8,-0.5573,-1.2086,141.5,98.4,0.463
17.32,31802.3,34537.3,-0.9552,-1.1385,141.5,98.4,0.463
17.34,31781.4,34507.2,-1.0564,-1.2126,141.5,98.4,0.463
17.36,31818.3,34724.9,-0.8782,-0.6773,141.5,98.4,0.463
17.38,32036.9,35007.7,0.1786,0.018,141.5,98.4,0.463
17.4,32160.5,35349.2,0.7758,0.8576,141.5,98.4,0.463
17.42,32347.7,35689.3,1.6808,1.6937,141.5,98.4,0.463
17.44,32307.3,35736.2,1.4856,1.8089,141.5,98.4,0.463
17.46,32302.4,35724.6,1.462,1.7806,141.5,98.4,0.463
17.48,32197.1,35422.3,0.9527,1.0373,141.5,98.4,0.463
17.5,32065.4,35219.9,0.3162,0.5396,141.5,98.4,0.463
17.52,32168.8,35161.2,0.8159,0.3953,141.5,98.4,0.463
17.54,32120.8,35089.1,0.5842,0.218,141.5,98.4,0.463
17.56,32053.8,34991.5,0.26,-0.0218,141.5,98.4,0.463
17.58,32010.1,34922.3,0.0488,-0.1921,141.5,98.4,0.463
17.6,31975.3,34980.3,-0.1193,-0.0495,141.5,98.4,0.463
17.62,31916.2,34777.7,-0.4049,-0.5476,141.5,98.4,0.463
17.64,31883.2,34740.4,-0.5644,-0.6392,141.5,98.4,0.463
17.66,31865.1,34611.4,-0.6516,-0.9564,141.5,98.4,0.463
17.68,31904.6,34607.7,-0.4609,-0.9655,141.5,98.4,0.463
17.7,31845.3,34614.1,-0.7476,-0.9497,141.5,98.4,0.463
17.72,31808.1,34501.8,-0.9275,-1.2259,141.5,98.4,0.463
17.74,31772.5,34430.5,-1.0993,-1.4011,141.5,98.4,0.463
17.76,31748.2,34502.7,-1.2169,-1.2238,141.5,98.4,0.463
17.78,31918.5,34639.9,-0.3935,-0.8863,141.5,98.4,0.463
17.8,32001.0,34907.3,0.0051,-0.229,141.5,98.4,0.463
17.82,32139.9,35382.1,0.6762,0.9383,141.5,98.4,0.463
17.84,32336.8,35655.0,1.6278,1.6094,141.5,98.4,0.463
17.86,32320.8,35675.6,1.551,1.6601,141.5,98.4,0.463
17.88,32305.2,35679.9,1.4754,1.6705,141.5,98.4,0.463
17.9,32108.2,35446.2,0.5231,1.0961,141.5,98.4,0.463
17.92,32064.6,35335.3,0.3125,0.8233,141.5,98.4,0.463
17.94,32074.9,35138.2,0.362,0.3387,141.5,98.4,0.463
17.96,32078.2,35105.0,0.378,0.257,141.5,98.4,0.463
17.98,31978.2,35157.8,-0.1051,0.3869,141.5,98.4,0.463
18.0,32061.3,34960.6,0.2963,-0.098,141.5,98.4,0.463
18.02,31910.4,34894.2,-0.4328,-0.2612,141.5,98.4,0.463
18.04,31866.7,34851.6,-0.6441,-0.3658,141.5,98.4,0.463
18.06,31832.9,34707.4,-0.8073,-0.7204,141.5,98.4,0.463
18.08,31843.7,34647.2,-0.7554,-0.8683,141.5,98.4,0.463
18.1,31753.3,34713.1,-1.1921,-0.7063,141.5,98.4,0.463
18.12,31764.6,34607.8,-1.1376,-0.9652,141.5,98.4,0.463
18.14,31817.3,34501.3,-0.8831,-1.227,141.5,98.4,0.463
18.16,31843.7,34447.2,-0.7552,-1.36,141.5,98.4,0.463
18.18,31807.1,34524.1,-0.9322,-1.171,141.5,98.4,0.463
18.2,31959.3,34515.6,-0.1965,-1.1918,141.5,98.4,0.463
18.22,31849.8,34855.2,-0.7258,-0.3571,141.5,98.4,0.463
18.24,32182.7,35215.3,0.8834,0.5283,141.5,98.4,0.463
18.26,32287.7,35461.2,1.3908,1.1328,141.5,98.4,0.463
18.28,32357.3,35616.2,1.727,1.514,141.5,98.4,0.463
18.3,32255.8,35637.7,1.2366,1.5668,141.5,98.4,0.463
18.32,32208.4,35494.9,1.0076,1.2157,141.5,98.4,0.463
18.34,32206.5,35375.2,0.9982,0.9214,141.5,98.4,0.463
18.36,32074.8,35154.9,0.3617,0.3798,141.5,98.4,0.463
18.38,32049.7,35199.5,0.2406,0.4894,141.5,98.4,0.463
18.4,32053.7,34994.3,0.2597,-0.0149,141.5,98.4,0.463
18.42,31982.6,35027.8,-0.084,0.0674,141.5,98.4,0.463
18.44,32010.7,34852.9,0.0521,-0.3627,141.5,98.4,0.463
18.46,31938.9,34763.2,-0.2951,-0.5833,141.5,98.4,0.463
18.48,31959.5,34736.7,-0.1956,-0.6485,141.5,98.4,0.463
18.5,31865.2,34693.1,-0.6514,-0.7556,141.5,98.4,0.463
18.52,31771.1,34731.4,-1.1059,-0.6615,141.5,98.4,0.463
18.54,31881.6,34611.1,-0.5719,-0.9572,141.5,98.4,0.463
18.56,31781.9,34581.6,-1.0538,-1.0296,141.5,98.4,0.463
18.58,31796.0,34492.5,-0.9858,-1.2488,141.5,98.4,0.463
18.6,31728.0,34486.0,-1.3144,-1.2648,141.5,98.4,0.463
18.62,31807.2,34594.4,-0.9316,-0.9983,141.5,98.4,0.463
18.64,31966.9,34820.8,-0.1597,-0.4416,141.5,98.4,0.463
18.66,32058.7,35177.6,0.284,0.4357,141.5,98.4,0.463
18.68,32295.0,35545.9,1.426,1.3411,141.5,98.4,0.463
18.7,32295.0,35788.3,1.4263,1.9372,141.5,98.4,0.463
18.72,32193.4,35773.5,0.9351,1.9008,141.5,98.4,0.463
18.74,32289.2,35485.4,1.3982,1.1925,141.5,98.4,0.463
18.76,32109.0,35419.7,0.5271,1.0309,141.5,98.4,0.463
18.78,32142.8,35226.1,0.6904,0.5549,141.5,98.4,0.463
18.8,32096.9,35201.4,0.4684,0.4941,141.5,98.4,0.463
18.82,32037.7,35114.5,0.1825,0.2806,141.5,98.4,0.463
18.84,31975.0,35030.5,-0.1206,0.0741,141.5,98.4,0.463
18.86,31933.1,34835.0,-0.3231,-0.4067,141.5,98.4,0.463
18.88,31884.3,34792.2,-0.5588,-0.5118,141.5,98.4,0.463
18.9,31835.3,34620.5,-0.7959,-0.9341,141.5,98.4,0.463
18.92,31877.1,34679.2,-0.5939,-0.7897,141.5,98.4,0.463
18.94,31803.1,34663.8,-0.9517,-0.8275,141.5,98.4,0.463
18.96,31875.4,34673.5,-0.6018,-0.8037,141.5,98.4,0.463
18.98,31891.3,34598.4,-0.5251,-0.9883,141.5,98.4,0.463
19.0,31678.2,34523.9,-1.5552,-1.1717,141.5,98.4,0.463
19.02,31713.7,34477.2,-1.3837,-1.2863,141.5,98.4,0.463
19.04,31814.7,34496.8,-0.8955,-1.2383,141.5,98.4,0.463
19.06,31868.0,34781.5,-0.6378,-0.5381,141.5,98.4,0.463
19.08,32124.2,35130.6,0.6005,0.32,141.5,98.4,0.463
19.1,32201.6,35496.1,0.9744,1.2188,141.5,98.4,0.463
19.12,32320.3,35746.0,1.5485,1.833,141.5,98.4,0.463
19.14,32347.3,35747.4,1.6788,1.8366,141.5,98.4,0.463
19.16,32271.1,35678.2,1.3105,1.6663,141.5,98.4,0.463
19.18,32212.7,35508.8,1.0282,1.25,141.5,98.4,0.463
19.2,32086.2,35291.5,0.4171,0.7158,141.5,98.4,0.463
19.22,32119.1,35184.3,0.5757,0.452,141.5,98.4,0.463
19.24,32038.0,35169.2,0.1838,0.4149,141.5,98.4,0.463
19.26,32041.9,34940.7,0.2025,-0.1467,141.5,98.4,0.463
19.28,31946.9,34957.4,-0.2565,-0.1057,141.5,98.4,0.463
19.3,31909.4,34853.6,-0.4377,-0.361,141.5,98.4,0.463
19.32,31860.4,34855.5,-0.6743,-0.3564,141.5,98.4,0.463
19.34,31820.6,34703.7,-0.8667,-0.7296,141.5,98.4,0.463
19.36,31837.1,34747.2,-0.7871,-0.6225,141.5,98.4,0.463
19.38,31912.8,34591.2,-0.4213,-1.0062,141.5,98.4,0.463
19.4,31815.4,34634.2,-0.8922,-0.9003,141.5,98.4,0.463
19.42,31797.2,34467.1,-0.98,-1.3111,141.5,98.4,0.463
19.44,31810.1,34452.0,-0.9175,-1.3483,141.5,98.4,0.463
19.46,31706.8,34472.6,-1.4168,-1.2977,141.5,98.4,0.463
19.48,31830.8,34719.9,-0.8178,-0.6897,141.5,98.4,0.463
19.5,31976.8,35028.8,-0.1121,0.0697,141.5,98.4,0.463
19.52,32164.0,35298.5,0.7928,0.733,141.5,98.4,0.463
19.54,32317.2,35647.4,1.5331,1.5908,141.5,98.4,0.463
19.56,32286.3,35835.1,1.3839,2.0522,141.5,98.4,0.463
19.58,32260.0,35576.3,1.2569,1.4159,141.5,98.4,0.463
19.6,32193.0,35442.1,0.9332,1.0859,141.5,98.4,0.463
19.62,32187.7,35252.1,0.9073,0.6188,141.5,98.4,0.463
19.64,32077.5,35127.3,0.3747,0.3119,141.5,98.4,0.463
19.66,32022.4,35110.8,0.1086,0.2713,141.5,98.4,0.463
19.68,32037.3,35124.0,0.1803,0.3038,141.5,98.4,0.463
19.7,32027.6,34893.2,0.1334,-0.2635,141.5,98.4,0.463
19.72,31944.2,34691.0,-0.2697,-0.7607,141.5,98.4,0.463
19.74,31894.9,34794.3,-0.508,-0.5068,141.5,98.4,0.463
19.76,31951.5,34678.5,-0.2342,-0.7915,141.5,98.4,0.463
19.78,31784.0,34639.3,-1.0439,-0.8877,141.5,98.4,0.463
19.8,31788.3,34660.5,-1.0231,-0.8358,141.5,98.4,0.463
19.82,31916.4,34586.9,-0.4039,-1.0168,141.5,98.4,0.463
19.84,31830.9,34547.0,-0.8173,-1.1147,141.5,98.4,0.463
19.86,31745.3,34440.7,-1.2307,-1.3761,141.5,98.4,0.463
19.88,31692.5,34566.1,-1.486,-1.0678,141.5,98.4,0.463
19.9,31900.5,34577.3,-0.4809,-1.0404,141.5,98.4,0.463
19.92,32052.8,34918.5,0.2553,-0.2015,141.5,98.4,0.463
19.94,32235.3,35363.5,1.1374,0.8927,141.5,98.4,0.463
19.96,32295.3,35633.5,1.4273,1.5564,141.5,98.4,0.463
19.98,32297.8,35731.5,1.4396,1.7974,141.5,98.4,0.463
20.0,32236.7,35722.0,1.1444,1.7742,141.5,98.4,0.463
20.02,32244.4,35627.1,1.1813,1.5407,141.5,98.4,0.463
20.04,32151.2,35368.9,0.731,0.9061,141.5,98.4,0.463
20.06,32015.0,35162.8,0.0726,0.3994,141.5,98.4,0.463
20.08,32085.8,35179.2,0.4147,0.4396,141.5,98.4,0.463
20.1,32053.0,35053.9,0.2563,0.1316,141.5,98.4,0.463
20.12,32036.6,34979.1,0.1773,-0.0525,141.5,98.4,0.463
20.14,31974.8,34852.7,-0.1214,-0.3631,141.5,98.4,0.463
20.16,31990.8,34841.2,-0.0441,-0.3916,141.5,98.4,0.463
20.18,31822.6,34707.4,-0.8571,-0.7204,141.5,98.4,0.463
20.2,31847.5,34657.6,-0.737,-0.8429,141.5,98.4,0.463
20.22,31803.5,34688.0,-0.9495,-0.768,141.5,98.4,0.463
20.24,31779.0,34590.1,-1.068,-1.0087,141.5,98.4,0.463
20.26,31844.8,34497.1,-0.7497,-1.2374,141.5,98.4,0.463
20.28,31829.6,34493.2,-0.8235,-1.2471,141.5,98.4,0.463
20.3,31728.5,34383.5,-1.3121,-1.5168,141.5,98.4,0.463
20.32,31822.9,34481.4,-0.8556,-1.2759,141.5,98.4,0.463
20.34,31919.5,34945.2,-0.3889,-0.1356,141.5,98.4,0.463
20.36,32078.5,35288.3,0.3797,0.7079,141.5,98.4,0.463
20.38,32255.2,35542.8,1.2336,1.3336,141.5,98.4,0.463
20.4,32262.7,35761.3,1.27,1.8708,141.5,98.4,0.463
20.42,32194.3,35736.4,0.9392,1.8094,141.5,98.4,0.463
20.44,32218.5,35517.2,1.0561,1.2705,141.5,98.4,0.463
20.46,32193.8,35359.1,0.937,0.882,141.5,98.4,0.463
20.48,32173.9,35181.8,0.8406,0.4459,141.5,98.4,0.463
20.5,31997.7,35036.1,-0.0107,0.0878,141.5,98.4,0.463
20.52,32065.0,35115.7,0.3146,0.2834,141.5,98.4,0.463
20.54,31982.5,35002.2,-0.0846,0.0044,141.5,98.4,0.463
20.56,31914.5,34917.3,-0.4128,-0.2043,141.5,98.4,0.463
20.58,31932.9,34816.3,-0.3239,-0.4527,141.5,98.4,0.463
20.6,31855.7,34702.2,-0.6971,-0.7333,141.5,98.4,0.463
20.62,31831.5,34540.3,-0.8144,-1.1312,141.5,98.4,0.463
20.64,31816.5,34679.7,-0.8868,-0.7885,141.5,98.4,0.463
20.66,31879.9,34592.2,-0.5802,-1.0035,141.5,98.4,0.463
20.68,31750.2,34530.2,-1.2073,-1.156,141.5,98.4,0.463
20.7,31800.5,34429.1,-0.9641,-1.4046,141.5,98.4,0.463
20.72,31841.0,34504.2,-0.7682,-1.22,141.5,98.4,0.463
20.74,31790.6,34619.9,-1.0119,-0.9356,141.5,98.4,0.463
20.76,31939.1,34786.4,-0.294,-0.5263,141.5,98.4,0.463
20.78,32111.6,35196.2,0.5397,0.4814,141.5,98.4,0.463
20.8,32253.2,35472.1,1.2242,1.1596,141.5,98.4,0.463
20.82,32305.9,35648.9,1.4785,1.5944,141.5,98.4,0.463
20.84,32238.9,35729.9,1.1547,1.7936,141.5,98.4,0.463
20.86,32290.3,35627.1,1.4032,1.5407,141.5,98.4,0.463
20.88,32177.8,35343.8,0.8597,0.8444,141.5,98.4,0.463
20.9,32138.5,35186.5,0.6696,0.4575,141.5,98.4,0.463
20.92,32103.6,35124.2,0.501,0.3043,141.5,98.4,0.463
20.94,32072.3,35007.1,0.3498,0.0165,141.5,98.4,0.463
20.96,32010.2,35012.6,0.0494,0.0301,141.5,98.4,0.463
20.98,31944.9,34967.0,-0.2663,-0.0821,141.5,98.4,0.463
21.0,31951.6,34900.4,-0.2336,-0.2459,141.5,98.4,0.463
21.02,31825.4,34747.0,-0.8437,-0.623,141.5,98.4,0.463
21.04,31765.8,34612.6,-1.1317,-0.9535,141.5,98.4,0.463
21.06,31833.9,34689.5,-0.8028,-0.7643,141.5,98.4,0.463
21.08,31815.3,34757.9,-0.8925,-0.5963,141.5,98.4,0.463
21.1,31798.9,34566.5,-0.9719,-1.0667,141.5,98.4,0.463
21.12,31708.8,34596.2,-1.4072,-0.9937,141.5,98.4,0.463
21.14,31750.9,34369.1,-1.2036,-1.5522,141.5,98.4,0.463
21.16,31787.3,34504.6,-1.0279,-1.2191,141.5,98.4,0.463
21.18,31957.2,34744.4,-0.2067,-0.6294,141.5,98.4,0.463
21.2,32142.4,35077.2,0.6885,0.1887,141.5,98.4,0.463
21.22,32272.5,35375.8,1.3175,0.923,141.5,98.4,0.463
21.24,32292.9,35672.3,1.4161,1.652,141.5,98.4,0.463
21.26,32342.9,35740.1,1.6575,1.8185,141.5,98.4,0.463
21.28,32284.6,35637.4,1.3756,1.5661,141.5,98.4,0.463
21.3,32168.3,35369.0,0.8138,0.9063,141.5,98.4,0.463
21.32,32163.0,35323.4,0.7882,0.794,141.5,98.4,0.463
21.34,32103.1,35216.9,0.4987,0.5322,141.5,98.4,0.463
21.36,31939.2,35066.7,-0.2935,0.1631,141.5,98.4,0.463
21.38,32002.2,34998.9,0.0107,-0.0038,141.5,98.4,0.463
21.4,31973.0,35019.4,-0.1301,0.0466,141.5,98.4,0.463
21.42,31973.6,34799.2,-0.1275,-0.4947,141.5,98.4,0.463
21.44,31856.4,34710.1,-0.694,-0.7137,141.5,98.4,0.463
21.46,31866.0,34736.3,-0.6477,-0.6494,141.5,98.4,0.463
21.48,31817.6,34709.8,-0.8813,-0.7146,141.5,98.4,0.463
21.5,31861.4,34646.8,-0.6698,-0.8694,141.5,98.4,0.463
21.52,31950.9,34620.1,-0.237,-0.9351,141.5,98.4,0.463
21.54,31764.9,34492.6,-1.1363,-1.2484,141.5,98.4,0.463
21.56,31823.5,34527.1,-0.8529,-1.1638,141.5,98.4,0.463
21.58,31809.1,34421.2,-0.9223,-1.4242,141.5,98.4,0.463
21.6,31821.9,34752.7,-0.8608,-0.6091,141.5,98.4,0.463
21.62,32040.0,35050.9,0.1935,0.1242,141.5,98.4,0.463
21.64,32179.9,35368.2,0.8695,0.9043,141.5,98.4,0.463
21.66,32237.0,35675.6,1.1456,1.66,141.5,98.4,0.463
21.68,32267.5,35797.0,1.2929,1.9584,141.5,98.4,0.463
21.7,32222.5,35732.9,1.0756,1.8008,141.5,98.4,0.463
21.72,32238.0,35453.9,1.1504,1.1149,141.5,98.4,0.463
21.74,32070.8,35285.9,0.3422,0.7018,141.5,98.4,0.463
21.76,31945.0,35065.3,-0.2656,0.1596,141.5,98.4,0.463
21.78,32032.8,35249.2,0.1588,0.6116,141.5,98.4,0.463
21.8,32043.8,34943.0,0.2121,-0.1412,141.5,98.4,0.463
21.82,31974.3,34934.5,-0.1239,-0.1621,141.5,98.4,0.463
21.84,31920.1,34920.7,-0.386,-0.196,141.5,98.4,0.463
21.86,31887.2,34714.2,-0.5452,-0.7036,141.5,98.4,0.463
21.88,31773.1,34716.3,-1.0964,-0.6986,141.5,98.4,0.463
21.9,31845.8,34699.5,-0.7451,-0.7398,141.5,98.4,0.463
21.92,31806.4,34671.2,-0.9356,-0.8094,141.5,98.4,0.463
21.94,31908.2,34627.0,-0.4435,-0.9182,141.5,98.4,0.463
21.96,31839.1,34551.2,-0.7773,-1.1045,141.5,98.4,0.463
21.98,31721.3,34441.5,-1.3471,-1.374,141.5,98.4,0.463
22.0,31772.2,34576.1,-1.101,-1.0433,141.5,98.4,0.463
22.02,31818.9,34675.1,-0.8752,-0.7997,141.5,98.4,0.463
22.04,31949.4,34909.4,-0.2443,-0.2237,141.5,98.4,0.463
22.06,32150.9,35322.7,0.7294,0.7924,141.5,98.4,0.463
22.08,32273.4,35625.5,1.3215,1.5368,141.5,98.4,0.463
22.1,32299.8,35646.5,1.4493,1.5884,141.5,98.4,0.463
22.12,32317.2,35733.8,1.5334,1.8031,141.5,98.4,0.463
22.14,32190.9,35573.6,0.9229,1.4092,141.5,98.4,0.463
22.16,32237.8,35318.9,1.1494,0.7831,141.5,98.4,0.463
22.18,32047.5,35220.6,0.2299,0.5415,141.5,98.4,0.463
22.2,32098.4,35186.7,0.4757,0.458,141.5,98.4,0.463
22.22,31997.5,35168.7,-0.0121,0.4136,141.5,98.4,0.463
22.24,32055.5,35059.9,0.2683,0.1463,141.5,98.4,0.463
22.26,31933.1,34879.9,-0.3233,-0.2963,141.5,98.4,0.463
22.28,31883.5,34770.7,-0.5628,-0.5648,141.5,98.4,0.463
22.3,31860.5,34675.6,-0.6739,-0.7985,141.5,98.4,0.463
22.32,31804.0,34633.9,-0.9469,-0.9012,141.5,98.4,0.463
22.34,31847.2,34657.9,-0.7385,-0.842,141.5,98.4,0.463
22.36,31857.5,34575.8,-0.6884,-1.044,141.5,98.4,0.463
22.38,31795.7,34549.5,-0.9874,-1.1086,141.5,98.4,0.463
22.4,31759.3,34450.1,-1.1631,-1.3531,141.5,98.4,0.463
22.42,31776.1,34512.6,-1.082,-1.1993,141.5,98.4,0.463
22.44,31828.7,34559.7,-0.8278,-1.0835,141.5,98.4,0.463
22.46,31927.1,34755.7,-0.352,-0.6017,141.5,98.4,0.463
22.48,32173.1,35278.1,0.8371,0.6827,141.5,98.4,0.463
22.5,32311.3,35579.7,1.5049,1.4243,141.5,98.4,0.463
22.52,32280.1,35768.4,1.3538,1.8881,141.5,98.4,0.463
22.54,32312.4,35676.1,1.5102,1.6613,141.5,98.4,0.463
22.56,32280.9,35575.5,1.3579,1.4139,141.5,98.4,0.463
22.58,32136.3,35326.6,0.6592,0.802,141.5,98.4,0.463
22.6,32044.0,35252.4,0.213,0.6196,141.5,98.4,0.463
22.62,31969.2,35166.9,-0.1488,0.4092,141.5,98.4,0.463
22.64,32097.3,35068.8,0.4706,0.1681,141.5,98.4,0.463
22.66,31998.5,35014.9,-0.0069,0.0357,141.5,98.4,0.463
22.68,31974.3,34924.3,-0.124,-0.1872,141.5,98.4,0.463
22.7,31896.0,34800.5,-0.5024,-0.4915,141.5,98.4,0.463
22.72,31944.0,34756.5,-0.2703,-0.5998,141.5,98.4,0.463
22.74,31971.8,34705.3,-0.1361,-0.7255,141.5,98.4,0.463
22.76,31866.0,34605.5,-0.6477,-0.9708,141.5,98.4,0.463
22.78,31775.3,34629.2,-1.0859,-0.9127,141.5,98.4,0.463
22.8,31894.1,34504.0,-0.5116,-1.2205,141.5,98.4,0.463
22.82,31845.5,34479.0,-0.7465,-1.2818,141.5,98.4,0.463
22.84,31788.5,34519.9,-1.0221,-1.1814,141.5,98.4,0.463
22.86,31708.8,34573.3,-1.4072,-1.0501,141.5,98.4,0.463
22.88,31947.1,34762.3,-0.2557,-0.5854,141.5,98.4,0.463
22.9,32008.8,35220.2,0.0428,0.5404,141.5,98.4,0.463
22.92,32185.7,35524.3,0.8979,1.288,141.5,98.4,0.463
22.94,32280.0,35734.3,1.3536,1.8045,141.5,98.4,0.463
22.96,32320.5,35714.3,1.5494,1.7551,141.5,98.4,0.463
22.98,32287.3,35588.0,1.389,1.4446,141.5,98.4,0.463
23.0,32151.5,35439.6,0.7323,1.0797,141.5,98.4,0.463
23.02,32104.9,35192.1,0.5072,0.4714,141.5,98.4,0.463
23.04,32002.1,35091.1,0.0102,0.223,141.5,98.4,0.463
23.06,32016.8,35055.6,0.0815,0.1356,141.5,98.4,0.463
23.08,32003.1,35083.7,0.015,0.2047,141.5,98.4,0.463
23.1,31967.6,34930.9,-0.1566,-0.1709,141.5,98.4,0.463
23.12,31954.2,34798.6,-0.221,-0.4961,141.5,98.4,0.463
23.14,31796.7,34825.4,-0.9822,-0.4303,141.5,98.4,0.463
23.16,31803.3,34716.1,-0.9506,-0.6991,141.5,98.4,0.463
23.18,31834.8,34667.5,-0.7981,-0.8185,141.5,98.4,0.463
23.2,31839.6,34617.9,-0.7753,-0.9403,141.5,98.4,0.463
23.22,31780.2,34555.5,-1.062,-1.0939,141.5,98.4,0.463
23.24,31776.6,34503.9,-1.0797,-1.2206,141.5,98.4,0.463
23.26,31762.5,34427.9,-1.1476,-1.4075,141.5,98.4,0.463
23.28,31790.0,34552.0,-1.0146,-1.1025,141.5,98.4,0.463
23.3,31857.2,34820.3,-0.69,-0.4428,141.5,98.4,0.463
23.32,32135.8,35099.9,0.6568,0.2446,141.5,98.4,0.463
23.34,32302.2,35420.5,1.461,1.0328,141.5,98.4,0.463
23.36,32255.7,35771.1,1.2363,1.8948,141.5,98.4,0.463
23.38,32261.6,35733.5,1.2645,1.8023,141.5,98.4,0.463
23.4,32231.2,35649.2,1.1177,1.595,141.5,98.4,0.463
23.42,32151.6,35510.9,0.7329,1.2551,141.5,98.4,0.463
23.44,32079.9,35311.2,0.3865,0.764,141.5,98.4,0.463
23.46,32127.1,35106.4,0.6146,0.2606,141.5,98.4,0.463
23.48,32026.6,35067.0,0.1287,0.1637,141.5,98.4,0.463
23.5,32040.1,35091.6,0.1939,0.2243,141.5,98.4,0.463
23.52,31980.5,35024.3,-0.0941,0.0587,141.5,98.4,0.463
23.54,31933.3,34796.2,-0.3224,-0.502,141.5,98.4,0.463
23.56,31887.8,34782.5,-0.542,-0.5358,141.5,98.4,0.463
23.58,31838.1,34744.7,-0.7822,-0.6287,141.5,98.4,0.463
23.6,31860.9,34671.7,-0.6722,-0.8082,141.5,98.4,0.463
23.62,31837.5,34623.6,-0.7853,-0.9265,141.5,98.4,0.463
23.64,31796.9,34492.9,-0.9817,-1.2478,141.5,98.4,0.463
23.66,31843.5,34371.8,-0.7564,-1.5456,141.5,98.4,0.463
23.68,31720.4,34511.6,-1.3511,-1.2017,141.5,98.4,0.463
23.7,31740.5,34538.4,-1.2539,-1.1358,141.5,98.4,0.463
23.72,31875.7,34578.3,-0.6008,-1.0379,141.5,98.4,0.463
23.74,32015.8,35082.3,0.0766,0.2013,141.5,98.4,0.463
23.76,32215.8,35401.8,1.0433,0.9869,141.5,98.4,0.463
23.78,32225.5,35560.5,1.0901,1.377,141.5,98.4,0.463
23.8,32369.7,35773.6,1.7869,1.9009,141.5,98.4,0.463
23.82,32248.3,35630.9,1.2004,1.5502,141.5,98.4,0.463
23.84,32127.8,35546.1,0.6178,1.3416,141.5,98.4,0.463
23.86,32088.8,35279.0,0.4292,0.685,141.5,98.4,0.463
23.88,32049.2,35238.5,0.2379,0.5855,141.5,98.4,0.463
23.9,32017.0,35073.5,0.0823,0.1797,141.5,98.4,0.463
23.92,31995.5,35117.7,-0.0215,0.2884,141.5,98.4,0.463
23.94,31970.1,34971.3,-0.1442,-0.0716,141.5,98.4,0.463
23.96,31981.6,34864.3,-0.0886,-0.3346,141.5,98.4,0.463
23.98,31894.4,34760.4,-0.5102,-0.5901,141.5,98.4,0.463
24.0,31826.5,34709.7,-0.8383,-0.7147,141.5,98.4,0.463
24.02,31885.0,34622.0,-0.5556,-0.9303,141.5,98.4,0.463
24.04,31848.4,34733.6,-0.7325,-0.6559,141.5,98.4,0.463
24.06,31772.1,34543.8,-1.1012,-1.1227,141.5,98.4,0.463
24.08,31849.5,34572.6,-0.727,-1.0519,141.5,98.4,0.463
24.1,31749.8,34389.4,-1.2092,-1.5023,141.5,98.4,0.463
24.12,31791.5,34456.5,-1.0074,-1.3372,141.5,98.4,0.463
24.14,31848.9,34639.5,-0.7302,-0.8875,141.5,98.4,0.463
24.16,31994.7,34986.8,-0.0254,-0.0335,141.5,98.4,0.463
24.18,32058.1,35384.0,0.2811,0.9432,141.5,98.4,0.463
24.2,32217.7,35703.0,1.0522,1.7275,141.5,98.4,0.463
24.22,32324.6,35704.5,1.5692,1.7311,141.5,98.4,0.463
24.24,32371.0,35619.1,1.7934,1.521,141.5,98.4,0.463
24.26,32234.5,35510.8,1.1337,1.2549,141.5,98.4,0.463
24.28,32039.5,35303.7,0.1913,0.7457,141.5,98.4,0.463
24.3,32123.9,35199.7,0.599,0.4901,141.5,98.4,0.463
24.32,32022.5,35124.7,0.1091,0.3055,141.5,98.4,0.463
24.34,31955.5,35122.3,-0.2147,0.2996,141.5,98.4,0.463
24.36,32046.3,34954.6,0.2239,-0.1127,141.5,98.4,0.463
24.38,31984.5,34934.9,-0.0749,-0.1611,141.5,98.4,0.463
24.4,31903.4,34823.0,-0.4668,-0.4362,141.5,98.4,0.463
24.42,31849.1,34754.4,-0.729,-0.6049,141.5,98.4,0.463
24.44,31766.4,34677.6,-1.1286,-0.7937,141.5,98.4,0.463
24.46,31926.6,34663.1,-0.3546,-0.8293,141.5,98.4,0.463
24.48,31881.4,34553.9,-0.5732,-1.0977,141.5,98.4,0.463
24.5,31863.9,34465.0,-0.6575,-1.3163,141.5,98.4,0.463
24.52,31847.8,34379.5,-0.7356,-1.5267,141.5,98.4,0.463
24.54,31824.9,34525.8,-0.8463,-1.1668,141.5,98.4,0.463
24.56,31684.9,34682.8,-1.5229,-0.7809,141.5,98.4,0.463
24.58,31880.5,34958.0,-0.5774,-0.1044,141.5,98.4,0.463
24.6,32110.2,35294.7,0.5331,0.7236,141.5,98.4,0.463
24.62,32190.2,35604.9,0.9197,1.4862,141.5,98.4,0.463
24.64,32368.1,35836.7,1.7794,2.056,141.5,98.4,0.463
24.66,32201.2,35787.2,0.9726,1.9345,141.5,98.4,0.463
24.68,32253.1,35612.2,1.2235,1.504,141.5,98.4,0.463
24.7,32194.4,35389.4,0.9397,0.9565,141.5,98.4,0.463
24.72,32143.4,35196.7,0.6935,0.4827,141.5,98.4,0.463
24.74,32027.8,35138.2,0.1344,0.3388,141.5,98.4,0.463
24.76,32001.3,35096.5,0.0065,0.2363,141.5,98.4,0.463
24.78,32082.0,35095.8,0.3967,0.2346,141.5,98.4,0.463
24.8,31938.6,34937.1,-0.2966,-0.1557,141.5,98.4,0.463
24.82,31757.4,34726.1,-1.1724,-0.6744,141.5,98.4,0.463
24.84,31875.8,34653.4,-0.6002,-0.8531,141.5,98.4,0.463
24.86,31863.2,34686.4,-0.6608,-0.772,141.5,98.4,0.463
24.88,31789.7,34647.2,-1.0165,-0.8685,141.5,98.4,0.463
24.9,31781.0,34763.0,-1.0583,-0.5838,141.5,98.4,0.463
24.92,31869.0,34590.3,-0.6328,-1.0083,141.5,98.4,0.463
24.94,31817.3,34444.8,-0.8827,-1.3661,141.5,98.4,0.463
24.96,31828.3,34410.0,-0.8296,-1.4517,141.5,98.4,0.463
24.98,31843.4,34592.4,-0.7569,-1.0032,141.5,98.4,0.463
25.0,31935.2,34806.0,-0.3128,-0.4779,141.5,98.4,0.463
25.02,32075.8,35189.0,0.3665,0.4636,141.5,98.4,0.463
25.04,32131.4,35451.7,0.6354,1.1096,141.5,98.4,0.463
25.06,32231.0,35787.5,1.1167,1.9351,141.5,98.4,0.463
25.08,32332.0,35651.2,1.6047,1.6,141.5,98.4,0.463
25.1,32235.7,35624.1,1.1393,1.5334,141.5,98.4,0.463
25.12,32138.8,35498.8,0.6708,1.2254,141.5,98.4,0.463
25.14,32084.0,35188.5,0.406,0.4624,141.5,98.4,0.463
25.16,32108.7,35170.5,0.5257,0.4181,141.5,98.4,0.463
25.18,32026.1,35152.0,0.1264,0.3726,141.5,98.4,0.463
25.2,31924.3,35026.6,-0.3659,0.0644,141.5,98.4,0.463
25.22,32028.3,34862.5,0.137,-0.339,141.5,98.4,0.463
25.24,31971.2,34810.7,-0.1388,-0.4665,141.5,98.4,0.463
25.26,31821.9,34669.8,-0.8604,-0.8129,141.5,98.4,0.463
25.28,31801.9,34718.4,-0.9572,-0.6933,141.5,98.4,0.463
25.3,31744.0,34712.0,-1.2373,-0.709,141.5,98.4,0.463
25.32,31835.6,34553.3,-0.7944,-1.0993,141.5,98.4,0.463
25.34,31777.7,34636.5,-1.0743,-0.8948,141.5,98.4,0.463
25.36,31700.7,34466.7,-1.4464,-1.3122,141.5,98.4,0.463
25.38,31690.8,34460.7,-1.4941,-1.327,141.5,98.4,0.463
25.4,31821.8,34552.0,-0.8612,-1.1025,141.5,98.4,0.463
25.42,31845.2,34710.2,-0.7478,-0.7135,141.5,98.4,0.463
25.44,32021.5,35122.1,0.1042,0.2993,141.5,98.4,0.463
25.46,32162.1,35483.5,0.7838,1.1877,141.5,98.4,0.463
25.48,32320.8,35686.7,1.5508,1.6874,141.5,98.4,0.463
25.5,32358.9,35710.6,1.735,1.746,141.5,98.4,0.463
25.52,32240.6,35703.4,1.1631,1.7284,141.5,98.4,0.463
25.54,32190.8,35469.2,0.9226,1.1527,141.5,98.4,0.463
25.56,32068.3,35243.8,0.3305,0.5985,141.5,98.4,0.463
25.58,32059.0,35188.7,0.2852,0.463,141.5,98.4,0.463
25.6,32019.2,35123.0,0.093,0.3013,141.5,98.4,0.463
25.62,31978.7,35073.8,-0.1027,0.1806,141.5,98.4,0.463
25.64,31958.9,34938.6,-0.1987,-0.152,141.5,98.4,0.463
25.66,31936.3,34919.3,-0.3078,-0.1993,141.5,98.4,0.463
25.68,31985.0,34794.6,-0.0721,-0.5061,141.5,98.4,0.463
25.7,31822.8,34700.6,-0.8563,-0.7372,141.5,98.4,0.463
25.72,31760.0,34743.2,-1.16,-0.6323,141.5,98.4,0.463
25.74,31942.7,34669.5,-0.2768,-0.8136,141.5,98.4,0.463
25.76,31839.8,34520.4,-0.774,-1.1801,141.5,98.4,0.463
25.78,31798.7,34485.6,-0.9725,-1.2657,141.5,98.4,0.463
25.8,31708.4,34448.6,-1.409,-1.3566,141.5,98.4,0.463
25.82,31678.8,34508.6,-1.5522,-1.2092,141.5,98.4,0.463
25.84,31904.1,34647.7,-0.4631,-0.8671,141.5,98.4,0.463
25.86,31958.6,34989.4,-0.2,-0.0271,141.5,98.4,0.463
25.88,32172.2,35349.2,0.8323,0.8575,141.5,98.4,0.463
25.9,32274.7,35649.0,1.328,1.5945,141.5,98.4,0.463
25.92,32333.3,35883.9,1.6112,2.1723,141.5,98.4,0.463
25.94,32251.7,35627.2,1.2169,1.5409,141.5,98.4,0.463
25.96,32142.5,35506.9,0.6891,1.2451,141.5,98.4,0.463
25.98,32089.5,35340.4,0.433,0.836,141.5,98.4,0.463
26.0,32056.8,35125.2,0.2749,0.3068,141.5,98.4,0.463
26.02,32084.7,35124.9,0.4097,0.3061,141.5,98.4,0.463
26.04,32009.9,34996.3,0.0481,-0.01,141.5,98.4,0.463
26.06,32007.9,34984.9,0.0383,-0.0381,141.5,98.4,0.463
26.08,31952.6,34881.7,-0.2287,-0.2918,141.5,98.4,0.463
26.1,31936.5,34753.8,-0.3066,-0.6063,141.5,98.4,0.463
26.12,31761.5,34738.3,-1.1525,-0.6444,141.5,98.4,0.463
26.14,31868.8,34608.5,-0.6338,-0.9636,141.5,98.4,0.463
26.16,31879.2,34665.9,-0.5836,-0.8225,141.5,98.4,0.463
26.18,31794.7,34636.9,-0.992,-0.8937,141.5,98.4,0.463
26.2,31782.4,34567.7,-1.0516,-1.0639,141.5,98.4,0.463
26.22,31747.9,34454.6,-1.2184,-1.3419,141.5,98.4,0.463
26.24,31760.1,34407.0,-1.1593,-1.459,141.5,98.4,0.463
26.26,31825.0,34582.3,-0.8456,-1.0279,141.5,98.4,0.463
26.28,31931.6,34954.3,-0.3306,-0.1134,141.5,98.4,0.463
26.3,32186.3,35396.0,0.9007,0.9726,141.5,98.4,0.463
26.32,32199.7,35610.5,0.9656,1.5001,141.5,98.4,0.463
26.34,32294.9,35789.5,1.4258,1.9401,141.5,98.4,0.463
26.36,32306.4,35630.9,1.4814,1.5502,141.5,98.4,0.463
26.38,32199.3,35586.4,0.9633,1.4406,141.5,98.4,0.463
26.4,32070.6,35376.2,0.3417,0.9238,141.5,98.4,0.463
26.42,32150.6,35267.5,0.7282,0.6566,141.5,98.4,0.463
26.44,32060.8,35166.0,0.2941,0.4071,141.5,98.4,0.463
26.46,31977.7,35145.4,-0.1075,0.3564,141.5,98.4,0.463
26.48,31972.0,35058.8,-0.1353,0.1435,141.5,98.4,0.463
26.5,31902.7,34972.3,-0.4702,-0.0692,141.5,98.4,0.463
26.52,31976.7,34757.2,-0.1123,-0.598,141.5,98.4,0.463
26.54,31926.3,34605.0,-0.356,-0.9721,141.5,98.4,0.463
26.56,31880.4,34663.9,-0.5781,-0.8273,141.5,98.4,0.463
26.58,31933.3,34700.0,-0.3223,-0.7386,141.5,98.4,0.463
26.6,31903.7,34533.4,-0.4652,-1.1482,141.5,98.4,0.463
26.62,31857.0,34538.9,-0.6912,-1.1348,141.5,98.4,0.463
26.64,31803.2,34466.9,-0.9511,-1.3117,141.5,98.4,0.463
26.66,31782.7,34391.2,-1.05,-1.4979,141.5,98.4,0.463
26.68,31855.0,34629.3,-0.7006,-0.9124,141.5,98.4,0.463
26.7,31956.1,34907.4,-0.2122,-0.2286,141.5,98.4,0.463
26.72,32119.9,35315.4,0.5799,0.7745,141.5,98.4,0.463
26.74,32255.9,35580.6,1.237,1.4264,141.5,98.4,0.463
26.76,32253.9,35727.8,1.2272,1.7885,141.5,98.4,0.463
26.78,32311.5,35800.8,1.5058,1.9678,141.5,98.4,0.463
26.8,32218.5,35640.1,1.0565,1.5728,141.5,98.4,0.463
26.82,32206.1,35354.5,0.9962,0.8706,141.5,98.4,0.463
26.84,32157.4,35186.7,0.7608,0.4581,141.5,98.4,0.463
26.86,32065.3,35147.5,0.3159,0.3617,141.5,98.4,0.463
26.88,32143.7,35149.5,0.6947,0.3664,141.5,98.4,0.463
26.9,31972.4,35061.3,-0.133,0.1498,141.5,98.4,0.463
26.92,31911.3,34902.7,-0.4287,-0.2402,141.5,98.4,0.463
26.94,31903.6,34769.5,-0.4655,-0.5677,141.5,98.4,0.463
26.96,31919.3,34698.5,-0.3899,-0.7424,141.5,98.4,0.463
26.98,31883.7,34720.9,-0.5617,-0.6873,141.5,98.4,0.463
27.0,31774.8,34765.1,-1.0885,-0.5785,141.5,98.4,0.463
27.02,31875.6,34628.1,-0.6009,-0.9155,141.5,98.4,0.463
27.04,31858.3,34507.7,-0.6846,-1.2113,141.5,98.4,0.463
27.06,31792.7,34467.3,-1.0019,-1.3107,141.5,98.4,0.463
27.08,31733.2,34429.8,-1.2894,-1.403,141.5,98.4,0.463
27.1,31849.1,34516.1,-0.7289,-1.1907,141.5,98.4,0.463
27.12,31926.5,34907.1,-0.3552,-0.2294,141.5,98.4,0.463
27.14,32015.6,35147.8,0.0756,0.3623,141.5,98.4,0.463
27.16,32188.8,35544.5,0.9127,1.3377,141.5,98.4,0.463
27.18,32461.0,35705.6,2.2283,1.7338,141.5,98.4,0.463
27.2,32285.9,35731.6,1.3819,1.7978,141.5,98.4,0.463
27.22,32220.2,35625.3,1.0647,1.5364,141.5,98.4,0.463
27.24,32246.3,35458.4,1.1909,1.126,141.5,98.4,0.463
27.26,32082.1,35359.6,0.3969,0.8831,141.5,98.4,0.463
27.28,32039.6,35132.6,0.1914,0.3251,141.5,98.4,0.463
27.3,32112.4,35164.8,0.5434,0.4042,141.5,98.4,0.463
27.32,32035.6,35104.5,0.1724,0.2559,141.5,98.4,0.463
27.34,31977.0,34958.8,-0.1111,-0.1022,141.5,98.4,0.463
27.36,31924.9,34889.3,-0.3627,-0.2732,141.5,98.4,0.463
27.38,31826.4,34737.3,-0.839,-0.6468,141.5,98.4,0.463
27.4,31818.9,34816.8,-0.875,-0.4513,141.5,98.4,0.463
27.42,31834.3,34604.5,-0.8009,-0.9734,141.5,98.4,0.463
27.44,31903.1,34611.9,-0.468,-0.9552,141.5,98.4,0.463
27.46,31772.5,34590.4,-1.0993,-1.008,141.5,98.4,0.463
27.48,31780.9,34481.2,-1.059,-1.2764,141.5,98.4,0.463
27.5,31825.9,34499.3,-0.8414,-1.2319,141.5,98.4,0.463
27.52,31776.4,34491.0,-1.0805,-1.2523,141.5,98.4,0.463
27.54,31919.9,34711.7,-0.3868,-0.7097,141.5,98.4,0.463
27.56,31968.6,35196.8,-0.1515,0.4827,141.5,98.4,0.463
27.58,32188.6,35461.2,0.9117,1.1328,141.5,98.4,0.463
27.6,32269.4,35743.2,1.3021,1.8262,141.5,98.4,0.463
27.62,32295.8,35750.1,1.4301,1.8431,141.5,98.4,0.463
27.64,32213.1,35638.1,1.03,1.5677,141.5,98.4,0.463
27.66,32145.4,35439.6,0.7028,1.0798,141.5,98.4,0.463
27.68,32138.4,35314.6,0.6692,0.7725,141.5,98.4,0.463
27.7,32101.3,35152.1,0.4896,0.373,141.5,98.4,0.463
27.72,32052.7,35123.3,0.255,0.3021,141.5,98.4,0.463
27.74,31990.3,34997.2,-0.0465,-0.0079,141.5,98.4,0.463
27.76,31987.5,34978.2,-0.0604,-0.0545,141.5,98.4,0.463
27.78,32019.9,34864.3,0.0963,-0.3348,141.5,98.4,0.463
27.8,32004.5,34617.3,0.0221,-0.9419,141.5,98.4,0.463
27.82,31924.3,34633.9,-0.3659,-0.9011,141.5,98.4,0.463
27.84,31771.6,34752.7,-1.1039,-0.609,141.5,98.4,0.463
27.86,31905.8,34627.8,-0.4549,-0.9161,141.5,98.4,0.463
27.88,31853.7,34461.9,-0.7069,-1.3241,141.5,98.4,0.463
27.9,31829.2,34576.9,-0.8252,-1.0413,141.5,98.4,0.463
27.92,31738.5,34492.1,-1.2637,-1.2498,141.5,98.4,0.463
27.94,31726.0,34526.0,-1.3243,-1.1664,141.5,98.4,0.463
27.96,31891.7,34695.4,-0.5231,-0.7499,141.5,98.4,0.463
27.98,31943.7,34970.1,-0.2718,-0.0746,141.5,98.4,0.463
28.0,32139.6,35326.9,0.6748,0.8028,141.5,98.4,0.463
28.02,32294.6,35656.0,1.4242,1.6117,141.5,98.4,0.463
28.04,32249.3,35764.7,1.2052,1.8791,141.5,98.4,0.463
28.06,32290.3,35659.7,1.4033,1.6209,141.5,98.4,0.463
28.08,32180.4,35484.6,0.8723,1.1905,141.5,98.4,0.463
28.1,32169.0,35274.9,0.8171,0.6748,141.5,98.4,0.463
28.12,32087.6,35093.4,0.4234,0.2286,141.5,98.4,0.463
28.14,32007.3,35180.6,0.0357,0.443,141.5,98.4,0.463
28.16,32033.6,35064.7,0.1628,0.1581,141.5,98.4,0.463
28.18,31926.7,34960.3,-0.354,-0.0985,141.5,98.4,0.463
28.2,31968.7,34889.2,-0.1511,-0.2734,141.5,98.4,0.463
28.22,31966.9,34784.2,-0.1596,-0.5317,141.5,98.4,0.463
28.24,31822.5,34734.2,-0.8575,-0.6544,141.5,98.4,0.463
28.26,31871.2,34679.0,-0.6223,-0.7901,141.5,98.4,0.463
28.28,31830.3,34665.8,-0.8201,-0.8228,141.5,98.4,0.463
28.3,31804.4,34625.0,-0.9451,-0.9229,141.5,98.4,0.463
28.32,31831.4,34534.0,-0.8145,-1.1466,141.5,98.4,0.463
28.34,31765.5,34441.0,-1.1333,-1.3754,141.5,98.4,0.463
28.36,31797.0,34450.7,-0.9812,-1.3515,141.5,98.4,0.463
28.38,31826.1,34591.2,-0.8405,-1.0062,141.5,98.4,0.463
28.4,32001.1,35033.9,0.0057,0.0822,141.5,98.4,0.463
28.42,32131.4,35465.0,0.6354,1.1422,141.5,98.4,0.463
28.44,32235.7,35636.6,1.1394,1.564,141.5,98.4,0.463
28.46,32361.0,35790.2,1.7452,1.9418,141.5,98.4,0.463
28.48,32348.9,35683.7,1.6865,1.68,141.5,98.4,0.463
28.5,32215.0,35501.3,1.0396,1.2316,141.5,98.4,0.463
28.52,32132.6,35469.5,0.6412,1.1534,141.5,98.4,0.463
28.54,32074.5,35190.2,0.3601,0.4667,141.5,98.4,0.463
28.56,32139.0,35072.5,0.6722,0.1772,141.5,98.4,0.463
28.58,31988.0,35028.7,-0.0578,0.0694,141.5,98.4,0.463
28.6,31974.1,35008.9,-0.125,0.0208,141.5,98.4,0.463
28.62,31947.1,34880.6,-0.2554,-0.2946,141.5,98.4,0.463
28.64,31987.8,34758.7,-0.0586,-0.5943,141.5,98.4,0.463
28.66,31916.9,34603.9,-0.4015,-0.9748,141.5,98.4,0.463
28.68,31908.9,34738.2,-0.44,-0.6447,141.5,98.4,0.463
28.7,31872.5,34738.1,-0.616,-0.6449,141.5,98.4,0.463
28.72,31926.3,34619.0,-0.3563,-0.9376,141.5,98.4,0.463
28.74,31814.4,34538.0,-0.897,-1.1369,141.5,98.4,0.463
28.76,31745.4,34492.9,-1.2303,-1.2478,141.5,98.4,0.463
28.78,31770.8,34431.7,-1.1074,-1.3982,141.5,98.4,0.463
28.8,31863.7,34484.4,-0.6586,-1.2687,141.5,98.4,0.463
28.82,31887.6,34913.3,-0.5429,-0.2141,141.5,98.4,0.463
28.84,32186.6,35199.6,0.9022,0.4897,141.5,98.4,0.463
28.86,32240.6,35525.1,1.1633,1.29,141.5,98.4,0.463
28.88,32278.8,35808.1,1.3478,1.9857,141.5,98.4,0.463
28.9,32265.6,35705.3,1.2839,1.7332,141.5,98.4,0.463
28.92,32290.2,35530.6,1.4029,1.3036,141.5,98.4,0.463
28.94,32156.5,35320.7,0.7564,0.7874,141.5,98.4,0.463
28.96,32107.7,35159.1,0.5207,0.3902,141.5,98.4,0.463
28.98,31974.7,35196.4,-0.1222,0.4818,141.5,98.4,0.463
29.0,32013.8,35088.7,0.067,0.2171,141.5,98.4,0.463
29.02,31881.6,35079.1,-0.5722,0.1936,141.5,98.4,0.463
29.04,32058.6,34899.6,0.2834,-0.2478,141.5,98.4,0.463
29.06,32013.7,34819.9,0.0663,-0.4438,141.5,98.4,0.463
29.08,31898.6,34737.7,-0.4901,-0.6459,141.5,98.4,0.463
29.1,31897.1,34627.8,-0.4972,-0.916,141.5,98.4,0.463
29.12,31804.6,34667.0,-0.944,-0.8197,141.5,98.4,0.463
29.14,31815.8,34677.6,-0.8902,-0.7938,141.5,98.4,0.463
29.16,31794.0,34514.2,-0.9957,-1.1955,141.5,98.4,0.463
29.18,31824.2,34507.6,-0.8495,-1.2117,141.5,98.4,0.463
29.2,31774.7,34357.6,-1.0889,-1.5803,141.5,98.4,0.463
29.22,31853.2,34506.7,-0.7093,-1.2137,141.5,98.4,0.463
29.24,31938.9,34699.7,-0.2952,-0.7394,141.5,98.4,0.463
29.26,32158.8,35143.0,0.7679,0.3506,141.5,98.4,0.463
29.28,32170.9,35629.4,0.826,1.5464,141.5,98.4,0.463
29.3,32340.9,35719.9,1.6477,1.769,141.5,98.4,0.463
29.32,32420.8,35766.3,2.0342,1.8831,141.5,98.4,0.463
29.34,32224.2,35647.4,1.0838,1.5908,141.5,98.4,0.463
29.36,32178.1,35346.7,0.8608,0.8514,141.5,98.4,0.463
29.38,32073.1,35195.2,0.3535,0.4788,141.5,98.4,0.463
29.4,32064.2,35081.2,0.3106,0.1987,141.5,98.4,0.463
29.42,32037.6,35121.5,0.182,0.2977,141.5,98.4,0.463
29.44,31993.2,35085.5,-0.0328,0.2092,141.5,98.4,0.463
29.46,32034.9,35047.7,0.1687,0.1163,141.5,98.4,0.463
29.48,31840.5,34873.9,-0.7705,-0.311,141.5,98.4,0.463
29.5,31933.6,34771.2,-0.321,-0.5635,141.5,98.4,0.463
29.52,31825.6,34701.2,-0.8426,-0.7356,141.5,98.4,0.463
29.54,31921.3,34635.5,-0.3801,-0.897,141.5,98.4,0.463
29.56,31768.8,34655.4,-1.1173,-0.8482,141.5,98.4,0.463
29.58,31830.3,34627.9,-0.8201,-0.9159,141.5,98.4,0.463
29.6,31758.7,34558.3,-1.1663,-1.0871,141.5,98.4,0.463
29.62,31763.9,34437.6,-1.141,-1.3837,141.5,98.4,0.463
29.64,31869.6,34483.9,-0.6299,-1.2698,141.5,98.4,0.463
29.66,31843.9,34732.8,-0.7545,-0.658,141.5,98.4,0.463
29.68,32090.6,35105.9,0.4379,0.2594,141.5,98.4,0.463
29.7,32128.7,35449.6,0.6221,1.1045,141.5,98.4,0.463
29.72,32339.9,35632.0,1.6432,1.5529,141.5,98.4,0.463
29.74,32305.5,35719.6,1.4767,1.7683,141.5,98.4,0.463
29.76,32263.8,35637.9,1.275,1.5675,141.5,98.4,0.463
29.78,32143.7,35441.9,0.695,1.0854,141.5,98.4,0.463
29.8,32127.5,35242.8,0.6163,0.596,141.5,98.4,0.463
29.82,32123.3,35170.7,0.5961,0.4188,141.5,98.4,0.463
29.84,32064.9,35095.8,0.3138,0.2344,141.5,98.4,0.463
29.86,32069.6,34957.1,0.3367,-0.1066,141.5,98.4,0.463
29.88,31949.7,34992.6,-0.243,-0.0192,141.5,98.4,0.463
29.9,31927.0,34954.1,-0.3525,-0.1138,141.5,98.4,0.463
29.92,31796.8,34716.6,-0.9818,-0.6977,141.5,98.4,0.463
29.94,31884.1,34662.5,-0.5602,-0.8308,141.5,98.4,0.463
29.96,31851.7,34694.7,-0.7168,-0.7517,141.5,98.4,0.463
29.98,31886.1,34733.2,-0.5505,-0.6571,141.5,98.4,0.463
30.0,31870.5,34669.5,-0.6257,-0.8136,141.5,98.4,0.463
30.02,31801.0,34515.2,-0.9619,-1.1928,141.5,98.4,0.463
30.04,31787.3,34401.5,-1.028,-1.4724,141.5,98.4,0.463
30.06,31769.2,34485.9,-1.1155,-1.2649,141.5,98.4,0.463
30.08,31828.0,34752.8,-0.8311,-0.6089,141.5,98.4,0.463
30.1,32029.7,35032.2,0.1438,0.0782,141.5,98.4,0.463
30.12,32137.3,35299.6,0.6639,0.7356,141.5,98.4,0.463
30.14,32333.9,35653.4,1.614,1.6055,141.5,98.4,0.463
30.16,32306.3,35808.9,1.4806,1.9878,141.5,98.4,0.463
30.18,32281.1,35746.6,1.3587,1.8346,141.5,98.4,0.463
30.2,32162.2,35361.9,0.7841,0.8887,141.5,98.4,0.463
30.22,32174.8,35356.1,0.8448,0.8746,141.5,98.4,0.463
30.24,32098.6,35155.5,0.4769,0.3812,141.5,98.4,0.463
30.26,32044.7,35088.0,0.2165,0.2153,141.5,98.4,0.463
30.28,32044.9,35056.4,0.2173,0.1378,141.5,98.4,0.463
30.3,31897.5,35034.7,-0.4951,0.0844,141.5,98.4,0.463
30.32,32005.0,34905.7,0.0243,-0.2329,141.5,98.4,0.463
30.34,31996.1,34826.5,-0.0187,-0.4275,141.5,98.4,0.463
30.36,31860.6,34675.1,-0.6735,-0.7998,141.5,98.4,0.463
30.38,31800.8,34660.3,-0.9626,-0.8363,141.5,98.4,0.463
30.4,31922.2,34749.3,-0.3758,-0.6174,141.5,98.4,0.463
30.42,31854.6,34573.9,-0.7027,-1.0486,141.5,98.4,0.463
30.44,31835.7,34599.8,-0.7941,-0.9848,141.5,98.4,0.463
30.46,31771.5,34381.7,-1.1044,-1.5211,141.5,98.4,0.463
30.48,31751.4,34409.1,-1.2016,-1.4539,141.5,98.4,0.463
30.5,31923.9,34588.8,-0.3677,-1.012,141.5,98.4,0.463
30.52,31888.3,34851.5,-0.5398,-0.366,141.5,98.4,0.463
30.54,32065.6,35234.6,0.3174,0.5759,141.5,98.4,0.463
30.56,32304.1,35548.7,1.4701,1.3481,141.5,98.4,0.463
30.58,32369.7,35815.7,1.7873,2.0046,141.5,98.4,0.463
30.6,32256.6,35720.0,1.2403,1.7691,141.5,98.4,0.463
30.62,32268.3,35518.7,1.2969,1.2742,141.5,98.4,0.463
30.64,32195.5,35339.0,0.945,0.8324,141.5,98.4,0.463
30.66,32086.4,35215.0,0.4179,0.5276,141.5,98.4,0.463
30.68,32048.2,35135.4,0.233,0.3319,141.5,98.4,0.463
30.7,32070.8,35106.3,0.3423,0.2604,141.5,98.4,0.463
30.72,32049.5,35059.8,0.2393,0.1461,141.5,98.4,0.463
30.74,32029.3,34868.7,0.142,-0.3237,141.5,98.4,0.463
30.76,31865.5,34812.9,-0.65,-0.4611,141.5,98.4,0.463
30.78,31828.8,34717.1,-0.827,-0.6965,141.5,98.4,0.463
30.8,31818.7,34642.6,-0.8761,-0.8797,141.5,98.4,0.463
30.82,31936.8,34681.1,-0.3051,-0.785,141.5,98.4,0.463
30.84,31901.0,34642.9,-0.4784,-0.879,141.5,98.4,0.463
30.86,31883.9,34457.1,-0.5612,-1.3359,141.5,98.4,0.463
30.88,31772.0,34514.7,-1.1018,-1.1941,141.5,98.4,0.463
30.9,31843.5,34572.0,-0.7564,-1.0534,141.5,98.4,0.463
30.92,31897.7,34543.5,-0.4942,-1.1234,141.5,98.4,0.463
30.94,31913.9,34947.8,-0.4157,-0.1294,141.5,98.4,0.463
30.96,32067.0,35244.5,0.324,0.6002,141.5,98.4,0.463
30.98,32293.6,35502.2,1.4193,1.2337,141.5,98.4,0.463
31.0,32292.9,35821.9,1.4157,2.0196,141.5,98.4,0.463
31.02,32324.9,35723.2,1.5703,1.7771,141.5,98.4,0.463
31.04,32255.9,35505.2,1.237,1.241,141.5,98.4,0.463
31.06,32209.9,35449.6,1.0148,1.1043,141.5,98.4,0.463
31.08,32059.7,35247.1,0.2887,0.6066,141.5,98.4,0.463
31.1,32070.7,35130.1,0.3419,0.3188,141.5,98.4,0.463
31.12,32105.8,35038.0,0.5115,0.0925,141.5,98.4,0.463
31.14,32077.6,35002.7,0.3752,0.0057,141.5,98.4,0.463
31.16,31973.5,34867.9,-0.1278,-0.3257,141.5,98.4,0.463
31.18,31933.7,34831.5,-0.3201,-0.4152,141.5,98.4,0.463
31.2,31818.7,34782.2,-0.876,-0.5365,141.5,98.4,0.463
31.22,31849.1,34748.8,-0.7291,-0.6186,141.5,98.4,0.463
31.24,31822.0,34702.6,-0.8601,-0.7322,141.5,98.4,0.463
31.26,31947.2,34669.0,-0.2551,-0.8148,141.5,98.4,0.463
31.28,31921.7,34576.4,-0.3783,-1.0425,141.5,98.4,0.463
31.3,31758.9,34503.6,-1.1651,-1.2214,141.5,98.4,0.463
31.32,31805.0,34483.1,-0.9424,-1.2718,141.5,98.4,0.463
31.34,31770.8,34557.7,-1.1077,-1.0885,141.5,98.4,0.463
31.36,31906.9,34810.7,-0.4496,-0.4665,141.5,98.4,0.463
31.38,32061.7,35189.9,0.2985,0.466,141.5,98.4,0.463
31.4,32314.7,35450.2,1.5215,1.1059,141.5,98.4,0.463
31.42,32415.1,35657.7,2.0066,1.6161,141.5,98.4,0.463
31.44,32303.9,35806.0,1.4692,1.9807,141.5,98.4,0.463
31.46,32222.5,35684.9,1.0755,1.683,141.5,98.4,0.463
31.48,32165.5,35387.0,0.8002,0.9504,141.5,98.4,0.463
31.5,32068.0,35266.8,0.3289,0.6549,141.5,98.4,0.463
31.52,32021.1,35192.0,0.1023,0.4711,141.5,98.4,0.463
31.54,32005.0,35107.1,0.0244,0.2624,141.5,98.4,0.463
31.56,31974.5,35049.9,-0.123,0.1217,141.5,98.4,0.463
31.58,31909.4,34952.3,-0.4375,-0.1183,141.5,98.4,0.463
31.6,31971.6,34873.0,-0.1369,-0.3131,141.5,98.4,0.463
31.62,31929.0,34711.7,-0.343,-0.7098,141.5,98.4,0.463
31.64,31831.0,34591.1,-0.8168,-1.0063,141.5,98.4,0.463
31.66,31928.3,34731.7,-0.3463,-0.6606,141.5,98.4,0.463
31.68,31850.9,34726.3,-0.7203,-0.6739,141.5,98.4,0.463
31.7,31848.4,34635.5,-0.7325,-0.8972,141.5,98.4,0.463
31.72,31837.0,34459.7,-0.7879,-1.3294,141.5,98.4,0.463
31.74,31808.0,34475.8,-0.9277,-1.2898,141.5,98.4,0.463
31.76,31849.5,34500.7,-0.7272,-1.2285,141.5,98.4,0.463
31.78,31971.0,34821.9,-0.14,-0.4389,141.5,98.4,0.463
31.8,31985.2,35006.0,-0.0711,0.0138,141.5,98.4,0.463
31.82,32184.3,35459.3,0.8911,1.1282,141.5,98.4,0.463
31.84,32310.5,35704.9,1.5011,1.732,141.5,98.4,0.463
31.86,32296.3,35817.1,1.4325,2.0079,141.5,98.4,0.463
31.88,32285.1,35694.9,1.3783,1.7074,141.5,98.4,0.463
31.9,32261.3,35503.2,1.2632,1.2363,141.5,98.4,0.463
31.92,32182.5,35217.3,0.8824,0.5333,141.5,98.4,0.463
31.94,32033.4,35138.8,0.1617,0.3402,141.5,98.4,0.463
31.96,32073.8,35134.7,0.3568,0.3302,141.5,98.4,0.463
31.98,32029.8,35086.1,0.1444,0.2107,141.5,98.4,0.463
32.0,31969.1,34912.6,-0.1491,-0.216,141.5,98.4,0.463
32.02,31955.2,34721.5,-0.2164,-0.6856,141.5,98.4,0.463
32.04,31883.5,34750.0,-0.5631,-0.6157,141.5,98.4,0.463
32.06,31850.8,34692.5,-0.7211,-0.757,141.5,98.4,0.463
32.08,31912.1,34655.0,-0.4248,-0.8493,141.5,98.4,0.463
32.1,31895.4,34622.5,-0.5053,-0.9292,141.5,98.4,0.463
32.12,31863.9,34657.7,-0.6576,-0.8426,141.5,98.4,0.463
32.14,31791.9,34509.5,-1.0056,-1.2069,141.5,98.4,0.463
32.16,31887.4,34480.0,-0.5441,-1.2795,141.5,98.4,0.463
32.18,31788.0,34538.0,-1.0244,-1.1369,141.5,98.4,0.463
32.2,31854.9,34695.6,-0.7013,-0.7493,141.5,98.4,0.463
32.22,31995.6,34976.8,-0.0211,-0.0581,141.5,98.4,0.463
32.24,32067.1,35419.0,0.3244,1.0293,141.5,98.4,0.463
32.26,32323.0,35643.5,1.5612,1.581,141.5,98.4,0.463
32.28,32370.8,35751.9,1.7924,1.8476,141.5,98.4,0.463
32.3,32234.7,35737.5,1.1347,1.8123,141.5,98.4,0.463
32.32,32163.4,35493.9,0.7902,1.2134,141.5,98.4,0.463
32.34,32202.2,35352.6,0.9773,0.8659,141.5,98.4,0.463
32.36,32107.5,35098.5,0.5197,0.2413,141.5,98.4,0.463
32.38,31954.4,35099.7,-0.2204,0.2442,141.5,98.4,0.463
32.4,32009.6,35076.9,0.0464,0.1881,141.5,98.4,0.463
32.42,32087.8,34992.9,0.4246,-0.0184,141.5,98.4,0.463
32.44,31947.5,34919.7,-0.2534,-0.1985,141.5,98.4,0.463
32.46,31861.3,34833.8,-0.6702,-0.4096,141.5,98.4,0.463
32.48,31894.1,34730.1,-0.5118,-0.6645,141.5,98.4,0.463
32.5,31890.8,34711.9,-0.5275,-0.7094,141.5,98.4,0.463
32.52,31937.0,34701.6,-0.3044,-0.7347,141.5,98.4,0.463
32.54,31840.0,34673.0,-0.7729,-0.805,141.5,98.4,0.463
32.56,31813.0,34541.5,-0.9036,-1.1284,141.5,98.4,0.463
32.58,31838.7,34422.2,-0.7792,-1.4217,141.5,98.4,0.463
32.6,31830.8,34583.3,-0.8178,-1.0255,141.5,98.4,0.463
32.62,31886.1,34615.3,-0.5502,-0.9468,141.5,98.4,0.463
32.64,31854.3,34968.8,-0.7039,-0.0777,141.5,98.4,0.463
32.66,32202.8,35270.7,0.9802,0.6646,141.5,98.4,0.463
32.68,32359.0,35577.2,1.7353,1.418,141.5,98.4,0.463
32.7,32443.6,35815.7,2.1442,2.0045,141.5,98.4,0.463
32.72,32332.9,35682.0,1.609,1.6758,141.5,98.4,0.463
32.74,32232.5,35560.1,1.1238,1.376,141.5,98.4,0.463
32.76,32142.2,35358.0,0.6873,0.8792,141.5,98.4,0.463
32.78,31970.4,35114.1,-0.143,0.2796,141.5,98.4,0.463
32.8,32049.7,35082.8,0.2403,0.2025,141.5,98.4,0.463
32.82,31996.1,35063.5,-0.0186,0.1551,141.5,98.4,0.463
32.84,31961.5,35031.9,-0.1859,0.0773,141.5,98.4,0.463
32.86,31924.3,34872.4,-0.3659,-0.3147,141.5,98.4,0.463
32.88,31925.7,34895.4,-0.3587,-0.2581,141.5,98.4,0.463
32.9,31794.8,34734.3,-0.9914,-0.6543,141.5,98.4,0.463
32.92,31865.7,34602.9,-0.6487,-0.9773,141.5,98.4,0.463
32.94,31907.3,34614.2,-0.4478,-0.9494,141.5,98.4,0.463
32.96,31922.8,34603.3,-0.3731,-0.9763,141.5,98.4,0.463
32.98,31796.2,34558.4,-0.9849,-1.0867,141.5,98.4,0.463
33.0,31819.8,34448.6,-0.8706,-1.3566,141.5,98.4,0.463
33.02,31780.6,34491.9,-1.0602,-1.2501,141.5,98.4,0.463
33.04,31853.6,34536.5,-0.7072,-1.1405,141.5,98.4,0.463
33.06,31851.8,34846.6,-0.7162,-0.3781,141.5,98.4,0.463
33.08,32002.4,35155.6,0.0116,0.3815,141.5,98.4,0.463
33.1,32296.0,35574.7,1.4308,1.4119,141.5,98.4,0.463
33.12,32257.6,35753.9,1.2451,1.8524,141.5,98.4,0.463
33.14,32325.9,35797.4,1.5752,1.9596,141.5,98.4,0.463
33.16,32260.1,35614.4,1.2573,1.5096,141.5,98.4,0.463
33.18,32222.1,35333.1,1.0737,0.8179,141.5,98.4,0.463
33.2,32036.7,35248.0,0.1775,0.6086,141.5,98.4,0.463
33.22,31995.5,35011.8,-0.0216,0.028,141.5,98.4,0.463
33.24,32057.8,35065.8,0.2797,0.1609,141.5,98.4,0.463
33.26,32032.5,34994.6,0.1574,-0.0143,141.5,98.4,0.463
33.28,31845.1,34956.9,-0.7483,-0.107,141.5,98.4,0.463
33.3,31938.5,34808.2,-0.2968,-0.4726,141.5,98.4,0.463
33.32,31896.9,34710.3,-0.4983,-0.7133,141.5,98.4,0.463
33.34,31926.4,34747.0,-0.3557,-0.6229,141.5,98.4,0.463
33.36,31913.7,34654.0,-0.4169,-0.8517,141.5,98.4,0.463
33.38,31779.4,34731.4,-1.0662,-0.6613,141.5,98.4,0.463
33.4,31782.4,34604.0,-1.0516,-0.9745,141.5,98.4,0.463
33.42,31801.9,34521.5,-0.9571,-1.1774,141.5,98.4,0.463
33.44,31727.5,34414.7,-1.3167,-1.4401,141.5,98.4,0.463
33.46,31791.0,34496.7,-1.0101,-1.2384,141.5,98.4,0.463
33.48,31916.4,34809.2,-0.404,-0.4701,141.5,98.4,0.463
33.5,32084.8,35194.2,0.4099,0.4765,141.5,98.4,0.463
33.52,32217.0,35527.3,1.0489,1.2955,141.5,98.4,0.463
33.54,32367.6,35733.1,1.777,1.8013,141.5,98.4,0.463
33.56,32271.1,35792.4,1.3104,1.9473,141.5,98.4,0.463
33.58,32242.9,35657.3,1.1744,1.615,141.5,98.4,0.463
33.6,32222.8,35490.6,1.0771,1.2053,141.5,98.4,0.463
33.62,32070.9,35305.3,0.3429,0.7496,141.5,98.4,0.463
33.64,32063.2,35162.1,0.3057,0.3975,141.5,98.4,0.463
33.66,32001.7,35142.6,0.0083,0.3495,141.5,98.4,0.463
33.68,31946.0,35024.8,-0.2606,0.06,141.5,98.4,0.463
33.7,31944.8,34881.3,-0.2666,-0.2929,141.5,98.4,0.463
33.72,31901.5,34838.5,-0.476,-0.398,141.5,98.4,0.463
33.74,31961.1,34781.4,-0.188,-0.5384,141.5,98.4,0.463
33.76,31899.8,34721.9,-0.484,-0.6847,141.5,98.4,0.463
33.78,31869.9,34597.5,-0.6286,-0.9906,141.5,98.4,0.463
33.8,31875.9,34696.8,-0.5996,-0.7464,141.5,98.4,0.463
33.82,31809.5,34672.0,-0.9206,-0.8075,141.5,98.4,0.463
33.84,31751.0,34509.3,-1.2031,-1.2073,141.5,98.4,0.463
33.86,31802.3,34489.6,-0.9553,-1.2559,141.5,98.4,0.463
33.88,31761.6,34559.8,-1.1519,-1.0832,141.5,98.4,0.463
33.9,31937.5,34827.3,-0.3018,-0.4256,141.5,98.4,0.463
33.92,32044.0,35040.6,0.213,0.0988,141.5,98.4,0.463
33.94,32106.8,35477.5,0.5163,1.173,141.5,98.4,0.463
33.96,32313.9,35829.3,1.5173,2.0379,141.5,98.4,0.463
33.98,32346.4,35844.9,1.6746,2.0764,141.5,98.4,0.463
34.0,32301.7,35679.9,1.4582,1.6707,141.5,98.4,0.463
34.02,32208.2,35457.0,1.0067,1.1226,141.5,98.4,0.463
34.04,32066.7,35291.4,0.3227,0.7154,141.5,98.4,0.463
34.06,32051.0,35179.2,0.2465,0.4395,141.5,98.4,0.463
34.08,32004.1,35107.4,0.0201,0.2631,141.5,98.4,0.463
34.1,32018.0,35071.9,0.0874,0.1758,141.5,98.4,0.463
34.12,31973.9,35042.0,-0.1261,0.1024,141.5,98.4,0.463
34.14,31944.5,34895.6,-0.2679,-0.2576,141.5,98.4,0.463
34.16,31926.4,34755.3,-0.3557,-0.6026,141.5,98.4,0.463
34.18,31890.1,34795.7,-0.5312,-0.5034,141.5,98.4,0.463
34.2,31855.1,34727.4,-0.7,-0.6712,141.5,98.4,0.463
34.22,31831.2,34732.2,-0.8157,-0.6593,141.5,98.4,0.463
34.24,31816.8,34600.3,-0.8851,-0.9837,141.5,98.4,0.463
34.26,31775.6,34426.8,-1.0842,-1.4103,141.5,98.4,0.463
34.28,31796.4,34447.3,-0.9837,-1.3599,141.5,98.4,0.463
34.3,31736.0,34391.9,-1.2756,-1.4961,141.5,98.4,0.463
34.32,31936.1,34713.7,-0.3086,-0.7048,141.5,98.4,0.463
34.34,31964.2,35038.1,-0.1727,0.0927,141.5,98.4,0.463
34.36,32186.9,35258.3,0.9034,0.6341,141.5,98.4,0.463
34.38,32218.9,35734.1,1.058,1.8039,141.5,98.4,0.463
34.4,32424.9,35800.1,2.0538,1.9662,141.5,98.4,0.463
34.42,32250.6,35742.5,1.2115,1.8245,141.5,98.4,0.463
34.44,32249.6,35516.6,1.2066,1.2691,141.5,98.4,0.463
34.46,32070.8,35309.5,0.3426,0.7599,141.5,98.4,0.463
34.48,32160.8,35195.0,0.7772,0.4785,141.5,98.4,0.463
34.5,31958.6,35212.0,-0.1999,0.5202,141.5,98.4,0.463
34.52,32006.0,35054.7,0.0292,0.1335,141.5,98.4,0.463
34.54,32049.3,34996.8,0.2386,-0.0089,141.5,98.4,0.463
34.56,31922.5,34848.2,-0.3742,-0.3742,141.5,98.4,0.463
34.58,31901.4,34844.1,-0.4765,-0.3843,141.5,98.4,0.463
34.6,31826.4,34815.9,-0.8387,-0.4535,141.5,98.4,0.463
34.62,31739.6,34768.2,-1.2583,-0.571,141.5,98.4,0.463
34.64,31943.1,34777.1,-0.2748,-0.5491,141.5,98.4,0.463
34.66,31873.1,34602.1,-0.6131,-0.9792,141.5,98.4,0.463
34.68,31796.0,34532.5,-0.9857,-1.1503,141.5,98.4,0.463
34.7,31833.7,34434.2,-0.8034,-1.3921,141.5,98.4,0.463
34.72,31793.5,34455.7,-0.9976,-1.3392,141.5,98.4,0.463
34.74,31841.2,34574.0,-0.7673,-1.0484,141.5,98.4,0.463
34.76,31916.4,34815.8,-0.4039,-0.454,141.5,98.4,0.463
34.78,32132.2,35329.0,0.639,0.8079,141.5,98.4,0.463
34.8,32212.6,35610.1,1.0276,1.4991,141.5,98.4,0.463
34.82,32432.1,35798.0,2.0889,1.961,141.5,98.4,0.463
34.84,32248.2,35647.2,1.2,1.5903,141.5,98.4,0.463
34.86,32196.3,35441.1,0.9488,1.0835,141.5,98.4,0.463
34.88,32188.6,35359.5,0.9118,0.8829,141.5,98.4,0.463
34.9,32153.2,35175.8,0.7406,0.4313,141.5,98.4,0.463
34.92,31984.6,35116.8,-0.0742,0.2862,141.5,98.4,0.463
34.94,32016.7,35113.5,0.081,0.2782,141.5,98.4,0.463
34.96,32079.1,35026.7,0.3827,0.0647,141.5,98.4,0.463
34.98,31962.0,34918.6,-0.1834,-0.2011,141.5,98.4,0.463
35.0,31948.9,34834.5,-0.2467,-0.4079,141.5,98.4,0.463
35.02,31959.4,34656.3,-0.1961,-0.8459,141.5,98.4,0.463
35.04,31776.6,34705.7,-1.0795,-0.7246,141.5,98.4,0.463
35.06,31812.3,34589.9,-0.9069,-1.0093,141.5,98.4,0.463
35.08,31732.8,34718.8,-1.2913,-0.6924,141.5,98.4,0.463
35.1,31869.7,34567.8,-0.6297,-1.0636,141.5,98.4,0.463
35.12,31844.1,34565.7,-0.7532,-1.0687,141.5,98.4,0.463
35.14,31837.4,34490.1,-0.7855,-1.2546,141.5,98.4,0.463
35.16,31787.8,34559.1,-1.0256,-1.085,141.5,98.4,0.463
35.18,31913.1,34823.9,-0.42,-0.4339,141.5,98.4,0.463
35.2,32065.4,35164.8,0.3161,0.4041,141.5,98.4,0.463
35.22,32194.3,35547.3,0.9391,1.3447,141.5,98.4,0.463
35.24,32219.0,35710.7,1.0587,1.7464,141.5,98.4,0.463
35.26,32254.3,35672.4,1.2291,1.6522,141.5,98.4,0.463
35.28,32267.2,35650.2,1.2914,1.5976,141.5,98.4,0.463
35.3,32170.1,35433.9,0.8224,1.0657,141.5,98.4,0.463
35.32,32120.5,35236.8,0.5827,0.5813,141.5,98.4,0.463
35.34,32046.6,35127.3,0.2255,0.3119,141.5,98.4,0.463
35.36,32057.7,35059.0,0.2792,0.1439,141.5,98.4,0.463
35.38,32077.2,35087.7,0.3735,0.2147,141.5,98.4,0.463
35.4,31981.7,35009.2,-0.0882,0.0215,141.5,98.4,0.463
35.42,31858.4,34773.0,-0.6843,-0.5591,141.5,98.4,0.463
35.44,31896.4,34719.3,-0.5005,-0.6912,141.5,98.4,0.463
35.46,31914.5,34628.0,-0.4129,-0.9155,141.5,98.4,0.463
35.48,31866.8,34624.0,-0.6436,-0.9255,141.5,98.4,0.463
35.5,31767.3,34634.5,-1.1245,-0.8997,141.5,98.4,0.463
35.52,31823.3,34547.5,-0.8541,-1.1135,141.5,98.4,0.463
35.54,31807.0,34443.0,-0.9327,-1.3705,141.5,98.4,0.463
35.56,31792.3,34389.0,-1.0035,-1.5032,141.5,98.4,0.463
35.58,31740.9,34561.4,-1.2523,-1.0793,141.5,98.4,0.463
35.6,31957.8,34776.1,-0.204,-0.5516,141.5,98.4,0.463
35.62,31983.8,35055.6,-0.0781,0.1356,141.5,98.4,0.463
35.64,32210.4,35459.4,1.0172,1.1284,141.5,98.4,0.463
35.66,32283.7,35677.3,1.3712,1.6643,141.5,98.4,0.463
35.68,32322.4,35800.8,1.5585,1.9679,141.5,98.4,0.463
35.7,32303.2,35684.9,1.4659,1.6829,141.5,98.4,0.463
35.72,32140.0,35480.1,0.6768,1.1793,141.5,98.4,0.463
35.74,32158.2,35327.7,0.7648,0.8046,141.5,98.4,0.463
35.76,32061.6,35103.6,0.2977,0.2538,141.5,98.4,0.463
35.78,31983.3,35056.1,-0.0806,0.137,141.5,98.4,0.463
35.8,31990.8,35018.4,-0.0445,0.0441,141.5,98.4,0.463
35.82,31962.8,34986.8,-0.1794,-0.0335,141.5,98.4,0.463
35.84,32014.4,34754.4,0.07,-0.6048,141.5,98.4,0.463
35.86,31919.3,34676.4,-0.3901,-0.7966,141.5,98.4,0.463
35.88,31856.5,34653.3,-0.6935,-0.8533,141.5,98.4,0.463
35.9,31835.8,34612.0,-0.7932,-0.9549,141.5,98.4,0.463
35.92,31875.2,34661.5,-0.6032,-0.8332,141.5,98.4,0.463
35.94,31793.5,34661.5,-0.9979,-0.8332,141.5,98.4,0.463
35.96,31845.6,34499.8,-0.7459,-1.2309,141.5,98.4,0.463
35.98,31828.7,34516.3,-0.8279,-1.1902,141.5,98.4,0.463
36.0,31848.1,34534.5,-0.7339,-1.1455,141.5,98.4,0.463
36.02,31903.4,34754.1,-0.4667,-0.6055,141.5,98.4,0.463
36.04,32053.2,35046.6,0.2575,0.1136,141.5,98.4,0.463
36.06,32196.2,35390.4,0.9484,0.9589,141.5,98.4,0.463
36.08,32183.6,35676.4,0.8876,1.662,141.5,98.4,0.463
36.1,32250.1,35747.7,1.2091,1.8374,141.5,98.4,0.463
36.12,32264.9,35676.0,1.2805,1.6611,141.5,98.4,0.463
36.14,32184.6,35448.9,0.8923,1.1026,141.5,98.4,0.463
36.16,32145.8,35369.9,0.7051,0.9084,141.5,98.4,0.463
36.18,32064.7,35164.2,0.3128,0.4027,141.5,98.4,0.463
36.2,32019.7,35167.7,0.0955,0.4113,141.5,98.4,0.463
36.22,32098.6,34995.1,0.4767,-0.013,141.5,98.4,0.463
36.24,32080.8,34977.6,0.391,-0.056,141.5,98.4,0.463
36.26,31972.0,34771.5,-0.1351,-0.5628,141.5,98.4,0.463
36.28,31975.6,34789.8,-0.1175,-0.5177,141.5,98.4,0.463
36.3,31848.7,34683.6,-0.7312,-0.779,141.5,98.4,0.463
36.32,31845.7,34618.1,-0.7455,-0.9399,141.5,98.4,0.463
36.34,31886.1,34649.2,-0.5501,-0.8636,141.5,98.4,0.463
36.36,31894.3,34516.2,-0.5107,-1.1904,141.5,98.4,0.463
36.38,31785.7,34457.8,-1.0358,-1.334,141.5,98.4,0.463
36.4,31799.2,34452.5,-0.9703,-1.3472,141.5,98.4,0.463
36.42,31770.2,34445.1,-1.1106,-1.3652,141.5,98.4,0.463
36.44,31862.1,34694.7,-0.6663,-0.7515,141.5,98.4,0.463
36.46,31957.5,35071.0,-0.2054,0.1734,141.5,98.4,0.463
36.48,32201.5,35323.8,0.9742,0.7951,141.5,98.4,0.463
36.5,32236.1,35697.5,1.1412,1.7139,141.5,98.4,0.463
36.52,32339.9,35741.5,1.6431,1.8221,141.5,98.4,0.463
36.54,32308.3,35633.2,1.4903,1.5558,141.5,98.4,0.463
36.56,32179.6,35568.9,0.8682,1.3976,141.5,98.4,0.463
36.58,32118.7,35263.1,0.574,0.6458,141.5,98.4,0.463
36.6,32203.8,35162.0,0.9852,0.3973,141.5,98.4,0.463
36.62,32140.9,35146.3,0.6811,0.3588,141.5,98.4,0.463
36.64,32052.0,35023.0,0.2517,0.0555,141.5,98.4,0.463
36.66,31985.9,35010.5,-0.068,0.0249,141.5,98.4,0.463
36.68,31911.0,34861.7,-0.4298,-0.3409,141.5,98.4,0.463
36.7,31963.0,34847.1,-0.1788,-0.3769,141.5,98.4,0.463
36.72,31782.4,34720.1,-1.0515,-0.6891,141.5,98.4,0.463
36.74,31918.1,34691.8,-0.3958,-0.7588,141.5,98.4,0.463
36.76,31879.7,34661.8,-0.5811,-0.8325,141.5,98.4,0.463
36.78,31863.6,34694.4,-0.659,-0.7523,141.5,98.4,0.463
36.8,31831.4,34527.4,-0.8145,-1.1628,141.5,98.4,0.463
36.82,31828.3,34495.2,-0.8294,-1.242,141.5,98.4,0.463
36.84,31711.2,34457.6,-1.3956,-1.3345,141.5,98.4,0.463
36.86,31805.7,34640.8,-0.9388,-0.8841,141.5,98.4,0.463
36.88,31925.6,34960.3,-0.3594,-0.0985,141.5,98.4,0.463
36.9,32067.3,35377.5,0.3254,0.9272,141.5,98.4,0.463
36.92,32270.0,35673.3,1.3051,1.6544,141.5,98.4,0.463
36.94,32374.8,35754.2,1.812,1.8532,141.5,98.4,0.463
36.96,32377.0,35743.1,1.8225,1.8259,141.5,98.4,0.463
36.98,32243.5,35617.2,1.1772,1.5164,141.5,98.4,0.463
37.0,32087.4,35305.5,0.4226,0.7501,141.5,98.4,0.463
37.02,32192.6,35188.9,0.9311,0.4633,141.5,98.4,0.463
37.04,31968.1,35102.9,-0.1542,0.2519,141.5,98.4,0.463
37.06,32019.2,35095.2,0.0931,0.2331,141.5,98.4,0.463
37.08,32076.7,34977.6,0.371,-0.0561,141.5,98.4,0.463
37.1,31963.0,34947.1,-0.1786,-0.1311,141.5,98.4,0.463
37.12,31940.2,34713.3,-0.2891,-0.7058,141.5,98.4,0.463
37.14,31851.8,34685.5,-0.7163,-0.7742,141.5,98.4,0.463
37.16,31833.1,34718.5,-0.8063,-0.6931,141.5,98.4,0.463
37.18,31851.0,34646.4,-0.7199,-0.8703,141.5,98.4,0.463
37.2,31898.2,34725.9,-0.4917,-0.6748,141.5,98.4,0.463
37.22,31787.3,34587.8,-1.028,-1.0146,141.5,98.4,0.463
37.24,31791.0,34496.0,-1.0098,-1.2401,141.5,98.4,0.463
37.26,31828.2,34526.7,-0.83,-1.1646,141.5,98.4,0.463
37.28,31824.2,34634.0,-0.8493,-0.9008,141.5,98.4,0.463
37.3,31879.8,34877.3,-0.5807,-0.3027,141.5,98.4,0.463
37.32,32056.2,35161.4,0.2719,0.3957,141.5,98.4,0.463
37.34,32179.7,35544.6,0.8688,1.338,141.5,98.4,0.463
37.36,32390.7,35747.1,1.8884,1.8358,141.5,98.4,0.463
37.38,32461.0,35815.6,2.2281,2.0043,141.5,98.4,0.463
37.4,32207.3,35644.9,1.0021,1.5846,141.5,98.4,0.463
37.42,32158.8,35339.6,0.7675,0.8339,141.5,98.4,0.463
37.44,32028.3,35239.0,0.1368,0.5866,141.5,98.4,0.463
37.46,32075.8,35186.0,0.3666,0.4563,141.5,98.4,0.463
37.48,32069.6,35035.6,0.3365,0.0866,141.5,98.4,0.463
37.5,31992.0,35023.0,-0.0382,0.0556,141.5,98.4,0.463
37.52,31994.6,34871.3,-0.0261,-0.3174,141.5,98.4,0.463
37.54,31876.2,34823.6,-0.5982,-0.4348,141.5,98.4,0.463
37.56,31878.4,34724.7,-0.5877,-0.6779,141.5,98.4,0.463
37.58,32021.5,34577.5,0.104,-1.0399,141.5,98.4,0.463
37.6,31827.8,34661.3,-0.8319,-0.8336,141.5,98.4,0.463
37.62,31840.8,34663.9,-0.7693,-0.8272,141.5,98.4,0.463
37.64,31814.8,34550.3,-0.895,-1.1066,141.5,98.4,0.463
37.66,31686.8,34426.0,-1.5137,-1.4123,141.5,98.4,0.463
37.68,31842.8,34513.8,-0.7594,-1.1963,141.5,98.4,0.463
37.7,31873.9,34578.0,-0.6095,-1.0386,141.5,98.4,0.463
37.72,31925.6,34816.0,-0.3596,-0.4533,141.5,98.4,0.463
37.74,32106.8,35131.6,0.5166,0.3226,141.5,98.4,0.463
37.76,32215.1,35431.9,1.0398,1.0608,141.5,98.4,0.463
37.78,32312.4,35787.3,1.5099,1.9345,141.5,98.4,0.463
37.8,32364.4,35757.2,1.7615,1.8607,141.5,98.4,0.463
37.82,32148.4,35632.0,0.7175,1.5527,141.5,98.4,0.463
37.84,32216.3,35321.8,1.0456,0.7901,141.5,98.4,0.463
37.86,32097.8,35277.8,0.4731,0.6821,141.5,98.4,0.463
37.88,32007.4,35105.1,0.0362,0.2575,141.5,98.4,0.463
37.9,32077.7,34989.6,0.3758,-0.0265,141.5,98.4,0.463
37.92,32026.2,35004.1,0.127,0.0091,141.5,98.4,0.463
37.94,32014.3,34930.5,0.0693,-0.1718,141.5,98.4,0.463
37.96,31917.1,34747.3,-0.4005,-0.6222,141.5,98.4,0.463
37.98,31952.8,34663.5,-0.228,-0.8283,141.5,98.4,0.463
38.0,31820.5,34706.2,-0.8671,-0.7234,141.5,98.4,0.463
38.02,31873.2,34621.3,-0.6128,-0.932,141.5,98.4,0.463
38.04,31812.2,34505.5,-0.9074,-1.2167,141.5,98.4,0.463
38.06,31803.1,34640.7,-0.9515,-0.8845,141.5,98.4,0.463
38.08,31807.0,34573.4,-0.9324,-1.0498,141.5,98.4,0.463
38.1,31789.4,34446.2,-1.0177,-1.3625,141.5,98.4,0.463
38.12,31840.4,34465.0,-0.771,-1.3164,141.5,98.4,0.463
38.14,31815.6,34696.3,-0.8911,-0.7477,141.5,98.4,0.463
38.16,32008.6,35126.6,0.0419,0.3102,141.5,98.4,0.463
38.18,32138.3,35400.4,0.6688,0.9835,141.5,98.4,0.463
38.2,32303.0,35654.8,1.4646,1.6089,141.5,98.4,0.463
38.22,32301.6,35703.6,1.4581,1.7288,141.5,98.4,0.463
38.24,32252.3,35678.9,1.2194,1.6681,141.5,98.4,0.463
38.26,32142.9,35352.8,0.6911,0.8664,141.5,98.4,0.463
38.28,32071.0,35286.7,0.3433,0.7038,141.5,98.4,0.463
38.3,32115.8,35103.6,0.5601,0.2537,141.5,98.4,0.463
38.32,32019.0,35076.5,0.092,0.187,141.5,98.4,0.463
38.34,32014.9,35083.5,0.0721,0.2043,141.5,98.4,0.463
38.36,32010.4,34987.5,0.0507,-0.0318,141.5,98.4,0.463
38.38,31953.9,34865.4,-0.2225,-0.3318,141.5,98.4,0.463
38.4,31912.7,34829.5,-0.4219,-0.4201,141.5,98.4,0.463
38.42,31883.1,34705.4,-0.5647,-0.7253,141.5,98.4,0.463
38.44,31865.6,34714.5,-0.6496,-0.703,141.5,98.4,0.463
38.46,31792.5,34720.6,-1.0025,-0.6878,141.5,98.4,0.463
38.48,31820.0,34551.1,-0.8698,-1.1046,141.5,98.4,0.463
38.5,31759.7,34528.1,-1.1611,-1.1612,141.5,98.4,0.463
38.52,31767.1,34403.0,-1.1256,-1.4689,141.5,98.4,0.463
38.54,31816.7,34482.4,-0.8859,-1.2736,141.5,98.4,0.463
38.56,31857.2,34548.6,-0.6902,-1.1108,141.5,98.4,0.463
38.58,32025.8,35037.9,0.1251,0.0921,141.5,98.4,0.463
38.6,32182.3,35375.4,0.8811,0.922,141.5,98.4,0.463
38.62,32320.2,35595.3,1.5477,1.4627,141.5,98.4,0.463
38.64,32258.6,35760.4,1.2501,1.8686,141.5,98.4,0.463
38.66,32308.6,35673.2,1.492,1.654,141.5,98.4,0.463
38.68,32197.9,35519.3,0.9567,1.2758,141.5,98.4,0.463
38.7,32156.3,35247.5,0.7555,0.6076,141.5,98.4,0.463
38.72,32069.4,35232.2,0.3356,0.5698,141.5,98.4,0.463
38.74,32033.8,35140.5,0.1635,0.3444,141.5,98.4,0.463
38.76,31949.1,35041.6,-0.2459,0.1012,141.5,98.4,0.463
38.78,32007.9,35032.0,0.0383,0.0776,141.5,98.4,0.463
38.8,31929.6,34915.1,-0.34,-0.2097,141.5,98.4,0.463
38.82,31926.5,34745.7,-0.3551,-0.6263,141.5,98.4,0.463
38.84,31869.9,34725.7,-0.6287,-0.6753,141.5,98.4,0.463
38.86,31865.9,34657.5,-0.6479,-0.8432,141.5,98.4,0.463
38.88,31886.9,34688.5,-0.5464,-0.7668,141.5,98.4,0.463
38.9,31876.3,34633.9,-0.5975,-0.9011,141.5,98.4,0.463
38.92,31861.3,34554.9,-0.6702,-1.0953,141.5,98.4,0.463
38.94,31860.8,34447.8,-0.6728,-1.3588,141.5,98.4,0.463
38.96,31809.3,34461.0,-0.9213,-1.3262,141.5,98.4,0.463
38.98,31955.5,34528.5,-0.2147,-1.1603,141.5,98.4,0.463
39.0,31967.9,34941.2,-0.1549,-0.1455,141.5,98.4,0.463
39.02,32138.9,35205.6,0.6716,0.5045,141.5,98.4,0.463
39.04,32219.7,35604.9,1.0621,1.4861,141.5,98.4,0.463
39.06,32217.2,35695.6,1.0502,1.7092,141.5,98.4,0.463
39.08,32280.0,35785.4,1.3536,1.9301,141.5,98.4,0.463
39.1,32251.2,35585.4,1.2141,1.4382,141.5,98.4,0.463
39.12,32158.7,35331.3,0.7672,0.8136,141.5,98.4,0.463
39.14,32092.3,35239.9,0.4463,0.5889,141.5,98.4,0.463
39.16,32111.3,35105.9,0.5382,0.2595,141.5,98.4,0.463
39.18,32157.9,35090.2,0.7635,0.2207,141.5,98.4,0.463
39.2,32025.9,34971.4,0.1252,-0.0713,141.5,98.4,0.463
39.22,31921.4,34867.5,-0.3798,-0.3267,141.5,98.4,0.463
39.24,31975.7,34965.6,-0.1172,-0.0856,141.5,98.4,0.463
39.26,31806.9,34732.0,-0.9331,-0.66,141.5,98.4,0.463
39.28,31837.3,34748.6,-0.7861,-0.6191,141.5,98.4,0.463
39.3,31834.1,34684.0,-0.8018,-0.7779,141.5,98.4,0.463
39.32,31802.9,34622.8,-0.9524,-0.9283,141.5,98.4,0.463
39.34,31843.0,34511.5,-0.7584,-1.2021,141.5,98.4,0.463
39.36,31754.8,34439.8,-1.1851,-1.3782,141.5,98.4,0.463
39.38,31766.7,34399.0,-1.1273,-1.4787,141.5,98.4,0.463
39.4,31813.3,34645.9,-0.9021,-0.8717,141.5,98.4,0.463
39.42,32050.4,34795.0,0.244,-0.5049,141.5,98.4,0.463
39.44,32105.9,35242.9,0.5121,0.5961,141.5,98.4,0.463
39.46,32241.9,35534.1,1.1693,1.3121,141.5,98.4,0.463
39.48,32364.4,35683.5,1.7614,1.6793,141.5,98.4,0.463
39.5,32269.1,35705.2,1.3011,1.7327,141.5,98.4,0.463
39.52,32224.4,35604.2,1.0847,1.4845,141.5,98.4,0.463
39.54,32173.2,35382.2,0.8371,0.9386,141.5,98.4,0.463
39.56,32102.9,35181.7,0.4977,0.4456,141.5,98.4,0.463
39.58,32124.2,35171.2,0.6003,0.4199,141.5,98.4,0.463
39.6,32077.4,35132.2,0.3743,0.3241,141.5,98.4,0.463
39.62,32001.3,34983.7,0.0063,-0.041,141.5,98.4,0.463
39.64,31938.6,34919.7,-0.2965,-0.1984,141.5,98.4,0.463
39.66,31928.2,34810.0,-0.347,-0.468,141.5,98.4,0.463
39.68,31888.0,34705.9,-0.541,-0.724,141.5,98.4,0.463
39.7,31857.2,34758.5,-0.6902,-0.5949,141.5,98.4,0.463
39.72,31870.4,34807.5,-0.6264,-0.4743,141.5,98.4,0.463
39.74,31910.0,34572.5,-0.4348,-1.0521,141.5,98.4,0.463
39.76,31889.5,34561.2,-0.5337,-1.0799,141.5,98.4,0.463
39.78,31794.7,34554.4,-0.9923,-1.0966,141.5,98.4,0.463
39.8,31779.7,34466.1,-1.0646,-1.3137,141.5,98.4,0.463
39.82,31751.1,34488.6,-1.2029,-1.2584,141.5,98.4,0.463
39.84,31921.8,34803.1,-0.3778,-0.4852,141.5,98.4,0.463
39.86,31989.1,35110.2,-0.0525,0.2699,141.5,98.4,0.463
39.88,32228.3,35468.4,1.1037,1.1505,141.5,98.4,0.463
39.9,32301.6,35668.9,1.4582,1.6435,141.5,98.4,0.463
39.92,32364.6,35693.5,1.7624,1.704,141.5,98.4,0.463
39.94,32304.6,35519.1,1.4724,1.2751,141.5,98.4,0.463
39.96,32168.0,35436.2,0.812,1.0715,141.5,98.4,0.463
39.98,32105.7,35239.9,0.5112,0.5887,141.5,98.4,0.463
40.0,32012.9,35189.5,0.0624,0.4648,141.5,98.4,0.463
40.02,32007.4,35116.7,0.0361,0.2859,141.5,98.4,0.463
40.04,32045.0,34987.0,0.2175,-0.033,141.5,98.4,0.463
40.06,31846.2,34858.8,-0.7431,-0.3481,141.5,98.4,0.463
40.08,31952.2,34925.5,-0.2309,-0.1841,141.5,98.4,0.463
40.1,31925.1,34786.1,-0.362,-0.527,141.5,98.4,0.463
40.12,31926.6,34729.8,-0.3545,-0.6653,141.5,98.4,0.463
40.14,31888.8,34647.7,-0.5371,-0.8672,141.5,98.4,0.463
40.16,31785.9,34657.9,-1.0348,-0.8421,141.5,98.4,0.463
40.18,31738.5,34627.7,-1.2636,-0.9163,141.5,98.4,0.463
40.2,31726.5,34543.7,-1.3216,-1.1228,141.5,98.4,0.463
40.22,31748.9,34462.9,-1.2133,-1.3216,141.5,98.4,0.463
40.24,31765.4,34483.7,-1.1339,-1.2704,141.5,98.4,0.463
40.26,31917.7,34719.7,-0.3974,-0.6902,141.5,98.4,0.463
40.28,32046.0,35081.0,0.2227,0.1981,141.5,98.4,0.463
40.3,32180.6,35487.8,0.8732,1.1982,141.5,98.4,0.463
40.32,32360.3,35679.7,1.7415,1.6702,141.5,98.4,0.463
40.34,32309.9,35784.4,1.4983,1.9275,141.5,98.4,0.463
40.36,32292.8,35728.3,1.4153,1.7895,141.5,98.4,0.463
40.38,32154.3,35437.0,0.746,1.0735,141.5,98.4,0.463
40.4,32219.6,35296.0,1.0614,0.7268,141.5,98.4,0.463
40.42,32064.3,35206.9,0.3108,0.5076,141.5,98.4,0.463
40.44,32082.3,35078.5,0.3981,0.192,141.5,98.4,0.463
40.46,32007.0,35073.2,0.0341,0.179,141.5,98.4,0.463
40.48,31984.3,34951.7,-0.0758,-0.1198,141.5,98.4,0.463
40.5,31876.6,34735.2,-0.5964,-0.6522,141.5,98.4,0.463
40.52,31912.3,34770.4,-0.4239,-0.5655,141.5,98.4,0.463
40.54,31851.5,34674.0,-0.7177,-0.8025,141.5,98.4,0.463
40.56,31866.9,34610.4,-0.6433,-0.9588,141.5,98.4,0.463
40.58,31799.7,34562.0,-0.9681,-1.0778,141.5,98.4,0.463
40.6,31792.9,34624.5,-1.0007,-0.9242,141.5,98.4,0.463
40.62,31752.0,34517.8,-1.1984,-1.1864,141.5,98.4,0.463
40.64,31709.0,34445.8,-1.4064,-1.3636,141.5,98.4,0.463
40.66,31768.3,34450.3,-1.1197,-1.3526,141.5,98.4,0.463
40.68,31808.6,34724.2,-0.9248,-0.6791,141.5,98.4,0.463
40.7,31995.5,35052.6,-0.0217,0.1284,141.5,98.4,0.463
40.72,32120.8,35366.4,0.584,0.8999,141.5,98.4,0.463
40.74,32225.2,35698.8,1.0888,1.717,141.5,98.4,0.463
40.76,32385.6,35830.2,1.8642,2.0402,141.5,98.4,0.463
40.78,32400.9,35721.2,1.9377,1.7721,141.5,98.4,0.463
40.8,32236.9,35536.8,1.1453,1.3189,141.5,98.4,0.463
40.82,32145.2,35308.5,0.702,0.7574,141.5,98.4,0.463
40.84,32172.7,35220.8,0.8351,0.5419,141.5,98.4,0.463
40.86,31976.7,35145.6,-0.1122,0.3569,141.5,98.4,0.463
40.88,31998.4,35054.3,-0.0077,0.1324,141.5,98.4,0.463
40.9,31974.6,35029.7,-0.1225,0.0721,141.5,98.4,0.463
40.92,31882.6,34957.0,-0.5674,-0.1067,141.5,98.4,0.463
40.94,31856.4,34849.8,-0.6941,-0.3704,141.5,98.4,0.463
40.96,31992.9,34667.9,-0.0343,-0.8175,141.5,98.4,0.463
40.98,31836.9,34628.2,-0.7879,-0.9152,141.5,98.4,0.463
41.0,31829.9,34684.5,-0.8219,-0.7767,141.5,98.4,0.463
41.02,31844.6,34642.0,-0.751,-0.8813,141.5,98.4,0.463
41.04,31801.5,34602.6,-0.9594,-0.9781,141.5,98.4,0.463
41.06,31717.0,34538.5,-1.3675,-1.1357,141.5,98.4,0.463
41.08,31779.3,34552.6,-1.0667,-1.101,141.5,98.4,0.463
41.1,31752.5,34532.5,-1.1961,-1.1503,141.5,98.4,0.463
41.12,31907.3,34929.6,-0.4478,-0.1741,141.5,98.4,0.463
41.14,32128.0,35220.6,0.6189,0.5413,141.5,98.4,0.463
41.16,32341.4,35692.9,1.6501,1.7025,141.5,98.4,0.463
41.18,32404.4,35680.4,1.9546,1.6717,141.5,98.4,0.463
41.2,32302.1,35825.5,1.4604,2.0286,141.5,98.4,0.463
41.22,32256.2,35593.1,1.2383,1.4572,141.5,98.4,0.463
41.24,32112.1,35285.2,0.5419,0.7002,141.5,98.4,0.463
41.26,32047.7,35306.0,0.2307,0.7514,141.5,98.4,0.463
41.28,32084.9,35190.8,0.4106,0.4682,141.5,98.4,0.463
41.3,31998.0,35040.2,-0.0094,0.0977,141.5,98.4,0.463
41.32,31987.0,35058.5,-0.0625,0.1429,141.5,98.4,0.463
41.34,31901.3,34923.3,-0.477,-0.1895,141.5,98.4,0.463
41.36,31974.0,34785.0,-0.1253,-0.5295,141.5,98.4,0.463
41.38,31886.7,34748.3,-0.5473,-0.6199,141.5,98.4,0.463
41.4,31789.2,34663.5,-1.0189,-0.8283,141.5,98.4,0.463
41.42,31877.2,34658.9,-0.5934,-0.8397,141.5,98.4,0.463
41.44,31768.4,34622.4,-1.119,-0.9295,141.5,98.4,0.463
41.46,31832.1,34601.5,-0.8112,-0.9807,141.5,98.4,0.463
41.48,31848.5,34490.2,-0.7322,-1.2544,141.5,98.4,0.463
41.5,31823.2,34552.7,-0.8543,-1.1007,141.5,98.4,0.463
41.52,31810.5,34438.0,-0.9155,-1.3828,141.5,98.4,0.463
41.54,31916.0,34856.5,-0.4058,-0.3538,141.5,98.4,0.463
41.56,32102.5,35260.5,0.4957,0.6395,141.5,98.4,0.463
41.58,32247.3,35503.1,1.1954,1.2359,141.5,98.4,0.463
41.6,32310.7,35700.8,1.5017,1.7219,141.5,98.4,0.463
41.62,32275.2,35693.3,1.3302,1.7034,141.5,98.4,0.463
41.64,32303.9,35544.2,1.4689,1.337,141.5,98.4,0.463
41.66,32181.8,35382.7,0.879,0.94,141.5,98.4,0.463
41.68,32031.1,35242.4,0.1504,0.595,141.5,98.4,0.463
41.7,32043.9,35161.6,0.2123,0.3962,141.5,98.4,0.463
41.72,31947.6,35062.6,-0.2532,0.1529,141.5,98.4,0.463
41.74,32038.6,34988.9,0.1869,-0.0284,141.5,98.4,0.463
41.76,31985.0,34932.5,-0.0722,-0.1669,141.5,98.4,0.463
41.78,31939.3,34824.3,-0.2934,-0.4331,141.5,98.4,0.463
41.8,31900.4,34723.7,-0.481,-0.6802,141.5,98.4,0.463
41.82,31899.1,34707.4,-0.4874,-0.7205,141.5,98.4,0.463
41.84,31880.0,34686.4,-0.5798,-0.7719,141.5,98.4,0.463
41.86,31859.2,34612.0,-0.6802,-0.9549,141.5,98.4,0.463
41.88,31778.7,34521.1,-1.0693,-1.1784,141.5,98.4,0.463
41.9,31669.4,34510.2,-1.5976,-1.2052,141.5,98.4,0.463
41.92,31809.3,34534.5,-0.9216,-1.1454,141.5,98.4,0.463
41.94,31852.1,34486.9,-0.7148,-1.2625,141.5,98.4,0.463
41.96,31854.7,34726.2,-0.7021,-0.6741,141.5,98.4,0.463
41.98,32001.5,35062.2,0.0076,0.152,141.5,98.4,0.463
42.0,32188.1,35496.3,0.9092,1.2193,141.5,98.4,0.463
42.02,32265.9,35703.9,1.2852,1.7296,141.5,98.4,0.463
42.04,32368.8,35625.6,1.7827,1.5371,141.5,98.4,0.463
42.06,32291.6,35527.9,1.4096,1.2969,141.5,98.4,0.463
42.08,32238.2,35359.5,1.1513,0.883,141.5,98.4,0.463
42.1,32081.6,35243.6,0.3944,0.598,141.5,98.4,0.463
42.12,32003.8,35145.7,0.0187,0.3571,141.5,98.4,0.463
42.14,32021.4,35104.0,0.1035,0.2546,141.5,98.4,0.463
42.16,31985.0,35163.3,-0.0724,0.4004,141.5,98.4,0.463
42.18,32014.5,35044.6,0.0701,0.1087,141.5,98.4,0.463
42.2,31884.9,34782.7,-0.5563,-0.5353,141.5,98.4,0.463
42.22,31919.7,34683.5,-0.3878,-0.7791,141.5,98.4,0.463
42.24,31803.0,34694.9,-0.9519,-0.7512,141.5,98.4,0.463
42.26,31866.7,34638.0,-0.6442,-0.891,141.5,98.4,0.463
42.28,31989.1,34604.3,-0.0524,-0.974,141.5,98.4,0.463
42.3,31799.1,34585.6,-0.9707,-1.0198,141.5,98.4,0.463
42.32,31807.3,34444.8,-0.9312,-1.366,141.5,98.4,0.463
42.34,31742.8,34463.3,-1.243,-1.3206,141.5,98.4,0.463
42.36,31779.2,34420.7,-1.0672,-1.4253,141.5,98.4,0.463
42.38,31913.6,34681.4,-0.4176,-0.7843,141.5,98.4,0.463
42.4,32061.5,35084.5,0.2974,0.2066,141.5,98.4,0.463
42.42,32236.3,35422.4,1.1423,1.0376,141.5,98.4,0.463
42.44,32329.9,35666.2,1.5947,1.6368,141.5,98.4,0.463
42.46,32330.5,35680.1,1.5977,1.6711,141.5,98.4,0.463
42.48,32261.0,35604.8,1.2619,1.4859,141.5,98.4,0.463
42.5,32189.1,35506.7,0.9141,1.2447,141.5,98.4,0.463
42.52,32133.6,35309.7,0.6458,0.7605,141.5,98.4,0.463
42.54,31960.3,35268.6,-0.1916,0.6595,141.5,98.4,0.463
42.56,32132.2,35025.8,0.6393,0.0625,141.5,98.4,0.463
42.58,32002.5,35073.8,0.0124,0.1805,141.5,98.4,0.463
42.6,32091.6,34989.2,0.443,-0.0275,141.5,98.4,0.463
42.62,31897.1,34869.0,-0.4969,-0.323,141.5,98.4,0.463
42.64,31797.3,34709.7,-0.9793,-0.7147,141.5,98.4,0.463
42.66,31881.6,34697.1,-0.5722,-0.7457,141.5,98.4,0.463
42.68,31798.9,34640.6,-0.972,-0.8846,141.5,98.4,0.463
42.7,31880.0,34752.7,-0.5797,-0.609,141.5,98.4,0.463
42.72,31898.1,34573.3,-0.4923,-1.05,141.5,98.4,0.463
42.74,31932.5,34551.4,-0.3262,-1.1039,141.5,98.4,0.463
42.76,31743.4,34472.2,-1.2399,-1.2987,141.5,98.4,0.463
42.78,31780.9,34543.7,-1.0586,-1.1229,141.5,98.4,0.463
42.8,31881.0,34666.7,-0.5749,-0.8205,141.5,98.4,0.463
42.82,32021.3,34956.6,0.1031,-0.1077,141.5,98.4,0.463
42.84,32131.0,35309.4,0.6332,0.7597,141.5,98.4,0.463
42.86,32313.1,35628.7,1.5137,1.5446,141.5,98.4,0.463
42.88,32361.7,35776.1,1.7484,1.9071,141.5,98.4,0.463
42.9,32251.1,35654.0,1.2138,1.6068,141.5,98.4,0.463
42.92,32222.3,35490.3,1.0748,1.2045,141.5,98.4,0.463
42.94,32232.8,35316.6,1.1256,0.7775,141.5,98.4,0.463
42.96,32069.0,35245.6,0.3337,0.6028,141.5,98.4,0.463
42.98,32054.5,35113.2,0.2635,0.2772,141.5,98.4,0.463
43.0,32035.1,35081.0,0.1698,0.1981,141.5,98.4,0.463
43.02,31992.4,34946.8,-0.0367,-0.1318,141.5,98.4,0.463
43.04,32058.1,34932.6,0.2812,-0.1668,141.5,98.4,0.463
43.06,31830.8,34801.3,-0.8178,-0.4895,141.5,98.4,0.463
43.08,31882.6,34663.5,-0.5673,-0.8284,141.5,98.4,0.463
43.1,31934.5,34615.6,-0.3165,-0.9462,141.5,98.4,0.463
43.12,31919.0,34732.9,-0.3913,-0.6577,141.5,98.4,0.463
43.14,31791.6,34556.7,-1.0072,-1.0908,141.5,98.4,0.463
43.16,31822.0,34551.8,-0.8601,-1.1029,141.5,98.4,0.463
43.18,31773.1,34513.4,-1.0967,-1.1973,141.5,98.4,0.463
43.2,31898.9,34447.7,-0.4882,-1.359,141.5,98.4,0.463
43.22,31810.8,34557.7,-0.9143,-1.0884,141.5,98.4,0.463
43.24,31932.7,34834.7,-0.325,-0.4075,141.5,98.4,0.463
43.26,32059.9,35256.3,0.2896,0.629,141.5,98.4,0.463
43.28,32323.7,35583.4,1.5646,1.4334,141.5,98.4,0.463
43.3,32316.1,35638.3,1.5281,1.5683,141.5,98.4,0.463
43.32,32365.9,35719.0,1.7685,1.7667,141.5,98.4,0.463
43.34,32210.1,35651.3,1.0156,1.6003,141.5,98.4,0.463
43.36,32108.5,35324.6,0.5248,0.7971,141.5,98.4,0.463
43.38,32104.7,35248.5,0.5063,0.61,141.5,98.4,0.463
43.4,32079.2,35115.2,0.3829,0.2821,141.5,98.4,0.463
43.42,32100.5,35080.2,0.4861,0.1961,141.5,98.4,0.463
43.44,31963.2,35045.9,-0.1774,0.1119,141.5,98.4,0.463
43.46,32037.5,34911.6,0.1816,-0.2184,141.5,98.4,0.463
43.48,31874.8,34839.6,-0.605,-0.3954,141.5,98.4,0.463
43.5,31892.4,34775.8,-0.52,-0.5523,141.5,98.4,0.463
43.52,31952.3,34651.2,-0.2305,-0.8584,141.5,98.4,0.463
43.54,31889.2,34730.6,-0.5352,-0.6634,141.5,98.4,0.463
43.56,31861.3,34698.3,-0.6703,-0.7429,141.5,98.4,0.463
43.58,31845.4,34584.5,-0.7471,-1.0225,141.5,98.4,0.463
43.6,31873.1,34475.9,-0.6132,-1.2896,141.5,98.4,0.463
43.62,31742.3,34308.7,-1.2455,-1.7005,141.5,98.4,0.463
43.64,31865.9,34529.1,-0.6478,-1.1587,141.5,98.4,0.463
43.66,31784.9,34855.9,-1.0397,-0.3552,141.5,98.4,0.463
43.68,32154.8,35180.7,0.7485,0.4434,141.5,98.4,0.463
43.7,32253.2,35453.2,1.224,1.1132,141.5,98.4,0.463
43.72,32340.6,35722.1,1.6466,1.7745,141.5,98.4,0.463
43.74,32292.4,35726.9,1.4135,1.7861,141.5,98.4,0.463
43.76,32316.0,35533.3,1.5274,1.3102,141.5,98.4,0.463
43.78,32097.6,35420.0,0.4721,1.0316,141.5,98.4,0.463
43.8,32157.5,35263.5,0.7614,0.6468,141.5,98.4,0.463
43.82,32141.3,35089.2,0.6833,0.2183,141.5,98.4,0.463
43.84,32072.9,35078.4,0.3526,0.1918,141.5,98.4,0.463
43.86,32087.9,35016.6,0.4252,0.0397,141.5,98.4,0.463
43.88,31990.5,34928.3,-0.0455,-0.1774,141.5,98.4,0.463
43.9,32049.4,34849.7,0.239,-0.3705,141.5,98.4,0.463
43.92,31876.6,34787.1,-0.5961,-0.5245,141.5,98.4,0.463
43.94,31841.4,34621.8,-0.7665,-0.9308,141.5,98.4,0.463
43.96,31890.9,34722.6,-0.5271,-0.6831,141.5,98.4,0.463
43.98,31819.2,34709.9,-0.8739,-0.7142,141.5,98.4,0.463
44.0,31883.6,34611.3,-0.5626,-0.9567,141.5,98.4,0.463
44.02,31796.4,34487.0,-0.9841,-1.2623,141.5,98.4,0.463
44.04,31772.2,34476.5,-1.1007,-1.2881,141.5,98.4,0.463
44.06,31801.6,34555.5,-0.9587,-1.0938,141.5,98.4,0.463
44.08,31864.0,34731.7,-0.6572,-0.6607,141.5,98.4,0.463
44.1,32017.2,35025.4,0.0833,0.0614,141.5,98.4,0.463
44.12,32228.2,35403.7,1.1029,0.9916,141.5,98.4,0.463
44.14,32328.2,35629.9,1.5867,1.5477,141.5,98.4,0.463
44.16,32371.8,35775.7,1.7975,1.9061,141.5,98.4,0.463
44.18,32228.3,35689.6,1.1037,1.6945,141.5,98.4,0.463
44.2,32185.0,35355.8,0.8945,0.8737,141.5,98.4,0.463
44.22,32136.5,35278.5,0.6601,0.6838,141.5,98.4,0.463
44.24,32006.1,35198.1,0.0295,0.4861,141.5,98.4,0.463
44.26,32083.7,35122.5,0.4049,0.3003,141.5,98.4,0.463
44.28,32039.0,35088.8,0.1886,0.2174,141.5,98.4,0.463
44.3,31869.9,34933.6,-0.6284,-0.1644,141.5,98.4,0.463
44.32,31845.7,34825.4,-0.7455,-0.4302,141.5,98.4,0.463
44.34,31919.9,34676.9,-0.3868,-0.7955,141.5,98.4,0.463
44.36,31893.3,34719.6,-0.5153,-0.6904,141.5,98.4,0.463
44.38,31925.2,34705.3,-0.3616,-0.7256,141.5,98.4,0.463
44.4,31795.6,34659.1,-0.9879,-0.8392,141.5,98.4,0.463
44.42,31770.0,34604.8,-1.1116,-0.9725,141.5,98.4,0.463
44.44,31820.0,34441.8,-0.8698,-1.3734,141.5,98.4,0.463
44.46,31732.8,34437.2,-1.2911,-1.3848,141.5,98.4,0.463
44.48,31709.2,34551.9,-1.4054,-1.1027,141.5,98.4,0.463
44.5,31892.7,34826.9,-0.5182,-0.4266,141.5,98.4,0.463
44.52,32027.8,35120.8,0.1345,0.2959,141.5,98.4,0.463
44.54,32101.1,35436.6,0.489,1.0723,141.5,98.4,0.463
44.56,32364.9,35584.9,1.7641,1.437,141.5,98.4,0.463
44.58,32328.4,35803.7,1.5876,1.9751,141.5,98.4,0.463
44.6,32347.4,35699.8,1.6794,1.7195,141.5,98.4,0.463
44.62,32228.3,35581.2,1.1037,1.4281,141.5,98.4,0.463
44.64,32106.4,35166.9,0.5144,0.4092,141.5,98.4,0.463
44.66,32091.3,35110.9,0.4413,0.2717,141.5,98.4,0.463
44.68,32008.3,35095.4,0.0403,0.2336,141.5,98.4,0.463
44.7,31996.7,35025.1,-0.0158,0.0608,141.5,98.4,0.463
44.72,31971.6,35017.4,-0.1371,0.0418,141.5,98.4,0.463
44.74,31989.1,34884.7,-0.0525,-0.2844,141.5,98.4,0.463
44.76,31869.6,34682.0,-0.6302,-0.7829,141.5,98.4,0.463
44.78,31762.5,34715.8,-1.1479,-0.6998,141.5,98.4,0.463
44.8,31844.7,34653.9,-0.7503,-0.8519,141.5,98.4,0.463
44.82,31858.2,34703.2,-0.6854,-0.7308,141.5,98.4,0.463
44.84,31866.9,34568.2,-0.6432,-1.0627,141.5,98.4,0.463
