timestamp,raw_red,raw_ir,filtered_red,filtered_ir,heart_rate,spo2,ac_dc_ratio
0.0,32110.4,35227.8,0.1408,0.2746,147.2,98.1,0.476
0.02,32175.5,35559.0,0.2301,0.6761,147.2,98.1,0.476
0.04,32288.4,35731.0,0.3847,0.8846,147.2,98.1,0.476
0.06,32324.5,35818.2,0.4341,0.9904,147.2,98.1,0.476
0.08,32282.5,35546.3,0.3766,0.6607,147.2,98.1,0.476
0.1,32180.3,35479.4,0.2366,0.5796,147.2,98.1,0.476
0.12,32074.7,35237.1,0.092,0.2858,147.2,98.1,0.476
0.14,32011.4,35127.4,0.0053,0.1528,147.2,98.1,0.476
0.16,32051.6,35096.5,0.0603,0.1154,147.2,98.1,0.476
0.18,31965.5,35084.9,-0.0576,0.1012,147.2,98.1,0.476
0.2,31929.8,34852.9,-0.1065,-0.18,147.2,98.1,0.476
0.22,32013.5,34736.7,0.0081,-0.321,147.2,98.1,0.476
0.24,31845.9,34713.9,-0.2214,-0.3486,147.2,98.1,0.476
0.26,31917.2,34699.8,-0.1238,-0.3657,147.2,98.1,0.476
0.28,31781.6,34681.8,-0.3094,-0.3874,147.2,98.1,0.476
0.3,31846.8,34561.7,-0.2202,-0.5331,147.2,98.1,0.476
0.32,31873.3,34568.0,-0.1838,-0.5254,147.2,98.1,0.476
0.34,31830.9,34426.7,-0.242,-0.6967,147.2,98.1,0.476
0.36,31797.3,34473.9,-0.288,-0.6396,147.2,98.1,0.476
0.38,31959.3,34718.4,-0.066,-0.3431,147.2,98.1,0.476
0.4,31984.6,34977.2,-0.0315,-0.0293,147.2,98.1,0.476
0.42,32153.3,35391.2,0.1997,0.4727,147.2,98.1,0.476
0.44,32304.2,35608.7,0.4063,0.7364,147.2,98.1,0.476
0.46,32341.6,35779.7,0.4575,0.9436,147.2,98.1,0.476
0.48,32232.9,35633.0,0.3087,0.7658,147.2,98.1,0.476
0.5,32196.6,35527.3,0.2589,0.6376,147.2,98.1,0.476
0.52,32113.1,35310.1,0.1445,0.3744,147.2,98.1,0.476
0.54,32148.4,35179.8,0.193,0.2163,147.2,98.1,0.476
0.56,32026.6,35122.2,0.0261,0.1464,147.2,98.1,0.476
0.58,32002.0,35019.3,-0.0076,0.0217,147.2,98.1,0.476
0.6,31986.3,34894.8,-0.029,-0.1292,147.2,98.1,0.476
0.62,31856.2,34744.6,-0.2073,-0.3113,147.2,98.1,0.476
0.64,31873.3,34664.6,-0.1839,-0.4083,147.2,98.1,0.476
0.66,31864.4,34630.4,-0.1961,-0.4498,147.2,98.1,0.476
0.68,31847.4,34651.5,-0.2193,-0.4242,147.2,98.1,0.476
0.7,31844.7,34595.4,-0.2231,-0.4922,147.2,98.1,0.476
0.72,31837.5,34501.9,-0.2329,-0.6056,147.2,98.1,0.476
0.74,31755.1,34469.6,-0.3458,-0.6447,147.2,98.1,0.476
0.76,31806.9,34480.7,-0.2749,-0.6313,147.2,98.1,0.476
0.78,31794.2,34538.1,-0.2923,-0.5617,147.2,98.1,0.476
0.8,31965.3,34934.5,-0.0579,-0.0811,147.2,98.1,0.476
0.82,32136.4,35196.7,0.1765,0.2368,147.2,98.1,0.476
0.84,32229.9,35510.3,0.3045,0.6171,147.2,98.1,0.476
0.86,32351.1,35799.3,0.4705,0.9675,147.2,98.1,0.476
0.88,32333.8,35714.9,0.4469,0.8652,147.2,98.1,0.476
0.9,32264.1,35456.9,0.3513,0.5523,147.2,98.1,0.476
0.92,32201.7,35465.1,0.266,0.5622,147.2,98.1,0.476
0.94,31996.2,35175.1,-0.0155,0.2106,147.2,98.1,0.476
0.96,31957.5,35074.3,-0.0685,0.0884,147.2,98.1,0.476
0.98,32042.1,34997.8,0.0473,-0.0043,147.2,98.1,0.476
1.0,31957.6,34906.8,-0.0684,-0.1147,147.2,98.1,0.476
1.02,31989.9,34815.7,-0.0242,-0.2251,147.2,98.1,0.476
1.04,31856.4,34672.9,-0.2071,-0.3983,147.2,98.1,0.476
1.06,31817.0,34763.1,-0.261,-0.2888,147.2,98.1,0.476
1.08,31863.5,34698.0,-0.1973,-0.3678,147.2,98.1,0.476
1.1,31882.3,34609.8,-0.1715,-0.4747,147.2,98.1,0.476
1.12,31903.0,34651.7,-0.1432,-0.4239,147.2,98.1,0.476
1.14,31789.3,34536.7,-0.2989,-0.5634,147.2,98.1,0.476
1.16,31800.5,34476.6,-0.2836,-0.6363,147.2,98.1,0.476
1.18,31745.3,34535.9,-0.3592,-0.5643,147.2,98.1,0.476
1.2,31850.3,34777.8,-0.2154,-0.2711,147.2,98.1,0.476
1.22,32109.1,35090.7,0.1391,0.1083,147.2,98.1,0.476
1.24,32244.7,35502.9,0.3249,0.6081,147.2,98.1,0.476
1.26,32378.5,35635.8,0.5081,0.7693,147.2,98.1,0.476
1.28,32322.5,35753.4,0.4314,0.9118,147.2,98.1,0.476
1.3,32196.8,35536.0,0.2592,0.6482,147.2,98.1,0.476
1.32,32258.6,35446.4,0.3439,0.5396,147.2,98.1,0.476
1.34,32047.9,35261.6,0.0553,0.3156,147.2,98.1,0.476
1.36,32141.1,35121.5,0.1829,0.1456,147.2,98.1,0.476
1.38,32084.3,35120.7,0.1051,0.1447,147.2,98.1,0.476
1.4,31970.8,34993.1,-0.0503,-0.0101,147.2,98.1,0.476
1.42,32006.2,34884.2,-0.0019,-0.1421,147.2,98.1,0.476
1.44,31875.9,34896.8,-0.1803,-0.1269,147.2,98.1,0.476
1.46,31972.7,34795.4,-0.0478,-0.2498,147.2,98.1,0.476
1.48,31911.7,34651.0,-0.1313,-0.4248,147.2,98.1,0.476
1.5,31861.0,34598.7,-0.2007,-0.4882,147.2,98.1,0.476
1.52,31784.8,34598.1,-0.3051,-0.489,147.2,98.1,0.476
1.54,31741.2,34551.8,-0.3649,-0.5451,147.2,98.1,0.476
1.56,31724.8,34420.6,-0.3873,-0.7041,147.2,98.1,0.476
1.58,31736.0,34565.5,-0.3719,-0.5285,147.2,98.1,0.476
1.6,31899.5,34643.4,-0.1479,-0.434,147.2,98.1,0.476
1.62,32005.0,35001.8,-0.0035,0.0005,147.2,98.1,0.476
1.64,32253.0,35359.3,0.3361,0.434,147.2,98.1,0.476
1.66,32351.7,35651.4,0.4714,0.7881,147.2,98.1,0.476
1.68,32242.0,35768.2,0.3211,0.9298,147.2,98.1,0.476
1.7,32231.3,35621.1,0.3064,0.7514,147.2,98.1,0.476
1.72,32283.8,35503.1,0.3784,0.6083,147.2,98.1,0.476
1.74,32089.2,35331.3,0.1118,0.4,147.2,98.1,0.476
1.76,32081.6,35142.0,0.1014,0.1705,147.2,98.1,0.476
1.78,31944.5,35012.4,-0.0863,0.0134,147.2,98.1,0.476
1.8,32072.5,35079.5,0.0889,0.0947,147.2,98.1,0.476
1.82,32051.5,34970.6,0.0602,-0.0374,147.2,98.1,0.476
1.84,31949.1,34839.8,-0.0801,-0.1959,147.2,98.1,0.476
1.86,31907.7,34807.4,-0.1368,-0.2352,147.2,98.1,0.476
1.88,31802.9,34754.2,-0.2803,-0.2996,147.2,98.1,0.476
1.9,31907.7,34596.3,-0.1368,-0.4911,147.2,98.1,0.476
1.92,31909.5,34615.5,-0.1342,-0.4679,147.2,98.1,0.476
1.94,31843.6,34577.7,-0.2246,-0.5137,147.2,98.1,0.476
1.96,31675.1,34485.4,-0.4554,-0.6257,147.2,98.1,0.476
1.98,31846.3,34475.0,-0.2209,-0.6383,147.2,98.1,0.476
2.0,31788.5,34562.0,-0.3,-0.5327,147.2,98.1,0.476
2.02,31874.9,34865.3,-0.1817,-0.165,147.2,98.1,0.476
2.04,32049.1,35161.1,0.0569,0.1937,147.2,98.1,0.476
2.06,32353.8,35645.3,0.4742,0.7807,147.2,98.1,0.476
2.08,32306.8,35676.7,0.4099,0.8188,147.2,98.1,0.476
2.1,32286.0,35759.9,0.3813,0.9197,147.2,98.1,0.476
2.12,32249.6,35613.9,0.3316,0.7427,147.2,98.1,0.476
2.14,32102.4,35403.5,0.13,0.4876,147.2,98.1,0.476
2.16,32120.1,35193.7,0.1542,0.2332,147.2,98.1,0.476
2.18,32094.7,35146.6,0.1193,0.1761,147.2,98.1,0.476
2.2,32109.9,34921.3,0.1403,-0.097,147.2,98.1,0.476
2.22,32031.6,35008.2,0.0329,0.0083,147.2,98.1,0.476
2.24,31954.1,34872.4,-0.0732,-0.1564,147.2,98.1,0.476
2.26,31865.4,34898.9,-0.1947,-0.1243,147.2,98.1,0.476
2.28,31851.3,34715.3,-0.214,-0.3468,147.2,98.1,0.476
2.3,31856.2,34669.5,-0.2073,-0.4024,147.2,98.1,0.476
2.32,31772.9,34726.7,-0.3214,-0.333,147.2,98.1,0.476
2.34,31815.0,34576.6,-0.2638,-0.515,147.2,98.1,0.476
2.36,31883.0,34464.6,-0.1706,-0.6508,147.2,98.1,0.476
2.38,31809.5,34413.3,-0.2713,-0.713,147.2,98.1,0.476
2.4,31756.4,34569.5,-0.344,-0.5237,147.2,98.1,0.476
2.42,31836.4,34749.8,-0.2343,-0.305,147.2,98.1,0.476
2.44,31956.9,35058.7,-0.0693,0.0695,147.2,98.1,0.476
2.46,32126.8,35450.7,0.1634,0.5448,147.2,98.1,0.476
2.48,32358.9,35719.9,0.4813,0.8711,147.2,98.1,0.476
2.5,32269.0,35801.0,0.358,0.9695,147.2,98.1,0.476
2.52,32298.5,35604.4,0.3984,0.7312,147.2,98.1,0.476
2.54,32260.1,35455.3,0.3459,0.5504,147.2,98.1,0.476
2.56,32185.9,35298.7,0.2443,0.3605,147.2,98.1,0.476
2.58,32121.5,35161.1,0.156,0.1937,147.2,98.1,0.476
2.6,32010.2,35075.0,0.0037,0.0892,147.2,98.1,0.476
2.62,32051.2,35033.8,0.0597,0.0393,147.2,98.1,0.476
2.64,32004.0,34956.1,-0.0049,-0.055,147.2,98.1,0.476
2.66,31825.1,34848.3,-0.2499,-0.1856,147.2,98.1,0.476
2.68,31950.9,34694.2,-0.0776,-0.3724,147.2,98.1,0.476
2.7,31885.6,34753.5,-0.167,-0.3005,147.2,98.1,0.476
2.72,31832.1,34483.4,-0.2404,-0.628,147.2,98.1,0.476
2.74,31798.1,34631.1,-0.2869,-0.4489,147.2,98.1,0.476
2.76,31822.6,34521.6,-0.2533,-0.5818,147.2,98.1,0.476
2.78,31860.5,34543.1,-0.2014,-0.5556,147.2,98.1,0.476
2.8,31807.7,34488.1,-0.2737,-0.6223,147.2,98.1,0.476
2.82,31818.5,34589.5,-0.2589,-0.4994,147.2,98.1,0.476
2.84,31901.8,34840.9,-0.1448,-0.1945,147.2,98.1,0.476
2.86,32069.0,35216.8,0.0842,0.2611,147.2,98.1,0.476
2.88,32209.4,35568.4,0.2765,0.6875,147.2,98.1,0.476
2.9,32315.0,35703.4,0.4211,0.8512,147.2,98.1,0.476
2.92,32304.6,35586.8,0.4069,0.7098,147.2,98.1,0.476
2.94,32198.1,35454.0,0.261,0.5488,147.2,98.1,0.476
2.96,32204.6,35375.1,0.2699,0.4531,147.2,98.1,0.476
2.98,32050.4,35090.8,0.0587,0.1085,147.2,98.1,0.476
3.0,32001.8,35135.1,-0.0078,0.1621,147.2,98.1,0.476
3.02,32087.8,35078.2,0.1099,0.0931,147.2,98.1,0.476
3.04,32013.3,34984.1,0.0079,-0.0209,147.2,98.1,0.476
3.06,31868.3,34945.6,-0.1908,-0.0676,147.2,98.1,0.476
3.08,31823.1,34731.7,-0.2527,-0.327,147.2,98.1,0.476
3.1,31764.2,34689.6,-0.3333,-0.378,147.2,98.1,0.476
3.12,31899.5,34654.4,-0.148,-0.4207,147.2,98.1,0.476
3.14,31872.2,34629.8,-0.1854,-0.4505,147.2,98.1,0.476
3.16,31808.8,34532.0,-0.2722,-0.5691,147.2,98.1,0.476
3.18,31772.8,34542.5,-0.3215,-0.5563,147.2,98.1,0.476
3.2,31839.0,34481.6,-0.2309,-0.6302,147.2,98.1,0.476
3.22,31776.9,34471.5,-0.3159,-0.6424,147.2,98.1,0.476
3.24,31986.1,34800.0,-0.0293,-0.2441,147.2,98.1,0.476
3.26,32024.7,35101.6,0.0235,0.1215,147.2,98.1,0.476
3.28,32177.2,35478.5,0.2324,0.5785,147.2,98.1,0.476
3.3,32357.8,35788.0,0.4798,0.9538,147.2,98.1,0.476
3.32,32367.1,35840.5,0.4925,1.0174,147.2,98.1,0.476
3.34,32284.1,35648.7,0.3788,0.7849,147.2,98.1,0.476
3.36,32155.8,35377.9,0.203,0.4566,147.2,98.1,0.476
3.38,31995.5,35268.9,-0.0165,0.3244,147.2,98.1,0.476
3.4,32147.4,35076.4,0.1916,0.091,147.2,98.1,0.476
3.42,31974.5,35074.2,-0.0452,0.0883,147.2,98.1,0.476
3.44,31978.5,35140.2,-0.0398,0.1683,147.2,98.1,0.476
3.46,31971.2,34958.7,-0.0498,-0.0517,147.2,98.1,0.476
3.48,31942.1,34829.0,-0.0897,-0.209,147.2,98.1,0.476
3.5,31925.2,34692.7,-0.1128,-0.3742,147.2,98.1,0.476
3.52,31873.7,34558.4,-0.1833,-0.5372,147.2,98.1,0.476
3.54,31785.3,34659.9,-0.3044,-0.414,147.2,98.1,0.476
3.56,31861.2,34632.7,-0.2004,-0.447,147.2,98.1,0.476
3.58,31715.1,34452.6,-0.4005,-0.6654,147.2,98.1,0.476
3.6,31728.2,34423.4,-0.3826,-0.7008,147.2,98.1,0.476
3.62,31688.1,34525.0,-0.4375,-0.5776,147.2,98.1,0.476
3.64,31886.3,34611.9,-0.1661,-0.4722,147.2,98.1,0.476
3.66,32016.2,34948.6,0.0119,-0.064,147.2,98.1,0.476
3.68,32082.6,35380.6,0.1029,0.4598,147.2,98.1,0.476
3.7,32212.2,35674.7,0.2803,0.8164,147.2,98.1,0.476
3.72,32375.1,35765.4,0.5035,0.9263,147.2,98.1,0.476
3.74,32300.1,35690.3,0.4007,0.8353,147.2,98.1,0.476
3.76,32207.1,35520.4,0.2733,0.6293,147.2,98.1,0.476
3.78,32101.7,35225.7,0.1289,0.272,147.2,98.1,0.476
3.8,32083.5,35141.5,0.104,0.1698,147.2,98.1,0.476
3.82,32155.3,35080.3,0.2024,0.0957,147.2,98.1,0.476
3.84,31960.8,35057.1,-0.064,0.0676,147.2,98.1,0.476
3.86,31989.6,34903.0,-0.0246,-0.1193,147.2,98.1,0.476
3.88,31901.3,34854.9,-0.1455,-0.1776,147.2,98.1,0.476
3.9,31975.0,34771.4,-0.0445,-0.2788,147.2,98.1,0.476
3.92,31871.8,34665.2,-0.1859,-0.4076,147.2,98.1,0.476
3.94,31918.7,34637.1,-0.1217,-0.4417,147.2,98.1,0.476
3.96,31885.0,34636.7,-0.1679,-0.4422,147.2,98.1,0.476
3.98,31897.7,34629.7,-0.1505,-0.4506,147.2,98.1,0.476
4.0,31697.6,34526.6,-0.4245,-0.5757,147.2,98.1,0.476
4.02,31772.7,34462.8,-0.3217,-0.653,147.2,98.1,0.476
4.04,31813.2,34542.4,-0.2662,-0.5565,147.2,98.1,0.476
4.06,32056.0,34894.3,0.0664,-0.1299,147.2,98.1,0.476
4.08,32152.2,35195.3,0.1981,0.2352,147.2,98.1,0.476
4.1,32270.0,35484.8,0.3594,0.5862,147.2,98.1,0.476
4.12,32334.7,35799.9,0.4481,0.9681,147.2,98.1,0.476
4.14,32321.1,35722.5,0.4294,0.8743,147.2,98.1,0.476
4.16,32283.6,35511.8,0.3781,0.6189,147.2,98.1,0.476
4.18,32179.4,35267.4,0.2354,0.3226,147.2,98.1,0.476
4.2,32085.4,35191.5,0.1067,0.2305,147.2,98.1,0.476
4.22,31994.7,35125.4,-0.0175,0.1503,147.2,98.1,0.476
4.24,32071.5,35130.2,0.0876,0.1562,147.2,98.1,0.476
4.26,31968.8,34886.5,-0.053,-0.1393,147.2,98.1,0.476
4.28,32047.7,34864.9,0.0549,-0.1654,147.2,98.1,0.476
4.3,31868.2,34793.2,-0.1908,-0.2525,147.2,98.1,0.476
4.32,31944.9,34719.7,-0.0859,-0.3415,147.2,98.1,0.476
4.34,31909.4,34643.1,-0.1344,-0.4344,147.2,98.1,0.476
4.36,31809.0,34648.1,-0.272,-0.4283,147.2,98.1,0.476
4.38,31833.4,34550.8,-0.2385,-0.5463,147.2,98.1,0.476
4.4,31782.8,34606.1,-0.3078,-0.4793,147.2,98.1,0.476
4.42,31771.0,34381.0,-0.3239,-0.7522,147.2,98.1,0.476
4.44,31838.7,34486.2,-0.2313,-0.6246,147.2,98.1,0.476
4.46,31886.8,34808.1,-0.1654,-0.2344,147.2,98.1,0.476
4.48,32038.1,35008.6,0.0418,0.0088,147.2,98.1,0.476
4.5,32194.8,35514.5,0.2565,0.6221,147.2,98.1,0.476
4.52,32264.0,35636.0,0.3513,0.7694,147.2,98.1,0.476
4.54,32304.1,35767.1,0.4062,0.9284,147.2,98.1,0.476
4.56,32261.4,35666.6,0.3477,0.8066,147.2,98.1,0.476
4.58,32142.0,35425.4,0.1841,0.5141,147.2,98.1,0.476
4.6,32049.4,35234.8,0.0573,0.283,147.2,98.1,0.476
4.62,32065.8,35089.7,0.0798,0.1071,147.2,98.1,0.476
4.64,32004.4,35132.0,-0.0043,0.1584,147.2,98.1,0.476
4.66,31999.0,34973.8,-0.0117,-0.0334,147.2,98.1,0.476
4.68,31976.7,34978.8,-0.0423,-0.0274,147.2,98.1,0.476
4.7,31865.6,34772.8,-0.1944,-0.2772,147.2,98.1,0.476
4.72,31938.9,34765.5,-0.094,-0.286,147.2,98.1,0.476
4.74,31874.7,34762.8,-0.182,-0.2893,147.2,98.1,0.476
4.76,31798.8,34695.7,-0.2859,-0.3706,147.2,98.1,0.476
4.78,31815.9,34592.6,-0.2625,-0.4956,147.2,98.1,0.476
4.8,31747.8,34516.8,-0.3558,-0.5875,147.2,98.1,0.476
4.82,31750.5,34460.2,-0.352,-0.6561,147.2,98.1,0.476
4.84,31796.2,34510.9,-0.2895,-0.5947,147.2,98.1,0.476
4.86,31796.0,34679.1,-0.2898,-0.3907,147.2,98.1,0.476
4.88,32020.6,35016.8,0.0179,0.0187,147.2,98.1,0.476
4.9,32113.8,35382.0,0.1455,0.4615,147.2,98.1,0.476
4.92,32358.6,35600.4,0.4809,0.7263,147.2,98.1,0.476
4.94,32376.8,35743.3,0.5058,0.8996,147.2,98.1,0.476
4.96,32299.7,35648.6,0.4002,0.7847,147.2,98.1,0.476
4.98,32175.8,35559.0,0.2304,0.6761,147.2,98.1,0.476
5.0,32170.2,35311.9,0.2228,0.3765,147.2,98.1,0.476
5.02,32090.6,35137.0,0.1138,0.1645,147.2,98.1,0.476
5.04,32063.2,35024.8,0.0763,0.0283,147.2,98.1,0.476
5.06,31987.3,35021.8,-0.0277,0.0248,147.2,98.1,0.476
5.08,31911.6,34919.0,-0.1314,-0.0999,147.2,98.1,0.476
5.1,32027.3,34847.3,0.027,-0.1868,147.2,98.1,0.476
5.12,31875.9,34755.7,-0.1803,-0.2979,147.2,98.1,0.476
5.14,31795.6,34681.8,-0.2902,-0.3874,147.2,98.1,0.476
5.16,31935.5,34715.2,-0.0987,-0.3469,147.2,98.1,0.476
5.18,31773.6,34607.9,-0.3204,-0.4771,147.2,98.1,0.476
5.2,31828.2,34484.7,-0.2457,-0.6265,147.2,98.1,0.476
5.22,31815.9,34534.0,-0.2624,-0.5667,147.2,98.1,0.476
5.24,31705.1,34487.7,-0.4143,-0.6228,147.2,98.1,0.476
5.26,31773.3,34558.7,-0.3208,-0.5367,147.2,98.1,0.476
5.28,31866.8,34783.3,-0.1928,-0.2644,147.2,98.1,0.476
5.3,32169.1,35113.7,0.2213,0.1362,147.2,98.1,0.476
5.32,32234.2,35525.9,0.3105,0.6359,147.2,98.1,0.476
5.34,32273.4,35804.6,0.3642,0.9739,147.2,98.1,0.476
5.36,32301.8,35710.9,0.403,0.8603,147.2,98.1,0.476
5.38,32244.2,35539.8,0.3242,0.6528,147.2,98.1,0.476
5.4,32164.7,35430.1,0.2152,0.5199,147.2,98.1,0.476
5.42,32048.9,35135.9,0.0567,0.1631,147.2,98.1,0.476
5.44,32044.5,35055.1,0.0505,0.0651,147.2,98.1,0.476
5.46,32088.9,35076.8,0.1115,0.0915,147.2,98.1,0.476
5.48,32032.0,35005.4,0.0335,0.0049,147.2,98.1,0.476
5.5,31914.0,34899.2,-0.1281,-0.1239,147.2,98.1,0.476
5.52,31961.6,34754.4,-0.063,-0.2995,147.2,98.1,0.476
5.54,31868.7,34690.4,-0.1901,-0.377,147.2,98.1,0.476
5.56,31921.9,34666.2,-0.1174,-0.4064,147.2,98.1,0.476
5.58,31798.0,34695.8,-0.287,-0.3705,147.2,98.1,0.476
5.6,31889.0,34569.3,-0.1624,-0.5238,147.2,98.1,0.476
5.62,31797.0,34421.6,-0.2884,-0.703,147.2,98.1,0.476
5.64,31751.5,34439.4,-0.3507,-0.6814,147.2,98.1,0.476
5.66,31777.2,34600.1,-0.3155,-0.4865,147.2,98.1,0.476
5.68,31874.5,34647.0,-0.1823,-0.4297,147.2,98.1,0.476
5.7,32055.7,35039.8,0.066,0.0465,147.2,98.1,0.476
5.72,32155.7,35325.1,0.203,0.3925,147.2,98.1,0.476
5.74,32345.4,35629.4,0.4627,0.7615,147.2,98.1,0.476
5.76,32331.5,35706.5,0.4437,0.855,147.2,98.1,0.476
5.78,32189.3,35643.4,0.249,0.7784,147.2,98.1,0.476
5.8,32147.3,35491.9,0.1915,0.5947,147.2,98.1,0.476
5.82,32086.2,35298.2,0.1077,0.3598,147.2,98.1,0.476
5.84,32104.7,35115.5,0.133,0.1384,147.2,98.1,0.476
5.86,32072.6,35110.4,0.0891,0.1322,147.2,98.1,0.476
5.88,31974.1,35046.8,-0.0459,0.0551,147.2,98.1,0.476
5.9,32089.3,34859.4,0.112,-0.1721,147.2,98.1,0.476
5.92,31966.6,34888.7,-0.056,-0.1367,147.2,98.1,0.476
5.94,32038.2,34773.6,0.042,-0.2762,147.2,98.1,0.476
5.96,31874.1,34680.7,-0.1828,-0.3888,147.2,98.1,0.476
5.98,31912.2,34653.5,-0.1307,-0.4217,147.2,98.1,0.476
6.0,31879.2,34676.1,-0.1758,-0.3944,147.2,98.1,0.476
6.02,31869.9,34627.6,-0.1885,-0.4532,147.2,98.1,0.476
6.04,31776.9,34407.3,-0.3158,-0.7203,147.2,98.1,0.476
6.06,31730.1,34477.1,-0.3801,-0.6357,147.2,98.1,0.476
6.08,31822.9,34547.6,-0.2529,-0.5502,147.2,98.1,0.476
6.1,31918.7,34916.7,-0.1216,-0.1026,147.2,98.1,0.476
6.12,32037.7,35342.7,0.0412,0.4138,147.2,98.1,0.476
6.14,32234.0,35588.4,0.3102,0.7117,147.2,98.1,0.476
6.16,32345.0,35820.7,0.4622,0.9934,147.2,98.1,0.476
6.18,32291.9,35673.3,0.3894,0.8147,147.2,98.1,0.476
6.2,32134.0,35519.0,0.1732,0.6276,147.2,98.1,0.476
6.22,32123.9,35317.7,0.1594,0.3835,147.2,98.1,0.476
6.24,32001.7,35183.7,-0.008,0.2211,147.2,98.1,0.476
6.26,32046.6,35198.2,0.0534,0.2386,147.2,98.1,0.476
6.28,31975.3,35120.1,-0.0442,0.1439,147.2,98.1,0.476
6.3,31936.0,34886.7,-0.098,-0.139,147.2,98.1,0.476
6.32,31888.1,34813.5,-0.1636,-0.2278,147.2,98.1,0.476
6.34,31966.4,34754.3,-0.0563,-0.2996,147.2,98.1,0.476
6.36,31822.0,34688.5,-0.2541,-0.3793,147.2,98.1,0.476
6.38,31852.9,34673.1,-0.2118,-0.3981,147.2,98.1,0.476
6.4,31816.4,34678.8,-0.2618,-0.3911,147.2,98.1,0.476
6.42,31809.8,34470.9,-0.2708,-0.6431,147.2,98.1,0.476
6.44,31877.3,34553.1,-0.1784,-0.5435,147.2,98.1,0.476
6.46,31732.2,34560.2,-0.3772,-0.5349,147.2,98.1,0.476
6.48,31730.8,34536.7,-0.3791,-0.5635,147.2,98.1,0.476
6.5,31888.2,34738.7,-0.1635,-0.3185,147.2,98.1,0.476
6.52,31962.9,35144.6,-0.0611,0.1736,147.2,98.1,0.476
6.54,32267.2,35484.0,0.3557,0.5852,147.2,98.1,0.476
6.56,32401.2,35713.8,0.5391,0.8637,147.2,98.1,0.476
6.58,32269.0,35777.4,0.3581,0.941,147.2,98.1,0.476
6.6,32231.7,35657.1,0.307,0.7951,147.2,98.1,0.476
6.62,32218.2,35420.0,0.2886,0.5076,147.2,98.1,0.476
6.64,32135.8,35270.8,0.1756,0.3267,147.2,98.1,0.476
6.66,32111.1,35150.7,0.1419,0.181,147.2,98.1,0.476
6.68,32023.0,35048.7,0.0212,0.0573,147.2,98.1,0.476
6.7,32029.3,35043.8,0.0298,0.0515,147.2,98.1,0.476
6.72,31992.9,34943.2,-0.0201,-0.0705,147.2,98.1,0.476
6.74,31886.5,34902.4,-0.1659,-0.12,147.2,98.1,0.476
6.76,31944.9,34683.1,-0.0858,-0.3858,147.2,98.1,0.476
6.78,31859.2,34650.9,-0.2032,-0.4249,147.2,98.1,0.476
6.8,31815.5,34652.6,-0.2631,-0.4229,147.2,98.1,0.476
6.82,31849.4,34692.8,-0.2167,-0.3742,147.2,98.1,0.476
6.84,31835.3,34557.9,-0.2359,-0.5377,147.2,98.1,0.476
6.86,31751.3,34512.0,-0.351,-0.5934,147.2,98.1,0.476
6.88,31742.9,34439.1,-0.3624,-0.6817,147.2,98.1,0.476
6.9,31871.0,34660.7,-0.187,-0.4131,147.2,98.1,0.476
6.92,31956.5,35007.4,-0.0699,0.0073,147.2,98.1,0.476
6.94,32047.4,35332.3,0.0545,0.4012,147.2,98.1,0.476
6.96,32301.0,35713.2,0.4019,0.863,147.2,98.1,0.476
6.98,32437.1,35719.1,0.5884,0.8702,147.2,98.1,0.476
7.0,32272.1,35674.3,0.3624,0.8159,147.2,98.1,0.476
7.02,32188.4,35472.8,0.2476,0.5716,147.2,98.1,0.476
7.04,32184.3,35266.8,0.2421,0.3218,147.2,98.1,0.476
7.06,32030.8,35109.9,0.0318,0.1316,147.2,98.1,0.476
7.08,32080.2,35111.6,0.0996,0.1337,147.2,98.1,0.476
7.1,31980.8,35017.2,-0.0366,0.0192,147.2,98.1,0.476
7.12,31861.8,34932.1,-0.1996,-0.0839,147.2,98.1,0.476
7.14,31901.2,34839.0,-0.1456,-0.1968,147.2,98.1,0.476
7.16,31844.7,34764.0,-0.2231,-0.2878,147.2,98.1,0.476
7.18,31841.3,34668.9,-0.2278,-0.4031,147.2,98.1,0.476
7.2,31930.2,34652.6,-0.106,-0.4229,147.2,98.1,0.476
7.22,31819.4,34637.1,-0.2578,-0.4417,147.2,98.1,0.476
7.24,31751.4,34542.3,-0.3508,-0.5566,147.2,98.1,0.476
7.26,31724.1,34534.0,-0.3883,-0.5666,147.2,98.1,0.476
7.28,31690.6,34454.9,-0.4341,-0.6626,147.2,98.1,0.476
7.3,31921.5,34593.2,-0.1179,-0.4949,147.2,98.1,0.476
7.32,32011.0,34865.2,0.0048,-0.1651,147.2,98.1,0.476
7.34,32038.2,35218.7,0.042,0.2635,147.2,98.1,0.476
7.36,32133.4,35614.7,0.1723,0.7436,147.2,98.1,0.476
7.38,32365.0,35777.9,0.4896,0.9415,147.2,98.1,0.476
7.4,32256.9,35721.4,0.3416,0.873,147.2,98.1,0.476
7.42,32276.0,35549.2,0.3677,0.6642,147.2,98.1,0.476
7.44,32102.5,35406.8,0.1301,0.4916,147.2,98.1,0.476
7.46,32116.6,35224.2,0.1494,0.2701,147.2,98.1,0.476
7.48,32079.3,35118.5,0.0983,0.1421,147.2,98.1,0.476
7.5,32079.6,35080.6,0.0988,0.096,147.2,98.1,0.476
7.52,31978.4,34936.0,-0.04,-0.0793,147.2,98.1,0.476
7.54,31882.1,34855.0,-0.1718,-0.1775,147.2,98.1,0.476
7.56,31886.0,34692.1,-0.1665,-0.375,147.2,98.1,0.476
7.58,31844.1,34692.8,-0.2238,-0.3741,147.2,98.1,0.476
7.6,31878.0,34639.5,-0.1774,-0.4387,147.2,98.1,0.476
7.62,31869.9,34634.0,-0.1885,-0.4454,147.2,98.1,0.476
7.64,31800.6,34599.7,-0.2835,-0.487,147.2,98.1,0.476
7.66,31763.4,34572.3,-0.3344,-0.5202,147.2,98.1,0.476
7.68,31772.1,34404.2,-0.3225,-0.724,147.2,98.1,0.476
7.7,31776.3,34569.7,-0.3168,-0.5234,147.2,98.1,0.476
7.72,31820.0,34730.0,-0.2568,-0.3291,147.2,98.1,0.476
7.74,32075.1,34990.9,0.0925,-0.0128,147.2,98.1,0.476
7.76,32213.1,35496.1,0.2816,0.5999,147.2,98.1,0.476
7.78,32269.7,35637.2,0.359,0.7709,147.2,98.1,0.476
7.8,32268.1,35760.8,0.3568,0.9208,147.2,98.1,0.476
7.82,32230.5,35599.1,0.3053,0.7248,147.2,98.1,0.476
7.84,32217.5,35486.0,0.2876,0.5876,147.2,98.1,0.476
7.86,32091.7,35192.5,0.1153,0.2318,147.2,98.1,0.476
7.88,32125.2,35161.7,0.1611,0.1944,147.2,98.1,0.476
7.9,32039.8,35103.2,0.0442,0.1234,147.2,98.1,0.476
7.92,32012.6,35122.8,0.0069,0.1472,147.2,98.1,0.476
7.94,31964.5,34869.3,-0.059,-0.1601,147.2,98.1,0.476
7.96,32001.2,34801.2,-0.0087,-0.2427,147.2,98.1,0.476
7.98,31879.8,34774.4,-0.175,-0.2752,147.2,98.1,0.476
8.0,31925.3,34653.6,-0.1126,-0.4217,147.2,98.1,0.476
8.02,31831.0,34640.2,-0.2418,-0.438,147.2,98.1,0.476
8.04,31860.1,34575.0,-0.202,-0.517,147.2,98.1,0.476
8.06,31719.2,34591.8,-0.3949,-0.4966,147.2,98.1,0.476
8.08,31786.1,34495.0,-0.3033,-0.6139,147.2,98.1,0.476
8.1,31779.7,34479.3,-0.312,-0.633,147.2,98.1,0.476
8.12,31737.9,34610.2,-0.3693,-0.4743,147.2,98.1,0.476
8.14,31972.8,34923.4,-0.0476,-0.0945,147.2,98.1,0.476
8.16,32108.1,35354.3,0.1377,0.4279,147.2,98.1,0.476
8.18,32291.7,35554.8,0.3892,0.671,147.2,98.1,0.476
8.2,32231.0,35784.5,0.306,0.9495,147.2,98.1,0.476
8.22,32316.7,35623.7,0.4235,0.7546,147.2,98.1,0.476
8.24,32258.9,35475.6,0.3443,0.575,147.2,98.1,0.476
8.26,32061.4,35281.2,0.0738,0.3393,147.2,98.1,0.476
8.28,32140.7,35218.0,0.1823,0.2626,147.2,98.1,0.476
8.3,32058.4,35224.1,0.0696,0.2701,147.2,98.1,0.476
8.32,32050.3,34941.2,0.0585,-0.073,147.2,98.1,0.476
8.34,32042.0,34937.5,0.0472,-0.0774,147.2,98.1,0.476
8.36,31894.2,34807.1,-0.1552,-0.2356,147.2,98.1,0.476
8.38,31824.4,34760.3,-0.2508,-0.2923,147.2,98.1,0.476
8.4,31932.3,34718.7,-0.1031,-0.3427,147.2,98.1,0.476
8.42,31866.5,34666.3,-0.1932,-0.4063,147.2,98.1,0.476
8.44,31911.4,34572.5,-0.1317,-0.5199,147.2,98.1,0.476
8.46,31797.0,34542.6,-0.2884,-0.5562,147.2,98.1,0.476
8.48,31770.1,34451.9,-0.3252,-0.6662,147.2,98.1,0.476
8.5,31782.5,34416.8,-0.3082,-0.7087,147.2,98.1,0.476
8.52,31850.6,34501.6,-0.215,-0.6059,147.2,98.1,0.476
8.54,31896.9,34773.0,-0.1515,-0.2769,147.2,98.1,0.476
8.56,32011.7,35135.4,0.0057,0.1625,147.2,98.1,0.476
8.58,32196.0,35452.1,0.2581,0.5465,147.2,98.1,0.476
8.6,32308.6,35634.8,0.4123,0.768,147.2,98.1,0.476
8.62,32281.8,35784.4,0.3756,0.9495,147.2,98.1,0.476
8.64,32313.4,35570.5,0.4189,0.6901,147.2,98.1,0.476
8.66,32100.2,35387.8,0.1269,0.4685,147.2,98.1,0.476
8.68,32009.9,35190.7,0.0032,0.2296,147.2,98.1,0.476
8.7,32046.5,35178.6,0.0533,0.2149,147.2,98.1,0.476
8.72,31956.9,35164.8,-0.0694,0.1981,147.2,98.1,0.476
8.74,32032.5,34996.8,0.0342,-0.0056,147.2,98.1,0.476
8.76,31903.0,34955.8,-0.1431,-0.0553,147.2,98.1,0.476
8.78,31903.6,34784.2,-0.1424,-0.2633,147.2,98.1,0.476
8.8,31896.9,34674.8,-0.1515,-0.396,147.2,98.1,0.476
8.82,31890.8,34662.1,-0.1599,-0.4114,147.2,98.1,0.476
8.84,31901.1,34693.3,-0.1459,-0.3735,147.2,98.1,0.476
8.86,31865.5,34648.6,-0.1946,-0.4278,147.2,98.1,0.476
8.88,31786.0,34436.7,-0.3034,-0.6847,147.2,98.1,0.476
8.9,31807.3,34390.7,-0.2742,-0.7405,147.2,98.1,0.476
8.92,31734.1,34528.2,-0.3745,-0.5738,147.2,98.1,0.476
8.94,31872.0,34596.5,-0.1856,-0.4909,147.2,98.1,0.476
8.96,32102.6,35012.1,0.1302,0.0131,147.2,98.1,0.476
8.98,32142.4,35405.8,0.1847,0.4904,147.2,98.1,0.476
9.0,32316.6,35676.7,0.4232,0.8188,147.2,98.1,0.476
9.02,32320.9,35766.7,0.4292,0.928,147.2,98.1,0.476
9.04,32196.5,35628.7,0.2588,0.7607,147.2,98.1,0.476
9.06,32208.6,35414.3,0.2753,0.5007,147.2,98.1,0.476
9.08,32082.1,35332.7,0.1021,0.4017,147.2,98.1,0.476
9.1,32085.2,35136.1,0.1064,0.1634,147.2,98.1,0.476
9.12,32048.0,35077.0,0.0554,0.0917,147.2,98.1,0.476
9.14,32022.2,35068.0,0.02,0.0807,147.2,98.1,0.476
9.16,31966.7,34867.1,-0.056,-0.1628,147.2,98.1,0.476
9.18,31920.3,34864.6,-0.1195,-0.1658,147.2,98.1,0.476
9.2,31901.0,34770.6,-0.1459,-0.2798,147.2,98.1,0.476
9.22,31935.3,34608.9,-0.0989,-0.4758,147.2,98.1,0.476
9.24,31866.5,34695.2,-0.1932,-0.3713,147.2,98.1,0.476
9.26,31879.2,34651.3,-0.1758,-0.4244,147.2,98.1,0.476
9.28,31796.2,34490.2,-0.2895,-0.6197,147.2,98.1,0.476
9.3,31801.5,34474.7,-0.2822,-0.6386,147.2,98.1,0.476
9.32,31795.7,34535.6,-0.2901,-0.5648,147.2,98.1,0.476
9.34,31720.4,34521.6,-0.3932,-0.5817,147.2,98.1,0.476
9.36,31987.5,34798.1,-0.0274,-0.2464,147.2,98.1,0.476
9.38,32064.2,35283.9,0.0775,0.3426,147.2,98.1,0.476
9.4,32153.8,35472.2,0.2003,0.5709,147.2,98.1,0.476
9.42,32313.8,35621.6,0.4194,0.752,147.2,98.1,0.476
9.44,32245.5,35735.9,0.3259,0.8906,147.2,98.1,0.476
9.46,32252.7,35521.5,0.3358,0.6306,147.2,98.1,0.476
9.48,32164.1,35387.3,0.2144,0.468,147.2,98.1,0.476
9.5,31929.7,35253.3,-0.1066,0.3055,147.2,98.1,0.476
9.52,32120.5,35086.9,0.1548,0.1037,147.2,98.1,0.476
9.54,32097.5,35073.6,0.1232,0.0876,147.2,98.1,0.476
9.56,32069.6,35005.3,0.0849,0.0047,147.2,98.1,0.476
9.58,31906.1,34906.8,-0.139,-0.1146,147.2,98.1,0.476
9.6,31862.3,34817.6,-0.1989,-0.2228,147.2,98.1,0.476
9.62,31860.6,34697.3,-0.2012,-0.3687,147.2,98.1,0.476
9.64,31793.8,34693.7,-0.2928,-0.3731,147.2,98.1,0.476
9.66,31902.1,34762.3,-0.1444,-0.2899,147.2,98.1,0.476
9.68,31812.0,34704.3,-0.2679,-0.3602,147.2,98.1,0.476
9.7,31734.2,34486.6,-0.3743,-0.6242,147.2,98.1,0.476
9.72,31720.6,34454.6,-0.393,-0.6629,147.2,98.1,0.476
9.74,31855.8,34577.7,-0.2078,-0.5138,147.2,98.1,0.476
9.76,31889.4,34685.6,-0.1618,-0.3828,147.2,98.1,0.476
9.78,31956.8,35061.4,-0.0695,0.0728,147.2,98.1,0.476
9.8,32238.0,35530.7,0.3156,0.6418,147.2,98.1,0.476
9.82,32305.6,35711.8,0.4083,0.8613,147.2,98.1,0.476
9.84,32392.4,35803.1,0.5271,0.9721,147.2,98.1,0.476
9.86,32355.5,35582.0,0.4766,0.704,147.2,98.1,0.476
9.88,32102.1,35524.6,0.1296,0.6344,147.2,98.1,0.476
9.9,32149.8,35253.9,0.1948,0.3061,147.2,98.1,0.476
9.92,32023.5,35132.0,0.0219,0.1583,147.2,98.1,0.476
9.94,32115.4,35084.3,0.1477,0.1005,147.2,98.1,0.476
9.96,31942.1,34918.1,-0.0896,-0.101,147.2,98.1,0.476
9.98,31985.4,34943.3,-0.0303,-0.0705,147.2,98.1,0.476
10.0,31913.0,34892.1,-0.1295,-0.1325,147.2,98.1,0.476
10.02,31906.6,34760.1,-0.1383,-0.2925,147.2,98.1,0.476
10.04,31829.0,34704.7,-0.2445,-0.3597,147.2,98.1,0.476
10.06,31762.2,34627.2,-0.3361,-0.4537,147.2,98.1,0.476
10.08,31841.0,34610.1,-0.2282,-0.4745,147.2,98.1,0.476
10.1,31853.6,34506.7,-0.2109,-0.5997,147.2,98.1,0.476
10.12,31726.5,34487.4,-0.3849,-0.6232,147.2,98.1,0.476
10.14,31733.3,34450.7,-0.3757,-0.6677,147.2,98.1,0.476
10.16,31801.6,34582.6,-0.2821,-0.5077,147.2,98.1,0.476
10.18,31959.2,34938.9,-0.0662,-0.0757,147.2,98.1,0.476
10.2,32124.4,35312.7,0.1601,0.3774,147.2,98.1,0.476
10.22,32270.1,35705.2,0.3596,0.8534,147.2,98.1,0.476
10.24,32311.2,35704.1,0.4158,0.852,147.2,98.1,0.476
10.26,32323.1,35659.7,0.4322,0.7982,147.2,98.1,0.476
10.28,32275.7,35573.9,0.3672,0.6942,147.2,98.1,0.476
10.3,32155.6,35260.0,0.2028,0.3135,147.2,98.1,0.476
10.32,32053.0,35079.8,0.0623,0.0951,147.2,98.1,0.476
10.34,32046.2,35110.7,0.0529,0.1326,147.2,98.1,0.476
10.36,32046.8,35041.6,0.0538,0.0487,147.2,98.1,0.476
10.38,32046.2,34987.2,0.0529,-0.0172,147.2,98.1,0.476
10.4,31981.2,34914.4,-0.036,-0.1054,147.2,98.1,0.476
10.42,31855.6,34757.6,-0.2081,-0.2956,147.2,98.1,0.476
10.44,31846.7,34640.4,-0.2203,-0.4377,147.2,98.1,0.476
10.46,31838.3,34615.5,-0.2318,-0.4678,147.2,98.1,0.476
10.48,31823.6,34663.7,-0.252,-0.4095,147.2,98.1,0.476
10.5,31807.0,34596.9,-0.2746,-0.4904,147.2,98.1,0.476
10.52,31816.5,34467.4,-0.2617,-0.6475,147.2,98.1,0.476
10.54,31745.1,34497.7,-0.3594,-0.6106,147.2,98.1,0.476
10.56,31817.3,34603.0,-0.2605,-0.483,147.2,98.1,0.476
10.58,31906.0,34851.1,-0.1391,-0.1822,147.2,98.1,0.476
10.6,32111.7,35127.6,0.1427,0.153,147.2,98.1,0.476
10.62,32240.5,35573.9,0.319,0.6942,147.2,98.1,0.476
10.64,32412.1,35713.5,0.5542,0.8634,147.2,98.1,0.476
10.66,32343.0,35743.2,0.4595,0.8994,147.2,98.1,0.476
10.68,32216.7,35557.9,0.2864,0.6748,147.2,98.1,0.476
10.7,32150.4,35366.3,0.1957,0.4425,147.2,98.1,0.476
10.72,32061.1,35232.3,0.0733,0.28,147.2,98.1,0.476
10.74,32052.6,35150.8,0.0617,0.1812,147.2,98.1,0.476
10.76,32111.0,35101.3,0.1417,0.1211,147.2,98.1,0.476
10.78,32026.9,34967.3,0.0265,-0.0413,147.2,98.1,0.476
10.8,31993.5,34901.3,-0.0193,-0.1213,147.2,98.1,0.476
10.82,31973.5,34778.3,-0.0467,-0.2705,147.2,98.1,0.476
10.84,31943.1,34715.1,-0.0882,-0.3472,147.2,98.1,0.476
10.86,31832.9,34706.5,-0.2393,-0.3575,147.2,98.1,0.476
10.88,31828.3,34681.9,-0.2455,-0.3874,147.2,98.1,0.476
10.9,31785.9,34588.0,-0.3036,-0.5012,147.2,98.1,0.476
10.92,31771.6,34453.4,-0.3232,-0.6644,147.2,98.1,0.476
10.94,31789.1,34512.3,-0.2991,-0.593,147.2,98.1,0.476
10.96,31808.1,34467.9,-0.2731,-0.6469,147.2,98.1,0.476
10.98,31838.0,34646.1,-0.2323,-0.4307,147.2,98.1,0.476
11.0,32072.7,35023.1,0.0892,0.0263,147.2,98.1,0.476
11.02,32159.7,35482.2,0.2084,0.5829,147.2,98.1,0.476
11.04,32262.5,35703.8,0.3492,0.8517,147.2,98.1,0.476
11.06,32252.0,35803.3,0.3348,0.9723,147.2,98.1,0.476
11.08,32261.8,35689.8,0.3482,0.8347,147.2,98.1,0.476
11.1,32250.7,35404.0,0.333,0.4881,147.2,98.1,0.476
11.12,32103.2,35358.7,0.131,0.4333,147.2,98.1,0.476
11.14,32097.1,35185.3,0.1226,0.223,147.2,98.1,0.476
11.16,32124.9,35099.4,0.1607,0.1188,147.2,98.1,0.476
11.18,32026.8,35059.0,0.0264,0.0698,147.2,98.1,0.476
11.2,32014.8,34922.1,0.01,-0.0961,147.2,98.1,0.476
11.22,31918.2,34790.0,-0.1223,-0.2562,147.2,98.1,0.476
11.24,31816.4,34826.3,-0.2618,-0.2123,147.2,98.1,0.476
11.26,31881.8,34660.0,-0.1723,-0.4139,147.2,98.1,0.476
11.28,31969.3,34662.7,-0.0524,-0.4107,147.2,98.1,0.476
11.3,31801.5,34577.1,-0.2823,-0.5144,147.2,98.1,0.476
11.32,31821.2,34589.8,-0.2553,-0.4991,147.2,98.1,0.476
11.34,31811.1,34538.5,-0.2691,-0.5612,147.2,98.1,0.476
11.36,31827.1,34623.8,-0.2472,-0.4578,147.2,98.1,0.476
11.38,31808.0,34529.7,-0.2733,-0.5719,147.2,98.1,0.476
11.4,31993.4,34833.4,-0.0194,-0.2037,147.2,98.1,0.476
11.42,32012.4,35204.3,0.0066,0.246,147.2,98.1,0.476
11.44,32251.7,35686.9,0.3344,0.8311,147.2,98.1,0.476
11.46,32311.7,35764.9,0.4166,0.9258,147.2,98.1,0.476
11.48,32289.3,35712.0,0.3859,0.8616,147.2,98.1,0.476
11.5,32241.2,35577.7,0.32,0.6988,147.2,98.1,0.476
11.52,32153.3,35270.2,0.1996,0.3259,147.2,98.1,0.476
11.54,32057.1,35132.6,0.0679,0.1591,147.2,98.1,0.476
11.56,32078.7,35087.4,0.0975,0.1043,147.2,98.1,0.476
11.58,31980.9,35074.1,-0.0365,0.0881,147.2,98.1,0.476
11.6,32017.3,34830.5,0.0133,-0.2072,147.2,98.1,0.476
11.62,31924.1,34896.6,-0.1142,-0.1271,147.2,98.1,0.476
11.64,31910.9,34791.9,-0.1324,-0.254,147.2,98.1,0.476
11.66,31852.7,34672.5,-0.212,-0.3987,147.2,98.1,0.476
11.68,31890.2,34683.1,-0.1607,-0.3859,147.2,98.1,0.476
11.7,31830.1,34729.8,-0.243,-0.3293,147.2,98.1,0.476
11.72,31852.4,34608.8,-0.2126,-0.476,147.2,98.1,0.476
11.74,31811.6,34518.7,-0.2683,-0.5852,147.2,98.1,0.476
11.76,31848.5,34391.3,-0.2179,-0.7397,147.2,98.1,0.476
11.78,31708.7,34577.3,-0.4093,-0.5141,147.2,98.1,0.476
11.8,31938.0,34756.9,-0.0952,-0.2964,147.2,98.1,0.476
11.82,32148.7,35099.3,0.1933,0.1188,147.2,98.1,0.476
11.84,32121.1,35493.0,0.1555,0.5961,147.2,98.1,0.476
11.86,32377.9,35783.4,0.5073,0.9482,147.2,98.1,0.476
11.88,32163.4,35824.3,0.2135,0.9978,147.2,98.1,0.476
11.9,32316.3,35544.0,0.4228,0.6579,147.2,98.1,0.476
11.92,32132.5,35422.0,0.1712,0.51,147.2,98.1,0.476
11.94,32118.5,35208.7,0.152,0.2514,147.2,98.1,0.476
11.96,32058.2,35159.7,0.0693,0.1919,147.2,98.1,0.476
11.98,31986.5,35035.0,-0.0288,0.0408,147.2,98.1,0.476
12.0,31968.0,34998.1,-0.0541,-0.004,147.2,98.1,0.476
12.02,31934.6,34870.4,-0.0999,-0.1588,147.2,98.1,0.476
12.04,31942.2,34794.7,-0.0895,-0.2506,147.2,98.1,0.476
12.06,31884.3,34689.7,-0.1688,-0.3779,147.2,98.1,0.476
12.08,31937.7,34702.1,-0.0956,-0.3629,147.2,98.1,0.476
12.1,31857.6,34628.9,-0.2054,-0.4516,147.2,98.1,0.476
12.12,31842.5,34630.3,-0.2261,-0.4499,147.2,98.1,0.476
12.14,31748.3,34538.2,-0.355,-0.5616,147.2,98.1,0.476
12.16,31808.9,34456.2,-0.2721,-0.661,147.2,98.1,0.476
12.18,31865.0,34518.1,-0.1952,-0.586,147.2,98.1,0.476
12.2,31997.1,34583.8,-0.0143,-0.5062,147.2,98.1,0.476
12.22,32061.5,34891.4,0.0739,-0.1334,147.2,98.1,0.476
12.24,32165.2,35340.3,0.2159,0.4109,147.2,98.1,0.476
12.26,32331.2,35557.5,0.4433,0.6743,147.2,98.1,0.476
12.28,32246.8,35824.7,0.3277,0.9983,147.2,98.1,0.476
12.3,32304.7,35668.6,0.407,0.809,147.2,98.1,0.476
12.32,32243.0,35548.7,0.3225,0.6637,147.2,98.1,0.476
12.34,32158.9,35243.0,0.2073,0.2929,147.2,98.1,0.476
12.36,32129.5,35178.6,0.167,0.2149,147.2,98.1,0.476
12.38,32041.1,35083.4,0.0459,0.0994,147.2,98.1,0.476
12.4,31994.1,34963.1,-0.0184,-0.0465,147.2,98.1,0.476
12.42,31900.3,34881.9,-0.1469,-0.1449,147.2,98.1,0.476
12.44,31927.4,34787.9,-0.1098,-0.2588,147.2,98.1,0.476
12.46,31885.5,34721.8,-0.1672,-0.339,147.2,98.1,0.476
12.48,31917.7,34671.6,-0.1231,-0.3998,147.2,98.1,0.476
12.5,31813.9,34763.1,-0.2652,-0.2889,147.2,98.1,0.476
12.52,31788.5,34654.1,-0.3,-0.4211,147.2,98.1,0.476
12.54,31815.3,34535.1,-0.2633,-0.5654,147.2,98.1,0.476
12.56,31769.2,34616.9,-0.3265,-0.4661,147.2,98.1,0.476
12.58,31755.5,34379.2,-0.3453,-0.7544,147.2,98.1,0.476
12.6,31663.6,34560.0,-0.4711,-0.5351,147.2,98.1,0.476
12.62,31924.6,34887.8,-0.1136,-0.1377,147.2,98.1,0.476
12.64,32046.6,35257.3,0.0535,0.3104,147.2,98.1,0.476
12.66,32300.2,35547.1,0.4009,0.6616,147.2,98.1,0.476
12.68,32278.8,35781.2,0.3715,0.9455,147.2,98.1,0.476
12.7,32334.6,35748.2,0.448,0.9055,147.2,98.1,0.476
12.72,32194.2,35618.0,0.2556,0.7476,147.2,98.1,0.476
12.74,32086.5,35357.2,0.1081,0.4314,147.2,98.1,0.476
12.76,32126.9,35271.6,0.1635,0.3277,147.2,98.1,0.476
12.78,32088.0,35062.0,0.1102,0.0735,147.2,98.1,0.476
12.8,32083.9,35023.1,0.1046,0.0264,147.2,98.1,0.476
12.82,31961.5,34983.9,-0.0631,-0.0212,147.2,98.1,0.476
12.84,31864.2,34976.3,-0.1964,-0.0304,147.2,98.1,0.476
12.86,31873.9,34802.6,-0.183,-0.241,147.2,98.1,0.476
12.88,31904.1,34683.3,-0.1417,-0.3856,147.2,98.1,0.476
12.9,31908.1,34665.4,-0.1362,-0.4074,147.2,98.1,0.476
12.92,31781.6,34652.8,-0.3095,-0.4226,147.2,98.1,0.476
12.94,31872.1,34513.7,-0.1855,-0.5913,147.2,98.1,0.476
12.96,31691.6,34462.8,-0.4328,-0.6531,147.2,98.1,0.476
12.98,31780.2,34440.4,-0.3114,-0.6802,147.2,98.1,0.476
13.0,31767.1,34537.7,-0.3293,-0.5622,147.2,98.1,0.476
13.02,31836.3,34725.4,-0.2345,-0.3347,147.2,98.1,0.476
13.04,32108.0,35063.9,0.1376,0.0758,147.2,98.1,0.476
13.06,32273.2,35380.4,0.3639,0.4595,147.2,98.1,0.476
13.08,32364.5,35763.5,0.489,0.924,147.2,98.1,0.476
13.1,32349.8,35712.4,0.4687,0.8622,147.2,98.1,0.476
13.12,32253.9,35569.8,0.3375,0.6892,147.2,98.1,0.476
13.14,32207.7,35466.0,0.2741,0.5633,147.2,98.1,0.476
13.16,32094.7,35284.5,0.1194,0.3433,147.2,98.1,0.476
13.18,32043.9,35216.7,0.0498,0.261,147.2,98.1,0.476
13.2,31991.3,35089.4,-0.0223,0.1067,147.2,98.1,0.476
13.22,32004.8,35006.8,-0.0038,0.0065,147.2,98.1,0.476
13.24,31954.6,34929.4,-0.0725,-0.0873,147.2,98.1,0.476
13.26,31938.8,34876.8,-0.0941,-0.1511,147.2,98.1,0.476
13.28,31941.6,34672.2,-0.0904,-0.3991,147.2,98.1,0.476
13.3,31898.0,34648.3,-0.1501,-0.4281,147.2,98.1,0.476
13.32,31865.5,34677.8,-0.1946,-0.3924,147.2,98.1,0.476
13.34,31836.9,34677.2,-0.2337,-0.393,147.2,98.1,0.476
13.36,31768.9,34562.8,-0.3269,-0.5318,147.2,98.1,0.476
13.38,31794.3,34534.8,-0.2921,-0.5658,147.2,98.1,0.476
13.4,31768.1,34420.3,-0.328,-0.7046,147.2,98.1,0.476
13.42,31754.3,34547.0,-0.3468,-0.5509,147.2,98.1,0.476
13.44,31995.6,35022.4,-0.0164,0.0255,147.2,98.1,0.476
13.46,32107.5,35294.7,0.1369,0.3556,147.2,98.1,0.476
13.48,32305.0,35536.8,0.4074,0.6492,147.2,98.1,0.476
13.5,32387.8,35712.8,0.5208,0.8626,147.2,98.1,0.476
13.52,32259.4,35708.4,0.345,0.8572,147.2,98.1,0.476
13.54,32252.6,35522.1,0.3356,0.6314,147.2,98.1,0.476
13.56,32249.2,35353.0,0.331,0.4263,147.2,98.1,0.476
13.58,32071.6,35127.4,0.0877,0.1528,147.2,98.1,0.476
13.6,32051.3,35026.1,0.0599,0.03,147.2,98.1,0.476
13.62,32035.0,35110.0,0.0376,0.1317,147.2,98.1,0.476
13.64,32002.9,34960.0,-0.0063,-0.0502,147.2,98.1,0.476
13.66,31907.6,34921.8,-0.1368,-0.0964,147.2,98.1,0.476
13.68,31893.3,34752.3,-0.1565,-0.302,147.2,98.1,0.476
13.7,31955.2,34780.1,-0.0716,-0.2683,147.2,98.1,0.476
13.72,31832.7,34709.5,-0.2395,-0.3539,147.2,98.1,0.476
13.74,31881.3,34635.5,-0.1729,-0.4436,147.2,98.1,0.476
13.76,31807.8,34589.4,-0.2736,-0.4995,147.2,98.1,0.476
13.78,31706.4,34416.2,-0.4125,-0.7095,147.2,98.1,0.476
13.8,31812.6,34446.1,-0.2671,-0.6732,147.2,98.1,0.476
13.82,31853.2,34530.5,-0.2114,-0.571,147.2,98.1,0.476
13.84,31899.0,34779.4,-0.1487,-0.2692,147.2,98.1,0.476
13.86,32088.5,35145.5,0.1109,0.1748,147.2,98.1,0.476
13.88,32238.3,35519.1,0.316,0.6277,147.2,98.1,0.476
13.9,32291.9,35749.0,0.3895,0.9064,147.2,98.1,0.476
13.92,32262.5,35694.0,0.3492,0.8398,147.2,98.1,0.476
13.94,32208.6,35555.0,0.2754,0.6713,147.2,98.1,0.476
13.96,32106.0,35391.6,0.1349,0.4731,147.2,98.1,0.476
13.98,32127.8,35176.5,0.1648,0.2124,147.2,98.1,0.476
14.0,32094.3,35129.9,0.1188,0.1558,147.2,98.1,0.476
14.02,32003.3,35073.1,-0.0058,0.087,147.2,98.1,0.476
14.04,31983.4,35082.5,-0.033,0.0983,147.2,98.1,0.476
14.06,31962.4,34871.0,-0.0618,-0.1581,147.2,98.1,0.476
14.08,31855.5,34795.2,-0.2083,-0.25,147.2,98.1,0.476
14.1,31906.8,34737.4,-0.138,-0.3201,147.2,98.1,0.476
14.12,31842.5,34691.6,-0.226,-0.3756,147.2,98.1,0.476
14.14,31789.5,34585.8,-0.2987,-0.5038,147.2,98.1,0.476
14.16,31789.2,34536.3,-0.299,-0.5638,147.2,98.1,0.476
14.18,31745.2,34528.4,-0.3593,-0.5734,147.2,98.1,0.476
14.2,31875.9,34479.6,-0.1803,-0.6326,147.2,98.1,0.476
14.22,31698.9,34483.9,-0.4227,-0.6275,147.2,98.1,0.476
14.24,31893.0,34693.7,-0.1569,-0.373,147.2,98.1,0.476
14.26,32013.9,34950.9,0.0087,-0.0612,147.2,98.1,0.476
14.28,32216.5,35454.8,0.2861,0.5498,147.2,98.1,0.476
14.3,32221.3,35656.1,0.2928,0.7938,147.2,98.1,0.476
14.32,32368.6,35786.4,0.4945,0.9518,147.2,98.1,0.476
14.34,32323.9,35652.0,0.4333,0.7888,147.2,98.1,0.476
14.36,32210.4,35494.5,0.2779,0.5979,147.2,98.1,0.476
14.38,32114.3,35272.1,0.1462,0.3283,147.2,98.1,0.476
14.4,32045.4,35137.7,0.0519,0.1652,147.2,98.1,0.476
14.42,32049.4,35137.7,0.0573,0.1653,147.2,98.1,0.476
14.44,32050.9,34986.7,0.0594,-0.0178,147.2,98.1,0.476
14.46,32001.8,34926.9,-0.0078,-0.0902,147.2,98.1,0.476
14.48,31925.6,34780.9,-0.1122,-0.2673,147.2,98.1,0.476
14.5,31948.7,34727.9,-0.0806,-0.3316,147.2,98.1,0.476
14.52,31875.9,34635.9,-0.1803,-0.4431,147.2,98.1,0.476
14.54,31851.4,34592.7,-0.2139,-0.4955,147.2,98.1,0.476
14.56,31828.2,34702.0,-0.2457,-0.3629,147.2,98.1,0.476
14.58,31878.1,34607.6,-0.1773,-0.4774,147.2,98.1,0.476
14.6,31814.3,34396.5,-0.2647,-0.7334,147.2,98.1,0.476
14.62,31668.9,34534.7,-0.4638,-0.5659,147.2,98.1,0.476
14.64,31716.0,34645.5,-0.3993,-0.4315,147.2,98.1,0.476
14.66,31822.3,34729.9,-0.2537,-0.3292,147.2,98.1,0.476
14.68,32031.0,35232.6,0.0322,0.2804,147.2,98.1,0.476
14.7,32312.9,35573.3,0.4182,0.6934,147.2,98.1,0.476
14.72,32215.5,35760.0,0.2848,0.9198,147.2,98.1,0.476
14.74,32379.1,35696.8,0.5089,0.8432,147.2,98.1,0.476
14.76,32257.1,35620.2,0.3418,0.7503,147.2,98.1,0.476
14.78,32117.8,35350.8,0.1511,0.4237,147.2,98.1,0.476
14.8,32147.7,35153.3,0.192,0.1842,147.2,98.1,0.476
14.82,31972.3,35218.9,-0.0482,0.2638,147.2,98.1,0.476
14.84,32027.3,35104.6,0.0271,0.1251,147.2,98.1,0.476
14.86,32038.8,35039.7,0.0428,0.0465,147.2,98.1,0.476
14.88,31924.3,34864.3,-0.1141,-0.1662,147.2,98.1,0.476
14.9,31971.9,34736.8,-0.0488,-0.3208,147.2,98.1,0.476
14.92,31840.5,34657.7,-0.2288,-0.4166,147.2,98.1,0.476
14.94,31877.4,34756.2,-0.1783,-0.2973,147.2,98.1,0.476
14.96,31885.4,34720.2,-0.1673,-0.3409,147.2,98.1,0.476
14.98,31875.9,34562.3,-0.1803,-0.5323,147.2,98.1,0.476
15.0,31763.1,34496.1,-0.3348,-0.6127,147.2,98.1,0.476
15.02,31853.5,34426.1,-0.2109,-0.6975,147.2,98.1,0.476
15.04,31737.4,34421.9,-0.37,-0.7026,147.2,98.1,0.476
15.06,31866.1,34703.1,-0.1938,-0.3617,147.2,98.1,0.476
15.08,32051.6,35041.9,0.0604,0.0492,147.2,98.1,0.476
15.1,32171.8,35415.8,0.2249,0.5024,147.2,98.1,0.476
15.12,32282.4,35659.6,0.3765,0.7981,147.2,98.1,0.476
15.14,32284.7,35795.2,0.3796,0.9625,147.2,98.1,0.476
15.16,32275.4,35657.3,0.3669,0.7953,147.2,98.1,0.476
15.18,32097.0,35405.9,0.1225,0.4904,147.2,98.1,0.476
15.2,32080.3,35224.1,0.0997,0.27,147.2,98.1,0.476
15.22,31974.9,35066.0,-0.0447,0.0783,147.2,98.1,0.476
15.24,32043.0,35107.1,0.0485,0.1282,147.2,98.1,0.476
15.26,32025.7,34943.1,0.0249,-0.0707,147.2,98.1,0.476
15.28,31918.5,34976.0,-0.1219,-0.0307,147.2,98.1,0.476
15.3,31843.8,34752.3,-0.2243,-0.302,147.2,98.1,0.476
15.32,31919.6,34737.4,-0.1204,-0.3201,147.2,98.1,0.476
15.34,31798.6,34625.7,-0.2862,-0.4555,147.2,98.1,0.476
15.36,31827.6,34621.3,-0.2465,-0.4609,147.2,98.1,0.476
15.38,31822.2,34633.2,-0.2538,-0.4464,147.2,98.1,0.476
15.4,31796.6,34503.7,-0.289,-0.6035,147.2,98.1,0.476
15.42,31767.6,34410.3,-0.3287,-0.7166,147.2,98.1,0.476
15.44,31711.0,34413.8,-0.4062,-0.7125,147.2,98.1,0.476
15.46,31727.0,34588.0,-0.3843,-0.5012,147.2,98.1,0.476
15.48,31935.4,34916.6,-0.0988,-0.1028,147.2,98.1,0.476
15.5,32181.5,35276.5,0.2382,0.3335,147.2,98.1,0.476
15.52,32282.5,35637.3,0.3766,0.771,147.2,98.1,0.476
15.54,32394.3,35782.7,0.5298,0.9474,147.2,98.1,0.476
15.56,32241.4,35725.9,0.3203,0.8784,147.2,98.1,0.476
15.58,32196.8,35476.5,0.2592,0.5761,147.2,98.1,0.476
15.6,32186.1,35204.0,0.2445,0.2457,147.2,98.1,0.476
15.62,32065.5,35235.3,0.0793,0.2836,147.2,98.1,0.476
15.64,32036.9,35143.0,0.0402,0.1717,147.2,98.1,0.476
15.66,32065.6,35020.8,0.0796,0.0235,147.2,98.1,0.476
15.68,32002.4,34961.2,-0.0071,-0.0487,147.2,98.1,0.476
15.7,31799.3,34921.9,-0.2852,-0.0964,147.2,98.1,0.476
15.72,31811.5,34773.3,-0.2685,-0.2765,147.2,98.1,0.476
15.74,31780.0,34743.4,-0.3117,-0.3128,147.2,98.1,0.476
15.76,31798.1,34607.3,-0.2868,-0.4778,147.2,98.1,0.476
15.78,31754.1,34692.1,-0.3471,-0.3749,147.2,98.1,0.476
15.8,31804.9,34520.4,-0.2776,-0.5831,147.2,98.1,0.476
15.82,31720.9,34540.5,-0.3926,-0.5588,147.2,98.1,0.476
15.84,31736.6,34460.8,-0.3711,-0.6555,147.2,98.1,0.476
15.86,31717.6,34550.4,-0.3972,-0.5468,147.2,98.1,0.476
15.88,31989.0,34812.1,-0.0254,-0.2295,147.2,98.1,0.476
15.9,32090.9,35096.2,0.1141,0.115,147.2,98.1,0.476
15.92,32181.1,35464.6,0.2377,0.5616,147.2,98.1,0.476
15.94,32264.8,35765.6,0.3523,0.9266,147.2,98.1,0.476
15.96,32345.0,35832.5,0.4622,1.0077,147.2,98.1,0.476
15.98,32244.6,35574.0,0.3247,0.6943,147.2,98.1,0.476
16.0,32145.2,35357.0,0.1885,0.4312,147.2,98.1,0.476
16.02,32034.1,35215.4,0.0363,0.2595,147.2,98.1,0.476
16.04,31963.2,35041.1,-0.0607,0.0481,147.2,98.1,0.476
16.06,32008.6,35080.6,0.0015,0.096,147.2,98.1,0.476
16.08,31980.8,35014.2,-0.0366,0.0156,147.2,98.1,0.476
16.1,31963.7,34888.8,-0.0601,-0.1364,147.2,98.1,0.476
16.12,31895.3,34787.8,-0.1537,-0.259,147.2,98.1,0.476
16.14,31842.3,34716.9,-0.2264,-0.3449,147.2,98.1,0.476
16.16,31851.3,34678.2,-0.214,-0.3918,147.2,98.1,0.476
16.18,31879.3,34644.0,-0.1757,-0.4334,147.2,98.1,0.476
16.2,31814.7,34597.0,-0.2642,-0.4903,147.2,98.1,0.476
16.22,31836.7,34525.0,-0.2339,-0.5776,147.2,98.1,0.476
16.24,31743.1,34492.9,-0.3622,-0.6165,147.2,98.1,0.476
16.26,31789.2,34517.5,-0.2991,-0.5866,147.2,98.1,0.476
16.28,31869.2,34662.2,-0.1894,-0.4112,147.2,98.1,0.476
16.3,32016.0,34952.8,0.0116,-0.059,147.2,98.1,0.476
16.32,32169.7,35391.2,0.2221,0.4727,147.2,98.1,0.476
16.34,32269.8,35610.2,0.3592,0.7382,147.2,98.1,0.476
16.36,32404.8,35662.7,0.5442,0.8018,147.2,98.1,0.476
16.38,32284.6,35734.3,0.3794,0.8887,147.2,98.1,0.476
16.4,32246.2,35440.9,0.3268,0.5329,147.2,98.1,0.476
16.42,32084.8,35335.8,0.1058,0.4055,147.2,98.1,0.476
16.44,32071.5,35124.8,0.0876,0.1496,147.2,98.1,0.476
16.46,32048.8,35128.4,0.0564,0.154,147.2,98.1,0.476
16.48,32067.7,35125.8,0.0824,0.1509,147.2,98.1,0.476
16.5,31986.6,34977.5,-0.0287,-0.0289,147.2,98.1,0.476
16.52,31923.0,34795.8,-0.1159,-0.2493,147.2,98.1,0.476
16.54,31978.0,34734.6,-0.0404,-0.3235,147.2,98.1,0.476
16.56,31852.8,34726.3,-0.212,-0.3335,147.2,98.1,0.476
16.58,31876.7,34609.0,-0.1792,-0.4758,147.2,98.1,0.476
16.6,31877.8,34657.6,-0.1777,-0.4168,147.2,98.1,0.476
16.62,31755.6,34525.7,-0.3451,-0.5767,147.2,98.1,0.476
16.64,31787.8,34394.5,-0.301,-0.7358,147.2,98.1,0.476
16.66,31767.2,34449.1,-0.3292,-0.6696,147.2,98.1,0.476
16.68,31959.0,34619.8,-0.0664,-0.4626,147.2,98.1,0.476
16.7,31992.8,34970.0,-0.0202,-0.038,147.2,98.1,0.476
16.72,32018.3,35244.4,0.0147,0.2947,147.2,98.1,0.476
16.74,32283.9,35592.3,0.3785,0.7164,147.2,98.1,0.476
16.76,32377.4,35780.5,0.5066,0.9447,147.2,98.1,0.476
16.78,32339.3,35731.6,0.4544,0.8854,147.2,98.1,0.476
16.8,32154.7,35512.2,0.2016,0.6194,147.2,98.1,0.476
16.82,32110.2,35351.7,0.1407,0.4248,147.2,98.1,0.476
16.84,32084.4,35184.4,0.1052,0.2219,147.2,98.1,0.476
16.86,32141.5,35150.4,0.1834,0.1807,147.2,98.1,0.476
16.88,32089.2,35145.9,0.1119,0.1753,147.2,98.1,0.476
16.9,31956.4,34943.6,-0.0701,-0.07,147.2,98.1,0.476
16.92,32095.8,34871.7,0.1209,-0.1572,147.2,98.1,0.476
16.94,31908.4,34819.3,-0.1358,-0.2208,147.2,98.1,0.476
16.96,31928.8,34711.2,-0.1079,-0.3518,147.2,98.1,0.476
16.98,31914.2,34744.6,-0.1279,-0.3113,147.2,98.1,0.476
17.0,31801.1,34547.2,-0.2828,-0.5507,147.2,98.1,0.476
17.02,31881.6,34565.2,-0.1725,-0.5289,147.2,98.1,0.476
17.04,31771.9,34467.2,-0.3228,-0.6477,147.2,98.1,0.476
17.06,31776.0,34454.7,-0.3172,-0.6628,147.2,98.1,0.476
17.08,31756.4,34506.5,-0.344,-0.6,147.2,98.1,0.476
17.1,31894.3,34749.8,-0.1551,-0.305,147.2,98.1,0.476
17.12,32087.9,35115.7,0.1101,0.1386,147.2,98.1,0.476
17.14,32260.5,35517.2,0.3465,0.6255,147.2,98.1,0.476
17.16,32391.5,35636.9,0.5259,0.7706,147.2,98.1,0.476
17.18,32283.5,35792.7,0.378,0.9595,147.2,98.1,0.476
17.2,32273.9,35655.7,0.3648,0.7933,147.2,98.1,0.476
17.22,32148.6,35477.5,0.1932,0.5773,147.2,98.1,0.476
17.24,32163.0,35233.4,0.2129,0.2813,147.2,98.1,0.476
17.26,32044.4,35188.8,0.0504,0.2272,147.2,98.1,0.476
17.28,31993.3,35112.3,-0.0196,0.1345,147.2,98.1,0.476
17.3,32050.9,34953.1,0.0593,-0.0585,147.2,98.1,0.476
17.32,31969.5,34932.4,-0.0521,-0.0836,147.2,98.1,0.476
17.34,31936.8,34828.0,-0.0969,-0.2102,147.2,98.1,0.476
17.36,31832.3,34682.4,-0.24,-0.3867,147.2,98.1,0.476
17.38,31805.2,34712.3,-0.2771,-0.3505,147.2,98.1,0.476
17.4,31824.3,34685.3,-0.251,-0.3833,147.2,98.1,0.476
17.42,31741.7,34553.5,-0.3641,-0.543,147.2,98.1,0.476
17.44,31815.0,34648.7,-0.2637,-0.4276,147.2,98.1,0.476
17.46,31720.4,34368.1,-0.3934,-0.7679,147.2,98.1,0.476
17.48,31738.1,34469.2,-0.369,-0.6453,147.2,98.1,0.476
17.5,31808.6,34719.8,-0.2724,-0.3415,147.2,98.1,0.476
17.52,32009.5,34957.4,0.0026,-0.0533,147.2,98.1,0.476
17.54,32164.1,35270.3,0.2144,0.3261,147.2,98.1,0.476
17.56,32300.1,35687.1,0.4007,0.8314,147.2,98.1,0.476
17.58,32369.5,35726.2,0.4958,0.8788,147.2,98.1,0.476
17.6,32262.0,35660.1,0.3485,0.7987,147.2,98.1,0.476
17.62,32253.8,35512.0,0.3373,0.6191,147.2,98.1,0.476
17.64,32113.2,35233.9,0.1447,0.282,147.2,98.1,0.476
17.66,32131.9,35218.1,0.1703,0.2628,147.2,98.1,0.476
17.68,32059.5,35072.1,0.0712,0.0858,147.2,98.1,0.476
17.7,31969.4,35073.9,-0.0523,0.0879,147.2,98.1,0.476
17.72,31983.2,34982.9,-0.0333,-0.0224,147.2,98.1,0.476
17.74,31950.7,34851.8,-0.0778,-0.1814,147.2,98.1,0.476
17.76,31909.8,34781.1,-0.1339,-0.2671,147.2,98.1,0.476
17.78,31965.9,34678.7,-0.0571,-0.3913,147.2,98.1,0.476
17.8,31850.7,34683.5,-0.2148,-0.3854,147.2,98.1,0.476
17.82,31817.6,34625.9,-0.2601,-0.4553,147.2,98.1,0.476
17.84,31846.1,34592.0,-0.2211,-0.4964,147.2,98.1,0.476
17.86,31755.4,34478.5,-0.3454,-0.634,147.2,98.1,0.476
17.88,31694.4,34391.2,-0.4289,-0.7398,147.2,98.1,0.476
17.9,31805.9,34502.1,-0.2762,-0.6054,147.2,98.1,0.476
17.92,31854.1,34804.2,-0.2102,-0.2391,147.2,98.1,0.476
17.94,32112.4,35174.0,0.1436,0.2093,147.2,98.1,0.476
17.96,32241.4,35603.1,0.3203,0.7295,147.2,98.1,0.476
17.98,32288.6,35698.2,0.3849,0.8448,147.2,98.1,0.476
18.0,32328.3,35843.0,0.4393,1.0205,147.2,98.1,0.476
18.02,32243.3,35462.5,0.3229,0.5591,147.2,98.1,0.476
18.04,32193.1,35241.9,0.2542,0.2917,147.2,98.1,0.476
18.06,32101.7,35196.1,0.1289,0.2361,147.2,98.1,0.476
18.08,32069.2,35137.5,0.0844,0.165,147.2,98.1,0.476
18.1,32047.9,35075.7,0.0553,0.0901,147.2,98.1,0.476
18.12,31977.0,34986.1,-0.0418,-0.0186,147.2,98.1,0.476
18.14,31911.9,34938.5,-0.131,-0.0763,147.2,98.1,0.476
18.16,31800.3,34783.4,-0.2838,-0.2643,147.2,98.1,0.476
18.18,31874.0,34675.5,-0.1829,-0.3951,147.2,98.1,0.476
18.2,31780.2,34715.9,-0.3113,-0.3462,147.2,98.1,0.476
18.22,31815.0,34694.9,-0.2637,-0.3716,147.2,98.1,0.476
18.24,31847.3,34693.4,-0.2194,-0.3734,147.2,98.1,0.476
18.26,31737.6,34572.0,-0.3698,-0.5206,147.2,98.1,0.476
18.28,31837.5,34419.6,-0.2329,-0.7053,147.2,98.1,0.476
18.3,31746.1,34575.2,-0.3582,-0.5168,147.2,98.1,0.476
18.32,31911.7,34608.4,-0.1313,-0.4765,147.2,98.1,0.476
18.34,32027.2,35063.5,0.0269,0.0754,147.2,98.1,0.476
18.36,32215.0,35480.0,0.2841,0.5804,147.2,98.1,0.476
18.38,32315.7,35692.2,0.422,0.8376,147.2,98.1,0.476
18.4,32391.5,35811.8,0.5259,0.9826,147.2,98.1,0.476
18.42,32288.6,35586.2,0.385,0.7091,147.2,98.1,0.476
18.44,32236.4,35513.3,0.3135,0.6207,147.2,98.1,0.476
18.46,32065.3,35225.2,0.0791,0.2714,147.2,98.1,0.476
18.48,31989.2,35093.1,-0.0251,0.1112,147.2,98.1,0.476
18.5,32118.9,35164.8,0.1526,0.1981,147.2,98.1,0.476
18.52,31945.5,34997.0,-0.085,-0.0053,147.2,98.1,0.476
18.54,31996.6,34977.0,-0.015,-0.0295,147.2,98.1,0.476
18.56,31899.0,34816.9,-0.1486,-0.2237,147.2,98.1,0.476
18.58,31931.3,34772.3,-0.1044,-0.2777,147.2,98.1,0.476
18.6,31807.4,34714.7,-0.2741,-0.3476,147.2,98.1,0.476
18.62,31847.4,34655.1,-0.2194,-0.4198,147.2,98.1,0.476
18.64,31763.0,34621.0,-0.335,-0.4612,147.2,98.1,0.476
18.66,31820.4,34645.5,-0.2564,-0.4315,147.2,98.1,0.476
18.68,31771.7,34437.3,-0.3231,-0.684,147.2,98.1,0.476
18.7,31730.2,34504.1,-0.3799,-0.603,147.2,98.1,0.476
18.72,31779.1,34495.9,-0.3129,-0.6129,147.2,98.1,0.476
18.74,32004.1,34902.8,-0.0047,-0.1195,147.2,98.1,0.476
18.76,32118.1,35208.6,0.1515,0.2512,147.2,98.1,0.476
18.78,32257.8,35581.8,0.3428,0.7038,147.2,98.1,0.476
18.8,32327.7,35778.2,0.4386,0.9419,147.2,98.1,0.476
18.82,32283.4,35678.6,0.3779,0.8211,147.2,98.1,0.476
18.84,32120.2,35512.4,0.1543,0.6196,147.2,98.1,0.476
18.86,32017.6,35328.8,0.0138,0.397,147.2,98.1,0.476
18.88,32039.8,35262.3,0.0441,0.3163,147.2,98.1,0.476
18.9,32077.7,35090.8,0.0961,0.1084,147.2,98.1,0.476
18.92,32073.2,35027.5,0.0899,0.0317,147.2,98.1,0.476
18.94,32061.2,34980.7,0.0735,-0.0251,147.2,98.1,0.476
18.96,31895.2,34791.1,-0.1538,-0.255,147.2,98.1,0.476
18.98,31931.5,34815.6,-0.1042,-0.2252,147.2,98.1,0.476
19.0,31869.7,34642.6,-0.1887,-0.435,147.2,98.1,0.476
19.02,31827.4,34594.4,-0.2468,-0.4934,147.2,98.1,0.476
19.04,31768.1,34704.7,-0.328,-0.3597,147.2,98.1,0.476
19.06,31706.9,34510.4,-0.4118,-0.5953,147.2,98.1,0.476
19.08,31806.9,34671.1,-0.2748,-0.4005,147.2,98.1,0.476
19.1,31793.8,34417.1,-0.2927,-0.7085,147.2,98.1,0.476
19.12,31796.2,34436.2,-0.2894,-0.6852,147.2,98.1,0.476
19.14,31947.1,34840.3,-0.0828,-0.1953,147.2,98.1,0.476
19.16,32114.0,35119.7,0.1458,0.1435,147.2,98.1,0.476
19.18,32215.5,35562.7,0.2848,0.6806,147.2,98.1,0.476
19.2,32284.4,35734.4,0.3792,0.8888,147.2,98.1,0.476
19.22,32352.7,35827.1,0.4728,1.0011,147.2,98.1,0.476
19.24,32277.8,35599.1,0.3701,0.7247,147.2,98.1,0.476
19.26,32307.5,35388.7,0.4109,0.4697,147.2,98.1,0.476
19.28,32111.3,35262.5,0.1421,0.3167,147.2,98.1,0.476
19.3,32179.9,35157.0,0.236,0.1887,147.2,98.1,0.476
19.32,31985.7,35062.9,-0.03,0.0746,147.2,98.1,0.476
19.34,32088.7,34993.4,0.1111,-0.0097,147.2,98.1,0.476
19.36,31985.6,34918.2,-0.03,-0.1009,147.2,98.1,0.476
19.38,31929.8,34735.4,-0.1065,-0.3225,147.2,98.1,0.476
19.4,31832.8,34720.2,-0.2393,-0.341,147.2,98.1,0.476
19.42,31834.7,34728.3,-0.2367,-0.331,147.2,98.1,0.476
19.44,31832.0,34611.2,-0.2404,-0.4731,147.2,98.1,0.476
19.46,31858.0,34554.5,-0.2048,-0.5419,147.2,98.1,0.476
19.48,31819.1,34555.2,-0.258,-0.5409,147.2,98.1,0.476
19.5,31687.5,34402.7,-0.4384,-0.7259,147.2,98.1,0.476
19.52,31815.9,34412.8,-0.2625,-0.7136,147.2,98.1,0.476
19.54,31795.0,34685.7,-0.2911,-0.3827,147.2,98.1,0.476
19.56,32094.8,35028.6,0.1195,0.033,147.2,98.1,0.476
19.58,32141.8,35332.6,0.1839,0.4016,147.2,98.1,0.476
19.6,32276.6,35629.8,0.3686,0.762,147.2,98.1,0.476
19.62,32328.6,35791.4,0.4398,0.9579,147.2,98.1,0.476
19.64,32297.4,35683.0,0.3971,0.8264,147.2,98.1,0.476
19.66,32138.6,35435.0,0.1795,0.5257,147.2,98.1,0.476
19.68,32135.6,35283.4,0.1754,0.342,147.2,98.1,0.476
19.7,32094.3,35155.9,0.1188,0.1874,147.2,98.1,0.476
19.72,32103.4,34946.4,0.1314,-0.0667,147.2,98.1,0.476
19.74,32004.9,35001.6,-0.0037,0.0002,147.2,98.1,0.476
19.76,31951.3,34935.6,-0.077,-0.0798,147.2,98.1,0.476
19.78,31880.3,34850.8,-0.1743,-0.1825,147.2,98.1,0.476
19.8,31850.6,34766.1,-0.215,-0.2853,147.2,98.1,0.476
19.82,31895.2,34673.1,-0.1538,-0.398,147.2,98.1,0.476
19.84,31808.4,34681.2,-0.2728,-0.3882,147.2,98.1,0.476
19.86,31825.2,34673.4,-0.2497,-0.3977,147.2,98.1,0.476
19.88,31796.2,34614.2,-0.2894,-0.4694,147.2,98.1,0.476
19.9,31730.0,34444.1,-0.3802,-0.6757,147.2,98.1,0.476
19.92,31782.5,34470.5,-0.3082,-0.6436,147.2,98.1,0.476
19.94,31887.4,34686.7,-0.1646,-0.3816,147.2,98.1,0.476
19.96,31859.4,34870.7,-0.203,-0.1585,147.2,98.1,0.476
19.98,32206.4,35135.1,0.2723,0.1622,147.2,98.1,0.476
20.0,32183.8,35550.3,0.2414,0.6656,147.2,98.1,0.476
20.02,32268.3,35734.8,0.3572,0.8893,147.2,98.1,0.476
20.04,32389.7,35730.7,0.5234,0.8842,147.2,98.1,0.476
20.06,32289.7,35502.7,0.3865,0.6078,147.2,98.1,0.476
20.08,32184.1,35384.3,0.2418,0.4643,147.2,98.1,0.476
20.1,31998.2,35113.1,-0.0129,0.1354,147.2,98.1,0.476
20.12,32051.2,35094.2,0.0597,0.1126,147.2,98.1,0.476
20.14,32084.4,35066.6,0.1052,0.0791,147.2,98.1,0.476
20.16,32054.3,35025.8,0.064,0.0296,147.2,98.1,0.476
20.18,32042.9,34852.0,0.0484,-0.1811,147.2,98.1,0.476
20.2,31899.4,34789.6,-0.1482,-0.2567,147.2,98.1,0.476
20.22,31858.2,34781.0,-0.2045,-0.2672,147.2,98.1,0.476
20.24,31805.9,34658.5,-0.2762,-0.4158,147.2,98.1,0.476
20.26,31797.7,34681.2,-0.2874,-0.3882,147.2,98.1,0.476
20.28,31762.5,34658.2,-0.3357,-0.4161,147.2,98.1,0.476
20.3,31684.8,34449.9,-0.4421,-0.6687,147.2,98.1,0.476
20.32,31757.8,34445.0,-0.342,-0.6746,147.2,98.1,0.476
20.34,31750.2,34594.8,-0.3524,-0.4929,147.2,98.1,0.476
20.36,31800.9,34625.8,-0.2831,-0.4554,147.2,98.1,0.476
20.38,32051.5,35106.0,0.0603,0.1268,147.2,98.1,0.476
20.4,32189.8,35406.7,0.2497,0.4914,147.2,98.1,0.476
20.42,32337.1,35680.9,0.4513,0.824,147.2,98.1,0.476
20.44,32419.7,35678.3,0.5645,0.8208,147.2,98.1,0.476
20.46,32312.0,35628.2,0.417,0.76,147.2,98.1,0.476
20.48,32169.5,35437.1,0.2219,0.5283,147.2,98.1,0.476
20.5,32105.6,35203.1,0.1342,0.2445,147.2,98.1,0.476
20.52,32086.9,35162.3,0.1086,0.1951,147.2,98.1,0.476
20.54,32013.3,35066.4,0.0079,0.0788,147.2,98.1,0.476
20.56,32050.1,34989.8,0.0582,-0.014,147.2,98.1,0.476
20.58,32043.2,34872.4,0.0488,-0.1564,147.2,98.1,0.476
20.6,31836.2,34818.7,-0.2348,-0.2215,147.2,98.1,0.476
20.62,31837.6,34726.1,-0.2328,-0.3338,147.2,98.1,0.476
20.64,31857.2,34701.7,-0.2059,-0.3633,147.2,98.1,0.476
20.66,31855.6,34750.0,-0.2082,-0.3048,147.2,98.1,0.476
20.68,31740.8,34609.0,-0.3654,-0.4758,147.2,98.1,0.476
20.7,31823.4,34549.5,-0.2522,-0.5478,147.2,98.1,0.476
20.72,31676.6,34380.7,-0.4533,-0.7526,147.2,98.1,0.476
20.74,31954.8,34521.6,-0.0722,-0.5817,147.2,98.1,0.476
20.76,31904.0,34613.0,-0.1418,-0.4709,147.2,98.1,0.476
20.78,31982.1,34964.9,-0.0349,-0.0442,147.2,98.1,0.476
20.8,32103.1,35307.0,0.1309,0.3706,147.2,98.1,0.476
20.82,32201.0,35618.1,0.265,0.7478,147.2,98.1,0.476
20.84,32426.1,35740.8,0.5732,0.8966,147.2,98.1,0.476
20.86,32293.5,35639.4,0.3916,0.7736,147.2,98.1,0.476
20.88,32291.5,35546.7,0.3889,0.6612,147.2,98.1,0.476
20.9,32124.3,35353.8,0.1598,0.4273,147.2,98.1,0.476
20.92,32013.5,35166.9,0.0082,0.2006,147.2,98.1,0.476
20.94,32098.9,35087.8,0.1252,0.1048,147.2,98.1,0.476
20.96,31958.9,35059.6,-0.0666,0.0705,147.2,98.1,0.476
20.98,32032.7,34984.1,0.0345,-0.0209,147.2,98.1,0.476
21.0,31938.2,34825.4,-0.0949,-0.2133,147.2,98.1,0.476
21.02,31889.8,34752.2,-0.1613,-0.3021,147.2,98.1,0.476
21.04,31862.1,34722.0,-0.1992,-0.3387,147.2,98.1,0.476
21.06,31857.5,34701.0,-0.2055,-0.3642,147.2,98.1,0.476
21.08,31860.7,34552.0,-0.2011,-0.5448,147.2,98.1,0.476
21.1,31916.7,34555.6,-0.1244,-0.5405,147.2,98.1,0.476
21.12,31769.9,34615.9,-0.3254,-0.4674,147.2,98.1,0.476
21.14,31787.2,34516.0,-0.3019,-0.5885,147.2,98.1,0.476
21.16,31745.6,34502.9,-0.3588,-0.6044,147.2,98.1,0.476
21.18,31951.2,34772.0,-0.0772,-0.2781,147.2,98.1,0.476
21.2,32095.1,35211.0,0.1199,0.2542,147.2,98.1,0.476
21.22,32284.6,35488.9,0.3795,0.5911,147.2,98.1,0.476
21.24,32295.2,35789.1,0.394,0.9551,147.2,98.1,0.476
21.26,32327.4,35795.7,0.4381,0.9631,147.2,98.1,0.476
21.28,32274.1,35564.4,0.3651,0.6827,147.2,98.1,0.476
21.3,32190.4,35485.8,0.2504,0.5873,147.2,98.1,0.476
21.32,32091.4,35186.6,0.1149,0.2246,147.2,98.1,0.476
21.34,32077.6,35139.4,0.096,0.1673,147.2,98.1,0.476
21.36,32072.9,35128.3,0.0895,0.1539,147.2,98.1,0.476
21.38,32003.7,34913.6,-0.0053,-0.1064,147.2,98.1,0.476
21.4,31956.4,34905.7,-0.0701,-0.116,147.2,98.1,0.476
21.42,31989.7,34797.8,-0.0244,-0.2468,147.2,98.1,0.476
21.44,31825.1,34740.9,-0.2499,-0.3158,147.2,98.1,0.476
21.46,31877.7,34791.1,-0.1778,-0.255,147.2,98.1,0.476
21.48,31871.6,34657.9,-0.1862,-0.4164,147.2,98.1,0.476
21.5,31832.7,34693.9,-0.2394,-0.3728,147.2,98.1,0.476
21.52,31860.0,34545.1,-0.2021,-0.5532,147.2,98.1,0.476
21.54,31730.4,34482.6,-0.3795,-0.6291,147.2,98.1,0.476
21.56,31700.9,34451.3,-0.42,-0.667,147.2,98.1,0.476
21.58,31912.2,34712.3,-0.1306,-0.3505,147.2,98.1,0.476
21.6,32044.9,35030.4,0.0512,0.0351,147.2,98.1,0.476
21.62,32186.3,35481.9,0.2448,0.5826,147.2,98.1,0.476
21.64,32331.7,35705.8,0.444,0.8541,147.2,98.1,0.476
21.66,32287.9,35703.8,0.3841,0.8516,147.2,98.1,0.476
21.68,32344.6,35604.4,0.4616,0.7312,147.2,98.1,0.476
21.7,32224.8,35434.3,0.2975,0.5248,147.2,98.1,0.476
21.72,32041.3,35268.7,0.0462,0.3242,147.2,98.1,0.476
21.74,32001.8,35170.2,-0.0079,0.2047,147.2,98.1,0.476
21.76,32058.1,35098.3,0.0693,0.1175,147.2,98.1,0.476
21.78,32019.0,34989.3,0.0157,-0.0147,147.2,98.1,0.476
21.8,31936.3,34908.8,-0.0976,-0.1122,147.2,98.1,0.476
21.82,31975.1,34835.2,-0.0444,-0.2015,147.2,98.1,0.476
21.84,31855.1,34711.2,-0.2088,-0.3518,147.2,98.1,0.476
21.86,31951.0,34769.7,-0.0775,-0.281,147.2,98.1,0.476
21.88,31744.9,34723.2,-0.3598,-0.3372,147.2,98.1,0.476
21.9,31900.8,34741.8,-0.1461,-0.3147,147.2,98.1,0.476
21.92,31819.4,34613.1,-0.2577,-0.4707,147.2,98.1,0.476
21.94,31778.9,34356.0,-0.3132,-0.7825,147.2,98.1,0.476
21.96,31764.3,34544.9,-0.3331,-0.5535,147.2,98.1,0.476
21.98,31764.8,34562.8,-0.3325,-0.5317,147.2,98.1,0.476
22.0,31968.1,34874.8,-0.0541,-0.1534,147.2,98.1,0.476
22.02,32163.0,35288.0,0.2129,0.3476,147.2,98.1,0.476
22.04,32257.9,35504.8,0.3428,0.6104,147.2,98.1,0.476
22.06,32370.8,35836.8,0.4976,1.0129,147.2,98.1,0.476
22.08,32257.8,35703.9,0.3427,0.8517,147.2,98.1,0.476
22.1,32262.0,35501.7,0.3485,0.6067,147.2,98.1,0.476
22.12,32101.5,35376.2,0.1287,0.4545,147.2,98.1,0.476
22.14,32107.4,35228.6,0.1368,0.2754,147.2,98.1,0.476
22.16,32110.8,35113.8,0.1414,0.1364,147.2,98.1,0.476
22.18,32013.1,35169.8,0.0076,0.2042,147.2,98.1,0.476
22.2,32066.2,34934.8,0.0803,-0.0807,147.2,98.1,0.476
22.22,32024.7,34862.9,0.0235,-0.1679,147.2,98.1,0.476
22.24,31795.1,34794.5,-0.291,-0.2508,147.2,98.1,0.476
22.26,31856.7,34764.1,-0.2066,-0.2877,147.2,98.1,0.476
22.28,31996.8,34688.0,-0.0147,-0.38,147.2,98.1,0.476
22.3,31808.6,34661.6,-0.2725,-0.412,147.2,98.1,0.476
22.32,31779.3,34622.9,-0.3126,-0.4589,147.2,98.1,0.476
22.34,31668.5,34495.3,-0.4644,-0.6136,147.2,98.1,0.476
22.36,31752.1,34409.8,-0.3498,-0.7172,147.2,98.1,0.476
22.38,31733.1,34591.0,-0.3759,-0.4976,147.2,98.1,0.476
22.4,31922.7,34726.1,-0.1162,-0.3338,147.2,98.1,0.476
22.42,32058.1,35117.3,0.0692,0.1405,147.2,98.1,0.476
22.44,32151.9,35460.8,0.1977,0.557,147.2,98.1,0.476
22.46,32299.2,35591.3,0.3995,0.7153,147.2,98.1,0.476
22.48,32321.2,35744.1,0.4296,0.9005,147.2,98.1,0.476
22.5,32320.7,35651.8,0.4289,0.7886,147.2,98.1,0.476
22.52,32198.2,35389.2,0.2611,0.4702,147.2,98.1,0.476
22.54,32059.3,35246.4,0.0708,0.297,147.2,98.1,0.476
22.56,32110.3,35104.4,0.1408,0.1249,147.2,98.1,0.476
22.58,32019.4,35097.8,0.0162,0.1169,147.2,98.1,0.476
22.6,32018.5,35008.6,0.015,0.0088,147.2,98.1,0.476
22.62,31986.3,34985.2,-0.0291,-0.0196,147.2,98.1,0.476
22.64,31890.9,34782.1,-0.1598,-0.2658,147.2,98.1,0.476
22.66,31965.4,34800.8,-0.0578,-0.2432,147.2,98.1,0.476
22.68,31840.5,34690.3,-0.2288,-0.3772,147.2,98.1,0.476
22.7,31856.4,34575.4,-0.207,-0.5164,147.2,98.1,0.476
22.72,31873.7,34581.7,-0.1833,-0.5089,147.2,98.1,0.476
22.74,31723.2,34550.6,-0.3894,-0.5465,147.2,98.1,0.476
22.76,31812.3,34471.6,-0.2674,-0.6424,147.2,98.1,0.476
22.78,31806.1,34457.7,-0.2759,-0.6591,147.2,98.1,0.476
22.8,31889.0,34703.3,-0.1624,-0.3614,147.2,98.1,0.476
22.82,32014.5,34860.1,0.0095,-0.1713,147.2,98.1,0.476
22.84,32134.0,35387.5,0.1732,0.4682,147.2,98.1,0.476
22.86,32337.8,35653.8,0.4523,0.7911,147.2,98.1,0.476
22.88,32303.4,35719.5,0.4052,0.8707,147.2,98.1,0.476
22.9,32289.2,35706.1,0.3858,0.8544,147.2,98.1,0.476
22.92,32192.2,35509.4,0.2529,0.616,147.2,98.1,0.476
22.94,32098.9,35261.3,0.1251,0.3151,147.2,98.1,0.476
22.96,32004.7,35156.8,-0.0039,0.1885,147.2,98.1,0.476
22.98,32095.8,35094.4,0.1208,0.1128,147.2,98.1,0.476
23.0,32055.4,35071.7,0.0655,0.0853,147.2,98.1,0.476
23.02,32029.1,34902.8,0.0295,-0.1195,147.2,98.1,0.476
23.04,31895.0,34931.7,-0.1541,-0.0845,147.2,98.1,0.476
23.06,31848.2,34803.4,-0.2182,-0.2401,147.2,98.1,0.476
23.08,31832.4,34672.2,-0.2399,-0.3991,147.2,98.1,0.476
23.1,31869.9,34635.7,-0.1885,-0.4434,147.2,98.1,0.476
23.12,31874.8,34645.0,-0.1819,-0.4321,147.2,98.1,0.476
23.14,31846.9,34601.0,-0.22,-0.4855,147.2,98.1,0.476
23.16,31746.5,34487.1,-0.3575,-0.6236,147.2,98.1,0.476
23.18,31743.5,34427.5,-0.3617,-0.6958,147.2,98.1,0.476
23.2,31786.0,34574.8,-0.3035,-0.5173,147.2,98.1,0.476
23.22,31833.7,34791.7,-0.2382,-0.2542,147.2,98.1,0.476
23.24,32153.4,35181.3,0.1998,0.2181,147.2,98.1,0.476
23.26,32255.3,35544.9,0.3394,0.659,147.2,98.1,0.476
23.28,32256.2,35730.0,0.3406,0.8835,147.2,98.1,0.476
23.3,32330.2,35729.2,0.4419,0.8824,147.2,98.1,0.476
23.32,32276.1,35603.2,0.3678,0.7297,147.2,98.1,0.476
23.34,32107.9,35473.7,0.1374,0.5727,147.2,98.1,0.476
23.36,31982.1,35246.7,-0.0349,0.2975,147.2,98.1,0.476
23.38,32029.7,35122.4,0.0303,0.1468,147.2,98.1,0.476
23.4,32048.1,35026.5,0.0556,0.0304,147.2,98.1,0.476
23.42,31982.6,35056.4,-0.0342,0.0667,147.2,98.1,0.476
23.44,31956.8,34891.1,-0.0695,-0.1337,147.2,98.1,0.476
23.46,31888.3,34720.1,-0.1634,-0.3411,147.2,98.1,0.476
23.48,31884.6,34638.4,-0.1684,-0.4401,147.2,98.1,0.476
23.5,31842.0,34741.6,-0.2268,-0.315,147.2,98.1,0.476
23.52,31892.9,34679.8,-0.1571,-0.3899,147.2,98.1,0.476
23.54,31788.2,34551.7,-0.3005,-0.5452,147.2,98.1,0.476
23.56,31704.2,34509.8,-0.4155,-0.5961,147.2,98.1,0.476
23.58,31755.1,34441.9,-0.3457,-0.6784,147.2,98.1,0.476
23.6,31827.8,34475.5,-0.2462,-0.6377,147.2,98.1,0.476
23.62,31903.3,34666.4,-0.1428,-0.4061,147.2,98.1,0.476
23.64,32091.4,35116.2,0.1149,0.1392,147.2,98.1,0.476
23.66,32133.1,35515.7,0.172,0.6236,147.2,98.1,0.476
23.68,32269.0,35726.7,0.3581,0.8794,147.2,98.1,0.476
23.7,32287.8,35796.0,0.3839,0.9635,147.2,98.1,0.476
23.72,32262.7,35626.7,0.3495,0.7581,147.2,98.1,0.476
23.74,32113.0,35448.8,0.1444,0.5424,147.2,98.1,0.476
23.76,32083.4,35156.8,0.1038,0.1885,147.2,98.1,0.476
23.78,32099.7,35118.6,0.1263,0.1421,147.2,98.1,0.476
23.8,31944.0,35093.7,-0.087,0.112,147.2,98.1,0.476
23.82,31993.4,34929.2,-0.0194,-0.0875,147.2,98.1,0.476
23.84,31936.9,34905.0,-0.0967,-0.1169,147.2,98.1,0.476
23.86,31978.2,34783.9,-0.0402,-0.2637,147.2,98.1,0.476
23.88,31844.4,34724.6,-0.2235,-0.3356,147.2,98.1,0.476
23.9,31890.1,34670.8,-0.1609,-0.4008,147.2,98.1,0.476
23.92,31834.9,34708.2,-0.2365,-0.3555,147.2,98.1,0.476
23.94,31905.0,34684.4,-0.1404,-0.3843,147.2,98.1,0.476
23.96,31782.2,34447.1,-0.3087,-0.6721,147.2,98.1,0.476
23.98,31772.6,34446.9,-0.3217,-0.6723,147.2,98.1,0.476
24.0,31683.4,34423.0,-0.444,-0.7013,147.2,98.1,0.476
24.02,31732.9,34618.1,-0.3761,-0.4648,147.2,98.1,0.476
24.04,31983.8,34877.9,-0.0325,-0.1497,147.2,98.1,0.476
24.06,32075.9,35340.3,0.0936,0.4109,147.2,98.1,0.476
24.08,32307.5,35687.8,0.4109,0.8323,147.2,98.1,0.476
24.1,32432.0,35809.3,0.5813,0.9796,147.2,98.1,0.476
24.12,32310.8,35770.8,0.4154,0.9329,147.2,98.1,0.476
24.14,32199.3,35544.1,0.2626,0.6581,147.2,98.1,0.476
24.16,32123.0,35314.3,0.1582,0.3794,147.2,98.1,0.476
24.18,32108.8,35128.8,0.1387,0.1545,147.2,98.1,0.476
24.2,32029.2,35057.7,0.0296,0.0683,147.2,98.1,0.476
24.22,32024.7,35000.0,0.0235,-0.0017,147.2,98.1,0.476
24.24,31991.7,34922.2,-0.0218,-0.096,147.2,98.1,0.476
24.26,32064.5,34897.9,0.078,-0.1255,147.2,98.1,0.476
24.28,31896.2,34848.2,-0.1525,-0.1857,147.2,98.1,0.476
24.3,31875.4,34756.6,-0.181,-0.2967,147.2,98.1,0.476
24.32,31814.4,34716.2,-0.2646,-0.3458,147.2,98.1,0.476
24.34,31798.5,34659.5,-0.2863,-0.4145,147.2,98.1,0.476
24.36,31774.7,34509.0,-0.3189,-0.597,147.2,98.1,0.476
24.38,31785.1,34587.5,-0.3046,-0.5018,147.2,98.1,0.476
24.4,31754.0,34376.1,-0.3472,-0.7581,147.2,98.1,0.476
24.42,31803.7,34586.2,-0.2792,-0.5034,147.2,98.1,0.476
24.44,31911.7,34850.2,-0.1312,-0.1833,147.2,98.1,0.476
24.46,32127.9,35156.7,0.1649,0.1884,147.2,98.1,0.476
24.48,32245.5,35489.2,0.3259,0.5915,147.2,98.1,0.476
24.5,32289.7,35664.2,0.3865,0.8037,147.2,98.1,0.476
24.52,32305.9,35813.2,0.4086,0.9843,147.2,98.1,0.476
24.54,32281.3,35523.7,0.375,0.6333,147.2,98.1,0.476
24.56,32146.0,35362.2,0.1896,0.4375,147.2,98.1,0.476
24.58,32117.8,35138.1,0.151,0.1658,147.2,98.1,0.476
24.6,32082.4,35168.8,0.1026,0.203,147.2,98.1,0.476
24.62,32122.1,35036.0,0.157,0.042,147.2,98.1,0.476
24.64,31935.7,35036.4,-0.0984,0.0425,147.2,98.1,0.476
24.66,31863.2,34898.1,-0.1977,-0.1252,147.2,98.1,0.476
24.68,31919.1,34770.1,-0.1212,-0.2804,147.2,98.1,0.476
24.7,31778.9,34752.7,-0.3132,-0.3015,147.2,98.1,0.476
24.72,31884.6,34744.0,-0.1684,-0.312,147.2,98.1,0.476
24.74,31829.4,34646.7,-0.2441,-0.43,147.2,98.1,0.476
24.76,31863.3,34583.9,-0.1976,-0.5061,147.2,98.1,0.476
24.78,31859.3,34452.5,-0.2031,-0.6654,147.2,98.1,0.476
24.8,31843.8,34512.1,-0.2243,-0.5932,147.2,98.1,0.476
24.82,31743.4,34499.8,-0.3617,-0.6082,147.2,98.1,0.476
24.84,31886.8,34630.9,-0.1653,-0.4492,147.2,98.1,0.476
24.86,32104.8,35040.5,0.1332,0.0474,147.2,98.1,0.476
24.88,32205.8,35370.9,0.2716,0.4481,147.2,98.1,0.476
24.9,32368.9,35605.0,0.4949,0.7319,147.2,98.1,0.476
24.92,32343.4,35711.4,0.46,0.8609,147.2,98.1,0.476
24.94,32224.8,35667.0,0.2976,0.8071,147.2,98.1,0.476
24.96,32128.5,35460.5,0.1656,0.5567,147.2,98.1,0.476
24.98,32153.4,35366.1,0.1998,0.4422,147.2,98.1,0.476
25.0,32166.9,35119.3,0.2183,0.1429,147.2,98.1,0.476
25.02,31913.2,35114.4,-0.1292,0.137,147.2,98.1,0.476
25.04,31978.0,34981.1,-0.0405,-0.0246,147.2,98.1,0.476
25.06,32076.4,34920.2,0.0943,-0.0984,147.2,98.1,0.476
25.08,31897.7,34803.0,-0.1505,-0.2406,147.2,98.1,0.476
25.1,31904.2,34747.5,-0.1416,-0.3078,147.2,98.1,0.476
25.12,31783.6,34652.6,-0.3068,-0.4229,147.2,98.1,0.476
25.14,31841.7,34645.9,-0.2272,-0.431,147.2,98.1,0.476
25.16,31783.7,34661.0,-0.3066,-0.4127,147.2,98.1,0.476
25.18,31849.6,34583.6,-0.2163,-0.5065,147.2,98.1,0.476
25.2,31721.5,34423.9,-0.3918,-0.7001,147.2,98.1,0.476
25.22,31740.9,34490.7,-0.3653,-0.6192,147.2,98.1,0.476
25.24,31844.3,34630.4,-0.2236,-0.4497,147.2,98.1,0.476
25.26,31878.2,34848.0,-0.1772,-0.1859,147.2,98.1,0.476
25.28,32065.4,35183.2,0.0792,0.2204,147.2,98.1,0.476
25.3,32272.3,35642.5,0.3627,0.7773,147.2,98.1,0.476
25.32,32379.9,35699.3,0.51,0.8462,147.2,98.1,0.476
25.34,32369.4,35714.2,0.4956,0.8643,147.2,98.1,0.476
25.36,32225.7,35553.7,0.2989,0.6697,147.2,98.1,0.476
25.38,32170.6,35343.2,0.2233,0.4145,147.2,98.1,0.476
25.4,32096.7,35142.0,0.1221,0.1705,147.2,98.1,0.476
25.42,32076.3,35054.1,0.0942,0.0639,147.2,98.1,0.476
25.44,31948.6,35118.2,-0.0807,0.1416,147.2,98.1,0.476
25.46,32018.7,34969.4,0.0153,-0.0388,147.2,98.1,0.476
25.48,31946.0,34960.8,-0.0842,-0.0491,147.2,98.1,0.476
25.5,31956.3,34796.3,-0.0702,-0.2487,147.2,98.1,0.476
25.52,31896.4,34772.6,-0.1522,-0.2774,147.2,98.1,0.476
25.54,31903.2,34623.1,-0.1429,-0.4586,147.2,98.1,0.476
25.56,31850.5,34652.6,-0.2151,-0.4228,147.2,98.1,0.476
25.58,31857.8,34589.2,-0.2051,-0.4997,147.2,98.1,0.476
25.6,31835.2,34520.4,-0.236,-0.5832,147.2,98.1,0.476
25.62,31746.7,34505.3,-0.3573,-0.6015,147.2,98.1,0.476
25.64,31816.4,34504.7,-0.2617,-0.6022,147.2,98.1,0.476
25.66,31783.1,34715.4,-0.3074,-0.3467,147.2,98.1,0.476
25.68,32008.5,35032.0,0.0013,0.0372,147.2,98.1,0.476
25.7,32240.4,35536.8,0.3189,0.6492,147.2,98.1,0.476
25.72,32297.9,35672.2,0.3977,0.8133,147.2,98.1,0.476
25.74,32403.6,35828.8,0.5425,1.0032,147.2,98.1,0.476
25.76,32313.8,35653.3,0.4194,0.7905,147.2,98.1,0.476
25.78,32319.9,35430.9,0.4279,0.5208,147.2,98.1,0.476
25.8,32150.3,35231.0,0.1956,0.2784,147.2,98.1,0.476
25.82,32028.1,35161.3,0.0282,0.1938,147.2,98.1,0.476
25.84,32072.1,35071.1,0.0885,0.0846,147.2,98.1,0.476
25.86,32046.6,34942.8,0.0535,-0.071,147.2,98.1,0.476
25.88,32002.1,34922.7,-0.0075,-0.0954,147.2,98.1,0.476
25.9,31881.1,34906.7,-0.1732,-0.1147,147.2,98.1,0.476
25.92,31876.0,34715.2,-0.1802,-0.347,147.2,98.1,0.476
25.94,31895.4,34692.2,-0.1536,-0.3749,147.2,98.1,0.476
25.96,31804.7,34653.7,-0.2778,-0.4216,147.2,98.1,0.476
25.98,31841.8,34543.5,-0.227,-0.5552,147.2,98.1,0.476
26.0,31785.6,34587.3,-0.3041,-0.502,147.2,98.1,0.476
26.02,31711.4,34452.4,-0.4056,-0.6656,147.2,98.1,0.476
26.04,31834.9,34442.8,-0.2364,-0.6773,147.2,98.1,0.476
26.06,31840.2,34658.7,-0.2293,-0.4155,147.2,98.1,0.476
26.08,32082.6,35000.1,0.1028,-0.0015,147.2,98.1,0.476
26.1,32176.2,35385.6,0.231,0.4658,147.2,98.1,0.476
26.12,32302.8,35591.9,0.4044,0.716,147.2,98.1,0.476
26.14,32412.3,35766.1,0.5544,0.9272,147.2,98.1,0.476
26.16,32228.4,35657.6,0.3025,0.7957,147.2,98.1,0.476
26.18,32184.6,35618.6,0.2425,0.7483,147.2,98.1,0.476
26.2,32229.6,35251.1,0.3041,0.3028,147.2,98.1,0.476
26.22,32010.5,35251.8,0.004,0.3036,147.2,98.1,0.476
26.24,32072.5,35043.5,0.089,0.051,147.2,98.1,0.476
26.26,32016.0,35053.7,0.0116,0.0635,147.2,98.1,0.476
26.28,31887.8,34933.7,-0.164,-0.0821,147.2,98.1,0.476
26.3,31917.7,34907.0,-0.1231,-0.1145,147.2,98.1,0.476
26.32,31900.7,34761.1,-0.1463,-0.2913,147.2,98.1,0.476
26.34,31881.1,34743.6,-0.1733,-0.3126,147.2,98.1,0.476
26.36,31852.4,34713.7,-0.2125,-0.3488,147.2,98.1,0.476
26.38,31854.4,34757.2,-0.2097,-0.2961,147.2,98.1,0.476
26.4,31847.0,34548.4,-0.2199,-0.5492,147.2,98.1,0.476
26.42,31723.3,34468.4,-0.3893,-0.6463,147.2,98.1,0.476
26.44,31657.9,34434.8,-0.4789,-0.687,147.2,98.1,0.476
26.46,31782.7,34491.2,-0.308,-0.6186,147.2,98.1,0.476
26.48,31922.7,34888.9,-0.1162,-0.1363,147.2,98.1,0.476
26.5,32076.2,35191.1,0.0941,0.2301,147.2,98.1,0.476
26.52,32231.6,35555.4,0.3069,0.6717,147.2,98.1,0.476
26.54,32365.0,35722.5,0.4896,0.8744,147.2,98.1,0.476
26.56,32384.5,35684.9,0.5162,0.8287,147.2,98.1,0.476
26.58,32242.3,35674.9,0.3216,0.8166,147.2,98.1,0.476
26.6,32212.6,35355.9,0.2809,0.4298,147.2,98.1,0.476
26.62,32066.8,35267.6,0.0812,0.3228,147.2,98.1,0.476
26.64,32061.1,35187.1,0.0734,0.2252,147.2,98.1,0.476
26.66,31998.2,35065.0,-0.0128,0.0772,147.2,98.1,0.476
26.68,31948.8,35067.7,-0.0804,0.0804,147.2,98.1,0.476
26.7,31902.4,34903.1,-0.144,-0.1192,147.2,98.1,0.476
26.72,31882.8,34800.0,-0.1709,-0.2442,147.2,98.1,0.476
26.74,31758.3,34646.7,-0.3414,-0.43,147.2,98.1,0.476
26.76,31920.5,34671.4,-0.1192,-0.4001,147.2,98.1,0.476
26.78,31886.3,34676.0,-0.166,-0.3945,147.2,98.1,0.476
26.8,31825.5,34642.6,-0.2494,-0.435,147.2,98.1,0.476
26.82,31780.9,34573.7,-0.3105,-0.5185,147.2,98.1,0.476
26.84,31681.8,34494.2,-0.4462,-0.615,147.2,98.1,0.476
26.86,31749.4,34450.5,-0.3536,-0.6679,147.2,98.1,0.476
26.88,31896.7,34706.8,-0.1518,-0.3572,147.2,98.1,0.476
26.9,31986.4,35055.0,-0.0289,0.065,147.2,98.1,0.476
26.92,32202.0,35377.9,0.2664,0.4566,147.2,98.1,0.476
26.94,32395.2,35642.9,0.531,0.7779,147.2,98.1,0.476
26.96,32323.2,35795.2,0.4323,0.9625,147.2,98.1,0.476
26.98,32265.2,35665.9,0.3529,0.8057,147.2,98.1,0.476
27.0,32143.3,35457.7,0.1859,0.5533,147.2,98.1,0.476
27.02,32157.9,35263.5,0.2059,0.3179,147.2,98.1,0.476
27.04,32075.3,35218.8,0.0928,0.2637,147.2,98.1,0.476
27.06,32103.9,35045.3,0.132,0.0533,147.2,98.1,0.476
27.08,31944.7,35022.6,-0.0861,0.0258,147.2,98.1,0.476
27.1,32071.9,34898.0,0.0881,-0.1253,147.2,98.1,0.476
27.12,31961.8,34742.7,-0.0627,-0.3136,147.2,98.1,0.476
27.14,31904.8,34747.4,-0.1408,-0.3079,147.2,98.1,0.476
27.16,31943.4,34625.8,-0.0879,-0.4554,147.2,98.1,0.476
27.18,31937.8,34661.7,-0.0955,-0.4119,147.2,98.1,0.476
27.2,31828.1,34722.3,-0.2458,-0.3383,147.2,98.1,0.476
27.22,31765.1,34560.8,-0.3321,-0.5342,147.2,98.1,0.476
27.24,31801.7,34446.2,-0.2819,-0.6731,147.2,98.1,0.476
27.26,31756.1,34523.1,-0.3445,-0.5799,147.2,98.1,0.476
27.28,31839.1,34640.7,-0.2307,-0.4373,147.2,98.1,0.476
27.3,31879.1,34922.6,-0.1759,-0.0955,147.2,98.1,0.476
27.32,32146.9,35289.4,0.1909,0.3492,147.2,98.1,0.476
27.34,32198.1,35621.8,0.2609,0.7522,147.2,98.1,0.476
27.36,32311.8,35740.6,0.4168,0.8963,147.2,98.1,0.476
27.38,32293.4,35723.1,0.3916,0.8751,147.2,98.1,0.476
27.4,32231.2,35605.7,0.3063,0.7328,147.2,98.1,0.476
27.42,32164.0,35313.7,0.2143,0.3787,147.2,98.1,0.476
27.44,31981.9,35179.7,-0.0352,0.2162,147.2,98.1,0.476
27.46,32074.8,35178.2,0.0921,0.2143,147.2,98.1,0.476
27.48,31945.8,35116.7,-0.0845,0.1398,147.2,98.1,0.476
27.5,32012.4,34981.2,0.0067,-0.0244,147.2,98.1,0.476
27.52,31979.2,34962.2,-0.0388,-0.0475,147.2,98.1,0.476
27.54,31917.9,34739.8,-0.1228,-0.3172,147.2,98.1,0.476
27.56,31839.3,34746.5,-0.2304,-0.309,147.2,98.1,0.476
27.58,31844.3,34658.8,-0.2235,-0.4153,147.2,98.1,0.476
27.6,31893.4,34714.2,-0.1564,-0.3482,147.2,98.1,0.476
27.62,31765.9,34671.8,-0.3309,-0.3996,147.2,98.1,0.476
27.64,31816.8,34506.6,-0.2613,-0.5999,147.2,98.1,0.476
27.66,31761.1,34444.0,-0.3375,-0.6758,147.2,98.1,0.476
27.68,31821.5,34521.3,-0.2548,-0.5821,147.2,98.1,0.476
27.7,31835.1,34776.5,-0.2362,-0.2727,147.2,98.1,0.476
27.72,32135.4,35172.4,0.175,0.2073,147.2,98.1,0.476
27.74,32172.9,35476.7,0.2265,0.5763,147.2,98.1,0.476
27.76,32380.9,35758.6,0.5114,0.9181,147.2,98.1,0.476
27.78,32336.2,35759.1,0.4502,0.9188,147.2,98.1,0.476
27.8,32225.4,35609.5,0.2984,0.7374,147.2,98.1,0.476
27.82,32114.4,35385.2,0.1463,0.4654,147.2,98.1,0.476
27.84,32075.0,35229.9,0.0924,0.277,147.2,98.1,0.476
27.86,32017.8,35139.7,0.014,0.1677,147.2,98.1,0.476
27.88,32117.0,35038.3,0.1499,0.0448,147.2,98.1,0.476
27.9,31919.5,35006.2,-0.1206,0.0058,147.2,98.1,0.476
27.92,31895.8,35015.9,-0.153,0.0176,147.2,98.1,0.476
27.94,31834.3,34845.5,-0.2373,-0.189,147.2,98.1,0.476
27.96,31858.9,34656.4,-0.2036,-0.4183,147.2,98.1,0.476
27.98,31853.0,34653.8,-0.2116,-0.4214,147.2,98.1,0.476
28.0,31808.7,34766.9,-0.2724,-0.2843,147.2,98.1,0.476
28.02,31814.5,34629.8,-0.2644,-0.4505,147.2,98.1,0.476
28.04,31715.2,34549.9,-0.4004,-0.5474,147.2,98.1,0.476
28.06,31747.0,34456.5,-0.3569,-0.6606,147.2,98.1,0.476
28.08,31805.2,34510.1,-0.2771,-0.5956,147.2,98.1,0.476
28.1,31857.7,34649.2,-0.2052,-0.427,147.2,98.1,0.476
28.12,32004.4,34994.2,-0.0044,-0.0087,147.2,98.1,0.476
28.14,32139.1,35388.0,0.1802,0.4688,147.2,98.1,0.476
28.16,32317.4,35652.6,0.4244,0.7896,147.2,98.1,0.476
28.18,32358.7,35718.7,0.4809,0.8697,147.2,98.1,0.476
28.2,32373.1,35767.8,0.5007,0.9292,147.2,98.1,0.476
28.22,32343.5,35468.5,0.4601,0.5663,147.2,98.1,0.476
28.24,32065.1,35298.6,0.0788,0.3603,147.2,98.1,0.476
28.26,32094.8,35184.9,0.1195,0.2225,147.2,98.1,0.476
28.28,32049.3,35099.3,0.0573,0.1187,147.2,98.1,0.476
28.3,32008.5,35034.4,0.0012,0.0401,147.2,98.1,0.476
28.32,31984.1,34907.6,-0.0322,-0.1137,147.2,98.1,0.476
28.34,31892.6,34885.4,-0.1574,-0.1406,147.2,98.1,0.476
28.36,31960.8,34775.8,-0.0641,-0.2735,147.2,98.1,0.476
28.38,31950.3,34540.8,-0.0785,-0.5585,147.2,98.1,0.476
28.4,31874.2,34722.1,-0.1826,-0.3387,147.2,98.1,0.476
28.42,31976.5,34591.3,-0.0425,-0.4972,147.2,98.1,0.476
28.44,31824.2,34578.3,-0.2512,-0.513,147.2,98.1,0.476
28.46,31790.3,34513.7,-0.2976,-0.5913,147.2,98.1,0.476
28.48,31751.6,34400.9,-0.3506,-0.728,147.2,98.1,0.476
28.5,31846.1,34597.6,-0.2211,-0.4896,147.2,98.1,0.476
28.52,31973.1,34850.0,-0.0472,-0.1835,147.2,98.1,0.476
28.54,32112.4,35227.8,0.1436,0.2746,147.2,98.1,0.476
28.56,32273.9,35496.0,0.3649,0.5998,147.2,98.1,0.476
28.58,32249.7,35668.2,0.3317,0.8085,147.2,98.1,0.476
28.6,32373.6,35830.2,0.5014,1.005,147.2,98.1,0.476
28.62,32185.9,35525.6,0.2443,0.6356,147.2,98.1,0.476
28.64,32170.9,35313.5,0.2237,0.3784,147.2,98.1,0.476
28.66,32086.5,35240.5,0.1081,0.2899,147.2,98.1,0.476
28.68,32154.3,35129.8,0.201,0.1557,147.2,98.1,0.476
28.7,32072.9,35055.7,0.0895,0.0658,147.2,98.1,0.476
28.72,32056.0,34992.6,0.0663,-0.0107,147.2,98.1,0.476
28.74,31968.4,34961.9,-0.0537,-0.0479,147.2,98.1,0.476
28.76,31889.7,34783.0,-0.1614,-0.2648,147.2,98.1,0.476
28.78,31883.8,34715.2,-0.1695,-0.347,147.2,98.1,0.476
28.8,31897.8,34766.5,-0.1503,-0.2847,147.2,98.1,0.476
28.82,31803.7,34711.7,-0.2792,-0.3512,147.2,98.1,0.476
28.84,31754.6,34555.5,-0.3464,-0.5407,147.2,98.1,0.476
28.86,31819.6,34554.4,-0.2575,-0.542,147.2,98.1,0.476
28.88,31662.4,34534.3,-0.4728,-0.5663,147.2,98.1,0.476
28.9,31768.4,34577.7,-0.3275,-0.5137,147.2,98.1,0.476
28.92,31846.7,34755.6,-0.2203,-0.298,147.2,98.1,0.476
28.94,31982.2,35076.2,-0.0347,0.0908,147.2,98.1,0.476
28.96,32167.0,35431.0,0.2184,0.5209,147.2,98.1,0.476
28.98,32362.8,35648.7,0.4866,0.7849,147.2,98.1,0.476
29.0,32283.7,35754.6,0.3783,0.9133,147.2,98.1,0.476
29.02,32292.2,35683.9,0.3899,0.8275,147.2,98.1,0.476
29.04,32171.3,35412.5,0.2242,0.4985,147.2,98.1,0.476
29.06,32168.7,35269.4,0.2207,0.325,147.2,98.1,0.476
29.08,32006.5,35182.6,-0.0014,0.2197,147.2,98.1,0.476
29.1,32034.4,35108.8,0.0368,0.1302,147.2,98.1,0.476
29.12,31897.7,34973.3,-0.1505,-0.0341,147.2,98.1,0.476
29.14,31975.3,34951.1,-0.0442,-0.061,147.2,98.1,0.476
29.16,31867.1,34868.9,-0.1923,-0.1606,147.2,98.1,0.476
29.18,31871.1,34729.2,-0.1868,-0.33,147.2,98.1,0.476
29.2,31819.3,34757.5,-0.2579,-0.2957,147.2,98.1,0.476
29.22,31839.3,34568.5,-0.2304,-0.5248,147.2,98.1,0.476
29.24,31878.4,34635.2,-0.1769,-0.4439,147.2,98.1,0.476
29.26,31845.1,34534.6,-0.2225,-0.566,147.2,98.1,0.476
29.28,31697.6,34384.1,-0.4245,-0.7485,147.2,98.1,0.476
29.3,31731.1,34433.0,-0.3786,-0.6891,147.2,98.1,0.476
29.32,31828.1,34581.8,-0.2458,-0.5088,147.2,98.1,0.476
29.34,31997.4,34923.3,-0.0138,-0.0947,147.2,98.1,0.476
29.36,32114.3,35244.5,0.1462,0.2948,147.2,98.1,0.476
29.38,32231.4,35624.5,0.3067,0.7555,147.2,98.1,0.476
29.4,32386.2,35798.2,0.5187,0.9662,147.2,98.1,0.476
29.42,32311.9,35702.9,0.4169,0.8506,147.2,98.1,0.476
29.44,32250.8,35558.7,0.3331,0.6758,147.2,98.1,0.476
29.46,32274.5,35326.7,0.3657,0.3945,147.2,98.1,0.476
29.48,32133.1,35352.7,0.172,0.4259,147.2,98.1,0.476
29.5,32013.3,35142.3,0.0079,0.1708,147.2,98.1,0.476
29.52,32004.2,34978.3,-0.0045,-0.028,147.2,98.1,0.476
29.54,31912.4,35014.8,-0.1303,0.0163,147.2,98.1,0.476
29.56,31821.4,34933.9,-0.2549,-0.0818,147.2,98.1,0.476
29.58,31948.0,34755.2,-0.0816,-0.2985,147.2,98.1,0.476
29.6,31874.1,34690.4,-0.1828,-0.3771,147.2,98.1,0.476
29.62,31849.7,34617.9,-0.2162,-0.465,147.2,98.1,0.476
29.64,31829.8,34651.0,-0.2434,-0.4248,147.2,98.1,0.476
29.66,31847.6,34520.9,-0.219,-0.5826,147.2,98.1,0.476
29.68,31715.8,34488.1,-0.3996,-0.6223,147.2,98.1,0.476
29.7,31751.6,34426.5,-0.3505,-0.6971,147.2,98.1,0.476
29.72,31785.1,34515.5,-0.3047,-0.5891,147.2,98.1,0.476
29.74,31788.8,34829.4,-0.2996,-0.2085,147.2,98.1,0.476
29.76,32072.3,35152.7,0.0887,0.1835,147.2,98.1,0.476
29.78,32201.2,35473.5,0.2652,0.5724,147.2,98.1,0.476
29.8,32282.7,35769.6,0.3768,0.9314,147.2,98.1,0.476
29.82,32417.2,35725.8,0.5612,0.8784,147.2,98.1,0.476
29.84,32303.5,35469.9,0.4054,0.5681,147.2,98.1,0.476
29.86,32197.7,35368.8,0.2604,0.4455,147.2,98.1,0.476
29.88,32097.4,35199.5,0.123,0.2402,147.2,98.1,0.476
29.9,32020.5,35082.6,0.0178,0.0984,147.2,98.1,0.476
29.92,32006.9,35204.0,-0.0009,0.2457,147.2,98.1,0.476
29.94,32083.6,35081.3,0.1042,0.0969,147.2,98.1,0.476
29.96,31917.8,34989.1,-0.1229,-0.0148,147.2,98.1,0.476
29.98,31908.6,34829.7,-0.1356,-0.2082,147.2,98.1,0.476
30.0,32770.7,31400.7,1.0453,-4.3658,147.2,98.1,0.476
30.02,28954.5,35675.4,-4.1816,0.8172,147.2,98.1,0.476
30.04,33002.8,33789.8,1.3632,-1.469,147.2,98.1,0.476
30.06,33095.5,30085.8,1.4901,-5.96,147.2,98.1,0.476
30.08,31764.1,37064.1,-0.3334,2.501,147.2,98.1,0.476
30.1,32996.4,33828.4,1.3544,-1.4222,147.2,98.1,0.476
30.12,31530.1,36049.1,-0.654,1.2704,147.2,98.1,0.476
30.14,33247.3,34401.2,1.698,-0.7277,147.2,98.1,0.476
30.16,31620.4,37150.8,-0.5302,2.6061,147.2,98.1,0.476
30.18,31707.5,38522.3,-0.4109,4.269,147.2,98.1,0.476
30.2,33647.7,35485.9,2.2464,0.5874,147.2,98.1,0.476
30.22,33360.4,39494.1,1.853,5.4474,147.2,98.1,0.476
30.24,33088.9,36037.4,1.4811,1.2562,147.2,98.1,0.476
30.26,30210.0,31984.4,-2.462,-3.6581,147.2,98.1,0.476
30.28,31761.7,36532.7,-0.3367,1.8567,147.2,98.1,0.476
30.3,30620.8,36301.1,-1.8994,1.5759,147.2,98.1,0.476
30.32,31643.5,35216.2,-0.4987,0.2605,147.2,98.1,0.476
30.34,35272.5,36798.0,4.4719,2.1784,147.2,98.1,0.476
30.36,30166.9,34225.7,-2.521,-0.9405,147.2,98.1,0.476
30.38,30245.4,32872.4,-2.4136,-2.5813,147.2,98.1,0.476
30.4,28246.1,37326.0,-5.1519,2.8185,147.2,98.1,0.476
30.42,30746.8,32514.4,-1.7267,-3.0154,147.2,98.1,0.476
30.44,33916.3,35302.8,2.6143,0.3655,147.2,98.1,0.476
30.46,35018.0,38889.2,4.1232,4.7138,147.2,98.1,0.476
30.48,33810.5,36195.7,2.4694,1.4481,147.2,98.1,0.476
30.5,31586.1,36773.9,-0.5773,2.1491,147.2,98.1,0.476
30.52,31500.0,38150.9,-0.6952,3.8187,147.2,98.1,0.476
30.54,30961.9,35119.4,-1.4322,0.1431,147.2,98.1,0.476
30.56,30127.3,34941.2,-2.5753,-0.073,147.2,98.1,0.476
30.58,30363.7,34349.8,-2.2516,-0.79,147.2,98.1,0.476
30.6,32595.5,35594.7,0.8053,0.7194,147.2,98.1,0.476
30.62,30237.9,34547.4,-2.4238,-0.5504,147.2,98.1,0.476
30.64,28740.3,40275.0,-4.475,6.3942,147.2,98.1,0.476
30.66,34748.6,36670.7,3.7544,2.024,147.2,98.1,0.476
30.68,31107.3,34288.3,-1.2331,-0.8646,147.2,98.1,0.476
30.7,29147.6,35754.2,-3.9172,0.9127,147.2,98.1,0.476
30.72,32241.3,33118.4,0.3202,-2.283,147.2,98.1,0.476
30.74,30340.8,34307.2,-2.2829,-0.8417,147.2,98.1,0.476
30.76,31356.5,39168.6,-0.8917,5.0526,147.2,98.1,0.476
30.78,35161.5,34302.1,4.3198,-0.8478,147.2,98.1,0.476
30.8,29433.7,33014.4,-3.5253,-2.4091,147.2,98.1,0.476
30.82,31856.8,32019.7,-0.2065,-3.6152,147.2,98.1,0.476
30.84,30497.5,33960.7,-2.0682,-1.2618,147.2,98.1,0.476
30.86,31003.6,35918.0,-1.375,1.1114,147.2,98.1,0.476
30.88,32000.4,32131.7,-0.0098,-3.4794,147.2,98.1,0.476
30.9,32845.5,31109.2,1.1477,-4.7192,147.2,98.1,0.476
30.92,34794.3,35924.6,3.8169,1.1194,147.2,98.1,0.476
30.94,36796.7,38800.1,6.5595,4.6058,147.2,98.1,0.476
30.96,31999.9,34977.9,-0.0104,-0.0284,147.2,98.1,0.476
30.98,33678.5,35831.8,2.2887,1.0068,147.2,98.1,0.476
31.0,33939.9,39198.9,2.6467,5.0894,147.2,98.1,0.476
31.02,35578.8,34750.6,4.8914,-0.3041,147.2,98.1,0.476
31.04,33276.2,34593.6,1.7376,-0.4944,147.2,98.1,0.476
31.06,30119.4,39508.8,-2.5862,5.4651,147.2,98.1,0.476
31.08,32126.3,32541.9,0.1627,-2.982,147.2,98.1,0.476
31.1,33127.4,34840.0,1.5338,-0.1957,147.2,98.1,0.476
31.12,31458.8,34347.3,-0.7516,-0.793,147.2,98.1,0.476
31.14,34127.8,34865.6,2.904,-0.1646,147.2,98.1,0.476
31.16,27790.3,32827.8,-5.7762,-2.6354,147.2,98.1,0.476
31.18,33487.6,35294.9,2.0272,0.3559,147.2,98.1,0.476
31.2,29386.6,36012.2,-3.5898,1.2256,147.2,98.1,0.476
31.22,29704.2,31715.4,-3.1548,-3.9841,147.2,98.1,0.476
31.24,32886.7,35172.0,1.2042,0.2068,147.2,98.1,0.476
31.26,30774.4,32622.8,-1.689,-2.8839,147.2,98.1,0.476
31.28,33155.1,32939.7,1.5718,-2.4997,147.2,98.1,0.476
31.3,28867.4,34422.2,-4.3009,-0.7023,147.2,98.1,0.476
31.32,25287.2,33526.4,-9.2046,-1.7884,147.2,98.1,0.476
31.34,34647.7,35120.1,3.6162,0.1439,147.2,98.1,0.476
31.36,34966.1,33972.0,4.0522,-1.2481,147.2,98.1,0.476
31.38,34346.1,34442.6,3.203,-0.6775,147.2,98.1,0.476
31.4,30680.1,36907.1,-1.8181,2.3106,147.2,98.1,0.476
31.42,33206.8,34206.4,1.6426,-0.9638,147.2,98.1,0.476
31.44,30951.3,36131.3,-1.4467,1.37,147.2,98.1,0.476
31.46,32268.0,36649.3,0.3567,1.9981,147.2,98.1,0.476
31.48,33702.1,32023.6,2.321,-3.6104,147.2,98.1,0.476
31.5,30894.7,37112.0,-1.5242,2.5591,147.2,98.1,0.476
31.52,33829.3,35456.6,2.4952,0.552,147.2,98.1,0.476
31.54,30667.9,38113.3,-1.8349,3.7731,147.2,98.1,0.476
31.56,33417.6,31694.7,1.9313,-4.0092,147.2,98.1,0.476
31.58,30517.7,36129.5,-2.0406,1.3678,147.2,98.1,0.476
31.6,31295.0,34519.9,-0.9759,-0.5838,147.2,98.1,0.476
31.62,31535.3,32101.0,-0.6469,-3.5167,147.2,98.1,0.476
31.64,30539.5,33780.6,-2.0107,-1.4802,147.2,98.1,0.476
31.66,32241.6,32674.6,0.3205,-2.8212,147.2,98.1,0.476
31.68,35076.5,35166.2,4.2034,0.1999,147.2,98.1,0.476
31.7,33166.8,34326.1,1.5879,-0.8187,147.2,98.1,0.476
31.72,35126.8,37591.3,4.2723,3.1402,147.2,98.1,0.476
31.74,36120.8,34171.5,5.6337,-1.0062,147.2,98.1,0.476
31.76,35479.8,31501.9,4.7558,-4.2431,147.2,98.1,0.476
31.78,30891.9,34044.7,-1.528,-1.1599,147.2,98.1,0.476
31.8,34083.8,32283.7,2.8437,-3.2951,147.2,98.1,0.476
31.82,30953.8,36162.5,-1.4433,1.4078,147.2,98.1,0.476
31.84,30862.4,39673.4,-1.5684,5.6647,147.2,98.1,0.476
31.86,32038.8,33173.4,0.0429,-2.2163,147.2,98.1,0.476
31.88,37241.4,33895.5,7.1687,-1.3409,147.2,98.1,0.476
31.9,32577.9,35023.0,0.7811,0.0263,147.2,98.1,0.476
31.92,32125.1,33737.9,0.161,-1.532,147.2,98.1,0.476
31.94,36597.2,34620.9,6.2862,-0.4614,147.2,98.1,0.476
31.96,33662.9,35585.2,2.2672,0.7078,147.2,98.1,0.476
31.98,33080.2,34347.0,1.4692,-0.7934,147.2,98.1,0.476
32.0,29802.7,32891.8,-3.0198,-2.5578,147.2,98.1,0.476
32.02,33331.7,37986.9,1.8137,3.6198,147.2,98.1,0.476
32.04,33092.8,32585.1,1.4864,-2.9297,147.2,98.1,0.476
32.06,30855.5,34670.6,-1.5779,-0.4011,147.2,98.1,0.476
32.08,29852.8,32451.1,-2.9512,-3.0922,147.2,98.1,0.476
32.1,32081.1,33825.0,0.1008,-1.4263,147.2,98.1,0.476
32.12,33775.4,34103.4,2.4214,-1.0887,147.2,98.1,0.476
32.14,32697.9,34162.6,0.9456,-1.017,147.2,98.1,0.476
32.16,28871.5,37471.7,-4.2953,2.9952,147.2,98.1,0.476
32.18,34370.9,33877.8,3.237,-1.3623,147.2,98.1,0.476
32.2,32700.7,33112.6,0.9493,-2.2902,147.2,98.1,0.476
32.22,33614.5,32422.7,2.201,-3.1266,147.2,98.1,0.476
32.24,32889.6,35627.4,1.2081,0.759,147.2,98.1,0.476
32.26,32115.0,37032.2,0.1472,2.4623,147.2,98.1,0.476
32.28,35116.6,36894.6,4.2583,2.2954,147.2,98.1,0.476
32.3,30785.5,36252.7,-1.6739,1.5171,147.2,98.1,0.476
32.32,30806.5,35033.4,-1.6451,0.0389,147.2,98.1,0.476
32.34,34550.9,35141.4,3.4835,0.1698,147.2,98.1,0.476
32.36,32856.2,35963.4,1.1623,1.1664,147.2,98.1,0.476
32.38,32672.5,34078.3,0.9107,-1.1192,147.2,98.1,0.476
32.4,33952.1,36515.6,2.6633,1.836,147.2,98.1,0.476
32.42,34190.6,31912.1,2.9901,-3.7457,147.2,98.1,0.476
32.44,31766.4,34628.6,-0.3303,-0.452,147.2,98.1,0.476
32.46,30920.9,33032.7,-1.4883,-2.387,147.2,98.1,0.476
32.48,28485.3,32954.7,-4.8243,-2.4816,147.2,98.1,0.476
32.5,33513.2,35704.2,2.0623,0.8521,147.2,98.1,0.476
32.52,33154.1,37998.8,1.5704,3.6343,147.2,98.1,0.476
32.54,33469.3,33248.0,2.0022,-2.1259,147.2,98.1,0.476
32.56,31639.1,36336.8,-0.5047,1.6192,147.2,98.1,0.476
32.58,29882.8,36886.2,-2.9102,2.2852,147.2,98.1,0.476
32.6,30747.7,37982.0,-1.7256,3.614,147.2,98.1,0.476
32.62,32968.3,37225.5,1.3159,2.6967,147.2,98.1,0.476
32.64,32381.1,35148.1,0.5116,0.1779,147.2,98.1,0.476
32.66,35415.0,35062.4,4.6671,0.0739,147.2,98.1,0.476
32.68,31714.8,33849.5,-0.401,-1.3966,147.2,98.1,0.476
32.7,35053.5,34214.8,4.172,-0.9538,147.2,98.1,0.476
32.72,31009.9,36401.3,-1.3664,1.6973,147.2,98.1,0.476
32.74,28954.8,37893.2,-4.1812,3.5062,147.2,98.1,0.476
32.76,33265.4,33420.8,1.7229,-1.9165,147.2,98.1,0.476
32.78,29468.4,38791.4,-3.4778,4.5953,147.2,98.1,0.476
32.8,32471.4,34713.1,0.6353,-0.3496,147.2,98.1,0.476
32.82,30060.2,33611.6,-2.6672,-1.685,147.2,98.1,0.476
32.84,35071.8,33289.9,4.197,-2.0751,147.2,98.1,0.476
32.86,31841.7,32097.9,-0.2272,-3.5204,147.2,98.1,0.476
32.88,33310.3,34403.0,1.7843,-0.7255,147.2,98.1,0.476
32.9,32387.6,33471.1,0.5205,-1.8554,147.2,98.1,0.476
32.92,31304.0,34362.9,-0.9636,-0.7742,147.2,98.1,0.476
32.94,31677.1,34641.7,-0.4525,-0.4361,147.2,98.1,0.476
32.96,34365.1,36735.6,3.2291,2.1027,147.2,98.1,0.476
32.98,32103.9,35770.2,0.132,0.9322,147.2,98.1,0.476
33.0,34042.1,33657.7,2.7867,-1.6292,147.2,98.1,0.476
33.02,32620.2,31554.5,0.8392,-4.1793,147.2,98.1,0.476
33.04,27435.9,35529.6,-6.2616,0.6405,147.2,98.1,0.476
33.06,33502.3,33343.0,2.0474,-2.0107,147.2,98.1,0.476
33.08,32632.6,33592.9,0.8562,-1.7077,147.2,98.1,0.476
33.1,30655.9,34182.9,-1.8513,-0.9924,147.2,98.1,0.476
33.12,31056.7,35541.0,-1.3024,0.6543,147.2,98.1,0.476
33.14,34935.2,35045.8,4.0099,0.0539,147.2,98.1,0.476
33.16,35018.4,34551.5,4.1239,-0.5455,147.2,98.1,0.476
33.18,31474.2,36220.6,-0.7304,1.4783,147.2,98.1,0.476
33.2,34444.0,33328.2,3.3372,-2.0287,147.2,98.1,0.476
33.22,33055.1,35593.2,1.4347,0.7176,147.2,98.1,0.476
33.24,29949.3,32214.9,-2.8191,-3.3785,147.2,98.1,0.476
33.26,29772.8,35563.6,-3.0608,0.6817,147.2,98.1,0.476
33.28,30873.0,34556.6,-1.554,-0.5393,147.2,98.1,0.476
33.3,34623.0,35653.7,3.5823,0.791,147.2,98.1,0.476
33.32,31377.5,32129.9,-0.8629,-3.4816,147.2,98.1,0.476
33.34,32699.4,33914.1,0.9476,-1.3183,147.2,98.1,0.476
33.36,33681.0,31827.0,2.2921,-3.8489,147.2,98.1,0.476
33.38,30405.4,33299.3,-2.1944,-2.0637,147.2,98.1,0.476
33.4,32491.3,37072.7,0.6626,2.5115,147.2,98.1,0.476
33.42,30726.2,37248.8,-1.755,2.725,147.2,98.1,0.476
33.44,28684.3,34027.9,-4.5517,-1.1803,147.2,98.1,0.476
33.46,34445.5,36961.7,3.3392,2.3768,147.2,98.1,0.476
33.48,32700.4,34265.2,0.9489,-0.8926,147.2,98.1,0.476
33.5,31776.9,35541.6,-0.3159,0.655,147.2,98.1,0.476
33.52,34487.7,36938.4,3.397,2.3486,147.2,98.1,0.476
33.54,33888.4,34275.3,2.5762,-0.8803,147.2,98.1,0.476
33.56,32457.2,34675.9,0.6158,-0.3946,147.2,98.1,0.476
33.58,30885.9,34549.8,-1.5363,-0.5475,147.2,98.1,0.476
33.6,31809.5,35536.5,-0.2712,0.6488,147.2,98.1,0.476
33.62,29817.0,33922.3,-3.0004,-1.3083,147.2,98.1,0.476
33.64,30396.6,32008.5,-2.2065,-3.6288,147.2,98.1,0.476
33.66,34610.7,36654.0,3.5654,2.0037,147.2,98.1,0.476
33.68,33587.2,38077.2,2.1636,3.7293,147.2,98.1,0.476
33.7,31119.3,35188.4,-1.2166,0.2267,147.2,98.1,0.476
33.72,33194.3,36189.0,1.6254,1.4399,147.2,98.1,0.476
33.74,29605.2,36204.5,-3.2904,1.4587,147.2,98.1,0.476
33.76,32560.4,36228.8,0.7573,1.4883,147.2,98.1,0.476
33.78,30575.0,36701.3,-1.9621,2.0612,147.2,98.1,0.476
33.8,29440.4,34762.1,-3.5162,-0.2902,147.2,98.1,0.476
33.82,30481.7,35809.2,-2.0899,0.9794,147.2,98.1,0.476
33.84,34852.2,34647.6,3.8962,-0.429,147.2,98.1,0.476
33.86,31688.3,34825.4,-0.4372,-0.2133,147.2,98.1,0.476
33.88,32201.7,36371.0,0.2659,1.6607,147.2,98.1,0.476
33.9,32162.1,36037.3,0.2117,1.2561,147.2,98.1,0.476
33.92,30385.2,32884.5,-2.2221,-2.5667,147.2,98.1,0.476
33.94,31629.0,33924.6,-0.5184,-1.3055,147.2,98.1,0.476
33.96,32138.8,34808.2,0.1798,-0.2343,147.2,98.1,0.476
33.98,30673.0,36256.0,-1.8279,1.5212,147.2,98.1,0.476
34.0,28802.5,35998.5,-4.3898,1.209,147.2,98.1,0.476
34.02,30264.8,36092.1,-2.387,1.3225,147.2,98.1,0.476
34.04,30456.4,36067.3,-2.1246,1.2925,147.2,98.1,0.476
34.06,28971.5,35326.8,-4.1584,0.3946,147.2,98.1,0.476
34.08,31949.4,34817.3,-0.0796,-0.2232,147.2,98.1,0.476
34.1,32152.1,34433.4,0.1979,-0.6886,147.2,98.1,0.476
34.12,33001.6,36576.8,1.3616,1.9102,147.2,98.1,0.476
34.14,31812.3,30823.6,-0.2674,-5.0655,147.2,98.1,0.476
34.16,29967.8,33401.7,-2.7937,-1.9396,147.2,98.1,0.476
34.18,32554.1,36741.9,0.7486,2.1103,147.2,98.1,0.476
34.2,31085.2,32819.6,-1.2634,-2.6454,147.2,98.1,0.476
34.22,33590.6,33220.7,2.1683,-2.1591,147.2,98.1,0.476
34.24,27109.9,32462.7,-6.7081,-3.0781,147.2,98.1,0.476
34.26,31071.4,37668.4,-1.2823,3.2336,147.2,98.1,0.476
34.28,29328.9,37616.7,-3.6688,3.1711,147.2,98.1,0.476
34.3,33988.6,37498.7,2.7134,3.0279,147.2,98.1,0.476
34.32,30348.4,36422.5,-2.2725,1.7231,147.2,98.1,0.476
34.34,31986.1,33410.3,-0.0294,-1.9291,147.2,98.1,0.476
34.36,28957.5,39212.8,-4.1776,5.1063,147.2,98.1,0.476
34.38,33596.7,33595.1,2.1765,-1.7051,147.2,98.1,0.476
34.4,34001.6,37790.8,2.7312,3.3821,147.2,98.1,0.476
34.42,31455.5,31770.2,-0.7562,-3.9177,147.2,98.1,0.476
34.44,31573.9,35162.8,-0.5939,0.1958,147.2,98.1,0.476
34.46,30159.5,30918.7,-2.5312,-4.9502,147.2,98.1,0.476
34.48,34869.5,34745.3,3.9199,-0.3105,147.2,98.1,0.476
34.5,31214.6,32635.1,-1.086,-2.869,147.2,98.1,0.476
34.52,30988.6,34352.4,-1.3956,-0.7868,147.2,98.1,0.476
34.54,34317.8,34755.0,3.1642,-0.2987,147.2,98.1,0.476
34.56,29282.7,34493.7,-3.7321,-0.6155,147.2,98.1,0.476
34.58,37183.5,35333.5,7.0893,0.4027,147.2,98.1,0.476
34.6,31324.5,35882.7,-0.9356,1.0686,147.2,98.1,0.476
34.62,30060.1,35217.2,-2.6673,0.2617,147.2,98.1,0.476
34.64,29916.4,33975.4,-2.8642,-1.244,147.2,98.1,0.476
34.66,31603.8,33812.2,-0.553,-1.4418,147.2,98.1,0.476
34.68,36223.7,37354.3,5.7747,2.8528,147.2,98.1,0.476
34.7,35655.8,31062.6,4.9969,-4.7757,147.2,98.1,0.476
34.72,32391.5,35739.7,0.5258,0.8952,147.2,98.1,0.476
34.74,35296.6,36008.0,4.5048,1.2205,147.2,98.1,0.476
34.76,35706.8,36878.7,5.0667,2.2763,147.2,98.1,0.476
34.78,29642.7,35011.7,-3.239,0.0126,147.2,98.1,0.476
34.8,31503.0,34550.9,-0.691,-0.5463,147.2,98.1,0.476
34.82,35460.0,36089.9,4.7286,1.3198,147.2,98.1,0.476
34.84,32605.2,36206.6,0.8185,1.4614,147.2,98.1,0.476
34.86,30930.0,34458.1,-1.4759,-0.6587,147.2,98.1,0.476
34.88,29213.0,34887.5,-3.8276,-0.1381,147.2,98.1,0.476
34.9,31850.6,34352.7,-0.215,-0.7865,147.2,98.1,0.476
34.92,29138.7,36027.8,-3.9294,1.2445,147.2,98.1,0.476
34.94,31352.9,34971.0,-0.8967,-0.0368,147.2,98.1,0.476
34.96,31737.5,36742.3,-0.3699,2.1108,147.2,98.1,0.476
34.98,32979.7,37204.8,1.3315,2.6716,147.2,98.1,0.476
35.0,27530.9,35523.9,-6.1315,0.6336,147.2,98.1,0.476
35.02,31797.1,33985.9,-0.2882,-1.2313,147.2,98.1,0.476
35.04,29291.8,35984.9,-3.7197,1.1925,147.2,98.1,0.476
35.06,27821.3,37901.3,-5.7337,3.5161,147.2,98.1,0.476
35.08,31852.2,37487.5,-0.2128,3.0144,147.2,98.1,0.476
35.1,31173.7,34991.8,-1.1421,-0.0116,147.2,98.1,0.476
35.12,34014.1,36081.7,2.7483,1.3099,147.2,98.1,0.476
35.14,30810.0,32883.0,-1.6403,-2.5685,147.2,98.1,0.476
35.16,34845.5,41250.4,3.8871,7.5768,147.2,98.1,0.476
35.18,34922.5,35826.4,3.9925,1.0003,147.2,98.1,0.476
35.2,31110.0,33825.3,-1.2294,-1.4259,147.2,98.1,0.476
35.22,29485.0,38178.7,-3.455,3.8524,147.2,98.1,0.476
35.24,30851.3,36766.3,-1.5837,2.14,147.2,98.1,0.476
35.26,33674.1,31886.2,2.2826,-3.777,147.2,98.1,0.476
35.28,33722.7,35698.4,2.3492,0.8451,147.2,98.1,0.476
35.3,29958.6,37339.0,-2.8064,2.8343,147.2,98.1,0.476
35.32,31585.9,39008.7,-0.5775,4.8588,147.2,98.1,0.476
35.34,31832.3,36081.3,-0.24,1.3093,147.2,98.1,0.476
35.36,34252.7,34906.5,3.0751,-0.1151,147.2,98.1,0.476
35.38,33500.2,31328.5,2.0444,-4.4532,147.2,98.1,0.476
35.4,33914.8,34780.2,2.6122,-0.2682,147.2,98.1,0.476
35.42,30717.0,35511.2,-1.7676,0.6182,147.2,98.1,0.476
35.44,32168.1,37140.9,0.2198,2.5941,147.2,98.1,0.476
35.46,31259.4,36911.5,-1.0247,2.316,147.2,98.1,0.476
35.48,31559.7,35565.8,-0.6133,0.6844,147.2,98.1,0.476
35.5,30997.7,34962.0,-1.3832,-0.0478,147.2,98.1,0.476
35.52,35187.7,36092.4,4.3557,1.3229,147.2,98.1,0.476
35.54,32218.9,35100.9,0.2895,0.1207,147.2,98.1,0.476
35.56,33230.1,37960.2,1.6744,3.5875,147.2,98.1,0.476
35.58,32376.5,31692.0,0.5053,-4.0126,147.2,98.1,0.476
35.6,32283.8,36064.5,0.3783,1.289,147.2,98.1,0.476
35.62,34102.2,38225.0,2.869,3.9086,147.2,98.1,0.476
35.64,33201.3,30506.6,1.6351,-5.4498,147.2,98.1,0.476
35.66,32216.7,35357.7,0.2865,0.4321,147.2,98.1,0.476
35.68,32246.3,35318.3,0.327,0.3842,147.2,98.1,0.476
35.7,32797.5,38954.0,1.0819,4.7924,147.2,98.1,0.476
35.72,33526.4,35640.5,2.0803,0.7749,147.2,98.1,0.476
35.74,32518.9,35333.5,0.7004,0.4027,147.2,98.1,0.476
35.76,34604.2,35793.1,3.5565,0.9599,147.2,98.1,0.476
35.78,34363.4,34588.5,3.2268,-0.5006,147.2,98.1,0.476
35.8,33357.5,31146.0,1.849,-4.6746,147.2,98.1,0.476
35.82,28033.3,32136.3,-5.4434,-3.4739,147.2,98.1,0.476
35.84,32088.9,35345.0,0.1114,0.4166,147.2,98.1,0.476
35.86,29035.0,38652.6,-4.0714,4.427,147.2,98.1,0.476
35.88,32909.9,34148.5,1.2359,-1.034,147.2,98.1,0.476
35.9,33759.7,35610.6,2.3998,0.7386,147.2,98.1,0.476
35.92,33060.8,33399.3,1.4426,-1.9425,147.2,98.1,0.476
35.94,32185.0,35529.4,0.2431,0.6402,147.2,98.1,0.476
35.96,35565.3,34935.1,4.8729,-0.0804,147.2,98.1,0.476
35.98,32116.2,35426.7,0.1489,0.5157,147.2,98.1,0.476
36.0,33191.6,36673.6,1.6217,2.0276,147.2,98.1,0.476
36.02,34012.3,33599.9,2.7458,-1.6993,147.2,98.1,0.476
36.04,31035.5,36787.9,-1.3314,2.1661,147.2,98.1,0.476
36.06,32622.3,31356.7,0.842,-4.4191,147.2,98.1,0.476
36.08,32512.1,32766.9,0.6911,-2.7092,147.2,98.1,0.476
36.1,33270.0,32556.1,1.7291,-2.9648,147.2,98.1,0.476
36.12,31205.9,32095.5,-1.098,-3.5233,147.2,98.1,0.476
36.14,29270.7,38248.8,-3.7485,3.9374,147.2,98.1,0.476
36.16,32565.6,33117.9,0.7643,-2.2836,147.2,98.1,0.476
36.18,34741.6,34628.9,3.7448,-0.4516,147.2,98.1,0.476
36.2,31837.7,34824.9,-0.2326,-0.214,147.2,98.1,0.476
36.22,32623.8,34928.6,0.8441,-0.0882,147.2,98.1,0.476
36.24,33059.6,35983.0,1.4409,1.1902,147.2,98.1,0.476
36.26,30182.5,33777.1,-2.4997,-1.4844,147.2,98.1,0.476
36.28,31798.3,36731.9,-0.2865,2.0982,147.2,98.1,0.476
36.3,33149.0,35053.9,1.5635,0.0636,147.2,98.1,0.476
36.32,32121.0,35845.7,0.1555,1.0237,147.2,98.1,0.476
36.34,33745.9,36241.6,2.3809,1.5038,147.2,98.1,0.476
36.36,31075.8,34289.9,-1.2762,-0.8626,147.2,98.1,0.476
36.38,32670.8,36916.3,0.9085,2.3218,147.2,98.1,0.476
36.4,31628.4,31590.8,-0.5193,-4.1352,147.2,98.1,0.476
36.42,32387.1,35022.7,0.5198,0.0259,147.2,98.1,0.476
36.44,33472.4,32707.1,2.0063,-2.7817,147.2,98.1,0.476
36.46,33645.2,34887.4,2.243,-0.1382,147.2,98.1,0.476
36.48,31703.9,35111.1,-0.4158,0.133,147.2,98.1,0.476
36.5,30614.5,35003.1,-1.908,0.0021,147.2,98.1,0.476
36.52,32499.2,38047.2,0.6734,3.6929,147.2,98.1,0.476
36.54,30113.8,34788.5,-2.5937,-0.2581,147.2,98.1,0.476
36.56,34184.5,31477.9,2.9817,-4.2721,147.2,98.1,0.476
36.58,29302.2,34400.9,-3.7054,-0.7281,147.2,98.1,0.476
36.6,27590.5,31888.8,-6.0498,-3.774,147.2,98.1,0.476
36.62,29534.0,35602.0,-3.388,0.7282,147.2,98.1,0.476
36.64,33466.2,38346.6,1.9979,4.056,147.2,98.1,0.476
36.66,31635.7,31049.0,-0.5093,-4.7921,147.2,98.1,0.476
36.68,34579.2,36318.2,3.5223,1.5966,147.2,98.1,0.476
36.7,32897.6,36578.5,1.219,1.9122,147.2,98.1,0.476
36.72,32546.5,33473.4,0.7382,-1.8526,147.2,98.1,0.476
36.74,32198.4,33710.4,0.2614,-1.5653,147.2,98.1,0.476
36.76,32740.8,37504.4,1.0043,3.0348,147.2,98.1,0.476
36.78,26502.3,37403.7,-7.5404,2.9128,147.2,98.1,0.476
36.8,33527.6,35534.8,2.082,0.6468,147.2,98.1,0.476
36.82,34673.6,32637.5,3.6515,-2.8661,147.2,98.1,0.476
36.84,30184.5,36201.7,-2.497,1.4554,147.2,98.1,0.476
36.86,32214.6,35785.5,0.2835,0.9507,147.2,98.1,0.476
36.88,32803.8,33065.5,1.0906,-2.3472,147.2,98.1,0.476
36.9,29072.0,33790.4,-4.0207,-1.4682,147.2,98.1,0.476
36.92,32183.4,31413.4,0.2409,-4.3504,147.2,98.1,0.476
36.94,32902.1,34613.3,1.2253,-0.4705,147.2,98.1,0.476
36.96,28228.7,35297.2,-5.1758,0.3586,147.2,98.1,0.476
36.98,34710.0,33006.4,3.7015,-2.4189,147.2,98.1,0.476
37.0,31230.9,33558.3,-1.0638,-1.7497,147.2,98.1,0.476
37.02,32165.7,33978.8,0.2166,-1.2398,147.2,98.1,0.476
37.04,30162.6,36897.9,-2.527,2.2994,147.2,98.1,0.476
37.06,32227.7,36346.6,0.3015,1.631,147.2,98.1,0.476
37.08,29905.8,35472.0,-2.8787,0.5706,147.2,98.1,0.476
37.1,32825.8,36294.7,1.1207,1.5681,147.2,98.1,0.476
37.12,29777.7,36905.3,-3.0542,2.3084,147.2,98.1,0.476
37.14,29112.4,36015.0,-3.9654,1.229,147.2,98.1,0.476
37.16,30632.1,32735.6,-1.8838,-2.7472,147.2,98.1,0.476
37.18,31222.5,34553.5,-1.0752,-0.543,147.2,98.1,0.476
37.2,31291.5,34709.5,-0.9807,-0.3539,147.2,98.1,0.476
37.22,36081.1,34823.1,5.5794,-0.2162,147.2,98.1,0.476
37.24,29008.4,37308.9,-4.1078,2.7978,147.2,98.1,0.476
37.26,28434.4,30725.3,-4.894,-5.1846,147.2,98.1,0.476
37.28,30070.1,33293.2,-2.6537,-2.0711,147.2,98.1,0.476
37.3,30602.1,34374.7,-1.925,-0.7598,147.2,98.1,0.476
37.32,30620.8,39651.9,-1.8994,5.6387,147.2,98.1,0.476
37.34,31299.2,32607.8,-0.9701,-2.9022,147.2,98.1,0.476
37.36,29328.0,31228.8,-3.6701,-4.5741,147.2,98.1,0.476
37.38,32501.4,36148.9,0.6764,1.3913,147.2,98.1,0.476
37.4,33409.9,34525.1,1.9208,-0.5775,147.2,98.1,0.476
37.42,30064.5,35518.8,-2.6613,0.6273,147.2,98.1,0.476
37.44,29532.0,33933.1,-3.3907,-1.2953,147.2,98.1,0.476
37.46,27318.7,37133.3,-6.4221,2.5849,147.2,98.1,0.476
37.48,30310.5,36188.4,-2.3244,1.4393,147.2,98.1,0.476
37.5,33938.3,35116.7,2.6444,0.1398,147.2,98.1,0.476
37.52,32620.3,36002.5,0.8393,1.2139,147.2,98.1,0.476
37.54,37594.7,36591.7,7.6525,1.9283,147.2,98.1,0.476
37.56,35694.4,32372.9,5.0497,-3.187,147.2,98.1,0.476
37.58,32885.8,35070.3,1.2029,0.0835,147.2,98.1,0.476
37.6,35683.2,35462.0,5.0344,0.5585,147.2,98.1,0.476
37.62,30960.7,39821.1,-1.4339,5.8438,147.2,98.1,0.476
37.64,28980.3,32269.2,-4.1463,-3.3127,147.2,98.1,0.476
37.66,37685.6,38264.8,7.777,3.9568,147.2,98.1,0.476
37.68,32630.6,36475.8,0.8533,1.7877,147.2,98.1,0.476
37.7,30427.1,36488.2,-2.1646,1.8028,147.2,98.1,0.476
37.72,29097.2,36046.6,-3.9861,1.2672,147.2,98.1,0.476
37.74,33023.2,34322.8,1.391,-0.8228,147.2,98.1,0.476
37.76,32657.6,35613.3,0.8904,0.742,147.2,98.1,0.476
37.78,31473.5,29339.2,-0.7315,-6.8653,147.2,98.1,0.476
37.8,30994.7,33928.9,-1.3873,-1.3003,147.2,98.1,0.476
37.82,32786.6,33684.3,1.067,-1.597,147.2,98.1,0.476
37.84,32621.4,33786.1,0.8408,-1.4735,147.2,98.1,0.476
37.86,33605.8,33812.6,2.1891,-1.4414,147.2,98.1,0.476
37.88,31374.3,37609.4,-0.8674,3.1621,147.2,98.1,0.476
37.9,34625.9,34053.9,3.5863,-1.1488,147.2,98.1,0.476
37.92,32188.0,35314.1,0.2471,0.3792,147.2,98.1,0.476
37.94,30412.9,36018.9,-2.1841,1.2337,147.2,98.1,0.476
37.96,32108.9,35763.6,0.1388,0.9241,147.2,98.1,0.476
37.98,29276.2,33117.1,-3.741,-2.2846,147.2,98.1,0.476
38.0,29943.6,36486.5,-2.8269,1.8007,147.2,98.1,0.476
38.02,32566.4,36939.5,0.7654,2.3499,147.2,98.1,0.476
38.04,32265.0,34338.3,0.3526,-0.804,147.2,98.1,0.476
38.06,30832.0,35696.7,-1.6101,0.843,147.2,98.1,0.476
38.08,30576.1,31663.6,-1.9606,-4.047,147.2,98.1,0.476
38.1,33259.3,34569.1,1.7145,-0.5241,147.2,98.1,0.476
38.12,28719.4,37811.4,-4.5037,3.407,147.2,98.1,0.476
38.14,32241.6,32231.8,0.3205,-3.3581,147.2,98.1,0.476
38.16,33939.0,35075.6,2.6455,0.09,147.2,98.1,0.476
38.18,33887.4,35518.7,2.5748,0.6273,147.2,98.1,0.476
38.2,30987.8,34996.3,-1.3967,-0.0062,147.2,98.1,0.476
38.22,32661.9,34356.1,0.8962,-0.7823,147.2,98.1,0.476
38.24,33722.1,33731.7,2.3484,-1.5394,147.2,98.1,0.476
38.26,35872.2,32610.1,5.2933,-2.8994,147.2,98.1,0.476
38.28,32373.5,33974.5,0.5013,-1.2451,147.2,98.1,0.476
38.3,36392.6,35254.2,6.0061,0.3065,147.2,98.1,0.476
38.32,32790.1,34820.6,1.0719,-0.2191,147.2,98.1,0.476
38.34,33118.4,33154.2,1.5215,-2.2397,147.2,98.1,0.476
38.36,34108.5,40524.4,2.8775,6.6965,147.2,98.1,0.476
38.38,28834.0,31881.9,-4.3467,-3.7823,147.2,98.1,0.476
38.4,33010.8,34190.1,1.3741,-0.9836,147.2,98.1,0.476
38.42,32973.7,34343.3,1.3233,-0.7979,147.2,98.1,0.476
38.44,33589.6,35131.2,2.1668,0.1574,147.2,98.1,0.476
38.46,33330.5,38304.3,1.812,4.0048,147.2,98.1,0.476
38.48,35959.1,34694.4,5.4123,-0.3722,147.2,98.1,0.476
38.5,30560.5,34394.7,-1.982,-0.7356,147.2,98.1,0.476
38.52,34003.2,33850.7,2.7334,-1.3952,147.2,98.1,0.476
38.54,32347.2,37526.0,0.4652,3.0611,147.2,98.1,0.476
38.56,32183.4,36170.4,0.2408,1.4175,147.2,98.1,0.476
38.58,29432.6,34593.7,-3.5269,-0.4943,147.2,98.1,0.476
38.6,29782.5,37622.1,-3.0475,3.1776,147.2,98.1,0.476
38.62,35820.4,37206.0,5.2223,2.6731,147.2,98.1,0.476
38.64,27800.7,34492.0,-5.762,-0.6176,147.2,98.1,0.476
38.66,31617.0,32238.5,-0.5349,-3.3499,147.2,98.1,0.476
38.68,34602.5,35146.2,3.5541,0.1756,147.2,98.1,0.476
38.7,34116.7,34733.6,2.8888,-0.3246,147.2,98.1,0.476
38.72,35909.5,33568.1,5.3443,-1.7378,147.2,98.1,0.476
38.74,31165.5,35773.5,-1.1534,0.9361,147.2,98.1,0.476
38.76,32361.8,38310.6,0.4852,4.0124,147.2,98.1,0.476
38.78,29954.9,35434.0,-2.8115,0.5246,147.2,98.1,0.476
38.8,32807.9,38543.4,1.0962,4.2946,147.2,98.1,0.476
38.82,34365.9,37007.7,3.2302,2.4326,147.2,98.1,0.476
38.84,31499.2,34701.4,-0.6962,-0.3637,147.2,98.1,0.476
38.86,28007.4,33038.3,-5.4789,-2.3802,147.2,98.1,0.476
38.88,32982.9,35250.0,1.3359,0.3014,147.2,98.1,0.476
38.9,36113.5,36033.6,5.6238,1.2516,147.2,98.1,0.476
38.92,31668.0,39275.8,-0.4651,5.1826,147.2,98.1,0.476
38.94,32384.0,35342.0,0.5156,0.413,147.2,98.1,0.476
38.96,32942.0,32115.6,1.2799,-3.4989,147.2,98.1,0.476
38.98,31978.9,32043.7,-0.0393,-3.5861,147.2,98.1,0.476
39.0,31995.3,34992.9,-0.0168,-0.0103,147.2,98.1,0.476
39.02,36077.7,38427.2,5.5748,4.1537,147.2,98.1,0.476
39.04,32364.8,34767.9,0.4894,-0.2831,147.2,98.1,0.476
39.06,31128.5,33979.7,-1.204,-1.2387,147.2,98.1,0.476
39.08,33314.0,35817.9,1.7894,0.9901,147.2,98.1,0.476
39.1,34792.6,34512.8,3.8145,-0.5923,147.2,98.1,0.476
39.12,32828.1,36812.9,1.1239,2.1964,147.2,98.1,0.476
39.14,31364.8,34189.9,-0.8804,-0.984,147.2,98.1,0.476
39.16,30807.9,33772.3,-1.6432,-1.4902,147.2,98.1,0.476
39.18,33015.8,33048.7,1.3809,-2.3676,147.2,98.1,0.476
39.2,28560.9,38559.7,-4.7208,4.3143,147.2,98.1,0.476
39.22,33762.5,37556.2,2.4037,3.0976,147.2,98.1,0.476
39.24,33379.2,36447.2,1.8787,1.753,147.2,98.1,0.476
39.26,32803.8,37452.3,1.0907,2.9717,147.2,98.1,0.476
39.28,37481.4,34218.4,7.4974,-0.9493,147.2,98.1,0.476
39.3,29223.1,36132.4,-3.8137,1.3714,147.2,98.1,0.476
39.32,30495.9,38450.1,-2.0705,4.1815,147.2,98.1,0.476
39.34,32198.7,32852.1,0.2619,-2.606,147.2,98.1,0.476
39.36,30563.8,31286.1,-1.9774,-4.5047,147.2,98.1,0.476
39.38,31535.9,35028.9,-0.646,0.0334,147.2,98.1,0.476
39.4,30345.1,36348.6,-2.277,1.6335,147.2,98.1,0.476
39.42,33125.2,36646.4,1.5308,1.9945,147.2,98.1,0.476
39.44,34397.1,33996.1,3.2728,-1.2188,147.2,98.1,0.476
39.46,29255.9,35691.0,-3.7688,0.8362,147.2,98.1,0.476
39.48,29550.0,31545.1,-3.366,-4.1906,147.2,98.1,0.476
39.5,31407.6,32802.8,-0.8217,-2.6657,147.2,98.1,0.476
39.52,33008.7,37087.8,1.3712,2.5297,147.2,98.1,0.476
39.54,34253.8,33447.3,3.0766,-1.8843,147.2,98.1,0.476
39.56,32346.0,34082.5,0.4636,-1.1142,147.2,98.1,0.476
39.58,31352.0,37977.9,-0.8979,3.6089,147.2,98.1,0.476
39.6,30824.6,39636.0,-1.6202,5.6194,147.2,98.1,0.476
39.62,33473.3,33272.0,2.0076,-2.0968,147.2,98.1,0.476
39.64,29396.0,37497.2,-3.5769,3.0261,147.2,98.1,0.476
39.66,30630.9,34554.0,-1.8855,-0.5424,147.2,98.1,0.476
39.68,33609.6,33512.0,2.1943,-1.8059,147.2,98.1,0.476
39.7,33483.6,32805.2,2.0217,-2.6628,147.2,98.1,0.476
39.72,32687.5,32159.4,0.9313,-3.4458,147.2,98.1,0.476
39.74,28222.0,37292.9,-5.1849,2.7784,147.2,98.1,0.476
39.76,32148.5,34752.2,0.1931,-0.3021,147.2,98.1,0.476
39.78,28465.4,32085.9,-4.8515,-3.535,147.2,98.1,0.476
39.8,29631.1,33791.0,-3.2549,-1.4675,147.2,98.1,0.476
39.82,31684.3,37588.9,-0.4427,3.1373,147.2,98.1,0.476
39.84,30107.2,33227.2,-2.6028,-2.1512,147.2,98.1,0.476
39.86,34481.1,36703.6,3.3879,2.0639,147.2,98.1,0.476
39.88,28076.9,34357.9,-5.3837,-0.7802,147.2,98.1,0.476
39.9,32042.4,36632.0,0.0477,1.977,147.2,98.1,0.476
39.92,32160.2,32718.4,0.2091,-2.7681,147.2,98.1,0.476
39.94,29939.1,36382.8,-2.8331,1.6749,147.2,98.1,0.476
39.96,31242.3,34619.8,-1.0482,-0.4627,147.2,98.1,0.476
39.98,29406.1,35797.4,-3.5631,0.9651,147.2,98.1,0.476
40.0,31846.4,36243.0,-0.2207,1.5055,147.2,98.1,0.476
40.02,33940.8,36697.7,2.648,2.0568,147.2,98.1,0.476
40.04,30308.5,36995.9,-2.3271,2.4182,147.2,98.1,0.476
40.06,29776.3,36081.8,-3.056,1.31,147.2,98.1,0.476
40.08,29657.1,39885.8,-3.2194,5.9223,147.2,98.1,0.476
40.1,30166.6,34354.8,-2.5214,-0.784,147.2,98.1,0.476
40.12,32363.0,34308.9,0.4869,-0.8396,147.2,98.1,0.476
40.14,29869.8,27820.1,-2.9279,-8.7072,147.2,98.1,0.476
40.16,32738.4,33559.1,1.0011,-1.7487,147.2,98.1,0.476
40.18,32869.2,35887.1,1.1801,1.0739,147.2,98.1,0.476
40.2,32936.7,35146.1,1.2726,0.1754,147.2,98.1,0.476
40.22,29660.4,34041.0,-3.2148,-1.1644,147.2,98.1,0.476
40.24,30691.0,36357.9,-1.8032,1.6448,147.2,98.1,0.476
40.26,29035.1,35366.8,-4.0713,0.4431,147.2,98.1,0.476
40.28,32036.0,38244.7,0.039,3.9324,147.2,98.1,0.476
40.3,31024.7,34013.2,-1.3462,-1.1982,147.2,98.1,0.476
40.32,35599.1,34388.5,4.9193,-0.743,147.2,98.1,0.476
40.34,31512.1,34787.0,-0.6786,-0.26,147.2,98.1,0.476
40.36,33467.1,36258.7,1.9991,1.5245,147.2,98.1,0.476
40.38,34080.4,34520.6,2.8391,-0.583,147.2,98.1,0.476
40.4,32780.4,38319.5,1.0586,4.0232,147.2,98.1,0.476
40.42,30467.1,36138.4,-2.1099,1.3786,147.2,98.1,0.476
40.44,31820.0,33409.5,-0.2569,-1.9302,147.2,98.1,0.476
40.46,30950.7,31030.2,-1.4476,-4.815,147.2,98.1,0.476
40.48,31831.9,36703.5,-0.2406,2.0638,147.2,98.1,0.476
40.5,28975.5,37266.9,-4.1529,2.7469,147.2,98.1,0.476
40.52,29039.0,33011.2,-4.0659,-2.413,147.2,98.1,0.476
40.54,33203.2,35037.0,1.6377,0.0432,147.2,98.1,0.476
40.56,33004.3,36289.7,1.3652,1.5621,147.2,98.1,0.476
40.58,31875.6,35523.4,-0.1807,0.633,147.2,98.1,0.476
40.6,35354.5,35780.7,4.5842,0.9449,147.2,98.1,0.476
40.62,31684.7,38663.9,-0.4422,4.4408,147.2,98.1,0.476
40.64,31879.3,34351.1,-0.1756,-0.7884,147.2,98.1,0.476
40.66,33914.3,34186.9,2.6116,-0.9875,147.2,98.1,0.476
40.68,32299.4,34091.9,0.3998,-1.1027,147.2,98.1,0.476
40.7,34234.5,34972.0,3.0501,-0.0356,147.2,98.1,0.476
40.72,32048.2,31074.5,0.0557,-4.7612,147.2,98.1,0.476
40.74,30022.7,32238.4,-2.7186,-3.3501,147.2,98.1,0.476
40.76,32389.2,34359.0,0.5228,-0.7789,147.2,98.1,0.476
40.78,30325.6,34108.8,-2.3037,-1.0822,147.2,98.1,0.476
40.8,34125.0,35690.1,2.9002,0.8351,147.2,98.1,0.476
40.82,33081.4,37918.3,1.4709,3.5367,147.2,98.1,0.476
40.84,28941.7,36743.7,-4.1991,2.1126,147.2,98.1,0.476
40.86,31703.6,34698.6,-0.4163,-0.3672,147.2,98.1,0.476
40.88,32460.7,35862.7,0.6206,1.0443,147.2,98.1,0.476
40.9,33437.8,35854.2,1.959,1.0341,147.2,98.1,0.476
40.92,32355.7,37047.8,0.4768,2.4813,147.2,98.1,0.476
40.94,32446.2,35203.9,0.6009,0.2455,147.2,98.1,0.476
40.96,33332.7,37013.7,1.8151,2.4399,147.2,98.1,0.476
40.98,32809.7,34854.4,1.0986,-0.1783,147.2,98.1,0.476
41.0,34846.2,36962.7,3.888,2.3781,147.2,98.1,0.476
41.02,30625.2,32346.5,-1.8934,-3.219,147.2,98.1,0.476
41.04,28602.3,32228.5,-4.664,-3.3621,147.2,98.1,0.476
41.06,32812.0,35464.9,1.1019,0.5621,147.2,98.1,0.476
41.08,34695.1,31581.1,3.681,-4.147,147.2,98.1,0.476
41.1,31076.2,34895.1,-1.2757,-0.1288,147.2,98.1,0.476
41.12,31954.8,38322.8,-0.0723,4.0271,147.2,98.1,0.476
41.14,33919.3,30115.2,2.6184,-5.9244,147.2,98.1,0.476
41.16,33995.8,36343.0,2.7232,1.6267,147.2,98.1,0.476
41.18,32979.5,35055.8,1.3312,0.066,147.2,98.1,0.476
41.2,32410.7,37722.2,0.5522,3.2989,147.2,98.1,0.476
41.22,28907.8,35876.5,-4.2456,1.0611,147.2,98.1,0.476
41.24,33928.3,36084.2,2.6307,1.3129,147.2,98.1,0.476
41.26,32602.1,32926.9,0.8143,-2.5153,147.2,98.1,0.476
41.28,31776.6,34787.7,-0.3164,-0.259,147.2,98.1,0.476
41.3,32878.6,37050.0,1.193,2.4839,147.2,98.1,0.476
41.32,27733.7,29279.2,-5.8537,-6.938,147.2,98.1,0.476
41.34,33296.9,38241.0,1.7659,3.9279,147.2,98.1,0.476
41.36,32008.5,32581.9,0.0013,-2.9335,147.2,98.1,0.476
41.38,33074.2,35618.3,1.4609,0.748,147.2,98.1,0.476
41.4,31231.0,33569.0,-1.0635,-1.7368,147.2,98.1,0.476
41.42,32467.8,34784.8,0.6304,-0.2626,147.2,98.1,0.476
41.44,31321.6,34496.0,-0.9395,-0.6128,147.2,98.1,0.476
41.46,30438.3,38098.0,-2.1494,3.7546,147.2,98.1,0.476
41.48,30668.0,35545.6,-1.8348,0.6598,147.2,98.1,0.476
41.5,33351.6,36460.3,1.8409,1.7689,147.2,98.1,0.476
41.52,29568.6,36979.4,-3.3405,2.3983,147.2,98.1,0.476
41.54,33029.6,33697.8,1.3998,-1.5805,147.2,98.1,0.476
41.56,29261.4,33183.8,-3.7613,-2.2038,147.2,98.1,0.476
41.58,28728.8,34946.8,-4.4908,-0.0662,147.2,98.1,0.476
41.6,34633.9,36928.9,3.5972,2.3371,147.2,98.1,0.476
41.62,29866.3,36227.3,-2.9328,1.4865,147.2,98.1,0.476
41.64,36367.8,31685.3,5.9721,-4.0207,147.2,98.1,0.476
41.66,30703.5,37295.3,-1.7861,2.7813,147.2,98.1,0.476
41.68,32558.3,35470.9,0.7544,0.5693,147.2,98.1,0.476
41.7,32564.5,35918.5,0.7629,1.112,147.2,98.1,0.476
41.72,29619.5,35073.3,-3.2708,0.0872,147.2,98.1,0.476
41.74,32546.7,28842.2,0.7385,-7.4678,147.2,98.1,0.476
41.76,31365.9,33812.2,-0.8789,-1.4418,147.2,98.1,0.476
41.78,32005.6,35623.2,-0.0027,0.7539,147.2,98.1,0.476
41.8,32296.9,36199.7,0.3963,1.4529,147.2,98.1,0.476
41.82,29940.6,35552.2,-2.8311,0.6679,147.2,98.1,0.476
41.84,32599.3,30378.4,0.8105,-5.6052,147.2,98.1,0.476
41.86,31855.5,33600.4,-0.2082,-1.6987,147.2,98.1,0.476
41.88,32537.3,31930.4,0.7256,-3.7235,147.2,98.1,0.476
41.9,33035.1,32862.7,1.4075,-2.5931,147.2,98.1,0.476
41.92,31707.3,35891.8,-0.4112,1.0796,147.2,98.1,0.476
41.94,34291.9,33037.1,3.1288,-2.3816,147.2,98.1,0.476
41.96,31638.4,32397.2,-0.5056,-3.1575,147.2,98.1,0.476
41.98,34597.3,37411.0,3.5471,2.9216,147.2,98.1,0.476
42.0,34364.9,39372.3,3.2288,5.2997,147.2,98.1,0.476
42.02,33406.9,33639.3,1.9166,-1.6515,147.2,98.1,0.476
42.04,34943.0,37078.9,4.0205,2.519,147.2,98.1,0.476
42.06,34094.2,37085.0,2.8579,2.5264,147.2,98.1,0.476
42.08,32016.3,37823.1,0.0119,3.4212,147.2,98.1,0.476
42.1,30586.0,34621.6,-1.947,-0.4604,147.2,98.1,0.476
42.12,33381.9,33131.2,1.8824,-2.2675,147.2,98.1,0.476
42.14,31989.4,35875.1,-0.0248,1.0594,147.2,98.1,0.476
42.16,34369.7,35027.9,3.2354,0.0322,147.2,98.1,0.476
42.18,35361.8,31904.9,4.5942,-3.7544,147.2,98.1,0.476
42.2,34906.4,35081.1,3.9704,0.0966,147.2,98.1,0.476
42.22,30524.3,38582.0,-2.0315,4.3415,147.2,98.1,0.476
42.24,30237.0,35191.4,-2.425,0.2304,147.2,98.1,0.476
42.26,30824.4,34556.3,-1.6206,-0.5397,147.2,98.1,0.476
42.28,31283.1,35857.9,-0.9922,1.0385,147.2,98.1,0.476
42.3,33177.3,32523.8,1.6022,-3.004,147.2,98.1,0.476
42.32,32782.1,34283.8,1.0608,-0.87,147.2,98.1,0.476
42.34,31065.1,31334.7,-1.2909,-4.4457,147.2,98.1,0.476
42.36,34937.1,31903.8,4.0125,-3.7557,147.2,98.1,0.476
42.38,33819.8,30405.1,2.4822,-5.5728,147.2,98.1,0.476
42.4,36286.0,35091.9,5.86,0.1098,147.2,98.1,0.476
42.42,32496.6,35778.5,0.6698,0.9423,147.2,98.1,0.476
42.44,28628.3,34318.1,-4.6285,-0.8284,147.2,98.1,0.476
42.46,30806.8,36668.8,-1.6445,2.0218,147.2,98.1,0.476
42.48,30177.3,34746.0,-2.5068,-0.3097,147.2,98.1,0.476
42.5,28627.6,34203.7,-4.6294,-0.9671,147.2,98.1,0.476
42.52,33305.9,36924.8,1.7783,2.3321,147.2,98.1,0.476
42.54,27190.3,33424.9,-6.598,-1.9114,147.2,98.1,0.476
42.56,31061.8,36494.7,-1.2953,1.8106,147.2,98.1,0.476
42.58,33440.3,31287.3,1.9625,-4.5032,147.2,98.1,0.476
42.6,32271.1,35158.3,0.361,0.1902,147.2,98.1,0.476
42.62,27304.4,30415.8,-6.4418,-5.5599,147.2,98.1,0.476
42.64,31101.0,37959.5,-1.2416,3.5867,147.2,98.1,0.476
42.66,30690.8,35615.1,-1.8035,0.7442,147.2,98.1,0.476
42.68,34424.5,37084.8,3.3103,2.5261,147.2,98.1,0.476
42.7,31267.4,34563.5,-1.0137,-0.5309,147.2,98.1,0.476
42.72,32243.7,34951.1,0.3234,-0.0609,147.2,98.1,0.476
42.74,32023.8,30875.2,0.0223,-5.0029,147.2,98.1,0.476
42.76,31513.9,36430.8,-0.6762,1.7331,147.2,98.1,0.476
42.78,36282.7,32188.5,5.8555,-3.4105,147.2,98.1,0.476
42.8,32724.3,38051.2,0.9818,3.6978,147.2,98.1,0.476
42.82,30883.2,34934.2,-1.54,-0.0815,147.2,98.1,0.476
42.84,31322.6,34926.9,-0.9382,-0.0903,147.2,98.1,0.476
42.86,31544.7,39552.7,-0.6339,5.5184,147.2,98.1,0.476
42.88,31366.7,39773.8,-0.8778,5.7864,147.2,98.1,0.476
42.9,33745.2,29503.6,2.38,-6.6659,147.2,98.1,0.476
42.92,32028.0,35990.6,0.0281,1.1994,147.2,98.1,0.476
42.94,26691.2,33422.9,-7.2815,-1.9138,147.2,98.1,0.476
42.96,35123.8,31777.8,4.2681,-3.9084,147.2,98.1,0.476
42.98,30384.4,33615.8,-2.2231,-1.6799,147.2,98.1,0.476
43.0,32138.7,33932.5,0.1797,-1.2959,147.2,98.1,0.476
43.02,29399.4,34590.8,-3.5722,-0.4978,147.2,98.1,0.476
43.04,29620.9,33370.6,-3.2689,-1.9772,147.2,98.1,0.476
43.06,33882.2,31483.7,2.5676,-4.2651,147.2,98.1,0.476
43.08,33586.4,36047.3,2.1625,1.2682,147.2,98.1,0.476
43.1,31684.8,33265.7,-0.442,-2.1044,147.2,98.1,0.476
43.12,34000.6,30808.7,2.7298,-5.0836,147.2,98.1,0.476
43.14,29917.3,33836.7,-2.863,-1.4122,147.2,98.1,0.476
43.16,32699.8,33662.0,0.9482,-1.624,147.2,98.1,0.476
43.18,32563.0,33688.2,0.7608,-1.5922,147.2,98.1,0.476
43.2,31131.8,34285.0,-1.1995,-0.8686,147.2,98.1,0.476
43.22,34046.5,32987.5,2.7927,-2.4418,147.2,98.1,0.476
43.24,31289.1,37915.5,-0.984,3.5333,147.2,98.1,0.476
43.26,30218.5,34106.8,-2.4504,-1.0846,147.2,98.1,0.476
43.28,35295.5,38351.1,4.5034,4.0614,147.2,98.1,0.476
43.3,31560.3,32769.1,-0.6126,-2.7066,147.2,98.1,0.476
43.32,32709.1,35564.3,0.9609,0.6825,147.2,98.1,0.476
43.34,33888.5,37337.4,2.5762,2.8324,147.2,98.1,0.476
43.36,32726.1,33275.8,0.9842,-2.0923,147.2,98.1,0.476
43.38,33718.6,33437.5,2.3436,-1.8962,147.2,98.1,0.476
43.4,31423.6,35610.2,-0.7998,0.7382,147.2,98.1,0.476
43.42,31795.1,33654.9,-0.2909,-1.6326,147.2,98.1,0.476
43.44,34110.6,35870.0,2.8805,1.0532,147.2,98.1,0.476
43.46,30200.5,34043.2,-2.4751,-1.1618,147.2,98.1,0.476
43.48,29053.0,35316.7,-4.0468,0.3823,147.2,98.1,0.476
43.5,28353.3,37830.7,-5.0051,3.4305,147.2,98.1,0.476
43.52,33008.2,38393.6,1.3706,4.1129,147.2,98.1,0.476
43.54,31917.5,36310.6,-0.1234,1.5874,147.2,98.1,0.476
43.56,31302.4,32183.4,-0.9659,-3.4167,147.2,98.1,0.476
43.58,28921.3,39466.0,-4.2271,5.4132,147.2,98.1,0.476
43.6,33826.8,30610.4,2.4918,-5.3239,147.2,98.1,0.476
43.62,29738.8,34753.6,-3.1074,-0.3004,147.2,98.1,0.476
43.64,31162.1,41032.5,-1.158,7.3126,147.2,98.1,0.476
43.66,33719.9,36646.0,2.3453,1.9941,147.2,98.1,0.476
43.68,32657.8,33700.1,0.8907,-1.5778,147.2,98.1,0.476
43.7,32658.9,35477.0,0.8921,0.5767,147.2,98.1,0.476
43.72,34033.2,34947.0,2.7745,-0.066,147.2,98.1,0.476
43.74,33850.4,35397.5,2.5241,0.4802,147.2,98.1,0.476
43.76,29308.0,36520.9,-3.6975,1.8424,147.2,98.1,0.476
43.78,33546.5,34416.5,2.1078,-0.7092,147.2,98.1,0.476
43.8,34977.8,33822.7,4.0682,-1.4291,147.2,98.1,0.476
43.82,33594.3,35841.9,2.1733,1.0191,147.2,98.1,0.476
43.84,29115.5,32615.8,-3.9611,-2.8924,147.2,98.1,0.476
43.86,31736.6,36145.4,-0.3711,1.3872,147.2,98.1,0.476
43.88,29477.5,32410.4,-3.4653,-3.1415,147.2,98.1,0.476
43.9,28264.2,31687.2,-5.1272,-4.0183,147.2,98.1,0.476
43.92,35393.1,37111.5,4.6371,2.5585,147.2,98.1,0.476
43.94,33214.5,37817.1,1.6532,3.414,147.2,98.1,0.476
43.96,29908.0,36472.9,-2.8757,1.7842,147.2,98.1,0.476
43.98,29394.2,33279.1,-3.5794,-2.0882,147.2,98.1,0.476
44.0,34534.0,33964.9,3.4604,-1.2567,147.2,98.1,0.476
44.02,30150.8,32769.3,-2.5431,-2.7064,147.2,98.1,0.476
44.04,34577.1,35457.7,3.5194,0.5532,147.2,98.1,0.476
44.06,33747.3,40462.8,2.3829,6.6218,147.2,98.1,0.476
44.08,35159.6,35646.9,4.3172,0.7827,147.2,98.1,0.476
44.1,29982.5,32418.8,-2.7736,-3.1312,147.2,98.1,0.476
44.12,33416.6,37289.7,1.9299,2.7746,147.2,98.1,0.476
44.14,30207.5,37099.8,-2.4655,2.5443,147.2,98.1,0.476
44.16,31850.3,34972.6,-0.2153,-0.0349,147.2,98.1,0.476
44.18,34615.4,38580.3,3.5718,4.3394,147.2,98.1,0.476
44.2,29044.7,32015.3,-4.0581,-3.6206,147.2,98.1,0.476
44.22,30706.9,31712.1,-1.7815,-3.9881,147.2,98.1,0.476
44.24,31283.4,34629.4,-0.9919,-0.451,147.2,98.1,0.476
44.26,33863.2,33970.3,2.5416,-1.2502,147.2,98.1,0.476
44.28,31081.7,36216.0,-1.2681,1.4727,147.2,98.1,0.476
44.3,31706.5,37410.0,-0.4123,2.9203,147.2,98.1,0.476
44.32,34511.2,35060.0,3.4292,0.071,147.2,98.1,0.476
44.34,29260.2,34651.3,-3.763,-0.4245,147.2,98.1,0.476
44.36,32209.6,30290.9,0.2767,-5.7113,147.2,98.1,0.476
44.38,32994.7,33226.0,1.3521,-2.1526,147.2,98.1,0.476
44.4,30030.5,33729.7,-2.7079,-1.5419,147.2,98.1,0.476
44.42,30633.8,34794.2,-1.8816,-0.2512,147.2,98.1,0.476
44.44,38156.3,33918.2,8.4217,-1.3133,147.2,98.1,0.476
44.46,30708.7,35581.7,-1.779,0.7036,147.2,98.1,0.476
44.48,34920.6,39194.7,3.9899,5.0843,147.2,98.1,0.476
44.5,33988.1,35681.1,2.7126,0.8242,147.2,98.1,0.476
44.52,31141.3,35574.5,-1.1865,0.6949,147.2,98.1,0.476
44.54,32859.1,36273.1,1.1664,1.5419,147.2,98.1,0.476
44.56,33313.7,37927.7,1.789,3.5481,147.2,98.1,0.476
44.58,32330.2,34666.2,0.4419,-0.4064,147.2,98.1,0.476
44.6,33135.7,34352.9,1.5452,-0.7863,147.2,98.1,0.476
44.62,31963.8,32974.3,-0.0599,-2.4578,147.2,98.1,0.476
44.64,28506.3,34139.1,-4.7955,-1.0455,147.2,98.1,0.476
44.66,29022.3,35157.6,-4.0888,0.1894,147.2,98.1,0.476
44.68,32063.2,34787.0,0.0762,-0.26,147.2,98.1,0.476
44.7,32062.2,37256.1,0.0748,2.7337,147.2,98.1,0.476
44.72,31960.4,35345.5,-0.0645,0.4172,147.2,98.1,0.476
44.74,26592.0,33710.9,-7.4175,-1.5647,147.2,98.1,0.476
44.76,35551.6,36897.8,4.8542,2.2994,147.2,98.1,0.476
44.78,32671.8,33093.4,0.9097,-2.3133,147.2,98.1,0.476
44.8,27463.3,34198.9,-6.2241,-0.9729,147.2,98.1,0.476
44.82,33260.4,34790.3,1.716,-0.2559,147.2,98.1,0.476
44.84,33707.0,34444.5,2.3277,-0.6752,147.2,98.1,0.476
44.86,29020.9,37570.1,-4.0907,3.1145,147.2,98.1,0.476
44.88,32449.7,38679.0,0.6057,4.459,147.2,98.1,0.476
