timestamp,raw_red,raw_ir,filtered_red,filtered_ir,heart_rate,spo2,ac_dc_ratio
0.0,32059.2,35169.2,0.2934,0.4144,144.7,96.6,0.538
0.02,32303.6,35508.2,1.4798,1.248,144.7,96.6,0.538
0.04,32369.8,35750.5,1.8014,1.8439,144.7,96.6,0.538
0.06,32478.8,35750.9,2.3306,1.8447,144.7,96.6,0.538
0.08,32234.2,35551.9,1.1429,1.3554,144.7,96.6,0.538
0.1,32210.9,35389.3,1.0297,0.9558,144.7,96.6,0.538
0.12,32089.6,35235.9,0.4408,0.5785,144.7,96.6,0.538
0.14,32126.2,35124.3,0.6186,0.3042,144.7,96.6,0.538
0.16,31992.0,35020.8,-0.0329,0.0495,144.7,96.6,0.538
0.18,31950.0,34957.1,-0.2371,-0.1071,144.7,96.6,0.538
0.2,31989.3,34936.7,-0.0464,-0.1572,144.7,96.6,0.538
0.22,31851.7,34865.1,-0.7142,-0.3333,144.7,96.6,0.538
0.24,31958.4,34728.6,-0.1964,-0.6689,144.7,96.6,0.538
0.26,31769.5,34680.7,-1.1132,-0.7866,144.7,96.6,0.538
0.28,31817.6,34720.3,-0.88,-0.6893,144.7,96.6,0.538
0.3,31798.0,34644.6,-0.9752,-0.8754,144.7,96.6,0.538
0.32,31798.8,34547.5,-0.9712,-1.1141,144.7,96.6,0.538
0.34,31692.5,34353.3,-1.4871,-1.5917,144.7,96.6,0.538
0.36,31716.5,34494.2,-1.3709,-1.2453,144.7,96.6,0.538
0.38,31782.6,34642.8,-1.0497,-0.8798,144.7,96.6,0.538
0.4,31946.4,34729.8,-0.2544,-0.6659,144.7,96.6,0.538
0.42,32081.0,35251.4,0.399,0.6167,144.7,96.6,0.538
0.44,32300.6,35663.5,1.4656,1.63,144.7,96.6,0.538
0.46,32374.1,35706.0,1.8223,1.7344,144.7,96.6,0.538
0.48,32335.3,35669.5,1.634,1.6448,144.7,96.6,0.538
0.5,32248.9,35520.5,1.2142,1.2782,144.7,96.6,0.538
0.52,32236.2,35343.4,1.1527,0.8429,144.7,96.6,0.538
0.54,32099.8,35239.9,0.4902,0.5884,144.7,96.6,0.538
0.56,32091.9,35064.4,0.4522,0.1567,144.7,96.6,0.538
0.58,32087.7,34976.0,0.4318,-0.0605,144.7,96.6,0.538
0.6,31950.9,34954.0,-0.2325,-0.1147,144.7,96.6,0.538
0.62,31920.5,34858.6,-0.3801,-0.3494,144.7,96.6,0.538
0.64,31817.2,34675.6,-0.8817,-0.7992,144.7,96.6,0.538
0.66,31867.3,34803.1,-0.6385,-0.4857,144.7,96.6,0.538
0.68,31793.3,34705.7,-0.9978,-0.7252,144.7,96.6,0.538
0.7,31892.8,34659.9,-0.5149,-0.8378,144.7,96.6,0.538
0.72,31750.8,34613.3,-1.2042,-0.9525,144.7,96.6,0.538
0.74,31684.1,34588.9,-1.5283,-1.0124,144.7,96.6,0.538
0.76,31751.3,34469.5,-1.2018,-1.306,144.7,96.6,0.538
0.78,31698.7,34519.8,-1.4572,-1.1823,144.7,96.6,0.538
0.8,31858.6,34601.5,-0.6809,-0.9815,144.7,96.6,0.538
0.82,31980.8,35010.1,-0.0876,0.0232,144.7,96.6,0.538
0.84,32111.9,35355.1,0.5491,0.8715,144.7,96.6,0.538
0.86,32327.2,35719.0,1.5947,1.7663,144.7,96.6,0.538
0.88,32522.0,35772.8,2.5404,1.8986,144.7,96.6,0.538
0.9,32316.1,35610.6,1.5405,1.4998,144.7,96.6,0.538
0.92,32237.2,35461.0,1.1574,1.1318,144.7,96.6,0.538
0.94,32271.5,35368.0,1.3242,0.9032,144.7,96.6,0.538
0.96,32147.5,35299.3,0.7222,0.7344,144.7,96.6,0.538
0.98,32090.9,35114.4,0.447,0.2797,144.7,96.6,0.538
1.0,31986.7,35100.7,-0.0589,0.246,144.7,96.6,0.538
1.02,31963.6,34940.6,-0.171,-0.1475,144.7,96.6,0.538
1.04,31936.3,34906.1,-0.3037,-0.2325,144.7,96.6,0.538
1.06,31860.9,34799.8,-0.6698,-0.4938,144.7,96.6,0.538
1.08,31849.1,34622.3,-0.7271,-0.9303,144.7,96.6,0.538
1.1,31855.9,34629.5,-0.6937,-0.9127,144.7,96.6,0.538
1.12,31843.5,34681.1,-0.754,-0.7857,144.7,96.6,0.538
1.14,31742.6,34610.5,-1.2439,-0.9594,144.7,96.6,0.538
1.16,31743.8,34510.1,-1.2382,-1.2061,144.7,96.6,0.538
1.18,31741.8,34427.6,-1.2482,-1.409,144.7,96.6,0.538
1.2,31720.1,34565.2,-1.3531,-1.0708,144.7,96.6,0.538
1.22,31853.1,34727.6,-0.7073,-0.6714,144.7,96.6,0.538
1.24,32009.4,35145.9,0.0517,0.3571,144.7,96.6,0.538
1.26,32159.6,35425.1,0.7809,1.0437,144.7,96.6,0.538
1.28,32394.3,35832.4,1.9204,2.0453,144.7,96.6,0.538
1.3,32300.2,35798.5,1.4636,1.9619,144.7,96.6,0.538
1.32,32338.4,35579.7,1.6492,1.4238,144.7,96.6,0.538
1.34,32243.3,35404.3,1.1869,0.9926,144.7,96.6,0.538
1.36,32053.7,35288.8,0.2663,0.7085,144.7,96.6,0.538
1.38,32019.5,35174.9,0.1007,0.4286,144.7,96.6,0.538
1.4,31991.5,34955.4,-0.0354,-0.1113,144.7,96.6,0.538
1.42,32032.0,35061.3,0.1611,0.1492,144.7,96.6,0.538
1.44,32064.7,34850.2,0.3199,-0.37,144.7,96.6,0.538
1.46,31956.2,34836.0,-0.2068,-0.4048,144.7,96.6,0.538
1.48,31842.2,34824.5,-0.7604,-0.433,144.7,96.6,0.538
1.5,31898.3,34651.9,-0.4883,-0.8576,144.7,96.6,0.538
1.52,31937.3,34624.1,-0.2986,-0.9258,144.7,96.6,0.538
1.54,31807.4,34679.8,-0.9292,-0.7889,144.7,96.6,0.538
1.56,31806.5,34548.0,-0.9336,-1.113,144.7,96.6,0.538
1.58,31707.0,34517.9,-1.417,-1.187,144.7,96.6,0.538
1.6,31744.3,34498.1,-1.236,-1.2357,144.7,96.6,0.538
1.62,31820.2,34548.7,-0.8673,-1.1112,144.7,96.6,0.538
1.64,31933.8,34786.3,-0.3159,-0.5271,144.7,96.6,0.538
1.66,32131.6,35179.8,0.6448,0.4405,144.7,96.6,0.538
1.68,32306.9,35535.3,1.4961,1.3147,144.7,96.6,0.538
1.7,32346.7,35710.0,1.6892,1.7442,144.7,96.6,0.538
1.72,32280.0,35741.8,1.3654,1.8224,144.7,96.6,0.538
1.74,32283.7,35525.7,1.3831,1.291,144.7,96.6,0.538
1.76,32171.5,35480.1,0.8386,1.1789,144.7,96.6,0.538
1.78,31979.5,35227.3,-0.0939,0.5572,144.7,96.6,0.538
1.8,32056.2,35119.4,0.2788,0.2919,144.7,96.6,0.538
1.82,32105.6,35105.8,0.5186,0.2585,144.7,96.6,0.538
1.84,32038.6,34911.0,0.193,-0.2204,144.7,96.6,0.538
1.86,31953.5,34779.6,-0.2201,-0.5434,144.7,96.6,0.538
1.88,31942.2,34789.0,-0.2749,-0.5203,144.7,96.6,0.538
1.9,31857.3,34686.0,-0.6869,-0.7736,144.7,96.6,0.538
1.92,31846.3,34691.8,-0.7403,-0.7593,144.7,96.6,0.538
1.94,31853.3,34643.0,-0.7064,-0.8795,144.7,96.6,0.538
1.96,31818.7,34586.3,-0.8744,-1.0189,144.7,96.6,0.538
1.98,31702.7,34573.8,-1.4378,-1.0494,144.7,96.6,0.538
2.0,31830.0,34383.4,-0.8195,-1.5176,144.7,96.6,0.538
2.02,31694.7,34462.8,-1.4766,-1.3226,144.7,96.6,0.538
2.04,31819.1,34620.9,-0.8727,-0.9336,144.7,96.6,0.538
2.06,31994.1,34876.1,-0.0229,-0.3063,144.7,96.6,0.538
2.08,32158.0,35233.6,0.773,0.5729,144.7,96.6,0.538
2.1,32413.0,35516.0,2.011,1.2672,144.7,96.6,0.538
2.12,32429.3,35826.6,2.0904,2.031,144.7,96.6,0.538
2.14,32414.0,35679.8,2.0162,1.67,144.7,96.6,0.538
2.16,32264.2,35588.2,1.2887,1.4448,144.7,96.6,0.538
2.18,32155.2,35407.6,0.7594,1.0008,144.7,96.6,0.538
2.2,32079.0,35205.7,0.3895,0.5041,144.7,96.6,0.538
2.22,32052.6,35146.6,0.2611,0.3589,144.7,96.6,0.538
2.24,31993.8,35066.1,-0.0243,0.161,144.7,96.6,0.538
2.26,31962.3,35006.3,-0.1773,0.0138,144.7,96.6,0.538
2.28,31970.9,34836.4,-0.1357,-0.4039,144.7,96.6,0.538
2.3,31942.4,34775.1,-0.274,-0.5546,144.7,96.6,0.538
2.32,31887.5,34727.5,-0.5406,-0.6717,144.7,96.6,0.538
2.34,31883.0,34708.0,-0.5621,-0.7195,144.7,96.6,0.538
2.36,31738.2,34712.4,-1.2653,-0.7088,144.7,96.6,0.538
2.38,31844.9,34559.2,-0.7476,-1.0856,144.7,96.6,0.538
2.4,31756.8,34435.4,-1.1753,-1.39,144.7,96.6,0.538
2.42,31822.5,34488.4,-0.8563,-1.2596,144.7,96.6,0.538
2.44,31805.0,34614.3,-0.9413,-0.95,144.7,96.6,0.538
2.46,31819.7,34627.1,-0.8698,-0.9186,144.7,96.6,0.538
2.48,31914.6,34996.6,-0.4087,-0.01,144.7,96.6,0.538
2.5,32215.8,35370.0,1.0537,0.9082,144.7,96.6,0.538
2.52,32282.2,35569.8,1.3759,1.3996,144.7,96.6,0.538
2.54,32450.4,35814.4,2.193,2.0009,144.7,96.6,0.538
2.56,32295.6,35672.0,1.4413,1.6507,144.7,96.6,0.538
2.58,32277.4,35466.3,1.3529,1.145,144.7,96.6,0.538
2.6,32204.2,35235.6,0.9972,0.5777,144.7,96.6,0.538
2.62,32047.7,35230.4,0.2374,0.5649,144.7,96.6,0.538
2.64,31970.5,35056.5,-0.1374,0.1373,144.7,96.6,0.538
2.66,32054.8,35027.2,0.2718,0.0652,144.7,96.6,0.538
2.68,31990.1,34974.2,-0.042,-0.065,144.7,96.6,0.538
2.7,31949.9,34930.1,-0.2375,-0.1734,144.7,96.6,0.538
2.72,31867.4,34813.7,-0.6382,-0.4598,144.7,96.6,0.538
2.74,31844.2,34690.9,-0.7506,-0.7616,144.7,96.6,0.538
2.76,31824.8,34644.4,-0.8448,-0.876,144.7,96.6,0.538
2.78,31873.3,34716.1,-0.6095,-0.6997,144.7,96.6,0.538
2.8,31826.5,34537.6,-0.8367,-1.1385,144.7,96.6,0.538
2.82,31755.3,34489.4,-1.1823,-1.257,144.7,96.6,0.538
2.84,31789.9,34445.6,-1.0146,-1.3647,144.7,96.6,0.538
2.86,31740.2,34511.2,-1.2558,-1.2034,144.7,96.6,0.538
2.88,31933.0,34746.8,-0.3195,-0.6241,144.7,96.6,0.538
2.9,32115.2,35015.2,0.565,0.0359,144.7,96.6,0.538
2.92,32217.2,35465.6,1.0605,1.1433,144.7,96.6,0.538
2.94,32307.3,35737.7,1.498,1.8124,144.7,96.6,0.538
2.96,32339.0,35650.4,1.652,1.5977,144.7,96.6,0.538
2.98,32235.5,35717.2,1.1492,1.762,144.7,96.6,0.538
3.0,32161.1,35445.9,0.7881,1.0948,144.7,96.6,0.538
3.02,32100.4,35272.6,0.4933,0.6688,144.7,96.6,0.538
3.04,32086.8,35176.5,0.4271,0.4323,144.7,96.6,0.538
3.06,32050.4,35054.7,0.2503,0.1328,144.7,96.6,0.538
3.08,32089.6,34987.3,0.4409,-0.0328,144.7,96.6,0.538
3.1,31994.7,34925.6,-0.0198,-0.1845,144.7,96.6,0.538
3.12,31821.4,34828.0,-0.8615,-0.4244,144.7,96.6,0.538
3.14,31902.0,34691.9,-0.4699,-0.7591,144.7,96.6,0.538
3.16,31842.5,34635.8,-0.759,-0.8972,144.7,96.6,0.538
3.18,31770.2,34613.1,-1.1101,-0.9529,144.7,96.6,0.538
3.2,31825.7,34653.5,-0.8406,-0.8535,144.7,96.6,0.538
3.22,31836.9,34592.6,-0.7863,-1.0032,144.7,96.6,0.538
3.24,31728.0,34555.4,-1.3148,-1.0947,144.7,96.6,0.538
3.26,31718.5,34413.6,-1.3612,-1.4435,144.7,96.6,0.538
3.28,31735.4,34546.5,-1.2788,-1.1166,144.7,96.6,0.538
3.3,31992.0,34823.6,-0.0331,-0.4352,144.7,96.6,0.538
3.32,32071.0,35225.9,0.3506,0.5539,144.7,96.6,0.538
3.34,32240.2,35644.1,1.172,1.5823,144.7,96.6,0.538
3.36,32288.7,35728.8,1.4078,1.7904,144.7,96.6,0.538
3.38,32370.3,35806.3,1.8038,1.9809,144.7,96.6,0.538
3.4,32269.0,35521.9,1.3121,1.2816,144.7,96.6,0.538
3.42,32145.8,35272.0,0.7139,0.6673,144.7,96.6,0.538
3.44,32065.7,35116.1,0.3246,0.2839,144.7,96.6,0.538
3.46,32125.6,35126.0,0.6159,0.3082,144.7,96.6,0.538
3.48,31991.5,35042.2,-0.0353,0.1021,144.7,96.6,0.538
3.5,31964.8,35022.3,-0.1651,0.0532,144.7,96.6,0.538
3.52,31948.4,34917.6,-0.2448,-0.2043,144.7,96.6,0.538
3.54,31885.5,34743.2,-0.55,-0.6331,144.7,96.6,0.538
3.56,31763.9,34710.9,-1.1409,-0.7124,144.7,96.6,0.538
3.58,31880.7,34644.8,-0.5733,-0.8749,144.7,96.6,0.538
3.6,31878.1,34591.5,-0.5862,-1.006,144.7,96.6,0.538
3.62,31820.6,34601.8,-0.8654,-0.9807,144.7,96.6,0.538
3.64,31813.5,34590.1,-0.8996,-1.0095,144.7,96.6,0.538
3.66,31811.2,34421.1,-0.9111,-1.4249,144.7,96.6,0.538
3.68,31675.7,34499.5,-1.5688,-1.2324,144.7,96.6,0.538
3.7,31856.3,34577.7,-0.6919,-1.0399,144.7,96.6,0.538
3.72,31972.8,34862.6,-0.1261,-0.3393,144.7,96.6,0.538
3.74,32166.0,35407.5,0.8117,1.0005,144.7,96.6,0.538
3.76,32345.4,35670.7,1.6827,1.6476,144.7,96.6,0.538
3.78,32368.9,35810.8,1.7969,1.992,144.7,96.6,0.538
3.8,32269.7,35771.5,1.3152,1.8956,144.7,96.6,0.538
3.82,32220.1,35508.4,1.0748,1.2486,144.7,96.6,0.538
3.84,32135.3,35303.9,0.6628,0.7458,144.7,96.6,0.538
3.86,32011.9,35225.0,0.0634,0.5517,144.7,96.6,0.538
3.88,31929.9,35141.4,-0.3346,0.3461,144.7,96.6,0.538
3.9,32055.7,34993.9,0.2764,-0.0166,144.7,96.6,0.538
3.92,32023.8,34920.6,0.1216,-0.1969,144.7,96.6,0.538
3.94,31920.8,34907.2,-0.3786,-0.2297,144.7,96.6,0.538
3.96,31919.1,34738.5,-0.3872,-0.6445,144.7,96.6,0.538
3.98,31864.8,34732.2,-0.6509,-0.66,144.7,96.6,0.538
4.0,31798.6,34708.2,-0.9721,-0.7191,144.7,96.6,0.538
4.02,31889.8,34633.1,-0.5294,-0.9037,144.7,96.6,0.538
4.04,31812.8,34628.2,-0.9033,-0.9158,144.7,96.6,0.538
4.06,31866.3,34496.1,-0.6433,-1.2407,144.7,96.6,0.538
4.08,31761.5,34400.8,-1.1524,-1.4748,144.7,96.6,0.538
4.1,31737.6,34593.6,-1.2681,-1.0009,144.7,96.6,0.538
4.12,31776.6,34762.1,-1.0791,-0.5866,144.7,96.6,0.538
4.14,31970.9,35035.1,-0.1354,0.0846,144.7,96.6,0.538
4.16,32195.2,35361.6,0.9534,0.8877,144.7,96.6,0.538
4.18,32246.3,35593.1,1.2015,1.4568,144.7,96.6,0.538
4.2,32394.0,35714.4,1.9189,1.7549,144.7,96.6,0.538
4.22,32312.5,35710.7,1.5233,1.7461,144.7,96.6,0.538
4.24,32369.5,35545.4,1.8001,1.3396,144.7,96.6,0.538
4.26,32153.0,35276.6,0.7485,0.6785,144.7,96.6,0.538
4.28,32120.8,35159.1,0.5926,0.3897,144.7,96.6,0.538
4.3,31993.3,35120.8,-0.0269,0.2954,144.7,96.6,0.538
4.32,32024.6,35042.0,0.1252,0.1016,144.7,96.6,0.538
4.34,32045.3,34870.3,0.2256,-0.3206,144.7,96.6,0.538
4.36,31964.8,34828.5,-0.165,-0.4233,144.7,96.6,0.538
4.38,31870.9,34708.9,-0.621,-0.7173,144.7,96.6,0.538
4.4,31863.4,34714.3,-0.6575,-0.7042,144.7,96.6,0.538
4.42,31899.2,34658.5,-0.4837,-0.8414,144.7,96.6,0.538
4.44,31858.1,34577.9,-0.6832,-1.0395,144.7,96.6,0.538
4.46,31772.3,34617.0,-1.0998,-0.9434,144.7,96.6,0.538
4.48,31788.0,34485.2,-1.0235,-1.2675,144.7,96.6,0.538
4.5,31735.5,34489.5,-1.2787,-1.2568,144.7,96.6,0.538
4.52,31698.5,34566.4,-1.458,-1.0679,144.7,96.6,0.538
4.54,31881.1,34806.2,-0.5716,-0.4782,144.7,96.6,0.538
4.56,32021.2,35217.6,0.1086,0.5335,144.7,96.6,0.538
4.58,32235.7,35483.2,1.1502,1.1865,144.7,96.6,0.538
4.6,32259.8,35771.7,1.2672,1.8958,144.7,96.6,0.538
4.62,32422.3,35748.5,2.0564,1.8389,144.7,96.6,0.538
4.64,32358.3,35578.0,1.7456,1.4196,144.7,96.6,0.538
4.66,32249.1,35439.9,1.2153,1.0802,144.7,96.6,0.538
4.68,32132.7,35213.8,0.6502,0.5241,144.7,96.6,0.538
4.7,32058.6,35133.6,0.2903,0.3269,144.7,96.6,0.538
4.72,32036.9,35056.4,0.1848,0.137,144.7,96.6,0.538
4.74,32044.1,35073.6,0.22,0.1793,144.7,96.6,0.538
4.76,32031.8,34887.5,0.1603,-0.2783,144.7,96.6,0.538
4.78,31813.5,34831.3,-0.8997,-0.4164,144.7,96.6,0.538
4.8,31863.0,34763.9,-0.6596,-0.582,144.7,96.6,0.538
4.82,31882.2,34700.5,-0.5662,-0.7381,144.7,96.6,0.538
4.84,31873.5,34670.2,-0.6087,-0.8126,144.7,96.6,0.538
4.86,31814.4,34710.0,-0.8954,-0.7147,144.7,96.6,0.538
4.88,31759.8,34602.2,-1.1606,-0.9797,144.7,96.6,0.538
4.9,31737.2,34395.9,-1.2705,-1.4869,144.7,96.6,0.538
4.92,31620.0,34525.5,-1.8395,-1.1682,144.7,96.6,0.538
4.94,31875.8,34538.9,-0.5971,-1.1353,144.7,96.6,0.538
4.96,31851.1,34915.9,-0.7171,-0.2084,144.7,96.6,0.538
4.98,32122.4,35228.6,0.6,0.5604,144.7,96.6,0.538
5.0,32280.1,35474.9,1.3658,1.1661,144.7,96.6,0.538
5.02,32385.3,35732.4,1.8767,1.7993,144.7,96.6,0.538
5.04,32342.2,35681.9,1.6676,1.6751,144.7,96.6,0.538
5.06,32223.6,35544.9,1.0916,1.3382,144.7,96.6,0.538
5.08,32119.7,35359.1,0.5871,0.8814,144.7,96.6,0.538
5.1,32209.3,35215.4,1.022,0.5281,144.7,96.6,0.538
5.12,32016.3,35103.4,0.0847,0.2526,144.7,96.6,0.538
5.14,32107.8,35039.6,0.529,0.0959,144.7,96.6,0.538
5.16,32023.2,35085.7,0.1185,0.2091,144.7,96.6,0.538
5.18,31915.5,34905.7,-0.4047,-0.2334,144.7,96.6,0.538
5.2,31860.4,34803.4,-0.6723,-0.4851,144.7,96.6,0.538
5.22,31971.2,34721.1,-0.1341,-0.6873,144.7,96.6,0.538
5.24,31826.9,34683.9,-0.8347,-0.7789,144.7,96.6,0.538
5.26,31734.0,34710.3,-1.2856,-0.714,144.7,96.6,0.538
5.28,31764.4,34621.4,-1.1381,-0.9326,144.7,96.6,0.538
5.3,31751.7,34501.4,-1.1999,-1.2277,144.7,96.6,0.538
5.32,31700.0,34335.9,-1.4511,-1.6344,144.7,96.6,0.538
5.34,31677.1,34493.1,-1.5623,-1.248,144.7,96.6,0.538
5.36,31814.8,34606.8,-0.8934,-0.9684,144.7,96.6,0.538
5.38,31911.2,34943.0,-0.4252,-0.1418,144.7,96.6,0.538
5.4,32101.4,35381.5,0.4981,0.9365,144.7,96.6,0.538
5.42,32365.2,35641.6,1.7791,1.5759,144.7,96.6,0.538
5.44,32434.3,35778.4,2.1147,1.9125,144.7,96.6,0.538
5.46,32347.4,35654.4,1.6927,1.6076,144.7,96.6,0.538
5.48,32297.1,35523.0,1.4483,1.2845,144.7,96.6,0.538
5.5,32072.9,35324.8,0.3598,0.7972,144.7,96.6,0.538
5.52,31966.1,35089.8,-0.1586,0.2193,144.7,96.6,0.538
5.54,32136.7,35106.8,0.6696,0.2611,144.7,96.6,0.538
5.56,32141.6,35028.4,0.6933,0.0683,144.7,96.6,0.538
5.58,31927.3,35006.3,-0.3471,0.014,144.7,96.6,0.538
5.6,31922.9,34852.2,-0.3688,-0.365,144.7,96.6,0.538
5.62,31924.6,34799.4,-0.3602,-0.4949,144.7,96.6,0.538
5.64,31789.0,34724.7,-1.0186,-0.6784,144.7,96.6,0.538
5.66,31793.9,34674.4,-0.995,-0.8022,144.7,96.6,0.538
5.68,31808.3,34608.2,-0.9252,-0.965,144.7,96.6,0.538
5.7,31788.8,34616.1,-1.0196,-0.9456,144.7,96.6,0.538
5.72,31729.9,34494.1,-1.3059,-1.2456,144.7,96.6,0.538
5.74,31731.4,34456.9,-1.2984,-1.3369,144.7,96.6,0.538
5.76,31760.6,34464.2,-1.1565,-1.3191,144.7,96.6,0.538
5.78,31874.2,34677.0,-0.6052,-0.7959,144.7,96.6,0.538
5.8,32036.3,35037.0,0.182,0.0895,144.7,96.6,0.538
5.82,32263.3,35320.5,1.2842,0.7866,144.7,96.6,0.538
5.84,32383.5,35700.5,1.8678,1.7208,144.7,96.6,0.538
5.86,32323.8,35725.5,1.578,1.7823,144.7,96.6,0.538
5.88,32248.4,35730.3,1.2119,1.7941,144.7,96.6,0.538
5.9,32204.4,35513.9,0.9985,1.262,144.7,96.6,0.538
5.92,32080.6,35319.7,0.3972,0.7846,144.7,96.6,0.538
5.94,32006.5,35097.7,0.0372,0.2386,144.7,96.6,0.538
5.96,31960.6,35075.5,-0.1858,0.1842,144.7,96.6,0.538
5.98,32049.1,35062.5,0.2442,0.152,144.7,96.6,0.538
6.0,31948.4,34940.8,-0.2448,-0.1472,144.7,96.6,0.538
6.02,31934.1,34901.8,-0.3144,-0.243,144.7,96.6,0.538
6.04,31917.7,34738.3,-0.3941,-0.6452,144.7,96.6,0.538
6.06,31803.6,34715.4,-0.9478,-0.7014,144.7,96.6,0.538
6.08,31851.0,34672.7,-0.7178,-0.8064,144.7,96.6,0.538
6.1,31836.7,34616.9,-0.7871,-0.9437,144.7,96.6,0.538
6.12,31793.4,34605.1,-0.9975,-0.9725,144.7,96.6,0.538
6.14,31859.1,34504.0,-0.6786,-1.2213,144.7,96.6,0.538
6.16,31729.7,34446.9,-1.3065,-1.3616,144.7,96.6,0.538
6.18,31693.5,34521.6,-1.4825,-1.178,144.7,96.6,0.538
6.2,31926.9,34768.0,-0.349,-0.5721,144.7,96.6,0.538
6.22,32059.5,35217.6,0.2949,0.5335,144.7,96.6,0.538
6.24,32278.3,35425.6,1.3569,1.0449,144.7,96.6,0.538
6.26,32431.5,35761.2,2.1011,1.8701,144.7,96.6,0.538
6.28,32412.5,35703.5,2.009,1.7282,144.7,96.6,0.538
6.3,32307.8,35583.5,1.5005,1.4333,144.7,96.6,0.538
6.32,32227.0,35457.6,1.108,1.1237,144.7,96.6,0.538
6.34,32088.1,35207.0,0.4335,0.5074,144.7,96.6,0.538
6.36,32085.0,35141.8,0.4186,0.347,144.7,96.6,0.538
6.38,31994.0,35086.4,-0.0232,0.2109,144.7,96.6,0.538
6.4,32086.1,35077.5,0.4238,0.189,144.7,96.6,0.538
6.42,31944.0,34899.4,-0.2661,-0.249,144.7,96.6,0.538
6.44,31881.8,34762.5,-0.568,-0.5857,144.7,96.6,0.538
6.46,31897.4,34611.6,-0.4925,-0.9565,144.7,96.6,0.538
6.48,31890.2,34680.3,-0.5276,-0.7877,144.7,96.6,0.538
6.5,31783.1,34701.8,-1.0475,-0.7347,144.7,96.6,0.538
6.52,31858.0,34663.8,-0.6838,-0.8283,144.7,96.6,0.538
6.54,31892.0,34542.1,-0.5185,-1.1275,144.7,96.6,0.538
6.56,31780.5,34435.7,-1.06,-1.3892,144.7,96.6,0.538
6.58,31808.7,34420.7,-0.9233,-1.4259,144.7,96.6,0.538
6.6,31699.7,34605.7,-1.4523,-0.9712,144.7,96.6,0.538
6.62,31877.5,34926.9,-0.5891,-0.1813,144.7,96.6,0.538
6.64,32023.6,35153.2,0.1204,0.3752,144.7,96.6,0.538
6.66,32253.9,35494.6,1.2386,1.2147,144.7,96.6,0.538
6.68,32242.3,35775.6,1.1823,1.9056,144.7,96.6,0.538
6.7,32382.6,35679.3,1.8637,1.6689,144.7,96.6,0.538
6.72,32219.0,35522.3,1.069,1.2827,144.7,96.6,0.538
6.74,32108.7,35407.8,0.5338,1.0011,144.7,96.6,0.538
6.76,32085.9,35270.3,0.423,0.663,144.7,96.6,0.538
6.78,32031.2,35100.4,0.1572,0.2453,144.7,96.6,0.538
6.8,32151.7,35120.0,0.7422,0.2935,144.7,96.6,0.538
6.82,31958.4,34950.7,-0.1961,-0.1228,144.7,96.6,0.538
6.84,31920.0,34886.6,-0.3827,-0.2804,144.7,96.6,0.538
6.86,31905.7,34780.0,-0.4523,-0.5425,144.7,96.6,0.538
6.88,31850.5,34673.8,-0.7203,-0.8037,144.7,96.6,0.538
6.9,31812.9,34643.6,-0.9025,-0.8779,144.7,96.6,0.538
6.92,31846.8,34635.3,-0.7379,-0.8983,144.7,96.6,0.538
6.94,31768.4,34608.7,-1.1189,-0.9638,144.7,96.6,0.538
6.96,31785.9,34495.3,-1.0339,-1.2425,144.7,96.6,0.538
6.98,31697.7,34349.1,-1.4623,-1.6022,144.7,96.6,0.538
7.0,31706.5,34475.8,-1.4193,-1.2906,144.7,96.6,0.538
7.02,31792.5,34628.0,-1.0017,-0.9163,144.7,96.6,0.538
7.04,32037.2,34903.9,0.1864,-0.2378,144.7,96.6,0.538
7.06,32178.9,35348.0,0.8747,0.8541,144.7,96.6,0.538
7.08,32283.8,35717.6,1.384,1.763,144.7,96.6,0.538
7.1,32305.7,35761.6,1.4901,1.8711,144.7,96.6,0.538
7.12,32262.2,35622.4,1.2789,1.5288,144.7,96.6,0.538
7.14,32255.6,35513.2,1.247,1.2603,144.7,96.6,0.538
7.16,32227.1,35260.9,1.1086,0.64,144.7,96.6,0.538
7.18,32074.7,35127.8,0.3686,0.3126,144.7,96.6,0.538
7.2,32011.8,35150.9,0.0631,0.3696,144.7,96.6,0.538
7.22,32027.6,35074.2,0.1397,0.1809,144.7,96.6,0.538
7.24,31961.3,35063.4,-0.182,0.1544,144.7,96.6,0.538
7.26,31973.7,34905.8,-0.1217,-0.2331,144.7,96.6,0.538
7.28,31910.8,34802.6,-0.4272,-0.4869,144.7,96.6,0.538
7.3,31854.9,34640.6,-0.6988,-0.8852,144.7,96.6,0.538
7.32,31806.0,34576.3,-0.9364,-1.0435,144.7,96.6,0.538
7.34,31802.6,34752.6,-0.9528,-0.61,144.7,96.6,0.538
7.36,31817.4,34634.8,-0.8807,-0.8996,144.7,96.6,0.538
7.38,31801.1,34564.6,-0.9598,-1.0721,144.7,96.6,0.538
7.4,31718.2,34509.7,-1.3627,-1.2072,144.7,96.6,0.538
7.42,31828.1,34575.4,-0.8288,-1.0455,144.7,96.6,0.538
7.44,31767.7,34695.8,-1.122,-0.7496,144.7,96.6,0.538
7.46,31988.2,35137.8,-0.0513,0.3372,144.7,96.6,0.538
7.48,32236.0,35410.6,1.1519,1.008,144.7,96.6,0.538
7.5,32289.0,35564.2,1.4088,1.3858,144.7,96.6,0.538
7.52,32365.3,35815.7,1.7797,2.0042,144.7,96.6,0.538
7.54,32254.2,35640.1,1.2403,1.5724,144.7,96.6,0.538
7.56,32210.5,35382.2,1.0279,0.9382,144.7,96.6,0.538
7.58,32089.5,35277.8,0.4403,0.6815,144.7,96.6,0.538
7.6,32116.7,35200.6,0.5725,0.4917,144.7,96.6,0.538
7.62,32047.5,35062.9,0.2366,0.1531,144.7,96.6,0.538
7.64,32007.4,35086.8,0.0417,0.2117,144.7,96.6,0.538
7.66,31973.4,34865.5,-0.1233,-0.3323,144.7,96.6,0.538
7.68,31987.2,34828.2,-0.0565,-0.4241,144.7,96.6,0.538
7.7,31830.9,34646.5,-0.8152,-0.8708,144.7,96.6,0.538
7.72,31806.2,34676.5,-0.9351,-0.7971,144.7,96.6,0.538
7.74,31746.8,34585.1,-1.2236,-1.0217,144.7,96.6,0.538
7.76,31767.3,34631.7,-1.1243,-0.9072,144.7,96.6,0.538
7.78,31884.4,34639.8,-0.5557,-0.8872,144.7,96.6,0.538
7.8,31752.8,34567.5,-1.1948,-1.065,144.7,96.6,0.538
7.82,31677.3,34405.8,-1.5611,-1.4627,144.7,96.6,0.538
7.84,31885.3,34574.3,-0.5513,-1.0483,144.7,96.6,0.538
7.86,31913.5,34711.8,-0.4143,-0.7102,144.7,96.6,0.538
7.88,32119.6,35239.1,0.5867,0.5863,144.7,96.6,0.538
7.9,32247.9,35626.5,1.2096,1.5388,144.7,96.6,0.538
7.92,32398.7,35751.0,1.9419,1.8451,144.7,96.6,0.538
7.94,32266.6,35704.1,1.3005,1.7297,144.7,96.6,0.538
7.96,32192.8,35586.3,0.9419,1.44,144.7,96.6,0.538
7.98,32227.8,35430.8,1.112,1.0576,144.7,96.6,0.538
8.0,32083.3,35235.6,0.4102,0.5778,144.7,96.6,0.538
8.02,31971.3,35156.0,-0.1336,0.382,144.7,96.6,0.538
8.04,32044.5,35080.2,0.2219,0.1956,144.7,96.6,0.538
8.06,32048.0,35091.3,0.2388,0.2228,144.7,96.6,0.538
8.08,31997.9,34876.1,-0.0044,-0.3063,144.7,96.6,0.538
8.1,31975.0,34836.6,-0.1158,-0.4035,144.7,96.6,0.538
8.12,31861.2,34767.2,-0.6682,-0.574,144.7,96.6,0.538
8.14,31794.5,34644.6,-0.9923,-0.8754,144.7,96.6,0.538
8.16,31899.3,34692.6,-0.4832,-0.7574,144.7,96.6,0.538
8.18,31788.3,34640.0,-1.0222,-0.8868,144.7,96.6,0.538
8.2,31749.8,34634.0,-1.2092,-0.9015,144.7,96.6,0.538
8.22,31757.2,34470.3,-1.1734,-1.3041,144.7,96.6,0.538
8.24,31731.8,34374.5,-1.2963,-1.5396,144.7,96.6,0.538
8.26,31786.8,34514.8,-1.0295,-1.1947,144.7,96.6,0.538
8.28,31912.0,34769.1,-0.4215,-0.5694,144.7,96.6,0.538
8.3,32022.4,35389.3,0.1148,0.9557,144.7,96.6,0.538
8.32,32250.2,35647.3,1.2208,1.5902,144.7,96.6,0.538
8.34,32304.0,35732.0,1.4818,1.7984,144.7,96.6,0.538
8.36,32328.1,35700.7,1.599,1.7214,144.7,96.6,0.538
8.38,32259.1,35587.8,1.264,1.4439,144.7,96.6,0.538
8.4,32135.2,35363.4,0.6622,0.892,144.7,96.6,0.538
8.42,32018.6,35182.9,0.0959,0.4481,144.7,96.6,0.538
8.44,31975.6,35183.5,-0.1129,0.4496,144.7,96.6,0.538
8.46,31979.8,35090.8,-0.0922,0.2216,144.7,96.6,0.538
8.48,31932.5,34979.0,-0.3218,-0.0533,144.7,96.6,0.538
8.5,31930.8,34877.5,-0.33,-0.3028,144.7,96.6,0.538
8.52,31854.0,34800.7,-0.7031,-0.4917,144.7,96.6,0.538
8.54,31904.3,34668.0,-0.4591,-0.8179,144.7,96.6,0.538
8.56,31858.1,34624.3,-0.6835,-0.9254,144.7,96.6,0.538
8.58,31710.9,34686.3,-1.3979,-0.773,144.7,96.6,0.538
8.6,31747.8,34655.3,-1.2188,-0.8491,144.7,96.6,0.538
8.62,31689.9,34413.9,-1.5,-1.4427,144.7,96.6,0.538
8.64,31781.3,34439.2,-1.056,-1.3806,144.7,96.6,0.538
8.66,31846.3,34485.0,-0.7404,-1.2679,144.7,96.6,0.538
8.68,31780.0,34658.7,-1.0623,-0.8409,144.7,96.6,0.538
8.7,32006.8,35041.0,0.0386,0.0991,144.7,96.6,0.538
8.72,32191.8,35324.9,0.9372,0.7973,144.7,96.6,0.538
8.74,32323.1,35612.2,1.5745,1.5038,144.7,96.6,0.538
8.76,32403.9,35809.3,1.967,1.9883,144.7,96.6,0.538
8.78,32335.9,35632.1,1.637,1.5527,144.7,96.6,0.538
8.8,32202.1,35511.7,0.9874,1.2567,144.7,96.6,0.538
8.82,32187.5,35287.0,0.9165,0.7042,144.7,96.6,0.538
8.84,32064.9,35219.6,0.3211,0.5385,144.7,96.6,0.538
8.86,31983.6,35135.9,-0.074,0.3326,144.7,96.6,0.538
8.88,32089.4,35128.2,0.4399,0.3138,144.7,96.6,0.538
8.9,31912.7,34977.5,-0.4183,-0.0569,144.7,96.6,0.538
8.92,31803.1,34797.0,-0.9504,-0.5008,144.7,96.6,0.538
8.94,31848.2,34764.1,-0.7315,-0.5817,144.7,96.6,0.538
8.96,31899.0,34731.2,-0.4848,-0.6626,144.7,96.6,0.538
8.98,31868.2,34687.9,-0.6344,-0.769,144.7,96.6,0.538
9.0,31898.2,34753.2,-0.4885,-0.6083,144.7,96.6,0.538
9.02,31916.3,34602.7,-0.4006,-0.9785,144.7,96.6,0.538
9.04,31748.9,34492.5,-1.2136,-1.2496,144.7,96.6,0.538
9.06,31721.8,34504.3,-1.3451,-1.2205,144.7,96.6,0.538
9.08,31691.1,34501.7,-1.4939,-1.2268,144.7,96.6,0.538
9.1,31877.3,34747.4,-0.5899,-0.6228,144.7,96.6,0.538
9.12,32011.8,35111.9,0.063,0.2735,144.7,96.6,0.538
9.14,32213.7,35418.0,1.0433,1.0263,144.7,96.6,0.538
9.16,32292.2,35739.2,1.4246,1.816,144.7,96.6,0.538
9.18,32344.4,35732.1,1.6779,1.7985,144.7,96.6,0.538
9.2,32352.7,35655.0,1.7183,1.609,144.7,96.6,0.538
9.22,32275.8,35464.2,1.345,1.1399,144.7,96.6,0.538
9.24,32192.6,35261.6,0.9412,0.6417,144.7,96.6,0.538
9.26,32095.3,35155.0,0.4685,0.3794,144.7,96.6,0.538
9.28,32002.4,35002.2,0.0175,0.0038,144.7,96.6,0.538
9.3,32052.8,35044.5,0.2621,0.1078,144.7,96.6,0.538
9.32,31833.1,35040.5,-0.8044,0.098,144.7,96.6,0.538
9.34,31898.2,34825.0,-0.4884,-0.432,144.7,96.6,0.538
9.36,31834.5,34809.7,-0.7979,-0.4694,144.7,96.6,0.538
9.38,31842.2,34646.1,-0.7606,-0.8717,144.7,96.6,0.538
9.4,31863.4,34616.9,-0.6575,-0.9437,144.7,96.6,0.538
9.42,31875.1,34611.2,-0.6005,-0.9575,144.7,96.6,0.538
9.44,31753.0,34647.0,-1.1935,-0.8695,144.7,96.6,0.538
9.46,31683.6,34571.8,-1.5304,-1.0544,144.7,96.6,0.538
9.48,31807.4,34447.5,-0.9295,-1.36,144.7,96.6,0.538
9.5,31810.0,34478.3,-0.9166,-1.2844,144.7,96.6,0.538
9.52,31876.1,34722.1,-0.5957,-0.685,144.7,96.6,0.538
9.54,32072.3,35154.8,0.3566,0.3791,144.7,96.6,0.538
9.56,32228.5,35544.6,1.1155,1.3375,144.7,96.6,0.538
9.58,32425.6,35769.9,2.0723,1.8915,144.7,96.6,0.538
9.6,32516.9,35711.0,2.5158,1.7467,144.7,96.6,0.538
9.62,32341.6,35618.9,1.6643,1.5201,144.7,96.6,0.538
9.64,32125.4,35421.1,0.6146,1.0339,144.7,96.6,0.538
9.66,32140.6,35247.7,0.6887,0.6075,144.7,96.6,0.538
9.68,32075.4,35096.6,0.3717,0.236,144.7,96.6,0.538
9.7,31975.8,35020.8,-0.1118,0.0495,144.7,96.6,0.538
9.72,32055.5,35027.2,0.2754,0.0654,144.7,96.6,0.538
9.74,32001.0,34956.1,0.0106,-0.1094,144.7,96.6,0.538
9.76,31843.2,34761.5,-0.7558,-0.5879,144.7,96.6,0.538
9.78,31858.4,34722.9,-0.6817,-0.683,144.7,96.6,0.538
9.8,31795.9,34727.0,-0.9853,-0.6729,144.7,96.6,0.538
9.82,31848.1,34619.8,-0.732,-0.9364,144.7,96.6,0.538
9.84,31774.5,34565.4,-1.0892,-1.0703,144.7,96.6,0.538
9.86,31780.1,34559.8,-1.0619,-1.0839,144.7,96.6,0.538
9.88,31721.4,34517.4,-1.3471,-1.1883,144.7,96.6,0.538
9.9,31777.4,34448.6,-1.0749,-1.3575,144.7,96.6,0.538
9.92,31825.4,34646.6,-0.8422,-0.8705,144.7,96.6,0.538
9.94,31974.7,34928.1,-0.1171,-0.1784,144.7,96.6,0.538
9.96,32182.7,35292.2,0.893,0.7169,144.7,96.6,0.538
9.98,32303.3,35481.2,1.4784,1.1818,144.7,96.6,0.538
10.0,32356.3,35705.6,1.7356,1.7334,144.7,96.6,0.538
10.02,32279.3,35737.3,1.3619,1.8114,144.7,96.6,0.538
10.04,32168.2,35578.9,0.8224,1.4218,144.7,96.6,0.538
10.06,32125.4,35245.5,0.6148,0.602,144.7,96.6,0.538
10.08,32066.1,35288.9,0.3269,0.7087,144.7,96.6,0.538
10.1,32196.1,35108.6,0.9582,0.2653,144.7,96.6,0.538
10.12,32033.4,34971.6,0.1679,-0.0714,144.7,96.6,0.538
10.14,31972.0,35095.6,-0.1301,0.2334,144.7,96.6,0.538
10.16,31948.8,34878.5,-0.2429,-0.3002,144.7,96.6,0.538
10.18,31899.8,34717.0,-0.4807,-0.6975,144.7,96.6,0.538
10.2,31791.8,34762.0,-1.0052,-0.5867,144.7,96.6,0.538
10.22,31895.4,34676.7,-0.5023,-0.7966,144.7,96.6,0.538
10.24,31720.6,34606.7,-1.3511,-0.9688,144.7,96.6,0.538
10.26,31853.1,34629.9,-0.7075,-0.9115,144.7,96.6,0.538
10.28,31743.7,34483.6,-1.2387,-1.2714,144.7,96.6,0.538
10.3,31779.1,34477.9,-1.0669,-1.2855,144.7,96.6,0.538
10.32,31684.2,34456.8,-1.5275,-1.3373,144.7,96.6,0.538
10.34,31775.1,34700.1,-1.0862,-0.739,144.7,96.6,0.538
10.36,31984.7,35015.3,-0.0686,0.0361,144.7,96.6,0.538
10.38,32151.8,35252.1,0.7427,0.6183,144.7,96.6,0.538
10.4,32221.7,35713.2,1.0824,1.752,144.7,96.6,0.538
10.42,32327.6,35807.3,1.5967,1.9835,144.7,96.6,0.538
10.44,32368.8,35678.4,1.7967,1.6666,144.7,96.6,0.538
10.46,32264.1,35467.1,1.2884,1.147,144.7,96.6,0.538
10.48,32110.5,35288.8,0.5421,0.7086,144.7,96.6,0.538
10.5,32187.8,35148.5,0.9179,0.3637,144.7,96.6,0.538
10.52,32017.3,35173.6,0.09,0.4252,144.7,96.6,0.538
10.54,31954.8,35054.4,-0.2138,0.1322,144.7,96.6,0.538
10.56,31998.0,34905.1,-0.0041,-0.2348,144.7,96.6,0.538
10.58,31825.5,34911.3,-0.8415,-0.2198,144.7,96.6,0.538
10.6,31878.8,34784.6,-0.5827,-0.5312,144.7,96.6,0.538
10.62,31837.4,34732.4,-0.7836,-0.6596,144.7,96.6,0.538
10.64,31818.1,34704.2,-0.8773,-0.729,144.7,96.6,0.538
10.66,31723.8,34652.3,-1.3352,-0.8565,144.7,96.6,0.538
10.68,31745.8,34627.0,-1.2284,-0.9188,144.7,96.6,0.538
10.7,31738.0,34547.9,-1.2663,-1.1133,144.7,96.6,0.538
10.72,31744.7,34484.0,-1.2337,-1.2703,144.7,96.6,0.538
10.74,31633.7,34457.2,-1.7727,-1.3363,144.7,96.6,0.538
10.76,31722.0,34733.1,-1.3443,-0.6578,144.7,96.6,0.538
10.78,32054.5,35098.0,0.2706,0.2394,144.7,96.6,0.538
10.8,32190.9,35509.6,0.9327,1.2514,144.7,96.6,0.538
10.82,32216.8,35660.8,1.0586,1.6233,144.7,96.6,0.538
10.84,32360.7,35802.4,1.7573,1.9715,144.7,96.6,0.538
10.86,32355.3,35595.1,1.7313,1.4617,144.7,96.6,0.538
10.88,32201.2,35423.1,0.9826,1.0388,144.7,96.6,0.538
10.9,32109.7,35203.4,0.5385,0.4985,144.7,96.6,0.538
10.92,32027.9,35141.3,0.1415,0.346,144.7,96.6,0.538
10.94,32098.8,35150.3,0.4857,0.3681,144.7,96.6,0.538
10.96,32011.3,35091.3,0.0607,0.223,144.7,96.6,0.538
10.98,31928.6,34961.8,-0.3411,-0.0954,144.7,96.6,0.538
11.0,31931.8,34866.0,-0.3253,-0.3311,144.7,96.6,0.538
11.02,31935.3,34697.6,-0.3084,-0.7452,144.7,96.6,0.538
11.04,31821.8,34656.5,-0.8597,-0.8463,144.7,96.6,0.538
11.06,31726.1,34663.1,-1.3244,-0.8299,144.7,96.6,0.538
11.08,31841.3,34662.1,-0.765,-0.8324,144.7,96.6,0.538
11.1,31728.4,34503.5,-1.3132,-1.2224,144.7,96.6,0.538
11.12,31748.2,34483.0,-1.2171,-1.2728,144.7,96.6,0.538
11.14,31769.0,34508.2,-1.1157,-1.211,144.7,96.6,0.538
11.16,31765.0,34583.3,-1.1352,-1.0263,144.7,96.6,0.538
11.18,31883.1,34878.7,-0.562,-0.2999,144.7,96.6,0.538
11.2,32141.9,35136.4,0.695,0.3338,144.7,96.6,0.538
11.22,32223.2,35427.8,1.0895,1.0503,144.7,96.6,0.538
11.24,32341.7,35699.5,1.6647,1.7184,144.7,96.6,0.538
11.26,32393.5,35778.4,1.9166,1.9125,144.7,96.6,0.538
11.28,32392.0,35594.9,1.9091,1.4612,144.7,96.6,0.538
11.3,32262.2,35360.0,1.2791,0.8837,144.7,96.6,0.538
11.32,32129.7,35280.1,0.6354,0.6871,144.7,96.6,0.538
11.34,31998.1,35084.3,-0.0035,0.2057,144.7,96.6,0.538
11.36,32051.7,35019.3,0.2569,0.046,144.7,96.6,0.538
11.38,32033.5,35028.2,0.1686,0.0678,144.7,96.6,0.538
11.4,31977.8,34873.1,-0.1018,-0.3137,144.7,96.6,0.538
11.42,31878.9,34797.3,-0.5821,-0.4999,144.7,96.6,0.538
11.44,31823.4,34688.8,-0.8515,-0.7667,144.7,96.6,0.538
11.46,31802.5,34657.8,-0.9533,-0.8431,144.7,96.6,0.538
11.48,31816.3,34708.8,-0.8861,-0.7175,144.7,96.6,0.538
11.5,31757.5,34674.3,-1.1715,-0.8023,144.7,96.6,0.538
11.52,31820.3,34526.3,-0.867,-1.1665,144.7,96.6,0.538
11.54,31684.7,34433.4,-1.5254,-1.3948,144.7,96.6,0.538
11.56,31742.1,34503.6,-1.2467,-1.2223,144.7,96.6,0.538
11.58,31755.3,34616.5,-1.1824,-0.9445,144.7,96.6,0.538
11.6,32055.4,34994.2,0.2747,-0.0157,144.7,96.6,0.538
11.62,32208.2,35340.2,1.0169,0.8349,144.7,96.6,0.538
11.64,32380.0,35582.7,1.8512,1.4313,144.7,96.6,0.538
11.66,32410.2,35723.5,1.9975,1.7774,144.7,96.6,0.538
11.68,32281.3,35761.8,1.3716,1.8717,144.7,96.6,0.538
11.7,32229.5,35560.8,1.1201,1.3773,144.7,96.6,0.538
11.72,32109.7,35265.9,0.5383,0.6522,144.7,96.6,0.538
11.74,31964.8,35185.4,-0.1649,0.4544,144.7,96.6,0.538
11.76,32037.2,35039.0,0.1863,0.0944,144.7,96.6,0.538
11.78,32024.3,35089.1,0.124,0.2176,144.7,96.6,0.538
11.8,31917.0,35016.9,-0.3973,0.0399,144.7,96.6,0.538
11.82,31868.8,34915.8,-0.6313,-0.2086,144.7,96.6,0.538
11.84,31781.6,34734.1,-1.0547,-0.6554,144.7,96.6,0.538
11.86,31856.1,34739.1,-0.6928,-0.6432,144.7,96.6,0.538
11.88,31814.7,34691.2,-0.8938,-0.7609,144.7,96.6,0.538
11.9,31900.1,34655.6,-0.4795,-0.8484,144.7,96.6,0.538
11.92,31812.4,34574.7,-0.905,-1.0475,144.7,96.6,0.538
11.94,31757.4,34543.7,-1.1721,-1.1235,144.7,96.6,0.538
11.96,31689.8,34469.2,-1.5006,-1.3067,144.7,96.6,0.538
11.98,31681.3,34449.0,-1.5418,-1.3565,144.7,96.6,0.538
12.0,31814.5,34622.8,-0.895,-0.9291,144.7,96.6,0.538
12.02,32039.9,34923.8,0.1994,-0.1889,144.7,96.6,0.538
12.04,32123.1,35490.4,0.6037,1.2043,144.7,96.6,0.538
12.06,32340.3,35652.1,1.6581,1.6019,144.7,96.6,0.538
12.08,32390.7,35749.1,1.9029,1.8404,144.7,96.6,0.538
12.1,32401.3,35649.9,1.9545,1.5966,144.7,96.6,0.538
12.12,32244.3,35549.6,1.1922,1.3499,144.7,96.6,0.538
12.14,32205.9,35283.0,1.0057,0.6943,144.7,96.6,0.538
12.16,32070.2,35032.7,0.3468,0.0788,144.7,96.6,0.538
12.18,32065.3,35078.6,0.3229,0.1917,144.7,96.6,0.538
12.2,31950.5,35049.8,-0.2344,0.1208,144.7,96.6,0.538
12.22,31880.8,34968.3,-0.573,-0.0795,144.7,96.6,0.538
12.24,31938.7,34863.2,-0.2919,-0.338,144.7,96.6,0.538
12.26,31955.4,34736.8,-0.211,-0.6487,144.7,96.6,0.538
12.28,31918.5,34717.5,-0.3901,-0.6962,144.7,96.6,0.538
12.3,31801.9,34684.1,-0.956,-0.7783,144.7,96.6,0.538
12.32,31842.6,34681.6,-0.7586,-0.7844,144.7,96.6,0.538
12.34,31836.0,34562.9,-0.7907,-1.0765,144.7,96.6,0.538
12.36,31783.8,34648.6,-1.0438,-0.8656,144.7,96.6,0.538
12.38,31743.4,34391.4,-1.24,-1.4981,144.7,96.6,0.538
12.4,31767.3,34549.9,-1.1241,-1.1083,144.7,96.6,0.538
12.42,31943.0,34752.7,-0.2708,-0.6098,144.7,96.6,0.538
12.44,32078.8,35164.2,0.3886,0.4022,144.7,96.6,0.538
12.46,32209.4,35450.8,1.0226,1.1069,144.7,96.6,0.538
12.48,32291.5,35658.6,1.4213,1.6179,144.7,96.6,0.538
12.5,32392.3,35691.8,1.9105,1.6995,144.7,96.6,0.538
12.52,32322.3,35635.8,1.571,1.5618,144.7,96.6,0.538
12.54,32134.9,35468.2,0.661,1.1497,144.7,96.6,0.538
12.56,32177.3,35279.9,0.8668,0.6868,144.7,96.6,0.538
12.58,32013.2,35189.1,0.0701,0.4634,144.7,96.6,0.538
12.6,31941.9,35144.6,-0.2763,0.354,144.7,96.6,0.538
12.62,31973.4,35058.0,-0.1234,0.141,144.7,96.6,0.538
12.64,31835.2,34976.2,-0.7944,-0.0601,144.7,96.6,0.538
12.66,31971.5,34806.8,-0.1324,-0.4765,144.7,96.6,0.538
12.68,31842.8,34711.1,-0.7573,-0.7119,144.7,96.6,0.538
12.7,31836.5,34669.3,-0.7882,-0.8147,144.7,96.6,0.538
12.72,31829.7,34641.3,-0.821,-0.8836,144.7,96.6,0.538
12.74,31734.3,34627.9,-1.2842,-0.9165,144.7,96.6,0.538
12.76,31864.6,34624.9,-0.6515,-0.9239,144.7,96.6,0.538
12.78,31765.0,34500.8,-1.1354,-1.229,144.7,96.6,0.538
12.8,31657.9,34518.2,-1.6551,-1.1862,144.7,96.6,0.538
12.82,31785.7,34538.4,-1.0346,-1.1367,144.7,96.6,0.538
12.84,31932.1,34792.9,-0.3238,-0.5108,144.7,96.6,0.538
12.86,32042.2,35143.5,0.2105,0.3513,144.7,96.6,0.538
12.88,32230.7,35565.4,1.1261,1.3886,144.7,96.6,0.538
12.9,32346.7,35791.1,1.6891,1.9437,144.7,96.6,0.538
12.92,32387.9,35764.5,1.8892,1.8783,144.7,96.6,0.538
12.94,32265.5,35597.0,1.2949,1.4664,144.7,96.6,0.538
12.96,32081.0,35328.2,0.3992,0.8055,144.7,96.6,0.538
12.98,32193.0,35217.0,0.9428,0.5319,144.7,96.6,0.538
13.0,32054.9,35155.8,0.2722,0.3815,144.7,96.6,0.538
13.02,32016.6,35086.9,0.0865,0.2121,144.7,96.6,0.538
13.04,31998.1,35034.1,-0.0036,0.0823,144.7,96.6,0.538
13.06,31981.1,34868.1,-0.086,-0.3258,144.7,96.6,0.538
13.08,31799.2,34789.4,-0.9691,-0.5193,144.7,96.6,0.538
13.1,31792.3,34731.2,-1.0029,-0.6625,144.7,96.6,0.538
13.12,31862.3,34627.8,-0.6627,-0.9169,144.7,96.6,0.538
13.14,31876.3,34648.3,-0.595,-0.8665,144.7,96.6,0.538
13.16,31779.4,34493.3,-1.0654,-1.2474,144.7,96.6,0.538
13.18,31847.7,34608.8,-0.7338,-0.9636,144.7,96.6,0.538
13.2,31736.5,34437.5,-1.2735,-1.3847,144.7,96.6,0.538
13.22,31696.0,34447.9,-1.4706,-1.359,144.7,96.6,0.538
13.24,31800.8,34653.9,-0.9616,-0.8526,144.7,96.6,0.538
13.26,32007.1,34859.9,0.0402,-0.346,144.7,96.6,0.538
13.28,32150.1,35268.3,0.7344,0.658,144.7,96.6,0.538
13.3,32196.0,35713.3,0.9575,1.7524,144.7,96.6,0.538
13.32,32389.3,35661.5,1.896,1.6251,144.7,96.6,0.538
13.34,32285.6,35702.4,1.3926,1.7255,144.7,96.6,0.538
13.36,32247.6,35498.8,1.2081,1.225,144.7,96.6,0.538
13.38,32183.3,35318.5,0.8957,0.7816,144.7,96.6,0.538
13.4,32013.8,35159.9,0.0726,0.3916,144.7,96.6,0.538
13.42,31995.6,35173.3,-0.0156,0.4244,144.7,96.6,0.538
13.44,32111.2,35143.9,0.5457,0.3524,144.7,96.6,0.538
13.46,32000.3,34957.8,0.0071,-0.1053,144.7,96.6,0.538
13.48,31903.8,34856.3,-0.4615,-0.3549,144.7,96.6,0.538
13.5,31914.9,34842.7,-0.4077,-0.3883,144.7,96.6,0.538
13.52,31889.5,34643.3,-0.5309,-0.8787,144.7,96.6,0.538
13.54,31782.5,34654.0,-1.0504,-0.8524,144.7,96.6,0.538
13.56,31768.3,34451.2,-1.1195,-1.351,144.7,96.6,0.538
13.58,31736.0,34674.8,-1.2759,-0.8012,144.7,96.6,0.538
13.6,31657.4,34548.5,-1.6578,-1.1117,144.7,96.6,0.538
13.62,31821.1,34418.8,-0.8627,-1.4307,144.7,96.6,0.538
13.64,31750.2,34562.6,-1.2071,-1.0771,144.7,96.6,0.538
13.66,31933.1,34728.8,-0.3192,-0.6684,144.7,96.6,0.538
13.68,32015.0,34984.7,0.0786,-0.0393,144.7,96.6,0.538
13.7,32222.6,35408.1,1.0867,1.0018,144.7,96.6,0.538
13.72,32319.1,35764.6,1.5551,1.8786,144.7,96.6,0.538
13.74,32401.8,35745.6,1.9568,1.8318,144.7,96.6,0.538
13.76,32287.3,35700.5,1.4008,1.721,144.7,96.6,0.538
13.78,32148.5,35517.9,0.727,1.2718,144.7,96.6,0.538
13.8,32189.9,35322.9,0.9281,0.7925,144.7,96.6,0.538
13.82,32159.2,35154.2,0.7786,0.3777,144.7,96.6,0.538
13.84,32008.2,35158.7,0.0454,0.3886,144.7,96.6,0.538
13.86,32092.4,35002.3,0.4542,0.0041,144.7,96.6,0.538
13.88,31989.1,35020.3,-0.0471,0.0482,144.7,96.6,0.538
13.9,31896.7,34850.3,-0.496,-0.3697,144.7,96.6,0.538
13.92,31905.7,34790.9,-0.452,-0.5156,144.7,96.6,0.538
13.94,31842.8,34729.2,-0.7577,-0.6674,144.7,96.6,0.538
13.96,31804.2,34701.9,-0.9449,-0.7345,144.7,96.6,0.538
13.98,31827.5,34724.9,-0.8319,-0.6781,144.7,96.6,0.538
14.0,31813.0,34579.5,-0.9022,-1.0357,144.7,96.6,0.538
14.02,31815.5,34488.9,-0.8901,-1.2583,144.7,96.6,0.538
14.04,31808.2,34497.7,-0.9254,-1.2367,144.7,96.6,0.538
14.06,31699.9,34552.2,-1.4515,-1.1026,144.7,96.6,0.538
14.08,31913.1,34804.3,-0.4164,-0.4828,144.7,96.6,0.538
14.1,32157.2,35207.8,0.7692,0.5095,144.7,96.6,0.538
14.12,32211.6,35469.1,1.0333,1.152,144.7,96.6,0.538
14.14,32361.5,35691.2,1.7611,1.698,144.7,96.6,0.538
14.16,32334.9,35691.7,1.6321,1.6992,144.7,96.6,0.538
14.18,32302.5,35726.2,1.4747,1.7841,144.7,96.6,0.538
14.2,32092.2,35434.9,0.4534,1.0679,144.7,96.6,0.538
14.22,32094.0,35205.4,0.4621,0.5034,144.7,96.6,0.538
14.24,32164.4,35176.4,0.8042,0.4322,144.7,96.6,0.538
14.26,32026.6,35139.4,0.1349,0.3413,144.7,96.6,0.538
14.28,31987.8,35093.6,-0.0533,0.2285,144.7,96.6,0.538
14.3,31954.4,35058.3,-0.2155,0.1417,144.7,96.6,0.538
14.32,31881.4,34811.8,-0.5699,-0.4644,144.7,96.6,0.538
14.34,31918.4,34758.0,-0.3903,-0.5965,144.7,96.6,0.538
14.36,31847.1,34601.6,-0.7368,-0.9811,144.7,96.6,0.538
14.38,31868.7,34665.9,-0.6319,-0.823,144.7,96.6,0.538
14.4,31818.2,34614.0,-0.8772,-0.9507,144.7,96.6,0.538
14.42,31814.2,34544.7,-0.8962,-1.1212,144.7,96.6,0.538
14.44,31747.7,34415.4,-1.2194,-1.4391,144.7,96.6,0.538
14.46,31741.1,34424.7,-1.2512,-1.4163,144.7,96.6,0.538
14.48,31875.6,34634.0,-0.5983,-0.9016,144.7,96.6,0.538
14.5,31821.6,34929.1,-0.8606,-0.1759,144.7,96.6,0.538
14.52,32072.9,35272.5,0.3598,0.6684,144.7,96.6,0.538
14.54,32280.8,35528.3,1.3692,1.2975,144.7,96.6,0.538
14.56,32416.3,35742.6,2.027,1.8244,144.7,96.6,0.538
14.58,32358.5,35686.1,1.7464,1.6854,144.7,96.6,0.538
14.6,32299.2,35615.3,1.4584,1.5113,144.7,96.6,0.538
14.62,32185.7,35346.0,0.9077,0.8491,144.7,96.6,0.538
14.64,32086.8,35303.7,0.4271,0.7452,144.7,96.6,0.538
14.66,32027.7,35140.8,0.1402,0.3447,144.7,96.6,0.538
14.68,32000.3,35059.5,0.0074,0.1446,144.7,96.6,0.538
14.7,31905.9,34965.8,-0.4512,-0.0856,144.7,96.6,0.538
14.72,31953.1,34933.1,-0.2217,-0.166,144.7,96.6,0.538
14.74,31874.7,34750.1,-0.6025,-0.616,144.7,96.6,0.538
14.76,31905.2,34738.4,-0.4547,-0.6449,144.7,96.6,0.538
14.78,31824.2,34677.5,-0.848,-0.7945,144.7,96.6,0.538
14.8,31874.0,34613.1,-0.6059,-0.9529,144.7,96.6,0.538
14.82,31737.3,34673.8,-1.2697,-0.8036,144.7,96.6,0.538
14.84,31828.3,34555.5,-0.828,-1.0945,144.7,96.6,0.538
14.86,31724.1,34538.6,-1.3337,-1.1362,144.7,96.6,0.538
14.88,31679.8,34450.1,-1.5491,-1.3537,144.7,96.6,0.538
14.9,31778.4,34593.6,-1.0704,-1.0009,144.7,96.6,0.538
14.92,32016.1,34997.9,0.084,-0.0066,144.7,96.6,0.538
14.94,32110.1,35380.9,0.5403,0.935,144.7,96.6,0.538
14.96,32222.2,35603.2,1.0845,1.4816,144.7,96.6,0.538
14.98,32368.4,35834.8,1.7945,2.051,144.7,96.6,0.538
15.0,32346.4,35801.3,1.6877,1.9687,144.7,96.6,0.538
15.02,32241.9,35496.9,1.1805,1.2204,144.7,96.6,0.538
15.04,32082.9,35337.6,0.4086,0.8285,144.7,96.6,0.538
15.06,32175.1,35180.3,0.8561,0.4417,144.7,96.6,0.538
15.08,32037.0,35149.4,0.1853,0.3659,144.7,96.6,0.538
15.1,31935.9,35046.0,-0.3055,0.1114,144.7,96.6,0.538
15.12,32034.7,35034.5,0.1744,0.0833,144.7,96.6,0.538
15.14,31977.3,34843.9,-0.1046,-0.3853,144.7,96.6,0.538
15.16,31777.4,34882.2,-1.0751,-0.2913,144.7,96.6,0.538
15.18,31848.8,34687.2,-0.7282,-0.7707,144.7,96.6,0.538
15.2,31787.0,34753.1,-1.0283,-0.6088,144.7,96.6,0.538
15.22,31762.3,34632.0,-1.1484,-0.9065,144.7,96.6,0.538
15.24,31688.7,34572.8,-1.5057,-1.052,144.7,96.6,0.538
15.26,31748.1,34490.5,-1.2174,-1.2544,144.7,96.6,0.538
15.28,31624.3,34539.6,-1.8183,-1.1337,144.7,96.6,0.538
15.3,31793.1,34456.0,-0.9988,-1.3393,144.7,96.6,0.538
15.32,31893.1,34725.2,-0.5131,-0.6772,144.7,96.6,0.538
15.34,32073.1,35126.1,0.3607,0.3086,144.7,96.6,0.538
15.36,32182.6,35454.2,0.8926,1.1152,144.7,96.6,0.538
15.38,32341.7,35742.0,1.6649,1.8228,144.7,96.6,0.538
15.4,32397.6,35733.2,1.9366,1.8013,144.7,96.6,0.538
15.42,32377.5,35708.4,1.8386,1.7404,144.7,96.6,0.538
15.44,32203.9,35410.8,0.996,1.0084,144.7,96.6,0.538
15.46,32111.2,35337.7,0.5457,0.8288,144.7,96.6,0.538
15.48,32056.9,35099.5,0.2823,0.243,144.7,96.6,0.538
15.5,32095.5,35022.1,0.4695,0.0527,144.7,96.6,0.538
15.52,32109.7,35149.6,0.5387,0.3663,144.7,96.6,0.538
15.54,32016.2,34929.2,0.0845,-0.1758,144.7,96.6,0.538
15.56,31938.3,34807.4,-0.2938,-0.4752,144.7,96.6,0.538
15.58,31942.3,34680.3,-0.2744,-0.7876,144.7,96.6,0.538
15.6,31878.1,34626.0,-0.5862,-0.9212,144.7,96.6,0.538
15.62,31911.0,34667.1,-0.4266,-0.8202,144.7,96.6,0.538
15.64,31791.7,34660.7,-1.0059,-0.8359,144.7,96.6,0.538
15.66,31767.7,34524.4,-1.1221,-1.1709,144.7,96.6,0.538
15.68,31726.7,34507.3,-1.3214,-1.213,144.7,96.6,0.538
15.7,31705.5,34534.5,-1.4244,-1.1462,144.7,96.6,0.538
15.72,31745.7,34476.0,-1.229,-1.2899,144.7,96.6,0.538
15.74,31971.8,34870.8,-0.1311,-0.3193,144.7,96.6,0.538
15.76,32176.1,35167.1,0.8609,0.4093,144.7,96.6,0.538
15.78,32343.1,35548.3,1.6719,1.3467,144.7,96.6,0.538
15.8,32321.9,35763.4,1.5691,1.8755,144.7,96.6,0.538
15.82,32400.5,35705.8,1.9506,1.7339,144.7,96.6,0.538
15.84,32279.0,35697.5,1.3605,1.7134,144.7,96.6,0.538
15.86,32168.9,35340.2,0.8258,0.8349,144.7,96.6,0.538
15.88,32175.6,35205.8,0.8585,0.5045,144.7,96.6,0.538
15.9,32132.9,35048.2,0.6513,0.117,144.7,96.6,0.538
15.92,32070.7,35103.5,0.3493,0.2528,144.7,96.6,0.538
15.94,32037.0,34930.2,0.1855,-0.1732,144.7,96.6,0.538
15.96,32027.4,34901.3,0.139,-0.2442,144.7,96.6,0.538
15.98,31928.9,34877.7,-0.3396,-0.3022,144.7,96.6,0.538
16.0,31840.4,34711.4,-0.7694,-0.7113,144.7,96.6,0.538
16.02,31855.0,34623.5,-0.6982,-0.9274,144.7,96.6,0.538
16.04,31862.4,34617.4,-0.6624,-0.9423,144.7,96.6,0.538
16.06,31862.9,34735.3,-0.6599,-0.6524,144.7,96.6,0.538
16.08,31784.6,34558.0,-1.0402,-1.0885,144.7,96.6,0.538
16.1,31755.5,34494.7,-1.1816,-1.244,144.7,96.6,0.538
16.12,31730.8,34433.5,-1.3014,-1.3946,144.7,96.6,0.538
16.14,31722.0,34626.0,-1.3441,-0.9213,144.7,96.6,0.538
16.16,32019.1,34886.4,0.0984,-0.2809,144.7,96.6,0.538
16.18,32165.8,35327.3,0.8107,0.8032,144.7,96.6,0.538
16.2,32240.7,35557.5,1.1745,1.3692,144.7,96.6,0.538
16.22,32311.2,35866.0,1.517,2.1277,144.7,96.6,0.538
16.24,32311.9,35717.1,1.5202,1.7616,144.7,96.6,0.538
16.26,32267.4,35531.3,1.304,1.3049,144.7,96.6,0.538
16.28,32111.0,35331.1,0.5449,0.8126,144.7,96.6,0.538
16.3,32109.3,35239.4,0.5367,0.5871,144.7,96.6,0.538
16.32,32017.4,35093.3,0.0902,0.2278,144.7,96.6,0.538
16.34,32071.6,35065.1,0.3533,0.1585,144.7,96.6,0.538
16.36,31951.3,34994.3,-0.2306,-0.0155,144.7,96.6,0.538
16.38,31884.8,34961.6,-0.5537,-0.0959,144.7,96.6,0.538
16.4,31849.1,34864.6,-0.7268,-0.3345,144.7,96.6,0.538
16.42,31902.3,34724.8,-0.4685,-0.6782,144.7,96.6,0.538
16.44,31777.9,34706.6,-1.0727,-0.7231,144.7,96.6,0.538
16.46,31863.5,34743.7,-0.6572,-0.6318,144.7,96.6,0.538
16.48,31805.0,34602.1,-0.9411,-0.9799,144.7,96.6,0.538
16.5,31809.0,34560.4,-0.9215,-1.0825,144.7,96.6,0.538
16.52,31750.7,34344.4,-1.2049,-1.6136,144.7,96.6,0.538
16.54,31710.4,34447.3,-1.4004,-1.3606,144.7,96.6,0.538
16.56,31855.7,34601.3,-0.695,-0.9818,144.7,96.6,0.538
16.58,32076.0,34995.3,0.3746,-0.0132,144.7,96.6,0.538
16.6,32199.7,35303.0,0.9757,0.7436,144.7,96.6,0.538
16.62,32309.5,35548.9,1.5085,1.3482,144.7,96.6,0.538
16.64,32374.0,35758.5,1.8219,1.8636,144.7,96.6,0.538
16.66,32256.2,35652.5,1.2497,1.6028,144.7,96.6,0.538
16.68,32248.2,35518.1,1.211,1.2725,144.7,96.6,0.538
16.7,32123.1,35247.6,0.6035,0.6073,144.7,96.6,0.538
16.72,32136.3,35160.0,0.6678,0.3917,144.7,96.6,0.538
16.74,32160.3,35054.0,0.784,0.1313,144.7,96.6,0.538
16.76,32023.7,35072.9,0.1206,0.1776,144.7,96.6,0.538
16.78,31972.5,35013.0,-0.1279,0.0304,144.7,96.6,0.538
16.8,32002.1,34797.1,0.0157,-0.5005,144.7,96.6,0.538
16.82,31901.1,34725.3,-0.4745,-0.6771,144.7,96.6,0.538
16.84,31882.1,34752.7,-0.5667,-0.6096,144.7,96.6,0.538
16.86,31882.8,34673.3,-0.5632,-0.8048,144.7,96.6,0.538
16.88,31833.4,34709.6,-0.8032,-0.7157,144.7,96.6,0.538
16.9,31779.7,34589.9,-1.064,-1.01,144.7,96.6,0.538
16.92,31722.4,34520.5,-1.3423,-1.1806,144.7,96.6,0.538
16.94,31727.3,34485.3,-1.3185,-1.2673,144.7,96.6,0.538
16.96,31784.2,34536.6,-1.0419,-1.141,144.7,96.6,0.538
16.98,31891.0,34749.9,-0.5235,-0.6164,144.7,96.6,0.538
17.0,32037.3,35176.2,0.1871,0.4316,144.7,96.6,0.538
17.02,32213.3,35404.5,1.0413,0.993,144.7,96.6,0.538
17.04,32339.6,35780.1,1.6549,1.9165,144.7,96.6,0.538
17.06,32323.1,35772.9,1.5748,1.8988,144.7,96.6,0.538
17.08,32256.3,35597.3,1.2504,1.4671,144.7,96.6,0.538
17.1,32188.8,35517.9,0.9224,1.2718,144.7,96.6,0.538
17.12,32077.5,35277.2,0.3822,0.68,144.7,96.6,0.538
17.14,32018.4,35147.2,0.095,0.3603,144.7,96.6,0.538
17.16,32060.0,35178.7,0.297,0.4378,144.7,96.6,0.538
17.18,32089.1,35062.6,0.4386,0.1523,144.7,96.6,0.538
17.2,32032.8,35036.7,0.1649,0.0888,144.7,96.6,0.538
17.22,32037.3,34799.5,0.1867,-0.4947,144.7,96.6,0.538
17.24,31876.7,34741.2,-0.593,-0.6379,144.7,96.6,0.538
17.26,31871.2,34636.7,-0.6197,-0.8949,144.7,96.6,0.538
17.28,31799.1,34644.3,-0.9697,-0.8762,144.7,96.6,0.538
17.3,31909.8,34615.2,-0.432,-0.9478,144.7,96.6,0.538
17.32,31736.3,34503.8,-1.2745,-1.2216,144.7,96.6,0.538
17.34,31728.1,34539.1,-1.3144,-1.1349,144.7,96.6,0.538
17.36,31747.0,34436.1,-1.2229,-1.3882,144.7,96.6,0.538
17.38,31755.1,34586.1,-1.1835,-1.0194,144.7,96.6,0.538
17.4,31915.9,34845.6,-0.4028,-0.3811,144.7,96.6,0.538
17.42,32146.2,35242.0,0.7156,0.5936,144.7,96.6,0.538
17.44,32293.2,35528.7,1.4296,1.2985,144.7,96.6,0.538
17.46,32397.6,35739.8,1.9364,1.8176,144.7,96.6,0.538
17.48,32320.3,35690.7,1.5611,1.6968,144.7,96.6,0.538
17.5,32315.6,35597.5,1.5384,1.4676,144.7,96.6,0.538
17.52,32152.8,35421.1,0.7476,1.0338,144.7,96.6,0.538
17.54,32055.4,35255.4,0.2748,0.6264,144.7,96.6,0.538
17.56,32110.9,35129.8,0.5441,0.3176,144.7,96.6,0.538
17.58,32064.0,35059.4,0.3168,0.1446,144.7,96.6,0.538
17.6,31984.5,35048.0,-0.0693,0.1164,144.7,96.6,0.538
17.62,31969.8,34948.1,-0.1407,-0.1291,144.7,96.6,0.538
17.64,31939.2,34752.6,-0.2896,-0.6099,144.7,96.6,0.538
17.66,31919.9,34763.6,-0.3831,-0.5829,144.7,96.6,0.538
17.68,31763.9,34643.0,-1.1407,-0.8795,144.7,96.6,0.538
17.7,31812.8,34649.5,-0.903,-0.8634,144.7,96.6,0.538
17.72,31739.3,34597.0,-1.2599,-0.9925,144.7,96.6,0.538
17.74,31783.0,34526.7,-1.0478,-1.1653,144.7,96.6,0.538
17.76,31764.9,34493.8,-1.1358,-1.2463,144.7,96.6,0.538
17.78,31760.7,34453.3,-1.1564,-1.3459,144.7,96.6,0.538
17.8,31881.5,34563.5,-0.5695,-1.0748,144.7,96.6,0.538
17.82,31975.3,34840.9,-0.1141,-0.3929,144.7,96.6,0.538
17.84,32120.0,35289.9,0.5883,0.7113,144.7,96.6,0.538
17.86,32326.9,35618.1,1.593,1.5182,144.7,96.6,0.538
17.88,32473.5,35648.3,2.3051,1.5926,144.7,96.6,0.538
17.9,32373.6,35643.7,1.8201,1.5812,144.7,96.6,0.538
17.92,32353.9,35640.4,1.7244,1.573,144.7,96.6,0.538
17.94,32165.6,35298.0,0.8101,0.7311,144.7,96.6,0.538
17.96,32092.0,35194.0,0.4526,0.4754,144.7,96.6,0.538
17.98,31951.6,35169.5,-0.2292,0.4152,144.7,96.6,0.538
18.0,32061.2,35119.8,0.3029,0.2931,144.7,96.6,0.538
18.02,32009.8,34978.8,0.0535,-0.0537,144.7,96.6,0.538
18.04,31901.6,34890.6,-0.4718,-0.2707,144.7,96.6,0.538
18.06,31851.6,34813.4,-0.7148,-0.4604,144.7,96.6,0.538
18.08,31976.6,34759.5,-0.1078,-0.593,144.7,96.6,0.538
18.1,31860.9,34698.5,-0.6695,-0.743,144.7,96.6,0.538
18.12,31777.8,34600.9,-1.073,-0.9829,144.7,96.6,0.538
18.14,31867.3,34607.6,-0.6384,-0.9665,144.7,96.6,0.538
18.16,31741.7,34469.3,-1.2485,-1.3065,144.7,96.6,0.538
18.18,31858.7,34445.7,-0.6802,-1.3645,144.7,96.6,0.538
18.2,31603.9,34435.6,-1.9174,-1.3893,144.7,96.6,0.538
18.22,31766.5,34686.0,-1.1283,-0.7736,144.7,96.6,0.538
18.24,31942.7,35004.9,-0.2722,0.0105,144.7,96.6,0.538
18.26,32095.9,35389.2,0.4716,0.9555,144.7,96.6,0.538
18.28,32351.2,35648.3,1.7112,1.5924,144.7,96.6,0.538
18.3,32373.5,35731.4,1.8195,1.7969,144.7,96.6,0.538
18.32,32343.5,35618.3,1.6737,1.5188,144.7,96.6,0.538
18.34,32144.1,35481.1,0.7054,1.1815,144.7,96.6,0.538
18.36,32114.7,35312.7,0.5627,0.7674,144.7,96.6,0.538
18.38,32088.1,35188.7,0.4336,0.4623,144.7,96.6,0.538
18.4,32005.9,35077.2,0.0345,0.1884,144.7,96.6,0.538
18.42,31960.7,35034.8,-0.1851,0.0839,144.7,96.6,0.538
18.44,31956.0,35022.7,-0.208,0.0543,144.7,96.6,0.538
18.46,31993.5,34848.4,-0.026,-0.3745,144.7,96.6,0.538
18.48,31830.8,34797.5,-0.8159,-0.4994,144.7,96.6,0.538
18.5,31745.8,34712.1,-1.2284,-0.7094,144.7,96.6,0.538
18.52,31828.8,34689.5,-0.8256,-0.765,144.7,96.6,0.538
18.54,31770.8,34694.2,-1.1074,-0.7536,144.7,96.6,0.538
18.56,31721.2,34496.8,-1.348,-1.2389,144.7,96.6,0.538
18.58,31782.7,34568.0,-1.0494,-1.0639,144.7,96.6,0.538
18.6,31753.5,34422.0,-1.1912,-1.4228,144.7,96.6,0.538
18.62,31704.9,34556.0,-1.4272,-1.0932,144.7,96.6,0.538
18.64,31901.2,34858.7,-0.4741,-0.349,144.7,96.6,0.538
18.66,32010.3,35037.0,0.0556,0.0894,144.7,96.6,0.538
18.68,32233.6,35473.0,1.1399,1.1615,144.7,96.6,0.538
18.7,32338.5,35750.0,1.6492,1.8426,144.7,96.6,0.538
18.72,32351.6,35730.3,1.7128,1.7941,144.7,96.6,0.538
18.74,32238.1,35687.2,1.1618,1.6882,144.7,96.6,0.538
18.76,32163.6,35460.8,0.8004,1.1315,144.7,96.6,0.538
18.78,32111.1,35229.2,0.5452,0.5619,144.7,96.6,0.538
18.8,32080.1,35133.5,0.3948,0.3268,144.7,96.6,0.538
18.82,32083.1,35147.5,0.4095,0.3612,144.7,96.6,0.538
18.84,32061.2,35030.0,0.3028,0.0723,144.7,96.6,0.538
18.86,31995.3,34870.1,-0.017,-0.3209,144.7,96.6,0.538
18.88,31903.6,34859.2,-0.4624,-0.3477,144.7,96.6,0.538
18.9,31859.7,34757.5,-0.6755,-0.5978,144.7,96.6,0.538
18.92,31909.7,34622.4,-0.4327,-0.93,144.7,96.6,0.538
18.94,31904.2,34677.7,-0.4595,-0.7941,144.7,96.6,0.538
18.96,31830.9,34672.1,-0.8152,-0.8078,144.7,96.6,0.538
18.98,31768.6,34587.8,-1.1176,-1.0151,144.7,96.6,0.538
19.0,31796.9,34435.9,-0.9802,-1.3886,144.7,96.6,0.538
19.02,31741.2,34561.5,-1.2508,-1.0799,144.7,96.6,0.538
19.04,31773.0,34517.6,-1.0966,-1.1878,144.7,96.6,0.538
19.06,31952.6,34800.8,-0.2243,-0.4914,144.7,96.6,0.538
19.08,32110.7,35195.9,0.5431,0.4801,144.7,96.6,0.538
19.1,32262.7,35531.9,1.2814,1.3064,144.7,96.6,0.538
19.12,32382.3,35754.3,1.8623,1.8531,144.7,96.6,0.538
19.14,32431.9,35700.8,2.103,1.7216,144.7,96.6,0.538
19.16,32291.6,35577.9,1.4217,1.4193,144.7,96.6,0.538
19.18,32194.3,35381.8,0.9494,0.9372,144.7,96.6,0.538
19.2,32118.6,35147.7,0.5814,0.3617,144.7,96.6,0.538
19.22,32062.3,35206.5,0.3085,0.5062,144.7,96.6,0.538
19.24,32055.1,35072.0,0.2735,0.1755,144.7,96.6,0.538
19.26,31975.4,35001.8,-0.1135,0.0028,144.7,96.6,0.538
19.28,31947.4,34919.5,-0.2497,-0.1995,144.7,96.6,0.538
19.3,31932.7,34811.9,-0.3211,-0.464,144.7,96.6,0.538
19.32,31823.9,34662.4,-0.8493,-0.8316,144.7,96.6,0.538
19.34,31753.6,34679.8,-1.1906,-0.7889,144.7,96.6,0.538
19.36,31796.3,34642.9,-0.9833,-0.8797,144.7,96.6,0.538
19.38,31864.5,34619.2,-0.6519,-0.9379,144.7,96.6,0.538
19.4,31757.2,34532.2,-1.1733,-1.1519,144.7,96.6,0.538
19.42,31708.1,34456.2,-1.4114,-1.3388,144.7,96.6,0.538
19.44,31739.6,34445.0,-1.2586,-1.3662,144.7,96.6,0.538
19.46,31787.7,34623.0,-1.0249,-0.9286,144.7,96.6,0.538
19.48,31947.5,34897.2,-0.2493,-0.2543,144.7,96.6,0.538
19.5,32101.1,35267.5,0.4968,0.6561,144.7,96.6,0.538
19.52,32340.5,35573.7,1.6592,1.409,144.7,96.6,0.538
19.54,32390.7,35667.1,1.9029,1.6386,144.7,96.6,0.538
19.56,32347.1,35731.5,1.6912,1.7971,144.7,96.6,0.538
19.58,32297.6,35514.1,1.4511,1.2625,144.7,96.6,0.538
19.6,32131.7,35332.7,0.6455,0.8164,144.7,96.6,0.538
19.62,32085.1,35053.6,0.4188,0.1303,144.7,96.6,0.538
19.64,32027.6,35064.9,0.14,0.1579,144.7,96.6,0.538
19.66,31959.2,35088.9,-0.1921,0.2171,144.7,96.6,0.538
19.68,31938.3,35020.3,-0.2937,0.0483,144.7,96.6,0.538
19.7,31951.8,34850.5,-0.228,-0.3691,144.7,96.6,0.538
19.72,31904.4,34795.7,-0.4584,-0.504,144.7,96.6,0.538
19.74,31884.9,34669.1,-0.5531,-0.8152,144.7,96.6,0.538
19.76,31839.2,34650.2,-0.7753,-0.8616,144.7,96.6,0.538
19.78,31865.5,34609.1,-0.6475,-0.9627,144.7,96.6,0.538
19.8,31879.5,34678.3,-0.5793,-0.7925,144.7,96.6,0.538
19.82,31723.8,34586.8,-1.3353,-1.0176,144.7,96.6,0.538
19.84,31672.7,34422.6,-1.5835,-1.4214,144.7,96.6,0.538
19.86,31625.5,34479.6,-1.8129,-1.2813,144.7,96.6,0.538
19.88,31862.5,34697.3,-0.662,-0.7459,144.7,96.6,0.538
19.9,32048.3,35069.3,0.2404,0.1687,144.7,96.6,0.538
19.92,32189.7,35361.3,0.9268,0.8868,144.7,96.6,0.538
19.94,32301.5,35642.0,1.4697,1.5769,144.7,96.6,0.538
19.96,32329.7,35702.7,1.6065,1.7262,144.7,96.6,0.538
19.98,32381.9,35655.5,1.8602,1.6101,144.7,96.6,0.538
20.0,32223.8,35426.1,1.0924,1.0461,144.7,96.6,0.538
20.02,32059.1,35326.4,0.2929,0.801,144.7,96.6,0.538
20.04,32075.1,35213.6,0.3706,0.5237,144.7,96.6,0.538
20.06,32030.0,35144.2,0.1517,0.3531,144.7,96.6,0.538
20.08,32070.9,35010.8,0.35,0.0249,144.7,96.6,0.538
20.1,32055.6,34958.2,0.276,-0.1043,144.7,96.6,0.538
20.12,31952.5,34842.3,-0.225,-0.3892,144.7,96.6,0.538
20.14,31834.9,34690.7,-0.7958,-0.7622,144.7,96.6,0.538
20.16,31818.5,34681.4,-0.8756,-0.7849,144.7,96.6,0.538
20.18,31771.0,34729.2,-1.1063,-0.6674,144.7,96.6,0.538
20.2,31794.4,34661.6,-0.9925,-0.8336,144.7,96.6,0.538
20.22,31697.3,34690.8,-1.4639,-0.7619,144.7,96.6,0.538
20.24,31723.3,34537.4,-1.3379,-1.1391,144.7,96.6,0.538
20.26,31799.5,34428.6,-0.968,-1.4065,144.7,96.6,0.538
20.28,31823.8,34515.5,-0.8499,-1.1928,144.7,96.6,0.538
20.3,31904.1,34718.2,-0.4599,-0.6945,144.7,96.6,0.538
20.32,32020.4,35055.0,0.1047,0.1337,144.7,96.6,0.538
20.34,32230.3,35385.9,1.1243,0.9472,144.7,96.6,0.538
20.36,32414.4,35719.8,2.0179,1.7683,144.7,96.6,0.538
20.38,32274.8,35703.2,1.3402,1.7276,144.7,96.6,0.538
20.4,32416.1,35692.5,2.0265,1.7013,144.7,96.6,0.538
20.42,32321.4,35559.1,1.5663,1.3731,144.7,96.6,0.538
20.44,32204.9,35276.8,1.0005,0.6791,144.7,96.6,0.538
20.46,32007.9,35055.9,0.0442,0.1359,144.7,96.6,0.538
20.48,32022.9,35008.4,0.1171,0.0191,144.7,96.6,0.538
20.5,32004.0,35052.7,0.0253,0.1281,144.7,96.6,0.538
20.52,32001.1,34942.3,0.0111,-0.1434,144.7,96.6,0.538
20.54,31989.9,34804.2,-0.0432,-0.4831,144.7,96.6,0.538
20.56,31843.5,34617.4,-0.7539,-0.9422,144.7,96.6,0.538
20.58,31833.5,34702.7,-0.8026,-0.7325,144.7,96.6,0.538
20.6,31778.5,34706.1,-1.0698,-0.7243,144.7,96.6,0.538
20.62,31904.3,34693.0,-0.4589,-0.7564,144.7,96.6,0.538
20.64,31782.1,34590.7,-1.0523,-1.0081,144.7,96.6,0.538
20.66,31790.3,34504.8,-1.0123,-1.2192,144.7,96.6,0.538
20.68,31673.6,34368.8,-1.5789,-1.5537,144.7,96.6,0.538
20.7,31795.3,34622.7,-0.9882,-0.9293,144.7,96.6,0.538
20.72,31864.3,34878.0,-0.6531,-0.3015,144.7,96.6,0.538
20.74,32089.9,35245.4,0.4422,0.6018,144.7,96.6,0.538
20.76,32203.3,35441.5,0.9929,1.084,144.7,96.6,0.538
20.78,32365.8,35793.7,1.782,1.9501,144.7,96.6,0.538
20.8,32398.8,35881.7,1.942,2.1663,144.7,96.6,0.538
20.82,32273.1,35523.8,1.3318,1.2863,144.7,96.6,0.538
20.84,32092.7,35328.2,0.4557,0.8055,144.7,96.6,0.538
20.86,32078.2,35139.1,0.3853,0.3405,144.7,96.6,0.538
20.88,31991.2,35024.1,-0.0369,0.0576,144.7,96.6,0.538
20.9,32009.4,35115.1,0.0516,0.2815,144.7,96.6,0.538
20.92,32077.5,34905.4,0.3821,-0.2342,144.7,96.6,0.538
20.94,31938.2,34845.5,-0.2944,-0.3814,144.7,96.6,0.538
20.96,31932.9,34795.1,-0.3203,-0.5055,144.7,96.6,0.538
20.98,31873.2,34654.2,-0.6098,-0.8518,144.7,96.6,0.538
21.0,31959.4,34680.0,-0.1915,-0.7883,144.7,96.6,0.538
21.02,31761.1,34613.1,-1.1545,-0.9529,144.7,96.6,0.538
21.04,31857.4,34707.6,-0.6868,-0.7204,144.7,96.6,0.538
21.06,31858.9,34509.4,-0.6794,-1.2079,144.7,96.6,0.538
21.08,31740.7,34478.9,-1.2535,-1.2829,144.7,96.6,0.538
21.1,31837.1,34374.5,-0.7853,-1.5396,144.7,96.6,0.538
21.12,31866.6,34643.8,-0.6418,-0.8774,144.7,96.6,0.538
21.14,31911.4,34945.4,-0.4244,-0.1358,144.7,96.6,0.538
21.16,32199.4,35330.7,0.9739,0.8116,144.7,96.6,0.538
21.18,32267.1,35619.8,1.3027,1.5225,144.7,96.6,0.538
21.2,32351.2,35780.2,1.711,1.9168,144.7,96.6,0.538
21.22,32302.2,35661.0,1.4732,1.6239,144.7,96.6,0.538
21.24,32194.4,35538.5,0.9499,1.3225,144.7,96.6,0.538
21.26,32184.3,35321.9,0.9009,0.79,144.7,96.6,0.538
21.28,32030.8,35185.7,0.1555,0.4551,144.7,96.6,0.538
21.3,32074.8,35081.0,0.3689,0.1975,144.7,96.6,0.538
21.32,32137.2,35050.0,0.6719,0.1215,144.7,96.6,0.538
21.34,31972.2,35005.8,-0.1293,0.0127,144.7,96.6,0.538
21.36,31979.1,34877.7,-0.0958,-0.3023,144.7,96.6,0.538
21.38,31853.7,34798.5,-0.7046,-0.497,144.7,96.6,0.538
21.4,31875.4,34644.8,-0.5993,-0.875,144.7,96.6,0.538
21.42,31797.3,34688.8,-0.9784,-0.7667,144.7,96.6,0.538
21.44,31803.0,34646.7,-0.9506,-0.8702,144.7,96.6,0.538
21.46,31728.6,34682.8,-1.3119,-0.7815,144.7,96.6,0.538
21.48,31761.5,34597.7,-1.1522,-0.9907,144.7,96.6,0.538
21.5,31745.3,34468.3,-1.2307,-1.309,144.7,96.6,0.538
21.52,31745.8,34381.1,-1.2286,-1.5234,144.7,96.6,0.538
21.54,31875.4,34617.9,-0.599,-0.9412,144.7,96.6,0.538
21.56,32010.4,35112.9,0.0565,0.2759,144.7,96.6,0.538
21.58,32158.6,35395.0,0.776,0.9698,144.7,96.6,0.538
21.6,32310.1,35599.9,1.5118,1.4736,144.7,96.6,0.538
21.62,32376.6,35689.8,1.8346,1.6945,144.7,96.6,0.538
21.64,32374.9,35558.7,1.8263,1.3722,144.7,96.6,0.538
21.66,32226.3,35404.2,1.1047,0.9922,144.7,96.6,0.538
21.68,32154.3,35290.0,0.755,0.7114,144.7,96.6,0.538
21.7,32019.9,35201.3,0.1026,0.4933,144.7,96.6,0.538
21.72,32088.5,35155.0,0.4353,0.3796,144.7,96.6,0.538
21.74,31992.3,35122.2,-0.0316,0.2989,144.7,96.6,0.538
21.76,31970.9,34880.9,-0.1354,-0.2945,144.7,96.6,0.538
21.78,31907.3,34762.4,-0.4443,-0.5857,144.7,96.6,0.538
21.8,31801.2,34734.1,-0.9596,-0.6553,144.7,96.6,0.538
21.82,31822.2,34713.2,-0.8577,-0.7067,144.7,96.6,0.538
21.84,31836.8,34657.7,-0.7866,-0.8433,144.7,96.6,0.538
21.86,31783.2,34601.6,-1.0468,-0.9812,144.7,96.6,0.538
21.88,31795.8,34587.9,-0.9859,-1.0148,144.7,96.6,0.538
21.9,31742.0,34511.8,-1.2471,-1.2021,144.7,96.6,0.538
21.92,31783.4,34477.8,-1.0461,-1.2857,144.7,96.6,0.538
21.94,31767.1,34420.0,-1.1251,-1.4278,144.7,96.6,0.538
21.96,31914.0,34765.8,-0.4116,-0.5774,144.7,96.6,0.538
21.98,32042.1,35143.1,0.2104,0.3502,144.7,96.6,0.538
22.0,32247.7,35396.8,1.2086,0.9741,144.7,96.6,0.538
22.02,32330.2,35751.1,1.609,1.8452,144.7,96.6,0.538
22.04,32291.3,35794.2,1.4204,1.9513,144.7,96.6,0.538
22.06,32318.8,35673.8,1.5539,1.6551,144.7,96.6,0.538
22.08,32199.1,35443.0,0.9728,1.0876,144.7,96.6,0.538
22.1,32112.1,35215.9,0.5501,0.5294,144.7,96.6,0.538
22.12,32148.4,35042.8,0.7262,0.1038,144.7,96.6,0.538
22.14,32037.8,35069.4,0.1893,0.169,144.7,96.6,0.538
22.16,32033.0,34987.0,0.166,-0.0336,144.7,96.6,0.538
22.18,31997.1,34901.2,-0.0085,-0.2444,144.7,96.6,0.538
22.2,31873.9,34895.0,-0.6064,-0.2597,144.7,96.6,0.538
22.22,31976.2,34714.7,-0.1096,-0.703,144.7,96.6,0.538
22.24,31849.2,34662.3,-0.7264,-0.8319,144.7,96.6,0.538
22.26,31870.0,34697.9,-0.6253,-0.7445,144.7,96.6,0.538
22.28,31852.7,34626.3,-0.7096,-0.9206,144.7,96.6,0.538
22.3,31921.2,34585.8,-0.3769,-1.02,144.7,96.6,0.538
22.32,31662.6,34496.2,-1.6325,-1.2404,144.7,96.6,0.538
22.34,31721.4,34488.9,-1.347,-1.2582,144.7,96.6,0.538
22.36,31746.1,34554.5,-1.2268,-1.0971,144.7,96.6,0.538
22.38,31906.1,34776.7,-0.4501,-0.5505,144.7,96.6,0.538
22.4,32113.4,35221.3,0.5563,0.5425,144.7,96.6,0.538
22.42,32284.5,35601.2,1.3874,1.4768,144.7,96.6,0.538
22.44,32410.9,35781.8,2.0011,1.9207,144.7,96.6,0.538
22.46,32330.5,35687.2,1.6106,1.6882,144.7,96.6,0.538
22.48,32226.8,35533.8,1.1071,1.3109,144.7,96.6,0.538
22.5,32204.6,35345.6,0.9993,0.8483,144.7,96.6,0.538
22.52,32118.5,35266.7,0.5814,0.6542,144.7,96.6,0.538
22.54,32077.0,35144.1,0.3797,0.3528,144.7,96.6,0.538
22.56,32098.5,35022.7,0.4843,0.0543,144.7,96.6,0.538
22.58,31989.7,34900.0,-0.0443,-0.2475,144.7,96.6,0.538
22.6,31935.8,34890.7,-0.3062,-0.2703,144.7,96.6,0.538
22.62,31905.7,34774.9,-0.4522,-0.555,144.7,96.6,0.538
22.64,31935.8,34738.6,-0.3061,-0.6444,144.7,96.6,0.538
22.66,31803.3,34642.3,-0.9491,-0.8811,144.7,96.6,0.538
22.68,31926.3,34634.1,-0.352,-0.9013,144.7,96.6,0.538
22.7,31816.5,34649.9,-0.8851,-0.8626,144.7,96.6,0.538
22.72,31854.5,34554.9,-0.7009,-1.0959,144.7,96.6,0.538
22.74,31683.0,34461.2,-1.5333,-1.3265,144.7,96.6,0.538
22.76,31767.9,34464.9,-1.1213,-1.3174,144.7,96.6,0.538
22.78,31941.6,34693.2,-0.2776,-0.756,144.7,96.6,0.538
22.8,31890.0,35002.3,-0.5286,0.004,144.7,96.6,0.538
22.82,32180.8,35323.2,0.8839,0.7931,144.7,96.6,0.538
22.84,32373.1,35638.2,1.8175,1.5678,144.7,96.6,0.538
22.86,32354.8,35781.5,1.7285,1.9202,144.7,96.6,0.538
22.88,32414.8,35821.8,2.0198,2.019,144.7,96.6,0.538
22.9,32245.6,35556.7,1.1981,1.3673,144.7,96.6,0.538
22.92,32138.4,35288.4,0.678,0.7076,144.7,96.6,0.538
22.94,32026.8,35184.3,0.136,0.4515,144.7,96.6,0.538
22.96,32035.6,35097.2,0.1785,0.2374,144.7,96.6,0.538
22.98,32090.6,35035.7,0.4457,0.0862,144.7,96.6,0.538
23.0,31969.3,35011.0,-0.1432,0.0256,144.7,96.6,0.538
23.02,31981.0,34893.7,-0.0866,-0.2629,144.7,96.6,0.538
23.04,31748.8,34744.7,-1.2137,-0.6293,144.7,96.6,0.538
23.06,31844.9,34652.7,-0.7475,-0.8557,144.7,96.6,0.538
23.08,31779.3,34752.8,-1.0661,-0.6095,144.7,96.6,0.538
23.1,31800.1,34607.4,-0.9648,-0.9669,144.7,96.6,0.538
23.12,31879.6,34565.4,-0.5788,-1.0703,144.7,96.6,0.538
23.14,31712.4,34493.7,-1.3908,-1.2466,144.7,96.6,0.538
23.16,31705.4,34460.1,-1.4248,-1.329,144.7,96.6,0.538
23.18,31715.2,34502.9,-1.377,-1.2238,144.7,96.6,0.538
23.2,31790.6,34727.7,-1.0108,-0.6712,144.7,96.6,0.538
23.22,31972.8,35048.5,-0.1261,0.1176,144.7,96.6,0.538
23.24,32161.2,35335.4,0.7886,0.8231,144.7,96.6,0.538
23.26,32274.6,35742.7,1.3394,1.8247,144.7,96.6,0.538
23.28,32428.0,35728.4,2.0838,1.7894,144.7,96.6,0.538
23.3,32346.7,35615.6,1.6891,1.5122,144.7,96.6,0.538
23.32,32081.1,35394.8,0.3996,0.9691,144.7,96.6,0.538
23.34,32100.2,35271.3,0.4924,0.6655,144.7,96.6,0.538
23.36,32069.3,35047.9,0.3423,0.1163,144.7,96.6,0.538
23.38,31961.7,35052.6,-0.1803,0.1277,144.7,96.6,0.538
23.4,32002.8,35033.3,0.0193,0.0803,144.7,96.6,0.538
23.42,31871.5,34896.2,-0.618,-0.2569,144.7,96.6,0.538
23.44,31959.1,34882.8,-0.1929,-0.2896,144.7,96.6,0.538
23.46,31921.7,34695.4,-0.3742,-0.7505,144.7,96.6,0.538
23.48,31835.0,34756.6,-0.7954,-0.6,144.7,96.6,0.538
23.5,31882.3,34692.8,-0.566,-0.7569,144.7,96.6,0.538
23.52,31809.1,34700.5,-0.921,-0.7381,144.7,96.6,0.538
23.54,31842.2,34565.3,-0.7606,-1.0704,144.7,96.6,0.538
23.56,31744.1,34536.8,-1.2369,-1.1405,144.7,96.6,0.538
23.58,31764.9,34523.7,-1.1358,-1.1728,144.7,96.6,0.538
23.6,31791.1,34448.6,-1.0085,-1.3574,144.7,96.6,0.538
23.62,31831.0,34720.3,-0.8148,-0.6894,144.7,96.6,0.538
23.64,32155.3,35222.4,0.7599,0.5453,144.7,96.6,0.538
23.66,32224.2,35505.6,1.0945,1.2417,144.7,96.6,0.538
23.68,32290.5,35676.9,1.4163,1.6628,144.7,96.6,0.538
23.7,32328.5,35771.3,1.6009,1.895,144.7,96.6,0.538
23.72,32276.3,35627.6,1.3472,1.5416,144.7,96.6,0.538
23.74,32117.6,35342.1,0.5767,0.8397,144.7,96.6,0.538
23.76,32060.1,35237.1,0.2978,0.5814,144.7,96.6,0.538
23.78,32056.4,35119.3,0.2798,0.2918,144.7,96.6,0.538
23.8,32122.2,35056.7,0.5992,0.1378,144.7,96.6,0.538
23.82,32055.1,35132.3,0.2732,0.3238,144.7,96.6,0.538
23.84,31990.6,34987.5,-0.0398,-0.0324,144.7,96.6,0.538
23.86,31883.6,34868.0,-0.5592,-0.3261,144.7,96.6,0.538
23.88,31777.9,34656.4,-1.0727,-0.8465,144.7,96.6,0.538
23.9,31781.3,34774.6,-1.0562,-0.5559,144.7,96.6,0.538
23.92,31765.0,34674.7,-1.1355,-0.8016,144.7,96.6,0.538
23.94,31785.2,34648.3,-1.0372,-0.8664,144.7,96.6,0.538
23.96,31774.2,34582.1,-1.0908,-1.0291,144.7,96.6,0.538
23.98,31700.3,34552.1,-1.4493,-1.103,144.7,96.6,0.538
24.0,31727.6,34464.3,-1.3167,-1.3188,144.7,96.6,0.538
24.02,31788.4,34609.1,-1.0216,-0.9628,144.7,96.6,0.538
24.04,31950.2,34854.9,-0.236,-0.3585,144.7,96.6,0.538
24.06,32138.3,35308.1,0.6774,0.756,144.7,96.6,0.538
24.08,32281.0,35544.0,1.3704,1.3361,144.7,96.6,0.538
24.1,32364.2,35764.6,1.7741,1.8786,144.7,96.6,0.538
24.12,32366.8,35805.3,1.7868,1.9786,144.7,96.6,0.538
24.14,32319.8,35546.3,1.5584,1.3418,144.7,96.6,0.538
24.16,32106.9,35318.3,0.5248,0.7811,144.7,96.6,0.538
24.18,32123.0,35109.4,0.6029,0.2675,144.7,96.6,0.538
24.2,32110.3,35059.2,0.5412,0.144,144.7,96.6,0.538
24.22,32023.6,35067.4,0.1204,0.1641,144.7,96.6,0.538
24.24,32074.7,34928.1,0.3683,-0.1785,144.7,96.6,0.538
24.26,31881.2,34914.5,-0.5711,-0.2119,144.7,96.6,0.538
24.28,31940.3,34771.4,-0.2843,-0.5637,144.7,96.6,0.538
24.3,31910.1,34750.6,-0.4306,-0.6149,144.7,96.6,0.538
24.32,31853.5,34655.3,-0.7054,-0.8491,144.7,96.6,0.538
24.34,31793.3,34597.1,-0.998,-0.9922,144.7,96.6,0.538
24.36,31741.9,34552.0,-1.2475,-1.1033,144.7,96.6,0.538
24.38,31752.6,34430.4,-1.1955,-1.4021,144.7,96.6,0.538
24.4,31640.1,34435.8,-1.7417,-1.389,144.7,96.6,0.538
24.42,31748.5,34529.5,-1.2155,-1.1586,144.7,96.6,0.538
24.44,31782.7,34631.5,-1.0492,-0.9077,144.7,96.6,0.538
24.46,32085.9,34974.5,0.4228,-0.0643,144.7,96.6,0.538
24.48,32146.4,35324.0,0.7168,0.7951,144.7,96.6,0.538
24.5,32377.6,35612.8,1.8394,1.5051,144.7,96.6,0.538
24.52,32420.5,35757.2,2.0479,1.8603,144.7,96.6,0.538
24.54,32425.9,35602.8,2.074,1.4806,144.7,96.6,0.538
24.56,32261.0,35502.5,1.2729,1.234,144.7,96.6,0.538
24.58,32116.9,35322.7,0.5735,0.7919,144.7,96.6,0.538
24.6,32073.1,35092.1,0.3607,0.2249,144.7,96.6,0.538
24.62,32083.1,35075.8,0.4093,0.1848,144.7,96.6,0.538
24.64,32036.0,35064.4,0.1805,0.1567,144.7,96.6,0.538
24.66,31977.1,34911.9,-0.1054,-0.2183,144.7,96.6,0.538
24.68,31892.0,34847.9,-0.5187,-0.3756,144.7,96.6,0.538
24.7,31823.1,34798.9,-0.8533,-0.4959,144.7,96.6,0.538
24.72,31807.8,34647.8,-0.9273,-0.8675,144.7,96.6,0.538
24.74,31916.2,34613.9,-0.4013,-0.951,144.7,96.6,0.538
24.76,31875.9,34707.1,-0.5968,-0.7219,144.7,96.6,0.538
24.78,31866.2,34568.0,-0.6439,-1.0639,144.7,96.6,0.538
24.8,31764.5,34429.3,-1.1376,-1.405,144.7,96.6,0.538
24.82,31719.3,34438.5,-1.3571,-1.3823,144.7,96.6,0.538
24.84,31755.1,34512.9,-1.1835,-1.1994,144.7,96.6,0.538
24.86,31837.2,34700.6,-0.785,-0.7378,144.7,96.6,0.538
24.88,32123.7,35134.2,0.6063,0.3285,144.7,96.6,0.538
24.9,32187.9,35419.7,0.9181,1.0304,144.7,96.6,0.538
24.92,32293.6,35660.0,1.4312,1.6213,144.7,96.6,0.538
24.94,32364.1,35756.5,1.7737,1.8585,144.7,96.6,0.538
24.96,32324.1,35573.5,1.5796,1.4085,144.7,96.6,0.538
24.98,32247.6,35477.4,1.2082,1.1722,144.7,96.6,0.538
25.0,32042.6,35234.2,0.2127,0.5744,144.7,96.6,0.538
25.02,32092.7,35207.9,0.4557,0.5097,144.7,96.6,0.538
25.04,32138.8,35086.6,0.6798,0.2114,144.7,96.6,0.538
25.06,31979.1,35024.8,-0.0958,0.0593,144.7,96.6,0.538
25.08,31884.5,34899.4,-0.5553,-0.2489,144.7,96.6,0.538
25.1,31894.7,34758.6,-0.5057,-0.5952,144.7,96.6,0.538
25.12,31920.4,34682.8,-0.3806,-0.7816,144.7,96.6,0.538
25.14,31891.9,34729.5,-0.5191,-0.6668,144.7,96.6,0.538
25.16,31802.0,34760.2,-0.9556,-0.5913,144.7,96.6,0.538
25.18,31794.5,34649.5,-0.9921,-0.8635,144.7,96.6,0.538
25.2,31762.3,34610.1,-1.1484,-0.9602,144.7,96.6,0.538
25.22,31768.7,34488.9,-1.1174,-1.2583,144.7,96.6,0.538
25.24,31688.2,34524.3,-1.5083,-1.1714,144.7,96.6,0.538
25.26,31793.9,34595.5,-0.9949,-0.9962,144.7,96.6,0.538
25.28,31888.1,34821.5,-0.5374,-0.4405,144.7,96.6,0.538
25.3,32052.3,35171.0,0.2599,0.419,144.7,96.6,0.538
25.32,32205.4,35501.7,1.003,1.2321,144.7,96.6,0.538
25.34,32399.0,35645.1,1.9431,1.5847,144.7,96.6,0.538
25.36,32275.5,35836.6,1.3436,2.0556,144.7,96.6,0.538
25.38,32233.4,35503.0,1.1392,1.2353,144.7,96.6,0.538
25.4,32104.7,35358.2,0.5141,0.8792,144.7,96.6,0.538
25.42,32133.5,35260.2,0.6541,0.6382,144.7,96.6,0.538
25.44,32065.6,35088.9,0.3243,0.217,144.7,96.6,0.538
25.46,32031.9,35059.2,0.1608,0.1441,144.7,96.6,0.538
25.48,32035.2,35029.4,0.1767,0.0708,144.7,96.6,0.538
25.5,32062.5,34972.9,0.3091,-0.0682,144.7,96.6,0.538
25.52,31914.2,34777.7,-0.4107,-0.5482,144.7,96.6,0.538
25.54,31904.9,34698.8,-0.4558,-0.7422,144.7,96.6,0.538
25.56,31800.5,34657.7,-0.9628,-0.8433,144.7,96.6,0.538
25.58,31856.9,34617.4,-0.6888,-0.9424,144.7,96.6,0.538
25.6,31831.1,34582.6,-0.8144,-1.028,144.7,96.6,0.538
25.62,31867.6,34588.4,-0.6369,-1.0138,144.7,96.6,0.538
25.64,31760.9,34543.8,-1.1551,-1.1232,144.7,96.6,0.538
25.66,31745.0,34472.3,-1.2326,-1.2992,144.7,96.6,0.538
25.68,31808.6,34544.4,-0.9234,-1.122,144.7,96.6,0.538
25.7,31936.2,34882.5,-0.3042,-0.2906,144.7,96.6,0.538
25.72,32148.8,35288.8,0.7283,0.7085,144.7,96.6,0.538
25.74,32330.0,35595.6,1.6081,1.4628,144.7,96.6,0.538
25.76,32380.8,35717.4,1.8547,1.7623,144.7,96.6,0.538
25.78,32406.0,35663.0,1.9772,1.6288,144.7,96.6,0.538
25.8,32248.6,35537.4,1.2129,1.3199,144.7,96.6,0.538
25.82,32118.4,35439.4,0.5806,1.079,144.7,96.6,0.538
25.84,32119.4,35172.6,0.5858,0.4227,144.7,96.6,0.538
25.86,32023.7,35118.0,0.1209,0.2886,144.7,96.6,0.538
25.88,32074.3,35113.5,0.3665,0.2776,144.7,96.6,0.538
25.9,32028.3,35025.5,0.143,0.0612,144.7,96.6,0.538
25.92,32014.9,34922.0,0.0781,-0.1933,144.7,96.6,0.538
25.94,31801.3,34774.1,-0.9589,-0.5572,144.7,96.6,0.538
25.96,31906.2,34726.9,-0.4497,-0.673,144.7,96.6,0.538
25.98,31824.8,34615.2,-0.8447,-0.9477,144.7,96.6,0.538
26.0,31853.1,34683.9,-0.7074,-0.7788,144.7,96.6,0.538
26.02,31821.4,34669.5,-0.8613,-0.8143,144.7,96.6,0.538
26.04,31762.5,34618.9,-1.1474,-0.9387,144.7,96.6,0.538
26.06,31754.8,34453.2,-1.1847,-1.3461,144.7,96.6,0.538
26.08,31793.2,34518.3,-0.9985,-1.1861,144.7,96.6,0.538
26.1,31804.1,34743.9,-0.9454,-0.6312,144.7,96.6,0.538
26.12,32050.7,34937.4,0.2522,-0.1556,144.7,96.6,0.538
26.14,32217.8,35288.2,1.0633,0.707,144.7,96.6,0.538
26.16,32300.9,35596.8,1.4669,1.4658,144.7,96.6,0.538
26.18,32401.6,35644.7,1.9557,1.5838,144.7,96.6,0.538
26.2,32282.6,35659.1,1.3779,1.6191,144.7,96.6,0.538
26.22,32235.7,35565.1,1.1505,1.3879,144.7,96.6,0.538
26.24,32053.3,35314.9,0.2644,0.7726,144.7,96.6,0.538
26.26,32177.6,35222.4,0.8683,0.5453,144.7,96.6,0.538
26.28,32089.8,35095.9,0.4419,0.2342,144.7,96.6,0.538
26.3,32053.9,35034.4,0.2676,0.083,144.7,96.6,0.538
26.32,31950.2,34897.1,-0.236,-0.2545,144.7,96.6,0.538
26.34,31891.3,34808.5,-0.5219,-0.4725,144.7,96.6,0.538
26.36,31868.2,34690.2,-0.634,-0.7634,144.7,96.6,0.538
26.38,31840.8,34772.5,-0.7673,-0.5609,144.7,96.6,0.538
26.4,31820.7,34652.6,-0.8647,-0.8558,144.7,96.6,0.538
26.42,31876.4,34665.6,-0.5946,-0.8237,144.7,96.6,0.538
26.44,31932.8,34540.2,-0.3203,-1.1321,144.7,96.6,0.538
26.46,31726.6,34513.8,-1.3217,-1.1971,144.7,96.6,0.538
26.48,31737.8,34493.3,-1.2675,-1.2476,144.7,96.6,0.538
26.5,31708.6,34500.4,-1.4093,-1.2301,144.7,96.6,0.538
26.52,31816.9,34693.3,-0.8832,-0.7558,144.7,96.6,0.538
26.54,32074.0,35094.7,0.3652,0.2313,144.7,96.6,0.538
26.56,32223.5,35457.0,1.0913,1.1221,144.7,96.6,0.538
26.58,32339.9,35738.0,1.656,1.813,144.7,96.6,0.538
26.6,32334.9,35657.6,1.6319,1.6153,144.7,96.6,0.538
26.62,32300.4,35661.9,1.4642,1.626,144.7,96.6,0.538
26.64,32291.7,35393.8,1.4221,0.9668,144.7,96.6,0.538
26.66,32130.6,35340.9,0.6398,0.8366,144.7,96.6,0.538
26.68,32138.7,35199.7,0.6794,0.4894,144.7,96.6,0.538
26.7,32076.5,35025.1,0.3771,0.0601,144.7,96.6,0.538
26.72,31971.3,35053.4,-0.1336,0.1298,144.7,96.6,0.538
26.74,32040.2,34935.8,0.2011,-0.1594,144.7,96.6,0.538
26.76,31929.4,34833.9,-0.3371,-0.41,144.7,96.6,0.538
26.78,31970.4,34749.2,-0.138,-0.6182,144.7,96.6,0.538
26.8,31884.1,34687.0,-0.5572,-0.7711,144.7,96.6,0.538
26.82,31779.6,34656.1,-1.0643,-0.8473,144.7,96.6,0.538
26.84,31864.8,34645.6,-0.6508,-0.8731,144.7,96.6,0.538
26.86,31785.4,34471.1,-1.0365,-1.302,144.7,96.6,0.538
26.88,31663.2,34534.3,-1.6295,-1.1466,144.7,96.6,0.538
26.9,31759.4,34470.9,-1.1627,-1.3025,144.7,96.6,0.538
26.92,31836.0,34540.7,-0.7906,-1.131,144.7,96.6,0.538
26.94,31979.1,34765.0,-0.0956,-0.5795,144.7,96.6,0.538
26.96,32172.2,35157.8,0.8418,0.3865,144.7,96.6,0.538
26.98,32245.3,35485.0,1.1967,1.191,144.7,96.6,0.538
27.0,32406.2,35716.1,1.978,1.7592,144.7,96.6,0.538
27.02,32319.6,35764.1,1.5578,1.8772,144.7,96.6,0.538
27.04,32259.9,35581.4,1.2679,1.4279,144.7,96.6,0.538
27.06,32105.4,35444.0,0.5177,1.0902,144.7,96.6,0.538
27.08,32095.1,35302.7,0.4674,0.7426,144.7,96.6,0.538
27.1,32021.9,35058.0,0.1123,0.1412,144.7,96.6,0.538
27.12,32011.2,35103.3,0.0602,0.2525,144.7,96.6,0.538
27.14,32006.1,34982.9,0.0356,-0.0435,144.7,96.6,0.538
27.16,31977.5,35009.5,-0.1034,0.0218,144.7,96.6,0.538
27.18,31883.9,34768.8,-0.5579,-0.57,144.7,96.6,0.538
27.2,31791.3,34652.5,-1.0074,-0.856,144.7,96.6,0.538
27.22,31925.4,34728.0,-0.3562,-0.6704,144.7,96.6,0.538
27.24,31808.3,34621.1,-0.9251,-0.9334,144.7,96.6,0.538
27.26,31908.1,34732.1,-0.4407,-0.6603,144.7,96.6,0.538
27.28,31757.3,34597.6,-1.1728,-0.9911,144.7,96.6,0.538
27.3,31733.2,34464.0,-1.2898,-1.3194,144.7,96.6,0.538
27.32,31700.4,34412.7,-1.4488,-1.4457,144.7,96.6,0.538
27.34,31730.8,34564.2,-1.3016,-1.0732,144.7,96.6,0.538
27.36,31894.6,34930.5,-0.5061,-0.1724,144.7,96.6,0.538
27.38,32119.1,35260.7,0.5842,0.6393,144.7,96.6,0.538
27.4,32343.1,35618.2,1.6719,1.5185,144.7,96.6,0.538
27.42,32296.1,35704.4,1.4436,1.7305,144.7,96.6,0.538
27.44,32438.4,35822.3,2.1344,2.0205,144.7,96.6,0.538
27.46,32214.5,35546.1,1.0471,1.3412,144.7,96.6,0.538
27.48,32151.9,35287.9,0.7433,0.7064,144.7,96.6,0.538
27.5,32111.7,35231.5,0.5481,0.5677,144.7,96.6,0.538
27.52,32164.8,35137.7,0.8058,0.337,144.7,96.6,0.538
27.54,31933.7,35058.5,-0.316,0.1422,144.7,96.6,0.538
27.56,32074.6,34975.6,0.368,-0.0615,144.7,96.6,0.538
27.58,31962.8,34913.5,-0.1751,-0.2144,144.7,96.6,0.538
27.6,31931.6,34735.9,-0.3266,-0.651,144.7,96.6,0.538
27.62,31812.0,34746.6,-0.9071,-0.6247,144.7,96.6,0.538
27.64,31789.4,34607.2,-1.0166,-0.9675,144.7,96.6,0.538
27.66,31800.2,34626.0,-0.9646,-0.9213,144.7,96.6,0.538
27.68,31809.1,34594.4,-0.9212,-0.9988,144.7,96.6,0.538
27.7,31761.1,34592.8,-1.1541,-1.0028,144.7,96.6,0.538
27.72,31704.8,34426.8,-1.4274,-1.4111,144.7,96.6,0.538
27.74,31733.1,34457.0,-1.2902,-1.3369,144.7,96.6,0.538
27.76,31834.5,34604.7,-0.7977,-0.9736,144.7,96.6,0.538
27.78,32034.0,35058.2,0.1711,0.1415,144.7,96.6,0.538
27.8,32143.9,35400.8,0.7046,0.984,144.7,96.6,0.538
27.82,32360.6,35723.2,1.7566,1.7767,144.7,96.6,0.538
27.84,32341.7,35725.7,1.6648,1.7828,144.7,96.6,0.538
27.86,32279.2,35632.6,1.3613,1.554,144.7,96.6,0.538
27.88,32233.1,35385.6,1.1376,0.9465,144.7,96.6,0.538
27.9,32161.0,35272.1,0.7877,0.6676,144.7,96.6,0.538
27.92,32127.7,35160.9,0.6259,0.394,144.7,96.6,0.538
27.94,32134.8,35065.4,0.6605,0.1593,144.7,96.6,0.538
27.96,32072.4,35192.3,0.3572,0.4712,144.7,96.6,0.538
27.98,32003.9,34952.3,0.0248,-0.1188,144.7,96.6,0.538
28.0,31934.5,34793.7,-0.3125,-0.5089,144.7,96.6,0.538
28.02,31871.9,34717.7,-0.6164,-0.6958,144.7,96.6,0.538
28.04,31810.0,34663.5,-0.917,-0.8291,144.7,96.6,0.538
28.06,31850.1,34589.1,-0.7221,-1.0119,144.7,96.6,0.538
28.08,31918.9,34585.4,-0.388,-1.0211,144.7,96.6,0.538
28.1,31870.1,34623.9,-0.6251,-0.9263,144.7,96.6,0.538
28.12,31762.4,34531.5,-1.1479,-1.1535,144.7,96.6,0.538
28.14,31730.3,34407.3,-1.3037,-1.459,144.7,96.6,0.538
28.16,31784.7,34519.9,-1.0397,-1.1822,144.7,96.6,0.538
28.18,31885.4,34812.8,-0.5506,-0.4619,144.7,96.6,0.538
28.2,32067.4,35145.4,0.333,0.356,144.7,96.6,0.538
28.22,32244.4,35511.1,1.1924,1.2552,144.7,96.6,0.538
28.24,32337.0,35776.5,1.6423,1.9077,144.7,96.6,0.538
28.26,32491.1,35761.1,2.3904,1.8698,144.7,96.6,0.538
28.28,32318.0,35548.6,1.5501,1.3473,144.7,96.6,0.538
28.3,32142.7,35381.5,0.6986,0.9364,144.7,96.6,0.538
28.32,32164.0,35322.2,0.8023,0.7908,144.7,96.6,0.538
28.34,32136.8,35088.1,0.6698,0.215,144.7,96.6,0.538
28.36,32015.9,35097.7,0.0831,0.2386,144.7,96.6,0.538
28.38,32003.4,35031.6,0.0224,0.076,144.7,96.6,0.538
28.4,31961.0,34941.1,-0.1838,-0.1465,144.7,96.6,0.538
28.42,31821.2,34743.6,-0.8623,-0.632,144.7,96.6,0.538
28.44,31890.7,34665.9,-0.5249,-0.8232,144.7,96.6,0.538
28.46,31830.6,34693.5,-0.8169,-0.7552,144.7,96.6,0.538
28.48,31799.5,34667.5,-0.9678,-0.8193,144.7,96.6,0.538
28.5,31742.8,34664.2,-1.2432,-0.8272,144.7,96.6,0.538
28.52,31792.2,34682.4,-1.0034,-0.7824,144.7,96.6,0.538
28.54,31774.1,34553.3,-1.0911,-1.1,144.7,96.6,0.538
28.56,31706.1,34472.7,-1.4211,-1.2983,144.7,96.6,0.538
28.58,31750.8,34606.6,-1.204,-0.969,144.7,96.6,0.538
28.6,31920.8,34895.8,-0.3788,-0.2578,144.7,96.6,0.538
28.62,32054.7,35224.7,0.2712,0.551,144.7,96.6,0.538
28.64,32290.5,35572.0,1.4164,1.4049,144.7,96.6,0.538
28.66,32312.6,35835.1,1.5238,2.0519,144.7,96.6,0.538
28.68,32412.6,35809.1,2.0093,1.9879,144.7,96.6,0.538
28.7,32336.3,35576.4,1.6386,1.4158,144.7,96.6,0.538
28.72,32224.1,35412.9,1.0938,1.0137,144.7,96.6,0.538
28.74,32161.8,35268.5,0.7914,0.6587,144.7,96.6,0.538
28.76,32009.0,35047.8,0.0497,0.1158,144.7,96.6,0.538
28.78,32028.9,35142.1,0.1459,0.3478,144.7,96.6,0.538
28.8,31952.8,34999.2,-0.2235,-0.0036,144.7,96.6,0.538
28.82,31885.5,34964.5,-0.5503,-0.0889,144.7,96.6,0.538
28.84,31826.6,34783.4,-0.8362,-0.5341,144.7,96.6,0.538
28.86,31917.1,34640.7,-0.3968,-0.885,144.7,96.6,0.538
28.88,31852.0,34628.1,-0.7129,-0.9161,144.7,96.6,0.538
28.9,31839.3,34644.0,-0.7748,-0.877,144.7,96.6,0.538
28.92,31891.5,34584.8,-0.5212,-1.0226,144.7,96.6,0.538
28.94,31799.0,34416.7,-0.9701,-1.436,144.7,96.6,0.538
28.96,31701.7,34451.6,-1.4426,-1.3499,144.7,96.6,0.538
28.98,31795.2,34575.8,-0.9887,-1.0446,144.7,96.6,0.538
29.0,31828.9,34608.2,-0.8252,-0.9649,144.7,96.6,0.538
29.02,31994.8,34989.9,-0.0195,-0.0264,144.7,96.6,0.538
29.04,32155.5,35254.2,0.7607,0.6236,144.7,96.6,0.538
29.06,32310.7,35652.1,1.5144,1.6019,144.7,96.6,0.538
29.08,32373.9,35801.6,1.8211,1.9694,144.7,96.6,0.538
29.1,32366.8,35703.2,1.7869,1.7274,144.7,96.6,0.538
29.12,32183.1,35425.4,0.8947,1.0445,144.7,96.6,0.538
29.14,32152.9,35303.6,0.7481,0.7449,144.7,96.6,0.538
29.16,32078.5,35192.6,0.3871,0.472,144.7,96.6,0.538
29.18,32093.7,35058.1,0.4606,0.1413,144.7,96.6,0.538
29.2,32038.0,35038.2,0.1905,0.0922,144.7,96.6,0.538
29.22,32046.9,34987.4,0.2337,-0.0326,144.7,96.6,0.538
29.24,31912.9,34839.3,-0.4173,-0.3966,144.7,96.6,0.538
29.26,31916.2,34806.8,-0.4012,-0.4766,144.7,96.6,0.538
29.28,31901.5,34699.4,-0.4725,-0.7408,144.7,96.6,0.538
29.3,31840.6,34610.8,-0.7681,-0.9586,144.7,96.6,0.538
29.32,31800.8,34723.0,-0.9615,-0.6827,144.7,96.6,0.538
29.34,31813.0,34631.7,-0.9023,-0.9073,144.7,96.6,0.538
29.36,31806.1,34474.8,-0.9355,-1.2929,144.7,96.6,0.538
29.38,31853.5,34503.6,-0.7054,-1.2221,144.7,96.6,0.538
29.4,31783.3,34465.7,-1.0465,-1.3154,144.7,96.6,0.538
29.42,31918.0,34742.5,-0.3922,-0.6348,144.7,96.6,0.538
29.44,31977.3,35021.7,-0.1044,0.0519,144.7,96.6,0.538
29.46,32253.2,35364.7,1.2354,0.8951,144.7,96.6,0.538
29.48,32275.8,35656.0,1.3448,1.6114,144.7,96.6,0.538
29.5,32245.6,35739.5,1.1985,1.8169,144.7,96.6,0.538
29.52,32296.4,35680.5,1.445,1.6718,144.7,96.6,0.538
29.54,32238.0,35518.7,1.1617,1.2738,144.7,96.6,0.538
29.56,32163.0,35353.6,0.7971,0.868,144.7,96.6,0.538
29.58,32126.9,35100.6,0.6222,0.2458,144.7,96.6,0.538
29.6,31948.7,35115.3,-0.2434,0.282,144.7,96.6,0.538
29.62,32083.8,35103.1,0.4129,0.2519,144.7,96.6,0.538
29.64,31937.5,34944.8,-0.2975,-0.1373,144.7,96.6,0.538
29.66,31871.4,34802.8,-0.6188,-0.4864,144.7,96.6,0.538
29.68,31915.8,34664.6,-0.4029,-0.8262,144.7,96.6,0.538
29.7,31921.6,34656.3,-0.3748,-0.8467,144.7,96.6,0.538
29.72,31840.3,34664.0,-0.7696,-0.8277,144.7,96.6,0.538
29.74,31755.7,34681.9,-1.1804,-0.7837,144.7,96.6,0.538
29.76,31826.4,34570.7,-0.837,-1.0572,144.7,96.6,0.538
29.78,31801.8,34466.6,-0.9566,-1.3132,144.7,96.6,0.538
29.8,31741.5,34486.9,-1.2492,-1.2632,144.7,96.6,0.538
29.82,31820.0,34516.4,-0.8681,-1.1907,144.7,96.6,0.538
29.84,31802.1,34781.0,-0.955,-0.54,144.7,96.6,0.538
29.86,32001.2,35176.5,0.0117,0.4325,144.7,96.6,0.538
29.88,32235.8,35453.6,1.1506,1.1138,144.7,96.6,0.538
29.9,32351.3,35836.4,1.7118,2.0551,144.7,96.6,0.538
29.92,32314.4,35647.1,1.5326,1.5895,144.7,96.6,0.538
29.94,32352.6,35581.2,1.7178,1.4276,144.7,96.6,0.538
29.96,32189.4,35412.7,0.9253,1.0132,144.7,96.6,0.538
29.98,32098.9,35190.0,0.4859,0.4657,144.7,96.6,0.538
30.0,32081.5,35127.4,0.4014,0.3116,144.7,96.6,0.538
30.02,32047.1,35031.3,0.2346,0.0754,144.7,96.6,0.538
30.04,32074.3,34999.2,0.3668,-0.0036,144.7,96.6,0.538
30.06,31978.9,35001.5,-0.0965,0.0021,144.7,96.6,0.538
30.08,31866.0,34853.6,-0.6449,-0.3616,144.7,96.6,0.538
30.1,31840.8,34763.3,-0.7672,-0.5836,144.7,96.6,0.538
30.12,31841.0,34707.8,-0.7662,-0.7201,144.7,96.6,0.538
30.14,31802.8,34723.8,-0.9519,-0.6806,144.7,96.6,0.538
30.16,31833.7,34647.5,-0.8017,-0.8684,144.7,96.6,0.538
30.18,31805.8,34564.8,-0.9372,-1.0716,144.7,96.6,0.538
30.2,31762.7,34445.0,-1.1467,-1.3664,144.7,96.6,0.538
30.22,31681.9,34413.9,-1.5386,-1.4428,144.7,96.6,0.538
30.24,31851.1,34444.7,-0.7171,-1.367,144.7,96.6,0.538
30.26,31898.5,34874.8,-0.487,-0.3094,144.7,96.6,0.538
30.28,32090.9,35286.1,0.4471,0.702,144.7,96.6,0.538
30.3,32277.9,35613.2,1.3552,1.5061,144.7,96.6,0.538
30.32,32370.4,35732.7,1.8043,1.7999,144.7,96.6,0.538
30.34,32438.8,35709.1,2.1367,1.7419,144.7,96.6,0.538
30.36,32278.9,35467.7,1.3601,1.1485,144.7,96.6,0.538
30.38,32153.8,35289.4,0.7528,0.71,144.7,96.6,0.538
30.4,32052.2,35217.7,0.2593,0.5338,144.7,96.6,0.538
30.42,32021.2,35090.5,0.1089,0.221,144.7,96.6,0.538
30.44,32015.8,35081.0,0.0825,0.1977,144.7,96.6,0.538
30.46,31970.7,34963.9,-0.1363,-0.0903,144.7,96.6,0.538
30.48,31975.3,34942.8,-0.1142,-0.1423,144.7,96.6,0.538
30.5,31860.7,34767.6,-0.6705,-0.5729,144.7,96.6,0.538
30.52,31854.8,34888.8,-0.6991,-0.2749,144.7,96.6,0.538
30.54,31775.7,34673.0,-1.0833,-0.8057,144.7,96.6,0.538
30.56,31811.0,34694.7,-0.9121,-0.7523,144.7,96.6,0.538
30.58,31731.2,34662.9,-1.2996,-0.8304,144.7,96.6,0.538
30.6,31822.9,34478.5,-0.8539,-1.2839,144.7,96.6,0.538
30.62,31776.4,34490.3,-1.0798,-1.2549,144.7,96.6,0.538
30.64,31753.0,34433.8,-1.1936,-1.3939,144.7,96.6,0.538
30.66,31759.0,34694.7,-1.1643,-0.7523,144.7,96.6,0.538
30.68,31984.8,34923.0,-0.0681,-0.191,144.7,96.6,0.538
30.7,32127.4,35327.6,0.6246,0.804,144.7,96.6,0.538
30.72,32269.3,35657.7,1.3134,1.6155,144.7,96.6,0.538
30.74,32371.1,35654.2,1.8079,1.6069,144.7,96.6,0.538
30.76,32245.7,35759.0,1.199,1.8646,144.7,96.6,0.538
30.78,32172.3,35523.8,0.8425,1.2864,144.7,96.6,0.538
30.8,32172.2,35328.0,0.842,0.8048,144.7,96.6,0.538
30.82,32037.6,35301.2,0.1885,0.7391,144.7,96.6,0.538
30.84,32028.5,35100.6,0.1443,0.2458,144.7,96.6,0.538
30.86,32102.1,35066.2,0.5017,0.1612,144.7,96.6,0.538
30.88,32065.0,34962.4,0.3214,-0.0941,144.7,96.6,0.538
30.9,31993.9,34823.2,-0.0241,-0.4364,144.7,96.6,0.538
30.92,31935.2,34705.9,-0.3089,-0.7247,144.7,96.6,0.538
30.94,31814.0,34660.9,-0.8976,-0.8354,144.7,96.6,0.538
30.96,31824.4,34681.6,-0.8468,-0.7844,144.7,96.6,0.538
30.98,31838.5,34640.7,-0.7786,-0.885,144.7,96.6,0.538
31.0,31926.4,34629.6,-0.3518,-0.9125,144.7,96.6,0.538
31.02,31821.1,34473.3,-0.863,-1.2967,144.7,96.6,0.538
31.04,31746.4,34464.0,-1.2255,-1.3196,144.7,96.6,0.538
31.06,31810.0,34518.2,-0.9168,-1.1863,144.7,96.6,0.538
31.08,31902.8,34751.6,-0.4664,-0.6123,144.7,96.6,0.538
31.1,32004.8,35041.1,0.0293,0.0994,144.7,96.6,0.538
31.12,32194.6,35427.2,0.9505,1.0488,144.7,96.6,0.538
31.14,32322.9,35724.3,1.5737,1.7793,144.7,96.6,0.538
31.16,32355.5,35701.1,1.7319,1.7223,144.7,96.6,0.538
31.18,32354.6,35679.6,1.7276,1.6695,144.7,96.6,0.538
31.2,32204.9,35428.9,1.0005,1.053,144.7,96.6,0.538
31.22,32212.2,35291.5,1.0364,0.7151,144.7,96.6,0.538
31.24,32053.3,35168.8,0.2644,0.4134,144.7,96.6,0.538
31.26,32118.1,35079.1,0.5791,0.193,144.7,96.6,0.538
31.28,32009.4,35083.3,0.0516,0.2033,144.7,96.6,0.538
31.3,31893.8,34911.5,-0.5097,-0.2193,144.7,96.6,0.538
31.32,31970.9,34879.5,-0.1353,-0.2979,144.7,96.6,0.538
31.34,31820.9,34758.4,-0.8639,-0.5956,144.7,96.6,0.538
31.36,31795.9,34700.3,-0.9852,-0.7385,144.7,96.6,0.538
31.38,31903.5,34710.0,-0.4626,-0.7147,144.7,96.6,0.538
31.4,31799.2,34586.9,-0.9694,-1.0175,144.7,96.6,0.538
31.42,31750.7,34526.3,-1.2046,-1.1663,144.7,96.6,0.538
31.44,31733.3,34469.3,-1.2893,-1.3066,144.7,96.6,0.538
31.46,31686.0,34399.0,-1.5188,-1.4793,144.7,96.6,0.538
31.48,31848.7,34531.2,-0.7287,-1.1543,144.7,96.6,0.538
31.5,31823.7,34793.1,-0.8501,-0.5104,144.7,96.6,0.538
31.52,32097.3,35205.9,0.4783,0.5047,144.7,96.6,0.538
31.54,32314.3,35560.1,1.5318,1.3757,144.7,96.6,0.538
31.56,32378.2,35701.7,1.8424,1.7239,144.7,96.6,0.538
31.58,32433.7,35629.1,2.1119,1.5453,144.7,96.6,0.538
31.6,32201.6,35541.9,0.9849,1.3309,144.7,96.6,0.538
31.62,32076.3,35396.7,0.3761,0.9738,144.7,96.6,0.538
31.64,32127.9,35207.8,0.6267,0.5093,144.7,96.6,0.538
31.66,32014.2,35106.8,0.0749,0.2609,144.7,96.6,0.538
31.68,32073.8,35142.4,0.3643,0.3487,144.7,96.6,0.538
31.7,31994.1,34956.6,-0.0227,-0.1083,144.7,96.6,0.538
31.72,32005.5,34959.6,0.0326,-0.101,144.7,96.6,0.538
31.74,31823.5,34844.1,-0.8514,-0.385,144.7,96.6,0.538
31.76,31854.6,34650.3,-0.7001,-0.8614,144.7,96.6,0.538
31.78,31834.0,34721.5,-0.8003,-0.6865,144.7,96.6,0.538
31.8,31813.4,34600.9,-0.9002,-0.9829,144.7,96.6,0.538
31.82,31902.7,34604.5,-0.4669,-0.974,144.7,96.6,0.538
31.84,31814.6,34574.4,-0.8946,-1.0482,144.7,96.6,0.538
31.86,31764.8,34439.7,-1.1363,-1.3792,144.7,96.6,0.538
31.88,31731.3,34564.0,-1.2991,-1.0737,144.7,96.6,0.538
31.9,31789.8,34622.2,-1.0149,-0.9306,144.7,96.6,0.538
31.92,31852.2,34777.2,-0.7121,-0.5493,144.7,96.6,0.538
31.94,32136.6,35239.7,0.6691,0.5879,144.7,96.6,0.538
31.96,32247.7,35578.0,1.2084,1.4196,144.7,96.6,0.538
31.98,32368.7,35715.9,1.7963,1.7587,144.7,96.6,0.538
32.0,32364.1,35682.0,1.7735,1.6755,144.7,96.6,0.538
32.02,32241.3,35492.3,1.1777,1.209,144.7,96.6,0.538
32.04,32182.5,35308.3,0.8917,0.7564,144.7,96.6,0.538
32.06,32028.0,35252.5,0.1418,0.6192,144.7,96.6,0.538
32.08,32064.8,35126.5,0.3202,0.3094,144.7,96.6,0.538
32.1,32095.0,35021.3,0.467,0.0508,144.7,96.6,0.538
32.12,31976.7,34989.5,-0.1075,-0.0275,144.7,96.6,0.538
32.14,32023.7,34863.9,0.1209,-0.3363,144.7,96.6,0.538
32.16,31854.1,34773.7,-0.7028,-0.558,144.7,96.6,0.538
32.18,31862.1,34727.4,-0.6637,-0.6718,144.7,96.6,0.538
32.2,31833.8,34626.9,-0.8011,-0.9189,144.7,96.6,0.538
32.22,31810.3,34756.7,-0.9152,-0.5999,144.7,96.6,0.538
32.24,31749.2,34582.0,-1.2118,-1.0294,144.7,96.6,0.538
32.26,31795.4,34544.2,-0.9878,-1.1224,144.7,96.6,0.538
32.28,31803.1,34449.5,-0.9502,-1.3553,144.7,96.6,0.538
32.3,31746.6,34476.9,-1.2245,-1.2879,144.7,96.6,0.538
32.32,31835.1,34637.9,-0.7951,-0.8921,144.7,96.6,0.538
32.34,32053.1,35001.6,0.2638,0.0023,144.7,96.6,0.538
32.36,32194.4,35305.4,0.9495,0.7494,144.7,96.6,0.538
32.38,32317.9,35701.6,1.5495,1.7236,144.7,96.6,0.538
32.4,32397.2,35747.4,1.9343,1.8362,144.7,96.6,0.538
32.42,32311.1,35689.1,1.5165,1.693,144.7,96.6,0.538
32.44,32282.9,35463.6,1.3794,1.1384,144.7,96.6,0.538
32.46,32157.1,35340.4,0.7685,0.8355,144.7,96.6,0.538
32.48,32129.4,35226.7,0.6341,0.5558,144.7,96.6,0.538
32.5,32107.0,35138.1,0.5255,0.3379,144.7,96.6,0.538
32.52,32065.6,34986.2,0.3244,-0.0355,144.7,96.6,0.538
32.54,31970.1,34992.3,-0.1394,-0.0205,144.7,96.6,0.538
32.56,31866.3,34867.3,-0.6433,-0.328,144.7,96.6,0.538
32.58,31822.8,34709.1,-0.8547,-0.7169,144.7,96.6,0.538
32.6,31751.6,34677.6,-1.2003,-0.7943,144.7,96.6,0.538
32.62,31830.4,34727.9,-0.8176,-0.6706,144.7,96.6,0.538
32.64,31783.5,34651.3,-1.0457,-0.8589,144.7,96.6,0.538
32.66,31804.8,34667.7,-0.9419,-0.8186,144.7,96.6,0.538
32.68,31852.5,34469.4,-0.7103,-1.3064,144.7,96.6,0.538
32.7,31701.7,34495.4,-1.4425,-1.2422,144.7,96.6,0.538
32.72,31749.3,34539.7,-1.2114,-1.1334,144.7,96.6,0.538
32.74,31863.7,34772.2,-0.6559,-0.5618,144.7,96.6,0.538
32.76,32011.5,35124.7,0.0615,0.3049,144.7,96.6,0.538
32.78,32227.4,35405.0,1.1101,0.9943,144.7,96.6,0.538
32.8,32333.6,35768.4,1.6256,1.8879,144.7,96.6,0.538
32.82,32321.5,35711.9,1.5667,1.7489,144.7,96.6,0.538
32.84,32290.4,35631.8,1.416,1.5519,144.7,96.6,0.538
32.86,32195.0,35451.1,0.9528,1.1077,144.7,96.6,0.538
32.88,32144.7,35159.5,0.7082,0.3906,144.7,96.6,0.538
32.9,32129.4,35133.7,0.6343,0.3272,144.7,96.6,0.538
32.92,32087.6,35003.2,0.4312,0.0062,144.7,96.6,0.538
32.94,31920.9,35030.4,-0.3784,0.0731,144.7,96.6,0.538
32.96,32029.2,34896.4,0.1476,-0.2563,144.7,96.6,0.538
32.98,31935.9,34881.3,-0.3053,-0.2933,144.7,96.6,0.538
33.0,31823.6,34677.2,-0.8507,-0.7952,144.7,96.6,0.538
33.02,31928.3,34719.4,-0.3426,-0.6915,144.7,96.6,0.538
33.04,31847.1,34668.1,-0.7368,-0.8177,144.7,96.6,0.538
33.06,31838.4,34532.5,-0.7787,-1.1511,144.7,96.6,0.538
33.08,31761.0,34611.0,-1.1549,-0.958,144.7,96.6,0.538
33.1,31763.3,34543.1,-1.1437,-1.1251,144.7,96.6,0.538
33.12,31794.8,34549.3,-0.9908,-1.1098,144.7,96.6,0.538
33.14,31774.0,34569.9,-1.0918,-1.0591,144.7,96.6,0.538
33.16,31908.8,34814.5,-0.4371,-0.4577,144.7,96.6,0.538
33.18,32058.8,35158.8,0.2911,0.3889,144.7,96.6,0.538
33.2,32299.5,35526.3,1.4599,1.2926,144.7,96.6,0.538
33.22,32307.5,35768.5,1.4991,1.8881,144.7,96.6,0.538
33.24,32378.1,35820.8,1.842,2.0168,144.7,96.6,0.538
33.26,32192.2,35611.5,0.9393,1.5021,144.7,96.6,0.538
33.28,32146.2,35266.5,0.7159,0.6537,144.7,96.6,0.538
33.3,32115.2,35240.3,0.5651,0.5892,144.7,96.6,0.538
33.32,32070.0,35072.1,0.3459,0.1757,144.7,96.6,0.538
33.34,32016.3,35097.9,0.0848,0.239,144.7,96.6,0.538
33.36,32005.7,35023.9,0.0334,0.0572,144.7,96.6,0.538
33.38,31882.3,34883.7,-0.5658,-0.2876,144.7,96.6,0.538
33.4,31785.9,34833.1,-1.034,-0.4119,144.7,96.6,0.538
33.42,31871.5,34713.0,-0.6181,-0.7072,144.7,96.6,0.538
33.44,31852.5,34737.5,-0.7102,-0.6469,144.7,96.6,0.538
33.46,31820.5,34686.5,-0.866,-0.7725,144.7,96.6,0.538
33.48,31877.0,34582.9,-0.5914,-1.0271,144.7,96.6,0.538
33.5,31940.5,34504.5,-0.283,-1.22,144.7,96.6,0.538
33.52,31778.7,34408.1,-1.069,-1.4571,144.7,96.6,0.538
33.54,31747.2,34498.2,-1.2215,-1.2355,144.7,96.6,0.538
33.56,31779.1,34580.3,-1.0671,-1.0337,144.7,96.6,0.538
33.58,31976.9,34939.6,-0.1064,-0.15,144.7,96.6,0.538
33.6,32156.6,35276.3,0.766,0.6779,144.7,96.6,0.538
33.62,32263.4,35643.5,1.2847,1.5806,144.7,96.6,0.538
33.64,32451.6,35782.0,2.1989,1.9214,144.7,96.6,0.538
33.66,32359.0,35742.1,1.7491,1.8231,144.7,96.6,0.538
33.68,32341.4,35512.6,1.6636,1.2589,144.7,96.6,0.538
33.7,32110.5,35249.3,0.5422,0.6114,144.7,96.6,0.538
33.72,32140.4,35212.0,0.6875,0.5198,144.7,96.6,0.538
33.74,32020.9,35098.7,0.107,0.241,144.7,96.6,0.538
33.76,32115.3,35087.6,0.5657,0.2139,144.7,96.6,0.538
33.78,31875.9,35002.3,-0.5967,0.0042,144.7,96.6,0.538
33.8,31844.1,34857.4,-0.7511,-0.3522,144.7,96.6,0.538
33.82,31868.3,34896.7,-0.6336,-0.2556,144.7,96.6,0.538
33.84,31774.0,34712.2,-1.0914,-0.7092,144.7,96.6,0.538
33.86,31814.4,34622.8,-0.8953,-0.929,144.7,96.6,0.538
33.88,31744.3,34708.0,-1.236,-0.7195,144.7,96.6,0.538
33.9,31833.8,34635.8,-0.8013,-0.8971,144.7,96.6,0.538
33.92,31667.0,34530.3,-1.6111,-1.1564,144.7,96.6,0.538
33.94,31667.0,34455.8,-1.6112,-1.3397,144.7,96.6,0.538
33.96,31700.4,34507.6,-1.4492,-1.2122,144.7,96.6,0.538
33.98,31759.9,34623.0,-1.1603,-0.9285,144.7,96.6,0.538
34.0,32007.2,35003.3,0.0408,0.0066,144.7,96.6,0.538
34.02,32166.9,35382.2,0.816,0.9381,144.7,96.6,0.538
34.04,32333.0,35536.4,1.6226,1.3173,144.7,96.6,0.538
34.06,32343.8,35702.6,1.6752,1.7259,144.7,96.6,0.538
34.08,32413.7,35740.2,2.0147,1.8185,144.7,96.6,0.538
34.1,32286.3,35526.8,1.3958,1.2938,144.7,96.6,0.538
34.12,32154.3,35301.5,0.7548,0.7398,144.7,96.6,0.538
34.14,32094.1,35233.9,0.4627,0.5735,144.7,96.6,0.538
34.16,32035.4,35079.5,0.1777,0.1939,144.7,96.6,0.538
34.18,31869.8,35046.7,-0.6266,0.1131,144.7,96.6,0.538
34.2,32044.0,34890.9,0.2197,-0.2697,144.7,96.6,0.538
34.22,31933.8,34847.6,-0.3157,-0.3764,144.7,96.6,0.538
34.24,31814.3,34750.5,-0.8957,-0.615,144.7,96.6,0.538
34.26,31923.7,34689.7,-0.3645,-0.7645,144.7,96.6,0.538
34.28,31750.4,34643.2,-1.206,-0.8789,144.7,96.6,0.538
34.3,31814.3,34554.4,-0.8958,-1.0972,144.7,96.6,0.538
34.32,31853.5,34472.1,-0.7053,-1.2995,144.7,96.6,0.538
34.34,31718.8,34534.0,-1.3594,-1.1473,144.7,96.6,0.538
34.36,31775.7,34380.4,-1.0834,-1.5251,144.7,96.6,0.538
34.38,31824.6,34467.1,-0.8458,-1.3119,144.7,96.6,0.538
34.4,31859.5,34726.4,-0.6765,-0.6743,144.7,96.6,0.538
34.42,32104.1,35088.4,0.5114,0.2157,144.7,96.6,0.538
34.44,32282.8,35484.0,1.379,1.1885,144.7,96.6,0.538
34.46,32297.9,35606.7,1.4523,1.4903,144.7,96.6,0.538
34.48,32431.8,35757.7,2.1027,1.8615,144.7,96.6,0.538
34.5,32281.4,35626.6,1.3722,1.5392,144.7,96.6,0.538
34.52,32158.2,35423.4,0.7739,1.0394,144.7,96.6,0.538
34.54,32165.9,35218.9,0.8113,0.5367,144.7,96.6,0.538
34.56,32017.8,35115.4,0.0922,0.2823,144.7,96.6,0.538
34.58,32024.2,35021.3,0.1231,0.0507,144.7,96.6,0.538
34.6,32080.6,35010.2,0.3973,0.0235,144.7,96.6,0.538
34.62,32060.9,34901.3,0.3017,-0.2442,144.7,96.6,0.538
34.64,31874.6,34859.5,-0.6031,-0.3471,144.7,96.6,0.538
34.66,31866.4,34712.2,-0.6432,-0.7093,144.7,96.6,0.538
34.68,31807.8,34666.8,-0.9276,-0.8208,144.7,96.6,0.538
34.7,31797.0,34584.5,-0.9799,-1.0232,144.7,96.6,0.538
34.72,31866.8,34739.1,-0.6411,-0.6432,144.7,96.6,0.538
34.74,31760.6,34598.7,-1.1569,-0.9883,144.7,96.6,0.538
34.76,31799.4,34483.4,-0.9682,-1.2718,144.7,96.6,0.538
34.78,31741.4,34521.1,-1.2498,-1.1791,144.7,96.6,0.538
34.8,31793.0,34554.5,-0.9991,-1.0969,144.7,96.6,0.538
34.82,32010.7,34839.3,0.0579,-0.3967,144.7,96.6,0.538
34.84,32176.3,35157.0,0.8617,0.3845,144.7,96.6,0.538
34.86,32290.7,35574.6,1.4171,1.4112,144.7,96.6,0.538
34.88,32262.0,35748.7,1.278,1.8394,144.7,96.6,0.538
34.9,32361.6,35754.1,1.7617,1.8526,144.7,96.6,0.538
34.92,32282.9,35467.4,1.3795,1.1477,144.7,96.6,0.538
34.94,32229.2,35381.5,1.1187,0.9366,144.7,96.6,0.538
34.96,32104.3,35284.4,0.5123,0.6976,144.7,96.6,0.538
34.98,32073.0,35107.6,0.3602,0.2631,144.7,96.6,0.538
35.0,32071.6,35080.2,0.3535,0.1955,144.7,96.6,0.538
35.02,32049.4,34957.0,0.2454,-0.1072,144.7,96.6,0.538
35.04,31871.0,34884.1,-0.6206,-0.2865,144.7,96.6,0.538
35.06,32004.8,34849.5,0.0292,-0.3717,144.7,96.6,0.538
35.08,31883.4,34692.3,-0.5604,-0.7581,144.7,96.6,0.538
35.1,31745.6,34748.1,-1.2296,-0.6211,144.7,96.6,0.538
35.12,31851.4,34684.9,-0.716,-0.7765,144.7,96.6,0.538
35.14,31909.8,34584.1,-0.4323,-1.0241,144.7,96.6,0.538
35.16,31807.4,34599.9,-0.9296,-0.9853,144.7,96.6,0.538
35.18,31810.5,34551.8,-0.9143,-1.1036,144.7,96.6,0.538
35.2,31736.2,34428.2,-1.2753,-1.4075,144.7,96.6,0.538
35.22,31739.6,34523.1,-1.2585,-1.1741,144.7,96.6,0.538
35.24,31963.7,34842.1,-0.1706,-0.3897,144.7,96.6,0.538
35.26,32116.8,35279.4,0.5729,0.6855,144.7,96.6,0.538
35.28,32336.2,35586.8,1.6381,1.4414,144.7,96.6,0.538
35.3,32432.6,35871.8,2.1064,2.1421,144.7,96.6,0.538
35.32,32352.9,35674.7,1.7196,1.6575,144.7,96.6,0.538
35.34,32304.7,35574.4,1.4853,1.4109,144.7,96.6,0.538
35.36,32107.3,35371.6,0.5268,0.9121,144.7,96.6,0.538
35.38,32074.8,35242.8,0.3692,0.5953,144.7,96.6,0.538
35.4,32074.5,35065.2,0.3673,0.1586,144.7,96.6,0.538
35.42,32048.5,35068.5,0.2414,0.1667,144.7,96.6,0.538
35.44,32018.3,34949.2,0.0948,-0.1264,144.7,96.6,0.538
35.46,31903.8,34894.6,-0.4615,-0.2608,144.7,96.6,0.538
35.48,31813.9,34792.8,-0.8978,-0.5111,144.7,96.6,0.538
35.5,31887.4,34736.0,-0.5411,-0.6506,144.7,96.6,0.538
35.52,31826.8,34638.3,-0.8351,-0.8911,144.7,96.6,0.538
35.54,31898.7,34642.4,-0.4863,-0.8808,144.7,96.6,0.538
35.56,31750.5,34567.5,-1.2058,-1.0652,144.7,96.6,0.538
35.58,31734.9,34548.7,-1.2814,-1.1114,144.7,96.6,0.538
35.6,31633.4,34603.4,-1.7741,-0.9767,144.7,96.6,0.538
35.62,31749.4,34488.6,-1.2112,-1.2589,144.7,96.6,0.538
35.64,31891.6,34648.3,-0.5206,-0.8665,144.7,96.6,0.538
35.66,32045.6,35049.0,0.227,0.119,144.7,96.6,0.538
35.68,32185.1,35379.4,0.9045,0.9314,144.7,96.6,0.538
35.7,32373.0,35691.6,1.8168,1.699,144.7,96.6,0.538
35.72,32418.2,35733.2,2.0363,1.8012,144.7,96.6,0.538
35.74,32353.4,35668.4,1.7219,1.6418,144.7,96.6,0.538
35.76,32280.1,35515.8,1.3659,1.2668,144.7,96.6,0.538
35.78,32126.1,35273.2,0.6181,0.6703,144.7,96.6,0.538
35.8,32129.7,35139.0,0.6354,0.3401,144.7,96.6,0.538
35.82,32023.4,35057.3,0.1193,0.1394,144.7,96.6,0.538
35.84,32016.9,35054.8,0.0878,0.1332,144.7,96.6,0.538
35.86,32001.2,35019.0,0.0118,0.0452,144.7,96.6,0.538
35.88,31849.8,34748.7,-0.7237,-0.6196,144.7,96.6,0.538
35.9,31934.6,34840.8,-0.312,-0.3931,144.7,96.6,0.538
35.92,31894.4,34608.8,-0.5071,-0.9635,144.7,96.6,0.538
35.94,31853.5,34695.3,-0.7057,-0.7509,144.7,96.6,0.538
35.96,31920.3,34674.6,-0.3812,-0.8017,144.7,96.6,0.538
35.98,31723.4,34680.6,-1.3372,-0.7869,144.7,96.6,0.538
36.0,31634.9,34537.3,-1.7673,-1.1394,144.7,96.6,0.538
36.02,31669.5,34426.0,-1.5988,-1.413,144.7,96.6,0.538
36.04,31824.4,34537.9,-0.8471,-1.1378,144.7,96.6,0.538
36.06,31863.1,34694.3,-0.659,-0.7533,144.7,96.6,0.538
36.08,32098.4,35161.4,0.4836,0.3953,144.7,96.6,0.538
36.1,32239.3,35459.4,1.1678,1.1281,144.7,96.6,0.538
36.12,32237.6,35675.2,1.1596,1.6588,144.7,96.6,0.538
36.14,32381.7,35801.7,1.859,1.9698,144.7,96.6,0.538
36.16,32358.8,35748.8,1.7479,1.8396,144.7,96.6,0.538
36.18,32255.0,35510.0,1.244,1.2524,144.7,96.6,0.538
36.2,32089.8,35249.7,0.442,0.6125,144.7,96.6,0.538
36.22,32060.2,35067.9,0.2982,0.1654,144.7,96.6,0.538
36.24,31933.2,35159.8,-0.3188,0.3914,144.7,96.6,0.538
36.26,31965.9,35079.6,-0.1597,0.1941,144.7,96.6,0.538
36.28,31988.1,34998.1,-0.0521,-0.0063,144.7,96.6,0.538
36.3,31879.9,34800.2,-0.5773,-0.4929,144.7,96.6,0.538
36.32,31819.7,34653.6,-0.8697,-0.8532,144.7,96.6,0.538
36.34,31884.7,34603.8,-0.5542,-0.9757,144.7,96.6,0.538
36.36,31844.6,34703.4,-0.7489,-0.7308,144.7,96.6,0.538
36.38,31788.8,34721.9,-1.0199,-0.6854,144.7,96.6,0.538
36.4,31911.6,34564.8,-0.4237,-1.0716,144.7,96.6,0.538
36.42,31738.1,34490.4,-1.2659,-1.2546,144.7,96.6,0.538
36.44,31753.7,34469.4,-1.1902,-1.3062,144.7,96.6,0.538
36.46,31756.1,34538.2,-1.1785,-1.1372,144.7,96.6,0.538
36.48,31922.1,34906.7,-0.3726,-0.2311,144.7,96.6,0.538
36.5,32088.8,35231.5,0.4372,0.5677,144.7,96.6,0.538
36.52,32225.1,35585.0,1.0986,1.437,144.7,96.6,0.538
36.54,32366.8,35774.9,1.7867,1.9038,144.7,96.6,0.538
36.56,32339.2,35648.9,1.653,1.5941,144.7,96.6,0.538
36.58,32228.8,35571.8,1.117,1.4044,144.7,96.6,0.538
36.6,32257.7,35404.3,1.257,0.9924,144.7,96.6,0.538
36.62,32068.5,35217.6,0.3385,0.5334,144.7,96.6,0.538
36.64,32092.5,35147.5,0.455,0.3611,144.7,96.6,0.538
36.66,31971.5,35125.2,-0.1324,0.3062,144.7,96.6,0.538
36.68,31991.8,34977.8,-0.0339,-0.0563,144.7,96.6,0.538
36.7,31975.1,34906.9,-0.1151,-0.2305,144.7,96.6,0.538
36.72,31883.3,34785.1,-0.561,-0.5301,144.7,96.6,0.538
36.74,31878.6,34760.5,-0.5836,-0.5904,144.7,96.6,0.538
36.76,31723.6,34661.0,-1.3365,-0.8351,144.7,96.6,0.538
36.78,31822.8,34613.9,-0.8545,-0.9509,144.7,96.6,0.538
36.8,31862.6,34614.2,-0.6614,-0.9503,144.7,96.6,0.538
36.82,31740.0,34509.2,-1.2569,-1.2085,144.7,96.6,0.538
36.84,31642.8,34412.6,-1.7287,-1.4459,144.7,96.6,0.538
36.86,31749.1,34332.5,-1.2125,-1.6428,144.7,96.6,0.538
36.88,31843.8,34619.1,-0.7527,-0.9382,144.7,96.6,0.538
36.9,31967.4,34946.6,-0.1526,-0.1328,144.7,96.6,0.538
36.92,32130.1,35281.8,0.6374,0.6913,144.7,96.6,0.538
36.94,32286.3,35579.5,1.3959,1.4234,144.7,96.6,0.538
36.96,32324.3,35729.5,1.5803,1.7922,144.7,96.6,0.538
36.98,32305.7,35640.8,1.4901,1.574,144.7,96.6,0.538
37.0,32250.7,35558.0,1.2233,1.3705,144.7,96.6,0.538
37.02,32182.4,35339.4,0.8915,0.833,144.7,96.6,0.538
37.04,32084.8,35260.8,0.4176,0.6398,144.7,96.6,0.538
37.06,32033.6,35150.0,0.169,0.3674,144.7,96.6,0.538
37.08,32038.6,35036.5,0.1933,0.0882,144.7,96.6,0.538
37.1,32032.5,34918.9,0.1638,-0.2011,144.7,96.6,0.538
37.12,31916.4,34935.2,-0.4003,-0.161,144.7,96.6,0.538
37.14,31881.3,34850.9,-0.5706,-0.3681,144.7,96.6,0.538
37.16,31896.6,34712.6,-0.4962,-0.7083,144.7,96.6,0.538
37.18,31830.4,34656.2,-0.8176,-0.8471,144.7,96.6,0.538
37.2,31850.4,34703.5,-0.7205,-0.7306,144.7,96.6,0.538
37.22,31768.6,34511.1,-1.1178,-1.2036,144.7,96.6,0.538
37.24,31765.7,34529.1,-1.1321,-1.1595,144.7,96.6,0.538
37.26,31678.4,34423.9,-1.5559,-1.4181,144.7,96.6,0.538
37.28,31723.2,34418.4,-1.3383,-1.4317,144.7,96.6,0.538
37.3,31888.6,34706.7,-0.5352,-0.7227,144.7,96.6,0.538
37.32,31984.5,35001.3,-0.0696,0.0016,144.7,96.6,0.538
37.34,32262.2,35381.7,1.279,0.937,144.7,96.6,0.538
37.36,32403.6,35716.2,1.9654,1.7595,144.7,96.6,0.538
37.38,32464.3,35724.4,2.2603,1.7795,144.7,96.6,0.538
37.4,32311.4,35669.9,1.518,1.6457,144.7,96.6,0.538
37.42,32198.9,35437.3,0.9714,1.0738,144.7,96.6,0.538
37.44,32126.4,35274.1,0.6196,0.6723,144.7,96.6,0.538
37.46,32058.3,35195.1,0.2889,0.4781,144.7,96.6,0.538
37.48,32013.2,34948.3,0.07,-0.1286,144.7,96.6,0.538
37.5,32036.4,35148.5,0.1827,0.3636,144.7,96.6,0.538
37.52,32027.9,34943.2,0.1411,-0.1412,144.7,96.6,0.538
37.54,31851.4,34766.5,-0.7158,-0.5758,144.7,96.6,0.538
37.56,31830.0,34743.4,-0.8195,-0.6326,144.7,96.6,0.538
37.58,31883.3,34745.3,-0.5609,-0.628,144.7,96.6,0.538
37.6,31896.5,34614.4,-0.497,-0.9497,144.7,96.6,0.538
37.62,31899.4,34680.5,-0.4826,-0.7872,144.7,96.6,0.538
37.64,31740.8,34544.2,-1.2527,-1.1222,144.7,96.6,0.538
37.66,31850.2,34539.5,-0.7215,-1.134,144.7,96.6,0.538
37.68,31738.0,34443.8,-1.2666,-1.3692,144.7,96.6,0.538
37.7,31752.2,34595.2,-1.1977,-0.997,144.7,96.6,0.538
37.72,31988.4,34759.4,-0.0506,-0.5931,144.7,96.6,0.538
37.74,32121.0,35158.5,0.5932,0.3882,144.7,96.6,0.538
37.76,32281.3,35399.7,1.3718,0.9814,144.7,96.6,0.538
37.78,32323.7,35695.4,1.5774,1.7084,144.7,96.6,0.538
37.8,32345.2,35916.7,1.6818,2.2524,144.7,96.6,0.538
37.82,32314.0,35564.3,1.5305,1.386,144.7,96.6,0.538
37.84,32216.9,35418.0,1.0591,1.0261,144.7,96.6,0.538
37.86,32180.7,35222.4,0.8833,0.5452,144.7,96.6,0.538
37.88,32090.9,35079.7,0.4474,0.1945,144.7,96.6,0.538
37.9,32086.0,35037.2,0.4232,0.0898,144.7,96.6,0.538
37.92,31959.4,35044.1,-0.1912,0.1068,144.7,96.6,0.538
37.94,31920.6,34952.6,-0.3796,-0.1182,144.7,96.6,0.538
37.96,31974.5,34863.3,-0.118,-0.3378,144.7,96.6,0.538
37.98,31784.5,34754.7,-1.0405,-0.6048,144.7,96.6,0.538
38.0,31773.9,34705.2,-1.0923,-0.7265,144.7,96.6,0.538
38.02,31775.1,34608.3,-1.0865,-0.9648,144.7,96.6,0.538
38.04,31908.3,34645.0,-0.4394,-0.8746,144.7,96.6,0.538
38.06,31688.4,34651.5,-1.5074,-0.8586,144.7,96.6,0.538
38.08,31818.0,34346.2,-0.8779,-1.6093,144.7,96.6,0.538
38.1,31768.4,34413.6,-1.119,-1.4434,144.7,96.6,0.538
38.12,31733.3,34621.2,-1.2894,-0.9331,144.7,96.6,0.538
38.14,31993.7,34896.7,-0.0249,-0.2555,144.7,96.6,0.538
38.16,32039.0,35216.2,0.1952,0.53,144.7,96.6,0.538
38.18,32325.0,35508.1,1.5838,1.2477,144.7,96.6,0.538
38.2,32416.1,35760.8,2.0263,1.8691,144.7,96.6,0.538
38.22,32335.1,35782.6,1.6331,1.9228,144.7,96.6,0.538
38.24,32332.2,35608.6,1.6188,1.4948,144.7,96.6,0.538
38.26,32105.3,35417.9,0.5171,1.0261,144.7,96.6,0.538
38.28,32202.5,35138.3,0.9888,0.3385,144.7,96.6,0.538
38.3,32024.7,35048.9,0.1258,0.1187,144.7,96.6,0.538
38.32,32101.0,35096.2,0.4964,0.235,144.7,96.6,0.538
38.34,32086.5,35007.8,0.4257,0.0175,144.7,96.6,0.538
38.36,31927.0,34887.4,-0.3487,-0.2784,144.7,96.6,0.538
38.38,31938.0,34757.6,-0.2952,-0.5976,144.7,96.6,0.538
38.4,31855.6,34726.8,-0.6952,-0.6733,144.7,96.6,0.538
38.42,31852.8,34660.1,-0.7087,-0.8374,144.7,96.6,0.538
38.44,31860.9,34591.7,-0.6698,-1.0056,144.7,96.6,0.538
38.46,31864.1,34579.5,-0.6541,-1.0356,144.7,96.6,0.538
38.48,31755.9,34553.7,-1.1796,-1.099,144.7,96.6,0.538
38.5,31727.1,34418.1,-1.3191,-1.4324,144.7,96.6,0.538
38.52,31832.9,34364.3,-0.8055,-1.5646,144.7,96.6,0.538
38.54,31934.0,34743.1,-0.3148,-0.6332,144.7,96.6,0.538
38.56,32049.6,34961.3,0.2465,-0.0968,144.7,96.6,0.538
38.58,32139.2,35273.5,0.6819,0.6709,144.7,96.6,0.538
38.6,32263.7,35654.9,1.2864,1.6087,144.7,96.6,0.538
38.62,32384.4,35750.7,1.8725,1.8444,144.7,96.6,0.538
38.64,32334.4,35595.3,1.6297,1.4621,144.7,96.6,0.538
38.66,32269.2,35544.1,1.3129,1.3363,144.7,96.6,0.538
38.68,32181.3,35237.5,0.8861,0.5825,144.7,96.6,0.538
38.7,32140.0,35036.6,0.6858,0.0884,144.7,96.6,0.538
38.72,32117.9,35073.9,0.578,0.1801,144.7,96.6,0.538
38.74,32047.0,35097.3,0.2338,0.2376,144.7,96.6,0.538
38.76,32030.6,34913.1,0.1542,-0.2153,144.7,96.6,0.538
38.78,31940.0,34845.9,-0.2856,-0.3804,144.7,96.6,0.538
38.8,31910.9,34726.7,-0.4267,-0.6737,144.7,96.6,0.538
38.82,31829.8,34740.6,-0.8208,-0.6394,144.7,96.6,0.538
38.84,31940.4,34715.7,-0.2836,-0.7006,144.7,96.6,0.538
38.86,31784.7,34699.9,-1.0398,-0.7395,144.7,96.6,0.538
38.88,31849.5,34626.8,-0.725,-0.9193,144.7,96.6,0.538
38.9,31808.0,34577.1,-0.9265,-1.0415,144.7,96.6,0.538
38.92,31784.7,34436.4,-1.0398,-1.3875,144.7,96.6,0.538
38.94,31799.0,34583.3,-0.9702,-1.0261,144.7,96.6,0.538
38.96,31906.9,34693.4,-0.446,-0.7555,144.7,96.6,0.538
38.98,32051.6,34984.7,0.2563,-0.0393,144.7,96.6,0.538
39.0,32241.0,35352.1,1.1762,0.8643,144.7,96.6,0.538
39.02,32340.9,35777.2,1.6611,1.9096,144.7,96.6,0.538
39.04,32366.5,35784.7,1.7854,1.928,144.7,96.6,0.538
39.06,32232.5,35694.1,1.1348,1.7051,144.7,96.6,0.538
39.08,32236.0,35519.0,1.1516,1.2747,144.7,96.6,0.538
39.1,32097.5,35268.4,0.4791,0.6585,144.7,96.6,0.538
39.12,32001.3,35136.8,0.0123,0.3349,144.7,96.6,0.538
39.14,32074.8,35070.4,0.369,0.1716,144.7,96.6,0.538
39.16,32013.7,35024.4,0.0724,0.0583,144.7,96.6,0.538
39.18,31967.0,34983.8,-0.1547,-0.0414,144.7,96.6,0.538
39.2,31888.3,34828.7,-0.5364,-0.4228,144.7,96.6,0.538
39.22,31839.2,34823.7,-0.7748,-0.435,144.7,96.6,0.538
39.24,31918.0,34747.8,-0.3922,-0.6216,144.7,96.6,0.538
39.26,31931.7,34641.7,-0.326,-0.8827,144.7,96.6,0.538
39.28,31753.2,34596.5,-1.1926,-0.9937,144.7,96.6,0.538
39.3,31808.6,34563.4,-0.9235,-1.0752,144.7,96.6,0.538
39.32,31768.9,34394.0,-1.1166,-1.4916,144.7,96.6,0.538
39.34,31742.1,34424.3,-1.2466,-1.4171,144.7,96.6,0.538
39.36,31689.4,34554.2,-1.5023,-1.0979,144.7,96.6,0.538
39.38,31933.1,34741.8,-0.3191,-0.6364,144.7,96.6,0.538
39.4,32016.5,35152.0,0.0861,0.3722,144.7,96.6,0.538
39.42,32272.1,35485.1,1.3272,1.1913,144.7,96.6,0.538
39.44,32350.6,35758.9,1.7081,1.8644,144.7,96.6,0.538
39.46,32340.4,35713.6,1.6586,1.7532,144.7,96.6,0.538
39.48,32318.6,35542.1,1.5529,1.3313,144.7,96.6,0.538
39.5,32213.2,35424.4,1.0409,1.042,144.7,96.6,0.538
39.52,32205.6,35246.9,1.004,0.6054,144.7,96.6,0.538
39.54,31956.3,35136.3,-0.2066,0.3335,144.7,96.6,0.538
39.56,32085.3,35061.0,0.4198,0.1484,144.7,96.6,0.538
39.58,31914.7,35001.8,-0.4083,0.0028,144.7,96.6,0.538
39.6,32044.0,34946.3,0.2194,-0.1336,144.7,96.6,0.538
39.62,31871.4,34792.1,-0.6186,-0.5128,144.7,96.6,0.538
39.64,31825.6,34732.2,-0.841,-0.6602,144.7,96.6,0.538
39.66,31841.0,34655.0,-0.7663,-0.8498,144.7,96.6,0.538
39.68,31745.5,34684.2,-1.2298,-0.778,144.7,96.6,0.538
39.7,31772.7,34700.5,-1.098,-0.7379,144.7,96.6,0.538
39.72,31862.5,34635.3,-0.6621,-0.8982,144.7,96.6,0.538
39.74,31898.3,34518.0,-0.4881,-1.1867,144.7,96.6,0.538
39.76,31742.5,34451.9,-1.2443,-1.3493,144.7,96.6,0.538
39.78,31880.1,34535.5,-0.5767,-1.1436,144.7,96.6,0.538
39.8,31877.8,34914.0,-0.5876,-0.213,144.7,96.6,0.538
39.82,32080.7,35280.4,0.3976,0.6879,144.7,96.6,0.538
39.84,32289.0,35635.9,1.4089,1.5621,144.7,96.6,0.538
39.86,32376.0,35790.2,1.8315,1.9413,144.7,96.6,0.538
39.88,32380.5,35791.1,1.8535,1.9437,144.7,96.6,0.538
39.9,32258.0,35538.6,1.2587,1.3228,144.7,96.6,0.538
39.92,32132.7,35391.5,0.6502,0.961,144.7,96.6,0.538
39.94,32095.7,35247.8,0.4706,0.6077,144.7,96.6,0.538
39.96,32105.8,35107.4,0.5195,0.2625,144.7,96.6,0.538
39.98,32050.1,35026.1,0.2489,0.0626,144.7,96.6,0.538
40.0,32012.2,34989.8,0.065,-0.0266,144.7,96.6,0.538
40.02,31944.7,34908.1,-0.2627,-0.2274,144.7,96.6,0.538
40.04,31900.1,34872.4,-0.4793,-0.3153,144.7,96.6,0.538
40.06,31813.0,34688.2,-0.9022,-0.7682,144.7,96.6,0.538
40.08,31746.2,34702.3,-1.2264,-0.7337,144.7,96.6,0.538
40.1,31827.7,34612.4,-0.8308,-0.9546,144.7,96.6,0.538
40.12,31946.1,34610.6,-0.2558,-0.9591,144.7,96.6,0.538
40.14,31688.1,34542.3,-1.5089,-1.127,144.7,96.6,0.538
40.16,31764.2,34430.8,-1.1393,-1.4011,144.7,96.6,0.538
40.18,31780.3,34356.1,-1.0609,-1.5849,144.7,96.6,0.538
40.2,31832.3,34696.5,-0.8084,-0.7479,144.7,96.6,0.538
40.22,31983.6,34997.2,-0.0739,-0.0085,144.7,96.6,0.538
40.24,32177.0,35392.9,0.8654,0.9644,144.7,96.6,0.538
40.26,32301.4,35635.5,1.4691,1.5612,144.7,96.6,0.538
40.28,32378.5,35709.3,1.8435,1.7426,144.7,96.6,0.538
40.3,32309.8,35785.2,1.5102,1.9292,144.7,96.6,0.538
40.32,32233.6,35505.3,1.14,1.2409,144.7,96.6,0.538
40.34,32182.7,35335.9,0.893,0.8245,144.7,96.6,0.538
40.36,32070.1,35184.4,0.3461,0.4518,144.7,96.6,0.538
40.38,32104.1,35158.6,0.5114,0.3884,144.7,96.6,0.538
40.4,32017.0,35082.8,0.0884,0.2019,144.7,96.6,0.538
40.42,31967.1,34941.4,-0.1541,-0.1457,144.7,96.6,0.538
40.44,31869.4,34848.9,-0.6286,-0.3731,144.7,96.6,0.538
40.46,31852.9,34753.7,-0.7083,-0.6073,144.7,96.6,0.538
40.48,31833.1,34756.2,-0.8048,-0.6011,144.7,96.6,0.538
40.5,31767.5,34741.7,-1.1234,-0.6367,144.7,96.6,0.538
40.52,31774.2,34667.5,-1.0908,-0.8191,144.7,96.6,0.538
40.54,31804.7,34633.9,-0.9424,-0.9017,144.7,96.6,0.538
40.56,31747.1,34444.7,-1.2222,-1.367,144.7,96.6,0.538
40.58,31766.9,34471.4,-1.1263,-1.3012,144.7,96.6,0.538
40.6,31679.9,34492.7,-1.5488,-1.249,144.7,96.6,0.538
40.62,31853.5,34704.7,-0.7054,-0.7278,144.7,96.6,0.538
40.64,31987.5,34980.7,-0.0548,-0.0491,144.7,96.6,0.538
40.66,32289.0,35443.3,1.4089,1.0885,144.7,96.6,0.538
40.68,32307.3,35758.4,1.4982,1.8633,144.7,96.6,0.538
40.7,32410.3,35758.7,1.9982,1.8641,144.7,96.6,0.538
40.72,32307.6,35633.3,1.4995,1.5556,144.7,96.6,0.538
40.74,32197.7,35412.0,0.9656,1.0115,144.7,96.6,0.538
40.76,32097.2,35290.8,0.4777,0.7135,144.7,96.6,0.538
40.78,31992.0,35175.7,-0.033,0.4303,144.7,96.6,0.538
40.8,32044.2,35099.0,0.2204,0.2419,144.7,96.6,0.538
40.82,32045.8,34976.2,0.228,-0.06,144.7,96.6,0.538
40.84,31952.3,34966.7,-0.2256,-0.0836,144.7,96.6,0.538
40.86,31913.1,34852.3,-0.4163,-0.3647,144.7,96.6,0.538
40.88,31941.7,34816.7,-0.2774,-0.4523,144.7,96.6,0.538
40.9,31881.1,34705.6,-0.5715,-0.7255,144.7,96.6,0.538
40.92,31823.1,34612.8,-0.8531,-0.9536,144.7,96.6,0.538
40.94,31954.1,34555.7,-0.2172,-1.094,144.7,96.6,0.538
40.96,31820.8,34621.6,-0.8643,-0.9321,144.7,96.6,0.538
40.98,31786.5,34521.4,-1.0311,-1.1785,144.7,96.6,0.538
41.0,31780.7,34470.5,-1.0593,-1.3035,144.7,96.6,0.538
41.02,31821.3,34453.5,-0.8618,-1.3454,144.7,96.6,0.538
41.04,31854.9,34748.0,-0.6988,-0.6212,144.7,96.6,0.538
41.06,32021.0,35191.5,0.1078,0.4693,144.7,96.6,0.538
41.08,32264.8,35466.5,1.2915,1.1454,144.7,96.6,0.538
41.1,32350.2,35763.7,1.7061,1.8764,144.7,96.6,0.538
41.12,32312.6,35713.0,1.5236,1.7516,144.7,96.6,0.538
41.14,32296.9,35584.0,1.4473,1.4345,144.7,96.6,0.538
41.16,32230.9,35457.7,1.127,1.124,144.7,96.6,0.538
41.18,32197.1,35176.6,0.9628,0.4327,144.7,96.6,0.538
41.2,32041.0,35124.2,0.205,0.3037,144.7,96.6,0.538
41.22,32023.1,35009.5,0.118,0.0217,144.7,96.6,0.538
41.24,31990.4,35037.0,-0.0409,0.0893,144.7,96.6,0.538
41.26,31876.9,34917.6,-0.5921,-0.2041,144.7,96.6,0.538
41.28,31823.9,34811.7,-0.8491,-0.4647,144.7,96.6,0.538
41.3,31783.2,34709.4,-1.0468,-0.7162,144.7,96.6,0.538
41.32,31827.4,34701.0,-0.8325,-0.7368,144.7,96.6,0.538
41.34,31821.6,34696.8,-0.8604,-0.7472,144.7,96.6,0.538
41.36,31813.1,34669.8,-0.9018,-0.8135,144.7,96.6,0.538
41.38,31866.7,34545.3,-0.6415,-1.1196,144.7,96.6,0.538
41.4,31601.8,34564.5,-1.9276,-1.0725,144.7,96.6,0.538
41.42,31821.8,34482.8,-0.8597,-1.2732,144.7,96.6,0.538
41.44,31658.2,34583.6,-1.6538,-1.0255,144.7,96.6,0.538
41.46,31898.7,34892.6,-0.486,-0.2656,144.7,96.6,0.538
41.48,32152.2,35268.2,0.7446,0.6579,144.7,96.6,0.538
41.5,32254.9,35630.2,1.2435,1.5479,144.7,96.6,0.538
41.52,32377.0,35818.2,1.8366,2.0102,144.7,96.6,0.538
41.54,32371.3,35759.5,1.8086,1.8661,144.7,96.6,0.538
41.56,32287.0,35514.5,1.3996,1.2634,144.7,96.6,0.538
41.58,32106.4,35438.4,0.5226,1.0765,144.7,96.6,0.538
41.6,32093.7,35141.4,0.4609,0.3461,144.7,96.6,0.538
41.62,32076.5,35135.7,0.3774,0.3322,144.7,96.6,0.538
41.64,31959.4,35078.1,-0.1915,0.1905,144.7,96.6,0.538
41.66,32048.7,34999.9,0.2424,-0.0019,144.7,96.6,0.538
41.68,31939.7,34888.4,-0.2873,-0.2759,144.7,96.6,0.538
41.7,31888.6,34679.0,-0.5354,-0.7909,144.7,96.6,0.538
41.72,31807.0,34707.8,-0.9315,-0.72,144.7,96.6,0.538
41.74,31759.3,34663.3,-1.1628,-0.8294,144.7,96.6,0.538
41.76,31865.9,34636.2,-0.6453,-0.8962,144.7,96.6,0.538
41.78,31773.0,34608.2,-1.0965,-0.9651,144.7,96.6,0.538
41.8,31797.2,34538.2,-0.9789,-1.1371,144.7,96.6,0.538
41.82,31844.9,34487.4,-0.7472,-1.262,144.7,96.6,0.538
41.84,31754.4,34454.0,-1.1869,-1.3442,144.7,96.6,0.538
41.86,31794.3,34697.1,-0.993,-0.7463,144.7,96.6,0.538
41.88,32005.8,35043.6,0.034,0.1056,144.7,96.6,0.538
41.9,32281.1,35283.9,1.3709,0.6965,144.7,96.6,0.538
41.92,32354.9,35673.5,1.7289,1.6544,144.7,96.6,0.538
41.94,32341.1,35718.3,1.6621,1.7646,144.7,96.6,0.538
41.96,32297.0,35604.2,1.4481,1.484,144.7,96.6,0.538
41.98,32282.1,35487.1,1.3756,1.1961,144.7,96.6,0.538
42.0,32142.1,35170.2,0.6955,0.4169,144.7,96.6,0.538
42.02,32102.3,35178.9,0.5024,0.4382,144.7,96.6,0.538
42.04,32095.3,35141.7,0.4685,0.3469,144.7,96.6,0.538
42.06,32107.9,35061.4,0.5298,0.1493,144.7,96.6,0.538
42.08,31986.4,34944.9,-0.0602,-0.1371,144.7,96.6,0.538
42.1,31962.5,34874.3,-0.1761,-0.3108,144.7,96.6,0.538
42.12,31831.3,34833.7,-0.8133,-0.4104,144.7,96.6,0.538
42.14,31813.0,34695.6,-0.9021,-0.7501,144.7,96.6,0.538
42.16,31875.1,34677.5,-0.6006,-0.7946,144.7,96.6,0.538
42.18,31860.7,34637.3,-0.6704,-0.8933,144.7,96.6,0.538
42.2,31843.7,34534.9,-0.7532,-1.1452,144.7,96.6,0.538
42.22,31695.5,34526.5,-1.4729,-1.1659,144.7,96.6,0.538
42.24,31734.6,34457.9,-1.2831,-1.3344,144.7,96.6,0.538
42.26,31815.4,34548.9,-0.8905,-1.1107,144.7,96.6,0.538
42.28,31921.0,34816.8,-0.3779,-0.4521,144.7,96.6,0.538
42.3,32052.1,35125.7,0.2589,0.3076,144.7,96.6,0.538
42.32,32286.2,35460.6,1.3954,1.1309,144.7,96.6,0.538
42.34,32340.0,35812.6,1.6568,1.9965,144.7,96.6,0.538
42.36,32447.4,35699.0,2.1784,1.7172,144.7,96.6,0.538
42.38,32303.7,35638.3,1.4805,1.5679,144.7,96.6,0.538
42.4,32228.4,35456.7,1.1147,1.1214,144.7,96.6,0.538
42.42,32071.6,35252.4,0.3535,0.6191,144.7,96.6,0.538
42.44,32119.8,35179.0,0.5874,0.4385,144.7,96.6,0.538
42.46,31960.1,35144.4,-0.1881,0.3535,144.7,96.6,0.538
42.48,32059.4,35132.7,0.2944,0.3247,144.7,96.6,0.538
42.5,31949.1,34960.2,-0.2415,-0.0994,144.7,96.6,0.538
42.52,31928.6,34772.4,-0.3411,-0.5612,144.7,96.6,0.538
42.54,31943.7,34740.0,-0.2675,-0.6409,144.7,96.6,0.538
42.56,31818.7,34683.5,-0.8746,-0.7799,144.7,96.6,0.538
42.58,31838.4,34677.7,-0.7788,-0.7941,144.7,96.6,0.538
42.6,31785.6,34672.1,-1.0351,-0.808,144.7,96.6,0.538
42.62,31803.5,34524.4,-0.9482,-1.171,144.7,96.6,0.538
42.64,31754.2,34447.8,-1.1876,-1.3593,144.7,96.6,0.538
42.66,31756.7,34450.9,-1.1755,-1.3518,144.7,96.6,0.538
42.68,31763.2,34653.6,-1.1439,-0.8533,144.7,96.6,0.538
42.7,31983.7,34790.0,-0.0734,-0.5181,144.7,96.6,0.538
42.72,32107.5,35145.8,0.5278,0.357,144.7,96.6,0.538
42.74,32192.9,35550.2,0.9427,1.3513,144.7,96.6,0.538
42.76,32368.5,35763.4,1.7951,1.8755,144.7,96.6,0.538
42.78,32300.7,35622.6,1.4659,1.5293,144.7,96.6,0.538
42.8,32235.1,35563.7,1.1472,1.3845,144.7,96.6,0.538
42.82,32149.6,35366.3,0.7322,0.8992,144.7,96.6,0.538
42.84,32134.3,35225.4,0.6577,0.5527,144.7,96.6,0.538
42.86,31978.1,35148.6,-0.1007,0.3638,144.7,96.6,0.538
42.88,32017.7,35110.7,0.0917,0.2707,144.7,96.6,0.538
42.9,31983.9,35085.1,-0.0724,0.2077,144.7,96.6,0.538
42.92,32017.9,34882.1,0.0926,-0.2914,144.7,96.6,0.538
42.94,31805.2,34872.5,-0.9401,-0.3152,144.7,96.6,0.538
42.96,31838.3,34667.9,-0.7792,-0.8182,144.7,96.6,0.538
42.98,31792.2,34665.3,-1.0033,-0.8247,144.7,96.6,0.538
43.0,31823.7,34698.8,-0.8503,-0.7421,144.7,96.6,0.538
43.02,31788.5,34533.9,-1.0213,-1.1476,144.7,96.6,0.538
43.04,31693.3,34578.8,-1.4835,-1.0373,144.7,96.6,0.538
43.06,31691.4,34508.4,-1.4928,-1.2104,144.7,96.6,0.538
43.08,31705.3,34512.3,-1.4251,-1.2007,144.7,96.6,0.538
43.1,31792.8,34551.1,-1.0005,-1.1054,144.7,96.6,0.538
43.12,31909.3,34885.1,-0.4345,-0.2841,144.7,96.6,0.538
43.14,32153.4,35288.6,0.7509,0.7081,144.7,96.6,0.538
43.16,32320.7,35723.1,1.5632,1.7764,144.7,96.6,0.538
43.18,32380.5,35699.1,1.8532,1.7175,144.7,96.6,0.538
43.2,32277.9,35772.8,1.3553,1.8986,144.7,96.6,0.538
43.22,32245.0,35558.5,1.1954,1.3717,144.7,96.6,0.538
43.24,32182.4,35291.3,0.8913,0.7148,144.7,96.6,0.538
43.26,32115.6,35218.5,0.5669,0.5358,144.7,96.6,0.538
43.28,32015.2,35105.7,0.0794,0.2583,144.7,96.6,0.538
43.3,32026.3,35111.9,0.1335,0.2735,144.7,96.6,0.538
43.32,31937.0,35033.7,-0.2999,0.0814,144.7,96.6,0.538
43.34,31967.8,34874.4,-0.1508,-0.3105,144.7,96.6,0.538
43.36,31848.1,34680.7,-0.732,-0.7866,144.7,96.6,0.538
43.38,31787.1,34605.3,-1.0282,-0.972,144.7,96.6,0.538
43.4,31795.8,34709.2,-0.9859,-0.7167,144.7,96.6,0.538
43.42,31813.8,34683.6,-0.8985,-0.7796,144.7,96.6,0.538
43.44,31816.5,34617.2,-0.8851,-0.9429,144.7,96.6,0.538
43.46,31809.3,34564.9,-0.9201,-1.0716,144.7,96.6,0.538
43.48,31823.7,34444.9,-0.8503,-1.3666,144.7,96.6,0.538
43.5,31856.5,34487.1,-0.6908,-1.2628,144.7,96.6,0.538
43.52,31847.7,34643.7,-0.7338,-0.8776,144.7,96.6,0.538
43.54,31965.2,35063.6,-0.1634,0.1548,144.7,96.6,0.538
43.56,32224.3,35375.1,1.0951,0.9208,144.7,96.6,0.538
43.58,32304.2,35586.7,1.4827,1.441,144.7,96.6,0.538
43.6,32315.2,35718.3,1.5365,1.7647,144.7,96.6,0.538
43.62,32407.5,35711.9,1.9844,1.7488,144.7,96.6,0.538
43.64,32208.9,35490.7,1.0199,1.205,144.7,96.6,0.538
43.66,32143.4,35236.0,0.7023,0.5787,144.7,96.6,0.538
43.68,32147.2,35171.5,0.7207,0.4202,144.7,96.6,0.538
43.7,32092.7,35107.1,0.4559,0.2617,144.7,96.6,0.538
43.72,32026.6,35130.0,0.1352,0.318,144.7,96.6,0.538
43.74,31901.8,34932.2,-0.4709,-0.1683,144.7,96.6,0.538
43.76,31937.8,34972.0,-0.2962,-0.0705,144.7,96.6,0.538
43.78,31915.2,34671.0,-0.4062,-0.8105,144.7,96.6,0.538
43.8,31827.9,34643.9,-0.8299,-0.8772,144.7,96.6,0.538
43.82,31799.9,34714.0,-0.9657,-0.7048,144.7,96.6,0.538
43.84,31766.0,34539.6,-1.1302,-1.1337,144.7,96.6,0.538
43.86,31800.4,34596.5,-0.9636,-0.9937,144.7,96.6,0.538
43.88,31730.9,34510.6,-1.3009,-1.2049,144.7,96.6,0.538
43.9,31758.8,34467.0,-1.1653,-1.3121,144.7,96.6,0.538
43.92,31723.7,34548.7,-1.336,-1.1112,144.7,96.6,0.538
43.94,31830.8,34754.0,-0.8157,-0.6065,144.7,96.6,0.538
43.96,32061.1,35081.6,0.3027,0.1992,144.7,96.6,0.538
43.98,32144.1,35513.8,0.7056,1.2618,144.7,96.6,0.538
44.0,32364.7,35745.8,1.7766,1.8322,144.7,96.6,0.538
44.02,32379.5,35764.1,1.8484,1.8773,144.7,96.6,0.538
44.04,32246.0,35615.2,1.2002,1.5111,144.7,96.6,0.538
44.06,32274.5,35327.8,1.3386,0.8045,144.7,96.6,0.538
44.08,32040.5,35230.4,0.2025,0.565,144.7,96.6,0.538
44.1,32056.1,35149.7,0.2782,0.3665,144.7,96.6,0.538
44.12,31926.2,35069.1,-0.3526,0.1683,144.7,96.6,0.538
44.14,32084.4,34900.0,0.4154,-0.2474,144.7,96.6,0.538
44.16,31954.7,34917.7,-0.2142,-0.204,144.7,96.6,0.538
44.18,31922.4,34875.1,-0.3709,-0.3087,144.7,96.6,0.538
44.2,31969.1,34731.2,-0.1444,-0.6624,144.7,96.6,0.538
44.22,31797.4,34745.0,-0.9778,-0.6286,144.7,96.6,0.538
44.24,31878.4,34685.6,-0.5846,-0.7747,144.7,96.6,0.538
44.26,31767.9,34635.0,-1.1213,-0.8991,144.7,96.6,0.538
44.28,31728.1,34578.7,-1.3145,-1.0375,144.7,96.6,0.538
44.3,31707.1,34471.9,-1.4162,-1.3001,144.7,96.6,0.538
44.32,31727.0,34406.0,-1.3197,-1.4622,144.7,96.6,0.538
44.34,31813.4,34586.7,-0.9001,-1.0179,144.7,96.6,0.538
44.36,31905.4,34822.5,-0.4537,-0.4381,144.7,96.6,0.538
44.38,32089.8,35243.0,0.4419,0.596,144.7,96.6,0.538
44.4,32257.3,35524.0,1.2551,1.2868,144.7,96.6,0.538
44.42,32325.9,35769.8,1.5883,1.8914,144.7,96.6,0.538
44.44,32343.7,35712.5,1.6747,1.7504,144.7,96.6,0.538
44.46,32278.7,35596.5,1.3589,1.465,144.7,96.6,0.538
44.48,32193.4,35283.4,0.9451,0.6953,144.7,96.6,0.538
44.5,32049.9,35339.6,0.2482,0.8334,144.7,96.6,0.538
44.52,32176.8,35082.8,0.8642,0.202,144.7,96.6,0.538
44.54,32029.1,35023.1,0.1471,0.0553,144.7,96.6,0.538
44.56,31873.0,35046.5,-0.6109,0.1128,144.7,96.6,0.538
44.58,32043.4,34919.2,0.2166,-0.2002,144.7,96.6,0.538
44.6,31891.3,34714.8,-0.5218,-0.7028,144.7,96.6,0.538
44.62,31862.4,34635.9,-0.6626,-0.8969,144.7,96.6,0.538
44.64,31833.8,34717.0,-0.8014,-0.6973,144.7,96.6,0.538
44.66,31886.1,34648.9,-0.5472,-0.8649,144.7,96.6,0.538
44.68,31751.3,34587.0,-1.2019,-1.0172,144.7,96.6,0.538
44.7,31781.4,34575.2,-1.0557,-1.0461,144.7,96.6,0.538
44.72,31699.2,34442.8,-1.4549,-1.3716,144.7,96.6,0.538
44.74,31807.6,34483.0,-0.9286,-1.2729,144.7,96.6,0.538
44.76,31791.0,34677.6,-1.009,-0.7944,144.7,96.6,0.538
44.78,31928.0,34970.1,-0.344,-0.075,144.7,96.6,0.538
44.8,32181.0,35355.0,0.8844,0.8713,144.7,96.6,0.538
44.82,32273.1,35678.1,1.332,1.6658,144.7,96.6,0.538
44.84,32340.9,35714.4,1.6612,1.755,144.7,96.6,0.538
