timestamp,raw_red,raw_ir,filtered_red,filtered_ir,heart_rate,spo2,ac_dc_ratio
0.0,32112.4,35094.9,0.4572,0.2312,140.7,96.8,0.529
0.02,32249.3,35497.6,1.0052,1.2215,140.7,96.8,0.529
0.04,32382.1,35709.4,1.5367,1.7424,140.7,96.8,0.529
0.06,32342.9,35762.7,1.3799,1.8733,140.7,96.8,0.529
0.08,32283.5,35595.0,1.1419,1.4611,140.7,96.8,0.529
0.1,32220.9,35390.1,0.8912,0.9572,140.7,96.8,0.529
0.12,32107.1,35288.1,0.4358,0.7063,140.7,96.8,0.529
0.14,32119.8,35143.0,0.4868,0.3496,140.7,96.8,0.529
0.16,32011.4,35187.5,0.053,0.4591,140.7,96.8,0.529
0.18,32021.6,35000.4,0.0937,-0.0009,140.7,96.8,0.529
0.2,31985.0,34985.6,-0.0528,-0.0375,140.7,96.8,0.529
0.22,31968.5,34852.9,-0.1188,-0.3638,140.7,96.8,0.529
0.24,31909.5,34752.2,-0.3548,-0.6113,140.7,96.8,0.529
0.26,31964.3,34662.4,-0.1355,-0.8321,140.7,96.8,0.529
0.28,31819.1,34582.3,-0.7167,-1.029,140.7,96.8,0.529
0.3,31868.1,34690.0,-0.5206,-0.7643,140.7,96.8,0.529
0.32,31775.4,34689.7,-0.8916,-0.7651,140.7,96.8,0.529
0.34,31775.6,34557.1,-0.891,-1.0911,140.7,96.8,0.529
0.36,31709.5,34464.6,-1.1555,-1.3184,140.7,96.8,0.529
0.38,31732.7,34443.9,-1.0626,-1.3695,140.7,96.8,0.529
0.4,31874.7,34608.6,-0.4942,-0.9645,140.7,96.8,0.529
0.42,32172.9,34992.4,0.6992,-0.0206,140.7,96.8,0.529
0.44,32174.6,35450.7,0.7059,1.1062,140.7,96.8,0.529
0.46,32311.7,35692.5,1.2547,1.7008,140.7,96.8,0.529
0.48,32412.2,35806.1,1.6571,1.9801,140.7,96.8,0.529
0.5,32246.1,35587.3,0.9922,1.442,140.7,96.8,0.529
0.52,32252.2,35499.5,1.0166,1.2262,140.7,96.8,0.529
0.54,32187.5,35226.5,0.7579,0.5549,140.7,96.8,0.529
0.56,32126.7,35102.6,0.5143,0.2503,140.7,96.8,0.529
0.58,32055.4,35065.1,0.2288,0.158,140.7,96.8,0.529
0.6,32011.5,35121.1,0.0533,0.2957,140.7,96.8,0.529
0.62,32035.9,34979.3,0.1509,-0.0528,140.7,96.8,0.529
0.64,31855.2,34943.9,-0.5725,-0.1401,140.7,96.8,0.529
0.66,31898.5,34680.6,-0.3991,-0.7874,140.7,96.8,0.529
0.68,31813.7,34658.3,-0.7385,-0.8422,140.7,96.8,0.529
0.7,31798.1,34734.0,-0.801,-0.6561,140.7,96.8,0.529
0.72,31925.5,34655.1,-0.291,-0.8502,140.7,96.8,0.529
0.74,31797.8,34660.8,-0.8018,-0.836,140.7,96.8,0.529
0.76,31851.3,34578.9,-0.5881,-1.0374,140.7,96.8,0.529
0.78,31717.9,34461.7,-1.1217,-1.3257,140.7,96.8,0.529
0.8,31753.6,34537.4,-0.9788,-1.1396,140.7,96.8,0.529
0.82,31868.4,34674.0,-0.5195,-0.8036,140.7,96.8,0.529
0.84,31992.1,35076.5,-0.0245,0.1861,140.7,96.8,0.529
0.86,32091.2,35280.3,0.3723,0.6872,140.7,96.8,0.529
0.88,32319.3,35699.3,1.2853,1.7175,140.7,96.8,0.529
0.9,32413.1,35781.0,1.6607,1.9184,140.7,96.8,0.529
0.92,32305.6,35719.8,1.2303,1.7679,140.7,96.8,0.529
0.94,32234.8,35648.4,0.9472,1.5923,140.7,96.8,0.529
0.96,32217.9,35309.2,0.8794,0.7582,140.7,96.8,0.529
0.98,32027.2,35297.7,0.1161,0.7299,140.7,96.8,0.529
1.0,32014.9,35103.7,0.0668,0.2529,140.7,96.8,0.529
1.02,31988.5,35059.4,-0.0389,0.1441,140.7,96.8,0.529
1.04,31965.4,34980.8,-0.1311,-0.0491,140.7,96.8,0.529
1.06,31917.4,35000.7,-0.3233,-0.0003,140.7,96.8,0.529
1.08,31926.3,34763.8,-0.2877,-0.5828,140.7,96.8,0.529
1.1,31810.5,34669.1,-0.7512,-0.8157,140.7,96.8,0.529
1.12,31851.2,34708.6,-0.5882,-0.7185,140.7,96.8,0.529
1.14,31845.1,34582.8,-0.6127,-1.0278,140.7,96.8,0.529
1.16,31854.1,34640.2,-0.5766,-0.8867,140.7,96.8,0.529
1.18,31664.8,34459.0,-1.3344,-1.3322,140.7,96.8,0.529
1.2,31803.3,34479.2,-0.78,-1.2826,140.7,96.8,0.529
1.22,31675.1,34446.8,-1.2931,-1.3622,140.7,96.8,0.529
1.24,31837.0,34484.0,-0.645,-1.2709,140.7,96.8,0.529
1.26,31935.2,34728.8,-0.2519,-0.669,140.7,96.8,0.529
1.28,32122.2,35145.5,0.4963,0.3557,140.7,96.8,0.529
1.3,32150.6,35583.5,0.6102,1.4327,140.7,96.8,0.529
1.32,32386.9,35765.3,1.556,1.8796,140.7,96.8,0.529
1.34,32406.1,35695.1,1.6326,1.7072,140.7,96.8,0.529
1.36,32265.0,35605.1,1.0681,1.4858,140.7,96.8,0.529
1.38,32318.5,35423.2,1.2821,1.0386,140.7,96.8,0.529
1.4,31957.7,35270.9,-0.1621,0.6642,140.7,96.8,0.529
1.42,32046.4,35159.5,0.1929,0.3902,140.7,96.8,0.529
1.44,32108.1,35154.4,0.4398,0.3775,140.7,96.8,0.529
1.46,31858.1,35044.9,-0.5607,0.1084,140.7,96.8,0.529
1.48,32047.0,34963.6,0.1955,-0.0916,140.7,96.8,0.529
1.5,31868.7,34826.1,-0.5182,-0.4297,140.7,96.8,0.529
1.52,31887.2,34761.8,-0.4442,-0.5877,140.7,96.8,0.529
1.54,31879.2,34591.2,-0.4762,-1.0072,140.7,96.8,0.529
1.56,31952.5,34602.5,-0.1829,-0.9795,140.7,96.8,0.529
1.58,31790.2,34577.7,-0.8323,-1.0405,140.7,96.8,0.529
1.6,31763.5,34672.8,-0.9394,-0.8065,140.7,96.8,0.529
1.62,31748.3,34583.7,-1.0001,-1.0255,140.7,96.8,0.529
1.64,31788.5,34513.4,-0.8392,-1.1985,140.7,96.8,0.529
1.66,31737.2,34539.4,-1.0445,-1.1346,140.7,96.8,0.529
1.68,31846.6,34677.5,-0.6067,-0.7951,140.7,96.8,0.529
1.7,32054.4,35067.2,0.2249,0.1632,140.7,96.8,0.529
1.72,32254.9,35379.7,1.0274,0.9316,140.7,96.8,0.529
1.74,32272.3,35621.5,1.0971,1.526,140.7,96.8,0.529
1.76,32428.4,35756.3,1.722,1.8575,140.7,96.8,0.529
1.78,32268.1,35746.1,1.0805,1.8326,140.7,96.8,0.529
1.8,32251.4,35499.7,1.0137,1.2266,140.7,96.8,0.529
1.82,32155.5,35286.5,0.6297,0.7024,140.7,96.8,0.529
1.84,32099.4,35163.9,0.4051,0.401,140.7,96.8,0.529
1.86,32088.6,35109.0,0.3621,0.266,140.7,96.8,0.529
1.88,31978.8,35144.8,-0.0776,0.354,140.7,96.8,0.529
1.9,31980.2,35017.5,-0.072,0.0411,140.7,96.8,0.529
1.92,31908.2,34959.4,-0.3601,-0.1019,140.7,96.8,0.529
1.94,31956.6,34717.6,-0.1662,-0.6965,140.7,96.8,0.529
1.96,31772.5,34709.9,-0.9034,-0.7154,140.7,96.8,0.529
1.98,31846.8,34675.5,-0.606,-0.7999,140.7,96.8,0.529
2.0,31838.5,34746.2,-0.6391,-0.626,140.7,96.8,0.529
2.02,31856.5,34718.9,-0.5669,-0.6932,140.7,96.8,0.529
2.04,31731.7,34615.3,-1.0665,-0.948,140.7,96.8,0.529
2.06,31696.7,34413.7,-1.2066,-1.4436,140.7,96.8,0.529
2.08,31709.7,34454.9,-1.1545,-1.3423,140.7,96.8,0.529
2.1,31778.4,34625.8,-0.8796,-0.9223,140.7,96.8,0.529
2.12,31958.7,34949.8,-0.1582,-0.1256,140.7,96.8,0.529
2.14,32167.2,35354.0,0.6765,0.8684,140.7,96.8,0.529
2.16,32313.6,35575.2,1.2623,1.4123,140.7,96.8,0.529
2.18,32386.2,35773.8,1.5529,1.9006,140.7,96.8,0.529
2.2,32329.9,35740.4,1.3277,1.8184,140.7,96.8,0.529
2.22,32220.2,35526.3,0.8884,1.2922,140.7,96.8,0.529
2.24,32114.8,35328.9,0.4666,0.8066,140.7,96.8,0.529
2.26,32102.3,35134.6,0.4167,0.3288,140.7,96.8,0.529
2.28,32111.6,35165.5,0.4541,0.4049,140.7,96.8,0.529
2.3,32055.1,35019.6,0.2278,0.0461,140.7,96.8,0.529
2.32,31979.7,34963.7,-0.074,-0.0912,140.7,96.8,0.529
2.34,32015.6,34820.4,0.0698,-0.4437,140.7,96.8,0.529
2.36,31965.4,34761.9,-0.1313,-0.5874,140.7,96.8,0.529
2.38,31907.6,34663.9,-0.3625,-0.8285,140.7,96.8,0.529
2.4,31799.8,34740.0,-0.7938,-0.6413,140.7,96.8,0.529
2.42,31865.2,34677.5,-0.5324,-0.7951,140.7,96.8,0.529
2.44,31844.9,34717.2,-0.6135,-0.6973,140.7,96.8,0.529
2.46,31708.9,34572.5,-1.1578,-1.0531,140.7,96.8,0.529
2.48,31782.6,34472.6,-0.8629,-1.2989,140.7,96.8,0.529
2.5,31851.3,34425.7,-0.5879,-1.4141,140.7,96.8,0.529
2.52,31841.1,34493.3,-0.6286,-1.2478,140.7,96.8,0.529
2.54,31882.2,34745.1,-0.4643,-0.6287,140.7,96.8,0.529
2.56,32036.6,35126.8,0.154,0.3099,140.7,96.8,0.529
2.58,32242.0,35474.8,0.9757,1.1654,140.7,96.8,0.529
2.6,32442.3,35804.7,1.7776,1.9765,140.7,96.8,0.529
2.62,32363.3,35720.5,1.4614,1.7696,140.7,96.8,0.529
2.64,32253.8,35681.1,1.0231,1.6727,140.7,96.8,0.529
2.66,32178.6,35377.0,0.722,0.925,140.7,96.8,0.529
2.68,32023.4,35223.6,0.1008,0.5478,140.7,96.8,0.529
2.7,32013.4,35141.7,0.0611,0.3463,140.7,96.8,0.529
2.72,32007.7,34966.8,0.038,-0.0836,140.7,96.8,0.529
2.74,31971.1,35154.0,-0.1086,0.3766,140.7,96.8,0.529
2.76,32008.3,34935.4,0.0404,-0.161,140.7,96.8,0.529
2.78,31863.7,34859.6,-0.5383,-0.3471,140.7,96.8,0.529
2.8,31777.6,34777.6,-0.8829,-0.5489,140.7,96.8,0.529
2.82,31971.0,34859.0,-0.1089,-0.3487,140.7,96.8,0.529
2.84,31737.6,34629.3,-1.043,-0.9136,140.7,96.8,0.529
2.86,31865.4,34705.2,-0.5314,-0.727,140.7,96.8,0.529
2.88,31709.6,34568.8,-1.1552,-1.0622,140.7,96.8,0.529
2.9,31769.8,34497.7,-0.9141,-1.2371,140.7,96.8,0.529
2.92,31664.6,34453.1,-1.3349,-1.3467,140.7,96.8,0.529
2.94,31777.5,34473.7,-0.8833,-1.2961,140.7,96.8,0.529
2.96,31780.5,34674.7,-0.8714,-0.8019,140.7,96.8,0.529
2.98,32069.3,35015.1,0.2847,0.0352,140.7,96.8,0.529
3.0,32125.2,35454.1,0.5085,1.1145,140.7,96.8,0.529
3.02,32421.1,35683.4,1.6928,1.6785,140.7,96.8,0.529
3.04,32391.1,35780.7,1.5725,1.9175,140.7,96.8,0.529
3.06,32315.7,35692.5,1.2707,1.7007,140.7,96.8,0.529
3.08,32218.2,35493.4,0.8804,1.2112,140.7,96.8,0.529
3.1,32164.0,35330.5,0.6635,0.8106,140.7,96.8,0.529
3.12,32063.6,35146.2,0.2617,0.3575,140.7,96.8,0.529
3.14,32111.9,35105.2,0.4551,0.2566,140.7,96.8,0.529
3.16,32040.6,35082.9,0.1696,0.2018,140.7,96.8,0.529
3.18,31987.5,34935.8,-0.0429,-0.1598,140.7,96.8,0.529
3.2,31946.9,34872.8,-0.2051,-0.3149,140.7,96.8,0.529
3.22,31956.0,34803.5,-0.169,-0.4853,140.7,96.8,0.529
3.24,31859.7,34681.8,-0.5543,-0.7845,140.7,96.8,0.529
3.26,31853.0,34698.6,-0.5812,-0.7432,140.7,96.8,0.529
3.28,31864.0,34654.5,-0.537,-0.8515,140.7,96.8,0.529
3.3,31801.3,34714.1,-0.788,-0.7051,140.7,96.8,0.529
3.32,31753.4,34515.1,-0.9796,-1.1943,140.7,96.8,0.529
3.34,31751.3,34506.1,-0.9882,-1.2164,140.7,96.8,0.529
3.36,31695.1,34506.9,-1.2132,-1.2144,140.7,96.8,0.529
3.38,31861.0,34641.9,-0.5489,-0.8826,140.7,96.8,0.529
3.4,32012.7,34916.6,0.0581,-0.207,140.7,96.8,0.529
3.42,32111.3,35324.8,0.4526,0.7965,140.7,96.8,0.529
3.44,32363.8,35584.5,1.4635,1.4351,140.7,96.8,0.529
3.46,32392.3,35769.1,1.5774,1.8891,140.7,96.8,0.529
3.48,32419.5,35696.0,1.6865,1.7094,140.7,96.8,0.529
3.5,32279.1,35536.4,1.1244,1.3169,140.7,96.8,0.529
3.52,32159.8,35363.6,0.6471,0.8921,140.7,96.8,0.529
3.54,32038.8,35225.7,0.1628,0.5529,140.7,96.8,0.529
3.56,32056.3,35140.0,0.2325,0.3423,140.7,96.8,0.529
3.58,31895.3,35032.7,-0.4119,0.0785,140.7,96.8,0.529
3.6,31935.7,34998.7,-0.2499,-0.0051,140.7,96.8,0.529
3.62,32018.8,34918.3,0.0826,-0.203,140.7,96.8,0.529
3.64,31857.4,34807.7,-0.5636,-0.4748,140.7,96.8,0.529
3.66,31890.2,34744.7,-0.4321,-0.6297,140.7,96.8,0.529
3.68,31882.2,34638.1,-0.4643,-0.892,140.7,96.8,0.529
3.7,31794.7,34593.2,-0.8144,-1.0022,140.7,96.8,0.529
3.72,31866.9,34577.4,-0.5256,-1.0412,140.7,96.8,0.529
3.74,31830.7,34627.8,-0.6705,-0.9171,140.7,96.8,0.529
3.76,31623.7,34481.6,-1.4987,-1.2766,140.7,96.8,0.529
3.78,31727.0,34452.4,-1.0856,-1.3485,140.7,96.8,0.529
3.8,31836.1,34566.2,-0.6488,-1.0686,140.7,96.8,0.529
3.82,31853.6,34773.8,-0.5786,-0.5581,140.7,96.8,0.529
3.84,32058.7,35149.4,0.2424,0.3653,140.7,96.8,0.529
3.86,32247.3,35513.3,0.9972,1.2601,140.7,96.8,0.529
3.88,32399.3,35711.0,1.6056,1.7463,140.7,96.8,0.529
3.9,32351.7,35797.6,1.415,1.9592,140.7,96.8,0.529
3.92,32306.9,35676.6,1.2357,1.6617,140.7,96.8,0.529
3.94,32211.8,35411.3,0.8552,1.0093,140.7,96.8,0.529
3.96,32181.6,35282.9,0.7342,0.6935,140.7,96.8,0.529
3.98,32145.5,35119.5,0.5898,0.2917,140.7,96.8,0.529
4.0,32010.1,35082.1,0.0475,0.1999,140.7,96.8,0.529
4.02,31990.0,35067.7,-0.0325,0.1645,140.7,96.8,0.529
4.04,32014.9,35002.0,0.067,0.0029,140.7,96.8,0.529
4.06,31927.9,34892.2,-0.2812,-0.267,140.7,96.8,0.529
4.08,31848.4,34779.5,-0.5995,-0.5443,140.7,96.8,0.529
4.1,31879.7,34658.3,-0.474,-0.8422,140.7,96.8,0.529
4.12,31821.4,34702.0,-0.7074,-0.7349,140.7,96.8,0.529
4.14,31879.1,34621.9,-0.4768,-0.9316,140.7,96.8,0.529
4.16,31967.1,34635.4,-0.1243,-0.8986,140.7,96.8,0.529
4.18,31741.9,34531.0,-1.0258,-1.1551,140.7,96.8,0.529
4.2,31689.7,34485.8,-1.2348,-1.2663,140.7,96.8,0.529
4.22,31752.4,34563.0,-0.9837,-1.0765,140.7,96.8,0.529
4.24,31824.7,34704.6,-0.6942,-0.7283,140.7,96.8,0.529
4.26,32037.5,35044.6,0.1574,0.1075,140.7,96.8,0.529
4.28,32172.9,35467.9,0.6994,1.1484,140.7,96.8,0.529
4.3,32244.6,35744.5,0.9864,1.8287,140.7,96.8,0.529
4.32,32298.8,35749.8,1.2033,1.8416,140.7,96.8,0.529
4.34,32285.9,35638.9,1.1517,1.569,140.7,96.8,0.529
4.36,32276.9,35495.9,1.1157,1.2173,140.7,96.8,0.529
4.38,32112.9,35284.0,0.4592,0.6963,140.7,96.8,0.529
4.4,32054.7,35137.9,0.2264,0.337,140.7,96.8,0.529
4.42,32060.0,35030.1,0.2475,0.072,140.7,96.8,0.529
4.44,32016.1,35067.7,0.0716,0.1643,140.7,96.8,0.529
4.46,31988.7,34948.9,-0.038,-0.1278,140.7,96.8,0.529
4.48,32052.3,34892.7,0.2165,-0.2658,140.7,96.8,0.529
4.5,31976.8,34727.1,-0.0857,-0.673,140.7,96.8,0.529
4.52,31897.7,34699.9,-0.4021,-0.7399,140.7,96.8,0.529
4.54,31962.4,34705.0,-0.1434,-0.7275,140.7,96.8,0.529
4.56,31841.3,34687.8,-0.6278,-0.7697,140.7,96.8,0.529
4.58,31823.0,34540.7,-0.7011,-1.1314,140.7,96.8,0.529
4.6,31855.9,34549.2,-0.5694,-1.1105,140.7,96.8,0.529
4.62,31628.2,34491.6,-1.4809,-1.2521,140.7,96.8,0.529
4.64,31790.3,34409.5,-0.8319,-1.4539,140.7,96.8,0.529
4.66,31782.8,34624.6,-0.8619,-0.925,140.7,96.8,0.529
4.68,31910.1,34933.8,-0.3526,-0.1649,140.7,96.8,0.529
4.7,32201.0,35216.0,0.812,0.5292,140.7,96.8,0.529
4.72,32319.0,35592.5,1.2842,1.4548,140.7,96.8,0.529
4.74,32402.7,35749.5,1.6192,1.841,140.7,96.8,0.529
4.76,32362.0,35724.1,1.4562,1.7784,140.7,96.8,0.529
4.78,32344.7,35474.0,1.3871,1.1634,140.7,96.8,0.529
4.8,32162.6,35360.6,0.6581,0.8845,140.7,96.8,0.529
4.82,32073.4,35168.0,0.3009,0.4111,140.7,96.8,0.529
4.84,32093.3,35179.4,0.3806,0.439,140.7,96.8,0.529
4.86,31950.9,35051.1,-0.1891,0.1236,140.7,96.8,0.529
4.88,32044.3,35095.9,0.1845,0.2339,140.7,96.8,0.529
4.9,31946.2,34915.4,-0.2081,-0.2101,140.7,96.8,0.529
4.92,32040.9,34720.1,0.1712,-0.6903,140.7,96.8,0.529
4.94,31943.4,34734.7,-0.2192,-0.6544,140.7,96.8,0.529
4.96,31866.4,34700.4,-0.5274,-0.7387,140.7,96.8,0.529
4.98,31737.6,34763.7,-1.0431,-0.5831,140.7,96.8,0.529
5.0,31802.9,34607.6,-0.7814,-0.9668,140.7,96.8,0.529
5.02,31825.9,34554.1,-0.6897,-1.0984,140.7,96.8,0.529
5.04,31711.6,34401.6,-1.1468,-1.4734,140.7,96.8,0.529
5.06,31647.0,34429.3,-1.4058,-1.4054,140.7,96.8,0.529
5.08,31800.5,34612.0,-0.7912,-0.9561,140.7,96.8,0.529
5.1,31829.0,34796.4,-0.6771,-0.5027,140.7,96.8,0.529
5.12,31981.2,35197.9,-0.0679,0.4846,140.7,96.8,0.529
5.14,32371.5,35443.2,1.4943,1.0877,140.7,96.8,0.529
5.16,32299.6,35810.7,1.2066,1.9915,140.7,96.8,0.529
5.18,32342.4,35764.8,1.3778,1.8785,140.7,96.8,0.529
5.2,32207.2,35601.3,0.8366,1.4766,140.7,96.8,0.529
5.22,32197.2,35386.5,0.7967,0.9483,140.7,96.8,0.529
5.24,32142.1,35140.1,0.576,0.3424,140.7,96.8,0.529
5.26,32051.4,35161.0,0.2131,0.3939,140.7,96.8,0.529
5.28,32115.0,35127.1,0.4677,0.3105,140.7,96.8,0.529
5.3,32041.3,35056.8,0.1728,0.1377,140.7,96.8,0.529
5.32,31936.5,34934.4,-0.2468,-0.1634,140.7,96.8,0.529
5.34,31921.7,34851.5,-0.3063,-0.3672,140.7,96.8,0.529
5.36,31913.8,34694.0,-0.3376,-0.7544,140.7,96.8,0.529
5.38,31843.0,34674.6,-0.6211,-0.8021,140.7,96.8,0.529
5.4,31821.9,34640.3,-0.7055,-0.8865,140.7,96.8,0.529
5.42,31777.9,34671.0,-0.8817,-0.8109,140.7,96.8,0.529
5.44,31820.0,34574.1,-0.7131,-1.0492,140.7,96.8,0.529
5.46,31743.1,34511.1,-1.0211,-1.2041,140.7,96.8,0.529
5.48,31757.5,34391.2,-0.9631,-1.499,140.7,96.8,0.529
5.5,31733.0,34452.1,-1.0613,-1.3492,140.7,96.8,0.529
5.52,31884.0,34693.5,-0.4569,-0.7556,140.7,96.8,0.529
5.54,32048.3,34986.1,0.2005,-0.0361,140.7,96.8,0.529
5.56,32228.0,35431.2,0.9197,1.0583,140.7,96.8,0.529
5.58,32267.5,35684.4,1.0779,1.6807,140.7,96.8,0.529
5.6,32270.6,35657.4,1.0905,1.6144,140.7,96.8,0.529
5.62,32268.8,35645.9,1.0833,1.586,140.7,96.8,0.529
5.64,32176.7,35509.3,0.7144,1.2503,140.7,96.8,0.529
5.66,32129.8,35242.2,0.5268,0.5935,140.7,96.8,0.529
5.68,32094.3,35202.6,0.3849,0.4962,140.7,96.8,0.529
5.7,32012.2,35094.4,0.0561,0.2301,140.7,96.8,0.529
5.72,32019.9,35075.3,0.0868,0.1831,140.7,96.8,0.529
5.74,31958.8,34942.5,-0.1576,-0.1435,140.7,96.8,0.529
5.76,31852.2,34853.3,-0.5844,-0.3628,140.7,96.8,0.529
5.78,31871.8,34829.2,-0.506,-0.4219,140.7,96.8,0.529
5.8,31866.1,34657.0,-0.5286,-0.8455,140.7,96.8,0.529
5.82,31892.1,34612.6,-0.4248,-0.9546,140.7,96.8,0.529
5.84,31912.0,34660.4,-0.345,-0.837,140.7,96.8,0.529
5.86,31842.8,34656.5,-0.622,-0.8467,140.7,96.8,0.529
5.88,31859.9,34607.5,-0.5534,-0.9672,140.7,96.8,0.529
5.9,31769.0,34524.3,-0.9174,-1.1716,140.7,96.8,0.529
5.92,31710.6,34496.1,-1.151,-1.2411,140.7,96.8,0.529
5.94,31836.1,34660.5,-0.6489,-0.8367,140.7,96.8,0.529
5.96,31926.2,35019.1,-0.2882,0.045,140.7,96.8,0.529
5.98,32186.8,35405.0,0.7549,0.9937,140.7,96.8,0.529
6.0,32265.4,35571.7,1.0694,1.4037,140.7,96.8,0.529
6.02,32317.7,35797.6,1.2789,1.9591,140.7,96.8,0.529
6.04,32359.7,35740.4,1.4469,1.8185,140.7,96.8,0.529
6.06,32251.4,35532.3,1.0134,1.3068,140.7,96.8,0.529
6.08,32113.8,35323.4,0.4627,0.7931,140.7,96.8,0.529
6.1,32041.9,35243.1,0.1749,0.5956,140.7,96.8,0.529
6.12,32013.2,35115.9,0.0603,0.2831,140.7,96.8,0.529
6.14,32024.4,35058.8,0.1047,0.1425,140.7,96.8,0.529
6.16,31959.6,34911.0,-0.1544,-0.2209,140.7,96.8,0.529
6.18,31997.6,34889.1,-0.0022,-0.2747,140.7,96.8,0.529
6.2,31927.3,34748.4,-0.2838,-0.6206,140.7,96.8,0.529
6.22,31845.1,34668.1,-0.6126,-0.8181,140.7,96.8,0.529
6.24,31776.1,34714.9,-0.8889,-0.7031,140.7,96.8,0.529
6.26,31806.9,34713.5,-0.7656,-0.7066,140.7,96.8,0.529
6.28,31868.4,34617.6,-0.5196,-0.9423,140.7,96.8,0.529
6.3,31793.2,34513.1,-0.8203,-1.1992,140.7,96.8,0.529
6.32,31680.4,34474.2,-1.272,-1.295,140.7,96.8,0.529
6.34,31793.3,34452.6,-0.8199,-1.348,140.7,96.8,0.529
6.36,31784.2,34523.3,-0.8565,-1.1741,140.7,96.8,0.529
6.38,31871.9,34777.2,-0.5055,-0.5499,140.7,96.8,0.529
6.4,32075.0,35255.8,0.3076,0.6269,140.7,96.8,0.529
6.42,32351.5,35529.5,1.4142,1.2998,140.7,96.8,0.529
6.44,32418.2,35686.4,1.6813,1.6859,140.7,96.8,0.529
6.46,32366.3,35879.8,1.4732,2.1613,140.7,96.8,0.529
6.48,32415.0,35615.1,1.6683,1.5103,140.7,96.8,0.529
6.5,32126.2,35346.0,0.5123,0.8486,140.7,96.8,0.529
6.52,32070.6,35272.2,0.2897,0.6672,140.7,96.8,0.529
6.54,32011.0,35180.1,0.0513,0.4408,140.7,96.8,0.529
6.56,32160.6,35026.6,0.6499,0.0635,140.7,96.8,0.529
6.58,31906.1,34990.8,-0.3684,-0.0247,140.7,96.8,0.529
6.6,31992.0,34933.0,-0.0246,-0.1667,140.7,96.8,0.529
6.62,31867.8,34917.7,-0.5217,-0.2044,140.7,96.8,0.529
6.64,31889.4,34720.2,-0.4353,-0.69,140.7,96.8,0.529
6.66,31780.5,34799.6,-0.8711,-0.4949,140.7,96.8,0.529
6.68,31813.8,34692.7,-0.7379,-0.7576,140.7,96.8,0.529
6.7,31826.4,34642.3,-0.6875,-0.8816,140.7,96.8,0.529
6.72,31714.4,34489.9,-1.1359,-1.2563,140.7,96.8,0.529
6.74,31773.6,34542.6,-0.899,-1.1267,140.7,96.8,0.529
6.76,31812.2,34557.8,-0.7444,-1.0893,140.7,96.8,0.529
6.78,31730.2,34510.6,-1.0727,-1.2054,140.7,96.8,0.529
6.8,31770.1,34750.6,-0.913,-0.6152,140.7,96.8,0.529
6.82,32038.2,35018.9,0.1602,0.0446,140.7,96.8,0.529
6.84,32210.2,35353.3,0.8486,0.8667,140.7,96.8,0.529
6.86,32330.9,35733.3,1.3317,1.801,140.7,96.8,0.529
6.88,32295.5,35831.1,1.1901,2.0414,140.7,96.8,0.529
6.9,32260.7,35682.0,1.0509,1.675,140.7,96.8,0.529
6.92,32249.2,35530.2,1.0049,1.3016,140.7,96.8,0.529
6.94,32135.9,35334.1,0.5512,0.8194,140.7,96.8,0.529
6.96,31979.6,35188.4,-0.0744,0.4613,140.7,96.8,0.529
6.98,32095.0,35133.1,0.3875,0.3253,140.7,96.8,0.529
7.0,32077.6,34977.7,0.3179,-0.0568,140.7,96.8,0.529
7.02,31982.5,34941.2,-0.0629,-0.1466,140.7,96.8,0.529
7.04,32006.4,34821.3,0.033,-0.4414,140.7,96.8,0.529
7.06,31847.0,34747.1,-0.6051,-0.6238,140.7,96.8,0.529
7.08,31884.9,34679.3,-0.4536,-0.7907,140.7,96.8,0.529
7.1,31807.2,34704.3,-0.7642,-0.7291,140.7,96.8,0.529
7.12,31829.7,34736.6,-0.6745,-0.6498,140.7,96.8,0.529
7.14,31744.6,34654.5,-1.0151,-0.8514,140.7,96.8,0.529
7.16,31857.1,34556.2,-0.5646,-1.0932,140.7,96.8,0.529
7.18,31804.6,34442.2,-0.7747,-1.3735,140.7,96.8,0.529
7.2,31748.0,34443.2,-1.0013,-1.3712,140.7,96.8,0.529
7.22,31798.4,34543.1,-0.7997,-1.1256,140.7,96.8,0.529
7.24,32003.9,34881.9,0.023,-0.2923,140.7,96.8,0.529
7.26,32120.8,35318.0,0.4909,0.7798,140.7,96.8,0.529
7.28,32336.3,35629.6,1.3532,1.5461,140.7,96.8,0.529
7.3,32373.8,35788.7,1.5034,1.9374,140.7,96.8,0.529
7.32,32341.1,35660.4,1.3725,1.6218,140.7,96.8,0.529
7.34,32228.4,35515.9,0.9215,1.2665,140.7,96.8,0.529
7.36,32150.6,35351.1,0.6099,0.8614,140.7,96.8,0.529
7.38,32056.4,35199.3,0.2329,0.488,140.7,96.8,0.529
7.4,32092.8,35110.1,0.3787,0.2688,140.7,96.8,0.529
7.42,32023.0,35008.6,0.0994,0.0191,140.7,96.8,0.529
7.44,31994.7,34969.9,-0.014,-0.076,140.7,96.8,0.529
7.46,31888.4,34874.3,-0.4394,-0.3111,140.7,96.8,0.529
7.48,31913.3,34839.6,-0.3396,-0.3965,140.7,96.8,0.529
7.5,31915.1,34614.3,-0.3325,-0.9505,140.7,96.8,0.529
7.52,31870.0,34658.8,-0.5132,-0.841,140.7,96.8,0.529
7.54,31859.3,34748.3,-0.556,-0.6209,140.7,96.8,0.529
7.56,31793.6,34639.2,-0.8186,-0.8892,140.7,96.8,0.529
7.58,31796.2,34577.4,-0.8082,-1.0412,140.7,96.8,0.529
7.6,31734.7,34471.1,-1.0544,-1.3025,140.7,96.8,0.529
7.62,31707.5,34369.1,-1.1636,-1.5533,140.7,96.8,0.529
7.64,31782.5,34566.9,-0.8634,-1.0669,140.7,96.8,0.529
7.66,31839.4,34790.0,-0.6355,-0.5183,140.7,96.8,0.529
7.68,32058.6,35238.3,0.2417,0.5839,140.7,96.8,0.529
7.7,32270.9,35567.5,1.0916,1.3933,140.7,96.8,0.529
7.72,32360.8,35680.5,1.4515,1.6713,140.7,96.8,0.529
7.74,32358.7,35648.1,1.443,1.5916,140.7,96.8,0.529
7.76,32318.4,35651.1,1.2815,1.5988,140.7,96.8,0.529
7.78,32149.9,35386.2,0.6071,0.9475,140.7,96.8,0.529
7.8,32139.2,35213.6,0.5645,0.5231,140.7,96.8,0.529
7.82,32097.1,35093.8,0.3959,0.2286,140.7,96.8,0.529
7.84,32031.7,35109.4,0.1341,0.2669,140.7,96.8,0.529
7.86,32078.9,35052.4,0.3232,0.1268,140.7,96.8,0.529
7.88,32040.1,34956.4,0.1676,-0.1091,140.7,96.8,0.529
7.9,31868.5,34797.4,-0.5192,-0.5002,140.7,96.8,0.529
7.92,31882.0,34752.2,-0.465,-0.6113,140.7,96.8,0.529
7.94,31795.2,34601.5,-0.8124,-0.9818,140.7,96.8,0.529
7.96,31830.3,34673.9,-0.6719,-0.8039,140.7,96.8,0.529
7.98,31896.3,34790.3,-0.4077,-0.5177,140.7,96.8,0.529
8.0,31849.4,34482.7,-0.5953,-1.2739,140.7,96.8,0.529
8.02,31794.4,34453.9,-0.8157,-1.3447,140.7,96.8,0.529
8.04,31767.4,34399.0,-0.9237,-1.4797,140.7,96.8,0.529
8.06,31765.0,34473.5,-0.9332,-1.2967,140.7,96.8,0.529
8.08,31809.1,34712.1,-0.7569,-0.7099,140.7,96.8,0.529
8.1,32056.8,35070.3,0.2348,0.1709,140.7,96.8,0.529
8.12,32237.2,35373.8,0.9567,0.9171,140.7,96.8,0.529
8.14,32243.3,35718.8,0.9812,1.7653,140.7,96.8,0.529
8.16,32426.5,35706.9,1.7145,1.7362,140.7,96.8,0.529
8.18,32278.3,35643.9,1.1211,1.5812,140.7,96.8,0.529
8.2,32172.7,35485.8,0.6987,1.1926,140.7,96.8,0.529
8.22,32161.3,35269.4,0.6528,0.6603,140.7,96.8,0.529
8.24,32027.3,35194.2,0.1164,0.4754,140.7,96.8,0.529
8.26,32018.0,35142.2,0.0795,0.3476,140.7,96.8,0.529
8.28,31961.1,35040.3,-0.1483,0.0969,140.7,96.8,0.529
8.3,31951.9,35004.0,-0.1854,0.0077,140.7,96.8,0.529
8.32,31868.8,34871.2,-0.5177,-0.3187,140.7,96.8,0.529
8.34,31901.1,34846.7,-0.3885,-0.3789,140.7,96.8,0.529
8.36,31801.8,34711.3,-0.7858,-0.712,140.7,96.8,0.529
8.38,31852.5,34625.6,-0.583,-0.9226,140.7,96.8,0.529
8.4,31813.0,34634.8,-0.7413,-0.9001,140.7,96.8,0.529
8.42,31735.9,34596.7,-1.0496,-0.9936,140.7,96.8,0.529
8.44,31822.7,34619.5,-0.7025,-0.9376,140.7,96.8,0.529
8.46,31690.1,34483.2,-1.2332,-1.2727,140.7,96.8,0.529
8.48,31772.8,34559.9,-0.9021,-1.0841,140.7,96.8,0.529
8.5,31891.3,34665.3,-0.4277,-0.8251,140.7,96.8,0.529
8.52,31973.7,34971.0,-0.098,-0.0733,140.7,96.8,0.529
8.54,32157.9,35327.7,0.6391,0.8038,140.7,96.8,0.529
8.56,32264.2,35640.4,1.0648,1.5727,140.7,96.8,0.529
8.58,32391.8,35707.0,1.5754,1.7363,140.7,96.8,0.529
8.6,32311.4,35684.4,1.2538,1.6809,140.7,96.8,0.529
8.62,32303.9,35600.1,1.2237,1.4736,140.7,96.8,0.529
8.64,32206.0,35309.6,0.8318,0.7592,140.7,96.8,0.529
8.66,32154.3,35227.3,0.6248,0.5569,140.7,96.8,0.529
8.68,32039.6,35132.3,0.1658,0.3233,140.7,96.8,0.529
8.7,32128.3,35111.7,0.5207,0.2727,140.7,96.8,0.529
8.72,31943.3,34990.9,-0.2196,-0.0243,140.7,96.8,0.529
8.74,31952.1,34872.4,-0.1842,-0.3157,140.7,96.8,0.529
8.76,31834.5,34826.8,-0.6552,-0.4278,140.7,96.8,0.529
8.78,31882.4,34748.0,-0.4632,-0.6216,140.7,96.8,0.529
8.8,31779.6,34610.1,-0.8748,-0.9608,140.7,96.8,0.529
8.82,31832.2,34701.1,-0.6642,-0.737,140.7,96.8,0.529
8.84,31899.1,34587.2,-0.3968,-1.0172,140.7,96.8,0.529
8.86,31756.5,34529.5,-0.9671,-1.1589,140.7,96.8,0.529
8.88,31693.8,34432.2,-1.2184,-1.3982,140.7,96.8,0.529
8.9,31791.1,34410.3,-0.8288,-1.452,140.7,96.8,0.529
8.92,31798.2,34525.8,-0.8006,-1.168,140.7,96.8,0.529
8.94,31900.9,34860.1,-0.3893,-0.3461,140.7,96.8,0.529
8.96,32117.0,35200.3,0.4755,0.4905,140.7,96.8,0.529
8.98,32198.8,35572.1,0.8032,1.4048,140.7,96.8,0.529
9.0,32397.2,35859.6,1.5972,2.1115,140.7,96.8,0.529
9.02,32322.9,35724.0,1.2999,1.7783,140.7,96.8,0.529
9.04,32336.1,35695.5,1.3527,1.7082,140.7,96.8,0.529
9.06,32198.1,35458.9,0.8,1.1265,140.7,96.8,0.529
9.08,32124.6,35350.2,0.5059,0.8591,140.7,96.8,0.529
9.1,32031.6,35116.2,0.1338,0.2837,140.7,96.8,0.529
9.12,32134.7,35037.1,0.5463,0.0891,140.7,96.8,0.529
9.14,32044.6,34996.5,0.186,-0.0107,140.7,96.8,0.529
9.16,31950.7,34888.3,-0.19,-0.2766,140.7,96.8,0.529
9.18,31856.8,34824.8,-0.5659,-0.4329,140.7,96.8,0.529
9.2,31872.1,34739.5,-0.5046,-0.6426,140.7,96.8,0.529
9.22,31856.5,34726.4,-0.5671,-0.6747,140.7,96.8,0.529
9.24,31825.4,34666.8,-0.6916,-0.8213,140.7,96.8,0.529
9.26,31847.5,34723.0,-0.6031,-0.6831,140.7,96.8,0.529
9.28,31889.3,34551.5,-0.4358,-1.1049,140.7,96.8,0.529
9.3,31802.1,34559.0,-0.7849,-1.0864,140.7,96.8,0.529
9.32,31750.7,34460.6,-0.9904,-1.3283,140.7,96.8,0.529
9.34,31816.6,34582.7,-0.7268,-1.0282,140.7,96.8,0.529
9.36,31971.2,34767.4,-0.1079,-0.574,140.7,96.8,0.529
9.38,32005.7,35019.0,0.0303,0.0448,140.7,96.8,0.529
9.4,32157.7,35347.3,0.6386,0.852,140.7,96.8,0.529
9.42,32288.6,35678.3,1.1624,1.6659,140.7,96.8,0.529
9.44,32445.4,35729.1,1.79,1.7907,140.7,96.8,0.529
9.46,32274.8,35605.2,1.107,1.4862,140.7,96.8,0.529
9.48,32256.6,35468.5,1.0345,1.1501,140.7,96.8,0.529
9.5,32112.7,35289.1,0.4583,0.7089,140.7,96.8,0.529
9.52,32078.8,35179.0,0.3227,0.4381,140.7,96.8,0.529
9.54,32014.6,35094.9,0.0655,0.2314,140.7,96.8,0.529
9.56,32044.6,35016.7,0.1858,0.0391,140.7,96.8,0.529
9.58,31903.6,35002.1,-0.3786,0.0032,140.7,96.8,0.529
9.6,31969.8,34827.5,-0.1136,-0.4262,140.7,96.8,0.529
9.62,31889.1,34704.8,-0.4366,-0.7279,140.7,96.8,0.529
9.64,31930.1,34656.9,-0.2726,-0.8458,140.7,96.8,0.529
9.66,31806.0,34722.0,-0.769,-0.6855,140.7,96.8,0.529
9.68,31864.4,34668.9,-0.5354,-0.8161,140.7,96.8,0.529
9.7,31872.4,34576.5,-0.5034,-1.0434,140.7,96.8,0.529
9.72,31736.3,34542.9,-1.048,-1.1261,140.7,96.8,0.529
9.74,31655.9,34460.7,-1.3701,-1.3282,140.7,96.8,0.529
9.76,31735.3,34425.3,-1.0522,-1.4151,140.7,96.8,0.529
9.78,31872.0,34540.7,-0.505,-1.1314,140.7,96.8,0.529
9.8,31970.5,34922.7,-0.1106,-0.192,140.7,96.8,0.529
9.82,32185.9,35284.4,0.7515,0.6973,140.7,96.8,0.529
9.84,32183.4,35670.1,0.7414,1.6456,140.7,96.8,0.529
9.86,32344.7,35768.0,1.3868,1.8865,140.7,96.8,0.529
9.88,32332.4,35714.4,1.3377,1.7546,140.7,96.8,0.529
9.9,32257.9,35545.4,1.0395,1.339,140.7,96.8,0.529
9.92,32151.2,35414.0,0.6123,1.016,140.7,96.8,0.529
9.94,32135.5,35160.4,0.5498,0.3924,140.7,96.8,0.529
9.96,32080.1,35118.3,0.3279,0.2889,140.7,96.8,0.529
9.98,32013.4,35143.9,0.0611,0.3517,140.7,96.8,0.529
10.0,31997.4,35024.4,-0.0032,0.0578,140.7,96.8,0.529
10.02,31936.5,34879.4,-0.2471,-0.2986,140.7,96.8,0.529
10.04,31947.5,34772.7,-0.2029,-0.5609,140.7,96.8,0.529
10.06,31853.1,34745.3,-0.5809,-0.6282,140.7,96.8,0.529
10.08,31930.8,34771.5,-0.2698,-0.5639,140.7,96.8,0.529
10.1,31925.4,34542.3,-0.2912,-1.1276,140.7,96.8,0.529
10.12,31819.8,34630.8,-0.7139,-0.9099,140.7,96.8,0.529
10.14,31719.9,34567.3,-1.114,-1.0659,140.7,96.8,0.529
10.16,31717.0,34491.2,-1.1256,-1.253,140.7,96.8,0.529
10.18,31755.4,34455.4,-0.9717,-1.3412,140.7,96.8,0.529
10.2,31799.4,34585.5,-0.7956,-1.0212,140.7,96.8,0.529
10.22,31887.4,34841.8,-0.4434,-0.3911,140.7,96.8,0.529
10.24,32103.6,35218.8,0.4221,0.5361,140.7,96.8,0.529
10.26,32198.8,35523.5,0.803,1.2851,140.7,96.8,0.529
10.28,32405.2,35709.3,1.629,1.7421,140.7,96.8,0.529
10.3,32308.6,35656.4,1.2423,1.612,140.7,96.8,0.529
10.32,32326.2,35558.2,1.313,1.3705,140.7,96.8,0.529
10.34,32243.3,35438.0,0.9811,1.075,140.7,96.8,0.529
10.36,32128.8,35245.0,0.523,0.6005,140.7,96.8,0.529
10.38,32074.2,35148.4,0.3042,0.3628,140.7,96.8,0.529
10.4,32098.7,35144.0,0.4022,0.3521,140.7,96.8,0.529
10.42,32005.3,35056.7,0.0285,0.1374,140.7,96.8,0.529
10.44,32061.4,34962.3,0.2529,-0.0948,140.7,96.8,0.529
10.46,31926.9,34879.3,-0.2854,-0.2988,140.7,96.8,0.529
10.48,31815.8,34722.0,-0.7299,-0.6855,140.7,96.8,0.529
10.5,31803.2,34744.2,-0.7804,-0.6311,140.7,96.8,0.529
10.52,31830.1,34715.8,-0.6728,-0.7009,140.7,96.8,0.529
10.54,31847.3,34673.9,-0.604,-0.804,140.7,96.8,0.529
10.56,31732.4,34589.8,-1.0639,-1.0107,140.7,96.8,0.529
10.58,31734.1,34509.2,-1.0568,-1.2089,140.7,96.8,0.529
10.6,31733.9,34389.3,-1.0579,-1.5037,140.7,96.8,0.529
10.62,31732.3,34600.3,-1.0643,-0.9847,140.7,96.8,0.529
10.64,31904.6,34657.5,-0.3744,-0.8441,140.7,96.8,0.529
10.66,32078.3,35087.4,0.3208,0.2129,140.7,96.8,0.529
10.68,32281.1,35419.4,1.1323,1.0292,140.7,96.8,0.529
10.7,32285.7,35695.2,1.1506,1.7074,140.7,96.8,0.529
10.72,32374.5,35658.5,1.5063,1.6171,140.7,96.8,0.529
10.74,32345.4,35614.9,1.3897,1.5099,140.7,96.8,0.529
10.76,32324.7,35497.0,1.3068,1.22,140.7,96.8,0.529
10.78,32172.0,35354.4,0.6959,0.8694,140.7,96.8,0.529
10.8,32036.3,35141.7,0.1524,0.3463,140.7,96.8,0.529
10.82,32101.8,35037.2,0.4148,0.0894,140.7,96.8,0.529
10.84,32066.9,35057.1,0.2752,0.1384,140.7,96.8,0.529
10.86,31990.7,34941.9,-0.0299,-0.145,140.7,96.8,0.529
10.88,32013.0,34807.5,0.0593,-0.4754,140.7,96.8,0.529
10.9,31931.4,34703.6,-0.2671,-0.7309,140.7,96.8,0.529
10.92,31839.5,34688.7,-0.635,-0.7674,140.7,96.8,0.529
10.94,31831.3,34687.0,-0.6679,-0.7718,140.7,96.8,0.529
10.96,31880.0,34713.0,-0.4731,-0.7077,140.7,96.8,0.529
10.98,31797.5,34512.0,-0.8031,-1.2019,140.7,96.8,0.529
11.0,31823.0,34451.1,-0.7013,-1.3518,140.7,96.8,0.529
11.02,31755.7,34434.2,-0.9705,-1.3932,140.7,96.8,0.529
11.04,31738.6,34490.2,-1.039,-1.2556,140.7,96.8,0.529
11.06,31845.3,34682.8,-0.6118,-0.7819,140.7,96.8,0.529
11.08,31841.9,34884.2,-0.6256,-0.2868,140.7,96.8,0.529
11.1,32125.0,35390.0,0.5074,0.957,140.7,96.8,0.529
11.12,32310.8,35637.6,1.2513,1.5658,140.7,96.8,0.529
11.14,32468.8,35789.1,1.8836,1.9384,140.7,96.8,0.529
11.16,32415.9,35706.2,1.672,1.7345,140.7,96.8,0.529
11.18,32256.0,35573.2,1.0318,1.4075,140.7,96.8,0.529
11.2,32180.2,35260.0,0.7287,0.6372,140.7,96.8,0.529
11.22,32174.0,35163.7,0.7036,0.4004,140.7,96.8,0.529
11.24,32096.2,35054.8,0.3924,0.1326,140.7,96.8,0.529
11.26,32105.0,35036.9,0.4276,0.0888,140.7,96.8,0.529
11.28,32003.0,35011.4,0.0193,0.0261,140.7,96.8,0.529
11.3,31951.5,34967.0,-0.187,-0.0832,140.7,96.8,0.529
11.32,31949.5,34837.6,-0.195,-0.4014,140.7,96.8,0.529
11.34,31859.1,34653.8,-0.5565,-0.8532,140.7,96.8,0.529
11.36,31873.7,34616.3,-0.4982,-0.9455,140.7,96.8,0.529
11.38,31775.6,34613.2,-0.8908,-0.9531,140.7,96.8,0.529
11.4,31840.9,34702.1,-0.6297,-0.7345,140.7,96.8,0.529
11.42,31778.8,34553.9,-0.8782,-1.099,140.7,96.8,0.529
11.44,31668.2,34480.0,-1.3208,-1.2806,140.7,96.8,0.529
11.46,31675.3,34588.8,-1.2924,-1.013,140.7,96.8,0.529
11.48,31740.2,34625.0,-1.0327,-0.924,140.7,96.8,0.529
11.5,31934.0,34840.6,-0.2568,-0.3939,140.7,96.8,0.529
11.52,32106.9,35221.2,0.435,0.542,140.7,96.8,0.529
11.54,32228.3,35561.3,0.9211,1.3782,140.7,96.8,0.529
11.56,32416.8,35723.7,1.6756,1.7774,140.7,96.8,0.529
11.58,32374.6,35775.4,1.5065,1.9045,140.7,96.8,0.529
11.6,32305.4,35666.2,1.2297,1.6359,140.7,96.8,0.529
11.62,32124.3,35360.4,0.5049,0.8841,140.7,96.8,0.529
11.64,32129.7,35277.8,0.5265,0.6811,140.7,96.8,0.529
11.66,32080.5,35153.7,0.3296,0.3759,140.7,96.8,0.529
11.68,32043.4,35130.3,0.1811,0.3183,140.7,96.8,0.529
11.7,32018.2,34989.2,0.0801,-0.0286,140.7,96.8,0.529
11.72,31985.0,34912.2,-0.0529,-0.2179,140.7,96.8,0.529
11.74,31939.6,34900.9,-0.2343,-0.2456,140.7,96.8,0.529
11.76,31904.8,34749.3,-0.3738,-0.6184,140.7,96.8,0.529
11.78,31925.3,34542.5,-0.2917,-1.1271,140.7,96.8,0.529
11.8,31840.9,34746.8,-0.6296,-0.6245,140.7,96.8,0.529
11.82,31827.9,34674.9,-0.6817,-0.8013,140.7,96.8,0.529
11.84,31788.0,34653.7,-0.8412,-0.8535,140.7,96.8,0.529
11.86,31751.1,34455.7,-0.9889,-1.3404,140.7,96.8,0.529
11.88,31707.1,34364.5,-1.1651,-1.5646,140.7,96.8,0.529
11.9,31708.2,34559.8,-1.1608,-1.0844,140.7,96.8,0.529
11.92,31814.3,34854.4,-0.7361,-0.36,140.7,96.8,0.529
11.94,32024.7,34995.1,0.1063,-0.0142,140.7,96.8,0.529
11.96,32252.0,35395.3,1.0157,0.9698,140.7,96.8,0.529
11.98,32360.1,35666.2,1.4487,1.6361,140.7,96.8,0.529
12.0,32309.2,35805.8,1.245,1.9794,140.7,96.8,0.529
12.02,32310.1,35657.0,1.2486,1.6134,140.7,96.8,0.529
12.04,32239.0,35406.6,0.9639,0.9976,140.7,96.8,0.529
12.06,32126.3,35313.7,0.5126,0.7694,140.7,96.8,0.529
12.08,32053.0,35148.7,0.2194,0.3637,140.7,96.8,0.529
12.1,31995.0,35011.9,-0.0128,0.0272,140.7,96.8,0.529
12.12,31994.4,35054.3,-0.0152,0.1315,140.7,96.8,0.529
12.14,32042.8,35094.3,0.1787,0.2298,140.7,96.8,0.529
12.16,31825.5,34920.6,-0.691,-0.1973,140.7,96.8,0.529
12.18,31837.6,34728.2,-0.6427,-0.6704,140.7,96.8,0.529
12.2,31761.6,34714.9,-0.947,-0.7031,140.7,96.8,0.529
12.22,31800.4,34768.1,-0.7915,-0.5722,140.7,96.8,0.529
12.24,31778.7,34709.1,-0.8786,-0.7173,140.7,96.8,0.529
12.26,31834.4,34630.9,-0.6554,-0.9095,140.7,96.8,0.529
12.28,31754.3,34521.6,-0.976,-1.1784,140.7,96.8,0.529
12.3,31724.0,34348.3,-1.0974,-1.6044,140.7,96.8,0.529
12.32,31720.5,34533.0,-1.1115,-1.1503,140.7,96.8,0.529
12.34,31828.8,34645.7,-0.6779,-0.8731,140.7,96.8,0.529
12.36,32016.2,34949.7,0.0723,-0.1256,140.7,96.8,0.529
12.38,32162.2,35264.1,0.6566,0.6474,140.7,96.8,0.529
12.4,32396.1,35572.1,1.5925,1.4047,140.7,96.8,0.529
12.42,32349.3,35685.8,1.4053,1.6843,140.7,96.8,0.529
12.44,32358.1,35758.9,1.4405,1.8641,140.7,96.8,0.529
12.46,32216.3,35507.1,0.8729,1.2448,140.7,96.8,0.529
12.48,32172.9,35430.3,0.6992,1.0559,140.7,96.8,0.529
12.5,32078.2,35115.0,0.3203,0.2806,140.7,96.8,0.529
12.52,32052.9,35173.6,0.2191,0.4249,140.7,96.8,0.529
12.54,32030.0,35186.7,0.1273,0.457,140.7,96.8,0.529
12.56,32021.8,35020.9,0.0944,0.0494,140.7,96.8,0.529
12.58,31911.7,34954.0,-0.3461,-0.1152,140.7,96.8,0.529
12.6,31895.0,34788.2,-0.413,-0.5229,140.7,96.8,0.529
12.62,31747.3,34698.6,-1.0041,-0.743,140.7,96.8,0.529
12.64,31891.9,34727.5,-0.4254,-0.6722,140.7,96.8,0.529
12.66,31820.2,34640.1,-0.7123,-0.8869,140.7,96.8,0.529
12.68,31824.4,34722.6,-0.6957,-0.6841,140.7,96.8,0.529
12.7,31730.6,34515.7,-1.0711,-1.1929,140.7,96.8,0.529
12.72,31695.7,34500.0,-1.2106,-1.2314,140.7,96.8,0.529
12.74,31768.2,34466.6,-0.9204,-1.3135,140.7,96.8,0.529
12.76,31791.6,34486.4,-0.8268,-1.265,140.7,96.8,0.529
12.78,31958.2,34744.1,-0.16,-0.6312,140.7,96.8,0.529
12.8,32133.5,35206.1,0.5418,0.5048,140.7,96.8,0.529
12.82,32275.9,35648.7,1.1116,1.5931,140.7,96.8,0.529
12.84,32432.8,35692.8,1.7394,1.7015,140.7,96.8,0.529
12.86,32383.3,35697.4,1.5414,1.7127,140.7,96.8,0.529
12.88,32256.3,35597.3,1.033,1.4668,140.7,96.8,0.529
12.9,32180.3,35440.5,0.729,1.0812,140.7,96.8,0.529
12.92,32049.7,35233.4,0.2063,0.5718,140.7,96.8,0.529
12.94,32059.1,35186.1,0.2439,0.4555,140.7,96.8,0.529
12.96,32067.7,35003.0,0.2784,0.0053,140.7,96.8,0.529
12.98,32041.1,35057.6,0.1717,0.1396,140.7,96.8,0.529
13.0,31970.7,34980.4,-0.1099,-0.0502,140.7,96.8,0.529
13.02,31916.6,34773.7,-0.3264,-0.5584,140.7,96.8,0.529
13.04,31883.5,34725.2,-0.459,-0.6777,140.7,96.8,0.529
13.06,31923.7,34690.0,-0.2981,-0.7644,140.7,96.8,0.529
13.08,31848.2,34666.3,-0.6002,-0.8226,140.7,96.8,0.529
13.1,31795.6,34581.6,-0.8107,-1.0309,140.7,96.8,0.529
13.12,31701.1,34650.4,-1.189,-0.8616,140.7,96.8,0.529
13.14,31749.3,34530.0,-0.9962,-1.1578,140.7,96.8,0.529
13.16,31749.9,34426.3,-0.9937,-1.4128,140.7,96.8,0.529
13.18,31823.5,34547.9,-0.6992,-1.1137,140.7,96.8,0.529
13.2,31869.6,34776.9,-0.5146,-0.5506,140.7,96.8,0.529
13.22,32067.3,35047.5,0.2766,0.1148,140.7,96.8,0.529
13.24,32178.7,35493.5,0.7227,1.2113,140.7,96.8,0.529
13.26,32340.0,35663.4,1.3683,1.6293,140.7,96.8,0.529
13.28,32377.3,35838.4,1.5176,2.0595,140.7,96.8,0.529
13.3,32293.4,35669.1,1.1815,1.6432,140.7,96.8,0.529
13.32,32182.5,35501.4,0.7377,1.2309,140.7,96.8,0.529
13.34,32104.8,35145.1,0.4269,0.3547,140.7,96.8,0.529
13.36,32067.4,35183.9,0.2771,0.4501,140.7,96.8,0.529
13.38,32134.2,35085.2,0.5442,0.2074,140.7,96.8,0.529
13.4,32015.5,35067.7,0.0691,0.1645,140.7,96.8,0.529
13.42,31911.9,34927.2,-0.3451,-0.181,140.7,96.8,0.529
13.44,31939.2,34939.1,-0.2359,-0.1518,140.7,96.8,0.529
13.46,31912.9,34768.5,-0.3412,-0.5713,140.7,96.8,0.529
13.48,31899.1,34707.6,-0.3965,-0.7211,140.7,96.8,0.529
13.5,31822.2,34621.7,-0.7044,-0.9321,140.7,96.8,0.529
13.52,31789.6,34575.1,-0.8347,-1.0469,140.7,96.8,0.529
13.54,31922.8,34689.8,-0.3016,-0.7648,140.7,96.8,0.529
13.56,31752.1,34518.8,-0.9851,-1.1852,140.7,96.8,0.529
13.58,31731.2,34514.2,-1.0686,-1.1965,140.7,96.8,0.529
13.6,31661.5,34546.7,-1.3475,-1.1165,140.7,96.8,0.529
13.62,31793.2,34680.3,-0.8203,-0.7881,140.7,96.8,0.529
13.64,31971.5,34990.6,-0.1066,-0.0251,140.7,96.8,0.529
13.66,32113.3,35293.7,0.4608,0.7201,140.7,96.8,0.529
13.68,32357.8,35656.7,1.4394,1.6128,140.7,96.8,0.529
13.7,32380.2,35740.0,1.5289,1.8174,140.7,96.8,0.529
13.72,32428.9,35712.8,1.724,1.7506,140.7,96.8,0.529
13.74,32273.9,35560.6,1.1037,1.3765,140.7,96.8,0.529
13.76,32108.9,35340.6,0.443,0.8356,140.7,96.8,0.529
13.78,32022.3,35176.9,0.0967,0.4329,140.7,96.8,0.529
13.8,32180.7,35061.2,0.7306,0.1483,140.7,96.8,0.529
13.82,32017.2,35084.6,0.0763,0.206,140.7,96.8,0.529
13.84,32055.5,35019.5,0.2296,0.046,140.7,96.8,0.529
13.86,31946.0,34928.1,-0.2089,-0.1789,140.7,96.8,0.529
13.88,31838.5,34750.3,-0.6392,-0.6161,140.7,96.8,0.529
13.9,31902.0,34638.6,-0.3851,-0.8906,140.7,96.8,0.529
13.92,31879.6,34655.4,-0.4747,-0.8493,140.7,96.8,0.529
13.94,31865.7,34697.7,-0.5302,-0.7452,140.7,96.8,0.529
13.96,31863.5,34578.0,-0.5392,-1.0397,140.7,96.8,0.529
13.98,31695.5,34591.8,-1.2115,-1.0058,140.7,96.8,0.529
14.0,31800.3,34371.1,-0.7921,-1.5485,140.7,96.8,0.529
14.02,31707.0,34436.8,-1.1654,-1.3869,140.7,96.8,0.529
14.04,31767.6,34576.4,-0.9227,-1.0435,140.7,96.8,0.529
14.06,31979.1,34890.8,-0.0764,-0.2706,140.7,96.8,0.529
14.08,32079.3,35269.4,0.3247,0.6604,140.7,96.8,0.529
14.1,32285.0,35462.1,1.1478,1.1341,140.7,96.8,0.529
14.12,32397.0,35711.6,1.5962,1.7478,140.7,96.8,0.529
14.14,32229.8,35796.8,0.9272,1.9571,140.7,96.8,0.529
14.16,32278.5,35674.1,1.1219,1.6555,140.7,96.8,0.529
14.18,32128.2,35361.5,0.5204,0.8867,140.7,96.8,0.529
14.2,32155.8,35222.6,0.6308,0.5453,140.7,96.8,0.529
14.22,32135.6,35222.2,0.5501,0.5443,140.7,96.8,0.529
14.24,32091.1,35138.9,0.3719,0.3395,140.7,96.8,0.529
14.26,32066.8,34978.1,0.2745,-0.056,140.7,96.8,0.529
14.28,32011.9,34998.5,0.0551,-0.0057,140.7,96.8,0.529
14.3,31934.4,34837.9,-0.2555,-0.4006,140.7,96.8,0.529
14.32,31923.1,34729.4,-0.3003,-0.6675,140.7,96.8,0.529
14.34,31870.4,34705.7,-0.5116,-0.7257,140.7,96.8,0.529
14.36,31917.1,34560.7,-0.3245,-1.0822,140.7,96.8,0.529
14.38,31890.5,34691.2,-0.4309,-0.7614,140.7,96.8,0.529
14.4,31877.7,34639.7,-0.482,-0.888,140.7,96.8,0.529
14.42,31821.8,34504.7,-0.7061,-1.22,140.7,96.8,0.529
14.44,31807.4,34397.2,-0.7634,-1.4842,140.7,96.8,0.529
14.46,31740.1,34508.3,-1.0328,-1.2111,140.7,96.8,0.529
14.48,31911.7,34710.4,-0.3461,-0.7141,140.7,96.8,0.529
14.5,32016.9,35105.5,0.0749,0.2574,140.7,96.8,0.529
14.52,32271.9,35441.6,1.0954,1.0838,140.7,96.8,0.529
14.54,32366.7,35731.8,1.4751,1.7975,140.7,96.8,0.529
14.56,32411.3,35772.2,1.6534,1.8968,140.7,96.8,0.529
14.58,32353.4,35684.2,1.4218,1.6803,140.7,96.8,0.529
14.6,32296.4,35389.8,1.1935,0.9565,140.7,96.8,0.529
14.62,32191.4,35233.8,0.7733,0.5728,140.7,96.8,0.529
14.64,32072.5,35142.0,0.2976,0.347,140.7,96.8,0.529
14.66,32049.6,35086.4,0.2056,0.2105,140.7,96.8,0.529
14.68,31945.2,35170.5,-0.2119,0.4172,140.7,96.8,0.529
14.7,31943.7,34831.9,-0.2181,-0.4153,140.7,96.8,0.529
14.72,31946.0,34848.0,-0.2087,-0.3757,140.7,96.8,0.529
14.74,31877.4,34728.8,-0.4835,-0.6688,140.7,96.8,0.529
14.76,31864.1,34774.0,-0.5367,-0.5577,140.7,96.8,0.529
14.78,31809.2,34653.2,-0.7563,-0.8548,140.7,96.8,0.529
14.8,31882.4,34637.1,-0.4635,-0.8944,140.7,96.8,0.529
14.82,31810.9,34582.5,-0.7496,-1.0287,140.7,96.8,0.529
14.84,31795.3,34492.3,-0.8121,-1.2504,140.7,96.8,0.529
14.86,31730.5,34385.5,-1.0715,-1.513,140.7,96.8,0.529
14.88,31740.1,34459.2,-1.0331,-1.3318,140.7,96.8,0.529
14.9,31782.2,34681.4,-0.8646,-0.7853,140.7,96.8,0.529
14.92,31983.0,35012.1,-0.0609,0.0278,140.7,96.8,0.529
14.94,32240.6,35277.3,0.9701,0.6797,140.7,96.8,0.529
14.96,32386.5,35626.3,1.554,1.538,140.7,96.8,0.529
14.98,32376.7,35774.1,1.515,1.9013,140.7,96.8,0.529
15.0,32440.5,35719.5,1.7705,1.7672,140.7,96.8,0.529
15.02,32235.4,35543.9,0.9495,1.3353,140.7,96.8,0.529
15.04,32101.2,35313.0,0.4124,0.7675,140.7,96.8,0.529
15.06,32060.4,35173.2,0.249,0.424,140.7,96.8,0.529
15.08,32118.1,35176.6,0.4798,0.4323,140.7,96.8,0.529
15.1,31965.2,35099.2,-0.132,0.242,140.7,96.8,0.529
15.12,32034.3,35043.8,0.1446,0.1056,140.7,96.8,0.529
15.14,31972.8,34914.6,-0.1018,-0.2121,140.7,96.8,0.529
15.16,31931.2,34829.1,-0.2679,-0.4222,140.7,96.8,0.529
15.18,31806.8,34698.7,-0.7658,-0.7429,140.7,96.8,0.529
15.2,31882.9,34752.2,-0.4612,-0.6114,140.7,96.8,0.529
15.22,31854.6,34706.5,-0.5745,-0.7236,140.7,96.8,0.529
15.24,31847.7,34570.1,-0.6022,-1.0592,140.7,96.8,0.529
15.26,31641.3,34580.8,-1.4282,-1.0328,140.7,96.8,0.529
15.28,31688.6,34493.8,-1.2391,-1.2466,140.7,96.8,0.529
15.3,31648.9,34434.5,-1.398,-1.3924,140.7,96.8,0.529
15.32,31731.0,34568.7,-1.0695,-1.0626,140.7,96.8,0.529
15.34,31947.6,34863.8,-0.2023,-0.337,140.7,96.8,0.529
15.36,32102.3,35241.6,0.4169,0.592,140.7,96.8,0.529
15.38,32322.5,35511.2,1.2981,1.2548,140.7,96.8,0.529
15.4,32363.5,35699.0,1.4621,1.7168,140.7,96.8,0.529
15.42,32468.0,35761.3,1.8806,1.87,140.7,96.8,0.529
15.44,32349.4,35607.8,1.4056,1.4926,140.7,96.8,0.529
15.46,32212.8,35385.4,0.8591,0.9456,140.7,96.8,0.529
15.48,32051.6,35194.7,0.2139,0.4768,140.7,96.8,0.529
15.5,32140.3,35138.7,0.5689,0.3389,140.7,96.8,0.529
15.52,31995.3,35094.3,-0.0115,0.23,140.7,96.8,0.529
15.54,32055.4,35037.6,0.229,0.0903,140.7,96.8,0.529
15.56,32003.5,34946.5,0.0212,-0.1335,140.7,96.8,0.529
15.58,31944.5,34850.2,-0.2149,-0.3704,140.7,96.8,0.529
15.6,31882.6,34757.9,-0.4627,-0.5974,140.7,96.8,0.529
15.62,31879.3,34665.2,-0.476,-0.8252,140.7,96.8,0.529
15.64,31900.7,34693.5,-0.3903,-0.7558,140.7,96.8,0.529
15.66,31895.5,34628.2,-0.411,-0.9163,140.7,96.8,0.529
15.68,31842.7,34608.3,-0.6221,-0.9652,140.7,96.8,0.529
15.7,31748.6,34432.8,-0.9989,-1.3966,140.7,96.8,0.529
15.72,31736.9,34491.4,-1.0456,-1.2525,140.7,96.8,0.529
15.74,31753.1,34572.1,-0.9807,-1.0543,140.7,96.8,0.529
15.76,31827.1,34765.0,-0.6847,-0.5798,140.7,96.8,0.529
15.78,32040.5,35185.9,0.1693,0.4551,140.7,96.8,0.529
15.8,32256.5,35533.5,1.0337,1.3097,140.7,96.8,0.529
15.82,32405.4,35672.3,1.6297,1.6511,140.7,96.8,0.529
15.84,32445.5,35763.4,1.7904,1.875,140.7,96.8,0.529
15.86,32245.8,35620.4,0.9909,1.5234,140.7,96.8,0.529
15.88,32183.5,35437.7,0.7418,1.0743,140.7,96.8,0.529
15.9,32122.3,35299.6,0.4968,0.7346,140.7,96.8,0.529
15.92,32095.0,35124.6,0.3874,0.3044,140.7,96.8,0.529
15.94,31909.0,35160.0,-0.3568,0.3915,140.7,96.8,0.529
15.96,31987.7,35048.3,-0.042,0.1168,140.7,96.8,0.529
15.98,31958.4,34945.2,-0.159,-0.1368,140.7,96.8,0.529
16.0,31867.4,34843.0,-0.5233,-0.3882,140.7,96.8,0.529
16.02,31900.0,34749.6,-0.3929,-0.6176,140.7,96.8,0.529
16.04,31816.1,34647.5,-0.7288,-0.8688,140.7,96.8,0.529
16.06,31944.9,34670.5,-0.2133,-0.8122,140.7,96.8,0.529
16.08,31747.6,34651.1,-1.0028,-0.8598,140.7,96.8,0.529
16.1,31772.3,34574.4,-0.904,-1.0484,140.7,96.8,0.529
16.12,31650.2,34479.8,-1.3927,-1.2811,140.7,96.8,0.529
16.14,31721.7,34419.0,-1.1066,-1.4305,140.7,96.8,0.529
16.16,31744.5,34484.7,-1.0152,-1.269,140.7,96.8,0.529
16.18,31741.9,34627.6,-1.026,-0.9178,140.7,96.8,0.529
16.2,31903.1,34943.3,-0.3807,-0.1414,140.7,96.8,0.529
16.22,32087.5,35411.6,0.3574,1.0101,140.7,96.8,0.529
16.24,32367.2,35623.5,1.477,1.531,140.7,96.8,0.529
16.26,32369.0,35709.4,1.4842,1.7423,140.7,96.8,0.529
16.28,32314.5,35754.9,1.266,1.8542,140.7,96.8,0.529
16.3,32259.1,35504.0,1.0445,1.2373,140.7,96.8,0.529
16.32,32153.7,35341.1,0.6224,0.8366,140.7,96.8,0.529
16.34,32062.5,35176.2,0.2576,0.4312,140.7,96.8,0.529
16.36,31963.8,35145.2,-0.1375,0.3549,140.7,96.8,0.529
16.38,32046.7,35126.9,0.1941,0.3101,140.7,96.8,0.529
16.4,32013.7,34981.6,0.0621,-0.0473,140.7,96.8,0.529
16.42,31893.0,34888.6,-0.4209,-0.276,140.7,96.8,0.529
16.44,31905.7,34801.7,-0.3701,-0.4895,140.7,96.8,0.529
16.46,31872.3,34775.1,-0.5036,-0.5551,140.7,96.8,0.529
16.48,31816.9,34648.8,-0.7255,-0.8656,140.7,96.8,0.529
16.5,31782.5,34657.4,-0.8633,-0.8443,140.7,96.8,0.529
16.52,31840.6,34598.2,-0.6309,-0.9901,140.7,96.8,0.529
16.54,31673.2,34629.5,-1.3005,-0.9131,140.7,96.8,0.529
16.56,31707.8,34540.6,-1.1622,-1.1317,140.7,96.8,0.529
16.58,31860.1,34503.8,-0.5527,-1.2221,140.7,96.8,0.529
16.6,31849.0,34673.7,-0.5971,-0.8043,140.7,96.8,0.529
16.62,31897.3,34894.8,-0.4039,-0.2608,140.7,96.8,0.529
16.64,32112.9,35204.2,0.4593,0.5,140.7,96.8,0.529
16.66,32189.1,35570.2,0.7642,1.4,140.7,96.8,0.529
16.68,32361.1,35730.8,1.4526,1.7949,140.7,96.8,0.529
16.7,32379.6,35730.3,1.5268,1.7936,140.7,96.8,0.529
16.72,32209.0,35586.1,0.8437,1.439,140.7,96.8,0.529
16.74,32182.4,35446.1,0.7374,1.0948,140.7,96.8,0.529
16.76,32144.1,35201.6,0.584,0.4937,140.7,96.8,0.529
16.78,32046.7,35088.7,0.194,0.2161,140.7,96.8,0.529
16.8,32030.8,35076.4,0.1304,0.1859,140.7,96.8,0.529
16.82,32006.1,35004.4,0.0316,0.0088,140.7,96.8,0.529
16.84,31947.3,34908.4,-0.2035,-0.2273,140.7,96.8,0.529
16.86,31926.4,34810.6,-0.2872,-0.4677,140.7,96.8,0.529
16.88,31851.4,34736.4,-0.5875,-0.6501,140.7,96.8,0.529
16.9,31911.1,34612.4,-0.3484,-0.9551,140.7,96.8,0.529
16.92,31815.2,34697.7,-0.7324,-0.7454,140.7,96.8,0.529
16.94,31797.4,34657.1,-0.8037,-0.8451,140.7,96.8,0.529
16.96,31748.9,34534.6,-0.9979,-1.1463,140.7,96.8,0.529
16.98,31717.5,34538.3,-1.1233,-1.1374,140.7,96.8,0.529
17.0,31753.8,34464.9,-0.9782,-1.3177,140.7,96.8,0.529
17.02,31706.6,34444.8,-1.1671,-1.3672,140.7,96.8,0.529
17.04,31806.5,34701.4,-0.767,-0.7362,140.7,96.8,0.529
17.06,32003.1,35041.0,0.0197,0.0987,140.7,96.8,0.529
17.08,32268.5,35434.8,1.0819,1.067,140.7,96.8,0.529
17.1,32362.9,35657.1,1.4598,1.6137,140.7,96.8,0.529
17.12,32408.5,35809.9,1.6424,1.9895,140.7,96.8,0.529
17.14,32258.4,35733.1,1.0417,1.8006,140.7,96.8,0.529
17.16,32322.8,35501.0,1.2992,1.2299,140.7,96.8,0.529
17.18,32054.6,35258.6,0.2257,0.6337,140.7,96.8,0.529
17.2,32055.0,35177.0,0.2272,0.4331,140.7,96.8,0.529
17.22,32004.7,35098.5,0.0261,0.2401,140.7,96.8,0.529
17.24,32020.8,35109.9,0.0905,0.2682,140.7,96.8,0.529
17.26,31984.2,34984.6,-0.0561,-0.0398,140.7,96.8,0.529
17.28,31918.8,34801.9,-0.3176,-0.4892,140.7,96.8,0.529
17.3,31928.6,34754.3,-0.2784,-0.6061,140.7,96.8,0.529
17.32,31872.5,34743.7,-0.5031,-0.6322,140.7,96.8,0.529
17.34,31790.0,34658.1,-0.8333,-0.8427,140.7,96.8,0.529
17.36,31851.9,34627.4,-0.5853,-0.9183,140.7,96.8,0.529
17.38,31799.7,34654.2,-0.7944,-0.8522,140.7,96.8,0.529
17.4,31737.4,34585.6,-1.0438,-1.0211,140.7,96.8,0.529
17.42,31755.3,34526.5,-0.9723,-1.1663,140.7,96.8,0.529
17.44,31830.3,34453.4,-0.6721,-1.346,140.7,96.8,0.529
17.46,31817.8,34734.1,-0.7221,-0.6559,140.7,96.8,0.529
17.48,31975.8,34975.2,-0.0894,-0.0631,140.7,96.8,0.529
17.5,32158.3,35404.7,0.6407,0.9931,140.7,96.8,0.529
17.52,32348.3,35644.4,1.4013,1.5826,140.7,96.8,0.529
17.54,32376.5,35716.2,1.5144,1.759,140.7,96.8,0.529
17.56,32333.0,35747.3,1.3402,1.8355,140.7,96.8,0.529
17.58,32184.2,35583.4,0.7443,1.4324,140.7,96.8,0.529
17.6,32129.4,35327.4,0.525,0.8029,140.7,96.8,0.529
17.62,32080.3,35093.8,0.3285,0.2286,140.7,96.8,0.529
17.64,32050.7,35080.4,0.2103,0.1956,140.7,96.8,0.529
17.66,31994.3,35073.8,-0.0156,0.1795,140.7,96.8,0.529
17.68,31998.2,34920.2,0.0001,-0.1983,140.7,96.8,0.529
17.7,31872.0,34885.7,-0.5052,-0.2831,140.7,96.8,0.529
17.72,31844.0,34797.4,-0.6169,-0.5002,140.7,96.8,0.529
17.74,31855.3,34693.8,-0.572,-0.755,140.7,96.8,0.529
17.76,31808.8,34634.2,-0.7581,-0.9014,140.7,96.8,0.529
17.78,31846.0,34672.2,-0.6091,-0.8081,140.7,96.8,0.529
17.8,31849.1,34618.2,-0.5968,-0.9408,140.7,96.8,0.529
17.82,31726.5,34615.9,-1.0873,-0.9465,140.7,96.8,0.529
17.84,31757.6,34480.0,-0.9629,-1.2806,140.7,96.8,0.529
17.86,31709.5,34471.8,-1.1553,-1.3007,140.7,96.8,0.529
17.88,31709.2,34602.7,-1.1565,-0.9788,140.7,96.8,0.529
17.9,31846.3,34910.9,-0.6078,-0.2212,140.7,96.8,0.529
17.92,32096.0,35264.3,0.3916,0.6478,140.7,96.8,0.529
17.94,32266.9,35542.4,1.0755,1.3318,140.7,96.8,0.529
17.96,32335.1,35723.0,1.3486,1.7758,140.7,96.8,0.529
17.98,32322.5,35789.7,1.298,1.9397,140.7,96.8,0.529
18.0,32299.9,35605.3,1.2075,1.4863,140.7,96.8,0.529
18.02,32185.4,35328.1,0.7493,0.8048,140.7,96.8,0.529
18.04,32144.6,35267.5,0.586,0.6557,140.7,96.8,0.529
18.06,32063.9,35239.5,0.2632,0.5869,140.7,96.8,0.529
18.08,31971.3,35054.6,-0.1074,0.1323,140.7,96.8,0.529
18.1,31901.2,35029.3,-0.388,0.0701,140.7,96.8,0.529
18.12,31959.2,34941.8,-0.1561,-0.1451,140.7,96.8,0.529
18.14,31877.8,34777.3,-0.4818,-0.5497,140.7,96.8,0.529
18.16,31950.5,34678.5,-0.1907,-0.7926,140.7,96.8,0.529
18.18,31810.6,34664.7,-0.7507,-0.8264,140.7,96.8,0.529
18.2,31851.2,34711.5,-0.5882,-0.7115,140.7,96.8,0.529
18.22,31815.9,34596.1,-0.7294,-0.9952,140.7,96.8,0.529
18.24,31877.8,34525.0,-0.4816,-1.1699,140.7,96.8,0.529
18.26,31701.0,34464.7,-1.1896,-1.3182,140.7,96.8,0.529
18.28,31735.7,34503.4,-1.0505,-1.2232,140.7,96.8,0.529
18.3,31783.1,34523.3,-0.8607,-1.1743,140.7,96.8,0.529
18.32,31803.2,34718.0,-0.7803,-0.6954,140.7,96.8,0.529
18.34,32104.2,35117.6,0.4243,0.2871,140.7,96.8,0.529
18.36,32252.7,35477.2,1.0185,1.1714,140.7,96.8,0.529
18.38,32343.2,35685.5,1.3807,1.6836,140.7,96.8,0.529
18.4,32366.9,35729.5,1.4759,1.7918,140.7,96.8,0.529
18.42,32262.7,35583.5,1.0589,1.4326,140.7,96.8,0.529
18.44,32164.8,35495.3,0.6667,1.2158,140.7,96.8,0.529
18.46,32202.1,35167.3,0.8161,0.4094,140.7,96.8,0.529
18.48,32120.4,35142.8,0.4892,0.349,140.7,96.8,0.529
18.5,32120.2,35001.1,0.4885,0.0007,140.7,96.8,0.529
18.52,32101.0,35136.7,0.4115,0.3342,140.7,96.8,0.529
18.54,31970.0,34900.2,-0.1128,-0.2475,140.7,96.8,0.529
18.56,31918.5,34848.4,-0.3189,-0.3747,140.7,96.8,0.529
18.58,31852.5,34675.9,-0.5831,-0.799,140.7,96.8,0.529
18.6,31881.2,34724.3,-0.4682,-0.6798,140.7,96.8,0.529
18.62,31895.0,34626.9,-0.4128,-0.9193,140.7,96.8,0.529
18.64,31869.9,34695.9,-0.5135,-0.7497,140.7,96.8,0.529
18.66,31820.6,34601.3,-0.7109,-0.9824,140.7,96.8,0.529
18.68,31726.3,34547.7,-1.088,-1.1142,140.7,96.8,0.529
18.7,31734.1,34403.4,-1.0571,-1.469,140.7,96.8,0.529
18.72,31762.3,34519.8,-0.9439,-1.1828,140.7,96.8,0.529
18.74,31917.7,34710.2,-0.3219,-0.7147,140.7,96.8,0.529
18.76,31964.5,35024.8,-0.1346,0.0589,140.7,96.8,0.529
18.78,32178.9,35310.8,0.7232,0.7623,140.7,96.8,0.529
18.8,32264.1,35531.1,1.0643,1.3038,140.7,96.8,0.529
18.82,32406.1,35715.7,1.6326,1.7577,140.7,96.8,0.529
18.84,32300.6,35712.6,1.2103,1.7502,140.7,96.8,0.529
18.86,32175.7,35423.0,0.7106,1.0381,140.7,96.8,0.529
18.88,32161.9,35333.1,0.6552,0.8169,140.7,96.8,0.529
18.9,32067.7,35210.7,0.2782,0.516,140.7,96.8,0.529
18.92,32063.2,35154.3,0.2602,0.3775,140.7,96.8,0.529
18.94,32028.1,35026.6,0.1199,0.0633,140.7,96.8,0.529
18.96,31868.9,35015.7,-0.5175,0.0366,140.7,96.8,0.529
18.98,31915.5,34810.6,-0.3309,-0.4677,140.7,96.8,0.529
19.0,31845.5,34843.1,-0.6113,-0.3879,140.7,96.8,0.529
19.02,31866.9,34721.7,-0.5253,-0.6864,140.7,96.8,0.529
19.04,31851.5,34727.0,-0.5869,-0.6733,140.7,96.8,0.529
19.06,31852.4,34632.5,-0.5834,-0.9056,140.7,96.8,0.529
19.08,31826.0,34640.7,-0.6892,-0.8855,140.7,96.8,0.529
19.1,31763.8,34530.6,-0.9382,-1.1563,140.7,96.8,0.529
19.12,31710.0,34416.0,-1.1534,-1.438,140.7,96.8,0.529
19.14,31771.6,34428.4,-0.9068,-1.4076,140.7,96.8,0.529
19.16,31786.3,34654.5,-0.8482,-0.8517,140.7,96.8,0.529
19.18,31907.4,34846.9,-0.3634,-0.3786,140.7,96.8,0.529
19.2,32143.2,35217.4,0.5803,0.5326,140.7,96.8,0.529
19.22,32347.0,35598.4,1.3963,1.4693,140.7,96.8,0.529
19.24,32347.3,35657.9,1.3975,1.6156,140.7,96.8,0.529
19.26,32466.5,35717.0,1.8743,1.761,140.7,96.8,0.529
19.28,32255.9,35555.2,1.0313,1.3632,140.7,96.8,0.529
19.3,32204.9,35391.0,0.8275,0.9595,140.7,96.8,0.529
19.32,32148.1,35288.9,0.6,0.7082,140.7,96.8,0.529
19.34,32124.2,35082.1,0.5046,0.1999,140.7,96.8,0.529
19.36,32062.4,35053.5,0.2572,0.1294,140.7,96.8,0.529
19.38,32014.8,35008.1,0.0665,0.0178,140.7,96.8,0.529
19.4,31994.8,34910.2,-0.0134,-0.2229,140.7,96.8,0.529
19.42,31822.3,34895.4,-0.7039,-0.2593,140.7,96.8,0.529
19.44,31892.2,34738.3,-0.4243,-0.6456,140.7,96.8,0.529
19.46,31993.6,34655.4,-0.0184,-0.8495,140.7,96.8,0.529
19.48,31890.2,34685.2,-0.432,-0.7761,140.7,96.8,0.529
19.5,31814.0,34616.3,-0.7371,-0.9454,140.7,96.8,0.529
19.52,31804.6,34603.0,-0.7749,-0.9782,140.7,96.8,0.529
19.54,31712.5,34447.9,-1.1434,-1.3596,140.7,96.8,0.529
19.56,31780.2,34461.8,-0.8725,-1.3255,140.7,96.8,0.529
19.58,31784.4,34492.3,-0.8557,-1.2504,140.7,96.8,0.529
19.6,31993.2,34693.7,-0.0201,-0.7551,140.7,96.8,0.529
19.62,32021.1,35122.6,0.0918,0.2995,140.7,96.8,0.529
19.64,32254.0,35467.6,1.024,1.1478,140.7,96.8,0.529
19.66,32309.3,35647.5,1.2452,1.5902,140.7,96.8,0.529
19.68,32335.2,35782.1,1.3489,1.9211,140.7,96.8,0.529
19.7,32300.7,35664.8,1.2109,1.6327,140.7,96.8,0.529
19.72,32146.7,35452.6,0.5945,1.1108,140.7,96.8,0.529
19.74,32093.0,35244.9,0.3795,0.6003,140.7,96.8,0.529
19.76,32121.9,35098.8,0.4951,0.241,140.7,96.8,0.529
19.78,32049.4,35174.3,0.2049,0.4265,140.7,96.8,0.529
19.8,32025.9,34983.6,0.1109,-0.0424,140.7,96.8,0.529
19.82,31908.4,34961.9,-0.3592,-0.0957,140.7,96.8,0.529
19.84,31928.8,34845.5,-0.2779,-0.3819,140.7,96.8,0.529
19.86,31884.3,34730.6,-0.4558,-0.6644,140.7,96.8,0.529
19.88,31782.3,34692.1,-0.8639,-0.7592,140.7,96.8,0.529
19.9,31853.2,34588.4,-0.5803,-1.0141,140.7,96.8,0.529
19.92,31848.9,34624.3,-0.5973,-0.9257,140.7,96.8,0.529
19.94,31792.5,34562.1,-0.823,-1.0788,140.7,96.8,0.529
19.96,31802.9,34502.8,-0.7817,-1.2246,140.7,96.8,0.529
19.98,31774.2,34432.6,-0.8965,-1.3972,140.7,96.8,0.529
20.0,31710.4,34573.9,-1.152,-1.0497,140.7,96.8,0.529
20.02,31864.7,34712.8,-0.5341,-0.7081,140.7,96.8,0.529
20.04,32009.5,35035.0,0.0452,0.0842,140.7,96.8,0.529
20.06,32171.3,35186.5,0.6931,0.4566,140.7,96.8,0.529
20.08,32327.2,35623.1,1.317,1.5301,140.7,96.8,0.529
20.1,32365.6,35751.0,1.4706,1.8445,140.7,96.8,0.529
20.12,32243.1,35745.3,0.9803,1.8305,140.7,96.8,0.529
20.14,32237.0,35503.2,0.9559,1.2354,140.7,96.8,0.529
20.16,32091.2,35288.3,0.3724,0.7069,140.7,96.8,0.529
20.18,32103.7,35135.2,0.4224,0.3305,140.7,96.8,0.529
20.2,32091.1,35156.7,0.372,0.3832,140.7,96.8,0.529
20.22,32032.1,35065.3,0.1357,0.1585,140.7,96.8,0.529
20.24,31970.3,34959.7,-0.1115,-0.1012,140.7,96.8,0.529
20.26,31939.2,34936.4,-0.236,-0.1584,140.7,96.8,0.529
20.28,31876.3,34753.7,-0.488,-0.6076,140.7,96.8,0.529
20.3,31868.9,34803.1,-0.5176,-0.4863,140.7,96.8,0.529
20.32,31911.4,34663.9,-0.3475,-0.8285,140.7,96.8,0.529
20.34,31758.5,34639.5,-0.9591,-0.8884,140.7,96.8,0.529
20.36,31794.5,34633.6,-0.8151,-0.9029,140.7,96.8,0.529
20.38,31764.3,34511.8,-0.9363,-1.2025,140.7,96.8,0.529
20.4,31729.1,34529.6,-1.0771,-1.1586,140.7,96.8,0.529
20.42,31760.8,34425.3,-0.9499,-1.4152,140.7,96.8,0.529
20.44,31734.5,34616.5,-1.0554,-0.9449,140.7,96.8,0.529
20.46,31900.2,34769.7,-0.3921,-0.5683,140.7,96.8,0.529
20.48,32176.7,35256.8,0.7146,0.6293,140.7,96.8,0.529
20.5,32251.7,35566.0,1.0147,1.3897,140.7,96.8,0.529
20.52,32285.7,35675.8,1.1507,1.6598,140.7,96.8,0.529
20.54,32366.2,35730.0,1.473,1.793,140.7,96.8,0.529
20.56,32312.7,35601.4,1.259,1.4768,140.7,96.8,0.529
20.58,32120.7,35370.8,0.4902,0.9096,140.7,96.8,0.529
20.6,32075.9,35270.4,0.311,0.6628,140.7,96.8,0.529
20.62,31995.4,35114.4,-0.0112,0.2794,140.7,96.8,0.529
20.64,32073.7,35076.7,0.3023,0.1866,140.7,96.8,0.529
20.66,32034.3,35034.5,0.1445,0.0829,140.7,96.8,0.529
20.68,31894.4,34955.4,-0.4154,-0.1117,140.7,96.8,0.529
20.7,31874.8,35011.4,-0.494,0.0261,140.7,96.8,0.529
20.72,31826.9,34675.5,-0.6853,-0.7998,140.7,96.8,0.529
20.74,31864.1,34674.7,-0.5366,-0.802,140.7,96.8,0.529
20.76,31832.2,34747.7,-0.6645,-0.6223,140.7,96.8,0.529
20.78,31837.5,34572.3,-0.6432,-1.0537,140.7,96.8,0.529
20.8,31743.4,34596.5,-1.0199,-0.9943,140.7,96.8,0.529
20.82,31772.8,34541.1,-0.902,-1.1304,140.7,96.8,0.529
20.84,31744.4,34332.8,-1.0156,-1.6426,140.7,96.8,0.529
20.86,31779.8,34607.4,-0.8742,-0.9673,140.7,96.8,0.529
20.88,31806.6,34777.7,-0.7668,-0.5486,140.7,96.8,0.529
20.9,31961.2,35146.3,-0.1479,0.3577,140.7,96.8,0.529
20.92,32231.2,35538.6,0.9327,1.3222,140.7,96.8,0.529
20.94,32419.1,35689.5,1.6847,1.6934,140.7,96.8,0.529
20.96,32357.7,35865.9,1.4389,2.127,140.7,96.8,0.529
20.98,32308.2,35649.1,1.2407,1.5939,140.7,96.8,0.529
21.0,32218.0,35491.3,0.8799,1.206,140.7,96.8,0.529
21.02,32110.3,35271.8,0.4489,0.6664,140.7,96.8,0.529
21.04,32160.9,35173.3,0.6513,0.4241,140.7,96.8,0.529
21.06,31995.4,35076.8,-0.0109,0.1867,140.7,96.8,0.529
21.08,32105.2,35047.6,0.4284,0.1149,140.7,96.8,0.529
21.1,31928.3,34927.0,-0.2799,-0.1816,140.7,96.8,0.529
21.12,31924.5,34779.7,-0.2948,-0.5437,140.7,96.8,0.529
21.14,31862.0,34751.0,-0.545,-0.6142,140.7,96.8,0.529
21.16,31847.0,34742.4,-0.6051,-0.6353,140.7,96.8,0.529
21.18,31897.0,34584.1,-0.4048,-1.0247,140.7,96.8,0.529
21.2,31949.6,34714.3,-0.1945,-0.7046,140.7,96.8,0.529
21.22,31629.7,34657.7,-1.4748,-0.8436,140.7,96.8,0.529
21.24,31802.2,34536.3,-0.7846,-1.1423,140.7,96.8,0.529
21.26,31758.1,34364.7,-0.9609,-1.5641,140.7,96.8,0.529
21.28,31666.8,34542.2,-1.3263,-1.1276,140.7,96.8,0.529
21.3,31891.0,34629.8,-0.429,-0.9122,140.7,96.8,0.529
21.32,32000.4,35044.2,0.009,0.1067,140.7,96.8,0.529
21.34,32099.5,35268.3,0.4056,0.6577,140.7,96.8,0.529
21.36,32270.4,35716.4,1.0894,1.7594,140.7,96.8,0.529
21.38,32347.8,35717.6,1.3994,1.7625,140.7,96.8,0.529
21.4,32348.8,35733.2,1.4031,1.8008,140.7,96.8,0.529
21.42,32178.1,35504.5,0.7202,1.2385,140.7,96.8,0.529
21.44,32117.4,35283.3,0.4771,0.6946,140.7,96.8,0.529
21.46,32064.4,35217.0,0.2651,0.5315,140.7,96.8,0.529
21.48,32080.5,35173.2,0.3294,0.424,140.7,96.8,0.529
21.5,32075.5,35085.3,0.3096,0.2076,140.7,96.8,0.529
21.52,32055.2,35031.8,0.2281,0.0761,140.7,96.8,0.529
21.54,31852.2,34903.0,-0.5842,-0.2405,140.7,96.8,0.529
21.56,32000.6,34740.8,0.0096,-0.6393,140.7,96.8,0.529
21.58,31907.2,34667.3,-0.3643,-0.8202,140.7,96.8,0.529
21.6,31922.0,34661.2,-0.3051,-0.8352,140.7,96.8,0.529
21.62,31851.3,34660.0,-0.5877,-0.8381,140.7,96.8,0.529
21.64,31796.6,34617.6,-0.807,-0.9422,140.7,96.8,0.529
21.66,31734.6,34531.0,-1.055,-1.1552,140.7,96.8,0.529
21.68,31710.2,34453.3,-1.1528,-1.3463,140.7,96.8,0.529
21.7,31760.4,34482.0,-0.9516,-1.2756,140.7,96.8,0.529
21.72,31798.2,34559.9,-0.8003,-1.0843,140.7,96.8,0.529
21.74,31985.3,34816.3,-0.0514,-0.4536,140.7,96.8,0.529
21.76,32096.8,35258.5,0.3948,0.6337,140.7,96.8,0.529
21.78,32269.7,35528.9,1.0867,1.2984,140.7,96.8,0.529
21.8,32314.6,35730.7,1.2665,1.7947,140.7,96.8,0.529
21.82,32380.0,35798.4,1.5281,1.9612,140.7,96.8,0.529
21.84,32266.7,35626.8,1.0748,1.5393,140.7,96.8,0.529
21.86,32195.3,35390.4,0.789,0.9579,140.7,96.8,0.529
21.88,32058.4,35240.9,0.241,0.5904,140.7,96.8,0.529
21.9,32031.0,35154.3,0.1314,0.3773,140.7,96.8,0.529
21.92,31992.0,35038.1,-0.0246,0.0916,140.7,96.8,0.529
21.94,32047.8,34972.4,0.1987,-0.0698,140.7,96.8,0.529
21.96,31994.1,35030.8,-0.0164,0.0738,140.7,96.8,0.529
21.98,31856.9,34798.9,-0.5654,-0.4965,140.7,96.8,0.529
22.0,31787.2,34705.8,-0.8444,-0.7255,140.7,96.8,0.529
22.02,31776.1,34628.4,-0.889,-0.9158,140.7,96.8,0.529
22.04,31878.6,34682.6,-0.4788,-0.7825,140.7,96.8,0.529
22.06,31797.4,34675.6,-0.8037,-0.7996,140.7,96.8,0.529
22.08,31793.5,34657.7,-0.819,-0.8437,140.7,96.8,0.529
22.1,31741.3,34439.0,-1.0282,-1.3815,140.7,96.8,0.529
22.12,31749.5,34401.3,-0.9955,-1.4742,140.7,96.8,0.529
22.14,31786.7,34606.2,-0.8465,-0.9704,140.7,96.8,0.529
22.16,31872.3,34815.1,-0.5039,-0.4566,140.7,96.8,0.529
22.18,32085.9,35150.5,0.3512,0.368,140.7,96.8,0.529
22.2,32230.3,35433.5,0.9288,1.0638,140.7,96.8,0.529
22.22,32343.7,35717.7,1.3831,1.7627,140.7,96.8,0.529
22.24,32305.9,35786.9,1.2315,1.9329,140.7,96.8,0.529
22.26,32275.6,35668.9,1.1102,1.6428,140.7,96.8,0.529
22.28,32227.7,35452.1,0.9187,1.1097,140.7,96.8,0.529
22.3,32101.0,35276.5,0.4116,0.678,140.7,96.8,0.529
22.32,32078.5,35215.7,0.3215,0.5283,140.7,96.8,0.529
22.34,32070.6,35131.7,0.29,0.3218,140.7,96.8,0.529
22.36,32088.5,35075.6,0.3614,0.1838,140.7,96.8,0.529
22.38,32031.4,34919.9,0.1329,-0.1989,140.7,96.8,0.529
22.4,31821.4,34932.7,-0.7075,-0.1675,140.7,96.8,0.529
22.42,31856.4,34758.6,-0.5675,-0.5955,140.7,96.8,0.529
22.44,31820.4,34682.3,-0.7117,-0.7833,140.7,96.8,0.529
22.46,31863.0,34640.9,-0.5409,-0.885,140.7,96.8,0.529
22.48,31831.9,34581.7,-0.6656,-1.0305,140.7,96.8,0.529
22.5,31852.3,34560.1,-0.5839,-1.0838,140.7,96.8,0.529
22.52,31843.8,34526.0,-0.6179,-1.1675,140.7,96.8,0.529
22.54,31678.3,34430.7,-1.2805,-1.4019,140.7,96.8,0.529
22.56,31815.4,34528.7,-0.7318,-1.1609,140.7,96.8,0.529
22.58,31811.6,34716.5,-0.7467,-0.699,140.7,96.8,0.529
22.6,32014.6,35043.2,0.0655,0.1043,140.7,96.8,0.529
22.62,32156.3,35395.9,0.6328,0.9714,140.7,96.8,0.529
22.64,32214.9,35689.8,0.8675,1.694,140.7,96.8,0.529
22.66,32314.6,35719.5,1.2663,1.7672,140.7,96.8,0.529
22.68,32336.3,35704.6,1.3533,1.7305,140.7,96.8,0.529
22.7,32246.5,35540.1,0.9937,1.326,140.7,96.8,0.529
22.72,32200.2,35279.9,0.8085,0.6862,140.7,96.8,0.529
22.74,32077.8,35240.7,0.3188,0.5899,140.7,96.8,0.529
22.76,32136.6,35042.0,0.554,0.1013,140.7,96.8,0.529
22.78,32036.2,35064.9,0.1521,0.1575,140.7,96.8,0.529
22.8,31992.3,35053.3,-0.0235,0.1289,140.7,96.8,0.529
22.82,31983.7,34961.9,-0.058,-0.0957,140.7,96.8,0.529
22.84,31838.9,34720.7,-0.6376,-0.6888,140.7,96.8,0.529
22.86,31912.2,34816.7,-0.344,-0.4526,140.7,96.8,0.529
22.88,31851.1,34661.7,-0.5889,-0.8338,140.7,96.8,0.529
22.9,31870.1,34653.7,-0.5125,-0.8535,140.7,96.8,0.529
22.92,31822.9,34648.1,-0.7014,-0.8674,140.7,96.8,0.529
22.94,31803.1,34600.9,-0.7809,-0.9833,140.7,96.8,0.529
22.96,31724.4,34408.3,-1.0957,-1.4569,140.7,96.8,0.529
22.98,31798.5,34503.4,-0.7994,-1.223,140.7,96.8,0.529
23.0,31800.6,34762.0,-0.7907,-0.5872,140.7,96.8,0.529
23.02,31978.7,34916.2,-0.078,-0.2081,140.7,96.8,0.529
23.04,32055.6,35193.9,0.2297,0.4748,140.7,96.8,0.529
23.06,32334.0,35540.4,1.3441,1.3268,140.7,96.8,0.529
23.08,32367.8,35770.4,1.4795,1.8923,140.7,96.8,0.529
23.1,32231.4,35777.0,0.9336,1.9085,140.7,96.8,0.529
23.12,32303.1,35598.8,1.2203,1.4704,140.7,96.8,0.529
23.14,32183.6,35400.1,0.7421,0.9818,140.7,96.8,0.529
23.16,32092.8,35186.5,0.3788,0.4565,140.7,96.8,0.529
23.18,32130.3,35248.1,0.5288,0.6081,140.7,96.8,0.529
23.2,32065.7,35133.8,0.2703,0.327,140.7,96.8,0.529
23.22,32040.6,35072.9,0.17,0.1772,140.7,96.8,0.529
23.24,32000.3,34969.6,0.0084,-0.0767,140.7,96.8,0.529
23.26,31935.0,34874.3,-0.253,-0.3111,140.7,96.8,0.529
23.28,31839.3,34659.3,-0.6358,-0.8398,140.7,96.8,0.529
23.3,31887.0,34715.0,-0.445,-0.7029,140.7,96.8,0.529
23.32,31830.1,34690.5,-0.6726,-0.7631,140.7,96.8,0.529
23.34,31753.1,34673.7,-0.9809,-0.8044,140.7,96.8,0.529
23.36,31723.8,34536.8,-1.0984,-1.1409,140.7,96.8,0.529
23.38,31748.3,34453.7,-1.0,-1.3452,140.7,96.8,0.529
23.4,31705.3,34470.3,-1.1723,-1.3046,140.7,96.8,0.529
23.42,31864.2,34620.4,-0.5362,-0.9355,140.7,96.8,0.529
23.44,31881.9,34779.9,-0.4655,-0.5432,140.7,96.8,0.529
23.46,32037.7,35091.3,0.1581,0.2225,140.7,96.8,0.529
23.48,32191.6,35357.4,0.7741,0.8767,140.7,96.8,0.529
23.5,32374.3,35764.7,1.5053,1.8782,140.7,96.8,0.529
23.52,32267.9,35801.3,1.0796,1.9682,140.7,96.8,0.529
23.54,32320.8,35615.3,1.2912,1.5108,140.7,96.8,0.529
23.56,32142.1,35449.3,0.5759,1.1028,140.7,96.8,0.529
23.58,32137.8,35333.0,0.559,0.8167,140.7,96.8,0.529
23.6,32096.7,35173.2,0.3941,0.4239,140.7,96.8,0.529
23.62,32032.5,35010.8,0.1372,0.0245,140.7,96.8,0.529
23.64,31977.4,34987.6,-0.083,-0.0325,140.7,96.8,0.529
23.66,32038.2,34921.7,0.1603,-0.1946,140.7,96.8,0.529
23.68,31926.4,34745.7,-0.2874,-0.6273,140.7,96.8,0.529
23.7,31841.4,34766.7,-0.6276,-0.5757,140.7,96.8,0.529
23.72,31875.5,34663.2,-0.4909,-0.8301,140.7,96.8,0.529
23.74,31818.5,34641.3,-0.7193,-0.884,140.7,96.8,0.529
23.76,31868.6,34682.8,-0.5187,-0.782,140.7,96.8,0.529
23.78,31875.6,34552.5,-0.4905,-1.1025,140.7,96.8,0.529
23.8,31721.6,34581.7,-1.1069,-1.0305,140.7,96.8,0.529
23.82,31871.6,34465.5,-0.5068,-1.3163,140.7,96.8,0.529
23.84,31732.1,34481.3,-1.0649,-1.2775,140.7,96.8,0.529
23.86,31887.3,34617.1,-0.4438,-0.9436,140.7,96.8,0.529
23.88,32029.1,35056.1,0.1237,0.1358,140.7,96.8,0.529
23.9,32182.7,35352.9,0.7386,0.8657,140.7,96.8,0.529
23.92,32288.4,35615.0,1.1615,1.5101,140.7,96.8,0.529
23.94,32337.2,35761.9,1.357,1.8714,140.7,96.8,0.529
23.96,32347.5,35779.0,1.3982,1.9134,140.7,96.8,0.529
23.98,32260.4,35410.5,1.0495,1.0073,140.7,96.8,0.529
24.0,32217.7,35347.2,0.8784,0.8518,140.7,96.8,0.529
24.02,32025.0,35169.1,0.1074,0.4137,140.7,96.8,0.529
24.04,32164.5,35047.1,0.6658,0.1139,140.7,96.8,0.529
24.06,32019.5,35040.3,0.0855,0.097,140.7,96.8,0.529
24.08,31894.1,35083.3,-0.4167,0.2028,140.7,96.8,0.529
24.1,31952.3,34861.5,-0.1835,-0.3425,140.7,96.8,0.529
24.12,31899.1,34834.0,-0.3968,-0.4103,140.7,96.8,0.529
24.14,31853.9,34699.2,-0.5775,-0.7417,140.7,96.8,0.529
24.16,31875.0,34735.6,-0.4931,-0.6521,140.7,96.8,0.529
24.18,31799.4,34626.0,-0.7958,-0.9217,140.7,96.8,0.529
24.2,31807.5,34646.5,-0.7631,-0.8713,140.7,96.8,0.529
24.22,31791.7,34564.7,-0.8265,-1.0724,140.7,96.8,0.529
24.24,31699.4,34430.6,-1.1957,-1.4021,140.7,96.8,0.529
24.26,31708.6,34470.6,-1.159,-1.3038,140.7,96.8,0.529
24.28,31751.4,34556.6,-0.9876,-1.0923,140.7,96.8,0.529
24.3,31968.2,34994.8,-0.12,-0.0149,140.7,96.8,0.529
24.32,32103.3,35197.8,0.4208,0.4843,140.7,96.8,0.529
24.34,32300.8,35571.1,1.2111,1.4023,140.7,96.8,0.529
24.36,32377.9,35678.1,1.5199,1.6654,140.7,96.8,0.529
24.38,32350.9,35768.6,1.4116,1.8877,140.7,96.8,0.529
24.4,32256.4,35548.7,1.0336,1.3473,140.7,96.8,0.529
24.42,32127.4,35370.1,0.5171,0.908,140.7,96.8,0.529
24.44,32059.8,35242.4,0.2467,0.594,140.7,96.8,0.529
24.46,32103.3,35078.9,0.4209,0.192,140.7,96.8,0.529
24.48,32035.9,35098.8,0.1508,0.241,140.7,96.8,0.529
24.5,31994.8,35020.9,-0.0133,0.0493,140.7,96.8,0.529
24.52,31895.0,34902.3,-0.413,-0.2422,140.7,96.8,0.529
24.54,31906.1,34863.0,-0.3684,-0.3389,140.7,96.8,0.529
24.56,31843.5,34688.2,-0.6192,-0.7688,140.7,96.8,0.529
24.58,31920.6,34668.9,-0.3103,-0.8162,140.7,96.8,0.529
24.6,31926.1,34686.4,-0.2886,-0.7732,140.7,96.8,0.529
24.62,31779.2,34681.0,-0.8764,-0.7864,140.7,96.8,0.529
24.64,31802.9,34585.1,-0.7814,-1.0222,140.7,96.8,0.529
24.66,31820.7,34484.6,-0.7103,-1.2694,140.7,96.8,0.529
24.68,31756.3,34426.7,-0.9682,-1.4117,140.7,96.8,0.529
24.7,31804.9,34598.2,-0.7736,-0.9901,140.7,96.8,0.529
24.72,31850.0,34748.0,-0.5931,-0.6218,140.7,96.8,0.529
24.74,32040.4,35115.5,0.1692,0.282,140.7,96.8,0.529
24.76,32228.3,35394.7,0.9209,0.9686,140.7,96.8,0.529
24.78,32388.9,35659.1,1.5637,1.6187,140.7,96.8,0.529
24.8,32372.6,35790.2,1.4985,1.941,140.7,96.8,0.529
24.82,32334.5,35654.2,1.346,1.6065,140.7,96.8,0.529
24.84,32257.2,35424.8,1.0365,1.0424,140.7,96.8,0.529
24.86,32176.5,35278.7,0.7136,0.6832,140.7,96.8,0.529
24.88,32095.9,35098.4,0.3912,0.2399,140.7,96.8,0.529
24.9,32036.3,35124.8,0.1526,0.3048,140.7,96.8,0.529
24.92,32058.0,35045.1,0.2396,0.1088,140.7,96.8,0.529
24.94,31941.4,34977.7,-0.2271,-0.0568,140.7,96.8,0.529
24.96,31918.2,34822.2,-0.3201,-0.4392,140.7,96.8,0.529
24.98,31848.0,34761.2,-0.6012,-0.5892,140.7,96.8,0.529
25.0,31867.7,34634.1,-0.5223,-0.9017,140.7,96.8,0.529
25.02,31804.6,34636.8,-0.7746,-0.8952,140.7,96.8,0.529
25.04,31821.1,34624.1,-0.7086,-0.9262,140.7,96.8,0.529
25.06,31857.4,34668.8,-0.5635,-0.8165,140.7,96.8,0.529
25.08,31764.4,34449.3,-0.9357,-1.3561,140.7,96.8,0.529
25.1,31667.5,34458.4,-1.3235,-1.3338,140.7,96.8,0.529
25.12,31786.0,34526.7,-0.8493,-1.1659,140.7,96.8,0.529
25.14,31849.6,34659.1,-0.5947,-0.8403,140.7,96.8,0.529
25.16,31994.1,35041.0,-0.0163,0.0988,140.7,96.8,0.529
25.18,32237.3,35342.4,0.9571,0.84,140.7,96.8,0.529
25.2,32270.0,35605.5,1.088,1.4869,140.7,96.8,0.529
25.22,32355.3,35666.7,1.4292,1.6373,140.7,96.8,0.529
25.24,32281.1,35681.4,1.1323,1.6735,140.7,96.8,0.529
25.26,32215.3,35428.0,0.8691,1.0503,140.7,96.8,0.529
25.28,32221.8,35359.0,0.8952,0.8808,140.7,96.8,0.529
25.3,32080.9,35192.4,0.3313,0.471,140.7,96.8,0.529
25.32,32042.5,35100.1,0.1775,0.244,140.7,96.8,0.529
25.34,32134.8,34989.8,0.5469,-0.0272,140.7,96.8,0.529
25.36,32091.3,35046.1,0.3727,0.1114,140.7,96.8,0.529
25.38,31839.2,34838.6,-0.6362,-0.3988,140.7,96.8,0.529
25.4,31890.2,34682.5,-0.4322,-0.7828,140.7,96.8,0.529
25.42,31903.2,34700.6,-0.3803,-0.7382,140.7,96.8,0.529
25.44,31876.7,34673.9,-0.4864,-0.8038,140.7,96.8,0.529
25.46,31823.1,34713.9,-0.7008,-0.7056,140.7,96.8,0.529
25.48,31810.0,34597.1,-0.753,-0.9926,140.7,96.8,0.529
25.5,31715.7,34617.7,-1.1306,-0.942,140.7,96.8,0.529
25.52,31792.1,34427.1,-0.825,-1.4106,140.7,96.8,0.529
25.54,31645.2,34412.7,-1.413,-1.446,140.7,96.8,0.529
25.56,31835.3,34559.2,-0.6518,-1.0858,140.7,96.8,0.529
25.58,31924.7,34943.4,-0.2941,-0.1411,140.7,96.8,0.529
25.6,32075.8,35303.1,0.3107,0.7433,140.7,96.8,0.529
25.62,32370.0,35649.1,1.4883,1.594,140.7,96.8,0.529
25.64,32397.3,35631.9,1.5976,1.5517,140.7,96.8,0.529
25.66,32339.8,35679.3,1.3675,1.6684,140.7,96.8,0.529
25.68,32222.3,35677.8,0.897,1.6646,140.7,96.8,0.529
25.7,32223.6,35409.3,0.9024,1.0043,140.7,96.8,0.529
25.72,32130.7,35173.3,0.5304,0.4242,140.7,96.8,0.529
25.74,32037.0,35143.2,0.1554,0.3501,140.7,96.8,0.529
25.76,32106.0,35104.6,0.4315,0.2553,140.7,96.8,0.529
25.78,31909.7,35075.4,-0.3542,0.1834,140.7,96.8,0.529
25.8,31913.0,34913.0,-0.3408,-0.2159,140.7,96.8,0.529
25.82,31808.1,34844.3,-0.7609,-0.3849,140.7,96.8,0.529
25.84,31864.6,34753.3,-0.5349,-0.6086,140.7,96.8,0.529
25.86,31764.9,34684.7,-0.9338,-0.7773,140.7,96.8,0.529
25.88,31883.0,34717.7,-0.4612,-0.6961,140.7,96.8,0.529
25.9,31753.8,34705.2,-0.9783,-0.7269,140.7,96.8,0.529
25.92,31906.2,34680.5,-0.3683,-0.7877,140.7,96.8,0.529
25.94,31762.7,34522.4,-0.9425,-1.1764,140.7,96.8,0.529
25.96,31634.8,34470.2,-1.4545,-1.3046,140.7,96.8,0.529
25.98,31742.8,34629.7,-1.0223,-0.9127,140.7,96.8,0.529
26.0,31872.7,34827.7,-0.5022,-0.4258,140.7,96.8,0.529
26.02,32077.5,35205.5,0.3176,0.5032,140.7,96.8,0.529
26.04,32184.1,35515.4,0.7439,1.2653,140.7,96.8,0.529
26.06,32314.5,35755.2,1.2662,1.8548,140.7,96.8,0.529
26.08,32385.7,35667.2,1.551,1.6385,140.7,96.8,0.529
26.1,32117.9,35558.3,0.479,1.3708,140.7,96.8,0.529
26.12,32289.8,35345.7,1.1671,0.848,140.7,96.8,0.529
26.14,32081.4,35253.4,0.333,0.621,140.7,96.8,0.529
26.16,31999.1,35106.5,0.0038,0.2598,140.7,96.8,0.529
26.18,31970.3,35012.2,-0.1116,0.0281,140.7,96.8,0.529
26.2,32033.9,35034.6,0.1429,0.0831,140.7,96.8,0.529
26.22,31986.5,35028.0,-0.0468,0.0667,140.7,96.8,0.529
26.24,31991.6,34853.1,-0.0265,-0.3633,140.7,96.8,0.529
26.26,31928.5,34695.7,-0.2788,-0.7502,140.7,96.8,0.529
26.28,31774.1,34782.0,-0.8967,-0.538,140.7,96.8,0.529
26.3,31883.5,34688.8,-0.4588,-0.7672,140.7,96.8,0.529
26.32,31725.5,34624.9,-1.0912,-0.9244,140.7,96.8,0.529
26.34,31845.2,34708.5,-0.6123,-0.7189,140.7,96.8,0.529
26.36,31739.6,34473.3,-1.0351,-1.297,140.7,96.8,0.529
26.38,31762.0,34494.6,-0.9453,-1.2447,140.7,96.8,0.529
26.4,31790.6,34527.5,-0.8308,-1.1639,140.7,96.8,0.529
26.42,31908.5,34593.5,-0.359,-1.0015,140.7,96.8,0.529
26.44,31972.7,35107.1,-0.1021,0.2612,140.7,96.8,0.529
26.46,32172.0,35382.8,0.6957,0.9392,140.7,96.8,0.529
26.48,32335.2,35684.1,1.349,1.6801,140.7,96.8,0.529
26.5,32351.6,35865.1,1.4146,2.1251,140.7,96.8,0.529
26.52,32488.4,35690.1,1.9621,1.6949,140.7,96.8,0.529
26.54,32300.6,35498.7,1.2105,1.2243,140.7,96.8,0.529
26.56,32215.2,35371.1,0.8686,0.9106,140.7,96.8,0.529
26.58,32114.3,35170.3,0.4647,0.4166,140.7,96.8,0.529
26.6,32071.0,35132.9,0.2913,0.3248,140.7,96.8,0.529
26.62,31997.5,35055.1,-0.0029,0.1333,140.7,96.8,0.529
26.64,32029.8,35073.1,0.1264,0.1777,140.7,96.8,0.529
26.66,31955.7,34918.9,-0.1702,-0.2015,140.7,96.8,0.529
26.68,31956.4,34782.6,-0.1671,-0.5366,140.7,96.8,0.529
26.7,31909.6,34675.1,-0.3546,-0.8009,140.7,96.8,0.529
26.72,31795.2,34641.2,-0.8123,-0.8842,140.7,96.8,0.529
26.74,31766.3,34575.0,-0.928,-1.047,140.7,96.8,0.529
26.76,31855.3,34686.3,-0.572,-0.7733,140.7,96.8,0.529
26.78,31759.5,34683.4,-0.9554,-0.7806,140.7,96.8,0.529
26.8,31866.3,34507.0,-0.528,-1.2143,140.7,96.8,0.529
26.82,31763.7,34489.0,-0.9386,-1.2584,140.7,96.8,0.529
26.84,31799.5,34630.9,-0.795,-0.9096,140.7,96.8,0.529
26.86,31951.7,34929.5,-0.1861,-0.1754,140.7,96.8,0.529
26.88,32119.6,35285.5,0.4858,0.7,140.7,96.8,0.529
26.9,32273.4,35608.8,1.1015,1.4949,140.7,96.8,0.529
26.92,32350.6,35681.3,1.4107,1.6731,140.7,96.8,0.529
26.94,32349.9,35803.3,1.4078,1.9731,140.7,96.8,0.529
26.96,32265.4,35631.3,1.0697,1.5502,140.7,96.8,0.529
26.98,32192.7,35377.8,0.7785,0.927,140.7,96.8,0.529
27.0,32122.6,35214.7,0.4979,0.5258,140.7,96.8,0.529
27.02,32079.8,35133.9,0.3268,0.3272,140.7,96.8,0.529
27.04,32020.2,35025.5,0.088,0.0606,140.7,96.8,0.529
27.06,31949.8,35074.6,-0.1937,0.1814,140.7,96.8,0.529
27.08,32020.7,34905.2,0.0901,-0.2351,140.7,96.8,0.529
27.1,31887.8,34797.9,-0.4417,-0.4989,140.7,96.8,0.529
27.12,31793.0,34684.6,-0.8213,-0.7775,140.7,96.8,0.529
27.14,31900.8,34726.0,-0.3896,-0.6757,140.7,96.8,0.529
27.16,31845.6,34666.2,-0.6108,-0.8228,140.7,96.8,0.529
27.18,31733.1,34587.1,-1.0608,-1.0172,140.7,96.8,0.529
27.2,31743.0,34590.3,-1.0212,-1.0093,140.7,96.8,0.529
27.22,31793.4,34534.2,-0.8197,-1.1472,140.7,96.8,0.529
27.24,31802.8,34478.9,-0.782,-1.2833,140.7,96.8,0.529
27.26,31831.2,34557.0,-0.6682,-1.0914,140.7,96.8,0.529
27.28,31929.3,34800.0,-0.2757,-0.4938,140.7,96.8,0.529
27.3,32045.6,35170.9,0.1898,0.4181,140.7,96.8,0.529
27.32,32223.5,35390.2,0.9019,0.9574,140.7,96.8,0.529
27.34,32442.1,35757.8,1.7769,1.8613,140.7,96.8,0.529
27.36,32354.9,35784.9,1.4279,1.9279,140.7,96.8,0.529
27.38,32276.6,35598.1,1.1143,1.4687,140.7,96.8,0.529
27.4,32173.6,35415.5,0.7022,1.0197,140.7,96.8,0.529
27.42,32138.9,35335.9,0.5633,0.8239,140.7,96.8,0.529
27.44,32075.9,35177.7,0.3112,0.4349,140.7,96.8,0.529
27.46,32006.1,35047.3,0.0315,0.1144,140.7,96.8,0.529
27.48,32006.2,34999.9,0.0322,-0.0022,140.7,96.8,0.529
27.5,31999.6,34940.7,0.0058,-0.1479,140.7,96.8,0.529
27.52,31886.7,34857.7,-0.4461,-0.352,140.7,96.8,0.529
27.54,31867.8,34775.5,-0.5216,-0.554,140.7,96.8,0.529
27.56,31788.4,34712.2,-0.8395,-0.7097,140.7,96.8,0.529
27.58,31762.9,34634.5,-0.9418,-0.9008,140.7,96.8,0.529
27.6,31828.6,34735.1,-0.6788,-0.6533,140.7,96.8,0.529
27.62,31829.2,34686.7,-0.6762,-0.7725,140.7,96.8,0.529
27.64,31708.2,34612.1,-1.1606,-0.9557,140.7,96.8,0.529
27.66,31664.8,34478.5,-1.3341,-1.2843,140.7,96.8,0.529
27.68,31741.3,34525.5,-1.028,-1.1688,140.7,96.8,0.529
27.7,31926.6,34640.2,-0.2866,-0.8866,140.7,96.8,0.529
27.72,32009.1,34985.7,0.0438,-0.0372,140.7,96.8,0.529
27.74,32071.6,35491.5,0.2938,1.2064,140.7,96.8,0.529
27.76,32266.1,35568.0,1.0723,1.3945,140.7,96.8,0.529
27.78,32363.9,35742.4,1.464,1.8234,140.7,96.8,0.529
27.8,32246.3,35723.2,0.9929,1.7763,140.7,96.8,0.529
27.82,32318.8,35566.1,1.2834,1.3899,140.7,96.8,0.529
27.84,32106.8,35370.2,0.4348,0.9083,140.7,96.8,0.529
27.86,32046.8,35172.3,0.1947,0.4217,140.7,96.8,0.529
27.88,32059.4,35067.4,0.2452,0.1636,140.7,96.8,0.529
27.9,32147.6,35092.0,0.5979,0.2242,140.7,96.8,0.529
27.92,31898.6,35031.8,-0.3985,0.0761,140.7,96.8,0.529
27.94,31947.0,34958.4,-0.2048,-0.1044,140.7,96.8,0.529
27.96,31869.9,34656.5,-0.5134,-0.8467,140.7,96.8,0.529
27.98,31915.2,34758.7,-0.332,-0.5953,140.7,96.8,0.529
28.0,31785.3,34631.5,-0.8522,-0.9082,140.7,96.8,0.529
28.02,31840.2,34679.9,-0.6323,-0.7891,140.7,96.8,0.529
28.04,31787.7,34676.6,-0.8423,-0.7972,140.7,96.8,0.529
28.06,31789.8,34586.0,-0.8339,-1.0199,140.7,96.8,0.529
28.08,31689.7,34504.4,-1.2348,-1.2206,140.7,96.8,0.529
28.1,31842.0,34491.4,-0.6251,-1.2525,140.7,96.8,0.529
28.12,31882.3,34653.6,-0.4638,-0.8537,140.7,96.8,0.529
28.14,32024.6,34889.7,0.1056,-0.2732,140.7,96.8,0.529
28.16,32167.9,35283.8,0.6792,0.6958,140.7,96.8,0.529
28.18,32251.1,35611.5,1.0124,1.5015,140.7,96.8,0.529
28.2,32466.1,35715.7,1.8726,1.7577,140.7,96.8,0.529
28.22,32229.4,35733.4,0.9253,1.8013,140.7,96.8,0.529
28.24,32295.3,35574.1,1.189,1.4097,140.7,96.8,0.529
28.26,32182.2,35339.2,0.7365,0.832,140.7,96.8,0.529
28.28,32119.3,35221.2,0.4849,0.542,140.7,96.8,0.529
28.3,32102.7,35139.6,0.4183,0.3412,140.7,96.8,0.529
28.32,31980.3,35031.5,-0.0715,0.0753,140.7,96.8,0.529
28.34,31999.3,35031.8,0.0045,0.0763,140.7,96.8,0.529
28.36,32100.5,34966.7,0.4095,-0.0838,140.7,96.8,0.529
28.38,31923.4,34789.3,-0.2994,-0.5202,140.7,96.8,0.529
28.4,31849.5,34785.6,-0.5953,-0.5291,140.7,96.8,0.529
28.42,32021.2,34729.7,0.092,-0.6666,140.7,96.8,0.529
28.44,31839.7,34726.6,-0.6343,-0.6743,140.7,96.8,0.529
28.46,31774.0,34594.6,-0.8971,-0.9989,140.7,96.8,0.529
28.48,31788.9,34492.7,-0.8375,-1.2494,140.7,96.8,0.529
28.5,31731.7,34479.5,-1.0666,-1.2819,140.7,96.8,0.529
28.52,31741.8,34388.1,-1.026,-1.5065,140.7,96.8,0.529
28.54,31682.7,34582.8,-1.2628,-1.0278,140.7,96.8,0.529
28.56,31894.8,34759.5,-0.4139,-0.5934,140.7,96.8,0.529
28.58,32049.9,35093.2,0.207,0.227,140.7,96.8,0.529
28.6,32285.2,35551.8,1.1487,1.3549,140.7,96.8,0.529
28.62,32394.2,35713.9,1.585,1.7533,140.7,96.8,0.529
28.64,32348.0,35756.0,1.4001,1.8569,140.7,96.8,0.529
28.66,32300.6,35583.3,1.2104,1.4323,140.7,96.8,0.529
28.68,32289.2,35531.4,1.1649,1.3047,140.7,96.8,0.529
28.7,32156.7,35252.3,0.6345,0.6185,140.7,96.8,0.529
28.72,32125.0,35293.4,0.5077,0.7193,140.7,96.8,0.529
28.74,32034.1,35170.4,0.1436,0.417,140.7,96.8,0.529
28.76,32028.1,35001.0,0.1198,0.0004,140.7,96.8,0.529
28.78,31980.8,34912.1,-0.0697,-0.2182,140.7,96.8,0.529
28.8,31876.5,34836.4,-0.4872,-0.4043,140.7,96.8,0.529
28.82,31828.8,34846.3,-0.678,-0.3799,140.7,96.8,0.529
28.84,31855.1,34696.2,-0.5728,-0.749,140.7,96.8,0.529
28.86,31909.9,34619.6,-0.3533,-0.9373,140.7,96.8,0.529
28.88,31917.1,34664.7,-0.3247,-0.8264,140.7,96.8,0.529
28.9,31809.0,34557.0,-0.7572,-1.0913,140.7,96.8,0.529
28.92,31702.9,34508.9,-1.1819,-1.2097,140.7,96.8,0.529
28.94,31774.7,34516.8,-0.8944,-1.1901,140.7,96.8,0.529
28.96,31786.6,34553.7,-0.8468,-1.0994,140.7,96.8,0.529
28.98,31930.2,34748.7,-0.2719,-0.6199,140.7,96.8,0.529
29.0,31987.5,34950.5,-0.0427,-0.1237,140.7,96.8,0.529
29.02,32191.1,35426.4,0.7721,1.0464,140.7,96.8,0.529
29.04,32231.2,35741.6,0.9328,1.8214,140.7,96.8,0.529
29.06,32381.4,35797.5,1.5339,1.9588,140.7,96.8,0.529
29.08,32372.5,35736.2,1.4982,1.8081,140.7,96.8,0.529
29.1,32253.9,35484.6,1.0235,1.1895,140.7,96.8,0.529
29.12,32111.2,35334.8,0.4524,0.8212,140.7,96.8,0.529
29.14,32108.6,35182.7,0.4419,0.4472,140.7,96.8,0.529
29.16,32028.2,35200.9,0.1202,0.4919,140.7,96.8,0.529
29.18,32054.1,35070.7,0.2237,0.1718,140.7,96.8,0.529
29.2,32026.0,35048.3,0.1112,0.1167,140.7,96.8,0.529
29.22,31845.0,34899.6,-0.613,-0.249,140.7,96.8,0.529
29.24,31919.5,34811.2,-0.3147,-0.4663,140.7,96.8,0.529
29.26,31852.0,34723.2,-0.5853,-0.6827,140.7,96.8,0.529
29.28,31844.7,34770.8,-0.6142,-0.5656,140.7,96.8,0.529
29.3,31869.7,34767.3,-0.5143,-0.5743,140.7,96.8,0.529
29.32,31836.2,34647.1,-0.6482,-0.8697,140.7,96.8,0.529
29.34,31755.5,34591.0,-0.9713,-1.0076,140.7,96.8,0.529
29.36,31753.4,34522.5,-0.9799,-1.1761,140.7,96.8,0.529
29.38,31736.7,34522.0,-1.0468,-1.1775,140.7,96.8,0.529
29.4,31814.6,34699.5,-0.7348,-0.741,140.7,96.8,0.529
29.42,31942.3,34907.8,-0.2238,-0.2286,140.7,96.8,0.529
29.44,32138.6,35245.2,0.5621,0.6008,140.7,96.8,0.529
29.46,32298.9,35594.1,1.2035,1.4587,140.7,96.8,0.529
29.48,32326.7,35770.3,1.3147,1.892,140.7,96.8,0.529
29.5,32357.0,35610.9,1.4362,1.5001,140.7,96.8,0.529
29.52,32314.1,35452.3,1.2646,1.1102,140.7,96.8,0.529
29.54,32192.4,35389.4,0.7774,0.9554,140.7,96.8,0.529
29.56,32085.2,35180.0,0.3482,0.4405,140.7,96.8,0.529
29.58,32127.9,35092.9,0.5193,0.2263,140.7,96.8,0.529
29.6,31962.5,35092.5,-0.1427,0.2255,140.7,96.8,0.529
29.62,31926.9,35022.9,-0.2854,0.0542,140.7,96.8,0.529
29.64,31998.9,34931.3,0.0029,-0.1708,140.7,96.8,0.529
29.66,31991.0,34857.7,-0.0287,-0.3519,140.7,96.8,0.529
29.68,31861.4,34780.5,-0.5473,-0.5417,140.7,96.8,0.529
29.7,31865.5,34652.6,-0.5311,-0.8562,140.7,96.8,0.529
29.72,31805.3,34609.0,-0.7721,-0.9635,140.7,96.8,0.529
29.74,31902.5,34498.5,-0.3828,-1.235,140.7,96.8,0.529
29.76,31841.4,34513.2,-0.6275,-1.1991,140.7,96.8,0.529
29.78,31688.8,34408.5,-1.2385,-1.4565,140.7,96.8,0.529
29.8,31720.9,34472.5,-1.1098,-1.299,140.7,96.8,0.529
29.82,31751.1,34463.9,-0.9891,-1.3203,140.7,96.8,0.529
29.84,31844.5,34827.4,-0.6149,-0.4264,140.7,96.8,0.529
29.86,32040.3,35187.3,0.1685,0.4586,140.7,96.8,0.529
29.88,32349.9,35477.8,1.4078,1.1728,140.7,96.8,0.529
29.9,32342.4,35671.3,1.3777,1.6486,140.7,96.8,0.529
29.92,32300.9,35719.1,1.2115,1.7663,140.7,96.8,0.529
29.94,32317.5,35643.5,1.2779,1.5803,140.7,96.8,0.529
29.96,32220.3,35427.1,0.8889,1.0483,140.7,96.8,0.529
29.98,32123.5,35184.7,0.5015,0.4522,140.7,96.8,0.529
30.0,32060.4,35081.7,0.2491,0.1988,140.7,96.8,0.529
30.02,32045.8,34994.2,0.1905,-0.0162,140.7,96.8,0.529
30.04,31967.7,35004.3,-0.1219,0.0086,140.7,96.8,0.529
30.06,31927.7,34969.7,-0.2822,-0.0766,140.7,96.8,0.529
30.08,31917.0,34918.8,-0.3248,-0.2016,140.7,96.8,0.529
30.1,31882.5,34667.4,-0.4631,-0.8198,140.7,96.8,0.529
30.12,31931.1,34754.3,-0.2685,-0.6061,140.7,96.8,0.529
30.14,31895.6,34739.8,-0.4107,-0.6419,140.7,96.8,0.529
30.16,31818.7,34670.9,-0.7184,-0.8112,140.7,96.8,0.529
30.18,31923.9,34645.5,-0.2974,-0.8736,140.7,96.8,0.529
30.2,31745.0,34510.9,-1.0132,-1.2046,140.7,96.8,0.529
30.22,31697.0,34466.1,-1.2053,-1.3147,140.7,96.8,0.529
30.24,31736.1,34567.8,-1.0488,-1.0648,140.7,96.8,0.529
30.26,31892.9,34610.0,-0.4215,-0.9611,140.7,96.8,0.529
30.28,31899.2,34920.5,-0.3963,-0.1975,140.7,96.8,0.529
30.3,32138.4,35371.0,0.5611,0.9101,140.7,96.8,0.529
30.32,32324.3,35646.9,1.3051,1.5886,140.7,96.8,0.529
30.34,32383.1,35814.5,1.5405,2.0006,140.7,96.8,0.529
30.36,32356.9,35690.5,1.4356,1.6959,140.7,96.8,0.529
30.38,32314.0,35537.4,1.264,1.3193,140.7,96.8,0.529
30.4,32185.1,35324.5,0.748,0.796,140.7,96.8,0.529
30.42,32048.2,35158.5,0.2002,0.3878,140.7,96.8,0.529
30.44,31982.9,35052.1,-0.0612,0.1262,140.7,96.8,0.529
30.46,32034.9,35151.2,0.1471,0.3697,140.7,96.8,0.529
30.48,32009.5,34998.3,0.0453,-0.0061,140.7,96.8,0.529
30.5,31913.6,34942.1,-0.3386,-0.1443,140.7,96.8,0.529
30.52,31875.0,34781.3,-0.4932,-0.5398,140.7,96.8,0.529
30.54,31854.5,34696.0,-0.5749,-0.7495,140.7,96.8,0.529
30.56,31866.6,34693.4,-0.5267,-0.7558,140.7,96.8,0.529
30.58,31816.4,34649.9,-0.7277,-0.8628,140.7,96.8,0.529
30.6,31777.9,34557.5,-0.8817,-1.09,140.7,96.8,0.529
30.62,31723.2,34511.4,-1.1007,-1.2034,140.7,96.8,0.529
30.64,31822.7,34470.9,-0.7023,-1.3031,140.7,96.8,0.529
30.66,31758.2,34438.8,-0.9606,-1.3819,140.7,96.8,0.529
30.68,31765.3,34673.6,-0.932,-0.8047,140.7,96.8,0.529
30.7,31987.2,34877.7,-0.0438,-0.3028,140.7,96.8,0.529
30.72,32165.3,35322.1,0.6689,0.7899,140.7,96.8,0.529
30.74,32332.2,35574.4,1.337,1.4105,140.7,96.8,0.529
30.76,32372.7,35706.2,1.499,1.7344,140.7,96.8,0.529
30.78,32391.5,35689.1,1.5742,1.6924,140.7,96.8,0.529
30.8,32292.5,35530.8,1.1782,1.3032,140.7,96.8,0.529
30.82,32245.8,35414.9,0.991,1.0183,140.7,96.8,0.529
30.84,32077.7,35204.7,0.3183,0.5012,140.7,96.8,0.529
30.86,32064.3,35075.1,0.2646,0.1828,140.7,96.8,0.529
30.88,32077.9,35019.7,0.3189,0.0464,140.7,96.8,0.529
30.9,32112.1,34969.6,0.4559,-0.0767,140.7,96.8,0.529
30.92,31932.1,35018.6,-0.2643,0.0436,140.7,96.8,0.529
30.94,31939.9,34859.5,-0.2332,-0.3476,140.7,96.8,0.529
30.96,31917.5,34742.0,-0.3229,-0.6364,140.7,96.8,0.529
30.98,31890.8,34648.7,-0.4299,-0.8658,140.7,96.8,0.529
31.0,31807.8,34759.5,-0.762,-0.5933,140.7,96.8,0.529
31.02,31805.4,34603.5,-0.7717,-0.9771,140.7,96.8,0.529
31.04,31908.7,34583.9,-0.3583,-1.0252,140.7,96.8,0.529
31.06,31688.0,34473.4,-1.2415,-1.2967,140.7,96.8,0.529
31.08,31696.6,34442.3,-1.2071,-1.3734,140.7,96.8,0.529
31.1,31745.3,34579.7,-1.0121,-1.0356,140.7,96.8,0.529
31.12,31984.8,34670.1,-0.0536,-0.8133,140.7,96.8,0.529
31.14,32118.3,35196.7,0.4807,0.4816,140.7,96.8,0.529
31.16,32210.7,35631.7,0.8506,1.5512,140.7,96.8,0.529
31.18,32378.4,35681.8,1.5218,1.6743,140.7,96.8,0.529
31.2,32328.1,35740.9,1.3204,1.8198,140.7,96.8,0.529
31.22,32218.6,35707.7,0.882,1.7382,140.7,96.8,0.529
31.24,32242.4,35508.5,0.9777,1.2484,140.7,96.8,0.529
31.26,32175.0,35174.4,0.7078,0.4269,140.7,96.8,0.529
31.28,32091.4,35065.1,0.3733,0.158,140.7,96.8,0.529
31.3,32054.3,35153.0,0.2245,0.3742,140.7,96.8,0.529
31.32,31910.4,34997.0,-0.3514,-0.0094,140.7,96.8,0.529
31.34,32024.9,35014.2,0.1068,0.033,140.7,96.8,0.529
31.36,31978.3,34829.3,-0.0795,-0.4217,140.7,96.8,0.529
31.38,31813.8,34821.6,-0.7381,-0.4407,140.7,96.8,0.529
31.4,31800.9,34704.1,-0.7896,-0.7295,140.7,96.8,0.529
31.42,31869.3,34680.4,-0.5158,-0.7879,140.7,96.8,0.529
31.44,31805.1,34668.4,-0.7727,-0.8173,140.7,96.8,0.529
31.46,31861.3,34594.9,-0.5478,-0.9981,140.7,96.8,0.529
31.48,31781.1,34508.0,-0.8689,-1.2117,140.7,96.8,0.529
31.5,31690.5,34461.2,-1.2316,-1.3268,140.7,96.8,0.529
31.52,31735.4,34483.6,-1.0517,-1.2717,140.7,96.8,0.529
31.54,31861.7,34755.7,-0.5461,-0.6028,140.7,96.8,0.529
31.56,31982.2,34979.6,-0.0641,-0.0521,140.7,96.8,0.529
31.58,32202.8,35407.4,0.8192,0.9998,140.7,96.8,0.529
31.6,32291.5,35685.2,1.174,1.6829,140.7,96.8,0.529
31.62,32289.6,35744.4,1.1664,1.8284,140.7,96.8,0.529
31.64,32318.5,35691.3,1.2822,1.6977,140.7,96.8,0.529
31.66,32273.9,35467.3,1.1034,1.1471,140.7,96.8,0.529
31.68,32102.1,35309.5,0.4159,0.7589,140.7,96.8,0.529
31.7,32062.2,35111.8,0.2564,0.2729,140.7,96.8,0.529
31.72,31982.8,35084.3,-0.0617,0.2052,140.7,96.8,0.529
31.74,31974.8,35042.0,-0.0935,0.1012,140.7,96.8,0.529
31.76,31955.4,34948.4,-0.1711,-0.1288,140.7,96.8,0.529
31.78,31961.1,34859.6,-0.1485,-0.3471,140.7,96.8,0.529
31.8,31848.4,34748.8,-0.5995,-0.6196,140.7,96.8,0.529
31.82,31901.8,34783.3,-0.3858,-0.5348,140.7,96.8,0.529
31.84,31939.6,34674.3,-0.2344,-0.803,140.7,96.8,0.529
31.86,31865.9,34615.4,-0.5296,-0.9476,140.7,96.8,0.529
31.88,31754.2,34705.6,-0.9764,-0.7259,140.7,96.8,0.529
31.9,31870.8,34592.6,-0.51,-1.0038,140.7,96.8,0.529
31.92,31759.7,34386.6,-0.9546,-1.5103,140.7,96.8,0.529
31.94,31804.1,34526.0,-0.7768,-1.1674,140.7,96.8,0.529
31.96,31845.5,34720.0,-0.6112,-0.6905,140.7,96.8,0.529
31.98,32035.5,34950.2,0.1493,-0.1246,140.7,96.8,0.529
32.0,32079.3,35344.9,0.3247,0.8461,140.7,96.8,0.529
32.02,32317.7,35592.3,1.2787,1.4543,140.7,96.8,0.529
32.04,32321.0,35777.8,1.2921,1.9105,140.7,96.8,0.529
32.06,32372.0,35680.4,1.4963,1.6711,140.7,96.8,0.529
32.08,32293.1,35492.4,1.1806,1.2087,140.7,96.8,0.529
32.1,32177.3,35394.2,0.7167,0.9674,140.7,96.8,0.529
32.12,32138.4,35232.9,0.5612,0.5706,140.7,96.8,0.529
32.14,32012.4,35199.6,0.0567,0.4887,140.7,96.8,0.529
32.16,31957.9,35049.7,-0.1611,0.1202,140.7,96.8,0.529
32.18,32018.9,34928.9,0.0831,-0.1768,140.7,96.8,0.529
32.2,31857.5,34879.4,-0.5632,-0.2986,140.7,96.8,0.529
32.22,31962.9,34812.1,-0.1411,-0.4639,140.7,96.8,0.529
32.24,31892.9,34770.9,-0.4212,-0.5654,140.7,96.8,0.529
32.26,31730.9,34682.6,-1.0696,-0.7824,140.7,96.8,0.529
32.28,31895.7,34671.5,-0.4101,-0.8098,140.7,96.8,0.529
32.3,31807.1,34571.5,-0.7647,-1.0558,140.7,96.8,0.529
32.32,31720.4,34545.8,-1.112,-1.1188,140.7,96.8,0.529
32.34,31785.4,34464.5,-0.8517,-1.3188,140.7,96.8,0.529
32.36,31755.3,34500.0,-0.972,-1.2314,140.7,96.8,0.529
32.38,31771.2,34624.1,-0.9084,-0.9262,140.7,96.8,0.529
32.4,31891.9,34805.8,-0.4252,-0.4796,140.7,96.8,0.529
32.42,32118.5,35138.9,0.4814,0.3395,140.7,96.8,0.529
32.44,32259.5,35400.8,1.0458,0.9834,140.7,96.8,0.529
32.46,32294.2,35722.1,1.185,1.7735,140.7,96.8,0.529
32.48,32298.8,35686.4,1.2034,1.6856,140.7,96.8,0.529
32.5,32232.1,35618.6,0.9363,1.5191,140.7,96.8,0.529
32.52,32191.3,35439.7,0.7731,1.079,140.7,96.8,0.529
32.54,32133.8,35191.9,0.5427,0.4699,140.7,96.8,0.529
32.56,32050.6,35164.7,0.2099,0.4028,140.7,96.8,0.529
32.58,32050.5,35170.2,0.2093,0.4166,140.7,96.8,0.529
32.6,32004.5,35002.2,0.0252,0.0033,140.7,96.8,0.529
32.62,31976.0,34951.2,-0.0889,-0.1221,140.7,96.8,0.529
32.64,31959.9,34888.4,-0.1533,-0.2764,140.7,96.8,0.529
32.66,31768.4,34684.0,-0.9196,-0.7789,140.7,96.8,0.529
32.68,31922.8,34725.2,-0.3016,-0.6778,140.7,96.8,0.529
32.7,31888.5,34723.0,-0.4391,-0.6831,140.7,96.8,0.529
32.72,31900.0,34628.9,-0.3929,-0.9145,140.7,96.8,0.529
32.74,31758.7,34663.2,-0.9586,-0.8301,140.7,96.8,0.529
32.76,31787.3,34494.3,-0.844,-1.2455,140.7,96.8,0.529
32.78,31850.9,34423.8,-0.5896,-1.4188,140.7,96.8,0.529
32.8,31766.0,34448.7,-0.9292,-1.3576,140.7,96.8,0.529
32.82,31794.0,34664.6,-0.8173,-0.8268,140.7,96.8,0.529
32.84,32145.3,35007.9,0.5888,0.0173,140.7,96.8,0.529
32.86,32132.3,35428.1,0.5367,1.0505,140.7,96.8,0.529
32.88,32418.4,35627.6,1.6821,1.5412,140.7,96.8,0.529
32.9,32280.0,35810.7,1.1279,1.9914,140.7,96.8,0.529
32.92,32354.1,35651.8,1.4246,1.6007,140.7,96.8,0.529
32.94,32274.9,35434.2,1.1076,1.0655,140.7,96.8,0.529
32.96,32120.1,35296.4,0.488,0.7267,140.7,96.8,0.529
32.98,32037.1,35192.9,0.1558,0.4723,140.7,96.8,0.529
33.0,32064.0,35079.4,0.2636,0.1931,140.7,96.8,0.529
33.02,32024.8,35027.0,0.1065,0.0643,140.7,96.8,0.529
33.04,32007.5,34961.6,0.0375,-0.0964,140.7,96.8,0.529
33.06,31999.7,34837.5,0.0061,-0.4016,140.7,96.8,0.529
33.08,31858.2,34779.0,-0.5602,-0.5454,140.7,96.8,0.529
33.1,31858.5,34664.2,-0.5592,-0.8277,140.7,96.8,0.529
33.12,31862.5,34670.3,-0.5429,-0.8128,140.7,96.8,0.529
33.14,31875.9,34652.0,-0.4893,-0.8576,140.7,96.8,0.529
33.16,31792.2,34701.2,-0.8244,-0.7368,140.7,96.8,0.529
33.18,31863.9,34544.7,-0.5374,-1.1216,140.7,96.8,0.529
33.2,31753.6,34473.9,-0.979,-1.2956,140.7,96.8,0.529
33.22,31797.2,34414.4,-0.8043,-1.442,140.7,96.8,0.529
33.24,31884.6,34644.9,-0.4546,-0.8751,140.7,96.8,0.529
33.26,31924.5,34924.9,-0.295,-0.1866,140.7,96.8,0.529
33.28,32160.3,35324.5,0.649,0.7958,140.7,96.8,0.529
33.3,32309.8,35638.6,1.2474,1.5683,140.7,96.8,0.529
33.32,32363.9,35732.1,1.4638,1.7981,140.7,96.8,0.529
33.34,32358.0,35724.1,1.4402,1.7784,140.7,96.8,0.529
33.36,32257.1,35612.1,1.0364,1.503,140.7,96.8,0.529
33.38,32164.0,35329.5,0.6635,0.8081,140.7,96.8,0.529
33.4,32108.0,35186.0,0.4396,0.4553,140.7,96.8,0.529
33.42,32070.2,35113.1,0.2883,0.2761,140.7,96.8,0.529
33.44,32115.9,35046.4,0.4713,0.112,140.7,96.8,0.529
33.46,32030.4,35026.8,0.1291,0.0639,140.7,96.8,0.529
33.48,31989.3,34946.9,-0.0356,-0.1327,140.7,96.8,0.529
33.5,31875.8,34761.5,-0.4897,-0.5884,140.7,96.8,0.529
33.52,31778.7,34643.0,-0.8783,-0.8798,140.7,96.8,0.529
33.54,31839.9,34697.2,-0.6335,-0.7465,140.7,96.8,0.529
33.56,31878.7,34621.9,-0.4781,-0.9317,140.7,96.8,0.529
33.58,31926.2,34626.4,-0.2879,-0.9207,140.7,96.8,0.529
33.6,31796.7,34669.7,-0.8063,-0.8142,140.7,96.8,0.529
33.62,31704.4,34446.5,-1.1758,-1.3631,140.7,96.8,0.529
33.64,31683.5,34462.0,-1.2595,-1.325,140.7,96.8,0.529
33.66,31764.7,34573.6,-0.9344,-1.0505,140.7,96.8,0.529
33.68,31884.5,34779.6,-0.4551,-0.544,140.7,96.8,0.529
33.7,32032.6,35240.0,0.1377,0.588,140.7,96.8,0.529
33.72,32252.4,35510.0,1.0173,1.2519,140.7,96.8,0.529
33.74,32313.2,35656.4,1.2609,1.6119,140.7,96.8,0.529
33.76,32349.0,35873.7,1.4042,2.1462,140.7,96.8,0.529
33.78,32299.7,35657.5,1.2066,1.6146,140.7,96.8,0.529
33.8,32238.7,35367.4,0.9625,0.9013,140.7,96.8,0.529
33.82,32107.0,35279.7,0.4354,0.6857,140.7,96.8,0.529
33.84,32131.1,35160.8,0.5319,0.3935,140.7,96.8,0.529
33.86,32005.7,35114.0,0.0299,0.2784,140.7,96.8,0.529
33.88,32104.8,34992.8,0.4269,-0.0198,140.7,96.8,0.529
33.9,31946.6,34907.3,-0.2064,-0.2299,140.7,96.8,0.529
33.92,31830.6,34796.0,-0.6706,-0.5035,140.7,96.8,0.529
33.94,31832.7,34795.5,-0.6622,-0.5049,140.7,96.8,0.529
33.96,31814.2,34716.6,-0.7363,-0.6989,140.7,96.8,0.529
33.98,31888.5,34682.2,-0.4392,-0.7835,140.7,96.8,0.529
34.0,31806.8,34716.9,-0.766,-0.6982,140.7,96.8,0.529
34.02,31829.1,34601.2,-0.6768,-0.9827,140.7,96.8,0.529
34.04,31729.1,34496.7,-1.0768,-1.2395,140.7,96.8,0.529
34.06,31785.2,34399.9,-0.8523,-1.4776,140.7,96.8,0.529
34.08,31748.9,34468.4,-0.9975,-1.3093,140.7,96.8,0.529
34.1,31902.2,34724.5,-0.3841,-0.6794,140.7,96.8,0.529
34.12,31963.7,35076.9,-0.138,0.187,140.7,96.8,0.529
34.14,32143.1,35376.0,0.5801,0.9224,140.7,96.8,0.529
34.16,32264.1,35627.2,1.0644,1.5401,140.7,96.8,0.529
34.18,32424.4,35714.7,1.706,1.7553,140.7,96.8,0.529
34.2,32268.2,35730.2,1.0808,1.7936,140.7,96.8,0.529
34.22,32188.2,35428.1,0.7605,1.0506,140.7,96.8,0.529
34.24,32153.2,35291.5,0.6204,0.7149,140.7,96.8,0.529
34.26,32078.4,35172.1,0.3209,0.4211,140.7,96.8,0.529
34.28,32024.4,35227.7,0.1048,0.5579,140.7,96.8,0.529
34.3,32011.6,35007.7,0.0536,0.017,140.7,96.8,0.529
34.32,31948.5,34921.6,-0.1987,-0.1949,140.7,96.8,0.529
34.34,31968.9,34823.3,-0.1172,-0.4364,140.7,96.8,0.529
34.36,31871.8,34776.4,-0.5058,-0.5519,140.7,96.8,0.529
34.38,31804.3,34822.6,-0.7761,-0.4383,140.7,96.8,0.529
34.4,31825.5,34631.2,-0.6913,-0.9089,140.7,96.8,0.529
34.42,31913.9,34619.7,-0.3372,-0.9371,140.7,96.8,0.529
34.44,31919.9,34514.0,-0.3134,-1.197,140.7,96.8,0.529
34.46,31747.1,34559.6,-1.005,-1.0849,140.7,96.8,0.529
34.48,31751.3,34495.1,-0.9881,-1.2435,140.7,96.8,0.529
34.5,31707.0,34521.2,-1.1655,-1.1794,140.7,96.8,0.529
34.52,31766.6,34666.4,-0.9269,-0.8222,140.7,96.8,0.529
34.54,31905.3,34871.1,-0.3716,-0.319,140.7,96.8,0.529
34.56,32209.4,35348.7,0.8456,0.8553,140.7,96.8,0.529
34.58,32237.5,35668.0,0.9579,1.6405,140.7,96.8,0.529
34.6,32329.3,35686.9,1.3252,1.687,140.7,96.8,0.529
34.62,32478.4,35798.2,1.9222,1.9607,140.7,96.8,0.529
34.64,32279.4,35470.8,1.1254,1.1556,140.7,96.8,0.529
34.66,32171.3,35399.2,0.693,0.9795,140.7,96.8,0.529
34.68,32098.3,35079.9,0.4006,0.1944,140.7,96.8,0.529
34.7,32005.8,35143.7,0.0304,0.3512,140.7,96.8,0.529
34.72,32037.4,35089.3,0.1569,0.2176,140.7,96.8,0.529
34.74,32056.1,35066.2,0.232,0.1607,140.7,96.8,0.529
34.76,31995.1,34904.9,-0.0125,-0.2359,140.7,96.8,0.529
34.78,31934.0,34793.4,-0.2571,-0.5101,140.7,96.8,0.529
34.8,31902.5,34674.8,-0.3831,-0.8017,140.7,96.8,0.529
34.82,31775.5,34653.2,-0.8915,-0.8547,140.7,96.8,0.529
34.84,31799.1,34642.1,-0.7968,-0.8821,140.7,96.8,0.529
34.86,31767.8,34577.4,-0.9222,-1.0411,140.7,96.8,0.529
34.88,31767.9,34614.7,-0.9215,-0.9494,140.7,96.8,0.529
34.9,31743.1,34545.4,-1.0211,-1.1197,140.7,96.8,0.529
34.92,31803.4,34442.7,-0.7794,-1.3725,140.7,96.8,0.529
34.94,31689.1,34605.1,-1.2371,-0.9729,140.7,96.8,0.529
34.96,31841.2,34826.9,-0.6284,-0.4277,140.7,96.8,0.529
34.98,32097.5,35190.1,0.3976,0.4655,140.7,96.8,0.529
35.0,32229.6,35465.5,0.9263,1.1427,140.7,96.8,0.529
35.02,32404.2,35731.8,1.6251,1.7974,140.7,96.8,0.529
35.04,32423.5,35749.2,1.7024,1.8401,140.7,96.8,0.529
35.06,32258.0,35617.4,1.04,1.5161,140.7,96.8,0.529
35.08,32241.1,35476.2,0.9724,1.1688,140.7,96.8,0.529
35.1,32098.9,35371.9,0.403,0.9124,140.7,96.8,0.529
35.12,32094.9,35171.8,0.3869,0.4203,140.7,96.8,0.529
35.14,31942.8,35077.0,-0.2217,0.1873,140.7,96.8,0.529
35.16,32026.1,34964.5,0.1119,-0.0894,140.7,96.8,0.529
35.18,31959.9,34951.8,-0.153,-0.1206,140.7,96.8,0.529
35.2,31959.1,34835.0,-0.1566,-0.4076,140.7,96.8,0.529
35.22,31806.3,34720.2,-0.768,-0.6901,140.7,96.8,0.529
35.24,31782.5,34613.0,-0.8634,-0.9536,140.7,96.8,0.529
35.26,31814.4,34671.0,-0.7357,-0.8109,140.7,96.8,0.529
35.28,31833.2,34585.7,-0.6603,-1.0206,140.7,96.8,0.529
35.3,31772.3,34704.6,-0.904,-0.7285,140.7,96.8,0.529
35.32,31773.4,34504.6,-0.8996,-1.2202,140.7,96.8,0.529
35.34,31727.5,34520.4,-1.0834,-1.1813,140.7,96.8,0.529
35.36,31801.4,34597.0,-0.7876,-0.993,140.7,96.8,0.529
35.38,31746.5,34716.0,-1.0072,-0.7003,140.7,96.8,0.529
35.4,32046.1,35072.5,0.1917,0.1761,140.7,96.8,0.529
35.42,32190.5,35455.6,0.7696,1.1182,140.7,96.8,0.529
35.44,32342.1,35805.2,1.3764,1.9778,140.7,96.8,0.529
35.46,32344.2,35802.6,1.3848,1.9715,140.7,96.8,0.529
35.48,32225.5,35633.1,0.9098,1.5547,140.7,96.8,0.529
35.5,32175.1,35447.6,0.7081,1.0985,140.7,96.8,0.529
35.52,32033.0,35357.8,0.1394,0.8777,140.7,96.8,0.529
35.54,32047.9,35130.9,0.1989,0.3198,140.7,96.8,0.529
35.56,32097.1,35136.8,0.3961,0.3343,140.7,96.8,0.529
35.58,32013.3,35061.0,0.0606,0.148,140.7,96.8,0.529
35.6,31864.8,34969.8,-0.5339,-0.0763,140.7,96.8,0.529
35.62,31978.6,34889.0,-0.0784,-0.2749,140.7,96.8,0.529
35.64,31904.8,34726.4,-0.3738,-0.6749,140.7,96.8,0.529
35.66,31782.0,34679.8,-0.8653,-0.7894,140.7,96.8,0.529
35.68,31787.2,34708.9,-0.8443,-0.7178,140.7,96.8,0.529
35.7,31860.0,34651.5,-0.5531,-0.859,140.7,96.8,0.529
35.72,31828.3,34638.1,-0.6801,-0.8918,140.7,96.8,0.529
35.74,31755.7,34581.9,-0.9706,-1.0301,140.7,96.8,0.529
35.76,31687.9,34448.8,-1.2418,-1.3574,140.7,96.8,0.529
35.78,31695.9,34481.5,-1.2098,-1.2771,140.7,96.8,0.529
35.8,31846.3,34586.4,-0.6078,-1.019,140.7,96.8,0.529
35.82,31900.8,34944.1,-0.3897,-0.1394,140.7,96.8,0.529
35.84,32255.2,35386.8,1.0287,0.9492,140.7,96.8,0.529
35.86,32241.6,35620.0,0.9742,1.5225,140.7,96.8,0.529
35.88,32386.4,35825.6,1.5537,2.0279,140.7,96.8,0.529
35.9,32347.7,35716.1,1.399,1.7587,140.7,96.8,0.529
35.92,32190.9,35629.9,0.7712,1.5469,140.7,96.8,0.529
35.94,32184.2,35280.4,0.7444,0.6875,140.7,96.8,0.529
35.96,32145.2,35198.5,0.5886,0.4861,140.7,96.8,0.529
35.98,32066.9,35139.7,0.2749,0.3414,140.7,96.8,0.529
36.0,32027.7,35111.1,0.1183,0.2711,140.7,96.8,0.529
36.02,32084.4,34993.2,0.3449,-0.0187,140.7,96.8,0.529
36.04,31943.6,34902.1,-0.2183,-0.2427,140.7,96.8,0.529
36.06,31953.3,34855.1,-0.1796,-0.3582,140.7,96.8,0.529
36.08,31857.5,34731.6,-0.5631,-0.662,140.7,96.8,0.529
36.1,31875.6,34623.3,-0.4905,-0.9284,140.7,96.8,0.529
36.12,31864.0,34733.5,-0.5369,-0.6574,140.7,96.8,0.529
36.14,31877.9,34646.2,-0.4814,-0.8719,140.7,96.8,0.529
36.16,31753.0,34638.4,-0.9815,-0.8911,140.7,96.8,0.529
36.18,31745.6,34530.4,-1.011,-1.1567,140.7,96.8,0.529
36.2,31785.3,34406.4,-0.852,-1.4615,140.7,96.8,0.529
36.22,31859.6,34545.7,-0.5546,-1.1192,140.7,96.8,0.529
36.24,31851.5,34844.0,-0.5869,-0.3856,140.7,96.8,0.529
36.26,32036.0,35172.0,0.1514,0.4208,140.7,96.8,0.529
36.28,32236.5,35428.6,0.9537,1.0519,140.7,96.8,0.529
36.3,32406.5,35719.0,1.6343,1.766,140.7,96.8,0.529
36.32,32295.0,35695.5,1.188,1.7081,140.7,96.8,0.529
36.34,32310.1,35642.6,1.2485,1.5779,140.7,96.8,0.529
36.36,32185.1,35353.9,0.7482,0.8682,140.7,96.8,0.529
36.38,32154.5,35217.3,0.6255,0.5324,140.7,96.8,0.529
36.4,32044.2,35072.3,0.1842,0.1758,140.7,96.8,0.529
36.42,32023.5,35020.4,0.1013,0.0481,140.7,96.8,0.529
36.44,31978.4,34977.4,-0.079,-0.0577,140.7,96.8,0.529
36.46,31889.4,35007.3,-0.4354,0.0159,140.7,96.8,0.529
36.48,31897.1,34801.8,-0.4045,-0.4895,140.7,96.8,0.529
36.5,31909.0,34757.4,-0.357,-0.5985,140.7,96.8,0.529
36.52,31802.5,34640.8,-0.7832,-0.8853,140.7,96.8,0.529
36.54,31866.4,34653.5,-0.5276,-0.854,140.7,96.8,0.529
36.56,31827.1,34574.0,-0.6847,-1.0496,140.7,96.8,0.529
36.58,31714.4,34520.8,-1.1359,-1.1803,140.7,96.8,0.529
36.6,31751.4,34562.4,-0.9879,-1.0781,140.7,96.8,0.529
36.62,31718.3,34486.6,-1.1203,-1.2643,140.7,96.8,0.529
36.64,31727.4,34480.5,-1.0836,-1.2795,140.7,96.8,0.529
36.66,31887.1,34744.1,-0.4444,-0.6313,140.7,96.8,0.529
36.68,32032.7,35087.6,0.138,0.2134,140.7,96.8,0.529
36.7,32222.5,35470.0,0.8979,1.1537,140.7,96.8,0.529
36.72,32358.7,35684.7,1.443,1.6815,140.7,96.8,0.529
36.74,32379.2,35830.2,1.5251,2.0394,140.7,96.8,0.529
36.76,32364.6,35704.3,1.4666,1.7297,140.7,96.8,0.529
36.78,32219.6,35506.2,0.8864,1.2427,140.7,96.8,0.529
36.8,32155.7,35302.2,0.6303,0.741,140.7,96.8,0.529
36.82,31999.9,35101.4,0.0069,0.2472,140.7,96.8,0.529
36.84,32035.3,35122.0,0.1486,0.2978,140.7,96.8,0.529
36.86,32076.1,35093.4,0.3118,0.2277,140.7,96.8,0.529
36.88,31996.8,34977.3,-0.0055,-0.0579,140.7,96.8,0.529
36.9,31980.6,34861.5,-0.0703,-0.3427,140.7,96.8,0.529
36.92,31889.5,34740.9,-0.4349,-0.6392,140.7,96.8,0.529
36.94,31822.1,34741.1,-0.7046,-0.6387,140.7,96.8,0.529
36.96,31736.6,34597.9,-1.047,-0.9908,140.7,96.8,0.529
36.98,31832.1,34672.5,-0.6646,-0.8073,140.7,96.8,0.529
37.0,31832.7,34660.3,-0.6622,-0.8373,140.7,96.8,0.529
37.02,31722.1,34667.0,-1.105,-0.8208,140.7,96.8,0.529
37.04,31721.2,34403.5,-1.1087,-1.4687,140.7,96.8,0.529
37.06,31745.1,34492.4,-1.0131,-1.2503,140.7,96.8,0.529
37.08,31810.4,34622.5,-0.7514,-0.9303,140.7,96.8,0.529
37.1,31931.8,34957.8,-0.2656,-0.1059,140.7,96.8,0.529
37.12,32168.3,35276.1,0.6808,0.6768,140.7,96.8,0.529
37.14,32229.2,35649.1,0.9245,1.5941,140.7,96.8,0.529
37.16,32379.8,35731.6,1.5272,1.797,140.7,96.8,0.529
37.18,32333.3,35752.1,1.3415,1.8474,140.7,96.8,0.529
37.2,32324.9,35521.0,1.3076,1.2791,140.7,96.8,0.529
37.22,32216.9,35388.4,0.8754,0.9529,140.7,96.8,0.529
37.24,32065.9,35209.6,0.271,0.5135,140.7,96.8,0.529
37.26,31995.8,35029.5,-0.0096,0.0705,140.7,96.8,0.529
37.28,31945.3,35109.4,-0.2118,0.267,140.7,96.8,0.529
37.3,31944.9,34973.0,-0.2133,-0.0685,140.7,96.8,0.529
37.32,31926.3,34887.4,-0.2878,-0.279,140.7,96.8,0.529
37.34,31910.8,34656.8,-0.3499,-0.8458,140.7,96.8,0.529
37.36,31907.0,34684.1,-0.365,-0.7787,140.7,96.8,0.529
37.38,31832.2,34647.4,-0.6643,-0.869,140.7,96.8,0.529
37.4,31794.0,34743.5,-0.8174,-0.6328,140.7,96.8,0.529
37.42,31810.3,34713.0,-0.7521,-0.7078,140.7,96.8,0.529
37.44,31730.9,34480.7,-1.0699,-1.279,140.7,96.8,0.529
37.46,31820.7,34501.1,-0.7104,-1.2288,140.7,96.8,0.529
37.48,31807.4,34478.8,-0.7635,-1.2836,140.7,96.8,0.529
37.5,31749.1,34530.6,-0.9969,-1.1563,140.7,96.8,0.529
37.52,31877.7,34923.0,-0.4821,-0.1914,140.7,96.8,0.529
37.54,32046.1,35119.2,0.1917,0.291,140.7,96.8,0.529
37.56,32170.4,35457.3,0.6892,1.1224,140.7,96.8,0.529
37.58,32327.9,35817.5,1.3195,2.0081,140.7,96.8,0.529
37.6,32337.1,35769.7,1.3564,1.8906,140.7,96.8,0.529
37.62,32347.7,35630.7,1.3991,1.5488,140.7,96.8,0.529
37.64,32204.0,35451.5,0.8239,1.1081,140.7,96.8,0.529
37.66,32243.1,35238.6,0.9802,0.5846,140.7,96.8,0.529
37.68,32116.2,35156.6,0.4725,0.383,140.7,96.8,0.529
37.7,32067.2,35142.0,0.2762,0.3472,140.7,96.8,0.529
37.72,32064.7,34961.3,0.2663,-0.0972,140.7,96.8,0.529
37.74,31993.0,35029.6,-0.0206,0.0708,140.7,96.8,0.529
37.76,31960.8,34831.3,-0.1495,-0.4167,140.7,96.8,0.529
37.78,31863.8,34771.3,-0.5378,-0.5643,140.7,96.8,0.529
37.8,31840.2,34657.5,-0.6323,-0.8443,140.7,96.8,0.529
37.82,31825.7,34724.1,-0.6903,-0.6804,140.7,96.8,0.529
37.84,31851.9,34545.5,-0.5855,-1.1196,140.7,96.8,0.529
37.86,31756.5,34649.2,-0.9675,-0.8647,140.7,96.8,0.529
37.88,31796.7,34475.0,-0.8064,-1.2929,140.7,96.8,0.529
37.9,31752.2,34452.2,-0.9844,-1.3491,140.7,96.8,0.529
37.92,31733.0,34538.1,-1.0614,-1.1378,140.7,96.8,0.529
37.94,31882.8,34770.7,-0.4619,-0.5659,140.7,96.8,0.529
37.96,32032.9,35041.6,0.1388,0.1002,140.7,96.8,0.529
37.98,32217.8,35420.8,0.8791,1.0327,140.7,96.8,0.529
38.0,32357.0,35612.0,1.436,1.5028,140.7,96.8,0.529
38.02,32394.5,35814.9,1.5863,2.0017,140.7,96.8,0.529
38.04,32367.4,35662.0,1.4777,1.6257,140.7,96.8,0.529
38.06,32203.9,35489.2,0.8235,1.2008,140.7,96.8,0.529
38.08,32206.6,35301.0,0.8343,0.738,140.7,96.8,0.529
38.1,32130.6,35093.6,0.53,0.2281,140.7,96.8,0.529
38.12,32095.4,35065.1,0.3892,0.158,140.7,96.8,0.529
38.14,31972.5,35102.9,-0.1028,0.251,140.7,96.8,0.529
38.16,32000.5,34948.7,0.0092,-0.1283,140.7,96.8,0.529
38.18,31932.1,34855.3,-0.2647,-0.3578,140.7,96.8,0.529
38.2,31832.3,34787.1,-0.6638,-0.5255,140.7,96.8,0.529
38.22,31922.6,34611.6,-0.3026,-0.9571,140.7,96.8,0.529
38.24,31944.4,34644.6,-0.2152,-0.8759,140.7,96.8,0.529
38.26,31797.5,34646.8,-0.8033,-0.8706,140.7,96.8,0.529
38.28,31805.2,34511.4,-0.7722,-1.2033,140.7,96.8,0.529
38.3,31710.0,34572.9,-1.1536,-1.0523,140.7,96.8,0.529
38.32,31776.4,34530.8,-0.8876,-1.1557,140.7,96.8,0.529
38.34,31663.9,34467.6,-1.3379,-1.3111,140.7,96.8,0.529
38.36,31717.9,34594.6,-1.1218,-0.9989,140.7,96.8,0.529
38.38,31992.4,34951.2,-0.023,-0.1219,140.7,96.8,0.529
38.4,32091.7,35314.9,0.3744,0.7722,140.7,96.8,0.529
38.42,32307.3,35625.6,1.2373,1.5362,140.7,96.8,0.529
38.44,32331.9,35690.5,1.3356,1.6959,140.7,96.8,0.529
38.46,32341.2,35665.1,1.3728,1.6334,140.7,96.8,0.529
38.48,32281.9,35484.1,1.1356,1.1882,140.7,96.8,0.529
38.5,32168.6,35411.1,0.682,1.0087,140.7,96.8,0.529
38.52,32047.9,35149.2,0.1991,0.3648,140.7,96.8,0.529
38.54,32089.8,35111.8,0.3665,0.2728,140.7,96.8,0.529
38.56,32051.3,35117.1,0.2128,0.2858,140.7,96.8,0.529
38.58,32004.7,35028.6,0.0262,0.0683,140.7,96.8,0.529
38.6,31971.4,34949.9,-0.1072,-0.1252,140.7,96.8,0.529
38.62,31861.6,34897.1,-0.5466,-0.255,140.7,96.8,0.529
38.64,31839.5,34783.3,-0.6352,-0.5349,140.7,96.8,0.529
38.66,31806.7,34666.7,-0.7665,-0.8217,140.7,96.8,0.529
38.68,31811.6,34663.0,-0.7469,-0.8307,140.7,96.8,0.529
38.7,31832.3,34618.1,-0.664,-0.9412,140.7,96.8,0.529
38.72,31747.9,34590.1,-1.0018,-1.0099,140.7,96.8,0.529
38.74,31734.1,34359.3,-1.0571,-1.5774,140.7,96.8,0.529
38.76,31806.4,34368.1,-0.7678,-1.5557,140.7,96.8,0.529
38.78,31874.6,34559.1,-0.4945,-1.086,140.7,96.8,0.529
38.8,31948.1,34862.7,-0.2004,-0.3397,140.7,96.8,0.529
38.82,32036.6,35169.2,0.1537,0.414,140.7,96.8,0.529
38.84,32184.9,35569.5,0.7475,1.3984,140.7,96.8,0.529
38.86,32235.7,35723.4,0.9506,1.7767,140.7,96.8,0.529
38.88,32379.7,35706.4,1.5271,1.7348,140.7,96.8,0.529
38.9,32291.6,35606.3,1.1746,1.4888,140.7,96.8,0.529
38.92,32128.0,35514.2,0.5195,1.2624,140.7,96.8,0.529
38.94,32053.3,35229.5,0.2208,0.5623,140.7,96.8,0.529
38.96,32095.2,35139.8,0.3883,0.3416,140.7,96.8,0.529
38.98,32021.0,35151.4,0.0914,0.3701,140.7,96.8,0.529
39.0,32059.5,34995.1,0.2452,-0.0141,140.7,96.8,0.529
39.02,31893.9,34940.0,-0.4173,-0.1495,140.7,96.8,0.529
39.04,31974.4,34812.2,-0.0951,-0.4639,140.7,96.8,0.529
39.06,31889.5,34741.3,-0.4352,-0.6381,140.7,96.8,0.529
39.08,31824.3,34723.0,-0.696,-0.6831,140.7,96.8,0.529
39.1,31851.5,34687.3,-0.587,-0.771,140.7,96.8,0.529
39.12,31715.4,34656.9,-1.1317,-0.8457,140.7,96.8,0.529
39.14,31698.2,34608.2,-1.2006,-0.9653,140.7,96.8,0.529
39.16,31746.4,34484.4,-1.0076,-1.2698,140.7,96.8,0.529
39.18,31766.6,34451.4,-0.927,-1.3509,140.7,96.8,0.529
39.2,31766.4,34481.5,-0.9276,-1.2771,140.7,96.8,0.529
39.22,31952.8,34767.0,-0.1818,-0.575,140.7,96.8,0.529
39.24,32031.4,35130.4,0.1329,0.3185,140.7,96.8,0.529
39.26,32230.5,35433.3,0.93,1.0635,140.7,96.8,0.529
39.28,32347.4,35641.6,1.3976,1.5756,140.7,96.8,0.529
39.3,32340.5,35826.5,1.3701,2.0302,140.7,96.8,0.529
39.32,32301.5,35699.3,1.2138,1.7176,140.7,96.8,0.529
39.34,32289.9,35506.8,1.1675,1.2441,140.7,96.8,0.529
39.36,32168.1,35260.5,0.6799,0.6385,140.7,96.8,0.529
39.38,32070.3,35133.8,0.2885,0.3269,140.7,96.8,0.529
39.4,32046.9,35187.9,0.195,0.46,140.7,96.8,0.529
39.42,32027.9,35097.3,0.119,0.2372,140.7,96.8,0.529
39.44,31981.0,35027.6,-0.0689,0.0659,140.7,96.8,0.529
39.46,31830.9,34838.7,-0.6694,-0.3988,140.7,96.8,0.529
39.48,31980.6,34802.2,-0.0703,-0.4883,140.7,96.8,0.529
39.5,31890.5,34623.0,-0.4308,-0.9291,140.7,96.8,0.529
39.52,31846.2,34673.4,-0.6084,-0.8051,140.7,96.8,0.529
39.54,31898.3,34577.9,-0.3999,-1.04,140.7,96.8,0.529
39.56,31749.5,34640.6,-0.9951,-0.8858,140.7,96.8,0.529
39.58,31768.6,34581.9,-0.9189,-1.0302,140.7,96.8,0.529
39.6,31752.9,34407.3,-0.9816,-1.4594,140.7,96.8,0.529
39.62,31707.6,34534.4,-1.163,-1.147,140.7,96.8,0.529
39.64,31781.2,34607.0,-0.8686,-0.9684,140.7,96.8,0.529
39.66,31961.3,35007.7,-0.1477,0.0169,140.7,96.8,0.529
39.68,32169.8,35338.0,0.6867,0.829,140.7,96.8,0.529
39.7,32338.5,35575.0,1.362,1.4119,140.7,96.8,0.529
39.72,32453.2,35766.1,1.8212,1.8818,140.7,96.8,0.529
39.74,32373.4,35742.1,1.5017,1.8227,140.7,96.8,0.529
39.76,32339.3,35534.8,1.3652,1.3129,140.7,96.8,0.529
39.78,32186.0,35418.1,0.7517,1.0261,140.7,96.8,0.529
39.8,32035.0,35149.7,0.1475,0.366,140.7,96.8,0.529
39.82,32136.3,35140.4,0.5529,0.3432,140.7,96.8,0.529
39.84,31975.9,35088.4,-0.0892,0.2153,140.7,96.8,0.529
39.86,31989.5,35004.1,-0.0346,0.008,140.7,96.8,0.529
39.88,31854.3,34962.8,-0.576,-0.0936,140.7,96.8,0.529
39.9,31874.6,34806.0,-0.4945,-0.479,140.7,96.8,0.529
39.92,31922.9,34705.1,-0.3014,-0.7271,140.7,96.8,0.529
39.94,31897.6,34628.6,-0.4027,-0.9151,140.7,96.8,0.529
39.96,31832.9,34680.2,-0.6617,-0.7884,140.7,96.8,0.529
39.98,31783.4,34638.5,-0.8597,-0.8908,140.7,96.8,0.529
40.0,31811.3,34577.1,-0.7481,-1.042,140.7,96.8,0.529
40.02,31797.8,34563.6,-0.8019,-1.0752,140.6,96.8,0.53
40.04,31806.7,34489.8,-0.7665,-1.2565,140.6,96.7,0.53
40.06,31833.7,34546.7,-0.6584,-1.1167,140.6,96.7,0.531
40.08,31844.1,34832.7,-0.6166,-0.4133,140.6,96.7,0.531
40.1,31999.6,35224.7,0.0057,0.5506,140.6,96.7,0.532
40.12,32319.7,35476.4,1.287,1.1694,140.5,96.7,0.532
40.14,32326.8,35699.9,1.3154,1.7189,140.5,96.7,0.533
40.16,32381.5,35802.6,1.5344,1.9715,140.5,96.7,0.533
40.18,32287.0,35656.8,1.156,1.6129,140.5,96.7,0.534
40.2,32195.0,35386.0,0.7876,0.9471,140.5,96.6,0.534
40.22,32172.2,35309.5,0.6964,0.759,140.4,96.6,0.535
40.24,32065.8,35171.8,0.2707,0.4204,140.4,96.6,0.535
40.26,31968.4,35009.2,-0.1193,0.0205,140.4,96.6,0.536
40.28,32002.8,35005.1,0.0184,0.0104,140.4,96.6,0.536
40.3,31971.3,34873.7,-0.1074,-0.3127,140.4,96.6,0.537
40.32,31853.2,34805.0,-0.5802,-0.4816,140.3,96.6,0.537
40.34,31870.8,34731.6,-0.5099,-0.662,140.3,96.6,0.538
40.36,31870.5,34744.5,-0.5112,-0.6303,140.3,96.5,0.538
40.38,31917.5,34767.5,-0.3227,-0.5736,140.3,96.5,0.539
40.4,31835.2,34473.2,-0.6523,-1.2974,140.3,96.5,0.539
40.42,31763.8,34615.4,-0.9383,-0.9476,140.2,96.5,0.54
40.44,31738.2,34472.7,-1.0408,-1.2986,140.2,96.5,0.54
40.46,31657.3,34483.6,-1.3644,-1.2718,140.2,96.5,0.541
40.48,31768.3,34545.0,-0.92,-1.1207,140.2,96.5,0.541
40.5,31853.6,34752.7,-0.5786,-0.6101,140.2,96.5,0.542
40.52,32014.5,35087.0,0.0652,0.2118,140.1,96.4,0.542
40.54,32197.1,35359.6,0.7961,0.8822,140.1,96.4,0.543
40.56,32337.8,35713.2,1.3595,1.7516,140.1,96.4,0.543
40.58,32459.3,35859.6,1.8458,2.1115,140.1,96.4,0.544
40.6,32312.3,35650.5,1.2573,1.5974,140.1,96.4,0.544
40.62,32264.6,35562.3,1.0664,1.3807,140.0,96.4,0.545
40.64,32122.8,35338.5,0.4989,0.8304,140.0,96.4,0.545
40.66,32055.5,35206.3,0.2294,0.5053,140.0,96.4,0.546
40.68,32095.8,35149.6,0.3907,0.3659,140.0,96.3,0.546
40.7,32052.4,34962.8,0.2169,-0.0934,140.0,96.3,0.547
40.72,31981.4,35014.8,-0.0671,0.0345,139.9,96.3,0.547
40.74,31984.9,34890.5,-0.053,-0.2713,139.9,96.3,0.548
40.76,31959.9,34789.3,-0.1532,-0.52,139.9,96.3,0.548
40.78,31821.2,34655.0,-0.7085,-0.8503,139.9,96.3,0.549
40.8,31799.6,34706.2,-0.7948,-0.7245,139.9,96.3,0.549
40.82,31907.5,34729.0,-0.363,-0.6684,139.8,96.3,0.55
40.84,31790.4,34578.1,-0.8315,-1.0395,139.8,96.2,0.55
40.86,31842.4,34578.8,-0.6236,-1.0376,139.8,96.2,0.551
40.88,31737.2,34434.5,-1.0445,-1.3925,139.8,96.2,0.551
40.9,31716.7,34462.9,-1.1265,-1.3226,139.8,96.2,0.552
40.92,31855.4,34573.4,-0.5716,-1.0509,139.7,96.2,0.552
40.94,31980.4,34813.2,-0.0713,-0.4615,139.7,96.2,0.553
40.96,32124.7,35267.4,0.5063,0.6554,139.7,96.2,0.553
40.98,32303.7,35585.0,1.2229,1.4365,139.7,96.2,0.554
41.0,32487.4,35782.9,1.9582,1.9229,139.7,96.1,0.554
41.02,32430.9,35778.8,1.7319,1.9128,139.6,96.1,0.555
41.04,32271.0,35606.0,1.0918,1.4881,139.6,96.1,0.556
41.06,32151.1,35330.5,0.6121,0.8106,139.6,96.1,0.556
41.08,32001.6,35167.1,0.0135,0.4087,139.6,96.1,0.557
41.1,32086.3,35066.7,0.3528,0.162,139.6,96.1,0.557
41.12,32027.0,35059.1,0.1153,0.1433,139.5,96.1,0.558
41.14,32121.6,35026.8,0.494,0.0638,139.5,96.0,0.558
41.16,31991.2,34951.7,-0.0279,-0.1208,139.5,96.0,0.559
41.18,31913.9,34773.8,-0.3374,-0.5583,139.5,96.0,0.559
41.2,31830.8,34654.5,-0.6698,-0.8517,139.5,96.0,0.56
41.22,31908.1,34703.5,-0.3606,-0.731,139.4,96.0,0.56
41.24,31817.2,34618.0,-0.7245,-0.9413,139.4,96.0,0.561
41.26,31801.3,34636.1,-0.7879,-0.8968,139.4,96.0,0.561
41.28,31827.2,34588.7,-0.6843,-1.0134,139.4,96.0,0.562
41.3,31739.2,34490.6,-1.0364,-1.2545,139.4,95.9,0.562
41.32,31655.5,34505.1,-1.3715,-1.2189,139.3,95.9,0.563
41.34,31757.0,34498.6,-0.9654,-1.2348,139.3,95.9,0.563
41.36,31817.2,34737.3,-0.7245,-0.648,139.3,95.9,0.564
41.38,31998.2,35017.0,-0.0001,0.0397,139.3,95.9,0.564
41.4,32181.2,35456.0,0.7327,1.1193,139.3,95.9,0.565
41.42,32300.6,35718.9,1.2105,1.7658,139.2,95.9,0.565
41.44,32382.6,35754.2,1.5384,1.8523,139.2,95.9,0.566
41.46,32371.1,35661.5,1.4926,1.6244,139.2,95.8,0.566
41.48,32208.7,35507.8,0.8425,1.2466,139.2,95.8,0.567
41.5,32086.8,35319.2,0.3547,0.783,139.2,95.8,0.567
41.52,32037.6,35068.0,0.1579,0.1653,139.1,95.8,0.568
41.54,31942.6,35165.5,-0.2224,0.405,139.1,95.8,0.568
41.56,31955.0,35140.8,-0.1728,0.3442,139.1,95.8,0.569
41.58,31975.0,35020.5,-0.0929,0.0483,139.1,95.8,0.569
41.6,31982.6,34800.0,-0.0626,-0.4939,139.1,95.8,0.57
41.62,31787.3,34773.7,-0.8439,-0.5584,139.0,95.7,0.57
41.64,31852.2,34663.8,-0.5844,-0.8286,139.0,95.7,0.571
41.66,31829.2,34637.1,-0.6765,-0.8944,139.0,95.7,0.571
41.68,31798.4,34584.0,-0.7996,-1.0248,139.0,95.7,0.572
41.7,31899.0,34569.2,-0.397,-1.0614,139.0,95.7,0.572
41.72,31700.5,34637.5,-1.1914,-0.8933,138.9,95.7,0.573
41.74,31704.5,34546.8,-1.1753,-1.1164,138.9,95.7,0.573
41.76,31730.4,34325.9,-1.0719,-1.6595,138.9,95.7,0.574
41.78,31841.7,34558.4,-0.6265,-1.0878,138.9,95.6,0.574
41.8,31903.6,34823.2,-0.3787,-0.4367,138.9,95.6,0.575
41.82,32184.1,35167.1,0.7441,0.4088,138.8,95.6,0.575
41.84,32293.7,35487.0,1.1828,1.1955,138.8,95.6,0.576
41.86,32418.9,35822.4,1.6839,2.0203,138.8,95.6,0.576
41.88,32261.5,35759.8,1.054,1.8663,138.8,95.6,0.577
41.9,32304.6,35561.6,1.2264,1.3788,138.8,95.6,0.577
41.92,32277.4,35380.5,1.1175,0.9335,138.7,95.6,0.578
41.94,32053.9,35173.8,0.2231,0.4254,138.7,95.5,0.578
41.96,32155.0,35100.6,0.6275,0.2453,138.7,95.5,0.579
41.98,32095.0,34931.2,0.3874,-0.1713,138.7,95.5,0.579
42.0,32096.1,34954.2,0.3917,-0.1147,138.7,95.5,0.58
42.02,32090.1,34955.2,0.3678,-0.1121,138.6,95.5,0.58
42.04,31932.9,34811.2,-0.2614,-0.4662,138.6,95.5,0.581
42.06,31844.4,34731.2,-0.6154,-0.6629,138.6,95.5,0.581
42.08,31822.8,34718.2,-0.7021,-0.695,138.6,95.5,0.582
42.1,31878.4,34607.8,-0.4793,-0.9663,138.6,95.4,0.582
42.12,31845.6,34647.1,-0.6105,-0.8698,138.5,95.4,0.583
42.14,31782.6,34561.7,-0.8628,-1.0797,138.5,95.4,0.584
42.16,31735.1,34606.5,-1.0528,-0.9696,138.5,95.4,0.584
42.18,31768.0,34544.6,-0.9212,-1.1218,138.5,95.4,0.585
42.2,31592.5,34582.2,-1.6237,-1.0293,138.5,95.4,0.585
42.22,31850.5,34619.0,-0.5912,-0.9389,138.4,95.4,0.586
42.24,32025.4,34960.1,0.1091,-0.1002,138.4,95.3,0.586
42.26,32256.5,35410.1,1.034,1.0064,138.4,95.3,0.587
42.28,32337.8,35713.7,1.3594,1.7529,138.4,95.3,0.587
42.3,32435.1,35755.4,1.7488,1.8555,138.4,95.3,0.588
42.32,32378.8,35679.3,1.5235,1.6684,138.3,95.3,0.588
42.34,32335.3,35503.0,1.3495,1.2348,138.3,95.3,0.589
42.36,32192.7,35333.9,0.7787,0.8191,138.3,95.3,0.589
42.38,32048.9,35128.5,0.2031,0.3139,138.3,95.3,0.59
42.4,32073.0,35209.2,0.2994,0.5123,138.3,95.2,0.59
42.42,32056.0,35046.8,0.2316,0.113,138.2,95.2,0.591
42.44,32064.8,34930.6,0.2665,-0.1728,138.2,95.2,0.591
42.46,31901.2,34869.5,-0.3883,-0.3229,138.2,95.2,0.592
42.48,31905.0,34843.3,-0.3731,-0.3874,138.2,95.2,0.592
42.5,31797.1,34650.7,-0.8049,-0.8608,138.2,95.2,0.593
42.52,31757.6,34747.1,-0.9628,-0.6239,138.1,95.2,0.593
42.54,31880.4,34653.3,-0.4715,-0.8544,138.1,95.2,0.594
42.56,31808.6,34657.3,-0.7587,-0.8446,138.1,95.1,0.594
42.58,31794.5,34563.6,-0.815,-1.0751,138.1,95.1,0.595
42.6,31723.1,34521.6,-1.101,-1.1784,138.1,95.1,0.595
42.62,31627.5,34454.6,-1.4835,-1.343,138.0,95.1,0.596
42.64,31753.6,34579.6,-0.9791,-1.0358,138.0,95.1,0.596
42.66,31912.3,34806.8,-0.3439,-0.4772,138.0,95.1,0.597
42.68,32004.2,35042.4,0.0241,0.1022,138.0,95.1,0.597
42.7,32253.4,35439.7,1.0216,1.0792,138.0,95.1,0.598
42.72,32372.2,35723.2,1.497,1.7763,137.9,95.0,0.598
42.74,32352.6,35689.7,1.4184,1.694,137.9,95.0,0.599
42.76,32367.8,35674.9,1.4793,1.6574,137.9,95.0,0.599
42.78,32192.0,35454.5,0.7758,1.1154,137.9,95.0,0.6
42.8,32084.1,35316.2,0.3439,0.7755,137.9,95.0,0.6
42.82,32033.3,35195.5,0.1406,0.4786,137.8,95.0,0.601
42.84,32114.4,35141.5,0.4652,0.346,137.8,95.0,0.601
42.86,32013.1,35082.8,0.0595,0.2016,137.8,95.0,0.602
42.88,31935.3,34964.8,-0.2517,-0.0886,137.8,94.9,0.602
42.9,31944.3,34816.9,-0.2155,-0.4523,137.8,94.9,0.603
42.92,31951.7,34874.9,-0.1862,-0.3095,137.7,94.9,0.603
42.94,31791.5,34570.5,-0.8274,-1.058,137.7,94.9,0.604
42.96,31827.9,34676.9,-0.6814,-0.7965,137.7,94.9,0.604
42.98,31805.4,34675.8,-0.7714,-0.7991,137.7,94.9,0.605
43.0,31803.3,34614.4,-0.7801,-0.9503,137.7,94.9,0.605
43.02,31762.7,34529.9,-0.9426,-1.1579,137.6,94.9,0.606
43.04,31735.6,34453.1,-1.0511,-1.3469,137.6,94.8,0.606
43.06,31749.4,34444.7,-0.9957,-1.3675,137.6,94.8,0.607
43.08,31767.1,34515.1,-0.9247,-1.1944,137.6,94.8,0.607
43.1,32028.8,34888.8,0.1227,-0.2755,137.6,94.8,0.608
43.12,32172.2,35155.6,0.6964,0.3807,137.5,94.8,0.608
43.14,32324.5,35531.7,1.3059,1.3053,137.5,94.8,0.609
43.16,32407.9,35734.4,1.64,1.8039,137.5,94.8,0.609
43.18,32339.2,35717.2,1.3648,1.7614,137.5,94.8,0.61
43.2,32392.1,35618.3,1.5768,1.5182,137.5,94.7,0.61
43.22,32277.2,35387.6,1.1167,0.951,137.4,94.7,0.611
43.24,32149.5,35211.2,0.6055,0.5174,137.4,94.7,0.612
43.26,32031.6,35102.9,0.1338,0.251,137.4,94.7,0.612
43.28,32056.5,35124.0,0.2334,0.3028,137.4,94.7,0.613
43.3,32032.7,34993.5,0.1383,-0.018,137.4,94.7,0.613
43.32,32008.6,35087.8,0.0418,0.2139,137.3,94.7,0.614
43.34,31868.6,34830.9,-0.5185,-0.4179,137.3,94.6,0.614
43.36,31890.5,34775.5,-0.4309,-0.5541,137.3,94.6,0.615
43.38,31845.8,34682.2,-0.6097,-0.7835,137.3,94.6,0.615
43.4,31765.3,34701.0,-0.9321,-0.7373,137.3,94.6,0.616
43.42,31829.2,34639.5,-0.6763,-0.8883,137.2,94.6,0.616
43.44,31719.0,34544.6,-1.1174,-1.1218,137.2,94.6,0.617
43.46,31782.1,34507.4,-0.8647,-1.2132,137.2,94.6,0.617
43.48,31744.0,34524.5,-1.0174,-1.1712,137.2,94.6,0.618
43.5,31614.7,34518.7,-1.5347,-1.1855,137.2,94.5,0.618
43.52,31772.1,34563.3,-0.9048,-1.0758,137.1,94.5,0.619
43.54,31964.8,34811.6,-0.1336,-0.4653,137.1,94.5,0.619
43.56,32038.0,35318.2,0.1593,0.7803,137.1,94.5,0.62
43.58,32376.3,35583.1,1.5133,1.4317,137.1,94.5,0.62
43.6,32373.0,35764.2,1.5002,1.8772,137.1,94.5,0.621
43.62,32346.2,35836.9,1.3928,2.0557,137.0,94.5,0.621
43.64,32311.2,35599.3,1.2529,1.4717,137.0,94.5,0.622
43.66,32203.5,35375.4,0.8219,0.921,137.0,94.4,0.622
43.68,32225.6,35194.0,0.9101,0.4751,137.0,94.4,0.623
43.7,32101.0,35221.6,0.4114,0.5428,137.0,94.4,0.623
43.72,32029.8,35073.6,0.1265,0.1789,136.9,94.4,0.624
43.74,32009.1,35045.0,0.0436,0.1086,136.9,94.4,0.624
43.76,31977.7,34968.8,-0.0821,-0.0788,136.9,94.4,0.625
43.78,31834.3,34817.3,-0.6561,-0.4512,136.9,94.4,0.625
43.8,31835.6,34705.0,-0.6505,-0.7275,136.9,94.4,0.626
43.82,31702.7,34707.8,-1.1828,-0.7205,136.8,94.3,0.626
43.84,31802.5,34655.1,-0.7833,-0.85,136.8,94.3,0.627
43.86,31744.8,34666.5,-1.0141,-0.822,136.8,94.3,0.627
43.88,31820.1,34684.3,-0.7126,-0.7782,136.8,94.3,0.628
43.9,31719.3,34505.5,-1.1162,-1.218,136.8,94.3,0.628
43.92,31705.0,34553.7,-1.1736,-1.0994,136.7,94.3,0.629
43.94,31630.8,34477.5,-1.4703,-1.2867,136.7,94.3,0.629
43.96,31715.4,34585.3,-1.1318,-1.0217,136.7,94.3,0.63
43.98,31905.4,34783.3,-0.3713,-0.5349,136.7,94.2,0.63
44.0,32225.9,35216.5,0.9114,0.5302,136.7,94.2,0.631
44.02,32394.0,35650.8,1.5842,1.5982,136.6,94.2,0.631
44.04,32487.1,35671.4,1.9569,1.6488,136.6,94.2,0.632
44.06,32433.5,35781.4,1.7424,1.9194,136.6,94.2,0.632
44.08,32323.3,35600.2,1.3014,1.4737,136.6,94.2,0.633
44.1,32223.4,35445.5,0.9016,1.0934,136.6,94.2,0.633
44.12,32099.6,35216.4,0.406,0.5301,136.5,94.2,0.634
44.14,32083.5,35085.1,0.3413,0.2072,136.5,94.1,0.634
44.16,32032.0,35065.0,0.1354,0.1578,136.5,94.1,0.635
44.18,31946.8,35130.7,-0.2055,0.3194,136.5,94.1,0.635
44.2,32013.8,34963.9,0.0626,-0.0908,136.5,94.1,0.636
44.22,31865.2,34855.0,-0.5324,-0.3585,136.4,94.1,0.636
44.24,31930.1,34681.0,-0.2724,-0.7863,136.4,94.1,0.637
44.26,31803.4,34637.4,-0.7796,-0.8936,136.4,94.1,0.637
44.28,31789.9,34622.0,-0.8338,-0.9315,136.4,94.1,0.638
44.3,31832.4,34673.3,-0.6634,-0.8053,136.4,94.0,0.638
44.32,31758.9,34501.1,-0.9576,-1.2286,136.3,94.0,0.639
44.34,31720.9,34483.8,-1.1096,-1.2712,136.3,94.0,0.64
44.36,31729.6,34359.2,-1.0749,-1.5777,136.3,94.0,0.64
44.38,31781.5,34497.1,-0.8672,-1.2387,136.3,94.0,0.641
44.4,31784.4,34623.3,-0.8555,-0.9284,136.3,94.0,0.641
44.42,31980.0,34858.9,-0.0728,-0.3489,136.2,94.0,0.642
44.44,32144.2,35234.3,0.5843,0.5741,136.2,93.9,0.642
44.46,32287.8,35579.9,1.1592,1.4238,136.2,93.9,0.643
44.48,32368.2,35807.2,1.481,1.9828,136.2,93.9,0.643
44.5,32459.3,35746.9,1.8457,1.8344,136.2,93.9,0.644
44.52,32304.7,35650.9,1.227,1.5984,136.1,93.9,0.644
44.54,32253.9,35382.3,1.0237,0.938,136.1,93.9,0.645
44.56,32090.2,35285.3,0.3683,0.6994,136.1,93.9,0.645
44.58,32070.5,35041.2,0.2896,0.0994,136.1,93.9,0.646
44.6,32083.1,35060.3,0.34,0.1462,136.1,93.8,0.646
44.62,31945.9,35044.5,-0.2094,0.1075,136.0,93.8,0.647
44.64,31980.8,34931.4,-0.0694,-0.1706,136.0,93.8,0.647
44.66,31879.5,34873.8,-0.4752,-0.3123,136.0,93.8,0.648
44.68,31874.6,34694.7,-0.4947,-0.7527,136.0,93.8,0.648
44.7,31863.9,34670.3,-0.5376,-0.8126,136.0,93.8,0.649
44.72,31759.5,34707.7,-0.9552,-0.7207,135.9,93.8,0.649
44.74,31765.5,34634.0,-0.9314,-0.9019,135.9,93.8,0.65
44.76,31755.2,34601.0,-0.9726,-0.9831,135.9,93.7,0.65
44.78,31724.8,34552.8,-1.0941,-1.1017,135.9,93.7,0.651
44.8,31739.4,34602.9,-1.0359,-0.9783,135.9,93.7,0.651
44.82,31715.8,34547.8,-1.1301,-1.1138,135.8,93.7,0.652
44.84,31827.7,34684.6,-0.6822,-0.7774,135.8,93.7,0.652
44.86,31893.9,34973.7,-0.4174,-0.0668,135.8,93.7,0.653
