timestamp,raw_red,raw_ir,filtered_red,filtered_ir,heart_rate,spo2,ac_dc_ratio
0.0,32034.1,35025.9,0.5718,0.3063,144.9,96.6,0.534
0.02,32053.2,35048.5,0.8909,0.5779,144.9,96.6,0.534
0.04,32095.0,35101.7,1.5922,1.2168,144.9,96.6,0.534
0.06,32043.6,35103.7,0.7299,1.2416,144.9,96.6,0.534
0.08,32010.4,35130.8,0.1743,1.5672,144.9,96.6,0.534
0.1,32083.7,35093.7,1.4025,1.1206,144.9,96.6,0.534
0.12,31990.8,35052.2,-0.1542,0.623,144.9,96.6,0.534
0.14,31998.2,35019.0,-0.0296,0.223,144.9,96.6,0.534
0.16,32016.4,34970.5,0.2753,-0.3589,144.9,96.6,0.534
0.18,32001.7,34983.0,0.029,-0.2093,144.9,96.6,0.534
0.2,31967.6,35070.5,-0.5435,0.8421,144.9,96.6,0.534
0.22,31922.7,35100.9,-1.2948,1.2079,144.9,96.6,0.534
0.24,31902.3,34963.5,-1.6374,-0.4432,144.9,96.6,0.534
0.26,31968.9,34942.2,-0.5207,-0.6999,144.9,96.6,0.534
0.28,32001.7,35001.9,0.0278,0.0182,144.9,96.6,0.534
0.3,32015.4,34898.6,0.2578,-1.2227,144.9,96.6,0.534
0.32,31899.5,34960.8,-1.6836,-0.4763,144.9,96.6,0.534
0.34,31941.5,34965.9,-0.9805,-0.4143,144.9,96.6,0.534
0.36,31999.5,34948.6,-0.0077,-0.6218,144.9,96.6,0.534
0.38,31939.3,34929.7,-1.0162,-0.8499,144.9,96.6,0.534
0.4,31956.6,34922.4,-0.727,-0.9374,144.9,96.6,0.534
0.42,32000.2,34981.8,0.0036,-0.2229,144.9,96.6,0.534
0.44,32001.8,35069.5,0.0303,0.8309,144.9,96.6,0.534
0.46,32025.9,35076.9,0.4341,0.9194,144.9,96.6,0.534
0.48,32107.4,35137.2,1.7999,1.644,144.9,96.6,0.534
0.5,32106.3,35106.5,1.7815,1.2746,144.9,96.6,0.534
0.52,32078.9,35143.5,1.3218,1.7193,144.9,96.6,0.534
0.54,32047.3,35102.9,0.7921,1.2315,144.9,96.6,0.534
0.56,31983.6,35107.7,-0.2748,1.2894,144.9,96.6,0.534
0.58,32034.1,35034.2,0.5709,0.4057,144.9,96.6,0.534
0.6,31993.8,35024.3,-0.1045,0.287,144.9,96.6,0.534
0.62,31997.8,34972.0,-0.0368,-0.3409,144.9,96.6,0.534
0.64,31904.3,34973.8,-1.6035,-0.3197,144.9,96.6,0.534
0.66,31971.3,34910.8,-0.4806,-1.0768,144.9,96.6,0.534
0.68,32007.8,34951.7,0.1302,-0.5854,144.9,96.6,0.534
0.7,32037.1,35018.4,0.6207,0.2165,144.9,96.6,0.534
0.72,31959.4,34860.6,-0.6804,-1.6795,144.9,96.6,0.534
0.74,31990.9,34862.5,-0.1529,-1.6573,144.9,96.6,0.534
0.76,31892.0,34820.8,-1.8087,-2.1578,144.9,96.6,0.534
0.78,31966.1,34879.6,-0.5679,-1.4518,144.9,96.6,0.534
0.8,31978.7,34891.8,-0.3577,-1.3052,144.9,96.6,0.534
0.82,32010.0,35049.1,0.1673,0.5853,144.9,96.6,0.534
0.84,32067.3,35034.1,1.1281,0.4055,144.9,96.6,0.534
0.86,32056.5,35125.4,0.9458,1.5021,144.9,96.6,0.534
0.88,32026.2,35146.2,0.4392,1.7515,144.9,96.6,0.534
0.9,31990.1,35165.7,-0.1663,1.9857,144.9,96.6,0.534
0.92,32063.8,35144.5,1.0691,1.7316,144.9,96.6,0.534
0.94,32013.9,35071.2,0.2334,0.8502,144.9,96.6,0.534
0.96,32058.9,35036.2,0.9863,0.4304,144.9,96.6,0.534
0.98,31962.6,34996.7,-0.6264,-0.0441,144.9,96.6,0.534
1.0,32102.0,35025.8,1.7096,0.3049,144.9,96.6,0.534
1.02,32080.4,35011.3,1.3465,0.1316,144.9,96.6,0.534
1.04,31907.5,34938.1,-1.5505,-0.7491,144.9,96.6,0.534
1.06,32015.6,34917.7,0.2612,-0.9932,144.9,96.6,0.534
1.08,32023.7,34958.6,0.3969,-0.502,144.9,96.6,0.534
1.1,32006.2,34913.6,0.1034,-1.0429,144.9,96.6,0.534
1.12,31953.3,34936.5,-0.7828,-0.7683,144.9,96.6,0.534
1.14,31979.2,34981.8,-0.3489,-0.224,144.9,96.6,0.534
1.16,31990.6,34872.0,-0.1576,-1.5434,144.9,96.6,0.534
1.18,32021.0,34944.1,0.3512,-0.6759,144.9,96.6,0.534
1.2,32042.4,34855.6,0.7108,-1.7394,144.9,96.6,0.534
1.22,32057.7,35027.8,0.9661,0.329,144.9,96.6,0.534
1.24,31989.8,35071.5,-0.171,0.8542,144.9,96.6,0.534
1.26,32095.3,35029.7,1.5972,0.3526,144.9,96.6,0.534
1.28,32038.6,35055.9,0.6461,0.667,144.9,96.6,0.534
1.3,32107.8,35146.8,1.8065,1.7588,144.9,96.6,0.534
1.32,32103.5,35134.9,1.7345,1.6159,144.9,96.6,0.534
1.34,31985.4,35055.0,-0.2446,0.6565,144.9,96.6,0.534
1.36,32062.2,35112.8,1.0428,1.3508,144.9,96.6,0.534
1.38,32005.9,35011.1,0.0994,0.1281,144.9,96.6,0.534
1.4,32007.3,35057.7,0.1229,0.6887,144.9,96.6,0.534
1.42,31936.8,34940.8,-1.0588,-0.716,144.9,96.6,0.534
1.44,32034.3,35051.3,0.5738,0.6115,144.9,96.6,0.534
1.46,31998.0,35032.0,-0.0334,0.3795,144.9,96.6,0.534
1.48,31944.3,34941.6,-0.9338,-0.7061,144.9,96.6,0.534
1.5,32045.6,34944.6,0.7645,-0.6704,144.9,96.6,0.534
1.52,31992.7,34868.5,-0.1228,-1.5843,144.9,96.6,0.534
1.54,31921.1,35032.6,-1.3224,0.387,144.9,96.6,0.534
1.56,31910.2,34877.6,-1.5039,-1.4761,144.9,96.6,0.534
1.58,32048.1,34966.6,0.805,-0.4064,144.9,96.6,0.534
1.6,31959.4,35008.6,-0.68,0.0981,144.9,96.6,0.534
1.62,31919.0,34936.8,-1.3567,-0.7644,144.9,96.6,0.534
1.64,32031.9,34979.1,0.5348,-0.2556,144.9,96.6,0.534
1.66,32015.0,35091.2,0.2509,1.0915,144.9,96.6,0.534
1.68,32008.6,35086.8,0.1432,1.0377,144.9,96.6,0.534
1.7,31971.7,35105.8,-0.4745,1.2662,144.9,96.6,0.534
1.72,32040.9,35124.0,0.6857,1.4858,144.9,96.6,0.534
1.74,31975.9,35112.5,-0.4034,1.3464,144.9,96.6,0.534
1.76,32013.0,34986.1,0.2178,-0.1723,144.9,96.6,0.534
1.78,32058.5,34983.2,0.9798,-0.2067,144.9,96.6,0.534
1.8,32011.4,34973.9,0.1906,-0.318,144.9,96.6,0.534
1.82,31925.2,34947.9,-1.2535,-0.6302,144.9,96.6,0.534
1.84,32046.9,35122.0,0.7856,1.4611,144.9,96.6,0.534
1.86,32000.3,34863.4,0.0053,-1.6463,144.9,96.6,0.534
1.88,32022.8,34934.4,0.3816,-0.793,144.9,96.6,0.534
1.9,32044.7,34936.6,0.7495,-0.7665,144.9,96.6,0.534
1.92,31917.5,34929.9,-1.3825,-0.8467,144.9,96.6,0.534
1.94,31926.5,34843.2,-1.2319,-1.8886,144.9,96.6,0.534
1.96,31973.7,34936.5,-0.4405,-0.768,144.9,96.6,0.534
1.98,31958.3,35018.3,-0.6985,0.2153,144.9,96.6,0.534
2.0,32009.3,34921.1,0.1556,-0.9526,144.9,96.6,0.534
2.02,31851.6,34908.6,-2.486,-1.1036,144.9,96.6,0.534
2.04,31952.2,35012.2,-0.8014,0.1423,144.9,96.6,0.534
2.06,32018.0,34969.3,0.302,-0.374,144.9,96.6,0.534
2.08,32034.8,35111.5,0.5833,1.3345,144.9,96.6,0.534
2.1,32047.2,35046.6,0.7906,0.5547,144.9,96.6,0.534
2.12,32025.9,35167.5,0.4345,2.0079,144.9,96.6,0.534
2.14,32012.3,35093.5,0.2062,1.1185,144.9,96.6,0.534
2.16,32077.3,35094.5,1.2953,1.1305,144.9,96.6,0.534
2.18,31894.8,35008.4,-1.7624,0.0962,144.9,96.6,0.534
2.2,31951.0,35005.7,-0.8213,0.0641,144.9,96.6,0.534
2.22,32006.0,34961.1,0.1008,-0.4722,144.9,96.6,0.534
2.24,32009.0,35033.4,0.1514,0.3962,144.9,96.6,0.534
2.26,32011.7,35061.6,0.1952,0.7358,144.9,96.6,0.534
2.28,31998.5,35000.1,-0.0253,-0.004,144.9,96.6,0.534
2.3,32012.6,34886.2,0.2115,-1.3722,144.9,96.6,0.534
2.32,31909.3,34946.1,-1.5194,-0.6521,144.9,96.6,0.534
2.34,31983.9,34957.6,-0.2694,-0.5147,144.9,96.6,0.534
2.36,32011.8,34947.4,0.1974,-0.6367,144.9,96.6,0.534
2.38,31933.2,34994.2,-1.1194,-0.0749,144.9,96.6,0.534
2.4,31955.8,34846.4,-0.7399,-1.8503,144.9,96.6,0.534
2.42,31866.9,34815.9,-2.23,-2.2171,144.9,96.6,0.534
2.44,31957.0,34893.4,-0.7208,-1.2857,144.9,96.6,0.534
2.46,32036.3,34909.5,0.6083,-1.0923,144.9,96.6,0.534
2.48,32033.8,34947.0,0.5661,-0.6417,144.9,96.6,0.534
2.5,32038.5,35017.3,0.6448,0.2028,144.9,96.6,0.534
2.52,32079.9,35146.1,1.338,1.7511,144.9,96.6,0.534
2.54,32066.0,35137.6,1.1054,1.6481,144.9,96.6,0.534
2.56,32094.6,35108.7,1.5856,1.301,144.9,96.6,0.534
2.58,32053.4,35027.5,0.8953,0.3263,144.9,96.6,0.534
2.6,32061.8,35022.3,1.0355,0.2628,144.9,96.6,0.534
2.62,32053.8,35044.7,0.9012,0.532,144.9,96.6,0.534
2.64,32034.1,35064.4,0.5719,0.7696,144.9,96.6,0.534
2.66,31991.8,34919.9,-0.1369,-0.9668,144.9,96.6,0.534
2.68,32025.3,34951.7,0.4231,-0.585,144.9,96.6,0.534
2.7,32002.0,34898.6,0.0327,-1.2233,144.9,96.6,0.534
2.72,31984.3,34963.8,-0.2628,-0.4399,144.9,96.6,0.534
2.74,31890.3,35010.5,-1.8386,0.1211,144.9,96.6,0.534
2.76,31986.5,34859.6,-0.227,-1.6917,144.9,96.6,0.534
2.78,32010.0,34835.1,0.1677,-1.9866,144.9,96.6,0.534
2.8,31872.2,34932.5,-2.1418,-0.8163,144.9,96.6,0.534
2.82,31982.6,34822.2,-0.2924,-2.1414,144.9,96.6,0.534
2.84,31951.2,34922.4,-0.8177,-0.9376,144.9,96.6,0.534
2.86,31931.0,35038.9,-1.1558,0.4627,144.9,96.6,0.534
2.88,32003.2,34966.7,0.0536,-0.4054,144.9,96.6,0.534
2.9,32003.8,35050.8,0.0636,0.6053,144.9,96.6,0.534
2.92,32125.6,35006.7,2.104,0.0759,144.9,96.6,0.534
2.94,32087.5,35103.1,1.4659,1.2337,144.9,96.6,0.534
2.96,32048.1,35033.1,0.8065,0.3931,144.9,96.6,0.534
2.98,32160.2,35067.3,2.6833,0.8034,144.9,96.6,0.534
3.0,32028.4,35015.7,0.4759,0.1838,144.9,96.6,0.534
3.02,32041.1,35054.3,0.6884,0.6478,144.9,96.6,0.534
3.04,31974.8,34998.7,-0.4228,-0.0201,144.9,96.6,0.534
3.06,32023.6,35051.5,0.3961,0.6138,144.9,96.6,0.534
3.08,32009.2,34989.9,0.1547,-0.1257,144.9,96.6,0.534
3.1,32009.0,34961.4,0.1515,-0.468,144.9,96.6,0.534
3.12,32048.2,35010.8,0.8081,0.1248,144.9,96.6,0.534
3.14,31981.6,34954.8,-0.3079,-0.5484,144.9,96.6,0.534
3.16,31972.0,34897.2,-0.4699,-1.2396,144.9,96.6,0.534
3.18,31920.1,34912.4,-1.3387,-1.057,144.9,96.6,0.534
3.2,31981.7,34927.2,-0.3066,-0.8793,144.9,96.6,0.534
3.22,32059.9,34948.1,1.0028,-0.6279,144.9,96.6,0.534
3.24,31920.5,34996.3,-1.3326,-0.0494,144.9,96.6,0.534
3.26,31896.3,34932.7,-1.7383,-0.8135,144.9,96.6,0.534
3.28,31900.0,34872.2,-1.676,-1.5406,144.9,96.6,0.534
3.3,31974.1,34923.7,-0.4342,-0.9212,144.9,96.6,0.534
3.32,32029.9,35068.7,0.5016,0.8207,144.9,96.6,0.534
3.34,32036.4,35210.3,0.609,2.5216,144.9,96.6,0.534
3.36,32006.7,35087.5,0.1122,1.0467,144.9,96.6,0.534
3.38,32097.3,35112.2,1.6307,1.3439,144.9,96.6,0.534
3.4,32013.8,35207.4,0.2306,2.487,144.9,96.6,0.534
3.42,31989.7,35014.7,-0.1734,0.1719,144.9,96.6,0.534
3.44,32020.0,34960.2,0.3347,-0.4826,144.9,96.6,0.534
3.46,31927.1,34958.9,-1.2209,-0.4981,144.9,96.6,0.534
3.48,32001.7,35006.4,0.0288,0.0727,144.9,96.6,0.534
3.5,31963.1,35090.0,-0.6183,1.0772,144.9,96.6,0.534
3.52,32044.2,34981.8,0.7405,-0.2238,144.9,96.6,0.534
3.54,32044.9,34995.2,0.7523,-0.0629,144.9,96.6,0.534
3.56,31934.7,34904.6,-1.0937,-1.1515,144.9,96.6,0.534
3.58,31995.3,34955.9,-0.079,-0.5348,144.9,96.6,0.534
3.6,31921.9,35026.6,-1.3086,0.3151,144.9,96.6,0.534
3.62,31946.4,34960.3,-0.8986,-0.482,144.9,96.6,0.534
3.64,31913.1,34906.3,-1.4553,-1.1302,144.9,96.6,0.534
3.66,31998.6,34926.2,-0.0233,-0.8914,144.9,96.6,0.534
3.68,31942.3,34905.8,-0.966,-1.1364,144.9,96.6,0.534
3.7,31993.7,35069.0,-0.1051,0.8239,144.9,96.6,0.534
3.72,31974.2,34992.7,-0.4328,-0.0929,144.9,96.6,0.534
3.74,32070.9,34992.2,1.1886,-0.0984,144.9,96.6,0.534
3.76,32030.5,35125.5,0.5106,1.5037,144.9,96.6,0.534
3.78,32027.6,35250.3,0.4616,3.0033,144.9,96.6,0.534
3.8,32031.5,35006.7,0.5274,0.0763,144.9,96.6,0.534
3.82,32095.3,35160.5,1.5963,1.9237,144.9,96.6,0.534
3.84,32042.1,35015.3,0.7053,0.1795,144.9,96.6,0.534
3.86,31947.0,35018.2,-0.8883,0.2134,144.9,96.6,0.534
3.88,32031.4,34974.9,0.5253,-0.3069,144.9,96.6,0.534
3.9,32034.8,35050.2,0.5827,0.5986,144.9,96.6,0.534
3.92,31996.8,34960.0,-0.0544,-0.4851,144.9,96.6,0.534
3.94,31967.2,35025.7,-0.5498,0.304,144.9,96.6,0.534
3.96,31963.3,34831.8,-0.6152,-2.0257,144.9,96.6,0.534
3.98,31850.5,34951.7,-2.5043,-0.585,144.9,96.6,0.534
4.0,32092.0,34975.2,1.5408,-0.3033,144.9,96.6,0.534
4.02,31936.2,34910.0,-1.0693,-1.086,144.9,96.6,0.534
4.04,31929.5,34875.3,-1.1821,-1.5027,144.9,96.6,0.534
4.06,31969.7,34896.5,-0.508,-1.2482,144.9,96.6,0.534
4.08,31957.9,34957.4,-0.7053,-0.5169,144.9,96.6,0.534
4.1,31914.1,34962.5,-1.4396,-0.4551,144.9,96.6,0.534
4.12,31971.1,34922.8,-0.4845,-0.9324,144.9,96.6,0.534
4.14,32024.1,35031.5,0.4043,0.3736,144.9,96.6,0.534
4.16,31957.8,35123.2,-0.7071,1.4754,144.9,96.6,0.534
4.18,32116.9,35149.3,1.9584,1.7897,144.9,96.6,0.534
4.2,32117.2,35170.5,1.9631,2.0436,144.9,96.6,0.534
4.22,32068.4,35070.5,1.1451,0.8423,144.9,96.6,0.534
4.24,32100.6,35064.1,1.6856,0.7651,144.9,96.6,0.534
4.26,32062.3,35028.5,1.0433,0.338,144.9,96.6,0.534
4.28,32028.4,35062.0,0.4749,0.7404,144.9,96.6,0.534
4.3,31913.7,34986.7,-1.4461,-0.1646,144.9,96.6,0.534
4.32,31999.7,34900.7,-0.0056,-1.1982,144.9,96.6,0.534
4.34,32011.6,35022.1,0.1947,0.2605,144.9,96.6,0.534
4.36,31969.2,34944.6,-0.5165,-0.6706,144.9,96.6,0.534
4.38,31920.8,35004.5,-1.3272,0.0498,144.9,96.6,0.534
4.4,31906.1,34887.9,-1.5735,-1.3522,144.9,96.6,0.534
4.42,31918.4,34951.4,-1.368,-0.5892,144.9,96.6,0.534
4.44,32063.5,34931.2,1.0635,-0.8309,144.9,96.6,0.534
4.46,32004.1,34967.1,0.0691,-0.4001,144.9,96.6,0.534
4.48,31846.8,35009.4,-2.5671,0.1086,144.9,96.6,0.534
4.5,32036.0,34847.1,0.6034,-1.8418,144.9,96.6,0.534
4.52,32003.5,34824.5,0.0582,-2.1134,144.9,96.6,0.534
4.54,31959.2,35003.7,-0.6828,0.04,144.9,96.6,0.534
4.56,31921.3,35071.9,-1.3183,0.8589,144.9,96.6,0.534
4.58,32110.2,35042.2,1.846,0.5023,144.9,96.6,0.534
4.6,31993.6,35144.1,-0.1074,1.7268,144.9,96.6,0.534
4.62,32045.3,35071.7,0.7593,0.8566,144.9,96.6,0.534
4.64,31994.8,34981.1,-0.0877,-0.2325,144.9,96.6,0.534
4.66,32024.9,35015.9,0.4177,0.1867,144.9,96.6,0.534
4.68,31939.1,35081.4,-1.0204,0.9729,144.9,96.6,0.534
4.7,32040.2,35068.6,0.6739,0.8194,144.9,96.6,0.534
4.72,32003.4,35043.3,0.0572,0.5152,144.9,96.6,0.534
4.74,31893.4,35052.7,-1.7856,0.629,144.9,96.6,0.534
4.76,31914.6,34968.5,-1.4312,-0.3827,144.9,96.6,0.534
4.78,31970.4,34958.6,-0.4966,-0.5026,144.9,96.6,0.534
4.8,31894.0,34975.5,-1.7763,-0.299,144.9,96.6,0.534
4.82,31932.2,34847.7,-1.1366,-1.8352,144.9,96.6,0.534
4.84,31995.5,34903.6,-0.0749,-1.1634,144.9,96.6,0.534
4.86,31964.6,34886.4,-0.5928,-1.3701,144.9,96.6,0.534
4.88,31950.7,34967.5,-0.8262,-0.3956,144.9,96.6,0.534
4.9,31904.9,34956.1,-1.5927,-0.5325,144.9,96.6,0.534
4.92,31983.8,34924.3,-0.2708,-0.9147,144.9,96.6,0.534
4.94,32001.5,34990.1,0.0246,-0.1241,144.9,96.6,0.534
4.96,32064.1,34910.4,1.0733,-1.0811,144.9,96.6,0.534
4.98,32021.6,35054.6,0.361,0.6516,144.9,96.6,0.534
5.0,32036.1,35113.1,0.6049,1.3544,144.9,96.6,0.534
5.02,32122.4,35083.6,2.0502,1.0001,144.9,96.6,0.534
5.04,32016.5,35089.4,0.276,1.0692,144.9,96.6,0.534
5.06,31977.3,35113.2,-0.3799,1.3552,144.9,96.6,0.534
5.08,32066.6,35029.4,1.1163,0.3487,144.9,96.6,0.534
5.1,32011.0,35032.1,0.1837,0.3815,144.9,96.6,0.534
5.12,31956.8,35137.6,-0.7233,1.6483,144.9,96.6,0.534
5.14,32028.5,35036.5,0.4767,0.4334,144.9,96.6,0.534
5.16,31925.9,34955.0,-1.241,-0.545,144.9,96.6,0.534
5.18,31984.1,34877.0,-0.266,-1.4827,144.9,96.6,0.534
5.2,31948.1,34943.5,-0.8689,-0.6841,144.9,96.6,0.534
5.22,31983.7,35026.9,-0.2738,0.3187,144.9,96.6,0.534
5.24,31922.2,34969.2,-1.3041,-0.3747,144.9,96.6,0.534
5.26,31881.5,34956.2,-1.9854,-0.5309,144.9,96.6,0.534
5.28,31999.1,34891.4,-0.0154,-1.3096,144.9,96.6,0.534
5.3,31940.9,35060.0,-0.9903,0.716,144.9,96.6,0.534
5.32,31929.2,34849.3,-1.1867,-1.8156,144.9,96.6,0.534
5.34,31999.1,34895.3,-0.0158,-1.2625,144.9,96.6,0.534
5.36,31974.6,35002.8,-0.4264,0.0287,144.9,96.6,0.534
5.38,32015.5,34996.1,0.2589,-0.0517,144.9,96.6,0.534
5.4,32042.4,35068.1,0.7096,0.8135,144.9,96.6,0.534
5.42,32061.3,35159.4,1.0276,1.9104,144.9,96.6,0.534
5.44,31978.7,35165.3,-0.3576,1.9819,144.9,96.6,0.534
5.46,31939.6,35172.0,-1.0119,2.0616,144.9,96.6,0.534
5.48,31990.9,35103.1,-0.1521,1.2344,144.9,96.6,0.534
5.5,31938.7,34979.8,-1.0276,-0.2478,144.9,96.6,0.534
5.52,32016.6,35084.3,0.2777,1.0078,144.9,96.6,0.534
5.54,31935.2,34981.0,-1.0864,-0.2325,144.9,96.6,0.534
5.56,32022.9,34915.6,0.3833,-1.0192,144.9,96.6,0.534
5.58,31943.5,34983.2,-0.9458,-0.2071,144.9,96.6,0.534
5.6,31898.1,34959.3,-1.7077,-0.4936,144.9,96.6,0.534
5.62,32028.9,34925.2,0.4842,-0.9034,144.9,96.6,0.534
5.64,31956.4,35044.9,-0.7297,0.5343,144.9,96.6,0.534
5.66,31927.2,34927.3,-1.2201,-0.8779,144.9,96.6,0.534
5.68,32007.2,35033.4,0.1211,0.3964,144.9,96.6,0.534
5.7,31911.8,34925.7,-1.4774,-0.8979,144.9,96.6,0.534
5.72,31935.8,34903.0,-1.0751,-1.1704,144.9,96.6,0.534
5.74,31975.8,34936.6,-0.4049,-0.7664,144.9,96.6,0.534
5.76,31880.0,34902.0,-2.0103,-1.1821,144.9,96.6,0.534
5.78,32053.6,34979.3,0.8985,-0.2539,144.9,96.6,0.534
5.8,32085.6,35035.8,1.4339,0.4248,144.9,96.6,0.534
5.82,32011.0,35072.0,0.1834,0.8608,144.9,96.6,0.534
5.84,32079.6,35152.4,1.3328,1.8263,144.9,96.6,0.534
5.86,32062.7,35149.0,1.05,1.7859,144.9,96.6,0.534
5.88,32046.4,35122.7,0.7766,1.4694,144.9,96.6,0.534
5.9,31980.0,35012.3,-0.3345,0.143,144.9,96.6,0.534
5.92,32000.8,35070.6,0.0131,0.844,144.9,96.6,0.534
5.94,31964.6,35160.6,-0.5939,1.9249,144.9,96.6,0.534
5.96,31968.5,34968.7,-0.5282,-0.3805,144.9,96.6,0.534
5.98,32047.9,35042.3,0.8022,0.5034,144.9,96.6,0.534
6.0,31985.6,34978.7,-0.2411,-0.2604,144.9,96.6,0.534
6.02,32005.4,34973.4,0.0909,-0.3244,144.9,96.6,0.534
6.04,31993.7,35026.0,-0.1052,0.3074,144.9,96.6,0.534
6.06,31918.5,34955.7,-1.3653,-0.5375,144.9,96.6,0.534
6.08,32036.7,34971.9,0.6145,-0.3425,144.9,96.6,0.534
6.1,31925.2,34952.7,-1.2526,-0.5734,144.9,96.6,0.534
6.12,31920.6,34943.0,-1.3305,-0.6902,144.9,96.6,0.534
6.14,31926.1,34903.4,-1.2383,-1.1654,144.9,96.6,0.534
6.16,31956.7,34886.5,-0.7251,-1.3688,144.9,96.6,0.534
6.18,32037.1,35006.6,0.621,0.0749,144.9,96.6,0.534
6.2,32013.8,34974.4,0.231,-0.3122,144.9,96.6,0.534
6.22,32043.9,35006.7,0.7359,0.0753,144.9,96.6,0.534
6.24,32040.7,35045.5,0.6822,0.5423,144.9,96.6,0.534
6.26,32078.1,35041.0,1.3076,0.4884,144.9,96.6,0.534
6.28,31984.4,35155.3,-0.2608,1.8613,144.9,96.6,0.534
6.3,32030.0,35049.6,0.5019,0.5916,144.9,96.6,0.534
6.32,32057.0,35064.5,0.9555,0.7701,144.9,96.6,0.534
6.34,31959.9,35048.7,-0.6721,0.5802,144.9,96.6,0.534
6.36,32019.6,34984.3,0.3283,-0.1939,144.9,96.6,0.534
6.38,31965.1,34944.7,-0.5845,-0.6693,144.9,96.6,0.534
6.4,31935.4,35032.5,-1.0825,0.3855,144.9,96.6,0.534
6.42,31899.0,34920.4,-1.6925,-0.9612,144.9,96.6,0.534
6.44,32009.1,34997.9,0.1521,-0.03,144.9,96.6,0.534
6.46,31966.7,35043.9,-0.5577,0.5228,144.9,96.6,0.534
6.48,31987.2,34938.1,-0.2139,-0.749,144.9,96.6,0.534
6.5,31873.5,35042.1,-2.119,0.501,144.9,96.6,0.534
6.52,32024.2,34902.5,0.405,-1.1769,144.9,96.6,0.534
6.54,31954.3,34926.6,-0.7663,-0.8865,144.9,96.6,0.534
6.56,31960.0,34949.5,-0.6696,-0.6111,144.9,96.6,0.534
6.58,31901.5,34990.2,-1.6511,-0.1227,144.9,96.6,0.534
6.6,31971.1,34918.8,-0.4843,-0.981,144.9,96.6,0.534
6.62,31977.1,35004.3,-0.3844,0.0467,144.9,96.6,0.534
6.64,32014.7,35036.8,0.2462,0.437,144.9,96.6,0.534
6.66,32006.3,35140.4,0.1058,1.6829,144.9,96.6,0.534
6.68,32097.5,35201.1,1.6332,2.4116,144.9,96.6,0.534
6.7,32055.3,35111.8,0.9258,1.338,144.9,96.6,0.534
6.72,32062.7,35066.1,1.0511,0.79,144.9,96.6,0.534
6.74,32036.1,35031.3,0.6042,0.3718,144.9,96.6,0.534
6.76,32031.5,34915.0,0.5273,-1.0267,144.9,96.6,0.534
6.78,32015.1,34976.7,0.2534,-0.2853,144.9,96.6,0.534
6.8,31973.3,35097.7,-0.448,1.1686,144.9,96.6,0.534
6.82,31949.1,34999.3,-0.8533,-0.0133,144.9,96.6,0.534
6.84,32027.0,35029.9,0.4529,0.3551,144.9,96.6,0.534
6.86,32041.2,34920.6,0.6901,-0.9592,144.9,96.6,0.534
6.88,31921.0,34998.7,-1.3229,-0.02,144.9,96.6,0.534
6.9,32019.1,34921.4,0.3193,-0.9492,144.9,96.6,0.534
6.92,32022.5,34928.3,0.3766,-0.8666,144.9,96.6,0.534
6.94,31958.1,35001.8,-0.7029,0.0164,144.9,96.6,0.534
6.96,31880.0,34958.2,-2.0108,-0.5076,144.9,96.6,0.534
6.98,32025.5,34921.9,0.4265,-0.9437,144.9,96.6,0.534
7.0,31865.3,35007.3,-2.2565,0.0828,144.9,96.6,0.534
7.02,31934.7,34862.2,-1.0938,-1.6607,144.9,96.6,0.534
7.04,32042.0,34958.3,0.7035,-0.5061,144.9,96.6,0.534
7.06,32096.4,35146.0,1.6156,1.7495,144.9,96.6,0.534
7.08,31966.3,35195.1,-0.5653,2.3394,144.9,96.6,0.534
7.1,32223.3,35128.2,3.7413,1.5357,144.9,96.6,0.534
7.12,32061.8,35164.9,1.035,1.9763,144.9,96.6,0.534
7.14,32038.9,35225.2,0.651,2.7014,144.9,96.6,0.534
7.16,32001.0,35057.5,0.0161,0.6867,144.9,96.6,0.534
7.18,31979.4,34983.8,-0.3446,-0.1991,144.9,96.6,0.534
7.2,31996.7,35018.9,-0.0547,0.2223,144.9,96.6,0.534
7.22,31987.8,34974.9,-0.2042,-0.3067,144.9,96.6,0.534
7.24,31965.2,35056.2,-0.5838,0.6704,144.9,96.6,0.534
7.26,31987.5,34974.5,-0.2096,-0.3114,144.9,96.6,0.534
7.28,31939.7,34966.2,-1.0106,-0.4108,144.9,96.6,0.534
7.3,31988.9,35048.6,-0.1856,0.5797,144.9,96.6,0.534
7.32,31991.3,34948.5,-0.1451,-0.6241,144.9,96.6,0.534
7.34,31979.2,34897.8,-0.3481,-1.2325,144.9,96.6,0.534
7.36,31916.0,34982.6,-1.4079,-0.2134,144.9,96.6,0.534
7.38,31973.2,34916.1,-0.4492,-1.0134,144.9,96.6,0.534
7.4,31973.7,34903.6,-0.44,-1.1626,144.9,96.6,0.534
7.42,31998.3,34921.5,-0.0285,-0.9477,144.9,96.6,0.534
7.44,32010.5,34980.5,0.1757,-0.2395,144.9,96.6,0.534
7.46,32051.1,35016.6,0.8559,0.1949,144.9,96.6,0.534
7.48,32035.3,35120.6,0.5911,1.4446,144.9,96.6,0.534
7.5,32036.1,35073.1,0.604,0.8733,144.9,96.6,0.534
7.52,32131.0,35029.7,2.1945,0.3516,144.9,96.6,0.534
7.54,32094.7,35055.1,1.5864,0.6573,144.9,96.6,0.534
7.56,31982.0,35124.1,-0.3009,1.4864,144.9,96.6,0.534
7.58,31989.6,34954.1,-0.1747,-0.5562,144.9,96.6,0.534
7.6,31956.1,35075.1,-0.7348,0.8974,144.9,96.6,0.534
7.62,32038.2,34986.4,0.6403,-0.1676,144.9,96.6,0.534
7.64,32063.5,34966.7,1.0634,-0.4044,144.9,96.6,0.534
7.66,31955.2,35007.2,-0.751,0.0818,144.9,96.6,0.534
7.68,31995.3,34917.3,-0.0786,-0.9985,144.9,96.6,0.534
7.7,31943.3,34860.3,-0.9493,-1.6829,144.9,96.6,0.534
7.72,31923.6,34964.7,-1.2793,-0.4294,144.9,96.6,0.534
7.74,32005.0,35035.9,0.084,0.4269,144.9,96.6,0.534
7.76,31946.4,34880.9,-0.8986,-1.436,144.9,96.6,0.534
7.78,31973.4,34874.9,-0.4461,-1.5077,144.9,96.6,0.534
7.8,31968.1,34827.4,-0.5351,-2.0783,144.9,96.6,0.534
7.82,32000.4,34949.3,0.0062,-0.6143,144.9,96.6,0.534
7.84,31970.8,34985.4,-0.49,-0.18,144.9,96.6,0.534
7.86,31958.3,35009.8,-0.6989,0.1133,144.9,96.6,0.534
7.88,32023.0,35110.9,0.3848,1.3278,144.9,96.6,0.534
7.9,32052.1,35118.9,0.8734,1.4241,144.9,96.6,0.534
7.92,32039.6,35148.8,0.6634,1.7833,144.9,96.6,0.534
7.94,32036.8,35090.2,0.616,1.0785,144.9,96.6,0.534
7.96,32031.4,35149.6,0.5254,1.7934,144.9,96.6,0.534
7.98,31962.6,35093.0,-0.6262,1.1125,144.9,96.6,0.534
8.0,32053.8,35020.4,0.9017,0.2401,144.9,96.6,0.534
8.02,31972.8,34976.7,-0.4554,-0.2849,144.9,96.6,0.534
8.04,31986.0,34907.1,-0.2348,-1.1211,144.9,96.6,0.534
8.06,32020.9,34949.5,0.3504,-0.6114,144.9,96.6,0.534
8.08,32036.8,34894.6,0.6171,-1.2714,144.9,96.6,0.534
8.1,31990.0,34877.6,-0.1668,-1.475,144.9,96.6,0.534
8.12,31950.3,35032.3,-0.8334,0.3829,144.9,96.6,0.534
8.14,31975.9,34946.0,-0.4036,-0.6539,144.9,96.6,0.534
8.16,32022.3,34976.4,0.3735,-0.2883,144.9,96.6,0.534
8.18,31787.5,34955.5,-3.5595,-0.5393,144.9,96.6,0.534
8.2,31940.7,34821.6,-0.9943,-2.1478,144.9,96.6,0.534
8.22,31950.4,34886.1,-0.8314,-1.3734,144.9,96.6,0.534
8.24,31948.2,35026.9,-0.8686,0.3189,144.9,96.6,0.534
8.26,31989.5,34981.2,-0.1758,-0.2312,144.9,96.6,0.534
8.28,31914.6,35140.0,-1.4305,1.677,144.9,96.6,0.534
8.3,31979.5,35025.5,-0.3433,0.3015,144.9,96.6,0.534
8.32,31953.7,35098.4,-0.7764,1.1775,144.9,96.6,0.534
8.34,32012.5,35045.3,0.2092,0.539,144.9,96.6,0.534
8.36,32025.6,35188.1,0.4289,2.2548,144.9,96.6,0.534
8.38,31995.1,35141.0,-0.0825,1.6891,144.9,96.6,0.534
8.4,32012.6,34993.2,0.2113,-0.087,144.9,96.6,0.534
8.42,32067.3,34960.9,1.1275,-0.4747,144.9,96.6,0.534
8.44,31973.2,35060.2,-0.4488,0.7191,144.9,96.6,0.534
8.46,32056.9,34994.9,0.9536,-0.0666,144.9,96.6,0.534
8.48,32102.0,34977.6,1.709,-0.2734,144.9,96.6,0.534
8.5,31950.1,34965.1,-0.8366,-0.4246,144.9,96.6,0.534
8.52,32068.8,34990.8,1.1519,-0.1149,144.9,96.6,0.534
8.54,32009.2,34946.1,0.1534,-0.653,144.9,96.6,0.534
8.56,31965.0,34924.9,-0.5866,-0.9071,144.9,96.6,0.534
8.58,32026.7,34931.2,0.447,-0.832,144.9,96.6,0.534
8.6,32000.3,34826.9,0.0047,-2.0843,144.9,96.6,0.534
8.62,32007.9,34876.0,0.132,-1.4949,144.9,96.6,0.534
8.64,31943.2,34850.5,-0.9514,-1.801,144.9,96.6,0.534
8.66,31980.1,34980.5,-0.3341,-0.2394,144.9,96.6,0.534
8.68,32079.8,34943.4,1.3374,-0.6844,144.9,96.6,0.534
8.7,32049.6,35043.6,0.8305,0.5186,144.9,96.6,0.534
8.72,32074.5,35154.1,1.2478,1.8471,144.9,96.6,0.534
8.74,32040.3,35170.9,0.6748,2.049,144.9,96.6,0.534
8.76,32005.1,35071.3,0.0852,0.8518,144.9,96.6,0.534
8.78,32027.0,35054.8,0.452,0.6542,144.9,96.6,0.534
8.8,32028.6,35014.7,0.4791,0.1718,144.9,96.6,0.534
8.82,31969.5,35077.7,-0.5109,0.9293,144.9,96.6,0.534
8.84,32042.9,35146.0,0.7195,1.7498,144.9,96.6,0.534
8.86,32013.4,35022.5,0.2243,0.2653,144.9,96.6,0.534
8.88,32059.2,34990.2,0.9919,-0.123,144.9,96.6,0.534
8.9,32048.6,34969.5,0.8148,-0.3716,144.9,96.6,0.534
8.92,31959.4,34896.5,-0.6805,-1.2485,144.9,96.6,0.534
8.94,31999.2,34801.1,-0.0143,-2.3942,144.9,96.6,0.534
8.96,32039.6,34965.0,0.6632,-0.4251,144.9,96.6,0.534
8.98,31982.0,34992.9,-0.3019,-0.0903,144.9,96.6,0.534
9.0,31846.1,34957.5,-2.5781,-0.5152,144.9,96.6,0.534
9.02,31937.0,34878.4,-1.0562,-1.4657,144.9,96.6,0.534
9.04,31950.3,34887.2,-0.8324,-1.3603,144.9,96.6,0.534
9.06,31937.4,34919.6,-1.0496,-0.9705,144.9,96.6,0.534
9.08,32035.5,34955.2,0.5954,-0.543,144.9,96.6,0.534
9.1,32076.6,34912.3,1.2826,-1.0588,144.9,96.6,0.534
9.12,32046.4,35105.6,0.7767,1.2647,144.9,96.6,0.534
9.14,31956.6,35083.2,-0.7264,0.9948,144.9,96.6,0.534
9.16,32093.9,35175.5,1.5726,2.1038,144.9,96.6,0.534
9.18,32035.6,35260.7,0.5958,3.128,144.9,96.6,0.534
9.2,32038.8,35085.6,0.6493,1.0242,144.9,96.6,0.534
9.22,32100.7,34991.2,1.6862,-0.1107,144.9,96.6,0.534
9.24,32025.8,35048.5,0.4326,0.5778,144.9,96.6,0.534
9.26,31972.1,35077.3,-0.4678,0.9245,144.9,96.6,0.534
9.28,32122.2,35049.9,2.0471,0.5947,144.9,96.6,0.534
9.3,32010.7,35001.1,0.1792,0.0081,144.9,96.6,0.534
9.32,31955.4,34982.0,-0.7477,-0.2206,144.9,96.6,0.534
9.34,31963.8,35022.2,-0.6064,0.262,144.9,96.6,0.534
9.36,31918.7,34914.6,-1.3618,-1.0304,144.9,96.6,0.534
9.38,32067.1,34930.0,1.1244,-0.8464,144.9,96.6,0.534
9.4,32006.1,34861.4,0.1013,-1.6707,144.9,96.6,0.534
9.42,32007.1,34937.0,0.1193,-0.7618,144.9,96.6,0.534
9.44,31949.8,34949.4,-0.8409,-0.6124,144.9,96.6,0.534
9.46,32010.2,34936.6,0.1714,-0.7665,144.9,96.6,0.534
9.48,32016.0,34846.2,0.2682,-1.8531,144.9,96.6,0.534
9.5,32028.8,35035.7,0.4832,0.4236,144.9,96.6,0.534
9.52,32111.9,35078.9,1.8752,0.943,144.9,96.6,0.534
9.54,32007.2,35171.0,0.1202,2.0498,144.9,96.6,0.534
9.56,32115.2,35149.3,1.9306,1.7886,144.9,96.6,0.534
9.58,32058.4,35047.3,0.9781,0.5636,144.9,96.6,0.534
9.6,32040.6,35132.3,0.6809,1.5852,144.9,96.6,0.534
9.62,32050.3,35062.6,0.8432,0.7473,144.9,96.6,0.534
9.64,32009.8,35061.5,0.164,0.7338,144.9,96.6,0.534
9.66,31986.8,35010.8,-0.2217,0.1251,144.9,96.6,0.534
9.68,31992.4,35059.1,-0.1282,0.705,144.9,96.6,0.534
9.7,31959.4,35032.8,-0.6802,0.3896,144.9,96.6,0.534
9.72,31954.1,34995.7,-0.7689,-0.0565,144.9,96.6,0.534
9.74,31925.7,34971.0,-1.2457,-0.3532,144.9,96.6,0.534
9.76,31937.5,34818.1,-1.0477,-2.1899,144.9,96.6,0.534
9.78,32022.0,34911.5,0.3691,-1.0684,144.9,96.6,0.534
9.8,31933.2,34921.4,-1.119,-0.9491,144.9,96.6,0.534
9.82,31981.8,34886.5,-0.3053,-1.369,144.9,96.6,0.534
9.84,31969.6,34912.9,-0.5093,-1.0519,144.9,96.6,0.534
9.86,31970.9,34921.1,-0.4869,-0.9523,144.9,96.6,0.534
9.88,31953.4,34833.5,-0.7803,-2.0055,144.9,96.6,0.534
9.9,31984.2,34955.1,-0.2645,-0.5438,144.9,96.6,0.534
9.92,32016.4,34880.0,0.2746,-1.4467,144.9,96.6,0.534
9.94,32064.2,35149.4,1.0751,1.7909,144.9,96.6,0.534
9.96,32035.3,35128.4,0.5913,1.5379,144.9,96.6,0.534
9.98,32013.7,35129.9,0.2298,1.5561,144.9,96.6,0.534
10.0,31986.1,35101.0,-0.2331,1.2092,144.9,96.6,0.534
10.02,31989.4,35112.7,-0.1772,1.349,144.9,96.6,0.534
10.04,32051.0,35000.7,0.8545,0.0032,144.9,96.6,0.534
10.06,31974.4,34984.3,-0.4296,-0.1935,144.9,96.6,0.534
10.08,31992.4,34987.0,-0.1274,-0.1605,144.9,96.6,0.534
10.1,31994.9,34965.8,-0.0853,-0.4159,144.9,96.6,0.534
10.12,31969.5,34950.2,-0.5118,-0.6033,144.9,96.6,0.534
10.14,31973.6,35023.8,-0.4427,0.2808,144.9,96.6,0.534
10.16,31920.3,34966.2,-1.3346,-0.4106,144.9,96.6,0.534
10.18,31882.3,34946.0,-1.9729,-0.6533,144.9,96.6,0.534
10.2,31908.5,34872.4,-1.5338,-1.5386,144.9,96.6,0.534
10.22,31987.5,35025.4,-0.2097,0.3009,144.9,96.6,0.534
10.24,31945.4,34916.3,-0.9156,-1.01,144.9,96.6,0.534
10.26,31984.1,34899.1,-0.2661,-1.217,144.9,96.6,0.534
10.28,31883.0,34945.2,-1.9602,-0.6638,144.9,96.6,0.534
10.3,31951.3,34959.9,-0.816,-0.4866,144.9,96.6,0.534
10.32,31894.7,34965.4,-1.764,-0.4206,144.9,96.6,0.534
10.34,32055.6,35042.3,0.932,0.5039,144.9,96.6,0.534
10.36,31990.3,35146.1,-0.1632,1.7502,144.9,96.6,0.534
10.38,32035.4,35108.4,0.5938,1.2984,144.9,96.6,0.534
10.4,32053.5,35116.1,0.8955,1.3903,144.9,96.6,0.534
10.42,32017.6,35055.3,0.2946,0.6593,144.9,96.6,0.534
10.44,32001.4,35099.2,0.0238,1.1867,144.9,96.6,0.534
10.46,32014.9,35098.3,0.2493,1.176,144.9,96.6,0.534
10.48,31996.8,35040.3,-0.0532,0.4795,144.9,96.6,0.534
10.5,31987.5,34945.9,-0.2087,-0.6544,144.9,96.6,0.534
10.52,31946.0,35024.8,-0.9047,0.2929,144.9,96.6,0.534
10.54,32046.8,34925.8,0.7845,-0.8959,144.9,96.6,0.534
10.56,32029.5,34967.4,0.4941,-0.3964,144.9,96.6,0.534
10.58,32029.6,34914.6,0.4952,-1.0309,144.9,96.6,0.534
10.6,32039.5,35008.8,0.6616,0.1007,144.9,96.6,0.534
10.62,31965.1,34922.7,-0.5848,-0.934,144.9,96.6,0.534
10.64,32026.3,34976.8,0.4401,-0.284,144.9,96.6,0.534
10.66,32004.9,34922.7,0.0825,-0.9336,144.9,96.6,0.534
10.68,31818.6,34899.1,-3.0394,-1.2171,144.9,96.6,0.534
10.7,32029.0,34880.9,0.4856,-1.436,144.9,96.6,0.534
10.72,31960.7,34822.0,-0.6577,-2.1433,144.9,96.6,0.534
10.74,32004.3,34979.8,0.0719,-0.2469,144.9,96.6,0.534
10.76,32113.2,34999.1,1.8964,-0.015,144.9,96.6,0.534
10.78,32056.0,35077.8,0.9389,0.9296,144.9,96.6,0.534
10.8,32052.2,35157.8,0.8745,1.8911,144.9,96.6,0.534
10.82,32094.9,35139.6,1.5898,1.6722,144.9,96.6,0.534
10.84,31992.7,35119.3,-0.1218,1.4293,144.9,96.6,0.534
10.86,32056.3,35182.3,0.9431,2.1862,144.9,96.6,0.534
10.88,31989.2,35063.5,-0.1815,0.7584,144.9,96.6,0.534
10.9,31916.7,34899.0,-1.3952,-1.2187,144.9,96.6,0.534
10.92,32009.7,35061.8,0.1631,0.7374,144.9,96.6,0.534
10.94,32035.9,35011.3,0.6006,0.1309,144.9,96.6,0.534
10.96,32030.0,35013.8,0.5031,0.1616,144.9,96.6,0.534
10.98,32007.6,35020.4,0.1272,0.2407,144.9,96.6,0.534
11.0,31983.4,35040.0,-0.2779,0.4761,144.9,96.6,0.534
11.02,31924.6,34975.9,-1.2641,-0.2941,144.9,96.6,0.534
11.04,31971.7,34950.9,-0.4749,-0.5942,144.9,96.6,0.534
11.06,32000.1,34933.3,0.0023,-0.8064,144.9,96.6,0.534
11.08,31919.9,34969.2,-1.3416,-0.3751,144.9,96.6,0.534
11.1,31956.0,35041.0,-0.7379,0.4874,144.9,96.6,0.534
11.12,31961.3,34905.2,-0.6479,-1.1436,144.9,96.6,0.534
11.14,32014.6,34943.2,0.2444,-0.6873,144.9,96.6,0.534
11.16,32049.4,34950.1,0.8279,-0.6038,144.9,96.6,0.534
11.18,31945.5,34984.5,-0.9125,-0.191,144.9,96.6,0.534
11.2,32031.4,35162.3,0.5262,1.9454,144.9,96.6,0.534
11.22,32006.5,35059.3,0.109,0.7082,144.9,96.6,0.534
11.24,32061.5,35044.5,1.0303,0.5299,144.9,96.6,0.534
11.26,31996.5,35100.5,-0.0581,1.203,144.9,96.6,0.534
11.28,32066.1,35102.7,1.1066,1.2294,144.9,96.6,0.534
11.3,32063.2,35008.4,1.0585,0.0967,144.9,96.6,0.534
11.32,31910.5,35032.4,-1.4998,0.3851,144.9,96.6,0.534
11.34,32008.6,35141.0,0.144,1.6896,144.9,96.6,0.534
11.36,31958.3,34986.8,-0.6989,-0.1631,144.9,96.6,0.534
11.38,31987.4,34975.4,-0.2117,-0.3005,144.9,96.6,0.534
11.4,31974.3,34962.6,-0.4308,-0.4546,144.9,96.6,0.534
11.42,31979.0,34874.3,-0.3526,-1.5156,144.9,96.6,0.534
11.44,32008.1,34887.1,0.1355,-1.3618,144.9,96.6,0.534
11.46,31950.9,35011.8,-0.823,0.1376,144.9,96.6,0.534
11.48,31959.9,34833.4,-0.6722,-2.007,144.9,96.6,0.534
11.5,31978.8,34827.6,-0.3555,-2.0758,144.9,96.6,0.534
11.52,31911.4,34811.4,-1.4839,-2.2709,144.9,96.6,0.534
11.54,31817.6,35003.9,-3.0566,0.0416,144.9,96.6,0.534
11.56,31963.8,34876.3,-0.6058,-1.4912,144.9,96.6,0.534
11.58,31933.3,34949.3,-1.1181,-0.6135,144.9,96.6,0.534
11.6,32027.3,35045.7,0.4576,0.5449,144.9,96.6,0.534
11.62,32061.5,35176.3,1.0298,2.1138,144.9,96.6,0.534
11.64,32098.7,35048.9,1.654,0.583,144.9,96.6,0.534
11.66,31971.9,35172.6,-0.4701,2.0696,144.9,96.6,0.534
11.68,31978.9,35107.2,-0.3539,1.2829,144.9,96.6,0.534
11.7,32004.0,35075.9,0.0665,0.9073,144.9,96.6,0.534
11.72,32025.4,35049.4,0.4257,0.5883,144.9,96.6,0.534
11.74,32054.6,35004.2,0.9139,0.046,144.9,96.6,0.534
11.76,31959.4,35004.0,-0.68,0.0435,144.9,96.6,0.534
11.78,32010.3,35082.9,0.1728,0.9912,144.9,96.6,0.534
11.8,32061.9,34973.9,1.0368,-0.3179,144.9,96.6,0.534
11.82,31914.0,34984.6,-1.4405,-0.1897,144.9,96.6,0.534
11.84,31989.3,35087.7,-0.1797,1.0489,144.9,96.6,0.534
11.86,32063.0,34942.1,1.055,-0.7009,144.9,96.6,0.534
11.88,31955.3,34933.8,-0.7482,-0.8003,144.9,96.6,0.534
11.9,31932.0,34896.7,-1.1399,-1.2456,144.9,96.6,0.534
11.92,32027.8,34940.1,0.4651,-0.7239,144.9,96.6,0.534
11.94,31956.3,34854.6,-0.732,-1.7518,144.9,96.6,0.534
11.96,32003.9,34927.4,0.0649,-0.8775,144.9,96.6,0.534
11.98,32055.7,34934.3,0.9327,-0.7942,144.9,96.6,0.534
12.0,32004.8,34917.8,0.0797,-0.9921,144.9,96.6,0.534
12.02,32047.0,35045.6,0.7876,0.5427,144.9,96.6,0.534
12.04,32107.6,35119.5,1.8019,1.4312,144.9,96.6,0.534
12.06,32042.8,35190.0,0.7162,2.2777,144.9,96.6,0.534
12.08,31993.4,35142.8,-0.1114,1.7105,144.9,96.6,0.534
12.1,32119.2,35059.5,1.9962,0.7103,144.9,96.6,0.534
12.12,32034.5,35043.3,0.5772,0.5155,144.9,96.6,0.534
12.14,31947.9,34990.3,-0.873,-0.1215,144.9,96.6,0.534
12.16,31998.0,35123.7,-0.0329,1.4816,144.9,96.6,0.534
12.18,31974.7,35005.4,-0.4231,0.0599,144.9,96.6,0.534
12.2,31979.6,34998.6,-0.3421,-0.0216,144.9,96.6,0.534
12.22,31987.8,34990.7,-0.2046,-0.1165,144.9,96.6,0.534
12.24,31979.1,34899.8,-0.3499,-1.2091,144.9,96.6,0.534
12.26,31965.9,34908.3,-0.571,-1.1069,144.9,96.6,0.534
12.28,31970.8,34921.6,-0.4885,-0.9473,144.9,96.6,0.534
12.3,31916.7,34961.0,-1.3958,-0.4735,144.9,96.6,0.534
12.32,31925.7,34995.0,-1.2456,-0.0651,144.9,96.6,0.534
12.34,31981.9,34892.8,-0.3039,-1.2923,144.9,96.6,0.534
12.36,31922.3,34976.6,-1.3016,-0.2863,144.9,96.6,0.534
12.38,31957.2,35004.9,-0.7179,0.0544,144.9,96.6,0.534
12.4,31977.1,34885.7,-0.3833,-1.3787,144.9,96.6,0.534
12.42,32048.0,34963.7,0.8048,-0.4411,144.9,96.6,0.534
12.44,32033.9,35032.6,0.5671,0.3875,144.9,96.6,0.534
12.46,32073.2,35156.9,1.2263,1.8802,144.9,96.6,0.534
12.48,32008.8,35138.8,0.1477,1.6634,144.9,96.6,0.534
12.5,32021.2,35156.0,0.3557,1.8701,144.9,96.6,0.534
12.52,31934.1,35046.5,-1.1048,0.5535,144.9,96.6,0.534
12.54,32053.7,35030.5,0.8989,0.3612,144.9,96.6,0.534
12.56,32041.9,34996.4,0.7027,-0.0486,144.9,96.6,0.534
12.58,32007.7,35093.2,0.1297,1.115,144.9,96.6,0.534
12.6,31933.3,35052.0,-1.1183,0.62,144.9,96.6,0.534
12.62,32015.9,35136.4,0.2662,1.6342,144.9,96.6,0.534
12.64,31961.0,34978.7,-0.6532,-0.2611,144.9,96.6,0.534
12.66,31995.8,34973.7,-0.0698,-0.3212,144.9,96.6,0.534
12.68,31908.6,34901.4,-1.5318,-1.1899,144.9,96.6,0.534
12.7,31972.5,35040.6,-0.4609,0.4829,144.9,96.6,0.534
12.72,32020.8,34933.9,0.3484,-0.7986,144.9,96.6,0.534
12.74,31984.1,34967.6,-0.2673,-0.394,144.9,96.6,0.534
12.76,31941.6,34915.0,-0.9781,-1.026,144.9,96.6,0.534
12.78,31974.5,34903.1,-0.4274,-1.1694,144.9,96.6,0.534
12.8,31934.9,34900.0,-1.09,-1.2068,144.9,96.6,0.534
12.82,32064.7,34924.5,1.0847,-0.912,144.9,96.6,0.534
12.84,32034.9,35020.3,0.5848,0.2396,144.9,96.6,0.534
12.86,32070.6,35167.7,1.1826,2.0098,144.9,96.6,0.534
12.88,32072.7,35176.8,1.2186,2.1193,144.9,96.6,0.534
12.9,32072.7,35070.3,1.2179,0.84,144.9,96.6,0.534
12.92,32077.2,35175.9,1.2927,2.1091,144.9,96.6,0.534
12.94,32057.2,35012.6,0.9575,0.1465,144.9,96.6,0.534
12.96,31992.1,35161.5,-0.132,1.9354,144.9,96.6,0.534
12.98,31946.7,34929.1,-0.8929,-0.8566,144.9,96.6,0.534
13.0,32059.0,34927.5,0.9887,-0.8758,144.9,96.6,0.534
13.02,32039.3,34976.8,0.6587,-0.2839,144.9,96.6,0.534
13.04,31975.6,35016.2,-0.4083,0.1903,144.9,96.6,0.534
13.06,32006.6,35037.9,0.1106,0.451,144.9,96.6,0.534
13.08,31998.5,35027.6,-0.0246,0.3272,144.9,96.6,0.534
13.1,31894.1,34907.1,-1.7745,-1.1215,144.9,96.6,0.534
13.12,31982.9,34874.0,-0.2859,-1.5186,144.9,96.6,0.534
13.14,32027.9,34952.5,0.4669,-0.5753,144.9,96.6,0.534
13.16,31922.9,34922.3,-1.2913,-0.9379,144.9,96.6,0.534
13.18,31939.1,34882.3,-1.0201,-1.4188,144.9,96.6,0.534
13.2,32022.8,34905.9,0.3815,-1.1358,144.9,96.6,0.534
13.22,32056.8,34974.3,0.9511,-0.3141,144.9,96.6,0.534
13.24,32008.2,35025.7,0.1375,0.3042,144.9,96.6,0.534
13.26,31967.9,35037.3,-0.5385,0.4436,144.9,96.6,0.534
13.28,32028.0,35065.6,0.4688,0.7839,144.9,96.6,0.534
13.3,32114.2,35130.4,1.9139,1.5625,144.9,96.6,0.534
13.32,32066.2,35146.7,1.1089,1.7582,144.9,96.6,0.534
13.34,32128.0,35016.6,2.1441,0.1946,144.9,96.6,0.534
13.36,32058.8,35035.7,0.9855,0.4236,144.9,96.6,0.534
13.38,32055.5,35025.3,0.9292,0.2989,144.9,96.6,0.534
13.4,32057.7,35075.5,0.9663,0.9021,144.9,96.6,0.534
13.42,31976.7,35035.3,-0.3903,0.4197,144.9,96.6,0.534
13.44,31953.6,35029.6,-0.7775,0.351,144.9,96.6,0.534
13.46,31979.7,34935.0,-0.341,-0.7852,144.9,96.6,0.534
13.48,32016.0,34930.4,0.2676,-0.8408,144.9,96.6,0.534
13.5,31998.0,34985.5,-0.0341,-0.1792,144.9,96.6,0.534
13.52,31941.5,34981.9,-0.9809,-0.2223,144.9,96.6,0.534
13.54,32004.8,34957.2,0.0811,-0.5194,144.9,96.6,0.534
13.56,32002.5,34939.2,0.0414,-0.735,144.9,96.6,0.534
13.58,31969.5,34906.9,-0.5114,-1.1236,144.9,96.6,0.534
13.6,31901.3,34891.6,-1.6542,-1.3067,144.9,96.6,0.534
13.62,32017.9,34915.2,0.3,-1.0238,144.9,96.6,0.534
13.64,31919.9,34975.3,-1.3418,-0.3019,144.9,96.6,0.534
13.66,32042.5,34937.1,0.7125,-0.7602,144.9,96.6,0.534
13.68,32013.6,35103.0,0.2286,1.2325,144.9,96.6,0.534
13.7,32101.6,35128.6,1.7025,1.5406,144.9,96.6,0.534
13.72,32112.7,35020.6,1.8876,0.2422,144.9,96.6,0.534
13.74,32010.1,35046.1,0.1685,0.5497,144.9,96.6,0.534
13.76,32044.5,35106.5,0.7448,1.2744,144.9,96.6,0.534
13.78,31966.2,35055.5,-0.5658,0.6622,144.9,96.6,0.534
13.8,31969.3,35044.3,-0.5141,0.5276,144.9,96.6,0.534
13.82,32053.2,35023.0,0.8914,0.2717,144.9,96.6,0.534
13.84,31987.1,35026.0,-0.2168,0.3077,144.9,96.6,0.534
13.86,32016.6,35036.1,0.2788,0.4285,144.9,96.6,0.534
13.88,31860.0,34966.8,-2.3457,-0.4036,144.9,96.6,0.534
13.9,31958.4,34946.8,-0.6964,-0.6442,144.9,96.6,0.534
13.92,32004.5,34945.1,0.075,-0.6647,144.9,96.6,0.534
13.94,31919.6,34934.3,-1.3469,-0.7944,144.9,96.6,0.534
13.96,31985.7,34917.0,-0.2405,-1.0026,144.9,96.6,0.534
13.98,32009.2,35060.0,0.1534,0.7163,144.9,96.6,0.534
14.0,31931.6,34864.6,-1.1468,-1.6323,144.9,96.6,0.534
14.02,31882.3,34889.1,-1.9723,-1.3377,144.9,96.6,0.534
14.04,31952.6,34980.7,-0.7936,-0.2363,144.9,96.6,0.534
14.06,31950.2,34875.5,-0.8342,-1.5004,144.9,96.6,0.534
14.08,32046.0,35073.7,0.77,0.881,144.9,96.6,0.534
14.1,31978.2,35068.2,-0.3659,0.8149,144.9,96.6,0.534
14.12,32112.7,35294.9,1.8884,3.5393,144.9,96.6,0.534
14.14,31955.4,35040.4,-0.747,0.4803,144.9,96.6,0.534
14.16,31963.4,35129.2,-0.6137,1.548,144.9,96.6,0.534
14.18,31997.2,35057.6,-0.0463,0.6873,144.9,96.6,0.534
14.2,32042.2,35026.6,0.7065,0.3152,144.9,96.6,0.534
14.22,32013.3,35087.8,0.2224,1.0505,144.9,96.6,0.534
14.24,31962.5,35047.6,-0.6283,0.5669,144.9,96.6,0.534
14.26,32025.8,34957.5,0.4321,-0.5157,144.9,96.6,0.534
14.28,32039.7,34994.1,0.6657,-0.0754,144.9,96.6,0.534
14.3,32019.1,34895.7,0.3195,-1.2583,144.9,96.6,0.534
14.32,32048.0,34992.9,0.8039,-0.0903,144.9,96.6,0.534
14.34,32017.1,34897.7,0.2871,-1.2344,144.9,96.6,0.534
14.36,31941.6,35034.7,-0.9793,0.4122,144.9,96.6,0.534
14.38,31948.8,34834.4,-0.8584,-1.9951,144.9,96.6,0.534
14.4,31862.0,34913.8,-2.3117,-1.0409,144.9,96.6,0.534
14.42,31906.1,34911.9,-1.5737,-1.0631,144.9,96.6,0.534
14.44,31887.8,34885.0,-1.8805,-1.3861,144.9,96.6,0.534
14.46,31999.3,34965.2,-0.0125,-0.4234,144.9,96.6,0.534
14.48,32081.4,35038.0,1.3639,0.4516,144.9,96.6,0.534
14.5,32119.2,35020.3,1.9972,0.2387,144.9,96.6,0.534
14.52,32036.9,35102.6,0.6176,1.2282,144.9,96.6,0.534
14.54,32030.3,35176.4,0.5075,2.1153,144.9,96.6,0.534
14.56,32077.7,35150.9,1.3025,1.8089,144.9,96.6,0.534
14.58,32022.0,35081.4,0.3679,0.9737,144.9,96.6,0.534
14.6,32055.1,35022.6,0.9229,0.2666,144.9,96.6,0.534
14.62,31956.1,35056.4,-0.7349,0.6733,144.9,96.6,0.534
14.64,32058.5,35030.3,0.9807,0.359,144.9,96.6,0.534
14.66,31934.5,34947.4,-1.097,-0.6365,144.9,96.6,0.534
14.68,32078.2,34979.2,1.3097,-0.2551,144.9,96.6,0.534
14.7,31983.0,34974.5,-0.2857,-0.311,144.9,96.6,0.534
14.72,31948.1,34923.9,-0.8692,-0.9193,144.9,96.6,0.534
14.74,32046.9,34912.7,0.7855,-1.0542,144.9,96.6,0.534
14.76,31860.0,34962.2,-2.3455,-0.4594,144.9,96.6,0.534
14.78,31908.9,34860.1,-1.5272,-1.6855,144.9,96.6,0.534
14.8,32018.1,34980.3,0.3037,-0.2416,144.9,96.6,0.534
14.82,31958.3,34831.0,-0.698,-2.0358,144.9,96.6,0.534
14.84,31914.9,34878.4,-1.4252,-1.4665,144.9,96.6,0.534
14.86,32042.3,34990.1,0.7079,-0.1232,144.9,96.6,0.534
14.88,31961.9,34952.8,-0.6392,-0.5716,144.9,96.6,0.534
14.9,31997.4,35073.4,-0.0433,0.8772,144.9,96.6,0.534
14.92,32060.0,35018.6,1.0058,0.2185,144.9,96.6,0.534
14.94,32051.4,35197.9,0.8603,2.3729,144.9,96.6,0.534
14.96,32136.8,35070.1,2.2912,0.8379,144.9,96.6,0.534
14.98,32083.0,35085.5,1.3903,1.023,144.9,96.6,0.534
15.0,32081.9,35116.8,1.3728,1.3985,144.9,96.6,0.534
15.02,31972.8,35040.2,-0.4551,0.4788,144.9,96.6,0.534
15.04,32011.3,35034.7,0.1885,0.412,144.9,96.6,0.534
15.06,31986.4,34929.5,-0.2277,-0.8525,144.9,96.6,0.534
15.08,32028.4,34959.2,0.4752,-0.4948,144.9,96.6,0.534
15.1,32057.7,34958.7,0.9664,-0.5015,144.9,96.6,0.534
15.12,31909.2,34999.7,-1.5214,-0.0082,144.9,96.6,0.534
15.14,31856.9,34995.8,-2.3978,-0.0554,144.9,96.6,0.534
15.16,31919.1,34972.2,-1.3549,-0.3389,144.9,96.6,0.534
15.18,31843.5,34969.7,-2.6225,-0.3686,144.9,96.6,0.534
15.2,32009.1,34931.6,0.1525,-0.8262,144.9,96.6,0.534
15.22,31983.0,34852.9,-0.2843,-1.7729,144.9,96.6,0.534
15.24,31907.6,34850.4,-1.5489,-1.8023,144.9,96.6,0.534
15.26,31892.0,34934.4,-1.8101,-0.7926,144.9,96.6,0.534
15.28,32030.6,34919.9,0.5132,-0.9678,144.9,96.6,0.534
15.3,31996.0,34936.5,-0.0669,-0.7683,144.9,96.6,0.534
15.32,32079.5,35084.6,1.3322,1.0114,144.9,96.6,0.534
15.34,31976.1,35112.9,-0.4,1.3523,144.9,96.6,0.534
15.36,32093.5,35157.9,1.5663,1.8926,144.9,96.6,0.534
15.38,31964.2,35182.1,-0.5998,2.1832,144.9,96.6,0.534
15.4,32002.8,35075.8,0.0464,0.9059,144.9,96.6,0.534
15.42,32064.4,35112.8,1.0794,1.3504,144.9,96.6,0.534
15.44,31997.2,35025.0,-0.0476,0.2959,144.9,96.6,0.534
15.46,32044.8,34993.5,0.7509,-0.0831,144.9,96.6,0.534
15.48,32050.0,35069.1,0.837,0.8251,144.9,96.6,0.534
15.5,32037.4,35012.4,0.6261,0.1445,144.9,96.6,0.534
15.52,32066.8,34959.1,1.1184,-0.4966,144.9,96.6,0.534
15.54,32069.1,35003.2,1.1582,0.0335,144.9,96.6,0.534
15.56,32051.6,34974.6,0.8644,-0.3105,144.9,96.6,0.534
15.58,31983.4,34996.3,-0.2787,-0.0487,144.9,96.6,0.534
15.6,32031.4,34940.2,0.5267,-0.7234,144.9,96.6,0.534
15.62,32032.0,34885.5,0.5356,-1.3801,144.9,96.6,0.534
15.64,31944.3,34910.7,-0.934,-1.078,144.9,96.6,0.534
15.66,31965.1,34941.1,-0.5844,-0.7124,144.9,96.6,0.534
15.68,31909.1,34991.5,-1.5234,-0.1064,144.9,96.6,0.534
15.7,31917.9,35005.6,-1.3759,0.0623,144.9,96.6,0.534
15.72,32046.0,34918.8,0.7702,-0.9801,144.9,96.6,0.534
15.74,32003.4,35014.0,0.0564,0.164,144.9,96.6,0.534
15.76,32115.0,35148.8,1.9264,1.783,144.9,96.6,0.534
15.78,31995.7,35201.2,-0.0723,2.4124,144.9,96.6,0.534
15.8,32098.0,35118.9,1.6411,1.424,144.9,96.6,0.534
15.82,31981.7,35183.3,-0.3061,2.1983,144.9,96.6,0.534
15.84,32083.9,35029.5,1.4059,0.3495,144.9,96.6,0.534
15.86,32006.0,35073.7,0.1,0.8811,144.9,96.6,0.534
15.88,31927.2,35085.1,-1.2203,1.0177,144.9,96.6,0.534
15.9,31894.1,35020.4,-1.7749,0.2402,144.9,96.6,0.534
15.92,32026.1,35061.7,0.4374,0.7366,144.9,96.6,0.534
15.94,31952.5,34959.0,-0.7956,-0.4972,144.9,96.6,0.534
15.96,31928.8,34969.0,-1.1931,-0.3777,144.9,96.6,0.534
15.98,32036.1,34912.1,0.6043,-1.0611,144.9,96.6,0.534
16.0,31934.9,34887.6,-1.0899,-1.3556,144.9,96.6,0.534
16.02,32025.1,35010.2,0.4205,0.1178,144.9,96.6,0.534
16.04,31980.2,34944.1,-0.3324,-0.6764,144.9,96.6,0.534
16.06,31956.3,34946.7,-0.7319,-0.6457,144.9,96.6,0.534
16.08,31950.9,34886.6,-0.8229,-1.3671,144.9,96.6,0.534
16.1,31923.0,34952.1,-1.2899,-0.5807,144.9,96.6,0.534
16.12,32011.6,34917.8,0.1945,-0.9929,144.9,96.6,0.534
16.14,31898.4,35041.5,-1.702,0.4935,144.9,96.6,0.534
16.16,32023.9,34977.6,0.3996,-0.2735,144.9,96.6,0.534
16.18,32075.1,35144.0,1.2581,1.7251,144.9,96.6,0.534
16.2,32092.9,35134.9,1.5566,1.6165,144.9,96.6,0.534
16.22,32023.7,35144.4,0.3963,1.7309,144.9,96.6,0.534
16.24,32080.5,35070.6,1.3481,0.8439,144.9,96.6,0.534
16.26,31955.5,35012.3,-0.7452,0.1431,144.9,96.6,0.534
16.28,31995.9,35040.3,-0.0692,0.4795,144.9,96.6,0.534
16.3,32022.3,35072.0,0.3737,0.8602,144.9,96.6,0.534
16.32,31967.8,34994.1,-0.5393,-0.0755,144.9,96.6,0.534
16.34,31941.9,34961.5,-0.9734,-0.4671,144.9,96.6,0.534
16.36,32039.5,34919.9,0.6621,-0.967,144.9,96.6,0.534
16.38,31956.4,34919.2,-0.7308,-0.9754,144.9,96.6,0.534
16.4,32017.9,34968.7,0.3,-0.3806,144.9,96.6,0.534
16.42,31997.8,34899.9,-0.0368,-1.207,144.9,96.6,0.534
16.44,32038.7,34952.1,0.6485,-0.5806,144.9,96.6,0.534
16.46,32010.1,34937.7,0.1691,-0.7533,144.9,96.6,0.534
16.48,31993.9,34944.4,-0.1031,-0.6734,144.9,96.6,0.534
16.5,31913.9,34884.3,-1.4429,-1.3951,144.9,96.6,0.534
16.52,31928.5,34907.8,-1.1982,-1.113,144.9,96.6,0.534
16.54,32016.7,34929.1,0.2802,-0.8564,144.9,96.6,0.534
16.56,32099.2,35030.2,1.6618,0.3586,144.9,96.6,0.534
16.58,32066.5,35042.3,1.1133,0.5036,144.9,96.6,0.534
16.6,32113.8,35082.9,1.906,0.9917,144.9,96.6,0.534
16.62,32019.3,35082.2,0.3225,0.9833,144.9,96.6,0.534
16.64,32050.1,35058.5,0.8394,0.6982,144.9,96.6,0.534
16.66,32080.5,35023.5,1.3484,0.2778,144.9,96.6,0.534
16.68,31996.6,34900.6,-0.0574,-1.1988,144.9,96.6,0.534
16.7,32011.8,35082.3,0.197,0.9838,144.9,96.6,0.534
16.72,32009.5,34937.7,0.1598,-0.7537,144.9,96.6,0.534
16.74,32005.5,35002.9,0.0929,0.03,144.9,96.6,0.534
16.76,32013.9,34993.3,0.2329,-0.0851,144.9,96.6,0.534
16.78,31954.2,34920.7,-0.7678,-0.9575,144.9,96.6,0.534
16.8,31968.2,34967.5,-0.5325,-0.3957,144.9,96.6,0.534
16.82,31889.1,34942.1,-1.8583,-0.7006,144.9,96.6,0.534
16.84,32077.8,34966.1,1.3033,-0.4115,144.9,96.6,0.534
16.86,31962.0,35022.1,-0.6362,0.2612,144.9,96.6,0.534
16.88,31906.8,34970.6,-1.5618,-0.3585,144.9,96.6,0.534
16.9,31873.2,34949.8,-2.1251,-0.6078,144.9,96.6,0.534
16.92,31924.5,34881.0,-1.2658,-1.4345,144.9,96.6,0.534
16.94,31929.3,34932.9,-1.184,-0.8116,144.9,96.6,0.534
16.96,31999.8,35012.8,-0.0035,0.1486,144.9,96.6,0.534
16.98,32038.5,35038.9,0.6444,0.4622,144.9,96.6,0.534
17.0,32080.6,35071.7,1.3498,0.8572,144.9,96.6,0.534
17.02,31953.0,35205.6,-0.7883,2.4652,144.9,96.6,0.534
17.04,32063.0,35096.7,1.0546,1.1575,144.9,96.6,0.534
17.06,31968.3,35014.6,-0.5307,0.1707,144.9,96.6,0.534
17.08,31947.1,35102.4,-0.8868,1.2257,144.9,96.6,0.534
17.1,31998.3,35002.6,-0.029,0.0259,144.9,96.6,0.534
17.12,32049.5,34955.6,0.83,-0.5386,144.9,96.6,0.534
17.14,31975.6,35099.6,-0.4095,1.1922,144.9,96.6,0.534
17.16,31969.7,35033.9,-0.5086,0.4023,144.9,96.6,0.534
17.18,31988.9,35098.9,-0.1862,1.1835,144.9,96.6,0.534
17.2,32020.8,34977.0,0.3489,-0.2807,144.9,96.6,0.534
17.22,31926.9,34960.5,-1.2241,-0.479,144.9,96.6,0.534
17.24,32008.7,34996.3,0.1458,-0.0492,144.9,96.6,0.534
17.26,32008.7,34954.8,0.1452,-0.5477,144.9,96.6,0.534
17.28,31943.8,34944.0,-0.9417,-0.6776,144.9,96.6,0.534
17.3,31893.5,34876.9,-1.7848,-1.4838,144.9,96.6,0.534
17.32,31967.7,34892.6,-0.542,-1.2956,144.9,96.6,0.534
17.34,32020.0,34964.5,0.3344,-0.4308,144.9,96.6,0.534
17.36,31901.6,35003.0,-1.6482,0.0312,144.9,96.6,0.534
17.38,32067.5,34939.1,1.1314,-0.7368,144.9,96.6,0.534
17.4,32006.4,35084.0,0.1075,1.0041,144.9,96.6,0.534
17.42,32019.6,35099.8,0.3285,1.1938,144.9,96.6,0.534
17.44,32074.6,35161.9,1.2493,1.9408,144.9,96.6,0.534
17.46,32017.6,34947.2,0.2945,-0.639,144.9,96.6,0.534
17.48,32018.9,35031.4,0.3167,0.372,144.9,96.6,0.534
17.5,31978.6,35027.0,-0.3581,0.3194,144.9,96.6,0.534
17.52,32016.5,34977.4,0.276,-0.2762,144.9,96.6,0.534
17.54,32041.8,35048.1,0.6998,0.5727,144.9,96.6,0.534
17.56,31918.1,34995.8,-1.373,-0.0547,144.9,96.6,0.534
17.58,31967.9,34992.8,-0.5371,-0.0916,144.9,96.6,0.534
17.6,32018.2,35043.9,0.3042,0.5231,144.9,96.6,0.534
17.62,31989.6,34970.9,-0.1748,-0.3549,144.9,96.6,0.534
17.64,32033.7,34950.1,0.5644,-0.6047,144.9,96.6,0.534
17.66,31941.9,34976.9,-0.9734,-0.2819,144.9,96.6,0.534
17.68,32024.0,34995.8,0.4028,-0.0553,144.9,96.6,0.534
17.7,31897.0,34889.8,-1.726,-1.3293,144.9,96.6,0.534
17.72,32081.0,34961.0,1.3563,-0.4738,144.9,96.6,0.534
17.74,32028.0,34873.1,0.4684,-1.5295,144.9,96.6,0.534
17.76,31936.5,34918.3,-1.0642,-0.9863,144.9,96.6,0.534
17.78,31934.5,34970.9,-1.0969,-0.3542,144.9,96.6,0.534
17.8,32053.5,35006.8,0.8961,0.0774,144.9,96.6,0.534
17.82,32064.8,35107.9,1.0855,1.2914,144.9,96.6,0.534
17.84,31995.8,35062.6,-0.0703,0.7472,144.9,96.6,0.534
17.86,32001.3,35102.4,0.0225,1.2262,144.9,96.6,0.534
17.88,31927.2,35129.8,-1.2191,1.5551,144.9,96.6,0.534
17.9,31930.9,35042.1,-1.158,0.5016,144.9,96.6,0.534
17.92,32127.1,35069.5,2.1293,0.8307,144.9,96.6,0.534
17.94,31978.6,35038.1,-0.3591,0.4535,144.9,96.6,0.534
17.96,32005.1,35124.2,0.0847,1.4879,144.9,96.6,0.534
17.98,32059.1,34950.7,0.99,-0.5972,144.9,96.6,0.534
18.0,32088.5,35024.5,1.483,0.2902,144.9,96.6,0.534
18.02,31990.1,34996.8,-0.166,-0.0438,144.9,96.6,0.534
18.04,31931.0,34953.4,-1.1565,-0.5644,144.9,96.6,0.534
18.06,32062.4,35065.1,1.0462,0.7777,144.9,96.6,0.534
18.08,32037.8,34877.6,0.6326,-1.4755,144.9,96.6,0.534
18.1,31921.9,34881.6,-1.3085,-1.4269,144.9,96.6,0.534
18.12,32022.8,34816.6,0.3812,-2.2082,144.9,96.6,0.534
18.14,31906.1,34863.9,-1.5726,-1.6407,144.9,96.6,0.534
18.16,32001.4,34949.2,0.0235,-0.6157,144.9,96.6,0.534
18.18,31998.3,34866.5,-0.0293,-1.6093,144.9,96.6,0.534
18.2,32034.7,35006.0,0.5804,0.067,144.9,96.6,0.534
18.22,32033.8,35064.1,0.5662,0.7658,144.9,96.6,0.534
18.24,32060.5,35055.2,1.0139,0.659,144.9,96.6,0.534
18.26,32062.7,35023.3,1.0503,0.2746,144.9,96.6,0.534
18.28,32099.5,35195.8,1.6662,2.3482,144.9,96.6,0.534
18.3,32133.1,35072.7,2.2292,0.8689,144.9,96.6,0.534
18.32,31976.7,35075.3,-0.391,0.9003,144.9,96.6,0.534
18.34,32054.9,35063.9,0.9194,0.7631,144.9,96.6,0.534
18.36,32070.9,35012.1,1.1879,0.14,144.9,96.6,0.534
18.38,31924.3,35052.5,-1.269,0.6261,144.9,96.6,0.534
18.4,32060.0,35010.5,1.0046,0.1215,144.9,96.6,0.534
18.42,32041.8,35052.5,0.7003,0.6262,144.9,96.6,0.534
18.44,32026.0,34985.2,0.4356,-0.1824,144.9,96.6,0.534
18.46,31938.7,34995.0,-1.027,-0.0645,144.9,96.6,0.534
18.48,32037.6,34946.8,0.6301,-0.6435,144.9,96.6,0.534
18.5,31926.8,34850.5,-1.2256,-1.8009,144.9,96.6,0.534
18.52,31950.5,34890.6,-0.8295,-1.3199,144.9,96.6,0.534
18.54,32045.8,34876.9,0.7669,-1.4833,144.9,96.6,0.534
18.56,31959.7,34912.0,-0.6752,-1.0618,144.9,96.6,0.534
18.58,32076.9,34869.2,1.2889,-1.577,144.9,96.6,0.534
18.6,32024.3,34896.8,0.4075,-1.2445,144.9,96.6,0.534
18.62,32039.5,35066.8,0.6613,0.7976,144.9,96.6,0.534
18.64,32136.7,35021.0,2.2896,0.2472,144.9,96.6,0.534
18.66,32022.6,35099.9,0.3781,1.1955,144.9,96.6,0.534
18.68,32066.4,35145.7,1.1122,1.7462,144.9,96.6,0.534
18.7,32048.2,35112.2,0.8067,1.3433,144.9,96.6,0.534
18.72,32062.0,35124.8,1.0391,1.4947,144.9,96.6,0.534
18.74,32041.9,35092.3,0.7023,1.1043,144.9,96.6,0.534
18.76,32090.9,35148.0,1.5221,1.7731,144.9,96.6,0.534
18.78,32086.4,34953.3,1.4475,-0.5654,144.9,96.6,0.534
18.8,32072.8,34956.8,1.2193,-0.5233,144.9,96.6,0.534
18.82,31940.6,34939.6,-0.9958,-0.73,144.9,96.6,0.534
18.84,32044.7,34969.4,0.7489,-0.3719,144.9,96.6,0.534
18.86,32029.5,34977.8,0.495,-0.2713,144.9,96.6,0.534
18.88,31998.1,34955.1,-0.0318,-0.5442,144.9,96.6,0.534
18.9,31969.0,34953.4,-0.5201,-0.5643,144.9,96.6,0.534
18.92,32041.1,34936.5,0.6892,-0.7681,144.9,96.6,0.534
18.94,31878.8,34953.5,-2.0302,-0.5639,144.9,96.6,0.534
18.96,32051.2,34959.4,0.8584,-0.4932,144.9,96.6,0.534
18.98,31860.7,34940.9,-2.3346,-0.7144,144.9,96.6,0.534
19.0,31945.8,34999.6,-0.9086,-0.0092,144.9,96.6,0.534
19.02,31952.8,34938.8,-0.7916,-0.74,144.9,96.6,0.534
19.04,32018.7,35021.1,0.3137,0.2483,144.9,96.6,0.534
19.06,31939.2,35068.3,-1.0182,0.8164,144.9,96.6,0.534
19.08,31995.5,35154.5,-0.076,1.852,144.9,96.6,0.534
19.1,32079.6,35098.2,1.333,1.1756,144.9,96.6,0.534
19.12,32045.2,35105.1,0.7574,1.2587,144.9,96.6,0.534
19.14,31935.3,35141.8,-1.084,1.6992,144.9,96.6,0.534
19.16,32073.6,35021.7,1.2333,0.2554,144.9,96.6,0.534
19.18,32003.3,34911.1,0.055,-1.0728,144.9,96.6,0.534
19.2,31998.7,35081.8,-0.0225,0.9777,144.9,96.6,0.534
19.22,31996.1,35041.1,-0.0659,0.4886,144.9,96.6,0.534
19.24,31989.3,34957.2,-0.179,-0.5188,144.9,96.6,0.534
19.26,32066.6,35033.3,1.1156,0.3954,144.9,96.6,0.534
19.28,31967.9,34940.0,-0.538,-0.7261,144.9,96.6,0.534
19.3,32003.9,35049.2,0.0645,0.5859,144.9,96.6,0.534
19.32,31954.4,34888.0,-0.7635,-1.3509,144.9,96.6,0.534
19.34,31979.1,34889.4,-0.3499,-1.334,144.9,96.6,0.534
19.36,31827.3,35097.7,-2.8934,1.1695,144.9,96.6,0.534
19.38,32060.8,34928.6,1.0181,-0.8626,144.9,96.6,0.534
19.4,31953.4,34894.4,-0.7816,-1.2739,144.9,96.6,0.534
19.42,31968.7,34941.2,-0.5247,-0.7115,144.9,96.6,0.534
19.44,31978.4,35020.8,-0.3621,0.2454,144.9,96.6,0.534
19.46,32051.3,35126.1,0.8598,1.5099,144.9,96.6,0.534
19.48,31995.3,34968.9,-0.0788,-0.378,144.9,96.6,0.534
19.5,32010.7,35143.7,0.1786,1.7225,144.9,96.6,0.534
19.52,32048.2,35008.8,0.8082,0.1009,144.9,96.6,0.534
19.54,32054.6,35050.2,0.9144,0.5979,144.9,96.6,0.534
19.56,32033.1,35150.4,0.5538,1.8027,144.9,96.6,0.534
19.58,32051.4,34905.6,0.8609,-1.1387,144.9,96.6,0.534
19.6,31984.0,35088.8,-0.2689,1.0626,144.9,96.6,0.534
19.62,32004.5,34955.5,0.0756,-0.5397,144.9,96.6,0.534
19.64,32027.5,35040.0,0.4603,0.4756,144.9,96.6,0.534
19.66,31929.9,34920.2,-1.1747,-0.9633,144.9,96.6,0.534
19.68,31941.6,34837.8,-0.9785,-1.9537,144.9,96.6,0.534
19.7,31953.2,34929.2,-0.7848,-0.8554,144.9,96.6,0.534
19.72,32175.7,35003.1,2.9436,0.0324,144.9,96.6,0.534
19.74,31942.8,34863.2,-0.9591,-1.6484,144.9,96.6,0.534
19.76,32036.2,34857.0,0.6072,-1.7228,144.9,96.6,0.534
19.78,31912.4,34889.1,-1.4683,-1.3372,144.9,96.6,0.534
19.8,31944.3,34904.1,-0.9332,-1.1568,144.9,96.6,0.534
19.82,31999.5,34893.1,-0.008,-1.289,144.9,96.6,0.534
19.84,31973.0,34966.7,-0.4519,-0.4046,144.9,96.6,0.534
19.86,32018.9,34977.4,0.3166,-0.2758,144.9,96.6,0.534
19.88,31997.3,35056.7,-0.0452,0.6769,144.9,96.6,0.534
19.9,32077.6,35159.0,1.3002,1.9052,144.9,96.6,0.534
19.92,32092.7,35125.9,1.5531,1.5081,144.9,96.6,0.534
19.94,32063.4,35126.3,1.0622,1.5129,144.9,96.6,0.534
19.96,32049.8,35145.9,0.8339,1.7482,144.9,96.6,0.534
19.98,31968.1,35102.2,-0.5352,1.2238,144.9,96.6,0.534
20.0,32041.5,35048.7,0.6956,0.5804,144.9,96.6,0.534
20.02,31969.7,35015.9,-0.5083,0.1868,144.9,96.6,0.534
20.04,31894.1,34941.2,-1.7738,-0.7108,144.9,96.6,0.534
20.06,31928.5,35067.9,-1.1975,0.8112,144.9,96.6,0.534
20.08,32022.4,34962.3,0.3744,-0.4572,144.9,96.6,0.534
20.1,32025.0,35025.3,0.4186,0.2998,144.9,96.6,0.534
20.12,32050.9,34926.1,0.8526,-0.8931,144.9,96.6,0.534
20.14,31984.9,34948.3,-0.2539,-0.6255,144.9,96.6,0.534
20.16,31971.0,34948.9,-0.4861,-0.6194,144.9,96.6,0.534
20.18,31912.5,34888.1,-1.4668,-1.3491,144.9,96.6,0.534
20.2,31985.7,34955.3,-0.2393,-0.542,144.9,96.6,0.534
20.22,31959.9,34862.3,-0.6724,-1.6599,144.9,96.6,0.534
20.24,31948.5,34903.7,-0.8637,-1.1621,144.9,96.6,0.534
20.26,31963.0,34951.8,-0.6199,-0.5842,144.9,96.6,0.534
20.28,31986.7,35042.4,-0.2228,0.5046,144.9,96.6,0.534
20.3,32006.8,35012.8,0.1142,0.1494,144.9,96.6,0.534
20.32,32083.4,35094.3,1.3971,1.1279,144.9,96.6,0.534
20.34,31988.5,35188.7,-0.1927,2.2629,144.9,96.6,0.534
20.36,32061.4,35149.9,1.0281,1.7959,144.9,96.6,0.534
20.38,31958.2,35099.8,-0.6996,1.1947,144.9,96.6,0.534
20.4,32041.8,34995.9,0.7008,-0.0534,144.9,96.6,0.534
20.42,32003.0,35024.8,0.0507,0.2927,144.9,96.6,0.534
20.44,32025.4,34920.1,0.4261,-0.9647,144.9,96.6,0.534
20.46,32052.8,35082.7,0.8842,0.9894,144.9,96.6,0.534
20.48,31985.2,35001.8,-0.2481,0.017,144.9,96.6,0.534
20.5,31935.4,34917.1,-1.0824,-1.0011,144.9,96.6,0.534
20.52,32001.6,34940.2,0.0272,-0.7233,144.9,96.6,0.534
20.54,32046.7,34976.0,0.7828,-0.2928,144.9,96.6,0.534
20.56,32015.6,34947.8,0.2617,-0.6323,144.9,96.6,0.534
20.58,32069.1,34909.8,1.1577,-1.0887,144.9,96.6,0.534
20.6,31954.9,34797.3,-0.7555,-2.4406,144.9,96.6,0.534
20.62,31939.1,34886.2,-1.0204,-1.3722,144.9,96.6,0.534
20.64,31982.9,34890.5,-0.2865,-1.3199,144.9,96.6,0.534
20.66,31957.8,34927.2,-0.7067,-0.8798,144.9,96.6,0.534
20.68,32008.3,34945.6,0.1391,-0.6579,144.9,96.6,0.534
20.7,31972.5,35072.6,-0.461,0.8675,144.9,96.6,0.534
20.72,32062.4,35073.9,1.0445,0.8836,144.9,96.6,0.534
20.74,32111.7,35042.5,1.8705,0.5063,144.9,96.6,0.534
20.76,32097.6,35204.3,1.6346,2.4504,144.9,96.6,0.534
20.78,31944.0,35071.8,-0.9391,0.8582,144.9,96.6,0.534
20.8,32043.6,34939.1,0.7311,-0.7363,144.9,96.6,0.534
20.82,32085.3,34987.6,1.4293,-0.1543,144.9,96.6,0.534
20.84,32052.6,35004.4,0.8814,0.0485,144.9,96.6,0.534
20.86,32074.4,35071.1,1.2472,0.8499,144.9,96.6,0.534
20.88,31908.8,34981.0,-1.5284,-0.2333,144.9,96.6,0.534
20.9,31953.7,34980.2,-0.7765,-0.2427,144.9,96.6,0.534
20.92,32111.5,34957.4,1.8672,-0.5163,144.9,96.6,0.534
20.94,32006.7,34940.6,0.1114,-0.7189,144.9,96.6,0.534
20.96,32022.2,34999.9,0.3718,-0.0055,144.9,96.6,0.534
20.98,31931.0,34945.5,-1.1553,-0.6593,144.9,96.6,0.534
21.0,31966.6,34933.8,-0.5594,-0.8004,144.9,96.6,0.534
21.02,31853.2,34842.0,-2.4595,-1.9036,144.9,96.6,0.534
21.04,32019.2,34906.8,0.3213,-1.1242,144.9,96.6,0.534
21.06,31985.9,34886.3,-0.2368,-1.3711,144.9,96.6,0.534
21.08,32031.1,34930.8,0.5205,-0.8357,144.9,96.6,0.534
21.1,32013.5,35078.1,0.2267,0.934,144.9,96.6,0.534
21.12,31954.6,35102.7,-0.7606,1.2289,144.9,96.6,0.534
21.14,32044.2,34963.2,0.7401,-0.447,144.9,96.6,0.534
21.16,32117.4,35111.7,1.9675,1.3375,144.9,96.6,0.534
21.18,32109.6,35036.4,1.8359,0.4325,144.9,96.6,0.534
21.2,31973.0,34988.0,-0.4525,-0.1489,144.9,96.6,0.534
21.22,32015.0,35011.1,0.2517,0.1285,144.9,96.6,0.534
21.24,32008.5,35024.7,0.1425,0.292,144.9,96.6,0.534
21.26,31957.2,35096.9,-0.7172,1.1595,144.9,96.6,0.534
21.28,31993.0,34959.7,-0.1179,-0.4892,144.9,96.6,0.534
21.3,31948.1,35091.3,-0.87,1.0919,144.9,96.6,0.534
21.32,32006.4,34909.5,0.1074,-1.0923,144.9,96.6,0.534
21.34,31966.0,35079.5,-0.5695,0.9501,144.9,96.6,0.534
21.36,31878.9,34948.5,-2.029,-0.6234,144.9,96.6,0.534
21.38,31958.8,34982.2,-0.6907,-0.2185,144.9,96.6,0.534
21.4,31969.1,35018.0,-0.5182,0.2118,144.9,96.6,0.534
21.42,31953.1,34938.9,-0.7854,-0.7393,144.9,96.6,0.534
21.44,31847.6,34918.9,-2.5525,-0.9787,144.9,96.6,0.534
21.46,31955.7,34998.5,-0.7422,-0.0223,144.9,96.6,0.534
21.48,31995.9,34925.1,-0.0684,-0.9049,144.9,96.6,0.534
21.5,31978.4,34941.3,-0.3613,-0.7099,144.9,96.6,0.534
21.52,32055.0,35052.8,0.9221,0.6301,144.9,96.6,0.534
21.54,31986.7,35031.7,-0.2231,0.3765,144.9,96.6,0.534
21.56,32140.6,35337.1,2.3551,4.0456,144.9,96.6,0.534
21.58,32037.2,35167.9,0.6229,2.0133,144.9,96.6,0.534
21.6,32033.5,35031.4,0.5617,0.373,144.9,96.6,0.534
21.62,31943.1,35054.5,-0.9528,0.6505,144.9,96.6,0.534
21.64,31945.4,35095.4,-0.9143,1.1414,144.9,96.6,0.534
21.66,32000.6,35113.6,0.0093,1.3598,144.9,96.6,0.534
21.68,31944.1,35022.4,-0.9364,0.2648,144.9,96.6,0.534
21.7,32000.9,35066.3,0.015,0.7923,144.9,96.6,0.534
21.72,32046.6,34983.6,0.7809,-0.2024,144.9,96.6,0.534
21.74,31867.7,34992.9,-2.2161,-0.0904,144.9,96.6,0.534
21.76,32000.4,34907.9,0.0064,-1.111,144.9,96.6,0.534
21.78,31913.7,34958.9,-1.4461,-0.4991,144.9,96.6,0.534
21.8,31918.1,34822.6,-1.3718,-2.136,144.9,96.6,0.534
21.82,31943.9,34920.8,-0.9395,-0.9565,144.9,96.6,0.534
21.84,31982.7,34922.4,-0.2902,-0.9374,144.9,96.6,0.534
21.86,31964.9,34966.1,-0.5877,-0.4126,144.9,96.6,0.534
21.88,31896.7,34958.2,-1.7305,-0.5076,144.9,96.6,0.534
21.9,32031.0,34901.4,0.5192,-1.189,144.9,96.6,0.534
21.92,32012.2,34964.9,0.2043,-0.4265,144.9,96.6,0.534
21.94,32015.6,35011.3,0.262,0.1315,144.9,96.6,0.534
21.96,32057.9,35101.5,0.9702,1.2142,144.9,96.6,0.534
21.98,32097.3,35158.0,1.6302,1.8937,144.9,96.6,0.534
22.0,32060.9,35156.3,1.0202,1.8736,144.9,96.6,0.534
22.02,31988.0,35062.5,-0.2018,0.7458,144.9,96.6,0.534
22.04,32084.7,35122.8,1.4196,1.4712,144.9,96.6,0.534
22.06,32077.1,35056.2,1.2919,0.6706,144.9,96.6,0.534
22.08,32026.1,35066.3,0.4364,0.7917,144.9,96.6,0.534
22.1,31981.9,34953.0,-0.3026,-0.5699,144.9,96.6,0.534
22.12,32054.5,34975.2,0.9126,-0.303,144.9,96.6,0.534
22.14,31944.9,34951.7,-0.9225,-0.5848,144.9,96.6,0.534
22.16,32003.5,35054.8,0.0591,0.6539,144.9,96.6,0.534
22.18,32012.0,34891.5,0.2008,-1.3088,144.9,96.6,0.534
22.2,31945.8,34910.2,-0.9086,-1.0842,144.9,96.6,0.534
22.22,31938.1,34865.7,-1.0375,-1.6187,144.9,96.6,0.534
22.24,32015.0,34973.1,0.2518,-0.3284,144.9,96.6,0.534
22.26,31950.3,34967.2,-0.8325,-0.3994,144.9,96.6,0.534
22.28,31887.3,34888.8,-1.8883,-1.3411,144.9,96.6,0.534
22.3,32026.8,34960.4,0.4482,-0.4804,144.9,96.6,0.534
22.32,31992.0,34943.5,-0.1341,-0.6842,144.9,96.6,0.534
22.34,32085.9,34958.8,1.4396,-0.5002,144.9,96.6,0.534
22.36,32072.0,35087.6,1.2063,1.0477,144.9,96.6,0.534
22.38,31949.0,35120.0,-0.8547,1.4367,144.9,96.6,0.534
22.4,32038.5,35060.5,0.6455,0.7216,144.9,96.6,0.534
22.42,32057.3,35033.6,0.9602,0.3985,144.9,96.6,0.534
22.44,31975.2,35113.2,-0.4156,1.3553,144.9,96.6,0.534
22.46,31972.0,35127.8,-0.4695,1.5309,144.9,96.6,0.534
22.48,31980.4,35040.3,-0.3289,0.4795,144.9,96.6,0.534
22.5,32020.0,35027.3,0.3343,0.323,144.9,96.6,0.534
22.52,32040.8,35012.1,0.6837,0.141,144.9,96.6,0.534
22.54,31961.7,35004.1,-0.6411,0.0442,144.9,96.6,0.534
22.56,32000.1,34935.5,0.001,-0.7798,144.9,96.6,0.534
22.58,31994.6,34931.6,-0.0912,-0.8265,144.9,96.6,0.534
22.6,31910.2,34994.5,-1.5044,-0.0713,144.9,96.6,0.534
22.62,31985.1,34930.1,-0.2495,-0.8445,144.9,96.6,0.534
22.64,32030.2,34963.6,0.5067,-0.4425,144.9,96.6,0.534
22.66,31907.8,34955.1,-1.5443,-0.544,144.9,96.6,0.534
22.68,31921.8,34968.1,-1.31,-0.3877,144.9,96.6,0.534
22.7,31929.2,34886.7,-1.1866,-1.3659,144.9,96.6,0.534
22.72,31868.3,34854.1,-2.2074,-1.7579,144.9,96.6,0.534
22.74,32052.0,35022.4,0.8717,0.2649,144.9,96.6,0.534
22.76,32065.7,34944.6,1.0999,-0.6708,144.9,96.6,0.534
22.78,32033.9,35062.9,0.5678,0.7511,144.9,96.6,0.534
22.8,32055.0,35038.7,0.9221,0.4598,144.9,96.6,0.534
22.82,31981.4,35172.5,-0.3119,2.0676,144.9,96.6,0.534
22.84,32054.0,35046.7,0.9053,0.5566,144.9,96.6,0.534
22.86,32031.9,35060.5,0.5343,0.722,144.9,96.6,0.534
22.88,31907.0,35043.2,-1.5575,0.5144,144.9,96.6,0.534
22.9,31920.5,35021.9,-1.3319,0.2583,144.9,96.6,0.534
22.92,32013.8,35023.0,0.2307,0.2716,144.9,96.6,0.534
22.94,32101.8,35019.4,1.7057,0.2289,144.9,96.6,0.534
22.96,31955.6,34958.8,-0.7438,-0.5,144.9,96.6,0.534
22.98,32030.6,35063.0,0.5119,0.7525,144.9,96.6,0.534
23.0,32023.2,34963.8,0.3879,-0.4399,144.9,96.6,0.534
23.02,32055.0,34887.2,0.9215,-1.3606,144.9,96.6,0.534
23.04,31950.8,34872.0,-0.8237,-1.5433,144.9,96.6,0.534
23.06,31876.7,35007.1,-2.066,0.081,144.9,96.6,0.534
23.08,32003.7,34878.8,0.0611,-1.4607,144.9,96.6,0.534
23.1,31943.1,34915.7,-0.9529,-1.0177,144.9,96.6,0.534
23.12,31936.4,34903.9,-1.0655,-1.1599,144.9,96.6,0.534
23.14,31934.5,34961.6,-1.0982,-0.4662,144.9,96.6,0.534
23.16,31998.1,34909.1,-0.0321,-1.0971,144.9,96.6,0.534
23.18,31980.7,34977.3,-0.3233,-0.2778,144.9,96.6,0.534
23.2,32077.6,35058.0,1.3007,0.6921,144.9,96.6,0.534
23.22,32044.8,35067.3,0.7501,0.8039,144.9,96.6,0.534
23.24,32058.1,35156.3,0.9726,1.8731,144.9,96.6,0.534
23.26,31991.5,35143.1,-0.1431,1.7144,144.9,96.6,0.534
23.28,31995.6,35118.9,-0.0731,1.4238,144.9,96.6,0.534
23.3,32047.6,34986.8,0.7981,-0.1628,144.9,96.6,0.534
23.32,31995.8,34935.7,-0.0708,-0.7773,144.9,96.6,0.534
23.34,31939.2,34963.9,-1.0192,-0.4387,144.9,96.6,0.534
23.36,32009.6,35024.4,0.1608,0.2882,144.9,96.6,0.534
23.38,31929.8,34985.8,-1.1767,-0.1754,144.9,96.6,0.534
23.4,32082.8,35008.3,1.3875,0.0945,144.9,96.6,0.534
23.42,32005.0,34961.9,0.0843,-0.4626,144.9,96.6,0.534
23.44,31973.6,34956.2,-0.442,-0.5312,144.9,96.6,0.534
23.46,31894.6,35008.6,-1.7656,0.0989,144.9,96.6,0.534
23.48,31959.6,34947.1,-0.677,-0.6409,144.9,96.6,0.534
23.5,31963.9,34872.7,-0.6044,-1.535,144.9,96.6,0.534
23.52,31915.8,34950.5,-1.4103,-0.5994,144.9,96.6,0.534
23.54,32014.8,34850.4,0.248,-1.8021,144.9,96.6,0.534
23.56,31966.2,34933.0,-0.5663,-0.8096,144.9,96.6,0.534
23.58,32031.3,35021.5,0.5245,0.2538,144.9,96.6,0.534
23.6,31967.1,35039.5,-0.5514,0.4703,144.9,96.6,0.534
23.62,32023.6,35101.5,0.395,1.2153,144.9,96.6,0.534
23.64,32110.8,35090.3,1.8566,1.0798,144.9,96.6,0.534
23.66,32111.5,35076.9,1.8674,0.9189,144.9,96.6,0.534
23.68,31971.0,35095.3,-0.4852,1.1405,144.9,96.6,0.534
23.7,31887.6,35078.8,-1.8834,0.9425,144.9,96.6,0.534
23.72,32011.7,35046.9,0.1964,0.5589,144.9,96.6,0.534
23.74,32106.2,35017.1,1.7791,0.2003,144.9,96.6,0.534
23.76,32110.9,34985.2,1.858,-0.1823,144.9,96.6,0.534
23.78,31967.2,35068.0,-0.5488,0.8125,144.9,96.6,0.534
23.8,32011.0,35016.9,0.184,0.1987,144.9,96.6,0.534
23.82,31883.6,34981.8,-1.9507,-0.2239,144.9,96.6,0.534
23.84,32009.7,34903.1,0.1627,-1.1697,144.9,96.6,0.534
23.86,31947.1,34925.5,-0.8865,-0.8997,144.9,96.6,0.534
23.88,31978.8,34840.1,-0.3551,-1.9266,144.9,96.6,0.534
23.9,31992.4,34890.8,-0.1276,-1.3174,144.9,96.6,0.534
23.92,32074.7,34818.2,1.2512,-2.1887,144.9,96.6,0.534
23.94,32057.9,34895.6,0.9701,-1.2591,144.9,96.6,0.534
23.96,31962.4,34863.4,-0.6302,-1.6457,144.9,96.6,0.534
23.98,31934.0,34998.2,-1.1057,-0.0265,144.9,96.6,0.534
24.0,32056.4,34991.1,0.9454,-0.112,144.9,96.6,0.534
24.02,32045.9,34998.8,0.7696,-0.0192,144.9,96.6,0.534
24.04,32120.3,35111.4,2.016,1.3336,144.9,96.6,0.534
24.06,32124.0,35117.0,2.0781,1.4007,144.9,96.6,0.534
24.08,32060.1,35074.0,1.0074,0.8848,144.9,96.6,0.534
24.1,32028.7,35123.8,0.4814,1.4826,144.9,96.6,0.534
24.12,32064.6,35061.5,1.0829,0.7338,144.9,96.6,0.534
24.14,32018.3,35041.5,0.3062,0.4934,144.9,96.6,0.534
24.16,32125.7,34992.7,2.106,-0.0922,144.9,96.6,0.534
24.18,32031.7,35017.1,0.5317,0.2008,144.9,96.6,0.534
24.2,32063.0,35056.1,1.055,0.6698,144.9,96.6,0.534
24.22,31959.3,35042.2,-0.6826,0.5028,144.9,96.6,0.534
24.24,31952.5,34981.3,-0.7954,-0.229,144.9,96.6,0.534
24.26,31980.2,34984.0,-0.3323,-0.1974,144.9,96.6,0.534
24.28,31954.5,34899.2,-0.7622,-1.2163,144.9,96.6,0.534
24.3,31925.2,34946.7,-1.2534,-0.6455,144.9,96.6,0.534
24.32,31998.5,34858.9,-0.0244,-1.6997,144.9,96.6,0.534
24.34,31927.3,34960.6,-1.2177,-0.4786,144.9,96.6,0.534
24.36,31965.6,34878.5,-0.5768,-1.465,144.9,96.6,0.534
24.38,31916.5,34941.0,-1.3998,-0.714,144.9,96.6,0.534
24.4,31953.6,34979.0,-0.7773,-0.2565,144.9,96.6,0.534
24.42,32026.1,35012.9,0.4368,0.1498,144.9,96.6,0.534
24.44,32016.2,35060.4,0.2713,0.7214,144.9,96.6,0.534
24.46,32084.6,35127.9,1.4172,1.5316,144.9,96.6,0.534
24.48,32095.7,35039.9,1.6036,0.4749,144.9,96.6,0.534
24.5,31940.2,35131.3,-1.0028,1.5725,144.9,96.6,0.534
24.52,32010.1,35065.6,0.1685,0.7839,144.9,96.6,0.534
24.54,32029.2,35076.4,0.4891,0.9133,144.9,96.6,0.534
24.56,32028.7,34978.6,0.4807,-0.2614,144.9,96.6,0.534
24.58,31936.0,35032.4,-1.073,0.3842,144.9,96.6,0.534
24.6,32002.1,35050.9,0.0357,0.6064,144.9,96.6,0.534
24.62,31968.4,35000.2,-0.5301,-0.0028,144.9,96.6,0.534
24.64,31988.8,35006.8,-0.1879,0.0769,144.9,96.6,0.534
24.66,31958.3,34886.6,-0.6987,-1.3671,144.9,96.6,0.534
24.68,32010.1,34916.2,0.1695,-1.0116,144.9,96.6,0.534
24.7,31924.2,34926.4,-1.2697,-0.8888,144.9,96.6,0.534
24.72,32029.3,34883.4,0.4907,-1.4057,144.9,96.6,0.534
24.74,31930.3,34959.1,-1.1683,-0.4957,144.9,96.6,0.534
24.76,32039.3,34916.9,0.6589,-1.0027,144.9,96.6,0.534
24.78,32012.7,34926.2,0.2119,-0.8917,144.9,96.6,0.534
24.8,31943.5,34999.2,-0.9475,-0.0149,144.9,96.6,0.534
24.82,31995.8,34897.2,-0.0702,-1.2403,144.9,96.6,0.534
24.84,32044.5,35022.9,0.7457,0.2706,144.9,96.6,0.534
24.86,32042.8,35199.8,0.7175,2.3959,144.9,96.6,0.534
24.88,32087.8,35115.8,1.4716,1.3865,144.9,96.6,0.534
24.9,32056.7,35244.0,0.9505,2.9265,144.9,96.6,0.534
24.92,32032.3,35165.0,0.5406,1.9781,144.9,96.6,0.534
24.94,32020.8,35081.5,0.3485,0.9748,144.9,96.6,0.534
24.96,31921.9,35003.6,-1.3083,0.0387,144.9,96.6,0.534
24.98,32063.8,35015.5,1.068,0.1819,144.9,96.6,0.534
25.0,32014.1,34980.2,0.2353,-0.2431,144.9,96.6,0.534
25.02,31980.4,34976.6,-0.3283,-0.2855,144.9,96.6,0.534
25.04,32005.9,34944.2,0.0994,-0.6755,144.9,96.6,0.534
25.06,31960.0,35084.6,-0.6703,1.0117,144.9,96.6,0.534
25.08,32106.0,34992.3,1.7757,-0.0976,144.9,96.6,0.534
25.1,31949.3,34889.7,-0.8487,-1.3296,144.9,96.6,0.534
25.12,31944.6,34910.9,-0.9283,-1.0758,144.9,96.6,0.534
25.14,32009.2,34958.4,0.1544,-0.5045,144.9,96.6,0.534
25.16,31978.0,34970.5,-0.3687,-0.3592,144.9,96.6,0.534
25.18,31953.8,34848.1,-0.7734,-1.8298,144.9,96.6,0.534
25.2,31923.1,35028.0,-1.2884,0.332,144.9,96.6,0.534
25.22,31993.8,34883.8,-0.1043,-1.4009,144.9,96.6,0.534
25.24,31934.1,35063.0,-1.1036,0.7516,144.9,96.6,0.534
25.26,32020.1,35035.8,0.3366,0.4248,144.9,96.6,0.534
25.28,32070.3,35048.4,1.1771,0.5774,144.9,96.6,0.534
25.3,32031.1,35089.4,0.521,1.0691,144.9,96.6,0.534
25.32,32136.3,35064.2,2.2831,0.7666,144.9,96.6,0.534
25.34,32120.2,35032.7,2.013,0.3883,144.9,96.6,0.534
25.36,32062.3,35111.4,1.0434,1.3338,144.9,96.6,0.534
25.38,31940.5,35048.7,-0.9975,0.5799,144.9,96.6,0.534
25.4,32028.7,35133.6,0.4811,1.6002,144.9,96.6,0.534
25.42,31909.3,35068.8,-1.5195,0.8218,144.9,96.6,0.534
25.44,32016.1,35057.4,0.2694,0.6855,144.9,96.6,0.534
25.46,32042.1,35017.0,0.7057,0.2,144.9,96.6,0.534
25.48,31985.9,34909.1,-0.2356,-1.0965,144.9,96.6,0.534
25.5,31940.7,34982.1,-0.9933,-0.2197,144.9,96.6,0.534
25.52,31960.6,34947.0,-0.6599,-0.6417,144.9,96.6,0.534
25.54,31999.6,34970.9,-0.0062,-0.354,144.9,96.6,0.534
25.56,31972.1,34964.1,-0.4673,-0.4364,144.9,96.6,0.534
25.58,31913.3,34870.5,-1.4523,-1.5611,144.9,96.6,0.534
25.6,31944.7,34956.1,-0.9269,-0.5323,144.9,96.6,0.534
25.62,31976.2,34877.2,-0.3987,-1.4805,144.9,96.6,0.534
25.64,31909.4,35046.1,-1.5179,0.5487,144.9,96.6,0.534
25.66,32021.6,34914.5,0.3617,-1.0318,144.9,96.6,0.534
25.68,32045.1,35092.0,0.7557,1.1009,144.9,96.6,0.534
25.7,31994.0,35043.7,-0.1005,0.5207,144.9,96.6,0.534
25.72,32110.4,35084.0,1.8498,1.0046,144.9,96.6,0.534
25.74,32107.1,35028.5,1.7948,0.3381,144.9,96.6,0.534
25.76,32022.0,35096.8,0.3686,1.1583,144.9,96.6,0.534
25.78,31988.4,35034.1,-0.195,0.4053,144.9,96.6,0.534
25.8,32002.1,35086.3,0.0355,1.0317,144.9,96.6,0.534
25.82,32007.0,35041.8,0.1173,0.4974,144.9,96.6,0.534
25.84,32022.8,35016.1,0.3824,0.1889,144.9,96.6,0.534
25.86,32053.5,35020.6,0.8964,0.2428,144.9,96.6,0.534
25.88,31959.4,34966.1,-0.6804,-0.4119,144.9,96.6,0.534
25.9,31921.5,34933.9,-1.3158,-0.7994,144.9,96.6,0.534
25.92,32043.7,34933.6,0.7313,-0.8025,144.9,96.6,0.534
25.94,32016.9,34963.6,0.2823,-0.4418,144.9,96.6,0.534
25.96,31992.4,34893.6,-0.1267,-1.2837,144.9,96.6,0.534
25.98,32066.0,34926.7,1.1056,-0.886,144.9,96.6,0.534
26.0,31966.5,34904.2,-0.5611,-1.156,144.9,96.6,0.534
26.02,31959.1,34912.5,-0.6853,-1.0563,144.9,96.6,0.534
26.04,31917.2,34922.2,-1.3871,-0.9392,144.9,96.6,0.534
26.06,31942.5,34980.4,-0.9635,-0.2408,144.9,96.6,0.534
26.08,31998.0,34934.2,-0.0339,-0.7959,144.9,96.6,0.534
26.1,31999.8,35101.2,-0.0032,1.2107,144.9,96.6,0.534
26.12,32004.4,35240.9,0.0733,2.8896,144.9,96.6,0.534
26.14,32063.7,35114.0,1.0679,1.3646,144.9,96.6,0.534
26.16,32055.8,35106.4,0.9354,1.2738,144.9,96.6,0.534
26.18,32038.2,35071.6,0.6407,0.8561,144.9,96.6,0.534
26.2,31960.7,35128.3,-0.6588,1.5371,144.9,96.6,0.534
26.22,31981.6,35099.5,-0.3087,1.1914,144.9,96.6,0.534
26.24,31952.9,34951.7,-0.7899,-0.5852,144.9,96.6,0.534
26.26,32016.7,35001.3,0.2799,0.0108,144.9,96.6,0.534
26.28,31952.5,35015.8,-0.7959,0.185,144.9,96.6,0.534
26.3,32004.8,35008.8,0.0803,0.1014,144.9,96.6,0.534
26.32,31938.3,34942.9,-1.0339,-0.6907,144.9,96.6,0.534
26.34,32007.6,34935.3,0.1274,-0.7827,144.9,96.6,0.534
26.36,32009.8,34953.4,0.1636,-0.5647,144.9,96.6,0.534
26.38,31996.7,34882.9,-0.0559,-1.4116,144.9,96.6,0.534
26.4,32001.7,34866.7,0.0277,-1.6063,144.9,96.6,0.534
26.42,31946.7,34962.4,-0.8923,-0.457,144.9,96.6,0.534
26.44,31901.2,34981.7,-1.6558,-0.2241,144.9,96.6,0.534
26.46,31991.2,34928.0,-0.1474,-0.8702,144.9,96.6,0.534
26.48,31990.5,34902.3,-0.1595,-1.1788,144.9,96.6,0.534
26.5,32024.9,35044.0,0.4165,0.5241,144.9,96.6,0.534
26.52,32032.2,35167.2,0.5399,2.0044,144.9,96.6,0.534
26.54,32065.7,35107.2,1.1008,1.2837,144.9,96.6,0.534
26.56,32093.2,35211.5,1.5621,2.5363,144.9,96.6,0.534
26.58,31977.3,35030.5,-0.3796,0.3617,144.9,96.6,0.534
26.6,32038.5,35099.1,0.6458,1.1859,144.9,96.6,0.534
26.62,32037.3,35024.6,0.6244,0.2904,144.9,96.6,0.534
26.64,31978.7,34989.5,-0.3563,-0.1308,144.9,96.6,0.534
26.66,32032.3,34970.6,0.5414,-0.3581,144.9,96.6,0.534
26.68,32088.7,35095.8,1.4864,1.1466,144.9,96.6,0.534
26.7,31991.6,35068.2,-0.141,0.8145,144.9,96.6,0.534
26.72,32118.8,34886.5,1.9908,-1.369,144.9,96.6,0.534
26.74,32033.2,34869.0,0.5562,-1.5788,144.9,96.6,0.534
26.76,31933.0,34949.3,-1.1226,-0.6143,144.9,96.6,0.534
26.78,32043.0,34995.7,0.7204,-0.0567,144.9,96.6,0.534
26.8,31973.1,34932.5,-0.4508,-0.8159,144.9,96.6,0.534
26.82,31915.0,34996.4,-1.4239,-0.0478,144.9,96.6,0.534
26.84,32000.6,35018.1,0.0102,0.2122,144.9,96.6,0.534
26.86,32008.2,34936.3,0.138,-0.7697,144.9,96.6,0.534
26.88,31890.7,34959.8,-1.8314,-0.4874,144.9,96.6,0.534
26.9,31997.5,35000.5,-0.0421,0.0012,144.9,96.6,0.534
26.92,32054.9,35113.2,0.9197,1.3557,144.9,96.6,0.534
26.94,32018.8,35187.5,0.315,2.2482,144.9,96.6,0.534
26.96,32107.3,35160.8,1.7973,1.9271,144.9,96.6,0.534
26.98,32018.3,35139.9,0.3071,1.6761,144.9,96.6,0.534
27.0,31968.8,35160.2,-0.5229,1.9204,144.9,96.6,0.534
27.02,31924.2,35033.3,-1.2702,0.3957,144.9,96.6,0.534
27.04,31988.7,35066.2,-0.1891,0.7905,144.9,96.6,0.534
27.06,32033.1,35036.6,0.5552,0.435,144.9,96.6,0.534
27.08,32058.4,35068.1,0.9782,0.8137,144.9,96.6,0.534
27.1,32108.5,34999.4,1.8181,-0.0119,144.9,96.6,0.534
27.12,32037.0,34897.5,0.6206,-1.2368,144.9,96.6,0.534
27.14,31995.1,34855.2,-0.0825,-1.7451,144.9,96.6,0.534
27.16,32002.4,34958.2,0.0399,-0.5076,144.9,96.6,0.534
27.18,31963.8,35012.0,-0.6064,0.1389,144.9,96.6,0.534
27.2,31902.3,34898.7,-1.637,-1.2217,144.9,96.6,0.534
27.22,31987.4,34941.6,-0.2111,-0.7064,144.9,96.6,0.534
27.24,31900.6,34962.2,-1.6649,-0.4594,144.9,96.6,0.534
27.26,31922.4,34896.5,-1.2996,-1.2488,144.9,96.6,0.534
27.28,31986.5,34854.3,-0.2263,-1.7559,144.9,96.6,0.534
27.3,31968.9,34939.4,-0.5217,-0.7328,144.9,96.6,0.534
27.32,32058.5,35004.0,0.98,0.0437,144.9,96.6,0.534
27.34,32045.9,35132.4,0.7684,1.5859,144.9,96.6,0.534
27.36,32015.5,35063.1,0.2598,0.7531,144.9,96.6,0.534
27.38,32069.4,35079.8,1.1629,0.9537,144.9,96.6,0.534
27.4,31894.9,35058.5,-1.761,0.6983,144.9,96.6,0.534
27.42,32016.3,35094.1,0.2729,1.126,144.9,96.6,0.534
27.44,32079.2,34963.9,1.327,-0.4387,144.9,96.6,0.534
27.46,32074.4,35026.2,1.2462,0.3105,144.9,96.6,0.534
27.48,32040.3,35034.2,0.6753,0.4066,144.9,96.6,0.534
27.5,31941.8,35085.1,-0.9754,1.0182,144.9,96.6,0.534
27.52,32008.7,34969.0,0.1451,-0.377,144.9,96.6,0.534
27.54,31981.0,35001.0,-0.3187,0.0078,144.9,96.6,0.534
27.56,31913.2,34998.3,-1.4546,-0.0249,144.9,96.6,0.534
27.58,32008.5,35030.9,0.1422,0.367,144.9,96.6,0.534
27.6,31993.1,34971.5,-0.1159,-0.3476,144.9,96.6,0.534
27.62,32025.6,34917.6,0.4293,-0.9949,144.9,96.6,0.534
27.64,31920.5,34967.4,-1.3315,-0.3963,144.9,96.6,0.534
27.66,31957.5,34884.0,-0.7123,-1.3981,144.9,96.6,0.534
27.68,31977.3,34953.9,-0.38,-0.5587,144.9,96.6,0.534
27.7,31981.2,34987.8,-0.3147,-0.152,144.9,96.6,0.534
27.72,31916.2,34955.6,-1.4033,-0.5385,144.9,96.6,0.534
27.74,32110.6,35036.2,1.8536,0.4299,144.9,96.6,0.534
27.76,31982.1,35163.1,-0.3006,1.9555,144.9,96.6,0.534
27.78,32045.5,35126.8,0.7621,1.5192,144.9,96.6,0.534
27.8,32024.7,35172.9,0.4133,2.0729,144.9,96.6,0.534
27.82,32085.9,35122.8,1.4389,1.4713,144.9,96.6,0.534
27.84,32065.8,35053.5,1.1019,0.6383,144.9,96.6,0.534
27.86,32037.4,35045.0,0.6272,0.5353,144.9,96.6,0.534
27.88,32007.3,34910.7,0.123,-1.0774,144.9,96.6,0.534
27.9,31970.4,35038.6,-0.4967,0.4591,144.9,96.6,0.534
27.92,32020.1,35048.0,0.3363,0.5721,144.9,96.6,0.534
27.94,32041.2,34972.8,0.6901,-0.3314,144.9,96.6,0.534
27.96,31973.2,34893.6,-0.449,-1.2832,144.9,96.6,0.534
27.98,32042.3,34954.8,0.7085,-0.5484,144.9,96.6,0.534
28.0,32014.5,34935.7,0.2427,-0.7768,144.9,96.6,0.534
28.02,31936.2,34949.4,-1.0687,-0.6129,144.9,96.6,0.534
28.04,31936.9,34993.4,-1.0581,-0.0836,144.9,96.6,0.534
28.06,31968.8,34959.0,-0.5233,-0.4978,144.9,96.6,0.534
28.08,31989.1,34799.3,-0.1821,-2.416,144.9,96.6,0.534
28.1,31954.8,34986.5,-0.7578,-0.1666,144.9,96.6,0.534
28.12,32051.2,34866.6,0.8584,-1.608,144.9,96.6,0.534
28.14,32043.2,34996.2,0.7229,-0.0507,144.9,96.6,0.534
28.16,32023.2,35103.5,0.3885,1.2388,144.9,96.6,0.534
28.18,32042.4,35078.3,0.7101,0.9361,144.9,96.6,0.534
28.2,32044.7,35165.5,0.7493,1.9842,144.9,96.6,0.534
28.22,32125.6,35089.9,2.1046,1.0752,144.9,96.6,0.534
28.24,31943.0,35073.6,-0.9546,0.8794,144.9,96.6,0.534
28.26,32083.8,34997.6,1.4035,-0.0339,144.9,96.6,0.534
28.28,32018.0,35044.7,0.3015,0.5322,144.9,96.6,0.534
28.3,32001.4,34940.9,0.0225,-0.7146,144.9,96.6,0.534
28.32,32044.7,35010.2,0.7491,0.1178,144.9,96.6,0.534
28.34,31960.9,34983.0,-0.6558,-0.2086,144.9,96.6,0.534
28.36,31976.0,35020.6,-0.4023,0.2429,144.9,96.6,0.534
28.38,32103.7,34955.6,1.7368,-0.5387,144.9,96.6,0.534
28.4,31997.2,35038.6,-0.0464,0.4596,144.9,96.6,0.534
28.42,31775.8,34854.9,-3.757,-1.7485,144.9,96.6,0.534
28.44,31897.9,35029.2,-1.7104,0.3455,144.9,96.6,0.534
28.46,32012.7,34926.0,0.2129,-0.8936,144.9,96.6,0.534
28.48,32006.1,34945.2,0.1014,-0.663,144.9,96.6,0.534
28.5,31978.7,34950.8,-0.3571,-0.5956,144.9,96.6,0.534
28.52,31860.6,34880.9,-2.3359,-1.4357,144.9,96.6,0.534
28.54,32042.1,34970.9,0.7053,-0.3546,144.9,96.6,0.534
28.56,32017.3,35023.1,0.2896,0.2724,144.9,96.6,0.534
28.58,32102.3,35088.0,1.7133,1.0525,144.9,96.6,0.534
28.6,31935.9,35069.5,-1.0742,0.8299,144.9,96.6,0.534
28.62,32054.5,35154.9,0.9125,1.8563,144.9,96.6,0.534
28.64,32019.9,35049.4,0.3326,0.5885,144.9,96.6,0.534
28.66,32058.0,35080.1,0.9718,0.9578,144.9,96.6,0.534
28.68,31994.9,35021.9,-0.0862,0.258,144.9,96.6,0.534
28.7,32072.8,35012.6,1.2195,0.1469,144.9,96.6,0.534
28.72,31979.7,35002.8,-0.3407,0.0286,144.9,96.6,0.534
28.74,31934.8,34981.4,-1.0921,-0.2281,144.9,96.6,0.534
28.76,31930.0,34962.3,-1.1735,-0.4584,144.9,96.6,0.534
28.78,31897.1,34903.7,-1.7245,-1.162,144.9,96.6,0.534
28.8,31929.2,34908.2,-1.1869,-1.1079,144.9,96.6,0.534
28.82,32064.5,34950.3,1.0811,-0.6023,144.9,96.6,0.534
28.84,31999.6,34933.0,-0.0073,-0.8103,144.9,96.6,0.534
28.86,31963.4,34998.1,-0.6137,-0.0276,144.9,96.6,0.534
28.88,31951.0,34991.3,-0.8217,-0.1088,144.9,96.6,0.534
28.9,31994.4,34924.0,-0.0931,-0.9179,144.9,96.6,0.534
28.92,31935.1,34906.9,-1.0866,-1.1231,144.9,96.6,0.534
28.94,31904.6,34943.5,-1.5979,-0.6835,144.9,96.6,0.534
28.96,32062.9,34893.1,1.0529,-1.2887,144.9,96.6,0.534
28.98,32099.8,35002.3,1.6727,0.0231,144.9,96.6,0.534
29.0,31978.0,35074.6,-0.3694,0.8915,144.9,96.6,0.534
29.02,32102.0,35061.2,1.7087,0.7306,144.9,96.6,0.534
29.04,32040.8,35038.6,0.6839,0.4592,144.9,96.6,0.534
29.06,32067.6,35051.5,1.1323,0.6144,144.9,96.6,0.534
29.08,32099.9,35058.5,1.6738,0.6984,144.9,96.6,0.534
29.1,32006.2,35062.4,0.103,0.7445,144.9,96.6,0.534
29.12,31999.2,34966.3,-0.0134,-0.41,144.9,96.6,0.534
29.14,32036.3,34968.7,0.6074,-0.3805,144.9,96.6,0.534
29.16,31933.6,35024.4,-1.112,0.2887,144.9,96.6,0.534
29.18,31950.7,34989.0,-0.8261,-0.1368,144.9,96.6,0.534
29.2,32050.1,34925.3,0.8387,-0.9018,144.9,96.6,0.534
29.22,31954.8,34921.6,-0.7566,-0.9464,144.9,96.6,0.534
29.24,31890.2,34984.7,-1.8393,-0.1889,144.9,96.6,0.534
29.26,32002.6,34909.3,0.0437,-1.0949,144.9,96.6,0.534
29.28,31986.6,34908.3,-0.2251,-1.1062,144.9,96.6,0.534
29.3,32019.0,34868.6,0.3176,-1.5838,144.9,96.6,0.534
29.32,31936.1,34957.8,-1.0703,-0.5116,144.9,96.6,0.534
29.34,31974.2,34906.9,-0.433,-1.1237,144.9,96.6,0.534
29.36,31957.1,34876.0,-0.7189,-1.4952,144.9,96.6,0.534
29.38,32015.5,34918.3,0.2598,-0.9859,144.9,96.6,0.534
29.4,32047.8,35051.9,0.8013,0.6187,144.9,96.6,0.534
29.42,32101.0,35108.8,1.6922,1.3022,144.9,96.6,0.534
29.44,32070.3,35156.2,1.1779,1.8726,144.9,96.6,0.534
29.46,32107.3,35174.9,1.7976,2.0967,144.9,96.6,0.534
29.48,31946.6,35002.5,-0.894,0.0258,144.9,96.6,0.534
29.5,32104.7,35044.9,1.7536,0.5342,144.9,96.6,0.534
29.52,32073.4,35061.9,1.2304,0.7385,144.9,96.6,0.534
29.54,32002.0,35056.3,0.0333,0.6718,144.9,96.6,0.534
29.56,32072.2,34982.4,1.2093,-0.2162,144.9,96.6,0.534
29.58,32007.9,35005.1,0.1321,0.0563,144.9,96.6,0.534
29.6,31910.9,34964.2,-1.4935,-0.4346,144.9,96.6,0.534
29.62,31966.9,34946.6,-0.5545,-0.6462,144.9,96.6,0.534
29.64,32080.5,34948.6,1.3479,-0.6223,144.9,96.6,0.534
29.66,31943.7,34917.5,-0.9436,-0.9962,144.9,96.6,0.534
29.68,31929.2,34931.0,-1.1868,-0.8334,144.9,96.6,0.534
29.7,31979.1,34901.7,-0.3496,-1.1859,144.9,96.6,0.534
29.72,32029.5,34934.1,0.4944,-0.7964,144.9,96.6,0.534
29.74,32003.9,35019.4,0.0656,0.2286,144.9,96.6,0.534
29.76,31909.2,34868.2,-1.5214,-1.5889,144.9,96.6,0.534
29.78,31976.2,34958.1,-0.3988,-0.5078,144.9,96.6,0.534
29.8,31945.0,34980.9,-0.9209,-0.2341,144.9,96.6,0.534
29.82,32021.7,35031.2,0.3642,0.3704,144.9,96.6,0.534
29.84,32031.6,35074.8,0.529,0.8946,144.9,96.6,0.534
29.86,32026.2,35151.0,0.4381,1.8097,144.9,96.6,0.534
29.88,32045.2,35146.0,0.7569,1.7499,144.9,96.6,0.534
29.9,31934.9,35041.3,-1.0908,0.492,144.9,96.6,0.534
29.92,32040.2,35056.2,0.6736,0.6709,144.9,96.6,0.534
29.94,32013.1,35041.0,0.2198,0.4882,144.9,96.6,0.534
29.96,32007.8,35056.7,0.1303,0.6765,144.9,96.6,0.534
29.98,31998.3,34896.8,-0.0293,-1.2443,144.9,96.6,0.534
30.0,32010.5,35041.4,0.1762,0.4925,144.9,96.6,0.534
30.02,31937.8,34956.8,-1.0429,-0.5233,144.9,96.6,0.534
30.04,31995.5,34874.0,-0.0753,-1.5186,144.9,96.6,0.534
30.06,31977.7,34925.6,-0.3735,-0.8993,144.9,96.6,0.534
30.08,31975.8,34867.8,-0.4048,-1.5929,144.9,96.6,0.534
30.1,31956.6,34841.8,-0.7278,-1.9059,144.9,96.6,0.534
30.12,32007.5,34942.0,0.1259,-0.7013,144.9,96.6,0.534
30.14,31947.7,34941.2,-0.8757,-0.7109,144.9,96.6,0.534
30.16,31925.5,34886.5,-1.248,-1.3684,144.9,96.6,0.534
30.18,31975.4,34888.0,-0.4126,-1.351,144.9,96.6,0.534
30.2,31980.5,34946.2,-0.3264,-0.6508,144.9,96.6,0.534
30.22,32083.1,35006.6,1.3922,0.0742,144.9,96.6,0.534
30.24,32111.7,35097.5,1.8706,1.1671,144.9,96.6,0.534
30.26,32031.7,35084.7,0.5313,1.0135,144.9,96.6,0.534
30.28,32115.8,35098.2,1.94,1.175,144.9,96.6,0.534
30.3,31955.6,35157.8,-0.7441,1.8911,144.9,96.6,0.534
30.32,32006.2,35025.6,0.104,0.3025,144.9,96.6,0.534
30.34,32009.9,35115.6,0.165,1.3848,144.9,96.6,0.534
30.36,32102.0,34991.1,1.7085,-0.1117,144.9,96.6,0.534
30.38,32010.3,35043.7,0.1726,0.52,144.9,96.6,0.534
30.4,31962.6,35082.2,-0.6259,0.9825,144.9,96.6,0.534
30.42,31962.0,35007.2,-0.6371,0.0819,144.9,96.6,0.534
30.44,31959.0,35017.0,-0.6875,0.1995,144.9,96.6,0.534
30.46,32031.6,34893.6,0.5295,-1.2834,144.9,96.6,0.534
30.48,31992.4,34829.0,-0.1281,-2.0592,144.9,96.6,0.534
30.5,31998.1,35027.0,-0.0325,0.3201,144.9,96.6,0.534
30.52,31863.5,34927.3,-2.2868,-0.8777,144.9,96.6,0.534
30.54,31953.4,34880.6,-0.78,-1.44,144.9,96.6,0.534
30.56,31904.1,34884.1,-1.6073,-1.3968,144.9,96.6,0.534
30.58,31968.8,34883.4,-0.5234,-1.4056,144.9,96.6,0.534
30.6,31986.0,34956.5,-0.2341,-0.5278,144.9,96.6,0.534
30.62,31978.2,34965.2,-0.3646,-0.4225,144.9,96.6,0.534
30.64,32047.5,35024.4,0.7951,0.2882,144.9,96.6,0.534
30.66,31992.3,35089.1,-0.1288,1.0663,144.9,96.6,0.534
30.68,32128.7,35093.1,2.156,1.1137,144.9,96.6,0.534
30.7,32070.3,35130.6,1.1782,1.5649,144.9,96.6,0.534
30.72,32067.3,35157.1,1.1278,1.8828,144.9,96.6,0.534
30.74,32025.5,34996.4,0.4266,-0.0477,144.9,96.6,0.534
30.76,32033.2,35101.2,0.5566,1.2111,144.9,96.6,0.534
30.78,32039.8,34997.4,0.6667,-0.0363,144.9,96.6,0.534
30.8,31964.1,34997.2,-0.6018,-0.0384,144.9,96.6,0.534
30.82,32078.2,34955.5,1.3093,-0.5396,144.9,96.6,0.534
30.84,32157.8,34969.0,2.6445,-0.3775,144.9,96.6,0.534
30.86,32041.0,34911.0,0.6868,-1.0737,144.9,96.6,0.534
30.88,31942.1,34957.4,-0.9702,-0.5172,144.9,96.6,0.534
30.9,31955.9,34943.1,-0.7395,-0.6883,144.9,96.6,0.534
30.92,31919.0,34936.2,-1.3575,-0.7719,144.9,96.6,0.534
30.94,31975.1,34928.5,-0.417,-0.8633,144.9,96.6,0.534
30.96,31949.6,34894.8,-0.8438,-1.2683,144.9,96.6,0.534
30.98,32006.9,34894.6,0.1158,-1.2707,144.9,96.6,0.534
31.0,32026.2,34921.0,0.4381,-0.9535,144.9,96.6,0.534
31.02,31955.3,35005.2,-0.7487,0.0579,144.9,96.6,0.534
31.04,31947.1,34998.1,-0.8871,-0.027,144.9,96.6,0.534
31.06,32087.4,35069.2,1.4635,0.8263,144.9,96.6,0.534
31.08,32075.1,35113.9,1.2585,1.3633,144.9,96.6,0.534
31.1,32115.3,35068.6,1.9315,0.8197,144.9,96.6,0.534
31.12,32056.0,35118.0,0.938,1.4135,144.9,96.6,0.534
31.14,32090.6,35037.2,1.5184,0.4419,144.9,96.6,0.534
31.16,32048.8,35105.1,0.8179,1.258,144.9,96.6,0.534
31.18,32020.6,35086.2,0.3445,1.0316,144.9,96.6,0.534
31.2,32091.0,35041.0,1.5246,0.4883,144.9,96.6,0.534
31.22,31892.7,34945.1,-1.7972,-0.6642,144.9,96.6,0.534
31.24,31970.1,34958.7,-0.5018,-0.501,144.9,96.6,0.534
31.26,32003.9,34969.0,0.066,-0.3775,144.9,96.6,0.534
31.28,32006.6,34905.2,0.1104,-1.1435,144.9,96.6,0.534
31.3,32006.0,34940.0,0.1002,-0.7256,144.9,96.6,0.534
31.32,31905.7,34879.0,-1.5792,-1.459,144.9,96.6,0.534
31.34,31969.0,34969.7,-0.5192,-0.3685,144.9,96.6,0.534
31.36,32002.6,34983.7,0.043,-0.2006,144.9,96.6,0.534
31.38,31932.6,34973.9,-1.1298,-0.3178,144.9,96.6,0.534
31.4,31888.7,34928.5,-1.865,-0.8636,144.9,96.6,0.534
31.42,31830.7,34908.0,-2.8361,-1.1108,144.9,96.6,0.534
31.44,32032.1,34964.4,0.5372,-0.4322,144.9,96.6,0.534
31.46,32028.9,34968.2,0.4846,-0.3871,144.9,96.6,0.534
31.48,32036.8,35159.3,0.6172,1.909,144.9,96.6,0.534
31.5,32078.0,35113.3,1.3066,1.357,144.9,96.6,0.534
31.52,32043.6,35111.5,0.7301,1.335,144.9,96.6,0.534
31.54,32132.1,35181.5,2.2127,2.1756,144.9,96.6,0.534
31.56,32072.9,35092.5,1.2217,1.1062,144.9,96.6,0.534
31.58,31996.6,35029.1,-0.0571,0.3448,144.9,96.6,0.534
31.6,31875.4,35096.7,-2.088,1.1574,144.9,96.6,0.534
31.62,32116.2,35010.8,1.9465,0.1245,144.9,96.6,0.534
31.64,31991.8,35019.0,-0.1379,0.2237,144.9,96.6,0.534
31.66,31931.8,35005.0,-1.1424,0.0552,144.9,96.6,0.534
31.68,32017.4,34937.4,0.2916,-0.7573,144.9,96.6,0.534
31.7,31973.4,34864.3,-0.4464,-1.6353,144.9,96.6,0.534
31.72,31959.8,34869.2,-0.6742,-1.576,144.9,96.6,0.534
31.74,31892.2,35048.2,-1.8054,0.5739,144.9,96.6,0.534
31.76,31880.7,34937.7,-1.998,-0.753,144.9,96.6,0.534
31.78,31955.8,35010.7,-0.7408,0.1236,144.9,96.6,0.534
31.8,31989.0,35004.5,-0.1838,0.0497,144.9,96.6,0.534
31.82,31932.0,34900.3,-1.1387,-1.2022,144.9,96.6,0.534
31.84,31953.6,34922.4,-0.7774,-0.9366,144.9,96.6,0.534
31.86,31932.8,34930.9,-1.1264,-0.8346,144.9,96.6,0.534
31.88,31957.0,35020.2,-0.7213,0.2381,144.9,96.6,0.534
31.9,32039.9,35187.7,0.6687,2.2506,144.9,96.6,0.534
31.92,32081.9,35113.4,1.3722,1.3575,144.9,96.6,0.534
31.94,31948.9,35077.0,-0.856,0.9205,144.9,96.6,0.534
31.96,32013.8,34968.0,0.2306,-0.3898,144.9,96.6,0.534
31.98,32008.6,35078.0,0.1435,0.9329,144.9,96.6,0.534
32.0,32109.5,35056.3,1.8339,0.6712,144.9,96.6,0.534
32.02,31991.1,35058.3,-0.1494,0.6956,144.9,96.6,0.534
32.04,32104.5,34955.9,1.7502,-0.5349,144.9,96.6,0.534
32.06,32069.7,34983.7,1.1674,-0.2004,144.9,96.6,0.534
32.08,31999.6,34993.4,-0.007,-0.0838,144.9,96.6,0.534
32.1,32033.4,35013.4,0.559,0.1559,144.9,96.6,0.534
32.12,32001.9,34912.7,0.032,-1.0542,144.9,96.6,0.534
32.14,32001.5,34959.2,0.0257,-0.4946,144.9,96.6,0.534
32.16,32050.7,35016.1,0.8492,0.1881,144.9,96.6,0.534
32.18,32024.1,34901.4,0.4039,-1.1897,144.9,96.6,0.534
32.2,31926.7,34843.9,-1.2286,-1.8799,144.9,96.6,0.534
32.22,32016.5,34865.9,0.276,-1.6158,144.9,96.6,0.534
32.24,32006.1,34894.3,0.1015,-1.2751,144.9,96.6,0.534
32.26,31953.0,34982.5,-0.7879,-0.2148,144.9,96.6,0.534
32.28,32043.0,35004.3,0.7203,0.0473,144.9,96.6,0.534
32.3,32107.9,35072.9,1.8071,0.8711,144.9,96.6,0.534
32.32,32125.9,35127.9,2.1085,1.5317,144.9,96.6,0.534
32.34,31988.8,35144.5,-0.1884,1.7315,144.9,96.6,0.534
32.36,32096.8,35063.7,1.6219,0.7601,144.9,96.6,0.534
32.38,32068.8,35096.4,1.1528,1.1531,144.9,96.6,0.534
32.4,32039.9,35107.7,0.6692,1.2894,144.9,96.6,0.534
32.42,31996.2,35047.9,-0.0636,0.5706,144.9,96.6,0.534
32.44,32002.7,35071.3,0.0451,0.852,144.9,96.6,0.534
32.46,32012.7,34923.0,0.2127,-0.9302,144.9,96.6,0.534
32.48,31986.8,35083.4,-0.221,0.9968,144.9,96.6,0.534
32.5,32013.7,34968.5,0.2289,-0.3837,144.9,96.6,0.534
32.52,31859.9,34971.5,-2.3478,-0.3477,144.9,96.6,0.534
32.54,31907.4,34934.5,-1.5507,-0.7913,144.9,96.6,0.534
32.56,31973.4,34894.1,-0.4452,-1.2768,144.9,96.6,0.534
32.58,31955.2,34958.7,-0.7504,-0.5009,144.9,96.6,0.534
32.6,31938.9,34932.7,-1.0236,-0.8137,144.9,96.6,0.534
32.62,31999.2,34947.0,-0.0134,-0.6419,144.9,96.6,0.534
32.64,31986.2,34944.1,-0.232,-0.676,144.9,96.6,0.534
32.66,31970.0,34879.9,-0.5024,-1.4478,144.9,96.6,0.534
32.68,31956.5,34977.1,-0.729,-0.2798,144.9,96.6,0.534
32.7,32022.3,35066.0,0.3743,0.7879,144.9,96.6,0.534
32.72,31963.1,35141.9,-0.6189,1.7008,144.9,96.6,0.534
32.74,31994.3,35178.5,-0.0957,2.1396,144.9,96.6,0.534
32.76,32036.9,35136.3,0.6174,1.6334,144.9,96.6,0.534
32.78,32090.9,35160.6,1.5225,1.9244,144.9,96.6,0.534
32.8,32079.7,35052.6,1.3351,0.6272,144.9,96.6,0.534
32.82,32069.1,35048.7,1.1578,0.5798,144.9,96.6,0.534
32.84,32040.1,35030.3,0.6715,0.3587,144.9,96.6,0.534
32.86,31940.7,35063.3,-0.9935,0.7556,144.9,96.6,0.534
32.88,31948.8,34970.4,-0.8572,-0.3599,144.9,96.6,0.534
32.9,31910.0,34913.5,-1.5071,-1.0439,144.9,96.6,0.534
32.92,31940.7,34943.2,-0.9931,-0.6872,144.9,96.6,0.534
32.94,31957.8,35040.1,-0.7076,0.477,144.9,96.6,0.534
32.96,31919.7,34987.5,-1.3458,-0.1546,144.9,96.6,0.534
32.98,32020.9,35002.0,0.3504,0.0192,144.9,96.6,0.534
33.0,31989.3,34948.0,-0.1799,-0.6293,144.9,96.6,0.534
33.02,31930.4,35006.0,-1.1659,0.0679,144.9,96.6,0.534
33.04,31891.4,35004.2,-1.8197,0.0456,144.9,96.6,0.534
33.06,31921.4,34946.8,-1.3172,-0.6443,144.9,96.6,0.534
33.08,31872.6,34851.9,-2.1346,-1.7848,144.9,96.6,0.534
33.1,31992.6,34991.2,-0.1245,-0.1108,144.9,96.6,0.534
33.12,32004.3,34966.8,0.0717,-0.4032,144.9,96.6,0.534
33.14,31975.3,35139.5,-0.4143,1.6717,144.9,96.6,0.534
33.16,32057.6,35088.1,0.9657,1.0541,144.9,96.6,0.534
33.18,32003.7,35173.1,0.0614,2.0747,144.9,96.6,0.534
33.2,32093.7,35020.7,1.5695,0.2446,144.9,96.6,0.534
33.22,32077.1,35091.3,1.2919,1.0923,144.9,96.6,0.534
33.24,32009.9,35025.7,0.1665,0.3037,144.9,96.6,0.534
33.26,31988.5,34972.3,-0.1934,-0.3381,144.9,96.6,0.534
33.28,31931.2,35021.8,-1.1528,0.2571,144.9,96.6,0.534
33.3,32010.5,34908.8,0.1753,-1.1005,144.9,96.6,0.534
33.32,31995.6,34924.7,-0.0736,-0.9101,144.9,96.6,0.534
33.34,31929.2,34956.4,-1.187,-0.5282,144.9,96.6,0.534
33.36,31985.5,34879.5,-0.2425,-1.4529,144.9,96.6,0.534
33.38,31870.6,34915.0,-2.1676,-1.0266,144.9,96.6,0.534
33.4,31930.9,34937.4,-1.1573,-0.7566,144.9,96.6,0.534
33.42,31934.5,35026.2,-1.0973,0.3103,144.9,96.6,0.534
33.44,31961.1,34944.1,-0.6521,-0.6764,144.9,96.6,0.534
33.46,31981.2,35054.8,-0.3149,0.6542,144.9,96.6,0.534
33.48,31841.3,34860.6,-2.6587,-1.6794,144.9,96.6,0.534
33.5,31905.0,34896.5,-1.5919,-1.2481,144.9,96.6,0.534
33.52,31957.8,34946.1,-0.7078,-0.652,144.9,96.6,0.534
33.54,32014.8,34991.9,0.2477,-0.1015,144.9,96.6,0.534
33.56,32026.9,35039.0,0.4498,0.4635,144.9,96.6,0.534
33.58,32048.4,35140.4,0.8107,1.6817,144.9,96.6,0.534
33.6,32029.2,35109.7,0.4894,1.3136,144.9,96.6,0.534
33.62,32053.9,35101.6,0.9021,1.2165,144.9,96.6,0.534
33.64,32029.5,35086.7,0.4934,1.0368,144.9,96.6,0.534
33.66,31966.8,35124.7,-0.556,1.4941,144.9,96.6,0.534
33.68,31977.0,35007.3,-0.386,0.0828,144.9,96.6,0.534
33.7,31938.2,34996.0,-1.0355,-0.0533,144.9,96.6,0.534
33.72,31996.8,34994.1,-0.0535,-0.0755,144.9,96.6,0.534
33.74,32059.0,34988.8,0.9882,-0.1393,144.9,96.6,0.534
33.76,31982.7,35028.8,-0.2904,0.3413,144.9,96.6,0.534
33.78,32009.2,35050.5,0.1535,0.6015,144.9,96.6,0.534
33.8,32006.8,34890.9,0.1142,-1.3151,144.9,96.6,0.534
33.82,31990.5,34978.6,-0.1587,-0.2615,144.9,96.6,0.534
33.84,31923.3,34984.4,-1.2853,-0.1928,144.9,96.6,0.534
33.86,31897.1,34981.9,-1.7247,-0.2222,144.9,96.6,0.534
33.88,32058.6,34906.6,0.9817,-1.1272,144.9,96.6,0.534
33.9,31945.9,34911.6,-0.9067,-1.0668,144.9,96.6,0.534
33.92,31992.8,34997.1,-0.1204,-0.0391,144.9,96.6,0.534
33.94,31984.1,34933.3,-0.2658,-0.8063,144.9,96.6,0.534
33.96,32036.5,35000.0,0.6111,-0.0052,144.9,96.6,0.534
33.98,31981.4,35044.1,-0.3118,0.5253,144.9,96.6,0.534
34.0,32114.6,35144.7,1.9204,1.7342,144.9,96.6,0.534
34.02,32027.0,35155.2,0.4521,1.8602,144.9,96.6,0.534
34.04,32030.9,35009.7,0.518,0.1124,144.9,96.6,0.534
34.06,31974.8,35182.9,-0.4221,2.1926,144.9,96.6,0.534
34.08,32114.7,34925.5,1.9208,-0.9004,144.9,96.6,0.534
34.1,31975.0,34921.0,-0.4194,-0.9536,144.9,96.6,0.534
34.12,31987.3,35016.9,-0.2125,0.1987,144.9,96.6,0.534
34.14,32040.8,34960.3,0.6828,-0.482,144.9,96.6,0.534
34.16,31957.1,35012.2,-0.7188,0.1418,144.9,96.6,0.534
34.18,31948.8,34894.9,-0.8579,-1.2682,144.9,96.6,0.534
34.2,32043.5,34982.3,0.7284,-0.2169,144.9,96.6,0.534
34.22,31959.8,34881.8,-0.6731,-1.4249,144.9,96.6,0.534
34.24,32014.1,35016.4,0.2355,0.1921,144.9,96.6,0.534
34.26,31977.2,34968.8,-0.3827,-0.3799,144.9,96.6,0.534
34.28,31866.8,34931.6,-2.2322,-0.8261,144.9,96.6,0.534
34.3,31988.3,34889.0,-0.1965,-1.339,144.9,96.6,0.534
34.32,31976.6,34947.9,-0.3918,-0.6311,144.9,96.6,0.534
34.34,32081.9,34910.9,1.3726,-1.075,144.9,96.6,0.534
34.36,32045.9,34953.7,0.7694,-0.5605,144.9,96.6,0.534
34.38,31958.4,34966.1,-0.6971,-0.4115,144.9,96.6,0.534
34.4,32063.5,35126.0,1.0646,1.5091,144.9,96.6,0.534
34.42,32102.6,35142.7,1.7193,1.7096,144.9,96.6,0.534
34.44,32022.2,35165.3,0.372,1.9816,144.9,96.6,0.534
34.46,32114.3,35050.4,1.9154,0.6011,144.9,96.6,0.534
34.48,32024.5,35051.2,0.4096,0.611,144.9,96.6,0.534
34.5,32108.3,35019.5,1.815,0.2296,144.9,96.6,0.534
34.52,32047.1,35112.6,0.7893,1.3479,144.9,96.6,0.534
34.54,31945.5,35115.6,-0.9138,1.3849,144.9,96.6,0.534
34.56,32067.1,35046.8,1.1233,0.5576,144.9,96.6,0.534
34.58,31833.7,34837.6,-2.7869,-1.9558,144.9,96.6,0.534
34.6,32021.3,34906.3,0.3561,-1.1309,144.9,96.6,0.534
34.62,31930.9,34880.8,-1.1584,-1.4375,144.9,96.6,0.534
34.64,31935.2,34948.9,-1.0853,-0.6184,144.9,96.6,0.534
34.66,31930.5,34989.4,-1.1651,-0.1322,144.9,96.6,0.534
34.68,31971.2,35005.9,-0.4833,0.0657,144.9,96.6,0.534
34.7,31935.5,34970.1,-1.0803,-0.3637,144.9,96.6,0.534
34.72,31866.6,34869.9,-2.2358,-1.5684,144.9,96.6,0.534
34.74,32030.8,34948.7,0.5157,-0.6208,144.9,96.6,0.534
34.76,32015.5,34965.7,0.2604,-0.417,144.9,96.6,0.534
34.78,32005.5,35044.9,0.0928,0.5348,144.9,96.6,0.534
34.8,32055.2,35169.3,0.9249,2.0289,144.9,96.6,0.534
34.82,32057.2,35183.4,0.959,2.1995,144.9,96.6,0.534
34.84,32056.5,35093.9,0.9469,1.1235,144.9,96.6,0.534
34.86,32042.3,35125.5,0.708,1.5035,144.9,96.6,0.534
34.88,32056.4,35062.3,0.9455,0.7438,144.9,96.6,0.534
34.9,31994.4,34996.8,-0.0931,-0.0431,144.9,96.6,0.534
34.92,32061.2,35075.1,1.0251,0.8977,144.9,96.6,0.534
34.94,31879.9,35000.6,-2.0122,0.0027,144.9,96.6,0.534
34.96,31935.6,34990.6,-1.0792,-0.118,144.9,96.6,0.534
34.98,31994.4,34916.6,-0.0931,-1.0074,144.9,96.6,0.534
35.0,31980.6,34992.0,-0.3243,-0.1012,144.9,96.6,0.534
35.02,31897.0,34947.3,-1.7257,-0.6383,144.9,96.6,0.534
35.04,31902.7,34934.6,-1.6301,-0.7902,144.9,96.6,0.534
35.06,31966.7,34968.4,-0.5576,-0.385,144.9,96.6,0.534
35.08,32019.0,34923.0,0.3174,-0.9303,144.9,96.6,0.534
35.1,32003.4,34940.7,0.0568,-0.7167,144.9,96.6,0.534
35.12,31924.5,34892.1,-1.2653,-1.3019,144.9,96.6,0.534
35.14,31864.1,34868.1,-2.2762,-1.5898,144.9,96.6,0.534
35.16,31980.4,34935.7,-0.3284,-0.7769,144.9,96.6,0.534
35.18,31943.4,35041.9,-0.9487,0.499,144.9,96.6,0.534
35.2,32095.0,35003.2,1.5915,0.0336,144.9,96.6,0.534
35.22,32073.1,35054.3,1.2242,0.6474,144.9,96.6,0.534
35.24,32092.9,35039.7,1.5559,0.4722,144.9,96.6,0.534
35.26,32141.5,35033.6,2.3699,0.3992,144.9,96.6,0.534
35.28,32062.5,35126.8,1.0466,1.5185,144.9,96.6,0.534
35.3,32002.3,35024.4,0.0382,0.288,144.9,96.6,0.534
35.32,31955.9,35062.4,-0.7385,0.745,144.9,96.6,0.534
35.34,32127.6,34963.3,2.1375,-0.4457,144.9,96.6,0.534
35.36,31964.6,35018.8,-0.5937,0.2217,144.9,96.6,0.534
35.38,31971.3,35090.1,-0.4814,1.0783,144.9,96.6,0.534
35.4,31999.3,34929.1,-0.0111,-0.8563,144.9,96.6,0.534
35.42,31987.2,34914.9,-0.2148,-1.0269,144.9,96.6,0.534
35.44,32016.4,35022.6,0.2741,0.2669,144.9,96.6,0.534
35.46,31987.1,34954.8,-0.2165,-0.5482,144.9,96.6,0.534
35.48,31980.8,34985.2,-0.3211,-0.1831,144.9,96.6,0.534
35.5,31976.1,34878.9,-0.4002,-1.4602,144.9,96.6,0.534
35.52,31957.1,34952.0,-0.7186,-0.5817,144.9,96.6,0.534
35.54,31944.1,34956.5,-0.937,-0.5277,144.9,96.6,0.534
35.56,31935.0,34938.0,-1.0893,-0.7498,144.9,96.6,0.534
35.58,31996.0,34916.2,-0.0666,-1.0114,144.9,96.6,0.534
35.6,32002.3,35128.2,0.0382,1.5356,144.9,96.6,0.534
35.62,32058.9,35008.4,0.9866,0.0964,144.9,96.6,0.534
35.64,32001.1,35064.9,0.0175,0.7754,144.9,96.6,0.534
35.66,32088.0,35162.8,1.4743,1.9514,144.9,96.6,0.534
35.68,32005.2,35077.7,0.0876,0.9293,144.9,96.6,0.534
35.7,32077.2,35133.1,1.2925,1.5949,144.9,96.6,0.534
35.72,32016.4,34994.0,0.2753,-0.077,144.9,96.6,0.534
35.74,32004.8,35003.5,0.0798,0.0377,144.9,96.6,0.534
35.76,32009.9,35062.9,0.1653,0.7509,144.9,96.6,0.534
35.78,31994.5,35018.8,-0.0929,0.2213,144.9,96.6,0.534
35.8,31973.7,34976.6,-0.4409,-0.2855,144.9,96.6,0.534
35.82,32031.6,34929.5,0.5296,-0.8513,144.9,96.6,0.534
35.84,32057.5,34977.6,0.9628,-0.2745,144.9,96.6,0.534
35.86,32027.2,34923.1,0.455,-0.9285,144.9,96.6,0.534
35.88,31970.6,34908.1,-0.4922,-1.1095,144.9,96.6,0.534
35.9,31963.6,34846.8,-0.6107,-1.8462,144.9,96.6,0.534
35.92,31959.3,34910.0,-0.6818,-1.0867,144.9,96.6,0.534
35.94,32006.4,35037.6,0.1073,0.4468,144.9,96.6,0.534
35.96,32000.2,34917.9,0.0033,-0.991,144.9,96.6,0.534
35.98,31992.2,34957.5,-0.1303,-0.5153,144.9,96.6,0.534
36.0,32001.1,34965.8,0.0187,-0.4151,144.9,96.6,0.534
36.02,32127.2,35033.8,2.1309,0.401,144.9,96.6,0.534
36.04,32060.8,35096.4,1.0192,1.1532,144.9,96.6,0.534
36.06,32027.3,35124.0,0.4575,1.4854,144.9,96.6,0.534
36.08,32104.5,35101.2,1.7505,1.2112,144.9,96.6,0.534
36.1,31979.0,35092.0,-0.3517,1.1005,144.9,96.6,0.534
36.12,32100.0,35030.3,1.6749,0.3588,144.9,96.6,0.534
36.14,32042.8,35068.8,0.7169,0.8217,144.9,96.6,0.534
36.16,32057.1,34956.5,0.956,-0.5277,144.9,96.6,0.534
36.18,31993.5,34848.7,-0.1089,-1.8232,144.9,96.6,0.534
36.2,32047.7,34954.4,0.7998,-0.5526,144.9,96.6,0.534
36.22,32054.8,34961.3,0.9177,-0.4694,144.9,96.6,0.534
36.24,31939.3,34964.4,-1.0166,-0.433,144.9,96.6,0.534
36.26,32030.3,34880.4,0.5074,-1.4421,144.9,96.6,0.534
36.28,31931.7,34889.4,-1.1452,-1.3335,144.9,96.6,0.534
36.3,31917.6,34962.6,-1.3798,-0.454,144.9,96.6,0.534
36.32,31889.3,34938.6,-1.8546,-0.7421,144.9,96.6,0.534
36.34,32022.0,34970.0,0.3682,-0.3658,144.9,96.6,0.534
36.36,31916.1,34951.1,-1.4056,-0.5924,144.9,96.6,0.534
36.38,31967.5,34917.3,-0.545,-0.9984,144.9,96.6,0.534
36.4,31981.6,34955.0,-0.309,-0.5458,144.9,96.6,0.534
36.42,32057.4,34923.8,0.9611,-0.9198,144.9,96.6,0.534
36.44,32004.6,35011.6,0.0762,0.1347,144.9,96.6,0.534
36.46,32076.8,35237.0,1.2872,2.8434,144.9,96.6,0.534
36.48,32166.3,35177.0,2.786,2.1216,144.9,96.6,0.534
36.5,31978.5,35100.1,-0.3605,1.1982,144.9,96.6,0.534
36.52,32023.1,35166.3,0.3871,1.993,144.9,96.6,0.534
36.54,32014.6,35055.7,0.2441,0.6649,144.9,96.6,0.534
36.56,31980.8,35038.4,-0.3211,0.4564,144.9,96.6,0.534
36.58,31926.5,35086.2,-1.2313,1.0312,144.9,96.6,0.534
36.6,31934.9,35034.5,-1.0916,0.4101,144.9,96.6,0.534
36.62,32003.9,35031.9,0.0658,0.3791,144.9,96.6,0.534
36.64,32040.2,34983.0,0.6732,-0.2088,144.9,96.6,0.534
36.66,32029.0,34891.6,0.4865,-1.3077,144.9,96.6,0.534
36.68,31945.9,34958.3,-0.9071,-0.5053,144.9,96.6,0.534
36.7,32020.0,34894.3,0.3344,-1.275,144.9,96.6,0.534
36.72,31850.1,34930.8,-2.5115,-0.836,144.9,96.6,0.534
36.74,31993.1,34783.1,-0.1156,-2.6109,144.9,96.6,0.534
36.76,32028.0,34842.7,0.4694,-1.8943,144.9,96.6,0.534
36.78,31958.4,34895.3,-0.6971,-1.2631,144.9,96.6,0.534
36.8,31960.2,35021.3,-0.6668,0.2506,144.9,96.6,0.534
36.82,31980.2,34969.8,-0.3314,-0.3681,144.9,96.6,0.534
36.84,32073.2,34900.5,1.2267,-1.2009,144.9,96.6,0.534
36.86,32028.5,35084.1,0.4767,1.0056,144.9,96.6,0.534
36.88,32027.8,34987.9,0.4664,-0.1502,144.9,96.6,0.534
36.9,32092.4,35002.5,1.5488,0.0255,144.9,96.6,0.534
36.92,32102.3,35151.5,1.714,1.8153,144.9,96.6,0.534
36.94,32024.5,35072.5,0.41,0.8667,144.9,96.6,0.534
36.96,32054.8,35025.8,0.9178,0.3055,144.9,96.6,0.534
36.98,31950.3,35005.7,-0.8333,0.0641,144.9,96.6,0.534
37.0,31942.9,34966.5,-0.9571,-0.4078,144.9,96.6,0.534
37.02,32038.6,34997.3,0.6464,-0.0373,144.9,96.6,0.534
37.04,32074.7,34986.9,1.2511,-0.1619,144.9,96.6,0.534
37.06,31989.6,34981.4,-0.1749,-0.2285,144.9,96.6,0.534
37.08,31982.3,34990.0,-0.2966,-0.1255,144.9,96.6,0.534
37.1,32065.9,34955.7,1.1033,-0.5371,144.9,96.6,0.534
37.12,32013.6,34912.1,0.2277,-1.0605,144.9,96.6,0.534
37.14,31974.4,35037.6,-0.4295,0.4465,144.9,96.6,0.534
37.16,31927.3,34951.2,-1.2186,-0.5912,144.9,96.6,0.534
37.18,31959.1,34962.6,-0.6853,-0.4537,144.9,96.6,0.534
37.2,31947.0,34884.9,-0.8874,-1.388,144.9,96.6,0.534
37.22,31990.0,34907.6,-0.1671,-1.1144,144.9,96.6,0.534
37.24,31942.7,34987.1,-0.9607,-0.1596,144.9,96.6,0.534
37.26,31950.8,35096.1,-0.8246,1.1503,144.9,96.6,0.534
37.28,31984.7,35062.7,-0.2556,0.749,144.9,96.6,0.534
37.3,32044.1,35163.1,0.7381,1.9548,144.9,96.6,0.534
37.32,31997.9,35163.5,-0.0354,1.9602,144.9,96.6,0.534
37.34,32014.7,35143.3,0.2456,1.7172,144.9,96.6,0.534
37.36,31966.3,35155.2,-0.564,1.8597,144.9,96.6,0.534
37.38,31990.9,35071.5,-0.1527,0.8545,144.9,96.6,0.534
37.4,31981.7,35002.1,-0.3068,0.0199,144.9,96.6,0.534
37.42,31973.5,35066.7,-0.4438,0.7966,144.9,96.6,0.534
37.44,32087.0,34984.5,1.4582,-0.1911,144.9,96.6,0.534
37.46,31991.9,34973.0,-0.1362,-0.3294,144.9,96.6,0.534
37.48,31978.1,34972.6,-0.3668,-0.3337,144.9,96.6,0.534
37.5,31941.6,34908.2,-0.979,-1.1079,144.9,96.6,0.534
37.52,31999.3,34913.9,-0.0121,-1.0388,144.9,96.6,0.534
37.54,32048.2,34948.5,0.8078,-0.6231,144.9,96.6,0.534
37.56,31999.4,34915.2,-0.0099,-1.0239,144.9,96.6,0.534
37.58,31937.0,34873.7,-1.0554,-1.5222,144.9,96.6,0.534
37.6,32032.4,34953.4,0.5432,-0.5651,144.9,96.6,0.534
37.62,31899.2,34944.4,-1.6891,-0.6733,144.9,96.6,0.534
37.64,32032.0,34894.2,0.5357,-1.276,144.9,96.6,0.534
37.66,31976.5,35031.0,-0.3945,0.3676,144.9,96.6,0.534
37.68,32073.7,35020.8,1.2345,0.2447,144.9,96.6,0.534
37.7,32071.7,35084.4,1.201,1.0094,144.9,96.6,0.534
37.72,32064.9,35094.1,1.0875,1.1259,144.9,96.6,0.534
37.74,32041.9,35144.9,0.7015,1.7365,144.9,96.6,0.534
37.76,32119.4,35125.1,2.0006,1.4988,144.9,96.6,0.534
37.78,32089.2,35023.7,1.4936,0.2802,144.9,96.6,0.534
37.8,32041.4,35007.2,0.694,0.0817,144.9,96.6,0.534
37.82,32041.0,35060.1,0.6872,0.7176,144.9,96.6,0.534
37.84,32050.3,35062.3,0.8427,0.7439,144.9,96.6,0.534
37.86,32037.9,34983.1,0.6353,-0.2077,144.9,96.6,0.534
37.88,32014.5,34942.8,0.2436,-0.6921,144.9,96.6,0.534
37.9,31965.2,34970.0,-0.5832,-0.3648,144.9,96.6,0.534
37.92,31954.8,34962.6,-0.7573,-0.4547,144.9,96.6,0.534
37.94,32017.9,34957.3,0.2994,-0.5183,144.9,96.6,0.534
37.96,31873.8,34933.3,-2.1141,-0.8065,144.9,96.6,0.534
37.98,31978.0,34996.8,-0.369,-0.0437,144.9,96.6,0.534
38.0,31940.6,34902.2,-0.9955,-1.1801,144.9,96.6,0.534
38.02,31999.6,34884.4,-0.0064,-1.3932,144.9,96.6,0.534
38.04,31963.9,34960.0,-0.605,-0.4857,144.9,96.6,0.534
38.06,32000.2,35068.2,0.0035,0.8145,144.9,96.6,0.534
38.08,31945.6,34933.9,-0.9107,-0.7992,144.9,96.6,0.534
38.1,32080.8,35007.5,1.3542,0.0853,144.9,96.6,0.534
38.12,32001.4,35128.7,0.023,1.5412,144.9,96.6,0.534
38.14,31920.7,35060.4,-1.3281,0.7206,144.9,96.6,0.534
38.16,32133.7,35084.2,2.2406,1.0064,144.9,96.6,0.534
38.18,31974.6,35091.9,-0.4255,1.1,144.9,96.6,0.534
38.2,32007.5,35171.8,0.1254,2.0593,144.9,96.6,0.534
38.22,31947.1,35000.9,-0.8865,0.0058,144.9,96.6,0.534
38.24,31979.3,35035.4,-0.3477,0.4202,144.9,96.6,0.534
38.26,32013.8,35000.5,0.2311,0.0013,144.9,96.6,0.534
38.28,31958.9,35018.4,-0.6894,0.2166,144.9,96.6,0.534
38.3,31968.1,34930.6,-0.5353,-0.8392,144.9,96.6,0.534
38.32,32025.6,34910.2,0.4295,-1.0838,144.9,96.6,0.534
38.34,32040.5,34915.3,0.6783,-1.0224,144.9,96.6,0.534
38.36,31961.8,34992.2,-0.6396,-0.098,144.9,96.6,0.534
38.38,31941.4,34900.2,-0.9824,-1.2042,144.9,96.6,0.534
38.4,31969.0,34975.9,-0.5199,-0.2945,144.9,96.6,0.534
38.42,31971.6,34902.4,-0.4762,-1.1771,144.9,96.6,0.534
38.44,31922.1,34920.4,-1.3051,-0.9617,144.9,96.6,0.534
38.46,31969.3,34931.3,-0.5147,-0.8306,144.9,96.6,0.534
38.48,32025.7,34938.8,0.4305,-0.7405,144.9,96.6,0.534
38.5,31999.3,35075.0,-0.0121,0.8969,144.9,96.6,0.534
38.52,32209.9,35122.1,3.516,1.4624,144.9,96.6,0.534
38.54,32030.5,35231.4,0.5117,2.7758,144.9,96.6,0.534
38.56,32063.7,35151.6,1.0674,1.8171,144.9,96.6,0.534
38.58,32114.7,35028.4,1.9223,0.3362,144.9,96.6,0.534
38.6,32021.8,35131.1,0.3643,1.5709,144.9,96.6,0.534
38.62,32080.4,35051.7,1.3464,0.6169,144.9,96.6,0.534
38.64,32123.2,35006.9,2.0647,0.0779,144.9,96.6,0.534
38.66,31992.0,34995.6,-0.1346,-0.0574,144.9,96.6,0.534
38.68,31913.3,35090.6,-1.453,1.0834,144.9,96.6,0.534
38.7,31995.5,35035.5,-0.0747,0.4223,144.9,96.6,0.534
38.72,32024.6,34928.9,0.4121,-0.8594,144.9,96.6,0.534
38.74,32052.1,34997.2,0.873,-0.038,144.9,96.6,0.534
38.76,31950.1,34993.6,-0.8364,-0.0813,144.9,96.6,0.534
38.78,31989.9,34974.5,-0.169,-0.3106,144.9,96.6,0.534
38.8,31993.5,34911.7,-0.1089,-1.0663,144.9,96.6,0.534
38.82,31941.6,34919.6,-0.9793,-0.9713,144.9,96.6,0.534
38.84,31972.0,34995.7,-0.4684,-0.0559,144.9,96.6,0.534
38.86,31920.5,34930.8,-1.3323,-0.8368,144.9,96.6,0.534
38.88,31958.7,34994.9,-0.6927,-0.0665,144.9,96.6,0.534
38.9,31943.3,34993.2,-0.9502,-0.0859,144.9,96.6,0.534
38.92,31996.3,35049.3,-0.0623,0.5878,144.9,96.6,0.534
38.94,32038.8,35114.8,0.6507,1.3747,144.9,96.6,0.534
38.96,32105.0,35161.8,1.7591,1.9399,144.9,96.6,0.534
38.98,31999.9,35047.8,-0.0012,0.57,144.9,96.6,0.534
39.0,31943.4,35106.1,-0.9487,1.2699,144.9,96.6,0.534
39.02,32039.2,35031.0,0.6573,0.3682,144.9,96.6,0.534
39.04,32002.8,35059.6,0.0473,0.7114,144.9,96.6,0.534
39.06,32021.1,34966.8,0.3534,-0.4036,144.9,96.6,0.534
39.08,31940.1,35043.3,-1.0032,0.5153,144.9,96.6,0.534
39.1,32055.8,35059.7,0.9354,0.7126,144.9,96.6,0.534
39.12,31997.8,34939.9,-0.0371,-0.7273,144.9,96.6,0.534
39.14,31991.0,34880.2,-0.1504,-1.4437,144.9,96.6,0.534
39.16,31942.8,34917.1,-0.9581,-1.0013,144.9,96.6,0.534
39.18,31948.3,35003.5,-0.8659,0.0377,144.9,96.6,0.534
39.2,31972.7,34968.0,-0.4568,-0.3889,144.9,96.6,0.534
39.22,31996.8,34942.1,-0.0531,-0.7008,144.9,96.6,0.534
39.24,31992.5,34936.6,-0.1257,-0.7671,144.9,96.6,0.534
39.26,31963.2,34879.8,-0.6164,-1.4492,144.9,96.6,0.534
39.28,31918.8,34994.4,-1.3605,-0.0719,144.9,96.6,0.534
39.3,32073.1,34951.7,1.2243,-0.5846,144.9,96.6,0.534
39.32,31967.8,35012.6,-0.5397,0.1471,144.9,96.6,0.534
39.34,32042.3,35051.0,0.7093,0.6086,144.9,96.6,0.534
39.36,32124.5,35108.8,2.0859,1.302,144.9,96.6,0.534
39.38,32043.0,35179.0,0.7199,2.1462,144.9,96.6,0.534
39.4,32046.3,35197.8,0.7761,2.3719,144.9,96.6,0.534
39.42,32068.1,35100.0,1.1402,1.1964,144.9,96.6,0.534
39.44,31945.5,35089.2,-0.9136,1.0671,144.9,96.6,0.534
39.46,31966.8,34992.7,-0.5568,-0.0921,144.9,96.6,0.534
39.48,32028.3,35028.8,0.4744,0.3412,144.9,96.6,0.534
39.5,32010.4,35032.0,0.1735,0.3799,144.9,96.6,0.534
39.52,32087.7,34941.9,1.4685,-0.7029,144.9,96.6,0.534
39.54,32040.8,35092.0,0.6838,1.1012,144.9,96.6,0.534
39.56,31971.5,35014.7,-0.4774,0.1721,144.9,96.6,0.534
39.58,32012.5,34934.1,0.2101,-0.796,144.9,96.6,0.534
39.6,31947.0,34877.4,-0.8875,-1.4776,144.9,96.6,0.534
39.62,31920.4,35035.9,-1.3334,0.427,144.9,96.6,0.534
39.64,31986.6,35042.1,-0.2254,0.5016,144.9,96.6,0.534
39.66,31919.8,34939.0,-1.3438,-0.7373,144.9,96.6,0.534
39.68,31963.4,34943.7,-0.6127,-0.6818,144.9,96.6,0.534
39.7,31987.3,34861.1,-0.2131,-1.6735,144.9,96.6,0.534
39.72,31988.0,34882.3,-0.2013,-1.4185,144.9,96.6,0.534
39.74,31952.0,35002.5,-0.8036,0.025,144.9,96.6,0.534
39.76,31993.8,35114.9,-0.1038,1.3762,144.9,96.6,0.534
39.78,32149.9,35113.2,2.5108,1.3554,144.9,96.6,0.534
39.8,32070.7,35118.7,1.1844,1.4215,144.9,96.6,0.534
39.82,32060.9,35083.6,1.0205,0.9997,144.9,96.6,0.534
39.84,32061.9,35081.4,1.0364,0.9739,144.9,96.6,0.534
39.86,31994.1,35107.1,-0.0989,1.282,144.9,96.6,0.534
39.88,31879.4,34995.3,-2.0209,-0.0617,144.9,96.6,0.534
39.9,31952.6,34935.0,-0.7939,-0.7858,144.9,96.6,0.534
39.92,31921.9,34988.3,-1.3092,-0.1459,144.9,96.6,0.534
39.94,31892.5,34955.2,-1.8015,-0.5428,144.9,96.6,0.534
39.96,31990.1,34955.1,-0.1667,-0.5448,144.9,96.6,0.534
39.98,32016.7,34939.3,0.2805,-0.7345,144.9,96.6,0.534
40.0,32008.8,34979.0,0.1471,-0.2571,144.9,96.6,0.534
40.02,31938.5,34935.8,-1.0305,-0.7762,144.9,96.6,0.534
40.04,31992.4,34854.7,-0.1275,-1.7504,144.9,96.6,0.534
40.06,31958.2,34929.5,-0.6997,-0.8524,144.9,96.6,0.534
40.08,31931.5,34905.5,-1.1473,-1.1402,144.9,96.6,0.534
40.1,31876.0,34947.6,-2.077,-0.6345,144.9,96.6,0.534
40.12,31920.2,34925.8,-1.3377,-0.8965,144.9,96.6,0.534
40.14,31963.8,34986.2,-0.6073,-0.1705,144.9,96.6,0.534
40.16,32026.2,35119.1,0.4383,1.4268,144.9,96.6,0.534
40.18,32055.6,35055.1,0.9314,0.657,144.9,96.6,0.534
40.2,31957.6,35064.0,-0.7099,0.7637,144.9,96.6,0.534
40.22,32063.1,35096.2,1.0571,1.1517,144.9,96.6,0.534
40.24,32045.3,35056.7,0.7592,0.6767,144.9,96.6,0.534
40.26,32081.3,35056.2,1.3626,0.671,144.9,96.6,0.534
40.28,32015.6,35009.1,0.2621,0.105,144.9,96.6,0.534
40.3,31929.1,34917.1,-1.1873,-1.0006,144.9,96.6,0.534
40.32,31974.8,35050.5,-0.4221,0.6023,144.9,96.6,0.534
40.34,32004.5,34938.6,0.075,-0.7428,144.9,96.6,0.534
40.36,31936.0,35015.9,-1.0725,0.1858,144.9,96.6,0.534
40.38,32017.2,35043.2,0.2883,0.5142,144.9,96.6,0.534
40.4,31948.5,34993.6,-0.8637,-0.0815,144.9,96.6,0.534
40.42,31980.4,34953.0,-0.3279,-0.5694,144.9,96.6,0.534
40.44,31857.1,35040.4,-2.3943,0.4801,144.9,96.6,0.534
40.46,31940.1,34934.0,-1.0041,-0.7978,144.9,96.6,0.534
40.48,31971.8,34938.6,-0.4731,-0.742,144.9,96.6,0.534
40.5,31943.5,34963.1,-0.9473,-0.4486,144.9,96.6,0.534
40.52,31948.8,34854.6,-0.8578,-1.7516,144.9,96.6,0.534
40.54,32001.1,34959.5,0.0179,-0.4919,144.9,96.6,0.534
40.56,31992.7,34991.3,-0.1216,-0.1091,144.9,96.6,0.534
40.58,32010.3,35071.2,0.172,0.8508,144.9,96.6,0.534
40.6,32134.7,35057.5,2.2564,0.6862,144.9,96.6,0.534
40.62,32103.3,35059.7,1.7298,0.7121,144.9,96.6,0.534
40.64,32061.9,35141.8,1.0362,1.6986,144.9,96.6,0.534
40.66,32005.6,35025.9,0.0939,0.3059,144.9,96.6,0.534
40.68,31943.5,35112.3,-0.9468,1.3444,144.9,96.6,0.534
40.7,32037.1,35002.0,0.622,0.0191,144.9,96.6,0.534
40.72,32077.8,35041.9,1.3031,0.4989,144.9,96.6,0.534
40.74,32042.4,35108.9,0.7106,1.3033,144.9,96.6,0.534
40.76,32015.3,35009.8,0.2559,0.1135,144.9,96.6,0.534
40.78,31917.6,34985.5,-1.381,-0.1786,144.9,96.6,0.534
40.8,31973.5,34994.7,-0.4439,-0.0685,144.9,96.6,0.534
40.82,31982.1,34880.7,-0.3001,-1.4384,144.9,96.6,0.534
40.84,31983.1,34937.6,-0.2824,-0.7545,144.9,96.6,0.534
40.86,31873.1,34985.8,-2.1268,-0.1751,144.9,96.6,0.534
40.88,31979.1,34938.6,-0.35,-0.7428,144.9,96.6,0.534
40.9,31924.4,34969.4,-1.267,-0.3724,144.9,96.6,0.534
40.92,31954.5,34820.1,-0.7618,-2.167,144.9,96.6,0.534
40.94,32015.2,34875.4,0.2544,-1.5019,144.9,96.6,0.534
40.96,31955.1,34982.9,-0.752,-0.2107,144.9,96.6,0.534
40.98,31963.0,34995.1,-0.6192,-0.0638,144.9,96.6,0.534
41.0,31989.4,35080.4,-0.1773,0.9612,144.9,96.6,0.534
41.02,32113.3,35201.6,1.8987,2.4172,144.9,96.6,0.534
41.04,31966.5,35058.2,-0.5617,0.694,144.9,96.6,0.534
41.06,32097.1,35119.4,1.6264,1.4295,144.9,96.6,0.534
41.08,32035.9,35016.1,0.6008,0.1882,144.9,96.6,0.534
41.1,32021.8,35017.8,0.3645,0.2087,144.9,96.6,0.534
41.12,31966.4,35090.1,-0.563,1.078,144.9,96.6,0.534
41.14,31954.2,35046.7,-0.767,0.5563,144.9,96.6,0.534
41.16,31909.2,35035.8,-1.5206,0.4248,144.9,96.6,0.534
41.18,32022.0,35003.4,0.3688,0.0364,144.9,96.6,0.534
41.2,32024.0,35053.8,0.4012,0.6418,144.9,96.6,0.534
41.22,31921.7,34957.8,-1.3122,-0.5124,144.9,96.6,0.534
41.24,31997.8,34870.8,-0.0367,-1.5572,144.9,96.6,0.534
41.26,32063.9,34916.2,1.0703,-1.012,144.9,96.6,0.534
41.28,31942.3,34959.6,-0.967,-0.49,144.9,96.6,0.534
41.3,31950.8,34950.5,-0.8248,-0.5996,144.9,96.6,0.534
41.32,32050.0,34935.4,0.8382,-0.7814,144.9,96.6,0.534
41.34,31965.5,34912.8,-0.5781,-1.0523,144.9,96.6,0.534
41.36,32003.8,34926.0,0.064,-0.8941,144.9,96.6,0.534
41.38,31966.5,34928.2,-0.5621,-0.8674,144.9,96.6,0.534
41.4,32012.4,34944.0,0.2068,-0.6778,144.9,96.6,0.534
41.42,32029.4,35032.0,0.493,0.3802,144.9,96.6,0.534
41.44,32064.6,35086.9,1.0819,1.0399,144.9,96.6,0.534
41.46,32035.8,35104.6,0.5989,1.2521,144.9,96.6,0.534
41.48,32011.3,35117.0,0.1885,1.4008,144.9,96.6,0.534
41.5,32033.1,35125.5,0.5544,1.503,144.9,96.6,0.534
41.52,32029.5,34988.1,0.4948,-0.148,144.9,96.6,0.534
41.54,32021.2,34994.2,0.3558,-0.0744,144.9,96.6,0.534
41.56,32069.8,34955.7,1.1689,-0.5372,144.9,96.6,0.534
41.58,31977.3,35032.7,-0.3807,0.3886,144.9,96.6,0.534
41.6,31898.9,35075.1,-1.6934,0.8973,144.9,96.6,0.534
41.62,31936.6,34875.6,-1.0615,-1.4994,144.9,96.6,0.534
41.64,32020.0,34921.1,0.3353,-0.9524,144.9,96.6,0.534
41.66,31933.8,34958.1,-1.1092,-0.5077,144.9,96.6,0.534
41.68,31945.4,34977.6,-0.9146,-0.2736,144.9,96.6,0.534
41.7,31922.3,34985.0,-1.3024,-0.1851,144.9,96.6,0.534
41.72,31908.3,34891.9,-1.5364,-1.3037,144.9,96.6,0.534
41.74,31966.4,34914.0,-0.5634,-1.0377,144.9,96.6,0.534
41.76,31961.1,34902.3,-0.6514,-1.1788,144.9,96.6,0.534
41.78,31984.8,34938.2,-0.2544,-0.7469,144.9,96.6,0.534
41.8,31887.3,35015.7,-1.888,0.1837,144.9,96.6,0.534
41.82,32019.2,35068.9,0.3214,0.8231,144.9,96.6,0.534
41.84,32015.8,35113.9,0.2644,1.3634,144.9,96.6,0.534
41.86,32054.1,35153.4,0.9059,1.8389,144.9,96.6,0.534
41.88,32011.4,35160.8,0.1912,1.9272,144.9,96.6,0.534
41.9,32036.8,35064.3,0.6168,0.7684,144.9,96.6,0.534
41.92,32014.2,35084.3,0.2379,1.0085,144.9,96.6,0.534
41.94,32008.7,35014.1,0.1453,0.1647,144.9,96.6,0.534
41.96,31982.8,35026.6,-0.2887,0.3153,144.9,96.6,0.534
41.98,31927.7,34986.9,-1.2108,-0.1625,144.9,96.6,0.534
42.0,32014.3,34981.9,0.2395,-0.2224,144.9,96.6,0.534
42.02,32035.0,34997.7,0.5864,-0.032,144.9,96.6,0.534
42.04,31959.1,34897.2,-0.6855,-1.2403,144.9,96.6,0.534
42.06,31893.2,34949.4,-1.7899,-0.6129,144.9,96.6,0.534
42.08,31987.8,34914.1,-0.2041,-1.0363,144.9,96.6,0.534
42.1,32019.9,34992.2,0.3332,-0.0983,144.9,96.6,0.534
42.12,32016.8,34927.7,0.2806,-0.8739,144.9,96.6,0.534
42.14,31922.2,34932.1,-1.3029,-0.8208,144.9,96.6,0.534
42.16,31915.1,34872.2,-1.423,-1.5408,144.9,96.6,0.534
42.18,31997.1,34903.2,-0.0482,-1.1682,144.9,96.6,0.534
42.2,31982.1,34883.0,-0.2995,-1.4111,144.9,96.6,0.534
42.22,31933.1,35012.5,-1.1217,0.1459,144.9,96.6,0.534
42.24,32023.8,35000.6,0.3993,0.002,144.9,96.6,0.534
42.26,32138.1,35106.2,2.3144,1.271,144.9,96.6,0.534
42.28,32107.7,35148.2,1.8036,1.7761,144.9,96.6,0.534
42.3,31960.5,35142.6,-0.6624,1.7085,144.9,96.6,0.534
42.32,32071.7,35070.5,1.2014,0.8428,144.9,96.6,0.534
42.34,32085.2,35114.3,1.427,1.3692,144.9,96.6,0.534
42.36,32033.7,35048.4,0.5653,0.5772,144.9,96.6,0.534
42.38,31941.2,35016.4,-0.9854,0.1924,144.9,96.6,0.534
42.4,32031.3,35067.3,0.5242,0.8034,144.9,96.6,0.534
42.42,32082.0,34940.1,1.3744,-0.7241,144.9,96.6,0.534
42.44,32058.2,35065.3,0.9757,0.7804,144.9,96.6,0.534
42.46,31913.2,34978.6,-1.4544,-0.2619,144.9,96.6,0.534
42.48,31980.4,34954.9,-0.3289,-0.5468,144.9,96.6,0.534
42.5,31920.1,34900.5,-1.3396,-1.1999,144.9,96.6,0.534
42.52,31935.0,34998.9,-1.089,-0.0183,144.9,96.6,0.534
42.54,31913.4,34935.3,-1.4512,-0.782,144.9,96.6,0.534
42.56,31938.9,34897.0,-1.0235,-1.242,144.9,96.6,0.534
42.58,32013.9,34883.7,0.2326,-1.4022,144.9,96.6,0.534
42.6,32013.9,34874.8,0.2325,-1.5089,144.9,96.6,0.534
42.62,32015.3,34960.1,0.2554,-0.4841,144.9,96.6,0.534
42.64,32029.3,35044.3,0.4915,0.5281,144.9,96.6,0.534
42.66,31972.5,35039.7,-0.4602,0.4718,144.9,96.6,0.534
42.68,32115.6,35098.9,1.9366,1.1838,144.9,96.6,0.534
42.7,31978.3,35096.1,-0.363,1.1498,144.9,96.6,0.534
42.72,32054.3,35074.6,0.9102,0.8913,144.9,96.6,0.534
42.74,31930.9,35028.5,-1.1584,0.3376,144.9,96.6,0.534
42.76,32107.5,35109.4,1.8014,1.3097,144.9,96.6,0.534
42.78,32010.8,35019.4,0.1806,0.2283,144.9,96.6,0.534
42.8,31997.0,34888.6,-0.0506,-1.3431,144.9,96.6,0.534
42.82,32002.8,34998.1,0.0476,-0.0276,144.9,96.6,0.534
42.84,31908.3,34906.9,-1.537,-1.124,144.9,96.6,0.534
42.86,31973.0,34986.8,-0.4524,-0.1628,144.9,96.6,0.534
42.88,32004.3,35042.7,0.0717,0.5089,144.9,96.6,0.534
42.9,32045.4,34965.6,0.7603,-0.4175,144.9,96.6,0.534
42.92,31944.5,34949.3,-0.9299,-0.6138,144.9,96.6,0.534
42.94,31930.9,34968.2,-1.1583,-0.3869,144.9,96.6,0.534
42.96,31939.9,34905.1,-1.0073,-1.1456,144.9,96.6,0.534
42.98,31971.2,34939.7,-0.4834,-0.7295,144.9,96.6,0.534
43.0,31939.8,34972.5,-1.0079,-0.335,144.9,96.6,0.534
43.02,31922.4,34970.7,-1.3003,-0.3563,144.9,96.6,0.534
43.04,31983.9,34967.7,-0.269,-0.3929,144.9,96.6,0.534
43.06,32048.3,35007.1,0.8099,0.0807,144.9,96.6,0.534
43.08,32105.0,35165.4,1.7597,1.9825,144.9,96.6,0.534
43.1,32072.9,35092.1,1.2212,1.1017,144.9,96.6,0.534
43.12,32093.4,35059.8,1.5648,0.7141,144.9,96.6,0.534
43.14,31969.9,35158.6,-0.5037,1.9014,144.9,96.6,0.534
43.16,32052.8,35099.9,0.8854,1.1954,144.9,96.6,0.534
43.18,32023.8,34896.5,0.3989,-1.2485,144.9,96.6,0.534
43.2,31970.9,34984.1,-0.488,-0.1963,144.9,96.6,0.534
43.22,31973.5,34994.4,-0.4434,-0.0718,144.9,96.6,0.534
43.24,31964.9,34996.7,-0.5889,-0.0448,144.9,96.6,0.534
43.26,32065.8,34913.8,1.1021,-1.0406,144.9,96.6,0.534
43.28,31946.2,34967.7,-0.902,-0.3932,144.9,96.6,0.534
43.3,32029.0,34981.3,0.486,-0.2294,144.9,96.6,0.534
43.32,31971.6,34971.3,-0.4753,-0.3491,144.9,96.6,0.534
43.34,31918.3,34966.8,-1.3688,-0.404,144.9,96.6,0.534
43.36,31939.6,34897.5,-1.012,-1.236,144.9,96.6,0.534
43.38,31953.9,34869.2,-0.7726,-1.5766,144.9,96.6,0.534
43.4,31944.4,34874.1,-0.9309,-1.5174,144.9,96.6,0.534
43.42,31971.0,34912.2,-0.4866,-1.0592,144.9,96.6,0.534
43.44,31957.7,34928.7,-0.709,-0.8618,144.9,96.6,0.534
43.46,31970.5,35077.3,-0.4937,0.9235,144.9,96.6,0.534
43.48,32028.8,35036.3,0.4821,0.4316,144.9,96.6,0.534
43.5,32112.6,35058.6,1.8863,0.6999,144.9,96.6,0.534
43.52,32112.3,35123.3,1.8809,1.4773,144.9,96.6,0.534
43.54,32135.0,35097.8,2.2621,1.17,144.9,96.6,0.534
43.56,32050.4,35021.5,0.845,0.254,144.9,96.6,0.534
43.58,31874.1,34909.9,-2.1086,-1.0872,144.9,96.6,0.534
43.6,32008.5,35075.9,0.1417,0.9077,144.9,96.6,0.534
43.62,32061.8,35002.3,1.0358,0.0229,144.9,96.6,0.534
43.64,31983.6,35030.0,-0.2744,0.3553,144.9,96.6,0.534
43.66,32031.6,34981.1,0.53,-0.2313,144.9,96.6,0.534
43.68,32062.5,35024.5,1.047,0.2893,144.9,96.6,0.534
43.7,31917.4,34875.3,-1.3845,-1.5027,144.9,96.6,0.534
43.72,32058.0,35037.7,0.9724,0.4487,144.9,96.6,0.534
43.74,31945.5,34960.2,-0.9138,-0.4832,144.9,96.6,0.534
43.76,32072.7,34974.5,1.2175,-0.3106,144.9,96.6,0.534
43.78,31948.9,34848.3,-0.8568,-1.8275,144.9,96.6,0.534
43.8,31907.5,34966.0,-1.5501,-0.4128,144.9,96.6,0.534
43.82,31947.0,34929.2,-0.8873,-0.8556,144.9,96.6,0.534
43.84,31913.2,34977.8,-1.4538,-0.2716,144.9,96.6,0.534
43.86,31954.7,34914.3,-0.7587,-1.0345,144.9,96.6,0.534
43.88,32000.6,35035.6,0.0097,0.4234,144.9,96.6,0.534
43.9,32070.3,35100.1,1.1782,1.1975,144.9,96.6,0.534
43.92,32108.9,35062.3,1.8251,0.7438,144.9,96.6,0.534
43.94,32110.4,35052.1,1.8495,0.6216,144.9,96.6,0.534
43.96,32091.6,35083.2,1.5347,0.995,144.9,96.6,0.534
43.98,32006.3,35009.8,0.1053,0.1131,144.9,96.6,0.534
44.0,32050.8,35107.4,0.8504,1.2857,144.9,96.6,0.534
44.02,32014.3,35085.5,0.2392,1.0229,144.9,96.6,0.534
44.04,32057.8,35077.5,0.9687,0.927,144.9,96.6,0.534
44.06,32035.2,34942.2,0.5899,-0.6995,144.9,96.6,0.534
44.08,32043.3,35143.6,0.7259,1.7203,144.9,96.6,0.534
44.1,31960.4,34899.8,-0.6631,-1.2091,144.9,96.6,0.534
44.12,31975.6,34925.5,-0.4097,-0.8994,144.9,96.6,0.534
44.14,32016.2,34867.4,0.272,-1.5979,144.9,96.6,0.534
44.16,31954.0,34977.0,-0.7706,-0.2812,144.9,96.6,0.534
44.18,32037.7,34885.0,0.6322,-1.3865,144.9,96.6,0.534
44.2,31966.5,34923.8,-0.5616,-0.9204,144.9,96.6,0.534
44.22,31925.1,34919.0,-1.2558,-0.9775,144.9,96.6,0.534
44.24,31906.5,34906.8,-1.5673,-1.1241,144.9,96.6,0.534
44.26,31936.0,34875.0,-1.0723,-1.5071,144.9,96.6,0.534
44.28,32075.8,35030.8,1.27,0.3652,144.9,96.6,0.534
44.3,32088.8,35136.4,1.4876,1.6337,144.9,96.6,0.534
44.32,32013.7,35008.9,0.2294,0.1017,144.9,96.6,0.534
44.34,32059.2,35119.7,0.9919,1.4339,144.9,96.6,0.534
44.36,32129.7,35001.7,2.1735,0.0151,144.9,96.6,0.534
44.38,32051.9,35110.2,0.8695,1.319,144.9,96.6,0.534
44.4,31981.5,35003.1,-0.3102,0.0319,144.9,96.6,0.534
44.42,31943.6,35094.2,-0.9446,1.1266,144.9,96.6,0.534
44.44,31968.3,34977.6,-0.5305,-0.2735,144.9,96.6,0.534
44.46,31960.0,34992.5,-0.6711,-0.0948,144.9,96.6,0.534
44.48,32063.4,35024.6,1.0619,0.2907,144.9,96.6,0.534
44.5,32022.1,35081.8,0.3709,0.9778,144.9,96.6,0.534
44.52,31940.1,34933.6,-1.004,-0.8028,144.9,96.6,0.534
44.54,32113.8,34980.3,1.9071,-0.2416,144.9,96.6,0.534
44.56,32098.6,34848.6,1.6512,-1.8238,144.9,96.6,0.534
44.58,32023.3,34931.4,0.3907,-0.8285,144.9,96.6,0.534
44.6,31985.8,34933.8,-0.2383,-0.7999,144.9,96.6,0.534
44.62,31963.1,34946.0,-0.6177,-0.6536,144.9,96.6,0.534
44.64,31991.6,34896.2,-0.1409,-1.2519,144.9,96.6,0.534
44.66,31966.0,34972.4,-0.5693,-0.3363,144.9,96.6,0.534
44.68,31998.6,34933.0,-0.0228,-0.8102,144.9,96.6,0.534
44.7,32014.4,35001.8,0.2419,0.0171,144.9,96.6,0.534
44.72,32044.7,35117.5,0.7487,1.4071,144.9,96.6,0.534
44.74,32072.2,35085.4,1.2087,1.0219,144.9,96.6,0.534
44.76,32021.6,35202.8,0.3617,2.4321,144.9,96.6,0.534
44.78,31939.0,35084.4,-1.0217,1.0093,144.9,96.6,0.534
44.8,32020.5,35084.8,0.3435,1.0143,144.9,96.6,0.534
44.82,32054.0,35036.9,0.9044,0.4392,144.9,96.6,0.534
44.84,31932.3,34971.7,-1.1349,-0.3449,144.9,96.6,0.534
44.86,32066.6,35023.9,1.1151,0.2826,144.9,96.6,0.534
44.88,32033.5,35010.6,0.5616,0.122,144.9,96.6,0.534
44.9,32035.1,35047.8,0.5885,0.5694,144.9,96.6,0.534
