timestamp,raw_red,raw_ir,filtered_red,filtered_ir,heart_rate,spo2,ac_dc_ratio
0.0,32012.0,35055.8,0.0552,0.138,144.8,96.8,0.527
0.02,32260.9,35420.5,1.2968,1.0334,144.8,96.8,0.527
0.04,32394.3,35714.2,1.962,1.7544,144.8,96.8,0.527
0.06,32339.3,35835.7,1.6874,2.0528,144.8,96.8,0.527
0.08,32305.9,35662.6,1.5212,1.6278,144.8,96.8,0.527
0.1,32141.0,35471.5,0.6984,1.1585,144.8,96.8,0.527
0.12,32071.1,35185.2,0.3499,0.4557,144.8,96.8,0.527
0.14,32073.7,35211.5,0.3631,0.5203,144.8,96.8,0.527
0.16,32104.7,35032.1,0.5173,0.0796,144.8,96.8,0.527
0.18,32012.4,34967.0,0.0571,-0.08,144.8,96.8,0.527
0.2,31972.3,34938.2,-0.1426,-0.1509,144.8,96.8,0.527
0.22,31930.8,34804.7,-0.3498,-0.4785,144.8,96.8,0.527
0.24,31830.0,34678.2,-0.8523,-0.7891,144.8,96.8,0.527
0.26,31802.8,34674.0,-0.9881,-0.7996,144.8,96.8,0.527
0.28,31794.6,34662.8,-1.0291,-0.827,144.8,96.8,0.527
0.3,31772.4,34737.1,-1.1399,-0.6446,144.8,96.8,0.527
0.32,31764.9,34638.2,-1.1771,-0.8873,144.8,96.8,0.527
0.34,31700.5,34476.5,-1.4987,-1.2844,144.8,96.8,0.527
0.36,31724.9,34443.6,-1.3766,-1.3653,144.8,96.8,0.527
0.38,31844.6,34614.5,-0.7799,-0.9456,144.8,96.8,0.527
0.4,31958.9,34859.7,-0.2096,-0.3436,144.8,96.8,0.527
0.42,32075.2,35278.9,0.3703,0.6857,144.8,96.8,0.527
0.44,32271.0,35637.9,1.3469,1.567,144.8,96.8,0.527
0.46,32385.8,35710.2,1.9193,1.7445,144.8,96.8,0.527
0.48,32363.9,35726.4,1.8103,1.7844,144.8,96.8,0.527
0.5,32250.6,35602.5,1.2453,1.4802,144.8,96.8,0.527
0.52,32218.2,35347.1,1.0838,0.8532,144.8,96.8,0.527
0.54,32065.5,35219.7,0.3222,0.5402,144.8,96.8,0.527
0.56,32067.8,35181.0,0.3336,0.4453,144.8,96.8,0.527
0.58,32039.0,35078.0,0.1901,0.1923,144.8,96.8,0.527
0.6,32078.3,34910.8,0.3858,-0.2182,144.8,96.8,0.527
0.62,32034.2,34960.9,0.1658,-0.095,144.8,96.8,0.527
0.64,31878.4,34864.9,-0.6109,-0.3308,144.8,96.8,0.527
0.66,31908.0,34622.7,-0.4633,-0.9255,144.8,96.8,0.527
0.68,31958.5,34665.1,-0.2115,-0.8212,144.8,96.8,0.527
0.7,31883.7,34644.7,-0.5848,-0.8713,144.8,96.8,0.527
0.72,31775.1,34569.2,-1.1266,-1.0567,144.8,96.8,0.527
0.74,31768.2,34525.6,-1.1607,-1.1638,144.8,96.8,0.527
0.76,31744.7,34535.9,-1.2777,-1.1384,144.8,96.8,0.527
0.78,31784.0,34489.3,-1.0818,-1.253,144.8,96.8,0.527
0.8,31863.4,34587.6,-0.6862,-1.0117,144.8,96.8,0.527
0.82,32038.8,35009.3,0.1888,0.0236,144.8,96.8,0.527
0.84,32156.7,35338.2,0.7769,0.8312,144.8,96.8,0.527
0.86,32323.6,35698.1,1.6091,1.7149,144.8,96.8,0.527
0.88,32344.6,35770.7,1.7138,1.8932,144.8,96.8,0.527
0.9,32336.7,35635.8,1.6748,1.5619,144.8,96.8,0.527
0.92,32256.8,35417.4,1.276,1.0258,144.8,96.8,0.527
0.94,32028.0,35254.3,0.1349,0.6252,144.8,96.8,0.527
0.96,32050.9,35155.4,0.2493,0.3826,144.8,96.8,0.527
0.98,32066.9,35050.0,0.3288,0.1237,144.8,96.8,0.527
1.0,32076.9,35005.1,0.3787,0.0134,144.8,96.8,0.527
1.02,31960.8,34939.4,-0.2003,-0.1478,144.8,96.8,0.527
1.04,31982.4,34796.8,-0.0923,-0.4979,144.8,96.8,0.527
1.06,31867.8,34767.8,-0.664,-0.5693,144.8,96.8,0.527
1.08,31850.1,34786.4,-0.7525,-0.5234,144.8,96.8,0.527
1.1,31835.8,34648.3,-0.8237,-0.8625,144.8,96.8,0.527
1.12,31762.9,34556.0,-1.1869,-1.0893,144.8,96.8,0.527
1.14,31828.9,34647.9,-0.8578,-0.8635,144.8,96.8,0.527
1.16,31746.8,34503.3,-1.2673,-1.2186,144.8,96.8,0.527
1.18,31792.5,34366.2,-1.0396,-1.5553,144.8,96.8,0.527
1.2,31729.1,34515.5,-1.3558,-1.1887,144.8,96.8,0.527
1.22,31851.1,34743.7,-0.7471,-0.6283,144.8,96.8,0.527
1.24,32096.4,35066.3,0.4763,0.1636,144.8,96.8,0.527
1.26,32277.3,35421.1,1.3785,1.0348,144.8,96.8,0.527
1.28,32274.1,35750.4,1.3622,1.8432,144.8,96.8,0.527
1.3,32331.9,35717.0,1.6505,1.7612,144.8,96.8,0.527
1.32,32326.4,35628.8,1.6233,1.5448,144.8,96.8,0.527
1.34,32322.3,35454.1,1.603,1.1158,144.8,96.8,0.527
1.36,32202.9,35238.2,1.0073,0.5856,144.8,96.8,0.527
1.38,32098.4,35173.3,0.4863,0.4263,144.8,96.8,0.527
1.4,32023.9,35190.0,0.1143,0.4674,144.8,96.8,0.527
1.42,31996.4,35003.9,-0.0225,0.0104,144.8,96.8,0.527
1.44,32001.0,34904.9,0.0002,-0.2325,144.8,96.8,0.527
1.46,32015.2,34884.8,0.0711,-0.2819,144.8,96.8,0.527
1.48,31843.4,34682.9,-0.7858,-0.7775,144.8,96.8,0.527
1.5,31804.9,34589.9,-0.9777,-1.006,144.8,96.8,0.527
1.52,31795.9,34682.7,-1.0226,-0.7781,144.8,96.8,0.527
1.54,31809.0,34634.8,-0.9574,-0.8957,144.8,96.8,0.527
1.56,31784.7,34519.4,-1.0787,-1.1792,144.8,96.8,0.527
1.58,31694.1,34451.7,-1.5302,-1.3454,144.8,96.8,0.527
1.6,31743.0,34451.2,-1.2864,-1.3466,144.8,96.8,0.527
1.62,31803.3,34489.4,-0.9857,-1.2526,144.8,96.8,0.527
1.64,31921.3,34749.9,-0.3973,-0.613,144.8,96.8,0.527
1.66,32153.8,35167.8,0.7624,0.4129,144.8,96.8,0.527
1.68,32282.6,35578.5,1.4046,1.4211,144.8,96.8,0.527
1.7,32425.1,35784.0,2.1157,1.9258,144.8,96.8,0.527
1.72,32303.1,35676.9,1.507,1.6628,144.8,96.8,0.527
1.74,32250.2,35570.9,1.2434,1.4027,144.8,96.8,0.527
1.76,32171.9,35299.8,0.8527,0.737,144.8,96.8,0.527
1.78,32140.6,35133.7,0.6967,0.3292,144.8,96.8,0.527
1.8,32047.4,35169.3,0.2317,0.4165,144.8,96.8,0.527
1.82,32014.1,35151.6,0.0656,0.3732,144.8,96.8,0.527
1.84,32004.5,34998.4,0.0178,-0.0029,144.8,96.8,0.527
1.86,31937.5,34843.5,-0.3166,-0.3832,144.8,96.8,0.527
1.88,31922.8,34768.2,-0.3896,-0.5681,144.8,96.8,0.527
1.9,31940.6,34653.5,-0.3012,-0.8497,144.8,96.8,0.527
1.92,31835.9,34547.3,-0.8232,-1.1106,144.8,96.8,0.527
1.94,31924.0,34743.3,-0.3839,-0.6293,144.8,96.8,0.527
1.96,31765.5,34664.2,-1.1742,-0.8236,144.8,96.8,0.527
1.98,31851.1,34557.7,-0.7474,-1.085,144.8,96.8,0.527
2.0,31727.3,34409.8,-1.3646,-1.448,144.8,96.8,0.527
2.02,31815.9,34397.8,-0.9231,-1.4777,144.8,96.8,0.527
2.04,31801.3,34691.5,-0.9957,-0.7564,144.8,96.8,0.527
2.06,31934.4,34908.1,-0.3318,-0.2248,144.8,96.8,0.527
2.08,32185.8,35344.9,0.9218,0.8477,144.8,96.8,0.527
2.1,32256.6,35644.4,1.2751,1.583,144.8,96.8,0.527
2.12,32342.6,35777.3,1.7039,1.9093,144.8,96.8,0.527
2.14,32361.9,35686.1,1.8002,1.6854,144.8,96.8,0.527
2.16,32224.6,35495.0,1.1155,1.2162,144.8,96.8,0.527
2.18,32132.6,35269.1,0.6568,0.6617,144.8,96.8,0.527
2.2,32020.5,35177.5,0.0976,0.4367,144.8,96.8,0.527
2.22,32107.7,35204.8,0.5326,0.5038,144.8,96.8,0.527
2.24,31999.2,35135.1,-0.0087,0.3325,144.8,96.8,0.527
2.26,32025.5,35039.7,0.1227,0.0985,144.8,96.8,0.527
2.28,31914.3,34949.0,-0.4323,-0.1242,144.8,96.8,0.527
2.3,31924.7,34838.6,-0.3803,-0.3954,144.8,96.8,0.527
2.32,31878.0,34682.3,-0.6131,-0.7791,144.8,96.8,0.527
2.34,31894.1,34688.2,-0.5326,-0.7645,144.8,96.8,0.527
2.36,31828.8,34665.8,-0.8585,-0.8196,144.8,96.8,0.527
2.38,31806.2,34595.8,-0.9712,-0.9915,144.8,96.8,0.527
2.4,31746.2,34495.6,-1.2704,-1.2374,144.8,96.8,0.527
2.42,31787.9,34484.7,-1.0628,-1.2642,144.8,96.8,0.527
2.44,31713.6,34424.5,-1.4329,-1.4121,144.8,96.8,0.527
2.46,31843.7,34676.9,-0.784,-0.7924,144.8,96.8,0.527
2.48,32020.6,35111.1,0.0982,0.2738,144.8,96.8,0.527
2.5,32237.8,35410.6,1.1814,1.0091,144.8,96.8,0.527
2.52,32371.9,35742.7,1.8501,1.8244,144.8,96.8,0.527
2.54,32345.6,35760.4,1.7192,1.8678,144.8,96.8,0.527
2.56,32391.7,35638.4,1.9487,1.5683,144.8,96.8,0.527
2.58,32254.0,35480.0,1.2622,1.1793,144.8,96.8,0.527
2.6,32121.9,35207.9,0.6031,0.5113,144.8,96.8,0.527
2.62,32090.0,35239.4,0.4441,0.5887,144.8,96.8,0.527
2.64,32030.9,35131.5,0.1496,0.3238,144.8,96.8,0.527
2.66,32003.9,35136.3,0.0148,0.3355,144.8,96.8,0.527
2.68,31915.4,35016.3,-0.4267,0.0409,144.8,96.8,0.527
2.7,31986.6,34864.5,-0.0714,-0.3317,144.8,96.8,0.527
2.72,31856.8,34775.0,-0.7189,-0.5516,144.8,96.8,0.527
2.74,31796.0,34651.1,-1.0219,-0.8558,144.8,96.8,0.527
2.76,31877.8,34690.1,-0.6143,-0.76,144.8,96.8,0.527
2.78,31840.6,34509.5,-0.7998,-1.2033,144.8,96.8,0.527
2.8,31813.2,34458.5,-0.9363,-1.3286,144.8,96.8,0.527
2.82,31679.6,34503.7,-1.6026,-1.2175,144.8,96.8,0.527
2.84,31779.5,34474.8,-1.1045,-1.2885,144.8,96.8,0.527
2.86,31793.7,34592.7,-1.0334,-0.9992,144.8,96.8,0.527
2.88,31904.5,34710.1,-0.4812,-0.7109,144.8,96.8,0.527
2.9,32034.3,35151.6,0.1663,0.3732,144.8,96.8,0.527
2.92,32173.1,35458.7,0.8586,1.1271,144.8,96.8,0.527
2.94,32378.8,35705.3,1.8846,1.7325,144.8,96.8,0.527
2.96,32369.8,35766.7,1.8397,1.8833,144.8,96.8,0.527
2.98,32237.2,35506.5,1.1785,1.2444,144.8,96.8,0.527
3.0,32190.7,35380.9,0.9463,0.9362,144.8,96.8,0.527
3.02,32085.6,35232.6,0.4224,0.5721,144.8,96.8,0.527
3.04,32072.1,35133.0,0.3547,0.3275,144.8,96.8,0.527
3.06,32113.3,35147.9,0.5606,0.3641,144.8,96.8,0.527
3.08,32065.6,35091.6,0.3225,0.2257,144.8,96.8,0.527
3.1,32027.2,35011.1,0.1312,0.0282,144.8,96.8,0.527
3.12,31876.6,34887.1,-0.6202,-0.2761,144.8,96.8,0.527
3.14,31859.9,34744.3,-0.7036,-0.6269,144.8,96.8,0.527
3.16,31850.9,34776.8,-0.7481,-0.5471,144.8,96.8,0.527
3.18,31820.3,34679.4,-0.9011,-0.7863,144.8,96.8,0.527
3.2,31799.5,34613.2,-1.0047,-0.9486,144.8,96.8,0.527
3.22,31780.3,34565.9,-1.1002,-1.065,144.8,96.8,0.527
3.24,31688.9,34418.2,-1.5565,-1.4276,144.8,96.8,0.527
3.26,31772.5,34494.3,-1.1395,-1.2407,144.8,96.8,0.527
3.28,31789.5,34529.5,-1.0548,-1.1542,144.8,96.8,0.527
3.3,31994.0,34873.4,-0.0348,-0.3098,144.8,96.8,0.527
3.32,32063.2,35272.7,0.3103,0.6704,144.8,96.8,0.527
3.34,32316.9,35526.5,1.5758,1.2935,144.8,96.8,0.527
3.36,32364.1,35815.3,1.8111,2.0026,144.8,96.8,0.527
3.38,32311.1,35716.7,1.5468,1.7607,144.8,96.8,0.527
3.4,32259.3,35541.1,1.2885,1.3294,144.8,96.8,0.527
3.42,32194.5,35367.1,0.9652,0.9023,144.8,96.8,0.527
3.44,32145.1,35176.9,0.7191,0.4353,144.8,96.8,0.527
3.46,32051.9,35020.8,0.2542,0.0519,144.8,96.8,0.527
3.48,32084.1,35067.1,0.4149,0.1657,144.8,96.8,0.527
3.5,31968.4,35010.1,-0.1625,0.0257,144.8,96.8,0.527
3.52,31889.5,34964.8,-0.5558,-0.0855,144.8,96.8,0.527
3.54,31803.9,34781.3,-0.9829,-0.5361,144.8,96.8,0.527
3.56,31951.7,34726.5,-0.2458,-0.6706,144.8,96.8,0.527
3.58,31888.6,34621.3,-0.5602,-0.9289,144.8,96.8,0.527
3.6,31757.8,34653.4,-1.2124,-0.8501,144.8,96.8,0.527
3.62,31857.0,34695.9,-0.718,-0.7457,144.8,96.8,0.527
3.64,31891.2,34499.5,-0.5472,-1.2278,144.8,96.8,0.527
3.66,31663.7,34429.3,-1.682,-1.4002,144.8,96.8,0.527
3.68,31717.0,34479.3,-1.4161,-1.2776,144.8,96.8,0.527
3.7,31789.8,34636.6,-1.0531,-0.8912,144.8,96.8,0.527
3.72,32038.9,34998.5,0.1893,-0.0028,144.8,96.8,0.527
3.74,32205.2,35367.2,1.0186,0.9025,144.8,96.8,0.527
3.76,32343.2,35626.4,1.707,1.539,144.8,96.8,0.527
3.78,32390.2,35743.6,1.9412,1.8265,144.8,96.8,0.527
3.8,32370.4,35730.9,1.8425,1.7955,144.8,96.8,0.527
3.82,32246.0,35376.1,1.2222,0.9243,144.8,96.8,0.527
3.84,32115.7,35340.7,0.5723,0.8374,144.8,96.8,0.527
3.86,32085.7,35247.4,0.4229,0.6083,144.8,96.8,0.527
3.88,32138.3,35172.3,0.685,0.4239,144.8,96.8,0.527
3.9,32110.0,35053.9,0.544,0.1334,144.8,96.8,0.527
3.92,32043.6,35038.8,0.2128,0.0963,144.8,96.8,0.527
3.94,32000.8,34863.3,-0.0008,-0.3346,144.8,96.8,0.527
3.96,31882.6,34689.7,-0.59,-0.761,144.8,96.8,0.527
3.98,31831.8,34676.6,-0.8436,-0.7932,144.8,96.8,0.527
4.0,31849.2,34651.5,-0.7566,-0.8547,144.8,96.8,0.527
4.02,31805.0,34745.9,-0.9773,-0.6231,144.8,96.8,0.527
4.04,31838.3,34599.7,-0.8109,-0.9818,144.8,96.8,0.527
4.06,31815.9,34503.5,-0.9229,-1.2181,144.8,96.8,0.527
4.08,31684.9,34488.2,-1.5761,-1.2556,144.8,96.8,0.527
4.1,31726.6,34556.0,-1.3683,-1.0892,144.8,96.8,0.527
4.12,31948.3,34807.4,-0.2623,-0.472,144.8,96.8,0.527
4.14,32047.8,35128.0,0.2337,0.3151,144.8,96.8,0.527
4.16,32264.9,35505.5,1.3164,1.2419,144.8,96.8,0.527
4.18,32377.0,35803.2,1.8757,1.9728,144.8,96.8,0.527
4.2,32335.1,35744.9,1.6666,1.8297,144.8,96.8,0.527
4.22,32246.0,35634.6,1.222,1.559,144.8,96.8,0.527
4.24,32230.9,35495.7,1.147,1.2179,144.8,96.8,0.527
4.26,32138.9,35287.0,0.688,0.7056,144.8,96.8,0.527
4.28,32080.1,35092.5,0.3946,0.228,144.8,96.8,0.527
4.3,32152.8,35065.8,0.7575,0.1626,144.8,96.8,0.527
4.32,31997.0,35029.5,-0.0199,0.0734,144.8,96.8,0.527
4.34,32045.0,35007.1,0.2197,0.0183,144.8,96.8,0.527
4.36,32006.4,34794.9,0.0274,-0.5026,144.8,96.8,0.527
4.38,31892.4,34656.2,-0.5414,-0.8432,144.8,96.8,0.527
4.4,31888.2,34697.1,-0.5624,-0.7427,144.8,96.8,0.527
4.42,31804.7,34596.3,-0.9785,-0.9903,144.8,96.8,0.527
4.44,31774.2,34620.3,-1.131,-0.9314,144.8,96.8,0.527
4.46,31846.4,34535.5,-0.7708,-1.1395,144.8,96.8,0.527
4.48,31732.2,34494.2,-1.3405,-1.241,144.8,96.8,0.527
4.5,31765.3,34421.4,-1.1754,-1.4197,144.8,96.8,0.527
4.52,31760.1,34436.0,-1.201,-1.3837,144.8,96.8,0.527
4.54,31960.7,34694.9,-0.2006,-0.7482,144.8,96.8,0.527
4.56,32122.0,35199.0,0.6036,0.4896,144.8,96.8,0.527
4.58,32295.7,35622.3,1.4702,1.5288,144.8,96.8,0.527
4.6,32370.8,35776.4,1.8448,1.9072,144.8,96.8,0.527
4.62,32352.0,35689.0,1.7508,1.6925,144.8,96.8,0.527
4.64,32255.7,35594.7,1.2708,1.4611,144.8,96.8,0.527
4.66,32157.5,35313.8,0.7811,0.7713,144.8,96.8,0.527
4.68,32107.6,35201.3,0.5321,0.4952,144.8,96.8,0.527
4.7,32030.1,35116.5,0.1457,0.287,144.8,96.8,0.527
4.72,32115.1,35022.8,0.5693,0.057,144.8,96.8,0.527
4.74,32062.7,35059.0,0.3081,0.1458,144.8,96.8,0.527
4.76,31904.8,34859.1,-0.4797,-0.3451,144.8,96.8,0.527
4.78,31998.1,34866.5,-0.0141,-0.3269,144.8,96.8,0.527
4.8,31920.4,34620.7,-0.4017,-0.9304,144.8,96.8,0.527
4.82,31933.9,34619.5,-0.3343,-0.9334,144.8,96.8,0.527
4.84,31704.0,34561.2,-1.4811,-1.0764,144.8,96.8,0.527
4.86,31805.9,34558.4,-0.9726,-1.0832,144.8,96.8,0.527
4.88,31814.9,34551.1,-0.9279,-1.1011,144.8,96.8,0.527
4.9,31752.1,34431.1,-1.2411,-1.3959,144.8,96.8,0.527
4.92,31763.5,34469.5,-1.1844,-1.3016,144.8,96.8,0.527
4.94,31854.3,34663.9,-0.7314,-0.8242,144.8,96.8,0.527
4.96,31921.9,34916.1,-0.3943,-0.205,144.8,96.8,0.527
4.98,32125.0,35304.3,0.619,0.7481,144.8,96.8,0.527
5.0,32326.3,35522.5,1.6225,1.2838,144.8,96.8,0.527
5.02,32413.6,35729.1,2.0581,1.791,144.8,96.8,0.527
5.04,32272.2,35868.6,1.353,2.1335,144.8,96.8,0.527
5.06,32334.7,35467.8,1.6645,1.1493,144.8,96.8,0.527
5.08,32174.4,35311.0,0.865,0.7646,144.8,96.8,0.527
5.1,32102.1,35182.1,0.5045,0.4481,144.8,96.8,0.527
5.12,32104.1,35079.6,0.5147,0.1965,144.8,96.8,0.527
5.14,32003.8,35088.7,0.0141,0.2187,144.8,96.8,0.527
5.16,31916.8,35036.0,-0.4196,0.0892,144.8,96.8,0.527
5.18,31840.0,34875.8,-0.8027,-0.3041,144.8,96.8,0.527
5.2,31883.8,34713.3,-0.584,-0.7031,144.8,96.8,0.527
5.22,31903.8,34657.2,-0.4842,-0.8406,144.8,96.8,0.527
5.24,31874.7,34683.6,-0.6298,-0.776,144.8,96.8,0.527
5.26,31794.1,34604.1,-1.0316,-0.9711,144.8,96.8,0.527
5.28,31808.7,34649.7,-0.9588,-0.8591,144.8,96.8,0.527
5.3,31749.1,34450.5,-1.2562,-1.3482,144.8,96.8,0.527
5.32,31769.3,34436.5,-1.1555,-1.3827,144.8,96.8,0.527
5.34,31757.5,34483.2,-1.2139,-1.268,144.8,96.8,0.527
5.36,31800.1,34746.7,-1.0017,-0.621,144.8,96.8,0.527
5.38,32001.8,34973.1,0.0041,-0.0651,144.8,96.8,0.527
5.4,32225.0,35431.2,1.1175,1.0597,144.8,96.8,0.527
5.42,32372.2,35600.1,1.8517,1.4744,144.8,96.8,0.527
5.44,32329.6,35825.0,1.6393,2.0264,144.8,96.8,0.527
5.46,32220.0,35656.5,1.0927,1.6127,144.8,96.8,0.527
5.48,32320.7,35554.3,1.5948,1.3619,144.8,96.8,0.527
5.5,32073.2,35277.3,0.3604,0.6818,144.8,96.8,0.527
5.52,32067.0,35106.6,0.3295,0.2626,144.8,96.8,0.527
5.54,32072.3,35064.8,0.3561,0.1601,144.8,96.8,0.527
5.56,32017.5,35039.5,0.0826,0.0978,144.8,96.8,0.527
5.58,31965.1,34926.4,-0.1787,-0.1798,144.8,96.8,0.527
5.6,31918.2,34894.3,-0.4126,-0.2585,144.8,96.8,0.527
5.62,31944.1,34787.4,-0.2837,-0.521,144.8,96.8,0.527
5.64,31909.1,34648.7,-0.458,-0.8617,144.8,96.8,0.527
5.66,31799.9,34582.4,-1.0028,-1.0243,144.8,96.8,0.527
5.68,31791.6,34623.4,-1.0438,-0.9237,144.8,96.8,0.527
5.7,31845.4,34611.5,-0.7756,-0.953,144.8,96.8,0.527
5.72,31772.1,34547.9,-1.1415,-1.109,144.8,96.8,0.527
5.74,31692.2,34489.1,-1.5396,-1.2534,144.8,96.8,0.527
5.76,31733.3,34499.3,-1.335,-1.2285,144.8,96.8,0.527
5.78,31940.2,34779.6,-0.3027,-0.5402,144.8,96.8,0.527
5.8,32030.7,35054.9,0.1482,0.1358,144.8,96.8,0.527
5.82,32266.5,35509.2,1.3244,1.2511,144.8,96.8,0.527
5.84,32360.9,35748.9,1.7953,1.8395,144.8,96.8,0.527
5.86,32381.4,35745.9,1.8978,1.8322,144.8,96.8,0.527
5.88,32297.5,35568.3,1.4791,1.3963,144.8,96.8,0.527
5.9,32225.1,35416.8,1.1178,1.0243,144.8,96.8,0.527
5.92,32096.8,35263.4,0.4782,0.6476,144.8,96.8,0.527
5.94,32082.8,35061.9,0.4083,0.1528,144.8,96.8,0.527
5.96,31975.0,35110.2,-0.1293,0.2715,144.8,96.8,0.527
5.98,32116.5,35131.5,0.5764,0.3238,144.8,96.8,0.527
6.0,31895.4,34802.0,-0.5266,-0.4853,144.8,96.8,0.527
6.02,31899.1,34805.9,-0.5078,-0.4757,144.8,96.8,0.527
6.04,31944.9,34789.4,-0.2795,-0.5162,144.8,96.8,0.527
6.06,31884.0,34642.7,-0.5831,-0.8763,144.8,96.8,0.527
6.08,31926.7,34588.8,-0.3703,-1.0086,144.8,96.8,0.527
6.1,31679.7,34603.6,-1.602,-0.9723,144.8,96.8,0.527
6.12,31755.3,34484.9,-1.225,-1.2638,144.8,96.8,0.527
6.14,31699.8,34462.6,-1.5017,-1.3184,144.8,96.8,0.527
6.16,31843.3,34411.1,-0.7864,-1.4448,144.8,96.8,0.527
6.18,31830.3,34547.6,-0.8508,-1.1099,144.8,96.8,0.527
6.2,31900.8,34787.1,-0.4995,-0.5217,144.8,96.8,0.527
6.22,32098.9,35254.3,0.4887,0.6252,144.8,96.8,0.527
6.24,32145.1,35667.3,0.7191,1.6394,144.8,96.8,0.527
6.26,32408.9,35701.1,2.0345,1.7222,144.8,96.8,0.527
6.28,32306.3,35723.8,1.523,1.7781,144.8,96.8,0.527
6.3,32268.7,35625.0,1.3356,1.5353,144.8,96.8,0.527
6.32,32141.7,35416.5,0.7021,1.0235,144.8,96.8,0.527
6.34,32005.5,35282.9,0.023,0.6955,144.8,96.8,0.527
6.36,32032.7,35144.2,0.1585,0.355,144.8,96.8,0.527
6.38,31983.3,35057.2,-0.0882,0.1413,144.8,96.8,0.527
6.4,32061.1,34981.8,0.3001,-0.0437,144.8,96.8,0.527
6.42,31934.7,34999.2,-0.3303,-0.0011,144.8,96.8,0.527
6.44,31873.2,34826.4,-0.6372,-0.4252,144.8,96.8,0.527
6.46,31864.2,34667.0,-0.6821,-0.8165,144.8,96.8,0.527
6.48,31872.7,34645.6,-0.6396,-0.8692,144.8,96.8,0.527
6.5,31831.7,34700.6,-0.8442,-0.7342,144.8,96.8,0.527
6.52,31845.7,34741.5,-0.7741,-0.6338,144.8,96.8,0.527
6.54,31762.9,34561.5,-1.1872,-1.0756,144.8,96.8,0.527
6.56,31693.6,34456.2,-1.5329,-1.3343,144.8,96.8,0.527
6.58,31782.4,34479.6,-1.0901,-1.2767,144.8,96.8,0.527
6.6,31848.0,34607.8,-0.7625,-0.9621,144.8,96.8,0.527
6.62,31974.2,34911.6,-0.1333,-0.2161,144.8,96.8,0.527
6.64,32170.4,35341.7,0.8451,0.8399,144.8,96.8,0.527
6.66,32301.7,35564.8,1.5002,1.3877,144.8,96.8,0.527
6.68,32328.2,35792.2,1.632,1.946,144.8,96.8,0.527
6.7,32429.5,35754.4,2.1374,1.853,144.8,96.8,0.527
6.72,32276.9,35531.6,1.3765,1.3062,144.8,96.8,0.527
6.74,32090.1,35298.8,0.4448,0.7346,144.8,96.8,0.527
6.76,32122.1,35156.4,0.6045,0.3849,144.8,96.8,0.527
6.78,32085.3,35102.8,0.421,0.2534,144.8,96.8,0.527
6.8,32026.7,34935.0,0.1286,-0.1588,144.8,96.8,0.527
6.82,31982.6,34985.2,-0.0913,-0.0353,144.8,96.8,0.527
6.84,31987.5,34962.7,-0.0673,-0.0906,144.8,96.8,0.527
6.86,31868.3,34743.7,-0.6617,-0.6283,144.8,96.8,0.527
6.88,31838.5,34686.2,-0.8099,-0.7695,144.8,96.8,0.527
6.9,31764.8,34715.5,-1.1779,-0.6975,144.8,96.8,0.527
6.92,31880.0,34577.6,-0.6031,-1.0362,144.8,96.8,0.527
6.94,31816.5,34625.9,-0.9196,-0.9175,144.8,96.8,0.527
6.96,31748.6,34455.3,-1.2583,-1.3364,144.8,96.8,0.527
6.98,31739.8,34362.5,-1.3025,-1.5642,144.8,96.8,0.527
7.0,31801.2,34597.5,-0.9959,-0.9872,144.8,96.8,0.527
7.02,31874.3,34735.6,-0.6314,-0.6483,144.8,96.8,0.527
7.04,32080.0,35089.5,0.3943,0.2207,144.8,96.8,0.527
7.06,32135.9,35359.0,0.673,0.8822,144.8,96.8,0.527
7.08,32358.9,35689.3,1.7852,1.6933,144.8,96.8,0.527
7.1,32426.2,35737.6,2.1211,1.8119,144.8,96.8,0.527
7.12,32295.7,35579.4,1.4702,1.4234,144.8,96.8,0.527
7.14,32208.8,35402.4,1.0367,0.9888,144.8,96.8,0.527
7.16,32125.4,35227.2,0.6207,0.5586,144.8,96.8,0.527
7.18,32046.0,35148.9,0.2245,0.3665,144.8,96.8,0.527
7.2,32067.3,35153.7,0.3312,0.3782,144.8,96.8,0.527
7.22,31977.4,35100.6,-0.1174,0.248,144.8,96.8,0.527
7.24,31925.4,34920.6,-0.377,-0.1941,144.8,96.8,0.527
7.26,31939.4,34870.9,-0.3067,-0.3161,144.8,96.8,0.527
7.28,32030.4,34731.5,0.1467,-0.6584,144.8,96.8,0.527
7.3,31946.0,34675.0,-0.2739,-0.7969,144.8,96.8,0.527
7.32,31751.6,34649.2,-1.2433,-0.8604,144.8,96.8,0.527
7.34,31938.4,34666.3,-0.312,-0.8183,144.8,96.8,0.527
7.36,31796.3,34624.2,-1.0205,-0.9216,144.8,96.8,0.527
7.38,31806.3,34459.6,-0.9709,-1.3259,144.8,96.8,0.527
7.4,31638.0,34439.1,-1.8103,-1.3761,144.8,96.8,0.527
7.42,31792.2,34568.0,-1.041,-1.0598,144.8,96.8,0.527
7.44,31933.8,34745.0,-0.3351,-0.6251,144.8,96.8,0.527
7.46,32152.2,35170.8,0.7544,0.4203,144.8,96.8,0.527
7.48,32271.0,35520.8,1.3469,1.2796,144.8,96.8,0.527
7.5,32323.0,35705.5,1.6062,1.733,144.8,96.8,0.527
7.52,32348.3,35804.4,1.7323,1.9758,144.8,96.8,0.527
7.54,32232.4,35555.4,1.1546,1.3646,144.8,96.8,0.527
7.56,32275.6,35375.1,1.37,0.9219,144.8,96.8,0.527
7.58,32068.0,35207.5,0.3346,0.5105,144.8,96.8,0.527
7.6,32092.4,35036.1,0.4561,0.0896,144.8,96.8,0.527
7.62,32060.7,35083.5,0.2983,0.2059,144.8,96.8,0.527
7.64,31935.8,34922.1,-0.3248,-0.1904,144.8,96.8,0.527
7.66,31980.2,34855.1,-0.1033,-0.3549,144.8,96.8,0.527
7.68,31936.9,34868.9,-0.3191,-0.3209,144.8,96.8,0.527
7.7,31864.5,34733.0,-0.6805,-0.6546,144.8,96.8,0.527
7.72,31859.3,34703.0,-0.7063,-0.7282,144.8,96.8,0.527
7.74,31841.4,34720.0,-0.7959,-0.6866,144.8,96.8,0.527
7.76,31806.8,34616.8,-0.9681,-0.94,144.8,96.8,0.527
7.78,31770.4,34497.9,-1.1498,-1.2318,144.8,96.8,0.527
7.8,31732.2,34470.1,-1.3404,-1.3002,144.8,96.8,0.527
7.82,31642.4,34272.3,-1.7884,-1.7858,144.8,96.8,0.527
7.84,31810.1,34528.1,-0.952,-1.1576,144.8,96.8,0.527
7.86,32003.8,34920.4,0.0142,-0.1945,144.8,96.8,0.527
7.88,32099.3,35291.6,0.4907,0.7168,144.8,96.8,0.527
7.9,32347.6,35590.0,1.7291,1.4495,144.8,96.8,0.527
7.92,32378.5,35736.5,1.8832,1.8091,144.8,96.8,0.527
7.94,32293.5,35745.5,1.4591,1.8313,144.8,96.8,0.527
7.96,32176.6,35540.6,0.8761,1.3281,144.8,96.8,0.527
7.98,32264.3,35369.3,1.3135,0.9077,144.8,96.8,0.527
8.0,32031.9,35275.0,0.1545,0.6762,144.8,96.8,0.527
8.02,32120.9,35096.7,0.5985,0.2385,144.8,96.8,0.527
8.04,32075.8,35038.1,0.3734,0.0943,144.8,96.8,0.527
8.06,32038.4,35036.4,0.1867,0.0902,144.8,96.8,0.527
8.08,31956.8,34875.9,-0.2203,-0.3038,144.8,96.8,0.527
8.1,31817.4,34812.7,-0.9154,-0.459,144.8,96.8,0.527
8.12,31916.3,34584.8,-0.4219,-1.0185,144.8,96.8,0.527
8.14,31896.4,34520.7,-0.5213,-1.1759,144.8,96.8,0.527
8.16,31943.6,34617.4,-0.2861,-0.9384,144.8,96.8,0.527
8.18,31807.4,34666.8,-0.9652,-0.8171,144.8,96.8,0.527
8.2,31787.7,34514.7,-1.0634,-1.1907,144.8,96.8,0.527
8.22,31692.2,34437.7,-1.5397,-1.3797,144.8,96.8,0.527
8.24,31783.4,34493.4,-1.0848,-1.2428,144.8,96.8,0.527
8.26,31773.5,34643.0,-1.1341,-0.8756,144.8,96.8,0.527
8.28,31974.6,35029.7,-0.1314,0.0737,144.8,96.8,0.527
8.3,32235.4,35403.1,1.1695,0.9907,144.8,96.8,0.527
8.32,32351.1,35648.4,1.7466,1.5928,144.8,96.8,0.527
8.34,32390.3,35808.4,1.9418,1.9858,144.8,96.8,0.527
8.36,32372.3,35732.3,1.852,1.7988,144.8,96.8,0.527
8.38,32305.5,35507.5,1.519,1.247,144.8,96.8,0.527
8.4,32181.5,35327.3,0.9006,0.8045,144.8,96.8,0.527
8.42,32089.0,35110.1,0.4391,0.2712,144.8,96.8,0.527
8.44,31990.3,35130.1,-0.0529,0.3203,144.8,96.8,0.527
8.46,32054.2,35063.3,0.2655,0.1563,144.8,96.8,0.527
8.48,31975.0,34994.4,-0.1294,-0.0129,144.8,96.8,0.527
8.5,31903.6,34822.6,-0.4857,-0.4346,144.8,96.8,0.527
8.52,31891.3,34797.5,-0.5467,-0.4963,144.8,96.8,0.527
8.54,31937.0,34712.8,-0.319,-0.7041,144.8,96.8,0.527
8.56,31830.1,34676.0,-0.8522,-0.7945,144.8,96.8,0.527
8.58,31796.3,34724.6,-1.0207,-0.6754,144.8,96.8,0.527
8.6,31752.6,34635.1,-1.2388,-0.895,144.8,96.8,0.527
8.62,31786.8,34595.7,-1.0681,-0.9917,144.8,96.8,0.527
8.64,31677.7,34352.9,-1.6122,-1.5879,144.8,96.8,0.527
8.66,31887.8,34637.5,-0.5645,-0.889,144.8,96.8,0.527
8.68,31929.8,34683.3,-0.3547,-0.7765,144.8,96.8,0.527
8.7,32012.7,35070.5,0.0585,0.174,144.8,96.8,0.527
8.72,32295.4,35406.6,1.4684,0.9992,144.8,96.8,0.527
8.74,32315.0,35771.0,1.5662,1.8939,144.8,96.8,0.527
8.76,32421.5,35719.6,2.0975,1.7677,144.8,96.8,0.527
8.78,32373.6,35671.2,1.8586,1.6489,144.8,96.8,0.527
8.8,32226.2,35383.5,1.1237,0.9425,144.8,96.8,0.527
8.82,32043.0,35325.6,0.21,0.8004,144.8,96.8,0.527
8.84,32090.2,35077.4,0.4451,0.191,144.8,96.8,0.527
8.86,32048.7,35128.2,0.238,0.3158,144.8,96.8,0.527
8.88,31995.2,35057.9,-0.0285,0.1431,144.8,96.8,0.527
8.9,31997.6,34936.1,-0.0165,-0.1559,144.8,96.8,0.527
8.92,31828.2,34913.8,-0.8615,-0.2107,144.8,96.8,0.527
8.94,31917.3,34783.2,-0.4174,-0.5313,144.8,96.8,0.527
8.96,31934.9,34749.1,-0.3296,-0.615,144.8,96.8,0.527
8.98,31859.6,34669.2,-0.7047,-0.8112,144.8,96.8,0.527
9.0,31799.3,34583.0,-1.0057,-1.0229,144.8,96.8,0.527
9.02,31820.1,34557.1,-0.902,-1.0866,144.8,96.8,0.527
9.04,31745.2,34539.1,-1.2754,-1.1308,144.8,96.8,0.527
9.06,31753.7,34380.3,-1.233,-1.5206,144.8,96.8,0.527
9.08,31733.1,34488.1,-1.3358,-1.256,144.8,96.8,0.527
9.1,32000.5,34881.7,-0.0022,-0.2896,144.8,96.8,0.527
9.12,32174.2,35222.1,0.8641,0.5462,144.8,96.8,0.527
9.14,32224.8,35458.8,1.1166,1.1275,144.8,96.8,0.527
9.16,32430.8,35840.7,2.1441,2.0649,144.8,96.8,0.527
9.18,32312.8,35800.5,1.5556,1.9663,144.8,96.8,0.527
9.2,32304.5,35468.4,1.5139,1.1509,144.8,96.8,0.527
9.22,32160.4,35391.4,0.7953,0.962,144.8,96.8,0.527
9.24,32123.8,35277.4,0.6126,0.682,144.8,96.8,0.527
9.26,31955.9,35114.5,-0.2244,0.2822,144.8,96.8,0.527
9.28,32026.3,35133.8,0.1265,0.3294,144.8,96.8,0.527
9.3,32008.5,35061.9,0.0379,0.1529,144.8,96.8,0.527
9.32,32005.4,34823.2,0.022,-0.4332,144.8,96.8,0.527
9.34,31982.7,34735.7,-0.0911,-0.648,144.8,96.8,0.527
9.36,31879.6,34717.3,-0.6053,-0.6933,144.8,96.8,0.527
9.38,31837.5,34686.7,-0.8153,-0.7684,144.8,96.8,0.527
9.4,31893.4,34673.9,-0.5364,-0.7998,144.8,96.8,0.527
9.42,31794.2,34586.0,-1.0311,-1.0156,144.8,96.8,0.527
9.44,31740.9,34549.0,-1.2969,-1.1065,144.8,96.8,0.527
9.46,31750.6,34480.7,-1.2487,-1.274,144.8,96.8,0.527
9.48,31761.6,34436.5,-1.1938,-1.3826,144.8,96.8,0.527
9.5,31826.8,34674.6,-0.8685,-0.798,144.8,96.8,0.527
9.52,32003.7,34977.1,0.0136,-0.0554,144.8,96.8,0.527
9.54,32183.4,35305.0,0.91,0.7497,144.8,96.8,0.527
9.56,32229.4,35508.5,1.1393,1.2494,144.8,96.8,0.527
9.58,32360.1,35789.7,1.7915,1.9399,144.8,96.8,0.527
9.6,32372.8,35743.9,1.8546,1.8274,144.8,96.8,0.527
9.62,32305.1,35436.9,1.5172,1.0736,144.8,96.8,0.527
9.64,32103.9,35347.5,0.5134,0.854,144.8,96.8,0.527
9.66,32096.7,35136.0,0.4776,0.3348,144.8,96.8,0.527
9.68,32052.6,35114.0,0.2579,0.2809,144.8,96.8,0.527
9.7,32101.0,35111.8,0.4992,0.2754,144.8,96.8,0.527
9.72,32025.5,34941.2,0.1225,-0.1434,144.8,96.8,0.527
9.74,31903.1,34898.8,-0.4882,-0.2475,144.8,96.8,0.527
9.76,31856.0,34812.4,-0.7231,-0.4597,144.8,96.8,0.527
9.78,31782.1,34670.0,-1.0915,-0.8093,144.8,96.8,0.527
9.8,31820.6,34640.3,-0.8992,-0.8822,144.8,96.8,0.527
9.82,31814.8,34680.4,-0.9285,-0.7837,144.8,96.8,0.527
9.84,31784.9,34609.0,-1.0773,-0.959,144.8,96.8,0.527
9.86,31725.2,34489.8,-1.3751,-1.2518,144.8,96.8,0.527
9.88,31751.1,34469.5,-1.2462,-1.3016,144.8,96.8,0.527
9.9,31755.9,34432.3,-1.2222,-1.3928,144.8,96.8,0.527
9.92,31879.3,34705.9,-0.6066,-0.7212,144.8,96.8,0.527
9.94,31949.3,35081.1,-0.2577,0.2001,144.8,96.8,0.527
9.96,32226.3,35411.2,1.1241,1.0104,144.8,96.8,0.527
9.98,32368.2,35668.1,1.8317,1.6412,144.8,96.8,0.527
10.0,32445.4,35746.0,2.2168,1.8326,144.8,96.8,0.527
10.02,32314.8,35626.7,1.5652,1.5396,144.8,96.8,0.527
10.04,32190.3,35510.8,0.9443,1.255,144.8,96.8,0.527
10.06,32015.4,35239.6,0.0721,0.5893,144.8,96.8,0.527
10.08,32077.2,35156.5,0.3805,0.3852,144.8,96.8,0.527
10.1,32087.4,35121.5,0.4312,0.2992,144.8,96.8,0.527
10.12,32002.9,35033.4,0.0098,0.083,144.8,96.8,0.527
10.14,31885.4,34893.0,-0.576,-0.2617,144.8,96.8,0.527
10.16,31824.3,34878.3,-0.8809,-0.2978,144.8,96.8,0.527
10.18,31891.0,34747.5,-0.5485,-0.619,144.8,96.8,0.527
10.2,31908.9,34675.4,-0.4592,-0.7961,144.8,96.8,0.527
10.22,31769.3,34637.0,-1.1551,-0.8904,144.8,96.8,0.527
10.24,31846.1,34619.6,-0.7724,-0.933,144.8,96.8,0.527
10.26,31833.7,34598.6,-0.8339,-0.9846,144.8,96.8,0.527
10.28,31707.8,34514.5,-1.4618,-1.1912,144.8,96.8,0.527
10.3,31772.0,34332.8,-1.1419,-1.6371,144.8,96.8,0.527
10.32,31788.0,34471.7,-1.0618,-1.2962,144.8,96.8,0.527
10.34,31853.2,34775.5,-0.7369,-0.5502,144.8,96.8,0.527
10.36,32046.5,35124.3,0.2271,0.3061,144.8,96.8,0.527
10.38,32278.5,35506.6,1.3841,1.2447,144.8,96.8,0.527
10.4,32347.2,35744.1,1.727,1.8278,144.8,96.8,0.527
10.42,32427.9,35645.8,2.1297,1.5864,144.8,96.8,0.527
10.44,32322.8,35552.4,1.6055,1.3573,144.8,96.8,0.527
10.46,32239.0,35396.3,1.1871,0.9739,144.8,96.8,0.527
10.48,32135.3,35197.6,0.6702,0.4862,144.8,96.8,0.527
10.5,32091.0,35056.1,0.4494,0.1386,144.8,96.8,0.527
10.52,32117.0,35136.8,0.579,0.3368,144.8,96.8,0.527
10.54,31984.7,35045.3,-0.0808,0.1122,144.8,96.8,0.527
10.56,31960.4,34922.3,-0.2024,-0.1898,144.8,96.8,0.527
10.58,31866.0,34800.5,-0.6731,-0.4889,144.8,96.8,0.527
10.6,31820.3,34830.0,-0.9009,-0.4163,144.8,96.8,0.527
10.62,31865.7,34686.8,-0.6746,-0.768,144.8,96.8,0.527
10.64,31891.8,34653.4,-0.5444,-0.8499,144.8,96.8,0.527
10.66,31778.0,34647.5,-1.112,-0.8645,144.8,96.8,0.527
10.68,31790.1,34434.1,-1.0518,-1.3884,144.8,96.8,0.527
10.7,31793.4,34415.1,-1.0352,-1.4351,144.8,96.8,0.527
10.72,31673.3,34483.3,-1.6342,-1.2678,144.8,96.8,0.527
10.74,31828.4,34624.6,-0.8603,-0.9207,144.8,96.8,0.527
10.76,32002.5,34790.2,0.0077,-0.5141,144.8,96.8,0.527
10.78,32182.9,35279.6,0.9073,0.6875,144.8,96.8,0.527
10.8,32246.2,35596.2,1.2235,1.4646,144.8,96.8,0.527
10.82,32326.5,35852.0,1.6235,2.0928,144.8,96.8,0.527
10.84,32411.5,35702.7,2.0479,1.7263,144.8,96.8,0.527
10.86,32364.7,35542.7,1.8144,1.3334,144.8,96.8,0.527
10.88,32191.6,35359.0,0.9511,0.8824,144.8,96.8,0.527
10.9,32084.0,35242.3,0.4142,0.5959,144.8,96.8,0.527
10.92,32102.4,35075.7,0.5062,0.1868,144.8,96.8,0.527
10.94,31990.0,35043.4,-0.0547,0.1075,144.8,96.8,0.527
10.96,32011.6,35009.7,0.0534,0.0248,144.8,96.8,0.527
10.98,31999.2,34928.7,-0.0087,-0.1741,144.8,96.8,0.527
11.0,31815.7,34832.6,-0.924,-0.41,144.8,96.8,0.527
11.02,31789.5,34604.8,-1.0546,-0.9692,144.8,96.8,0.527
11.04,31881.3,34717.2,-0.5966,-0.6933,144.8,96.8,0.527
11.06,31944.3,34657.2,-0.2824,-0.8408,144.8,96.8,0.527
11.08,31850.3,34645.4,-0.7514,-0.8696,144.8,96.8,0.527
11.1,31833.2,34506.5,-0.8366,-1.2106,144.8,96.8,0.527
11.12,31747.9,34400.5,-1.2618,-1.4709,144.8,96.8,0.527
11.14,31719.1,34563.1,-1.4057,-1.0717,144.8,96.8,0.527
11.16,31837.6,34555.5,-0.8145,-1.0904,144.8,96.8,0.527
11.18,32036.3,34982.8,0.1764,-0.0414,144.8,96.8,0.527
11.2,32092.5,35303.8,0.4567,0.7468,144.8,96.8,0.527
11.22,32364.6,35719.5,1.814,1.7674,144.8,96.8,0.527
11.24,32384.1,35768.5,1.911,1.8877,144.8,96.8,0.527
11.26,32289.3,35674.7,1.4381,1.6575,144.8,96.8,0.527
11.28,32193.5,35481.2,0.9606,1.1824,144.8,96.8,0.527
11.3,32126.7,35211.3,0.6274,0.5198,144.8,96.8,0.527
11.32,32039.9,35163.2,0.1942,0.4015,144.8,96.8,0.527
11.34,32001.0,35115.0,0.0004,0.2833,144.8,96.8,0.527
11.36,31987.1,35097.8,-0.0688,0.241,144.8,96.8,0.527
11.38,31986.5,34900.2,-0.0718,-0.2441,144.8,96.8,0.527
11.4,31969.3,34915.7,-0.1579,-0.206,144.8,96.8,0.527
11.42,31797.8,34712.5,-1.0131,-0.7049,144.8,96.8,0.527
11.44,31907.4,34706.6,-0.4664,-0.7195,144.8,96.8,0.527
11.46,31801.6,34709.1,-0.9941,-0.7134,144.8,96.8,0.527
11.48,31754.1,34616.2,-1.2312,-0.9415,144.8,96.8,0.527
11.5,31773.7,34551.7,-1.1331,-1.0998,144.8,96.8,0.527
11.52,31785.8,34474.3,-1.0731,-1.2898,144.8,96.8,0.527
11.54,31651.7,34389.1,-1.742,-1.499,144.8,96.8,0.527
11.56,31752.6,34566.9,-1.2386,-1.0623,144.8,96.8,0.527
11.58,31808.5,34688.0,-0.9596,-0.7651,144.8,96.8,0.527
11.6,32106.7,35127.8,0.5277,0.3147,144.8,96.8,0.527
11.62,32228.4,35468.4,1.1345,1.1509,144.8,96.8,0.527
11.64,32350.1,35703.4,1.7413,1.728,144.8,96.8,0.527
11.66,32336.8,35716.7,1.675,1.7606,144.8,96.8,0.527
11.68,32317.2,35627.3,1.5772,1.541,144.8,96.8,0.527
11.7,32195.3,35422.7,0.9695,1.0387,144.8,96.8,0.527
11.72,32235.3,35367.6,1.1688,0.9035,144.8,96.8,0.527
11.74,32060.3,35132.6,0.2962,0.3264,144.8,96.8,0.527
11.76,32090.7,35160.0,0.4476,0.3938,144.8,96.8,0.527
11.78,32066.9,34973.8,0.3289,-0.0634,144.8,96.8,0.527
11.8,31920.6,34924.4,-0.4009,-0.1846,144.8,96.8,0.527
11.82,31965.1,34875.6,-0.1788,-0.3044,144.8,96.8,0.527
11.84,31879.7,34783.7,-0.6047,-0.5302,144.8,96.8,0.527
11.86,31758.3,34703.3,-1.2101,-0.7274,144.8,96.8,0.527
11.88,31789.8,34691.1,-1.0528,-0.7575,144.8,96.8,0.527
11.9,31749.7,34695.4,-1.2529,-0.7469,144.8,96.8,0.527
11.92,31876.7,34544.1,-0.6194,-1.1183,144.8,96.8,0.527
11.94,31719.8,34516.4,-1.402,-1.1864,144.8,96.8,0.527
11.96,31745.8,34468.9,-1.2724,-1.303,144.8,96.8,0.527
11.98,31798.6,34540.3,-1.009,-1.1278,144.8,96.8,0.527
12.0,31916.6,34790.2,-0.4205,-0.5142,144.8,96.8,0.527
12.02,32131.2,35243.3,0.6495,0.5982,144.8,96.8,0.527
12.04,32185.4,35460.4,0.9201,1.1313,144.8,96.8,0.527
12.06,32319.1,35705.6,1.5866,1.7334,144.8,96.8,0.527
12.08,32366.8,35714.6,1.8245,1.7554,144.8,96.8,0.527
12.1,32234.7,35599.6,1.1658,1.4732,144.8,96.8,0.527
12.12,32202.3,35406.5,1.0041,0.999,144.8,96.8,0.527
12.14,32180.1,35193.5,0.8938,0.4761,144.8,96.8,0.527
12.16,32059.9,35203.6,0.2943,0.5007,144.8,96.8,0.527
12.18,31963.0,35049.3,-0.1894,0.1221,144.8,96.8,0.527
12.2,31977.2,34910.1,-0.1183,-0.2199,144.8,96.8,0.527
12.22,32058.3,34857.1,0.2863,-0.3498,144.8,96.8,0.527
12.24,31942.8,34712.3,-0.2899,-0.7054,144.8,96.8,0.527
12.26,31890.8,34668.3,-0.5494,-0.8136,144.8,96.8,0.527
12.28,31803.8,34687.4,-0.983,-0.7666,144.8,96.8,0.527
12.3,31903.1,34601.3,-0.4882,-0.9779,144.8,96.8,0.527
12.32,31906.3,34613.3,-0.4721,-0.9484,144.8,96.8,0.527
12.34,31834.8,34527.0,-0.8284,-1.1603,144.8,96.8,0.527
12.36,31652.1,34512.5,-1.74,-1.196,144.8,96.8,0.527
12.38,31827.9,34460.1,-0.8629,-1.3247,144.8,96.8,0.527
12.4,31630.0,34511.3,-1.8502,-1.1988,144.8,96.8,0.527
12.42,31899.6,34901.6,-0.5052,-0.2406,144.8,96.8,0.527
12.44,32116.2,35288.8,0.575,0.7099,144.8,96.8,0.527
12.46,32262.5,35577.0,1.3043,1.4175,144.8,96.8,0.527
12.48,32428.8,35760.0,2.1338,1.8669,144.8,96.8,0.527
12.5,32330.3,35700.2,1.6425,1.72,144.8,96.8,0.527
12.52,32330.9,35464.5,1.6456,1.1413,144.8,96.8,0.527
12.54,32180.8,35364.0,0.897,0.8946,144.8,96.8,0.527
12.56,32084.3,35161.1,0.4157,0.3965,144.8,96.8,0.527
12.58,32048.9,35121.5,0.2392,0.2993,144.8,96.8,0.527
12.6,32122.6,35073.9,0.6068,0.1824,144.8,96.8,0.527
12.62,32017.5,35009.0,0.0826,0.023,144.8,96.8,0.527
12.64,31935.9,35005.9,-0.3243,0.0154,144.8,96.8,0.527
12.66,31743.9,34709.6,-1.282,-0.712,144.8,96.8,0.527
12.68,31796.9,34725.7,-1.0177,-0.6725,144.8,96.8,0.527
12.7,31795.5,34721.5,-1.0247,-0.6829,144.8,96.8,0.527
12.72,31866.5,34632.7,-0.6704,-0.9008,144.8,96.8,0.527
12.74,31801.0,34582.3,-0.9973,-1.0247,144.8,96.8,0.527
12.76,31801.3,34610.2,-0.9956,-0.9561,144.8,96.8,0.527
12.78,31734.0,34487.2,-1.3313,-1.2581,144.8,96.8,0.527
12.8,31796.5,34546.7,-1.0198,-1.1119,144.8,96.8,0.527
12.82,31845.3,34690.5,-0.7762,-0.7588,144.8,96.8,0.527
12.84,32047.3,35002.5,0.231,0.0071,144.8,96.8,0.527
12.86,32146.7,35346.3,0.7267,0.851,144.8,96.8,0.527
12.88,32291.3,35579.2,1.4482,1.4229,144.8,96.8,0.527
12.9,32359.8,35777.0,1.7899,1.9087,144.8,96.8,0.527
12.92,32330.4,35630.3,1.643,1.5484,144.8,96.8,0.527
12.94,32192.8,35531.8,0.9567,1.3065,144.8,96.8,0.527
12.96,32133.8,35191.8,0.6628,0.4719,144.8,96.8,0.527
12.98,32125.8,35131.5,0.6229,0.3238,144.8,96.8,0.527
13.0,32055.0,35002.5,0.2699,0.0069,144.8,96.8,0.527
13.02,32008.7,35011.2,0.0388,0.0283,144.8,96.8,0.527
13.04,31960.0,34983.0,-0.2043,-0.0408,144.8,96.8,0.527
13.06,31999.3,34877.8,-0.0079,-0.299,144.8,96.8,0.527
13.08,31888.7,34882.8,-0.5597,-0.2868,144.8,96.8,0.527
13.1,31864.7,34735.4,-0.6792,-0.6487,144.8,96.8,0.527
13.12,31831.1,34635.4,-0.8472,-0.8943,144.8,96.8,0.527
13.14,31837.2,34644.5,-0.8166,-0.8719,144.8,96.8,0.527
13.16,31769.0,34564.2,-1.1567,-1.069,144.8,96.8,0.527
13.18,31753.1,34470.5,-1.2363,-1.2991,144.8,96.8,0.527
13.2,31836.9,34402.6,-0.8182,-1.4657,144.8,96.8,0.527
13.22,31766.1,34492.9,-1.1713,-1.244,144.8,96.8,0.527
13.24,31869.0,34710.9,-0.6582,-0.7088,144.8,96.8,0.527
13.26,32172.7,35123.2,0.8567,0.3035,144.8,96.8,0.527
13.28,32193.0,35547.4,0.9581,1.345,144.8,96.8,0.527
13.3,32413.8,35761.6,2.059,1.8709,144.8,96.8,0.527
13.32,32346.9,35761.5,1.7255,1.8705,144.8,96.8,0.527
13.34,32261.6,35595.0,1.2999,1.4617,144.8,96.8,0.527
13.36,32270.5,35422.1,1.3446,1.0372,144.8,96.8,0.527
13.38,32086.7,35192.5,0.4278,0.4736,144.8,96.8,0.527
13.4,32042.5,35085.0,0.2075,0.2095,144.8,96.8,0.527
13.42,32100.3,35118.1,0.4955,0.2909,144.8,96.8,0.527
13.44,32020.9,35023.2,0.0995,0.0579,144.8,96.8,0.527
13.46,31911.3,34875.1,-0.4472,-0.3056,144.8,96.8,0.527
13.48,31795.9,34827.1,-1.0224,-0.4235,144.8,96.8,0.527
13.5,31964.4,34715.6,-0.1821,-0.6973,144.8,96.8,0.527
13.52,31832.1,34711.7,-0.842,-0.7069,144.8,96.8,0.527
13.54,31883.2,34633.2,-0.587,-0.8997,144.8,96.8,0.527
13.56,31900.5,34664.1,-0.501,-0.8237,144.8,96.8,0.527
13.58,31794.1,34627.2,-1.0314,-0.9143,144.8,96.8,0.527
13.6,31809.3,34424.6,-0.9559,-1.4117,144.8,96.8,0.527
13.62,31700.9,34442.9,-1.4963,-1.367,144.8,96.8,0.527
13.64,31817.7,34542.9,-0.9139,-1.1214,144.8,96.8,0.527
13.66,31900.0,34813.1,-0.5036,-0.458,144.8,96.8,0.527
13.68,32107.7,35270.4,0.5323,0.6649,144.8,96.8,0.527
13.7,32183.4,35548.7,0.91,1.3481,144.8,96.8,0.527
13.72,32374.6,35787.6,1.8637,1.9346,144.8,96.8,0.527
13.74,32450.6,35789.4,2.2427,1.9389,144.8,96.8,0.527
13.76,32351.4,35546.2,1.7481,1.3421,144.8,96.8,0.527
13.78,32172.8,35374.8,0.8574,0.921,144.8,96.8,0.527
13.8,32148.3,35282.3,0.7349,0.6941,144.8,96.8,0.527
13.82,31928.6,35137.7,-0.3605,0.3391,144.8,96.8,0.527
13.84,32009.0,35093.7,0.0404,0.231,144.8,96.8,0.527
13.86,32102.3,35009.4,0.5056,0.0239,144.8,96.8,0.527
13.88,31995.2,34889.2,-0.0286,-0.2712,144.8,96.8,0.527
13.9,31833.5,34794.2,-0.8352,-0.5043,144.8,96.8,0.527
13.92,31853.1,34629.0,-0.7375,-0.9101,144.8,96.8,0.527
13.94,31909.8,34651.3,-0.4544,-0.8552,144.8,96.8,0.527
13.96,31788.3,34615.9,-1.0604,-0.9422,144.8,96.8,0.527
13.98,31751.7,34675.4,-1.2428,-0.796,144.8,96.8,0.527
14.0,31690.5,34547.7,-1.5484,-1.1096,144.8,96.8,0.527
14.02,31764.9,34436.3,-1.1771,-1.383,144.8,96.8,0.527
14.04,31758.0,34496.3,-1.2118,-1.2357,144.8,96.8,0.527
14.06,31749.1,34588.5,-1.2563,-1.0093,144.8,96.8,0.527
14.08,31932.8,34877.3,-0.3396,-0.3003,144.8,96.8,0.527
14.1,32162.0,35328.4,0.8032,0.8072,144.8,96.8,0.527
14.12,32227.1,35607.6,1.1281,1.4927,144.8,96.8,0.527
14.14,32336.4,35752.3,1.6731,1.8481,144.8,96.8,0.527
14.16,32315.9,35693.7,1.5709,1.7042,144.8,96.8,0.527
14.18,32275.7,35556.8,1.3704,1.3679,144.8,96.8,0.527
14.2,32133.4,35394.6,0.6606,0.9696,144.8,96.8,0.527
14.22,31985.5,35249.4,-0.077,0.6132,144.8,96.8,0.527
14.24,31992.7,35162.0,-0.0411,0.3986,144.8,96.8,0.527
14.26,32030.6,35061.6,0.1482,0.1521,144.8,96.8,0.527
14.28,32022.0,34971.8,0.105,-0.0684,144.8,96.8,0.527
14.3,32001.1,34824.5,0.0009,-0.43,144.8,96.8,0.527
14.32,31893.5,34843.9,-0.5357,-0.3824,144.8,96.8,0.527
14.34,31824.4,34710.7,-0.8805,-0.7094,144.8,96.8,0.527
14.36,31873.8,34629.4,-0.6341,-0.9089,144.8,96.8,0.527
14.38,31831.7,34658.1,-0.8443,-0.8386,144.8,96.8,0.527
14.4,31857.3,34579.4,-0.7165,-1.0316,144.8,96.8,0.527
14.42,31765.9,34472.6,-1.1722,-1.2938,144.8,96.8,0.527
14.44,31721.6,34444.1,-1.3931,-1.3638,144.8,96.8,0.527
14.46,31668.7,34564.2,-1.657,-1.069,144.8,96.8,0.527
14.48,31879.7,34761.2,-0.6049,-0.5853,144.8,96.8,0.527
14.5,31944.0,35148.7,-0.2842,0.366,144.8,96.8,0.527
14.52,32270.4,35497.6,1.3438,1.2227,144.8,96.8,0.527
14.54,32364.2,35673.6,1.8118,1.6547,144.8,96.8,0.527
14.56,32465.1,35724.7,2.3148,1.7801,144.8,96.8,0.527
14.58,32279.4,35660.6,1.389,1.6228,144.8,96.8,0.527
14.6,32200.0,35412.8,0.9931,1.0145,144.8,96.8,0.527
14.62,32195.5,35279.9,0.9706,0.6881,144.8,96.8,0.527
14.64,32090.0,35220.1,0.4441,0.5414,144.8,96.8,0.527
14.66,32079.8,34944.6,0.3933,-0.1351,144.8,96.8,0.527
14.68,31984.5,34987.5,-0.0822,-0.0299,144.8,96.8,0.527
14.7,31984.7,34988.4,-0.081,-0.0275,144.8,96.8,0.527
14.72,31888.6,34819.3,-0.5602,-0.4428,144.8,96.8,0.527
14.74,31837.1,34714.2,-0.817,-0.7009,144.8,96.8,0.527
14.76,31903.6,34674.4,-0.4857,-0.7985,144.8,96.8,0.527
14.78,31839.3,34613.4,-0.806,-0.9482,144.8,96.8,0.527
14.8,31763.2,34628.1,-1.1855,-0.9121,144.8,96.8,0.527
14.82,31738.2,34694.5,-1.3104,-0.7491,144.8,96.8,0.527
14.84,31689.2,34396.5,-1.5547,-1.4807,144.8,96.8,0.527
14.86,31728.8,34544.5,-1.357,-1.1173,144.8,96.8,0.527
14.88,31857.2,34555.4,-0.7169,-1.0906,144.8,96.8,0.527
14.9,31950.9,34817.6,-0.2493,-0.4469,144.8,96.8,0.527
14.92,32087.9,35099.6,0.4336,0.2455,144.8,96.8,0.527
14.94,32217.9,35450.7,1.0822,1.1074,144.8,96.8,0.527
14.96,32362.0,35654.5,1.8006,1.6077,144.8,96.8,0.527
14.98,32460.6,35763.1,2.2927,1.8745,144.8,96.8,0.527
15.0,32284.7,35534.5,1.4152,1.3133,144.8,96.8,0.527
15.02,32240.9,35502.8,1.1969,1.2355,144.8,96.8,0.527
15.04,32009.0,35284.1,0.0403,0.6985,144.8,96.8,0.527
15.06,31999.5,35112.3,-0.0074,0.2766,144.8,96.8,0.527
15.08,32020.9,35048.1,0.0994,0.1189,144.8,96.8,0.527
15.1,31971.4,34976.7,-0.1474,-0.0562,144.8,96.8,0.527
15.12,31942.6,34915.7,-0.2909,-0.2062,144.8,96.8,0.527
15.14,31843.1,34806.9,-0.7873,-0.4732,144.8,96.8,0.527
15.16,31817.1,34773.1,-0.9171,-0.5563,144.8,96.8,0.527
15.18,31860.6,34741.5,-0.6999,-0.6337,144.8,96.8,0.527
15.2,31806.7,34706.2,-0.9687,-0.7203,144.8,96.8,0.527
15.22,31854.6,34567.6,-0.73,-1.0607,144.8,96.8,0.527
15.24,31832.9,34617.0,-0.8383,-0.9394,144.8,96.8,0.527
15.26,31690.0,34443.8,-1.5507,-1.3648,144.8,96.8,0.527
15.28,31714.6,34484.7,-1.4282,-1.2642,144.8,96.8,0.527
15.3,31861.2,34576.8,-0.697,-1.038,144.8,96.8,0.527
15.32,31934.8,34879.8,-0.33,-0.2941,144.8,96.8,0.527
15.34,32147.6,35216.3,0.7313,0.532,144.8,96.8,0.527
15.36,32296.8,35549.1,1.4757,1.3491,144.8,96.8,0.527
15.38,32314.3,35687.5,1.563,1.6889,144.8,96.8,0.527
15.4,32386.6,35763.5,1.9233,1.8754,144.8,96.8,0.527
15.42,32293.5,35522.4,1.4591,1.2835,144.8,96.8,0.527
15.44,32209.3,35354.8,1.039,0.8721,144.8,96.8,0.527
15.46,32014.7,35158.5,0.0686,0.3901,144.8,96.8,0.527
15.48,31998.5,35168.3,-0.012,0.4141,144.8,96.8,0.527
15.5,32032.2,35113.2,0.1559,0.279,144.8,96.8,0.527
15.52,31996.9,34977.2,-0.0199,-0.055,144.8,96.8,0.527
15.54,31924.4,35033.7,-0.3817,0.0836,144.8,96.8,0.527
15.56,31889.9,34842.7,-0.5538,-0.3852,144.8,96.8,0.527
15.58,31861.0,34735.3,-0.6979,-0.6489,144.8,96.8,0.527
15.6,31913.0,34650.1,-0.4386,-0.8582,144.8,96.8,0.527
15.62,31806.7,34641.3,-0.9689,-0.8798,144.8,96.8,0.527
15.64,31799.7,34628.3,-1.0036,-0.9117,144.8,96.8,0.527
15.66,31742.9,34623.1,-1.287,-0.9244,144.8,96.8,0.527
15.68,31818.9,34441.8,-0.9077,-1.3696,144.8,96.8,0.527
15.7,31717.4,34588.2,-1.4144,-1.0101,144.8,96.8,0.527
15.72,31903.2,34699.5,-0.4873,-0.7368,144.8,96.8,0.527
15.74,31955.9,35051.0,-0.2247,0.126,144.8,96.8,0.527
15.76,32136.2,35347.7,0.6745,0.8546,144.8,96.8,0.527
15.78,32322.2,35790.5,1.6024,1.9417,144.8,96.8,0.527
15.8,32237.7,35716.0,1.1807,1.7589,144.8,96.8,0.527
15.82,32339.3,35644.5,1.6878,1.5833,144.8,96.8,0.527
15.84,32298.0,35469.8,1.4815,1.1544,144.8,96.8,0.527
15.86,32182.9,35308.3,0.9075,0.7579,144.8,96.8,0.527
15.88,32085.1,35141.0,0.4196,0.3471,144.8,96.8,0.527
15.9,32047.5,35120.8,0.2321,0.2974,144.8,96.8,0.527
15.92,31895.8,35111.8,-0.5242,0.2755,144.8,96.8,0.527
15.94,32015.6,34968.8,0.0731,-0.0756,144.8,96.8,0.527
15.96,31933.9,34820.2,-0.3342,-0.4405,144.8,96.8,0.527
15.98,31913.9,34811.2,-0.434,-0.4625,144.8,96.8,0.527
16.0,31881.6,34786.3,-0.5952,-0.5238,144.8,96.8,0.527
16.02,31813.7,34717.6,-0.9339,-0.6924,144.8,96.8,0.527
16.04,31765.6,34663.2,-1.1736,-0.8259,144.8,96.8,0.527
16.06,31867.9,34596.4,-0.6636,-0.99,144.8,96.8,0.527
16.08,31826.6,34548.5,-0.8694,-1.1075,144.8,96.8,0.527
16.1,31818.6,34533.5,-0.9093,-1.1445,144.8,96.8,0.527
16.12,31733.9,34299.8,-1.332,-1.7182,144.8,96.8,0.527
16.14,31884.8,34710.0,-0.5795,-0.711,144.8,96.8,0.527
16.16,32092.0,35220.4,0.454,0.5421,144.8,96.8,0.527
16.18,32227.0,35499.5,1.1274,1.2274,144.8,96.8,0.527
16.2,32272.6,35629.7,1.3548,1.5469,144.8,96.8,0.527
16.22,32377.7,35811.6,1.8792,1.9936,144.8,96.8,0.527
16.24,32312.7,35642.3,1.5549,1.5779,144.8,96.8,0.527
16.26,32155.5,35404.9,0.7707,0.9951,144.8,96.8,0.527
16.28,32090.2,35271.1,0.4453,0.6666,144.8,96.8,0.527
16.3,32083.2,35296.0,0.4104,0.7277,144.8,96.8,0.527
16.32,32136.8,34987.7,0.6776,-0.0293,144.8,96.8,0.527
16.34,32047.6,35084.9,0.2328,0.2094,144.8,96.8,0.527
16.36,32006.2,34939.6,0.0262,-0.1473,144.8,96.8,0.527
16.38,31946.2,34834.5,-0.2732,-0.4053,144.8,96.8,0.527
16.4,31915.8,34679.7,-0.4246,-0.7856,144.8,96.8,0.527
16.42,31819.3,34746.8,-0.9058,-0.6208,144.8,96.8,0.527
16.44,31789.0,34618.4,-1.0573,-0.9359,144.8,96.8,0.527
16.46,31917.2,34699.8,-0.4178,-0.7361,144.8,96.8,0.527
16.48,31809.5,34601.8,-0.9549,-0.9767,144.8,96.8,0.527
16.5,31744.6,34613.2,-1.2787,-0.9487,144.8,96.8,0.527
16.52,31800.8,34465.0,-0.9981,-1.3127,144.8,96.8,0.527
16.54,31874.6,34502.8,-0.6301,-1.2198,144.8,96.8,0.527
16.56,31944.0,34735.7,-0.2842,-0.6481,144.8,96.8,0.527
16.58,32043.7,35258.2,0.2135,0.6348,144.8,96.8,0.527
16.6,32214.2,35502.5,1.0634,1.2346,144.8,96.8,0.527
16.62,32410.2,35683.6,2.041,1.6794,144.8,96.8,0.527
16.64,32381.0,35713.8,1.8956,1.7536,144.8,96.8,0.527
16.66,32279.0,35599.1,1.3868,1.4718,144.8,96.8,0.527
16.68,32199.9,35402.0,0.9925,0.988,144.8,96.8,0.527
16.7,32066.3,35188.3,0.3262,0.4633,144.8,96.8,0.527
16.72,31948.9,35147.2,-0.2597,0.3623,144.8,96.8,0.527
16.74,31964.6,35073.8,-0.1812,0.1821,144.8,96.8,0.527
16.76,31949.6,34963.8,-0.2558,-0.0879,144.8,96.8,0.527
16.78,32003.4,34904.6,0.0122,-0.2333,144.8,96.8,0.527
16.8,31873.6,34770.3,-0.6351,-0.5631,144.8,96.8,0.527
16.82,31905.0,34641.3,-0.4786,-0.8796,144.8,96.8,0.527
16.84,31863.9,34649.4,-0.6834,-0.8599,144.8,96.8,0.527
16.86,31800.9,34707.5,-0.9979,-0.7173,144.8,96.8,0.527
16.88,31760.2,34669.3,-1.2004,-0.8111,144.8,96.8,0.527
16.9,31775.0,34538.2,-1.1268,-1.1328,144.8,96.8,0.527
16.92,31755.6,34492.7,-1.2238,-1.2446,144.8,96.8,0.527
16.94,31687.1,34475.2,-1.5651,-1.2877,144.8,96.8,0.527
16.96,31860.4,34597.0,-0.7011,-0.9885,144.8,96.8,0.527
16.98,31979.5,34858.9,-0.1068,-0.3454,144.8,96.8,0.527
17.0,32225.7,35330.4,1.1209,0.8122,144.8,96.8,0.527
17.02,32242.3,35579.3,1.2038,1.4233,144.8,96.8,0.527
17.04,32426.9,35802.0,2.1246,1.9701,144.8,96.8,0.527
17.06,32337.4,35697.8,1.6782,1.7141,144.8,96.8,0.527
17.08,32324.6,35608.7,1.614,1.4955,144.8,96.8,0.527
17.1,32208.8,35365.7,1.037,0.8988,144.8,96.8,0.527
17.12,32079.0,35123.8,0.3892,0.3048,144.8,96.8,0.527
17.14,31972.4,35142.9,-0.1421,0.3518,144.8,96.8,0.527
17.16,32092.2,35043.1,0.4552,0.1068,144.8,96.8,0.527
17.18,31990.8,35007.2,-0.0506,0.0186,144.8,96.8,0.527
17.2,31889.0,34920.1,-0.5583,-0.1952,144.8,96.8,0.527
17.22,31856.4,34796.9,-0.7209,-0.4978,144.8,96.8,0.527
17.24,31883.0,34687.1,-0.5882,-0.7672,144.8,96.8,0.527
17.26,31894.7,34738.7,-0.5297,-0.6406,144.8,96.8,0.527
17.28,31836.3,34729.9,-0.8211,-0.6622,144.8,96.8,0.527
17.3,31788.0,34579.6,-1.062,-1.0312,144.8,96.8,0.527
17.32,31776.0,34551.4,-1.122,-1.1004,144.8,96.8,0.527
17.34,31795.9,34451.8,-1.0224,-1.3451,144.8,96.8,0.527
17.36,31722.0,34477.4,-1.3914,-1.2822,144.8,96.8,0.527
17.38,31839.5,34708.8,-0.8054,-0.7141,144.8,96.8,0.527
17.4,32007.2,35009.4,0.0311,0.0239,144.8,96.8,0.527
17.42,32232.6,35329.2,1.1556,0.8092,144.8,96.8,0.527
17.44,32342.0,35709.1,1.7011,1.742,144.8,96.8,0.527
17.46,32444.4,35787.8,2.2117,1.9351,144.8,96.8,0.527
17.48,32204.3,35652.6,1.0145,1.6032,144.8,96.8,0.527
17.5,32299.5,35437.7,1.4891,1.0755,144.8,96.8,0.527
17.52,32154.3,35342.4,0.7647,0.8416,144.8,96.8,0.527
17.54,32094.3,35166.5,0.4655,0.4097,144.8,96.8,0.527
17.56,32012.5,35148.7,0.0575,0.366,144.8,96.8,0.527
17.58,31938.4,34997.8,-0.312,-0.0046,144.8,96.8,0.527
17.6,32023.4,34988.9,0.1122,-0.0264,144.8,96.8,0.527
17.62,31789.6,34871.5,-1.0542,-0.3145,144.8,96.8,0.527
17.64,31929.1,34672.8,-0.3581,-0.8024,144.8,96.8,0.527
17.66,31807.5,34711.9,-0.9649,-0.7063,144.8,96.8,0.527
17.68,31754.4,34660.8,-1.2296,-0.8318,144.8,96.8,0.527
17.7,31838.1,34673.3,-0.8123,-0.8012,144.8,96.8,0.527
17.72,31916.7,34701.5,-0.4203,-0.7319,144.8,96.8,0.527
17.74,31874.9,34540.2,-0.6284,-1.1279,144.8,96.8,0.527
17.76,31766.1,34427.3,-1.1712,-1.4051,144.8,96.8,0.527
17.78,31837.4,34480.2,-0.8155,-1.2754,144.8,96.8,0.527
17.8,31877.1,34751.6,-0.6177,-0.609,144.8,96.8,0.527
17.82,32005.1,35202.2,0.0208,0.4974,144.8,96.8,0.527
17.84,32256.8,35473.8,1.2761,1.1643,144.8,96.8,0.527
17.86,32327.0,35630.6,1.6264,1.5492,144.8,96.8,0.527
17.88,32296.7,35704.8,1.475,1.7314,144.8,96.8,0.527
17.9,32187.0,35555.9,0.9282,1.3658,144.8,96.8,0.527
17.92,32202.5,35354.6,1.0052,0.8715,144.8,96.8,0.527
17.94,32158.9,35216.4,0.7879,0.5323,144.8,96.8,0.527
17.96,32068.9,35127.9,0.339,0.3149,144.8,96.8,0.527
17.98,32132.3,35031.5,0.6552,0.0782,144.8,96.8,0.527
18.0,32040.1,35099.4,0.1955,0.245,144.8,96.8,0.527
18.02,31959.3,34904.6,-0.2076,-0.2333,144.8,96.8,0.527
18.04,31910.2,34902.6,-0.4527,-0.2383,144.8,96.8,0.527
18.06,31803.4,34754.1,-0.985,-0.6029,144.8,96.8,0.527
18.08,31924.4,34734.7,-0.3817,-0.6504,144.8,96.8,0.527
18.1,31848.2,34581.1,-0.7616,-1.0275,144.8,96.8,0.527
18.12,31772.1,34579.3,-1.1413,-1.032,144.8,96.8,0.527
18.14,31780.1,34623.9,-1.1014,-0.9224,144.8,96.8,0.527
18.16,31798.5,34439.4,-1.0094,-1.3754,144.8,96.8,0.527
18.18,31785.2,34448.1,-1.0761,-1.354,144.8,96.8,0.527
18.2,31761.4,34561.6,-1.1945,-1.0755,144.8,96.8,0.527
18.22,31902.2,34855.2,-0.4926,-0.3545,144.8,96.8,0.527
18.24,32157.8,35160.2,0.7826,0.3941,144.8,96.8,0.527
18.26,32260.6,35552.2,1.295,1.3566,144.8,96.8,0.527
18.28,32373.3,35753.2,1.8573,1.8502,144.8,96.8,0.527
18.3,32343.5,35820.1,1.7085,2.0144,144.8,96.8,0.527
18.32,32265.8,35572.9,1.3211,1.4075,144.8,96.8,0.527
18.34,32209.6,35386.6,1.0406,0.9501,144.8,96.8,0.527
18.36,32111.8,35188.0,0.5532,0.4624,144.8,96.8,0.527
18.38,32028.7,35227.1,0.1385,0.5584,144.8,96.8,0.527
18.4,31977.4,35032.8,-0.1174,0.0815,144.8,96.8,0.527
18.42,32001.4,34946.5,0.0022,-0.1305,144.8,96.8,0.527
18.44,32009.0,34828.4,0.0403,-0.4203,144.8,96.8,0.527
18.46,32070.5,34787.3,0.3469,-0.5213,144.8,96.8,0.527
18.48,31848.7,34665.9,-0.7594,-0.8193,144.8,96.8,0.527
18.5,31890.9,34672.5,-0.549,-0.8032,144.8,96.8,0.527
18.52,31765.6,34680.1,-1.1738,-0.7845,144.8,96.8,0.527
18.54,31807.9,34643.8,-0.9628,-0.8735,144.8,96.8,0.527
18.56,31741.7,34595.4,-1.2928,-0.9925,144.8,96.8,0.527
18.58,31731.1,34438.4,-1.3457,-1.3779,144.8,96.8,0.527
18.6,31741.1,34521.6,-1.296,-1.1737,144.8,96.8,0.527
18.62,31846.0,34653.2,-0.7728,-0.8505,144.8,96.8,0.527
18.64,31988.0,34970.9,-0.0645,-0.0705,144.8,96.8,0.527
18.66,32172.1,35392.3,0.8539,0.9642,144.8,96.8,0.527
18.68,32286.5,35648.2,1.4241,1.5923,144.8,96.8,0.527
18.7,32316.5,35764.4,1.5736,1.8776,144.8,96.8,0.527
18.72,32358.7,35639.8,1.7844,1.5717,144.8,96.8,0.527
18.74,32272.8,35470.8,1.356,1.1568,144.8,96.8,0.527
18.76,32166.8,35275.7,0.8271,0.6778,144.8,96.8,0.527
18.78,32026.2,35202.6,0.1261,0.4983,144.8,96.8,0.527
18.8,32027.9,35066.9,0.1345,0.1652,144.8,96.8,0.527
18.82,31995.2,35089.1,-0.0284,0.2196,144.8,96.8,0.527
18.84,31899.7,34885.9,-0.5047,-0.2791,144.8,96.8,0.527
18.86,31942.5,34956.7,-0.2913,-0.1054,144.8,96.8,0.527
18.88,31952.4,34833.8,-0.2423,-0.4072,144.8,96.8,0.527
18.9,31818.3,34818.3,-0.911,-0.4451,144.8,96.8,0.527
18.92,31734.8,34797.7,-1.3274,-0.4957,144.8,96.8,0.527
18.94,31823.1,34642.2,-0.8871,-0.8776,144.8,96.8,0.527
18.96,31723.8,34567.7,-1.3824,-1.0605,144.8,96.8,0.527
18.98,31761.7,34517.5,-1.193,-1.1836,144.8,96.8,0.527
19.0,31768.7,34351.3,-1.1585,-1.5918,144.8,96.8,0.527
19.02,31814.2,34408.9,-0.9313,-1.4504,144.8,96.8,0.527
19.04,31765.9,34686.7,-1.172,-0.7682,144.8,96.8,0.527
19.06,31999.3,35048.6,-0.0082,0.1202,144.8,96.8,0.527
19.08,32228.0,35435.9,1.1324,1.0712,144.8,96.8,0.527
19.1,32346.2,35734.8,1.722,1.805,144.8,96.8,0.527
19.12,32458.1,35899.4,2.2799,2.2091,144.8,96.8,0.527
19.14,32310.7,35690.7,1.5448,1.6968,144.8,96.8,0.527
19.16,32101.9,35489.9,0.5036,1.2037,144.8,96.8,0.527
19.18,32094.7,35220.1,0.4676,0.5412,144.8,96.8,0.527
19.2,32130.6,35129.2,0.6469,0.3181,144.8,96.8,0.527
19.22,32052.4,35137.3,0.2569,0.3381,144.8,96.8,0.527
19.24,32065.2,35039.6,0.3203,0.0981,144.8,96.8,0.527
19.26,31965.4,34889.0,-0.177,-0.2715,144.8,96.8,0.527
19.28,31953.1,34879.1,-0.2387,-0.2958,144.8,96.8,0.527
19.3,31946.1,34743.7,-0.2737,-0.6283,144.8,96.8,0.527
19.32,31857.3,34620.0,-0.7164,-0.9321,144.8,96.8,0.527
19.34,31768.1,34624.3,-1.1612,-0.9216,144.8,96.8,0.527
19.36,31778.5,34642.4,-1.1096,-0.8771,144.8,96.8,0.527
19.38,31704.0,34504.6,-1.4811,-1.2153,144.8,96.8,0.527
19.4,31760.4,34458.0,-1.1996,-1.3298,144.8,96.8,0.527
19.42,31751.9,34463.5,-1.2419,-1.3163,144.8,96.8,0.527
19.44,31796.3,34538.6,-1.0207,-1.132,144.8,96.8,0.527
19.46,31983.1,34648.9,-0.0889,-0.861,144.8,96.8,0.527
19.48,32083.6,35228.1,0.4124,0.5608,144.8,96.8,0.527
19.5,32288.9,35592.2,1.4362,1.4548,144.8,96.8,0.527
19.52,32422.1,35684.2,2.1005,1.6807,144.8,96.8,0.527
19.54,32444.9,35712.9,2.2143,1.7512,144.8,96.8,0.527
19.56,32342.4,35564.1,1.703,1.386,144.8,96.8,0.527
19.58,32191.5,35450.0,0.9502,1.1058,144.8,96.8,0.527
19.6,32105.6,35206.2,0.5218,0.5072,144.8,96.8,0.527
19.62,32059.2,35099.0,0.2908,0.2439,144.8,96.8,0.527
19.64,32114.0,35093.7,0.5639,0.231,144.8,96.8,0.527
19.66,32018.2,35033.7,0.0863,0.0836,144.8,96.8,0.527
19.68,31968.3,34902.2,-0.1626,-0.2392,144.8,96.8,0.527
19.7,31920.8,34848.8,-0.3995,-0.3703,144.8,96.8,0.527
19.72,31948.6,34726.2,-0.261,-0.6712,144.8,96.8,0.527
19.74,31871.0,34693.0,-0.6478,-0.7527,144.8,96.8,0.527
19.76,31955.1,34586.2,-0.2288,-1.0149,144.8,96.8,0.527
19.78,31812.3,34611.4,-0.941,-0.9531,144.8,96.8,0.527
19.8,31776.0,34509.0,-1.1218,-1.2045,144.8,96.8,0.527
19.82,31842.0,34511.4,-0.7927,-1.1987,144.8,96.8,0.527
19.84,31877.7,34444.7,-0.6146,-1.3623,144.8,96.8,0.527
19.86,31849.8,34624.5,-0.7537,-0.9211,144.8,96.8,0.527
19.88,31911.2,34886.5,-0.4474,-0.2777,144.8,96.8,0.527
19.9,32134.9,35295.1,0.668,0.7256,144.8,96.8,0.527
19.92,32299.1,35653.6,1.4871,1.6057,144.8,96.8,0.527
19.94,32249.0,35725.4,1.2373,1.7818,144.8,96.8,0.527
19.96,32279.2,35732.5,1.3878,1.7993,144.8,96.8,0.527
19.98,32238.8,35493.7,1.1863,1.213,144.8,96.8,0.527
20.0,32130.1,35279.1,0.6442,0.6861,144.8,96.8,0.527
20.02,32144.1,35192.2,0.714,0.4729,144.8,96.8,0.527
20.04,32016.8,35078.0,0.0789,0.1925,144.8,96.8,0.527
20.06,32129.6,35110.8,0.6419,0.2728,144.8,96.8,0.527
20.08,31948.7,35050.6,-0.2605,0.1252,144.8,96.8,0.527
20.1,31992.9,34899.6,-0.0403,-0.2455,144.8,96.8,0.527
20.12,31956.0,34746.5,-0.2243,-0.6214,144.8,96.8,0.527
20.14,31860.2,34602.7,-0.7019,-0.9744,144.8,96.8,0.527
20.16,31858.7,34633.6,-0.7094,-0.8986,144.8,96.8,0.527
20.18,31782.1,34637.7,-1.0917,-0.8885,144.8,96.8,0.527
20.2,31888.9,34559.0,-0.5589,-1.0817,144.8,96.8,0.527
20.22,31826.9,34505.6,-0.8679,-1.2129,144.8,96.8,0.527
20.24,31725.6,34452.7,-1.3734,-1.3427,144.8,96.8,0.527
20.26,31740.1,34387.0,-1.3009,-1.5041,144.8,96.8,0.527
20.28,31816.1,34620.9,-0.9216,-0.9298,144.8,96.8,0.527
20.3,32061.1,35062.4,0.3002,0.1542,144.8,96.8,0.527
20.32,32193.0,35363.1,0.9578,0.8924,144.8,96.8,0.527
20.34,32257.6,35637.0,1.28,1.5649,144.8,96.8,0.527
20.36,32342.8,35759.8,1.7052,1.8665,144.8,96.8,0.527
20.38,32229.7,35642.6,1.1408,1.5787,144.8,96.8,0.527
20.4,32319.5,35444.4,1.5891,1.092,144.8,96.8,0.527
20.42,32022.5,35228.5,0.1077,0.5619,144.8,96.8,0.527
20.44,32028.4,35179.3,0.1371,0.4412,144.8,96.8,0.527
20.46,32028.9,35088.1,0.1392,0.2173,144.8,96.8,0.527
20.48,31981.4,35062.1,-0.0975,0.1534,144.8,96.8,0.527
20.5,31953.7,34959.7,-0.2356,-0.0981,144.8,96.8,0.527
20.52,31882.9,34921.7,-0.5888,-0.1913,144.8,96.8,0.527
20.54,31889.1,34729.1,-0.5579,-0.6641,144.8,96.8,0.527
20.56,31854.9,34736.3,-0.7285,-0.6466,144.8,96.8,0.527
20.58,31863.0,34668.3,-0.6879,-0.8134,144.8,96.8,0.527
20.6,31821.2,34553.6,-0.8966,-1.0951,144.8,96.8,0.527
20.62,31827.9,34625.9,-0.8632,-0.9176,144.8,96.8,0.527
20.64,31799.6,34481.1,-1.0041,-1.273,144.8,96.8,0.527
20.66,31731.2,34393.0,-1.3454,-1.4894,144.8,96.8,0.527
20.68,31683.4,34484.1,-1.5837,-1.2658,144.8,96.8,0.527
20.7,31876.1,34756.6,-0.6227,-0.5967,144.8,96.8,0.527
20.72,31924.6,35082.1,-0.3809,0.2026,144.8,96.8,0.527
20.74,32233.4,35500.1,1.1595,1.2289,144.8,96.8,0.527
20.76,32356.2,35685.6,1.7717,1.6842,144.8,96.8,0.527
20.78,32297.6,35785.5,1.4794,1.9294,144.8,96.8,0.527
20.8,32353.0,35588.8,1.7557,1.4466,144.8,96.8,0.527
20.82,32171.2,35366.1,0.8491,0.8998,144.8,96.8,0.527
20.84,32153.7,35319.5,0.7617,0.7853,144.8,96.8,0.527
20.86,32048.6,35179.0,0.2379,0.4404,144.8,96.8,0.527
20.88,32061.7,35017.1,0.3033,0.0428,144.8,96.8,0.527
20.9,31930.3,35083.6,-0.3523,0.2061,144.8,96.8,0.527
20.92,31968.7,35017.1,-0.1609,0.043,144.8,96.8,0.527
20.94,31934.0,34707.0,-0.3339,-0.7185,144.8,96.8,0.527
20.96,31859.3,34794.9,-0.7063,-0.5025,144.8,96.8,0.527
20.98,31870.2,34604.4,-0.652,-0.9704,144.8,96.8,0.527
21.0,31849.3,34704.8,-0.7565,-0.7239,144.8,96.8,0.527
21.02,31878.5,34682.1,-0.6107,-0.7795,144.8,96.8,0.527
21.04,31839.3,34602.6,-0.8064,-0.9747,144.8,96.8,0.527
21.06,31810.5,34475.6,-0.9497,-1.2866,144.8,96.8,0.527
21.08,31719.1,34412.5,-1.4057,-1.4416,144.8,96.8,0.527
21.1,31765.2,34435.7,-1.1755,-1.3845,144.8,96.8,0.527
21.12,31869.7,34798.8,-0.6547,-0.493,144.8,96.8,0.527
21.14,32103.4,35164.4,0.5111,0.4045,144.8,96.8,0.527
21.16,32233.1,35669.3,1.1581,1.6441,144.8,96.8,0.527
21.18,32345.7,35703.7,1.7196,1.7285,144.8,96.8,0.527
21.2,32316.6,35749.0,1.5742,1.8399,144.8,96.8,0.527
21.22,32287.3,35611.4,1.4282,1.5019,144.8,96.8,0.527
21.24,32111.9,35441.1,0.5532,1.084,144.8,96.8,0.527
21.26,32048.9,35214.2,0.2392,0.5268,144.8,96.8,0.527
21.28,32072.0,35090.0,0.3543,0.2218,144.8,96.8,0.527
21.3,32009.9,35068.9,0.0447,0.1701,144.8,96.8,0.527
21.32,32065.1,34973.4,0.3199,-0.0644,144.8,96.8,0.527
21.34,31913.1,34893.5,-0.4381,-0.2606,144.8,96.8,0.527
21.36,31791.9,34779.7,-1.0423,-0.54,144.8,96.8,0.527
21.38,31920.2,34768.3,-0.4025,-0.5678,144.8,96.8,0.527
21.4,31852.1,34705.7,-0.7425,-0.7216,144.8,96.8,0.527
21.42,31815.1,34688.4,-0.927,-0.7642,144.8,96.8,0.527
21.44,31855.5,34735.5,-0.7252,-0.6484,144.8,96.8,0.527
21.46,31762.5,34575.3,-1.1892,-1.0417,144.8,96.8,0.527
21.48,31772.7,34422.3,-1.1384,-1.4174,144.8,96.8,0.527
21.5,31723.2,34497.0,-1.3853,-1.234,144.8,96.8,0.527
21.52,31767.9,34694.5,-1.162,-0.7492,144.8,96.8,0.527
21.54,31934.8,34923.3,-0.3298,-0.1874,144.8,96.8,0.527
21.56,32080.7,35336.0,0.3976,0.8258,144.8,96.8,0.527
21.58,32303.1,35548.6,1.5069,1.3479,144.8,96.8,0.527
21.6,32462.9,35777.5,2.3038,1.9099,144.8,96.8,0.527
21.62,32256.6,35698.9,1.275,1.7169,144.8,96.8,0.527
21.64,32322.7,35503.8,1.6048,1.2378,144.8,96.8,0.527
21.66,32213.5,35284.9,1.0599,0.7004,144.8,96.8,0.527
21.68,32008.3,35175.2,0.037,0.4311,144.8,96.8,0.527
21.7,32078.5,35101.2,0.3868,0.2495,144.8,96.8,0.527
21.72,32098.2,35067.5,0.4852,0.1668,144.8,96.8,0.527
21.74,32032.0,35015.0,0.1551,0.0378,144.8,96.8,0.527
21.76,32022.7,34899.0,0.1083,-0.247,144.8,96.8,0.527
21.78,31789.6,34669.1,-1.054,-0.8114,144.8,96.8,0.527
21.8,31825.7,34787.8,-0.8741,-0.52,144.8,96.8,0.527
21.82,31797.1,34627.9,-1.0166,-0.9127,144.8,96.8,0.527
21.84,31748.3,34610.6,-1.2598,-0.9551,144.8,96.8,0.527
21.86,31779.6,34680.8,-1.1037,-0.7827,144.8,96.8,0.527
21.88,31728.5,34492.9,-1.3586,-1.2442,144.8,96.8,0.527
21.9,31707.7,34440.3,-1.4625,-1.3733,144.8,96.8,0.527
21.92,31723.4,34476.0,-1.384,-1.2857,144.8,96.8,0.527
21.94,31849.4,34612.5,-0.756,-0.9504,144.8,96.8,0.527
21.96,31922.4,35082.7,-0.3918,0.204,144.8,96.8,0.527
21.98,32234.2,35401.1,1.1635,0.9858,144.8,96.8,0.527
22.0,32296.1,35657.6,1.4722,1.6154,144.8,96.8,0.527
22.02,32301.2,35702.4,1.4974,1.7255,144.8,96.8,0.527
22.04,32214.0,35799.9,1.0626,1.9648,144.8,96.8,0.527
22.06,32291.3,35452.1,1.448,1.1109,144.8,96.8,0.527
22.08,32160.6,35255.7,0.7964,0.6287,144.8,96.8,0.527
22.1,32029.7,35139.9,0.1433,0.3444,144.8,96.8,0.527
22.12,32069.2,35090.2,0.3406,0.2224,144.8,96.8,0.527
22.14,31958.2,35001.4,-0.2133,0.0045,144.8,96.8,0.527
22.16,31976.5,34988.8,-0.1219,-0.0266,144.8,96.8,0.527
22.18,31902.4,34893.1,-0.4915,-0.2616,144.8,96.8,0.527
22.2,31901.7,34767.4,-0.4951,-0.5701,144.8,96.8,0.527
22.22,31818.0,34819.9,-0.9124,-0.4411,144.8,96.8,0.527
22.24,31809.8,34660.7,-0.9531,-0.8321,144.8,96.8,0.527
22.26,31777.9,34567.0,-1.1126,-1.0623,144.8,96.8,0.527
22.28,31743.2,34627.3,-1.2855,-0.914,144.8,96.8,0.527
22.3,31737.7,34438.0,-1.313,-1.3789,144.8,96.8,0.527
22.32,31728.2,34481.9,-1.3601,-1.271,144.8,96.8,0.527
22.34,31838.1,34527.5,-0.8123,-1.1591,144.8,96.8,0.527
22.36,31834.8,34807.2,-0.8287,-0.4724,144.8,96.8,0.527
22.38,32147.0,35171.7,0.7283,0.4225,144.8,96.8,0.527
22.4,32175.1,35533.0,0.8686,1.3095,144.8,96.8,0.527
22.42,32384.7,35750.2,1.9141,1.8427,144.8,96.8,0.527
22.44,32342.7,35785.4,1.7043,1.9293,144.8,96.8,0.527
22.46,32302.3,35643.7,1.5031,1.5813,144.8,96.8,0.527
22.48,32204.4,35390.7,1.0149,0.9601,144.8,96.8,0.527
22.5,32127.7,35333.4,0.6321,0.8194,144.8,96.8,0.527
22.52,32060.4,35145.9,0.2965,0.3591,144.8,96.8,0.527
22.54,32028.8,35056.2,0.139,0.139,144.8,96.8,0.527
22.56,31896.6,35003.6,-0.5202,0.0097,144.8,96.8,0.527
22.58,32096.8,34863.9,0.4781,-0.3332,144.8,96.8,0.527
22.6,31835.4,34879.8,-0.8257,-0.2942,144.8,96.8,0.527
22.62,31783.7,34730.5,-1.0835,-0.6607,144.8,96.8,0.527
22.64,31871.6,34621.6,-0.6453,-0.9282,144.8,96.8,0.527
22.66,31837.6,34646.4,-0.8148,-0.8672,144.8,96.8,0.527
22.68,31803.4,34618.8,-0.9853,-0.9351,144.8,96.8,0.527
22.7,31796.3,34573.3,-1.0206,-1.0468,144.8,96.8,0.527
22.72,31746.7,34478.1,-1.2677,-1.2805,144.8,96.8,0.527
22.74,31726.5,34408.0,-1.3688,-1.4526,144.8,96.8,0.527
22.76,31784.4,34647.5,-1.0797,-0.8646,144.8,96.8,0.527
22.78,31929.4,34899.7,-0.3566,-0.2454,144.8,96.8,0.527
22.8,32142.4,35196.7,0.7058,0.4838,144.8,96.8,0.527
22.82,32337.2,35579.7,1.677,1.4243,144.8,96.8,0.527
22.84,32323.1,35810.2,1.6069,1.99,144.8,96.8,0.527
22.86,32342.4,35738.5,1.7031,1.8141,144.8,96.8,0.527
22.88,32335.3,35584.2,1.6678,1.4353,144.8,96.8,0.527
22.9,32124.5,35336.4,0.6163,0.8267,144.8,96.8,0.527
22.92,32106.3,35235.3,0.5256,0.5786,144.8,96.8,0.527
22.94,32074.4,35143.6,0.3664,0.3534,144.8,96.8,0.527
22.96,32088.0,35097.2,0.4341,0.2395,144.8,96.8,0.527
22.98,32027.9,35009.8,0.1345,0.025,144.8,96.8,0.527
23.0,31836.2,34846.0,-0.8217,-0.3772,144.8,96.8,0.527
23.02,31835.0,34796.4,-0.8275,-0.499,144.8,96.8,0.527
23.04,31799.4,34681.1,-1.0052,-0.7822,144.8,96.8,0.527
23.06,31878.6,34685.2,-0.6101,-0.7719,144.8,96.8,0.527
23.08,31868.1,34684.7,-0.6625,-0.7733,144.8,96.8,0.527
23.1,31930.7,34644.2,-0.3504,-0.8726,144.8,96.8,0.527
23.12,31764.2,34547.1,-1.1809,-1.111,144.8,96.8,0.527
23.14,31721.3,34315.1,-1.3946,-1.6806,144.8,96.8,0.527
23.16,31728.8,34516.7,-1.3571,-1.1856,144.8,96.8,0.527
23.18,31854.7,34722.7,-0.7295,-0.6799,144.8,96.8,0.527
23.2,32004.9,34983.8,0.0198,-0.0389,144.8,96.8,0.527
23.22,32073.4,35441.8,0.3614,1.0857,144.8,96.8,0.527
23.24,32355.5,35755.6,1.7685,1.8561,144.8,96.8,0.527
23.26,32297.2,35667.0,1.4777,1.6386,144.8,96.8,0.527
23.28,32402.4,35676.6,2.0024,1.6622,144.8,96.8,0.527
23.3,32164.9,35479.2,0.8178,1.1776,144.8,96.8,0.527
23.32,32142.3,35243.5,0.7051,0.5988,144.8,96.8,0.527
23.34,32136.7,35179.5,0.6771,0.4418,144.8,96.8,0.527
23.36,31995.5,35033.9,-0.0273,0.084,144.8,96.8,0.527
23.38,31991.7,35135.4,-0.046,0.3333,144.8,96.8,0.527
23.4,31949.5,34977.7,-0.2563,-0.0537,144.8,96.8,0.527
23.42,31952.1,34816.7,-0.2436,-0.4492,144.8,96.8,0.527
23.44,31892.1,34699.9,-0.543,-0.7359,144.8,96.8,0.527
23.46,31826.1,34701.0,-0.872,-0.7333,144.8,96.8,0.527
23.48,31793.7,34717.1,-1.0337,-0.6937,144.8,96.8,0.527
23.5,31809.9,34726.9,-0.9526,-0.6695,144.8,96.8,0.527
23.52,31776.4,34625.8,-1.1199,-0.9178,144.8,96.8,0.527
23.54,31717.2,34497.5,-1.4152,-1.2329,144.8,96.8,0.527
23.56,31688.6,34493.4,-1.5578,-1.2428,144.8,96.8,0.527
23.58,31773.1,34422.5,-1.1366,-1.4169,144.8,96.8,0.527
23.6,31920.8,34761.5,-0.3996,-0.5847,144.8,96.8,0.527
23.62,32027.4,35150.0,0.1318,0.3693,144.8,96.8,0.527
23.64,32175.5,35609.9,0.8704,1.4983,144.8,96.8,0.527
23.66,32365.2,35629.5,1.8165,1.5465,144.8,96.8,0.527
23.68,32412.3,35834.6,2.0519,2.05,144.8,96.8,0.527
23.7,32347.1,35660.3,1.7266,1.6221,144.8,96.8,0.527
23.72,32229.8,35390.4,1.1414,0.9595,144.8,96.8,0.527
23.74,32133.8,35321.6,0.6627,0.7905,144.8,96.8,0.527
23.76,32061.9,35102.1,0.3041,0.2517,144.8,96.8,0.527
23.78,32052.9,35035.7,0.259,0.0885,144.8,96.8,0.527
23.8,32093.2,35106.6,0.46,0.2627,144.8,96.8,0.527
23.82,31987.0,34883.9,-0.0696,-0.2842,144.8,96.8,0.527
23.84,31944.0,34844.4,-0.2839,-0.381,144.8,96.8,0.527
23.86,31738.9,34722.3,-1.3071,-0.6809,144.8,96.8,0.527
23.88,31846.6,34579.7,-0.7698,-1.0311,144.8,96.8,0.527
23.9,31817.5,34696.2,-0.9149,-0.7448,144.8,96.8,0.527
23.92,31809.7,34583.1,-0.9539,-1.0227,144.8,96.8,0.527
23.94,31755.3,34563.2,-1.2251,-1.0716,144.8,96.8,0.527
23.96,31797.7,34370.0,-1.0134,-1.5459,144.8,96.8,0.527
23.98,31712.9,34470.5,-1.4364,-1.299,144.8,96.8,0.527
24.0,31789.7,34591.0,-1.0537,-1.0032,144.8,96.8,0.527
24.02,31947.0,34797.9,-0.2688,-0.4953,144.8,96.8,0.527
24.04,32104.7,35210.0,0.5175,0.5164,144.8,96.8,0.527
24.06,32241.3,35525.1,1.1988,1.2902,144.8,96.8,0.527
24.08,32324.2,35726.6,1.6125,1.7848,144.8,96.8,0.527
24.1,32312.3,35744.2,1.5528,1.8282,144.8,96.8,0.527
24.12,32255.7,35624.9,1.2707,1.5351,144.8,96.8,0.527
24.14,32153.5,35359.0,0.761,0.8823,144.8,96.8,0.527
24.16,32042.1,35216.0,0.2052,0.5312,144.8,96.8,0.527
24.18,32127.3,35086.0,0.63,0.2122,144.8,96.8,0.527
24.2,32015.0,35020.0,0.0703,0.05,144.8,96.8,0.527
24.22,31994.6,35009.8,-0.0317,0.0249,144.8,96.8,0.527
24.24,32001.5,34926.8,0.0027,-0.1788,144.8,96.8,0.527
24.26,31924.6,34745.4,-0.3807,-0.6243,144.8,96.8,0.527
24.28,31928.0,34781.1,-0.3638,-0.5364,144.8,96.8,0.527
24.3,31869.5,34614.0,-0.6554,-0.9467,144.8,96.8,0.527
24.32,31811.4,34686.0,-0.9452,-0.7699,144.8,96.8,0.527
24.34,31853.5,34702.4,-0.7355,-0.7297,144.8,96.8,0.527
24.36,31745.4,34526.2,-1.2744,-1.1622,144.8,96.8,0.527
24.38,31756.7,34416.8,-1.2179,-1.431,144.8,96.8,0.527
24.4,31706.8,34435.2,-1.4668,-1.3857,144.8,96.8,0.527
24.42,31828.8,34666.3,-0.8584,-0.8184,144.8,96.8,0.527
24.44,31958.7,34869.3,-0.2105,-0.32,144.8,96.8,0.527
24.46,32159.7,35279.8,0.7919,0.6879,144.8,96.8,0.527
24.48,32314.0,35576.0,1.5614,1.4152,144.8,96.8,0.527
24.5,32322.6,35756.0,1.6041,1.8571,144.8,96.8,0.527
24.52,32396.7,35737.4,1.9738,1.8114,144.8,96.8,0.527
24.54,32310.2,35451.6,1.5423,1.1098,144.8,96.8,0.527
24.56,32171.9,35359.2,0.8527,0.8829,144.8,96.8,0.527
24.58,32110.1,35162.3,0.5444,0.3995,144.8,96.8,0.527
24.6,32040.0,35105.0,0.195,0.2587,144.8,96.8,0.527
24.62,32061.2,35089.2,0.3008,0.2199,144.8,96.8,0.527
24.64,31990.9,35029.1,-0.0503,0.0723,144.8,96.8,0.527
24.66,31856.0,34821.7,-0.7229,-0.4368,144.8,96.8,0.527
24.68,31864.7,34717.2,-0.6796,-0.6934,144.8,96.8,0.527
24.7,31788.3,34735.2,-1.0607,-0.6492,144.8,96.8,0.527
24.72,31832.1,34707.1,-0.8422,-0.7182,144.8,96.8,0.527
24.74,31810.4,34723.5,-0.9503,-0.6779,144.8,96.8,0.527
24.76,31832.9,34648.5,-0.8383,-0.8622,144.8,96.8,0.527
24.78,31836.5,34570.5,-0.8201,-1.0536,144.8,96.8,0.527
24.8,31779.2,34555.3,-1.106,-1.0908,144.8,96.8,0.527
24.82,31714.9,34465.8,-1.4268,-1.3106,144.8,96.8,0.527
24.84,31824.2,34732.7,-0.8814,-0.6554,144.8,96.8,0.527
24.86,32044.7,35066.1,0.2182,0.1632,144.8,96.8,0.527
24.88,32192.8,35345.1,0.9567,0.8481,144.8,96.8,0.527
24.9,32403.3,35685.8,2.0066,1.6847,144.8,96.8,0.527
24.92,32434.5,35851.4,2.1626,2.0913,144.8,96.8,0.527
24.94,32408.1,35638.9,2.0306,1.5694,144.8,96.8,0.527
24.96,32214.1,35530.2,1.0633,1.3027,144.8,96.8,0.527
24.98,32163.1,35243.0,0.8086,0.5975,144.8,96.8,0.527
25.0,32085.3,35107.6,0.4206,0.2652,144.8,96.8,0.527
25.02,32076.2,35070.8,0.3754,0.1748,144.8,96.8,0.527
25.04,32032.6,35020.1,0.1579,0.0502,144.8,96.8,0.527
25.06,31945.9,34934.0,-0.2746,-0.1611,144.8,96.8,0.527
25.08,31993.0,34878.7,-0.0396,-0.2968,144.8,96.8,0.527
25.1,31906.3,34763.8,-0.472,-0.579,144.8,96.8,0.527
25.12,31817.6,34787.1,-0.9144,-0.5218,144.8,96.8,0.527
25.14,31813.9,34692.0,-0.933,-0.7552,144.8,96.8,0.527
25.16,31822.1,34672.5,-0.8918,-0.8031,144.8,96.8,0.527
25.18,31825.5,34575.5,-0.8751,-1.0414,144.8,96.8,0.527
25.2,31887.9,34500.9,-0.5636,-1.2245,144.8,96.8,0.527
25.22,31754.0,34401.5,-1.2316,-1.4684,144.8,96.8,0.527
25.24,31771.4,34449.6,-1.1449,-1.3503,144.8,96.8,0.527
25.26,31900.1,34726.3,-0.5028,-0.6711,144.8,96.8,0.527
25.28,32099.0,35063.0,0.4892,0.1555,144.8,96.8,0.527
25.3,32278.6,35490.4,1.385,1.2049,144.8,96.8,0.527
25.32,32342.1,35761.0,1.7014,1.8694,144.8,96.8,0.527
25.34,32448.4,35807.5,2.2317,1.9835,144.8,96.8,0.527
25.36,32306.8,35596.9,1.5255,1.4664,144.8,96.8,0.527
25.38,32219.5,35361.7,1.0901,0.889,144.8,96.8,0.527
25.4,32122.5,35271.6,0.6064,0.6679,144.8,96.8,0.527
25.42,32135.4,35159.9,0.6705,0.3936,144.8,96.8,0.527
25.44,32106.1,35086.0,0.5243,0.212,144.8,96.8,0.527
25.46,32020.4,35054.8,0.097,0.1354,144.8,96.8,0.527
25.48,32014.1,34917.8,0.0659,-0.2008,144.8,96.8,0.527
25.5,31920.6,34833.7,-0.4006,-0.4073,144.8,96.8,0.527
25.52,31856.1,34749.3,-0.7222,-0.6146,144.8,96.8,0.527
25.54,31892.3,34671.6,-0.5418,-0.8053,144.8,96.8,0.527
25.56,31999.4,34617.6,-0.0075,-0.9379,144.8,96.8,0.527
25.58,31855.5,34578.2,-0.7256,-1.0346,144.8,96.8,0.527
25.6,31844.7,34562.4,-0.7793,-1.0735,144.8,96.8,0.527
25.62,31738.0,34487.0,-1.3114,-1.2586,144.8,96.8,0.527
25.64,31728.7,34419.3,-1.3576,-1.4248,144.8,96.8,0.527
25.66,31835.8,34677.6,-0.8236,-0.7907,144.8,96.8,0.527
25.68,31944.5,34836.4,-0.2814,-0.4008,144.8,96.8,0.527
25.7,32130.0,35198.0,0.6435,0.487,144.8,96.8,0.527
25.72,32260.7,35578.3,1.2954,1.4207,144.8,96.8,0.527
25.74,32426.9,35680.9,2.1242,1.6726,144.8,96.8,0.527
25.76,32364.4,35718.7,1.8127,1.7654,144.8,96.8,0.527
25.78,32306.6,35587.8,1.5245,1.444,144.8,96.8,0.527
25.8,32184.1,35382.8,0.9133,0.9409,144.8,96.8,0.527
25.82,32189.3,35199.1,0.9394,0.4898,144.8,96.8,0.527
25.84,32078.9,35094.3,0.389,0.2324,144.8,96.8,0.527
25.86,32023.1,35059.4,0.1106,0.1467,144.8,96.8,0.527
25.88,31958.6,34877.0,-0.211,-0.3012,144.8,96.8,0.527
25.9,31945.3,34966.7,-0.2777,-0.0808,144.8,96.8,0.527
25.92,31933.7,34702.0,-0.3352,-0.7306,144.8,96.8,0.527
25.94,31909.5,34700.8,-0.456,-0.7337,144.8,96.8,0.527
25.96,31814.8,34668.6,-0.9282,-0.8128,144.8,96.8,0.527
25.98,31915.1,34663.4,-0.4279,-0.8255,144.8,96.8,0.527
26.0,31846.6,34588.2,-0.7698,-1.0102,144.8,96.8,0.527
26.02,31758.9,34584.9,-1.2072,-1.0181,144.8,96.8,0.527
26.04,31770.6,34509.5,-1.1487,-1.2034,144.8,96.8,0.527
26.06,31853.8,34446.0,-0.734,-1.3592,144.8,96.8,0.527
26.08,31778.0,34639.5,-1.1119,-0.8842,144.8,96.8,0.527
26.1,31944.2,34924.2,-0.283,-0.1853,144.8,96.8,0.527
26.12,32135.0,35239.8,0.6687,0.5896,144.8,96.8,0.527
26.14,32354.4,35659.7,1.7627,1.6207,144.8,96.8,0.527
26.16,32332.5,35770.4,1.6538,1.8924,144.8,96.8,0.527
26.18,32305.9,35789.4,1.5212,1.9391,144.8,96.8,0.527
26.2,32239.7,35533.5,1.191,1.3107,144.8,96.8,0.527
26.22,32070.7,35370.6,0.3479,0.9108,144.8,96.8,0.527
26.24,32070.2,35234.4,0.3457,0.5764,144.8,96.8,0.527
26.26,32075.2,35121.2,0.3706,0.2985,144.8,96.8,0.527
26.28,31952.7,34993.6,-0.2404,-0.0148,144.8,96.8,0.527
26.3,31881.1,34950.2,-0.5978,-0.1214,144.8,96.8,0.527
26.32,31972.7,34878.1,-0.141,-0.2983,144.8,96.8,0.527
26.34,31902.8,34668.9,-0.4897,-0.812,144.8,96.8,0.527
26.36,31854.2,34691.8,-0.7321,-0.7558,144.8,96.8,0.527
26.38,31895.1,34628.1,-0.5279,-0.9121,144.8,96.8,0.527
26.4,31780.9,34657.5,-1.0977,-0.8399,144.8,96.8,0.527
26.42,31841.7,34570.4,-0.7941,-1.0539,144.8,96.8,0.527
26.44,31841.0,34588.2,-0.7976,-1.0102,144.8,96.8,0.527
26.46,31718.2,34449.2,-1.4101,-1.3513,144.8,96.8,0.527
26.48,31764.0,34519.9,-1.1818,-1.1779,144.8,96.8,0.527
26.5,31858.7,34664.4,-0.7092,-0.823,144.8,96.8,0.527
26.52,32044.7,35036.6,0.2183,0.0908,144.8,96.8,0.527
26.54,32120.4,35452.9,0.5956,1.1129,144.8,96.8,0.527
26.56,32367.9,35578.7,1.83,1.4217,144.8,96.8,0.527
26.58,32365.0,35685.5,1.8156,1.6839,144.8,96.8,0.527
26.6,32255.5,35665.6,1.2694,1.635,144.8,96.8,0.527
26.62,32304.5,35536.2,1.5138,1.3173,144.8,96.8,0.527
26.64,32126.3,35226.3,0.6251,0.5565,144.8,96.8,0.527
26.66,32046.8,35145.0,0.2287,0.357,144.8,96.8,0.527
26.68,32033.0,35164.7,0.1598,0.4053,144.8,96.8,0.527
26.7,31953.4,35037.5,-0.237,0.0929,144.8,96.8,0.527
26.72,32000.3,34916.8,-0.0032,-0.2035,144.8,96.8,0.527
26.74,31860.6,34869.9,-0.7001,-0.3185,144.8,96.8,0.527
26.76,31840.6,34781.5,-0.7998,-0.5356,144.8,96.8,0.527
26.78,31818.8,34725.1,-0.9086,-0.674,144.8,96.8,0.527
26.8,31828.8,34611.8,-0.8585,-0.9522,144.8,96.8,0.527
26.82,31927.4,34647.1,-0.3666,-0.8655,144.8,96.8,0.527
26.84,31834.4,34606.4,-0.8304,-0.9653,144.8,96.8,0.527
26.86,31735.3,34534.5,-1.3251,-1.1419,144.8,96.8,0.527
26.88,31766.4,34394.0,-1.1697,-1.4868,144.8,96.8,0.527
26.9,31725.6,34522.7,-1.373,-1.1709,144.8,96.8,0.527
26.92,31852.5,34738.9,-0.7403,-0.6401,144.8,96.8,0.527
26.94,31994.7,35138.8,-0.0309,0.3416,144.8,96.8,0.527
26.96,32169.2,35503.1,0.839,1.2361,144.8,96.8,0.527
26.98,32403.2,35766.2,2.0064,1.8822,144.8,96.8,0.527
27.0,32376.4,35669.8,1.8726,1.6454,144.8,96.8,0.527
27.02,32244.8,35548.6,1.2162,1.3478,144.8,96.8,0.527
27.04,32123.8,35438.5,0.613,1.0775,144.8,96.8,0.527
27.06,32144.1,35230.7,0.7138,0.5675,144.8,96.8,0.527
27.08,32025.3,35107.1,0.1216,0.2639,144.8,96.8,0.527
27.1,31997.1,35171.9,-0.0192,0.4229,144.8,96.8,0.527
27.12,31989.6,34950.1,-0.0568,-0.1216,144.8,96.8,0.527
27.14,31952.1,34840.3,-0.2436,-0.3911,144.8,96.8,0.527
27.16,31887.4,34792.9,-0.5661,-0.5075,144.8,96.8,0.527
27.18,31862.5,34669.2,-0.6907,-0.8112,144.8,96.8,0.527
27.2,31840.8,34628.8,-0.7986,-0.9105,144.8,96.8,0.527
27.22,31925.6,34698.8,-0.3756,-0.7386,144.8,96.8,0.527
27.24,31820.8,34612.4,-0.8983,-0.9508,144.8,96.8,0.527
27.26,31747.0,34643.5,-1.2667,-0.8743,144.8,96.8,0.527
27.28,31673.8,34459.7,-1.6318,-1.3257,144.8,96.8,0.527
27.3,31658.1,34467.3,-1.71,-1.307,144.8,96.8,0.527
27.32,31733.7,34679.6,-1.3327,-0.7858,144.8,96.8,0.527
27.34,31994.5,34957.7,-0.0323,-0.1029,144.8,96.8,0.527
27.36,32142.9,35237.5,0.7079,0.584,144.8,96.8,0.527
27.38,32291.3,35685.7,1.4483,1.6845,144.8,96.8,0.527
27.4,32345.1,35784.8,1.7164,1.9279,144.8,96.8,0.527
27.42,32388.9,35693.2,1.9349,1.7029,144.8,96.8,0.527
27.44,32287.8,35565.5,1.4306,1.3894,144.8,96.8,0.527
27.46,32137.7,35375.6,0.682,0.923,144.8,96.8,0.527
27.48,32137.6,35144.2,0.6814,0.355,144.8,96.8,0.527
27.5,32145.0,35157.5,0.7184,0.3877,144.8,96.8,0.527
27.52,32023.9,35078.5,0.1144,0.1937,144.8,96.8,0.527
27.54,32000.5,34965.3,-0.002,-0.0844,144.8,96.8,0.527
27.56,31932.0,34881.8,-0.3437,-0.2893,144.8,96.8,0.527
27.58,31850.9,34819.9,-0.7483,-0.4412,144.8,96.8,0.527
27.6,31790.1,34664.2,-1.0517,-0.8236,144.8,96.8,0.527
27.62,31834.5,34726.5,-0.8301,-0.6706,144.8,96.8,0.527
27.64,31829.6,34607.3,-0.8546,-0.9633,144.8,96.8,0.527
27.66,31847.9,34538.3,-0.7633,-1.1325,144.8,96.8,0.527
27.68,31824.7,34486.9,-0.879,-1.2588,144.8,96.8,0.527
27.7,31731.1,34416.9,-1.346,-1.4307,144.8,96.8,0.527
27.72,31722.3,34442.6,-1.3899,-1.3676,144.8,96.8,0.527
27.74,31878.2,34696.8,-0.612,-0.7434,144.8,96.8,0.527
27.76,31905.7,34936.4,-0.475,-0.1551,144.8,96.8,0.527
27.78,32167.4,35326.7,0.8303,0.8029,144.8,96.8,0.527
27.8,32330.9,35738.8,1.6455,1.8148,144.8,96.8,0.527
27.82,32323.2,35673.5,1.6074,1.6546,144.8,96.8,0.527
27.84,32301.8,35659.3,1.5005,1.6197,144.8,96.8,0.527
27.86,32276.3,35503.6,1.3735,1.2375,144.8,96.8,0.527
27.88,32114.5,35413.8,0.5666,1.0168,144.8,96.8,0.527
27.9,32045.7,35125.2,0.2233,0.3083,144.8,96.8,0.527
27.92,31983.9,35089.0,-0.0849,0.2193,144.8,96.8,0.527
27.94,31976.6,35023.5,-0.1215,0.0587,144.8,96.8,0.527
27.96,32006.6,34991.1,0.0284,-0.0208,144.8,96.8,0.527
27.98,31977.2,34885.0,-0.1185,-0.2815,144.8,96.8,0.527
28.0,31831.8,34807.0,-0.8435,-0.4728,144.8,96.8,0.527
28.02,31802.8,34748.4,-0.9881,-0.6169,144.8,96.8,0.527
28.04,31905.3,34631.8,-0.4771,-0.9031,144.8,96.8,0.527
28.06,31825.2,34622.8,-0.8763,-0.9251,144.8,96.8,0.527
28.08,31868.8,34610.7,-0.6592,-0.9549,144.8,96.8,0.527
28.1,31676.9,34536.9,-1.6162,-1.1361,144.8,96.8,0.527
28.12,31797.5,34407.4,-1.0144,-1.454,144.8,96.8,0.527
28.14,31826.1,34522.2,-0.8719,-1.1721,144.8,96.8,0.527
28.16,31816.7,34690.1,-0.9187,-0.76,144.8,96.8,0.527
28.18,32006.6,35057.7,0.0283,0.1426,144.8,96.8,0.527
28.2,32282.9,35403.0,1.4065,0.9904,144.8,96.8,0.527
28.22,32299.5,35754.0,1.489,1.852,144.8,96.8,0.527
28.24,32406.6,35759.8,2.023,1.8663,144.8,96.8,0.527
28.26,32330.2,35666.7,1.6422,1.6378,144.8,96.8,0.527
28.28,32222.6,35499.7,1.1056,1.2279,144.8,96.8,0.527
28.3,32130.6,35268.3,0.6469,0.6596,144.8,96.8,0.527
28.32,32101.2,35188.9,0.4999,0.4647,144.8,96.8,0.527
28.34,31970.4,35119.6,-0.1521,0.2946,144.8,96.8,0.527
28.36,32095.4,35030.6,0.4711,0.076,144.8,96.8,0.527
28.38,31974.2,34929.2,-0.1335,-0.1728,144.8,96.8,0.527
28.4,31812.3,34765.6,-0.9406,-0.5746,144.8,96.8,0.527
28.42,31847.6,34679.4,-0.7647,-0.7861,144.8,96.8,0.527
28.44,31841.8,34627.6,-0.7936,-0.9134,144.8,96.8,0.527
28.46,31816.5,34722.4,-0.9197,-0.6806,144.8,96.8,0.527
28.48,31844.3,34645.3,-0.7813,-0.87,144.8,96.8,0.527
28.5,31796.7,34636.2,-1.0184,-0.8922,144.8,96.8,0.527
28.52,31796.1,34465.4,-1.0215,-1.3116,144.8,96.8,0.527
28.54,31760.1,34450.9,-1.2012,-1.3472,144.8,96.8,0.527
28.56,31742.6,34455.3,-1.2884,-1.3364,144.8,96.8,0.527
28.58,31901.7,34854.7,-0.4949,-0.3558,144.8,96.8,0.527
28.6,32101.6,35209.7,0.5022,0.5158,144.8,96.8,0.527
28.62,32229.2,35550.7,1.1387,1.3529,144.8,96.8,0.527
28.64,32296.0,35747.0,1.4715,1.8348,144.8,96.8,0.527
28.66,32338.9,35660.0,1.6856,1.6213,144.8,96.8,0.527
28.68,32264.9,35492.7,1.3163,1.2106,144.8,96.8,0.527
28.7,32143.5,35388.0,0.7112,0.9535,144.8,96.8,0.527
28.72,32059.7,35223.2,0.2933,0.549,144.8,96.8,0.527
28.74,32010.6,35107.1,0.0481,0.2638,144.8,96.8,0.527
28.76,32021.7,34925.1,0.1034,-0.1829,144.8,96.8,0.527
28.78,31996.9,34959.5,-0.02,-0.0984,144.8,96.8,0.527
28.8,31914.0,34980.0,-0.4334,-0.0483,144.8,96.8,0.527
28.82,31842.3,34748.1,-0.7913,-0.6176,144.8,96.8,0.527
28.84,31891.8,34700.4,-0.5445,-0.7348,144.8,96.8,0.527
28.86,31823.0,34641.9,-0.8872,-0.8783,144.8,96.8,0.527
28.88,31876.9,34640.2,-0.6187,-0.8824,144.8,96.8,0.527
28.9,31839.2,34599.9,-0.8067,-0.9813,144.8,96.8,0.527
28.92,31729.5,34586.0,-1.3537,-1.0154,144.8,96.8,0.527
28.94,31762.2,34465.4,-1.1905,-1.3116,144.8,96.8,0.527
28.96,31773.8,34416.1,-1.1328,-1.4326,144.8,96.8,0.527
28.98,31745.0,34613.7,-1.2763,-0.9476,144.8,96.8,0.527
29.0,31910.5,34953.9,-0.4512,-0.1122,144.8,96.8,0.527
29.02,32219.9,35288.3,1.0922,0.7086,144.8,96.8,0.527
29.04,32246.6,35643.0,1.2252,1.5797,144.8,96.8,0.527
29.06,32396.0,35636.3,1.9706,1.5631,144.8,96.8,0.527
29.08,32331.0,35605.8,1.6462,1.4884,144.8,96.8,0.527
29.1,32316.8,35550.6,1.5754,1.3527,144.8,96.8,0.527
29.12,32136.7,35339.8,0.677,0.8351,144.8,96.8,0.527
29.14,32097.6,35200.5,0.4822,0.4933,144.8,96.8,0.527
29.16,32140.4,35134.0,0.6958,0.3299,144.8,96.8,0.527
29.18,32050.0,35100.2,0.2445,0.2469,144.8,96.8,0.527
29.2,32023.2,35002.4,0.111,0.0067,144.8,96.8,0.527
29.22,31830.4,34985.6,-0.8506,-0.0344,144.8,96.8,0.527
29.24,31877.8,34786.7,-0.6143,-0.5227,144.8,96.8,0.527
29.26,31931.3,34743.3,-0.3473,-0.6293,144.8,96.8,0.527
29.28,31876.8,34702.6,-0.6191,-0.7292,144.8,96.8,0.527
29.3,31840.4,34775.0,-0.8006,-0.5515,144.8,96.8,0.527
29.32,31828.4,34635.1,-0.8606,-0.8949,144.8,96.8,0.527
29.34,31752.0,34585.7,-1.2416,-1.0162,144.8,96.8,0.527
29.36,31825.4,34446.3,-0.8756,-1.3586,144.8,96.8,0.527
29.38,31718.1,34381.5,-1.4106,-1.5177,144.8,96.8,0.527
29.4,31853.6,34684.9,-0.735,-0.7728,144.8,96.8,0.527
29.42,32077.1,35025.9,0.3798,0.0644,144.8,96.8,0.527
29.44,32171.0,35496.2,0.8484,1.2191,144.8,96.8,0.527
29.46,32349.1,35789.9,1.7366,1.9403,144.8,96.8,0.527
29.48,32380.0,35718.8,1.8905,1.7657,144.8,96.8,0.527
29.5,32394.4,35588.2,1.9626,1.445,144.8,96.8,0.527
29.52,32271.6,35457.2,1.3501,1.1235,144.8,96.8,0.527
29.54,32097.4,35279.3,0.4813,0.6866,144.8,96.8,0.527
29.56,32038.0,35229.4,0.1848,0.5642,144.8,96.8,0.527
29.58,31985.5,35078.6,-0.0769,0.1939,144.8,96.8,0.527
29.6,32079.4,35068.1,0.3914,0.1681,144.8,96.8,0.527
29.62,31942.2,34927.2,-0.293,-0.1778,144.8,96.8,0.527
29.64,31831.3,34928.1,-0.8459,-0.1756,144.8,96.8,0.527
29.66,31838.4,34744.4,-0.8107,-0.6265,144.8,96.8,0.527
29.68,31854.0,34757.8,-0.7327,-0.5938,144.8,96.8,0.527
29.7,31810.2,34656.2,-0.9512,-0.8431,144.8,96.8,0.527
29.72,31714.5,34611.0,-1.4285,-0.9541,144.8,96.8,0.527
29.74,31798.4,34524.0,-1.01,-1.1676,144.8,96.8,0.527
29.76,31718.9,34505.9,-1.4068,-1.2122,144.8,96.8,0.527
29.78,31672.2,34394.0,-1.6397,-1.487,144.8,96.8,0.527
29.8,31822.2,34573.6,-0.8913,-1.046,144.8,96.8,0.527
29.82,31945.2,34828.1,-0.2778,-0.4211,144.8,96.8,0.527
29.84,32142.3,35114.4,0.7051,0.2817,144.8,96.8,0.527
29.86,32203.1,35569.4,1.0081,1.399,144.8,96.8,0.527
29.88,32357.6,35673.5,1.7789,1.6544,144.8,96.8,0.527
29.9,32278.7,35812.7,1.3855,1.9963,144.8,96.8,0.527
29.92,32374.7,35608.8,1.8639,1.4956,144.8,96.8,0.527
29.94,32133.7,35335.5,0.6621,0.8247,144.8,96.8,0.527
29.96,32136.6,35166.2,0.6768,0.409,144.8,96.8,0.527
29.98,32022.8,35173.9,0.1091,0.4279,144.8,96.8,0.527
30.0,32128.2,34984.7,0.6348,-0.0366,144.8,96.8,0.527
30.02,31989.4,34976.7,-0.0574,-0.0564,144.8,96.8,0.527
30.04,31940.2,34970.6,-0.3028,-0.0712,144.8,96.8,0.527
30.06,31879.2,34882.3,-0.6074,-0.288,144.8,96.8,0.527
30.08,31819.7,34745.8,-0.9038,-0.6232,144.8,96.8,0.527
30.1,31833.1,34651.0,-0.8372,-0.8559,144.8,96.8,0.527
30.12,31858.2,34706.5,-0.712,-0.7197,144.8,96.8,0.527
30.14,31928.4,34674.8,-0.3615,-0.7975,144.8,96.8,0.527
30.16,31808.7,34608.8,-0.9588,-0.9595,144.8,96.8,0.527
30.18,31767.8,34492.9,-1.1628,-1.244,144.8,96.8,0.527
30.2,31729.9,34417.2,-1.3518,-1.43,144.8,96.8,0.527
30.22,31850.0,34584.2,-0.7527,-1.0199,144.8,96.8,0.527
30.24,31981.6,34807.0,-0.0965,-0.4729,144.8,96.8,0.527
30.26,32138.5,35241.0,0.6861,0.5926,144.8,96.8,0.527
30.28,32233.2,35633.1,1.1583,1.5553,144.8,96.8,0.527
30.3,32390.3,35690.2,1.942,1.6954,144.8,96.8,0.527
30.32,32308.7,35795.4,1.5351,1.9539,144.8,96.8,0.527
30.34,32241.4,35530.5,1.1992,1.3034,144.8,96.8,0.527
30.36,32172.4,35331.9,0.8554,0.8158,144.8,96.8,0.527
30.38,32036.0,35159.7,0.1748,0.3929,144.8,96.8,0.527
30.4,32056.4,35075.9,0.2768,0.1872,144.8,96.8,0.527
30.42,32022.3,35068.7,0.1067,0.1696,144.8,96.8,0.527
30.44,31882.1,35010.2,-0.5926,0.0259,144.8,96.8,0.527
30.46,31941.0,34841.1,-0.2991,-0.3893,144.8,96.8,0.527
30.48,31853.7,34724.9,-0.7345,-0.6745,144.8,96.8,0.527
30.5,31785.0,34671.2,-1.0767,-0.8064,144.8,96.8,0.527
30.52,31786.2,34737.3,-1.0711,-0.6442,144.8,96.8,0.527
30.54,31801.9,34690.1,-0.9927,-0.7599,144.8,96.8,0.527
30.56,31894.2,34601.3,-0.5321,-0.9779,144.8,96.8,0.527
30.58,31710.5,34548.3,-1.4483,-1.1082,144.8,96.8,0.527
30.6,31824.4,34528.0,-0.8802,-1.1578,144.8,96.8,0.527
30.62,31755.0,34411.3,-1.2268,-1.4446,144.8,96.8,0.527
30.64,31852.6,34553.2,-0.7396,-1.0961,144.8,96.8,0.527
30.66,31954.2,35073.2,-0.233,0.1807,144.8,96.8,0.527
30.68,32175.8,35326.8,0.8721,0.8033,144.8,96.8,0.527
30.7,32302.6,35648.0,1.5045,1.5918,144.8,96.8,0.527
30.72,32451.9,35795.6,2.2493,1.9542,144.8,96.8,0.527
30.74,32334.6,35685.8,1.6643,1.6846,144.8,96.8,0.527
30.76,32303.2,35445.7,1.5074,1.0951,144.8,96.8,0.527
30.78,32127.5,35236.3,0.6314,0.581,144.8,96.8,0.527
30.8,32071.1,35130.8,0.3499,0.3221,144.8,96.8,0.527
30.82,32113.1,35038.1,0.5596,0.0944,144.8,96.8,0.527
30.84,32138.7,35085.0,0.6873,0.2096,144.8,96.8,0.527
30.86,31908.2,34927.5,-0.4626,-0.1772,144.8,96.8,0.527
30.88,31993.8,34858.9,-0.0358,-0.3456,144.8,96.8,0.527
30.9,31918.3,34744.4,-0.4122,-0.6267,144.8,96.8,0.527
30.92,31859.8,34813.4,-0.7039,-0.4572,144.8,96.8,0.527
30.94,31790.9,34676.8,-1.0477,-0.7926,144.8,96.8,0.527
30.96,31872.2,34669.8,-0.6423,-0.8098,144.8,96.8,0.527
30.98,31697.1,34586.5,-1.5152,-1.0143,144.8,96.8,0.527
31.0,31709.4,34465.8,-1.4538,-1.3108,144.8,96.8,0.527
31.02,31764.9,34440.1,-1.1773,-1.3737,144.8,96.8,0.527
31.04,31748.0,34472.2,-1.2613,-1.295,144.8,96.8,0.527
31.06,31866.7,34676.3,-0.6696,-0.7937,144.8,96.8,0.527
31.08,32072.7,35036.6,0.3581,0.0909,144.8,96.8,0.527
31.1,32165.9,35406.6,0.823,0.9991,144.8,96.8,0.527
31.12,32412.3,35698.3,2.0518,1.7155,144.8,96.8,0.527
31.14,32229.0,35734.8,1.1373,1.8051,144.8,96.8,0.527
31.16,32238.8,35744.9,1.1862,1.8298,144.8,96.8,0.527
31.18,32176.3,35358.3,0.8745,0.8807,144.8,96.8,0.527
31.2,32112.0,35276.3,0.5537,0.6792,144.8,96.8,0.527
31.22,32049.5,35164.6,0.2425,0.405,144.8,96.8,0.527
31.24,32049.0,35010.1,0.2399,0.0257,144.8,96.8,0.527
31.26,32056.9,35015.2,0.2792,0.0383,144.8,96.8,0.527
31.28,31959.6,34975.4,-0.2064,-0.0595,144.8,96.8,0.527
31.3,31950.4,34835.0,-0.2522,-0.4043,144.8,96.8,0.527
31.32,31818.6,34812.6,-0.9095,-0.4592,144.8,96.8,0.527
31.34,31936.1,34793.4,-0.3236,-0.5064,144.8,96.8,0.527
31.36,31819.5,34642.6,-0.9048,-0.8766,144.8,96.8,0.527
31.38,31790.0,34639.1,-1.0519,-0.8851,144.8,96.8,0.527
31.4,31839.1,34627.8,-0.807,-0.913,144.8,96.8,0.527
31.42,31747.0,34448.2,-1.2666,-1.3538,144.8,96.8,0.527
31.44,31716.7,34409.9,-1.4177,-1.4479,144.8,96.8,0.527
31.46,31791.4,34580.7,-1.045,-1.0284,144.8,96.8,0.527
31.48,31912.6,34845.2,-0.4403,-0.3792,144.8,96.8,0.527
31.5,32051.0,35152.1,0.2497,0.3745,144.8,96.8,0.527
31.52,32164.5,35477.4,0.8159,1.173,144.8,96.8,0.527
31.54,32408.9,35636.2,2.0346,1.5629,144.8,96.8,0.527
31.56,32376.9,35765.8,1.8752,1.881,144.8,96.8,0.527
31.58,32230.4,35552.1,1.1443,1.3564,144.8,96.8,0.527
31.6,32193.4,35387.5,0.96,0.9522,144.8,96.8,0.527
31.62,32103.1,35321.4,0.5096,0.7899,144.8,96.8,0.527
31.64,32019.7,35091.3,0.0934,0.2251,144.8,96.8,0.527
31.66,32098.3,35118.4,0.4858,0.2916,144.8,96.8,0.527
31.68,31981.0,35090.9,-0.0992,0.2242,144.8,96.8,0.527
31.7,31951.9,34996.9,-0.2444,-0.0066,144.8,96.8,0.527
31.72,31870.8,34836.0,-0.6493,-0.4016,144.8,96.8,0.527
31.74,31939.7,34699.5,-0.3053,-0.7368,144.8,96.8,0.527
31.76,31842.2,34559.5,-0.7918,-1.0806,144.8,96.8,0.527
31.78,31792.4,34631.1,-1.0401,-0.9048,144.8,96.8,0.527
31.8,31864.5,34639.2,-0.6804,-0.885,144.8,96.8,0.527
31.82,31798.3,34559.5,-1.0107,-1.0806,144.8,96.8,0.527
31.84,31760.3,34498.3,-1.2001,-1.2308,144.8,96.8,0.527
31.86,31682.4,34523.0,-1.5885,-1.1702,144.8,96.8,0.527
31.88,31876.7,34654.7,-0.6194,-0.8468,144.8,96.8,0.527
31.9,31887.3,34871.9,-0.5666,-0.3135,144.8,96.8,0.527
31.92,32125.9,35268.4,0.623,0.6599,144.8,96.8,0.527
31.94,32317.7,35541.3,1.5798,1.3299,144.8,96.8,0.527
31.96,32364.9,35691.5,1.8153,1.6987,144.8,96.8,0.527
31.98,32250.5,35730.7,1.2448,1.7948,144.8,96.8,0.527
32.0,32273.2,35577.6,1.358,1.4191,144.8,96.8,0.527
32.02,32124.2,35326.3,0.6147,0.802,144.8,96.8,0.527
32.04,32096.1,35162.2,0.4747,0.3991,144.8,96.8,0.527
32.06,32044.3,35125.9,0.2162,0.3101,144.8,96.8,0.527
32.08,32046.5,34994.1,0.227,-0.0135,144.8,96.8,0.527
32.1,31987.3,35068.2,-0.068,0.1685,144.8,96.8,0.527
32.12,31941.3,34836.5,-0.2972,-0.4004,144.8,96.8,0.527
32.14,31956.8,34706.9,-0.2204,-0.7187,144.8,96.8,0.527
32.16,31914.9,34733.2,-0.4292,-0.6541,144.8,96.8,0.527
32.18,31868.9,34626.4,-0.6588,-0.9163,144.8,96.8,0.527
32.2,31774.2,34717.8,-1.1311,-0.692,144.8,96.8,0.527
32.22,31867.1,34606.3,-0.6673,-0.9657,144.8,96.8,0.527
32.24,31707.2,34555.7,-1.4649,-1.09,144.8,96.8,0.527
32.26,31768.4,34427.2,-1.16,-1.4055,144.8,96.8,0.527
32.28,31740.9,34439.3,-1.2969,-1.3757,144.8,96.8,0.527
32.3,31874.7,34718.2,-0.6298,-0.6911,144.8,96.8,0.527
32.32,31982.2,35067.1,-0.0932,0.1658,144.8,96.8,0.527
32.34,32196.5,35382.2,0.9753,0.9393,144.8,96.8,0.527
32.36,32264.4,35730.3,1.3141,1.7939,144.8,96.8,0.527
32.38,32371.0,35802.8,1.8456,1.9719,144.8,96.8,0.527
32.4,32322.8,35611.2,1.6052,1.5015,144.8,96.8,0.527
32.42,32187.5,35433.6,0.9304,1.0654,144.8,96.8,0.527
32.44,32128.5,35342.7,0.6362,0.8424,144.8,96.8,0.527
32.46,32048.0,35190.3,0.2346,0.4682,144.8,96.8,0.527
32.48,31972.0,35054.3,-0.1445,0.1341,144.8,96.8,0.527
32.5,32047.8,35031.3,0.234,0.0779,144.8,96.8,0.527
32.52,31890.1,34957.6,-0.5527,-0.1033,144.8,96.8,0.527
32.54,31985.6,34873.1,-0.0763,-0.3106,144.8,96.8,0.527
32.56,31889.5,34729.9,-0.5558,-0.6621,144.8,96.8,0.527
32.58,31834.6,34625.3,-0.8296,-0.9191,144.8,96.8,0.527
32.6,31836.5,34706.7,-0.8201,-0.7192,144.8,96.8,0.527
32.62,31891.0,34719.5,-0.5481,-0.6878,144.8,96.8,0.527
32.64,31877.7,34574.2,-0.6146,-1.0445,144.8,96.8,0.527
32.66,31842.4,34489.1,-0.7909,-1.2534,144.8,96.8,0.527
32.68,31711.5,34453.9,-1.4438,-1.34,144.8,96.8,0.527
32.7,31689.1,34549.9,-1.5554,-1.1042,144.8,96.8,0.527
32.72,31904.0,34748.5,-0.4837,-0.6166,144.8,96.8,0.527
32.74,32117.4,35131.3,0.581,0.3233,144.8,96.8,0.527
32.76,32200.9,35408.6,0.9976,1.0042,144.8,96.8,0.527
32.78,32377.9,35704.3,1.88,1.73,144.8,96.8,0.527
32.8,32358.9,35710.8,1.7854,1.746,144.8,96.8,0.527
32.82,32273.5,35646.2,1.3596,1.5874,144.8,96.8,0.527
32.84,32245.7,35455.0,1.2207,1.118,144.8,96.8,0.527
32.86,32113.3,35240.6,0.5604,0.5916,144.8,96.8,0.527
32.88,32040.6,35228.0,0.1976,0.5608,144.8,96.8,0.527
32.9,32085.3,34998.3,0.4208,-0.0034,144.8,96.8,0.527
32.92,32088.9,34991.5,0.439,-0.0199,144.8,96.8,0.527
32.94,31978.3,35031.8,-0.1129,0.0791,144.8,96.8,0.527
32.96,31971.5,34793.8,-0.147,-0.5052,144.8,96.8,0.527
32.98,31883.9,34753.0,-0.5836,-0.6055,144.8,96.8,0.527
33.0,31802.6,34628.1,-0.9891,-0.9122,144.8,96.8,0.527
33.02,31856.4,34664.8,-0.7207,-0.822,144.8,96.8,0.527
33.04,31896.2,34664.3,-0.5225,-0.8234,144.8,96.8,0.527
33.06,31854.7,34535.3,-0.7296,-1.1401,144.8,96.8,0.527
33.08,31720.2,34491.7,-1.4002,-1.2471,144.8,96.8,0.527
33.1,31727.6,34505.8,-1.3633,-1.2123,144.8,96.8,0.527
33.12,31801.7,34533.5,-0.9937,-1.1443,144.8,96.8,0.527
33.14,31877.5,34810.0,-0.6157,-0.4656,144.8,96.8,0.527
33.16,32039.7,35286.9,0.1936,0.7053,144.8,96.8,0.527
33.18,32332.5,35565.5,1.6536,1.3893,144.8,96.8,0.527
33.2,32338.4,35673.9,1.6829,1.6554,144.8,96.8,0.527
33.22,32410.8,35740.2,2.0444,1.8182,144.8,96.8,0.527
33.24,32348.5,35457.1,1.7334,1.1231,144.8,96.8,0.527
33.26,32189.0,35287.5,0.9378,0.7068,144.8,96.8,0.527
33.28,32023.3,35205.7,0.1115,0.5059,144.8,96.8,0.527
33.3,32040.7,35123.3,0.1982,0.3036,144.8,96.8,0.527
33.32,32055.2,35079.6,0.2705,0.1964,144.8,96.8,0.527
33.34,31960.0,35068.0,-0.2044,0.168,144.8,96.8,0.527
33.36,31984.3,34874.5,-0.0829,-0.3072,144.8,96.8,0.527
33.38,31899.8,34857.1,-0.5045,-0.3499,144.8,96.8,0.527
33.4,31878.8,34693.1,-0.6092,-0.7526,144.8,96.8,0.527
33.42,31767.3,34685.7,-1.1651,-0.7707,144.8,96.8,0.527
33.44,31811.2,34675.0,-0.9464,-0.797,144.8,96.8,0.527
33.46,31769.8,34682.6,-1.1527,-0.7783,144.8,96.8,0.527
33.48,31756.3,34510.4,-1.22,-1.2012,144.8,96.8,0.527
33.5,31651.6,34359.3,-1.7421,-1.5721,144.8,96.8,0.527
33.52,31755.7,34520.4,-1.2233,-1.1765,144.8,96.8,0.527
33.54,31761.5,34605.1,-1.1943,-0.9685,144.8,96.8,0.527
33.56,31937.6,34958.1,-0.3158,-0.1021,144.8,96.8,0.527
33.58,32211.2,35360.5,1.0486,0.886,144.8,96.8,0.527
33.6,32271.5,35654.2,1.3495,1.6072,144.8,96.8,0.527
33.62,32306.1,35822.8,1.5221,2.0211,144.8,96.8,0.527
33.64,32286.7,35623.5,1.4255,1.5317,144.8,96.8,0.527
33.66,32228.5,35557.0,1.135,1.3685,144.8,96.8,0.527
33.68,32036.7,35328.3,0.1782,0.807,144.8,96.8,0.527
33.7,32073.0,35101.5,0.3594,0.2502,144.8,96.8,0.527
33.72,32062.1,35051.4,0.3052,0.1271,144.8,96.8,0.527
33.74,31983.4,35056.0,-0.0874,0.1384,144.8,96.8,0.527
33.76,32039.8,35024.1,0.1936,0.0602,144.8,96.8,0.527
33.78,31941.5,34887.9,-0.2966,-0.2743,144.8,96.8,0.527
33.8,31841.3,34694.4,-0.7964,-0.7495,144.8,96.8,0.527
33.82,31799.9,34660.4,-1.0027,-0.833,144.8,96.8,0.527
33.84,31854.7,34644.3,-0.7295,-0.8724,144.8,96.8,0.527
33.86,31848.7,34777.6,-0.7593,-0.5452,144.8,96.8,0.527
33.88,31835.1,34614.5,-0.8271,-0.9456,144.8,96.8,0.527
33.9,31788.3,34592.1,-1.0604,-1.0006,144.8,96.8,0.527
33.92,31693.3,34450.8,-1.5341,-1.3474,144.8,96.8,0.527
33.94,31807.7,34529.5,-0.9636,-1.1541,144.8,96.8,0.527
33.96,31837.8,34687.2,-0.8135,-0.7671,144.8,96.8,0.527
33.98,32045.4,35110.1,0.2217,0.2712,144.8,96.8,0.527
34.0,32183.9,35292.7,0.9128,0.7194,144.8,96.8,0.527
34.02,32249.3,35689.6,1.2385,1.6941,144.8,96.8,0.527
34.04,32384.1,35694.0,1.9112,1.7048,144.8,96.8,0.527
34.06,32327.2,35601.2,1.6273,1.4771,144.8,96.8,0.527
34.08,32236.6,35476.4,1.1752,1.1705,144.8,96.8,0.527
34.1,32194.5,35242.3,0.9653,0.5959,144.8,96.8,0.527
34.12,32081.4,35129.1,0.4014,0.3178,144.8,96.8,0.527
34.14,32023.1,35098.9,0.1106,0.2437,144.8,96.8,0.527
34.16,32057.2,34996.6,0.2807,-0.0075,144.8,96.8,0.527
34.18,31929.9,34942.3,-0.3541,-0.1407,144.8,96.8,0.527
34.2,31937.2,34885.1,-0.3178,-0.2811,144.8,96.8,0.527
34.22,31958.5,34730.9,-0.2118,-0.6598,144.8,96.8,0.527
34.24,31838.2,34671.4,-0.8119,-0.8058,144.8,96.8,0.527
34.26,31881.2,34619.4,-0.5969,-0.9335,144.8,96.8,0.527
34.28,31741.4,34641.1,-1.2942,-0.8802,144.8,96.8,0.527
34.3,31859.8,34611.7,-0.7038,-0.9525,144.8,96.8,0.527
34.32,31791.4,34457.6,-1.0449,-1.3309,144.8,96.8,0.527
34.34,31781.5,34457.7,-1.0946,-1.3305,144.8,96.8,0.527
34.36,31656.8,34561.6,-1.7163,-1.0754,144.8,96.8,0.527
34.38,31883.6,34703.1,-0.5853,-0.7281,144.8,96.8,0.527
34.4,32068.9,35148.5,0.3388,0.3655,144.8,96.8,0.527
34.42,32211.2,35448.5,1.0484,1.102,144.8,96.8,0.527
34.44,32273.5,35639.1,1.3592,1.57,144.8,96.8,0.527
34.46,32373.4,35676.9,1.8577,1.6629,144.8,96.8,0.527
34.48,32301.2,35603.4,1.4977,1.4824,144.8,96.8,0.527
34.5,32234.5,35408.7,1.1648,1.0043,144.8,96.8,0.527
34.52,32084.9,35206.3,0.4188,0.5075,144.8,96.8,0.527
34.54,31951.1,35238.3,-0.2484,0.5861,144.8,96.8,0.527
34.56,31987.6,35079.1,-0.0667,0.1952,144.8,96.8,0.527
34.58,32020.9,34994.5,0.0995,-0.0126,144.8,96.8,0.527
34.6,31878.1,34963.7,-0.6124,-0.0883,144.8,96.8,0.527
34.62,31913.9,34777.7,-0.4339,-0.5448,144.8,96.8,0.527
34.64,31861.1,34807.4,-0.6974,-0.472,144.8,96.8,0.527
34.66,31904.6,34711.7,-0.4802,-0.7069,144.8,96.8,0.527
34.68,31827.7,34659.5,-0.8642,-0.835,144.8,96.8,0.527
34.7,31836.3,34713.8,-0.8213,-0.7018,144.8,96.8,0.527
34.72,31756.8,34493.3,-1.2176,-1.2432,144.8,96.8,0.527
34.74,31785.7,34449.9,-1.0734,-1.3498,144.8,96.8,0.527
34.76,31805.5,34469.9,-0.9746,-1.3005,144.8,96.8,0.527
34.78,31774.0,34638.5,-1.1317,-0.8867,144.8,96.8,0.527
34.8,31910.8,34902.9,-0.4497,-0.2376,144.8,96.8,0.527
34.82,32169.1,35302.0,0.8388,0.7424,144.8,96.8,0.527
34.84,32303.9,35525.6,1.5108,1.2913,144.8,96.8,0.527
34.86,32368.7,35716.5,1.834,1.7601,144.8,96.8,0.527
34.88,32247.1,35745.6,1.2275,1.8316,144.8,96.8,0.527
34.9,32254.7,35607.2,1.2656,1.4917,144.8,96.8,0.527
34.92,32230.6,35415.1,1.1454,1.02,144.8,96.8,0.527
34.94,32081.9,35185.1,0.4036,0.4553,144.8,96.8,0.527
34.96,32048.6,35212.6,0.2378,0.5229,144.8,96.8,0.527
34.98,31962.6,35021.7,-0.1912,0.0541,144.8,96.8,0.527
35.0,32070.2,35056.7,0.3453,0.1401,144.8,96.8,0.527
35.02,31882.8,34900.5,-0.5892,-0.2434,144.8,96.8,0.527
35.04,31889.4,34783.2,-0.5565,-0.5314,144.8,96.8,0.527
35.06,31923.2,34744.8,-0.3876,-0.6256,144.8,96.8,0.527
35.08,31917.0,34564.8,-0.4185,-1.0677,144.8,96.8,0.527
35.1,31929.5,34624.8,-0.3562,-0.9202,144.8,96.8,0.527
35.12,31751.3,34651.8,-1.2452,-0.8539,144.8,96.8,0.527
35.14,31740.2,34479.4,-1.3006,-1.2773,144.8,96.8,0.527
35.16,31782.7,34472.2,-1.0884,-1.2949,144.8,96.8,0.527
35.18,31732.7,34529.4,-1.3379,-1.1544,144.8,96.8,0.527
35.2,31850.1,34684.4,-0.7524,-0.7738,144.8,96.8,0.527
35.22,31875.9,34978.8,-0.6237,-0.0511,144.8,96.8,0.527
35.24,32172.2,35345.2,0.8542,0.8485,144.8,96.8,0.527
35.26,32391.0,35686.5,1.9452,1.6864,144.8,96.8,0.527
35.28,32292.3,35719.8,1.4531,1.7682,144.8,96.8,0.527
35.3,32272.9,35735.2,1.3566,1.806,144.8,96.8,0.527
35.32,32201.0,35527.7,0.9976,1.2966,144.8,96.8,0.527
35.34,32096.2,35329.1,0.4753,0.8089,144.8,96.8,0.527
35.36,32029.3,35159.9,0.1415,0.3935,144.8,96.8,0.527
35.38,32006.4,35066.7,0.0274,0.1647,144.8,96.8,0.527
35.4,31999.7,35050.2,-0.0063,0.1241,144.8,96.8,0.527
35.42,31975.3,34930.9,-0.1281,-0.1688,144.8,96.8,0.527
35.44,32036.1,34878.4,0.1756,-0.2977,144.8,96.8,0.527
35.46,31878.5,34715.2,-0.6107,-0.6983,144.8,96.8,0.527
35.48,31809.5,34727.4,-0.9547,-0.6684,144.8,96.8,0.527
35.5,31768.9,34621.2,-1.1573,-0.9291,144.8,96.8,0.527
35.52,31777.5,34544.0,-1.1143,-1.1188,144.8,96.8,0.527
35.54,31788.4,34589.4,-1.0603,-1.0072,144.8,96.8,0.527
35.56,31766.6,34509.5,-1.1687,-1.2034,144.8,96.8,0.527
35.58,31682.1,34500.2,-1.5901,-1.2263,144.8,96.8,0.527
35.6,31708.2,34661.0,-1.4599,-0.8315,144.8,96.8,0.527
35.62,31953.7,34652.2,-0.2356,-0.853,144.8,96.8,0.527
35.64,32063.2,35117.5,0.3103,0.2895,144.8,96.8,0.527
35.66,32309.7,35434.6,1.54,1.0681,144.8,96.8,0.527
35.68,32342.3,35622.6,1.7027,1.5296,144.8,96.8,0.527
35.7,32368.2,35755.2,1.8316,1.855,144.8,96.8,0.527
35.72,32242.1,35490.2,1.2026,1.2046,144.8,96.8,0.527
35.74,32202.4,35480.8,1.005,1.1813,144.8,96.8,0.527
35.76,32193.8,35289.4,0.9618,0.7114,144.8,96.8,0.527
35.78,32069.7,35132.3,0.343,0.3257,144.8,96.8,0.527
35.8,32000.1,35031.2,-0.0043,0.0776,144.8,96.8,0.527
35.82,32004.7,34965.0,0.0189,-0.0849,144.8,96.8,0.527
35.84,31971.8,34879.3,-0.1454,-0.2955,144.8,96.8,0.527
35.86,31948.5,34757.4,-0.2615,-0.5947,144.8,96.8,0.527
35.88,31951.6,34818.0,-0.2461,-0.446,144.8,96.8,0.527
35.9,31768.0,34727.5,-1.162,-0.6681,144.8,96.8,0.527
35.92,31792.2,34622.6,-1.0411,-0.9257,144.8,96.8,0.527
35.94,31782.8,34610.5,-1.0881,-0.9553,144.8,96.8,0.527
35.96,31826.1,34512.6,-0.872,-1.1958,144.8,96.8,0.527
35.98,31802.7,34558.2,-0.9885,-1.0838,144.8,96.8,0.527
36.0,31788.6,34451.1,-1.059,-1.3468,144.8,96.8,0.527
36.02,31869.4,34616.5,-0.6561,-0.9406,144.8,96.8,0.527
36.04,32032.2,34780.3,0.156,-0.5385,144.8,96.8,0.527
36.06,32090.2,35172.0,0.4451,0.4231,144.8,96.8,0.527
36.08,32287.1,35519.7,1.4274,1.277,144.8,96.8,0.527
36.1,32393.2,35738.1,1.9564,1.8131,144.8,96.8,0.527
36.12,32365.4,35697.8,1.8177,1.7141,144.8,96.8,0.527
36.14,32256.7,35550.9,1.2756,1.3535,144.8,96.8,0.527
36.16,32221.3,35348.1,1.0991,0.8555,144.8,96.8,0.527
36.18,32047.3,35206.5,0.2314,0.508,144.8,96.8,0.527
36.2,31998.2,35107.2,-0.0139,0.264,144.8,96.8,0.527
36.22,32102.2,35034.0,0.5048,0.0844,144.8,96.8,0.527
36.24,31949.8,35093.7,-0.2552,0.2309,144.8,96.8,0.527
36.26,31899.9,34961.4,-0.5038,-0.0939,144.8,96.8,0.527
36.28,31947.5,34759.4,-0.2663,-0.5897,144.8,96.8,0.527
36.3,31872.1,34760.1,-0.6423,-0.5881,144.8,96.8,0.527
36.32,31777.1,34651.2,-1.1164,-0.8553,144.8,96.8,0.527
36.34,31870.2,34692.7,-0.6519,-0.7536,144.8,96.8,0.527
36.36,31873.7,34551.2,-0.6345,-1.1009,144.8,96.8,0.527
36.38,31748.6,34527.1,-1.2584,-1.1602,144.8,96.8,0.527
36.4,31739.9,34491.5,-1.3017,-1.2474,144.8,96.8,0.527
36.42,31714.3,34515.0,-1.4297,-1.1899,144.8,96.8,0.527
36.44,31801.9,34585.6,-0.9924,-1.0165,144.8,96.8,0.527
36.46,31930.8,34972.9,-0.3498,-0.0656,144.8,96.8,0.527
36.48,32136.0,35279.7,0.6736,0.6877,144.8,96.8,0.527
36.5,32176.0,35681.2,0.8733,1.6733,144.8,96.8,0.527
36.52,32278.3,35691.2,1.3833,1.698,144.8,96.8,0.527
36.54,32357.3,35682.9,1.7771,1.6775,144.8,96.8,0.527
36.56,32242.7,35572.2,1.2057,1.4058,144.8,96.8,0.527
36.58,32117.8,35182.5,0.5828,0.4489,144.8,96.8,0.527
36.6,32144.9,35238.9,0.7182,0.5875,144.8,96.8,0.527
36.62,32078.2,35048.5,0.3852,0.12,144.8,96.8,0.527
36.64,31974.5,35003.5,-0.1316,0.0095,144.8,96.8,0.527
36.66,32001.1,34995.5,0.001,-0.0101,144.8,96.8,0.527
36.68,31927.0,34861.8,-0.3687,-0.3385,144.8,96.8,0.527
36.7,31851.4,34728.4,-0.7456,-0.6658,144.8,96.8,0.527
36.72,31783.6,34717.7,-1.0837,-0.6922,144.8,96.8,0.527
36.74,31875.9,34618.7,-0.6234,-0.9353,144.8,96.8,0.527
36.76,31814.3,34578.9,-0.9308,-1.033,144.8,96.8,0.527
36.78,31816.9,34576.0,-0.9181,-1.04,144.8,96.8,0.527
36.8,31805.4,34507.1,-0.9752,-1.2093,144.8,96.8,0.527
36.82,31735.5,34500.9,-1.3237,-1.2244,144.8,96.8,0.527
36.84,31803.1,34398.6,-0.9868,-1.4756,144.8,96.8,0.527
36.86,31926.0,34718.7,-0.3739,-0.6898,144.8,96.8,0.527
36.88,31984.1,34890.9,-0.0842,-0.267,144.8,96.8,0.527
36.9,32195.1,35400.0,0.9686,0.9829,144.8,96.8,0.527
36.92,32233.1,35762.4,1.1579,1.8726,144.8,96.8,0.527
36.94,32495.5,35720.2,2.4665,1.7691,144.8,96.8,0.527
36.96,32338.8,35585.2,1.685,1.4376,144.8,96.8,0.527
36.98,32316.9,35420.0,1.576,1.0322,144.8,96.8,0.527
37.0,32117.6,35352.7,0.5816,0.8669,144.8,96.8,0.527
37.02,32050.1,35111.2,0.2451,0.2739,144.8,96.8,0.527
37.04,32004.3,35064.7,0.0166,0.1598,144.8,96.8,0.527
37.06,32042.1,35051.0,0.2053,0.1263,144.8,96.8,0.527
37.08,32059.3,34960.1,0.291,-0.0969,144.8,96.8,0.527
37.1,31965.3,34806.3,-0.1777,-0.4747,144.8,96.8,0.527
37.12,31843.2,34710.0,-0.7868,-0.711,144.8,96.8,0.527
37.14,31880.3,34720.1,-0.6014,-0.6862,144.8,96.8,0.527
37.16,31732.6,34681.9,-1.3383,-0.78,144.8,96.8,0.527
37.18,31831.3,34668.1,-0.846,-0.8139,144.8,96.8,0.527
37.2,31755.1,34503.6,-1.2262,-1.2179,144.8,96.8,0.527
37.22,31787.0,34443.2,-1.0668,-1.3662,144.8,96.8,0.527
37.24,31763.9,34495.8,-1.1823,-1.2369,144.8,96.8,0.527
37.26,31824.1,34534.8,-0.8822,-1.1413,144.8,96.8,0.527
37.28,31936.2,34791.1,-0.3229,-0.5121,144.8,96.8,0.527
37.3,32081.7,35142.3,0.403,0.3503,144.8,96.8,0.527
37.32,32329.4,35529.8,1.6384,1.3016,144.8,96.8,0.527
37.34,32412.6,35670.0,2.0529,1.6458,144.8,96.8,0.527
37.36,32278.6,35749.4,1.3849,1.8409,144.8,96.8,0.527
37.38,32395.7,35536.6,1.969,1.3183,144.8,96.8,0.527
37.4,32228.5,35299.9,1.1349,0.7372,144.8,96.8,0.527
37.42,32079.6,35159.9,0.3924,0.3934,144.8,96.8,0.527
37.44,32099.6,35138.6,0.4918,0.3413,144.8,96.8,0.527
37.46,32044.1,35104.4,0.2152,0.2573,144.8,96.8,0.527
37.48,32031.7,35078.6,0.1534,0.1939,144.8,96.8,0.527
37.5,32127.0,34936.5,0.6289,-0.155,144.8,96.8,0.527
37.52,31942.0,34740.8,-0.2941,-0.6355,144.8,96.8,0.527
37.54,31838.6,34691.4,-0.8096,-0.7568,144.8,96.8,0.527
37.56,31755.0,34786.4,-1.2266,-0.5236,144.8,96.8,0.527
37.58,31823.5,34642.4,-0.885,-0.8771,144.8,96.8,0.527
37.6,31745.2,34561.2,-1.2757,-1.0765,144.8,96.8,0.527
37.62,31832.6,34558.7,-0.8393,-1.0826,144.8,96.8,0.527
37.64,31891.3,34451.4,-0.5467,-1.3459,144.8,96.8,0.527
37.66,31705.5,34477.1,-1.4734,-1.2829,144.8,96.8,0.527
37.68,31768.2,34609.6,-1.1609,-0.9576,144.8,96.8,0.527
37.7,32007.2,34828.0,0.0312,-0.4214,144.8,96.8,0.527
37.72,32077.9,35222.4,0.384,0.547,144.8,96.8,0.527
37.74,32262.3,35571.0,1.3035,1.4029,144.8,96.8,0.527
37.76,32359.8,35762.7,1.7897,1.8736,144.8,96.8,0.527
37.78,32276.4,35836.5,1.3739,2.0547,144.8,96.8,0.527
37.8,32335.3,35550.4,1.6675,1.3522,144.8,96.8,0.527
37.82,32101.1,35366.4,0.4995,0.9005,144.8,96.8,0.527
37.84,32147.7,35235.9,0.7322,0.5801,144.8,96.8,0.527
37.86,32063.3,35183.7,0.3109,0.452,144.8,96.8,0.527
37.88,31944.1,35111.6,-0.2833,0.2748,144.8,96.8,0.527
37.9,31997.5,35022.2,-0.0173,0.0554,144.8,96.8,0.527
37.92,31937.4,34968.5,-0.3169,-0.0763,144.8,96.8,0.527
37.94,31957.0,34779.8,-0.2191,-0.5398,144.8,96.8,0.527
37.96,31831.0,34757.1,-0.8475,-0.5954,144.8,96.8,0.527
37.98,31885.4,34627.5,-0.5762,-0.9137,144.8,96.8,0.527
38.0,31775.7,34690.6,-1.1235,-0.7587,144.8,96.8,0.527
38.02,31823.9,34651.4,-0.8831,-0.8549,144.8,96.8,0.527
38.04,31706.0,34510.4,-1.4709,-1.2011,144.8,96.8,0.527
38.06,31698.8,34568.5,-1.5067,-1.0585,144.8,96.8,0.527
38.08,31789.3,34430.1,-1.0553,-1.3982,144.8,96.8,0.527
38.1,31829.2,34722.0,-0.8567,-0.6817,144.8,96.8,0.527
38.12,32008.9,34972.3,0.0397,-0.0671,144.8,96.8,0.527
38.14,32178.1,35343.8,0.8836,0.845,144.8,96.8,0.527
38.16,32295.7,35685.8,1.4702,1.6848,144.8,96.8,0.527
38.18,32328.9,35721.8,1.6355,1.7731,144.8,96.8,0.527
38.2,32341.4,35728.5,1.6982,1.7895,144.8,96.8,0.527
38.22,32228.3,35489.3,1.134,1.2023,144.8,96.8,0.527
38.24,32231.0,35285.0,1.1475,0.7008,144.8,96.8,0.527
38.26,32075.5,35204.3,0.3718,0.5025,144.8,96.8,0.527
38.28,32105.1,35016.7,0.5193,0.0418,144.8,96.8,0.527
38.3,31970.1,35171.5,-0.1536,0.4219,144.8,96.8,0.527
38.32,31965.1,34917.0,-0.1786,-0.2028,144.8,96.8,0.527
38.34,31947.7,34935.3,-0.2656,-0.158,144.8,96.8,0.527
38.36,31858.1,34764.8,-0.7125,-0.5765,144.8,96.8,0.527
38.38,31858.5,34686.7,-0.7105,-0.7683,144.8,96.8,0.527
38.4,31937.3,34676.7,-0.3173,-0.7929,144.8,96.8,0.527
38.42,31834.6,34652.8,-0.8297,-0.8515,144.8,96.8,0.527
38.44,31879.3,34528.8,-0.6064,-1.1559,144.8,96.8,0.527
38.46,31753.8,34463.4,-1.2328,-1.3166,144.8,96.8,0.527
38.48,31674.7,34381.8,-1.6272,-1.5168,144.8,96.8,0.527
38.5,31678.4,34548.8,-1.6086,-1.1067,144.8,96.8,0.527
38.52,31803.6,34723.2,-0.9842,-0.6787,144.8,96.8,0.527
38.54,32051.7,35027.7,0.2533,0.0689,144.8,96.8,0.527
38.56,32218.5,35443.5,1.085,1.0898,144.8,96.8,0.527
38.58,32397.5,35641.0,1.9776,1.5746,144.8,96.8,0.527
38.6,32306.6,35738.9,1.5247,1.815,144.8,96.8,0.527
38.62,32247.3,35674.2,1.2285,1.6562,144.8,96.8,0.527
38.64,32240.5,35415.0,1.195,1.0199,144.8,96.8,0.527
38.66,32143.2,35234.2,0.7094,0.5758,144.8,96.8,0.527
38.68,32142.5,35092.3,0.7059,0.2275,144.8,96.8,0.527
38.7,32119.7,35180.1,0.5923,0.4432,144.8,96.8,0.527
38.72,32073.3,35013.4,0.3609,0.0339,144.8,96.8,0.527
38.74,32031.9,34934.2,0.1545,-0.1607,144.8,96.8,0.527
38.76,31915.2,34889.1,-0.4274,-0.2713,144.8,96.8,0.527
38.78,31698.3,34772.0,-1.5092,-0.5588,144.8,96.8,0.527
38.8,31841.2,34786.9,-0.7966,-0.5222,144.8,96.8,0.527
38.82,31727.2,34758.1,-1.365,-0.5929,144.8,96.8,0.527
38.84,31815.9,34548.6,-0.9231,-1.1074,144.8,96.8,0.527
38.86,31933.7,34711.2,-0.3356,-0.7081,144.8,96.8,0.527
38.88,31704.1,34575.7,-1.4805,-1.0407,144.8,96.8,0.527
38.9,31746.2,34376.9,-1.2705,-1.5289,144.8,96.8,0.527
38.92,31689.3,34550.7,-1.5545,-1.1023,144.8,96.8,0.527
38.94,31943.2,34754.2,-0.2881,-0.6025,144.8,96.8,0.527
38.96,32137.2,35197.1,0.6798,0.4848,144.8,96.8,0.527
38.98,32338.8,35493.8,1.6852,1.2133,144.8,96.8,0.527
39.0,32354.3,35639.9,1.7623,1.5719,144.8,96.8,0.527
39.02,32305.5,35798.7,1.5192,1.9618,144.8,96.8,0.527
39.04,32313.0,35451.0,1.5564,1.1082,144.8,96.8,0.527
39.06,32248.2,35348.1,1.2332,0.8557,144.8,96.8,0.527
39.08,32086.7,35217.9,0.4275,0.5359,144.8,96.8,0.527
39.1,32015.3,35052.9,0.0715,0.1307,144.8,96.8,0.527
39.12,32052.3,35139.4,0.2562,0.3431,144.8,96.8,0.527
39.14,32049.9,35049.1,0.244,0.1214,144.8,96.8,0.527
39.16,31972.1,34892.1,-0.1436,-0.2641,144.8,96.8,0.527
39.18,31931.0,34818.8,-0.3486,-0.444,144.8,96.8,0.527
39.2,31869.1,34726.6,-0.6577,-0.6703,144.8,96.8,0.527
39.22,31850.1,34667.6,-0.7525,-0.8152,144.8,96.8,0.527
39.24,31881.4,34658.3,-0.5961,-0.838,144.8,96.8,0.527
39.26,31847.0,34615.6,-0.7679,-0.9428,144.8,96.8,0.527
39.28,31819.0,34609.5,-0.9075,-0.9578,144.8,96.8,0.527
39.3,31741.5,34508.5,-1.2938,-1.2057,144.8,96.8,0.527
39.32,31631.7,34300.2,-1.8414,-1.7173,144.8,96.8,0.527
39.34,31771.8,34506.0,-1.1429,-1.2121,144.8,96.8,0.527
39.36,31879.4,34816.8,-0.6062,-0.4489,144.8,96.8,0.527
39.38,32117.7,35357.6,0.5823,0.879,144.8,96.8,0.527
39.4,32243.1,35636.7,1.2077,1.564,144.8,96.8,0.527
39.42,32349.8,35832.3,1.7399,2.0444,144.8,96.8,0.527
39.44,32420.1,35771.5,2.0907,1.8952,144.8,96.8,0.527
39.46,32282.5,35498.4,1.4044,1.2245,144.8,96.8,0.527
39.48,32179.7,35340.9,0.8916,0.8378,144.8,96.8,0.527
39.5,32140.5,35181.8,0.6959,0.4472,144.8,96.8,0.527
39.52,32119.4,35093.2,0.5907,0.2297,144.8,96.8,0.527
39.54,31982.7,35047.4,-0.0911,0.1174,144.8,96.8,0.527
39.56,31978.6,34989.5,-0.1112,-0.0248,144.8,96.8,0.527
39.58,31996.2,34978.6,-0.0238,-0.0515,144.8,96.8,0.527
39.6,31911.5,34845.8,-0.4461,-0.3776,144.8,96.8,0.527
39.62,31859.9,34672.6,-0.7035,-0.8028,144.8,96.8,0.527
39.64,31838.8,34761.0,-0.8085,-0.5858,144.8,96.8,0.527
39.66,31788.2,34622.3,-1.0609,-0.9265,144.8,96.8,0.527
39.68,31880.5,34568.8,-0.6009,-1.0578,144.8,96.8,0.527
39.7,31825.8,34583.7,-0.8737,-1.0211,144.8,96.8,0.527
39.72,31736.0,34449.6,-1.3213,-1.3505,144.8,96.8,0.527
39.74,31818.3,34519.4,-0.9109,-1.1791,144.8,96.8,0.527
39.76,31861.5,34663.1,-0.6956,-0.8261,144.8,96.8,0.527
39.78,32001.2,35022.1,0.0011,0.0553,144.8,96.8,0.527
39.8,32167.5,35376.4,0.8308,0.925,144.8,96.8,0.527
39.82,32297.2,35605.1,1.4774,1.4865,144.8,96.8,0.527
39.84,32350.0,35810.8,1.7408,1.9916,144.8,96.8,0.527
39.86,32302.8,35733.5,1.5053,1.8019,144.8,96.8,0.527
39.88,32261.8,35487.4,1.3013,1.1977,144.8,96.8,0.527
39.9,32147.1,35304.5,0.7287,0.7486,144.8,96.8,0.527
39.92,32087.9,35244.7,0.434,0.6017,144.8,96.8,0.527
39.94,31953.6,35163.7,-0.2362,0.4028,144.8,96.8,0.527
39.96,31940.5,34996.5,-0.3012,-0.0077,144.8,96.8,0.527
39.98,31949.5,35047.2,-0.2566,0.1169,144.8,96.8,0.527
40.0,31842.0,34898.7,-0.7929,-0.2477,144.8,96.8,0.527
40.02,31867.1,34766.7,-0.6675,-0.5718,144.8,96.8,0.527
40.04,31784.6,34743.9,-1.0788,-0.6278,144.8,96.8,0.527
40.06,31849.7,34578.5,-0.7545,-1.0339,144.8,96.8,0.527
40.08,31835.2,34656.7,-0.8268,-0.8419,144.8,96.8,0.527
40.1,31671.1,34602.5,-1.6452,-0.9751,144.8,96.8,0.527
40.12,31679.1,34495.8,-1.605,-1.237,144.8,96.8,0.527
40.14,31803.7,34381.5,-0.9835,-1.5177,144.8,96.8,0.527
40.16,31921.6,34545.4,-0.3958,-1.1152,144.8,96.8,0.527
40.18,31966.0,34713.6,-0.1741,-0.7021,144.8,96.8,0.527
40.2,32051.3,35055.2,0.251,0.1363,144.8,96.8,0.527
40.22,32234.5,35513.6,1.1647,1.262,144.8,96.8,0.527
40.24,32409.5,35703.7,2.0378,1.7286,144.8,96.8,0.527
40.26,32438.6,35747.5,2.1827,1.8362,144.8,96.8,0.527
40.28,32288.5,35661.7,1.4344,1.6254,144.8,96.8,0.527
40.3,32116.3,35412.6,0.5755,1.014,144.8,96.8,0.527
40.32,32118.6,35297.0,0.587,0.7301,144.8,96.8,0.527
40.34,32055.8,35150.6,0.2739,0.3706,144.8,96.8,0.527
40.36,31966.9,35071.9,-0.1696,0.1775,144.8,96.8,0.527
40.38,31980.5,35085.8,-0.1019,0.2116,144.8,96.8,0.527
40.4,31949.5,34953.2,-0.2568,-0.1139,144.8,96.8,0.527
40.42,31938.3,34810.5,-0.3122,-0.4643,144.8,96.8,0.527
40.44,31857.0,34795.9,-0.7177,-0.5003,144.8,96.8,0.527
40.46,31938.0,34635.1,-0.314,-0.895,144.8,96.8,0.527
40.48,31853.8,34647.7,-0.7339,-0.864,144.8,96.8,0.527
40.5,31804.9,34674.7,-0.9776,-0.7978,144.8,96.8,0.527
40.52,31825.6,34598.4,-0.8744,-0.9852,144.8,96.8,0.527
40.54,31798.1,34480.2,-1.0114,-1.2752,144.8,96.8,0.527
40.56,31760.8,34512.8,-1.1979,-1.1952,144.8,96.8,0.527
40.58,31774.4,34512.0,-1.1298,-1.1971,144.8,96.8,0.527
40.6,31950.2,34849.8,-0.2533,-0.3679,144.8,96.8,0.527
40.62,32096.4,35193.6,0.4763,0.4763,144.8,96.8,0.527
40.64,32342.1,35533.7,1.7014,1.3113,144.8,96.8,0.527
40.66,32381.9,35810.6,1.9001,1.9911,144.8,96.8,0.527
40.68,32384.9,35705.6,1.9148,1.7334,144.8,96.8,0.527
40.7,32258.6,35661.0,1.2851,1.6237,144.8,96.8,0.527
40.72,32238.8,35410.8,1.1863,1.0095,144.8,96.8,0.527
40.74,32112.6,35201.4,0.5571,0.4953,144.8,96.8,0.527
40.76,32056.0,35199.1,0.2745,0.4896,144.8,96.8,0.527
40.78,31996.8,35082.8,-0.0207,0.2042,144.8,96.8,0.527
40.8,32054.6,35021.7,0.2676,0.0541,144.8,96.8,0.527
40.82,31979.9,34937.6,-0.105,-0.1523,144.8,96.8,0.527
40.84,31910.3,34703.5,-0.4523,-0.727,144.8,96.8,0.527
40.86,31856.9,34713.8,-0.7185,-0.7016,144.8,96.8,0.527
40.88,31783.2,34693.3,-1.0858,-0.7522,144.8,96.8,0.527
40.9,31908.8,34656.7,-0.4596,-0.8419,144.8,96.8,0.527
40.92,31845.1,34722.6,-0.777,-0.6802,144.8,96.8,0.527
40.94,31791.8,34524.2,-1.0431,-1.1672,144.8,96.8,0.527
40.96,31772.3,34574.8,-1.1403,-1.043,144.8,96.8,0.527
40.98,31806.1,34487.5,-0.9719,-1.2573,144.8,96.8,0.527
41.0,31870.6,34690.9,-0.6499,-0.7581,144.8,96.8,0.527
41.02,31976.0,34814.0,-0.1243,-0.4557,144.8,96.8,0.527
41.04,32212.6,35398.8,1.0558,0.9801,144.8,96.8,0.527
41.06,32274.4,35598.0,1.3638,1.4692,144.8,96.8,0.527
41.08,32326.5,35747.3,1.6239,1.8356,144.8,96.8,0.527
41.1,32275.5,35758.6,1.3695,1.8635,144.8,96.8,0.527
41.12,32248.7,35493.9,1.2359,1.2135,144.8,96.8,0.527
41.14,32049.7,35314.6,0.2433,0.7734,144.8,96.8,0.527
41.16,32130.4,35194.0,0.6455,0.4771,144.8,96.8,0.527
41.18,32037.7,35127.8,0.1833,0.3147,144.8,96.8,0.527
41.2,31960.6,35020.9,-0.2013,0.0522,144.8,96.8,0.527
41.22,31926.2,34989.9,-0.3729,-0.0238,144.8,96.8,0.527
41.24,32024.4,34878.9,0.1172,-0.2963,144.8,96.8,0.527
41.26,31880.2,34741.1,-0.6024,-0.6348,144.8,96.8,0.527
41.28,31877.2,34711.4,-0.6172,-0.7077,144.8,96.8,0.527
41.3,31852.2,34704.4,-0.7419,-0.7249,144.8,96.8,0.527
41.32,31819.2,34592.5,-0.9063,-0.9995,144.8,96.8,0.527
41.34,31802.4,34651.4,-0.9901,-0.8549,144.8,96.8,0.527
41.36,31844.2,34607.1,-0.7819,-0.9638,144.8,96.8,0.527
41.38,31818.0,34548.5,-0.9125,-1.1076,144.8,96.8,0.527
41.4,31738.5,34410.7,-1.3087,-1.4458,144.8,96.8,0.527
41.42,31784.1,34716.4,-1.0817,-0.6954,144.8,96.8,0.527
41.44,32036.9,35081.6,0.1795,0.2013,144.8,96.8,0.527
41.46,32219.4,35445.5,1.0896,1.0947,144.8,96.8,0.527
41.48,32400.0,35751.2,1.9901,1.8452,144.8,96.8,0.527
41.5,32387.7,35829.6,1.9288,2.0378,144.8,96.8,0.527
41.52,32284.0,35669.5,1.4118,1.6446,144.8,96.8,0.527
41.54,32210.8,35400.8,1.0468,0.9849,144.8,96.8,0.527
41.56,32058.0,35269.9,0.2847,0.6636,144.8,96.8,0.527
41.58,32020.8,35144.8,0.0988,0.3565,144.8,96.8,0.527
41.6,32024.2,35028.6,0.1158,0.0711,144.8,96.8,0.527
41.62,32013.0,34993.6,0.0602,-0.0147,144.8,96.8,0.527
41.64,32008.4,34963.1,0.0375,-0.0896,144.8,96.8,0.527
41.66,31954.6,34909.9,-0.2309,-0.2203,144.8,96.8,0.527
41.68,31789.4,34747.7,-1.055,-0.6185,144.8,96.8,0.527
41.7,31911.4,34574.8,-0.4467,-1.043,144.8,96.8,0.527
41.72,31828.2,34624.4,-0.8616,-0.9212,144.8,96.8,0.527
41.74,31883.6,34687.0,-0.5851,-0.7676,144.8,96.8,0.527
41.76,31785.9,34615.9,-1.0726,-0.9422,144.8,96.8,0.527
41.78,31726.9,34435.0,-1.3665,-1.3862,144.8,96.8,0.527
41.8,31674.3,34480.8,-1.6293,-1.2739,144.8,96.8,0.527
41.82,31807.8,34494.4,-0.963,-1.2404,144.8,96.8,0.527
41.84,31878.5,34741.7,-0.6107,-0.6333,144.8,96.8,0.527
41.86,32016.4,35061.3,0.0773,0.1515,144.8,96.8,0.527
41.88,32303.9,35606.6,1.5109,1.4903,144.8,96.8,0.527
41.9,32316.5,35780.2,1.5738,1.9165,144.8,96.8,0.527
41.92,32309.2,35707.3,1.5375,1.7376,144.8,96.8,0.527
41.94,32257.8,35562.1,1.2813,1.381,144.8,96.8,0.527
41.96,32132.4,35349.3,0.6555,0.8586,144.8,96.8,0.527
41.98,32092.0,35274.7,0.4539,0.6753,144.8,96.8,0.527
42.0,32040.7,35109.1,0.1985,0.2689,144.8,96.8,0.527
42.02,32024.1,35069.3,0.1157,0.1712,144.8,96.8,0.527
42.04,31994.6,34998.8,-0.0315,-0.0019,144.8,96.8,0.527
42.06,31990.3,34961.7,-0.053,-0.093,144.8,96.8,0.527
42.08,31827.0,34803.5,-0.8673,-0.4816,144.8,96.8,0.527
42.1,31910.3,34773.2,-0.4522,-0.556,144.8,96.8,0.527
42.12,31865.0,34741.9,-0.6781,-0.6326,144.8,96.8,0.527
42.14,31876.8,34659.7,-0.619,-0.8346,144.8,96.8,0.527
42.16,31917.9,34598.3,-0.4143,-0.9854,144.8,96.8,0.527
42.18,31824.1,34574.6,-0.8821,-1.0435,144.8,96.8,0.527
42.2,31678.4,34494.4,-1.6087,-1.2403,144.8,96.8,0.527
42.22,31770.7,34478.2,-1.1483,-1.2803,144.8,96.8,0.527
42.24,31894.2,34650.9,-0.5325,-0.8561,144.8,96.8,0.527
42.26,31951.0,34852.2,-0.2492,-0.362,144.8,96.8,0.527
42.28,32087.2,35250.7,0.4305,0.6163,144.8,96.8,0.527
42.3,32269.8,35557.5,1.3407,1.3696,144.8,96.8,0.527
42.32,32435.8,35733.7,2.1688,1.8022,144.8,96.8,0.527
42.34,32305.5,35716.5,1.519,1.76,144.8,96.8,0.527
42.36,32238.4,35474.8,1.1843,1.1665,144.8,96.8,0.527
42.38,32175.2,35328.2,0.8692,0.8067,144.8,96.8,0.527
42.4,32074.2,35181.1,0.3652,0.4455,144.8,96.8,0.527
42.42,32008.1,35007.1,0.0359,0.0183,144.8,96.8,0.527
42.44,32017.5,35130.6,0.0828,0.3215,144.8,96.8,0.527
42.46,31974.0,34998.3,-0.1344,-0.0032,144.8,96.8,0.527
42.48,32000.9,34854.9,-0.0003,-0.3554,144.8,96.8,0.527
42.5,31795.6,34805.8,-1.0239,-0.4758,144.8,96.8,0.527
42.52,31844.9,34664.9,-0.7783,-0.8218,144.8,96.8,0.527
42.54,31714.5,34705.7,-1.4285,-0.7216,144.8,96.8,0.527
42.56,31801.4,34583.0,-0.9953,-1.0229,144.8,96.8,0.527
42.58,31858.3,34611.5,-0.7113,-0.9529,144.8,96.8,0.527
42.6,31690.3,34522.9,-1.5493,-1.1706,144.8,96.8,0.527
42.62,31759.0,34395.3,-1.2064,-1.4837,144.8,96.8,0.527
42.64,31763.3,34457.2,-1.1852,-1.3318,144.8,96.8,0.527
42.66,31876.8,34611.3,-0.6191,-0.9534,144.8,96.8,0.527
42.68,32020.1,34979.0,0.0958,-0.0506,144.8,96.8,0.527
42.7,32174.7,35330.4,0.8665,0.8122,144.8,96.8,0.527
42.72,32261.6,35644.1,1.3,1.5823,144.8,96.8,0.527
42.74,32382.2,35790.8,1.9017,1.9425,144.8,96.8,0.527
42.76,32302.4,35621.7,1.5033,1.5273,144.8,96.8,0.527
42.78,32249.2,35552.0,1.238,1.3562,144.8,96.8,0.527
42.8,32212.2,35374.1,1.0537,0.9195,144.8,96.8,0.527
42.82,32095.7,35194.7,0.4728,0.4789,144.8,96.8,0.527
42.84,32122.7,35043.2,0.6074,0.1071,144.8,96.8,0.527
42.86,32086.2,35052.0,0.4254,0.1286,144.8,96.8,0.527
42.88,31996.2,34944.0,-0.0234,-0.1366,144.8,96.8,0.527
42.9,31982.0,34917.2,-0.0946,-0.2023,144.8,96.8,0.527
42.92,31888.3,34724.2,-0.5618,-0.6763,144.8,96.8,0.527
42.94,31817.2,34612.1,-0.9166,-0.9514,144.8,96.8,0.527
42.96,31822.4,34712.5,-0.8904,-0.705,144.8,96.8,0.527
42.98,31836.0,34639.9,-0.8228,-0.8833,144.8,96.8,0.527
43.0,31841.4,34670.0,-0.7957,-0.8093,144.8,96.8,0.527
43.02,31751.1,34646.9,-1.2463,-0.866,144.8,96.8,0.527
43.04,31746.1,34466.0,-1.271,-1.3102,144.8,96.8,0.527
43.06,31757.7,34475.1,-1.2131,-1.2877,144.8,96.8,0.527
43.08,31919.0,34812.6,-0.4089,-0.4591,144.8,96.8,0.527
43.1,32039.9,35033.6,0.1941,0.0834,144.8,96.8,0.527
43.12,32075.3,35461.8,0.3709,1.1348,144.8,96.8,0.527
43.14,32360.7,35642.1,1.7945,1.5775,144.8,96.8,0.527
43.16,32326.0,35706.3,1.6214,1.7349,144.8,96.8,0.527
43.18,32317.5,35623.1,1.5789,1.5309,144.8,96.8,0.527
43.2,32189.2,35506.9,0.9389,1.2456,144.8,96.8,0.527
43.22,32096.3,35219.5,0.4756,0.5397,144.8,96.8,0.527
43.24,32094.8,35213.2,0.4682,0.5243,144.8,96.8,0.527
43.26,32033.1,35033.6,0.1605,0.0835,144.8,96.8,0.527
43.28,31992.0,34939.2,-0.0445,-0.1484,144.8,96.8,0.527
43.3,31869.8,34962.3,-0.6539,-0.0917,144.8,96.8,0.527
43.32,31920.4,34876.7,-0.4018,-0.3019,144.8,96.8,0.527
43.34,32025.4,34691.0,0.1221,-0.7577,144.8,96.8,0.527
43.36,31982.5,34688.2,-0.0918,-0.7646,144.8,96.8,0.527
43.38,31881.5,34597.0,-0.5958,-0.9885,144.8,96.8,0.527
43.4,31927.0,34688.2,-0.3688,-0.7647,144.8,96.8,0.527
43.42,31788.6,34578.0,-1.0589,-1.0352,144.8,96.8,0.527
43.44,31812.6,34495.8,-0.9394,-1.2371,144.8,96.8,0.527
43.46,31733.6,34452.4,-1.3334,-1.3435,144.8,96.8,0.527
43.48,31792.0,34612.5,-1.0418,-0.9503,144.8,96.8,0.527
43.5,32002.1,34809.9,0.0056,-0.4659,144.8,96.8,0.527
43.52,32112.3,35134.2,0.5554,0.3303,144.8,96.8,0.527
43.54,32304.0,35498.0,1.5114,1.2236,144.8,96.8,0.527
43.56,32414.0,35866.6,2.0604,2.1287,144.8,96.8,0.527
43.58,32333.7,35753.8,1.6597,1.8517,144.8,96.8,0.527
43.6,32284.0,35697.7,1.4117,1.7139,144.8,96.8,0.527
43.62,32195.2,35390.7,0.9691,0.9601,144.8,96.8,0.527
43.64,32153.1,35216.5,0.7589,0.5325,144.8,96.8,0.527
43.66,32016.9,35133.9,0.0795,0.3296,144.8,96.8,0.527
43.68,32022.6,35117.4,0.1081,0.289,144.8,96.8,0.527
43.7,32005.4,35025.2,0.0221,0.0628,144.8,96.8,0.527
43.72,31944.7,34973.3,-0.2802,-0.0646,144.8,96.8,0.527
43.74,31872.8,34808.2,-0.6389,-0.4701,144.8,96.8,0.527
43.76,31739.5,34837.2,-1.3038,-0.3988,144.8,96.8,0.527
43.78,31740.0,34655.2,-1.3013,-0.8456,144.8,96.8,0.527
43.8,31828.2,34677.0,-0.8616,-0.7921,144.8,96.8,0.527
43.82,31793.7,34487.6,-1.0337,-1.2572,144.8,96.8,0.527
43.84,31749.4,34556.9,-1.2547,-1.0869,144.8,96.8,0.527
43.86,31694.9,34428.7,-1.5261,-1.4017,144.8,96.8,0.527
43.88,31688.8,34464.4,-1.5569,-1.3141,144.8,96.8,0.527
43.9,31810.1,34644.5,-0.9517,-0.8718,144.8,96.8,0.527
43.92,31995.5,34861.0,-0.0273,-0.3402,144.8,96.8,0.527
43.94,32102.5,35180.5,0.5065,0.444,144.8,96.8,0.527
43.96,32323.6,35661.7,1.6091,1.6256,144.8,96.8,0.527
43.98,32394.4,35739.7,1.9622,1.817,144.8,96.8,0.527
44.0,32373.9,35614.5,1.8603,1.5096,144.8,96.8,0.527
44.02,32116.1,35532.5,0.5742,1.3084,144.8,96.8,0.527
44.04,32157.8,35315.3,0.7826,0.775,144.8,96.8,0.527
44.06,32115.6,35139.0,0.5717,0.3422,144.8,96.8,0.527
44.08,32034.7,35055.4,0.1683,0.1368,144.8,96.8,0.527
44.1,32079.5,35081.7,0.3919,0.2016,144.8,96.8,0.527
44.12,32015.9,35092.7,0.0747,0.2284,144.8,96.8,0.527
44.14,31890.9,34912.2,-0.5489,-0.2146,144.8,96.8,0.527
44.16,31847.6,34754.7,-0.7648,-0.6012,144.8,96.8,0.527
44.18,31798.0,34719.1,-1.0122,-0.6888,144.8,96.8,0.527
44.2,31830.0,34580.7,-0.8527,-1.0285,144.8,96.8,0.527
44.22,31838.4,34692.8,-0.8108,-0.7533,144.8,96.8,0.527
44.24,31790.5,34601.9,-1.0496,-0.9764,144.8,96.8,0.527
44.26,31836.9,34524.6,-0.8182,-1.1663,144.8,96.8,0.527
44.28,31695.0,34526.9,-1.5259,-1.1605,144.8,96.8,0.527
44.3,31754.1,34515.2,-1.2311,-1.1893,144.8,96.8,0.527
44.32,31859.4,34711.6,-0.7059,-0.7071,144.8,96.8,0.527
44.34,31981.7,34936.5,-0.0957,-0.155,144.8,96.8,0.527
44.36,32237.1,35423.5,1.1778,1.0407,144.8,96.8,0.527
44.38,32258.3,35671.5,1.2834,1.6496,144.8,96.8,0.527
44.4,32348.1,35796.5,1.7315,1.9565,144.8,96.8,0.527
44.42,32273.5,35641.3,1.3593,1.5755,144.8,96.8,0.527
44.44,32229.5,35533.7,1.1398,1.3112,144.8,96.8,0.527
44.46,32184.0,35287.3,0.9132,0.7062,144.8,96.8,0.527
44.48,32093.2,35216.4,0.4603,0.5321,144.8,96.8,0.527
44.5,31999.7,35092.5,-0.0063,0.2281,144.8,96.8,0.527
44.52,31976.5,35055.2,-0.1221,0.1365,144.8,96.8,0.527
44.54,32000.9,34991.8,-0.0003,-0.0193,144.8,96.8,0.527
44.56,31908.2,34803.4,-0.4628,-0.4818,144.8,96.8,0.527
44.58,31773.7,34764.5,-1.1335,-0.5773,144.8,96.8,0.527
44.6,31848.7,34687.9,-0.7591,-0.7655,144.8,96.8,0.527
44.62,31863.6,34675.6,-0.6848,-0.7955,144.8,96.8,0.527
44.64,31748.5,34572.2,-1.2591,-1.0494,144.8,96.8,0.527
44.66,31808.2,34500.4,-0.9611,-1.2256,144.8,96.8,0.527
44.68,31739.9,34537.5,-1.3018,-1.1346,144.8,96.8,0.527
44.7,31671.0,34414.4,-1.6454,-1.4367,144.8,96.8,0.527
44.72,31790.2,34471.0,-1.0508,-1.2979,144.8,96.8,0.527
44.74,31852.5,34750.3,-0.7401,-0.6122,144.8,96.8,0.527
44.76,32178.4,35122.3,0.8851,0.3012,144.8,96.8,0.527
44.78,32211.7,35409.3,1.051,1.0059,144.8,96.8,0.527
44.8,32317.6,35754.9,1.5794,1.8544,144.8,96.8,0.527
44.82,32402.5,35837.9,2.003,2.058,144.8,96.8,0.527
44.84,32379.9,35578.2,1.8899,1.4206,144.8,96.8,0.527
44.86,32193.2,35444.5,0.9587,1.0923,144.8,96.8,0.527
