timestamp,raw_red,raw_ir,filtered_red,filtered_ir,heart_rate,spo2,ac_dc_ratio
0.0,32085.0,35195.6,0.3328,0.4782,145.4,96.7,0.531
0.02,32180.3,35519.7,0.7136,1.2733,145.4,96.7,0.531
0.04,32421.8,35828.4,1.6793,2.0306,145.4,96.7,0.531
0.06,32362.4,35747.8,1.4416,1.8329,145.4,96.7,0.531
0.08,32321.9,35469.3,1.2798,1.1496,145.4,96.7,0.531
0.1,32077.5,35481.9,0.3028,1.1806,145.4,96.7,0.531
0.12,32075.0,35164.3,0.2928,0.4015,145.4,96.7,0.531
0.14,31991.1,35075.9,-0.0427,0.1846,145.4,96.7,0.531
0.16,32025.6,35115.2,0.0955,0.2809,145.4,96.7,0.531
0.18,32083.5,35001.9,0.3267,0.0029,145.4,96.7,0.531
0.2,31985.1,34904.9,-0.0667,-0.235,145.4,96.7,0.531
0.22,31889.1,34861.6,-0.4506,-0.3412,145.4,96.7,0.531
0.24,31872.3,34717.7,-0.5178,-0.6941,145.4,96.7,0.531
0.26,31773.7,34692.8,-0.9116,-0.7552,145.4,96.7,0.531
0.28,31823.8,34781.3,-0.7115,-0.5381,145.4,96.7,0.531
0.3,31811.4,34661.9,-0.7609,-0.831,145.4,96.7,0.531
0.32,31815.4,34490.5,-0.7452,-1.2514,145.4,96.7,0.531
0.34,31797.7,34410.9,-0.8157,-1.4468,145.4,96.7,0.531
0.36,31769.5,34449.7,-0.9284,-1.3514,145.4,96.7,0.531
0.38,31773.7,34630.4,-0.9116,-0.9083,145.4,96.7,0.531
0.4,31976.1,34895.4,-0.1026,-0.2583,145.4,96.7,0.531
0.42,32122.6,35332.4,0.4831,0.8138,145.4,96.7,0.531
0.44,32276.2,35617.5,1.097,1.5132,145.4,96.7,0.531
0.46,32398.8,35625.4,1.5875,1.5326,145.4,96.7,0.531
0.48,32262.3,35779.1,1.0418,1.9095,145.4,96.7,0.531
0.5,32287.7,35584.9,1.1433,1.4332,145.4,96.7,0.531
0.52,32156.6,35256.4,0.6191,0.6273,145.4,96.7,0.531
0.54,32104.1,35152.9,0.4093,0.3735,145.4,96.7,0.531
0.56,32086.5,35161.7,0.3386,0.395,145.4,96.7,0.531
0.58,32077.3,35004.5,0.3021,0.0094,145.4,96.7,0.531
0.6,32078.1,34898.6,0.305,-0.2504,145.4,96.7,0.531
0.62,31891.9,34892.3,-0.4394,-0.2657,145.4,96.7,0.531
0.64,31815.2,34692.1,-0.746,-0.7569,145.4,96.7,0.531
0.66,31840.1,34769.4,-0.6464,-0.5672,145.4,96.7,0.531
0.68,31814.6,34660.8,-0.7481,-0.8338,145.4,96.7,0.531
0.7,31829.2,34705.0,-0.6897,-0.7252,145.4,96.7,0.531
0.72,31771.1,34639.2,-0.9221,-0.8867,145.4,96.7,0.531
0.74,31780.7,34528.2,-0.8839,-1.1589,145.4,96.7,0.531
0.76,31665.5,34506.7,-1.3443,-1.2117,145.4,96.7,0.531
0.78,31797.5,34461.6,-0.8166,-1.3223,145.4,96.7,0.531
0.8,31925.6,34715.3,-0.3045,-0.7001,145.4,96.7,0.531
0.82,32041.1,35016.7,0.1572,0.0394,145.4,96.7,0.531
0.84,32132.8,35413.8,0.5237,1.0136,145.4,96.7,0.531
0.86,32385.9,35756.6,1.5357,1.8544,145.4,96.7,0.531
0.88,32343.2,35744.7,1.3649,1.8252,145.4,96.7,0.531
0.9,32332.0,35607.5,1.3201,1.4887,145.4,96.7,0.531
0.92,32198.8,35400.5,0.7877,0.9809,145.4,96.7,0.531
0.94,32158.4,35243.4,0.6262,0.5956,145.4,96.7,0.531
0.96,32098.2,34948.7,0.3854,-0.1274,145.4,96.7,0.531
0.98,31929.6,35149.3,-0.2885,0.3647,145.4,96.7,0.531
1.0,32073.2,35071.9,0.2856,0.1747,145.4,96.7,0.531
1.02,31927.7,34923.3,-0.2962,-0.1898,145.4,96.7,0.531
1.04,31884.8,34780.8,-0.4677,-0.5393,145.4,96.7,0.531
1.06,31828.6,34829.5,-0.6923,-0.4198,145.4,96.7,0.531
1.08,31886.7,34654.2,-0.4599,-0.85,145.4,96.7,0.531
1.1,31850.2,34615.4,-0.606,-0.9451,145.4,96.7,0.531
1.12,31872.6,34664.5,-0.5166,-0.8246,145.4,96.7,0.531
1.14,31792.9,34573.4,-0.8348,-1.0481,145.4,96.7,0.531
1.16,31831.9,34563.1,-0.6791,-1.0734,145.4,96.7,0.531
1.18,31753.0,34413.3,-0.9946,-1.4407,145.4,96.7,0.531
1.2,31811.1,34663.6,-0.7623,-0.8269,145.4,96.7,0.531
1.22,31893.7,34858.2,-0.4321,-0.3495,145.4,96.7,0.531
1.24,31989.5,35273.8,-0.0492,0.67,145.4,96.7,0.531
1.26,32251.3,35572.1,0.9977,1.4017,145.4,96.7,0.531
1.28,32358.1,35752.1,1.4247,1.8434,145.4,96.7,0.531
1.3,32333.0,35829.5,1.3241,2.0331,145.4,96.7,0.531
1.32,32351.8,35538.2,1.3995,1.3187,145.4,96.7,0.531
1.34,32160.4,35335.6,0.634,0.8217,145.4,96.7,0.531
1.36,32046.1,35229.9,0.1772,0.5623,145.4,96.7,0.531
1.38,32003.8,35054.4,0.008,0.1319,145.4,96.7,0.531
1.4,32031.3,34966.5,0.1181,-0.0839,145.4,96.7,0.531
1.42,32077.1,34992.3,0.3011,-0.0206,145.4,96.7,0.531
1.44,31933.3,34897.1,-0.2739,-0.254,145.4,96.7,0.531
1.46,31911.8,34691.3,-0.3596,-0.7588,145.4,96.7,0.531
1.48,31873.4,34642.0,-0.5133,-0.8797,145.4,96.7,0.531
1.5,31978.0,34696.6,-0.0951,-0.7459,145.4,96.7,0.531
1.52,31828.1,34532.8,-0.6944,-1.1477,145.4,96.7,0.531
1.54,31820.6,34638.0,-0.7243,-0.8895,145.4,96.7,0.531
1.56,31778.0,34543.9,-0.8947,-1.1204,145.4,96.7,0.531
1.58,31746.0,34319.3,-1.0227,-1.6714,145.4,96.7,0.531
1.6,31662.1,34394.5,-1.358,-1.4869,145.4,96.7,0.531
1.62,31865.1,34647.7,-0.5464,-0.8658,145.4,96.7,0.531
1.64,31946.4,34978.0,-0.2212,-0.0557,145.4,96.7,0.531
1.66,32171.1,35367.8,0.677,0.9005,145.4,96.7,0.531
1.68,32269.0,35679.8,1.0682,1.666,145.4,96.7,0.531
1.7,32305.5,35768.1,1.2144,1.8827,145.4,96.7,0.531
1.72,32300.8,35663.0,1.1955,1.6248,145.4,96.7,0.531
1.74,32282.7,35496.0,1.1231,1.2152,145.4,96.7,0.531
1.76,32163.5,35374.1,0.6465,0.916,145.4,96.7,0.531
1.78,32063.8,35199.8,0.2482,0.4885,145.4,96.7,0.531
1.8,32031.8,35102.7,0.1199,0.2503,145.4,96.7,0.531
1.82,32092.4,35049.6,0.3624,0.1199,145.4,96.7,0.531
1.84,31996.9,34909.8,-0.0195,-0.223,145.4,96.7,0.531
1.86,32009.5,34846.5,0.0308,-0.3782,145.4,96.7,0.531
1.88,31815.5,34648.1,-0.7448,-0.8647,145.4,96.7,0.531
1.9,31818.3,34812.4,-0.7336,-0.4617,145.4,96.7,0.531
1.92,31927.1,34612.0,-0.2985,-0.9535,145.4,96.7,0.531
1.94,31832.3,34727.4,-0.6773,-0.6704,145.4,96.7,0.531
1.96,31780.8,34610.0,-0.8833,-0.9582,145.4,96.7,0.531
1.98,31805.6,34417.9,-0.7842,-1.4296,145.4,96.7,0.531
2.0,31774.8,34364.1,-0.9073,-1.5615,145.4,96.7,0.531
2.02,31838.7,34450.2,-0.6518,-1.3502,145.4,96.7,0.531
2.04,31766.4,34746.4,-0.9411,-0.6238,145.4,96.7,0.531
2.06,32093.1,35110.2,0.3651,0.2688,145.4,96.7,0.531
2.08,32282.0,35581.3,1.1203,1.4244,145.4,96.7,0.531
2.1,32332.7,35714.6,1.323,1.7514,145.4,96.7,0.531
2.12,32480.9,35634.2,1.9154,1.5541,145.4,96.7,0.531
2.14,32365.3,35586.7,1.4533,1.4376,145.4,96.7,0.531
2.16,32180.4,35477.2,0.7141,1.1689,145.4,96.7,0.531
2.18,32027.6,35207.2,0.1034,0.5067,145.4,96.7,0.531
2.2,32087.4,35035.4,0.3424,0.0853,145.4,96.7,0.531
2.22,32060.9,35105.5,0.2365,0.2571,145.4,96.7,0.531
2.24,32022.1,35075.5,0.0814,0.1835,145.4,96.7,0.531
2.26,31984.5,34965.1,-0.0691,-0.0872,145.4,96.7,0.531
2.28,31853.2,34816.3,-0.5939,-0.4523,145.4,96.7,0.531
2.3,31832.7,34767.8,-0.6759,-0.5711,145.4,96.7,0.531
2.32,31772.4,34638.0,-0.917,-0.8895,145.4,96.7,0.531
2.34,31841.3,34627.0,-0.6415,-0.9165,145.4,96.7,0.531
2.36,31808.0,34698.5,-0.7745,-0.7411,145.4,96.7,0.531
2.38,31807.0,34603.2,-0.7786,-0.9749,145.4,96.7,0.531
2.4,31808.9,34446.5,-0.7711,-1.3595,145.4,96.7,0.531
2.42,31759.3,34369.6,-0.9692,-1.548,145.4,96.7,0.531
2.44,31799.5,34597.9,-0.8087,-0.9879,145.4,96.7,0.531
2.46,31918.4,34814.5,-0.3334,-0.4566,145.4,96.7,0.531
2.48,32105.1,35339.6,0.4133,0.8313,145.4,96.7,0.531
2.5,32304.0,35612.3,1.2082,1.5003,145.4,96.7,0.531
2.52,32359.2,35745.2,1.4288,1.8265,145.4,96.7,0.531
2.54,32407.0,35703.8,1.6202,1.7248,145.4,96.7,0.531
2.56,32252.0,35549.2,1.0004,1.3456,145.4,96.7,0.531
2.58,32185.8,35461.4,0.7359,1.1302,145.4,96.7,0.531
2.6,32147.9,35197.5,0.5841,0.4828,145.4,96.7,0.531
2.62,32075.9,35061.9,0.2962,0.1501,145.4,96.7,0.531
2.64,32036.8,35052.5,0.1401,0.1272,145.4,96.7,0.531
2.66,31952.5,34970.0,-0.1968,-0.0752,145.4,96.7,0.531
2.68,31959.9,34881.7,-0.1674,-0.2918,145.4,96.7,0.531
2.7,31897.5,34717.0,-0.4168,-0.6959,145.4,96.7,0.531
2.72,31827.5,34654.7,-0.6967,-0.8487,145.4,96.7,0.531
2.74,31841.4,34681.5,-0.641,-0.783,145.4,96.7,0.531
2.76,31774.1,34683.5,-0.9103,-0.7779,145.4,96.7,0.531
2.78,31819.5,34687.6,-0.7285,-0.7679,145.4,96.7,0.531
2.8,31727.8,34505.6,-1.0954,-1.2145,145.4,96.7,0.531
2.82,31670.1,34426.8,-1.3259,-1.4076,145.4,96.7,0.531
2.84,31840.4,34467.2,-0.645,-1.3085,145.4,96.7,0.531
2.86,31847.8,34664.8,-0.6156,-0.8238,145.4,96.7,0.531
2.88,32099.4,34996.0,0.3904,-0.0114,145.4,96.7,0.531
2.9,32145.6,35455.6,0.5752,1.1159,145.4,96.7,0.531
2.92,32353.1,35654.6,1.4045,1.6041,145.4,96.7,0.531
2.94,32319.0,35772.4,1.2684,1.8931,145.4,96.7,0.531
2.96,32337.4,35697.3,1.3416,1.7089,145.4,96.7,0.531
2.98,32211.2,35476.2,0.8372,1.1664,145.4,96.7,0.531
3.0,32132.2,35284.4,0.5215,0.696,145.4,96.7,0.531
3.02,32131.9,35156.9,0.5204,0.3833,145.4,96.7,0.531
3.04,31960.4,35119.2,-0.1655,0.2907,145.4,96.7,0.531
3.06,32056.0,34994.6,0.2169,-0.015,145.4,96.7,0.531
3.08,31968.1,34910.1,-0.1347,-0.2221,145.4,96.7,0.531
3.1,31886.3,34908.4,-0.4616,-0.2263,145.4,96.7,0.531
3.12,31922.7,34724.4,-0.316,-0.6777,145.4,96.7,0.531
3.14,31809.0,34708.6,-0.7706,-0.7166,145.4,96.7,0.531
3.16,31800.9,34650.6,-0.803,-0.8587,145.4,96.7,0.531
3.18,31765.1,34716.5,-0.9463,-0.6972,145.4,96.7,0.531
3.2,31747.5,34606.7,-1.0165,-0.9664,145.4,96.7,0.531
3.22,31719.6,34497.1,-1.128,-1.2353,145.4,96.7,0.531
3.24,31700.4,34472.3,-1.2048,-1.2961,145.4,96.7,0.531
3.26,31794.3,34560.0,-0.8294,-1.0809,145.4,96.7,0.531
3.28,31925.8,34860.7,-0.3037,-0.3434,145.4,96.7,0.531
3.3,32055.2,35226.1,0.2138,0.553,145.4,96.7,0.531
3.32,32152.6,35418.7,0.6031,1.0255,145.4,96.7,0.531
3.34,32350.2,35655.7,1.3929,1.6068,145.4,96.7,0.531
3.36,32381.7,35702.5,1.5191,1.7216,145.4,96.7,0.531
3.38,32326.7,35552.9,1.2991,1.3546,145.4,96.7,0.531
3.4,32178.2,35466.0,0.7054,1.1416,145.4,96.7,0.531
3.42,32094.0,35275.7,0.3686,0.6746,145.4,96.7,0.531
3.44,32043.1,35100.8,0.1652,0.2457,145.4,96.7,0.531
3.46,32021.3,35075.4,0.0779,0.1833,145.4,96.7,0.531
3.48,32079.8,34996.5,0.3121,-0.0103,145.4,96.7,0.531
3.5,32062.7,34891.4,0.2435,-0.2679,145.4,96.7,0.531
3.52,31941.5,34890.5,-0.2408,-0.2702,145.4,96.7,0.531
3.54,31795.9,34731.5,-0.8228,-0.6602,145.4,96.7,0.531
3.56,31833.8,34615.0,-0.6716,-0.9459,145.4,96.7,0.531
3.58,31811.4,34662.7,-0.761,-0.8291,145.4,96.7,0.531
3.6,31867.1,34630.3,-0.5384,-0.9084,145.4,96.7,0.531
3.62,31824.5,34610.2,-0.7087,-0.9577,145.4,96.7,0.531
3.64,31714.1,34504.6,-1.1501,-1.2168,145.4,96.7,0.531
3.66,31751.4,34481.0,-1.0007,-1.2747,145.4,96.7,0.531
3.68,31816.7,34650.5,-0.74,-0.8591,145.4,96.7,0.531
3.7,31982.4,34834.3,-0.0775,-0.4081,145.4,96.7,0.531
3.72,32188.7,35269.4,0.7475,0.6592,145.4,96.7,0.531
3.74,32358.3,35653.6,1.4254,1.6017,145.4,96.7,0.531
3.76,32381.4,35780.9,1.5177,1.9139,145.4,96.7,0.531
3.78,32272.7,35724.9,1.0832,1.7765,145.4,96.7,0.531
3.8,32177.4,35621.2,0.7021,1.5221,145.4,96.7,0.531
3.82,32205.4,35361.8,0.814,0.8859,145.4,96.7,0.531
3.84,32134.0,35124.4,0.5286,0.3034,145.4,96.7,0.531
3.86,32105.2,35080.4,0.4134,0.1956,145.4,96.7,0.531
3.88,32088.1,35035.9,0.3451,0.0865,145.4,96.7,0.531
3.9,31998.8,35017.8,-0.0119,0.0421,145.4,96.7,0.531
3.92,31888.0,34845.7,-0.4547,-0.3802,145.4,96.7,0.531
3.94,31839.2,34813.0,-0.65,-0.4603,145.4,96.7,0.531
3.96,31846.5,34706.7,-0.6207,-0.7211,145.4,96.7,0.531
3.98,31846.0,34708.1,-0.6226,-0.7176,145.4,96.7,0.531
4.0,31841.3,34643.8,-0.6413,-0.8754,145.4,96.7,0.531
4.02,31862.5,34639.1,-0.5569,-0.8868,145.4,96.7,0.531
4.04,31785.9,34612.9,-0.863,-0.9512,145.4,96.7,0.531
4.06,31757.1,34383.9,-0.9781,-1.5129,145.4,96.7,0.531
4.08,31815.8,34533.7,-0.7433,-1.1455,145.4,96.7,0.531
4.1,31889.8,34679.6,-0.4475,-0.7875,145.4,96.7,0.531
4.12,32009.9,35071.4,0.0326,0.1735,145.4,96.7,0.531
4.14,32180.5,35494.9,0.7147,1.2125,145.4,96.7,0.531
4.16,32342.6,35646.7,1.3626,1.5847,145.4,96.7,0.531
4.18,32457.5,35741.2,1.8219,1.8166,145.4,96.7,0.531
4.2,32335.1,35709.4,1.3327,1.7385,145.4,96.7,0.531
4.22,32178.9,35462.8,0.7081,1.1336,145.4,96.7,0.531
4.24,32154.1,35240.5,0.6089,0.5884,145.4,96.7,0.531
4.26,32103.8,35125.7,0.4078,0.3068,145.4,96.7,0.531
4.28,31985.1,35082.8,-0.0668,0.2015,145.4,96.7,0.531
4.3,32052.2,35056.2,0.2015,0.1362,145.4,96.7,0.531
4.32,31971.4,34994.2,-0.1216,-0.0158,145.4,96.7,0.531
4.34,31989.8,34813.5,-0.048,-0.459,145.4,96.7,0.531
4.36,31896.1,34767.8,-0.4225,-0.5711,145.4,96.7,0.531
4.38,31725.7,34824.1,-1.1036,-0.4332,145.4,96.7,0.531
4.4,31764.4,34651.7,-0.949,-0.856,145.4,96.7,0.531
4.42,31807.5,34613.2,-0.7768,-0.9505,145.4,96.7,0.531
4.44,31808.5,34546.7,-0.7727,-1.1135,145.4,96.7,0.531
4.46,31734.0,34538.2,-1.0706,-1.1346,145.4,96.7,0.531
4.48,31805.2,34565.0,-0.786,-1.0688,145.4,96.7,0.531
4.5,31792.4,34514.5,-0.837,-1.1926,145.4,96.7,0.531
4.52,31818.5,34936.0,-0.7326,-0.1586,145.4,96.7,0.531
4.54,32093.8,35172.0,0.3678,0.4203,145.4,96.7,0.531
4.56,32323.5,35597.6,1.2862,1.4644,145.4,96.7,0.531
4.58,32345.0,35744.0,1.3721,1.8235,145.4,96.7,0.531
4.6,32322.7,35640.5,1.283,1.5696,145.4,96.7,0.531
4.62,32430.6,35547.9,1.7145,1.3425,145.4,96.7,0.531
4.64,32243.0,35381.7,0.9644,0.9347,145.4,96.7,0.531
4.66,32130.6,35168.3,0.5151,0.4112,145.4,96.7,0.531
4.68,32134.9,35110.3,0.5321,0.2689,145.4,96.7,0.531
4.7,32020.8,35035.8,0.0762,0.0863,145.4,96.7,0.531
4.72,32055.0,35089.6,0.213,0.2181,145.4,96.7,0.531
4.74,31908.3,34826.5,-0.3738,-0.4273,145.4,96.7,0.531
4.76,31953.1,34831.2,-0.1947,-0.4156,145.4,96.7,0.531
4.78,31895.0,34581.6,-0.4269,-1.0279,145.4,96.7,0.531
4.8,31818.3,34705.3,-0.7336,-0.7245,145.4,96.7,0.531
4.82,31775.1,34676.7,-0.9063,-0.7946,145.4,96.7,0.531
4.84,31797.9,34615.5,-0.8149,-0.9447,145.4,96.7,0.531
4.86,31789.0,34492.1,-0.8507,-1.2476,145.4,96.7,0.531
4.88,31735.0,34490.9,-1.0665,-1.2505,145.4,96.7,0.531
4.9,31756.1,34490.7,-0.9821,-1.2509,145.4,96.7,0.531
4.92,31890.0,34582.5,-0.4467,-1.0257,145.4,96.7,0.531
4.94,31989.2,34933.9,-0.0502,-0.1637,145.4,96.7,0.531
4.96,32217.0,35360.1,0.8606,0.8816,145.4,96.7,0.531
4.98,32242.9,35739.9,0.9642,1.8134,145.4,96.7,0.531
5.0,32342.6,35765.9,1.3624,1.8773,145.4,96.7,0.531
5.02,32371.4,35783.0,1.4777,1.9191,145.4,96.7,0.531
5.04,32240.8,35577.2,0.9556,1.4142,145.4,96.7,0.531
5.06,32130.6,35327.1,0.5152,0.8007,145.4,96.7,0.531
5.08,32109.3,35107.4,0.43,0.2618,145.4,96.7,0.531
5.1,32084.4,35185.6,0.3305,0.4537,145.4,96.7,0.531
5.12,32085.0,35041.7,0.3329,0.1006,145.4,96.7,0.531
5.14,31997.7,34965.2,-0.0162,-0.087,145.4,96.7,0.531
5.16,31944.6,34898.1,-0.2285,-0.2515,145.4,96.7,0.531
5.18,31984.9,34628.6,-0.0673,-0.9127,145.4,96.7,0.531
5.2,31916.1,34607.2,-0.3423,-0.9652,145.4,96.7,0.531
5.22,31843.9,34670.7,-0.631,-0.8095,145.4,96.7,0.531
5.24,31911.2,34595.3,-0.3623,-0.9944,145.4,96.7,0.531
5.26,31760.0,34702.9,-0.9666,-0.7305,145.4,96.7,0.531
5.28,31759.9,34597.5,-0.9668,-0.9889,145.4,96.7,0.531
5.3,31806.5,34367.9,-0.7805,-1.5522,145.4,96.7,0.531
5.32,31848.9,34586.1,-0.6111,-1.017,145.4,96.7,0.531
5.34,31831.1,34722.1,-0.6824,-0.6834,145.4,96.7,0.531
5.36,32057.9,35162.1,0.2244,0.396,145.4,96.7,0.531
5.38,32205.9,35521.7,0.816,1.2782,145.4,96.7,0.531
5.4,32343.3,35737.4,1.3654,1.8072,145.4,96.7,0.531
5.42,32402.1,35779.2,1.6005,1.9098,145.4,96.7,0.531
5.44,32263.0,35625.9,1.0443,1.5338,145.4,96.7,0.531
5.46,32193.4,35491.2,0.7662,1.2034,145.4,96.7,0.531
5.48,32107.4,35283.0,0.4221,0.6925,145.4,96.7,0.531
5.5,32136.3,35229.3,0.5379,0.5609,145.4,96.7,0.531
5.52,31952.6,35098.9,-0.1965,0.2411,145.4,96.7,0.531
5.54,32023.0,35011.5,0.085,0.0267,145.4,96.7,0.531
5.56,31965.3,34949.0,-0.1456,-0.1267,145.4,96.7,0.531
5.58,31974.1,34784.1,-0.1104,-0.5311,145.4,96.7,0.531
5.6,31881.3,34799.7,-0.4816,-0.493,145.4,96.7,0.531
5.62,31830.8,34672.1,-0.6834,-0.8059,145.4,96.7,0.531
5.64,31807.9,34612.4,-0.7752,-0.9525,145.4,96.7,0.531
5.66,31771.2,34656.9,-0.9218,-0.8432,145.4,96.7,0.531
5.68,31817.3,34490.4,-0.7376,-1.2518,145.4,96.7,0.531
5.7,31689.7,34518.3,-1.2477,-1.1832,145.4,96.7,0.531
5.72,31760.7,34451.0,-0.9637,-1.3483,145.4,96.7,0.531
5.74,31823.8,34467.8,-0.7116,-1.3072,145.4,96.7,0.531
5.76,31885.5,34875.0,-0.465,-0.3083,145.4,96.7,0.531
5.78,32096.9,35220.9,0.3802,0.5403,145.4,96.7,0.531
5.8,32271.8,35574.1,1.0795,1.4068,145.4,96.7,0.531
5.82,32420.0,35775.1,1.6721,1.8998,145.4,96.7,0.531
5.84,32348.1,35711.0,1.3845,1.7426,145.4,96.7,0.531
5.86,32216.8,35640.4,0.8598,1.5694,145.4,96.7,0.531
5.88,32099.7,35410.4,0.3916,1.0051,145.4,96.7,0.531
5.9,32099.5,35198.2,0.3906,0.4847,145.4,96.7,0.531
5.92,32075.6,35193.9,0.2952,0.4741,145.4,96.7,0.531
5.94,32088.7,35112.4,0.3474,0.274,145.4,96.7,0.531
5.96,32005.2,35078.2,0.0138,0.1902,145.4,96.7,0.531
5.98,31945.3,34941.0,-0.2258,-0.1464,145.4,96.7,0.531
6.0,31940.3,34864.7,-0.2459,-0.3334,145.4,96.7,0.531
6.02,31813.9,34657.0,-0.7509,-0.8429,145.4,96.7,0.531
6.04,31861.9,34714.5,-0.5592,-0.7021,145.4,96.7,0.531
6.06,31855.3,34654.2,-0.5854,-0.8499,145.4,96.7,0.531
6.08,31766.0,34680.1,-0.9424,-0.7864,145.4,96.7,0.531
6.1,31729.8,34465.4,-1.0872,-1.3131,145.4,96.7,0.531
6.12,31705.3,34394.7,-1.1851,-1.4863,145.4,96.7,0.531
6.14,31686.3,34487.6,-1.261,-1.2587,145.4,96.7,0.531
6.16,31846.4,34662.1,-0.621,-0.8304,145.4,96.7,0.531
6.18,32027.9,35030.7,0.1045,0.0738,145.4,96.7,0.531
6.2,32177.7,35399.6,0.7033,0.9785,145.4,96.7,0.531
6.22,32380.7,35650.3,1.5149,1.5936,145.4,96.7,0.531
6.24,32365.5,35788.3,1.4542,1.9322,145.4,96.7,0.531
6.26,32348.7,35630.7,1.3871,1.5455,145.4,96.7,0.531
6.28,32208.2,35492.9,0.8252,1.2074,145.4,96.7,0.531
6.3,32140.5,35261.4,0.5547,0.6397,145.4,96.7,0.531
6.32,32158.3,35239.8,0.6259,0.5867,145.4,96.7,0.531
6.34,32089.2,35076.6,0.3496,0.1863,145.4,96.7,0.531
6.36,31931.1,35037.2,-0.2827,0.0896,145.4,96.7,0.531
6.38,32033.1,34948.7,0.1251,-0.1275,145.4,96.7,0.531
6.4,31964.1,34918.7,-0.1508,-0.2012,145.4,96.7,0.531
6.42,31943.2,34693.6,-0.234,-0.7533,145.4,96.7,0.531
6.44,31788.9,34683.8,-0.8511,-0.7774,145.4,96.7,0.531
6.46,31765.2,34646.9,-0.9458,-0.8678,145.4,96.7,0.531
6.48,31874.4,34639.9,-0.5092,-0.8851,145.4,96.7,0.531
6.5,31818.3,34644.4,-0.7336,-0.8739,145.4,96.7,0.531
6.52,31836.0,34459.4,-0.6627,-1.3277,145.4,96.7,0.531
6.54,31696.7,34377.4,-1.2198,-1.529,145.4,96.7,0.531
6.56,31683.7,34581.0,-1.2715,-1.0295,145.4,96.7,0.531
6.58,31824.3,34783.4,-0.7093,-0.533,145.4,96.7,0.531
6.6,32070.3,35162.6,0.2739,0.3973,145.4,96.7,0.531
6.62,32332.7,35473.5,1.3232,1.1599,145.4,96.7,0.531
6.64,32389.7,35729.9,1.5509,1.7889,145.4,96.7,0.531
6.66,32372.7,35768.6,1.4829,1.8839,145.4,96.7,0.531
6.68,32268.3,35581.4,1.0656,1.4245,145.4,96.7,0.531
6.7,32231.2,35438.8,0.9172,1.0747,145.4,96.7,0.531
6.72,32083.9,35210.2,0.3286,0.5141,145.4,96.7,0.531
6.74,32116.2,35096.0,0.4576,0.2338,145.4,96.7,0.531
6.76,31994.1,35039.3,-0.0307,0.0948,145.4,96.7,0.531
6.78,31959.4,35023.9,-0.1693,0.0569,145.4,96.7,0.531
6.8,31966.2,34946.5,-0.1422,-0.1328,145.4,96.7,0.531
6.82,31937.8,34827.8,-0.2557,-0.4241,145.4,96.7,0.531
6.84,31872.9,34742.8,-0.515,-0.6327,145.4,96.7,0.531
6.86,31862.1,34740.9,-0.5586,-0.6372,145.4,96.7,0.531
6.88,31918.0,34687.3,-0.3349,-0.7686,145.4,96.7,0.531
6.9,31926.8,34666.4,-0.2996,-0.82,145.4,96.7,0.531
6.92,31764.5,34566.2,-0.9484,-1.0658,145.4,96.7,0.531
6.94,31825.6,34510.0,-0.7041,-1.2036,145.4,96.7,0.531
6.96,31744.5,34454.7,-1.0284,-1.3393,145.4,96.7,0.531
6.98,31840.7,34624.2,-0.644,-0.9234,145.4,96.7,0.531
7.0,31933.3,34914.2,-0.2736,-0.2121,145.4,96.7,0.531
7.02,32133.7,35185.0,0.5276,0.4523,145.4,96.7,0.531
7.04,32286.4,35520.6,1.1381,1.2755,145.4,96.7,0.531
7.06,32405.6,35737.9,1.6144,1.8086,145.4,96.7,0.531
7.08,32335.7,35618.1,1.3352,1.5146,145.4,96.7,0.531
7.1,32246.1,35579.0,0.9768,1.4187,145.4,96.7,0.531
7.12,32190.0,35395.4,0.7524,0.9684,145.4,96.7,0.531
7.14,32074.9,35179.9,0.2923,0.4397,145.4,96.7,0.531
7.16,32148.2,35035.3,0.5856,0.0849,145.4,96.7,0.531
7.18,32026.1,35179.4,0.0971,0.4384,145.4,96.7,0.531
7.2,32034.2,34931.7,0.1296,-0.1692,145.4,96.7,0.531
7.22,32014.0,34912.6,0.049,-0.216,145.4,96.7,0.531
7.24,31877.0,34755.9,-0.4989,-0.6003,145.4,96.7,0.531
7.26,31857.5,34745.4,-0.5767,-0.6262,145.4,96.7,0.531
7.28,31919.0,34700.7,-0.3307,-0.7357,145.4,96.7,0.531
7.3,31819.3,34625.7,-0.7295,-0.9198,145.4,96.7,0.531
7.32,31774.2,34604.2,-0.9099,-0.9727,145.4,96.7,0.531
7.34,31822.8,34386.0,-0.7153,-1.5078,145.4,96.7,0.531
7.36,31682.3,34483.7,-1.2773,-1.2681,145.4,96.7,0.531
7.38,31703.4,34447.8,-1.193,-1.3562,145.4,96.7,0.531
7.4,31915.0,34744.4,-0.347,-0.6287,145.4,96.7,0.531
7.42,31934.9,35062.4,-0.2673,0.1515,145.4,96.7,0.531
7.44,32145.0,35345.5,0.5725,0.8459,145.4,96.7,0.531
7.46,32426.5,35626.7,1.6979,1.5357,145.4,96.7,0.531
7.48,32339.2,35805.9,1.3489,1.9753,145.4,96.7,0.531
7.5,32256.0,35626.2,1.0163,1.5345,145.4,96.7,0.531
7.52,32264.6,35472.0,1.0506,1.1562,145.4,96.7,0.531
7.54,32131.4,35326.2,0.5182,0.7985,145.4,96.7,0.531
7.56,32047.5,35057.4,0.1828,0.1392,145.4,96.7,0.531
7.58,32078.6,35073.0,0.3074,0.1776,145.4,96.7,0.531
7.6,32061.7,34914.9,0.2395,-0.2105,145.4,96.7,0.531
7.62,31928.6,34966.0,-0.2925,-0.0849,145.4,96.7,0.531
7.64,31926.4,34896.7,-0.3011,-0.2551,145.4,96.7,0.531
7.66,31956.5,34786.7,-0.1808,-0.5247,145.4,96.7,0.531
7.68,31903.2,34543.0,-0.394,-1.1227,145.4,96.7,0.531
7.7,31846.0,34675.3,-0.6228,-0.7981,145.4,96.7,0.531
7.72,31812.3,34696.6,-0.7575,-0.7459,145.4,96.7,0.531
7.74,31767.2,34539.9,-0.9377,-1.1302,145.4,96.7,0.531
7.76,31732.1,34539.1,-1.0781,-1.1324,145.4,96.7,0.531
7.78,31712.6,34525.2,-1.1562,-1.1664,145.4,96.7,0.531
7.8,31818.9,34554.0,-0.7309,-1.0956,145.4,96.7,0.531
7.82,31895.7,34849.2,-0.424,-0.3716,145.4,96.7,0.531
7.84,32211.0,35115.3,0.8366,0.2811,145.4,96.7,0.531
7.86,32299.3,35540.5,1.1895,1.3242,145.4,96.7,0.531
7.88,32319.3,35758.4,1.2694,1.8588,145.4,96.7,0.531
7.9,32332.0,35705.9,1.3204,1.73,145.4,96.7,0.531
7.92,32298.0,35632.9,1.1842,1.551,145.4,96.7,0.531
7.94,32116.4,35401.7,0.4582,0.9838,145.4,96.7,0.531
7.96,32079.8,35214.8,0.3121,0.5253,145.4,96.7,0.531
7.98,32053.1,35068.0,0.2051,0.1652,145.4,96.7,0.531
8.0,32051.8,35132.0,0.2,0.3221,145.4,96.7,0.531
8.02,31878.5,34894.3,-0.4928,-0.261,145.4,96.7,0.531
8.04,31916.8,34857.8,-0.3397,-0.3505,145.4,96.7,0.531
8.06,31879.8,34807.6,-0.4875,-0.4736,145.4,96.7,0.531
8.08,31948.6,34704.2,-0.2124,-0.7273,145.4,96.7,0.531
8.1,31757.2,34731.7,-0.9778,-0.6598,145.4,96.7,0.531
8.12,31923.5,34746.8,-0.313,-0.6227,145.4,96.7,0.531
8.14,31875.1,34581.8,-0.5064,-1.0274,145.4,96.7,0.531
8.16,31697.7,34489.0,-1.2158,-1.255,145.4,96.7,0.531
8.18,31672.8,34501.2,-1.3153,-1.2251,145.4,96.7,0.531
8.2,31738.4,34432.2,-1.0529,-1.3944,145.4,96.7,0.531
8.22,31793.2,34626.8,-0.8337,-0.9171,145.4,96.7,0.531
8.24,32068.7,34879.1,0.2674,-0.2982,145.4,96.7,0.531
8.26,32090.6,35318.1,0.3551,0.7786,145.4,96.7,0.531
8.28,32339.9,35710.1,1.3516,1.7402,145.4,96.7,0.531
8.3,32462.4,35747.5,1.8415,1.832,145.4,96.7,0.531
8.32,32308.5,35646.6,1.2262,1.5844,145.4,96.7,0.531
8.34,32284.2,35537.0,1.1292,1.3156,145.4,96.7,0.531
8.36,32164.5,35278.2,0.6505,0.6807,145.4,96.7,0.531
8.38,32033.0,35153.2,0.125,0.3742,145.4,96.7,0.531
8.4,32075.2,35063.3,0.2936,0.1536,145.4,96.7,0.531
8.42,31977.9,35144.3,-0.0955,0.3524,145.4,96.7,0.531
8.44,32035.9,35028.3,0.1364,0.0678,145.4,96.7,0.531
8.46,31977.7,34900.0,-0.0962,-0.247,145.4,96.7,0.531
8.48,31847.9,34706.4,-0.6153,-0.7219,145.4,96.7,0.531
8.5,31798.4,34707.4,-0.8129,-0.7195,145.4,96.7,0.531
8.52,31974.4,34679.6,-0.1093,-0.7876,145.4,96.7,0.531
8.54,31923.1,34681.5,-0.3145,-0.7829,145.4,96.7,0.531
8.56,31838.9,34547.7,-0.6512,-1.1112,145.4,96.7,0.531
8.58,31704.0,34515.5,-1.1905,-1.1901,145.4,96.7,0.531
8.6,31677.2,34413.4,-1.2975,-1.4405,145.4,96.7,0.531
8.62,31701.5,34501.1,-1.2003,-1.2255,145.4,96.7,0.531
8.64,31946.6,34685.1,-0.2207,-0.774,145.4,96.7,0.531
8.66,31965.3,35017.2,-0.1457,0.0406,145.4,96.7,0.531
8.68,32168.3,35470.5,0.6656,1.1526,145.4,96.7,0.531
8.7,32332.2,35726.6,1.3209,1.7807,145.4,96.7,0.531
8.72,32311.4,35686.7,1.238,1.6828,145.4,96.7,0.531
8.74,32334.9,35741.8,1.3318,1.8179,145.4,96.7,0.531
8.76,32228.3,35444.2,0.9056,1.088,145.4,96.7,0.531
8.78,32023.3,35287.2,0.0861,0.7029,145.4,96.7,0.531
8.8,32087.5,35176.4,0.3427,0.4312,145.4,96.7,0.531
8.82,32043.5,34991.8,0.1669,-0.0217,145.4,96.7,0.531
8.84,31966.5,35064.9,-0.1409,0.1576,145.4,96.7,0.531
8.86,31906.8,34886.4,-0.3798,-0.2804,145.4,96.7,0.531
8.88,31949.4,34876.8,-0.2095,-0.3039,145.4,96.7,0.531
8.9,31851.7,34717.7,-0.6,-0.6941,145.4,96.7,0.531
8.92,31848.0,34671.3,-0.6148,-0.808,145.4,96.7,0.531
8.94,31782.4,34800.4,-0.877,-0.4913,145.4,96.7,0.531
8.96,31836.3,34659.0,-0.6617,-0.8382,145.4,96.7,0.531
8.98,31782.5,34558.2,-0.8765,-1.0854,145.4,96.7,0.531
9.0,31779.3,34502.3,-0.8892,-1.2225,145.4,96.7,0.531
9.02,31765.0,34494.3,-0.9467,-1.2422,145.4,96.7,0.531
9.04,31821.9,34534.9,-0.7191,-1.1424,145.4,96.7,0.531
9.06,31896.1,34861.1,-0.4223,-0.3424,145.4,96.7,0.531
9.08,32020.2,35208.2,0.0737,0.5092,145.4,96.7,0.531
9.1,32337.9,35390.4,1.3437,0.956,145.4,96.7,0.531
9.12,32331.4,35682.5,1.3178,1.6726,145.4,96.7,0.531
9.14,32336.7,35736.7,1.3391,1.8056,145.4,96.7,0.531
9.16,32248.8,35524.8,0.9878,1.2856,145.4,96.7,0.531
9.18,32194.9,35389.8,0.772,0.9545,145.4,96.7,0.531
9.2,32069.0,35225.2,0.269,0.5508,145.4,96.7,0.531
9.22,32032.8,35069.2,0.1241,0.1682,145.4,96.7,0.531
9.24,32037.8,35066.5,0.1442,0.1616,145.4,96.7,0.531
9.26,32035.6,35035.8,0.1353,0.0862,145.4,96.7,0.531
9.28,31932.8,34902.7,-0.2757,-0.2404,145.4,96.7,0.531
9.3,31905.6,34792.3,-0.3845,-0.5112,145.4,96.7,0.531
9.32,31880.9,34694.3,-0.4834,-0.7514,145.4,96.7,0.531
9.34,31873.2,34631.2,-0.5141,-0.9063,145.4,96.7,0.531
9.36,31738.4,34682.4,-1.0529,-0.7807,145.4,96.7,0.531
9.38,31816.2,34538.2,-0.742,-1.1343,145.4,96.7,0.531
9.4,31824.1,34582.7,-0.7103,-1.0252,145.4,96.7,0.531
9.42,31775.2,34529.8,-0.9058,-1.1551,145.4,96.7,0.531
9.44,31706.8,34463.8,-1.1792,-1.3169,145.4,96.7,0.531
9.46,31870.8,34721.1,-0.5235,-0.6859,145.4,96.7,0.531
9.48,31948.2,34987.8,-0.2141,-0.0316,145.4,96.7,0.531
9.5,32158.7,35449.9,0.6274,1.102,145.4,96.7,0.531
9.52,32279.8,35636.4,1.1116,1.5594,145.4,96.7,0.531
9.54,32326.2,35722.6,1.2972,1.771,145.4,96.7,0.531
9.56,32383.5,35696.0,1.5263,1.7056,145.4,96.7,0.531
9.58,32224.1,35492.3,0.8888,1.206,145.4,96.7,0.531
9.6,32183.5,35258.9,0.7267,0.6334,145.4,96.7,0.531
9.62,32018.1,35138.7,0.0653,0.3385,145.4,96.7,0.531
9.64,32032.6,35084.5,0.1232,0.2056,145.4,96.7,0.531
9.66,32042.8,35140.0,0.1639,0.3418,145.4,96.7,0.531
9.68,32000.0,34939.5,-0.007,-0.1501,145.4,96.7,0.531
9.7,31866.0,34878.9,-0.5429,-0.2987,145.4,96.7,0.531
9.72,31890.0,34678.4,-0.447,-0.7904,145.4,96.7,0.531
9.74,31905.6,34682.9,-0.3845,-0.7794,145.4,96.7,0.531
9.76,31871.1,34714.7,-0.5225,-0.7016,145.4,96.7,0.531
9.78,31809.2,34669.7,-0.7699,-0.812,145.4,96.7,0.531
9.8,31766.6,34497.9,-0.9401,-1.2334,145.4,96.7,0.531
9.82,31787.0,34579.7,-0.8584,-1.0327,145.4,96.7,0.531
9.84,31683.0,34442.1,-1.2742,-1.3703,145.4,96.7,0.531
9.86,31758.7,34448.9,-0.9717,-1.3534,145.4,96.7,0.531
9.88,31841.3,34821.2,-0.6413,-0.4403,145.4,96.7,0.531
9.9,32038.6,35073.0,0.1473,0.1775,145.4,96.7,0.531
9.92,32218.0,35539.0,0.8645,1.3205,145.4,96.7,0.531
9.94,32323.2,35650.1,1.285,1.593,145.4,96.7,0.531
9.96,32391.0,35804.7,1.5562,1.9724,145.4,96.7,0.531
9.98,32242.0,35582.9,0.9606,1.4282,145.4,96.7,0.531
10.0,32147.8,35445.7,0.5839,1.0916,145.4,96.7,0.531
10.02,32136.6,35266.6,0.5392,0.6524,145.4,96.7,0.531
10.04,31978.4,35115.0,-0.0934,0.2805,145.4,96.7,0.531
10.06,32072.6,34968.6,0.2833,-0.0787,145.4,96.7,0.531
10.08,31890.1,35094.7,-0.4462,0.2306,145.4,96.7,0.531
10.1,31988.3,35004.5,-0.0538,0.0095,145.4,96.7,0.531
10.12,31928.6,34768.6,-0.2924,-0.5693,145.4,96.7,0.531
10.14,31912.1,34655.7,-0.3586,-0.8463,145.4,96.7,0.531
10.16,31890.7,34592.3,-0.4441,-1.0017,145.4,96.7,0.531
10.18,31840.5,34736.6,-0.6447,-0.6478,145.4,96.7,0.531
10.2,31798.8,34697.2,-0.8114,-0.7444,145.4,96.7,0.531
10.22,31796.3,34575.3,-0.8214,-1.0433,145.4,96.7,0.531
10.24,31792.8,34414.3,-0.8353,-1.4385,145.4,96.7,0.531
10.26,31646.2,34448.4,-1.4215,-1.3546,145.4,96.7,0.531
10.28,31821.0,34590.0,-0.7225,-1.0073,145.4,96.7,0.531
10.3,32018.0,34813.2,0.065,-0.4598,145.4,96.7,0.531
10.32,32096.0,35283.9,0.3768,0.6948,145.4,96.7,0.531
10.34,32267.0,35537.8,1.0606,1.3176,145.4,96.7,0.531
10.36,32372.5,35733.5,1.4823,1.7978,145.4,96.7,0.531
10.38,32413.5,35684.1,1.646,1.6764,145.4,96.7,0.531
10.4,32263.9,35571.6,1.0481,1.4006,145.4,96.7,0.531
10.42,32212.4,35324.2,0.8419,0.7937,145.4,96.7,0.531
10.44,32126.0,35230.3,0.4966,0.5633,145.4,96.7,0.531
10.46,32158.3,35171.3,0.6259,0.4186,145.4,96.7,0.531
10.48,32135.2,35101.4,0.5336,0.2471,145.4,96.7,0.531
10.5,32081.7,35049.1,0.3196,0.1187,145.4,96.7,0.531
10.52,31903.7,34926.8,-0.3919,-0.1812,145.4,96.7,0.531
10.54,31844.4,34809.6,-0.6289,-0.4686,145.4,96.7,0.531
10.56,31871.8,34831.5,-0.5198,-0.415,145.4,96.7,0.531
10.58,31944.3,34702.6,-0.2297,-0.7313,145.4,96.7,0.531
10.6,31846.1,34736.6,-0.6223,-0.6477,145.4,96.7,0.531
10.62,31827.6,34608.0,-0.6963,-0.9633,145.4,96.7,0.531
10.64,31722.6,34567.6,-1.1162,-1.0623,145.4,96.7,0.531
10.66,31623.2,34578.2,-1.5133,-1.0363,145.4,96.7,0.531
10.68,31796.6,34549.1,-0.8203,-1.1078,145.4,96.7,0.531
10.7,31869.2,34733.9,-0.5299,-0.6543,145.4,96.7,0.531
10.72,31935.5,35005.4,-0.2651,0.0117,145.4,96.7,0.531
10.74,32134.8,35380.4,0.5317,0.9314,145.4,96.7,0.531
10.76,32253.6,35716.9,1.0067,1.757,145.4,96.7,0.531
10.78,32398.7,35766.1,1.5868,1.8778,145.4,96.7,0.531
10.8,32292.8,35675.5,1.1635,1.6554,145.4,96.7,0.531
10.82,32195.0,35449.0,0.7726,1.0999,145.4,96.7,0.531
10.84,32028.4,35243.1,0.1063,0.5947,145.4,96.7,0.531
10.86,31978.0,35146.2,-0.095,0.3569,145.4,96.7,0.531
10.88,32057.9,35144.0,0.2244,0.3517,145.4,96.7,0.531
10.9,32025.5,35095.9,0.095,0.2335,145.4,96.7,0.531
10.92,32046.0,35065.8,0.1769,0.1599,145.4,96.7,0.531
10.94,32050.8,34772.1,0.1961,-0.5607,145.4,96.7,0.531
10.96,31916.7,34748.0,-0.34,-0.6197,145.4,96.7,0.531
10.98,31811.6,34651.2,-0.7603,-0.8572,145.4,96.7,0.531
11.0,31760.2,34615.4,-0.9659,-0.9451,145.4,96.7,0.531
11.02,31781.4,34585.1,-0.8809,-1.0194,145.4,96.7,0.531
11.04,31779.3,34548.1,-0.8893,-1.1102,145.4,96.7,0.531
11.06,31723.6,34422.9,-1.112,-1.4173,145.4,96.7,0.531
11.08,31732.7,34516.9,-1.0758,-1.1868,145.4,96.7,0.531
11.1,31700.9,34481.2,-1.2026,-1.2742,145.4,96.7,0.531
11.12,31888.2,34831.8,-0.4538,-0.4141,145.4,96.7,0.531
11.14,32103.4,35169.3,0.4062,0.4136,145.4,96.7,0.531
11.16,32259.6,35568.1,1.0306,1.392,145.4,96.7,0.531
11.18,32353.6,35717.9,1.4065,1.7594,145.4,96.7,0.531
11.2,32377.9,35729.9,1.5037,1.7888,145.4,96.7,0.531
11.22,32305.1,35582.8,1.2127,1.428,145.4,96.7,0.531
11.24,32281.4,35359.0,1.118,0.8789,145.4,96.7,0.531
11.26,32086.6,35288.2,0.339,0.7053,145.4,96.7,0.531
11.28,32000.1,35102.0,-0.0068,0.2487,145.4,96.7,0.531
11.3,32067.7,35063.8,0.2637,0.1549,145.4,96.7,0.531
11.32,32042.8,35024.9,0.1641,0.0595,145.4,96.7,0.531
11.34,31909.6,34916.3,-0.3684,-0.207,145.4,96.7,0.531
11.36,31830.5,34800.3,-0.6847,-0.4916,145.4,96.7,0.531
11.38,31915.3,34664.7,-0.3456,-0.8241,145.4,96.7,0.531
11.4,31893.1,34611.6,-0.4343,-0.9543,145.4,96.7,0.531
11.42,31865.0,34609.9,-0.5466,-0.9585,145.4,96.7,0.531
11.44,31799.2,34638.0,-0.8097,-0.8896,145.4,96.7,0.531
11.46,31838.3,34580.9,-0.6536,-1.0298,145.4,96.7,0.531
11.48,31812.1,34520.0,-0.7581,-1.1792,145.4,96.7,0.531
11.5,31680.0,34444.7,-1.2864,-1.3637,145.4,96.7,0.531
11.52,31814.6,34657.1,-0.7483,-0.8427,145.4,96.7,0.531
11.54,31931.9,35073.7,-0.2794,0.1791,145.4,96.7,0.531
11.56,32137.9,35288.5,0.5444,0.706,145.4,96.7,0.531
11.58,32328.0,35596.5,1.3042,1.4617,145.4,96.7,0.531
11.6,32381.9,35745.4,1.5199,1.8269,145.4,96.7,0.531
11.62,32321.0,35734.0,1.2764,1.799,145.4,96.7,0.531
11.64,32233.1,35500.5,0.9247,1.2262,145.4,96.7,0.531
11.66,32044.8,35330.1,0.1723,0.8082,145.4,96.7,0.531
11.68,32068.5,35203.0,0.2669,0.4963,145.4,96.7,0.531
11.7,32040.8,35037.1,0.156,0.0893,145.4,96.7,0.531
11.72,32021.0,35086.1,0.0767,0.2096,145.4,96.7,0.531
11.74,31922.4,34891.2,-0.3172,-0.2684,145.4,96.7,0.531
11.76,31954.5,34808.1,-0.189,-0.4724,145.4,96.7,0.531
11.78,31961.2,34780.7,-0.162,-0.5395,145.4,96.7,0.531
11.8,31940.6,34716.4,-0.2446,-0.6973,145.4,96.7,0.531
11.82,31793.6,34666.8,-0.8322,-0.819,145.4,96.7,0.531
11.84,31843.4,34579.0,-0.633,-1.0344,145.4,96.7,0.531
11.86,31786.2,34604.8,-0.862,-0.971,145.4,96.7,0.531
11.88,31742.4,34558.5,-1.037,-1.0846,145.4,96.7,0.531
11.9,31760.6,34487.7,-0.9641,-1.2583,145.4,96.7,0.531
11.92,31747.6,34507.3,-1.0161,-1.2101,145.4,96.7,0.531
11.94,31877.5,34752.0,-0.4967,-0.6101,145.4,96.7,0.531
11.96,32107.5,35071.7,0.4227,0.1743,145.4,96.7,0.531
11.98,32203.8,35385.3,0.8077,0.9435,145.4,96.7,0.531
12.0,32384.8,35703.4,1.5312,1.7238,145.4,96.7,0.531
12.02,32329.3,35729.4,1.3093,1.7876,145.4,96.7,0.531
12.04,32202.6,35636.4,0.8031,1.5596,145.4,96.7,0.531
12.06,32325.2,35390.4,1.2931,0.9562,145.4,96.7,0.531
12.08,32032.5,35198.1,0.1229,0.4843,145.4,96.7,0.531
12.1,31977.7,35147.5,-0.0962,0.3602,145.4,96.7,0.531
12.12,31968.8,35070.1,-0.1317,0.1703,145.4,96.7,0.531
12.14,32080.2,35015.4,0.3137,0.0362,145.4,96.7,0.531
12.16,31982.4,34917.5,-0.0774,-0.204,145.4,96.7,0.531
12.18,31944.3,34803.6,-0.2295,-0.4834,145.4,96.7,0.531
12.2,31811.1,34731.2,-0.7623,-0.6609,145.4,96.7,0.531
12.22,31867.2,34621.4,-0.538,-0.9303,145.4,96.7,0.531
12.24,31832.7,34632.8,-0.6757,-0.9025,145.4,96.7,0.531
12.26,31747.5,34693.7,-1.0166,-0.7531,145.4,96.7,0.531
12.28,31762.5,34602.5,-0.9564,-0.9767,145.4,96.7,0.531
12.3,31619.3,34512.4,-1.5292,-1.1976,145.4,96.7,0.531
12.32,31777.1,34512.1,-0.898,-1.1984,145.4,96.7,0.531
12.34,31799.0,34636.2,-0.8107,-0.8941,145.4,96.7,0.531
12.36,31982.4,34865.6,-0.0776,-0.3312,145.4,96.7,0.531
12.38,32045.2,35234.1,0.1735,0.5725,145.4,96.7,0.531
12.4,32312.5,35583.8,1.2422,1.4305,145.4,96.7,0.531
12.42,32378.5,35737.7,1.5063,1.8081,145.4,96.7,0.531
12.44,32283.7,35689.7,1.1272,1.6903,145.4,96.7,0.531
12.46,32286.2,35577.3,1.1371,1.4146,145.4,96.7,0.531
12.48,32182.8,35432.8,0.7236,1.0601,145.4,96.7,0.531
12.5,32173.0,35233.9,0.6844,0.5721,145.4,96.7,0.531
12.52,32071.2,35148.1,0.2774,0.3618,145.4,96.7,0.531
12.54,31981.8,35044.6,-0.0799,0.1078,145.4,96.7,0.531
12.56,32039.9,34996.5,0.1526,-0.0101,145.4,96.7,0.531
12.58,31930.5,34986.8,-0.2849,-0.034,145.4,96.7,0.531
12.6,31952.3,34800.1,-0.1979,-0.4921,145.4,96.7,0.531
12.62,31947.8,34771.2,-0.2156,-0.5629,145.4,96.7,0.531
12.64,31839.9,34590.4,-0.647,-1.0063,145.4,96.7,0.531
12.66,31743.6,34618.4,-1.0321,-0.9376,145.4,96.7,0.531
12.68,31826.8,34607.0,-0.6995,-0.9657,145.4,96.7,0.531
12.7,31754.5,34601.9,-0.9884,-0.9782,145.4,96.7,0.531
12.72,31767.8,34466.4,-0.9355,-1.3106,145.4,96.7,0.531
12.74,31677.6,34517.8,-1.2961,-1.1844,145.4,96.7,0.531
12.76,31797.3,34704.9,-0.8172,-0.7256,145.4,96.7,0.531
12.78,32014.6,35034.5,0.0514,0.083,145.4,96.7,0.531
12.8,32208.7,35369.7,0.8272,0.9052,145.4,96.7,0.531
12.82,32258.3,35564.0,1.0255,1.3818,145.4,96.7,0.531
12.84,32441.9,35723.1,1.7597,1.7723,145.4,96.7,0.531
12.86,32260.7,35698.1,1.035,1.7109,145.4,96.7,0.531
12.88,32259.4,35553.1,1.0301,1.3553,145.4,96.7,0.531
12.9,32191.1,35342.4,0.757,0.8384,145.4,96.7,0.531
12.92,32199.3,35160.4,0.7896,0.3919,145.4,96.7,0.531
12.94,32018.1,35122.8,0.0653,0.2996,145.4,96.7,0.531
12.96,32000.3,34995.6,-0.0058,-0.0124,145.4,96.7,0.531
12.98,32039.6,34996.9,0.1514,-0.0093,145.4,96.7,0.531
13.0,31860.4,34889.3,-0.5651,-0.2731,145.4,96.7,0.531
13.02,31952.3,34723.4,-0.1976,-0.6801,145.4,96.7,0.531
13.04,31835.4,34740.6,-0.6652,-0.6381,145.4,96.7,0.531
13.06,31811.4,34715.3,-0.7609,-0.6999,145.4,96.7,0.531
13.08,31841.5,34579.9,-0.6408,-1.0322,145.4,96.7,0.531
13.1,31808.1,34475.2,-0.7743,-1.2889,145.4,96.7,0.531
13.12,31792.9,34540.5,-0.8352,-1.1287,145.4,96.7,0.531
13.14,31687.3,34417.6,-1.2572,-1.4302,145.4,96.7,0.531
13.16,31851.5,34480.7,-0.6007,-1.2755,145.4,96.7,0.531
13.18,31836.8,34772.2,-0.6594,-0.5603,145.4,96.7,0.531
13.2,32019.7,35090.9,0.0717,0.2213,145.4,96.7,0.531
13.22,32157.0,35527.9,0.6206,1.2934,145.4,96.7,0.531
13.24,32414.5,35660.2,1.6502,1.618,145.4,96.7,0.531
13.26,32339.9,35805.7,1.352,1.9747,145.4,96.7,0.531
13.28,32307.7,35618.6,1.2232,1.5158,145.4,96.7,0.531
13.3,32184.4,35458.8,0.73,1.1239,145.4,96.7,0.531
13.32,32080.9,35246.1,0.3165,0.6022,145.4,96.7,0.531
13.34,32055.3,35151.1,0.2142,0.369,145.4,96.7,0.531
13.36,31975.6,34994.6,-0.1046,-0.0148,145.4,96.7,0.531
13.38,32004.3,34978.0,0.0103,-0.0555,145.4,96.7,0.531
13.4,31907.0,34961.0,-0.3787,-0.0972,145.4,96.7,0.531
13.42,31876.8,34796.6,-0.4996,-0.5007,145.4,96.7,0.531
13.44,31931.2,34663.4,-0.2822,-0.8274,145.4,96.7,0.531
13.46,31908.9,34659.9,-0.3712,-0.8359,145.4,96.7,0.531
13.48,31869.4,34684.7,-0.5293,-0.7752,145.4,96.7,0.531
13.5,31855.0,34603.7,-0.5869,-0.9739,145.4,96.7,0.531
13.52,31770.8,34595.2,-0.9235,-0.9946,145.4,96.7,0.531
13.54,31752.4,34442.6,-0.997,-1.369,145.4,96.7,0.531
13.56,31714.8,34451.0,-1.1472,-1.3483,145.4,96.7,0.531
13.58,31831.9,34540.3,-0.6793,-1.1294,145.4,96.7,0.531
13.6,31946.9,34890.6,-0.2192,-0.2701,145.4,96.7,0.531
13.62,32137.5,35325.7,0.5427,0.7972,145.4,96.7,0.531
13.64,32243.4,35633.0,0.9662,1.5511,145.4,96.7,0.531
13.66,32412.2,35685.2,1.6409,1.6792,145.4,96.7,0.531
13.68,32385.6,35665.1,1.5347,1.6299,145.4,96.7,0.531
13.7,32222.9,35535.0,0.8842,1.3109,145.4,96.7,0.531
13.72,32218.4,35300.5,0.8661,0.7355,145.4,96.7,0.531
13.74,32101.3,35219.3,0.398,0.5364,145.4,96.7,0.531
13.76,32077.4,35137.7,0.3024,0.336,145.4,96.7,0.531
13.78,31997.3,35014.4,-0.0177,0.0337,145.4,96.7,0.531
13.8,32087.0,34987.6,0.3409,-0.0322,145.4,96.7,0.531
13.82,31833.5,34895.5,-0.6727,-0.258,145.4,96.7,0.531
13.84,31913.3,34738.1,-0.3538,-0.6442,145.4,96.7,0.531
13.86,31895.2,34638.0,-0.4261,-0.8895,145.4,96.7,0.531
13.88,31762.1,34647.7,-0.9581,-0.8657,145.4,96.7,0.531
13.9,31833.0,34753.6,-0.6748,-0.606,145.4,96.7,0.531
13.92,31804.9,34618.0,-0.7871,-0.9387,145.4,96.7,0.531
13.94,31816.5,34456.5,-0.7406,-1.3348,145.4,96.7,0.531
13.96,31745.3,34403.3,-1.0252,-1.4653,145.4,96.7,0.531
13.98,31742.8,34457.2,-1.0354,-1.3332,145.4,96.7,0.531
14.0,31914.7,34766.1,-0.348,-0.5753,145.4,96.7,0.531
14.02,32050.5,34982.5,0.195,-0.0446,145.4,96.7,0.531
14.04,32165.1,35493.8,0.6531,1.2097,145.4,96.7,0.531
14.06,32374.3,35637.7,1.4893,1.5626,145.4,96.7,0.531
14.08,32286.0,35787.9,1.1363,1.9312,145.4,96.7,0.531
14.1,32334.7,35662.0,1.3312,1.6223,145.4,96.7,0.531
14.12,32199.0,35440.5,0.7885,1.079,145.4,96.7,0.531
14.14,32256.9,35216.2,1.02,0.5288,145.4,96.7,0.531
14.16,32069.1,35203.1,0.2692,0.4967,145.4,96.7,0.531
14.18,32092.3,35055.2,0.3621,0.1339,145.4,96.7,0.531
14.2,31969.2,35042.1,-0.1301,0.1017,145.4,96.7,0.531
14.22,31995.2,35026.5,-0.0261,0.0633,145.4,96.7,0.531
14.24,31984.1,34878.4,-0.0708,-0.3,145.4,96.7,0.531
14.26,31805.6,34880.6,-0.7842,-0.2946,145.4,96.7,0.531
14.28,31820.4,34647.3,-0.7249,-0.8667,145.4,96.7,0.531
14.3,31836.8,34668.7,-0.6595,-0.8142,145.4,96.7,0.531
14.32,31851.7,34611.9,-0.5998,-0.9537,145.4,96.7,0.531
14.34,31780.9,34621.9,-0.8829,-0.9291,145.4,96.7,0.531
14.36,31705.6,34524.9,-1.1842,-1.1671,145.4,96.7,0.531
14.38,31742.7,34481.2,-1.0356,-1.2742,145.4,96.7,0.531
14.4,31787.2,34536.9,-0.858,-1.1376,145.4,96.7,0.531
14.42,31843.1,34789.2,-0.6342,-0.5187,145.4,96.7,0.531
14.44,32034.8,35159.1,0.1321,0.3887,145.4,96.7,0.531
14.46,32285.5,35617.5,1.1344,1.5132,145.4,96.7,0.531
14.48,32381.7,35739.4,1.5191,1.8122,145.4,96.7,0.531
14.5,32371.4,35830.5,1.4778,2.0357,145.4,96.7,0.531
14.52,32334.5,35666.8,1.3303,1.634,145.4,96.7,0.531
14.54,32212.1,35444.3,0.8408,1.0883,145.4,96.7,0.531
14.56,32185.7,35326.7,0.7353,0.7998,145.4,96.7,0.531
14.58,32032.2,35192.1,0.1217,0.4697,145.4,96.7,0.531
14.6,32073.5,35030.6,0.2869,0.0734,145.4,96.7,0.531
14.62,31985.1,35023.7,-0.0667,0.0565,145.4,96.7,0.531
14.64,31920.2,34977.4,-0.3262,-0.057,145.4,96.7,0.531
14.66,31874.9,34861.1,-0.5071,-0.3423,145.4,96.7,0.531
14.68,31799.8,34635.1,-0.8073,-0.8968,145.4,96.7,0.531
14.7,31917.0,34737.0,-0.339,-0.6467,145.4,96.7,0.531
14.72,31843.8,34666.7,-0.6314,-0.8191,145.4,96.7,0.531
14.74,31843.8,34644.5,-0.6315,-0.8737,145.4,96.7,0.531
14.76,31736.8,34598.3,-1.0591,-0.987,145.4,96.7,0.531
14.78,31729.9,34548.0,-1.0868,-1.1103,145.4,96.7,0.531
14.8,31713.6,34432.1,-1.1522,-1.3948,145.4,96.7,0.531
14.82,31861.7,34544.9,-0.56,-1.1179,145.4,96.7,0.531
14.84,32056.4,34917.8,0.2183,-0.2033,145.4,96.7,0.531
14.86,32145.8,35248.9,0.5757,0.609,145.4,96.7,0.531
14.88,32318.1,35600.2,1.2645,1.4707,145.4,96.7,0.531
14.9,32345.0,35711.9,1.3722,1.7447,145.4,96.7,0.531
14.92,32392.1,35748.0,1.5607,1.8334,145.4,96.7,0.531
14.94,32280.0,35542.0,1.1124,1.3279,145.4,96.7,0.531
14.96,32113.7,35330.8,0.4477,0.81,145.4,96.7,0.531
14.98,32175.8,35166.5,0.6958,0.4068,145.4,96.7,0.531
15.0,31956.0,35158.0,-0.1828,0.386,145.4,96.7,0.531
15.02,31897.7,35058.4,-0.4161,0.1416,145.4,96.7,0.531
15.04,31964.4,34901.9,-0.1492,-0.2422,145.4,96.7,0.531
15.06,31832.3,34866.2,-0.6776,-0.3297,145.4,96.7,0.531
15.08,31863.9,34823.1,-0.5513,-0.4356,145.4,96.7,0.531
15.1,31789.4,34619.8,-0.849,-0.9343,145.4,96.7,0.531
15.12,31877.1,34691.8,-0.4982,-0.7577,145.4,96.7,0.531
15.14,31848.7,34643.3,-0.6118,-0.8766,145.4,96.7,0.531
15.16,31834.6,34678.2,-0.6684,-0.791,145.4,96.7,0.531
15.18,31777.9,34543.4,-0.8949,-1.1216,145.4,96.7,0.531
15.2,31715.0,34533.9,-1.1466,-1.1451,145.4,96.7,0.531
15.22,31746.4,34435.1,-1.0208,-1.3874,145.4,96.7,0.531
15.24,31839.1,34702.3,-0.6503,-0.732,145.4,96.7,0.531
15.26,32086.6,35049.2,0.3391,0.1191,145.4,96.7,0.531
15.28,32133.8,35442.8,0.5278,1.0845,145.4,96.7,0.531
15.3,32320.3,35750.5,1.2733,1.8393,145.4,96.7,0.531
15.32,32272.7,35783.0,1.0831,1.9191,145.4,96.7,0.531
15.34,32357.0,35590.9,1.4201,1.4479,145.4,96.7,0.531
15.36,32198.1,35459.8,0.785,1.1263,145.4,96.7,0.531
15.38,32052.4,35226.4,0.2025,0.5537,145.4,96.7,0.531
15.4,32107.4,35164.7,0.4224,0.4023,145.4,96.7,0.531
15.42,32097.8,35087.7,0.384,0.2134,145.4,96.7,0.531
15.44,32053.2,35010.2,0.2056,0.0235,145.4,96.7,0.531
15.46,32025.4,34937.6,0.0945,-0.1546,145.4,96.7,0.531
15.48,31929.6,34765.2,-0.2884,-0.5777,145.4,96.7,0.531
15.5,31927.7,34709.5,-0.2961,-0.7141,145.4,96.7,0.531
15.52,31816.0,34562.8,-0.7425,-1.0741,145.4,96.7,0.531
15.54,31853.6,34654.0,-0.5925,-0.8503,145.4,96.7,0.531
15.56,31840.4,34670.9,-0.6452,-0.809,145.4,96.7,0.531
15.58,31757.1,34565.4,-0.978,-1.0677,145.4,96.7,0.531
15.6,31678.3,34540.4,-1.2933,-1.1292,145.4,96.7,0.531
15.62,31783.3,34407.1,-0.8736,-1.456,145.4,96.7,0.531
15.64,31782.9,34536.0,-0.8752,-1.1399,145.4,96.7,0.531
15.66,31904.5,34859.2,-0.3889,-0.3471,145.4,96.7,0.531
15.68,32094.5,35175.1,0.3706,0.428,145.4,96.7,0.531
15.7,32265.6,35535.6,1.0547,1.3123,145.4,96.7,0.531
15.72,32417.7,35748.6,1.6628,1.8347,145.4,96.7,0.531
15.74,32344.9,35750.0,1.3718,1.8382,145.4,96.7,0.531
15.76,32179.6,35691.1,0.7108,1.6938,145.4,96.7,0.531
15.78,32152.0,35360.3,0.6006,0.8823,145.4,96.7,0.531
15.8,32117.0,35184.5,0.4607,0.4509,145.4,96.7,0.531
15.82,32091.2,35085.5,0.3575,0.2081,145.4,96.7,0.531
15.84,32041.2,35038.0,0.1577,0.0915,145.4,96.7,0.531
15.86,32062.5,35072.0,0.2429,0.1749,145.4,96.7,0.531
15.88,31943.8,34889.7,-0.2316,-0.2722,145.4,96.7,0.531
15.9,31889.7,34841.5,-0.4479,-0.3905,145.4,96.7,0.531
15.92,31850.7,34615.4,-0.6041,-0.9451,145.4,96.7,0.531
15.94,31846.4,34636.6,-0.6211,-0.893,145.4,96.7,0.531
15.96,31792.9,34670.4,-0.8351,-0.8102,145.4,96.7,0.531
15.98,31861.9,34632.5,-0.5591,-0.9032,145.4,96.7,0.531
16.0,31694.1,34605.1,-1.2299,-0.9704,145.4,96.7,0.531
16.02,31689.8,34393.2,-1.247,-1.4902,145.4,96.7,0.531
16.04,31720.7,34501.7,-1.1236,-1.2239,145.4,96.7,0.531
16.06,31783.6,34680.2,-0.8721,-0.7861,145.4,96.7,0.531
16.08,31951.0,35002.0,-0.2029,0.0032,145.4,96.7,0.531
16.1,32176.7,35331.0,0.6993,0.8104,145.4,96.7,0.531
16.12,32266.4,35719.7,1.0582,1.7637,145.4,96.7,0.531
16.14,32297.1,35726.5,1.1806,1.7805,145.4,96.7,0.531
16.16,32324.2,35698.9,1.2889,1.7129,145.4,96.7,0.531
16.18,32269.1,35482.6,1.069,1.1823,145.4,96.7,0.531
16.2,32217.4,35226.4,0.862,0.5538,145.4,96.7,0.531
16.22,32162.2,35119.5,0.6413,0.2915,145.4,96.7,0.531
16.24,32116.2,35115.9,0.4574,0.2827,145.4,96.7,0.531
16.26,31948.9,34973.0,-0.2112,-0.0679,145.4,96.7,0.531
16.28,32005.9,34885.1,0.0165,-0.2835,145.4,96.7,0.531
16.3,31988.6,34798.8,-0.0526,-0.4952,145.4,96.7,0.531
16.32,31866.1,34714.8,-0.5423,-0.7013,145.4,96.7,0.531
16.34,31820.0,34675.5,-0.7266,-0.7977,145.4,96.7,0.531
16.36,31799.7,34732.6,-0.8078,-0.6576,145.4,96.7,0.531
16.38,31793.4,34513.9,-0.8331,-1.194,145.4,96.7,0.531
16.4,31753.7,34511.5,-0.9918,-1.2,145.4,96.7,0.531
16.42,31717.8,34542.0,-1.1353,-1.1251,145.4,96.7,0.531
16.44,31780.4,34470.0,-0.885,-1.3018,145.4,96.7,0.531
16.46,31817.0,34546.3,-0.7387,-1.1146,145.4,96.7,0.531
16.48,31941.3,34729.2,-0.2419,-0.6658,145.4,96.7,0.531
16.5,32023.3,35100.3,0.0863,0.2445,145.4,96.7,0.531
16.52,32163.4,35465.1,0.646,1.1394,145.4,96.7,0.531
16.54,32331.1,35739.9,1.3166,1.8134,145.4,96.7,0.531
16.56,32324.0,35790.0,1.2885,1.9362,145.4,96.7,0.531
16.58,32368.3,35621.6,1.4655,1.5233,145.4,96.7,0.531
16.6,32175.2,35403.2,0.6934,0.9873,145.4,96.7,0.531
16.62,32113.1,35243.0,0.4453,0.5944,145.4,96.7,0.531
16.64,32131.4,35170.2,0.5184,0.4158,145.4,96.7,0.531
16.66,32031.5,35105.8,0.1191,0.2579,145.4,96.7,0.531
16.68,32109.0,35032.7,0.4286,0.0786,145.4,96.7,0.531
16.7,31971.1,34946.5,-0.1227,-0.1328,145.4,96.7,0.531
16.72,31948.1,34804.9,-0.2145,-0.4803,145.4,96.7,0.531
16.74,31783.4,34763.8,-0.8729,-0.581,145.4,96.7,0.531
16.76,31900.1,34661.8,-0.4064,-0.8311,145.4,96.7,0.531
16.78,31788.6,34692.1,-0.8521,-0.7568,145.4,96.7,0.531
16.8,31762.6,34705.6,-0.9562,-0.7239,145.4,96.7,0.531
16.82,31751.5,34545.1,-1.0004,-1.1174,145.4,96.7,0.531
16.84,31774.0,34499.9,-0.9106,-1.2285,145.4,96.7,0.531
16.86,31697.8,34468.3,-1.2152,-1.3059,145.4,96.7,0.531
16.88,31811.1,34486.1,-0.7622,-1.2622,145.4,96.7,0.531
16.9,31938.8,34876.3,-0.2519,-0.3051,145.4,96.7,0.531
16.92,32096.2,35173.0,0.3776,0.4226,145.4,96.7,0.531
16.94,32267.2,35595.3,1.0611,1.4588,145.4,96.7,0.531
16.96,32390.3,35697.7,1.5533,1.7098,145.4,96.7,0.531
16.98,32426.5,35708.5,1.698,1.7363,145.4,96.7,0.531
17.0,32332.2,35557.9,1.321,1.367,145.4,96.7,0.531
17.02,32191.7,35354.4,0.7593,0.8676,145.4,96.7,0.531
17.04,32076.3,35219.6,0.298,0.5371,145.4,96.7,0.531
17.06,32010.6,35140.8,0.0352,0.3437,145.4,96.7,0.531
17.08,32079.9,35057.9,0.3125,0.1403,145.4,96.7,0.531
17.1,32044.1,35093.5,0.1693,0.2278,145.4,96.7,0.531
17.12,32010.4,34856.7,0.0344,-0.3531,145.4,96.7,0.531
17.14,31918.6,34771.6,-0.3324,-0.5619,145.4,96.7,0.531
17.16,31860.8,34714.7,-0.5636,-0.7014,145.4,96.7,0.531
17.18,31817.8,34710.7,-0.7354,-0.7113,145.4,96.7,0.531
17.2,31838.0,34604.2,-0.6546,-0.9727,145.4,96.7,0.531
17.22,31864.2,34575.0,-0.5498,-1.0442,145.4,96.7,0.531
17.24,31737.0,34636.9,-1.0584,-0.8924,145.4,96.7,0.531
17.26,31744.3,34498.9,-1.0291,-1.2308,145.4,96.7,0.531
17.28,31675.2,34484.6,-1.3054,-1.266,145.4,96.7,0.531
17.3,31816.4,34622.0,-0.7409,-0.9288,145.4,96.7,0.531
17.32,31986.5,34941.2,-0.0608,-0.1459,145.4,96.7,0.531
17.34,32243.0,35334.7,0.9646,0.8195,145.4,96.7,0.531
17.36,32394.0,35553.3,1.568,1.3556,145.4,96.7,0.531
17.38,32367.8,35826.7,1.4633,2.0264,145.4,96.7,0.531
17.4,32267.1,35579.8,1.0606,1.4205,145.4,96.7,0.531
17.42,32237.3,35455.1,0.9415,1.1148,145.4,96.7,0.531
17.44,32053.3,35270.5,0.2059,0.6619,145.4,96.7,0.531
17.46,32169.0,35068.0,0.6685,0.1652,145.4,96.7,0.531
17.48,32029.4,35116.2,0.1106,0.2834,145.4,96.7,0.531
17.5,32063.6,35098.6,0.2472,0.2404,145.4,96.7,0.531
17.52,31867.9,34910.3,-0.5352,-0.2216,145.4,96.7,0.531
17.54,31981.5,34739.2,-0.0812,-0.6413,145.4,96.7,0.531
17.56,31975.3,34754.2,-0.1057,-0.6045,145.4,96.7,0.531
17.58,31808.7,34679.8,-0.772,-0.787,145.4,96.7,0.531
17.6,31879.4,34703.1,-0.4891,-0.73,145.4,96.7,0.531
17.62,31815.0,34637.8,-0.7468,-0.8901,145.4,96.7,0.531
17.64,31868.5,34691.5,-0.5328,-0.7583,145.4,96.7,0.531
17.66,31799.9,34450.5,-0.8072,-1.3496,145.4,96.7,0.531
17.68,31756.1,34444.4,-0.9821,-1.3645,145.4,96.7,0.531
17.7,31787.7,34593.3,-0.8558,-0.9992,145.4,96.7,0.531
17.72,31951.9,34737.7,-0.1993,-0.645,145.4,96.7,0.531
17.74,32066.5,35043.7,0.2586,0.1056,145.4,96.7,0.531
17.76,32240.7,35454.5,0.9551,1.1132,145.4,96.7,0.531
17.78,32294.7,35714.9,1.1713,1.7521,145.4,96.7,0.531
17.8,32274.6,35776.2,1.0907,1.9023,145.4,96.7,0.531
17.82,32284.5,35611.9,1.1302,1.4994,145.4,96.7,0.531
17.84,32249.2,35312.0,0.9892,0.7638,145.4,96.7,0.531
17.86,32038.5,35190.1,0.1467,0.4648,145.4,96.7,0.531
17.88,32135.4,35173.6,0.5343,0.4243,145.4,96.7,0.531
17.9,32018.6,35104.7,0.0674,0.2551,145.4,96.7,0.531
17.92,31970.2,35045.4,-0.1262,0.1098,145.4,96.7,0.531
17.94,32004.9,34972.0,0.0127,-0.0703,145.4,96.7,0.531
17.96,31853.0,34770.8,-0.5948,-0.564,145.4,96.7,0.531
17.98,31919.3,34768.8,-0.3297,-0.5687,145.4,96.7,0.531
18.0,31899.5,34611.3,-0.4089,-0.9551,145.4,96.7,0.531
18.02,31826.5,34654.2,-0.7005,-0.8499,145.4,96.7,0.531
18.04,31712.4,34598.3,-1.157,-0.9871,145.4,96.7,0.531
18.06,31767.5,34558.2,-0.9366,-1.0853,145.4,96.7,0.531
18.08,31662.6,34540.4,-1.3558,-1.129,145.4,96.7,0.531
18.1,31666.4,34495.3,-1.3407,-1.2397,145.4,96.7,0.531
18.12,31764.1,34526.2,-0.9503,-1.1639,145.4,96.7,0.531
18.14,31914.2,34880.8,-0.3499,-0.294,145.4,96.7,0.531
18.16,32070.2,35387.7,0.2734,0.9495,145.4,96.7,0.531
18.18,32323.6,35540.7,1.2867,1.3248,145.4,96.7,0.531
18.2,32431.4,35801.7,1.7178,1.9651,145.4,96.7,0.531
18.22,32341.7,35647.9,1.3591,1.5877,145.4,96.7,0.531
18.24,32281.8,35613.7,1.1196,1.5039,145.4,96.7,0.531
18.26,32076.8,35331.8,0.2999,0.8122,145.4,96.7,0.531
18.28,32019.7,35136.6,0.0716,0.3335,145.4,96.7,0.531
18.3,32095.9,34974.7,0.3762,-0.0636,145.4,96.7,0.531
18.32,32069.3,35125.3,0.2699,0.3057,145.4,96.7,0.531
18.34,31934.9,34955.2,-0.2672,-0.1116,145.4,96.7,0.531
18.36,31986.5,34915.4,-0.061,-0.2092,145.4,96.7,0.531
18.38,31902.5,34756.9,-0.3968,-0.598,145.4,96.7,0.531
18.4,31795.3,34724.9,-0.8254,-0.6765,145.4,96.7,0.531
18.42,31895.6,34698.7,-0.4246,-0.7408,145.4,96.7,0.531
18.44,31882.7,34637.9,-0.4758,-0.8899,145.4,96.7,0.531
18.46,31851.0,34660.4,-0.6028,-0.8346,145.4,96.7,0.531
18.48,31781.5,34543.8,-0.8807,-1.1207,145.4,96.7,0.531
18.5,31831.2,34481.7,-0.682,-1.273,145.4,96.7,0.531
18.52,31766.0,34514.1,-0.9425,-1.1936,145.4,96.7,0.531
18.54,31899.4,34707.5,-0.4092,-0.7191,145.4,96.7,0.531
18.56,31907.4,34981.1,-0.3773,-0.0479,145.4,96.7,0.531
18.58,32270.5,35379.3,1.0745,0.9288,145.4,96.7,0.531
18.6,32275.3,35666.8,1.0937,1.6341,145.4,96.7,0.531
18.62,32315.0,35677.6,1.2523,1.6605,145.4,96.7,0.531
18.64,32311.1,35620.3,1.2369,1.5201,145.4,96.7,0.531
18.66,32212.1,35488.7,0.841,1.1972,145.4,96.7,0.531
18.68,32110.1,35306.0,0.433,0.7491,145.4,96.7,0.531
18.7,32015.5,35099.5,0.0551,0.2425,145.4,96.7,0.531
18.72,32060.3,35071.0,0.2339,0.1727,145.4,96.7,0.531
18.74,32000.9,35041.6,-0.0033,0.1003,145.4,96.7,0.531
18.76,31969.6,34883.8,-0.1287,-0.2866,145.4,96.7,0.531
18.78,31959.2,34932.1,-0.1701,-0.1681,145.4,96.7,0.531
18.8,31830.1,34739.3,-0.6861,-0.6412,145.4,96.7,0.531
18.82,31848.2,34675.0,-0.614,-0.7988,145.4,96.7,0.531
18.84,31804.8,34661.0,-0.7876,-0.8331,145.4,96.7,0.531
18.86,31867.2,34661.1,-0.538,-0.8331,145.4,96.7,0.531
18.88,31807.8,34584.2,-0.7756,-1.0215,145.4,96.7,0.531
18.9,31736.0,34426.8,-1.0623,-1.4078,145.4,96.7,0.531
18.92,31712.9,34478.3,-1.1548,-1.2813,145.4,96.7,0.531
18.94,31831.4,34561.6,-0.681,-1.0771,145.4,96.7,0.531
18.96,31872.3,34743.1,-0.5175,-0.6317,145.4,96.7,0.531
18.98,32088.7,35096.1,0.3475,0.2341,145.4,96.7,0.531
19.0,32306.7,35559.2,1.2192,1.37,145.4,96.7,0.531
19.02,32345.6,35715.8,1.3747,1.7542,145.4,96.7,0.531
19.04,32298.6,35718.9,1.1868,1.7618,145.4,96.7,0.531
19.06,32281.0,35548.6,1.1164,1.3442,145.4,96.7,0.531
19.08,32233.9,35374.5,0.9281,0.9171,145.4,96.7,0.531
19.1,32067.1,35130.9,0.2613,0.3195,145.4,96.7,0.531
19.12,32086.8,35142.4,0.34,0.3477,145.4,96.7,0.531
19.14,31982.9,35031.6,-0.0753,0.0759,145.4,96.7,0.531
19.16,31918.8,34966.5,-0.3318,-0.0838,145.4,96.7,0.531
19.18,31921.8,34890.6,-0.3199,-0.2699,145.4,96.7,0.531
19.2,31844.7,34756.2,-0.628,-0.5997,145.4,96.7,0.531
19.22,31760.0,34742.8,-0.9665,-0.6326,145.4,96.7,0.531
19.24,31923.6,34665.7,-0.3125,-0.8217,145.4,96.7,0.531
19.26,31781.7,34690.2,-0.8796,-0.7617,145.4,96.7,0.531
19.28,31907.5,34608.1,-0.3768,-0.9629,145.4,96.7,0.531
19.3,31819.3,34446.7,-0.7293,-1.3589,145.4,96.7,0.531
19.32,31824.8,34472.2,-0.7074,-1.2963,145.4,96.7,0.531
19.34,31688.7,34401.0,-1.2514,-1.471,145.4,96.7,0.531
19.36,31842.5,34607.9,-0.6366,-0.9635,145.4,96.7,0.531
19.38,32018.1,34882.8,0.0651,-0.289,145.4,96.7,0.531
19.4,32142.8,35295.5,0.5639,0.7232,145.4,96.7,0.531
19.42,32225.6,35630.2,0.8948,1.5443,145.4,96.7,0.531
19.44,32328.7,35764.3,1.307,1.8732,145.4,96.7,0.531
19.46,32412.2,35743.1,1.641,1.8214,145.4,96.7,0.531
19.48,32263.2,35378.7,1.0452,0.9273,145.4,96.7,0.531
19.5,32151.9,35373.1,0.6001,0.9136,145.4,96.7,0.531
19.52,32094.9,35280.2,0.3725,0.6856,145.4,96.7,0.531
19.54,32150.8,35095.4,0.5959,0.2325,145.4,96.7,0.531
19.56,32056.1,35034.6,0.2172,0.0832,145.4,96.7,0.531
19.58,32072.2,34992.1,0.2818,-0.0211,145.4,96.7,0.531
19.6,31906.2,34722.1,-0.3819,-0.6833,145.4,96.7,0.531
19.62,31926.3,34823.9,-0.3018,-0.4335,145.4,96.7,0.531
19.64,31865.6,34694.9,-0.5442,-0.7499,145.4,96.7,0.531
19.66,31755.9,34772.8,-0.983,-0.559,145.4,96.7,0.531
19.68,31856.6,34599.8,-0.5802,-0.9832,145.4,96.7,0.531
19.7,31890.6,34589.4,-0.4444,-1.0089,145.4,96.7,0.531
19.72,31719.2,34568.9,-1.1297,-1.0592,145.4,96.7,0.531
19.74,31706.8,34484.5,-1.1791,-1.2661,145.4,96.7,0.531
19.76,31826.5,34539.2,-0.7005,-1.1321,145.4,96.7,0.531
19.78,31863.2,34738.2,-0.5538,-0.6437,145.4,96.7,0.531
19.8,31961.5,35105.3,-0.1609,0.2567,145.4,96.7,0.531
19.82,32196.0,35460.1,0.7763,1.1271,145.4,96.7,0.531
19.84,32252.7,35710.4,1.0031,1.7411,145.4,96.7,0.531
19.86,32323.9,35750.5,1.288,1.8394,145.4,96.7,0.531
19.88,32267.0,35629.8,1.0605,1.5432,145.4,96.7,0.531
19.9,32134.6,35414.2,0.5311,1.0145,145.4,96.7,0.531
19.92,32072.3,35302.9,0.282,0.7413,145.4,96.7,0.531
19.94,32013.2,35033.2,0.0458,0.0797,145.4,96.7,0.531
19.96,32071.9,35178.2,0.2802,0.4356,145.4,96.7,0.531
19.98,32028.9,35098.2,0.1083,0.2392,145.4,96.7,0.531
20.0,31934.5,34881.4,-0.2687,-0.2926,145.4,96.7,0.531
20.02,31982.5,34805.1,-0.0772,-0.4798,145.4,96.7,0.531
20.04,31843.1,34724.5,-0.6341,-0.6775,145.4,96.7,0.531
20.06,31901.4,34703.1,-0.4014,-0.7299,145.4,96.7,0.531
20.08,31831.2,34753.8,-0.682,-0.6057,145.4,96.7,0.531
20.1,31847.6,34633.7,-0.6162,-0.9001,145.4,96.7,0.531
20.12,31739.9,34572.7,-1.0469,-1.0498,145.4,96.7,0.531
20.14,31743.0,34549.4,-1.0347,-1.107,145.4,96.7,0.531
20.16,31717.4,34494.6,-1.1368,-1.2414,145.4,96.7,0.531
20.18,31711.2,34583.7,-1.1618,-1.0228,145.4,96.7,0.531
20.2,31995.5,34809.0,-0.0251,-0.4703,145.4,96.7,0.531
20.22,32130.8,35262.2,0.5158,0.6416,145.4,96.7,0.531
20.24,32343.3,35543.8,1.3653,1.3322,145.4,96.7,0.531
20.26,32368.7,35784.9,1.4668,1.9238,145.4,96.7,0.531
20.28,32398.8,35677.1,1.5875,1.6593,145.4,96.7,0.531
20.3,32313.9,35545.9,1.2477,1.3374,145.4,96.7,0.531
20.32,32124.7,35211.6,0.4916,0.5176,145.4,96.7,0.531
20.34,32066.2,35191.3,0.2578,0.4675,145.4,96.7,0.531
20.36,31985.0,35206.6,-0.0672,0.5053,145.4,96.7,0.531
20.38,31996.5,35080.0,-0.0212,0.1947,145.4,96.7,0.531
20.4,32041.2,35049.5,0.1575,0.1198,145.4,96.7,0.531
20.42,31992.8,34927.4,-0.0359,-0.1798,145.4,96.7,0.531
20.44,31917.5,34808.4,-0.3369,-0.4715,145.4,96.7,0.531
20.46,31854.5,34626.4,-0.5889,-0.9182,145.4,96.7,0.531
20.48,31793.8,34656.3,-0.8315,-0.8448,145.4,96.7,0.531
20.5,31771.3,34529.7,-0.9212,-1.1553,145.4,96.7,0.531
20.52,31878.0,34592.3,-0.4947,-1.0016,145.4,96.7,0.531
20.54,31716.6,34487.6,-1.14,-1.2587,145.4,96.7,0.531
20.56,31706.2,34420.0,-1.1816,-1.4245,145.4,96.7,0.531
20.58,31772.1,34455.8,-0.9181,-1.3367,145.4,96.7,0.531
20.6,31799.9,34627.1,-0.8071,-0.9164,145.4,96.7,0.531
20.62,32036.8,34926.9,0.1402,-0.1811,145.4,96.7,0.531
20.64,32223.4,35278.0,0.8862,0.6803,145.4,96.7,0.531
20.66,32273.4,35663.9,1.086,1.6269,145.4,96.7,0.531
20.68,32445.0,35716.9,1.7721,1.7569,145.4,96.7,0.531
20.7,32356.3,35685.4,1.4173,1.6798,145.4,96.7,0.531
20.72,32165.4,35437.3,0.6543,1.0712,145.4,96.7,0.531
20.74,32215.4,35312.7,0.8542,0.7656,145.4,96.7,0.531
20.76,32135.1,35183.2,0.533,0.4479,145.4,96.7,0.531
20.78,31993.6,35191.1,-0.0326,0.4672,145.4,96.7,0.531
20.8,32037.5,35061.2,0.143,0.1485,145.4,96.7,0.531
20.82,31859.2,35035.9,-0.5699,0.0864,145.4,96.7,0.531
20.84,31936.3,34839.7,-0.2618,-0.3948,145.4,96.7,0.531
20.86,31950.1,34792.5,-0.2066,-0.5105,145.4,96.7,0.531
20.88,31890.3,34663.3,-0.4455,-0.8276,145.4,96.7,0.531
20.9,31852.3,34640.1,-0.5977,-0.8845,145.4,96.7,0.531
20.92,31827.9,34662.0,-0.6951,-0.8308,145.4,96.7,0.531
20.94,31840.2,34600.5,-0.6459,-0.9815,145.4,96.7,0.531
20.96,31785.6,34608.3,-0.8641,-0.9625,145.4,96.7,0.531
20.98,31682.2,34426.0,-1.2776,-1.4098,145.4,96.7,0.531
21.0,31691.5,34509.0,-1.2403,-1.206,145.4,96.7,0.531
21.02,31891.7,34718.2,-0.44,-0.693,145.4,96.7,0.531
21.04,32164.9,35073.3,0.6521,0.1781,145.4,96.7,0.531
21.06,32221.9,35532.4,0.88,1.3044,145.4,96.7,0.531
21.08,32245.7,35727.0,0.9752,1.7817,145.4,96.7,0.531
21.1,32385.5,35669.6,1.534,1.641,145.4,96.7,0.531
21.12,32244.7,35550.6,0.9711,1.3489,145.4,96.7,0.531
21.14,32144.5,35366.5,0.5705,0.8974,145.4,96.7,0.531
21.16,32127.7,35226.8,0.5034,0.5546,145.4,96.7,0.531
21.18,32024.8,35089.2,0.0919,0.2172,145.4,96.7,0.531
21.2,32031.6,35115.8,0.1192,0.2825,145.4,96.7,0.531
21.22,31978.4,35075.4,-0.0936,0.1834,145.4,96.7,0.531
21.24,31974.7,35048.3,-0.1084,0.1168,145.4,96.7,0.531
21.26,31891.8,34752.6,-0.4396,-0.6086,145.4,96.7,0.531
21.28,31818.2,34731.2,-0.7339,-0.661,145.4,96.7,0.531
21.3,31920.6,34688.3,-0.3244,-0.7663,145.4,96.7,0.531
21.32,31838.5,34676.5,-0.6526,-0.7951,145.4,96.7,0.531
21.34,31803.8,34610.1,-0.7916,-0.958,145.4,96.7,0.531
21.36,31910.7,34563.3,-0.364,-1.0728,145.4,96.7,0.531
21.38,31765.7,34414.3,-0.9438,-1.4383,145.4,96.7,0.531
21.4,31837.6,34484.7,-0.6562,-1.2656,145.4,96.7,0.531
21.42,31787.3,34643.0,-0.8573,-0.8774,145.4,96.7,0.531
21.44,31946.1,34875.6,-0.2225,-0.3069,145.4,96.7,0.531
21.46,32120.4,35264.7,0.4745,0.6477,145.4,96.7,0.531
21.48,32377.4,35556.0,1.5018,1.3622,145.4,96.7,0.531
21.5,32325.0,35688.3,1.2921,1.6869,145.4,96.7,0.531
21.52,32374.0,35651.7,1.4881,1.5969,145.4,96.7,0.531
21.54,32258.6,35562.7,1.0267,1.3787,145.4,96.7,0.531
21.56,32090.7,35370.0,0.3554,0.906,145.4,96.7,0.531
21.58,32055.3,35208.2,0.2141,0.5092,145.4,96.7,0.531
21.6,32061.0,35230.8,0.2369,0.5645,145.4,96.7,0.531
21.62,31989.6,35046.2,-0.0488,0.1118,145.4,96.7,0.531
21.64,31960.7,35022.6,-0.1642,0.0539,145.4,96.7,0.531
21.66,31928.9,34869.2,-0.2914,-0.3224,145.4,96.7,0.531
21.68,31866.4,34849.3,-0.5412,-0.3714,145.4,96.7,0.531
21.7,31848.3,34668.5,-0.6137,-0.8147,145.4,96.7,0.531
21.72,31885.3,34757.5,-0.4656,-0.5964,145.4,96.7,0.531
21.74,31908.0,34554.6,-0.3747,-1.0942,145.4,96.7,0.531
21.76,31870.3,34691.0,-0.5258,-0.7597,145.4,96.7,0.531
21.78,31811.6,34556.4,-0.7603,-1.0897,145.4,96.7,0.531
21.8,31736.1,34494.6,-1.0621,-1.2414,145.4,96.7,0.531
21.82,31699.6,34485.6,-1.2082,-1.2634,145.4,96.7,0.531
21.84,31766.8,34707.5,-0.9392,-0.7193,145.4,96.7,0.531
21.86,32104.3,35008.1,0.4098,0.0183,145.4,96.7,0.531
21.88,32152.9,35446.1,0.604,1.0926,145.4,96.7,0.531
21.9,32260.0,35688.3,1.0323,1.6869,145.4,96.7,0.531
21.92,32384.9,35729.3,1.5316,1.7875,145.4,96.7,0.531
21.94,32299.5,35590.6,1.1904,1.447,145.4,96.7,0.531
21.96,32227.5,35342.0,0.9024,0.8374,145.4,96.7,0.531
21.98,32073.6,35261.7,0.2874,0.6402,145.4,96.7,0.531
22.0,32103.0,35131.9,0.4046,0.322,145.4,96.7,0.531
22.02,32088.9,35069.3,0.3486,0.1684,145.4,96.7,0.531
22.04,31979.4,35096.9,-0.0895,0.236,145.4,96.7,0.531
22.06,32071.5,34916.9,0.2788,-0.2054,145.4,96.7,0.531
22.08,31947.3,34950.5,-0.2178,-0.1232,145.4,96.7,0.531
22.1,31936.7,34734.0,-0.2603,-0.6542,145.4,96.7,0.531
22.12,31843.0,34683.6,-0.6347,-0.7777,145.4,96.7,0.531
22.14,31833.2,34643.8,-0.674,-0.8753,145.4,96.7,0.531
22.16,31760.2,34700.2,-0.9658,-0.7371,145.4,96.7,0.531
22.18,31781.7,34687.4,-0.8798,-0.7686,145.4,96.7,0.531
22.2,31719.3,34429.9,-1.1291,-1.4,145.4,96.7,0.531
22.22,31701.7,34449.8,-1.1997,-1.3514,145.4,96.7,0.531
22.24,31725.0,34552.0,-1.1063,-1.1007,145.4,96.7,0.531
22.26,31872.9,34829.2,-0.515,-0.4206,145.4,96.7,0.531
22.28,32027.0,35081.9,0.1008,0.1994,145.4,96.7,0.531
22.3,32239.1,35472.6,0.9487,1.1576,145.4,96.7,0.531
22.32,32360.0,35729.3,1.4321,1.7874,145.4,96.7,0.531
22.34,32345.5,35696.3,1.3742,1.7065,145.4,96.7,0.531
22.36,32277.1,35598.4,1.1009,1.4662,145.4,96.7,0.531
22.38,32253.7,35493.3,1.0073,1.2085,145.4,96.7,0.531
22.4,32110.8,35140.4,0.4358,0.3429,145.4,96.7,0.531
22.42,32101.4,35233.5,0.3984,0.5712,145.4,96.7,0.531
22.44,32030.8,35026.7,0.1161,0.064,145.4,96.7,0.531
22.46,32043.7,35105.2,0.1676,0.2563,145.4,96.7,0.531
22.48,31998.3,34857.3,-0.014,-0.3516,145.4,96.7,0.531
22.5,31804.4,34719.7,-0.7891,-0.6893,145.4,96.7,0.531
22.52,31893.9,34748.0,-0.4311,-0.6197,145.4,96.7,0.531
22.54,31807.8,34751.5,-0.7756,-0.6111,145.4,96.7,0.531
22.56,31838.3,34595.9,-0.6533,-0.993,145.4,96.7,0.531
22.58,31845.0,34597.2,-0.6266,-0.9897,145.4,96.7,0.531
22.6,31830.3,34597.7,-0.6854,-0.9884,145.4,96.7,0.531
22.62,31879.3,34461.2,-0.4895,-1.3232,145.4,96.7,0.531
22.64,31637.4,34444.2,-1.4567,-1.3649,145.4,96.7,0.531
22.66,31856.6,34593.7,-0.5802,-0.9984,145.4,96.7,0.531
22.68,32039.0,34896.7,0.1487,-0.2551,145.4,96.7,0.531
22.7,32144.9,35353.8,0.5722,0.8663,145.4,96.7,0.531
22.72,32332.3,35538.2,1.3216,1.3186,145.4,96.7,0.531
22.74,32325.5,35770.6,1.2944,1.8887,145.4,96.7,0.531
22.76,32302.3,35732.4,1.2014,1.795,145.4,96.7,0.531
22.78,32281.1,35584.1,1.1168,1.4312,145.4,96.7,0.531
22.8,32190.2,35346.5,0.7535,0.8484,145.4,96.7,0.531
22.82,32068.5,35166.4,0.2669,0.4065,145.4,96.7,0.531
22.84,31991.3,35167.3,-0.0417,0.4089,145.4,96.7,0.531
22.86,31999.2,35085.0,-0.0104,0.2068,145.4,96.7,0.531
22.88,32007.0,35181.8,0.021,0.4443,145.4,96.7,0.531
22.9,31905.5,34909.2,-0.3848,-0.2244,145.4,96.7,0.531
22.92,31973.9,34808.5,-0.1115,-0.4714,145.4,96.7,0.531
22.94,31826.1,34678.7,-0.7022,-0.7897,145.4,96.7,0.531
22.96,31838.8,34622.7,-0.6517,-0.9271,145.4,96.7,0.531
22.98,31896.8,34690.2,-0.4198,-0.7617,145.4,96.7,0.531
23.0,31801.7,34608.6,-0.7997,-0.9616,145.4,96.7,0.531
23.02,31847.4,34518.8,-0.617,-1.1819,145.4,96.7,0.531
23.04,31755.9,34503.4,-0.9828,-1.2198,145.4,96.7,0.531
23.06,31779.2,34578.0,-0.8898,-1.0368,145.4,96.7,0.531
23.08,31825.5,34791.3,-0.7046,-0.5137,145.4,96.7,0.531
23.1,32019.5,35134.7,0.0707,0.3289,145.4,96.7,0.531
23.12,32248.0,35438.9,0.9845,1.0751,145.4,96.7,0.531
23.14,32379.0,35625.5,1.5083,1.5328,145.4,96.7,0.531
23.16,32316.3,35731.5,1.2576,1.7927,145.4,96.7,0.531
23.18,32284.0,35689.8,1.1284,1.6904,145.4,96.7,0.531
23.2,32176.1,35382.2,0.6969,0.9358,145.4,96.7,0.531
23.22,32142.8,35281.6,0.564,0.6892,145.4,96.7,0.531
23.24,32117.6,35186.1,0.4632,0.4549,145.4,96.7,0.531
23.26,32040.1,35073.5,0.1532,0.1787,145.4,96.7,0.531
23.28,32029.2,34898.2,0.1098,-0.2512,145.4,96.7,0.531
23.3,31968.4,34850.4,-0.1335,-0.3685,145.4,96.7,0.531
23.32,31841.6,34827.2,-0.6404,-0.4256,145.4,96.7,0.531
23.34,31953.2,34737.1,-0.194,-0.6466,145.4,96.7,0.531
23.36,31815.4,34620.9,-0.7451,-0.9317,145.4,96.7,0.531
23.38,31756.0,34712.1,-0.9827,-0.7079,145.4,96.7,0.531
23.4,31825.5,34683.3,-0.7045,-0.7785,145.4,96.7,0.531
23.42,31763.3,34654.5,-0.9535,-0.8493,145.4,96.7,0.531
23.44,31843.8,34480.5,-0.6315,-1.2759,145.4,96.7,0.531
23.46,31690.0,34498.7,-1.2465,-1.2313,145.4,96.7,0.531
23.48,31792.8,34585.6,-0.8352,-1.0183,145.4,96.7,0.531
23.5,31951.9,34858.7,-0.1993,-0.3483,145.4,96.7,0.531
23.52,32111.6,35150.7,0.4391,0.368,145.4,96.7,0.531
23.54,32328.1,35583.2,1.3047,1.4289,145.4,96.7,0.531
23.56,32365.2,35781.0,1.4531,1.9141,145.4,96.7,0.531
23.58,32357.8,35740.2,1.4233,1.8142,145.4,96.7,0.531
23.6,32201.2,35524.7,0.7974,1.2855,145.4,96.7,0.531
23.62,32234.0,35393.1,0.9285,0.9628,145.4,96.7,0.531
23.64,32053.7,35246.6,0.2075,0.6032,145.4,96.7,0.531
23.66,32045.5,35207.6,0.175,0.5077,145.4,96.7,0.531
23.68,32023.1,35066.2,0.0854,0.1608,145.4,96.7,0.531
23.7,32111.4,35031.8,0.4383,0.0764,145.4,96.7,0.531
23.72,31919.9,34867.3,-0.3271,-0.3271,145.4,96.7,0.531
23.74,31910.8,34851.9,-0.3638,-0.3648,145.4,96.7,0.531
23.76,31872.6,34650.0,-0.5162,-0.8602,145.4,96.7,0.531
23.78,31887.4,34698.5,-0.4573,-0.7413,145.4,96.7,0.531
23.8,31841.5,34662.7,-0.6408,-0.8291,145.4,96.7,0.531
23.82,31816.0,34486.4,-0.7425,-1.2616,145.4,96.7,0.531
23.84,31740.8,34555.6,-1.0433,-1.0919,145.4,96.7,0.531
23.86,31775.2,34496.1,-0.9056,-1.2378,145.4,96.7,0.531
23.88,31706.9,34456.5,-1.1789,-1.3349,145.4,96.7,0.531
23.9,31816.8,34657.8,-0.7394,-0.8411,145.4,96.7,0.531
23.92,31990.6,34913.3,-0.0444,-0.2143,145.4,96.7,0.531
23.94,32176.9,35418.7,0.7001,1.0254,145.4,96.7,0.531
23.96,32316.7,35719.8,1.2591,1.7641,145.4,96.7,0.531
23.98,32448.9,35738.7,1.7875,1.8103,145.4,96.7,0.531
24.0,32294.9,35682.8,1.1718,1.6734,145.4,96.7,0.531
24.02,32257.1,35524.9,1.021,1.2859,145.4,96.7,0.531
24.04,32184.8,35292.9,0.7319,0.7169,145.4,96.7,0.531
24.06,32048.9,35165.9,0.1886,0.4054,145.4,96.7,0.531
24.08,32070.4,35071.8,0.2746,0.1746,145.4,96.7,0.531
24.1,32008.0,35104.0,0.025,0.2535,145.4,96.7,0.531
24.12,31998.0,34972.8,-0.0152,-0.0684,145.4,96.7,0.531
24.14,31967.3,34786.9,-0.1378,-0.5243,145.4,96.7,0.531
24.16,31897.5,34764.8,-0.4168,-0.5786,145.4,96.7,0.531
24.18,31927.3,34600.0,-0.2976,-0.9829,145.4,96.7,0.531
24.2,31898.0,34674.2,-0.4149,-0.8009,145.4,96.7,0.531
24.22,31844.8,34593.3,-0.6274,-0.9992,145.4,96.7,0.531
24.24,31758.3,34532.4,-0.9732,-1.1487,145.4,96.7,0.531
24.26,31760.4,34531.2,-0.9649,-1.1516,145.4,96.7,0.531
24.28,31684.1,34476.9,-1.2701,-1.2849,145.4,96.7,0.531
24.3,31739.3,34529.6,-1.0493,-1.1556,145.4,96.7,0.531
24.32,31912.8,34778.9,-0.3557,-0.544,145.4,96.7,0.531
24.34,32075.2,35198.1,0.2937,0.4843,145.4,96.7,0.531
24.36,32246.8,35375.1,0.9796,0.9185,145.4,96.7,0.531
24.38,32319.7,35733.4,1.2709,1.7975,145.4,96.7,0.531
24.4,32459.2,35763.4,1.8289,1.8709,145.4,96.7,0.531
24.42,32338.0,35587.8,1.3441,1.4403,145.4,96.7,0.531
24.44,32237.0,35448.8,0.9405,1.0993,145.4,96.7,0.531
24.46,32202.6,35316.1,0.8031,0.7738,145.4,96.7,0.531
24.48,32099.1,35125.3,0.3891,0.3058,145.4,96.7,0.531
24.5,31994.2,35108.7,-0.0303,0.2651,145.4,96.7,0.531
24.52,31967.8,35135.3,-0.136,0.3303,145.4,96.7,0.531
24.54,31977.6,34851.4,-0.0967,-0.3662,145.4,96.7,0.531
24.56,31895.8,34833.6,-0.4236,-0.4098,145.4,96.7,0.531
24.58,31909.2,34743.7,-0.3701,-0.6303,145.4,96.7,0.531
24.6,31902.7,34655.5,-0.3962,-0.8468,145.4,96.7,0.531
24.62,31883.1,34743.5,-0.4743,-0.6309,145.4,96.7,0.531
24.64,31768.9,34626.0,-0.931,-0.9191,145.4,96.7,0.531
24.66,31781.1,34483.5,-0.882,-1.2687,145.4,96.7,0.531
24.68,31730.1,34382.0,-1.0862,-1.5175,145.4,96.7,0.531
24.7,31718.4,34542.7,-1.1327,-1.1233,145.4,96.7,0.531
24.72,31905.3,34555.7,-0.3855,-1.0916,145.4,96.7,0.531
24.74,31978.9,34757.1,-0.0913,-0.5975,145.4,96.7,0.531
24.76,32149.2,35330.9,0.5894,0.81,145.4,96.7,0.531
24.78,32203.5,35580.4,0.8063,1.4221,145.4,96.7,0.531
24.8,32344.2,35849.5,1.3689,2.0822,145.4,96.7,0.531
24.82,32387.6,35677.9,1.5423,1.6614,145.4,96.7,0.531
24.84,32309.7,35577.9,1.2313,1.416,145.4,96.7,0.531
24.86,32098.0,35406.6,0.3847,0.9958,145.4,96.7,0.531
24.88,32051.6,35115.7,0.1994,0.2823,145.4,96.7,0.531
24.9,32019.0,35036.0,0.0689,0.0866,145.4,96.7,0.531
24.92,31981.7,35073.2,-0.0801,0.178,145.4,96.7,0.531
24.94,31950.7,35045.8,-0.204,0.1108,145.4,96.7,0.531
24.96,32029.9,34874.8,0.1123,-0.3089,145.4,96.7,0.531
24.98,31954.6,34739.3,-0.1887,-0.6411,145.4,96.7,0.531
25.0,31810.8,34644.5,-0.7635,-0.8736,145.4,96.7,0.531
25.02,31937.7,34646.1,-0.256,-0.8698,145.4,96.7,0.531
25.04,31848.5,34673.1,-0.6127,-0.8035,145.4,96.7,0.531
25.06,31837.1,34555.2,-0.6582,-1.0927,145.4,96.7,0.531
25.08,31778.4,34568.8,-0.893,-1.0594,145.4,96.7,0.531
25.1,31778.0,34433.1,-0.8947,-1.3922,145.4,96.7,0.531
25.12,31829.3,34573.3,-0.6893,-1.0483,145.4,96.7,0.531
25.14,31792.6,34631.8,-0.8361,-0.9048,145.4,96.7,0.531
25.16,32050.0,34900.1,0.1929,-0.2466,145.4,96.7,0.531
25.18,32155.6,35447.6,0.615,1.0964,145.4,96.7,0.531
25.2,32434.8,35644.8,1.731,1.5802,145.4,96.7,0.531
25.22,32449.3,35756.9,1.789,1.8552,145.4,96.7,0.531
25.24,32330.0,35676.8,1.3122,1.6585,145.4,96.7,0.531
25.26,32223.6,35468.2,0.8869,1.1468,145.4,96.7,0.531
25.28,32122.6,35286.6,0.4831,0.7015,145.4,96.7,0.531
25.3,32064.9,35150.7,0.2525,0.3681,145.4,96.7,0.531
25.32,32063.0,35130.6,0.2447,0.3187,145.4,96.7,0.531
25.34,32056.4,35010.3,0.2186,0.0237,145.4,96.7,0.531
25.36,32003.3,35008.6,0.0062,0.0196,145.4,96.7,0.531
25.38,31909.9,34931.1,-0.3674,-0.1707,145.4,96.7,0.531
25.4,31965.7,34690.7,-0.1444,-0.7604,145.4,96.7,0.531
25.42,31836.4,34703.3,-0.6612,-0.7295,145.4,96.7,0.531
25.44,31871.1,34541.9,-0.5222,-1.1253,145.4,96.7,0.531
25.46,31917.9,34671.1,-0.3352,-0.8083,145.4,96.7,0.531
25.48,31800.4,34567.7,-0.8051,-1.0621,145.4,96.7,0.531
25.5,31735.2,34503.1,-1.0657,-1.2204,145.4,96.7,0.531
25.52,31670.2,34421.7,-1.3255,-1.4203,145.4,96.7,0.531
25.54,31687.5,34562.7,-1.2563,-1.0743,145.4,96.7,0.531
25.56,32001.4,34729.8,-0.0014,-0.6644,145.4,96.7,0.531
25.58,32104.3,35243.1,0.41,0.5947,145.4,96.7,0.531
25.6,32277.0,35558.6,1.1004,1.3686,145.4,96.7,0.531
25.62,32339.7,35799.6,1.3511,1.9597,145.4,96.7,0.531
25.64,32436.9,35703.5,1.7395,1.7241,145.4,96.7,0.531
25.66,32358.1,35581.9,1.4248,1.4259,145.4,96.7,0.531
25.68,32176.0,35381.4,0.6966,0.9339,145.4,96.7,0.531
25.7,32170.2,35239.2,0.6735,0.5852,145.4,96.7,0.531
25.72,31956.9,35144.3,-0.1794,0.3522,145.4,96.7,0.531
25.74,32035.8,35095.4,0.136,0.2323,145.4,96.7,0.531
25.76,32033.7,35032.3,0.1278,0.0776,145.4,96.7,0.531
25.78,31933.1,34883.9,-0.2746,-0.2863,145.4,96.7,0.531
25.8,31915.4,34818.8,-0.3454,-0.4462,145.4,96.7,0.531
25.82,31879.0,34640.3,-0.4908,-0.884,145.4,96.7,0.531
25.84,31972.7,34687.2,-0.1161,-0.7689,145.4,96.7,0.531
25.86,31816.2,34654.9,-0.7419,-0.8481,145.4,96.7,0.531
25.88,31889.5,34637.9,-0.449,-0.8899,145.4,96.7,0.531
25.9,31697.7,34590.3,-1.2154,-1.0065,145.4,96.7,0.531
25.92,31774.2,34468.0,-0.9097,-1.3066,145.4,96.7,0.531
25.94,31774.8,34409.2,-0.9074,-1.4509,145.4,96.7,0.531
25.96,31814.6,34623.0,-0.7483,-0.9264,145.4,96.7,0.531
25.98,31964.3,34818.9,-0.1499,-0.4459,145.4,96.7,0.531
26.0,32086.5,35282.4,0.3388,0.6911,145.4,96.7,0.531
26.02,32376.7,35625.9,1.499,1.5337,145.4,96.7,0.531
26.04,32310.6,35738.5,1.2347,1.8099,145.4,96.7,0.531
26.06,32332.4,35749.7,1.3217,1.8374,145.4,96.7,0.531
26.08,32183.9,35571.4,0.7281,1.4,145.4,96.7,0.531
26.1,32167.4,35376.3,0.6621,0.9214,145.4,96.7,0.531
26.12,32193.9,35202.2,0.7682,0.4943,145.4,96.7,0.531
26.14,31966.9,35112.5,-0.1392,0.2744,145.4,96.7,0.531
26.16,31979.7,35054.5,-0.0882,0.1322,145.4,96.7,0.531
26.18,32066.3,34982.7,0.2579,-0.0441,145.4,96.7,0.531
26.2,31900.4,34880.0,-0.4053,-0.2961,145.4,96.7,0.531
26.22,31900.5,34734.5,-0.4047,-0.6528,145.4,96.7,0.531
26.24,31822.2,34693.2,-0.7181,-0.7543,145.4,96.7,0.531
26.26,31926.3,34648.4,-0.3017,-0.8641,145.4,96.7,0.531
26.28,31877.2,34704.9,-0.4981,-0.7255,145.4,96.7,0.531
26.3,31756.3,34619.4,-0.9812,-0.9353,145.4,96.7,0.531
26.32,31844.0,34513.5,-0.6306,-1.195,145.4,96.7,0.531
26.34,31819.3,34434.7,-0.7296,-1.3884,145.4,96.7,0.531
26.36,31716.9,34489.8,-1.139,-1.2531,145.4,96.7,0.531
26.38,31804.0,34701.4,-0.7908,-0.7342,145.4,96.7,0.531
26.4,31966.8,35015.5,-0.1396,0.0365,145.4,96.7,0.531
26.42,32236.9,35428.2,0.9399,1.0488,145.4,96.7,0.531
26.44,32391.6,35755.8,1.5586,1.8523,145.4,96.7,0.531
26.46,32369.1,35696.9,1.4686,1.708,145.4,96.7,0.531
26.48,32399.5,35602.5,1.59,1.4764,145.4,96.7,0.531
26.5,32129.6,35544.6,0.511,1.3343,145.4,96.7,0.531
26.52,32169.1,35214.6,0.6691,0.5249,145.4,96.7,0.531
26.54,32071.3,35228.1,0.2778,0.5578,145.4,96.7,0.531
26.56,32084.0,35035.0,0.3289,0.0842,145.4,96.7,0.531
26.58,32093.0,35093.1,0.3648,0.2268,145.4,96.7,0.531
26.6,31941.1,34970.9,-0.2425,-0.073,145.4,96.7,0.531
26.62,31850.8,34889.9,-0.6036,-0.2717,145.4,96.7,0.531
26.64,31837.9,34830.5,-0.6551,-0.4174,145.4,96.7,0.531
26.66,31850.9,34652.3,-0.603,-0.8545,145.4,96.7,0.531
26.68,31871.4,34792.6,-0.5211,-0.5103,145.4,96.7,0.531
26.7,31764.9,34629.5,-0.9467,-0.9105,145.4,96.7,0.531
26.72,31723.3,34582.4,-1.1134,-1.0259,145.4,96.7,0.531
26.74,31736.9,34622.7,-1.0588,-0.9272,145.4,96.7,0.531
26.76,31782.7,34478.6,-0.8758,-1.2806,145.4,96.7,0.531
26.78,31787.1,34495.9,-0.8582,-1.2381,145.4,96.7,0.531
26.8,31907.4,34747.2,-0.3774,-0.6217,145.4,96.7,0.531
26.82,32062.6,35266.1,0.2431,0.6511,145.4,96.7,0.531
26.84,32328.2,35573.5,1.3049,1.4052,145.4,96.7,0.531
26.86,32381.5,35655.8,1.5182,1.6071,145.4,96.7,0.531
26.88,32389.1,35779.5,1.5486,1.9104,145.4,96.7,0.531
26.9,32248.8,35590.5,0.9876,1.4468,145.4,96.7,0.531
26.92,32146.3,35395.5,0.5778,0.9685,145.4,96.7,0.531
26.94,32121.6,35111.6,0.4791,0.2721,145.4,96.7,0.531
26.96,32072.0,35081.7,0.2809,0.1988,145.4,96.7,0.531
26.98,32048.7,35064.3,0.1877,0.1561,145.4,96.7,0.531
27.0,32073.6,35040.9,0.2873,0.0986,145.4,96.7,0.531
27.02,31948.1,34926.0,-0.2143,-0.1832,145.4,96.7,0.531
27.04,31964.3,34779.3,-0.1499,-0.543,145.4,96.7,0.531
27.06,31720.8,34758.8,-1.1232,-0.5932,145.4,96.7,0.531
27.08,31873.4,34715.8,-0.5133,-0.6988,145.4,96.7,0.531
27.1,31765.5,34634.3,-0.9444,-0.8986,145.4,96.7,0.531
27.12,31853.6,34618.3,-0.5922,-0.9379,145.4,96.7,0.531
27.14,31722.0,34570.7,-1.1185,-1.0547,145.4,96.7,0.531
27.16,31830.7,34512.1,-0.6841,-1.1984,145.4,96.7,0.531
27.18,31710.6,34483.8,-1.1641,-1.2679,145.4,96.7,0.531
27.2,31848.4,34633.6,-0.613,-0.9003,145.4,96.7,0.531
27.22,31968.1,35069.0,-0.1345,0.1675,145.4,96.7,0.531
27.24,32077.5,35324.3,0.303,0.794,145.4,96.7,0.531
27.26,32256.0,35703.0,1.0163,1.7229,145.4,96.7,0.531
27.28,32379.0,35825.0,1.5082,2.0222,145.4,96.7,0.531
27.3,32219.2,35755.4,0.8691,1.8515,145.4,96.7,0.531
27.32,32291.5,35528.7,1.1585,1.2953,145.4,96.7,0.531
27.34,32200.6,35300.1,0.795,0.7345,145.4,96.7,0.531
27.36,32136.3,35168.7,0.5378,0.4122,145.4,96.7,0.531
27.38,32020.8,35148.2,0.0763,0.3619,145.4,96.7,0.531
27.4,32066.6,35157.0,0.2591,0.3834,145.4,96.7,0.531
27.42,31959.2,34908.6,-0.17,-0.2259,145.4,96.7,0.531
27.44,31920.9,34898.1,-0.3233,-0.2515,145.4,96.7,0.531
27.46,31890.2,34759.4,-0.446,-0.5919,145.4,96.7,0.531
27.48,31828.2,34769.1,-0.6938,-0.5681,145.4,96.7,0.531
27.5,31863.4,34566.3,-0.5531,-1.0655,145.4,96.7,0.531
27.52,31855.7,34683.4,-0.584,-0.7782,145.4,96.7,0.531
27.54,31852.7,34535.9,-0.5957,-1.1401,145.4,96.7,0.531
27.56,31805.6,34554.4,-0.7842,-1.0946,145.4,96.7,0.531
27.58,31752.2,34393.9,-0.9978,-1.4885,145.4,96.7,0.531
27.6,31781.3,34455.3,-0.8816,-1.3377,145.4,96.7,0.531
27.62,31845.2,34666.2,-0.6261,-0.8205,145.4,96.7,0.531
27.64,32155.5,35135.4,0.6147,0.3305,145.4,96.7,0.531
27.66,32224.8,35451.6,0.8917,1.1061,145.4,96.7,0.531
27.68,32346.5,35702.7,1.3781,1.7221,145.4,96.7,0.531
27.7,32446.9,35816.9,1.7794,2.0023,145.4,96.7,0.531
27.72,32269.9,35697.6,1.0718,1.7097,145.4,96.7,0.531
27.74,32207.3,35480.8,0.8215,1.1779,145.4,96.7,0.531
27.76,32106.3,35212.8,0.418,0.5204,145.4,96.7,0.531
27.78,32028.8,35147.0,0.108,0.359,145.4,96.7,0.531
27.8,31984.2,35017.3,-0.0704,0.0408,145.4,96.7,0.531
27.82,32065.8,35107.6,0.256,0.2623,145.4,96.7,0.531
27.84,31982.2,34937.1,-0.0781,-0.156,145.4,96.7,0.531
27.86,31889.3,34866.3,-0.4495,-0.3296,145.4,96.7,0.531
27.88,31877.8,34775.1,-0.4954,-0.5533,145.4,96.7,0.531
27.9,31864.4,34657.3,-0.5491,-0.8422,145.4,96.7,0.531
27.92,31797.6,34590.5,-0.8161,-1.0061,145.4,96.7,0.531
27.94,31838.6,34634.2,-0.6524,-0.899,145.4,96.7,0.531
27.96,31740.6,34545.4,-1.0442,-1.1168,145.4,96.7,0.531
27.98,31740.4,34491.5,-1.0448,-1.249,145.4,96.7,0.531
28.0,31790.0,34509.4,-0.8464,-1.205,145.4,96.7,0.531
28.02,31830.4,34581.1,-0.6852,-1.0293,145.4,96.7,0.531
28.04,31929.5,34942.3,-0.2889,-0.1431,145.4,96.7,0.531
28.06,32153.5,35305.8,0.6066,0.7486,145.4,96.7,0.531
28.08,32352.1,35542.4,1.4007,1.3288,145.4,96.7,0.531
28.1,32329.9,35745.5,1.3119,1.827,145.4,96.7,0.531
28.12,32286.4,35733.1,1.1378,1.7968,145.4,96.7,0.531
28.14,32279.4,35614.9,1.1101,1.5068,145.4,96.7,0.531
28.16,32131.1,35408.3,0.5169,1.0,145.4,96.7,0.531
28.18,32044.2,35254.2,0.1698,0.622,145.4,96.7,0.531
28.2,32018.0,35233.4,0.065,0.5709,145.4,96.7,0.531
28.22,32045.1,35033.0,0.1731,0.0792,145.4,96.7,0.531
28.24,32021.1,35035.2,0.0774,0.0848,145.4,96.7,0.531
28.26,31965.4,34951.8,-0.1454,-0.1198,145.4,96.7,0.531
28.28,31850.7,34900.1,-0.6041,-0.2467,145.4,96.7,0.531
28.3,31931.2,34756.6,-0.2819,-0.5986,145.4,96.7,0.531
28.32,31868.8,34591.5,-0.5314,-1.0037,145.4,96.7,0.531
28.34,31901.5,34678.0,-0.4007,-0.7916,145.4,96.7,0.531
28.36,31811.2,34677.9,-0.7617,-0.7917,145.4,96.7,0.531
28.38,31841.4,34553.7,-0.6412,-1.0965,145.4,96.7,0.531
28.4,31762.7,34360.2,-0.9557,-1.571,145.4,96.7,0.531
28.42,31719.6,34482.6,-1.1279,-1.2707,145.4,96.7,0.531
28.44,31849.8,34674.7,-0.6076,-0.7997,145.4,96.7,0.531
28.46,31940.7,34995.3,-0.244,-0.013,145.4,96.7,0.531
28.48,32216.8,35383.5,0.8597,0.939,145.4,96.7,0.531
28.5,32237.8,35680.4,0.9435,1.6674,145.4,96.7,0.531
28.52,32384.5,35695.5,1.5301,1.7046,145.4,96.7,0.531
28.54,32337.5,35696.5,1.3421,1.7069,145.4,96.7,0.531
28.56,32192.7,35464.6,0.7635,1.1382,145.4,96.7,0.531
28.58,32134.4,35312.0,0.5303,0.7637,145.4,96.7,0.531
28.6,32089.5,35188.4,0.3508,0.4605,145.4,96.7,0.531
28.62,31965.0,35153.5,-0.1469,0.3749,145.4,96.7,0.531
28.64,31960.6,35053.0,-0.1644,0.1285,145.4,96.7,0.531
28.66,32029.5,34985.5,0.111,-0.0372,145.4,96.7,0.531
28.68,31936.8,34852.2,-0.2596,-0.3643,145.4,96.7,0.531
28.7,31844.0,34661.6,-0.6306,-0.8317,145.4,96.7,0.531
28.72,31823.3,34741.4,-0.7133,-0.636,145.4,96.7,0.531
28.74,31774.5,34674.5,-0.9084,-0.8,145.4,96.7,0.531
28.76,31760.9,34589.6,-0.9629,-1.0084,145.4,96.7,0.531
28.78,31790.3,34614.6,-0.8455,-0.947,145.4,96.7,0.531
28.8,31739.0,34409.9,-1.0506,-1.4492,145.4,96.7,0.531
28.82,31766.9,34448.3,-0.9389,-1.355,145.4,96.7,0.531
28.84,31676.4,34480.2,-1.3006,-1.2767,145.4,96.7,0.531
28.86,31863.0,34801.2,-0.5549,-0.4893,145.4,96.7,0.531
28.88,32047.6,35054.0,0.1831,0.1308,145.4,96.7,0.531
28.9,32200.3,35481.1,0.7937,1.1786,145.4,96.7,0.531
28.92,32396.1,35703.5,1.5764,1.7241,145.4,96.7,0.531
28.94,32372.7,35753.4,1.4828,1.8465,145.4,96.7,0.531
28.96,32305.4,35585.8,1.2138,1.4354,145.4,96.7,0.531
28.98,32153.2,35423.5,0.6052,1.0373,145.4,96.7,0.531
29.0,32051.9,35264.5,0.2005,0.6472,145.4,96.7,0.531
29.02,32054.7,35143.9,0.2116,0.3515,145.4,96.7,0.531
29.04,31986.8,35054.3,-0.0597,0.1315,145.4,96.7,0.531
29.06,32075.6,35110.1,0.2952,0.2685,145.4,96.7,0.531
29.08,31985.4,34848.4,-0.0654,-0.3734,145.4,96.7,0.531
29.1,31839.4,34849.0,-0.6492,-0.372,145.4,96.7,0.531
29.12,31876.8,34690.9,-0.4997,-0.7598,145.4,96.7,0.531
29.14,31778.4,34687.5,-0.8931,-0.7681,145.4,96.7,0.531
29.16,31839.5,34679.3,-0.6486,-0.7882,145.4,96.7,0.531
29.18,31843.9,34619.8,-0.631,-0.9343,145.4,96.7,0.531
29.2,31781.8,34506.5,-0.8793,-1.2122,145.4,96.7,0.531
29.22,31719.8,34506.0,-1.1272,-1.2134,145.4,96.7,0.531
29.24,31690.3,34542.5,-1.2451,-1.1239,145.4,96.7,0.531
29.26,31844.5,34575.0,-0.6288,-1.0441,145.4,96.7,0.531
29.28,31984.2,34919.4,-0.07,-0.1994,145.4,96.7,0.531
29.3,32118.7,35293.1,0.4674,0.7174,145.4,96.7,0.531
29.32,32259.7,35540.4,1.0312,1.324,145.4,96.7,0.531
29.34,32335.9,35670.2,1.336,1.6423,145.4,96.7,0.531
29.36,32288.8,35810.0,1.1475,1.9853,145.4,96.7,0.531
29.38,32238.3,35516.7,0.9455,1.2658,145.4,96.7,0.531
29.4,32112.5,35264.9,0.4429,0.6483,145.4,96.7,0.531
29.42,32030.7,35240.5,0.1158,0.5882,145.4,96.7,0.531
29.44,31941.0,35050.8,-0.2429,0.1231,145.4,96.7,0.531
29.46,32037.9,35051.6,0.1446,0.125,145.4,96.7,0.531
29.48,31981.5,34944.3,-0.081,-0.1382,145.4,96.7,0.531
29.5,32009.5,34904.8,0.0308,-0.2351,145.4,96.7,0.531
29.52,31878.7,34789.2,-0.4921,-0.5187,145.4,96.7,0.531
29.54,31876.8,34705.2,-0.4998,-0.7247,145.4,96.7,0.531
29.56,31910.0,34661.2,-0.3667,-0.8327,145.4,96.7,0.531
29.58,31907.8,34633.7,-0.3755,-0.9002,145.4,96.7,0.531
29.6,31823.6,34629.4,-0.7121,-0.9106,145.4,96.7,0.531
29.62,31791.4,34542.1,-0.8411,-1.1248,145.4,96.7,0.531
29.64,31737.0,34445.9,-1.0583,-1.3608,145.4,96.7,0.531
29.66,31703.1,34512.8,-1.1941,-1.1968,145.4,96.7,0.531
29.68,31835.5,34628.7,-0.6646,-0.9124,145.4,96.7,0.531
29.7,31996.3,35017.5,-0.0217,0.0413,145.4,96.7,0.531
29.72,32090.0,35428.8,0.3526,1.0502,145.4,96.7,0.531
29.74,32298.8,35713.8,1.1875,1.7493,145.4,96.7,0.531
29.76,32421.1,35778.8,1.6763,1.9087,145.4,96.7,0.531
29.78,32259.5,35726.9,1.0306,1.7815,145.4,96.7,0.531
29.8,32177.1,35425.7,0.7012,1.0427,145.4,96.7,0.531
29.82,32062.8,35260.1,0.2441,0.6365,145.4,96.7,0.531
29.84,32128.8,35241.7,0.508,0.5912,145.4,96.7,0.531
29.86,32044.0,35096.7,0.1689,0.2357,145.4,96.7,0.531
29.88,32017.6,34961.4,0.0634,-0.0964,145.4,96.7,0.531
29.9,31971.2,34959.1,-0.122,-0.102,145.4,96.7,0.531
29.92,31925.1,34936.1,-0.3064,-0.1584,145.4,96.7,0.531
29.94,31851.2,34729.9,-0.6019,-0.6641,145.4,96.7,0.531
29.96,31855.7,34737.4,-0.5838,-0.6459,145.4,96.7,0.531
29.98,31803.5,34631.7,-0.7927,-0.9052,145.4,96.7,0.531
30.0,31793.7,34661.2,-0.8319,-0.8328,145.4,96.7,0.531
30.02,31837.5,34601.5,-0.6566,-0.9792,145.4,96.7,0.531
30.04,31717.1,34537.9,-1.138,-1.1352,145.4,96.7,0.531
30.06,31712.7,34461.9,-1.1555,-1.3215,145.4,96.7,0.531
30.08,31740.5,34524.1,-1.0446,-1.1689,145.4,96.7,0.531
30.1,31836.7,34844.3,-0.6597,-0.3835,145.4,96.7,0.531
30.12,32096.9,35152.1,0.3803,0.3714,145.4,96.7,0.531
30.14,32286.8,35464.5,1.1394,1.1378,145.4,96.7,0.531
30.16,32390.7,35737.6,1.5548,1.8077,145.4,96.7,0.531
30.18,32432.8,35638.8,1.7231,1.5654,145.4,96.7,0.531
30.2,32291.3,35568.3,1.1577,1.3925,145.4,96.7,0.531
30.22,32218.5,35431.7,0.8663,1.0575,145.4,96.7,0.531
30.24,32168.5,35172.9,0.6668,0.4225,145.4,96.7,0.531
30.26,32124.6,35133.4,0.4912,0.3256,145.4,96.7,0.531
30.28,31955.5,35039.8,-0.1851,0.096,145.4,96.7,0.531
30.3,32008.2,34963.7,0.0256,-0.0906,145.4,96.7,0.531
30.32,31957.9,34917.4,-0.1755,-0.2042,145.4,96.7,0.531
30.34,31935.9,34829.3,-0.2632,-0.4204,145.4,96.7,0.531
30.36,31831.5,34732.0,-0.6806,-0.6592,145.4,96.7,0.531
30.38,31863.0,34675.7,-0.555,-0.7972,145.4,96.7,0.531
30.4,31837.7,34659.4,-0.6561,-0.8372,145.4,96.7,0.531
30.42,31750.3,34637.3,-1.0053,-0.8913,145.4,96.7,0.531
30.44,31728.2,34412.1,-1.0938,-1.4439,145.4,96.7,0.531
30.46,31745.5,34522.7,-1.0244,-1.1725,145.4,96.7,0.531
30.48,31764.0,34498.4,-0.9506,-1.2321,145.4,96.7,0.531
30.5,31737.4,34732.3,-1.0568,-0.6583,145.4,96.7,0.531
30.52,31918.1,34914.4,-0.3346,-0.2115,145.4,96.7,0.531
30.54,32136.5,35317.8,0.5385,0.778,145.4,96.7,0.531
30.56,32291.2,35660.4,1.157,1.6183,145.4,96.7,0.531
30.58,32323.2,35704.4,1.285,1.7263,145.4,96.7,0.531
30.6,32433.1,35662.1,1.7244,1.6225,145.4,96.7,0.531
30.62,32178.0,35509.8,0.7045,1.2489,145.4,96.7,0.531
30.64,32105.0,35452.2,0.4129,1.1075,145.4,96.7,0.531
30.66,32094.9,35169.5,0.3724,0.4141,145.4,96.7,0.531
30.68,32041.0,35111.0,0.1567,0.2707,145.4,96.7,0.531
30.7,32049.0,35070.5,0.189,0.1712,145.4,96.7,0.531
30.72,31942.4,34937.7,-0.2373,-0.1545,145.4,96.7,0.531
30.74,31962.6,34927.5,-0.1568,-0.1794,145.4,96.7,0.531
30.76,31832.6,34804.7,-0.6761,-0.4806,145.4,96.7,0.531
30.78,31828.3,34638.8,-0.6935,-0.8877,145.4,96.7,0.531
30.8,31872.2,34694.8,-0.5179,-0.7502,145.4,96.7,0.531
30.82,31818.6,34556.1,-0.7324,-1.0905,145.4,96.7,0.531
30.84,31774.6,34628.5,-0.9082,-0.913,145.4,96.7,0.531
30.86,31762.5,34423.7,-0.9566,-1.4154,145.4,96.7,0.531
30.88,31762.0,34507.1,-0.9584,-1.2108,145.4,96.7,0.531
30.9,31815.7,34522.1,-0.7438,-1.174,145.4,96.7,0.531
30.92,31890.9,34750.9,-0.4431,-0.6126,145.4,96.7,0.531
30.94,32057.2,35112.3,0.2214,0.2739,145.4,96.7,0.531
30.96,32200.3,35419.8,0.7938,1.0283,145.4,96.7,0.531
30.98,32324.3,35684.5,1.2896,1.6774,145.4,96.7,0.531
31.0,32419.1,35797.9,1.6685,1.9556,145.4,96.7,0.531
31.02,32280.8,35671.0,1.1156,1.6445,145.4,96.7,0.531
31.04,32188.5,35487.7,0.7466,1.1946,145.4,96.7,0.531
31.06,32144.6,35293.8,0.5709,0.7191,145.4,96.7,0.531
31.08,32090.7,35123.4,0.3555,0.3012,145.4,96.7,0.531
31.1,32030.1,35018.6,0.1132,0.044,145.4,96.7,0.531
31.12,32030.5,34990.2,0.1148,-0.0257,145.4,96.7,0.531
31.14,32046.5,34942.3,0.1789,-0.1433,145.4,96.7,0.531
31.16,31956.6,34769.0,-0.1807,-0.5684,145.4,96.7,0.531
31.18,31820.3,34764.0,-0.7256,-0.5806,145.4,96.7,0.531
31.2,31793.7,34700.3,-0.8316,-0.7369,145.4,96.7,0.531
31.22,31859.2,34739.3,-0.5701,-0.6411,145.4,96.7,0.531
31.24,31881.6,34616.5,-0.4804,-0.9424,145.4,96.7,0.531
31.26,31768.6,34507.3,-0.9323,-1.2102,145.4,96.7,0.531
31.28,31799.7,34533.1,-0.8079,-1.1468,145.4,96.7,0.531
31.3,31755.4,34481.2,-0.9849,-1.2742,145.4,96.7,0.531
31.32,31812.4,34586.7,-0.757,-1.0155,145.4,96.7,0.531
31.34,31892.8,34862.6,-0.4356,-0.3386,145.4,96.7,0.531
31.36,32099.5,35224.8,0.3907,0.5499,145.4,96.7,0.531
31.38,32219.2,35627.1,0.8692,1.5367,145.4,96.7,0.531
31.4,32412.9,35759.2,1.6436,1.8607,145.4,96.7,0.531
31.42,32301.5,35754.4,1.1984,1.8489,145.4,96.7,0.531
31.44,32293.7,35565.2,1.1671,1.3849,145.4,96.7,0.531
31.46,32247.4,35333.5,0.9819,0.8165,145.4,96.7,0.531
31.48,32050.9,35195.1,0.1966,0.4769,145.4,96.7,0.531
31.5,32052.3,35054.2,0.2021,0.1314,145.4,96.7,0.531
31.52,32073.6,35041.7,0.2874,0.1006,145.4,96.7,0.531
31.54,31951.8,35027.0,-0.1999,0.0646,145.4,96.7,0.531
31.56,31934.8,34930.8,-0.2675,-0.1714,145.4,96.7,0.531
31.58,31887.7,34788.2,-0.4561,-0.5212,145.4,96.7,0.531
31.6,31874.6,34768.5,-0.5084,-0.5696,145.4,96.7,0.531
31.62,31852.2,34690.6,-0.5978,-0.7605,145.4,96.7,0.531
31.64,31880.2,34655.5,-0.4861,-0.8467,145.4,96.7,0.531
31.66,31761.6,34512.2,-0.9602,-1.1982,145.4,96.7,0.531
31.68,31848.2,34489.3,-0.614,-1.2544,145.4,96.7,0.531
31.7,31749.3,34363.5,-1.0093,-1.563,145.4,96.7,0.531
31.72,31772.0,34409.0,-0.9186,-1.4514,145.4,96.7,0.531
31.74,31780.6,34624.6,-0.8841,-0.9224,145.4,96.7,0.531
31.76,31989.4,34954.8,-0.0494,-0.1125,145.4,96.7,0.531
31.78,32134.9,35406.7,0.5322,0.9961,145.4,96.7,0.531
31.8,32297.0,35632.4,1.1803,1.5496,145.4,96.7,0.531
31.82,32331.8,35690.8,1.3196,1.693,145.4,96.7,0.531
31.84,32312.0,35611.4,1.2401,1.4981,145.4,96.7,0.531
31.86,32262.6,35511.8,1.0427,1.254,145.4,96.7,0.531
31.88,32159.4,35268.4,0.6302,0.6569,145.4,96.7,0.531
31.9,32128.7,35108.8,0.5076,0.2652,145.4,96.7,0.531
31.92,32058.1,35142.9,0.2252,0.3489,145.4,96.7,0.531
31.94,32004.2,34926.9,0.0098,-0.1811,145.4,96.7,0.531
31.96,31916.9,35015.9,-0.3394,0.0373,145.4,96.7,0.531
31.98,31863.8,34848.0,-0.5516,-0.3745,145.4,96.7,0.531
32.0,31988.3,34729.4,-0.0539,-0.6653,145.4,96.7,0.531
32.02,31859.0,34749.7,-0.5708,-0.6155,145.4,96.7,0.531
32.04,31914.5,34557.9,-0.3487,-1.0862,145.4,96.7,0.531
32.06,31890.6,34605.9,-0.4444,-0.9684,145.4,96.7,0.531
32.08,31866.0,34635.4,-0.5428,-0.896,145.4,96.7,0.531
32.1,31767.9,34483.1,-0.9351,-1.2697,145.4,96.7,0.531
32.12,31699.3,34439.8,-1.2091,-1.3758,145.4,96.7,0.531
32.14,31751.1,34527.6,-1.0022,-1.1603,145.4,96.7,0.531
32.16,31903.8,34753.1,-0.3917,-0.6074,145.4,96.7,0.531
32.18,32053.4,35183.5,0.2065,0.4485,145.4,96.7,0.531
32.2,32090.5,35571.6,0.3548,1.4006,145.4,96.7,0.531
32.22,32264.1,35724.7,1.0489,1.7761,145.4,96.7,0.531
32.24,32297.8,35754.4,1.1835,1.8489,145.4,96.7,0.531
32.26,32280.2,35658.5,1.1131,1.6137,145.4,96.7,0.531
32.28,32175.4,35418.8,0.6941,1.0256,145.4,96.7,0.531
32.3,32205.2,35179.7,0.8132,0.4391,145.4,96.7,0.531
32.32,32192.3,35208.4,0.7617,0.5097,145.4,96.7,0.531
32.34,32104.8,35020.2,0.4121,0.048,145.4,96.7,0.531
32.36,32036.4,34992.6,0.1386,-0.0197,145.4,96.7,0.531
32.38,31931.4,34944.2,-0.2814,-0.1385,145.4,96.7,0.531
32.4,31826.9,34939.0,-0.6989,-0.1513,145.4,96.7,0.531
32.42,31947.6,34784.5,-0.2163,-0.5303,145.4,96.7,0.531
32.44,31908.8,34759.2,-0.3716,-0.5922,145.4,96.7,0.531
32.46,31861.2,34588.5,-0.5619,-1.0112,145.4,96.7,0.531
32.48,31852.8,34492.8,-0.5957,-1.2458,145.4,96.7,0.531
32.5,31786.3,34560.9,-0.8613,-1.0787,145.4,96.7,0.531
32.52,31795.3,34353.3,-0.8255,-1.5879,145.4,96.7,0.531
32.54,31739.8,34507.3,-1.0474,-1.2103,145.4,96.7,0.531
32.56,31832.3,34584.6,-0.6777,-1.0206,145.4,96.7,0.531
32.58,31981.2,34860.4,-0.0821,-0.344,145.4,96.7,0.531
32.6,32147.4,35313.5,0.5821,0.7674,145.4,96.7,0.531
32.62,32290.1,35566.2,1.1528,1.3874,145.4,96.7,0.531
32.64,32335.4,35794.5,1.3337,1.9474,145.4,96.7,0.531
32.66,32296.3,35729.1,1.1774,1.787,145.4,96.7,0.531
32.68,32215.9,35573.6,0.8562,1.4055,145.4,96.7,0.531
32.7,32081.8,35284.6,0.3198,0.6965,145.4,96.7,0.531
32.72,32076.9,35145.4,0.3004,0.355,145.4,96.7,0.531
32.74,32068.6,35179.8,0.267,0.4395,145.4,96.7,0.531
32.76,31980.4,35065.1,-0.0853,0.158,145.4,96.7,0.531
32.78,31937.4,34969.3,-0.2574,-0.0768,145.4,96.7,0.531
32.8,31918.7,34825.9,-0.3319,-0.4287,145.4,96.7,0.531
32.82,31820.9,34742.0,-0.7231,-0.6346,145.4,96.7,0.531
32.84,31781.1,34764.8,-0.8822,-0.5785,145.4,96.7,0.531
32.86,31853.4,34745.2,-0.5931,-0.6268,145.4,96.7,0.531
32.88,31768.0,34665.6,-0.9345,-0.8219,145.4,96.7,0.531
32.9,31805.8,34616.7,-0.7834,-0.942,145.4,96.7,0.531
32.92,31709.0,34530.4,-1.1703,-1.1536,145.4,96.7,0.531
32.94,31783.5,34358.1,-0.8728,-1.5762,145.4,96.7,0.531
32.96,31855.8,34520.1,-0.5836,-1.1788,145.4,96.7,0.531
32.98,31965.1,34678.3,-0.1464,-0.7907,145.4,96.7,0.531
33.0,32077.7,35046.1,0.3034,0.1114,145.4,96.7,0.531
33.02,32219.1,35349.9,0.8687,0.8568,145.4,96.7,0.531
33.04,32247.6,35661.4,0.983,1.6209,145.4,96.7,0.531
33.06,32317.3,35786.2,1.2614,1.9271,145.4,96.7,0.531
33.08,32272.0,35797.3,1.0803,1.9542,145.4,96.7,0.531
33.1,32248.9,35458.3,0.9881,1.1227,145.4,96.7,0.531
33.12,32098.4,35288.6,0.3864,0.7063,145.4,96.7,0.531
33.14,32096.9,35150.9,0.3803,0.3685,145.4,96.7,0.531
33.16,32119.7,35034.6,0.4716,0.0831,145.4,96.7,0.531
33.18,32002.9,35050.5,0.0045,0.1222,145.4,96.7,0.531
33.2,32065.6,34974.4,0.2552,-0.0645,145.4,96.7,0.531
33.22,31985.6,34840.4,-0.0648,-0.3931,145.4,96.7,0.531
33.24,31891.4,34689.1,-0.4413,-0.7643,145.4,96.7,0.531
33.26,31809.6,34667.5,-0.7681,-0.8172,145.4,96.7,0.531
33.28,31831.9,34613.2,-0.6791,-0.9504,145.4,96.7,0.531
33.3,31787.6,34683.2,-0.8562,-0.7787,145.4,96.7,0.531
33.32,31822.0,34630.9,-0.7187,-0.907,145.4,96.7,0.531
33.34,31702.5,34512.9,-1.1966,-1.1965,145.4,96.7,0.531
33.36,31744.7,34567.9,-1.0277,-1.0617,145.4,96.7,0.531
33.38,31767.1,34612.0,-0.9382,-0.9535,145.4,96.7,0.531
33.4,31829.3,34778.5,-0.6894,-0.5449,145.4,96.7,0.531
33.42,32042.0,35179.7,0.1609,0.4391,145.4,96.7,0.531
33.44,32289.2,35435.2,1.149,1.0659,145.4,96.7,0.531
33.46,32380.9,35703.2,1.5156,1.7233,145.4,96.7,0.531
33.48,32340.5,35810.0,1.3543,1.9854,145.4,96.7,0.531
33.5,32297.5,35513.2,1.1824,1.2573,145.4,96.7,0.531
33.52,32238.9,35428.7,0.9481,1.0501,145.4,96.7,0.531
33.54,32161.4,35249.5,0.6383,0.6103,145.4,96.7,0.531
33.56,32163.1,35167.9,0.6449,0.4102,145.4,96.7,0.531
33.58,32043.8,35109.3,0.1681,0.2666,145.4,96.7,0.531
33.6,32049.9,35025.9,0.1925,0.062,145.4,96.7,0.531
33.62,31940.6,34993.6,-0.2447,-0.0173,145.4,96.7,0.531
33.64,31891.9,34753.6,-0.4393,-0.606,145.4,96.7,0.531
33.66,31909.0,34718.1,-0.3708,-0.6931,145.4,96.7,0.531
33.68,31910.3,34710.4,-0.3656,-0.7121,145.4,96.7,0.531
33.7,31827.6,34708.7,-0.6963,-0.7162,145.4,96.7,0.531
33.72,31769.9,34571.0,-0.9268,-1.054,145.4,96.7,0.531
33.74,31836.3,34535.3,-0.6616,-1.1414,145.4,96.7,0.531
33.76,31805.6,34448.5,-0.7843,-1.3545,145.4,96.7,0.531
33.78,31773.5,34500.3,-0.9125,-1.2274,145.4,96.7,0.531
33.8,31836.5,34491.2,-0.6606,-1.2498,145.4,96.7,0.531
33.82,31937.3,34913.2,-0.2577,-0.2146,145.4,96.7,0.531
33.84,32143.0,35368.5,0.5647,0.9022,145.4,96.7,0.531
33.86,32265.4,35566.2,1.0542,1.3872,145.4,96.7,0.531
33.88,32351.1,35734.8,1.3967,1.8009,145.4,96.7,0.531
33.9,32278.7,35664.2,1.1074,1.6276,145.4,96.7,0.531
33.92,32245.6,35539.8,0.9748,1.3226,145.4,96.7,0.531
33.94,32136.8,35285.6,0.5397,0.699,145.4,96.7,0.531
33.96,32041.1,35231.3,0.1572,0.5657,145.4,96.7,0.531
33.98,31993.3,35072.2,-0.0339,0.1756,145.4,96.7,0.531
34.0,32039.3,35047.9,0.1499,0.1159,145.4,96.7,0.531
34.02,32093.1,34923.1,0.3652,-0.1903,145.4,96.7,0.531
34.04,31876.3,34885.4,-0.5016,-0.2828,145.4,96.7,0.531
34.06,31945.0,34753.4,-0.2269,-0.6065,145.4,96.7,0.531
34.08,31829.5,34809.1,-0.6888,-0.4699,145.4,96.7,0.531
34.1,31803.9,34694.2,-0.7912,-0.7519,145.4,96.7,0.531
34.12,31745.9,34605.2,-1.0227,-0.97,145.4,96.7,0.531
34.14,31845.1,34589.5,-0.6261,-1.0086,145.4,96.7,0.531
34.16,31839.0,34503.4,-0.6509,-1.2197,145.4,96.7,0.531
34.18,31734.5,34529.2,-1.0683,-1.1564,145.4,96.7,0.531
34.2,31832.3,34502.5,-0.6774,-1.2221,145.4,96.7,0.531
34.22,31888.9,34614.8,-0.4511,-0.9466,145.4,96.7,0.531
34.24,32061.9,35073.1,0.2404,0.1777,145.4,96.7,0.531
34.26,32251.5,35392.2,0.9984,0.9605,145.4,96.7,0.531
34.28,32358.8,35690.1,1.4274,1.6912,145.4,96.7,0.531
34.3,32324.0,35864.0,1.2881,2.1178,145.4,96.7,0.531
34.32,32360.2,35660.0,1.4329,1.6175,145.4,96.7,0.531
34.34,32238.1,35478.5,0.9447,1.1721,145.4,96.7,0.531
34.36,32146.3,35306.6,0.5779,0.7505,145.4,96.7,0.531
34.38,32036.7,35114.1,0.1395,0.2782,145.4,96.7,0.531
34.4,31971.0,35056.6,-0.1232,0.1372,145.4,96.7,0.531
34.42,31942.5,34992.3,-0.237,-0.0206,145.4,96.7,0.531
34.44,31988.4,34876.2,-0.0533,-0.3052,145.4,96.7,0.531
34.46,31889.9,34907.6,-0.4474,-0.2283,145.4,96.7,0.531
34.48,31854.6,34649.9,-0.5882,-0.8605,145.4,96.7,0.531
34.5,31868.2,34743.3,-0.534,-0.6312,145.4,96.7,0.531
34.52,31821.7,34694.6,-0.72,-0.7507,145.4,96.7,0.531
34.54,31838.3,34651.3,-0.6535,-0.8571,145.4,96.7,0.531
34.56,31665.3,34553.2,-1.3451,-1.0976,145.4,96.7,0.531
34.58,31881.6,34516.8,-0.4804,-1.1869,145.4,96.7,0.531
34.6,31722.0,34460.9,-1.1185,-1.324,145.4,96.7,0.531
34.62,31786.0,34449.8,-0.8627,-1.3513,145.4,96.7,0.531
34.64,31943.9,34869.4,-0.2315,-0.322,145.4,96.7,0.531
34.66,32152.5,35166.0,0.6027,0.4057,145.4,96.7,0.531
34.68,32260.1,35506.4,1.0327,1.2405,145.4,96.7,0.531
34.7,32315.9,35789.0,1.2558,1.9339,145.4,96.7,0.531
34.72,32373.8,35713.0,1.4873,1.7475,145.4,96.7,0.531
34.74,32252.5,35515.2,1.0023,1.2622,145.4,96.7,0.531
34.76,32151.9,35321.8,0.6004,0.7877,145.4,96.7,0.531
34.78,32076.2,35250.9,0.2977,0.6138,145.4,96.7,0.531
34.8,32129.5,35053.2,0.5108,0.1289,145.4,96.7,0.531
34.82,32140.3,35040.2,0.5537,0.097,145.4,96.7,0.531
34.84,32033.6,35037.9,0.1272,0.0912,145.4,96.7,0.531
34.86,31952.0,34953.3,-0.1989,-0.1161,145.4,96.7,0.531
34.88,31930.6,34884.1,-0.2846,-0.286,145.4,96.7,0.531
34.9,31897.9,34689.7,-0.4151,-0.7628,145.4,96.7,0.531
34.92,31820.1,34598.8,-0.7261,-0.9858,145.4,96.7,0.531
34.94,31831.1,34631.1,-0.6822,-0.9067,145.4,96.7,0.531
34.96,31874.4,34669.8,-0.5094,-0.8116,145.4,96.7,0.531
34.98,31765.7,34549.8,-0.9436,-1.106,145.4,96.7,0.531
35.0,31746.8,34494.3,-1.0194,-1.2421,145.4,96.7,0.531
35.02,31771.4,34462.4,-0.9211,-1.3205,145.4,96.7,0.531
35.04,31862.4,34540.2,-0.5573,-1.1294,145.4,96.7,0.531
35.06,31992.2,34967.5,-0.0383,-0.0815,145.4,96.7,0.531
35.08,32220.0,35375.4,0.8724,0.9191,145.4,96.7,0.531
35.1,32324.9,35638.6,1.2919,1.565,145.4,96.7,0.531
35.12,32399.3,35786.5,1.5895,1.9277,145.4,96.7,0.531
35.14,32386.3,35607.2,1.5375,1.4878,145.4,96.7,0.531
35.16,32150.3,35483.7,0.594,1.1848,145.4,96.7,0.531
35.18,32106.4,35209.3,0.4182,0.5119,145.4,96.7,0.531
35.2,32065.1,35238.7,0.2533,0.584,145.4,96.7,0.531
35.22,31993.6,35106.4,-0.0325,0.2594,145.4,96.7,0.531
35.24,32061.7,35024.4,0.2396,0.0583,145.4,96.7,0.531
35.26,31968.8,34933.8,-0.1317,-0.1639,145.4,96.7,0.531
35.28,31888.8,34837.4,-0.4516,-0.4004,145.4,96.7,0.531
35.3,31908.0,34830.5,-0.3749,-0.4174,145.4,96.7,0.531
35.32,31804.8,34639.5,-0.7874,-0.886,145.4,96.7,0.531
35.34,31817.9,34738.9,-0.735,-0.6421,145.4,96.7,0.531
35.36,31840.8,34669.2,-0.6437,-0.8132,145.4,96.7,0.531
35.38,31916.1,34619.3,-0.3425,-0.9355,145.4,96.7,0.531
35.4,31739.0,34456.4,-1.0506,-1.3352,145.4,96.7,0.531
35.42,31773.1,34485.9,-0.9142,-1.2627,145.4,96.7,0.531
35.44,31853.6,34513.4,-0.5924,-1.1954,145.4,96.7,0.531
35.46,31798.8,34848.7,-0.8115,-0.3729,145.4,96.7,0.531
35.48,32053.4,35141.9,0.2064,0.3464,145.4,96.7,0.531
35.5,32243.5,35503.3,0.9663,1.2329,145.4,96.7,0.531
35.52,32348.3,35671.6,1.3856,1.6458,145.4,96.7,0.531
35.54,32417.8,35801.1,1.6634,1.9636,145.4,96.7,0.531
35.56,32355.9,35663.0,1.4158,1.6246,145.4,96.7,0.531
35.58,32269.2,35393.8,1.0691,0.9644,145.4,96.7,0.531
35.6,32132.9,35210.7,0.5243,0.5153,145.4,96.7,0.531
35.62,32045.4,35223.8,0.1743,0.5475,145.4,96.7,0.531
35.64,32100.3,35062.8,0.3939,0.1524,145.4,96.7,0.531
35.66,31971.8,35070.1,-0.1199,0.1703,145.4,96.7,0.531
35.68,31887.8,34925.1,-0.4555,-0.1854,145.4,96.7,0.531
35.7,31863.4,34853.0,-0.5532,-0.3621,145.4,96.7,0.531
35.72,31898.9,34804.2,-0.4112,-0.482,145.4,96.7,0.531
35.74,31715.6,34756.7,-1.1439,-0.5985,145.4,96.7,0.531
35.76,31866.6,34604.3,-0.5404,-0.9723,145.4,96.7,0.531
35.78,31757.5,34670.3,-0.9765,-0.8104,145.4,96.7,0.531
35.8,31856.0,34530.1,-0.5826,-1.1542,145.4,96.7,0.531
35.82,31739.5,34509.7,-1.0486,-1.2043,145.4,96.7,0.531
35.84,31757.1,34484.1,-0.9782,-1.2672,145.4,96.7,0.531
35.86,31780.5,34577.6,-0.8846,-1.0377,145.4,96.7,0.531
35.88,31962.6,34930.0,-0.1566,-0.1732,145.4,96.7,0.531
35.9,32117.1,35224.4,0.4612,0.5489,145.4,96.7,0.531
35.92,32349.2,35509.1,1.3889,1.2473,145.4,96.7,0.531
35.94,32410.3,35766.9,1.6331,1.8796,145.4,96.7,0.531
35.96,32372.3,35671.4,1.4814,1.6455,145.4,96.7,0.531
35.98,32260.4,35593.3,1.034,1.4537,145.4,96.7,0.531
36.0,32145.3,35385.1,0.5739,0.9431,145.4,96.7,0.531
36.02,32085.4,35165.2,0.3342,0.4035,145.4,96.7,0.531
36.04,32023.8,35053.0,0.0882,0.1284,145.4,96.7,0.531
36.06,31972.8,35182.0,-0.1159,0.4449,145.4,96.7,0.531
36.08,32023.5,35019.9,0.087,0.0472,145.4,96.7,0.531
36.1,31933.6,34800.0,-0.2724,-0.4923,145.4,96.7,0.531
36.12,31962.4,34859.1,-0.1575,-0.3473,145.4,96.7,0.531
36.14,31896.6,34686.4,-0.4204,-0.7709,145.4,96.7,0.531
36.16,31755.8,34737.2,-0.9835,-0.6464,145.4,96.7,0.531
36.18,31872.3,34659.8,-0.5175,-0.8363,145.4,96.7,0.531
36.2,31850.2,34604.7,-0.6059,-0.9714,145.4,96.7,0.531
36.22,31764.2,34543.8,-0.9497,-1.1206,145.4,96.7,0.531
36.24,31685.1,34472.7,-1.2661,-1.2951,145.4,96.7,0.531
36.26,31716.4,34520.7,-1.1407,-1.1774,145.4,96.7,0.531
36.28,31804.4,34654.1,-0.7892,-0.85,145.4,96.7,0.531
36.3,32001.6,34942.2,-0.0007,-0.1434,145.4,96.7,0.531
36.32,32191.2,35430.8,0.7573,1.0552,145.4,96.7,0.531
36.34,32351.4,35697.1,1.3978,1.7084,145.4,96.7,0.531
36.36,32273.3,35766.6,1.0854,1.8789,145.4,96.7,0.531
36.38,32266.2,35710.2,1.057,1.7406,145.4,96.7,0.531
36.4,32271.2,35469.2,1.0773,1.1493,145.4,96.7,0.531
36.42,32167.6,35313.1,0.6631,0.7665,145.4,96.7,0.531
36.44,32126.5,35134.4,0.4987,0.3282,145.4,96.7,0.531
36.46,32047.0,35229.8,0.181,0.5621,145.4,96.7,0.531
36.48,31996.6,35102.0,-0.0207,0.2487,145.4,96.7,0.531
36.5,32016.2,34962.5,0.0579,-0.0935,145.4,96.7,0.531
36.52,31925.5,34820.8,-0.305,-0.4412,145.4,96.7,0.531
36.54,31785.8,34835.9,-0.8633,-0.4041,145.4,96.7,0.531
36.56,31845.3,34664.2,-0.6253,-0.8253,145.4,96.7,0.531
36.58,31831.7,34682.6,-0.68,-0.7802,145.4,96.7,0.531
36.6,31843.2,34623.2,-0.6339,-0.9259,145.4,96.7,0.531
36.62,31770.1,34521.6,-0.9262,-1.1753,145.4,96.7,0.531
36.64,31737.3,34493.7,-1.0572,-1.2437,145.4,96.7,0.531
36.66,31828.5,34417.5,-0.6929,-1.4306,145.4,96.7,0.531
36.68,31726.1,34486.0,-1.1019,-1.2626,145.4,96.7,0.531
36.7,31871.9,34724.1,-0.5192,-0.6783,145.4,96.7,0.531
36.72,32090.4,35107.4,0.3545,0.2619,145.4,96.7,0.531
36.74,32256.5,35538.8,1.0186,1.3202,145.4,96.7,0.531
36.76,32244.1,35770.1,0.9687,1.8875,145.4,96.7,0.531
36.78,32431.7,35691.3,1.7189,1.6943,145.4,96.7,0.531
36.8,32276.2,35646.8,1.0971,1.5851,145.4,96.7,0.531
36.82,32172.5,35346.5,0.6824,0.8485,145.4,96.7,0.531
36.84,32048.4,35236.2,0.1863,0.5778,145.4,96.7,0.531
36.86,32080.0,35209.2,0.3126,0.5116,145.4,96.7,0.531
36.88,32019.8,34974.8,0.0722,-0.0635,145.4,96.7,0.531
36.9,31974.1,34899.9,-0.1105,-0.2472,145.4,96.7,0.531
36.92,31929.5,34864.3,-0.289,-0.3346,145.4,96.7,0.531
36.94,31828.1,34761.7,-0.6945,-0.5862,145.4,96.7,0.531
36.96,31871.1,34711.1,-0.5222,-0.7103,145.4,96.7,0.531
36.98,31777.8,34624.8,-0.8954,-0.9219,145.4,96.7,0.531
37.0,31834.0,34695.0,-0.6707,-0.7498,145.4,96.7,0.531
37.02,31925.6,34606.4,-0.3047,-0.9672,145.4,96.7,0.531
37.04,31806.2,34474.7,-0.7818,-1.2901,145.4,96.7,0.531
37.06,31853.6,34554.6,-0.5924,-1.0943,145.4,96.7,0.531
37.08,31803.4,34509.9,-0.7929,-1.2038,145.4,96.7,0.531
37.1,31831.1,34538.6,-0.6823,-1.1334,145.4,96.7,0.531
37.12,32031.3,34926.1,0.118,-0.1829,145.4,96.7,0.531
37.14,32164.9,35294.5,0.652,0.7208,145.4,96.7,0.531
37.16,32245.3,35513.8,0.9738,1.2587,145.4,96.7,0.531
37.18,32410.4,35779.1,1.6337,1.9095,145.4,96.7,0.531
37.2,32372.8,35640.3,1.4833,1.569,145.4,96.7,0.531
37.22,32254.9,35588.8,1.0121,1.4428,145.4,96.7,0.531
37.24,32144.0,35349.9,0.5686,0.8567,145.4,96.7,0.531
37.26,32104.3,35104.8,0.4098,0.2554,145.4,96.7,0.531
37.28,32093.0,35137.4,0.3648,0.3354,145.4,96.7,0.531
37.3,32070.5,35069.4,0.2748,0.1687,145.4,96.7,0.531
37.32,31999.7,35097.4,-0.0082,0.2374,145.4,96.7,0.531
37.34,31955.9,34847.9,-0.1832,-0.3746,145.4,96.7,0.531
37.36,31817.6,34716.9,-0.7364,-0.6961,145.4,96.7,0.531
37.38,31824.3,34691.4,-0.7096,-0.7585,145.4,96.7,0.531
37.4,31778.1,34671.6,-0.8941,-0.8072,145.4,96.7,0.531
37.42,31945.8,34690.7,-0.2239,-0.7604,145.4,96.7,0.531
37.44,31783.5,34605.7,-0.8724,-0.9687,145.4,96.7,0.531
37.46,31835.2,34476.3,-0.6658,-1.2862,145.4,96.7,0.531
37.48,31714.9,34436.2,-1.1468,-1.3847,145.4,96.7,0.531
37.5,31770.9,34480.5,-0.9231,-1.276,145.4,96.7,0.531
37.52,31809.0,34638.6,-0.7705,-0.8882,145.4,96.7,0.531
37.54,32063.3,35089.9,0.2462,0.2188,145.4,96.7,0.531
37.56,32166.3,35496.6,0.6579,1.2166,145.4,96.7,0.531
37.58,32316.7,35709.4,1.2591,1.7385,145.4,96.7,0.531
37.6,32383.0,35757.5,1.5242,1.8566,145.4,96.7,0.531
37.62,32317.7,35679.0,1.263,1.6641,145.4,96.7,0.531
37.64,32174.7,35506.0,0.6914,1.2395,145.4,96.7,0.531
37.66,32119.3,35237.8,0.4699,0.5818,145.4,96.7,0.531
37.68,32094.1,35219.7,0.3692,0.5374,145.4,96.7,0.531
37.7,32066.0,35077.8,0.2569,0.1891,145.4,96.7,0.531
37.72,31999.6,34963.0,-0.0087,-0.0924,145.4,96.7,0.531
37.74,32001.5,34943.0,-0.001,-0.1415,145.4,96.7,0.531
37.76,31962.4,34858.7,-0.1574,-0.3484,145.4,96.7,0.531
37.78,31848.2,34756.4,-0.6141,-0.5992,145.4,96.7,0.531
37.8,31848.1,34752.8,-0.6143,-0.608,145.4,96.7,0.531
37.82,31791.7,34743.9,-0.8399,-0.6298,145.4,96.7,0.531
37.84,31735.8,34619.7,-1.0631,-0.9346,145.4,96.7,0.531
37.86,31931.3,34659.2,-0.2818,-0.8377,145.4,96.7,0.531
37.88,31764.5,34496.0,-0.9486,-1.238,145.4,96.7,0.531
37.9,31746.4,34425.8,-1.0207,-1.4102,145.4,96.7,0.531
37.92,31815.2,34545.8,-0.7457,-1.1158,145.4,96.7,0.531
37.94,31853.1,34795.0,-0.5943,-0.5046,145.4,96.7,0.531
37.96,32042.9,35082.8,0.1644,0.2016,145.4,96.7,0.531
37.98,32250.5,35484.5,0.9946,1.187,145.4,96.7,0.531
38.0,32327.0,35711.8,1.3003,1.7444,145.4,96.7,0.531
38.02,32376.9,35672.0,1.4996,1.6468,145.4,96.7,0.531
38.04,32317.0,35457.0,1.2603,1.1194,145.4,96.7,0.531
38.06,32273.1,35412.1,1.0848,1.0094,145.4,96.7,0.531
38.08,32101.2,35147.9,0.3973,0.3613,145.4,96.7,0.531
38.1,32053.2,35103.7,0.2057,0.2526,145.4,96.7,0.531
38.12,32036.8,35130.0,0.14,0.3172,145.4,96.7,0.531
38.14,32014.9,35042.5,0.0526,0.1028,145.4,96.7,0.531
38.16,31928.9,34973.3,-0.2912,-0.0671,145.4,96.7,0.531
38.18,31975.8,34782.0,-0.1038,-0.5363,145.4,96.7,0.531
38.2,31931.4,34676.1,-0.2813,-0.7962,145.4,96.7,0.531
38.22,31810.3,34636.8,-0.7654,-0.8925,145.4,96.7,0.531
38.24,31834.9,34631.6,-0.667,-0.9053,145.4,96.7,0.531
38.26,31821.7,34668.3,-0.7199,-0.8153,145.4,96.7,0.531
38.28,31867.3,34482.6,-0.5377,-1.2707,145.4,96.7,0.531
38.3,31816.6,34487.6,-0.7401,-1.2586,145.4,96.7,0.531
38.32,31780.0,34522.7,-0.8865,-1.1726,145.4,96.7,0.531
38.34,31818.4,34700.8,-0.7331,-0.7356,145.4,96.7,0.531
38.36,31951.8,34919.9,-0.1999,-0.1982,145.4,96.7,0.531
38.38,32209.2,35322.3,0.8292,0.7889,145.4,96.7,0.531
38.4,32281.5,35666.7,1.1184,1.6339,145.4,96.7,0.531
38.42,32346.1,35747.7,1.3767,1.8326,145.4,96.7,0.531
38.44,32434.4,35762.1,1.7298,1.8678,145.4,96.7,0.531
38.46,32351.1,35441.5,1.3967,1.0815,145.4,96.7,0.531
38.48,32229.3,35321.3,0.9097,0.7865,145.4,96.7,0.531
38.5,32151.7,35177.5,0.5994,0.4338,145.4,96.7,0.531
38.52,32119.0,35074.5,0.4687,0.1811,145.4,96.7,0.531
38.54,32017.2,35041.5,0.0617,0.1002,145.4,96.7,0.531
38.56,31934.0,34942.1,-0.2708,-0.1435,145.4,96.7,0.531
38.58,31978.3,34892.0,-0.0938,-0.2666,145.4,96.7,0.531
38.6,31901.2,34733.5,-0.402,-0.6553,145.4,96.7,0.531
38.62,31907.9,34647.6,-0.3754,-0.866,145.4,96.7,0.531
38.64,31836.0,34624.4,-0.6627,-0.9231,145.4,96.7,0.531
38.66,31900.3,34643.0,-0.4058,-0.8774,145.4,96.7,0.531
38.68,31917.5,34571.6,-0.3371,-1.0526,145.4,96.7,0.531
38.7,31823.2,34506.3,-0.7137,-1.2127,145.4,96.7,0.531
38.72,31774.4,34479.2,-0.909,-1.2791,145.4,96.7,0.531
38.74,31798.5,34591.2,-0.8127,-1.0043,145.4,96.7,0.531
38.76,31932.4,34786.3,-0.2772,-0.5259,145.4,96.7,0.531
38.78,32087.9,35045.1,0.3445,0.1089,145.4,96.7,0.531
38.8,32104.8,35414.0,0.4118,1.0139,145.4,96.7,0.531
38.82,32315.1,35797.2,1.2526,1.9539,145.4,96.7,0.531
38.84,32319.2,35779.8,1.2693,1.9111,145.4,96.7,0.531
38.86,32201.9,35642.2,0.8003,1.5737,145.4,96.7,0.531
38.88,32295.5,35395.1,1.1742,0.9677,145.4,96.7,0.531
38.9,32154.8,35213.6,0.612,0.5224,145.4,96.7,0.531
38.92,32101.2,35065.0,0.3975,0.1579,145.4,96.7,0.531
38.94,32048.5,35116.9,0.1866,0.2852,145.4,96.7,0.531
38.96,32085.1,35062.1,0.3331,0.1507,145.4,96.7,0.531
38.98,31963.8,34989.8,-0.1517,-0.0267,145.4,96.7,0.531
39.0,31859.3,34862.4,-0.5694,-0.3392,145.4,96.7,0.531
39.02,31831.7,34776.7,-0.6799,-0.5493,145.4,96.7,0.531
39.04,31898.7,34613.3,-0.412,-0.9503,145.4,96.7,0.531
39.06,31782.7,34772.6,-0.8757,-0.5594,145.4,96.7,0.531
39.08,31922.4,34674.2,-0.3173,-0.8008,145.4,96.7,0.531
39.1,31774.1,34632.5,-0.9103,-0.9032,145.4,96.7,0.531
39.12,31779.1,34483.7,-0.8901,-1.2681,145.4,96.7,0.531
39.14,31672.7,34483.7,-1.3157,-1.2682,145.4,96.7,0.531
39.16,31801.9,34551.2,-0.7991,-1.1026,145.4,96.7,0.531
39.18,31912.3,34832.8,-0.3578,-0.4117,145.4,96.7,0.531
39.2,32035.8,35238.4,0.1359,0.5831,145.4,96.7,0.531
39.22,32364.9,35517.2,1.4517,1.267,145.4,96.7,0.531
39.24,32299.3,35689.6,1.1895,1.69,145.4,96.7,0.531
39.26,32313.3,35790.2,1.2455,1.9368,145.4,96.7,0.531
39.28,32316.7,35564.1,1.2591,1.3821,145.4,96.7,0.531
39.3,32236.9,35334.7,0.9401,0.8194,145.4,96.7,0.531
39.32,32075.2,35181.9,0.2935,0.4447,145.4,96.7,0.531
39.34,32061.1,35147.4,0.2374,0.3598,145.4,96.7,0.531
39.36,32118.6,35109.0,0.4671,0.2658,145.4,96.7,0.531
39.38,31997.8,35080.6,-0.0157,0.1962,145.4,96.7,0.531
39.4,31937.6,34951.4,-0.2567,-0.1207,145.4,96.7,0.531
39.42,31878.6,34744.1,-0.4925,-0.6293,145.4,96.7,0.531
39.44,31868.2,34687.6,-0.5338,-0.7678,145.4,96.7,0.531
39.46,31879.8,34615.7,-0.4877,-0.9444,145.4,96.7,0.531
39.48,31919.1,34653.8,-0.3303,-0.8508,145.4,96.7,0.531
39.5,31824.1,34648.7,-0.7103,-0.8634,145.4,96.7,0.531
39.52,31769.2,34555.1,-0.9297,-1.093,145.4,96.7,0.531
39.54,31701.7,34497.0,-1.1998,-1.2355,145.4,96.7,0.531
39.56,31699.5,34546.5,-1.2085,-1.1141,145.4,96.7,0.531
39.58,31884.7,34596.3,-0.4682,-0.992,145.4,96.7,0.531
39.6,32022.2,35009.4,0.0815,0.0214,145.4,96.7,0.531
39.62,32237.4,35501.3,0.9419,1.2282,145.4,96.7,0.531
39.64,32424.2,35616.8,1.689,1.5114,145.4,96.7,0.531
39.66,32396.3,35907.7,1.5772,2.2249,145.4,96.7,0.531
39.68,32331.4,35679.6,1.3179,1.6655,145.4,96.7,0.531
39.7,32271.7,35390.7,1.0792,0.9567,145.4,96.7,0.531
39.72,32213.3,35248.9,0.8459,0.609,145.4,96.7,0.531
39.74,32039.8,35137.6,0.152,0.336,145.4,96.7,0.531
39.76,32110.9,35118.7,0.4365,0.2896,145.4,96.7,0.531
39.78,31998.1,35028.8,-0.0145,0.0691,145.4,96.7,0.531
39.8,32000.9,34896.0,-0.0035,-0.2568,145.4,96.7,0.531
39.82,31946.5,34823.1,-0.2209,-0.4355,145.4,96.7,0.531
39.84,31826.2,34679.1,-0.7017,-0.7887,145.4,96.7,0.531
39.86,31854.3,34731.7,-0.5894,-0.6597,145.4,96.7,0.531
39.88,31823.0,34573.1,-0.7148,-1.0489,145.4,96.7,0.531
39.9,31857.2,34625.8,-0.5779,-0.9195,145.4,96.7,0.531
39.92,31778.2,34630.6,-0.8939,-0.9079,145.4,96.7,0.531
39.94,31725.9,34450.7,-1.103,-1.3492,145.4,96.7,0.531
39.96,31738.8,34383.8,-1.0513,-1.5132,145.4,96.7,0.531
39.98,31832.8,34499.6,-0.6756,-1.2292,145.4,96.7,0.531
40.0,31957.4,34694.5,-0.1772,-0.751,145.4,96.7,0.531
40.02,32055.5,35195.1,0.2147,0.477,145.4,96.7,0.531
40.04,32184.8,35500.9,0.7318,1.2272,145.4,96.7,0.532
40.06,32240.1,35770.5,0.9529,1.8883,145.4,96.7,0.532
40.08,32375.1,35781.3,1.4925,1.9149,145.3,96.7,0.533
40.1,32211.4,35565.6,0.838,1.3859,145.3,96.7,0.533
40.12,32227.8,35469.5,0.9037,1.15,145.3,96.7,0.534
40.14,32113.8,35273.9,0.4478,0.6703,145.3,96.6,0.534
40.16,32030.1,35117.8,0.1132,0.2874,145.3,96.6,0.535
40.18,32027.7,35119.3,0.1037,0.291,145.2,96.6,0.535
40.2,31956.5,35020.0,-0.181,0.0475,145.2,96.6,0.536
40.22,31868.7,34948.9,-0.5321,-0.1269,145.2,96.6,0.536
40.24,31891.0,34774.5,-0.4429,-0.5548,145.2,96.6,0.537
40.26,31828.8,34650.0,-0.6916,-0.8603,145.2,96.6,0.537
40.28,31885.9,34691.5,-0.4631,-0.7585,145.1,96.6,0.538
40.3,31833.7,34653.0,-0.6719,-0.8528,145.1,96.5,0.538
40.32,31846.8,34689.7,-0.6196,-0.7629,145.1,96.5,0.539
40.34,31767.9,34567.7,-0.935,-1.062,145.1,96.5,0.539
40.36,31737.5,34425.8,-1.0564,-1.4102,145.1,96.5,0.54
40.38,31724.3,34481.7,-1.1092,-1.273,145.0,96.5,0.54
40.4,31801.8,34542.3,-0.7995,-1.1245,145.0,96.5,0.541
40.42,31857.0,34876.4,-0.5787,-0.3047,145.0,96.5,0.541
40.44,32205.1,35295.6,0.8128,0.7234,145.0,96.5,0.542
40.46,32355.2,35509.4,1.413,1.248,145.0,96.4,0.542
40.48,32370.4,35828.8,1.4739,2.0314,144.9,96.4,0.543
40.5,32477.1,35760.4,1.9002,1.8637,144.9,96.4,0.543
40.52,32243.9,35571.9,0.9682,1.4012,144.9,96.4,0.544
40.54,32112.5,35380.7,0.4427,0.9322,144.9,96.4,0.544
40.56,32090.8,35134.6,0.3561,0.3285,144.9,96.4,0.545
40.58,32068.5,35117.9,0.2667,0.2877,144.8,96.4,0.545
40.6,31936.3,35099.2,-0.2616,0.2417,144.8,96.4,0.546
40.62,32030.2,34987.2,0.1137,-0.033,144.8,96.3,0.546
40.64,32058.6,34822.7,0.2271,-0.4366,144.8,96.3,0.547
40.66,31847.7,34789.6,-0.616,-0.5177,144.8,96.3,0.548
40.68,31945.9,34696.0,-0.2233,-0.7473,144.7,96.3,0.548
40.7,31847.2,34722.0,-0.618,-0.6835,144.7,96.3,0.549
40.72,31851.5,34634.3,-0.6009,-0.8987,144.7,96.3,0.549
40.74,31823.8,34650.7,-0.7113,-0.8586,144.7,96.3,0.55
40.76,31787.9,34580.1,-0.8551,-1.0317,144.7,96.2,0.55
40.78,31655.3,34431.1,-1.3851,-1.3971,144.6,96.2,0.551
40.8,31677.0,34544.8,-1.2982,-1.1183,144.6,96.2,0.551
40.82,31788.8,34598.1,-0.8512,-0.9875,144.6,96.2,0.552
40.84,31978.4,35066.5,-0.0934,0.1616,144.6,96.2,0.552
40.86,32228.9,35292.8,0.9081,0.7166,144.6,96.2,0.553
40.88,32276.8,35630.8,1.0996,1.5458,144.5,96.2,0.553
40.9,32330.6,35739.4,1.3145,1.8121,144.5,96.2,0.554
40.92,32330.9,35690.7,1.3158,1.6926,144.5,96.1,0.554
40.94,32202.0,35540.1,0.8003,1.3233,144.5,96.1,0.555
40.96,32062.2,35296.8,0.2416,0.7263,144.5,96.1,0.555
40.98,32118.8,35170.6,0.4681,0.4169,144.4,96.1,0.556
41.0,31993.7,35072.2,-0.0323,0.1756,144.4,96.1,0.556
41.02,31971.8,35039.7,-0.1196,0.0958,144.4,96.1,0.557
41.04,32003.1,35006.8,0.0054,0.0151,144.4,96.1,0.557
41.06,31883.5,34785.1,-0.4726,-0.5289,144.4,96.1,0.558
41.08,31918.7,34740.9,-0.3322,-0.6371,144.3,96.0,0.558
41.1,31857.5,34673.3,-0.5767,-0.803,144.3,96.0,0.559
41.12,31855.6,34620.4,-0.5845,-0.9327,144.3,96.0,0.559
41.14,31866.1,34692.0,-0.5424,-0.7573,144.3,96.0,0.56
41.16,31774.0,34612.6,-0.9104,-0.952,144.3,96.0,0.56
41.18,31699.7,34553.8,-1.2075,-1.0961,144.2,96.0,0.561
41.2,31745.7,34422.3,-1.0237,-1.4188,144.2,96.0,0.561
41.22,31753.6,34501.0,-0.9922,-1.2258,144.2,96.0,0.562
41.24,31846.0,34762.8,-0.6227,-0.5836,144.2,95.9,0.562
41.26,32091.5,35025.6,0.3586,0.0611,144.2,95.9,0.563
41.28,32222.9,35477.1,0.884,1.1687,144.1,95.9,0.563
41.3,32352.4,35717.7,1.4019,1.759,144.1,95.9,0.564
41.32,32457.2,35735.7,1.8209,1.803,144.1,95.9,0.564
41.34,32326.5,35665.9,1.2984,1.632,144.1,95.9,0.565
41.36,32284.8,35386.3,1.1314,0.9461,144.1,95.9,0.565
41.38,32178.7,35336.5,0.7075,0.8238,144.0,95.9,0.566
41.4,32174.2,35155.4,0.6894,0.3795,144.0,95.8,0.566
41.42,32120.0,35129.5,0.4727,0.3159,144.0,95.8,0.567
41.44,31994.8,35158.3,-0.028,0.3866,144.0,95.8,0.567
41.46,32045.4,34887.1,0.1744,-0.2787,144.0,95.8,0.568
41.48,31969.5,34809.5,-0.1288,-0.469,143.9,95.8,0.568
41.5,31900.6,34749.1,-0.4042,-0.6171,143.9,95.8,0.569
41.52,31772.7,34654.9,-0.9158,-0.8481,143.9,95.8,0.569
41.54,31759.9,34561.4,-0.9668,-1.0775,143.9,95.8,0.57
41.56,31790.8,34667.2,-0.8435,-0.818,143.9,95.7,0.57
41.58,31775.0,34623.1,-0.9065,-0.9262,143.8,95.7,0.571
41.6,31707.2,34479.5,-1.1775,-1.2785,143.8,95.7,0.571
41.62,31685.2,34557.1,-1.2657,-1.0882,143.8,95.7,0.572
41.64,31811.6,34508.8,-0.7603,-1.2066,143.8,95.7,0.572
41.66,31811.4,34699.7,-0.7609,-0.7382,143.8,95.7,0.573
41.68,32129.8,35111.6,0.5117,0.272,143.7,95.7,0.573
41.7,32239.2,35496.1,0.9492,1.2153,143.7,95.7,0.574
41.72,32412.3,35775.2,1.6411,1.9,143.7,95.6,0.574
41.74,32359.5,35789.5,1.43,1.9352,143.7,95.6,0.575
41.76,32367.4,35590.1,1.4616,1.4459,143.7,95.6,0.576
41.78,32183.9,35386.5,0.7284,0.9465,143.6,95.6,0.576
41.8,32095.6,35277.0,0.375,0.678,143.6,95.6,0.577
41.82,32155.2,35027.4,0.6135,0.0655,143.6,95.6,0.577
41.84,32054.7,35034.1,0.2114,0.082,143.6,95.6,0.578
41.86,32082.7,35020.6,0.3235,0.0488,143.6,95.5,0.578
41.88,31938.2,35030.9,-0.2539,0.0741,143.5,95.5,0.579
41.9,31869.3,34832.5,-0.5294,-0.4126,143.5,95.5,0.579
41.92,31864.1,34772.6,-0.5505,-0.5593,143.5,95.5,0.58
41.94,31834.9,34660.8,-0.6671,-0.8337,143.5,95.5,0.58
41.96,31799.2,34634.9,-0.8097,-0.8972,143.5,95.5,0.581
41.98,31786.2,34677.7,-0.8616,-0.7923,143.4,95.5,0.581
42.0,31734.6,34527.2,-1.068,-1.1613,143.4,95.5,0.582
42.02,31801.5,34441.2,-0.8008,-1.3724,143.4,95.4,0.582
42.04,31631.4,34502.8,-1.4809,-1.2213,143.4,95.4,0.583
42.06,31697.8,34497.8,-1.2153,-1.2334,143.4,95.4,0.583
42.08,31935.1,34811.0,-0.2665,-0.4653,143.3,95.4,0.584
42.1,32040.4,35140.9,0.1544,0.3439,143.3,95.4,0.584
42.12,32247.3,35528.6,0.9818,1.295,143.3,95.4,0.585
42.14,32356.3,35743.2,1.4175,1.8214,143.3,95.4,0.585
42.16,32384.9,35706.4,1.5318,1.7311,143.3,95.4,0.586
42.18,32304.3,35582.0,1.2096,1.4259,143.2,95.3,0.586
42.2,32191.4,35444.1,0.7583,1.0878,143.2,95.3,0.587
42.22,32162.1,35237.3,0.6408,0.5805,143.2,95.3,0.587
42.24,32024.8,35156.3,0.0922,0.3818,143.2,95.3,0.588
42.26,32012.6,35047.1,0.0432,0.114,143.2,95.3,0.588
42.28,32019.4,35111.9,0.0706,0.273,143.1,95.3,0.589
42.3,31990.5,35046.3,-0.045,0.112,143.1,95.3,0.589
42.32,31885.7,34748.9,-0.4642,-0.6177,143.1,95.3,0.59
42.34,31827.2,34653.5,-0.6978,-0.8517,143.1,95.2,0.59
42.36,31902.7,34761.4,-0.3962,-0.5869,143.1,95.2,0.591
42.38,31842.6,34650.1,-0.6362,-0.8599,143.0,95.2,0.591
42.4,31745.0,34704.8,-1.0264,-0.7259,143.0,95.2,0.592
42.42,31864.9,34589.3,-0.5472,-1.0091,143.0,95.2,0.592
42.44,31715.1,34491.2,-1.1459,-1.2497,143.0,95.2,0.593
42.46,31650.5,34431.6,-1.4043,-1.3959,143.0,95.2,0.593
42.48,31790.5,34541.2,-0.8447,-1.1271,142.9,95.2,0.594
42.5,31907.0,34827.4,-0.3789,-0.4251,142.9,95.1,0.594
42.52,32083.2,35183.1,0.3257,0.4475,142.9,95.1,0.595
42.54,32326.7,35462.6,1.2992,1.1331,142.9,95.1,0.595
42.56,32393.4,35773.5,1.5657,1.8958,142.9,95.1,0.596
42.58,32411.6,35807.6,1.6387,1.9794,142.8,95.1,0.596
42.6,32325.9,35570.0,1.2958,1.3967,142.8,95.1,0.597
42.62,32184.6,35393.3,0.731,0.9632,142.8,95.1,0.597
42.64,32198.5,35258.8,0.7866,0.6333,142.8,95.1,0.598
42.66,32113.6,35282.2,0.447,0.6907,142.8,95.0,0.598
42.68,32021.7,35108.3,0.0799,0.2641,142.7,95.0,0.599
42.7,32063.4,35033.7,0.2464,0.081,142.7,95.0,0.599
42.72,31955.9,34901.6,-0.1832,-0.243,142.7,95.0,0.6
42.74,31887.2,34838.4,-0.458,-0.3981,142.7,95.0,0.6
42.76,31901.9,34719.6,-0.3993,-0.6895,142.7,95.0,0.601
42.78,31874.3,34629.8,-0.5095,-0.9098,142.6,95.0,0.601
42.8,31849.8,34659.4,-0.6076,-0.8372,142.6,95.0,0.602
42.82,31731.5,34654.8,-1.0806,-0.8484,142.6,94.9,0.602
42.84,31779.3,34577.9,-0.8895,-1.0371,142.6,94.9,0.603
42.86,31692.7,34501.7,-1.2358,-1.224,142.6,94.9,0.604
42.88,31718.5,34423.3,-1.1326,-1.4162,142.5,94.9,0.604
42.9,31756.6,34547.2,-0.9799,-1.1123,142.5,94.9,0.605
42.92,31848.2,34846.2,-0.6138,-0.379,142.5,94.9,0.605
42.94,32127.6,35182.5,0.5032,0.4461,142.5,94.9,0.606
42.96,32263.0,35575.4,1.0444,1.4098,142.5,94.8,0.606
42.98,32392.9,35764.8,1.5637,1.8744,142.4,94.8,0.607
43.0,32388.8,35789.3,1.5471,1.9346,142.4,94.8,0.607
43.02,32401.7,35618.4,1.599,1.5154,142.4,94.8,0.608
43.04,32275.4,35415.3,1.094,1.0171,142.4,94.8,0.608
43.06,32105.0,35194.9,0.4126,0.4765,142.4,94.8,0.609
43.08,32081.7,35208.1,0.3194,0.5088,142.3,94.8,0.609
43.1,32086.3,35080.6,0.338,0.1962,142.3,94.8,0.61
43.12,32071.2,35030.0,0.2776,0.072,142.3,94.7,0.61
43.14,32081.5,35062.6,0.3187,0.1519,142.3,94.7,0.611
43.16,31932.5,34882.0,-0.2769,-0.2912,142.3,94.7,0.611
43.18,31778.7,34842.1,-0.892,-0.3889,142.2,94.7,0.612
43.2,31879.6,34599.8,-0.4883,-0.9834,142.2,94.7,0.612
43.22,31782.8,34674.6,-0.8753,-0.7999,142.2,94.7,0.613
43.24,31788.2,34496.0,-0.8536,-1.2381,142.2,94.7,0.613
43.26,31859.5,34461.4,-0.5686,-1.3227,142.2,94.7,0.614
43.28,31754.9,34497.6,-0.9869,-1.2341,142.1,94.6,0.614
43.3,31736.7,34415.1,-1.0596,-1.4365,142.1,94.6,0.615
43.32,31760.4,34531.2,-0.9649,-1.1517,142.1,94.6,0.615
43.34,31905.5,34688.3,-0.3849,-0.7662,142.1,94.6,0.616
43.36,32143.0,35204.2,0.5647,0.4993,142.1,94.6,0.616
43.38,32279.2,35495.2,1.109,1.2131,142.0,94.6,0.617
43.4,32399.0,35733.9,1.588,1.7987,142.0,94.6,0.617
43.42,32413.5,35737.1,1.6461,1.8064,142.0,94.6,0.618
43.44,32360.3,35608.5,1.4335,1.4911,142.0,94.5,0.618
43.46,32175.9,35488.1,0.6963,1.1957,142.0,94.5,0.619
43.48,32140.5,35328.1,0.5546,0.8033,141.9,94.5,0.619
43.5,32082.9,35147.8,0.3245,0.361,141.9,94.5,0.62
43.52,32111.2,35184.3,0.4376,0.4505,141.9,94.5,0.62
43.54,32007.3,35096.4,0.0223,0.2348,141.9,94.5,0.621
43.56,31942.0,34994.1,-0.2389,-0.016,141.9,94.5,0.621
43.58,31985.4,34827.1,-0.0654,-0.4258,141.8,94.5,0.622
43.6,31796.9,34781.6,-0.8191,-0.5374,141.8,94.4,0.622
43.62,31859.8,34708.4,-0.5676,-0.7169,141.8,94.4,0.623
43.64,31790.4,34777.9,-0.8448,-0.5465,141.8,94.4,0.623
43.66,31896.6,34671.7,-0.4206,-0.8069,141.8,94.4,0.624
43.68,31717.2,34637.8,-1.1377,-0.8901,141.7,94.4,0.624
43.7,31811.6,34353.3,-0.7604,-1.5881,141.7,94.4,0.625
43.72,31623.6,34356.4,-1.5117,-1.5803,141.7,94.4,0.625
43.74,31747.3,34552.3,-1.0174,-1.0999,141.7,94.4,0.626
43.76,31856.3,34743.6,-0.5814,-0.6307,141.7,94.3,0.626
43.78,32080.4,35072.9,0.3144,0.1771,141.6,94.3,0.627
43.8,32212.3,35499.9,0.8419,1.2247,141.6,94.3,0.627
43.82,32378.4,35730.6,1.5058,1.7905,141.6,94.3,0.628
43.84,32385.8,35783.9,1.5354,1.9214,141.6,94.3,0.628
43.86,32359.9,35653.8,1.4317,1.6022,141.6,94.3,0.629
43.88,32257.4,35473.2,1.0221,1.1592,141.5,94.3,0.629
43.9,32227.4,35293.0,0.9019,0.7172,141.5,94.3,0.63
43.92,32088.2,35128.0,0.3457,0.3124,141.5,94.2,0.63
43.94,32054.4,35154.9,0.2104,0.3783,141.5,94.2,0.631
43.96,31987.7,35057.5,-0.0563,0.1394,141.5,94.2,0.632
43.98,31978.1,35035.1,-0.0946,0.0845,141.4,94.2,0.632
44.0,31993.9,34848.4,-0.0316,-0.3734,141.4,94.2,0.633
44.02,31881.0,34752.9,-0.4829,-0.6077,141.4,94.2,0.633
44.04,31888.3,34634.5,-0.4538,-0.8982,141.4,94.2,0.634
44.06,31894.9,34669.6,-0.4273,-0.812,141.4,94.1,0.634
44.08,31788.9,34568.5,-0.851,-1.06,141.3,94.1,0.635
44.1,31754.2,34557.3,-0.9898,-1.0877,141.3,94.1,0.635
44.12,31690.8,34597.4,-1.2431,-0.9891,141.3,94.1,0.636
44.14,31671.7,34344.8,-1.3194,-1.6088,141.3,94.1,0.636
44.16,31691.9,34480.0,-1.2386,-1.2773,141.3,94.1,0.637
44.18,31836.7,34662.7,-0.66,-0.829,141.2,94.1,0.637
44.2,31959.0,35073.1,-0.1708,0.1776,141.2,94.1,0.638
44.22,32238.3,35294.8,0.9458,0.7216,141.2,94.0,0.638
44.24,32428.7,35600.0,1.7068,1.4702,141.2,94.0,0.639
44.26,32531.5,35723.3,2.1177,1.7726,141.2,94.0,0.639
44.28,32350.7,35614.7,1.395,1.5062,141.1,94.0,0.64
44.3,32305.3,35486.7,1.2134,1.1924,141.1,94.0,0.64
44.32,32197.2,35196.8,0.7814,0.4812,141.1,94.0,0.641
44.34,32138.6,35119.6,0.5472,0.2918,141.1,94.0,0.641
44.36,32053.9,35141.1,0.2086,0.3445,141.1,94.0,0.642
44.38,32036.7,35100.1,0.1398,0.244,141.0,93.9,0.642
44.4,32036.7,35006.2,0.1396,0.0137,141.0,93.9,0.643
44.42,31879.3,34901.9,-0.4895,-0.2422,141.0,93.9,0.643
44.44,31896.4,34763.9,-0.4211,-0.5808,141.0,93.9,0.644
44.46,31849.4,34725.6,-0.6091,-0.6748,141.0,93.9,0.644
44.48,31784.6,34694.9,-0.8682,-0.75,140.9,93.9,0.645
44.5,31765.7,34637.1,-0.9438,-0.8919,140.9,93.9,0.645
44.52,31746.6,34614.3,-1.02,-0.9476,140.9,93.9,0.646
44.54,31741.3,34578.7,-1.0412,-1.0351,140.9,93.8,0.646
44.56,31768.4,34369.9,-0.9328,-1.5474,140.9,93.8,0.647
44.58,31641.2,34416.3,-1.4415,-1.4335,140.8,93.8,0.647
44.6,31731.4,34604.7,-1.0809,-0.9714,140.8,93.8,0.648
44.62,31846.5,34887.6,-0.6206,-0.2774,140.8,93.8,0.648
44.64,32256.2,35264.3,1.017,0.6466,140.8,93.8,0.649
44.66,32340.3,35647.4,1.3535,1.5864,140.8,93.8,0.649
44.68,32476.1,35698.8,1.8965,1.7126,140.7,93.8,0.65
44.7,32389.2,35768.2,1.5489,1.8828,140.7,93.7,0.65
44.72,32327.1,35617.2,1.3008,1.5124,140.7,93.7,0.651
44.74,32187.2,35387.4,0.7414,0.9488,140.7,93.7,0.651
44.76,32231.3,35203.1,0.9178,0.4966,140.7,93.7,0.652
44.78,32054.1,35187.1,0.2094,0.4574,140.6,93.7,0.652
44.8,32128.9,35085.4,0.5082,0.2079,140.6,93.7,0.653
44.82,32008.6,35030.3,0.0272,0.0727,140.6,93.7,0.653
44.84,31915.0,34988.6,-0.3471,-0.0297,140.6,93.7,0.654
44.86,31901.9,34739.8,-0.3994,-0.6399,140.6,93.6,0.654
