timestamp,raw_red,raw_ir,filtered_red,filtered_ir,heart_rate,spo2,ac_dc_ratio
0.0,32007.3,35083.9,1.1836,1.1879,136.1,96.2,0.552
0.02,32147.5,35485.8,1.1925,1.2112,136.1,96.2,0.552
0.04,32297.4,35657.2,1.202,1.2212,136.1,96.2,0.552
0.06,32349.6,35812.0,1.2053,1.2301,136.1,96.2,0.552
0.08,32330.4,35640.3,1.2041,1.2202,136.1,96.2,0.552
0.1,32333.8,35484.1,1.2043,1.2111,136.1,96.2,0.552
0.12,32122.5,35347.0,1.1909,1.2032,136.1,96.2,0.552
0.14,32082.3,35187.2,1.1884,1.1939,136.1,96.2,0.552
0.16,32154.7,35063.7,1.193,1.1868,136.1,96.2,0.552
0.18,32013.4,35048.5,1.184,1.1859,136.1,96.2,0.552
0.2,31915.5,35029.5,1.1778,1.1848,136.1,96.2,0.552
0.22,31939.1,34858.5,1.1793,1.1749,136.1,96.2,0.552
0.24,31925.6,34843.7,1.1785,1.174,136.1,96.2,0.552
0.26,31839.8,34689.5,1.173,1.1651,136.1,96.2,0.552
0.28,31788.3,34563.0,1.1698,1.1577,136.1,96.2,0.552
0.3,31830.7,34651.6,1.1725,1.1629,136.1,96.2,0.552
0.32,31779.1,34659.6,1.1692,1.1633,136.1,96.2,0.552
0.34,31709.6,34560.0,1.1648,1.1576,136.1,96.2,0.552
0.36,31693.1,34538.0,1.1637,1.1563,136.1,96.2,0.552
0.38,31675.8,34394.6,1.1626,1.148,136.1,96.2,0.552
0.4,31833.5,34493.4,1.1726,1.1537,136.1,96.2,0.552
0.42,31744.3,34835.0,1.167,1.1735,136.1,96.2,0.552
0.44,32091.1,35114.0,1.189,1.1897,136.1,96.2,0.552
0.46,32186.4,35375.8,1.195,1.2048,136.1,96.2,0.552
0.48,32375.8,35697.6,1.207,1.2235,136.1,96.2,0.552
0.5,32360.3,35693.1,1.206,1.2232,136.1,96.2,0.552
0.52,32262.2,35757.0,1.1998,1.2269,136.1,96.2,0.552
0.54,32269.4,35515.0,1.2003,1.2129,136.1,96.2,0.552
0.56,32056.9,35232.7,1.1868,1.1966,136.1,96.2,0.552
0.58,32045.6,35099.6,1.1861,1.1888,136.1,96.2,0.552
0.6,32042.0,35113.1,1.1858,1.1896,136.1,96.2,0.552
0.62,31960.6,35079.1,1.1807,1.1877,136.1,96.2,0.552
0.64,31988.2,34975.7,1.1824,1.1817,136.1,96.2,0.552
0.66,31948.5,34849.9,1.1799,1.1744,136.1,96.2,0.552
0.68,31895.7,34849.0,1.1766,1.1743,136.1,96.2,0.552
0.7,31883.0,34685.0,1.1758,1.1648,136.1,96.2,0.552
0.72,31783.0,34682.6,1.1694,1.1647,136.1,96.2,0.552
0.74,31828.8,34640.8,1.1723,1.1623,136.1,96.2,0.552
0.76,31728.1,34627.4,1.1659,1.1615,136.1,96.2,0.552
0.78,31743.0,34515.9,1.1669,1.155,136.1,96.2,0.552
0.8,31660.1,34582.2,1.1616,1.1589,136.1,96.2,0.552
0.82,31766.3,34515.7,1.1684,1.155,136.1,96.2,0.552
0.84,31772.2,34477.6,1.1687,1.1528,136.1,96.2,0.552
0.86,31856.6,34771.0,1.1741,1.1698,136.1,96.2,0.552
0.88,31932.9,35160.7,1.1789,1.1924,136.1,96.2,0.552
0.9,32134.9,35462.1,1.1917,1.2098,136.1,96.2,0.552
0.92,32346.2,35581.2,1.2051,1.2168,136.1,96.2,0.552
0.94,32356.9,35820.1,1.2058,1.2306,136.1,96.2,0.552
0.96,32355.2,35720.8,1.2057,1.2248,136.1,96.2,0.552
0.98,32243.1,35493.6,1.1986,1.2117,136.1,96.2,0.552
1.0,32147.0,35306.2,1.1925,1.2008,136.1,96.2,0.552
1.02,32067.0,35120.0,1.1874,1.19,136.1,96.2,0.552
1.04,32029.4,35127.5,1.185,1.1905,136.1,96.2,0.552
1.06,31986.5,35074.9,1.1823,1.1874,136.1,96.2,0.552
1.08,31955.9,35047.4,1.1804,1.1858,136.1,96.2,0.552
1.1,31985.0,34871.4,1.1822,1.1756,136.1,96.2,0.552
1.12,31872.1,34768.5,1.1751,1.1697,136.1,96.2,0.552
1.14,31900.4,34719.2,1.1769,1.1668,136.1,96.2,0.552
1.16,31977.8,34661.0,1.1818,1.1634,136.1,96.2,0.552
1.18,31819.1,34627.0,1.1717,1.1615,136.1,96.2,0.552
1.2,31769.2,34618.0,1.1686,1.1609,136.1,96.2,0.552
1.22,31843.8,34578.2,1.1733,1.1586,136.1,96.2,0.552
1.24,31737.0,34591.5,1.1665,1.1594,136.1,96.2,0.552
1.26,31628.6,34443.3,1.1596,1.1508,136.1,96.2,0.552
1.28,31709.6,34528.6,1.1648,1.1558,136.1,96.2,0.552
1.3,31863.4,34821.1,1.1745,1.1727,136.1,96.2,0.552
1.32,31939.4,35011.8,1.1793,1.1838,136.1,96.2,0.552
1.34,32209.7,35366.0,1.1965,1.2043,136.1,96.2,0.552
1.36,32344.4,35712.9,1.205,1.2244,136.1,96.2,0.552
1.38,32347.6,35846.6,1.2052,1.2321,136.1,96.2,0.552
1.4,32428.5,35625.3,1.2103,1.2193,136.1,96.2,0.552
1.42,32292.7,35539.6,1.2017,1.2143,136.1,96.2,0.552
1.44,32067.9,35305.4,1.1875,1.2008,136.1,96.2,0.552
1.46,32072.0,35334.2,1.1877,1.2024,136.1,96.2,0.552
1.48,32014.4,35121.8,1.1841,1.1901,136.1,96.2,0.552
1.5,32136.8,35047.1,1.1919,1.1858,136.1,96.2,0.552
1.52,31999.5,35039.3,1.1831,1.1853,136.1,96.2,0.552
1.54,31970.9,34951.3,1.1813,1.1803,136.1,96.2,0.552
1.56,31869.7,34750.9,1.1749,1.1686,136.1,96.2,0.552
1.58,31767.9,34645.8,1.1685,1.1625,136.1,96.2,0.552
1.6,31858.5,34760.0,1.1742,1.1692,136.1,96.2,0.552
1.62,31811.6,34650.5,1.1712,1.1628,136.1,96.2,0.552
1.64,31745.8,34681.5,1.1671,1.1646,136.1,96.2,0.552
1.66,31737.6,34642.6,1.1666,1.1624,136.1,96.2,0.552
1.68,31733.8,34543.6,1.1663,1.1566,136.1,96.2,0.552
1.7,31684.8,34481.0,1.1632,1.153,136.1,96.2,0.552
1.72,31695.4,34570.6,1.1639,1.1582,136.1,96.2,0.552
1.74,31926.1,34669.7,1.1785,1.1639,136.1,96.2,0.552
1.76,32105.0,35095.3,1.1898,1.1886,136.1,96.2,0.552
1.78,32297.7,35474.7,1.202,1.2106,136.1,96.2,0.552
1.8,32413.9,35680.6,1.2094,1.2225,136.1,96.2,0.552
1.82,32328.5,35706.8,1.204,1.224,136.1,96.2,0.552
1.84,32284.9,35591.8,1.2012,1.2174,136.1,96.2,0.552
1.86,32309.2,35468.8,1.2028,1.2102,136.1,96.2,0.552
1.88,32165.7,35358.0,1.1937,1.2038,136.1,96.2,0.552
1.9,32172.9,35240.9,1.1941,1.197,136.1,96.2,0.552
1.92,32116.7,35137.6,1.1906,1.191,136.1,96.2,0.552
1.94,32002.8,35016.6,1.1834,1.184,136.1,96.2,0.552
1.96,32005.2,34998.5,1.1835,1.183,136.1,96.2,0.552
1.98,31990.7,34943.7,1.1826,1.1798,136.1,96.2,0.552
2.0,31945.4,34762.8,1.1797,1.1693,136.1,96.2,0.552
2.02,31943.1,34641.1,1.1796,1.1623,136.1,96.2,0.552
2.04,31821.4,34655.5,1.1719,1.1631,136.1,96.2,0.552
2.06,31867.6,34728.0,1.1748,1.1673,136.1,96.2,0.552
2.08,31816.1,34702.5,1.1715,1.1658,136.1,96.2,0.552
2.1,31813.0,34604.1,1.1713,1.1601,136.1,96.2,0.552
2.12,31728.0,34434.5,1.1659,1.1503,136.1,96.2,0.552
2.14,31716.2,34400.8,1.1652,1.1483,136.1,96.2,0.552
2.16,31788.5,34536.1,1.1698,1.1562,136.1,96.2,0.552
2.18,31801.7,34767.1,1.1706,1.1696,136.1,96.2,0.552
2.2,32073.3,35088.8,1.1878,1.1882,136.1,96.2,0.552
2.22,32214.4,35307.4,1.1968,1.2009,136.1,96.2,0.552
2.24,32390.3,35641.2,1.2079,1.2202,136.1,96.2,0.552
2.26,32372.8,35714.6,1.2068,1.2245,136.1,96.2,0.552
2.28,32243.7,35709.2,1.1986,1.2242,136.1,96.2,0.552
2.3,32238.9,35526.8,1.1983,1.2136,136.1,96.2,0.552
2.32,32161.8,35296.1,1.1934,1.2002,136.1,96.2,0.552
2.34,32117.7,35147.0,1.1906,1.1916,136.1,96.2,0.552
2.36,32083.8,35131.5,1.1885,1.1907,136.1,96.2,0.552
2.38,32069.1,35051.9,1.1876,1.1861,136.1,96.2,0.552
2.4,31900.1,35047.8,1.1768,1.1858,136.1,96.2,0.552
2.42,31947.2,34885.7,1.1798,1.1765,136.1,96.2,0.552
2.44,32001.4,34925.9,1.1833,1.1788,136.1,96.2,0.552
2.46,32001.0,34577.7,1.1832,1.1586,136.1,96.2,0.552
2.48,31785.5,34685.8,1.1696,1.1649,136.1,96.2,0.552
2.5,31918.5,34602.9,1.178,1.1601,136.1,96.2,0.552
2.52,31926.1,34630.5,1.1785,1.1617,136.1,96.2,0.552
2.54,31712.1,34531.9,1.1649,1.1559,136.1,96.2,0.552
2.56,31761.8,34432.3,1.1681,1.1502,136.1,96.2,0.552
2.58,31757.7,34495.6,1.1678,1.1538,136.1,96.2,0.552
2.6,31768.4,34483.1,1.1685,1.1531,136.1,96.2,0.552
2.62,31831.2,34798.2,1.1725,1.1714,136.1,96.2,0.552
2.64,31926.0,35032.5,1.1785,1.185,136.1,96.2,0.552
2.66,32201.6,35416.6,1.196,1.2072,136.1,96.2,0.552
2.68,32348.3,35779.6,1.2053,1.2282,136.1,96.2,0.552
2.7,32352.5,35727.1,1.2055,1.2252,136.1,96.2,0.552
2.72,32384.8,35681.8,1.2076,1.2226,136.1,96.2,0.552
2.74,32234.4,35478.6,1.198,1.2108,136.1,96.2,0.552
2.76,32241.0,35308.4,1.1985,1.2009,136.1,96.2,0.552
2.78,32097.0,35270.9,1.1893,1.1988,136.1,96.2,0.552
2.8,32081.3,35095.5,1.1883,1.1886,136.1,96.2,0.552
2.82,32072.0,35074.3,1.1877,1.1874,136.1,96.2,0.552
2.84,31992.9,35017.7,1.1827,1.1841,136.1,96.2,0.552
2.86,31921.4,34879.0,1.1782,1.1761,136.1,96.2,0.552
2.88,31982.2,34791.8,1.1821,1.171,136.1,96.2,0.552
2.9,31803.0,34677.7,1.1707,1.1644,136.1,96.2,0.552
2.92,31792.2,34688.0,1.17,1.165,136.1,96.2,0.552
2.94,31839.9,34593.4,1.173,1.1595,136.1,96.2,0.552
2.96,31773.3,34606.0,1.1688,1.1602,136.1,96.2,0.552
2.98,31747.6,34572.1,1.1672,1.1583,136.1,96.2,0.552
3.0,31747.0,34463.9,1.1671,1.152,136.1,96.2,0.552
3.02,31639.2,34434.6,1.1603,1.1503,136.1,96.2,0.552
3.04,31724.1,34497.7,1.1657,1.154,136.1,96.2,0.552
3.06,31857.5,34642.4,1.1741,1.1624,136.1,96.2,0.552
3.08,31997.6,34949.6,1.183,1.1801,136.1,96.2,0.552
3.1,32055.4,35385.3,1.1867,1.2054,136.1,96.2,0.552
3.12,32295.4,35653.7,1.2019,1.221,136.1,96.2,0.552
3.14,32357.1,35699.2,1.2058,1.2236,136.1,96.2,0.552
3.16,32332.8,35729.5,1.2043,1.2253,136.1,96.2,0.552
3.18,32256.3,35456.4,1.1994,1.2095,136.1,96.2,0.552
3.2,32137.0,35458.0,1.1919,1.2096,136.1,96.2,0.552
3.22,32101.8,35192.0,1.1896,1.1942,136.1,96.2,0.552
3.24,32115.5,35089.5,1.1905,1.1883,136.1,96.2,0.552
3.26,32105.3,35090.6,1.1899,1.1883,136.1,96.2,0.552
3.28,31919.0,34996.3,1.178,1.1829,136.1,96.2,0.552
3.3,31973.0,34883.6,1.1815,1.1763,136.1,96.2,0.552
3.32,31856.5,34770.3,1.1741,1.1698,136.1,96.2,0.552
3.34,31863.8,34736.2,1.1745,1.1678,136.1,96.2,0.552
3.36,31806.9,34617.7,1.1709,1.1609,136.1,96.2,0.552
3.38,31789.7,34708.2,1.1698,1.1662,136.1,96.2,0.552
3.4,31841.4,34680.1,1.1731,1.1645,136.1,96.2,0.552
3.42,31782.0,34541.2,1.1694,1.1565,136.1,96.2,0.552
3.44,31759.9,34479.4,1.168,1.1529,136.1,96.2,0.552
3.46,31655.6,34528.2,1.1614,1.1557,136.1,96.2,0.552
3.48,31571.2,34468.6,1.156,1.1523,136.1,96.2,0.552
3.5,31797.1,34645.2,1.1703,1.1625,136.1,96.2,0.552
3.52,31974.0,34966.7,1.1815,1.1811,136.1,96.2,0.552
3.54,32155.5,35477.3,1.193,1.2107,136.1,96.2,0.552
3.56,32338.2,35732.9,1.2046,1.2255,136.1,96.2,0.552
3.58,32387.7,35654.5,1.2078,1.221,136.1,96.2,0.552
3.6,32253.2,35750.5,1.1992,1.2266,136.1,96.2,0.552
3.62,32207.6,35547.4,1.1963,1.2148,136.1,96.2,0.552
3.64,32237.6,35328.5,1.1982,1.2021,136.1,96.2,0.552
3.66,32066.0,35184.0,1.1874,1.1937,136.1,96.2,0.552
3.68,32001.1,35158.1,1.1833,1.1922,136.1,96.2,0.552
3.7,31946.3,35078.6,1.1798,1.1876,136.1,96.2,0.552
3.72,32007.5,35044.5,1.1837,1.1857,136.1,96.2,0.552
3.74,32020.3,34947.1,1.1845,1.18,136.1,96.2,0.552
3.76,31960.2,34777.4,1.1807,1.1702,136.1,96.2,0.552
3.78,31811.0,34706.3,1.1712,1.1661,136.1,96.2,0.552
3.8,31782.3,34717.8,1.1694,1.1667,136.1,96.2,0.552
3.82,31745.3,34659.9,1.167,1.1634,136.1,96.2,0.552
3.84,31765.7,34698.7,1.1683,1.1656,136.1,96.2,0.552
3.86,31741.5,34488.5,1.1668,1.1534,136.1,96.2,0.552
3.88,31785.9,34514.9,1.1696,1.155,136.1,96.2,0.552
3.9,31713.3,34445.9,1.165,1.151,136.1,96.2,0.552
3.92,31804.1,34548.5,1.1708,1.1569,136.1,96.2,0.552
3.94,31873.6,34645.5,1.1752,1.1625,136.1,96.2,0.552
3.96,31974.3,34982.7,1.1816,1.1821,136.1,96.2,0.552
3.98,32125.3,35334.1,1.1911,1.2024,136.1,96.2,0.552
4.0,32210.4,35580.7,1.1965,1.2167,136.1,96.2,0.552
4.02,32314.8,35767.4,1.2031,1.2275,136.1,96.2,0.552
4.04,32409.9,35710.0,1.2092,1.2242,136.1,96.2,0.552
4.06,32275.0,35602.2,1.2006,1.218,136.1,96.2,0.552
4.08,32167.8,35394.5,1.1938,1.2059,136.1,96.2,0.552
4.1,32092.7,35249.6,1.1891,1.1975,136.1,96.2,0.552
4.12,32108.1,35203.4,1.19,1.1949,136.1,96.2,0.552
4.14,32100.0,35155.1,1.1895,1.1921,136.1,96.2,0.552
4.16,31974.4,34977.6,1.1816,1.1818,136.1,96.2,0.552
4.18,32024.5,34993.4,1.1847,1.1827,136.1,96.2,0.552
4.2,31883.6,34775.5,1.1758,1.1701,136.1,96.2,0.552
4.22,31857.8,34826.6,1.1742,1.173,136.1,96.2,0.552
4.24,31806.1,34738.7,1.1709,1.1679,136.1,96.2,0.552
4.26,31943.0,34654.3,1.1796,1.163,136.1,96.2,0.552
4.28,31763.0,34643.5,1.1682,1.1624,136.1,96.2,0.552
4.3,31781.4,34635.7,1.1693,1.162,136.1,96.2,0.552
4.32,31794.3,34490.0,1.1701,1.1535,136.1,96.2,0.552
4.34,31770.6,34393.3,1.1686,1.1479,136.1,96.2,0.552
4.36,31721.5,34486.5,1.1655,1.1533,136.1,96.2,0.552
4.38,31833.5,34665.6,1.1726,1.1637,136.1,96.2,0.552
4.4,31940.3,34981.8,1.1794,1.182,136.1,96.2,0.552
4.42,32247.3,35253.5,1.1989,1.1978,136.1,96.2,0.552
4.44,32342.5,35590.5,1.2049,1.2173,136.1,96.2,0.552
4.46,32373.9,35800.1,1.2069,1.2294,136.1,96.2,0.552
4.48,32365.3,35784.2,1.2063,1.2285,136.1,96.2,0.552
4.5,32400.5,35625.5,1.2086,1.2193,136.1,96.2,0.552
4.52,32147.3,35365.7,1.1925,1.2043,136.1,96.2,0.552
4.54,32096.8,35233.9,1.1893,1.1966,136.1,96.2,0.552
4.56,32036.0,35079.8,1.1855,1.1877,136.1,96.2,0.552
4.58,32042.8,35019.0,1.1859,1.1842,136.1,96.2,0.552
4.6,32061.5,35013.5,1.1871,1.1839,136.1,96.2,0.552
4.62,31967.0,34938.1,1.1811,1.1795,136.1,96.2,0.552
4.64,31974.5,34811.7,1.1816,1.1722,136.1,96.2,0.552
4.66,31902.1,34778.5,1.177,1.1702,136.1,96.2,0.552
4.68,31880.4,34712.8,1.1756,1.1664,136.1,96.2,0.552
4.7,31878.5,34644.8,1.1755,1.1625,136.1,96.2,0.552
4.72,31920.7,34704.3,1.1782,1.1659,136.1,96.2,0.552
4.74,31791.1,34502.8,1.1699,1.1543,136.1,96.2,0.552
4.76,31784.7,34557.5,1.1695,1.1574,136.1,96.2,0.552
4.78,31724.2,34485.8,1.1657,1.1533,136.1,96.2,0.552
4.8,31719.0,34545.0,1.1654,1.1567,136.1,96.2,0.552
4.82,31842.8,34747.5,1.1732,1.1684,136.1,96.2,0.552
4.84,31960.2,34971.7,1.1807,1.1814,136.1,96.2,0.552
4.86,32073.6,35249.8,1.1878,1.1975,136.1,96.2,0.552
4.88,32325.8,35654.5,1.2038,1.221,136.1,96.2,0.552
4.9,32367.4,35721.6,1.2065,1.2249,136.1,96.2,0.552
4.92,32381.4,35766.0,1.2074,1.2275,136.1,96.2,0.552
4.94,32281.3,35571.6,1.201,1.2162,136.1,96.2,0.552
4.96,32194.6,35364.6,1.1955,1.2042,136.1,96.2,0.552
4.98,32156.6,35261.1,1.1931,1.1982,136.1,96.2,0.552
5.0,32142.2,35118.0,1.1922,1.1899,136.1,96.2,0.552
5.02,32088.9,35154.8,1.1888,1.192,136.1,96.2,0.552
5.04,31972.6,35039.9,1.1814,1.1854,136.1,96.2,0.552
5.06,32024.0,34934.1,1.1847,1.1793,136.1,96.2,0.552
5.08,31883.5,34751.6,1.1758,1.1687,136.1,96.2,0.552
5.1,31834.7,34700.7,1.1727,1.1657,136.1,96.2,0.552
5.12,31718.3,34658.4,1.1653,1.1633,136.1,96.2,0.552
5.14,31944.3,34701.9,1.1797,1.1658,136.1,96.2,0.552
5.16,31828.6,34573.7,1.1723,1.1584,136.1,96.2,0.552
5.18,31735.2,34686.0,1.1664,1.1649,136.1,96.2,0.552
5.2,31624.8,34526.3,1.1594,1.1556,136.1,96.2,0.552
5.22,31658.2,34532.6,1.1615,1.156,136.1,96.2,0.552
5.24,31802.4,34501.0,1.1707,1.1542,136.1,96.2,0.552
5.26,31757.7,34671.0,1.1678,1.164,136.1,96.2,0.552
5.28,31941.3,35008.5,1.1795,1.1836,136.1,96.2,0.552
5.3,32107.3,35292.0,1.19,1.2,136.1,96.2,0.552
5.32,32288.1,35536.0,1.2014,1.2141,136.1,96.2,0.552
5.34,32378.6,35726.7,1.2072,1.2252,136.1,96.2,0.552
5.36,32337.4,35684.4,1.2046,1.2227,136.1,96.2,0.552
5.38,32282.1,35590.0,1.2011,1.2173,136.1,96.2,0.552
5.4,32279.9,35375.5,1.2009,1.2048,136.1,96.2,0.552
5.42,32122.5,35178.7,1.1909,1.1934,136.1,96.2,0.552
5.44,31983.2,35060.2,1.1821,1.1866,136.1,96.2,0.552
5.46,32076.8,35148.3,1.1881,1.1917,136.1,96.2,0.552
5.48,32018.7,35098.3,1.1844,1.1888,136.1,96.2,0.552
5.5,32044.5,34987.2,1.186,1.1823,136.1,96.2,0.552
5.52,31900.7,34829.6,1.1769,1.1732,136.1,96.2,0.552
5.54,31899.4,34766.7,1.1768,1.1696,136.1,96.2,0.552
5.56,31887.6,34677.5,1.1761,1.1644,136.1,96.2,0.552
5.58,31744.4,34685.3,1.167,1.1648,136.1,96.2,0.552
5.6,31849.6,34630.7,1.1737,1.1617,136.1,96.2,0.552
5.62,31805.0,34588.9,1.1708,1.1593,136.1,96.2,0.552
5.64,31771.9,34619.7,1.1687,1.161,136.1,96.2,0.552
5.66,31735.8,34535.6,1.1664,1.1562,136.1,96.2,0.552
5.68,31674.9,34357.2,1.1626,1.1458,136.1,96.2,0.552
5.7,31816.8,34579.6,1.1716,1.1587,136.1,96.2,0.552
5.72,31920.3,34923.8,1.1781,1.1787,136.1,96.2,0.552
5.74,32178.0,35213.0,1.1945,1.1954,136.1,96.2,0.552
5.76,32299.0,35537.2,1.2021,1.2142,136.1,96.2,0.552
5.78,32380.4,35656.6,1.2073,1.2211,136.1,96.2,0.552
5.8,32356.9,35661.4,1.2058,1.2214,136.1,96.2,0.552
5.82,32365.3,35491.0,1.2063,1.2115,136.1,96.2,0.552
5.84,32206.1,35372.1,1.1962,1.2046,136.1,96.2,0.552
5.86,32159.0,35245.0,1.1933,1.1973,136.1,96.2,0.552
5.88,32037.5,35152.6,1.1856,1.1919,136.1,96.2,0.552
5.9,32009.7,35171.3,1.1838,1.193,136.1,96.2,0.552
5.92,32103.0,35118.8,1.1897,1.19,136.1,96.2,0.552
5.94,31998.2,35001.3,1.1831,1.1831,136.1,96.2,0.552
5.96,31959.4,34888.3,1.1806,1.1766,136.1,96.2,0.552
5.98,31887.3,34736.8,1.176,1.1678,136.1,96.2,0.552
6.0,31852.9,34643.9,1.1739,1.1624,136.1,96.2,0.552
6.02,31871.3,34561.7,1.175,1.1577,136.1,96.2,0.552
6.04,31831.6,34664.0,1.1725,1.1636,136.1,96.2,0.552
6.06,31836.8,34608.0,1.1728,1.1604,136.1,96.2,0.552
6.08,31641.6,34569.5,1.1605,1.1581,136.1,96.2,0.552
6.1,31748.8,34447.4,1.1673,1.151,136.1,96.2,0.552
6.12,31715.6,34491.9,1.1652,1.1536,136.1,96.2,0.552
6.14,31796.3,34665.9,1.1703,1.1637,136.1,96.2,0.552
6.16,32003.3,34893.7,1.1834,1.1769,136.1,96.2,0.552
6.18,32231.6,35278.7,1.1979,1.1992,136.1,96.2,0.552
6.2,32293.2,35596.3,1.2018,1.2176,136.1,96.2,0.552
6.22,32345.9,35804.3,1.2051,1.2297,136.1,96.2,0.552
6.24,32361.5,35682.1,1.2061,1.2226,136.1,96.2,0.552
6.26,32241.4,35581.7,1.1985,1.2168,136.1,96.2,0.552
6.28,32194.4,35344.5,1.1955,1.203,136.1,96.2,0.552
6.3,32208.4,35342.5,1.1964,1.2029,136.1,96.2,0.552
6.32,32141.3,35137.0,1.1921,1.191,136.1,96.2,0.552
6.34,32018.6,35071.2,1.1844,1.1872,136.1,96.2,0.552
6.36,32059.4,35066.7,1.1869,1.1869,136.1,96.2,0.552
6.38,31981.8,35024.9,1.182,1.1845,136.1,96.2,0.552
6.4,31948.5,34793.4,1.1799,1.1711,136.1,96.2,0.552
6.42,31828.2,34772.4,1.1723,1.1699,136.1,96.2,0.552
6.44,31846.9,34608.0,1.1735,1.1604,136.1,96.2,0.552
6.46,31808.3,34665.5,1.171,1.1637,136.1,96.2,0.552
6.48,31749.0,34674.6,1.1673,1.1642,136.1,96.2,0.552
6.5,31768.9,34658.8,1.1685,1.1633,136.1,96.2,0.552
6.52,31790.9,34547.6,1.1699,1.1569,136.1,96.2,0.552
6.54,31717.7,34433.0,1.1653,1.1502,136.1,96.2,0.552
6.56,31700.9,34402.7,1.1642,1.1485,136.1,96.2,0.552
6.58,31770.7,34549.4,1.1686,1.157,136.1,96.2,0.552
6.6,31943.5,34873.2,1.1796,1.1757,136.1,96.2,0.552
6.62,32124.6,35316.0,1.1911,1.2014,136.1,96.2,0.552
6.64,32229.9,35538.7,1.1978,1.2143,136.1,96.2,0.552
6.66,32334.1,35753.9,1.2044,1.2268,136.1,96.2,0.552
6.68,32385.6,35749.4,1.2076,1.2265,136.1,96.2,0.552
6.7,32288.4,35605.6,1.2015,1.2182,136.1,96.2,0.552
6.72,32211.1,35453.0,1.1966,1.2093,136.1,96.2,0.552
6.74,32130.9,35173.6,1.1915,1.1931,136.1,96.2,0.552
6.76,31994.1,35076.5,1.1828,1.1875,136.1,96.2,0.552
6.78,31943.4,35084.1,1.1796,1.1879,136.1,96.2,0.552
6.8,32037.6,34944.7,1.1856,1.1799,136.1,96.2,0.552
6.82,31985.1,34933.9,1.1822,1.1792,136.1,96.2,0.552
6.84,32005.7,34908.0,1.1835,1.1777,136.1,96.2,0.552
6.86,31816.3,34807.1,1.1715,1.1719,136.1,96.2,0.552
6.88,31789.2,34700.2,1.1698,1.1657,136.1,96.2,0.552
6.9,31908.3,34578.0,1.1774,1.1586,136.1,96.2,0.552
6.92,31782.3,34604.1,1.1694,1.1601,136.1,96.2,0.552
6.94,31837.1,34558.6,1.1729,1.1575,136.1,96.2,0.552
6.96,31711.9,34549.9,1.1649,1.157,136.1,96.2,0.552
6.98,31780.3,34493.4,1.1693,1.1537,136.1,96.2,0.552
7.0,31685.3,34497.2,1.1632,1.1539,136.1,96.2,0.552
7.02,31835.0,34573.7,1.1727,1.1584,136.1,96.2,0.552
7.04,31937.4,34863.5,1.1792,1.1752,136.1,96.2,0.552
7.06,32134.6,35293.9,1.1917,1.2001,136.1,96.2,0.552
7.08,32310.9,35519.2,1.2029,1.2132,136.1,96.2,0.552
7.1,32328.9,35799.8,1.204,1.2294,136.1,96.2,0.552
7.12,32328.6,35758.2,1.204,1.227,136.1,96.2,0.552
7.14,32218.3,35587.4,1.197,1.2171,136.1,96.2,0.552
7.16,32165.9,35494.9,1.1937,1.2117,136.1,96.2,0.552
7.18,32173.7,35278.0,1.1942,1.1992,136.1,96.2,0.552
7.2,32054.7,35093.4,1.1866,1.1885,136.1,96.2,0.552
7.22,32109.3,35106.3,1.1901,1.1892,136.1,96.2,0.552
7.24,31956.7,35021.7,1.1804,1.1843,136.1,96.2,0.552
7.26,32021.8,34940.2,1.1846,1.1796,136.1,96.2,0.552
7.28,31921.2,34941.6,1.1782,1.1797,136.1,96.2,0.552
7.3,31829.0,34770.1,1.1723,1.1697,136.1,96.2,0.552
7.32,31897.1,34787.3,1.1767,1.1707,136.1,96.2,0.552
7.34,31785.7,34583.2,1.1696,1.1589,136.1,96.2,0.552
7.36,31798.9,34670.2,1.1704,1.164,136.1,96.2,0.552
7.38,31870.4,34654.6,1.175,1.1631,136.1,96.2,0.552
7.4,31839.4,34590.1,1.173,1.1593,136.1,96.2,0.552
7.42,31697.7,34428.1,1.164,1.1499,136.1,96.2,0.552
7.44,31747.3,34488.5,1.1672,1.1534,136.1,96.2,0.552
7.46,31745.1,34635.2,1.167,1.1619,136.1,96.2,0.552
7.48,31923.6,34879.9,1.1783,1.1761,136.1,96.2,0.552
7.5,32124.1,35236.8,1.1911,1.1968,136.1,96.2,0.552
7.52,32278.9,35623.2,1.2009,1.2192,136.1,96.2,0.552
7.54,32350.7,35727.3,1.2054,1.2252,136.1,96.2,0.552
7.56,32386.4,35756.8,1.2077,1.2269,136.1,96.2,0.552
7.58,32316.4,35615.1,1.2032,1.2187,136.1,96.2,0.552
7.6,32215.7,35402.7,1.1969,1.2064,136.1,96.2,0.552
7.62,32082.5,35242.9,1.1884,1.1971,136.1,96.2,0.552
7.64,32136.8,35237.4,1.1919,1.1968,136.1,96.2,0.552
7.66,32153.9,35135.2,1.1929,1.1909,136.1,96.2,0.552
7.68,32005.9,35047.4,1.1836,1.1858,136.1,96.2,0.552
7.7,31920.3,34996.4,1.1781,1.1829,136.1,96.2,0.552
7.72,31976.8,34842.5,1.1817,1.1739,136.1,96.2,0.552
7.74,31933.3,34701.3,1.179,1.1658,136.1,96.2,0.552
7.76,31808.9,34645.9,1.1711,1.1626,136.1,96.2,0.552
7.78,31857.5,34617.9,1.1742,1.1609,136.1,96.2,0.552
7.8,31924.2,34646.0,1.1784,1.1626,136.1,96.2,0.552
7.82,31872.1,34578.5,1.1751,1.1586,136.1,96.2,0.552
7.84,31769.5,34585.2,1.1686,1.159,136.1,96.2,0.552
7.86,31774.3,34491.1,1.1689,1.1536,136.1,96.2,0.552
7.88,31810.1,34468.4,1.1711,1.1523,136.1,96.2,0.552
7.9,31785.2,34585.4,1.1696,1.159,136.1,96.2,0.552
7.92,31900.3,34914.1,1.1769,1.1781,136.1,96.2,0.552
7.94,31985.7,35215.6,1.1823,1.1956,136.1,96.2,0.552
7.96,32266.2,35599.1,1.2001,1.2178,136.1,96.2,0.552
7.98,32374.6,35748.2,1.2069,1.2264,136.1,96.2,0.552
8.0,32389.1,35675.7,1.2078,1.2222,136.1,96.2,0.552
8.02,32336.8,35664.8,1.2045,1.2216,136.1,96.2,0.552
8.04,32206.8,35407.0,1.1963,1.2067,136.1,96.2,0.552
8.06,32134.9,35224.6,1.1917,1.1961,136.1,96.2,0.552
8.08,32054.2,35142.9,1.1866,1.1914,136.1,96.2,0.552
8.1,32080.9,35172.6,1.1883,1.1931,136.1,96.2,0.552
8.12,32070.9,35024.2,1.1877,1.1845,136.1,96.2,0.552
8.14,32030.3,34965.5,1.1851,1.1811,136.1,96.2,0.552
8.16,31929.7,34916.3,1.1787,1.1782,136.1,96.2,0.552
8.18,31792.5,34807.0,1.17,1.1719,136.1,96.2,0.552
8.2,31835.4,34731.2,1.1728,1.1675,136.1,96.2,0.552
8.22,31734.8,34763.6,1.1664,1.1694,136.1,96.2,0.552
8.24,31814.9,34665.6,1.1715,1.1637,136.1,96.2,0.552
8.26,31853.8,34601.2,1.1739,1.16,136.1,96.2,0.552
8.28,31788.4,34594.3,1.1698,1.1596,136.1,96.2,0.552
8.3,31728.6,34476.8,1.166,1.1528,136.1,96.2,0.552
8.32,31799.0,34529.5,1.1704,1.1558,136.1,96.2,0.552
8.34,31811.9,34530.2,1.1713,1.1558,136.1,96.2,0.552
8.36,31892.0,34854.7,1.1763,1.1747,136.1,96.2,0.552
8.38,32052.8,35169.9,1.1865,1.1929,136.1,96.2,0.552
8.4,32214.3,35554.6,1.1968,1.2152,136.1,96.2,0.552
8.42,32407.5,35681.5,1.209,1.2226,136.1,96.2,0.552
8.44,32364.0,35727.7,1.2063,1.2252,136.1,96.2,0.552
8.46,32329.5,35609.8,1.2041,1.2184,136.1,96.2,0.552
8.48,32269.2,35429.7,1.2002,1.208,136.1,96.2,0.552
8.5,32165.3,35236.7,1.1937,1.1968,136.1,96.2,0.552
8.52,32073.0,35195.4,1.1878,1.1944,136.1,96.2,0.552
8.54,32056.7,35159.6,1.1868,1.1923,136.1,96.2,0.552
8.56,32033.2,35105.0,1.1853,1.1892,136.1,96.2,0.552
8.58,31972.7,35064.1,1.1815,1.1868,136.1,96.2,0.552
8.6,31976.5,34840.0,1.1817,1.1738,136.1,96.2,0.552
8.62,31928.7,34698.0,1.1787,1.1656,136.1,96.2,0.552
8.64,31820.8,34681.7,1.1718,1.1646,136.1,96.2,0.552
8.66,31908.8,34736.7,1.1774,1.1678,136.1,96.2,0.552
8.68,31876.2,34620.7,1.1753,1.1611,136.1,96.2,0.552
8.7,31781.8,34619.5,1.1693,1.161,136.1,96.2,0.552
8.72,31834.0,34566.9,1.1727,1.158,136.1,96.2,0.552
8.74,31743.6,34397.4,1.1669,1.1482,136.1,96.2,0.552
8.76,31689.6,34532.4,1.1635,1.156,136.1,96.2,0.552
8.78,31916.2,34474.1,1.1779,1.1526,136.1,96.2,0.552
8.8,31912.5,34839.7,1.1776,1.1738,136.1,96.2,0.552
8.82,32037.1,35066.3,1.1855,1.1869,136.1,96.2,0.552
8.84,32279.3,35499.5,1.2009,1.212,136.1,96.2,0.552
8.86,32354.0,35596.1,1.2056,1.2176,136.1,96.2,0.552
8.88,32472.3,35805.3,1.2131,1.2297,136.1,96.2,0.552
8.9,32346.3,35601.9,1.2051,1.2179,136.1,96.2,0.552
8.92,32193.3,35329.8,1.1954,1.2022,136.1,96.2,0.552
8.94,32167.3,35283.4,1.1938,1.1995,136.1,96.2,0.552
8.96,32036.6,35255.1,1.1855,1.1979,136.1,96.2,0.552
8.98,32127.1,35163.4,1.1912,1.1925,136.1,96.2,0.552
9.0,32021.7,35057.7,1.1846,1.1864,136.1,96.2,0.552
9.02,31982.1,35058.1,1.182,1.1864,136.1,96.2,0.552
9.04,31884.5,34885.0,1.1759,1.1764,136.1,96.2,0.552
9.06,31885.4,34827.4,1.1759,1.1731,136.1,96.2,0.552
9.08,31888.6,34715.9,1.1761,1.1666,136.1,96.2,0.552
9.1,31834.4,34705.3,1.1727,1.166,136.1,96.2,0.552
9.12,31760.7,34561.3,1.168,1.1576,136.1,96.2,0.552
9.14,31823.5,34718.9,1.172,1.1668,136.1,96.2,0.552
9.16,31830.8,34578.4,1.1725,1.1586,136.1,96.2,0.552
9.18,31768.0,34554.2,1.1685,1.1572,136.1,96.2,0.552
9.2,31633.7,34531.1,1.16,1.1559,136.1,96.2,0.552
9.22,31777.1,34568.2,1.1691,1.158,136.1,96.2,0.552
9.24,31930.9,34785.5,1.1788,1.1706,136.1,96.2,0.552
9.26,32131.6,35142.5,1.1915,1.1913,136.1,96.2,0.552
9.28,32245.3,35487.1,1.1987,1.2113,136.1,96.2,0.552
9.3,32335.7,35676.4,1.2045,1.2223,136.1,96.2,0.552
9.32,32371.7,35791.8,1.2067,1.2289,136.1,96.2,0.552
9.34,32357.6,35666.4,1.2058,1.2217,136.1,96.2,0.552
9.36,32232.3,35522.3,1.1979,1.2133,136.1,96.2,0.552
9.38,32233.8,35251.6,1.198,1.1976,136.1,96.2,0.552
9.4,32105.7,35222.7,1.1899,1.196,136.1,96.2,0.552
9.42,32034.9,35110.7,1.1854,1.1895,136.1,96.2,0.552
9.44,32070.1,35041.8,1.1876,1.1855,136.1,96.2,0.552
9.46,32106.7,34938.6,1.1899,1.1795,136.1,96.2,0.552
9.48,31952.8,34864.1,1.1802,1.1752,136.1,96.2,0.552
9.5,31916.4,34753.7,1.1779,1.1688,136.1,96.2,0.552
9.52,31816.1,34690.7,1.1715,1.1651,136.1,96.2,0.552
9.54,31821.5,34659.0,1.1719,1.1633,136.1,96.2,0.552
9.56,31847.4,34665.7,1.1735,1.1637,136.1,96.2,0.552
9.58,31859.4,34611.2,1.1743,1.1605,136.1,96.2,0.552
9.6,31715.5,34582.1,1.1651,1.1589,136.1,96.2,0.552
9.62,31711.4,34552.7,1.1649,1.1572,136.1,96.2,0.552
9.64,31658.1,34424.3,1.1615,1.1497,136.1,96.2,0.552
9.66,31714.5,34610.0,1.1651,1.1605,136.1,96.2,0.552
9.68,31914.0,34856.5,1.1777,1.1748,136.1,96.2,0.552
9.7,32033.3,35101.0,1.1853,1.1889,136.1,96.2,0.552
9.72,32309.9,35462.5,1.2028,1.2099,136.1,96.2,0.552
9.74,32364.6,35697.9,1.2063,1.2235,136.1,96.2,0.552
9.76,32330.2,35766.6,1.2041,1.2275,136.1,96.2,0.552
9.78,32316.2,35762.1,1.2032,1.2272,136.1,96.2,0.552
9.8,32271.5,35520.8,1.2004,1.2132,136.1,96.2,0.552
9.82,32217.3,35410.6,1.197,1.2069,136.1,96.2,0.552
9.84,32097.2,35205.7,1.1893,1.195,136.1,96.2,0.552
9.86,32027.9,35115.2,1.1849,1.1897,136.1,96.2,0.552
9.88,32050.6,35061.1,1.1864,1.1866,136.1,96.2,0.552
9.9,32018.4,34977.6,1.1843,1.1818,136.1,96.2,0.552
9.92,31897.5,34784.1,1.1767,1.1706,136.1,96.2,0.552
9.94,31904.4,34830.3,1.1771,1.1732,136.1,96.2,0.552
9.96,31896.3,34741.8,1.1766,1.1681,136.1,96.2,0.552
9.98,31944.8,34719.5,1.1797,1.1668,136.1,96.2,0.552
10.0,31816.0,34596.1,1.1715,1.1597,136.1,96.2,0.552
10.02,31735.5,34609.5,1.1664,1.1604,136.1,96.2,0.552
10.04,31764.9,34573.6,1.1683,1.1584,136.1,96.2,0.552
10.06,31752.6,34461.8,1.1675,1.1519,136.1,96.2,0.552
10.08,31692.5,34477.1,1.1637,1.1528,136.1,96.2,0.552
10.1,31647.5,34536.1,1.1608,1.1562,136.1,96.2,0.552
10.12,31948.1,34827.2,1.1799,1.1731,136.1,96.2,0.552
10.14,32091.5,35059.6,1.189,1.1865,136.1,96.2,0.552
10.16,32149.6,35436.0,1.1927,1.2083,136.1,96.2,0.552
10.18,32383.6,35760.9,1.2075,1.2272,136.1,96.2,0.552
10.2,32324.7,35774.8,1.2038,1.228,136.1,96.2,0.552
10.22,32253.2,35642.3,1.1992,1.2203,136.1,96.2,0.552
10.24,32275.5,35455.5,1.2006,1.2095,136.1,96.2,0.552
10.26,32037.1,35337.6,1.1855,1.2026,136.1,96.2,0.552
10.28,32077.0,35171.1,1.1881,1.193,136.1,96.2,0.552
10.3,32066.4,35149.7,1.1874,1.1917,136.1,96.2,0.552
10.32,32040.3,35086.8,1.1857,1.1881,136.1,96.2,0.552
10.34,31941.6,35042.0,1.1795,1.1855,136.1,96.2,0.552
10.36,32033.9,34919.4,1.1853,1.1784,136.1,96.2,0.552
10.38,31953.5,34783.1,1.1802,1.1705,136.1,96.2,0.552
10.4,31764.7,34657.1,1.1683,1.1632,136.1,96.2,0.552
10.42,31794.0,34683.5,1.1701,1.1647,136.1,96.2,0.552
10.44,31876.1,34633.7,1.1753,1.1618,136.1,96.2,0.552
10.46,31759.5,34630.3,1.1679,1.1616,136.1,96.2,0.552
10.48,31778.7,34625.8,1.1692,1.1614,136.1,96.2,0.552
10.5,31813.5,34476.0,1.1714,1.1527,136.1,96.2,0.552
10.52,31694.5,34518.8,1.1638,1.1552,136.1,96.2,0.552
10.54,31826.9,34458.3,1.1722,1.1517,136.1,96.2,0.552
10.56,31843.1,34729.2,1.1732,1.1674,136.1,96.2,0.552
10.58,32013.6,35053.2,1.184,1.1862,136.1,96.2,0.552
10.6,32250.8,35447.0,1.1991,1.209,136.1,96.2,0.552
10.62,32409.9,35672.5,1.2092,1.222,136.1,96.2,0.552
10.64,32440.1,35854.6,1.2111,1.2326,136.1,96.2,0.552
10.66,32310.9,35655.0,1.2029,1.221,136.1,96.2,0.552
10.68,32270.3,35454.6,1.2003,1.2094,136.1,96.2,0.552
10.7,32161.9,35210.9,1.1934,1.1953,136.1,96.2,0.552
10.72,32159.0,35182.9,1.1933,1.1937,136.1,96.2,0.552
10.74,32079.2,35022.4,1.1882,1.1844,136.1,96.2,0.552
10.76,32034.3,35124.2,1.1854,1.1903,136.1,96.2,0.552
10.78,32052.0,34968.0,1.1865,1.1812,136.1,96.2,0.552
10.8,31948.6,34844.8,1.1799,1.1741,136.1,96.2,0.552
10.82,31912.5,34834.1,1.1776,1.1735,136.1,96.2,0.552
10.84,31826.8,34746.4,1.1722,1.1684,136.1,96.2,0.552
10.86,31868.2,34620.6,1.1748,1.1611,136.1,96.2,0.552
10.88,31719.1,34750.8,1.1654,1.1686,136.1,96.2,0.552
10.9,31885.3,34635.9,1.1759,1.162,136.1,96.2,0.552
10.92,31759.7,34600.0,1.168,1.1599,136.1,96.2,0.552
10.94,31611.5,34545.1,1.1586,1.1567,136.1,96.2,0.552
10.96,31741.0,34432.0,1.1668,1.1502,136.1,96.2,0.552
10.98,31781.3,34398.9,1.1693,1.1482,136.1,96.2,0.552
11.0,31852.2,34810.2,1.1738,1.1721,136.1,96.2,0.552
11.02,32013.6,35091.6,1.184,1.1884,136.1,96.2,0.552
11.04,32293.2,35426.3,1.2018,1.2078,136.1,96.2,0.552
11.06,32328.2,35597.7,1.204,1.2177,136.1,96.2,0.552
11.08,32387.1,35762.6,1.2077,1.2273,136.1,96.2,0.552
11.1,32346.6,35621.6,1.2052,1.2191,136.1,96.2,0.552
11.12,32247.3,35554.1,1.1989,1.2152,136.1,96.2,0.552
11.14,32104.5,35155.5,1.1898,1.1921,136.1,96.2,0.552
11.16,32098.2,35149.6,1.1894,1.1917,136.1,96.2,0.552
11.18,31989.0,35051.3,1.1825,1.186,136.1,96.2,0.552
11.2,32072.7,35026.8,1.1878,1.1846,136.1,96.2,0.552
11.22,31897.4,34988.3,1.1767,1.1824,136.1,96.2,0.552
11.24,32064.9,34930.7,1.1873,1.1791,136.1,96.2,0.552
11.26,31879.2,34832.2,1.1755,1.1733,136.1,96.2,0.552
11.28,31837.7,34718.2,1.1729,1.1667,136.1,96.2,0.552
11.3,31942.3,34636.8,1.1795,1.162,136.1,96.2,0.552
11.32,31809.6,34630.8,1.1711,1.1617,136.1,96.2,0.552
11.34,31768.5,34706.6,1.1685,1.1661,136.1,96.2,0.552
11.36,31820.5,34521.2,1.1718,1.1553,136.1,96.2,0.552
11.38,31837.5,34525.1,1.1729,1.1556,136.1,96.2,0.552
11.4,31708.0,34457.8,1.1647,1.1517,136.1,96.2,0.552
11.42,31765.9,34547.8,1.1683,1.1569,136.1,96.2,0.552
11.44,31787.3,34712.1,1.1697,1.1664,136.1,96.2,0.552
11.46,31974.5,35154.8,1.1816,1.192,136.1,96.2,0.552
11.48,32221.6,35292.5,1.1972,1.2,136.1,96.2,0.552
11.5,32403.3,35738.4,1.2087,1.2259,136.1,96.2,0.552
11.52,32389.0,35739.7,1.2078,1.2259,136.1,96.2,0.552
11.54,32410.9,35689.3,1.2092,1.223,136.1,96.2,0.552
11.56,32281.8,35602.9,1.201,1.218,136.1,96.2,0.552
11.58,32235.0,35302.1,1.1981,1.2006,136.1,96.2,0.552
11.6,32161.6,35224.0,1.1934,1.196,136.1,96.2,0.552
11.62,31965.3,35096.3,1.181,1.1887,136.1,96.2,0.552
11.64,32073.7,35237.1,1.1879,1.1968,136.1,96.2,0.552
11.66,31894.9,34913.1,1.1765,1.178,136.1,96.2,0.552
11.68,31931.0,34841.8,1.1788,1.1739,136.1,96.2,0.552
11.7,31862.7,34811.7,1.1745,1.1722,136.1,96.2,0.552
11.72,31773.4,34722.6,1.1688,1.167,136.1,96.2,0.552
11.74,31871.7,34687.7,1.175,1.165,136.1,96.2,0.552
11.76,31909.5,34686.7,1.1774,1.1649,136.1,96.2,0.552
11.78,31759.4,34660.1,1.1679,1.1634,136.1,96.2,0.552
11.8,31782.1,34685.2,1.1694,1.1648,136.1,96.2,0.552
11.82,31772.4,34415.1,1.1688,1.1492,136.1,96.2,0.552
11.84,31735.7,34417.1,1.1664,1.1493,136.1,96.2,0.552
11.86,31752.0,34469.9,1.1675,1.1524,136.1,96.2,0.552
11.88,31915.8,34729.6,1.1778,1.1674,136.1,96.2,0.552
11.9,32013.6,35015.2,1.184,1.184,136.1,96.2,0.552
11.92,32167.7,35429.5,1.1938,1.208,136.1,96.2,0.552
11.94,32298.2,35717.0,1.2021,1.2246,136.1,96.2,0.552
11.96,32475.8,35745.3,1.2133,1.2263,136.1,96.2,0.552
11.98,32406.4,35716.0,1.2089,1.2246,136.1,96.2,0.552
12.0,32319.6,35483.6,1.2034,1.2111,136.1,96.2,0.552
12.02,32202.1,35326.5,1.196,1.202,136.1,96.2,0.552
12.04,31976.1,35160.9,1.1817,1.1924,136.1,96.2,0.552
12.06,32029.5,35152.2,1.1851,1.1919,136.1,96.2,0.552
12.08,32103.9,35167.2,1.1898,1.1928,136.1,96.2,0.552
12.1,31978.9,34970.3,1.1818,1.1814,136.1,96.2,0.552
12.12,32035.8,34825.4,1.1854,1.173,136.1,96.2,0.552
12.14,31830.4,34865.9,1.1724,1.1753,136.1,96.2,0.552
12.16,31837.5,34747.5,1.1729,1.1684,136.1,96.2,0.552
12.18,31896.4,34626.6,1.1766,1.1614,136.1,96.2,0.552
12.2,31908.4,34663.6,1.1774,1.1636,136.1,96.2,0.552
12.22,31827.1,34651.2,1.1722,1.1629,136.1,96.2,0.552
12.24,31776.1,34516.3,1.169,1.155,136.1,96.2,0.552
12.26,31731.9,34500.8,1.1662,1.1541,136.1,96.2,0.552
12.28,31638.3,34442.1,1.1603,1.1507,136.1,96.2,0.552
12.3,31740.7,34534.5,1.1667,1.1561,136.1,96.2,0.552
12.32,31806.5,34709.2,1.1709,1.1662,136.1,96.2,0.552
12.34,31964.1,35050.1,1.1809,1.186,136.1,96.2,0.552
12.36,32234.4,35420.2,1.198,1.2074,136.1,96.2,0.552
12.38,32407.5,35649.8,1.209,1.2207,136.1,96.2,0.552
12.4,32427.3,35749.7,1.2103,1.2265,136.1,96.2,0.552
12.42,32328.1,35676.6,1.204,1.2223,136.1,96.2,0.552
12.44,32224.0,35416.2,1.1974,1.2072,136.1,96.2,0.552
12.46,32176.6,35334.1,1.1944,1.2024,136.1,96.2,0.552
12.48,32062.4,35190.9,1.1871,1.1941,136.1,96.2,0.552
12.5,32021.0,35088.9,1.1845,1.1882,136.1,96.2,0.552
12.52,32061.6,35029.2,1.1871,1.1848,136.1,96.2,0.552
12.54,31942.4,34933.1,1.1795,1.1792,136.1,96.2,0.552
12.56,31972.5,34935.0,1.1814,1.1793,136.1,96.2,0.552
12.58,31874.4,34775.0,1.1752,1.17,136.1,96.2,0.552
12.6,31940.9,34657.2,1.1794,1.1632,136.1,96.2,0.552
12.62,31793.9,34661.2,1.1701,1.1634,136.1,96.2,0.552
12.64,31800.0,34667.2,1.1705,1.1638,136.1,96.2,0.552
12.66,31796.7,34654.4,1.1703,1.163,136.1,96.2,0.552
12.68,31813.1,34627.2,1.1713,1.1615,136.1,96.2,0.552
12.7,31691.2,34465.3,1.1636,1.1521,136.1,96.2,0.552
12.72,31665.2,34394.4,1.162,1.148,136.1,96.2,0.552
12.74,31781.9,34453.5,1.1694,1.1514,136.1,96.2,0.552
12.76,31905.9,34716.1,1.1772,1.1666,136.1,96.2,0.552
12.78,32090.8,35052.9,1.1889,1.1861,136.1,96.2,0.552
12.8,32166.2,35377.9,1.1937,1.205,136.1,96.2,0.552
12.82,32318.5,35571.9,1.2034,1.2162,136.1,96.2,0.552
12.84,32406.8,35708.1,1.209,1.2241,136.1,96.2,0.552
12.86,32352.9,35781.6,1.2056,1.2284,136.1,96.2,0.552
12.88,32184.6,35585.4,1.1949,1.217,136.1,96.2,0.552
12.9,32130.1,35310.5,1.1914,1.2011,136.1,96.2,0.552
12.92,32138.2,35172.0,1.1919,1.193,136.1,96.2,0.552
12.94,32052.3,35117.4,1.1865,1.1899,136.1,96.2,0.552
12.96,32017.1,35069.7,1.1843,1.1871,136.1,96.2,0.552
12.98,32002.4,35009.6,1.1833,1.1836,136.1,96.2,0.552
13.0,31989.8,34850.4,1.1825,1.1744,136.1,96.2,0.552
13.02,31903.2,34723.8,1.177,1.1671,136.1,96.2,0.552
13.04,31824.4,34660.4,1.1721,1.1634,136.1,96.2,0.552
13.06,31852.6,34781.7,1.1738,1.1704,136.1,96.2,0.552
13.08,31830.6,34669.8,1.1724,1.1639,136.1,96.2,0.552
13.1,31787.3,34595.1,1.1697,1.1596,136.1,96.2,0.552
13.12,31748.4,34606.3,1.1672,1.1603,136.1,96.2,0.552
13.14,31693.3,34493.9,1.1637,1.1537,136.1,96.2,0.552
13.16,31690.3,34585.2,1.1636,1.159,136.1,96.2,0.552
13.18,31757.7,34477.3,1.1678,1.1528,136.1,96.2,0.552
13.2,31898.5,34708.1,1.1767,1.1662,136.1,96.2,0.552
13.22,32084.0,34915.3,1.1885,1.1782,136.1,96.2,0.552
13.24,32178.1,35284.7,1.1945,1.1996,136.1,96.2,0.552
13.26,32352.3,35566.4,1.2055,1.2159,136.1,96.2,0.552
13.28,32326.0,35805.0,1.2038,1.2297,136.1,96.2,0.552
13.3,32409.1,35767.4,1.2091,1.2275,136.1,96.2,0.552
13.32,32188.6,35572.3,1.1951,1.2162,136.1,96.2,0.552
13.34,32157.8,35363.2,1.1932,1.2041,136.1,96.2,0.552
13.36,32171.4,35135.1,1.194,1.1909,136.1,96.2,0.552
13.38,32016.8,35270.1,1.1842,1.1987,136.1,96.2,0.552
13.4,32045.1,35073.2,1.186,1.1873,136.1,96.2,0.552
13.42,31967.8,34970.7,1.1811,1.1814,136.1,96.2,0.552
13.44,31950.3,34983.4,1.18,1.1821,136.1,96.2,0.552
13.46,31918.1,34878.4,1.178,1.176,136.1,96.2,0.552
13.48,31860.8,34688.6,1.1744,1.165,136.1,96.2,0.552
13.5,31809.5,34621.6,1.1711,1.1611,136.1,96.2,0.552
13.52,31885.0,34679.6,1.1759,1.1645,136.1,96.2,0.552
13.54,31812.4,34578.2,1.1713,1.1586,136.1,96.2,0.552
13.56,31821.0,34642.3,1.1718,1.1623,136.1,96.2,0.552
13.58,31710.2,34544.4,1.1648,1.1567,136.1,96.2,0.552
13.6,31738.7,34548.9,1.1666,1.1569,136.1,96.2,0.552
13.62,31736.5,34558.9,1.1665,1.1575,136.1,96.2,0.552
13.64,31867.4,34588.6,1.1748,1.1592,136.1,96.2,0.552
13.66,31957.3,34949.4,1.1805,1.1801,136.1,96.2,0.552
13.68,32222.8,35274.3,1.1973,1.199,136.1,96.2,0.552
13.7,32282.8,35566.3,1.2011,1.2159,136.1,96.2,0.552
13.72,32398.4,35706.8,1.2084,1.224,136.1,96.2,0.552
13.74,32379.3,35674.7,1.2072,1.2222,136.1,96.2,0.552
13.76,32258.4,35516.5,1.1996,1.213,136.1,96.2,0.552
13.78,32171.2,35411.6,1.194,1.2069,136.1,96.2,0.552
13.8,32156.5,35299.1,1.1931,1.2004,136.1,96.2,0.552
13.82,32030.4,35139.3,1.1851,1.1911,136.1,96.2,0.552
13.84,32039.4,35147.9,1.1857,1.1916,136.1,96.2,0.552
13.86,32024.4,35120.2,1.1847,1.19,136.1,96.2,0.552
13.88,31996.2,34923.8,1.1829,1.1787,136.1,96.2,0.552
13.9,31930.9,34840.9,1.1788,1.1739,136.1,96.2,0.552
13.92,31856.4,34681.1,1.1741,1.1646,136.1,96.2,0.552
13.94,31823.6,34728.2,1.172,1.1673,136.1,96.2,0.552
13.96,31865.4,34666.5,1.1747,1.1637,136.1,96.2,0.552
13.98,31807.6,34691.6,1.171,1.1652,136.1,96.2,0.552
14.0,31855.2,34565.7,1.174,1.1579,136.1,96.2,0.552
14.02,31735.9,34491.3,1.1664,1.1536,136.1,96.2,0.552
14.04,31763.6,34476.8,1.1682,1.1528,136.1,96.2,0.552
14.06,31762.7,34455.8,1.1681,1.1515,136.1,96.2,0.552
14.08,31845.6,34603.4,1.1734,1.1601,136.1,96.2,0.552
14.1,32075.8,34977.1,1.188,1.1817,136.1,96.2,0.552
14.12,32157.9,35320.2,1.1932,1.2016,136.1,96.2,0.552
14.14,32292.8,35598.0,1.2017,1.2177,136.1,96.2,0.552
14.16,32438.7,35744.1,1.211,1.2262,136.1,96.2,0.552
14.18,32368.5,35676.9,1.2065,1.2223,136.1,96.2,0.552
14.2,32226.1,35555.8,1.1975,1.2153,136.1,96.2,0.552
14.22,32073.3,35411.2,1.1878,1.2069,136.1,96.2,0.552
14.24,32161.3,35243.1,1.1934,1.1972,136.1,96.2,0.552
14.26,32117.9,35130.5,1.1907,1.1906,136.1,96.2,0.552
14.28,32069.6,35095.4,1.1876,1.1886,136.1,96.2,0.552
14.3,32019.1,35034.4,1.1844,1.1851,136.1,96.2,0.552
14.32,31921.7,34980.9,1.1782,1.182,136.1,96.2,0.552
14.34,31974.0,34806.4,1.1815,1.1719,136.1,96.2,0.552
14.36,31874.6,34769.7,1.1752,1.1697,136.1,96.2,0.552
14.38,31828.0,34667.8,1.1723,1.1638,136.1,96.2,0.552
14.4,31870.2,34611.1,1.175,1.1605,136.1,96.2,0.552
14.42,31892.5,34649.8,1.1764,1.1628,136.1,96.2,0.552
14.44,31870.6,34574.5,1.175,1.1584,136.1,96.2,0.552
14.46,31652.5,34474.1,1.1612,1.1526,136.1,96.2,0.552
14.48,31687.8,34514.3,1.1634,1.1549,136.1,96.2,0.552
14.5,31844.9,34533.1,1.1733,1.156,136.1,96.2,0.552
14.52,31831.1,34548.5,1.1725,1.1569,136.1,96.2,0.552
14.54,31902.0,34910.0,1.177,1.1779,136.1,96.2,0.552
14.56,32110.6,35293.9,1.1902,1.2001,136.1,96.2,0.552
14.58,32351.4,35542.9,1.2055,1.2145,136.1,96.2,0.552
14.6,32402.8,35715.3,1.2087,1.2245,136.1,96.2,0.552
14.62,32440.1,35610.9,1.2111,1.2185,136.1,96.2,0.552
14.64,32239.4,35495.5,1.1984,1.2118,136.1,96.2,0.552
14.66,32252.2,35435.6,1.1992,1.2083,136.1,96.2,0.552
14.68,32151.9,35265.7,1.1928,1.1985,136.1,96.2,0.552
14.7,32028.4,35099.1,1.185,1.1888,136.1,96.2,0.552
14.72,31983.5,35156.7,1.1821,1.1922,136.1,96.2,0.552
14.74,31980.9,35083.2,1.182,1.1879,136.1,96.2,0.552
14.76,32051.9,34996.8,1.1865,1.1829,136.1,96.2,0.552
14.78,31913.0,34805.8,1.1777,1.1718,136.1,96.2,0.552
14.8,31896.2,34804.8,1.1766,1.1718,136.1,96.2,0.552
14.82,31833.8,34635.6,1.1726,1.162,136.1,96.2,0.552
14.84,31957.1,34701.7,1.1805,1.1658,136.1,96.2,0.552
14.86,31780.1,34646.4,1.1692,1.1626,136.1,96.2,0.552
14.88,31741.2,34701.1,1.1668,1.1657,136.1,96.2,0.552
14.9,31805.8,34509.1,1.1709,1.1546,136.1,96.2,0.552
14.92,31790.5,34513.9,1.1699,1.1549,136.1,96.2,0.552
14.94,31826.6,34556.5,1.1722,1.1574,136.1,96.2,0.552
14.96,31793.9,34594.8,1.1701,1.1596,136.1,96.2,0.552
14.98,31958.6,34944.0,1.1806,1.1798,136.1,96.2,0.552
15.0,32264.2,35317.5,1.1999,1.2015,136.1,96.2,0.552
15.02,32316.2,35624.3,1.2032,1.2192,136.1,96.2,0.552
15.04,32447.9,35789.5,1.2116,1.2288,136.1,96.2,0.552
15.06,32383.9,35750.6,1.2075,1.2266,136.1,96.2,0.552
15.08,32291.7,35539.2,1.2017,1.2143,136.1,96.2,0.552
15.1,32145.2,35348.6,1.1924,1.2033,136.1,96.2,0.552
15.12,32088.9,35184.0,1.1888,1.1937,136.1,96.2,0.552
15.14,32028.2,35104.0,1.185,1.1891,136.1,96.2,0.552
15.16,32070.0,35054.1,1.1876,1.1862,136.1,96.2,0.552
15.18,32034.3,35068.1,1.1854,1.187,136.1,96.2,0.552
15.2,31985.9,34920.0,1.1823,1.1784,136.1,96.2,0.552
15.22,31878.7,34800.8,1.1755,1.1715,136.1,96.2,0.552
15.24,31891.7,34693.5,1.1763,1.1653,136.1,96.2,0.552
15.26,31830.6,34725.9,1.1724,1.1672,136.1,96.2,0.552
15.28,31829.1,34536.0,1.1723,1.1562,136.1,96.2,0.552
15.3,31848.4,34662.7,1.1736,1.1635,136.1,96.2,0.552
15.32,31816.6,34644.9,1.1716,1.1625,136.1,96.2,0.552
15.34,31802.1,34561.1,1.1706,1.1576,136.1,96.2,0.552
15.36,31687.0,34511.8,1.1633,1.1548,136.1,96.2,0.552
15.38,31700.9,34461.0,1.1642,1.1518,136.1,96.2,0.552
15.4,31907.2,34672.9,1.1773,1.1641,136.1,96.2,0.552
15.42,32044.7,34898.6,1.186,1.1772,136.1,96.2,0.552
15.44,32027.4,35288.7,1.1849,1.1998,136.1,96.2,0.552
15.46,32295.7,35634.1,1.2019,1.2198,136.1,96.2,0.552
15.48,32408.6,35782.7,1.2091,1.2284,136.1,96.2,0.552
15.5,32440.0,35769.9,1.2111,1.2277,136.1,96.2,0.552
15.52,32307.4,35690.2,1.2027,1.2231,136.1,96.2,0.552
15.54,32164.8,35409.9,1.1936,1.2068,136.1,96.2,0.552
15.56,32099.6,35282.0,1.1895,1.1994,136.1,96.2,0.552
15.58,32082.4,35188.2,1.1884,1.194,136.1,96.2,0.552
15.6,32038.4,35051.5,1.1856,1.1861,136.1,96.2,0.552
15.62,31996.5,35003.4,1.183,1.1833,136.1,96.2,0.552
15.64,31970.8,34924.0,1.1813,1.1787,136.1,96.2,0.552
15.66,31958.1,34880.0,1.1805,1.1761,136.1,96.2,0.552
15.68,31930.5,34763.7,1.1788,1.1694,136.1,96.2,0.552
15.7,31966.1,34611.2,1.181,1.1605,136.1,96.2,0.552
15.72,31843.3,34675.3,1.1732,1.1643,136.1,96.2,0.552
15.74,31874.3,34591.1,1.1752,1.1594,136.1,96.2,0.552
15.76,31859.9,34568.0,1.1743,1.158,136.1,96.2,0.552
15.78,31746.2,34462.1,1.1671,1.1519,136.1,96.2,0.552
15.8,31800.2,34472.1,1.1705,1.1525,136.1,96.2,0.552
15.82,31720.1,34473.5,1.1654,1.1526,136.1,96.2,0.552
15.84,31902.4,34540.6,1.177,1.1564,136.1,96.2,0.552
15.86,31937.0,34843.9,1.1792,1.174,136.1,96.2,0.552
15.88,32188.8,35204.6,1.1952,1.1949,136.1,96.2,0.552
15.9,32210.9,35567.6,1.1966,1.216,136.1,96.2,0.552
15.92,32283.6,35700.6,1.2012,1.2237,136.1,96.2,0.552
15.94,32331.1,35752.0,1.2042,1.2266,136.1,96.2,0.552
15.96,32347.4,35560.5,1.2052,1.2155,136.1,96.2,0.552
15.98,32184.7,35465.0,1.1949,1.21,136.1,96.2,0.552
16.0,32138.4,35334.1,1.192,1.2024,136.1,96.2,0.552
16.02,32164.8,35126.3,1.1936,1.1904,136.1,96.2,0.552
16.04,32035.7,35108.7,1.1854,1.1894,136.1,96.2,0.552
16.06,32010.0,34970.3,1.1838,1.1814,136.1,96.2,0.552
16.08,32018.2,34887.2,1.1843,1.1765,136.1,96.2,0.552
16.1,31852.2,34949.1,1.1738,1.1801,136.1,96.2,0.552
16.12,31885.4,34696.6,1.1759,1.1655,136.1,96.2,0.552
16.14,31858.8,34787.6,1.1742,1.1708,136.1,96.2,0.552
16.16,31867.1,34700.5,1.1748,1.1657,136.1,96.2,0.552
16.18,31825.7,34738.6,1.1721,1.1679,136.1,96.2,0.552
16.2,31844.0,34601.4,1.1733,1.16,136.1,96.2,0.552
16.22,31689.0,34473.8,1.1635,1.1526,136.1,96.2,0.552
16.24,31653.2,34455.1,1.1612,1.1515,136.1,96.2,0.552
16.26,31792.7,34518.0,1.17,1.1551,136.1,96.2,0.552
16.28,31821.3,34644.7,1.1719,1.1625,136.1,96.2,0.552
16.3,31926.4,34900.3,1.1785,1.1773,136.1,96.2,0.552
16.32,32106.9,35237.9,1.19,1.1969,136.1,96.2,0.552
16.34,32303.6,35524.5,1.2024,1.2135,136.1,96.2,0.552
16.36,32309.5,35682.0,1.2028,1.2226,136.1,96.2,0.552
16.38,32372.2,35667.4,1.2068,1.2217,136.1,96.2,0.552
16.4,32352.0,35626.8,1.2055,1.2194,136.1,96.2,0.552
16.42,32270.2,35406.6,1.2003,1.2066,136.1,96.2,0.552
16.44,32197.6,35174.4,1.1957,1.1932,136.1,96.2,0.552
16.46,32111.7,35165.3,1.1903,1.1926,136.1,96.2,0.552
16.48,32097.9,35048.4,1.1894,1.1859,136.1,96.2,0.552
16.5,32029.5,35029.5,1.1851,1.1848,136.1,96.2,0.552
16.52,31979.1,34945.1,1.1819,1.1799,136.1,96.2,0.552
16.54,31925.7,34842.1,1.1785,1.1739,136.1,96.2,0.552
16.56,31944.1,34776.3,1.1796,1.1701,136.1,96.2,0.552
16.58,31838.6,34725.1,1.173,1.1671,136.1,96.2,0.552
16.6,31820.0,34670.7,1.1718,1.164,136.1,96.2,0.552
16.62,31826.7,34681.7,1.1722,1.1646,136.1,96.2,0.552
16.64,31863.5,34547.1,1.1745,1.1568,136.1,96.2,0.552
16.66,31781.4,34610.8,1.1693,1.1605,136.1,96.2,0.552
16.68,31682.3,34520.6,1.163,1.1553,136.1,96.2,0.552
16.7,31795.8,34405.3,1.1702,1.1486,136.1,96.2,0.552
16.72,31740.2,34634.3,1.1667,1.1619,136.1,96.2,0.552
16.74,31934.8,34843.1,1.179,1.174,136.1,96.2,0.552
16.76,32155.4,35268.6,1.193,1.1986,136.1,96.2,0.552
16.78,32185.7,35468.4,1.195,1.2102,136.1,96.2,0.552
16.8,32378.3,35787.5,1.2072,1.2287,136.1,96.2,0.552
16.82,32364.8,35725.2,1.2063,1.2251,136.1,96.2,0.552
16.84,32283.7,35547.4,1.2012,1.2148,136.1,96.2,0.552
16.86,32327.6,35491.8,1.2039,1.2116,136.1,96.2,0.552
16.88,32000.6,35272.2,1.1832,1.1988,136.1,96.2,0.552
16.9,32117.6,35097.7,1.1906,1.1887,136.1,96.2,0.552
16.92,32060.1,35012.9,1.187,1.1838,136.1,96.2,0.552
16.94,32083.2,35005.4,1.1885,1.1834,136.1,96.2,0.552
16.96,31928.6,34928.5,1.1787,1.1789,136.1,96.2,0.552
16.98,31876.8,34871.6,1.1754,1.1756,136.1,96.2,0.552
17.0,31784.0,34734.8,1.1695,1.1677,136.1,96.2,0.552
17.02,31883.8,34604.0,1.1758,1.1601,136.1,96.2,0.552
17.04,31757.5,34616.4,1.1678,1.1608,136.1,96.2,0.552
17.06,31838.4,34649.2,1.1729,1.1627,136.1,96.2,0.552
17.08,31764.7,34627.7,1.1683,1.1615,136.1,96.2,0.552
17.1,31737.1,34495.4,1.1665,1.1538,136.1,96.2,0.552
17.12,31726.6,34555.6,1.1659,1.1573,136.1,96.2,0.552
17.14,31802.9,34455.4,1.1707,1.1515,136.1,96.2,0.552
17.16,31784.9,34542.2,1.1695,1.1565,136.1,96.2,0.552
17.18,31924.5,34859.0,1.1784,1.1749,136.1,96.2,0.552
17.2,32150.5,35162.0,1.1927,1.1925,136.1,96.2,0.552
17.22,32251.0,35568.8,1.1991,1.216,136.1,96.2,0.552
17.24,32342.6,35758.4,1.2049,1.227,136.1,96.2,0.552
17.26,32403.9,35723.8,1.2088,1.225,136.1,96.2,0.552
17.28,32307.6,35675.0,1.2027,1.2222,136.1,96.2,0.552
17.3,32282.1,35352.8,1.2011,1.2035,136.1,96.2,0.552
17.32,32128.8,35246.2,1.1913,1.1973,136.1,96.2,0.552
17.34,31987.2,35251.7,1.1824,1.1977,136.1,96.2,0.552
17.36,32034.3,35001.2,1.1854,1.1831,136.1,96.2,0.552
17.38,32044.4,35017.5,1.186,1.1841,136.1,96.2,0.552
17.4,32037.9,35054.9,1.1856,1.1863,136.1,96.2,0.552
17.42,31972.8,34843.3,1.1815,1.174,136.1,96.2,0.552
17.44,31840.8,34770.0,1.1731,1.1697,136.1,96.2,0.552
17.46,31872.9,34754.4,1.1751,1.1688,136.1,96.2,0.552
17.48,31802.1,34718.1,1.1706,1.1667,136.1,96.2,0.552
17.5,31880.8,34700.4,1.1756,1.1657,136.1,96.2,0.552
17.52,31806.1,34483.1,1.1709,1.1531,136.1,96.2,0.552
17.54,31849.5,34587.1,1.1736,1.1591,136.1,96.2,0.552
17.56,31763.9,34404.6,1.1682,1.1486,136.1,96.2,0.552
17.58,31792.8,34425.9,1.1701,1.1498,136.1,96.2,0.552
17.6,31734.3,34595.4,1.1663,1.1596,136.1,96.2,0.552
17.62,31834.6,34920.0,1.1727,1.1784,136.1,96.2,0.552
17.64,32176.0,35159.7,1.1943,1.1923,136.1,96.2,0.552
17.66,32216.5,35493.0,1.1969,1.2116,136.1,96.2,0.552
17.68,32278.8,35745.8,1.2009,1.2263,136.1,96.2,0.552
17.7,32377.4,35734.3,1.2071,1.2256,136.1,96.2,0.552
17.72,32351.8,35619.8,1.2055,1.219,136.1,96.2,0.552
17.74,32224.4,35470.9,1.1974,1.2104,136.1,96.2,0.552
17.76,32080.9,35176.2,1.1883,1.1933,136.1,96.2,0.552
17.78,32059.1,35207.7,1.1869,1.1951,136.1,96.2,0.552
17.8,32066.7,35170.5,1.1874,1.193,136.1,96.2,0.552
17.82,32013.3,34984.3,1.184,1.1822,136.1,96.2,0.552
17.84,31967.4,34966.2,1.1811,1.1811,136.1,96.2,0.552
17.86,31985.8,34875.4,1.1823,1.1759,136.1,96.2,0.552
17.88,31751.7,34806.5,1.1674,1.1719,136.1,96.2,0.552
17.9,31885.0,34676.4,1.1759,1.1643,136.1,96.2,0.552
17.92,31873.1,34660.3,1.1751,1.1634,136.1,96.2,0.552
17.94,31806.0,34683.9,1.1709,1.1648,136.1,96.2,0.552
17.96,31781.0,34574.1,1.1693,1.1584,136.1,96.2,0.552
17.98,31798.7,34579.6,1.1704,1.1587,136.1,96.2,0.552
18.0,31764.3,34404.6,1.1682,1.1486,136.1,96.2,0.552
18.02,31670.6,34493.6,1.1623,1.1537,136.1,96.2,0.552
18.04,31714.7,34550.3,1.1651,1.157,136.1,96.2,0.552
18.06,31931.8,34839.3,1.1789,1.1738,136.1,96.2,0.552
18.08,32076.8,35143.9,1.1881,1.1914,136.1,96.2,0.552
18.1,32304.2,35438.7,1.2025,1.2085,136.1,96.2,0.552
18.12,32427.3,35726.1,1.2103,1.2251,136.1,96.2,0.552
18.14,32340.4,35711.5,1.2048,1.2243,136.1,96.2,0.552
18.16,32275.9,35580.9,1.2007,1.2167,136.1,96.2,0.552
18.18,32267.8,35457.7,1.2002,1.2096,136.1,96.2,0.552
18.2,32160.5,35367.4,1.1934,1.2044,136.1,96.2,0.552
18.22,32149.3,35185.9,1.1926,1.1938,136.1,96.2,0.552
18.24,32048.7,35096.7,1.1863,1.1887,136.1,96.2,0.552
18.26,31965.8,35059.8,1.181,1.1865,136.1,96.2,0.552
18.28,31974.7,35005.6,1.1816,1.1834,136.1,96.2,0.552
18.3,31909.9,34847.6,1.1775,1.1742,136.1,96.2,0.552
18.32,31785.8,34798.8,1.1696,1.1714,136.1,96.2,0.552
18.34,31883.2,34688.0,1.1758,1.165,136.1,96.2,0.552
18.36,31801.8,34674.6,1.1706,1.1642,136.1,96.2,0.552
18.38,31836.9,34662.4,1.1728,1.1635,136.1,96.2,0.552
18.4,31818.6,34723.1,1.1717,1.167,136.1,96.2,0.552
18.42,31752.6,34633.4,1.1675,1.1618,136.1,96.2,0.552
18.44,31743.4,34481.9,1.1669,1.1531,136.1,96.2,0.552
18.46,31698.5,34447.3,1.1641,1.151,136.1,96.2,0.552
18.48,31707.1,34541.5,1.1646,1.1565,136.1,96.2,0.552
18.5,31903.3,34827.6,1.1771,1.1731,136.1,96.2,0.552
18.52,32049.5,35159.1,1.1863,1.1923,136.1,96.2,0.552
18.54,32234.2,35590.4,1.198,1.2173,136.1,96.2,0.552
18.56,32372.6,35767.4,1.2068,1.2275,136.1,96.2,0.552
18.58,32402.8,35702.9,1.2087,1.2238,136.1,96.2,0.552
18.6,32265.9,35510.6,1.2,1.2127,136.1,96.2,0.552
18.62,32255.1,35494.7,1.1993,1.2117,136.1,96.2,0.552
18.64,32202.3,35320.0,1.196,1.2016,136.1,96.2,0.552
18.66,32167.1,35230.9,1.1938,1.1965,136.1,96.2,0.552
18.68,31955.4,35062.7,1.1804,1.1867,136.1,96.2,0.552
18.7,32005.5,35103.7,1.1835,1.1891,136.1,96.2,0.552
18.72,31968.4,34930.8,1.1812,1.1791,136.1,96.2,0.552
18.74,31885.0,34766.1,1.1759,1.1695,136.1,96.2,0.552
18.76,31902.5,34747.8,1.177,1.1685,136.1,96.2,0.552
18.78,31959.2,34634.8,1.1806,1.1619,136.1,96.2,0.552
18.8,31762.6,34616.5,1.1681,1.1608,136.1,96.2,0.552
18.82,31936.9,34759.7,1.1792,1.1691,136.1,96.2,0.552
18.84,31782.5,34616.3,1.1694,1.1608,136.1,96.2,0.552
18.86,31735.8,34558.1,1.1664,1.1575,136.1,96.2,0.552
18.88,31699.2,34470.8,1.1641,1.1524,136.1,96.2,0.552
18.9,31731.1,34486.3,1.1661,1.1533,136.1,96.2,0.552
18.92,31745.7,34508.7,1.1671,1.1546,136.1,96.2,0.552
18.94,31882.6,34808.9,1.1757,1.172,136.1,96.2,0.552
18.96,32017.3,35134.5,1.1843,1.1909,136.1,96.2,0.552
18.98,32257.5,35544.3,1.1995,1.2146,136.1,96.2,0.552
19.0,32417.5,35707.9,1.2096,1.2241,136.1,96.2,0.552
19.02,32375.5,35674.3,1.207,1.2221,136.1,96.2,0.552
19.04,32288.7,35715.2,1.2015,1.2245,136.1,96.2,0.552
19.06,32346.3,35480.4,1.2051,1.2109,136.1,96.2,0.552
19.08,32191.0,35296.2,1.1953,1.2002,136.1,96.2,0.552
19.1,32120.2,35133.9,1.1908,1.1908,136.1,96.2,0.552
19.12,31987.6,35119.8,1.1824,1.19,136.1,96.2,0.552
19.14,32019.4,35025.9,1.1844,1.1846,136.1,96.2,0.552
19.16,31969.7,34970.7,1.1813,1.1814,136.1,96.2,0.552
19.18,32005.9,34861.8,1.1836,1.1751,136.1,96.2,0.552
19.2,31959.0,34802.9,1.1806,1.1716,136.1,96.2,0.552
19.22,31847.9,34790.1,1.1735,1.1709,136.1,96.2,0.552
19.24,31820.1,34669.0,1.1718,1.1639,136.1,96.2,0.552
19.26,31844.0,34607.4,1.1733,1.1603,136.1,96.2,0.552
19.28,31786.8,34624.6,1.1697,1.1613,136.1,96.2,0.552
19.3,31839.2,34516.1,1.173,1.155,136.1,96.2,0.552
19.32,31686.2,34462.8,1.1633,1.1519,136.1,96.2,0.552
19.34,31679.9,34438.0,1.1629,1.1505,136.1,96.2,0.552
19.36,31789.7,34439.5,1.1698,1.1506,136.1,96.2,0.552
19.38,31897.7,34791.4,1.1767,1.171,136.1,96.2,0.552
19.4,32114.0,35057.0,1.1904,1.1864,136.1,96.2,0.552
19.42,32207.7,35366.5,1.1963,1.2043,136.1,96.2,0.552
19.44,32336.7,35641.7,1.2045,1.2203,136.1,96.2,0.552
19.46,32409.8,35793.5,1.2092,1.2291,136.1,96.2,0.552
19.48,32298.8,35725.8,1.2021,1.2251,136.1,96.2,0.552
19.5,32271.3,35483.5,1.2004,1.2111,136.1,96.2,0.552
19.52,32151.7,35279.4,1.1928,1.1993,136.1,96.2,0.552
19.54,32116.4,35150.9,1.1906,1.1918,136.1,96.2,0.552
19.56,31948.9,35110.0,1.1799,1.1894,136.1,96.2,0.552
19.58,32085.6,35080.4,1.1886,1.1877,136.1,96.2,0.552
19.6,32051.2,34965.5,1.1864,1.1811,136.1,96.2,0.552
19.62,31989.7,34845.5,1.1825,1.1741,136.1,96.2,0.552
19.64,31870.8,34743.5,1.175,1.1682,136.1,96.2,0.552
19.66,31894.1,34724.0,1.1765,1.1671,136.1,96.2,0.552
19.68,31828.0,34740.5,1.1723,1.168,136.1,96.2,0.552
19.7,31834.5,34652.7,1.1727,1.1629,136.1,96.2,0.552
19.72,31816.7,34685.9,1.1716,1.1649,136.1,96.2,0.552
19.74,31763.9,34556.9,1.1682,1.1574,136.1,96.2,0.552
19.76,31647.2,34557.9,1.1608,1.1575,136.1,96.2,0.552
19.78,31786.1,34534.2,1.1696,1.1561,136.1,96.2,0.552
19.8,31707.1,34626.9,1.1646,1.1614,136.1,96.2,0.552
19.82,31908.7,34744.9,1.1774,1.1683,136.1,96.2,0.552
19.84,32067.8,35094.2,1.1875,1.1885,136.1,96.2,0.552
19.86,32143.4,35450.2,1.1923,1.2092,136.1,96.2,0.552
19.88,32370.1,35690.5,1.2066,1.2231,136.1,96.2,0.552
19.9,32326.6,35789.0,1.2039,1.2288,136.1,96.2,0.552
19.92,32343.8,35706.7,1.205,1.224,136.1,96.2,0.552
19.94,32244.1,35446.5,1.1987,1.2089,136.1,96.2,0.552
19.96,32152.6,35277.0,1.1929,1.1991,136.1,96.2,0.552
19.98,32114.0,35163.3,1.1904,1.1925,136.1,96.2,0.552
20.0,32053.8,35062.9,1.1866,1.1867,136.1,96.2,0.552
20.02,32027.6,35062.9,1.1849,1.1867,136.1,96.2,0.552
20.04,31988.1,34995.2,1.1824,1.1828,136.1,96.2,0.552
20.06,32061.1,34829.8,1.1871,1.1732,136.1,96.2,0.552
20.08,31924.0,34739.6,1.1784,1.168,136.1,96.2,0.552
20.1,31898.0,34714.6,1.1767,1.1665,136.1,96.2,0.552
20.12,31778.2,34636.0,1.1691,1.162,136.1,96.2,0.552
20.14,31782.7,34547.3,1.1694,1.1568,136.1,96.2,0.552
20.16,31889.5,34658.5,1.1762,1.1633,136.1,96.2,0.552
20.18,31814.7,34471.6,1.1714,1.1525,136.1,96.2,0.552
20.2,31754.9,34527.8,1.1676,1.1557,136.1,96.2,0.552
20.22,31675.8,34450.6,1.1626,1.1512,136.1,96.2,0.552
20.24,31765.6,34449.5,1.1683,1.1512,136.1,96.2,0.552
20.26,31886.4,34806.6,1.176,1.1719,136.1,96.2,0.552
20.28,32067.1,35063.9,1.1874,1.1868,136.1,96.2,0.552
20.3,32149.4,35386.6,1.1927,1.2055,136.1,96.2,0.552
20.32,32355.3,35614.9,1.2057,1.2187,136.1,96.2,0.552
20.34,32310.6,35752.6,1.2029,1.2267,136.1,96.2,0.552
20.36,32389.1,35733.4,1.2078,1.2256,136.1,96.2,0.552
20.38,32289.4,35426.6,1.2015,1.2078,136.1,96.2,0.552
20.4,32140.0,35303.8,1.1921,1.2007,136.1,96.2,0.552
20.42,32046.2,35132.8,1.1861,1.1908,136.1,96.2,0.552
20.44,32012.3,35091.9,1.184,1.1884,136.1,96.2,0.552
20.46,31938.6,35078.2,1.1793,1.1876,136.1,96.2,0.552
20.48,32019.2,35030.6,1.1844,1.1848,136.1,96.2,0.552
20.5,32100.9,34918.5,1.1896,1.1783,136.1,96.2,0.552
20.52,31873.2,34805.5,1.1751,1.1718,136.1,96.2,0.552
20.54,31831.9,34785.6,1.1725,1.1706,136.1,96.2,0.552
20.56,31823.6,34652.5,1.172,1.1629,136.1,96.2,0.552
20.58,31853.3,34629.7,1.1739,1.1616,136.1,96.2,0.552
20.6,31788.0,34678.9,1.1697,1.1645,136.1,96.2,0.552
20.62,31841.1,34519.5,1.1731,1.1552,136.1,96.2,0.552
20.64,31701.1,34449.5,1.1642,1.1512,136.1,96.2,0.552
20.66,31720.8,34451.5,1.1655,1.1513,136.1,96.2,0.552
20.68,31699.3,34536.0,1.1641,1.1562,136.1,96.2,0.552
20.7,31859.0,34613.7,1.1742,1.1607,136.1,96.2,0.552
20.72,32019.4,35152.8,1.1844,1.1919,136.1,96.2,0.552
20.74,32252.4,35434.1,1.1992,1.2082,136.1,96.2,0.552
20.76,32462.0,35691.4,1.2125,1.2231,136.1,96.2,0.552
20.78,32367.9,35839.7,1.2065,1.2317,136.1,96.2,0.552
20.8,32429.7,35674.3,1.2104,1.2221,136.1,96.2,0.552
20.82,32224.6,35492.0,1.1974,1.2116,136.1,96.2,0.552
20.84,32136.0,35367.4,1.1918,1.2044,136.1,96.2,0.552
20.86,32086.2,35189.8,1.1886,1.1941,136.1,96.2,0.552
20.88,32028.5,35156.2,1.185,1.1921,136.1,96.2,0.552
20.9,31976.3,35038.5,1.1817,1.1853,136.1,96.2,0.552
20.92,31939.1,34999.8,1.1793,1.1831,136.1,96.2,0.552
20.94,31936.3,34966.9,1.1791,1.1812,136.1,96.2,0.552
20.96,31938.8,34826.1,1.1793,1.173,136.1,96.2,0.552
20.98,31909.4,34696.1,1.1774,1.1655,136.1,96.2,0.552
21.0,31811.2,34527.2,1.1712,1.1557,136.1,96.2,0.552
21.02,31801.8,34777.1,1.1706,1.1702,136.1,96.2,0.552
21.04,31784.8,34639.5,1.1695,1.1622,136.1,96.2,0.552
21.06,31839.9,34595.9,1.173,1.1597,136.1,96.2,0.552
21.08,31751.2,34571.9,1.1674,1.1583,136.1,96.2,0.552
21.1,31799.0,34532.3,1.1704,1.156,136.1,96.2,0.552
21.12,31755.0,34558.2,1.1677,1.1575,136.1,96.2,0.552
21.14,31888.9,34710.3,1.1761,1.1663,136.1,96.2,0.552
21.16,32012.3,35039.8,1.184,1.1854,136.1,96.2,0.552
21.18,32054.7,35349.9,1.1867,1.2033,136.1,96.2,0.552
21.2,32277.7,35661.5,1.2008,1.2214,136.1,96.2,0.552
21.22,32414.5,35770.5,1.2095,1.2277,136.1,96.2,0.552
21.24,32271.9,35720.4,1.2004,1.2248,136.1,96.2,0.552
21.26,32253.2,35526.7,1.1992,1.2136,136.1,96.2,0.552
21.28,32143.3,35229.9,1.1923,1.1964,136.1,96.2,0.552
21.3,32106.3,35275.1,1.1899,1.199,136.1,96.2,0.552
21.32,32051.4,35198.5,1.1864,1.1946,136.1,96.2,0.552
21.34,32014.2,35095.7,1.1841,1.1886,136.1,96.2,0.552
21.36,31989.3,34989.3,1.1825,1.1825,136.1,96.2,0.552
21.38,31907.1,34875.1,1.1773,1.1758,136.1,96.2,0.552
21.4,31843.0,34763.2,1.1732,1.1693,136.1,96.2,0.552
21.42,31810.7,34613.9,1.1712,1.1607,136.1,96.2,0.552
21.44,31831.7,34666.8,1.1725,1.1638,136.1,96.2,0.552
21.46,31777.9,34622.1,1.1691,1.1612,136.1,96.2,0.552
21.48,31821.8,34637.1,1.1719,1.162,136.1,96.2,0.552
21.5,31715.4,34623.6,1.1651,1.1613,136.1,96.2,0.552
21.52,31793.2,34546.1,1.1701,1.1568,136.1,96.2,0.552
21.54,31732.5,34491.2,1.1662,1.1536,136.1,96.2,0.552
21.56,31651.5,34606.1,1.1611,1.1602,136.1,96.2,0.552
21.58,31828.4,34698.3,1.1723,1.1656,136.1,96.2,0.552
21.6,32017.6,35056.4,1.1843,1.1863,136.1,96.2,0.552
21.62,32212.8,35422.4,1.1967,1.2075,136.1,96.2,0.552
21.64,32193.3,35575.8,1.1954,1.2164,136.1,96.2,0.552
21.66,32385.3,35753.4,1.2076,1.2267,136.1,96.2,0.552
21.68,32195.6,35674.0,1.1956,1.2221,136.1,96.2,0.552
21.7,32259.3,35482.0,1.1996,1.211,136.1,96.2,0.552
21.72,32160.0,35304.1,1.1933,1.2007,136.1,96.2,0.552
21.74,32119.0,35178.9,1.1907,1.1934,136.1,96.2,0.552
21.76,32058.4,35166.2,1.1869,1.1927,136.1,96.2,0.552
21.78,32049.3,35088.0,1.1863,1.1882,136.1,96.2,0.552
21.8,32079.8,35080.8,1.1882,1.1878,136.1,96.2,0.552
21.82,31938.1,35044.5,1.1793,1.1856,136.1,96.2,0.552
21.84,31920.1,34804.5,1.1781,1.1717,136.1,96.2,0.552
21.86,31919.8,34767.7,1.1781,1.1696,136.1,96.2,0.552
21.88,31932.2,34692.4,1.1789,1.1652,136.1,96.2,0.552
21.9,31850.6,34572.7,1.1737,1.1583,136.1,96.2,0.552
21.92,31726.6,34671.0,1.1659,1.164,136.1,96.2,0.552
21.94,31836.9,34574.7,1.1728,1.1584,136.1,96.2,0.552
21.96,31838.3,34561.2,1.1729,1.1576,136.1,96.2,0.552
21.98,31720.4,34439.9,1.1655,1.1506,136.1,96.2,0.552
22.0,31818.6,34447.2,1.1717,1.151,136.1,96.2,0.552
22.02,31809.2,34727.3,1.1711,1.1673,136.1,96.2,0.552
22.04,32061.2,34971.0,1.1871,1.1814,136.1,96.2,0.552
22.06,32200.5,35360.5,1.1959,1.204,136.1,96.2,0.552
22.08,32398.9,35547.9,1.2085,1.2148,136.1,96.2,0.552
22.1,32293.9,35813.9,1.2018,1.2302,136.1,96.2,0.552
22.12,32385.0,35691.0,1.2076,1.2231,136.1,96.2,0.552
22.14,32268.4,35624.8,1.2002,1.2193,136.1,96.2,0.552
22.16,32193.8,35323.4,1.1955,1.2018,136.1,96.2,0.552
22.18,31976.7,35157.3,1.1817,1.1922,136.1,96.2,0.552
22.2,32047.1,35067.1,1.1862,1.187,136.1,96.2,0.552
22.22,31983.7,35067.4,1.1821,1.187,136.1,96.2,0.552
22.24,32009.8,35018.8,1.1838,1.1842,136.1,96.2,0.552
22.26,31900.5,34896.6,1.1769,1.1771,136.1,96.2,0.552
22.28,32022.3,34884.6,1.1846,1.1764,136.1,96.2,0.552
22.3,31891.3,34758.9,1.1763,1.1691,136.1,96.2,0.552
22.32,31800.3,34740.4,1.1705,1.168,136.1,96.2,0.552
22.34,31910.5,34668.9,1.1775,1.1639,136.1,96.2,0.552
22.36,31871.5,34609.1,1.175,1.1604,136.1,96.2,0.552
22.38,31854.2,34523.4,1.1739,1.1555,136.1,96.2,0.552
22.4,31740.7,34490.3,1.1667,1.1535,136.1,96.2,0.552
22.42,31727.6,34481.7,1.1659,1.153,136.1,96.2,0.552
22.44,31823.1,34429.9,1.172,1.15,136.1,96.2,0.552
22.46,31885.7,34636.6,1.1759,1.162,136.1,96.2,0.552
22.48,32039.0,35003.4,1.1857,1.1833,136.1,96.2,0.552
22.5,32223.2,35356.4,1.1973,1.2037,136.1,96.2,0.552
22.52,32352.8,35654.0,1.2055,1.221,136.1,96.2,0.552
22.54,32427.6,35728.1,1.2103,1.2253,136.1,96.2,0.552
22.56,32448.7,35673.5,1.2116,1.2221,136.1,96.2,0.552
22.58,32338.7,35547.4,1.2047,1.2148,136.1,96.2,0.552
22.6,32180.0,35292.9,1.1946,1.2,136.1,96.2,0.552
22.62,32080.6,35291.2,1.1883,1.1999,136.1,96.2,0.552
22.64,32055.6,35113.7,1.1867,1.1897,136.1,96.2,0.552
22.66,32026.6,35063.7,1.1849,1.1868,136.1,96.2,0.552
22.68,31961.9,35129.5,1.1808,1.1906,136.1,96.2,0.552
22.7,31914.4,34816.7,1.1778,1.1724,136.1,96.2,0.552
22.72,31920.8,34735.7,1.1782,1.1678,136.1,96.2,0.552
22.74,31791.4,34750.5,1.17,1.1686,136.1,96.2,0.552
22.76,31821.3,34722.0,1.1719,1.167,136.1,96.2,0.552
22.78,31865.3,34762.2,1.1746,1.1693,136.1,96.2,0.552
22.8,31869.9,34710.2,1.1749,1.1663,136.1,96.2,0.552
22.82,31754.5,34597.7,1.1676,1.1598,136.1,96.2,0.552
22.84,31709.9,34555.4,1.1648,1.1573,136.1,96.2,0.552
22.86,31599.7,34458.3,1.1578,1.1517,136.1,96.2,0.552
22.88,31765.2,34508.2,1.1683,1.1546,136.1,96.2,0.552
22.9,31840.1,34686.3,1.173,1.1649,136.1,96.2,0.552
22.92,32021.1,34900.3,1.1845,1.1773,136.1,96.2,0.552
22.94,32174.8,35283.1,1.1943,1.1995,136.1,96.2,0.552
22.96,32304.6,35553.1,1.2025,1.2151,136.1,96.2,0.552
22.98,32367.5,35829.2,1.2065,1.2311,136.1,96.2,0.552
23.0,32434.7,35707.8,1.2107,1.2241,136.1,96.2,0.552
23.02,32330.2,35583.2,1.2041,1.2169,136.1,96.2,0.552
23.04,32092.0,35259.8,1.189,1.1981,136.1,96.2,0.552
23.06,32187.6,35152.5,1.1951,1.1919,136.1,96.2,0.552
23.08,32060.1,35134.7,1.187,1.1909,136.1,96.2,0.552
23.1,32026.2,35104.5,1.1848,1.1891,136.1,96.2,0.552
23.12,32052.9,35091.3,1.1865,1.1884,136.1,96.2,0.552
23.14,31979.3,34907.4,1.1819,1.1777,136.1,96.2,0.552
23.16,31932.0,34817.6,1.1789,1.1725,136.1,96.2,0.552
23.18,31937.3,34708.9,1.1792,1.1662,136.1,96.2,0.552
23.2,31774.7,34665.0,1.1689,1.1637,136.1,96.2,0.552
23.22,31820.4,34612.1,1.1718,1.1606,136.1,96.2,0.552
23.24,31875.3,34618.3,1.1753,1.161,136.1,96.2,0.552
23.26,31774.4,34613.0,1.1689,1.1606,136.1,96.2,0.552
23.28,31841.4,34560.1,1.1731,1.1576,136.1,96.2,0.552
23.3,31773.1,34502.8,1.1688,1.1543,136.1,96.2,0.552
23.32,31713.0,34474.3,1.165,1.1526,136.1,96.2,0.552
23.34,31788.3,34656.8,1.1698,1.1632,136.1,96.2,0.552
23.36,31994.9,35013.2,1.1829,1.1838,136.1,96.2,0.552
23.38,32102.0,35332.0,1.1896,1.2023,136.1,96.2,0.552
23.4,32349.1,35631.0,1.2053,1.2196,136.1,96.2,0.552
23.42,32414.7,35726.0,1.2095,1.2251,136.1,96.2,0.552
23.44,32363.5,35609.9,1.2062,1.2184,136.1,96.2,0.552
23.46,32320.8,35572.3,1.2035,1.2162,136.1,96.2,0.552
23.48,32210.3,35414.9,1.1965,1.2071,136.1,96.2,0.552
23.5,32064.2,35149.1,1.1873,1.1917,136.1,96.2,0.552
23.52,32052.2,35092.6,1.1865,1.1884,136.1,96.2,0.552
23.54,32064.2,35071.6,1.1872,1.1872,136.1,96.2,0.552
23.56,32027.9,35054.6,1.185,1.1862,136.1,96.2,0.552
23.58,31963.2,34966.2,1.1808,1.1811,136.1,96.2,0.552
23.6,31920.5,34845.8,1.1781,1.1741,136.1,96.2,0.552
23.62,31922.5,34720.1,1.1783,1.1668,136.1,96.2,0.552
23.64,31799.8,34731.4,1.1705,1.1675,136.1,96.2,0.552
23.66,31828.6,34722.9,1.1723,1.167,136.1,96.2,0.552
23.68,31751.9,34586.3,1.1675,1.1591,136.1,96.2,0.552
23.7,31854.3,34581.1,1.1739,1.1588,136.1,96.2,0.552
23.72,31861.3,34533.7,1.1744,1.156,136.1,96.2,0.552
23.74,31706.0,34487.0,1.1645,1.1533,136.1,96.2,0.552
23.76,31734.2,34500.5,1.1663,1.1541,136.1,96.2,0.552
23.78,31850.9,34705.9,1.1737,1.166,136.1,96.2,0.552
23.8,31971.1,35010.1,1.1814,1.1837,136.1,96.2,0.552
23.82,32147.0,35358.5,1.1925,1.2038,136.1,96.2,0.552
23.84,32288.1,35636.4,1.2014,1.2199,136.1,96.2,0.552
23.86,32431.1,35807.8,1.2105,1.2299,136.1,96.2,0.552
23.88,32429.2,35706.6,1.2104,1.224,136.1,96.2,0.552
23.9,32353.0,35504.4,1.2056,1.2123,136.1,96.2,0.552
23.92,32120.1,35305.7,1.1908,1.2008,136.1,96.2,0.552
23.94,32104.0,35235.1,1.1898,1.1967,136.1,96.2,0.552
23.96,32011.2,35207.9,1.1839,1.1951,136.1,96.2,0.552
23.98,31986.9,35036.4,1.1823,1.1852,136.1,96.2,0.552
24.0,31882.9,34968.1,1.1758,1.1812,136.1,96.2,0.552
24.02,32024.3,34945.6,1.1847,1.1799,136.1,96.2,0.552
24.04,31888.3,34789.0,1.1761,1.1708,136.1,96.2,0.552
24.06,31829.8,34734.9,1.1724,1.1677,136.1,96.2,0.552
24.08,31789.4,34644.8,1.1698,1.1625,136.1,96.2,0.552
24.1,31869.4,34609.6,1.1749,1.1604,136.1,96.2,0.552
24.12,31830.6,34564.4,1.1724,1.1578,136.1,96.2,0.552
24.14,31896.8,34521.4,1.1766,1.1553,136.1,96.2,0.552
24.16,31714.2,34580.2,1.1651,1.1587,136.1,96.2,0.552
24.18,31778.8,34504.3,1.1692,1.1543,136.1,96.2,0.552
24.2,31734.5,34488.3,1.1664,1.1534,136.1,96.2,0.552
24.22,31812.6,34597.6,1.1713,1.1598,136.1,96.2,0.552
24.24,31912.8,34908.7,1.1777,1.1778,136.1,96.2,0.552
24.26,32161.6,35260.8,1.1934,1.1982,136.1,96.2,0.552
24.28,32337.7,35536.0,1.2046,1.2141,136.1,96.2,0.552
24.3,32348.1,35667.8,1.2052,1.2218,136.1,96.2,0.552
24.32,32364.6,35662.8,1.2063,1.2215,136.1,96.2,0.552
24.34,32388.4,35555.7,1.2078,1.2153,136.1,96.2,0.552
24.36,32232.9,35442.9,1.1979,1.2087,136.1,96.2,0.552
24.38,32070.6,35280.4,1.1877,1.1993,136.1,96.2,0.552
24.4,32048.2,35208.2,1.1862,1.1951,136.1,96.2,0.552
24.42,32043.3,35073.6,1.1859,1.1873,136.1,96.2,0.552
24.44,32028.0,35055.5,1.185,1.1863,136.1,96.2,0.552
24.46,32052.3,35074.6,1.1865,1.1874,136.1,96.2,0.552
24.48,31951.2,34864.9,1.1801,1.1752,136.1,96.2,0.552
24.5,31877.9,34802.8,1.1754,1.1716,136.1,96.2,0.552
24.52,31796.4,34747.0,1.1703,1.1684,136.1,96.2,0.552
24.54,31816.2,34651.0,1.1715,1.1628,136.1,96.2,0.552
24.56,31794.9,34636.6,1.1702,1.162,136.1,96.2,0.552
24.58,31772.6,34673.9,1.1688,1.1642,136.1,96.2,0.552
24.6,31796.6,34452.4,1.1703,1.1513,136.1,96.2,0.552
24.62,31742.6,34486.9,1.1669,1.1533,136.1,96.2,0.552
24.64,31721.6,34471.4,1.1655,1.1524,136.1,96.2,0.552
24.66,31742.2,34594.8,1.1668,1.1596,136.1,96.2,0.552
24.68,31944.1,34912.5,1.1796,1.178,136.1,96.2,0.552
24.7,32167.4,35224.3,1.1938,1.1961,136.1,96.2,0.552
24.72,32222.4,35588.0,1.1973,1.2171,136.1,96.2,0.552
24.74,32405.1,35783.8,1.2089,1.2285,136.1,96.2,0.552
24.76,32392.5,35720.5,1.2081,1.2248,136.1,96.2,0.552
24.78,32382.1,35527.5,1.2074,1.2136,136.1,96.2,0.552
24.8,32143.1,35416.2,1.1923,1.2072,136.1,96.2,0.552
24.82,32147.1,35189.3,1.1925,1.194,136.1,96.2,0.552
24.84,32108.3,35082.8,1.19,1.1879,136.1,96.2,0.552
24.86,32027.3,35076.4,1.1849,1.1875,136.1,96.2,0.552
24.88,31990.6,35084.9,1.1826,1.188,136.1,96.2,0.552
24.9,31961.6,34938.9,1.1807,1.1795,136.1,96.2,0.552
24.92,31894.6,34867.5,1.1765,1.1754,136.1,96.2,0.552
24.94,31910.2,34724.4,1.1775,1.1671,136.1,96.2,0.552
24.96,31796.4,34678.8,1.1703,1.1645,136.1,96.2,0.552
24.98,31790.1,34701.4,1.1699,1.1658,136.1,96.2,0.552
25.0,31744.6,34716.9,1.167,1.1667,136.1,96.2,0.552
25.02,31803.6,34652.0,1.1707,1.1629,136.1,96.2,0.552
25.04,31790.5,34503.3,1.1699,1.1543,136.1,96.2,0.552
25.06,31799.6,34579.5,1.1705,1.1587,136.1,96.2,0.552
25.08,31730.9,34442.1,1.1661,1.1507,136.1,96.2,0.552
25.1,31824.6,34666.2,1.1721,1.1637,136.1,96.2,0.552
25.12,31903.5,34868.4,1.1771,1.1754,136.1,96.2,0.552
25.14,32153.9,35218.4,1.1929,1.1957,136.1,96.2,0.552
25.16,32255.6,35620.9,1.1994,1.2191,136.1,96.2,0.552
25.18,32380.9,35722.8,1.2073,1.225,136.1,96.2,0.552
25.2,32327.2,35699.4,1.2039,1.2236,136.1,96.2,0.552
25.22,32250.5,35640.3,1.1991,1.2202,136.1,96.2,0.552
25.24,32254.9,35422.5,1.1993,1.2076,136.1,96.2,0.552
25.26,32185.7,35253.4,1.195,1.1978,136.1,96.2,0.552
25.28,32118.1,35067.6,1.1907,1.187,136.1,96.2,0.552
25.3,32011.0,35059.2,1.1839,1.1865,136.1,96.2,0.552
25.32,31942.1,34993.4,1.1795,1.1827,136.1,96.2,0.552
25.34,32028.3,35052.3,1.185,1.1861,136.1,96.2,0.552
25.36,31891.4,34793.1,1.1763,1.1711,136.1,96.2,0.552
25.38,31856.5,34708.0,1.1741,1.1661,136.1,96.2,0.552
25.4,31868.7,34643.1,1.1749,1.1624,136.1,96.2,0.552
25.42,31838.2,34730.9,1.1729,1.1675,136.1,96.2,0.552
25.44,31822.9,34732.4,1.172,1.1676,136.1,96.2,0.552
25.46,31806.9,34607.9,1.1709,1.1603,136.1,96.2,0.552
25.48,31871.5,34499.4,1.175,1.1541,136.1,96.2,0.552
25.5,31750.0,34546.6,1.1673,1.1568,136.1,96.2,0.552
25.52,31788.0,34481.4,1.1697,1.153,136.1,96.2,0.552
25.54,31878.4,34601.2,1.1755,1.16,136.1,96.2,0.552
25.56,31926.0,34933.1,1.1785,1.1792,136.1,96.2,0.552
25.58,32162.7,35076.9,1.1935,1.1875,136.1,96.2,0.552
25.6,32269.6,35553.2,1.2003,1.2151,136.1,96.2,0.552
25.62,32369.4,35698.7,1.2066,1.2236,136.1,96.2,0.552
25.64,32294.4,35684.0,1.2018,1.2227,136.1,96.2,0.552
25.66,32323.4,35621.8,1.2037,1.2191,136.1,96.2,0.552
25.68,32254.7,35450.2,1.1993,1.2092,136.1,96.2,0.552
25.7,32155.3,35259.9,1.193,1.1981,136.1,96.2,0.552
25.72,32029.2,35100.3,1.185,1.1889,136.1,96.2,0.552
25.74,32065.1,35039.3,1.1873,1.1853,136.1,96.2,0.552
25.76,32063.9,34967.7,1.1872,1.1812,136.1,96.2,0.552
25.78,31888.3,35001.9,1.1761,1.1832,136.1,96.2,0.552
25.8,31889.3,34865.0,1.1762,1.1752,136.1,96.2,0.552
25.82,31868.7,34730.9,1.1749,1.1675,136.1,96.2,0.552
25.84,31865.2,34612.7,1.1746,1.1606,136.1,96.2,0.552
25.86,31857.3,34599.9,1.1741,1.1599,136.1,96.2,0.552
25.88,31782.2,34722.3,1.1694,1.167,136.1,96.2,0.552
25.9,31741.1,34612.0,1.1668,1.1606,136.1,96.2,0.552
25.92,31749.6,34498.8,1.1673,1.154,136.1,96.2,0.552
25.94,31732.0,34496.5,1.1662,1.1539,136.1,96.2,0.552
25.96,31781.8,34515.7,1.1693,1.155,136.1,96.2,0.552
25.98,31703.0,34619.7,1.1644,1.161,136.1,96.2,0.552
26.0,31947.2,34820.6,1.1798,1.1727,136.1,96.2,0.552
26.02,32167.4,35216.6,1.1938,1.1956,136.1,96.2,0.552
26.04,32236.0,35517.7,1.1981,1.2131,136.1,96.2,0.552
26.06,32421.3,35701.8,1.2099,1.2237,136.1,96.2,0.552
26.08,32345.9,35747.2,1.2051,1.2264,136.1,96.2,0.552
26.1,32298.4,35582.4,1.2021,1.2168,136.1,96.2,0.552
26.12,32228.3,35465.9,1.1977,1.2101,136.1,96.2,0.552
26.14,32217.7,35285.7,1.197,1.1996,136.1,96.2,0.552
26.16,32115.4,35131.6,1.1905,1.1907,136.1,96.2,0.552
26.18,31921.0,35011.9,1.1782,1.1838,136.1,96.2,0.552
26.2,32037.5,34982.5,1.1856,1.1821,136.1,96.2,0.552
26.22,32002.9,34991.2,1.1834,1.1826,136.1,96.2,0.552
26.24,31945.7,34887.1,1.1797,1.1765,136.1,96.2,0.552
26.26,31887.2,34761.7,1.176,1.1693,136.1,96.2,0.552
26.28,31831.0,34711.6,1.1725,1.1664,136.1,96.2,0.552
26.3,31800.0,34650.7,1.1705,1.1628,136.1,96.2,0.552
26.32,31905.0,34668.7,1.1772,1.1639,136.1,96.2,0.552
26.34,31793.9,34635.8,1.1701,1.162,136.1,96.2,0.552
26.36,31795.0,34549.5,1.1702,1.157,136.1,96.2,0.552
26.38,31675.9,34488.2,1.1626,1.1534,136.1,96.2,0.552
26.4,31753.1,34481.3,1.1675,1.153,136.1,96.2,0.552
26.42,31776.9,34554.1,1.169,1.1572,136.1,96.2,0.552
26.44,31920.3,34892.9,1.1781,1.1769,136.1,96.2,0.552
26.46,32063.5,35164.5,1.1872,1.1926,136.1,96.2,0.552
26.48,32257.9,35594.7,1.1995,1.2175,136.1,96.2,0.552
26.5,32393.8,35664.7,1.2081,1.2216,136.1,96.2,0.552
26.52,32316.1,35798.6,1.2032,1.2293,136.1,96.2,0.552
26.54,32361.3,35621.5,1.2061,1.2191,136.1,96.2,0.552
26.56,32290.4,35479.2,1.2016,1.2108,136.1,96.2,0.552
26.58,32122.1,35216.4,1.1909,1.1956,136.1,96.2,0.552
26.6,32082.2,35188.4,1.1884,1.194,136.1,96.2,0.552
26.62,31996.3,35125.9,1.1829,1.1904,136.1,96.2,0.552
26.64,32091.0,35023.6,1.1889,1.1844,136.1,96.2,0.552
26.66,31871.8,34949.7,1.1751,1.1802,136.1,96.2,0.552
26.68,32057.0,34841.0,1.1868,1.1739,136.1,96.2,0.552
26.7,31880.6,34810.7,1.1756,1.1721,136.1,96.2,0.552
26.72,31872.1,34656.9,1.1751,1.1632,136.1,96.2,0.552
26.74,31860.9,34663.2,1.1744,1.1636,136.1,96.2,0.552
26.76,31868.2,34649.7,1.1748,1.1628,136.1,96.2,0.552
26.78,31824.4,34627.4,1.1721,1.1615,136.1,96.2,0.552
26.8,31849.7,34571.7,1.1737,1.1582,136.1,96.2,0.552
26.82,31662.3,34509.6,1.1618,1.1547,136.1,96.2,0.552
26.84,31685.2,34520.7,1.1632,1.1553,136.1,96.2,0.552
26.86,31796.3,34539.6,1.1703,1.1564,136.1,96.2,0.552
26.88,31948.5,34801.9,1.1799,1.1716,136.1,96.2,0.552
26.9,32086.0,35160.9,1.1886,1.1924,136.1,96.2,0.552
26.92,32243.2,35511.4,1.1986,1.2127,136.1,96.2,0.552
26.94,32268.5,35780.3,1.2002,1.2283,136.1,96.2,0.552
26.96,32316.8,35771.0,1.2033,1.2277,136.1,96.2,0.552
26.98,32379.4,35644.9,1.2072,1.2204,136.1,96.2,0.552
27.0,32272.8,35477.3,1.2005,1.2107,136.1,96.2,0.552
27.02,32236.5,35388.9,1.1982,1.2056,136.1,96.2,0.552
27.04,32039.6,35137.5,1.1857,1.191,136.1,96.2,0.552
27.06,32065.7,35039.3,1.1873,1.1853,136.1,96.2,0.552
27.08,32039.8,35087.9,1.1857,1.1882,136.1,96.2,0.552
27.1,31912.6,35031.5,1.1776,1.1849,136.1,96.2,0.552
27.12,31960.6,34888.4,1.1807,1.1766,136.1,96.2,0.552
27.14,31871.7,34754.9,1.1751,1.1689,136.1,96.2,0.552
27.16,31885.1,34688.5,1.1759,1.165,136.1,96.2,0.552
27.18,31799.4,34632.6,1.1705,1.1618,136.1,96.2,0.552
27.2,31863.2,34677.3,1.1745,1.1644,136.1,96.2,0.552
27.22,31881.6,34580.8,1.1757,1.1588,136.1,96.2,0.552
27.24,31835.9,34479.3,1.1728,1.1529,136.1,96.2,0.552
27.26,31670.9,34486.1,1.1623,1.1533,136.1,96.2,0.552
27.28,31721.0,34410.4,1.1655,1.1489,136.1,96.2,0.552
27.3,31777.4,34641.6,1.1691,1.1623,136.1,96.2,0.552
27.32,31931.4,34819.8,1.1788,1.1726,136.1,96.2,0.552
27.34,32118.6,35141.1,1.1907,1.1912,136.1,96.2,0.552
27.36,32320.7,35540.4,1.2035,1.2144,136.1,96.2,0.552
27.38,32327.5,35726.7,1.2039,1.2252,136.1,96.2,0.552
27.4,32439.8,35785.4,1.2111,1.2286,136.1,96.2,0.552
27.42,32296.4,35701.9,1.202,1.2237,136.1,96.2,0.552
27.44,32265.0,35396.6,1.2,1.2061,136.1,96.2,0.552
27.46,32213.4,35291.1,1.1967,1.1999,136.1,96.2,0.552
27.48,32056.3,35191.4,1.1867,1.1942,136.1,96.2,0.552
27.5,31962.1,35172.2,1.1808,1.193,136.1,96.2,0.552
27.52,31978.8,34998.5,1.1818,1.183,136.1,96.2,0.552
27.54,31894.7,34943.4,1.1765,1.1798,136.1,96.2,0.552
27.56,31965.0,34933.1,1.181,1.1792,136.1,96.2,0.552
27.58,31877.7,34875.8,1.1754,1.1759,136.1,96.2,0.552
27.6,31818.3,34761.6,1.1717,1.1693,136.1,96.2,0.552
27.62,31922.1,34584.9,1.1782,1.159,136.1,96.2,0.552
27.64,31883.5,34632.2,1.1758,1.1618,136.1,96.2,0.552
27.66,31853.2,34625.4,1.1739,1.1614,136.1,96.2,0.552
27.68,31758.5,34634.5,1.1679,1.1619,136.1,96.2,0.552
27.7,31660.0,34459.9,1.1616,1.1518,136.1,96.2,0.552
27.72,31770.2,34453.3,1.1686,1.1514,136.1,96.2,0.552
27.74,31808.0,34532.8,1.171,1.156,136.1,96.2,0.552
27.76,31901.2,34788.1,1.1769,1.1708,136.1,96.2,0.552
27.78,32117.3,35093.2,1.1906,1.1885,136.1,96.2,0.552
27.8,32202.4,35398.6,1.196,1.2062,136.1,96.2,0.552
27.82,32285.2,35729.0,1.2013,1.2253,136.1,96.2,0.552
27.84,32384.4,35853.4,1.2075,1.2325,136.1,96.2,0.552
27.86,32322.4,35566.0,1.2036,1.2159,136.1,96.2,0.552
27.88,32230.9,35455.0,1.1978,1.2094,136.1,96.2,0.552
27.9,32209.8,35299.6,1.1965,1.2004,136.1,96.2,0.552
27.92,32151.8,35145.9,1.1928,1.1915,136.1,96.2,0.552
27.94,32127.9,35088.9,1.1913,1.1882,136.1,96.2,0.552
27.96,32080.6,35021.6,1.1883,1.1843,136.1,96.2,0.552
27.98,32003.7,34998.1,1.1834,1.183,136.1,96.2,0.552
28.0,32060.2,34920.9,1.187,1.1785,136.1,96.2,0.552
28.02,31803.7,34780.5,1.1707,1.1704,136.1,96.2,0.552
28.04,31857.8,34756.2,1.1742,1.1689,136.1,96.2,0.552
28.06,31716.0,34673.6,1.1652,1.1642,136.1,96.2,0.552
28.08,31728.9,34662.3,1.166,1.1635,136.1,96.2,0.552
28.1,31830.6,34597.9,1.1724,1.1598,136.1,96.2,0.552
28.12,31750.2,34558.7,1.1673,1.1575,136.1,96.2,0.552
28.14,31762.4,34534.5,1.1681,1.1561,136.1,96.2,0.552
28.16,31700.4,34470.6,1.1642,1.1524,136.1,96.2,0.552
28.18,31869.4,34495.9,1.1749,1.1539,136.1,96.2,0.552
28.2,31914.7,34788.7,1.1778,1.1708,136.1,96.2,0.552
28.22,32047.4,35141.7,1.1862,1.1913,136.1,96.2,0.552
28.24,32265.8,35547.4,1.2,1.2148,136.1,96.2,0.552
28.26,32454.9,35747.5,1.212,1.2264,136.1,96.2,0.552
28.28,32439.2,35802.0,1.211,1.2295,136.1,96.2,0.552
28.3,32294.9,35662.9,1.2019,1.2215,136.1,96.2,0.552
28.32,32260.9,35468.7,1.1997,1.2102,136.1,96.2,0.552
28.34,32053.4,35364.7,1.1866,1.2042,136.1,96.2,0.552
28.36,32032.6,35069.8,1.1852,1.1871,136.1,96.2,0.552
28.38,32089.0,35151.9,1.1888,1.1919,136.1,96.2,0.552
28.4,32063.8,35107.0,1.1872,1.1893,136.1,96.2,0.552
28.42,31941.7,34981.5,1.1795,1.182,136.1,96.2,0.552
28.44,31907.1,34924.6,1.1773,1.1787,136.1,96.2,0.552
28.46,31838.0,34801.3,1.1729,1.1716,136.1,96.2,0.552
28.48,31844.2,34744.5,1.1733,1.1683,136.1,96.2,0.552
28.5,31887.2,34631.7,1.176,1.1617,136.1,96.2,0.552
28.52,31851.8,34630.9,1.1738,1.1617,136.1,96.2,0.552
28.54,31853.0,34740.0,1.1739,1.168,136.1,96.2,0.552
28.56,31713.3,34581.5,1.165,1.1588,136.1,96.2,0.552
28.58,31851.1,34463.0,1.1737,1.152,136.1,96.2,0.552
28.6,31688.2,34438.3,1.1634,1.1505,136.1,96.2,0.552
28.62,31697.1,34564.8,1.164,1.1579,136.1,96.2,0.552
28.64,31938.3,34817.9,1.1793,1.1725,136.1,96.2,0.552
28.66,31997.9,35034.3,1.1831,1.1851,136.1,96.2,0.552
28.68,32194.9,35472.3,1.1955,1.2104,136.1,96.2,0.552
28.7,32347.5,35618.4,1.2052,1.2189,136.1,96.2,0.552
28.72,32278.0,35795.2,1.2008,1.2292,136.1,96.2,0.552
28.74,32282.9,35565.5,1.2011,1.2158,136.1,96.2,0.552
28.76,32206.5,35500.0,1.1963,1.212,136.1,96.2,0.552
28.78,32106.0,35246.1,1.1899,1.1973,136.1,96.2,0.552
28.8,32202.5,35139.7,1.196,1.1912,136.1,96.2,0.552
28.82,32035.1,35135.9,1.1854,1.1909,136.1,96.2,0.552
28.84,31995.7,35036.0,1.1829,1.1852,136.1,96.2,0.552
28.86,32021.3,35022.3,1.1845,1.1844,136.1,96.2,0.552
28.88,31921.0,34811.7,1.1782,1.1722,136.1,96.2,0.552
28.9,31922.9,34860.2,1.1783,1.175,136.1,96.2,0.552
28.92,31908.8,34687.0,1.1774,1.1649,136.1,96.2,0.552
28.94,31921.6,34673.2,1.1782,1.1641,136.1,96.2,0.552
28.96,31775.1,34724.5,1.1689,1.1671,136.1,96.2,0.552
28.98,31811.7,34676.3,1.1712,1.1643,136.1,96.2,0.552
29.0,31796.6,34565.8,1.1703,1.1579,136.1,96.2,0.552
29.02,31737.9,34489.8,1.1666,1.1535,136.1,96.2,0.552
29.04,31695.7,34421.3,1.1639,1.1495,136.1,96.2,0.552
29.06,31695.5,34599.9,1.1639,1.1599,136.1,96.2,0.552
29.08,31900.7,34920.0,1.1769,1.1784,136.1,96.2,0.552
29.1,32051.9,35039.2,1.1865,1.1853,136.1,96.2,0.552
29.12,32159.0,35581.6,1.1933,1.2168,136.1,96.2,0.552
29.14,32343.5,35688.3,1.205,1.223,136.1,96.2,0.552
29.16,32385.4,35669.8,1.2076,1.2219,136.1,96.2,0.552
29.18,32345.1,35713.3,1.2051,1.2244,136.1,96.2,0.552
29.2,32211.6,35552.0,1.1966,1.2151,136.1,96.2,0.552
29.22,32071.0,35296.4,1.1877,1.2002,136.1,96.2,0.552
29.24,32100.1,35261.0,1.1895,1.1982,136.1,96.2,0.552
29.26,32040.6,35146.3,1.1858,1.1916,136.1,96.2,0.552
29.28,31997.3,35111.7,1.183,1.1895,136.1,96.2,0.552
29.3,32011.0,34973.0,1.1839,1.1815,136.1,96.2,0.552
29.32,31962.1,34912.7,1.1808,1.178,136.1,96.2,0.552
29.34,31969.5,34744.7,1.1813,1.1683,136.1,96.2,0.552
29.36,31774.9,34735.8,1.1689,1.1678,136.1,96.2,0.552
29.38,31796.6,34591.4,1.1703,1.1594,136.1,96.2,0.552
29.4,31880.3,34658.1,1.1756,1.1633,136.1,96.2,0.552
29.42,31830.4,34708.5,1.1724,1.1662,136.1,96.2,0.552
29.44,31779.6,34577.8,1.1692,1.1586,136.1,96.2,0.552
29.46,31828.7,34470.4,1.1723,1.1524,136.1,96.2,0.552
29.48,31747.4,34504.3,1.1672,1.1543,136.1,96.2,0.552
29.5,31737.4,34558.3,1.1665,1.1575,136.1,96.2,0.552
29.52,31859.9,34702.6,1.1743,1.1658,136.1,96.2,0.552
29.54,32046.3,35050.7,1.1861,1.186,136.1,96.2,0.552
29.56,32246.1,35432.8,1.1988,1.2081,136.1,96.2,0.552
29.58,32296.9,35653.5,1.202,1.2209,136.1,96.2,0.552
29.6,32392.2,35815.4,1.208,1.2303,136.1,96.2,0.552
29.62,32386.3,35623.6,1.2077,1.2192,136.1,96.2,0.552
29.64,32347.7,35513.1,1.2052,1.2128,136.1,96.2,0.552
29.66,32147.4,35287.9,1.1925,1.1998,136.1,96.2,0.552
29.68,32018.0,35235.6,1.1843,1.1967,136.1,96.2,0.552
29.7,32103.1,35126.8,1.1897,1.1904,136.1,96.2,0.552
29.72,32031.7,35043.5,1.1852,1.1856,136.1,96.2,0.552
29.74,32045.2,35007.5,1.186,1.1835,136.1,96.2,0.552
29.76,31918.7,34748.5,1.178,1.1685,136.1,96.2,0.552
29.78,31925.6,34882.3,1.1785,1.1762,136.1,96.2,0.552
29.8,31876.7,34723.2,1.1754,1.167,136.1,96.2,0.552
29.82,31808.7,34685.2,1.1711,1.1648,136.1,96.2,0.552
29.84,31875.0,34603.3,1.1753,1.1601,136.1,96.2,0.552
29.86,31761.0,34662.3,1.168,1.1635,136.1,96.2,0.552
29.88,31731.8,34539.9,1.1662,1.1564,136.1,96.2,0.552
29.9,31814.1,34533.3,1.1714,1.156,136.1,96.2,0.552
29.92,31668.2,34399.1,1.1622,1.1483,136.1,96.2,0.552
29.94,31805.9,34579.3,1.1709,1.1587,136.1,96.2,0.552
29.96,31880.0,34796.4,1.1756,1.1713,136.1,96.2,0.552
29.98,32152.7,35056.5,1.1929,1.1863,136.1,96.2,0.552
30.0,32242.2,35473.7,1.1985,1.2105,136.1,96.2,0.552
30.02,32335.6,35654.3,1.2045,1.221,136.1,96.2,0.552
30.04,32520.1,35675.4,1.2161,1.2222,136.1,96.2,0.552
30.06,32355.0,35701.2,1.2057,1.2237,136.1,96.2,0.552
30.08,32227.7,35528.5,1.1976,1.2137,136.1,96.2,0.552
30.1,32110.2,35356.3,1.1902,1.2037,136.1,96.2,0.552
30.12,32062.2,35172.4,1.1871,1.1931,136.1,96.2,0.552
30.14,32044.6,35092.2,1.186,1.1884,136.1,96.2,0.552
30.16,32084.3,35137.1,1.1885,1.191,136.1,96.2,0.552
30.18,32073.0,34985.1,1.1878,1.1822,136.1,96.2,0.552
30.2,31964.5,34889.6,1.1809,1.1767,136.1,96.2,0.552
30.22,31905.2,34827.8,1.1772,1.1731,136.1,96.2,0.552
30.24,31880.4,34698.0,1.1756,1.1656,136.1,96.2,0.552
30.26,31796.2,34696.2,1.1703,1.1655,136.1,96.2,0.552
30.28,31992.3,34731.7,1.1827,1.1675,136.1,96.2,0.552
30.3,31745.8,34612.3,1.1671,1.1606,136.1,96.2,0.552
30.32,31871.8,34526.7,1.1751,1.1556,136.1,96.2,0.552
30.34,31737.1,34487.8,1.1665,1.1534,136.1,96.2,0.552
30.36,31711.0,34370.8,1.1649,1.1466,136.1,96.2,0.552
30.38,31806.6,34581.9,1.1709,1.1588,136.1,96.2,0.552
30.4,31898.9,34768.8,1.1768,1.1697,136.1,96.2,0.552
30.42,32013.6,35078.4,1.184,1.1876,136.1,96.2,0.552
30.44,32243.7,35442.1,1.1986,1.2087,136.1,96.2,0.552
30.46,32303.6,35696.6,1.2024,1.2234,136.1,96.2,0.552
30.48,32357.2,35688.3,1.2058,1.223,136.1,96.2,0.552
30.5,32319.6,35697.5,1.2034,1.2235,136.1,96.2,0.552
30.52,32204.0,35429.0,1.1961,1.2079,136.1,96.2,0.552
30.54,32204.8,35339.7,1.1962,1.2028,136.1,96.2,0.552
30.56,32027.9,35202.9,1.1849,1.1948,136.1,96.2,0.552
30.58,32069.0,35086.1,1.1876,1.1881,136.1,96.2,0.552
30.6,32080.6,35073.4,1.1883,1.1873,136.1,96.2,0.552
30.62,32060.8,34916.1,1.187,1.1782,136.1,96.2,0.552
30.64,32001.2,34869.1,1.1833,1.1755,136.1,96.2,0.552
30.66,31876.8,34919.1,1.1754,1.1784,136.1,96.2,0.552
30.68,31928.7,34769.6,1.1787,1.1697,136.1,96.2,0.552
30.7,31851.2,34646.7,1.1738,1.1626,136.1,96.2,0.552
30.72,31817.0,34667.9,1.1716,1.1638,136.1,96.2,0.552
30.74,31877.8,34671.0,1.1754,1.164,136.1,96.2,0.552
30.76,31815.6,34533.4,1.1715,1.156,136.1,96.2,0.552
30.78,31741.9,34542.1,1.1668,1.1565,136.1,96.2,0.552
30.8,31673.6,34433.7,1.1625,1.1503,136.1,96.2,0.552
30.82,31804.4,34555.4,1.1708,1.1573,136.1,96.2,0.552
30.84,31903.2,34668.4,1.177,1.1639,136.1,96.2,0.552
30.86,32109.1,35056.0,1.1901,1.1863,136.1,96.2,0.552
30.88,32232.0,35387.3,1.1979,1.2055,136.1,96.2,0.552
30.9,32356.9,35580.3,1.2058,1.2167,136.1,96.2,0.552
30.92,32396.2,35824.9,1.2083,1.2309,136.1,96.2,0.552
30.94,32280.8,35633.2,1.201,1.2198,136.1,96.2,0.552
30.96,32267.0,35493.4,1.2001,1.2117,136.1,96.2,0.552
30.98,32132.0,35346.6,1.1915,1.2032,136.1,96.2,0.552
31.0,32107.3,35139.7,1.19,1.1912,136.1,96.2,0.552
31.02,31965.2,35112.3,1.181,1.1896,136.1,96.2,0.552
31.04,32068.0,35083.0,1.1875,1.1879,136.1,96.2,0.552
31.06,32007.4,35024.0,1.1836,1.1845,136.1,96.2,0.552
31.08,31940.2,34995.8,1.1794,1.1828,136.1,96.2,0.552
31.1,31941.7,34731.6,1.1795,1.1675,136.1,96.2,0.552
31.12,31803.8,34667.2,1.1707,1.1638,136.1,96.2,0.552
31.14,31865.7,34709.5,1.1747,1.1662,136.1,96.2,0.552
31.16,31804.3,34713.9,1.1708,1.1665,136.1,96.2,0.552
31.18,31846.9,34536.5,1.1735,1.1562,136.1,96.2,0.552
31.2,31883.1,34673.0,1.1758,1.1641,136.1,96.2,0.552
31.22,31824.1,34635.3,1.172,1.1619,136.1,96.2,0.552
31.24,31709.3,34547.1,1.1648,1.1568,136.1,96.2,0.552
31.26,31761.8,34406.5,1.1681,1.1487,136.1,96.2,0.552
31.28,31883.9,34718.5,1.1758,1.1668,136.1,96.2,0.552
31.3,32122.3,35047.3,1.1909,1.1858,136.1,96.2,0.552
31.32,32139.5,35363.5,1.192,1.2041,136.1,96.2,0.552
31.34,32274.0,35729.3,1.2005,1.2253,136.1,96.2,0.552
31.36,32474.8,35867.3,1.2133,1.2333,136.1,96.2,0.552
31.38,32292.7,35741.8,1.2017,1.2261,136.1,96.2,0.552
31.4,32301.2,35605.9,1.2023,1.2182,136.1,96.2,0.552
31.42,32205.9,35389.4,1.1962,1.2056,136.1,96.2,0.552
31.44,32149.8,35131.3,1.1927,1.1907,136.1,96.2,0.552
31.46,32056.3,35165.7,1.1868,1.1927,136.1,96.2,0.552
31.48,32015.3,35100.3,1.1841,1.1889,136.1,96.2,0.552
31.5,32053.8,35100.1,1.1866,1.1889,136.1,96.2,0.552
31.52,31943.7,34960.4,1.1796,1.1808,136.1,96.2,0.552
31.54,31932.5,34792.4,1.1789,1.171,136.1,96.2,0.552
31.56,31885.3,34816.8,1.1759,1.1725,136.1,96.2,0.552
31.58,31854.4,34617.7,1.174,1.1609,136.1,96.2,0.552
31.6,31849.5,34582.3,1.1736,1.1589,136.1,96.2,0.552
31.62,31791.4,34604.6,1.17,1.1602,136.1,96.2,0.552
31.64,31804.4,34514.1,1.1708,1.1549,136.1,96.2,0.552
31.66,31778.6,34504.6,1.1692,1.1544,136.1,96.2,0.552
31.68,31717.2,34473.8,1.1653,1.1526,136.1,96.2,0.552
31.7,31775.7,34462.3,1.169,1.1519,136.1,96.2,0.552
31.72,31870.9,34760.7,1.175,1.1692,136.1,96.2,0.552
31.74,31896.4,34996.0,1.1766,1.1828,136.1,96.2,0.552
31.76,32176.8,35370.7,1.1944,1.2046,136.1,96.2,0.552
31.78,32408.0,35680.0,1.209,1.2225,136.1,96.2,0.552
31.8,32328.2,35754.7,1.204,1.2268,136.1,96.2,0.552
31.82,32281.1,35770.5,1.201,1.2277,136.1,96.2,0.552
31.84,32219.7,35551.6,1.1971,1.215,136.1,96.2,0.552
31.86,32105.1,35327.5,1.1898,1.202,136.1,96.2,0.552
31.88,32134.8,35158.0,1.1917,1.1922,136.1,96.2,0.552
31.9,32062.2,35101.0,1.1871,1.1889,136.1,96.2,0.552
31.92,32028.3,35177.6,1.185,1.1934,136.1,96.2,0.552
31.94,32027.3,35015.1,1.1849,1.1839,136.1,96.2,0.552
31.96,31958.0,34984.6,1.1805,1.1822,136.1,96.2,0.552
31.98,31832.7,34869.9,1.1726,1.1755,136.1,96.2,0.552
32.0,31921.8,34707.3,1.1782,1.1661,136.1,96.2,0.552
32.02,31780.1,34707.9,1.1692,1.1661,136.1,96.2,0.552
32.04,31842.0,34683.9,1.1732,1.1648,136.1,96.2,0.552
32.06,31795.8,34673.9,1.1702,1.1642,136.1,96.2,0.552
32.08,31900.6,34614.7,1.1769,1.1607,136.1,96.2,0.552
32.1,31724.9,34530.6,1.1657,1.1559,136.1,96.2,0.552
32.12,31740.4,34388.7,1.1667,1.1476,136.1,96.2,0.552
32.14,31650.2,34484.2,1.161,1.1532,136.1,96.2,0.552
32.16,31761.1,34524.9,1.168,1.1555,136.1,96.2,0.552
32.18,32095.5,34958.4,1.1892,1.1807,136.1,96.2,0.552
32.2,32148.5,35402.8,1.1926,1.2064,136.1,96.2,0.552
32.22,32351.8,35594.4,1.2055,1.2175,136.1,96.2,0.552
32.24,32395.6,35808.5,1.2083,1.2299,136.1,96.2,0.552
32.26,32300.4,35723.3,1.2022,1.225,136.1,96.2,0.552
32.28,32374.7,35606.8,1.2069,1.2182,136.1,96.2,0.552
32.3,32134.5,35385.6,1.1917,1.2054,136.1,96.2,0.552
32.32,32074.8,35168.4,1.1879,1.1928,136.1,96.2,0.552
32.34,32048.0,35118.7,1.1862,1.1899,136.1,96.2,0.552
32.36,32097.2,35105.0,1.1893,1.1892,136.1,96.2,0.552
32.38,32086.2,34967.3,1.1886,1.1812,136.1,96.2,0.552
32.4,32091.0,34879.0,1.1889,1.1761,136.1,96.2,0.552
32.42,31843.5,34911.9,1.1733,1.178,136.1,96.2,0.552
32.44,31910.8,34808.2,1.1775,1.172,136.1,96.2,0.552
32.46,31853.8,34751.5,1.1739,1.1687,136.1,96.2,0.552
32.48,31983.1,34667.5,1.1821,1.1638,136.1,96.2,0.552
32.5,31861.3,34616.9,1.1744,1.1609,136.1,96.2,0.552
32.52,31819.0,34668.5,1.1717,1.1639,136.1,96.2,0.552
32.54,31767.3,34497.1,1.1684,1.1539,136.1,96.2,0.552
32.56,31756.0,34511.3,1.1677,1.1548,136.1,96.2,0.552
32.58,31725.8,34396.3,1.1658,1.1481,136.1,96.2,0.552
32.6,31912.2,34604.7,1.1776,1.1602,136.1,96.2,0.552
32.62,32061.1,34930.7,1.1871,1.1791,136.1,96.2,0.552
32.64,32154.1,35224.6,1.1929,1.1961,136.1,96.2,0.552
32.66,32303.0,35683.6,1.2024,1.2227,136.1,96.2,0.552
32.68,32357.5,35778.6,1.2058,1.2282,136.1,96.2,0.552
32.7,32397.6,35679.8,1.2084,1.2225,136.1,96.2,0.552
32.72,32269.7,35536.9,1.2003,1.2142,136.1,96.2,0.552
32.74,32184.9,35377.9,1.1949,1.205,136.1,96.2,0.552
32.76,32098.8,35132.9,1.1894,1.1908,136.1,96.2,0.552
32.78,32112.3,35110.9,1.1903,1.1895,136.1,96.2,0.552
32.8,31982.2,35018.4,1.1821,1.1841,136.1,96.2,0.552
32.82,32097.8,34992.6,1.1894,1.1826,136.1,96.2,0.552
32.84,31999.9,34852.8,1.1832,1.1745,136.1,96.2,0.552
32.86,31903.3,34725.0,1.1771,1.1671,136.1,96.2,0.552
32.88,31885.9,34760.6,1.176,1.1692,136.1,96.2,0.552
32.9,31882.4,34663.3,1.1757,1.1636,136.1,96.2,0.552
32.92,31845.3,34702.7,1.1734,1.1658,136.1,96.2,0.552
32.94,31830.4,34663.4,1.1724,1.1636,136.1,96.2,0.552
32.96,31809.0,34575.1,1.1711,1.1584,136.1,96.2,0.552
32.98,31814.5,34518.3,1.1714,1.1552,136.1,96.2,0.552
33.0,31664.3,34446.1,1.1619,1.151,136.1,96.2,0.552
33.02,31698.5,34461.5,1.1641,1.1519,136.1,96.2,0.552
33.04,31766.3,34606.1,1.1684,1.1602,136.1,96.2,0.552
33.06,31970.4,34954.2,1.1813,1.1804,136.1,96.2,0.552
33.08,32164.8,35221.0,1.1936,1.1959,136.1,96.2,0.552
33.1,32309.7,35705.0,1.2028,1.2239,136.1,96.2,0.552
33.12,32339.0,35695.8,1.2047,1.2234,136.1,96.2,0.552
33.14,32427.0,35703.4,1.2102,1.2238,136.1,96.2,0.552
33.16,32227.6,35572.3,1.1976,1.2162,136.1,96.2,0.552
33.18,32306.8,35458.7,1.2026,1.2096,136.1,96.2,0.552
33.2,32153.0,35280.0,1.1929,1.1993,136.1,96.2,0.552
33.22,32051.9,35173.1,1.1865,1.1931,136.1,96.2,0.552
33.24,31967.1,35065.9,1.1811,1.1869,136.1,96.2,0.552
33.26,31986.1,34991.8,1.1823,1.1826,136.1,96.2,0.552
33.28,31962.3,34899.2,1.1808,1.1772,136.1,96.2,0.552
33.3,31881.0,34996.1,1.1756,1.1828,136.1,96.2,0.552
33.32,31999.4,34726.7,1.1831,1.1672,136.1,96.2,0.552
33.34,31789.8,34742.5,1.1699,1.1682,136.1,96.2,0.552
33.36,31883.1,34691.8,1.1758,1.1652,136.1,96.2,0.552
33.38,31692.0,34672.3,1.1637,1.1641,136.1,96.2,0.552
33.4,31773.5,34580.6,1.1688,1.1588,136.1,96.2,0.552
33.42,31798.7,34578.5,1.1704,1.1586,136.1,96.2,0.552
33.44,31807.5,34459.1,1.171,1.1517,136.1,96.2,0.552
33.46,31759.5,34434.2,1.1679,1.1503,136.1,96.2,0.552
33.48,31804.5,34688.7,1.1708,1.165,136.1,96.2,0.552
33.5,32047.0,34890.9,1.1862,1.1767,136.1,96.2,0.552
33.52,32191.8,35247.7,1.1953,1.1974,136.1,96.2,0.552
33.54,32313.8,35570.8,1.2031,1.2161,136.1,96.2,0.552
33.56,32430.6,35748.7,1.2105,1.2265,136.1,96.2,0.552
33.58,32448.6,35691.1,1.2116,1.2231,136.1,96.2,0.552
33.6,32246.5,35551.0,1.1988,1.215,136.1,96.2,0.552
33.62,32194.2,35431.1,1.1955,1.208,136.1,96.2,0.552
33.64,32143.7,35306.1,1.1923,1.2008,136.1,96.2,0.552
33.66,32087.2,35141.8,1.1887,1.1913,136.1,96.2,0.552
33.68,32034.5,35122.9,1.1854,1.1902,136.1,96.2,0.552
33.7,32088.3,35056.4,1.1888,1.1863,136.1,96.2,0.552
33.72,31905.5,34990.2,1.1772,1.1825,136.1,96.2,0.552
33.74,31947.8,34950.6,1.1799,1.1802,136.1,96.2,0.552
33.76,31844.4,34794.1,1.1733,1.1711,136.1,96.2,0.552
33.78,31918.8,34673.6,1.178,1.1642,136.1,96.2,0.552
33.8,31886.9,34639.8,1.176,1.1622,136.1,96.2,0.552
33.82,31836.4,34712.6,1.1728,1.1664,136.1,96.2,0.552
33.84,31899.2,34621.9,1.1768,1.1612,136.1,96.2,0.552
33.86,31742.5,34567.8,1.1669,1.158,136.1,96.2,0.552
33.88,31679.5,34498.0,1.1629,1.154,136.1,96.2,0.552
33.9,31713.5,34476.5,1.165,1.1527,136.1,96.2,0.552
33.92,31793.7,34634.4,1.1701,1.1619,136.1,96.2,0.552
33.94,31927.0,34927.2,1.1786,1.1789,136.1,96.2,0.552
33.96,32131.3,35270.5,1.1915,1.1987,136.1,96.2,0.552
33.98,32268.3,35588.8,1.2002,1.2172,136.1,96.2,0.552
34.0,32459.2,35718.1,1.2123,1.2247,136.1,96.2,0.552
34.02,32418.9,35766.9,1.2097,1.2275,136.1,96.2,0.552
34.04,32246.0,35568.5,1.1988,1.216,136.1,96.2,0.552
34.06,32303.2,35433.4,1.2024,1.2082,136.1,96.2,0.552
34.08,32187.2,35130.2,1.195,1.1906,136.1,96.2,0.552
34.1,32085.2,35053.4,1.1886,1.1862,136.1,96.2,0.552
34.12,32034.4,35074.6,1.1854,1.1874,136.1,96.2,0.552
34.14,32082.1,35059.9,1.1884,1.1865,136.1,96.2,0.552
34.16,31978.0,34988.9,1.1818,1.1824,136.1,96.2,0.552
34.18,31868.3,34819.9,1.1748,1.1726,136.1,96.2,0.552
34.2,31850.4,34790.4,1.1737,1.1709,136.1,96.2,0.552
34.22,31851.7,34752.6,1.1738,1.1687,136.1,96.2,0.552
34.24,31899.9,34638.4,1.1768,1.1621,136.1,96.2,0.552
34.26,31771.7,34613.4,1.1687,1.1607,136.1,96.2,0.552
34.28,31811.6,34558.8,1.1712,1.1575,136.1,96.2,0.552
34.3,31707.1,34509.7,1.1646,1.1547,136.1,96.2,0.552
34.32,31801.0,34485.4,1.1706,1.1533,136.1,96.2,0.552
34.34,31649.8,34480.0,1.161,1.1529,136.1,96.2,0.552
34.36,31710.8,34624.6,1.1649,1.1613,136.1,96.2,0.552
34.38,31875.9,34940.4,1.1753,1.1796,136.1,96.2,0.552
34.4,32060.9,35256.0,1.187,1.1979,136.1,96.2,0.552
34.42,32315.9,35556.7,1.2032,1.2153,136.1,96.2,0.552
34.44,32240.7,35647.7,1.1984,1.2206,136.1,96.2,0.552
34.46,32466.4,35802.0,1.2127,1.2295,136.1,96.2,0.552
34.48,32255.5,35548.9,1.1994,1.2149,136.1,96.2,0.552
34.5,32187.8,35366.2,1.1951,1.2043,136.1,96.2,0.552
34.52,32087.7,35267.6,1.1887,1.1986,136.1,96.2,0.552
34.54,32061.6,35155.7,1.1871,1.1921,136.1,96.2,0.552
34.56,32120.5,35128.9,1.1908,1.1905,136.1,96.2,0.552
34.58,32050.3,35039.4,1.1864,1.1854,136.1,96.2,0.552
34.6,31959.7,34977.3,1.1806,1.1818,136.1,96.2,0.552
34.62,31941.5,34901.3,1.1795,1.1773,136.1,96.2,0.552
34.64,31849.5,34755.8,1.1736,1.1689,136.1,96.2,0.552
34.66,31906.2,34692.0,1.1772,1.1652,136.1,96.2,0.552
34.68,31823.2,34726.9,1.172,1.1672,136.1,96.2,0.552
34.7,31751.4,34655.3,1.1674,1.1631,136.1,96.2,0.552
34.72,31765.1,34641.9,1.1683,1.1623,136.1,96.2,0.552
34.74,31795.5,34549.7,1.1702,1.157,136.1,96.2,0.552
34.76,31777.9,34451.7,1.1691,1.1513,136.1,96.2,0.552
34.78,31784.8,34419.4,1.1695,1.1494,136.1,96.2,0.552
34.8,31759.2,34605.1,1.1679,1.1602,136.1,96.2,0.552
34.82,31852.7,34919.3,1.1738,1.1784,136.1,96.2,0.552
34.84,32120.0,35266.4,1.1908,1.1985,136.1,96.2,0.552
34.86,32203.7,35486.6,1.1961,1.2113,136.1,96.2,0.552
34.88,32346.0,35870.7,1.2051,1.2335,136.1,96.2,0.552
34.9,32411.9,35794.5,1.2093,1.2291,136.1,96.2,0.552
34.92,32308.9,35593.9,1.2028,1.2175,136.1,96.2,0.552
34.94,32186.0,35412.8,1.195,1.207,136.1,96.2,0.552
34.96,32164.3,35240.0,1.1936,1.197,136.1,96.2,0.552
34.98,32168.0,35136.1,1.1938,1.191,136.1,96.2,0.552
35.0,32044.7,35106.7,1.186,1.1893,136.1,96.2,0.552
35.02,31959.1,35007.7,1.1806,1.1835,136.1,96.2,0.552
35.04,32035.6,34956.4,1.1854,1.1805,136.1,96.2,0.552
35.06,31924.7,34856.9,1.1784,1.1748,136.1,96.2,0.552
35.08,31848.6,34744.8,1.1736,1.1683,136.1,96.2,0.552
35.1,31860.0,34698.0,1.1743,1.1656,136.1,96.2,0.552
35.12,31886.2,34621.3,1.176,1.1611,136.1,96.2,0.552
35.14,31820.1,34591.9,1.1718,1.1594,136.1,96.2,0.552
35.16,31744.0,34531.7,1.167,1.1559,136.1,96.2,0.552
35.18,31754.6,34574.9,1.1676,1.1584,136.1,96.2,0.552
35.2,31664.8,34515.4,1.1619,1.155,136.1,96.2,0.552
35.22,31808.5,34407.1,1.171,1.1487,136.1,96.2,0.552
35.24,31881.1,34586.7,1.1756,1.1591,136.1,96.2,0.552
35.26,31903.3,34902.4,1.1771,1.1774,136.1,96.2,0.552
35.28,32062.6,35318.8,1.1871,1.2015,136.1,96.2,0.552
35.3,32281.1,35570.3,1.201,1.2161,136.1,96.2,0.552
35.32,32349.1,35686.9,1.2053,1.2229,136.1,96.2,0.552
35.34,32388.0,35715.1,1.2078,1.2245,136.1,96.2,0.552
35.36,32273.1,35599.3,1.2005,1.2178,136.1,96.2,0.552
35.38,32186.5,35402.2,1.195,1.2064,136.1,96.2,0.552
35.4,32220.5,35262.5,1.1972,1.1983,136.1,96.2,0.552
35.42,32091.5,35133.3,1.189,1.1908,136.1,96.2,0.552
35.44,31997.1,35175.3,1.183,1.1932,136.1,96.2,0.552
35.46,31987.6,35069.3,1.1824,1.1871,136.1,96.2,0.552
35.48,31967.0,34988.0,1.1811,1.1824,136.1,96.2,0.552
35.5,31935.7,34819.8,1.1791,1.1726,136.1,96.2,0.552
35.52,31834.8,34682.2,1.1727,1.1647,136.1,96.2,0.552
35.54,31787.1,34695.0,1.1697,1.1654,136.1,96.2,0.552
35.56,31727.8,34672.5,1.1659,1.1641,136.1,96.2,0.552
35.58,31883.0,34615.4,1.1758,1.1608,136.1,96.2,0.552
35.6,31823.0,34620.0,1.172,1.161,136.1,96.2,0.552
35.62,31699.6,34558.0,1.1641,1.1575,136.1,96.2,0.552
35.64,31728.5,34528.0,1.166,1.1557,136.1,96.2,0.552
35.66,31788.3,34521.7,1.1698,1.1554,136.1,96.2,0.552
35.68,31804.5,34565.7,1.1708,1.1579,136.1,96.2,0.552
35.7,31961.3,34868.7,1.1807,1.1755,136.1,96.2,0.552
35.72,32189.9,35221.3,1.1952,1.1959,136.1,96.2,0.552
35.74,32216.6,35538.4,1.1969,1.2143,136.1,96.2,0.552
35.76,32328.3,35688.3,1.204,1.223,136.1,96.2,0.552
35.78,32378.3,35764.3,1.2072,1.2274,136.1,96.2,0.552
35.8,32304.3,35560.5,1.2025,1.2156,136.1,96.2,0.552
35.82,32258.9,35485.0,1.1996,1.2112,136.1,96.2,0.552
35.84,32028.7,35231.7,1.185,1.1965,136.1,96.2,0.552
35.86,32105.9,35274.4,1.1899,1.199,136.1,96.2,0.552
35.88,32000.9,35112.1,1.1832,1.1896,136.1,96.2,0.552
35.9,32041.2,35063.3,1.1858,1.1867,136.1,96.2,0.552
35.92,32033.6,34975.7,1.1853,1.1817,136.1,96.2,0.552
35.94,31926.8,34859.8,1.1785,1.1749,136.1,96.2,0.552
35.96,31841.2,34774.4,1.1731,1.17,136.1,96.2,0.552
35.98,31853.2,34662.5,1.1739,1.1635,136.1,96.2,0.552
36.0,31909.3,34662.4,1.1774,1.1635,136.1,96.2,0.552
36.02,31759.6,34580.7,1.1679,1.1588,136.1,96.2,0.552
36.04,31776.1,34610.7,1.169,1.1605,136.1,96.2,0.552
36.06,31698.6,34492.7,1.1641,1.1537,136.1,96.2,0.552
36.08,31731.8,34510.1,1.1662,1.1547,136.1,96.2,0.552
36.1,31646.5,34457.2,1.1608,1.1516,136.1,96.2,0.552
36.12,31779.2,34468.0,1.1692,1.1522,136.1,96.2,0.552
36.14,31897.3,34827.1,1.1767,1.173,136.1,96.2,0.552
36.16,32109.3,35207.9,1.1901,1.1951,136.1,96.2,0.552
36.18,32347.5,35502.8,1.2052,1.2122,136.1,96.2,0.552
36.2,32372.5,35767.1,1.2068,1.2275,136.1,96.2,0.552
36.22,32375.4,35813.8,1.207,1.2302,136.1,96.2,0.552
36.24,32368.9,35609.7,1.2066,1.2184,136.1,96.2,0.552
36.26,32219.5,35513.7,1.1971,1.2128,136.1,96.2,0.552
36.28,32225.6,35325.3,1.1975,1.2019,136.1,96.2,0.552
36.3,32092.4,35210.1,1.189,1.1952,136.1,96.2,0.552
36.32,32048.0,34995.5,1.1862,1.1828,136.1,96.2,0.552
36.34,31950.5,35012.0,1.18,1.1838,136.1,96.2,0.552
36.36,31926.9,35012.9,1.1785,1.1838,136.1,96.2,0.552
36.38,31799.8,34818.5,1.1705,1.1726,136.1,96.2,0.552
36.4,31830.3,34706.6,1.1724,1.1661,136.1,96.2,0.552
36.42,31867.5,34647.3,1.1748,1.1626,136.1,96.2,0.552
36.44,31892.0,34711.8,1.1763,1.1664,136.1,96.2,0.552
36.46,31809.9,34686.3,1.1711,1.1649,136.1,96.2,0.552
36.48,31754.2,34586.2,1.1676,1.1591,136.1,96.2,0.552
36.5,31774.7,34600.8,1.1689,1.1599,136.1,96.2,0.552
36.52,31757.5,34447.2,1.1678,1.151,136.1,96.2,0.552
36.54,31764.5,34429.2,1.1683,1.15,136.1,96.2,0.552
36.56,31761.2,34608.0,1.168,1.1604,136.1,96.2,0.552
36.58,31934.4,34731.6,1.179,1.1675,136.1,96.2,0.552
36.6,32019.1,35257.4,1.1844,1.198,136.1,96.2,0.552
36.62,32278.9,35526.6,1.2009,1.2136,136.1,96.2,0.552
36.64,32374.9,35739.9,1.2069,1.2259,136.1,96.2,0.552
36.66,32410.6,35778.1,1.2092,1.2282,136.1,96.2,0.552
36.68,32330.1,35647.7,1.2041,1.2206,136.1,96.2,0.552
36.7,32224.5,35409.3,1.1974,1.2068,136.1,96.2,0.552
36.72,32088.4,35240.5,1.1888,1.197,136.1,96.2,0.552
36.74,32021.1,35115.7,1.1845,1.1898,136.1,96.2,0.552
36.76,32034.3,35210.8,1.1854,1.1953,136.1,96.2,0.552
36.78,31955.5,35080.5,1.1804,1.1877,136.1,96.2,0.552
36.8,31828.5,34990.7,1.1723,1.1825,136.1,96.2,0.552
36.82,31950.4,35001.7,1.18,1.1832,136.1,96.2,0.552
36.84,31870.4,34733.1,1.175,1.1676,136.1,96.2,0.552
36.86,31770.4,34717.5,1.1686,1.1667,136.1,96.2,0.552
36.88,31768.9,34731.3,1.1685,1.1675,136.1,96.2,0.552
36.9,31738.5,34646.9,1.1666,1.1626,136.1,96.2,0.552
36.92,31739.9,34639.0,1.1667,1.1622,136.1,96.2,0.552
36.94,31692.9,34581.9,1.1637,1.1588,136.1,96.2,0.552
36.96,31777.0,34514.7,1.169,1.155,136.1,96.2,0.552
36.98,31590.2,34408.7,1.1572,1.1488,136.1,96.2,0.552
37.0,31721.8,34578.4,1.1655,1.1586,136.1,96.2,0.552
37.02,31972.2,34971.4,1.1814,1.1814,136.1,96.2,0.552
37.04,32051.6,35101.5,1.1865,1.189,136.1,96.2,0.552
37.06,32195.5,35482.2,1.1956,1.211,136.1,96.2,0.552
37.08,32340.1,35655.6,1.2047,1.2211,136.1,96.2,0.552
37.1,32406.8,35756.0,1.209,1.2269,136.1,96.2,0.552
37.12,32339.4,35632.8,1.2047,1.2197,136.1,96.2,0.552
37.14,32175.5,35443.7,1.1943,1.2088,136.1,96.2,0.552
37.16,32185.1,35252.2,1.1949,1.1977,136.1,96.2,0.552
37.18,32119.1,35214.7,1.1907,1.1955,136.1,96.2,0.552
37.2,32048.4,35080.3,1.1862,1.1877,136.1,96.2,0.552
37.22,31974.2,35082.9,1.1815,1.1879,136.1,96.2,0.552
37.24,32001.1,34965.9,1.1833,1.1811,136.1,96.2,0.552
37.26,31917.8,34852.4,1.178,1.1745,136.1,96.2,0.552
37.28,31867.8,34779.2,1.1748,1.1703,136.1,96.2,0.552
37.3,31912.1,34758.2,1.1776,1.1691,136.1,96.2,0.552
37.32,31806.7,34675.5,1.1709,1.1643,136.1,96.2,0.552
37.34,31873.8,34648.6,1.1752,1.1627,136.1,96.2,0.552
37.36,31827.9,34544.9,1.1723,1.1567,136.1,96.2,0.552
37.38,31749.4,34649.8,1.1673,1.1628,136.1,96.2,0.552
37.4,31766.8,34420.7,1.1684,1.1495,136.1,96.2,0.552
37.42,31747.6,34519.3,1.1672,1.1552,136.1,96.2,0.552
37.44,31717.6,34567.0,1.1653,1.158,136.1,96.2,0.552
37.46,31787.3,34814.8,1.1697,1.1723,136.1,96.2,0.552
37.48,32122.7,35154.4,1.191,1.192,136.1,96.2,0.552
37.5,32271.1,35389.0,1.2004,1.2056,136.1,96.2,0.552
37.52,32330.6,35672.0,1.2041,1.222,136.1,96.2,0.552
37.54,32312.1,35753.6,1.203,1.2267,136.1,96.2,0.552
37.56,32306.3,35721.8,1.2026,1.2249,136.1,96.2,0.552
37.58,32331.4,35534.0,1.2042,1.214,136.1,96.2,0.552
37.6,32162.5,35276.8,1.1935,1.1991,136.1,96.2,0.552
37.62,32075.2,35112.8,1.188,1.1896,136.1,96.2,0.552
37.64,32108.1,35110.1,1.19,1.1894,136.1,96.2,0.552
37.66,32044.0,35052.2,1.186,1.1861,136.1,96.2,0.552
37.68,32002.3,34988.2,1.1833,1.1824,136.1,96.2,0.552
37.7,32011.2,34871.3,1.1839,1.1756,136.1,96.2,0.552
37.72,31841.3,34782.6,1.1731,1.1705,136.1,96.2,0.552
37.74,31809.2,34646.6,1.1711,1.1626,136.1,96.2,0.552
37.76,31896.8,34640.8,1.1766,1.1623,136.1,96.2,0.552
37.78,31839.9,34673.4,1.173,1.1641,136.1,96.2,0.552
37.8,31806.8,34659.7,1.1709,1.1634,136.1,96.2,0.552
37.82,31703.7,34482.9,1.1644,1.1531,136.1,96.2,0.552
37.84,31734.5,34521.6,1.1664,1.1554,136.1,96.2,0.552
37.86,31714.9,34480.8,1.1651,1.153,136.1,96.2,0.552
37.88,31809.5,34539.5,1.1711,1.1564,136.1,96.2,0.552
37.9,31904.8,34729.3,1.1771,1.1674,136.1,96.2,0.552
37.92,32008.0,35062.0,1.1837,1.1867,136.1,96.2,0.552
37.94,32256.3,35472.7,1.1994,1.2105,136.1,96.2,0.552
37.96,32314.2,35706.6,1.2031,1.224,136.1,96.2,0.552
37.98,32368.0,35756.3,1.2065,1.2269,136.1,96.2,0.552
38.0,32322.1,35675.5,1.2036,1.2222,136.1,96.2,0.552
38.02,32258.5,35418.0,1.1996,1.2073,136.1,96.2,0.552
38.04,32235.5,35306.5,1.1981,1.2008,136.1,96.2,0.552
38.06,32138.3,35278.9,1.1919,1.1992,136.1,96.2,0.552
38.08,32023.8,35143.2,1.1847,1.1914,136.1,96.2,0.552
38.1,32021.8,35156.5,1.1846,1.1921,136.1,96.2,0.552
38.12,32123.1,35018.2,1.191,1.1841,136.1,96.2,0.552
38.14,31957.5,34820.7,1.1805,1.1727,136.1,96.2,0.552
38.16,31941.9,34796.7,1.1795,1.1713,136.1,96.2,0.552
38.18,31868.4,34651.1,1.1748,1.1629,136.1,96.2,0.552
38.2,31752.5,34597.1,1.1675,1.1597,136.1,96.2,0.552
38.22,31798.3,34738.6,1.1704,1.1679,136.1,96.2,0.552
38.24,31768.0,34646.8,1.1685,1.1626,136.1,96.2,0.552
38.26,31774.7,34556.9,1.1689,1.1574,136.1,96.2,0.552
38.28,31795.6,34441.5,1.1702,1.1507,136.1,96.2,0.552
38.3,31612.6,34418.2,1.1586,1.1494,136.1,96.2,0.552
38.32,31837.9,34534.8,1.1729,1.1561,136.1,96.2,0.552
38.34,31871.7,34703.1,1.1751,1.1659,136.1,96.2,0.552
38.36,32174.1,35121.5,1.1942,1.1901,136.1,96.2,0.552
38.38,32253.9,35400.3,1.1993,1.2063,136.1,96.2,0.552
38.4,32357.8,35716.8,1.2059,1.2246,136.1,96.2,0.552
38.42,32409.1,35773.7,1.2091,1.2279,136.1,96.2,0.552
38.44,32257.4,35585.5,1.1995,1.217,136.1,96.2,0.552
38.46,32254.1,35516.2,1.1993,1.213,136.1,96.2,0.552
38.48,32200.0,35299.3,1.1959,1.2004,136.1,96.2,0.552
38.5,32061.2,35114.1,1.1871,1.1897,136.1,96.2,0.552
38.52,32119.9,35028.2,1.1908,1.1847,136.1,96.2,0.552
38.54,32076.0,35004.7,1.188,1.1833,136.1,96.2,0.552
38.56,32007.7,35028.2,1.1837,1.1847,136.1,96.2,0.552
38.58,31952.7,34896.9,1.1802,1.1771,136.1,96.2,0.552
38.6,31896.5,34787.3,1.1766,1.1707,136.1,96.2,0.552
38.62,31806.6,34798.3,1.1709,1.1714,136.1,96.2,0.552
38.64,31851.0,34770.2,1.1737,1.1698,136.1,96.2,0.552
38.66,31854.9,34669.4,1.174,1.1639,136.1,96.2,0.552
38.68,31822.6,34666.1,1.1719,1.1637,136.1,96.2,0.552
38.7,31818.5,34596.8,1.1717,1.1597,136.1,96.2,0.552
38.72,31765.1,34460.2,1.1683,1.1518,136.1,96.2,0.552
38.74,31693.9,34390.7,1.1638,1.1478,136.1,96.2,0.552
38.76,31811.2,34500.0,1.1712,1.1541,136.1,96.2,0.552
38.78,31765.3,34669.7,1.1683,1.1639,136.1,96.2,0.552
38.8,31920.3,35165.5,1.1781,1.1927,136.1,96.2,0.552
38.82,32272.0,35479.6,1.2004,1.2109,136.1,96.2,0.552
38.84,32331.3,35665.7,1.2042,1.2216,136.1,96.2,0.552
38.86,32386.1,35849.3,1.2077,1.2323,136.1,96.2,0.552
38.88,32304.4,35613.3,1.2025,1.2186,136.1,96.2,0.552
38.9,32288.6,35526.0,1.2015,1.2136,136.1,96.2,0.552
38.92,32053.8,35228.4,1.1866,1.1963,136.1,96.2,0.552
38.94,32171.2,35258.4,1.194,1.198,136.1,96.2,0.552
38.96,32121.5,35110.8,1.1909,1.1895,136.1,96.2,0.552
38.98,31924.9,35013.4,1.1784,1.1838,136.1,96.2,0.552
39.0,32002.9,35021.8,1.1834,1.1843,136.1,96.2,0.552
39.02,31954.2,34919.4,1.1803,1.1784,136.1,96.2,0.552
39.04,31834.6,34813.5,1.1727,1.1723,136.1,96.2,0.552
39.06,31915.3,34713.8,1.1778,1.1665,136.1,96.2,0.552
39.08,31873.4,34691.3,1.1752,1.1652,136.1,96.2,0.552
39.1,31814.8,34603.0,1.1714,1.1601,136.1,96.2,0.552
39.12,31809.8,34676.5,1.1711,1.1643,136.1,96.2,0.552
39.14,31815.2,34514.6,1.1715,1.1549,136.1,96.2,0.552
39.16,31721.3,34450.6,1.1655,1.1512,136.1,96.2,0.552
39.18,31704.9,34370.6,1.1645,1.1466,136.1,96.2,0.552
39.2,31755.0,34489.9,1.1677,1.1535,136.1,96.2,0.552
39.22,31859.7,34699.5,1.1743,1.1657,136.1,96.2,0.552
39.24,32076.7,35113.9,1.188,1.1897,136.1,96.2,0.552
39.26,32169.5,35432.6,1.1939,1.2081,136.1,96.2,0.552
39.28,32312.8,35617.0,1.203,1.2188,136.1,96.2,0.552
39.3,32275.1,35765.2,1.2006,1.2274,136.1,96.2,0.552
39.32,32366.1,35602.5,1.2064,1.218,136.1,96.2,0.552
39.34,32286.1,35563.8,1.2013,1.2157,136.1,96.2,0.552
39.36,32169.7,35291.1,1.1939,1.1999,136.1,96.2,0.552
39.38,32093.4,35130.3,1.1891,1.1906,136.1,96.2,0.552
39.4,32076.7,35077.3,1.188,1.1875,136.1,96.2,0.552
39.42,32058.1,35068.1,1.1869,1.187,136.1,96.2,0.552
39.44,32042.3,35045.5,1.1859,1.1857,136.1,96.2,0.552
39.46,31999.0,34936.8,1.1831,1.1794,136.1,96.2,0.552
39.48,31944.0,34766.5,1.1796,1.1695,136.1,96.2,0.552
39.5,31853.0,34804.3,1.1739,1.1717,136.1,96.2,0.552
39.52,31816.4,34673.7,1.1715,1.1642,136.1,96.2,0.552
39.54,31812.9,34630.6,1.1713,1.1617,136.1,96.2,0.552
39.56,31793.7,34614.4,1.1701,1.1607,136.1,96.2,0.552
39.58,31786.8,34510.1,1.1697,1.1547,136.1,96.2,0.552
39.6,31811.5,34550.2,1.1712,1.157,136.1,96.2,0.552
39.62,31692.0,34411.4,1.1637,1.149,136.1,96.2,0.552
39.64,31665.7,34473.2,1.162,1.1525,136.1,96.2,0.552
39.66,31870.5,34600.8,1.175,1.1599,136.1,96.2,0.552
39.68,31993.1,34962.7,1.1827,1.1809,136.1,96.2,0.552
39.7,32192.1,35417.1,1.1954,1.2072,136.1,96.2,0.552
39.72,32186.4,35550.2,1.195,1.215,136.1,96.2,0.552
39.74,32440.3,35708.3,1.2111,1.2241,136.1,96.2,0.552
39.76,32360.0,35713.3,1.206,1.2244,136.1,96.2,0.552
39.78,32359.0,35471.4,1.2059,1.2104,136.1,96.2,0.552
39.8,32230.5,35347.8,1.1978,1.2032,136.1,96.2,0.552
39.82,32071.6,35222.9,1.1877,1.196,136.1,96.2,0.552
39.84,32081.2,35071.1,1.1883,1.1872,136.1,96.2,0.552
39.86,31945.5,35057.7,1.1797,1.1864,136.1,96.2,0.552
39.88,32090.4,34938.9,1.1889,1.1795,136.1,96.2,0.552
39.9,31970.3,34812.7,1.1813,1.1722,136.1,96.2,0.552
39.92,31920.3,34810.9,1.1781,1.1721,136.1,96.2,0.552
39.94,31850.7,34851.6,1.1737,1.1745,136.1,96.2,0.552
39.96,31760.1,34698.0,1.168,1.1656,136.1,96.2,0.552
39.98,31905.0,34682.8,1.1772,1.1647,136.1,96.2,0.552
40.0,31838.4,34565.8,1.1729,1.1579,136.1,96.2,0.552
40.02,31737.3,34585.0,1.1665,1.159,136.1,96.2,0.552
40.04,31783.5,34469.2,1.1695,1.1523,136.1,96.2,0.552
40.06,31711.3,34430.7,1.1649,1.1501,136.1,96.2,0.552
40.08,31839.3,34443.2,1.173,1.1508,136.1,96.2,0.552
40.1,31875.7,34832.7,1.1753,1.1734,136.1,96.2,0.552
40.12,31992.7,34999.4,1.1827,1.183,136.1,96.2,0.552
40.14,32073.5,35366.8,1.1878,1.2043,136.1,96.2,0.552
40.16,32281.5,35639.7,1.201,1.2201,136.1,96.2,0.552
40.18,32382.9,35823.2,1.2075,1.2308,136.1,96.2,0.552
40.2,32324.3,35690.5,1.2037,1.2231,136.1,96.2,0.552
40.22,32235.0,35576.8,1.1981,1.2165,136.1,96.2,0.552
40.24,32212.0,35339.9,1.1966,1.2028,136.1,96.2,0.552
40.26,32161.6,35241.9,1.1934,1.1971,136.1,96.2,0.552
40.28,32071.1,34995.4,1.1877,1.1828,136.1,96.2,0.552
40.3,32008.8,35077.2,1.1837,1.1875,136.1,96.2,0.552
40.32,31960.8,34906.0,1.1807,1.1776,136.1,96.2,0.552
40.34,32014.6,34877.7,1.1841,1.176,136.1,96.2,0.552
40.36,31855.8,34784.4,1.174,1.1706,136.1,96.2,0.552
40.38,31830.7,34672.1,1.1725,1.1641,136.1,96.2,0.552
40.4,31773.1,34664.1,1.1688,1.1636,136.1,96.2,0.552
40.42,31859.3,34683.3,1.1743,1.1647,136.1,96.2,0.552
40.44,31787.2,34709.7,1.1697,1.1662,136.1,96.2,0.552
40.46,31876.5,34595.8,1.1754,1.1597,136.1,96.2,0.552
40.48,31670.6,34490.5,1.1623,1.1535,136.1,96.2,0.552
40.5,31680.1,34496.3,1.1629,1.1539,136.1,96.2,0.552
40.52,31654.6,34536.0,1.1613,1.1562,136.1,96.2,0.552
40.54,31819.2,34710.4,1.1717,1.1663,136.1,96.2,0.552
40.56,31948.2,35043.7,1.1799,1.1856,136.1,96.2,0.552
40.58,32277.1,35341.5,1.2007,1.2029,136.1,96.2,0.552
40.6,32335.9,35704.0,1.2045,1.2239,136.1,96.2,0.552
40.62,32270.9,35731.6,1.2004,1.2255,136.1,96.2,0.552
40.64,32352.4,35698.8,1.2055,1.2236,136.1,96.2,0.552
40.66,32259.5,35566.2,1.1996,1.2159,136.1,96.2,0.552
40.68,32221.1,35372.0,1.1972,1.2046,136.1,96.2,0.552
40.7,32101.0,35135.2,1.1896,1.1909,136.1,96.2,0.552
40.72,32006.4,35117.2,1.1836,1.1899,136.1,96.2,0.552
40.74,32032.9,35050.1,1.1853,1.186,136.1,96.2,0.552
40.76,32005.8,35046.0,1.1836,1.1857,136.1,96.2,0.552
40.78,32014.1,34874.4,1.1841,1.1758,136.1,96.2,0.552
40.8,31958.3,34747.8,1.1805,1.1685,136.1,96.2,0.552
40.82,31841.0,34665.1,1.1731,1.1637,136.1,96.2,0.552
40.84,31836.1,34766.3,1.1728,1.1695,136.1,96.2,0.552
40.86,31853.7,34668.9,1.1739,1.1639,136.1,96.2,0.552
40.88,31776.5,34657.6,1.169,1.1632,136.1,96.2,0.552
40.9,31816.6,34596.5,1.1716,1.1597,136.1,96.2,0.552
40.92,31813.7,34513.2,1.1714,1.1549,136.1,96.2,0.552
40.94,31748.2,34577.7,1.1672,1.1586,136.1,96.2,0.552
40.96,31737.7,34475.5,1.1666,1.1527,136.1,96.2,0.552
40.98,31824.3,34564.1,1.172,1.1578,136.1,96.2,0.552
41.0,31904.4,35015.5,1.1771,1.184,136.1,96.2,0.552
41.02,32180.8,35245.7,1.1946,1.1973,136.1,96.2,0.552
41.04,32332.9,35646.2,1.2043,1.2205,136.1,96.2,0.552
41.06,32382.3,35788.3,1.2074,1.2288,136.1,96.2,0.552
41.08,32346.2,35716.3,1.2051,1.2246,136.1,96.2,0.552
41.1,32139.1,35591.2,1.192,1.2173,136.1,96.2,0.552
41.12,32174.7,35265.4,1.1943,1.1984,136.1,96.2,0.552
41.14,32034.5,35280.4,1.1854,1.1993,136.1,96.2,0.552
41.16,32082.0,35153.8,1.1884,1.192,136.1,96.2,0.552
41.18,32069.3,35039.8,1.1876,1.1854,136.1,96.2,0.552
41.2,32154.1,35079.9,1.1929,1.1877,136.1,96.2,0.552
41.22,31885.3,34917.7,1.1759,1.1783,136.1,96.2,0.552
41.24,31776.2,34866.3,1.169,1.1753,136.1,96.2,0.552
41.26,31900.0,34630.3,1.1768,1.1616,136.1,96.2,0.552
41.28,31871.2,34704.9,1.175,1.166,136.1,96.2,0.552
41.3,31868.8,34670.5,1.1749,1.164,136.1,96.2,0.552
41.32,31774.0,34685.1,1.1689,1.1648,136.1,96.2,0.552
41.34,31795.4,34542.9,1.1702,1.1566,136.1,96.2,0.552
41.36,31686.0,34499.6,1.1633,1.1541,136.1,96.2,0.552
41.38,31715.5,34416.7,1.1652,1.1493,136.1,96.2,0.552
41.4,31682.3,34511.8,1.163,1.1548,136.1,96.2,0.552
41.42,31773.4,34737.9,1.1688,1.1679,136.1,96.2,0.552
41.44,31966.6,34936.3,1.1811,1.1794,136.1,96.2,0.552
41.46,32132.6,35343.5,1.1916,1.203,136.1,96.2,0.552
41.48,32339.4,35544.6,1.2047,1.2146,136.1,96.2,0.552
41.5,32348.6,35808.2,1.2053,1.2299,136.1,96.2,0.552
41.52,32433.2,35840.0,1.2106,1.2317,136.1,96.2,0.552
41.54,32247.5,35547.4,1.1989,1.2148,136.1,96.2,0.552
41.56,32124.6,35413.6,1.1911,1.207,136.1,96.2,0.552
41.58,32179.5,35087.3,1.1946,1.1881,136.1,96.2,0.552
41.6,32047.7,35099.6,1.1862,1.1888,136.1,96.2,0.552
41.62,32072.1,35093.6,1.1878,1.1885,136.1,96.2,0.552
41.64,32016.1,35067.5,1.1842,1.187,136.1,96.2,0.552
41.66,31985.1,35007.3,1.1822,1.1835,136.1,96.2,0.552
41.68,31907.4,34888.3,1.1773,1.1766,136.1,96.2,0.552
41.7,31916.6,34743.0,1.1779,1.1682,136.1,96.2,0.552
41.72,31828.7,34674.9,1.1723,1.1642,136.1,96.2,0.552
41.74,31824.0,34738.4,1.172,1.1679,136.1,96.2,0.552
41.76,31695.7,34636.7,1.1639,1.162,136.1,96.2,0.552
41.78,31739.4,34626.5,1.1667,1.1614,136.1,96.2,0.552
41.8,31765.2,34641.1,1.1683,1.1623,136.1,96.2,0.552
41.82,31789.0,34492.3,1.1698,1.1537,136.1,96.2,0.552
41.84,31758.3,34465.7,1.1679,1.1521,136.1,96.2,0.552
41.86,31868.7,34664.3,1.1749,1.1636,136.1,96.2,0.552
41.88,32006.7,34938.4,1.1836,1.1795,136.1,96.2,0.552
41.9,32137.9,35314.0,1.1919,1.2013,136.1,96.2,0.552
41.92,32295.2,35582.8,1.2019,1.2168,136.1,96.2,0.552
41.94,32324.3,35693.5,1.2037,1.2233,136.1,96.2,0.552
41.96,32296.8,35664.4,1.202,1.2216,136.1,96.2,0.552
41.98,32228.0,35589.8,1.1976,1.2172,136.1,96.2,0.552
42.0,32179.5,35484.1,1.1946,1.2111,136.1,96.2,0.552
42.02,32150.5,35298.1,1.1927,1.2003,136.1,96.2,0.552
42.04,32062.4,35144.4,1.1871,1.1914,136.1,96.2,0.552
42.06,32031.3,35064.4,1.1852,1.1868,136.1,96.2,0.552
42.08,31973.8,35033.2,1.1815,1.185,136.1,96.2,0.552
42.1,32047.4,34914.8,1.1862,1.1781,136.1,96.2,0.552
42.12,31985.2,34772.6,1.1822,1.1699,136.1,96.2,0.552
42.14,31868.7,34737.1,1.1749,1.1678,136.1,96.2,0.552
42.16,31829.7,34606.8,1.1724,1.1603,136.1,96.2,0.552
42.18,31737.9,34624.1,1.1666,1.1613,136.1,96.2,0.552
42.2,31857.3,34642.9,1.1741,1.1624,136.1,96.2,0.552
42.22,31780.2,34639.2,1.1692,1.1622,136.1,96.2,0.552
42.24,31803.2,34441.4,1.1707,1.1507,136.1,96.2,0.552
42.26,31713.2,34487.5,1.165,1.1534,136.1,96.2,0.552
42.28,31756.4,34502.8,1.1677,1.1543,136.1,96.2,0.552
42.3,31830.1,34654.9,1.1724,1.1631,136.1,96.2,0.552
42.32,31943.6,34951.8,1.1796,1.1803,136.1,96.2,0.552
42.34,32213.8,35230.7,1.1967,1.1964,136.1,96.2,0.552
42.36,32298.3,35579.0,1.2021,1.2166,136.1,96.2,0.552
42.38,32344.7,35653.8,1.205,1.221,136.1,96.2,0.552
42.4,32315.9,35768.1,1.2032,1.2276,136.1,96.2,0.552
42.42,32315.6,35570.2,1.2032,1.2161,136.1,96.2,0.552
42.44,32183.3,35402.9,1.1948,1.2064,136.1,96.2,0.552
42.46,32116.3,35248.4,1.1906,1.1975,136.1,96.2,0.552
42.48,32017.5,35157.1,1.1843,1.1922,136.1,96.2,0.552
42.5,31974.4,35100.8,1.1816,1.1889,136.1,96.2,0.552
42.52,31981.6,35079.8,1.182,1.1877,136.1,96.2,0.552
42.54,31989.3,34976.3,1.1825,1.1817,136.1,96.2,0.552
42.56,31941.6,34867.4,1.1795,1.1754,136.1,96.2,0.552
42.58,31873.5,34721.4,1.1752,1.1669,136.1,96.2,0.552
42.6,31814.2,34746.9,1.1714,1.1684,136.1,96.2,0.552
42.62,31807.6,34585.9,1.171,1.1591,136.1,96.2,0.552
42.64,31850.1,34670.5,1.1737,1.164,136.1,96.2,0.552
42.66,31854.1,34509.7,1.1739,1.1547,136.1,96.2,0.552
42.68,31741.2,34506.9,1.1668,1.1545,136.1,96.2,0.552
42.7,31672.4,34501.1,1.1624,1.1542,136.1,96.2,0.552
42.72,31786.8,34545.4,1.1697,1.1567,136.1,96.2,0.552
42.74,31872.5,34712.0,1.1751,1.1664,136.1,96.2,0.552
42.76,31981.2,35003.6,1.182,1.1833,136.1,96.2,0.552
42.78,32078.1,35247.7,1.1881,1.1974,136.1,96.2,0.552
42.8,32264.7,35595.7,1.2,1.2176,136.1,96.2,0.552
42.82,32338.1,35721.7,1.2046,1.2249,136.1,96.2,0.552
42.84,32329.1,35714.3,1.204,1.2245,136.1,96.2,0.552
42.86,32364.9,35564.3,1.2063,1.2158,136.1,96.2,0.552
42.88,32262.5,35410.1,1.1998,1.2068,136.1,96.2,0.552
42.9,32159.4,35210.7,1.1933,1.1953,136.1,96.2,0.552
42.92,32097.0,35117.6,1.1893,1.1899,136.1,96.2,0.552
42.94,32125.9,35133.6,1.1912,1.1908,136.1,96.2,0.552
42.96,32067.3,35080.0,1.1874,1.1877,136.1,96.2,0.552
42.98,31917.6,34991.8,1.178,1.1826,136.1,96.2,0.552
43.0,31973.0,34817.3,1.1815,1.1725,136.1,96.2,0.552
43.02,31887.2,34717.4,1.176,1.1667,136.1,96.2,0.552
43.04,31856.4,34785.8,1.1741,1.1707,136.1,96.2,0.552
43.06,31825.7,34678.3,1.1721,1.1644,136.1,96.2,0.552
43.08,31841.4,34668.5,1.1731,1.1639,136.1,96.2,0.552
43.1,31769.6,34619.8,1.1686,1.161,136.1,96.2,0.552
43.12,31859.6,34506.5,1.1743,1.1545,136.1,96.2,0.552
43.14,31685.2,34405.2,1.1632,1.1486,136.1,96.2,0.552
43.16,31714.0,34421.6,1.1651,1.1496,136.1,96.2,0.552
43.18,31630.0,34633.7,1.1597,1.1618,136.1,96.2,0.552
43.2,31864.1,34908.7,1.1746,1.1778,136.1,96.2,0.552
43.22,32194.5,35357.9,1.1955,1.2038,136.1,96.2,0.552
43.24,32357.1,35562.5,1.2058,1.2157,136.1,96.2,0.552
43.26,32388.1,35688.7,1.2078,1.223,136.1,96.2,0.552
43.28,32265.2,35736.0,1.2,1.2257,136.1,96.2,0.552
43.3,32341.8,35634.8,1.2048,1.2199,136.1,96.2,0.552
43.32,32189.1,35424.7,1.1952,1.2077,136.1,96.2,0.552
43.34,32079.0,35096.0,1.1882,1.1886,136.1,96.2,0.552
43.36,32033.2,35058.7,1.1853,1.1865,136.1,96.2,0.552
43.38,32056.7,35099.4,1.1868,1.1888,136.1,96.2,0.552
43.4,31989.7,35037.9,1.1825,1.1853,136.1,96.2,0.552
43.42,31950.6,34838.7,1.1801,1.1737,136.1,96.2,0.552
43.44,31978.1,34927.6,1.1818,1.1789,136.1,96.2,0.552
43.46,31892.1,34753.1,1.1763,1.1688,136.1,96.2,0.552
43.48,31850.8,34676.2,1.1737,1.1643,136.1,96.2,0.552
43.5,31781.9,34704.0,1.1694,1.1659,136.1,96.2,0.552
43.52,31871.2,34688.5,1.175,1.165,136.1,96.2,0.552
43.54,31787.6,34647.6,1.1697,1.1627,136.1,96.2,0.552
43.56,31910.1,34496.1,1.1775,1.1539,136.1,96.2,0.552
43.58,31721.8,34478.3,1.1655,1.1528,136.1,96.2,0.552
43.6,31802.0,34437.2,1.1706,1.1505,136.1,96.2,0.552
43.62,31721.3,34536.6,1.1655,1.1562,136.1,96.2,0.552
43.64,32016.4,34878.2,1.1842,1.176,136.1,96.2,0.552
43.66,32133.1,35285.0,1.1916,1.1996,136.1,96.2,0.552
43.68,32318.4,35546.4,1.2034,1.2147,136.1,96.2,0.552
43.7,32397.2,35758.7,1.2084,1.227,136.1,96.2,0.552
43.72,32429.2,35803.3,1.2104,1.2296,136.1,96.2,0.552
43.74,32358.3,35700.5,1.2059,1.2237,136.1,96.2,0.552
43.76,32209.5,35417.3,1.1965,1.2073,136.1,96.2,0.552
43.78,32090.7,35210.7,1.1889,1.1953,136.1,96.2,0.552
43.8,32076.5,35172.7,1.188,1.1931,136.1,96.2,0.552
43.82,31943.1,35058.8,1.1796,1.1865,136.1,96.2,0.552
43.84,32030.3,35065.9,1.1851,1.1869,136.1,96.2,0.552
43.86,32106.7,34950.9,1.1899,1.1802,136.1,96.2,0.552
43.88,31913.6,34900.3,1.1777,1.1773,136.1,96.2,0.552
43.9,31840.2,34848.3,1.1731,1.1743,136.1,96.2,0.552
43.92,31815.5,34649.9,1.1715,1.1628,136.1,96.2,0.552
43.94,31791.7,34683.4,1.17,1.1647,136.1,96.2,0.552
43.96,31771.2,34709.0,1.1687,1.1662,136.1,96.2,0.552
43.98,31831.0,34528.3,1.1725,1.1557,136.1,96.2,0.552
44.0,31786.6,34570.2,1.1697,1.1582,136.1,96.2,0.552
44.02,31748.2,34484.9,1.1672,1.1532,136.1,96.2,0.552
44.04,31809.9,34450.3,1.1711,1.1512,136.1,96.2,0.552
44.06,31751.9,34543.8,1.1675,1.1566,136.1,96.2,0.552
44.08,31974.0,34838.4,1.1815,1.1737,136.1,96.2,0.552
44.1,32077.8,35191.1,1.1881,1.1941,136.1,96.2,0.552
44.12,32284.1,35599.1,1.2012,1.2178,136.1,96.2,0.552
44.14,32316.6,35795.4,1.2032,1.2292,136.1,96.2,0.552
44.16,32395.2,35674.9,1.2082,1.2222,136.1,96.2,0.552
44.18,32377.3,35593.1,1.2071,1.2174,136.1,96.2,0.552
44.2,32188.0,35416.2,1.1951,1.2072,136.1,96.2,0.552
44.22,32212.3,35254.0,1.1966,1.1978,136.1,96.2,0.552
44.24,32122.3,35141.3,1.1909,1.1913,136.1,96.2,0.552
44.26,31991.5,35154.4,1.1826,1.192,136.1,96.2,0.552
44.28,32054.7,34988.4,1.1867,1.1824,136.1,96.2,0.552
44.3,31969.8,34936.0,1.1813,1.1794,136.1,96.2,0.552
44.32,31949.7,34872.0,1.18,1.1757,136.1,96.2,0.552
44.34,31882.0,34746.2,1.1757,1.1684,136.1,96.2,0.552
44.36,31884.9,34785.6,1.1759,1.1706,136.1,96.2,0.552
44.38,31859.2,34703.1,1.1743,1.1659,136.1,96.2,0.552
44.4,31783.3,34564.2,1.1694,1.1578,136.1,96.2,0.552
44.42,31726.1,34589.7,1.1658,1.1593,136.1,96.2,0.552
44.44,31841.8,34581.4,1.1732,1.1588,136.1,96.2,0.552
44.46,31686.0,34506.4,1.1633,1.1545,136.1,96.2,0.552
44.48,31774.9,34416.1,1.1689,1.1492,136.1,96.2,0.552
44.5,31739.7,34584.6,1.1667,1.159,136.1,96.2,0.552
44.52,31985.7,34855.7,1.1823,1.1747,136.1,96.2,0.552
44.54,32032.8,35267.4,1.1853,1.1986,136.1,96.2,0.552
44.56,32266.4,35533.2,1.2001,1.214,136.1,96.2,0.552
44.58,32388.0,35788.4,1.2078,1.2288,136.1,96.2,0.552
44.6,32508.1,35789.5,1.2154,1.2288,136.1,96.2,0.552
44.62,32367.7,35635.8,1.2065,1.2199,136.1,96.2,0.552
44.64,32247.4,35509.9,1.1989,1.2126,136.1,96.2,0.552
44.66,32064.1,35194.8,1.1872,1.1944,136.1,96.2,0.552
44.68,32064.1,35223.5,1.1872,1.196,136.1,96.2,0.552
44.7,32019.9,35080.9,1.1844,1.1878,136.1,96.2,0.552
44.72,31962.7,35075.3,1.1808,1.1874,136.1,96.2,0.552
44.74,32014.1,35009.1,1.1841,1.1836,136.1,96.2,0.552
44.76,32021.1,34866.7,1.1845,1.1753,136.1,96.2,0.552
44.78,31793.5,34745.7,1.1701,1.1683,136.1,96.2,0.552
44.8,31877.4,34758.2,1.1754,1.1691,136.1,96.2,0.552
44.82,31810.5,34601.3,1.1712,1.16,136.1,96.2,0.552
44.84,31803.8,34711.7,1.1707,1.1664,136.1,96.2,0.552
44.86,31851.1,34631.3,1.1737,1.1617,136.1,96.2,0.552
44.88,31625.0,34520.9,1.1594,1.1553,136.1,96.2,0.552
44.9,31758.9,34493.1,1.1679,1.1537,136.1,96.2,0.552
44.92,31718.1,34481.4,1.1653,1.153,136.1,96.2,0.552
44.94,31831.2,34629.2,1.1725,1.1616,136.1,96.2,0.552
44.96,31867.8,34881.9,1.1748,1.1762,136.1,96.2,0.552
44.98,32047.9,35218.7,1.1862,1.1957,136.1,96.2,0.552
45.0,32228.3,35516.5,1.1977,1.213,136.1,96.2,0.552
45.02,32344.1,35776.5,1.205,1.2281,136.1,96.2,0.552
45.04,32353.7,35779.3,1.2056,1.2282,136.1,96.2,0.552
45.06,32312.9,35540.0,1.203,1.2144,136.1,96.2,0.552
45.08,32229.0,35377.3,1.1977,1.2049,136.1,96.2,0.552
45.1,32258.6,35302.1,1.1996,1.2006,136.1,96.2,0.552
45.12,32078.3,35162.7,1.1881,1.1925,136.1,96.2,0.552
45.14,32028.0,35082.8,1.185,1.1879,136.1,96.2,0.552
45.16,31995.1,35026.3,1.1829,1.1846,136.1,96.2,0.552
45.18,32057.0,34897.9,1.1868,1.1772,136.1,96.2,0.552
45.2,31925.0,34818.2,1.1784,1.1725,136.1,96.2,0.552
45.22,31873.3,34821.3,1.1751,1.1727,136.1,96.2,0.552
45.24,31856.6,34685.5,1.1741,1.1648,136.1,96.2,0.552
45.26,31799.7,34621.7,1.1705,1.1611,136.1,96.2,0.552
45.28,31827.2,34728.0,1.1722,1.1673,136.1,96.2,0.552
45.3,31800.4,34592.4,1.1705,1.1595,136.1,96.2,0.552
45.32,31801.3,34526.0,1.1706,1.1556,136.1,96.2,0.552
45.34,31828.2,34411.2,1.1723,1.1489,136.1,96.2,0.552
45.36,31830.4,34515.2,1.1724,1.155,136.1,96.2,0.552
45.38,31753.6,34615.4,1.1676,1.1608,136.1,96.2,0.552
45.4,31857.2,34877.2,1.1741,1.176,136.1,96.2,0.552
45.42,31960.1,35215.9,1.1807,1.1956,136.1,96.2,0.552
45.44,32339.2,35537.9,1.2047,1.2142,136.1,96.2,0.552
45.46,32463.4,35753.5,1.2126,1.2267,136.1,96.2,0.552
45.48,32369.3,35702.9,1.2066,1.2238,136.1,96.2,0.552
45.5,32335.3,35608.9,1.2044,1.2184,136.1,96.2,0.552
45.52,32280.7,35393.3,1.201,1.2059,136.1,96.2,0.552
45.54,32101.1,35265.8,1.1896,1.1985,136.1,96.2,0.552
45.56,32129.1,35136.1,1.1914,1.191,136.1,96.2,0.552
45.58,31989.9,35107.2,1.1825,1.1893,136.1,96.2,0.552
45.6,32061.0,35065.5,1.187,1.1869,136.1,96.2,0.552
45.62,32015.4,34916.4,1.1842,1.1782,136.1,96.2,0.552
45.64,31926.5,34931.6,1.1785,1.1791,136.1,96.2,0.552
45.66,31867.2,34842.9,1.1748,1.174,136.1,96.2,0.552
45.68,31786.2,34737.4,1.1696,1.1679,136.1,96.2,0.552
45.7,31819.1,34644.0,1.1717,1.1624,136.1,96.2,0.552
45.72,31798.4,34692.9,1.1704,1.1653,136.1,96.2,0.552
45.74,31870.7,34556.6,1.175,1.1574,136.1,96.2,0.552
45.76,31834.5,34562.9,1.1727,1.1577,136.1,96.2,0.552
45.78,31689.3,34354.6,1.1635,1.1457,136.1,96.2,0.552
45.8,31702.8,34428.8,1.1643,1.15,136.1,96.2,0.552
