timestamp,raw_red,raw_ir,filtered_red,filtered_ir,heart_rate,spo2,ac_dc_ratio
0.0,32070.1,35157.4,0.2706,0.3871,142.3,97.0,0.519
0.02,32187.5,35514.0,0.7208,1.2638,142.3,97.0,0.519
0.04,32354.1,35702.2,1.3598,1.7264,142.3,97.0,0.519
0.06,32382.5,35657.1,1.4688,1.6156,142.3,97.0,0.519
0.08,32357.2,35655.1,1.3719,1.6107,142.3,97.0,0.519
0.1,32279.6,35473.9,1.0741,1.1653,142.3,97.0,0.519
0.12,32051.3,35244.4,0.1985,0.601,142.3,97.0,0.519
0.14,31983.1,35202.7,-0.063,0.4985,142.3,97.0,0.519
0.16,32039.7,35039.6,0.154,0.0977,142.3,97.0,0.519
0.18,31937.5,35028.2,-0.2381,0.0694,142.3,97.0,0.519
0.2,31903.2,34934.3,-0.3696,-0.1613,142.3,97.0,0.519
0.22,31943.5,34843.9,-0.215,-0.3835,142.3,97.0,0.519
0.24,31883.8,34762.4,-0.4439,-0.5838,142.3,97.0,0.519
0.26,31865.0,34683.8,-0.516,-0.7771,142.3,97.0,0.519
0.28,31828.5,34663.3,-0.656,-0.8276,142.3,97.0,0.519
0.3,31914.0,34579.7,-0.3283,-1.033,142.3,97.0,0.519
0.32,31703.3,34561.1,-1.1361,-1.0788,142.3,97.0,0.519
0.34,31764.5,34484.5,-0.9017,-1.2671,142.3,97.0,0.519
0.36,31766.8,34392.6,-0.8927,-1.493,142.3,97.0,0.519
0.38,31791.1,34572.5,-0.7995,-1.0506,142.3,97.0,0.519
0.4,31959.9,34726.9,-0.152,-0.6712,142.3,97.0,0.519
0.42,32051.3,35063.9,0.1985,0.1572,142.3,97.0,0.519
0.44,32310.2,35458.8,1.1917,1.1279,142.3,97.0,0.519
0.46,32288.4,35680.6,1.1077,1.6733,142.3,97.0,0.519
0.48,32323.1,35729.1,1.2408,1.7925,142.3,97.0,0.519
0.5,32306.3,35630.8,1.1764,1.5508,142.3,97.0,0.519
0.52,32236.2,35414.9,0.9076,1.02,142.3,97.0,0.519
0.54,32172.9,35251.6,0.6648,0.6187,142.3,97.0,0.519
0.56,32182.6,35128.4,0.7019,0.3157,142.3,97.0,0.519
0.58,32151.8,35038.1,0.584,0.0938,142.3,97.0,0.519
0.6,32012.8,35052.9,0.0506,0.1302,142.3,97.0,0.519
0.62,32037.3,35027.5,0.1446,0.0677,142.3,97.0,0.519
0.64,31940.4,34789.8,-0.227,-0.5165,142.3,97.0,0.519
0.66,31832.2,34757.4,-0.6418,-0.5962,142.3,97.0,0.519
0.68,31823.4,34734.4,-0.6756,-0.6528,142.3,97.0,0.519
0.7,31830.9,34618.6,-0.6471,-0.9374,142.3,97.0,0.519
0.72,31813.2,34675.2,-0.7149,-0.7982,142.3,97.0,0.519
0.74,31860.6,34517.1,-0.5328,-1.187,142.3,97.0,0.519
0.76,31783.3,34496.2,-0.8294,-1.2384,142.3,97.0,0.519
0.78,31779.4,34574.7,-0.8445,-1.0454,142.3,97.0,0.519
0.8,31758.1,34528.6,-0.9259,-1.1587,142.3,97.0,0.519
0.82,31881.3,34838.6,-0.4535,-0.3966,142.3,97.0,0.519
0.84,32112.5,35151.5,0.4332,0.3727,142.3,97.0,0.519
0.86,32235.7,35485.3,0.9058,1.1932,142.3,97.0,0.519
0.88,32347.3,35777.8,1.3338,1.9123,142.3,97.0,0.519
0.9,32333.0,35767.0,1.2791,1.8858,142.3,97.0,0.519
0.92,32355.2,35751.8,1.3643,1.8483,142.3,97.0,0.519
0.94,32207.3,35429.6,0.7967,1.0564,142.3,97.0,0.519
0.96,32120.2,35155.7,0.4629,0.3829,142.3,97.0,0.519
0.98,32070.1,35131.1,0.2706,0.3226,142.3,97.0,0.519
1.0,32098.8,35095.2,0.3805,0.2342,142.3,97.0,0.519
1.02,32036.8,35024.8,0.1429,0.0612,142.3,97.0,0.519
1.04,32010.2,34975.8,0.0408,-0.0592,142.3,97.0,0.519
1.06,31932.6,34892.7,-0.2567,-0.2635,142.3,97.0,0.519
1.08,31814.9,34776.0,-0.7081,-0.5505,142.3,97.0,0.519
1.1,31730.1,34698.4,-1.0335,-0.7412,142.3,97.0,0.519
1.12,31755.5,34649.4,-0.9362,-0.8617,142.3,97.0,0.519
1.14,31757.1,34633.8,-0.93,-0.9,142.3,97.0,0.519
1.16,31814.4,34622.0,-0.7104,-0.9289,142.3,97.0,0.519
1.18,31708.2,34465.1,-1.1175,-1.3148,142.3,97.0,0.519
1.2,31749.0,34470.5,-0.9609,-1.3015,142.3,97.0,0.519
1.22,31707.4,34468.1,-1.1206,-1.3074,142.3,97.0,0.519
1.24,31870.4,34742.9,-0.4956,-0.6318,142.3,97.0,0.519
1.26,31975.5,35079.5,-0.0923,0.1957,142.3,97.0,0.519
1.28,32150.8,35404.6,0.5801,0.9947,142.3,97.0,0.519
1.3,32290.6,35640.6,1.1164,1.575,142.3,97.0,0.519
1.32,32382.3,35707.1,1.4682,1.7384,142.3,97.0,0.519
1.34,32344.8,35574.9,1.3243,1.4134,142.3,97.0,0.519
1.36,32261.8,35444.9,1.006,1.0939,142.3,97.0,0.519
1.38,32122.6,35242.6,0.4717,0.5966,142.3,97.0,0.519
1.4,32101.9,35161.9,0.3927,0.3982,142.3,97.0,0.519
1.42,32022.5,35036.9,0.0881,0.0908,142.3,97.0,0.519
1.44,31967.3,35069.8,-0.1238,0.1719,142.3,97.0,0.519
1.46,31971.6,34927.1,-0.1074,-0.1789,142.3,97.0,0.519
1.48,31909.4,34917.0,-0.3456,-0.204,142.3,97.0,0.519
1.5,31860.5,34680.0,-0.5332,-0.7863,142.3,97.0,0.519
1.52,31822.9,34653.4,-0.6775,-0.8518,142.3,97.0,0.519
1.54,31858.2,34635.8,-0.5424,-0.8952,142.3,97.0,0.519
1.56,31761.1,34643.6,-0.9147,-0.8761,142.3,97.0,0.519
1.58,31812.0,34602.1,-0.7195,-0.9779,142.3,97.0,0.519
1.6,31807.1,34513.1,-0.738,-1.1967,142.3,97.0,0.519
1.62,31722.6,34418.3,-1.0622,-1.4299,142.3,97.0,0.519
1.64,31781.2,34476.5,-0.8377,-1.2867,142.3,97.0,0.519
1.66,31857.8,34567.9,-0.5437,-1.062,142.3,97.0,0.519
1.68,32004.5,35016.5,0.0191,0.0406,142.3,97.0,0.519
1.7,32225.0,35438.6,0.8646,1.0784,142.3,97.0,0.519
1.72,32344.9,35636.4,1.3248,1.5647,142.3,97.0,0.519
1.74,32360.0,35752.8,1.3825,1.8509,142.3,97.0,0.519
1.76,32343.6,35727.2,1.3197,1.7879,142.3,97.0,0.519
1.78,32253.9,35518.9,0.9755,1.2758,142.3,97.0,0.519
1.8,32203.3,35312.8,0.7816,0.7692,142.3,97.0,0.519
1.82,32015.7,35131.4,0.0618,0.3233,142.3,97.0,0.519
1.84,32078.3,35099.8,0.302,0.2456,142.3,97.0,0.519
1.86,32021.8,35058.6,0.0854,0.1442,142.3,97.0,0.519
1.88,32006.2,34915.4,0.0255,-0.2078,142.3,97.0,0.519
1.9,31951.0,34851.6,-0.1863,-0.3646,142.3,97.0,0.519
1.92,31898.7,34836.9,-0.3867,-0.4008,142.3,97.0,0.519
1.94,31785.3,34770.2,-0.8218,-0.5647,142.3,97.0,0.519
1.96,31852.2,34651.1,-0.5653,-0.8574,142.3,97.0,0.519
1.98,31839.4,34674.4,-0.6143,-0.8002,142.3,97.0,0.519
2.0,31781.9,34612.2,-0.8348,-0.9531,142.3,97.0,0.519
2.02,31765.5,34490.4,-0.8978,-1.2525,142.3,97.0,0.519
2.04,31824.4,34422.7,-0.6719,-1.4191,142.3,97.0,0.519
2.06,31864.4,34501.5,-0.5186,-1.2252,142.3,97.0,0.519
2.08,31804.0,34697.1,-0.7499,-0.7444,142.3,97.0,0.519
2.1,32019.2,34996.6,0.0753,-0.0083,142.3,97.0,0.519
2.12,32123.5,35380.6,0.4753,0.9359,142.3,97.0,0.519
2.14,32256.5,35726.0,0.9856,1.785,142.3,97.0,0.519
2.16,32391.7,35741.1,1.5039,1.8221,142.3,97.0,0.519
2.18,32296.6,35643.2,1.1394,1.5813,142.3,97.0,0.519
2.2,32195.7,35494.0,0.7522,1.2145,142.3,97.0,0.519
2.22,32145.2,35260.3,0.5585,0.6401,142.3,97.0,0.519
2.24,32082.8,35252.6,0.3194,0.6212,142.3,97.0,0.519
2.26,32102.6,35156.9,0.3952,0.3858,142.3,97.0,0.519
2.28,31999.5,35059.4,-0.0004,0.1461,142.3,97.0,0.519
2.3,31927.7,34941.3,-0.2756,-0.1441,142.3,97.0,0.519
2.32,31911.4,34832.1,-0.3383,-0.4126,142.3,97.0,0.519
2.34,31867.5,34722.4,-0.5067,-0.6821,142.3,97.0,0.519
2.36,31902.5,34652.2,-0.3723,-0.8547,142.3,97.0,0.519
2.38,31791.1,34694.8,-0.7995,-0.7501,142.3,97.0,0.519
2.4,31842.2,34670.5,-0.6036,-0.8099,142.3,97.0,0.519
2.42,31779.3,34552.4,-0.8448,-1.1,142.3,97.0,0.519
2.44,31806.4,34555.4,-0.741,-1.0927,142.3,97.0,0.519
2.46,31748.2,34461.1,-0.9642,-1.3245,142.3,97.0,0.519
2.48,31792.5,34563.5,-0.7943,-1.0729,142.3,97.0,0.519
2.5,31916.4,34610.0,-0.319,-0.9586,142.3,97.0,0.519
2.52,31991.9,35091.6,-0.0295,0.2255,142.3,97.0,0.519
2.54,32182.7,35387.2,0.7023,0.9519,142.3,97.0,0.519
2.56,32362.3,35672.6,1.3915,1.6537,142.3,97.0,0.519
2.58,32350.1,35703.5,1.3447,1.7296,142.3,97.0,0.519
2.6,32340.6,35754.1,1.3082,1.854,142.3,97.0,0.519
2.62,32229.0,35504.4,0.88,1.2402,142.3,97.0,0.519
2.64,32229.9,35258.5,0.8836,0.6357,142.3,97.0,0.519
2.66,32012.5,35122.5,0.0498,0.3014,142.3,97.0,0.519
2.68,32026.0,35075.6,0.1016,0.1861,142.3,97.0,0.519
2.7,31991.2,35045.5,-0.0322,0.112,142.3,97.0,0.519
2.72,31937.9,34980.8,-0.2363,-0.0471,142.3,97.0,0.519
2.74,31989.8,34827.2,-0.0374,-0.4246,142.3,97.0,0.519
2.76,31903.8,34732.7,-0.3672,-0.657,142.3,97.0,0.519
2.78,31836.3,34728.1,-0.6262,-0.6682,142.3,97.0,0.519
2.8,31851.1,34647.3,-0.5693,-0.8668,142.3,97.0,0.519
2.82,31793.5,34612.0,-0.7902,-0.9536,142.3,97.0,0.519
2.84,31833.5,34707.2,-0.6368,-0.7197,142.3,97.0,0.519
2.86,31800.3,34525.1,-0.7641,-1.1673,142.3,97.0,0.519
2.88,31746.4,34478.3,-0.9712,-1.2823,142.3,97.0,0.519
2.9,31763.4,34506.3,-0.906,-1.2135,142.3,97.0,0.519
2.92,31856.3,34693.4,-0.5494,-0.7534,142.3,97.0,0.519
2.94,32016.5,34994.5,0.0648,-0.0132,142.3,97.0,0.519
2.96,32137.8,35351.1,0.5301,0.8634,142.3,97.0,0.519
2.98,32206.2,35654.8,0.7924,1.61,142.3,97.0,0.519
3.0,32341.1,35771.2,1.3099,1.8961,142.3,97.0,0.519
3.02,32278.9,35630.9,1.0714,1.5511,142.3,97.0,0.519
3.04,32288.4,35532.7,1.1078,1.3097,142.3,97.0,0.519
3.06,32185.7,35345.0,0.714,0.8483,142.3,97.0,0.519
3.08,32112.4,35189.7,0.4329,0.4665,142.3,97.0,0.519
3.1,32078.0,35157.2,0.3008,0.3867,142.3,97.0,0.519
3.12,32027.6,35162.8,0.1076,0.4005,142.3,97.0,0.519
3.14,31959.1,34979.3,-0.1553,-0.0506,142.3,97.0,0.519
3.16,32013.9,34941.1,0.0549,-0.1446,142.3,97.0,0.519
3.18,31950.9,34763.4,-0.1865,-0.5814,142.3,97.0,0.519
3.2,31842.0,34679.7,-0.6042,-0.7873,142.3,97.0,0.519
3.22,31828.5,34641.5,-0.656,-0.8812,142.3,97.0,0.519
3.24,31793.8,34587.8,-0.7892,-1.0131,142.3,97.0,0.519
3.26,31715.1,34546.8,-1.0912,-1.114,142.3,97.0,0.519
3.28,31744.8,34500.2,-0.9772,-1.2284,142.3,97.0,0.519
3.3,31712.8,34498.7,-1.0998,-1.2322,142.3,97.0,0.519
3.32,31735.0,34470.4,-1.0146,-1.3018,142.3,97.0,0.519
3.34,31880.8,34723.4,-0.4556,-0.6797,142.3,97.0,0.519
3.36,32026.5,34873.9,0.1033,-0.3097,142.3,97.0,0.519
3.38,32076.4,35358.9,0.2947,0.8825,142.3,97.0,0.519
3.4,32312.1,35626.6,1.1987,1.5406,142.3,97.0,0.519
3.42,32322.1,35801.8,1.2371,1.9712,142.3,97.0,0.519
3.44,32401.9,35765.8,1.5433,1.8827,142.3,97.0,0.519
3.46,32184.9,35533.7,0.7107,1.3123,142.3,97.0,0.519
3.48,32096.8,35385.7,0.3731,0.9484,142.3,97.0,0.519
3.5,32160.9,35157.1,0.6188,0.3864,142.3,97.0,0.519
3.52,31983.6,35096.9,-0.0612,0.2385,142.3,97.0,0.519
3.54,32076.1,35077.0,0.2937,0.1894,142.3,97.0,0.519
3.56,32058.4,34961.6,0.2258,-0.0942,142.3,97.0,0.519
3.58,31945.1,34920.6,-0.2089,-0.195,142.3,97.0,0.519
3.6,31910.5,34836.2,-0.3416,-0.4024,142.3,97.0,0.519
3.62,31896.1,34710.5,-0.3967,-0.7115,142.3,97.0,0.519
3.64,31848.7,34607.3,-0.5787,-0.9653,142.3,97.0,0.519
3.66,31839.8,34657.7,-0.6128,-0.8413,142.3,97.0,0.519
3.68,31813.0,34656.8,-0.7155,-0.8435,142.3,97.0,0.519
3.7,31821.6,34604.7,-0.6828,-0.9716,142.3,97.0,0.519
3.72,31745.8,34413.7,-0.9732,-1.4411,142.3,97.0,0.519
3.74,31740.3,34483.5,-0.9942,-1.2694,142.3,97.0,0.519
3.76,31853.6,34470.7,-0.56,-1.3011,142.3,97.0,0.519
3.78,31941.2,34910.6,-0.224,-0.2196,142.3,97.0,0.519
3.8,32070.9,35145.7,0.2737,0.3584,142.3,97.0,0.519
3.82,32265.1,35558.4,1.0183,1.3729,142.3,97.0,0.519
3.84,32328.2,35707.5,1.2604,1.7394,142.3,97.0,0.519
3.86,32341.8,35804.0,1.3128,1.9765,142.3,97.0,0.519
3.88,32240.2,35603.6,0.923,1.484,142.3,97.0,0.519
3.9,32247.1,35367.2,0.9494,0.9029,142.3,97.0,0.519
3.92,32107.1,35229.0,0.4126,0.5633,142.3,97.0,0.519
3.94,32126.2,35029.6,0.4857,0.0729,142.3,97.0,0.519
3.96,32134.9,35122.4,0.5192,0.3011,142.3,97.0,0.519
3.98,31992.1,34920.5,-0.0285,-0.1952,142.3,97.0,0.519
4.0,31975.4,34891.6,-0.0927,-0.2662,142.3,97.0,0.519
4.02,31932.4,34813.4,-0.2576,-0.4585,142.3,97.0,0.519
4.04,31797.2,34728.2,-0.776,-0.6679,142.3,97.0,0.519
4.06,31900.0,34676.1,-0.3817,-0.796,142.3,97.0,0.519
4.08,31842.4,34596.8,-0.6029,-0.9911,142.3,97.0,0.519
4.1,31815.4,34639.6,-0.7062,-0.8859,142.3,97.0,0.519
4.12,31720.6,34611.1,-1.0699,-0.9559,142.3,97.0,0.519
4.14,31707.2,34453.9,-1.1216,-1.3422,142.3,97.0,0.519
4.16,31776.9,34451.7,-0.8542,-1.3478,142.3,97.0,0.519
4.18,31740.5,34724.5,-0.9938,-0.6771,142.3,97.0,0.519
4.2,31927.5,34987.5,-0.2765,-0.0305,142.3,97.0,0.519
4.22,32087.8,35299.0,0.3384,0.7352,142.3,97.0,0.519
4.24,32253.2,35557.7,0.9728,1.3711,142.3,97.0,0.519
4.26,32268.4,35790.8,1.031,1.9441,142.3,97.0,0.519
4.28,32283.4,35668.2,1.0885,1.6428,142.3,97.0,0.519
4.3,32264.8,35542.2,1.0175,1.3332,142.3,97.0,0.519
4.32,32199.0,35345.2,0.7652,0.8487,142.3,97.0,0.519
4.34,32092.5,35110.2,0.3564,0.2712,142.3,97.0,0.519
4.36,32061.8,35150.9,0.2387,0.3711,142.3,97.0,0.519
4.38,32072.3,35127.9,0.2791,0.3146,142.3,97.0,0.519
4.4,31931.2,34935.0,-0.2621,-0.1595,142.3,97.0,0.519
4.42,31992.4,34872.8,-0.0276,-0.3125,142.3,97.0,0.519
4.44,31830.7,34774.5,-0.6478,-0.5541,142.3,97.0,0.519
4.46,31830.9,34705.0,-0.6468,-0.7251,142.3,97.0,0.519
4.48,31871.6,34621.0,-0.491,-0.9316,142.3,97.0,0.519
4.5,31808.3,34561.2,-0.7335,-1.0785,142.3,97.0,0.519
4.52,31892.2,34665.0,-0.4118,-0.8233,142.3,97.0,0.519
4.54,31835.7,34649.9,-0.6285,-0.8605,142.3,97.0,0.519
4.56,31745.5,34413.4,-0.9744,-1.4418,142.3,97.0,0.519
4.58,31807.9,34528.7,-0.7353,-1.1585,142.3,97.0,0.519
4.6,31675.6,34582.6,-1.2427,-1.0259,142.3,97.0,0.519
4.62,31971.1,34884.0,-0.109,-0.2849,142.3,97.0,0.519
4.64,32051.7,35290.2,0.2001,0.7135,142.3,97.0,0.519
4.66,32282.3,35668.4,1.0843,1.6432,142.3,97.0,0.519
4.68,32313.6,35785.3,1.2044,1.9306,142.3,97.0,0.519
4.7,32340.5,35715.4,1.3076,1.7589,142.3,97.0,0.519
4.72,32214.0,35492.3,0.8226,1.2104,142.3,97.0,0.519
4.74,32120.5,35374.0,0.4638,0.9196,142.3,97.0,0.519
4.76,32058.9,35182.2,0.2277,0.448,142.3,97.0,0.519
4.78,32049.2,35099.4,0.1904,0.2445,142.3,97.0,0.519
4.8,32036.9,35009.0,0.1432,0.0223,142.3,97.0,0.519
4.82,31905.0,35005.6,-0.3626,0.0141,142.3,97.0,0.519
4.84,31979.3,34960.2,-0.0778,-0.0977,142.3,97.0,0.519
4.86,31888.0,34758.4,-0.4279,-0.5938,142.3,97.0,0.519
4.88,31880.7,34704.0,-0.4558,-0.7274,142.3,97.0,0.519
4.9,31892.9,34791.1,-0.4089,-0.5134,142.3,97.0,0.519
4.92,31787.2,34663.1,-0.8144,-0.8281,142.3,97.0,0.519
4.94,31805.5,34697.8,-0.7445,-0.7428,142.3,97.0,0.519
4.96,31828.2,34487.2,-0.6573,-1.2604,142.3,97.0,0.519
4.98,31778.2,34424.4,-0.8491,-1.4147,142.3,97.0,0.519
5.0,31771.2,34413.1,-0.8759,-1.4427,142.3,97.0,0.519
5.02,31632.6,34649.8,-1.4075,-0.8607,142.3,97.0,0.519
5.04,31945.0,34904.1,-0.2091,-0.2355,142.3,97.0,0.519
5.06,32076.3,35204.0,0.2942,0.5017,142.3,97.0,0.519
5.08,32209.3,35505.3,0.8046,1.2423,142.3,97.0,0.519
5.1,32341.5,35756.8,1.3113,1.8607,142.3,97.0,0.519
5.12,32311.5,35673.3,1.1965,1.6554,142.3,97.0,0.519
5.14,32262.6,35599.4,1.0091,1.4737,142.3,97.0,0.519
5.16,32192.9,35440.9,0.7417,1.084,142.3,97.0,0.519
5.18,32004.4,35185.9,0.0185,0.4572,142.3,97.0,0.519
5.2,32076.6,35138.4,0.2956,0.3404,142.3,97.0,0.519
5.22,32029.9,35072.9,0.1163,0.1795,142.3,97.0,0.519
5.24,32013.2,34998.2,0.0524,-0.0043,142.3,97.0,0.519
5.26,32019.2,34956.9,0.0754,-0.1057,142.3,97.0,0.519
5.28,31689.9,34878.0,-1.1879,-0.2997,142.3,97.0,0.519
5.3,31867.2,34688.2,-0.5078,-0.7663,142.3,97.0,0.519
5.32,31845.2,34700.0,-0.5921,-0.7372,142.3,97.0,0.519
5.34,31851.6,34704.8,-0.5676,-0.7254,142.3,97.0,0.519
5.36,31877.3,34669.2,-0.4688,-0.813,142.3,97.0,0.519
5.38,31774.1,34540.5,-0.8649,-1.1294,142.3,97.0,0.519
5.4,31670.3,34527.3,-1.2629,-1.1617,142.3,97.0,0.519
5.42,31760.5,34452.1,-0.9169,-1.3467,142.3,97.0,0.519
5.44,31824.5,34518.5,-0.6716,-1.1835,142.3,97.0,0.519
5.46,31821.5,34839.7,-0.6829,-0.3939,142.3,97.0,0.519
5.48,32053.3,35219.6,0.2063,0.5401,142.3,97.0,0.519
5.5,32219.3,35572.4,0.8427,1.4073,142.3,97.0,0.519
5.52,32370.5,35704.6,1.4227,1.7324,142.3,97.0,0.519
5.54,32289.4,35715.5,1.1117,1.7592,142.3,97.0,0.519
5.56,32314.2,35605.2,1.2069,1.488,142.3,97.0,0.519
5.58,32163.5,35407.1,0.6288,1.0009,142.3,97.0,0.519
5.6,32080.0,35246.3,0.3085,0.6056,142.3,97.0,0.519
5.62,32032.3,35115.4,0.1257,0.2838,142.3,97.0,0.519
5.64,32037.1,35150.3,0.1438,0.3696,142.3,97.0,0.519
5.66,31956.2,35012.4,-0.1663,0.0307,142.3,97.0,0.519
5.68,31986.7,34895.6,-0.0493,-0.2564,142.3,97.0,0.519
5.7,31906.1,34777.2,-0.3583,-0.5475,142.3,97.0,0.519
5.72,31924.4,34734.9,-0.2884,-0.6515,142.3,97.0,0.519
5.74,31849.4,34738.1,-0.5758,-0.6435,142.3,97.0,0.519
5.76,31833.0,34664.3,-0.6387,-0.8252,142.3,97.0,0.519
5.78,31801.6,34636.9,-0.7593,-0.8924,142.3,97.0,0.519
5.8,31793.3,34475.7,-0.7913,-1.2886,142.3,97.0,0.519
5.82,31643.5,34545.1,-1.3656,-1.1181,142.3,97.0,0.519
5.84,31797.6,34407.6,-0.7748,-1.4561,142.3,97.0,0.519
5.86,31764.6,34500.4,-0.9013,-1.2281,142.3,97.0,0.519
5.88,31903.3,34809.5,-0.3692,-0.4681,142.3,97.0,0.519
5.9,32028.2,35111.3,0.11,0.2738,142.3,97.0,0.519
5.92,32225.7,35501.4,0.8674,1.2329,142.3,97.0,0.519
5.94,32404.9,35681.0,1.5546,1.6744,142.3,97.0,0.519
5.96,32348.2,35792.5,1.3371,1.9485,142.3,97.0,0.519
5.98,32325.7,35587.6,1.2509,1.4446,142.3,97.0,0.519
6.0,32187.0,35423.0,0.7191,1.0399,142.3,97.0,0.519
6.02,32225.9,35281.9,0.8682,0.6932,142.3,97.0,0.519
6.04,32093.1,35090.8,0.3588,0.2234,142.3,97.0,0.519
6.06,32030.4,35161.6,0.1181,0.3975,142.3,97.0,0.519
6.08,32033.6,35030.4,0.1305,0.075,142.3,97.0,0.519
6.1,31977.0,34911.5,-0.0867,-0.2173,142.3,97.0,0.519
6.12,31986.1,34904.8,-0.0516,-0.2337,142.3,97.0,0.519
6.14,31864.1,34758.5,-0.5194,-0.5936,142.3,97.0,0.519
6.16,31863.5,34703.5,-0.5218,-0.7288,142.3,97.0,0.519
6.18,31851.3,34618.9,-0.5687,-0.9366,142.3,97.0,0.519
6.2,31870.2,34642.5,-0.4963,-0.8787,142.3,97.0,0.519
6.22,31814.6,34604.8,-0.7095,-0.9714,142.3,97.0,0.519
6.24,31826.3,34534.0,-0.6647,-1.1454,142.3,97.0,0.519
6.26,31772.8,34465.0,-0.8697,-1.3149,142.3,97.0,0.519
6.28,31838.3,34548.5,-0.6186,-1.1096,142.3,97.0,0.519
6.3,31871.2,34742.2,-0.4924,-0.6336,142.3,97.0,0.519
6.32,32073.8,35137.0,0.2849,0.3369,142.3,97.0,0.519
6.34,32181.7,35498.2,0.6985,1.2249,142.3,97.0,0.519
6.36,32262.5,35731.5,1.0087,1.7984,142.3,97.0,0.519
6.38,32463.9,35822.0,1.781,2.0208,142.3,97.0,0.519
6.4,32310.5,35628.7,1.1928,1.5456,142.3,97.0,0.519
6.42,32142.4,35465.3,0.5479,1.144,142.3,97.0,0.519
6.44,32070.4,35276.6,0.2718,0.6802,142.3,97.0,0.519
6.46,32159.7,35174.1,0.6141,0.4281,142.3,97.0,0.519
6.48,31998.4,35160.4,-0.0043,0.3944,142.3,97.0,0.519
6.5,31957.9,34982.6,-0.1599,-0.0426,142.3,97.0,0.519
6.52,32036.9,34907.3,0.1434,-0.2278,142.3,97.0,0.519
6.54,31833.5,34814.8,-0.6369,-0.4552,142.3,97.0,0.519
6.56,31817.0,34724.7,-0.7003,-0.6767,142.3,97.0,0.519
6.58,31827.9,34666.9,-0.6583,-0.8187,142.3,97.0,0.519
6.6,31753.7,34705.6,-0.943,-0.7235,142.3,97.0,0.519
6.62,31860.6,34599.6,-0.5329,-0.984,142.3,97.0,0.519
6.64,31849.1,34548.3,-0.5771,-1.1102,142.3,97.0,0.519
6.66,31756.6,34464.8,-0.9319,-1.3156,142.3,97.0,0.519
6.68,31696.1,34405.6,-1.1639,-1.4611,142.3,97.0,0.519
6.7,31801.5,34457.6,-0.7598,-1.3332,142.3,97.0,0.519
6.72,31894.1,34717.9,-0.4047,-0.6934,142.3,97.0,0.519
6.74,32093.3,35043.2,0.3594,0.1065,142.3,97.0,0.519
6.76,32195.4,35438.3,0.7512,1.0776,142.3,97.0,0.519
6.78,32284.6,35722.4,1.0933,1.7762,142.3,97.0,0.519
6.8,32374.3,35735.3,1.4375,1.8077,142.3,97.0,0.519
6.82,32339.7,35588.9,1.3047,1.4478,142.3,97.0,0.519
6.84,32309.6,35473.5,1.1891,1.1643,142.3,97.0,0.519
6.86,32141.1,35327.3,0.543,0.8047,142.3,97.0,0.519
6.88,32126.0,35190.0,0.485,0.4672,142.3,97.0,0.519
6.9,32018.0,35101.3,0.0707,0.2493,142.3,97.0,0.519
6.92,32116.4,34942.9,0.4481,-0.1401,142.3,97.0,0.519
6.94,31978.6,34977.8,-0.0806,-0.0543,142.3,97.0,0.519
6.96,31879.4,34781.2,-0.4607,-0.5376,142.3,97.0,0.519
6.98,31846.6,34734.4,-0.5865,-0.6528,142.3,97.0,0.519
7.0,31844.0,34685.0,-0.5967,-0.7741,142.3,97.0,0.519
7.02,31882.9,34640.0,-0.4474,-0.8848,142.3,97.0,0.519
7.04,31775.4,34723.7,-0.8596,-0.6789,142.3,97.0,0.519
7.06,31829.0,34651.8,-0.6541,-0.8558,142.3,97.0,0.519
7.08,31775.6,34538.8,-0.8588,-1.1335,142.3,97.0,0.519
7.1,31746.7,34437.5,-0.97,-1.3826,142.3,97.0,0.519
7.12,31759.7,34465.3,-0.9199,-1.3143,142.3,97.0,0.519
7.14,31858.4,34712.0,-0.5414,-0.7079,142.3,97.0,0.519
7.16,32049.3,35040.2,0.1909,0.099,142.3,97.0,0.519
7.18,32243.7,35417.6,0.9365,1.0269,142.3,97.0,0.519
7.2,32328.7,35707.0,1.2625,1.7381,142.3,97.0,0.519
7.22,32290.5,35841.9,1.1158,2.0697,142.3,97.0,0.519
7.24,32322.4,35668.8,1.2382,1.6442,142.3,97.0,0.519
7.26,32170.0,35426.2,0.6537,1.0479,142.3,97.0,0.519
7.28,32173.5,35229.9,0.6673,0.5653,142.3,97.0,0.519
7.3,32041.5,35171.4,0.1608,0.4217,142.3,97.0,0.519
7.32,32009.2,35087.3,0.037,0.2147,142.3,97.0,0.519
7.34,32043.6,34997.4,0.1691,-0.0062,142.3,97.0,0.519
7.36,32013.0,35034.5,0.0515,0.0851,142.3,97.0,0.519
7.38,31996.1,34864.5,-0.0132,-0.3329,142.3,97.0,0.519
7.4,31960.2,34741.8,-0.1511,-0.6346,142.3,97.0,0.519
7.42,31871.2,34728.6,-0.4922,-0.6671,142.3,97.0,0.519
7.44,31822.3,34612.9,-0.6801,-0.9515,142.3,97.0,0.519
7.46,31748.7,34675.5,-0.9622,-0.7975,142.3,97.0,0.519
7.48,31804.2,34494.5,-0.7493,-1.2426,142.3,97.0,0.519
7.5,31745.9,34439.2,-0.9728,-1.3783,142.3,97.0,0.519
7.52,31738.3,34485.7,-1.0022,-1.2642,142.3,97.0,0.519
7.54,31763.4,34494.7,-0.9057,-1.2419,142.3,97.0,0.519
7.56,31850.8,34713.0,-0.5704,-0.7054,142.3,97.0,0.519
7.58,31988.7,35024.8,-0.0416,0.0612,142.3,97.0,0.519
7.6,32125.1,35466.0,0.4815,1.1457,142.3,97.0,0.519
7.62,32288.3,35643.8,1.1077,1.5827,142.3,97.0,0.519
7.64,32361.3,35747.5,1.3877,1.8378,142.3,97.0,0.519
7.66,32256.1,35699.1,0.9842,1.7188,142.3,97.0,0.519
7.68,32203.5,35435.5,0.7822,1.0707,142.3,97.0,0.519
7.7,32152.9,35269.9,0.588,0.6636,142.3,97.0,0.519
7.72,32040.0,35121.2,0.1552,0.2981,142.3,97.0,0.519
7.74,32105.1,35053.4,0.4046,0.1314,142.3,97.0,0.519
7.76,32046.5,34966.8,0.1801,-0.0813,142.3,97.0,0.519
7.78,32026.1,34965.7,0.1018,-0.0841,142.3,97.0,0.519
7.8,31832.2,34859.2,-0.6418,-0.3459,142.3,97.0,0.519
7.82,31864.6,34831.2,-0.5177,-0.4148,142.3,97.0,0.519
7.84,31792.6,34709.4,-0.7937,-0.7142,142.3,97.0,0.519
7.86,31744.7,34695.3,-0.9776,-0.7489,142.3,97.0,0.519
7.88,31860.8,34736.4,-0.5322,-0.6477,142.3,97.0,0.519
7.9,31863.0,34548.0,-0.5239,-1.1109,142.3,97.0,0.519
7.92,31748.3,34507.3,-0.9637,-1.211,142.3,97.0,0.519
7.94,31732.8,34419.1,-1.0231,-1.4278,142.3,97.0,0.519
7.96,31760.0,34564.0,-0.9189,-1.0717,142.3,97.0,0.519
7.98,31855.2,34664.5,-0.5538,-0.8245,142.3,97.0,0.519
8.0,31934.1,34944.1,-0.2512,-0.1373,142.3,97.0,0.519
8.02,32154.2,35397.4,0.5933,0.977,142.3,97.0,0.519
8.04,32315.6,35721.0,1.2122,1.7726,142.3,97.0,0.519
8.06,32373.9,35795.4,1.4359,1.9556,142.3,97.0,0.519
8.08,32339.5,35623.4,1.3039,1.5327,142.3,97.0,0.519
8.1,32248.5,35489.0,0.9549,1.2022,142.3,97.0,0.519
8.12,32173.5,35355.6,0.667,0.8743,142.3,97.0,0.519
8.14,32052.5,35110.7,0.2032,0.2723,142.3,97.0,0.519
8.16,32088.3,35071.0,0.3404,0.1748,142.3,97.0,0.519
8.18,31990.4,35127.0,-0.035,0.3125,142.3,97.0,0.519
8.2,32074.4,34906.5,0.2871,-0.2297,142.3,97.0,0.519
8.22,31950.7,34858.8,-0.1874,-0.347,142.3,97.0,0.519
8.24,31843.0,34765.3,-0.6003,-0.5769,142.3,97.0,0.519
8.26,31877.4,34707.5,-0.4684,-0.719,142.3,97.0,0.519
8.28,31853.4,34644.4,-0.5606,-0.8739,142.3,97.0,0.519
8.3,31736.5,34581.0,-1.0089,-1.0299,142.3,97.0,0.519
8.32,31828.7,34663.2,-0.6552,-0.8279,142.3,97.0,0.519
8.34,31865.5,34526.2,-0.5143,-1.1646,142.3,97.0,0.519
8.36,31741.8,34406.6,-0.9886,-1.4586,142.3,97.0,0.519
8.38,31739.5,34490.8,-0.9975,-1.2515,142.3,97.0,0.519
8.4,31802.0,34664.2,-0.7578,-0.8254,142.3,97.0,0.519
8.42,32045.4,34987.3,0.1757,-0.0309,142.3,97.0,0.519
8.44,32165.7,35419.5,0.6374,1.0315,142.3,97.0,0.519
8.46,32294.5,35596.4,1.1312,1.4664,142.3,97.0,0.519
8.48,32405.1,35695.4,1.5554,1.7097,142.3,97.0,0.519
8.5,32337.7,35713.6,1.2971,1.7545,142.3,97.0,0.519
8.52,32256.0,35501.8,0.9837,1.2339,142.3,97.0,0.519
8.54,32161.5,35346.1,0.621,0.8511,142.3,97.0,0.519
8.56,32058.7,35120.5,0.2267,0.2964,142.3,97.0,0.519
8.58,32065.3,35164.2,0.2522,0.4038,142.3,97.0,0.519
8.6,31876.6,35201.1,-0.4717,0.4945,142.3,97.0,0.519
8.62,32056.1,35025.3,0.2168,0.0624,142.3,97.0,0.519
8.64,32012.0,34905.7,0.0478,-0.2315,142.3,97.0,0.519
8.66,31928.8,34813.1,-0.2713,-0.4593,142.3,97.0,0.519
8.68,31879.7,34675.2,-0.4596,-0.7983,142.3,97.0,0.519
8.7,31849.6,34713.2,-0.5751,-0.7049,142.3,97.0,0.519
8.72,31764.0,34623.6,-0.9034,-0.9251,142.3,97.0,0.519
8.74,31807.1,34510.5,-0.7383,-1.2032,142.3,97.0,0.519
8.76,31716.8,34521.8,-1.0845,-1.1755,142.3,97.0,0.519
8.78,31621.4,34498.5,-1.4504,-1.2327,142.3,97.0,0.519
8.8,31704.6,34441.0,-1.1314,-1.3739,142.3,97.0,0.519
8.82,31842.7,34664.5,-0.6015,-0.8246,142.3,97.0,0.519
8.84,31896.6,34912.6,-0.395,-0.2146,142.3,97.0,0.519
8.86,32247.4,35317.9,0.9507,0.7816,142.3,97.0,0.519
8.88,32308.1,35595.8,1.1834,1.4649,142.3,97.0,0.519
8.9,32384.2,35664.3,1.4754,1.6332,142.3,97.0,0.519
8.92,32279.2,35717.3,1.0726,1.7636,142.3,97.0,0.519
8.94,32281.2,35501.6,1.0802,1.2333,142.3,97.0,0.519
8.96,32147.2,35376.5,0.5661,0.9258,142.3,97.0,0.519
8.98,32165.2,35306.4,0.6354,0.7533,142.3,97.0,0.519
9.0,32068.9,35144.4,0.2659,0.3553,142.3,97.0,0.519
9.02,32012.0,35098.7,0.0478,0.2428,142.3,97.0,0.519
9.04,32073.8,35060.5,0.2846,0.149,142.3,97.0,0.519
9.06,31909.6,34897.4,-0.3452,-0.2521,142.3,97.0,0.519
9.08,31989.8,34708.8,-0.0375,-0.7157,142.3,97.0,0.519
9.1,31807.4,34664.8,-0.7371,-0.8238,142.3,97.0,0.519
9.12,31778.3,34715.8,-0.8487,-0.6985,142.3,97.0,0.519
9.14,31822.5,34598.3,-0.679,-0.9873,142.3,97.0,0.519
9.16,31804.2,34714.2,-0.7492,-0.7023,142.3,97.0,0.519
9.18,31690.7,34605.1,-1.1846,-0.9707,142.3,97.0,0.519
9.2,31715.6,34499.4,-1.089,-1.2303,142.3,97.0,0.519
9.22,31674.1,34354.5,-1.2481,-1.5866,142.3,97.0,0.519
9.24,31815.8,34661.2,-0.7046,-0.8327,142.3,97.0,0.519
9.26,31999.8,34881.4,0.001,-0.2914,142.3,97.0,0.519
9.28,32144.8,35244.0,0.557,0.6001,142.3,97.0,0.519
9.3,32396.7,35585.0,1.5233,1.4384,142.3,97.0,0.519
9.32,32333.8,35734.9,1.2819,1.8067,142.3,97.0,0.519
9.34,32353.5,35730.5,1.3576,1.796,142.3,97.0,0.519
9.36,32272.6,35546.6,1.0472,1.3438,142.3,97.0,0.519
9.38,32152.8,35291.7,0.5876,0.7173,142.3,97.0,0.519
9.4,32193.3,35191.2,0.743,0.4703,142.3,97.0,0.519
9.42,32090.1,35102.6,0.3473,0.2525,142.3,97.0,0.519
9.44,32075.4,35024.4,0.2907,0.0601,142.3,97.0,0.519
9.46,31936.8,35109.9,-0.2408,0.2703,142.3,97.0,0.519
9.48,31908.7,34933.1,-0.3486,-0.1643,142.3,97.0,0.519
9.5,31895.2,34768.3,-0.4004,-0.5695,142.3,97.0,0.519
9.52,31884.3,34692.9,-0.4421,-0.7548,142.3,97.0,0.519
9.54,31886.5,34658.7,-0.4336,-0.8387,142.3,97.0,0.519
9.56,31866.4,34579.7,-0.5107,-1.0331,142.3,97.0,0.519
9.58,31762.2,34592.0,-0.9102,-1.0027,142.3,97.0,0.519
9.6,31839.5,34673.0,-0.6141,-0.8037,142.3,97.0,0.519
9.62,31816.3,34447.5,-0.7031,-1.358,142.3,97.0,0.519
9.64,31800.6,34469.4,-0.7631,-1.3042,142.3,97.0,0.519
9.66,31846.2,34559.4,-0.5883,-1.083,142.3,97.0,0.519
9.68,31941.2,34876.5,-0.2239,-0.3033,142.3,97.0,0.519
9.7,32104.1,35302.8,0.4008,0.7445,142.3,97.0,0.519
9.72,32291.4,35574.5,1.1193,1.4125,142.3,97.0,0.519
9.74,32387.2,35788.5,1.4869,1.9385,142.3,97.0,0.519
9.76,32373.5,35734.6,1.4344,1.806,142.3,97.0,0.519
9.78,32208.0,35614.3,0.7995,1.5104,142.3,97.0,0.519
9.8,32085.7,35326.8,0.3303,0.8037,142.3,97.0,0.519
9.82,32046.9,35175.2,0.1817,0.431,142.3,97.0,0.519
9.84,32088.6,35157.5,0.3415,0.3874,142.3,97.0,0.519
9.86,32083.9,35012.7,0.3233,0.0314,142.3,97.0,0.519
9.88,31966.4,34990.8,-0.127,-0.0224,142.3,97.0,0.519
9.9,31972.8,34912.6,-0.1027,-0.2148,142.3,97.0,0.519
9.92,32003.2,34766.4,0.0141,-0.574,142.3,97.0,0.519
9.94,31839.5,34738.3,-0.614,-0.6431,142.3,97.0,0.519
9.96,31707.5,34602.4,-1.1203,-0.9773,142.3,97.0,0.519
9.98,31804.4,34715.7,-0.7486,-0.6986,142.3,97.0,0.519
10.0,31777.0,34535.1,-0.8535,-1.1428,142.3,97.0,0.519
10.02,31669.3,34680.4,-1.2667,-0.7856,142.3,97.0,0.519
10.04,31793.5,34413.0,-0.7902,-1.4428,142.3,97.0,0.519
10.06,31670.5,34425.4,-1.2621,-1.4122,142.3,97.0,0.519
10.08,31718.4,34620.3,-1.0782,-0.9332,142.3,97.0,0.519
10.1,31835.2,34912.1,-0.6303,-0.2158,142.3,97.0,0.519
10.12,32125.0,35217.1,0.4812,0.5339,142.3,97.0,0.519
10.14,32275.8,35525.7,1.0597,1.2924,142.3,97.0,0.519
10.16,32408.5,35795.9,1.5684,1.9568,142.3,97.0,0.519
10.18,32359.2,35765.8,1.3792,1.8829,142.3,97.0,0.519
10.2,32264.2,35619.2,1.0151,1.5223,142.3,97.0,0.519
10.22,32126.3,35368.7,0.486,0.9065,142.3,97.0,0.519
10.24,32101.5,35255.8,0.3909,0.629,142.3,97.0,0.519
10.26,32083.4,35135.0,0.3215,0.332,142.3,97.0,0.519
10.28,32051.2,35021.6,0.1982,0.0534,142.3,97.0,0.519
10.3,32019.3,35070.3,0.0758,0.1731,142.3,97.0,0.519
10.32,31894.5,34849.2,-0.4031,-0.3705,142.3,97.0,0.519
10.34,31944.3,34731.1,-0.2119,-0.6608,142.3,97.0,0.519
10.36,31852.1,34695.7,-0.5657,-0.7479,142.3,97.0,0.519
10.38,31778.3,34705.0,-0.8486,-0.7249,142.3,97.0,0.519
10.4,31859.2,34702.8,-0.5383,-0.7304,142.3,97.0,0.519
10.42,31831.6,34675.0,-0.6442,-0.7988,142.3,97.0,0.519
10.44,31824.0,34594.5,-0.6735,-0.9965,142.3,97.0,0.519
10.46,31780.5,34435.9,-0.8401,-1.3865,142.3,97.0,0.519
10.48,31784.6,34443.8,-0.8244,-1.3671,142.3,97.0,0.519
10.5,31780.2,34478.3,-0.8414,-1.2823,142.3,97.0,0.519
10.52,31946.0,34735.7,-0.2056,-0.6495,142.3,97.0,0.519
10.54,32112.2,35245.7,0.432,0.6041,142.3,97.0,0.519
10.56,32343.0,35526.4,1.3171,1.2942,142.3,97.0,0.519
10.58,32328.2,35630.6,1.2607,1.5504,142.3,97.0,0.519
10.6,32309.6,35721.5,1.1893,1.7738,142.3,97.0,0.519
10.62,32274.2,35573.8,1.0532,1.4108,142.3,97.0,0.519
10.64,32228.3,35469.2,0.8772,1.1536,142.3,97.0,0.519
10.66,32107.8,35218.3,0.4151,0.5369,142.3,97.0,0.519
10.68,32047.1,35161.9,0.1825,0.3981,142.3,97.0,0.519
10.7,32048.4,35055.6,0.1874,0.1368,142.3,97.0,0.519
10.72,31960.2,35001.9,-0.1508,0.005,142.3,97.0,0.519
10.74,32101.0,35004.4,0.3892,0.011,142.3,97.0,0.519
10.76,31928.0,34800.4,-0.2745,-0.4905,142.3,97.0,0.519
10.78,31863.5,34725.7,-0.522,-0.674,142.3,97.0,0.519
10.8,31781.9,34723.9,-0.835,-0.6785,142.3,97.0,0.519
10.82,31820.2,34662.7,-0.6879,-0.8289,142.3,97.0,0.519
10.84,31852.0,34619.1,-0.5658,-0.9362,142.3,97.0,0.519
10.86,31713.0,34498.7,-1.0989,-1.2321,142.3,97.0,0.519
10.88,31680.5,34369.2,-1.2236,-1.5504,142.3,97.0,0.519
10.9,31827.0,34510.3,-0.6617,-1.2036,142.3,97.0,0.519
10.92,31861.0,34532.4,-0.5314,-1.1494,142.3,97.0,0.519
10.94,31855.0,34846.4,-0.5544,-0.3774,142.3,97.0,0.519
10.96,32182.6,35161.2,0.7022,0.3964,142.3,97.0,0.519
10.98,32368.4,35525.0,1.4148,1.2909,142.3,97.0,0.519
11.0,32318.4,35723.4,1.2229,1.7786,142.3,97.0,0.519
11.02,32352.9,35755.9,1.3552,1.8585,142.3,97.0,0.519
11.04,32240.4,35635.0,0.9236,1.5611,142.3,97.0,0.519
11.06,32180.8,35402.2,0.6951,0.989,142.3,97.0,0.519
11.08,32161.4,35210.7,0.6206,0.5181,142.3,97.0,0.519
11.1,32183.9,35125.7,0.707,0.3092,142.3,97.0,0.519
11.12,32002.2,35007.9,0.0103,0.0197,142.3,97.0,0.519
11.14,32005.9,35022.4,0.0242,0.0553,142.3,97.0,0.519
11.16,31959.5,34855.5,-0.1536,-0.355,142.3,97.0,0.519
11.18,31943.2,34799.2,-0.2162,-0.4934,142.3,97.0,0.519
11.2,31776.7,34765.1,-0.8549,-0.5774,142.3,97.0,0.519
11.22,31820.2,34675.9,-0.6878,-0.7965,142.3,97.0,0.519
11.24,31847.9,34657.4,-0.5816,-0.8419,142.3,97.0,0.519
11.26,31803.6,34641.3,-0.7516,-0.8817,142.3,97.0,0.519
11.28,31717.2,34561.8,-1.0831,-1.077,142.3,97.0,0.519
11.3,31740.7,34502.7,-0.993,-1.2224,142.3,97.0,0.519
11.32,31744.1,34511.7,-0.9798,-1.2002,142.3,97.0,0.519
11.34,31794.8,34422.0,-0.7855,-1.4207,142.3,97.0,0.519
11.36,31927.5,34795.9,-0.2764,-0.5016,142.3,97.0,0.519
11.38,32079.6,35138.0,0.3069,0.3395,142.3,97.0,0.519
11.4,32246.5,35469.7,0.9471,1.1547,142.3,97.0,0.519
11.42,32321.3,35744.5,1.2342,1.8303,142.3,97.0,0.519
11.44,32397.0,35798.5,1.5243,1.9632,142.3,97.0,0.519
11.46,32350.3,35671.1,1.3454,1.6501,142.3,97.0,0.519
11.48,32143.9,35486.0,0.5537,1.1949,142.3,97.0,0.519
11.5,32092.9,35236.6,0.3579,0.5819,142.3,97.0,0.519
11.52,31998.6,35172.4,-0.0038,0.424,142.3,97.0,0.519
11.54,32085.2,35057.3,0.3286,0.141,142.3,97.0,0.519
11.56,32077.2,34961.8,0.298,-0.0938,142.3,97.0,0.519
11.58,31932.2,34977.6,-0.2583,-0.0548,142.3,97.0,0.519
11.6,31946.6,34899.9,-0.203,-0.2458,142.3,97.0,0.519
11.62,31842.4,34708.6,-0.603,-0.7162,142.3,97.0,0.519
11.64,31917.5,34750.2,-0.3146,-0.6138,142.3,97.0,0.519
11.66,31814.2,34616.2,-0.711,-0.9433,142.3,97.0,0.519
11.68,31780.2,34566.4,-0.8415,-1.0657,142.3,97.0,0.519
11.7,31775.5,34575.1,-0.8593,-1.0445,142.3,97.0,0.519
11.72,31727.9,34405.9,-1.0421,-1.4603,142.3,97.0,0.519
11.74,31765.3,34446.2,-0.8985,-1.3612,142.3,97.0,0.519
11.76,31783.4,34556.2,-0.8292,-1.0908,142.3,97.0,0.519
11.78,31866.5,34813.2,-0.5103,-0.459,142.3,97.0,0.519
11.8,32053.0,35153.6,0.205,0.3777,142.3,97.0,0.519
11.82,32268.9,35442.3,1.033,1.0874,142.3,97.0,0.519
11.84,32326.8,35786.6,1.2552,1.9339,142.3,97.0,0.519
11.86,32375.4,35714.1,1.4417,1.7558,142.3,97.0,0.519
11.88,32336.3,35664.8,1.2918,1.6346,142.3,97.0,0.519
11.9,32169.0,35391.2,0.65,0.9618,142.3,97.0,0.519
11.92,32131.3,35219.9,0.5054,0.5408,142.3,97.0,0.519
11.94,31894.2,35072.8,-0.4041,0.1792,142.3,97.0,0.519
11.96,32033.4,35150.8,0.1298,0.371,142.3,97.0,0.519
11.98,31974.9,34981.2,-0.0945,-0.0461,142.3,97.0,0.519
12.0,31937.2,34910.3,-0.2392,-0.2204,142.3,97.0,0.519
12.02,31968.3,34851.3,-0.1198,-0.3654,142.3,97.0,0.519
12.04,31966.6,34773.8,-0.1265,-0.556,142.3,97.0,0.519
12.06,31899.6,34742.5,-0.3835,-0.6328,142.3,97.0,0.519
12.08,31879.3,34681.7,-0.4611,-0.7823,142.3,97.0,0.519
12.1,31899.8,34664.0,-0.3825,-0.8258,142.3,97.0,0.519
12.12,31755.3,34587.7,-0.9367,-1.0134,142.3,97.0,0.519
12.14,31812.3,34511.1,-0.7183,-1.2018,142.3,97.0,0.519
12.16,31711.1,34410.8,-1.1065,-1.4482,142.3,97.0,0.519
12.18,31768.4,34560.6,-0.8868,-1.08,142.3,97.0,0.519
12.2,31816.5,34848.5,-0.7023,-0.3723,142.3,97.0,0.519
12.22,31985.0,35102.0,-0.0557,0.251,142.3,97.0,0.519
12.24,32252.6,35473.5,0.9704,1.1641,142.3,97.0,0.519
12.26,32272.8,35616.8,1.0481,1.5164,142.3,97.0,0.519
12.28,32421.2,35786.6,1.6171,1.934,142.3,97.0,0.519
12.3,32364.4,35718.8,1.3993,1.7671,142.3,97.0,0.519
12.32,32244.5,35404.6,0.9394,0.9947,142.3,97.0,0.519
12.34,32130.6,35190.6,0.5025,0.4688,142.3,97.0,0.519
12.36,32183.0,35229.2,0.7036,0.5636,142.3,97.0,0.519
12.38,32011.0,35088.9,0.0439,0.2187,142.3,97.0,0.519
12.4,32025.4,35089.8,0.0992,0.2209,142.3,97.0,0.519
12.42,31954.6,34940.2,-0.1725,-0.1468,142.3,97.0,0.519
12.44,31871.2,34889.9,-0.4924,-0.2706,142.3,97.0,0.519
12.46,31839.1,34680.7,-0.6153,-0.7847,142.3,97.0,0.519
12.48,31893.9,34727.1,-0.4051,-0.6708,142.3,97.0,0.519
12.5,31904.0,34616.5,-0.3666,-0.9425,142.3,97.0,0.519
12.52,31841.1,34700.1,-0.6076,-0.737,142.3,97.0,0.519
12.54,31732.4,34590.2,-1.0247,-1.0071,142.3,97.0,0.519
12.56,31793.0,34545.4,-0.7923,-1.1173,142.3,97.0,0.519
12.58,31770.4,34448.5,-0.879,-1.3555,142.3,97.0,0.519
12.6,31834.9,34404.3,-0.6316,-1.4642,142.3,97.0,0.519
12.62,31890.6,34674.4,-0.4179,-0.8002,142.3,97.0,0.519
12.64,32021.2,35124.9,0.083,0.3073,142.3,97.0,0.519
12.66,32058.5,35486.8,0.226,1.1969,142.3,97.0,0.519
12.68,32381.9,35714.7,1.4665,1.7571,142.3,97.0,0.519
12.7,32361.2,35835.8,1.387,2.0549,142.3,97.0,0.519
12.72,32307.0,35691.6,1.1792,1.7004,142.3,97.0,0.519
12.74,32268.0,35419.8,1.0295,1.0322,142.3,97.0,0.519
12.76,32146.1,35305.7,0.5622,0.7517,142.3,97.0,0.519
12.78,31984.2,35196.4,-0.0588,0.483,142.3,97.0,0.519
12.8,31997.1,35059.8,-0.0093,0.1473,142.3,97.0,0.519
12.82,31954.3,35124.4,-0.1735,0.306,142.3,97.0,0.519
12.84,31888.5,34887.7,-0.4258,-0.2758,142.3,97.0,0.519
12.86,31984.6,34853.4,-0.0576,-0.3601,142.3,97.0,0.519
12.88,31880.1,34774.8,-0.4583,-0.5534,142.3,97.0,0.519
12.9,31853.4,34667.5,-0.5605,-0.8171,142.3,97.0,0.519
12.92,31815.4,34736.2,-0.7064,-0.6484,142.3,97.0,0.519
12.94,31804.5,34632.7,-0.7481,-0.9026,142.3,97.0,0.519
12.96,31703.2,34613.9,-1.1365,-0.9489,142.3,97.0,0.519
12.98,31710.9,34604.0,-1.1073,-0.9733,142.3,97.0,0.519
13.0,31697.4,34485.1,-1.1591,-1.2655,142.3,97.0,0.519
13.02,31715.7,34532.5,-1.0887,-1.149,142.3,97.0,0.519
13.04,31819.7,34693.5,-0.69,-0.7533,142.3,97.0,0.519
13.06,31946.9,35045.1,-0.2019,0.111,142.3,97.0,0.519
13.08,32284.7,35433.5,1.0937,1.0659,142.3,97.0,0.519
13.1,32326.7,35581.8,1.2549,1.4305,142.3,97.0,0.519
13.12,32328.4,35688.2,1.2612,1.6921,142.3,97.0,0.519
13.14,32324.0,35675.8,1.2444,1.6615,142.3,97.0,0.519
13.16,32212.0,35412.5,0.815,1.0143,142.3,97.0,0.519
13.18,32122.7,35315.7,0.4725,0.7762,142.3,97.0,0.519
13.2,32050.6,35142.0,0.1957,0.3493,142.3,97.0,0.519
13.22,32097.1,35095.8,0.3743,0.2358,142.3,97.0,0.519
13.24,32082.6,35099.8,0.3187,0.2456,142.3,97.0,0.519
13.26,31953.1,34910.6,-0.1783,-0.2196,142.3,97.0,0.519
13.28,31978.5,34974.9,-0.0809,-0.0614,142.3,97.0,0.519
13.3,31856.5,34703.2,-0.5486,-0.7295,142.3,97.0,0.519
13.32,31806.4,34801.0,-0.7408,-0.4889,142.3,97.0,0.519
13.34,31891.5,34663.5,-0.4144,-0.8271,142.3,97.0,0.519
13.36,31732.5,34654.2,-1.0244,-0.8499,142.3,97.0,0.519
13.38,31820.2,34598.5,-0.688,-0.9867,142.3,97.0,0.519
13.4,31793.1,34480.0,-0.7919,-1.2782,142.3,97.0,0.519
13.42,31781.0,34497.5,-0.8385,-1.2352,142.3,97.0,0.519
13.44,31686.1,34537.0,-1.2021,-1.1379,142.3,97.0,0.519
13.46,31824.0,34629.1,-0.6732,-0.9116,142.3,97.0,0.519
13.48,31973.7,34962.7,-0.0991,-0.0915,142.3,97.0,0.519
13.5,32189.3,35315.9,0.7279,0.7768,142.3,97.0,0.519
13.52,32317.3,35624.0,1.2187,1.5342,142.3,97.0,0.519
13.54,32287.2,35836.1,1.1034,2.0555,142.3,97.0,0.519
13.56,32324.1,35707.9,1.2447,1.7404,142.3,97.0,0.519
13.58,32202.5,35472.2,0.7785,1.1609,142.3,97.0,0.519
13.6,32063.1,35291.8,0.2438,0.7175,142.3,97.0,0.519
13.62,32091.8,35140.0,0.3538,0.3444,142.3,97.0,0.519
13.64,32023.6,35052.1,0.0922,0.1282,142.3,97.0,0.519
13.66,32054.4,34938.5,0.2102,-0.1509,142.3,97.0,0.519
13.68,31911.0,34948.3,-0.3396,-0.1268,142.3,97.0,0.519
13.7,31967.8,34779.9,-0.1217,-0.5408,142.3,97.0,0.519
13.72,31856.0,34784.4,-0.5507,-0.5298,142.3,97.0,0.519
13.74,31824.2,34583.6,-0.6726,-1.0234,142.3,97.0,0.519
13.76,31820.8,34699.6,-0.6856,-0.7382,142.3,97.0,0.519
13.78,31696.0,34686.1,-1.1645,-0.7716,142.3,97.0,0.519
13.8,31782.2,34591.7,-0.8339,-1.0035,142.3,97.0,0.519
13.82,31735.8,34460.5,-1.0115,-1.3259,142.3,97.0,0.519
13.84,31687.1,34469.2,-1.1983,-1.3048,142.3,97.0,0.519
13.86,31638.7,34546.8,-1.3841,-1.114,142.3,97.0,0.519
13.88,31794.5,34596.6,-0.7863,-0.9915,142.3,97.0,0.519
13.9,32049.8,34884.8,0.1929,-0.2829,142.3,97.0,0.519
13.92,32148.2,35361.1,0.5703,0.8879,142.3,97.0,0.519
13.94,32296.6,35669.4,1.1395,1.6458,142.3,97.0,0.519
13.96,32349.0,35751.7,1.3402,1.8482,142.3,97.0,0.519
13.98,32325.8,35693.5,1.2512,1.7051,142.3,97.0,0.519
14.0,32284.4,35496.5,1.0926,1.2208,142.3,97.0,0.519
14.02,32213.8,35300.2,0.8218,0.7382,142.3,97.0,0.519
14.04,32143.1,35129.0,0.5505,0.3174,142.3,97.0,0.519
14.06,32007.3,35071.8,0.0299,0.1767,142.3,97.0,0.519
14.08,31984.1,35031.3,-0.0592,0.0771,142.3,97.0,0.519
14.1,32021.8,34966.2,0.0851,-0.0829,142.3,97.0,0.519
14.12,31991.9,34781.6,-0.0294,-0.5366,142.3,97.0,0.519
14.14,31894.4,34665.0,-0.4034,-0.8234,142.3,97.0,0.519
14.16,31892.7,34729.4,-0.4097,-0.6651,142.3,97.0,0.519
14.18,31743.6,34682.4,-0.9818,-0.7806,142.3,97.0,0.519
14.2,31927.4,34666.7,-0.2766,-0.8192,142.3,97.0,0.519
14.22,31774.2,34629.8,-0.8643,-0.9099,142.3,97.0,0.519
14.24,31788.3,34550.8,-0.8103,-1.1042,142.3,97.0,0.519
14.26,31691.8,34328.6,-1.1805,-1.6503,142.3,97.0,0.519
14.28,31825.2,34478.2,-0.6688,-1.2825,142.3,97.0,0.519
14.3,31887.1,34620.8,-0.4312,-0.9319,142.3,97.0,0.519
14.32,31936.4,34883.3,-0.2423,-0.2868,142.3,97.0,0.519
14.34,32225.1,35319.0,0.8651,0.7845,142.3,97.0,0.519
14.36,32303.8,35709.8,1.167,1.7452,142.3,97.0,0.519
14.38,32288.4,35741.8,1.1077,1.8238,142.3,97.0,0.519
14.4,32340.7,35771.6,1.3084,1.897,142.3,97.0,0.519
14.42,32367.1,35547.9,1.4096,1.3471,142.3,97.0,0.519
14.44,32167.9,35361.3,0.6459,0.8884,142.3,97.0,0.519
14.46,32125.4,35128.7,0.4826,0.3165,142.3,97.0,0.519
14.48,32087.8,35084.1,0.3386,0.207,142.3,97.0,0.519
14.5,32083.6,35104.5,0.3223,0.2572,142.3,97.0,0.519
14.52,32075.8,35044.1,0.2926,0.1087,142.3,97.0,0.519
14.54,31935.9,34857.7,-0.2442,-0.3497,142.3,97.0,0.519
14.56,31878.4,34743.0,-0.4645,-0.6316,142.3,97.0,0.519
14.58,31947.4,34760.2,-0.2002,-0.5893,142.3,97.0,0.519
14.6,31900.9,34668.6,-0.3784,-0.8145,142.3,97.0,0.519
14.62,31841.6,34644.9,-0.6058,-0.8727,142.3,97.0,0.519
14.64,31791.5,34712.5,-0.798,-0.7065,142.3,97.0,0.519
14.66,31775.7,34509.2,-0.8585,-1.2063,142.3,97.0,0.519
14.68,31690.9,34526.9,-1.1838,-1.1629,142.3,97.0,0.519
14.7,31677.2,34506.9,-1.2365,-1.2121,142.3,97.0,0.519
14.72,31831.4,34571.7,-0.6451,-1.0527,142.3,97.0,0.519
14.74,32098.3,34832.8,0.3787,-0.4108,142.3,97.0,0.519
14.76,32070.2,35229.8,0.2708,0.565,142.3,97.0,0.519
14.78,32259.1,35591.9,0.9954,1.4554,142.3,97.0,0.519
14.8,32332.2,35700.6,1.276,1.7225,142.3,97.0,0.519
14.82,32353.6,35643.7,1.3581,1.5826,142.3,97.0,0.519
14.84,32384.4,35590.5,1.4761,1.4519,142.3,97.0,0.519
14.86,32143.2,35256.3,0.5511,0.6303,142.3,97.0,0.519
14.88,32121.2,35183.4,0.4667,0.4512,142.3,97.0,0.519
14.9,32026.7,35123.4,0.1041,0.3034,142.3,97.0,0.519
14.92,32032.7,35188.2,0.1271,0.463,142.3,97.0,0.519
14.94,32020.8,34931.6,0.0815,-0.1679,142.3,97.0,0.519
14.96,31853.9,34873.1,-0.5586,-0.3117,142.3,97.0,0.519
14.98,31854.5,34765.0,-0.5562,-0.5775,142.3,97.0,0.519
15.0,31861.8,34713.7,-0.5283,-0.7036,142.3,97.0,0.519
15.02,31938.1,34667.1,-0.2359,-0.8183,142.3,97.0,0.519
15.04,31788.3,34700.3,-0.8104,-0.7366,142.3,97.0,0.519
15.06,31753.0,34644.7,-0.9458,-0.8731,142.3,97.0,0.519
15.08,31723.8,34450.6,-1.0578,-1.3503,142.3,97.0,0.519
15.1,31689.2,34534.2,-1.1905,-1.145,142.3,97.0,0.519
15.12,31697.5,34483.0,-1.1585,-1.2707,142.3,97.0,0.519
15.14,31863.1,34600.9,-0.5233,-0.9809,142.3,97.0,0.519
15.16,31930.6,34920.8,-0.2646,-0.1944,142.3,97.0,0.519
15.18,32060.2,35331.1,0.2327,0.8141,142.3,97.0,0.519
15.2,32224.2,35621.5,0.8614,1.528,142.3,97.0,0.519
15.22,32349.3,35674.9,1.3415,1.6592,142.3,97.0,0.519
15.24,32265.4,35649.3,1.0196,1.5963,142.3,97.0,0.519
15.26,32347.3,35550.1,1.3337,1.3525,142.3,97.0,0.519
15.28,32179.1,35377.4,0.6888,0.928,142.3,97.0,0.519
15.3,32063.3,35167.4,0.2443,0.4116,142.3,97.0,0.519
15.32,32018.0,35094.5,0.0708,0.2326,142.3,97.0,0.519
15.34,32030.3,35060.5,0.1178,0.149,142.3,97.0,0.519
15.36,31984.7,34939.9,-0.0571,-0.1476,142.3,97.0,0.519
15.38,31917.9,34820.4,-0.3131,-0.4412,142.3,97.0,0.519
15.4,31977.3,34918.4,-0.0855,-0.2003,142.3,97.0,0.519
15.42,31990.5,34652.3,-0.0346,-0.8545,142.3,97.0,0.519
15.44,31792.6,34709.5,-0.794,-0.714,142.3,97.0,0.519
15.46,31842.3,34717.0,-0.6033,-0.6954,142.3,97.0,0.519
15.48,31895.5,34725.3,-0.3992,-0.675,142.3,97.0,0.519
15.5,31828.2,34580.8,-0.6574,-1.0303,142.3,97.0,0.519
15.52,31732.5,34479.3,-1.0242,-1.2799,142.3,97.0,0.519
15.54,31807.4,34507.6,-0.7371,-1.2102,142.3,97.0,0.519
15.56,31807.7,34567.6,-0.7358,-1.0628,142.3,97.0,0.519
15.58,31904.6,34871.9,-0.3643,-0.3146,142.3,97.0,0.519
15.6,32184.1,35301.6,0.7079,0.7417,142.3,97.0,0.519
15.62,32252.0,35489.8,0.9682,1.2042,142.3,97.0,0.519
15.64,32378.0,35715.4,1.4515,1.7589,142.3,97.0,0.519
15.66,32286.5,35699.2,1.1005,1.719,142.3,97.0,0.519
15.68,32342.7,35597.5,1.316,1.4689,142.3,97.0,0.519
15.7,32246.4,35355.3,0.9466,0.8737,142.3,97.0,0.519
15.72,32030.3,35267.7,0.1181,0.6582,142.3,97.0,0.519
15.74,32021.9,35141.6,0.0859,0.3483,142.3,97.0,0.519
15.76,31990.1,35058.5,-0.0362,0.144,142.3,97.0,0.519
15.78,31984.9,34980.5,-0.0563,-0.0477,142.3,97.0,0.519
15.8,31950.8,34922.1,-0.1869,-0.1912,142.3,97.0,0.519
15.82,31902.8,34804.2,-0.371,-0.4811,142.3,97.0,0.519
15.84,31821.7,34790.1,-0.6823,-0.5159,142.3,97.0,0.519
15.86,31792.6,34677.3,-0.7937,-0.793,142.3,97.0,0.519
15.88,31833.4,34649.7,-0.6375,-0.8609,142.3,97.0,0.519
15.9,31896.3,34617.2,-0.3959,-0.9408,142.3,97.0,0.519
15.92,31765.9,34609.4,-0.8964,-0.96,142.3,97.0,0.519
15.94,31817.9,34502.9,-0.6966,-1.2219,142.3,97.0,0.519
15.96,31734.4,34424.7,-1.0172,-1.414,142.3,97.0,0.519
15.98,31703.4,34640.7,-1.1361,-0.8831,142.3,97.0,0.519
16.0,31894.2,34864.5,-0.404,-0.3328,142.3,97.0,0.519
16.02,32144.0,35183.8,0.5538,0.4521,142.3,97.0,0.519
16.04,32290.0,35548.3,1.1139,1.3482,142.3,97.0,0.519
16.06,32353.8,35736.7,1.3588,1.8111,142.3,97.0,0.519
16.08,32311.5,35761.6,1.1964,1.8724,142.3,97.0,0.519
16.1,32345.8,35523.7,1.3281,1.2876,142.3,97.0,0.519
16.12,32147.1,35403.8,0.5658,0.9929,142.3,97.0,0.519
16.14,32077.6,35205.8,0.2992,0.506,142.3,97.0,0.519
16.16,32051.6,35092.0,0.1997,0.2264,142.3,97.0,0.519
16.18,32042.2,35006.7,0.1635,0.0167,142.3,97.0,0.519
16.2,31972.8,34996.3,-0.1025,-0.009,142.3,97.0,0.519
16.22,31977.0,34957.4,-0.0865,-0.1045,142.3,97.0,0.519
16.24,31865.8,34871.6,-0.513,-0.3153,142.3,97.0,0.519
16.26,31928.0,34862.6,-0.2745,-0.3376,142.3,97.0,0.519
16.28,31782.9,34697.4,-0.8309,-0.7436,142.3,97.0,0.519
16.3,31783.8,34709.3,-0.8277,-0.7143,142.3,97.0,0.519
16.32,31762.2,34589.5,-0.9104,-1.009,142.3,97.0,0.519
16.34,31791.1,34478.1,-0.7996,-1.2829,142.3,97.0,0.519
16.36,31782.4,34617.4,-0.8328,-0.9404,142.3,97.0,0.519
16.38,31787.5,34545.5,-0.8134,-1.1171,142.3,97.0,0.519
16.4,31792.2,34567.6,-0.7955,-1.0629,142.3,97.0,0.519
16.42,31853.6,34872.7,-0.5599,-0.3129,142.3,97.0,0.519
16.44,32106.9,35265.7,0.4116,0.6534,142.3,97.0,0.519
16.46,32185.1,35563.8,0.7116,1.3862,142.3,97.0,0.519
16.48,32342.5,35789.6,1.3153,1.9413,142.3,97.0,0.519
16.5,32480.4,35739.2,1.8443,1.8174,142.3,97.0,0.519
16.52,32202.0,35580.4,0.7767,1.4271,142.3,97.0,0.519
16.54,32223.1,35419.3,0.8573,1.031,142.3,97.0,0.519
16.56,32128.1,35218.8,0.4931,0.5379,142.3,97.0,0.519
16.58,32099.5,35093.1,0.3835,0.229,142.3,97.0,0.519
16.6,32083.6,35081.2,0.3222,0.1998,142.3,97.0,0.519
16.62,32033.5,34981.6,0.1302,-0.0451,142.3,97.0,0.519
16.64,31934.8,34963.4,-0.2483,-0.0898,142.3,97.0,0.519
16.66,31986.9,34809.6,-0.0486,-0.4678,142.3,97.0,0.519
16.68,31862.2,34849.8,-0.5269,-0.369,142.3,97.0,0.519
16.7,31827.7,34603.3,-0.6592,-0.975,142.3,97.0,0.519
16.72,31773.7,34703.4,-0.8664,-0.729,142.3,97.0,0.519
16.74,31906.0,34667.4,-0.3587,-0.8173,142.3,97.0,0.519
16.76,31801.0,34640.8,-0.7616,-0.8827,142.3,97.0,0.519
16.78,31710.3,34448.0,-1.1093,-1.3569,142.3,97.0,0.519
16.8,31699.3,34471.0,-1.1517,-1.3002,142.3,97.0,0.519
16.82,31771.1,34594.2,-0.8762,-0.9974,142.3,97.0,0.519
16.84,31794.5,34708.7,-0.7866,-0.7159,142.3,97.0,0.519
16.86,32121.3,35149.5,0.4669,0.3678,142.3,97.0,0.519
16.88,32200.7,35472.5,0.7716,1.1617,142.3,97.0,0.519
16.9,32337.8,35703.0,1.2972,1.7284,142.3,97.0,0.519
16.92,32272.8,35751.0,1.0482,1.8463,142.3,97.0,0.519
16.94,32258.9,35608.7,0.9949,1.4965,142.3,97.0,0.519
16.96,32148.5,35428.6,0.5714,1.0537,142.3,97.0,0.519
16.98,32069.3,35205.2,0.2674,0.5047,142.3,97.0,0.519
17.0,32049.3,35155.5,0.1909,0.3825,142.3,97.0,0.519
17.02,32085.0,35107.3,0.3278,0.2641,142.3,97.0,0.519
17.04,31982.0,34981.7,-0.0675,-0.0447,142.3,97.0,0.519
17.06,32019.4,34977.4,0.0762,-0.0554,142.3,97.0,0.519
17.08,31851.9,34773.2,-0.5663,-0.5574,142.3,97.0,0.519
17.1,31871.2,34801.2,-0.4922,-0.4886,142.3,97.0,0.519
17.12,31860.9,34655.5,-0.5319,-0.8467,142.3,97.0,0.519
17.14,31978.1,34587.7,-0.0823,-1.0133,142.3,97.0,0.519
17.16,31871.8,34678.3,-0.4898,-0.7908,142.3,97.0,0.519
17.18,31873.2,34583.9,-0.4848,-1.0226,142.3,97.0,0.519
17.2,31687.8,34463.4,-1.1959,-1.319,142.3,97.0,0.519
17.22,31770.5,34442.9,-0.8785,-1.3692,142.3,97.0,0.519
17.24,31840.7,34542.2,-0.6095,-1.1252,142.3,97.0,0.519
17.26,31809.1,34856.9,-0.7306,-0.3515,142.3,97.0,0.519
17.28,32065.6,35064.2,0.2534,0.158,142.3,97.0,0.519
17.3,32189.2,35389.6,0.7275,0.9578,142.3,97.0,0.519
17.32,32337.4,35638.7,1.2958,1.5702,142.3,97.0,0.519
17.34,32402.8,35708.2,1.5467,1.7411,142.3,97.0,0.519
17.36,32288.5,35618.3,1.1083,1.5202,142.3,97.0,0.519
17.38,32159.6,35445.8,0.6137,1.0961,142.3,97.0,0.519
17.4,32188.1,35304.4,0.7233,0.7484,142.3,97.0,0.519
17.42,31979.3,35127.6,-0.0779,0.3138,142.3,97.0,0.519
17.44,32007.0,35024.8,0.0286,0.0611,142.3,97.0,0.519
17.46,31987.9,34998.2,-0.0448,-0.0043,142.3,97.0,0.519
17.48,31924.9,34896.4,-0.2863,-0.2545,142.3,97.0,0.519
17.5,31970.0,34853.3,-0.1133,-0.3605,142.3,97.0,0.519
17.52,31809.8,34641.5,-0.7278,-0.881,142.3,97.0,0.519
17.54,31894.9,34686.5,-0.4015,-0.7705,142.3,97.0,0.519
17.56,31821.7,34686.3,-0.6824,-0.771,142.3,97.0,0.519
17.58,31856.8,34580.8,-0.5475,-1.0304,142.3,97.0,0.519
17.6,31836.6,34588.8,-0.625,-1.0106,142.3,97.0,0.519
17.62,31713.1,34610.0,-1.0988,-0.9586,142.3,97.0,0.519
17.64,31680.1,34525.7,-1.2253,-1.1658,142.3,97.0,0.519
17.66,31764.6,34518.1,-0.9014,-1.1845,142.3,97.0,0.519
17.68,31872.0,34780.0,-0.4893,-0.5405,142.3,97.0,0.519
17.7,32066.3,35228.8,0.2559,0.5626,142.3,97.0,0.519
17.72,32154.3,35470.1,0.5934,1.1558,142.3,97.0,0.519
17.74,32343.2,35689.0,1.3179,1.694,142.3,97.0,0.519
17.76,32308.3,35774.6,1.1843,1.9043,142.3,97.0,0.519
17.78,32279.1,35669.4,1.072,1.6458,142.3,97.0,0.519
17.8,32145.2,35380.1,0.5587,0.9347,142.3,97.0,0.519
17.82,32269.5,35309.5,1.0355,0.7611,142.3,97.0,0.519
17.84,31981.5,35169.9,-0.0691,0.4179,142.3,97.0,0.519
17.86,32053.1,35031.3,0.2053,0.077,142.3,97.0,0.519
17.88,32016.2,34958.1,0.0638,-0.1027,142.3,97.0,0.519
17.9,31906.9,34998.2,-0.3553,-0.0042,142.3,97.0,0.519
17.92,31945.1,34805.1,-0.2089,-0.4789,142.3,97.0,0.519
17.94,31910.6,34738.8,-0.3412,-0.642,142.3,97.0,0.519
17.96,31816.7,34695.1,-0.7013,-0.7492,142.3,97.0,0.519
17.98,31852.7,34714.8,-0.5635,-0.701,142.3,97.0,0.519
18.0,31850.7,34582.0,-0.5708,-1.0274,142.3,97.0,0.519
18.02,31775.5,34577.4,-0.8594,-1.0386,142.3,97.0,0.519
18.04,31711.9,34518.0,-1.1032,-1.1847,142.3,97.0,0.519
18.06,31693.9,34488.2,-1.1725,-1.258,142.3,97.0,0.519
18.08,31709.9,34588.2,-1.1111,-1.0121,142.3,97.0,0.519
18.1,31873.8,34668.3,-0.4822,-0.8153,142.3,97.0,0.519
18.12,31978.4,35111.9,-0.0812,0.2752,142.3,97.0,0.519
18.14,32148.2,35391.1,0.5701,0.9617,142.3,97.0,0.519
18.16,32300.5,35733.9,1.1543,1.8042,142.3,97.0,0.519
18.18,32319.3,35756.7,1.2265,1.8604,142.3,97.0,0.519
18.2,32306.9,35656.3,1.1789,1.6136,142.3,97.0,0.519
18.22,32164.9,35419.6,0.6341,1.0316,142.3,97.0,0.519
18.24,32120.1,35183.7,0.4622,0.4518,142.3,97.0,0.519
18.26,32061.4,35183.2,0.2373,0.4504,142.3,97.0,0.519
18.28,32070.5,35116.8,0.2719,0.2873,142.3,97.0,0.519
18.3,32035.0,34908.9,0.1359,-0.2237,142.3,97.0,0.519
18.32,32005.4,34924.7,0.0226,-0.1849,142.3,97.0,0.519
18.34,31973.7,34738.9,-0.0992,-0.6417,142.3,97.0,0.519
18.36,31914.8,34672.8,-0.3249,-0.8041,142.3,97.0,0.519
18.38,31822.4,34710.3,-0.6794,-0.712,142.3,97.0,0.519
18.4,31837.6,34675.1,-0.6212,-0.7986,142.3,97.0,0.519
18.42,31814.9,34582.6,-0.7082,-1.0259,142.3,97.0,0.519
18.44,31772.7,34622.9,-0.87,-0.9268,142.3,97.0,0.519
18.46,31729.2,34574.1,-1.0369,-1.0469,142.3,97.0,0.519
18.48,31721.8,34412.7,-1.0653,-1.4435,142.3,97.0,0.519
18.5,31701.5,34510.0,-1.1431,-1.2044,142.3,97.0,0.519
18.52,31932.1,34708.6,-0.2586,-0.7161,142.3,97.0,0.519
18.54,32022.8,35058.2,0.089,0.1434,142.3,97.0,0.519
18.56,32105.0,35407.4,0.4045,1.0018,142.3,97.0,0.519
18.58,32402.4,35589.8,1.545,1.4501,142.3,97.0,0.519
18.6,32346.6,35761.0,1.3312,1.871,142.3,97.0,0.519
18.62,32388.7,35686.1,1.4927,1.6869,142.3,97.0,0.519
18.64,32190.0,35546.5,0.7304,1.3435,142.3,97.0,0.519
18.66,32047.1,35210.9,0.1822,0.5186,142.3,97.0,0.519
18.68,32083.6,35109.2,0.3225,0.2685,142.3,97.0,0.519
18.7,31950.0,35028.8,-0.19,0.0709,142.3,97.0,0.519
18.72,31958.1,35095.2,-0.1591,0.2342,142.3,97.0,0.519
18.74,32010.4,34929.3,0.0417,-0.1737,142.3,97.0,0.519
18.76,31893.4,34817.0,-0.4072,-0.4497,142.3,97.0,0.519
18.78,31929.9,34814.2,-0.2672,-0.4566,142.3,97.0,0.519
18.8,31835.3,34624.8,-0.63,-0.9222,142.3,97.0,0.519
18.82,31782.6,34669.9,-0.8321,-0.8112,142.3,97.0,0.519
18.84,31905.2,34667.2,-0.362,-0.8178,142.3,97.0,0.519
18.86,31855.8,34664.6,-0.5513,-0.8243,142.3,97.0,0.519
18.88,31717.9,34495.1,-1.0805,-1.241,142.3,97.0,0.519
18.9,31712.0,34516.7,-1.1031,-1.1879,142.3,97.0,0.519
18.92,31693.3,34504.4,-1.1746,-1.2182,142.3,97.0,0.519
18.94,31854.8,34691.3,-0.5551,-0.7588,142.3,97.0,0.519
18.96,31981.1,34971.1,-0.0707,-0.0709,142.3,97.0,0.519
18.98,32192.9,35413.8,0.7417,1.0173,142.3,97.0,0.519
19.0,32282.2,35649.7,1.084,1.5973,142.3,97.0,0.519
19.02,32309.4,35729.4,1.1883,1.7932,142.3,97.0,0.519
19.04,32326.0,35625.5,1.2521,1.5379,142.3,97.0,0.519
19.06,32198.6,35489.0,0.7635,1.2022,142.3,97.0,0.519
19.08,31973.0,35300.5,-0.1018,0.7388,142.3,97.0,0.519
19.1,32127.1,35209.4,0.4891,0.5149,142.3,97.0,0.519
19.12,32107.5,35144.4,0.4141,0.3552,142.3,97.0,0.519
19.14,32041.8,35030.9,0.162,0.0761,142.3,97.0,0.519
19.16,32021.7,34980.7,0.085,-0.0472,142.3,97.0,0.519
19.18,31885.8,34842.1,-0.4364,-0.3881,142.3,97.0,0.519
19.2,31819.8,34760.6,-0.6897,-0.5883,142.3,97.0,0.519
19.22,31839.4,34680.9,-0.6142,-0.7843,142.3,97.0,0.519
19.24,31782.5,34760.1,-0.8324,-0.5896,142.3,97.0,0.519
19.26,31861.5,34612.9,-0.5294,-0.9515,142.3,97.0,0.519
19.28,31754.0,34688.1,-0.9417,-0.7667,142.3,97.0,0.519
19.3,31785.8,34572.9,-0.8201,-1.0497,142.3,97.0,0.519
19.32,31690.5,34445.3,-1.1855,-1.3635,142.3,97.0,0.519
19.34,31856.5,34501.9,-0.5486,-1.2242,142.3,97.0,0.519
19.36,31772.4,34540.4,-0.8712,-1.1298,142.3,97.0,0.519
19.38,32016.7,34969.5,0.0656,-0.0749,142.3,97.0,0.519
19.4,32140.8,35314.4,0.5419,0.773,142.3,97.0,0.519
19.42,32372.5,35679.5,1.4302,1.6706,142.3,97.0,0.519
19.44,32304.6,35766.9,1.1701,1.8855,142.3,97.0,0.519
19.46,32316.6,35688.3,1.2159,1.6922,142.3,97.0,0.519
19.48,32242.2,35563.0,0.9305,1.3841,142.3,97.0,0.519
19.5,32180.5,35327.8,0.694,0.806,142.3,97.0,0.519
19.52,32226.4,35232.5,0.8701,0.5716,142.3,97.0,0.519
19.54,32076.4,35151.0,0.2946,0.3714,142.3,97.0,0.519
19.56,32059.9,35037.4,0.2313,0.0923,142.3,97.0,0.519
19.58,32041.3,34877.2,0.1602,-0.3016,142.3,97.0,0.519
19.6,31974.0,34882.6,-0.0982,-0.2883,142.3,97.0,0.519
19.62,31930.1,34790.5,-0.2664,-0.5148,142.3,97.0,0.519
19.64,31899.3,34690.0,-0.3845,-0.7619,142.3,97.0,0.519
19.66,31737.2,34638.0,-1.0065,-0.8898,142.3,97.0,0.519
19.68,31781.8,34678.4,-0.8352,-0.7905,142.3,97.0,0.519
19.7,31728.8,34524.0,-1.0384,-1.17,142.3,97.0,0.519
19.72,31751.7,34634.9,-0.9508,-0.8973,142.3,97.0,0.519
19.74,31800.8,34468.6,-0.7622,-1.306,142.3,97.0,0.519
19.76,31782.5,34497.1,-0.8325,-1.236,142.3,97.0,0.519
19.78,31833.2,34591.3,-0.638,-1.0045,142.3,97.0,0.519
19.8,32005.0,35061.1,0.0208,0.1503,142.3,97.0,0.519
19.82,32119.5,35384.7,0.4601,0.9459,142.3,97.0,0.519
19.84,32297.0,35619.7,1.1408,1.5235,142.3,97.0,0.519
19.86,32391.0,35767.8,1.5015,1.8877,142.3,97.0,0.519
19.88,32333.9,35634.5,1.2824,1.5601,142.3,97.0,0.519
19.9,32246.9,35613.6,0.9486,1.5086,142.3,97.0,0.519
19.92,32132.7,35361.7,0.5106,0.8893,142.3,97.0,0.519
19.94,32112.2,35119.2,0.4321,0.2931,142.3,97.0,0.519
19.96,32145.6,35092.9,0.5603,0.2285,142.3,97.0,0.519
19.98,31926.7,35077.1,-0.2796,0.1896,142.3,97.0,0.519
20.0,32086.7,34958.5,0.3344,-0.1019,142.3,97.0,0.519
20.02,31972.5,34827.5,-0.1039,-0.4239,142.3,97.0,0.519
20.04,31806.2,34876.2,-0.7417,-0.3043,142.3,97.0,0.519
20.06,31878.3,34694.4,-0.4649,-0.751,142.3,97.0,0.519
20.08,31947.7,34753.4,-0.199,-0.6061,142.3,97.0,0.519
20.1,31826.8,34592.4,-0.6626,-1.0017,142.3,97.0,0.519
20.12,31729.6,34739.6,-1.0353,-0.64,142.3,97.0,0.519
20.14,31747.9,34570.9,-0.9653,-1.0546,142.3,97.0,0.519
20.16,31702.0,34444.8,-1.1412,-1.3646,142.3,97.0,0.519
20.18,31752.0,34430.5,-0.9496,-1.3999,142.3,97.0,0.519
20.2,31872.1,34657.1,-0.4888,-0.8428,142.3,97.0,0.519
20.22,32034.7,34912.1,0.1347,-0.2159,142.3,97.0,0.519
20.24,32138.4,35287.7,0.5327,0.7074,142.3,97.0,0.519
20.26,32217.4,35528.6,0.8356,1.2997,142.3,97.0,0.519
20.28,32328.5,35791.5,1.2617,1.9459,142.3,97.0,0.519
20.3,32386.0,35785.9,1.4823,1.9322,142.3,97.0,0.519
20.32,32275.2,35582.9,1.0572,1.4333,142.3,97.0,0.519
20.34,32188.3,35353.9,0.7241,0.8702,142.3,97.0,0.519
20.36,32023.7,35213.8,0.0927,0.5258,142.3,97.0,0.519
20.38,32028.7,35148.7,0.1116,0.3658,142.3,97.0,0.519
20.4,32034.3,34992.1,0.1334,-0.0192,142.3,97.0,0.519
20.42,32041.5,34956.3,0.1607,-0.1071,142.3,97.0,0.519
20.44,31951.2,34944.8,-0.1856,-0.1356,142.3,97.0,0.519
20.46,31860.9,34733.8,-0.5318,-0.6541,142.3,97.0,0.519
20.48,31861.4,34664.1,-0.5299,-0.8254,142.3,97.0,0.519
20.5,31880.2,34627.2,-0.4577,-0.9162,142.3,97.0,0.519
20.52,31772.9,34678.4,-0.8694,-0.7903,142.3,97.0,0.519
20.54,31776.4,34587.0,-0.8558,-1.015,142.3,97.0,0.519
20.56,31780.0,34486.6,-0.842,-1.2618,142.3,97.0,0.519
20.58,31778.2,34524.5,-0.8492,-1.1686,142.3,97.0,0.519
20.6,31715.3,34524.4,-1.0902,-1.1689,142.3,97.0,0.519
20.62,31760.5,34605.7,-0.917,-0.9691,142.3,97.0,0.519
20.64,31956.7,34882.3,-0.1642,-0.2891,142.3,97.0,0.519
20.66,32154.7,35229.1,0.5952,0.5634,142.3,97.0,0.519
20.68,32316.1,35584.6,1.214,1.4374,142.3,97.0,0.519
20.7,32366.7,35843.1,1.4082,2.0729,142.3,97.0,0.519
20.72,32296.6,35755.7,1.1395,1.858,142.3,97.0,0.519
20.74,32296.0,35571.3,1.1372,1.4046,142.3,97.0,0.519
20.76,32072.8,35381.8,0.2808,0.9388,142.3,97.0,0.519
20.78,32123.2,35266.3,0.4742,0.6548,142.3,97.0,0.519
20.8,32023.2,35071.2,0.0907,0.1752,142.3,97.0,0.519
20.82,32016.8,35074.0,0.066,0.1822,142.3,97.0,0.519
20.84,32028.8,34939.6,0.1121,-0.1482,142.3,97.0,0.519
20.86,31942.5,34946.1,-0.2189,-0.1324,142.3,97.0,0.519
20.88,31923.1,34816.3,-0.2932,-0.4514,142.3,97.0,0.519
20.9,31900.6,34789.8,-0.3797,-0.5166,142.3,97.0,0.519
20.92,31779.0,34653.6,-0.8461,-0.8513,142.3,97.0,0.519
20.94,31940.5,34728.8,-0.2266,-0.6666,142.3,97.0,0.519
20.96,31816.5,34636.6,-0.702,-0.8932,142.3,97.0,0.519
20.98,31795.8,34566.6,-0.7815,-1.0651,142.3,97.0,0.519
21.0,31780.3,34521.0,-0.8411,-1.1774,142.3,97.0,0.519
21.02,31736.7,34447.0,-1.0082,-1.3592,142.3,97.0,0.519
21.04,31829.0,34658.0,-0.6543,-0.8406,142.3,97.0,0.519
21.06,31873.3,34833.5,-0.4843,-0.409,142.3,97.0,0.519
21.08,32081.9,35272.7,0.3158,0.6707,142.3,97.0,0.519
21.1,32263.5,35572.5,1.0123,1.4076,142.3,97.0,0.519
21.12,32402.7,35784.6,1.5464,1.929,142.3,97.0,0.519
21.14,32370.5,35736.5,1.4226,1.8107,142.3,97.0,0.519
21.16,32251.9,35657.7,0.9678,1.6169,142.3,97.0,0.519
21.18,32107.8,35304.3,0.4152,0.7484,142.3,97.0,0.519
21.2,32105.4,35137.7,0.406,0.3388,142.3,97.0,0.519
21.22,32098.5,35078.0,0.3797,0.1919,142.3,97.0,0.519
21.24,32049.6,35039.1,0.1918,0.0964,142.3,97.0,0.519
21.26,31978.3,35007.6,-0.0815,0.0188,142.3,97.0,0.519
21.28,31909.0,34906.0,-0.3472,-0.2309,142.3,97.0,0.519
21.3,31828.9,34767.9,-0.6544,-0.5703,142.3,97.0,0.519
21.32,31806.2,34679.8,-0.7416,-0.787,142.3,97.0,0.519
21.34,31852.9,34619.2,-0.5624,-0.9359,142.3,97.0,0.519
21.36,31856.7,34674.0,-0.5478,-0.8011,142.3,97.0,0.519
21.38,31816.9,34560.4,-0.7006,-1.0804,142.3,97.0,0.519
21.4,31774.2,34518.8,-0.8644,-1.1827,142.3,97.0,0.519
21.42,31846.5,34414.6,-0.5869,-1.439,142.3,97.0,0.519
21.44,31752.2,34404.6,-0.9488,-1.4635,142.3,97.0,0.519
21.46,31852.5,34607.5,-0.5641,-0.9647,142.3,97.0,0.519
21.48,31964.1,34915.9,-0.1359,-0.2066,142.3,97.0,0.519
21.5,32091.4,35260.8,0.3523,0.6414,142.3,97.0,0.519
21.52,32207.4,35589.5,0.7972,1.4493,142.3,97.0,0.519
21.54,32414.1,35793.5,1.5901,1.951,142.3,97.0,0.519
21.56,32379.8,35684.4,1.4585,1.6826,142.3,97.0,0.519
21.58,32324.8,35557.3,1.2473,1.3703,142.3,97.0,0.519
21.6,32187.1,35369.4,0.7194,0.9083,142.3,97.0,0.519
21.62,32165.7,35169.1,0.6371,0.4158,142.3,97.0,0.519
21.64,32059.7,35065.0,0.2308,0.1601,142.3,97.0,0.519
21.66,32018.1,35017.1,0.0712,0.0422,142.3,97.0,0.519
21.68,31982.6,35090.6,-0.0651,0.223,142.3,97.0,0.519
21.7,32101.6,34928.8,0.3913,-0.1749,142.3,97.0,0.519
21.72,31926.8,34779.3,-0.2791,-0.5423,142.3,97.0,0.519
21.74,31887.3,34840.2,-0.4307,-0.3927,142.3,97.0,0.519
21.76,31911.5,34623.6,-0.3378,-0.9252,142.3,97.0,0.519
21.78,31808.3,34715.4,-0.7335,-0.6996,142.3,97.0,0.519
21.8,31754.5,34587.0,-0.9399,-1.0151,142.3,97.0,0.519
21.82,31817.8,34536.5,-0.6971,-1.1391,142.3,97.0,0.519
21.84,31700.4,34564.1,-1.1474,-1.0714,142.3,97.0,0.519
21.86,31752.1,34438.7,-0.9492,-1.3798,142.3,97.0,0.519
21.88,31787.3,34519.6,-0.8142,-1.1808,142.3,97.0,0.519
21.9,31861.8,34849.9,-0.5284,-0.3688,142.3,97.0,0.519
21.92,32030.6,35179.1,0.119,0.4404,142.3,97.0,0.519
21.94,32246.5,35558.2,0.9472,1.3725,142.3,97.0,0.519
21.96,32291.7,35723.1,1.1204,1.7778,142.3,97.0,0.519
21.98,32309.8,35745.5,1.19,1.8328,142.3,97.0,0.519
22.0,32187.8,35621.3,0.7221,1.5275,142.3,97.0,0.519
22.02,32201.0,35434.2,0.7728,1.0675,142.3,97.0,0.519
22.04,32059.9,35170.8,0.2313,0.42,142.3,97.0,0.519
22.06,31997.2,35132.1,-0.009,0.325,142.3,97.0,0.519
22.08,32082.3,35048.9,0.3172,0.1204,142.3,97.0,0.519
22.1,31984.7,35154.5,-0.0569,0.3799,142.3,97.0,0.519
22.12,31963.9,34931.8,-0.1369,-0.1674,142.3,97.0,0.519
22.14,31847.8,34815.2,-0.5821,-0.454,142.3,97.0,0.519
22.16,31913.4,34661.2,-0.3304,-0.8326,142.3,97.0,0.519
22.18,31897.5,34617.2,-0.3916,-0.9408,142.3,97.0,0.519
22.2,31774.4,34676.3,-0.8638,-0.7955,142.3,97.0,0.519
22.22,31923.2,34718.7,-0.293,-0.6913,142.3,97.0,0.519
22.24,31872.9,34615.2,-0.4856,-0.9458,142.3,97.0,0.519
22.26,31829.4,34402.4,-0.6526,-1.4689,142.3,97.0,0.519
22.28,31781.3,34520.0,-0.837,-1.1798,142.3,97.0,0.519
22.3,31824.4,34499.0,-0.672,-1.2315,142.3,97.0,0.519
22.32,31916.2,34837.9,-0.3198,-0.3982,142.3,97.0,0.519
22.34,32124.2,35172.0,0.4781,0.4231,142.3,97.0,0.519
22.36,32283.1,35538.6,1.0876,1.3241,142.3,97.0,0.519
22.38,32303.7,35709.1,1.1666,1.7434,142.3,97.0,0.519
22.4,32391.9,35838.7,1.5048,2.0621,142.3,97.0,0.519
22.42,32317.3,35585.9,1.2186,1.4405,142.3,97.0,0.519
22.44,32221.4,35388.6,0.8511,0.9554,142.3,97.0,0.519
22.46,32058.9,35237.4,0.2275,0.5838,142.3,97.0,0.519
22.48,32150.4,35185.6,0.5785,0.4563,142.3,97.0,0.519
22.5,32006.1,35174.2,0.025,0.4284,142.3,97.0,0.519
22.52,32094.8,34926.7,0.3652,-0.18,142.3,97.0,0.519
22.54,32068.8,34891.2,0.2657,-0.2672,142.3,97.0,0.519
22.56,31952.8,34842.7,-0.1794,-0.3864,142.3,97.0,0.519
22.58,31809.3,34759.2,-0.7298,-0.5918,142.3,97.0,0.519
22.6,31879.3,34624.9,-0.4613,-0.922,142.3,97.0,0.519
22.62,31882.1,34664.4,-0.4503,-0.8249,142.3,97.0,0.519
22.64,31808.1,34552.1,-0.7343,-1.1008,142.3,97.0,0.519
22.66,31833.8,34523.1,-0.6357,-1.1723,142.3,97.0,0.519
22.68,31838.8,34511.1,-0.6165,-1.2017,142.3,97.0,0.519
22.7,31773.1,34413.9,-0.8686,-1.4407,142.3,97.0,0.519
22.72,31712.8,34513.2,-1.1,-1.1965,142.3,97.0,0.519
22.74,31923.2,34717.7,-0.293,-0.6937,142.3,97.0,0.519
22.76,31992.2,35147.9,-0.0281,0.3639,142.3,97.0,0.519
22.78,32242.2,35512.8,0.9308,1.2607,142.3,97.0,0.519
22.8,32359.9,35675.7,1.3821,1.6613,142.3,97.0,0.519
22.82,32341.0,35710.0,1.3094,1.7456,142.3,97.0,0.519
22.84,32294.3,35558.9,1.1306,1.3741,142.3,97.0,0.519
22.86,32216.4,35481.4,0.8319,1.1836,142.3,97.0,0.519
22.88,32112.8,35254.9,0.4344,0.6267,142.3,97.0,0.519
22.9,32076.3,35241.1,0.2945,0.5929,142.3,97.0,0.519
22.92,32095.4,35091.6,0.3678,0.2255,142.3,97.0,0.519
22.94,32075.2,35010.7,0.29,0.0264,142.3,97.0,0.519
22.96,31929.8,34924.1,-0.2677,-0.1865,142.3,97.0,0.519
22.98,31979.6,34832.8,-0.0766,-0.4107,142.3,97.0,0.519
23.0,31801.9,34736.3,-0.758,-0.648,142.3,97.0,0.519
23.02,31868.1,34710.3,-0.5041,-0.7119,142.3,97.0,0.519
23.04,31801.4,34624.8,-0.7601,-0.9222,142.3,97.0,0.519
23.06,31764.5,34677.4,-0.9015,-0.7928,142.3,97.0,0.519
23.08,31744.1,34550.5,-0.9798,-1.1049,142.3,97.0,0.519
23.1,31733.5,34592.4,-1.0204,-1.0019,142.3,97.0,0.519
23.12,31736.5,34460.7,-1.009,-1.3256,142.3,97.0,0.519
23.14,31769.9,34543.0,-0.8809,-1.1232,142.3,97.0,0.519
23.16,31894.9,34719.9,-0.4014,-0.6884,142.3,97.0,0.519
23.18,32082.6,35137.1,0.3184,0.3372,142.3,97.0,0.519
23.2,32073.9,35422.3,0.2851,1.0383,142.3,97.0,0.519
23.22,32349.3,35756.2,1.3414,1.8592,142.3,97.0,0.519
23.24,32270.7,35751.7,1.04,1.8482,142.3,97.0,0.519
23.26,32309.3,35601.5,1.1882,1.4789,142.3,97.0,0.519
23.28,32235.3,35440.0,0.9042,1.0817,142.3,97.0,0.519
23.3,32060.1,35245.3,0.2324,0.6031,142.3,97.0,0.519
23.32,32069.9,35132.0,0.2696,0.3246,142.3,97.0,0.519
23.34,32048.5,35148.6,0.1879,0.3656,142.3,97.0,0.519
23.36,32090.7,35034.2,0.3494,0.0843,142.3,97.0,0.519
23.38,31990.7,34972.9,-0.0341,-0.0664,142.3,97.0,0.519
23.4,31930.8,34831.8,-0.2637,-0.4133,142.3,97.0,0.519
23.42,31872.1,34695.8,-0.489,-0.7476,142.3,97.0,0.519
23.44,31920.3,34697.5,-0.304,-0.7434,142.3,97.0,0.519
23.46,31894.0,34661.6,-0.4048,-0.8318,142.3,97.0,0.519
23.48,31804.3,34726.7,-0.749,-0.6716,142.3,97.0,0.519
23.5,31866.9,34570.8,-0.509,-1.0549,142.3,97.0,0.519
23.52,31840.9,34593.4,-0.6084,-0.9994,142.3,97.0,0.519
23.54,31743.4,34476.9,-0.9825,-1.2858,142.3,97.0,0.519
23.56,31756.2,34513.2,-0.9335,-1.1966,142.3,97.0,0.519
23.58,31931.8,34666.4,-0.2599,-0.8198,142.3,97.0,0.519
23.6,32050.7,35000.9,0.1963,0.0024,142.3,97.0,0.519
23.62,32196.2,35441.2,0.7543,1.0848,142.3,97.0,0.519
23.64,32332.9,35684.9,1.2785,1.684,142.3,97.0,0.519
23.66,32376.9,35835.4,1.4474,2.054,142.3,97.0,0.519
23.68,32305.6,35638.3,1.1739,1.5693,142.3,97.0,0.519
23.7,32162.1,35425.4,0.6235,1.046,142.3,97.0,0.519
23.72,32046.2,35255.1,0.1787,0.6273,142.3,97.0,0.519
23.74,32074.1,35139.1,0.2857,0.342,142.3,97.0,0.519
23.76,32111.2,35124.3,0.4282,0.3057,142.3,97.0,0.519
23.78,32049.1,35149.6,0.1902,0.368,142.3,97.0,0.519
23.8,32052.5,35014.4,0.2031,0.0357,142.3,97.0,0.519
23.82,31901.9,34815.6,-0.3745,-0.453,142.3,97.0,0.519
23.84,31917.4,34830.7,-0.3153,-0.416,142.3,97.0,0.519
23.86,31813.7,34629.6,-0.7128,-0.9104,142.3,97.0,0.519
23.88,31798.7,34648.5,-0.7705,-0.8639,142.3,97.0,0.519
23.9,31790.4,34649.7,-0.8021,-0.861,142.3,97.0,0.519
23.92,31750.9,34539.6,-0.9536,-1.1315,142.3,97.0,0.519
23.94,31728.9,34523.5,-1.0381,-1.1711,142.3,97.0,0.519
23.96,31727.7,34422.1,-1.0428,-1.4204,142.3,97.0,0.519
23.98,31784.9,34526.6,-0.8233,-1.1634,142.3,97.0,0.519
24.0,31786.8,34732.6,-0.8161,-0.6572,142.3,97.0,0.519
24.02,31966.1,35032.3,-0.1285,0.0795,142.3,97.0,0.519
24.04,32238.2,35501.0,0.9155,1.2318,142.3,97.0,0.519
24.06,32260.4,35724.8,1.0006,1.7819,142.3,97.0,0.519
24.08,32409.4,35756.2,1.572,1.8592,142.3,97.0,0.519
24.1,32337.6,35600.3,1.2966,1.4758,142.3,97.0,0.519
24.12,32247.1,35402.5,0.9496,0.9896,142.3,97.0,0.519
24.14,32087.0,35309.6,0.3355,0.7614,142.3,97.0,0.519
24.16,32111.1,35135.2,0.4278,0.3326,142.3,97.0,0.519
24.18,32116.1,35121.8,0.4471,0.2995,142.3,97.0,0.519
24.2,32038.3,35172.6,0.1488,0.4244,142.3,97.0,0.519
24.22,32022.2,34948.6,0.087,-0.1261,142.3,97.0,0.519
24.24,31933.2,34843.1,-0.2546,-0.3855,142.3,97.0,0.519
24.26,31872.1,34700.3,-0.4887,-0.7367,142.3,97.0,0.519
24.28,31744.7,34733.6,-0.9774,-0.6547,142.3,97.0,0.519
24.3,31842.1,34694.9,-0.6039,-0.7499,142.3,97.0,0.519
24.32,31847.1,34620.8,-0.5847,-0.9321,142.3,97.0,0.519
24.34,31829.4,34549.8,-0.6525,-1.1065,142.3,97.0,0.519
24.36,31751.4,34545.7,-0.952,-1.1167,142.3,97.0,0.519
24.38,31667.6,34438.7,-1.2734,-1.3797,142.3,97.0,0.519
24.4,31803.4,34493.5,-0.7523,-1.2448,142.3,97.0,0.519
24.42,31801.8,34716.7,-0.7586,-0.6962,142.3,97.0,0.519
24.44,31993.0,34995.6,-0.0251,-0.0106,142.3,97.0,0.519
24.46,32177.6,35378.7,0.683,0.9313,142.3,97.0,0.519
24.48,32378.9,35597.7,1.4549,1.4695,142.3,97.0,0.519
24.5,32327.4,35696.2,1.2576,1.7116,142.3,97.0,0.519
24.52,32419.1,35706.6,1.6092,1.7373,142.3,97.0,0.519
24.54,32273.1,35493.0,1.0492,1.2122,142.3,97.0,0.519
24.56,32210.1,35344.7,0.8076,0.8476,142.3,97.0,0.519
24.58,32087.8,35148.7,0.3384,0.3657,142.3,97.0,0.519
24.6,32053.5,35041.4,0.2068,0.1019,142.3,97.0,0.519
24.62,32008.1,34985.0,0.0326,-0.0366,142.3,97.0,0.519
24.64,32010.1,34979.5,0.0405,-0.0503,142.3,97.0,0.519
24.66,31880.8,34830.7,-0.4553,-0.4159,142.3,97.0,0.519
24.68,31883.5,34775.5,-0.445,-0.5518,142.3,97.0,0.519
24.7,31834.0,34771.7,-0.6351,-0.561,142.3,97.0,0.519
24.72,31965.0,34823.0,-0.1327,-0.435,142.3,97.0,0.519
24.74,31884.8,34623.6,-0.4401,-0.9252,142.3,97.0,0.519
24.76,31764.7,34596.8,-0.9009,-0.991,142.3,97.0,0.519
24.78,31890.5,34420.6,-0.4185,-1.4241,142.3,97.0,0.519
24.8,31710.8,34461.7,-1.1074,-1.323,142.3,97.0,0.519
24.82,31740.8,34465.9,-0.9925,-1.3129,142.3,97.0,0.519
24.84,31802.6,34701.7,-0.7554,-0.7331,142.3,97.0,0.519
24.86,32070.0,35042.0,0.2703,0.1034,142.3,97.0,0.519
24.88,32205.1,35368.8,0.7882,0.9067,142.3,97.0,0.519
24.9,32363.4,35613.2,1.3955,1.5075,142.3,97.0,0.519
24.92,32297.9,35731.7,1.1445,1.7989,142.3,97.0,0.519
24.94,32361.4,35710.3,1.388,1.7464,142.3,97.0,0.519
24.96,32302.9,35531.0,1.1633,1.3055,142.3,97.0,0.519
24.98,32179.1,35320.5,0.6888,0.788,142.3,97.0,0.519
25.0,32055.0,35145.5,0.2127,0.358,142.3,97.0,0.519
25.02,32075.8,35122.3,0.2925,0.3007,142.3,97.0,0.519
25.04,31987.8,35084.8,-0.0451,0.2087,142.3,97.0,0.519
25.06,31916.4,34996.2,-0.3189,-0.0091,142.3,97.0,0.519
25.08,32049.6,34891.7,0.1919,-0.2661,142.3,97.0,0.519
25.1,31933.7,34783.5,-0.2524,-0.532,142.3,97.0,0.519
25.12,31866.0,34725.4,-0.5123,-0.6748,142.3,97.0,0.519
25.14,31864.7,34697.8,-0.5171,-0.7428,142.3,97.0,0.519
25.16,31937.1,34680.3,-0.2397,-0.7856,142.3,97.0,0.519
25.18,31796.9,34663.2,-0.7772,-0.8278,142.3,97.0,0.519
25.2,31811.1,34505.6,-0.7227,-1.2151,142.3,97.0,0.519
25.22,31715.4,34433.1,-1.0897,-1.3935,142.3,97.0,0.519
25.24,31766.7,34434.3,-0.8931,-1.3904,142.3,97.0,0.519
25.26,31831.8,34647.9,-0.6434,-0.8654,142.3,97.0,0.519
25.28,31933.8,34957.1,-0.2523,-0.1052,142.3,97.0,0.519
25.3,32102.4,35381.5,0.3944,0.9381,142.3,97.0,0.519
25.32,32300.7,35658.7,1.1551,1.6195,142.3,97.0,0.519
25.34,32336.9,35745.1,1.2938,1.8318,142.3,97.0,0.519
25.36,32406.1,35730.1,1.5591,1.795,142.3,97.0,0.519
25.38,32257.4,35504.6,0.989,1.2407,142.3,97.0,0.519
25.4,32128.3,35303.8,0.4938,0.747,142.3,97.0,0.519
25.42,32006.8,35273.4,0.0278,0.6723,142.3,97.0,0.519
25.44,32078.6,35087.1,0.3033,0.2143,142.3,97.0,0.519
25.46,32000.5,35034.7,0.0038,0.0854,142.3,97.0,0.519
25.48,31895.8,34984.6,-0.3978,-0.0377,142.3,97.0,0.519
25.5,31938.8,34904.8,-0.2331,-0.2337,142.3,97.0,0.519
25.52,31917.3,34774.0,-0.3156,-0.5553,142.3,97.0,0.519
25.54,31832.6,34635.0,-0.6404,-0.8971,142.3,97.0,0.519
25.56,31850.4,34631.1,-0.5722,-0.9067,142.3,97.0,0.519
25.58,31763.4,34655.8,-0.906,-0.8459,142.3,97.0,0.519
25.6,31745.0,34655.1,-0.9764,-0.8476,142.3,97.0,0.519
25.62,31791.4,34493.4,-0.7986,-1.2452,142.3,97.0,0.519
25.64,31739.4,34451.3,-0.9978,-1.3487,142.3,97.0,0.519
25.66,31790.0,34446.0,-0.8038,-1.3617,142.3,97.0,0.519
25.68,31832.7,34684.6,-0.64,-0.7751,142.3,97.0,0.519
25.7,31921.7,34833.0,-0.2987,-0.4104,142.3,97.0,0.519
25.72,32207.1,35320.2,0.7961,0.7873,142.3,97.0,0.519
25.74,32235.9,35574.0,0.9064,1.4112,142.3,97.0,0.519
25.76,32392.1,35752.4,1.5057,1.8498,142.3,97.0,0.519
25.78,32355.6,35717.4,1.3657,1.7638,142.3,97.0,0.519
25.8,32207.8,35535.8,0.7986,1.3173,142.3,97.0,0.519
25.82,32160.8,35309.6,0.6184,0.7613,142.3,97.0,0.519
25.84,32152.8,35159.3,0.5879,0.3918,142.3,97.0,0.519
25.86,32028.9,35144.9,0.1124,0.3563,142.3,97.0,0.519
25.88,32054.1,35052.1,0.2092,0.1282,142.3,97.0,0.519
25.9,32052.1,35013.1,0.2014,0.0323,142.3,97.0,0.519
25.92,31991.7,34867.3,-0.0303,-0.3259,142.3,97.0,0.519
25.94,31945.2,34845.5,-0.2084,-0.3796,142.3,97.0,0.519
25.96,31908.9,34625.9,-0.3477,-0.9195,142.3,97.0,0.519
25.98,31799.2,34627.7,-0.7684,-0.915,142.3,97.0,0.519
26.0,31730.1,34629.6,-1.0335,-0.9104,142.3,97.0,0.519
26.02,31798.6,34697.6,-0.7708,-0.7432,142.3,97.0,0.519
26.04,31821.0,34571.0,-0.6847,-1.0543,142.3,97.0,0.519
26.06,31747.0,34466.7,-0.9685,-1.3108,142.3,97.0,0.519
26.08,31743.2,34434.3,-0.9833,-1.3904,142.3,97.0,0.519
26.1,31828.1,34592.6,-0.6578,-1.0012,142.3,97.0,0.519
26.12,31889.3,34976.4,-0.423,-0.0578,142.3,97.0,0.519
26.14,32085.9,35275.4,0.3311,0.6773,142.3,97.0,0.519
26.16,32356.4,35632.9,1.3685,1.5562,142.3,97.0,0.519
26.18,32364.5,35720.8,1.3999,1.7721,142.3,97.0,0.519
26.2,32370.5,35708.4,1.4227,1.7416,142.3,97.0,0.519
26.22,32224.6,35523.4,0.8631,1.2869,142.3,97.0,0.519
26.24,32142.5,35347.3,0.5482,0.8538,142.3,97.0,0.519
26.26,32033.6,35141.9,0.1304,0.3491,142.3,97.0,0.519
26.28,32096.9,35116.9,0.3734,0.2876,142.3,97.0,0.519
26.3,32036.1,35029.6,0.1401,0.0729,142.3,97.0,0.519
26.32,31930.2,34959.7,-0.2662,-0.0989,142.3,97.0,0.519
26.34,32007.6,34943.2,0.0309,-0.1394,142.3,97.0,0.519
26.36,31973.3,34803.5,-0.1006,-0.4829,142.3,97.0,0.519
26.38,31753.9,34678.9,-0.9421,-0.7892,142.3,97.0,0.519
26.4,31810.0,34721.3,-0.727,-0.685,142.3,97.0,0.519
26.42,31830.6,34610.3,-0.6481,-0.9578,142.3,97.0,0.519
26.44,31852.4,34638.4,-0.5645,-0.8886,142.3,97.0,0.519
26.46,31771.9,34583.1,-0.8732,-1.0248,142.3,97.0,0.519
26.48,31724.0,34554.3,-1.0568,-1.0954,142.3,97.0,0.519
26.5,31763.8,34592.4,-0.9044,-1.0019,142.3,97.0,0.519
26.52,31771.2,34631.0,-0.8759,-0.9068,142.3,97.0,0.519
26.54,31961.6,34729.2,-0.1456,-0.6655,142.3,97.0,0.519
26.56,32080.4,35259.6,0.3101,0.6385,142.3,97.0,0.519
26.58,32164.4,35520.7,0.6322,1.2801,142.3,97.0,0.519
26.6,32361.5,35801.9,1.3882,1.9715,142.3,97.0,0.519
26.62,32360.8,35736.7,1.3855,1.8111,142.3,97.0,0.519
26.64,32246.6,35535.9,0.9475,1.3175,142.3,97.0,0.519
26.66,32185.1,35313.9,0.7117,0.7719,142.3,97.0,0.519
26.68,32109.7,35170.6,0.4224,0.4197,142.3,97.0,0.519
26.7,32122.3,35170.1,0.4707,0.4183,142.3,97.0,0.519
26.72,31977.7,35070.9,-0.0839,0.1744,142.3,97.0,0.519
26.74,31976.2,34981.8,-0.0896,-0.0445,142.3,97.0,0.519
26.76,32015.6,34919.7,0.0614,-0.1972,142.3,97.0,0.519
26.78,31968.4,34777.5,-0.1195,-0.5467,142.3,97.0,0.519
26.8,31951.7,34692.4,-0.1835,-0.756,142.3,97.0,0.519
26.82,31911.8,34738.2,-0.3365,-0.6433,142.3,97.0,0.519
26.84,31811.7,34661.3,-0.7206,-0.8323,142.3,97.0,0.519
26.86,31793.4,34626.1,-0.7907,-0.9191,142.3,97.0,0.519
26.88,31832.9,34532.7,-0.6393,-1.1485,142.3,97.0,0.519
26.9,31793.1,34488.8,-0.7919,-1.2566,142.3,97.0,0.519
26.92,31801.8,34488.7,-0.7587,-1.2568,142.3,97.0,0.519
26.94,31744.4,34573.5,-0.9787,-1.0483,142.3,97.0,0.519
26.96,31881.1,34800.5,-0.4543,-0.4903,142.3,97.0,0.519
26.98,32156.6,35305.6,0.6023,0.7513,142.3,97.0,0.519
27.0,32291.1,35576.0,1.118,1.4163,142.3,97.0,0.519
27.02,32385.7,35727.5,1.481,1.7885,142.3,97.0,0.519
27.04,32295.7,35748.6,1.136,1.8404,142.3,97.0,0.519
27.06,32285.5,35623.7,1.0968,1.5333,142.3,97.0,0.519
27.08,32171.3,35277.3,0.6588,0.6819,142.3,97.0,0.519
27.1,32116.9,35213.1,0.45,0.5241,142.3,97.0,0.519
27.12,32163.8,35086.9,0.63,0.2139,142.3,97.0,0.519
27.14,31992.0,35101.8,-0.0291,0.2504,142.3,97.0,0.519
27.16,31962.2,34951.5,-0.1433,-0.1189,142.3,97.0,0.519
27.18,31875.5,35013.0,-0.4757,0.0322,142.3,97.0,0.519
27.2,31823.9,34893.5,-0.6736,-0.2615,142.3,97.0,0.519
27.22,31938.5,34653.3,-0.2341,-0.852,142.3,97.0,0.519
27.24,31885.5,34696.5,-0.4374,-0.7458,142.3,97.0,0.519
27.26,31869.6,34659.7,-0.4983,-0.8364,142.3,97.0,0.519
27.28,31834.0,34690.0,-0.635,-0.7618,142.3,97.0,0.519
27.3,31804.5,34631.9,-0.748,-0.9047,142.3,97.0,0.519
27.32,31679.7,34424.6,-1.2269,-1.4143,142.3,97.0,0.519
27.34,31854.7,34453.4,-0.5556,-1.3434,142.3,97.0,0.519
27.36,31710.8,34606.4,-1.1077,-0.9673,142.3,97.0,0.519
27.38,31847.1,34805.2,-0.5849,-0.4787,142.3,97.0,0.519
27.4,32042.4,35092.4,0.1642,0.2274,142.3,97.0,0.519
27.42,32239.7,35548.9,0.921,1.3495,142.3,97.0,0.519
27.44,32318.1,35751.2,1.2216,1.8469,142.3,97.0,0.519
27.46,32412.1,35795.2,1.5823,1.955,142.3,97.0,0.519
27.48,32257.9,35662.6,0.9909,1.6291,142.3,97.0,0.519
27.5,32118.5,35359.9,0.4562,0.8849,142.3,97.0,0.519
27.52,32165.3,35164.5,0.6356,0.4047,142.3,97.0,0.519
27.54,32127.3,35084.1,0.4901,0.207,142.3,97.0,0.519
27.56,32063.9,35089.9,0.2468,0.2213,142.3,97.0,0.519
27.58,31924.0,35026.7,-0.29,0.0659,142.3,97.0,0.519
27.6,31915.7,34898.1,-0.3217,-0.2504,142.3,97.0,0.519
27.62,31986.4,34807.0,-0.0503,-0.4743,142.3,97.0,0.519
27.64,31826.5,34798.0,-0.6638,-0.4963,142.3,97.0,0.519
27.66,31845.1,34654.9,-0.5925,-0.8481,142.3,97.0,0.519
27.68,31845.1,34690.4,-0.5926,-0.7609,142.3,97.0,0.519
27.7,31803.1,34648.5,-0.7536,-0.864,142.3,97.0,0.519
27.72,31830.7,34624.7,-0.6476,-0.9224,142.3,97.0,0.519
27.74,31824.7,34475.3,-0.6705,-1.2896,142.3,97.0,0.519
27.76,31702.0,34433.7,-1.1415,-1.392,142.3,97.0,0.519
27.78,31714.8,34486.9,-1.0921,-1.2612,142.3,97.0,0.519
27.8,31884.3,34889.5,-0.4419,-0.2716,142.3,97.0,0.519
27.82,32045.0,35253.0,0.1745,0.6221,142.3,97.0,0.519
27.84,32256.5,35511.1,0.9857,1.2566,142.3,97.0,0.519
27.86,32323.0,35781.8,1.2406,1.9221,142.3,97.0,0.519
27.88,32380.1,35737.8,1.4595,1.814,142.3,97.0,0.519
27.9,32241.6,35504.0,0.9283,1.2393,142.3,97.0,0.519
27.92,32168.7,35334.1,0.6486,0.8215,142.3,97.0,0.519
27.94,32099.5,35212.7,0.3833,0.523,142.3,97.0,0.519
27.96,31997.2,35219.4,-0.0091,0.5395,142.3,97.0,0.519
27.98,32095.3,35142.3,0.3672,0.3501,142.3,97.0,0.519
28.0,31973.4,35052.0,-0.1004,0.128,142.3,97.0,0.519
28.02,31869.2,35030.2,-0.5002,0.0744,142.3,97.0,0.519
28.04,31880.3,34824.9,-0.4574,-0.4304,142.3,97.0,0.519
28.06,31730.0,34824.6,-1.0338,-0.431,142.3,97.0,0.519
28.08,31861.4,34800.9,-0.5299,-0.4893,142.3,97.0,0.519
28.1,31918.2,34618.7,-0.3119,-0.9371,142.3,97.0,0.519
28.12,31891.2,34650.6,-0.4158,-0.8587,142.3,97.0,0.519
28.14,31856.5,34584.9,-0.5486,-1.0203,142.3,97.0,0.519
28.16,31807.7,34534.9,-0.7357,-1.1432,142.3,97.0,0.519
28.18,31788.3,34566.2,-0.8105,-1.0661,142.3,97.0,0.519
28.2,31864.1,34516.0,-0.5197,-1.1895,142.3,97.0,0.519
28.22,31896.1,34796.2,-0.397,-0.5007,142.3,97.0,0.519
28.24,32090.8,35118.3,0.3501,0.2909,142.3,97.0,0.519
28.26,32244.0,35422.0,0.9376,1.0375,142.3,97.0,0.519
28.28,32375.2,35735.4,1.4409,1.8081,142.3,97.0,0.519
28.3,32336.8,35760.1,1.2934,1.8689,142.3,97.0,0.519
28.32,32281.4,35616.6,1.0809,1.5159,142.3,97.0,0.519
28.34,32225.4,35395.4,0.8663,0.9722,142.3,97.0,0.519
28.36,32167.5,35223.9,0.6441,0.5505,142.3,97.0,0.519
28.38,32126.2,35103.1,0.4858,0.2537,142.3,97.0,0.519
28.4,32070.6,35045.1,0.2726,0.1112,142.3,97.0,0.519
28.42,31999.3,35034.6,-0.0012,0.0854,142.3,97.0,0.519
28.44,31924.7,34986.6,-0.2873,-0.0327,142.3,97.0,0.519
28.46,31920.2,34857.4,-0.3045,-0.3505,142.3,97.0,0.519
28.48,31901.1,34733.3,-0.3778,-0.6554,142.3,97.0,0.519
28.5,31880.1,34668.2,-0.4582,-0.8155,142.3,97.0,0.519
28.52,31820.7,34694.3,-0.6862,-0.7513,142.3,97.0,0.519
28.54,31847.4,34626.4,-0.5837,-0.9181,142.3,97.0,0.519
28.56,31875.5,34552.3,-0.4758,-1.1004,142.3,97.0,0.519
28.58,31876.6,34458.8,-0.4716,-1.3301,142.3,97.0,0.519
28.6,31763.1,34525.0,-0.9069,-1.1675,142.3,97.0,0.519
28.62,31800.7,34511.5,-0.7629,-1.2006,142.3,97.0,0.519
28.64,31859.8,34857.0,-0.536,-0.3513,142.3,97.0,0.519
28.66,32049.4,35034.7,0.1913,0.0856,142.3,97.0,0.519
28.68,32204.8,35464.9,0.787,1.1429,142.3,97.0,0.519
28.7,32321.1,35683.0,1.2334,1.6793,142.3,97.0,0.519
28.72,32378.9,35816.3,1.4551,2.007,142.3,97.0,0.519
28.74,32310.4,35617.5,1.1923,1.5181,142.3,97.0,0.519
28.76,32197.5,35549.4,0.7593,1.3507,142.3,97.0,0.519
28.78,32140.8,35203.3,0.5416,0.5,142.3,97.0,0.519
28.8,32138.6,35162.3,0.5334,0.3991,142.3,97.0,0.519
28.82,31955.8,35134.4,-0.1677,0.3307,142.3,97.0,0.519
28.84,31981.7,35063.5,-0.0686,0.1563,142.3,97.0,0.519
28.86,31908.3,34932.5,-0.3499,-0.1658,142.3,97.0,0.519
28.88,32001.5,34862.8,0.0073,-0.337,142.3,97.0,0.519
28.9,31878.2,34749.8,-0.4654,-0.6148,142.3,97.0,0.519
28.92,31849.1,34767.5,-0.5771,-0.5714,142.3,97.0,0.519
28.94,31865.7,34642.5,-0.5135,-0.8787,142.3,97.0,0.519
28.96,31737.3,34667.3,-1.0061,-0.8176,142.3,97.0,0.519
28.98,31860.8,34685.3,-0.5323,-0.7735,142.3,97.0,0.519
29.0,31705.4,34367.6,-1.1281,-1.5545,142.3,97.0,0.519
29.02,31696.9,34412.1,-1.1607,-1.4451,142.3,97.0,0.519
29.04,31750.7,34496.1,-0.9543,-1.2385,142.3,97.0,0.519
29.06,32020.5,34651.9,0.0802,-0.8554,142.3,97.0,0.519
29.08,32013.6,35130.5,0.0537,0.3209,142.3,97.0,0.519
29.1,32271.8,35437.4,1.0441,1.0755,142.3,97.0,0.519
29.12,32309.4,35653.5,1.1886,1.6066,142.3,97.0,0.519
29.14,32383.7,35735.5,1.4733,1.8082,142.3,97.0,0.519
29.16,32253.3,35652.0,0.9731,1.6031,142.3,97.0,0.519
29.18,32269.5,35401.3,1.0354,0.9866,142.3,97.0,0.519
29.2,32127.3,35272.6,0.4899,0.6703,142.3,97.0,0.519
29.22,32096.5,35167.1,0.3718,0.4109,142.3,97.0,0.519
29.24,31997.4,35109.6,-0.0085,0.2695,142.3,97.0,0.519
29.26,32129.4,35083.5,0.498,0.2055,142.3,97.0,0.519
29.28,31973.6,34947.2,-0.0995,-0.1295,142.3,97.0,0.519
29.3,31942.9,34783.9,-0.2171,-0.531,142.3,97.0,0.519
29.32,31856.8,34685.7,-0.5474,-0.7726,142.3,97.0,0.519
29.34,31829.7,34685.9,-0.6516,-0.7719,142.3,97.0,0.519
29.36,31904.9,34645.7,-0.3632,-0.8707,142.3,97.0,0.519
29.38,31768.5,34575.0,-0.8864,-1.0447,142.3,97.0,0.519
29.4,31789.0,34601.1,-0.8077,-0.9804,142.3,97.0,0.519
29.42,31854.9,34559.6,-0.5549,-1.0824,142.3,97.0,0.519
29.44,31756.2,34456.7,-0.9336,-1.3354,142.3,97.0,0.519
29.46,31738.2,34458.5,-1.0026,-1.331,142.3,97.0,0.519
29.48,31841.9,34741.5,-0.6046,-0.6352,142.3,97.0,0.519
29.5,31976.4,35019.8,-0.0888,0.049,142.3,97.0,0.519
29.52,32244.4,35468.9,0.9391,1.153,142.3,97.0,0.519
29.54,32345.5,35643.7,1.3268,1.5827,142.3,97.0,0.519
29.56,32315.3,35788.8,1.2111,1.9393,142.3,97.0,0.519
29.58,32215.4,35589.1,0.8279,1.4483,142.3,97.0,0.519
29.6,32214.5,35447.0,0.8246,1.0991,142.3,97.0,0.519
29.62,32151.8,35223.0,0.5838,0.5484,142.3,97.0,0.519
29.64,32002.6,35128.6,0.0118,0.3164,142.3,97.0,0.519
29.66,32078.4,35070.7,0.3025,0.174,142.3,97.0,0.519
29.68,31956.7,35114.3,-0.1646,0.2811,142.3,97.0,0.519
29.7,31962.3,34966.0,-0.1427,-0.0834,142.3,97.0,0.519
29.72,31870.9,34857.5,-0.4936,-0.3501,142.3,97.0,0.519
29.74,31914.3,34735.1,-0.3271,-0.6509,142.3,97.0,0.519
29.76,31816.4,34741.3,-0.7024,-0.6359,142.3,97.0,0.519
29.78,31785.5,34629.6,-0.821,-0.9103,142.3,97.0,0.519
29.8,31785.8,34649.2,-0.8197,-0.8621,142.3,97.0,0.519
29.82,31834.7,34601.2,-0.6324,-0.9801,142.3,97.0,0.519
29.84,31756.4,34584.8,-0.9327,-1.0205,142.3,97.0,0.519
29.86,31793.7,34474.0,-0.7894,-1.2928,142.3,97.0,0.519
29.88,31771.9,34639.8,-0.8733,-0.8853,142.3,97.0,0.519
29.9,31782.2,34696.9,-0.8337,-0.7449,142.3,97.0,0.519
29.92,31995.9,35009.7,-0.0141,0.024,142.3,97.0,0.519
29.94,32275.8,35320.6,1.0597,0.7883,142.3,97.0,0.519
29.96,32231.8,35648.5,0.8907,1.5944,142.3,97.0,0.519
29.98,32378.0,35780.2,1.4514,1.9181,142.3,97.0,0.519
30.0,32284.3,35642.0,1.0922,1.5784,142.3,97.0,0.519
30.02,32255.8,35554.0,0.9828,1.362,142.3,97.0,0.519
30.04,32130.4,35361.9,0.5019,0.8899,142.3,97.0,0.519
30.06,32082.2,35112.0,0.3168,0.2756,142.3,97.0,0.519
30.08,32022.1,35163.6,0.0863,0.4023,142.3,97.0,0.519
30.1,32107.6,34983.0,0.4142,-0.0416,142.3,97.0,0.519
30.12,32021.8,34977.0,0.0852,-0.0563,142.3,97.0,0.519
30.14,31925.1,34872.3,-0.2854,-0.3136,142.3,97.0,0.519
30.16,31971.5,34772.2,-0.1077,-0.5598,142.3,97.0,0.519
30.18,31830.8,34748.4,-0.6473,-0.6183,142.3,97.0,0.519
30.2,31879.9,34706.4,-0.4589,-0.7216,142.3,97.0,0.519
30.22,31883.0,34640.4,-0.4472,-0.8837,142.3,97.0,0.519
30.24,31845.4,34569.9,-0.5914,-1.057,142.3,97.0,0.519
30.26,31830.4,34529.3,-0.6487,-1.1569,142.3,97.0,0.519
30.28,31707.6,34424.0,-1.1197,-1.4158,142.3,97.0,0.519
30.3,31771.0,34578.6,-0.8765,-1.0358,142.3,97.0,0.519
30.32,31822.6,34722.6,-0.6788,-0.6819,142.3,97.0,0.519
30.34,31952.0,34996.2,-0.1826,-0.0091,142.3,97.0,0.519
30.36,32059.7,35461.8,0.2306,1.1354,142.3,97.0,0.519
30.38,32323.6,35646.1,1.2431,1.5884,142.3,97.0,0.519
30.4,32295.2,35786.3,1.1339,1.9331,142.3,97.0,0.519
30.42,32434.8,35698.5,1.6693,1.7174,142.3,97.0,0.519
30.44,32284.7,35493.7,1.0938,1.2138,142.3,97.0,0.519
30.46,32215.2,35312.6,0.827,0.7687,142.3,97.0,0.519
30.48,32089.4,35221.5,0.3447,0.5447,142.3,97.0,0.519
30.5,32169.8,35069.7,0.6531,0.1716,142.3,97.0,0.519
30.52,31968.6,35104.5,-0.1189,0.257,142.3,97.0,0.519
30.54,32071.6,35052.6,0.2764,0.1295,142.3,97.0,0.519
30.56,31945.9,34858.4,-0.2059,-0.348,142.3,97.0,0.519
30.58,31988.9,34761.3,-0.0408,-0.5866,142.3,97.0,0.519
30.6,31856.6,34747.9,-0.5485,-0.6196,142.3,97.0,0.519
30.62,31856.4,34647.2,-0.5491,-0.867,142.3,97.0,0.519
30.64,31829.5,34715.8,-0.6521,-0.6985,142.3,97.0,0.519
30.66,31825.7,34629.0,-0.6669,-0.9117,142.3,97.0,0.519
30.68,31864.4,34565.2,-0.5183,-1.0686,142.3,97.0,0.519
30.7,31748.1,34429.2,-0.9643,-1.4031,142.3,97.0,0.519
30.72,31736.4,34505.1,-1.0093,-1.2164,142.3,97.0,0.519
30.74,31833.1,34612.8,-0.6385,-0.9516,142.3,97.0,0.519
30.76,32017.8,34929.9,0.07,-0.1721,142.3,97.0,0.519
30.78,32166.9,35253.8,0.642,0.6241,142.3,97.0,0.519
30.8,32340.3,35702.1,1.3069,1.7262,142.3,97.0,0.519
30.82,32401.0,35754.5,1.5396,1.8549,142.3,97.0,0.519
30.84,32249.0,35693.3,0.9567,1.7044,142.3,97.0,0.519
30.86,32236.1,35509.1,0.9074,1.2518,142.3,97.0,0.519
30.88,32040.0,35402.3,0.1551,0.9892,142.3,97.0,0.519
30.9,32087.9,35193.4,0.3388,0.4756,142.3,97.0,0.519
30.92,31991.0,35035.9,-0.0329,0.0886,142.3,97.0,0.519
30.94,32031.5,34961.7,0.1224,-0.094,142.3,97.0,0.519
30.96,32041.1,35087.5,0.1593,0.2153,142.3,97.0,0.519
30.98,31925.1,34790.7,-0.2854,-0.5143,142.3,97.0,0.519
31.0,31861.4,34825.0,-0.53,-0.4299,142.3,97.0,0.519
31.02,31921.0,34708.2,-0.3011,-0.7172,142.3,97.0,0.519
31.04,31882.8,34627.5,-0.4478,-0.9155,142.3,97.0,0.519
31.06,31851.9,34613.7,-0.5663,-0.9496,142.3,97.0,0.519
31.08,31871.8,34689.0,-0.4902,-0.7643,142.3,97.0,0.519
31.1,31743.2,34574.9,-0.9832,-1.0448,142.3,97.0,0.519
31.12,31809.6,34428.7,-0.7285,-1.4042,142.3,97.0,0.519
31.14,31718.7,34396.7,-1.0771,-1.483,142.3,97.0,0.519
31.16,31800.1,34531.5,-0.765,-1.1516,142.3,97.0,0.519
31.18,31989.1,34965.6,-0.0401,-0.0843,142.3,97.0,0.519
31.2,32161.7,35350.3,0.622,0.8613,142.3,97.0,0.519
31.22,32366.1,35669.2,1.4059,1.6454,142.3,97.0,0.519
31.24,32386.7,35728.5,1.4848,1.7911,142.3,97.0,0.519
31.26,32389.5,35634.6,1.4955,1.5602,142.3,97.0,0.519
31.28,32224.5,35503.7,0.8628,1.2385,142.3,97.0,0.519
31.3,32191.4,35242.7,0.7357,0.5968,142.3,97.0,0.519
31.32,32053.8,35135.4,0.2079,0.333,142.3,97.0,0.519
31.34,32033.6,35100.7,0.1307,0.2478,142.3,97.0,0.519
31.36,32044.9,35047.6,0.1737,0.1173,142.3,97.0,0.519
31.38,31954.2,34940.3,-0.1739,-0.1466,142.3,97.0,0.519
31.4,31901.3,34865.2,-0.3769,-0.3313,142.3,97.0,0.519
31.42,31787.6,34734.2,-0.813,-0.6532,142.3,97.0,0.519
31.44,31861.1,34725.6,-0.5311,-0.6744,142.3,97.0,0.519
31.46,31872.3,34746.7,-0.488,-0.6225,142.3,97.0,0.519
31.48,31946.9,34628.3,-0.2019,-0.9135,142.3,97.0,0.519
31.5,31894.0,34688.5,-0.4048,-0.7655,142.3,97.0,0.519
31.52,31776.9,34515.9,-0.8542,-1.1898,142.3,97.0,0.519
31.54,31660.3,34441.3,-1.3014,-1.3733,142.3,97.0,0.519
31.56,31723.3,34468.1,-1.0596,-1.3073,142.3,97.0,0.519
31.58,31850.6,34570.6,-0.5713,-1.0555,142.3,97.0,0.519
31.6,31889.4,34990.8,-0.4224,-0.0225,142.3,97.0,0.519
31.62,32041.1,35257.4,0.1592,0.6329,142.3,97.0,0.519
31.64,32266.1,35574.5,1.0225,1.4125,142.3,97.0,0.519
31.66,32410.2,35776.5,1.5749,1.9092,142.3,97.0,0.519
31.68,32356.4,35656.7,1.3687,1.6146,142.3,97.0,0.519
31.7,32146.9,35565.8,0.565,1.3911,142.3,97.0,0.519
31.72,32215.9,35335.7,0.8297,0.8253,142.3,97.0,0.519
31.74,32101.2,35180.2,0.3898,0.4432,142.3,97.0,0.519
31.76,32051.8,35069.6,0.2002,0.1713,142.3,97.0,0.519
31.78,32085.6,35069.1,0.3301,0.1702,142.3,97.0,0.519
31.8,31934.1,35007.8,-0.251,0.0195,142.3,97.0,0.519
31.82,32004.7,34951.7,0.0198,-0.1185,142.3,97.0,0.519
31.84,31923.0,34704.7,-0.2935,-0.7256,142.3,97.0,0.519
31.86,31857.1,34606.4,-0.5464,-0.9673,142.3,97.0,0.519
31.88,31885.0,34696.1,-0.4396,-0.7468,142.3,97.0,0.519
31.9,31826.9,34631.2,-0.6623,-0.9065,142.3,97.0,0.519
31.92,31949.8,34615.6,-0.1907,-0.9448,142.3,97.0,0.519
31.94,31808.2,34457.3,-0.734,-1.3339,142.3,97.0,0.519
31.96,31752.1,34573.3,-0.9492,-1.0488,142.3,97.0,0.519
31.98,31731.3,34559.0,-1.029,-1.0839,142.3,97.0,0.519
32.0,31802.5,34569.2,-0.756,-1.0588,142.3,97.0,0.519
32.02,31950.7,34835.4,-0.1874,-0.4044,142.3,97.0,0.519
32.04,32087.9,35230.1,0.3388,0.5658,142.3,97.0,0.519
32.06,32290.4,35534.7,1.1156,1.3146,142.3,97.0,0.519
32.08,32328.6,35751.9,1.262,1.8486,142.3,97.0,0.519
32.1,32374.1,35725.1,1.4366,1.7827,142.3,97.0,0.519
32.12,32254.3,35556.3,0.9769,1.3677,142.3,97.0,0.519
32.14,32213.0,35347.1,0.8186,0.8535,142.3,97.0,0.519
32.16,32149.8,35211.0,0.5764,0.5188,142.3,97.0,0.519
32.18,32072.8,35046.0,0.2808,0.1133,142.3,97.0,0.519
32.2,32107.0,35133.3,0.4122,0.3278,142.3,97.0,0.519
32.22,31958.4,35070.9,-0.1577,0.1746,142.3,97.0,0.519
32.24,31995.5,34915.8,-0.0155,-0.2067,142.3,97.0,0.519
32.26,31956.6,34846.7,-0.1649,-0.3767,142.3,97.0,0.519
32.28,31819.7,34780.8,-0.69,-0.5388,142.3,97.0,0.519
32.3,31859.8,34674.9,-0.5359,-0.7989,142.3,97.0,0.519
32.32,31826.6,34698.9,-0.6635,-0.74,142.3,97.0,0.519
32.34,31816.2,34544.5,-0.7034,-1.1197,142.3,97.0,0.519
32.36,31849.2,34520.0,-0.5768,-1.1799,142.3,97.0,0.519
32.38,31828.9,34415.3,-0.6547,-1.4371,142.3,97.0,0.519
32.4,31672.7,34416.8,-1.2538,-1.4334,142.3,97.0,0.519
32.42,31793.4,34643.8,-0.7906,-0.8754,142.3,97.0,0.519
32.44,31933.2,34886.4,-0.2545,-0.279,142.3,97.0,0.519
32.46,32158.5,35154.4,0.6097,0.3797,142.3,97.0,0.519
32.48,32185.0,35611.1,0.7114,1.5024,142.3,97.0,0.519
32.5,32300.0,35688.7,1.1523,1.6932,142.3,97.0,0.519
32.52,32311.3,35697.8,1.1959,1.7155,142.3,97.0,0.519
32.54,32234.3,35612.3,0.9004,1.5055,142.3,97.0,0.519
32.56,32147.6,35357.3,0.5677,0.8784,142.3,97.0,0.519
32.58,32033.6,35237.6,0.1308,0.5843,142.3,97.0,0.519
32.6,32182.2,35184.0,0.7007,0.4526,142.3,97.0,0.519
32.62,32061.3,35060.3,0.2366,0.1483,142.3,97.0,0.519
32.64,32074.1,35073.5,0.2858,0.1808,142.3,97.0,0.519
32.66,32048.5,34985.2,0.1876,-0.0363,142.3,97.0,0.519
32.68,31902.5,34743.5,-0.3721,-0.6305,142.3,97.0,0.519
32.7,31896.7,34688.7,-0.3944,-0.7651,142.3,97.0,0.519
32.72,31824.0,34757.0,-0.6733,-0.5972,142.3,97.0,0.519
32.74,31848.1,34736.8,-0.581,-0.6468,142.3,97.0,0.519
32.76,31861.1,34644.4,-0.5312,-0.8739,142.3,97.0,0.519
32.78,31762.6,34632.2,-0.9087,-0.904,142.3,97.0,0.519
32.8,31730.6,34555.7,-1.0317,-1.092,142.3,97.0,0.519
32.82,31706.8,34531.5,-1.1228,-1.1515,142.3,97.0,0.519
32.84,31827.4,34561.0,-0.6602,-1.079,142.3,97.0,0.519
32.86,31975.5,34859.1,-0.0924,-0.3463,142.3,97.0,0.519
32.88,32058.7,35136.4,0.2269,0.3354,142.3,97.0,0.519
32.9,32182.3,35610.7,0.7009,1.5015,142.3,97.0,0.519
32.92,32317.9,35772.0,1.2211,1.8979,142.3,97.0,0.519
32.94,32354.8,35743.0,1.3626,1.8266,142.3,97.0,0.519
32.96,32273.0,35601.8,1.0487,1.4796,142.3,97.0,0.519
32.98,32182.9,35426.1,0.7031,1.0478,142.3,97.0,0.519
33.0,32105.3,35226.4,0.4054,0.5568,142.3,97.0,0.519
33.02,32179.2,35156.4,0.6889,0.3846,142.3,97.0,0.519
33.04,31999.3,35089.2,-0.0008,0.2195,142.3,97.0,0.519
33.06,32036.4,34995.9,0.1415,-0.01,142.3,97.0,0.519
33.08,31929.4,34948.8,-0.269,-0.1256,142.3,97.0,0.519
33.1,31954.4,34814.3,-0.1731,-0.4564,142.3,97.0,0.519
33.12,31940.6,34698.5,-0.226,-0.7411,142.3,97.0,0.519
33.14,31826.9,34673.8,-0.6624,-0.8017,142.3,97.0,0.519
33.16,31831.2,34656.1,-0.6457,-0.8453,142.3,97.0,0.519
33.18,31760.0,34706.0,-0.9189,-0.7226,142.3,97.0,0.519
33.2,31788.5,34593.4,-0.8094,-0.9994,142.3,97.0,0.519
33.22,31731.1,34473.5,-1.0295,-1.2941,142.3,97.0,0.519
33.24,31816.4,34462.5,-0.7026,-1.3211,142.3,97.0,0.519
33.26,31836.1,34517.6,-0.6269,-1.1858,142.3,97.0,0.519
33.28,32026.0,34778.8,0.1013,-0.5436,142.3,97.0,0.519
33.3,32087.8,35184.9,0.3385,0.4548,142.3,97.0,0.519
33.32,32208.3,35539.6,0.8006,1.3266,142.3,97.0,0.519
33.34,32382.2,35779.3,1.4676,1.916,142.3,97.0,0.519
33.36,32341.6,35737.3,1.3121,1.8127,142.3,97.0,0.519
33.38,32260.2,35617.6,0.9998,1.5185,142.3,97.0,0.519
33.4,32227.9,35356.2,0.8756,0.8759,142.3,97.0,0.519
33.42,32185.1,35306.5,0.7117,0.7537,142.3,97.0,0.519
33.44,32125.4,35172.5,0.4826,0.4243,142.3,97.0,0.519
33.46,32049.6,35034.7,0.192,0.0855,142.3,97.0,0.519
33.48,32055.7,35048.8,0.2153,0.1201,142.3,97.0,0.519
33.5,31966.6,34927.2,-0.1263,-0.1789,142.3,97.0,0.519
33.52,31926.5,34861.5,-0.2803,-0.3402,142.3,97.0,0.519
33.54,31884.1,34658.2,-0.4429,-0.8402,142.3,97.0,0.519
33.56,31857.3,34649.9,-0.5455,-0.8605,142.3,97.0,0.519
33.58,31866.6,34727.8,-0.5099,-0.6689,142.3,97.0,0.519
33.6,31889.0,34677.9,-0.4242,-0.7915,142.3,97.0,0.519
33.62,31820.8,34513.5,-0.6855,-1.1958,142.3,97.0,0.519
33.64,31840.1,34505.1,-0.6117,-1.2165,142.3,97.0,0.519
33.66,31744.6,34410.1,-0.9778,-1.4499,142.3,97.0,0.519
33.68,31815.6,34538.4,-0.7056,-1.1346,142.3,97.0,0.519
33.7,31841.1,34828.0,-0.6077,-0.4227,142.3,97.0,0.519
33.72,32098.3,35305.6,0.3786,0.7513,142.3,97.0,0.519
33.74,32297.0,35554.9,1.1408,1.3643,142.3,97.0,0.519
33.76,32269.7,35607.9,1.0361,1.4947,142.3,97.0,0.519
33.78,32369.1,35698.9,1.4175,1.7184,142.3,97.0,0.519
33.8,32204.8,35651.8,0.7874,1.6024,142.3,97.0,0.519
33.82,32197.8,35481.3,0.7602,1.1833,142.3,97.0,0.519
33.84,32102.5,35205.0,0.3947,0.5041,142.3,97.0,0.519
33.86,32069.5,35198.0,0.2684,0.4869,142.3,97.0,0.519
33.88,32073.1,35057.1,0.282,0.1406,142.3,97.0,0.519
33.9,31988.1,34972.6,-0.0438,-0.0671,142.3,97.0,0.519
33.92,31946.5,34947.3,-0.2035,-0.1293,142.3,97.0,0.519
33.94,31956.4,34782.9,-0.1657,-0.5335,142.3,97.0,0.519
33.96,31885.0,34744.8,-0.4395,-0.6272,142.3,97.0,0.519
33.98,31941.5,34677.8,-0.2228,-0.7918,142.3,97.0,0.519
34.0,31810.8,34694.8,-0.724,-0.7501,142.3,97.0,0.519
34.02,31802.5,34699.5,-0.7559,-0.7386,142.3,97.0,0.519
34.04,31839.6,34558.6,-0.6134,-1.0849,142.3,97.0,0.519
34.06,31804.0,34541.3,-0.75,-1.1275,142.3,97.0,0.519
34.08,31768.6,34403.0,-0.886,-1.4674,142.3,97.0,0.519
34.1,31764.4,34597.7,-0.9019,-0.9887,142.3,97.0,0.519
34.12,31899.5,34772.5,-0.3839,-0.5591,142.3,97.0,0.519
34.14,32141.4,35054.2,0.5442,0.1335,142.3,97.0,0.519
34.16,32158.8,35554.3,0.6108,1.3629,142.3,97.0,0.519
34.18,32373.7,35662.8,1.435,1.6296,142.3,97.0,0.519
34.2,32421.2,35797.1,1.6173,1.9596,142.3,97.0,0.519
34.22,32281.6,35562.6,1.0816,1.3832,142.3,97.0,0.519
34.24,32097.0,35513.0,0.3736,1.2613,142.3,97.0,0.519
34.26,32147.2,35291.9,0.5661,0.7178,142.3,97.0,0.519
34.28,32065.9,35050.2,0.2544,0.1235,142.3,97.0,0.519
34.3,32018.6,35076.4,0.0729,0.1881,142.3,97.0,0.519
34.32,32045.8,35023.5,0.1773,0.0579,142.3,97.0,0.519
34.34,31929.0,34878.9,-0.2706,-0.2974,142.3,97.0,0.519
34.36,32018.8,34893.0,0.0737,-0.2627,142.3,97.0,0.519
34.38,31859.2,34734.4,-0.5385,-0.6528,142.3,97.0,0.519
34.4,31842.2,34626.2,-0.6037,-0.9188,142.3,97.0,0.519
34.42,31913.8,34618.5,-0.329,-0.9377,142.3,97.0,0.519
34.44,31837.1,34595.8,-0.6231,-0.9936,142.3,97.0,0.519
34.46,31721.8,34569.2,-1.0655,-1.0588,142.3,97.0,0.519
34.48,31783.9,34471.8,-0.8271,-1.2984,142.3,97.0,0.519
34.5,31721.3,34453.5,-1.0673,-1.3433,142.3,97.0,0.519
34.52,31821.6,34506.3,-0.6827,-1.2136,142.3,97.0,0.519
34.54,31829.5,34724.6,-0.6524,-0.6768,142.3,97.0,0.519
34.56,32084.2,35065.2,0.3246,0.1605,142.3,97.0,0.519
34.58,32191.5,35501.4,0.7363,1.2329,142.3,97.0,0.519
34.6,32366.2,35615.9,1.4063,1.5144,142.3,97.0,0.519
34.62,32364.1,35727.3,1.3981,1.788,142.3,97.0,0.519
34.64,32328.9,35662.0,1.2631,1.6275,142.3,97.0,0.519
34.66,32275.2,35490.6,1.0573,1.2062,142.3,97.0,0.519
34.68,32090.1,35297.8,0.3474,0.7322,142.3,97.0,0.519
34.7,32046.0,35146.0,0.1783,0.359,142.3,97.0,0.519
34.72,32110.3,35040.4,0.4249,0.0996,142.3,97.0,0.519
34.74,32068.9,35123.3,0.2661,0.3033,142.3,97.0,0.519
34.76,32019.4,34901.2,0.076,-0.2428,142.3,97.0,0.519
34.78,31886.3,34812.2,-0.4344,-0.4614,142.3,97.0,0.519
34.8,31833.5,34728.5,-0.637,-0.6672,142.3,97.0,0.519
34.82,31905.7,34718.5,-0.3599,-0.6917,142.3,97.0,0.519
34.84,31854.6,34789.2,-0.5558,-0.5181,142.3,97.0,0.519
34.86,31884.4,34702.2,-0.4417,-0.7318,142.3,97.0,0.519
34.88,31726.5,34565.7,-1.0475,-1.0674,142.3,97.0,0.519
34.9,31846.9,34611.9,-0.5854,-0.9538,142.3,97.0,0.519
34.92,31809.4,34457.4,-0.7294,-1.3336,142.3,97.0,0.519
34.94,31707.0,34501.5,-1.1221,-1.2254,142.3,97.0,0.519
34.96,31960.8,34774.5,-0.1487,-0.5542,142.3,97.0,0.519
34.98,31994.1,35028.9,-0.0211,0.0713,142.3,97.0,0.519
35.0,32221.0,35437.6,0.8492,1.0759,142.3,97.0,0.519
35.02,32325.0,35733.7,1.2482,1.804,142.3,97.0,0.519
35.04,32438.6,35709.8,1.684,1.7451,142.3,97.0,0.519
35.06,32223.3,35600.6,0.8581,1.4767,142.3,97.0,0.519
35.08,32258.8,35502.5,0.9945,1.2355,142.3,97.0,0.519
35.1,32060.4,35238.8,0.2332,0.5872,142.3,97.0,0.519
35.12,32040.3,35170.6,0.1564,0.4197,142.3,97.0,0.519
35.14,32091.7,35065.3,0.3535,0.1607,142.3,97.0,0.519
35.16,31992.5,35012.5,-0.027,0.031,142.3,97.0,0.519
35.18,31904.2,34911.8,-0.3656,-0.2165,142.3,97.0,0.519
35.2,31903.6,34853.0,-0.3679,-0.3612,142.3,97.0,0.519
35.22,31903.1,34765.8,-0.3698,-0.5755,142.3,97.0,0.519
35.24,31856.4,34634.9,-0.5491,-0.8974,142.3,97.0,0.519
35.26,31946.5,34697.1,-0.2036,-0.7444,142.3,97.0,0.519
35.28,31869.4,34701.4,-0.4991,-0.7338,142.3,97.0,0.519
35.3,31775.1,34698.4,-0.8611,-0.7412,142.3,97.0,0.519
35.32,31744.1,34605.8,-0.9799,-0.9689,142.3,97.0,0.519
35.34,31749.0,34317.0,-0.961,-1.6788,142.3,97.0,0.519
35.36,31775.1,34512.2,-0.8609,-1.1989,142.3,97.0,0.519
35.38,31900.1,34711.1,-0.3816,-0.71,142.3,97.0,0.519
35.4,32051.0,35123.6,0.1972,0.3041,142.3,97.0,0.519
35.42,32272.3,35437.7,1.046,1.0761,142.3,97.0,0.519
35.44,32214.7,35653.3,0.8253,1.6062,142.3,97.0,0.519
35.46,32396.6,35802.1,1.523,1.9719,142.3,97.0,0.519
35.48,32269.0,35705.7,1.0336,1.7351,142.3,97.0,0.519
35.5,32248.8,35521.3,0.9561,1.2816,142.3,97.0,0.519
35.52,32169.7,35261.0,0.6525,0.6417,142.3,97.0,0.519
35.54,32150.6,35111.4,0.5793,0.274,142.3,97.0,0.519
35.56,31997.0,35119.8,-0.01,0.2946,142.3,97.0,0.519
35.58,32008.8,35041.0,0.0355,0.1009,142.3,97.0,0.519
35.6,31970.9,34918.1,-0.1099,-0.2012,142.3,97.0,0.519
35.62,31869.6,34821.6,-0.4983,-0.4384,142.3,97.0,0.519
35.64,31797.4,34718.5,-0.7753,-0.6918,142.3,97.0,0.519
35.66,31961.9,34661.4,-0.1444,-0.8321,142.3,97.0,0.519
35.68,31888.9,34693.5,-0.4243,-0.7533,142.3,97.0,0.519
35.7,31951.4,34717.4,-0.1849,-0.6946,142.3,97.0,0.519
35.72,31814.0,34613.0,-0.7116,-0.9511,142.3,97.0,0.519
35.74,31782.7,34483.2,-0.8317,-1.2703,142.3,97.0,0.519
35.76,31780.4,34517.4,-0.8406,-1.1862,142.3,97.0,0.519
35.78,31832.4,34456.6,-0.6411,-1.3358,142.3,97.0,0.519
35.8,31828.1,34689.8,-0.6578,-0.7623,142.3,97.0,0.519
35.82,32025.8,35029.7,0.1007,0.0732,142.3,97.0,0.519
35.84,32270.5,35415.9,1.039,1.0226,142.3,97.0,0.519
35.86,32373.8,35594.4,1.4356,1.4613,142.3,97.0,0.519
35.88,32314.8,35736.7,1.2091,1.8113,142.3,97.0,0.519
35.9,32320.4,35542.6,1.2307,1.3341,142.3,97.0,0.519
35.92,32201.0,35509.6,0.7727,1.2529,142.3,97.0,0.519
35.94,32206.1,35364.9,0.7924,0.8971,142.3,97.0,0.519
35.96,32043.3,35087.9,0.1678,0.2162,142.3,97.0,0.519
35.98,32039.6,35094.1,0.1535,0.2314,142.3,97.0,0.519
36.0,32045.6,34986.6,0.1766,-0.0326,142.3,97.0,0.519
36.02,32004.6,34975.1,0.0192,-0.0611,142.3,97.0,0.519
36.04,31884.6,34863.7,-0.4408,-0.3348,142.3,97.0,0.519
36.06,31919.9,34761.5,-0.3055,-0.5862,142.3,97.0,0.519
36.08,31860.4,34685.3,-0.5337,-0.7734,142.3,97.0,0.519
36.1,31888.3,34667.4,-0.4269,-0.8173,142.3,97.0,0.519
36.12,31794.2,34694.8,-0.7876,-0.7501,142.3,97.0,0.519
36.14,31874.6,34633.0,-0.4794,-0.9021,142.3,97.0,0.519
36.16,31864.2,34480.9,-0.5192,-1.2759,142.3,97.0,0.519
36.18,31765.0,34498.2,-0.8996,-1.2334,142.3,97.0,0.519
36.2,31711.0,34442.3,-1.1068,-1.3709,142.3,97.0,0.519
36.22,31812.1,34720.4,-0.719,-0.6872,142.3,97.0,0.519
36.24,32007.6,34970.4,0.0307,-0.0726,142.3,97.0,0.519
36.26,32222.3,35391.3,0.8542,0.9622,142.3,97.0,0.519
36.28,32360.7,35660.3,1.3852,1.6235,142.3,97.0,0.519
36.3,32400.7,35712.9,1.5385,1.7526,142.3,97.0,0.519
36.32,32356.3,35660.8,1.3683,1.6245,142.3,97.0,0.519
36.34,32234.4,35507.2,0.9009,1.2471,142.3,97.0,0.519
36.36,32181.9,35267.0,0.6995,0.6565,142.3,97.0,0.519
36.38,32063.1,35137.1,0.2435,0.3373,142.3,97.0,0.519
36.4,32062.9,35186.5,0.2429,0.4586,142.3,97.0,0.519
36.42,32045.7,35124.8,0.1769,0.3069,142.3,97.0,0.519
36.44,31931.7,34954.4,-0.2603,-0.1118,142.3,97.0,0.519
36.46,31882.4,34796.8,-0.4494,-0.4994,142.3,97.0,0.519
36.48,31974.6,34739.3,-0.0958,-0.6407,142.3,97.0,0.519
36.5,31923.3,34751.7,-0.2925,-0.6102,142.3,97.0,0.519
36.52,31900.9,34671.7,-0.3785,-0.8069,142.3,97.0,0.519
36.54,31843.1,34612.0,-0.6001,-0.9535,142.3,97.0,0.519
36.56,31769.8,34606.5,-0.8812,-0.9671,142.3,97.0,0.519
36.58,31765.9,34505.5,-0.8962,-1.2155,142.3,97.0,0.519
36.6,31744.8,34392.4,-0.9772,-1.4935,142.3,97.0,0.519
36.62,31701.9,34489.3,-1.1417,-1.2553,142.3,97.0,0.519
36.64,31835.7,34691.6,-0.6283,-0.758,142.3,97.0,0.519
36.66,32035.8,34985.5,0.1391,-0.0354,142.3,97.0,0.519
36.68,32183.4,35261.6,0.7053,0.6434,142.3,97.0,0.519
36.7,32224.3,35604.0,0.862,1.485,142.3,97.0,0.519
36.72,32423.7,35747.4,1.627,1.8376,142.3,97.0,0.519
36.74,32296.4,35740.5,1.1384,1.8205,142.3,97.0,0.519
36.76,32259.5,35529.4,0.9971,1.3015,142.3,97.0,0.519
36.78,32211.4,35330.0,0.8127,0.8115,142.3,97.0,0.519
36.8,32111.1,35253.0,0.4279,0.6223,142.3,97.0,0.519
36.82,32068.0,34966.5,0.2626,-0.0823,142.3,97.0,0.519
36.84,32060.7,35036.1,0.2345,0.089,142.3,97.0,0.519
36.86,32017.6,34990.0,0.0692,-0.0244,142.3,97.0,0.519
36.88,31956.4,34889.0,-0.1655,-0.2727,142.3,97.0,0.519
36.9,32016.3,34730.5,0.0642,-0.6622,142.3,97.0,0.519
36.92,31874.1,34686.6,-0.4811,-0.7702,142.3,97.0,0.519
36.94,31847.7,34618.9,-0.5826,-0.9367,142.3,97.0,0.519
36.96,31755.4,34654.3,-0.9363,-0.8497,142.3,97.0,0.519
36.98,31823.6,34611.2,-0.6749,-0.9557,142.3,97.0,0.519
37.0,31839.2,34536.5,-0.6151,-1.1392,142.3,97.0,0.519
37.02,31696.8,34417.2,-1.1613,-1.4325,142.3,97.0,0.519
37.04,31711.9,34448.3,-1.1034,-1.3561,142.3,97.0,0.519
37.06,31796.4,34678.3,-0.7791,-0.7907,142.3,97.0,0.519
37.08,31919.1,34985.5,-0.3087,-0.0355,142.3,97.0,0.519
37.1,32201.2,35327.1,0.7734,0.8042,142.3,97.0,0.519
37.12,32271.3,35626.7,1.0424,1.5409,142.3,97.0,0.519
37.14,32256.4,35753.9,0.9852,1.8536,142.3,97.0,0.519
37.16,32342.7,35790.7,1.3162,1.944,142.3,97.0,0.519
37.18,32195.5,35545.3,0.7517,1.3408,142.3,97.0,0.519
37.2,32112.5,35340.4,0.4331,0.837,142.3,97.0,0.519
37.22,32119.8,35186.6,0.4611,0.4589,142.3,97.0,0.519
37.24,32035.1,35163.9,0.1363,0.403,142.3,97.0,0.519
37.26,31925.7,35115.2,-0.2831,0.2833,142.3,97.0,0.519
37.28,31986.9,35026.4,-0.0484,0.0652,142.3,97.0,0.519
37.3,31967.8,34874.8,-0.1217,-0.3076,142.3,97.0,0.519
37.32,31920.3,34861.9,-0.3041,-0.3394,142.3,97.0,0.519
37.34,31923.8,34731.1,-0.2905,-0.6608,142.3,97.0,0.519
37.36,31872.5,34598.7,-0.4875,-0.9864,142.3,97.0,0.519
37.38,31828.6,34692.9,-0.6557,-0.7547,142.3,97.0,0.519
37.4,31788.3,34590.1,-0.8102,-1.0073,142.3,97.0,0.519
37.42,31834.3,34509.7,-0.634,-1.2051,142.3,97.0,0.519
37.44,31679.6,34442.4,-1.2274,-1.3705,142.3,97.0,0.519
37.46,31680.5,34440.0,-1.2236,-1.3765,142.3,97.0,0.519
37.48,31787.9,34641.7,-0.812,-0.8805,142.3,97.0,0.519
37.5,31894.5,34908.1,-0.4028,-0.2257,142.3,97.0,0.519
37.52,32149.4,35266.4,0.5749,0.655,142.3,97.0,0.519
37.54,32178.0,35557.2,0.6844,1.3699,142.3,97.0,0.519
37.56,32339.9,35780.3,1.3053,1.9184,142.3,97.0,0.519
37.58,32375.3,35702.4,1.441,1.727,142.3,97.0,0.519
37.6,32245.1,35517.5,0.9419,1.2723,142.3,97.0,0.519
37.62,32257.6,35338.2,0.9896,0.8316,142.3,97.0,0.519
37.64,32080.7,35142.7,0.3113,0.351,142.3,97.0,0.519
37.66,32097.2,35133.5,0.3746,0.3283,142.3,97.0,0.519
37.68,31978.6,35071.9,-0.0804,0.177,142.3,97.0,0.519
37.7,31965.7,35007.0,-0.1298,0.0173,142.3,97.0,0.519
37.72,31905.0,34984.6,-0.3628,-0.0376,142.3,97.0,0.519
37.74,31816.8,34945.1,-0.7011,-0.1347,142.3,97.0,0.519
37.76,31837.0,34625.8,-0.6237,-0.9198,142.3,97.0,0.519
37.78,31796.5,34702.4,-0.779,-0.7314,142.3,97.0,0.519
37.8,31886.8,34710.5,-0.4325,-0.7114,142.3,97.0,0.519
37.82,31744.9,34592.1,-0.9769,-1.0026,142.3,97.0,0.519
37.84,31811.8,34513.7,-0.7203,-1.1953,142.3,97.0,0.519
37.86,31788.2,34458.9,-0.8106,-1.3301,142.3,97.0,0.519
37.88,31817.3,34474.2,-0.6991,-1.2925,142.3,97.0,0.519
37.9,31824.5,34574.2,-0.6714,-1.0464,142.3,97.0,0.519
37.92,31918.3,34867.9,-0.3116,-0.3245,142.3,97.0,0.519
37.94,32128.2,35312.3,0.4935,0.7678,142.3,97.0,0.519
37.96,32243.0,35554.4,0.9336,1.363,142.3,97.0,0.519
37.98,32385.8,35776.8,1.4815,1.9099,142.3,97.0,0.519
38.0,32296.6,35723.6,1.1393,1.779,142.3,97.0,0.519
38.02,32325.1,35540.9,1.2488,1.3298,142.3,97.0,0.519
38.04,32179.8,35345.3,0.6915,0.849,142.3,97.0,0.519
38.06,32130.2,35222.2,0.5011,0.5464,142.3,97.0,0.519
38.08,31998.3,35105.5,-0.0049,0.2594,142.3,97.0,0.519
38.1,31913.3,35105.8,-0.331,0.2603,142.3,97.0,0.519
38.12,32005.7,35031.9,0.0235,0.0786,142.3,97.0,0.519
38.14,31926.8,34837.5,-0.279,-0.3994,142.3,97.0,0.519
38.16,31967.1,34776.4,-0.1243,-0.5496,142.3,97.0,0.519
38.18,31891.6,34806.7,-0.4142,-0.4749,142.3,97.0,0.519
38.2,31870.6,34694.4,-0.4947,-0.751,142.3,97.0,0.519
38.22,31900.5,34604.9,-0.38,-0.971,142.3,97.0,0.519
38.24,31799.9,34710.1,-0.7658,-0.7124,142.3,97.0,0.519
38.26,31832.2,34575.1,-0.6421,-1.0444,142.3,97.0,0.519
38.28,31732.7,34513.0,-1.0235,-1.1969,142.3,97.0,0.519
38.3,31787.3,34478.3,-0.814,-1.2823,142.3,97.0,0.519
38.32,31793.4,34567.7,-0.7909,-1.0625,142.3,97.0,0.519
38.34,32018.3,34911.5,0.0718,-0.2174,142.3,97.0,0.519
38.36,32075.3,35222.0,0.2905,0.546,142.3,97.0,0.519
38.38,32201.4,35483.2,0.7743,1.1881,142.3,97.0,0.519
38.4,32381.1,35743.2,1.4635,1.8272,142.3,97.0,0.519
38.42,32397.2,35737.3,1.5252,1.8127,142.3,97.0,0.519
38.44,32207.7,35497.0,0.7982,1.2219,142.3,97.0,0.519
38.46,32164.4,35365.3,0.6323,0.8981,142.3,97.0,0.519
38.48,32032.7,35239.1,0.1271,0.5879,142.3,97.0,0.519
38.5,31962.3,35072.0,-0.1427,0.1771,142.3,97.0,0.519
38.52,32011.9,35107.2,0.0475,0.2637,142.3,97.0,0.519
38.54,31977.0,35025.7,-0.0864,0.0633,142.3,97.0,0.519
38.56,31973.4,34938.0,-0.1002,-0.1522,142.3,97.0,0.519
38.58,31865.9,34786.1,-0.5126,-0.5256,142.3,97.0,0.519
38.6,31929.6,34654.0,-0.2684,-0.8503,142.3,97.0,0.519
38.62,31842.4,34682.7,-0.603,-0.7798,142.3,97.0,0.519
38.64,31866.4,34675.0,-0.5106,-0.7987,142.3,97.0,0.519
38.66,31807.2,34682.2,-0.7379,-0.7812,142.3,97.0,0.519
38.68,31787.1,34587.0,-0.8149,-1.0152,142.3,97.0,0.519
38.7,31721.4,34352.7,-1.0669,-1.591,142.3,97.0,0.519
38.72,31734.8,34482.8,-1.0156,-1.2713,142.3,97.0,0.519
38.74,31762.4,34490.9,-0.9098,-1.2514,142.3,97.0,0.519
38.76,31947.9,34789.3,-0.1981,-0.5178,142.3,97.0,0.519
38.78,32098.1,35256.9,0.3781,0.6317,142.3,97.0,0.519
38.8,32202.5,35591.7,0.7784,1.4547,142.3,97.0,0.519
38.82,32396.6,35808.9,1.523,1.9887,142.3,97.0,0.519
38.84,32347.7,35812.9,1.3353,1.9985,142.3,97.0,0.519
38.86,32237.0,35561.6,0.9109,1.3809,142.3,97.0,0.519
38.88,32111.3,35380.9,0.4288,0.9366,142.3,97.0,0.519
38.9,32176.1,35191.1,0.6769,0.4699,142.3,97.0,0.519
38.92,31982.8,35126.5,-0.0644,0.3112,142.3,97.0,0.519
38.94,32011.6,35081.2,0.0461,0.1998,142.3,97.0,0.519
38.96,32057.4,35003.0,0.2219,0.0076,142.3,97.0,0.519
38.98,31943.0,34896.0,-0.217,-0.2556,142.3,97.0,0.519
39.0,31851.6,34814.8,-0.5677,-0.455,142.3,97.0,0.519
39.02,31837.3,34774.9,-0.6222,-0.5531,142.3,97.0,0.519
39.04,31899.5,34765.6,-0.3837,-0.5761,142.3,97.0,0.519
39.06,31799.3,34625.5,-0.768,-0.9204,142.3,97.0,0.519
39.08,31777.2,34659.8,-0.8528,-0.836,142.3,97.0,0.519
39.1,31830.6,34579.2,-0.6479,-1.0344,142.3,97.0,0.519
39.12,31759.9,34422.8,-0.9193,-1.4187,142.3,97.0,0.519
39.14,31698.1,34390.6,-1.1562,-1.4979,142.3,97.0,0.519
39.16,31811.2,34501.4,-0.7223,-1.2254,142.3,97.0,0.519
39.18,31855.5,34779.3,-0.5525,-0.5424,142.3,97.0,0.519
39.2,32066.7,35165.6,0.2573,0.4072,142.3,97.0,0.519
39.22,32231.3,35497.1,0.8889,1.2223,142.3,97.0,0.519
39.24,32380.6,35756.3,1.4616,1.8593,142.3,97.0,0.519
39.26,32256.4,35730.0,0.9852,1.7949,142.3,97.0,0.519
39.28,32249.7,35558.3,0.9595,1.3727,142.3,97.0,0.519
39.3,32279.9,35501.0,1.0754,1.2318,142.3,97.0,0.519
39.32,32144.5,35253.5,0.5561,0.6233,142.3,97.0,0.519
39.34,32110.8,35153.5,0.4268,0.3776,142.3,97.0,0.519
39.36,32087.2,35110.3,0.3362,0.2713,142.3,97.0,0.519
39.38,31979.9,35009.0,-0.0755,0.0223,142.3,97.0,0.519
39.4,32029.8,34882.1,0.1161,-0.2895,142.3,97.0,0.519
39.42,31909.9,34903.7,-0.344,-0.2366,142.3,97.0,0.519
39.44,31803.9,34764.7,-0.7505,-0.5782,142.3,97.0,0.519
39.46,31891.8,34640.8,-0.4132,-0.8828,142.3,97.0,0.519
39.48,31848.2,34715.6,-0.5804,-0.6989,142.3,97.0,0.519
39.5,31805.0,34566.2,-0.7461,-1.0663,142.3,97.0,0.519
39.52,31837.4,34536.5,-0.6219,-1.1392,142.3,97.0,0.519
39.54,31708.0,34425.9,-1.1183,-1.4111,142.3,97.0,0.519
39.56,31729.0,34386.6,-1.0376,-1.5077,142.3,97.0,0.519
39.58,31798.1,34604.5,-0.7727,-0.9722,142.3,97.0,0.519
39.6,31943.5,34863.9,-0.2148,-0.3345,142.3,97.0,0.519
39.62,32070.7,35133.3,0.2728,0.3278,142.3,97.0,0.519
39.64,32222.4,35587.1,0.8546,1.4435,142.3,97.0,0.519
39.66,32293.0,35698.1,1.1256,1.7164,142.3,97.0,0.519
39.68,32320.2,35687.1,1.23,1.6894,142.3,97.0,0.519
39.7,32294.4,35580.5,1.1307,1.4273,142.3,97.0,0.519
39.72,32115.5,35463.5,0.4445,1.1396,142.3,97.0,0.519
39.74,32156.5,35220.5,0.6019,0.5423,142.3,97.0,0.519
39.76,32037.7,35238.2,0.1464,0.5858,142.3,97.0,0.519
39.78,32038.3,35121.5,0.1486,0.299,142.3,97.0,0.519
39.8,32131.7,35039.7,0.5068,0.0977,142.3,97.0,0.519
39.82,32015.4,34974.1,0.0608,-0.0636,142.3,97.0,0.519
39.84,31968.4,34892.4,-0.1195,-0.2643,142.3,97.0,0.519
39.86,31927.3,34718.6,-0.2772,-0.6915,142.3,97.0,0.519
39.88,31822.8,34643.3,-0.6781,-0.8768,142.3,97.0,0.519
39.9,31872.2,34589.4,-0.4883,-1.0092,142.3,97.0,0.519
39.92,31843.3,34654.8,-0.5995,-0.8484,142.3,97.0,0.519
39.94,31837.6,34606.4,-0.6213,-0.9673,142.3,97.0,0.519
39.96,31801.2,34432.0,-0.7607,-1.3962,142.3,97.0,0.519
39.98,31714.5,34427.3,-1.0932,-1.4078,142.3,97.0,0.519
40.0,31684.2,34550.6,-1.2095,-1.1046,142.3,97.0,0.519
40.02,31889.5,34706.7,-0.4223,-0.7208,142.3,97.0,0.519
40.04,32034.1,35023.4,0.1325,0.0578,142.3,97.0,0.519
40.06,32139.7,35426.5,0.5377,1.0486,142.3,97.0,0.519
40.08,32334.7,35608.5,1.2853,1.4961,142.3,97.0,0.519
40.1,32363.4,35749.1,1.3954,1.8418,142.3,97.0,0.519
40.12,32349.4,35646.3,1.3417,1.5889,142.3,97.0,0.519
40.14,32159.4,35347.3,0.613,0.854,142.3,97.0,0.519
40.16,32132.5,35203.3,0.5098,0.5,142.3,97.0,0.519
40.18,32066.2,35182.5,0.2555,0.4488,142.3,97.0,0.519
40.2,32049.1,35184.0,0.19,0.4525,142.3,97.0,0.519
40.22,31944.5,35102.7,-0.211,0.2526,142.3,97.0,0.519
40.24,32016.3,34947.4,0.0643,-0.1291,142.3,97.0,0.519
40.26,31930.3,34931.0,-0.2658,-0.1695,142.3,97.0,0.519
40.28,31957.0,34696.7,-0.1634,-0.7454,142.3,97.0,0.519
40.3,31806.7,34604.6,-0.7397,-0.9718,142.3,97.0,0.519
40.32,31850.6,34643.6,-0.5713,-0.876,142.3,97.0,0.519
40.34,31851.5,34644.6,-0.5678,-0.8734,142.3,97.0,0.519
40.36,31823.4,34653.5,-0.6758,-0.8516,142.3,97.0,0.519
40.38,31743.8,34553.3,-0.9812,-1.0979,142.3,97.0,0.519
40.4,31748.3,34456.6,-0.9637,-1.3357,142.3,97.0,0.519
40.42,31685.2,34565.8,-1.2058,-1.0671,142.3,97.0,0.519
40.44,31809.5,34785.4,-0.729,-0.5273,142.3,97.0,0.519
40.46,32071.8,35060.2,0.2771,0.1481,142.3,97.0,0.519
40.48,32149.7,35428.1,0.5757,1.0525,142.3,97.0,0.519
40.5,32238.6,35660.2,0.9168,1.6231,142.3,97.0,0.519
40.52,32319.0,35805.9,1.2253,1.9814,142.3,97.0,0.519
40.54,32243.8,35670.4,0.9368,1.6482,142.3,97.0,0.519
40.56,32214.4,35416.6,0.8242,1.0243,142.3,97.0,0.519
40.58,32013.3,35347.4,0.0527,0.8543,142.3,97.0,0.519
40.6,32059.9,35155.0,0.2316,0.3813,142.3,97.0,0.519
40.62,32024.5,35074.0,0.0955,0.182,142.3,97.0,0.519
40.64,32021.5,35003.5,0.0842,0.0089,142.3,97.0,0.519
40.66,31923.2,35005.7,-0.2927,0.0143,142.3,97.0,0.519
40.68,31840.6,34818.6,-0.6099,-0.4458,142.3,97.0,0.519
40.7,31938.6,34761.3,-0.2338,-0.5866,142.3,97.0,0.519
40.72,31811.9,34634.6,-0.7198,-0.898,142.3,97.0,0.519
40.74,31874.4,34684.4,-0.48,-0.7757,142.3,97.0,0.519
40.76,31846.5,34582.4,-0.5872,-1.0264,142.3,97.0,0.519
40.78,31849.6,34582.8,-0.5751,-1.0255,142.3,97.0,0.519
40.8,31785.6,34530.5,-0.8206,-1.1541,142.3,97.0,0.519
40.82,31684.8,34578.3,-1.2074,-1.0364,142.3,97.0,0.519
40.84,31820.3,34504.1,-0.6875,-1.2188,142.3,97.0,0.519
40.86,31843.4,34715.5,-0.599,-0.6992,142.3,97.0,0.519
40.88,31966.8,34981.6,-0.1258,-0.0451,142.3,97.0,0.519
40.9,32157.9,35454.7,0.6074,1.1179,142.3,97.0,0.519
40.92,32338.3,35664.8,1.2992,1.6345,142.3,97.0,0.519
40.94,32322.5,35797.1,1.2385,1.9597,142.3,97.0,0.519
40.96,32241.9,35701.8,0.9295,1.7254,142.3,97.0,0.519
40.98,32323.1,35361.9,1.241,0.8899,142.3,97.0,0.519
41.0,32088.9,35285.8,0.3425,0.7027,142.3,97.0,0.519
41.02,32157.6,35159.5,0.6062,0.3922,142.3,97.0,0.519
41.04,31988.6,35149.2,-0.0421,0.367,142.3,97.0,0.519
41.06,32066.5,35022.9,0.2567,0.0566,142.3,97.0,0.519
41.08,32064.2,34885.7,0.2479,-0.2808,142.3,97.0,0.519
41.1,31934.5,34854.9,-0.2495,-0.3564,142.3,97.0,0.519
41.12,31791.5,34756.6,-0.7981,-0.5981,142.3,97.0,0.519
41.14,31829.9,34693.5,-0.6509,-0.7533,142.3,97.0,0.519
41.16,31820.5,34654.2,-0.6867,-0.8499,142.3,97.0,0.519
41.18,31754.2,34683.7,-0.9413,-0.7773,142.3,97.0,0.519
41.2,31832.0,34533.1,-0.6428,-1.1475,142.3,97.0,0.519
41.22,31755.1,34434.0,-0.9375,-1.3912,142.3,97.0,0.519
41.24,31799.2,34444.3,-0.7684,-1.3659,142.3,97.0,0.519
41.26,31684.8,34565.8,-1.2074,-1.0673,142.3,97.0,0.519
41.28,31738.5,34701.5,-1.0011,-0.7337,142.3,97.0,0.519
41.3,32020.0,35029.3,0.0782,0.0723,142.3,97.0,0.519
41.32,32217.2,35285.9,0.8349,0.7031,142.3,97.0,0.519
41.34,32380.5,35683.3,1.4611,1.6798,142.3,97.0,0.519
41.36,32375.1,35814.6,1.4406,2.0026,142.3,97.0,0.519
41.38,32254.1,35716.1,0.9764,1.7605,142.3,97.0,0.519
41.4,32295.5,35359.6,1.1351,0.8843,142.3,97.0,0.519
41.42,32140.1,35307.2,0.5392,0.7555,142.3,97.0,0.519
41.44,31997.4,35176.4,-0.0083,0.4339,142.3,97.0,0.519
41.46,32070.1,35167.9,0.2705,0.413,142.3,97.0,0.519
41.48,32058.6,34993.8,0.2265,-0.0151,142.3,97.0,0.519
41.5,32013.5,34945.5,0.0533,-0.1338,142.3,97.0,0.519
41.52,32007.1,34753.4,0.029,-0.606,142.3,97.0,0.519
41.54,31868.9,34768.4,-0.5012,-0.5692,142.3,97.0,0.519
41.56,31843.2,34748.5,-0.5998,-0.6182,142.3,97.0,0.519
41.58,31782.7,34771.9,-0.8319,-0.5605,142.3,97.0,0.519
41.6,31823.8,34723.0,-0.674,-0.6807,142.3,97.0,0.519
41.62,31924.6,34618.5,-0.2877,-0.9376,142.3,97.0,0.519
41.64,31742.0,34573.1,-0.9878,-1.0493,142.3,97.0,0.519
41.66,31766.2,34502.1,-0.8951,-1.2238,142.3,97.0,0.519
41.68,31742.5,34474.0,-0.986,-1.2928,142.3,97.0,0.519
41.7,31880.3,34719.5,-0.4576,-0.6894,142.3,97.0,0.519
41.72,31973.1,34973.7,-0.1016,-0.0646,142.3,97.0,0.519
41.74,32130.7,35366.5,0.5031,0.9011,142.3,97.0,0.519
41.76,32258.2,35699.7,0.9921,1.7203,142.3,97.0,0.519
41.78,32189.1,35749.5,0.7268,1.8426,142.3,97.0,0.519
41.8,32324.5,35684.3,1.2465,1.6823,142.3,97.0,0.519
41.82,32254.1,35459.9,0.9763,1.1308,142.3,97.0,0.519
41.84,32220.0,35343.9,0.8456,0.8457,142.3,97.0,0.519
41.86,32008.1,35123.8,0.0328,0.3045,142.3,97.0,0.519
41.88,32097.9,35055.8,0.3772,0.1373,142.3,97.0,0.519
41.9,32045.5,34945.6,0.1762,-0.1335,142.3,97.0,0.519
41.92,31970.5,34928.4,-0.1115,-0.1759,142.3,97.0,0.519
41.94,31868.0,34920.3,-0.5048,-0.1958,142.3,97.0,0.519
41.96,31878.6,34731.2,-0.4641,-0.6607,142.3,97.0,0.519
41.98,31956.2,34722.8,-0.1663,-0.6812,142.3,97.0,0.519
42.0,31831.9,34682.9,-0.6429,-0.7794,142.3,97.0,0.519
42.02,31841.3,34601.0,-0.6072,-0.9807,142.3,97.0,0.519
42.04,31731.6,34654.1,-1.0277,-0.8502,142.3,97.0,0.519
42.06,31830.7,34554.7,-0.6476,-1.0946,142.3,97.0,0.519
42.08,31738.3,34523.6,-1.0021,-1.1709,142.3,97.0,0.519
42.1,31804.9,34457.0,-0.7467,-1.3346,142.3,97.0,0.519
42.12,31764.4,34653.9,-0.9021,-0.8507,142.3,97.0,0.519
42.14,31995.3,34982.8,-0.0164,-0.042,142.3,97.0,0.519
42.16,32180.3,35390.2,0.6933,0.9594,142.3,97.0,0.519
42.18,32329.2,35603.1,1.2642,1.4828,142.3,97.0,0.519
42.2,32365.4,35711.6,1.4033,1.7494,142.3,97.0,0.519
42.22,32333.4,35629.6,1.2807,1.548,142.3,97.0,0.519
42.24,32300.8,35559.7,1.1555,1.376,142.3,97.0,0.519
42.26,32190.3,35357.5,0.7317,0.879,142.3,97.0,0.519
42.28,32105.8,35168.7,0.4075,0.4148,142.3,97.0,0.519
42.3,32089.0,35089.2,0.343,0.2195,142.3,97.0,0.519
42.32,32003.9,35077.5,0.0165,0.1908,142.3,97.0,0.519
42.34,32072.7,35064.0,0.2804,0.1574,142.3,97.0,0.519
42.36,31988.9,34889.2,-0.0408,-0.2722,142.3,97.0,0.519
42.38,31839.6,34825.6,-0.6137,-0.4286,142.3,97.0,0.519
42.4,31798.3,34727.4,-0.7718,-0.67,142.3,97.0,0.519
42.42,31838.9,34606.7,-0.6162,-0.9667,142.3,97.0,0.519
42.44,31791.0,34672.0,-0.8,-0.8061,142.3,97.0,0.519
42.46,31821.6,34625.5,-0.6826,-0.9204,142.3,97.0,0.519
42.48,31859.5,34440.3,-0.5373,-1.3757,142.3,97.0,0.519
42.5,31711.1,34514.3,-1.1064,-1.1937,142.3,97.0,0.519
42.52,31708.1,34413.2,-1.118,-1.4424,142.3,97.0,0.519
42.54,31832.3,34693.4,-0.6417,-0.7535,142.3,97.0,0.519
42.56,31963.7,34977.0,-0.1377,-0.0564,142.3,97.0,0.519
42.58,32137.9,35279.5,0.5307,0.6873,142.3,97.0,0.519
42.6,32261.6,35603.5,1.0052,1.4838,142.3,97.0,0.519
42.62,32396.9,35828.7,1.5239,2.0375,142.3,97.0,0.519
42.64,32385.2,35759.1,1.4791,1.8663,142.3,97.0,0.519
42.66,32234.2,35558.8,0.8998,1.374,142.3,97.0,0.519
42.68,32076.7,35193.6,0.296,0.4761,142.3,97.0,0.519
42.7,32165.3,35198.6,0.6356,0.4883,142.3,97.0,0.519
42.72,32140.4,35142.7,0.5403,0.351,142.3,97.0,0.519
42.74,32043.8,35140.0,0.1698,0.3443,142.3,97.0,0.519
42.76,31993.4,35007.5,-0.0238,0.0187,142.3,97.0,0.519
42.78,31988.0,34895.3,-0.0444,-0.2571,142.3,97.0,0.519
42.8,31826.4,34797.7,-0.6641,-0.4972,142.3,97.0,0.519
42.82,31791.2,34693.9,-0.7991,-0.7523,142.3,97.0,0.519
42.84,31843.5,34779.6,-0.5987,-0.5417,142.3,97.0,0.519
42.86,31730.4,34686.7,-1.0325,-0.77,142.3,97.0,0.519
42.88,31723.4,34545.6,-1.0592,-1.1168,142.3,97.0,0.519
42.9,31711.1,34579.6,-1.1065,-1.0332,142.3,97.0,0.519
42.92,31814.2,34427.7,-0.7111,-1.4066,142.3,97.0,0.519
42.94,31758.3,34558.0,-0.9253,-1.0864,142.3,97.0,0.519
42.96,31794.3,34566.4,-0.7872,-1.0657,142.3,97.0,0.519
42.98,32046.3,34898.6,0.1794,-0.2491,142.3,97.0,0.519
43.0,32214.3,35238.5,0.8236,0.5866,142.3,97.0,0.519
43.02,32386.2,35639.8,1.4831,1.5731,142.3,97.0,0.519
43.04,32253.2,35756.8,0.9729,1.8606,142.3,97.0,0.519
43.06,32342.0,35694.6,1.3135,1.7077,142.3,97.0,0.519
43.08,32202.9,35541.5,0.7799,1.3314,142.3,97.0,0.519
43.1,32083.4,35372.5,0.3217,0.9159,142.3,97.0,0.519
43.12,32141.9,35258.9,0.5459,0.6366,142.3,97.0,0.519
43.14,32068.3,35105.3,0.2636,0.2591,142.3,97.0,0.519
43.16,31946.0,35076.1,-0.2054,0.1874,142.3,97.0,0.519
43.18,32027.5,34953.5,0.1071,-0.1141,142.3,97.0,0.519
43.2,31956.4,34961.9,-0.1656,-0.0934,142.3,97.0,0.519
43.22,32041.6,34788.7,0.1613,-0.5192,142.3,97.0,0.519
43.24,31856.4,34695.0,-0.5491,-0.7495,142.3,97.0,0.519
43.26,31883.7,34637.8,-0.4445,-0.8902,142.3,97.0,0.519
43.28,31827.2,34765.7,-0.6612,-0.5757,142.3,97.0,0.519
43.3,31887.2,34625.7,-0.4311,-0.9198,142.3,97.0,0.519
43.32,31873.0,34633.4,-0.4854,-0.9009,142.3,97.0,0.519
43.34,31667.0,34388.3,-1.2756,-1.5036,142.3,97.0,0.519
43.36,31839.4,34399.6,-0.6143,-1.4758,142.3,97.0,0.519
43.38,31807.9,34592.6,-0.7352,-1.0012,142.3,97.0,0.519
43.4,31907.3,34900.0,-0.354,-0.2456,142.3,97.0,0.519
43.42,32115.2,35271.6,0.4436,0.6679,142.3,97.0,0.519
43.44,32259.5,35587.4,0.997,1.4442,142.3,97.0,0.519
43.46,32330.5,35731.1,1.2695,1.7975,142.3,97.0,0.519
43.48,32334.3,35630.9,1.284,1.5511,142.3,97.0,0.519
43.5,32291.7,35492.5,1.1205,1.2108,142.3,97.0,0.519
43.52,32215.6,35293.9,0.8288,0.7226,142.3,97.0,0.519
43.54,32100.3,35118.4,0.3863,0.2913,142.3,97.0,0.519
43.56,32100.5,35125.7,0.387,0.3091,142.3,97.0,0.519
43.58,32095.5,35063.3,0.368,0.1557,142.3,97.0,0.519
43.6,31966.4,35013.2,-0.1273,0.0325,142.3,97.0,0.519
43.62,31907.8,34849.0,-0.3521,-0.3709,142.3,97.0,0.519
43.64,31901.2,34809.8,-0.3773,-0.4673,142.3,97.0,0.519
43.66,31866.2,34800.5,-0.5114,-0.4901,142.3,97.0,0.519
43.68,31892.6,34742.6,-0.4104,-0.6325,142.3,97.0,0.519
43.7,31853.4,34726.0,-0.5604,-0.6734,142.3,97.0,0.519
43.72,31907.0,34570.9,-0.3551,-1.0547,142.3,97.0,0.519
43.74,31879.8,34517.2,-0.4595,-1.1867,142.3,97.0,0.519
43.76,31704.5,34366.7,-1.1319,-1.5565,142.3,97.0,0.519
43.78,31696.0,34514.3,-1.1642,-1.1938,142.3,97.0,0.519
43.8,31767.4,34492.4,-0.8905,-1.2477,142.3,97.0,0.519
43.82,31891.9,34911.4,-0.4129,-0.2177,142.3,97.0,0.519
43.84,32106.9,35219.7,0.4116,0.5403,142.3,97.0,0.519
43.86,32329.5,35617.3,1.2657,1.5177,142.3,97.0,0.519
43.88,32326.8,35766.3,1.255,1.8841,142.3,97.0,0.519
43.9,32323.6,35717.1,1.2428,1.763,142.3,97.0,0.519
43.92,32252.0,35603.9,0.9683,1.4847,142.3,97.0,0.519
43.94,32204.1,35331.9,0.7846,0.8162,142.3,97.0,0.519
43.96,32118.2,35201.3,0.455,0.495,142.3,97.0,0.519
43.98,31981.1,35059.4,-0.0709,0.1463,142.3,97.0,0.519
44.0,32020.3,35108.4,0.0796,0.2666,142.3,97.0,0.519
44.02,32042.8,35008.5,0.166,0.0211,142.3,97.0,0.519
44.04,31981.1,34998.1,-0.0708,-0.0045,142.3,97.0,0.519
44.06,31898.4,34772.9,-0.3881,-0.5581,142.3,97.0,0.519
44.08,31853.5,34733.4,-0.5602,-0.6553,142.3,97.0,0.519
44.1,31788.8,34687.6,-0.8082,-0.7677,142.3,97.0,0.519
44.12,31909.8,34701.4,-0.3443,-0.7339,142.3,97.0,0.519
44.14,31795.1,34642.8,-0.7842,-0.878,142.3,97.0,0.519
44.16,31748.3,34512.7,-0.9639,-1.1977,142.3,97.0,0.519
44.18,31708.4,34495.3,-1.1166,-1.2405,142.3,97.0,0.519
44.2,31656.8,34488.1,-1.3145,-1.2581,142.3,97.0,0.519
44.22,31823.1,34553.2,-0.6769,-1.0982,142.3,97.0,0.519
44.24,31895.5,34871.7,-0.3992,-0.3151,142.3,97.0,0.519
44.26,31999.4,35204.9,-0.0007,0.5039,142.3,97.0,0.519
44.28,32188.8,35396.3,0.7259,0.9743,142.3,97.0,0.519
44.3,32295.8,35776.0,1.1364,1.9077,142.3,97.0,0.519
44.32,32432.3,35702.9,1.6598,1.7282,142.3,97.0,0.519
44.34,32236.5,35625.8,0.9088,1.5385,142.3,97.0,0.519
44.36,32177.4,35439.9,0.682,1.0816,142.3,97.0,0.519
44.38,32050.7,35276.9,0.196,0.681,142.3,97.0,0.519
44.4,32049.4,35047.5,0.1911,0.117,142.3,97.0,0.519
44.42,32060.3,35064.4,0.2331,0.1586,142.3,97.0,0.519
44.44,32034.6,35014.0,0.1345,0.0347,142.3,97.0,0.519
44.46,31995.9,34967.8,-0.0142,-0.079,142.3,97.0,0.519
44.48,31979.1,34852.5,-0.0786,-0.3624,142.3,97.0,0.519
44.5,31914.4,34711.9,-0.3266,-0.7079,142.3,97.0,0.519
44.52,31834.9,34703.9,-0.6315,-0.7276,142.3,97.0,0.519
44.54,31845.3,34704.8,-0.5916,-0.7256,142.3,97.0,0.519
44.56,31782.2,34602.6,-0.8336,-0.9768,142.3,97.0,0.519
44.58,31845.7,34614.5,-0.5902,-0.9475,142.3,97.0,0.519
44.6,31772.0,34485.7,-0.8729,-1.2641,142.3,97.0,0.519
44.62,31741.4,34362.7,-0.9903,-1.5664,142.3,97.0,0.519
44.64,31731.2,34585.6,-1.0293,-1.0185,142.3,97.0,0.519
44.66,31881.9,34847.4,-0.4513,-0.375,142.3,97.0,0.519
44.68,32045.1,35144.8,0.1745,0.356,142.3,97.0,0.519
44.7,32199.4,35528.4,0.7666,1.2991,142.3,97.0,0.519
44.72,32349.8,35740.9,1.3433,1.8216,142.3,97.0,0.519
44.74,32301.8,35725.2,1.1593,1.7829,142.3,97.0,0.519
44.76,32251.8,35504.1,0.9675,1.2395,142.3,97.0,0.519
44.78,32197.6,35406.8,0.7595,1.0003,142.3,97.0,0.519
44.8,32139.8,35194.4,0.5378,0.4781,142.3,97.0,0.519
44.82,32137.7,35248.3,0.5298,0.6106,142.3,97.0,0.519
44.84,32150.3,35128.8,0.578,0.3168,142.3,97.0,0.519
