timestamp,raw_red,raw_ir,filtered_red,filtered_ir,heart_rate,spo2,ac_dc_ratio
0.0,32039.0,35148.5,0.1964,0.3674,135.8,96.8,0.527
0.02,32156.4,35460.0,0.7807,1.1348,135.8,96.8,0.527
0.04,32286.8,35656.0,1.4298,1.618,135.8,96.8,0.527
0.06,32372.0,35729.4,1.8537,1.7987,135.8,96.8,0.527
0.08,32352.2,35680.0,1.7551,1.6771,135.8,96.8,0.527
0.1,32223.1,35436.1,1.1127,1.076,135.8,96.8,0.527
0.12,32131.8,35301.1,0.6579,0.7434,135.8,96.8,0.527
0.14,32107.6,35212.3,0.5379,0.5245,135.8,96.8,0.527
0.16,32067.7,35113.7,0.3392,0.2815,135.8,96.8,0.527
0.18,32092.7,35051.6,0.4634,0.1285,135.8,96.8,0.527
0.2,31911.3,35016.3,-0.4395,0.0415,135.8,96.8,0.527
0.22,31950.8,34848.3,-0.2426,-0.3725,135.8,96.8,0.527
0.24,31910.6,34733.8,-0.4429,-0.6545,135.8,96.8,0.527
0.26,31844.5,34672.9,-0.772,-0.8045,135.8,96.8,0.527
0.28,31974.5,34625.9,-0.1246,-0.9204,135.8,96.8,0.527
0.3,31853.3,34622.3,-0.7281,-0.9293,135.8,96.8,0.527
0.32,31818.2,34595.6,-0.9024,-0.9951,135.8,96.8,0.527
0.34,31849.6,34609.2,-0.7461,-0.9617,135.8,96.8,0.527
0.36,31723.2,34431.6,-1.3754,-1.3993,135.8,96.8,0.527
0.38,31728.8,34531.6,-1.3473,-1.1527,135.8,96.8,0.527
0.4,31663.3,34523.3,-1.6734,-1.1732,135.8,96.8,0.527
0.42,31796.3,34718.1,-1.0116,-0.6933,135.8,96.8,0.527
0.44,32167.3,35087.3,0.8346,0.2166,135.8,96.8,0.527
0.46,32203.7,35454.4,1.0159,1.1211,135.8,96.8,0.527
0.48,32411.3,35748.8,2.0491,1.8467,135.8,96.8,0.527
0.5,32449.1,35735.8,2.2374,1.8147,135.8,96.8,0.527
0.52,32380.0,35704.1,1.8936,1.7366,135.8,96.8,0.527
0.54,32208.2,35533.0,1.0384,1.3149,135.8,96.8,0.527
0.56,32159.6,35315.6,0.7963,0.7791,135.8,96.8,0.527
0.58,31992.3,35178.7,-0.0361,0.4417,135.8,96.8,0.527
0.6,32081.6,35078.4,0.4084,0.1945,135.8,96.8,0.527
0.62,32121.7,35099.8,0.6078,0.2473,135.8,96.8,0.527
0.64,31985.8,34994.5,-0.0685,-0.0122,135.8,96.8,0.527
0.66,31939.1,34832.6,-0.3007,-0.411,135.8,96.8,0.527
0.68,32056.7,34764.8,0.2845,-0.5782,135.8,96.8,0.527
0.7,31825.0,34646.9,-0.869,-0.8686,135.8,96.8,0.527
0.72,31813.7,34699.0,-0.9248,-0.7404,135.8,96.8,0.527
0.74,31816.2,34632.8,-0.9127,-0.9035,135.8,96.8,0.527
0.76,31797.3,34672.3,-1.0065,-0.806,135.8,96.8,0.527
0.78,31704.4,34523.2,-1.4691,-1.1736,135.8,96.8,0.527
0.8,31845.8,34411.0,-0.7654,-1.45,135.8,96.8,0.527
0.82,31693.3,34367.5,-1.524,-1.5572,135.8,96.8,0.527
0.84,31808.4,34523.1,-0.9515,-1.1737,135.8,96.8,0.527
0.86,31955.0,34691.7,-0.222,-0.7584,135.8,96.8,0.527
0.88,31985.3,35111.9,-0.0709,0.2773,135.8,96.8,0.527
0.9,32226.7,35414.5,1.1304,1.0229,135.8,96.8,0.527
0.92,32410.8,35703.9,2.0468,1.7359,135.8,96.8,0.527
0.94,32348.2,35735.1,1.7353,1.8128,135.8,96.8,0.527
0.96,32296.8,35725.3,1.4791,1.7887,135.8,96.8,0.527
0.98,32270.2,35489.6,1.3471,1.2078,135.8,96.8,0.527
1.0,32162.5,35313.9,0.8108,0.7749,135.8,96.8,0.527
1.02,32090.3,35187.1,0.4517,0.4624,135.8,96.8,0.527
1.04,32039.8,35087.8,0.2003,0.2178,135.8,96.8,0.527
1.06,31953.2,35012.2,-0.2306,0.0315,135.8,96.8,0.527
1.08,32071.5,35048.5,0.3579,0.1208,135.8,96.8,0.527
1.1,31946.5,34877.4,-0.2641,-0.3008,135.8,96.8,0.527
1.12,31927.5,34809.7,-0.3586,-0.4676,135.8,96.8,0.527
1.14,31830.3,34655.6,-0.8425,-0.8472,135.8,96.8,0.527
1.16,31831.1,34776.3,-0.8382,-0.5498,135.8,96.8,0.527
1.18,31839.0,34706.3,-0.7991,-0.7223,135.8,96.8,0.527
1.2,31796.4,34648.2,-1.0112,-0.8655,135.8,96.8,0.527
1.22,31802.0,34576.5,-0.9831,-1.0421,135.8,96.8,0.527
1.24,31763.2,34527.6,-1.1762,-1.1626,135.8,96.8,0.527
1.26,31734.6,34447.3,-1.3189,-1.3604,135.8,96.8,0.527
1.28,31714.7,34552.7,-1.4175,-1.1008,135.8,96.8,0.527
1.3,31869.3,34721.3,-0.6483,-0.6853,135.8,96.8,0.527
1.32,32018.5,35108.7,0.0941,0.2692,135.8,96.8,0.527
1.34,32144.9,35331.9,0.7233,0.8193,135.8,96.8,0.527
1.36,32309.5,35625.1,1.5426,1.5417,135.8,96.8,0.527
1.38,32382.4,35736.5,1.9051,1.8163,135.8,96.8,0.527
1.4,32364.3,35599.9,1.8153,1.4797,135.8,96.8,0.527
1.42,32224.5,35534.9,1.1196,1.3194,135.8,96.8,0.527
1.44,32208.3,35270.3,1.0387,0.6675,135.8,96.8,0.527
1.46,32063.7,35262.5,0.3191,0.6484,135.8,96.8,0.527
1.48,32049.8,35057.3,0.2498,0.1425,135.8,96.8,0.527
1.5,32029.2,35056.3,0.1473,0.1402,135.8,96.8,0.527
1.52,32029.0,35000.8,0.1464,0.0035,135.8,96.8,0.527
1.54,31909.0,34916.8,-0.4508,-0.2035,135.8,96.8,0.527
1.56,31891.7,34915.3,-0.5368,-0.2072,135.8,96.8,0.527
1.58,31914.5,34727.5,-0.4232,-0.67,135.8,96.8,0.527
1.6,31849.7,34721.5,-0.7459,-0.6848,135.8,96.8,0.527
1.62,31852.6,34722.1,-0.7312,-0.6834,135.8,96.8,0.527
1.64,31778.2,34612.2,-1.1015,-0.9542,135.8,96.8,0.527
1.66,31909.2,34486.6,-0.4497,-1.2636,135.8,96.8,0.527
1.68,31720.0,34473.2,-1.3914,-1.2967,135.8,96.8,0.527
1.7,31813.8,34497.4,-0.9247,-1.237,135.8,96.8,0.527
1.72,31750.5,34498.2,-1.2395,-1.2352,135.8,96.8,0.527
1.74,31880.4,34768.2,-0.5929,-0.5697,135.8,96.8,0.527
1.76,31986.1,35043.1,-0.0671,0.1075,135.8,96.8,0.527
1.78,32196.0,35357.9,0.9778,0.8833,135.8,96.8,0.527
1.8,32259.3,35679.2,1.2926,1.6751,135.8,96.8,0.527
1.82,32391.6,35727.7,1.951,1.7946,135.8,96.8,0.527
1.84,32390.7,35734.2,1.9468,1.8105,135.8,96.8,0.527
1.86,32313.7,35516.5,1.5634,1.2743,135.8,96.8,0.527
1.88,32135.8,35327.7,0.6779,0.8091,135.8,96.8,0.527
1.9,32205.0,35149.7,1.0223,0.3704,135.8,96.8,0.527
1.92,32069.0,35073.3,0.3454,0.182,135.8,96.8,0.527
1.94,32142.1,35060.9,0.7096,0.1515,135.8,96.8,0.527
1.96,32005.7,34971.8,0.0305,-0.0681,135.8,96.8,0.527
1.98,31880.4,34972.0,-0.5928,-0.0675,135.8,96.8,0.527
2.0,31873.0,34826.9,-0.6299,-0.4251,135.8,96.8,0.527
2.02,31864.9,34673.7,-0.6704,-0.8027,135.8,96.8,0.527
2.04,31881.7,34677.4,-0.5865,-0.7936,135.8,96.8,0.527
2.06,31844.6,34684.5,-0.7712,-0.7761,135.8,96.8,0.527
2.08,31846.1,34729.5,-0.7636,-0.6651,135.8,96.8,0.527
2.1,31763.3,34580.3,-1.1757,-1.0327,135.8,96.8,0.527
2.12,31786.7,34597.7,-1.0596,-0.9898,135.8,96.8,0.527
2.14,31676.9,34491.6,-1.6061,-1.2515,135.8,96.8,0.527
2.16,31788.8,34430.2,-1.0489,-1.4027,135.8,96.8,0.527
2.18,31761.9,34694.7,-1.1829,-0.751,135.8,96.8,0.527
2.2,31999.0,34985.1,-0.0026,-0.0353,135.8,96.8,0.527
2.22,32236.8,35333.9,1.1808,0.8243,135.8,96.8,0.527
2.24,32236.5,35567.4,1.1793,1.3996,135.8,96.8,0.527
2.26,32401.6,35767.8,2.0011,1.8935,135.8,96.8,0.527
2.28,32344.0,35655.3,1.714,1.6162,135.8,96.8,0.527
2.3,32269.4,35570.8,1.3428,1.408,135.8,96.8,0.527
2.32,32252.7,35360.6,1.2601,0.8901,135.8,96.8,0.527
2.34,32093.0,35235.0,0.4653,0.5806,135.8,96.8,0.527
2.36,32133.2,35163.2,0.6652,0.4037,135.8,96.8,0.527
2.38,32098.5,35064.9,0.4923,0.1613,135.8,96.8,0.527
2.4,32029.2,35033.4,0.1476,0.0837,135.8,96.8,0.527
2.42,31945.2,34943.7,-0.2704,-0.1373,135.8,96.8,0.527
2.44,31888.2,34872.2,-0.5544,-0.3136,135.8,96.8,0.527
2.46,31936.0,34701.8,-0.3165,-0.7334,135.8,96.8,0.527
2.48,31888.7,34717.2,-0.5517,-0.6955,135.8,96.8,0.527
2.5,31871.6,34732.5,-0.6368,-0.6578,135.8,96.8,0.527
2.52,31898.1,34593.0,-0.5052,-1.0014,135.8,96.8,0.527
2.54,31750.2,34606.1,-1.241,-0.9692,135.8,96.8,0.527
2.56,31770.6,34545.6,-1.1393,-1.1182,135.8,96.8,0.527
2.58,31698.6,34492.8,-1.4977,-1.2483,135.8,96.8,0.527
2.6,31853.2,34495.6,-0.7285,-1.2416,135.8,96.8,0.527
2.62,31886.9,34765.5,-0.5606,-0.5764,135.8,96.8,0.527
2.64,31963.2,34952.8,-0.1811,-0.1148,135.8,96.8,0.527
2.66,32122.8,35312.0,0.6135,0.7702,135.8,96.8,0.527
2.68,32208.5,35673.0,1.0397,1.6598,135.8,96.8,0.527
2.7,32367.9,35769.6,1.8333,1.8979,135.8,96.8,0.527
2.72,32434.1,35685.3,2.1628,1.6902,135.8,96.8,0.527
2.74,32325.3,35534.2,1.6211,1.3177,135.8,96.8,0.527
2.76,32174.2,35345.8,0.8691,0.8536,135.8,96.8,0.527
2.78,32037.9,35226.3,0.1908,0.5591,135.8,96.8,0.527
2.8,32076.6,35084.8,0.3835,0.2105,135.8,96.8,0.527
2.82,31972.1,35169.8,-0.1368,0.4199,135.8,96.8,0.527
2.84,31992.1,35068.9,-0.0374,0.1712,135.8,96.8,0.527
2.86,32016.1,34963.4,0.0822,-0.0887,135.8,96.8,0.527
2.88,31997.1,34778.2,-0.0123,-0.5452,135.8,96.8,0.527
2.9,31874.4,34784.8,-0.6231,-0.529,135.8,96.8,0.527
2.92,31793.1,34681.0,-1.0276,-0.7846,135.8,96.8,0.527
2.94,31828.3,34682.9,-0.8524,-0.78,135.8,96.8,0.527
2.96,31881.0,34663.7,-0.5901,-0.8273,135.8,96.8,0.527
2.98,31895.8,34632.0,-0.5164,-0.9054,135.8,96.8,0.527
3.0,31736.8,34535.7,-1.308,-1.1428,135.8,96.8,0.527
3.02,31796.5,34430.6,-1.0105,-1.4018,135.8,96.8,0.527
3.04,31696.5,34456.4,-1.5082,-1.3381,135.8,96.8,0.527
3.06,31799.0,34654.8,-0.9984,-0.8493,135.8,96.8,0.527
3.08,31991.4,34838.3,-0.0405,-0.3969,135.8,96.8,0.527
3.1,32145.4,35269.8,0.7257,0.6663,135.8,96.8,0.527
3.12,32210.0,35553.8,1.0474,1.366,135.8,96.8,0.527
3.14,32376.4,35758.0,1.8753,1.8693,135.8,96.8,0.527
3.16,32284.9,35746.9,1.4199,1.842,135.8,96.8,0.527
3.18,32204.9,35640.4,1.0221,1.5794,135.8,96.8,0.527
3.2,32202.2,35366.8,1.0086,0.9054,135.8,96.8,0.527
3.22,32116.4,35188.4,0.5816,0.4657,135.8,96.8,0.527
3.24,32086.7,35170.0,0.4336,0.4202,135.8,96.8,0.527
3.26,32023.5,35064.5,0.1194,0.1603,135.8,96.8,0.527
3.28,32044.0,35099.9,0.2212,0.2475,135.8,96.8,0.527
3.3,32031.6,35055.3,0.1593,0.1376,135.8,96.8,0.527
3.32,31867.3,34882.9,-0.6582,-0.2872,135.8,96.8,0.527
3.34,31920.6,34808.1,-0.393,-0.4714,135.8,96.8,0.527
3.36,31862.1,34734.7,-0.6841,-0.6523,135.8,96.8,0.527
3.38,31919.3,34655.7,-0.3994,-0.847,135.8,96.8,0.527
3.4,31802.7,34662.7,-0.9798,-0.8299,135.8,96.8,0.527
3.42,31823.9,34644.7,-0.8744,-0.874,135.8,96.8,0.527
3.44,31729.0,34473.0,-1.3467,-1.2971,135.8,96.8,0.527
3.46,31769.7,34517.8,-1.144,-1.1868,135.8,96.8,0.527
3.48,31780.5,34476.8,-1.0903,-1.2879,135.8,96.8,0.527
3.5,31778.0,34593.0,-1.1029,-1.0014,135.8,96.8,0.527
3.52,31990.0,34869.1,-0.0478,-0.3212,135.8,96.8,0.527
3.54,31973.9,35271.6,-0.1276,0.6708,135.8,96.8,0.527
3.56,32353.1,35556.2,1.7596,1.3721,135.8,96.8,0.527
3.58,32433.8,35720.6,2.1611,1.777,135.8,96.8,0.527
3.6,32454.6,35685.8,2.2648,1.6913,135.8,96.8,0.527
3.62,32248.0,35629.2,1.2363,1.5518,135.8,96.8,0.527
3.64,32158.1,35468.3,0.789,1.1553,135.8,96.8,0.527
3.66,32131.5,35271.4,0.6564,0.6703,135.8,96.8,0.527
3.68,32044.9,35191.0,0.2259,0.472,135.8,96.8,0.527
3.7,31992.5,35096.6,-0.0353,0.2394,135.8,96.8,0.527
3.72,32046.9,34946.8,0.2356,-0.1297,135.8,96.8,0.527
3.74,31984.0,35047.3,-0.0775,0.118,135.8,96.8,0.527
3.76,31937.6,34800.3,-0.3082,-0.4906,135.8,96.8,0.527
3.78,31878.3,34837.3,-0.6035,-0.3996,135.8,96.8,0.527
3.8,31972.9,34698.6,-0.1326,-0.7412,135.8,96.8,0.527
3.82,31859.4,34751.0,-0.6976,-0.6122,135.8,96.8,0.527
3.84,31836.8,34671.5,-0.81,-0.8081,135.8,96.8,0.527
3.86,31799.3,34589.0,-0.9968,-1.0113,135.8,96.8,0.527
3.88,31775.3,34546.3,-1.116,-1.1165,135.8,96.8,0.527
3.9,31806.9,34484.2,-0.9589,-1.2697,135.8,96.8,0.527
3.92,31769.9,34504.0,-1.1431,-1.2209,135.8,96.8,0.527
3.94,31824.6,34654.1,-0.8707,-0.8509,135.8,96.8,0.527
3.96,31944.0,34848.5,-0.2767,-0.3719,135.8,96.8,0.527
3.98,32009.9,35270.0,0.0513,0.6669,135.8,96.8,0.527
4.0,32188.7,35563.2,0.9413,1.3892,135.8,96.8,0.527
4.02,32377.9,35738.9,1.883,1.8222,135.8,96.8,0.527
4.04,32318.2,35669.5,1.5857,1.6512,135.8,96.8,0.527
4.06,32300.0,35642.8,1.4954,1.5854,135.8,96.8,0.527
4.08,32290.1,35428.4,1.4457,1.057,135.8,96.8,0.527
4.1,32035.2,35143.2,0.1772,0.3544,135.8,96.8,0.527
4.12,32075.5,35086.6,0.3779,0.2148,135.8,96.8,0.527
4.14,32051.9,35036.5,0.2603,0.0915,135.8,96.8,0.527
4.16,32026.3,35049.0,0.1331,0.1221,135.8,96.8,0.527
4.18,31941.7,34994.2,-0.2881,-0.0128,135.8,96.8,0.527
4.2,31914.5,34880.4,-0.4233,-0.2934,135.8,96.8,0.527
4.22,31940.8,34709.2,-0.2923,-0.7152,135.8,96.8,0.527
4.24,31836.3,34727.6,-0.8128,-0.6699,135.8,96.8,0.527
4.26,31894.7,34634.9,-0.5217,-0.8983,135.8,96.8,0.527
4.28,31913.5,34582.7,-0.4282,-1.027,135.8,96.8,0.527
4.3,31788.0,34601.6,-1.0531,-0.9802,135.8,96.8,0.527
4.32,31794.4,34616.5,-1.0211,-0.9437,135.8,96.8,0.527
4.34,31671.1,34479.5,-1.6345,-1.2812,135.8,96.8,0.527
4.36,31631.6,34516.8,-1.8315,-1.1892,135.8,96.8,0.527
4.38,31811.7,34633.4,-0.9351,-0.902,135.8,96.8,0.527
4.4,31851.1,34869.0,-0.7388,-0.3213,135.8,96.8,0.527
4.42,32032.3,35177.2,0.1629,0.438,135.8,96.8,0.527
4.44,32231.4,35534.0,1.1537,1.3173,135.8,96.8,0.527
4.46,32411.8,35629.7,2.0519,1.5531,135.8,96.8,0.527
4.48,32339.4,35723.1,1.6913,1.7833,135.8,96.8,0.527
4.5,32319.9,35686.9,1.5942,1.6941,135.8,96.8,0.527
4.52,32288.1,35501.7,1.436,1.2377,135.8,96.8,0.527
4.54,32192.2,35233.1,0.9586,0.5758,135.8,96.8,0.527
4.56,32145.3,35151.7,0.7256,0.3753,135.8,96.8,0.527
4.58,31954.8,35099.6,-0.2229,0.2469,135.8,96.8,0.527
4.6,32028.0,35046.1,0.1415,0.1151,135.8,96.8,0.527
4.62,32030.9,35013.4,0.1559,0.0344,135.8,96.8,0.527
4.64,31936.6,34953.7,-0.3136,-0.1127,135.8,96.8,0.527
4.66,31942.5,34819.4,-0.2838,-0.4437,135.8,96.8,0.527
4.68,31812.2,34710.8,-0.9324,-0.7113,135.8,96.8,0.527
4.7,31835.3,34611.3,-0.8173,-0.9565,135.8,96.8,0.527
4.72,31885.8,34594.9,-0.5662,-0.9969,135.8,96.8,0.527
4.74,31814.5,34570.4,-0.921,-1.0571,135.8,96.8,0.527
4.76,31849.5,34673.5,-0.7468,-0.8032,135.8,96.8,0.527
4.78,31821.6,34478.9,-0.8855,-1.2826,135.8,96.8,0.527
4.8,31737.6,34383.1,-1.3039,-1.5188,135.8,96.8,0.527
4.82,31799.7,34501.6,-0.9949,-1.2266,135.8,96.8,0.527
4.84,31921.0,34788.2,-0.3909,-0.5205,135.8,96.8,0.527
4.86,32156.5,35101.7,0.7812,0.2519,135.8,96.8,0.527
4.88,32285.8,35419.1,1.4245,1.0342,135.8,96.8,0.527
4.9,32328.3,35738.1,1.6362,1.8202,135.8,96.8,0.527
4.92,32504.7,35711.7,2.5142,1.7553,135.8,96.8,0.527
4.94,32290.8,35658.4,1.4494,1.6238,135.8,96.8,0.527
4.96,32270.9,35497.5,1.3503,1.2273,135.8,96.8,0.527
4.98,32165.5,35351.3,0.8261,0.867,135.8,96.8,0.527
5.0,32067.9,35164.7,0.3399,0.4073,135.8,96.8,0.527
5.02,32157.2,35098.0,0.7847,0.2429,135.8,96.8,0.527
5.04,32072.7,35101.9,0.3639,0.2525,135.8,96.8,0.527
5.06,31913.5,34924.1,-0.4285,-0.1856,135.8,96.8,0.527
5.08,31980.7,34902.0,-0.0937,-0.2401,135.8,96.8,0.527
5.1,31900.8,34768.4,-0.4916,-0.5692,135.8,96.8,0.527
5.12,31781.5,34755.7,-1.0851,-0.6006,135.8,96.8,0.527
5.14,31794.7,34654.1,-1.0193,-0.851,135.8,96.8,0.527
5.16,31888.6,34650.2,-0.5522,-0.8606,135.8,96.8,0.527
5.18,31867.3,34686.3,-0.6583,-0.7716,135.8,96.8,0.527
5.2,31844.3,34533.5,-0.7728,-1.148,135.8,96.8,0.527
5.22,31788.9,34459.0,-1.0485,-1.3317,135.8,96.8,0.527
5.24,31728.0,34356.4,-1.3518,-1.5845,135.8,96.8,0.527
5.26,31758.8,34525.4,-1.1982,-1.168,135.8,96.8,0.527
5.28,31837.3,34831.1,-0.8074,-0.4147,135.8,96.8,0.527
5.3,32019.5,35026.4,0.0992,0.0664,135.8,96.8,0.527
5.32,32267.8,35435.7,1.3349,1.0751,135.8,96.8,0.527
5.34,32375.1,35659.8,1.8692,1.6274,135.8,96.8,0.527
5.36,32391.9,35759.4,1.9525,1.8726,135.8,96.8,0.527
5.38,32300.8,35782.5,1.4991,1.9297,135.8,96.8,0.527
5.4,32235.9,35485.7,1.1764,1.1983,135.8,96.8,0.527
5.42,32130.3,35267.1,0.6505,0.6595,135.8,96.8,0.527
5.44,32036.1,35174.1,0.1821,0.4304,135.8,96.8,0.527
5.46,32004.0,35096.6,0.0221,0.2394,135.8,96.8,0.527
5.48,32042.6,34951.9,0.2143,-0.1172,135.8,96.8,0.527
5.5,32049.9,35047.5,0.2505,0.1184,135.8,96.8,0.527
5.52,31897.0,34877.4,-0.5105,-0.3007,135.8,96.8,0.527
5.54,31911.5,34826.3,-0.4384,-0.4267,135.8,96.8,0.527
5.56,31941.9,34705.7,-0.2868,-0.7238,135.8,96.8,0.527
5.58,31806.9,34747.1,-0.9588,-0.6219,135.8,96.8,0.527
5.6,31928.4,34670.6,-0.3541,-0.8102,135.8,96.8,0.527
5.62,31779.9,34692.3,-1.0931,-0.7568,135.8,96.8,0.527
5.64,31796.6,34571.3,-1.0099,-1.0549,135.8,96.8,0.527
5.66,31697.1,34449.1,-1.5054,-1.356,135.8,96.8,0.527
5.68,31703.7,34491.2,-1.4723,-1.2523,135.8,96.8,0.527
5.7,31789.2,34440.5,-1.0471,-1.3774,135.8,96.8,0.527
5.72,31891.9,34722.0,-0.5361,-0.6835,135.8,96.8,0.527
5.74,31996.3,35035.5,-0.0161,0.0888,135.8,96.8,0.527
5.76,32123.0,35429.8,0.6145,1.0606,135.8,96.8,0.527
5.78,32276.9,35572.7,1.3805,1.4127,135.8,96.8,0.527
5.8,32344.5,35778.8,1.7167,1.9206,135.8,96.8,0.527
5.82,32329.0,35685.6,1.6397,1.691,135.8,96.8,0.527
5.84,32223.6,35433.2,1.115,1.069,135.8,96.8,0.527
5.86,32160.3,35374.9,0.7999,0.9254,135.8,96.8,0.527
5.88,32149.4,35219.4,0.7456,0.542,135.8,96.8,0.527
5.9,32064.8,35106.2,0.3248,0.2631,135.8,96.8,0.527
5.92,32077.4,35039.1,0.3874,0.0978,135.8,96.8,0.527
5.94,32038.2,35059.7,0.1925,0.1486,135.8,96.8,0.527
5.96,31970.3,34988.3,-0.1458,-0.0275,135.8,96.8,0.527
5.98,31850.4,34824.8,-0.7423,-0.4304,135.8,96.8,0.527
6.0,31905.6,34628.1,-0.4675,-0.9149,135.8,96.8,0.527
6.02,31868.4,34712.4,-0.6525,-0.7072,135.8,96.8,0.527
6.04,31932.7,34728.7,-0.3327,-0.667,135.8,96.8,0.527
6.06,31883.6,34737.1,-0.5773,-0.6463,135.8,96.8,0.527
6.08,31809.5,34573.4,-0.946,-1.0498,135.8,96.8,0.527
6.1,31768.4,34509.1,-1.1506,-1.2082,135.8,96.8,0.527
6.12,31725.0,34473.7,-1.3666,-1.2954,135.8,96.8,0.527
6.14,31800.8,34534.7,-0.9894,-1.1451,135.8,96.8,0.527
6.16,31826.7,34682.0,-0.8602,-0.7821,135.8,96.8,0.527
6.18,31986.7,35069.1,-0.064,0.1716,135.8,96.8,0.527
6.2,32190.9,35386.9,0.9524,0.9548,135.8,96.8,0.527
6.22,32265.8,35589.3,1.3252,1.4535,135.8,96.8,0.527
6.24,32388.2,35796.1,1.9344,1.9631,135.8,96.8,0.527
6.26,32282.7,35719.8,1.4091,1.7752,135.8,96.8,0.527
6.28,32290.9,35432.9,1.4502,1.0682,135.8,96.8,0.527
6.3,32091.4,35326.6,0.457,0.8063,135.8,96.8,0.527
6.32,32026.7,35220.3,0.1349,0.5443,135.8,96.8,0.527
6.34,32033.5,35146.9,0.1688,0.3635,135.8,96.8,0.527
6.36,31944.2,35133.8,-0.2757,0.331,135.8,96.8,0.527
6.38,32026.2,35037.8,0.1326,0.0945,135.8,96.8,0.527
6.4,31998.4,34857.0,-0.0057,-0.3509,135.8,96.8,0.527
6.42,31934.6,34835.8,-0.3233,-0.4033,135.8,96.8,0.527
6.44,31833.7,34740.5,-0.8257,-0.6381,135.8,96.8,0.527
6.46,31807.7,34633.5,-0.9549,-0.9017,135.8,96.8,0.527
6.48,31825.9,34657.9,-0.8641,-0.8415,135.8,96.8,0.527
6.5,31906.7,34730.1,-0.4622,-0.6637,135.8,96.8,0.527
6.52,31774.5,34670.1,-1.1201,-0.8116,135.8,96.8,0.527
6.54,31740.7,34599.0,-1.2884,-0.9866,135.8,96.8,0.527
6.56,31856.4,34408.6,-0.7126,-1.4558,135.8,96.8,0.527
6.58,31718.1,34524.1,-1.4007,-1.1713,135.8,96.8,0.527
6.6,31726.8,34609.5,-1.3574,-0.9608,135.8,96.8,0.527
6.62,31978.7,35120.0,-0.1036,0.2972,135.8,96.8,0.527
6.64,32149.9,35396.8,0.7481,0.9793,135.8,96.8,0.527
6.66,32335.9,35627.6,1.6741,1.548,135.8,96.8,0.527
6.68,32355.4,35750.0,1.7708,1.8494,135.8,96.8,0.527
6.7,32365.0,35691.1,1.8186,1.7044,135.8,96.8,0.527
6.72,32199.4,35483.9,0.9944,1.1938,135.8,96.8,0.527
6.74,32147.7,35299.1,0.7374,0.7385,135.8,96.8,0.527
6.76,32135.3,35272.1,0.6758,0.6719,135.8,96.8,0.527
6.78,32033.5,35160.3,0.1691,0.3964,135.8,96.8,0.527
6.8,32142.1,35083.0,0.7096,0.2059,135.8,96.8,0.527
6.82,31956.1,35079.6,-0.2163,0.1976,135.8,96.8,0.527
6.84,31936.5,34938.5,-0.3137,-0.15,135.8,96.8,0.527
6.86,31937.1,34895.6,-0.3108,-0.2558,135.8,96.8,0.527
6.88,31761.9,34693.0,-1.1826,-0.7551,135.8,96.8,0.527
6.9,31855.5,34674.7,-0.7169,-0.8002,135.8,96.8,0.527
6.92,31908.2,34646.9,-0.4546,-0.8686,135.8,96.8,0.527
6.94,31806.6,34629.3,-0.9605,-0.912,135.8,96.8,0.527
6.96,31837.0,34581.4,-0.8091,-1.0301,135.8,96.8,0.527
6.98,31818.7,34471.1,-0.9002,-1.3019,135.8,96.8,0.527
7.0,31701.5,34498.4,-1.4835,-1.2346,135.8,96.8,0.527
7.02,31814.2,34525.0,-0.9224,-1.169,135.8,96.8,0.527
7.04,31754.2,34668.3,-1.2209,-0.8161,135.8,96.8,0.527
7.06,31976.6,34949.9,-0.1144,-0.122,135.8,96.8,0.527
7.08,32147.4,35325.6,0.7356,0.8039,135.8,96.8,0.527
7.1,32281.5,35602.5,1.4031,1.486,135.8,96.8,0.527
7.12,32374.1,35714.7,1.864,1.7626,135.8,96.8,0.527
7.14,32409.8,35747.5,2.0419,1.8433,135.8,96.8,0.527
7.16,32198.8,35623.1,0.9918,1.5368,135.8,96.8,0.527
7.18,32195.4,35385.2,0.9747,0.9507,135.8,96.8,0.527
7.2,32118.6,35266.1,0.5923,0.6571,135.8,96.8,0.527
7.22,32101.4,35144.6,0.5069,0.3577,135.8,96.8,0.527
7.24,32071.0,35063.7,0.3556,0.1584,135.8,96.8,0.527
7.26,32000.8,35073.3,0.0064,0.182,135.8,96.8,0.527
7.28,31998.1,34995.4,-0.007,-0.0099,135.8,96.8,0.527
7.3,31854.2,34786.5,-0.7232,-0.5247,135.8,96.8,0.527
7.32,31874.8,34807.8,-0.6211,-0.4721,135.8,96.8,0.527
7.34,31910.0,34580.5,-0.4458,-1.0322,135.8,96.8,0.527
7.36,31905.1,34637.5,-0.4701,-0.8919,135.8,96.8,0.527
7.38,31798.8,34664.1,-0.9993,-0.8264,135.8,96.8,0.527
7.4,31869.7,34596.4,-0.6461,-0.9931,135.8,96.8,0.527
7.42,31766.3,34565.3,-1.1611,-1.0698,135.8,96.8,0.527
7.44,31713.1,34561.1,-1.4255,-1.08,135.8,96.8,0.527
7.46,31783.8,34532.4,-1.0736,-1.1507,135.8,96.8,0.527
7.48,31923.3,34608.8,-0.3796,-0.9625,135.8,96.8,0.527
7.5,31980.3,34859.8,-0.096,-0.344,135.8,96.8,0.527
7.52,32208.6,35243.5,1.0406,0.6014,135.8,96.8,0.527
7.54,32355.4,35515.9,1.7712,1.2728,135.8,96.8,0.527
7.56,32348.4,35684.7,1.736,1.6887,135.8,96.8,0.527
7.58,32368.2,35742.8,1.8348,1.8318,135.8,96.8,0.527
7.6,32266.4,35592.3,1.3279,1.461,135.8,96.8,0.527
7.62,32218.8,35361.7,1.0913,0.8928,135.8,96.8,0.527
7.64,32088.4,35264.9,0.442,0.6541,135.8,96.8,0.527
7.66,32114.9,35175.6,0.574,0.434,135.8,96.8,0.527
7.68,32098.0,35076.9,0.4898,0.1908,135.8,96.8,0.527
7.7,32042.6,34982.7,0.214,-0.0411,135.8,96.8,0.527
7.72,31979.6,34898.8,-0.0994,-0.248,135.8,96.8,0.527
7.74,31931.8,34892.8,-0.3371,-0.2627,135.8,96.8,0.527
7.76,31875.8,34595.4,-0.616,-0.9957,135.8,96.8,0.527
7.78,31858.7,34784.2,-0.7011,-0.5303,135.8,96.8,0.527
7.8,31879.1,34646.2,-0.5993,-0.8705,135.8,96.8,0.527
7.82,31834.1,34633.4,-0.8234,-0.902,135.8,96.8,0.527
7.84,31830.2,34670.3,-0.8429,-0.811,135.8,96.8,0.527
7.86,31803.4,34610.8,-0.9761,-0.9577,135.8,96.8,0.527
7.88,31762.2,34569.4,-1.1814,-1.0596,135.8,96.8,0.527
7.9,31738.6,34547.4,-1.2986,-1.1138,135.8,96.8,0.527
7.92,31757.4,34567.5,-1.2053,-1.0644,135.8,96.8,0.527
7.94,31946.8,34906.3,-0.2626,-0.2295,135.8,96.8,0.527
7.96,32117.8,35160.3,0.5885,0.3964,135.8,96.8,0.527
7.98,32282.5,35607.4,1.408,1.4981,135.8,96.8,0.527
8.0,32299.8,35696.9,1.4943,1.7186,135.8,96.8,0.527
8.02,32364.8,35812.9,1.8176,2.0046,135.8,96.8,0.527
8.04,32269.2,35560.1,1.342,1.3816,135.8,96.8,0.527
8.06,32154.9,35390.3,0.7731,0.9632,135.8,96.8,0.527
8.08,32118.3,35216.1,0.5907,0.5338,135.8,96.8,0.527
8.1,32028.9,35089.8,0.1463,0.2228,135.8,96.8,0.527
8.12,32055.7,35190.6,0.2792,0.4711,135.8,96.8,0.527
8.14,32012.7,35031.8,0.0653,0.0797,135.8,96.8,0.527
8.16,31989.9,34974.1,-0.0482,-0.0623,135.8,96.8,0.527
8.18,32004.1,34852.1,0.0226,-0.363,135.8,96.8,0.527
8.2,31905.0,34744.5,-0.4707,-0.6282,135.8,96.8,0.527
8.22,31894.3,34664.8,-0.5238,-0.8245,135.8,96.8,0.527
8.24,31841.0,34626.0,-0.789,-0.9202,135.8,96.8,0.527
8.26,31809.4,34658.0,-0.9464,-0.8414,135.8,96.8,0.527
8.28,31801.9,34617.4,-0.9837,-0.9413,135.8,96.8,0.527
8.3,31726.8,34489.0,-1.3574,-1.2577,135.8,96.8,0.527
8.32,31759.5,34497.4,-1.1949,-1.2372,135.8,96.8,0.527
8.34,31846.5,34458.2,-0.7617,-1.3337,135.8,96.8,0.527
8.36,31764.0,34656.0,-1.1721,-0.8464,135.8,96.8,0.527
8.38,31889.3,34896.3,-0.5487,-0.254,135.8,96.8,0.527
8.4,32178.6,35229.6,0.8909,0.5673,135.8,96.8,0.527
8.42,32219.9,35555.1,1.0964,1.3692,135.8,96.8,0.527
8.44,32338.7,35747.7,1.6878,1.8439,135.8,96.8,0.527
8.46,32322.4,35671.8,1.6066,1.6569,135.8,96.8,0.527
8.48,32343.4,35644.9,1.7112,1.5905,135.8,96.8,0.527
8.5,32258.6,35422.6,1.2893,1.0428,135.8,96.8,0.527
8.52,32073.7,35254.7,0.3689,0.629,135.8,96.8,0.527
8.54,32160.7,35111.4,0.8018,0.276,135.8,96.8,0.527
8.56,32010.3,35117.1,0.0535,0.29,135.8,96.8,0.527
8.58,32004.0,35103.3,0.0221,0.2559,135.8,96.8,0.527
8.6,32005.8,35011.7,0.031,0.0303,135.8,96.8,0.527
8.62,31967.0,34803.2,-0.1618,-0.4835,135.8,96.8,0.527
8.64,31903.2,34723.2,-0.4795,-0.6806,135.8,96.8,0.527
8.66,31881.4,34705.2,-0.5882,-0.725,135.8,96.8,0.527
8.68,31874.4,34710.5,-0.623,-0.712,135.8,96.8,0.527
8.7,31813.0,34671.1,-0.9285,-0.8089,135.8,96.8,0.527
8.72,31856.4,34648.8,-0.7126,-0.8639,135.8,96.8,0.527
8.74,31779.0,34523.9,-1.0979,-1.1717,135.8,96.8,0.527
8.76,31716.7,34489.0,-1.4076,-1.2579,135.8,96.8,0.527
8.78,31596.7,34458.4,-2.0052,-1.3331,135.8,96.8,0.527
8.8,31773.5,34464.3,-1.1249,-1.3187,135.8,96.8,0.527
8.82,31986.4,34825.3,-0.0654,-0.429,135.8,96.8,0.527
8.84,32036.8,35227.8,0.1852,0.5628,135.8,96.8,0.527
8.86,32208.5,35553.0,1.0397,1.3641,135.8,96.8,0.527
8.88,32393.8,35750.0,1.9621,1.8496,135.8,96.8,0.527
8.9,32391.3,35744.8,1.9495,1.8368,135.8,96.8,0.527
8.92,32369.2,35626.8,1.8396,1.5459,135.8,96.8,0.527
8.94,32179.2,35397.4,0.8938,0.9807,135.8,96.8,0.527
8.96,32103.3,35233.5,0.5163,0.5768,135.8,96.8,0.527
8.98,32082.5,35106.0,0.4129,0.2625,135.8,96.8,0.527
9.0,32032.7,35093.9,0.1649,0.2327,135.8,96.8,0.527
9.02,32150.5,35023.8,0.7514,0.06,135.8,96.8,0.527
9.04,32031.9,35070.2,0.1611,0.1744,135.8,96.8,0.527
9.06,31993.8,34865.6,-0.0285,-0.3298,135.8,96.8,0.527
9.08,31879.6,34768.6,-0.597,-0.5688,135.8,96.8,0.527
9.1,31868.1,34668.9,-0.6543,-0.8145,135.8,96.8,0.527
9.12,31931.6,34679.6,-0.3385,-0.7882,135.8,96.8,0.527
9.14,31960.5,34665.1,-0.1944,-0.8237,135.8,96.8,0.527
9.16,31690.3,34591.5,-1.5393,-1.0052,135.8,96.8,0.527
9.18,31804.0,34578.8,-0.9731,-1.0364,135.8,96.8,0.527
9.2,31761.8,34438.1,-1.1835,-1.3832,135.8,96.8,0.527
9.22,31648.3,34475.1,-1.748,-1.292,135.8,96.8,0.527
9.24,31793.4,34569.0,-1.0261,-1.0608,135.8,96.8,0.527
9.26,31925.8,34925.3,-0.3673,-0.1827,135.8,96.8,0.527
9.28,32072.0,35086.5,0.3603,0.2145,135.8,96.8,0.527
9.3,32180.1,35469.9,0.8987,1.1594,135.8,96.8,0.527
9.32,32292.8,35669.0,1.4592,1.6499,135.8,96.8,0.527
9.34,32390.8,35804.8,1.9471,1.9845,135.8,96.8,0.527
9.36,32297.9,35686.6,1.4849,1.6934,135.8,96.8,0.527
9.38,32280.9,35446.8,1.4004,1.1025,135.8,96.8,0.527
9.4,32176.1,35213.3,0.8786,0.527,135.8,96.8,0.527
9.42,32087.1,35108.2,0.4356,0.2681,135.8,96.8,0.527
9.44,32060.0,35179.4,0.301,0.4436,135.8,96.8,0.527
9.46,32025.5,34999.3,0.1293,-0.0003,135.8,96.8,0.527
9.48,31972.4,35034.5,-0.1352,0.0865,135.8,96.8,0.527
9.5,32042.0,34973.3,0.211,-0.0644,135.8,96.8,0.527
9.52,31923.0,34861.8,-0.3808,-0.3391,135.8,96.8,0.527
9.54,31856.3,34668.9,-0.7131,-0.8145,135.8,96.8,0.527
9.56,31903.9,34739.8,-0.4763,-0.6398,135.8,96.8,0.527
9.58,31767.1,34692.5,-1.157,-0.7562,135.8,96.8,0.527
9.6,31817.6,34606.0,-0.9054,-0.9695,135.8,96.8,0.527
9.62,31898.8,34525.1,-0.5013,-1.1688,135.8,96.8,0.527
9.64,31790.1,34559.6,-1.0427,-1.0837,135.8,96.8,0.527
9.66,31730.4,34443.8,-1.3395,-1.3692,135.8,96.8,0.527
9.68,31687.9,34512.1,-1.5509,-1.2009,135.8,96.8,0.527
9.7,31888.5,34663.5,-0.5525,-0.8277,135.8,96.8,0.527
9.72,31996.8,35111.5,-0.0138,0.2762,135.8,96.8,0.527
9.74,32262.6,35428.7,1.309,1.0578,135.8,96.8,0.527
9.76,32320.4,35792.3,1.5965,1.9539,135.8,96.8,0.527
9.78,32401.6,35801.2,2.0009,1.9757,135.8,96.8,0.527
9.8,32311.6,35653.3,1.5528,1.6113,135.8,96.8,0.527
9.82,32135.4,35522.1,0.6759,1.288,135.8,96.8,0.527
9.84,32117.9,35272.8,0.589,0.6737,135.8,96.8,0.527
9.86,32184.3,35044.3,0.9195,0.1106,135.8,96.8,0.527
9.88,32110.9,35190.8,0.5544,0.4717,135.8,96.8,0.527
9.9,31994.6,35125.2,-0.0246,0.31,135.8,96.8,0.527
9.92,31931.2,34952.2,-0.3404,-0.1163,135.8,96.8,0.527
9.94,31919.0,34897.7,-0.401,-0.2508,135.8,96.8,0.527
9.96,31962.4,34801.0,-0.1849,-0.4889,135.8,96.8,0.527
9.98,31756.7,34679.6,-1.2087,-0.788,135.8,96.8,0.527
10.0,31904.6,34729.9,-0.4725,-0.6641,135.8,96.8,0.527
10.02,31686.6,34649.7,-1.5575,-0.8618,135.8,96.8,0.527
10.04,31819.4,34624.2,-0.8967,-0.9246,135.8,96.8,0.527
10.06,31775.0,34607.7,-1.1177,-0.9652,135.8,96.8,0.527
10.08,31830.4,34537.8,-0.8421,-1.1374,135.8,96.8,0.527
10.1,31724.4,34324.3,-1.3692,-1.6637,135.8,96.8,0.527
10.12,31775.1,34586.9,-1.1171,-1.0166,135.8,96.8,0.527
10.14,31839.5,34781.2,-0.7965,-0.5377,135.8,96.8,0.527
10.16,31965.2,35046.2,-0.1709,0.1153,135.8,96.8,0.527
10.18,32230.4,35411.9,1.1486,1.0164,135.8,96.8,0.527
10.2,32336.3,35674.9,1.6758,1.6645,135.8,96.8,0.527
10.22,32351.2,35688.7,1.7502,1.6986,135.8,96.8,0.527
10.24,32289.0,35630.6,1.4406,1.5555,135.8,96.8,0.527
10.26,32252.3,35566.1,1.2577,1.3964,135.8,96.8,0.527
10.28,32100.1,35423.9,0.5002,1.0459,135.8,96.8,0.527
10.3,32093.2,35198.4,0.4662,0.4903,135.8,96.8,0.527
10.32,32067.3,35242.8,0.3369,0.5998,135.8,96.8,0.527
10.34,32054.7,35066.4,0.2744,0.1651,135.8,96.8,0.527
10.36,31951.4,35016.3,-0.2399,0.0416,135.8,96.8,0.527
10.38,31914.4,34862.9,-0.4237,-0.3364,135.8,96.8,0.527
10.4,31895.7,34815.0,-0.5168,-0.4546,135.8,96.8,0.527
10.42,31817.7,34744.6,-0.9053,-0.6279,135.8,96.8,0.527
10.44,31841.4,34708.1,-0.7872,-0.7178,135.8,96.8,0.527
10.46,31873.3,34669.3,-0.6282,-0.8135,135.8,96.8,0.527
10.48,31828.0,34611.1,-0.8536,-0.9569,135.8,96.8,0.527
10.5,31840.1,34519.8,-0.7934,-1.1819,135.8,96.8,0.527
10.52,31796.6,34510.9,-1.0101,-1.2038,135.8,96.8,0.527
10.54,31748.0,34479.3,-1.252,-1.2818,135.8,96.8,0.527
10.56,31658.9,34517.7,-1.6956,-1.1872,135.8,96.8,0.527
10.58,31824.7,34682.1,-0.8702,-0.7819,135.8,96.8,0.527
10.6,32010.0,35060.0,0.0521,0.1492,135.8,96.8,0.527
10.62,32274.2,35393.4,1.3669,0.9709,135.8,96.8,0.527
10.64,32343.4,35663.3,1.7112,1.636,135.8,96.8,0.527
10.66,32336.9,35775.0,1.679,1.9113,135.8,96.8,0.527
10.68,32361.4,35673.0,1.801,1.6597,135.8,96.8,0.527
10.7,32184.8,35562.3,0.9218,1.387,135.8,96.8,0.527
10.72,32175.9,35261.3,0.8774,0.6452,135.8,96.8,0.527
10.74,32111.0,35178.2,0.5548,0.4406,135.8,96.8,0.527
10.76,32033.2,35180.4,0.1672,0.4459,135.8,96.8,0.527
10.78,32037.9,34988.2,0.1909,-0.0276,135.8,96.8,0.527
10.8,31977.6,34979.5,-0.1095,-0.0491,135.8,96.8,0.527
10.82,31952.5,34867.0,-0.2341,-0.3263,135.8,96.8,0.527
10.84,31854.9,34831.1,-0.7201,-0.4148,135.8,96.8,0.527
10.86,31867.2,34625.5,-0.6588,-0.9214,135.8,96.8,0.527
10.88,31770.5,34650.9,-1.1401,-0.8588,135.8,96.8,0.527
10.9,31955.7,34648.0,-0.2182,-0.866,135.8,96.8,0.527
10.92,31812.5,34644.1,-0.9312,-0.8755,135.8,96.8,0.527
10.94,31716.0,34579.9,-1.4114,-1.0339,135.8,96.8,0.527
10.96,31806.8,34478.7,-0.9592,-1.2832,135.8,96.8,0.527
10.98,31811.0,34410.9,-0.9383,-1.4502,135.8,96.8,0.527
11.0,31766.4,34515.2,-1.1602,-1.1933,135.8,96.8,0.527
11.02,31842.9,34690.3,-0.7795,-0.7617,135.8,96.8,0.527
11.04,31917.3,34996.8,-0.4095,-0.0065,135.8,96.8,0.527
11.06,32157.0,35363.1,0.7837,0.8961,135.8,96.8,0.527
11.08,32263.2,35694.0,1.3123,1.7116,135.8,96.8,0.527
11.1,32282.9,35774.5,1.4103,1.9098,135.8,96.8,0.527
11.12,32390.7,35852.9,1.9467,2.1031,135.8,96.8,0.527
11.14,32361.1,35617.6,1.7996,1.5233,135.8,96.8,0.527
11.16,32138.2,35226.8,0.6901,0.5603,135.8,96.8,0.527
11.18,32123.5,35230.1,0.6168,0.5684,135.8,96.8,0.527
11.2,32128.1,35041.8,0.6396,0.1045,135.8,96.8,0.527
11.22,32150.0,35012.6,0.7487,0.0324,135.8,96.8,0.527
11.24,32013.4,35074.6,0.0689,0.1852,135.8,96.8,0.527
11.26,31989.8,35035.7,-0.0484,0.0895,135.8,96.8,0.527
11.28,31922.6,34757.4,-0.3832,-0.5963,135.8,96.8,0.527
11.3,31840.9,34725.9,-0.7898,-0.674,135.8,96.8,0.527
11.32,31888.7,34645.5,-0.5518,-0.8722,135.8,96.8,0.527
11.34,31837.6,34656.3,-0.8061,-0.8456,135.8,96.8,0.527
11.36,31788.5,34586.9,-1.0504,-1.0167,135.8,96.8,0.527
11.38,31759.7,34568.8,-1.1939,-1.0611,135.8,96.8,0.527
11.4,31705.0,34512.7,-1.4658,-1.1995,135.8,96.8,0.527
11.42,31771.5,34479.8,-1.1353,-1.2805,135.8,96.8,0.527
11.44,31829.5,34483.1,-0.8462,-1.2722,135.8,96.8,0.527
11.46,31823.9,34653.5,-0.8744,-0.8524,135.8,96.8,0.527
11.48,32012.5,34960.7,0.0643,-0.0954,135.8,96.8,0.527
11.5,32172.6,35308.6,0.8612,0.7618,135.8,96.8,0.527
11.52,32248.8,35572.4,1.2404,1.412,135.8,96.8,0.527
11.54,32360.1,35713.1,1.7941,1.7587,135.8,96.8,0.527
11.56,32426.1,35635.9,2.123,1.5684,135.8,96.8,0.527
11.58,32245.0,35537.9,1.2214,1.3269,135.8,96.8,0.527
11.6,32129.9,35375.1,0.6489,0.9258,135.8,96.8,0.527
11.62,31999.6,35256.0,0.0003,0.6323,135.8,96.8,0.527
11.64,32010.0,35048.3,0.0517,0.1203,135.8,96.8,0.527
11.66,31952.4,35070.3,-0.2346,0.1747,135.8,96.8,0.527
11.68,31923.8,35008.4,-0.3772,0.0221,135.8,96.8,0.527
11.7,31895.2,34977.8,-0.5192,-0.0533,135.8,96.8,0.527
11.72,31983.5,34839.7,-0.0798,-0.3936,135.8,96.8,0.527
11.74,31885.8,34729.1,-0.5662,-0.666,135.8,96.8,0.527
11.76,31825.6,34703.6,-0.8657,-0.7289,135.8,96.8,0.527
11.78,31834.9,34640.6,-0.8197,-0.8842,135.8,96.8,0.527
11.8,31878.9,34695.1,-0.6004,-0.7499,135.8,96.8,0.527
11.82,31785.2,34695.1,-1.0668,-0.7499,135.8,96.8,0.527
11.84,31738.3,34417.9,-1.3003,-1.433,135.8,96.8,0.527
11.86,31745.0,34415.2,-1.2669,-1.4398,135.8,96.8,0.527
11.88,31723.2,34486.1,-1.3755,-1.2649,135.8,96.8,0.527
11.9,31711.5,34592.9,-1.4337,-1.0018,135.8,96.8,0.527
11.92,31973.3,34921.5,-0.1306,-0.192,135.8,96.8,0.527
11.94,32129.5,35260.7,0.6466,0.6438,135.8,96.8,0.527
11.96,32326.8,35529.7,1.6287,1.3066,135.8,96.8,0.527
11.98,32299.5,35783.6,1.4927,1.9323,135.8,96.8,0.527
12.0,32413.5,35724.8,2.0601,1.7874,135.8,96.8,0.527
12.02,32244.1,35580.8,1.2169,1.4327,135.8,96.8,0.527
12.04,32099.0,35357.3,0.4948,0.8818,135.8,96.8,0.527
12.06,32050.0,35216.2,0.2509,0.5342,135.8,96.8,0.527
12.08,32024.6,35209.2,0.1249,0.5168,135.8,96.8,0.527
12.1,32045.9,35124.6,0.2306,0.3085,135.8,96.8,0.527
12.12,31988.2,35061.0,-0.0564,0.1517,135.8,96.8,0.527
12.14,31938.4,34937.4,-0.3043,-0.153,135.8,96.8,0.527
12.16,31817.5,34808.5,-0.9062,-0.4704,135.8,96.8,0.527
12.18,31850.9,34723.5,-0.7397,-0.6799,135.8,96.8,0.527
12.2,31852.2,34681.9,-0.7334,-0.7825,135.8,96.8,0.527
12.22,31839.4,34688.4,-0.7973,-0.7663,135.8,96.8,0.527
12.24,31772.5,34615.3,-1.1301,-0.9466,135.8,96.8,0.527
12.26,31775.8,34593.7,-1.1136,-0.9998,135.8,96.8,0.527
12.28,31760.9,34457.8,-1.1878,-1.3346,135.8,96.8,0.527
12.3,31787.7,34503.2,-1.0546,-1.2228,135.8,96.8,0.527
12.32,31822.8,34581.2,-0.8796,-1.0306,135.8,96.8,0.527
12.34,31789.8,34560.8,-1.0441,-1.0808,135.8,96.8,0.527
12.36,32025.4,34896.7,0.1286,-0.2532,135.8,96.8,0.527
12.38,32082.0,35217.7,0.4101,0.5379,135.8,96.8,0.527
12.4,32366.7,35626.5,1.8272,1.5451,135.8,96.8,0.527
12.42,32327.3,35749.3,1.6313,1.8479,135.8,96.8,0.527
12.44,32405.8,35811.6,2.0219,2.0015,135.8,96.8,0.527
12.46,32310.2,35581.0,1.5462,1.4332,135.8,96.8,0.527
12.48,32218.1,35465.4,1.0874,1.1483,135.8,96.8,0.527
12.5,32113.6,35291.6,0.5674,0.7199,135.8,96.8,0.527
12.52,32062.8,35160.0,0.3145,0.3957,135.8,96.8,0.527
12.54,31962.3,34999.9,-0.1852,0.0011,135.8,96.8,0.527
12.56,31939.0,35029.8,-0.3012,0.0748,135.8,96.8,0.527
12.58,31973.2,34929.6,-0.1311,-0.1721,135.8,96.8,0.527
12.6,31881.6,34898.7,-0.5872,-0.2482,135.8,96.8,0.527
12.62,31878.3,34855.1,-0.6035,-0.3555,135.8,96.8,0.527
12.64,31897.0,34556.8,-0.5105,-1.0906,135.8,96.8,0.527
12.66,31825.6,34603.6,-0.8658,-0.9754,135.8,96.8,0.527
12.68,31775.7,34638.1,-1.114,-0.8904,135.8,96.8,0.527
12.7,31831.3,34602.7,-0.8376,-0.9776,135.8,96.8,0.527
12.72,31771.5,34526.6,-1.1352,-1.1652,135.8,96.8,0.527
12.74,31690.4,34438.9,-1.5387,-1.3812,135.8,96.8,0.527
12.76,31846.8,34411.0,-0.7601,-1.4501,135.8,96.8,0.527
12.78,31767.8,34629.1,-1.1536,-0.9125,135.8,96.8,0.527
12.8,31910.0,34927.4,-0.4456,-0.1776,135.8,96.8,0.527
12.82,32126.7,35301.5,0.6328,0.7444,135.8,96.8,0.527
12.84,32332.5,35466.7,1.6569,1.1515,135.8,96.8,0.527
12.86,32349.6,35722.1,1.7424,1.7808,135.8,96.8,0.527
12.88,32379.1,35755.8,1.8888,1.8638,135.8,96.8,0.527
12.9,32227.9,35624.6,1.1367,1.5405,135.8,96.8,0.527
12.92,32239.3,35453.3,1.1931,1.1184,135.8,96.8,0.527
12.94,32247.9,35273.7,1.2358,0.6759,135.8,96.8,0.527
12.96,32130.2,35168.8,0.6501,0.4175,135.8,96.8,0.527
12.98,31967.3,35100.8,-0.1608,0.2499,135.8,96.8,0.527
13.0,31944.4,34998.4,-0.2744,-0.0025,135.8,96.8,0.527
13.02,31952.3,34930.2,-0.2354,-0.1707,135.8,96.8,0.527
13.04,31993.8,34827.1,-0.0289,-0.4247,135.8,96.8,0.527
13.06,31924.9,34773.3,-0.3718,-0.5573,135.8,96.8,0.527
13.08,31855.3,34755.2,-0.7182,-0.6017,135.8,96.8,0.527
13.1,31809.6,34676.2,-0.9454,-0.7965,135.8,96.8,0.527
13.12,31848.3,34615.3,-0.7526,-0.9466,135.8,96.8,0.527
13.14,31770.9,34608.5,-1.1382,-0.9633,135.8,96.8,0.527
13.16,31806.3,34480.5,-0.9617,-1.2788,135.8,96.8,0.527
13.18,31678.4,34555.8,-1.5984,-1.0931,135.8,96.8,0.527
13.2,31730.2,34506.2,-1.3404,-1.2153,135.8,96.8,0.527
13.22,31811.0,34612.6,-0.9385,-0.9533,135.8,96.8,0.527
13.24,31982.8,34828.0,-0.0836,-0.4223,135.8,96.8,0.527
13.26,32104.7,35219.2,0.5235,0.5415,135.8,96.8,0.527
13.28,32217.4,35529.8,1.0844,1.3069,135.8,96.8,0.527
13.3,32247.5,35776.8,1.2342,1.9157,135.8,96.8,0.527
13.32,32415.5,35729.7,2.0701,1.7994,135.8,96.8,0.527
13.34,32287.3,35633.6,1.4322,1.5628,135.8,96.8,0.527
13.36,32200.8,35529.7,1.0017,1.3066,135.8,96.8,0.527
13.38,32167.8,35283.4,0.8375,0.6999,135.8,96.8,0.527
13.4,32106.4,35194.5,0.5316,0.4806,135.8,96.8,0.527
13.42,32036.7,35097.8,0.185,0.2424,135.8,96.8,0.527
13.44,32088.0,35038.0,0.4401,0.0952,135.8,96.8,0.527
13.46,32048.1,35001.1,0.2415,0.0042,135.8,96.8,0.527
13.48,32005.9,34848.4,0.0314,-0.3722,135.8,96.8,0.527
13.5,31952.4,34797.9,-0.2348,-0.4967,135.8,96.8,0.527
13.52,31770.4,34614.2,-1.1403,-0.9494,135.8,96.8,0.527
13.54,31815.9,34730.8,-0.9143,-0.662,135.8,96.8,0.527
13.56,31875.0,34671.7,-0.6202,-0.8077,135.8,96.8,0.527
13.58,31792.3,34660.4,-1.0318,-0.8355,135.8,96.8,0.527
13.6,31765.3,34471.3,-1.1661,-1.3015,135.8,96.8,0.527
13.62,31766.8,34498.8,-1.1586,-1.2335,135.8,96.8,0.527
13.64,31713.5,34498.0,-1.4239,-1.2356,135.8,96.8,0.527
13.66,31810.5,34604.1,-0.9411,-0.9741,135.8,96.8,0.527
13.68,31972.9,34786.1,-0.1327,-0.5257,135.8,96.8,0.527
13.7,32059.9,35192.7,0.3002,0.4762,135.8,96.8,0.527
13.72,32165.9,35551.7,0.8279,1.3608,135.8,96.8,0.527
13.74,32297.9,35700.5,1.4849,1.7275,135.8,96.8,0.527
13.76,32401.7,35763.8,2.0016,1.8835,135.8,96.8,0.527
13.78,32338.4,35643.0,1.6865,1.5859,135.8,96.8,0.527
13.8,32323.0,35438.3,1.61,1.0814,135.8,96.8,0.527
13.82,32099.2,35257.2,0.4959,0.6352,135.8,96.8,0.527
13.84,32154.2,35192.4,0.7695,0.4756,135.8,96.8,0.527
13.86,32062.5,35116.7,0.3134,0.289,135.8,96.8,0.527
13.88,32010.2,35059.3,0.053,0.1474,135.8,96.8,0.527
13.9,31957.2,35023.9,-0.2108,0.0603,135.8,96.8,0.527
13.92,31930.8,34852.2,-0.3422,-0.3627,135.8,96.8,0.527
13.94,31860.5,34765.4,-0.6923,-0.5768,135.8,96.8,0.527
13.96,31823.4,34593.4,-0.8765,-1.0006,135.8,96.8,0.527
13.98,31877.8,34650.4,-0.6058,-0.86,135.8,96.8,0.527
14.0,31826.3,34660.0,-0.8621,-0.8363,135.8,96.8,0.527
14.02,31873.6,34584.2,-0.6268,-1.0231,135.8,96.8,0.527
14.04,31781.3,34522.7,-1.0864,-1.1747,135.8,96.8,0.527
14.06,31713.2,34504.3,-1.425,-1.2201,135.8,96.8,0.527
14.08,31789.3,34496.4,-1.0464,-1.2394,135.8,96.8,0.527
14.1,31750.8,34639.9,-1.2382,-0.8859,135.8,96.8,0.527
14.12,31912.0,34905.8,-0.4359,-0.2307,135.8,96.8,0.527
14.14,32094.6,35044.8,0.473,0.1119,135.8,96.8,0.527
14.16,32246.6,35412.5,1.2297,1.0179,135.8,96.8,0.527
14.18,32292.0,35683.5,1.4552,1.6856,135.8,96.8,0.527
14.2,32315.1,35732.0,1.5703,1.8051,135.8,96.8,0.527
14.22,32392.6,35610.4,1.9559,1.5055,135.8,96.8,0.527
14.24,32303.3,35540.2,1.5119,1.3325,135.8,96.8,0.527
14.26,32199.6,35158.6,0.9954,0.3923,135.8,96.8,0.527
14.28,32018.6,35050.3,0.0948,0.1254,135.8,96.8,0.527
14.3,32001.0,35078.1,0.0069,0.1938,135.8,96.8,0.527
14.32,32091.6,35087.5,0.4582,0.2169,135.8,96.8,0.527
14.34,32001.7,34924.9,0.0108,-0.1837,135.8,96.8,0.527
14.36,31879.2,34949.3,-0.5988,-0.1234,135.8,96.8,0.527
14.38,31914.9,34833.3,-0.4214,-0.4093,135.8,96.8,0.527
14.4,31884.6,34752.1,-0.5721,-0.6096,135.8,96.8,0.527
14.42,31873.8,34666.8,-0.6259,-0.8196,135.8,96.8,0.527
14.44,31883.3,34644.1,-0.5785,-0.8755,135.8,96.8,0.527
14.46,31784.8,34633.2,-1.0689,-0.9024,135.8,96.8,0.527
14.48,31802.5,34544.5,-0.9808,-1.1211,135.8,96.8,0.527
14.5,31726.1,34537.5,-1.361,-1.1384,135.8,96.8,0.527
14.52,31816.8,34387.9,-0.9094,-1.507,135.8,96.8,0.527
14.54,31683.6,34559.8,-1.5724,-1.0834,135.8,96.8,0.527
14.56,31817.1,34688.7,-0.9083,-0.7657,135.8,96.8,0.527
14.58,32022.8,35130.4,0.1155,0.3229,135.8,96.8,0.527
14.6,32249.4,35400.5,1.2436,0.9883,135.8,96.8,0.527
14.62,32392.1,35638.1,1.9534,1.5737,135.8,96.8,0.527
14.64,32281.9,35724.8,1.405,1.7874,135.8,96.8,0.527
14.66,32339.3,35584.8,1.6908,1.4424,135.8,96.8,0.527
14.68,32355.9,35542.7,1.7732,1.3387,135.8,96.8,0.527
14.7,32176.7,35341.9,0.8814,0.8439,135.8,96.8,0.527
14.72,32046.0,35095.2,0.2311,0.2361,135.8,96.8,0.527
14.74,32094.5,35045.4,0.4724,0.1134,135.8,96.8,0.527
14.76,32042.1,34953.0,0.2117,-0.1144,135.8,96.8,0.527
14.78,32036.0,34912.2,0.1813,-0.2149,135.8,96.8,0.527
14.8,31916.9,34912.7,-0.4112,-0.2136,135.8,96.8,0.527
14.82,31945.8,34823.8,-0.2676,-0.4327,135.8,96.8,0.527
14.84,31697.5,34765.7,-1.5031,-0.576,135.8,96.8,0.527
14.86,31917.0,34619.5,-0.4111,-0.9361,135.8,96.8,0.527
14.88,31808.7,34689.0,-0.9498,-0.765,135.8,96.8,0.527
14.9,31907.9,34634.9,-0.4564,-0.8982,135.8,96.8,0.527
14.92,31753.6,34561.8,-1.2242,-1.0784,135.8,96.8,0.527
14.94,31710.8,34502.3,-1.4369,-1.225,135.8,96.8,0.527
14.96,31758.4,34423.8,-1.2003,-1.4185,135.8,96.8,0.527
14.98,31752.2,34498.7,-1.231,-1.2339,135.8,96.8,0.527
15.0,31950.6,34767.5,-0.2434,-0.5715,135.8,96.8,0.527
15.02,31987.2,35030.0,-0.0614,0.0752,135.8,96.8,0.527
15.04,32216.2,35391.5,1.0783,0.9663,135.8,96.8,0.527
15.06,32305.3,35651.9,1.5219,1.6078,135.8,96.8,0.527
15.08,32387.9,35795.9,1.9327,1.9628,135.8,96.8,0.527
15.1,32250.8,35702.2,1.2505,1.7317,135.8,96.8,0.527
15.12,32274.0,35543.3,1.3657,1.3403,135.8,96.8,0.527
15.14,32186.3,35333.5,0.9295,0.8232,135.8,96.8,0.527
15.16,32114.8,35230.9,0.5736,0.5705,135.8,96.8,0.527
15.18,32092.7,35082.8,0.4633,0.2054,135.8,96.8,0.527
15.2,32040.5,35068.1,0.2036,0.1692,135.8,96.8,0.527
15.22,32019.6,35022.7,0.0999,0.0573,135.8,96.8,0.527
15.24,31956.6,34973.2,-0.214,-0.0647,135.8,96.8,0.527
15.26,31865.7,34903.1,-0.6661,-0.2374,135.8,96.8,0.527
15.28,31975.6,34795.4,-0.1191,-0.5028,135.8,96.8,0.527
15.3,31848.6,34738.8,-0.7511,-0.6421,135.8,96.8,0.527
15.32,31867.9,34617.4,-0.6553,-0.9415,135.8,96.8,0.527
15.34,31806.0,34683.0,-0.9632,-0.7798,135.8,96.8,0.527
15.36,31750.3,34565.7,-1.2406,-1.0688,135.8,96.8,0.527
15.38,31708.9,34579.2,-1.4466,-1.0356,135.8,96.8,0.527
15.4,31804.7,34527.4,-0.9699,-1.1632,135.8,96.8,0.527
15.42,31715.3,34528.0,-1.4147,-1.1616,135.8,96.8,0.527
15.44,31853.8,34726.3,-0.7255,-0.6729,135.8,96.8,0.527
15.46,31962.5,35031.7,-0.1844,0.0796,135.8,96.8,0.527
15.48,32102.4,35343.4,0.5119,0.8476,135.8,96.8,0.527
15.5,32417.5,35545.2,2.0799,1.345,135.8,96.8,0.527
15.52,32441.3,35799.7,2.1986,1.972,135.8,96.8,0.527
15.54,32406.6,35685.5,2.0256,1.6905,135.8,96.8,0.527
15.56,32291.3,35549.1,1.4522,1.3544,135.8,96.8,0.527
15.58,32252.6,35321.2,1.2595,0.793,135.8,96.8,0.527
15.6,32059.9,35276.8,0.3002,0.6835,135.8,96.8,0.527
15.62,32068.2,35109.9,0.3414,0.2724,135.8,96.8,0.527
15.64,32016.1,35054.5,0.0822,0.1356,135.8,96.8,0.527
15.66,32001.2,35009.8,0.0079,0.0256,135.8,96.8,0.527
15.68,31914.1,34984.0,-0.4254,-0.038,135.8,96.8,0.527
15.7,32003.0,34835.3,0.0169,-0.4044,135.8,96.8,0.527
15.72,31896.7,34701.0,-0.5121,-0.7354,135.8,96.8,0.527
15.74,31826.8,34661.4,-0.8596,-0.8328,135.8,96.8,0.527
15.76,31908.2,34625.0,-0.4545,-0.9227,135.8,96.8,0.527
15.78,31771.7,34629.1,-1.1342,-0.9126,135.8,96.8,0.527
15.8,31766.3,34550.0,-1.1611,-1.1076,135.8,96.8,0.527
15.82,31643.8,34483.0,-1.7704,-1.2725,135.8,96.8,0.527
15.84,31679.1,34466.8,-1.5951,-1.3124,135.8,96.8,0.527
15.86,31739.4,34503.3,-1.295,-1.2225,135.8,96.8,0.527
15.88,31837.7,34715.7,-0.8055,-0.6992,135.8,96.8,0.527
15.9,31992.7,35026.0,-0.0342,0.0656,135.8,96.8,0.527
15.92,32130.6,35312.7,0.6521,0.7721,135.8,96.8,0.527
15.94,32282.4,35612.7,1.4074,1.5113,135.8,96.8,0.527
15.96,32423.4,35808.1,2.1096,1.9928,135.8,96.8,0.527
15.98,32368.2,35818.2,1.8349,2.0176,135.8,96.8,0.527
16.0,32313.1,35504.0,1.5607,1.2433,135.8,96.8,0.527
16.02,32129.7,35356.5,0.6478,0.8799,135.8,96.8,0.527
16.04,32136.4,35218.9,0.6808,0.5408,135.8,96.8,0.527
16.06,32037.4,35110.1,0.1881,0.2728,135.8,96.8,0.527
16.08,31944.1,35049.8,-0.276,0.1241,135.8,96.8,0.527
16.1,31996.4,34995.8,-0.0156,-0.009,135.8,96.8,0.527
16.12,31878.6,34984.4,-0.6019,-0.037,135.8,96.8,0.527
16.14,31949.4,34805.1,-0.2498,-0.4789,135.8,96.8,0.527
16.16,31883.9,34715.6,-0.5755,-0.6993,135.8,96.8,0.527
16.18,31786.8,34663.9,-1.0588,-0.8268,135.8,96.8,0.527
16.2,31795.3,34667.6,-1.0168,-0.8176,135.8,96.8,0.527
16.22,31853.6,34651.3,-0.7264,-0.8578,135.8,96.8,0.527
16.24,31802.2,34599.0,-0.9823,-0.9866,135.8,96.8,0.527
16.26,31795.6,34435.3,-1.0149,-1.3901,135.8,96.8,0.527
16.28,31751.0,34466.3,-1.2372,-1.3137,135.8,96.8,0.527
16.3,31795.7,34540.3,-1.0147,-1.1314,135.8,96.8,0.527
16.32,31878.0,34537.5,-0.605,-1.1383,135.8,96.8,0.527
16.34,31988.4,34994.7,-0.0555,-0.0117,135.8,96.8,0.527
16.36,32127.5,35284.4,0.6366,0.7023,135.8,96.8,0.527
16.38,32360.8,35553.5,1.7979,1.3654,135.8,96.8,0.527
16.4,32439.4,35728.0,2.1889,1.7955,135.8,96.8,0.527
16.42,32321.7,35750.1,1.6031,1.8497,135.8,96.8,0.527
16.44,32235.5,35570.3,1.1743,1.4068,135.8,96.8,0.527
16.46,32131.0,35346.2,0.654,0.8546,135.8,96.8,0.527
16.48,32109.1,35275.7,0.545,0.6807,135.8,96.8,0.527
16.5,32047.6,35104.0,0.2393,0.2578,135.8,96.8,0.527
16.52,32096.1,35012.5,0.4806,0.0321,135.8,96.8,0.527
16.54,32018.9,35051.3,0.0962,0.1279,135.8,96.8,0.527
16.56,31956.0,34854.2,-0.2167,-0.3579,135.8,96.8,0.527
16.58,31919.6,34968.6,-0.3981,-0.076,135.8,96.8,0.527
16.6,31900.2,34705.8,-0.4945,-0.7235,135.8,96.8,0.527
16.62,31897.7,34682.3,-0.5071,-0.7815,135.8,96.8,0.527
16.64,31838.3,34581.4,-0.8023,-1.0302,135.8,96.8,0.527
16.66,31845.5,34646.9,-0.7669,-0.8686,135.8,96.8,0.527
16.68,31798.8,34698.6,-0.9994,-0.7414,135.8,96.8,0.527
16.7,31784.1,34563.5,-1.0724,-1.0742,135.8,96.8,0.527
16.72,31827.1,34448.3,-0.8582,-1.3581,135.8,96.8,0.527
16.74,31782.8,34385.3,-1.0788,-1.5133,135.8,96.8,0.527
16.76,31835.3,34791.1,-0.8176,-0.5133,135.8,96.8,0.527
16.78,31965.5,34998.4,-0.1694,-0.0024,135.8,96.8,0.527
16.8,32109.3,35280.9,0.546,0.6935,135.8,96.8,0.527
16.82,32242.0,35562.9,1.2065,1.3886,135.8,96.8,0.527
16.84,32378.2,35671.4,1.8845,1.6558,135.8,96.8,0.527
16.86,32318.5,35744.8,1.5874,1.8367,135.8,96.8,0.527
16.88,32239.6,35570.5,1.1946,1.4071,135.8,96.8,0.527
16.9,32214.1,35399.0,1.0676,0.9845,135.8,96.8,0.527
16.92,32081.3,35278.7,0.4069,0.6882,135.8,96.8,0.527
16.94,31937.0,35184.4,-0.3116,0.4558,135.8,96.8,0.527
16.96,31982.7,35067.8,-0.0837,0.1684,135.8,96.8,0.527
16.98,31940.4,35061.1,-0.2945,0.152,135.8,96.8,0.527
17.0,32029.4,34948.8,0.1486,-0.1247,135.8,96.8,0.527
17.02,31888.5,34842.5,-0.5525,-0.3867,135.8,96.8,0.527
17.04,31836.5,34741.5,-0.8115,-0.6355,135.8,96.8,0.527
17.06,31938.9,34742.7,-0.3017,-0.6326,135.8,96.8,0.527
17.08,31843.1,34650.6,-0.7786,-0.8597,135.8,96.8,0.527
17.1,31791.0,34710.7,-1.0381,-0.7115,135.8,96.8,0.527
17.12,31728.6,34627.5,-1.3484,-0.9166,135.8,96.8,0.527
17.14,31846.2,34543.2,-0.7633,-1.1243,135.8,96.8,0.527
17.16,31776.9,34516.9,-1.1081,-1.189,135.8,96.8,0.527
17.18,31721.7,34464.4,-1.3829,-1.3183,135.8,96.8,0.527
17.2,31831.6,34577.9,-0.8361,-1.0386,135.8,96.8,0.527
17.22,31886.2,34930.9,-0.5642,-0.1688,135.8,96.8,0.527
17.24,32127.4,35226.1,0.6364,0.5585,135.8,96.8,0.527
17.26,32217.5,35531.2,1.0845,1.3104,135.8,96.8,0.527
17.28,32406.6,35711.6,2.0258,1.7549,135.8,96.8,0.527
17.3,32308.9,35693.5,1.5397,1.7104,135.8,96.8,0.527
17.32,32343.0,35570.6,1.7093,1.4074,135.8,96.8,0.527
17.34,32235.1,35399.6,1.1725,0.9862,135.8,96.8,0.527
17.36,32136.7,35245.5,0.6825,0.6064,135.8,96.8,0.527
17.38,32144.5,35059.0,0.7215,0.1469,135.8,96.8,0.527
17.4,31965.5,35104.5,-0.1694,0.259,135.8,96.8,0.527
17.42,31903.1,34979.0,-0.4803,-0.0503,135.8,96.8,0.527
17.44,32144.3,34930.2,0.7205,-0.1705,135.8,96.8,0.527
17.46,31895.8,34889.7,-0.5163,-0.2703,135.8,96.8,0.527
17.48,31801.0,34740.1,-0.9882,-0.639,135.8,96.8,0.527
17.5,31821.5,34671.8,-0.8862,-0.8072,135.8,96.8,0.527
17.52,31844.1,34620.9,-0.7735,-0.9328,135.8,96.8,0.527
17.54,31840.9,34695.2,-0.7897,-0.7497,135.8,96.8,0.527
17.56,31824.8,34673.3,-0.8698,-0.8036,135.8,96.8,0.527
17.58,31822.2,34480.5,-0.8828,-1.2787,135.8,96.8,0.527
17.6,31759.8,34479.6,-1.1935,-1.2809,135.8,96.8,0.527
17.62,31783.1,34535.0,-1.0771,-1.1445,135.8,96.8,0.527
17.64,31813.2,34627.8,-0.9277,-0.9159,135.8,96.8,0.527
17.66,31878.0,34885.8,-0.6048,-0.2801,135.8,96.8,0.527
17.68,32188.2,35229.5,0.939,0.567,135.8,96.8,0.527
17.7,32213.1,35509.9,1.0625,1.258,135.8,96.8,0.527
17.72,32265.8,35725.3,1.325,1.7886,135.8,96.8,0.527
17.74,32276.2,35651.5,1.3768,1.6068,135.8,96.8,0.527
17.76,32230.7,35666.9,1.1504,1.6447,135.8,96.8,0.527
17.78,32179.3,35468.1,0.8945,1.155,135.8,96.8,0.527
17.8,32184.1,35252.5,0.9186,0.6236,135.8,96.8,0.527
17.82,32023.5,35144.7,0.1189,0.358,135.8,96.8,0.527
17.84,31980.2,35004.6,-0.0963,0.0127,135.8,96.8,0.527
17.86,32083.3,35070.8,0.4169,0.1759,135.8,96.8,0.527
17.88,32083.1,34907.6,0.4159,-0.2263,135.8,96.8,0.527
17.9,31916.7,34818.8,-0.4123,-0.445,135.8,96.8,0.527
17.92,31891.0,34805.3,-0.5404,-0.4783,135.8,96.8,0.527
17.94,31873.7,34638.5,-0.6265,-0.8893,135.8,96.8,0.527
17.96,31822.9,34667.2,-0.8793,-0.8188,135.8,96.8,0.527
17.98,31873.2,34611.0,-0.6287,-0.9572,135.8,96.8,0.527
18.0,31797.2,34553.6,-1.0074,-1.0987,135.8,96.8,0.527
18.02,31782.0,34373.8,-1.083,-1.5416,135.8,96.8,0.527
18.04,31769.8,34472.3,-1.1435,-1.2988,135.8,96.8,0.527
18.06,31796.7,34504.0,-1.0095,-1.2208,135.8,96.8,0.527
18.08,31822.4,34582.6,-0.8819,-1.027,135.8,96.8,0.527
18.1,31932.4,34872.3,-0.334,-0.3132,135.8,96.8,0.527
18.12,32121.7,35239.2,0.608,0.591,135.8,96.8,0.527
18.14,32157.2,35421.1,0.7845,1.039,135.8,96.8,0.527
18.16,32412.6,35741.4,2.0557,1.8283,135.8,96.8,0.527
18.18,32415.6,35763.6,2.0706,1.8831,135.8,96.8,0.527
18.2,32314.7,35598.2,1.5683,1.4755,135.8,96.8,0.527
18.22,32291.4,35476.5,1.4524,1.1755,135.8,96.8,0.527
18.24,32127.3,35312.0,0.6357,0.7702,135.8,96.8,0.527
18.26,32118.3,35160.4,0.591,0.3968,135.8,96.8,0.527
18.28,32056.8,35098.5,0.2849,0.2441,135.8,96.8,0.527
18.3,32088.5,35013.7,0.4425,0.0352,135.8,96.8,0.527
18.32,31996.0,34986.5,-0.0179,-0.0318,135.8,96.8,0.527
18.34,31890.2,34842.6,-0.5442,-0.3865,135.8,96.8,0.527
18.36,31885.4,34799.3,-0.5681,-0.4931,135.8,96.8,0.527
18.38,31812.5,34649.7,-0.9311,-0.8617,135.8,96.8,0.527
18.4,31775.0,34668.5,-1.1175,-0.8154,135.8,96.8,0.527
18.42,31808.9,34719.1,-0.9491,-0.6908,135.8,96.8,0.527
18.44,31799.5,34666.9,-0.9958,-0.8194,135.8,96.8,0.527
18.46,31838.2,34636.2,-0.8029,-0.8951,135.8,96.8,0.527
18.48,31780.6,34504.9,-1.0896,-1.2187,135.8,96.8,0.527
18.5,31699.0,34385.8,-1.4958,-1.5122,135.8,96.8,0.527
18.52,31797.7,34630.8,-1.0047,-0.9085,135.8,96.8,0.527
18.54,31924.1,34746.8,-0.3754,-0.6224,135.8,96.8,0.527
18.56,32038.6,35191.1,0.1944,0.4723,135.8,96.8,0.527
18.58,32184.0,35514.0,0.9178,1.268,135.8,96.8,0.527
18.6,32309.3,35621.8,1.5417,1.5337,135.8,96.8,0.527
18.62,32368.2,35731.2,1.8349,1.8033,135.8,96.8,0.527
18.64,32323.8,35658.2,1.6139,1.6232,135.8,96.8,0.527
18.66,32259.5,35440.2,1.2936,1.0861,135.8,96.8,0.527
18.68,32151.9,35354.7,0.7581,0.8754,135.8,96.8,0.527
18.7,32013.4,35223.1,0.069,0.5511,135.8,96.8,0.527
18.72,31983.2,35069.5,-0.0816,0.1727,135.8,96.8,0.527
18.74,32019.6,35129.0,0.1,0.3192,135.8,96.8,0.527
18.76,32060.9,35049.2,0.3051,0.1226,135.8,96.8,0.527
18.78,32013.9,34916.9,0.0712,-0.2033,135.8,96.8,0.527
18.8,31874.0,34799.5,-0.625,-0.4927,135.8,96.8,0.527
18.82,31945.3,34719.7,-0.2701,-0.6894,135.8,96.8,0.527
18.84,31856.7,34779.8,-0.7108,-0.5413,135.8,96.8,0.527
18.86,31764.7,34605.9,-1.1691,-0.9698,135.8,96.8,0.527
18.88,31763.3,34642.6,-1.1758,-0.8792,135.8,96.8,0.527
18.9,31814.2,34516.8,-0.9223,-1.1892,135.8,96.8,0.527
18.92,31744.5,34439.4,-1.2696,-1.3801,135.8,96.8,0.527
18.94,31764.2,34437.1,-1.1712,-1.3856,135.8,96.8,0.527
18.96,31779.3,34518.5,-1.0962,-1.1852,135.8,96.8,0.527
18.98,31835.0,34713.2,-0.8192,-0.7054,135.8,96.8,0.527
19.0,32065.8,35020.0,0.3296,0.0507,135.8,96.8,0.527
19.02,32240.3,35514.1,1.1981,1.2683,135.8,96.8,0.527
19.04,32440.5,35547.9,2.1945,1.3516,135.8,96.8,0.527
19.06,32349.6,35716.4,1.742,1.7667,135.8,96.8,0.527
19.08,32332.4,35643.2,1.6566,1.5865,135.8,96.8,0.527
19.1,32255.7,35553.5,1.2748,1.3654,135.8,96.8,0.527
19.12,32114.2,35386.4,0.5704,0.9536,135.8,96.8,0.527
19.14,32067.3,35158.9,0.337,0.3931,135.8,96.8,0.527
19.16,32127.1,35071.5,0.6349,0.1776,135.8,96.8,0.527
19.18,32073.0,35044.4,0.3657,0.1109,135.8,96.8,0.527
19.2,31893.8,34948.9,-0.5265,-0.1246,135.8,96.8,0.527
19.22,32019.2,34887.2,0.0976,-0.2765,135.8,96.8,0.527
19.24,31862.1,34729.0,-0.6841,-0.6664,135.8,96.8,0.527
19.26,31917.9,34751.1,-0.4063,-0.6118,135.8,96.8,0.527
19.28,31818.8,34738.2,-0.8999,-0.6436,135.8,96.8,0.527
19.3,31903.2,34634.6,-0.4797,-0.8989,135.8,96.8,0.527
19.32,31747.8,34554.2,-1.2529,-1.0972,135.8,96.8,0.527
19.34,31807.9,34617.7,-0.9541,-0.9406,135.8,96.8,0.527
19.36,31758.7,34473.3,-1.1987,-1.2964,135.8,96.8,0.527
19.38,31676.7,34300.0,-1.6071,-1.7234,135.8,96.8,0.527
19.4,31767.3,34523.3,-1.1558,-1.1731,135.8,96.8,0.527
19.42,31911.0,34635.7,-0.4409,-0.8963,135.8,96.8,0.527
19.44,32025.5,34984.8,0.129,-0.036,135.8,96.8,0.527
19.46,32191.9,35375.0,0.9572,0.9254,135.8,96.8,0.527
19.48,32264.3,35666.1,1.3175,1.6429,135.8,96.8,0.527
19.5,32306.2,35778.8,1.5263,1.9205,135.8,96.8,0.527
19.52,32292.3,35555.3,1.4568,1.3697,135.8,96.8,0.527
19.54,32259.2,35524.3,1.2923,1.2934,135.8,96.8,0.527
19.56,32047.0,35431.5,0.2359,1.0648,135.8,96.8,0.527
19.58,32025.4,35186.7,0.1288,0.4615,135.8,96.8,0.527
19.6,32088.1,35142.3,0.4406,0.352,135.8,96.8,0.527
19.62,31996.3,35001.8,-0.0162,0.0059,135.8,96.8,0.527
19.64,31996.3,35034.8,-0.0163,0.0871,135.8,96.8,0.527
19.66,31931.4,34912.0,-0.3391,-0.2154,135.8,96.8,0.527
19.68,31822.1,34822.9,-0.8834,-0.4349,135.8,96.8,0.527
19.7,31869.8,34736.8,-0.6459,-0.6471,135.8,96.8,0.527
19.72,31890.4,34662.3,-0.5431,-0.8308,135.8,96.8,0.527
19.74,31807.8,34746.7,-0.9545,-0.6227,135.8,96.8,0.527
19.76,31803.8,34641.7,-0.9744,-0.8814,135.8,96.8,0.527
19.78,31773.8,34653.0,-1.1237,-0.8536,135.8,96.8,0.527
19.8,31777.1,34424.4,-1.1074,-1.417,135.8,96.8,0.527
19.82,31738.9,34439.6,-1.2974,-1.3796,135.8,96.8,0.527
19.84,31832.2,34496.9,-0.8331,-1.2383,135.8,96.8,0.527
19.86,31899.7,34771.7,-0.4969,-0.5612,135.8,96.8,0.527
19.88,31986.7,35090.9,-0.0642,0.2255,135.8,96.8,0.527
19.9,32200.8,35496.7,1.0014,1.2253,135.8,96.8,0.527
19.92,32375.6,35779.3,1.8713,1.9217,135.8,96.8,0.527
19.94,32351.1,35825.7,1.7498,2.0361,135.8,96.8,0.527
19.96,32428.0,35682.4,2.1321,1.6829,135.8,96.8,0.527
19.98,32238.3,35577.5,1.1881,1.4245,135.8,96.8,0.527
20.0,32273.3,35376.5,1.3625,0.9293,135.8,96.8,0.527
20.02,32091.7,35197.6,0.4584,0.4884,135.8,96.8,0.527
20.04,32048.9,35107.2,0.2457,0.2657,135.8,96.8,0.527
20.06,32072.2,35123.5,0.3615,0.3057,135.8,96.8,0.527
20.08,31987.0,35005.9,-0.0626,0.0161,135.8,96.8,0.527
20.1,31924.6,34871.1,-0.3728,-0.3163,135.8,96.8,0.527
20.12,31895.0,34755.3,-0.5203,-0.6017,135.8,96.8,0.527
20.14,31876.5,34740.0,-0.6126,-0.6392,135.8,96.8,0.527
20.16,31734.2,34676.4,-1.3207,-0.7959,135.8,96.8,0.527
20.18,31859.2,34702.8,-0.6985,-0.731,135.8,96.8,0.527
20.2,31847.5,34658.8,-0.7567,-0.8392,135.8,96.8,0.527
20.22,31827.1,34666.4,-0.8585,-0.8205,135.8,96.8,0.527
20.24,31691.3,34550.4,-1.534,-1.1064,135.8,96.8,0.527
20.26,31693.4,34375.2,-1.5236,-1.5383,135.8,96.8,0.527
20.28,31779.4,34449.2,-1.0958,-1.3559,135.8,96.8,0.527
20.3,31909.0,34667.4,-0.451,-0.8182,135.8,96.8,0.527
20.32,32014.5,34988.2,0.0745,-0.0276,135.8,96.8,0.527
20.34,32109.3,35316.4,0.5464,0.7811,135.8,96.8,0.527
20.36,32436.6,35531.6,2.175,1.3114,135.8,96.8,0.527
20.38,32377.0,35698.1,1.8787,1.7217,135.8,96.8,0.527
20.4,32361.2,35694.7,1.7999,1.7134,135.8,96.8,0.527
20.42,32340.0,35489.6,1.6945,1.2079,135.8,96.8,0.527
20.44,32154.5,35309.6,0.7713,0.7643,135.8,96.8,0.527
20.46,32148.4,35226.1,0.741,0.5585,135.8,96.8,0.527
20.48,32056.2,35147.1,0.2818,0.3639,135.8,96.8,0.527
20.5,31984.5,35108.0,-0.075,0.2675,135.8,96.8,0.527
20.52,31933.3,35019.1,-0.3297,0.0484,135.8,96.8,0.527
20.54,32005.6,34952.5,0.0299,-0.1157,135.8,96.8,0.527
20.56,31929.9,34820.8,-0.3466,-0.4401,135.8,96.8,0.527
20.58,31970.5,34726.0,-0.1445,-0.6739,135.8,96.8,0.527
20.6,31829.6,34670.3,-0.8458,-0.811,135.8,96.8,0.527
20.62,31917.9,34610.5,-0.4065,-0.9583,135.8,96.8,0.527
20.64,31777.2,34541.9,-1.1068,-1.1274,135.8,96.8,0.527
20.66,31823.9,34600.8,-0.8743,-0.9822,135.8,96.8,0.527
20.68,31882.4,34562.3,-0.5831,-1.0772,135.8,96.8,0.527
20.7,31793.1,34519.4,-1.0275,-1.1829,135.8,96.8,0.527
20.72,31805.0,34488.9,-0.9683,-1.2581,135.8,96.8,0.527
20.74,31805.2,34698.1,-0.9673,-0.7425,135.8,96.8,0.527
20.76,31935.2,34937.9,-0.3203,-0.1517,135.8,96.8,0.527
20.78,32114.9,35282.2,0.5742,0.6969,135.8,96.8,0.527
20.8,32321.6,35591.1,1.6026,1.4581,135.8,96.8,0.527
20.82,32379.2,35756.7,1.8892,1.8662,135.8,96.8,0.527
20.84,32260.4,35712.2,1.2981,1.7563,135.8,96.8,0.527
20.86,32237.4,35467.2,1.1838,1.1527,135.8,96.8,0.527
20.88,32165.4,35296.7,0.8256,0.7325,135.8,96.8,0.527
20.9,32019.6,35193.7,0.0999,0.4787,135.8,96.8,0.527
20.92,32009.6,35119.8,0.0501,0.2965,135.8,96.8,0.527
20.94,31961.0,35033.5,-0.192,0.0841,135.8,96.8,0.527
20.96,31975.6,34974.4,-0.1194,-0.0617,135.8,96.8,0.527
20.98,31984.8,34981.1,-0.0734,-0.0452,135.8,96.8,0.527
21.0,31893.9,34801.0,-0.526,-0.4889,135.8,96.8,0.527
21.02,31844.7,34739.4,-0.7708,-0.6407,135.8,96.8,0.527
21.04,31726.0,34665.3,-1.3616,-0.8233,135.8,96.8,0.527
21.06,31821.6,34657.4,-0.8857,-0.8429,135.8,96.8,0.527
21.08,31767.6,34624.5,-1.1543,-0.924,135.8,96.8,0.527
21.1,31792.9,34609.7,-1.0288,-0.9603,135.8,96.8,0.527
21.12,31832.3,34461.7,-0.8326,-1.3251,135.8,96.8,0.527
21.14,31759.5,34441.5,-1.1948,-1.3748,135.8,96.8,0.527
21.16,31742.4,34487.5,-1.2798,-1.2616,135.8,96.8,0.527
21.18,31871.4,34697.7,-0.638,-0.7434,135.8,96.8,0.527
21.2,31939.8,34938.5,-0.2973,-0.1501,135.8,96.8,0.527
21.22,32098.4,35308.3,0.4917,0.7611,135.8,96.8,0.527
21.24,32279.6,35695.3,1.3937,1.7148,135.8,96.8,0.527
21.26,32332.8,35710.7,1.6584,1.7527,135.8,96.8,0.527
21.28,32301.4,35786.6,1.502,1.9398,135.8,96.8,0.527
21.3,32256.6,35540.2,1.2794,1.3326,135.8,96.8,0.527
21.32,32206.7,35328.2,1.031,0.8101,135.8,96.8,0.527
21.34,32104.8,35150.9,0.5238,0.3733,135.8,96.8,0.527
21.36,31999.3,35161.2,-0.0011,0.3987,135.8,96.8,0.527
21.38,32004.4,35054.7,0.0241,0.1361,135.8,96.8,0.527
21.4,32007.9,35059.8,0.0413,0.1487,135.8,96.8,0.527
21.42,32004.7,34955.5,0.0257,-0.1083,135.8,96.8,0.527
21.44,32003.5,34811.7,0.0195,-0.4627,135.8,96.8,0.527
21.46,31980.5,34707.5,-0.095,-0.7193,135.8,96.8,0.527
21.48,31761.5,34789.8,-1.1846,-0.5165,135.8,96.8,0.527
21.5,31827.9,34642.6,-0.8542,-0.8792,135.8,96.8,0.527
21.52,31863.7,34716.6,-0.6761,-0.6968,135.8,96.8,0.527
21.54,31824.0,34518.5,-0.8737,-1.1852,135.8,96.8,0.527
21.56,31859.4,34552.8,-0.6976,-1.1007,135.8,96.8,0.527
21.58,31681.8,34436.3,-1.5813,-1.3877,135.8,96.8,0.527
21.6,31794.8,34439.1,-1.019,-1.3809,135.8,96.8,0.527
21.62,31786.8,34546.5,-1.0591,-1.1161,135.8,96.8,0.527
21.64,31989.1,34991.7,-0.0519,-0.0191,135.8,96.8,0.527
21.66,32073.8,35207.4,0.3692,0.5125,135.8,96.8,0.527
21.68,32247.6,35584.9,1.2344,1.4427,135.8,96.8,0.527
21.7,32375.5,35831.4,1.8712,2.0502,135.8,96.8,0.527
21.72,32402.2,35692.5,2.0041,1.7079,135.8,96.8,0.527
21.74,32393.7,35612.9,1.9618,1.5116,135.8,96.8,0.527
21.76,32221.5,35334.2,1.1047,0.825,135.8,96.8,0.527
21.78,32137.6,35139.1,0.687,0.3443,135.8,96.8,0.527
21.8,32012.3,35181.6,0.0632,0.449,135.8,96.8,0.527
21.82,32093.4,35136.7,0.4671,0.3382,135.8,96.8,0.527
21.84,32032.5,34970.3,0.164,-0.0718,135.8,96.8,0.527
21.86,32013.7,34959.9,0.0705,-0.0974,135.8,96.8,0.527
21.88,31995.1,34841.8,-0.0221,-0.3884,135.8,96.8,0.527
21.9,31855.1,34691.6,-0.719,-0.7586,135.8,96.8,0.527
21.92,31897.2,34736.0,-0.5095,-0.6492,135.8,96.8,0.527
21.94,31886.3,34697.3,-0.5639,-0.7446,135.8,96.8,0.527
21.96,31803.7,34644.1,-0.9747,-0.8755,135.8,96.8,0.527
21.98,31872.3,34678.2,-0.6336,-0.7917,135.8,96.8,0.527
22.0,31866.8,34552.6,-0.6608,-1.1012,135.8,96.8,0.527
22.02,31721.5,34485.9,-1.3838,-1.2653,135.8,96.8,0.527
22.04,31743.3,34490.2,-1.2752,-1.2548,135.8,96.8,0.527
22.06,31855.9,34612.7,-0.715,-0.953,135.8,96.8,0.527
22.08,31883.1,34919.2,-0.5798,-0.1976,135.8,96.8,0.527
22.1,32100.8,35139.5,0.5037,0.3452,135.8,96.8,0.527
22.12,32295.4,35516.3,1.4723,1.2737,135.8,96.8,0.527
22.14,32307.4,35744.3,1.5319,1.8355,135.8,96.8,0.527
22.16,32479.5,35726.1,2.3888,1.7906,135.8,96.8,0.527
22.18,32361.4,35713.4,1.801,1.7593,135.8,96.8,0.527
22.2,32229.6,35360.7,1.145,0.8904,135.8,96.8,0.527
22.22,32178.3,35251.6,0.8894,0.6214,135.8,96.8,0.527
22.24,32084.7,35204.4,0.4238,0.505,135.8,96.8,0.527
22.26,31995.0,35112.2,-0.0227,0.2779,135.8,96.8,0.527
22.28,32060.5,35016.4,0.3035,0.0419,135.8,96.8,0.527
22.3,31917.8,34971.5,-0.407,-0.0688,135.8,96.8,0.527
22.32,31952.1,34898.4,-0.2364,-0.2488,135.8,96.8,0.527
22.34,31978.9,34759.3,-0.103,-0.5917,135.8,96.8,0.527
22.36,31846.5,34695.0,-0.7618,-0.7501,135.8,96.8,0.527
22.38,31774.8,34741.7,-1.1185,-0.6351,135.8,96.8,0.527
22.4,31853.7,34607.5,-0.7258,-0.9657,135.8,96.8,0.527
22.42,31791.9,34645.8,-1.0334,-0.8714,135.8,96.8,0.527
22.44,31805.6,34507.7,-0.9653,-1.2117,135.8,96.8,0.527
22.46,31815.6,34470.3,-0.9157,-1.3038,135.8,96.8,0.527
22.48,31705.2,34470.8,-1.4649,-1.3026,135.8,96.8,0.527
22.5,31738.4,34593.0,-1.2997,-1.0016,135.8,96.8,0.527
22.52,31831.7,34863.1,-0.8353,-0.3359,135.8,96.8,0.527
22.54,32110.7,35203.2,0.5529,0.5022,135.8,96.8,0.527
22.56,32273.2,35525.1,1.3617,1.2955,135.8,96.8,0.527
22.58,32364.2,35702.3,1.8146,1.7319,135.8,96.8,0.527
22.6,32410.0,35723.7,2.0425,1.7847,135.8,96.8,0.527
22.62,32320.4,35632.0,1.5969,1.5587,135.8,96.8,0.527
22.64,32233.5,35482.7,1.1644,1.1908,135.8,96.8,0.527
22.66,32071.2,35337.4,0.3564,0.8328,135.8,96.8,0.527
22.68,32027.3,35262.7,0.1379,0.6488,135.8,96.8,0.527
22.7,32092.4,35101.6,0.4619,0.2517,135.8,96.8,0.527
22.72,32097.2,35043.9,0.486,0.1097,135.8,96.8,0.527
22.74,31943.6,34989.0,-0.2784,-0.0257,135.8,96.8,0.527
22.76,31962.8,34904.3,-0.183,-0.2344,135.8,96.8,0.527
22.78,31829.8,34786.4,-0.8449,-0.525,135.8,96.8,0.527
22.8,31803.2,34736.3,-0.9773,-0.6483,135.8,96.8,0.527
22.82,31807.3,34714.4,-0.9568,-0.7023,135.8,96.8,0.527
22.84,31875.9,34669.3,-0.6153,-0.8135,135.8,96.8,0.527
22.86,31900.4,34709.6,-0.4937,-0.7142,135.8,96.8,0.527
22.88,31856.0,34570.7,-0.7143,-1.0565,135.8,96.8,0.527
22.9,31718.5,34478.4,-1.3988,-1.2838,135.8,96.8,0.527
22.92,31666.5,34486.2,-1.6576,-1.2648,135.8,96.8,0.527
22.94,31818.8,34538.6,-0.8997,-1.1356,135.8,96.8,0.527
22.96,31917.9,34846.5,-0.4064,-0.3769,135.8,96.8,0.527
22.98,32029.9,35099.7,0.1509,0.2472,135.8,96.8,0.527
23.0,32313.4,35466.7,1.5617,1.1516,135.8,96.8,0.527
23.02,32339.5,35710.0,1.6918,1.7511,135.8,96.8,0.527
23.04,32376.9,35766.0,1.878,1.8889,135.8,96.8,0.527
23.06,32256.3,35639.4,1.2776,1.5771,135.8,96.8,0.527
23.08,32276.5,35544.7,1.3782,1.3436,135.8,96.8,0.527
23.1,32199.4,35283.1,0.9948,0.699,135.8,96.8,0.527
23.12,31945.1,35196.2,-0.2713,0.485,135.8,96.8,0.527
23.14,32068.2,35092.9,0.3418,0.2303,135.8,96.8,0.527
23.16,32076.6,35003.2,0.3835,0.0093,135.8,96.8,0.527
23.18,32058.4,34989.9,0.293,-0.0236,135.8,96.8,0.527
23.2,31876.6,34929.0,-0.612,-0.1734,135.8,96.8,0.527
23.22,31864.8,34713.6,-0.6708,-0.7043,135.8,96.8,0.527
23.24,31881.2,34744.4,-0.5891,-0.6284,135.8,96.8,0.527
23.26,31777.1,34696.8,-1.1074,-0.7457,135.8,96.8,0.527
23.28,31820.8,34694.7,-0.8896,-0.7508,135.8,96.8,0.527
23.3,31837.4,34605.1,-0.8073,-0.9716,135.8,96.8,0.527
23.32,31741.0,34564.6,-1.2866,-1.0715,135.8,96.8,0.527
23.34,31826.1,34588.3,-0.8634,-1.0131,135.8,96.8,0.527
23.36,31714.6,34395.9,-1.4184,-1.4871,135.8,96.8,0.527
23.38,31771.0,34521.2,-1.1377,-1.1785,135.8,96.8,0.527
23.4,31899.5,34777.6,-0.4981,-0.5466,135.8,96.8,0.527
23.42,32039.5,35194.3,0.1988,0.4803,135.8,96.8,0.527
23.44,32162.2,35420.8,0.8095,1.0384,135.8,96.8,0.527
23.46,32343.8,35615.4,1.713,1.5179,135.8,96.8,0.527
23.48,32304.3,35700.3,1.5167,1.7271,135.8,96.8,0.527
23.5,32271.5,35665.4,1.3536,1.641,135.8,96.8,0.527
23.52,32202.7,35493.1,1.0108,1.2164,135.8,96.8,0.527
23.54,32157.4,35350.8,0.7854,0.8658,135.8,96.8,0.527
23.56,32139.5,35182.1,0.6966,0.4501,135.8,96.8,0.527
23.58,32069.9,35163.4,0.3501,0.4042,135.8,96.8,0.527
23.6,32044.3,35086.7,0.2228,0.215,135.8,96.8,0.527
23.62,32035.9,34930.3,0.1809,-0.1704,135.8,96.8,0.527
23.64,31899.7,34879.4,-0.4969,-0.2958,135.8,96.8,0.527
23.66,31905.1,34772.8,-0.4704,-0.5584,135.8,96.8,0.527
23.68,31906.1,34739.1,-0.4651,-0.6415,135.8,96.8,0.527
23.7,31915.8,34607.5,-0.4169,-0.9658,135.8,96.8,0.527
23.72,31813.4,34704.4,-0.9267,-0.727,135.8,96.8,0.527
23.74,31821.8,34685.6,-0.8848,-0.7732,135.8,96.8,0.527
23.76,31844.1,34633.5,-0.7736,-0.9017,135.8,96.8,0.527
23.78,31778.7,34512.1,-1.0994,-1.2008,135.8,96.8,0.527
23.8,31821.4,34489.2,-0.8869,-1.2572,135.8,96.8,0.527
23.82,31682.3,34649.4,-1.5792,-0.8625,135.8,96.8,0.527
23.84,31932.5,34844.2,-0.334,-0.3826,135.8,96.8,0.527
23.86,32040.3,35053.2,0.2026,0.1325,135.8,96.8,0.527
23.88,32129.9,35500.6,0.6485,1.2349,135.8,96.8,0.527
23.9,32329.9,35601.7,1.6439,1.4841,135.8,96.8,0.527
23.92,32321.9,35772.2,1.6042,1.9043,135.8,96.8,0.527
23.94,32389.1,35655.4,1.9389,1.6165,135.8,96.8,0.527
23.96,32254.5,35510.3,1.2688,1.2589,135.8,96.8,0.527
23.98,32123.3,35321.8,0.6156,0.7944,135.8,96.8,0.527
24.0,32109.3,35224.3,0.5461,0.5541,135.8,96.8,0.527
24.02,32007.0,35171.3,0.0369,0.4237,135.8,96.8,0.527
24.04,32087.0,35130.6,0.4351,0.3234,135.8,96.8,0.527
24.06,32003.8,35007.8,0.0209,0.0207,135.8,96.8,0.527
24.08,31997.5,34836.3,-0.0102,-0.4019,135.8,96.8,0.527
24.1,31838.7,34827.2,-0.8007,-0.4245,135.8,96.8,0.527
24.12,31826.7,34673.9,-0.8601,-0.8022,135.8,96.8,0.527
24.14,31851.9,34743.9,-0.735,-0.6297,135.8,96.8,0.527
24.16,31802.3,34655.8,-0.9816,-0.8468,135.8,96.8,0.527
24.18,31846.3,34612.0,-0.7627,-0.9546,135.8,96.8,0.527
24.2,31784.5,34582.7,-1.0701,-1.027,135.8,96.8,0.527
24.22,31799.4,34418.3,-0.9963,-1.4321,135.8,96.8,0.527
24.24,31826.4,34358.3,-0.8616,-1.5799,135.8,96.8,0.527
24.26,31731.0,34571.8,-1.3366,-1.0537,135.8,96.8,0.527
24.28,31948.2,34631.8,-0.2556,-0.906,135.8,96.8,0.527
24.3,32095.6,35190.2,0.4782,0.4702,135.8,96.8,0.527
24.32,32240.6,35407.4,1.1997,1.0053,135.8,96.8,0.527
24.34,32318.0,35634.1,1.585,1.564,135.8,96.8,0.527
24.36,32440.4,35788.7,2.1939,1.945,135.8,96.8,0.527
24.38,32305.4,35635.9,1.5223,1.5685,135.8,96.8,0.527
24.4,32278.1,35584.0,1.3865,1.4406,135.8,96.8,0.527
24.42,32202.5,35206.1,1.0101,0.5092,135.8,96.8,0.527
24.44,32180.5,35212.8,0.9005,0.5258,135.8,96.8,0.527
24.46,32015.6,35153.6,0.08,0.38,135.8,96.8,0.527
24.48,31987.0,35018.1,-0.0623,0.046,135.8,96.8,0.527
24.5,32013.7,35040.6,0.0703,0.1014,135.8,96.8,0.527
24.52,31965.6,34948.4,-0.1688,-0.1257,135.8,96.8,0.527
24.54,31997.1,34862.4,-0.012,-0.3377,135.8,96.8,0.527
24.56,31933.4,34613.0,-0.3292,-0.9522,135.8,96.8,0.527
24.58,31803.4,34677.8,-0.9762,-0.7926,135.8,96.8,0.527
24.6,31851.8,34650.1,-0.7352,-0.8608,135.8,96.8,0.527
24.62,31839.0,34657.7,-0.7989,-0.8421,135.8,96.8,0.527
24.64,31701.5,34564.2,-1.4832,-1.0726,135.8,96.8,0.527
24.66,31777.7,34509.1,-1.1042,-1.2084,135.8,96.8,0.527
24.68,31710.9,34420.4,-1.4368,-1.4269,135.8,96.8,0.527
24.7,31705.8,34500.8,-1.4619,-1.2286,135.8,96.8,0.527
24.72,31893.5,34677.3,-0.528,-0.7938,135.8,96.8,0.527
24.74,31951.9,34976.6,-0.2371,-0.0563,135.8,96.8,0.527
24.76,32145.9,35367.2,0.7284,0.9062,135.8,96.8,0.527
24.78,32322.1,35653.5,1.6051,1.6117,135.8,96.8,0.527
24.8,32322.5,35730.9,1.6073,1.8026,135.8,96.8,0.527
24.82,32388.0,35711.8,1.9333,1.7554,135.8,96.8,0.527
24.84,32239.7,35580.0,1.195,1.4307,135.8,96.8,0.527
24.86,32162.3,35401.9,0.8101,0.9919,135.8,96.8,0.527
24.88,32099.5,35250.8,0.4974,0.6196,135.8,96.8,0.527
24.9,32166.0,35140.3,0.8282,0.3472,135.8,96.8,0.527
24.92,32053.9,35013.7,0.2707,0.0352,135.8,96.8,0.527
24.94,32023.0,35029.7,0.1166,0.0746,135.8,96.8,0.527
24.96,31972.6,34925.3,-0.1343,-0.1827,135.8,96.8,0.527
24.98,31795.9,34880.2,-1.0137,-0.2938,135.8,96.8,0.527
25.0,31875.9,34720.7,-0.6152,-0.6869,135.8,96.8,0.527
25.02,31832.1,34680.8,-0.8336,-0.7851,135.8,96.8,0.527
25.04,31722.9,34687.1,-1.3767,-0.7697,135.8,96.8,0.527
25.06,31781.7,34661.1,-1.0844,-0.8337,135.8,96.8,0.527
25.08,31789.2,34450.4,-1.047,-1.3529,135.8,96.8,0.527
25.1,31723.9,34576.1,-1.3721,-1.043,135.8,96.8,0.527
25.12,31738.1,34494.0,-1.3011,-1.2454,135.8,96.8,0.527
25.14,31815.2,34535.6,-0.9174,-1.1429,135.8,96.8,0.527
25.16,31855.8,34719.7,-0.7153,-0.6892,135.8,96.8,0.527
25.18,32015.2,35040.4,0.0777,0.1009,135.8,96.8,0.527
25.2,32138.8,35341.5,0.693,0.8429,135.8,96.8,0.527
25.22,32369.2,35692.7,1.8396,1.7084,135.8,96.8,0.527
25.24,32372.4,35680.9,1.8557,1.6793,135.8,96.8,0.527
25.26,32283.1,35704.2,1.411,1.7368,135.8,96.8,0.527
25.28,32366.0,35473.1,1.8238,1.1672,135.8,96.8,0.527
25.3,32271.0,35330.9,1.3509,0.8169,135.8,96.8,0.527
25.32,32139.5,35197.5,0.6963,0.488,135.8,96.8,0.527
25.34,32017.6,35194.7,0.0897,0.4812,135.8,96.8,0.527
25.36,31995.4,35107.0,-0.0207,0.265,135.8,96.8,0.527
25.38,32005.1,35086.2,0.0277,0.2139,135.8,96.8,0.527
25.4,31953.8,34957.2,-0.2279,-0.104,135.8,96.8,0.527
25.42,31934.7,34836.1,-0.3229,-0.4024,135.8,96.8,0.527
25.44,31962.2,34804.0,-0.1857,-0.4816,135.8,96.8,0.527
25.46,31876.2,34709.0,-0.6141,-0.7157,135.8,96.8,0.527
25.48,31864.3,34695.9,-0.6732,-0.748,135.8,96.8,0.527
25.5,31776.1,34623.9,-1.1122,-0.9254,135.8,96.8,0.527
25.52,31777.3,34589.2,-1.1062,-1.0108,135.8,96.8,0.527
25.54,31774.4,34498.6,-1.1206,-1.2342,135.8,96.8,0.527
25.56,31794.7,34537.2,-1.0197,-1.139,135.8,96.8,0.527
25.58,31752.0,34514.3,-1.232,-1.1954,135.8,96.8,0.527
25.6,31766.1,34667.6,-1.1621,-0.8176,135.8,96.8,0.527
25.62,31994.6,34927.8,-0.0246,-0.1766,135.8,96.8,0.527
25.64,32240.4,35285.4,1.1985,0.7048,135.8,96.8,0.527
25.66,32224.6,35665.8,1.1202,1.6421,135.8,96.8,0.527
25.68,32315.9,35787.4,1.5743,1.9418,135.8,96.8,0.527
25.7,32325.5,35734.9,1.622,1.8123,135.8,96.8,0.527
25.72,32325.3,35558.3,1.6211,1.3771,135.8,96.8,0.527
25.74,32097.9,35407.9,0.4894,1.0066,135.8,96.8,0.527
25.76,32063.5,35170.0,0.3184,0.4202,135.8,96.8,0.527
25.78,32103.3,35194.7,0.5165,0.4812,135.8,96.8,0.527
25.8,32039.3,35141.5,0.1976,0.3501,135.8,96.8,0.527
25.82,32124.6,34971.1,0.6222,-0.0697,135.8,96.8,0.527
25.84,32055.5,34968.4,0.2782,-0.0765,135.8,96.8,0.527
25.86,31935.0,34848.7,-0.3212,-0.3714,135.8,96.8,0.527
25.88,31826.4,34784.9,-0.8618,-0.5286,135.8,96.8,0.527
25.9,31809.4,34680.6,-0.9463,-0.7856,135.8,96.8,0.527
25.92,31874.4,34636.5,-0.6231,-0.8943,135.8,96.8,0.527
25.94,31921.1,34665.6,-0.3904,-0.8226,135.8,96.8,0.527
25.96,31848.7,34608.2,-0.7506,-0.964,135.8,96.8,0.527
25.98,31734.7,34568.1,-1.318,-1.0629,135.8,96.8,0.527
26.0,31735.3,34442.1,-1.3151,-1.3735,135.8,96.8,0.527
26.02,31745.0,34515.7,-1.2671,-1.1921,135.8,96.8,0.527
26.04,31748.0,34604.6,-1.2521,-0.973,135.8,96.8,0.527
26.06,31974.5,34927.9,-0.1248,-0.1762,135.8,96.8,0.527
26.08,32186.3,35384.5,0.9293,0.949,135.8,96.8,0.527
26.1,32226.5,35552.2,1.1293,1.3621,135.8,96.8,0.527
26.12,32231.6,35738.2,1.1551,1.8204,135.8,96.8,0.527
26.14,32241.1,35763.9,1.2022,1.8837,135.8,96.8,0.527
26.16,32237.8,35554.6,1.1858,1.3681,135.8,96.8,0.527
26.18,32241.8,35306.4,1.2058,0.7565,135.8,96.8,0.527
26.2,32135.5,35217.9,0.6765,0.5385,135.8,96.8,0.527
26.22,32059.0,35143.0,0.296,0.3539,135.8,96.8,0.527
26.24,32066.6,35130.0,0.3338,0.3219,135.8,96.8,0.527
26.26,32061.5,34982.4,0.3082,-0.042,135.8,96.8,0.527
26.28,31928.2,34974.3,-0.3554,-0.0619,135.8,96.8,0.527
26.3,31964.0,34892.7,-0.1772,-0.2629,135.8,96.8,0.527
26.32,31953.5,34718.0,-0.2292,-0.6936,135.8,96.8,0.527
26.34,31942.8,34671.4,-0.2826,-0.8084,135.8,96.8,0.527
26.36,31820.7,34717.0,-0.8901,-0.6959,135.8,96.8,0.527
26.38,31802.9,34616.1,-0.9786,-0.9446,135.8,96.8,0.527
26.4,31848.7,34619.0,-0.7509,-0.9374,135.8,96.8,0.527
26.42,31766.6,34626.7,-1.1594,-0.9184,135.8,96.8,0.527
26.44,31725.1,34405.0,-1.3658,-1.4648,135.8,96.8,0.527
26.46,31822.1,34475.8,-0.8834,-1.2902,135.8,96.8,0.527
26.48,31865.4,34660.1,-0.6677,-0.8362,135.8,96.8,0.527
26.5,31895.4,34921.3,-0.5184,-0.1924,135.8,96.8,0.527
26.52,32194.4,35188.0,0.9699,0.4646,135.8,96.8,0.527
26.54,32360.3,35453.8,1.7953,1.1197,135.8,96.8,0.527
26.56,32361.4,35761.7,1.8009,1.8784,135.8,96.8,0.527
26.58,32366.7,35815.3,1.8272,2.0106,135.8,96.8,0.527
26.6,32303.9,35588.6,1.5148,1.4518,135.8,96.8,0.527
26.62,32135.8,35388.2,0.6783,0.958,135.8,96.8,0.527
26.64,32011.2,35281.0,0.0578,0.6938,135.8,96.8,0.527
26.66,31986.8,35099.7,-0.0633,0.2471,135.8,96.8,0.527
26.68,31972.7,35102.6,-0.1335,0.2542,135.8,96.8,0.527
26.7,32018.3,35130.6,0.0932,0.3232,135.8,96.8,0.527
26.72,31926.6,34919.7,-0.3629,-0.1965,135.8,96.8,0.527
26.74,31931.4,34950.0,-0.3392,-0.1218,135.8,96.8,0.527
26.76,31913.7,34740.2,-0.4273,-0.6389,135.8,96.8,0.527
26.78,31838.9,34654.0,-0.7995,-0.8512,135.8,96.8,0.527
26.8,31760.1,34620.7,-1.1917,-0.9332,135.8,96.8,0.527
26.82,31779.0,34733.7,-1.0976,-0.6548,135.8,96.8,0.527
26.84,31819.0,34704.5,-0.8987,-0.7266,135.8,96.8,0.527
26.86,31752.9,34490.7,-1.2275,-1.2535,135.8,96.8,0.527
26.88,31765.2,34414.4,-1.1662,-1.4417,135.8,96.8,0.527
26.9,31727.5,34437.5,-1.354,-1.3847,135.8,96.8,0.527
26.92,31793.6,34604.7,-1.0252,-0.9726,135.8,96.8,0.527
26.94,31967.6,34891.5,-0.159,-0.2659,135.8,96.8,0.527
26.96,32123.1,35234.5,0.6151,0.5793,135.8,96.8,0.527
26.98,32310.7,35541.7,1.5485,1.3364,135.8,96.8,0.527
27.0,32319.6,35733.2,1.593,1.8082,135.8,96.8,0.527
27.02,32349.0,35740.6,1.7392,1.8264,135.8,96.8,0.527
27.04,32280.2,35649.5,1.3969,1.602,135.8,96.8,0.527
27.06,32192.3,35484.4,0.9592,1.195,135.8,96.8,0.527
27.08,32158.3,35282.9,0.7901,0.6986,135.8,96.8,0.527
27.1,31927.3,35109.2,-0.3597,0.2706,135.8,96.8,0.527
27.12,32055.6,35046.2,0.2788,0.1152,135.8,96.8,0.527
27.14,31986.8,35014.8,-0.0633,0.0379,135.8,96.8,0.527
27.16,32022.1,34930.7,0.112,-0.1694,135.8,96.8,0.527
27.18,32003.2,34791.1,0.0184,-0.5134,135.8,96.8,0.527
27.2,31966.8,34786.6,-0.1629,-0.5243,135.8,96.8,0.527
27.22,31920.2,34643.4,-0.395,-0.8774,135.8,96.8,0.527
27.24,31850.1,34677.0,-0.744,-0.7944,135.8,96.8,0.527
27.26,31838.3,34678.7,-0.8024,-0.7902,135.8,96.8,0.527
27.28,31820.3,34617.8,-0.8922,-0.9403,135.8,96.8,0.527
27.3,31806.9,34569.2,-0.9591,-1.0602,135.8,96.8,0.527
27.32,31578.2,34382.4,-2.0973,-1.5205,135.8,96.8,0.527
27.34,31621.1,34366.4,-1.8833,-1.5599,135.8,96.8,0.527
27.36,31883.6,34631.2,-0.5769,-0.9073,135.8,96.8,0.527
27.38,31895.5,34813.2,-0.518,-0.4589,135.8,96.8,0.527
27.4,32024.0,35186.6,0.1218,0.4613,135.8,96.8,0.527
27.42,32272.5,35436.3,1.3586,1.0765,135.8,96.8,0.527
27.44,32311.9,35770.0,1.5546,1.8989,135.8,96.8,0.527
27.46,32400.6,35743.8,1.9958,1.8343,135.8,96.8,0.527
27.48,32360.9,35606.3,1.7986,1.4954,135.8,96.8,0.527
27.5,32248.9,35384.3,1.241,0.9485,135.8,96.8,0.527
27.52,32085.3,35343.1,0.4269,0.8468,135.8,96.8,0.527
27.54,32096.8,35208.5,0.4842,0.5151,135.8,96.8,0.527
27.56,32056.4,35054.3,0.2831,0.1352,135.8,96.8,0.527
27.58,32040.5,35119.2,0.2037,0.2952,135.8,96.8,0.527
27.6,32072.1,35019.8,0.3612,0.0502,135.8,96.8,0.527
27.62,31975.0,34806.4,-0.1223,-0.4756,135.8,96.8,0.527
27.64,31838.6,34802.0,-0.8009,-0.4866,135.8,96.8,0.527
27.66,31831.1,34707.9,-0.8384,-0.7183,135.8,96.8,0.527
27.68,31813.5,34709.3,-0.9258,-0.715,135.8,96.8,0.527
27.7,31826.2,34736.8,-0.8626,-0.647,135.8,96.8,0.527
27.72,31793.4,34646.7,-1.026,-0.8693,135.8,96.8,0.527
27.74,31711.6,34551.6,-1.4333,-1.1036,135.8,96.8,0.527
27.76,31680.4,34401.9,-1.5882,-1.4724,135.8,96.8,0.527
27.78,31715.8,34451.1,-1.412,-1.3511,135.8,96.8,0.527
27.8,31810.6,34599.6,-0.9405,-0.9852,135.8,96.8,0.527
27.82,31992.9,34757.6,-0.0333,-0.596,135.8,96.8,0.527
27.84,32114.2,35129.1,0.5704,0.3195,135.8,96.8,0.527
27.86,32183.5,35401.2,0.9153,0.99,135.8,96.8,0.527
27.88,32387.7,35696.6,1.9316,1.7179,135.8,96.8,0.527
27.9,32326.2,35801.1,1.6256,1.9756,135.8,96.8,0.527
27.92,32345.5,35710.2,1.7215,1.7515,135.8,96.8,0.527
27.94,32190.0,35433.6,0.948,1.0699,135.8,96.8,0.527
27.96,32032.4,35205.3,0.1635,0.5073,135.8,96.8,0.527
27.98,32080.6,35206.6,0.4034,0.5104,135.8,96.8,0.527
28.0,32144.4,35121.9,0.7209,0.3018,135.8,96.8,0.527
28.02,32028.0,35109.7,0.1413,0.2717,135.8,96.8,0.527
28.04,32124.5,34967.8,0.6219,-0.078,135.8,96.8,0.527
28.06,31942.8,34854.2,-0.2825,-0.3578,135.8,96.8,0.527
28.08,31901.4,34780.4,-0.4883,-0.5397,135.8,96.8,0.527
28.1,31877.0,34635.9,-0.6097,-0.8957,135.8,96.8,0.527
28.12,31785.6,34662.6,-1.065,-0.8301,135.8,96.8,0.527
28.14,31808.6,34576.9,-0.9504,-1.0411,135.8,96.8,0.527
28.16,31739.0,34592.9,-1.297,-1.0019,135.8,96.8,0.527
28.18,31776.9,34617.3,-1.1084,-0.9417,135.8,96.8,0.527
28.2,31695.0,34482.6,-1.516,-1.2735,135.8,96.8,0.527
28.22,31847.3,34385.7,-0.7576,-1.5123,135.8,96.8,0.527
28.24,31768.9,34488.6,-1.1481,-1.2587,135.8,96.8,0.527
28.26,31962.5,34699.0,-0.1843,-0.7403,135.8,96.8,0.527
28.28,32106.4,35126.3,0.5316,0.3127,135.8,96.8,0.527
28.3,32235.5,35454.6,1.1743,1.1217,135.8,96.8,0.527
28.32,32292.7,35733.2,1.4591,1.8083,135.8,96.8,0.527
28.34,32340.1,35752.8,1.6948,1.8564,135.8,96.8,0.527
28.36,32209.1,35618.5,1.0431,1.5255,135.8,96.8,0.527
28.38,32268.7,35493.3,1.3395,1.217,135.8,96.8,0.527
28.4,32267.1,35293.5,1.3317,0.7247,135.8,96.8,0.527
28.42,32086.6,35188.4,0.4332,0.4658,135.8,96.8,0.527
28.44,32003.7,35143.4,0.0208,0.3547,135.8,96.8,0.527
28.46,31983.1,34991.5,-0.0822,-0.0195,135.8,96.8,0.527
28.48,32068.3,34986.8,0.3423,-0.0312,135.8,96.8,0.527
28.5,31923.0,34866.4,-0.3813,-0.3278,135.8,96.8,0.527
28.52,31891.8,34742.6,-0.5364,-0.6329,135.8,96.8,0.527
28.54,31853.1,34746.2,-0.7288,-0.624,135.8,96.8,0.527
28.56,31876.2,34685.5,-0.6141,-0.7734,135.8,96.8,0.527
28.58,31732.0,34675.6,-1.3314,-0.798,135.8,96.8,0.527
28.6,31803.3,34701.5,-0.9769,-0.7343,135.8,96.8,0.527
28.62,31687.2,34596.2,-1.5548,-0.9935,135.8,96.8,0.527
28.64,31726.9,34564.0,-1.3572,-1.0729,135.8,96.8,0.527
28.66,31741.9,34432.7,-1.2825,-1.3964,135.8,96.8,0.527
28.68,31774.5,34443.2,-1.1202,-1.3706,135.8,96.8,0.527
28.7,31844.0,34728.5,-0.7743,-0.6677,135.8,96.8,0.527
28.72,32066.5,35079.5,0.3329,0.1974,135.8,96.8,0.527
28.74,32223.7,35352.5,1.1155,0.8699,135.8,96.8,0.527
28.76,32379.2,35680.3,1.8896,1.6777,135.8,96.8,0.527
28.78,32406.4,35728.1,2.0248,1.7957,135.8,96.8,0.527
28.8,32361.4,35638.2,1.801,1.5741,135.8,96.8,0.527
28.82,32202.6,35504.8,1.0103,1.2453,135.8,96.8,0.527
28.84,32239.2,35291.3,1.1929,0.7192,135.8,96.8,0.527
28.86,32167.6,35244.6,0.8361,0.6042,135.8,96.8,0.527
28.88,32162.5,35056.0,0.8109,0.1395,135.8,96.8,0.527
28.9,32012.4,35115.3,0.0641,0.2856,135.8,96.8,0.527
28.92,32038.1,34980.5,0.1919,-0.0465,135.8,96.8,0.527
28.94,32062.3,34940.8,0.3124,-0.1444,135.8,96.8,0.527
28.96,31900.5,34787.8,-0.4932,-0.5214,135.8,96.8,0.527
28.98,31864.6,34746.4,-0.6716,-0.6234,135.8,96.8,0.527
29.0,31869.2,34693.6,-0.6487,-0.7535,135.8,96.8,0.527
29.02,31877.9,34727.8,-0.6057,-0.6692,135.8,96.8,0.527
29.04,31780.8,34620.0,-1.0889,-0.935,135.8,96.8,0.527
29.06,31716.0,34561.8,-1.4115,-1.0783,135.8,96.8,0.527
29.08,31759.5,34413.3,-1.1948,-1.4444,135.8,96.8,0.527
29.1,31720.9,34411.9,-1.3867,-1.4477,135.8,96.8,0.527
29.12,31747.0,34431.6,-1.2568,-1.3992,135.8,96.8,0.527
29.14,31781.2,34673.2,-1.0868,-0.8039,135.8,96.8,0.527
29.16,31949.6,35052.8,-0.2484,0.1315,135.8,96.8,0.527
29.18,32242.7,35406.9,1.2102,1.0041,135.8,96.8,0.527
29.2,32313.9,35689.7,1.5643,1.701,135.8,96.8,0.527
29.22,32376.0,35787.1,1.8734,1.941,135.8,96.8,0.527
29.24,32369.0,35835.5,1.8388,2.0602,135.8,96.8,0.527
29.26,32229.1,35552.7,1.1422,1.3634,135.8,96.8,0.527
29.28,32207.8,35305.5,1.0362,0.7544,135.8,96.8,0.527
29.3,32156.0,35225.7,0.7783,0.5577,135.8,96.8,0.527
29.32,32070.7,35141.8,0.3541,0.3509,135.8,96.8,0.527
29.34,32078.2,35009.5,0.3912,0.0247,135.8,96.8,0.527
29.36,32060.3,35046.9,0.3021,0.1171,135.8,96.8,0.527
29.38,31874.7,34953.5,-0.6213,-0.1132,135.8,96.8,0.527
29.4,31824.2,34870.7,-0.8727,-0.3172,135.8,96.8,0.527
29.42,31904.4,34791.0,-0.4735,-0.5135,135.8,96.8,0.527
29.44,31853.8,34725.6,-0.7255,-0.6748,135.8,96.8,0.527
29.46,31895.6,34687.7,-0.5172,-0.7681,135.8,96.8,0.527
29.48,31820.2,34649.6,-0.8925,-0.8621,135.8,96.8,0.527
29.5,31859.6,34610.2,-0.6964,-0.9591,135.8,96.8,0.527
29.52,31772.9,34491.3,-1.1281,-1.252,135.8,96.8,0.527
29.54,31742.9,34461.3,-1.2774,-1.3262,135.8,96.8,0.527
29.56,31781.9,34532.9,-1.083,-1.1496,135.8,96.8,0.527
29.58,31916.2,34641.3,-0.4148,-0.8826,135.8,96.8,0.527
29.6,32012.7,34965.2,0.0652,-0.0844,135.8,96.8,0.527
29.62,32121.4,35387.4,0.6064,0.9562,135.8,96.8,0.527
29.64,32332.7,35648.1,1.6582,1.5985,135.8,96.8,0.527
29.66,32285.7,35740.5,1.4242,1.8261,135.8,96.8,0.527
29.68,32315.9,35750.8,1.5744,1.8516,135.8,96.8,0.527
29.7,32351.4,35510.4,1.7509,1.2592,135.8,96.8,0.527
29.72,32207.0,35332.7,1.0323,0.8212,135.8,96.8,0.527
29.74,31955.1,35239.6,-0.2213,0.5918,135.8,96.8,0.527
29.76,32123.5,35087.6,0.6168,0.2172,135.8,96.8,0.527
29.78,32096.0,35034.7,0.4802,0.087,135.8,96.8,0.527
29.8,32056.3,34995.1,0.2823,-0.0107,135.8,96.8,0.527
29.82,32016.6,35001.9,0.0848,0.0062,135.8,96.8,0.527
29.84,31934.7,34795.6,-0.3226,-0.5023,135.8,96.8,0.527
29.86,31882.3,34744.2,-0.5837,-0.6289,135.8,96.8,0.527
29.88,31945.0,34720.5,-0.2715,-0.6874,135.8,96.8,0.527
29.9,31801.0,34686.6,-0.9881,-0.7707,135.8,96.8,0.527
29.92,31721.8,34614.3,-1.3821,-0.9491,135.8,96.8,0.527
29.94,31794.2,34579.2,-1.0218,-1.0355,135.8,96.8,0.527
29.96,31760.5,34653.1,-1.1897,-0.8533,135.8,96.8,0.527
29.98,31694.9,34505.6,-1.5162,-1.2168,135.8,96.8,0.527
30.0,31703.6,34383.0,-1.4728,-1.5189,135.8,96.8,0.527
30.02,31829.0,34631.8,-0.849,-0.906,135.8,96.8,0.527
30.04,31989.3,34905.0,-0.0513,-0.2328,135.8,96.8,0.527
30.06,32083.8,35379.4,0.4193,0.9363,135.8,96.8,0.527
30.08,32272.5,35579.4,1.3583,1.4291,135.8,96.8,0.527
30.1,32417.4,35754.9,2.0794,1.8616,135.8,96.8,0.527
30.12,32323.5,35678.2,1.6122,1.6726,135.8,96.8,0.527
30.14,32346.3,35558.1,1.7256,1.3766,135.8,96.8,0.527
30.16,32135.6,35370.9,0.6771,0.9154,135.8,96.8,0.527
30.18,32123.8,35254.7,0.6184,0.6289,135.8,96.8,0.527
30.2,31990.5,35142.2,-0.0452,0.3518,135.8,96.8,0.527
30.22,32074.8,35168.9,0.3744,0.4176,135.8,96.8,0.527
30.24,32039.1,35026.8,0.197,0.0674,135.8,96.8,0.527
30.26,31929.3,34921.3,-0.3499,-0.1924,135.8,96.8,0.527
30.28,31928.2,34910.0,-0.355,-0.2203,135.8,96.8,0.527
30.3,31821.0,34708.2,-0.8885,-0.7176,135.8,96.8,0.527
30.32,31841.3,34680.6,-0.7878,-0.7857,135.8,96.8,0.527
30.34,31812.9,34626.6,-0.9289,-0.9187,135.8,96.8,0.527
30.36,31820.3,34691.9,-0.8922,-0.7578,135.8,96.8,0.527
30.38,31886.1,34591.7,-0.5646,-1.0047,135.8,96.8,0.527
30.4,31831.2,34568.5,-0.8378,-1.0619,135.8,96.8,0.527
30.42,31805.4,34438.1,-0.9661,-1.3831,135.8,96.8,0.527
30.44,31752.4,34442.2,-1.2301,-1.3732,135.8,96.8,0.527
30.46,31775.3,34630.1,-1.116,-0.9102,135.8,96.8,0.527
30.48,32067.0,34897.2,0.3356,-0.2519,135.8,96.8,0.527
30.5,32096.9,35339.7,0.4844,0.8386,135.8,96.8,0.527
30.52,32282.8,35587.2,1.4099,1.4483,135.8,96.8,0.527
30.54,32375.9,35717.3,1.8728,1.769,135.8,96.8,0.527
30.56,32406.9,35797.3,2.0274,1.9661,135.8,96.8,0.527
30.58,32264.9,35590.9,1.3205,1.4574,135.8,96.8,0.527
30.6,32258.5,35440.1,1.2887,1.0858,135.8,96.8,0.527
30.62,32011.3,35208.7,0.0584,0.5158,135.8,96.8,0.527
30.64,32068.7,35105.4,0.344,0.2612,135.8,96.8,0.527
30.66,32016.7,34988.8,0.0855,-0.0261,135.8,96.8,0.527
30.68,32064.5,35069.1,0.323,0.1717,135.8,96.8,0.527
30.7,31975.2,34969.4,-0.1212,-0.0739,135.8,96.8,0.527
30.72,31929.7,34787.7,-0.3476,-0.5217,135.8,96.8,0.527
30.74,31871.3,34759.3,-0.6381,-0.5916,135.8,96.8,0.527
30.76,31892.4,34666.7,-0.5331,-0.8199,135.8,96.8,0.527
30.78,31817.6,34629.7,-0.9056,-0.9111,135.8,96.8,0.527
30.8,31816.4,34617.4,-0.9115,-0.9414,135.8,96.8,0.527
30.82,31860.2,34640.7,-0.6935,-0.884,135.8,96.8,0.527
30.84,31831.4,34475.1,-0.8367,-1.292,135.8,96.8,0.527
30.86,31656.7,34489.9,-1.7064,-1.2555,135.8,96.8,0.527
30.88,31723.2,34417.0,-1.3756,-1.4353,135.8,96.8,0.527
30.9,31769.6,34633.0,-1.1445,-0.903,135.8,96.8,0.527
30.92,31886.3,34836.5,-0.5635,-0.4015,135.8,96.8,0.527
30.94,32145.0,35294.6,0.724,0.7274,135.8,96.8,0.527
30.96,32332.4,35621.8,1.6565,1.5335,135.8,96.8,0.527
30.98,32443.3,35753.2,2.2086,1.8575,135.8,96.8,0.527
31.0,32279.1,35793.3,1.3912,1.9564,135.8,96.8,0.527
31.02,32249.1,35501.9,1.2418,1.2383,135.8,96.8,0.527
31.04,32057.5,35427.3,0.2882,1.0545,135.8,96.8,0.527
31.06,32114.4,35280.7,0.5716,0.6932,135.8,96.8,0.527
31.08,32079.2,35133.2,0.3961,0.3297,135.8,96.8,0.527
31.1,32109.8,34987.8,0.5485,-0.0287,135.8,96.8,0.527
31.12,31981.9,34968.9,-0.0878,-0.0752,135.8,96.8,0.527
31.14,32064.5,34947.3,0.3233,-0.1285,135.8,96.8,0.527
31.16,31952.8,34858.4,-0.2328,-0.3476,135.8,96.8,0.527
31.18,31869.2,34807.7,-0.6488,-0.4725,135.8,96.8,0.527
31.2,31897.5,34676.0,-0.5081,-0.7971,135.8,96.8,0.527
31.22,31791.0,34608.4,-1.038,-0.9634,135.8,96.8,0.527
31.24,31888.9,34674.7,-0.5506,-0.8003,135.8,96.8,0.527
31.26,31847.9,34522.9,-0.7546,-1.1743,135.8,96.8,0.527
31.28,31825.5,34591.9,-0.8662,-1.0043,135.8,96.8,0.527
31.3,31767.1,34450.3,-1.1567,-1.3531,135.8,96.8,0.527
31.32,31741.6,34401.3,-1.284,-1.4738,135.8,96.8,0.527
31.34,31819.0,34526.1,-0.8986,-1.1664,135.8,96.8,0.527
31.36,31963.6,34923.0,-0.1791,-0.1884,135.8,96.8,0.527
31.38,32169.0,35168.7,0.8433,0.4172,135.8,96.8,0.527
31.4,32297.5,35464.1,1.4828,1.145,135.8,96.8,0.527
31.42,32291.0,35764.6,1.4505,1.8854,135.8,96.8,0.527
31.44,32356.5,35719.8,1.7764,1.7753,135.8,96.8,0.527
31.46,32297.3,35589.6,1.4817,1.4544,135.8,96.8,0.527
31.48,32203.5,35450.7,1.0148,1.112,135.8,96.8,0.527
31.5,32159.3,35209.2,0.7948,0.5168,135.8,96.8,0.527
31.52,32052.1,35176.0,0.2616,0.435,135.8,96.8,0.527
31.54,32028.5,35170.0,0.144,0.4203,135.8,96.8,0.527
31.56,31994.0,35018.5,-0.0277,0.0471,135.8,96.8,0.527
31.58,32004.8,34867.7,0.0262,-0.3246,135.8,96.8,0.527
31.6,31920.6,34905.3,-0.3928,-0.2319,135.8,96.8,0.527
31.62,31909.7,34730.5,-0.4475,-0.6626,135.8,96.8,0.527
31.64,31861.5,34805.5,-0.6871,-0.4778,135.8,96.8,0.527
31.66,31973.5,34682.3,-0.1299,-0.7814,135.8,96.8,0.527
31.68,31865.7,34716.2,-0.6664,-0.698,135.8,96.8,0.527
31.7,31828.3,34587.7,-0.8522,-1.0145,135.8,96.8,0.527
31.72,31791.7,34467.7,-1.0345,-1.3104,135.8,96.8,0.527
31.74,31683.9,34437.9,-1.5708,-1.3838,135.8,96.8,0.527
31.76,31717.7,34457.7,-1.4026,-1.3348,135.8,96.8,0.527
31.78,31787.6,34584.2,-1.0551,-1.0233,135.8,96.8,0.527
31.8,31914.6,34807.3,-0.4229,-0.4734,135.8,96.8,0.527
31.82,32106.7,35138.3,0.5332,0.3423,135.8,96.8,0.527
31.84,32209.0,35566.0,1.0423,1.3961,135.8,96.8,0.527
31.86,32395.1,35702.7,1.9686,1.733,135.8,96.8,0.527
31.88,32411.1,35781.4,2.0481,1.927,135.8,96.8,0.527
31.9,32358.3,35581.9,1.7853,1.4353,135.8,96.8,0.527
31.92,32287.5,35473.5,1.4328,1.1681,135.8,96.8,0.527
31.94,32042.8,35276.2,0.2152,0.682,135.8,96.8,0.527
31.96,32134.1,35137.5,0.6696,0.3403,135.8,96.8,0.527
31.98,32048.8,35092.7,0.2449,0.2299,135.8,96.8,0.527
32.0,31991.4,35137.6,-0.0405,0.3405,135.8,96.8,0.527
32.02,31904.9,34912.4,-0.471,-0.2144,135.8,96.8,0.527
32.04,31975.8,34948.9,-0.1185,-0.1246,135.8,96.8,0.527
32.06,31936.4,34753.1,-0.3144,-0.6069,135.8,96.8,0.527
32.08,31834.8,34801.8,-0.82,-0.487,135.8,96.8,0.527
32.1,31767.9,34667.3,-1.1532,-0.8183,135.8,96.8,0.527
32.12,31879.5,34663.7,-0.5974,-0.8274,135.8,96.8,0.527
32.14,31836.5,34610.4,-0.8118,-0.9585,135.8,96.8,0.527
32.16,31744.2,34595.4,-1.2707,-0.9956,135.8,96.8,0.527
32.18,31757.1,34441.7,-1.2065,-1.3744,135.8,96.8,0.527
32.2,31809.4,34524.1,-0.9465,-1.1712,135.8,96.8,0.527
32.22,31810.9,34626.4,-0.9389,-0.9191,135.8,96.8,0.527
32.24,31893.2,34805.9,-0.5291,-0.4769,135.8,96.8,0.527
32.26,32109.2,35122.4,0.5459,0.3029,135.8,96.8,0.527
32.28,32317.7,35493.3,1.5834,1.217,135.8,96.8,0.527
32.3,32357.7,35768.5,1.7823,1.8951,135.8,96.8,0.527
32.32,32359.1,35722.2,1.7893,1.7811,135.8,96.8,0.527
32.34,32319.2,35696.4,1.5909,1.7174,135.8,96.8,0.527
32.36,32285.8,35435.5,1.4248,1.0746,135.8,96.8,0.527
32.38,32207.9,35309.5,1.0368,0.7642,135.8,96.8,0.527
32.4,32091.4,35197.2,0.4573,0.4875,135.8,96.8,0.527
32.42,31939.0,35033.2,-0.3015,0.0831,135.8,96.8,0.527
32.44,32094.5,35120.2,0.4724,0.2975,135.8,96.8,0.527
32.46,31987.6,35048.8,-0.0595,0.1218,135.8,96.8,0.527
32.48,31983.5,34948.0,-0.0798,-0.1268,135.8,96.8,0.527
32.5,31952.9,34796.2,-0.2323,-0.5008,135.8,96.8,0.527
32.52,31817.2,34623.6,-0.9074,-0.9261,135.8,96.8,0.527
32.54,31959.8,34628.0,-0.198,-0.9153,135.8,96.8,0.527
32.56,31881.4,34736.6,-0.5882,-0.6476,135.8,96.8,0.527
32.58,31830.2,34602.4,-0.8428,-0.9782,135.8,96.8,0.527
32.6,31724.3,34614.8,-1.37,-0.9477,135.8,96.8,0.527
32.62,31776.6,34533.8,-1.1098,-1.1475,135.8,96.8,0.527
32.64,31682.0,34366.0,-1.5806,-1.5609,135.8,96.8,0.527
32.66,31826.8,34455.1,-0.8599,-1.3413,135.8,96.8,0.527
32.68,31961.3,34779.5,-0.1903,-0.542,135.8,96.8,0.527
32.7,32035.4,35001.3,0.1786,0.0046,135.8,96.8,0.527
32.72,32302.9,35348.6,1.5097,0.8604,135.8,96.8,0.527
32.74,32418.7,35670.5,2.086,1.6537,135.8,96.8,0.527
32.76,32352.3,35769.6,1.7558,1.8978,135.8,96.8,0.527
32.78,32210.9,35671.5,1.0518,1.6561,135.8,96.8,0.527
32.8,32257.9,35429.4,1.2858,1.0594,135.8,96.8,0.527
32.82,32118.6,35318.4,0.5923,0.7859,135.8,96.8,0.527
32.84,32137.4,35194.6,0.6858,0.4809,135.8,96.8,0.527
32.86,32071.4,35086.8,0.3576,0.2153,135.8,96.8,0.527
32.88,32006.8,35025.9,0.0359,0.0653,135.8,96.8,0.527
32.9,31970.0,34970.1,-0.1472,-0.0722,135.8,96.8,0.527
32.92,31974.8,34984.6,-0.1233,-0.0365,135.8,96.8,0.527
32.94,31905.5,34870.9,-0.4681,-0.3166,135.8,96.8,0.527
32.96,31887.4,34701.9,-0.5581,-0.7333,135.8,96.8,0.527
32.98,31766.6,34688.1,-1.1595,-0.7673,135.8,96.8,0.527
33.0,31953.2,34637.4,-0.2306,-0.892,135.8,96.8,0.527
33.02,31793.8,34653.1,-1.024,-0.8535,135.8,96.8,0.527
33.04,31725.3,34543.1,-1.3651,-1.1245,135.8,96.8,0.527
33.06,31724.6,34545.4,-1.3686,-1.1188,135.8,96.8,0.527
33.08,31693.1,34408.6,-1.5253,-1.4558,135.8,96.8,0.527
33.1,31788.1,34452.0,-1.0526,-1.349,135.8,96.8,0.527
33.12,31837.5,34772.6,-0.8063,-0.5589,135.8,96.8,0.527
33.14,32052.4,35058.9,0.2629,0.1466,135.8,96.8,0.527
33.16,32170.4,35436.2,0.8501,1.0764,135.8,96.8,0.527
33.18,32325.1,35745.5,1.6202,1.8385,135.8,96.8,0.527
33.2,32371.7,35763.7,1.8519,1.8834,135.8,96.8,0.527
33.22,32311.5,35535.4,1.5526,1.3207,135.8,96.8,0.527
33.24,32224.1,35429.5,1.1175,1.0597,135.8,96.8,0.527
33.26,32164.1,35376.9,0.8188,0.9302,135.8,96.8,0.527
33.28,32098.1,35231.1,0.4903,0.5709,135.8,96.8,0.527
33.3,32015.9,35162.6,0.0814,0.4022,135.8,96.8,0.527
33.32,32039.1,35039.2,0.1968,0.0979,135.8,96.8,0.527
33.34,32035.3,35005.3,0.1777,0.0144,135.8,96.8,0.527
33.36,31993.5,34912.2,-0.0303,-0.2149,135.8,96.8,0.527
33.38,31864.6,34783.1,-0.6715,-0.5332,135.8,96.8,0.527
33.4,31879.8,34672.3,-0.5962,-0.8062,135.8,96.8,0.527
33.42,31826.3,34681.4,-0.8622,-0.7838,135.8,96.8,0.527
33.44,31811.7,34679.5,-0.9349,-0.7883,135.8,96.8,0.527
33.46,31861.6,34758.9,-0.6868,-0.5926,135.8,96.8,0.527
33.48,31815.4,34651.7,-0.9167,-0.8568,135.8,96.8,0.527
33.5,31794.6,34497.5,-1.0198,-1.2369,135.8,96.8,0.527
33.52,31700.0,34453.0,-1.491,-1.3464,135.8,96.8,0.527
33.54,31800.1,34479.9,-0.9926,-1.2803,135.8,96.8,0.527
33.56,31917.4,34768.9,-0.409,-0.568,135.8,96.8,0.527
33.58,32030.1,35053.9,0.1522,0.1343,135.8,96.8,0.527
33.6,32171.6,35349.3,0.8561,0.8622,135.8,96.8,0.527
33.62,32344.4,35623.6,1.7161,1.5382,135.8,96.8,0.527
33.64,32331.9,35682.5,1.6542,1.6831,135.8,96.8,0.527
33.66,32358.5,35618.4,1.7864,1.5252,135.8,96.8,0.527
33.68,32231.3,35608.2,1.1532,1.5001,135.8,96.8,0.527
33.7,32163.3,35307.9,0.8149,0.7601,135.8,96.8,0.527
33.72,32079.6,35139.9,0.3982,0.3461,135.8,96.8,0.527
33.74,32069.0,35086.4,0.3456,0.2144,135.8,96.8,0.527
33.76,32176.7,35146.6,0.8816,0.3626,135.8,96.8,0.527
33.78,32106.2,35083.0,0.5305,0.2059,135.8,96.8,0.527
33.8,31923.7,34914.9,-0.3777,-0.2084,135.8,96.8,0.527
33.82,31961.5,34827.9,-0.1896,-0.4227,135.8,96.8,0.527
33.84,31892.1,34601.2,-0.535,-0.9813,135.8,96.8,0.527
33.86,31812.8,34631.3,-0.9294,-0.9071,135.8,96.8,0.527
33.88,31851.3,34649.9,-0.738,-0.8613,135.8,96.8,0.527
33.9,31855.6,34703.4,-0.7167,-0.7295,135.8,96.8,0.527
33.92,31798.8,34569.5,-0.999,-1.0593,135.8,96.8,0.527
33.94,31783.4,34417.8,-1.0757,-1.4333,135.8,96.8,0.527
33.96,31625.7,34490.2,-1.8608,-1.2548,135.8,96.8,0.527
33.98,31847.9,34547.0,-0.7548,-1.1149,135.8,96.8,0.527
34.0,31931.1,34666.1,-0.3407,-0.8213,135.8,96.8,0.527
34.02,31969.3,35012.5,-0.1504,0.0323,135.8,96.8,0.527
34.04,32131.0,35316.7,0.654,0.7817,135.8,96.8,0.527
34.06,32289.1,35698.4,1.4412,1.7224,135.8,96.8,0.527
34.08,32261.1,35735.3,1.3018,1.8134,135.8,96.8,0.527
34.1,32345.1,35649.7,1.7195,1.6023,135.8,96.8,0.527
34.12,32242.3,35491.3,1.2082,1.212,135.8,96.8,0.527
34.14,32091.2,35349.1,0.4559,0.8617,135.8,96.8,0.527
34.16,32095.9,35183.1,0.4796,0.4527,135.8,96.8,0.527
34.18,32067.0,35117.2,0.3355,0.2903,135.8,96.8,0.527
34.2,31982.5,35133.5,-0.0849,0.3305,135.8,96.8,0.527
34.22,32017.4,35091.5,0.0886,0.2268,135.8,96.8,0.527
34.24,31955.7,34930.1,-0.2184,-0.1707,135.8,96.8,0.527
34.26,31913.2,34869.4,-0.4297,-0.3203,135.8,96.8,0.527
34.28,31841.2,34703.0,-0.7884,-0.7304,135.8,96.8,0.527
34.3,31825.3,34648.3,-0.8672,-0.8653,135.8,96.8,0.527
34.32,31739.5,34706.1,-1.2945,-0.7227,135.8,96.8,0.527
34.34,31832.4,34640.6,-0.8321,-0.8842,135.8,96.8,0.527
34.36,31910.7,34705.3,-0.4424,-0.7249,135.8,96.8,0.527
34.38,31830.6,34482.9,-0.8409,-1.2727,135.8,96.8,0.527
34.4,31712.1,34422.9,-1.4306,-1.4206,135.8,96.8,0.527
34.42,31680.3,34596.4,-1.5887,-0.9931,135.8,96.8,0.527
34.44,31941.6,34717.5,-0.2886,-0.6948,135.8,96.8,0.527
34.46,32012.7,34956.8,0.0654,-0.1049,135.8,96.8,0.527
34.48,32155.9,35349.5,0.7781,0.8626,135.8,96.8,0.527
34.5,32354.0,35661.2,1.7641,1.6308,135.8,96.8,0.527
34.52,32352.4,35717.2,1.756,1.7688,135.8,96.8,0.527
34.54,32382.8,35696.2,1.9076,1.717,135.8,96.8,0.527
34.56,32224.4,35579.7,1.119,1.4299,135.8,96.8,0.527
34.58,32241.5,35320.5,1.204,0.7912,135.8,96.8,0.527
34.6,32121.4,35155.0,0.6066,0.3833,135.8,96.8,0.527
34.62,32045.5,35019.0,0.2287,0.0482,135.8,96.8,0.527
34.64,32137.5,35147.4,0.6865,0.3647,135.8,96.8,0.527
34.66,32096.2,34947.1,0.4811,-0.1289,135.8,96.8,0.527
34.68,31953.1,35017.0,-0.2313,0.0432,135.8,96.8,0.527
34.7,31898.5,34778.6,-0.5031,-0.5442,135.8,96.8,0.527
34.72,31845.7,34676.7,-0.7657,-0.7954,135.8,96.8,0.527
34.74,31842.3,34691.5,-0.7825,-0.7587,135.8,96.8,0.527
34.76,31765.2,34639.2,-1.1666,-0.8878,135.8,96.8,0.527
34.78,31746.4,34672.0,-1.2599,-0.8069,135.8,96.8,0.527
34.8,31781.9,34609.8,-1.0833,-0.9602,135.8,96.8,0.527
34.82,31782.4,34562.0,-1.0807,-1.0778,135.8,96.8,0.527
34.84,31713.9,34395.6,-1.4215,-1.4879,135.8,96.8,0.527
34.86,31777.6,34484.6,-1.1048,-1.2687,135.8,96.8,0.527
34.88,31850.8,34761.7,-0.7401,-0.5858,135.8,96.8,0.527
34.9,31893.1,34981.6,-0.5298,-0.0439,135.8,96.8,0.527
34.92,32188.7,35359.2,0.9411,0.8866,135.8,96.8,0.527
34.94,32240.8,35631.3,1.2007,1.5572,135.8,96.8,0.527
34.96,32351.1,35750.6,1.7496,1.8509,135.8,96.8,0.527
34.98,32395.2,35792.1,1.9689,1.9533,135.8,96.8,0.527
35.0,32264.0,35567.2,1.3161,1.3991,135.8,96.8,0.527
35.02,32073.8,35380.6,0.3696,0.9393,135.8,96.8,0.527
35.04,32091.1,35278.6,0.4554,0.6879,135.8,96.8,0.527
35.06,32127.4,35187.9,0.6362,0.4645,135.8,96.8,0.527
35.08,32091.8,35185.6,0.4592,0.4587,135.8,96.8,0.527
35.1,32087.5,34941.6,0.4378,-0.1424,135.8,96.8,0.527
35.12,32000.2,34939.7,0.0033,-0.1471,135.8,96.8,0.527
35.14,31780.9,34863.1,-1.0881,-0.336,135.8,96.8,0.527
35.16,31856.0,34704.4,-0.7145,-0.7269,135.8,96.8,0.527
35.18,31830.2,34659.7,-0.843,-0.8372,135.8,96.8,0.527
35.2,31857.0,34676.9,-0.7093,-0.7947,135.8,96.8,0.527
35.22,31835.4,34673.7,-0.817,-0.8025,135.8,96.8,0.527
35.24,31844.9,34593.0,-0.77,-1.0015,135.8,96.8,0.527
35.26,31832.1,34467.5,-0.8337,-1.3107,135.8,96.8,0.527
35.28,31738.5,34450.8,-1.2992,-1.3519,135.8,96.8,0.527
35.3,31742.4,34554.9,-1.28,-1.0954,135.8,96.8,0.527
35.32,31823.2,34563.3,-0.8779,-1.0748,135.8,96.8,0.527
35.34,31999.2,34808.4,-0.0018,-0.4707,135.8,96.8,0.527
35.36,32042.6,35305.7,0.2141,0.7546,135.8,96.8,0.527
35.38,32300.9,35514.4,1.4999,1.2689,135.8,96.8,0.527
35.4,32347.7,35831.9,1.7326,2.0514,135.8,96.8,0.527
35.42,32357.5,35758.8,1.7814,1.8712,135.8,96.8,0.527
35.44,32180.6,35570.7,0.9012,1.4077,135.8,96.8,0.527
35.46,32163.6,35442.2,0.8165,1.091,135.8,96.8,0.527
35.48,32125.6,35333.2,0.6271,0.8226,135.8,96.8,0.527
35.5,32006.2,35129.1,0.033,0.3195,135.8,96.8,0.527
35.52,31971.3,35165.5,-0.1405,0.4092,135.8,96.8,0.527
35.54,31927.5,35069.7,-0.3588,0.1732,135.8,96.8,0.527
35.56,31977.5,34956.3,-0.1098,-0.1064,135.8,96.8,0.527
35.58,31914.9,34784.0,-0.4213,-0.5307,135.8,96.8,0.527
35.6,31887.2,34751.7,-0.5592,-0.6105,135.8,96.8,0.527
35.62,31806.7,34616.3,-0.9599,-0.944,135.8,96.8,0.527
35.64,31807.2,34747.6,-0.9574,-0.6204,135.8,96.8,0.527
35.66,31866.3,34650.0,-0.6633,-0.8611,135.8,96.8,0.527
35.68,31730.3,34672.7,-1.34,-0.8051,135.8,96.8,0.527
35.7,31780.7,34469.8,-1.0895,-1.305,135.8,96.8,0.527
35.72,31757.3,34518.6,-1.2058,-1.1849,135.8,96.8,0.527
35.74,31668.7,34491.3,-1.6467,-1.2521,135.8,96.8,0.527
35.76,31857.0,34695.4,-0.7097,-0.7492,135.8,96.8,0.527
35.78,31965.5,34893.4,-0.1696,-0.2613,135.8,96.8,0.527
35.8,32037.0,35260.6,0.1865,0.6436,135.8,96.8,0.527
35.82,32282.2,35441.1,1.4067,1.0883,135.8,96.8,0.527
35.84,32322.2,35777.0,1.6059,1.9161,135.8,96.8,0.527
35.86,32322.3,35651.7,1.6061,1.6072,135.8,96.8,0.527
35.88,32223.6,35646.5,1.1151,1.5946,135.8,96.8,0.527
35.9,32251.8,35450.0,1.2553,1.1104,135.8,96.8,0.527
35.92,32124.0,35240.6,0.6192,0.5944,135.8,96.8,0.527
35.94,32035.4,35146.5,0.1782,0.3624,135.8,96.8,0.527
35.96,32058.3,35137.2,0.2923,0.3395,135.8,96.8,0.527
35.98,32044.9,35085.5,0.2256,0.212,135.8,96.8,0.527
36.0,32041.4,34989.6,0.2081,-0.0243,135.8,96.8,0.527
36.02,31952.6,34904.2,-0.2339,-0.2347,135.8,96.8,0.527
36.04,31932.3,34762.2,-0.3349,-0.5847,135.8,96.8,0.527
36.06,31858.4,34615.3,-0.7023,-0.9466,135.8,96.8,0.527
36.08,31842.3,34701.5,-0.7828,-0.7342,135.8,96.8,0.527
36.1,31793.0,34601.5,-1.0279,-0.9805,135.8,96.8,0.527
36.12,31885.5,34563.1,-0.5675,-1.0751,135.8,96.8,0.527
36.14,31834.1,34518.4,-0.8237,-1.1852,135.8,96.8,0.527
36.16,31704.2,34536.7,-1.47,-1.1402,135.8,96.8,0.527
36.18,31723.7,34474.2,-1.3728,-1.2943,135.8,96.8,0.527
36.2,31805.9,34576.7,-0.9636,-1.0417,135.8,96.8,0.527
36.22,31944.7,34752.7,-0.2729,-0.608,135.8,96.8,0.527
36.24,32076.7,35321.8,0.3839,0.7943,135.8,96.8,0.527
36.26,32268.3,35641.5,1.3376,1.5821,135.8,96.8,0.527
36.28,32400.8,35622.9,1.9968,1.5363,135.8,96.8,0.527
36.3,32322.6,35775.3,1.6076,1.9118,135.8,96.8,0.527
36.32,32320.8,35613.8,1.5987,1.5138,135.8,96.8,0.527
36.34,32249.3,35452.4,1.2431,1.1163,135.8,96.8,0.527
36.36,32181.6,35180.1,0.9058,0.4452,135.8,96.8,0.527
36.38,32074.2,35158.2,0.3715,0.3912,135.8,96.8,0.527
36.4,32055.1,35197.2,0.2762,0.4873,135.8,96.8,0.527
36.42,31943.5,35026.0,-0.2791,0.0655,135.8,96.8,0.527
36.44,31996.3,34940.6,-0.016,-0.145,135.8,96.8,0.527
36.46,32017.5,34833.0,0.0892,-0.4101,135.8,96.8,0.527
36.48,31967.4,34768.6,-0.1603,-0.5688,135.8,96.8,0.527
36.5,31923.1,34696.8,-0.3805,-0.7458,135.8,96.8,0.527
36.52,31943.2,34578.3,-0.2804,-1.0378,135.8,96.8,0.527
36.54,31785.7,34624.9,-1.0642,-0.923,135.8,96.8,0.527
36.56,31849.0,34599.7,-0.7491,-0.9849,135.8,96.8,0.527
36.58,31827.7,34497.1,-0.8552,-1.2379,135.8,96.8,0.527
36.6,31761.7,34478.7,-1.1839,-1.2832,135.8,96.8,0.527
36.62,31670.2,34518.6,-1.639,-1.1849,135.8,96.8,0.527
36.64,31777.1,34641.6,-1.1071,-0.8817,135.8,96.8,0.527
36.66,31863.6,34791.8,-0.6765,-0.5117,135.8,96.8,0.527
36.68,32148.5,35141.4,0.7414,0.3498,135.8,96.8,0.527
36.7,32289.6,35476.4,1.4437,1.1754,135.8,96.8,0.527
36.72,32404.3,35792.5,2.0143,1.9543,135.8,96.8,0.527
36.74,32328.8,35737.5,1.6385,1.8187,135.8,96.8,0.527
36.76,32296.9,35630.7,1.4797,1.5555,135.8,96.8,0.527
36.78,32233.8,35388.0,1.1659,0.9575,135.8,96.8,0.527
36.8,32073.4,35254.9,0.3674,0.6296,135.8,96.8,0.527
36.82,32045.9,35118.9,0.2304,0.2945,135.8,96.8,0.527
36.84,32054.0,35085.9,0.2708,0.2131,135.8,96.8,0.527
36.86,31967.8,35028.2,-0.1579,0.0708,135.8,96.8,0.527
36.88,31965.7,35004.9,-0.1685,0.0135,135.8,96.8,0.527
36.9,31968.0,34952.8,-0.1569,-0.1148,135.8,96.8,0.527
36.92,31877.2,34805.7,-0.6087,-0.4773,135.8,96.8,0.527
36.94,31941.9,34631.3,-0.2871,-0.9072,135.8,96.8,0.527
36.96,31856.9,34641.3,-0.7102,-0.8825,135.8,96.8,0.527
36.98,31807.7,34717.3,-0.9551,-0.6951,135.8,96.8,0.527
37.0,31830.1,34639.0,-0.8433,-0.8882,135.8,96.8,0.527
37.02,31780.2,34586.0,-1.0917,-1.0188,135.8,96.8,0.527
37.04,31821.4,34570.6,-0.8869,-1.0567,135.8,96.8,0.527
37.06,31759.0,34422.8,-1.197,-1.421,135.8,96.8,0.527
37.08,31753.6,34527.8,-1.2239,-1.1622,135.8,96.8,0.527
37.1,31833.7,34849.6,-0.8255,-0.3692,135.8,96.8,0.527
37.12,31903.8,35176.8,-0.4768,0.437,135.8,96.8,0.527
37.14,32156.0,35403.5,0.7785,0.9957,135.8,96.8,0.527
37.16,32360.0,35673.7,1.7936,1.6616,135.8,96.8,0.527
37.18,32353.3,35715.9,1.7606,1.7656,135.8,96.8,0.527
37.2,32331.5,35652.4,1.6522,1.609,135.8,96.8,0.527
37.22,32239.3,35496.4,1.1932,1.2247,135.8,96.8,0.527
37.24,32208.6,35357.4,1.0403,0.8821,135.8,96.8,0.527
37.26,32158.7,35084.6,0.7921,0.2099,135.8,96.8,0.527
37.28,32069.2,35157.8,0.3464,0.3902,135.8,96.8,0.527
37.3,31949.0,35032.2,-0.2516,0.0808,135.8,96.8,0.527
37.32,31987.6,35047.0,-0.0596,0.1172,135.8,96.8,0.527
37.34,31958.7,34871.1,-0.2035,-0.3162,135.8,96.8,0.527
37.36,31990.5,34853.6,-0.045,-0.3593,135.8,96.8,0.527
37.38,31826.8,34652.5,-0.8598,-0.8548,135.8,96.8,0.527
37.4,31947.5,34704.4,-0.2592,-0.727,135.8,96.8,0.527
37.42,31799.8,34704.5,-0.9941,-0.7267,135.8,96.8,0.527
37.44,31830.1,34593.4,-0.8434,-1.0004,135.8,96.8,0.527
37.46,31767.9,34630.5,-1.1527,-0.909,135.8,96.8,0.527
37.48,31732.3,34510.3,-1.3302,-1.2054,135.8,96.8,0.527
37.5,31800.5,34452.6,-0.9909,-1.3476,135.8,96.8,0.527
37.52,31762.1,34495.9,-1.1817,-1.2408,135.8,96.8,0.527
37.54,31904.3,34721.5,-0.4739,-0.6849,135.8,96.8,0.527
37.56,32001.2,35111.8,0.008,0.2769,135.8,96.8,0.527
37.58,32234.2,35441.3,1.1678,1.0889,135.8,96.8,0.527
37.6,32329.5,35633.1,1.6419,1.5614,135.8,96.8,0.527
37.62,32388.9,35858.9,1.9375,2.1178,135.8,96.8,0.527
37.64,32327.6,35763.2,1.6325,1.882,135.8,96.8,0.527
37.66,32314.8,35557.9,1.569,1.3762,135.8,96.8,0.527
37.68,32228.7,35329.9,1.1404,0.8144,135.8,96.8,0.527
37.7,32113.3,35158.9,0.5661,0.393,135.8,96.8,0.527
37.72,32103.1,35005.9,0.5155,0.016,135.8,96.8,0.527
37.74,32018.5,35052.8,0.0942,0.1315,135.8,96.8,0.527
37.76,31958.2,34894.9,-0.2059,-0.2576,135.8,96.8,0.527
37.78,31949.6,34884.7,-0.2487,-0.2827,135.8,96.8,0.527
37.8,31895.2,34712.8,-0.5194,-0.7063,135.8,96.8,0.527
37.82,31921.0,34697.5,-0.3909,-0.7441,135.8,96.8,0.527
37.84,31719.9,34658.4,-1.3918,-0.8403,135.8,96.8,0.527
37.86,31765.6,34667.5,-1.1643,-0.818,135.8,96.8,0.527
37.88,31825.7,34606.9,-0.8655,-0.9672,135.8,96.8,0.527
37.9,31824.3,34573.2,-0.8722,-1.0502,135.8,96.8,0.527
37.92,31788.5,34534.4,-1.0506,-1.1459,135.8,96.8,0.527
37.94,31792.4,34517.2,-1.0308,-1.1884,135.8,96.8,0.527
37.96,31732.9,34503.6,-1.3269,-1.2218,135.8,96.8,0.527
37.98,31910.5,34694.1,-0.4434,-0.7524,135.8,96.8,0.527
38.0,32112.1,35057.2,0.5602,0.1423,135.8,96.8,0.527
38.02,32318.7,35311.5,1.5881,0.769,135.8,96.8,0.527
38.04,32273.4,35634.4,1.3627,1.5646,135.8,96.8,0.527
38.06,32378.2,35696.9,1.8842,1.7187,135.8,96.8,0.527
38.08,32406.3,35706.1,2.0245,1.7414,135.8,96.8,0.527
38.1,32255.9,35539.3,1.276,1.3304,135.8,96.8,0.527
38.12,32062.1,35341.0,0.3114,0.8418,135.8,96.8,0.527
38.14,32115.2,35071.7,0.5757,0.1782,135.8,96.8,0.527
38.16,32038.8,35102.3,0.1951,0.2536,135.8,96.8,0.527
38.18,32057.1,35027.7,0.2864,0.0697,135.8,96.8,0.527
38.2,32129.5,34958.3,0.6467,-0.1014,135.8,96.8,0.527
38.22,31962.5,34959.3,-0.1846,-0.0988,135.8,96.8,0.527
38.24,31931.6,34842.8,-0.3381,-0.386,135.8,96.8,0.527
38.26,32011.6,34860.8,0.0601,-0.3416,135.8,96.8,0.527
38.28,31805.2,34683.5,-0.9673,-0.7784,135.8,96.8,0.527
38.3,31903.9,34671.1,-0.4763,-0.8091,135.8,96.8,0.527
38.32,31806.4,34678.7,-0.9614,-0.7902,135.8,96.8,0.527
38.34,31867.7,34632.1,-0.6564,-0.9052,135.8,96.8,0.527
38.36,31736.1,34415.8,-1.3111,-1.4382,135.8,96.8,0.527
38.38,31814.4,34523.7,-0.9216,-1.1722,135.8,96.8,0.527
38.4,31737.7,34537.4,-1.3033,-1.1386,135.8,96.8,0.527
38.42,31810.2,34688.8,-0.9423,-0.7655,135.8,96.8,0.527
38.44,32008.6,35001.7,0.045,0.0057,135.8,96.8,0.527
38.46,32167.2,35317.6,0.8344,0.784,135.8,96.8,0.527
38.48,32276.6,35678.8,1.3786,1.674,135.8,96.8,0.527
38.5,32435.4,35705.7,2.1693,1.7405,135.8,96.8,0.527
38.52,32355.2,35633.6,1.7698,1.5627,135.8,96.8,0.527
38.54,32248.1,35541.2,1.2368,1.3351,135.8,96.8,0.527
38.56,32120.5,35300.0,0.6021,0.7407,135.8,96.8,0.527
38.58,32131.0,35154.8,0.654,0.3828,135.8,96.8,0.527
38.6,32016.7,35075.3,0.0853,0.1871,135.8,96.8,0.527
38.62,32057.3,35054.9,0.2874,0.1368,135.8,96.8,0.527
38.64,32076.4,35024.8,0.3824,0.0625,135.8,96.8,0.527
38.66,31977.2,34895.3,-0.1112,-0.2566,135.8,96.8,0.527
38.68,31897.9,34802.7,-0.5059,-0.4849,135.8,96.8,0.527
38.7,31813.6,34638.2,-0.9256,-0.8901,135.8,96.8,0.527
38.72,31840.8,34666.7,-0.7904,-0.8199,135.8,96.8,0.527
38.74,31874.9,34629.7,-0.6206,-0.9111,135.8,96.8,0.527
38.76,31809.8,34648.2,-0.9446,-0.8655,135.8,96.8,0.527
38.78,31789.6,34544.1,-1.0451,-1.1219,135.8,96.8,0.527
38.8,31762.0,34507.0,-1.1824,-1.2134,135.8,96.8,0.527
38.82,31738.1,34512.7,-1.3011,-1.1994,135.8,96.8,0.527
38.84,31819.3,34540.7,-0.8972,-1.1304,135.8,96.8,0.527
38.86,31924.7,34725.0,-0.3725,-0.6763,135.8,96.8,0.527
38.88,31980.9,35026.3,-0.0928,0.0663,135.8,96.8,0.527
38.9,32134.0,35343.7,0.669,0.8483,135.8,96.8,0.527
38.92,32314.2,35662.7,1.5658,1.6343,135.8,96.8,0.527
38.94,32436.2,35800.5,2.1732,1.9739,135.8,96.8,0.527
38.96,32351.9,35732.3,1.7533,1.806,135.8,96.8,0.527
38.98,32335.4,35642.2,1.6716,1.5839,135.8,96.8,0.527
39.0,32197.5,35381.2,0.985,0.9407,135.8,96.8,0.527
39.02,32058.1,35201.1,0.2916,0.497,135.8,96.8,0.527
39.04,32026.9,35162.1,0.1363,0.4008,135.8,96.8,0.527
39.06,31985.4,35057.5,-0.0703,0.1431,135.8,96.8,0.527
39.08,32000.5,35038.4,0.0045,0.0961,135.8,96.8,0.527
39.1,31976.4,34937.6,-0.1154,-0.1523,135.8,96.8,0.527
39.12,32010.1,34858.5,0.0524,-0.3473,135.8,96.8,0.527
39.14,31785.9,34801.6,-1.0633,-0.4875,135.8,96.8,0.527
39.16,31793.3,34627.7,-1.0267,-0.916,135.8,96.8,0.527
39.18,31792.0,34717.0,-1.0332,-0.6959,135.8,96.8,0.527
39.2,31826.5,34641.3,-0.8614,-0.8824,135.8,96.8,0.527
39.22,31800.4,34665.2,-0.9912,-0.8235,135.8,96.8,0.527
39.24,31760.4,34559.4,-1.1903,-1.0842,135.8,96.8,0.527
39.26,31730.1,34471.9,-1.3411,-1.2998,135.8,96.8,0.527
39.28,31698.5,34511.6,-1.4981,-1.2022,135.8,96.8,0.527
39.3,31929.5,34683.5,-0.3485,-0.7785,135.8,96.8,0.527
39.32,31942.4,34951.0,-0.2844,-0.1194,135.8,96.8,0.527
39.34,32150.8,35368.9,0.7529,0.9103,135.8,96.8,0.527
39.36,32363.9,35587.6,1.8134,1.4495,135.8,96.8,0.527
39.38,32382.8,35724.5,1.9073,1.7866,135.8,96.8,0.527
39.4,32302.4,35735.5,1.507,1.8137,135.8,96.8,0.527
39.42,32223.0,35601.9,1.1119,1.4846,135.8,96.8,0.527
39.44,32199.8,35248.0,0.9968,0.6126,135.8,96.8,0.527
39.46,32092.9,35220.7,0.4645,0.5453,135.8,96.8,0.527
39.48,32085.2,35077.0,0.4262,0.1912,135.8,96.8,0.527
39.5,32058.6,35057.8,0.2938,0.1438,135.8,96.8,0.527
39.52,32019.2,35092.3,0.0976,0.2289,135.8,96.8,0.527
39.54,31961.4,34996.7,-0.1898,-0.0067,135.8,96.8,0.527
39.56,31837.9,34860.5,-0.8044,-0.3423,135.8,96.8,0.527
39.58,31905.1,34767.9,-0.4702,-0.5706,135.8,96.8,0.527
39.6,31891.7,34654.6,-0.5366,-0.8497,135.8,96.8,0.527
39.62,31834.7,34634.8,-0.8206,-0.8986,135.8,96.8,0.527
39.64,31906.1,34752.0,-0.4652,-0.6097,135.8,96.8,0.527
39.66,31745.4,34633.3,-1.2651,-0.9022,135.8,96.8,0.527
39.68,31709.6,34452.7,-1.4429,-1.3473,135.8,96.8,0.527
39.7,31689.8,34482.1,-1.5415,-1.2749,135.8,96.8,0.527
39.72,31844.7,34370.1,-0.7707,-1.5507,135.8,96.8,0.527
39.74,31792.0,34756.7,-1.033,-0.5982,135.8,96.8,0.527
39.76,31953.7,34915.9,-0.2282,-0.2057,135.8,96.8,0.527
39.78,32165.2,35299.6,0.8244,0.7398,135.8,96.8,0.527
39.8,32271.6,35563.0,1.3539,1.3887,135.8,96.8,0.527
39.82,32373.8,35786.2,1.8627,1.9388,135.8,96.8,0.527
39.84,32293.4,35766.2,1.4626,1.8894,135.8,96.8,0.527
39.86,32244.9,35558.6,1.2209,1.3779,135.8,96.8,0.527
39.88,32218.3,35381.1,1.0889,0.9406,135.8,96.8,0.527
39.9,32116.0,35228.4,0.5795,0.5642,135.8,96.8,0.527
39.92,32009.1,35134.7,0.0476,0.3333,135.8,96.8,0.527
39.94,32020.1,35115.9,0.1024,0.2871,135.8,96.8,0.527
39.96,31953.9,35089.6,-0.2273,0.2223,135.8,96.8,0.527
39.98,31872.1,34922.7,-0.6341,-0.1891,135.8,96.8,0.527
40.0,31886.7,34777.6,-0.5619,-0.5467,135.8,96.8,0.527
40.02,31911.9,34719.5,-0.4361,-0.6898,135.8,96.8,0.527
40.04,31821.1,34751.8,-0.8882,-0.6102,135.8,96.8,0.527
40.06,31839.0,34675.5,-0.799,-0.7983,135.8,96.8,0.527
40.08,31770.2,34694.7,-1.1417,-0.7509,135.8,96.8,0.527
40.1,31752.5,34589.4,-1.2296,-1.0103,135.8,96.8,0.527
40.12,31843.7,34443.7,-0.7758,-1.3693,135.8,96.8,0.527
40.14,31737.6,34471.6,-1.3036,-1.3008,135.8,96.8,0.527
40.16,31743.4,34471.4,-1.275,-1.3011,135.8,96.8,0.527
40.18,31775.5,34574.8,-1.1153,-1.0464,135.8,96.8,0.527
40.2,31941.5,34816.8,-0.289,-0.4499,135.8,96.8,0.527
40.22,32098.4,35239.3,0.4921,0.5912,135.8,96.8,0.527
40.24,32379.8,35615.9,1.8925,1.5192,135.8,96.8,0.527
40.26,32311.7,35763.4,1.5537,1.8826,135.8,96.8,0.527
40.28,32437.7,35698.0,2.1807,1.7215,135.8,96.8,0.527
40.3,32342.6,35572.7,1.7072,1.4126,135.8,96.8,0.527
40.32,32195.5,35316.4,0.9752,0.7811,135.8,96.8,0.527
40.34,32147.8,35225.5,0.738,0.5571,135.8,96.8,0.527
40.36,32033.6,35181.2,0.1696,0.4479,135.8,96.8,0.527
40.38,32149.0,35037.9,0.7438,0.0949,135.8,96.8,0.527
40.4,32031.0,34992.2,0.1565,-0.0178,135.8,96.8,0.527
40.42,31912.3,34904.6,-0.4343,-0.2335,135.8,96.8,0.527
40.44,31923.9,34819.8,-0.3768,-0.4425,135.8,96.8,0.527
40.46,31849.8,34653.7,-0.7454,-0.852,135.8,96.8,0.527
40.48,31849.0,34668.2,-0.7491,-0.8163,135.8,96.8,0.527
40.5,31846.9,34694.1,-0.76,-0.7524,135.8,96.8,0.527
40.52,31836.4,34642.3,-0.8118,-0.88,135.8,96.8,0.527
40.54,31842.3,34616.7,-0.7827,-0.9432,135.8,96.8,0.527
40.56,31781.3,34554.9,-1.0864,-1.0955,135.8,96.8,0.527
40.58,31731.5,34515.4,-1.3339,-1.1927,135.8,96.8,0.527
40.6,31816.2,34420.5,-0.9126,-1.4267,135.8,96.8,0.527
40.62,31837.6,34633.4,-0.8059,-0.902,135.8,96.8,0.527
40.64,31929.9,34868.7,-0.3469,-0.3221,135.8,96.8,0.527
40.66,32061.9,35187.3,0.3101,0.4629,135.8,96.8,0.527
40.68,32285.7,35598.7,1.424,1.4767,135.8,96.8,0.527
40.7,32344.0,35755.2,1.7145,1.8624,135.8,96.8,0.527
40.72,32374.3,35752.3,1.8649,1.8552,135.8,96.8,0.527
40.74,32259.7,35632.6,1.2945,1.5604,135.8,96.8,0.527
40.76,32286.1,35435.8,1.4262,1.0753,135.8,96.8,0.527
40.78,32150.9,35269.9,0.753,0.6664,135.8,96.8,0.527
40.8,32062.5,35156.8,0.3134,0.3878,135.8,96.8,0.527
40.82,32123.0,35130.0,0.6145,0.3217,135.8,96.8,0.527
40.84,32071.6,35078.9,0.3585,0.1959,135.8,96.8,0.527
40.86,31993.1,34953.6,-0.0324,-0.1128,135.8,96.8,0.527
40.88,31907.1,34899.1,-0.4599,-0.2472,135.8,96.8,0.527
40.9,31798.3,34808.0,-1.0016,-0.4717,135.8,96.8,0.527
40.92,32010.4,34649.7,0.0538,-0.8618,135.8,96.8,0.527
40.94,31832.3,34721.8,-0.8326,-0.6842,135.8,96.8,0.527
40.96,31868.5,34626.3,-0.6521,-0.9195,135.8,96.8,0.527
40.98,31797.0,34650.0,-1.008,-0.8611,135.8,96.8,0.527
41.0,31845.8,34445.5,-0.7653,-1.365,135.8,96.8,0.527
41.02,31731.8,34539.5,-1.3325,-1.1332,135.8,96.8,0.527
41.04,31861.2,34386.2,-0.6888,-1.511,135.8,96.8,0.527
41.06,31765.0,34620.5,-1.1674,-0.9338,135.8,96.8,0.527
41.08,31908.9,34760.6,-0.451,-0.5885,135.8,96.8,0.527
41.1,32060.7,35124.6,0.3042,0.3086,135.8,96.8,0.527
41.12,32158.8,35510.7,0.7924,1.2598,135.8,96.8,0.527
41.14,32327.2,35798.9,1.6308,1.9702,135.8,96.8,0.527
41.16,32348.4,35667.7,1.7362,1.6468,135.8,96.8,0.527
41.18,32308.5,35570.6,1.5377,1.4075,135.8,96.8,0.527
41.2,32156.8,35447.0,0.7826,1.1029,135.8,96.8,0.527
41.22,32052.0,35227.9,0.2609,0.563,135.8,96.8,0.527
41.24,32110.5,35167.3,0.5521,0.4138,135.8,96.8,0.527
41.26,31968.5,35112.0,-0.1547,0.2773,135.8,96.8,0.527
41.28,31908.8,35123.5,-0.4516,0.3057,135.8,96.8,0.527
41.3,31907.8,35027.7,-0.4567,0.0698,135.8,96.8,0.527
41.32,31911.2,34817.1,-0.4396,-0.4493,135.8,96.8,0.527
41.34,31810.9,34732.4,-0.9391,-0.658,135.8,96.8,0.527
41.36,31780.1,34725.1,-1.0921,-0.6761,135.8,96.8,0.527
41.38,31806.1,34647.7,-0.9627,-0.8667,135.8,96.8,0.527
41.4,31736.7,34690.0,-1.3081,-0.7626,135.8,96.8,0.527
41.42,31879.0,34688.4,-0.6002,-0.7663,135.8,96.8,0.527
41.44,31781.1,34582.9,-1.0872,-1.0263,135.8,96.8,0.527
41.46,31776.9,34539.8,-1.1082,-1.1325,135.8,96.8,0.527
41.48,31706.3,34574.0,-1.4595,-1.0483,135.8,96.8,0.527
41.5,31768.3,34475.0,-1.1509,-1.2923,135.8,96.8,0.527
41.52,31869.6,34761.3,-0.6466,-0.5869,135.8,96.8,0.527
41.54,32127.3,35124.2,0.6358,0.3076,135.8,96.8,0.527
41.56,32208.0,35445.7,1.0374,1.0997,135.8,96.8,0.527
41.58,32372.4,35556.0,1.8557,1.3715,135.8,96.8,0.527
41.6,32377.1,35751.1,1.879,1.8523,135.8,96.8,0.527
41.62,32316.3,35668.3,1.5766,1.6483,135.8,96.8,0.527
41.64,32178.5,35477.6,0.8904,1.1784,135.8,96.8,0.527
41.66,32145.6,35365.3,0.727,0.9016,135.8,96.8,0.527
41.68,32054.3,35129.2,0.2725,0.3198,135.8,96.8,0.527
41.7,32009.5,35186.2,0.0495,0.4602,135.8,96.8,0.527
41.72,31991.7,35084.4,-0.0389,0.2094,135.8,96.8,0.527
41.74,31947.9,34912.7,-0.2571,-0.2136,135.8,96.8,0.527
41.76,32010.1,34959.0,0.0524,-0.0996,135.8,96.8,0.527
41.78,31895.5,34761.1,-0.5179,-0.5873,135.8,96.8,0.527
41.8,31783.5,34689.8,-1.0753,-0.763,135.8,96.8,0.527
41.82,31783.3,34677.0,-1.0762,-0.7946,135.8,96.8,0.527
41.84,31849.7,34648.4,-0.746,-0.865,135.8,96.8,0.527
41.86,31841.6,34698.8,-0.7862,-0.7409,135.8,96.8,0.527
41.88,31891.3,34490.9,-0.539,-1.2531,135.8,96.8,0.527
41.9,31727.9,34419.5,-1.3521,-1.429,135.8,96.8,0.527
41.92,31744.8,34452.3,-1.268,-1.3482,135.8,96.8,0.527
41.94,31738.3,34509.6,-1.3001,-1.207,135.8,96.8,0.527
41.96,31939.0,34807.3,-0.3015,-0.4733,135.8,96.8,0.527
41.98,32004.4,35073.1,0.0243,0.1815,135.8,96.8,0.527
42.0,32232.2,35506.0,1.158,1.2483,135.8,96.8,0.527
42.02,32429.5,35712.9,2.1399,1.7581,135.8,96.8,0.527
42.04,32390.3,35690.2,1.9449,1.7021,135.8,96.8,0.527
42.06,32278.4,35678.4,1.3878,1.6732,135.8,96.8,0.527
42.08,32224.4,35429.2,1.1189,1.0591,135.8,96.8,0.527
42.1,32092.6,35322.1,0.4629,0.7951,135.8,96.8,0.527
42.12,32090.8,35297.2,0.4541,0.7338,135.8,96.8,0.527
42.14,32014.8,35076.9,0.0757,0.1909,135.8,96.8,0.527
42.16,31963.5,35116.5,-0.1796,0.2885,135.8,96.8,0.527
42.18,32003.0,34908.7,0.0171,-0.2236,135.8,96.8,0.527
42.2,31911.6,34950.9,-0.4378,-0.1195,135.8,96.8,0.527
42.22,31953.0,34794.8,-0.2316,-0.5042,135.8,96.8,0.527
42.24,31893.1,34644.7,-0.5301,-0.8742,135.8,96.8,0.527
42.26,31806.6,34726.8,-0.9601,-0.6718,135.8,96.8,0.527
42.28,31828.1,34723.3,-0.8532,-0.6804,135.8,96.8,0.527
42.3,31713.1,34701.7,-1.4256,-0.7337,135.8,96.8,0.527
42.32,31834.6,34577.5,-0.821,-1.0398,135.8,96.8,0.527
42.34,31676.1,34513.6,-1.6097,-1.1972,135.8,96.8,0.527
42.36,31872.2,34503.5,-0.6337,-1.2221,135.8,96.8,0.527
42.38,31664.5,34473.8,-1.6677,-1.2952,135.8,96.8,0.527
42.4,31826.0,34859.1,-0.8637,-0.3458,135.8,96.8,0.527
42.42,32085.9,35182.3,0.4297,0.4506,135.8,96.8,0.527
42.44,32298.6,35462.3,1.4881,1.1407,135.8,96.8,0.527
42.46,32275.3,35732.1,1.3722,1.8055,135.8,96.8,0.527
42.48,32393.0,35722.7,1.9581,1.7824,135.8,96.8,0.527
42.5,32270.6,35696.0,1.3488,1.7165,135.8,96.8,0.527
42.52,32314.1,35484.1,1.5655,1.1943,135.8,96.8,0.527
42.54,32199.7,35408.9,0.996,1.0091,135.8,96.8,0.527
42.56,32142.0,35177.6,0.709,0.439,135.8,96.8,0.527
42.58,32021.9,35173.9,0.1114,0.4299,135.8,96.8,0.527
42.6,32066.5,35155.2,0.3333,0.3838,135.8,96.8,0.527
42.62,32029.3,35026.1,0.1478,0.0658,135.8,96.8,0.527
42.64,31952.5,34849.2,-0.2342,-0.3701,135.8,96.8,0.527
42.66,31905.2,34760.1,-0.4698,-0.5897,135.8,96.8,0.527
42.68,31878.6,34758.6,-0.6021,-0.5935,135.8,96.8,0.527
42.7,31905.5,34672.8,-0.468,-0.8047,135.8,96.8,0.527
42.72,31888.6,34610.9,-0.5524,-0.9575,135.8,96.8,0.527
42.74,31778.9,34552.1,-1.0981,-1.1023,135.8,96.8,0.527
42.76,31755.6,34568.4,-1.2144,-1.0622,135.8,96.8,0.527
42.78,31802.3,34499.4,-0.9819,-1.2323,135.8,96.8,0.527
42.8,31786.0,34381.8,-1.063,-1.522,135.8,96.8,0.527
42.82,31673.9,34408.7,-1.6206,-1.4557,135.8,96.8,0.527
42.84,31891.1,34711.0,-0.5399,-0.7108,135.8,96.8,0.527
42.86,32044.2,35034.5,0.2222,0.0864,135.8,96.8,0.527
42.88,32149.4,35434.9,0.7459,1.0731,135.8,96.8,0.527
42.9,32247.3,35706.8,1.2332,1.7431,135.8,96.8,0.527
42.92,32385.1,35772.7,1.9187,1.9056,135.8,96.8,0.527
42.94,32316.0,35725.4,1.5751,1.789,135.8,96.8,0.527
42.96,32264.7,35545.1,1.3196,1.3446,135.8,96.8,0.527
42.98,32216.5,35341.8,1.0796,0.8436,135.8,96.8,0.527
43.0,32107.3,35227.1,0.5362,0.5611,135.8,96.8,0.527
43.02,32103.0,35193.4,0.515,0.4781,135.8,96.8,0.527
43.04,32111.7,35141.5,0.5579,0.35,135.8,96.8,0.527
43.06,32026.5,35007.6,0.1342,0.02,135.8,96.8,0.527
43.08,31997.4,34941.8,-0.0106,-0.142,135.8,96.8,0.527
43.1,31910.1,34816.2,-0.4453,-0.4514,135.8,96.8,0.527
43.12,31841.0,34757.5,-0.7892,-0.596,135.8,96.8,0.527
43.14,31766.5,34589.0,-1.16,-1.0113,135.8,96.8,0.527
43.16,31861.5,34690.2,-0.687,-0.762,135.8,96.8,0.527
43.18,31788.7,34756.8,-1.0492,-0.5978,135.8,96.8,0.527
43.2,31820.6,34581.3,-0.8908,-1.0304,135.8,96.8,0.527
43.22,31759.7,34463.5,-1.1936,-1.3207,135.8,96.8,0.527
43.24,31825.1,34404.8,-0.8681,-1.4652,135.8,96.8,0.527
43.26,31755.4,34567.7,-1.2153,-1.0639,135.8,96.8,0.527
43.28,31869.1,34633.0,-0.6492,-0.9029,135.8,96.8,0.527
43.3,32024.5,35138.2,0.1242,0.342,135.8,96.8,0.527
43.32,32204.0,35384.5,1.0176,0.949,135.8,96.8,0.527
43.34,32299.1,35698.3,1.4908,1.7221,135.8,96.8,0.527
43.36,32405.3,35712.5,2.0194,1.7571,135.8,96.8,0.527
43.38,32456.2,35744.1,2.2725,1.8349,135.8,96.8,0.527
43.4,32262.9,35574.2,1.3104,1.4163,135.8,96.8,0.527
43.42,32097.5,35400.5,0.4875,0.9882,135.8,96.8,0.527
43.44,32143.6,35134.9,0.7167,0.3338,135.8,96.8,0.527
43.46,32130.5,35082.0,0.6519,0.2036,135.8,96.8,0.527
43.48,31961.5,35038.1,-0.1893,0.0953,135.8,96.8,0.527
43.5,32005.0,34997.1,0.0273,-0.0058,135.8,96.8,0.527
43.52,31929.1,34943.8,-0.3508,-0.137,135.8,96.8,0.527
43.54,31786.6,34818.5,-1.0599,-0.4457,135.8,96.8,0.527
43.56,31880.1,34699.4,-0.5943,-0.7394,135.8,96.8,0.527
43.58,31816.0,34759.9,-0.9136,-0.5902,135.8,96.8,0.527
43.6,31826.3,34598.2,-0.8625,-0.9887,135.8,96.8,0.527
43.62,31798.2,34708.4,-1.002,-0.7172,135.8,96.8,0.527
43.64,31847.1,34590.4,-0.759,-1.0079,135.8,96.8,0.527
43.66,31855.5,34454.0,-0.7168,-1.3439,135.8,96.8,0.527
43.68,31755.4,34427.2,-1.2151,-1.4102,135.8,96.8,0.527
43.7,31783.1,34368.1,-1.0773,-1.5556,135.8,96.8,0.527
43.72,31775.7,34637.5,-1.1141,-0.8919,135.8,96.8,0.527
43.74,32012.9,34943.7,0.0662,-0.1374,135.8,96.8,0.527
43.76,32175.5,35278.0,0.8758,0.6866,135.8,96.8,0.527
43.78,32499.5,35597.7,2.4883,1.4742,135.8,96.8,0.527
43.8,32251.9,35771.4,1.2557,1.9024,135.8,96.8,0.527
43.82,32437.8,35713.0,2.1811,1.7585,135.8,96.8,0.527
43.84,32206.5,35560.5,1.0299,1.3825,135.8,96.8,0.527
43.86,32173.4,35370.6,0.8652,0.9147,135.8,96.8,0.527
43.88,32036.5,35264.1,0.1838,0.6523,135.8,96.8,0.527
43.9,32110.3,35192.3,0.551,0.4752,135.8,96.8,0.527
43.92,32091.4,35050.7,0.4571,0.1265,135.8,96.8,0.527
43.94,32036.3,35047.0,0.1828,0.1172,135.8,96.8,0.527
43.96,31951.6,34935.5,-0.2389,-0.1574,135.8,96.8,0.527
43.98,31949.2,34813.2,-0.2505,-0.4589,135.8,96.8,0.527
44.0,31869.4,34764.7,-0.6478,-0.5785,135.8,96.8,0.527
44.02,31880.1,34649.6,-0.5944,-0.862,135.8,96.8,0.527
44.04,31876.4,34703.9,-0.613,-0.7282,135.8,96.8,0.527
44.06,31788.6,34703.2,-1.0499,-0.7301,135.8,96.8,0.527
44.08,31853.5,34619.5,-0.7272,-0.9361,135.8,96.8,0.527
44.1,31674.1,34452.4,-1.6198,-1.348,135.8,96.8,0.527
44.12,31753.3,34515.5,-1.2258,-1.1925,135.8,96.8,0.527
44.14,31694.2,34589.9,-1.5197,-1.0092,135.8,96.8,0.527
44.16,31764.2,34757.5,-1.1714,-0.5961,135.8,96.8,0.527
44.18,31896.0,34973.2,-0.5156,-0.0645,135.8,96.8,0.527
44.2,32139.9,35231.4,0.6985,0.5717,135.8,96.8,0.527
44.22,32290.2,35531.9,1.4465,1.3122,135.8,96.8,0.527
44.24,32346.9,35791.5,1.7289,1.952,135.8,96.8,0.527
44.26,32323.0,35710.1,1.6099,1.7513,135.8,96.8,0.527
44.28,32333.2,35541.0,1.6603,1.3346,135.8,96.8,0.527
44.3,32188.5,35453.5,0.9405,1.119,135.8,96.8,0.527
44.32,32140.2,35342.9,0.6999,0.8463,135.8,96.8,0.527
44.34,31950.1,35090.9,-0.2463,0.2255,135.8,96.8,0.527
44.36,32044.8,34967.2,0.225,-0.0794,135.8,96.8,0.527
44.38,31974.4,35066.8,-0.125,0.1661,135.8,96.8,0.527
44.4,31984.5,35028.3,-0.0751,0.0712,135.8,96.8,0.527
44.42,31885.2,34882.6,-0.5694,-0.2878,135.8,96.8,0.527
44.44,31850.3,34853.0,-0.7428,-0.3609,135.8,96.8,0.527
44.46,31874.4,34665.8,-0.6228,-0.8222,135.8,96.8,0.527
44.48,31906.5,34650.6,-0.4633,-0.8595,135.8,96.8,0.527
44.5,31814.1,34587.8,-0.9229,-1.0144,135.8,96.8,0.527
44.52,31868.7,34725.2,-0.6514,-0.6757,135.8,96.8,0.527
44.54,31733.7,34518.5,-1.3233,-1.185,135.8,96.8,0.527
44.56,31744.0,34494.6,-1.2718,-1.2441,135.8,96.8,0.527
44.58,31811.6,34564.6,-0.9355,-1.0716,135.8,96.8,0.527
44.6,31837.4,34686.2,-0.807,-0.7718,135.8,96.8,0.527
44.62,32013.0,34864.7,0.0668,-0.332,135.8,96.8,0.527
44.64,32246.9,35285.3,1.2312,0.7044,135.8,96.8,0.527
44.66,32279.8,35593.5,1.3946,1.464,135.8,96.8,0.527
44.68,32279.9,35772.0,1.395,1.9037,135.8,96.8,0.527
44.7,32245.2,35798.1,1.2224,1.9682,135.8,96.8,0.527
44.72,32282.1,35538.9,1.4063,1.3293,135.8,96.8,0.527
44.74,32175.2,35385.8,0.8739,0.952,135.8,96.8,0.527
44.76,32179.2,35206.8,0.8942,0.5109,135.8,96.8,0.527
44.78,32076.7,35108.8,0.3842,0.2696,135.8,96.8,0.527
44.8,32091.3,35124.9,0.4566,0.3093,135.8,96.8,0.527
44.82,32025.7,35119.4,0.1302,0.2957,135.8,96.8,0.527
44.84,32084.6,34964.3,0.4232,-0.0864,135.8,96.8,0.527
