timestamp,raw_red,raw_ir,filtered_red,filtered_ir,heart_rate,spo2,ac_dc_ratio
0.0,32062.1,35036.4,0.2422,0.089,146.5,96.4,0.543
0.02,32251.8,35544.9,0.9874,1.3392,146.5,96.4,0.543
0.04,32278.8,35775.6,1.0936,1.9063,146.5,96.4,0.543
0.06,32342.1,35676.4,1.3423,1.6625,146.5,96.4,0.543
0.08,32264.4,35572.4,1.0367,1.4066,146.5,96.4,0.543
0.1,32159.7,35433.9,0.6255,1.0664,146.5,96.4,0.543
0.12,32089.1,35231.4,0.3481,0.5685,146.5,96.4,0.543
0.14,31986.2,35227.0,-0.056,0.5577,146.5,96.4,0.543
0.16,32099.0,35109.7,0.387,0.2693,146.5,96.4,0.543
0.18,32071.8,35044.6,0.2802,0.1093,146.5,96.4,0.543
0.2,32016.9,34844.4,0.0647,-0.3829,146.5,96.4,0.543
0.22,31902.7,34807.6,-0.3838,-0.4734,146.5,96.4,0.543
0.24,31886.7,34716.7,-0.4467,-0.6968,146.5,96.4,0.543
0.26,31832.6,34656.6,-0.6594,-0.8446,146.5,96.4,0.543
0.28,31852.8,34724.1,-0.58,-0.6787,146.5,96.4,0.543
0.3,31817.6,34574.1,-0.7183,-1.0476,146.5,96.4,0.543
0.32,31774.7,34550.9,-0.887,-1.1047,146.5,96.4,0.543
0.34,31766.6,34414.7,-0.9186,-1.4393,146.5,96.4,0.543
0.36,31722.0,34510.5,-1.0939,-1.204,146.5,96.4,0.543
0.38,31902.0,34636.6,-0.3866,-0.8938,146.5,96.4,0.543
0.4,31990.2,35051.0,-0.0404,0.1248,146.5,96.4,0.543
0.42,32215.3,35324.0,0.8439,0.7962,146.5,96.4,0.543
0.44,32289.4,35584.1,1.1353,1.4355,146.5,96.4,0.543
0.46,32328.6,35807.5,1.2891,1.9846,146.5,96.4,0.543
0.48,32363.5,35647.7,1.4263,1.5918,146.5,96.4,0.543
0.5,32215.5,35530.4,0.8447,1.3035,146.5,96.4,0.543
0.52,32191.6,35295.0,0.7508,0.7247,146.5,96.4,0.543
0.54,32070.5,35220.7,0.2754,0.5421,146.5,96.4,0.543
0.56,32049.1,35085.2,0.1911,0.2089,146.5,96.4,0.543
0.58,32052.3,35022.7,0.2035,0.0554,146.5,96.4,0.543
0.6,32013.3,34989.4,0.0506,-0.0265,146.5,96.4,0.543
0.62,32045.5,34875.1,0.1771,-0.3074,146.5,96.4,0.543
0.64,31787.0,34702.3,-0.8384,-0.7322,146.5,96.4,0.543
0.66,31829.9,34764.8,-0.67,-0.5788,146.5,96.4,0.543
0.68,31829.7,34652.4,-0.6706,-0.8549,146.5,96.4,0.543
0.7,31888.7,34732.5,-0.4389,-0.6581,146.5,96.4,0.543
0.72,31760.6,34639.5,-0.9421,-0.8867,146.5,96.4,0.543
0.74,31780.1,34515.0,-0.8657,-1.1928,146.5,96.4,0.543
0.76,31777.0,34547.8,-0.8778,-1.1121,146.5,96.4,0.543
0.78,31730.1,34591.4,-1.0622,-1.0049,146.5,96.4,0.543
0.8,31880.3,34795.9,-0.472,-0.5022,146.5,96.4,0.543
0.82,32030.4,35276.9,0.1178,0.6803,146.5,96.4,0.543
0.84,32262.0,35553.5,1.0276,1.3603,146.5,96.4,0.543
0.86,32329.6,35693.8,1.2929,1.7052,146.5,96.4,0.543
0.88,32383.9,35673.9,1.5064,1.6562,146.5,96.4,0.543
0.9,32262.4,35597.3,1.0289,1.468,146.5,96.4,0.543
0.92,32195.8,35352.3,0.7675,0.8657,146.5,96.4,0.543
0.94,32123.7,35181.0,0.4843,0.4445,146.5,96.4,0.543
0.96,32079.8,35197.9,0.3117,0.4861,146.5,96.4,0.543
0.98,31907.6,35126.6,-0.3646,0.3108,146.5,96.4,0.543
1.0,31976.3,35018.6,-0.0947,0.0453,146.5,96.4,0.543
1.02,31933.3,34895.6,-0.2636,-0.2571,146.5,96.4,0.543
1.04,31866.7,34742.3,-0.5255,-0.6341,146.5,96.4,0.543
1.06,31845.6,34721.1,-0.6085,-0.6861,146.5,96.4,0.543
1.08,31794.8,34675.3,-0.8078,-0.7987,146.5,96.4,0.543
1.1,31884.8,34684.0,-0.4541,-0.7773,146.5,96.4,0.543
1.12,31755.0,34618.1,-0.9642,-0.9394,146.5,96.4,0.543
1.14,31786.6,34572.5,-0.84,-1.0515,146.5,96.4,0.543
1.16,31664.4,34407.8,-1.3202,-1.4564,146.5,96.4,0.543
1.18,31774.8,34390.0,-0.8866,-1.5001,146.5,96.4,0.543
1.2,31805.5,34563.0,-0.7657,-1.0747,146.5,96.4,0.543
1.22,32053.9,34956.1,0.2099,-0.1083,146.5,96.4,0.543
1.24,32151.3,35348.8,0.5925,0.857,146.5,96.4,0.543
1.26,32329.7,35645.7,1.2933,1.5869,146.5,96.4,0.543
1.28,32424.4,35699.4,1.6653,1.719,146.5,96.4,0.543
1.3,32346.2,35598.8,1.3582,1.4717,146.5,96.4,0.543
1.32,32248.1,35384.5,0.9729,0.9448,146.5,96.4,0.543
1.34,32090.4,35295.7,0.3533,0.7265,146.5,96.4,0.543
1.36,32072.0,35246.5,0.2812,0.6056,146.5,96.4,0.543
1.38,32034.7,35098.3,0.1346,0.2413,146.5,96.4,0.543
1.4,32012.9,34977.2,0.0491,-0.0564,146.5,96.4,0.543
1.42,31900.2,35120.4,-0.3939,0.2956,146.5,96.4,0.543
1.44,31842.1,34851.8,-0.6221,-0.3647,146.5,96.4,0.543
1.46,31754.5,34703.8,-0.9663,-0.7287,146.5,96.4,0.543
1.48,31864.7,34709.8,-0.5333,-0.7139,146.5,96.4,0.543
1.5,31756.1,34744.3,-0.9598,-0.629,146.5,96.4,0.543
1.52,31874.6,34594.4,-0.4944,-0.9975,146.5,96.4,0.543
1.54,31835.3,34524.9,-0.6489,-1.1684,146.5,96.4,0.543
1.56,31713.2,34473.4,-1.1286,-1.295,146.5,96.4,0.543
1.58,31765.4,34348.3,-0.9232,-1.6027,146.5,96.4,0.543
1.6,31761.6,34569.9,-0.9384,-1.0578,146.5,96.4,0.543
1.62,31928.4,34755.0,-0.283,-0.6028,146.5,96.4,0.543
1.64,32020.7,35258.2,0.0795,0.6344,146.5,96.4,0.543
1.66,32217.3,35585.4,0.8517,1.4387,146.5,96.4,0.543
1.68,32427.6,35796.6,1.6779,1.9579,146.5,96.4,0.543
1.7,32407.3,35701.5,1.5984,1.724,146.5,96.4,0.543
1.72,32281.3,35559.7,1.1032,1.3756,146.5,96.4,0.543
1.74,32149.1,35378.2,0.5838,0.9292,146.5,96.4,0.543
1.76,32098.6,35272.9,0.3858,0.6705,146.5,96.4,0.543
1.78,32051.4,35170.4,0.2001,0.4185,146.5,96.4,0.543
1.8,31944.6,35092.4,-0.2192,0.2268,146.5,96.4,0.543
1.82,31918.6,35004.3,-0.3216,0.0101,146.5,96.4,0.543
1.84,31928.2,34901.0,-0.284,-0.2437,146.5,96.4,0.543
1.86,31831.2,34714.5,-0.6649,-0.7024,146.5,96.4,0.543
1.88,31780.2,34760.3,-0.8654,-0.5897,146.5,96.4,0.543
1.9,31829.9,34661.8,-0.67,-0.8319,146.5,96.4,0.543
1.92,31802.2,34639.7,-0.7787,-0.8863,146.5,96.4,0.543
1.94,31846.0,34669.8,-0.6066,-0.8123,146.5,96.4,0.543
1.96,31703.1,34566.8,-1.1682,-1.0654,146.5,96.4,0.543
1.98,31738.2,34386.9,-1.0301,-1.5078,146.5,96.4,0.543
2.0,31785.0,34498.6,-0.8463,-1.2331,146.5,96.4,0.543
2.02,31778.8,34600.0,-0.8707,-0.984,146.5,96.4,0.543
2.04,32071.5,34981.5,0.279,-0.046,146.5,96.4,0.543
2.06,32263.0,35337.7,1.0314,0.8299,146.5,96.4,0.543
2.08,32346.2,35738.6,1.3583,1.8155,146.5,96.4,0.543
2.1,32287.8,35712.4,1.129,1.7508,146.5,96.4,0.543
2.12,32373.8,35627.3,1.4666,1.5416,146.5,96.4,0.543
2.14,32302.3,35526.2,1.1858,1.2932,146.5,96.4,0.543
2.16,32134.5,35206.3,0.5266,0.5068,146.5,96.4,0.543
2.18,32002.0,35108.1,0.0063,0.2652,146.5,96.4,0.543
2.2,31962.4,35150.2,-0.1494,0.3688,146.5,96.4,0.543
2.22,31980.5,35073.6,-0.0783,0.1805,146.5,96.4,0.543
2.24,31988.7,34931.4,-0.0462,-0.1692,146.5,96.4,0.543
2.26,31887.5,34858.0,-0.4437,-0.3495,146.5,96.4,0.543
2.28,31855.8,34701.1,-0.5682,-0.7352,146.5,96.4,0.543
2.3,31838.9,34747.2,-0.6344,-0.622,146.5,96.4,0.543
2.32,31825.5,34705.6,-0.6874,-0.7243,146.5,96.4,0.543
2.34,31889.4,34665.1,-0.4364,-0.8238,146.5,96.4,0.543
2.36,31864.5,34523.1,-0.5342,-1.1728,146.5,96.4,0.543
2.38,31707.0,34495.0,-1.153,-1.242,146.5,96.4,0.543
2.4,31733.5,34436.1,-1.0488,-1.3869,146.5,96.4,0.543
2.42,31821.1,34570.5,-0.7044,-1.0564,146.5,96.4,0.543
2.44,31969.2,34790.7,-0.1227,-0.515,146.5,96.4,0.543
2.46,32125.8,35176.9,0.4926,0.4345,146.5,96.4,0.543
2.48,32271.1,35466.4,1.0634,1.1462,146.5,96.4,0.543
2.5,32438.0,35742.7,1.719,1.8253,146.5,96.4,0.543
2.52,32300.4,35740.5,1.1782,1.8199,146.5,96.4,0.543
2.54,32308.4,35580.3,1.2099,1.4261,146.5,96.4,0.543
2.56,32063.4,35421.6,0.2474,1.036,146.5,96.4,0.543
2.58,32116.0,35183.0,0.4538,0.4494,146.5,96.4,0.543
2.6,32130.9,35179.2,0.5124,0.4401,146.5,96.4,0.543
2.62,32053.8,35159.6,0.2097,0.392,146.5,96.4,0.543
2.64,31933.8,35083.2,-0.262,0.2041,146.5,96.4,0.543
2.66,31946.1,35031.9,-0.2135,0.078,146.5,96.4,0.543
2.68,31929.1,34814.5,-0.2805,-0.4566,146.5,96.4,0.543
2.7,31843.4,34692.8,-0.6171,-0.7556,146.5,96.4,0.543
2.72,31849.5,34595.2,-0.5929,-0.9955,146.5,96.4,0.543
2.74,31832.9,34656.2,-0.6583,-0.8458,146.5,96.4,0.543
2.76,31822.4,34558.2,-0.6995,-1.0866,146.5,96.4,0.543
2.78,31815.0,34480.8,-0.7287,-1.2769,146.5,96.4,0.543
2.8,31731.9,34494.9,-1.0548,-1.2423,146.5,96.4,0.543
2.82,31785.1,34490.4,-0.8459,-1.2532,146.5,96.4,0.543
2.84,31859.2,34678.0,-0.5548,-0.792,146.5,96.4,0.543
2.86,32081.6,35012.9,0.3187,0.0312,146.5,96.4,0.543
2.88,32212.4,35368.2,0.8327,0.9047,146.5,96.4,0.543
2.9,32345.7,35705.2,1.3565,1.7333,146.5,96.4,0.543
2.92,32315.1,35688.4,1.2361,1.692,146.5,96.4,0.543
2.94,32381.9,35656.5,1.4985,1.6136,146.5,96.4,0.543
2.96,32184.8,35406.6,0.7243,0.999,146.5,96.4,0.543
2.98,32098.9,35314.7,0.3866,0.7731,146.5,96.4,0.543
3.0,32106.4,35254.9,0.4163,0.6262,146.5,96.4,0.543
3.02,32100.7,35013.5,0.3938,0.0327,146.5,96.4,0.543
3.04,31977.0,35077.0,-0.0923,0.1889,146.5,96.4,0.543
3.06,31841.1,34925.3,-0.626,-0.184,146.5,96.4,0.543
3.08,31895.2,34782.4,-0.4136,-0.5354,146.5,96.4,0.543
3.1,31863.1,34704.3,-0.5397,-0.7274,146.5,96.4,0.543
3.12,31846.7,34748.1,-0.604,-0.6196,146.5,96.4,0.543
3.14,31903.5,34670.9,-0.3809,-0.8096,146.5,96.4,0.543
3.16,31878.8,34662.8,-0.4778,-0.8295,146.5,96.4,0.543
3.18,31855.8,34609.2,-0.5682,-0.9611,146.5,96.4,0.543
3.2,31756.0,34482.3,-0.9604,-1.2733,146.5,96.4,0.543
3.22,31715.9,34340.6,-1.118,-1.6216,146.5,96.4,0.543
3.24,31798.5,34612.4,-0.7932,-0.9533,146.5,96.4,0.543
3.26,31921.5,34873.7,-0.3103,-0.311,146.5,96.4,0.543
3.28,32236.9,35246.0,0.9287,0.6042,146.5,96.4,0.543
3.3,32334.8,35592.8,1.3134,1.4568,146.5,96.4,0.543
3.32,32389.6,35695.1,1.5286,1.7085,146.5,96.4,0.543
3.34,32376.3,35761.0,1.4764,1.8705,146.5,96.4,0.543
3.36,32331.9,35483.8,1.3022,1.1888,146.5,96.4,0.543
3.38,32196.8,35341.0,0.7715,0.8379,146.5,96.4,0.543
3.4,32108.7,35203.1,0.4252,0.4988,146.5,96.4,0.543
3.42,32094.8,35047.4,0.3706,0.1161,146.5,96.4,0.543
3.44,31995.5,35139.3,-0.0196,0.3421,146.5,96.4,0.543
3.46,32051.3,35003.7,0.1997,0.0086,146.5,96.4,0.543
3.48,31986.4,34806.6,-0.0552,-0.476,146.5,96.4,0.543
3.5,31913.1,34809.0,-0.343,-0.47,146.5,96.4,0.543
3.52,31917.2,34681.8,-0.3272,-0.7827,146.5,96.4,0.543
3.54,31796.4,34708.1,-0.8014,-0.7181,146.5,96.4,0.543
3.56,31834.8,34746.2,-0.6507,-0.6245,146.5,96.4,0.543
3.58,31797.0,34499.7,-0.7994,-1.2304,146.5,96.4,0.543
3.6,31753.2,34518.0,-0.9712,-1.1854,146.5,96.4,0.543
3.62,31785.1,34412.2,-0.8461,-1.4455,146.5,96.4,0.543
3.64,31763.7,34386.7,-0.93,-1.5082,146.5,96.4,0.543
3.66,31798.1,34613.9,-0.795,-0.9497,146.5,96.4,0.543
3.68,32062.4,35097.5,0.2432,0.2391,146.5,96.4,0.543
3.7,32237.1,35292.6,0.9296,0.7189,146.5,96.4,0.543
3.72,32304.4,35610.7,1.194,1.5008,146.5,96.4,0.543
3.74,32433.8,35757.2,1.7022,1.861,146.5,96.4,0.543
3.76,32276.7,35665.9,1.0853,1.6365,146.5,96.4,0.543
3.78,32319.4,35391.6,1.253,0.9622,146.5,96.4,0.543
3.8,32238.5,35247.5,0.9352,0.6081,146.5,96.4,0.543
3.82,32100.0,35048.2,0.3913,0.1181,146.5,96.4,0.543
3.84,32012.3,35061.2,0.0466,0.1501,146.5,96.4,0.543
3.86,31981.5,35045.6,-0.0742,0.1117,146.5,96.4,0.543
3.88,31995.3,34917.2,-0.0202,-0.204,146.5,96.4,0.543
3.9,31945.1,34823.7,-0.2175,-0.434,146.5,96.4,0.543
3.92,31796.1,34776.2,-0.8026,-0.5506,146.5,96.4,0.543
3.94,31780.4,34675.8,-0.8644,-0.7975,146.5,96.4,0.543
3.96,31816.6,34576.6,-0.7222,-1.0413,146.5,96.4,0.543
3.98,31849.4,34747.7,-0.5934,-0.6208,146.5,96.4,0.543
4.0,31782.1,34542.2,-0.8578,-1.126,146.5,96.4,0.543
4.02,31774.2,34465.9,-0.8889,-1.3135,146.5,96.4,0.543
4.04,31782.9,34432.8,-0.8546,-1.3949,146.5,96.4,0.543
4.06,31795.0,34534.3,-0.8071,-1.1454,146.5,96.4,0.543
4.08,31876.7,34804.1,-0.4862,-0.4821,146.5,96.4,0.543
4.1,32168.5,35229.1,0.66,0.5627,146.5,96.4,0.543
4.12,32271.0,35608.5,1.0628,1.4955,146.5,96.4,0.543
4.14,32354.4,35709.9,1.3905,1.7447,146.5,96.4,0.543
4.16,32388.2,35758.4,1.5231,1.8641,146.5,96.4,0.543
4.18,32241.8,35475.0,0.9483,1.1674,146.5,96.4,0.543
4.2,32121.0,35379.6,0.4734,0.9327,146.5,96.4,0.543
4.22,32087.1,35113.8,0.3404,0.2794,146.5,96.4,0.543
4.24,32058.3,35113.9,0.2272,0.2796,146.5,96.4,0.543
4.26,32033.0,35142.2,0.1277,0.3492,146.5,96.4,0.543
4.28,32052.9,34994.6,0.2061,-0.0136,146.5,96.4,0.543
4.3,32021.3,34847.2,0.0818,-0.3761,146.5,96.4,0.543
4.32,31870.5,34809.8,-0.5104,-0.4681,146.5,96.4,0.543
4.34,31759.6,34692.2,-0.946,-0.757,146.5,96.4,0.543
4.36,31779.1,34619.0,-0.8697,-0.9371,146.5,96.4,0.543
4.38,31809.9,34659.1,-0.7484,-0.8386,146.5,96.4,0.543
4.4,31790.0,34573.8,-0.8266,-1.0483,146.5,96.4,0.543
4.42,31763.6,34576.0,-0.9304,-1.0429,146.5,96.4,0.543
4.44,31690.9,34477.9,-1.216,-1.2841,146.5,96.4,0.543
4.46,31646.6,34470.8,-1.3901,-1.3015,146.5,96.4,0.543
4.48,31817.5,34669.1,-0.7187,-0.8139,146.5,96.4,0.543
4.5,32017.4,35034.5,0.0664,0.0844,146.5,96.4,0.543
4.52,32277.3,35342.3,1.0876,0.8411,146.5,96.4,0.543
4.54,32256.0,35738.2,1.0037,1.8144,146.5,96.4,0.543
4.56,32385.1,35709.1,1.511,1.7428,146.5,96.4,0.543
4.58,32364.4,35744.4,1.4298,1.8295,146.5,96.4,0.543
4.6,32194.8,35521.1,0.7633,1.2806,146.5,96.4,0.543
4.62,32151.0,35222.8,0.5916,0.5474,146.5,96.4,0.543
4.64,32047.4,35198.2,0.1845,0.4869,146.5,96.4,0.543
4.66,32008.4,35020.2,0.0311,0.0492,146.5,96.4,0.543
4.68,32101.3,35063.4,0.396,0.1555,146.5,96.4,0.543
4.7,32022.0,34934.4,0.0848,-0.1618,146.5,96.4,0.543
4.72,31881.3,34788.4,-0.468,-0.5208,146.5,96.4,0.543
4.74,31816.5,34815.8,-0.7225,-0.4532,146.5,96.4,0.543
4.76,31925.0,34695.1,-0.2963,-0.75,146.5,96.4,0.543
4.78,31801.6,34670.7,-0.7812,-0.81,146.5,96.4,0.543
4.8,31864.1,34641.2,-0.5355,-0.8826,146.5,96.4,0.543
4.82,31796.2,34555.4,-0.8024,-1.0934,146.5,96.4,0.543
4.84,31753.7,34523.7,-0.9692,-1.1714,146.5,96.4,0.543
4.86,31787.3,34519.6,-0.8373,-1.1814,146.5,96.4,0.543
4.88,31756.4,34646.0,-0.9586,-0.8707,146.5,96.4,0.543
4.9,31977.1,34901.8,-0.0916,-0.2419,146.5,96.4,0.543
4.92,32111.5,35195.7,0.4361,0.4807,146.5,96.4,0.543
4.94,32263.9,35578.9,1.0349,1.4226,146.5,96.4,0.543
4.96,32352.2,35811.9,1.3819,1.9954,146.5,96.4,0.543
4.98,32342.9,35737.9,1.3453,1.8137,146.5,96.4,0.543
5.0,32194.0,35547.2,0.7604,1.3448,146.5,96.4,0.543
5.02,32217.6,35329.5,0.8532,0.8095,146.5,96.4,0.543
5.04,32046.6,35213.5,0.1812,0.5245,146.5,96.4,0.543
5.06,32107.2,35163.8,0.4192,0.4022,146.5,96.4,0.543
5.08,32007.6,35025.3,0.0281,0.0617,146.5,96.4,0.543
5.1,31916.4,34996.7,-0.3302,-0.0086,146.5,96.4,0.543
5.12,31919.5,35007.5,-0.3179,0.0179,146.5,96.4,0.543
5.14,31955.1,34754.3,-0.1782,-0.6044,146.5,96.4,0.543
5.16,31817.7,34631.9,-0.7179,-0.9055,146.5,96.4,0.543
5.18,31912.3,34691.7,-0.3461,-0.7584,146.5,96.4,0.543
5.2,31892.2,34729.8,-0.4254,-0.6647,146.5,96.4,0.543
5.22,31779.6,34649.4,-0.8676,-0.8624,146.5,96.4,0.543
5.24,31773.6,34571.4,-0.891,-1.0541,146.5,96.4,0.543
5.26,31754.3,34420.5,-0.9671,-1.4252,146.5,96.4,0.543
5.28,31745.5,34497.5,-1.0017,-1.2358,146.5,96.4,0.543
5.3,31839.5,34716.6,-0.6323,-0.6971,146.5,96.4,0.543
5.32,31953.8,35056.5,-0.1832,0.1383,146.5,96.4,0.543
5.34,32242.2,35482.5,0.9496,1.1856,146.5,96.4,0.543
5.36,32331.7,35736.4,1.3015,1.8098,146.5,96.4,0.543
5.38,32360.9,35700.0,1.4161,1.7205,146.5,96.4,0.543
5.4,32301.4,35637.8,1.1821,1.5676,146.5,96.4,0.543
5.42,32229.4,35464.0,0.8994,1.1403,146.5,96.4,0.543
5.44,32120.2,35201.8,0.4706,0.4955,146.5,96.4,0.543
5.46,32066.2,35084.0,0.2584,0.206,146.5,96.4,0.543
5.48,32104.2,35103.1,0.4077,0.253,146.5,96.4,0.543
5.5,32016.7,35008.8,0.0639,0.0212,146.5,96.4,0.543
5.52,31972.8,34929.1,-0.1085,-0.1747,146.5,96.4,0.543
5.54,31881.3,34855.1,-0.468,-0.3566,146.5,96.4,0.543
5.56,31777.9,34696.3,-0.8741,-0.7471,146.5,96.4,0.543
5.58,31874.0,34718.4,-0.4965,-0.6926,146.5,96.4,0.543
5.6,31815.4,34698.3,-0.7268,-0.7423,146.5,96.4,0.543
5.62,31868.8,34653.9,-0.5174,-0.8514,146.5,96.4,0.543
5.64,31800.5,34592.2,-0.7856,-1.003,146.5,96.4,0.543
5.66,31711.5,34496.3,-1.135,-1.2388,146.5,96.4,0.543
5.68,31697.8,34474.5,-1.1889,-1.2923,146.5,96.4,0.543
5.7,31903.4,34581.7,-0.3812,-1.0288,146.5,96.4,0.543
5.72,31998.2,34875.2,-0.0088,-0.3072,146.5,96.4,0.543
5.74,32163.7,35223.5,0.6415,0.5489,146.5,96.4,0.543
5.76,32244.8,35655.1,0.9601,1.6101,146.5,96.4,0.543
5.78,32316.8,35702.9,1.2427,1.7275,146.5,96.4,0.543
5.8,32409.6,35775.6,1.6072,1.9064,146.5,96.4,0.543
5.82,32289.1,35498.8,1.1338,1.2258,146.5,96.4,0.543
5.84,32134.6,35390.5,0.5271,0.9594,146.5,96.4,0.543
5.86,32097.1,35148.2,0.3795,0.3638,146.5,96.4,0.543
5.88,32057.7,35136.7,0.225,0.3356,146.5,96.4,0.543
5.9,32039.7,35130.5,0.1543,0.3203,146.5,96.4,0.543
5.92,31992.4,35009.4,-0.0318,0.0226,146.5,96.4,0.543
5.94,31906.1,34848.4,-0.3708,-0.3732,146.5,96.4,0.543
5.96,31886.4,34753.8,-0.448,-0.6057,146.5,96.4,0.543
5.98,31860.2,34673.5,-0.5511,-0.8032,146.5,96.4,0.543
6.0,31747.0,34677.0,-0.9956,-0.7945,146.5,96.4,0.543
6.02,31936.6,34662.9,-0.2507,-0.8291,146.5,96.4,0.543
6.04,31833.3,34682.0,-0.6568,-0.7822,146.5,96.4,0.543
6.06,31728.4,34545.9,-1.0689,-1.1167,146.5,96.4,0.543
6.08,31700.9,34394.2,-1.1767,-1.4898,146.5,96.4,0.543
6.1,31860.4,34521.9,-0.55,-1.1757,146.5,96.4,0.543
6.12,31919.1,34770.3,-0.3196,-0.5652,146.5,96.4,0.543
6.14,31968.1,35063.2,-0.127,0.1549,146.5,96.4,0.543
6.16,32186.7,35445.4,0.7315,1.0946,146.5,96.4,0.543
6.18,32350.4,35700.5,1.3748,1.7217,146.5,96.4,0.543
6.2,32420.6,35731.9,1.6506,1.7987,146.5,96.4,0.543
6.22,32325.1,35621.6,1.2754,1.5278,146.5,96.4,0.543
6.24,32169.0,35465.0,0.662,1.1428,146.5,96.4,0.543
6.26,32185.5,35315.8,0.727,0.7759,146.5,96.4,0.543
6.28,32038.9,35109.4,0.151,0.2685,146.5,96.4,0.543
6.3,32100.8,35085.3,0.3944,0.2093,146.5,96.4,0.543
6.32,32027.4,35008.3,0.1058,0.02,146.5,96.4,0.543
6.34,31956.2,34963.9,-0.1736,-0.0893,146.5,96.4,0.543
6.36,31953.6,34884.5,-0.1842,-0.2844,146.5,96.4,0.543
6.38,31828.1,34637.6,-0.6771,-0.8914,146.5,96.4,0.543
6.4,31857.4,34735.8,-0.5621,-0.65,146.5,96.4,0.543
6.42,31852.8,34653.6,-0.5799,-0.8521,146.5,96.4,0.543
6.44,31846.8,34598.7,-0.6037,-0.9871,146.5,96.4,0.543
6.46,31788.4,34540.6,-0.833,-1.1298,146.5,96.4,0.543
6.48,31715.8,34391.5,-1.1182,-1.4965,146.5,96.4,0.543
6.5,31740.1,34464.1,-1.0227,-1.3179,146.5,96.4,0.543
6.52,31790.1,34626.2,-0.8263,-0.9193,146.5,96.4,0.543
6.54,31864.6,34904.0,-0.5335,-0.2364,146.5,96.4,0.543
6.56,32030.4,35337.6,0.1176,0.8295,146.5,96.4,0.543
6.58,32334.2,35603.7,1.3109,1.4837,146.5,96.4,0.543
6.6,32360.5,35716.8,1.4146,1.7618,146.5,96.4,0.543
6.62,32294.7,35658.3,1.1559,1.618,146.5,96.4,0.543
6.64,32165.8,35488.5,0.6497,1.2006,146.5,96.4,0.543
6.66,32249.0,35351.8,0.9764,0.8644,146.5,96.4,0.543
6.68,32018.6,35263.8,0.0712,0.648,146.5,96.4,0.543
6.7,32015.4,35137.6,0.0588,0.3378,146.5,96.4,0.543
6.72,32102.5,35095.9,0.4008,0.2354,146.5,96.4,0.543
6.74,31993.6,35012.0,-0.0269,0.029,146.5,96.4,0.543
6.76,31956.0,34908.8,-0.1747,-0.2247,146.5,96.4,0.543
6.78,31907.1,34784.1,-0.3667,-0.5311,146.5,96.4,0.543
6.8,31852.7,34688.0,-0.5806,-0.7675,146.5,96.4,0.543
6.82,31750.1,34770.0,-0.9834,-0.5658,146.5,96.4,0.543
6.84,31832.7,34607.3,-0.6589,-0.9659,146.5,96.4,0.543
6.86,31824.5,34585.3,-0.6911,-1.0199,146.5,96.4,0.543
6.88,31737.7,34441.0,-1.032,-1.3748,146.5,96.4,0.543
6.9,31747.3,34443.8,-0.9943,-1.3678,146.5,96.4,0.543
6.92,31738.6,34472.2,-1.0287,-1.298,146.5,96.4,0.543
6.94,31835.0,34753.5,-0.6501,-0.6065,146.5,96.4,0.543
6.96,32051.4,35065.4,0.2002,0.1603,146.5,96.4,0.543
6.98,32172.1,35439.0,0.6741,1.0787,146.5,96.4,0.543
7.0,32367.4,35776.0,1.4415,1.9072,146.5,96.4,0.543
7.02,32427.3,35781.5,1.6767,1.9207,146.5,96.4,0.543
7.04,32290.7,35624.7,1.1401,1.5353,146.5,96.4,0.543
7.06,32111.7,35328.0,0.4371,0.8059,146.5,96.4,0.543
7.08,32168.5,35289.4,0.6603,0.711,146.5,96.4,0.543
7.1,32058.2,35140.7,0.227,0.3454,146.5,96.4,0.543
7.12,31980.9,35151.9,-0.0769,0.373,146.5,96.4,0.543
7.14,32010.6,35029.0,0.04,0.0708,146.5,96.4,0.543
7.16,31943.6,34962.9,-0.2233,-0.0917,146.5,96.4,0.543
7.18,31971.8,34908.6,-0.1124,-0.2252,146.5,96.4,0.543
7.2,31846.2,34683.6,-0.6059,-0.7782,146.5,96.4,0.543
7.22,31894.3,34727.9,-0.417,-0.6694,146.5,96.4,0.543
7.24,31760.4,34667.0,-0.9432,-0.819,146.5,96.4,0.543
7.26,31706.1,34624.7,-1.1562,-0.9231,146.5,96.4,0.543
7.28,31803.6,34530.6,-0.7732,-1.1545,146.5,96.4,0.543
7.3,31819.0,34501.2,-0.7127,-1.2268,146.5,96.4,0.543
7.32,31765.5,34487.1,-0.923,-1.2614,146.5,96.4,0.543
7.34,31846.9,34617.4,-0.6031,-0.9411,146.5,96.4,0.543
7.36,31960.3,34884.1,-0.1579,-0.2854,146.5,96.4,0.543
7.38,32119.7,35226.3,0.4685,0.556,146.5,96.4,0.543
7.4,32352.2,35646.9,1.3817,1.5899,146.5,96.4,0.543
7.42,32329.6,35788.5,1.293,1.9379,146.5,96.4,0.543
7.44,32279.7,35778.7,1.097,1.914,146.5,96.4,0.543
7.46,32269.9,35593.1,1.0584,1.4577,146.5,96.4,0.543
7.48,32232.6,35234.7,0.912,0.5765,146.5,96.4,0.543
7.5,32042.8,35182.9,0.1662,0.4493,146.5,96.4,0.543
7.52,32161.4,34971.5,0.6321,-0.0705,146.5,96.4,0.543
7.54,31991.6,35091.9,-0.0348,0.2254,146.5,96.4,0.543
7.56,32042.1,34867.2,0.1635,-0.3269,146.5,96.4,0.543
7.58,31948.1,34870.9,-0.2055,-0.3179,146.5,96.4,0.543
7.6,31882.1,34723.7,-0.465,-0.6798,146.5,96.4,0.543
7.62,31792.4,34690.4,-0.8173,-0.7615,146.5,96.4,0.543
7.64,31834.5,34656.7,-0.6518,-0.8443,146.5,96.4,0.543
7.66,31723.2,34754.9,-1.0893,-0.6029,146.5,96.4,0.543
7.68,31796.1,34659.7,-0.8028,-0.837,146.5,96.4,0.543
7.7,31747.6,34520.9,-0.9933,-1.1783,146.5,96.4,0.543
7.72,31807.8,34489.0,-0.7567,-1.2567,146.5,96.4,0.543
7.74,31804.8,34606.7,-0.7687,-0.9673,146.5,96.4,0.543
7.76,31859.4,34840.0,-0.5541,-0.3939,146.5,96.4,0.543
7.78,32017.9,35099.4,0.0685,0.2439,146.5,96.4,0.543
7.8,32273.3,35324.4,1.0717,0.797,146.5,96.4,0.543
7.82,32305.6,35758.3,1.1989,1.8639,146.5,96.4,0.543
7.84,32280.0,35760.2,1.0981,1.8684,146.5,96.4,0.543
7.86,32335.5,35560.5,1.3163,1.3775,146.5,96.4,0.543
7.88,32161.8,35350.2,0.6339,0.8606,146.5,96.4,0.543
7.9,32179.0,35289.9,0.7013,0.7123,146.5,96.4,0.543
7.92,32144.9,35174.7,0.5674,0.4291,146.5,96.4,0.543
7.94,31916.3,35053.2,-0.3305,0.1304,146.5,96.4,0.543
7.96,32047.6,35095.5,0.1854,0.2342,146.5,96.4,0.543
7.98,31939.0,34984.8,-0.2412,-0.0379,146.5,96.4,0.543
8.0,31823.5,34860.0,-0.695,-0.3447,146.5,96.4,0.543
8.02,31879.3,34702.7,-0.476,-0.7314,146.5,96.4,0.543
8.04,31739.8,34634.3,-1.0238,-0.8995,146.5,96.4,0.543
8.06,31785.1,34635.4,-0.846,-0.8969,146.5,96.4,0.543
8.08,31806.2,34673.0,-0.7632,-0.8043,146.5,96.4,0.543
8.1,31757.7,34471.5,-0.9536,-1.2998,146.5,96.4,0.543
8.12,31777.9,34462.6,-0.8743,-1.3217,146.5,96.4,0.543
8.14,31797.1,34437.8,-0.7987,-1.3826,146.5,96.4,0.543
8.16,31755.1,34632.4,-0.9638,-0.9043,146.5,96.4,0.543
8.18,32041.9,34870.2,0.1627,-0.3197,146.5,96.4,0.543
8.2,32132.2,35347.9,0.5177,0.8548,146.5,96.4,0.543
8.22,32294.4,35572.8,1.1547,1.4079,146.5,96.4,0.543
8.24,32414.2,35805.3,1.6253,1.9792,146.5,96.4,0.543
8.26,32372.5,35664.3,1.4616,1.6326,146.5,96.4,0.543
8.28,32325.4,35595.0,1.2766,1.4622,146.5,96.4,0.543
8.3,32246.7,35342.6,0.9673,0.8419,146.5,96.4,0.543
8.32,32145.5,35205.4,0.5696,0.5044,146.5,96.4,0.543
8.34,32014.1,35057.6,0.0536,0.141,146.5,96.4,0.543
8.36,32051.0,35142.4,0.1986,0.3497,146.5,96.4,0.543
8.38,31994.3,34979.7,-0.024,-0.0504,146.5,96.4,0.543
8.4,32028.2,34924.8,0.1092,-0.1854,146.5,96.4,0.543
8.42,31894.8,34752.4,-0.4149,-0.6091,146.5,96.4,0.543
8.44,31760.0,34739.6,-0.9446,-0.6406,146.5,96.4,0.543
8.46,31847.6,34641.9,-0.6005,-0.8809,146.5,96.4,0.543
8.48,31815.2,34617.0,-0.7278,-0.9422,146.5,96.4,0.543
8.5,31852.0,34638.2,-0.5833,-0.89,146.5,96.4,0.543
8.52,31824.7,34498.5,-0.6905,-1.2333,146.5,96.4,0.543
8.54,31742.9,34444.0,-1.0117,-1.3673,146.5,96.4,0.543
8.56,31720.8,34473.4,-1.0988,-1.295,146.5,96.4,0.543
8.58,31891.4,34753.3,-0.4284,-0.6071,146.5,96.4,0.543
8.6,32078.6,35183.9,0.3071,0.4517,146.5,96.4,0.543
8.62,32159.1,35590.7,0.6231,1.4517,146.5,96.4,0.543
8.64,32373.8,35748.8,1.4666,1.8403,146.5,96.4,0.543
8.66,32427.9,35664.7,1.6793,1.6337,146.5,96.4,0.543
8.68,32284.9,35594.2,1.1176,1.4603,146.5,96.4,0.543
8.7,32190.7,35436.0,0.7473,1.0715,146.5,96.4,0.543
8.72,32073.6,35270.8,0.2875,0.6653,146.5,96.4,0.543
8.74,32117.7,35099.3,0.4605,0.2436,146.5,96.4,0.543
8.76,31974.5,35085.4,-0.1019,0.2096,146.5,96.4,0.543
8.78,31972.5,35059.7,-0.1099,0.1463,146.5,96.4,0.543
8.8,31905.2,34931.5,-0.3742,-0.1688,146.5,96.4,0.543
8.82,31882.4,34799.7,-0.4637,-0.493,146.5,96.4,0.543
8.84,31869.8,34739.3,-0.5133,-0.6413,146.5,96.4,0.543
8.86,31750.0,34601.3,-0.9837,-0.9806,146.5,96.4,0.543
8.88,31834.1,34672.8,-0.6536,-0.8048,146.5,96.4,0.543
8.9,31904.6,34606.0,-0.3765,-0.9691,146.5,96.4,0.543
8.92,31824.2,34532.4,-0.6922,-1.15,146.5,96.4,0.543
8.94,31736.1,34411.1,-1.0386,-1.4481,146.5,96.4,0.543
8.96,31694.9,34468.9,-1.2004,-1.3061,146.5,96.4,0.543
8.98,31791.9,34583.5,-0.8194,-1.0245,146.5,96.4,0.543
9.0,32070.1,34929.2,0.2735,-0.1746,146.5,96.4,0.543
9.02,32137.5,35260.7,0.5385,0.6406,146.5,96.4,0.543
9.04,32305.4,35679.4,1.1981,1.6699,146.5,96.4,0.543
9.06,32374.7,35735.1,1.4704,1.8068,146.5,96.4,0.543
9.08,32359.0,35713.0,1.4086,1.7524,146.5,96.4,0.543
9.1,32209.1,35586.3,0.8197,1.4408,146.5,96.4,0.543
9.12,32117.6,35199.5,0.4601,0.4901,146.5,96.4,0.543
9.14,32155.6,35146.8,0.6094,0.3604,146.5,96.4,0.543
9.16,32144.0,35100.1,0.5641,0.2457,146.5,96.4,0.543
9.18,32091.9,35147.0,0.3591,0.3609,146.5,96.4,0.543
9.2,31915.4,34907.4,-0.3341,-0.2282,146.5,96.4,0.543
9.22,31984.6,34778.8,-0.0621,-0.5442,146.5,96.4,0.543
9.24,31925.0,34824.2,-0.2965,-0.4328,146.5,96.4,0.543
9.26,31791.3,34679.3,-0.8217,-0.7889,146.5,96.4,0.543
9.28,31761.0,34690.6,-0.9407,-0.7611,146.5,96.4,0.543
9.3,31810.6,34710.0,-0.7458,-0.7134,146.5,96.4,0.543
9.32,31693.0,34626.4,-1.2079,-0.919,146.5,96.4,0.543
9.34,31746.7,34500.2,-0.9968,-1.2293,146.5,96.4,0.543
9.36,31806.2,34442.7,-0.763,-1.3706,146.5,96.4,0.543
9.38,31756.3,34553.4,-0.9591,-1.0983,146.5,96.4,0.543
9.4,31862.1,34754.6,-0.5434,-0.6037,146.5,96.4,0.543
9.42,32066.5,35145.9,0.2596,0.3583,146.5,96.4,0.543
9.44,32186.2,35459.9,0.7298,1.1302,146.5,96.4,0.543
9.46,32277.9,35659.1,1.0901,1.62,146.5,96.4,0.543
9.48,32280.2,35797.5,1.0989,1.9601,146.5,96.4,0.543
9.5,32271.8,35681.4,1.066,1.6747,146.5,96.4,0.543
9.52,32129.4,35487.3,0.5064,1.1975,146.5,96.4,0.543
9.54,32141.0,35172.0,0.5523,0.4223,146.5,96.4,0.543
9.56,32023.9,35053.5,0.092,0.1311,146.5,96.4,0.543
9.58,31998.1,35046.7,-0.0092,0.1143,146.5,96.4,0.543
9.6,32101.1,34933.8,0.3956,-0.1631,146.5,96.4,0.543
9.62,31980.8,34846.3,-0.0771,-0.3783,146.5,96.4,0.543
9.64,31976.4,34797.5,-0.0944,-0.4982,146.5,96.4,0.543
9.66,31824.5,34744.2,-0.6912,-0.6293,146.5,96.4,0.543
9.68,31842.4,34714.5,-0.6209,-0.7025,146.5,96.4,0.543
9.7,31799.7,34694.6,-0.7885,-0.7513,146.5,96.4,0.543
9.72,31832.8,34689.4,-0.6586,-0.7641,146.5,96.4,0.543
9.74,31819.2,34514.9,-0.712,-1.193,146.5,96.4,0.543
9.76,31730.6,34434.9,-1.0602,-1.3897,146.5,96.4,0.543
9.78,31733.9,34435.4,-1.047,-1.3884,146.5,96.4,0.543
9.8,31788.5,34598.5,-0.8325,-0.9875,146.5,96.4,0.543
9.82,31949.7,35008.0,-0.1992,0.0193,146.5,96.4,0.543
9.84,32150.7,35262.5,0.5903,0.6448,146.5,96.4,0.543
9.86,32378.6,35555.2,1.4856,1.3644,146.5,96.4,0.543
9.88,32509.3,35765.5,1.9989,1.8816,146.5,96.4,0.543
9.9,32404.9,35756.3,1.589,1.8587,146.5,96.4,0.543
9.92,32314.6,35468.8,1.2341,1.1521,146.5,96.4,0.543
9.94,32173.4,35281.4,0.6796,0.6914,146.5,96.4,0.543
9.96,32033.0,35203.3,0.1277,0.4994,146.5,96.4,0.543
9.98,32093.8,35057.1,0.3669,0.1399,146.5,96.4,0.543
10.0,31999.2,35096.7,-0.0051,0.2374,146.5,96.4,0.543
10.02,31973.1,35014.3,-0.1076,0.0348,146.5,96.4,0.543
10.04,32028.3,34862.1,0.1095,-0.3394,146.5,96.4,0.543
10.06,31910.6,34761.5,-0.3531,-0.5868,146.5,96.4,0.543
10.08,31839.9,34672.1,-0.6308,-0.8065,146.5,96.4,0.543
10.1,31813.1,34754.2,-0.736,-0.6047,146.5,96.4,0.543
10.12,31819.8,34582.0,-0.7095,-1.028,146.5,96.4,0.543
10.14,31766.3,34634.1,-0.9197,-0.9001,146.5,96.4,0.543
10.16,31771.6,34480.2,-0.8989,-1.2784,146.5,96.4,0.543
10.18,31737.0,34430.6,-1.035,-1.4003,146.5,96.4,0.543
10.2,31775.1,34550.6,-0.8852,-1.1052,146.5,96.4,0.543
10.22,31812.4,34807.2,-0.7389,-0.4744,146.5,96.4,0.543
10.24,32020.7,35144.3,0.0796,0.3544,146.5,96.4,0.543
10.26,32134.7,35557.5,0.5275,1.3701,146.5,96.4,0.543
10.28,32400.3,35691.6,1.5706,1.6998,146.5,96.4,0.543
10.3,32431.5,35788.2,1.6933,1.9374,146.5,96.4,0.543
10.32,32271.1,35523.5,1.0634,1.2866,146.5,96.4,0.543
10.34,32209.9,35400.3,0.8227,0.9835,146.5,96.4,0.543
10.36,32082.8,35277.1,0.3236,0.6807,146.5,96.4,0.543
10.38,32045.5,35220.8,0.177,0.5423,146.5,96.4,0.543
10.4,32076.7,35163.1,0.2996,0.4004,146.5,96.4,0.543
10.42,32083.7,34943.8,0.3269,-0.1385,146.5,96.4,0.543
10.44,31892.4,34883.4,-0.4244,-0.2872,146.5,96.4,0.543
10.46,31954.5,34831.3,-0.1807,-0.4151,146.5,96.4,0.543
10.48,31955.6,34693.6,-0.1763,-0.7537,146.5,96.4,0.543
10.5,31891.9,34610.6,-0.4263,-0.9577,146.5,96.4,0.543
10.52,31833.5,34742.7,-0.6559,-0.633,146.5,96.4,0.543
10.54,31833.9,34613.5,-0.6543,-0.9507,146.5,96.4,0.543
10.56,31826.4,34631.8,-0.6837,-0.9056,146.5,96.4,0.543
10.58,31703.2,34476.4,-1.1675,-1.2878,146.5,96.4,0.543
10.6,31648.9,34464.5,-1.381,-1.3169,146.5,96.4,0.543
10.62,31784.2,34653.4,-0.8495,-0.8525,146.5,96.4,0.543
10.64,31970.4,34945.1,-0.1179,-0.1354,146.5,96.4,0.543
10.66,32095.5,35249.4,0.3734,0.6126,146.5,96.4,0.543
10.68,32328.5,35623.4,1.2887,1.5321,146.5,96.4,0.543
10.7,32357.4,35704.7,1.4021,1.732,146.5,96.4,0.543
10.72,32397.6,35659.1,1.5604,1.62,146.5,96.4,0.543
10.74,32267.9,35541.3,1.0505,1.3304,146.5,96.4,0.543
10.76,32165.4,35255.7,0.6478,0.6282,146.5,96.4,0.543
10.78,32029.5,35217.7,0.1139,0.5347,146.5,96.4,0.543
10.8,32005.8,35170.6,0.0212,0.4189,146.5,96.4,0.543
10.82,31972.8,35106.8,-0.1088,0.262,146.5,96.4,0.543
10.84,31981.1,34989.8,-0.0758,-0.0255,146.5,96.4,0.543
10.86,31907.3,34879.4,-0.3658,-0.2968,146.5,96.4,0.543
10.88,31951.6,34740.8,-0.1919,-0.6377,146.5,96.4,0.543
10.9,31810.2,34633.0,-0.7475,-0.9027,146.5,96.4,0.543
10.92,31826.6,34721.3,-0.6828,-0.6857,146.5,96.4,0.543
10.94,31854.3,34692.8,-0.5741,-0.7557,146.5,96.4,0.543
10.96,31743.3,34596.9,-1.0101,-0.9915,146.5,96.4,0.543
10.98,31840.3,34498.5,-0.6291,-1.2334,146.5,96.4,0.543
11.0,31740.2,34443.5,-1.0225,-1.3685,146.5,96.4,0.543
11.02,31687.3,34497.3,-1.2301,-1.2362,146.5,96.4,0.543
11.04,31869.5,34851.1,-0.5146,-0.3665,146.5,96.4,0.543
11.06,32088.4,35132.5,0.3455,0.3253,146.5,96.4,0.543
11.08,32326.6,35472.1,1.2814,1.1602,146.5,96.4,0.543
11.1,32301.0,35661.8,1.1806,1.6266,146.5,96.4,0.543
11.12,32354.3,35736.2,1.3901,1.8094,146.5,96.4,0.543
11.14,32273.3,35579.4,1.072,1.424,146.5,96.4,0.543
11.16,32267.1,35370.0,1.0473,0.909,146.5,96.4,0.543
11.18,32184.2,35167.4,0.7219,0.4111,146.5,96.4,0.543
11.2,32046.7,35133.4,0.1816,0.3274,146.5,96.4,0.543
11.22,32066.6,35092.0,0.26,0.2256,146.5,96.4,0.543
11.24,31931.6,35067.3,-0.2704,0.1651,146.5,96.4,0.543
11.26,31907.9,34930.3,-0.3634,-0.1719,146.5,96.4,0.543
11.28,31953.7,34784.6,-0.1837,-0.5301,146.5,96.4,0.543
11.3,31867.8,34836.9,-0.521,-0.4014,146.5,96.4,0.543
11.32,31806.5,34642.9,-0.7618,-0.8783,146.5,96.4,0.543
11.34,31860.6,34627.5,-0.5493,-0.9162,146.5,96.4,0.543
11.36,31774.5,34617.6,-0.8877,-0.9406,146.5,96.4,0.543
11.38,31845.0,34522.4,-0.6108,-1.1746,146.5,96.4,0.543
11.4,31650.7,34439.3,-1.3741,-1.3788,146.5,96.4,0.543
11.42,31762.8,34505.5,-0.9337,-1.2161,146.5,96.4,0.543
11.44,31796.1,34623.3,-0.8027,-0.9265,146.5,96.4,0.543
11.46,31939.0,34967.1,-0.2413,-0.0813,146.5,96.4,0.543
11.48,32211.7,35265.7,0.8298,0.6527,146.5,96.4,0.543
11.5,32335.7,35562.0,1.3171,1.3812,146.5,96.4,0.543
11.52,32458.0,35776.9,1.7974,1.9095,146.5,96.4,0.543
11.54,32298.4,35695.4,1.1705,1.7091,146.5,96.4,0.543
11.56,32327.8,35436.0,1.2858,1.0715,146.5,96.4,0.543
11.58,32139.2,35352.7,0.5452,0.8666,146.5,96.4,0.543
11.6,32010.6,35305.8,0.0397,0.7513,146.5,96.4,0.543
11.62,32033.2,35001.6,0.1285,0.0034,146.5,96.4,0.543
11.64,32054.6,34985.0,0.2128,-0.0374,146.5,96.4,0.543
11.66,32026.8,34867.3,0.1035,-0.3266,146.5,96.4,0.543
11.68,31921.9,34849.6,-0.3087,-0.3703,146.5,96.4,0.543
11.7,31873.3,34739.1,-0.4994,-0.6418,146.5,96.4,0.543
11.72,31861.9,34641.2,-0.5444,-0.8826,146.5,96.4,0.543
11.74,31839.6,34663.2,-0.6319,-0.8285,146.5,96.4,0.543
11.76,31825.1,34599.7,-0.689,-0.9846,146.5,96.4,0.543
11.78,31729.1,34575.8,-1.066,-1.0434,146.5,96.4,0.543
11.8,31765.1,34468.0,-0.9245,-1.3084,146.5,96.4,0.543
11.82,31717.7,34429.2,-1.1109,-1.4038,146.5,96.4,0.543
11.84,31716.2,34548.4,-1.1167,-1.1108,146.5,96.4,0.543
11.86,31851.2,34791.8,-0.5863,-0.5122,146.5,96.4,0.543
11.88,32154.2,35180.3,0.6041,0.4429,146.5,96.4,0.543
11.9,32257.6,35497.5,1.0103,1.2227,146.5,96.4,0.543
11.92,32351.5,35658.5,1.3792,1.6183,146.5,96.4,0.543
11.94,32324.5,35718.2,1.273,1.7651,146.5,96.4,0.543
11.96,32331.2,35594.3,1.2995,1.4605,146.5,96.4,0.543
11.98,32198.0,35385.0,0.7761,0.9461,146.5,96.4,0.543
12.0,32098.0,35226.9,0.3833,0.5575,146.5,96.4,0.543
12.02,32018.7,35064.1,0.0715,0.1571,146.5,96.4,0.543
12.04,32011.3,35021.2,0.0425,0.0516,146.5,96.4,0.543
12.06,32025.2,35053.8,0.0972,0.1317,146.5,96.4,0.543
12.08,31920.1,34907.4,-0.3156,-0.228,146.5,96.4,0.543
12.1,31837.9,34804.8,-0.6384,-0.4803,146.5,96.4,0.543
12.12,31738.6,34679.6,-1.0287,-0.7881,146.5,96.4,0.543
12.14,31853.5,34671.1,-0.5774,-0.8089,146.5,96.4,0.543
12.16,31918.3,34715.4,-0.3227,-0.7002,146.5,96.4,0.543
12.18,31728.8,34715.6,-1.0673,-0.6997,146.5,96.4,0.543
12.2,31761.6,34551.6,-0.9383,-1.1029,146.5,96.4,0.543
12.22,31843.6,34392.4,-0.6162,-1.4943,146.5,96.4,0.543
12.24,31754.2,34492.0,-0.9672,-1.2494,146.5,96.4,0.543
12.26,31801.5,34725.8,-0.7817,-0.6746,146.5,96.4,0.543
12.28,32002.5,34940.0,0.0079,-0.1479,146.5,96.4,0.543
12.3,32206.1,35344.4,0.8078,0.8463,146.5,96.4,0.543
12.32,32335.0,35689.6,1.3144,1.695,146.5,96.4,0.543
12.34,32401.3,35779.1,1.5746,1.9148,146.5,96.4,0.543
12.36,32297.4,35734.2,1.1667,1.8046,146.5,96.4,0.543
12.38,32195.6,35481.0,0.7665,1.1821,146.5,96.4,0.543
12.4,32117.3,35370.1,0.4589,0.9094,146.5,96.4,0.543
12.42,32127.1,35115.1,0.4977,0.2826,146.5,96.4,0.543
12.44,32089.3,35036.6,0.3491,0.0896,146.5,96.4,0.543
12.46,31921.8,35088.4,-0.309,0.2168,146.5,96.4,0.543
12.48,31947.7,34987.8,-0.2072,-0.0305,146.5,96.4,0.543
12.5,32002.6,34832.5,0.0083,-0.4122,146.5,96.4,0.543
12.52,32019.5,34798.8,0.0748,-0.495,146.5,96.4,0.543
12.54,31782.0,34738.9,-0.8581,-0.6424,146.5,96.4,0.543
12.56,31770.6,34682.9,-0.9028,-0.7801,146.5,96.4,0.543
12.58,31889.2,34758.9,-0.4372,-0.5932,146.5,96.4,0.543
12.6,31735.8,34560.3,-1.0397,-1.0815,146.5,96.4,0.543
12.62,31731.1,34500.4,-1.0582,-1.2288,146.5,96.4,0.543
12.64,31722.8,34361.7,-1.0909,-1.5697,146.5,96.4,0.543
12.66,31765.3,34473.8,-0.9236,-1.2941,146.5,96.4,0.543
12.68,31836.1,34891.0,-0.6458,-0.2684,146.5,96.4,0.543
12.7,32113.9,35173.0,0.4458,0.4249,146.5,96.4,0.543
12.72,32338.0,35445.8,1.3259,1.0955,146.5,96.4,0.543
12.74,32318.0,35699.3,1.2473,1.7187,146.5,96.4,0.543
12.76,32342.5,35690.8,1.3437,1.6978,146.5,96.4,0.543
12.78,32230.0,35511.3,0.9018,1.2566,146.5,96.4,0.543
12.8,32150.7,35355.9,0.5901,0.8744,146.5,96.4,0.543
12.82,32059.5,35276.5,0.2318,0.6794,146.5,96.4,0.543
12.84,32104.0,35118.2,0.4069,0.2902,146.5,96.4,0.543
12.86,32038.7,35120.6,0.1501,0.296,146.5,96.4,0.543
12.88,32004.0,34970.0,0.0141,-0.0743,146.5,96.4,0.543
12.9,31958.6,34919.8,-0.1643,-0.1977,146.5,96.4,0.543
12.92,32015.8,34843.8,0.0604,-0.3845,146.5,96.4,0.543
12.94,31815.2,34757.5,-0.7277,-0.5966,146.5,96.4,0.543
12.96,31866.0,34715.1,-0.5282,-0.7009,146.5,96.4,0.543
12.98,31850.4,34700.1,-0.5894,-0.7377,146.5,96.4,0.543
13.0,31935.2,34637.4,-0.2562,-0.892,146.5,96.4,0.543
13.02,31732.3,34583.1,-1.0534,-1.0255,146.5,96.4,0.543
13.04,31726.5,34566.5,-1.0761,-1.0661,146.5,96.4,0.543
13.06,31756.8,34465.2,-0.9571,-1.3153,146.5,96.4,0.543
13.08,31816.9,34612.5,-0.7209,-0.9531,146.5,96.4,0.543
13.1,32022.1,35015.2,0.0852,0.0368,146.5,96.4,0.543
13.12,32089.5,35405.8,0.3498,0.9972,146.5,96.4,0.543
13.14,32330.6,35623.0,1.2969,1.531,146.5,96.4,0.543
13.16,32389.0,35687.0,1.5265,1.6884,146.5,96.4,0.543
13.18,32399.5,35724.1,1.5676,1.7798,146.5,96.4,0.543
13.2,32261.8,35439.1,1.0268,1.0791,146.5,96.4,0.543
13.22,32189.3,35336.9,0.7418,0.8278,146.5,96.4,0.543
13.24,31970.3,35151.0,-0.1186,0.3708,146.5,96.4,0.543
13.26,32091.5,35007.0,0.3578,0.0168,146.5,96.4,0.543
13.28,32023.1,35067.4,0.0888,0.1653,146.5,96.4,0.543
13.3,31951.8,34940.2,-0.1909,-0.1474,146.5,96.4,0.543
13.32,31949.2,34821.6,-0.2012,-0.4389,146.5,96.4,0.543
13.34,31910.0,34813.1,-0.3554,-0.46,146.5,96.4,0.543
13.36,31860.3,34716.7,-0.5507,-0.697,146.5,96.4,0.543
13.38,31848.4,34624.9,-0.5971,-0.9226,146.5,96.4,0.543
13.4,31944.7,34652.7,-0.2188,-0.8543,146.5,96.4,0.543
13.42,31682.0,34512.7,-1.2509,-1.1984,146.5,96.4,0.543
13.44,31713.9,34498.1,-1.1255,-1.2344,146.5,96.4,0.543
13.46,31790.6,34389.9,-0.8242,-1.5003,146.5,96.4,0.543
13.48,31757.3,34541.4,-0.9554,-1.1279,146.5,96.4,0.543
13.5,31941.2,34864.0,-0.2326,-0.3349,146.5,96.4,0.543
13.52,32085.3,35215.2,0.3333,0.5285,146.5,96.4,0.543
13.54,32226.1,35577.3,0.8865,1.4189,146.5,96.4,0.543
13.56,32376.5,35711.7,1.4771,1.7493,146.5,96.4,0.543
13.58,32311.5,35768.0,1.2221,1.8877,146.5,96.4,0.543
13.6,32235.1,35583.3,0.9219,1.4335,146.5,96.4,0.543
13.62,32200.8,35383.2,0.787,0.9416,146.5,96.4,0.543
13.64,32129.5,35253.5,0.5069,0.6228,146.5,96.4,0.543
13.66,32120.4,35201.1,0.4713,0.4939,146.5,96.4,0.543
13.68,32043.8,35052.1,0.1705,0.1277,146.5,96.4,0.543
13.7,32050.5,34996.1,0.1968,-0.0101,146.5,96.4,0.543
13.72,31898.9,34913.4,-0.399,-0.2133,146.5,96.4,0.543
13.74,31871.1,34834.2,-0.5083,-0.4081,146.5,96.4,0.543
13.76,31902.9,34654.2,-0.3833,-0.8506,146.5,96.4,0.543
13.78,31850.5,34653.1,-0.5891,-0.8532,146.5,96.4,0.543
13.8,31777.9,34728.1,-0.8741,-0.6689,146.5,96.4,0.543
13.82,31843.0,34597.1,-0.6185,-0.9909,146.5,96.4,0.543
13.84,31717.2,34498.6,-1.1128,-1.2332,146.5,96.4,0.543
13.86,31711.0,34414.5,-1.137,-1.4398,146.5,96.4,0.543
13.88,31717.6,34420.5,-1.1113,-1.4251,146.5,96.4,0.543
13.9,31884.7,34716.4,-0.4548,-0.6977,146.5,96.4,0.543
13.92,32084.7,35030.1,0.3308,0.0735,146.5,96.4,0.543
13.94,32288.3,35341.8,1.1308,0.84,146.5,96.4,0.543
13.96,32356.0,35629.6,1.3969,1.5473,146.5,96.4,0.543
13.98,32412.1,35758.5,1.6173,1.8643,146.5,96.4,0.543
14.0,32358.8,35775.9,1.4079,1.9071,146.5,96.4,0.543
14.02,32250.0,35434.6,0.9803,1.0679,146.5,96.4,0.543
14.04,32103.4,35365.6,0.4045,0.8984,146.5,96.4,0.543
14.06,32102.9,35166.1,0.4024,0.408,146.5,96.4,0.543
14.08,32018.5,35061.5,0.0708,0.1508,146.5,96.4,0.543
14.1,31992.8,34980.7,-0.0299,-0.0478,146.5,96.4,0.543
14.12,31971.7,34925.8,-0.113,-0.1829,146.5,96.4,0.543
14.14,31983.4,34839.7,-0.0668,-0.3945,146.5,96.4,0.543
14.16,31874.5,34715.4,-0.4948,-0.7002,146.5,96.4,0.543
14.18,31866.1,34535.0,-0.5279,-1.1437,146.5,96.4,0.543
14.2,31919.6,34607.0,-0.3175,-0.9665,146.5,96.4,0.543
14.22,31925.8,34628.8,-0.2932,-0.9131,146.5,96.4,0.543
14.24,31861.1,34543.7,-0.5473,-1.1223,146.5,96.4,0.543
14.26,31701.4,34494.9,-1.1747,-1.2423,146.5,96.4,0.543
14.28,31725.9,34482.1,-1.0785,-1.2737,146.5,96.4,0.543
14.3,31649.6,34542.5,-1.3782,-1.1251,146.5,96.4,0.543
14.32,31962.8,34869.2,-0.148,-0.3221,146.5,96.4,0.543
14.34,31999.3,35183.6,-0.0044,0.4509,146.5,96.4,0.543
14.36,32284.6,35567.2,1.1162,1.3939,146.5,96.4,0.543
14.38,32403.7,35741.5,1.5843,1.8225,146.5,96.4,0.543
14.4,32312.3,35727.9,1.2252,1.789,146.5,96.4,0.543
14.42,32318.6,35575.9,1.25,1.4154,146.5,96.4,0.543
14.44,32228.6,35329.9,0.8962,0.8105,146.5,96.4,0.543
14.46,32005.8,35234.0,0.0212,0.5748,146.5,96.4,0.543
14.48,32036.6,35107.9,0.142,0.2648,146.5,96.4,0.543
14.5,31945.2,35049.2,-0.217,0.1206,146.5,96.4,0.543
14.52,31993.4,34894.2,-0.0277,-0.2605,146.5,96.4,0.543
14.54,31890.3,34897.3,-0.4328,-0.253,146.5,96.4,0.543
14.56,31925.7,34822.9,-0.2936,-0.4358,146.5,96.4,0.543
14.58,31813.6,34685.0,-0.7341,-0.7748,146.5,96.4,0.543
14.6,31781.3,34694.9,-0.861,-0.7505,146.5,96.4,0.543
14.62,31792.1,34646.4,-0.8183,-0.8699,146.5,96.4,0.543
14.64,31810.4,34696.1,-0.7467,-0.7477,146.5,96.4,0.543
14.66,31852.6,34546.4,-0.5806,-1.1156,146.5,96.4,0.543
14.68,31793.5,34461.6,-0.8132,-1.324,146.5,96.4,0.543
14.7,31843.6,34464.1,-0.6162,-1.3178,146.5,96.4,0.543
14.72,31837.9,34706.1,-0.6387,-0.723,146.5,96.4,0.543
14.74,32052.2,35019.6,0.2034,0.0478,146.5,96.4,0.543
14.76,32196.0,35424.5,0.768,1.0431,146.5,96.4,0.543
14.78,32253.0,35614.5,0.9919,1.5102,146.5,96.4,0.543
14.8,32373.5,35772.9,1.4654,1.8997,146.5,96.4,0.543
14.82,32247.0,35657.3,0.9686,1.6155,146.5,96.4,0.543
14.84,32230.3,35496.9,0.9031,1.2212,146.5,96.4,0.543
14.86,32128.3,35254.9,0.5024,0.6262,146.5,96.4,0.543
14.88,32036.0,35093.4,0.1396,0.2291,146.5,96.4,0.543
14.9,32052.9,35075.6,0.2062,0.1853,146.5,96.4,0.543
14.92,31944.1,34984.6,-0.2212,-0.0383,146.5,96.4,0.543
14.94,31958.3,34936.7,-0.1656,-0.1561,146.5,96.4,0.543
14.96,32013.8,34876.3,0.0523,-0.3045,146.5,96.4,0.543
14.98,31855.9,34726.0,-0.568,-0.6741,146.5,96.4,0.543
15.0,31813.3,34618.8,-0.7352,-0.9375,146.5,96.4,0.543
15.02,31796.0,34699.5,-0.8032,-0.7392,146.5,96.4,0.543
15.04,31777.4,34696.5,-0.8762,-0.7467,146.5,96.4,0.543
15.06,31711.4,34652.4,-1.1356,-0.855,146.5,96.4,0.543
15.08,31720.0,34400.8,-1.1015,-1.4735,146.5,96.4,0.543
15.1,31744.2,34405.1,-1.0066,-1.463,146.5,96.4,0.543
15.12,31777.3,34551.2,-0.8766,-1.1039,146.5,96.4,0.543
15.14,31948.3,34802.8,-0.2047,-0.4854,146.5,96.4,0.543
15.16,32055.1,35197.6,0.2148,0.4854,146.5,96.4,0.543
15.18,32216.6,35589.6,0.8493,1.4489,146.5,96.4,0.543
15.2,32329.7,35694.2,1.2935,1.7061,146.5,96.4,0.543
15.22,32388.3,35675.7,1.5235,1.6607,146.5,96.4,0.543
15.24,32253.8,35556.2,0.9953,1.3669,146.5,96.4,0.543
15.26,32136.0,35430.9,0.5324,1.0589,146.5,96.4,0.543
15.28,32031.6,35177.6,0.1225,0.4361,146.5,96.4,0.543
15.3,32035.7,35132.2,0.1385,0.3244,146.5,96.4,0.543
15.32,32054.2,34991.7,0.2111,-0.0209,146.5,96.4,0.543
15.34,31971.4,35056.3,-0.1141,0.1379,146.5,96.4,0.543
15.36,31974.9,34911.7,-0.1002,-0.2174,146.5,96.4,0.543
15.38,31932.4,34794.8,-0.2674,-0.505,146.5,96.4,0.543
15.4,31898.1,34752.9,-0.4021,-0.6078,146.5,96.4,0.543
15.42,32035.6,34641.6,0.1381,-0.8816,146.5,96.4,0.543
15.44,31855.0,34620.7,-0.5712,-0.9329,146.5,96.4,0.543
15.46,31885.0,34546.1,-0.4534,-1.1164,146.5,96.4,0.543
15.48,31745.5,34484.1,-1.0014,-1.2688,146.5,96.4,0.543
15.5,31606.2,34414.0,-1.5489,-1.4412,146.5,96.4,0.543
15.52,31663.2,34440.3,-1.3249,-1.3765,146.5,96.4,0.543
15.54,31866.2,34629.2,-0.5274,-0.9119,146.5,96.4,0.543
15.56,32108.9,35069.7,0.4259,0.1708,146.5,96.4,0.543
15.58,32067.8,35323.4,0.2645,0.7947,146.5,96.4,0.543
15.6,32359.0,35534.6,1.4085,1.3139,146.5,96.4,0.543
15.62,32356.8,35757.7,1.3999,1.8624,146.5,96.4,0.543
15.64,32346.8,35539.9,1.3608,1.3268,146.5,96.4,0.543
15.66,32269.0,35514.9,1.055,1.2655,146.5,96.4,0.543
15.68,32153.2,35276.0,0.6002,0.6782,146.5,96.4,0.543
15.7,32092.7,35223.4,0.3625,0.5488,146.5,96.4,0.543
15.72,32002.3,35142.0,0.0073,0.3486,146.5,96.4,0.543
15.74,31994.9,35075.8,-0.0216,0.1859,146.5,96.4,0.543
15.76,31945.1,34957.6,-0.2172,-0.1047,146.5,96.4,0.543
15.78,31930.6,34832.1,-0.2743,-0.4132,146.5,96.4,0.543
15.8,31844.4,34642.4,-0.6131,-0.8796,146.5,96.4,0.543
15.82,31905.5,34661.5,-0.3729,-0.8326,146.5,96.4,0.543
15.84,31772.1,34690.7,-0.8969,-0.7608,146.5,96.4,0.543
15.86,31771.8,34726.6,-0.8983,-0.6726,146.5,96.4,0.543
15.88,31761.6,34547.2,-0.9384,-1.1136,146.5,96.4,0.543
15.9,31698.3,34561.6,-1.1871,-1.0781,146.5,96.4,0.543
15.92,31739.4,34493.2,-1.0254,-1.2465,146.5,96.4,0.543
15.94,31802.6,34550.2,-0.7772,-1.1064,146.5,96.4,0.543
15.96,31894.4,34821.2,-0.4167,-0.44,146.5,96.4,0.543
15.98,32146.4,35149.9,0.5734,0.3681,146.5,96.4,0.543
16.0,32269.3,35607.0,1.0562,1.4919,146.5,96.4,0.543
16.02,32456.9,35813.6,1.7932,1.9998,146.5,96.4,0.543
16.04,32315.4,35748.7,1.2371,1.8402,146.5,96.4,0.543
16.06,32250.3,35553.5,0.9817,1.3603,146.5,96.4,0.543
16.08,32153.2,35340.6,0.6002,0.837,146.5,96.4,0.543
16.1,32081.6,35217.6,0.3189,0.5344,146.5,96.4,0.543
16.12,32078.6,35133.2,0.3071,0.327,146.5,96.4,0.543
16.14,31990.1,35014.4,-0.0407,0.0349,146.5,96.4,0.543
16.16,31997.9,35017.0,-0.01,0.0414,146.5,96.4,0.543
16.18,31870.7,34891.6,-0.5097,-0.2669,146.5,96.4,0.543
16.2,31931.1,34826.9,-0.2724,-0.4261,146.5,96.4,0.543
16.22,31808.5,34683.0,-0.754,-0.7799,146.5,96.4,0.543
16.24,31891.5,34644.0,-0.4279,-0.8757,146.5,96.4,0.543
16.26,31867.1,34683.9,-0.5237,-0.7775,146.5,96.4,0.543
16.28,31791.0,34640.8,-0.8229,-0.8834,146.5,96.4,0.543
16.3,31827.9,34580.3,-0.6777,-1.0323,146.5,96.4,0.543
16.32,31756.4,34363.5,-0.9588,-1.5651,146.5,96.4,0.543
16.34,31758.4,34490.9,-0.9509,-1.2519,146.5,96.4,0.543
16.36,31822.4,34665.4,-0.6996,-0.8231,146.5,96.4,0.543
16.38,31997.3,34965.1,-0.0124,-0.0862,146.5,96.4,0.543
16.4,32102.1,35364.3,0.3993,0.8951,146.5,96.4,0.543
16.42,32286.6,35705.0,1.1243,1.7327,146.5,96.4,0.543
16.44,32363.6,35813.5,1.4267,1.9994,146.5,96.4,0.543
16.46,32332.5,35631.0,1.3043,1.5507,146.5,96.4,0.543
16.48,32155.5,35485.9,0.609,1.1941,146.5,96.4,0.543
16.5,32123.2,35262.2,0.482,0.6441,146.5,96.4,0.543
16.52,32088.5,35145.8,0.3458,0.3579,146.5,96.4,0.543
16.54,32038.6,35010.5,0.1499,0.0254,146.5,96.4,0.543
16.56,31945.2,35097.2,-0.2172,0.2385,146.5,96.4,0.543
16.58,31852.7,34934.4,-0.5803,-0.1617,146.5,96.4,0.543
16.6,31920.8,34776.7,-0.3129,-0.5494,146.5,96.4,0.543
16.62,31822.4,34749.6,-0.6996,-0.6161,146.5,96.4,0.543
16.64,31785.7,34630.1,-0.8436,-0.9097,146.5,96.4,0.543
16.66,31821.8,34632.2,-0.702,-0.9047,146.5,96.4,0.543
16.68,31769.8,34606.2,-0.9063,-0.9687,146.5,96.4,0.543
16.7,31791.4,34560.6,-0.8213,-1.0807,146.5,96.4,0.543
16.72,31809.4,34519.0,-0.7507,-1.1829,146.5,96.4,0.543
16.74,31672.6,34488.0,-1.2878,-1.2592,146.5,96.4,0.543
16.76,31870.0,34497.0,-0.5126,-1.2371,146.5,96.4,0.543
16.78,31930.9,34772.6,-0.2732,-0.5594,146.5,96.4,0.543
16.8,32023.5,35187.3,0.0904,0.46,146.5,96.4,0.543
16.82,32283.5,35503.7,1.1119,1.2379,146.5,96.4,0.543
16.84,32398.7,35836.7,1.5644,2.0566,146.5,96.4,0.543
16.86,32420.1,35715.2,1.6485,1.7577,146.5,96.4,0.543
16.88,32245.4,35528.8,0.9623,1.2995,146.5,96.4,0.543
16.9,32168.8,35314.0,0.6615,0.7716,146.5,96.4,0.543
16.92,32147.6,35182.7,0.578,0.4486,146.5,96.4,0.543
16.94,32012.4,35140.6,0.0469,0.3452,146.5,96.4,0.543
16.96,32127.3,35126.5,0.4984,0.3106,146.5,96.4,0.543
16.98,32014.1,34967.7,0.0536,-0.0799,146.5,96.4,0.543
17.0,31952.9,34965.0,-0.187,-0.0866,146.5,96.4,0.543
17.02,31796.9,34835.7,-0.7995,-0.4045,146.5,96.4,0.543
17.04,31851.3,34706.2,-0.5859,-0.7228,146.5,96.4,0.543
17.06,31789.1,34697.2,-0.8304,-0.7448,146.5,96.4,0.543
17.08,31863.3,34563.2,-0.5387,-1.0744,146.5,96.4,0.543
17.1,31819.0,34537.1,-0.7127,-1.1385,146.5,96.4,0.543
17.12,31830.8,34462.0,-0.6664,-1.323,146.5,96.4,0.543
17.14,31762.8,34494.7,-0.9338,-1.2427,146.5,96.4,0.543
17.16,31757.8,34625.1,-0.9534,-0.9222,146.5,96.4,0.543
17.18,31811.0,34735.1,-0.7442,-0.6516,146.5,96.4,0.543
17.2,32011.9,35008.2,0.0449,0.0198,146.5,96.4,0.543
17.22,32169.1,35374.6,0.6624,0.9205,146.5,96.4,0.543
17.24,32374.6,35687.3,1.4699,1.6892,146.5,96.4,0.543
17.26,32363.3,35819.4,1.4254,2.0141,146.5,96.4,0.543
17.28,32434.1,35673.7,1.7034,1.6559,146.5,96.4,0.543
17.3,32193.8,35365.7,0.7594,0.8986,146.5,96.4,0.543
17.32,32106.0,35266.5,0.4145,0.6547,146.5,96.4,0.543
17.34,32157.8,35239.6,0.6182,0.5885,146.5,96.4,0.543
17.36,32062.2,34949.9,0.2426,-0.1235,146.5,96.4,0.543
17.38,32045.9,35048.5,0.1785,0.1187,146.5,96.4,0.543
17.4,31949.2,34908.9,-0.2014,-0.2243,146.5,96.4,0.543
17.42,31917.3,34846.5,-0.3268,-0.3778,146.5,96.4,0.543
17.44,31926.3,34695.4,-0.2913,-0.7492,146.5,96.4,0.543
17.46,31854.2,34693.5,-0.5747,-0.7539,146.5,96.4,0.543
17.48,31840.9,34646.8,-0.6269,-0.8689,146.5,96.4,0.543
17.5,31875.8,34525.4,-0.4899,-1.1671,146.5,96.4,0.543
17.52,31757.3,34529.7,-0.955,-1.1567,146.5,96.4,0.543
17.54,31735.6,34495.4,-1.0404,-1.241,146.5,96.4,0.543
17.56,31691.8,34386.1,-1.2124,-1.5098,146.5,96.4,0.543
17.58,31710.5,34589.4,-1.139,-1.01,146.5,96.4,0.543
17.6,31930.1,34862.9,-0.2764,-0.3375,146.5,96.4,0.543
17.62,32253.4,35084.4,0.9936,0.207,146.5,96.4,0.543
17.64,32237.5,35557.5,0.9313,1.3702,146.5,96.4,0.543
17.66,32404.8,35772.9,1.5885,1.8996,146.5,96.4,0.543
17.68,32277.9,35708.7,1.0901,1.7419,146.5,96.4,0.543
17.7,32236.8,35548.5,0.9285,1.3481,146.5,96.4,0.543
17.72,32132.8,35413.4,0.5198,1.0159,146.5,96.4,0.543
17.74,32115.6,35165.6,0.4525,0.4068,146.5,96.4,0.543
17.76,32071.4,35101.2,0.2788,0.2484,146.5,96.4,0.543
17.78,31980.5,35034.7,-0.0782,0.0849,146.5,96.4,0.543
17.8,32049.1,34995.4,0.1912,-0.0118,146.5,96.4,0.543
17.82,31995.2,34789.0,-0.0207,-0.5192,146.5,96.4,0.543
17.84,31966.2,34842.3,-0.1345,-0.3881,146.5,96.4,0.543
17.86,31909.7,34794.1,-0.3565,-0.5067,146.5,96.4,0.543
17.88,31772.2,34670.2,-0.8966,-0.8112,146.5,96.4,0.543
17.9,31920.9,34644.6,-0.3125,-0.8742,146.5,96.4,0.543
17.92,31816.9,34615.7,-0.7212,-0.9452,146.5,96.4,0.543
17.94,31720.7,34496.2,-1.0989,-1.239,146.5,96.4,0.543
17.96,31834.1,34458.8,-0.6536,-1.3311,146.5,96.4,0.543
17.98,31703.8,34375.3,-1.1655,-1.5363,146.5,96.4,0.543
18.0,31829.2,34771.4,-0.6728,-0.5625,146.5,96.4,0.543
18.02,31989.8,35141.1,-0.0419,0.3463,146.5,96.4,0.543
18.04,32249.0,35413.3,0.9765,1.0155,146.5,96.4,0.543
18.06,32310.2,35665.7,1.2169,1.6361,146.5,96.4,0.543
18.08,32235.0,35702.0,0.9216,1.7254,146.5,96.4,0.543
18.1,32344.6,35740.8,1.3518,1.8207,146.5,96.4,0.543
18.12,32189.8,35476.2,0.7438,1.1702,146.5,96.4,0.543
18.14,32152.1,35267.4,0.5957,0.6569,146.5,96.4,0.543
18.16,32171.5,35154.8,0.6719,0.3801,146.5,96.4,0.543
18.18,31964.3,35105.9,-0.142,0.2598,146.5,96.4,0.543
18.2,32054.7,35040.8,0.2129,0.0998,146.5,96.4,0.543
18.22,31943.0,34845.8,-0.2256,-0.3795,146.5,96.4,0.543
18.24,31924.3,34752.7,-0.2991,-0.6085,146.5,96.4,0.543
18.26,31807.8,34711.9,-0.7568,-0.7087,146.5,96.4,0.543
18.28,31859.6,34680.8,-0.5532,-0.7852,146.5,96.4,0.543
18.3,31815.3,34637.4,-0.7274,-0.8919,146.5,96.4,0.543
18.32,31764.6,34705.7,-0.9265,-0.7239,146.5,96.4,0.543
18.34,31829.5,34498.4,-0.6714,-1.2337,146.5,96.4,0.543
18.36,31727.7,34456.6,-1.0715,-1.3364,146.5,96.4,0.543
18.38,31678.7,34488.2,-1.2638,-1.2587,146.5,96.4,0.543
18.4,31773.7,34624.5,-0.8907,-0.9236,146.5,96.4,0.543
18.42,31808.9,34876.5,-0.7524,-0.3042,146.5,96.4,0.543
18.44,32166.0,35270.8,0.6505,0.6652,146.5,96.4,0.543
18.46,32243.4,35516.1,0.9543,1.2685,146.5,96.4,0.543
18.48,32297.6,35640.3,1.1674,1.5738,146.5,96.4,0.543
18.5,32479.4,35762.3,1.8816,1.8737,146.5,96.4,0.543
18.52,32237.6,35615.1,0.9317,1.5116,146.5,96.4,0.543
18.54,32258.9,35342.4,1.0151,0.8414,146.5,96.4,0.543
18.56,32156.0,35238.6,0.611,0.5861,146.5,96.4,0.543
18.58,32023.9,35192.5,0.0921,0.4728,146.5,96.4,0.543
18.6,32044.3,35041.5,0.1724,0.1016,146.5,96.4,0.543
18.62,32006.7,34979.8,0.0244,-0.0502,146.5,96.4,0.543
18.64,31933.4,34918.3,-0.2635,-0.2013,146.5,96.4,0.543
18.66,31834.9,34810.7,-0.6504,-0.4659,146.5,96.4,0.543
18.68,31861.5,34719.7,-0.5459,-0.6895,146.5,96.4,0.543
18.7,31852.7,34608.5,-0.5805,-0.9629,146.5,96.4,0.543
18.72,31827.5,34704.8,-0.6795,-0.7261,146.5,96.4,0.543
18.74,31697.2,34550.8,-1.1914,-1.1049,146.5,96.4,0.543
18.76,31774.8,34499.1,-0.8866,-1.232,146.5,96.4,0.543
18.78,31804.2,34497.0,-0.771,-1.2369,146.5,96.4,0.543
18.8,31677.0,34545.4,-1.2706,-1.1182,146.5,96.4,0.543
18.82,31978.8,34693.5,-0.0849,-0.754,146.5,96.4,0.543
18.84,32051.4,35144.7,0.2002,0.3552,146.5,96.4,0.543
18.86,32236.0,35438.5,0.9255,1.0775,146.5,96.4,0.543
18.88,32340.1,35829.1,1.3344,2.0378,146.5,96.4,0.543
18.9,32328.0,35782.9,1.2869,1.9243,146.5,96.4,0.543
18.92,32220.1,35698.3,0.8629,1.7163,146.5,96.4,0.543
18.94,32203.1,35475.5,0.7961,1.1686,146.5,96.4,0.543
18.96,32114.9,35231.1,0.4498,0.5677,146.5,96.4,0.543
18.98,32102.1,35176.1,0.3993,0.4324,146.5,96.4,0.543
19.0,32104.4,35031.4,0.4084,0.0766,146.5,96.4,0.543
19.02,31996.0,35032.9,-0.0176,0.0805,146.5,96.4,0.543
19.04,32030.1,34954.3,0.1165,-0.1127,146.5,96.4,0.543
19.06,31839.6,34810.3,-0.6318,-0.4669,146.5,96.4,0.543
19.08,31882.7,34721.9,-0.4625,-0.6842,146.5,96.4,0.543
19.1,31823.5,34720.2,-0.6952,-0.6884,146.5,96.4,0.543
19.12,31791.4,34644.2,-0.8212,-0.8752,146.5,96.4,0.543
19.14,31818.1,34606.4,-0.7165,-0.9681,146.5,96.4,0.543
19.16,31842.4,34550.7,-0.6207,-1.1051,146.5,96.4,0.543
19.18,31808.2,34404.0,-0.7553,-1.4657,146.5,96.4,0.543
19.2,31718.7,34434.5,-1.1067,-1.3906,146.5,96.4,0.543
19.22,31733.5,34580.7,-1.0487,-1.0312,146.5,96.4,0.543
19.24,31878.6,34854.7,-0.4788,-0.3577,146.5,96.4,0.543
19.26,32010.9,35212.7,0.0409,0.5225,146.5,96.4,0.543
19.28,32333.6,35569.8,1.3089,1.4003,146.5,96.4,0.543
19.3,32394.6,35809.2,1.5482,1.9889,146.5,96.4,0.543
19.32,32296.3,35712.9,1.1622,1.7522,146.5,96.4,0.543
19.34,32324.0,35465.5,1.2709,1.1439,146.5,96.4,0.543
19.36,32153.3,35347.8,0.6003,0.8546,146.5,96.4,0.543
19.38,32059.5,35202.1,0.2321,0.4964,146.5,96.4,0.543
19.4,32087.0,35082.2,0.3398,0.2017,146.5,96.4,0.543
19.42,31946.7,35110.5,-0.211,0.2711,146.5,96.4,0.543
19.44,32027.8,35042.7,0.1075,0.1045,146.5,96.4,0.543
19.46,31992.9,34831.8,-0.0298,-0.414,146.5,96.4,0.543
19.48,31927.5,34762.8,-0.2864,-0.5836,146.5,96.4,0.543
19.5,31858.1,34716.3,-0.5592,-0.6979,146.5,96.4,0.543
19.52,31825.0,34697.3,-0.6893,-0.7445,146.5,96.4,0.543
19.54,31716.8,34587.9,-1.1144,-1.0137,146.5,96.4,0.543
19.56,31777.9,34598.4,-0.8741,-0.9878,146.5,96.4,0.543
19.58,31792.6,34512.6,-0.8166,-1.1987,146.5,96.4,0.543
19.6,31703.4,34489.8,-1.1669,-1.2548,146.5,96.4,0.543
19.62,31717.7,34476.8,-1.1109,-1.2866,146.5,96.4,0.543
19.64,31804.3,34688.7,-0.7707,-0.7658,146.5,96.4,0.543
19.66,32082.1,35064.5,0.3208,0.1582,146.5,96.4,0.543
19.68,32155.7,35477.7,0.61,1.1738,146.5,96.4,0.543
19.7,32340.9,35793.4,1.3376,1.9501,146.5,96.4,0.543
19.72,32418.1,35787.5,1.6406,1.9357,146.5,96.4,0.543
19.74,32330.0,35571.9,1.2948,1.4055,146.5,96.4,0.543
19.76,32250.5,35351.0,0.9824,0.8624,146.5,96.4,0.543
19.78,32125.3,35234.2,0.4903,0.5754,146.5,96.4,0.543
19.8,32110.1,35119.0,0.4309,0.2922,146.5,96.4,0.543
19.82,32001.0,35117.6,0.0022,0.2887,146.5,96.4,0.543
19.84,32008.3,35054.5,0.031,0.1336,146.5,96.4,0.543
19.86,31882.8,34913.3,-0.4621,-0.2136,146.5,96.4,0.543
19.88,31883.3,34732.8,-0.4603,-0.6574,146.5,96.4,0.543
19.9,31826.6,34726.4,-0.6828,-0.6731,146.5,96.4,0.543
19.92,31803.4,34700.7,-0.7742,-0.7364,146.5,96.4,0.543
19.94,31822.5,34669.5,-0.699,-0.813,146.5,96.4,0.543
19.96,31834.3,34651.8,-0.6528,-0.8565,146.5,96.4,0.543
19.98,31772.4,34522.1,-0.8957,-1.1752,146.5,96.4,0.543
20.0,31814.1,34414.5,-0.7321,-1.4399,146.5,96.4,0.543
20.02,31715.5,34441.6,-1.1194,-1.3733,146.5,96.4,0.543
20.04,31873.1,34586.3,-0.5001,-1.0175,146.5,96.4,0.543
20.06,31907.0,34895.5,-0.367,-0.2573,146.5,96.4,0.543
20.08,32103.9,35265.4,0.4065,0.652,146.5,96.4,0.543
20.1,32413.4,35681.0,1.6221,1.6738,146.5,96.4,0.543
20.12,32367.1,35810.6,1.4405,1.9923,146.5,96.4,0.543
20.14,32415.1,35729.1,1.6288,1.7921,146.5,96.4,0.543
20.16,32298.3,35442.3,1.1702,1.0868,146.5,96.4,0.543
20.18,32186.1,35468.9,0.7295,1.1524,146.5,96.4,0.543
20.2,32055.6,35149.1,0.2166,0.3661,146.5,96.4,0.543
20.22,32048.1,35083.6,0.1873,0.2051,146.5,96.4,0.543
20.24,32065.6,35146.9,0.2557,0.3606,146.5,96.4,0.543
20.26,31969.7,34994.5,-0.1209,-0.014,146.5,96.4,0.543
20.28,31959.7,34868.2,-0.1602,-0.3244,146.5,96.4,0.543
20.3,31977.5,34720.2,-0.09,-0.6884,146.5,96.4,0.543
20.32,31790.2,34769.2,-0.8261,-0.568,146.5,96.4,0.543
20.34,31784.8,34619.7,-0.847,-0.9353,146.5,96.4,0.543
20.36,31946.7,34674.4,-0.2111,-0.801,146.5,96.4,0.543
20.38,31834.9,34632.5,-0.6504,-0.9039,146.5,96.4,0.543
20.4,31744.8,34464.6,-1.0043,-1.3167,146.5,96.4,0.543
20.42,31648.5,34509.0,-1.3828,-1.2075,146.5,96.4,0.543
20.44,31800.8,34510.2,-0.7845,-1.2046,146.5,96.4,0.543
20.46,31844.8,34650.9,-0.6115,-0.8587,146.5,96.4,0.543
20.48,31982.2,34993.5,-0.0715,-0.0165,146.5,96.4,0.543
20.5,32255.3,35389.5,1.0012,0.957,146.5,96.4,0.543
20.52,32379.0,35646.7,1.4871,1.5893,146.5,96.4,0.543
20.54,32328.1,35740.2,1.2873,1.8192,146.5,96.4,0.543
20.56,32386.6,35704.7,1.5168,1.7319,146.5,96.4,0.543
20.58,32163.3,35413.2,0.6398,1.0154,146.5,96.4,0.543
20.6,32220.5,35221.2,0.8643,0.5433,146.5,96.4,0.543
20.62,32063.9,35206.0,0.2492,0.5059,146.5,96.4,0.543
20.64,32011.5,35069.9,0.0432,0.1714,146.5,96.4,0.543
20.66,32007.3,35106.4,0.027,0.2612,146.5,96.4,0.543
20.68,31965.1,34886.9,-0.1387,-0.2786,146.5,96.4,0.543
20.7,31925.3,34864.0,-0.2952,-0.3348,146.5,96.4,0.543
20.72,31920.8,34714.2,-0.3131,-0.7032,146.5,96.4,0.543
20.74,31866.4,34651.5,-0.5264,-0.8573,146.5,96.4,0.543
20.76,31779.9,34663.7,-0.8663,-0.8273,146.5,96.4,0.543
20.78,31798.5,34698.0,-0.7933,-0.7429,146.5,96.4,0.543
20.8,31763.7,34531.8,-0.93,-1.1515,146.5,96.4,0.543
20.82,31690.1,34480.5,-1.219,-1.2775,146.5,96.4,0.543
20.84,31681.9,34476.3,-1.2513,-1.2878,146.5,96.4,0.543
20.86,31758.2,34637.6,-0.9515,-0.8915,146.5,96.4,0.543
20.88,31959.1,34917.9,-0.1626,-0.2022,146.5,96.4,0.543
20.9,32058.6,35260.3,0.2286,0.6394,146.5,96.4,0.543
20.92,32198.0,35593.8,0.7761,1.4594,146.5,96.4,0.543
20.94,32353.1,35817.3,1.3855,2.0089,146.5,96.4,0.543
20.96,32385.9,35765.7,1.5143,1.8821,146.5,96.4,0.543
20.98,32245.7,35520.6,0.9636,1.2794,146.5,96.4,0.543
21.0,32151.8,35427.7,0.5945,1.051,146.5,96.4,0.543
21.02,32140.7,35290.2,0.551,0.713,146.5,96.4,0.543
21.04,32028.4,35069.3,0.1099,0.1698,146.5,96.4,0.543
21.06,31987.2,35071.1,-0.0519,0.1744,146.5,96.4,0.543
21.08,31952.1,34931.5,-0.19,-0.1688,146.5,96.4,0.543
21.1,32014.6,34847.7,0.0557,-0.3749,146.5,96.4,0.543
21.12,31866.6,34783.4,-0.5257,-0.5329,146.5,96.4,0.543
21.14,31855.7,34758.1,-0.5685,-0.5951,146.5,96.4,0.543
21.16,31840.4,34566.5,-0.6288,-1.0661,146.5,96.4,0.543
21.18,31797.1,34685.1,-0.7987,-0.7747,146.5,96.4,0.543
21.2,31750.8,34596.9,-0.9808,-0.9915,146.5,96.4,0.543
21.22,31782.7,34507.5,-0.8554,-1.2112,146.5,96.4,0.543
21.24,31762.0,34443.1,-0.9369,-1.3695,146.5,96.4,0.543
21.26,31780.7,34491.5,-0.8633,-1.2505,146.5,96.4,0.543
21.28,31748.7,34760.4,-0.989,-0.5896,146.5,96.4,0.543
21.3,32145.8,35048.2,0.5709,0.1181,146.5,96.4,0.543
21.32,32243.4,35531.5,0.9546,1.3061,146.5,96.4,0.543
21.34,32386.5,35743.3,1.5167,1.8269,146.5,96.4,0.543
21.36,32405.3,35735.2,1.5904,1.807,146.5,96.4,0.543
21.38,32270.1,35684.1,1.0595,1.6814,146.5,96.4,0.543
21.4,32265.3,35358.2,1.0403,0.8801,146.5,96.4,0.543
21.42,32128.4,35241.3,0.5028,0.5927,146.5,96.4,0.543
21.44,32017.3,35196.5,0.0663,0.4825,146.5,96.4,0.543
21.46,32102.3,35095.6,0.4,0.2345,146.5,96.4,0.543
21.48,31996.9,34965.5,-0.0141,-0.0854,146.5,96.4,0.543
21.5,31995.4,34862.0,-0.0199,-0.3398,146.5,96.4,0.543
21.52,31895.9,34884.6,-0.4108,-0.2841,146.5,96.4,0.543
21.54,31857.2,34703.0,-0.5626,-0.7305,146.5,96.4,0.543
21.56,31867.8,34680.8,-0.5212,-0.7853,146.5,96.4,0.543
21.58,31891.0,34639.2,-0.43,-0.8875,146.5,96.4,0.543
21.6,31838.1,34601.0,-0.6377,-0.9815,146.5,96.4,0.543
21.62,31868.4,34467.6,-0.5187,-1.3092,146.5,96.4,0.543
21.64,31708.2,34443.4,-1.1481,-1.3689,146.5,96.4,0.543
21.66,31625.8,34515.1,-1.4719,-1.1926,146.5,96.4,0.543
21.68,31802.4,34714.6,-0.7782,-0.702,146.5,96.4,0.543
21.7,31977.8,34934.8,-0.0889,-0.1607,146.5,96.4,0.543
21.72,32216.5,35307.2,0.8486,0.7547,146.5,96.4,0.543
21.74,32341.7,35580.6,1.3407,1.4269,146.5,96.4,0.543
21.76,32459.2,35706.6,1.802,1.7367,146.5,96.4,0.543
21.78,32375.1,35637.3,1.4718,1.5664,146.5,96.4,0.543
21.8,32328.0,35557.5,1.2868,1.3702,146.5,96.4,0.543
21.82,32202.4,35268.5,0.7932,0.6597,146.5,96.4,0.543
21.84,32190.4,35141.2,0.7461,0.3467,146.5,96.4,0.543
21.86,32090.4,35054.8,0.3532,0.1342,146.5,96.4,0.543
21.88,32054.7,35102.0,0.213,0.2504,146.5,96.4,0.543
21.9,31940.8,34971.4,-0.2344,-0.0707,146.5,96.4,0.543
21.92,32043.7,34756.5,0.1698,-0.599,146.5,96.4,0.543
21.94,31843.1,34704.8,-0.6181,-0.7262,146.5,96.4,0.543
21.96,31808.7,34618.7,-0.7532,-0.9378,146.5,96.4,0.543
21.98,31875.5,34615.6,-0.491,-0.9454,146.5,96.4,0.543
22.0,31807.3,34677.6,-0.7588,-0.7929,146.5,96.4,0.543
22.02,31786.4,34559.1,-0.8407,-1.0843,146.5,96.4,0.543
22.04,31746.5,34488.2,-0.9977,-1.2587,146.5,96.4,0.543
22.06,31744.0,34344.9,-1.0073,-1.6109,146.5,96.4,0.543
22.08,31773.0,34578.3,-0.8935,-1.0373,146.5,96.4,0.543
22.1,31736.2,34820.5,-1.0379,-0.4418,146.5,96.4,0.543
22.12,32091.7,35149.6,0.3584,0.3673,146.5,96.4,0.543
22.14,32295.1,35407.9,1.1574,1.0023,146.5,96.4,0.543
22.16,32342.6,35666.5,1.3442,1.6381,146.5,96.4,0.543
22.18,32347.7,35678.6,1.3643,1.6678,146.5,96.4,0.543
22.2,32437.3,35559.1,1.7161,1.3741,146.5,96.4,0.543
22.22,32058.6,35369.2,0.2286,0.9072,146.5,96.4,0.543
22.24,32118.3,35277.9,0.463,0.6827,146.5,96.4,0.543
22.26,32054.8,35125.4,0.2136,0.3079,146.5,96.4,0.543
22.28,32036.2,35163.7,0.1405,0.4019,146.5,96.4,0.543
22.3,31958.6,35058.6,-0.1645,0.1435,146.5,96.4,0.543
22.32,31943.3,34946.8,-0.2246,-0.1312,146.5,96.4,0.543
22.34,31862.6,34865.3,-0.5417,-0.3317,146.5,96.4,0.543
22.36,31713.9,34788.9,-1.1256,-0.5194,146.5,96.4,0.543
22.38,31771.3,34712.3,-0.9001,-0.7078,146.5,96.4,0.543
22.4,31834.5,34637.9,-0.652,-0.8907,146.5,96.4,0.543
22.42,31751.0,34620.3,-0.9798,-0.934,146.5,96.4,0.543
22.44,31827.2,34563.8,-0.6805,-1.0728,146.5,96.4,0.543
22.46,31706.4,34444.5,-1.1551,-1.3661,146.5,96.4,0.543
22.48,31707.9,34550.1,-1.1494,-1.1066,146.5,96.4,0.543
22.5,31801.8,34552.9,-0.7805,-1.0996,146.5,96.4,0.543
22.52,31974.4,34906.2,-0.1024,-0.2311,146.5,96.4,0.543
22.54,32143.8,35260.0,0.563,0.6387,146.5,96.4,0.543
22.56,32243.9,35731.0,0.9564,1.7967,146.5,96.4,0.543
22.58,32395.4,35824.3,1.5517,2.0261,146.5,96.4,0.543
22.6,32311.6,35739.8,1.2225,1.8182,146.5,96.4,0.543
22.62,32317.1,35498.0,1.244,1.2239,146.5,96.4,0.543
22.64,32129.0,35362.4,0.5049,0.8906,146.5,96.4,0.543
22.66,32032.4,35190.1,0.1254,0.4668,146.5,96.4,0.543
22.68,32050.3,35181.0,0.1959,0.4446,146.5,96.4,0.543
22.7,31995.3,35170.3,-0.0202,0.4183,146.5,96.4,0.543
22.72,31979.1,34909.9,-0.0838,-0.222,146.5,96.4,0.543
22.74,31969.0,34844.2,-0.1234,-0.3836,146.5,96.4,0.543
22.76,31865.4,34706.5,-0.5305,-0.7221,146.5,96.4,0.543
22.78,31793.0,34706.1,-0.8149,-0.7231,146.5,96.4,0.543
22.8,31718.1,34723.8,-1.1093,-0.6795,146.5,96.4,0.543
22.82,31872.2,34633.5,-0.5037,-0.9014,146.5,96.4,0.543
22.84,31734.9,34606.3,-1.0433,-0.9683,146.5,96.4,0.543
22.86,31718.1,34519.6,-1.109,-1.1816,146.5,96.4,0.543
22.88,31610.3,34569.9,-1.5325,-1.0579,146.5,96.4,0.543
22.9,31796.9,34455.8,-0.7997,-1.3383,146.5,96.4,0.543
22.92,31788.3,34736.5,-0.8335,-0.6482,146.5,96.4,0.543
22.94,32033.9,35065.1,0.1314,0.1597,146.5,96.4,0.543
22.96,32239.6,35525.5,0.9395,1.2914,146.5,96.4,0.543
22.98,32387.2,35638.0,1.5194,1.5679,146.5,96.4,0.543
23.0,32334.1,35692.8,1.3107,1.7027,146.5,96.4,0.543
23.02,32379.6,35655.4,1.4893,1.6108,146.5,96.4,0.543
23.04,32247.0,35438.2,0.9687,1.0767,146.5,96.4,0.543
23.06,32094.8,35317.3,0.3705,0.7796,146.5,96.4,0.543
23.08,32052.5,35147.5,0.2045,0.3622,146.5,96.4,0.543
23.1,31951.5,35065.7,-0.1923,0.1612,146.5,96.4,0.543
23.12,32047.2,34953.9,0.1838,-0.1139,146.5,96.4,0.543
23.14,32024.4,34866.9,0.094,-0.3277,146.5,96.4,0.543
23.16,31802.6,34770.5,-0.7774,-0.5648,146.5,96.4,0.543
23.18,31919.8,34653.2,-0.317,-0.853,146.5,96.4,0.543
23.2,31783.3,34614.0,-0.8532,-0.9493,146.5,96.4,0.543
23.22,31839.0,34636.3,-0.6342,-0.8946,146.5,96.4,0.543
23.24,31798.2,34657.9,-0.7944,-0.8415,146.5,96.4,0.543
23.26,31806.9,34530.6,-0.7603,-1.1544,146.5,96.4,0.543
23.28,31659.0,34476.2,-1.3414,-1.2881,146.5,96.4,0.543
23.3,31757.7,34452.6,-0.9534,-1.3461,146.5,96.4,0.543
23.32,31777.8,34532.4,-0.8746,-1.15,146.5,96.4,0.543
23.34,31921.7,34957.1,-0.3092,-0.106,146.5,96.4,0.543
23.36,32168.8,35301.7,0.6613,0.7412,146.5,96.4,0.543
23.38,32311.3,35555.9,1.2212,1.3662,146.5,96.4,0.543
23.4,32381.4,35857.4,1.4965,2.1073,146.5,96.4,0.543
23.42,32323.7,35715.6,1.2699,1.7588,146.5,96.4,0.543
23.44,32310.8,35489.8,1.2193,1.2036,146.5,96.4,0.543
23.46,32199.2,35375.6,0.7809,0.923,146.5,96.4,0.543
23.48,32061.7,35303.8,0.2407,0.7464,146.5,96.4,0.543
23.5,32031.5,35125.7,0.1221,0.3087,146.5,96.4,0.543
23.52,32044.5,35032.1,0.173,0.0785,146.5,96.4,0.543
23.54,32013.4,34965.2,0.0507,-0.086,146.5,96.4,0.543
23.56,31961.4,34859.5,-0.1535,-0.3459,146.5,96.4,0.543
23.58,31950.9,34768.2,-0.1947,-0.5703,146.5,96.4,0.543
23.6,31831.7,34654.6,-0.6629,-0.8496,146.5,96.4,0.543
23.62,31846.6,34724.2,-0.6042,-0.6784,146.5,96.4,0.543
23.64,31855.6,34711.9,-0.5689,-0.7087,146.5,96.4,0.543
23.66,31784.5,34615.4,-0.8485,-0.946,146.5,96.4,0.543
23.68,31695.0,34506.4,-1.1999,-1.2139,146.5,96.4,0.543
23.7,31692.4,34497.8,-1.2101,-1.235,146.5,96.4,0.543
23.72,31792.7,34452.1,-0.8162,-1.3474,146.5,96.4,0.543
23.74,31799.8,34774.3,-0.7882,-0.5554,146.5,96.4,0.543
23.76,31983.9,35180.6,-0.065,0.4436,146.5,96.4,0.543
23.78,32267.9,35378.2,1.0507,0.9294,146.5,96.4,0.543
23.8,32414.1,35701.8,1.625,1.7248,146.5,96.4,0.543
23.82,32452.8,35823.0,1.7769,2.0229,146.5,96.4,0.543
23.84,32277.3,35659.8,1.0875,1.6216,146.5,96.4,0.543
23.86,32147.1,35389.4,0.5763,0.9567,146.5,96.4,0.543
23.88,32088.9,35234.9,0.3476,0.577,146.5,96.4,0.543
23.9,32087.4,35139.8,0.3416,0.3433,146.5,96.4,0.543
23.92,32032.6,35054.2,0.1261,0.1328,146.5,96.4,0.543
23.94,31947.1,35018.0,-0.2097,0.0439,146.5,96.4,0.543
23.96,31948.8,34867.4,-0.203,-0.3265,146.5,96.4,0.543
23.98,31888.2,34828.3,-0.4408,-0.4226,146.5,96.4,0.543
24.0,31823.5,34760.9,-0.6953,-0.5882,146.5,96.4,0.543
24.02,31855.8,34709.2,-0.5683,-0.7153,146.5,96.4,0.543
24.04,31820.2,34623.5,-0.708,-0.926,146.5,96.4,0.543
24.06,31840.1,34630.6,-0.6299,-0.9086,146.5,96.4,0.543
24.08,31736.9,34633.2,-1.0354,-0.9021,146.5,96.4,0.543
24.1,31733.5,34510.7,-1.0486,-1.2033,146.5,96.4,0.543
24.12,31709.8,34456.5,-1.1417,-1.3366,146.5,96.4,0.543
24.14,31767.5,34674.2,-0.9151,-0.8015,146.5,96.4,0.543
24.16,32065.7,34905.9,0.2562,-0.2318,146.5,96.4,0.543
24.18,32223.2,35267.3,0.875,0.6568,146.5,96.4,0.543
24.2,32275.1,35602.7,1.0791,1.4811,146.5,96.4,0.543
24.22,32355.0,35797.6,1.3928,1.9604,146.5,96.4,0.543
24.24,32369.5,35606.8,1.4499,1.4912,146.5,96.4,0.543
24.26,32249.8,35614.6,0.9795,1.5105,146.5,96.4,0.543
24.28,32141.1,35267.5,0.5524,0.6573,146.5,96.4,0.543
24.3,32077.9,35285.6,0.3042,0.7015,146.5,96.4,0.543
24.32,32008.2,35156.7,0.0305,0.3847,146.5,96.4,0.543
24.34,31992.1,35103.1,-0.0328,0.253,146.5,96.4,0.543
24.36,32023.2,35013.5,0.0895,0.0327,146.5,96.4,0.543
24.38,31949.1,34916.3,-0.2017,-0.2061,146.5,96.4,0.543
24.4,31894.4,34814.0,-0.4166,-0.4577,146.5,96.4,0.543
24.42,31785.6,34622.3,-0.8441,-0.9289,146.5,96.4,0.543
24.44,31807.5,34594.4,-0.7578,-0.9975,146.5,96.4,0.543
24.46,31824.5,34713.0,-0.6912,-0.706,146.5,96.4,0.543
24.48,31792.1,34616.1,-0.8183,-0.9443,146.5,96.4,0.543
24.5,31720.2,34519.7,-1.1011,-1.1813,146.5,96.4,0.543
24.52,31702.6,34409.2,-1.1703,-1.453,146.5,96.4,0.543
24.54,31784.2,34491.2,-0.8494,-1.2513,146.5,96.4,0.543
24.56,31843.9,34755.9,-0.6151,-0.6005,146.5,96.4,0.543
24.58,32001.6,35198.0,0.0044,0.4862,146.5,96.4,0.543
24.6,32256.9,35560.3,1.0073,1.377,146.5,96.4,0.543
24.62,32350.9,35656.3,1.3769,1.6129,146.5,96.4,0.543
24.64,32424.5,35731.1,1.6658,1.797,146.5,96.4,0.543
24.66,32299.8,35587.4,1.176,1.4436,146.5,96.4,0.543
24.68,32108.2,35385.3,0.4234,0.9469,146.5,96.4,0.543
24.7,32073.1,35302.4,0.2855,0.743,146.5,96.4,0.543
24.72,32106.3,35190.2,0.4159,0.4672,146.5,96.4,0.543
24.74,32084.6,35126.9,0.3305,0.3116,146.5,96.4,0.543
24.76,32004.7,34981.4,0.0167,-0.0462,146.5,96.4,0.543
24.78,31947.6,34931.1,-0.2075,-0.1697,146.5,96.4,0.543
24.8,31877.5,34773.0,-0.483,-0.5585,146.5,96.4,0.543
24.82,31837.8,34711.8,-0.6389,-0.7089,146.5,96.4,0.543
24.84,31919.3,34764.0,-0.3188,-0.5807,146.5,96.4,0.543
24.86,31835.8,34731.0,-0.6467,-0.6619,146.5,96.4,0.543
24.88,31816.8,34582.1,-0.7216,-1.0277,146.5,96.4,0.543
24.9,31741.7,34541.8,-1.0164,-1.127,146.5,96.4,0.543
24.92,31763.4,34422.7,-0.9311,-1.4197,146.5,96.4,0.543
24.94,31757.6,34461.7,-0.9539,-1.3239,146.5,96.4,0.543
24.96,31901.3,34744.2,-0.3895,-0.6293,146.5,96.4,0.543
24.98,32000.9,34896.6,0.0019,-0.2546,146.5,96.4,0.543
25.0,32170.6,35336.7,0.6685,0.8273,146.5,96.4,0.543
25.02,32354.3,35612.9,1.3902,1.5062,146.5,96.4,0.543
25.04,32391.2,35683.7,1.5348,1.6804,146.5,96.4,0.543
25.06,32377.9,35680.3,1.4827,1.6719,146.5,96.4,0.543
25.08,32257.5,35461.5,1.01,1.1341,146.5,96.4,0.543
25.1,32207.2,35341.0,0.8123,0.838,146.5,96.4,0.543
25.12,32167.0,35091.2,0.6543,0.2236,146.5,96.4,0.543
25.14,32049.5,35037.1,0.1926,0.0907,146.5,96.4,0.543
25.16,32028.8,35100.9,0.1115,0.2477,146.5,96.4,0.543
25.18,32063.1,34996.2,0.2463,-0.0098,146.5,96.4,0.543
25.2,31961.4,34860.3,-0.1534,-0.3439,146.5,96.4,0.543
25.22,31925.2,34709.4,-0.2955,-0.715,146.5,96.4,0.543
25.24,31826.1,34726.9,-0.6848,-0.6719,146.5,96.4,0.543
25.26,31809.3,34696.8,-0.751,-0.7458,146.5,96.4,0.543
25.28,31847.0,34603.0,-0.603,-0.9765,146.5,96.4,0.543
25.3,31808.9,34587.7,-0.7526,-1.014,146.5,96.4,0.543
25.32,31825.2,34484.1,-0.6883,-1.2687,146.5,96.4,0.543
25.34,31776.9,34411.7,-0.8782,-1.4467,146.5,96.4,0.543
25.36,31820.1,34541.3,-0.7084,-1.1282,146.5,96.4,0.543
25.38,31790.9,34722.1,-0.8231,-0.6836,146.5,96.4,0.543
25.4,32009.3,35187.7,0.0346,0.461,146.5,96.4,0.543
25.42,32322.9,35553.1,1.2667,1.3594,146.5,96.4,0.543
25.44,32390.3,35720.0,1.5314,1.7696,146.5,96.4,0.543
25.46,32381.2,35773.9,1.4958,1.9021,146.5,96.4,0.543
25.48,32348.3,35610.4,1.3665,1.5001,146.5,96.4,0.543
25.5,32156.1,35406.7,0.6117,0.9993,146.5,96.4,0.543
25.52,32104.1,35319.3,0.407,0.7845,146.5,96.4,0.543
25.54,32084.4,35166.2,0.3299,0.4081,146.5,96.4,0.543
25.56,32003.2,35034.1,0.011,0.0834,146.5,96.4,0.543
25.58,31891.9,35072.0,-0.4263,0.1765,146.5,96.4,0.543
25.6,31900.5,34922.9,-0.3927,-0.1899,146.5,96.4,0.543
25.62,32026.6,34849.8,0.1028,-0.3696,146.5,96.4,0.543
25.64,31816.8,34848.0,-0.7215,-0.3742,146.5,96.4,0.543
25.66,31888.0,34742.7,-0.4416,-0.6331,146.5,96.4,0.543
25.68,31861.7,34631.7,-0.5451,-0.906,146.5,96.4,0.543
25.7,31865.1,34563.5,-0.5317,-1.0735,146.5,96.4,0.543
25.72,31818.1,34587.1,-0.7164,-1.0156,146.5,96.4,0.543
25.74,31781.1,34431.5,-0.8616,-1.398,146.5,96.4,0.543
25.76,31755.1,34378.3,-0.964,-1.5289,146.5,96.4,0.543
25.78,31810.9,34660.8,-0.7447,-0.8344,146.5,96.4,0.543
25.8,32048.4,34958.4,0.1882,-0.1028,146.5,96.4,0.543
25.82,32145.4,35296.2,0.5694,0.7278,146.5,96.4,0.543
25.84,32317.1,35608.4,1.244,1.4952,146.5,96.4,0.543
25.86,32416.8,35825.1,1.6358,2.028,146.5,96.4,0.543
25.88,32365.7,35665.7,1.435,1.6362,146.5,96.4,0.543
25.9,32314.5,35482.4,1.2338,1.1854,146.5,96.4,0.543
25.92,32140.1,35239.1,0.5485,0.5872,146.5,96.4,0.543
25.94,32108.9,35181.2,0.4259,0.4451,146.5,96.4,0.543
25.96,32074.6,35079.8,0.2915,0.1958,146.5,96.4,0.543
25.98,32055.7,35024.9,0.2169,0.0608,146.5,96.4,0.543
26.0,31898.5,34989.4,-0.4006,-0.0265,146.5,96.4,0.543
26.02,31893.5,34756.5,-0.4202,-0.599,146.5,96.4,0.543
26.04,31996.0,34751.0,-0.0175,-0.6126,146.5,96.4,0.543
26.06,31819.8,34684.4,-0.7097,-0.7764,146.5,96.4,0.543
26.08,31806.4,34594.5,-0.7625,-0.9973,146.5,96.4,0.543
26.1,31905.7,34716.1,-0.3722,-0.6984,146.5,96.4,0.543
26.12,31807.2,34531.1,-0.7591,-1.1532,146.5,96.4,0.543
26.14,31712.7,34488.6,-1.1302,-1.2576,146.5,96.4,0.543
26.16,31760.0,34457.2,-0.9444,-1.3349,146.5,96.4,0.543
26.18,31758.9,34523.0,-0.949,-1.1731,146.5,96.4,0.543
26.2,31894.4,34819.8,-0.4168,-0.4434,146.5,96.4,0.543
26.22,32085.9,35159.1,0.3356,0.3906,146.5,96.4,0.543
26.24,32208.8,35523.0,0.8184,1.2854,146.5,96.4,0.543
26.26,32303.4,35690.9,1.1901,1.6981,146.5,96.4,0.543
26.28,32335.9,35795.2,1.3177,1.9545,146.5,96.4,0.543
26.3,32223.5,35605.0,0.8764,1.4869,146.5,96.4,0.543
26.32,32208.1,35309.5,0.8159,0.7604,146.5,96.4,0.543
26.34,32029.0,35253.6,0.1123,0.6231,146.5,96.4,0.543
26.36,32102.6,35136.4,0.4012,0.3349,146.5,96.4,0.543
26.38,32030.8,35148.5,0.1191,0.3646,146.5,96.4,0.543
26.4,32025.6,35072.1,0.0989,0.1768,146.5,96.4,0.543
26.42,32041.1,34840.9,0.1597,-0.3917,146.5,96.4,0.543
26.44,31833.3,34772.4,-0.6568,-0.5601,146.5,96.4,0.543
26.46,31871.8,34684.5,-0.5054,-0.7761,146.5,96.4,0.543
26.48,31853.8,34552.6,-0.5762,-1.1004,146.5,96.4,0.543
26.5,31849.4,34756.3,-0.5934,-0.5996,146.5,96.4,0.543
26.52,31845.3,34633.1,-0.6093,-0.9024,146.5,96.4,0.543
26.54,31720.5,34495.3,-1.0998,-1.2412,146.5,96.4,0.543
26.56,31739.2,34410.4,-1.0264,-1.45,146.5,96.4,0.543
26.58,31840.6,34459.0,-0.6278,-1.3304,146.5,96.4,0.543
26.6,31783.6,34505.7,-0.852,-1.2156,146.5,96.4,0.543
26.62,31963.0,34950.2,-0.1472,-0.1229,146.5,96.4,0.543
26.64,32132.2,35318.3,0.5175,0.7821,146.5,96.4,0.543
26.66,32315.7,35704.4,1.2385,1.7314,146.5,96.4,0.543
26.68,32374.8,35729.4,1.4705,1.7928,146.5,96.4,0.543
26.7,32396.6,35687.9,1.5561,1.6908,146.5,96.4,0.543
26.72,32223.3,35417.0,0.8753,1.0248,146.5,96.4,0.543
26.74,32262.4,35349.5,1.0289,0.8587,146.5,96.4,0.543
26.76,32027.8,35194.9,0.1074,0.4786,146.5,96.4,0.543
26.78,32072.5,35107.2,0.2832,0.2631,146.5,96.4,0.543
26.8,32054.5,35061.9,0.2122,0.1518,146.5,96.4,0.543
26.82,31873.4,35014.7,-0.499,0.0356,146.5,96.4,0.543
26.84,31962.0,34759.5,-0.1509,-0.5917,146.5,96.4,0.543
26.86,31867.9,34734.9,-0.5208,-0.6521,146.5,96.4,0.543
26.88,31833.7,34638.3,-0.6551,-0.8898,146.5,96.4,0.543
26.9,31775.5,34673.8,-0.8836,-0.8023,146.5,96.4,0.543
26.92,31819.1,34633.8,-0.7124,-0.9008,146.5,96.4,0.543
26.94,31819.7,34682.1,-0.7102,-0.7821,146.5,96.4,0.543
26.96,31794.2,34419.2,-0.8102,-1.4283,146.5,96.4,0.543
26.98,31751.6,34349.6,-0.9775,-1.5995,146.5,96.4,0.543
27.0,31733.6,34561.1,-1.0483,-1.0795,146.5,96.4,0.543
27.02,31923.1,34778.5,-0.304,-0.5449,146.5,96.4,0.543
27.04,32159.9,35196.1,0.6262,0.4816,146.5,96.4,0.543
27.06,32232.9,35511.1,0.913,1.2562,146.5,96.4,0.543
27.08,32374.7,35788.6,1.4703,1.9383,146.5,96.4,0.543
27.1,32260.2,35769.7,1.0204,1.8917,146.5,96.4,0.543
27.12,32261.7,35609.4,1.0263,1.4978,146.5,96.4,0.543
27.14,32198.3,35302.7,0.7772,0.7437,146.5,96.4,0.543
27.16,32079.9,35221.3,0.312,0.5436,146.5,96.4,0.543
27.18,31982.4,35205.6,-0.0709,0.5049,146.5,96.4,0.543
27.2,32056.4,35097.8,0.2199,0.24,146.5,96.4,0.543
27.22,32026.3,34984.1,0.1015,-0.0395,146.5,96.4,0.543
27.24,31973.6,34925.2,-0.1054,-0.1843,146.5,96.4,0.543
27.26,31861.8,34809.3,-0.5445,-0.4692,146.5,96.4,0.543
27.28,31880.2,34700.4,-0.4722,-0.7369,146.5,96.4,0.543
27.3,31816.6,34569.0,-0.7222,-1.0601,146.5,96.4,0.543
27.32,31833.3,34719.2,-0.6568,-0.6907,146.5,96.4,0.543
27.34,31872.3,34608.5,-0.5036,-0.963,146.5,96.4,0.543
27.36,31741.9,34482.7,-1.0156,-1.2723,146.5,96.4,0.543
27.38,31734.2,34491.9,-1.0461,-1.2497,146.5,96.4,0.543
27.4,31786.0,34375.4,-0.8425,-1.536,146.5,96.4,0.543
27.42,31799.6,34674.1,-0.789,-0.8016,146.5,96.4,0.543
27.44,31995.3,34967.9,-0.0203,-0.0795,146.5,96.4,0.543
27.46,32088.1,35356.1,0.3442,0.8749,146.5,96.4,0.543
27.48,32320.0,35581.8,1.2553,1.43,146.5,96.4,0.543
27.5,32351.0,35776.5,1.3772,1.9086,146.5,96.4,0.543
27.52,32380.7,35800.1,1.4938,1.9664,146.5,96.4,0.543
27.54,32254.2,35426.9,0.9969,1.049,146.5,96.4,0.543
27.56,32159.5,35386.8,0.6248,0.9505,146.5,96.4,0.543
27.58,32078.3,35166.3,0.3057,0.4085,146.5,96.4,0.543
27.6,32038.3,35113.8,0.1485,0.2794,146.5,96.4,0.543
27.62,31961.8,35004.6,-0.152,0.0108,146.5,96.4,0.543
27.64,32006.8,34934.4,0.0249,-0.1616,146.5,96.4,0.543
27.66,31862.4,34784.3,-0.5424,-0.5308,146.5,96.4,0.543
27.68,31861.9,34706.0,-0.5442,-0.7232,146.5,96.4,0.543
27.7,31882.8,34717.5,-0.462,-0.695,146.5,96.4,0.543
27.72,31885.9,34598.3,-0.4501,-0.9881,146.5,96.4,0.543
27.74,31797.9,34670.4,-0.7958,-0.8108,146.5,96.4,0.543
27.76,31794.0,34612.9,-0.8111,-0.9521,146.5,96.4,0.543
27.78,31717.2,34384.6,-1.1129,-1.5134,146.5,96.4,0.543
27.8,31754.8,34496.8,-0.965,-1.2376,146.5,96.4,0.543
27.82,31729.8,34556.0,-1.0634,-1.0921,146.5,96.4,0.543
27.84,31873.2,34845.7,-0.5001,-0.3798,146.5,96.4,0.543
27.86,32024.3,35136.3,0.0937,0.3346,146.5,96.4,0.543
27.88,32263.5,35609.9,1.0333,1.4989,146.5,96.4,0.543
27.9,32380.5,35711.4,1.4929,1.7486,146.5,96.4,0.543
27.92,32339.9,35711.3,1.3335,1.7483,146.5,96.4,0.543
27.94,32274.6,35588.2,1.0769,1.4455,146.5,96.4,0.543
27.96,32222.5,35409.7,0.8725,1.0068,146.5,96.4,0.543
27.98,32059.4,35309.3,0.2316,0.76,146.5,96.4,0.543
28.0,32131.0,35063.8,0.5128,0.1563,146.5,96.4,0.543
28.02,32090.1,35013.0,0.3522,0.0315,146.5,96.4,0.543
28.04,32005.9,34964.4,0.0213,-0.0879,146.5,96.4,0.543
28.06,31899.2,34886.6,-0.3978,-0.2793,146.5,96.4,0.543
28.08,31879.7,34825.9,-0.4745,-0.4284,146.5,96.4,0.543
28.1,31851.8,34767.9,-0.5841,-0.571,146.5,96.4,0.543
28.12,31854.8,34684.9,-0.5721,-0.7751,146.5,96.4,0.543
28.14,31860.8,34663.5,-0.5484,-0.8277,146.5,96.4,0.543
28.16,31866.8,34605.2,-0.5252,-0.971,146.5,96.4,0.543
28.18,31790.2,34553.5,-0.826,-1.0981,146.5,96.4,0.543
28.2,31790.3,34373.5,-0.8256,-1.5406,146.5,96.4,0.543
28.22,31723.1,34544.5,-1.0897,-1.1203,146.5,96.4,0.543
28.24,31807.9,34692.2,-0.7565,-0.7572,146.5,96.4,0.543
28.26,32062.0,34976.1,0.2417,-0.0593,146.5,96.4,0.543
28.28,32201.5,35424.3,0.7899,1.0427,146.5,96.4,0.543
28.3,32390.7,35653.7,1.533,1.6065,146.5,96.4,0.543
28.32,32449.1,35798.6,1.7623,1.9629,146.5,96.4,0.543
28.34,32416.4,35667.6,1.6342,1.6408,146.5,96.4,0.543
28.36,32278.4,35469.3,1.0921,1.1532,146.5,96.4,0.543
28.38,32153.0,35232.4,0.5994,0.5708,146.5,96.4,0.543
28.4,32137.3,35143.7,0.5378,0.3527,146.5,96.4,0.543
28.42,32112.6,35105.9,0.4407,0.2598,146.5,96.4,0.543
28.44,31959.8,35047.5,-0.1596,0.1164,146.5,96.4,0.543
28.46,31910.7,34969.8,-0.3527,-0.0748,146.5,96.4,0.543
28.48,31964.7,34904.8,-0.1405,-0.2345,146.5,96.4,0.543
28.5,31874.8,34762.1,-0.4938,-0.5854,146.5,96.4,0.543
28.52,31852.0,34674.9,-0.5831,-0.7997,146.5,96.4,0.543
28.54,31776.5,34652.6,-0.8796,-0.8544,146.5,96.4,0.543
28.56,31848.1,34590.9,-0.5986,-1.0063,146.5,96.4,0.543
28.58,31876.0,34549.7,-0.4889,-1.1075,146.5,96.4,0.543
28.6,31860.3,34488.9,-0.5504,-1.2568,146.5,96.4,0.543
28.62,31718.5,34532.5,-1.1076,-1.1497,146.5,96.4,0.543
28.64,31751.4,34502.2,-0.9784,-1.2242,146.5,96.4,0.543
28.66,31969.9,34748.4,-0.1201,-0.6191,146.5,96.4,0.543
28.68,32200.3,35051.7,0.7852,0.1267,146.5,96.4,0.543
28.7,32192.1,35551.9,0.7529,1.3563,146.5,96.4,0.543
28.72,32348.9,35728.2,1.3688,1.7898,146.5,96.4,0.543
28.74,32382.2,35707.7,1.4996,1.7394,146.5,96.4,0.543
28.76,32257.4,35501.6,1.0092,1.2328,146.5,96.4,0.543
28.78,32204.8,35377.0,0.8029,0.9263,146.5,96.4,0.543
28.8,32187.2,35187.1,0.7335,0.4596,146.5,96.4,0.543
28.82,32190.2,35135.0,0.7456,0.3315,146.5,96.4,0.543
28.84,32149.5,35126.9,0.5855,0.3114,146.5,96.4,0.543
28.86,32040.3,34896.2,0.1567,-0.2556,146.5,96.4,0.543
28.88,31968.5,34918.6,-0.1257,-0.2007,146.5,96.4,0.543
28.9,31920.4,34788.3,-0.3144,-0.5209,146.5,96.4,0.543
28.92,31831.5,34628.0,-0.6639,-0.9149,146.5,96.4,0.543
28.94,31872.6,34695.9,-0.5024,-0.7479,146.5,96.4,0.543
28.96,31836.0,34723.4,-0.6458,-0.6805,146.5,96.4,0.543
28.98,31777.4,34624.1,-0.8761,-0.9246,146.5,96.4,0.543
29.0,31741.2,34528.0,-1.0185,-1.161,146.5,96.4,0.543
29.02,31757.8,34430.6,-0.9533,-1.4004,146.5,96.4,0.543
29.04,31696.6,34502.4,-1.1935,-1.2237,146.5,96.4,0.543
29.06,31791.8,34561.3,-0.8198,-1.0789,146.5,96.4,0.543
29.08,32016.0,34977.6,0.0612,-0.0555,146.5,96.4,0.543
29.1,32069.1,35357.3,0.2697,0.8778,146.5,96.4,0.543
29.12,32334.0,35672.9,1.3102,1.6538,146.5,96.4,0.543
29.14,32424.7,35781.1,1.6668,1.9199,146.5,96.4,0.543
29.16,32274.5,35663.0,1.0765,1.6294,146.5,96.4,0.543
29.18,32264.2,35413.1,1.0361,1.0152,146.5,96.4,0.543
29.2,32120.7,35259.9,0.4723,0.6385,146.5,96.4,0.543
29.22,32116.0,35100.6,0.4541,0.2468,146.5,96.4,0.543
29.24,32012.4,35097.5,0.0471,0.2393,146.5,96.4,0.543
29.26,32018.9,35134.7,0.0727,0.3306,146.5,96.4,0.543
29.28,31894.8,34906.3,-0.4148,-0.2308,146.5,96.4,0.543
29.3,31981.8,34795.1,-0.0732,-0.5042,146.5,96.4,0.543
29.32,31848.4,34688.1,-0.5972,-0.7671,146.5,96.4,0.543
29.34,31899.3,34757.5,-0.3974,-0.5967,146.5,96.4,0.543
29.36,31843.2,34625.2,-0.6176,-0.9219,146.5,96.4,0.543
29.38,31777.7,34644.9,-0.875,-0.8735,146.5,96.4,0.543
29.4,31776.1,34508.4,-0.8815,-1.2091,146.5,96.4,0.543
29.42,31783.1,34495.3,-0.8539,-1.2411,146.5,96.4,0.543
29.44,31722.0,34427.2,-1.094,-1.4086,146.5,96.4,0.543
29.46,31798.5,34523.3,-0.7934,-1.1724,146.5,96.4,0.543
29.48,31884.6,34923.5,-0.4553,-0.1884,146.5,96.4,0.543
29.5,32054.1,35196.5,0.2107,0.4827,146.5,96.4,0.543
29.52,32256.3,35560.1,1.005,1.3765,146.5,96.4,0.543
29.54,32455.2,35776.6,1.7865,1.9087,146.5,96.4,0.543
29.56,32412.7,35774.9,1.6193,1.9047,146.5,96.4,0.543
29.58,32268.2,35509.2,1.0517,1.2514,146.5,96.4,0.543
29.6,32218.0,35379.8,0.8548,0.9332,146.5,96.4,0.543
29.62,32091.0,35121.9,0.3558,0.2992,146.5,96.4,0.543
29.64,32044.6,35121.4,0.1734,0.2981,146.5,96.4,0.543
29.66,32097.8,35131.4,0.3822,0.3227,146.5,96.4,0.543
29.68,31961.9,34956.6,-0.1516,-0.1071,146.5,96.4,0.543
29.7,31941.5,34917.3,-0.2316,-0.2039,146.5,96.4,0.543
29.72,31908.6,34785.7,-0.3606,-0.5274,146.5,96.4,0.543
29.74,31934.9,34810.4,-0.2576,-0.4665,146.5,96.4,0.543
29.76,31820.0,34549.6,-0.7087,-1.1077,146.5,96.4,0.543
29.78,31850.5,34614.6,-0.5891,-0.9479,146.5,96.4,0.543
29.8,31784.5,34638.5,-0.8484,-0.8892,146.5,96.4,0.543
29.82,31737.3,34454.6,-1.0336,-1.3412,146.5,96.4,0.543
29.84,31668.1,34492.0,-1.3057,-1.2494,146.5,96.4,0.543
29.86,31782.5,34481.6,-0.8562,-1.275,146.5,96.4,0.543
29.88,31782.5,34663.7,-0.856,-0.8273,146.5,96.4,0.543
29.9,32054.5,34990.5,0.2123,-0.0238,146.5,96.4,0.543
29.92,32151.3,35386.5,0.5927,0.9497,146.5,96.4,0.543
29.94,32319.9,35668.8,1.255,1.6437,146.5,96.4,0.543
29.96,32442.6,35761.4,1.7369,1.8713,146.5,96.4,0.543
29.98,32309.8,35651.4,1.2151,1.6009,146.5,96.4,0.543
30.0,32243.0,35485.3,0.9529,1.1926,146.5,96.4,0.543
30.02,32213.5,35344.6,0.837,0.8466,146.5,96.4,0.543
30.04,32063.1,35096.9,0.2462,0.2377,146.5,96.4,0.543
30.06,32082.6,35100.7,0.3227,0.247,146.5,96.4,0.543
30.08,32077.9,35095.9,0.3043,0.2353,146.5,96.4,0.543
30.1,32075.8,35001.5,0.2961,0.0032,146.5,96.4,0.543
30.12,31919.3,34796.1,-0.3187,-0.5017,146.5,96.4,0.543
30.14,31915.9,34677.3,-0.332,-0.7939,146.5,96.4,0.543
30.16,31904.0,34739.5,-0.3787,-0.6408,146.5,96.4,0.543
30.18,31825.7,34592.6,-0.6866,-1.0021,146.5,96.4,0.543
30.2,31801.1,34633.8,-0.7831,-0.9007,146.5,96.4,0.543
30.22,31790.8,34577.3,-0.8238,-1.0395,146.5,96.4,0.543
30.24,31777.3,34418.7,-0.8764,-1.4295,146.5,96.4,0.543
30.26,31733.9,34448.3,-1.0472,-1.3569,146.5,96.4,0.543
30.28,31826.0,34569.9,-0.6854,-1.0579,146.5,96.4,0.543
30.3,31907.7,34781.4,-0.3644,-0.5378,146.5,96.4,0.543
30.32,32042.1,35266.6,0.1635,0.6549,146.5,96.4,0.543
30.34,32273.8,35598.6,1.074,1.4713,146.5,96.4,0.543
30.36,32405.9,35803.3,1.5928,1.9744,146.5,96.4,0.543
30.38,32339.2,35689.0,1.3309,1.6934,146.5,96.4,0.543
30.4,32197.1,35627.3,0.7724,1.5418,146.5,96.4,0.543
30.42,32154.2,35321.8,0.604,0.7907,146.5,96.4,0.543
30.44,32042.0,35172.6,0.1634,0.4238,146.5,96.4,0.543
30.46,32107.4,35121.9,0.4201,0.2993,146.5,96.4,0.543
30.48,32035.8,35050.8,0.1387,0.1244,146.5,96.4,0.543
30.5,32071.5,34970.4,0.2789,-0.0732,146.5,96.4,0.543
30.52,31998.9,34916.5,-0.0062,-0.2057,146.5,96.4,0.543
30.54,31852.7,34741.6,-0.5805,-0.6358,146.5,96.4,0.543
30.56,31838.0,34705.9,-0.6383,-0.7235,146.5,96.4,0.543
30.58,31864.8,34685.1,-0.533,-0.7746,146.5,96.4,0.543
30.6,31894.9,34614.4,-0.4147,-0.9485,146.5,96.4,0.543
30.62,31745.5,34619.2,-1.0015,-0.9365,146.5,96.4,0.543
30.64,31853.3,34517.9,-0.5782,-1.1858,146.5,96.4,0.543
30.66,31771.6,34436.8,-0.8989,-1.3851,146.5,96.4,0.543
30.68,31797.7,34539.1,-0.7964,-1.1335,146.5,96.4,0.543
30.7,31776.4,34647.3,-0.8802,-0.8675,146.5,96.4,0.543
30.72,32030.8,35024.8,0.1192,0.0605,146.5,96.4,0.543
30.74,32270.7,35357.2,1.0618,0.8778,146.5,96.4,0.543
30.76,32379.9,35704.4,1.4907,1.7313,146.5,96.4,0.543
30.78,32363.2,35758.9,1.4251,1.8652,146.5,96.4,0.543
30.8,32308.3,35646.6,1.2092,1.5893,146.5,96.4,0.543
30.82,32253.1,35363.9,0.9923,0.8941,146.5,96.4,0.543
30.84,32153.4,35242.6,0.6007,0.5959,146.5,96.4,0.543
30.86,32103.9,35167.7,0.4065,0.4117,146.5,96.4,0.543
30.88,31995.3,35112.2,-0.02,0.2754,146.5,96.4,0.543
30.9,32055.3,34994.8,0.2155,-0.0133,146.5,96.4,0.543
30.92,32019.6,35051.2,0.0754,0.1255,146.5,96.4,0.543
30.94,31914.5,34856.7,-0.3377,-0.3527,146.5,96.4,0.543
30.96,31809.3,34844.4,-0.751,-0.383,146.5,96.4,0.543
30.98,31849.0,34699.3,-0.5949,-0.7398,146.5,96.4,0.543
31.0,31849.0,34629.4,-0.5951,-0.9115,146.5,96.4,0.543
31.02,31879.7,34633.3,-0.4745,-0.902,146.5,96.4,0.543
31.04,31813.5,34528.9,-0.7343,-1.1585,146.5,96.4,0.543
31.06,31697.8,34487.7,-1.1889,-1.2599,146.5,96.4,0.543
31.08,31769.5,34532.2,-0.9074,-1.1505,146.5,96.4,0.543
31.1,31765.0,34467.7,-0.9249,-1.309,146.5,96.4,0.543
31.12,31986.2,34861.3,-0.0559,-0.3415,146.5,96.4,0.543
31.14,32114.6,35193.8,0.4484,0.4759,146.5,96.4,0.543
31.16,32238.9,35612.7,0.9368,1.5057,146.5,96.4,0.543
31.18,32445.1,35741.8,1.7466,1.8231,146.5,96.4,0.543
31.2,32283.3,35756.4,1.111,1.8591,146.5,96.4,0.543
31.22,32257.3,35496.5,1.0091,1.2201,146.5,96.4,0.543
31.24,32215.3,35370.3,0.844,0.9098,146.5,96.4,0.543
31.26,32109.5,35231.5,0.4284,0.5686,146.5,96.4,0.543
31.28,32139.6,35206.8,0.5467,0.5079,146.5,96.4,0.543
31.3,31957.1,35046.5,-0.1701,0.1139,146.5,96.4,0.543
31.32,32073.8,35025.2,0.2881,0.0614,146.5,96.4,0.543
31.34,31926.8,34804.1,-0.2895,-0.4822,146.5,96.4,0.543
31.36,31912.0,34775.4,-0.3476,-0.5525,146.5,96.4,0.543
31.38,31901.8,34754.8,-0.3876,-0.6033,146.5,96.4,0.543
31.4,31869.7,34754.9,-0.5136,-0.603,146.5,96.4,0.543
31.42,31811.5,34763.9,-0.7425,-0.5809,146.5,96.4,0.543
31.44,31757.9,34609.5,-0.9526,-0.9606,146.5,96.4,0.543
31.46,31722.1,34520.3,-1.0936,-1.1798,146.5,96.4,0.543
31.48,31642.8,34413.2,-1.4051,-1.443,146.5,96.4,0.543
31.5,31739.4,34438.5,-1.0255,-1.3808,146.5,96.4,0.543
31.52,31774.6,34676.2,-0.8874,-0.7965,146.5,96.4,0.543
31.54,32042.9,35114.0,0.1669,0.2797,146.5,96.4,0.543
31.56,32055.6,35328.7,0.2168,0.8076,146.5,96.4,0.543
31.58,32313.1,35657.8,1.2282,1.6167,146.5,96.4,0.543
31.6,32333.4,35702.1,1.308,1.7257,146.5,96.4,0.543
31.62,32290.4,35641.4,1.1392,1.5765,146.5,96.4,0.543
31.64,32252.1,35492.1,0.9884,1.2093,146.5,96.4,0.543
31.66,32071.5,35253.6,0.2793,0.623,146.5,96.4,0.543
31.68,32144.8,35123.4,0.567,0.3028,146.5,96.4,0.543
31.7,32084.7,35115.8,0.3312,0.2842,146.5,96.4,0.543
31.72,32106.0,35064.9,0.4145,0.159,146.5,96.4,0.543
31.74,31989.9,34962.7,-0.0415,-0.0921,146.5,96.4,0.543
31.76,31849.6,34932.4,-0.5927,-0.1667,146.5,96.4,0.543
31.78,31968.5,34682.0,-0.1253,-0.7821,146.5,96.4,0.543
31.8,31845.0,34617.7,-0.6105,-0.9403,146.5,96.4,0.543
31.82,31791.7,34646.5,-0.82,-0.8694,146.5,96.4,0.543
31.84,31809.1,34722.6,-0.7516,-0.6825,146.5,96.4,0.543
31.86,31805.2,34600.6,-0.7669,-0.9823,146.5,96.4,0.543
31.88,31733.2,34476.1,-1.05,-1.2885,146.5,96.4,0.543
31.9,31746.5,34421.3,-0.9974,-1.4231,146.5,96.4,0.543
31.92,31823.6,34617.2,-0.6947,-0.9415,146.5,96.4,0.543
31.94,31975.6,34944.8,-0.0975,-0.1361,146.5,96.4,0.543
31.96,32084.2,35260.6,0.3289,0.6401,146.5,96.4,0.543
31.98,32201.8,35637.1,0.791,1.5657,146.5,96.4,0.543
32.0,32399.1,35728.4,1.5662,1.7902,146.5,96.4,0.543
32.02,32352.7,35696.4,1.3837,1.7115,146.5,96.4,0.543
32.04,32287.9,35529.0,1.1291,1.3002,146.5,96.4,0.543
32.06,32090.0,35435.0,0.352,1.069,146.5,96.4,0.543
32.08,32063.4,35229.9,0.2474,0.5648,146.5,96.4,0.543
32.1,32052.8,35086.5,0.2058,0.2121,146.5,96.4,0.543
32.12,32073.2,35031.0,0.2859,0.0758,146.5,96.4,0.543
32.14,31997.4,35036.5,-0.012,0.0892,146.5,96.4,0.543
32.16,31982.5,34928.0,-0.0705,-0.1774,146.5,96.4,0.543
32.18,31914.4,34840.4,-0.3381,-0.3929,146.5,96.4,0.543
32.2,31919.4,34702.6,-0.3184,-0.7315,146.5,96.4,0.543
32.22,31824.4,34691.8,-0.6915,-0.7581,146.5,96.4,0.543
32.24,31802.8,34668.2,-0.7764,-0.8161,146.5,96.4,0.543
32.26,31767.6,34661.6,-0.9146,-0.8324,146.5,96.4,0.543
32.28,31672.7,34543.2,-1.2874,-1.1234,146.5,96.4,0.543
32.3,31766.2,34517.0,-0.9201,-1.1878,146.5,96.4,0.543
32.32,31693.5,34541.3,-1.2057,-1.128,146.5,96.4,0.543
32.34,31920.3,34680.1,-0.3149,-0.787,146.5,96.4,0.543
32.36,32009.7,35148.1,0.0365,0.3636,146.5,96.4,0.543
32.38,32204.5,35371.6,0.8017,0.913,146.5,96.4,0.543
32.4,32460.1,35585.2,1.8059,1.4383,146.5,96.4,0.543
32.42,32386.0,35715.3,1.5147,1.758,146.5,96.4,0.543
32.44,32282.8,35665.1,1.1091,1.6348,146.5,96.4,0.543
32.46,32159.4,35400.4,0.6244,0.9839,146.5,96.4,0.543
32.48,32094.8,35318.5,0.3706,0.7827,146.5,96.4,0.543
32.5,32110.9,35175.0,0.434,0.4298,146.5,96.4,0.543
32.52,32005.9,35096.1,0.0216,0.2358,146.5,96.4,0.543
32.54,32033.0,35049.7,0.128,0.1216,146.5,96.4,0.543
32.56,31879.4,34982.8,-0.4757,-0.0428,146.5,96.4,0.543
32.58,31947.4,34822.0,-0.2083,-0.438,146.5,96.4,0.543
32.6,31825.1,34779.0,-0.689,-0.5438,146.5,96.4,0.543
32.62,31788.8,34640.7,-0.8313,-0.8837,146.5,96.4,0.543
32.64,31873.6,34676.1,-0.4982,-0.7967,146.5,96.4,0.543
32.66,31803.8,34584.6,-0.7725,-1.0217,146.5,96.4,0.543
32.68,31909.8,34635.6,-0.356,-0.8963,146.5,96.4,0.543
32.7,31632.1,34601.8,-1.447,-0.9793,146.5,96.4,0.543
32.72,31673.2,34434.6,-1.2854,-1.3905,146.5,96.4,0.543
32.74,31825.4,34609.8,-0.6875,-0.9597,146.5,96.4,0.543
32.76,31900.7,34919.1,-0.3918,-0.1992,146.5,96.4,0.543
32.78,32033.1,35223.2,0.1281,0.5483,146.5,96.4,0.543
32.8,32302.6,35521.2,1.1869,1.281,146.5,96.4,0.543
32.82,32349.8,35752.7,1.3722,1.8499,146.5,96.4,0.543
32.84,32330.5,35744.0,1.2966,1.8285,146.5,96.4,0.543
32.86,32281.0,35550.2,1.1019,1.3522,146.5,96.4,0.543
32.88,32108.8,35411.0,0.4256,1.0099,146.5,96.4,0.543
32.9,32107.1,35197.0,0.4191,0.4837,146.5,96.4,0.543
32.92,32124.4,35134.4,0.487,0.3299,146.5,96.4,0.543
32.94,32033.6,35094.9,0.1301,0.2327,146.5,96.4,0.543
32.96,32002.6,34953.3,0.0084,-0.1152,146.5,96.4,0.543
32.98,31854.1,34878.5,-0.5748,-0.2991,146.5,96.4,0.543
33.0,31914.7,34737.0,-0.337,-0.6469,146.5,96.4,0.543
33.02,31859.2,34660.5,-0.5549,-0.8351,146.5,96.4,0.543
33.04,31806.4,34676.8,-0.7624,-0.795,146.5,96.4,0.543
33.06,31726.7,34597.1,-1.0755,-0.9909,146.5,96.4,0.543
33.08,31747.5,34644.4,-0.9936,-0.8746,146.5,96.4,0.543
33.1,31758.7,34551.6,-0.9498,-1.1028,146.5,96.4,0.543
33.12,31766.9,34436.5,-0.9177,-1.3859,146.5,96.4,0.543
33.14,31745.1,34465.7,-1.0032,-1.314,146.5,96.4,0.543
33.16,31777.0,34670.6,-0.8778,-0.8103,146.5,96.4,0.543
33.18,32049.7,35039.6,0.1937,0.0969,146.5,96.4,0.543
33.2,32173.7,35460.8,0.6806,1.1323,146.5,96.4,0.543
33.22,32336.3,35708.8,1.3193,1.7421,146.5,96.4,0.543
33.24,32407.9,35661.9,1.6007,1.6267,146.5,96.4,0.543
33.26,32350.6,35620.4,1.3754,1.5247,146.5,96.4,0.543
33.28,32249.4,35450.2,0.978,1.1062,146.5,96.4,0.543
33.3,32159.8,35247.4,0.6262,0.6077,146.5,96.4,0.543
33.32,32103.9,35073.7,0.4065,0.1808,146.5,96.4,0.543
33.34,32086.7,35136.3,0.3387,0.3345,146.5,96.4,0.543
33.36,31943.6,34980.1,-0.2234,-0.0494,146.5,96.4,0.543
33.38,31957.3,34941.9,-0.1695,-0.1433,146.5,96.4,0.543
33.4,31951.5,34724.8,-0.1923,-0.6771,146.5,96.4,0.543
33.42,31842.9,34795.1,-0.619,-0.5042,146.5,96.4,0.543
33.44,31827.4,34650.3,-0.6797,-0.8602,146.5,96.4,0.543
33.46,31840.7,34728.4,-0.6274,-0.6681,146.5,96.4,0.543
33.48,31774.9,34663.8,-0.886,-0.8269,146.5,96.4,0.543
33.5,31778.8,34481.9,-0.8707,-1.2743,146.5,96.4,0.543
33.52,31732.8,34469.6,-1.0515,-1.3045,146.5,96.4,0.543
33.54,31711.3,34484.9,-1.1358,-1.2668,146.5,96.4,0.543
33.56,31821.6,34597.0,-0.7026,-0.9913,146.5,96.4,0.543
33.58,31937.7,34894.0,-0.2463,-0.2612,146.5,96.4,0.543
33.6,32068.7,35227.1,0.2681,0.5579,146.5,96.4,0.543
33.62,32311.1,35550.8,1.2205,1.3538,146.5,96.4,0.543
33.64,32381.8,35747.1,1.4982,1.8361,146.5,96.4,0.543
33.66,32368.2,35772.2,1.4446,1.8979,146.5,96.4,0.543
33.68,32306.5,35565.2,1.2023,1.389,146.5,96.4,0.543
33.7,32183.5,35310.5,0.719,0.7628,146.5,96.4,0.543
33.72,32095.7,35171.4,0.3741,0.421,146.5,96.4,0.543
33.74,32082.4,35154.2,0.3219,0.3787,146.5,96.4,0.543
33.76,32046.3,34956.1,0.1801,-0.1083,146.5,96.4,0.543
33.78,32020.8,34930.5,0.0801,-0.1713,146.5,96.4,0.543
33.8,31880.2,34885.3,-0.4724,-0.2823,146.5,96.4,0.543
33.82,31781.5,34818.7,-0.86,-0.4461,146.5,96.4,0.543
33.84,31849.0,34753.0,-0.5951,-0.6077,146.5,96.4,0.543
33.86,31774.6,34649.3,-0.8873,-0.8627,146.5,96.4,0.543
33.88,31855.6,34615.7,-0.569,-0.9453,146.5,96.4,0.543
33.9,31819.9,34586.0,-0.7091,-1.0183,146.5,96.4,0.543
33.92,31827.5,34435.2,-0.6794,-1.389,146.5,96.4,0.543
33.94,31700.1,34376.0,-1.18,-1.5345,146.5,96.4,0.543
33.96,31735.7,34499.1,-1.0401,-1.2318,146.5,96.4,0.543
33.98,31861.8,34651.7,-0.5446,-0.8566,146.5,96.4,0.543
34.0,32025.9,35110.3,0.1001,0.2708,146.5,96.4,0.543
34.02,32286.1,35492.6,1.1222,1.2106,146.5,96.4,0.543
34.04,32296.5,35687.1,1.1628,1.6888,146.5,96.4,0.543
34.06,32414.2,35849.7,1.6256,2.0884,146.5,96.4,0.543
34.08,32330.8,35559.9,1.2977,1.376,146.5,96.4,0.543
34.1,32196.0,35458.6,0.768,1.1269,146.5,96.4,0.543
34.12,32101.6,35270.8,0.3975,0.6652,146.5,96.4,0.543
34.14,32042.2,35191.3,0.1641,0.4698,146.5,96.4,0.543
34.16,32009.2,35059.6,0.0345,0.146,146.5,96.4,0.543
34.18,31994.0,35020.7,-0.0254,0.0504,146.5,96.4,0.543
34.2,31893.2,34950.6,-0.4213,-0.1219,146.5,96.4,0.543
34.22,31875.5,34844.6,-0.491,-0.3825,146.5,96.4,0.543
34.24,31801.6,34752.6,-0.7811,-0.6086,146.5,96.4,0.543
34.26,31815.3,34687.6,-0.7275,-0.7685,146.5,96.4,0.543
34.28,31705.8,34694.7,-1.1575,-0.7511,146.5,96.4,0.543
34.3,31958.1,34684.0,-0.1665,-0.7773,146.5,96.4,0.543
34.32,31869.6,34595.9,-0.5141,-0.9939,146.5,96.4,0.543
34.34,31812.4,34371.6,-0.7387,-1.5454,146.5,96.4,0.543
34.36,31809.7,34449.3,-0.7493,-1.3542,146.5,96.4,0.543
34.38,31826.5,34641.2,-0.6832,-0.8825,146.5,96.4,0.543
34.4,31908.5,34791.7,-0.3613,-0.5124,146.5,96.4,0.543
34.42,32257.8,35266.3,1.011,0.6541,146.5,96.4,0.543
34.44,32263.1,35635.7,1.032,1.5624,146.5,96.4,0.543
34.46,32430.9,35696.6,1.6908,1.712,146.5,96.4,0.543
34.48,32446.8,35764.2,1.7533,1.8782,146.5,96.4,0.543
34.5,32219.2,35626.4,0.8592,1.5396,146.5,96.4,0.543
34.52,32207.5,35326.6,0.8135,0.8024,146.5,96.4,0.543
34.54,32072.6,35185.2,0.2836,0.4549,146.5,96.4,0.543
34.56,32105.1,35125.3,0.4109,0.3076,146.5,96.4,0.543
34.58,32051.1,35114.2,0.1989,0.2802,146.5,96.4,0.543
34.6,31930.5,34965.6,-0.2746,-0.085,146.5,96.4,0.543
34.62,31976.6,34870.6,-0.0937,-0.3185,146.5,96.4,0.543
34.64,31909.3,34740.3,-0.3579,-0.6388,146.5,96.4,0.543
34.66,31847.2,34709.9,-0.6021,-0.7137,146.5,96.4,0.543
34.68,31871.4,34614.2,-0.5068,-0.9488,146.5,96.4,0.543
34.7,31814.4,34615.8,-0.7309,-0.9451,146.5,96.4,0.543
34.72,31756.0,34655.8,-0.9602,-0.8468,146.5,96.4,0.543
34.74,31742.5,34580.3,-1.0135,-1.0324,146.5,96.4,0.543
34.76,31714.5,34440.7,-1.1234,-1.3756,146.5,96.4,0.543
34.78,31827.4,34455.0,-0.6799,-1.3403,146.5,96.4,0.543
34.8,31924.3,34675.0,-0.2993,-0.7994,146.5,96.4,0.543
34.82,31996.3,35031.1,-0.0161,0.076,146.5,96.4,0.543
34.84,32248.8,35458.6,0.9754,1.1269,146.5,96.4,0.543
34.86,32241.4,35742.4,0.9465,1.8246,146.5,96.4,0.543
34.88,32334.5,35681.1,1.3122,1.6741,146.5,96.4,0.543
34.9,32281.2,35580.2,1.103,1.4259,146.5,96.4,0.543
34.92,32191.9,35406.2,0.7522,0.998,146.5,96.4,0.543
34.94,32048.6,35215.9,0.189,0.5304,146.5,96.4,0.543
34.96,32042.6,35086.3,0.1658,0.2117,146.5,96.4,0.543
34.98,32061.8,35102.6,0.241,0.2518,146.5,96.4,0.543
35.0,32012.7,34967.2,0.0482,-0.0812,146.5,96.4,0.543
35.02,31941.7,34942.2,-0.2309,-0.1424,146.5,96.4,0.543
35.04,31841.0,34880.8,-0.6265,-0.2936,146.5,96.4,0.543
35.06,31857.7,34675.0,-0.5607,-0.7994,146.5,96.4,0.543
35.08,31856.1,34765.0,-0.5669,-0.5781,146.5,96.4,0.543
35.1,31728.7,34693.5,-1.0674,-0.7539,146.5,96.4,0.543
35.12,31742.2,34703.3,-1.0146,-0.7299,146.5,96.4,0.543
35.14,31835.9,34612.8,-0.6465,-0.9524,146.5,96.4,0.543
35.16,31663.5,34508.5,-1.3236,-1.2087,146.5,96.4,0.543
35.18,31754.6,34475.0,-0.9658,-1.2912,146.5,96.4,0.543
35.2,31832.0,34732.3,-0.6619,-0.6585,146.5,96.4,0.543
35.22,31969.4,34876.8,-0.1222,-0.3032,146.5,96.4,0.543
35.24,32109.6,35267.1,0.4288,0.6562,146.5,96.4,0.543
35.26,32326.3,35642.5,1.2801,1.5791,146.5,96.4,0.543
35.28,32414.8,35716.7,1.6278,1.7615,146.5,96.4,0.543
35.3,32367.1,35622.9,1.4406,1.5308,146.5,96.4,0.543
35.32,32260.4,35487.2,1.0211,1.1973,146.5,96.4,0.543
35.34,32194.4,35383.5,0.7618,0.9424,146.5,96.4,0.543
35.36,32073.7,35228.9,0.2877,0.5623,146.5,96.4,0.543
35.38,32047.0,35130.4,0.1829,0.3202,146.5,96.4,0.543
35.4,32037.4,35133.6,0.145,0.3281,146.5,96.4,0.543
35.42,32038.2,34918.0,0.1485,-0.202,146.5,96.4,0.543
35.44,32032.1,34908.8,0.1245,-0.2246,146.5,96.4,0.543
35.46,31874.3,34787.4,-0.4956,-0.5232,146.5,96.4,0.543
35.48,31788.1,34714.1,-0.8343,-0.7032,146.5,96.4,0.543
35.5,31853.5,34685.1,-0.5771,-0.7746,146.5,96.4,0.543
35.52,31810.7,34670.6,-0.7454,-0.8102,146.5,96.4,0.543
35.54,31853.8,34503.6,-0.5761,-1.2209,146.5,96.4,0.543
35.56,31744.9,34515.7,-1.0039,-1.191,146.5,96.4,0.543
35.58,31662.1,34518.9,-1.3291,-1.1832,146.5,96.4,0.543
35.6,31759.5,34548.2,-0.9467,-1.1111,146.5,96.4,0.543
35.62,31857.1,34753.3,-0.5633,-0.6069,146.5,96.4,0.543
35.64,32089.1,35110.8,0.3482,0.272,146.5,96.4,0.543
35.66,32256.4,35466.2,1.0057,1.1456,146.5,96.4,0.543
35.68,32353.2,35726.0,1.3858,1.7843,146.5,96.4,0.543
35.7,32333.6,35770.2,1.3088,1.8931,146.5,96.4,0.543
35.72,32251.2,35633.2,0.985,1.5562,146.5,96.4,0.543
35.74,32304.5,35301.3,1.1946,0.7403,146.5,96.4,0.543
35.76,32152.6,35227.5,0.5976,0.5587,146.5,96.4,0.543
35.78,31984.4,35111.8,-0.0632,0.2743,146.5,96.4,0.543
35.8,31980.5,35065.7,-0.0786,0.161,146.5,96.4,0.543
35.82,32008.0,35031.2,0.0295,0.0761,146.5,96.4,0.543
35.84,31937.8,34858.1,-0.2459,-0.3494,146.5,96.4,0.543
35.86,31977.1,34797.9,-0.0919,-0.4974,146.5,96.4,0.543
35.88,31912.3,34810.7,-0.3462,-0.4658,146.5,96.4,0.543
35.9,31889.6,34663.5,-0.4354,-0.8277,146.5,96.4,0.543
35.92,31842.0,34640.4,-0.6226,-0.8846,146.5,96.4,0.543
35.94,31810.7,34660.1,-0.7453,-0.8361,146.5,96.4,0.543
35.96,31799.6,34559.0,-0.7888,-1.0847,146.5,96.4,0.543
35.98,31770.2,34419.5,-0.9044,-1.4277,146.5,96.4,0.543
36.0,31671.6,34587.6,-1.2919,-1.0143,146.5,96.4,0.543
36.02,31855.8,34612.7,-0.5683,-0.9525,146.5,96.4,0.543
36.04,31959.2,34915.1,-0.1621,-0.2092,146.5,96.4,0.543
36.06,32094.0,35279.2,0.3675,0.6859,146.5,96.4,0.543
36.08,32284.8,35625.8,1.1169,1.538,146.5,96.4,0.543
36.1,32366.3,35749.7,1.4372,1.8426,146.5,96.4,0.543
36.12,32314.1,35703.3,1.2322,1.7287,146.5,96.4,0.543
36.14,32203.5,35501.3,0.7977,1.2321,146.5,96.4,0.543
36.16,32148.6,35419.5,0.5822,1.0309,146.5,96.4,0.543
36.18,32086.7,35205.4,0.3387,0.5045,146.5,96.4,0.543
36.2,32081.9,34988.8,0.3198,-0.0281,146.5,96.4,0.543
36.22,32052.8,35017.6,0.2056,0.0428,146.5,96.4,0.543
36.24,31938.8,34936.6,-0.2422,-0.1562,146.5,96.4,0.543
36.26,31921.1,34803.5,-0.3115,-0.4835,146.5,96.4,0.543
36.28,31941.3,34799.2,-0.2322,-0.4942,146.5,96.4,0.543
36.3,31838.3,34705.5,-0.637,-0.7244,146.5,96.4,0.543
36.32,31800.8,34623.4,-0.7841,-0.9264,146.5,96.4,0.543
36.34,31915.4,34690.8,-0.3341,-0.7607,146.5,96.4,0.543
36.36,31841.5,34573.1,-0.6244,-1.05,146.5,96.4,0.543
36.38,31701.0,34540.8,-1.1763,-1.1293,146.5,96.4,0.543
36.4,31783.5,34451.1,-0.8522,-1.3499,146.5,96.4,0.543
36.42,31816.5,34537.0,-0.7228,-1.1387,146.5,96.4,0.543
36.44,31832.4,34755.2,-0.6601,-0.6023,146.5,96.4,0.543
36.46,31915.2,35191.5,-0.3347,0.4704,146.5,96.4,0.543
36.48,32138.5,35432.4,0.5424,1.0625,146.5,96.4,0.543
36.5,32336.3,35689.0,1.3195,1.6933,146.5,96.4,0.543
36.52,32335.0,35825.3,1.3144,2.0286,146.5,96.4,0.543
36.54,32361.6,35613.0,1.4188,1.5066,146.5,96.4,0.543
36.56,32270.7,35352.3,1.0615,0.8656,146.5,96.4,0.543
36.58,32194.1,35205.4,0.7606,0.5044,146.5,96.4,0.543
36.6,32108.7,35078.9,0.4254,0.1936,146.5,96.4,0.543
36.62,32032.4,35044.6,0.1255,0.1091,146.5,96.4,0.543
36.64,31965.7,35058.0,-0.1364,0.1422,146.5,96.4,0.543
36.66,31972.6,34939.9,-0.1093,-0.1481,146.5,96.4,0.543
36.68,31911.4,34767.7,-0.3497,-0.5715,146.5,96.4,0.543
36.7,31857.7,34675.8,-0.5608,-0.7974,146.5,96.4,0.543
36.72,31786.5,34683.4,-0.8406,-0.7788,146.5,96.4,0.543
36.74,31821.5,34613.4,-0.703,-0.9508,146.5,96.4,0.543
36.76,31843.1,34645.2,-0.6183,-0.8727,146.5,96.4,0.543
36.78,31810.7,34561.9,-0.7455,-1.0775,146.5,96.4,0.543
36.8,31709.3,34508.4,-1.1436,-1.209,146.5,96.4,0.543
36.82,31716.5,34529.9,-1.1155,-1.1562,146.5,96.4,0.543
36.84,31878.0,34662.8,-0.481,-0.8296,146.5,96.4,0.543
36.86,31918.2,34931.5,-0.3232,-0.1688,146.5,96.4,0.543
36.88,32177.0,35345.9,0.6936,0.8498,146.5,96.4,0.543
36.9,32361.4,35547.5,1.4178,1.3455,146.5,96.4,0.543
36.92,32292.7,35757.3,1.1479,1.8613,146.5,96.4,0.543
36.94,32328.2,35656.2,1.2875,1.6128,146.5,96.4,0.543
36.96,32293.6,35529.5,1.1516,1.3013,146.5,96.4,0.543
36.98,32128.3,35360.1,0.5021,0.8848,146.5,96.4,0.543
37.0,31983.2,35153.5,-0.0677,0.3769,146.5,96.4,0.543
37.02,32101.8,35106.7,0.3982,0.262,146.5,96.4,0.543
37.04,32055.6,35160.2,0.2168,0.3933,146.5,96.4,0.543
37.06,31937.8,34945.5,-0.2462,-0.1344,146.5,96.4,0.543
37.08,31928.6,34862.1,-0.2822,-0.3396,146.5,96.4,0.543
37.1,31827.0,34795.6,-0.6815,-0.5031,146.5,96.4,0.543
37.12,31859.8,34572.2,-0.5525,-1.0521,146.5,96.4,0.543
37.14,31855.0,34679.6,-0.5714,-0.7882,146.5,96.4,0.543
37.16,31824.7,34597.4,-0.6903,-0.9903,146.5,96.4,0.543
37.18,31806.8,34583.8,-0.7606,-1.0237,146.5,96.4,0.543
37.2,31782.7,34568.8,-0.8552,-1.0606,146.5,96.4,0.543
37.22,31682.2,34539.8,-1.2501,-1.1318,146.5,96.4,0.543
37.24,31736.4,34537.2,-1.0371,-1.1382,146.5,96.4,0.543
37.26,31893.3,34808.8,-0.421,-0.4706,146.5,96.4,0.543
37.28,32041.2,35111.4,0.1601,0.2733,146.5,96.4,0.543
37.3,32243.1,35514.8,0.9531,1.2652,146.5,96.4,0.543
37.32,32379.2,35770.2,1.4881,1.893,146.5,96.4,0.543
37.34,32376.1,35748.8,1.4756,1.8403,146.5,96.4,0.543
37.36,32221.0,35633.4,0.8665,1.5566,146.5,96.4,0.543
37.38,32282.7,35262.5,1.109,0.6449,146.5,96.4,0.543
37.4,32170.6,35211.2,0.6685,0.5188,146.5,96.4,0.543
37.42,32118.2,35154.5,0.4625,0.3794,146.5,96.4,0.543
37.44,32065.7,35174.5,0.2562,0.4286,146.5,96.4,0.543
37.46,31993.4,34952.8,-0.0277,-0.1164,146.5,96.4,0.543
37.48,31843.3,34830.1,-0.6174,-0.4181,146.5,96.4,0.543
37.5,32056.5,34817.1,0.22,-0.45,146.5,96.4,0.543
37.52,31851.0,34701.9,-0.5873,-0.7334,146.5,96.4,0.543
37.54,31856.6,34708.6,-0.5652,-0.7169,146.5,96.4,0.543
37.56,31790.5,34684.3,-0.8247,-0.7767,146.5,96.4,0.543
37.58,31773.5,34585.5,-0.8917,-1.0196,146.5,96.4,0.543
37.6,31798.3,34479.0,-0.794,-1.2814,146.5,96.4,0.543
37.62,31681.3,34512.2,-1.2536,-1.1997,146.5,96.4,0.543
37.64,31722.1,34431.1,-1.0936,-1.3991,146.5,96.4,0.543
37.66,31811.1,34689.0,-0.7437,-0.7652,146.5,96.4,0.543
37.68,31881.5,35011.0,-0.4675,0.0266,146.5,96.4,0.543
37.7,32119.4,35330.2,0.4673,0.8114,146.5,96.4,0.543
37.72,32361.4,35627.3,1.4181,1.5417,146.5,96.4,0.543
37.74,32367.5,35690.9,1.4418,1.6981,146.5,96.4,0.543
37.76,32391.4,35588.2,1.5358,1.4455,146.5,96.4,0.543
37.78,32260.2,35487.2,1.0204,1.1972,146.5,96.4,0.543
37.8,32098.3,35322.3,0.3842,0.792,146.5,96.4,0.543
37.82,32135.9,35113.6,0.532,0.2788,146.5,96.4,0.543
37.84,32126.6,35153.7,0.4957,0.3773,146.5,96.4,0.543
37.86,32009.8,35030.1,0.0369,0.0735,146.5,96.4,0.543
37.88,31900.9,34908.0,-0.3909,-0.2267,146.5,96.4,0.543
37.9,31970.6,34844.4,-0.1174,-0.3829,146.5,96.4,0.543
37.92,31950.0,34736.0,-0.1982,-0.6494,146.5,96.4,0.543
37.94,31838.0,34630.5,-0.6381,-0.9089,146.5,96.4,0.543
37.96,31878.6,34706.2,-0.4785,-0.7228,146.5,96.4,0.543
37.98,31739.6,34674.6,-1.0246,-0.8005,146.5,96.4,0.543
38.0,31909.7,34647.1,-0.3565,-0.868,146.5,96.4,0.543
38.02,31701.5,34531.0,-1.1743,-1.1535,146.5,96.4,0.543
38.04,31741.7,34459.2,-1.0165,-1.3299,146.5,96.4,0.543
38.06,31857.3,34586.7,-0.5622,-1.0165,146.5,96.4,0.543
38.08,31887.4,34786.1,-0.4443,-0.5264,146.5,96.4,0.543
38.1,32058.9,35196.0,0.2295,0.4815,146.5,96.4,0.543
38.12,32277.9,35516.0,1.0898,1.2682,146.5,96.4,0.543
38.14,32310.9,35668.5,1.2195,1.643,146.5,96.4,0.543
38.16,32379.1,35699.3,1.4876,1.7187,146.5,96.4,0.543
38.18,32250.1,35581.6,0.9809,1.4294,146.5,96.4,0.543
38.2,32160.2,35437.2,0.6276,1.0745,146.5,96.4,0.543
38.22,32142.7,35183.5,0.5587,0.4507,146.5,96.4,0.543
38.24,32097.2,35165.7,0.3801,0.4069,146.5,96.4,0.543
38.26,32062.0,35126.9,0.242,0.3116,146.5,96.4,0.543
38.28,32092.9,34987.7,0.3634,-0.0307,146.5,96.4,0.543
38.3,31875.0,34930.6,-0.4928,-0.171,146.5,96.4,0.543
38.32,31893.0,34721.0,-0.4219,-0.6863,146.5,96.4,0.543
38.34,31922.1,34675.3,-0.3079,-0.7987,146.5,96.4,0.543
38.36,31917.0,34679.6,-0.3278,-0.7881,146.5,96.4,0.543
38.38,31806.9,34684.9,-0.7605,-0.775,146.5,96.4,0.543
38.4,31751.7,34651.8,-0.9771,-0.8565,146.5,96.4,0.543
38.42,31789.4,34539.2,-0.829,-1.1332,146.5,96.4,0.543
38.44,31781.6,34459.3,-0.8597,-1.3297,146.5,96.4,0.543
38.46,31809.1,34505.1,-0.7515,-1.2171,146.5,96.4,0.543
38.48,31849.4,34566.9,-0.5935,-1.0652,146.5,96.4,0.543
38.5,31977.2,34902.1,-0.0914,-0.2412,146.5,96.4,0.543
38.52,32124.9,35349.3,0.489,0.8583,146.5,96.4,0.543
38.54,32279.9,35620.9,1.0979,1.5261,146.5,96.4,0.543
38.56,32467.6,35812.5,1.8352,1.997,146.5,96.4,0.543
38.58,32312.9,35793.8,1.2273,1.9511,146.5,96.4,0.543
38.6,32188.8,35466.1,0.7397,1.1454,146.5,96.4,0.543
38.62,32108.5,35203.0,0.4246,0.4985,146.5,96.4,0.543
38.64,32104.4,35142.3,0.4082,0.3495,146.5,96.4,0.543
38.66,31992.5,35181.6,-0.0312,0.4459,146.5,96.4,0.543
38.68,31950.3,35086.9,-0.1971,0.2132,146.5,96.4,0.543
38.7,31934.8,34935.6,-0.258,-0.1588,146.5,96.4,0.543
38.72,31947.1,34947.4,-0.2095,-0.1297,146.5,96.4,0.543
38.74,31896.9,34719.5,-0.4069,-0.6901,146.5,96.4,0.543
38.76,31939.9,34612.0,-0.2377,-0.9544,146.5,96.4,0.543
38.78,31832.1,34622.3,-0.6614,-0.9289,146.5,96.4,0.543
38.8,31845.7,34697.1,-0.6077,-0.7452,146.5,96.4,0.543
38.82,31750.7,34540.7,-0.981,-1.1297,146.5,96.4,0.543
38.84,31841.2,34510.6,-0.6257,-1.2035,146.5,96.4,0.543
38.86,31729.5,34546.3,-1.0643,-1.1159,146.5,96.4,0.543
38.88,31743.2,34570.8,-1.0107,-1.0557,146.5,96.4,0.543
38.9,31883.4,34783.4,-0.46,-0.5329,146.5,96.4,0.543
38.92,32075.2,35146.2,0.2937,0.359,146.5,96.4,0.543
38.94,32197.6,35463.0,0.7743,1.1378,146.5,96.4,0.543
38.96,32390.3,35697.6,1.5316,1.7145,146.5,96.4,0.543
38.98,32413.1,35708.6,1.6209,1.7416,146.5,96.4,0.543
39.0,32265.1,35537.6,1.0398,1.3213,146.5,96.4,0.543
39.02,32138.4,35384.8,0.5417,0.9456,146.5,96.4,0.543
39.04,32153.8,35264.6,0.6024,0.6499,146.5,96.4,0.543
39.06,31984.3,35175.7,-0.0633,0.4315,146.5,96.4,0.543
39.08,32033.0,35034.3,0.1279,0.0838,146.5,96.4,0.543
39.1,32071.5,35065.6,0.2789,0.1607,146.5,96.4,0.543
39.12,31898.3,34994.3,-0.4013,-0.0144,146.5,96.4,0.543
39.14,31807.5,34791.0,-0.7579,-0.5143,146.5,96.4,0.543
39.16,31730.5,34730.4,-1.0604,-0.6632,146.5,96.4,0.543
39.18,31773.9,34621.5,-0.89,-0.9309,146.5,96.4,0.543
39.2,31874.2,34648.6,-0.4958,-0.8643,146.5,96.4,0.543
39.22,31903.7,34717.2,-0.3799,-0.6957,146.5,96.4,0.543
39.24,31832.6,34553.6,-0.6592,-1.0978,146.5,96.4,0.543
39.26,31745.7,34434.0,-1.0009,-1.392,146.5,96.4,0.543
39.28,31757.7,34447.7,-0.9537,-1.3582,146.5,96.4,0.543
39.3,31791.5,34631.0,-0.8209,-0.9075,146.5,96.4,0.543
39.32,32039.4,34949.7,0.1532,-0.1242,146.5,96.4,0.543
39.34,32197.7,35275.0,0.7748,0.6756,146.5,96.4,0.543
39.36,32213.4,35672.8,0.8367,1.6535,146.5,96.4,0.543
39.38,32374.9,35788.1,1.471,1.9371,146.5,96.4,0.543
39.4,32267.3,35687.0,1.0483,1.6886,146.5,96.4,0.543
39.42,32208.5,35479.9,0.8175,1.1794,146.5,96.4,0.543
39.44,32097.4,35244.7,0.3809,0.6012,146.5,96.4,0.543
39.46,32139.6,35119.5,0.5468,0.2932,146.5,96.4,0.543
39.48,32084.6,35212.4,0.3304,0.5218,146.5,96.4,0.543
39.5,32120.4,35108.3,0.4714,0.2658,146.5,96.4,0.543
39.52,32026.3,35002.6,0.1017,0.0058,146.5,96.4,0.543
39.54,31999.4,34859.9,-0.0042,-0.345,146.5,96.4,0.543
39.56,31801.2,34685.6,-0.7828,-0.7733,146.5,96.4,0.543
39.58,31924.8,34633.0,-0.2972,-0.9028,146.5,96.4,0.543
39.6,31790.3,34685.0,-0.8254,-0.7748,146.5,96.4,0.543
39.62,31863.9,34695.2,-0.5363,-0.7499,146.5,96.4,0.543
39.64,31785.0,34641.9,-0.8463,-0.8809,146.5,96.4,0.543
39.66,31717.1,34491.8,-1.1131,-1.2499,146.5,96.4,0.543
39.68,31733.7,34315.5,-1.0479,-1.6833,146.5,96.4,0.543
39.7,31799.1,34515.0,-0.791,-1.1929,146.5,96.4,0.543
39.72,31891.0,34677.3,-0.4299,-0.7937,146.5,96.4,0.543
39.74,32070.6,35267.6,0.2757,0.6575,146.5,96.4,0.543
39.76,32299.9,35490.7,1.1764,1.2059,146.5,96.4,0.543
39.78,32294.7,35652.0,1.1559,1.6025,146.5,96.4,0.543
39.8,32364.7,35729.6,1.4307,1.7933,146.5,96.4,0.543
39.82,32339.6,35583.0,1.3323,1.4327,146.5,96.4,0.543
39.84,32185.4,35409.9,0.7265,1.0073,146.5,96.4,0.543
39.86,32216.2,35248.1,0.8476,0.6094,146.5,96.4,0.543
39.88,32072.1,35161.7,0.2816,0.3971,146.5,96.4,0.543
39.9,32083.5,35093.1,0.3262,0.2285,146.5,96.4,0.543
39.92,32003.0,34960.1,0.0098,-0.0986,146.5,96.4,0.543
39.94,31898.2,34898.5,-0.4018,-0.2501,146.5,96.4,0.543
39.96,31822.3,34860.2,-0.7,-0.3442,146.5,96.4,0.543
39.98,31871.3,34654.4,-0.5073,-0.85,146.5,96.4,0.543
40.0,31931.1,34716.5,-0.2725,-0.6974,146.5,96.4,0.543
40.02,31857.2,34606.0,-0.5629,-0.9691,146.4,96.4,0.544
40.04,31676.9,34600.0,-1.271,-0.9838,146.4,96.4,0.544
40.06,31764.9,34564.4,-0.9253,-1.0713,146.4,96.4,0.545
40.08,31802.8,34396.8,-0.7764,-1.4834,146.4,96.4,0.545
40.1,31742.8,34471.6,-1.0122,-1.2995,146.4,96.4,0.546
40.12,31830.4,34547.9,-0.6681,-1.1119,146.3,96.3,0.546
40.14,32039.4,34964.0,0.1529,-0.089,146.3,96.3,0.547
40.16,32155.0,35330.2,0.607,0.8114,146.3,96.3,0.547
40.18,32405.5,35689.4,1.591,1.6943,146.3,96.3,0.548
40.2,32298.4,35791.2,1.1704,1.9448,146.3,96.3,0.548
40.22,32359.1,35687.6,1.4088,1.6899,146.2,96.3,0.549
40.24,32202.7,35516.1,0.7946,1.2683,146.2,96.3,0.549
40.26,32183.6,35290.0,0.7193,0.7125,146.2,96.3,0.55
40.28,32089.3,35185.2,0.3491,0.4548,146.2,96.2,0.55
40.3,32028.2,35159.3,0.1088,0.3912,146.2,96.2,0.551
40.32,32079.7,34972.8,0.3114,-0.0674,146.1,96.2,0.551
40.34,31951.8,34973.3,-0.1912,-0.0662,146.1,96.2,0.552
40.36,31978.0,34814.8,-0.0882,-0.4557,146.1,96.2,0.552
40.38,31856.7,34678.7,-0.5648,-0.7903,146.1,96.2,0.553
40.4,31743.8,34688.0,-1.0082,-0.7676,146.1,96.2,0.553
40.42,31741.0,34743.9,-1.0194,-0.63,146.0,96.2,0.554
40.44,31827.3,34571.5,-0.6804,-1.0539,146.0,96.1,0.554
40.46,31802.4,34614.0,-0.778,-0.9495,146.0,96.1,0.555
40.48,31749.2,34433.6,-0.9872,-1.393,146.0,96.1,0.555
40.5,31636.6,34400.3,-1.4292,-1.4747,146.0,96.1,0.556
40.52,31765.4,34552.8,-0.9235,-1.1,145.9,96.1,0.556
40.54,31956.3,34748.6,-0.1734,-0.6184,145.9,96.1,0.557
40.56,32114.5,35127.8,0.4481,0.3137,145.9,96.1,0.557
40.58,32246.8,35491.2,0.9678,1.207,145.9,96.1,0.558
40.6,32370.5,35651.9,1.4537,1.6021,145.9,96.0,0.559
40.62,32354.3,35811.1,1.3902,1.9935,145.8,96.0,0.559
40.64,32294.4,35610.2,1.1546,1.4996,145.8,96.0,0.56
40.66,32203.9,35417.9,0.7992,1.027,145.8,96.0,0.56
40.68,32069.0,35183.1,0.2692,0.4497,145.8,96.0,0.561
40.7,32016.1,35093.0,0.0614,0.2283,145.8,96.0,0.561
40.72,32050.5,35167.3,0.1968,0.4109,145.7,96.0,0.562
40.74,31978.0,34989.5,-0.0884,-0.0263,145.7,95.9,0.562
40.76,32021.6,34966.7,0.0832,-0.0824,145.7,95.9,0.563
40.78,31808.0,34776.4,-0.7559,-0.5501,145.7,95.9,0.563
40.8,31846.5,34774.5,-0.6047,-0.5548,145.7,95.9,0.564
40.82,31828.8,34707.2,-0.6744,-0.7203,145.6,95.9,0.564
40.84,31876.2,34696.8,-0.4879,-0.7458,145.6,95.9,0.565
40.86,31867.5,34633.3,-0.5223,-0.902,145.6,95.9,0.565
40.88,31723.3,34556.3,-1.0887,-1.0912,145.6,95.9,0.566
40.9,31716.8,34510.4,-1.1144,-1.2041,145.6,95.8,0.566
40.92,31756.4,34584.6,-0.9586,-1.0216,145.5,95.8,0.567
40.94,31794.2,34643.3,-0.8102,-0.8773,145.5,95.8,0.567
40.96,31990.2,34857.6,-0.0402,-0.3505,145.5,95.8,0.568
40.98,32153.8,35289.9,0.6026,0.7121,145.5,95.8,0.568
41.0,32301.4,35609.9,1.1823,1.4989,145.5,95.8,0.569
41.02,32365.9,35751.2,1.4358,1.8463,145.4,95.8,0.569
41.04,32309.4,35686.5,1.2137,1.6874,145.4,95.8,0.57
41.06,32312.0,35597.5,1.224,1.4684,145.4,95.7,0.57
41.08,32122.6,35310.2,0.4797,0.762,145.4,95.7,0.571
41.1,32174.8,35204.8,0.685,0.5031,145.4,95.7,0.571
41.12,32019.4,35160.4,0.0746,0.394,145.3,95.7,0.572
41.14,31969.0,35125.8,-0.1235,0.3089,145.3,95.7,0.572
41.16,31892.9,34980.3,-0.4226,-0.0489,145.3,95.7,0.573
41.18,31934.4,34880.9,-0.2593,-0.2932,145.3,95.7,0.573
41.2,31947.2,34781.9,-0.2094,-0.5366,145.3,95.7,0.574
41.22,31815.1,34680.4,-0.728,-0.7861,145.2,95.6,0.574
41.24,31870.1,34629.2,-0.512,-0.9121,145.2,95.6,0.575
41.26,31785.8,34769.4,-0.8434,-0.5673,145.2,95.6,0.575
41.28,31853.5,34524.6,-0.5771,-1.1691,145.2,95.6,0.576
41.3,31722.1,34535.2,-1.0936,-1.1432,145.2,95.6,0.576
41.32,31656.2,34400.1,-1.3523,-1.4752,145.1,95.6,0.577
41.34,31867.0,34495.9,-0.5244,-1.2398,145.1,95.6,0.577
41.36,31772.3,34666.3,-0.8962,-0.8209,145.1,95.6,0.578
41.38,32076.8,35158.6,0.2999,0.3895,145.1,95.5,0.578
41.4,32272.7,35376.5,1.0696,0.925,145.1,95.5,0.579
41.42,32375.3,35589.4,1.4727,1.4485,145.0,95.5,0.579
41.44,32370.7,35792.4,1.4546,1.9477,145.0,95.5,0.58
41.46,32421.0,35626.2,1.6522,1.539,145.0,95.5,0.58
41.48,32345.4,35413.4,1.3552,1.0158,145.0,95.5,0.581
41.5,32144.5,35198.7,0.566,0.488,145.0,95.5,0.581
41.52,32165.7,35233.2,0.6492,0.573,144.9,95.5,0.582
41.54,32040.4,35193.4,0.157,0.475,144.9,95.4,0.582
41.56,32046.2,35055.7,0.1798,0.1364,144.9,95.4,0.583
41.58,31930.4,35027.1,-0.2751,0.0662,144.9,95.4,0.583
41.6,31902.3,34752.6,-0.3855,-0.6086,144.9,95.4,0.584
41.62,31808.0,34756.4,-0.7561,-0.5994,144.8,95.4,0.584
41.64,31824.8,34698.0,-0.6899,-0.7429,144.8,95.4,0.585
41.66,31784.1,34672.9,-0.85,-0.8047,144.8,95.4,0.585
41.68,31750.4,34693.8,-0.9824,-0.7533,144.8,95.4,0.586
41.7,31751.7,34614.4,-0.9774,-0.9485,144.8,95.3,0.587
41.72,31678.0,34587.9,-1.2666,-1.0135,144.7,95.3,0.587
41.74,31727.8,34358.0,-1.0712,-1.5788,144.7,95.3,0.588
41.76,31836.7,34425.6,-0.6434,-1.4126,144.7,95.3,0.588
41.78,31938.6,34833.2,-0.243,-0.4106,144.7,95.3,0.589
41.8,32172.3,35205.6,0.6752,0.5051,144.7,95.3,0.589
41.82,32274.4,35420.5,1.0762,1.0333,144.6,95.3,0.59
41.84,32312.8,35676.6,1.227,1.663,144.6,95.2,0.59
41.86,32451.7,35768.3,1.7727,1.8884,144.6,95.2,0.591
41.88,32272.2,35484.8,1.0677,1.1913,144.6,95.2,0.591
41.9,32241.5,35354.0,0.9471,0.8699,144.6,95.2,0.592
41.92,32165.4,35293.3,0.648,0.7206,144.5,95.2,0.592
41.94,32028.8,35166.9,0.1115,0.4098,144.5,95.2,0.593
41.96,32108.6,34977.8,0.425,-0.055,144.5,95.2,0.593
41.98,32018.0,35035.4,0.0689,0.0867,144.5,95.2,0.594
42.0,31901.5,34884.8,-0.3887,-0.2836,144.5,95.1,0.594
42.02,31829.8,34795.8,-0.6703,-0.5024,144.4,95.1,0.595
42.04,31823.9,34731.9,-0.6937,-0.6595,144.4,95.1,0.595
42.06,31852.1,34750.5,-0.5829,-0.6138,144.4,95.1,0.596
42.08,31699.1,34602.6,-1.1839,-0.9775,144.4,95.1,0.596
42.1,31821.6,34619.5,-0.7025,-0.9358,144.4,95.1,0.597
42.12,31817.3,34587.7,-0.7193,-1.0141,144.3,95.1,0.597
42.14,31721.7,34423.8,-1.0952,-1.4171,144.3,95.1,0.598
42.16,31663.4,34501.2,-1.3242,-1.2268,144.3,95.0,0.598
42.18,31813.3,34679.9,-0.7352,-0.7875,144.3,95.0,0.599
42.2,31982.8,34815.6,-0.0695,-0.4539,144.3,95.0,0.599
42.22,32204.2,35255.1,0.8004,0.6268,144.2,95.0,0.6
42.24,32259.2,35598.7,1.0163,1.4714,144.2,95.0,0.6
42.26,32373.5,35638.5,1.4656,1.5694,144.2,95.0,0.601
42.28,32374.7,35675.6,1.4702,1.6604,144.2,95.0,0.601
42.3,32398.7,35555.3,1.5645,1.3647,144.2,95.0,0.602
42.32,32146.0,35285.2,0.5719,0.7006,144.1,94.9,0.602
42.34,32057.0,35193.4,0.2223,0.4749,144.1,94.9,0.603
42.36,32195.4,35183.8,0.7658,0.4513,144.1,94.9,0.603
42.38,31965.8,35040.5,-0.1362,0.099,144.1,94.9,0.604
42.4,32032.9,34967.2,0.1275,-0.0811,144.1,94.9,0.604
42.42,31986.2,34931.9,-0.0562,-0.1678,144.0,94.9,0.605
42.44,31764.5,34733.2,-0.9268,-0.6564,144.0,94.9,0.605
42.46,31769.5,34747.5,-0.9071,-0.6211,144.0,94.9,0.606
42.48,31847.8,34592.3,-0.5998,-1.0028,144.0,94.8,0.606
42.5,31743.9,34702.4,-1.0078,-0.7322,144.0,94.8,0.607
42.52,31853.5,34589.7,-0.5772,-1.0093,143.9,94.8,0.607
42.54,31723.7,34623.3,-1.0871,-0.9265,143.9,94.8,0.608
42.56,31608.1,34510.0,-1.5413,-1.205,143.9,94.8,0.608
42.58,31659.3,34623.0,-1.3402,-0.9272,143.9,94.8,0.609
42.6,31763.0,34662.3,-0.9329,-0.8307,143.9,94.8,0.609
42.62,32002.4,34936.2,0.0077,-0.1574,143.8,94.8,0.61
42.64,32142.1,35332.2,0.5566,0.8162,143.8,94.7,0.61
42.66,32356.3,35620.0,1.3978,1.5239,143.8,94.7,0.611
42.68,32427.1,35733.8,1.6759,1.8037,143.8,94.7,0.611
42.7,32391.9,35766.1,1.5377,1.8829,143.8,94.7,0.612
42.72,32335.5,35527.4,1.3162,1.2962,143.7,94.7,0.612
42.74,32141.3,35326.6,0.5534,0.8024,143.7,94.7,0.613
42.76,32143.2,35231.3,0.5609,0.5683,143.7,94.7,0.613
42.78,32075.0,35110.8,0.2929,0.2719,143.7,94.7,0.614
42.8,31994.1,35049.7,-0.0248,0.1218,143.7,94.6,0.615
42.82,31891.4,35058.7,-0.4285,0.1438,143.6,94.6,0.615
42.84,31841.0,34805.5,-0.6264,-0.4785,143.6,94.6,0.616
42.86,31846.2,34850.7,-0.6059,-0.3675,143.6,94.6,0.616
42.88,31835.9,34674.2,-0.6464,-0.8014,143.6,94.6,0.617
42.9,31789.6,34734.1,-0.8284,-0.6541,143.6,94.6,0.617
42.92,31857.3,34662.4,-0.5624,-0.8304,143.5,94.6,0.618
42.94,31686.2,34590.1,-1.2345,-1.0083,143.5,94.5,0.618
42.96,31753.5,34544.3,-0.9701,-1.1207,143.5,94.5,0.619
42.98,31633.4,34545.0,-1.442,-1.119,143.5,94.5,0.619
43.0,31625.9,34491.8,-1.4715,-1.2499,143.5,94.5,0.62
43.02,31851.9,34721.5,-0.5834,-0.6851,143.4,94.5,0.62
43.04,31888.6,34909.5,-0.4393,-0.2231,143.4,94.5,0.621
43.06,32121.4,35350.7,0.4751,0.8616,143.4,94.5,0.621
43.08,32444.8,35618.9,1.7457,1.5211,143.4,94.5,0.622
43.1,32413.7,35748.3,1.6233,1.8391,143.4,94.4,0.622
43.12,32369.7,35634.5,1.4504,1.5594,143.3,94.4,0.623
43.14,32310.4,35435.9,1.2174,1.0713,143.3,94.4,0.623
43.16,32168.1,35325.8,0.6584,0.8004,143.3,94.4,0.624
43.18,32189.4,35143.2,0.7422,0.3517,143.3,94.4,0.624
43.2,32016.2,35118.1,0.0619,0.2899,143.3,94.4,0.625
43.22,32019.7,35024.0,0.0755,0.0585,143.2,94.4,0.625
43.24,31978.8,35059.6,-0.0851,0.1461,143.2,94.4,0.626
43.26,31992.6,34838.4,-0.0309,-0.3978,143.2,94.3,0.626
43.28,31868.4,34706.3,-0.5186,-0.7224,143.2,94.3,0.627
43.3,31860.8,34651.6,-0.5486,-0.8569,143.2,94.3,0.627
43.32,31779.8,34643.0,-0.8668,-0.8782,143.1,94.3,0.628
43.34,31837.2,34673.4,-0.6411,-0.8035,143.1,94.3,0.628
43.36,31740.0,34526.7,-1.0233,-1.164,143.1,94.3,0.629
43.38,31722.5,34511.9,-1.0918,-1.2003,143.1,94.3,0.629
43.4,31758.2,34471.0,-0.9515,-1.3009,143.1,94.3,0.63
43.42,31740.5,34416.8,-1.0211,-1.4342,143.0,94.2,0.63
43.44,31761.3,34619.8,-0.9394,-0.9351,143.0,94.2,0.631
43.46,32074.2,35119.8,0.2897,0.2941,143.0,94.2,0.631
43.48,32227.2,35343.6,0.8909,0.8443,143.0,94.2,0.632
43.5,32292.4,35609.4,1.147,1.4976,143.0,94.2,0.632
43.52,32401.9,35770.8,1.5769,1.8945,142.9,94.2,0.633
43.54,32404.2,35697.0,1.586,1.713,142.9,94.2,0.633
43.56,32334.9,35432.3,1.314,1.0623,142.9,94.2,0.634
43.58,32127.7,35267.1,0.4999,0.6563,142.9,94.1,0.634
43.6,32120.6,35181.6,0.4721,0.446,142.9,94.1,0.635
43.62,32144.0,35130.9,0.5641,0.3212,142.8,94.1,0.635
43.64,32091.8,34993.1,0.3589,-0.0175,142.8,94.1,0.636
43.66,31913.7,34966.7,-0.3408,-0.0824,142.8,94.1,0.636
43.68,31844.4,34958.3,-0.6131,-0.1031,142.8,94.1,0.637
43.7,31859.4,34780.7,-0.5542,-0.5395,142.8,94.1,0.637
43.72,31865.5,34679.8,-0.5301,-0.7875,142.7,94.1,0.638
43.74,31868.6,34659.9,-0.5179,-0.8365,142.7,94.0,0.638
43.76,31878.2,34631.9,-0.4801,-0.9054,142.7,94.0,0.639
43.78,31835.4,34638.1,-0.6485,-0.8901,142.7,94.0,0.639
43.8,31771.8,34498.5,-0.8984,-1.2333,142.7,94.0,0.64
43.82,31714.8,34435.8,-1.1221,-1.3874,142.6,94.0,0.64
43.84,31785.9,34425.0,-0.8429,-1.414,142.6,94.0,0.641
43.86,31749.6,34626.2,-0.9856,-0.9193,142.6,94.0,0.641
43.88,31978.1,34960.6,-0.088,-0.0973,142.6,94.0,0.642
43.9,32266.1,35334.5,1.0435,0.822,142.6,93.9,0.643
43.92,32368.8,35609.8,1.4469,1.4988,142.5,93.9,0.643
43.94,32450.6,35853.3,1.7684,2.0973,142.5,93.9,0.644
43.96,32428.7,35755.3,1.6822,1.8563,142.5,93.9,0.644
43.98,32260.1,35475.2,1.02,1.1679,142.5,93.9,0.645
44.0,32263.6,35330.9,1.0337,0.8129,142.5,93.9,0.645
44.02,32151.9,35199.4,0.5948,0.4898,142.4,93.9,0.646
44.04,32011.5,35045.1,0.0436,0.1104,142.4,93.8,0.646
44.06,32022.9,35005.1,0.0884,0.012,142.4,93.8,0.647
44.08,32062.2,35079.9,0.2426,0.1959,142.4,93.8,0.647
44.1,31874.5,34954.7,-0.4947,-0.1119,142.4,93.8,0.648
44.12,31939.0,34789.9,-0.2413,-0.517,142.3,93.8,0.648
44.14,31849.7,34767.9,-0.5923,-0.5711,142.3,93.8,0.649
44.16,31784.6,34724.6,-0.848,-0.6774,142.3,93.8,0.649
44.18,31856.1,34602.4,-0.567,-0.9778,142.3,93.8,0.65
44.2,31723.1,34598.5,-1.0895,-0.9875,142.3,93.7,0.65
44.22,31734.9,34540.8,-1.0432,-1.1293,142.2,93.7,0.651
44.24,31731.2,34442.2,-1.0578,-1.3717,142.2,93.7,0.651
44.26,31733.6,34477.9,-1.0482,-1.2839,142.2,93.7,0.652
44.28,31823.8,34668.9,-0.694,-0.8145,142.2,93.7,0.652
44.3,31932.5,34893.9,-0.2671,-0.2612,142.2,93.7,0.653
44.32,32183.7,35314.4,0.72,0.7726,142.1,93.7,0.653
44.34,32362.9,35556.4,1.424,1.3673,142.1,93.7,0.654
44.36,32414.7,35748.5,1.6272,1.8397,142.1,93.6,0.654
44.38,32441.3,35710.5,1.7318,1.7463,142.1,93.6,0.655
44.4,32367.9,35496.1,1.4435,1.2191,142.1,93.6,0.655
44.42,32253.1,35369.8,0.9927,0.9086,142.0,93.6,0.656
44.44,32113.5,35140.3,0.444,0.3445,142.0,93.6,0.656
44.46,31993.9,35121.5,-0.0259,0.2982,142.0,93.6,0.657
44.48,32002.0,35109.1,0.0061,0.2678,142.0,93.6,0.657
44.5,31986.0,34957.9,-0.0569,-0.1041,142.0,93.6,0.658
44.52,31977.9,34904.5,-0.0887,-0.2352,141.9,93.5,0.658
44.54,31897.1,34749.2,-0.4059,-0.6169,141.9,93.5,0.659
44.56,31809.4,34755.0,-0.7504,-0.6028,141.9,93.5,0.659
44.58,31787.6,34677.2,-0.8361,-0.794,141.9,93.5,0.66
44.6,31710.5,34729.1,-1.139,-0.6665,141.9,93.5,0.66
44.62,31688.8,34617.1,-1.2243,-0.9417,141.8,93.5,0.661
44.64,31701.1,34540.6,-1.1758,-1.13,141.8,93.5,0.661
44.66,31775.0,34428.3,-0.8857,-1.406,141.8,93.5,0.662
44.68,31589.1,34498.2,-1.616,-1.2341,141.8,93.4,0.662
44.7,31741.4,34633.1,-1.0177,-0.9024,141.8,93.4,0.663
44.72,31946.2,34970.4,-0.2129,-0.0732,141.7,93.4,0.663
44.74,32120.9,35345.3,0.4731,0.8483,141.7,93.4,0.664
44.76,32413.8,35587.2,1.6238,1.443,141.7,93.4,0.664
44.78,32425.1,35791.3,1.6682,1.9448,141.7,93.4,0.665
44.8,32364.1,35710.1,1.4286,1.7453,141.7,93.4,0.665
44.82,32309.8,35501.8,1.2152,1.2332,141.6,93.4,0.666
44.84,32266.2,35290.4,1.0441,0.7134,141.6,93.3,0.666
44.86,32116.6,35216.5,0.4562,0.5317,141.6,93.3,0.667
44.88,32070.6,35166.1,0.2756,0.4079,141.6,93.3,0.667
