timestamp,raw_red,raw_ir,filtered_red,filtered_ir,heart_rate,spo2,ac_dc_ratio
0.0,32144.9,35163.8,0.8012,0.4037,149.9,98.2,0.471
0.02,32191.9,35541.0,1.0598,1.3295,149.9,98.2,0.471
0.04,32283.8,35793.5,1.5667,1.9491,149.9,98.2,0.471
0.06,32333.2,35850.6,1.8389,2.0893,149.9,98.2,0.471
0.08,32242.8,35569.1,1.3405,1.3984,149.9,98.2,0.471
0.1,32165.8,35295.7,0.9163,0.7276,149.9,98.2,0.471
0.12,32018.4,35186.3,0.1036,0.4589,149.9,98.2,0.471
0.14,32043.0,35115.7,0.2393,0.2856,149.9,98.2,0.471
0.16,32053.3,35052.8,0.2962,0.1312,149.9,98.2,0.471
0.18,31917.4,34978.4,-0.4534,-0.0513,149.9,98.2,0.471
0.2,31914.4,34728.8,-0.4697,-0.6638,149.9,98.2,0.471
0.22,31889.2,34805.0,-0.6085,-0.4768,149.9,98.2,0.471
0.24,31849.7,34761.7,-0.8263,-0.5831,149.9,98.2,0.471
0.26,31862.7,34699.2,-0.7549,-0.7365,149.9,98.2,0.471
0.28,31869.7,34622.0,-0.7162,-0.926,149.9,98.2,0.471
0.3,31777.6,34648.6,-1.2237,-0.8608,149.9,98.2,0.471
0.32,31784.1,34499.4,-1.1882,-1.2268,149.9,98.2,0.471
0.34,31771.5,34497.8,-1.2573,-1.2307,149.9,98.2,0.471
0.36,31811.4,34553.8,-1.0373,-1.0933,149.9,98.2,0.471
0.38,31939.4,34786.5,-0.3318,-0.5223,149.9,98.2,0.471
0.4,32083.1,35130.6,0.4604,0.3223,149.9,98.2,0.471
0.42,32276.5,35525.0,1.5262,1.2903,149.9,98.2,0.471
0.44,32324.9,35730.3,1.7932,1.7942,149.9,98.2,0.471
0.46,32370.3,35684.5,2.0435,1.6817,149.9,98.2,0.471
0.48,32272.9,35632.9,1.5067,1.5551,149.9,98.2,0.471
0.5,32110.7,35386.8,0.6127,0.951,149.9,98.2,0.471
0.52,32094.7,35117.2,0.5245,0.2893,149.9,98.2,0.471
0.54,32015.1,35099.9,0.0855,0.247,149.9,98.2,0.471
0.56,32055.3,35041.5,0.3069,0.1036,149.9,98.2,0.471
0.58,32018.9,35004.8,0.1062,0.0136,149.9,98.2,0.471
0.6,31970.1,34876.9,-0.1625,-0.3003,149.9,98.2,0.471
0.62,31982.7,34656.6,-0.0934,-0.8412,149.9,98.2,0.471
0.64,31915.4,34740.9,-0.4642,-0.6341,149.9,98.2,0.471
0.66,31821.8,34624.7,-0.98,-0.9192,149.9,98.2,0.471
0.68,31811.2,34706.2,-1.0384,-0.7192,149.9,98.2,0.471
0.7,31880.8,34632.6,-0.6552,-0.9,149.9,98.2,0.471
0.72,31727.9,34407.0,-1.498,-1.4537,149.9,98.2,0.471
0.74,31674.1,34471.8,-1.7944,-1.2947,149.9,98.2,0.471
0.76,31725.1,34574.9,-1.5133,-1.0417,149.9,98.2,0.471
0.78,31963.1,34776.7,-0.2014,-0.5462,149.9,98.2,0.471
0.8,32094.8,35169.1,0.5248,0.4166,149.9,98.2,0.471
0.82,32305.6,35460.9,1.6867,1.1328,149.9,98.2,0.471
0.84,32262.1,35739.4,1.4472,1.8165,149.9,98.2,0.471
0.86,32262.2,35756.6,1.4475,1.8587,149.9,98.2,0.471
0.88,32314.9,35567.0,1.7381,1.3934,149.9,98.2,0.471
0.9,32114.9,35331.2,0.6356,0.8146,149.9,98.2,0.471
0.92,32133.4,35254.2,0.7374,0.6256,149.9,98.2,0.471
0.94,32009.0,35143.1,0.0519,0.353,149.9,98.2,0.471
0.96,32048.6,34990.2,0.2701,-0.0222,149.9,98.2,0.471
0.98,31985.8,35036.1,-0.0761,0.0903,149.9,98.2,0.471
1.0,31865.3,34925.9,-0.7406,-0.1802,149.9,98.2,0.471
1.02,31795.0,34825.1,-1.1278,-0.4275,149.9,98.2,0.471
1.04,31754.3,34683.9,-1.3523,-0.774,149.9,98.2,0.471
1.06,31856.2,34628.4,-0.7906,-0.9102,149.9,98.2,0.471
1.08,31810.1,34640.5,-1.0444,-0.8805,149.9,98.2,0.471
1.1,31770.3,34575.5,-1.264,-1.0401,149.9,98.2,0.471
1.12,31760.0,34410.2,-1.321,-1.4457,149.9,98.2,0.471
1.14,31744.7,34457.8,-1.405,-1.3289,149.9,98.2,0.471
1.16,31731.0,34598.4,-1.4809,-0.984,149.9,98.2,0.471
1.18,31908.8,34786.3,-0.5005,-0.5227,149.9,98.2,0.471
1.2,32091.1,35127.6,0.5041,0.3149,149.9,98.2,0.471
1.22,32249.9,35616.8,1.3798,1.5156,149.9,98.2,0.471
1.24,32268.2,35677.2,1.4804,1.6638,149.9,98.2,0.471
1.26,32370.7,35706.1,2.0459,1.7348,149.9,98.2,0.471
1.28,32220.8,35528.7,1.2195,1.2994,149.9,98.2,0.471
1.3,32196.3,35380.5,1.0845,0.9355,149.9,98.2,0.471
1.32,32058.6,35254.4,0.3255,0.6261,149.9,98.2,0.471
1.34,32023.9,35157.1,0.1339,0.3873,149.9,98.2,0.471
1.36,32040.1,35068.9,0.2233,0.1707,149.9,98.2,0.471
1.38,31995.9,35025.6,-0.0205,0.0646,149.9,98.2,0.471
1.4,31969.5,34917.2,-0.1658,-0.2014,149.9,98.2,0.471
1.42,31899.4,34747.7,-0.5521,-0.6176,149.9,98.2,0.471
1.44,31863.7,34709.3,-0.7494,-0.7118,149.9,98.2,0.471
1.46,31857.0,34673.1,-0.786,-0.8006,149.9,98.2,0.471
1.48,31890.4,34786.9,-0.6019,-0.5213,149.9,98.2,0.471
1.5,31711.7,34564.4,-1.5869,-1.0673,149.9,98.2,0.471
1.52,31847.3,34534.2,-0.8398,-1.1414,149.9,98.2,0.471
1.54,31774.0,34437.1,-1.2434,-1.3798,149.9,98.2,0.471
1.56,31833.7,34458.8,-0.9148,-1.3266,149.9,98.2,0.471
1.58,31938.5,34867.8,-0.3369,-0.3228,149.9,98.2,0.471
1.6,31983.9,35200.3,-0.0865,0.4934,149.9,98.2,0.471
1.62,32268.4,35485.9,1.4816,1.1943,149.9,98.2,0.471
1.64,32260.0,35699.4,1.4354,1.7183,149.9,98.2,0.471
1.66,32266.3,35690.1,1.47,1.6954,149.9,98.2,0.471
1.68,32309.3,35457.8,1.7072,1.1253,149.9,98.2,0.471
1.7,32117.4,35374.0,0.6493,0.9196,149.9,98.2,0.471
1.72,31980.6,35229.6,-0.105,0.5652,149.9,98.2,0.471
1.74,31921.7,35011.0,-0.4294,0.0287,149.9,98.2,0.471
1.76,32031.1,34986.6,0.1736,-0.0311,149.9,98.2,0.471
1.78,31940.0,35015.8,-0.3284,0.0405,149.9,98.2,0.471
1.8,31891.5,35006.5,-0.596,0.0177,149.9,98.2,0.471
1.82,31928.0,34689.9,-0.3948,-0.7594,149.9,98.2,0.471
1.84,31818.9,34666.1,-0.9963,-0.8177,149.9,98.2,0.471
1.86,31866.7,34695.0,-0.7324,-0.7467,149.9,98.2,0.471
1.88,31804.0,34678.7,-1.0781,-0.7868,149.9,98.2,0.471
1.9,31884.3,34549.8,-0.6355,-1.1031,149.9,98.2,0.471
1.92,31707.8,34465.8,-1.6084,-1.3094,149.9,98.2,0.471
1.94,31817.0,34499.2,-1.0066,-1.2273,149.9,98.2,0.471
1.96,31906.5,34517.6,-0.5132,-1.1821,149.9,98.2,0.471
1.98,31954.5,34837.5,-0.2488,-0.3971,149.9,98.2,0.471
2.0,32084.8,35157.7,0.4698,0.3888,149.9,98.2,0.471
2.02,32267.5,35482.4,1.4765,1.1857,149.9,98.2,0.471
2.04,32239.4,35724.0,1.3218,1.7786,149.9,98.2,0.471
2.06,32371.5,35743.0,2.0503,1.8252,149.9,98.2,0.471
2.08,32233.0,35578.9,1.2864,1.4224,149.9,98.2,0.471
2.1,32070.1,35387.8,0.3884,0.9534,149.9,98.2,0.471
2.12,32118.6,35268.4,0.6562,0.6604,149.9,98.2,0.471
2.14,32006.3,35042.8,0.0368,0.1067,149.9,98.2,0.471
2.16,31992.0,35121.6,-0.042,0.3003,149.9,98.2,0.471
2.18,31990.3,35001.2,-0.0513,0.0047,149.9,98.2,0.471
2.2,31970.8,34850.8,-0.1586,-0.3645,149.9,98.2,0.471
2.22,31953.4,34803.6,-0.255,-0.4802,149.9,98.2,0.471
2.24,31886.2,34678.5,-0.625,-0.7873,149.9,98.2,0.471
2.26,31771.0,34640.9,-1.26,-0.8795,149.9,98.2,0.471
2.28,31891.9,34699.5,-0.5935,-0.7358,149.9,98.2,0.471
2.3,31746.4,34608.6,-1.3957,-0.9588,149.9,98.2,0.471
2.32,31778.4,34446.4,-1.2196,-1.3568,149.9,98.2,0.471
2.34,31780.0,34423.7,-1.2106,-1.4127,149.9,98.2,0.471
2.36,31771.7,34550.4,-1.2562,-1.1017,149.9,98.2,0.471
2.38,31887.1,34740.8,-0.62,-0.6344,149.9,98.2,0.471
2.4,32154.9,35213.2,0.8559,0.5249,149.9,98.2,0.471
2.42,32224.0,35552.1,1.2369,1.3566,149.9,98.2,0.471
2.44,32410.2,35687.5,2.2632,1.689,149.9,98.2,0.471
2.46,32253.0,35754.7,1.397,1.8539,149.9,98.2,0.471
2.48,32205.5,35540.4,1.1348,1.328,149.9,98.2,0.471
2.5,32236.9,35306.0,1.3079,0.7527,149.9,98.2,0.471
2.52,32078.1,35080.9,0.4328,0.2002,149.9,98.2,0.471
2.54,32095.5,35149.3,0.5289,0.3682,149.9,98.2,0.471
2.56,32058.2,35095.2,0.323,0.2354,149.9,98.2,0.471
2.58,32020.5,35015.7,0.115,0.0403,149.9,98.2,0.471
2.6,31951.9,34902.6,-0.2629,-0.2372,149.9,98.2,0.471
2.62,31834.0,34833.2,-0.913,-0.4075,149.9,98.2,0.471
2.64,31920.2,34664.3,-0.4379,-0.8222,149.9,98.2,0.471
2.66,31810.0,34695.1,-1.0451,-0.7465,149.9,98.2,0.471
2.68,31877.9,34611.9,-0.6708,-0.9509,149.9,98.2,0.471
2.7,31744.1,34601.8,-1.4084,-0.9755,149.9,98.2,0.471
2.72,31819.5,34564.7,-0.9931,-1.0667,149.9,98.2,0.471
2.74,31763.2,34401.7,-1.3031,-1.4666,149.9,98.2,0.471
2.76,31701.3,34516.9,-1.6444,-1.184,149.9,98.2,0.471
2.78,31893.5,34797.0,-0.5851,-0.4964,149.9,98.2,0.471
2.8,32095.4,35262.5,0.5283,0.6459,149.9,98.2,0.471
2.82,32273.1,35593.3,1.5076,1.4579,149.9,98.2,0.471
2.84,32300.1,35836.1,1.6566,2.0537,149.9,98.2,0.471
2.86,32286.7,35723.0,1.5828,1.7762,149.9,98.2,0.471
2.88,32200.1,35590.2,1.1052,1.4502,149.9,98.2,0.471
2.9,32163.9,35310.4,0.9057,0.7635,149.9,98.2,0.471
2.92,32141.2,35189.2,0.7807,0.466,149.9,98.2,0.471
2.94,32039.1,35156.8,0.2178,0.3867,149.9,98.2,0.471
2.96,32073.0,35000.7,0.4045,0.0035,149.9,98.2,0.471
2.98,32052.6,35003.0,0.2922,0.0091,149.9,98.2,0.471
3.0,31913.4,34994.0,-0.4755,-0.0129,149.9,98.2,0.471
3.02,31878.7,34856.8,-0.6665,-0.3497,149.9,98.2,0.471
3.04,31875.1,34675.3,-0.6862,-0.7951,149.9,98.2,0.471
3.06,31891.9,34670.9,-0.594,-0.806,149.9,98.2,0.471
3.08,31851.4,34550.1,-0.8172,-1.1024,149.9,98.2,0.471
3.1,31829.4,34650.8,-0.9382,-0.8552,149.9,98.2,0.471
3.12,31750.5,34522.2,-1.3733,-1.1709,149.9,98.2,0.471
3.14,31708.1,34477.5,-1.6068,-1.2807,149.9,98.2,0.471
3.16,31698.9,34593.4,-1.6579,-0.9961,149.9,98.2,0.471
3.18,31959.0,34877.5,-0.2238,-0.2988,149.9,98.2,0.471
3.2,32103.6,35099.1,0.5733,0.2451,149.9,98.2,0.471
3.22,32095.6,35487.6,0.5294,1.1984,149.9,98.2,0.471
3.24,32388.4,35700.0,2.1431,1.7198,149.9,98.2,0.471
3.26,32398.7,35789.5,2.2,1.9395,149.9,98.2,0.471
3.28,32281.8,35566.8,1.5556,1.3927,149.9,98.2,0.471
3.3,32145.5,35413.8,0.8044,1.0173,149.9,98.2,0.471
3.32,32122.7,35138.2,0.6783,0.341,149.9,98.2,0.471
3.34,32054.5,35066.0,0.3027,0.1637,149.9,98.2,0.471
3.36,32059.0,35008.7,0.3276,0.0232,149.9,98.2,0.471
3.38,32044.0,35041.4,0.245,0.1033,149.9,98.2,0.471
3.4,31984.1,34869.4,-0.0858,-0.3188,149.9,98.2,0.471
3.42,31894.6,34766.8,-0.5786,-0.5705,149.9,98.2,0.471
3.44,31914.5,34667.2,-0.469,-0.815,149.9,98.2,0.471
3.46,31817.0,34557.8,-1.0068,-1.0835,149.9,98.2,0.471
3.48,31806.1,34655.8,-1.0669,-0.843,149.9,98.2,0.471
3.5,31846.3,34619.5,-0.8453,-0.9321,149.9,98.2,0.471
3.52,31907.4,34567.5,-0.5085,-1.0597,149.9,98.2,0.471
3.54,31651.8,34401.5,-1.9172,-1.4671,149.9,98.2,0.471
3.56,31885.9,34567.6,-0.627,-1.0595,149.9,98.2,0.471
3.58,31877.9,34843.8,-0.6708,-0.3817,149.9,98.2,0.471
3.6,32129.7,35079.0,0.717,0.1957,149.9,98.2,0.471
3.62,32129.8,35473.1,0.7179,1.1629,149.9,98.2,0.471
3.64,32284.1,35760.6,1.5681,1.8684,149.9,98.2,0.471
3.66,32279.2,35775.4,1.5413,1.9048,149.9,98.2,0.471
3.68,32321.9,35515.5,1.7768,1.267,149.9,98.2,0.471
3.7,32202.3,35333.4,1.1174,0.8201,149.9,98.2,0.471
3.72,32147.7,35236.0,0.8163,0.5809,149.9,98.2,0.471
3.74,32001.7,35050.7,0.0117,0.1263,149.9,98.2,0.471
3.76,32140.4,35067.6,0.776,0.1677,149.9,98.2,0.471
3.78,32032.1,34980.5,0.1789,-0.0461,149.9,98.2,0.471
3.8,31857.4,34879.4,-0.7842,-0.2943,149.9,98.2,0.471
3.82,31900.9,34855.8,-0.544,-0.3522,149.9,98.2,0.471
3.84,31838.6,34744.4,-0.8874,-0.6256,149.9,98.2,0.471
3.86,31876.0,34671.2,-0.6815,-0.8053,149.9,98.2,0.471
3.88,31782.1,34716.2,-1.1989,-0.6948,149.9,98.2,0.471
3.9,31836.1,34614.5,-0.9016,-0.9443,149.9,98.2,0.471
3.92,31760.8,34492.2,-1.3165,-1.2445,149.9,98.2,0.471
3.94,31816.0,34468.0,-1.012,-1.3039,149.9,98.2,0.471
3.96,31748.6,34498.9,-1.3839,-1.2282,149.9,98.2,0.471
3.98,31792.7,34723.3,-1.1405,-0.6775,149.9,98.2,0.471
4.0,32004.1,35079.9,0.0249,0.1978,149.9,98.2,0.471
4.02,32274.6,35485.4,1.5162,1.1931,149.9,98.2,0.471
4.04,32460.5,35687.9,2.541,1.6902,149.9,98.2,0.471
4.06,32233.3,35816.0,1.2882,2.0043,149.9,98.2,0.471
4.08,32317.4,35570.2,1.7519,1.4012,149.9,98.2,0.471
4.1,32183.9,35396.2,1.0161,0.9741,149.9,98.2,0.471
4.12,32013.1,35191.2,0.0742,0.4711,149.9,98.2,0.471
4.14,32167.5,35176.3,0.9255,0.4344,149.9,98.2,0.471
4.16,32077.1,35067.4,0.4274,0.1672,149.9,98.2,0.471
4.18,32031.4,35054.0,0.1751,0.1343,149.9,98.2,0.471
4.2,31941.2,34920.0,-0.3221,-0.1947,149.9,98.2,0.471
4.22,31944.1,34782.2,-0.3061,-0.5329,149.9,98.2,0.471
4.24,31958.2,34737.7,-0.2283,-0.6419,149.9,98.2,0.471
4.26,31882.4,34648.4,-0.6461,-0.8613,149.9,98.2,0.471
4.28,31843.1,34723.2,-0.863,-0.6776,149.9,98.2,0.471
4.3,31920.0,34555.0,-0.4391,-1.0905,149.9,98.2,0.471
4.32,31869.5,34586.9,-0.7173,-1.0121,149.9,98.2,0.471
4.34,31794.0,34375.9,-1.1332,-1.53,149.9,98.2,0.471
4.36,31796.8,34408.3,-1.1181,-1.4505,149.9,98.2,0.471
4.38,31873.5,34674.2,-0.6951,-0.798,149.9,98.2,0.471
4.4,32002.4,35127.0,0.0157,0.3134,149.9,98.2,0.471
4.42,32224.8,35457.5,1.2415,1.1246,149.9,98.2,0.471
4.44,32295.0,35773.5,1.6284,1.9001,149.9,98.2,0.471
4.46,32291.4,35794.5,1.6086,1.9517,149.9,98.2,0.471
4.48,32271.4,35608.3,1.4984,1.4948,149.9,98.2,0.471
4.5,32102.9,35331.0,0.5692,0.8141,149.9,98.2,0.471
4.52,31976.1,35159.4,-0.1293,0.3929,149.9,98.2,0.471
4.54,32027.8,35181.3,0.1553,0.4468,149.9,98.2,0.471
4.56,31976.0,35086.7,-0.1299,0.2146,149.9,98.2,0.471
4.58,31899.6,34979.2,-0.5512,-0.0492,149.9,98.2,0.471
4.6,31975.9,34938.1,-0.1308,-0.1502,149.9,98.2,0.471
4.62,31960.9,34698.1,-0.2135,-0.7391,149.9,98.2,0.471
4.64,31922.6,34607.0,-0.4245,-0.9628,149.9,98.2,0.471
4.66,31890.6,34565.8,-0.6008,-1.064,149.9,98.2,0.471
4.68,31846.2,34708.2,-0.8458,-0.7145,149.9,98.2,0.471
4.7,31868.9,34609.5,-0.7206,-0.9567,149.9,98.2,0.471
4.72,31763.6,34523.9,-1.3008,-1.1667,149.9,98.2,0.471
4.74,31778.3,34513.8,-1.2199,-1.1916,149.9,98.2,0.471
4.76,31815.2,34561.3,-1.0166,-1.0749,149.9,98.2,0.471
4.78,31882.1,34736.6,-0.6476,-0.6447,149.9,98.2,0.471
4.8,32045.5,35144.7,0.2531,0.3569,149.9,98.2,0.471
4.82,32197.6,35527.7,1.0915,1.2968,149.9,98.2,0.471
4.84,32315.1,35646.8,1.739,1.5893,149.9,98.2,0.471
4.86,32387.9,35749.7,2.1405,1.8418,149.9,98.2,0.471
4.88,32238.2,35543.3,1.3154,1.3351,149.9,98.2,0.471
4.9,32224.0,35279.8,1.2369,0.6886,149.9,98.2,0.471
4.92,32156.9,35194.6,0.8671,0.4793,149.9,98.2,0.471
4.94,31965.4,35151.4,-0.1887,0.3733,149.9,98.2,0.471
4.96,31998.2,35109.5,-0.0076,0.2705,149.9,98.2,0.471
4.98,31992.7,35047.2,-0.038,0.1175,149.9,98.2,0.471
5.0,32019.8,34981.4,0.1111,-0.0439,149.9,98.2,0.471
5.02,31894.5,34747.9,-0.5792,-0.617,149.9,98.2,0.471
5.04,31891.2,34738.8,-0.5975,-0.6393,149.9,98.2,0.471
5.06,31906.3,34634.5,-0.5142,-0.8952,149.9,98.2,0.471
5.08,31790.4,34633.3,-1.1535,-0.8983,149.9,98.2,0.471
5.1,31835.8,34652.8,-0.9028,-0.8504,149.9,98.2,0.471
5.12,31791.5,34529.5,-1.1471,-1.153,149.9,98.2,0.471
5.14,31766.7,34482.0,-1.2837,-1.2696,149.9,98.2,0.471
5.16,31836.7,34565.1,-0.8981,-1.0657,149.9,98.2,0.471
5.18,31879.0,34727.3,-0.6646,-0.6675,149.9,98.2,0.471
5.2,32118.7,35216.6,0.6566,0.5332,149.9,98.2,0.471
5.22,32294.0,35484.2,1.6226,1.1902,149.9,98.2,0.471
5.24,32341.3,35724.6,1.8834,1.7802,149.9,98.2,0.471
5.26,32278.7,35651.8,1.5386,1.6014,149.9,98.2,0.471
5.28,32210.9,35518.7,1.1646,1.2747,149.9,98.2,0.471
5.3,32176.0,35303.3,0.9726,0.7462,149.9,98.2,0.471
5.32,32109.7,35194.0,0.6069,0.478,149.9,98.2,0.471
5.34,31966.5,35062.8,-0.1823,0.1558,149.9,98.2,0.471
5.36,32000.9,35021.2,0.0072,0.0538,149.9,98.2,0.471
5.38,32114.2,35020.2,0.6319,0.0512,149.9,98.2,0.471
5.4,32008.8,34880.5,0.0505,-0.2916,149.9,98.2,0.471
5.42,31838.5,34834.4,-0.8881,-0.4048,149.9,98.2,0.471
5.44,31898.8,34593.8,-0.5558,-0.9952,149.9,98.2,0.471
5.46,31891.0,34646.2,-0.5988,-0.8665,149.9,98.2,0.471
5.48,31888.0,34553.4,-0.615,-1.0945,149.9,98.2,0.471
5.5,31968.4,34637.3,-0.172,-0.8884,149.9,98.2,0.471
5.52,31706.1,34561.8,-1.6182,-1.0738,149.9,98.2,0.471
5.54,31633.8,34349.1,-2.0166,-1.5957,149.9,98.2,0.471
5.56,31790.9,34513.6,-1.1505,-1.1919,149.9,98.2,0.471
5.58,31919.3,34775.0,-0.4428,-0.5505,149.9,98.2,0.471
5.6,32086.8,35070.3,0.4806,0.1743,149.9,98.2,0.471
5.62,32101.6,35487.1,0.5624,1.1972,149.9,98.2,0.471
5.64,32255.7,35723.9,1.4115,1.7783,149.9,98.2,0.471
5.66,32261.3,35798.4,1.4428,1.9613,149.9,98.2,0.471
5.68,32261.7,35614.6,1.4446,1.5101,149.9,98.2,0.471
5.7,32127.3,35388.4,0.7039,0.955,149.9,98.2,0.471
5.72,32159.7,35241.5,0.8827,0.5945,149.9,98.2,0.471
5.74,31995.9,35121.4,-0.0205,0.2998,149.9,98.2,0.471
5.76,31955.8,35024.9,-0.2414,0.0629,149.9,98.2,0.471
5.78,31916.5,35011.5,-0.4581,0.03,149.9,98.2,0.471
5.8,31864.2,34830.7,-0.7466,-0.4139,149.9,98.2,0.471
5.82,31955.2,34766.6,-0.2446,-0.5712,149.9,98.2,0.471
5.84,31889.0,34753.7,-0.6095,-0.6027,149.9,98.2,0.471
5.86,31847.4,34646.7,-0.8388,-0.8653,149.9,98.2,0.471
5.88,31831.6,34623.9,-0.9259,-0.9213,149.9,98.2,0.471
5.9,31884.2,34583.8,-0.6361,-1.0197,149.9,98.2,0.471
5.92,31814.3,34523.8,-1.0216,-1.1671,149.9,98.2,0.471
5.94,31661.3,34437.2,-1.8649,-1.3794,149.9,98.2,0.471
5.96,31766.1,34526.9,-1.2871,-1.1595,149.9,98.2,0.471
5.98,31930.4,34724.4,-0.3814,-0.6746,149.9,98.2,0.471
6.0,31963.6,35129.6,-0.1982,0.3198,149.9,98.2,0.471
6.02,32247.5,35546.8,1.3667,1.3437,149.9,98.2,0.471
6.04,32401.0,35712.8,2.2128,1.7511,149.9,98.2,0.471
6.06,32294.7,35759.9,1.6268,1.8669,149.9,98.2,0.471
6.08,32215.0,35588.0,1.1874,1.4449,149.9,98.2,0.471
6.1,32117.1,35456.3,0.6475,1.1216,149.9,98.2,0.471
6.12,32140.8,35229.3,0.7785,0.5646,149.9,98.2,0.471
6.14,32149.5,35097.6,0.826,0.2413,149.9,98.2,0.471
6.16,32056.0,35071.8,0.311,0.1779,149.9,98.2,0.471
6.18,32001.2,35008.2,0.0088,0.0218,149.9,98.2,0.471
6.2,32025.7,34826.7,0.1436,-0.4235,149.9,98.2,0.471
6.22,32008.5,34826.9,0.0492,-0.423,149.9,98.2,0.471
6.24,31927.9,34700.9,-0.3951,-0.7323,149.9,98.2,0.471
6.26,31890.2,34719.0,-0.6033,-0.6879,149.9,98.2,0.471
6.28,31882.7,34589.2,-0.6444,-1.0065,149.9,98.2,0.471
6.3,31770.1,34596.6,-1.2649,-0.9882,149.9,98.2,0.471
6.32,31833.2,34530.7,-0.9176,-1.1499,149.9,98.2,0.471
6.34,31806.0,34437.4,-1.0675,-1.379,149.9,98.2,0.471
6.36,31801.8,34572.5,-1.0906,-1.0475,149.9,98.2,0.471
6.38,31813.9,34765.7,-1.0235,-0.5734,149.9,98.2,0.471
6.4,32036.2,35148.0,0.2016,0.3651,149.9,98.2,0.471
6.42,32267.9,35466.8,1.4788,1.1474,149.9,98.2,0.471
6.44,32327.5,35633.1,1.8077,1.5555,149.9,98.2,0.471
6.46,32352.8,35782.3,1.9469,1.9217,149.9,98.2,0.471
6.48,32237.5,35536.1,1.3114,1.3174,149.9,98.2,0.471
6.5,32187.2,35372.4,1.0342,0.9157,149.9,98.2,0.471
6.52,32194.5,35167.3,1.0743,0.4124,149.9,98.2,0.471
6.54,31965.7,35110.0,-0.187,0.2716,149.9,98.2,0.471
6.56,31964.9,35113.2,-0.1914,0.2795,149.9,98.2,0.471
6.58,31900.6,34918.2,-0.546,-0.1989,149.9,98.2,0.471
6.6,31909.7,34835.8,-0.4957,-0.4014,149.9,98.2,0.471
6.62,31975.1,34777.9,-0.135,-0.5434,149.9,98.2,0.471
6.64,31920.1,34717.7,-0.4383,-0.6911,149.9,98.2,0.471
6.66,31869.9,34709.9,-0.7149,-0.7102,149.9,98.2,0.471
6.68,31807.5,34612.0,-1.0588,-0.9505,149.9,98.2,0.471
6.7,31856.6,34574.4,-0.7885,-1.0427,149.9,98.2,0.471
6.72,31752.4,34536.8,-1.363,-1.1352,149.9,98.2,0.471
6.74,31800.9,34404.8,-1.0956,-1.4589,149.9,98.2,0.471
6.76,31766.5,34457.2,-1.2848,-1.3304,149.9,98.2,0.471
6.78,31857.5,34720.4,-0.7832,-0.6845,149.9,98.2,0.471
6.8,31946.4,35085.8,-0.2936,0.2123,149.9,98.2,0.471
6.82,32206.2,35543.2,1.1389,1.3349,149.9,98.2,0.471
6.84,32307.9,35754.8,1.6993,1.8542,149.9,98.2,0.471
6.86,32411.2,35695.8,2.2692,1.7094,149.9,98.2,0.471
6.88,32267.2,35558.1,1.4752,1.3715,149.9,98.2,0.471
6.9,32146.4,35356.9,0.8092,0.8777,149.9,98.2,0.471
6.92,32076.2,35169.9,0.4224,0.4188,149.9,98.2,0.471
6.94,32094.0,34991.1,0.5203,-0.0201,149.9,98.2,0.471
6.96,32113.1,35059.6,0.6255,0.1481,149.9,98.2,0.471
6.98,31989.4,34883.4,-0.0563,-0.2844,149.9,98.2,0.471
7.0,31969.7,34933.9,-0.1647,-0.1605,149.9,98.2,0.471
7.02,31991.0,34803.0,-0.0473,-0.4818,149.9,98.2,0.471
7.04,31855.1,34686.8,-0.7965,-0.767,149.9,98.2,0.471
7.06,31839.8,34727.1,-0.8811,-0.6679,149.9,98.2,0.471
7.08,31834.0,34623.4,-0.913,-0.9224,149.9,98.2,0.471
7.1,31778.7,34660.5,-1.2178,-0.8314,149.9,98.2,0.471
7.12,31733.5,34462.5,-1.4672,-1.3173,149.9,98.2,0.471
7.14,31824.1,34446.4,-0.9674,-1.3569,149.9,98.2,0.471
7.16,31860.9,34435.4,-0.7649,-1.3839,149.9,98.2,0.471
7.18,31729.6,34773.6,-1.4883,-0.554,149.9,98.2,0.471
7.2,32101.1,35076.3,0.5594,0.189,149.9,98.2,0.471
7.22,32241.8,35420.6,1.3354,1.0341,149.9,98.2,0.471
7.24,32285.5,35728.5,1.5763,1.7896,149.9,98.2,0.471
7.26,32464.3,35814.1,2.5619,1.9998,149.9,98.2,0.471
7.28,32278.1,35552.3,1.5355,1.3572,149.9,98.2,0.471
7.3,32170.2,35434.0,0.9406,1.0669,149.9,98.2,0.471
7.32,32169.3,35225.1,0.9355,0.5543,149.9,98.2,0.471
7.34,32050.6,35063.1,0.2812,0.1567,149.9,98.2,0.471
7.36,31968.3,35088.8,-0.1728,0.2198,149.9,98.2,0.471
7.38,32049.5,34990.3,0.275,-0.022,149.9,98.2,0.471
7.4,31956.4,34821.4,-0.2382,-0.4366,149.9,98.2,0.471
7.42,31969.4,34834.7,-0.1666,-0.404,149.9,98.2,0.471
7.44,31908.3,34690.7,-0.5032,-0.7573,149.9,98.2,0.471
7.46,31849.3,34628.0,-0.8285,-0.9112,149.9,98.2,0.471
7.48,31890.2,34601.0,-0.6031,-0.9776,149.9,98.2,0.471
7.5,31758.9,34589.0,-1.3271,-1.0069,149.9,98.2,0.471
7.52,31821.5,34468.1,-0.982,-1.3037,149.9,98.2,0.471
7.54,31782.2,34499.7,-1.1982,-1.2262,149.9,98.2,0.471
7.56,31837.3,34544.7,-0.8948,-1.1156,149.9,98.2,0.471
7.58,31877.0,34785.1,-0.676,-0.5258,149.9,98.2,0.471
7.6,32004.1,35166.3,0.025,0.41,149.9,98.2,0.471
7.62,32163.6,35520.2,0.9038,1.2784,149.9,98.2,0.471
7.64,32289.5,35776.4,1.5978,1.9073,149.9,98.2,0.471
7.66,32432.0,35789.4,2.3835,1.9391,149.9,98.2,0.471
7.68,32215.9,35514.7,1.1923,1.265,149.9,98.2,0.471
7.7,32211.1,35335.1,1.1657,0.8242,149.9,98.2,0.471
7.72,32116.5,35213.1,0.6445,0.5248,149.9,98.2,0.471
7.74,32087.1,35030.4,0.4825,0.0763,149.9,98.2,0.471
7.76,32111.4,35116.3,0.6164,0.2871,149.9,98.2,0.471
7.78,31995.9,35005.2,-0.0202,0.0145,149.9,98.2,0.471
7.8,32075.7,34853.9,0.4196,-0.3568,149.9,98.2,0.471
7.82,31847.5,34770.8,-0.8388,-0.5607,149.9,98.2,0.471
7.84,31875.5,34728.3,-0.6844,-0.6651,149.9,98.2,0.471
7.86,31926.1,34654.9,-0.4052,-0.8453,149.9,98.2,0.471
7.88,31931.3,34680.9,-0.3764,-0.7815,149.9,98.2,0.471
7.9,31786.6,34622.2,-1.1741,-0.9254,149.9,98.2,0.471
7.92,31758.6,34500.0,-1.3285,-1.2254,149.9,98.2,0.471
7.94,31801.0,34492.5,-1.0947,-1.2438,149.9,98.2,0.471
7.96,31874.5,34530.7,-0.6895,-1.1502,149.9,98.2,0.471
7.98,31863.2,34721.1,-0.7521,-0.6828,149.9,98.2,0.471
8.0,32108.4,35053.4,0.5997,0.1329,149.9,98.2,0.471
8.02,32253.5,35537.0,1.3996,1.3198,149.9,98.2,0.471
8.04,32304.1,35661.3,1.6785,1.6247,149.9,98.2,0.471
8.06,32205.8,35626.5,1.1367,1.5393,149.9,98.2,0.471
8.08,32265.2,35562.0,1.4639,1.3811,149.9,98.2,0.471
8.1,32178.6,35278.9,0.9868,0.6863,149.9,98.2,0.471
8.12,32067.1,35197.8,0.3719,0.4871,149.9,98.2,0.471
8.14,32043.3,35089.1,0.2411,0.2203,149.9,98.2,0.471
8.16,31999.6,35085.3,-0.0001,0.211,149.9,98.2,0.471
8.18,32084.4,34918.2,0.4675,-0.199,149.9,98.2,0.471
8.2,31860.2,34941.2,-0.7687,-0.1427,149.9,98.2,0.471
8.22,31957.7,34720.4,-0.2311,-0.6845,149.9,98.2,0.471
8.24,31836.1,34694.5,-0.9015,-0.748,149.9,98.2,0.471
8.26,31835.8,34650.8,-0.9029,-0.8553,149.9,98.2,0.471
8.28,31828.5,34697.4,-0.9431,-0.7409,149.9,98.2,0.471
8.3,31878.3,34643.5,-0.6687,-0.8731,149.9,98.2,0.471
8.32,31786.6,34447.8,-1.1743,-1.3534,149.9,98.2,0.471
8.34,31644.8,34506.7,-1.9562,-1.209,149.9,98.2,0.471
8.36,31723.4,34448.3,-1.5224,-1.3522,149.9,98.2,0.471
8.38,31845.2,34733.5,-0.8513,-0.6524,149.9,98.2,0.471
8.4,32124.7,35153.7,0.6896,0.3789,149.9,98.2,0.471
8.42,32191.3,35491.4,1.057,1.2078,149.9,98.2,0.471
8.44,32309.8,35658.4,1.7099,1.6177,149.9,98.2,0.471
8.46,32287.2,35723.1,1.5854,1.7765,149.9,98.2,0.471
8.48,32356.8,35626.0,1.969,1.538,149.9,98.2,0.471
8.5,32155.5,35333.4,0.8594,0.82,149.9,98.2,0.471
8.52,32072.7,35198.5,0.4029,0.489,149.9,98.2,0.471
8.54,31969.6,35085.4,-0.1655,0.2112,149.9,98.2,0.471
8.56,32054.0,35120.0,0.2997,0.2962,149.9,98.2,0.471
8.58,32013.6,35070.9,0.0773,0.1759,149.9,98.2,0.471
8.6,31998.8,34917.9,-0.0042,-0.1997,149.9,98.2,0.471
8.62,31869.4,34725.4,-0.7177,-0.6722,149.9,98.2,0.471
8.64,31955.3,34756.3,-0.2443,-0.5963,149.9,98.2,0.471
8.66,31903.8,34695.8,-0.5282,-0.7449,149.9,98.2,0.471
8.68,31878.5,34725.4,-0.6677,-0.6722,149.9,98.2,0.471
8.7,31790.1,34648.4,-1.155,-0.8612,149.9,98.2,0.471
8.72,31811.2,34584.5,-1.0386,-1.0181,149.9,98.2,0.471
8.74,31737.7,34404.0,-1.4438,-1.4611,149.9,98.2,0.471
8.76,31768.7,34398.5,-1.2727,-1.4744,149.9,98.2,0.471
8.78,31887.0,34773.1,-0.6209,-0.555,149.9,98.2,0.471
8.8,32015.8,35124.1,0.089,0.3062,149.9,98.2,0.471
8.82,32224.0,35524.3,1.2368,1.2885,149.9,98.2,0.471
8.84,32364.4,35635.3,2.0112,1.561,149.9,98.2,0.471
8.86,32306.6,35738.7,1.6925,1.8147,149.9,98.2,0.471
8.88,32297.4,35534.1,1.6414,1.3126,149.9,98.2,0.471
8.9,32208.8,35374.8,1.1534,0.9215,149.9,98.2,0.471
8.92,32144.4,35229.5,0.798,0.565,149.9,98.2,0.471
8.94,32064.2,35192.9,0.3562,0.4751,149.9,98.2,0.471
8.96,32010.2,35079.8,0.0584,0.1976,149.9,98.2,0.471
8.98,32010.2,35036.2,0.0585,0.0906,149.9,98.2,0.471
9.0,31992.9,34938.7,-0.0368,-0.1487,149.9,98.2,0.471
9.02,31846.7,34801.4,-0.8429,-0.4858,149.9,98.2,0.471
9.04,31911.2,34682.6,-0.4875,-0.7772,149.9,98.2,0.471
9.06,31805.4,34653.8,-1.0707,-0.848,149.9,98.2,0.471
9.08,31833.3,34698.0,-0.9166,-0.7395,149.9,98.2,0.471
9.1,31866.0,34595.7,-0.7366,-0.9905,149.9,98.2,0.471
9.12,31822.8,34521.4,-0.9745,-1.1729,149.9,98.2,0.471
9.14,31761.5,34461.6,-1.3126,-1.3195,149.9,98.2,0.471
9.16,31777.5,34553.1,-1.2246,-1.0952,149.9,98.2,0.471
9.18,31900.7,34836.1,-0.5454,-0.4006,149.9,98.2,0.471
9.2,32033.1,35091.2,0.1844,0.2255,149.9,98.2,0.471
9.22,32224.3,35549.5,1.2386,1.3504,149.9,98.2,0.471
9.24,32328.4,35701.1,1.8126,1.7224,149.9,98.2,0.471
9.26,32306.3,35622.0,1.6907,1.5282,149.9,98.2,0.471
9.28,32254.9,35587.6,1.4073,1.4439,149.9,98.2,0.471
9.3,32104.7,35344.2,0.5795,0.8466,149.9,98.2,0.471
9.32,32144.2,35238.7,0.7972,0.5875,149.9,98.2,0.471
9.34,31972.4,35046.7,-0.1498,0.1165,149.9,98.2,0.471
9.36,32015.4,35156.2,0.0869,0.3852,149.9,98.2,0.471
9.38,32005.1,34941.2,0.0303,-0.1426,149.9,98.2,0.471
9.4,31950.2,34869.4,-0.2726,-0.3187,149.9,98.2,0.471
9.42,31826.1,34739.8,-0.9564,-0.6369,149.9,98.2,0.471
9.44,31778.0,34653.4,-1.2216,-0.8489,149.9,98.2,0.471
9.46,31926.5,34567.4,-0.4032,-1.0601,149.9,98.2,0.471
9.48,31938.2,34574.2,-0.3388,-1.0434,149.9,98.2,0.471
9.5,31991.3,34498.8,-0.0458,-1.2284,149.9,98.2,0.471
9.52,31798.8,34574.7,-1.107,-1.0421,149.9,98.2,0.471
9.54,31871.4,34384.5,-0.7066,-1.5088,149.9,98.2,0.471
9.56,31716.8,34512.0,-1.5587,-1.1959,149.9,98.2,0.471
9.58,31892.7,34663.3,-0.5892,-0.8246,149.9,98.2,0.471
9.6,31970.5,35153.7,-0.1606,0.3789,149.9,98.2,0.471
9.62,32183.1,35501.9,1.0113,1.2336,149.9,98.2,0.471
9.64,32302.5,35760.5,1.6698,1.8682,149.9,98.2,0.471
9.66,32288.6,35811.8,1.5929,1.9941,149.9,98.2,0.471
9.68,32212.5,35661.3,1.1734,1.6249,149.9,98.2,0.471
9.7,32135.5,35461.6,0.7492,1.1347,149.9,98.2,0.471
9.72,32068.7,35229.8,0.3807,0.5658,149.9,98.2,0.471
9.74,32004.1,35097.0,0.0247,0.2397,149.9,98.2,0.471
9.76,32016.9,35184.5,0.0956,0.4545,149.9,98.2,0.471
9.78,31951.9,35077.7,-0.2631,0.1925,149.9,98.2,0.471
9.8,32019.9,34838.8,0.1121,-0.3938,149.9,98.2,0.471
9.82,31906.1,34788.0,-0.5153,-0.5184,149.9,98.2,0.471
9.84,31810.7,34789.0,-1.0414,-0.5162,149.9,98.2,0.471
9.86,31785.4,34581.0,-1.1808,-1.0265,149.9,98.2,0.471
9.88,31944.8,34645.8,-0.3023,-0.8677,149.9,98.2,0.471
9.9,31828.3,34606.4,-0.9445,-0.9644,149.9,98.2,0.471
9.92,31790.6,34465.7,-1.1524,-1.3097,149.9,98.2,0.471
9.94,31774.8,34404.8,-1.2394,-1.459,149.9,98.2,0.471
9.96,31805.1,34522.3,-1.0722,-1.1708,149.9,98.2,0.471
9.98,31900.6,34750.2,-0.5459,-0.6114,149.9,98.2,0.471
10.0,31977.0,35108.5,-0.1248,0.268,149.9,98.2,0.471
10.02,32202.2,35473.8,1.1167,1.1647,149.9,98.2,0.471
10.04,32291.7,35752.5,1.6102,1.8487,149.9,98.2,0.471
10.06,32334.3,35778.4,1.8452,1.9122,149.9,98.2,0.471
10.08,32275.9,35591.0,1.5231,1.4523,149.9,98.2,0.471
10.1,32161.1,35489.6,0.89,1.2033,149.9,98.2,0.471
10.12,32257.4,35235.3,1.4209,0.5792,149.9,98.2,0.471
10.14,32140.6,35080.9,0.7773,0.2004,149.9,98.2,0.471
10.16,31981.6,35057.6,-0.0993,0.1431,149.9,98.2,0.471
10.18,32083.2,34969.5,0.4607,-0.0731,149.9,98.2,0.471
10.2,31959.2,34913.9,-0.223,-0.2096,149.9,98.2,0.471
10.22,31941.1,34738.7,-0.3225,-0.6396,149.9,98.2,0.471
10.24,31960.0,34640.4,-0.2185,-0.8809,149.9,98.2,0.471
10.26,31885.6,34631.7,-0.6284,-0.9022,149.9,98.2,0.471
10.28,31838.0,34725.2,-0.891,-0.6727,149.9,98.2,0.471
10.3,31792.8,34572.8,-1.1399,-1.0467,149.9,98.2,0.471
10.32,31845.2,34545.1,-0.8511,-1.1147,149.9,98.2,0.471
10.34,31832.5,34501.4,-0.9214,-1.2221,149.9,98.2,0.471
10.36,31815.9,34447.9,-1.0127,-1.3532,149.9,98.2,0.471
10.38,31849.3,34789.6,-0.8287,-0.5146,149.9,98.2,0.471
10.4,31990.8,35079.0,-0.0487,0.1955,149.9,98.2,0.471
10.42,32210.6,35457.4,1.1631,1.1243,149.9,98.2,0.471
10.44,32335.6,35697.8,1.852,1.7144,149.9,98.2,0.471
10.46,32277.1,35814.0,1.5298,1.9995,149.9,98.2,0.471
10.48,32237.8,35560.7,1.3132,1.3778,149.9,98.2,0.471
10.5,32176.5,35374.7,0.9753,0.9215,149.9,98.2,0.471
10.52,32069.9,35269.3,0.3876,0.6626,149.9,98.2,0.471
10.54,32052.7,35135.7,0.2929,0.3349,149.9,98.2,0.471
10.56,32096.3,35119.9,0.5331,0.2959,149.9,98.2,0.471
10.58,31981.0,34968.8,-0.1025,-0.0748,149.9,98.2,0.471
10.6,32001.0,34942.2,0.0079,-0.1402,149.9,98.2,0.471
10.62,31895.3,34724.5,-0.5747,-0.6745,149.9,98.2,0.471
10.64,31864.7,34654.0,-0.7436,-0.8475,149.9,98.2,0.471
10.66,31799.1,34636.3,-1.1051,-0.8908,149.9,98.2,0.471
10.68,31827.5,34712.2,-0.9488,-0.7047,149.9,98.2,0.471
10.7,31840.3,34647.1,-0.8781,-0.8643,149.9,98.2,0.471
10.72,31699.9,34510.5,-1.6524,-1.1997,149.9,98.2,0.471
10.74,31748.4,34395.2,-1.3846,-1.4826,149.9,98.2,0.471
10.76,31770.0,34563.5,-1.266,-1.0695,149.9,98.2,0.471
10.78,31889.4,34759.5,-0.6073,-0.5884,149.9,98.2,0.471
10.8,32057.6,35109.0,0.3196,0.2692,149.9,98.2,0.471
10.82,32193.0,35455.1,1.0663,1.1188,149.9,98.2,0.471
10.84,32132.4,35712.3,0.7319,1.7499,149.9,98.2,0.471
10.86,32378.2,35750.6,2.0868,1.8439,149.9,98.2,0.471
10.88,32299.0,35587.3,1.6503,1.443,149.9,98.2,0.471
10.9,32157.8,35296.9,0.8718,0.7303,149.9,98.2,0.471
10.92,32069.5,35342.8,0.3855,0.8432,149.9,98.2,0.471
10.94,32117.5,35093.2,0.6499,0.2306,149.9,98.2,0.471
10.96,32061.1,35035.9,0.3389,0.0899,149.9,98.2,0.471
10.98,32002.5,35071.1,0.0161,0.1762,149.9,98.2,0.471
11.0,31886.8,34853.9,-0.6218,-0.3569,149.9,98.2,0.471
11.02,31868.4,34706.3,-0.7232,-0.7192,149.9,98.2,0.471
11.04,31894.7,34640.4,-0.5783,-0.8807,149.9,98.2,0.471
11.06,31836.9,34631.7,-0.8969,-0.9021,149.9,98.2,0.471
11.08,31795.6,34679.7,-1.1248,-0.7844,149.9,98.2,0.471
11.1,31840.0,34605.1,-0.88,-0.9675,149.9,98.2,0.471
11.12,31824.4,34503.4,-0.9656,-1.2172,149.9,98.2,0.471
11.14,31726.2,34534.8,-1.5072,-1.1399,149.9,98.2,0.471
11.16,31724.6,34442.4,-1.516,-1.3668,149.9,98.2,0.471
11.18,31869.1,34677.2,-0.7193,-0.7904,149.9,98.2,0.471
11.2,32038.7,35054.0,0.2157,0.1342,149.9,98.2,0.471
11.22,32204.0,35411.1,1.127,1.0107,149.9,98.2,0.471
11.24,32288.0,35622.2,1.5898,1.5289,149.9,98.2,0.471
11.26,32268.0,35841.5,1.4794,2.0669,149.9,98.2,0.471
11.28,32246.0,35542.4,1.3583,1.3328,149.9,98.2,0.471
11.3,32129.0,35352.3,0.7134,0.8665,149.9,98.2,0.471
11.32,32113.0,35259.0,0.625,0.6373,149.9,98.2,0.471
11.34,32085.4,35130.8,0.4732,0.3228,149.9,98.2,0.471
11.36,32016.2,35084.8,0.0915,0.2098,149.9,98.2,0.471
11.38,31937.6,35076.8,-0.3416,0.1902,149.9,98.2,0.471
11.4,31975.6,34870.4,-0.1326,-0.3164,149.9,98.2,0.471
11.42,31926.8,34838.6,-0.4011,-0.3944,149.9,98.2,0.471
11.44,31955.2,34691.8,-0.245,-0.7547,149.9,98.2,0.471
11.46,31883.1,34654.5,-0.6424,-0.8462,149.9,98.2,0.471
11.48,31862.4,34666.3,-0.7561,-0.8173,149.9,98.2,0.471
11.5,31773.4,34631.7,-1.2468,-0.9021,149.9,98.2,0.471
11.52,31883.6,34549.3,-0.6394,-1.1043,149.9,98.2,0.471
11.54,31784.1,34461.6,-1.1881,-1.3197,149.9,98.2,0.471
11.56,31823.2,34537.7,-0.9722,-1.1329,149.9,98.2,0.471
11.58,31926.2,34735.5,-0.4047,-0.6473,149.9,98.2,0.471
11.6,32086.3,34952.5,0.4782,-0.1149,149.9,98.2,0.471
11.62,32227.2,35550.1,1.2547,1.352,149.9,98.2,0.471
11.64,32364.9,35726.8,2.0134,1.7856,149.9,98.2,0.471
11.66,32317.8,35714.4,1.7541,1.7552,149.9,98.2,0.471
11.68,32293.1,35660.5,1.6181,1.6227,149.9,98.2,0.471
11.7,32075.9,35316.0,0.4203,0.7773,149.9,98.2,0.471
11.72,32062.3,35198.0,0.3457,0.4877,149.9,98.2,0.471
11.74,31991.7,35163.4,-0.0433,0.4027,149.9,98.2,0.471
11.76,32003.7,35081.8,0.0227,0.2024,149.9,98.2,0.471
11.78,32071.6,34977.2,0.3966,-0.0542,149.9,98.2,0.471
11.8,31857.0,34843.5,-0.7859,-0.3823,149.9,98.2,0.471
11.82,31926.3,34801.2,-0.404,-0.4862,149.9,98.2,0.471
11.84,31831.7,34768.8,-0.9258,-0.5657,149.9,98.2,0.471
11.86,31952.4,34569.4,-0.26,-1.0551,149.9,98.2,0.471
11.88,31875.3,34642.4,-0.6852,-0.876,149.9,98.2,0.471
11.9,31794.5,34657.4,-1.1307,-0.8392,149.9,98.2,0.471
11.92,31767.7,34511.4,-1.2782,-1.1974,149.9,98.2,0.471
11.94,31739.7,34401.7,-1.4327,-1.4666,149.9,98.2,0.471
11.96,31863.5,34433.3,-0.7504,-1.3891,149.9,98.2,0.471
11.98,31827.5,34681.7,-0.9487,-0.7795,149.9,98.2,0.471
12.0,32036.4,35047.3,0.2031,0.1178,149.9,98.2,0.471
12.02,32148.7,35489.8,0.8217,1.204,149.9,98.2,0.471
12.04,32345.1,35846.3,1.9045,2.0788,149.9,98.2,0.471
12.06,32288.8,35704.5,1.5943,1.7307,149.9,98.2,0.471
12.08,32325.6,35582.3,1.797,1.4309,149.9,98.2,0.471
12.1,32221.2,35479.9,1.2218,1.1795,149.9,98.2,0.471
12.12,32044.7,35250.6,0.2484,0.6168,149.9,98.2,0.471
12.14,32167.9,35146.7,0.9276,0.3618,149.9,98.2,0.471
12.16,32015.4,35115.8,0.0869,0.2861,149.9,98.2,0.471
12.18,31941.5,34978.4,-0.3204,-0.0513,149.9,98.2,0.471
12.2,31965.1,34907.7,-0.1903,-0.2248,149.9,98.2,0.471
12.22,31905.8,34718.1,-0.5173,-0.6901,149.9,98.2,0.471
12.24,31876.9,34597.0,-0.6767,-0.9874,149.9,98.2,0.471
12.26,31841.9,34690.0,-0.8692,-0.7592,149.9,98.2,0.471
12.28,31890.1,34581.6,-0.6038,-1.0252,149.9,98.2,0.471
12.3,31799.3,34642.9,-1.1041,-0.8746,149.9,98.2,0.471
12.32,31785.9,34543.5,-1.1783,-1.1187,149.9,98.2,0.471
12.34,31742.1,34408.7,-1.4196,-1.4494,149.9,98.2,0.471
12.36,31707.5,34518.4,-1.6102,-1.1802,149.9,98.2,0.471
12.38,31934.4,34678.5,-0.3593,-0.7874,149.9,98.2,0.471
12.4,32060.8,34987.6,0.3372,-0.0286,149.9,98.2,0.471
12.42,32158.1,35483.6,0.8734,1.1887,149.9,98.2,0.471
12.44,32374.5,35746.5,2.0666,1.8339,149.9,98.2,0.471
12.46,32381.8,35770.1,2.1068,1.8917,149.9,98.2,0.471
12.48,32160.3,35651.7,0.886,1.6012,149.9,98.2,0.471
12.5,32123.8,35444.0,0.6844,1.0915,149.9,98.2,0.471
12.52,32005.2,35300.2,0.0306,0.7386,149.9,98.2,0.471
12.54,32166.9,35120.9,0.9222,0.2986,149.9,98.2,0.471
12.56,31977.5,35069.3,-0.1221,0.1717,149.9,98.2,0.471
12.58,31981.1,34934.6,-0.102,-0.1587,149.9,98.2,0.471
12.6,31924.0,34944.3,-0.4169,-0.135,149.9,98.2,0.471
12.62,31876.4,34829.2,-0.6794,-0.4175,149.9,98.2,0.471
12.64,31847.2,34655.7,-0.8402,-0.8432,149.9,98.2,0.471
12.66,31847.9,34602.5,-0.8364,-0.9738,149.9,98.2,0.471
12.68,31929.7,34719.9,-0.3851,-0.6856,149.9,98.2,0.471
12.7,31809.7,34683.6,-1.0468,-0.7747,149.9,98.2,0.471
12.72,31835.3,34454.5,-0.906,-1.3372,149.9,98.2,0.471
12.74,31797.9,34432.6,-1.1121,-1.3908,149.9,98.2,0.471
12.76,31804.0,34432.9,-1.0781,-1.3901,149.9,98.2,0.471
12.78,31872.4,34744.7,-0.701,-0.6249,149.9,98.2,0.471
12.8,32047.7,35044.5,0.265,0.1109,149.9,98.2,0.471
12.82,32140.0,35427.9,0.7742,1.052,149.9,98.2,0.471
12.84,32400.9,35647.8,2.2121,1.5915,149.9,98.2,0.471
12.86,32370.3,35822.8,2.0435,2.0211,149.9,98.2,0.471
12.88,32371.7,35594.5,2.0514,1.4609,149.9,98.2,0.471
12.9,32132.6,35368.6,0.733,0.9065,149.9,98.2,0.471
12.92,32058.2,35156.2,0.323,0.3852,149.9,98.2,0.471
12.94,32053.1,35116.1,0.2949,0.2867,149.9,98.2,0.471
12.96,32027.6,34997.1,0.1543,-0.0053,149.9,98.2,0.471
12.98,32023.2,35006.5,0.1302,0.0178,149.9,98.2,0.471
13.0,31888.5,34959.3,-0.6126,-0.098,149.9,98.2,0.471
13.02,31939.3,34843.6,-0.3325,-0.3821,149.9,98.2,0.471
13.04,31909.0,34621.2,-0.4995,-0.928,149.9,98.2,0.471
13.06,31825.6,34706.5,-0.959,-0.7186,149.9,98.2,0.471
13.08,31809.7,34647.9,-1.0469,-0.8625,149.9,98.2,0.471
13.1,31876.9,34673.9,-0.6762,-0.7985,149.9,98.2,0.471
13.12,31843.0,34520.8,-0.8633,-1.1744,149.9,98.2,0.471
13.14,31761.0,34453.3,-1.3154,-1.3401,149.9,98.2,0.471
13.16,31782.7,34482.3,-1.1959,-1.2687,149.9,98.2,0.471
13.18,31872.8,34647.9,-0.6991,-0.8625,149.9,98.2,0.471
13.2,32026.8,35032.1,0.1502,0.0805,149.9,98.2,0.471
13.22,32228.5,35433.7,1.2619,1.0662,149.9,98.2,0.471
13.24,32352.2,35796.7,1.9437,1.957,149.9,98.2,0.471
13.26,32323.3,35662.7,1.7844,1.6281,149.9,98.2,0.471
13.28,32273.3,35599.4,1.5087,1.4727,149.9,98.2,0.471
13.3,32143.1,35416.8,0.7912,1.0248,149.9,98.2,0.471
13.32,32064.0,35249.6,0.3551,0.6144,149.9,98.2,0.471
13.34,31996.2,35115.6,-0.0187,0.2855,149.9,98.2,0.471
13.36,31984.9,35077.0,-0.081,0.1908,149.9,98.2,0.471
13.38,31980.2,34996.4,-0.1071,-0.0071,149.9,98.2,0.471
13.4,31919.8,34935.6,-0.4397,-0.1564,149.9,98.2,0.471
13.42,31877.7,34805.5,-0.672,-0.4756,149.9,98.2,0.471
13.44,31946.2,34747.4,-0.2945,-0.6181,149.9,98.2,0.471
13.46,31807.3,34704.2,-1.0602,-0.7242,149.9,98.2,0.471
13.48,31872.0,34684.1,-0.7034,-0.7735,149.9,98.2,0.471
13.5,31821.3,34568.1,-0.9828,-1.0583,149.9,98.2,0.471
13.52,31847.9,34551.3,-0.8366,-1.0996,149.9,98.2,0.471
13.54,31719.3,34428.9,-1.5453,-1.4,149.9,98.2,0.471
13.56,31852.0,34523.3,-0.8135,-1.1682,149.9,98.2,0.471
13.58,31904.0,34576.0,-0.5268,-1.039,149.9,98.2,0.471
13.6,32064.2,35069.2,0.3558,0.1715,149.9,98.2,0.471
13.62,32246.9,35498.4,1.363,1.225,149.9,98.2,0.471
13.64,32226.5,35692.1,1.2505,1.7004,149.9,98.2,0.471
13.66,32407.0,35650.2,2.2458,1.5975,149.9,98.2,0.471
13.68,32307.2,35588.8,1.6957,1.4467,149.9,98.2,0.471
13.7,32142.3,35375.0,0.7864,0.9221,149.9,98.2,0.471
13.72,32130.7,35230.5,0.7224,0.5676,149.9,98.2,0.471
13.74,32063.5,35175.9,0.3523,0.4335,149.9,98.2,0.471
13.76,32024.8,35088.7,0.1389,0.2193,149.9,98.2,0.471
13.78,32088.9,35151.2,0.4921,0.3728,149.9,98.2,0.471
13.8,31942.1,34861.8,-0.317,-0.3375,149.9,98.2,0.471
13.82,31854.3,34826.4,-0.8008,-0.4243,149.9,98.2,0.471
13.84,31886.9,34848.6,-0.6211,-0.3698,149.9,98.2,0.471
13.86,31772.0,34666.2,-1.2546,-0.8174,149.9,98.2,0.471
13.88,31823.1,34608.3,-0.9728,-0.9597,149.9,98.2,0.471
13.9,31816.4,34646.1,-1.0101,-0.8668,149.9,98.2,0.471
13.92,31769.0,34531.1,-1.2715,-1.149,149.9,98.2,0.471
13.94,31807.3,34497.8,-1.0602,-1.2307,149.9,98.2,0.471
13.96,31774.9,34483.5,-1.2387,-1.2658,149.9,98.2,0.471
13.98,31902.0,34664.5,-0.5383,-0.8217,149.9,98.2,0.471
14.0,31955.3,35062.4,-0.244,0.1549,149.9,98.2,0.471
14.02,32279.9,35436.3,1.5451,1.0725,149.9,98.2,0.471
14.04,32422.5,35642.5,2.3312,1.5786,149.9,98.2,0.471
14.06,32350.4,35710.4,1.9339,1.7453,149.9,98.2,0.471
14.08,32260.6,35680.9,1.4386,1.6729,149.9,98.2,0.471
14.1,32127.4,35409.4,0.7043,1.0065,149.9,98.2,0.471
14.12,32147.7,35247.3,0.8162,0.6086,149.9,98.2,0.471
14.14,32019.5,35120.2,0.1094,0.2967,149.9,98.2,0.471
14.16,32035.5,35081.6,0.1981,0.202,149.9,98.2,0.471
14.18,32096.9,35014.7,0.5366,0.0377,149.9,98.2,0.471
14.2,31982.0,34807.2,-0.0972,-0.4715,149.9,98.2,0.471
14.22,31911.9,34751.0,-0.4837,-0.6094,149.9,98.2,0.471
14.24,31898.1,34720.9,-0.5598,-0.6833,149.9,98.2,0.471
14.26,31909.2,34706.3,-0.4983,-0.719,149.9,98.2,0.471
14.28,31875.4,34571.2,-0.6846,-1.0507,149.9,98.2,0.471
14.3,31853.1,34669.2,-0.8077,-0.81,149.9,98.2,0.471
14.32,31790.9,34585.1,-1.1507,-1.0165,149.9,98.2,0.471
14.34,31812.4,34468.9,-1.032,-1.3016,149.9,98.2,0.471
14.36,31683.4,34549.1,-1.7431,-1.1048,149.9,98.2,0.471
14.38,31956.7,34680.6,-0.2363,-0.7823,149.9,98.2,0.471
14.4,32040.4,35036.3,0.2246,0.0907,149.9,98.2,0.471
14.42,32264.9,35603.3,1.4624,1.4825,149.9,98.2,0.471
14.44,32256.2,35707.1,1.4145,1.7373,149.9,98.2,0.471
14.46,32353.3,35665.8,1.9497,1.6359,149.9,98.2,0.471
14.48,32191.9,35640.4,1.0603,1.5735,149.9,98.2,0.471
14.5,32202.7,35419.9,1.1193,1.0322,149.9,98.2,0.471
14.52,32025.5,35181.6,0.1428,0.4475,149.9,98.2,0.471
14.54,32124.9,35084.4,0.6907,0.2089,149.9,98.2,0.471
14.56,32022.7,35077.1,0.1272,0.191,149.9,98.2,0.471
14.58,32028.9,34948.0,0.1617,-0.1259,149.9,98.2,0.471
14.6,31965.5,34893.8,-0.1882,-0.2588,149.9,98.2,0.471
14.62,31914.9,34821.3,-0.4669,-0.4368,149.9,98.2,0.471
14.64,31934.5,34672.8,-0.359,-0.8013,149.9,98.2,0.471
14.66,31754.1,34641.9,-1.3533,-0.877,149.9,98.2,0.471
14.68,31831.0,34654.6,-0.9296,-0.8461,149.9,98.2,0.471
14.7,31734.0,34608.5,-1.4641,-0.9591,149.9,98.2,0.471
14.72,31759.9,34516.4,-1.3217,-1.185,149.9,98.2,0.471
14.74,31771.7,34530.2,-1.2561,-1.1513,149.9,98.2,0.471
14.76,31771.6,34542.5,-1.2571,-1.1211,149.9,98.2,0.471
14.78,31864.3,34654.4,-0.7458,-0.8465,149.9,98.2,0.471
14.8,32070.6,35020.6,0.3916,0.0522,149.9,98.2,0.471
14.82,32148.5,35440.4,0.8207,1.0826,149.9,98.2,0.471
14.84,32341.2,35593.4,1.8831,1.4582,149.9,98.2,0.471
14.86,32272.8,35768.6,1.5058,1.888,149.9,98.2,0.471
14.88,32253.5,35556.4,1.3998,1.3672,149.9,98.2,0.471
14.9,32306.8,35433.6,1.6937,1.0659,149.9,98.2,0.471
14.92,32103.6,35129.0,0.5731,0.3185,149.9,98.2,0.471
14.94,32056.8,35049.7,0.3154,0.1237,149.9,98.2,0.471
14.96,32168.5,35040.7,0.9312,0.1015,149.9,98.2,0.471
14.98,32069.2,35019.1,0.3835,0.0486,149.9,98.2,0.471
15.0,31956.6,34914.3,-0.2368,-0.2087,149.9,98.2,0.471
15.02,31966.5,34788.4,-0.1826,-0.5177,149.9,98.2,0.471
15.04,31870.1,34691.0,-0.7142,-0.7565,149.9,98.2,0.471
15.06,31866.8,34645.4,-0.7321,-0.8685,149.9,98.2,0.471
15.08,31692.7,34508.9,-1.6921,-1.2035,149.9,98.2,0.471
15.1,31821.5,34592.9,-0.9816,-0.9974,149.9,98.2,0.471
15.12,31785.5,34485.3,-1.18,-1.2615,149.9,98.2,0.471
15.14,31848.0,34504.2,-0.8355,-1.2151,149.9,98.2,0.471
15.16,31804.8,34448.8,-1.0737,-1.351,149.9,98.2,0.471
15.18,31890.7,34660.6,-0.6003,-0.8313,149.9,98.2,0.471
15.2,32064.5,35046.2,0.3576,0.1151,149.9,98.2,0.471
15.22,32248.6,35419.5,1.3723,1.0312,149.9,98.2,0.471
15.24,32390.3,35672.8,2.1535,1.6529,149.9,98.2,0.471
15.26,32295.0,35772.7,1.6286,1.898,149.9,98.2,0.471
15.28,32196.9,35601.2,1.0876,1.4772,149.9,98.2,0.471
15.3,32149.2,35456.5,0.8249,1.122,149.9,98.2,0.471
15.32,32131.8,35264.1,0.7285,0.6498,149.9,98.2,0.471
15.34,32022.3,35185.0,0.125,0.4559,149.9,98.2,0.471
15.36,32037.9,35109.6,0.2109,0.2706,149.9,98.2,0.471
15.38,31973.5,34989.7,-0.1439,-0.0235,149.9,98.2,0.471
15.4,32089.6,34957.7,0.4959,-0.1022,149.9,98.2,0.471
15.42,31940.3,34814.6,-0.3272,-0.4532,149.9,98.2,0.471
15.44,31918.1,34643.5,-0.4494,-0.8731,149.9,98.2,0.471
15.46,31829.4,34631.7,-0.9385,-0.9021,149.9,98.2,0.471
15.48,31885.9,34701.2,-0.6269,-0.7315,149.9,98.2,0.471
15.5,31954.0,34622.8,-0.2514,-0.9239,149.9,98.2,0.471
15.52,31793.2,34597.9,-1.1378,-0.9851,149.9,98.2,0.471
15.54,31679.3,34463.2,-1.7657,-1.3156,149.9,98.2,0.471
15.56,31810.9,34472.4,-1.0405,-1.2931,149.9,98.2,0.471
15.58,31850.5,34684.6,-0.8218,-0.7723,149.9,98.2,0.471
15.6,32078.8,35073.1,0.4367,0.1811,149.9,98.2,0.471
15.62,32209.5,35457.6,1.1572,1.1248,149.9,98.2,0.471
15.64,32265.6,35686.3,1.4665,1.6862,149.9,98.2,0.471
15.66,32278.3,35782.8,1.5362,1.923,149.9,98.2,0.471
15.68,32343.3,35669.3,1.8944,1.6444,149.9,98.2,0.471
15.7,32144.8,35320.5,0.8004,0.7883,149.9,98.2,0.471
15.72,31995.6,35206.1,-0.0222,0.5076,149.9,98.2,0.471
15.74,32015.9,35172.7,0.0897,0.4256,149.9,98.2,0.471
15.76,31987.7,35020.1,-0.0658,0.0512,149.9,98.2,0.471
15.78,32030.9,35057.3,0.1726,0.1423,149.9,98.2,0.471
15.8,31960.2,34930.1,-0.2174,-0.1697,149.9,98.2,0.471
15.82,31919.1,34790.4,-0.4438,-0.5126,149.9,98.2,0.471
15.84,31843.0,34698.9,-0.8633,-0.7374,149.9,98.2,0.471
15.86,31819.5,34659.5,-0.9928,-0.834,149.9,98.2,0.471
15.88,31864.4,34646.5,-0.7452,-0.8658,149.9,98.2,0.471
15.9,31821.1,34564.8,-0.9842,-1.0663,149.9,98.2,0.471
15.92,31764.5,34530.3,-1.296,-1.1509,149.9,98.2,0.471
15.94,31786.0,34452.6,-1.1775,-1.3417,149.9,98.2,0.471
15.96,31759.3,34436.1,-1.3248,-1.3823,149.9,98.2,0.471
15.98,31844.1,34738.0,-0.857,-0.6413,149.9,98.2,0.471
16.0,32032.7,35027.5,0.1826,0.0693,149.9,98.2,0.471
16.02,32180.3,35361.9,0.9962,0.89,149.9,98.2,0.471
16.04,32392.2,35736.0,2.1642,1.8081,149.9,98.2,0.471
16.06,32314.3,35644.9,1.7346,1.5844,149.9,98.2,0.471
16.08,32296.4,35623.9,1.6362,1.5329,149.9,98.2,0.471
16.1,32110.6,35504.6,0.6117,1.2403,149.9,98.2,0.471
16.12,32159.5,35228.1,0.8817,0.5615,149.9,98.2,0.471
16.14,32064.1,35074.0,0.3554,0.1834,149.9,98.2,0.471
16.16,31917.8,35063.8,-0.4509,0.1582,149.9,98.2,0.471
16.18,31999.5,35019.3,-0.0008,0.0492,149.9,98.2,0.471
16.2,32000.9,34909.8,0.0072,-0.2196,149.9,98.2,0.471
16.22,31982.5,34796.5,-0.0943,-0.4977,149.9,98.2,0.471
16.24,31836.9,34704.8,-0.8971,-0.7227,149.9,98.2,0.471
16.26,31902.4,34698.3,-0.5357,-0.7386,149.9,98.2,0.471
16.28,31831.1,34712.8,-0.9287,-0.7032,149.9,98.2,0.471
16.3,31786.5,34595.0,-1.1745,-0.9924,149.9,98.2,0.471
16.32,31844.1,34527.8,-0.8571,-1.1573,149.9,98.2,0.471
16.34,31786.0,34381.0,-1.1776,-1.5174,149.9,98.2,0.471
16.36,31705.0,34599.0,-1.624,-0.9825,149.9,98.2,0.471
16.38,31836.9,34739.7,-0.8969,-0.637,149.9,98.2,0.471
16.4,32101.9,35109.9,0.5641,0.2714,149.9,98.2,0.471
16.42,32164.3,35495.8,0.9078,1.2186,149.9,98.2,0.471
16.44,32289.5,35641.8,1.598,1.5769,149.9,98.2,0.471
16.46,32379.2,35828.5,2.0926,2.0351,149.9,98.2,0.471
16.48,32372.4,35676.6,2.0548,1.6623,149.9,98.2,0.471
16.5,32151.4,35339.6,0.837,0.8351,149.9,98.2,0.471
16.52,32104.5,35219.9,0.5784,0.5413,149.9,98.2,0.471
16.54,32112.6,35221.8,0.623,0.5462,149.9,98.2,0.471
16.56,32105.0,35138.4,0.5811,0.3414,149.9,98.2,0.471
16.58,32000.2,34931.9,0.0031,-0.1653,149.9,98.2,0.471
16.6,31954.9,34967.3,-0.2466,-0.0785,149.9,98.2,0.471
16.62,31952.9,34738.6,-0.2572,-0.6399,149.9,98.2,0.471
16.64,31883.0,34600.6,-0.643,-0.9785,149.9,98.2,0.471
16.66,31810.3,34728.2,-1.0434,-0.6654,149.9,98.2,0.471
16.68,31900.5,34698.5,-0.5466,-0.7381,149.9,98.2,0.471
16.7,31857.4,34598.4,-0.7837,-0.9838,149.9,98.2,0.471
16.72,31811.8,34407.9,-1.0352,-1.4515,149.9,98.2,0.471
16.74,31816.5,34458.6,-1.0093,-1.3271,149.9,98.2,0.471
16.76,31762.8,34577.4,-1.3055,-1.0354,149.9,98.2,0.471
16.78,31852.6,34759.6,-0.8102,-0.5883,149.9,98.2,0.471
16.8,31969.9,34985.2,-0.1635,-0.0345,149.9,98.2,0.471
16.82,32149.5,35365.5,0.8266,0.8987,149.9,98.2,0.471
16.84,32356.6,35723.3,1.9679,1.777,149.9,98.2,0.471
16.86,32258.9,35765.0,1.4293,1.8793,149.9,98.2,0.471
16.88,32205.5,35646.2,1.135,1.5877,149.9,98.2,0.471
16.9,32182.5,35319.2,1.008,0.785,149.9,98.2,0.471
16.92,32069.2,35236.6,0.3838,0.5825,149.9,98.2,0.471
16.94,32085.2,35139.9,0.4716,0.3451,149.9,98.2,0.471
16.96,31957.5,35110.9,-0.2324,0.274,149.9,98.2,0.471
16.98,31988.4,35022.1,-0.0619,0.0559,149.9,98.2,0.471
17.0,32000.3,34902.9,0.0041,-0.2365,149.9,98.2,0.471
17.02,31871.5,34756.3,-0.706,-0.5963,149.9,98.2,0.471
17.04,31892.5,34718.6,-0.5903,-0.689,149.9,98.2,0.471
17.06,31831.4,34745.1,-0.9275,-0.6238,149.9,98.2,0.471
17.08,31866.5,34701.4,-0.7339,-0.731,149.9,98.2,0.471
17.1,31850.9,34686.5,-0.82,-0.7678,149.9,98.2,0.471
17.12,31762.4,34578.8,-1.3076,-1.032,149.9,98.2,0.471
17.14,31805.8,34483.4,-1.0684,-1.2662,149.9,98.2,0.471
17.16,31771.6,34453.1,-1.257,-1.3405,149.9,98.2,0.471
17.18,31953.9,34624.9,-0.2519,-0.9188,149.9,98.2,0.471
17.2,32053.0,34995.5,0.2945,-0.0094,149.9,98.2,0.471
17.22,32111.9,35440.7,0.619,1.0834,149.9,98.2,0.471
17.24,32337.3,35758.3,1.8618,1.8627,149.9,98.2,0.471
17.26,32337.3,35722.5,1.8617,1.7751,149.9,98.2,0.471
17.28,32279.3,35614.8,1.5421,1.5106,149.9,98.2,0.471
17.3,32222.2,35438.4,1.2269,1.0778,149.9,98.2,0.471
17.32,32129.3,35205.6,0.7148,0.5063,149.9,98.2,0.471
17.34,32068.6,35184.5,0.3806,0.4547,149.9,98.2,0.471
17.36,32043.0,35041.4,0.2391,0.1034,149.9,98.2,0.471
17.38,31998.6,35012.0,-0.0056,0.0312,149.9,98.2,0.471
17.4,32038.8,34829.8,0.2162,-0.4159,149.9,98.2,0.471
17.42,31912.0,34901.8,-0.4831,-0.2393,149.9,98.2,0.471
17.44,31822.0,34687.0,-0.9789,-0.7665,149.9,98.2,0.471
17.46,31901.2,34634.2,-0.5426,-0.8961,149.9,98.2,0.471
17.48,31870.9,34616.7,-0.7097,-0.939,149.9,98.2,0.471
17.5,31784.6,34605.1,-1.185,-0.9675,149.9,98.2,0.471
17.52,31861.6,34530.2,-0.7605,-1.1513,149.9,98.2,0.471
17.54,31723.2,34590.0,-1.5237,-1.0046,149.9,98.2,0.471
17.56,31796.3,34472.2,-1.1206,-1.2937,149.9,98.2,0.471
17.58,31793.4,34713.0,-1.1368,-0.7026,149.9,98.2,0.471
17.6,32058.3,35041.9,0.3236,0.1045,149.9,98.2,0.471
17.62,32218.9,35448.4,1.2089,1.1023,149.9,98.2,0.471
17.64,32310.8,35627.9,1.7152,1.5429,149.9,98.2,0.471
17.66,32376.1,35766.9,2.0752,1.884,149.9,98.2,0.471
17.68,32283.8,35672.3,1.5666,1.6518,149.9,98.2,0.471
17.7,32160.0,35433.2,0.884,1.0649,149.9,98.2,0.471
17.72,32017.8,35279.8,0.1006,0.6884,149.9,98.2,0.471
17.74,32115.9,35165.0,0.6408,0.4066,149.9,98.2,0.471
17.76,32143.0,35114.7,0.7905,0.2834,149.9,98.2,0.471
17.78,32018.5,34988.2,0.1043,-0.0273,149.9,98.2,0.471
17.8,31887.3,34922.3,-0.6194,-0.1889,149.9,98.2,0.471
17.82,31920.8,34866.5,-0.4343,-0.3258,149.9,98.2,0.471
17.84,31864.6,34717.3,-0.7445,-0.692,149.9,98.2,0.471
17.86,31978.9,34659.7,-0.1144,-0.8334,149.9,98.2,0.471
17.88,31890.9,34690.8,-0.5995,-0.7572,149.9,98.2,0.471
17.9,31776.5,34664.1,-1.2297,-0.8226,149.9,98.2,0.471
17.92,31783.6,34556.9,-1.1906,-1.0857,149.9,98.2,0.471
17.94,31731.2,34441.2,-1.4795,-1.3696,149.9,98.2,0.471
17.96,31753.7,34466.8,-1.3555,-1.307,149.9,98.2,0.471
17.98,31844.2,34660.4,-0.8566,-0.8316,149.9,98.2,0.471
18.0,31968.9,35088.6,-0.169,0.2192,149.9,98.2,0.471
18.02,32093.7,35412.5,0.5189,1.0141,149.9,98.2,0.471
18.04,32251.2,35736.0,1.3869,1.808,149.9,98.2,0.471
18.06,32363.4,35725.0,2.0053,1.7811,149.9,98.2,0.471
18.08,32180.7,35664.4,0.9982,1.6324,149.9,98.2,0.471
18.1,32137.9,35471.2,0.7623,1.1581,149.9,98.2,0.471
18.12,32102.8,35259.2,0.569,0.6378,149.9,98.2,0.471
18.14,32139.0,35158.5,0.7686,0.3906,149.9,98.2,0.471
18.16,32005.5,34994.2,0.0324,-0.0124,149.9,98.2,0.471
18.18,32060.5,35096.7,0.3357,0.2391,149.9,98.2,0.471
18.2,32029.4,34880.2,0.1641,-0.2924,149.9,98.2,0.471
18.22,31929.4,34811.1,-0.3868,-0.4618,149.9,98.2,0.471
18.24,31811.5,34679.3,-1.0368,-0.7853,149.9,98.2,0.471
18.26,31908.4,34675.4,-0.5025,-0.795,149.9,98.2,0.471
18.28,31769.3,34679.6,-1.2694,-0.7847,149.9,98.2,0.471
18.3,31866.5,34692.0,-0.7337,-0.7541,149.9,98.2,0.471
18.32,31771.2,34565.5,-1.2592,-1.0647,149.9,98.2,0.471
18.34,31770.9,34480.4,-1.2605,-1.2736,149.9,98.2,0.471
18.36,31889.9,34380.1,-0.6046,-1.5197,149.9,98.2,0.471
18.38,31920.4,34748.0,-0.4365,-0.6167,149.9,98.2,0.471
18.4,32014.4,35028.8,0.0818,0.0725,149.9,98.2,0.471
18.42,32155.0,35400.5,0.8567,0.9846,149.9,98.2,0.471
18.44,32278.0,35771.3,1.5344,1.8947,149.9,98.2,0.471
18.46,32368.5,35701.0,2.0334,1.7223,149.9,98.2,0.471
18.48,32306.0,35621.1,1.689,1.526,149.9,98.2,0.471
18.5,32246.4,35377.1,1.3603,0.9274,149.9,98.2,0.471
18.52,32058.5,35253.9,0.3247,0.6249,149.9,98.2,0.471
18.54,32061.8,35121.1,0.3431,0.2989,149.9,98.2,0.471
18.56,32147.4,35096.9,0.8148,0.2395,149.9,98.2,0.471
18.58,32082.7,35103.3,0.458,0.2553,149.9,98.2,0.471
18.6,31916.6,34894.8,-0.4577,-0.2563,149.9,98.2,0.471
18.62,31963.2,34823.8,-0.2007,-0.4306,149.9,98.2,0.471
18.64,31756.8,34673.4,-1.3383,-0.7998,149.9,98.2,0.471
18.66,31854.1,34762.1,-0.8021,-0.5822,149.9,98.2,0.471
18.68,31893.2,34719.0,-0.5865,-0.6878,149.9,98.2,0.471
18.7,31878.9,34637.7,-0.6653,-0.8873,149.9,98.2,0.471
18.72,31799.5,34498.5,-1.103,-1.2291,149.9,98.2,0.471
18.74,31691.6,34400.8,-1.6981,-1.4689,149.9,98.2,0.471
18.76,31807.0,34391.7,-1.0615,-1.4912,149.9,98.2,0.471
18.78,31830.5,34704.2,-0.9322,-0.7241,149.9,98.2,0.471
18.8,32007.4,35075.7,0.043,0.1876,149.9,98.2,0.471
18.82,32168.8,35354.5,0.9329,0.8719,149.9,98.2,0.471
18.84,32213.9,35746.1,1.1812,1.833,149.9,98.2,0.471
18.86,32325.8,35756.9,1.7982,1.8593,149.9,98.2,0.471
18.88,32281.9,35638.7,1.556,1.5693,149.9,98.2,0.471
18.9,32180.8,35488.7,0.9987,1.2012,149.9,98.2,0.471
18.92,32078.8,35171.9,0.4366,0.4236,149.9,98.2,0.471
18.94,31996.7,35085.6,-0.0159,0.2118,149.9,98.2,0.471
18.96,32018.3,35106.9,0.1031,0.264,149.9,98.2,0.471
18.98,31992.9,35014.2,-0.0371,0.0367,149.9,98.2,0.471
19.0,31961.8,34887.3,-0.2085,-0.275,149.9,98.2,0.471
19.02,31901.0,34832.2,-0.5434,-0.4101,149.9,98.2,0.471
19.04,31912.7,34683.7,-0.4793,-0.7745,149.9,98.2,0.471
19.06,31874.8,34711.7,-0.688,-0.7058,149.9,98.2,0.471
19.08,31810.3,34627.6,-1.0438,-0.9123,149.9,98.2,0.471
19.1,31897.7,34649.2,-0.5618,-0.8592,149.9,98.2,0.471
19.12,31841.3,34525.4,-0.8727,-1.163,149.9,98.2,0.471
19.14,31718.8,34418.4,-1.5481,-1.4256,149.9,98.2,0.471
19.16,31856.7,34525.8,-0.7875,-1.162,149.9,98.2,0.471
19.18,31904.2,34610.0,-0.5258,-0.9555,149.9,98.2,0.471
19.2,32004.1,34979.6,0.0248,-0.0483,149.9,98.2,0.471
19.22,32301.5,35385.6,1.6644,0.948,149.9,98.2,0.471
19.24,32391.5,35774.1,2.1602,1.9015,149.9,98.2,0.471
19.26,32286.7,35728.8,1.5827,1.7905,149.9,98.2,0.471
19.28,32235.3,35573.8,1.2992,1.4101,149.9,98.2,0.471
19.3,32264.7,35556.9,1.4613,1.3685,149.9,98.2,0.471
19.32,32082.4,35238.9,0.4563,0.588,149.9,98.2,0.471
19.34,32060.1,35137.4,0.3337,0.339,149.9,98.2,0.471
19.36,31980.4,35113.2,-0.1057,0.2795,149.9,98.2,0.471
19.38,31958.6,35014.2,-0.2258,0.0366,149.9,98.2,0.471
19.4,31898.3,34924.0,-0.5582,-0.1848,149.9,98.2,0.471
19.42,31980.2,34810.0,-0.1072,-0.4645,149.9,98.2,0.471
19.44,31910.2,34740.2,-0.4931,-0.6358,149.9,98.2,0.471
19.46,31764.2,34626.2,-1.2976,-0.9156,149.9,98.2,0.471
19.48,31803.9,34749.0,-1.0787,-0.6143,149.9,98.2,0.471
19.5,31795.7,34613.4,-1.1242,-0.9471,149.9,98.2,0.471
19.52,31859.3,34626.6,-0.7733,-0.9147,149.9,98.2,0.471
19.54,31819.6,34474.3,-0.9922,-1.2885,149.9,98.2,0.471
19.56,31802.0,34379.0,-1.0894,-1.5223,149.9,98.2,0.471
19.58,31884.8,34659.8,-0.6328,-0.8332,149.9,98.2,0.471
19.6,32005.7,34984.7,0.0336,-0.0357,149.9,98.2,0.471
19.62,32212.4,35429.8,1.173,1.0565,149.9,98.2,0.471
19.64,32277.1,35775.5,1.5298,1.9051,149.9,98.2,0.471
19.66,32312.2,35827.4,1.7235,2.0325,149.9,98.2,0.471
19.68,32215.9,35683.6,1.1924,1.6795,149.9,98.2,0.471
19.7,32213.3,35450.3,1.1782,1.1069,149.9,98.2,0.471
19.72,32187.9,35305.1,1.038,0.7505,149.9,98.2,0.471
19.74,32116.2,35129.6,0.6427,0.3197,149.9,98.2,0.471
19.76,31979.1,35120.5,-0.1131,0.2975,149.9,98.2,0.471
19.78,32084.6,35029.0,0.4685,0.0729,149.9,98.2,0.471
19.8,32020.5,34960.5,0.1154,-0.0952,149.9,98.2,0.471
19.82,31962.4,34886.7,-0.2051,-0.2763,149.9,98.2,0.471
19.84,31858.9,34668.3,-0.7757,-0.8122,149.9,98.2,0.471
19.86,31809.3,34626.5,-1.0491,-0.9148,149.9,98.2,0.471
19.88,31861.5,34688.0,-0.7613,-0.7641,149.9,98.2,0.471
19.9,31853.7,34610.0,-0.8042,-0.9555,149.9,98.2,0.471
19.92,31840.1,34541.7,-0.879,-1.123,149.9,98.2,0.471
19.94,31812.4,34474.7,-1.0321,-1.2875,149.9,98.2,0.471
19.96,31827.3,34514.1,-0.9499,-1.1907,149.9,98.2,0.471
19.98,31942.1,34724.0,-0.3168,-0.6757,149.9,98.2,0.471
20.0,32078.1,35066.1,0.4329,0.1639,149.9,98.2,0.471
20.02,32094.5,35395.9,0.5234,0.9733,149.9,98.2,0.471
20.04,32329.7,35687.4,1.8199,1.6889,149.9,98.2,0.471
20.06,32320.5,35799.4,1.7689,1.9636,149.9,98.2,0.471
20.08,32339.4,35571.6,1.8729,1.4046,149.9,98.2,0.471
20.1,32276.1,35391.4,1.5242,0.9622,149.9,98.2,0.471
20.12,32044.4,35239.4,0.2469,0.5893,149.9,98.2,0.471
20.14,32059.1,35155.8,0.3278,0.3841,149.9,98.2,0.471
20.16,32071.3,35097.3,0.3955,0.2407,149.9,98.2,0.471
20.18,32000.1,35006.4,0.0027,0.0174,149.9,98.2,0.471
20.2,32000.3,34927.7,0.004,-0.1757,149.9,98.2,0.471
20.22,31900.7,34829.4,-0.5453,-0.417,149.9,98.2,0.471
20.24,31896.9,34770.8,-0.566,-0.5608,149.9,98.2,0.471
20.26,31886.8,34685.7,-0.622,-0.7697,149.9,98.2,0.471
20.28,31809.1,34654.6,-1.0504,-0.846,149.9,98.2,0.471
20.3,31791.5,34560.3,-1.1473,-1.0774,149.9,98.2,0.471
20.32,31786.8,34531.6,-1.1733,-1.1478,149.9,98.2,0.471
20.34,31902.9,34455.6,-0.5333,-1.3344,149.9,98.2,0.471
20.36,31883.9,34386.5,-0.6377,-1.504,149.9,98.2,0.471
20.38,31818.3,34571.7,-0.9996,-1.0494,149.9,98.2,0.471
20.4,32004.4,34974.2,0.0266,-0.0616,149.9,98.2,0.471
20.42,32188.1,35403.8,1.0391,0.9928,149.9,98.2,0.471
20.44,32313.8,35514.3,1.7318,1.2639,149.9,98.2,0.471
20.46,32206.8,35675.9,1.1423,1.6606,149.9,98.2,0.471
20.48,32282.9,35656.6,1.5619,1.6132,149.9,98.2,0.471
20.5,32175.4,35511.0,0.9693,1.2559,149.9,98.2,0.471
20.52,32070.8,35213.6,0.3927,0.5259,149.9,98.2,0.471
20.54,32119.6,35125.0,0.6612,0.3085,149.9,98.2,0.471
20.56,32033.4,35070.6,0.1863,0.175,149.9,98.2,0.471
20.58,32079.1,35146.3,0.4384,0.3608,149.9,98.2,0.471
20.6,31965.8,34899.2,-0.1864,-0.2455,149.9,98.2,0.471
20.62,31949.7,34858.8,-0.2752,-0.3447,149.9,98.2,0.471
20.64,31882.4,34745.9,-0.6462,-0.6218,149.9,98.2,0.471
20.66,31829.2,34653.7,-0.9394,-0.8482,149.9,98.2,0.471
20.68,31948.5,34601.9,-0.2815,-0.9753,149.9,98.2,0.471
20.7,31789.3,34585.2,-1.1591,-1.0164,149.9,98.2,0.471
20.72,31790.6,34515.5,-1.1519,-1.1874,149.9,98.2,0.471
20.74,31773.7,34504.3,-1.2455,-1.215,149.9,98.2,0.471
20.76,31695.7,34506.8,-1.6755,-1.2087,149.9,98.2,0.471
20.78,31883.6,34654.9,-0.6397,-0.8453,149.9,98.2,0.471
20.8,32077.6,35090.2,0.4297,0.2231,149.9,98.2,0.471
20.82,32197.1,35416.1,1.0885,1.0231,149.9,98.2,0.471
20.84,32255.1,35746.8,1.4084,1.8346,149.9,98.2,0.471
20.86,32330.2,35763.1,1.8224,1.8746,149.9,98.2,0.471
20.88,32219.2,35675.8,1.2106,1.6603,149.9,98.2,0.471
20.9,32194.9,35573.4,1.0763,1.4089,149.9,98.2,0.471
20.92,32117.2,35308.0,0.6481,0.7577,149.9,98.2,0.471
20.94,32046.5,35157.6,0.2585,0.3886,149.9,98.2,0.471
20.96,32073.7,35084.3,0.4086,0.2085,149.9,98.2,0.471
20.98,32034.8,35001.5,0.194,0.0055,149.9,98.2,0.471
21.0,31919.4,34868.7,-0.442,-0.3204,149.9,98.2,0.471
21.02,31943.8,34769.9,-0.3079,-0.563,149.9,98.2,0.471
21.04,32004.1,34794.9,0.0248,-0.5017,149.9,98.2,0.471
21.06,31851.9,34634.7,-0.814,-0.8949,149.9,98.2,0.471
21.08,31881.6,34682.3,-0.6506,-0.778,149.9,98.2,0.471
21.1,31852.9,34634.3,-0.8088,-0.8959,149.9,98.2,0.471
21.12,31758.2,34524.7,-1.331,-1.1649,149.9,98.2,0.471
21.14,31950.9,34455.8,-0.2685,-1.3339,149.9,98.2,0.471
21.16,31710.9,34523.1,-1.5916,-1.1688,149.9,98.2,0.471
21.18,31834.5,34685.2,-0.9101,-0.7708,149.9,98.2,0.471
21.2,32001.3,35049.1,0.0091,0.1223,149.9,98.2,0.471
21.22,32011.2,35475.9,0.0637,1.1697,149.9,98.2,0.471
21.24,32284.3,35603.6,1.5696,1.4831,149.9,98.2,0.471
21.26,32302.4,35778.7,1.6693,1.9129,149.9,98.2,0.471
21.28,32466.2,35682.2,2.5722,1.676,149.9,98.2,0.471
21.3,32176.8,35468.9,0.9769,1.1526,149.9,98.2,0.471
21.32,32218.8,35253.4,1.2085,0.6237,149.9,98.2,0.471
21.34,32146.2,35196.7,0.8079,0.4845,149.9,98.2,0.471
21.36,32043.8,35126.7,0.2434,0.3126,149.9,98.2,0.471
21.38,31968.7,35037.8,-0.1704,0.0945,149.9,98.2,0.471
21.4,31940.2,34974.4,-0.3277,-0.061,149.9,98.2,0.471
21.42,31934.0,34834.3,-0.3617,-0.405,149.9,98.2,0.471
21.44,31812.1,34658.4,-1.0337,-0.8366,149.9,98.2,0.471
21.46,31766.5,34670.5,-1.2852,-0.807,149.9,98.2,0.471
21.48,31870.9,34579.9,-0.7096,-1.0293,149.9,98.2,0.471
21.5,31814.2,34633.4,-1.0221,-0.8981,149.9,98.2,0.471
21.52,31741.7,34527.6,-1.4215,-1.1577,149.9,98.2,0.471
21.54,31808.5,34462.8,-1.0537,-1.3167,149.9,98.2,0.471
21.56,31710.7,34535.2,-1.5923,-1.1391,149.9,98.2,0.471
21.58,31828.6,34601.4,-0.9429,-0.9766,149.9,98.2,0.471
21.6,31933.0,34990.7,-0.3674,-0.0211,149.9,98.2,0.471
21.62,32279.6,35341.6,1.5434,0.8401,149.9,98.2,0.471
21.64,32246.2,35671.5,1.3591,1.6498,149.9,98.2,0.471
21.66,32286.3,35838.1,1.5802,2.0588,149.9,98.2,0.471
21.68,32235.5,35632.9,1.3006,1.555,149.9,98.2,0.471
21.7,32147.1,35487.8,0.8133,1.1989,149.9,98.2,0.471
21.72,32031.6,35227.3,0.1764,0.5595,149.9,98.2,0.471
21.74,32105.8,35110.1,0.5855,0.272,149.9,98.2,0.471
21.76,31953.9,35120.6,-0.2518,0.2977,149.9,98.2,0.471
21.78,31958.1,34908.4,-0.2287,-0.2232,149.9,98.2,0.471
21.8,31930.9,34984.6,-0.3788,-0.0361,149.9,98.2,0.471
21.82,31979.5,34825.8,-0.111,-0.4259,149.9,98.2,0.471
21.84,31901.1,34731.9,-0.5431,-0.6562,149.9,98.2,0.471
21.86,31888.4,34650.9,-0.613,-0.8551,149.9,98.2,0.471
21.88,31850.7,34745.2,-0.8209,-0.6235,149.9,98.2,0.471
21.9,31821.7,34642.7,-0.9805,-0.8751,149.9,98.2,0.471
21.92,31861.2,34601.1,-0.7628,-0.9772,149.9,98.2,0.471
21.94,31722.2,34436.9,-1.5293,-1.3803,149.9,98.2,0.471
21.96,31823.9,34537.8,-0.9688,-1.1326,149.9,98.2,0.471
21.98,31746.7,34533.6,-1.3944,-1.1428,149.9,98.2,0.471
22.0,32022.6,34943.6,0.1267,-0.1368,149.9,98.2,0.471
22.02,32264.2,35404.3,1.4586,0.9941,149.9,98.2,0.471
22.04,32138.3,35751.4,0.7648,1.846,149.9,98.2,0.471
22.06,32239.3,35776.5,1.3211,1.9074,149.9,98.2,0.471
22.08,32314.5,35669.1,1.7357,1.644,149.9,98.2,0.471
22.1,32171.5,35533.2,0.9479,1.3103,149.9,98.2,0.471
22.12,32137.7,35289.7,0.7615,0.7128,149.9,98.2,0.471
22.14,32112.7,35132.8,0.6234,0.3276,149.9,98.2,0.471
22.16,32062.6,35089.5,0.3471,0.2214,149.9,98.2,0.471
22.18,31979.6,35097.5,-0.1103,0.2411,149.9,98.2,0.471
22.2,31972.4,34979.4,-0.1498,-0.0487,149.9,98.2,0.471
22.22,31956.1,34838.3,-0.2401,-0.395,149.9,98.2,0.471
22.24,31960.5,34658.3,-0.2156,-0.8368,149.9,98.2,0.471
22.26,31789.5,34612.1,-1.1583,-0.9503,149.9,98.2,0.471
22.28,31870.8,34667.7,-0.7101,-0.8137,149.9,98.2,0.471
22.3,31842.3,34564.2,-0.8673,-1.0677,149.9,98.2,0.471
22.32,31783.2,34544.7,-1.1931,-1.1156,149.9,98.2,0.471
22.34,31694.5,34506.2,-1.6818,-1.2103,149.9,98.2,0.471
22.36,31825.7,34475.0,-0.9587,-1.2867,149.9,98.2,0.471
22.38,31834.2,34628.0,-0.9117,-0.9113,149.9,98.2,0.471
22.4,31994.8,34954.6,-0.0266,-0.1097,149.9,98.2,0.471
22.42,32192.2,35376.3,1.0616,0.9252,149.9,98.2,0.471
22.44,32199.6,35688.7,1.1023,1.6921,149.9,98.2,0.471
22.46,32377.3,35797.5,2.0822,1.959,149.9,98.2,0.471
22.48,32255.9,35706.4,1.4126,1.7353,149.9,98.2,0.471
22.5,32172.9,35502.1,0.9555,1.2341,149.9,98.2,0.471
22.52,32063.2,35302.6,0.3505,0.7445,149.9,98.2,0.471
22.54,32163.7,35120.1,0.9047,0.2965,149.9,98.2,0.471
22.56,32037.5,35108.5,0.2087,0.268,149.9,98.2,0.471
22.58,31959.4,34971.0,-0.2217,-0.0693,149.9,98.2,0.471
22.6,31925.1,34968.3,-0.4106,-0.076,149.9,98.2,0.471
22.62,31973.3,34859.4,-0.145,-0.3434,149.9,98.2,0.471
22.64,31941.0,34644.1,-0.3231,-0.8718,149.9,98.2,0.471
22.66,31875.1,34748.0,-0.6864,-0.6168,149.9,98.2,0.471
22.68,31900.2,34605.7,-0.5479,-0.966,149.9,98.2,0.471
22.7,31754.6,34591.5,-1.3506,-1.0009,149.9,98.2,0.471
22.72,31869.9,34612.4,-0.7153,-0.9494,149.9,98.2,0.471
22.74,31710.6,34530.8,-1.5929,-1.1499,149.9,98.2,0.471
22.76,31732.0,34495.1,-1.4754,-1.2374,149.9,98.2,0.471
22.78,31862.6,34639.7,-0.7554,-0.8825,149.9,98.2,0.471
22.8,32052.5,35015.5,0.2917,0.0398,149.9,98.2,0.471
22.82,32134.7,35363.5,0.7449,0.894,149.9,98.2,0.471
22.84,32292.2,35710.7,1.6132,1.7461,149.9,98.2,0.471
22.86,32343.7,35748.4,1.897,1.8386,149.9,98.2,0.471
22.88,32231.5,35650.3,1.2782,1.5979,149.9,98.2,0.471
22.9,32257.8,35407.6,1.4235,1.0021,149.9,98.2,0.471
22.92,32097.6,35228.3,0.5404,0.5621,149.9,98.2,0.471
22.94,32062.0,35194.3,0.3442,0.4786,149.9,98.2,0.471
22.96,31950.8,35032.8,-0.2691,0.0823,149.9,98.2,0.471
22.98,31927.5,35025.7,-0.3974,0.0648,149.9,98.2,0.471
23.0,31911.9,34917.1,-0.4833,-0.2018,149.9,98.2,0.471
23.02,31821.7,34754.3,-0.9808,-0.6012,149.9,98.2,0.471
23.04,31877.1,34655.7,-0.6755,-0.8433,149.9,98.2,0.471
23.06,31829.9,34719.7,-0.9354,-0.6862,149.9,98.2,0.471
23.08,31921.6,34635.1,-0.4299,-0.8938,149.9,98.2,0.471
23.1,31783.2,34638.3,-1.193,-0.8859,149.9,98.2,0.471
23.12,31821.9,34561.0,-0.9799,-1.0758,149.9,98.2,0.471
23.14,31725.4,34460.7,-1.5118,-1.3218,149.9,98.2,0.471
23.16,31759.8,34459.3,-1.3222,-1.3252,149.9,98.2,0.471
23.18,31803.3,34672.5,-1.0821,-0.8021,149.9,98.2,0.471
23.2,31961.5,34961.8,-0.2103,-0.0921,149.9,98.2,0.471
23.22,32144.8,35277.5,0.8003,0.6829,149.9,98.2,0.471
23.24,32216.8,35729.6,1.1974,1.7924,149.9,98.2,0.471
23.26,32357.7,35780.5,1.9743,1.9174,149.9,98.2,0.471
23.28,32251.9,35688.2,1.3906,1.6908,149.9,98.2,0.471
23.3,32248.1,35452.7,1.3699,1.1128,149.9,98.2,0.471
23.32,32111.8,35269.1,0.6187,0.6623,149.9,98.2,0.471
23.34,32062.4,35108.4,0.346,0.2677,149.9,98.2,0.471
23.36,32035.0,35068.1,0.1951,0.1688,149.9,98.2,0.471
23.38,32039.3,35015.0,0.2186,0.0385,149.9,98.2,0.471
23.4,31958.3,34930.2,-0.2276,-0.1696,149.9,98.2,0.471
23.42,31901.6,34750.5,-0.5404,-0.6105,149.9,98.2,0.471
23.44,31833.1,34686.5,-0.9178,-0.7677,149.9,98.2,0.471
23.46,31804.4,34686.1,-1.0763,-0.7687,149.9,98.2,0.471
23.48,31851.6,34643.3,-0.816,-0.8736,149.9,98.2,0.471
23.5,31886.8,34623.3,-0.6216,-0.9228,149.9,98.2,0.471
23.52,31766.1,34567.0,-1.287,-1.0609,149.9,98.2,0.471
23.54,31781.5,34508.4,-1.2021,-1.2048,149.9,98.2,0.471
23.56,31699.6,34463.7,-1.654,-1.3144,149.9,98.2,0.471
23.58,31810.6,34679.8,-1.042,-0.7841,149.9,98.2,0.471
23.6,31954.4,34948.2,-0.2494,-0.1254,149.9,98.2,0.471
23.62,32187.3,35296.0,1.0349,0.7282,149.9,98.2,0.471
23.64,32334.4,35655.8,1.8456,1.6113,149.9,98.2,0.471
23.66,32351.6,35727.7,1.9406,1.7876,149.9,98.2,0.471
23.68,32402.7,35599.7,2.2221,1.4735,149.9,98.2,0.471
23.7,32202.3,35469.0,1.1173,1.1528,149.9,98.2,0.471
23.72,32214.7,35277.0,1.1857,0.6815,149.9,98.2,0.471
23.74,31942.6,35187.2,-0.3143,0.4611,149.9,98.2,0.471
23.76,32025.7,35064.6,0.1436,0.1603,149.9,98.2,0.471
23.78,31999.0,35043.7,-0.0031,0.109,149.9,98.2,0.471
23.8,31997.5,34996.5,-0.0116,-0.0068,149.9,98.2,0.471
23.82,31888.6,34731.7,-0.6117,-0.6568,149.9,98.2,0.471
23.84,31799.2,34697.2,-1.1047,-0.7413,149.9,98.2,0.471
23.86,31909.2,34810.8,-0.4983,-0.4625,149.9,98.2,0.471
23.88,31821.7,34660.6,-0.9806,-0.8312,149.9,98.2,0.471
23.9,31884.9,34603.9,-0.6326,-0.9704,149.9,98.2,0.471
23.92,31888.1,34544.0,-0.6147,-1.1174,149.9,98.2,0.471
23.94,31836.9,34437.3,-0.8971,-1.3792,149.9,98.2,0.471
23.96,31672.4,34576.0,-1.8036,-1.039,149.9,98.2,0.471
23.98,31809.4,34687.6,-1.0485,-0.7651,149.9,98.2,0.471
24.0,31918.7,35026.5,-0.4462,0.0668,149.9,98.2,0.471
24.02,32106.3,35293.3,0.5883,0.7217,149.9,98.2,0.471
24.04,32322.6,35684.9,1.7808,1.6826,149.9,98.2,0.471
24.06,32284.6,35705.9,1.5711,1.7342,149.9,98.2,0.471
24.08,32393.6,35636.1,2.172,1.563,149.9,98.2,0.471
24.1,32194.9,35460.2,1.0765,1.1313,149.9,98.2,0.471
24.12,32117.2,35286.4,0.6481,0.7047,149.9,98.2,0.471
24.14,32087.7,35186.3,0.4856,0.4589,149.9,98.2,0.471
24.16,32026.6,35143.3,0.1491,0.3535,149.9,98.2,0.471
24.18,32035.7,34999.2,0.1992,-0.0002,149.9,98.2,0.471
24.2,31997.6,34920.7,-0.011,-0.193,149.9,98.2,0.471
24.22,31988.8,34822.8,-0.0596,-0.4331,149.9,98.2,0.471
24.24,31882.6,34802.9,-0.6452,-0.4819,149.9,98.2,0.471
24.26,31811.4,34567.8,-1.0375,-1.0591,149.9,98.2,0.471
24.28,31892.7,34702.7,-0.5892,-0.7279,149.9,98.2,0.471
24.3,31879.6,34605.6,-0.6618,-0.9663,149.9,98.2,0.471
24.32,31849.1,34604.5,-0.8297,-0.969,149.9,98.2,0.471
24.34,31731.0,34391.5,-1.4809,-1.4918,149.9,98.2,0.471
24.36,31766.4,34480.0,-1.2856,-1.2744,149.9,98.2,0.471
24.38,31852.6,34610.6,-0.8106,-0.9538,149.9,98.2,0.471
24.4,31949.2,34993.9,-0.2778,-0.0132,149.9,98.2,0.471
24.42,32166.4,35360.7,0.9194,0.887,149.9,98.2,0.471
24.44,32256.6,35640.1,1.4166,1.5727,149.9,98.2,0.471
24.46,32321.2,35754.3,1.7726,1.8531,149.9,98.2,0.471
24.48,32334.3,35628.6,1.8451,1.5445,149.9,98.2,0.471
24.5,32118.3,35538.9,0.6545,1.3243,149.9,98.2,0.471
24.52,32151.7,35230.2,0.8382,0.5667,149.9,98.2,0.471
24.54,32104.6,35168.5,0.5787,0.4152,149.9,98.2,0.471
24.56,31978.7,35136.9,-0.1152,0.3377,149.9,98.2,0.471
24.58,31914.1,35057.8,-0.4711,0.1435,149.9,98.2,0.471
24.6,31953.1,34919.6,-0.2562,-0.1956,149.9,98.2,0.471
24.62,31883.7,34859.2,-0.639,-0.3438,149.9,98.2,0.471
24.64,31846.4,34668.9,-0.8447,-0.8109,149.9,98.2,0.471
24.66,31841.0,34690.6,-0.8743,-0.7577,149.9,98.2,0.471
24.68,31769.4,34756.4,-1.2691,-0.596,149.9,98.2,0.471
24.7,31906.8,34728.1,-0.5118,-0.6656,149.9,98.2,0.471
24.72,31791.5,34528.3,-1.1473,-1.156,149.9,98.2,0.471
24.74,31783.8,34496.6,-1.1895,-1.2338,149.9,98.2,0.471
24.76,31899.0,34481.9,-0.5544,-1.2697,149.9,98.2,0.471
24.78,31905.5,34604.4,-0.5189,-0.9691,149.9,98.2,0.471
24.8,32020.9,35052.9,0.1173,0.1317,149.9,98.2,0.471
24.82,32110.2,35393.8,0.6097,0.9683,149.9,98.2,0.471
24.84,32216.0,35612.0,1.1931,1.5037,149.9,98.2,0.471
24.86,32289.4,35783.9,1.5974,1.9257,149.9,98.2,0.471
24.88,32225.4,35667.6,1.2448,1.6401,149.9,98.2,0.471
24.9,32277.8,35488.4,1.5336,1.2004,149.9,98.2,0.471
24.92,32150.4,35355.3,0.8311,0.8738,149.9,98.2,0.471
24.94,32086.0,35112.3,0.4765,0.2773,149.9,98.2,0.471
24.96,31975.4,35043.0,-0.1335,0.1073,149.9,98.2,0.471
24.98,31977.2,34950.4,-0.1233,-0.1201,149.9,98.2,0.471
25.0,31983.4,35039.9,-0.0894,0.0997,149.9,98.2,0.471
25.02,31899.4,34844.2,-0.5526,-0.3806,149.9,98.2,0.471
25.04,31828.7,34760.4,-0.942,-0.5862,149.9,98.2,0.471
25.06,31870.3,34709.9,-0.7129,-0.7103,149.9,98.2,0.471
25.08,31801.6,34684.9,-1.0916,-0.7717,149.9,98.2,0.471
25.1,31857.7,34695.8,-0.7821,-0.7448,149.9,98.2,0.471
25.12,31922.6,34537.5,-0.4246,-1.1333,149.9,98.2,0.471
25.14,31763.0,34511.5,-1.3044,-1.1971,149.9,98.2,0.471
25.16,31800.7,34427.4,-1.0966,-1.4035,149.9,98.2,0.471
25.18,31875.0,34600.6,-0.6869,-0.9785,149.9,98.2,0.471
25.2,31847.6,35038.9,-0.8378,0.0972,149.9,98.2,0.471
25.22,32064.4,35300.2,0.3572,0.7385,149.9,98.2,0.471
25.24,32311.2,35595.1,1.7177,1.4623,149.9,98.2,0.471
25.26,32280.9,35734.7,1.5506,1.8049,149.9,98.2,0.471
25.28,32223.5,35657.0,1.2341,1.6143,149.9,98.2,0.471
25.3,32162.1,35399.8,0.8958,0.9829,149.9,98.2,0.471
25.32,32123.8,35350.5,0.6846,0.8619,149.9,98.2,0.471
25.34,32142.6,35145.0,0.7885,0.3575,149.9,98.2,0.471
25.36,31991.4,35074.2,-0.0451,0.1838,149.9,98.2,0.471
25.38,31985.4,35073.3,-0.0784,0.1816,149.9,98.2,0.471
25.4,32028.4,34837.0,0.1585,-0.3983,149.9,98.2,0.471
25.42,31866.3,34880.4,-0.7348,-0.2917,149.9,98.2,0.471
25.44,31900.6,34681.8,-0.5457,-0.7792,149.9,98.2,0.471
25.46,31761.4,34753.7,-1.3129,-0.6028,149.9,98.2,0.471
25.48,31823.5,34599.4,-0.9706,-0.9814,149.9,98.2,0.471
25.5,31903.9,34661.5,-0.5274,-0.829,149.9,98.2,0.471
25.52,31880.4,34567.8,-0.657,-1.0591,149.9,98.2,0.471
25.54,31736.3,34529.8,-1.4516,-1.1522,149.9,98.2,0.471
25.56,31822.0,34453.5,-0.9792,-1.3396,149.9,98.2,0.471
25.58,31864.4,34599.9,-0.7452,-0.9802,149.9,98.2,0.471
25.6,31948.2,34927.0,-0.2836,-0.1774,149.9,98.2,0.471
25.62,32185.2,35460.3,1.0232,1.1315,149.9,98.2,0.471
25.64,32334.3,35660.8,1.8452,1.6235,149.9,98.2,0.471
25.66,32325.6,35721.2,1.7968,1.7718,149.9,98.2,0.471
25.68,32286.4,35649.1,1.5812,1.5947,149.9,98.2,0.471
25.7,32234.9,35529.4,1.297,1.301,149.9,98.2,0.471
25.72,32140.4,35304.7,0.7761,0.7496,149.9,98.2,0.471
25.74,32123.9,35155.6,0.6849,0.3837,149.9,98.2,0.471
25.76,31999.1,35030.4,-0.0029,0.0764,149.9,98.2,0.471
25.78,31864.0,35084.0,-0.7476,0.2079,149.9,98.2,0.471
25.8,32140.6,34901.2,0.7775,-0.2407,149.9,98.2,0.471
25.82,31943.2,34800.4,-0.3107,-0.4881,149.9,98.2,0.471
25.84,31844.7,34703.8,-0.8541,-0.7252,149.9,98.2,0.471
25.86,31801.1,34732.5,-1.0945,-0.6548,149.9,98.2,0.471
25.88,31918.9,34611.1,-0.4447,-0.9527,149.9,98.2,0.471
25.9,31743.9,34626.0,-1.4097,-0.9163,149.9,98.2,0.471
25.92,31821.2,34738.8,-0.9832,-0.6393,149.9,98.2,0.471
25.94,31777.0,34465.7,-1.227,-1.3097,149.9,98.2,0.471
25.96,31722.0,34514.1,-1.5301,-1.1908,149.9,98.2,0.471
25.98,31824.0,34612.1,-0.9679,-0.9503,149.9,98.2,0.471
26.0,32017.8,34956.1,0.1001,-0.106,149.9,98.2,0.471
26.02,32087.0,35297.8,0.4817,0.7326,149.9,98.2,0.471
26.04,32197.2,35709.0,1.0891,1.7419,149.9,98.2,0.471
26.06,32386.9,35840.5,2.1351,2.0645,149.9,98.2,0.471
26.08,32298.1,35650.4,1.6454,1.598,149.9,98.2,0.471
26.1,32175.1,35427.8,0.9673,1.0517,149.9,98.2,0.471
26.12,32184.1,35372.5,1.0173,0.9159,149.9,98.2,0.471
26.14,31989.3,35152.5,-0.0567,0.3759,149.9,98.2,0.471
26.16,32028.9,35042.9,0.1612,0.1071,149.9,98.2,0.471
26.18,31966.3,35038.5,-0.1838,0.0963,149.9,98.2,0.471
26.2,31982.3,34926.2,-0.0956,-0.1794,149.9,98.2,0.471
26.22,31901.7,34838.8,-0.5399,-0.394,149.9,98.2,0.471
26.24,31894.7,34586.3,-0.5785,-1.0135,149.9,98.2,0.471
26.26,31855.4,34697.6,-0.7949,-0.7406,149.9,98.2,0.471
26.28,31818.9,34661.9,-0.9961,-0.8281,149.9,98.2,0.471
26.3,31774.4,34709.4,-1.2417,-0.7114,149.9,98.2,0.471
26.32,31801.6,34555.4,-1.0914,-1.0894,149.9,98.2,0.471
26.34,31764.0,34465.4,-1.2989,-1.3103,149.9,98.2,0.471
26.36,31869.8,34452.7,-0.7156,-1.3415,149.9,98.2,0.471
26.38,31808.1,34713.8,-1.0557,-0.7008,149.9,98.2,0.471
26.4,31988.2,35051.1,-0.0626,0.1273,149.9,98.2,0.471
26.42,32109.3,35398.3,0.6049,0.9794,149.9,98.2,0.471
26.44,32316.2,35633.0,1.7451,1.5554,149.9,98.2,0.471
26.46,32294.4,35792.9,1.6251,1.9477,149.9,98.2,0.471
26.48,32359.2,35667.7,1.9821,1.6406,149.9,98.2,0.471
26.5,32241.7,35493.8,1.3344,1.2137,149.9,98.2,0.471
26.52,32123.2,35349.3,0.6813,0.8589,149.9,98.2,0.471
26.54,32033.8,35207.4,0.1884,0.5108,149.9,98.2,0.471
26.56,31999.3,35005.8,-0.0019,0.016,149.9,98.2,0.471
26.58,31927.0,35006.5,-0.4002,0.0177,149.9,98.2,0.471
26.6,31954.1,34926.3,-0.2506,-0.1792,149.9,98.2,0.471
26.62,31913.3,34795.4,-0.4758,-0.5003,149.9,98.2,0.471
26.64,31894.8,34758.0,-0.5777,-0.5922,149.9,98.2,0.471
26.66,31796.6,34702.6,-1.119,-0.7283,149.9,98.2,0.471
26.68,31899.0,34668.8,-0.5548,-0.8111,149.9,98.2,0.471
26.7,31890.3,34605.6,-0.6027,-0.9663,149.9,98.2,0.471
26.72,31758.0,34521.7,-1.3321,-1.1722,149.9,98.2,0.471
26.74,31699.2,34453.6,-1.6563,-1.3394,149.9,98.2,0.471
26.76,31715.8,34504.9,-1.5645,-1.2133,149.9,98.2,0.471
26.78,31891.4,34541.4,-0.5964,-1.1238,149.9,98.2,0.471
26.8,31911.5,35011.7,-0.4858,0.0305,149.9,98.2,0.471
26.82,32040.9,35351.1,0.2276,0.8635,149.9,98.2,0.471
26.84,32224.3,35724.9,1.2384,1.7809,149.9,98.2,0.471
26.86,32317.2,35667.9,1.7506,1.641,149.9,98.2,0.471
26.88,32365.2,35758.7,2.0155,1.8638,149.9,98.2,0.471
26.9,32177.6,35411.2,0.9813,1.0108,149.9,98.2,0.471
26.92,32113.6,35305.4,0.6286,0.7514,149.9,98.2,0.471
26.94,32112.9,35069.7,0.6244,0.1729,149.9,98.2,0.471
26.96,32024.9,35075.4,0.1396,0.1867,149.9,98.2,0.471
26.98,32002.3,34981.2,0.0147,-0.0445,149.9,98.2,0.471
27.0,31930.7,34963.2,-0.3799,-0.0886,149.9,98.2,0.471
27.02,31928.4,34817.0,-0.3926,-0.4474,149.9,98.2,0.471
27.04,31912.7,34735.9,-0.4792,-0.6464,149.9,98.2,0.471
27.06,31877.5,34757.0,-0.6732,-0.5946,149.9,98.2,0.471
27.08,31874.4,34725.8,-0.6901,-0.6711,149.9,98.2,0.471
27.1,31843.8,34642.6,-0.8588,-0.8755,149.9,98.2,0.471
27.12,31809.8,34542.9,-1.0462,-1.12,149.9,98.2,0.471
27.14,31733.8,34497.3,-1.4651,-1.2321,149.9,98.2,0.471
27.16,31731.0,34512.5,-1.4808,-1.1947,149.9,98.2,0.471
27.18,31749.7,34654.2,-1.3778,-0.8471,149.9,98.2,0.471
27.2,31938.0,34906.8,-0.3394,-0.227,149.9,98.2,0.471
27.22,32047.8,35357.3,0.2658,0.8787,149.9,98.2,0.471
27.24,32186.1,35584.1,1.0278,1.4354,149.9,98.2,0.471
27.26,32259.2,35725.8,1.431,1.783,149.9,98.2,0.471
27.28,32279.4,35624.2,1.5422,1.5337,149.9,98.2,0.471
27.3,32221.8,35442.0,1.2248,1.0867,149.9,98.2,0.471
27.32,32128.1,35381.6,0.7085,0.9383,149.9,98.2,0.471
27.34,32126.4,35149.1,0.6991,0.3676,149.9,98.2,0.471
27.36,32173.2,35103.5,0.9567,0.2557,149.9,98.2,0.471
27.38,32047.9,34998.8,0.2664,-0.0012,149.9,98.2,0.471
27.4,32036.4,34955.1,0.2028,-0.1084,149.9,98.2,0.471
27.42,31877.1,34898.0,-0.6754,-0.2486,149.9,98.2,0.471
27.44,31940.9,34756.7,-0.3238,-0.5954,149.9,98.2,0.471
27.46,31805.2,34786.0,-1.0719,-0.5235,149.9,98.2,0.471
27.48,31832.3,34729.4,-0.922,-0.6625,149.9,98.2,0.471
27.5,31773.3,34578.8,-1.2478,-1.0319,149.9,98.2,0.471
27.52,31838.4,34411.0,-0.8884,-1.4438,149.9,98.2,0.471
27.54,31829.7,34436.4,-0.9368,-1.3816,149.9,98.2,0.471
27.56,31786.9,34555.8,-1.1724,-1.0884,149.9,98.2,0.471
27.58,31858.6,34596.2,-0.7774,-0.9894,149.9,98.2,0.471
27.6,31906.2,35044.6,-0.5149,0.1113,149.9,98.2,0.471
27.62,32156.1,35332.1,0.8624,0.8167,149.9,98.2,0.471
27.64,32255.3,35650.4,1.4095,1.5981,149.9,98.2,0.471
27.66,32259.7,35763.5,1.4339,1.8757,149.9,98.2,0.471
27.68,32230.8,35698.1,1.2743,1.715,149.9,98.2,0.471
27.7,32151.1,35492.6,0.8352,1.2107,149.9,98.2,0.471
27.72,32111.5,35228.6,0.6166,0.5627,149.9,98.2,0.471
27.74,32001.3,35252.7,0.0096,0.6219,149.9,98.2,0.471
27.76,32011.4,35018.0,0.0653,0.0459,149.9,98.2,0.471
27.78,32029.6,35127.8,0.1651,0.3155,149.9,98.2,0.471
27.8,31922.6,34920.8,-0.4242,-0.1927,149.9,98.2,0.471
27.82,31963.9,34889.3,-0.1969,-0.27,149.9,98.2,0.471
27.84,31951.2,34835.1,-0.2666,-0.4031,149.9,98.2,0.471
27.86,31836.0,34712.7,-0.9018,-0.7034,149.9,98.2,0.471
27.88,31859.6,34715.2,-0.7717,-0.6972,149.9,98.2,0.471
27.9,31884.3,34698.1,-0.6354,-0.7393,149.9,98.2,0.471
27.92,31828.0,34523.5,-0.9458,-1.1676,149.9,98.2,0.471
27.94,31911.8,34567.4,-0.4838,-1.06,149.9,98.2,0.471
27.96,31763.8,34517.7,-1.2999,-1.1819,149.9,98.2,0.471
27.98,31868.4,34650.4,-0.7233,-0.8564,149.9,98.2,0.471
28.0,31980.6,34993.4,-0.1047,-0.0144,149.9,98.2,0.471
28.02,32171.1,35362.6,0.9452,0.8917,149.9,98.2,0.471
28.04,32233.3,35610.7,1.2881,1.5006,149.9,98.2,0.471
28.06,32343.6,35819.0,1.8961,2.0119,149.9,98.2,0.471
28.08,32341.6,35735.6,1.8851,1.8072,149.9,98.2,0.471
28.1,32143.5,35606.7,0.7933,1.4909,149.9,98.2,0.471
28.12,32210.4,35313.6,1.1619,0.7714,149.9,98.2,0.471
28.14,32045.3,35166.1,0.252,0.4093,149.9,98.2,0.471
28.16,31967.8,35066.3,-0.1754,0.1645,149.9,98.2,0.471
28.18,32053.3,34953.1,0.296,-0.1133,149.9,98.2,0.471
28.2,32005.0,35003.6,0.0296,0.0106,149.9,98.2,0.471
28.22,31871.0,34884.3,-0.7089,-0.2822,149.9,98.2,0.471
28.24,31861.7,34758.0,-0.76,-0.5922,149.9,98.2,0.471
28.26,31794.5,34681.3,-1.1308,-0.7803,149.9,98.2,0.471
28.28,31888.2,34610.6,-0.614,-0.9541,149.9,98.2,0.471
28.3,31912.3,34645.9,-0.4812,-0.8674,149.9,98.2,0.471
28.32,31744.9,34619.7,-1.4039,-0.9316,149.9,98.2,0.471
28.34,31720.6,34475.0,-1.538,-1.2869,149.9,98.2,0.471
28.36,31787.2,34532.0,-1.171,-1.1469,149.9,98.2,0.471
28.38,31904.2,34582.9,-0.5257,-1.0219,149.9,98.2,0.471
28.4,31926.2,34996.8,-0.4047,-0.0062,149.9,98.2,0.471
28.42,32091.8,35427.5,0.508,1.0509,149.9,98.2,0.471
28.44,32375.0,35639.7,2.0692,1.5716,149.9,98.2,0.471
28.46,32320.4,35855.7,1.7686,2.1019,149.9,98.2,0.471
28.48,32273.4,35762.5,1.5092,1.8731,149.9,98.2,0.471
28.5,32308.0,35555.1,1.7003,1.3641,149.9,98.2,0.471
28.52,32162.7,35318.1,0.8993,0.7824,149.9,98.2,0.471
28.54,32067.5,35242.7,0.3742,0.5975,149.9,98.2,0.471
28.56,32089.8,35033.5,0.497,0.084,149.9,98.2,0.471
28.58,32012.7,34961.3,0.0725,-0.0933,149.9,98.2,0.471
28.6,31926.4,34951.9,-0.4035,-0.1163,149.9,98.2,0.471
28.62,31952.5,34888.9,-0.2598,-0.2708,149.9,98.2,0.471
28.64,31815.1,34680.9,-1.0168,-0.7814,149.9,98.2,0.471
28.66,31898.2,34625.9,-0.5591,-0.9164,149.9,98.2,0.471
28.68,31893.4,34604.0,-0.5853,-0.97,149.9,98.2,0.471
28.7,31769.2,34700.9,-1.27,-0.7324,149.9,98.2,0.471
28.72,31810.3,34524.4,-1.0438,-1.1656,149.9,98.2,0.471
28.74,31796.1,34348.6,-1.1219,-1.5969,149.9,98.2,0.471
28.76,31695.6,34428.7,-1.6761,-1.4003,149.9,98.2,0.471
28.78,31771.6,34529.5,-1.2567,-1.153,149.9,98.2,0.471
28.8,31906.9,34942.0,-0.5112,-0.1407,149.9,98.2,0.471
28.82,32206.0,35271.5,1.1377,0.668,149.9,98.2,0.471
28.84,32278.7,35665.6,1.5383,1.6354,149.9,98.2,0.471
28.86,32384.9,35907.1,2.1241,2.2281,149.9,98.2,0.471
28.88,32310.0,35702.3,1.7109,1.7254,149.9,98.2,0.471
28.9,32192.2,35510.8,1.0615,1.2554,149.9,98.2,0.471
28.92,32089.2,35322.7,0.4941,0.7937,149.9,98.2,0.471
28.94,32112.8,35234.8,0.6238,0.578,149.9,98.2,0.471
28.96,32038.8,35091.5,0.2162,0.2264,149.9,98.2,0.471
28.98,32019.9,35024.9,0.1119,0.0628,149.9,98.2,0.471
29.0,32033.0,34888.2,0.1843,-0.2726,149.9,98.2,0.471
29.02,31956.5,34948.8,-0.2374,-0.1238,149.9,98.2,0.471
29.04,31822.7,34770.7,-0.975,-0.5611,149.9,98.2,0.471
29.06,31819.7,34606.6,-0.9918,-0.9637,149.9,98.2,0.471
29.08,31833.9,34726.4,-0.9135,-0.6698,149.9,98.2,0.471
29.1,31851.3,34581.2,-0.8174,-1.026,149.9,98.2,0.471
29.12,31803.2,34596.6,-1.0827,-0.9884,149.9,98.2,0.471
29.14,31822.4,34456.6,-0.9769,-1.3319,149.9,98.2,0.471
29.16,31749.6,34338.4,-1.3781,-1.622,149.9,98.2,0.471
29.18,31818.8,34593.3,-0.9965,-0.9964,149.9,98.2,0.471
29.2,32014.1,34954.1,0.0799,-0.111,149.9,98.2,0.471
29.22,32160.2,35375.9,0.8854,0.9244,149.9,98.2,0.471
29.24,32298.0,35563.5,1.6451,1.3847,149.9,98.2,0.471
29.26,32364.5,35761.3,2.0115,1.8702,149.9,98.2,0.471
29.28,32326.8,35693.1,1.8039,1.7028,149.9,98.2,0.471
29.3,32190.2,35440.5,1.0505,1.0828,149.9,98.2,0.471
29.32,32046.8,35336.9,0.2601,0.8286,149.9,98.2,0.471
29.34,32080.4,35182.8,0.4454,0.4505,149.9,98.2,0.471
29.36,32062.1,35067.0,0.3444,0.1663,149.9,98.2,0.471
29.38,32055.1,35046.1,0.3062,0.1149,149.9,98.2,0.471
29.4,31949.3,35017.6,-0.2775,0.0449,149.9,98.2,0.471
29.42,31975.7,34792.9,-0.132,-0.5065,149.9,98.2,0.471
29.44,31975.8,34710.2,-0.1313,-0.7095,149.9,98.2,0.471
29.46,31928.5,34674.2,-0.3918,-0.7978,149.9,98.2,0.471
29.48,31840.5,34712.3,-0.8773,-0.7043,149.9,98.2,0.471
29.5,31769.9,34696.8,-1.266,-0.7424,149.9,98.2,0.471
29.52,31824.4,34541.1,-0.966,-1.1245,149.9,98.2,0.471
29.54,31737.2,34435.4,-1.4466,-1.3839,149.9,98.2,0.471
29.56,31726.0,34484.1,-1.5083,-1.2645,149.9,98.2,0.471
29.58,31839.7,34561.6,-0.8815,-1.0743,149.9,98.2,0.471
29.6,31984.6,34921.1,-0.0826,-0.1918,149.9,98.2,0.471
29.62,32040.4,35365.8,0.2251,0.8995,149.9,98.2,0.471
29.64,32330.7,35652.1,1.825,1.6023,149.9,98.2,0.471
29.66,32337.5,35787.9,1.8628,1.9354,149.9,98.2,0.471
29.68,32320.7,35705.7,1.77,1.7337,149.9,98.2,0.471
29.7,32225.7,35442.9,1.2461,1.0887,149.9,98.2,0.471
29.72,32099.4,35233.2,0.55,0.574,149.9,98.2,0.471
29.74,32086.7,35154.4,0.4801,0.3806,149.9,98.2,0.471
29.76,32065.5,35166.3,0.3632,0.4098,149.9,98.2,0.471
29.78,31951.3,35099.3,-0.2662,0.2455,149.9,98.2,0.471
29.8,31908.2,34989.0,-0.5038,-0.0253,149.9,98.2,0.471
29.82,31998.8,34778.9,-0.0042,-0.5409,149.9,98.2,0.471
29.84,31826.2,34727.9,-0.9558,-0.6661,149.9,98.2,0.471
29.86,31820.5,34625.6,-0.9875,-0.9172,149.9,98.2,0.471
29.88,31784.1,34684.4,-1.188,-0.7728,149.9,98.2,0.471
29.9,31836.9,34677.7,-0.8967,-0.7893,149.9,98.2,0.471
29.92,31771.5,34514.9,-1.2572,-1.1889,149.9,98.2,0.471
29.94,31742.8,34499.5,-1.4154,-1.2265,149.9,98.2,0.471
29.96,31734.9,34471.0,-1.4591,-1.2966,149.9,98.2,0.471
29.98,31749.5,34596.6,-1.3785,-0.9884,149.9,98.2,0.471
30.0,31943.4,34959.7,-0.31,-0.0972,149.9,98.2,0.471
30.02,32050.4,35399.2,0.2801,0.9816,149.9,98.2,0.471
30.04,32259.0,35578.9,1.4297,1.4225,149.9,98.2,0.471
30.06,32249.3,35818.4,1.3762,2.0102,149.9,98.2,0.471
30.08,32479.2,35661.6,2.6436,1.6256,149.9,98.2,0.471
30.1,32152.4,35447.8,0.8425,1.1008,149.9,98.2,0.471
30.12,32157.1,35249.8,0.8683,0.6148,149.9,98.2,0.471
30.14,32102.0,35112.8,0.5642,0.2785,149.9,98.2,0.471
30.16,32023.0,35117.4,0.1291,0.2898,149.9,98.2,0.471
30.18,32031.3,35080.2,0.1747,0.1986,149.9,98.2,0.471
30.2,31982.3,34972.4,-0.0954,-0.0659,149.9,98.2,0.471
30.22,32032.4,34837.1,0.1805,-0.3981,149.9,98.2,0.471
30.24,31856.0,34755.4,-0.7914,-0.5987,149.9,98.2,0.471
30.26,31754.2,34651.6,-1.3527,-0.8532,149.9,98.2,0.471
30.28,31861.6,34693.8,-0.7609,-0.7498,149.9,98.2,0.471
30.3,31816.0,34633.4,-1.0121,-0.898,149.9,98.2,0.471
30.32,31744.0,34446.5,-1.409,-1.3566,149.9,98.2,0.471
30.34,31773.5,34532.4,-1.2466,-1.1459,149.9,98.2,0.471
30.36,31774.6,34447.7,-1.2401,-1.3538,149.9,98.2,0.471
30.38,31825.5,34535.4,-0.9596,-1.1385,149.9,98.2,0.471
30.4,31942.5,34992.6,-0.3146,-0.0165,149.9,98.2,0.471
30.42,32111.5,35262.9,0.6167,0.647,149.9,98.2,0.471
30.44,32247.1,35648.0,1.3643,1.5921,149.9,98.2,0.471
30.46,32366.5,35695.7,2.0225,1.7091,149.9,98.2,0.471
30.48,32339.4,35670.6,1.8733,1.6475,149.9,98.2,0.471
30.5,32246.5,35523.5,1.361,1.2866,149.9,98.2,0.471
30.52,32158.5,35335.9,0.8758,0.8261,149.9,98.2,0.471
30.54,32096.7,35108.3,0.535,0.2676,149.9,98.2,0.471
30.56,32068.4,35075.8,0.3795,0.1879,149.9,98.2,0.471
30.58,32023.8,34980.6,0.1331,-0.0459,149.9,98.2,0.471
30.6,32026.2,34833.5,0.1464,-0.4068,149.9,98.2,0.471
30.62,31922.7,34849.5,-0.4239,-0.3676,149.9,98.2,0.471
30.64,31903.2,34745.8,-0.5312,-0.6222,149.9,98.2,0.471
30.66,31853.2,34657.2,-0.8071,-0.8396,149.9,98.2,0.471
30.68,31916.1,34695.9,-0.4604,-0.7446,149.9,98.2,0.471
30.7,31795.7,34761.8,-1.1243,-0.5827,149.9,98.2,0.471
30.72,31805.6,34595.3,-1.0694,-0.9916,149.9,98.2,0.471
30.74,31786.3,34398.8,-1.1759,-1.4738,149.9,98.2,0.471
30.76,31752.0,34485.9,-1.3652,-1.26,149.9,98.2,0.471
30.78,31799.7,34684.7,-1.1021,-0.7721,149.9,98.2,0.471
30.8,31997.7,34891.0,-0.0102,-0.2658,149.9,98.2,0.471
30.82,32125.8,35296.6,0.6957,0.7298,149.9,98.2,0.471
30.84,32293.5,35588.2,1.6199,1.4453,149.9,98.2,0.471
30.86,32321.4,35684.2,1.7739,1.6809,149.9,98.2,0.471
30.88,32202.7,35648.7,1.1195,1.5938,149.9,98.2,0.471
30.9,32198.5,35434.2,1.0965,1.0674,149.9,98.2,0.471
30.92,32131.8,35241.0,0.7285,0.5933,149.9,98.2,0.471
30.94,31993.8,35183.1,-0.0319,0.4512,149.9,98.2,0.471
30.96,32088.0,35132.6,0.4874,0.3272,149.9,98.2,0.471
30.98,32008.2,34957.8,0.0474,-0.1019,149.9,98.2,0.471
31.0,31997.6,34962.4,-0.0113,-0.0905,149.9,98.2,0.471
31.02,31943.4,34889.7,-0.3097,-0.269,149.9,98.2,0.471
31.04,31919.4,34707.7,-0.442,-0.7156,149.9,98.2,0.471
31.06,31812.3,34701.6,-1.0327,-0.7307,149.9,98.2,0.471
31.08,31930.9,34624.6,-0.3787,-0.9195,149.9,98.2,0.471
31.1,31893.0,34656.1,-0.5876,-0.8424,149.9,98.2,0.471
31.12,31735.4,34482.0,-1.4562,-1.2695,149.9,98.2,0.471
31.14,31813.1,34518.3,-1.0284,-1.1805,149.9,98.2,0.471
31.16,31783.6,34377.0,-1.1907,-1.5273,149.9,98.2,0.471
31.18,31824.0,34614.3,-0.9679,-0.9448,149.9,98.2,0.471
31.2,31894.9,34871.7,-0.5775,-0.313,149.9,98.2,0.471
31.22,32172.4,35252.3,0.9526,0.621,149.9,98.2,0.471
31.24,32279.1,35551.0,1.5408,1.354,149.9,98.2,0.471
31.26,32279.4,35790.9,1.5426,1.9428,149.9,98.2,0.471
31.28,32319.9,35675.1,1.7654,1.6585,149.9,98.2,0.471
31.3,32223.5,35529.7,1.2341,1.3019,149.9,98.2,0.471
31.32,32074.3,35302.8,0.4115,0.7448,149.9,98.2,0.471
31.34,32074.7,35146.2,0.4142,0.3605,149.9,98.2,0.471
31.36,31980.2,35068.2,-0.1071,0.1692,149.9,98.2,0.471
31.38,32106.0,34866.2,0.5864,-0.3267,149.9,98.2,0.471
31.4,31915.7,34868.9,-0.4623,-0.32,149.9,98.2,0.471
31.42,31917.4,34854.9,-0.4534,-0.3543,149.9,98.2,0.471
31.44,31787.8,34698.2,-1.1674,-0.739,149.9,98.2,0.471
31.46,31816.4,34833.2,-1.0098,-0.4075,149.9,98.2,0.471
31.48,31791.4,34695.7,-1.1475,-0.7451,149.9,98.2,0.471
31.5,31864.2,34683.2,-0.7467,-0.7757,149.9,98.2,0.471
31.52,31848.2,34617.4,-0.8347,-0.9373,149.9,98.2,0.471
31.54,31729.8,34426.0,-1.4874,-1.407,149.9,98.2,0.471
31.56,31735.8,34486.8,-1.4543,-1.2578,149.9,98.2,0.471
31.58,31683.6,34704.7,-1.7419,-0.7229,149.9,98.2,0.471
31.6,31915.0,34844.2,-0.4665,-0.3807,149.9,98.2,0.471
31.62,32164.0,35237.3,0.9061,0.5842,149.9,98.2,0.471
31.64,32222.1,35584.1,1.2267,1.4353,149.9,98.2,0.471
31.66,32264.4,35757.1,1.4595,1.8598,149.9,98.2,0.471
31.68,32215.5,35646.0,1.1901,1.5873,149.9,98.2,0.471
31.7,32119.3,35466.3,0.6596,1.1462,149.9,98.2,0.471
31.72,32200.6,35287.3,1.108,0.707,149.9,98.2,0.471
31.74,31939.7,35105.1,-0.3301,0.2596,149.9,98.2,0.471
31.76,32068.1,35084.3,0.3774,0.2086,149.9,98.2,0.471
31.78,31958.2,35052.7,-0.228,0.1311,149.9,98.2,0.471
31.8,31955.7,35042.1,-0.2419,0.1051,149.9,98.2,0.471
31.82,31930.0,34791.1,-0.3835,-0.5111,149.9,98.2,0.471
31.84,31949.9,34801.1,-0.2738,-0.4865,149.9,98.2,0.471
31.86,31819.3,34734.2,-0.9939,-0.6507,149.9,98.2,0.471
31.88,31848.1,34640.9,-0.8355,-0.8796,149.9,98.2,0.471
31.9,31769.0,34685.6,-1.2715,-0.7699,149.9,98.2,0.471
31.92,31760.1,34553.4,-1.3202,-1.0943,149.9,98.2,0.471
31.94,31814.1,34554.3,-1.0224,-1.0922,149.9,98.2,0.471
31.96,31748.3,34490.9,-1.3853,-1.2478,149.9,98.2,0.471
31.98,31804.9,34593.3,-1.0734,-0.9964,149.9,98.2,0.471
32.0,31880.2,34871.8,-0.6582,-0.3128,149.9,98.2,0.471
32.02,32077.7,35184.4,0.4305,0.4544,149.9,98.2,0.471
32.04,32346.1,35639.8,1.9103,1.5719,149.9,98.2,0.471
32.06,32230.3,35745.8,1.2718,1.8322,149.9,98.2,0.471
32.08,32291.6,35658.6,1.6097,1.6182,149.9,98.2,0.471
32.1,32170.1,35542.3,0.9399,1.3327,149.9,98.2,0.471
32.12,32096.6,35333.8,0.5347,0.821,149.9,98.2,0.471
32.14,31984.6,35203.2,-0.0828,0.5004,149.9,98.2,0.471
32.16,32095.6,35121.2,0.5294,0.2992,149.9,98.2,0.471
32.18,32040.2,34969.5,0.2238,-0.0732,149.9,98.2,0.471
32.2,31937.7,34954.8,-0.3412,-0.1092,149.9,98.2,0.471
32.22,31949.7,34794.9,-0.2752,-0.5015,149.9,98.2,0.471
32.24,31937.6,34759.5,-0.3416,-0.5886,149.9,98.2,0.471
32.26,31946.1,34652.8,-0.2947,-0.8505,149.9,98.2,0.471
32.28,31920.3,34572.1,-0.4371,-1.0485,149.9,98.2,0.471
32.3,31821.0,34607.1,-0.9846,-0.9625,149.9,98.2,0.471
32.32,31869.4,34540.7,-0.7179,-1.1256,149.9,98.2,0.471
32.34,31775.6,34529.0,-1.2347,-1.1541,149.9,98.2,0.471
32.36,31744.7,34410.1,-1.405,-1.4461,149.9,98.2,0.471
32.38,31795.2,34660.2,-1.1265,-0.8321,149.9,98.2,0.471
32.4,31963.5,34960.7,-0.1991,-0.0947,149.9,98.2,0.471
32.42,32125.1,35203.5,0.6916,0.5011,149.9,98.2,0.471
32.44,32217.7,35595.0,1.2023,1.462,149.9,98.2,0.471
32.46,32344.6,35713.6,1.9015,1.7532,149.9,98.2,0.471
32.48,32219.1,35713.9,1.2101,1.7538,149.9,98.2,0.471
32.5,32239.0,35453.5,1.3198,1.1148,149.9,98.2,0.471
32.52,32110.4,35292.4,0.6107,0.7194,149.9,98.2,0.471
32.54,32096.7,35131.2,0.5354,0.3238,149.9,98.2,0.471
32.56,32076.5,35132.0,0.4241,0.3257,149.9,98.2,0.471
32.58,31985.0,35150.8,-0.0808,0.3719,149.9,98.2,0.471
32.6,31926.2,35001.7,-0.4047,0.006,149.9,98.2,0.471
32.62,31965.1,34768.2,-0.1902,-0.567,149.9,98.2,0.471
32.64,31792.7,34702.9,-1.1405,-0.7275,149.9,98.2,0.471
32.66,31794.1,34724.8,-1.1331,-0.6738,149.9,98.2,0.471
32.68,31813.4,34682.9,-1.0263,-0.7764,149.9,98.2,0.471
32.7,31887.0,34680.0,-0.6206,-0.7836,149.9,98.2,0.471
32.72,31801.3,34542.5,-1.0931,-1.121,149.9,98.2,0.471
32.74,31764.5,34486.1,-1.2963,-1.2596,149.9,98.2,0.471
32.76,31730.4,34470.5,-1.484,-1.2978,149.9,98.2,0.471
32.78,31785.5,34611.6,-1.1805,-0.9514,149.9,98.2,0.471
32.8,31963.9,34881.9,-0.1967,-0.288,149.9,98.2,0.471
32.82,32170.6,35284.6,0.9425,0.7003,149.9,98.2,0.471
32.84,32295.7,35620.8,1.632,1.5255,149.9,98.2,0.471
32.86,32417.8,35800.2,2.3052,1.9656,149.9,98.2,0.471
32.88,32290.3,35658.5,1.6027,1.6179,149.9,98.2,0.471
32.9,32133.8,35556.9,0.7396,1.3686,149.9,98.2,0.471
32.92,32136.9,35311.8,0.7571,0.7671,149.9,98.2,0.471
32.94,32130.5,35231.9,0.7218,0.5708,149.9,98.2,0.471
32.96,32106.7,35138.8,0.5903,0.3423,149.9,98.2,0.471
32.98,32019.4,34946.7,0.1091,-0.1292,149.9,98.2,0.471
33.0,32004.0,34988.4,0.0245,-0.0268,149.9,98.2,0.471
33.02,31872.4,34853.9,-0.7013,-0.3568,149.9,98.2,0.471
33.04,31836.9,34721.5,-0.8967,-0.6817,149.9,98.2,0.471
33.06,31841.7,34727.9,-0.8707,-0.6661,149.9,98.2,0.471
33.08,31761.9,34640.9,-1.3103,-0.8796,149.9,98.2,0.471
33.1,31888.8,34607.2,-0.6111,-0.9624,149.9,98.2,0.471
33.12,31826.8,34581.4,-0.9526,-1.0256,149.9,98.2,0.471
33.14,31701.9,34419.8,-1.6411,-1.4224,149.9,98.2,0.471
33.16,31746.2,34485.6,-1.3967,-1.2606,149.9,98.2,0.471
33.18,31792.3,34647.9,-1.143,-0.8625,149.9,98.2,0.471
33.2,32009.6,34876.6,0.0551,-0.3011,149.9,98.2,0.471
33.22,32116.0,35315.8,0.6416,0.7769,149.9,98.2,0.471
33.24,32259.0,35561.8,1.4299,1.3806,149.9,98.2,0.471
33.26,32330.2,35685.2,1.8222,1.6833,149.9,98.2,0.471
33.28,32327.2,35638.8,1.806,1.5696,149.9,98.2,0.471
33.3,32296.4,35486.9,1.6362,1.1966,149.9,98.2,0.471
33.32,32074.3,35300.2,0.4118,0.7385,149.9,98.2,0.471
33.34,32111.7,35146.8,0.6179,0.3621,149.9,98.2,0.471
33.36,32029.8,35122.9,0.1662,0.3033,149.9,98.2,0.471
33.38,31991.3,35063.0,-0.0457,0.1564,149.9,98.2,0.471
33.4,32006.8,34922.4,0.0399,-0.1888,149.9,98.2,0.471
33.42,31934.5,34817.7,-0.3589,-0.4457,149.9,98.2,0.471
33.44,31776.5,34668.2,-1.23,-0.8125,149.9,98.2,0.471
33.46,31898.0,34751.2,-0.5599,-0.6089,149.9,98.2,0.471
33.48,31896.2,34702.8,-0.57,-0.7277,149.9,98.2,0.471
33.5,31803.6,34545.1,-1.0805,-1.1147,149.9,98.2,0.471
33.52,31808.0,34584.3,-1.0562,-1.0185,149.9,98.2,0.471
33.54,31733.7,34465.2,-1.4656,-1.3108,149.9,98.2,0.471
33.56,31809.9,34489.6,-1.046,-1.251,149.9,98.2,0.471
33.58,31881.5,34593.3,-0.6509,-0.9964,149.9,98.2,0.471
33.6,31890.5,34882.8,-0.6014,-0.2858,149.9,98.2,0.471
33.62,32185.9,35307.9,1.027,0.7574,149.9,98.2,0.471
33.64,32267.7,35582.1,1.4778,1.4304,149.9,98.2,0.471
33.66,32352.8,35738.4,1.9473,1.814,149.9,98.2,0.471
33.68,32324.4,35676.0,1.7907,1.6608,149.9,98.2,0.471
33.7,32250.1,35513.1,1.3808,1.261,149.9,98.2,0.471
33.72,32130.7,35251.1,0.7227,0.6179,149.9,98.2,0.471
33.74,32107.6,35109.6,0.5951,0.2708,149.9,98.2,0.471
33.76,32040.5,35100.6,0.2254,0.2487,149.9,98.2,0.471
33.78,32158.4,35104.3,0.8755,0.2577,149.9,98.2,0.471
33.8,32054.0,34941.1,0.2998,-0.1428,149.9,98.2,0.471
33.82,31921.5,34891.6,-0.4308,-0.2643,149.9,98.2,0.471
33.84,31849.3,34803.4,-0.8285,-0.4807,149.9,98.2,0.471
33.86,31790.7,34717.2,-1.1514,-0.6924,149.9,98.2,0.471
33.88,31885.7,34691.9,-0.6281,-0.7543,149.9,98.2,0.471
33.9,31854.8,34656.7,-0.7982,-0.8408,149.9,98.2,0.471
33.92,31833.6,34527.9,-0.915,-1.1569,149.9,98.2,0.471
33.94,31782.8,34471.8,-1.1951,-1.2946,149.9,98.2,0.471
33.96,31762.2,34446.5,-1.3087,-1.3566,149.9,98.2,0.471
33.98,31868.9,34594.6,-0.7205,-0.9932,149.9,98.2,0.471
34.0,31961.8,34933.5,-0.2087,-0.1614,149.9,98.2,0.471
34.02,32084.9,35348.0,0.4704,0.8559,149.9,98.2,0.471
34.04,32163.3,35514.0,0.9025,1.2632,149.9,98.2,0.471
34.06,32418.6,35733.2,2.3099,1.8012,149.9,98.2,0.471
34.08,32348.5,35694.2,1.9233,1.7055,149.9,98.2,0.471
34.1,32266.4,35529.5,1.4707,1.3013,149.9,98.2,0.471
34.12,32101.2,35279.6,0.5603,0.6879,149.9,98.2,0.471
34.14,32067.3,35175.8,0.3731,0.4332,149.9,98.2,0.471
34.16,32055.6,35049.2,0.3086,0.1225,149.9,98.2,0.471
34.18,32023.4,35027.3,0.1313,0.0687,149.9,98.2,0.471
34.2,31964.5,34994.7,-0.1937,-0.0112,149.9,98.2,0.471
34.22,31830.8,34810.5,-0.9305,-0.4634,149.9,98.2,0.471
34.24,31848.3,34750.3,-0.8342,-0.611,149.9,98.2,0.471
34.26,31950.0,34735.4,-0.2732,-0.6478,149.9,98.2,0.471
34.28,31858.7,34669.1,-0.7765,-0.8104,149.9,98.2,0.471
34.3,31883.4,34610.8,-0.6405,-0.9536,149.9,98.2,0.471
34.32,31785.9,34552.0,-1.178,-1.0978,149.9,98.2,0.471
34.34,31850.9,34516.2,-0.82,-1.1858,149.9,98.2,0.471
34.36,31771.5,34468.2,-1.2577,-1.3035,149.9,98.2,0.471
34.38,31735.6,34571.9,-1.4553,-1.049,149.9,98.2,0.471
34.4,31965.6,34935.9,-0.1872,-0.1556,149.9,98.2,0.471
34.42,32169.5,35258.7,0.9365,0.6366,149.9,98.2,0.471
34.44,32297.9,35615.7,1.6446,1.5128,149.9,98.2,0.471
34.46,32271.4,35784.3,1.4984,1.9266,149.9,98.2,0.471
34.48,32275.9,35617.8,1.5233,1.5179,149.9,98.2,0.471
34.5,32242.9,35467.9,1.3411,1.1502,149.9,98.2,0.471
34.52,32066.1,35343.0,0.3665,0.8436,149.9,98.2,0.471
34.54,32107.5,35099.3,0.5946,0.2456,149.9,98.2,0.471
34.56,32174.9,35044.5,0.9661,0.1109,149.9,98.2,0.471
34.58,31989.7,34978.0,-0.0546,-0.0522,149.9,98.2,0.471
34.6,31974.3,34989.7,-0.1393,-0.0235,149.9,98.2,0.471
34.62,31936.5,34870.4,-0.3479,-0.3164,149.9,98.2,0.471
34.64,31811.3,34647.4,-1.038,-0.8636,149.9,98.2,0.471
34.66,31827.5,34733.2,-0.9486,-0.653,149.9,98.2,0.471
34.68,31887.9,34685.1,-0.6156,-0.7711,149.9,98.2,0.471
34.7,31857.6,34600.1,-0.7827,-0.9797,149.9,98.2,0.471
34.72,31865.1,34566.3,-0.7417,-1.0626,149.9,98.2,0.471
34.74,31724.6,34366.4,-1.516,-1.5534,149.9,98.2,0.471
34.76,31870.2,34488.5,-0.7132,-1.2537,149.9,98.2,0.471
34.78,31876.0,34601.8,-0.6813,-0.9755,149.9,98.2,0.471
34.8,31955.2,34864.3,-0.2449,-0.3312,149.9,98.2,0.471
34.82,32060.2,35235.4,0.3343,0.5794,149.9,98.2,0.471
34.84,32209.2,35569.7,1.1552,1.3999,149.9,98.2,0.471
34.86,32315.4,35718.5,1.741,1.7651,149.9,98.2,0.471
34.88,32184.6,35679.0,1.0199,1.6683,149.9,98.2,0.471
34.9,32165.8,35534.8,0.9161,1.3144,149.9,98.2,0.471
34.92,32027.4,35253.3,0.1533,0.6233,149.9,98.2,0.471
34.94,32066.5,35149.6,0.3687,0.3689,149.9,98.2,0.471
34.96,32069.4,35133.3,0.3847,0.3289,149.9,98.2,0.471
34.98,32007.9,35061.7,0.0457,0.1531,149.9,98.2,0.471
35.0,32001.8,34997.1,0.0121,-0.0055,149.9,98.2,0.471
35.02,31972.3,34820.8,-0.1508,-0.4381,149.9,98.2,0.471
35.04,31867.0,34763.5,-0.7311,-0.5788,149.9,98.2,0.471
35.06,31969.1,34706.0,-0.1684,-0.7198,149.9,98.2,0.471
35.08,31836.1,34709.4,-0.9014,-0.7115,149.9,98.2,0.471
35.1,31920.9,34606.6,-0.4337,-0.9638,149.9,98.2,0.471
35.12,31844.1,34600.3,-0.8571,-0.9793,149.9,98.2,0.471
35.14,31815.5,34526.6,-1.015,-1.1602,149.9,98.2,0.471
35.16,31772.2,34322.0,-1.2536,-1.6623,149.9,98.2,0.471
35.18,31871.8,34616.8,-0.7044,-0.9387,149.9,98.2,0.471
35.2,31893.8,34924.3,-0.5831,-0.184,149.9,98.2,0.471
35.22,32127.9,35290.8,0.7073,0.7154,149.9,98.2,0.471
35.24,32318.1,35578.5,1.7557,1.4216,149.9,98.2,0.471
35.26,32292.5,35786.3,1.6144,1.9315,149.9,98.2,0.471
35.28,32365.1,35658.4,2.0146,1.6177,149.9,98.2,0.471
35.3,32226.8,35569.1,1.2526,1.3984,149.9,98.2,0.471
35.32,32136.2,35222.0,0.7527,0.5466,149.9,98.2,0.471
35.34,32141.8,35129.2,0.7838,0.3189,149.9,98.2,0.471
35.36,32076.5,35093.0,0.4236,0.2299,149.9,98.2,0.471
35.38,32044.8,35014.8,0.2491,0.0381,149.9,98.2,0.471
35.4,31959.6,34947.9,-0.2205,-0.1262,149.9,98.2,0.471
35.42,31973.2,34835.2,-0.1457,-0.4027,149.9,98.2,0.471
35.44,31828.2,34638.1,-0.9448,-0.8866,149.9,98.2,0.471
35.46,31896.9,34739.9,-0.5661,-0.6367,149.9,98.2,0.471
35.48,31837.9,34614.5,-0.8915,-0.9444,149.9,98.2,0.471
35.5,31740.1,34620.7,-1.4306,-0.9291,149.9,98.2,0.471
35.52,31858.0,34627.5,-0.7809,-0.9126,149.9,98.2,0.471
35.54,31768.3,34418.9,-1.2753,-1.4244,149.9,98.2,0.471
35.56,31737.3,34427.6,-1.4462,-1.4031,149.9,98.2,0.471
35.58,31797.8,34702.8,-1.1124,-0.7278,149.9,98.2,0.471
35.6,31964.1,34904.3,-0.196,-0.2331,149.9,98.2,0.471
35.62,32161.2,35233.4,0.8907,0.5745,149.9,98.2,0.471
35.64,32255.4,35671.4,1.4099,1.6496,149.9,98.2,0.471
35.66,32197.0,35784.0,1.088,1.9258,149.9,98.2,0.471
35.68,32221.7,35698.7,1.2241,1.7165,149.9,98.2,0.471
35.7,32232.3,35468.6,1.2828,1.1519,149.9,98.2,0.471
35.72,32115.5,35353.5,0.639,0.8694,149.9,98.2,0.471
35.74,32071.4,35184.3,0.3956,0.454,149.9,98.2,0.471
35.76,32008.6,35078.3,0.0497,0.194,149.9,98.2,0.471
35.78,31944.9,35070.7,-0.3015,0.1752,149.9,98.2,0.471
35.8,32021.5,34897.9,0.1206,-0.2489,149.9,98.2,0.471
35.82,31946.4,34833.7,-0.2933,-0.4064,149.9,98.2,0.471
35.84,31923.6,34679.3,-0.4188,-0.7855,149.9,98.2,0.471
35.86,31847.2,34648.3,-0.8404,-0.8615,149.9,98.2,0.471
35.88,31905.1,34661.2,-0.5211,-0.8297,149.9,98.2,0.471
35.9,31751.1,34568.5,-1.3699,-1.0572,149.9,98.2,0.471
35.92,31819.5,34504.9,-0.993,-1.2133,149.9,98.2,0.471
35.94,31819.8,34438.0,-0.9911,-1.3776,149.9,98.2,0.471
35.96,31791.8,34449.1,-1.1458,-1.3502,149.9,98.2,0.471
35.98,31767.9,34577.2,-1.2771,-1.0359,149.9,98.2,0.471
36.0,31961.0,34830.4,-0.2128,-0.4145,149.9,98.2,0.471
36.02,32087.1,35277.7,0.4823,0.6832,149.9,98.2,0.471
36.04,32260.7,35640.4,1.4395,1.5735,149.9,98.2,0.471
36.06,32355.9,35807.8,1.964,1.9842,149.9,98.2,0.471
36.08,32308.2,35675.7,1.701,1.66,149.9,98.2,0.471
36.1,32200.3,35475.7,1.1063,1.1693,149.9,98.2,0.471
36.12,32089.7,35347.4,0.4968,0.8544,149.9,98.2,0.471
36.14,32079.7,35172.6,0.4416,0.4252,149.9,98.2,0.471
36.16,32028.5,35117.6,0.1591,0.2904,149.9,98.2,0.471
36.18,31963.1,35081.8,-0.2011,0.2024,149.9,98.2,0.471
36.2,32054.2,34910.0,0.3012,-0.2191,149.9,98.2,0.471
36.22,31921.3,34761.7,-0.4315,-0.5832,149.9,98.2,0.471
36.24,31917.0,34619.8,-0.4554,-0.9314,149.9,98.2,0.471
36.26,31865.1,34620.8,-0.7417,-0.9289,149.9,98.2,0.471
36.28,31868.3,34658.1,-0.7239,-0.8374,149.9,98.2,0.471
36.3,31832.0,34633.2,-0.9241,-0.8986,149.9,98.2,0.471
36.32,31877.6,34535.1,-0.6725,-1.1393,149.9,98.2,0.471
36.34,31833.4,34476.9,-0.9161,-1.2821,149.9,98.2,0.471
36.36,31806.3,34440.2,-1.0654,-1.3721,149.9,98.2,0.471
36.38,31883.7,34494.2,-0.6387,-1.2397,149.9,98.2,0.471
36.4,31996.4,34929.1,-0.0179,-0.1723,149.9,98.2,0.471
36.42,31991.7,35148.7,-0.0435,0.3667,149.9,98.2,0.471
36.44,32328.8,35588.6,1.8145,1.4464,149.9,98.2,0.471
36.46,32319.7,35841.4,1.7643,2.0668,149.9,98.2,0.471
36.48,32284.6,35669.2,1.5713,1.6442,149.9,98.2,0.471
36.5,32218.0,35499.7,1.2037,1.2282,149.9,98.2,0.471
36.52,32165.9,35345.5,0.9165,0.8497,149.9,98.2,0.471
36.54,32146.7,35107.4,0.8111,0.2653,149.9,98.2,0.471
36.56,32046.2,35114.0,0.257,0.2815,149.9,98.2,0.471
36.58,31978.6,35129.7,-0.1156,0.32,149.9,98.2,0.471
36.6,31958.7,34970.4,-0.2254,-0.0708,149.9,98.2,0.471
36.62,31882.4,34818.2,-0.6462,-0.4444,149.9,98.2,0.471
36.64,31828.1,34708.6,-0.9457,-0.7134,149.9,98.2,0.471
36.66,31812.7,34565.8,-1.0302,-1.064,149.9,98.2,0.471
36.68,31836.5,34585.8,-0.899,-1.0148,149.9,98.2,0.471
36.7,31812.6,34683.4,-1.031,-0.7753,149.9,98.2,0.471
36.72,31809.1,34597.6,-1.0503,-0.9859,149.9,98.2,0.471
36.74,31779.3,34520.2,-1.2144,-1.1758,149.9,98.2,0.471
36.76,31760.8,34428.2,-1.3167,-1.4015,149.9,98.2,0.471
36.78,31934.9,34534.7,-0.3566,-1.1402,149.9,98.2,0.471
36.8,31971.0,34821.7,-0.1577,-0.4358,149.9,98.2,0.471
36.82,32109.1,35299.3,0.6036,0.7364,149.9,98.2,0.471
36.84,32263.9,35589.9,1.4571,1.4495,149.9,98.2,0.471
36.86,32301.5,35744.8,1.6643,1.8298,149.9,98.2,0.471
36.88,32300.1,35710.1,1.6565,1.7445,149.9,98.2,0.471
36.9,32194.8,35439.5,1.076,1.0805,149.9,98.2,0.471
36.92,32189.4,35314.6,1.046,0.7739,149.9,98.2,0.471
36.94,32068.3,35210.8,0.3786,0.5191,149.9,98.2,0.471
36.96,32015.7,35052.0,0.0885,0.1294,149.9,98.2,0.471
36.98,32164.7,35020.6,0.9099,0.0523,149.9,98.2,0.471
37.0,31935.6,35093.9,-0.3529,0.2323,149.9,98.2,0.471
37.02,31823.4,34808.1,-0.9714,-0.4693,149.9,98.2,0.471
37.04,31847.6,34736.9,-0.8382,-0.6439,149.9,98.2,0.471
37.06,31876.2,34764.5,-0.6801,-0.5762,149.9,98.2,0.471
37.08,31747.4,34602.5,-1.3904,-0.9739,149.9,98.2,0.471
37.1,31839.8,34537.4,-0.8811,-1.1336,149.9,98.2,0.471
37.12,31813.7,34518.2,-1.0249,-1.1806,149.9,98.2,0.471
37.14,31700.8,34534.6,-1.6474,-1.1404,149.9,98.2,0.471
37.16,31671.3,34425.3,-1.8098,-1.4087,149.9,98.2,0.471
37.18,31774.2,34541.2,-1.2426,-1.1242,149.9,98.2,0.471
37.2,32028.6,34800.2,0.1598,-0.4886,149.9,98.2,0.471
37.22,32033.5,35212.9,0.187,0.5242,149.9,98.2,0.471
37.24,32278.1,35624.8,1.5351,1.5351,149.9,98.2,0.471
37.26,32321.2,35646.4,1.7729,1.5883,149.9,98.2,0.471
37.28,32304.9,35699.2,1.6832,1.7177,149.9,98.2,0.471
37.3,32274.7,35501.9,1.5164,1.2335,149.9,98.2,0.471
37.32,32150.1,35381.6,0.8295,0.9384,149.9,98.2,0.471
37.34,31977.1,35084.4,-0.124,0.2088,149.9,98.2,0.471
37.36,32022.0,35090.7,0.1237,0.2243,149.9,98.2,0.471
37.38,31940.6,35041.2,-0.3252,0.1029,149.9,98.2,0.471
37.4,31958.9,35012.9,-0.2244,0.0334,149.9,98.2,0.471
37.42,31904.3,34742.2,-0.5256,-0.6309,149.9,98.2,0.471
37.44,31851.9,34705.0,-0.8144,-0.7223,149.9,98.2,0.471
37.46,31787.9,34661.2,-1.1671,-0.8297,149.9,98.2,0.471
37.48,31827.9,34669.6,-0.9464,-0.8093,149.9,98.2,0.471
37.5,31793.1,34700.0,-1.1384,-0.7346,149.9,98.2,0.471
37.52,31771.1,34503.3,-1.2596,-1.2173,149.9,98.2,0.471
37.54,31770.3,34483.1,-1.2643,-1.267,149.9,98.2,0.471
37.56,31813.7,34515.5,-1.0246,-1.1874,149.9,98.2,0.471
37.58,31791.8,34579.0,-1.1455,-1.0316,149.9,98.2,0.471
37.6,31954.8,34830.7,-0.2471,-0.4137,149.9,98.2,0.471
37.62,32017.9,35258.9,0.1006,0.6371,149.9,98.2,0.471
37.64,32382.2,35546.1,2.1089,1.3421,149.9,98.2,0.471
37.66,32282.8,35748.0,1.5609,1.8375,149.9,98.2,0.471
37.68,32342.1,35745.6,1.8882,1.8316,149.9,98.2,0.471
37.7,32174.7,35535.1,0.9652,1.3149,149.9,98.2,0.471
37.72,32159.8,35267.3,0.883,0.6579,149.9,98.2,0.471
37.74,32015.3,35345.3,0.0864,0.8492,149.9,98.2,0.471
37.76,32011.4,35128.5,0.0651,0.317,149.9,98.2,0.471
37.78,32019.3,35006.0,0.1084,0.0164,149.9,98.2,0.471
37.8,32059.4,34972.7,0.3296,-0.0652,149.9,98.2,0.471
37.82,31883.2,34850.1,-0.6416,-0.3663,149.9,98.2,0.471
37.84,31878.3,34707.4,-0.6689,-0.7164,149.9,98.2,0.471
37.86,31929.6,34744.0,-0.3859,-0.6266,149.9,98.2,0.471
37.88,31820.2,34646.3,-0.9887,-0.8663,149.9,98.2,0.471
37.9,31874.0,34564.8,-0.6926,-1.0664,149.9,98.2,0.471
37.92,31833.4,34598.0,-0.9161,-0.985,149.9,98.2,0.471
37.94,31743.5,34353.1,-1.412,-1.5859,149.9,98.2,0.471
37.96,31795.4,34431.8,-1.1258,-1.3928,149.9,98.2,0.471
37.98,31833.9,34667.4,-0.9135,-0.8145,149.9,98.2,0.471
38.0,31890.6,34849.1,-0.601,-0.3687,149.9,98.2,0.471
38.02,32126.3,35198.1,0.6984,0.488,149.9,98.2,0.471
38.04,32267.9,35547.2,1.4791,1.3448,149.9,98.2,0.471
38.06,32289.9,35710.7,1.6003,1.746,149.9,98.2,0.471
38.08,32313.0,35687.2,1.7277,1.6884,149.9,98.2,0.471
38.1,32254.3,35497.6,1.4041,1.223,149.9,98.2,0.471
38.12,32149.0,35337.7,0.8238,0.8306,149.9,98.2,0.471
38.14,32144.7,35171.1,0.7996,0.4218,149.9,98.2,0.471
38.16,32025.4,35139.4,0.1422,0.3438,149.9,98.2,0.471
38.18,31945.8,35104.4,-0.2964,0.258,149.9,98.2,0.471
38.2,31908.1,34959.7,-0.5044,-0.0973,149.9,98.2,0.471
38.22,31917.4,34805.8,-0.453,-0.4748,149.9,98.2,0.471
38.24,31876.7,34819.4,-0.6774,-0.4415,149.9,98.2,0.471
38.26,31826.1,34738.2,-0.9564,-0.6409,149.9,98.2,0.471
38.28,31835.3,34762.0,-0.9059,-0.5823,149.9,98.2,0.471
38.3,31924.7,34700.0,-0.4128,-0.7346,149.9,98.2,0.471
38.32,31772.7,34530.5,-1.251,-1.1504,149.9,98.2,0.471
38.34,31816.2,34496.3,-1.011,-1.2346,149.9,98.2,0.471
38.36,31764.5,34372.8,-1.2961,-1.5375,149.9,98.2,0.471
38.38,31837.1,34627.0,-0.8957,-0.9138,149.9,98.2,0.471
38.4,32017.9,34801.8,0.1007,-0.4847,149.9,98.2,0.471
38.42,32209.0,35249.1,1.1545,0.6132,149.9,98.2,0.471
38.44,32264.8,35668.3,1.462,1.642,149.9,98.2,0.471
38.46,32264.4,35665.6,1.4597,1.6353,149.9,98.2,0.471
38.48,32321.6,35741.5,1.7753,1.8217,149.9,98.2,0.471
38.5,32249.0,35561.4,1.3747,1.3795,149.9,98.2,0.471
38.52,32180.2,35320.5,0.9957,0.7884,149.9,98.2,0.471
38.54,32032.9,35091.1,0.1835,0.2254,149.9,98.2,0.471
38.56,31982.3,35069.9,-0.0954,0.1734,149.9,98.2,0.471
38.58,31990.7,35054.9,-0.0493,0.1365,149.9,98.2,0.471
38.6,31915.5,34939.9,-0.4637,-0.1457,149.9,98.2,0.471
38.62,32014.5,34880.3,0.0819,-0.2919,149.9,98.2,0.471
38.64,31926.3,34708.0,-0.4041,-0.7148,149.9,98.2,0.471
38.66,31940.4,34665.4,-0.3263,-0.8194,149.9,98.2,0.471
38.68,31811.5,34744.0,-1.037,-0.6266,149.9,98.2,0.471
38.7,31853.3,34708.0,-0.8063,-0.715,149.9,98.2,0.471
38.72,31850.9,34566.8,-0.8199,-1.0615,149.9,98.2,0.471
38.74,31770.4,34503.6,-1.2636,-1.2165,149.9,98.2,0.471
38.76,31784.1,34413.1,-1.1882,-1.4386,149.9,98.2,0.471
38.78,31875.0,34587.8,-0.687,-1.0099,149.9,98.2,0.471
38.8,31977.4,34837.0,-0.1223,-0.3983,149.9,98.2,0.471
38.82,32064.0,35184.3,0.3552,0.4541,149.9,98.2,0.471
38.84,32219.9,35540.8,1.2144,1.3291,149.9,98.2,0.471
38.86,32284.5,35776.8,1.5708,1.9083,149.9,98.2,0.471
38.88,32268.6,35744.5,1.483,1.8291,149.9,98.2,0.471
38.9,32178.1,35430.1,0.9841,1.0573,149.9,98.2,0.471
38.92,32126.7,35352.1,0.7005,0.8658,149.9,98.2,0.471
38.94,31996.3,35157.5,-0.0181,0.3884,149.9,98.2,0.471
38.96,32072.1,35124.4,0.3998,0.3071,149.9,98.2,0.471
38.98,32072.5,35032.5,0.4021,0.0814,149.9,98.2,0.471
39.0,31983.6,34980.8,-0.0883,-0.0453,149.9,98.2,0.471
39.02,31861.2,34819.5,-0.7627,-0.4413,149.9,98.2,0.471
39.04,31943.8,34786.7,-0.3077,-0.5218,149.9,98.2,0.471
39.06,31911.6,34688.8,-0.4854,-0.7621,149.9,98.2,0.471
39.08,31850.9,34594.5,-0.8199,-0.9935,149.9,98.2,0.471
39.1,31899.0,34713.9,-0.5547,-0.7004,149.9,98.2,0.471
39.12,31849.8,34547.1,-0.8259,-1.1098,149.9,98.2,0.471
39.14,31762.1,34411.4,-1.3091,-1.443,149.9,98.2,0.471
39.16,31734.7,34506.1,-1.4603,-1.2103,149.9,98.2,0.471
39.18,31772.6,34595.6,-1.2512,-0.9908,149.9,98.2,0.471
39.2,32015.0,34857.8,0.0846,-0.3473,149.9,98.2,0.471
39.22,32097.7,35231.4,0.5405,0.5696,149.9,98.2,0.471
39.24,32232.1,35611.3,1.2815,1.5021,149.9,98.2,0.471
39.26,32346.7,35756.6,1.9134,1.8587,149.9,98.2,0.471
39.28,32297.5,35678.5,1.6421,1.6671,149.9,98.2,0.471
39.3,32221.4,35575.0,1.2227,1.4129,149.9,98.2,0.471
39.32,32196.6,35393.0,1.0859,0.9662,149.9,98.2,0.471
39.34,32057.7,35237.6,0.3203,0.5849,149.9,98.2,0.471
39.36,32031.1,35033.1,0.1737,0.083,149.9,98.2,0.471
39.38,31924.4,35069.6,-0.4148,0.1726,149.9,98.2,0.471
39.4,32050.5,34981.3,0.2806,-0.0441,149.9,98.2,0.471
39.42,31860.4,34861.6,-0.7676,-0.338,149.9,98.2,0.471
39.44,31838.7,34740.5,-0.8869,-0.6353,149.9,98.2,0.471
39.46,31876.2,34659.5,-0.68,-0.834,149.9,98.2,0.471
39.48,31872.5,34769.7,-0.7009,-0.5634,149.9,98.2,0.471
39.5,31796.9,34679.8,-1.1176,-0.7841,149.9,98.2,0.471
39.52,31843.9,34614.8,-0.8582,-0.9436,149.9,98.2,0.471
39.54,31753.1,34485.9,-1.3589,-1.26,149.9,98.2,0.471
39.56,31782.0,34491.6,-1.1998,-1.2459,149.9,98.2,0.471
39.58,31736.8,34556.0,-1.4488,-1.0878,149.9,98.2,0.471
39.6,31970.1,34892.7,-0.1627,-0.2615,149.9,98.2,0.471
39.62,32036.1,35272.4,0.2013,0.6703,149.9,98.2,0.471
39.64,32308.7,35570.7,1.7037,1.4025,149.9,98.2,0.471
39.66,32337.0,35757.8,1.8599,1.8616,149.9,98.2,0.471
39.68,32398.5,35694.3,2.1991,1.7058,149.9,98.2,0.471
39.7,32242.2,35526.4,1.3371,1.2938,149.9,98.2,0.471
39.72,32156.1,35297.4,0.8625,0.7317,149.9,98.2,0.471
39.74,32035.0,35125.9,0.1951,0.3108,149.9,98.2,0.471
39.76,32005.1,35150.8,0.0305,0.372,149.9,98.2,0.471
39.78,32052.7,35113.7,0.2928,0.2807,149.9,98.2,0.471
39.8,31990.7,34996.2,-0.0489,-0.0075,149.9,98.2,0.471
39.82,31996.5,34799.7,-0.0172,-0.4899,149.9,98.2,0.471
39.84,31952.4,34737.3,-0.2603,-0.6431,149.9,98.2,0.471
39.86,31816.1,34596.5,-1.0113,-0.9886,149.9,98.2,0.471
39.88,31843.3,34734.7,-0.8619,-0.6495,149.9,98.2,0.471
39.9,31880.0,34678.8,-0.6595,-0.7865,149.9,98.2,0.471
39.92,31893.0,34544.8,-0.5875,-1.1154,149.9,98.2,0.471
39.94,31711.0,34514.7,-1.591,-1.1892,149.9,98.2,0.471
39.96,31677.9,34451.7,-1.7734,-1.344,149.9,98.2,0.471
39.98,31755.4,34563.1,-1.3461,-1.0706,149.9,98.2,0.471
40.0,31827.9,34888.1,-0.9468,-0.2728,149.9,98.2,0.471
40.02,32060.2,35216.1,0.3339,0.5322,149.9,98.2,0.471
40.04,32234.8,35463.3,1.2965,1.1387,149.9,98.2,0.471
40.06,32297.8,35740.2,1.6438,1.8184,149.9,98.2,0.471
40.08,32274.1,35701.9,1.5134,1.7244,149.9,98.2,0.471
40.1,32240.1,35535.2,1.3257,1.3154,149.9,98.2,0.471
40.12,32087.3,35322.2,0.4832,0.7926,149.9,98.2,0.471
40.14,32095.2,35163.1,0.5269,0.4021,149.9,98.2,0.471
40.16,31984.6,35059.4,-0.0829,0.1476,149.9,98.2,0.471
40.18,32035.0,35021.9,0.1953,0.0556,149.9,98.2,0.471
40.2,32086.6,34988.1,0.4794,-0.0275,149.9,98.2,0.471
40.22,31925.2,34933.2,-0.4104,-0.1623,149.9,98.2,0.471
40.24,31916.1,34709.8,-0.4604,-0.7105,149.9,98.2,0.471
40.26,31831.0,34746.2,-0.9293,-0.6212,149.9,98.2,0.471
40.28,31900.9,34674.2,-0.5441,-0.798,149.9,98.2,0.471
40.3,31866.6,34551.9,-0.733,-1.0979,149.9,98.2,0.471
40.32,31915.9,34550.6,-0.4612,-1.1012,149.9,98.2,0.471
40.34,31827.3,34499.2,-0.9497,-1.2273,149.9,98.2,0.471
40.36,31800.0,34500.9,-1.1005,-1.2233,149.9,98.2,0.471
40.38,31767.1,34540.0,-1.2815,-1.1273,149.9,98.2,0.471
40.4,31948.7,34767.8,-0.2806,-0.5682,149.9,98.2,0.471
40.42,32134.5,35245.0,0.7435,0.603,149.9,98.2,0.471
40.44,32224.6,35551.7,1.2401,1.3558,149.9,98.2,0.471
40.46,32323.4,35722.3,1.7848,1.7745,149.9,98.2,0.471
40.48,32305.3,35732.3,1.6851,1.799,149.9,98.2,0.471
40.5,32147.4,35613.1,0.8145,1.5064,149.9,98.2,0.471
40.52,32186.9,35333.4,1.0327,0.82,149.9,98.2,0.471
40.54,32024.6,35193.5,0.138,0.4766,149.9,98.2,0.471
40.56,32085.1,35092.8,0.4711,0.2295,149.9,98.2,0.471
40.58,32010.9,35091.7,0.062,0.2268,149.9,98.2,0.471
40.6,31908.3,35076.1,-0.5035,0.1886,149.9,98.2,0.471
40.62,31874.0,34745.6,-0.6924,-0.6226,149.9,98.2,0.471
40.64,31803.9,34708.7,-1.0788,-0.7132,149.9,98.2,0.471
40.66,31912.5,34666.7,-0.4801,-0.8164,149.9,98.2,0.471
40.68,31859.9,34626.3,-0.77,-0.9155,149.9,98.2,0.471
40.7,31915.6,34631.1,-0.4632,-0.9036,149.9,98.2,0.471
40.72,31790.6,34578.8,-1.1523,-1.032,149.9,98.2,0.471
40.74,31765.2,34460.4,-1.2923,-1.3226,149.9,98.2,0.471
40.76,31707.3,34477.8,-1.6114,-1.2798,149.9,98.2,0.471
40.78,31903.9,34575.9,-0.5273,-1.0391,149.9,98.2,0.471
40.8,31872.8,34733.1,-0.6988,-0.6534,149.9,98.2,0.471
40.82,32107.9,35221.2,0.5969,0.5447,149.9,98.2,0.471
40.84,32190.7,35602.4,1.0534,1.4802,149.9,98.2,0.471
40.86,32346.0,35704.2,1.9093,1.73,149.9,98.2,0.471
40.88,32275.8,35715.1,1.5225,1.7568,149.9,98.2,0.471
40.9,32262.7,35573.4,1.4501,1.4091,149.9,98.2,0.471
40.92,32116.4,35310.3,0.6439,0.7634,149.9,98.2,0.471
40.94,32023.7,35194.6,0.1329,0.4794,149.9,98.2,0.471
40.96,32043.7,35136.1,0.2428,0.3358,149.9,98.2,0.471
40.98,32034.1,35017.7,0.1899,0.0453,149.9,98.2,0.471
41.0,32049.6,35012.5,0.2756,0.0324,149.9,98.2,0.471
41.02,31918.3,34934.3,-0.4484,-0.1595,149.9,98.2,0.471
41.04,31865.5,34772.5,-0.7394,-0.5565,149.9,98.2,0.471
41.06,31831.7,34735.2,-0.9256,-0.648,149.9,98.2,0.471
41.08,31937.2,34720.1,-0.3442,-0.6851,149.9,98.2,0.471
41.1,31784.7,34676.6,-1.1846,-0.7921,149.9,98.2,0.471
41.12,31881.9,34622.1,-0.6487,-0.9258,149.9,98.2,0.471
41.14,31866.8,34571.3,-0.7323,-1.0505,149.9,98.2,0.471
41.16,31764.3,34438.3,-1.2969,-1.3768,149.9,98.2,0.471
41.18,31828.1,34617.7,-0.9455,-0.9366,149.9,98.2,0.471
41.2,31890.4,34951.9,-0.6019,-0.1162,149.9,98.2,0.471
41.22,32041.7,35178.7,0.232,0.4403,149.9,98.2,0.471
41.24,32184.9,35585.7,1.0215,1.4391,149.9,98.2,0.471
41.26,32299.7,35815.0,1.6541,2.0019,149.9,98.2,0.471
41.28,32308.2,35694.7,1.7011,1.7067,149.9,98.2,0.471
41.3,32181.6,35605.8,1.0033,1.4886,149.9,98.2,0.471
41.32,32164.3,35321.4,0.9081,0.7907,149.9,98.2,0.471
41.34,32099.3,35281.1,0.5494,0.6917,149.9,98.2,0.471
41.36,32135.3,35045.2,0.748,0.1126,149.9,98.2,0.471
41.38,32014.2,35165.2,0.0805,0.4072,149.9,98.2,0.471
41.4,31993.3,34844.6,-0.035,-0.3797,149.9,98.2,0.471
41.42,32052.1,34852.8,0.2891,-0.3594,149.9,98.2,0.471
41.44,31825.8,34785.6,-0.9582,-0.5244,149.9,98.2,0.471
41.46,31746.8,34686.8,-1.3934,-0.7669,149.9,98.2,0.471
41.48,31880.2,34694.9,-0.6582,-0.7471,149.9,98.2,0.471
41.5,31773.4,34651.8,-1.247,-0.8529,149.9,98.2,0.471
41.52,31752.5,34532.5,-1.362,-1.1457,149.9,98.2,0.471
41.54,31747.0,34591.8,-1.3924,-1.0001,149.9,98.2,0.471
41.56,31737.4,34459.6,-1.4453,-1.3247,149.9,98.2,0.471
41.58,31812.2,34631.4,-1.0331,-0.9028,149.9,98.2,0.471
41.6,31884.9,34877.5,-0.6326,-0.2988,149.9,98.2,0.471
41.62,32036.5,35263.8,0.2036,0.6492,149.9,98.2,0.471
41.64,32153.9,35498.1,0.8508,1.2243,149.9,98.2,0.471
41.66,32327.9,35763.0,1.81,1.8743,149.9,98.2,0.471
41.68,32278.6,35742.4,1.5382,1.8239,149.9,98.2,0.471
41.7,32147.1,35469.5,0.8131,1.1541,149.9,98.2,0.471
41.72,32112.8,35288.3,0.6239,0.7092,149.9,98.2,0.471
41.74,32125.1,35277.8,0.6915,0.6836,149.9,98.2,0.471
41.76,32030.6,35154.1,0.1709,0.3798,149.9,98.2,0.471
41.78,32046.0,35061.2,0.2555,0.1519,149.9,98.2,0.471
41.8,31990.5,35071.5,-0.0501,0.1771,149.9,98.2,0.471
41.82,31901.0,34843.2,-0.5435,-0.3832,149.9,98.2,0.471
41.84,31811.7,34789.2,-1.036,-0.5155,149.9,98.2,0.471
41.86,31787.1,34707.1,-1.1712,-0.7171,149.9,98.2,0.471
41.88,31856.8,34690.7,-0.787,-0.7575,149.9,98.2,0.471
41.9,31855.0,34588.5,-0.7973,-1.0081,149.9,98.2,0.471
41.92,31886.8,34603.0,-0.6218,-0.9727,149.9,98.2,0.471
41.94,31742.6,34415.4,-1.4166,-1.4331,149.9,98.2,0.471
41.96,31810.9,34579.6,-1.0404,-1.0299,149.9,98.2,0.471
41.98,31895.2,34546.0,-0.5754,-1.1124,149.9,98.2,0.471
42.0,31826.3,34913.8,-0.9555,-0.2099,149.9,98.2,0.471
42.02,32119.4,35254.9,0.6604,0.6274,149.9,98.2,0.471
42.04,32255.1,35567.6,1.4085,1.3947,149.9,98.2,0.471
42.06,32386.8,35760.0,2.1346,1.8671,149.9,98.2,0.471
42.08,32360.3,35707.2,1.9885,1.7373,149.9,98.2,0.471
42.1,32150.2,35509.5,0.8302,1.2522,149.9,98.2,0.471
42.12,32133.5,35346.6,0.7383,0.8525,149.9,98.2,0.471
42.14,32104.3,35182.4,0.5769,0.4494,149.9,98.2,0.471
42.16,32085.1,35005.2,0.4713,0.0145,149.9,98.2,0.471
42.18,32072.8,35063.9,0.4035,0.1585,149.9,98.2,0.471
42.2,31947.3,34932.4,-0.2884,-0.1642,149.9,98.2,0.471
42.22,31972.6,34932.4,-0.1487,-0.1642,149.9,98.2,0.471
42.24,31856.3,34768.2,-0.79,-0.5671,149.9,98.2,0.471
42.26,31883.7,34661.8,-0.6388,-0.8283,149.9,98.2,0.471
42.28,31836.8,34646.4,-0.8975,-0.8661,149.9,98.2,0.471
42.3,31969.4,34761.0,-0.1663,-0.5848,149.9,98.2,0.471
42.32,31744.5,34599.8,-1.4061,-0.9805,149.9,98.2,0.471
42.34,31758.2,34473.8,-1.3309,-1.2898,149.9,98.2,0.471
42.36,31668.8,34401.7,-1.8235,-1.4665,149.9,98.2,0.471
42.38,31818.5,34534.6,-0.9983,-1.1404,149.9,98.2,0.471
42.4,31915.7,34826.8,-0.4624,-0.4232,149.9,98.2,0.471
42.42,32032.4,35213.5,0.181,0.5258,149.9,98.2,0.471
42.44,32168.8,35553.8,0.9325,1.361,149.9,98.2,0.471
42.46,32348.9,35758.2,1.9258,1.8626,149.9,98.2,0.471
42.48,32378.9,35668.6,2.0907,1.6426,149.9,98.2,0.471
42.5,32327.6,35632.1,1.8079,1.5531,149.9,98.2,0.471
42.52,32155.4,35270.3,0.8589,0.6653,149.9,98.2,0.471
42.54,32082.3,35255.4,0.4561,0.6287,149.9,98.2,0.471
42.56,31996.9,35180.8,-0.0151,0.4455,149.9,98.2,0.471
42.58,32015.8,34952.8,0.0891,-0.1141,149.9,98.2,0.471
42.6,31977.2,34884.8,-0.1237,-0.281,149.9,98.2,0.471
42.62,32003.3,34918.6,0.0206,-0.1981,149.9,98.2,0.471
42.64,31935.1,34732.3,-0.3554,-0.6553,149.9,98.2,0.471
42.66,31855.2,34747.7,-0.7961,-0.6176,149.9,98.2,0.471
42.68,31836.8,34647.9,-0.8978,-0.8624,149.9,98.2,0.471
42.7,31890.1,34719.8,-0.6038,-0.6858,149.9,98.2,0.471
42.72,31878.4,34605.0,-0.668,-0.9677,149.9,98.2,0.471
42.74,31841.7,34512.3,-0.8706,-1.1953,149.9,98.2,0.471
42.76,31752.5,34436.8,-1.362,-1.3806,149.9,98.2,0.471
42.78,31752.9,34516.1,-1.3598,-1.1858,149.9,98.2,0.471
42.8,31894.0,34731.9,-0.5823,-0.6562,149.9,98.2,0.471
42.82,32173.8,35187.2,0.9602,0.4612,149.9,98.2,0.471
42.84,32166.3,35553.9,0.9187,1.3611,149.9,98.2,0.471
42.86,32262.2,35706.8,1.4473,1.7364,149.9,98.2,0.471
42.88,32277.4,35661.3,1.5313,1.6249,149.9,98.2,0.471
42.9,32362.8,35516.8,2.0022,1.2702,149.9,98.2,0.471
42.92,32110.4,35304.6,0.611,0.7494,149.9,98.2,0.471
42.94,32082.9,35225.7,0.459,0.5557,149.9,98.2,0.471
42.96,31972.9,35162.6,-0.1475,0.4008,149.9,98.2,0.471
42.98,31989.6,35153.5,-0.0549,0.3784,149.9,98.2,0.471
43.0,31977.8,34957.4,-0.1203,-0.1028,149.9,98.2,0.471
43.02,31902.1,34832.2,-0.5376,-0.4101,149.9,98.2,0.471
43.04,31790.3,34761.0,-1.154,-0.5849,149.9,98.2,0.471
43.06,31847.5,34643.4,-0.8385,-0.8735,149.9,98.2,0.471
43.08,31981.2,34607.1,-0.1015,-0.9625,149.9,98.2,0.471
43.1,31977.5,34616.0,-0.1219,-0.9407,149.9,98.2,0.471
43.12,31781.5,34564.8,-1.2025,-1.0663,149.9,98.2,0.471
43.14,31721.5,34520.1,-1.5331,-1.176,149.9,98.2,0.471
43.16,31790.1,34484.2,-1.1551,-1.2643,149.9,98.2,0.471
43.18,31750.7,34483.2,-1.3723,-1.2665,149.9,98.2,0.471
43.2,31901.5,34730.6,-0.5409,-0.6593,149.9,98.2,0.471
43.22,32088.7,35224.9,0.4911,0.5537,149.9,98.2,0.471
43.24,32197.8,35537.4,1.0927,1.3206,149.9,98.2,0.471
43.26,32239.7,35774.3,1.3238,1.9022,149.9,98.2,0.471
43.28,32329.2,35736.0,1.8169,1.8081,149.9,98.2,0.471
43.3,32259.9,35478.9,1.4347,1.177,149.9,98.2,0.471
43.32,32177.1,35271.1,0.9787,0.667,149.9,98.2,0.471
43.34,32104.2,35199.8,0.5763,0.492,149.9,98.2,0.471
43.36,32114.7,35142.1,0.6344,0.3505,149.9,98.2,0.471
43.38,32029.4,35116.9,0.1641,0.2885,149.9,98.2,0.471
43.4,31951.0,35016.5,-0.268,0.0422,149.9,98.2,0.471
43.42,31839.8,34840.2,-0.8811,-0.3905,149.9,98.2,0.471
43.44,31986.3,34834.6,-0.0732,-0.4043,149.9,98.2,0.471
43.46,31825.4,34716.6,-0.9604,-0.6938,149.9,98.2,0.471
43.48,31862.7,34694.9,-0.7549,-0.7471,149.9,98.2,0.471
43.5,31797.0,34647.4,-1.1167,-0.8638,149.9,98.2,0.471
43.52,31718.0,34600.4,-1.5525,-0.979,149.9,98.2,0.471
43.54,31726.5,34563.0,-1.5056,-1.0709,149.9,98.2,0.471
43.56,31729.0,34369.6,-1.4918,-1.5455,149.9,98.2,0.471
43.58,31866.9,34612.9,-0.7314,-0.9484,149.9,98.2,0.471
43.6,31827.6,34790.1,-0.9482,-0.5133,149.9,98.2,0.471
43.62,32062.0,35243.2,0.3437,0.5985,149.9,98.2,0.471
43.64,32200.0,35483.7,1.1045,1.1889,149.9,98.2,0.471
43.66,32321.7,35765.6,1.7758,1.8808,149.9,98.2,0.471
43.68,32304.9,35818.6,1.683,2.0109,149.9,98.2,0.471
43.7,32213.7,35684.6,1.1802,1.6819,149.9,98.2,0.471
43.72,32116.7,35279.1,0.6455,0.6868,149.9,98.2,0.471
43.74,32043.8,35255.1,0.2437,0.6279,149.9,98.2,0.471
43.76,32151.8,35198.2,0.8387,0.4881,149.9,98.2,0.471
43.78,32003.4,35070.3,0.0211,0.1742,149.9,98.2,0.471
43.8,31872.1,34996.5,-0.7027,-0.0068,149.9,98.2,0.471
43.82,31948.6,34885.0,-0.2813,-0.2805,149.9,98.2,0.471
43.84,31981.7,34770.6,-0.0987,-0.5614,149.9,98.2,0.471
43.86,31921.9,34775.5,-0.4286,-0.5493,149.9,98.2,0.471
43.88,31849.6,34666.8,-0.8269,-0.8161,149.9,98.2,0.471
43.9,31820.8,34576.8,-0.9857,-1.0369,149.9,98.2,0.471
43.92,31730.4,34553.0,-1.4842,-1.0954,149.9,98.2,0.471
43.94,31777.8,34480.0,-1.2227,-1.2744,149.9,98.2,0.471
43.96,31830.9,34510.3,-0.93,-1.2002,149.9,98.2,0.471
43.98,31880.2,34550.1,-0.6583,-1.1024,149.9,98.2,0.471
44.0,31870.4,34784.6,-0.712,-0.5269,149.9,98.2,0.471
44.02,32201.1,35180.2,1.1109,0.4439,149.9,98.2,0.471
44.04,32273.1,35502.3,1.5079,1.2346,149.9,98.2,0.471
44.06,32165.1,35706.6,0.9124,1.736,149.9,98.2,0.471
44.08,32252.1,35727.3,1.3918,1.7867,149.9,98.2,0.471
44.1,32190.7,35554.4,1.0534,1.3624,149.9,98.2,0.471
44.12,32129.1,35392.6,0.7137,0.9653,149.9,98.2,0.471
44.14,32113.9,35283.2,0.6301,0.6968,149.9,98.2,0.471
44.16,32045.8,35061.6,0.2548,0.1529,149.9,98.2,0.471
44.18,31974.5,35141.6,-0.1385,0.3493,149.9,98.2,0.471
44.2,31991.9,35036.2,-0.0426,0.0905,149.9,98.2,0.471
44.22,32024.6,34866.9,0.1379,-0.325,149.9,98.2,0.471
44.24,31891.5,34616.1,-0.5958,-0.9404,149.9,98.2,0.471
44.26,31899.9,34698.3,-0.5498,-0.7388,149.9,98.2,0.471
44.28,31879.6,34624.5,-0.6615,-0.9197,149.9,98.2,0.471
44.3,31853.7,34698.8,-0.8043,-0.7376,149.9,98.2,0.471
44.32,31845.3,34539.0,-0.8505,-1.1296,149.9,98.2,0.471
44.34,31748.4,34485.4,-1.3846,-1.2613,149.9,98.2,0.471
44.36,31708.5,34464.3,-1.605,-1.313,149.9,98.2,0.471
44.38,31795.1,34567.0,-1.1276,-1.061,149.9,98.2,0.471
44.4,31954.2,34766.7,-0.2504,-0.5709,149.9,98.2,0.471
44.42,32036.7,35147.6,0.2046,0.3639,149.9,98.2,0.471
44.44,32264.0,35562.8,1.4573,1.3831,149.9,98.2,0.471
44.46,32380.5,35654.7,2.0998,1.6085,149.9,98.2,0.471
44.48,32371.5,35765.4,2.0503,1.8804,149.9,98.2,0.471
44.5,32173.1,35529.9,0.9565,1.3024,149.9,98.2,0.471
44.52,32150.4,35397.2,0.8313,0.9766,149.9,98.2,0.471
44.54,32146.3,35200.4,0.8087,0.4935,149.9,98.2,0.471
44.56,32093.2,35146.7,0.5161,0.3619,149.9,98.2,0.471
44.58,31967.8,35084.9,-0.1753,0.2101,149.9,98.2,0.471
44.6,32025.8,35038.7,0.1443,0.0966,149.9,98.2,0.471
44.62,31928.7,34839.1,-0.3909,-0.3931,149.9,98.2,0.471
44.64,31857.5,34717.4,-0.7833,-0.6919,149.9,98.2,0.471
44.66,31942.2,34687.7,-0.3167,-0.7647,149.9,98.2,0.471
44.68,31834.1,34619.2,-0.9124,-0.933,149.9,98.2,0.471
44.7,31902.8,34569.5,-0.5337,-1.0549,149.9,98.2,0.471
44.72,31874.0,34566.6,-0.6922,-1.0621,149.9,98.2,0.471
44.74,31747.5,34502.9,-1.39,-1.2183,149.9,98.2,0.471
44.76,31745.5,34441.6,-1.4007,-1.3687,149.9,98.2,0.471
44.78,31823.4,34533.1,-0.9712,-1.1442,149.9,98.2,0.471
44.8,31816.7,34828.6,-1.0084,-0.419,149.9,98.2,0.471
44.82,31980.9,35140.2,-0.1033,0.3459,149.9,98.2,0.471
44.84,32264.9,35580.2,1.4626,1.4256,149.9,98.2,0.471
