timestamp,raw_red,raw_ir,filtered_red,filtered_ir,heart_rate,spo2,ac_dc_ratio
0.0,32120.0,35152.6,0.4973,0.3766,146.2,96.1,0.557
0.02,32168.5,35496.3,0.6994,1.2224,146.2,96.1,0.557
0.04,32394.2,35749.3,1.6395,1.8451,146.2,96.1,0.557
0.06,32372.7,35832.8,1.5501,2.0506,146.2,96.1,0.557
0.08,32260.6,35604.8,1.0831,1.4895,146.2,96.1,0.557
0.1,32220.4,35334.3,0.9155,0.8238,146.2,96.1,0.557
0.12,32140.3,35237.5,0.5818,0.5856,146.2,96.1,0.557
0.14,32146.2,35010.8,0.6066,0.0275,146.2,96.1,0.557
0.16,31973.9,35039.2,-0.1116,0.0973,146.2,96.1,0.557
0.18,32065.6,34964.2,0.2706,-0.0871,146.2,96.1,0.557
0.2,32006.2,34892.3,0.0233,-0.2642,146.2,96.1,0.557
0.22,31937.6,34696.3,-0.2626,-0.7464,146.2,96.1,0.557
0.24,31829.4,34645.4,-0.7136,-0.8718,146.2,96.1,0.557
0.26,31785.2,34686.9,-0.8975,-0.7695,146.2,96.1,0.557
0.28,31846.1,34727.0,-0.6438,-0.6709,146.2,96.1,0.557
0.3,31791.3,34607.7,-0.8723,-0.9647,146.2,96.1,0.557
0.32,31817.9,34541.3,-0.7613,-1.1279,146.2,96.1,0.557
0.34,31761.9,34301.8,-0.9945,-1.7173,146.2,96.1,0.557
0.36,31804.1,34420.0,-0.8188,-1.4265,146.2,96.1,0.557
0.38,31787.4,34743.5,-0.8884,-0.6305,146.2,96.1,0.557
0.4,31932.5,34902.2,-0.284,-0.2397,146.2,96.1,0.557
0.42,32214.2,35420.2,0.8897,1.0351,146.2,96.1,0.557
0.44,32369.8,35622.2,1.5378,1.5323,146.2,96.1,0.557
0.46,32293.8,35756.2,1.2214,1.862,146.2,96.1,0.557
0.48,32400.9,35699.9,1.6677,1.7234,146.2,96.1,0.557
0.5,32258.2,35570.9,1.0729,1.406,146.2,96.1,0.557
0.52,32174.9,35294.1,0.7259,0.7247,146.2,96.1,0.557
0.54,32086.4,35170.3,0.3571,0.4201,146.2,96.1,0.557
0.56,32090.4,35165.6,0.374,0.4085,146.2,96.1,0.557
0.58,32010.8,35082.4,0.0425,0.2037,146.2,96.1,0.557
0.6,31919.6,34917.4,-0.3378,-0.2025,146.2,96.1,0.557
0.62,31878.0,34843.7,-0.5108,-0.3836,146.2,96.1,0.557
0.64,31939.5,34750.7,-0.2548,-0.6127,146.2,96.1,0.557
0.66,31832.4,34716.8,-0.7008,-0.6962,146.2,96.1,0.557
0.68,31910.6,34748.3,-0.375,-0.6184,146.2,96.1,0.557
0.7,31764.3,34670.8,-0.9846,-0.8093,146.2,96.1,0.557
0.72,31800.3,34627.8,-0.8348,-0.915,146.2,96.1,0.557
0.74,31685.6,34462.2,-1.3125,-1.3226,146.2,96.1,0.557
0.76,31707.2,34471.7,-1.2227,-1.2993,146.2,96.1,0.557
0.78,31817.5,34548.4,-0.7631,-1.1104,146.2,96.1,0.557
0.8,31831.0,34885.9,-0.7068,-0.2799,146.2,96.1,0.557
0.82,32067.0,35121.2,0.2766,0.2992,146.2,96.1,0.557
0.84,32288.3,35548.4,1.1986,1.3506,146.2,96.1,0.557
0.86,32447.4,35785.5,1.8614,1.9342,146.2,96.1,0.557
0.88,32399.6,35754.6,1.662,1.8583,146.2,96.1,0.557
0.9,32341.1,35552.0,1.4183,1.3594,146.2,96.1,0.557
0.92,32216.5,35440.1,0.8992,1.0842,146.2,96.1,0.557
0.94,32097.7,35230.2,0.4045,0.5675,146.2,96.1,0.557
0.96,32063.7,35121.7,0.2629,0.3005,146.2,96.1,0.557
0.98,32050.0,35112.0,0.2058,0.2767,146.2,96.1,0.557
1.0,32064.7,35014.5,0.267,0.0366,146.2,96.1,0.557
1.02,31913.2,34840.5,-0.3644,-0.3916,146.2,96.1,0.557
1.04,31853.9,34786.3,-0.6115,-0.5251,146.2,96.1,0.557
1.06,31860.4,34796.3,-0.5844,-0.5005,146.2,96.1,0.557
1.08,31828.9,34650.4,-0.7155,-0.8595,146.2,96.1,0.557
1.1,31860.6,34641.6,-0.5833,-0.8812,146.2,96.1,0.557
1.12,31765.8,34601.6,-0.9782,-0.9797,146.2,96.1,0.557
1.14,31756.8,34558.1,-1.0158,-1.0867,146.2,96.1,0.557
1.16,31750.3,34523.0,-1.043,-1.1732,146.2,96.1,0.557
1.18,31708.6,34413.7,-1.2168,-1.442,146.2,96.1,0.557
1.2,31786.5,34589.0,-0.8923,-1.0107,146.2,96.1,0.557
1.22,32000.9,34896.3,0.001,-0.2544,146.2,96.1,0.557
1.24,32226.1,35318.7,0.9392,0.7852,146.2,96.1,0.557
1.26,32344.8,35630.7,1.4339,1.5531,146.2,96.1,0.557
1.28,32361.2,35679.0,1.5022,1.672,146.2,96.1,0.557
1.3,32398.9,35672.8,1.6592,1.6568,146.2,96.1,0.557
1.32,32283.1,35445.9,1.1768,1.0983,146.2,96.1,0.557
1.34,32041.8,35247.4,0.1714,0.6098,146.2,96.1,0.557
1.36,31990.8,35120.7,-0.0412,0.2981,146.2,96.1,0.557
1.38,32125.0,35064.0,0.5181,0.1584,146.2,96.1,0.557
1.4,32089.0,35104.5,0.368,0.2581,146.2,96.1,0.557
1.42,31941.3,34888.7,-0.2474,-0.2731,146.2,96.1,0.557
1.44,32036.1,34778.6,0.1477,-0.5441,146.2,96.1,0.557
1.46,31816.1,34774.8,-0.7689,-0.5534,146.2,96.1,0.557
1.48,31853.4,34606.5,-0.6133,-0.9675,146.2,96.1,0.557
1.5,31849.5,34645.7,-0.6295,-0.8711,146.2,96.1,0.557
1.52,31787.9,34696.6,-0.8864,-0.7457,146.2,96.1,0.557
1.54,31767.4,34595.2,-0.9717,-0.9955,146.2,96.1,0.557
1.56,31736.4,34500.1,-1.101,-1.2293,146.2,96.1,0.557
1.58,31780.5,34480.1,-0.9173,-1.2787,146.2,96.1,0.557
1.6,31859.8,34555.4,-0.5867,-1.0932,146.2,96.1,0.557
1.62,31804.0,34727.2,-0.8192,-0.6705,146.2,96.1,0.557
1.64,32054.0,35120.1,0.2223,0.2966,146.2,96.1,0.557
1.66,32320.6,35510.8,1.3331,1.2581,146.2,96.1,0.557
1.68,32394.9,35692.4,1.6426,1.705,146.2,96.1,0.557
1.7,32392.3,35705.8,1.6316,1.7381,146.2,96.1,0.557
1.72,32369.4,35733.2,1.5362,1.8056,146.2,96.1,0.557
1.74,32202.7,35478.0,0.8417,1.1775,146.2,96.1,0.557
1.76,32106.4,35243.5,0.4408,0.6001,146.2,96.1,0.557
1.78,32068.8,35126.6,0.284,0.3125,146.2,96.1,0.557
1.8,32064.4,35012.3,0.2657,0.0312,146.2,96.1,0.557
1.82,32051.1,35075.5,0.21,0.1869,146.2,96.1,0.557
1.84,32028.0,34896.5,0.114,-0.2538,146.2,96.1,0.557
1.86,31866.3,34806.2,-0.5595,-0.4761,146.2,96.1,0.557
1.88,31805.4,34762.7,-0.8136,-0.5831,146.2,96.1,0.557
1.9,31814.2,34638.5,-0.7768,-0.8887,146.2,96.1,0.557
1.92,31828.3,34720.2,-0.7181,-0.6877,146.2,96.1,0.557
1.94,31764.6,34716.2,-0.9836,-0.6976,146.2,96.1,0.557
1.96,31713.3,34609.0,-1.197,-0.9615,146.2,96.1,0.557
1.98,31800.2,34490.6,-0.8349,-1.2527,146.2,96.1,0.557
2.0,31786.7,34488.6,-0.8914,-1.2578,146.2,96.1,0.557
2.02,31948.5,34618.3,-0.2174,-0.9386,146.2,96.1,0.557
2.04,32052.3,34907.8,0.2151,-0.226,146.2,96.1,0.557
2.06,32098.2,35234.1,0.4062,0.5771,146.2,96.1,0.557
2.08,32348.5,35614.7,1.4494,1.5139,146.2,96.1,0.557
2.1,32356.9,35695.6,1.4843,1.7128,146.2,96.1,0.557
2.12,32269.7,35692.3,1.1209,1.7049,146.2,96.1,0.557
2.14,32277.6,35477.9,1.1539,1.1771,146.2,96.1,0.557
2.16,32151.6,35289.2,0.6291,0.7128,146.2,96.1,0.557
2.18,32065.8,35097.3,0.2714,0.2405,146.2,96.1,0.557
2.2,32065.4,35156.4,0.2697,0.3858,146.2,96.1,0.557
2.22,32060.8,35080.8,0.2504,0.1998,146.2,96.1,0.557
2.24,32054.3,35011.4,0.2237,0.0289,146.2,96.1,0.557
2.26,32039.6,34807.7,0.1622,-0.4724,146.2,96.1,0.557
2.28,31939.9,34692.5,-0.253,-0.7559,146.2,96.1,0.557
2.3,31878.1,34668.9,-0.5106,-0.8141,146.2,96.1,0.557
2.32,31806.8,34692.6,-0.8077,-0.7555,146.2,96.1,0.557
2.34,31778.9,34662.4,-0.924,-0.8299,146.2,96.1,0.557
2.36,31809.6,34588.7,-0.796,-1.0114,146.2,96.1,0.557
2.38,31816.2,34556.5,-0.7684,-1.0905,146.2,96.1,0.557
2.4,31702.9,34453.1,-1.2403,-1.3451,146.2,96.1,0.557
2.42,31849.6,34458.0,-0.6293,-1.333,146.2,96.1,0.557
2.44,31892.0,34817.9,-0.4528,-0.4473,146.2,96.1,0.557
2.46,32071.4,35107.2,0.2949,0.2647,146.2,96.1,0.557
2.48,32310.0,35544.3,1.289,1.3404,146.2,96.1,0.557
2.5,32364.3,35690.0,1.5151,1.6991,146.2,96.1,0.557
2.52,32301.4,35726.2,1.2532,1.7882,146.2,96.1,0.557
2.54,32351.1,35571.1,1.4601,1.4065,146.2,96.1,0.557
2.56,32178.2,35395.1,0.7396,0.9734,146.2,96.1,0.557
2.58,32078.9,35251.4,0.3261,0.6198,146.2,96.1,0.557
2.6,32072.7,35126.5,0.3004,0.3124,146.2,96.1,0.557
2.62,31952.6,35119.8,-0.2001,0.2957,146.2,96.1,0.557
2.64,31948.0,34984.9,-0.2194,-0.0362,146.2,96.1,0.557
2.66,31967.6,34871.8,-0.1377,-0.3146,146.2,96.1,0.557
2.68,31904.8,34836.0,-0.3995,-0.4028,146.2,96.1,0.557
2.7,31872.7,34677.2,-0.5332,-0.7936,146.2,96.1,0.557
2.72,31946.4,34697.7,-0.2261,-0.743,146.2,96.1,0.557
2.74,31839.4,34722.9,-0.6716,-0.681,146.2,96.1,0.557
2.76,31896.9,34585.9,-0.4322,-1.0182,146.2,96.1,0.557
2.78,31739.2,34544.6,-1.0891,-1.12,146.2,96.1,0.557
2.8,31700.6,34441.7,-1.25,-1.3733,146.2,96.1,0.557
2.82,31727.0,34450.7,-1.14,-1.351,146.2,96.1,0.557
2.84,31721.6,34690.9,-1.1627,-0.7598,146.2,96.1,0.557
2.86,31891.0,34860.4,-0.4567,-0.3427,146.2,96.1,0.557
2.88,32194.6,35242.8,0.8082,0.5985,146.2,96.1,0.557
2.9,32324.3,35643.4,1.3483,1.5844,146.2,96.1,0.557
2.92,32394.8,35753.6,1.6422,1.8558,146.2,96.1,0.557
2.94,32349.8,35736.4,1.4547,1.8133,146.2,96.1,0.557
2.96,32309.5,35546.2,1.2866,1.3452,146.2,96.1,0.557
2.98,32088.1,35377.9,0.3645,0.931,146.2,96.1,0.557
3.0,32120.7,35182.8,0.5,0.4508,146.2,96.1,0.557
3.02,32069.9,35116.1,0.2885,0.2867,146.2,96.1,0.557
3.04,32060.0,34923.3,0.2474,-0.1878,146.2,96.1,0.557
3.06,32045.3,34930.4,0.186,-0.1703,146.2,96.1,0.557
3.08,31921.5,34852.3,-0.3299,-0.3627,146.2,96.1,0.557
3.1,31906.4,34775.3,-0.3926,-0.552,146.2,96.1,0.557
3.12,31767.0,34720.4,-0.9735,-0.6872,146.2,96.1,0.557
3.14,31851.1,34706.8,-0.6229,-0.7207,146.2,96.1,0.557
3.16,31822.6,34673.9,-0.7419,-0.8017,146.2,96.1,0.557
3.18,31750.5,34599.1,-1.0422,-0.9858,146.2,96.1,0.557
3.2,31778.1,34481.7,-0.9273,-1.2747,146.2,96.1,0.557
3.22,31712.5,34337.6,-1.2003,-1.6292,146.2,96.1,0.557
3.24,31779.9,34453.8,-0.9198,-1.3432,146.2,96.1,0.557
3.26,31831.1,34666.3,-0.7062,-0.8205,146.2,96.1,0.557
3.28,32110.0,35064.2,0.4554,0.1589,146.2,96.1,0.557
3.3,32215.6,35441.4,0.8953,1.0872,146.2,96.1,0.557
3.32,32387.4,35695.0,1.6111,1.7115,146.2,96.1,0.557
3.34,32400.3,35789.7,1.6652,1.9445,146.2,96.1,0.557
3.36,32309.0,35585.7,1.2848,1.4425,146.2,96.1,0.557
3.38,32201.8,35486.9,0.8382,1.1994,146.2,96.1,0.557
3.4,32069.1,35236.4,0.2853,0.5827,146.2,96.1,0.557
3.42,32043.9,35101.3,0.18,0.2503,146.2,96.1,0.557
3.44,31997.1,35038.8,-0.0147,0.0964,146.2,96.1,0.557
3.46,32137.4,35122.3,0.5697,0.302,146.2,96.1,0.557
3.48,31897.1,34978.0,-0.4313,-0.0533,146.2,96.1,0.557
3.5,31910.3,34703.5,-0.3763,-0.7288,146.2,96.1,0.557
3.52,31837.3,34762.1,-0.6807,-0.5847,146.2,96.1,0.557
3.54,31759.4,34648.1,-1.0053,-0.8651,146.2,96.1,0.557
3.56,31897.4,34675.3,-0.4303,-0.7981,146.2,96.1,0.557
3.58,31878.0,34765.0,-0.5111,-0.5775,146.2,96.1,0.557
3.6,31755.0,34517.1,-1.0233,-1.1877,146.2,96.1,0.557
3.62,31779.7,34463.7,-0.9206,-1.3189,146.2,96.1,0.557
3.64,31801.3,34456.2,-0.8307,-1.3374,146.2,96.1,0.557
3.66,31799.8,34639.6,-0.8368,-0.8861,146.2,96.1,0.557
3.68,32013.9,34920.6,0.0551,-0.1944,146.2,96.1,0.557
3.7,32157.8,35203.6,0.6547,0.502,146.2,96.1,0.557
3.72,32327.6,35597.7,1.3624,1.4719,146.2,96.1,0.557
3.74,32324.9,35748.4,1.3511,1.843,146.2,96.1,0.557
3.76,32432.3,35692.6,1.7983,1.7056,146.2,96.1,0.557
3.78,32155.7,35437.6,0.646,1.0779,146.2,96.1,0.557
3.8,32222.5,35262.1,0.9242,0.6461,146.2,96.1,0.557
3.82,32096.7,35182.8,0.4002,0.4508,146.2,96.1,0.557
3.84,32043.0,35075.3,0.1766,0.1863,146.2,96.1,0.557
3.86,32025.6,35062.0,0.1039,0.1534,146.2,96.1,0.557
3.88,31936.1,34924.4,-0.2689,-0.185,146.2,96.1,0.557
3.9,31950.1,34801.5,-0.2104,-0.4876,146.2,96.1,0.557
3.92,31900.1,34768.7,-0.4188,-0.5684,146.2,96.1,0.557
3.94,31740.9,34670.7,-1.0822,-0.8096,146.2,96.1,0.557
3.96,31938.6,34688.3,-0.2586,-0.7662,146.2,96.1,0.557
3.98,31798.1,34675.3,-0.8439,-0.7983,146.2,96.1,0.557
4.0,31893.9,34603.5,-0.4446,-0.975,146.2,96.1,0.557
4.02,31734.4,34565.7,-1.1094,-1.0679,146.2,96.1,0.557
4.04,31710.4,34391.5,-1.2093,-1.4967,146.2,96.1,0.557
4.06,31800.4,34530.3,-0.8343,-1.1551,146.2,96.1,0.557
4.08,31938.0,34697.9,-0.261,-0.7425,146.2,96.1,0.557
4.1,32128.5,35208.3,0.5326,0.5135,146.2,96.1,0.557
4.12,32247.9,35391.4,1.03,0.9642,146.2,96.1,0.557
4.14,32315.3,35763.1,1.3111,1.879,146.2,96.1,0.557
4.16,32462.0,35760.5,1.9223,1.8728,146.2,96.1,0.557
4.18,32359.3,35636.5,1.4943,1.5674,146.2,96.1,0.557
4.2,32168.9,35341.0,0.7009,0.8403,146.2,96.1,0.557
4.22,32100.2,35305.4,0.4148,0.7527,146.2,96.1,0.557
4.24,32085.6,35171.6,0.3538,0.4232,146.2,96.1,0.557
4.26,31967.4,35054.9,-0.1385,0.136,146.2,96.1,0.557
4.28,32058.5,35056.4,0.2411,0.1398,146.2,96.1,0.557
4.3,31859.2,34828.0,-0.5892,-0.4224,146.2,96.1,0.557
4.32,31918.9,34794.2,-0.3404,-0.5056,146.2,96.1,0.557
4.34,31908.8,34695.6,-0.3828,-0.7483,146.2,96.1,0.557
4.36,31778.0,34650.2,-0.9277,-0.86,146.2,96.1,0.557
4.38,31844.7,34693.9,-0.6498,-0.7525,146.2,96.1,0.557
4.4,31810.7,34737.0,-0.7912,-0.6464,146.2,96.1,0.557
4.42,31726.4,34449.9,-1.1426,-1.3529,146.2,96.1,0.557
4.44,31722.3,34455.4,-1.1595,-1.3395,146.2,96.1,0.557
4.46,31684.3,34367.5,-1.3179,-1.5557,146.2,96.1,0.557
4.48,31749.5,34633.5,-1.0462,-0.9011,146.2,96.1,0.557
4.5,31969.2,34878.8,-0.1309,-0.2973,146.2,96.1,0.557
4.52,32077.4,35373.1,0.32,0.9191,146.2,96.1,0.557
4.54,32345.1,35611.3,1.4351,1.5054,146.2,96.1,0.557
4.56,32368.8,35752.4,1.5339,1.8527,146.2,96.1,0.557
4.58,32347.7,35780.5,1.4459,1.9219,146.2,96.1,0.557
4.6,32273.9,35513.9,1.1385,1.2657,146.2,96.1,0.557
4.62,32269.9,35262.4,1.1216,0.6468,146.2,96.1,0.557
4.64,32130.4,35120.5,0.5406,0.2974,146.2,96.1,0.557
4.66,32074.2,35177.6,0.3063,0.4382,146.2,96.1,0.557
4.68,32044.5,35101.3,0.1826,0.2504,146.2,96.1,0.557
4.7,32003.0,34999.5,0.0099,-0.0004,146.2,96.1,0.557
4.72,31962.7,34888.4,-0.1579,-0.2738,146.2,96.1,0.557
4.74,31953.6,34825.2,-0.196,-0.4293,146.2,96.1,0.557
4.76,31825.1,34730.9,-0.7315,-0.6614,146.2,96.1,0.557
4.78,31858.6,34689.6,-0.5918,-0.7631,146.2,96.1,0.557
4.8,31822.5,34624.0,-0.7423,-0.9244,146.2,96.1,0.557
4.82,31830.4,34671.1,-0.7092,-0.8084,146.2,96.1,0.557
4.84,31803.6,34516.9,-0.8209,-1.1881,146.2,96.1,0.557
4.86,31694.2,34382.0,-1.2769,-1.5201,146.2,96.1,0.557
4.88,31747.1,34521.8,-1.0563,-1.176,146.2,96.1,0.557
4.9,31820.3,34728.7,-0.7515,-0.6668,146.2,96.1,0.557
4.92,32003.2,35003.3,0.0107,0.009,146.2,96.1,0.557
4.94,32219.6,35451.3,0.9123,1.1117,146.2,96.1,0.557
4.96,32316.5,35755.6,1.3157,1.8606,146.2,96.1,0.557
4.98,32379.3,35700.0,1.5774,1.7238,146.2,96.1,0.557
5.0,32325.8,35713.1,1.3545,1.756,146.2,96.1,0.557
5.02,32243.9,35430.1,1.0134,1.0596,146.2,96.1,0.557
5.04,32150.0,35215.5,0.6222,0.5313,146.2,96.1,0.557
5.06,32060.1,35081.7,0.2477,0.2019,146.2,96.1,0.557
5.08,32119.4,35060.6,0.4946,0.1502,146.2,96.1,0.557
5.1,31989.4,34980.3,-0.0469,-0.0476,146.2,96.1,0.557
5.12,31944.9,34873.9,-0.2323,-0.3094,146.2,96.1,0.557
5.14,31898.8,34805.8,-0.4241,-0.4771,146.2,96.1,0.557
5.16,31805.2,34688.2,-0.8144,-0.7663,146.2,96.1,0.557
5.18,31791.7,34664.3,-0.8707,-0.8253,146.2,96.1,0.557
5.2,31848.1,34693.0,-0.6356,-0.7547,146.2,96.1,0.557
5.22,31848.6,34664.2,-0.6335,-0.8255,146.2,96.1,0.557
5.24,31742.9,34611.7,-1.0737,-0.9547,146.2,96.1,0.557
5.26,31738.3,34537.3,-1.0929,-1.1378,146.2,96.1,0.557
5.28,31682.2,34462.7,-1.3266,-1.3213,146.2,96.1,0.557
5.3,31803.5,34631.3,-0.8213,-0.9066,146.2,96.1,0.557
5.32,31992.7,34865.0,-0.0332,-0.3314,146.2,96.1,0.557
5.34,32239.5,35171.4,0.9949,0.4227,146.2,96.1,0.557
5.36,32332.6,35657.0,1.383,1.618,146.2,96.1,0.557
5.38,32389.8,35737.6,1.6215,1.8164,146.2,96.1,0.557
5.4,32355.5,35678.9,1.4784,1.6719,146.2,96.1,0.557
5.42,32219.8,35621.0,0.913,1.5293,146.2,96.1,0.557
5.44,32174.6,35334.5,0.7247,0.8242,146.2,96.1,0.557
5.46,32123.2,35122.7,0.5105,0.3029,146.2,96.1,0.557
5.48,32061.8,35093.3,0.2549,0.2306,146.2,96.1,0.557
5.5,31976.6,34971.9,-0.1004,-0.0682,146.2,96.1,0.557
5.52,31937.3,34918.7,-0.2637,-0.199,146.2,96.1,0.557
5.54,31987.6,34878.0,-0.0545,-0.2993,146.2,96.1,0.557
5.56,31806.3,34797.0,-0.8096,-0.4986,146.2,96.1,0.557
5.58,31805.4,34631.9,-0.8136,-0.9051,146.2,96.1,0.557
5.6,31827.3,34644.8,-0.7223,-0.8732,146.2,96.1,0.557
5.62,31866.1,34616.3,-0.5607,-0.9435,146.2,96.1,0.557
5.64,31867.4,34595.4,-0.555,-0.995,146.2,96.1,0.557
5.66,31786.1,34466.0,-0.8937,-1.3133,146.2,96.1,0.557
5.68,31736.2,34539.0,-1.1018,-1.1336,146.2,96.1,0.557
5.7,31839.9,34594.7,-0.6695,-0.9965,146.2,96.1,0.557
5.72,31851.0,34677.2,-0.6235,-0.7935,146.2,96.1,0.557
5.74,31991.3,35099.2,-0.0391,0.2452,146.2,96.1,0.557
5.76,32286.8,35509.9,1.1921,1.256,146.2,96.1,0.557
5.78,32304.5,35695.5,1.266,1.7126,146.2,96.1,0.557
5.8,32365.2,35733.1,1.519,1.8052,146.2,96.1,0.557
5.82,32262.1,35702.2,1.0893,1.7292,146.2,96.1,0.557
5.84,32227.7,35382.3,0.946,0.9417,146.2,96.1,0.557
5.86,32164.1,35263.8,0.681,0.6502,146.2,96.1,0.557
5.88,32065.1,35104.8,0.2687,0.2588,146.2,96.1,0.557
5.9,32041.5,35085.4,0.1702,0.2111,146.2,96.1,0.557
5.92,32095.0,35101.3,0.3931,0.2504,146.2,96.1,0.557
5.94,32076.6,34945.0,0.3163,-0.1344,146.2,96.1,0.557
5.96,31910.7,34782.0,-0.3749,-0.5357,146.2,96.1,0.557
5.98,31934.1,34699.0,-0.2774,-0.7399,146.2,96.1,0.557
6.0,31818.1,34660.2,-0.7606,-0.8354,146.2,96.1,0.557
6.02,31812.2,34592.0,-0.7852,-1.0033,146.2,96.1,0.557
6.04,31731.8,34603.0,-1.1202,-0.9763,146.2,96.1,0.557
6.06,31780.0,34581.3,-0.9191,-1.0295,146.2,96.1,0.557
6.08,31784.9,34402.8,-0.8989,-1.469,146.2,96.1,0.557
6.1,31774.4,34454.8,-0.9427,-1.3409,146.2,96.1,0.557
6.12,31766.0,34585.6,-0.9778,-1.0189,146.2,96.1,0.557
6.14,31971.3,34872.9,-0.1221,-0.3118,146.2,96.1,0.557
6.16,32155.4,35283.3,0.6448,0.6982,146.2,96.1,0.557
6.18,32253.0,35641.0,1.0514,1.5785,146.2,96.1,0.557
6.2,32378.8,35793.7,1.5756,1.9544,146.2,96.1,0.557
6.22,32307.7,35771.2,1.2793,1.8989,146.2,96.1,0.557
6.24,32205.3,35622.6,0.8527,1.5332,146.2,96.1,0.557
6.26,32160.0,35334.1,0.664,0.8231,146.2,96.1,0.557
6.28,32122.6,35133.7,0.508,0.33,146.2,96.1,0.557
6.3,32055.3,35098.8,0.2277,0.2441,146.2,96.1,0.557
6.32,31954.7,34972.1,-0.1914,-0.0677,146.2,96.1,0.557
6.34,31937.3,35033.1,-0.264,0.0824,146.2,96.1,0.557
6.36,31924.9,34935.8,-0.3154,-0.1572,146.2,96.1,0.557
6.38,31929.5,34751.3,-0.2963,-0.611,146.2,96.1,0.557
6.4,31816.0,34739.4,-0.7691,-0.6405,146.2,96.1,0.557
6.42,31863.7,34684.3,-0.5704,-0.7761,146.2,96.1,0.557
6.44,31846.3,34649.0,-0.6429,-0.863,146.2,96.1,0.557
6.46,31798.7,34557.3,-0.8412,-1.0886,146.2,96.1,0.557
6.48,31740.8,34546.0,-1.0828,-1.1164,146.2,96.1,0.557
6.5,31753.1,34496.7,-1.0312,-1.2377,146.2,96.1,0.557
6.52,31673.6,34520.1,-1.3626,-1.1801,146.2,96.1,0.557
6.54,31917.0,34686.1,-0.3486,-0.7717,146.2,96.1,0.557
6.56,31930.8,35075.7,-0.2909,0.1873,146.2,96.1,0.557
6.58,32275.6,35371.3,1.1456,0.9148,146.2,96.1,0.557
6.6,32338.2,35684.4,1.4065,1.6854,146.2,96.1,0.557
6.62,32338.2,35792.2,1.4064,1.9508,146.2,96.1,0.557
6.64,32309.4,35650.2,1.2864,1.6011,146.2,96.1,0.557
6.66,32216.2,35450.9,0.8982,1.1108,146.2,96.1,0.557
6.68,32173.5,35243.4,0.7203,0.6,146.2,96.1,0.557
6.7,32068.1,35222.5,0.281,0.5486,146.2,96.1,0.557
6.72,32098.2,35156.2,0.4065,0.3854,146.2,96.1,0.557
6.74,32011.6,35005.1,0.0456,0.0134,146.2,96.1,0.557
6.76,32013.4,34877.2,0.0533,-0.3013,146.2,96.1,0.557
6.78,31906.1,34734.0,-0.3937,-0.6538,146.2,96.1,0.557
6.8,31874.0,34754.5,-0.5275,-0.6032,146.2,96.1,0.557
6.82,31897.2,34645.7,-0.4312,-0.8711,146.2,96.1,0.557
6.84,31835.2,34671.7,-0.6895,-0.8071,146.2,96.1,0.557
6.86,31854.3,34673.8,-0.6097,-0.8018,146.2,96.1,0.557
6.88,31837.7,34622.1,-0.6788,-0.9291,146.2,96.1,0.557
6.9,31712.5,34495.1,-1.2005,-1.2416,146.2,96.1,0.557
6.92,31720.0,34524.9,-1.1691,-1.1684,146.2,96.1,0.557
6.94,31833.6,34608.4,-0.6961,-0.963,146.2,96.1,0.557
6.96,31923.5,34771.4,-0.3215,-0.5618,146.2,96.1,0.557
6.98,32153.5,35231.2,0.6368,0.57,146.2,96.1,0.557
7.0,32307.2,35503.5,1.2773,1.2402,146.2,96.1,0.557
7.02,32321.1,35705.0,1.3352,1.7361,146.2,96.1,0.557
7.04,32274.9,35696.5,1.1424,1.7151,146.2,96.1,0.557
7.06,32214.3,35485.1,0.8901,1.1949,146.2,96.1,0.557
7.08,32141.0,35412.1,0.5847,1.0152,146.2,96.1,0.557
7.1,32119.1,35232.0,0.4935,0.5719,146.2,96.1,0.557
7.12,32053.5,35210.4,0.2203,0.5187,146.2,96.1,0.557
7.14,32017.3,35141.5,0.0694,0.3492,146.2,96.1,0.557
7.16,32002.5,34949.8,0.0078,-0.1225,146.2,96.1,0.557
7.18,32005.4,34888.6,0.0199,-0.2731,146.2,96.1,0.557
7.2,31915.5,34820.9,-0.3546,-0.44,146.2,96.1,0.557
7.22,31843.5,34676.5,-0.6549,-0.7952,146.2,96.1,0.557
7.24,31817.7,34634.2,-0.7621,-0.8995,146.2,96.1,0.557
7.26,31747.3,34652.1,-1.0557,-0.8554,146.2,96.1,0.557
7.28,31788.8,34595.4,-0.8827,-0.9948,146.2,96.1,0.557
7.3,31746.5,34576.2,-1.0586,-1.042,146.2,96.1,0.557
7.32,31708.9,34401.9,-1.2154,-1.471,146.2,96.1,0.557
7.34,31737.8,34418.7,-1.0952,-1.4296,146.2,96.1,0.557
7.36,31893.0,34698.5,-0.4484,-0.741,146.2,96.1,0.557
7.38,32017.6,34976.7,0.0705,-0.0564,146.2,96.1,0.557
7.4,32239.1,35440.4,0.9936,1.0847,146.2,96.1,0.557
7.42,32436.7,35690.8,1.8168,1.7012,146.2,96.1,0.557
7.44,32355.1,35827.5,1.4768,2.0375,146.2,96.1,0.557
7.46,32340.0,35609.0,1.4138,1.4999,146.2,96.1,0.557
7.48,32280.0,35452.5,1.164,1.1145,146.2,96.1,0.557
7.5,32108.3,35264.6,0.4487,0.6522,146.2,96.1,0.557
7.52,32121.7,35197.0,0.5044,0.4858,146.2,96.1,0.557
7.54,32047.2,35117.9,0.194,0.2911,146.2,96.1,0.557
7.56,32018.4,35028.3,0.0739,0.0705,146.2,96.1,0.557
7.58,31971.0,34999.2,-0.1233,-0.0011,146.2,96.1,0.557
7.6,31942.3,34845.7,-0.2433,-0.3788,146.2,96.1,0.557
7.62,31826.2,34793.9,-0.7268,-0.5064,146.2,96.1,0.557
7.64,31868.5,34637.7,-0.5505,-0.8908,146.2,96.1,0.557
7.66,31835.5,34540.2,-0.6881,-1.1308,146.2,96.1,0.557
7.68,31824.8,34615.6,-0.7327,-0.9452,146.2,96.1,0.557
7.7,31774.7,34550.4,-0.9412,-1.1055,146.2,96.1,0.557
7.72,31712.3,34410.6,-1.2011,-1.4498,146.2,96.1,0.557
7.74,31752.4,34495.8,-1.0344,-1.2401,146.2,96.1,0.557
7.76,31837.6,34505.1,-0.6793,-1.2171,146.2,96.1,0.557
7.78,31892.7,34781.6,-0.4495,-0.5366,146.2,96.1,0.557
7.8,32103.4,35196.2,0.4282,0.4837,146.2,96.1,0.557
7.82,32249.8,35651.4,1.0382,1.6043,146.2,96.1,0.557
7.84,32469.1,35683.6,1.9517,1.6835,146.2,96.1,0.557
7.86,32422.2,35775.6,1.7564,1.9099,146.2,96.1,0.557
7.88,32216.7,35590.5,0.9,1.4542,146.2,96.1,0.557
7.9,32148.2,35430.5,0.6147,1.0604,146.2,96.1,0.557
7.92,32104.4,35235.9,0.4321,0.5815,146.2,96.1,0.557
7.94,32090.8,35056.7,0.3755,0.1404,146.2,96.1,0.557
7.96,32103.8,35089.1,0.43,0.2201,146.2,96.1,0.557
7.98,31988.9,35034.2,-0.0489,0.0852,146.2,96.1,0.557
8.0,31836.8,34955.7,-0.6828,-0.1082,146.2,96.1,0.557
8.02,31975.0,34737.9,-0.1069,-0.6441,146.2,96.1,0.557
8.04,31802.6,34765.3,-0.8251,-0.5768,146.2,96.1,0.557
8.06,31825.7,34637.8,-0.729,-0.8906,146.2,96.1,0.557
8.08,31803.1,34704.8,-0.8231,-0.7256,146.2,96.1,0.557
8.1,31843.3,34502.9,-0.6556,-1.2225,146.2,96.1,0.557
8.12,31750.9,34470.8,-1.0403,-1.3014,146.2,96.1,0.557
8.14,31700.4,34478.4,-1.2507,-1.2828,146.2,96.1,0.557
8.16,31744.5,34560.3,-1.0673,-1.0813,146.2,96.1,0.557
8.18,31871.0,34697.1,-0.5399,-0.7445,146.2,96.1,0.557
8.2,32042.7,34965.9,0.1751,-0.0829,146.2,96.1,0.557
8.22,32255.7,35398.2,1.0628,0.981,146.2,96.1,0.557
8.24,32399.9,35701.3,1.6632,1.7269,146.2,96.1,0.557
8.26,32359.1,35684.8,1.4935,1.6863,146.2,96.1,0.557
8.28,32351.7,35591.7,1.4628,1.4571,146.2,96.1,0.557
8.3,32244.3,35428.6,1.0152,1.0559,146.2,96.1,0.557
8.32,32197.8,35250.2,0.8216,0.6168,146.2,96.1,0.557
8.34,32027.7,35083.3,0.1126,0.206,146.2,96.1,0.557
8.36,32002.0,35073.4,0.0058,0.1817,146.2,96.1,0.557
8.38,32069.6,35045.4,0.2873,0.1128,146.2,96.1,0.557
8.4,31985.7,34889.3,-0.0624,-0.2716,146.2,96.1,0.557
8.42,31864.7,34796.5,-0.5662,-0.5,146.2,96.1,0.557
8.44,31808.3,34766.8,-0.8015,-0.5731,146.2,96.1,0.557
8.46,31857.3,34705.9,-0.5972,-0.723,146.2,96.1,0.557
8.48,31804.7,34607.1,-0.8165,-0.9661,146.2,96.1,0.557
8.5,31789.0,34591.1,-0.8816,-1.0053,146.2,96.1,0.557
8.52,31783.3,34583.0,-0.9056,-1.0255,146.2,96.1,0.557
8.54,31669.4,34382.1,-1.38,-1.5198,146.2,96.1,0.557
8.56,31763.0,34426.5,-0.9899,-1.4105,146.2,96.1,0.557
8.58,31801.3,34608.3,-0.8304,-0.9632,146.2,96.1,0.557
8.6,31937.2,34789.3,-0.2645,-0.5177,146.2,96.1,0.557
8.62,32139.5,35160.4,0.5784,0.3957,146.2,96.1,0.557
8.64,32273.1,35638.6,1.135,1.5727,146.2,96.1,0.557
8.66,32291.8,35798.6,1.2129,1.9665,146.2,96.1,0.557
8.68,32366.7,35643.8,1.525,1.5853,146.2,96.1,0.557
8.7,32254.9,35622.8,1.0595,1.5337,146.2,96.1,0.557
8.72,32207.7,35361.9,0.8626,0.8916,146.2,96.1,0.557
8.74,32105.0,35118.5,0.4347,0.2927,146.2,96.1,0.557
8.76,32056.2,35127.5,0.2313,0.3147,146.2,96.1,0.557
8.78,31992.7,35025.2,-0.0332,0.063,146.2,96.1,0.557
8.8,32062.0,34876.7,0.2556,-0.3025,146.2,96.1,0.557
8.82,31940.6,34951.4,-0.2502,-0.1187,146.2,96.1,0.557
8.84,31916.2,34746.7,-0.3517,-0.6225,146.2,96.1,0.557
8.86,31782.4,34699.1,-0.9093,-0.7395,146.2,96.1,0.557
8.88,31809.4,34669.8,-0.7968,-0.8118,146.2,96.1,0.557
8.9,31847.4,34745.4,-0.6386,-0.6257,146.2,96.1,0.557
8.92,31886.1,34658.6,-0.4773,-0.8393,146.2,96.1,0.557
8.94,31724.4,34513.6,-1.1511,-1.1961,146.2,96.1,0.557
8.96,31666.0,34506.2,-1.3943,-1.2145,146.2,96.1,0.557
8.98,31693.0,34570.1,-1.2815,-1.0571,146.2,96.1,0.557
9.0,31906.3,34766.4,-0.393,-0.5741,146.2,96.1,0.557
9.02,32039.2,34963.0,0.1608,-0.0901,146.2,96.1,0.557
9.04,32230.1,35412.5,0.956,1.0161,146.2,96.1,0.557
9.06,32411.4,35664.4,1.7113,1.6362,146.2,96.1,0.557
9.08,32416.0,35692.7,1.7305,1.7057,146.2,96.1,0.557
9.1,32325.0,35698.0,1.3514,1.7187,146.2,96.1,0.557
9.12,32170.0,35510.5,0.7058,1.2573,146.2,96.1,0.557
9.14,32145.5,35231.9,0.6033,0.5716,146.2,96.1,0.557
9.16,32070.2,35170.1,0.2896,0.4195,146.2,96.1,0.557
9.18,32116.7,35093.6,0.4836,0.2314,146.2,96.1,0.557
9.2,31943.0,35063.8,-0.2401,0.1579,146.2,96.1,0.557
9.22,31926.3,34915.8,-0.3097,-0.2063,146.2,96.1,0.557
9.24,31919.0,34824.5,-0.3401,-0.4311,146.2,96.1,0.557
9.26,31909.6,34696.2,-0.3792,-0.7469,146.2,96.1,0.557
9.28,31793.5,34688.0,-0.8629,-0.7669,146.2,96.1,0.557
9.3,31826.5,34633.5,-0.7257,-0.9011,146.2,96.1,0.557
9.32,31805.6,34728.5,-0.8125,-0.6672,146.2,96.1,0.557
9.34,31718.5,34625.2,-1.1756,-0.9214,146.2,96.1,0.557
9.36,31723.2,34561.4,-1.1558,-1.0785,146.2,96.1,0.557
9.38,31775.4,34431.2,-0.9384,-1.399,146.2,96.1,0.557
9.4,31846.7,34426.8,-0.6412,-1.4097,146.2,96.1,0.557
9.42,31945.2,34908.6,-0.2311,-0.224,146.2,96.1,0.557
9.44,32134.4,35187.3,0.5571,0.4619,146.2,96.1,0.557
9.46,32292.6,35537.6,1.2165,1.324,146.2,96.1,0.557
9.48,32416.2,35757.6,1.7311,1.8656,146.2,96.1,0.557
9.5,32451.4,35847.7,1.8781,2.0873,146.2,96.1,0.557
9.52,32269.6,35631.7,1.1205,1.5558,146.2,96.1,0.557
9.54,32204.0,35275.3,0.8472,0.6785,146.2,96.1,0.557
9.56,32218.5,35060.0,0.9076,0.1486,146.2,96.1,0.557
9.58,32094.5,35160.2,0.3908,0.3953,146.2,96.1,0.557
9.6,31987.5,35078.2,-0.0549,0.1934,146.2,96.1,0.557
9.62,31998.5,34956.1,-0.009,-0.1071,146.2,96.1,0.557
9.64,31926.9,34876.8,-0.3074,-0.3023,146.2,96.1,0.557
9.66,31938.1,34788.4,-0.2608,-0.5198,146.2,96.1,0.557
9.68,31818.1,34676.3,-0.7603,-0.7958,146.2,96.1,0.557
9.7,31812.3,34655.4,-0.7845,-0.8471,146.2,96.1,0.557
9.72,31713.9,34679.3,-1.1948,-0.7883,146.2,96.1,0.557
9.74,31923.5,34587.7,-0.3213,-1.0137,146.2,96.1,0.557
9.76,31809.9,34476.3,-0.7949,-1.288,146.2,96.1,0.557
9.78,31741.1,34396.5,-1.0812,-1.4845,146.2,96.1,0.557
9.8,31635.4,34543.0,-1.5217,-1.1238,146.2,96.1,0.557
9.82,31745.5,34649.7,-1.0628,-0.8613,146.2,96.1,0.557
9.84,31968.3,34886.2,-0.1346,-0.2791,146.2,96.1,0.557
9.86,32155.0,35396.1,0.6433,0.9758,146.2,96.1,0.557
9.88,32327.5,35635.3,1.3618,1.5645,146.2,96.1,0.557
9.9,32413.4,35834.6,1.7197,2.0551,146.2,96.1,0.557
9.92,32273.2,35604.8,1.1353,1.4895,146.2,96.1,0.557
9.94,32312.7,35448.7,1.3002,1.1052,146.2,96.1,0.557
9.96,32113.7,35232.4,0.4709,0.573,146.2,96.1,0.557
9.98,32047.4,35108.2,0.1947,0.2673,146.2,96.1,0.557
10.0,32157.3,35189.8,0.6527,0.468,146.2,96.1,0.557
10.02,32031.0,35102.1,0.1264,0.2521,146.2,96.1,0.557
10.04,31932.6,34981.9,-0.2835,-0.0435,146.2,96.1,0.557
10.06,31861.0,34925.5,-0.5818,-0.1825,146.2,96.1,0.557
10.08,31864.0,34881.3,-0.5692,-0.2911,146.2,96.1,0.557
10.1,31912.4,34618.8,-0.3675,-0.9373,146.2,96.1,0.557
10.12,31823.5,34687.7,-0.7379,-0.7678,146.2,96.1,0.557
10.14,31794.2,34648.5,-0.8599,-0.8642,146.2,96.1,0.557
10.16,31783.4,34576.2,-0.9052,-1.0422,146.2,96.1,0.557
10.18,31781.7,34550.6,-0.9121,-1.1051,146.2,96.1,0.557
10.2,31698.2,34438.4,-1.26,-1.3813,146.2,96.1,0.557
10.22,31755.1,34519.9,-1.0229,-1.1806,146.2,96.1,0.557
10.24,31894.5,34769.4,-0.4422,-0.5666,146.2,96.1,0.557
10.26,32089.3,35184.3,0.3694,0.4546,146.2,96.1,0.557
10.28,32180.6,35473.3,0.7497,1.1658,146.2,96.1,0.557
10.3,32440.1,35759.3,1.831,1.8696,146.2,96.1,0.557
10.32,32373.2,35664.5,1.5522,1.6363,146.2,96.1,0.557
10.34,32374.0,35604.9,1.5555,1.4897,146.2,96.1,0.557
10.36,32232.0,35387.0,0.9639,0.9535,146.2,96.1,0.557
10.38,32062.8,35212.5,0.2588,0.5239,146.2,96.1,0.557
10.4,32041.7,35106.5,0.171,0.263,146.2,96.1,0.557
10.42,32046.3,35140.7,0.1904,0.3471,146.2,96.1,0.557
10.44,32031.6,35005.6,0.129,0.0148,146.2,96.1,0.557
10.46,31931.9,34977.5,-0.2865,-0.0544,146.2,96.1,0.557
10.48,31918.9,34742.6,-0.3404,-0.6326,146.2,96.1,0.557
10.5,31940.5,34661.5,-0.2507,-0.8321,146.2,96.1,0.557
10.52,31850.3,34626.9,-0.6265,-0.9174,146.2,96.1,0.557
10.54,31868.4,34652.2,-0.5511,-0.8551,146.2,96.1,0.557
10.56,31824.0,34563.5,-0.7359,-1.0734,146.2,96.1,0.557
10.58,31717.9,34634.9,-1.178,-0.8975,146.2,96.1,0.557
10.6,31712.1,34513.1,-1.202,-1.1974,146.2,96.1,0.557
10.62,31676.4,34421.3,-1.3508,-1.4234,146.2,96.1,0.557
10.64,31787.7,34626.1,-0.8871,-0.9194,146.2,96.1,0.557
10.66,31947.3,35014.7,-0.2223,0.0372,146.2,96.1,0.557
10.68,32260.1,35294.8,1.0809,0.7264,146.2,96.1,0.557
10.7,32298.9,35686.4,1.2425,1.6903,146.2,96.1,0.557
10.72,32266.5,35730.7,1.1075,1.7993,146.2,96.1,0.557
10.74,32373.0,35657.3,1.5512,1.6186,146.2,96.1,0.557
10.76,32212.1,35588.3,0.8812,1.4487,146.2,96.1,0.557
10.78,32140.3,35294.0,0.5817,0.7246,146.2,96.1,0.557
10.8,32052.1,35166.9,0.2145,0.4117,146.2,96.1,0.557
10.82,32117.0,35077.5,0.4848,0.1917,146.2,96.1,0.557
10.84,32001.0,35098.3,0.0016,0.2429,146.2,96.1,0.557
10.86,31966.6,34945.0,-0.142,-0.1343,146.2,96.1,0.557
10.88,31907.8,34806.1,-0.3867,-0.4763,146.2,96.1,0.557
10.9,31819.0,34736.0,-0.7568,-0.6487,146.2,96.1,0.557
10.92,31839.3,34646.3,-0.6721,-0.8696,146.2,96.1,0.557
10.94,31897.8,34641.7,-0.4284,-0.8809,146.2,96.1,0.557
10.96,31852.5,34660.1,-0.6173,-0.8357,146.2,96.1,0.557
10.98,31765.7,34579.6,-0.9788,-1.0338,146.2,96.1,0.557
11.0,31654.4,34501.8,-1.4423,-1.2251,146.2,96.1,0.557
11.02,31756.7,34587.1,-1.0162,-1.0152,146.2,96.1,0.557
11.04,31685.9,34536.0,-1.3114,-1.1409,146.2,96.1,0.557
11.06,31902.5,34782.8,-0.409,-0.5336,146.2,96.1,0.557
11.08,32105.1,35207.4,0.435,0.5113,146.2,96.1,0.557
11.1,32225.4,35482.1,0.9366,1.1874,146.2,96.1,0.557
11.12,32374.7,35693.6,1.5584,1.7081,146.2,96.1,0.557
11.14,32334.1,35743.5,1.3891,1.8308,146.2,96.1,0.557
11.16,32285.5,35560.7,1.1866,1.381,146.2,96.1,0.557
11.18,32290.3,35421.0,1.2069,1.0372,146.2,96.1,0.557
11.2,32091.8,35219.8,0.3799,0.5418,146.2,96.1,0.557
11.22,32135.2,35088.5,0.5607,0.2188,146.2,96.1,0.557
11.24,32092.3,35103.2,0.3817,0.255,146.2,96.1,0.557
11.26,31977.4,35012.0,-0.0967,0.0304,146.2,96.1,0.557
11.28,31978.2,34845.2,-0.0935,-0.3801,146.2,96.1,0.557
11.3,31888.9,34836.3,-0.4654,-0.402,146.2,96.1,0.557
11.32,31894.0,34641.1,-0.4441,-0.8824,146.2,96.1,0.557
11.34,31848.6,34732.0,-0.6334,-0.6586,146.2,96.1,0.557
11.36,31860.6,34663.0,-0.5833,-0.8285,146.2,96.1,0.557
11.38,31834.2,34614.8,-0.6933,-0.9472,146.2,96.1,0.557
11.4,31695.8,34525.2,-1.27,-1.1675,146.2,96.1,0.557
11.42,31723.0,34509.8,-1.1569,-1.2055,146.2,96.1,0.557
11.44,31807.4,34482.2,-0.8052,-1.2735,146.2,96.1,0.557
11.46,31843.7,34635.9,-0.6538,-0.8953,146.2,96.1,0.557
11.48,32067.7,34893.0,0.2795,-0.2625,146.2,96.1,0.557
11.5,32236.7,35361.5,0.9834,0.8906,146.2,96.1,0.557
11.52,32361.3,35673.5,1.5025,1.6586,146.2,96.1,0.557
11.54,32357.6,35759.0,1.4871,1.8689,146.2,96.1,0.557
11.56,32420.1,35698.2,1.7477,1.7193,146.2,96.1,0.557
11.58,32243.8,35451.3,1.013,1.1116,146.2,96.1,0.557
11.6,32124.0,35345.2,0.5139,0.8504,146.2,96.1,0.557
11.62,32105.1,35162.9,0.4354,0.4019,146.2,96.1,0.557
11.64,32111.4,35040.5,0.4615,0.1006,146.2,96.1,0.557
11.66,32035.6,34976.9,0.1455,-0.0559,146.2,96.1,0.557
11.68,32016.2,34959.8,0.065,-0.0979,146.2,96.1,0.557
11.7,31935.0,34783.1,-0.2736,-0.5328,146.2,96.1,0.557
11.72,31892.2,34734.0,-0.4518,-0.6538,146.2,96.1,0.557
11.74,31785.1,34716.8,-0.8979,-0.6961,146.2,96.1,0.557
11.76,31850.3,34748.1,-0.6264,-0.6191,146.2,96.1,0.557
11.78,31862.7,34620.3,-0.5746,-0.9336,146.2,96.1,0.557
11.8,31759.6,34601.7,-1.0042,-0.9793,146.2,96.1,0.557
11.82,31714.4,34440.6,-1.1925,-1.3757,146.2,96.1,0.557
11.84,31716.2,34582.2,-1.185,-1.0272,146.2,96.1,0.557
11.86,31701.9,34493.7,-1.2447,-1.2452,146.2,96.1,0.557
11.88,31856.6,34751.0,-0.6,-0.6119,146.2,96.1,0.557
11.9,32080.4,35068.8,0.3321,0.1703,146.2,96.1,0.557
11.92,32259.2,35530.6,1.0771,1.3069,146.2,96.1,0.557
11.94,32319.8,35737.6,1.3295,1.8162,146.2,96.1,0.557
11.96,32346.8,35689.9,1.4423,1.699,146.2,96.1,0.557
11.98,32271.1,35633.4,1.1269,1.5598,146.2,96.1,0.557
12.0,32178.4,35384.3,0.7406,0.9467,146.2,96.1,0.557
12.02,32189.4,35132.2,0.7866,0.3264,146.2,96.1,0.557
12.04,32153.8,35136.1,0.638,0.3359,146.2,96.1,0.557
12.06,32029.9,35094.0,0.1217,0.2324,146.2,96.1,0.557
12.08,31996.1,34978.6,-0.0188,-0.0517,146.2,96.1,0.557
12.1,31963.7,34857.1,-0.1537,-0.3506,146.2,96.1,0.557
12.12,31872.0,34813.9,-0.5359,-0.457,146.2,96.1,0.557
12.14,31888.3,34732.7,-0.4679,-0.6569,146.2,96.1,0.557
12.16,31855.0,34685.4,-0.6069,-0.7733,146.2,96.1,0.557
12.18,31905.4,34632.7,-0.3967,-0.9029,146.2,96.1,0.557
12.2,31776.8,34648.0,-0.9326,-0.8655,146.2,96.1,0.557
12.22,31812.4,34462.5,-0.7842,-1.3219,146.2,96.1,0.557
12.24,31758.9,34512.1,-1.0071,-1.1998,146.2,96.1,0.557
12.26,31675.2,34537.2,-1.3558,-1.1381,146.2,96.1,0.557
12.28,31802.9,34689.8,-0.8237,-0.7624,146.2,96.1,0.557
12.3,31946.2,34940.8,-0.2269,-0.1447,146.2,96.1,0.557
12.32,32041.1,35293.1,0.1684,0.7224,146.2,96.1,0.557
12.34,32272.3,35635.7,1.1317,1.5655,146.2,96.1,0.557
12.36,32437.1,35709.0,1.8183,1.7458,146.2,96.1,0.557
12.38,32346.0,35641.6,1.4388,1.5801,146.2,96.1,0.557
12.4,32172.7,35676.5,0.7169,1.666,146.2,96.1,0.557
12.42,32187.7,35367.3,0.7794,0.905,146.2,96.1,0.557
12.44,32150.6,35166.2,0.6246,0.4101,146.2,96.1,0.557
12.46,32018.4,35090.4,0.0742,0.2234,146.2,96.1,0.557
12.48,32032.8,35064.9,0.1341,0.1606,146.2,96.1,0.557
12.5,32073.7,34971.2,0.3042,-0.0699,146.2,96.1,0.557
12.52,31920.6,34924.5,-0.3335,-0.185,146.2,96.1,0.557
12.54,31927.0,34712.8,-0.3066,-0.7058,146.2,96.1,0.557
12.56,31827.7,34661.4,-0.7204,-0.8324,146.2,96.1,0.557
12.58,31736.9,34767.7,-1.0987,-0.5707,146.2,96.1,0.557
12.6,31858.0,34638.1,-0.5943,-0.8897,146.2,96.1,0.557
12.62,31732.5,34637.7,-1.1173,-0.8908,146.2,96.1,0.557
12.64,31798.4,34538.6,-0.8425,-1.1347,146.2,96.1,0.557
12.66,31667.8,34435.9,-1.3868,-1.3875,146.2,96.1,0.557
12.68,31796.6,34493.0,-0.8499,-1.2469,146.2,96.1,0.557
12.7,31823.4,34744.8,-0.7382,-0.6272,146.2,96.1,0.557
12.72,32058.5,35141.2,0.2412,0.3484,146.2,96.1,0.557
12.74,32285.4,35445.9,1.1865,1.0983,146.2,96.1,0.557
12.76,32433.1,35661.4,1.8016,1.6289,146.2,96.1,0.557
12.78,32356.0,35665.7,1.4806,1.6394,146.2,96.1,0.557
12.8,32338.0,35615.7,1.4055,1.5164,146.2,96.1,0.557
12.82,32172.0,35387.6,0.714,0.9549,146.2,96.1,0.557
12.84,32195.4,35281.8,0.8113,0.6944,146.2,96.1,0.557
12.86,32176.7,35139.5,0.7336,0.3443,146.2,96.1,0.557
12.88,32057.5,35140.7,0.2368,0.3473,146.2,96.1,0.557
12.9,31942.3,35007.8,-0.2432,0.0202,146.2,96.1,0.557
12.92,31981.5,34956.9,-0.0798,-0.1052,146.2,96.1,0.557
12.94,31866.8,34833.7,-0.5578,-0.4083,146.2,96.1,0.557
12.96,31796.4,34631.2,-0.8508,-0.9068,146.2,96.1,0.557
12.98,31854.5,34637.3,-0.609,-0.8917,146.2,96.1,0.557
13.0,31860.7,34640.7,-0.5831,-0.8834,146.2,96.1,0.557
13.02,31713.5,34705.4,-1.1961,-0.7241,146.2,96.1,0.557
13.04,31826.3,34519.1,-0.7265,-1.1827,146.2,96.1,0.557
13.06,31730.2,34517.1,-1.1268,-1.1875,146.2,96.1,0.557
13.08,31684.0,34435.4,-1.3194,-1.3888,146.2,96.1,0.557
13.1,31853.5,34573.9,-0.6129,-1.0478,146.2,96.1,0.557
13.12,31905.8,34897.4,-0.3953,-0.2516,146.2,96.1,0.557
13.14,32058.8,35240.3,0.2421,0.5923,146.2,96.1,0.557
13.16,32255.7,35586.2,1.0626,1.4436,146.2,96.1,0.557
13.18,32430.2,35757.0,1.7897,1.864,146.2,96.1,0.557
13.2,32373.6,35656.5,1.5536,1.6168,146.2,96.1,0.557
13.22,32192.8,35475.9,0.8005,1.1722,146.2,96.1,0.557
13.24,32169.6,35298.6,0.7037,0.7358,146.2,96.1,0.557
13.26,32146.4,35194.3,0.6072,0.4792,146.2,96.1,0.557
13.28,32037.0,35072.0,0.1515,0.1782,146.2,96.1,0.557
13.3,31990.8,35063.8,-0.041,0.1579,146.2,96.1,0.557
13.32,31923.1,35030.4,-0.3229,0.0759,146.2,96.1,0.557
13.34,31963.3,34919.3,-0.1556,-0.1978,146.2,96.1,0.557
13.36,31846.3,34730.2,-0.6429,-0.6631,146.2,96.1,0.557
13.38,31879.3,34722.7,-0.5058,-0.6817,146.2,96.1,0.557
13.4,31820.5,34625.4,-0.7506,-0.9211,146.2,96.1,0.557
13.42,31821.8,34677.2,-0.7449,-0.7934,146.2,96.1,0.557
13.44,31764.0,34561.8,-0.986,-1.0774,146.2,96.1,0.557
13.46,31713.1,34424.2,-1.1978,-1.4162,146.2,96.1,0.557
13.48,31765.6,34512.5,-0.979,-1.1989,146.2,96.1,0.557
13.5,31649.9,34466.8,-1.4614,-1.3112,146.2,96.1,0.557
13.52,31828.3,34668.2,-0.7182,-0.8158,146.2,96.1,0.557
13.54,32052.4,35101.6,0.2156,0.2509,146.2,96.1,0.557
13.56,32246.3,35438.9,1.0235,1.0812,146.2,96.1,0.557
13.58,32338.1,35729.5,1.4058,1.7964,146.2,96.1,0.557
13.6,32346.5,35739.2,1.4408,1.8202,146.2,96.1,0.557
13.62,32232.8,35657.3,0.9674,1.6187,146.2,96.1,0.557
13.64,32162.9,35444.5,0.6759,1.095,146.2,96.1,0.557
13.66,32143.1,35195.8,0.5937,0.4829,146.2,96.1,0.557
13.68,32034.6,35238.5,0.1414,0.588,146.2,96.1,0.557
13.7,32063.8,34986.2,0.2631,-0.033,146.2,96.1,0.557
13.72,32080.4,35083.1,0.3323,0.2055,146.2,96.1,0.557
13.74,31947.3,34901.8,-0.2221,-0.2409,146.2,96.1,0.557
13.76,31822.5,34805.1,-0.7423,-0.4788,146.2,96.1,0.557
13.78,31880.2,34798.2,-0.5018,-0.4957,146.2,96.1,0.557
13.8,31855.9,34646.4,-0.6031,-0.8693,146.2,96.1,0.557
13.82,31905.6,34666.8,-0.3959,-0.819,146.2,96.1,0.557
13.84,31801.7,34695.7,-0.829,-0.748,146.2,96.1,0.557
13.86,31713.2,34519.8,-1.1977,-1.1808,146.2,96.1,0.557
13.88,31710.3,34509.6,-1.2096,-1.206,146.2,96.1,0.557
13.9,31771.0,34439.7,-0.9566,-1.3782,146.2,96.1,0.557
13.92,31758.2,34615.1,-1.0099,-0.9465,146.2,96.1,0.557
13.94,31903.6,34972.8,-0.4042,-0.066,146.2,96.1,0.557
13.96,32145.5,35269.5,0.6035,0.6643,146.2,96.1,0.557
13.98,32271.1,35634.0,1.1266,1.5613,146.2,96.1,0.557
14.0,32369.3,35802.6,1.5357,1.9764,146.2,96.1,0.557
14.02,32374.0,35696.6,1.5554,1.7154,146.2,96.1,0.557
14.04,32161.9,35436.0,0.6718,1.0741,146.2,96.1,0.557
14.06,32161.2,35312.0,0.6689,0.7689,146.2,96.1,0.557
14.08,32160.5,35269.3,0.666,0.6638,146.2,96.1,0.557
14.1,32049.8,35277.7,0.205,0.6843,146.2,96.1,0.557
14.12,32035.3,35054.5,0.1444,0.1351,146.2,96.1,0.557
14.14,31989.5,34946.5,-0.0463,-0.1306,146.2,96.1,0.557
14.16,31910.9,34862.0,-0.3739,-0.3387,146.2,96.1,0.557
14.18,31940.0,34705.0,-0.2528,-0.725,146.2,96.1,0.557
14.2,31842.9,34674.4,-0.6574,-0.8004,146.2,96.1,0.557
14.22,31734.7,34735.4,-1.1078,-0.6503,146.2,96.1,0.557
14.24,31847.7,34586.9,-0.6371,-1.0157,146.2,96.1,0.557
14.26,31877.6,34623.2,-0.5125,-0.9265,146.2,96.1,0.557
14.28,31657.3,34468.9,-1.4306,-1.3063,146.2,96.1,0.557
14.3,31726.2,34459.4,-1.1434,-1.3295,146.2,96.1,0.557
14.32,31791.2,34554.4,-0.8726,-1.0958,146.2,96.1,0.557
14.34,31882.1,34720.0,-0.494,-0.6881,146.2,96.1,0.557
14.36,32019.0,35099.2,0.0766,0.2451,146.2,96.1,0.557
14.38,32197.4,35485.6,0.8197,1.1961,146.2,96.1,0.557
14.4,32375.8,35750.7,1.5629,1.8487,146.2,96.1,0.557
14.42,32352.8,35778.8,1.467,1.9176,146.2,96.1,0.557
14.44,32375.9,35604.6,1.5633,1.489,146.2,96.1,0.557
14.46,32236.6,35509.0,0.9831,1.2537,146.2,96.1,0.557
14.48,32081.8,35240.4,0.3379,0.5925,146.2,96.1,0.557
14.5,31973.7,35192.6,-0.1121,0.475,146.2,96.1,0.557
14.52,32033.6,35035.3,0.1372,0.0878,146.2,96.1,0.557
14.54,32016.3,34996.8,0.065,-0.007,146.2,96.1,0.557
14.56,31996.5,34869.2,-0.0171,-0.3209,146.2,96.1,0.557
14.58,31854.0,34855.4,-0.6108,-0.3549,146.2,96.1,0.557
14.6,31831.5,34697.7,-0.7047,-0.7431,146.2,96.1,0.557
14.62,31791.0,34697.4,-0.8732,-0.7438,146.2,96.1,0.557
14.64,31750.9,34647.9,-1.0403,-0.8658,146.2,96.1,0.557
14.66,31790.6,34576.4,-0.8751,-1.0416,146.2,96.1,0.557
14.68,31793.7,34564.4,-0.8621,-1.0712,146.2,96.1,0.557
14.7,31769.7,34392.3,-0.9622,-1.4948,146.2,96.1,0.557
14.72,31777.0,34442.7,-0.9316,-1.3706,146.2,96.1,0.557
14.74,31742.5,34602.4,-1.0755,-0.9776,146.2,96.1,0.557
14.76,32000.5,34853.0,-0.0005,-0.3607,146.2,96.1,0.557
14.78,32116.6,35289.8,0.4832,0.7141,146.2,96.1,0.557
14.8,32268.3,35528.3,1.1151,1.3012,146.2,96.1,0.557
14.82,32426.2,35762.5,1.7731,1.8776,146.2,96.1,0.557
14.84,32402.2,35613.5,1.6731,1.5109,146.2,96.1,0.557
14.86,32243.5,35538.8,1.0117,1.327,146.2,96.1,0.557
14.88,32223.2,35303.7,0.9274,0.7485,146.2,96.1,0.557
14.9,32066.6,35176.2,0.275,0.4346,146.2,96.1,0.557
14.92,31994.9,35027.6,-0.0241,0.069,146.2,96.1,0.557
14.94,31968.3,35105.9,-0.1347,0.2615,146.2,96.1,0.557
14.96,32002.7,34968.4,0.0086,-0.0767,146.2,96.1,0.557
14.98,31945.8,34898.2,-0.2284,-0.2495,146.2,96.1,0.557
15.0,31930.0,34760.6,-0.2942,-0.5883,146.2,96.1,0.557
15.02,31767.8,34771.1,-0.97,-0.5624,146.2,96.1,0.557
15.04,31806.8,34656.5,-0.8074,-0.8445,146.2,96.1,0.557
15.06,31836.3,34657.0,-0.6846,-0.8433,146.2,96.1,0.557
15.08,31812.8,34587.8,-0.7824,-1.0134,146.2,96.1,0.557
15.1,31811.4,34473.0,-0.7886,-1.296,146.2,96.1,0.557
15.12,31807.7,34430.8,-0.8039,-1.4,146.2,96.1,0.557
15.14,31751.3,34624.8,-1.039,-0.9225,146.2,96.1,0.557
15.16,31872.2,34768.3,-0.5352,-0.5692,146.2,96.1,0.557
15.18,32028.1,35049.9,0.1143,0.1239,146.2,96.1,0.557
15.2,32312.6,35485.0,1.2996,1.1947,146.2,96.1,0.557
15.22,32370.2,35700.2,1.5398,1.7243,146.2,96.1,0.557
15.24,32385.2,35791.6,1.6023,1.9491,146.2,96.1,0.557
15.26,32307.6,35660.4,1.2789,1.6263,146.2,96.1,0.557
15.28,32151.2,35472.6,0.6271,1.1642,146.2,96.1,0.557
15.3,32164.6,35128.4,0.6831,0.317,146.2,96.1,0.557
15.32,32134.5,35175.5,0.5579,0.4328,146.2,96.1,0.557
15.34,32011.0,34990.1,0.0433,-0.0235,146.2,96.1,0.557
15.36,31992.3,35131.9,-0.0348,0.3256,146.2,96.1,0.557
15.38,32027.8,34937.6,0.1131,-0.1527,146.2,96.1,0.557
15.4,31873.5,34770.1,-0.5299,-0.5649,146.2,96.1,0.557
15.42,31862.3,34746.5,-0.5762,-0.6231,146.2,96.1,0.557
15.44,31829.8,34751.3,-0.7116,-0.6112,146.2,96.1,0.557
15.46,31745.7,34670.1,-1.0621,-0.8109,146.2,96.1,0.557
15.48,31845.0,34629.3,-0.6484,-0.9114,146.2,96.1,0.557
15.5,31700.2,34506.6,-1.2516,-1.2134,146.2,96.1,0.557
15.52,31757.7,34423.1,-1.0124,-1.4189,146.2,96.1,0.557
15.54,31703.7,34447.7,-1.237,-1.3583,146.2,96.1,0.557
15.56,31835.0,34510.0,-0.6899,-1.2051,146.2,96.1,0.557
15.58,32038.5,34948.2,0.1577,-0.1265,146.2,96.1,0.557
15.6,32088.7,35199.5,0.3668,0.4919,146.2,96.1,0.557
15.62,32279.6,35671.0,1.1624,1.6523,146.2,96.1,0.557
15.64,32416.0,35721.2,1.7304,1.7761,146.2,96.1,0.557
15.66,32367.0,35683.1,1.5265,1.6821,146.2,96.1,0.557
15.68,32216.5,35521.9,0.8994,1.2853,146.2,96.1,0.557
15.7,32114.6,35353.1,0.4746,0.87,146.2,96.1,0.557
15.72,32122.3,35172.8,0.5069,0.4262,146.2,96.1,0.557
15.74,32093.5,34993.6,0.3869,-0.0148,146.2,96.1,0.557
15.76,32041.4,35021.9,0.1698,0.0548,146.2,96.1,0.557
15.78,31975.2,35017.1,-0.1059,0.043,146.2,96.1,0.557
15.8,31908.4,34908.2,-0.3843,-0.225,146.2,96.1,0.557
15.82,31890.5,34721.2,-0.459,-0.6853,146.2,96.1,0.557
15.84,31853.8,34576.8,-0.6117,-1.0406,146.2,96.1,0.557
15.86,31856.0,34580.4,-0.6025,-1.0317,146.2,96.1,0.557
15.88,31842.5,34618.3,-0.659,-0.9384,146.2,96.1,0.557
15.9,31759.3,34655.3,-1.0055,-0.8475,146.2,96.1,0.557
15.92,31773.6,34470.1,-0.9459,-1.3033,146.2,96.1,0.557
15.94,31697.9,34506.5,-1.2614,-1.2136,146.2,96.1,0.557
15.96,31694.7,34512.6,-1.2748,-1.1986,146.2,96.1,0.557
15.98,31864.8,34745.9,-0.5661,-0.6244,146.2,96.1,0.557
16.0,31995.0,35162.5,-0.0234,0.401,146.2,96.1,0.557
16.02,32216.2,35481.5,0.8982,1.1859,146.2,96.1,0.557
16.04,32320.1,35713.8,1.3308,1.7578,146.2,96.1,0.557
16.06,32348.6,35708.5,1.4497,1.7447,146.2,96.1,0.557
16.08,32288.6,35753.3,1.1998,1.8549,146.2,96.1,0.557
16.1,32243.2,35375.4,1.0105,0.9248,146.2,96.1,0.557
16.12,32106.6,35272.6,0.4416,0.6717,146.2,96.1,0.557
16.14,32130.5,35165.3,0.541,0.4079,146.2,96.1,0.557
16.16,32037.5,35154.2,0.1537,0.3805,146.2,96.1,0.557
16.18,32059.8,35070.7,0.2464,0.1751,146.2,96.1,0.557
16.2,32030.9,34985.9,0.1259,-0.0337,146.2,96.1,0.557
16.22,31940.4,34825.0,-0.2512,-0.4298,146.2,96.1,0.557
16.24,31825.0,34669.5,-0.7316,-0.8125,146.2,96.1,0.557
16.26,31830.8,34712.4,-0.7076,-0.7069,146.2,96.1,0.557
16.28,31748.9,34641.8,-1.0487,-0.8806,146.2,96.1,0.557
16.3,31945.8,34610.2,-0.2283,-0.9584,146.2,96.1,0.557
16.32,31759.3,34583.8,-1.0056,-1.0234,146.2,96.1,0.557
16.34,31741.9,34454.6,-1.0779,-1.3413,146.2,96.1,0.557
16.36,31754.0,34436.9,-1.0276,-1.3849,146.2,96.1,0.557
16.38,31818.9,34626.5,-0.7571,-0.9183,146.2,96.1,0.557
16.4,31968.5,34856.3,-0.1339,-0.3527,146.2,96.1,0.557
16.42,32139.3,35297.4,0.5776,0.7329,146.2,96.1,0.557
16.44,32297.3,35530.4,1.2359,1.3063,146.2,96.1,0.557
16.46,32383.7,35769.0,1.596,1.8935,146.2,96.1,0.557
16.48,32333.1,35685.3,1.3853,1.6876,146.2,96.1,0.557
16.5,32278.5,35526.6,1.1574,1.2969,146.2,96.1,0.557
16.52,32218.9,35397.5,0.9092,0.9793,146.2,96.1,0.557
16.54,32158.2,35154.3,0.6564,0.3807,146.2,96.1,0.557
16.56,32066.4,35093.9,0.2741,0.2321,146.2,96.1,0.557
16.58,32045.1,34932.6,0.1853,-0.1648,146.2,96.1,0.557
16.6,31925.8,35110.0,-0.3119,0.2717,146.2,96.1,0.557
16.62,31943.4,34797.8,-0.2386,-0.4967,146.2,96.1,0.557
16.64,31822.3,34763.1,-0.7431,-0.5821,146.2,96.1,0.557
16.66,31928.3,34698.4,-0.3013,-0.7413,146.2,96.1,0.557
16.68,31797.5,34663.0,-0.8465,-0.8284,146.2,96.1,0.557
16.7,31815.8,34652.5,-0.77,-0.8544,146.2,96.1,0.557
16.72,31776.3,34617.5,-0.9347,-0.9403,146.2,96.1,0.557
16.74,31685.7,34486.8,-1.3121,-1.2622,146.2,96.1,0.557
16.76,31739.7,34489.5,-1.0872,-1.2554,146.2,96.1,0.557
16.78,31755.2,34491.7,-1.0227,-1.2501,146.2,96.1,0.557
16.8,31832.7,34769.2,-0.6997,-0.5671,146.2,96.1,0.557
16.82,32017.1,35077.1,0.0687,0.1908,146.2,96.1,0.557
16.84,32198.4,35390.5,0.8238,0.962,146.2,96.1,0.557
16.86,32283.0,35751.9,1.1765,1.8516,146.2,96.1,0.557
16.88,32349.4,35746.1,1.4531,1.8372,146.2,96.1,0.557
16.9,32336.3,35643.5,1.3986,1.5848,146.2,96.1,0.557
16.92,32318.2,35416.9,1.3231,1.027,146.2,96.1,0.557
16.94,32135.2,35198.5,0.5605,0.4895,146.2,96.1,0.557
16.96,32029.3,35135.2,0.1192,0.3338,146.2,96.1,0.557
16.98,32040.6,35132.6,0.1664,0.3274,146.2,96.1,0.557
17.0,32095.6,35030.1,0.3954,0.075,146.2,96.1,0.557
17.02,32056.6,34911.9,0.2332,-0.2159,146.2,96.1,0.557
17.04,31951.2,34846.3,-0.2059,-0.3773,146.2,96.1,0.557
17.06,31837.7,34744.2,-0.6789,-0.6285,146.2,96.1,0.557
17.08,31796.3,34648.8,-0.8512,-0.8635,146.2,96.1,0.557
17.1,31844.1,34705.0,-0.6522,-0.725,146.2,96.1,0.557
17.12,31838.0,34602.0,-0.6775,-0.9785,146.2,96.1,0.557
17.14,31883.2,34576.1,-0.4893,-1.0423,146.2,96.1,0.557
17.16,31701.9,34460.6,-1.2446,-1.3265,146.2,96.1,0.557
17.18,31679.5,34535.2,-1.3381,-1.1431,146.2,96.1,0.557
17.2,31804.1,34582.9,-0.8187,-1.0255,146.2,96.1,0.557
17.22,32003.0,34894.6,0.0097,-0.2585,146.2,96.1,0.557
17.24,32077.9,35267.6,0.3217,0.6595,146.2,96.1,0.557
17.26,32252.2,35581.4,1.0479,1.4319,146.2,96.1,0.557
17.28,32331.3,35738.6,1.3775,1.8189,146.2,96.1,0.557
17.3,32441.6,35645.2,1.8371,1.5889,146.2,96.1,0.557
17.32,32283.5,35584.8,1.1784,1.4403,146.2,96.1,0.557
17.34,32242.9,35304.6,1.0093,0.7507,146.2,96.1,0.557
17.36,32085.1,35180.4,0.352,0.4449,146.2,96.1,0.557
17.38,31974.1,35144.8,-0.1106,0.3573,146.2,96.1,0.557
17.4,32006.7,35066.6,0.0254,0.165,146.2,96.1,0.557
17.42,32018.5,35023.7,0.0746,0.0592,146.2,96.1,0.557
17.44,31935.8,34840.0,-0.2701,-0.3929,146.2,96.1,0.557
17.46,31847.6,34789.0,-0.6375,-0.5184,146.2,96.1,0.557
17.48,31783.5,34736.3,-0.9048,-0.648,146.2,96.1,0.557
17.5,31895.1,34698.0,-0.4395,-0.7423,146.2,96.1,0.557
17.52,31872.8,34697.2,-0.5327,-0.7442,146.2,96.1,0.557
17.54,31804.3,34592.9,-0.8178,-1.001,146.2,96.1,0.557
17.56,31709.3,34483.3,-1.2137,-1.2707,146.2,96.1,0.557
17.58,31697.6,34438.6,-1.2625,-1.3807,146.2,96.1,0.557
17.6,31757.3,34503.2,-1.014,-1.2217,146.2,96.1,0.557
17.62,31763.6,34647.9,-0.9876,-0.8656,146.2,96.1,0.557
17.64,31941.4,35014.3,-0.247,0.0362,146.2,96.1,0.557
17.66,32186.2,35410.5,0.7733,1.0112,146.2,96.1,0.557
17.68,32259.6,35698.1,1.0787,1.719,146.2,96.1,0.557
17.7,32393.5,35736.7,1.6369,1.814,146.2,96.1,0.557
17.72,32393.1,35671.7,1.6349,1.6542,146.2,96.1,0.557
17.74,32136.3,35446.3,0.5652,1.0993,146.2,96.1,0.557
17.76,32179.8,35283.0,0.7465,0.6974,146.2,96.1,0.557
17.78,32036.8,35155.3,0.1506,0.3831,146.2,96.1,0.557
17.8,32081.8,35115.5,0.3383,0.2851,146.2,96.1,0.557
17.82,32073.4,35052.6,0.303,0.1304,146.2,96.1,0.557
17.84,31961.7,34979.9,-0.1624,-0.0485,146.2,96.1,0.557
17.86,31840.3,34887.3,-0.6682,-0.2764,146.2,96.1,0.557
17.88,31877.0,34762.2,-0.5151,-0.5842,146.2,96.1,0.557
17.9,31814.9,34725.9,-0.7737,-0.6737,146.2,96.1,0.557
17.92,31792.0,34585.8,-0.8692,-1.0185,146.2,96.1,0.557
17.94,31811.0,34660.5,-0.7902,-0.8346,146.2,96.1,0.557
17.96,31766.8,34548.6,-0.9744,-1.1099,146.2,96.1,0.557
17.98,31683.4,34485.4,-1.3216,-1.2657,146.2,96.1,0.557
18.0,31680.7,34441.9,-1.3329,-1.3727,146.2,96.1,0.557
18.02,31676.1,34618.7,-1.3522,-0.9375,146.2,96.1,0.557
18.04,31944.1,34864.1,-0.2355,-0.3335,146.2,96.1,0.557
18.06,32059.4,35243.8,0.2447,0.6009,146.2,96.1,0.557
18.08,32265.9,35433.8,1.1053,1.0685,146.2,96.1,0.557
18.1,32432.0,35681.9,1.797,1.6793,146.2,96.1,0.557
18.12,32323.6,35731.4,1.3453,1.8011,146.2,96.1,0.557
18.14,32242.0,35539.4,1.0055,1.3286,146.2,96.1,0.557
18.16,32314.7,35405.4,1.3085,0.9987,146.2,96.1,0.557
18.18,32055.6,35171.0,0.229,0.4218,146.2,96.1,0.557
18.2,32083.7,35157.5,0.346,0.3887,146.2,96.1,0.557
18.22,32017.6,35072.3,0.0706,0.1789,146.2,96.1,0.557
18.24,31993.5,34908.4,-0.0298,-0.2246,146.2,96.1,0.557
18.26,31829.7,34909.7,-0.7124,-0.2213,146.2,96.1,0.557
18.28,31876.5,34778.2,-0.5172,-0.545,146.2,96.1,0.557
18.3,31804.6,34774.4,-0.8166,-0.5544,146.2,96.1,0.557
18.32,31916.5,34680.7,-0.3505,-0.7849,146.2,96.1,0.557
18.34,31863.7,34637.1,-0.5707,-0.8922,146.2,96.1,0.557
18.36,31704.5,34634.8,-1.2338,-0.8979,146.2,96.1,0.557
18.38,31785.2,34512.0,-0.8977,-1.2001,146.2,96.1,0.557
18.4,31749.4,34399.8,-1.0468,-1.4763,146.2,96.1,0.557
18.42,31750.3,34508.5,-1.0429,-1.2087,146.2,96.1,0.557
18.44,31845.0,34686.7,-0.6486,-0.7701,146.2,96.1,0.557
18.46,31991.1,35007.7,-0.0396,0.0198,146.2,96.1,0.557
18.48,32213.2,35472.5,0.8855,1.1639,146.2,96.1,0.557
18.5,32354.1,35806.5,1.4725,1.9858,146.2,96.1,0.557
18.52,32423.3,35755.8,1.7607,1.861,146.2,96.1,0.557
18.54,32303.9,35580.2,1.2635,1.4289,146.2,96.1,0.557
18.56,32285.1,35536.3,1.185,1.3208,146.2,96.1,0.557
18.58,32120.1,35328.9,0.4975,0.8105,146.2,96.1,0.557
18.6,32101.3,35150.3,0.4192,0.3708,146.2,96.1,0.557
18.62,32076.1,35234.9,0.3145,0.579,146.2,96.1,0.557
18.64,32053.8,34948.7,0.2213,-0.1254,146.2,96.1,0.557
18.66,31956.4,34951.4,-0.1842,-0.1186,146.2,96.1,0.557
18.68,31965.3,34714.3,-0.1471,-0.7021,146.2,96.1,0.557
18.7,31780.0,34729.1,-0.9192,-0.6659,146.2,96.1,0.557
18.72,31834.9,34728.7,-0.6903,-0.6668,146.2,96.1,0.557
18.74,31935.5,34654.4,-0.2714,-0.8497,146.2,96.1,0.557
18.76,31902.9,34642.9,-0.4072,-0.878,146.2,96.1,0.557
18.78,31778.2,34497.9,-0.9269,-1.2348,146.2,96.1,0.557
18.8,31733.4,34573.6,-1.1134,-1.0485,146.2,96.1,0.557
18.82,31710.3,34463.4,-1.2098,-1.3198,146.2,96.1,0.557
18.84,31810.2,34520.5,-0.7935,-1.1792,146.2,96.1,0.557
18.86,31965.9,34718.0,-0.1448,-0.6931,146.2,96.1,0.557
18.88,32143.0,35217.6,0.5932,0.5366,146.2,96.1,0.557
18.9,32269.9,35582.0,1.1219,1.4333,146.2,96.1,0.557
18.92,32340.4,35793.3,1.4154,1.9534,146.2,96.1,0.557
18.94,32456.7,35726.2,1.9002,1.7883,146.2,96.1,0.557
18.96,32144.3,35554.9,0.5987,1.3667,146.2,96.1,0.557
18.98,32161.7,35334.5,0.6712,0.8243,146.2,96.1,0.557
19.0,32140.8,35297.6,0.5838,0.7333,146.2,96.1,0.557
19.02,32071.8,35152.4,0.2964,0.376,146.2,96.1,0.557
19.04,32005.8,35071.9,0.0216,0.178,146.2,96.1,0.557
19.06,31960.4,34991.9,-0.1678,-0.019,146.2,96.1,0.557
19.08,31930.3,34870.1,-0.2931,-0.3186,146.2,96.1,0.557
19.1,31946.8,34832.2,-0.2245,-0.4122,146.2,96.1,0.557
19.12,31903.2,34733.6,-0.4061,-0.6548,146.2,96.1,0.557
19.14,31876.7,34698.9,-0.5162,-0.7402,146.2,96.1,0.557
19.16,31721.6,34699.7,-1.1625,-0.7381,146.2,96.1,0.557
19.18,31817.0,34690.7,-0.765,-0.7604,146.2,96.1,0.557
19.2,31778.4,34463.7,-0.9258,-1.3191,146.2,96.1,0.557
19.22,31691.3,34495.2,-1.2889,-1.2415,146.2,96.1,0.557
19.24,31673.5,34475.9,-1.3631,-1.2889,146.2,96.1,0.557
19.26,31858.3,34655.8,-0.5931,-0.8463,146.2,96.1,0.557
19.28,32051.1,34945.2,0.2103,-0.134,146.2,96.1,0.557
19.3,32215.9,35377.5,0.8967,0.9301,146.2,96.1,0.557
19.32,32365.3,35752.0,1.5192,1.8517,146.2,96.1,0.557
19.34,32471.3,35757.7,1.9607,1.8658,146.2,96.1,0.557
19.36,32366.5,35695.5,1.5243,1.7128,146.2,96.1,0.557
19.38,32243.2,35492.6,1.0107,1.2134,146.2,96.1,0.557
19.4,32101.9,35294.0,0.422,0.7246,146.2,96.1,0.557
19.42,32001.2,35243.3,0.0021,0.5998,146.2,96.1,0.557
19.44,32008.4,35081.9,0.0323,0.2024,146.2,96.1,0.557
19.46,32048.2,35124.7,0.198,0.3079,146.2,96.1,0.557
19.48,32039.4,34958.8,0.1616,-0.1005,146.2,96.1,0.557
19.5,31892.5,34895.7,-0.4505,-0.2559,146.2,96.1,0.557
19.52,31786.7,34795.0,-0.8912,-0.5037,146.2,96.1,0.557
19.54,31804.2,34753.3,-0.8184,-0.6063,146.2,96.1,0.557
19.56,31849.4,34621.2,-0.6303,-0.9314,146.2,96.1,0.557
19.58,31827.7,34703.2,-0.7206,-0.7296,146.2,96.1,0.557
19.6,31689.0,34513.9,-1.2983,-1.1953,146.2,96.1,0.557
19.62,31858.3,34508.2,-0.5929,-1.2094,146.2,96.1,0.557
19.64,31686.2,34417.5,-1.3101,-1.4327,146.2,96.1,0.557
19.66,31757.9,34536.8,-1.0111,-1.1391,146.2,96.1,0.557
19.68,31867.6,34780.5,-0.5544,-0.5393,146.2,96.1,0.557
19.7,32053.0,35191.7,0.2181,0.4728,146.2,96.1,0.557
19.72,32287.9,35563.4,1.1967,1.3877,146.2,96.1,0.557
19.74,32340.2,35811.8,1.4145,1.9989,146.2,96.1,0.557
19.76,32466.0,35786.3,1.9389,1.9362,146.2,96.1,0.557
19.78,32328.4,35573.2,1.3654,1.4117,146.2,96.1,0.557
19.8,32200.6,35441.2,0.8331,1.0867,146.2,96.1,0.557
19.82,32030.1,35287.2,0.1227,0.7077,146.2,96.1,0.557
19.84,32052.0,35157.6,0.2139,0.3889,146.2,96.1,0.557
19.86,32040.6,35086.8,0.1663,0.2146,146.2,96.1,0.557
19.88,31999.0,34978.0,-0.007,-0.0533,146.2,96.1,0.557
19.9,32000.5,34908.9,-0.0007,-0.2232,146.2,96.1,0.557
19.92,31895.3,34728.6,-0.4389,-0.667,146.2,96.1,0.557
19.94,31778.0,34728.6,-0.9277,-0.667,146.2,96.1,0.557
19.96,31811.5,34599.7,-0.788,-0.9843,146.2,96.1,0.557
19.98,31784.4,34700.1,-0.9008,-0.7371,146.2,96.1,0.557
20.0,31770.8,34556.6,-0.9576,-1.0903,146.2,96.1,0.557
20.02,31730.0,34562.1,-1.1277,-1.0768,146.2,96.1,0.557
20.04,31691.7,34423.7,-1.287,-1.4173,146.2,96.1,0.557
20.06,31806.6,34516.8,-0.8084,-1.1883,146.2,96.1,0.557
20.08,31891.5,34566.4,-0.4546,-1.0663,146.2,96.1,0.557
20.1,32028.9,35051.7,0.1178,0.1281,146.2,96.1,0.557
20.12,32205.3,35400.2,0.8525,0.9858,146.2,96.1,0.557
20.14,32421.6,35756.7,1.7538,1.8634,146.2,96.1,0.557
20.16,32425.2,35776.7,1.7689,1.9126,146.2,96.1,0.557
20.18,32352.0,35736.1,1.4636,1.8126,146.2,96.1,0.557
20.2,32242.0,35503.2,1.0056,1.2395,146.2,96.1,0.557
20.22,32081.1,35309.7,0.3353,0.7633,146.2,96.1,0.557
20.24,32185.5,35101.4,0.77,0.2506,146.2,96.1,0.557
20.26,32089.9,35117.6,0.3718,0.2903,146.2,96.1,0.557
20.28,32042.5,35075.2,0.1744,0.186,146.2,96.1,0.557
20.3,31953.2,34961.1,-0.1975,-0.0947,146.2,96.1,0.557
20.32,31939.8,34815.5,-0.2534,-0.453,146.2,96.1,0.557
20.34,31889.5,34763.1,-0.4632,-0.5821,146.2,96.1,0.557
20.36,31849.3,34651.1,-0.6306,-0.8577,146.2,96.1,0.557
20.38,31929.4,34662.9,-0.2967,-0.8287,146.2,96.1,0.557
20.4,31883.3,34648.6,-0.4888,-0.8639,146.2,96.1,0.557
20.42,31839.4,34537.1,-0.6716,-1.1385,146.2,96.1,0.557
20.44,31692.0,34504.3,-1.2858,-1.2191,146.2,96.1,0.557
20.46,31689.7,34553.6,-1.2953,-1.0977,146.2,96.1,0.557
20.48,31763.0,34560.1,-0.9899,-1.0818,146.2,96.1,0.557
20.5,31926.8,34803.1,-0.3077,-0.4837,146.2,96.1,0.557
20.52,32089.9,35179.8,0.3718,0.4433,146.2,96.1,0.557
20.54,32259.4,35486.0,1.0781,1.197,146.2,96.1,0.557
20.56,32383.4,35687.4,1.5948,1.6928,146.2,96.1,0.557
20.58,32410.7,35744.0,1.7084,1.832,146.2,96.1,0.557
20.6,32272.3,35572.6,1.1318,1.4103,146.2,96.1,0.557
20.62,32134.6,35379.8,0.5581,0.9356,146.2,96.1,0.557
20.64,32096.5,35173.6,0.3995,0.4281,146.2,96.1,0.557
20.66,32128.4,35157.6,0.5323,0.3889,146.2,96.1,0.557
20.68,32091.3,35076.3,0.3778,0.1886,146.2,96.1,0.557
20.7,31986.9,35050.1,-0.0571,0.1243,146.2,96.1,0.557
20.72,31950.9,34875.5,-0.2074,-0.3054,146.2,96.1,0.557
20.74,31924.3,34821.8,-0.3181,-0.4375,146.2,96.1,0.557
20.76,31905.8,34744.7,-0.3953,-0.6274,146.2,96.1,0.557
20.78,31901.8,34674.4,-0.4117,-0.8004,146.2,96.1,0.557
20.8,31779.8,34730.7,-0.92,-0.6619,146.2,96.1,0.557
20.82,31759.5,34659.9,-1.0047,-0.8362,146.2,96.1,0.557
20.84,31745.2,34564.1,-1.0644,-1.0718,146.2,96.1,0.557
20.86,31706.8,34472.6,-1.2241,-1.297,146.2,96.1,0.557
20.88,31727.1,34503.4,-1.1397,-1.2214,146.2,96.1,0.557
20.9,31881.1,34621.4,-0.4979,-0.9308,146.2,96.1,0.557
20.92,31992.6,35002.3,-0.0334,0.0067,146.2,96.1,0.557
20.94,32200.4,35402.7,0.8321,0.9922,146.2,96.1,0.557
20.96,32336.6,35656.0,1.3997,1.6155,146.2,96.1,0.557
20.98,32411.5,35805.5,1.7115,1.9834,146.2,96.1,0.557
21.0,32366.4,35702.4,1.5238,1.7297,146.2,96.1,0.557
21.02,32212.3,35444.4,0.8818,1.0946,146.2,96.1,0.557
21.04,32232.0,35214.9,0.964,0.5298,146.2,96.1,0.557
21.06,32073.2,35183.4,0.3024,0.4524,146.2,96.1,0.557
21.08,32024.3,35059.7,0.0986,0.148,146.2,96.1,0.557
21.1,32110.8,35008.9,0.4591,0.0227,146.2,96.1,0.557
21.12,32065.3,34952.9,0.2692,-0.1151,146.2,96.1,0.557
21.14,31891.8,34777.6,-0.4534,-0.5464,146.2,96.1,0.557
21.16,31842.9,34809.9,-0.6572,-0.467,146.2,96.1,0.557
21.18,31898.8,34746.3,-0.4241,-0.6234,146.2,96.1,0.557
21.2,31763.1,34736.7,-0.9897,-0.647,146.2,96.1,0.557
21.22,31759.5,34642.2,-1.0045,-0.8796,146.2,96.1,0.557
21.24,31780.6,34498.0,-0.9167,-1.2346,146.2,96.1,0.557
21.26,31768.2,34638.5,-0.9684,-0.8888,146.2,96.1,0.557
21.28,31717.9,34474.0,-1.178,-1.2937,146.2,96.1,0.557
21.3,31796.5,34487.5,-0.8506,-1.2603,146.2,96.1,0.557
21.32,31922.0,34855.3,-0.3276,-0.3552,146.2,96.1,0.557
21.34,32047.1,35097.7,0.1937,0.2414,146.2,96.1,0.557
21.36,32189.2,35452.4,0.7855,1.1143,146.2,96.1,0.557
21.38,32411.5,35643.6,1.7118,1.585,146.2,96.1,0.557
21.4,32375.5,35748.0,1.5616,1.842,146.2,96.1,0.557
21.42,32248.3,35562.2,1.0316,1.3847,146.2,96.1,0.557
21.44,32186.3,35433.8,0.7733,1.0686,146.2,96.1,0.557
21.46,32132.6,35196.7,0.5498,0.4852,146.2,96.1,0.557
21.48,32101.2,35043.0,0.4188,0.1067,146.2,96.1,0.557
21.5,31971.6,35033.6,-0.1209,0.0837,146.2,96.1,0.557
21.52,32021.4,34974.5,0.0864,-0.0619,146.2,96.1,0.557
21.54,31922.6,34878.5,-0.3252,-0.2981,146.2,96.1,0.557
21.56,31872.5,34838.5,-0.534,-0.3966,146.2,96.1,0.557
21.58,31777.3,34687.1,-0.9304,-0.7691,146.2,96.1,0.557
21.6,31867.5,34745.8,-0.5548,-0.6246,146.2,96.1,0.557
21.62,31813.1,34585.9,-0.7811,-1.0183,146.2,96.1,0.557
21.64,31812.4,34613.3,-0.7842,-0.9508,146.2,96.1,0.557
21.66,31732.1,34623.7,-1.1188,-0.9251,146.2,96.1,0.557
21.68,31685.4,34388.4,-1.3133,-1.5044,146.2,96.1,0.557
21.7,31741.0,34527.0,-1.0819,-1.1633,146.2,96.1,0.557
21.72,31825.8,34660.7,-0.7284,-0.8342,146.2,96.1,0.557
21.74,32009.5,34804.2,0.0368,-0.481,146.2,96.1,0.557
21.76,32199.4,35264.3,0.8279,0.6514,146.2,96.1,0.557
21.78,32372.4,35607.2,1.549,1.4954,146.2,96.1,0.557
21.8,32454.8,35713.6,1.8922,1.7573,146.2,96.1,0.557
21.82,32380.7,35670.4,1.5835,1.651,146.2,96.1,0.557
21.84,32254.3,35455.9,1.0566,1.1229,146.2,96.1,0.557
21.86,32324.7,35296.4,1.35,0.7303,146.2,96.1,0.557
21.88,32061.1,35123.8,0.2521,0.3057,146.2,96.1,0.557
21.9,32058.0,35140.4,0.2391,0.3466,146.2,96.1,0.557
21.92,32012.3,34955.2,0.0487,-0.1093,146.2,96.1,0.557
21.94,31963.1,34962.8,-0.1562,-0.0907,146.2,96.1,0.557
21.96,31879.2,34785.8,-0.5061,-0.5261,146.2,96.1,0.557
21.98,31918.9,34712.9,-0.3404,-0.7057,146.2,96.1,0.557
22.0,31818.4,34680.7,-0.7593,-0.7849,146.2,96.1,0.557
22.02,31843.2,34845.0,-0.6557,-0.3806,146.2,96.1,0.557
22.04,31889.6,34615.2,-0.4626,-0.9461,146.2,96.1,0.557
22.06,31770.8,34657.9,-0.9576,-0.8411,146.2,96.1,0.557
22.08,31843.4,34494.9,-0.655,-1.2423,146.2,96.1,0.557
22.1,31698.7,34415.1,-1.2579,-1.4386,146.2,96.1,0.557
22.12,31812.2,34513.3,-0.7853,-1.197,146.2,96.1,0.557
22.14,31938.1,34804.6,-0.2606,-0.4799,146.2,96.1,0.557
22.16,32062.7,35052.3,0.2584,0.1297,146.2,96.1,0.557
22.18,32216.5,35409.8,0.8993,1.0095,146.2,96.1,0.557
22.2,32361.1,35753.7,1.5017,1.856,146.2,96.1,0.557
22.22,32349.4,35755.6,1.4529,1.8607,146.2,96.1,0.557
22.24,32210.5,35615.0,0.8742,1.5146,146.2,96.1,0.557
22.26,32191.6,35510.4,0.7955,1.2571,146.2,96.1,0.557
22.28,32102.0,35210.1,0.4224,0.518,146.2,96.1,0.557
22.3,32092.8,35102.9,0.3841,0.2541,146.2,96.1,0.557
22.32,32060.9,35052.9,0.251,0.1312,146.2,96.1,0.557
22.34,32021.7,35005.1,0.0878,0.0135,146.2,96.1,0.557
22.36,31946.9,34920.8,-0.2241,-0.1939,146.2,96.1,0.557
22.38,31896.4,34760.9,-0.4344,-0.5875,146.2,96.1,0.557
22.4,31898.4,34712.7,-0.426,-0.7062,146.2,96.1,0.557
22.42,31829.9,34588.1,-0.7114,-1.0129,146.2,96.1,0.557
22.44,31860.0,34723.7,-0.5858,-0.679,146.2,96.1,0.557
22.46,31772.4,34622.7,-0.9509,-0.9277,146.2,96.1,0.557
22.48,31783.8,34542.4,-0.9036,-1.1252,146.2,96.1,0.557
22.5,31691.9,34469.8,-1.2865,-1.3041,146.2,96.1,0.557
22.52,31788.0,34522.7,-0.8859,-1.1737,146.2,96.1,0.557
22.54,31811.4,34577.9,-0.7885,-1.0379,146.2,96.1,0.557
22.56,31957.4,34942.2,-0.1802,-0.1413,146.2,96.1,0.557
22.58,32139.1,35321.1,0.5767,0.7912,146.2,96.1,0.557
22.6,32370.9,35622.9,1.5425,1.5339,146.2,96.1,0.557
22.62,32374.8,35693.6,1.5588,1.708,146.2,96.1,0.557
22.64,32271.9,35687.4,1.1302,1.6928,146.2,96.1,0.557
22.66,32171.3,35469.9,0.711,1.1573,146.2,96.1,0.557
22.68,32173.6,35368.1,0.7204,0.9068,146.2,96.1,0.557
22.7,32069.0,35118.4,0.2847,0.2923,146.2,96.1,0.557
22.72,32067.6,35152.9,0.279,0.3773,146.2,96.1,0.557
22.74,32105.9,35030.5,0.4385,0.076,146.2,96.1,0.557
22.76,31901.4,34972.3,-0.4133,-0.0672,146.2,96.1,0.557
22.78,31961.9,34851.5,-0.1615,-0.3645,146.2,96.1,0.557
22.8,31926.2,34784.2,-0.31,-0.5302,146.2,96.1,0.557
22.82,31873.6,34680.5,-0.5295,-0.7855,146.2,96.1,0.557
22.84,31884.1,34672.0,-0.4856,-0.8064,146.2,96.1,0.557
22.86,31806.3,34677.4,-0.8098,-0.7931,146.2,96.1,0.557
22.88,31783.7,34681.7,-0.9039,-0.7824,146.2,96.1,0.557
22.9,31717.4,34511.1,-1.18,-1.2023,146.2,96.1,0.557
22.92,31780.2,34387.3,-0.9183,-1.507,146.2,96.1,0.557
22.94,31742.9,34484.2,-1.0737,-1.2686,146.2,96.1,0.557
22.96,31767.8,34826.4,-0.97,-0.4263,146.2,96.1,0.557
22.98,31986.4,35023.1,-0.0593,0.0579,146.2,96.1,0.557
23.0,32224.8,35524.5,0.9339,1.2919,146.2,96.1,0.557
23.02,32338.4,35759.5,1.4073,1.8701,146.2,96.1,0.557
23.04,32364.8,35790.8,1.5171,1.9472,146.2,96.1,0.557
23.06,32335.9,35585.0,1.3966,1.4408,146.2,96.1,0.557
23.08,32244.7,35508.3,1.0168,1.2519,146.2,96.1,0.557
23.1,32214.1,35267.4,0.8893,0.659,146.2,96.1,0.557
23.12,32025.3,35148.3,0.1026,0.366,146.2,96.1,0.557
23.14,31985.0,35100.9,-0.0651,0.2494,146.2,96.1,0.557
23.16,32091.5,35086.8,0.3787,0.2145,146.2,96.1,0.557
23.18,32009.0,34937.9,0.0347,-0.152,146.2,96.1,0.557
23.2,31897.3,34761.7,-0.4304,-0.5856,146.2,96.1,0.557
23.22,31861.3,34749.0,-0.5807,-0.6169,146.2,96.1,0.557
23.24,31802.3,34602.9,-0.8263,-0.9764,146.2,96.1,0.557
23.26,31902.7,34644.4,-0.4082,-0.8743,146.2,96.1,0.557
23.28,31780.0,34648.9,-0.9194,-0.8633,146.2,96.1,0.557
23.3,31822.6,34536.3,-0.7418,-1.1403,146.2,96.1,0.557
23.32,31726.6,34556.2,-1.1418,-1.0913,146.2,96.1,0.557
23.34,31716.2,34434.1,-1.1852,-1.3918,146.2,96.1,0.557
23.36,31755.3,34624.7,-1.0223,-0.9229,146.2,96.1,0.557
23.38,31984.5,34875.8,-0.0675,-0.3047,146.2,96.1,0.557
23.4,32153.6,35336.1,0.6374,0.8282,146.2,96.1,0.557
23.42,32383.0,35621.3,1.5928,1.5301,146.2,96.1,0.557
23.44,32358.6,35736.5,1.4914,1.8136,146.2,96.1,0.557
23.46,32299.0,35702.0,1.2432,1.7286,146.2,96.1,0.557
23.48,32184.7,35519.3,0.767,1.2791,146.2,96.1,0.557
23.5,32214.2,35348.3,0.8897,0.8582,146.2,96.1,0.557
23.52,32113.0,35079.2,0.4681,0.196,146.2,96.1,0.557
23.54,32072.2,35164.4,0.2982,0.4056,146.2,96.1,0.557
23.56,31990.0,34915.6,-0.0442,-0.2068,146.2,96.1,0.557
23.58,31999.2,34922.2,-0.0058,-0.1905,146.2,96.1,0.557
23.6,31980.2,34820.7,-0.085,-0.4405,146.2,96.1,0.557
23.62,31901.0,34782.1,-0.415,-0.5354,146.2,96.1,0.557
23.64,31837.2,34642.1,-0.6811,-0.8799,146.2,96.1,0.557
23.66,31789.1,34659.8,-0.8814,-0.8363,146.2,96.1,0.557
23.68,31788.8,34743.1,-0.8827,-0.6312,146.2,96.1,0.557
23.7,31751.8,34591.4,-1.0369,-1.0047,146.2,96.1,0.557
23.72,31825.3,34508.9,-0.7304,-1.2077,146.2,96.1,0.557
23.74,31694.5,34427.5,-1.2756,-1.4081,146.2,96.1,0.557
23.76,31664.9,34587.8,-1.3989,-1.0135,146.2,96.1,0.557
23.78,31827.6,34766.5,-0.7208,-0.5738,146.2,96.1,0.557
23.8,32095.2,35078.0,0.3938,0.193,146.2,96.1,0.557
23.82,32160.2,35574.9,0.6646,1.4158,146.2,96.1,0.557
23.84,32353.3,35604.4,1.4694,1.4885,146.2,96.1,0.557
23.86,32351.5,35746.6,1.4618,1.8383,146.2,96.1,0.557
23.88,32159.8,35653.1,0.6631,1.6083,146.2,96.1,0.557
23.9,32124.3,35434.8,0.5152,1.0712,146.2,96.1,0.557
23.92,32158.5,35263.3,0.6575,0.649,146.2,96.1,0.557
23.94,32002.5,35098.2,0.0076,0.2427,146.2,96.1,0.557
23.96,32078.8,35069.6,0.3254,0.1723,146.2,96.1,0.557
23.98,32038.7,34996.9,0.1586,-0.0066,146.2,96.1,0.557
24.0,31932.5,34902.0,-0.2838,-0.2403,146.2,96.1,0.557
24.02,31941.5,34845.0,-0.2464,-0.3805,146.2,96.1,0.557
24.04,31864.7,34748.1,-0.5664,-0.619,146.2,96.1,0.557
24.06,31802.6,34671.3,-0.825,-0.808,146.2,96.1,0.557
24.08,31883.8,34635.3,-0.4868,-0.8967,146.2,96.1,0.557
24.1,31775.4,34711.1,-0.9383,-0.7102,146.2,96.1,0.557
24.12,31770.7,34478.2,-0.9582,-1.2832,146.2,96.1,0.557
24.14,31737.2,34369.7,-1.0976,-1.5503,146.2,96.1,0.557
24.16,31687.5,34510.8,-1.3046,-1.2031,146.2,96.1,0.557
24.18,31764.0,34703.7,-0.9858,-0.7284,146.2,96.1,0.557
24.2,31904.3,34862.6,-0.4012,-0.3372,146.2,96.1,0.557
24.22,32169.6,35296.3,0.7038,0.7302,146.2,96.1,0.557
24.24,32321.5,35543.8,1.3366,1.3393,146.2,96.1,0.557
24.26,32401.8,35752.7,1.6714,1.8534,146.2,96.1,0.557
24.28,32399.0,35637.5,1.6598,1.5698,146.2,96.1,0.557
24.3,32218.5,35453.9,0.9076,1.118,146.2,96.1,0.557
24.32,32155.1,35284.1,0.6437,0.7002,146.2,96.1,0.557
24.34,32129.8,35173.7,0.538,0.4285,146.2,96.1,0.557
24.36,32010.2,35064.2,0.0397,0.1589,146.2,96.1,0.557
24.38,32140.6,35072.0,0.5832,0.1782,146.2,96.1,0.557
24.4,31977.5,35035.0,-0.0966,0.0871,146.2,96.1,0.557
24.42,31903.7,34798.5,-0.4038,-0.495,146.2,96.1,0.557
24.44,31799.0,34779.4,-0.8401,-0.5421,146.2,96.1,0.557
24.46,31866.8,34689.1,-0.5577,-0.7642,146.2,96.1,0.557
24.48,31790.9,34720.8,-0.8738,-0.6862,146.2,96.1,0.557
24.5,31813.3,34548.0,-0.7806,-1.1114,146.2,96.1,0.557
24.52,31857.1,34576.4,-0.5982,-1.0415,146.2,96.1,0.557
24.54,31803.7,34616.8,-0.8207,-0.9422,146.2,96.1,0.557
24.56,31771.8,34427.3,-0.9536,-1.4085,146.2,96.1,0.557
24.58,31705.1,34481.1,-1.2313,-1.2762,146.2,96.1,0.557
24.6,31866.0,34798.2,-0.561,-0.4957,146.2,96.1,0.557
24.62,32036.6,35137.4,0.1497,0.339,146.2,96.1,0.557
24.64,32234.3,35476.3,0.9734,1.1731,146.2,96.1,0.557
24.66,32387.0,35741.9,1.6095,1.8269,146.2,96.1,0.557
24.68,32398.1,35723.4,1.6558,1.7812,146.2,96.1,0.557
24.7,32291.9,35639.4,1.2135,1.5747,146.2,96.1,0.557
24.72,32232.0,35335.8,0.9639,0.8273,146.2,96.1,0.557
24.74,32181.0,35169.2,0.7514,0.4174,146.2,96.1,0.557
24.76,32067.2,35145.5,0.2774,0.3592,146.2,96.1,0.557
24.78,32065.4,35062.4,0.2698,0.1545,146.2,96.1,0.557
24.8,32027.0,35054.3,0.1098,0.1347,146.2,96.1,0.557
24.82,32011.2,34885.3,0.0438,-0.2814,146.2,96.1,0.557
24.84,31887.9,34905.1,-0.4695,-0.2327,146.2,96.1,0.557
24.86,31895.5,34740.1,-0.4379,-0.6386,146.2,96.1,0.557
24.88,31803.2,34736.3,-0.8225,-0.6481,146.2,96.1,0.557
24.9,31864.0,34586.2,-0.5691,-1.0174,146.2,96.1,0.557
24.92,31754.4,34691.4,-1.0257,-0.7585,146.2,96.1,0.557
24.94,31787.3,34568.0,-0.889,-1.0623,146.2,96.1,0.557
24.96,31776.6,34544.2,-0.9333,-1.1209,146.2,96.1,0.557
24.98,31747.9,34576.0,-1.0528,-1.0426,146.2,96.1,0.557
25.0,31812.2,34566.7,-0.7853,-1.0654,146.2,96.1,0.557
25.02,31963.2,34853.3,-0.1561,-0.3601,146.2,96.1,0.557
25.04,32146.5,35323.3,0.6079,0.7967,146.2,96.1,0.557
25.06,32233.7,35628.3,0.9709,1.5474,146.2,96.1,0.557
25.08,32353.2,35777.9,1.469,1.9155,146.2,96.1,0.557
25.1,32442.5,35665.6,1.841,1.6392,146.2,96.1,0.557
25.12,32118.2,35509.8,0.4897,1.2556,146.2,96.1,0.557
25.14,32159.5,35270.2,0.6617,0.666,146.2,96.1,0.557
25.16,32128.2,35223.7,0.5314,0.5516,146.2,96.1,0.557
25.18,32086.7,35191.4,0.3587,0.4721,146.2,96.1,0.557
25.2,32047.6,34999.6,0.1958,-0.0001,146.2,96.1,0.557
25.22,31976.2,34911.2,-0.1019,-0.2175,146.2,96.1,0.557
25.24,31951.1,34848.6,-0.2064,-0.3717,146.2,96.1,0.557
25.26,31846.8,34832.8,-0.6411,-0.4106,146.2,96.1,0.557
25.28,31809.5,34648.5,-0.7964,-0.8642,146.2,96.1,0.557
25.3,31883.9,34668.7,-0.4864,-0.8144,146.2,96.1,0.557
25.32,31811.0,34630.7,-0.7903,-0.908,146.2,96.1,0.557
25.34,31815.8,34529.3,-0.7702,-1.1576,146.2,96.1,0.557
25.36,31679.8,34456.3,-1.3366,-1.3373,146.2,96.1,0.557
25.38,31671.5,34374.8,-1.3711,-1.5378,146.2,96.1,0.557
25.4,31745.5,34519.5,-1.0628,-1.1817,146.2,96.1,0.557
25.42,31803.0,34701.0,-0.8232,-0.735,146.2,96.1,0.557
25.44,32083.9,35018.3,0.3468,0.046,146.2,96.1,0.557
25.46,32125.7,35499.8,0.5211,1.2309,146.2,96.1,0.557
25.48,32361.7,35710.6,1.5041,1.7499,146.2,96.1,0.557
25.5,32412.7,35663.3,1.7166,1.6334,146.2,96.1,0.557
25.52,32257.2,35742.3,1.0687,1.8277,146.2,96.1,0.557
25.54,32335.6,35373.4,1.3954,0.9198,146.2,96.1,0.557
25.56,32187.4,35330.2,0.7783,0.8136,146.2,96.1,0.557
25.58,32037.0,35247.8,0.1513,0.6109,146.2,96.1,0.557
25.6,32009.9,35135.2,0.0385,0.3336,146.2,96.1,0.557
25.62,31919.2,35061.0,-0.3392,0.151,146.2,96.1,0.557
25.64,31915.8,34986.6,-0.3533,-0.0321,146.2,96.1,0.557
25.66,31876.9,34715.0,-0.5154,-0.7004,146.2,96.1,0.557
25.68,31836.5,34722.5,-0.6837,-0.682,146.2,96.1,0.557
25.7,31943.9,34671.5,-0.2363,-0.8076,146.2,96.1,0.557
25.72,31727.9,34709.9,-1.1362,-0.713,146.2,96.1,0.557
25.74,31817.6,34652.4,-0.7628,-0.8546,146.2,96.1,0.557
25.76,31748.5,34502.7,-1.0506,-1.223,146.2,96.1,0.557
25.78,31716.6,34469.8,-1.1835,-1.3041,146.2,96.1,0.557
25.8,31797.3,34407.0,-0.8473,-1.4587,146.2,96.1,0.557
25.82,31872.7,34616.0,-0.533,-0.9441,146.2,96.1,0.557
25.84,31964.9,34809.5,-0.1489,-0.4679,146.2,96.1,0.557
25.86,32177.7,35173.6,0.7376,0.4282,146.2,96.1,0.557
25.88,32202.9,35628.9,0.8426,1.5487,146.2,96.1,0.557
25.9,32425.9,35739.0,1.7719,1.8196,146.2,96.1,0.557
25.92,32346.6,35657.7,1.4415,1.6198,146.2,96.1,0.557
25.94,32322.5,35563.7,1.3409,1.3884,146.2,96.1,0.557
25.96,32186.9,35313.7,0.7758,0.773,146.2,96.1,0.557
25.98,32146.3,35279.4,0.6066,0.6886,146.2,96.1,0.557
26.0,32050.1,35084.5,0.2061,0.209,146.2,96.1,0.557
26.02,31991.4,35130.1,-0.0385,0.3211,146.2,96.1,0.557
26.04,31967.7,35011.6,-0.1372,0.0294,146.2,96.1,0.557
26.06,31940.2,34935.0,-0.2516,-0.1591,146.2,96.1,0.557
26.08,31889.9,34857.1,-0.4612,-0.3507,146.2,96.1,0.557
26.1,31806.3,34703.0,-0.8095,-0.7301,146.2,96.1,0.557
26.12,31864.5,34658.0,-0.5671,-0.8409,146.2,96.1,0.557
26.14,31796.4,34602.4,-0.8508,-0.9777,146.2,96.1,0.557
26.16,31777.5,34646.2,-0.9297,-0.8699,146.2,96.1,0.557
26.18,31653.9,34513.8,-1.4445,-1.1956,146.2,96.1,0.557
26.2,31773.6,34416.2,-0.946,-1.4359,146.2,96.1,0.557
26.22,31796.4,34502.5,-0.8509,-1.2235,146.2,96.1,0.557
26.24,31827.2,34757.6,-0.7227,-0.5956,146.2,96.1,0.557
26.26,32054.5,35156.2,0.2244,0.3853,146.2,96.1,0.557
26.28,32159.8,35457.5,0.6631,1.127,146.2,96.1,0.557
26.3,32326.7,35764.9,1.3584,1.8834,146.2,96.1,0.557
26.32,32447.7,35716.7,1.8624,1.7649,146.2,96.1,0.557
26.34,32269.3,35600.2,1.1193,1.4782,146.2,96.1,0.557
26.36,32172.8,35353.1,0.7172,0.87,146.2,96.1,0.557
26.38,32089.6,35200.0,0.3705,0.4931,146.2,96.1,0.557
26.4,31980.3,35094.5,-0.0848,0.2335,146.2,96.1,0.557
26.42,32045.8,35084.2,0.188,0.2082,146.2,96.1,0.557
26.44,31996.2,35029.6,-0.0185,0.0738,146.2,96.1,0.557
26.46,31998.3,34809.6,-0.0099,-0.4675,146.2,96.1,0.557
26.48,31863.4,34858.5,-0.5716,-0.3473,146.2,96.1,0.557
26.5,31853.9,34662.5,-0.6114,-0.8297,146.2,96.1,0.557
26.52,31772.5,34684.5,-0.9505,-0.7756,146.2,96.1,0.557
26.54,31901.7,34713.5,-0.4121,-0.7042,146.2,96.1,0.557
26.56,31783.6,34611.1,-0.9045,-0.9563,146.2,96.1,0.557
26.58,31731.7,34582.5,-1.1207,-1.0266,146.2,96.1,0.557
26.6,31743.0,34496.1,-1.0735,-1.2391,146.2,96.1,0.557
26.62,31814.0,34544.5,-0.7777,-1.1202,146.2,96.1,0.557
26.64,31741.6,34581.5,-1.079,-1.0291,146.2,96.1,0.557
26.66,31852.2,34884.5,-0.6183,-0.2832,146.2,96.1,0.557
26.68,32097.2,35258.0,0.4025,0.636,146.2,96.1,0.557
26.7,32279.0,35618.2,1.1596,1.5225,146.2,96.1,0.557
26.72,32270.4,35734.9,1.1238,1.8096,146.2,96.1,0.557
26.74,32279.9,35711.8,1.1636,1.7529,146.2,96.1,0.557
26.76,32363.6,35549.1,1.512,1.3523,146.2,96.1,0.557
26.78,32156.3,35255.8,0.6484,0.6306,146.2,96.1,0.557
26.8,32071.6,35228.6,0.2954,0.5635,146.2,96.1,0.557
26.82,32034.4,35072.5,0.1405,0.1795,146.2,96.1,0.557
26.84,31901.2,35055.2,-0.4145,0.1369,146.2,96.1,0.557
26.86,31987.8,35050.9,-0.0536,0.1262,146.2,96.1,0.557
26.88,31887.4,34866.1,-0.4717,-0.3287,146.2,96.1,0.557
26.9,31873.0,34792.9,-0.5316,-0.5088,146.2,96.1,0.557
26.92,31806.5,34818.2,-0.809,-0.4465,146.2,96.1,0.557
26.94,31841.6,34669.1,-0.6627,-0.8135,146.2,96.1,0.557
26.96,31725.3,34679.0,-1.147,-0.789,146.2,96.1,0.557
26.98,31770.6,34573.2,-0.9585,-1.0494,146.2,96.1,0.557
27.0,31711.2,34402.9,-1.2059,-1.4686,146.2,96.1,0.557
27.02,31758.3,34444.2,-1.0095,-1.3669,146.2,96.1,0.557
27.04,31670.2,34502.8,-1.3766,-1.2228,146.2,96.1,0.557
27.06,31856.6,34879.7,-0.6003,-0.295,146.2,96.1,0.557
27.08,31989.0,35028.0,-0.0486,0.07,146.2,96.1,0.557
27.1,32207.7,35390.2,0.8628,0.9612,146.2,96.1,0.557
27.12,32306.6,35647.7,1.2746,1.595,146.2,96.1,0.557
27.14,32378.3,35801.6,1.5735,1.9738,146.2,96.1,0.557
27.16,32384.5,35695.9,1.5992,1.7137,146.2,96.1,0.557
27.18,32252.4,35463.0,1.0488,1.1405,146.2,96.1,0.557
27.2,32109.0,35236.3,0.4516,0.5826,146.2,96.1,0.557
27.22,32049.9,35137.1,0.2054,0.3384,146.2,96.1,0.557
27.24,31957.5,35175.5,-0.1795,0.4329,146.2,96.1,0.557
27.26,32012.4,35045.5,0.0489,0.1129,146.2,96.1,0.557
27.28,32054.7,34969.8,0.2252,-0.0734,146.2,96.1,0.557
27.3,31908.5,34838.9,-0.3841,-0.3956,146.2,96.1,0.557
27.32,31915.8,34781.8,-0.3535,-0.5361,146.2,96.1,0.557
27.34,31739.3,34611.7,-1.0887,-0.9547,146.2,96.1,0.557
27.36,31881.5,34568.1,-0.4962,-1.0621,146.2,96.1,0.557
27.38,31806.9,34665.7,-0.8072,-0.8219,146.2,96.1,0.557
27.4,31805.7,34522.3,-0.8124,-1.1747,146.2,96.1,0.557
27.42,31755.1,34551.2,-1.0231,-1.1036,146.2,96.1,0.557
27.44,31839.9,34473.5,-0.6696,-1.2949,146.2,96.1,0.557
27.46,31748.8,34519.7,-1.0493,-1.1811,146.2,96.1,0.557
27.48,31938.5,34829.6,-0.2587,-0.4184,146.2,96.1,0.557
27.5,32164.1,35208.5,0.6811,0.5141,146.2,96.1,0.557
27.52,32257.6,35546.4,1.0706,1.3458,146.2,96.1,0.557
27.54,32492.4,35739.5,2.049,1.8211,146.2,96.1,0.557
27.56,32343.8,35714.8,1.4298,1.7601,146.2,96.1,0.557
27.58,32308.3,35595.0,1.2817,1.4653,146.2,96.1,0.557
27.6,32204.4,35395.3,0.849,0.9739,146.2,96.1,0.557
27.62,32102.6,35188.4,0.4248,0.4647,146.2,96.1,0.557
27.64,31984.8,35077.8,-0.0659,0.1925,146.2,96.1,0.557
27.66,31991.9,35055.3,-0.0365,0.1372,146.2,96.1,0.557
27.68,31951.5,35107.7,-0.2046,0.2661,146.2,96.1,0.557
27.7,31948.6,34885.8,-0.2167,-0.2801,146.2,96.1,0.557
27.72,31900.3,34765.5,-0.4181,-0.5763,146.2,96.1,0.557
27.74,31818.8,34689.3,-0.7576,-0.7636,146.2,96.1,0.557
27.76,31875.8,34571.9,-0.5202,-1.0526,146.2,96.1,0.557
27.78,31915.8,34666.5,-0.3533,-0.8198,146.2,96.1,0.557
27.8,31769.4,34646.4,-0.9634,-0.8694,146.2,96.1,0.557
27.82,31677.2,34571.1,-1.3476,-1.0546,146.2,96.1,0.557
27.84,31708.7,34464.3,-1.2162,-1.3176,146.2,96.1,0.557
27.86,31675.7,34513.3,-1.3539,-1.1968,146.2,96.1,0.557
27.88,31771.2,34698.3,-0.9558,-0.7415,146.2,96.1,0.557
27.9,32024.8,34996.1,0.1007,-0.0087,146.2,96.1,0.557
27.92,32186.3,35421.0,0.7737,1.0371,146.2,96.1,0.557
27.94,32351.3,35699.2,1.4608,1.7219,146.2,96.1,0.557
27.96,32320.6,35766.1,1.3329,1.8864,146.2,96.1,0.557
27.98,32309.0,35668.9,1.2848,1.6473,146.2,96.1,0.557
28.0,32221.2,35452.5,0.919,1.1145,146.2,96.1,0.557
28.02,32150.5,35325.7,0.6242,0.8027,146.2,96.1,0.557
28.04,32112.9,35131.9,0.4677,0.3256,146.2,96.1,0.557
28.06,32056.7,35128.3,0.2336,0.3168,146.2,96.1,0.557
28.08,32074.4,35104.1,0.3073,0.2571,146.2,96.1,0.557
28.1,31957.3,34892.9,-0.1807,-0.2625,146.2,96.1,0.557
28.12,31907.0,34885.3,-0.39,-0.2814,146.2,96.1,0.557
28.14,31931.1,34669.0,-0.2896,-0.8137,146.2,96.1,0.557
28.16,31811.9,34715.0,-0.7863,-0.7006,146.2,96.1,0.557
28.18,31743.3,34615.2,-1.072,-0.9461,146.2,96.1,0.557
28.2,31831.0,34689.6,-0.7068,-0.7629,146.2,96.1,0.557
28.22,31723.0,34589.6,-1.1566,-1.009,146.2,96.1,0.557
28.24,31729.4,34527.8,-1.13,-1.1612,146.2,96.1,0.557
28.26,31778.4,34470.0,-0.9259,-1.3034,146.2,96.1,0.557
28.28,31813.1,34563.8,-0.7813,-1.0726,146.2,96.1,0.557
28.3,31885.3,34908.4,-0.4804,-0.2246,146.2,96.1,0.557
28.32,32061.9,35180.2,0.2553,0.4444,146.2,96.1,0.557
28.34,32292.3,35483.4,1.215,1.1907,146.2,96.1,0.557
28.36,32429.5,35738.5,1.7867,1.8185,146.2,96.1,0.557
28.38,32426.9,35729.6,1.7758,1.7966,146.2,96.1,0.557
28.4,32344.8,35512.0,1.434,1.2611,146.2,96.1,0.557
28.42,32123.8,35301.4,0.5132,0.7428,146.2,96.1,0.557
28.44,32073.6,35144.2,0.3041,0.3559,146.2,96.1,0.557
28.46,32048.7,35149.5,0.2,0.3689,146.2,96.1,0.557
28.48,32039.2,35121.0,0.1605,0.2988,146.2,96.1,0.557
28.5,32021.7,34977.0,0.0878,-0.0557,146.2,96.1,0.557
28.52,32001.5,34918.7,0.0036,-0.1991,146.2,96.1,0.557
28.54,31848.5,34780.9,-0.6339,-0.5384,146.2,96.1,0.557
28.56,31984.4,34688.5,-0.0676,-0.7657,146.2,96.1,0.557
28.58,31825.2,34699.9,-0.7311,-0.7376,146.2,96.1,0.557
28.6,31806.7,34751.6,-0.808,-0.6103,146.2,96.1,0.557
28.62,31832.0,34628.1,-0.7024,-0.9144,146.2,96.1,0.557
28.64,31783.4,34492.4,-0.9051,-1.2483,146.2,96.1,0.557
28.66,31760.3,34464.1,-1.0013,-1.3181,146.2,96.1,0.557
28.68,31825.1,34405.5,-0.7313,-1.4622,146.2,96.1,0.557
28.7,31924.1,34695.0,-0.3189,-0.7496,146.2,96.1,0.557
28.72,32039.2,35013.8,0.1607,0.035,146.2,96.1,0.557
28.74,32196.5,35396.8,0.8158,0.9776,146.2,96.1,0.557
28.76,32316.2,35684.8,1.3146,1.6862,146.2,96.1,0.557
28.78,32397.6,35686.2,1.6537,1.6898,146.2,96.1,0.557
28.8,32338.7,35652.3,1.4085,1.6064,146.2,96.1,0.557
28.82,32364.4,35452.0,1.5156,1.1134,146.2,96.1,0.557
28.84,32124.2,35368.0,0.5147,0.9066,146.2,96.1,0.557
28.86,32035.3,35186.4,0.1442,0.4597,146.2,96.1,0.557
28.88,32081.6,35192.7,0.3372,0.4752,146.2,96.1,0.557
28.9,31957.2,35083.7,-0.1811,0.2069,146.2,96.1,0.557
28.92,32032.6,35053.6,0.1333,0.1327,146.2,96.1,0.557
28.94,31866.6,34784.7,-0.5584,-0.529,146.2,96.1,0.557
28.96,31849.7,34748.7,-0.629,-0.6176,146.2,96.1,0.557
28.98,31869.1,34608.4,-0.5481,-0.9627,146.2,96.1,0.557
29.0,31832.1,34704.5,-0.7021,-0.7264,146.2,96.1,0.557
29.02,31807.2,34739.9,-0.8061,-0.6392,146.2,96.1,0.557
29.04,31721.2,34534.9,-1.1644,-1.1436,146.2,96.1,0.557
29.06,31682.7,34452.8,-1.3244,-1.3459,146.2,96.1,0.557
29.08,31708.0,34470.6,-1.2193,-1.302,146.2,96.1,0.557
29.1,31811.9,34553.2,-0.7864,-1.0987,146.2,96.1,0.557
29.12,31986.2,34780.5,-0.0601,-0.5393,146.2,96.1,0.557
29.14,32133.5,35195.2,0.5536,0.4814,146.2,96.1,0.557
29.16,32222.0,35510.0,0.9221,1.2561,146.2,96.1,0.557
29.18,32356.7,35836.2,1.4835,2.0591,146.2,96.1,0.557
29.2,32393.8,35759.6,1.6378,1.8705,146.2,96.1,0.557
29.22,32303.9,35560.5,1.2636,1.3804,146.2,96.1,0.557
29.24,32222.6,35322.4,0.9248,0.7945,146.2,96.1,0.557
29.26,32139.5,35299.9,0.5787,0.739,146.2,96.1,0.557
29.28,32056.8,35170.2,0.234,0.4198,146.2,96.1,0.557
29.3,32091.2,35033.4,0.3773,0.0832,146.2,96.1,0.557
29.32,32021.2,35098.6,0.0857,0.2437,146.2,96.1,0.557
29.34,31961.6,34812.0,-0.1629,-0.4618,146.2,96.1,0.557
29.36,31905.5,34768.6,-0.3962,-0.5687,146.2,96.1,0.557
29.38,31887.0,34713.3,-0.4735,-0.7047,146.2,96.1,0.557
29.4,31888.8,34683.0,-0.466,-0.7791,146.2,96.1,0.557
29.42,31819.3,34561.4,-0.7556,-1.0786,146.2,96.1,0.557
29.44,31734.8,34621.7,-1.1074,-0.93,146.2,96.1,0.557
29.46,31798.9,34482.0,-0.8407,-1.2739,146.2,96.1,0.557
29.48,31735.3,34425.4,-1.1053,-1.4131,146.2,96.1,0.557
29.5,31705.0,34474.6,-1.2317,-1.2923,146.2,96.1,0.557
29.52,31913.8,34687.9,-0.362,-0.7671,146.2,96.1,0.557
29.54,32041.3,35110.8,0.1692,0.2736,146.2,96.1,0.557
29.56,32172.9,35306.4,0.7175,0.7551,146.2,96.1,0.557
29.58,32392.4,35689.0,1.6319,1.6966,146.2,96.1,0.557
29.6,32443.3,35764.0,1.844,1.8812,146.2,96.1,0.557
29.62,32330.2,35702.5,1.3729,1.73,146.2,96.1,0.557
29.64,32239.3,35494.1,0.9942,1.217,146.2,96.1,0.557
29.66,32123.4,35221.4,0.5113,0.546,146.2,96.1,0.557
29.68,32131.4,35148.1,0.5447,0.3654,146.2,96.1,0.557
29.7,32029.9,35046.6,0.1218,0.1156,146.2,96.1,0.557
29.72,32018.0,35055.8,0.0724,0.1382,146.2,96.1,0.557
29.74,32004.7,34912.3,0.0171,-0.2149,146.2,96.1,0.557
29.76,31865.6,34870.0,-0.5626,-0.319,146.2,96.1,0.557
29.78,31794.6,34685.7,-0.8582,-0.7727,146.2,96.1,0.557
29.8,31896.5,34680.7,-0.434,-0.7849,146.2,96.1,0.557
29.82,31838.9,34669.4,-0.6741,-0.8128,146.2,96.1,0.557
29.84,31777.1,34687.3,-0.9315,-0.7688,146.2,96.1,0.557
29.86,31773.6,34613.4,-0.9457,-0.9506,146.2,96.1,0.557
29.88,31691.5,34492.5,-1.2881,-1.2482,146.2,96.1,0.557
29.9,31728.5,34449.4,-1.134,-1.3542,146.2,96.1,0.557
29.92,31843.8,34550.7,-0.6536,-1.1048,146.2,96.1,0.557
29.94,31819.9,34777.6,-0.753,-0.5464,146.2,96.1,0.557
29.96,32109.5,35187.8,0.4534,0.4631,146.2,96.1,0.557
29.98,32242.4,35681.3,1.0072,1.6779,146.2,96.1,0.557
30.0,32469.6,35732.0,1.9539,1.8026,146.2,96.1,0.557
30.02,32439.8,35761.7,1.8296,1.8756,146.2,96.1,0.557
30.04,32269.5,35596.6,1.1203,1.4693,146.2,96.1,0.557
30.06,32283.7,35428.1,1.1792,1.0546,146.2,96.1,0.557
30.08,32093.4,35132.9,0.3866,0.3281,146.2,96.1,0.557
30.1,32078.7,35081.7,0.3251,0.202,146.2,96.1,0.557
30.12,31972.1,35150.4,-0.1188,0.3712,146.2,96.1,0.557
30.14,32040.6,35036.6,0.1664,0.0909,146.2,96.1,0.557
30.16,31957.5,34905.5,-0.1796,-0.2316,146.2,96.1,0.557
30.18,31942.4,34819.3,-0.2427,-0.4439,146.2,96.1,0.557
30.2,31891.9,34697.3,-0.4531,-0.744,146.2,96.1,0.557
30.22,31830.1,34644.5,-0.7107,-0.8739,146.2,96.1,0.557
30.24,31812.9,34712.2,-0.7823,-0.7073,146.2,96.1,0.557
30.26,31755.0,34659.1,-1.0232,-0.838,146.2,96.1,0.557
30.28,31741.3,34505.5,-1.0804,-1.2162,146.2,96.1,0.557
30.3,31720.6,34413.9,-1.1667,-1.4415,146.2,96.1,0.557
30.32,31763.1,34458.4,-0.9895,-1.3321,146.2,96.1,0.557
30.34,31860.2,34683.8,-0.585,-0.7772,146.2,96.1,0.557
30.36,32050.6,35003.9,0.208,0.0106,146.2,96.1,0.557
30.38,32179.4,35373.3,0.7448,0.9198,146.2,96.1,0.557
30.4,32312.9,35684.5,1.3009,1.6857,146.2,96.1,0.557
30.42,32333.8,35745.4,1.388,1.8355,146.2,96.1,0.557
30.44,32312.5,35626.3,1.2992,1.5424,146.2,96.1,0.557
30.46,32301.1,35412.5,1.2517,1.0163,146.2,96.1,0.557
30.48,32137.4,35376.4,0.5699,0.9274,146.2,96.1,0.557
30.5,32097.2,35214.0,0.4023,0.5276,146.2,96.1,0.557
30.52,32073.7,35100.7,0.3046,0.2488,146.2,96.1,0.557
30.54,31965.3,35025.0,-0.1472,0.0624,146.2,96.1,0.557
30.56,31929.8,35000.2,-0.2951,0.0014,146.2,96.1,0.557
30.58,31835.2,34885.8,-0.6894,-0.2801,146.2,96.1,0.557
30.6,31874.9,34778.5,-0.524,-0.5441,146.2,96.1,0.557
30.62,31884.3,34721.9,-0.4847,-0.6835,146.2,96.1,0.557
30.64,31860.3,34686.2,-0.5848,-0.7714,146.2,96.1,0.557
30.66,31810.5,34674.6,-0.7922,-0.7998,146.2,96.1,0.557
30.68,31784.3,34586.5,-0.9011,-1.0168,146.2,96.1,0.557
30.7,31650.4,34446.9,-1.4592,-1.3603,146.2,96.1,0.557
30.72,31658.8,34505.5,-1.4244,-1.216,146.2,96.1,0.557
30.74,31811.7,34434.4,-0.7871,-1.3912,146.2,96.1,0.557
30.76,32004.4,34857.3,0.0158,-0.3501,146.2,96.1,0.557
30.78,32077.0,35236.6,0.3183,0.5832,146.2,96.1,0.557
30.8,32278.5,35539.5,1.1575,1.3287,146.2,96.1,0.557
30.82,32423.0,35675.8,1.7594,1.6643,146.2,96.1,0.557
30.84,32368.1,35763.4,1.5309,1.8799,146.2,96.1,0.557
30.86,32311.6,35531.8,1.2955,1.3099,146.2,96.1,0.557
30.88,32241.2,35408.8,1.0023,1.0071,146.2,96.1,0.557
30.9,32160.4,35238.8,0.6654,0.5885,146.2,96.1,0.557
30.92,31966.5,35047.3,-0.1423,0.1174,146.2,96.1,0.557
30.94,32007.3,35052.6,0.0279,0.1305,146.2,96.1,0.557
30.96,32074.3,35016.1,0.3069,0.0405,146.2,96.1,0.557
30.98,31915.0,34925.8,-0.3567,-0.1816,146.2,96.1,0.557
31.0,31906.9,34789.0,-0.3907,-0.5183,146.2,96.1,0.557
31.02,31809.9,34646.2,-0.7946,-0.8697,146.2,96.1,0.557
31.04,31869.8,34720.4,-0.5453,-0.6871,146.2,96.1,0.557
31.06,31877.2,34662.9,-0.5144,-0.8287,146.2,96.1,0.557
31.08,31752.6,34560.7,-1.0333,-1.0803,146.2,96.1,0.557
31.1,31689.2,34464.1,-1.2975,-1.318,146.2,96.1,0.557
31.12,31753.4,34587.0,-1.0301,-1.0154,146.2,96.1,0.557
31.14,31677.2,34449.8,-1.3473,-1.3531,146.2,96.1,0.557
31.16,31811.0,34750.5,-0.7899,-0.6132,146.2,96.1,0.557
31.18,32038.8,34956.0,0.1591,-0.1073,146.2,96.1,0.557
31.2,32236.2,35345.0,0.9814,0.85,146.2,96.1,0.557
31.22,32377.8,35659.0,1.5713,1.6229,146.2,96.1,0.557
31.24,32431.0,35782.6,1.793,1.927,146.2,96.1,0.557
31.26,32279.4,35712.6,1.1616,1.7547,146.2,96.1,0.557
31.28,32193.9,35538.7,0.8052,1.3268,146.2,96.1,0.557
31.3,32153.1,35218.7,0.635,0.5392,146.2,96.1,0.557
31.32,32084.1,35190.3,0.3475,0.4693,146.2,96.1,0.557
31.34,32066.1,35100.0,0.2729,0.247,146.2,96.1,0.557
31.36,32055.7,35069.8,0.2294,0.1728,146.2,96.1,0.557
31.38,31956.5,35013.8,-0.1839,0.0348,146.2,96.1,0.557
31.4,31888.0,34832.7,-0.4692,-0.4108,146.2,96.1,0.557
31.42,31956.8,34732.8,-0.1827,-0.6566,146.2,96.1,0.557
31.44,31836.4,34679.6,-0.6841,-0.7876,146.2,96.1,0.557
31.46,31779.6,34737.5,-0.921,-0.6452,146.2,96.1,0.557
31.48,31782.8,34663.0,-0.9075,-0.8285,146.2,96.1,0.557
31.5,31783.7,34609.1,-0.9038,-0.9612,146.2,96.1,0.557
31.52,31620.0,34470.9,-1.5857,-1.3012,146.2,96.1,0.557
31.54,31729.7,34592.4,-1.1288,-1.0022,146.2,96.1,0.557
31.56,31702.1,34504.5,-1.244,-1.2186,146.2,96.1,0.557
31.58,31798.1,34787.5,-0.8437,-0.522,146.2,96.1,0.557
31.6,32101.1,35233.5,0.4185,0.5757,146.2,96.1,0.557
31.62,32256.0,35433.5,1.0641,1.0678,146.2,96.1,0.557
31.64,32364.2,35732.7,1.5146,1.8043,146.2,96.1,0.557
31.66,32350.8,35782.7,1.4588,1.9272,146.2,96.1,0.557
31.68,32224.6,35630.8,0.9331,1.5535,146.2,96.1,0.557
31.7,32172.5,35385.5,0.7159,0.9497,146.2,96.1,0.557
31.72,32076.2,35209.0,0.3149,0.5154,146.2,96.1,0.557
31.74,32134.6,35107.8,0.558,0.2662,146.2,96.1,0.557
31.76,32082.9,35067.5,0.3427,0.1671,146.2,96.1,0.557
31.78,31929.8,35061.0,-0.2952,0.1512,146.2,96.1,0.557
31.8,31911.9,34885.3,-0.3696,-0.2813,146.2,96.1,0.557
31.82,31973.0,34765.5,-0.1153,-0.5761,146.2,96.1,0.557
31.84,31915.7,34737.1,-0.3541,-0.6462,146.2,96.1,0.557
31.86,31923.9,34607.1,-0.3198,-0.9662,146.2,96.1,0.557
31.88,31720.2,34684.0,-1.1682,-0.7767,146.2,96.1,0.557
31.9,31809.1,34647.5,-0.7981,-0.8665,146.2,96.1,0.557
31.92,31633.6,34525.6,-1.5293,-1.1666,146.2,96.1,0.557
31.94,31730.0,34507.0,-1.1277,-1.2125,146.2,96.1,0.557
31.96,31804.5,34463.2,-0.8172,-1.3203,146.2,96.1,0.557
31.98,31820.3,34624.8,-0.7512,-0.9226,146.2,96.1,0.557
32.0,31953.3,35001.8,-0.1974,0.0055,146.2,96.1,0.557
32.02,32098.7,35369.1,0.4085,0.9094,146.2,96.1,0.557
32.04,32321.6,35645.5,1.3372,1.5897,146.2,96.1,0.557
32.06,32324.7,35782.2,1.3502,1.9262,146.2,96.1,0.557
32.08,32430.5,35721.4,1.7909,1.7765,146.2,96.1,0.557
32.1,32232.9,35401.1,0.9677,0.9882,146.2,96.1,0.557
32.12,32235.6,35233.0,0.9787,0.5744,146.2,96.1,0.557
32.14,32058.8,35098.5,0.2425,0.2434,146.2,96.1,0.557
32.16,31966.4,35035.8,-0.1426,0.089,146.2,96.1,0.557
32.18,32044.6,35080.2,0.1831,0.1982,146.2,96.1,0.557
32.2,31954.2,34931.0,-0.1935,-0.169,146.2,96.1,0.557
32.22,31932.0,34791.4,-0.2859,-0.5124,146.2,96.1,0.557
32.24,31904.2,34787.8,-0.4019,-0.5213,146.2,96.1,0.557
32.26,31851.9,34722.8,-0.6198,-0.6812,146.2,96.1,0.557
32.28,31809.3,34745.6,-0.797,-0.6253,146.2,96.1,0.557
32.3,31839.7,34787.1,-0.6705,-0.523,146.2,96.1,0.557
32.32,31757.5,34498.6,-1.013,-1.233,146.2,96.1,0.557
32.34,31760.7,34556.0,-0.9995,-1.0918,146.2,96.1,0.557
32.36,31760.7,34473.0,-0.9995,-1.2962,146.2,96.1,0.557
32.38,31765.4,34575.8,-0.9802,-1.0432,146.2,96.1,0.557
32.4,31851.3,34717.6,-0.6224,-0.694,146.2,96.1,0.557
32.42,32097.2,35187.5,0.4022,0.4624,146.2,96.1,0.557
32.44,32319.4,35526.8,1.3279,1.2975,146.2,96.1,0.557
32.46,32326.2,35745.4,1.3563,1.8356,146.2,96.1,0.557
32.48,32413.8,35788.1,1.7214,1.9406,146.2,96.1,0.557
32.5,32277.6,35610.0,1.1541,1.5022,146.2,96.1,0.557
32.52,32175.0,35405.5,0.7265,0.999,146.2,96.1,0.557
32.54,32165.4,35206.2,0.6865,0.5084,146.2,96.1,0.557
32.56,32068.4,35199.2,0.2824,0.4913,146.2,96.1,0.557
32.58,31973.8,35054.5,-0.1118,0.1351,146.2,96.1,0.557
32.6,32055.9,34994.8,0.23,-0.0119,146.2,96.1,0.557
32.62,32033.3,35015.4,0.1359,0.0389,146.2,96.1,0.557
32.64,31900.7,34802.3,-0.4165,-0.4858,146.2,96.1,0.557
32.66,31898.4,34651.2,-0.4258,-0.8575,146.2,96.1,0.557
32.68,31823.6,34662.9,-0.7375,-0.8286,146.2,96.1,0.557
32.7,31799.5,34689.5,-0.8379,-0.7634,146.2,96.1,0.557
32.72,31739.1,34694.9,-1.0896,-0.7498,146.2,96.1,0.557
32.74,31798.5,34499.2,-0.8422,-1.2317,146.2,96.1,0.557
32.76,31744.5,34537.7,-1.0671,-1.1369,146.2,96.1,0.557
32.78,31744.7,34469.8,-1.0665,-1.3041,146.2,96.1,0.557
32.8,31840.2,34602.5,-0.6685,-0.9775,146.2,96.1,0.557
32.82,31929.5,34968.7,-0.2966,-0.0762,146.2,96.1,0.557
32.84,32122.9,35362.1,0.5093,0.892,146.2,96.1,0.557
32.86,32400.2,35711.7,1.6647,1.7525,146.2,96.1,0.557
32.88,32327.6,35809.9,1.3622,1.9943,146.2,96.1,0.557
32.9,32308.2,35718.6,1.2813,1.7696,146.2,96.1,0.557
32.92,32281.8,35523.8,1.1712,1.2901,146.2,96.1,0.557
32.94,32226.2,35270.9,0.9398,0.6677,146.2,96.1,0.557
32.96,32142.7,35174.5,0.5917,0.4305,146.2,96.1,0.557
32.98,32100.3,35135.2,0.4153,0.3336,146.2,96.1,0.557
33.0,31977.6,34959.0,-0.0958,-0.1,146.2,96.1,0.557
33.02,31939.1,35015.4,-0.2562,0.0388,146.2,96.1,0.557
33.04,31953.3,34815.0,-0.1973,-0.4543,146.2,96.1,0.557
33.06,31788.2,34821.7,-0.885,-0.4379,146.2,96.1,0.557
33.08,31862.2,34640.9,-0.5766,-0.8828,146.2,96.1,0.557
33.1,31875.7,34650.2,-0.5205,-0.86,146.2,96.1,0.557
33.12,31817.7,34711.0,-0.7621,-0.7105,146.2,96.1,0.557
33.14,31770.4,34577.0,-0.9593,-1.04,146.2,96.1,0.557
33.16,31694.9,34451.5,-1.2739,-1.3489,146.2,96.1,0.557
33.18,31758.3,34484.4,-1.0096,-1.268,146.2,96.1,0.557
33.2,31804.9,34585.2,-0.8154,-1.0199,146.2,96.1,0.557
33.22,31908.6,34758.8,-0.3834,-0.5927,146.2,96.1,0.557
33.24,32043.1,35156.6,0.1767,0.3863,146.2,96.1,0.557
33.26,32272.8,35506.3,1.134,1.2471,146.2,96.1,0.557
33.28,32338.1,35640.5,1.4058,1.5774,146.2,96.1,0.557
33.3,32408.6,35714.2,1.6997,1.7588,146.2,96.1,0.557
33.32,32284.7,35616.6,1.1833,1.5184,146.2,96.1,0.557
33.34,32132.6,35338.4,0.5496,0.8338,146.2,96.1,0.557
33.36,32127.5,35281.0,0.5285,0.6926,146.2,96.1,0.557
33.38,32151.1,35204.4,0.6269,0.5039,146.2,96.1,0.557
33.4,31955.7,35112.6,-0.187,0.2781,146.2,96.1,0.557
33.42,32043.2,35010.1,0.1773,0.0257,146.2,96.1,0.557
33.44,31960.7,34952.1,-0.1664,-0.1169,146.2,96.1,0.557
33.46,31899.3,34779.7,-0.4224,-0.5413,146.2,96.1,0.557
33.48,31943.9,34775.5,-0.2366,-0.5516,146.2,96.1,0.557
33.5,31917.5,34596.0,-0.3464,-0.9934,146.2,96.1,0.557
33.52,31773.3,34591.1,-0.9473,-1.0055,146.2,96.1,0.557
33.54,31770.1,34555.3,-0.9605,-1.0935,146.2,96.1,0.557
33.56,31744.1,34459.0,-1.0689,-1.3306,146.2,96.1,0.557
33.58,31758.8,34445.8,-1.0076,-1.3631,146.2,96.1,0.557
33.6,31709.6,34493.9,-1.2127,-1.2446,146.2,96.1,0.557
33.62,31816.1,34633.4,-0.7689,-0.9014,146.2,96.1,0.557
33.64,32001.2,34943.3,0.0022,-0.1385,146.2,96.1,0.557
33.66,32141.2,35370.7,0.5855,0.9133,146.2,96.1,0.557
33.68,32348.6,35649.7,1.4496,1.6,146.2,96.1,0.557
33.7,32330.1,35741.5,1.3726,1.8259,146.2,96.1,0.557
33.72,32463.7,35620.8,1.929,1.5289,146.2,96.1,0.557
33.74,32279.0,35557.7,1.1598,1.3735,146.2,96.1,0.557
33.76,32247.3,35280.6,1.0278,0.6916,146.2,96.1,0.557
33.78,32130.4,35200.8,0.5406,0.4952,146.2,96.1,0.557
33.8,32062.9,35166.4,0.2595,0.4106,146.2,96.1,0.557
33.82,31962.1,35131.2,-0.1607,0.3239,146.2,96.1,0.557
33.84,32018.6,34881.1,0.075,-0.2916,146.2,96.1,0.557
33.86,31932.1,34843.7,-0.2854,-0.3837,146.2,96.1,0.557
33.88,31923.3,34732.1,-0.3223,-0.6585,146.2,96.1,0.557
33.9,31781.5,34685.6,-0.9132,-0.7728,146.2,96.1,0.557
33.92,31822.2,34675.3,-0.7436,-0.7981,146.2,96.1,0.557
33.94,31838.3,34650.4,-0.6764,-0.8595,146.2,96.1,0.557
33.96,31751.1,34568.0,-1.0395,-1.0623,146.2,96.1,0.557
33.98,31743.6,34490.8,-1.0711,-1.2522,146.2,96.1,0.557
34.0,31705.6,34347.8,-1.2292,-1.6042,146.2,96.1,0.557
34.02,31803.8,34502.5,-0.8201,-1.2235,146.2,96.1,0.557
34.04,31811.2,34663.3,-0.7892,-0.8277,146.2,96.1,0.557
34.06,32131.8,35102.2,0.5465,0.2524,146.2,96.1,0.557
34.08,32212.9,35414.0,0.8842,1.0199,146.2,96.1,0.557
34.1,32324.0,35685.6,1.3473,1.6882,146.2,96.1,0.557
34.12,32407.9,35640.7,1.6967,1.5779,146.2,96.1,0.557
34.14,32373.1,35639.8,1.5518,1.5756,146.2,96.1,0.557
34.16,32201.7,35417.4,0.8377,1.0281,146.2,96.1,0.557
34.18,32083.6,35169.4,0.3457,0.4179,146.2,96.1,0.557
34.2,32161.1,35212.3,0.6684,0.5234,146.2,96.1,0.557
34.22,32053.6,35051.7,0.2207,0.1281,146.2,96.1,0.557
34.24,31942.3,34973.4,-0.2429,-0.0644,146.2,96.1,0.557
34.26,31914.6,34891.1,-0.3586,-0.2671,146.2,96.1,0.557
34.28,31912.9,34803.9,-0.3657,-0.4816,146.2,96.1,0.557
34.3,31829.7,34687.5,-0.7122,-0.7682,146.2,96.1,0.557
34.32,31789.5,34668.1,-0.8795,-0.8158,146.2,96.1,0.557
34.34,31851.1,34572.5,-0.6232,-1.0511,146.2,96.1,0.557
34.36,31859.9,34566.6,-0.5866,-1.0658,146.2,96.1,0.557
34.38,31880.6,34520.6,-0.5001,-1.1788,146.2,96.1,0.557
34.4,31769.6,34507.7,-0.9625,-1.2108,146.2,96.1,0.557
34.42,31716.5,34528.1,-1.1838,-1.1604,146.2,96.1,0.557
34.44,31816.7,34479.1,-0.7663,-1.2811,146.2,96.1,0.557
34.46,31933.9,34858.0,-0.2779,-0.3487,146.2,96.1,0.557
34.48,32120.6,35250.5,0.5,0.6175,146.2,96.1,0.557
34.5,32267.3,35514.6,1.1109,1.2676,146.2,96.1,0.557
34.52,32337.2,35797.2,1.4021,1.9629,146.2,96.1,0.557
34.54,32338.5,35757.6,1.4077,1.8656,146.2,96.1,0.557
34.56,32251.8,35539.9,1.0463,1.3297,146.2,96.1,0.557
34.58,32187.9,35323.1,0.78,0.7961,146.2,96.1,0.557
34.6,32031.9,35209.9,0.1304,0.5175,146.2,96.1,0.557
34.62,32005.3,35163.3,0.0195,0.4028,146.2,96.1,0.557
34.64,31987.6,35122.9,-0.0543,0.3035,146.2,96.1,0.557
34.66,31995.5,34980.9,-0.0215,-0.046,146.2,96.1,0.557
34.68,31845.4,34822.1,-0.6469,-0.4369,146.2,96.1,0.557
34.7,31967.9,34772.2,-0.1366,-0.5598,146.2,96.1,0.557
34.72,31868.5,34702.4,-0.5504,-0.7316,146.2,96.1,0.557
34.74,31825.2,34623.2,-0.7309,-0.9265,146.2,96.1,0.557
34.76,31841.4,34646.0,-0.6633,-0.8704,146.2,96.1,0.557
34.78,31772.5,34578.1,-0.9505,-1.0374,146.2,96.1,0.557
34.8,31712.6,34492.4,-1.2001,-1.2483,146.2,96.1,0.557
34.82,31772.0,34561.4,-0.9528,-1.0786,146.2,96.1,0.557
34.84,31767.1,34485.5,-0.9732,-1.2653,146.2,96.1,0.557
34.86,31816.4,34764.1,-0.7674,-0.5797,146.2,96.1,0.557
34.88,32055.1,35117.3,0.227,0.2897,146.2,96.1,0.557
34.9,32232.8,35409.2,0.9672,1.0079,146.2,96.1,0.557
34.92,32356.0,35623.9,1.4804,1.5366,146.2,96.1,0.557
34.94,32489.5,35751.8,2.0366,1.8512,146.2,96.1,0.557
34.96,32229.4,35653.1,0.9532,1.6082,146.2,96.1,0.557
34.98,32130.0,35475.1,0.5388,1.1703,146.2,96.1,0.557
35.0,32126.4,35312.3,0.5241,0.7694,146.2,96.1,0.557
35.02,32052.7,35008.0,0.2168,0.0205,146.2,96.1,0.557
35.04,32035.1,35134.0,0.1437,0.3307,146.2,96.1,0.557
35.06,32005.1,34930.1,0.0184,-0.171,146.2,96.1,0.557
35.08,31949.4,34931.4,-0.2136,-0.1679,146.2,96.1,0.557
35.1,31848.8,34753.5,-0.6326,-0.6058,146.2,96.1,0.557
35.12,31925.4,34737.3,-0.3134,-0.6457,146.2,96.1,0.557
35.14,31902.6,34683.3,-0.4084,-0.7786,146.2,96.1,0.557
35.16,31908.5,34553.2,-0.3838,-1.0988,146.2,96.1,0.557
35.18,31707.8,34589.0,-1.22,-1.0105,146.2,96.1,0.557
35.2,31764.8,34583.0,-0.9826,-1.0253,146.2,96.1,0.557
35.22,31720.2,34492.5,-1.1685,-1.2481,146.2,96.1,0.557
35.24,31701.9,34513.3,-1.2448,-1.1969,146.2,96.1,0.557
35.26,31774.6,34656.1,-0.9416,-0.8454,146.2,96.1,0.557
35.28,31973.0,34856.1,-0.1152,-0.3531,146.2,96.1,0.557
35.3,32118.5,35288.1,0.4909,0.7099,146.2,96.1,0.557
35.32,32306.6,35638.3,1.2745,1.5719,146.2,96.1,0.557
35.34,32333.6,35753.7,1.387,1.8559,146.2,96.1,0.557
35.36,32421.1,35753.3,1.7518,1.8549,146.2,96.1,0.557
35.38,32383.6,35514.4,1.5956,1.2669,146.2,96.1,0.557
35.4,32210.4,35343.4,0.8739,0.8462,146.2,96.1,0.557
35.42,32108.2,35104.1,0.4481,0.2571,146.2,96.1,0.557
35.44,32109.9,35063.8,0.4551,0.1579,146.2,96.1,0.557
35.46,32006.2,35071.6,0.0234,0.1773,146.2,96.1,0.557
35.48,32004.0,34940.2,0.014,-0.1463,146.2,96.1,0.557
35.5,31966.9,34938.5,-0.1407,-0.1503,146.2,96.1,0.557
35.52,31903.8,34828.3,-0.4034,-0.4218,146.2,96.1,0.557
35.54,31800.0,34751.4,-0.836,-0.6109,146.2,96.1,0.557
35.56,31849.0,34699.4,-0.6319,-0.7388,146.2,96.1,0.557
35.58,31858.0,34695.5,-0.5941,-0.7484,146.2,96.1,0.557
35.6,31690.2,34630.7,-1.2935,-0.9079,146.2,96.1,0.557
35.62,31819.8,34491.9,-0.7536,-1.2497,146.2,96.1,0.557
35.64,31721.3,34405.1,-1.1639,-1.4631,146.2,96.1,0.557
35.66,31744.8,34564.1,-1.0661,-1.0719,146.2,96.1,0.557
35.68,31966.4,34781.9,-0.1427,-0.5359,146.2,96.1,0.557
35.7,32017.8,35141.0,0.0715,0.348,146.2,96.1,0.557
35.72,32266.8,35478.1,1.1088,1.1776,146.2,96.1,0.557
35.74,32351.1,35663.5,1.4599,1.6341,146.2,96.1,0.557
35.76,32388.3,35821.4,1.6151,2.0226,146.2,96.1,0.557
35.78,32323.3,35678.0,1.3442,1.6697,146.2,96.1,0.557
35.8,32283.7,35422.6,1.1791,1.041,146.2,96.1,0.557
35.82,32168.9,35233.6,0.701,0.5759,146.2,96.1,0.557
35.84,32047.2,35087.0,0.194,0.2151,146.2,96.1,0.557
35.86,32060.1,35052.7,0.2476,0.1306,146.2,96.1,0.557
35.88,32075.1,35006.0,0.3101,0.0158,146.2,96.1,0.557
35.9,31928.1,34927.7,-0.3023,-0.177,146.2,96.1,0.557
35.92,31905.2,34758.7,-0.3977,-0.593,146.2,96.1,0.557
35.94,31784.1,34689.9,-0.9021,-0.7623,146.2,96.1,0.557
35.96,31878.3,34724.5,-0.5098,-0.677,146.2,96.1,0.557
35.98,31831.1,34727.9,-0.7063,-0.6687,146.2,96.1,0.557
36.0,31877.0,34650.6,-0.5151,-0.859,146.2,96.1,0.557
36.02,31901.8,34615.1,-0.4119,-0.9463,146.2,96.1,0.557
36.04,31703.7,34442.8,-1.2372,-1.3704,146.2,96.1,0.557
36.06,31684.1,34419.0,-1.3187,-1.4289,146.2,96.1,0.557
36.08,31806.6,34604.2,-0.8084,-0.9731,146.2,96.1,0.557
36.1,31887.5,34818.3,-0.4714,-0.4463,146.2,96.1,0.557
36.12,32147.8,35390.5,0.6131,0.962,146.2,96.1,0.557
36.14,32201.2,35533.1,0.8357,1.3131,146.2,96.1,0.557
36.16,32347.9,35689.2,1.4467,1.6972,146.2,96.1,0.557
36.18,32268.5,35717.2,1.1159,1.7662,146.2,96.1,0.557
36.2,32306.9,35559.1,1.2761,1.3769,146.2,96.1,0.557
36.22,32214.3,35406.4,0.8901,1.0011,146.2,96.1,0.557
36.24,32063.2,35281.8,0.2605,0.6946,146.2,96.1,0.557
36.26,32009.7,35106.1,0.0376,0.2622,146.2,96.1,0.557
36.28,32035.1,35103.4,0.1435,0.2554,146.2,96.1,0.557
36.3,31950.4,35001.5,-0.2093,0.0045,146.2,96.1,0.557
36.32,31858.1,34884.4,-0.5939,-0.2835,146.2,96.1,0.557
36.34,31857.1,34754.2,-0.598,-0.604,146.2,96.1,0.557
36.36,31773.0,34675.6,-0.9483,-0.7975,146.2,96.1,0.557
36.38,31876.3,34698.1,-0.5182,-0.7422,146.2,96.1,0.557
36.4,31798.2,34637.8,-0.8433,-0.8906,146.2,96.1,0.557
36.42,31874.7,34553.2,-0.5247,-1.0987,146.2,96.1,0.557
36.44,31676.0,34508.5,-1.3526,-1.2087,146.2,96.1,0.557
36.46,31707.4,34440.5,-1.2219,-1.3762,146.2,96.1,0.557
36.48,31806.7,34551.4,-0.8079,-1.1031,146.2,96.1,0.557
36.5,31979.6,34734.1,-0.0876,-0.6535,146.2,96.1,0.557
36.52,31907.6,35119.8,-0.3876,0.2958,146.2,96.1,0.557
36.54,32309.0,35473.2,1.2847,1.1655,146.2,96.1,0.557
36.56,32383.1,35700.5,1.5935,1.7251,146.2,96.1,0.557
36.58,32454.4,35846.4,1.8904,2.0841,146.2,96.1,0.557
36.6,32350.8,35647.0,1.4588,1.5932,146.2,96.1,0.557
36.62,32267.9,35417.0,1.1133,1.0272,146.2,96.1,0.557
36.64,32215.5,35246.2,0.895,0.6069,146.2,96.1,0.557
36.66,32112.8,35196.6,0.4673,0.4849,146.2,96.1,0.557
36.68,32019.1,35074.0,0.0769,0.183,146.2,96.1,0.557
36.7,32011.3,35051.5,0.0442,0.1276,146.2,96.1,0.557
36.72,31992.7,34861.2,-0.0332,-0.3408,146.2,96.1,0.557
36.74,31878.9,34835.1,-0.5071,-0.405,146.2,96.1,0.557
36.76,31851.9,34783.6,-0.6197,-0.5316,146.2,96.1,0.557
36.78,31809.1,34707.3,-0.7979,-0.7194,146.2,96.1,0.557
36.8,31745.3,34746.4,-1.0638,-0.6232,146.2,96.1,0.557
36.82,31904.9,34575.4,-0.3989,-1.0442,146.2,96.1,0.557
36.84,31764.4,34595.9,-0.9842,-0.9937,146.2,96.1,0.557
36.86,31832.5,34554.6,-0.7007,-1.0953,146.2,96.1,0.557
36.88,31762.7,34461.7,-0.9911,-1.3239,146.2,96.1,0.557
36.9,31761.5,34607.7,-0.9962,-0.9645,146.2,96.1,0.557
36.92,31907.3,34889.6,-0.3889,-0.2708,146.2,96.1,0.557
36.94,32101.1,35251.0,0.4185,0.6188,146.2,96.1,0.557
36.96,32302.9,35596.6,1.2591,1.4693,146.2,96.1,0.557
36.98,32415.1,35728.8,1.7269,1.7947,146.2,96.1,0.557
37.0,32363.0,35713.5,1.5097,1.757,146.2,96.1,0.557
37.02,32202.8,35555.3,0.8422,1.3678,146.2,96.1,0.557
37.04,32159.5,35255.9,0.6616,0.6309,146.2,96.1,0.557
37.06,32018.7,35222.8,0.0751,0.5494,146.2,96.1,0.557
37.08,32078.2,35006.8,0.323,0.0176,146.2,96.1,0.557
37.1,32068.5,35092.9,0.2828,0.2296,146.2,96.1,0.557
37.12,31934.9,35030.1,-0.2739,0.0751,146.2,96.1,0.557
37.14,32050.9,34862.9,0.2095,-0.3366,146.2,96.1,0.557
37.16,31941.1,34797.3,-0.2482,-0.4979,146.2,96.1,0.557
37.18,31944.0,34685.7,-0.236,-0.7726,146.2,96.1,0.557
37.2,31759.2,34686.3,-1.0061,-0.7711,146.2,96.1,0.557
37.22,31878.8,34677.9,-0.5076,-0.7918,146.2,96.1,0.557
37.24,31893.1,34635.1,-0.4482,-0.8972,146.2,96.1,0.557
37.26,31738.5,34467.5,-1.0921,-1.3097,146.2,96.1,0.557
37.28,31755.2,34412.9,-1.0227,-1.4439,146.2,96.1,0.557
37.3,31873.0,34475.9,-0.5319,-1.289,146.2,96.1,0.557
37.32,31847.6,34673.8,-0.6376,-0.8019,146.2,96.1,0.557
37.34,32016.3,35009.2,0.0652,0.0237,146.2,96.1,0.557
37.36,32158.6,35414.8,0.658,1.0218,146.2,96.1,0.557
37.38,32320.3,35663.6,1.3317,1.6343,146.2,96.1,0.557
37.4,32322.8,35851.1,1.3421,2.0957,146.2,96.1,0.557
37.42,32318.2,35621.3,1.3229,1.53,146.2,96.1,0.557
37.44,32245.4,35391.3,1.0197,0.9639,146.2,96.1,0.557
37.46,32063.4,35233.1,0.2616,0.5746,146.2,96.1,0.557
37.48,32046.4,35128.0,0.1908,0.3159,146.2,96.1,0.557
37.5,31988.6,35119.8,-0.0502,0.2957,146.2,96.1,0.557
37.52,32026.5,35128.7,0.1079,0.3177,146.2,96.1,0.557
37.54,32022.1,35026.1,0.0896,0.0652,146.2,96.1,0.557
37.56,31939.6,34747.3,-0.2543,-0.621,146.2,96.1,0.557
37.58,31826.7,34733.6,-0.7249,-0.6546,146.2,96.1,0.557
37.6,31840.9,34661.0,-0.6655,-0.8335,146.2,96.1,0.557
37.62,31903.4,34764.4,-0.4053,-0.5789,146.2,96.1,0.557
37.64,31828.9,34654.9,-0.7157,-0.8484,146.2,96.1,0.557
37.66,31725.2,34559.6,-1.1477,-1.0829,146.2,96.1,0.557
37.68,31739.8,34433.1,-1.0867,-1.3942,146.2,96.1,0.557
37.7,31783.3,34561.7,-0.9054,-1.0777,146.2,96.1,0.557
37.72,31801.2,34587.3,-0.8311,-1.0148,146.2,96.1,0.557
37.74,31851.5,34834.3,-0.6214,-0.4068,146.2,96.1,0.557
37.76,32110.2,35198.3,0.4563,0.489,146.2,96.1,0.557
37.78,32239.6,35612.7,0.9954,1.5088,146.2,96.1,0.557
37.8,32384.8,35735.7,1.6006,1.8117,146.2,96.1,0.557
37.82,32400.2,35661.9,1.6647,1.63,146.2,96.1,0.557
37.84,32225.1,35638.0,0.9352,1.5711,146.2,96.1,0.557
37.86,32208.3,35303.6,0.8653,0.7482,146.2,96.1,0.557
37.88,32131.1,35189.6,0.5436,0.4677,146.2,96.1,0.557
37.9,32014.6,35109.1,0.0583,0.2693,146.2,96.1,0.557
37.92,32061.6,35151.0,0.2538,0.3726,146.2,96.1,0.557
37.94,32066.4,34987.5,0.2741,-0.0298,146.2,96.1,0.557
37.96,31920.3,34847.9,-0.3347,-0.3735,146.2,96.1,0.557
37.98,31847.3,34769.6,-0.6387,-0.566,146.2,96.1,0.557
38.0,31850.6,34700.7,-0.6251,-0.7357,146.2,96.1,0.557
38.02,31795.8,34631.0,-0.8533,-0.9071,146.2,96.1,0.557
38.04,31872.7,34662.8,-0.5331,-0.829,146.2,96.1,0.557
38.06,31793.2,34592.3,-0.8642,-1.0024,146.2,96.1,0.557
38.08,31842.9,34563.0,-0.6571,-1.0746,146.2,96.1,0.557
38.1,31702.2,34511.3,-1.2436,-1.2018,146.2,96.1,0.557
38.12,31740.5,34457.5,-1.0836,-1.3341,146.2,96.1,0.557
38.14,31832.5,34598.4,-0.7003,-0.9874,146.2,96.1,0.557
38.16,32060.7,35010.0,0.2503,0.0255,146.2,96.1,0.557
38.18,32291.6,35372.6,1.2123,0.9179,146.2,96.1,0.557
38.2,32381.8,35667.5,1.5879,1.6437,146.2,96.1,0.557
38.22,32331.6,35759.8,1.3787,1.871,146.2,96.1,0.557
38.24,32360.4,35625.2,1.4989,1.5397,146.2,96.1,0.557
38.26,32219.3,35434.5,0.9112,1.0703,146.2,96.1,0.557
38.28,32144.0,35257.0,0.5973,0.6336,146.2,96.1,0.557
38.3,31995.5,35133.8,-0.0213,0.3303,146.2,96.1,0.557
38.32,32083.9,35071.2,0.347,0.1761,146.2,96.1,0.557
38.34,32044.8,35022.9,0.1841,0.0573,146.2,96.1,0.557
38.36,31958.9,34946.4,-0.174,-0.1309,146.2,96.1,0.557
38.38,31934.7,34746.7,-0.2749,-0.6224,146.2,96.1,0.557
38.4,31890.1,34809.2,-0.4607,-0.4685,146.2,96.1,0.557
38.42,31805.0,34699.6,-0.8152,-0.7384,146.2,96.1,0.557
38.44,31747.1,34703.8,-1.0562,-0.728,146.2,96.1,0.557
38.46,31746.5,34696.8,-1.0589,-0.7452,146.2,96.1,0.557
38.48,31780.2,34580.8,-0.9184,-1.0309,146.2,96.1,0.557
38.5,31802.6,34473.1,-0.8251,-1.2958,146.2,96.1,0.557
38.52,31630.3,34467.2,-1.5431,-1.3104,146.2,96.1,0.557
38.54,31704.3,34612.6,-1.2345,-0.9526,146.2,96.1,0.557
38.56,31815.1,34784.8,-0.7729,-0.5287,146.2,96.1,0.557
38.58,32072.2,35280.5,0.2982,0.6912,146.2,96.1,0.557
38.6,32336.8,35586.9,1.4005,1.4454,146.2,96.1,0.557
38.62,32423.3,35697.6,1.7607,1.7179,146.2,96.1,0.557
38.64,32377.2,35727.3,1.5686,1.7909,146.2,96.1,0.557
38.66,32300.2,35567.4,1.248,1.3974,146.2,96.1,0.557
38.68,32194.6,35394.2,0.8083,0.9711,146.2,96.1,0.557
38.7,32120.6,35172.1,0.4996,0.4245,146.2,96.1,0.557
38.72,32000.9,35046.7,0.0009,0.1158,146.2,96.1,0.557
38.74,31945.2,35008.9,-0.2309,0.0228,146.2,96.1,0.557
38.76,31929.8,34920.5,-0.295,-0.1948,146.2,96.1,0.557
38.78,32032.1,34874.3,0.1312,-0.3084,146.2,96.1,0.557
38.8,31923.2,34767.6,-0.3226,-0.5709,146.2,96.1,0.557
38.82,31842.5,34752.3,-0.6587,-0.6088,146.2,96.1,0.557
38.84,31838.5,34605.5,-0.6757,-0.9699,146.2,96.1,0.557
38.86,31813.7,34630.9,-0.7787,-0.9075,146.2,96.1,0.557
38.88,31828.4,34636.5,-0.7175,-0.8937,146.2,96.1,0.557
38.9,31809.1,34518.1,-0.7982,-1.1852,146.2,96.1,0.557
38.92,31726.6,34455.7,-1.1417,-1.3387,146.2,96.1,0.557
38.94,31738.0,34491.9,-1.0944,-1.2497,146.2,96.1,0.557
38.96,31762.3,34712.3,-0.9929,-0.707,146.2,96.1,0.557
38.98,32010.3,34984.1,0.0404,-0.0381,146.2,96.1,0.557
39.0,32300.3,35375.4,1.2485,0.9248,146.2,96.1,0.557
39.02,32391.4,35665.8,1.6282,1.6395,146.2,96.1,0.557
39.04,32389.8,35738.6,1.6213,1.8187,146.2,96.1,0.557
39.06,32313.8,35763.1,1.3047,1.8791,146.2,96.1,0.557
39.08,32127.7,35503.0,0.5295,1.2389,146.2,96.1,0.557
39.1,32190.1,35282.5,0.7894,0.6963,146.2,96.1,0.557
39.12,32073.4,35149.2,0.3032,0.3682,146.2,96.1,0.557
39.14,32059.9,35080.3,0.247,0.1986,146.2,96.1,0.557
39.16,32002.5,35067.4,0.0078,0.1668,146.2,96.1,0.557
39.18,31976.7,34959.6,-0.0996,-0.0985,146.2,96.1,0.557
39.2,31949.7,34774.0,-0.2121,-0.5553,146.2,96.1,0.557
39.22,31885.1,34707.8,-0.4812,-0.7182,146.2,96.1,0.557
39.24,31845.7,34631.7,-0.6454,-0.9055,146.2,96.1,0.557
39.26,31897.9,34634.7,-0.428,-0.8981,146.2,96.1,0.557
39.28,31909.4,34676.6,-0.38,-0.7951,146.2,96.1,0.557
39.3,31838.5,34578.6,-0.6756,-1.0361,146.2,96.1,0.557
39.32,31787.5,34437.9,-0.888,-1.3824,146.2,96.1,0.557
39.34,31679.4,34422.1,-1.3382,-1.4214,146.2,96.1,0.557
39.36,31813.6,34544.4,-0.7792,-1.1203,146.2,96.1,0.557
39.38,31875.4,34834.9,-0.5216,-0.4054,146.2,96.1,0.557
39.4,32056.5,35159.5,0.2328,0.3935,146.2,96.1,0.557
39.42,32221.6,35510.3,0.9204,1.2568,146.2,96.1,0.557
39.44,32377.2,35704.5,1.5689,1.7347,146.2,96.1,0.557
39.46,32268.4,35676.2,1.1154,1.6651,146.2,96.1,0.557
39.48,32332.2,35649.8,1.3815,1.6002,146.2,96.1,0.557
39.5,32142.5,35406.3,0.591,1.0009,146.2,96.1,0.557
39.52,32040.2,35203.9,0.1646,0.5028,146.2,96.1,0.557
39.54,32090.2,35041.9,0.373,0.104,146.2,96.1,0.557
39.56,32124.6,35050.4,0.5166,0.1251,146.2,96.1,0.557
39.58,31911.7,34908.2,-0.3706,-0.2251,146.2,96.1,0.557
39.6,31917.1,34904.5,-0.348,-0.234,146.2,96.1,0.557
39.62,31889.6,34764.5,-0.4628,-0.5786,146.2,96.1,0.557
39.64,31821.3,34730.9,-0.7471,-0.6614,146.2,96.1,0.557
39.66,31822.5,34729.1,-0.7424,-0.6658,146.2,96.1,0.557
39.68,31818.1,34645.4,-0.7605,-0.8719,146.2,96.1,0.557
39.7,31832.0,34679.7,-0.7025,-0.7873,146.2,96.1,0.557
39.72,31766.0,34531.3,-0.9775,-1.1526,146.2,96.1,0.557
39.74,31731.1,34425.4,-1.123,-1.4132,146.2,96.1,0.557
39.76,31757.2,34551.8,-1.0144,-1.1021,146.2,96.1,0.557
39.78,31782.8,34708.1,-0.9076,-0.7174,146.2,96.1,0.557
39.8,32025.6,35006.6,0.1038,0.0173,146.2,96.1,0.557
39.82,32288.2,35403.0,1.1981,0.9928,146.2,96.1,0.557
39.84,32364.6,35692.8,1.5164,1.706,146.2,96.1,0.557
39.86,32307.0,35866.2,1.2762,2.1327,146.2,96.1,0.557
39.88,32334.1,35654.0,1.3891,1.6105,146.2,96.1,0.557
39.9,32256.1,35475.7,1.0643,1.1718,146.2,96.1,0.557
39.92,32221.6,35177.2,0.9204,0.437,146.2,96.1,0.557
39.94,32045.7,35115.4,0.1878,0.2849,146.2,96.1,0.557
39.96,32020.2,35035.3,0.0815,0.0877,146.2,96.1,0.557
39.98,32040.5,35021.4,0.1659,0.0536,146.2,96.1,0.557
40.0,31945.4,34903.2,-0.2302,-0.2372,146.2,96.1,0.557
40.02,31874.0,34850.8,-0.5278,-0.3663,146.2,96.1,0.557
40.04,31980.4,34711.3,-0.0845,-0.7096,146.2,96.1,0.557
40.06,31868.3,34612.1,-0.5514,-0.9537,146.2,96.1,0.557
40.08,31812.9,34715.7,-0.7822,-0.6987,146.2,96.1,0.557
40.1,31840.9,34680.5,-0.6654,-0.7854,146.2,96.1,0.557
40.12,31717.7,34622.5,-1.179,-0.9282,146.2,96.1,0.557
40.14,31764.5,34485.5,-0.9838,-1.2653,146.2,96.1,0.557
40.16,31627.8,34484.7,-1.5534,-1.2673,146.2,96.1,0.557
40.18,31681.7,34462.7,-1.329,-1.3214,146.2,96.1,0.557
40.2,31878.0,34811.7,-0.5109,-0.4624,146.2,96.1,0.557
40.22,31977.9,35241.5,-0.0947,0.5954,146.2,96.1,0.557
40.24,32263.9,35574.0,1.0969,1.4136,146.2,96.1,0.557
40.26,32381.9,35693.4,1.5883,1.7075,146.2,96.1,0.557
40.28,32427.6,35733.9,1.7786,1.8072,146.2,96.1,0.557
40.3,32272.5,35514.6,1.1325,1.2675,146.2,96.1,0.557
40.32,32254.3,35370.5,1.0567,0.9129,146.2,96.1,0.557
40.34,32195.2,35135.1,0.8106,0.3334,146.2,96.1,0.557
40.36,32077.5,35200.1,0.32,0.4933,146.2,96.1,0.557
40.38,32081.3,35082.0,0.3361,0.2028,146.2,96.1,0.557
40.4,31982.7,35066.4,-0.0749,0.1644,146.2,96.1,0.557
40.42,31958.8,34921.1,-0.1744,-0.1933,146.2,96.1,0.557
40.44,31888.7,34740.8,-0.4663,-0.637,146.2,96.1,0.557
40.46,31884.6,34657.8,-0.4833,-0.8413,146.2,96.1,0.557
40.48,31848.4,34724.6,-0.6345,-0.6769,146.2,96.1,0.557
40.5,31890.6,34652.3,-0.4583,-0.8547,146.2,96.1,0.557
40.52,31825.4,34684.0,-0.7299,-0.7768,146.2,96.1,0.557
40.54,31805.0,34562.6,-0.8151,-1.0756,146.2,96.1,0.557
40.56,31746.6,34465.0,-1.0584,-1.3159,146.2,96.1,0.557
40.58,31788.4,34495.3,-0.8842,-1.2412,146.2,96.1,0.557
40.6,31781.0,34653.8,-0.9149,-0.8511,146.2,96.1,0.557
40.62,31982.2,34937.2,-0.0767,-0.1536,146.2,96.1,0.557
40.64,32185.0,35396.7,0.768,0.9772,146.2,96.1,0.557
40.66,32309.6,35716.9,1.287,1.7655,146.2,96.1,0.557
40.68,32443.7,35823.1,1.846,2.0267,146.2,96.1,0.557
40.7,32416.3,35715.1,1.7316,1.7609,146.2,96.1,0.557
40.72,32343.6,35423.8,1.4289,1.044,146.2,96.1,0.557
40.74,32180.2,35233.0,0.748,0.5745,146.2,96.1,0.557
40.76,32058.1,35222.7,0.2396,0.5491,146.2,96.1,0.557
40.78,32023.3,35072.3,0.0944,0.1789,146.2,96.1,0.557
40.8,31951.0,35038.0,-0.2068,0.0946,146.2,96.1,0.557
40.82,31977.9,35038.1,-0.095,0.0948,146.2,96.1,0.557
40.84,31940.0,34934.0,-0.2529,-0.1616,146.2,96.1,0.557
40.86,31864.0,34772.3,-0.5695,-0.5594,146.2,96.1,0.557
40.88,31813.0,34750.2,-0.7818,-0.6138,146.2,96.1,0.557
40.9,31862.6,34673.8,-0.5752,-0.802,146.2,96.1,0.557
40.92,31764.6,34630.4,-0.9833,-0.9087,146.2,96.1,0.557
40.94,31780.2,34512.2,-0.9183,-1.1995,146.2,96.1,0.557
40.96,31820.1,34515.4,-0.7521,-1.1917,146.2,96.1,0.557
40.98,31806.8,34492.5,-0.8075,-1.2482,146.2,96.1,0.557
41.0,31809.5,34582.1,-0.7963,-1.0277,146.2,96.1,0.557
41.02,31873.4,34738.3,-0.5303,-0.6431,146.2,96.1,0.557
41.04,32220.2,35213.9,0.9147,0.5274,146.2,96.1,0.557
41.06,32242.8,35514.2,1.0089,1.2664,146.2,96.1,0.557
41.08,32326.7,35770.9,1.3586,1.8982,146.2,96.1,0.557
41.1,32377.1,35740.9,1.5683,1.8244,146.2,96.1,0.557
41.12,32369.8,35570.3,1.5382,1.4046,146.2,96.1,0.557
41.14,32208.4,35387.5,0.8657,0.9546,146.2,96.1,0.557
41.16,32043.4,35197.7,0.1779,0.4876,146.2,96.1,0.557
41.18,32043.3,35145.9,0.1776,0.36,146.2,96.1,0.557
41.2,32120.2,35071.0,0.4981,0.1757,146.2,96.1,0.557
41.22,32031.3,35030.2,0.1278,0.0753,146.2,96.1,0.557
41.24,31946.8,34845.8,-0.2242,-0.3785,146.2,96.1,0.557
41.26,31942.3,34852.6,-0.2429,-0.3619,146.2,96.1,0.557
41.28,31826.6,34712.4,-0.7253,-0.7069,146.2,96.1,0.557
41.3,31894.1,34562.6,-0.4441,-1.0757,146.2,96.1,0.557
41.32,31858.3,34671.1,-0.5931,-0.8085,146.2,96.1,0.557
41.34,31806.2,34606.5,-0.8103,-0.9675,146.2,96.1,0.557
41.36,31792.1,34583.7,-0.8687,-1.0236,146.2,96.1,0.557
41.38,31750.3,34436.8,-1.0429,-1.3853,146.2,96.1,0.557
41.4,31771.2,34512.9,-0.9559,-1.198,146.2,96.1,0.557
41.42,31788.9,34646.3,-0.8822,-0.8696,146.2,96.1,0.557
41.44,31937.6,35000.5,-0.2627,0.0021,146.2,96.1,0.557
41.46,32218.4,35372.8,0.9073,0.9185,146.2,96.1,0.557
41.48,32328.5,35625.2,1.3658,1.5396,146.2,96.1,0.557
41.5,32312.5,35780.8,1.2995,1.9226,146.2,96.1,0.557
41.52,32457.1,35656.4,1.9017,1.6165,146.2,96.1,0.557
41.54,32260.7,35493.4,1.0833,1.2152,146.2,96.1,0.557
41.56,32083.3,35294.4,0.3442,0.7256,146.2,96.1,0.557
41.58,32098.4,35173.0,0.4073,0.4267,146.2,96.1,0.557
41.6,32062.7,35113.1,0.2587,0.2794,146.2,96.1,0.557
41.62,32078.5,35003.8,0.3244,0.0103,146.2,96.1,0.557
41.64,31957.4,34975.1,-0.1803,-0.0605,146.2,96.1,0.557
41.66,31981.3,34787.3,-0.0807,-0.5225,146.2,96.1,0.557
41.68,31877.6,34683.5,-0.5127,-0.7781,146.2,96.1,0.557
41.7,31926.4,34708.7,-0.3095,-0.716,146.2,96.1,0.557
41.72,31843.9,34638.1,-0.653,-0.8898,146.2,96.1,0.557
41.74,31824.3,34635.4,-0.7348,-0.8963,146.2,96.1,0.557
41.76,31820.5,34551.4,-0.7504,-1.1032,146.2,96.1,0.557
41.78,31682.7,34457.7,-1.3247,-1.3338,146.2,96.1,0.557
41.8,31715.9,34416.6,-1.1865,-1.4349,146.2,96.1,0.557
41.82,31757.0,34566.2,-1.0152,-1.0667,146.2,96.1,0.557
41.84,31852.9,34746.9,-0.6157,-0.622,146.2,96.1,0.557
41.86,31998.8,35194.2,-0.0076,0.4789,146.2,96.1,0.557
41.88,32285.4,35462.2,1.1863,1.1386,146.2,96.1,0.557
41.9,32461.5,35709.6,1.9202,1.7475,146.2,96.1,0.557
41.92,32418.7,35769.5,1.7419,1.8949,146.2,96.1,0.557
41.94,32347.3,35568.0,1.444,1.3988,146.2,96.1,0.557
41.96,32153.3,35389.1,0.6361,0.9585,146.2,96.1,0.557
41.98,32114.3,35240.8,0.4734,0.5935,146.2,96.1,0.557
42.0,32006.2,35147.2,0.0231,0.3632,146.2,96.1,0.557
42.02,31992.9,35131.3,-0.0324,0.3241,146.2,96.1,0.557
42.04,31977.7,35025.9,-0.0958,0.0647,146.2,96.1,0.557
42.06,31949.4,34944.4,-0.2135,-0.136,146.2,96.1,0.557
42.08,31923.0,34888.8,-0.3233,-0.2728,146.2,96.1,0.557
42.1,31776.1,34675.4,-0.9354,-0.798,146.2,96.1,0.557
42.12,31782.9,34578.4,-0.907,-1.0366,146.2,96.1,0.557
42.14,31818.4,34677.3,-0.7592,-0.7932,146.2,96.1,0.557
42.16,31788.6,34674.8,-0.8835,-0.7995,146.2,96.1,0.557
42.18,31714.6,34507.2,-1.1919,-1.212,146.2,96.1,0.557
42.2,31659.9,34547.7,-1.4196,-1.1122,146.2,96.1,0.557
42.22,31862.3,34451.1,-0.5764,-1.35,146.2,96.1,0.557
42.24,31853.1,34623.3,-0.6149,-0.9262,146.2,96.1,0.557
42.26,32063.9,34969.8,0.2636,-0.0734,146.2,96.1,0.557
42.28,32214.0,35286.2,0.889,0.7055,146.2,96.1,0.557
42.3,32338.7,35647.2,1.4085,1.5939,146.2,96.1,0.557
42.32,32259.9,35836.7,1.0801,2.0603,146.2,96.1,0.557
42.34,32443.5,35592.1,1.8449,1.4581,146.2,96.1,0.557
42.36,32339.3,35537.0,1.4108,1.3225,146.2,96.1,0.557
42.38,32214.4,35269.1,0.8906,0.6633,146.2,96.1,0.557
42.4,32063.1,35188.7,0.2601,0.4654,146.2,96.1,0.557
42.42,32007.3,35050.5,0.0278,0.1252,146.2,96.1,0.557
42.44,32040.2,35037.0,0.1648,0.092,146.2,96.1,0.557
42.46,31993.3,35061.0,-0.0308,0.1511,146.2,96.1,0.557
42.48,31881.7,34792.1,-0.4956,-0.5107,146.2,96.1,0.557
42.5,31801.4,34666.2,-0.8299,-0.8205,146.2,96.1,0.557
42.52,31833.1,34704.8,-0.6979,-0.7256,146.2,96.1,0.557
42.54,31779.0,34742.4,-0.9235,-0.633,146.2,96.1,0.557
42.56,31819.1,34657.4,-0.7563,-0.8422,146.2,96.1,0.557
42.58,31845.7,34566.3,-0.6456,-1.0665,146.2,96.1,0.557
42.6,31729.1,34476.1,-1.1313,-1.2884,146.2,96.1,0.557
42.62,31653.3,34538.3,-1.447,-1.1355,146.2,96.1,0.557
42.64,31757.3,34466.1,-1.0137,-1.313,146.2,96.1,0.557
42.66,31908.5,34723.5,-0.3841,-0.6795,146.2,96.1,0.557
42.68,32009.3,35095.4,0.0361,0.2358,146.2,96.1,0.557
42.7,32261.4,35583.9,1.0862,1.4379,146.2,96.1,0.557
42.72,32381.1,35764.4,1.5849,1.8822,146.2,96.1,0.557
42.74,32448.3,35835.5,1.8652,2.0573,146.2,96.1,0.557
42.76,32345.8,35551.2,1.4378,1.3575,146.2,96.1,0.557
42.78,32218.1,35423.3,0.906,1.0429,146.2,96.1,0.557
42.8,32048.6,35239.1,0.1996,0.5895,146.2,96.1,0.557
42.82,32005.4,35252.6,0.0197,0.6226,146.2,96.1,0.557
42.84,32104.0,35061.2,0.4306,0.1515,146.2,96.1,0.557
42.86,32047.9,35120.4,0.197,0.2973,146.2,96.1,0.557
42.88,31964.1,34885.1,-0.1524,-0.2817,146.2,96.1,0.557
42.9,31968.3,34740.8,-0.1349,-0.6371,146.2,96.1,0.557
42.92,31867.4,34713.6,-0.5552,-0.7038,146.2,96.1,0.557
42.94,31855.2,34667.4,-0.606,-0.8177,146.2,96.1,0.557
42.96,31772.8,34632.4,-0.9493,-0.9039,146.2,96.1,0.557
42.98,31849.5,34674.9,-0.6298,-0.7991,146.2,96.1,0.557
43.0,31741.4,34576.8,-1.0802,-1.0405,146.2,96.1,0.557
43.02,31781.6,34428.6,-0.9124,-1.4054,146.2,96.1,0.557
43.04,31733.2,34436.4,-1.1142,-1.3862,146.2,96.1,0.557
43.06,31847.8,34603.1,-0.6369,-0.9758,146.2,96.1,0.557
43.08,31941.2,34922.5,-0.2476,-0.1897,146.2,96.1,0.557
43.1,32121.6,35404.3,0.5038,0.9961,146.2,96.1,0.557
43.12,32352.0,35601.2,1.4638,1.4805,146.2,96.1,0.557
43.14,32369.4,35764.7,1.5365,1.8831,146.2,96.1,0.557
43.16,32312.4,35707.0,1.2987,1.7411,146.2,96.1,0.557
43.18,32281.6,35507.2,1.1707,1.2491,146.2,96.1,0.557
43.2,32177.8,35205.7,0.7381,0.5071,146.2,96.1,0.557
43.22,32087.3,35173.0,0.361,0.4267,146.2,96.1,0.557
43.24,32092.3,35092.7,0.382,0.2291,146.2,96.1,0.557
43.26,31975.7,35085.0,-0.1039,0.2101,146.2,96.1,0.557
43.28,31962.4,34927.0,-0.1595,-0.1788,146.2,96.1,0.557
43.3,31982.4,34852.1,-0.0761,-0.3629,146.2,96.1,0.557
43.32,31915.8,34709.2,-0.3535,-0.7147,146.2,96.1,0.557
43.34,31826.4,34692.4,-0.726,-0.7561,146.2,96.1,0.557
43.36,31822.8,34691.5,-0.7409,-0.7584,146.2,96.1,0.557
43.38,31788.5,34675.0,-0.8837,-0.7989,146.2,96.1,0.557
43.4,31815.4,34617.5,-0.7718,-0.9405,146.2,96.1,0.557
43.42,31864.3,34413.7,-0.5682,-1.442,146.2,96.1,0.557
43.44,31688.7,34477.5,-1.2995,-1.2849,146.2,96.1,0.557
43.46,31693.1,34545.5,-1.2814,-1.1178,146.2,96.1,0.557
43.48,31791.4,34712.7,-0.8717,-0.7061,146.2,96.1,0.557
43.5,32053.8,35140.9,0.2213,0.3478,146.2,96.1,0.557
43.52,32194.6,35549.9,0.8079,1.3545,146.2,96.1,0.557
43.54,32269.3,35775.8,1.1192,1.9102,146.2,96.1,0.557
43.56,32312.8,35748.8,1.3007,1.8438,146.2,96.1,0.557
43.58,32410.0,35646.2,1.7053,1.5913,146.2,96.1,0.557
43.6,32092.9,35387.5,0.3843,0.9546,146.2,96.1,0.557
43.62,32077.6,35240.9,0.3204,0.5938,146.2,96.1,0.557
43.64,32117.9,35171.3,0.4887,0.4225,146.2,96.1,0.557
43.66,32015.8,35148.1,0.0632,0.3655,146.2,96.1,0.557
43.68,31975.8,35028.7,-0.1037,0.0716,146.2,96.1,0.557
43.7,31972.3,34922.9,-0.118,-0.1887,146.2,96.1,0.557
43.72,31883.9,34808.1,-0.4864,-0.4713,146.2,96.1,0.557
43.74,31773.5,34726.3,-0.9461,-0.6727,146.2,96.1,0.557
43.76,31805.5,34712.3,-0.8129,-0.7072,146.2,96.1,0.557
43.78,31846.3,34752.8,-0.6429,-0.6075,146.2,96.1,0.557
43.8,31876.0,34584.7,-0.5193,-1.0212,146.2,96.1,0.557
43.82,31903.7,34567.6,-0.4038,-1.0632,146.2,96.1,0.557
43.84,31782.9,34406.6,-0.9071,-1.4595,146.2,96.1,0.557
43.86,31731.2,34379.4,-1.1228,-1.5265,146.2,96.1,0.557
43.88,31727.6,34687.8,-1.1375,-0.7674,146.2,96.1,0.557
43.9,31984.8,34932.2,-0.066,-0.166,146.2,96.1,0.557
43.92,32122.6,35321.6,0.5082,0.7925,146.2,96.1,0.557
43.94,32268.9,35627.5,1.1174,1.5452,146.2,96.1,0.557
43.96,32325.9,35680.7,1.3552,1.6762,146.2,96.1,0.557
43.98,32375.7,35606.2,1.5627,1.4928,146.2,96.1,0.557
44.0,32240.8,35617.4,1.0005,1.5204,146.2,96.1,0.557
44.02,32180.8,35350.9,0.7508,0.8645,146.2,96.1,0.557
44.04,32095.0,35244.9,0.393,0.6037,146.2,96.1,0.557
44.06,32013.0,35119.9,0.0515,0.2961,146.2,96.1,0.557
44.08,31910.9,35115.3,-0.3739,0.2848,146.2,96.1,0.557
44.1,32057.7,34900.1,0.2379,-0.245,146.2,96.1,0.557
44.12,31949.7,34964.7,-0.2121,-0.0858,146.2,96.1,0.557
44.14,31949.2,34745.4,-0.2145,-0.6256,146.2,96.1,0.557
44.16,31887.4,34639.2,-0.4716,-0.887,146.2,96.1,0.557
44.18,31841.6,34675.9,-0.6628,-0.7967,146.2,96.1,0.557
44.2,31850.0,34701.3,-0.6276,-0.7341,146.2,96.1,0.557
44.22,31852.8,34705.2,-0.6159,-0.7245,146.2,96.1,0.557
44.24,31720.6,34605.4,-1.1667,-0.9702,146.2,96.1,0.557
44.26,31790.9,34411.4,-0.8737,-1.4477,146.2,96.1,0.557
44.28,31731.4,34501.8,-1.1217,-1.2253,146.2,96.1,0.557
44.3,31885.6,34720.7,-0.4794,-0.6865,146.2,96.1,0.557
44.32,31936.6,35114.2,-0.2666,0.2819,146.2,96.1,0.557
44.34,32269.6,35431.0,1.1204,1.0618,146.2,96.1,0.557
44.36,32347.2,35607.6,1.4438,1.4964,146.2,96.1,0.557
44.38,32425.2,35777.0,1.7689,1.9134,146.2,96.1,0.557
44.4,32301.2,35593.9,1.2523,1.4626,146.2,96.1,0.557
44.42,32243.1,35422.8,1.0102,1.0415,146.2,96.1,0.557
44.44,32062.0,35299.7,0.2557,0.7385,146.2,96.1,0.557
44.46,32037.7,35160.8,0.1542,0.3968,146.2,96.1,0.557
44.48,31982.8,35129.7,-0.0743,0.3202,146.2,96.1,0.557
44.5,32080.9,35011.3,0.3344,0.0288,146.2,96.1,0.557
44.52,31927.5,34897.5,-0.3046,-0.2512,146.2,96.1,0.557
44.54,31905.9,34851.0,-0.3945,-0.3657,146.2,96.1,0.557
44.56,31868.8,34765.5,-0.5494,-0.5762,146.2,96.1,0.557
44.58,31893.9,34802.8,-0.4449,-0.4844,146.2,96.1,0.557
44.6,31707.5,34598.7,-1.2211,-0.9868,146.2,96.1,0.557
44.62,31868.0,34685.2,-0.5527,-0.7739,146.2,96.1,0.557
44.64,31693.7,34613.6,-1.2789,-0.9502,146.2,96.1,0.557
44.66,31704.0,34505.9,-1.2359,-1.2151,146.2,96.1,0.557
44.68,31752.8,34477.4,-1.0325,-1.2852,146.2,96.1,0.557
44.7,31796.6,34637.0,-0.8502,-0.8925,146.2,96.1,0.557
44.72,31915.9,34947.3,-0.353,-0.1289,146.2,96.1,0.557
44.74,32149.4,35288.3,0.6196,0.7106,146.2,96.1,0.557
44.76,32296.9,35474.4,1.2341,1.1685,146.2,96.1,0.557
44.78,32403.4,35750.0,1.6781,1.8467,146.2,96.1,0.557
44.8,32355.3,35778.5,1.4776,1.917,146.2,96.1,0.557
44.82,32212.5,35548.5,0.8826,1.351,146.2,96.1,0.557
44.84,32170.1,35263.8,0.7062,0.6503,146.2,96.1,0.557
44.86,32117.9,35228.6,0.4885,0.5636,146.2,96.1,0.557
