timestamp,raw_red,raw_ir,filtered_red,filtered_ir,heart_rate,spo2,ac_dc_ratio
0.0,32087.4,35116.5,0.4854,0.2855,141.8,98.4,0.465
0.02,32192.6,35416.3,1.0704,1.0223,141.8,98.4,0.465
0.04,32306.2,35786.6,1.702,1.9325,141.8,98.4,0.465
0.06,32298.3,35827.5,1.6578,2.0331,141.8,98.4,0.465
0.08,32151.4,35555.8,0.841,1.3653,141.8,98.4,0.465
0.1,32224.8,35390.0,1.2492,0.9577,141.8,98.4,0.465
0.12,32031.6,35257.4,0.1751,0.6319,141.8,98.4,0.465
0.14,32085.0,35178.6,0.4721,0.4382,141.8,98.4,0.465
0.16,31996.1,35090.0,-0.0224,0.2204,141.8,98.4,0.465
0.18,32056.1,34963.2,0.311,-0.0911,141.8,98.4,0.465
0.2,31998.9,34965.4,-0.0066,-0.0859,141.8,98.4,0.465
0.22,31872.2,34810.9,-0.7113,-0.4656,141.8,98.4,0.465
0.24,31974.2,34699.0,-0.1443,-0.7406,141.8,98.4,0.465
0.26,31836.3,34745.7,-0.9107,-0.6257,141.8,98.4,0.465
0.28,31864.8,34679.2,-0.7523,-0.7893,141.8,98.4,0.465
0.3,31762.3,34631.0,-1.3227,-0.9077,141.8,98.4,0.465
0.32,31888.6,34624.1,-0.6201,-0.9247,141.8,98.4,0.465
0.34,31676.3,34480.8,-1.8004,-1.2769,141.8,98.4,0.465
0.36,31740.7,34505.0,-1.4427,-1.2174,141.8,98.4,0.465
0.38,31805.1,34545.8,-1.0844,-1.1171,141.8,98.4,0.465
0.4,31894.3,34750.3,-0.5884,-0.6144,141.8,98.4,0.465
0.42,32102.3,35172.8,0.5684,0.424,141.8,98.4,0.465
0.44,32171.0,35491.7,0.9502,1.2078,141.8,98.4,0.465
0.46,32344.9,35782.9,1.9174,1.9234,141.8,98.4,0.465
0.48,32368.0,35779.7,2.0457,1.9157,141.8,98.4,0.465
0.5,32293.3,35624.5,1.6305,1.534,141.8,98.4,0.465
0.52,32195.4,35456.7,1.0859,1.1217,141.8,98.4,0.465
0.54,32121.3,35256.0,0.6739,0.6284,141.8,98.4,0.465
0.56,32024.9,35128.8,0.1379,0.3157,141.8,98.4,0.465
0.58,32034.6,35089.3,0.1916,0.2187,141.8,98.4,0.465
0.6,31971.1,35079.8,-0.1616,0.1954,141.8,98.4,0.465
0.62,32057.3,35091.8,0.3182,0.2248,141.8,98.4,0.465
0.64,31853.8,34851.8,-0.8134,-0.3649,141.8,98.4,0.465
0.66,31968.1,34668.6,-0.1782,-0.8153,141.8,98.4,0.465
0.68,31838.4,34700.7,-0.8993,-0.7363,141.8,98.4,0.465
0.7,31895.5,34712.2,-0.5819,-0.7082,141.8,98.4,0.465
0.72,31848.6,34637.5,-0.8423,-0.8918,141.8,98.4,0.465
0.74,31768.6,34622.3,-1.2872,-0.9292,141.8,98.4,0.465
0.76,31855.3,34559.5,-0.8055,-1.0835,141.8,98.4,0.465
0.78,31762.3,34416.9,-1.3223,-1.4339,141.8,98.4,0.465
0.8,31844.0,34498.8,-0.868,-1.2327,141.8,98.4,0.465
0.82,31942.4,34747.4,-0.3211,-0.6215,141.8,98.4,0.465
0.84,32083.7,35087.6,0.4648,0.2144,141.8,98.4,0.465
0.86,32225.4,35361.4,1.2525,0.8875,141.8,98.4,0.465
0.88,32235.6,35721.3,1.3092,1.7719,141.8,98.4,0.465
0.9,32371.8,35811.3,2.0665,1.9933,141.8,98.4,0.465
0.92,32220.9,35652.1,1.2277,1.602,141.8,98.4,0.465
0.94,32201.7,35418.0,1.1208,1.0266,141.8,98.4,0.465
0.96,32115.3,35305.4,0.6404,0.7498,141.8,98.4,0.465
0.98,32105.2,35217.7,0.5841,0.5344,141.8,98.4,0.465
1.0,32154.3,35181.8,0.8572,0.4459,141.8,98.4,0.465
1.02,32047.1,34978.6,0.2612,-0.0534,141.8,98.4,0.465
1.04,32003.4,35018.8,0.0184,0.0455,141.8,98.4,0.465
1.06,31998.0,34855.3,-0.0116,-0.3563,141.8,98.4,0.465
1.08,31882.2,34746.1,-0.6559,-0.6248,141.8,98.4,0.465
1.1,31883.2,34733.0,-0.6499,-0.657,141.8,98.4,0.465
1.12,31863.3,34623.4,-0.7606,-0.9263,141.8,98.4,0.465
1.14,31823.7,34636.5,-0.9812,-0.8941,141.8,98.4,0.465
1.16,31946.8,34645.2,-0.2965,-0.8728,141.8,98.4,0.465
1.18,31903.3,34451.6,-0.5383,-1.3486,141.8,98.4,0.465
1.2,31850.1,34538.3,-0.8341,-1.1356,141.8,98.4,0.465
1.22,31734.6,34557.2,-1.4766,-1.089,141.8,98.4,0.465
1.24,31843.9,34619.9,-0.8687,-0.9349,141.8,98.4,0.465
1.26,31990.5,34978.2,-0.0534,-0.0542,141.8,98.4,0.465
1.28,32187.1,35297.9,1.0399,0.7314,141.8,98.4,0.465
1.3,32344.7,35651.5,1.9158,1.6006,141.8,98.4,0.465
1.32,32358.8,35650.9,1.9945,1.5989,141.8,98.4,0.465
1.34,32303.7,35641.0,1.688,1.5747,141.8,98.4,0.465
1.36,32102.7,35395.0,0.5707,0.9701,141.8,98.4,0.465
1.38,32087.1,35268.8,0.4836,0.6598,141.8,98.4,0.465
1.4,32101.4,35221.1,0.5633,0.5426,141.8,98.4,0.465
1.42,32116.3,35099.3,0.6458,0.2432,141.8,98.4,0.465
1.44,32080.7,35074.7,0.448,0.1829,141.8,98.4,0.465
1.46,32000.4,35015.6,0.0018,0.0376,141.8,98.4,0.465
1.48,32026.4,34866.1,0.1464,-0.3299,141.8,98.4,0.465
1.5,31801.3,34804.8,-1.1054,-0.4806,141.8,98.4,0.465
1.52,31837.0,34656.3,-0.9069,-0.8456,141.8,98.4,0.465
1.54,31876.1,34699.7,-0.6897,-0.7389,141.8,98.4,0.465
1.56,31796.6,34738.6,-1.1315,-0.6434,141.8,98.4,0.465
1.58,31788.7,34664.2,-1.1755,-0.8261,141.8,98.4,0.465
1.6,31814.2,34565.1,-1.0337,-1.0697,141.8,98.4,0.465
1.62,31856.8,34563.0,-0.7967,-1.0747,141.8,98.4,0.465
1.64,31770.4,34492.1,-1.2772,-1.249,141.8,98.4,0.465
1.66,31824.6,34647.6,-0.9759,-0.8669,141.8,98.4,0.465
1.68,31906.3,34852.7,-0.5219,-0.3629,141.8,98.4,0.465
1.7,32088.0,35300.9,0.4886,0.7388,141.8,98.4,0.465
1.72,32231.2,35583.5,1.285,1.4333,141.8,98.4,0.465
1.74,32320.2,35765.8,1.78,1.8814,141.8,98.4,0.465
1.76,32277.4,35759.8,1.542,1.8667,141.8,98.4,0.465
1.78,32173.8,35584.3,0.9659,1.4353,141.8,98.4,0.465
1.8,32032.2,35335.5,0.1782,0.8239,141.8,98.4,0.465
1.82,32122.4,35161.3,0.6801,0.3956,141.8,98.4,0.465
1.84,31979.0,35085.5,-0.1176,0.2093,141.8,98.4,0.465
1.86,32025.1,35100.1,0.1386,0.2451,141.8,98.4,0.465
1.88,32043.6,34946.0,0.2415,-0.1334,141.8,98.4,0.465
1.9,31930.9,34862.7,-0.3848,-0.3381,141.8,98.4,0.465
1.92,31897.9,34755.6,-0.5682,-0.6016,141.8,98.4,0.465
1.94,31904.1,34707.6,-0.5341,-0.7195,141.8,98.4,0.465
1.96,31875.9,34641.1,-0.691,-0.8829,141.8,98.4,0.465
1.98,31893.4,34616.7,-0.5935,-0.9428,141.8,98.4,0.465
2.0,31852.5,34597.7,-0.8206,-0.9894,141.8,98.4,0.465
2.02,31810.1,34513.7,-1.0564,-1.1961,141.8,98.4,0.465
2.04,31771.0,34542.5,-1.2742,-1.1252,141.8,98.4,0.465
2.06,31820.0,34474.2,-1.0017,-1.2931,141.8,98.4,0.465
2.08,31826.3,34651.3,-0.9664,-0.8577,141.8,98.4,0.465
2.1,31948.4,34872.6,-0.2874,-0.3138,141.8,98.4,0.465
2.12,32151.0,35300.3,0.839,0.7374,141.8,98.4,0.465
2.14,32212.5,35655.7,1.1808,1.6109,141.8,98.4,0.465
2.16,32331.0,35724.9,1.8397,1.7808,141.8,98.4,0.465
2.18,32332.8,35746.0,1.8499,1.8328,141.8,98.4,0.465
2.2,32196.0,35513.2,1.0892,1.2604,141.8,98.4,0.465
2.22,32250.6,35380.4,1.3929,0.9343,141.8,98.4,0.465
2.24,32049.1,35095.7,0.2724,0.2344,141.8,98.4,0.465
2.26,32050.7,35154.6,0.2812,0.3792,141.8,98.4,0.465
2.28,32014.8,35017.5,0.0817,0.0422,141.8,98.4,0.465
2.3,32035.9,34988.2,0.1991,-0.0298,141.8,98.4,0.465
2.32,31970.5,34923.1,-0.1645,-0.1897,141.8,98.4,0.465
2.34,31880.8,34748.8,-0.6635,-0.6182,141.8,98.4,0.465
2.36,31864.5,34688.1,-0.7541,-0.7672,141.8,98.4,0.465
2.38,31910.8,34736.6,-0.4966,-0.6481,141.8,98.4,0.465
2.4,31925.9,34703.3,-0.4127,-0.73,141.8,98.4,0.465
2.42,31779.7,34671.5,-1.2255,-0.8082,141.8,98.4,0.465
2.44,31900.6,34519.0,-0.5535,-1.183,141.8,98.4,0.465
2.46,31820.8,34435.1,-0.9971,-1.3891,141.8,98.4,0.465
2.48,31767.4,34390.9,-1.2939,-1.4979,141.8,98.4,0.465
2.5,31741.2,34655.0,-1.4398,-0.8488,141.8,98.4,0.465
2.52,31974.0,34784.6,-0.1455,-0.5301,141.8,98.4,0.465
2.54,32091.2,35191.3,0.5065,0.4695,141.8,98.4,0.465
2.56,32234.1,35503.3,1.3009,1.2362,141.8,98.4,0.465
2.58,32319.9,35778.0,1.7779,1.9114,141.8,98.4,0.465
2.6,32325.1,35782.1,1.8071,1.9214,141.8,98.4,0.465
2.62,32231.8,35634.4,1.2882,1.5585,141.8,98.4,0.465
2.64,32191.9,35439.2,1.0663,1.0787,141.8,98.4,0.465
2.66,32183.2,35268.9,1.0178,0.6602,141.8,98.4,0.465
2.68,32089.0,35155.1,0.4941,0.3803,141.8,98.4,0.465
2.7,32087.4,34969.1,0.4853,-0.0768,141.8,98.4,0.465
2.72,32004.2,35028.5,0.0224,0.0692,141.8,98.4,0.465
2.74,31995.3,34919.6,-0.0266,-0.1985,141.8,98.4,0.465
2.76,31992.6,34877.6,-0.0418,-0.3015,141.8,98.4,0.465
2.78,31949.3,34739.7,-0.2824,-0.6406,141.8,98.4,0.465
2.8,31858.5,34702.9,-0.7876,-0.731,141.8,98.4,0.465
2.82,31845.5,34638.7,-0.8597,-0.8887,141.8,98.4,0.465
2.84,31882.9,34617.0,-0.652,-0.9421,141.8,98.4,0.465
2.86,31826.5,34579.5,-0.9655,-1.0342,141.8,98.4,0.465
2.88,31755.2,34467.8,-1.3621,-1.3089,141.8,98.4,0.465
2.9,31709.3,34443.1,-1.6172,-1.3695,141.8,98.4,0.465
2.92,31870.5,34446.0,-0.7209,-1.3623,141.8,98.4,0.465
2.94,31891.4,34726.8,-0.6045,-0.6722,141.8,98.4,0.465
2.96,32117.8,35081.0,0.6543,0.1982,141.8,98.4,0.465
2.98,32136.5,35349.7,0.7584,0.8587,141.8,98.4,0.465
3.0,32372.4,35669.2,2.0702,1.644,141.8,98.4,0.465
3.02,32275.7,35680.3,1.5325,1.6713,141.8,98.4,0.465
3.04,32331.2,35683.8,1.841,1.68,141.8,98.4,0.465
3.06,32173.6,35464.6,0.9648,1.1412,141.8,98.4,0.465
3.08,32101.9,35298.8,0.5661,0.7336,141.8,98.4,0.465
3.1,32016.9,35192.7,0.0935,0.4729,141.8,98.4,0.465
3.12,32040.2,35147.7,0.2228,0.3622,141.8,98.4,0.465
3.14,32014.4,35125.2,0.0796,0.3069,141.8,98.4,0.465
3.16,31968.0,34949.4,-0.1788,-0.125,141.8,98.4,0.465
3.18,31838.3,34901.9,-0.8998,-0.2419,141.8,98.4,0.465
3.2,31902.0,34812.7,-0.5456,-0.461,141.8,98.4,0.465
3.22,31829.1,34746.1,-0.951,-0.6248,141.8,98.4,0.465
3.24,31771.9,34623.5,-1.2689,-0.9262,141.8,98.4,0.465
3.26,31862.3,34615.4,-0.7662,-0.9461,141.8,98.4,0.465
3.28,31845.7,34619.1,-0.8588,-0.9368,141.8,98.4,0.465
3.3,31724.1,34538.3,-1.535,-1.1354,141.8,98.4,0.465
3.32,31711.5,34478.9,-1.6051,-1.2814,141.8,98.4,0.465
3.34,31793.8,34493.3,-1.1472,-1.246,141.8,98.4,0.465
3.36,31873.6,34782.3,-0.7032,-0.5359,141.8,98.4,0.465
3.38,32007.8,35122.5,0.0425,0.3003,141.8,98.4,0.465
3.4,32179.4,35546.0,0.9968,1.3411,141.8,98.4,0.465
3.42,32234.7,35615.3,1.3043,1.5115,141.8,98.4,0.465
3.44,32255.1,35753.8,1.4179,1.8518,141.8,98.4,0.465
3.46,32277.6,35656.0,1.5427,1.6116,141.8,98.4,0.465
3.48,32201.5,35446.1,1.1197,1.0956,141.8,98.4,0.465
3.5,32115.4,35354.1,0.6411,0.8696,141.8,98.4,0.465
3.52,32053.3,35167.8,0.2955,0.4118,141.8,98.4,0.465
3.54,32020.1,35124.6,0.1113,0.3056,141.8,98.4,0.465
3.56,32026.5,35017.5,0.1469,0.0423,141.8,98.4,0.465
3.58,31958.9,34956.9,-0.2295,-0.1068,141.8,98.4,0.465
3.6,31959.4,34843.8,-0.2267,-0.3846,141.8,98.4,0.465
3.62,31913.8,34784.0,-0.4802,-0.5315,141.8,98.4,0.465
3.64,31817.5,34667.8,-1.0155,-0.8174,141.8,98.4,0.465
3.66,31939.3,34642.5,-0.3384,-0.8794,141.8,98.4,0.465
3.68,31802.5,34704.8,-1.0986,-0.7262,141.8,98.4,0.465
3.7,31862.3,34574.8,-0.7665,-1.0459,141.8,98.4,0.465
3.72,31741.5,34446.8,-1.4382,-1.3604,141.8,98.4,0.465
3.74,31740.6,34519.1,-1.4432,-1.1828,141.8,98.4,0.465
3.76,31806.7,34435.4,-1.0755,-1.3883,141.8,98.4,0.465
3.78,31911.6,34638.5,-0.4923,-0.8891,141.8,98.4,0.465
3.8,31941.9,35046.9,-0.3237,0.1144,141.8,98.4,0.465
3.82,32203.2,35417.3,1.1295,1.0248,141.8,98.4,0.465
3.84,32275.4,35623.0,1.5305,1.5305,141.8,98.4,0.465
3.86,32316.6,35752.0,1.7596,1.8474,141.8,98.4,0.465
3.88,32272.1,35646.7,1.5121,1.5886,141.8,98.4,0.465
3.9,32244.1,35482.5,1.3567,1.185,141.8,98.4,0.465
3.92,32211.4,35352.5,1.1751,0.8657,141.8,98.4,0.465
3.94,32055.9,35185.8,0.3103,0.4559,141.8,98.4,0.465
3.96,32083.2,35159.8,0.4617,0.3919,141.8,98.4,0.465
3.98,32016.4,34976.9,0.0905,-0.0576,141.8,98.4,0.465
4.0,32006.7,34947.0,0.0366,-0.131,141.8,98.4,0.465
4.02,31916.8,34765.6,-0.4635,-0.5769,141.8,98.4,0.465
4.04,31879.8,34722.8,-0.6689,-0.682,141.8,98.4,0.465
4.06,31897.8,34797.8,-0.5687,-0.4978,141.8,98.4,0.465
4.08,31896.2,34631.4,-0.5781,-0.9068,141.8,98.4,0.465
4.1,31947.0,34699.9,-0.2952,-0.7384,141.8,98.4,0.465
4.12,31787.4,34620.7,-1.1828,-0.9331,141.8,98.4,0.465
4.14,31710.7,34490.3,-1.6092,-1.2534,141.8,98.4,0.465
4.16,31798.2,34554.0,-1.1226,-1.097,141.8,98.4,0.465
4.18,31710.6,34433.0,-1.6096,-1.3942,141.8,98.4,0.465
4.2,31864.6,34646.7,-0.7537,-0.8691,141.8,98.4,0.465
4.22,31932.8,34900.4,-0.3741,-0.2457,141.8,98.4,0.465
4.24,32132.4,35435.2,0.7353,1.0688,141.8,98.4,0.465
4.26,32301.2,35586.1,1.674,1.4398,141.8,98.4,0.465
4.28,32219.2,35752.6,1.2184,1.849,141.8,98.4,0.465
4.3,32353.3,35698.5,1.9637,1.7159,141.8,98.4,0.465
4.32,32203.7,35540.2,1.1322,1.327,141.8,98.4,0.465
4.34,32113.1,35314.8,0.6282,0.7728,141.8,98.4,0.465
4.36,32083.4,35271.6,0.4629,0.6669,141.8,98.4,0.465
4.38,32026.4,35059.1,0.1464,0.1445,141.8,98.4,0.465
4.4,32112.9,35018.8,0.6272,0.0455,141.8,98.4,0.465
4.42,32018.1,34929.1,0.1,-0.1751,141.8,98.4,0.465
4.44,31870.2,34829.9,-0.7224,-0.4189,141.8,98.4,0.465
4.46,31941.4,34753.2,-0.3267,-0.6074,141.8,98.4,0.465
4.48,31857.5,34728.8,-0.7932,-0.6674,141.8,98.4,0.465
4.5,31917.2,34711.5,-0.4613,-0.7099,141.8,98.4,0.465
4.52,31808.0,34665.9,-1.0681,-0.822,141.8,98.4,0.465
4.54,31793.5,34637.4,-1.1492,-0.892,141.8,98.4,0.465
4.56,31760.4,34566.4,-1.333,-1.0666,141.8,98.4,0.465
4.58,31739.1,34434.6,-1.4516,-1.3905,141.8,98.4,0.465
4.6,31797.1,34362.0,-1.1287,-1.5688,141.8,98.4,0.465
4.62,31757.6,34569.9,-1.3487,-1.058,141.8,98.4,0.465
4.64,31998.8,34988.6,-0.0074,-0.0288,141.8,98.4,0.465
4.66,32120.7,35249.3,0.6706,0.6121,141.8,98.4,0.465
4.68,32315.4,35516.8,1.7531,1.2694,141.8,98.4,0.465
4.7,32326.5,35714.1,1.8148,1.7544,141.8,98.4,0.465
4.72,32318.3,35747.0,1.7693,1.8353,141.8,98.4,0.465
4.74,32239.9,35604.9,1.3334,1.4859,141.8,98.4,0.465
4.76,32146.5,35407.4,0.8142,1.0006,141.8,98.4,0.465
4.78,32038.3,35222.7,0.212,0.5466,141.8,98.4,0.465
4.8,32001.1,35162.4,0.0055,0.3983,141.8,98.4,0.465
4.82,32029.5,35050.7,0.1632,0.1238,141.8,98.4,0.465
4.84,31962.6,35003.0,-0.2087,0.0065,141.8,98.4,0.465
4.86,32049.7,35034.5,0.2754,0.0839,141.8,98.4,0.465
4.88,31893.9,34765.1,-0.5904,-0.578,141.8,98.4,0.465
4.9,31906.5,34651.7,-0.5208,-0.8568,141.8,98.4,0.465
4.92,31937.9,34569.7,-0.346,-1.0585,141.8,98.4,0.465
4.94,31888.3,34612.4,-0.6217,-0.9535,141.8,98.4,0.465
4.96,31848.9,34623.4,-0.8407,-0.9264,141.8,98.4,0.465
4.98,31803.9,34603.8,-1.0911,-0.9746,141.8,98.4,0.465
5.0,31751.2,34505.6,-1.3839,-1.2158,141.8,98.4,0.465
5.02,31814.8,34310.0,-1.0303,-1.6966,141.8,98.4,0.465
5.04,31742.8,34570.1,-1.4307,-1.0575,141.8,98.4,0.465
5.06,31902.7,34892.9,-0.5419,-0.264,141.8,98.4,0.465
5.08,32125.1,35243.1,0.6949,0.5968,141.8,98.4,0.465
5.1,32236.3,35463.5,1.313,1.1384,141.8,98.4,0.465
5.12,32341.9,35713.4,1.9005,1.7525,141.8,98.4,0.465
5.14,32323.9,35763.1,1.8002,1.8748,141.8,98.4,0.465
5.16,32255.1,35571.6,1.418,1.404,141.8,98.4,0.465
5.18,32185.2,35471.1,1.029,1.157,141.8,98.4,0.465
5.2,32028.1,35252.3,0.1557,0.6193,141.8,98.4,0.465
5.22,32041.1,35125.7,0.2277,0.3082,141.8,98.4,0.465
5.24,32058.3,35129.8,0.3232,0.3182,141.8,98.4,0.465
5.26,31970.6,35050.0,-0.1641,0.1221,141.8,98.4,0.465
5.28,31925.2,34950.4,-0.4167,-0.1228,141.8,98.4,0.465
5.3,31942.7,34809.6,-0.3193,-0.4688,141.8,98.4,0.465
5.32,31917.0,34796.7,-0.4619,-0.5005,141.8,98.4,0.465
5.34,31859.1,34698.2,-0.784,-0.7425,141.8,98.4,0.465
5.36,31745.1,34746.2,-1.4183,-0.6245,141.8,98.4,0.465
5.38,31759.8,34625.8,-1.3364,-0.9204,141.8,98.4,0.465
5.4,31817.8,34504.2,-1.0141,-1.2193,141.8,98.4,0.465
5.42,31722.8,34495.1,-1.5421,-1.2417,141.8,98.4,0.465
5.44,31814.8,34497.2,-1.0303,-1.2364,141.8,98.4,0.465
5.46,31861.0,34585.8,-0.7735,-1.0188,141.8,98.4,0.465
5.48,31883.0,34813.8,-0.6514,-0.4585,141.8,98.4,0.465
5.5,32088.6,35048.9,0.4921,0.1194,141.8,98.4,0.465
5.52,32209.0,35431.8,1.1614,1.0604,141.8,98.4,0.465
5.54,32257.7,35689.4,1.4321,1.6936,141.8,98.4,0.465
5.56,32226.1,35776.1,1.2566,1.9067,141.8,98.4,0.465
5.58,32331.0,35620.9,1.84,1.5253,141.8,98.4,0.465
5.6,32176.4,35433.5,0.98,1.0647,141.8,98.4,0.465
5.62,32137.8,35261.9,0.7653,0.6429,141.8,98.4,0.465
5.64,31983.6,35186.7,-0.0921,0.458,141.8,98.4,0.465
5.66,32007.2,35073.4,0.0395,0.1796,141.8,98.4,0.465
5.68,32008.8,34998.0,0.0481,-0.0056,141.8,98.4,0.465
5.7,32073.7,34964.9,0.4092,-0.0872,141.8,98.4,0.465
5.72,32000.9,34824.6,0.0045,-0.432,141.8,98.4,0.465
5.74,31858.8,34733.9,-0.7861,-0.6548,141.8,98.4,0.465
5.76,31851.9,34633.6,-0.824,-0.9012,141.8,98.4,0.465
5.78,31860.6,34706.8,-0.7756,-0.7214,141.8,98.4,0.465
5.8,31930.4,34643.1,-0.3875,-0.878,141.8,98.4,0.465
5.82,31843.0,34613.2,-0.8734,-0.9515,141.8,98.4,0.465
5.84,31664.7,34514.7,-1.8652,-1.1936,141.8,98.4,0.465
5.86,31858.0,34454.1,-0.7902,-1.3425,141.8,98.4,0.465
5.88,31866.4,34493.0,-0.7435,-1.2468,141.8,98.4,0.465
5.9,31886.6,34843.5,-0.6313,-0.3854,141.8,98.4,0.465
5.92,32037.9,35090.9,0.2103,0.2227,141.8,98.4,0.465
5.94,32268.2,35453.4,1.4906,1.1136,141.8,98.4,0.465
5.96,32323.7,35652.8,1.7992,1.6037,141.8,98.4,0.465
5.98,32303.8,35735.2,1.6888,1.8062,141.8,98.4,0.465
6.0,32342.0,35672.5,1.901,1.652,141.8,98.4,0.465
6.02,32188.3,35462.0,1.0463,1.1347,141.8,98.4,0.465
6.04,32056.6,35295.6,0.3138,0.7257,141.8,98.4,0.465
6.06,32103.5,35164.4,0.5749,0.4033,141.8,98.4,0.465
6.08,32094.4,35130.1,0.5243,0.3191,141.8,98.4,0.465
6.1,31975.7,34990.0,-0.1356,-0.0253,141.8,98.4,0.465
6.12,32032.4,34966.9,0.1796,-0.0821,141.8,98.4,0.465
6.14,31970.7,34933.8,-0.1634,-0.1636,141.8,98.4,0.465
6.16,31900.1,34814.2,-0.556,-0.4574,141.8,98.4,0.465
6.18,31837.1,34635.5,-0.9066,-0.8966,141.8,98.4,0.465
6.2,31900.6,34717.2,-0.5535,-0.6959,141.8,98.4,0.465
6.22,31851.1,34621.8,-0.8284,-0.9304,141.8,98.4,0.465
6.24,31803.2,34741.6,-1.0951,-0.6358,141.8,98.4,0.465
6.26,31739.4,34490.8,-1.4498,-1.2523,141.8,98.4,0.465
6.28,31783.9,34496.6,-1.2021,-1.2379,141.8,98.4,0.465
6.3,31764.5,34458.6,-1.3102,-1.3315,141.8,98.4,0.465
6.32,31868.2,34665.4,-0.7336,-0.8231,141.8,98.4,0.465
6.34,32059.6,35004.3,0.3308,0.0097,141.8,98.4,0.465
6.36,32105.6,35412.7,0.5864,1.0134,141.8,98.4,0.465
6.38,32227.8,35627.4,1.2659,1.5412,141.8,98.4,0.465
6.4,32365.9,35778.9,2.0342,1.9135,141.8,98.4,0.465
6.42,32211.5,35701.1,1.1755,1.7225,141.8,98.4,0.465
6.44,32249.0,35437.8,1.3839,1.0752,141.8,98.4,0.465
6.46,32185.1,35248.5,1.0285,0.6101,141.8,98.4,0.465
6.48,32113.0,35160.8,0.6279,0.3944,141.8,98.4,0.465
6.5,32032.6,35138.6,0.1804,0.3399,141.8,98.4,0.465
6.52,32012.6,35201.0,0.0691,0.4933,141.8,98.4,0.465
6.54,31993.2,34951.6,-0.0385,-0.1197,141.8,98.4,0.465
6.56,31914.6,34908.0,-0.4754,-0.2268,141.8,98.4,0.465
6.58,31947.1,34791.5,-0.2947,-0.5132,141.8,98.4,0.465
6.6,31866.8,34737.5,-0.7413,-0.6458,141.8,98.4,0.465
6.62,31906.3,34680.4,-0.5218,-0.7864,141.8,98.4,0.465
6.64,31733.1,34660.2,-1.4846,-0.8359,141.8,98.4,0.465
6.66,31833.0,34630.2,-0.9292,-0.9096,141.8,98.4,0.465
6.68,31840.3,34647.7,-0.8884,-0.8667,141.8,98.4,0.465
6.7,31779.6,34484.7,-1.2261,-1.2672,141.8,98.4,0.465
6.72,31866.1,34408.4,-0.7455,-1.4548,141.8,98.4,0.465
6.74,31815.8,34610.9,-1.0251,-0.9571,141.8,98.4,0.465
6.76,31960.4,34874.9,-0.2211,-0.3083,141.8,98.4,0.465
6.78,32026.0,35328.2,0.1437,0.8059,141.8,98.4,0.465
6.8,32287.0,35729.2,1.5952,1.7914,141.8,98.4,0.465
6.82,32255.4,35749.4,1.4195,1.841,141.8,98.4,0.465
6.84,32241.8,35756.5,1.3438,1.8586,141.8,98.4,0.465
6.86,32201.7,35510.5,1.1211,1.2538,141.8,98.4,0.465
6.88,32214.6,35284.6,1.1927,0.6988,141.8,98.4,0.465
6.9,32059.3,35237.9,0.329,0.5839,141.8,98.4,0.465
6.92,32086.5,35131.2,0.4805,0.3218,141.8,98.4,0.465
6.94,31960.6,35171.5,-0.2198,0.4207,141.8,98.4,0.465
6.96,31993.9,35023.3,-0.0344,0.0565,141.8,98.4,0.465
6.98,31914.0,34886.5,-0.479,-0.2798,141.8,98.4,0.465
7.0,31827.6,34760.6,-0.9593,-0.5892,141.8,98.4,0.465
7.02,31878.6,34707.4,-0.6759,-0.72,141.8,98.4,0.465
7.04,31866.7,34683.5,-0.742,-0.7788,141.8,98.4,0.465
7.06,31782.3,34630.2,-1.2111,-0.9095,141.8,98.4,0.465
7.08,31864.1,34590.3,-0.7562,-1.0076,141.8,98.4,0.465
7.1,31834.5,34522.8,-0.9209,-1.1737,141.8,98.4,0.465
7.12,31755.1,34576.2,-1.3623,-1.0424,141.8,98.4,0.465
7.14,31812.2,34399.0,-1.0449,-1.4779,141.8,98.4,0.465
7.16,31734.4,34701.1,-1.4776,-0.7354,141.8,98.4,0.465
7.18,31850.0,34950.1,-0.8348,-0.1235,141.8,98.4,0.465
7.2,32107.5,35297.6,0.5972,0.7307,141.8,98.4,0.465
7.22,32249.2,35541.7,1.3847,1.3306,141.8,98.4,0.465
7.24,32286.1,35714.8,1.5903,1.7561,141.8,98.4,0.465
7.26,32373.0,35750.7,2.0732,1.8442,141.8,98.4,0.465
7.28,32178.4,35654.4,0.9911,1.6076,141.8,98.4,0.465
7.3,32219.1,35441.5,1.2177,1.0843,141.8,98.4,0.465
7.32,32083.5,35142.2,0.4634,0.3487,141.8,98.4,0.465
7.34,31907.1,35137.6,-0.5174,0.3374,141.8,98.4,0.465
7.36,32073.6,35065.0,0.4084,0.1591,141.8,98.4,0.465
7.38,32039.3,34908.8,0.218,-0.2248,141.8,98.4,0.465
7.4,31930.4,34900.6,-0.3879,-0.245,141.8,98.4,0.465
7.42,31913.9,34776.6,-0.4793,-0.5499,141.8,98.4,0.465
7.44,31939.0,34798.2,-0.34,-0.4968,141.8,98.4,0.465
7.46,31897.4,34633.7,-0.5712,-0.901,141.8,98.4,0.465
7.48,31889.5,34674.2,-0.6151,-0.8016,141.8,98.4,0.465
7.5,31793.0,34649.4,-1.1519,-0.8624,141.8,98.4,0.465
7.52,31851.7,34517.2,-0.8254,-1.1873,141.8,98.4,0.465
7.54,31718.1,34434.2,-1.5681,-1.3913,141.8,98.4,0.465
7.56,31849.0,34510.7,-0.8402,-1.2033,141.8,98.4,0.465
7.58,31900.3,34580.8,-0.555,-1.0311,141.8,98.4,0.465
7.6,31931.2,34814.6,-0.3832,-0.4564,141.8,98.4,0.465
7.62,32174.0,35240.2,0.9666,0.5895,141.8,98.4,0.465
7.64,32220.6,35487.3,1.226,1.1969,141.8,98.4,0.465
7.66,32395.6,35743.7,2.1992,1.8272,141.8,98.4,0.465
7.68,32419.7,35774.0,2.3329,1.9016,141.8,98.4,0.465
7.7,32291.1,35603.3,1.6181,1.4821,141.8,98.4,0.465
7.72,32192.2,35438.9,1.0683,1.078,141.8,98.4,0.465
7.74,32085.8,35213.8,0.4762,0.5246,141.8,98.4,0.465
7.76,32060.4,35104.4,0.3353,0.2558,141.8,98.4,0.465
7.78,32027.4,35112.3,0.1517,0.2753,141.8,98.4,0.465
7.8,32018.6,35081.8,0.1027,0.2004,141.8,98.4,0.465
7.82,31960.7,34871.2,-0.2189,-0.3173,141.8,98.4,0.465
7.84,31894.4,34816.7,-0.5881,-0.4514,141.8,98.4,0.465
7.86,31949.7,34718.7,-0.2801,-0.6921,141.8,98.4,0.465
7.88,31888.5,34694.7,-0.6206,-0.7511,141.8,98.4,0.465
7.9,31824.6,34629.0,-0.9761,-0.9126,141.8,98.4,0.465
7.92,31873.3,34616.7,-0.7052,-0.9428,141.8,98.4,0.465
7.94,31794.7,34672.0,-1.1425,-0.8068,141.8,98.4,0.465
7.96,31857.3,34489.3,-0.7941,-1.2559,141.8,98.4,0.465
7.98,31708.3,34500.8,-1.6225,-1.2276,141.8,98.4,0.465
8.0,31712.4,34542.0,-1.5999,-1.1265,141.8,98.4,0.465
8.02,31889.2,34850.8,-0.6168,-0.3675,141.8,98.4,0.465
8.04,32050.8,35141.1,0.2821,0.346,141.8,98.4,0.465
8.06,32188.3,35443.7,1.0463,1.0897,141.8,98.4,0.465
8.08,32340.4,35805.6,1.8923,1.9792,141.8,98.4,0.465
8.1,32306.7,35769.5,1.7047,1.8905,141.8,98.4,0.465
8.12,32257.0,35675.3,1.4282,1.659,141.8,98.4,0.465
8.14,32210.7,35447.7,1.171,1.0995,141.8,98.4,0.465
8.16,32131.3,35221.9,0.7297,0.5445,141.8,98.4,0.465
8.18,32054.2,35162.1,0.3008,0.3976,141.8,98.4,0.465
8.2,31988.1,35121.9,-0.0667,0.2989,141.8,98.4,0.465
8.22,31965.1,35000.3,-0.1949,0.0,141.8,98.4,0.465
8.24,32050.8,34910.4,0.2816,-0.2209,141.8,98.4,0.465
8.26,31967.5,34850.1,-0.1815,-0.3691,141.8,98.4,0.465
8.28,31883.2,34773.4,-0.6503,-0.5578,141.8,98.4,0.465
8.3,31910.5,34651.1,-0.4985,-0.8583,141.8,98.4,0.465
8.32,31821.7,34642.7,-0.9923,-0.8789,141.8,98.4,0.465
8.34,31838.7,34680.0,-0.8974,-0.7872,141.8,98.4,0.465
8.36,31793.2,34616.3,-1.1506,-0.9439,141.8,98.4,0.465
8.38,31806.1,34528.9,-1.0787,-1.1588,141.8,98.4,0.465
8.4,31784.6,34425.3,-1.1983,-1.4132,141.8,98.4,0.465
8.42,31804.3,34529.9,-1.0887,-1.1561,141.8,98.4,0.465
8.44,31939.2,34667.0,-0.339,-0.8193,141.8,98.4,0.465
8.46,32075.5,35106.5,0.4189,0.261,141.8,98.4,0.465
8.48,32169.1,35376.5,0.9395,0.9246,141.8,98.4,0.465
8.5,32317.3,35603.0,1.7636,1.4813,141.8,98.4,0.465
8.52,32374.1,35753.0,2.0798,1.8498,141.8,98.4,0.465
8.54,32295.8,35616.4,1.644,1.5142,141.8,98.4,0.465
8.56,32211.9,35479.1,1.1776,1.1768,141.8,98.4,0.465
8.58,32142.4,35311.3,0.7912,0.7643,141.8,98.4,0.465
8.6,32064.3,35141.9,0.3568,0.348,141.8,98.4,0.465
8.62,32069.1,35096.5,0.3836,0.2365,141.8,98.4,0.465
8.64,31923.2,34998.9,-0.4278,-0.0034,141.8,98.4,0.465
8.66,31950.0,34969.8,-0.2789,-0.0749,141.8,98.4,0.465
8.68,31951.8,34847.9,-0.2687,-0.3746,141.8,98.4,0.465
8.7,31938.6,34835.3,-0.3418,-0.4056,141.8,98.4,0.465
8.72,31862.3,34671.9,-0.7661,-0.8072,141.8,98.4,0.465
8.74,31798.4,34680.1,-1.1217,-0.7871,141.8,98.4,0.465
8.76,31854.9,34591.5,-0.8073,-1.0047,141.8,98.4,0.465
8.78,31814.4,34588.2,-1.0325,-1.013,141.8,98.4,0.465
8.8,31737.3,34488.7,-1.4615,-1.2573,141.8,98.4,0.465
8.82,31889.2,34427.0,-0.6168,-1.4091,141.8,98.4,0.465
8.84,31797.8,34543.1,-1.1248,-1.1238,141.8,98.4,0.465
8.86,31843.7,34669.3,-0.8698,-0.8136,141.8,98.4,0.465
8.88,32063.1,35044.6,0.35,0.1089,141.8,98.4,0.465
8.9,32142.3,35388.3,0.7905,0.9535,141.8,98.4,0.465
8.92,32328.4,35682.4,1.8256,1.6763,141.8,98.4,0.465
8.94,32327.2,35730.6,1.8186,1.7949,141.8,98.4,0.465
8.96,32167.0,35710.4,0.9279,1.7452,141.8,98.4,0.465
8.98,32182.2,35461.1,1.0124,1.1325,141.8,98.4,0.465
9.0,32071.4,35267.3,0.3966,0.6562,141.8,98.4,0.465
9.02,31964.6,35194.6,-0.1973,0.4775,141.8,98.4,0.465
9.04,31956.4,35052.7,-0.2429,0.1288,141.8,98.4,0.465
9.06,31910.7,35086.5,-0.4974,0.2118,141.8,98.4,0.465
9.08,32015.1,34989.7,0.0832,-0.0261,141.8,98.4,0.465
9.1,31913.6,34959.8,-0.4814,-0.0996,141.8,98.4,0.465
9.12,31932.5,34766.4,-0.3758,-0.5748,141.8,98.4,0.465
9.14,31871.9,34734.3,-0.7131,-0.6538,141.8,98.4,0.465
9.16,31924.2,34708.8,-0.4219,-0.7164,141.8,98.4,0.465
9.18,31809.6,34720.0,-1.0597,-0.6889,141.8,98.4,0.465
9.2,31748.7,34678.2,-1.398,-0.7917,141.8,98.4,0.465
9.22,31816.6,34538.9,-1.0206,-1.1339,141.8,98.4,0.465
9.24,31733.4,34475.2,-1.4832,-1.2907,141.8,98.4,0.465
9.26,31794.4,34434.8,-1.1439,-1.3899,141.8,98.4,0.465
9.28,31914.5,34645.1,-0.476,-0.8729,141.8,98.4,0.465
9.3,31960.9,34930.5,-0.2181,-0.1715,141.8,98.4,0.465
9.32,32066.7,35329.8,0.3702,0.8098,141.8,98.4,0.465
9.34,32265.2,35517.7,1.474,1.2716,141.8,98.4,0.465
9.36,32342.1,35778.6,1.9014,1.9129,141.8,98.4,0.465
9.38,32264.8,35667.7,1.4715,1.6403,141.8,98.4,0.465
9.4,32276.7,35505.7,1.538,1.2421,141.8,98.4,0.465
9.42,32184.4,35300.2,1.0247,0.737,141.8,98.4,0.465
9.44,32032.5,35076.1,0.1802,0.1863,141.8,98.4,0.465
9.46,32045.0,35161.7,0.2497,0.3966,141.8,98.4,0.465
9.48,32056.8,35018.2,0.3154,0.0439,141.8,98.4,0.465
9.5,32034.4,35022.5,0.1907,0.0545,141.8,98.4,0.465
9.52,31931.5,34941.1,-0.3816,-0.1455,141.8,98.4,0.465
9.54,31948.2,34839.9,-0.2889,-0.3943,141.8,98.4,0.465
9.56,31806.2,34711.0,-1.0782,-0.7112,141.8,98.4,0.465
9.58,31833.1,34779.3,-0.9287,-0.5433,141.8,98.4,0.465
9.6,31831.4,34684.1,-0.9384,-0.7773,141.8,98.4,0.465
9.62,31869.5,34544.6,-0.7263,-1.1202,141.8,98.4,0.465
9.64,31802.3,34536.5,-1.0997,-1.1399,141.8,98.4,0.465
9.66,31837.2,34358.6,-0.906,-1.5773,141.8,98.4,0.465
9.68,31731.7,34483.3,-1.4924,-1.2707,141.8,98.4,0.465
9.7,31762.4,34602.4,-1.3218,-0.9779,141.8,98.4,0.465
9.72,31983.4,34935.6,-0.0928,-0.1591,141.8,98.4,0.465
9.74,32197.1,35327.0,1.0953,0.803,141.8,98.4,0.465
9.76,32268.5,35590.3,1.4922,1.4501,141.8,98.4,0.465
9.78,32254.7,35769.0,1.4154,1.8893,141.8,98.4,0.465
9.8,32243.3,35669.8,1.3521,1.6454,141.8,98.4,0.465
9.82,32355.4,35540.6,1.9755,1.3278,141.8,98.4,0.465
9.84,32078.5,35355.5,0.436,0.873,141.8,98.4,0.465
9.86,32118.3,35192.5,0.6569,0.4723,141.8,98.4,0.465
9.88,32014.8,35169.7,0.0815,0.4163,141.8,98.4,0.465
9.9,31999.2,35024.3,-0.0051,0.0589,141.8,98.4,0.465
9.92,31984.2,35084.3,-0.0887,0.2064,141.8,98.4,0.465
9.94,31846.8,34918.0,-0.8525,-0.2023,141.8,98.4,0.465
9.96,31940.1,34782.5,-0.3336,-0.5354,141.8,98.4,0.465
9.98,31861.6,34724.3,-0.7704,-0.6783,141.8,98.4,0.465
10.0,31816.8,34718.2,-1.0194,-0.6935,141.8,98.4,0.465
10.02,31869.5,34680.2,-0.7264,-0.7867,141.8,98.4,0.465
10.04,31797.9,34583.2,-1.1243,-1.0252,141.8,98.4,0.465
10.06,31898.5,34625.8,-0.565,-0.9204,141.8,98.4,0.465
10.08,31683.8,34469.8,-1.7586,-1.304,141.8,98.4,0.465
10.1,31719.3,34510.6,-1.5614,-1.2037,141.8,98.4,0.465
10.12,31844.8,34620.2,-0.8638,-0.9342,141.8,98.4,0.465
10.14,31897.9,34991.6,-0.5683,-0.0214,141.8,98.4,0.465
10.16,31982.1,35128.8,-0.1001,0.3158,141.8,98.4,0.465
10.18,32335.0,35527.0,1.8623,1.2944,141.8,98.4,0.465
10.2,32393.5,35686.9,2.1875,1.6875,141.8,98.4,0.465
10.22,32356.6,35707.0,1.982,1.7369,141.8,98.4,0.465
10.24,32225.4,35552.4,1.2528,1.3568,141.8,98.4,0.465
10.26,32179.0,35366.1,0.9945,0.8991,141.8,98.4,0.465
10.28,32094.3,35226.8,0.5239,0.5566,141.8,98.4,0.465
10.3,32047.1,35104.8,0.261,0.2568,141.8,98.4,0.465
10.32,32020.2,34962.6,0.1116,-0.0928,141.8,98.4,0.465
10.34,31920.7,35114.4,-0.4418,0.2804,141.8,98.4,0.465
10.36,32004.9,34950.5,0.0268,-0.1224,141.8,98.4,0.465
10.38,31988.1,34763.3,-0.0668,-0.5825,141.8,98.4,0.465
10.4,31861.3,34749.7,-0.7718,-0.616,141.8,98.4,0.465
10.42,31882.4,34710.0,-0.6546,-0.7136,141.8,98.4,0.465
10.44,31823.3,34693.7,-0.9831,-0.7535,141.8,98.4,0.465
10.46,31874.1,34623.8,-0.701,-0.9254,141.8,98.4,0.465
10.48,31783.4,34534.2,-1.205,-1.1457,141.8,98.4,0.465
10.5,31868.4,34504.6,-0.7323,-1.2184,141.8,98.4,0.465
10.52,31817.6,34434.6,-1.0146,-1.3904,141.8,98.4,0.465
10.54,31789.0,34635.0,-1.1742,-0.8979,141.8,98.4,0.465
10.56,31889.6,34800.2,-0.6146,-0.492,141.8,98.4,0.465
10.58,32096.8,35165.1,0.5376,0.405,141.8,98.4,0.465
10.6,32226.0,35542.8,1.2558,1.3332,141.8,98.4,0.465
10.62,32360.2,35708.2,2.0022,1.7398,141.8,98.4,0.465
10.64,32339.1,35741.0,1.8849,1.8205,141.8,98.4,0.465
10.66,32310.9,35639.2,1.7284,1.5703,141.8,98.4,0.465
10.68,32106.9,35390.3,0.5935,0.9585,141.8,98.4,0.465
10.7,32115.4,35308.8,0.6409,0.7581,141.8,98.4,0.465
10.72,32078.9,35097.3,0.4379,0.2384,141.8,98.4,0.465
10.74,32012.6,35011.3,0.0696,0.027,141.8,98.4,0.465
10.76,32100.7,35078.2,0.5595,0.1915,141.8,98.4,0.465
10.78,31934.1,34938.7,-0.367,-0.1514,141.8,98.4,0.465
10.8,31995.9,34825.1,-0.0232,-0.4306,141.8,98.4,0.465
10.82,31908.4,34799.7,-0.5099,-0.4931,141.8,98.4,0.465
10.84,31945.9,34654.8,-0.3017,-0.8493,141.8,98.4,0.465
10.86,31829.6,34661.9,-0.9484,-0.8317,141.8,98.4,0.465
10.88,31864.6,34583.6,-0.7538,-1.0241,141.8,98.4,0.465
10.9,31849.7,34631.7,-0.8363,-0.906,141.8,98.4,0.465
10.92,31805.5,34467.8,-1.0823,-1.3088,141.8,98.4,0.465
10.94,31781.4,34435.6,-1.216,-1.388,141.8,98.4,0.465
10.96,31769.1,34537.3,-1.2848,-1.1381,141.8,98.4,0.465
10.98,31950.9,34732.4,-0.2737,-0.6585,141.8,98.4,0.465
11.0,32049.4,35062.0,0.2738,0.1517,141.8,98.4,0.465
11.02,32201.4,35438.8,1.1194,1.0776,141.8,98.4,0.465
11.04,32341.2,35641.0,1.8963,1.5746,141.8,98.4,0.465
11.06,32195.1,35774.6,1.0841,1.9031,141.8,98.4,0.465
11.08,32260.3,35667.3,1.447,1.6393,141.8,98.4,0.465
11.1,32065.0,35382.9,0.3605,0.9403,141.8,98.4,0.465
11.12,32236.8,35329.0,1.3161,0.8077,141.8,98.4,0.465
11.14,32000.8,35211.8,0.004,0.5198,141.8,98.4,0.465
11.16,32067.1,35178.9,0.3726,0.4389,141.8,98.4,0.465
11.18,31952.1,34984.7,-0.267,-0.0385,141.8,98.4,0.465
11.2,31999.7,34856.5,-0.0026,-0.3534,141.8,98.4,0.465
11.22,31905.1,34886.5,-0.5281,-0.2798,141.8,98.4,0.465
11.24,31931.8,34740.9,-0.3799,-0.6375,141.8,98.4,0.465
11.26,31915.4,34584.4,-0.4708,-1.0223,141.8,98.4,0.465
11.28,31852.0,34749.7,-0.8234,-0.616,141.8,98.4,0.465
11.3,31879.3,34664.4,-0.6716,-0.8256,141.8,98.4,0.465
11.32,31820.6,34618.4,-0.998,-0.9386,141.8,98.4,0.465
11.34,31825.8,34434.2,-0.9696,-1.3914,141.8,98.4,0.465
11.36,31780.6,34415.6,-1.2207,-1.4372,141.8,98.4,0.465
11.38,31856.2,34535.0,-0.8004,-1.1437,141.8,98.4,0.465
11.4,31942.0,34764.9,-0.323,-0.5786,141.8,98.4,0.465
11.42,31977.4,35092.4,-0.1261,0.2264,141.8,98.4,0.465
11.44,32144.9,35428.6,0.8052,1.0527,141.8,98.4,0.465
11.46,32257.9,35687.3,1.4333,1.6885,141.8,98.4,0.465
11.48,32352.6,35706.2,1.9602,1.735,141.8,98.4,0.465
11.5,32293.4,35725.4,1.6306,1.782,141.8,98.4,0.465
11.52,32242.7,35514.8,1.3491,1.2644,141.8,98.4,0.465
11.54,32110.3,35282.5,0.6129,0.6935,141.8,98.4,0.465
11.56,32060.3,35173.3,0.3349,0.4252,141.8,98.4,0.465
11.58,32053.9,35064.7,0.2989,0.1582,141.8,98.4,0.465
11.6,32019.5,35070.1,0.1076,0.1716,141.8,98.4,0.465
11.62,31935.3,34968.9,-0.3604,-0.0772,141.8,98.4,0.465
11.64,31969.3,34857.0,-0.1716,-0.3522,141.8,98.4,0.465
11.66,31876.8,34823.8,-0.6855,-0.4338,141.8,98.4,0.465
11.68,31897.8,34635.4,-0.5691,-0.8968,141.8,98.4,0.465
11.7,31908.5,34715.2,-0.5095,-0.7008,141.8,98.4,0.465
11.72,31898.4,34602.3,-0.5654,-0.9782,141.8,98.4,0.465
11.74,31909.2,34622.7,-0.5056,-0.9281,141.8,98.4,0.465
11.76,31805.2,34556.0,-1.084,-1.092,141.8,98.4,0.465
11.78,31886.3,34508.3,-0.633,-1.2093,141.8,98.4,0.465
11.8,31744.1,34528.5,-1.4238,-1.1596,141.8,98.4,0.465
11.82,31924.4,34695.3,-0.4211,-0.7495,141.8,98.4,0.465
11.84,31953.2,34978.8,-0.261,-0.0528,141.8,98.4,0.465
11.86,32169.0,35302.1,0.9392,0.7417,141.8,98.4,0.465
11.88,32257.3,35620.6,1.4299,1.5245,141.8,98.4,0.465
11.9,32404.5,35640.5,2.2485,1.5736,141.8,98.4,0.465
11.92,32278.9,35654.0,1.5501,1.6065,141.8,98.4,0.465
11.94,32205.5,35448.1,1.1422,1.1004,141.8,98.4,0.465
11.96,32183.1,35224.3,1.0172,0.5504,141.8,98.4,0.465
11.98,32105.4,35240.1,0.5855,0.5894,141.8,98.4,0.465
12.0,31998.8,35139.8,-0.0076,0.3428,141.8,98.4,0.465
12.02,31983.9,35094.3,-0.0899,0.2311,141.8,98.4,0.465
12.04,31983.0,34947.2,-0.095,-0.1304,141.8,98.4,0.465
12.06,31871.4,34871.6,-0.716,-0.3163,141.8,98.4,0.465
12.08,31879.6,34726.2,-0.6704,-0.6737,141.8,98.4,0.465
12.1,31846.6,34743.0,-0.8538,-0.6325,141.8,98.4,0.465
12.12,31820.8,34664.6,-0.9974,-0.8252,141.8,98.4,0.465
12.14,31822.6,34618.8,-0.9869,-0.9378,141.8,98.4,0.465
12.16,31797.7,34630.2,-1.1253,-0.9098,141.8,98.4,0.465
12.18,31795.2,34499.3,-1.1393,-1.2313,141.8,98.4,0.465
12.2,31729.6,34528.9,-1.5042,-1.1586,141.8,98.4,0.465
12.22,31723.5,34319.0,-1.5382,-1.6746,141.8,98.4,0.465
12.24,31826.4,34554.2,-0.966,-1.0964,141.8,98.4,0.465
12.26,31900.8,34861.0,-0.5525,-0.3424,141.8,98.4,0.465
12.28,32228.8,35304.6,1.2716,0.7478,141.8,98.4,0.465
12.3,32285.9,35636.8,1.5892,1.5643,141.8,98.4,0.465
12.32,32361.9,35771.2,2.0117,1.8946,141.8,98.4,0.465
12.34,32311.3,35671.3,1.7304,1.6492,141.8,98.4,0.465
12.36,32113.2,35621.1,0.6286,1.5258,141.8,98.4,0.465
12.38,32226.6,35354.0,1.2594,0.8693,141.8,98.4,0.465
12.4,32006.8,35165.6,0.037,0.4063,141.8,98.4,0.465
12.42,32105.0,35081.1,0.5829,0.1986,141.8,98.4,0.465
12.44,32013.0,35102.9,0.0718,0.2521,141.8,98.4,0.465
12.46,32014.5,34977.8,0.0801,-0.0554,141.8,98.4,0.465
12.48,31993.1,34906.1,-0.0391,-0.2315,141.8,98.4,0.465
12.5,31939.6,34765.0,-0.3363,-0.5784,141.8,98.4,0.465
12.52,31824.7,34688.0,-0.9755,-0.7676,141.8,98.4,0.465
12.54,31853.8,34521.0,-0.8137,-1.1782,141.8,98.4,0.465
12.56,31970.2,34601.9,-0.1666,-0.9792,141.8,98.4,0.465
12.58,31853.4,34566.5,-0.8159,-1.0662,141.8,98.4,0.465
12.6,31839.0,34535.3,-0.896,-1.143,141.8,98.4,0.465
12.62,31722.5,34429.4,-1.5437,-1.4032,141.8,98.4,0.465
12.64,31746.5,34402.6,-1.4105,-1.469,141.8,98.4,0.465
12.66,31797.1,34569.7,-1.1287,-1.0583,141.8,98.4,0.465
12.68,31888.1,34874.5,-0.6232,-0.3092,141.8,98.4,0.465
12.7,32136.3,35162.9,0.7575,0.3995,141.8,98.4,0.465
12.72,32263.8,35570.4,1.4659,1.4012,141.8,98.4,0.465
12.74,32335.1,35805.6,1.8624,1.9792,141.8,98.4,0.465
12.76,32310.5,35803.5,1.7261,1.974,141.8,98.4,0.465
12.78,32211.7,35522.3,1.1764,1.283,141.8,98.4,0.465
12.8,32177.6,35375.7,0.987,0.9227,141.8,98.4,0.465
12.82,32035.0,35290.9,0.1941,0.7142,141.8,98.4,0.465
12.84,32081.1,35109.3,0.4501,0.2678,141.8,98.4,0.465
12.86,32001.1,35138.3,0.0053,0.3391,141.8,98.4,0.465
12.88,32027.9,34932.0,0.1544,-0.1679,141.8,98.4,0.465
12.9,31944.5,34913.0,-0.3093,-0.2145,141.8,98.4,0.465
12.92,31948.1,34791.2,-0.2895,-0.5139,141.8,98.4,0.465
12.94,31901.3,34784.2,-0.5495,-0.5312,141.8,98.4,0.465
12.96,31857.8,34680.3,-0.7916,-0.7866,141.8,98.4,0.465
12.98,31875.7,34652.5,-0.692,-0.8549,141.8,98.4,0.465
13.0,31755.6,34536.1,-1.3596,-1.1409,141.8,98.4,0.465
13.02,31804.0,34546.6,-1.0903,-1.1151,141.8,98.4,0.465
13.04,31836.3,34515.4,-0.9111,-1.1918,141.8,98.4,0.465
13.06,31692.1,34487.6,-1.713,-1.2601,141.8,98.4,0.465
13.08,31820.4,34576.3,-0.9994,-1.0422,141.8,98.4,0.465
13.1,32035.1,34869.4,0.1944,-0.3217,141.8,98.4,0.465
13.12,32144.1,35190.2,0.8007,0.4667,141.8,98.4,0.465
13.14,32334.4,35575.5,1.8587,1.4137,141.8,98.4,0.465
13.16,32249.5,35741.5,1.3868,1.8216,141.8,98.4,0.465
13.18,32373.8,35703.1,2.0777,1.7272,141.8,98.4,0.465
13.2,32242.5,35622.2,1.3479,1.5285,141.8,98.4,0.465
13.22,32057.0,35387.9,0.3163,0.9526,141.8,98.4,0.465
13.24,32064.3,35236.2,0.357,0.5797,141.8,98.4,0.465
13.26,32015.1,35078.2,0.0834,0.1915,141.8,98.4,0.465
13.28,31959.2,35137.9,-0.2278,0.3382,141.8,98.4,0.465
13.3,32005.9,35018.6,0.0322,0.045,141.8,98.4,0.465
13.32,31963.8,34880.7,-0.2019,-0.2939,141.8,98.4,0.465
13.34,31890.6,34753.7,-0.6091,-0.606,141.8,98.4,0.465
13.36,31847.4,34697.7,-0.8492,-0.7438,141.8,98.4,0.465
13.38,31791.8,34714.4,-1.1583,-0.7027,141.8,98.4,0.465
13.4,31922.9,34684.5,-0.4295,-0.7763,141.8,98.4,0.465
13.42,31948.0,34590.2,-0.2896,-1.008,141.8,98.4,0.465
13.44,31779.5,34627.2,-1.227,-0.917,141.8,98.4,0.465
13.46,31771.6,34442.3,-1.2706,-1.3716,141.8,98.4,0.465
13.48,31705.3,34469.3,-1.6394,-1.3051,141.8,98.4,0.465
13.5,31783.5,34545.2,-1.2045,-1.1185,141.8,98.4,0.465
13.52,31883.8,34849.0,-0.6466,-0.3718,141.8,98.4,0.465
13.54,32048.5,35131.8,0.2688,0.3232,141.8,98.4,0.465
13.56,32238.3,35395.1,1.3247,0.9702,141.8,98.4,0.465
13.58,32293.6,35721.5,1.6316,1.7726,141.8,98.4,0.465
13.6,32273.7,35877.5,1.5213,2.156,141.8,98.4,0.465
13.62,32257.2,35622.7,1.4293,1.5298,141.8,98.4,0.465
13.64,32145.1,35453.1,0.8059,1.1128,141.8,98.4,0.465
13.66,32183.8,35236.8,1.0213,0.5813,141.8,98.4,0.465
13.68,32077.0,35171.9,0.4272,0.4217,141.8,98.4,0.465
13.7,32066.4,35127.6,0.3683,0.3129,141.8,98.4,0.465
13.72,32049.0,35013.9,0.2719,0.0334,141.8,98.4,0.465
13.74,32042.9,34999.8,0.2378,-0.0012,141.8,98.4,0.465
13.76,31947.9,34737.5,-0.2906,-0.6458,141.8,98.4,0.465
13.78,31903.4,34794.9,-0.5378,-0.505,141.8,98.4,0.465
13.8,31804.9,34676.1,-1.0854,-0.7968,141.8,98.4,0.465
13.82,31942.6,34644.2,-0.3201,-0.8753,141.8,98.4,0.465
13.84,31756.9,34682.6,-1.3525,-0.7808,141.8,98.4,0.465
13.86,31846.6,34619.0,-0.8539,-0.9372,141.8,98.4,0.465
13.88,31739.7,34569.4,-1.4478,-1.0591,141.8,98.4,0.465
13.9,31720.9,34465.0,-1.5529,-1.3158,141.8,98.4,0.465
13.92,31851.7,34429.0,-0.8251,-1.4041,141.8,98.4,0.465
13.94,31799.3,34730.8,-1.1165,-0.6624,141.8,98.4,0.465
13.96,31979.7,35005.3,-0.1134,0.0122,141.8,98.4,0.465
13.98,32220.1,35473.5,1.2234,1.1629,141.8,98.4,0.465
14.0,32292.9,35715.1,1.628,1.7569,141.8,98.4,0.465
14.02,32246.6,35717.4,1.3706,1.7624,141.8,98.4,0.465
14.04,32315.6,35642.2,1.7544,1.5775,141.8,98.4,0.465
14.06,32139.3,35439.4,0.774,1.0792,141.8,98.4,0.465
14.08,32208.8,35300.2,1.1601,0.737,141.8,98.4,0.465
14.1,32055.6,35279.6,0.3083,0.6863,141.8,98.4,0.465
14.12,31945.0,35054.6,-0.3063,0.1335,141.8,98.4,0.465
14.14,31998.8,35004.4,-0.0073,0.01,141.8,98.4,0.465
14.16,32038.4,35011.7,0.2128,0.0281,141.8,98.4,0.465
14.18,31958.6,34890.2,-0.2309,-0.2706,141.8,98.4,0.465
14.2,31893.5,34726.2,-0.5928,-0.6738,141.8,98.4,0.465
14.22,31836.6,34613.3,-0.9094,-0.9512,141.8,98.4,0.465
14.24,31837.0,34651.2,-0.907,-0.8581,141.8,98.4,0.465
14.26,31947.8,34701.3,-0.291,-0.735,141.8,98.4,0.465
14.28,31843.4,34606.9,-0.8714,-0.967,141.8,98.4,0.465
14.3,31842.2,34510.8,-0.8782,-1.2031,141.8,98.4,0.465
14.32,31794.4,34461.5,-1.144,-1.3244,141.8,98.4,0.465
14.34,31684.1,34533.4,-1.7573,-1.1476,141.8,98.4,0.465
14.36,31824.8,34700.8,-0.9748,-0.7361,141.8,98.4,0.465
14.38,32017.0,34974.1,0.0938,-0.0645,141.8,98.4,0.465
14.4,32142.7,35337.7,0.7928,0.8293,141.8,98.4,0.465
14.42,32298.5,35599.6,1.659,1.4729,141.8,98.4,0.465
14.44,32305.7,35692.6,1.6989,1.7016,141.8,98.4,0.465
14.46,32352.8,35742.8,1.9611,1.8248,141.8,98.4,0.465
14.48,32287.4,35467.3,1.5972,1.1476,141.8,98.4,0.465
14.5,32060.4,35295.6,0.3349,0.7256,141.8,98.4,0.465
14.52,32079.3,35125.0,0.4405,0.3064,141.8,98.4,0.465
14.54,31987.4,35165.2,-0.0708,0.4052,141.8,98.4,0.465
14.56,32037.2,35074.7,0.206,0.1829,141.8,98.4,0.465
14.58,31995.9,34942.1,-0.0232,-0.1432,141.8,98.4,0.465
14.6,31965.6,34867.3,-0.1917,-0.327,141.8,98.4,0.465
14.62,31971.2,34819.4,-0.1608,-0.4447,141.8,98.4,0.465
14.64,31922.8,34770.2,-0.4302,-0.5655,141.8,98.4,0.465
14.66,31811.7,34645.7,-1.0478,-0.8716,141.8,98.4,0.465
14.68,31796.3,34720.5,-1.1332,-0.6877,141.8,98.4,0.465
14.7,31832.5,34563.6,-0.9318,-1.0735,141.8,98.4,0.465
14.72,31862.1,34565.9,-0.7677,-1.0678,141.8,98.4,0.465
14.74,31791.2,34493.3,-1.1615,-1.246,141.8,98.4,0.465
14.76,31807.0,34419.4,-1.0737,-1.4279,141.8,98.4,0.465
14.78,31900.4,34671.6,-0.5547,-0.8079,141.8,98.4,0.465
14.8,31945.1,34865.9,-0.3059,-0.3303,141.8,98.4,0.465
14.82,32106.2,35255.9,0.5901,0.6282,141.8,98.4,0.465
14.84,32200.6,35593.8,1.1147,1.4587,141.8,98.4,0.465
14.86,32305.9,35703.0,1.7002,1.7269,141.8,98.4,0.465
14.88,32286.2,35792.3,1.5905,1.9466,141.8,98.4,0.465
14.9,32201.5,35524.6,1.1198,1.2885,141.8,98.4,0.465
14.92,32141.0,35342.8,0.7835,0.8419,141.8,98.4,0.465
14.94,32155.0,35233.2,0.8612,0.5725,141.8,98.4,0.465
14.96,32014.6,35114.7,0.0804,0.2811,141.8,98.4,0.465
14.98,32046.1,35072.9,0.2554,0.1785,141.8,98.4,0.465
15.0,31994.6,35050.1,-0.0305,0.1224,141.8,98.4,0.465
15.02,31932.3,34859.8,-0.3769,-0.3453,141.8,98.4,0.465
15.04,31868.7,34788.9,-0.7308,-0.5196,141.8,98.4,0.465
15.06,31898.5,34669.0,-0.5649,-0.8144,141.8,98.4,0.465
15.08,31831.0,34745.8,-0.9401,-0.6255,141.8,98.4,0.465
15.1,31860.9,34620.5,-0.7741,-0.9335,141.8,98.4,0.465
15.12,31825.2,34649.3,-0.9729,-0.8626,141.8,98.4,0.465
15.14,31818.6,34562.0,-1.0094,-1.0772,141.8,98.4,0.465
15.16,31846.8,34464.5,-0.8524,-1.3169,141.8,98.4,0.465
15.18,31821.8,34384.3,-0.9915,-1.514,141.8,98.4,0.465
15.2,31893.1,34613.4,-0.5949,-0.951,141.8,98.4,0.465
15.22,31954.4,34883.1,-0.2545,-0.2881,141.8,98.4,0.465
15.24,32086.3,35306.8,0.4794,0.7533,141.8,98.4,0.465
15.26,32359.8,35505.0,2.0003,1.2403,141.8,98.4,0.465
15.28,32244.1,35671.3,1.3566,1.6491,141.8,98.4,0.465
15.3,32309.7,35731.8,1.7217,1.7978,141.8,98.4,0.465
15.32,32222.1,35574.6,1.2343,1.4115,141.8,98.4,0.465
15.34,32121.0,35323.7,0.6721,0.7948,141.8,98.4,0.465
15.36,32076.7,35204.7,0.4259,0.5024,141.8,98.4,0.465
15.38,32102.9,35145.6,0.5717,0.357,141.8,98.4,0.465
15.4,32034.5,35044.2,0.1914,0.1078,141.8,98.4,0.465
15.42,32030.0,35119.4,0.1663,0.2927,141.8,98.4,0.465
15.44,31951.7,34905.7,-0.2695,-0.2324,141.8,98.4,0.465
15.46,31954.3,34904.1,-0.2546,-0.2364,141.8,98.4,0.465
15.48,31883.0,34739.1,-0.6511,-0.642,141.8,98.4,0.465
15.5,31883.9,34713.5,-0.6465,-0.7049,141.8,98.4,0.465
15.52,31974.2,34711.8,-0.144,-0.709,141.8,98.4,0.465
15.54,31804.0,34659.4,-1.0908,-0.8378,141.8,98.4,0.465
15.56,31812.9,34561.8,-1.0409,-1.0778,141.8,98.4,0.465
15.58,31703.0,34538.0,-1.6524,-1.1363,141.8,98.4,0.465
15.6,31687.5,34421.6,-1.7382,-1.4223,141.8,98.4,0.465
15.62,31766.9,34653.4,-1.2968,-0.8526,141.8,98.4,0.465
15.64,31955.2,34941.7,-0.2496,-0.144,141.8,98.4,0.465
15.66,32062.5,35222.6,0.3467,0.5463,141.8,98.4,0.465
15.68,32221.1,35577.7,1.2286,1.4191,141.8,98.4,0.465
15.7,32286.2,35729.9,1.5906,1.7931,141.8,98.4,0.465
15.72,32278.1,35674.5,1.5457,1.657,141.8,98.4,0.465
15.74,32304.7,35527.2,1.6938,1.295,141.8,98.4,0.465
15.76,32130.9,35389.2,0.7273,0.9559,141.8,98.4,0.465
15.78,32225.2,35149.6,1.2516,0.367,141.8,98.4,0.465
15.8,32070.3,35222.1,0.3903,0.5451,141.8,98.4,0.465
15.82,32023.9,35080.2,0.1325,0.1963,141.8,98.4,0.465
15.84,32021.5,35015.8,0.1192,0.038,141.8,98.4,0.465
15.86,31998.8,34849.2,-0.0073,-0.3714,141.8,98.4,0.465
15.88,31929.0,34853.4,-0.3953,-0.3611,141.8,98.4,0.465
15.9,31832.8,34737.9,-0.9306,-0.6449,141.8,98.4,0.465
15.92,31884.5,34748.9,-0.643,-0.6179,141.8,98.4,0.465
15.94,31814.2,34586.4,-1.0339,-1.0173,141.8,98.4,0.465
15.96,31879.1,34577.2,-0.6732,-1.04,141.8,98.4,0.465
15.98,31850.9,34591.9,-0.8296,-1.0038,141.8,98.4,0.465
16.0,31842.6,34494.3,-0.8759,-1.2436,141.8,98.4,0.465
16.02,31662.9,34481.2,-1.8749,-1.2759,141.8,98.4,0.465
16.04,31861.1,34626.8,-0.7728,-0.9179,141.8,98.4,0.465
16.06,31893.3,34801.5,-0.5938,-0.4887,141.8,98.4,0.465
16.08,31992.4,35174.4,-0.0429,0.4278,141.8,98.4,0.465
16.1,32235.6,35435.9,1.3091,1.0705,141.8,98.4,0.465
16.12,32320.5,35699.2,1.7816,1.7178,141.8,98.4,0.465
16.14,32322.1,35621.3,1.7901,1.5262,141.8,98.4,0.465
16.16,32305.0,35743.7,1.6951,1.8271,141.8,98.4,0.465
16.18,32097.0,35460.9,0.5385,1.1319,141.8,98.4,0.465
16.2,32139.8,35328.0,0.7765,0.8053,141.8,98.4,0.465
16.22,31981.9,35230.4,-0.1011,0.5655,141.8,98.4,0.465
16.24,31979.7,35141.8,-0.1136,0.3478,141.8,98.4,0.465
16.26,32070.0,35051.0,0.3885,0.1247,141.8,98.4,0.465
16.28,32044.2,34921.8,0.2449,-0.1929,141.8,98.4,0.465
16.3,31935.5,34851.1,-0.3593,-0.3668,141.8,98.4,0.465
16.32,31896.0,34864.1,-0.5792,-0.3347,141.8,98.4,0.465
16.34,31880.2,34579.3,-0.6667,-1.0347,141.8,98.4,0.465
16.36,31816.9,34591.3,-1.0191,-1.0054,141.8,98.4,0.465
16.38,31868.5,34635.4,-0.7321,-0.8968,141.8,98.4,0.465
16.4,31792.2,34504.2,-1.156,-1.2194,141.8,98.4,0.465
16.42,31759.6,34581.7,-1.3373,-1.0288,141.8,98.4,0.465
16.44,31756.6,34524.7,-1.354,-1.1689,141.8,98.4,0.465
16.46,31921.8,34599.3,-0.4355,-0.9857,141.8,98.4,0.465
16.48,31865.5,34690.9,-0.7486,-0.7604,141.8,98.4,0.465
16.5,31990.1,35193.8,-0.0555,0.4756,141.8,98.4,0.465
16.52,32174.0,35483.3,0.9671,1.1871,141.8,98.4,0.465
16.54,32273.6,35683.8,1.5208,1.6798,141.8,98.4,0.465
16.56,32339.3,35692.4,1.8857,1.7011,141.8,98.4,0.465
16.58,32217.1,35751.9,1.2064,1.8473,141.8,98.4,0.465
16.6,32240.5,35433.6,1.3364,1.0649,141.8,98.4,0.465
16.62,32125.7,35359.6,0.6982,0.883,141.8,98.4,0.465
16.64,32065.9,35203.6,0.3656,0.4995,141.8,98.4,0.465
16.66,32021.0,35090.4,0.116,0.2213,141.8,98.4,0.465
16.68,32011.4,34958.6,0.0625,-0.1025,141.8,98.4,0.465
16.7,32013.3,34917.9,0.0735,-0.2024,141.8,98.4,0.465
16.72,31954.2,34836.7,-0.2551,-0.4022,141.8,98.4,0.465
16.74,31912.5,34796.9,-0.4874,-0.4999,141.8,98.4,0.465
16.76,31898.1,34700.5,-0.5672,-0.7369,141.8,98.4,0.465
16.78,31766.7,34740.5,-1.2978,-0.6387,141.8,98.4,0.465
16.8,31838.4,34670.0,-0.8995,-0.8118,141.8,98.4,0.465
16.82,31801.8,34618.4,-1.1028,-0.9387,141.8,98.4,0.465
16.84,31830.1,34649.6,-0.9457,-0.8621,141.8,98.4,0.465
16.86,31761.6,34353.7,-1.3266,-1.5892,141.8,98.4,0.465
16.88,31861.5,34442.7,-0.7708,-1.3706,141.8,98.4,0.465
16.9,31871.4,34735.8,-0.7155,-0.6502,141.8,98.4,0.465
16.92,31942.7,35048.5,-0.3194,0.1184,141.8,98.4,0.465
16.94,32134.3,35375.5,0.7459,0.922,141.8,98.4,0.465
16.96,32321.7,35761.3,1.7881,1.8702,141.8,98.4,0.465
16.98,32381.4,35796.9,2.1199,1.9579,141.8,98.4,0.465
17.0,32241.9,35740.1,1.3445,1.8182,141.8,98.4,0.465
17.02,32222.2,35450.6,1.2347,1.1066,141.8,98.4,0.465
17.04,32093.9,35293.3,0.5216,0.7202,141.8,98.4,0.465
17.06,32063.4,35141.6,0.3519,0.3472,141.8,98.4,0.465
17.08,32032.9,35171.5,0.1822,0.4208,141.8,98.4,0.465
17.1,32110.2,35126.5,0.612,0.3102,141.8,98.4,0.465
17.12,31986.8,34985.8,-0.0743,-0.0356,141.8,98.4,0.465
17.14,31955.3,34835.8,-0.2495,-0.4042,141.8,98.4,0.465
17.16,31908.6,34741.7,-0.5087,-0.6357,141.8,98.4,0.465
17.18,31881.1,34585.8,-0.6618,-1.0188,141.8,98.4,0.465
17.2,31872.0,34680.0,-0.7124,-0.7872,141.8,98.4,0.465
17.22,31823.3,34591.2,-0.9831,-1.0056,141.8,98.4,0.465
17.24,31859.0,34632.5,-0.7847,-0.904,141.8,98.4,0.465
17.26,31923.4,34501.5,-0.4267,-1.2261,141.8,98.4,0.465
17.28,31792.1,34388.0,-1.1569,-1.5049,141.8,98.4,0.465
17.3,31791.6,34560.1,-1.1594,-1.0821,141.8,98.4,0.465
17.32,31885.7,34610.7,-0.6364,-0.9577,141.8,98.4,0.465
17.34,31976.0,34925.6,-0.134,-0.1836,141.8,98.4,0.465
17.36,32125.9,35311.2,0.6994,0.7641,141.8,98.4,0.465
17.38,32259.2,35637.0,1.4405,1.5647,141.8,98.4,0.465
17.4,32340.1,35833.3,1.8903,2.0472,141.8,98.4,0.465
17.42,32273.5,35709.1,1.5202,1.7421,141.8,98.4,0.465
17.44,32144.4,35445.1,0.8024,1.0932,141.8,98.4,0.465
17.46,31997.4,35313.6,-0.0152,0.7699,141.8,98.4,0.465
17.48,32090.6,35199.7,0.5033,0.4902,141.8,98.4,0.465
17.5,32026.8,35071.1,0.1486,0.1739,141.8,98.4,0.465
17.52,32017.3,35124.5,0.0957,0.3051,141.8,98.4,0.465
17.54,31956.2,34906.5,-0.2444,-0.2306,141.8,98.4,0.465
17.56,31954.0,34822.9,-0.2563,-0.4361,141.8,98.4,0.465
17.58,31909.4,34831.5,-0.5044,-0.4149,141.8,98.4,0.465
17.6,31914.9,34700.7,-0.4738,-0.7364,141.8,98.4,0.465
17.62,31823.9,34708.4,-0.9797,-0.7174,141.8,98.4,0.465
17.64,31946.2,34708.7,-0.2997,-0.7167,141.8,98.4,0.465
17.66,31864.4,34634.0,-0.7547,-0.9002,141.8,98.4,0.465
17.68,31789.7,34554.5,-1.1699,-1.0958,141.8,98.4,0.465
17.7,31647.2,34502.6,-1.9623,-1.2232,141.8,98.4,0.465
17.72,31745.2,34421.5,-1.4172,-1.4225,141.8,98.4,0.465
17.74,31902.5,34589.3,-0.5428,-1.0103,141.8,98.4,0.465
17.76,31867.2,34955.5,-0.7388,-0.1102,141.8,98.4,0.465
17.78,32024.7,35219.2,0.1368,0.538,141.8,98.4,0.465
17.8,32216.2,35655.6,1.2014,1.6106,141.8,98.4,0.465
17.82,32411.1,35761.5,2.2851,1.8709,141.8,98.4,0.465
17.84,32327.9,35656.9,1.8227,1.6138,141.8,98.4,0.465
17.86,32295.9,35553.9,1.6446,1.3607,141.8,98.4,0.465
17.88,32141.4,35352.1,0.7856,0.8645,141.8,98.4,0.465
17.9,32055.7,35185.7,0.3089,0.4555,141.8,98.4,0.465
17.92,32086.4,35135.9,0.48,0.3333,141.8,98.4,0.465
17.94,32022.2,35064.9,0.123,0.1587,141.8,98.4,0.465
17.96,32035.1,35080.4,0.1943,0.1969,141.8,98.4,0.465
17.98,32004.9,34915.4,0.0264,-0.2088,141.8,98.4,0.465
18.0,31896.2,34832.4,-0.578,-0.4128,141.8,98.4,0.465
18.02,31871.2,34774.9,-0.7171,-0.554,141.8,98.4,0.465
18.04,31922.6,34640.5,-0.4312,-0.8843,141.8,98.4,0.465
18.06,31809.8,34544.5,-1.0582,-1.1204,141.8,98.4,0.465
18.08,31838.2,34599.7,-0.9003,-0.9845,141.8,98.4,0.465
18.1,31805.0,34643.1,-1.0851,-0.878,141.8,98.4,0.465
18.12,31827.2,34454.7,-0.9615,-1.3409,141.8,98.4,0.465
18.14,31789.3,34449.6,-1.1724,-1.3535,141.8,98.4,0.465
18.16,31779.8,34606.3,-1.2251,-0.9685,141.8,98.4,0.465
18.18,31884.2,34898.0,-0.6448,-0.2516,141.8,98.4,0.465
18.2,32134.6,35238.7,0.7479,0.586,141.8,98.4,0.465
18.22,32229.4,35646.1,1.2749,1.5873,141.8,98.4,0.465
18.24,32265.8,35760.2,1.4773,1.8676,141.8,98.4,0.465
18.26,32323.9,35793.7,1.8005,1.95,141.8,98.4,0.465
18.28,32208.7,35578.6,1.1597,1.4213,141.8,98.4,0.465
18.3,32282.8,35415.9,1.5721,1.0214,141.8,98.4,0.465
18.32,32021.4,35127.0,0.1185,0.3115,141.8,98.4,0.465
18.34,32074.2,35186.0,0.4121,0.4563,141.8,98.4,0.465
18.36,32053.7,35103.2,0.2978,0.2529,141.8,98.4,0.465
18.38,31921.3,35032.3,-0.4382,0.0786,141.8,98.4,0.465
18.4,31991.0,34881.9,-0.0507,-0.291,141.8,98.4,0.465
18.42,31897.6,34759.5,-0.5701,-0.5919,141.8,98.4,0.465
18.44,31907.1,34809.6,-0.5171,-0.4686,141.8,98.4,0.465
18.46,31790.2,34614.9,-1.1674,-0.9474,141.8,98.4,0.465
18.48,31874.3,34687.0,-0.6998,-0.7701,141.8,98.4,0.465
18.5,31898.4,34650.1,-0.5655,-0.8607,141.8,98.4,0.465
18.52,31816.0,34664.6,-1.0239,-0.8251,141.8,98.4,0.465
18.54,31831.6,34484.2,-0.9371,-1.2686,141.8,98.4,0.465
18.56,31779.9,34445.3,-1.2243,-1.3641,141.8,98.4,0.465
18.58,31825.0,34550.3,-0.9736,-1.1061,141.8,98.4,0.465
18.6,31896.1,34806.0,-0.5786,-0.4777,141.8,98.4,0.465
18.62,32046.0,35189.6,0.255,0.4652,141.8,98.4,0.465
18.64,32322.7,35603.7,1.7937,1.4829,141.8,98.4,0.465
18.66,32313.5,35809.6,1.7426,1.9891,141.8,98.4,0.465
18.68,32257.8,35675.6,1.4329,1.6596,141.8,98.4,0.465
18.7,32334.0,35622.4,1.8568,1.5289,141.8,98.4,0.465
18.72,32152.4,35421.9,0.8465,1.0362,141.8,98.4,0.465
18.74,32063.2,35236.1,0.351,0.5795,141.8,98.4,0.465
18.76,32047.3,35177.6,0.2624,0.4358,141.8,98.4,0.465
18.78,32006.4,35119.5,0.0348,0.2929,141.8,98.4,0.465
18.8,31975.4,35076.1,-0.1373,0.1863,141.8,98.4,0.465
18.82,31996.6,34916.4,-0.0197,-0.2061,141.8,98.4,0.465
18.84,31861.5,34788.6,-0.771,-0.5203,141.8,98.4,0.465
18.86,31931.9,34773.7,-0.3794,-0.5571,141.8,98.4,0.465
18.88,31927.6,34706.5,-0.4031,-0.7222,141.8,98.4,0.465
18.9,31898.7,34578.1,-0.5639,-1.0378,141.8,98.4,0.465
18.92,31862.7,34664.3,-0.7643,-0.8259,141.8,98.4,0.465
18.94,31920.6,34545.1,-0.4421,-1.1189,141.8,98.4,0.465
18.96,31813.8,34547.9,-1.0361,-1.1118,141.8,98.4,0.465
18.98,31790.9,34446.0,-1.1631,-1.3624,141.8,98.4,0.465
19.0,31722.8,34517.1,-1.5418,-1.1876,141.8,98.4,0.465
19.02,31905.1,34736.8,-0.5286,-0.6478,141.8,98.4,0.465
19.04,32090.6,35056.7,0.5032,0.1386,141.8,98.4,0.465
19.06,32076.8,35481.5,0.4262,1.1828,141.8,98.4,0.465
19.08,32315.0,35623.7,1.7512,1.5322,141.8,98.4,0.465
19.1,32262.2,35775.1,1.4572,1.9042,141.8,98.4,0.465
19.12,32241.4,35619.8,1.3418,1.5226,141.8,98.4,0.465
19.14,32146.9,35416.6,0.8162,1.0232,141.8,98.4,0.465
19.16,32038.6,35276.8,0.2141,0.6795,141.8,98.4,0.465
19.18,32064.3,35199.1,0.3567,0.4886,141.8,98.4,0.465
19.2,32052.6,35037.9,0.2916,0.0923,141.8,98.4,0.465
19.22,31967.3,35066.6,-0.1825,0.163,141.8,98.4,0.465
19.24,31968.7,35034.8,-0.1748,0.0847,141.8,98.4,0.465
19.26,31944.3,34912.2,-0.3106,-0.2167,141.8,98.4,0.465
19.28,31859.8,34803.7,-0.7802,-0.4833,141.8,98.4,0.465
19.3,31833.0,34692.7,-0.9291,-0.7561,141.8,98.4,0.465
19.32,31875.2,34698.3,-0.6945,-0.7424,141.8,98.4,0.465
19.34,31855.7,34733.0,-0.8029,-0.6571,141.8,98.4,0.465
19.36,31814.4,34642.3,-1.0326,-0.8799,141.8,98.4,0.465
19.38,31891.2,34532.0,-0.6054,-1.1511,141.8,98.4,0.465
19.4,31744.7,34504.9,-1.4201,-1.2177,141.8,98.4,0.465
19.42,31748.8,34474.2,-1.3977,-1.293,141.8,98.4,0.465
19.44,31913.3,34765.4,-0.4826,-0.5773,141.8,98.4,0.465
19.46,32031.0,35064.2,0.1718,0.157,141.8,98.4,0.465
19.48,32294.9,35443.6,1.6393,1.0895,141.8,98.4,0.465
19.5,32245.2,35690.0,1.3625,1.6951,141.8,98.4,0.465
19.52,32299.2,35718.4,1.6631,1.765,141.8,98.4,0.465
19.54,32332.1,35720.0,1.846,1.7687,141.8,98.4,0.465
19.56,32189.1,35509.8,1.0509,1.2522,141.8,98.4,0.465
19.58,32183.5,35306.0,1.0197,0.7514,141.8,98.4,0.465
19.6,32154.8,35120.3,0.8601,0.2949,141.8,98.4,0.465
19.62,31990.8,35187.3,-0.0519,0.4595,141.8,98.4,0.465
19.64,31965.1,35079.5,-0.1949,0.1947,141.8,98.4,0.465
19.66,32001.9,35024.7,0.0097,0.06,141.8,98.4,0.465
19.68,32018.3,34825.2,0.1009,-0.4305,141.8,98.4,0.465
19.7,31852.8,34780.2,-0.819,-0.5409,141.8,98.4,0.465
19.72,31879.4,34692.4,-0.6714,-0.7567,141.8,98.4,0.465
19.74,31864.7,34676.7,-0.7531,-0.7953,141.8,98.4,0.465
19.76,31785.5,34734.6,-1.1935,-0.653,141.8,98.4,0.465
19.78,31868.0,34710.3,-0.7349,-0.7128,141.8,98.4,0.465
19.8,31740.5,34603.3,-1.4434,-0.9758,141.8,98.4,0.465
19.82,31801.9,34477.0,-1.1021,-1.2863,141.8,98.4,0.465
19.84,31813.6,34513.5,-1.0371,-1.1966,141.8,98.4,0.465
19.86,31859.8,34581.9,-0.7804,-1.0285,141.8,98.4,0.465
19.88,31995.2,34946.3,-0.0274,-0.1328,141.8,98.4,0.465
19.9,32151.3,35320.5,0.8405,0.787,141.8,98.4,0.465
19.92,32357.5,35645.3,1.9872,1.5853,141.8,98.4,0.465
19.94,32312.3,35746.8,1.7362,1.8346,141.8,98.4,0.465
19.96,32313.5,35723.5,1.7424,1.7773,141.8,98.4,0.465
19.98,32112.6,35533.8,0.6254,1.3113,141.8,98.4,0.465
20.0,32101.4,35348.5,0.5632,0.8559,141.8,98.4,0.465
20.02,32102.2,35168.0,0.5675,0.4121,141.8,98.4,0.465
20.04,32091.9,35078.7,0.5102,0.1927,141.8,98.4,0.465
20.06,32089.5,35123.0,0.4971,0.3016,141.8,98.4,0.465
20.08,31955.7,34901.4,-0.247,-0.2431,141.8,98.4,0.465
20.1,31998.4,34869.2,-0.0094,-0.3222,141.8,98.4,0.465
20.12,31979.0,34787.7,-0.1175,-0.5224,141.8,98.4,0.465
20.14,31833.2,34709.0,-0.9283,-0.7161,141.8,98.4,0.465
20.16,31808.6,34515.5,-1.0647,-1.1915,141.8,98.4,0.465
20.18,31810.5,34689.2,-1.0541,-0.7646,141.8,98.4,0.465
20.2,31813.5,34614.3,-1.0376,-0.9487,141.8,98.4,0.465
20.22,31728.9,34548.1,-1.508,-1.1114,141.8,98.4,0.465
20.24,31748.8,34486.4,-1.3976,-1.263,141.8,98.4,0.465
20.26,31772.6,34442.6,-1.2649,-1.3707,141.8,98.4,0.465
20.28,31895.7,34754.7,-0.5808,-0.6037,141.8,98.4,0.465
20.3,31931.4,34927.6,-0.3824,-0.1787,141.8,98.4,0.465
20.32,32138.0,35271.5,0.7667,0.6666,141.8,98.4,0.465
20.34,32240.9,35661.2,1.339,1.6243,141.8,98.4,0.465
20.36,32428.5,35786.5,2.3817,1.9322,141.8,98.4,0.465
20.38,32286.1,35761.5,1.5904,1.8708,141.8,98.4,0.465
20.4,32176.3,35666.8,0.9798,1.6382,141.8,98.4,0.465
20.42,32108.8,35241.9,0.6041,0.5937,141.8,98.4,0.465
20.44,32046.7,35154.8,0.2587,0.3797,141.8,98.4,0.465
20.46,32025.0,35151.4,0.1383,0.3714,141.8,98.4,0.465
20.48,32054.8,35041.1,0.304,0.1003,141.8,98.4,0.465
20.5,32039.8,34976.7,0.2208,-0.0581,141.8,98.4,0.465
20.52,31981.9,34946.4,-0.1012,-0.1326,141.8,98.4,0.465
20.54,31937.4,34842.1,-0.3488,-0.3889,141.8,98.4,0.465
20.56,31878.6,34734.9,-0.6759,-0.6523,141.8,98.4,0.465
20.58,31803.0,34722.1,-1.0963,-0.6837,141.8,98.4,0.465
20.6,31798.6,34660.4,-1.1208,-0.8353,141.8,98.4,0.465
20.62,31864.6,34652.8,-0.7533,-0.8542,141.8,98.4,0.465
20.64,31712.0,34457.7,-1.602,-1.3337,141.8,98.4,0.465
20.66,31850.3,34491.1,-0.8333,-1.2515,141.8,98.4,0.465
20.68,31803.5,34501.4,-1.0936,-1.2263,141.8,98.4,0.465
20.7,31805.0,34520.6,-1.0851,-1.1789,141.8,98.4,0.465
20.72,31960.0,34797.5,-0.2231,-0.4984,141.8,98.4,0.465
20.74,32095.2,35250.0,0.5287,0.6136,141.8,98.4,0.465
20.76,32275.4,35522.2,1.5309,1.2827,141.8,98.4,0.465
20.78,32265.3,35702.4,1.4743,1.7257,141.8,98.4,0.465
20.8,32299.5,35724.8,1.6645,1.7807,141.8,98.4,0.465
20.82,32151.5,35611.5,0.8415,1.5022,141.8,98.4,0.465
20.84,32250.1,35316.6,1.39,0.7775,141.8,98.4,0.465
20.86,32038.0,35242.2,0.2108,0.5946,141.8,98.4,0.465
20.88,32015.3,35041.6,0.0842,0.1014,141.8,98.4,0.465
20.9,32019.9,35055.6,0.1102,0.136,141.8,98.4,0.465
20.92,32035.4,35059.3,0.1961,0.1449,141.8,98.4,0.465
20.94,31910.9,34927.5,-0.4963,-0.179,141.8,98.4,0.465
20.96,31967.9,34852.3,-0.1792,-0.3637,141.8,98.4,0.465
20.98,31809.2,34703.5,-1.0615,-0.7295,141.8,98.4,0.465
21.0,31947.7,34695.8,-0.2915,-0.7484,141.8,98.4,0.465
21.02,31930.7,34646.6,-0.3859,-0.8694,141.8,98.4,0.465
21.04,31897.8,34734.1,-0.569,-0.6542,141.8,98.4,0.465
21.06,31891.0,34575.3,-0.6066,-1.0446,141.8,98.4,0.465
21.08,31664.6,34532.8,-1.8654,-1.1491,141.8,98.4,0.465
21.1,31755.5,34441.4,-1.3605,-1.3737,141.8,98.4,0.465
21.12,31851.5,34598.0,-0.8264,-0.9889,141.8,98.4,0.465
21.14,31854.1,34810.9,-0.8118,-0.4654,141.8,98.4,0.465
21.16,32122.4,35169.5,0.68,0.4159,141.8,98.4,0.465
21.18,32204.4,35584.2,1.1361,1.435,141.8,98.4,0.465
21.2,32328.0,35781.2,1.8232,1.9193,141.8,98.4,0.465
21.22,32356.1,35713.2,1.9796,1.7521,141.8,98.4,0.465
21.24,32207.6,35579.6,1.1537,1.4239,141.8,98.4,0.465
21.26,32123.1,35505.9,0.6838,1.2427,141.8,98.4,0.465
21.28,32171.9,35249.7,0.9551,0.613,141.8,98.4,0.465
21.3,32047.5,35023.5,0.2637,0.0569,141.8,98.4,0.465
21.32,31998.1,35050.2,-0.0113,0.1226,141.8,98.4,0.465
21.34,32038.1,34958.2,0.2113,-0.1035,141.8,98.4,0.465
21.36,31925.6,34921.0,-0.4144,-0.195,141.8,98.4,0.465
21.38,31978.9,34879.0,-0.1178,-0.2982,141.8,98.4,0.465
21.4,31898.6,34775.7,-0.5643,-0.552,141.8,98.4,0.465
21.42,31848.2,34688.0,-0.845,-0.7676,141.8,98.4,0.465
21.44,31768.6,34764.6,-1.2873,-0.5793,141.8,98.4,0.465
21.46,31858.3,34574.6,-0.7884,-1.0464,141.8,98.4,0.465
21.48,31789.3,34587.6,-1.1723,-1.0143,141.8,98.4,0.465
21.5,31707.9,34428.3,-1.6247,-1.4058,141.8,98.4,0.465
21.52,31744.5,34346.8,-1.4217,-1.6063,141.8,98.4,0.465
21.54,31767.6,34521.4,-1.2929,-1.1771,141.8,98.4,0.465
21.56,31944.0,34748.7,-0.3123,-0.6184,141.8,98.4,0.465
21.58,32004.0,35234.5,0.0214,0.5756,141.8,98.4,0.465
21.6,32240.8,35549.7,1.3381,1.3503,141.8,98.4,0.465
21.62,32285.5,35740.1,1.5868,1.8182,141.8,98.4,0.465
21.64,32312.7,35797.0,1.7381,1.958,141.8,98.4,0.465
21.66,32312.4,35555.6,1.7362,1.3647,141.8,98.4,0.465
21.68,32133.9,35461.5,0.744,1.1335,141.8,98.4,0.465
21.7,32108.4,35229.7,0.6023,0.5638,141.8,98.4,0.465
21.72,32152.1,35058.6,0.845,0.1432,141.8,98.4,0.465
21.74,31978.8,35124.8,-0.1185,0.3059,141.8,98.4,0.465
21.76,32082.7,35060.7,0.4593,0.1483,141.8,98.4,0.465
21.78,31934.3,34955.3,-0.3659,-0.1106,141.8,98.4,0.465
21.8,31989.6,34844.2,-0.0583,-0.3838,141.8,98.4,0.465
21.82,31946.1,34670.6,-0.3003,-0.8103,141.8,98.4,0.465
21.84,31893.2,34613.4,-0.5947,-0.9511,141.8,98.4,0.465
21.86,31800.8,34501.5,-1.1082,-1.226,141.8,98.4,0.465
21.88,31960.7,34630.9,-0.2194,-0.908,141.8,98.4,0.465
21.9,31851.4,34609.6,-0.8272,-0.9604,141.8,98.4,0.465
21.92,31803.1,34501.2,-1.0954,-1.2268,141.8,98.4,0.465
21.94,31761.2,34496.6,-1.3286,-1.238,141.8,98.4,0.465
21.96,31752.9,34451.3,-1.3747,-1.3494,141.8,98.4,0.465
21.98,31916.2,34764.5,-0.4666,-0.5797,141.8,98.4,0.465
22.0,32003.1,35056.7,0.0166,0.1385,141.8,98.4,0.465
22.02,32258.6,35370.9,1.4372,0.9108,141.8,98.4,0.465
22.04,32282.4,35649.1,1.5695,1.5945,141.8,98.4,0.465
22.06,32351.2,35816.7,1.9525,2.0065,141.8,98.4,0.465
22.08,32233.0,35731.7,1.2951,1.7976,141.8,98.4,0.465
22.1,32261.9,35532.4,1.4559,1.3078,141.8,98.4,0.465
22.12,32124.2,35282.6,0.69,0.6939,141.8,98.4,0.465
22.14,32001.1,35169.0,0.0054,0.4145,141.8,98.4,0.465
22.16,31995.5,35130.4,-0.0256,0.3196,141.8,98.4,0.465
22.18,32066.2,34990.1,0.3673,-0.025,141.8,98.4,0.465
22.2,31945.8,34981.3,-0.3018,-0.0468,141.8,98.4,0.465
22.22,31880.7,34781.4,-0.6639,-0.5381,141.8,98.4,0.465
22.24,31897.1,34767.8,-0.5727,-0.5715,141.8,98.4,0.465
22.26,31813.9,34744.3,-1.0357,-0.6291,141.8,98.4,0.465
22.28,31901.3,34601.7,-0.5497,-0.9796,141.8,98.4,0.465
22.3,31894.5,34623.2,-0.5873,-0.9268,141.8,98.4,0.465
22.32,31748.6,34597.3,-1.3983,-0.9906,141.8,98.4,0.465
22.34,31779.2,34547.3,-1.2285,-1.1135,141.8,98.4,0.465
22.36,31732.0,34363.6,-1.4909,-1.5649,141.8,98.4,0.465
22.38,31860.9,34459.2,-0.7739,-1.33,141.8,98.4,0.465
22.4,31806.7,34612.9,-1.0754,-0.9521,141.8,98.4,0.465
22.42,32028.4,34928.6,0.1575,-0.1764,141.8,98.4,0.465
22.44,32174.0,35414.9,0.9669,1.0188,141.8,98.4,0.465
22.46,32378.3,35679.6,2.1031,1.6695,141.8,98.4,0.465
22.48,32315.7,35682.4,1.7547,1.6763,141.8,98.4,0.465
22.5,32312.7,35735.0,1.7379,1.8058,141.8,98.4,0.465
22.52,32152.0,35464.0,0.8443,1.1396,141.8,98.4,0.465
22.54,32026.7,35371.6,0.1477,0.9124,141.8,98.4,0.465
22.56,32066.1,35145.3,0.367,0.3564,141.8,98.4,0.465
22.58,32070.5,34980.2,0.3914,-0.0495,141.8,98.4,0.465
22.6,32046.7,35035.6,0.2588,0.0868,141.8,98.4,0.465
22.62,31950.2,35034.5,-0.2775,0.084,141.8,98.4,0.465
22.64,31997.9,34825.7,-0.0122,-0.4291,141.8,98.4,0.465
22.66,31954.1,34728.4,-0.2559,-0.6684,141.8,98.4,0.465
22.68,31931.6,34747.1,-0.3811,-0.6224,141.8,98.4,0.465
22.7,31886.8,34660.8,-0.6301,-0.8343,141.8,98.4,0.465
22.72,31899.0,34589.1,-0.5625,-1.0107,141.8,98.4,0.465
22.74,31771.5,34579.8,-1.2712,-1.0336,141.8,98.4,0.465
22.76,31769.6,34624.7,-1.2817,-0.9231,141.8,98.4,0.465
22.78,31780.3,34442.2,-1.2221,-1.3718,141.8,98.4,0.465
22.8,31786.6,34498.8,-1.1874,-1.2325,141.8,98.4,0.465
22.82,31839.7,34649.4,-0.8919,-0.8625,141.8,98.4,0.465
22.84,32042.0,34964.2,0.2329,-0.0887,141.8,98.4,0.465
22.86,32144.1,35303.4,0.8007,0.745,141.8,98.4,0.465
22.88,32215.1,35624.1,1.1955,1.5332,141.8,98.4,0.465
22.9,32293.3,35711.3,1.6303,1.7474,141.8,98.4,0.465
22.92,32265.8,35732.3,1.4774,1.799,141.8,98.4,0.465
22.94,32229.2,35542.9,1.2738,1.3335,141.8,98.4,0.465
22.96,32235.4,35315.4,1.308,0.7745,141.8,98.4,0.465
22.98,32138.3,35193.5,0.7686,0.4749,141.8,98.4,0.465
23.0,32037.4,35236.3,0.2074,0.5799,141.8,98.4,0.465
23.02,32014.6,34951.8,0.0806,-0.1191,141.8,98.4,0.465
23.04,31917.9,35114.0,-0.4571,0.2795,141.8,98.4,0.465
23.06,31880.2,34972.9,-0.6666,-0.0674,141.8,98.4,0.465
23.08,31981.5,34843.2,-0.1036,-0.3862,141.8,98.4,0.465
23.1,31923.0,34733.2,-0.4286,-0.6565,141.8,98.4,0.465
23.12,31737.1,34631.7,-1.4623,-0.906,141.8,98.4,0.465
23.14,31888.8,34642.3,-0.6189,-0.88,141.8,98.4,0.465
23.16,31852.8,34546.6,-0.8191,-1.1151,141.8,98.4,0.465
23.18,31882.9,34548.4,-0.652,-1.1107,141.8,98.4,0.465
23.2,31767.4,34447.0,-1.2942,-1.36,141.8,98.4,0.465
23.22,31767.7,34410.9,-1.2922,-1.4487,141.8,98.4,0.465
23.24,31812.6,34625.5,-1.0428,-0.9213,141.8,98.4,0.465
23.26,31983.2,34963.2,-0.0938,-0.0913,141.8,98.4,0.465
23.28,32041.4,35334.2,0.2296,0.8205,141.8,98.4,0.465
23.3,32242.3,35585.4,1.3465,1.4381,141.8,98.4,0.465
23.32,32287.7,35740.9,1.5989,1.8203,141.8,98.4,0.465
23.34,32342.9,35745.7,1.9062,1.832,141.8,98.4,0.465
23.36,32190.3,35618.1,1.0572,1.5183,141.8,98.4,0.465
23.38,32150.4,35345.8,0.8356,0.849,141.8,98.4,0.465
23.4,32029.9,35168.8,0.1658,0.4141,141.8,98.4,0.465
23.42,32054.0,35079.3,0.2993,0.1942,141.8,98.4,0.465
23.44,32074.6,35177.1,0.4142,0.4346,141.8,98.4,0.465
23.46,31970.4,34944.8,-0.1655,-0.1365,141.8,98.4,0.465
23.48,32014.5,34801.5,0.08,-0.4886,141.8,98.4,0.465
23.5,31948.2,34906.9,-0.2889,-0.2297,141.8,98.4,0.465
23.52,31898.5,34759.8,-0.565,-0.591,141.8,98.4,0.465
23.54,31813.3,34667.4,-1.0388,-0.8182,141.8,98.4,0.465
23.56,31868.7,34641.3,-0.7308,-0.8823,141.8,98.4,0.465
23.58,31744.2,34662.5,-1.4232,-0.8302,141.8,98.4,0.465
23.6,31814.8,34552.8,-1.0305,-1.1,141.8,98.4,0.465
23.62,31795.8,34488.6,-1.1359,-1.2577,141.8,98.4,0.465
23.64,31687.8,34520.4,-1.7366,-1.1795,141.8,98.4,0.465
23.66,31823.3,34605.7,-0.9835,-0.9699,141.8,98.4,0.465
23.68,31895.8,34805.3,-0.5801,-0.4793,141.8,98.4,0.465
23.7,32006.8,35174.3,0.0371,0.4277,141.8,98.4,0.465
23.72,32154.5,35582.7,0.8586,1.4314,141.8,98.4,0.465
23.74,32410.5,35703.0,2.2819,1.7271,141.8,98.4,0.465
23.76,32282.3,35732.8,1.569,1.8004,141.8,98.4,0.465
23.78,32197.0,35545.0,1.0948,1.3388,141.8,98.4,0.465
23.8,32152.0,35377.5,0.8443,0.927,141.8,98.4,0.465
23.82,32087.7,35203.9,0.487,0.5003,141.8,98.4,0.465
23.84,32023.6,35144.0,0.1304,0.3531,141.8,98.4,0.465
23.86,31932.0,35110.3,-0.3786,0.2703,141.8,98.4,0.465
23.88,31914.7,35070.5,-0.4748,0.1725,141.8,98.4,0.465
23.9,31981.8,34930.3,-0.1016,-0.172,141.8,98.4,0.465
23.92,31865.8,34858.4,-0.747,-0.3487,141.8,98.4,0.465
23.94,31844.3,34727.9,-0.8663,-0.6694,141.8,98.4,0.465
23.96,31896.6,34573.8,-0.5755,-1.0484,141.8,98.4,0.465
23.98,31874.7,34683.6,-0.6972,-0.7784,141.8,98.4,0.465
24.0,31873.0,34634.8,-0.7068,-0.8985,141.8,98.4,0.465
24.02,31820.6,34576.3,-0.9982,-1.042,141.8,98.4,0.465
24.04,31802.3,34501.3,-1.1,-1.2264,141.8,98.4,0.465
24.06,31746.2,34444.9,-1.4118,-1.3652,141.8,98.4,0.465
24.08,31898.1,34574.5,-0.5671,-1.0466,141.8,98.4,0.465
24.1,31905.3,34766.6,-0.5274,-0.5745,141.8,98.4,0.465
24.12,32066.3,35253.4,0.3682,0.6221,141.8,98.4,0.465
24.14,32229.1,35541.8,1.2732,1.3308,141.8,98.4,0.465
24.16,32287.7,35655.0,1.5991,1.6091,141.8,98.4,0.465
24.18,32371.5,35848.8,2.0649,2.0854,141.8,98.4,0.465
24.2,32202.6,35557.9,1.1258,1.3705,141.8,98.4,0.465
24.22,32215.2,35317.0,1.1961,0.7782,141.8,98.4,0.465
24.24,32084.9,35144.5,0.4716,0.3543,141.8,98.4,0.465
24.26,32075.8,35158.3,0.4207,0.3883,141.8,98.4,0.465
24.28,32033.1,35099.3,0.1834,0.2432,141.8,98.4,0.465
24.3,32089.3,34988.0,0.496,-0.0302,141.8,98.4,0.465
24.32,32067.8,34908.1,0.3765,-0.2266,141.8,98.4,0.465
24.34,31889.0,34883.5,-0.618,-0.2871,141.8,98.4,0.465
24.36,31903.0,34690.1,-0.5402,-0.7625,141.8,98.4,0.465
24.38,31963.4,34700.7,-0.2041,-0.7364,141.8,98.4,0.465
24.4,31893.6,34664.3,-0.5921,-0.8259,141.8,98.4,0.465
24.42,31760.8,34698.3,-1.3307,-0.7423,141.8,98.4,0.465
24.44,31781.0,34612.9,-1.2182,-0.9523,141.8,98.4,0.465
24.46,31963.5,34430.8,-0.2036,-1.3998,141.8,98.4,0.465
24.48,31742.4,34483.1,-1.4331,-1.2713,141.8,98.4,0.465
24.5,31816.6,34497.0,-1.0207,-1.2371,141.8,98.4,0.465
24.52,31868.2,34730.1,-0.7333,-0.6641,141.8,98.4,0.465
24.54,31973.7,35097.2,-0.1468,0.2382,141.8,98.4,0.465
24.56,32229.1,35511.2,1.2731,1.2557,141.8,98.4,0.465
24.58,32284.8,35662.9,1.5828,1.6286,141.8,98.4,0.465
24.6,32371.9,35739.8,2.0671,1.8175,141.8,98.4,0.465
24.62,32338.6,35678.1,1.8823,1.6659,141.8,98.4,0.465
24.64,32261.1,35434.7,1.4511,1.0676,141.8,98.4,0.465
24.66,32207.8,35227.1,1.1551,0.5573,141.8,98.4,0.465
24.68,32071.8,35198.5,0.3986,0.4872,141.8,98.4,0.465
24.7,31975.7,35113.9,-0.136,0.2791,141.8,98.4,0.465
24.72,32079.1,35086.0,0.4393,0.2106,141.8,98.4,0.465
24.74,31994.1,34928.8,-0.0334,-0.1758,141.8,98.4,0.465
24.76,31860.5,34872.9,-0.7761,-0.3131,141.8,98.4,0.465
24.78,31928.3,34766.5,-0.3994,-0.5747,141.8,98.4,0.465
24.8,31915.3,34631.6,-0.4717,-0.9061,141.8,98.4,0.465
24.82,31800.4,34707.7,-1.1108,-0.7191,141.8,98.4,0.465
24.84,31824.4,34592.0,-0.9771,-1.0036,141.8,98.4,0.465
24.86,31862.6,34580.4,-0.7647,-1.0321,141.8,98.4,0.465
24.88,31779.4,34478.0,-1.2272,-1.2839,141.8,98.4,0.465
24.9,31684.7,34434.5,-1.7539,-1.3907,141.8,98.4,0.465
24.92,31783.2,34488.6,-1.206,-1.2576,141.8,98.4,0.465
24.94,31883.7,34639.9,-0.6474,-0.8859,141.8,98.4,0.465
24.96,32065.9,35026.3,0.3659,0.0638,141.8,98.4,0.465
24.98,32203.2,35444.4,1.129,1.0916,141.8,98.4,0.465
25.0,32250.3,35646.0,1.3911,1.587,141.8,98.4,0.465
25.02,32372.2,35817.7,2.0688,2.009,141.8,98.4,0.465
25.04,32311.5,35716.4,1.7314,1.76,141.8,98.4,0.465
25.06,32198.7,35454.1,1.1041,1.1153,141.8,98.4,0.465
25.08,32078.4,35232.5,0.4351,0.5706,141.8,98.4,0.465
25.1,32117.9,35174.2,0.6547,0.4273,141.8,98.4,0.465
25.12,32093.8,35223.2,0.521,0.5478,141.8,98.4,0.465
25.14,31968.0,35076.0,-0.1785,0.186,141.8,98.4,0.465
25.16,32118.6,35081.6,0.6588,0.1998,141.8,98.4,0.465
25.18,31976.6,34873.8,-0.1306,-0.3108,141.8,98.4,0.465
25.2,31917.1,34796.5,-0.4616,-0.5009,141.8,98.4,0.465
25.22,31773.8,34666.0,-1.2582,-0.8217,141.8,98.4,0.465
25.24,31954.4,34685.1,-0.2545,-0.7748,141.8,98.4,0.465
25.26,31831.6,34657.0,-0.937,-0.8438,141.8,98.4,0.465
25.28,31902.7,34633.9,-0.5417,-0.9005,141.8,98.4,0.465
25.3,31762.1,34506.7,-1.3233,-1.2132,141.8,98.4,0.465
25.32,31707.7,34496.9,-1.6259,-1.2373,141.8,98.4,0.465
25.34,31782.7,34472.8,-1.2087,-1.2966,141.8,98.4,0.465
25.36,31872.3,34636.2,-0.7106,-0.895,141.8,98.4,0.465
25.38,31977.8,35004.1,-0.1244,0.0093,141.8,98.4,0.465
25.4,32167.6,35390.5,0.9312,0.959,141.8,98.4,0.465
25.42,32228.6,35601.6,1.2704,1.4778,141.8,98.4,0.465
25.44,32363.6,35781.9,2.0212,1.921,141.8,98.4,0.465
25.46,32261.4,35661.1,1.4531,1.624,141.8,98.4,0.465
25.48,32177.5,35547.8,0.9862,1.3457,141.8,98.4,0.465
25.5,31991.4,35342.4,-0.0482,0.8407,141.8,98.4,0.465
25.52,32025.6,35193.2,0.1416,0.4742,141.8,98.4,0.465
25.54,32052.5,35111.5,0.2914,0.2733,141.8,98.4,0.465
25.56,32066.5,35039.0,0.369,0.0951,141.8,98.4,0.465
25.58,31996.0,34967.1,-0.0229,-0.0816,141.8,98.4,0.465
25.6,31917.5,34910.8,-0.4596,-0.22,141.8,98.4,0.465
25.62,31907.6,34794.8,-0.5145,-0.5051,141.8,98.4,0.465
25.64,31900.2,34782.7,-0.5553,-0.5348,141.8,98.4,0.465
25.66,31868.6,34672.6,-0.7312,-0.8055,141.8,98.4,0.465
25.68,31800.1,34560.2,-1.1124,-1.0816,141.8,98.4,0.465
25.7,31836.7,34597.8,-0.9087,-0.9893,141.8,98.4,0.465
25.72,31851.9,34449.5,-0.8244,-1.3539,141.8,98.4,0.465
25.74,31805.4,34528.1,-1.0829,-1.1607,141.8,98.4,0.465
25.76,31850.5,34482.1,-0.832,-1.2737,141.8,98.4,0.465
25.78,31809.8,34565.8,-1.0582,-1.068,141.8,98.4,0.465
25.8,31858.5,34969.5,-0.7873,-0.0758,141.8,98.4,0.465
25.82,32062.9,35270.0,0.3493,0.6629,141.8,98.4,0.465
25.84,32276.1,35543.2,1.5343,1.3344,141.8,98.4,0.465
25.86,32302.5,35752.1,1.6816,1.8478,141.8,98.4,0.465
25.88,32335.1,35726.3,1.8629,1.7844,141.8,98.4,0.465
25.9,32294.9,35468.4,1.6389,1.1505,141.8,98.4,0.465
25.92,32123.8,35378.5,0.6876,0.9294,141.8,98.4,0.465
25.94,32006.1,35155.3,0.0332,0.3808,141.8,98.4,0.465
25.96,32102.4,35166.7,0.5688,0.4089,141.8,98.4,0.465
25.98,32119.3,35068.0,0.6624,0.1663,141.8,98.4,0.465
26.0,32074.8,35060.0,0.4151,0.1466,141.8,98.4,0.465
26.02,32049.8,34965.0,0.2762,-0.0869,141.8,98.4,0.465
26.04,31983.1,34865.3,-0.0944,-0.3318,141.8,98.4,0.465
26.06,31886.8,34773.1,-0.6301,-0.5584,141.8,98.4,0.465
26.08,31875.0,34508.3,-0.696,-1.2092,141.8,98.4,0.465
26.1,31981.7,34592.4,-0.1026,-1.0025,141.8,98.4,0.465
26.12,31871.1,34730.1,-0.7172,-0.6641,141.8,98.4,0.465
26.14,31753.6,34580.8,-1.3707,-1.0311,141.8,98.4,0.465
26.16,31846.1,34545.8,-0.8562,-1.1171,141.8,98.4,0.465
26.18,31597.9,34492.2,-2.2365,-1.2489,141.8,98.4,0.465
26.2,31864.6,34624.8,-0.7534,-0.9228,141.8,98.4,0.465
26.22,31957.4,34954.9,-0.2377,-0.1117,141.8,98.4,0.465
26.24,32129.2,35215.6,0.7178,0.529,141.8,98.4,0.465
26.26,32206.1,35537.0,1.1455,1.319,141.8,98.4,0.465
26.28,32291.0,35755.8,1.6174,1.8567,141.8,98.4,0.465
26.3,32382.5,35790.6,2.1265,1.9422,141.8,98.4,0.465
26.32,32104.3,35627.2,0.5791,1.5407,141.8,98.4,0.465
26.34,32188.9,35431.5,1.0499,1.0598,141.8,98.4,0.465
26.36,32120.2,35205.3,0.6675,0.5037,141.8,98.4,0.465
26.38,32141.7,35132.9,0.7874,0.3259,141.8,98.4,0.465
26.4,32088.5,35136.7,0.4913,0.3352,141.8,98.4,0.465
26.42,32014.9,35001.9,0.0822,0.0038,141.8,98.4,0.465
26.44,31988.2,34972.9,-0.066,-0.0673,141.8,98.4,0.465
26.46,31831.4,34866.0,-0.9379,-0.3302,141.8,98.4,0.465
26.48,31835.8,34666.8,-0.9135,-0.8197,141.8,98.4,0.465
26.5,31811.7,34613.1,-1.0475,-0.9518,141.8,98.4,0.465
26.52,31840.0,34688.4,-0.8902,-0.7666,141.8,98.4,0.465
26.54,31787.1,34591.7,-1.1843,-1.0043,141.8,98.4,0.465
26.56,31816.2,34646.8,-1.0228,-0.8687,141.8,98.4,0.465
26.58,31720.5,34555.6,-1.5547,-1.093,141.8,98.4,0.465
26.6,31718.4,34376.6,-1.5663,-1.533,141.8,98.4,0.465
26.62,31790.9,34560.8,-1.1634,-1.0802,141.8,98.4,0.465
26.64,31932.6,34935.2,-0.3757,-0.1601,141.8,98.4,0.465
26.66,32055.7,35208.6,0.3089,0.512,141.8,98.4,0.465
26.68,32201.8,35436.9,1.1217,1.0731,141.8,98.4,0.465
26.7,32419.4,35723.4,2.3317,1.7772,141.8,98.4,0.465
26.72,32289.2,35819.7,1.6075,2.0139,141.8,98.4,0.465
26.74,32273.6,35637.7,1.5208,1.5666,141.8,98.4,0.465
26.76,32234.4,35450.6,1.3027,1.1067,141.8,98.4,0.465
26.78,32000.7,35246.1,0.0035,0.604,141.8,98.4,0.465
26.8,32091.3,35127.4,0.5071,0.3124,141.8,98.4,0.465
26.82,32025.9,35053.3,0.1435,0.1301,141.8,98.4,0.465
26.84,32069.3,35001.9,0.3847,0.0039,141.8,98.4,0.465
26.86,31964.3,34950.5,-0.1992,-0.1224,141.8,98.4,0.465
26.88,31906.6,34863.2,-0.52,-0.337,141.8,98.4,0.465
26.9,31744.1,34697.7,-1.4234,-0.7437,141.8,98.4,0.465
26.92,31799.4,34690.0,-1.1161,-0.7627,141.8,98.4,0.465
26.94,31878.8,34704.4,-0.6745,-0.7272,141.8,98.4,0.465
26.96,31787.8,34732.7,-1.1809,-0.6578,141.8,98.4,0.465
26.98,31871.0,34620.0,-0.718,-0.9347,141.8,98.4,0.465
27.0,31756.7,34392.0,-1.3537,-1.4952,141.8,98.4,0.465
27.02,31759.4,34485.5,-1.3388,-1.2653,141.8,98.4,0.465
27.04,31801.7,34529.3,-1.1036,-1.1577,141.8,98.4,0.465
27.06,31818.5,34779.4,-1.0099,-0.5431,141.8,98.4,0.465
27.08,32018.6,35060.0,0.1029,0.1466,141.8,98.4,0.465
27.1,32208.7,35469.3,1.1596,1.1527,141.8,98.4,0.465
27.12,32315.9,35658.2,1.756,1.6169,141.8,98.4,0.465
27.14,32243.9,35693.1,1.3555,1.7026,141.8,98.4,0.465
27.16,32286.7,35633.9,1.5938,1.5572,141.8,98.4,0.465
27.18,32121.6,35459.0,0.6756,1.1273,141.8,98.4,0.465
27.2,32014.8,35279.1,0.0819,0.6851,141.8,98.4,0.465
27.22,32175.0,35207.2,0.9723,0.5085,141.8,98.4,0.465
27.24,31968.5,34995.5,-0.1757,-0.0119,141.8,98.4,0.465
27.26,31990.1,35063.5,-0.0559,0.1553,141.8,98.4,0.465
27.28,31885.7,34910.3,-0.6362,-0.2212,141.8,98.4,0.465
27.3,31911.0,34821.5,-0.4953,-0.4395,141.8,98.4,0.465
27.32,31873.2,34796.9,-0.7058,-0.4999,141.8,98.4,0.465
27.34,31911.7,34663.9,-0.4919,-0.8267,141.8,98.4,0.465
27.36,31865.0,34730.2,-0.7512,-0.6639,141.8,98.4,0.465
27.38,31808.2,34640.3,-1.0669,-0.8849,141.8,98.4,0.465
27.4,31828.7,34634.1,-0.9534,-0.9001,141.8,98.4,0.465
27.42,31753.8,34552.6,-1.3697,-1.1005,141.8,98.4,0.465
27.44,31836.0,34423.8,-0.9126,-1.4169,141.8,98.4,0.465
27.46,31841.6,34556.3,-0.8817,-1.0914,141.8,98.4,0.465
27.48,31883.9,34684.6,-0.6463,-0.7761,141.8,98.4,0.465
27.5,32090.8,35034.1,0.5045,0.0831,141.8,98.4,0.465
27.52,32178.1,35360.7,0.9894,0.8857,141.8,98.4,0.465
27.54,32328.9,35683.8,1.8282,1.6798,141.8,98.4,0.465
27.56,32288.7,35712.4,1.6044,1.7501,141.8,98.4,0.465
27.58,32247.4,35588.8,1.375,1.4465,141.8,98.4,0.465
27.6,32274.0,35513.5,1.5232,1.2613,141.8,98.4,0.465
27.62,32138.1,35306.9,0.7675,0.7536,141.8,98.4,0.465
27.64,32060.4,35147.6,0.3352,0.3619,141.8,98.4,0.465
27.66,32039.1,35073.9,0.2169,0.1809,141.8,98.4,0.465
27.68,32032.0,35152.8,0.1774,0.3748,141.8,98.4,0.465
27.7,31927.1,34940.7,-0.4062,-0.1466,141.8,98.4,0.465
27.72,31960.0,34830.7,-0.2234,-0.417,141.8,98.4,0.465
27.74,31960.3,34777.9,-0.2214,-0.5465,141.8,98.4,0.465
27.76,31916.1,34675.2,-0.4674,-0.7991,141.8,98.4,0.465
27.78,31879.8,34696.4,-0.6691,-0.747,141.8,98.4,0.465
27.8,31888.4,34605.0,-0.6212,-0.9716,141.8,98.4,0.465
27.82,31727.2,34628.4,-1.5175,-0.9141,141.8,98.4,0.465
27.84,31823.4,34527.8,-0.9824,-1.1614,141.8,98.4,0.465
27.86,31863.7,34535.6,-0.7588,-1.1422,141.8,98.4,0.465
27.88,31808.9,34407.9,-1.0632,-1.4561,141.8,98.4,0.465
27.9,31814.2,34702.8,-1.034,-0.7312,141.8,98.4,0.465
27.92,32003.2,34994.2,0.0173,-0.015,141.8,98.4,0.465
27.94,32062.6,35334.9,0.3474,0.8222,141.8,98.4,0.465
27.96,32207.5,35576.4,1.1534,1.4158,141.8,98.4,0.465
27.98,32235.0,35684.7,1.3063,1.682,141.8,98.4,0.465
28.0,32334.8,35812.9,1.8611,1.9972,141.8,98.4,0.465
28.02,32220.7,35484.1,1.2265,1.1891,141.8,98.4,0.465
28.04,32148.2,35389.8,0.8234,0.9574,141.8,98.4,0.465
28.06,32159.9,35147.5,0.8884,0.3619,141.8,98.4,0.465
28.08,32123.1,35054.7,0.684,0.1337,141.8,98.4,0.465
28.1,32014.1,35070.1,0.0778,0.1716,141.8,98.4,0.465
28.12,31988.3,34901.4,-0.0657,-0.2431,141.8,98.4,0.465
28.14,31942.6,34919.4,-0.3198,-0.1989,141.8,98.4,0.465
28.16,31996.7,34802.1,-0.0191,-0.4871,141.8,98.4,0.465
28.18,31849.1,34693.1,-0.84,-0.7552,141.8,98.4,0.465
28.2,31865.1,34681.5,-0.7508,-0.7835,141.8,98.4,0.465
28.22,31824.2,34580.4,-0.9784,-1.0321,141.8,98.4,0.465
28.24,31844.4,34637.8,-0.8657,-0.891,141.8,98.4,0.465
28.26,31687.2,34551.7,-1.74,-1.1026,141.8,98.4,0.465
28.28,31748.8,34390.5,-1.3974,-1.4988,141.8,98.4,0.465
28.3,31820.4,34521.5,-0.9994,-1.1767,141.8,98.4,0.465
28.32,31816.8,34560.1,-1.0195,-1.082,141.8,98.4,0.465
28.34,32143.2,34899.3,0.7954,-0.2483,141.8,98.4,0.465
28.36,32066.4,35303.0,0.3684,0.7439,141.8,98.4,0.465
28.38,32259.7,35625.6,1.4437,1.5369,141.8,98.4,0.465
28.4,32250.8,35773.6,1.3939,1.9006,141.8,98.4,0.465
28.42,32337.1,35719.3,1.8736,1.7671,141.8,98.4,0.465
28.44,32252.3,35639.6,1.4023,1.5713,141.8,98.4,0.465
28.46,32287.6,35417.1,1.5988,1.0244,141.8,98.4,0.465
28.48,32047.0,35253.0,0.2605,0.6212,141.8,98.4,0.465
28.5,32058.4,35116.9,0.3239,0.2865,141.8,98.4,0.465
28.52,31988.2,35037.1,-0.0664,0.0904,141.8,98.4,0.465
28.54,31942.4,35043.4,-0.3208,0.1059,141.8,98.4,0.465
28.56,31990.8,34892.3,-0.0519,-0.2655,141.8,98.4,0.465
28.58,31951.2,34789.0,-0.2722,-0.5192,141.8,98.4,0.465
28.6,31825.3,34744.0,-0.9721,-0.6301,141.8,98.4,0.465
28.62,31863.9,34662.0,-0.7572,-0.8316,141.8,98.4,0.465
28.64,31826.0,34562.9,-0.9682,-1.0751,141.8,98.4,0.465
28.66,31895.9,34606.5,-0.5793,-0.968,141.8,98.4,0.465
28.68,31845.5,34547.1,-0.8597,-1.1139,141.8,98.4,0.465
28.7,31792.6,34514.3,-1.1537,-1.1945,141.8,98.4,0.465
28.72,31776.0,34410.5,-1.2465,-1.4496,141.8,98.4,0.465
28.74,31905.6,34513.1,-0.5255,-1.1974,141.8,98.4,0.465
28.76,31953.7,34876.5,-0.2583,-0.3043,141.8,98.4,0.465
28.78,32134.4,35235.0,0.7469,0.5768,141.8,98.4,0.465
28.8,32359.7,35621.4,1.9992,1.5265,141.8,98.4,0.465
28.82,32406.8,35706.9,2.2614,1.7366,141.8,98.4,0.465
28.84,32246.3,35696.9,1.3687,1.7121,141.8,98.4,0.465
28.86,32214.1,35570.6,1.1896,1.4017,141.8,98.4,0.465
28.88,32153.3,35351.4,0.8517,0.8629,141.8,98.4,0.465
28.9,32171.1,35282.3,0.9506,0.6931,141.8,98.4,0.465
28.92,32025.4,35188.5,0.1407,0.4625,141.8,98.4,0.465
28.94,32043.7,35097.1,0.2426,0.2379,141.8,98.4,0.465
28.96,32064.6,35040.4,0.3587,0.0985,141.8,98.4,0.465
28.98,31935.7,34932.9,-0.3582,-0.1656,141.8,98.4,0.465
29.0,31975.5,34869.3,-0.1371,-0.322,141.8,98.4,0.465
29.02,31862.5,34737.7,-0.7654,-0.6454,141.8,98.4,0.465
29.04,31834.6,34645.6,-0.9206,-0.8717,141.8,98.4,0.465
29.06,31776.6,34729.4,-1.2431,-0.6659,141.8,98.4,0.465
29.08,31950.7,34642.1,-0.2746,-0.8804,141.8,98.4,0.465
29.1,31772.7,34588.4,-1.2648,-1.0125,141.8,98.4,0.465
29.12,31749.8,34410.5,-1.3919,-1.4497,141.8,98.4,0.465
29.14,31797.9,34479.5,-1.1246,-1.2801,141.8,98.4,0.465
29.16,31816.9,34497.0,-1.0188,-1.2369,141.8,98.4,0.465
29.18,31895.0,34782.0,-0.5848,-0.5365,141.8,98.4,0.465
29.2,32010.8,35172.7,0.0592,0.4237,141.8,98.4,0.465
29.22,32213.9,35580.0,1.1888,1.4246,141.8,98.4,0.465
29.24,32293.0,35784.3,1.6284,1.9267,141.8,98.4,0.465
29.26,32379.7,35754.1,2.1109,1.8526,141.8,98.4,0.465
29.28,32301.5,35576.8,1.6759,1.4168,141.8,98.4,0.465
29.3,32154.5,35459.5,0.8583,1.1285,141.8,98.4,0.465
29.32,32111.5,35268.1,0.6194,0.6582,141.8,98.4,0.465
29.34,32141.0,35188.6,0.7835,0.4628,141.8,98.4,0.465
29.36,32052.1,35033.5,0.2892,0.0816,141.8,98.4,0.465
29.38,31988.5,34911.3,-0.0648,-0.2188,141.8,98.4,0.465
29.4,32000.9,34932.0,0.0041,-0.1679,141.8,98.4,0.465
29.42,31967.5,34700.5,-0.1814,-0.7369,141.8,98.4,0.465
29.44,31929.1,34678.7,-0.3947,-0.7905,141.8,98.4,0.465
29.46,31891.9,34744.2,-0.6017,-0.6294,141.8,98.4,0.465
29.48,31880.1,34577.1,-0.6673,-1.0401,141.8,98.4,0.465
29.5,31904.3,34693.3,-0.5329,-0.7545,141.8,98.4,0.465
29.52,31762.7,34543.9,-1.3203,-1.1218,141.8,98.4,0.465
29.54,31714.8,34416.1,-1.5866,-1.4359,141.8,98.4,0.465
29.56,31671.4,34413.9,-1.8276,-1.4412,141.8,98.4,0.465
29.58,31811.7,34451.6,-1.0475,-1.3486,141.8,98.4,0.465
29.6,31805.9,34769.1,-1.0802,-0.5682,141.8,98.4,0.465
29.62,32109.5,35189.4,0.6083,0.4647,141.8,98.4,0.465
29.64,32156.4,35481.8,0.8692,1.1833,141.8,98.4,0.465
29.66,32305.1,35747.4,1.6958,1.8363,141.8,98.4,0.465
29.68,32364.9,35827.6,2.0285,2.0334,141.8,98.4,0.465
29.7,32220.5,35624.5,1.2252,1.5341,141.8,98.4,0.465
29.72,32244.7,35454.8,1.36,1.1171,141.8,98.4,0.465
29.74,32032.6,35254.2,0.1807,0.6241,141.8,98.4,0.465
29.76,32068.5,35179.8,0.3805,0.4412,141.8,98.4,0.465
29.78,32085.7,35095.4,0.4757,0.2336,141.8,98.4,0.465
29.8,31978.2,35042.2,-0.1218,0.103,141.8,98.4,0.465
29.82,31931.0,34974.5,-0.3844,-0.0634,141.8,98.4,0.465
29.84,31857.2,34835.7,-0.7946,-0.4045,141.8,98.4,0.465
29.86,31790.2,34732.5,-1.1674,-0.6582,141.8,98.4,0.465
29.88,31857.9,34716.5,-0.7908,-0.6975,141.8,98.4,0.465
29.9,31838.8,34739.3,-0.8969,-0.6416,141.8,98.4,0.465
29.92,31849.4,34624.9,-0.8379,-0.9226,141.8,98.4,0.465
29.94,31820.5,34614.2,-0.9989,-0.949,141.8,98.4,0.465
29.96,31746.9,34558.2,-1.4079,-1.0867,141.8,98.4,0.465
29.98,31647.5,34432.3,-1.961,-1.396,141.8,98.4,0.465
30.0,31756.2,34475.5,-1.3562,-1.29,141.8,98.4,0.465
30.02,31869.2,34704.8,-0.7283,-0.7263,141.8,98.4,0.465
30.04,31983.4,35139.9,-0.0928,0.343,141.8,98.4,0.465
30.06,32185.1,35305.5,1.0288,0.7501,141.8,98.4,0.465
30.08,32303.3,35642.1,1.6856,1.5774,141.8,98.4,0.465
30.1,32254.3,35800.5,1.4134,1.9666,141.8,98.4,0.465
30.12,32279.1,35727.6,1.5513,1.7876,141.8,98.4,0.465
30.14,32234.5,35401.8,1.3034,0.9868,141.8,98.4,0.465
30.16,32049.8,35301.6,0.2763,0.7406,141.8,98.4,0.465
30.18,32103.8,35097.3,0.5765,0.2384,141.8,98.4,0.465
30.2,32083.2,35078.8,0.4619,0.1929,141.8,98.4,0.465
30.22,32011.8,35156.7,0.0652,0.3843,141.8,98.4,0.465
30.24,31942.8,34950.9,-0.319,-0.1215,141.8,98.4,0.465
30.26,31916.1,34806.1,-0.4671,-0.4774,141.8,98.4,0.465
30.28,31889.5,34707.6,-0.6152,-0.7194,141.8,98.4,0.465
30.3,31878.0,34570.3,-0.6791,-1.0569,141.8,98.4,0.465
30.32,31899.4,34559.2,-0.56,-1.084,141.8,98.4,0.465
30.34,31887.9,34609.9,-0.6241,-0.9595,141.8,98.4,0.465
30.36,31776.0,34569.8,-1.2461,-1.0582,141.8,98.4,0.465
30.38,31703.4,34572.3,-1.6501,-1.0521,141.8,98.4,0.465
30.4,31771.5,34513.9,-1.2714,-1.1954,141.8,98.4,0.465
30.42,31791.5,34459.6,-1.1603,-1.3289,141.8,98.4,0.465
30.44,31785.5,34703.6,-1.1937,-0.7292,141.8,98.4,0.465
30.46,32058.5,35026.6,0.3248,0.0645,141.8,98.4,0.465
30.48,32060.6,35388.1,0.3365,0.9531,141.8,98.4,0.465
30.5,32273.2,35648.5,1.5182,1.593,141.8,98.4,0.465
30.52,32390.5,35707.1,2.1707,1.7372,141.8,98.4,0.465
30.54,32297.9,35680.6,1.656,1.672,141.8,98.4,0.465
30.56,32113.0,35557.5,0.6275,1.3694,141.8,98.4,0.465
30.58,32104.7,35396.0,0.5818,0.9725,141.8,98.4,0.465
30.6,32022.5,35175.0,0.1242,0.4294,141.8,98.4,0.465
30.62,32008.3,35049.6,0.0453,0.1212,141.8,98.4,0.465
30.64,32025.4,35186.0,0.1404,0.4565,141.8,98.4,0.465
30.66,32014.5,35027.9,0.08,0.0678,141.8,98.4,0.465
30.68,31961.6,34855.7,-0.2142,-0.3553,141.8,98.4,0.465
30.7,32034.3,34743.2,0.1902,-0.632,141.8,98.4,0.465
30.72,31827.4,34770.6,-0.9602,-0.5645,141.8,98.4,0.465
30.74,31870.5,34736.3,-0.7209,-0.649,141.8,98.4,0.465
30.76,31901.0,34807.7,-0.5511,-0.4733,141.8,98.4,0.465
30.78,31774.1,34575.6,-1.2567,-1.044,141.8,98.4,0.465
30.8,31796.6,34502.4,-1.1319,-1.2237,141.8,98.4,0.465
30.82,31819.9,34498.8,-1.0019,-1.2325,141.8,98.4,0.465
30.84,31800.1,34440.3,-1.1121,-1.3765,141.8,98.4,0.465
30.86,31778.7,34616.7,-1.2313,-0.9428,141.8,98.4,0.465
30.88,31969.8,34935.1,-0.1684,-0.1604,141.8,98.4,0.465
30.9,32127.6,35325.0,0.7089,0.7981,141.8,98.4,0.465
30.92,32266.5,35617.7,1.4809,1.5173,141.8,98.4,0.465
30.94,32320.8,35793.1,1.7834,1.9484,141.8,98.4,0.465
30.96,32269.9,35648.9,1.5,1.5942,141.8,98.4,0.465
30.98,32285.4,35588.2,1.586,1.4449,141.8,98.4,0.465
31.0,32095.9,35336.8,0.5324,0.827,141.8,98.4,0.465
31.02,32060.6,35152.5,0.3364,0.374,141.8,98.4,0.465
31.04,32016.7,35044.2,0.092,0.1077,141.8,98.4,0.465
31.06,32032.8,35000.6,0.1816,0.0006,141.8,98.4,0.465
31.08,31989.4,35041.5,-0.0594,0.1013,141.8,98.4,0.465
31.1,31962.8,34884.9,-0.2073,-0.2838,141.8,98.4,0.465
31.12,31907.8,34730.6,-0.5134,-0.6629,141.8,98.4,0.465
31.14,31872.9,34717.6,-0.7074,-0.695,141.8,98.4,0.465
31.16,31931.9,34734.3,-0.3795,-0.6538,141.8,98.4,0.465
31.18,31842.9,34628.4,-0.8741,-0.9141,141.8,98.4,0.465
31.2,31916.5,34558.4,-0.465,-1.086,141.8,98.4,0.465
31.22,31765.2,34509.9,-1.3064,-1.2053,141.8,98.4,0.465
31.24,31766.8,34410.9,-1.2976,-1.4486,141.8,98.4,0.465
31.26,31813.5,34509.8,-1.038,-1.2056,141.8,98.4,0.465
31.28,31816.5,34615.1,-1.0211,-0.9467,141.8,98.4,0.465
31.3,31952.6,34787.4,-0.2645,-0.5232,141.8,98.4,0.465
31.32,32178.4,35204.9,0.9911,0.5029,141.8,98.4,0.465
31.34,32247.5,35549.2,1.3757,1.3489,141.8,98.4,0.465
31.36,32339.7,35816.2,1.8883,2.0053,141.8,98.4,0.465
31.38,32237.6,35754.2,1.3207,1.8529,141.8,98.4,0.465
31.4,32214.6,35530.1,1.1927,1.3021,141.8,98.4,0.465
31.42,32141.7,35352.5,0.7871,0.8656,141.8,98.4,0.465
31.44,32073.0,35204.2,0.405,0.501,141.8,98.4,0.465
31.46,32112.9,35047.4,0.6273,0.1158,141.8,98.4,0.465
31.48,32032.6,35105.9,0.1806,0.2594,141.8,98.4,0.465
31.5,32015.3,34924.6,0.0844,-0.1861,141.8,98.4,0.465
31.52,31949.0,34910.9,-0.2843,-0.2197,141.8,98.4,0.465
31.54,31942.4,34770.6,-0.321,-0.5647,141.8,98.4,0.465
31.56,31894.6,34743.0,-0.5866,-0.6324,141.8,98.4,0.465
31.58,31855.8,34765.3,-0.8025,-0.5777,141.8,98.4,0.465
31.6,31933.4,34635.9,-0.3707,-0.8956,141.8,98.4,0.465
31.62,31836.4,34578.0,-0.9103,-1.0379,141.8,98.4,0.465
31.64,31808.8,34613.4,-1.0637,-0.9509,141.8,98.4,0.465
31.66,31787.5,34480.9,-1.182,-1.2767,141.8,98.4,0.465
31.68,31743.9,34405.8,-1.4247,-1.4611,141.8,98.4,0.465
31.7,31865.0,34579.5,-0.7512,-1.0342,141.8,98.4,0.465
31.72,31933.2,34850.0,-0.3723,-0.3695,141.8,98.4,0.465
31.74,31989.6,35175.7,-0.0587,0.431,141.8,98.4,0.465
31.76,32269.8,35490.8,1.4996,1.2054,141.8,98.4,0.465
31.78,32319.0,35644.1,1.7731,1.5823,141.8,98.4,0.465
31.8,32336.1,35774.5,1.8683,1.9028,141.8,98.4,0.465
31.82,32315.0,35624.4,1.7507,1.5338,141.8,98.4,0.465
31.84,32243.8,35392.0,1.3548,0.9626,141.8,98.4,0.465
31.86,32079.7,35227.8,0.4423,0.559,141.8,98.4,0.465
31.88,32081.7,35140.9,0.4534,0.3456,141.8,98.4,0.465
31.9,32077.8,34956.8,0.4322,-0.107,141.8,98.4,0.465
31.92,32061.7,35109.5,0.3425,0.2684,141.8,98.4,0.465
31.94,32018.6,34904.6,0.1026,-0.2352,141.8,98.4,0.465
31.96,31972.8,34856.9,-0.152,-0.3526,141.8,98.4,0.465
31.98,31921.2,34702.3,-0.4391,-0.7323,141.8,98.4,0.465
32.0,31707.8,34691.2,-1.6255,-0.7597,141.8,98.4,0.465
32.02,31842.4,34700.3,-0.877,-0.7373,141.8,98.4,0.465
32.04,31880.1,34591.8,-0.6675,-1.004,141.8,98.4,0.465
32.06,31887.0,34653.0,-0.6289,-0.8536,141.8,98.4,0.465
32.08,31775.0,34511.4,-1.2516,-1.2016,141.8,98.4,0.465
32.1,31750.5,34425.3,-1.3878,-1.4131,141.8,98.4,0.465
32.12,31816.0,34495.7,-1.0238,-1.2403,141.8,98.4,0.465
32.14,31989.7,34863.6,-0.0582,-0.3361,141.8,98.4,0.465
32.16,32017.7,35139.1,0.0975,0.3411,141.8,98.4,0.465
32.18,32131.5,35490.4,0.7306,1.2046,141.8,98.4,0.465
32.2,32340.1,35692.4,1.8907,1.7009,141.8,98.4,0.465
32.22,32306.1,35811.5,1.7013,1.9937,141.8,98.4,0.465
32.24,32251.2,35660.7,1.396,1.623,141.8,98.4,0.465
32.26,32218.6,35460.9,1.2148,1.1321,141.8,98.4,0.465
32.28,32149.9,35277.6,0.833,0.6815,141.8,98.4,0.465
32.3,32007.0,35138.6,0.0384,0.3398,141.8,98.4,0.465
32.32,32060.1,35175.5,0.3333,0.4306,141.8,98.4,0.465
32.34,31996.0,35070.1,-0.0231,0.1716,141.8,98.4,0.465
32.36,32033.5,34864.9,0.1856,-0.3327,141.8,98.4,0.465
32.38,31995.6,34801.5,-0.025,-0.4885,141.8,98.4,0.465
32.4,31961.8,34621.6,-0.2131,-0.9309,141.8,98.4,0.465
32.42,31861.5,34647.8,-0.7706,-0.8665,141.8,98.4,0.465
32.44,31800.2,34573.4,-1.1118,-1.0493,141.8,98.4,0.465
32.46,31853.8,34691.5,-0.8136,-0.759,141.8,98.4,0.465
32.48,31798.7,34624.1,-1.1202,-0.9246,141.8,98.4,0.465
32.5,31846.5,34432.7,-0.8542,-1.3952,141.8,98.4,0.465
32.52,31660.5,34471.5,-1.8883,-1.2996,141.8,98.4,0.465
32.54,31855.7,34423.2,-0.8029,-1.4183,141.8,98.4,0.465
32.56,31827.1,34747.9,-0.9619,-0.6204,141.8,98.4,0.465
32.58,32051.4,35005.9,0.2852,0.0136,141.8,98.4,0.465
32.6,32192.3,35419.1,1.0684,1.0294,141.8,98.4,0.465
32.62,32260.2,35712.5,1.4464,1.7505,141.8,98.4,0.465
32.64,32350.9,35771.5,1.9506,1.8954,141.8,98.4,0.465
32.66,32327.4,35620.1,1.8199,1.5233,141.8,98.4,0.465
32.68,32163.9,35520.3,0.9107,1.2779,141.8,98.4,0.465
32.7,32141.3,35249.0,0.785,0.6113,141.8,98.4,0.465
32.72,32086.0,35157.4,0.4778,0.3861,141.8,98.4,0.465
32.74,32054.2,35026.1,0.3008,0.0634,141.8,98.4,0.465
32.76,32098.5,35122.3,0.5472,0.2999,141.8,98.4,0.465
32.78,31914.8,35035.7,-0.4745,0.087,141.8,98.4,0.465
32.8,31933.5,34805.1,-0.3703,-0.4798,141.8,98.4,0.465
32.82,31872.3,34804.3,-0.7105,-0.4816,141.8,98.4,0.465
32.84,31902.7,34670.9,-0.5418,-0.8096,141.8,98.4,0.465
32.86,31990.5,34697.8,-0.0536,-0.7435,141.8,98.4,0.465
32.88,31864.3,34636.8,-0.755,-0.8935,141.8,98.4,0.465
32.9,31824.5,34561.1,-0.9768,-1.0795,141.8,98.4,0.465
32.92,31716.5,34511.1,-1.5768,-1.2023,141.8,98.4,0.465
32.94,31788.7,34415.1,-1.1754,-1.4384,141.8,98.4,0.465
32.96,31827.2,34496.4,-0.9616,-1.2386,141.8,98.4,0.465
32.98,31838.3,34646.6,-0.8999,-0.8693,141.8,98.4,0.465
33.0,31948.9,34996.6,-0.2848,-0.009,141.8,98.4,0.465
33.02,32163.5,35313.7,0.9082,0.7703,141.8,98.4,0.465
33.04,32266.0,35746.3,1.4784,1.8335,141.8,98.4,0.465
33.06,32429.4,35736.9,2.3872,1.8103,141.8,98.4,0.465
33.08,32206.8,35692.4,1.1491,1.7009,141.8,98.4,0.465
33.1,32194.9,35501.7,1.0833,1.2324,141.8,98.4,0.465
33.12,32214.3,35312.1,1.1908,0.7663,141.8,98.4,0.465
33.14,32035.9,35146.8,0.199,0.3601,141.8,98.4,0.465
33.16,32009.0,35134.7,0.0495,0.3304,141.8,98.4,0.465
33.18,32124.1,35065.6,0.6894,0.1604,141.8,98.4,0.465
33.2,31903.1,34979.3,-0.5393,-0.0516,141.8,98.4,0.465
33.22,31867.5,34889.3,-0.7374,-0.2728,141.8,98.4,0.465
33.24,31880.0,34885.9,-0.6677,-0.2811,141.8,98.4,0.465
33.26,31918.9,34699.1,-0.4514,-0.7403,141.8,98.4,0.465
33.28,31846.3,34679.0,-0.8554,-0.7898,141.8,98.4,0.465
33.3,31800.2,34607.4,-1.1117,-0.9658,141.8,98.4,0.465
33.32,31796.5,34682.5,-1.1321,-0.781,141.8,98.4,0.465
33.34,31800.0,34557.8,-1.1128,-1.0875,141.8,98.4,0.465
33.36,31867.8,34363.8,-0.7359,-1.5645,141.8,98.4,0.465
33.38,31826.0,34530.9,-0.968,-1.1538,141.8,98.4,0.465
33.4,31852.5,34641.8,-0.8207,-0.8812,141.8,98.4,0.465
33.42,31939.7,34995.6,-0.3359,-0.0115,141.8,98.4,0.465
33.44,32103.3,35369.7,0.5739,0.9078,141.8,98.4,0.465
33.46,32319.2,35640.5,1.7743,1.5735,141.8,98.4,0.465
33.48,32391.7,35704.0,2.1773,1.7295,141.8,98.4,0.465
33.5,32352.4,35735.2,1.9591,1.8062,141.8,98.4,0.465
33.52,32211.3,35473.3,1.1743,1.1625,141.8,98.4,0.465
33.54,32067.3,35346.9,0.3737,0.8519,141.8,98.4,0.465
33.56,32054.9,35242.7,0.3046,0.5957,141.8,98.4,0.465
33.58,32101.3,35164.7,0.5625,0.404,141.8,98.4,0.465
33.6,32009.2,35172.6,0.0506,0.4235,141.8,98.4,0.465
33.62,31973.8,34952.5,-0.1464,-0.1176,141.8,98.4,0.465
33.64,31982.1,34911.5,-0.1,-0.2183,141.8,98.4,0.465
33.66,31918.1,34862.2,-0.4563,-0.3394,141.8,98.4,0.465
33.68,31859.8,34706.1,-0.7804,-0.7232,141.8,98.4,0.465
33.7,31832.0,34741.7,-0.9346,-0.6355,141.8,98.4,0.465
33.72,31833.3,34650.2,-0.9277,-0.8605,141.8,98.4,0.465
33.74,31770.4,34644.6,-1.2775,-0.8743,141.8,98.4,0.465
33.76,31855.6,34522.7,-0.8039,-1.174,141.8,98.4,0.465
33.78,31834.8,34420.8,-0.9192,-1.4244,141.8,98.4,0.465
33.8,31776.8,34453.4,-1.242,-1.3443,141.8,98.4,0.465
33.82,31830.0,34583.3,-0.946,-1.0249,141.8,98.4,0.465
33.84,32021.0,34935.9,0.1161,-0.1584,141.8,98.4,0.465
33.86,32089.3,35296.1,0.4956,0.727,141.8,98.4,0.465
33.88,32193.5,35570.6,1.0753,1.4017,141.8,98.4,0.465
33.9,32321.1,35734.9,1.7848,1.8054,141.8,98.4,0.465
33.92,32247.2,35791.7,1.374,1.945,141.8,98.4,0.465
33.94,32283.2,35520.7,1.5738,1.2791,141.8,98.4,0.465
33.96,32021.4,35199.1,0.1181,0.4886,141.8,98.4,0.465
33.98,32082.9,35181.5,0.4604,0.4453,141.8,98.4,0.465
34.0,32077.5,35063.5,0.4305,0.1553,141.8,98.4,0.465
34.02,32050.6,35149.6,0.2808,0.367,141.8,98.4,0.465
34.04,31940.5,35003.2,-0.3313,0.0071,141.8,98.4,0.465
34.06,32073.9,34856.9,0.41,-0.3524,141.8,98.4,0.465
34.08,31906.1,34810.1,-0.5228,-0.4675,141.8,98.4,0.465
34.1,31877.8,34717.8,-0.6804,-0.6943,141.8,98.4,0.465
34.12,31869.3,34676.4,-0.7275,-0.7961,141.8,98.4,0.465
34.14,31837.0,34684.9,-0.9069,-0.7751,141.8,98.4,0.465
34.16,31842.3,34584.9,-0.8774,-1.0211,141.8,98.4,0.465
34.18,31878.1,34670.7,-0.6787,-0.8102,141.8,98.4,0.465
34.2,31894.6,34517.6,-0.5866,-1.1865,141.8,98.4,0.465
34.22,31759.0,34460.8,-1.3409,-1.3261,141.8,98.4,0.465
34.24,31843.3,34583.3,-0.872,-1.0249,141.8,98.4,0.465
34.26,31885.7,34858.9,-0.6363,-0.3475,141.8,98.4,0.465
34.28,32065.5,35164.0,0.3637,0.4022,141.8,98.4,0.465
34.3,32301.9,35675.4,1.6779,1.6592,141.8,98.4,0.465
34.32,32345.7,35751.1,1.9215,1.8453,141.8,98.4,0.465
34.34,32413.6,35642.8,2.2989,1.579,141.8,98.4,0.465
34.36,32209.1,35644.9,1.1623,1.5842,141.8,98.4,0.465
34.38,32200.6,35433.6,1.1148,1.065,141.8,98.4,0.465
34.4,32076.0,35180.7,0.4219,0.4434,141.8,98.4,0.465
34.42,32078.5,35140.6,0.4357,0.3449,141.8,98.4,0.465
34.44,32096.0,35140.2,0.5332,0.3439,141.8,98.4,0.465
34.46,31970.7,35063.0,-0.1634,0.1542,141.8,98.4,0.465
34.48,31929.5,34913.4,-0.393,-0.2136,141.8,98.4,0.465
34.5,31973.1,34818.2,-0.1503,-0.4475,141.8,98.4,0.465
34.52,31954.3,34737.2,-0.2549,-0.6468,141.8,98.4,0.465
34.54,31825.4,34645.8,-0.9715,-0.8714,141.8,98.4,0.465
34.56,31851.4,34727.4,-0.8272,-0.6706,141.8,98.4,0.465
34.58,31836.7,34567.5,-0.9087,-1.0638,141.8,98.4,0.465
34.6,31904.5,34626.6,-0.5315,-0.9185,141.8,98.4,0.465
34.62,31875.3,34523.2,-0.6939,-1.1726,141.8,98.4,0.465
34.64,31746.4,34496.1,-1.4111,-1.2392,141.8,98.4,0.465
34.66,31824.8,34568.7,-0.9747,-1.0608,141.8,98.4,0.465
34.68,31915.6,34849.1,-0.4697,-0.3716,141.8,98.4,0.465
34.7,32077.3,35178.2,0.4289,0.4372,141.8,98.4,0.465
34.72,32291.2,35488.7,1.6184,1.2004,141.8,98.4,0.465
34.74,32319.9,35706.8,1.7781,1.7364,141.8,98.4,0.465
34.76,32382.5,35724.1,2.1264,1.779,141.8,98.4,0.465
34.78,32256.5,35635.1,1.4257,1.5601,141.8,98.4,0.465
34.8,32122.6,35454.4,0.6813,1.116,141.8,98.4,0.465
34.82,32093.2,35366.8,0.5175,0.9008,141.8,98.4,0.465
34.84,32101.8,35102.0,0.5653,0.25,141.8,98.4,0.465
34.86,31962.8,35077.8,-0.2077,0.1905,141.8,98.4,0.465
34.88,32022.9,35079.6,0.1267,0.1949,141.8,98.4,0.465
34.9,31960.5,34964.7,-0.2204,-0.0875,141.8,98.4,0.465
34.92,31890.1,34939.2,-0.6119,-0.1503,141.8,98.4,0.465
34.94,31866.3,34835.7,-0.7442,-0.4046,141.8,98.4,0.465
34.96,31859.8,34687.3,-0.7805,-0.7692,141.8,98.4,0.465
34.98,31910.6,34626.4,-0.4979,-0.9191,141.8,98.4,0.465
35.0,31858.0,34643.7,-0.7903,-0.8766,141.8,98.4,0.465
35.02,31823.5,34615.8,-0.9821,-0.9451,141.8,98.4,0.465
35.04,31763.2,34489.9,-1.3172,-1.2544,141.8,98.4,0.465
35.06,31752.4,34446.2,-1.3774,-1.3619,141.8,98.4,0.465
35.08,31752.6,34535.0,-1.3765,-1.1437,141.8,98.4,0.465
35.1,31918.7,34819.3,-0.4529,-0.4448,141.8,98.4,0.465
35.12,32010.8,35142.1,0.0596,0.3484,141.8,98.4,0.465
35.14,32153.5,35406.5,0.853,0.9984,141.8,98.4,0.465
35.16,32309.0,35687.7,1.7178,1.6893,141.8,98.4,0.465
35.18,32380.3,35706.1,2.1142,1.7346,141.8,98.4,0.465
35.2,32261.5,35604.1,1.4533,1.4839,141.8,98.4,0.465
35.22,32200.7,35373.5,1.1155,0.9172,141.8,98.4,0.465
35.24,32093.6,35321.1,0.5197,0.7883,141.8,98.4,0.465
35.26,31999.0,35178.6,-0.0063,0.4381,141.8,98.4,0.465
35.28,32021.7,35043.3,0.1201,0.1057,141.8,98.4,0.465
35.3,32067.7,35104.6,0.3758,0.2562,141.8,98.4,0.465
35.32,31967.5,34916.9,-0.1815,-0.205,141.8,98.4,0.465
35.34,31986.2,34798.6,-0.0774,-0.4958,141.8,98.4,0.465
35.36,31984.5,34684.0,-0.0866,-0.7775,141.8,98.4,0.465
35.38,31776.8,34659.8,-1.2416,-0.8369,141.8,98.4,0.465
35.4,31915.3,34748.6,-0.4715,-0.6185,141.8,98.4,0.465
35.42,31945.4,34661.8,-0.3043,-0.8319,141.8,98.4,0.465
35.44,31789.2,34589.0,-1.173,-1.0109,141.8,98.4,0.465
35.46,31776.8,34518.8,-1.2417,-1.1835,141.8,98.4,0.465
35.48,31782.9,34472.5,-1.2078,-1.2973,141.8,98.4,0.465
35.5,31756.2,34498.1,-1.3561,-1.2343,141.8,98.4,0.465
35.52,31851.1,34764.6,-0.8289,-0.5793,141.8,98.4,0.465
35.54,32064.5,35034.8,0.3579,0.0847,141.8,98.4,0.465
35.56,32261.9,35469.5,1.4558,1.1531,141.8,98.4,0.465
35.58,32298.3,35667.8,1.658,1.6406,141.8,98.4,0.465
35.6,32326.6,35683.1,1.8155,1.6781,141.8,98.4,0.465
35.62,32352.5,35776.7,1.9593,1.9082,141.8,98.4,0.465
35.64,32192.1,35554.0,1.0673,1.3609,141.8,98.4,0.465
35.66,32128.6,35290.3,0.7146,0.7128,141.8,98.4,0.465
35.68,32102.0,35136.3,0.5664,0.3343,141.8,98.4,0.465
35.7,31969.2,35204.7,-0.172,0.5024,141.8,98.4,0.465
35.72,32032.5,35080.6,0.1803,0.1974,141.8,98.4,0.465
35.74,31985.3,34929.2,-0.0822,-0.1748,141.8,98.4,0.465
35.76,31999.7,34912.3,-0.0024,-0.2163,141.8,98.4,0.465
35.78,31906.4,34671.2,-0.5209,-0.809,141.8,98.4,0.465
35.8,31923.2,34610.3,-0.4279,-0.9585,141.8,98.4,0.465
35.82,31819.0,34648.7,-1.0069,-0.8643,141.8,98.4,0.465
35.84,31915.6,34677.3,-0.4697,-0.7939,141.8,98.4,0.465
35.86,31870.1,34691.5,-0.723,-0.759,141.8,98.4,0.465
35.88,31749.5,34510.3,-1.3939,-1.2043,141.8,98.4,0.465
35.9,31704.1,34577.5,-1.646,-1.0393,141.8,98.4,0.465
35.92,31715.9,34504.0,-1.5803,-1.2199,141.8,98.4,0.465
35.94,31793.8,34596.3,-1.1474,-0.993,141.8,98.4,0.465
35.96,31945.0,34994.9,-0.3065,-0.0133,141.8,98.4,0.465
35.98,32141.6,35301.4,0.7868,0.7399,141.8,98.4,0.465
36.0,32257.9,35620.3,1.4331,1.5237,141.8,98.4,0.465
36.02,32309.3,35742.1,1.719,1.8232,141.8,98.4,0.465
36.04,32295.0,35597.8,1.6396,1.4685,141.8,98.4,0.465
36.06,32278.8,35443.0,1.5493,1.0881,141.8,98.4,0.465
36.08,32177.4,35304.9,0.986,0.7486,141.8,98.4,0.465
36.1,32104.4,35225.4,0.58,0.5532,141.8,98.4,0.465
36.12,32010.1,35107.5,0.0552,0.2634,141.8,98.4,0.465
36.14,32045.3,35095.1,0.2511,0.233,141.8,98.4,0.465
36.16,31972.8,34967.3,-0.1521,-0.081,141.8,98.4,0.465
36.18,31885.1,34851.2,-0.6394,-0.3664,141.8,98.4,0.465
36.2,31941.9,34738.1,-0.3239,-0.6445,141.8,98.4,0.465
36.22,31852.7,34614.8,-0.82,-0.9475,141.8,98.4,0.465
36.24,31854.2,34588.6,-0.8117,-1.0119,141.8,98.4,0.465
36.26,31873.0,34784.0,-0.707,-0.5316,141.8,98.4,0.465
36.28,31802.9,34645.3,-1.0965,-0.8725,141.8,98.4,0.465
36.3,31808.7,34534.8,-1.0644,-1.1441,141.8,98.4,0.465
36.32,31756.2,34477.0,-1.3562,-1.2863,141.8,98.4,0.465
36.34,31800.3,34502.6,-1.1109,-1.2233,141.8,98.4,0.465
36.36,31887.6,34654.1,-0.6254,-0.8508,141.8,98.4,0.465
36.38,31962.9,34952.3,-0.2072,-0.1181,141.8,98.4,0.465
36.4,32167.6,35292.5,0.9314,0.7182,141.8,98.4,0.465
36.42,32344.8,35511.0,1.9164,1.2552,141.8,98.4,0.465
36.44,32300.5,35765.9,1.6703,1.8817,141.8,98.4,0.465
36.46,32242.1,35699.3,1.3456,1.7179,141.8,98.4,0.465
36.48,32314.2,35594.9,1.7463,1.4614,141.8,98.4,0.465
36.5,32204.8,35386.7,1.138,0.9496,141.8,98.4,0.465
36.52,32059.1,35182.9,0.3278,0.4488,141.8,98.4,0.465
36.54,32049.0,35157.6,0.2721,0.3867,141.8,98.4,0.465
36.56,32105.2,35103.8,0.5842,0.2543,141.8,98.4,0.465
36.58,32010.8,35029.5,0.0594,0.0718,141.8,98.4,0.465
36.6,32033.1,34838.4,0.1836,-0.3979,141.8,98.4,0.465
36.62,31972.4,34777.0,-0.1543,-0.5488,141.8,98.4,0.465
36.64,31837.7,34752.3,-0.9029,-0.6096,141.8,98.4,0.465
36.66,31893.7,34711.3,-0.592,-0.7104,141.8,98.4,0.465
36.68,31872.3,34691.1,-0.7107,-0.76,141.8,98.4,0.465
36.7,31835.9,34618.7,-0.9129,-0.9379,141.8,98.4,0.465
36.72,31883.3,34593.7,-0.6494,-0.9993,141.8,98.4,0.465
36.74,31789.3,34446.1,-1.1725,-1.3622,141.8,98.4,0.465
36.76,31810.4,34407.2,-1.0547,-1.4579,141.8,98.4,0.465
36.78,31886.8,34631.4,-0.6302,-0.9068,141.8,98.4,0.465
36.8,31937.9,34798.5,-0.3457,-0.4961,141.8,98.4,0.465
36.82,32116.4,35228.8,0.6464,0.5616,141.8,98.4,0.465
36.84,32289.6,35698.3,1.6094,1.7154,141.8,98.4,0.465
36.86,32265.0,35776.8,1.4728,1.9084,141.8,98.4,0.465
36.88,32310.1,35804.6,1.7236,1.9767,141.8,98.4,0.465
36.9,32207.1,35595.7,1.1507,1.4634,141.8,98.4,0.465
36.92,32131.8,35423.6,0.7323,1.0404,141.8,98.4,0.465
36.94,32086.1,35145.5,0.4779,0.3568,141.8,98.4,0.465
36.96,32037.2,35141.6,0.2064,0.3472,141.8,98.4,0.465
36.98,32061.2,35081.4,0.3394,0.1993,141.8,98.4,0.465
37.0,32021.0,34980.0,0.1163,-0.05,141.8,98.4,0.465
37.02,32002.3,34951.6,0.0122,-0.1198,141.8,98.4,0.465
37.04,32030.5,34852.6,0.1687,-0.363,141.8,98.4,0.465
37.06,31910.3,34711.1,-0.4995,-0.7108,141.8,98.4,0.465
37.08,31870.3,34734.9,-0.7219,-0.6522,141.8,98.4,0.465
37.1,31897.5,34599.7,-0.5705,-0.9845,141.8,98.4,0.465
37.12,31895.3,34676.3,-0.5831,-0.7964,141.8,98.4,0.465
37.14,31854.0,34627.8,-0.8125,-0.9155,141.8,98.4,0.465
37.16,31777.8,34491.0,-1.2364,-1.2518,141.8,98.4,0.465
37.18,31661.1,34459.2,-1.8852,-1.3299,141.8,98.4,0.465
37.2,31787.2,34537.2,-1.1838,-1.1382,141.8,98.4,0.465
37.22,31886.4,34830.8,-0.6324,-0.4165,141.8,98.4,0.465
37.24,32070.4,35076.1,0.391,0.1863,141.8,98.4,0.465
37.26,32198.2,35490.8,1.1012,1.2055,141.8,98.4,0.465
37.28,32263.0,35747.4,1.462,1.8363,141.8,98.4,0.465
37.3,32359.0,35842.3,1.9958,2.0694,141.8,98.4,0.465
37.32,32297.6,35623.6,1.6539,1.5319,141.8,98.4,0.465
37.34,32138.0,35438.3,0.7668,1.0766,141.8,98.4,0.465
37.36,31997.9,35333.5,-0.0124,0.8189,141.8,98.4,0.465
37.38,32108.8,35103.9,0.6042,0.2546,141.8,98.4,0.465
37.4,32017.8,35059.8,0.0984,0.1462,141.8,98.4,0.465
37.42,32045.8,35051.3,0.2537,0.1254,141.8,98.4,0.465
37.44,31951.5,34955.7,-0.2705,-0.1097,141.8,98.4,0.465
37.46,31976.5,34792.0,-0.1316,-0.512,141.8,98.4,0.465
37.48,31926.6,34703.8,-0.4087,-0.7289,141.8,98.4,0.465
37.5,31951.3,34683.3,-0.2713,-0.7791,141.8,98.4,0.465
37.52,31847.9,34609.9,-0.8465,-0.9595,141.8,98.4,0.465
37.54,31808.9,34602.6,-1.063,-0.9774,141.8,98.4,0.465
37.56,31789.2,34569.4,-1.1727,-1.0591,141.8,98.4,0.465
37.58,31786.0,34552.9,-1.1906,-1.0998,141.8,98.4,0.465
37.6,31778.9,34456.2,-1.2301,-1.3374,141.8,98.4,0.465
37.62,31827.0,34592.2,-0.9624,-1.003,141.8,98.4,0.465
37.64,31844.4,34795.0,-0.866,-0.5045,141.8,98.4,0.465
37.66,32110.3,35180.5,0.6128,0.4429,141.8,98.4,0.465
37.68,32121.2,35450.6,0.6733,1.1067,141.8,98.4,0.465
37.7,32285.1,35761.3,1.5845,1.8703,141.8,98.4,0.465
37.72,32355.8,35695.5,1.9776,1.7087,141.8,98.4,0.465
37.74,32265.2,35691.7,1.4742,1.6992,141.8,98.4,0.465
37.76,32152.3,35419.5,0.8459,1.0302,141.8,98.4,0.465
37.78,32111.6,35319.5,0.6199,0.7844,141.8,98.4,0.465
37.8,32076.1,35137.4,0.4226,0.3369,141.8,98.4,0.465
37.82,32029.9,35074.7,0.1658,0.1829,141.8,98.4,0.465
37.84,32094.6,35026.1,0.5255,0.0634,141.8,98.4,0.465
37.86,32046.1,34900.3,0.2555,-0.2459,141.8,98.4,0.465
37.88,31894.1,34893.0,-0.5896,-0.2638,141.8,98.4,0.465
37.9,31943.8,34786.5,-0.3134,-0.5256,141.8,98.4,0.465
37.92,31889.0,34634.9,-0.6176,-0.8982,141.8,98.4,0.465
37.94,31851.2,34601.8,-0.8281,-0.9795,141.8,98.4,0.465
37.96,31916.7,34648.4,-0.4641,-0.8649,141.8,98.4,0.465
37.98,31799.9,34493.7,-1.1134,-1.2452,141.8,98.4,0.465
38.0,31870.4,34556.9,-0.7216,-1.0899,141.8,98.4,0.465
38.02,31788.9,34525.8,-1.1745,-1.1662,141.8,98.4,0.465
38.04,31778.6,34574.5,-1.232,-1.0466,141.8,98.4,0.465
38.06,31895.2,34647.4,-0.5837,-0.8673,141.8,98.4,0.465
38.08,32042.0,35020.8,0.233,0.0503,141.8,98.4,0.465
38.1,32208.1,35482.8,1.1563,1.1858,141.8,98.4,0.465
38.12,32265.2,35609.7,1.4738,1.4977,141.8,98.4,0.465
38.14,32278.5,35807.5,1.5477,1.9839,141.8,98.4,0.465
38.16,32314.5,35745.6,1.7482,1.8318,141.8,98.4,0.465
38.18,32186.5,35461.6,1.0363,1.1337,141.8,98.4,0.465
38.2,32082.4,35356.1,0.4574,0.8746,141.8,98.4,0.465
38.22,32081.5,35212.9,0.4525,0.5225,141.8,98.4,0.465
38.24,32014.4,35116.4,0.0794,0.2854,141.8,98.4,0.465
38.26,31994.5,35069.5,-0.0312,0.1701,141.8,98.4,0.465
38.28,31903.6,35002.4,-0.5366,0.0052,141.8,98.4,0.465
38.3,31927.8,34870.1,-0.4019,-0.32,141.8,98.4,0.465
38.32,31790.4,34748.0,-1.1664,-0.6201,141.8,98.4,0.465
38.34,31778.1,34631.7,-1.2348,-0.9061,141.8,98.4,0.465
38.36,31905.9,34645.7,-0.5239,-0.8715,141.8,98.4,0.465
38.38,31821.5,34709.4,-0.9934,-0.715,141.8,98.4,0.465
38.4,31799.9,34668.5,-1.1131,-0.8155,141.8,98.4,0.465
38.42,31784.6,34488.7,-1.1984,-1.2574,141.8,98.4,0.465
38.44,31799.1,34456.5,-1.1179,-1.3366,141.8,98.4,0.465
38.46,31792.2,34540.1,-1.1564,-1.1311,141.8,98.4,0.465
38.48,31840.4,34695.5,-0.888,-0.7491,141.8,98.4,0.465
38.5,32106.4,35046.5,0.591,0.1134,141.8,98.4,0.465
38.52,32144.6,35294.0,0.8032,0.7219,141.8,98.4,0.465
38.54,32317.3,35573.7,1.7635,1.4092,141.8,98.4,0.465
38.56,32242.8,35811.1,1.3492,1.9927,141.8,98.4,0.465
38.58,32258.2,35690.1,1.4352,1.6953,141.8,98.4,0.465
38.6,32213.2,35498.3,1.1849,1.2238,141.8,98.4,0.465
38.62,32156.6,35281.4,0.87,0.6908,141.8,98.4,0.465
38.64,32051.7,35131.2,0.2868,0.3218,141.8,98.4,0.465
38.66,31987.5,35116.6,-0.0701,0.2857,141.8,98.4,0.465
38.68,32038.8,35130.3,0.2151,0.3194,141.8,98.4,0.465
38.7,32125.5,34972.4,0.6971,-0.0686,141.8,98.4,0.465
38.72,31877.5,34865.6,-0.6818,-0.3311,141.8,98.4,0.465
38.74,31815.8,34842.5,-1.025,-0.3879,141.8,98.4,0.465
38.76,31849.8,34665.0,-0.8357,-0.824,141.8,98.4,0.465
38.78,31795.8,34697.0,-1.1361,-0.7455,141.8,98.4,0.465
38.8,31921.0,34603.4,-0.4402,-0.9755,141.8,98.4,0.465
38.82,31939.1,34680.8,-0.3391,-0.7852,141.8,98.4,0.465
38.84,31856.6,34558.8,-0.7979,-1.0852,141.8,98.4,0.465
38.86,31826.3,34495.0,-0.9663,-1.242,141.8,98.4,0.465
38.88,31802.0,34477.5,-1.1014,-1.2848,141.8,98.4,0.465
38.9,31846.3,34682.6,-0.8552,-0.7809,141.8,98.4,0.465
38.92,31992.0,34916.2,-0.0451,-0.2068,141.8,98.4,0.465
38.94,32123.6,35269.1,0.6866,0.6606,141.8,98.4,0.465
38.96,32355.5,35584.3,1.9759,1.4352,141.8,98.4,0.465
38.98,32300.8,35776.8,1.6719,1.9083,141.8,98.4,0.465
39.0,32348.8,35674.9,1.9387,1.6579,141.8,98.4,0.465
39.02,32148.4,35504.0,0.8243,1.2379,141.8,98.4,0.465
39.04,32237.4,35301.2,1.3196,0.7394,141.8,98.4,0.465
39.06,32106.8,35294.4,0.5934,0.7228,141.8,98.4,0.465
39.08,32051.8,35138.8,0.2874,0.3403,141.8,98.4,0.465
39.1,32027.0,34983.2,0.1494,-0.0421,141.8,98.4,0.465
39.12,32098.7,34990.8,0.5484,-0.0233,141.8,98.4,0.465
39.14,31985.2,34874.9,-0.0827,-0.3081,141.8,98.4,0.465
39.16,31956.6,34782.7,-0.2418,-0.5349,141.8,98.4,0.465
39.18,31919.6,34717.2,-0.4478,-0.6957,141.8,98.4,0.465
39.2,31870.2,34669.8,-0.7224,-0.8122,141.8,98.4,0.465
39.22,31920.9,34593.2,-0.4406,-1.0007,141.8,98.4,0.465
39.24,31826.7,34623.5,-0.9642,-0.9261,141.8,98.4,0.465
39.26,31829.4,34497.2,-0.9492,-1.2365,141.8,98.4,0.465
39.28,31713.6,34538.8,-1.5931,-1.1343,141.8,98.4,0.465
39.3,31813.4,34427.7,-1.0382,-1.4073,141.8,98.4,0.465
39.32,31824.6,34566.0,-0.976,-1.0673,141.8,98.4,0.465
39.34,31997.0,34955.6,-0.0175,-0.1099,141.8,98.4,0.465
39.36,32147.0,35307.6,0.8165,0.7552,141.8,98.4,0.465
39.38,32230.6,35595.3,1.2816,1.4623,141.8,98.4,0.465
39.4,32246.4,35742.1,1.3697,1.8233,141.8,98.4,0.465
39.42,32260.1,35696.2,1.4457,1.7103,141.8,98.4,0.465
39.44,32308.8,35544.4,1.7164,1.3371,141.8,98.4,0.465
39.46,32178.2,35362.6,0.9902,0.8905,141.8,98.4,0.465
39.48,32043.3,35174.3,0.24,0.4276,141.8,98.4,0.465
39.5,32106.1,35073.0,0.5895,0.1787,141.8,98.4,0.465
39.52,32167.4,35096.5,0.9303,0.2363,141.8,98.4,0.465
39.54,32059.2,35023.5,0.3283,0.0569,141.8,98.4,0.465
39.56,32010.3,34890.9,0.0565,-0.2689,141.8,98.4,0.465
39.58,32010.7,34779.2,0.0589,-0.5433,141.8,98.4,0.465
39.6,31903.1,34684.8,-0.5397,-0.7755,141.8,98.4,0.465
39.62,31816.2,34647.8,-1.0225,-0.8664,141.8,98.4,0.465
39.64,31857.0,34664.8,-0.7959,-0.8247,141.8,98.4,0.465
39.66,31779.4,34681.3,-1.2271,-0.784,141.8,98.4,0.465
39.68,31837.1,34623.8,-0.9063,-0.9254,141.8,98.4,0.465
39.7,31858.7,34422.5,-0.7862,-1.4201,141.8,98.4,0.465
39.72,31824.2,34543.4,-0.9783,-1.1231,141.8,98.4,0.465
39.74,31821.2,34514.8,-0.9952,-1.1933,141.8,98.4,0.465
39.76,31909.5,34941.4,-0.5041,-0.1447,141.8,98.4,0.465
39.78,32012.8,35125.9,0.0707,0.3086,141.8,98.4,0.465
39.8,32226.4,35552.8,1.2582,1.3579,141.8,98.4,0.465
39.82,32341.5,35763.4,1.8985,1.8755,141.8,98.4,0.465
39.84,32198.8,35750.4,1.1048,1.8436,141.8,98.4,0.465
39.86,32347.9,35558.5,1.934,1.3719,141.8,98.4,0.465
39.88,32160.4,35360.5,0.8913,0.8852,141.8,98.4,0.465
39.9,32164.5,35189.7,0.9142,0.4655,141.8,98.4,0.465
39.92,32005.6,35172.3,0.0302,0.4227,141.8,98.4,0.465
39.94,32068.3,35079.2,0.3794,0.1938,141.8,98.4,0.465
39.96,31981.4,35034.6,-0.1041,0.0842,141.8,98.4,0.465
39.98,32038.1,34916.9,0.2112,-0.205,141.8,98.4,0.465
40.0,31870.5,34829.0,-0.7206,-0.4211,141.8,98.4,0.465
40.02,31831.0,34675.3,-0.9404,-0.7987,141.8,98.4,0.465
40.04,31842.8,34731.4,-0.8749,-0.6608,141.8,98.4,0.465
40.06,31830.0,34708.6,-0.9458,-0.7169,141.8,98.4,0.465
40.08,31793.4,34745.9,-1.1493,-0.6253,141.8,98.4,0.465
40.1,31770.9,34553.7,-1.2747,-1.0977,141.8,98.4,0.465
40.12,31787.2,34465.1,-1.184,-1.3155,141.8,98.4,0.465
40.14,31711.2,34377.5,-1.6064,-1.5307,141.8,98.4,0.465
40.16,31861.3,34560.6,-0.7721,-1.0807,141.8,98.4,0.465
40.18,31998.7,34784.7,-0.0079,-0.5299,141.8,98.4,0.465
40.2,32008.0,35195.5,0.0438,0.4797,141.8,98.4,0.465
40.22,32178.7,35458.8,0.9932,1.1269,141.8,98.4,0.465
40.24,32227.6,35661.5,1.2649,1.625,141.8,98.4,0.465
40.26,32406.5,35771.1,2.2599,1.8944,141.8,98.4,0.465
40.28,32164.1,35650.0,0.9119,1.5967,141.8,98.4,0.465
40.3,32133.8,35346.2,0.7433,0.8502,141.8,98.4,0.465
40.32,32102.6,35292.0,0.5697,0.7169,141.8,98.4,0.465
40.34,32078.3,35163.6,0.4346,0.4013,141.8,98.4,0.465
40.36,31995.3,35052.0,-0.0268,0.1269,141.8,98.4,0.465
40.38,32010.4,35009.0,0.0571,0.0214,141.8,98.4,0.465
40.4,31883.1,34986.9,-0.6508,-0.033,141.8,98.4,0.465
40.42,31930.4,34831.3,-0.3878,-0.4154,141.8,98.4,0.465
40.44,31975.0,34712.0,-0.1395,-0.7086,141.8,98.4,0.465
40.46,31846.2,34707.5,-0.8559,-0.7196,141.8,98.4,0.465
40.48,31924.1,34589.0,-0.423,-1.011,141.8,98.4,0.465
40.5,31797.7,34690.1,-1.1255,-0.7624,141.8,98.4,0.465
40.52,31941.4,34632.8,-0.3265,-0.9032,141.8,98.4,0.465
40.54,31742.1,34514.5,-1.4347,-1.194,141.8,98.4,0.465
40.56,31672.4,34533.2,-1.8222,-1.1482,141.8,98.4,0.465
40.58,31818.9,34452.9,-1.0076,-1.3455,141.8,98.4,0.465
40.6,31894.3,34705.1,-0.5886,-0.7256,141.8,98.4,0.465
40.62,32019.2,35005.0,0.1062,0.0116,141.8,98.4,0.465
40.64,32202.7,35548.0,1.1263,1.3462,141.8,98.4,0.465
40.66,32389.5,35693.0,2.165,1.7024,141.8,98.4,0.465
40.68,32445.0,35759.6,2.4737,1.8661,141.8,98.4,0.465
40.7,32333.7,35652.6,1.8549,1.6032,141.8,98.4,0.465
40.72,32154.4,35540.5,0.858,1.3276,141.8,98.4,0.465
40.74,32136.4,35245.7,0.758,0.6032,141.8,98.4,0.465
40.76,32145.1,35145.0,0.8064,0.3556,141.8,98.4,0.465
40.78,32056.7,35085.3,0.3146,0.2088,141.8,98.4,0.465
40.8,32033.7,35043.4,0.187,0.1059,141.8,98.4,0.465
40.82,31983.7,34968.4,-0.0913,-0.0785,141.8,98.4,0.465
40.84,31936.2,34786.9,-0.3556,-0.5244,141.8,98.4,0.465
40.86,31915.2,34793.7,-0.4724,-0.5079,141.8,98.4,0.465
40.88,31856.7,34638.8,-0.7975,-0.8886,141.8,98.4,0.465
40.9,31860.1,34668.7,-0.7785,-0.815,141.8,98.4,0.465
40.92,31862.5,34542.3,-0.7652,-1.1256,141.8,98.4,0.465
40.94,31830.5,34515.4,-0.943,-1.1918,141.8,98.4,0.465
40.96,31740.5,34480.3,-1.4434,-1.2781,141.8,98.4,0.465
40.98,31672.6,34430.6,-1.8211,-1.4001,141.8,98.4,0.465
41.0,31725.8,34529.2,-1.5252,-1.158,141.8,98.4,0.465
41.02,31883.3,34604.5,-0.6495,-0.9728,141.8,98.4,0.465
41.04,32005.3,34956.9,0.0289,-0.1068,141.8,98.4,0.465
41.06,32165.2,35296.3,0.9182,0.7275,141.8,98.4,0.465
41.08,32192.7,35715.5,1.0711,1.7577,141.8,98.4,0.465
41.1,32314.2,35769.4,1.7463,1.8902,141.8,98.4,0.465
41.12,32249.9,35658.5,1.3891,1.6176,141.8,98.4,0.465
41.14,32303.9,35523.5,1.6892,1.2859,141.8,98.4,0.465
41.16,32092.7,35294.6,0.5149,0.7233,141.8,98.4,0.465
41.18,32077.3,35210.1,0.4292,0.5155,141.8,98.4,0.465
41.2,32027.5,35120.6,0.1522,0.2957,141.8,98.4,0.465
41.22,31955.0,34929.3,-0.2509,-0.1746,141.8,98.4,0.465
41.24,32023.9,34948.6,0.132,-0.1271,141.8,98.4,0.465
41.26,31853.2,34829.2,-0.8171,-0.4205,141.8,98.4,0.465
41.28,31921.3,34798.9,-0.4384,-0.4951,141.8,98.4,0.465
41.3,31826.6,34720.5,-0.9648,-0.6878,141.8,98.4,0.465
41.32,31858.0,34670.6,-0.7902,-0.8104,141.8,98.4,0.465
41.34,31806.9,34640.4,-1.0741,-0.8845,141.8,98.4,0.465
41.36,31876.6,34604.9,-0.687,-0.9717,141.8,98.4,0.465
41.38,31829.3,34496.1,-0.9501,-1.2393,141.8,98.4,0.465
41.4,31721.0,34472.9,-1.552,-1.2963,141.8,98.4,0.465
41.42,31728.5,34447.7,-1.5106,-1.3582,141.8,98.4,0.465
41.44,31866.9,34766.2,-0.7408,-0.5755,141.8,98.4,0.465
41.46,31888.9,34960.6,-0.6184,-0.0976,141.8,98.4,0.465
41.48,32263.1,35350.3,1.4623,0.8603,141.8,98.4,0.465
41.5,32355.3,35615.8,1.9748,1.5127,141.8,98.4,0.465
41.52,32263.8,35746.0,1.4663,1.8328,141.8,98.4,0.465
41.54,32335.2,35708.2,1.8631,1.7399,141.8,98.4,0.465
41.56,32226.2,35563.8,1.2573,1.385,141.8,98.4,0.465
41.58,32132.4,35271.8,0.7354,0.6672,141.8,98.4,0.465
41.6,32074.7,35200.5,0.4146,0.4919,141.8,98.4,0.465
41.62,32050.8,35162.7,0.2816,0.3992,141.8,98.4,0.465
41.64,32111.6,35082.8,0.6199,0.2029,141.8,98.4,0.465
41.66,31995.4,34919.1,-0.0262,-0.1995,141.8,98.4,0.465
41.68,31891.8,34915.9,-0.6025,-0.2075,141.8,98.4,0.465
41.7,31873.3,34810.3,-0.7051,-0.4669,141.8,98.4,0.465
41.72,31938.7,34747.7,-0.3418,-0.6209,141.8,98.4,0.465
41.74,31770.5,34615.4,-1.2767,-0.9462,141.8,98.4,0.465
41.76,31819.2,34683.2,-1.0063,-0.7793,141.8,98.4,0.465
41.78,31807.1,34734.7,-1.0733,-0.6529,141.8,98.4,0.465
41.8,31869.2,34574.6,-0.728,-1.0463,141.8,98.4,0.465
41.82,31795.2,34553.9,-1.1396,-1.0971,141.8,98.4,0.465
41.84,31718.9,34377.7,-1.5637,-1.5302,141.8,98.4,0.465
41.86,31852.9,34581.3,-0.8186,-1.0298,141.8,98.4,0.465
41.88,32022.6,34849.0,0.1248,-0.3719,141.8,98.4,0.465
41.9,32176.8,35259.8,0.9822,0.6377,141.8,98.4,0.465
41.92,32234.4,35501.3,1.3029,1.2314,141.8,98.4,0.465
41.94,32314.5,35771.0,1.7479,1.8941,141.8,98.4,0.465
41.96,32363.8,35667.8,2.0223,1.6405,141.8,98.4,0.465
41.98,32344.2,35576.1,1.913,1.4151,141.8,98.4,0.465
42.0,32064.9,35347.7,0.3603,0.8537,141.8,98.4,0.465
42.02,32036.6,35122.1,0.203,0.2994,141.8,98.4,0.465
42.04,32029.5,35119.4,0.1635,0.2926,141.8,98.4,0.465
42.06,32062.9,35029.9,0.3493,0.0728,141.8,98.4,0.465
42.08,32075.5,34986.4,0.4192,-0.0342,141.8,98.4,0.465
42.1,31902.4,34898.4,-0.5432,-0.2506,141.8,98.4,0.465
42.12,31922.4,34864.7,-0.432,-0.3333,141.8,98.4,0.465
42.14,31942.2,34686.3,-0.3222,-0.7719,141.8,98.4,0.465
42.16,31781.3,34614.1,-1.2166,-0.9493,141.8,98.4,0.465
42.18,31865.1,34622.4,-0.7506,-0.9289,141.8,98.4,0.465
42.2,31782.5,34659.2,-1.2103,-0.8384,141.8,98.4,0.465
42.22,31855.8,34522.2,-0.8028,-1.1751,141.8,98.4,0.465
42.24,31819.5,34418.0,-1.0043,-1.4313,141.8,98.4,0.465
42.26,31727.9,34426.5,-1.5136,-1.4104,141.8,98.4,0.465
42.28,31838.7,34532.1,-0.8979,-1.1507,141.8,98.4,0.465
42.3,31897.8,34834.5,-0.5688,-0.4075,141.8,98.4,0.465
42.32,32166.5,35142.1,0.9253,0.3485,141.8,98.4,0.465
42.34,32157.8,35479.7,0.8768,1.1782,141.8,98.4,0.465
42.36,32369.0,35713.3,2.051,1.7523,141.8,98.4,0.465
42.38,32300.3,35687.4,1.6692,1.6886,141.8,98.4,0.465
42.4,32211.0,35511.8,1.1724,1.2572,141.8,98.4,0.465
42.42,32187.0,35504.9,1.039,1.2401,141.8,98.4,0.465
42.44,32083.6,35239.9,0.4642,0.5888,141.8,98.4,0.465
42.46,32046.6,35162.8,0.2586,0.3995,141.8,98.4,0.465
42.48,32059.2,35121.4,0.3285,0.2976,141.8,98.4,0.465
42.5,32078.6,35040.1,0.4361,0.0977,141.8,98.4,0.465
42.52,31955.0,35007.5,-0.251,0.0177,141.8,98.4,0.465
42.54,32010.3,34933.6,0.0564,-0.164,141.8,98.4,0.465
42.56,31836.0,34755.8,-0.9125,-0.601,141.8,98.4,0.465
42.58,31929.3,34758.5,-0.3938,-0.5943,141.8,98.4,0.465
42.6,31909.6,34625.1,-0.5032,-0.9223,141.8,98.4,0.465
42.62,31804.6,34563.2,-1.0871,-1.0744,141.8,98.4,0.465
42.64,31808.9,34486.0,-1.0631,-1.264,141.8,98.4,0.465
42.66,31759.5,34504.9,-1.3382,-1.2177,141.8,98.4,0.465
42.68,31736.6,34421.7,-1.4655,-1.4221,141.8,98.4,0.465
42.7,31827.0,34561.1,-0.9625,-1.0796,141.8,98.4,0.465
42.72,31917.8,34777.6,-0.4576,-0.5475,141.8,98.4,0.465
42.74,32063.4,35192.4,0.3516,0.472,141.8,98.4,0.465
42.76,32226.4,35507.7,1.2584,1.247,141.8,98.4,0.465
42.78,32331.6,35735.8,1.8434,1.8076,141.8,98.4,0.465
42.8,32240.7,35751.1,1.3376,1.8453,141.8,98.4,0.465
42.82,32278.5,35615.7,1.5478,1.5126,141.8,98.4,0.465
42.84,32217.6,35427.0,1.2092,1.0488,141.8,98.4,0.465
42.86,32119.7,35271.4,0.6649,0.6664,141.8,98.4,0.465
42.88,32049.8,35086.8,0.276,0.2125,141.8,98.4,0.465
42.9,32017.4,35084.2,0.096,0.2062,141.8,98.4,0.465
42.92,32072.3,35025.3,0.4014,0.0613,141.8,98.4,0.465
42.94,32011.0,34983.8,0.0607,-0.0407,141.8,98.4,0.465
42.96,31852.0,34790.5,-0.8236,-0.5156,141.8,98.4,0.465
42.98,31924.6,34810.9,-0.4201,-0.4656,141.8,98.4,0.465
43.0,31846.3,34735.3,-0.8555,-0.6514,141.8,98.4,0.465
43.02,31944.4,34637.5,-0.31,-0.8917,141.8,98.4,0.465
43.04,32007.4,34663.4,0.0406,-0.828,141.8,98.4,0.465
43.06,31771.5,34540.1,-1.2715,-1.131,141.8,98.4,0.465
43.08,31811.4,34490.1,-1.0493,-1.2539,141.8,98.4,0.465
43.1,31814.1,34446.1,-1.0345,-1.3622,141.8,98.4,0.465
43.12,31768.6,34538.0,-1.2872,-1.1362,141.8,98.4,0.465
43.14,31790.6,34765.8,-1.1651,-0.5764,141.8,98.4,0.465
43.16,31997.3,35144.0,-0.0155,0.3533,141.8,98.4,0.465
43.18,32167.5,35414.6,0.9309,1.0183,141.8,98.4,0.465
43.2,32332.1,35622.5,1.8459,1.5291,141.8,98.4,0.465
43.22,32394.0,35767.6,2.1903,1.8858,141.8,98.4,0.465
43.24,32208.5,35612.0,1.1586,1.5033,141.8,98.4,0.465
43.26,32226.0,35452.2,1.256,1.1106,141.8,98.4,0.465
43.28,32159.0,35251.8,0.8832,0.618,141.8,98.4,0.465
43.3,32052.2,35144.5,0.2897,0.3544,141.8,98.4,0.465
43.32,32049.8,35153.8,0.2763,0.3772,141.8,98.4,0.465
43.34,32024.5,35017.7,0.1357,0.0426,141.8,98.4,0.465
43.36,31995.1,34979.9,-0.0276,-0.0501,141.8,98.4,0.465
43.38,32013.1,34871.8,0.072,-0.3158,141.8,98.4,0.465
43.4,31886.3,34664.9,-0.6331,-0.8243,141.8,98.4,0.465
43.42,31951.9,34705.8,-0.268,-0.7239,141.8,98.4,0.465
43.44,31771.7,34619.4,-1.27,-0.9361,141.8,98.4,0.465
43.46,31842.9,34564.2,-0.874,-1.0719,141.8,98.4,0.465
43.48,31828.0,34589.5,-0.9569,-1.0098,141.8,98.4,0.465
43.5,31781.5,34506.2,-1.2159,-1.2143,141.8,98.4,0.465
43.52,31738.6,34453.1,-1.4543,-1.3449,141.8,98.4,0.465
43.54,31834.1,34499.7,-0.9233,-1.2304,141.8,98.4,0.465
43.56,31764.2,34657.6,-1.3117,-0.8422,141.8,98.4,0.465
43.58,31989.8,35081.6,-0.0573,0.1998,141.8,98.4,0.465
43.6,32163.2,35423.0,0.9068,1.0387,141.8,98.4,0.465
43.62,32252.9,35598.9,1.4057,1.4712,141.8,98.4,0.465
43.64,32295.8,35746.2,1.644,1.8333,141.8,98.4,0.465
43.66,32250.1,35705.7,1.3902,1.7338,141.8,98.4,0.465
43.68,32299.7,35490.9,1.6657,1.2057,141.8,98.4,0.465
43.7,32116.6,35297.6,0.6479,0.7306,141.8,98.4,0.465
43.72,32105.7,35202.4,0.587,0.4966,141.8,98.4,0.465
43.74,32054.4,35110.9,0.3017,0.2719,141.8,98.4,0.465
43.76,32051.9,34995.4,0.2881,-0.0122,141.8,98.4,0.465
43.78,32025.2,34979.8,0.1393,-0.0503,141.8,98.4,0.465
43.8,31937.5,34878.6,-0.3485,-0.2991,141.8,98.4,0.465
43.82,31934.9,34749.8,-0.3625,-0.6158,141.8,98.4,0.465
43.84,31856.6,34829.6,-0.7982,-0.4195,141.8,98.4,0.465
43.86,31919.2,34700.6,-0.4497,-0.7365,141.8,98.4,0.465
43.88,31828.0,34620.1,-0.9568,-0.9344,141.8,98.4,0.465
43.9,31859.8,34613.7,-0.7802,-0.9501,141.8,98.4,0.465
43.92,31817.6,34482.6,-1.0147,-1.2724,141.8,98.4,0.465
43.94,31731.4,34534.5,-1.4943,-1.1448,141.8,98.4,0.465
43.96,31850.8,34518.4,-0.8305,-1.1844,141.8,98.4,0.465
43.98,31851.8,34680.4,-0.8247,-0.7864,141.8,98.4,0.465
44.0,31945.6,34934.1,-0.303,-0.1628,141.8,98.4,0.465
44.02,32047.6,35396.1,0.2639,0.9729,141.8,98.4,0.465
44.04,32201.8,35625.1,1.1213,1.5357,141.8,98.4,0.465
44.06,32317.3,35668.8,1.7635,1.6429,141.8,98.4,0.465
44.08,32275.2,35589.8,1.5296,1.4488,141.8,98.4,0.465
44.1,32193.8,35517.1,1.0772,1.2702,141.8,98.4,0.465
44.12,32131.4,35353.9,0.73,0.8689,141.8,98.4,0.465
44.14,32096.0,35210.5,0.5333,0.5165,141.8,98.4,0.465
44.16,32093.2,35098.4,0.5176,0.2411,141.8,98.4,0.465
44.18,32101.5,35068.7,0.5637,0.168,141.8,98.4,0.465
44.2,32041.0,35035.0,0.2274,0.0852,141.8,98.4,0.465
44.22,32052.6,34887.9,0.2919,-0.2762,141.8,98.4,0.465
44.24,31941.8,34748.7,-0.3243,-0.6184,141.8,98.4,0.465
44.26,31934.5,34662.4,-0.3648,-0.8305,141.8,98.4,0.465
44.28,31793.0,34659.5,-1.1517,-0.8375,141.8,98.4,0.465
44.3,31879.9,34563.2,-0.6683,-1.0743,141.8,98.4,0.465
44.32,31733.8,34574.0,-1.4807,-1.0477,141.8,98.4,0.465
44.34,31892.7,34511.3,-0.5973,-1.202,141.8,98.4,0.465
44.36,31787.2,34387.5,-1.1841,-1.5061,141.8,98.4,0.465
44.38,31731.8,34496.4,-1.4919,-1.2385,141.8,98.4,0.465
44.4,31874.3,34588.2,-0.6995,-1.013,141.8,98.4,0.465
44.42,31959.7,34893.0,-0.225,-0.2638,141.8,98.4,0.465
44.44,32133.6,35395.6,0.742,0.9716,141.8,98.4,0.465
44.46,32311.5,35597.4,1.7315,1.4674,141.8,98.4,0.465
44.48,32318.1,35661.8,1.7682,1.6259,141.8,98.4,0.465
44.5,32246.2,35682.3,1.3684,1.6761,141.8,98.4,0.465
44.52,32213.0,35569.8,1.1837,1.3996,141.8,98.4,0.465
44.54,32187.4,35369.5,1.0414,0.9074,141.8,98.4,0.465
44.56,32099.5,35216.8,0.5526,0.5321,141.8,98.4,0.465
44.58,32088.6,35093.3,0.4918,0.2285,141.8,98.4,0.465
44.6,32052.8,35140.5,0.2931,0.3447,141.8,98.4,0.465
44.62,31945.7,35073.0,-0.3025,0.1786,141.8,98.4,0.465
44.64,31972.1,34978.6,-0.1559,-0.0533,141.8,98.4,0.465
44.66,31993.3,34770.6,-0.0382,-0.5646,141.8,98.4,0.465
44.68,31942.5,34693.4,-0.3204,-0.7543,141.8,98.4,0.465
44.7,31875.0,34706.0,-0.6956,-0.7233,141.8,98.4,0.465
44.72,31786.2,34613.0,-1.1896,-0.952,141.8,98.4,0.465
44.74,31883.1,34579.6,-0.6508,-1.034,141.8,98.4,0.465
44.76,31768.6,34575.9,-1.2873,-1.043,141.8,98.4,0.465
44.78,31687.8,34506.9,-1.7366,-1.2127,141.8,98.4,0.465
44.8,31675.9,34474.5,-1.8028,-1.2923,141.8,98.4,0.465
44.82,31861.9,34550.6,-0.7684,-1.1052,141.8,98.4,0.465
44.84,31851.6,34911.7,-0.8259,-0.2178,141.8,98.4,0.465
44.86,32214.2,35179.9,1.1906,0.4413,141.8,98.4,0.465
