timestamp,raw_red,raw_ir,filtered_red,filtered_ir,heart_rate,spo2,ac_dc_ratio
0.0,32058.7,35175.3,0.325,0.4334,136.6,98.3,0.468
0.02,32186.5,35511.5,1.037,1.2615,136.6,98.3,0.468
0.04,32314.5,35730.6,1.75,1.8012,136.6,98.3,0.468
0.06,32427.4,35674.2,2.3787,1.6622,136.6,98.3,0.468
0.08,32316.1,35599.5,1.7588,1.4782,136.6,98.3,0.468
0.1,32224.9,35380.2,1.2506,0.9381,136.6,98.3,0.468
0.12,32099.4,35245.2,0.5516,0.6057,136.6,98.3,0.468
0.14,32097.1,35110.9,0.539,0.2748,136.6,98.3,0.468
0.16,32011.9,35164.2,0.0642,0.4061,136.6,98.3,0.468
0.18,32004.9,34968.1,0.0254,-0.0769,136.6,98.3,0.468
0.2,32060.8,34914.5,0.3367,-0.2087,136.6,98.3,0.468
0.22,31978.8,34845.7,-0.1204,-0.3783,136.6,98.3,0.468
0.24,31902.7,34644.0,-0.5442,-0.875,136.6,98.3,0.468
0.26,31834.6,34727.0,-0.9238,-0.6705,136.6,98.3,0.468
0.28,31940.7,34720.5,-0.3325,-0.6865,136.6,98.3,0.468
0.3,31849.8,34696.5,-0.839,-0.7456,136.6,98.3,0.468
0.32,31926.4,34609.1,-0.4123,-0.961,136.6,98.3,0.468
0.34,31754.3,34590.2,-1.3711,-1.0074,136.6,98.3,0.468
0.36,31820.8,34493.1,-1.0005,-1.2465,136.6,98.3,0.468
0.38,31833.0,34460.0,-0.9326,-1.3282,136.6,98.3,0.468
0.4,31836.6,34733.6,-0.9122,-0.6544,136.6,98.3,0.468
0.42,31898.7,34831.8,-0.5663,-0.4125,136.6,98.3,0.468
0.44,32011.6,35213.1,0.0626,0.5266,136.6,98.3,0.468
0.46,32197.1,35490.4,1.0959,1.2096,136.6,98.3,0.468
0.48,32246.9,35615.9,1.3732,1.5186,136.6,98.3,0.468
0.5,32343.1,35765.3,1.9092,1.8865,136.6,98.3,0.468
0.52,32246.5,35639.0,1.3713,1.5755,136.6,98.3,0.468
0.54,32221.4,35417.2,1.2313,1.0291,136.6,98.3,0.468
0.56,32135.8,35365.4,0.7542,0.9016,136.6,98.3,0.468
0.58,32104.3,35180.9,0.5789,0.4472,136.6,98.3,0.468
0.6,32068.9,35047.3,0.3818,0.1183,136.6,98.3,0.468
0.62,31941.9,35140.4,-0.3258,0.3475,136.6,98.3,0.468
0.64,32006.3,34995.5,0.0332,-0.0094,136.6,98.3,0.468
0.66,31849.4,34865.0,-0.8413,-0.3307,136.6,98.3,0.468
0.68,31851.4,34787.3,-0.8301,-0.5221,136.6,98.3,0.468
0.7,31873.7,34744.5,-0.7058,-0.6275,136.6,98.3,0.468
0.72,31899.0,34660.3,-0.5648,-0.8348,136.6,98.3,0.468
0.74,31928.3,34693.8,-0.4014,-0.7523,136.6,98.3,0.468
0.76,31794.6,34571.4,-1.1462,-1.0537,136.6,98.3,0.468
0.78,31875.0,34578.5,-0.6986,-1.0362,136.6,98.3,0.468
0.8,31779.7,34420.9,-1.2296,-1.4243,136.6,98.3,0.468
0.82,31811.8,34506.0,-1.0504,-1.2148,136.6,98.3,0.468
0.84,31918.0,34599.5,-0.4588,-0.9847,136.6,98.3,0.468
0.86,31917.6,34820.9,-0.4612,-0.4393,136.6,98.3,0.468
0.88,32164.1,35186.3,0.9118,0.4607,136.6,98.3,0.468
0.9,32289.0,35461.8,1.6078,1.1392,136.6,98.3,0.468
0.92,32281.0,35698.6,1.5632,1.7223,136.6,98.3,0.468
0.94,32319.3,35724.3,1.7769,1.7856,136.6,98.3,0.468
0.96,32291.6,35597.9,1.6221,1.4743,136.6,98.3,0.468
0.98,32178.6,35415.9,0.993,1.0261,136.6,98.3,0.468
1.0,32167.5,35278.4,0.9311,0.6874,136.6,98.3,0.468
1.02,32106.1,35161.1,0.5887,0.3984,136.6,98.3,0.468
1.04,32035.4,35032.3,0.1953,0.0813,136.6,98.3,0.468
1.06,31972.8,35033.8,-0.1538,0.0849,136.6,98.3,0.468
1.08,32051.6,35015.2,0.2853,0.0391,136.6,98.3,0.468
1.1,31930.3,34917.7,-0.3906,-0.2008,136.6,98.3,0.468
1.12,31898.2,34765.1,-0.5693,-0.5767,136.6,98.3,0.468
1.14,31945.3,34778.9,-0.3071,-0.5428,136.6,98.3,0.468
1.16,31842.8,34676.8,-0.8776,-0.7941,136.6,98.3,0.468
1.18,31867.5,34644.1,-0.7402,-0.8748,136.6,98.3,0.468
1.2,31803.5,34648.7,-1.0967,-0.8633,136.6,98.3,0.468
1.22,31821.0,34507.0,-0.9992,-1.2124,136.6,98.3,0.468
1.24,31761.5,34434.9,-1.3307,-1.3899,136.6,98.3,0.468
1.26,31765.8,34409.0,-1.3071,-1.4536,136.6,98.3,0.468
1.28,31812.1,34547.5,-1.0486,-1.1127,136.6,98.3,0.468
1.3,31917.9,34759.9,-0.4594,-0.5896,136.6,98.3,0.468
1.32,32107.5,35142.2,0.5967,0.352,136.6,98.3,0.468
1.34,32224.1,35521.6,1.2464,1.2863,136.6,98.3,0.468
1.36,32264.0,35789.9,1.4688,1.9472,136.6,98.3,0.468
1.38,32361.4,35718.7,2.011,1.7718,136.6,98.3,0.468
1.4,32240.3,35612.2,1.3368,1.5096,136.6,98.3,0.468
1.42,32210.4,35522.6,1.1702,1.2889,136.6,98.3,0.468
1.44,32103.5,35357.3,0.5745,0.8817,136.6,98.3,0.468
1.46,32122.5,35144.8,0.6805,0.3583,136.6,98.3,0.468
1.48,31945.6,35074.5,-0.3052,0.1852,136.6,98.3,0.468
1.5,32079.4,35083.3,0.4402,0.207,136.6,98.3,0.468
1.52,32028.4,34994.8,0.1559,-0.0111,136.6,98.3,0.468
1.54,31911.7,34869.7,-0.494,-0.3192,136.6,98.3,0.468
1.56,31905.7,34823.3,-0.5273,-0.4335,136.6,98.3,0.468
1.58,31896.1,34659.0,-0.5808,-0.8381,136.6,98.3,0.468
1.6,31856.5,34630.9,-0.8018,-0.9074,136.6,98.3,0.468
1.62,31896.8,34679.0,-0.5771,-0.7889,136.6,98.3,0.468
1.64,31844.8,34562.6,-0.8667,-1.0756,136.6,98.3,0.468
1.66,31835.4,34610.3,-0.9194,-0.9581,136.6,98.3,0.468
1.68,31795.0,34376.2,-1.1441,-1.5345,136.6,98.3,0.468
1.7,31700.8,34456.3,-1.669,-1.3372,136.6,98.3,0.468
1.72,31816.0,34605.2,-1.0274,-0.9705,136.6,98.3,0.468
1.74,31885.5,34891.4,-0.6402,-0.2656,136.6,98.3,0.468
1.76,32073.1,35223.8,0.405,0.553,136.6,98.3,0.468
1.78,32214.6,35507.2,1.1931,1.251,136.6,98.3,0.468
1.8,32285.7,35699.6,1.5896,1.7246,136.6,98.3,0.468
1.82,32447.0,35751.1,2.4881,1.8515,136.6,98.3,0.468
1.84,32282.8,35589.4,1.5732,1.4534,136.6,98.3,0.468
1.86,32196.6,35437.9,1.0931,1.0801,136.6,98.3,0.468
1.88,32100.7,35184.8,0.559,0.4569,136.6,98.3,0.468
1.9,32070.5,35179.3,0.3904,0.4433,136.6,98.3,0.468
1.92,32067.2,35065.6,0.3724,0.1633,136.6,98.3,0.468
1.94,32050.9,35066.5,0.2815,0.1655,136.6,98.3,0.468
1.96,32044.6,35066.8,0.2465,0.1663,136.6,98.3,0.468
1.98,31990.6,34925.2,-0.0546,-0.1824,136.6,98.3,0.468
2.0,32008.9,34798.1,0.0475,-0.4954,136.6,98.3,0.468
2.02,31884.2,34776.2,-0.6475,-0.5494,136.6,98.3,0.468
2.04,31909.8,34655.8,-0.5048,-0.8458,136.6,98.3,0.468
2.06,31885.0,34664.1,-0.6426,-0.8255,136.6,98.3,0.468
2.08,31808.6,34635.0,-1.0684,-0.8971,136.6,98.3,0.468
2.1,31834.5,34513.4,-0.9242,-1.1966,136.6,98.3,0.468
2.12,31716.5,34487.5,-1.5815,-1.2604,136.6,98.3,0.468
2.14,31807.0,34425.6,-1.0774,-1.4129,136.6,98.3,0.468
2.16,31666.9,34603.0,-1.8579,-0.9759,136.6,98.3,0.468
2.18,31995.9,34869.0,-0.0248,-0.3208,136.6,98.3,0.468
2.2,32173.6,35209.2,0.9649,0.5171,136.6,98.3,0.468
2.22,32264.9,35507.7,1.4738,1.252,136.6,98.3,0.468
2.24,32265.8,35765.3,1.4788,1.8865,136.6,98.3,0.468
2.26,32241.4,35752.0,1.3429,1.8539,136.6,98.3,0.468
2.28,32150.9,35638.5,0.8383,1.5744,136.6,98.3,0.468
2.3,32132.6,35445.7,0.7364,1.0993,136.6,98.3,0.468
2.32,32160.5,35390.2,0.8919,0.9628,136.6,98.3,0.468
2.34,32055.0,35112.2,0.3044,0.278,136.6,98.3,0.468
2.36,31949.4,35178.3,-0.2838,0.4409,136.6,98.3,0.468
2.38,32061.6,35054.7,0.3411,0.1364,136.6,98.3,0.468
2.4,32102.4,34964.9,0.5682,-0.0847,136.6,98.3,0.468
2.42,31951.1,34777.0,-0.2748,-0.5474,136.6,98.3,0.468
2.44,31847.2,34724.8,-0.8534,-0.676,136.6,98.3,0.468
2.46,31862.1,34696.6,-0.7702,-0.7453,136.6,98.3,0.468
2.48,31898.8,34647.7,-0.5657,-0.8658,136.6,98.3,0.468
2.5,31839.3,34606.2,-0.8976,-0.968,136.6,98.3,0.468
2.52,31812.8,34682.1,-1.045,-0.7812,136.6,98.3,0.468
2.54,31884.8,34469.1,-0.6439,-1.3056,136.6,98.3,0.468
2.56,31644.4,34358.1,-1.9833,-1.5791,136.6,98.3,0.468
2.58,31800.9,34517.8,-1.1112,-1.1858,136.6,98.3,0.468
2.6,31891.8,34504.2,-0.6052,-1.2193,136.6,98.3,0.468
2.62,31888.8,34873.0,-0.6214,-0.3109,136.6,98.3,0.468
2.64,32082.6,35128.1,0.4579,0.3173,136.6,98.3,0.468
2.66,32218.5,35552.8,1.2153,1.3633,136.6,98.3,0.468
2.68,32301.5,35722.7,1.6775,1.7817,136.6,98.3,0.468
2.7,32269.2,35646.2,1.4977,1.5933,136.6,98.3,0.468
2.72,32251.4,35548.0,1.3983,1.3514,136.6,98.3,0.468
2.74,32188.8,35379.5,1.0496,0.9365,136.6,98.3,0.468
2.76,32136.9,35229.8,0.7604,0.5678,136.6,98.3,0.468
2.78,32043.1,35107.5,0.2379,0.2666,136.6,98.3,0.468
2.8,32076.1,35053.5,0.4218,0.1335,136.6,98.3,0.468
2.82,32000.8,35007.9,0.0025,0.0211,136.6,98.3,0.468
2.84,32064.5,35028.0,0.3574,0.0708,136.6,98.3,0.468
2.86,32001.1,34871.1,0.0038,-0.3156,136.6,98.3,0.468
2.88,31849.4,34756.7,-0.841,-0.5974,136.6,98.3,0.468
2.9,31864.8,34702.5,-0.7554,-0.7308,136.6,98.3,0.468
2.92,31864.8,34637.6,-0.7554,-0.8908,136.6,98.3,0.468
2.94,31878.0,34719.4,-0.6819,-0.6893,136.6,98.3,0.468
2.96,31824.3,34615.4,-0.9807,-0.9455,136.6,98.3,0.468
2.98,31784.6,34619.4,-1.2018,-0.9356,136.6,98.3,0.468
3.0,31780.0,34490.5,-1.2276,-1.2529,136.6,98.3,0.468
3.02,31711.0,34387.3,-1.6119,-1.5071,136.6,98.3,0.468
3.04,31815.8,34507.7,-1.0285,-1.2107,136.6,98.3,0.468
3.06,31949.1,34906.3,-0.286,-0.2289,136.6,98.3,0.468
3.08,32114.1,35280.7,0.6334,0.693,136.6,98.3,0.468
3.1,32194.1,35529.7,1.0792,1.3063,136.6,98.3,0.468
3.12,32379.9,35693.2,2.1145,1.7089,136.6,98.3,0.468
3.14,32286.0,35603.1,1.5913,1.487,136.6,98.3,0.468
3.16,32246.5,35621.4,1.3711,1.5321,136.6,98.3,0.468
3.18,32104.6,35357.8,0.5807,0.8829,136.6,98.3,0.468
3.2,32101.6,35248.9,0.564,0.6147,136.6,98.3,0.468
3.22,31963.5,35152.8,-0.2056,0.378,136.6,98.3,0.468
3.24,32067.5,35163.7,0.3739,0.4048,136.6,98.3,0.468
3.26,32034.2,35051.2,0.1884,0.1278,136.6,98.3,0.468
3.28,31918.9,34960.1,-0.4537,-0.0965,136.6,98.3,0.468
3.3,31965.9,34893.9,-0.1922,-0.2596,136.6,98.3,0.468
3.32,31889.2,34688.9,-0.6193,-0.7643,136.6,98.3,0.468
3.34,31813.1,34687.6,-1.0431,-0.7676,136.6,98.3,0.468
3.36,31882.1,34589.0,-0.6592,-1.0104,136.6,98.3,0.468
3.38,31842.2,34597.3,-0.8812,-0.9899,136.6,98.3,0.468
3.4,31869.1,34636.6,-0.7315,-0.8931,136.6,98.3,0.468
3.42,31776.8,34579.6,-1.2456,-1.0336,136.6,98.3,0.468
3.44,31766.9,34506.3,-1.3008,-1.2142,136.6,98.3,0.468
3.46,31788.5,34438.6,-1.1801,-1.3809,136.6,98.3,0.468
3.48,31887.4,34600.2,-0.6294,-0.9828,136.6,98.3,0.468
3.5,31994.0,34888.1,-0.0355,-0.2739,136.6,98.3,0.468
3.52,32115.6,35133.3,0.6416,0.3299,136.6,98.3,0.468
3.54,32229.2,35524.3,1.2746,1.2931,136.6,98.3,0.468
3.56,32252.0,35769.9,1.4018,1.8979,136.6,98.3,0.468
3.58,32326.5,35681.2,1.817,1.6794,136.6,98.3,0.468
3.6,32211.1,35618.3,1.174,1.5246,136.6,98.3,0.468
3.62,32107.4,35353.6,0.5962,0.8727,136.6,98.3,0.468
3.64,32070.0,35242.7,0.3877,0.5996,136.6,98.3,0.468
3.66,32019.4,35208.9,0.1059,0.5161,136.6,98.3,0.468
3.68,32084.9,35086.3,0.471,0.2142,136.6,98.3,0.468
3.7,32014.8,34986.5,0.0806,-0.0314,136.6,98.3,0.468
3.72,31996.0,34973.5,-0.0242,-0.0636,136.6,98.3,0.468
3.74,31951.8,34819.8,-0.2706,-0.4419,136.6,98.3,0.468
3.76,31868.0,34704.6,-0.7378,-0.7258,136.6,98.3,0.468
3.78,31961.5,34669.5,-0.2169,-0.8122,136.6,98.3,0.468
3.8,31798.9,34651.5,-1.1225,-0.8565,136.6,98.3,0.468
3.82,31784.4,34705.4,-1.2034,-0.7239,136.6,98.3,0.468
3.84,31895.9,34690.3,-0.5823,-0.7611,136.6,98.3,0.468
3.86,31689.1,34476.3,-1.7342,-1.2881,136.6,98.3,0.468
3.88,31780.8,34427.4,-1.2232,-1.4084,136.6,98.3,0.468
3.9,31825.7,34493.6,-0.9732,-1.2454,136.6,98.3,0.468
3.92,31902.0,34680.8,-0.548,-0.7843,136.6,98.3,0.468
3.94,32003.6,34839.0,0.0178,-0.3948,136.6,98.3,0.468
3.96,32144.4,35257.0,0.8024,0.6347,136.6,98.3,0.468
3.98,32255.9,35579.6,1.4235,1.4292,136.6,98.3,0.468
4.0,32307.7,35708.3,1.7118,1.7461,136.6,98.3,0.468
4.02,32374.6,35753.8,2.0847,1.8583,136.6,98.3,0.468
4.04,32317.5,35633.2,1.7666,1.5613,136.6,98.3,0.468
4.06,32169.4,35432.4,0.9417,1.0666,136.6,98.3,0.468
4.08,32096.8,35356.9,0.5369,0.8808,136.6,98.3,0.468
4.1,32098.0,35074.7,0.5437,0.1856,136.6,98.3,0.468
4.12,32084.3,35108.0,0.4676,0.2677,136.6,98.3,0.468
4.14,31932.7,34929.1,-0.3768,-0.1729,136.6,98.3,0.468
4.16,31966.0,34933.1,-0.1918,-0.1631,136.6,98.3,0.468
4.18,31925.6,34831.7,-0.4165,-0.4127,136.6,98.3,0.468
4.2,31921.7,34754.7,-0.4386,-0.6024,136.6,98.3,0.468
4.22,31912.7,34755.9,-0.4885,-0.5994,136.6,98.3,0.468
4.24,31896.1,34615.1,-0.5809,-0.9462,136.6,98.3,0.468
4.26,31856.3,34680.9,-0.8025,-0.784,136.6,98.3,0.468
4.28,31804.0,34540.0,-1.0938,-1.1311,136.6,98.3,0.468
4.3,31816.5,34487.7,-1.0243,-1.26,136.6,98.3,0.468
4.32,31791.9,34476.2,-1.1614,-1.2883,136.6,98.3,0.468
4.34,31714.7,34578.1,-1.5915,-1.0374,136.6,98.3,0.468
4.36,31752.6,34540.8,-1.3804,-1.1292,136.6,98.3,0.468
4.38,32012.5,34956.2,0.0676,-0.1062,136.6,98.3,0.468
4.4,32113.4,35263.4,0.6298,0.6504,136.6,98.3,0.468
4.42,32220.6,35523.3,1.2265,1.2906,136.6,98.3,0.468
4.44,32335.0,35668.7,1.8639,1.6486,136.6,98.3,0.468
4.46,32279.8,35661.7,1.5565,1.6314,136.6,98.3,0.468
4.48,32192.5,35612.6,1.0702,1.5105,136.6,98.3,0.468
4.5,32169.2,35392.5,0.9404,0.9685,136.6,98.3,0.468
4.52,32158.3,35372.8,0.8799,0.92,136.6,98.3,0.468
4.54,32076.8,35087.9,0.4256,0.2183,136.6,98.3,0.468
4.56,32030.2,35132.2,0.1661,0.3273,136.6,98.3,0.468
4.58,31998.0,35042.1,-0.013,0.1054,136.6,98.3,0.468
4.6,31991.4,34949.3,-0.0499,-0.1232,136.6,98.3,0.468
4.62,31935.0,34748.0,-0.364,-0.6189,136.6,98.3,0.468
4.64,31920.8,34766.3,-0.4433,-0.5739,136.6,98.3,0.468
4.66,31790.5,34640.5,-1.1691,-0.8836,136.6,98.3,0.468
4.68,31915.5,34675.8,-0.4726,-0.7967,136.6,98.3,0.468
4.7,31848.1,34621.5,-0.8483,-0.9304,136.6,98.3,0.468
4.72,31743.7,34493.0,-1.43,-1.2469,136.6,98.3,0.468
4.74,31784.2,34504.5,-1.2046,-1.2185,136.6,98.3,0.468
4.76,31786.6,34566.5,-1.191,-1.0659,136.6,98.3,0.468
4.78,31771.3,34473.0,-1.276,-1.2962,136.6,98.3,0.468
4.8,31858.5,34610.4,-0.7903,-0.9577,136.6,98.3,0.468
4.82,31868.0,34986.4,-0.7372,-0.0317,136.6,98.3,0.468
4.84,32074.3,35252.7,0.4119,0.6241,136.6,98.3,0.468
4.86,32272.2,35493.2,1.5143,1.2164,136.6,98.3,0.468
4.88,32235.4,35726.9,1.309,1.792,136.6,98.3,0.468
4.9,32305.9,35752.9,1.7018,1.856,136.6,98.3,0.468
4.92,32231.5,35577.8,1.2875,1.4248,136.6,98.3,0.468
4.94,32210.4,35425.7,1.1698,1.0501,136.6,98.3,0.468
4.96,32152.2,35122.7,0.8458,0.304,136.6,98.3,0.468
4.98,32010.7,35150.8,0.0577,0.3732,136.6,98.3,0.468
5.0,31976.5,35067.6,-0.1332,0.1682,136.6,98.3,0.468
5.02,32025.8,35073.6,0.1418,0.183,136.6,98.3,0.468
5.04,32020.3,34947.5,0.111,-0.1276,136.6,98.3,0.468
5.06,31948.8,34877.3,-0.2874,-0.3005,136.6,98.3,0.468
5.08,31918.8,34714.4,-0.4544,-0.7016,136.6,98.3,0.468
5.1,31954.3,34646.5,-0.257,-0.8688,136.6,98.3,0.468
5.12,31841.4,34650.9,-0.8858,-0.8579,136.6,98.3,0.468
5.14,31739.5,34628.5,-1.4535,-0.9131,136.6,98.3,0.468
5.16,31861.2,34665.4,-0.7751,-0.8224,136.6,98.3,0.468
5.18,31819.3,34537.2,-1.0088,-1.1381,136.6,98.3,0.468
5.2,31739.5,34473.0,-1.4531,-1.2962,136.6,98.3,0.468
5.22,31740.8,34451.7,-1.446,-1.3485,136.6,98.3,0.468
5.24,31930.7,34628.3,-0.3884,-0.9137,136.6,98.3,0.468
5.26,31941.0,34980.3,-0.3307,-0.0468,136.6,98.3,0.468
5.28,32117.7,35211.8,0.6533,0.5233,136.6,98.3,0.468
5.3,32320.5,35600.5,1.7832,1.4806,136.6,98.3,0.468
5.32,32319.6,35742.8,1.7785,1.8312,136.6,98.3,0.468
5.34,32244.1,35804.2,1.3576,1.9825,136.6,98.3,0.468
5.36,32308.6,35633.1,1.7169,1.5609,136.6,98.3,0.468
5.38,32187.4,35457.4,1.0417,1.1282,136.6,98.3,0.468
5.4,32092.5,35275.4,0.5129,0.68,136.6,98.3,0.468
5.42,32017.0,35078.1,0.0927,0.194,136.6,98.3,0.468
5.44,32056.7,35163.8,0.3138,0.4051,136.6,98.3,0.468
5.46,31973.7,35110.6,-0.1486,0.2741,136.6,98.3,0.468
5.48,32056.5,34956.5,0.3126,-0.1054,136.6,98.3,0.468
5.5,31988.9,34898.3,-0.0639,-0.2487,136.6,98.3,0.468
5.52,31871.6,34774.7,-0.7173,-0.5531,136.6,98.3,0.468
5.54,31860.2,34673.4,-0.7811,-0.8025,136.6,98.3,0.468
5.56,31839.7,34555.3,-0.8952,-1.0933,136.6,98.3,0.468
5.58,31904.5,34691.6,-0.534,-0.7577,136.6,98.3,0.468
5.6,31805.6,34662.5,-1.085,-0.8295,136.6,98.3,0.468
5.62,31781.9,34451.3,-1.2169,-1.3495,136.6,98.3,0.468
5.64,31749.0,34499.2,-1.4004,-1.2315,136.6,98.3,0.468
5.66,31665.2,34526.1,-1.8675,-1.1653,136.6,98.3,0.468
5.68,31787.0,34704.5,-1.1889,-0.7259,136.6,98.3,0.468
5.7,31856.2,35020.5,-0.803,0.0522,136.6,98.3,0.468
5.72,32174.9,35279.8,0.9723,0.6908,136.6,98.3,0.468
5.74,32274.8,35526.5,1.5288,1.2985,136.6,98.3,0.468
5.76,32285.2,35711.1,1.5869,1.7531,136.6,98.3,0.468
5.78,32393.3,35804.5,2.189,1.983,136.6,98.3,0.468
5.8,32308.5,35615.4,1.7162,1.5173,136.6,98.3,0.468
5.82,32143.6,35293.5,0.7979,0.7247,136.6,98.3,0.468
5.84,32147.8,35214.9,0.821,0.5311,136.6,98.3,0.468
5.86,32060.5,35119.0,0.335,0.2948,136.6,98.3,0.468
5.88,32047.3,35148.5,0.2616,0.3676,136.6,98.3,0.468
5.9,31865.5,35008.1,-0.7515,0.0216,136.6,98.3,0.468
5.92,31980.5,34872.7,-0.1106,-0.3117,136.6,98.3,0.468
5.94,32048.4,34860.9,0.2676,-0.3408,136.6,98.3,0.468
5.96,31824.0,34764.5,-0.9824,-0.5783,136.6,98.3,0.468
5.98,31873.3,34712.1,-0.7078,-0.7073,136.6,98.3,0.468
6.0,31818.0,34775.9,-1.0162,-0.5502,136.6,98.3,0.468
6.02,31850.9,34678.7,-0.8328,-0.7896,136.6,98.3,0.468
6.04,31757.3,34513.4,-1.3544,-1.1966,136.6,98.3,0.468
6.06,31780.2,34436.6,-1.2264,-1.3859,136.6,98.3,0.468
6.08,31681.0,34422.0,-1.7794,-1.4216,136.6,98.3,0.468
6.1,31784.6,34465.9,-1.2024,-1.3135,136.6,98.3,0.468
6.12,31843.1,34688.8,-0.876,-0.7645,136.6,98.3,0.468
6.14,31932.1,34872.5,-0.3807,-0.3122,136.6,98.3,0.468
6.16,32163.8,35353.8,0.9105,0.873,136.6,98.3,0.468
6.18,32333.2,35646.1,1.8542,1.5929,136.6,98.3,0.468
6.2,32492.6,35754.2,2.7418,1.8592,136.6,98.3,0.468
6.22,32325.8,35689.9,1.8128,1.7007,136.6,98.3,0.468
6.24,32344.2,35606.8,1.9153,1.4962,136.6,98.3,0.468
6.26,32195.8,35328.2,1.0889,0.8101,136.6,98.3,0.468
6.28,32101.6,35259.8,0.564,0.6416,136.6,98.3,0.468
6.3,31956.6,35200.9,-0.2439,0.4966,136.6,98.3,0.468
6.32,31985.5,35063.3,-0.0829,0.1578,136.6,98.3,0.468
6.34,32005.4,35009.6,0.0281,0.0255,136.6,98.3,0.468
6.36,32038.1,34827.4,0.2104,-0.4233,136.6,98.3,0.468
6.38,31926.6,34872.4,-0.4112,-0.3125,136.6,98.3,0.468
6.4,31849.3,34824.1,-0.8415,-0.4316,136.6,98.3,0.468
6.42,31905.6,34640.9,-0.5278,-0.8825,136.6,98.3,0.468
6.44,31835.4,34674.2,-0.9189,-0.8007,136.6,98.3,0.468
6.46,31798.2,34676.0,-1.1263,-0.7961,136.6,98.3,0.468
6.48,31914.5,34645.0,-0.4782,-0.8724,136.6,98.3,0.468
6.5,31814.9,34543.0,-1.0332,-1.1237,136.6,98.3,0.468
6.52,31769.6,34433.0,-1.2855,-1.3946,136.6,98.3,0.468
6.54,31835.1,34539.2,-0.9209,-1.133,136.6,98.3,0.468
6.56,31864.8,34621.0,-0.7554,-0.9315,136.6,98.3,0.468
6.58,32026.0,34959.9,0.1426,-0.097,136.6,98.3,0.468
6.6,32212.4,35327.8,1.1808,0.809,136.6,98.3,0.468
6.62,32246.2,35652.4,1.3692,1.6084,136.6,98.3,0.468
6.64,32302.5,35795.4,1.6833,1.9608,136.6,98.3,0.468
6.66,32271.0,35673.0,1.5078,1.6592,136.6,98.3,0.468
6.68,32165.6,35539.6,0.9204,1.3306,136.6,98.3,0.468
6.7,32171.9,35360.5,0.9554,0.8896,136.6,98.3,0.468
6.72,32126.3,35215.2,0.7014,0.5318,136.6,98.3,0.468
6.74,32125.7,35086.6,0.6979,0.2151,136.6,98.3,0.468
6.76,31989.9,35142.0,-0.0585,0.3515,136.6,98.3,0.468
6.78,32076.2,35041.4,0.4223,0.1038,136.6,98.3,0.468
6.8,31999.9,34881.5,-0.0025,-0.29,136.6,98.3,0.468
6.82,31931.2,34811.1,-0.3853,-0.4636,136.6,98.3,0.468
6.84,31938.1,34763.1,-0.347,-0.5817,136.6,98.3,0.468
6.86,31957.0,34709.7,-0.2417,-0.7132,136.6,98.3,0.468
6.88,31836.1,34609.5,-0.9153,-0.96,136.6,98.3,0.468
6.9,31848.5,34626.3,-0.846,-0.9185,136.6,98.3,0.468
6.92,31792.0,34542.7,-1.1608,-1.1244,136.6,98.3,0.468
6.94,31786.7,34479.8,-1.1906,-1.2795,136.6,98.3,0.468
6.96,31850.1,34451.5,-0.8372,-1.349,136.6,98.3,0.468
6.98,31860.1,34397.0,-0.7817,-1.4832,136.6,98.3,0.468
7.0,31880.0,34653.1,-0.6707,-0.8526,136.6,98.3,0.468
7.02,32059.0,34931.9,0.3268,-0.1659,136.6,98.3,0.468
7.04,32113.2,35349.9,0.6285,0.8636,136.6,98.3,0.468
7.06,32279.0,35579.4,1.552,1.4286,136.6,98.3,0.468
7.08,32367.4,35695.1,2.0445,1.7136,136.6,98.3,0.468
7.1,32295.2,35740.5,1.6424,1.8254,136.6,98.3,0.468
7.12,32204.1,35610.7,1.1346,1.5057,136.6,98.3,0.468
7.14,32203.7,35437.5,1.1328,1.0792,136.6,98.3,0.468
7.16,32118.0,35280.1,0.6555,0.6915,136.6,98.3,0.468
7.18,32088.8,35073.4,0.4927,0.1824,136.6,98.3,0.468
7.2,32027.6,35080.7,0.1515,0.2004,136.6,98.3,0.468
7.22,31986.4,34997.8,-0.078,-0.0036,136.6,98.3,0.468
7.24,31987.0,34960.0,-0.0743,-0.0969,136.6,98.3,0.468
7.26,31937.3,34834.3,-0.3517,-0.4064,136.6,98.3,0.468
7.28,31858.5,34792.2,-0.7904,-0.5099,136.6,98.3,0.468
7.3,31924.3,34743.9,-0.4238,-0.629,136.6,98.3,0.468
7.32,31847.3,34643.8,-0.8529,-0.8755,136.6,98.3,0.468
7.34,31831.5,34560.7,-0.9408,-1.0801,136.6,98.3,0.468
7.36,31780.3,34638.5,-1.2262,-0.8885,136.6,98.3,0.468
7.38,31793.1,34483.5,-1.1548,-1.2702,136.6,98.3,0.468
7.4,31777.9,34392.5,-1.2394,-1.4944,136.6,98.3,0.468
7.42,31779.9,34487.5,-1.2283,-1.2603,136.6,98.3,0.468
7.44,31833.0,34604.6,-0.9325,-0.9719,136.6,98.3,0.468
7.46,31971.3,35007.3,-0.162,0.0198,136.6,98.3,0.468
7.48,32059.2,35298.5,0.3274,0.737,136.6,98.3,0.468
7.5,32256.7,35626.9,1.4277,1.5458,136.6,98.3,0.468
7.52,32298.8,35809.0,1.6624,1.9942,136.6,98.3,0.468
7.54,32315.2,35673.0,1.7535,1.6592,136.6,98.3,0.468
7.56,32326.1,35670.8,1.8144,1.6538,136.6,98.3,0.468
7.58,32118.6,35340.0,0.6586,0.8391,136.6,98.3,0.468
7.6,32057.1,35229.5,0.3161,0.5671,136.6,98.3,0.468
7.62,32112.8,35168.1,0.626,0.4157,136.6,98.3,0.468
7.64,31969.7,35042.9,-0.1711,0.1073,136.6,98.3,0.468
7.66,31915.5,34964.4,-0.4728,-0.0859,136.6,98.3,0.468
7.68,31958.5,34966.5,-0.2331,-0.0807,136.6,98.3,0.468
7.7,31925.9,34800.2,-0.4147,-0.4903,136.6,98.3,0.468
7.72,31884.9,34779.7,-0.6431,-0.5407,136.6,98.3,0.468
7.74,31850.4,34794.6,-0.8357,-0.5041,136.6,98.3,0.468
7.76,31815.5,34614.1,-1.0302,-0.9487,136.6,98.3,0.468
7.78,31929.4,34738.2,-0.3954,-0.6431,136.6,98.3,0.468
7.8,31775.8,34632.9,-1.2509,-0.9022,136.6,98.3,0.468
7.82,31826.0,34536.2,-0.9717,-1.1404,136.6,98.3,0.468
7.84,31840.7,34442.4,-0.8894,-1.3715,136.6,98.3,0.468
7.86,31792.7,34503.3,-1.1568,-1.2214,136.6,98.3,0.468
7.88,31825.4,34737.7,-0.9748,-0.6442,136.6,98.3,0.468
7.9,32005.8,35088.1,0.0302,0.2187,136.6,98.3,0.468
7.92,32148.4,35378.8,0.8248,0.9346,136.6,98.3,0.468
7.94,32253.5,35473.4,1.41,1.1678,136.6,98.3,0.468
7.96,32297.0,35735.8,1.6523,1.814,136.6,98.3,0.468
7.98,32254.0,35732.2,1.413,1.805,136.6,98.3,0.468
8.0,32193.7,35527.3,1.0768,1.3003,136.6,98.3,0.468
8.02,32129.9,35407.9,0.7217,1.0064,136.6,98.3,0.468
8.04,32076.2,35181.6,0.4222,0.449,136.6,98.3,0.468
8.06,31986.0,35108.8,-0.0803,0.2697,136.6,98.3,0.468
8.08,31954.8,35183.5,-0.2539,0.4538,136.6,98.3,0.468
8.1,31905.0,35053.0,-0.5314,0.1323,136.6,98.3,0.468
8.12,31995.4,34913.5,-0.0278,-0.2112,136.6,98.3,0.468
8.14,31902.7,34832.7,-0.5441,-0.4101,136.6,98.3,0.468
8.16,31880.8,34771.4,-0.666,-0.5611,136.6,98.3,0.468
8.18,31824.1,34644.6,-0.9822,-0.8736,136.6,98.3,0.468
8.2,31829.6,34753.6,-0.9512,-0.6051,136.6,98.3,0.468
8.22,31812.6,34691.2,-1.0462,-0.7588,136.6,98.3,0.468
8.24,31789.3,34613.9,-1.1759,-0.9491,136.6,98.3,0.468
8.26,31768.4,34569.3,-1.2924,-1.0589,136.6,98.3,0.468
8.28,31754.5,34610.9,-1.3696,-0.9565,136.6,98.3,0.468
8.3,31730.0,34598.5,-1.5065,-0.987,136.6,98.3,0.468
8.32,31868.0,34750.8,-0.7375,-0.6119,136.6,98.3,0.468
8.34,31895.6,34952.2,-0.5838,-0.116,136.6,98.3,0.468
8.36,32185.6,35273.2,1.0317,0.6746,136.6,98.3,0.468
8.38,32251.3,35610.7,1.3979,1.5057,136.6,98.3,0.468
8.4,32332.1,35696.3,1.8481,1.7165,136.6,98.3,0.468
8.42,32229.7,35692.7,1.2774,1.7077,136.6,98.3,0.468
8.44,32250.0,35471.5,1.3905,1.163,136.6,98.3,0.468
8.46,32174.4,35335.1,0.9694,0.827,136.6,98.3,0.468
8.48,32116.0,35195.6,0.6439,0.4834,136.6,98.3,0.468
8.5,32037.0,35130.4,0.2038,0.323,136.6,98.3,0.468
8.52,32082.9,35087.9,0.4598,0.2183,136.6,98.3,0.468
8.54,32089.5,35026.2,0.4963,0.0664,136.6,98.3,0.468
8.56,31890.7,34867.5,-0.6108,-0.3245,136.6,98.3,0.468
8.58,31943.1,34854.8,-0.3189,-0.3559,136.6,98.3,0.468
8.6,31791.1,34713.4,-1.1662,-0.7041,136.6,98.3,0.468
8.62,31941.9,34696.7,-0.3257,-0.7453,136.6,98.3,0.468
8.64,31870.6,34643.5,-0.7229,-0.8761,136.6,98.3,0.468
8.66,31798.4,34723.9,-1.125,-0.6783,136.6,98.3,0.468
8.68,31927.2,34537.7,-0.4079,-1.1367,136.6,98.3,0.468
8.7,31853.6,34457.5,-0.8177,-1.3342,136.6,98.3,0.468
8.72,31703.8,34460.8,-1.6523,-1.3263,136.6,98.3,0.468
8.74,31801.3,34491.2,-1.1088,-1.2514,136.6,98.3,0.468
8.76,31828.3,34664.1,-0.9586,-0.8254,136.6,98.3,0.468
8.78,31935.1,34982.9,-0.3636,-0.0402,136.6,98.3,0.468
8.8,32144.3,35355.6,0.8017,0.8775,136.6,98.3,0.468
8.82,32243.8,35631.1,1.3563,1.556,136.6,98.3,0.468
8.84,32296.8,35833.3,1.6511,2.054,136.6,98.3,0.468
8.86,32260.0,35631.8,1.4465,1.5577,136.6,98.3,0.468
8.88,32284.8,35515.8,1.5847,1.2722,136.6,98.3,0.468
8.9,32078.9,35424.6,0.4372,1.0475,136.6,98.3,0.468
8.92,32100.7,35160.9,0.559,0.398,136.6,98.3,0.468
8.94,31997.2,35070.6,-0.0176,0.1755,136.6,98.3,0.468
8.96,32093.0,35080.5,0.5162,0.1999,136.6,98.3,0.468
8.98,32056.3,35036.8,0.3116,0.0924,136.6,98.3,0.468
9.0,31906.5,35014.3,-0.5231,0.0371,136.6,98.3,0.468
9.02,31861.2,34843.4,-0.7754,-0.3839,136.6,98.3,0.468
9.04,31888.2,34733.8,-0.6251,-0.6538,136.6,98.3,0.468
9.06,31861.5,34675.2,-0.7739,-0.7981,136.6,98.3,0.468
9.08,31827.3,34673.9,-0.9643,-0.8014,136.6,98.3,0.468
9.1,31836.0,34650.0,-0.9158,-0.8601,136.6,98.3,0.468
9.12,31790.3,34477.7,-1.1705,-1.2847,136.6,98.3,0.468
9.14,31833.7,34446.6,-0.9288,-1.3611,136.6,98.3,0.468
9.16,31778.7,34519.0,-1.2349,-1.1827,136.6,98.3,0.468
9.18,31753.0,34513.2,-1.3783,-1.197,136.6,98.3,0.468
9.2,31876.7,34744.1,-0.689,-0.6285,136.6,98.3,0.468
9.22,32001.6,34986.3,0.007,-0.0319,136.6,98.3,0.468
9.24,32249.0,35360.7,1.3849,0.8902,136.6,98.3,0.468
9.26,32320.5,35633.3,1.7832,1.5614,136.6,98.3,0.468
9.28,32344.0,35731.6,1.9143,1.8034,136.6,98.3,0.468
9.3,32266.4,35677.3,1.4821,1.6698,136.6,98.3,0.468
9.32,32203.5,35469.0,1.1316,1.1568,136.6,98.3,0.468
9.34,32165.0,35267.3,0.9169,0.66,136.6,98.3,0.468
9.36,32076.0,35108.0,0.4211,0.2678,136.6,98.3,0.468
9.38,32188.0,35120.6,1.0452,0.2987,136.6,98.3,0.468
9.4,32033.6,35073.3,0.1853,0.1824,136.6,98.3,0.468
9.42,31973.5,34949.4,-0.1497,-0.1229,136.6,98.3,0.468
9.44,31976.9,34991.6,-0.1309,-0.019,136.6,98.3,0.468
9.46,31954.2,34869.6,-0.2571,-0.3195,136.6,98.3,0.468
9.48,31896.8,34738.2,-0.5771,-0.6429,136.6,98.3,0.468
9.5,31891.8,34712.1,-0.6048,-0.7073,136.6,98.3,0.468
9.52,31773.9,34679.4,-1.2616,-0.7879,136.6,98.3,0.468
9.54,31827.4,34617.7,-0.9634,-0.9396,136.6,98.3,0.468
9.56,31864.5,34612.2,-0.757,-0.9532,136.6,98.3,0.468
9.58,31829.5,34581.7,-0.9521,-1.0283,136.6,98.3,0.468
9.6,31791.6,34480.8,-1.1629,-1.277,136.6,98.3,0.468
9.62,31912.5,34550.8,-0.4894,-1.1046,136.6,98.3,0.468
9.64,31848.7,34578.7,-0.8447,-1.0358,136.6,98.3,0.468
9.66,32082.0,35024.8,0.4546,0.0629,136.6,98.3,0.468
9.68,32214.8,35385.2,1.1944,0.9505,136.6,98.3,0.468
9.7,32287.3,35621.7,1.5984,1.5328,136.6,98.3,0.468
9.72,32353.9,35726.8,1.9694,1.7917,136.6,98.3,0.468
9.74,32396.0,35695.5,2.2037,1.7147,136.6,98.3,0.468
9.76,32263.0,35524.8,1.4632,1.2943,136.6,98.3,0.468
9.78,32211.3,35332.5,1.1752,0.8207,136.6,98.3,0.468
9.8,31987.4,35209.9,-0.0722,0.5186,136.6,98.3,0.468
9.82,32120.8,35160.3,0.6709,0.3964,136.6,98.3,0.468
9.84,31984.4,35047.4,-0.0892,0.1185,136.6,98.3,0.468
9.86,32031.7,35102.1,0.1743,0.2531,136.6,98.3,0.468
9.88,31931.2,34873.6,-0.3854,-0.3095,136.6,98.3,0.468
9.9,31872.3,34759.9,-0.7136,-0.5896,136.6,98.3,0.468
9.92,31828.1,34624.9,-0.96,-0.922,136.6,98.3,0.468
9.94,31803.1,34743.6,-1.099,-0.6297,136.6,98.3,0.468
9.96,31802.6,34628.9,-1.1018,-0.9122,136.6,98.3,0.468
9.98,31850.5,34615.7,-0.835,-0.9446,136.6,98.3,0.468
10.0,31862.5,34465.6,-0.7681,-1.3142,136.6,98.3,0.468
10.02,31833.5,34484.6,-0.9299,-1.2676,136.6,98.3,0.468
10.04,31861.0,34460.4,-0.7766,-1.3273,136.6,98.3,0.468
10.06,31769.7,34466.7,-1.2851,-1.3117,136.6,98.3,0.468
10.08,31859.5,34735.6,-0.7846,-0.6494,136.6,98.3,0.468
10.1,32023.0,35020.7,0.1257,0.0527,136.6,98.3,0.468
10.12,32155.2,35352.4,0.8626,0.8698,136.6,98.3,0.468
10.14,32295.1,35731.7,1.6417,1.8037,136.6,98.3,0.468
10.16,32314.2,35757.2,1.7483,1.8666,136.6,98.3,0.468
10.18,32300.7,35657.5,1.673,1.6209,136.6,98.3,0.468
10.2,32213.4,35618.2,1.1866,1.5243,136.6,98.3,0.468
10.22,32113.2,35338.3,0.6284,0.8348,136.6,98.3,0.468
10.24,32095.1,35169.4,0.5277,0.4189,136.6,98.3,0.468
10.26,32044.9,35100.0,0.2482,0.2481,136.6,98.3,0.468
10.28,31964.0,35032.1,-0.2027,0.0809,136.6,98.3,0.468
10.3,32063.1,34958.6,0.3495,-0.1003,136.6,98.3,0.468
10.32,31986.4,34965.2,-0.0781,-0.0839,136.6,98.3,0.468
10.34,31974.7,34821.7,-0.1429,-0.4372,136.6,98.3,0.468
10.36,31909.3,34765.6,-0.5072,-0.5755,136.6,98.3,0.468
10.38,31901.1,34663.5,-0.5533,-0.8271,136.6,98.3,0.468
10.4,31881.4,34661.5,-0.6627,-0.832,136.6,98.3,0.468
10.42,31914.2,34663.3,-0.48,-0.8274,136.6,98.3,0.468
10.44,31790.0,34535.2,-1.1723,-1.143,136.6,98.3,0.468
10.46,31736.8,34582.5,-1.4681,-1.0265,136.6,98.3,0.468
10.48,31703.0,34429.1,-1.6566,-1.4042,136.6,98.3,0.468
10.5,31735.0,34482.5,-1.4786,-1.2727,136.6,98.3,0.468
10.52,31973.5,34684.5,-0.1496,-0.7752,136.6,98.3,0.468
10.54,32044.2,35034.0,0.2438,0.0854,136.6,98.3,0.468
10.56,32165.3,35436.2,0.919,1.076,136.6,98.3,0.468
10.58,32336.5,35681.6,1.8725,1.6804,136.6,98.3,0.468
10.6,32397.9,35865.6,2.2147,2.1337,136.6,98.3,0.468
10.62,32377.3,35654.9,2.0997,1.6147,136.6,98.3,0.468
10.64,32256.5,35474.0,1.4266,1.1691,136.6,98.3,0.468
10.66,32142.1,35313.0,0.7893,0.7725,136.6,98.3,0.468
10.68,32123.8,35067.5,0.6875,0.168,136.6,98.3,0.468
10.7,32100.4,35194.3,0.5572,0.4803,136.6,98.3,0.468
10.72,31989.1,35019.3,-0.0628,0.0492,136.6,98.3,0.468
10.74,31967.1,35147.4,-0.1854,0.3649,136.6,98.3,0.468
10.76,31925.0,35013.7,-0.4197,0.0354,136.6,98.3,0.468
10.78,31907.2,34801.4,-0.5192,-0.4873,136.6,98.3,0.468
10.8,31850.9,34710.3,-0.8325,-0.7117,136.6,98.3,0.468
10.82,31886.4,34667.3,-0.6352,-0.8177,136.6,98.3,0.468
10.84,31706.7,34704.4,-1.6363,-0.7261,136.6,98.3,0.468
10.86,31933.2,34563.3,-0.3744,-1.0737,136.6,98.3,0.468
10.88,31812.4,34570.7,-1.0475,-1.0555,136.6,98.3,0.468
10.9,31699.9,34478.2,-1.6738,-1.2834,136.6,98.3,0.468
10.92,31763.1,34418.4,-1.3216,-1.4306,136.6,98.3,0.468
10.94,31744.5,34447.5,-1.4253,-1.359,136.6,98.3,0.468
10.96,31951.9,34688.7,-0.2703,-0.7648,136.6,98.3,0.468
10.98,32102.1,35118.2,0.5667,0.2929,136.6,98.3,0.468
11.0,32203.9,35413.3,1.1339,1.0195,136.6,98.3,0.468
11.02,32315.6,35701.9,1.7563,1.7305,136.6,98.3,0.468
11.04,32391.3,35767.3,2.1776,1.8914,136.6,98.3,0.468
11.06,32254.3,35751.2,1.4144,1.8518,136.6,98.3,0.468
11.08,32237.8,35334.0,1.3227,0.8244,136.6,98.3,0.468
11.1,32175.6,35334.8,0.9761,0.8264,136.6,98.3,0.468
11.12,32118.0,35090.4,0.6554,0.2243,136.6,98.3,0.468
11.14,32179.8,35147.6,0.9995,0.3653,136.6,98.3,0.468
11.16,31932.6,35064.0,-0.3774,0.1595,136.6,98.3,0.468
11.18,32037.7,35011.9,0.2078,0.0312,136.6,98.3,0.468
11.2,32007.7,34899.9,0.0409,-0.2449,136.6,98.3,0.468
11.22,31834.0,34805.1,-0.9269,-0.4782,136.6,98.3,0.468
11.24,31966.8,34750.4,-0.1873,-0.6131,136.6,98.3,0.468
11.26,31912.2,34748.1,-0.4915,-0.6186,136.6,98.3,0.468
11.28,31801.4,34624.9,-1.1084,-0.9221,136.6,98.3,0.468
11.3,31875.3,34654.1,-0.697,-0.8501,136.6,98.3,0.468
11.32,31819.2,34503.2,-1.0092,-1.2216,136.6,98.3,0.468
11.34,31745.0,34500.1,-1.4225,-1.2293,136.6,98.3,0.468
11.36,31834.6,34443.6,-0.9238,-1.3686,136.6,98.3,0.468
11.38,31811.6,34523.2,-1.0516,-1.1726,136.6,98.3,0.468
11.4,31859.1,34737.0,-0.7872,-0.646,136.6,98.3,0.468
11.42,31928.8,35086.1,-0.399,0.2137,136.6,98.3,0.468
11.44,32133.7,35371.6,0.7428,0.917,136.6,98.3,0.468
11.46,32321.8,35669.4,1.7905,1.6504,136.6,98.3,0.468
11.48,32290.5,35762.1,1.6163,1.8786,136.6,98.3,0.468
11.5,32262.9,35626.8,1.4623,1.5455,136.6,98.3,0.468
11.52,32232.4,35496.0,1.2926,1.2233,136.6,98.3,0.468
11.54,32119.9,35297.2,0.6658,0.7338,136.6,98.3,0.468
11.56,32112.3,35203.2,0.6234,0.5021,136.6,98.3,0.468
11.58,32066.5,35112.4,0.3682,0.2786,136.6,98.3,0.468
11.6,31949.9,35056.7,-0.2813,0.1414,136.6,98.3,0.468
11.62,32012.3,35026.5,0.0663,0.0669,136.6,98.3,0.468
11.64,31973.5,34874.7,-0.1496,-0.3068,136.6,98.3,0.468
11.66,31922.0,34861.1,-0.4367,-0.3403,136.6,98.3,0.468
11.68,31934.4,34721.9,-0.3675,-0.6831,136.6,98.3,0.468
11.7,31882.3,34683.4,-0.6578,-0.7779,136.6,98.3,0.468
11.72,31868.0,34680.8,-0.7373,-0.7843,136.6,98.3,0.468
11.74,31821.1,34646.6,-0.9985,-0.8687,136.6,98.3,0.468
11.76,31876.9,34566.0,-0.688,-1.0672,136.6,98.3,0.468
11.78,31792.0,34469.3,-1.161,-1.3053,136.6,98.3,0.468
11.8,31782.1,34395.8,-1.2159,-1.4862,136.6,98.3,0.468
11.82,31843.3,34579.1,-0.8748,-1.0349,136.6,98.3,0.468
11.84,31901.5,34724.5,-0.551,-0.6767,136.6,98.3,0.468
11.86,32042.7,35105.1,0.2358,0.2607,136.6,98.3,0.468
11.88,32133.9,35386.9,0.744,0.9547,136.6,98.3,0.468
11.9,32238.3,35649.4,1.3254,1.6011,136.6,98.3,0.468
11.92,32344.7,35728.3,1.9183,1.7954,136.6,98.3,0.468
11.94,32342.8,35666.9,1.9075,1.6442,136.6,98.3,0.468
11.96,32234.1,35493.4,1.3018,1.2168,136.6,98.3,0.468
11.98,32120.5,35318.3,0.669,0.7856,136.6,98.3,0.468
12.0,32173.4,35101.4,0.9641,0.2514,136.6,98.3,0.468
12.02,31994.2,35057.1,-0.0345,0.1425,136.6,98.3,0.468
12.04,31961.9,35017.1,-0.2142,0.0438,136.6,98.3,0.468
12.06,32025.8,34996.5,0.1415,-0.0068,136.6,98.3,0.468
12.08,31946.3,34939.3,-0.3014,-0.1478,136.6,98.3,0.468
12.1,31847.0,34903.0,-0.8545,-0.2372,136.6,98.3,0.468
12.12,31911.4,34791.3,-0.4956,-0.5122,136.6,98.3,0.468
12.14,31942.3,34734.3,-0.3238,-0.6526,136.6,98.3,0.468
12.16,31854.4,34665.5,-0.8131,-0.822,136.6,98.3,0.468
12.18,31856.1,34634.6,-0.8036,-0.8982,136.6,98.3,0.468
12.2,31816.0,34548.8,-1.0271,-1.1094,136.6,98.3,0.468
12.22,31843.0,34503.7,-0.8767,-1.2204,136.6,98.3,0.468
12.24,31705.1,34482.6,-1.6449,-1.2724,136.6,98.3,0.468
12.26,31746.8,34546.1,-1.4127,-1.1161,136.6,98.3,0.468
12.28,31943.4,34718.2,-0.3177,-0.6924,136.6,98.3,0.468
12.3,31989.0,35116.2,-0.0632,0.2881,136.6,98.3,0.468
12.32,32172.1,35436.7,0.9565,1.0773,136.6,98.3,0.468
12.34,32231.8,35640.4,1.2894,1.579,136.6,98.3,0.468
12.36,32343.0,35766.5,1.9089,1.8894,136.6,98.3,0.468
12.38,32325.9,35697.4,1.8136,1.7192,136.6,98.3,0.468
12.4,32185.2,35466.9,1.0297,1.1516,136.6,98.3,0.468
12.42,32145.5,35336.8,0.8085,0.8312,136.6,98.3,0.468
12.44,32197.3,35197.8,1.0971,0.4888,136.6,98.3,0.468
12.46,32005.6,34981.1,0.0288,-0.0448,136.6,98.3,0.468
12.48,32010.6,35121.3,0.057,0.3004,136.6,98.3,0.468
12.5,32059.5,34932.3,0.3292,-0.165,136.6,98.3,0.468
12.52,31965.8,34904.6,-0.1925,-0.2332,136.6,98.3,0.468
12.54,31886.0,34862.3,-0.637,-0.3373,136.6,98.3,0.468
12.56,31943.6,34737.8,-0.3161,-0.6439,136.6,98.3,0.468
12.58,31692.3,34679.7,-1.7161,-0.7872,136.6,98.3,0.468
12.6,31866.4,34633.9,-0.7463,-0.8999,136.6,98.3,0.468
12.62,31831.7,34569.0,-0.9399,-1.0597,136.6,98.3,0.468
12.64,31854.5,34653.8,-0.8128,-0.8509,136.6,98.3,0.468
12.66,31760.0,34474.8,-1.3389,-1.2917,136.6,98.3,0.468
12.68,31815.1,34473.6,-1.032,-1.2946,136.6,98.3,0.468
12.7,31837.1,34531.1,-0.9094,-1.153,136.6,98.3,0.468
12.72,31878.9,34783.5,-0.6767,-0.5314,136.6,98.3,0.468
12.74,32019.4,35094.6,0.106,0.2347,136.6,98.3,0.468
12.76,32093.2,35479.8,0.5168,1.1835,136.6,98.3,0.468
12.78,32296.5,35649.1,1.6496,1.6004,136.6,98.3,0.468
12.8,32310.6,35670.6,1.728,1.6534,136.6,98.3,0.468
12.82,32290.9,35684.1,1.6185,1.6865,136.6,98.3,0.468
12.84,32263.8,35443.1,1.4674,1.0929,136.6,98.3,0.468
12.86,32044.4,35304.7,0.2455,0.7522,136.6,98.3,0.468
12.88,32131.9,35183.2,0.7326,0.4528,136.6,98.3,0.468
12.9,32144.0,35062.6,0.8001,0.1559,136.6,98.3,0.468
12.92,31942.8,34973.8,-0.3207,-0.0627,136.6,98.3,0.468
12.94,31941.4,34997.0,-0.3283,-0.0057,136.6,98.3,0.468
12.96,31905.5,34870.9,-0.5284,-0.3161,136.6,98.3,0.468
12.98,31946.4,34780.1,-0.3008,-0.5397,136.6,98.3,0.468
13.0,31805.5,34675.5,-1.0858,-0.7974,136.6,98.3,0.468
13.02,31812.0,34661.2,-1.0492,-0.8327,136.6,98.3,0.468
13.04,31898.9,34625.2,-0.5653,-0.9214,136.6,98.3,0.468
13.06,31814.0,34637.8,-1.0382,-0.8902,136.6,98.3,0.468
13.08,31877.9,34547.9,-0.6824,-1.1117,136.6,98.3,0.468
13.1,31804.6,34537.9,-1.0906,-1.1363,136.6,98.3,0.468
13.12,31895.7,34391.3,-0.5832,-1.4975,136.6,98.3,0.468
13.14,31836.6,34545.2,-0.9123,-1.1183,136.6,98.3,0.468
13.16,31835.5,34794.8,-0.9184,-0.5036,136.6,98.3,0.468
13.18,32060.6,35104.4,0.3352,0.2589,136.6,98.3,0.468
13.2,32240.7,35389.5,1.3386,0.961,136.6,98.3,0.468
13.22,32201.6,35698.1,1.1209,1.7211,136.6,98.3,0.468
13.24,32306.1,35761.8,1.7032,1.8779,136.6,98.3,0.468
13.26,32212.7,35643.0,1.1826,1.5854,136.6,98.3,0.468
13.28,32098.8,35372.5,0.5481,0.9191,136.6,98.3,0.468
13.3,32126.9,35241.6,0.7047,0.5968,136.6,98.3,0.468
13.32,31968.2,35154.0,-0.1792,0.3811,136.6,98.3,0.468
13.34,32024.6,35128.0,0.1349,0.3169,136.6,98.3,0.468
13.36,32101.8,35080.7,0.5649,0.2006,136.6,98.3,0.468
13.38,32055.7,35020.4,0.3083,0.0519,136.6,98.3,0.468
13.4,32027.4,34926.8,0.1505,-0.1786,136.6,98.3,0.468
13.42,31947.4,34816.4,-0.2952,-0.4503,136.6,98.3,0.468
13.44,31849.4,34713.6,-0.8413,-0.7036,136.6,98.3,0.468
13.46,31848.6,34722.8,-0.8456,-0.6809,136.6,98.3,0.468
13.48,31931.6,34658.8,-0.383,-0.8386,136.6,98.3,0.468
13.5,31837.3,34575.5,-0.9084,-1.0436,136.6,98.3,0.468
13.52,31822.8,34586.1,-0.989,-1.0177,136.6,98.3,0.468
13.54,31793.0,34481.8,-1.1554,-1.2744,136.6,98.3,0.468
13.56,31757.1,34506.3,-1.3553,-1.2142,136.6,98.3,0.468
13.58,31920.7,34553.7,-0.4441,-1.0973,136.6,98.3,0.468
13.6,31943.7,34752.8,-0.3158,-0.6071,136.6,98.3,0.468
13.62,32037.8,35070.5,0.2084,0.1753,136.6,98.3,0.468
13.64,32194.2,35487.1,1.0794,1.2013,136.6,98.3,0.468
13.66,32318.6,35747.6,1.7729,1.8429,136.6,98.3,0.468
13.68,32355.5,35707.5,1.9785,1.7441,136.6,98.3,0.468
13.7,32216.9,35671.7,1.2061,1.6559,136.6,98.3,0.468
13.72,32283.7,35468.1,1.5781,1.1546,136.6,98.3,0.468
13.74,32186.3,35189.9,1.036,0.4694,136.6,98.3,0.468
13.76,32031.2,35207.0,0.1718,0.5117,136.6,98.3,0.468
13.78,32080.5,35125.4,0.4466,0.3106,136.6,98.3,0.468
13.8,31972.9,35006.6,-0.1532,0.0181,136.6,98.3,0.468
13.82,32000.6,35093.3,0.0014,0.2316,136.6,98.3,0.468
13.84,31921.5,34896.0,-0.4396,-0.2543,136.6,98.3,0.468
13.86,31914.3,34796.1,-0.4794,-0.5003,136.6,98.3,0.468
13.88,31809.9,34739.7,-1.0609,-0.6393,136.6,98.3,0.468
13.9,31937.0,34681.8,-0.3533,-0.782,136.6,98.3,0.468
13.92,31883.7,34615.1,-0.6501,-0.9462,136.6,98.3,0.468
13.94,31814.8,34644.4,-1.0337,-0.8741,136.6,98.3,0.468
13.96,31852.8,34559.5,-0.822,-1.0832,136.6,98.3,0.468
13.98,31899.5,34416.3,-0.5619,-1.4357,136.6,98.3,0.468
14.0,31715.2,34479.2,-1.5885,-1.2808,136.6,98.3,0.468
14.02,31787.8,34592.4,-1.1843,-1.002,136.6,98.3,0.468
14.04,31847.9,34814.6,-0.8494,-0.4548,136.6,98.3,0.468
14.06,32004.5,35180.5,0.0232,0.4464,136.6,98.3,0.468
14.08,32252.2,35550.3,1.4026,1.357,136.6,98.3,0.468
14.1,32241.7,35725.0,1.3441,1.7873,136.6,98.3,0.468
14.12,32482.4,35729.5,2.6855,1.7983,136.6,98.3,0.468
14.14,32202.4,35664.6,1.1251,1.6387,136.6,98.3,0.468
14.16,32316.6,35435.9,1.7616,1.0752,136.6,98.3,0.468
14.18,32126.8,35223.9,0.7044,0.5533,136.6,98.3,0.468
14.2,32191.9,35204.1,1.067,0.5045,136.6,98.3,0.468
14.22,32055.2,35053.8,0.3052,0.1342,136.6,98.3,0.468
14.24,32016.7,35045.3,0.0911,0.1134,136.6,98.3,0.468
14.26,31942.2,34954.2,-0.324,-0.111,136.6,98.3,0.468
14.28,31899.6,34906.5,-0.5615,-0.2285,136.6,98.3,0.468
14.3,31918.4,34761.4,-0.4567,-0.5857,136.6,98.3,0.468
14.32,31820.2,34755.2,-1.0039,-0.6012,136.6,98.3,0.468
14.34,31873.0,34741.6,-0.7097,-0.6345,136.6,98.3,0.468
14.36,31816.5,34675.7,-1.0243,-0.7969,136.6,98.3,0.468
14.38,31745.5,34635.5,-1.4199,-0.8959,136.6,98.3,0.468
14.4,31883.8,34563.0,-0.6498,-1.0745,136.6,98.3,0.468
14.42,31697.3,34525.3,-1.6883,-1.1672,136.6,98.3,0.468
14.44,31817.0,34409.4,-1.0214,-1.4527,136.6,98.3,0.468
14.46,31812.9,34496.1,-1.0444,-1.2393,136.6,98.3,0.468
14.48,32007.5,34714.6,0.0396,-0.7012,136.6,98.3,0.468
14.5,32108.9,35155.5,0.6047,0.3847,136.6,98.3,0.468
14.52,32182.3,35494.3,1.0136,1.2191,136.6,98.3,0.468
14.54,32317.9,35785.7,1.7687,1.9369,136.6,98.3,0.468
14.56,32378.4,35709.6,2.1056,1.7493,136.6,98.3,0.468
14.58,32288.5,35653.3,1.6048,1.6107,136.6,98.3,0.468
14.6,32199.9,35380.5,1.1115,0.9389,136.6,98.3,0.468
14.62,32031.9,35310.2,0.1758,0.7658,136.6,98.3,0.468
14.64,32092.8,35219.2,0.5148,0.5417,136.6,98.3,0.468
14.66,32038.9,35102.5,0.2145,0.2542,136.6,98.3,0.468
14.68,32111.8,35066.1,0.6209,0.1647,136.6,98.3,0.468
14.7,31938.9,34962.3,-0.3425,-0.0911,136.6,98.3,0.468
14.72,32026.0,34970.4,0.1427,-0.0712,136.6,98.3,0.468
14.74,31952.8,34791.2,-0.2653,-0.5124,136.6,98.3,0.468
14.76,31865.7,34707.2,-0.7503,-0.7193,136.6,98.3,0.468
14.78,31880.9,34658.6,-0.6659,-0.839,136.6,98.3,0.468
14.8,31889.9,34626.4,-0.6156,-0.9184,136.6,98.3,0.468
14.82,31861.5,34652.1,-0.7734,-0.855,136.6,98.3,0.468
14.84,31819.9,34512.8,-1.0055,-1.198,136.6,98.3,0.468
14.86,31685.1,34472.5,-1.7566,-1.2973,136.6,98.3,0.468
14.88,31785.6,34476.8,-1.1963,-1.2867,136.6,98.3,0.468
14.9,31844.9,34521.6,-0.8661,-1.1764,136.6,98.3,0.468
14.92,31943.9,34762.9,-0.3144,-0.5822,136.6,98.3,0.468
14.94,32153.2,35135.6,0.8512,0.3358,136.6,98.3,0.468
14.96,32284.7,35487.4,1.5842,1.2021,136.6,98.3,0.468
14.98,32351.3,35638.5,1.9551,1.5744,136.6,98.3,0.468
15.0,32276.7,35687.1,1.5394,1.694,136.6,98.3,0.468
15.02,32262.2,35632.3,1.4586,1.5591,136.6,98.3,0.468
15.04,32147.7,35370.7,0.8208,0.9148,136.6,98.3,0.468
15.06,32062.0,35286.2,0.3433,0.7066,136.6,98.3,0.468
15.08,32030.1,35193.9,0.1655,0.4794,136.6,98.3,0.468
15.1,32069.0,35152.3,0.382,0.3768,136.6,98.3,0.468
15.12,32026.6,35154.6,0.1458,0.3825,136.6,98.3,0.468
15.14,31866.5,35020.5,-0.746,0.0524,136.6,98.3,0.468
15.16,31982.2,34918.6,-0.1012,-0.1988,136.6,98.3,0.468
15.18,31949.8,34808.6,-0.282,-0.4697,136.6,98.3,0.468
15.2,31941.8,34648.4,-0.3265,-0.8643,136.6,98.3,0.468
15.22,31935.4,34687.1,-0.3623,-0.7688,136.6,98.3,0.468
15.24,31831.6,34711.7,-0.9402,-0.7083,136.6,98.3,0.468
15.26,31780.8,34673.0,-1.2231,-0.8035,136.6,98.3,0.468
15.28,31815.2,34659.7,-1.0315,-0.8364,136.6,98.3,0.468
15.3,31843.5,34405.1,-0.874,-1.4633,136.6,98.3,0.468
15.32,31777.0,34518.7,-1.2446,-1.1835,136.6,98.3,0.468
15.34,31841.3,34528.0,-0.8861,-1.1606,136.6,98.3,0.468
15.36,31866.9,34864.3,-0.7434,-0.3325,136.6,98.3,0.468
15.38,32065.7,35158.8,0.364,0.3928,136.6,98.3,0.468
15.4,32145.2,35475.7,0.8069,1.1734,136.6,98.3,0.468
15.42,32262.5,35703.1,1.4603,1.7333,136.6,98.3,0.468
15.44,32338.6,35701.3,1.8842,1.729,136.6,98.3,0.468
15.46,32329.5,35608.8,1.8334,1.5012,136.6,98.3,0.468
15.48,32253.4,35425.7,1.4094,1.0503,136.6,98.3,0.468
15.5,32053.3,35292.2,0.2948,0.7215,136.6,98.3,0.468
15.52,31949.1,35075.6,-0.2857,0.1879,136.6,98.3,0.468
15.54,32099.7,35059.2,0.5533,0.1474,136.6,98.3,0.468
15.56,31999.4,34969.6,-0.0053,-0.0731,136.6,98.3,0.468
15.58,32034.1,35015.6,0.188,0.0402,136.6,98.3,0.468
15.6,31962.8,34957.2,-0.2093,-0.1036,136.6,98.3,0.468
15.62,31947.8,34742.7,-0.2927,-0.6319,136.6,98.3,0.468
15.64,31835.6,34734.5,-0.918,-0.6521,136.6,98.3,0.468
15.66,31862.8,34591.4,-0.7664,-1.0045,136.6,98.3,0.468
15.68,31912.7,34704.6,-0.4884,-0.7258,136.6,98.3,0.468
15.7,31907.6,34691.1,-0.5169,-0.7589,136.6,98.3,0.468
15.72,31802.9,34511.9,-1.1,-1.2002,136.6,98.3,0.468
15.74,31812.9,34457.5,-1.0447,-1.3342,136.6,98.3,0.468
15.76,31772.4,34532.2,-1.2701,-1.1503,136.6,98.3,0.468
15.78,31819.1,34599.2,-1.0097,-0.9854,136.6,98.3,0.468
15.8,31989.8,34791.1,-0.0587,-0.5126,136.6,98.3,0.468
15.82,32114.3,35245.7,0.6347,0.607,136.6,98.3,0.468
15.84,32266.3,35536.5,1.4814,1.3231,136.6,98.3,0.468
15.86,32242.7,35646.5,1.3498,1.5939,136.6,98.3,0.468
15.88,32303.5,35796.5,1.6886,1.9634,136.6,98.3,0.468
15.9,32296.8,35594.2,1.6511,1.4651,136.6,98.3,0.468
15.92,32236.1,35478.3,1.3133,1.1797,136.6,98.3,0.468
15.94,32082.8,35327.2,0.4593,0.8075,136.6,98.3,0.468
15.96,32036.0,35144.1,0.1983,0.3568,136.6,98.3,0.468
15.98,32074.8,35127.8,0.4146,0.3165,136.6,98.3,0.468
16.0,32078.4,35054.4,0.4345,0.1358,136.6,98.3,0.468
16.02,32015.4,34981.3,0.0834,-0.0443,136.6,98.3,0.468
16.04,31983.2,35035.7,-0.0955,0.0897,136.6,98.3,0.468
16.06,31837.6,34836.8,-0.9068,-0.4,136.6,98.3,0.468
16.08,31943.7,34689.7,-0.3155,-0.7626,136.6,98.3,0.468
16.1,31886.3,34678.9,-0.6358,-0.7889,136.6,98.3,0.468
16.12,31845.7,34727.3,-0.8618,-0.6697,136.6,98.3,0.468
16.14,31765.2,34650.4,-1.3104,-0.8593,136.6,98.3,0.468
16.16,31739.0,34587.3,-1.4559,-1.0147,136.6,98.3,0.468
16.18,31802.0,34490.4,-1.1049,-1.2534,136.6,98.3,0.468
16.2,31749.3,34417.2,-1.3989,-1.4336,136.6,98.3,0.468
16.22,31845.3,34634.2,-0.8639,-0.8991,136.6,98.3,0.468
16.24,31867.2,34859.8,-0.7418,-0.3436,136.6,98.3,0.468
16.26,32170.7,35157.2,0.9488,0.3889,136.6,98.3,0.468
16.28,32330.8,35487.0,1.8406,1.2013,136.6,98.3,0.468
16.3,32384.9,35752.0,2.1423,1.8538,136.6,98.3,0.468
16.32,32374.9,35692.1,2.0864,1.7063,136.6,98.3,0.468
16.34,32369.3,35656.5,2.0552,1.6185,136.6,98.3,0.468
16.36,32214.5,35484.4,1.1928,1.1947,136.6,98.3,0.468
16.38,32123.7,35286.9,0.6871,0.7084,136.6,98.3,0.468
16.4,32033.6,35116.5,0.1851,0.2887,136.6,98.3,0.468
16.42,32048.3,34998.5,0.2667,-0.0019,136.6,98.3,0.468
16.44,31968.2,35083.9,-0.1793,0.2083,136.6,98.3,0.468
16.46,31995.1,34949.1,-0.0292,-0.1236,136.6,98.3,0.468
16.48,31872.6,34894.2,-0.7118,-0.2589,136.6,98.3,0.468
16.5,31933.9,34772.7,-0.3704,-0.5581,136.6,98.3,0.468
16.52,31832.4,34663.7,-0.936,-0.8264,136.6,98.3,0.468
16.54,31833.0,34699.8,-0.9323,-0.7375,136.6,98.3,0.468
16.56,31891.1,34617.9,-0.609,-0.9392,136.6,98.3,0.468
16.58,31832.3,34623.5,-0.9361,-0.9255,136.6,98.3,0.468
16.6,31808.2,34531.4,-1.0709,-1.1524,136.6,98.3,0.468
16.62,31830.9,34442.6,-0.9442,-1.3709,136.6,98.3,0.468
16.64,31742.2,34492.2,-1.4385,-1.2489,136.6,98.3,0.468
16.66,31766.0,34505.8,-1.3056,-1.2154,136.6,98.3,0.468
16.68,31896.0,34856.4,-0.5813,-0.352,136.6,98.3,0.468
16.7,32157.1,35117.9,0.8731,0.2921,136.6,98.3,0.468
16.72,32354.1,35428.5,1.9707,1.0571,136.6,98.3,0.468
16.74,32319.5,35742.0,1.7775,1.8292,136.6,98.3,0.468
16.76,32232.1,35760.2,1.2907,1.8739,136.6,98.3,0.468
16.78,32216.3,35629.8,1.2029,1.5529,136.6,98.3,0.468
16.8,32209.3,35418.5,1.1638,1.0324,136.6,98.3,0.468
16.82,32065.5,35277.6,0.3627,0.6854,136.6,98.3,0.468
16.84,32120.9,35061.8,0.6714,0.154,136.6,98.3,0.468
16.86,32080.4,35010.5,0.4459,0.0277,136.6,98.3,0.468
16.88,32068.2,35067.6,0.378,0.1682,136.6,98.3,0.468
16.9,31925.5,35021.1,-0.4172,0.0538,136.6,98.3,0.468
16.92,31981.3,34909.5,-0.1066,-0.221,136.6,98.3,0.468
16.94,31866.8,34791.0,-0.7444,-0.5128,136.6,98.3,0.468
16.96,31805.5,34633.1,-1.0857,-0.9018,136.6,98.3,0.468
16.98,31870.7,34662.0,-0.7222,-0.8307,136.6,98.3,0.468
17.0,31894.3,34626.9,-0.5908,-0.9172,136.6,98.3,0.468
17.02,31800.5,34583.7,-1.1133,-1.0235,136.6,98.3,0.468
17.04,31855.6,34491.0,-0.8063,-1.2518,136.6,98.3,0.468
17.06,31830.8,34416.7,-0.9449,-1.4349,136.6,98.3,0.468
17.08,31769.2,34483.8,-1.2881,-1.2696,136.6,98.3,0.468
17.1,31807.5,34513.2,-1.0745,-1.1971,136.6,98.3,0.468
17.12,32013.9,34818.2,0.0754,-0.4458,136.6,98.3,0.468
17.14,32164.0,35171.4,0.9117,0.4238,136.6,98.3,0.468
17.16,32194.2,35540.9,1.0796,1.3338,136.6,98.3,0.468
17.18,32207.6,35794.2,1.1544,1.9577,136.6,98.3,0.468
17.2,32314.8,35705.9,1.7513,1.7402,136.6,98.3,0.468
17.22,32240.0,35624.2,1.3349,1.539,136.6,98.3,0.468
17.24,32113.3,35387.2,0.629,0.9553,136.6,98.3,0.468
17.26,32057.0,35338.4,0.3153,0.8351,136.6,98.3,0.468
17.28,32026.5,35051.6,0.1455,0.129,136.6,98.3,0.468
17.3,31954.5,34970.3,-0.2554,-0.0714,136.6,98.3,0.468
17.32,31941.7,34985.9,-0.327,-0.0329,136.6,98.3,0.468
17.34,31994.8,35059.3,-0.0313,0.1478,136.6,98.3,0.468
17.36,31941.7,34835.1,-0.3269,-0.4044,136.6,98.3,0.468
17.38,31914.3,34718.2,-0.4796,-0.6923,136.6,98.3,0.468
17.4,31950.1,34727.8,-0.2802,-0.6686,136.6,98.3,0.468
17.42,31764.5,34641.8,-1.3143,-0.8803,136.6,98.3,0.468
17.44,31859.8,34671.2,-0.7829,-0.808,136.6,98.3,0.468
17.46,31790.2,34624.5,-1.1712,-0.9231,136.6,98.3,0.468
17.48,31691.6,34458.5,-1.7202,-1.332,136.6,98.3,0.468
17.5,31726.7,34499.4,-1.5245,-1.2311,136.6,98.3,0.468
17.52,31689.5,34375.9,-1.7319,-1.5353,136.6,98.3,0.468
17.54,31786.5,34529.9,-1.1918,-1.156,136.6,98.3,0.468
17.56,32017.6,34838.1,0.0959,-0.397,136.6,98.3,0.468
17.58,32135.5,35191.0,0.7528,0.4722,136.6,98.3,0.468
17.6,32153.3,35450.7,0.8521,1.1117,136.6,98.3,0.468
17.62,32289.2,35696.2,1.609,1.7165,136.6,98.3,0.468
17.64,32404.7,35814.1,2.2526,2.0067,136.6,98.3,0.468
17.66,32256.2,35567.5,1.425,1.3994,136.6,98.3,0.468
17.68,32131.0,35430.1,0.7277,1.0611,136.6,98.3,0.468
17.7,32091.2,35274.5,0.5062,0.6778,136.6,98.3,0.468
17.72,32010.2,35170.3,0.0546,0.4212,136.6,98.3,0.468
17.74,32052.8,35203.5,0.2919,0.503,136.6,98.3,0.468
17.76,31987.8,35042.3,-0.0699,0.1059,136.6,98.3,0.468
17.78,32026.7,34921.9,0.1467,-0.1906,136.6,98.3,0.468
17.8,32032.1,34894.4,0.1764,-0.2584,136.6,98.3,0.468
17.82,31967.3,34847.7,-0.1842,-0.3733,136.6,98.3,0.468
17.84,31880.6,34657.7,-0.6671,-0.8413,136.6,98.3,0.468
17.86,31819.0,34750.3,-1.0102,-0.6131,136.6,98.3,0.468
17.88,31869.7,34675.6,-0.7281,-0.7971,136.6,98.3,0.468
17.9,31840.5,34616.4,-0.8904,-0.9431,136.6,98.3,0.468
17.92,31793.1,34584.9,-1.1548,-1.0206,136.6,98.3,0.468
17.94,31727.8,34536.2,-1.5183,-1.1404,136.6,98.3,0.468
17.96,31746.4,34430.2,-1.4147,-1.4015,136.6,98.3,0.468
17.98,31817.9,34528.8,-1.0165,-1.1586,136.6,98.3,0.468
18.0,31915.3,34828.0,-0.4738,-0.4218,136.6,98.3,0.468
18.02,32091.5,35273.8,0.5074,0.6761,136.6,98.3,0.468
18.04,32203.8,35529.6,1.1329,1.306,136.6,98.3,0.468
18.06,32360.3,35772.2,2.0052,1.9036,136.6,98.3,0.468
18.08,32274.2,35651.4,1.5254,1.6061,136.6,98.3,0.468
18.1,32199.6,35704.2,1.1096,1.736,136.6,98.3,0.468
18.12,32157.7,35378.5,0.8762,0.934,136.6,98.3,0.468
18.14,32183.8,35207.7,1.0218,0.5134,136.6,98.3,0.468
18.16,32006.9,35268.9,0.036,0.6641,136.6,98.3,0.468
18.18,32067.2,35106.7,0.3725,0.2646,136.6,98.3,0.468
18.2,32022.5,34936.7,0.1235,-0.1542,136.6,98.3,0.468
18.22,31928.2,34912.8,-0.4021,-0.2131,136.6,98.3,0.468
18.24,31935.5,34833.3,-0.3613,-0.4087,136.6,98.3,0.468
18.26,31832.0,34771.1,-0.9382,-0.562,136.6,98.3,0.468
18.28,31976.4,34664.7,-0.1335,-0.8239,136.6,98.3,0.468
18.3,31797.2,34588.5,-1.1321,-1.0118,136.6,98.3,0.468
18.32,31847.1,34665.5,-0.854,-0.822,136.6,98.3,0.468
18.34,31797.1,34539.7,-1.1327,-1.1317,136.6,98.3,0.468
18.36,31783.2,34572.7,-1.2099,-1.0505,136.6,98.3,0.468
18.38,31758.7,34425.1,-1.3465,-1.4142,136.6,98.3,0.468
18.4,31862.5,34520.6,-0.7681,-1.179,136.6,98.3,0.468
18.42,31860.9,34609.7,-0.7773,-0.9595,136.6,98.3,0.468
18.44,31912.4,34894.2,-0.4904,-0.2588,136.6,98.3,0.468
18.46,32093.1,35192.7,0.5163,0.4762,136.6,98.3,0.468
18.48,32202.7,35630.5,1.1273,1.5546,136.6,98.3,0.468
18.5,32394.3,35709.8,2.1944,1.7499,136.6,98.3,0.468
18.52,32291.7,35801.2,1.6226,1.975,136.6,98.3,0.468
18.54,32307.0,35699.6,1.7083,1.7247,136.6,98.3,0.468
18.56,32048.5,35416.3,0.2679,1.027,136.6,98.3,0.468
18.58,32055.0,35196.0,0.3042,0.4846,136.6,98.3,0.468
18.6,32060.1,35121.3,0.3328,0.3004,136.6,98.3,0.468
18.62,32033.4,35100.9,0.184,0.2502,136.6,98.3,0.468
18.64,31951.2,35032.9,-0.2737,0.0828,136.6,98.3,0.468
18.66,31981.2,34938.5,-0.1068,-0.1497,136.6,98.3,0.468
18.68,31912.7,34778.9,-0.4882,-0.5429,136.6,98.3,0.468
18.7,31915.8,34797.4,-0.4713,-0.4973,136.6,98.3,0.468
18.72,31766.0,34707.9,-1.3058,-0.7176,136.6,98.3,0.468
18.74,31834.9,34577.3,-0.9218,-1.0392,136.6,98.3,0.468
18.76,31833.2,34694.2,-0.9314,-0.7513,136.6,98.3,0.468
18.78,31807.5,34562.7,-1.0747,-1.0753,136.6,98.3,0.468
18.8,31847.4,34503.8,-0.8525,-1.2202,136.6,98.3,0.468
18.82,31807.7,34517.4,-1.0732,-1.1867,136.6,98.3,0.468
18.84,31766.2,34547.4,-1.3044,-1.113,136.6,98.3,0.468
18.86,31882.1,34630.5,-0.6587,-0.9084,136.6,98.3,0.468
18.88,31946.1,34873.9,-0.3022,-0.3087,136.6,98.3,0.468
18.9,32101.3,35272.1,0.562,0.672,136.6,98.3,0.468
18.92,32182.7,35457.7,1.0157,1.1289,136.6,98.3,0.468
18.94,32313.2,35707.4,1.7425,1.744,136.6,98.3,0.468
18.96,32329.9,35774.2,1.8356,1.9083,136.6,98.3,0.468
18.98,32135.3,35488.7,0.7516,1.2054,136.6,98.3,0.468
19.0,32233.5,35410.6,1.2988,1.0129,136.6,98.3,0.468
19.02,32186.6,35294.9,1.0372,0.7281,136.6,98.3,0.468
19.04,32067.3,35231.8,0.3725,0.5727,136.6,98.3,0.468
19.06,32064.1,35030.2,0.3551,0.0763,136.6,98.3,0.468
19.08,31994.5,35082.2,-0.0329,0.2041,136.6,98.3,0.468
19.1,31965.1,35007.7,-0.1963,0.0206,136.6,98.3,0.468
19.12,31904.4,34829.5,-0.5345,-0.4181,136.6,98.3,0.468
19.14,31921.0,34742.7,-0.442,-0.6319,136.6,98.3,0.468
19.16,31827.9,34621.1,-0.9608,-0.9314,136.6,98.3,0.468
19.18,31852.8,34637.0,-0.8224,-0.8923,136.6,98.3,0.468
19.2,31895.4,34710.4,-0.5851,-0.7113,136.6,98.3,0.468
19.22,31884.0,34595.9,-0.6482,-0.9934,136.6,98.3,0.468
19.24,31797.3,34571.8,-1.1316,-1.0529,136.6,98.3,0.468
19.26,31825.0,34413.4,-0.977,-1.443,136.6,98.3,0.468
19.28,31713.5,34535.6,-1.5985,-1.1421,136.6,98.3,0.468
19.3,31888.5,34652.2,-0.6232,-0.8548,136.6,98.3,0.468
19.32,31903.3,34938.6,-0.5409,-0.1495,136.6,98.3,0.468
19.34,32100.7,35272.4,0.5588,0.6726,136.6,98.3,0.468
19.36,32232.4,35605.0,1.2924,1.4917,136.6,98.3,0.468
19.38,32257.3,35806.0,1.431,1.9867,136.6,98.3,0.468
19.4,32309.4,35710.2,1.7217,1.7509,136.6,98.3,0.468
19.42,32296.5,35601.8,1.6493,1.4838,136.6,98.3,0.468
19.44,32124.1,35443.4,0.6891,1.0938,136.6,98.3,0.468
19.46,32058.6,35237.7,0.3243,0.5871,136.6,98.3,0.468
19.48,32160.5,35199.5,0.8921,0.4932,136.6,98.3,0.468
19.5,32092.9,35108.3,0.5155,0.2685,136.6,98.3,0.468
19.52,31945.9,35053.1,-0.3033,0.1327,136.6,98.3,0.468
19.54,32080.3,34894.6,0.4453,-0.2578,136.6,98.3,0.468
19.56,31904.7,34842.2,-0.5328,-0.3868,136.6,98.3,0.468
19.58,31855.0,34765.7,-0.8101,-0.5753,136.6,98.3,0.468
19.6,31862.2,34734.9,-0.7697,-0.6511,136.6,98.3,0.468
19.62,31779.9,34706.3,-1.2283,-0.7214,136.6,98.3,0.468
19.64,31852.8,34610.6,-0.8221,-0.9571,136.6,98.3,0.468
19.66,31785.6,34608.4,-1.1964,-0.9628,136.6,98.3,0.468
19.68,31824.2,34509.5,-0.9815,-1.2062,136.6,98.3,0.468
19.7,31875.7,34446.4,-0.6945,-1.3617,136.6,98.3,0.468
19.72,31836.0,34486.8,-0.9159,-1.2623,136.6,98.3,0.468
19.74,31788.9,34607.6,-1.1782,-0.9647,136.6,98.3,0.468
19.76,31947.6,34908.7,-0.2942,-0.2232,136.6,98.3,0.468
19.78,32025.4,35290.1,0.1394,0.7163,136.6,98.3,0.468
19.8,32258.5,35561.3,1.4378,1.3842,136.6,98.3,0.468
19.82,32322.6,35786.7,1.795,1.9392,136.6,98.3,0.468
19.84,32302.2,35678.6,1.6812,1.6731,136.6,98.3,0.468
19.86,32185.8,35593.9,1.0328,1.4644,136.6,98.3,0.468
19.88,32148.1,35427.5,0.823,1.0547,136.6,98.3,0.468
19.9,32119.4,35293.1,0.6628,0.7236,136.6,98.3,0.468
19.92,31951.6,35151.7,-0.2716,0.3754,136.6,98.3,0.468
19.94,32049.3,35100.5,0.2724,0.2493,136.6,98.3,0.468
19.96,32085.5,35035.0,0.4743,0.0881,136.6,98.3,0.468
19.98,32051.1,34952.6,0.2825,-0.1148,136.6,98.3,0.468
20.0,31895.3,34893.3,-0.5857,-0.261,136.6,98.3,0.468
20.02,31962.3,34766.6,-0.2121,-0.5731,136.6,98.3,0.468
20.04,31847.2,34688.5,-0.8535,-0.7654,136.6,98.3,0.468
20.06,31854.5,34570.0,-0.8127,-1.0572,136.6,98.3,0.468
20.08,31938.7,34672.4,-0.3434,-0.8049,136.6,98.3,0.468
20.1,31853.6,34606.8,-0.818,-0.9666,136.6,98.3,0.468
20.12,31735.8,34491.3,-1.4741,-1.2511,136.6,98.3,0.468
20.14,31830.0,34424.2,-0.949,-1.4162,136.6,98.3,0.468
20.16,31704.0,34579.9,-1.6513,-1.0328,136.6,98.3,0.468
20.18,31830.1,34612.3,-0.9487,-0.9531,136.6,98.3,0.468
20.2,32028.3,34910.5,0.1555,-0.2186,136.6,98.3,0.468
20.22,32139.1,35316.7,0.7728,0.7818,136.6,98.3,0.468
20.24,32198.4,35565.9,1.1029,1.3956,136.6,98.3,0.468
20.26,32268.5,35658.9,1.4935,1.6245,136.6,98.3,0.468
20.28,32332.3,35765.7,1.8491,1.8876,136.6,98.3,0.468
20.3,32237.5,35612.2,1.3211,1.5094,136.6,98.3,0.468
20.32,32108.3,35372.3,0.6013,0.9186,136.6,98.3,0.468
20.34,32016.3,35243.5,0.0889,0.6013,136.6,98.3,0.468
20.36,32068.7,35171.3,0.3806,0.4236,136.6,98.3,0.468
20.38,32082.2,35138.5,0.4556,0.343,136.6,98.3,0.468
20.4,32031.7,35036.2,0.1744,0.091,136.6,98.3,0.468
20.42,32038.7,34959.3,0.2133,-0.0985,136.6,98.3,0.468
20.44,32012.7,34832.3,0.0686,-0.4112,136.6,98.3,0.468
20.46,31966.5,34707.1,-0.1888,-0.7196,136.6,98.3,0.468
20.48,31904.5,34698.6,-0.5343,-0.7406,136.6,98.3,0.468
20.5,31898.0,34601.4,-0.5706,-0.98,136.6,98.3,0.468
20.52,31927.7,34539.4,-0.4049,-1.1326,136.6,98.3,0.468
20.54,31827.2,34637.0,-0.9648,-0.8923,136.6,98.3,0.468
20.56,31836.0,34541.9,-0.9156,-1.1264,136.6,98.3,0.468
20.58,31803.2,34434.6,-1.0985,-1.3907,136.6,98.3,0.468
20.6,31801.1,34355.6,-1.1099,-1.5853,136.6,98.3,0.468
20.62,31843.1,34633.4,-0.876,-0.9012,136.6,98.3,0.468
20.64,31955.2,34955.3,-0.2515,-0.1082,136.6,98.3,0.468
20.66,32083.2,35378.5,0.4614,0.934,136.6,98.3,0.468
20.68,32272.3,35585.3,1.5148,1.4432,136.6,98.3,0.468
20.7,32314.9,35866.4,1.7519,2.1355,136.6,98.3,0.468
20.72,32299.6,35771.2,1.6668,1.9011,136.6,98.3,0.468
20.74,32176.0,35670.9,0.9782,1.6541,136.6,98.3,0.468
20.76,32140.4,35331.6,0.7801,0.8184,136.6,98.3,0.468
20.78,32108.2,35204.0,0.6006,0.5043,136.6,98.3,0.468
20.8,32116.1,35108.6,0.6444,0.2693,136.6,98.3,0.468
20.82,32147.4,35084.9,0.8193,0.2108,136.6,98.3,0.468
20.84,32036.1,35067.0,0.199,0.1668,136.6,98.3,0.468
20.86,32127.4,34994.0,0.7077,-0.0129,136.6,98.3,0.468
20.88,31866.6,34831.8,-0.7452,-0.4125,136.6,98.3,0.468
20.9,31974.1,34763.8,-0.1467,-0.5799,136.6,98.3,0.468
20.92,31874.1,34697.4,-0.7036,-0.7436,136.6,98.3,0.468
20.94,31927.1,34657.0,-0.4081,-0.8429,136.6,98.3,0.468
20.96,31888.9,34636.3,-0.6211,-0.8939,136.6,98.3,0.468
20.98,31875.0,34620.3,-0.6983,-0.9332,136.6,98.3,0.468
21.0,31719.2,34559.8,-1.5662,-1.0824,136.6,98.3,0.468
21.02,31685.6,34423.0,-1.7535,-1.4194,136.6,98.3,0.468
21.04,31764.5,34476.8,-1.3139,-1.2868,136.6,98.3,0.468
21.06,31803.7,34610.6,-1.0959,-0.9574,136.6,98.3,0.468
21.08,31954.7,34885.7,-0.2544,-0.2797,136.6,98.3,0.468
21.1,32117.8,35372.6,0.6541,0.9194,136.6,98.3,0.468
21.12,32176.4,35654.0,0.9805,1.6124,136.6,98.3,0.468
21.14,32326.4,35683.3,1.8162,1.6845,136.6,98.3,0.468
21.16,32209.9,35751.4,1.1673,1.8523,136.6,98.3,0.468
21.18,32243.9,35614.9,1.3565,1.5162,136.6,98.3,0.468
21.2,32102.9,35391.0,0.5709,0.9648,136.6,98.3,0.468
21.22,32129.1,35240.4,0.717,0.5938,136.6,98.3,0.468
21.24,32021.9,35145.3,0.1197,0.3595,136.6,98.3,0.468
21.26,32063.3,35146.3,0.3503,0.3621,136.6,98.3,0.468
21.28,32029.6,35065.4,0.1629,0.1628,136.6,98.3,0.468
21.3,32022.6,34988.5,0.1236,-0.0264,136.6,98.3,0.468
21.32,31976.6,34762.4,-0.1327,-0.5835,136.6,98.3,0.468
21.34,31854.9,34767.8,-0.8103,-0.5701,136.6,98.3,0.468
21.36,31828.8,34695.5,-0.9562,-0.7482,136.6,98.3,0.468
21.38,31852.9,34734.9,-0.8216,-0.6511,136.6,98.3,0.468
21.4,31964.1,34763.8,-0.2019,-0.5801,136.6,98.3,0.468
21.42,31849.6,34637.3,-0.8399,-0.8915,136.6,98.3,0.468
21.44,31707.7,34491.1,-1.6304,-1.2516,136.6,98.3,0.468
21.46,31740.2,34477.9,-1.4493,-1.284,136.6,98.3,0.468
21.48,31805.4,34559.5,-1.0862,-1.0832,136.6,98.3,0.468
21.5,31823.8,34652.0,-0.9836,-0.8554,136.6,98.3,0.468
21.52,32008.9,34925.2,0.0475,-0.1824,136.6,98.3,0.468
21.54,32208.0,35322.2,1.1568,0.7953,136.6,98.3,0.468
21.56,32250.5,35582.9,1.3936,1.4374,136.6,98.3,0.468
21.58,32298.3,35752.9,1.6596,1.856,136.6,98.3,0.468
21.6,32306.6,35734.0,1.7057,1.8095,136.6,98.3,0.468
21.62,32240.7,35579.6,1.3387,1.4293,136.6,98.3,0.468
21.64,32188.6,35432.7,1.0487,1.0674,136.6,98.3,0.468
21.66,32160.6,35215.0,0.8923,0.5313,136.6,98.3,0.468
21.68,32039.0,35124.9,0.2153,0.3093,136.6,98.3,0.468
21.7,32045.6,35161.7,0.2516,0.3999,136.6,98.3,0.468
21.72,31953.1,35005.6,-0.2632,0.0156,136.6,98.3,0.468
21.74,32002.0,34894.2,0.0089,-0.2587,136.6,98.3,0.468
21.76,31930.7,34798.3,-0.388,-0.495,136.6,98.3,0.468
21.78,31907.0,34726.2,-0.5204,-0.6726,136.6,98.3,0.468
21.8,32010.1,34753.7,0.0544,-0.6049,136.6,98.3,0.468
21.82,31725.8,34677.2,-1.5298,-0.7933,136.6,98.3,0.468
21.84,31905.2,34686.4,-0.5304,-0.7704,136.6,98.3,0.468
21.86,31917.9,34571.1,-0.4593,-1.0546,136.6,98.3,0.468
21.88,31847.2,34483.2,-0.8535,-1.271,136.6,98.3,0.468
21.9,31756.8,34484.0,-1.357,-1.269,136.6,98.3,0.468
21.92,31813.1,34458.7,-1.0431,-1.3313,136.6,98.3,0.468
21.94,31854.3,34685.4,-0.8139,-0.7729,136.6,98.3,0.468
21.96,31956.2,35008.8,-0.2463,0.0236,136.6,98.3,0.468
21.98,32106.8,35356.5,0.5926,0.8798,136.6,98.3,0.468
22.0,32283.4,35617.6,1.5766,1.5229,136.6,98.3,0.468
22.02,32267.4,35675.2,1.4876,1.6646,136.6,98.3,0.468
22.04,32265.2,35755.1,1.4754,1.8613,136.6,98.3,0.468
22.06,32311.6,35572.8,1.7335,1.4125,136.6,98.3,0.468
22.08,32141.6,35366.5,0.7868,0.9044,136.6,98.3,0.468
22.1,32102.0,35279.8,0.566,0.6909,136.6,98.3,0.468
22.12,32159.8,35110.7,0.8881,0.2743,136.6,98.3,0.468
22.14,32022.6,35060.4,0.124,0.1505,136.6,98.3,0.468
22.16,32122.3,35013.5,0.6791,0.0351,136.6,98.3,0.468
22.18,31938.1,34910.1,-0.347,-0.2197,136.6,98.3,0.468
22.2,31925.5,34900.2,-0.4174,-0.2439,136.6,98.3,0.468
22.22,31811.9,34638.1,-1.0502,-0.8896,136.6,98.3,0.468
22.24,31919.3,34683.9,-0.4517,-0.7768,136.6,98.3,0.468
22.26,31841.8,34653.6,-0.8833,-0.8514,136.6,98.3,0.468
22.28,31830.7,34708.2,-0.9455,-0.7168,136.6,98.3,0.468
22.3,31862.8,34624.5,-0.7663,-0.923,136.6,98.3,0.468
22.32,31787.2,34431.4,-1.1874,-1.3985,136.6,98.3,0.468
22.34,31819.4,34373.5,-1.0081,-1.5411,136.6,98.3,0.468
22.36,31783.2,34453.5,-1.2101,-1.3442,136.6,98.3,0.468
22.38,31853.7,34620.1,-0.8173,-0.9339,136.6,98.3,0.468
22.4,31999.7,34925.2,-0.0039,-0.1824,136.6,98.3,0.468
22.42,32125.7,35357.4,0.6984,0.8819,136.6,98.3,0.468
22.44,32348.1,35648.9,1.9369,1.5998,136.6,98.3,0.468
22.46,32354.9,35747.2,1.9751,1.842,136.6,98.3,0.468
22.48,32272.2,35646.8,1.5141,1.5948,136.6,98.3,0.468
22.5,32158.1,35532.8,0.8788,1.3138,136.6,98.3,0.468
22.52,32146.7,35312.7,0.815,0.772,136.6,98.3,0.468
22.54,32126.2,35161.6,0.7006,0.3997,136.6,98.3,0.468
22.56,32157.5,35116.9,0.8752,0.2898,136.6,98.3,0.468
22.58,31980.1,35108.8,-0.1132,0.2697,136.6,98.3,0.468
22.6,32094.0,35110.8,0.5217,0.2746,136.6,98.3,0.468
22.62,31928.4,34880.7,-0.4009,-0.2919,136.6,98.3,0.468
22.64,31905.7,34886.4,-0.5274,-0.2781,136.6,98.3,0.468
22.66,31854.6,34708.9,-0.812,-0.7152,136.6,98.3,0.468
22.68,31820.6,34641.0,-1.0014,-0.8823,136.6,98.3,0.468
22.7,31842.2,34588.2,-0.8811,-1.0125,136.6,98.3,0.468
22.72,31843.2,34626.1,-0.8755,-0.919,136.6,98.3,0.468
22.74,31821.2,34720.0,-0.9984,-0.6879,136.6,98.3,0.468
22.76,31789.9,34435.7,-1.1726,-1.388,136.6,98.3,0.468
22.78,31828.7,34459.6,-0.9565,-1.3291,136.6,98.3,0.468
22.8,31821.4,34375.2,-0.9972,-1.537,136.6,98.3,0.468
22.82,31826.5,34645.5,-0.9688,-0.8712,136.6,98.3,0.468
22.84,32118.2,34993.8,0.6562,-0.0134,136.6,98.3,0.468
22.86,32133.3,35416.9,0.7403,1.0285,136.6,98.3,0.468
22.88,32172.4,35675.6,0.9581,1.6656,136.6,98.3,0.468
22.9,32305.5,35749.3,1.6998,1.8472,136.6,98.3,0.468
22.92,32296.1,35647.4,1.6473,1.5961,136.6,98.3,0.468
22.94,32156.9,35527.8,0.8719,1.3016,136.6,98.3,0.468
22.96,32201.5,35317.8,1.1205,0.7844,136.6,98.3,0.468
22.98,32020.4,35210.6,0.1113,0.5203,136.6,98.3,0.468
23.0,31975.9,35214.3,-0.1362,0.5296,136.6,98.3,0.468
23.02,32030.0,35073.5,0.1648,0.1828,136.6,98.3,0.468
23.04,31949.9,35033.3,-0.2813,0.0838,136.6,98.3,0.468
23.06,32010.2,34944.9,0.0548,-0.1338,136.6,98.3,0.468
23.08,31892.4,34874.5,-0.6015,-0.3072,136.6,98.3,0.468
23.1,31826.8,34801.1,-0.9669,-0.4881,136.6,98.3,0.468
23.12,31868.8,34685.5,-0.7329,-0.7727,136.6,98.3,0.468
23.14,31907.6,34654.0,-0.5171,-0.8503,136.6,98.3,0.468
23.16,31882.0,34585.9,-0.6595,-1.0181,136.6,98.3,0.468
23.18,31906.7,34668.8,-0.5221,-0.8139,136.6,98.3,0.468
23.2,31745.9,34552.9,-1.4176,-1.0994,136.6,98.3,0.468
23.22,31778.8,34458.9,-1.2342,-1.3309,136.6,98.3,0.468
23.24,31826.2,34532.6,-0.9704,-1.1493,136.6,98.3,0.468
23.26,31834.5,34619.9,-0.924,-0.9342,136.6,98.3,0.468
23.28,31973.7,35093.3,-0.1488,0.2316,136.6,98.3,0.468
23.3,32124.5,35370.2,0.6915,0.9134,136.6,98.3,0.468
23.32,32276.4,35590.0,1.5376,1.4549,136.6,98.3,0.468
23.34,32278.4,35765.1,1.5486,1.886,136.6,98.3,0.468
23.36,32322.6,35660.1,1.7949,1.6274,136.6,98.3,0.468
23.38,32169.6,35560.8,0.9425,1.383,136.6,98.3,0.468
23.4,32087.4,35387.2,0.4847,0.9554,136.6,98.3,0.468
23.42,32054.2,35138.7,0.2997,0.3435,136.6,98.3,0.468
23.44,31979.9,35037.8,-0.1142,0.0948,136.6,98.3,0.468
23.46,31986.6,34969.3,-0.077,-0.0739,136.6,98.3,0.468
23.48,32006.9,35033.2,0.0363,0.0836,136.6,98.3,0.468
23.5,31897.0,34917.6,-0.5758,-0.2011,136.6,98.3,0.468
23.52,31906.6,34777.8,-0.5223,-0.5454,136.6,98.3,0.468
23.54,31873.3,34715.2,-0.7079,-0.6996,136.6,98.3,0.468
23.56,31834.9,34617.8,-0.922,-0.9394,136.6,98.3,0.468
23.58,31753.7,34689.7,-1.3742,-0.7624,136.6,98.3,0.468
23.6,31817.9,34568.1,-1.0168,-1.0619,136.6,98.3,0.468
23.62,31808.0,34547.0,-1.072,-1.114,136.6,98.3,0.468
23.64,31820.5,34474.8,-1.0022,-1.2916,136.6,98.3,0.468
23.66,31816.8,34499.9,-1.0227,-1.2299,136.6,98.3,0.468
23.68,31772.5,34546.4,-1.2693,-1.1153,136.6,98.3,0.468
23.7,31943.3,34676.6,-0.3183,-0.7946,136.6,98.3,0.468
23.72,31996.0,34953.7,-0.0245,-0.1124,136.6,98.3,0.468
23.74,32215.3,35407.2,1.1975,1.0045,136.6,98.3,0.468
23.76,32260.1,35689.0,1.447,1.6986,136.6,98.3,0.468
23.78,32286.4,35765.5,1.5935,1.8871,136.6,98.3,0.468
23.8,32350.1,35715.3,1.9484,1.7634,136.6,98.3,0.468
23.82,32265.1,35532.4,1.4744,1.3129,136.6,98.3,0.468
23.84,32127.9,35346.2,0.7105,0.8543,136.6,98.3,0.468
23.86,32024.5,35173.1,0.1342,0.4281,136.6,98.3,0.468
23.88,32111.3,35065.9,0.618,0.1641,136.6,98.3,0.468
23.9,32065.8,35108.9,0.3645,0.2699,136.6,98.3,0.468
23.92,31971.0,35074.2,-0.1636,0.1844,136.6,98.3,0.468
23.94,31943.4,34892.2,-0.3175,-0.2636,136.6,98.3,0.468
23.96,32010.9,34767.0,0.0585,-0.572,136.6,98.3,0.468
23.98,31910.0,34670.8,-0.5033,-0.8089,136.6,98.3,0.468
24.0,31866.0,34695.1,-0.7489,-0.7491,136.6,98.3,0.468
24.02,31785.2,34699.2,-1.199,-0.7391,136.6,98.3,0.468
24.04,31903.3,34658.5,-0.5409,-0.8392,136.6,98.3,0.468
24.06,31760.8,34663.9,-1.3345,-0.8259,136.6,98.3,0.468
24.08,31802.7,34550.6,-1.1013,-1.1051,136.6,98.3,0.468
24.1,31786.4,34444.4,-1.1921,-1.3665,136.6,98.3,0.468
24.12,31800.3,34468.7,-1.1145,-1.3068,136.6,98.3,0.468
24.14,31861.3,34619.3,-0.775,-0.9359,136.6,98.3,0.468
24.16,31959.3,35002.5,-0.2289,0.0079,136.6,98.3,0.468
24.18,32181.9,35433.6,1.0113,1.0697,136.6,98.3,0.468
24.2,32225.5,35656.0,1.2541,1.6172,136.6,98.3,0.468
24.22,32315.4,35690.8,1.7551,1.703,136.6,98.3,0.468
24.24,32219.7,35741.1,1.222,1.8271,136.6,98.3,0.468
24.26,32224.1,35537.2,1.2463,1.3248,136.6,98.3,0.468
24.28,32190.7,35311.0,1.0602,0.7678,136.6,98.3,0.468
24.3,32144.2,35177.2,0.8012,0.4382,136.6,98.3,0.468
24.32,32072.4,35195.1,0.4014,0.4824,136.6,98.3,0.468
24.34,32006.4,35089.4,0.0332,0.2218,136.6,98.3,0.468
24.36,31874.1,35011.0,-0.7036,0.029,136.6,98.3,0.468
24.38,31903.2,34951.3,-0.5413,-0.1183,136.6,98.3,0.468
24.4,31917.0,34806.0,-0.4646,-0.476,136.6,98.3,0.468
24.42,31827.1,34663.8,-0.9654,-0.8263,136.6,98.3,0.468
24.44,31859.2,34696.7,-0.7866,-0.7453,136.6,98.3,0.468
24.46,31878.7,34691.4,-0.6777,-0.7583,136.6,98.3,0.468
24.48,31893.2,34627.2,-0.597,-0.9163,136.6,98.3,0.468
24.5,31778.1,34561.4,-1.2383,-1.0784,136.6,98.3,0.468
24.52,31836.3,34501.8,-0.9139,-1.2251,136.6,98.3,0.468
24.54,31777.7,34405.9,-1.2408,-1.4615,136.6,98.3,0.468
24.56,31818.4,34447.1,-1.0139,-1.36,136.6,98.3,0.468
24.58,31914.1,34780.9,-0.4805,-0.5377,136.6,98.3,0.468
24.6,32031.5,35024.9,0.1734,0.0631,136.6,98.3,0.468
24.62,32157.0,35440.8,0.8724,1.0875,136.6,98.3,0.468
24.64,32251.4,35774.9,1.3986,1.9102,136.6,98.3,0.468
24.66,32300.1,35778.2,1.6697,1.9182,136.6,98.3,0.468
24.68,32290.3,35673.0,1.6152,1.6593,136.6,98.3,0.468
24.7,32242.9,35539.5,1.3508,1.3306,136.6,98.3,0.468
24.72,32056.3,35421.6,0.3113,1.0401,136.6,98.3,0.468
24.74,32055.9,35227.6,0.3094,0.5622,136.6,98.3,0.468
24.76,32011.5,35154.4,0.0621,0.382,136.6,98.3,0.468
24.78,32000.4,35106.2,-0.0002,0.2634,136.6,98.3,0.468
24.8,32058.5,34945.9,0.3236,-0.1315,136.6,98.3,0.468
24.82,31970.1,34918.3,-0.1689,-0.1994,136.6,98.3,0.468
24.84,31870.0,34838.7,-0.7265,-0.3955,136.6,98.3,0.468
24.86,31836.5,34699.8,-0.9129,-0.7376,136.6,98.3,0.468
24.88,31963.0,34739.8,-0.2084,-0.6391,136.6,98.3,0.468
24.9,31933.2,34662.2,-0.3743,-0.8301,136.6,98.3,0.468
24.92,31843.6,34712.6,-0.8733,-0.706,136.6,98.3,0.468
24.94,31849.0,34511.7,-0.8432,-1.2008,136.6,98.3,0.468
24.96,31760.9,34448.9,-1.334,-1.3556,136.6,98.3,0.468
24.98,31800.2,34467.1,-1.1153,-1.3108,136.6,98.3,0.468
25.0,31783.0,34578.4,-1.2112,-1.0366,136.6,98.3,0.468
25.02,31882.8,34756.7,-0.6551,-0.5975,136.6,98.3,0.468
25.04,32056.6,35034.5,0.313,0.0868,136.6,98.3,0.468
25.06,32186.8,35384.2,1.0383,0.948,136.6,98.3,0.468
25.08,32326.4,35501.2,1.8163,1.236,136.6,98.3,0.468
25.1,32363.4,35774.3,2.0225,1.9086,136.6,98.3,0.468
25.12,32239.3,35685.3,1.3309,1.6894,136.6,98.3,0.468
25.14,32252.7,35488.3,1.4054,1.2044,136.6,98.3,0.468
25.16,32218.0,35382.0,1.2121,0.9426,136.6,98.3,0.468
25.18,32137.9,35202.5,0.7661,0.5005,136.6,98.3,0.468
25.2,32051.5,35025.9,0.2849,0.0656,136.6,98.3,0.468
25.22,32116.8,35083.0,0.6488,0.2063,136.6,98.3,0.468
25.24,31971.5,35131.3,-0.1609,0.3251,136.6,98.3,0.468
25.26,31969.6,34848.2,-0.1717,-0.372,136.6,98.3,0.468
25.28,31881.6,34786.7,-0.6619,-0.5236,136.6,98.3,0.468
25.3,31853.5,34707.3,-0.8182,-0.719,136.6,98.3,0.468
25.32,31923.5,34788.6,-0.4282,-0.519,136.6,98.3,0.468
25.34,31832.4,34665.4,-0.9358,-0.8222,136.6,98.3,0.468
25.36,31982.5,34633.5,-0.0998,-0.9007,136.6,98.3,0.468
25.38,31843.5,34548.7,-0.8741,-1.1098,136.6,98.3,0.468
25.4,31758.5,34540.4,-1.3473,-1.1301,136.6,98.3,0.468
25.42,31785.2,34557.4,-1.1986,-1.0882,136.6,98.3,0.468
25.44,31788.5,34452.4,-1.1802,-1.3468,136.6,98.3,0.468
25.46,31857.9,34719.2,-0.7937,-0.6899,136.6,98.3,0.468
25.48,31998.9,35198.1,-0.0081,0.4896,136.6,98.3,0.468
25.5,32125.8,35390.6,0.6985,0.9636,136.6,98.3,0.468
25.52,32266.2,35641.8,1.4807,1.5823,136.6,98.3,0.468
25.54,32372.6,35800.7,2.0737,1.9736,136.6,98.3,0.468
25.56,32335.5,35641.6,1.8669,1.582,136.6,98.3,0.468
25.58,32224.9,35417.4,1.2509,1.0298,136.6,98.3,0.468
25.6,32174.2,35332.0,0.9681,0.8194,136.6,98.3,0.468
25.62,32083.1,35278.2,0.4608,0.6868,136.6,98.3,0.468
25.64,32064.9,35077.5,0.3593,0.1927,136.6,98.3,0.468
25.66,31949.5,35001.1,-0.2837,0.0045,136.6,98.3,0.468
25.68,32013.2,34933.1,0.0714,-0.163,136.6,98.3,0.468
25.7,31970.1,34881.6,-0.1686,-0.2897,136.6,98.3,0.468
25.72,31995.7,34752.5,-0.0261,-0.6077,136.6,98.3,0.468
25.74,31845.4,34696.4,-0.8636,-0.7458,136.6,98.3,0.468
25.76,31878.4,34688.9,-0.6794,-0.7645,136.6,98.3,0.468
25.78,31900.5,34683.2,-0.5565,-0.7785,136.6,98.3,0.468
25.8,31784.5,34623.2,-1.2026,-0.9263,136.6,98.3,0.468
25.82,31829.9,34615.9,-0.9495,-0.9441,136.6,98.3,0.468
25.84,31728.2,34591.3,-1.5163,-1.0049,136.6,98.3,0.468
25.86,31765.1,34472.0,-1.3106,-1.2987,136.6,98.3,0.468
25.88,31810.5,34500.7,-1.0579,-1.2278,136.6,98.3,0.468
25.9,31853.4,34733.9,-0.8189,-0.6536,136.6,98.3,0.468
25.92,32052.8,35061.7,0.292,0.1538,136.6,98.3,0.468
25.94,32116.6,35473.8,0.6474,1.1686,136.6,98.3,0.468
25.96,32267.4,35721.0,1.4874,1.7775,136.6,98.3,0.468
25.98,32330.6,35768.1,1.8399,1.8935,136.6,98.3,0.468
26.0,32315.3,35723.2,1.7541,1.7828,136.6,98.3,0.468
26.02,32295.1,35493.6,1.642,1.2174,136.6,98.3,0.468
26.04,32119.0,35316.3,0.6608,0.7808,136.6,98.3,0.468
26.06,31996.5,35229.4,-0.0215,0.5666,136.6,98.3,0.468
26.08,32072.8,35069.3,0.4036,0.1723,136.6,98.3,0.468
26.1,32064.3,35166.3,0.3559,0.4113,136.6,98.3,0.468
26.12,31992.7,34954.4,-0.0426,-0.1105,136.6,98.3,0.468
26.14,31841.1,34943.9,-0.8874,-0.1365,136.6,98.3,0.468
26.16,31920.5,34799.4,-0.4451,-0.4923,136.6,98.3,0.468
26.18,31938.5,34764.5,-0.3447,-0.5783,136.6,98.3,0.468
26.2,31810.9,34661.6,-1.0555,-0.8315,136.6,98.3,0.468
26.22,31913.1,34673.7,-0.4862,-0.8018,136.6,98.3,0.468
26.24,31905.5,34693.4,-0.5284,-0.7533,136.6,98.3,0.468
26.26,31765.3,34560.0,-1.3098,-1.0817,136.6,98.3,0.468
26.28,31817.3,34462.8,-1.0202,-1.3212,136.6,98.3,0.468
26.3,31782.2,34382.0,-1.2153,-1.5203,136.6,98.3,0.468
26.32,31864.6,34484.7,-0.7563,-1.2674,136.6,98.3,0.468
26.34,31838.9,34749.7,-0.8995,-0.6147,136.6,98.3,0.468
26.36,32040.1,35173.1,0.2211,0.4282,136.6,98.3,0.468
26.38,32153.3,35426.1,0.8517,1.0513,136.6,98.3,0.468
26.4,32241.7,35684.8,1.3442,1.6883,136.6,98.3,0.468
26.42,32358.1,35734.5,1.9927,1.8108,136.6,98.3,0.468
26.44,32388.6,35732.0,2.1625,1.8045,136.6,98.3,0.468
26.46,32119.3,35513.3,0.6622,1.266,136.6,98.3,0.468
26.48,32131.2,35236.2,0.7287,0.5835,136.6,98.3,0.468
26.5,32129.6,35142.5,0.7198,0.3528,136.6,98.3,0.468
26.52,31979.8,35079.9,-0.1148,0.1985,136.6,98.3,0.468
26.54,32048.1,35091.3,0.266,0.2266,136.6,98.3,0.468
26.56,32063.2,35025.2,0.3498,0.0638,136.6,98.3,0.468
26.58,31929.5,34968.9,-0.3948,-0.0749,136.6,98.3,0.468
26.6,31912.9,34901.9,-0.4872,-0.2398,136.6,98.3,0.468
26.62,31829.5,34676.0,-0.9518,-0.7961,136.6,98.3,0.468
26.64,31846.8,34643.9,-0.8557,-0.8752,136.6,98.3,0.468
26.66,31894.4,34672.0,-0.5904,-0.8061,136.6,98.3,0.468
26.68,31768.9,34696.5,-1.2898,-0.7458,136.6,98.3,0.468
26.7,31866.9,34474.1,-0.7439,-1.2934,136.6,98.3,0.468
26.72,31774.3,34491.3,-1.2596,-1.251,136.6,98.3,0.468
26.74,31774.9,34474.2,-1.2562,-1.2933,136.6,98.3,0.468
26.76,31879.5,34577.0,-0.6734,-1.0401,136.6,98.3,0.468
26.78,31919.1,34689.9,-0.4531,-0.762,136.6,98.3,0.468
26.8,32084.9,35129.4,0.4706,0.3205,136.6,98.3,0.468
26.82,32140.6,35482.7,0.7808,1.1907,136.6,98.3,0.468
26.84,32236.0,35705.7,1.3127,1.7397,136.6,98.3,0.468
26.86,32299.1,35785.2,1.6641,1.9356,136.6,98.3,0.468
26.88,32303.0,35740.9,1.686,1.8265,136.6,98.3,0.468
26.9,32200.7,35529.4,1.1157,1.3057,136.6,98.3,0.468
26.92,32178.9,35279.4,0.9947,0.6899,136.6,98.3,0.468
26.94,32085.9,35193.4,0.4765,0.478,136.6,98.3,0.468
26.96,32040.8,35022.0,0.2252,0.0559,136.6,98.3,0.468
26.98,32128.3,35064.1,0.7126,0.1597,136.6,98.3,0.468
27.0,32001.5,35005.0,0.0062,0.0141,136.6,98.3,0.468
27.02,31945.0,34920.8,-0.3086,-0.1932,136.6,98.3,0.468
27.04,31889.6,34770.5,-0.617,-0.5634,136.6,98.3,0.468
27.06,31874.2,34652.9,-0.7029,-0.8532,136.6,98.3,0.468
27.08,31882.1,34806.7,-0.6592,-0.4743,136.6,98.3,0.468
27.1,31841.5,34542.9,-0.885,-1.1241,136.6,98.3,0.468
27.12,31903.4,34701.6,-0.5404,-0.733,136.6,98.3,0.468
27.14,31882.9,34563.5,-0.6547,-1.0732,136.6,98.3,0.468
27.16,31851.9,34465.8,-0.8272,-1.3139,136.6,98.3,0.468
27.18,31751.0,34496.4,-1.3891,-1.2384,136.6,98.3,0.468
27.2,31654.5,34495.6,-1.9269,-1.2405,136.6,98.3,0.468
27.22,31947.5,34718.5,-0.2944,-0.6916,136.6,98.3,0.468
27.24,32041.7,35029.6,0.2301,0.0746,136.6,98.3,0.468
27.26,32202.7,35495.9,1.1269,1.2231,136.6,98.3,0.468
27.28,32239.0,35751.9,1.3293,1.8535,136.6,98.3,0.468
27.3,32293.7,35716.8,1.6338,1.7671,136.6,98.3,0.468
27.32,32254.9,35583.4,1.4177,1.4386,136.6,98.3,0.468
27.34,32244.9,35467.7,1.3624,1.1537,136.6,98.3,0.468
27.36,32219.2,35212.5,1.2189,0.5252,136.6,98.3,0.468
27.38,32116.0,35088.1,0.6442,0.2187,136.6,98.3,0.468
27.4,32068.0,35075.2,0.3766,0.1869,136.6,98.3,0.468
27.42,32015.4,35017.7,0.0836,0.0454,136.6,98.3,0.468
27.44,32039.0,35031.0,0.2151,0.078,136.6,98.3,0.468
27.46,32006.0,34851.0,0.0311,-0.3653,136.6,98.3,0.468
27.48,31920.5,34846.3,-0.4452,-0.3768,136.6,98.3,0.468
27.5,31858.6,34771.4,-0.79,-0.5611,136.6,98.3,0.468
27.52,31880.9,34717.7,-0.6659,-0.6935,136.6,98.3,0.468
27.54,31845.9,34743.3,-0.8604,-0.6303,136.6,98.3,0.468
27.56,31840.3,34606.3,-0.8918,-0.9679,136.6,98.3,0.468
27.58,31805.5,34533.5,-1.0857,-1.1472,136.6,98.3,0.468
27.6,31673.8,34542.4,-1.8195,-1.1253,136.6,98.3,0.468
27.62,31700.5,34449.2,-1.6705,-1.3548,136.6,98.3,0.468
27.64,31801.8,34510.9,-1.1061,-1.2027,136.6,98.3,0.468
27.66,31975.8,34824.6,-0.1369,-0.4301,136.6,98.3,0.468
27.68,32036.3,35189.7,0.1999,0.4691,136.6,98.3,0.468
27.7,32302.7,35408.2,1.6839,1.007,136.6,98.3,0.468
27.72,32396.4,35744.4,2.2061,1.8351,136.6,98.3,0.468
27.74,32258.1,35763.0,1.4359,1.8808,136.6,98.3,0.468
27.76,32268.9,35596.3,1.4958,1.4703,136.6,98.3,0.468
27.78,32262.1,35461.8,1.4581,1.139,136.6,98.3,0.468
27.8,32171.4,35324.7,0.953,0.8014,136.6,98.3,0.468
27.82,32014.2,35213.9,0.0769,0.5286,136.6,98.3,0.468
27.84,31993.4,35098.5,-0.0392,0.2443,136.6,98.3,0.468
27.86,32086.4,35234.2,0.4791,0.5786,136.6,98.3,0.468
27.88,32073.6,34959.5,0.4078,-0.098,136.6,98.3,0.468
27.9,31932.5,34936.5,-0.3782,-0.1547,136.6,98.3,0.468
27.92,31965.0,34804.8,-0.1973,-0.4789,136.6,98.3,0.468
27.94,31845.4,34682.9,-0.8634,-0.7791,136.6,98.3,0.468
27.96,31863.3,34612.8,-0.7636,-0.9517,136.6,98.3,0.468
27.98,31930.7,34646.9,-0.3881,-0.8679,136.6,98.3,0.468
28.0,31732.0,34675.3,-1.4949,-0.7978,136.6,98.3,0.468
28.02,31842.4,34514.5,-0.8801,-1.1939,136.6,98.3,0.468
28.04,31799.8,34539.8,-1.1177,-1.1316,136.6,98.3,0.468
28.06,31708.9,34406.2,-1.624,-1.4606,136.6,98.3,0.468
28.08,31809.3,34535.7,-1.0646,-1.1416,136.6,98.3,0.468
28.1,32056.4,34805.7,0.3119,-0.4768,136.6,98.3,0.468
28.12,32021.9,35140.3,0.1196,0.3473,136.6,98.3,0.468
28.14,32186.5,35521.5,1.0366,1.286,136.6,98.3,0.468
28.16,32272.6,35653.4,1.5165,1.611,136.6,98.3,0.468
28.18,32395.4,35781.5,2.2006,1.9265,136.6,98.3,0.468
28.2,32321.5,35670.7,1.7887,1.6537,136.6,98.3,0.468
28.22,32148.4,35458.7,0.8246,1.1315,136.6,98.3,0.468
28.24,32201.9,35310.9,1.1224,0.7675,136.6,98.3,0.468
28.26,32166.2,35173.4,0.9235,0.4287,136.6,98.3,0.468
28.28,32054.9,35172.4,0.3038,0.4264,136.6,98.3,0.468
28.3,32082.8,35101.5,0.4593,0.2517,136.6,98.3,0.468
28.32,31968.7,34984.6,-0.1766,-0.036,136.6,98.3,0.468
28.34,32068.0,34818.7,0.3768,-0.4448,136.6,98.3,0.468
28.36,31898.2,34807.1,-0.5693,-0.4733,136.6,98.3,0.468
28.38,31838.4,34735.2,-0.9024,-0.6503,136.6,98.3,0.468
28.4,31787.3,34746.0,-1.1873,-0.6237,136.6,98.3,0.468
28.42,31828.6,34606.2,-0.957,-0.9681,136.6,98.3,0.468
28.44,31758.2,34666.5,-1.3492,-0.8195,136.6,98.3,0.468
28.46,31831.0,34526.9,-0.9434,-1.1635,136.6,98.3,0.468
28.48,31782.8,34477.9,-1.2123,-1.2841,136.6,98.3,0.468
28.5,31803.4,34479.8,-1.0973,-1.2794,136.6,98.3,0.468
28.52,31840.8,34475.3,-0.8888,-1.2905,136.6,98.3,0.468
28.54,31882.2,34809.5,-0.6582,-0.4674,136.6,98.3,0.468
28.56,32066.5,35170.0,0.3684,0.4205,136.6,98.3,0.468
28.58,32226.5,35409.6,1.2596,1.0105,136.6,98.3,0.468
28.6,32386.4,35723.8,2.1502,1.7844,136.6,98.3,0.468
28.62,32361.5,35684.8,2.0115,1.6883,136.6,98.3,0.468
28.64,32196.0,35612.6,1.0896,1.5104,136.6,98.3,0.468
28.66,32203.4,35447.9,1.1308,1.1049,136.6,98.3,0.468
28.68,32056.6,35301.4,0.3133,0.7441,136.6,98.3,0.468
28.7,32056.4,35170.8,0.3123,0.4225,136.6,98.3,0.468
28.72,32143.3,35200.9,0.7963,0.4965,136.6,98.3,0.468
28.74,31942.8,35066.4,-0.3206,0.1654,136.6,98.3,0.468
28.76,31947.9,34895.1,-0.2921,-0.2565,136.6,98.3,0.468
28.78,31941.0,34859.9,-0.3306,-0.3432,136.6,98.3,0.468
28.8,31936.0,34775.3,-0.3586,-0.5517,136.6,98.3,0.468
28.82,31831.4,34724.5,-0.9413,-0.6767,136.6,98.3,0.468
28.84,31896.1,34665.0,-0.5807,-0.8233,136.6,98.3,0.468
28.86,31810.6,34668.4,-1.0575,-0.8149,136.6,98.3,0.468
28.88,31790.2,34563.5,-1.1709,-1.0731,136.6,98.3,0.468
28.9,31823.4,34598.7,-0.9862,-0.9865,136.6,98.3,0.468
28.92,31724.2,34498.8,-1.5387,-1.2325,136.6,98.3,0.468
28.94,31805.4,34483.6,-1.0861,-1.27,136.6,98.3,0.468
28.96,31828.9,34570.9,-0.9555,-1.0549,136.6,98.3,0.468
28.98,31957.4,34842.0,-0.2393,-0.3875,136.6,98.3,0.468
29.0,32112.9,35136.3,0.6267,0.3374,136.6,98.3,0.468
29.02,32237.5,35574.6,1.3207,1.4168,136.6,98.3,0.468
29.04,32285.9,35714.6,1.5904,1.7616,136.6,98.3,0.468
29.06,32319.7,35755.9,1.7791,1.8633,136.6,98.3,0.468
29.08,32256.2,35668.9,1.4251,1.6492,136.6,98.3,0.468
29.1,32173.6,35523.6,0.9651,1.2914,136.6,98.3,0.468
29.12,32118.1,35311.8,0.656,0.7698,136.6,98.3,0.468
29.14,32137.9,35124.5,0.7661,0.3083,136.6,98.3,0.468
29.16,32017.8,35115.6,0.0972,0.2864,136.6,98.3,0.468
29.18,32014.7,35084.5,0.0796,0.2099,136.6,98.3,0.468
29.2,31984.5,34991.3,-0.0886,-0.0197,136.6,98.3,0.468
29.22,31953.0,34731.1,-0.2642,-0.6605,136.6,98.3,0.468
29.24,31964.7,34728.7,-0.1986,-0.6664,136.6,98.3,0.468
29.26,31871.8,34805.7,-0.7163,-0.4767,136.6,98.3,0.468
29.28,31927.9,34710.8,-0.4038,-0.7104,136.6,98.3,0.468
29.3,31788.8,34702.6,-1.1788,-0.7306,136.6,98.3,0.468
29.32,31927.9,34641.8,-0.4037,-0.8805,136.6,98.3,0.468
29.34,31827.1,34564.4,-0.9653,-1.0709,136.6,98.3,0.468
29.36,31714.3,34413.8,-1.5938,-1.4419,136.6,98.3,0.468
29.38,31773.3,34513.1,-1.2652,-1.1973,136.6,98.3,0.468
29.4,31730.6,34620.9,-1.503,-0.9318,136.6,98.3,0.468
29.42,31922.5,34787.1,-0.4337,-0.5226,136.6,98.3,0.468
29.44,32074.0,35130.0,0.4099,0.322,136.6,98.3,0.468
29.46,32276.5,35433.0,1.538,1.0681,136.6,98.3,0.468
29.48,32366.4,35691.3,2.0388,1.7042,136.6,98.3,0.468
29.5,32334.2,35814.4,1.8597,2.0074,136.6,98.3,0.468
29.52,32276.6,35574.0,1.5388,1.4153,136.6,98.3,0.468
29.54,32182.2,35416.8,1.0129,1.0282,136.6,98.3,0.468
29.56,32058.4,35218.9,0.3231,0.5408,136.6,98.3,0.468
29.58,32093.6,35151.8,0.5193,0.3757,136.6,98.3,0.468
29.6,31978.2,35153.6,-0.1238,0.3801,136.6,98.3,0.468
29.62,32090.2,34995.1,0.5005,-0.0103,136.6,98.3,0.468
29.64,31924.5,35008.8,-0.4225,0.0236,136.6,98.3,0.468
29.66,31919.8,34784.9,-0.4487,-0.528,136.6,98.3,0.468
29.68,31823.1,34787.7,-0.9875,-0.5211,136.6,98.3,0.468
29.7,31817.4,34666.5,-1.0196,-0.8195,136.6,98.3,0.468
29.72,31910.2,34651.4,-0.5022,-0.8568,136.6,98.3,0.468
29.74,31924.2,34586.1,-0.4243,-1.0175,136.6,98.3,0.468
29.76,31903.5,34704.3,-0.5399,-0.7264,136.6,98.3,0.468
29.78,31721.6,34557.8,-1.5533,-1.0873,136.6,98.3,0.468
29.8,31775.9,34490.2,-1.2506,-1.2537,136.6,98.3,0.468
29.82,31732.1,34391.7,-1.4947,-1.4964,136.6,98.3,0.468
29.84,31781.0,34571.5,-1.222,-1.0536,136.6,98.3,0.468
29.86,31872.7,34787.9,-0.7112,-0.5207,136.6,98.3,0.468
29.88,32101.9,35206.5,0.5658,0.5104,136.6,98.3,0.468
29.9,32236.4,35484.9,1.3149,1.1961,136.6,98.3,0.468
29.92,32262.4,35726.8,1.4599,1.7916,136.6,98.3,0.468
29.94,32324.2,35804.9,1.8037,1.9841,136.6,98.3,0.468
29.96,32355.8,35636.8,1.9801,1.5702,136.6,98.3,0.468
29.98,32239.4,35403.1,1.3317,0.9946,136.6,98.3,0.468
30.0,32110.7,35289.0,0.6147,0.7136,136.6,98.3,0.468
30.02,32092.8,35230.9,0.5148,0.5704,136.6,98.3,0.468
30.04,32079.3,35068.0,0.4395,0.1693,136.6,98.3,0.468
30.06,31976.1,35074.4,-0.1355,0.185,136.6,98.3,0.468
30.08,32098.6,35019.4,0.547,0.0496,136.6,98.3,0.468
30.1,31924.1,34869.5,-0.4251,-0.3197,136.6,98.3,0.468
30.12,31999.2,34800.8,-0.0069,-0.4888,136.6,98.3,0.468
30.14,31934.1,34635.1,-0.369,-0.897,136.6,98.3,0.468
30.16,31848.6,34655.2,-0.8454,-0.8474,136.6,98.3,0.468
30.18,31855.9,34671.8,-0.8046,-0.8065,136.6,98.3,0.468
30.2,31816.6,34618.0,-1.0241,-0.9391,136.6,98.3,0.468
30.22,31758.4,34491.6,-1.3479,-1.2503,136.6,98.3,0.468
30.24,31654.3,34478.2,-1.9279,-1.2834,136.6,98.3,0.468
30.26,31761.2,34438.3,-1.3326,-1.3816,136.6,98.3,0.468
30.28,31840.3,34555.9,-0.892,-1.0921,136.6,98.3,0.468
30.3,31936.4,34774.2,-0.3565,-0.5544,136.6,98.3,0.468
30.32,32055.5,35167.0,0.3071,0.4131,136.6,98.3,0.468
30.34,32254.4,35485.1,1.4151,1.1965,136.6,98.3,0.468
30.36,32416.2,35753.7,2.3163,1.8579,136.6,98.3,0.468
30.38,32254.5,35718.0,1.4158,1.77,136.6,98.3,0.468
30.4,32336.5,35682.6,1.8722,1.6828,136.6,98.3,0.468
30.42,32144.8,35505.6,0.8044,1.2469,136.6,98.3,0.468
30.44,32081.5,35316.7,0.4516,0.7818,136.6,98.3,0.468
30.46,32128.0,35160.2,0.7108,0.3962,136.6,98.3,0.468
30.48,32076.2,35115.4,0.4225,0.286,136.6,98.3,0.468
30.5,32130.1,35080.6,0.7225,0.2002,136.6,98.3,0.468
30.52,32026.6,35034.9,0.1462,0.0878,136.6,98.3,0.468
30.54,31917.1,34849.0,-0.4641,-0.3701,136.6,98.3,0.468
30.56,31908.2,34762.2,-0.5137,-0.584,136.6,98.3,0.468
30.58,31908.9,34756.0,-0.5098,-0.5991,136.6,98.3,0.468
30.6,31842.2,34652.6,-0.8812,-0.8539,136.6,98.3,0.468
30.62,31842.2,34710.1,-0.881,-0.7122,136.6,98.3,0.468
30.64,31932.2,34697.0,-0.3798,-0.7444,136.6,98.3,0.468
30.66,31819.8,34640.5,-1.0059,-0.8836,136.6,98.3,0.468
30.68,31773.1,34497.0,-1.2663,-1.237,136.6,98.3,0.468
30.7,31804.3,34552.0,-1.0922,-1.1014,136.6,98.3,0.468
30.72,31843.0,34684.0,-0.8769,-0.7766,136.6,98.3,0.468
30.74,31856.3,34955.6,-0.8027,-0.1076,136.6,98.3,0.468
30.76,32092.2,35149.2,0.5116,0.3692,136.6,98.3,0.468
30.78,32253.5,35499.2,1.4098,1.2311,136.6,98.3,0.468
30.8,32356.4,35712.8,1.9831,1.7574,136.6,98.3,0.468
30.82,32310.9,35716.9,1.7298,1.7674,136.6,98.3,0.468
30.84,32332.3,35587.2,1.8492,1.4479,136.6,98.3,0.468
30.86,32113.6,35419.5,0.6307,1.0349,136.6,98.3,0.468
30.88,32172.7,35232.6,0.9598,0.5745,136.6,98.3,0.468
30.9,32099.2,35092.3,0.5507,0.2292,136.6,98.3,0.468
30.92,32061.5,35108.3,0.3405,0.2684,136.6,98.3,0.468
30.94,31995.5,35026.0,-0.0273,0.0657,136.6,98.3,0.468
30.96,32107.4,34932.1,0.5959,-0.1655,136.6,98.3,0.468
30.98,31966.1,34935.8,-0.1909,-0.1564,136.6,98.3,0.468
31.0,31971.2,34654.0,-0.1626,-0.8504,136.6,98.3,0.468
31.02,31844.8,34660.0,-0.8669,-0.8357,136.6,98.3,0.468
31.04,31880.8,34648.9,-0.6664,-0.8629,136.6,98.3,0.468
31.06,31849.2,34697.5,-0.8423,-0.7432,136.6,98.3,0.468
31.08,31825.5,34606.2,-0.9744,-0.9681,136.6,98.3,0.468
31.1,31806.5,34547.7,-1.0801,-1.1122,136.6,98.3,0.468
31.12,31801.1,34476.7,-1.1105,-1.2871,136.6,98.3,0.468
31.14,31758.7,34443.5,-1.3464,-1.3687,136.6,98.3,0.468
31.16,31739.8,34597.6,-1.4515,-0.9893,136.6,98.3,0.468
31.18,32021.0,34795.9,0.1151,-0.501,136.6,98.3,0.468
31.2,32038.3,35240.2,0.2114,0.5935,136.6,98.3,0.468
31.22,32179.5,35600.2,0.998,1.4801,136.6,98.3,0.468
31.24,32316.1,35685.7,1.7589,1.6906,136.6,98.3,0.468
31.26,32347.3,35793.4,1.9325,1.9557,136.6,98.3,0.468
31.28,32249.6,35646.4,1.3883,1.5936,136.6,98.3,0.468
31.3,32180.2,35426.4,1.0016,1.052,136.6,98.3,0.468
31.32,32111.8,35292.9,0.6207,0.723,136.6,98.3,0.468
31.34,32048.2,35213.8,0.2661,0.5284,136.6,98.3,0.468
31.36,32053.1,35028.0,0.2936,0.0707,136.6,98.3,0.468
31.38,32050.7,35105.1,0.2805,0.2606,136.6,98.3,0.468
31.4,32008.6,35030.4,0.0457,0.0767,136.6,98.3,0.468
31.42,31923.5,34831.2,-0.4283,-0.4141,136.6,98.3,0.468
31.44,31938.3,34791.8,-0.3458,-0.511,136.6,98.3,0.468
31.46,31964.7,34729.3,-0.1986,-0.6648,136.6,98.3,0.468
31.48,31869.3,34625.5,-0.7305,-0.9205,136.6,98.3,0.468
31.5,31803.1,34711.4,-1.0991,-0.7089,136.6,98.3,0.468
31.52,31808.0,34670.3,-1.0717,-0.8101,136.6,98.3,0.468
31.54,31782.2,34563.9,-1.2153,-1.0723,136.6,98.3,0.468
31.56,31807.0,34496.0,-1.0771,-1.2395,136.6,98.3,0.468
31.58,31747.1,34419.1,-1.4112,-1.4289,136.6,98.3,0.468
31.6,31769.0,34619.8,-1.2892,-0.9345,136.6,98.3,0.468
31.62,31953.2,34909.8,-0.2627,-0.2203,136.6,98.3,0.468
31.64,32076.2,35313.7,0.4223,0.7742,136.6,98.3,0.468
31.66,32240.6,35581.4,1.3382,1.4336,136.6,98.3,0.468
31.68,32298.0,35728.5,1.6581,1.7958,136.6,98.3,0.468
31.7,32222.3,35858.9,1.2363,2.117,136.6,98.3,0.468
31.72,32244.0,35600.6,1.3574,1.481,136.6,98.3,0.468
31.74,32218.1,35435.2,1.2127,1.0735,136.6,98.3,0.468
31.76,32038.8,35212.7,0.2141,0.5255,136.6,98.3,0.468
31.78,32021.8,35144.8,0.1196,0.3584,136.6,98.3,0.468
31.8,31953.2,35121.7,-0.2628,0.3016,136.6,98.3,0.468
31.82,32062.9,35009.6,0.3482,0.0254,136.6,98.3,0.468
31.84,31998.5,34996.9,-0.0103,-0.0059,136.6,98.3,0.468
31.86,31912.4,34841.8,-0.49,-0.3878,136.6,98.3,0.468
31.88,31921.7,34737.3,-0.4385,-0.6451,136.6,98.3,0.468
31.9,31811.7,34747.3,-1.051,-0.6206,136.6,98.3,0.468
31.92,31896.8,34598.9,-0.5771,-0.9861,136.6,98.3,0.468
31.94,31916.1,34706.9,-0.4697,-0.7201,136.6,98.3,0.468
31.96,31752.6,34588.4,-1.3803,-1.0119,136.6,98.3,0.468
31.98,31837.0,34517.9,-0.91,-1.1857,136.6,98.3,0.468
32.0,31729.1,34445.9,-1.5114,-1.3628,136.6,98.3,0.468
32.02,31757.2,34445.8,-1.3545,-1.363,136.6,98.3,0.468
32.04,31881.6,34628.8,-0.6616,-0.9124,136.6,98.3,0.468
32.06,31954.5,34899.3,-0.2559,-0.2462,136.6,98.3,0.468
32.08,32074.8,35207.2,0.4146,0.5121,136.6,98.3,0.468
32.1,32283.9,35590.3,1.5797,1.4556,136.6,98.3,0.468
32.12,32294.1,35747.2,1.6361,1.8419,136.6,98.3,0.468
32.14,32309.8,35709.0,1.7237,1.7479,136.6,98.3,0.468
32.16,32302.4,35528.2,1.6827,1.3027,136.6,98.3,0.468
32.18,32195.8,35417.5,1.0886,1.0301,136.6,98.3,0.468
32.2,32128.7,35194.1,0.7149,0.4799,136.6,98.3,0.468
32.22,32137.7,35162.6,0.765,0.4022,136.6,98.3,0.468
32.24,31984.1,34994.2,-0.0906,-0.0125,136.6,98.3,0.468
32.26,31985.1,35032.6,-0.0849,0.0819,136.6,98.3,0.468
32.28,32020.4,35011.5,0.1118,0.03,136.6,98.3,0.468
32.3,31887.9,34790.7,-0.6269,-0.5136,136.6,98.3,0.468
32.32,31953.6,34720.4,-0.2608,-0.6868,136.6,98.3,0.468
32.34,31865.8,34694.3,-0.7499,-0.7511,136.6,98.3,0.468
32.36,31945.4,34643.9,-0.3061,-0.8753,136.6,98.3,0.468
32.38,31888.0,34729.8,-0.6263,-0.6637,136.6,98.3,0.468
32.4,31781.4,34573.2,-1.2197,-1.0493,136.6,98.3,0.468
32.42,31819.7,34531.8,-1.0063,-1.1513,136.6,98.3,0.468
32.44,31811.1,34526.3,-1.0545,-1.1648,136.6,98.3,0.468
32.46,31869.6,34477.8,-0.7288,-1.2844,136.6,98.3,0.468
32.48,31860.3,34671.1,-0.7806,-0.8082,136.6,98.3,0.468
32.5,31895.3,34745.3,-0.5853,-0.6254,136.6,98.3,0.468
32.52,32127.2,35260.2,0.7067,0.6426,136.6,98.3,0.468
32.54,32241.3,35570.8,1.3418,1.4076,136.6,98.3,0.468
32.56,32292.8,35689.3,1.6293,1.6994,136.6,98.3,0.468
32.58,32411.6,35737.2,2.2908,1.8174,136.6,98.3,0.468
32.6,32220.3,35651.9,1.2251,1.6073,136.6,98.3,0.468
32.62,32189.4,35321.4,1.0532,0.7932,136.6,98.3,0.468
32.64,32088.5,35269.6,0.4907,0.6657,136.6,98.3,0.468
32.66,31988.4,35133.4,-0.0667,0.3303,136.6,98.3,0.468
32.68,32069.8,35100.0,0.3869,0.248,136.6,98.3,0.468
32.7,32088.2,34986.0,0.4895,-0.0327,136.6,98.3,0.468
32.72,32051.6,34959.6,0.2851,-0.0977,136.6,98.3,0.468
32.74,32000.7,34798.3,0.0015,-0.4949,136.6,98.3,0.468
32.76,31840.3,34768.8,-0.8918,-0.5676,136.6,98.3,0.468
32.78,31819.2,34671.2,-1.0096,-0.8079,136.6,98.3,0.468
32.8,31780.5,34761.8,-1.2248,-0.585,136.6,98.3,0.468
32.82,31878.0,34636.1,-0.682,-0.8943,136.6,98.3,0.468
32.84,31812.7,34579.3,-1.0456,-1.0343,136.6,98.3,0.468
32.86,31749.2,34466.5,-1.3992,-1.312,136.6,98.3,0.468
32.88,31766.2,34523.9,-1.3046,-1.1708,136.6,98.3,0.468
32.9,31793.3,34462.2,-1.1534,-1.3227,136.6,98.3,0.468
32.92,31797.4,34544.7,-1.1306,-1.1195,136.6,98.3,0.468
32.94,31939.0,34891.7,-0.3421,-0.265,136.6,98.3,0.468
32.96,32192.1,35254.0,1.068,0.6272,136.6,98.3,0.468
32.98,32324.1,35490.7,1.8033,1.2103,136.6,98.3,0.468
33.0,32256.9,35610.2,1.429,1.5045,136.6,98.3,0.468
33.02,32244.3,35606.4,1.3587,1.4953,136.6,98.3,0.468
33.04,32150.9,35588.8,0.8387,1.4519,136.6,98.3,0.468
33.06,32184.2,35366.2,1.0241,0.9036,136.6,98.3,0.468
33.08,32169.8,35277.9,0.9436,0.6862,136.6,98.3,0.468
33.1,31987.7,35149.9,-0.0706,0.371,136.6,98.3,0.468
33.12,32072.2,35023.8,0.4001,0.0604,136.6,98.3,0.468
33.14,31993.5,35014.5,-0.0381,0.0374,136.6,98.3,0.468
33.16,32002.4,34995.9,0.0115,-0.0083,136.6,98.3,0.468
33.18,31923.8,34782.8,-0.4266,-0.5331,136.6,98.3,0.468
33.2,31894.2,34846.8,-0.5918,-0.3756,136.6,98.3,0.468
33.22,31790.0,34746.2,-1.172,-0.6234,136.6,98.3,0.468
33.24,31720.4,34662.0,-1.5596,-0.8306,136.6,98.3,0.468
33.26,31863.9,34572.5,-0.7604,-1.051,136.6,98.3,0.468
33.28,31847.9,34643.5,-0.8497,-0.8763,136.6,98.3,0.468
33.3,31753.5,34495.4,-1.3752,-1.2409,136.6,98.3,0.468
33.32,31767.1,34485.1,-1.2997,-1.2664,136.6,98.3,0.468
33.34,31820.2,34470.6,-1.0038,-1.302,136.6,98.3,0.468
33.36,31893.0,34724.4,-0.5983,-0.6769,136.6,98.3,0.468
33.38,31961.8,34934.8,-0.215,-0.1588,136.6,98.3,0.468
33.4,32100.9,35206.1,0.5602,0.5093,136.6,98.3,0.468
33.42,32334.7,35629.3,1.8623,1.5516,136.6,98.3,0.468
33.44,32325.2,35678.6,1.8096,1.673,136.6,98.3,0.468
33.46,32364.6,35638.9,2.0292,1.5753,136.6,98.3,0.468
33.48,32230.8,35615.2,1.2837,1.5169,136.6,98.3,0.468
33.5,32087.4,35406.0,0.4847,1.0018,136.6,98.3,0.468
33.52,32172.5,35268.3,0.9586,0.6625,136.6,98.3,0.468
33.54,31993.9,35124.1,-0.0362,0.3073,136.6,98.3,0.468
33.56,32072.9,35082.6,0.4042,0.2051,136.6,98.3,0.468
33.58,31982.4,35039.2,-0.1001,0.0984,136.6,98.3,0.468
33.6,31976.6,34932.2,-0.1327,-0.1653,136.6,98.3,0.468
33.62,31882.0,34935.9,-0.6595,-0.1561,136.6,98.3,0.468
33.64,31927.1,34788.1,-0.4081,-0.5202,136.6,98.3,0.468
33.66,31840.0,34781.2,-0.8937,-0.5372,136.6,98.3,0.468
33.68,31826.8,34666.4,-0.9669,-0.8199,136.6,98.3,0.468
33.7,31791.4,34584.0,-1.1644,-1.0227,136.6,98.3,0.468
33.72,31907.7,34560.2,-0.5165,-1.0813,136.6,98.3,0.468
33.74,31762.5,34508.7,-1.3253,-1.2081,136.6,98.3,0.468
33.76,31817.2,34474.9,-1.0203,-1.2914,136.6,98.3,0.468
33.78,31788.3,34542.1,-1.1817,-1.1261,136.6,98.3,0.468
33.8,31940.3,34558.9,-0.3346,-1.0845,136.6,98.3,0.468
33.82,31956.2,34922.7,-0.2464,-0.1886,136.6,98.3,0.468
33.84,32092.3,35293.7,0.5122,0.7251,136.6,98.3,0.468
33.86,32162.0,35626.4,0.9003,1.5446,136.6,98.3,0.468
33.88,32249.7,35792.2,1.389,1.9529,136.6,98.3,0.468
33.9,32294.7,35826.9,1.6396,2.0381,136.6,98.3,0.468
33.92,32265.7,35576.2,1.478,1.4209,136.6,98.3,0.468
33.94,32228.9,35405.9,1.2729,1.0014,136.6,98.3,0.468
33.96,32041.6,35178.9,0.2295,0.4424,136.6,98.3,0.468
33.98,31991.3,35062.5,-0.0507,0.1557,136.6,98.3,0.468
34.0,32076.2,35188.3,0.4226,0.4656,136.6,98.3,0.468
34.02,32119.8,35084.2,0.6654,0.2091,136.6,98.3,0.468
34.04,31946.2,34957.7,-0.3016,-0.1025,136.6,98.3,0.468
34.06,31934.8,34784.9,-0.3652,-0.5281,136.6,98.3,0.468
34.08,31928.4,34756.6,-0.4008,-0.5977,136.6,98.3,0.468
34.1,31889.8,34699.3,-0.6158,-0.7387,136.6,98.3,0.468
34.12,31867.6,34614.5,-0.7395,-0.9475,136.6,98.3,0.468
34.14,31991.3,34638.1,-0.0505,-0.8894,136.6,98.3,0.468
34.16,31845.4,34604.5,-0.8635,-0.9723,136.6,98.3,0.468
34.18,31812.8,34418.4,-1.0449,-1.4306,136.6,98.3,0.468
34.2,31789.2,34490.5,-1.1765,-1.253,136.6,98.3,0.468
34.22,31781.3,34437.7,-1.2202,-1.3831,136.6,98.3,0.468
34.24,31857.0,34605.9,-0.799,-0.9689,136.6,98.3,0.468
34.26,31979.9,34911.0,-0.1139,-0.2174,136.6,98.3,0.468
34.28,32149.7,35297.7,0.832,0.7348,136.6,98.3,0.468
34.3,32277.7,35514.8,1.5447,1.2697,136.6,98.3,0.468
34.32,32309.7,35766.9,1.7229,1.8906,136.6,98.3,0.468
34.34,32343.0,35770.8,1.9086,1.9002,136.6,98.3,0.468
34.36,32232.0,35532.6,1.2901,1.3135,136.6,98.3,0.468
34.38,32160.4,35461.5,0.8913,1.1383,136.6,98.3,0.468
34.4,32051.4,35290.3,0.2841,0.7168,136.6,98.3,0.468
34.42,32072.0,35164.0,0.3988,0.4056,136.6,98.3,0.468
34.44,32080.2,35135.5,0.4449,0.3354,136.6,98.3,0.468
34.46,32071.1,34947.2,0.3937,-0.1284,136.6,98.3,0.468
34.48,32091.3,35037.6,0.5065,0.0943,136.6,98.3,0.468
34.5,31976.5,34819.0,-0.1331,-0.444,136.6,98.3,0.468
34.52,31866.1,34853.0,-0.7481,-0.3602,136.6,98.3,0.468
34.54,31862.2,34674.9,-0.7695,-0.7989,136.6,98.3,0.468
34.56,31819.1,34678.0,-1.01,-0.7912,136.6,98.3,0.468
34.58,31855.3,34572.5,-0.8081,-1.051,136.6,98.3,0.468
34.6,31834.9,34730.0,-0.9222,-0.6631,136.6,98.3,0.468
34.62,31831.6,34606.9,-0.9401,-0.9663,136.6,98.3,0.468
34.64,31712.4,34439.8,-1.6042,-1.378,136.6,98.3,0.468
34.66,31796.2,34428.4,-1.1374,-1.4059,136.6,98.3,0.468
34.68,31806.5,34665.0,-1.08,-0.8232,136.6,98.3,0.468
34.7,32052.6,34969.2,0.2911,-0.0741,136.6,98.3,0.468
34.72,32071.3,35313.0,0.3953,0.7727,136.6,98.3,0.468
34.74,32200.4,35590.7,1.1144,1.4566,136.6,98.3,0.468
34.76,32215.4,35816.2,1.1976,2.0119,136.6,98.3,0.468
34.78,32317.6,35725.3,1.7671,1.788,136.6,98.3,0.468
34.8,32293.4,35555.3,1.6326,1.3694,136.6,98.3,0.468
34.82,32175.1,35428.9,0.9734,1.0582,136.6,98.3,0.468
34.84,32107.4,35240.2,0.5962,0.5932,136.6,98.3,0.468
34.86,32003.4,35097.8,0.0166,0.2425,136.6,98.3,0.468
34.88,32120.4,35164.5,0.6684,0.4068,136.6,98.3,0.468
34.9,31990.0,34929.6,-0.0578,-0.1715,136.6,98.3,0.468
34.92,31899.2,34896.9,-0.5636,-0.2521,136.6,98.3,0.468
34.94,31944.6,34768.9,-0.311,-0.5674,136.6,98.3,0.468
34.96,31926.1,34679.5,-0.4138,-0.7876,136.6,98.3,0.468
34.98,31867.1,34607.4,-0.7423,-0.9651,136.6,98.3,0.468
35.0,31861.5,34656.7,-0.7735,-0.8437,136.6,98.3,0.468
35.02,31856.3,34560.2,-0.8028,-1.0812,136.6,98.3,0.468
35.04,31918.5,34650.5,-0.4563,-0.8591,136.6,98.3,0.468
35.06,31760.5,34563.5,-1.3362,-1.0732,136.6,98.3,0.468
35.08,31759.5,34342.1,-1.3418,-1.6185,136.6,98.3,0.468
35.1,31681.4,34523.4,-1.7773,-1.1721,136.6,98.3,0.468
35.12,31845.0,34648.9,-0.8654,-0.8629,136.6,98.3,0.468
35.14,31956.5,34873.8,-0.2447,-0.309,136.6,98.3,0.468
35.16,32133.9,35284.1,0.7439,0.7014,136.6,98.3,0.468
35.18,32209.7,35572.9,1.1662,1.4127,136.6,98.3,0.468
35.2,32297.6,35790.3,1.6556,1.948,136.6,98.3,0.468
35.22,32258.7,35704.1,1.4388,1.7357,136.6,98.3,0.468
35.24,32220.6,35543.0,1.227,1.3391,136.6,98.3,0.468
35.26,32138.4,35382.6,0.7686,0.944,136.6,98.3,0.468
35.28,32087.1,35183.1,0.4832,0.4527,136.6,98.3,0.468
35.3,32128.3,35163.8,0.7127,0.4053,136.6,98.3,0.468
35.32,32076.4,35099.3,0.4236,0.2464,136.6,98.3,0.468
35.34,32021.4,35027.6,0.1171,0.0697,136.6,98.3,0.468
35.36,31990.6,34883.3,-0.0544,-0.2855,136.6,98.3,0.468
35.38,31940.9,34819.4,-0.3312,-0.443,136.6,98.3,0.468
35.4,31887.3,34734.1,-0.6299,-0.6531,136.6,98.3,0.468
35.42,31886.8,34615.2,-0.6329,-0.9459,136.6,98.3,0.468
35.44,31866.4,34645.4,-0.7466,-0.8715,136.6,98.3,0.468
35.46,31867.8,34680.8,-0.7388,-0.7843,136.6,98.3,0.468
35.48,31819.5,34595.0,-1.0078,-0.9957,136.6,98.3,0.468
35.5,31779.8,34441.8,-1.229,-1.3729,136.6,98.3,0.468
35.52,31768.2,34474.5,-1.2935,-1.2924,136.6,98.3,0.468
35.54,31685.2,34495.9,-1.7557,-1.2398,136.6,98.3,0.468
35.56,31945.1,34710.2,-0.3081,-0.7118,136.6,98.3,0.468
35.58,31939.9,34973.6,-0.3368,-0.0632,136.6,98.3,0.468
35.6,32168.0,35316.1,0.9337,0.7802,136.6,98.3,0.468
35.62,32232.7,35600.1,1.2943,1.4796,136.6,98.3,0.468
35.64,32312.9,35766.3,1.7409,1.8889,136.6,98.3,0.468
35.66,32317.2,35786.7,1.7649,1.9393,136.6,98.3,0.468
35.68,32278.4,35560.9,1.5487,1.3832,136.6,98.3,0.468
35.7,32257.8,35380.9,1.434,0.9399,136.6,98.3,0.468
35.72,32110.9,35211.3,0.6156,0.5222,136.6,98.3,0.468
35.74,32096.8,35152.9,0.537,0.3783,136.6,98.3,0.468
35.76,31951.2,35088.5,-0.274,0.2197,136.6,98.3,0.468
35.78,32007.1,34992.3,0.0375,-0.0172,136.6,98.3,0.468
35.8,31964.3,34971.4,-0.201,-0.0686,136.6,98.3,0.468
35.82,31853.3,34788.4,-0.8196,-0.5193,136.6,98.3,0.468
35.84,31903.1,34805.5,-0.542,-0.4772,136.6,98.3,0.468
35.86,31854.1,34721.1,-0.8151,-0.6851,136.6,98.3,0.468
35.88,31949.5,34626.0,-0.2837,-0.9192,136.6,98.3,0.468
35.9,31919.2,34568.7,-0.4521,-1.0603,136.6,98.3,0.468
35.92,31804.8,34545.0,-1.0896,-1.1187,136.6,98.3,0.468
35.94,31821.4,34524.9,-0.9971,-1.1684,136.6,98.3,0.468
35.96,31763.5,34483.6,-1.3194,-1.2701,136.6,98.3,0.468
35.98,31725.2,34509.6,-1.5331,-1.206,136.6,98.3,0.468
36.0,31932.4,34571.3,-0.3788,-1.054,136.6,98.3,0.468
36.02,31979.9,34991.2,-0.1139,-0.0199,136.6,98.3,0.468
36.04,32186.7,35320.6,1.0378,0.7914,136.6,98.3,0.468
36.06,32246.4,35564.0,1.3708,1.3909,136.6,98.3,0.468
36.08,32306.3,35644.0,1.704,1.5878,136.6,98.3,0.468
36.1,32209.3,35769.1,1.1636,1.8959,136.6,98.3,0.468
36.12,32201.8,35482.5,1.1219,1.1901,136.6,98.3,0.468
36.14,32264.1,35355.9,1.4691,0.8784,136.6,98.3,0.468
36.16,31998.0,35154.2,-0.0135,0.3816,136.6,98.3,0.468
36.18,32023.5,35226.6,0.129,0.5598,136.6,98.3,0.468
36.2,32124.1,35069.2,0.6893,0.1722,136.6,98.3,0.468
36.22,32029.6,35001.5,0.1627,0.0054,136.6,98.3,0.468
36.24,32072.4,34952.2,0.401,-0.116,136.6,98.3,0.468
36.26,31893.7,34863.8,-0.5941,-0.3336,136.6,98.3,0.468
36.28,31801.6,34722.8,-1.1076,-0.6808,136.6,98.3,0.468
36.3,31865.0,34629.1,-0.7541,-0.9117,136.6,98.3,0.468
36.32,31881.0,34708.5,-0.6653,-0.7162,136.6,98.3,0.468
36.34,31860.8,34668.7,-0.7778,-0.8143,136.6,98.3,0.468
36.36,31813.2,34433.4,-1.0429,-1.3935,136.6,98.3,0.468
36.38,31796.8,34555.9,-1.1342,-1.0921,136.6,98.3,0.468
36.4,31772.5,34497.2,-1.2697,-1.2365,136.6,98.3,0.468
36.42,31786.1,34497.2,-1.1939,-1.2365,136.6,98.3,0.468
36.44,31813.5,34673.0,-1.0409,-0.8035,136.6,98.3,0.468
36.46,31964.5,34914.8,-0.1998,-0.2081,136.6,98.3,0.468
36.48,32161.6,35302.0,0.8978,0.7455,136.6,98.3,0.468
36.5,32256.5,35699.6,1.4269,1.7247,136.6,98.3,0.468
36.52,32275.3,35749.9,1.5316,1.8487,136.6,98.3,0.468
36.54,32338.8,35703.1,1.8854,1.7334,136.6,98.3,0.468
36.56,32173.6,35634.0,0.9648,1.5631,136.6,98.3,0.468
36.58,32078.2,35363.9,0.4338,0.898,136.6,98.3,0.468
36.6,32065.6,35259.5,0.3634,0.6409,136.6,98.3,0.468
36.62,32019.6,35157.6,0.1069,0.39,136.6,98.3,0.468
36.64,31946.2,35078.2,-0.3019,0.1944,136.6,98.3,0.468
36.66,32023.3,35087.3,0.1277,0.2167,136.6,98.3,0.468
36.68,31984.2,34905.7,-0.0903,-0.2305,136.6,98.3,0.468
36.7,31891.2,34806.6,-0.6085,-0.4745,136.6,98.3,0.468
36.72,31891.6,34791.9,-0.6059,-0.5108,136.6,98.3,0.468
36.74,31925.7,34728.2,-0.4161,-0.6675,136.6,98.3,0.468
36.76,31889.1,34627.2,-0.6197,-0.9163,136.6,98.3,0.468
36.78,31853.3,34648.5,-0.8193,-0.864,136.6,98.3,0.468
36.8,31851.2,34514.4,-0.8313,-1.1941,136.6,98.3,0.468
36.82,31841.2,34438.6,-0.887,-1.3808,136.6,98.3,0.468
36.84,31750.6,34424.5,-1.3914,-1.4155,136.6,98.3,0.468
36.86,31773.1,34539.1,-1.2662,-1.1333,136.6,98.3,0.468
36.88,31866.4,34654.7,-0.7463,-0.8486,136.6,98.3,0.468
36.9,32013.1,34996.9,0.0707,-0.0058,136.6,98.3,0.468
36.92,32134.4,35326.7,0.7466,0.8065,136.6,98.3,0.468
36.94,32275.0,35625.1,1.5298,1.5413,136.6,98.3,0.468
36.96,32359.3,35643.1,1.9994,1.5856,136.6,98.3,0.468
36.98,32297.0,35781.2,1.6522,1.9258,136.6,98.3,0.468
37.0,32226.3,35485.2,1.2587,1.1967,136.6,98.3,0.468
37.02,32206.7,35372.3,1.1495,0.9187,136.6,98.3,0.468
37.04,32178.6,35248.8,0.9929,0.6144,136.6,98.3,0.468
37.06,32111.4,35132.6,0.6183,0.3283,136.6,98.3,0.468
37.08,32053.2,34938.3,0.2944,-0.1502,136.6,98.3,0.468
37.1,32061.3,34949.2,0.3395,-0.1234,136.6,98.3,0.468
37.12,31976.0,34954.8,-0.1357,-0.1095,136.6,98.3,0.468
37.14,31932.9,34924.3,-0.3759,-0.1846,136.6,98.3,0.468
37.16,31904.8,34719.2,-0.5324,-0.6897,136.6,98.3,0.468
37.18,31926.0,34653.2,-0.4144,-0.8523,136.6,98.3,0.468
37.2,31923.8,34692.0,-0.4264,-0.7568,136.6,98.3,0.468
37.22,31886.4,34670.0,-0.6349,-0.8109,136.6,98.3,0.468
37.24,31745.5,34517.7,-1.4202,-1.1861,136.6,98.3,0.468
37.26,31695.4,34549.0,-1.6988,-1.1089,136.6,98.3,0.468
37.28,31666.6,34403.1,-1.8593,-1.4683,136.6,98.3,0.468
37.3,31830.6,34491.8,-0.9457,-1.2499,136.6,98.3,0.468
37.32,31904.6,34703.1,-0.5335,-0.7295,136.6,98.3,0.468
37.34,31993.2,34976.8,-0.0403,-0.0554,136.6,98.3,0.468
37.36,32094.2,35330.2,0.5225,0.8149,136.6,98.3,0.468
37.38,32270.3,35688.9,1.5037,1.6983,136.6,98.3,0.468
37.4,32357.8,35658.0,1.9913,1.6224,136.6,98.3,0.468
37.42,32379.6,35734.5,2.1128,1.8107,136.6,98.3,0.468
37.44,32293.3,35567.3,1.6316,1.3988,136.6,98.3,0.468
37.46,32151.5,35341.2,0.8416,0.842,136.6,98.3,0.468
37.48,32146.4,35262.0,0.8134,0.6469,136.6,98.3,0.468
37.5,32040.6,35101.4,0.2242,0.2515,136.6,98.3,0.468
37.52,31969.3,35059.4,-0.1732,0.1482,136.6,98.3,0.468
37.54,31994.9,35007.8,-0.0308,0.021,136.6,98.3,0.468
37.56,32024.3,34831.3,0.1335,-0.4137,136.6,98.3,0.468
37.58,31979.7,34873.9,-0.1154,-0.3087,136.6,98.3,0.468
37.6,31984.6,34757.4,-0.0878,-0.5956,136.6,98.3,0.468
37.62,31807.3,34790.0,-1.0756,-0.5155,136.6,98.3,0.468
37.64,31856.5,34658.3,-0.8018,-0.8397,136.6,98.3,0.468
37.66,31934.1,34608.2,-0.3694,-0.9631,136.6,98.3,0.468
37.68,31830.1,34545.9,-0.9485,-1.1165,136.6,98.3,0.468
37.7,31753.2,34479.8,-1.3769,-1.2795,136.6,98.3,0.468
37.72,31762.8,34459.9,-1.3235,-1.3285,136.6,98.3,0.468
37.74,31789.2,34497.6,-1.1765,-1.2355,136.6,98.3,0.468
37.76,31800.5,34686.7,-1.1138,-0.7699,136.6,98.3,0.468
37.78,31973.1,34913.4,-0.1519,-0.2116,136.6,98.3,0.468
37.8,32222.1,35347.1,1.2354,0.8567,136.6,98.3,0.468
37.82,32164.3,35574.9,0.913,1.4177,136.6,98.3,0.468
37.84,32377.2,35687.0,2.0994,1.6937,136.6,98.3,0.468
37.86,32304.6,35667.3,1.6947,1.6452,136.6,98.3,0.468
37.88,32201.1,35497.9,1.1179,1.2279,136.6,98.3,0.468
37.9,32191.3,35394.1,1.0634,0.9724,136.6,98.3,0.468
37.92,32036.6,35196.9,0.2018,0.4868,136.6,98.3,0.468
37.94,32062.2,35131.7,0.3445,0.3262,136.6,98.3,0.468
37.96,32104.0,35141.6,0.5774,0.3505,136.6,98.3,0.468
37.98,31957.4,34987.0,-0.2395,-0.0303,136.6,98.3,0.468
38.0,31997.4,34894.2,-0.0164,-0.2588,136.6,98.3,0.468
38.02,31914.0,34863.4,-0.4814,-0.3346,136.6,98.3,0.468
38.04,31887.6,34751.9,-0.6283,-0.6092,136.6,98.3,0.468
38.06,31896.2,34649.0,-0.5803,-0.8627,136.6,98.3,0.468
38.08,31873.1,34653.1,-0.7088,-0.8525,136.6,98.3,0.468
38.1,31843.6,34622.8,-0.8732,-0.9271,136.6,98.3,0.468
38.12,31809.6,34568.8,-1.063,-1.0601,136.6,98.3,0.468
38.14,31742.2,34536.2,-1.4383,-1.1405,136.6,98.3,0.468
38.16,31780.2,34450.0,-1.2264,-1.3529,136.6,98.3,0.468
38.18,31857.9,34571.5,-0.794,-1.0535,136.6,98.3,0.468
38.2,31957.1,34652.6,-0.2411,-0.8538,136.6,98.3,0.468
38.22,32056.5,35042.9,0.3129,0.1073,136.6,98.3,0.468
38.24,32155.6,35392.4,0.8649,0.9682,136.6,98.3,0.468
38.26,32206.2,35594.4,1.1465,1.4655,136.6,98.3,0.468
38.28,32322.3,35761.1,1.7932,1.8762,136.6,98.3,0.468
38.3,32327.7,35797.8,1.8233,1.9665,136.6,98.3,0.468
38.32,32204.4,35459.0,1.1368,1.1322,136.6,98.3,0.468
38.34,32186.4,35372.9,1.0362,0.9201,136.6,98.3,0.468
38.36,32162.9,35147.5,0.9051,0.3651,136.6,98.3,0.468
38.38,32089.3,35085.5,0.4956,0.2124,136.6,98.3,0.468
38.4,32015.9,35066.7,0.0866,0.1661,136.6,98.3,0.468
38.42,32060.2,35092.1,0.3331,0.2286,136.6,98.3,0.468
38.44,31952.9,34959.0,-0.2646,-0.0992,136.6,98.3,0.468
38.46,31938.6,34778.6,-0.3442,-0.5434,136.6,98.3,0.468
38.48,31891.5,34657.6,-0.6065,-0.8416,136.6,98.3,0.468
38.5,31832.3,34723.0,-0.9366,-0.6804,136.6,98.3,0.468
38.52,31898.7,34600.6,-0.5664,-0.9818,136.6,98.3,0.468
38.54,31762.8,34596.9,-1.3234,-0.991,136.6,98.3,0.468
38.56,31784.1,34608.3,-1.2048,-0.9628,136.6,98.3,0.468
38.58,31840.8,34500.6,-0.8893,-1.228,136.6,98.3,0.468
38.6,31805.3,34461.4,-1.0865,-1.3247,136.6,98.3,0.468
38.62,31807.7,34422.5,-1.0733,-1.4205,136.6,98.3,0.468
38.64,31843.4,34774.0,-0.8748,-0.5548,136.6,98.3,0.468
38.66,32036.0,34889.8,0.1986,-0.2697,136.6,98.3,0.468
38.68,32161.8,35295.6,0.8995,0.7299,136.6,98.3,0.468
38.7,32296.1,35627.8,1.6475,1.548,136.6,98.3,0.468
38.72,32323.9,35777.3,1.8025,1.9161,136.6,98.3,0.468
38.74,32307.5,35680.3,1.7109,1.6772,136.6,98.3,0.468
38.76,32162.2,35615.7,0.9013,1.5182,136.6,98.3,0.468
38.78,32173.4,35393.4,0.9637,0.9706,136.6,98.3,0.468
38.8,32116.8,35170.5,0.6486,0.4218,136.6,98.3,0.468
38.82,32069.5,35139.9,0.3851,0.3462,136.6,98.3,0.468
38.84,32100.1,35065.3,0.5554,0.1627,136.6,98.3,0.468
38.86,31945.1,35046.5,-0.3079,0.1164,136.6,98.3,0.468
38.88,31940.9,34951.0,-0.3312,-0.1188,136.6,98.3,0.468
38.9,32000.4,34840.9,-0.0001,-0.3901,136.6,98.3,0.468
38.92,31914.6,34793.0,-0.4778,-0.5081,136.6,98.3,0.468
38.94,31814.0,34614.2,-1.0385,-0.9484,136.6,98.3,0.468
38.96,31905.0,34633.9,-0.5311,-0.8999,136.6,98.3,0.468
38.98,31849.2,34587.4,-0.8423,-1.0145,136.6,98.3,0.468
39.0,31853.6,34656.4,-0.8179,-0.8444,136.6,98.3,0.468
39.02,31676.9,34533.3,-1.8022,-1.1475,136.6,98.3,0.468
39.04,31762.7,34485.6,-1.3242,-1.2652,136.6,98.3,0.468
39.06,31701.7,34444.2,-1.6641,-1.3671,136.6,98.3,0.468
39.08,31821.2,34727.5,-0.9984,-0.6693,136.6,98.3,0.468
39.1,31969.1,35044.9,-0.174,0.1123,136.6,98.3,0.468
39.12,32224.9,35413.2,1.2505,1.0195,136.6,98.3,0.468
39.14,32323.9,35657.9,1.8025,1.6221,136.6,98.3,0.468
39.16,32250.3,35658.2,1.3923,1.6228,136.6,98.3,0.468
39.18,32307.0,35625.6,1.7082,1.5425,136.6,98.3,0.468
39.2,32240.2,35563.2,1.3359,1.3888,136.6,98.3,0.468
39.22,32152.2,35331.7,0.846,0.8187,136.6,98.3,0.468
39.24,32060.9,35134.8,0.3371,0.3337,136.6,98.3,0.468
39.26,32083.1,35171.4,0.4606,0.4239,136.6,98.3,0.468
39.28,32038.1,35015.6,0.21,0.0402,136.6,98.3,0.468
39.3,31940.1,35041.4,-0.3359,0.1036,136.6,98.3,0.468
39.32,32021.1,34934.5,0.1155,-0.1595,136.6,98.3,0.468
39.34,31994.8,34751.2,-0.0309,-0.611,136.6,98.3,0.468
39.36,31961.3,34754.4,-0.2175,-0.6032,136.6,98.3,0.468
39.38,31922.9,34704.8,-0.4318,-0.7253,136.6,98.3,0.468
39.4,31828.1,34733.8,-0.96,-0.6537,136.6,98.3,0.468
39.42,31771.4,34658.1,-1.2759,-0.8402,136.6,98.3,0.468
39.44,31917.4,34613.1,-0.4623,-0.9512,136.6,98.3,0.468
39.46,31713.3,34396.4,-1.5995,-1.4847,136.6,98.3,0.468
39.48,31720.2,34445.2,-1.5611,-1.3646,136.6,98.3,0.468
39.5,31708.6,34533.7,-1.6253,-1.1466,136.6,98.3,0.468
39.52,31940.4,34816.6,-0.3341,-0.45,136.6,98.3,0.468
39.54,32041.7,35019.9,0.2299,0.0508,136.6,98.3,0.468
39.56,32149.4,35476.9,0.8302,1.1763,136.6,98.3,0.468
39.58,32276.8,35626.1,1.5399,1.5437,136.6,98.3,0.468
39.6,32369.5,35731.1,2.0564,1.8023,136.6,98.3,0.468
39.62,32341.1,35687.1,1.8979,1.6939,136.6,98.3,0.468
39.64,32160.8,35543.8,0.8935,1.341,136.6,98.3,0.468
39.66,32187.1,35361.8,1.04,0.8928,136.6,98.3,0.468
39.68,32110.6,35202.3,0.6138,0.5,136.6,98.3,0.468
39.7,32080.8,35147.8,0.4481,0.3657,136.6,98.3,0.468
39.72,32062.5,35134.8,0.3461,0.3338,136.6,98.3,0.468
39.74,32018.3,34978.4,0.0997,-0.0514,136.6,98.3,0.468
39.76,31953.3,34989.2,-0.2624,-0.0248,136.6,98.3,0.468
39.78,31921.2,34733.5,-0.4413,-0.6545,136.6,98.3,0.468
39.8,31868.2,34798.5,-0.7362,-0.4945,136.6,98.3,0.468
39.82,31874.3,34683.5,-0.7022,-0.7777,136.6,98.3,0.468
39.84,31836.4,34711.5,-0.9134,-0.7089,136.6,98.3,0.468
39.86,31831.2,34617.1,-0.9424,-0.9413,136.6,98.3,0.468
39.88,31794.5,34591.5,-1.1469,-1.0043,136.6,98.3,0.468
39.9,31763.7,34540.3,-1.3187,-1.1304,136.6,98.3,0.468
39.92,31843.4,34468.9,-0.8746,-1.3063,136.6,98.3,0.468
39.94,31719.6,34535.3,-1.5641,-1.1427,136.6,98.3,0.468
39.96,31888.3,34683.9,-0.6244,-0.7766,136.6,98.3,0.468
39.98,32030.5,35038.5,0.1676,0.0966,136.6,98.3,0.468
40.0,32088.4,35382.9,0.4905,0.9448,136.6,98.3,0.468
40.02,32271.9,35685.1,1.5124,1.689,136.6,98.3,0.468
40.04,32360.3,35638.7,2.0051,1.5748,136.6,98.3,0.468
40.06,32142.7,35748.4,0.7929,1.8449,136.6,98.3,0.468
40.08,32280.3,35553.8,1.5596,1.3656,136.6,98.3,0.468
40.1,32114.1,35374.3,0.6334,0.9237,136.6,98.3,0.468
40.12,32084.0,35265.1,0.4657,0.6546,136.6,98.3,0.468
40.14,32008.0,35048.6,0.0425,0.1214,136.6,98.3,0.468
40.16,31993.9,35049.2,-0.0361,0.123,136.6,98.3,0.468
40.18,32006.5,35002.5,0.0339,0.0079,136.6,98.3,0.468
40.2,31960.8,34875.0,-0.2207,-0.306,136.6,98.3,0.468
40.22,31980.6,34741.4,-0.1105,-0.6352,136.6,98.3,0.468
40.24,31849.8,34792.5,-0.8391,-0.5093,136.6,98.3,0.468
40.26,31902.5,34721.9,-0.5451,-0.6832,136.6,98.3,0.468
40.28,31876.2,34659.7,-0.6917,-0.8363,136.6,98.3,0.468
40.3,31854.6,34618.9,-0.812,-0.9369,136.6,98.3,0.468
40.32,31756.3,34612.3,-1.36,-0.953,136.6,98.3,0.468
40.34,31761.3,34461.8,-1.3318,-1.3237,136.6,98.3,0.468
40.36,31825.6,34476.1,-0.9738,-1.2886,136.6,98.3,0.468
40.38,31789.6,34596.7,-1.174,-0.9915,136.6,98.3,0.468
40.4,31931.5,34748.7,-0.3839,-0.6172,136.6,98.3,0.468
40.42,32014.8,35151.9,0.0803,0.3759,136.6,98.3,0.468
40.44,32211.5,35349.9,1.1759,0.8635,136.6,98.3,0.468
40.46,32214.1,35663.0,1.1905,1.6346,136.6,98.3,0.468
40.48,32303.5,35800.8,1.6888,1.974,136.6,98.3,0.468
40.5,32285.9,35713.5,1.5906,1.759,136.6,98.3,0.468
40.52,32193.5,35455.6,1.0761,1.1238,136.6,98.3,0.468
40.54,32108.2,35339.1,0.6007,0.837,136.6,98.3,0.468
40.56,31939.1,35188.8,-0.3414,0.4667,136.6,98.3,0.468
40.58,32115.6,35123.4,0.6419,0.3056,136.6,98.3,0.468
40.6,32001.5,35076.7,0.0062,0.1907,136.6,98.3,0.468
40.62,32024.8,34966.8,0.1357,-0.08,136.6,98.3,0.468
40.64,31947.9,34822.0,-0.2922,-0.4367,136.6,98.3,0.468
40.66,31934.7,34856.4,-0.366,-0.3519,136.6,98.3,0.468
40.68,31846.4,34709.3,-0.8576,-0.7141,136.6,98.3,0.468
40.7,31904.3,34660.9,-0.5354,-0.8334,136.6,98.3,0.468
40.72,31788.6,34677.9,-1.1796,-0.7916,136.6,98.3,0.468
40.74,31797.5,34631.4,-1.1305,-0.9061,136.6,98.3,0.468
40.76,31811.7,34582.3,-1.0509,-1.027,136.6,98.3,0.468
40.78,31748.2,34528.8,-1.405,-1.1587,136.6,98.3,0.468
40.8,31783.9,34517.3,-1.2059,-1.187,136.6,98.3,0.468
40.82,31799.5,34577.5,-1.1192,-1.0388,136.6,98.3,0.468
40.84,31827.5,34753.8,-0.9633,-0.6047,136.6,98.3,0.468
40.86,31982.4,35098.7,-0.1003,0.2448,136.6,98.3,0.468
40.88,32171.0,35341.3,0.9503,0.8424,136.6,98.3,0.468
40.9,32266.9,35615.1,1.4846,1.5166,136.6,98.3,0.468
40.92,32459.9,35672.2,2.5599,1.6574,136.6,98.3,0.468
40.94,32272.7,35695.5,1.5169,1.7146,136.6,98.3,0.468
40.96,32180.5,35506.1,1.0035,1.2481,136.6,98.3,0.468
40.98,32196.5,35274.5,1.0926,0.6777,136.6,98.3,0.468
41.0,32093.2,35180.1,0.5168,0.4453,136.6,98.3,0.468
41.02,32029.4,35171.1,0.1614,0.4231,136.6,98.3,0.468
41.04,31987.5,35003.4,-0.0718,0.01,136.6,98.3,0.468
41.06,32082.7,35007.3,0.4585,0.0198,136.6,98.3,0.468
41.08,31897.8,34926.7,-0.5713,-0.1788,136.6,98.3,0.468
41.1,31868.7,34887.2,-0.7335,-0.2761,136.6,98.3,0.468
41.12,31918.0,34704.8,-0.4588,-0.7252,136.6,98.3,0.468
41.14,31866.7,34673.6,-0.7448,-0.802,136.6,98.3,0.468
41.16,31903.4,34690.8,-0.5402,-0.7597,136.6,98.3,0.468
41.18,31850.1,34645.8,-0.8373,-0.8705,136.6,98.3,0.468
41.2,31778.2,34504.9,-1.2377,-1.2175,136.6,98.3,0.468
41.22,31781.3,34383.7,-1.2206,-1.516,136.6,98.3,0.468
41.24,31750.4,34495.6,-1.3927,-1.2405,136.6,98.3,0.468
41.26,31834.3,34550.9,-0.9253,-1.1043,136.6,98.3,0.468
41.28,31935.6,34724.6,-0.3607,-0.6766,136.6,98.3,0.468
41.3,31979.9,35089.1,-0.1139,0.2211,136.6,98.3,0.468
41.32,32284.2,35466.0,1.5811,1.1495,136.6,98.3,0.468
41.34,32226.5,35602.2,1.2597,1.4848,136.6,98.3,0.468
41.36,32397.0,35794.8,2.2095,1.9591,136.6,98.3,0.468
41.38,32321.8,35678.2,1.7908,1.6721,136.6,98.3,0.468
41.4,32268.3,35478.6,1.4924,1.1804,136.6,98.3,0.468
41.42,32159.4,35340.5,0.8857,0.8404,136.6,98.3,0.468
41.44,32083.9,35132.5,0.465,0.328,136.6,98.3,0.468
41.46,32090.0,35000.7,0.499,0.0035,136.6,98.3,0.468
41.48,32068.3,35118.2,0.3781,0.2928,136.6,98.3,0.468
41.5,32005.5,35008.5,0.0286,0.0228,136.6,98.3,0.468
41.52,31912.7,34841.1,-0.4886,-0.3896,136.6,98.3,0.468
41.54,31929.0,34792.8,-0.3975,-0.5085,136.6,98.3,0.468
41.56,31969.8,34683.5,-0.1704,-0.7776,136.6,98.3,0.468
41.58,31869.4,34669.7,-0.7296,-0.8116,136.6,98.3,0.468
41.6,31827.4,34644.0,-0.9639,-0.875,136.6,98.3,0.468
41.62,31828.0,34613.6,-0.9604,-0.9498,136.6,98.3,0.468
41.64,31856.4,34612.5,-0.8021,-0.9526,136.6,98.3,0.468
41.66,31768.8,34478.5,-1.2899,-1.2825,136.6,98.3,0.468
41.68,31777.4,34439.6,-1.2423,-1.3783,136.6,98.3,0.468
41.7,31711.3,34546.4,-1.6105,-1.1153,136.6,98.3,0.468
41.72,31923.8,34689.1,-0.4266,-0.7639,136.6,98.3,0.468
41.74,32097.3,35104.2,0.5399,0.2585,136.6,98.3,0.468
41.76,32136.8,35413.1,0.7599,1.0191,136.6,98.3,0.468
41.78,32333.5,35664.5,1.8557,1.6383,136.6,98.3,0.468
41.8,32303.5,35762.5,1.6884,1.8797,136.6,98.3,0.468
41.82,32221.0,35725.3,1.2293,1.788,136.6,98.3,0.468
41.84,32274.9,35444.4,1.5295,1.0963,136.6,98.3,0.468
41.86,32139.5,35249.2,0.7749,0.6156,136.6,98.3,0.468
41.88,32083.1,35246.2,0.461,0.608,136.6,98.3,0.468
41.9,32014.8,34997.4,0.0801,-0.0046,136.6,98.3,0.468
41.92,31877.6,35167.6,-0.6838,0.4145,136.6,98.3,0.468
41.94,32076.6,34900.1,0.4244,-0.2443,136.6,98.3,0.468
41.96,31893.0,34809.2,-0.598,-0.4682,136.6,98.3,0.468
41.98,31886.9,34810.1,-0.632,-0.4658,136.6,98.3,0.468
42.0,31901.8,34746.2,-0.5495,-0.6233,136.6,98.3,0.468
42.02,31857.9,34707.7,-0.794,-0.718,136.6,98.3,0.468
42.04,31929.8,34597.0,-0.3934,-0.9907,136.6,98.3,0.468
42.06,31807.0,34691.0,-1.0772,-0.7591,136.6,98.3,0.468
42.08,31786.1,34588.4,-1.1939,-1.012,136.6,98.3,0.468
42.1,31708.7,34471.4,-1.625,-1.3001,136.6,98.3,0.468
42.12,31776.1,34457.0,-1.2495,-1.3355,136.6,98.3,0.468
42.14,31818.1,34544.3,-1.0154,-1.1204,136.6,98.3,0.468
42.16,31821.6,34747.8,-0.9963,-0.6194,136.6,98.3,0.468
42.18,32144.3,35084.2,0.8016,0.209,136.6,98.3,0.468
42.2,32253.5,35478.3,1.4103,1.1796,136.6,98.3,0.468
42.22,32304.6,35688.4,1.695,1.697,136.6,98.3,0.468
42.24,32395.1,35800.5,2.199,1.9732,136.6,98.3,0.468
42.26,32211.8,35602.1,1.178,1.4845,136.6,98.3,0.468
42.28,32213.8,35438.3,1.1888,1.0813,136.6,98.3,0.468
42.3,32108.1,35237.4,0.6,0.5863,136.6,98.3,0.468
42.32,32096.2,35173.0,0.5335,0.4279,136.6,98.3,0.468
42.34,32010.9,35108.8,0.0588,0.2697,136.6,98.3,0.468
42.36,32057.2,35062.0,0.3163,0.1544,136.6,98.3,0.468
42.38,31989.7,35031.0,-0.0594,0.0781,136.6,98.3,0.468
42.4,31893.4,34983.5,-0.596,-0.0388,136.6,98.3,0.468
42.42,31933.9,34778.3,-0.3702,-0.5442,136.6,98.3,0.468
42.44,31801.9,34724.3,-1.1056,-0.6772,136.6,98.3,0.468
42.46,31893.6,34691.3,-0.5947,-0.7585,136.6,98.3,0.468
42.48,31838.0,34657.6,-0.9048,-0.8416,136.6,98.3,0.468
42.5,31823.4,34529.8,-0.9859,-1.1563,136.6,98.3,0.468
42.52,31880.2,34571.2,-0.6693,-1.0543,136.6,98.3,0.468
42.54,31802.8,34406.8,-1.1009,-1.4592,136.6,98.3,0.468
42.56,31834.0,34478.0,-0.9266,-1.2838,136.6,98.3,0.468
42.58,31787.5,34447.9,-1.1858,-1.3579,136.6,98.3,0.468
42.6,31894.6,34660.8,-0.5895,-0.8337,136.6,98.3,0.468
42.62,32061.7,35086.2,0.3414,0.2141,136.6,98.3,0.468
42.64,32203.7,35472.0,1.1325,1.1642,136.6,98.3,0.468
42.66,32355.5,35774.7,1.9786,1.9096,136.6,98.3,0.468
42.68,32309.8,35699.9,1.7238,1.7256,136.6,98.3,0.468
42.7,32406.1,35676.0,2.2601,1.6665,136.6,98.3,0.468
42.72,32145.3,35506.5,0.8074,1.2491,136.6,98.3,0.468
42.74,32209.5,35346.7,1.1652,0.8557,136.6,98.3,0.468
42.76,32120.6,35194.1,0.67,0.4799,136.6,98.3,0.468
42.78,32082.7,35104.4,0.4587,0.259,136.6,98.3,0.468
42.8,32033.9,35114.0,0.1865,0.2826,136.6,98.3,0.468
42.82,31981.8,35103.3,-0.1033,0.2563,136.6,98.3,0.468
42.84,31968.7,34788.4,-0.1765,-0.5194,136.6,98.3,0.468
42.86,31893.7,34773.7,-0.5942,-0.5555,136.6,98.3,0.468
42.88,31850.5,34701.5,-0.8348,-0.7334,136.6,98.3,0.468
42.9,31828.6,34697.0,-0.957,-0.7444,136.6,98.3,0.468
42.92,31818.9,34638.2,-1.0109,-0.8892,136.6,98.3,0.468
42.94,31839.2,34645.5,-0.8979,-0.8713,136.6,98.3,0.468
42.96,31682.1,34494.6,-1.7732,-1.2428,136.6,98.3,0.468
42.98,31746.8,34499.0,-1.4128,-1.2321,136.6,98.3,0.468
43.0,31742.0,34462.2,-1.4392,-1.3226,136.6,98.3,0.468
43.02,31797.6,34501.9,-1.1299,-1.225,136.6,98.3,0.468
43.04,31898.4,34779.6,-0.5684,-0.5411,136.6,98.3,0.468
43.06,32062.0,35183.5,0.3433,0.4537,136.6,98.3,0.468
43.08,32149.5,35493.3,0.8308,1.2166,136.6,98.3,0.468
43.1,32286.8,35679.2,1.5956,1.6745,136.6,98.3,0.468
43.12,32291.1,35800.5,1.6198,1.9731,136.6,98.3,0.468
43.14,32308.7,35659.7,1.7173,1.6264,136.6,98.3,0.468
43.16,32244.4,35423.1,1.3596,1.0439,136.6,98.3,0.468
43.18,32179.7,35386.7,0.9991,0.9542,136.6,98.3,0.468
43.2,32076.9,35159.5,0.4263,0.3947,136.6,98.3,0.468
43.22,32070.2,35080.2,0.3889,0.1994,136.6,98.3,0.468
43.24,32017.9,35171.2,0.0975,0.4235,136.6,98.3,0.468
43.26,32056.6,35004.6,0.313,0.0131,136.6,98.3,0.468
43.28,31937.3,34778.5,-0.3513,-0.5439,136.6,98.3,0.468
43.3,31951.8,34894.5,-0.2707,-0.258,136.6,98.3,0.468
43.32,31888.3,34642.3,-0.6247,-0.8791,136.6,98.3,0.468
43.34,31907.3,34657.3,-0.5188,-0.8421,136.6,98.3,0.468
43.36,31848.6,34712.5,-0.8455,-0.7063,136.6,98.3,0.468
43.38,31784.1,34652.3,-1.2051,-0.8546,136.6,98.3,0.468
43.4,31797.4,34528.2,-1.1309,-1.1602,136.6,98.3,0.468
43.42,31769.6,34404.1,-1.2858,-1.4659,136.6,98.3,0.468
43.44,31790.8,34458.2,-1.1678,-1.3326,136.6,98.3,0.468
43.46,31820.7,34563.9,-1.0009,-1.0724,136.6,98.3,0.468
43.48,31934.7,34826.9,-0.3662,-0.4245,136.6,98.3,0.468
43.5,31994.5,35144.5,-0.0327,0.3577,136.6,98.3,0.468
43.52,32217.5,35474.6,1.2098,1.1707,136.6,98.3,0.468
43.54,32320.6,35726.2,1.7841,1.7901,136.6,98.3,0.468
43.56,32212.8,35648.8,1.1831,1.5995,136.6,98.3,0.468
43.58,32273.5,35621.4,1.5213,1.5321,136.6,98.3,0.468
43.6,32213.9,35318.4,1.1895,0.7859,136.6,98.3,0.468
43.62,32233.0,35183.7,1.2959,0.4542,136.6,98.3,0.468
43.64,32124.7,35120.5,0.6928,0.2985,136.6,98.3,0.468
43.66,32045.2,35233.2,0.2497,0.576,136.6,98.3,0.468
43.68,32011.1,34968.6,0.0595,-0.0756,136.6,98.3,0.468
43.7,31981.6,35037.0,-0.1046,0.0928,136.6,98.3,0.468
43.72,31915.6,34830.7,-0.4722,-0.4152,136.6,98.3,0.468
43.74,31903.3,34674.0,-0.5407,-0.801,136.6,98.3,0.468
43.76,31924.4,34621.8,-0.4231,-0.9297,136.6,98.3,0.468
43.78,31825.5,34719.2,-0.974,-0.6898,136.6,98.3,0.468
43.8,31824.8,34664.3,-0.978,-0.8251,136.6,98.3,0.468
43.82,31821.8,34645.0,-0.9946,-0.8726,136.6,98.3,0.468
43.84,31730.9,34538.3,-1.5015,-1.1352,136.6,98.3,0.468
43.86,31757.5,34512.3,-1.3531,-1.1992,136.6,98.3,0.468
43.88,31773.5,34463.2,-1.2638,-1.3202,136.6,98.3,0.468
43.9,31758.0,34612.3,-1.3501,-0.9532,136.6,98.3,0.468
43.92,31905.8,34815.7,-0.5269,-0.452,136.6,98.3,0.468
43.94,32085.9,35136.7,0.4766,0.3384,136.6,98.3,0.468
43.96,32240.1,35486.2,1.3355,1.1992,136.6,98.3,0.468
43.98,32225.6,35858.4,1.2549,2.1158,136.6,98.3,0.468
44.0,32422.4,35736.9,2.3508,1.8166,136.6,98.3,0.468
44.02,32260.8,35624.5,1.4507,1.5398,136.6,98.3,0.468
44.04,32154.6,35392.9,0.8594,0.9695,136.6,98.3,0.468
44.06,32259.7,35279.3,1.4446,0.6897,136.6,98.3,0.468
44.08,32083.0,35170.8,0.4601,0.4223,136.6,98.3,0.468
44.1,32025.3,35114.9,0.1391,0.2847,136.6,98.3,0.468
44.12,32047.0,35104.5,0.2599,0.2592,136.6,98.3,0.468
44.14,32077.9,34936.3,0.4318,-0.1552,136.6,98.3,0.468
44.16,31935.0,34905.2,-0.3641,-0.2318,136.6,98.3,0.468
44.18,31894.4,34790.1,-0.5906,-0.5153,136.6,98.3,0.468
44.2,31874.5,34595.4,-0.7014,-0.9946,136.6,98.3,0.468
44.22,31828.2,34632.7,-0.9591,-0.9029,136.6,98.3,0.468
44.24,31803.9,34590.2,-1.0947,-1.0074,136.6,98.3,0.468
44.26,31840.8,34672.4,-0.889,-0.8051,136.6,98.3,0.468
44.28,31825.7,34583.8,-0.973,-1.0232,136.6,98.3,0.468
44.3,31821.1,34509.7,-0.9989,-1.2056,136.6,98.3,0.468
44.32,31718.8,34455.9,-1.5689,-1.3383,136.6,98.3,0.468
44.34,31742.8,34618.2,-1.4348,-0.9386,136.6,98.3,0.468
44.36,31934.4,34848.7,-0.3678,-0.3709,136.6,98.3,0.468
44.38,32031.2,35126.5,0.1718,0.3133,136.6,98.3,0.468
44.4,32184.2,35498.3,1.0242,1.2289,136.6,98.3,0.468
44.42,32329.7,35808.4,1.8344,1.9927,136.6,98.3,0.468
44.44,32334.0,35713.9,1.8586,1.7599,136.6,98.3,0.468
44.46,32316.6,35624.3,1.7615,1.5394,136.6,98.3,0.468
44.48,32209.9,35421.0,1.1673,1.0387,136.6,98.3,0.468
44.5,32047.2,35185.8,0.2607,0.4593,136.6,98.3,0.468
44.52,32090.9,35146.8,0.5042,0.3633,136.6,98.3,0.468
44.54,32071.2,35080.0,0.3944,0.1988,136.6,98.3,0.468
44.56,32142.1,35098.7,0.7895,0.2449,136.6,98.3,0.468
44.58,31995.3,35074.3,-0.0282,0.1847,136.6,98.3,0.468
44.6,31983.9,34912.2,-0.0917,-0.2144,136.6,98.3,0.468
44.62,31865.8,34810.5,-0.7496,-0.465,136.6,98.3,0.468
44.64,31859.1,34650.8,-0.7869,-0.8582,136.6,98.3,0.468
44.66,31832.5,34668.7,-0.9352,-0.8141,136.6,98.3,0.468
44.68,31854.8,34676.9,-0.8112,-0.794,136.6,98.3,0.468
44.7,31907.3,34622.4,-0.5186,-0.9283,136.6,98.3,0.468
44.72,31843.1,34515.7,-0.8765,-1.1909,136.6,98.3,0.468
44.74,31760.8,34372.9,-1.3347,-1.5427,136.6,98.3,0.468
44.76,31779.6,34356.5,-1.2301,-1.5831,136.6,98.3,0.468
44.78,31851.7,34533.0,-0.8284,-1.1483,136.6,98.3,0.468
44.8,31958.4,34789.6,-0.2337,-0.5163,136.6,98.3,0.468
44.82,32120.2,35166.1,0.6675,0.4108,136.6,98.3,0.468
44.84,32242.0,35596.1,1.3462,1.4698,136.6,98.3,0.468
