timestamp,raw_red,raw_ir,filtered_red,filtered_ir,heart_rate,spo2,ac_dc_ratio
0.0,32020.5,34987.1,0.3638,-0.1491,147.6,97.9,0.483
0.02,32053.6,35068.9,0.9341,0.8266,147.6,97.9,0.483
0.04,32082.1,35119.5,1.4246,1.4301,147.6,97.9,0.483
0.06,32074.6,35075.6,1.296,0.9064,147.6,97.9,0.483
0.08,31998.4,35020.0,-0.017,0.2431,147.6,97.9,0.483
0.1,32137.8,35035.6,2.3828,0.4292,147.6,97.9,0.483
0.12,32071.3,34967.1,1.2393,-0.3885,147.6,97.9,0.483
0.14,31950.2,35011.5,-0.8464,0.1421,147.6,97.9,0.483
0.16,31969.9,35012.8,-0.5075,0.157,147.6,97.9,0.483
0.18,32012.5,34931.2,0.2264,-0.8161,147.6,97.9,0.483
0.2,32028.4,35025.2,0.5004,0.3046,147.6,97.9,0.483
0.22,31954.2,34946.7,-0.7777,-0.6316,147.6,97.9,0.483
0.24,31948.0,34870.4,-0.884,-1.5423,147.6,97.9,0.483
0.26,31988.9,34933.0,-0.1799,-0.7953,147.6,97.9,0.483
0.28,32016.1,34919.5,0.2885,-0.9569,147.6,97.9,0.483
0.3,31909.3,34992.6,-1.55,-0.0842,147.6,97.9,0.483
0.32,32003.7,34981.4,0.0742,-0.2172,147.6,97.9,0.483
0.34,31957.9,34923.1,-0.7132,-0.9136,147.6,97.9,0.483
0.36,31958.5,34915.9,-0.7036,-0.9995,147.6,97.9,0.483
0.38,31958.6,34965.6,-0.7015,-0.4061,147.6,97.9,0.483
0.4,31957.9,35025.1,-0.7127,0.3039,147.6,97.9,0.483
0.42,32007.9,35051.6,0.1471,0.6198,147.6,97.9,0.483
0.44,32066.3,35106.4,1.1523,1.2744,147.6,97.9,0.483
0.46,32002.8,35161.0,0.059,1.9252,147.6,97.9,0.483
0.48,32090.4,35121.9,1.5681,1.4593,147.6,97.9,0.483
0.5,31984.9,35063.0,-0.2491,0.7561,147.6,97.9,0.483
0.52,32016.4,35125.4,0.2935,1.5004,147.6,97.9,0.483
0.54,32029.0,35024.2,0.5104,0.2927,147.6,97.9,0.483
0.56,32021.0,35072.9,0.3723,0.8737,147.6,97.9,0.483
0.58,32048.3,34980.2,0.8423,-0.2324,147.6,97.9,0.483
0.6,32034.7,34961.4,0.6092,-0.4565,147.6,97.9,0.483
0.62,31985.7,34976.0,-0.2346,-0.2819,147.6,97.9,0.483
0.64,31931.3,34928.2,-1.1709,-0.852,147.6,97.9,0.483
0.66,31996.0,34947.2,-0.0583,-0.6252,147.6,97.9,0.483
0.68,32107.6,34937.7,1.8633,-0.7389,147.6,97.9,0.483
0.7,31959.7,34938.4,-0.6817,-0.7308,147.6,97.9,0.483
0.72,31985.8,35019.7,-0.2326,0.24,147.6,97.9,0.483
0.74,31977.7,34920.9,-0.3728,-0.9391,147.6,97.9,0.483
0.76,31945.1,34913.0,-0.9338,-1.0336,147.6,97.9,0.483
0.78,31894.7,34963.5,-1.8015,-0.4316,147.6,97.9,0.483
0.8,31964.7,34891.4,-0.5957,-1.2921,147.6,97.9,0.483
0.82,31986.1,35065.3,-0.2284,0.7839,147.6,97.9,0.483
0.84,31995.2,35182.1,-0.0706,2.177,147.6,97.9,0.483
0.86,32001.0,35116.9,0.0293,1.3993,147.6,97.9,0.483
0.88,32020.1,35092.8,0.357,1.1121,147.6,97.9,0.483
0.9,32055.7,35091.5,0.97,1.0962,147.6,97.9,0.483
0.92,32039.8,35072.5,0.6963,0.8692,147.6,97.9,0.483
0.94,31998.2,35026.6,-0.0191,0.3222,147.6,97.9,0.483
0.96,32019.4,35050.1,0.3458,0.6017,147.6,97.9,0.483
0.98,31931.2,34924.6,-1.1726,-0.895,147.6,97.9,0.483
1.0,31969.3,35046.0,-0.5173,0.5537,147.6,97.9,0.483
1.02,31976.0,35003.7,-0.402,0.0485,147.6,97.9,0.483
1.04,31997.2,34965.1,-0.0368,-0.412,147.6,97.9,0.483
1.06,32045.0,34910.9,0.7855,-1.0587,147.6,97.9,0.483
1.08,32000.5,34992.5,0.0198,-0.0849,147.6,97.9,0.483
1.1,32003.0,34965.2,0.0626,-0.4104,147.6,97.9,0.483
1.12,32033.5,34936.5,0.5879,-0.7531,147.6,97.9,0.483
1.14,31965.8,34878.2,-0.5767,-1.4491,147.6,97.9,0.483
1.16,31928.0,34942.7,-1.2287,-0.6799,147.6,97.9,0.483
1.18,31946.2,34971.9,-0.9151,-0.3306,147.6,97.9,0.483
1.2,32004.8,34954.9,0.0931,-0.5342,147.6,97.9,0.483
1.22,31994.4,35019.8,-0.0845,0.2403,147.6,97.9,0.483
1.24,32060.9,35112.4,1.0603,1.3461,147.6,97.9,0.483
1.26,32034.7,35142.3,0.6092,1.7027,147.6,97.9,0.483
1.28,32118.6,35069.9,2.0534,0.8386,147.6,97.9,0.483
1.3,32053.1,35016.0,0.9246,0.1957,147.6,97.9,0.483
1.32,31980.0,35034.9,-0.3336,0.4205,147.6,97.9,0.483
1.34,31954.0,35112.0,-0.7801,1.3406,147.6,97.9,0.483
1.36,31997.0,35012.5,-0.0408,0.1537,147.6,97.9,0.483
1.38,31947.2,35069.9,-0.8982,0.8384,147.6,97.9,0.483
1.4,32049.3,35062.0,0.8598,0.744,147.6,97.9,0.483
1.42,32042.9,34946.0,0.7503,-0.6398,147.6,97.9,0.483
1.44,31930.0,35015.5,-1.1932,0.1889,147.6,97.9,0.483
1.46,32026.2,35045.4,0.4623,0.546,147.6,97.9,0.483
1.48,31924.2,34967.4,-1.2934,-0.3846,147.6,97.9,0.483
1.5,31935.5,34914.0,-1.0991,-1.0221,147.6,97.9,0.483
1.52,31906.8,34948.2,-1.5938,-0.6136,147.6,97.9,0.483
1.54,31979.8,34911.6,-0.3366,-1.051,147.6,97.9,0.483
1.56,31988.4,34880.8,-0.189,-1.4179,147.6,97.9,0.483
1.58,31981.8,34828.5,-0.3018,-2.042,147.6,97.9,0.483
1.6,32015.8,35016.8,0.2832,0.2052,147.6,97.9,0.483
1.62,32064.7,34905.6,1.1243,-1.1222,147.6,97.9,0.483
1.64,32011.4,35065.5,0.2068,0.7863,147.6,97.9,0.483
1.66,32100.5,35155.8,1.7415,1.8636,147.6,97.9,0.483
1.68,32072.8,35148.6,1.2639,1.777,147.6,97.9,0.483
1.7,32053.4,35049.6,0.9309,0.5961,147.6,97.9,0.483
1.72,31970.1,35055.6,-0.503,0.6678,147.6,97.9,0.483
1.74,32079.3,35016.1,1.3759,0.1963,147.6,97.9,0.483
1.76,31937.9,34922.3,-1.0577,-0.9223,147.6,97.9,0.483
1.78,32021.8,35010.2,0.3873,0.1264,147.6,97.9,0.483
1.8,32042.6,34975.3,0.7452,-0.2902,147.6,97.9,0.483
1.82,32075.7,35051.8,1.3146,0.6227,147.6,97.9,0.483
1.84,31947.8,35002.2,-0.8876,0.0311,147.6,97.9,0.483
1.86,31956.1,34948.8,-0.7445,-0.6065,147.6,97.9,0.483
1.88,32002.3,34970.3,0.0503,-0.3505,147.6,97.9,0.483
1.9,31934.2,34907.5,-1.121,-1.0995,147.6,97.9,0.483
1.92,32020.2,34961.8,0.3593,-0.4517,147.6,97.9,0.483
1.94,31998.2,34856.0,-0.0196,-1.7145,147.6,97.9,0.483
1.96,31932.5,34984.5,-1.1498,-0.1807,147.6,97.9,0.483
1.98,31980.1,34913.0,-0.3319,-1.0334,147.6,97.9,0.483
2.0,31975.9,34907.2,-0.403,-1.1033,147.6,97.9,0.483
2.02,31908.7,34979.7,-1.5604,-0.238,147.6,97.9,0.483
2.04,32077.0,35076.4,1.3374,0.9162,147.6,97.9,0.483
2.06,32061.0,35122.6,1.0617,1.4676,147.6,97.9,0.483
2.08,32086.0,35194.8,1.4915,2.3288,147.6,97.9,0.483
2.1,32020.8,35066.4,0.3688,0.797,147.6,97.9,0.483
2.12,32051.7,35135.1,0.9015,1.616,147.6,97.9,0.483
2.14,32038.0,35021.5,0.6661,0.2613,147.6,97.9,0.483
2.16,31993.7,35045.1,-0.0978,0.5429,147.6,97.9,0.483
2.18,31982.7,35031.6,-0.2859,0.3816,147.6,97.9,0.483
2.2,32022.7,34948.5,0.4021,-0.6098,147.6,97.9,0.483
2.22,32003.9,34942.0,0.0793,-0.6876,147.6,97.9,0.483
2.24,31936.0,34985.7,-1.0904,-0.1664,147.6,97.9,0.483
2.26,31935.4,34925.6,-1.1008,-0.8837,147.6,97.9,0.483
2.28,31917.4,34961.1,-1.4103,-0.4599,147.6,97.9,0.483
2.3,32095.2,34998.9,1.6507,-0.0088,147.6,97.9,0.483
2.32,31929.7,35017.3,-1.1993,0.2105,147.6,97.9,0.483
2.34,31894.6,34915.9,-1.8027,-0.9992,147.6,97.9,0.483
2.36,32007.1,34910.8,0.1342,-1.0603,147.6,97.9,0.483
2.38,31982.7,34924.7,-0.2861,-0.8943,147.6,97.9,0.483
2.4,32022.7,34975.9,0.4021,-0.2836,147.6,97.9,0.483
2.42,31907.5,35037.6,-1.581,0.4534,147.6,97.9,0.483
2.44,31961.2,35004.4,-0.6569,0.0564,147.6,97.9,0.483
2.46,31981.5,35139.4,-0.3077,1.6683,147.6,97.9,0.483
2.48,32050.7,35101.8,0.8835,1.2194,147.6,97.9,0.483
2.5,32106.7,35154.4,1.8479,1.8467,147.6,97.9,0.483
2.52,31994.4,34999.3,-0.0844,-0.0041,147.6,97.9,0.483
2.54,32119.3,35091.5,2.0644,1.0964,147.6,97.9,0.483
2.56,32044.8,35131.2,0.7826,1.5699,147.6,97.9,0.483
2.58,31959.1,34973.0,-0.6935,-0.3173,147.6,97.9,0.483
2.6,32054.5,35023.0,0.9502,0.2791,147.6,97.9,0.483
2.62,32001.7,35018.6,0.0406,0.2263,147.6,97.9,0.483
2.64,32009.9,34939.7,0.1815,-0.7154,147.6,97.9,0.483
2.66,31981.7,34895.9,-0.3037,-1.2384,147.6,97.9,0.483
2.68,32019.2,35062.1,0.341,0.7454,147.6,97.9,0.483
2.7,31949.1,34972.8,-0.8643,-0.3208,147.6,97.9,0.483
2.72,31918.0,34910.2,-1.4001,-1.0676,147.6,97.9,0.483
2.74,31920.7,34837.6,-1.3546,-1.9339,147.6,97.9,0.483
2.76,31936.7,35011.9,-1.0785,0.1467,147.6,97.9,0.483
2.78,31980.3,34873.4,-0.3282,-1.5065,147.6,97.9,0.483
2.8,31950.3,34903.8,-0.8439,-1.1442,147.6,97.9,0.483
2.82,31979.1,34915.8,-0.349,-1.001,147.6,97.9,0.483
2.84,31991.5,35033.4,-0.1355,0.4034,147.6,97.9,0.483
2.86,32024.0,35038.7,0.4252,0.4664,147.6,97.9,0.483
2.88,32106.3,35064.3,1.8404,0.7717,147.6,97.9,0.483
2.9,32152.1,35093.3,2.6288,1.1182,147.6,97.9,0.483
2.92,32043.5,35113.9,0.7603,1.364,147.6,97.9,0.483
2.94,32024.0,35097.4,0.4238,1.1663,147.6,97.9,0.483
2.96,31973.4,35058.8,-0.4461,0.7055,147.6,97.9,0.483
2.98,32033.0,35023.4,0.5786,0.2834,147.6,97.9,0.483
3.0,31987.4,35065.0,-0.2048,0.7794,147.6,97.9,0.483
3.02,31992.4,34961.2,-0.1198,-0.4586,147.6,97.9,0.483
3.04,31980.5,35004.9,-0.3239,0.0627,147.6,97.9,0.483
3.06,32010.4,34952.2,0.1895,-0.5666,147.6,97.9,0.483
3.08,31990.0,34997.6,-0.1609,-0.0243,147.6,97.9,0.483
3.1,32018.5,34973.8,0.3299,-0.3079,147.6,97.9,0.483
3.12,31902.1,34978.3,-1.674,-0.2546,147.6,97.9,0.483
3.14,31959.1,34916.3,-0.6929,-0.9945,147.6,97.9,0.483
3.16,31961.5,34949.5,-0.6523,-0.5985,147.6,97.9,0.483
3.18,31883.3,34858.6,-1.9981,-1.683,147.6,97.9,0.483
3.2,31878.7,34926.6,-2.0766,-0.8717,147.6,97.9,0.483
3.22,31994.2,34989.3,-0.0894,-0.1237,147.6,97.9,0.483
3.24,31967.3,35048.4,-0.552,0.5822,147.6,97.9,0.483
3.26,32023.6,35094.2,0.4174,1.1286,147.6,97.9,0.483
3.28,31986.1,35100.8,-0.2285,1.2067,147.6,97.9,0.483
3.3,32075.3,34958.3,1.3079,-0.4935,147.6,97.9,0.483
3.32,32006.3,35086.8,0.1194,1.0399,147.6,97.9,0.483
3.34,32025.2,35111.0,0.4447,1.3285,147.6,97.9,0.483
3.36,31967.4,35067.9,-0.5506,0.8145,147.6,97.9,0.483
3.38,32005.6,35016.0,0.1085,0.1955,147.6,97.9,0.483
3.4,31999.6,35023.1,0.0037,0.2801,147.6,97.9,0.483
3.42,32016.0,34991.3,0.2873,-0.0991,147.6,97.9,0.483
3.44,31951.4,35009.4,-0.8256,0.1165,147.6,97.9,0.483
3.46,32001.9,35020.1,0.0446,0.244,147.6,97.9,0.483
3.48,31950.0,34906.6,-0.8494,-1.1101,147.6,97.9,0.483
3.5,31884.2,34988.7,-1.9818,-0.1307,147.6,97.9,0.483
3.52,32009.5,34945.6,0.1752,-0.6445,147.6,97.9,0.483
3.54,31904.4,34932.2,-1.6347,-0.8052,147.6,97.9,0.483
3.56,31994.5,34965.5,-0.0839,-0.4077,147.6,97.9,0.483
3.58,31941.0,34913.3,-1.0041,-1.0304,147.6,97.9,0.483
3.6,31971.2,34913.9,-0.4841,-1.0227,147.6,97.9,0.483
3.62,31965.6,34808.7,-0.5803,-2.2787,147.6,97.9,0.483
3.64,31961.2,35041.4,-0.6568,0.4981,147.6,97.9,0.483
3.66,32036.7,34896.0,0.643,-1.2373,147.6,97.9,0.483
3.68,31999.9,35129.1,0.0094,1.5449,147.6,97.9,0.483
3.7,32127.5,35184.3,2.2069,2.2041,147.6,97.9,0.483
3.72,32093.8,35121.3,1.6262,1.4516,147.6,97.9,0.483
3.74,32071.1,35209.8,1.2354,2.5079,147.6,97.9,0.483
3.76,32012.8,35154.1,0.231,1.8426,147.6,97.9,0.483
3.78,32017.4,34954.9,0.3104,-0.5337,147.6,97.9,0.483
3.8,31952.0,35038.7,-0.8154,0.4665,147.6,97.9,0.483
3.82,32123.5,35048.4,2.138,0.5816,147.6,97.9,0.483
3.84,31978.9,34947.3,-0.3518,-0.6239,147.6,97.9,0.483
3.86,32081.4,35018.9,1.4118,0.2295,147.6,97.9,0.483
3.88,31987.5,34985.3,-0.2038,-0.171,147.6,97.9,0.483
3.9,31917.5,34882.1,-1.4095,-1.4024,147.6,97.9,0.483
3.92,32033.2,35024.3,0.5821,0.2946,147.6,97.9,0.483
3.94,32006.1,34980.5,0.1156,-0.2284,147.6,97.9,0.483
3.96,31912.9,34971.1,-1.4889,-0.3404,147.6,97.9,0.483
3.98,31984.9,34928.6,-0.2483,-0.8479,147.6,97.9,0.483
4.0,31969.0,34913.7,-0.5225,-1.0252,147.6,97.9,0.483
4.02,31899.1,34908.2,-1.726,-1.0907,147.6,97.9,0.483
4.04,32052.9,34913.2,0.9218,-1.0311,147.6,97.9,0.483
4.06,31945.1,35062.0,-0.9337,0.744,147.6,97.9,0.483
4.08,32128.1,35045.8,2.2158,0.5506,147.6,97.9,0.483
4.1,31988.7,35133.2,-0.1829,1.5935,147.6,97.9,0.483
4.12,32154.8,35184.8,2.6758,2.2092,147.6,97.9,0.483
4.14,32115.9,35094.7,2.0064,1.134,147.6,97.9,0.483
4.16,31926.0,35070.3,-1.2621,0.8429,147.6,97.9,0.483
4.18,32040.1,35080.4,0.7012,0.9633,147.6,97.9,0.483
4.2,31943.7,34983.0,-0.9583,-0.199,147.6,97.9,0.483
4.22,32026.9,34996.3,0.4745,-0.0401,147.6,97.9,0.483
4.24,31928.4,34985.3,-1.2214,-0.1711,147.6,97.9,0.483
4.26,31999.1,35019.2,-0.0046,0.2334,147.6,97.9,0.483
4.28,31937.1,35035.6,-1.0718,0.4296,147.6,97.9,0.483
4.3,31893.5,34962.0,-1.8214,-0.4493,147.6,97.9,0.483
4.32,31950.6,34941.9,-0.8386,-0.6887,147.6,97.9,0.483
4.34,31897.4,34832.9,-1.7554,-1.9899,147.6,97.9,0.483
4.36,31956.8,34855.9,-0.732,-1.7154,147.6,97.9,0.483
4.38,31917.5,34937.2,-1.4081,-0.7445,147.6,97.9,0.483
4.4,31954.1,35020.9,-0.7791,0.2534,147.6,97.9,0.483
4.42,31931.8,34848.3,-1.1626,-1.8062,147.6,97.9,0.483
4.44,31946.7,34952.4,-0.9067,-0.5634,147.6,97.9,0.483
4.46,32065.0,34972.2,1.131,-0.3274,147.6,97.9,0.483
4.48,31997.0,35089.0,-0.0402,1.0665,147.6,97.9,0.483
4.5,32104.4,35096.0,1.8085,1.1501,147.6,97.9,0.483
4.52,32114.1,35098.3,1.976,1.1775,147.6,97.9,0.483
4.54,32122.1,35105.3,2.1134,1.261,147.6,97.9,0.483
4.56,31987.7,35085.7,-0.2006,1.0275,147.6,97.9,0.483
4.58,32086.4,35049.1,1.4985,0.5905,147.6,97.9,0.483
4.6,32131.4,35039.7,2.2724,0.4785,147.6,97.9,0.483
4.62,32040.5,34998.1,0.7086,-0.0185,147.6,97.9,0.483
4.64,32017.8,35053.8,0.318,0.6468,147.6,97.9,0.483
4.66,32020.6,34957.5,0.3654,-0.5022,147.6,97.9,0.483
4.68,32005.7,34871.4,0.1097,-1.5298,147.6,97.9,0.483
4.7,31930.1,35008.8,-1.1913,0.1088,147.6,97.9,0.483
4.72,31966.3,34964.3,-0.5695,-0.4216,147.6,97.9,0.483
4.74,32024.4,34955.4,0.432,-0.5281,147.6,97.9,0.483
4.76,31917.0,34998.7,-1.418,-0.0108,147.6,97.9,0.483
4.78,31928.6,34976.3,-1.2185,-0.2784,147.6,97.9,0.483
4.8,32003.3,34861.1,0.0685,-1.6527,147.6,97.9,0.483
4.82,32013.7,34860.0,0.2475,-1.6667,147.6,97.9,0.483
4.84,31962.8,34895.7,-0.6288,-1.2405,147.6,97.9,0.483
4.86,32054.3,34986.2,0.9468,-0.1598,147.6,97.9,0.483
4.88,32077.4,35015.0,1.3439,0.1828,147.6,97.9,0.483
4.9,31985.4,35107.3,-0.2395,1.2852,147.6,97.9,0.483
4.92,32039.4,35147.0,0.6889,1.7582,147.6,97.9,0.483
4.94,32093.0,35130.5,1.6118,1.5611,147.6,97.9,0.483
4.96,32063.9,35092.3,1.1109,1.1056,147.6,97.9,0.483
4.98,31965.4,34977.4,-0.5849,-0.2659,147.6,97.9,0.483
5.0,32120.9,35015.9,2.0931,0.1942,147.6,97.9,0.483
5.02,32034.9,35118.8,0.6115,1.4218,147.6,97.9,0.483
5.04,32054.7,34994.9,0.9526,-0.0563,147.6,97.9,0.483
5.06,31942.9,34983.5,-0.9718,-0.192,147.6,97.9,0.483
5.08,31976.7,35098.0,-0.3905,1.1734,147.6,97.9,0.483
5.1,32050.0,35007.2,0.8712,0.0902,147.6,97.9,0.483
5.12,31993.6,34987.4,-0.0992,-0.146,147.6,97.9,0.483
5.14,32034.0,34887.5,0.5958,-1.3383,147.6,97.9,0.483
5.16,31985.3,35006.5,-0.2417,0.0824,147.6,97.9,0.483
5.18,31917.2,34977.9,-1.4134,-0.2591,147.6,97.9,0.483
5.2,32015.5,34897.2,0.2783,-1.2218,147.6,97.9,0.483
5.22,31951.7,34979.5,-0.8203,-0.2405,147.6,97.9,0.483
5.24,31924.3,34964.8,-1.2915,-0.4154,147.6,97.9,0.483
5.26,31981.8,34950.1,-0.3018,-0.5917,147.6,97.9,0.483
5.28,31987.4,35065.1,-0.2049,0.7817,147.6,97.9,0.483
5.3,31970.0,34967.1,-0.506,-0.3877,147.6,97.9,0.483
5.32,32107.4,35048.8,1.8596,0.5866,147.6,97.9,0.483
5.34,32212.6,35187.2,3.6709,2.2387,147.6,97.9,0.483
5.36,32023.5,35089.1,0.4152,1.0674,147.6,97.9,0.483
5.38,31989.8,35178.0,-0.1647,2.128,147.6,97.9,0.483
5.4,32055.1,35028.9,0.9595,0.3486,147.6,97.9,0.483
5.42,32085.3,35023.0,1.4804,0.2793,147.6,97.9,0.483
5.44,32011.3,34993.1,0.2055,-0.0776,147.6,97.9,0.483
5.46,32052.3,35021.5,0.9123,0.2609,147.6,97.9,0.483
5.48,31993.5,34990.2,-0.1014,-0.113,147.6,97.9,0.483
5.5,31970.2,34950.5,-0.5015,-0.5865,147.6,97.9,0.483
5.52,32066.9,35047.4,1.1623,0.5694,147.6,97.9,0.483
5.54,32012.5,35022.6,0.2267,0.274,147.6,97.9,0.483
5.56,32020.1,34837.1,0.3581,-1.9401,147.6,97.9,0.483
5.58,31884.7,34871.8,-1.9727,-1.5256,147.6,97.9,0.483
5.6,32091.6,34919.8,1.5876,-0.9531,147.6,97.9,0.483
5.62,31939.9,34929.8,-1.0237,-0.8334,147.6,97.9,0.483
5.64,31944.9,34983.2,-0.9371,-0.1964,147.6,97.9,0.483
5.66,31936.1,35004.3,-1.0893,0.0555,147.6,97.9,0.483
5.68,32055.4,34984.5,0.9646,-0.1803,147.6,97.9,0.483
5.7,31938.5,35109.8,-1.0473,1.3151,147.6,97.9,0.483
5.72,32051.8,35102.5,0.9022,1.2274,147.6,97.9,0.483
5.74,31951.2,35205.9,-0.8296,2.4615,147.6,97.9,0.483
5.76,32006.6,35164.4,0.1257,1.9666,147.6,97.9,0.483
5.78,32045.0,35149.2,0.7857,1.785,147.6,97.9,0.483
5.8,32027.9,35013.0,0.4909,0.1598,147.6,97.9,0.483
5.82,32023.8,34976.3,0.4215,-0.2782,147.6,97.9,0.483
5.84,32072.2,35068.5,1.2542,0.8215,147.6,97.9,0.483
5.86,31938.2,35011.0,-1.0526,0.1358,147.6,97.9,0.483
5.88,32039.9,35026.9,0.6974,0.325,147.6,97.9,0.483
5.9,31965.8,34984.7,-0.5768,-0.1786,147.6,97.9,0.483
5.92,31967.8,35028.5,-0.543,0.344,147.6,97.9,0.483
5.94,31934.7,34966.8,-1.1128,-0.3914,147.6,97.9,0.483
5.96,31890.1,34996.4,-1.8806,-0.039,147.6,97.9,0.483
5.98,31913.4,35006.9,-1.4799,0.0871,147.6,97.9,0.483
6.0,31971.5,34918.4,-0.479,-0.9696,147.6,97.9,0.483
6.02,31967.0,34951.1,-0.556,-0.5796,147.6,97.9,0.483
6.04,31918.6,34891.0,-1.39,-1.296,147.6,97.9,0.483
6.06,31924.8,34998.2,-1.284,-0.017,147.6,97.9,0.483
6.08,31967.3,35046.7,-0.5518,0.5618,147.6,97.9,0.483
6.1,32025.2,35061.7,0.4447,0.7406,147.6,97.9,0.483
6.12,32076.7,34960.3,1.3318,-0.4689,147.6,97.9,0.483
6.14,32059.9,35146.5,1.0427,1.752,147.6,97.9,0.483
6.16,32150.7,35048.3,2.6057,0.5808,147.6,97.9,0.483
6.18,32052.4,35032.2,0.9127,0.3881,147.6,97.9,0.483
6.2,31943.4,35070.3,-0.9626,0.843,147.6,97.9,0.483
6.22,31974.7,35009.8,-0.4237,0.1208,147.6,97.9,0.483
6.24,31939.8,35101.4,-1.0258,1.2141,147.6,97.9,0.483
6.26,32015.5,35136.2,0.2787,1.63,147.6,97.9,0.483
6.28,32016.2,34953.0,0.2908,-0.5564,147.6,97.9,0.483
6.3,32007.3,35051.8,0.1377,0.6219,147.6,97.9,0.483
6.32,31940.7,34938.8,-1.0095,-0.7263,147.6,97.9,0.483
6.34,32031.5,35013.5,0.5544,0.1653,147.6,97.9,0.483
6.36,32000.2,34973.6,0.014,-0.3102,147.6,97.9,0.483
6.38,32021.8,34955.7,0.3862,-0.524,147.6,97.9,0.483
6.4,31974.0,34968.9,-0.4358,-0.3667,147.6,97.9,0.483
6.42,31976.0,34996.0,-0.4015,-0.0435,147.6,97.9,0.483
6.44,31976.2,34922.5,-0.3977,-0.9207,147.6,97.9,0.483
6.46,31915.1,34916.5,-1.4509,-0.9917,147.6,97.9,0.483
6.48,32061.5,34818.9,1.0708,-2.157,147.6,97.9,0.483
6.5,32008.2,34955.4,0.1527,-0.5277,147.6,97.9,0.483
6.52,31989.0,35012.3,-0.1776,0.1514,147.6,97.9,0.483
6.54,32068.2,35102.7,1.1848,1.2302,147.6,97.9,0.483
6.56,32110.7,35096.3,1.9177,1.1535,147.6,97.9,0.483
6.58,32058.3,35005.7,1.0153,0.0727,147.6,97.9,0.483
6.6,32036.4,35058.7,0.6383,0.7048,147.6,97.9,0.483
6.62,31971.3,35003.0,-0.482,0.0397,147.6,97.9,0.483
6.64,32006.9,35041.8,0.1306,0.5033,147.6,97.9,0.483
6.66,31981.9,34985.7,-0.3002,-0.1661,147.6,97.9,0.483
6.68,32019.8,35009.2,0.3529,0.1146,147.6,97.9,0.483
6.7,31960.3,34898.6,-0.6717,-1.2053,147.6,97.9,0.483
6.72,31905.7,34939.1,-1.6126,-0.7222,147.6,97.9,0.483
6.74,32021.4,34967.1,0.3791,-0.3889,147.6,97.9,0.483
6.76,31998.7,34964.5,-0.0111,-0.4195,147.6,97.9,0.483
6.78,32009.3,35009.0,0.1706,0.1117,147.6,97.9,0.483
6.8,31920.3,34999.7,-1.3601,0.0008,147.6,97.9,0.483
6.82,31990.0,34942.4,-0.1605,-0.6833,147.6,97.9,0.483
6.84,31907.4,35002.6,-1.5824,0.0349,147.6,97.9,0.483
6.86,32046.2,34966.8,0.8067,-0.3915,147.6,97.9,0.483
6.88,31911.8,35030.4,-1.5077,0.3674,147.6,97.9,0.483
6.9,31994.5,34966.1,-0.084,-0.3997,147.6,97.9,0.483
6.92,31975.3,34997.5,-0.4131,-0.0251,147.6,97.9,0.483
6.94,32079.9,35138.2,1.3862,1.6538,147.6,97.9,0.483
6.96,32014.6,35122.3,0.2622,1.4638,147.6,97.9,0.483
6.98,32052.2,35155.8,0.9097,1.8635,147.6,97.9,0.483
7.0,32090.3,35004.7,1.565,0.0608,147.6,97.9,0.483
7.02,32052.1,35083.8,0.9081,1.0038,147.6,97.9,0.483
7.04,31996.7,35046.0,-0.0457,0.5531,147.6,97.9,0.483
7.06,31995.5,34956.4,-0.0657,-0.5154,147.6,97.9,0.483
7.08,32053.4,34916.6,0.9314,-0.9905,147.6,97.9,0.483
7.1,32034.9,35035.1,0.6125,0.4233,147.6,97.9,0.483
7.12,31926.4,35047.7,-1.2554,0.5738,147.6,97.9,0.483
7.14,31989.2,34968.3,-0.1746,-0.3741,147.6,97.9,0.483
7.16,31957.1,34976.9,-0.7274,-0.2709,147.6,97.9,0.483
7.18,31928.2,35032.7,-1.2249,0.3945,147.6,97.9,0.483
7.2,31932.2,34776.0,-1.1556,-2.6682,147.6,97.9,0.483
7.22,31996.5,34852.8,-0.0489,-1.7516,147.6,97.9,0.483
7.24,31881.8,34922.3,-2.023,-0.9232,147.6,97.9,0.483
7.26,31991.2,34860.0,-0.1402,-1.6668,147.6,97.9,0.483
7.28,31857.2,35035.3,-2.4471,0.4252,147.6,97.9,0.483
7.3,31999.7,34930.4,0.0069,-0.8259,147.6,97.9,0.483
7.32,32026.5,34986.2,0.4682,-0.1599,147.6,97.9,0.483
7.34,32191.0,35076.2,3.2986,0.9136,147.6,97.9,0.483
7.36,32024.3,35098.2,0.4304,1.1759,147.6,97.9,0.483
7.38,32042.7,35095.8,0.7468,1.147,147.6,97.9,0.483
7.4,31989.9,35153.4,-0.1631,1.8346,147.6,97.9,0.483
7.42,32046.4,35045.7,0.8105,0.5501,147.6,97.9,0.483
7.44,32000.5,35077.6,0.0191,0.9299,147.6,97.9,0.483
7.46,31945.2,35013.5,-0.9313,0.1649,147.6,97.9,0.483
7.48,31951.8,35098.8,-0.8178,1.1831,147.6,97.9,0.483
7.5,31996.7,34934.4,-0.0463,-0.7786,147.6,97.9,0.483
7.52,31920.6,34937.7,-1.3553,-0.7387,147.6,97.9,0.483
7.54,31946.0,34941.6,-0.9175,-0.6926,147.6,97.9,0.483
7.56,31925.1,35041.7,-1.2778,0.5025,147.6,97.9,0.483
7.58,31889.3,34971.7,-1.8949,-0.3337,147.6,97.9,0.483
7.6,31956.2,34905.2,-0.7435,-1.1269,147.6,97.9,0.483
7.62,32027.3,34854.0,0.4805,-1.7381,147.6,97.9,0.483
7.64,31862.1,34860.6,-2.3617,-1.6595,147.6,97.9,0.483
7.66,31983.3,35013.1,-0.277,0.1607,147.6,97.9,0.483
7.68,32032.0,34856.8,0.5625,-1.7046,147.6,97.9,0.483
7.7,31898.0,35005.5,-1.7439,0.0696,147.6,97.9,0.483
7.72,32009.1,34990.5,0.1687,-0.1087,147.6,97.9,0.483
7.74,32046.0,35054.6,0.8027,0.6554,147.6,97.9,0.483
7.76,31918.0,35139.5,-1.4,1.6694,147.6,97.9,0.483
7.78,32109.3,35052.1,1.892,0.6266,147.6,97.9,0.483
7.8,32088.3,35114.8,1.5308,1.3745,147.6,97.9,0.483
7.82,32023.9,35191.3,0.4219,2.287,147.6,97.9,0.483
7.84,31973.9,35029.4,-0.4378,0.3549,147.6,97.9,0.483
7.86,31990.2,35021.6,-0.1566,0.2623,147.6,97.9,0.483
7.88,32091.8,35014.9,1.592,0.1815,147.6,97.9,0.483
7.9,31989.4,34924.0,-0.1719,-0.9021,147.6,97.9,0.483
7.92,32054.0,34996.9,0.9407,-0.0331,147.6,97.9,0.483
7.94,31960.8,35040.1,-0.6642,0.483,147.6,97.9,0.483
7.96,31985.8,35011.7,-0.2337,0.1444,147.6,97.9,0.483
7.98,31940.1,34949.7,-1.0195,-0.5954,147.6,97.9,0.483
8.0,32060.3,34821.7,1.0492,-2.1236,147.6,97.9,0.483
8.02,31957.1,34994.6,-0.7277,-0.0602,147.6,97.9,0.483
8.04,31985.0,34918.6,-0.2471,-0.9671,147.6,97.9,0.483
8.06,31893.4,34855.6,-1.8243,-1.7188,147.6,97.9,0.483
8.08,31896.6,34937.7,-1.7691,-0.7397,147.6,97.9,0.483
8.1,31986.3,34929.9,-0.2247,-0.8321,147.6,97.9,0.483
8.12,31996.0,35071.6,-0.0577,0.8587,147.6,97.9,0.483
8.14,32060.7,35013.3,1.0569,0.1627,147.6,97.9,0.483
8.16,31977.0,35152.9,-0.3853,1.8293,147.6,97.9,0.483
8.18,32024.2,35210.0,0.4286,2.5104,147.6,97.9,0.483
8.2,32048.7,35096.7,0.8502,1.1579,147.6,97.9,0.483
8.22,32037.6,35068.3,0.6578,0.8189,147.6,97.9,0.483
8.24,32062.2,35048.2,1.0822,0.5799,147.6,97.9,0.483
8.26,32029.7,35040.1,0.5227,0.4834,147.6,97.9,0.483
8.28,32030.2,34959.2,0.5304,-0.4827,147.6,97.9,0.483
8.3,32028.3,35041.4,0.4978,0.4983,147.6,97.9,0.483
8.32,32002.5,34976.0,0.0546,-0.2817,147.6,97.9,0.483
8.34,31976.6,34928.5,-0.3911,-0.8491,147.6,97.9,0.483
8.36,32056.9,34980.2,0.9914,-0.2322,147.6,97.9,0.483
8.38,31959.5,35006.4,-0.6867,0.0803,147.6,97.9,0.483
8.4,31972.0,34819.0,-0.4706,-2.1553,147.6,97.9,0.483
8.42,32034.6,34884.5,0.6068,-1.3743,147.6,97.9,0.483
8.44,31948.3,34881.6,-0.8784,-1.4081,147.6,97.9,0.483
8.46,31977.2,34923.9,-0.3811,-0.9036,147.6,97.9,0.483
8.48,31933.4,35000.7,-1.1355,0.0132,147.6,97.9,0.483
8.5,31948.6,34972.1,-0.8731,-0.3285,147.6,97.9,0.483
8.52,32005.2,34972.5,0.1011,-0.3239,147.6,97.9,0.483
8.54,32006.1,35013.7,0.1167,0.1677,147.6,97.9,0.483
8.56,32162.0,35129.8,2.7994,1.5531,147.6,97.9,0.483
8.58,32071.0,35076.4,1.2327,0.9161,147.6,97.9,0.483
8.6,32022.0,35138.6,0.3907,1.6586,147.6,97.9,0.483
8.62,32055.8,35180.3,0.9717,2.1557,147.6,97.9,0.483
8.64,32098.7,35020.8,1.7106,0.2526,147.6,97.9,0.483
8.66,32041.3,35020.9,0.723,0.2536,147.6,97.9,0.483
8.68,32072.8,35038.3,1.2648,0.4609,147.6,97.9,0.483
8.7,31995.0,35000.2,-0.0753,0.007,147.6,97.9,0.483
8.72,32059.2,34940.0,1.0311,-0.7118,147.6,97.9,0.483
8.74,31958.1,35007.5,-0.7103,0.0933,147.6,97.9,0.483
8.76,31986.8,34978.5,-0.2162,-0.2518,147.6,97.9,0.483
8.78,31930.8,34903.8,-1.1799,-1.1442,147.6,97.9,0.483
8.8,31902.8,34949.0,-1.6612,-0.604,147.6,97.9,0.483
8.82,32004.2,34862.9,0.0836,-1.6315,147.6,97.9,0.483
8.84,31894.8,34908.4,-1.7993,-1.0892,147.6,97.9,0.483
8.86,31984.4,34872.9,-0.2572,-1.5127,147.6,97.9,0.483
8.88,31918.3,34955.1,-1.3949,-0.5316,147.6,97.9,0.483
8.9,32027.7,34898.5,0.4889,-1.2063,147.6,97.9,0.483
8.92,31964.6,35014.0,-0.5979,0.1717,147.6,97.9,0.483
8.94,32034.4,35002.4,0.603,0.0326,147.6,97.9,0.483
8.96,32069.5,35119.9,1.2076,1.4355,147.6,97.9,0.483
8.98,32076.4,35227.6,1.3258,2.7203,147.6,97.9,0.483
9.0,32075.5,35102.1,1.3118,1.2223,147.6,97.9,0.483
9.02,31968.9,35142.9,-0.5243,1.7091,147.6,97.9,0.483
9.04,31966.0,35069.8,-0.5743,0.8374,147.6,97.9,0.483
9.06,31944.0,35097.1,-0.9526,1.1631,147.6,97.9,0.483
9.08,32026.3,35018.8,0.4639,0.2286,147.6,97.9,0.483
9.1,31991.3,34975.3,-0.139,-0.2901,147.6,97.9,0.483
9.12,31934.7,34970.5,-1.113,-0.3481,147.6,97.9,0.483
9.14,32044.7,34939.0,0.7808,-0.7234,147.6,97.9,0.483
9.16,31975.4,35001.0,-0.4128,0.0167,147.6,97.9,0.483
9.18,31962.2,35054.4,-0.6394,0.653,147.6,97.9,0.483
9.2,32070.9,35000.1,1.2318,0.0056,147.6,97.9,0.483
9.22,31924.6,34961.7,-1.2868,-0.4526,147.6,97.9,0.483
9.24,32029.6,34834.8,0.52,-1.9673,147.6,97.9,0.483
9.26,31999.9,34878.9,0.0089,-1.4405,147.6,97.9,0.483
9.28,32035.5,34915.0,0.6227,-1.0105,147.6,97.9,0.483
9.3,31850.7,34847.7,-2.559,-1.813,147.6,97.9,0.483
9.32,31981.1,34875.6,-0.3138,-1.4799,147.6,97.9,0.483
9.34,32014.6,34988.3,0.2625,-0.1358,147.6,97.9,0.483
9.36,32075.4,35083.3,1.3086,0.9988,147.6,97.9,0.483
9.38,31994.3,35092.3,-0.0866,1.1062,147.6,97.9,0.483
9.4,32118.3,35059.9,2.0474,0.7195,147.6,97.9,0.483
9.42,32114.3,35046.7,1.9784,0.5616,147.6,97.9,0.483
9.44,32060.7,35116.4,1.0569,1.3927,147.6,97.9,0.483
9.46,32111.9,35150.4,1.9372,1.7986,147.6,97.9,0.483
9.48,31984.8,35004.7,-0.2501,0.0606,147.6,97.9,0.483
9.5,31992.1,34967.0,-0.124,-0.3893,147.6,97.9,0.483
9.52,31960.9,34973.5,-0.6609,-0.3117,147.6,97.9,0.483
9.54,32022.1,34939.4,0.392,-0.719,147.6,97.9,0.483
9.56,31991.0,34977.3,-0.1445,-0.2662,147.6,97.9,0.483
9.58,31973.4,34948.5,-0.4459,-0.6102,147.6,97.9,0.483
9.6,31954.1,34931.0,-0.7787,-0.8192,147.6,97.9,0.483
9.62,31884.5,34968.1,-1.9773,-0.3762,147.6,97.9,0.483
9.64,32007.2,34971.9,0.135,-0.3309,147.6,97.9,0.483
9.66,31952.8,34872.2,-0.8014,-1.521,147.6,97.9,0.483
9.68,31931.1,34879.6,-1.174,-1.4323,147.6,97.9,0.483
9.7,31960.3,34994.6,-0.6721,-0.0601,147.6,97.9,0.483
9.72,31953.2,34996.4,-0.7949,-0.0384,147.6,97.9,0.483
9.74,32004.6,34912.2,0.0911,-1.0439,147.6,97.9,0.483
9.76,32024.7,35058.8,0.4364,0.7056,147.6,97.9,0.483
9.78,32146.5,35116.0,2.5327,1.389,147.6,97.9,0.483
9.8,32054.5,35141.2,0.9497,1.6891,147.6,97.9,0.483
9.82,32068.0,35142.7,1.1812,1.7072,147.6,97.9,0.483
9.84,32016.0,35060.4,0.2869,0.7252,147.6,97.9,0.483
9.86,32150.6,35147.3,2.6033,1.7622,147.6,97.9,0.483
9.88,32028.4,35124.5,0.5007,1.4899,147.6,97.9,0.483
9.9,32048.2,35025.7,0.8413,0.3108,147.6,97.9,0.483
9.92,32010.5,35003.8,0.1923,0.0496,147.6,97.9,0.483
9.94,32004.4,35079.3,0.0877,0.9511,147.6,97.9,0.483
9.96,31985.2,34966.1,-0.2437,-0.4002,147.6,97.9,0.483
9.98,32045.8,34970.5,0.7999,-0.3478,147.6,97.9,0.483
10.0,32020.1,34943.8,0.3569,-0.6665,147.6,97.9,0.483
10.02,31921.0,35020.0,-1.3489,0.2431,147.6,97.9,0.483
10.04,32045.5,34913.0,0.7945,-1.0342,147.6,97.9,0.483
10.06,31932.2,34941.1,-1.1562,-0.6985,147.6,97.9,0.483
10.08,32002.6,34883.0,0.056,-1.3921,147.6,97.9,0.483
10.1,31919.8,34827.8,-1.3696,-2.0506,147.6,97.9,0.483
10.12,31891.4,34881.5,-1.8588,-1.4094,147.6,97.9,0.483
10.14,32051.6,35015.6,0.8993,0.1907,147.6,97.9,0.483
10.16,31965.7,35000.0,-0.5792,0.0046,147.6,97.9,0.483
10.18,31976.0,35061.2,-0.4024,0.7341,147.6,97.9,0.483
10.2,32133.8,35080.6,2.3144,0.9662,147.6,97.9,0.483
10.22,31941.1,35081.1,-1.003,0.9727,147.6,97.9,0.483
10.24,32108.8,35106.1,1.8846,1.2708,147.6,97.9,0.483
10.26,32097.9,35042.7,1.6971,0.5133,147.6,97.9,0.483
10.28,31973.5,35053.1,-0.4452,0.6378,147.6,97.9,0.483
10.3,31918.1,34953.7,-1.3984,-0.5485,147.6,97.9,0.483
10.32,32054.8,35102.6,0.955,1.2281,147.6,97.9,0.483
10.34,31969.7,34997.9,-0.5108,-0.0205,147.6,97.9,0.483
10.36,31990.0,34975.7,-0.1601,-0.2854,147.6,97.9,0.483
10.38,31985.5,34924.2,-0.2391,-0.8998,147.6,97.9,0.483
10.4,31926.0,34844.5,-1.2631,-1.8515,147.6,97.9,0.483
10.42,31997.2,34973.8,-0.0377,-0.3078,147.6,97.9,0.483
10.44,31967.2,35034.9,-0.5534,0.4212,147.6,97.9,0.483
10.46,32052.7,34974.6,0.9191,-0.299,147.6,97.9,0.483
10.48,31958.9,34940.1,-0.6969,-0.7102,147.6,97.9,0.483
10.5,32082.4,34873.3,1.4305,-1.5078,147.6,97.9,0.483
10.52,31976.5,34938.7,-0.3933,-0.7268,147.6,97.9,0.483
10.54,32006.5,34940.9,0.1225,-0.7003,147.6,97.9,0.483
10.56,31952.9,34959.3,-0.7989,-0.481,147.6,97.9,0.483
10.58,32045.7,35053.7,0.7981,0.6457,147.6,97.9,0.483
10.6,32013.9,35000.0,0.25,0.0043,147.6,97.9,0.483
10.62,32112.6,35173.0,1.9501,2.0683,147.6,97.9,0.483
10.64,32028.9,35115.8,0.5087,1.3865,147.6,97.9,0.483
10.66,32029.7,35100.6,0.5226,1.2051,147.6,97.9,0.483
10.68,32017.6,34986.2,0.314,-0.1607,147.6,97.9,0.483
10.7,32026.1,35031.6,0.4611,0.3809,147.6,97.9,0.483
10.72,32017.3,35027.5,0.3087,0.3323,147.6,97.9,0.483
10.74,32030.9,35022.0,0.5432,0.2671,147.6,97.9,0.483
10.76,32014.1,34955.1,0.2547,-0.5315,147.6,97.9,0.483
10.78,32044.6,34942.4,0.779,-0.6835,147.6,97.9,0.483
10.8,31981.1,35044.9,-0.3136,0.5398,147.6,97.9,0.483
10.82,32029.4,34994.4,0.5176,-0.0627,147.6,97.9,0.483
10.84,31968.4,34995.3,-0.532,-0.0514,147.6,97.9,0.483
10.86,32040.4,34932.5,0.7076,-0.8008,147.6,97.9,0.483
10.88,31875.0,34907.1,-2.1405,-1.1048,147.6,97.9,0.483
10.9,31996.8,34977.8,-0.0445,-0.2604,147.6,97.9,0.483
10.92,31914.9,34959.3,-1.4543,-0.4812,147.6,97.9,0.483
10.94,31994.5,35029.1,-0.0839,0.3518,147.6,97.9,0.483
10.96,31969.3,34988.1,-0.5164,-0.1374,147.6,97.9,0.483
10.98,31938.9,34977.7,-1.0404,-0.2618,147.6,97.9,0.483
11.0,32076.5,35142.5,1.3288,1.7049,147.6,97.9,0.483
11.02,32003.0,35112.2,0.0627,1.3432,147.6,97.9,0.483
11.04,32074.6,35216.2,1.2958,2.5844,147.6,97.9,0.483
11.06,31973.2,35025.2,-0.4503,0.3053,147.6,97.9,0.483
11.08,31987.5,35048.9,-0.2043,0.5874,147.6,97.9,0.483
11.1,32038.3,35042.1,0.6698,0.5072,147.6,97.9,0.483
11.12,31990.9,34996.5,-0.1458,-0.037,147.6,97.9,0.483
11.14,31985.0,35087.7,-0.2467,1.0513,147.6,97.9,0.483
11.16,31981.8,34970.3,-0.3026,-0.3507,147.6,97.9,0.483
11.18,32033.6,34942.1,0.5892,-0.6871,147.6,97.9,0.483
11.2,32011.3,34914.0,0.2061,-1.0216,147.6,97.9,0.483
11.22,31984.4,34913.6,-0.2575,-1.0268,147.6,97.9,0.483
11.24,31887.1,34930.1,-1.9327,-0.8292,147.6,97.9,0.483
11.26,32118.4,34955.7,2.0495,-0.5238,147.6,97.9,0.483
11.28,31876.7,34956.3,-2.1105,-0.5176,147.6,97.9,0.483
11.3,31955.6,34982.0,-0.7538,-0.2103,147.6,97.9,0.483
11.32,32051.4,34885.0,0.8968,-1.368,147.6,97.9,0.483
11.34,31957.6,34880.2,-0.7183,-1.4249,147.6,97.9,0.483
11.36,31994.3,34842.8,-0.0861,-1.8709,147.6,97.9,0.483
11.38,32056.8,34968.1,0.989,-0.3761,147.6,97.9,0.483
11.4,32042.9,35087.4,0.7503,1.0471,147.6,97.9,0.483
11.42,32020.9,35008.4,0.3706,0.1049,147.6,97.9,0.483
11.44,32014.8,35127.9,0.2663,1.5311,147.6,97.9,0.483
11.46,32053.0,35108.9,0.9236,1.3035,147.6,97.9,0.483
11.48,32040.2,35090.5,0.7035,1.0842,147.6,97.9,0.483
11.5,32051.2,35083.5,0.8933,1.0002,147.6,97.9,0.483
11.52,32022.2,35054.4,0.3938,0.6535,147.6,97.9,0.483
11.54,31991.1,34951.8,-0.1421,-0.5707,147.6,97.9,0.483
11.56,31998.1,34998.7,-0.0221,-0.0112,147.6,97.9,0.483
11.58,32037.3,34998.7,0.6528,-0.0106,147.6,97.9,0.483
11.6,32046.6,35040.2,0.8142,0.4842,147.6,97.9,0.483
11.62,31995.9,34918.1,-0.059,-0.9726,147.6,97.9,0.483
11.64,32005.3,34911.7,0.1024,-1.0488,147.6,97.9,0.483
11.66,32052.3,34933.0,0.9115,-0.7957,147.6,97.9,0.483
11.68,31960.8,35031.0,-0.6634,0.3745,147.6,97.9,0.483
11.7,31948.5,35037.5,-0.8749,0.4512,147.6,97.9,0.483
11.72,31922.6,34927.1,-1.3208,-0.8651,147.6,97.9,0.483
11.74,31896.3,34946.4,-1.7733,-0.6352,147.6,97.9,0.483
11.76,32027.8,35015.1,0.4904,0.1845,147.6,97.9,0.483
11.78,32051.1,35049.2,0.8911,0.5917,147.6,97.9,0.483
11.8,32119.4,35102.0,2.066,1.2217,147.6,97.9,0.483
11.82,32000.6,35089.4,0.0217,1.0717,147.6,97.9,0.483
11.84,32058.6,35146.1,1.0198,1.7481,147.6,97.9,0.483
11.86,32143.3,35164.5,2.4778,1.9678,147.6,97.9,0.483
11.88,32112.2,35042.8,1.943,0.5149,147.6,97.9,0.483
11.9,32084.0,35031.9,1.4567,0.3844,147.6,97.9,0.483
11.92,32031.5,34974.6,0.5537,-0.2987,147.6,97.9,0.483
11.94,32062.4,35046.3,1.0849,0.5571,147.6,97.9,0.483
11.96,32050.8,35043.6,0.885,0.5242,147.6,97.9,0.483
11.98,32066.4,35005.3,1.1549,0.0678,147.6,97.9,0.483
12.0,32070.4,34972.0,1.2238,-0.3303,147.6,97.9,0.483
12.02,31907.2,34882.6,-1.5865,-1.3963,147.6,97.9,0.483
12.04,32024.3,34977.0,0.43,-0.2704,147.6,97.9,0.483
12.06,31967.8,34961.1,-0.5422,-0.4598,147.6,97.9,0.483
12.08,32053.5,34976.9,0.9321,-0.2711,147.6,97.9,0.483
12.1,32029.0,34939.3,0.5112,-0.7196,147.6,97.9,0.483
12.12,31952.9,34944.7,-0.8002,-0.6555,147.6,97.9,0.483
12.14,31941.2,34859.5,-1.0004,-1.6721,147.6,97.9,0.483
12.16,32006.5,34868.2,0.1227,-1.5686,147.6,97.9,0.483
12.18,31879.1,35053.4,-2.0707,0.6413,147.6,97.9,0.483
12.2,32096.0,35093.8,1.6646,1.1237,147.6,97.9,0.483
12.22,32038.1,35094.6,0.6665,1.1336,147.6,97.9,0.483
12.24,32115.4,35121.9,1.9974,1.4584,147.6,97.9,0.483
12.26,32083.8,35110.3,1.4534,1.3203,147.6,97.9,0.483
12.28,31933.0,35099.0,-1.1417,1.1853,147.6,97.9,0.483
12.3,32077.7,35115.7,1.3496,1.3854,147.6,97.9,0.483
12.32,32061.6,35017.1,1.0709,0.2087,147.6,97.9,0.483
12.34,31991.7,34997.4,-0.1314,-0.0273,147.6,97.9,0.483
12.36,31952.3,35056.6,-0.8102,0.6797,147.6,97.9,0.483
12.38,31946.3,34987.2,-0.9133,-0.148,147.6,97.9,0.483
12.4,31926.9,35027.0,-1.2463,0.3268,147.6,97.9,0.483
12.42,31970.9,34949.9,-0.4895,-0.5935,147.6,97.9,0.483
12.44,31972.2,34922.1,-0.4675,-0.9254,147.6,97.9,0.483
12.46,31916.1,34968.7,-1.4331,-0.3687,147.6,97.9,0.483
12.48,32009.1,35057.7,0.1676,0.6929,147.6,97.9,0.483
12.5,31965.8,34873.6,-0.5775,-1.5044,147.6,97.9,0.483
12.52,31976.6,34920.6,-0.3906,-0.9426,147.6,97.9,0.483
12.54,31899.5,34941.8,-1.7195,-0.6901,147.6,97.9,0.483
12.56,32032.8,34880.8,0.576,-1.4178,147.6,97.9,0.483
12.58,31934.9,35014.5,-1.1094,0.1778,147.6,97.9,0.483
12.6,32040.4,34985.6,0.7074,-0.168,147.6,97.9,0.483
12.62,31996.5,34998.0,-0.0483,-0.0198,147.6,97.9,0.483
12.64,31956.2,35097.5,-0.7424,1.1673,147.6,97.9,0.483
12.66,32024.6,35150.8,0.4347,1.8041,147.6,97.9,0.483
12.68,31999.9,35073.8,0.0091,0.8844,147.6,97.9,0.483
12.7,32020.9,35049.5,0.3709,0.5953,147.6,97.9,0.483
12.72,32043.1,34996.2,0.7541,-0.0412,147.6,97.9,0.483
12.74,32063.8,35043.4,1.11,0.5226,147.6,97.9,0.483
12.76,31998.0,35143.5,-0.023,1.7166,147.6,97.9,0.483
12.78,32020.9,35110.6,0.3708,1.3239,147.6,97.9,0.483
12.8,32062.9,34925.9,1.0938,-0.8796,147.6,97.9,0.483
12.82,31877.3,35000.2,-2.1017,0.0067,147.6,97.9,0.483
12.84,31904.4,34923.9,-1.6336,-0.9038,147.6,97.9,0.483
12.86,32019.0,35023.5,0.3381,0.2849,147.6,97.9,0.483
12.88,31983.9,34961.2,-0.2663,-0.4585,147.6,97.9,0.483
12.9,31945.8,34948.7,-0.9217,-0.6079,147.6,97.9,0.483
12.92,32022.5,34973.0,0.3989,-0.3182,147.6,97.9,0.483
12.94,31951.6,34928.6,-0.8225,-0.8483,147.6,97.9,0.483
12.96,31918.2,34879.8,-1.3973,-1.4305,147.6,97.9,0.483
12.98,31960.9,34928.7,-0.6619,-0.8466,147.6,97.9,0.483
13.0,32051.8,34936.4,0.9031,-0.7542,147.6,97.9,0.483
13.02,31987.2,35059.5,-0.2096,0.7141,147.6,97.9,0.483
13.04,32077.2,35139.6,1.3396,1.6704,147.6,97.9,0.483
13.06,32073.3,35140.5,1.2728,1.6809,147.6,97.9,0.483
13.08,31984.0,35057.9,-0.2641,0.6949,147.6,97.9,0.483
13.1,32104.8,35044.4,1.8149,0.5342,147.6,97.9,0.483
13.12,32057.6,34972.9,1.003,-0.3194,147.6,97.9,0.483
13.14,32034.0,34973.0,0.597,-0.3182,147.6,97.9,0.483
13.16,32099.2,34963.2,1.7192,-0.4348,147.6,97.9,0.483
13.18,31995.4,34951.8,-0.0678,-0.5709,147.6,97.9,0.483
13.2,31990.0,35039.1,-0.1601,0.4705,147.6,97.9,0.483
13.22,32076.8,34987.5,1.3334,-0.1454,147.6,97.9,0.483
13.24,32021.2,34869.5,0.3758,-1.5524,147.6,97.9,0.483
13.26,32047.0,34956.3,0.8197,-0.5168,147.6,97.9,0.483
13.28,32075.9,34886.3,1.3171,-1.3528,147.6,97.9,0.483
13.3,31939.2,35002.7,-1.0358,0.0366,147.6,97.9,0.483
13.32,31943.5,34919.5,-0.961,-0.9564,147.6,97.9,0.483
13.34,31991.5,34939.0,-0.1357,-0.7236,147.6,97.9,0.483
13.36,31965.5,34904.8,-0.583,-1.1312,147.6,97.9,0.483
13.38,31958.9,34880.4,-0.6956,-1.4224,147.6,97.9,0.483
13.4,31967.4,34937.9,-0.5501,-0.7364,147.6,97.9,0.483
13.42,32004.5,35017.5,0.0894,0.213,147.6,97.9,0.483
13.44,32104.8,35096.7,1.8153,1.1584,147.6,97.9,0.483
13.46,32026.4,35148.3,0.4651,1.7742,147.6,97.9,0.483
13.48,32072.0,35135.8,1.2504,1.6248,147.6,97.9,0.483
13.5,32003.3,35047.4,0.0684,0.57,147.6,97.9,0.483
13.52,32079.8,35144.2,1.3851,1.7247,147.6,97.9,0.483
13.54,32058.7,34945.8,1.0213,-0.6419,147.6,97.9,0.483
13.56,31949.0,34950.0,-0.867,-0.5923,147.6,97.9,0.483
13.58,31914.7,34999.6,-1.4574,-0.0007,147.6,97.9,0.483
13.6,32045.5,35043.9,0.7944,0.5284,147.6,97.9,0.483
13.62,32071.2,34831.3,1.2367,-2.0088,147.6,97.9,0.483
13.64,32000.2,34963.4,0.014,-0.4326,147.6,97.9,0.483
13.66,32068.9,34966.4,1.1978,-0.3964,147.6,97.9,0.483
13.68,31970.3,34938.8,-0.4998,-0.7261,147.6,97.9,0.483
13.7,32023.9,34924.0,0.4223,-0.902,147.6,97.9,0.483
13.72,32033.6,35006.3,0.5892,0.0792,147.6,97.9,0.483
13.74,31844.4,34892.2,-2.667,-1.2824,147.6,97.9,0.483
13.76,31999.6,34917.6,0.0048,-0.9795,147.6,97.9,0.483
13.78,31865.6,34899.6,-2.3028,-1.1934,147.6,97.9,0.483
13.8,31948.4,34839.4,-0.8775,-1.9123,147.6,97.9,0.483
13.82,32062.0,35057.7,1.0781,0.6927,147.6,97.9,0.483
13.84,32083.4,35116.2,1.4465,1.3909,147.6,97.9,0.483
13.86,32045.1,35090.7,0.7875,1.0868,147.6,97.9,0.483
13.88,32027.9,35123.0,0.4924,1.4726,147.6,97.9,0.483
13.9,31959.0,35077.2,-0.6952,0.9255,147.6,97.9,0.483
13.92,32080.0,35096.9,1.388,1.1602,147.6,97.9,0.483
13.94,32019.2,34971.4,0.3427,-0.3369,147.6,97.9,0.483
13.96,31950.3,35088.2,-0.8441,1.0568,147.6,97.9,0.483
13.98,31983.2,34992.4,-0.2777,-0.0866,147.6,97.9,0.483
14.0,32004.6,34939.1,0.0898,-0.7223,147.6,97.9,0.483
14.02,32020.1,34908.0,0.3566,-1.094,147.6,97.9,0.483
14.04,32011.0,34905.4,0.1999,-1.125,147.6,97.9,0.483
14.06,31906.7,34925.1,-1.5955,-0.89,147.6,97.9,0.483
14.08,31999.9,34976.1,0.01,-0.2805,147.6,97.9,0.483
14.1,31988.3,34932.3,-0.1897,-0.803,147.6,97.9,0.483
14.12,32039.8,34970.2,0.6965,-0.3515,147.6,97.9,0.483
14.14,31972.1,34883.8,-0.4688,-1.3824,147.6,97.9,0.483
14.16,32023.0,34938.5,0.4073,-0.7301,147.6,97.9,0.483
14.18,32001.2,34953.5,0.0324,-0.5508,147.6,97.9,0.483
14.2,32008.6,34895.5,0.1587,-1.243,147.6,97.9,0.483
14.22,32038.9,35029.5,0.6812,0.3566,147.6,97.9,0.483
14.24,32072.1,35076.6,1.2518,0.9182,147.6,97.9,0.483
14.26,31947.6,35149.8,-0.8901,1.7923,147.6,97.9,0.483
14.28,32059.8,35179.8,1.0406,2.15,147.6,97.9,0.483
14.3,32016.4,35197.1,0.2935,2.3559,147.6,97.9,0.483
14.32,32073.7,35116.1,1.28,1.3893,147.6,97.9,0.483
14.34,31952.8,35061.3,-0.8016,0.7361,147.6,97.9,0.483
14.36,32013.7,35069.8,0.2473,0.8372,147.6,97.9,0.483
14.38,32007.5,35018.3,0.1405,0.2222,147.6,97.9,0.483
14.4,32052.0,35076.8,0.9062,0.9207,147.6,97.9,0.483
14.42,32026.6,34997.7,0.4699,-0.0232,147.6,97.9,0.483
14.44,31966.6,34987.8,-0.5638,-0.1418,147.6,97.9,0.483
14.46,31931.1,34987.2,-1.1748,-0.1482,147.6,97.9,0.483
14.48,31995.1,34970.3,-0.0739,-0.3504,147.6,97.9,0.483
14.5,31944.0,34873.6,-0.9523,-1.5035,147.6,97.9,0.483
14.52,31990.0,34920.8,-0.1613,-0.9402,147.6,97.9,0.483
14.54,32005.4,34920.1,0.1038,-0.9485,147.6,97.9,0.483
14.56,31991.5,34874.7,-0.1343,-1.4904,147.6,97.9,0.483
14.58,31989.5,34914.4,-0.169,-1.0173,147.6,97.9,0.483
14.6,31903.1,34960.3,-1.6563,-0.4689,147.6,97.9,0.483
14.62,32015.0,34990.5,0.2689,-0.1094,147.6,97.9,0.483
14.64,32014.5,35050.9,0.261,0.6113,147.6,97.9,0.483
14.66,31973.7,35102.6,-0.4406,1.2287,147.6,97.9,0.483
14.68,32097.8,35123.2,1.6953,1.4747,147.6,97.9,0.483
14.7,32038.8,35111.0,0.6792,1.3285,147.6,97.9,0.483
14.72,32091.1,35119.1,1.5788,1.4251,147.6,97.9,0.483
14.74,32053.7,35051.5,0.9353,0.6189,147.6,97.9,0.483
14.76,31974.3,34985.6,-0.4312,-0.167,147.6,97.9,0.483
14.78,32058.3,34981.1,1.0152,-0.2218,147.6,97.9,0.483
14.8,32012.3,35038.5,0.2226,0.4633,147.6,97.9,0.483
14.82,32033.1,34992.2,0.5815,-0.0884,147.6,97.9,0.483
14.84,31998.1,35004.2,-0.0209,0.0547,147.6,97.9,0.483
14.86,32026.3,34948.1,0.4645,-0.6152,147.6,97.9,0.483
14.88,32097.9,34921.8,1.6961,-0.9283,147.6,97.9,0.483
14.9,31946.4,34936.4,-0.9106,-0.7545,147.6,97.9,0.483
14.92,32024.3,34945.7,0.4297,-0.6442,147.6,97.9,0.483
14.94,31954.3,34957.0,-0.7758,-0.5089,147.6,97.9,0.483
14.96,31923.5,34877.7,-1.3048,-1.4549,147.6,97.9,0.483
14.98,32005.6,34869.1,0.1083,-1.5575,147.6,97.9,0.483
15.0,31938.2,34921.8,-1.0523,-0.9287,147.6,97.9,0.483
15.02,32052.0,35009.2,0.9062,0.1138,147.6,97.9,0.483
15.04,31999.0,35029.5,-0.006,0.3558,147.6,97.9,0.483
15.06,31954.7,35157.0,-0.7682,1.8781,147.6,97.9,0.483
15.08,32056.1,35084.5,0.9774,1.0127,147.6,97.9,0.483
15.1,31988.6,35090.6,-0.1852,1.0851,147.6,97.9,0.483
15.12,32038.6,35110.2,0.6763,1.3197,147.6,97.9,0.483
15.14,31984.4,35124.9,-0.2566,1.4944,147.6,97.9,0.483
15.16,32013.2,35078.0,0.2391,0.9348,147.6,97.9,0.483
15.18,32093.5,35123.7,1.6205,1.4809,147.6,97.9,0.483
15.2,32071.2,34986.8,1.2365,-0.1529,147.6,97.9,0.483
15.22,31970.0,34998.9,-0.5046,-0.0093,147.6,97.9,0.483
15.24,31870.2,35042.2,-2.2229,0.5083,147.6,97.9,0.483
15.26,31985.0,34982.2,-0.2473,-0.2084,147.6,97.9,0.483
15.28,31962.2,34964.8,-0.6394,-0.4156,147.6,97.9,0.483
15.3,32022.6,35048.7,0.3999,0.5855,147.6,97.9,0.483
15.32,31966.1,35053.5,-0.5716,0.6427,147.6,97.9,0.483
15.34,31915.8,34924.6,-1.4383,-0.8954,147.6,97.9,0.483
15.36,32119.1,34934.4,2.0611,-0.7781,147.6,97.9,0.483
15.38,31927.3,34842.4,-1.2394,-1.8762,147.6,97.9,0.483
15.4,31995.3,34852.5,-0.0699,-1.7561,147.6,97.9,0.483
15.42,31978.9,34926.0,-0.3514,-0.8791,147.6,97.9,0.483
15.44,32033.5,34995.0,0.5888,-0.0553,147.6,97.9,0.483
15.46,32025.7,35096.3,0.4535,1.154,147.6,97.9,0.483
15.48,32009.7,35190.7,0.1775,2.2803,147.6,97.9,0.483
15.5,32020.3,35141.4,0.361,1.6921,147.6,97.9,0.483
15.52,31977.9,35125.9,-0.3693,1.5064,147.6,97.9,0.483
15.54,32101.3,35036.7,1.7553,0.4426,147.6,97.9,0.483
15.56,32086.9,35038.8,1.507,0.4667,147.6,97.9,0.483
15.58,32091.7,35053.7,1.5904,0.6454,147.6,97.9,0.483
15.6,31996.1,35076.5,-0.0554,0.9174,147.6,97.9,0.483
15.62,31902.6,35017.3,-1.6657,0.2102,147.6,97.9,0.483
15.64,32056.3,35046.0,0.9804,0.5533,147.6,97.9,0.483
15.66,32050.5,34902.5,0.8807,-1.1586,147.6,97.9,0.483
15.68,31986.9,34983.6,-0.215,-0.1918,147.6,97.9,0.483
15.7,32034.0,35012.1,0.5969,0.1491,147.6,97.9,0.483
15.72,32025.1,34970.6,0.4434,-0.3464,147.6,97.9,0.483
15.74,31875.5,34936.1,-2.1321,-0.7582,147.6,97.9,0.483
15.76,31902.2,34908.5,-1.6716,-1.0881,147.6,97.9,0.483
15.78,31990.4,34881.5,-0.1532,-1.4099,147.6,97.9,0.483
15.8,31912.2,34865.5,-1.5003,-1.6011,147.6,97.9,0.483
15.82,31955.4,34942.2,-0.756,-0.6853,147.6,97.9,0.483
15.84,32044.4,34924.8,0.775,-0.8927,147.6,97.9,0.483
15.86,32021.0,34955.7,0.372,-0.5244,147.6,97.9,0.483
15.88,32045.2,35154.1,0.7902,1.8433,147.6,97.9,0.483
15.9,32006.9,35157.7,0.1304,1.8862,147.6,97.9,0.483
15.92,32114.3,35190.2,1.9783,2.2737,147.6,97.9,0.483
15.94,32048.8,35066.6,0.8506,0.7991,147.6,97.9,0.483
15.96,32072.2,35064.6,1.2547,0.775,147.6,97.9,0.483
15.98,31998.8,34968.1,-0.0093,-0.3758,147.6,97.9,0.483
16.0,31927.5,35013.9,-1.2364,0.17,147.6,97.9,0.483
16.02,31961.5,35019.7,-0.6508,0.2393,147.6,97.9,0.483
16.04,31962.4,34957.2,-0.6363,-0.5068,147.6,97.9,0.483
16.06,31982.0,35017.3,-0.2981,0.2112,147.6,97.9,0.483
16.08,32021.0,35019.0,0.3736,0.2316,147.6,97.9,0.483
16.1,31975.7,34917.3,-0.4073,-0.9824,147.6,97.9,0.483
16.12,32075.8,34939.1,1.3155,-0.7222,147.6,97.9,0.483
16.14,31992.2,34975.3,-0.1225,-0.29,147.6,97.9,0.483
16.16,31913.6,34883.0,-1.4753,-1.3913,147.6,97.9,0.483
16.18,31949.9,34942.4,-0.8509,-0.6835,147.6,97.9,0.483
16.2,31949.9,34936.3,-0.8512,-0.7555,147.6,97.9,0.483
16.22,31981.5,34915.8,-0.3067,-1.0003,147.6,97.9,0.483
16.24,31990.5,34930.2,-0.153,-0.8283,147.6,97.9,0.483
16.26,32105.6,34987.3,1.8298,-0.1475,147.6,97.9,0.483
16.28,32083.0,34993.8,1.4392,-0.0696,147.6,97.9,0.483
16.3,32016.8,35115.2,0.3012,1.3789,147.6,97.9,0.483
16.32,32111.8,35192.7,1.9358,2.3035,147.6,97.9,0.483
16.34,32131.1,35158.2,2.2677,1.8916,147.6,97.9,0.483
16.36,32061.4,35003.6,1.0686,0.0474,147.6,97.9,0.483
16.38,31974.9,35063.9,-0.4215,0.7662,147.6,97.9,0.483
16.4,32005.1,35053.2,0.0984,0.6392,147.6,97.9,0.483
16.42,31981.9,35077.0,-0.2997,0.9236,147.6,97.9,0.483
16.44,32012.3,34973.1,0.2226,-0.3168,147.6,97.9,0.483
16.46,31905.5,34980.6,-1.6146,-0.227,147.6,97.9,0.483
16.48,31938.2,34987.6,-1.0525,-0.1441,147.6,97.9,0.483
16.5,31997.5,34936.1,-0.0313,-0.7585,147.6,97.9,0.483
16.52,31916.8,34914.6,-1.4216,-1.0144,147.6,97.9,0.483
16.54,32058.6,34930.5,1.0197,-0.8252,147.6,97.9,0.483
16.56,31986.0,34943.9,-0.23,-0.6652,147.6,97.9,0.483
16.58,31982.2,34907.6,-0.2944,-1.098,147.6,97.9,0.483
16.6,32001.9,34924.7,0.0447,-0.8939,147.6,97.9,0.483
16.62,31923.8,34957.5,-1.3003,-0.5032,147.6,97.9,0.483
16.64,31965.7,35005.6,-0.5784,0.071,147.6,97.9,0.483
16.66,31973.9,34974.1,-0.4381,-0.3053,147.6,97.9,0.483
16.68,31947.7,35090.6,-0.8884,1.085,147.6,97.9,0.483
16.7,32053.4,35080.5,0.9303,0.9644,147.6,97.9,0.483
16.72,32088.5,35101.2,1.5356,1.2118,147.6,97.9,0.483
16.74,31900.9,35123.0,-1.6949,1.472,147.6,97.9,0.483
16.76,31977.1,35084.4,-0.3835,1.0115,147.6,97.9,0.483
16.78,32051.9,35038.4,0.905,0.463,147.6,97.9,0.483
16.8,32099.0,35061.9,1.7151,0.7435,147.6,97.9,0.483
16.82,32031.8,35013.1,0.558,0.1602,147.6,97.9,0.483
16.84,32075.0,35073.2,1.3017,0.8777,147.6,97.9,0.483
16.86,31878.0,35034.6,-2.0893,0.417,147.6,97.9,0.483
16.88,32007.7,35048.2,0.1442,0.58,147.6,97.9,0.483
16.9,32005.0,34931.7,0.0978,-0.8105,147.6,97.9,0.483
16.92,31871.3,34867.0,-2.204,-1.5831,147.6,97.9,0.483
16.94,31891.7,34972.5,-1.8531,-0.3242,147.6,97.9,0.483
16.96,32001.9,34915.3,0.0442,-1.006,147.6,97.9,0.483
16.98,31982.4,34930.4,-0.2923,-0.8264,147.6,97.9,0.483
17.0,32039.5,34867.0,0.6917,-1.5827,147.6,97.9,0.483
17.02,31949.3,34929.6,-0.8611,-0.8356,147.6,97.9,0.483
17.04,31968.4,34894.4,-0.5322,-1.2555,147.6,97.9,0.483
17.06,32054.9,35009.8,0.9566,0.1218,147.6,97.9,0.483
17.08,32057.3,35071.3,0.9978,0.855,147.6,97.9,0.483
17.1,32031.4,34980.9,0.5511,-0.2239,147.6,97.9,0.483
17.12,32038.9,35125.8,0.6814,1.5051,147.6,97.9,0.483
17.14,32054.3,35159.3,0.9466,1.9057,147.6,97.9,0.483
17.16,32041.3,35149.8,0.7223,1.7916,147.6,97.9,0.483
17.18,32028.8,34968.5,0.5065,-0.372,147.6,97.9,0.483
17.2,32059.9,34991.9,1.0418,-0.0919,147.6,97.9,0.483
17.22,32039.3,34939.8,0.6885,-0.7145,147.6,97.9,0.483
17.24,32001.6,35048.4,0.0384,0.5823,147.6,97.9,0.483
17.26,31899.1,34992.3,-1.7255,-0.0871,147.6,97.9,0.483
17.28,31988.4,34934.5,-0.188,-0.7767,147.6,97.9,0.483
17.3,32060.9,35016.1,1.0588,0.1969,147.6,97.9,0.483
17.32,31892.3,34888.2,-1.8428,-1.3303,147.6,97.9,0.483
17.34,31937.0,34827.8,-1.0739,-2.0505,147.6,97.9,0.483
17.36,31870.3,34979.1,-2.2222,-0.2446,147.6,97.9,0.483
17.38,31964.2,34960.3,-0.605,-0.4688,147.6,97.9,0.483
17.4,31876.5,34881.1,-2.1153,-1.4141,147.6,97.9,0.483
17.42,31992.5,34861.7,-0.1173,-1.6462,147.6,97.9,0.483
17.44,31950.6,34830.5,-0.8391,-2.0186,147.6,97.9,0.483
17.46,32037.4,34945.9,0.6543,-0.641,147.6,97.9,0.483
17.48,32009.6,35019.7,0.1759,0.2393,147.6,97.9,0.483
17.5,32005.4,35039.0,0.1036,0.4693,147.6,97.9,0.483
17.52,32037.7,35140.6,0.6595,1.6826,147.6,97.9,0.483
17.54,32089.1,35143.6,1.5446,1.7176,147.6,97.9,0.483
17.56,32075.8,35014.6,1.316,0.1791,147.6,97.9,0.483
17.58,32092.8,35037.4,1.6083,0.4504,147.6,97.9,0.483
17.6,31916.7,35017.1,-1.4218,0.2081,147.6,97.9,0.483
17.62,31993.5,35001.6,-0.1013,0.0235,147.6,97.9,0.483
17.64,32074.3,35041.8,1.2907,0.5026,147.6,97.9,0.483
17.66,32082.5,34916.5,1.4321,-0.9923,147.6,97.9,0.483
17.68,32045.5,35021.8,0.7948,0.2644,147.6,97.9,0.483
17.7,32037.9,34885.1,0.6629,-1.3672,147.6,97.9,0.483
17.72,32030.1,34905.9,0.5295,-1.1183,147.6,97.9,0.483
17.74,32008.3,34960.7,0.1543,-0.4652,147.6,97.9,0.483
17.76,31928.0,34907.2,-1.2289,-1.1032,147.6,97.9,0.483
17.78,31886.1,34917.9,-1.9491,-0.9754,147.6,97.9,0.483
17.8,31970.7,35090.0,-0.4923,1.0783,147.6,97.9,0.483
17.82,32009.5,34917.4,0.1749,-0.9814,147.6,97.9,0.483
17.84,31906.9,34901.0,-1.5906,-1.1768,147.6,97.9,0.483
17.86,31918.8,34993.1,-1.3865,-0.0785,147.6,97.9,0.483
17.88,31992.2,35049.8,-0.1228,0.5984,147.6,97.9,0.483
17.9,32004.9,34989.1,0.0953,-0.126,147.6,97.9,0.483
17.92,32020.1,35060.4,0.3565,0.7247,147.6,97.9,0.483
17.94,32038.2,35121.3,0.6696,1.452,147.6,97.9,0.483
17.96,32083.2,35124.7,1.4437,1.4922,147.6,97.9,0.483
17.98,32023.2,35100.9,0.4103,1.2078,147.6,97.9,0.483
18.0,32041.3,35017.0,0.7224,0.2075,147.6,97.9,0.483
18.02,31976.6,35063.5,-0.3917,0.7626,147.6,97.9,0.483
18.04,31989.4,34944.7,-0.1709,-0.6556,147.6,97.9,0.483
18.06,31968.3,34989.7,-0.5344,-0.1183,147.6,97.9,0.483
18.08,32107.6,34956.2,1.8643,-0.5182,147.6,97.9,0.483
18.1,31976.3,34983.3,-0.3964,-0.1945,147.6,97.9,0.483
18.12,31928.7,34948.8,-1.2166,-0.6067,147.6,97.9,0.483
18.14,31951.7,35031.5,-0.821,0.3798,147.6,97.9,0.483
18.16,31911.2,35002.6,-1.5169,0.0351,147.6,97.9,0.483
18.18,31994.1,34886.0,-0.0909,-1.3559,147.6,97.9,0.483
18.2,31936.8,34978.9,-1.0761,-0.248,147.6,97.9,0.483
18.22,32039.7,34949.6,0.6953,-0.597,147.6,97.9,0.483
18.24,31902.0,34949.3,-1.6764,-0.6009,147.6,97.9,0.483
18.26,31954.5,34930.0,-0.7727,-0.8312,147.6,97.9,0.483
18.28,31961.9,35097.5,-0.6451,1.1684,147.6,97.9,0.483
18.3,32042.8,35014.2,0.7487,0.1737,147.6,97.9,0.483
18.32,31968.8,35028.5,-0.5258,0.3441,147.6,97.9,0.483
18.34,32106.0,35158.0,1.8363,1.8899,147.6,97.9,0.483
18.36,31959.6,35164.2,-0.6845,1.9642,147.6,97.9,0.483
18.38,32091.5,35128.7,1.5858,1.5404,147.6,97.9,0.483
18.4,32033.6,35135.7,0.5905,1.6234,147.6,97.9,0.483
18.42,32016.5,35057.5,0.2958,0.6908,147.6,97.9,0.483
18.44,32015.0,35000.2,0.2702,0.0068,147.6,97.9,0.483
18.46,32060.3,35003.9,1.0492,0.0513,147.6,97.9,0.483
18.48,31963.3,34980.9,-0.6206,-0.2237,147.6,97.9,0.483
18.5,32044.5,35081.7,0.7776,0.9793,147.6,97.9,0.483
18.52,31954.5,34927.6,-0.7726,-0.8594,147.6,97.9,0.483
18.54,32010.2,35005.2,0.187,0.0669,147.6,97.9,0.483
18.56,31954.1,34907.8,-0.7784,-1.0957,147.6,97.9,0.483
18.58,31919.4,34822.8,-1.3766,-2.11,147.6,97.9,0.483
18.6,31960.7,34911.8,-0.6658,-1.0479,147.6,97.9,0.483
18.62,31919.7,34915.8,-1.3714,-1.0006,147.6,97.9,0.483
18.64,32011.7,34854.3,0.2135,-1.734,147.6,97.9,0.483
18.66,31994.5,34919.2,-0.083,-0.9597,147.6,97.9,0.483
18.68,31984.8,35019.8,-0.2498,0.2406,147.6,97.9,0.483
18.7,32068.5,35141.6,1.1907,1.6945,147.6,97.9,0.483
18.72,32068.3,35121.2,1.1867,1.4505,147.6,97.9,0.483
18.74,32022.9,35140.0,0.4052,1.6749,147.6,97.9,0.483
18.76,32085.0,35105.5,1.474,1.2634,147.6,97.9,0.483
18.78,32053.6,35010.0,0.9338,0.1242,147.6,97.9,0.483
18.8,32085.7,35113.8,1.4866,1.3624,147.6,97.9,0.483
18.82,31924.3,34991.6,-1.2917,-0.0962,147.6,97.9,0.483
18.84,32055.9,34987.6,0.9737,-0.1437,147.6,97.9,0.483
18.86,31895.2,35011.7,-1.7923,0.1434,147.6,97.9,0.483
18.88,32023.8,35007.9,0.4213,0.0982,147.6,97.9,0.483
18.9,31949.5,35058.2,-0.8588,0.6983,147.6,97.9,0.483
18.92,32046.2,34924.3,0.8062,-0.8993,147.6,97.9,0.483
18.94,31951.1,34906.4,-0.83,-1.1126,147.6,97.9,0.483
18.96,31964.1,34898.2,-0.6061,-1.2104,147.6,97.9,0.483
18.98,31924.7,34934.6,-1.2841,-0.7762,147.6,97.9,0.483
19.0,32000.6,34987.3,0.0219,-0.1469,147.6,97.9,0.483
19.02,31989.4,34895.0,-0.1717,-1.2489,147.6,97.9,0.483
19.04,32030.3,34930.3,0.5323,-0.827,147.6,97.9,0.483
19.06,31947.4,34933.0,-0.8935,-0.7946,147.6,97.9,0.483
19.08,32038.5,34974.5,0.6738,-0.3005,147.6,97.9,0.483
19.1,32005.8,34869.4,0.1117,-1.554,147.6,97.9,0.483
19.12,32112.4,35007.5,1.947,0.0933,147.6,97.9,0.483
19.14,31991.9,35021.5,-0.1283,0.2609,147.6,97.9,0.483
19.16,32009.5,35163.0,0.1757,1.9495,147.6,97.9,0.483
19.18,32073.3,35125.6,1.2728,1.5032,147.6,97.9,0.483
19.2,32027.3,35170.9,0.4819,2.0431,147.6,97.9,0.483
19.22,31956.1,34959.2,-0.7441,-0.483,147.6,97.9,0.483
19.24,31998.1,34993.5,-0.0216,-0.0735,147.6,97.9,0.483
19.26,32015.7,35002.3,0.2817,0.0323,147.6,97.9,0.483
19.28,32043.2,34962.3,0.7543,-0.446,147.6,97.9,0.483
19.3,31999.0,35056.3,-0.0058,0.6757,147.6,97.9,0.483
19.32,32070.6,35034.8,1.2264,0.4194,147.6,97.9,0.483
19.34,31993.5,35016.1,-0.1014,0.1965,147.6,97.9,0.483
19.36,31925.2,34873.2,-1.2764,-1.509,147.6,97.9,0.483
19.38,31983.8,34937.4,-0.2668,-0.7427,147.6,97.9,0.483
19.4,32006.0,34889.9,0.1147,-1.3093,147.6,97.9,0.483
19.42,31938.4,34874.7,-1.0483,-1.4904,147.6,97.9,0.483
19.44,32071.4,34957.7,1.2408,-0.5006,147.6,97.9,0.483
19.46,31932.7,34868.0,-1.1475,-1.5709,147.6,97.9,0.483
19.48,31986.5,34868.5,-0.2203,-1.5648,147.6,97.9,0.483
19.5,32044.7,34984.9,0.7811,-0.1755,147.6,97.9,0.483
19.52,32019.4,35026.5,0.3452,0.3211,147.6,97.9,0.483
19.54,31994.6,35127.2,-0.0821,1.5217,147.6,97.9,0.483
19.56,32055.4,35061.5,0.9648,0.7382,147.6,97.9,0.483
19.58,32056.1,35187.6,0.9766,2.2432,147.6,97.9,0.483
19.6,32036.1,35025.6,0.6319,0.3096,147.6,97.9,0.483
19.62,32009.5,35119.3,0.1753,1.4278,147.6,97.9,0.483
19.64,32104.5,35082.4,1.8094,0.9873,147.6,97.9,0.483
19.66,31923.9,35097.1,-1.298,1.1626,147.6,97.9,0.483
19.68,32029.6,35043.9,0.5213,0.5286,147.6,97.9,0.483
19.7,31937.5,34983.9,-1.0641,-0.1881,147.6,97.9,0.483
19.72,31894.1,34961.7,-1.8109,-0.4527,147.6,97.9,0.483
19.74,32043.2,35018.7,0.7557,0.2281,147.6,97.9,0.483
19.76,31943.6,34897.4,-0.9589,-1.2205,147.6,97.9,0.483
19.78,31922.9,34859.0,-1.3151,-1.6778,147.6,97.9,0.483
19.8,31946.6,34928.7,-0.9076,-0.8463,147.6,97.9,0.483
19.82,31947.0,35001.0,-0.9008,0.0165,147.6,97.9,0.483
19.84,32033.8,34850.2,0.5938,-1.7828,147.6,97.9,0.483
19.86,32004.0,34862.2,0.0804,-1.6406,147.6,97.9,0.483
19.88,31959.3,34860.1,-0.6887,-1.6652,147.6,97.9,0.483
19.9,32008.4,34995.3,0.1555,-0.0522,147.6,97.9,0.483
19.92,31978.6,35010.8,-0.3571,0.1335,147.6,97.9,0.483
19.94,32090.8,35146.9,1.5745,1.7578,147.6,97.9,0.483
19.96,32017.5,35126.6,0.3121,1.5154,147.6,97.9,0.483
19.98,31981.2,35136.2,-0.3127,1.629,147.6,97.9,0.483
20.0,32031.9,35068.4,0.5602,0.8202,147.6,97.9,0.483
20.02,32031.8,35158.1,0.5583,1.891,147.6,97.9,0.483
20.04,32035.3,35013.7,0.6185,0.1675,147.6,97.9,0.483
20.06,31969.4,34950.2,-0.5158,-0.5903,147.6,97.9,0.483
20.08,32003.1,34999.5,0.0653,-0.002,147.6,97.9,0.483
20.1,31955.0,35057.9,-0.7636,0.6948,147.6,97.9,0.483
20.12,32026.2,35080.1,0.4616,0.9603,147.6,97.9,0.483
20.14,31956.9,34982.5,-0.7307,-0.2043,147.6,97.9,0.483
20.16,31998.6,34918.2,-0.0131,-0.9717,147.6,97.9,0.483
20.18,31942.7,34897.0,-0.9759,-1.2251,147.6,97.9,0.483
20.2,31945.1,34868.1,-0.9331,-1.5693,147.6,97.9,0.483
20.22,31867.4,34934.0,-2.2708,-0.7833,147.6,97.9,0.483
20.24,32004.5,34889.2,0.0882,-1.3176,147.6,97.9,0.483
20.26,31987.4,34882.4,-0.2058,-1.3989,147.6,97.9,0.483
20.28,31955.8,34923.1,-0.7502,-0.9128,147.6,97.9,0.483
20.3,32012.4,34949.1,0.2247,-0.6032,147.6,97.9,0.483
20.32,32032.3,34987.3,0.5669,-0.1469,147.6,97.9,0.483
20.34,31967.8,35077.0,-0.543,0.9231,147.6,97.9,0.483
20.36,31975.6,35177.3,-0.4083,2.12,147.6,97.9,0.483
20.38,32111.6,35144.5,1.9333,1.7282,147.6,97.9,0.483
20.4,32007.3,35127.5,0.1369,1.5262,147.6,97.9,0.483
20.42,32093.3,35121.5,1.6179,1.4544,147.6,97.9,0.483
20.44,31989.3,35003.0,-0.1734,0.0397,147.6,97.9,0.483
20.46,31917.4,34965.5,-1.4104,-0.4069,147.6,97.9,0.483
20.48,31905.3,35007.5,-1.619,0.0937,147.6,97.9,0.483
20.5,31968.8,34991.7,-0.5259,-0.0942,147.6,97.9,0.483
20.52,31984.4,35034.0,-0.2574,0.4099,147.6,97.9,0.483
20.54,32024.0,35066.2,0.4251,0.7938,147.6,97.9,0.483
20.56,31973.3,35021.9,-0.4482,0.2653,147.6,97.9,0.483
20.58,31894.1,35002.9,-1.8109,0.0392,147.6,97.9,0.483
20.6,31947.4,34889.5,-0.8934,-1.3143,147.6,97.9,0.483
20.62,32019.0,34887.9,0.3391,-1.3338,147.6,97.9,0.483
20.64,31962.1,34833.7,-0.6403,-1.98,147.6,97.9,0.483
20.66,32012.0,34848.0,0.2172,-1.8097,147.6,97.9,0.483
20.68,31954.9,34898.1,-0.7657,-1.2113,147.6,97.9,0.483
20.7,32037.6,34988.4,0.6579,-0.134,147.6,97.9,0.483
20.72,31941.3,34956.1,-0.9985,-0.519,147.6,97.9,0.483
20.74,32050.4,35086.0,0.8785,1.0302,147.6,97.9,0.483
20.76,31935.2,35023.1,-1.1038,0.2805,147.6,97.9,0.483
20.78,32073.8,35125.0,1.2809,1.4954,147.6,97.9,0.483
20.8,31978.7,35048.7,-0.3549,0.585,147.6,97.9,0.483
20.82,32112.2,35129.7,1.9429,1.5521,147.6,97.9,0.483
20.84,31885.9,35038.6,-1.9524,0.465,147.6,97.9,0.483
20.86,31970.7,35075.3,-0.4931,0.9028,147.6,97.9,0.483
20.88,31991.4,34988.7,-0.1367,-0.1305,147.6,97.9,0.483
20.9,32030.2,35009.7,0.5313,0.12,147.6,97.9,0.483
20.92,31988.2,35009.5,-0.192,0.1171,147.6,97.9,0.483
20.94,31957.9,34929.7,-0.7142,-0.8344,147.6,97.9,0.483
20.96,31990.0,35036.0,-0.1601,0.4338,147.6,97.9,0.483
20.98,31975.7,34879.9,-0.4062,-1.4288,147.6,97.9,0.483
21.0,32005.1,34903.0,0.0989,-1.1526,147.6,97.9,0.483
21.02,31998.0,34964.0,-0.0235,-0.4252,147.6,97.9,0.483
21.04,31901.5,34933.4,-1.6848,-0.79,147.6,97.9,0.483
21.06,32062.3,34879.5,1.0832,-1.4337,147.6,97.9,0.483
21.08,31877.1,34899.0,-2.1049,-1.2005,147.6,97.9,0.483
21.1,32013.1,34953.5,0.236,-0.5505,147.6,97.9,0.483
21.12,31850.0,34983.6,-2.5712,-0.1908,147.6,97.9,0.483
21.14,31911.4,35078.8,-1.5146,0.9447,147.6,97.9,0.483
21.16,31943.4,35057.1,-0.9636,0.6851,147.6,97.9,0.483
21.18,32098.8,35073.7,1.7128,0.8838,147.6,97.9,0.483
21.2,32141.0,35031.2,2.439,0.3772,147.6,97.9,0.483
21.22,32118.3,35119.1,2.0477,1.4257,147.6,97.9,0.483
21.24,32038.3,35053.4,0.6709,0.6416,147.6,97.9,0.483
21.26,31989.1,35121.7,-0.1757,1.4567,147.6,97.9,0.483
21.28,31991.5,34987.7,-0.1342,-0.1429,147.6,97.9,0.483
21.3,32025.8,34994.1,0.4549,-0.0662,147.6,97.9,0.483
21.32,32048.8,34943.1,0.8518,-0.6745,147.6,97.9,0.483
21.34,32052.4,34965.4,0.9129,-0.4091,147.6,97.9,0.483
21.36,32009.0,35046.1,0.1661,0.5548,147.6,97.9,0.483
21.38,31997.1,35022.2,-0.038,0.2688,147.6,97.9,0.483
21.4,31952.0,34955.1,-0.8147,-0.5314,147.6,97.9,0.483
21.42,32026.5,34955.2,0.4679,-0.5305,147.6,97.9,0.483
21.44,31922.5,34847.8,-1.3221,-1.812,147.6,97.9,0.483
21.46,31983.0,34844.1,-0.2818,-1.8565,147.6,97.9,0.483
21.48,31959.3,34836.3,-0.689,-1.9487,147.6,97.9,0.483
21.5,31855.1,34829.3,-2.4828,-2.0321,147.6,97.9,0.483
21.52,31950.3,34929.5,-0.8447,-0.8365,147.6,97.9,0.483
21.54,31983.6,35015.1,-0.2704,0.1849,147.6,97.9,0.483
21.56,32017.6,35076.1,0.3138,0.9119,147.6,97.9,0.483
21.58,31973.1,35151.1,-0.4513,1.8072,147.6,97.9,0.483
21.6,32162.8,35220.7,2.8138,2.6376,147.6,97.9,0.483
21.62,32144.3,35124.9,2.495,1.4943,147.6,97.9,0.483
21.64,32072.4,35132.3,1.2568,1.5825,147.6,97.9,0.483
21.66,32075.5,35026.9,1.3103,0.325,147.6,97.9,0.483
21.68,32019.0,34978.3,0.339,-0.255,147.6,97.9,0.483
21.7,31985.1,35006.2,-0.2449,0.0779,147.6,97.9,0.483
21.72,32101.9,34971.6,1.7651,-0.3344,147.6,97.9,0.483
21.74,32022.7,34904.5,0.4017,-1.1348,147.6,97.9,0.483
21.76,32075.6,35075.1,1.3129,0.9008,147.6,97.9,0.483
21.78,31938.0,34964.4,-1.0556,-0.4207,147.6,97.9,0.483
21.8,31990.2,34850.0,-0.1582,-1.7859,147.6,97.9,0.483
21.82,32007.8,34881.1,0.1464,-1.414,147.6,97.9,0.483
21.84,31944.0,34990.9,-0.9523,-0.104,147.6,97.9,0.483
21.86,31995.4,34906.0,-0.0675,-1.1179,147.6,97.9,0.483
21.88,31899.4,34938.7,-1.7209,-0.7273,147.6,97.9,0.483
21.9,31979.6,34946.0,-0.3405,-0.6397,147.6,97.9,0.483
21.92,32055.4,34851.2,0.9657,-1.7708,147.6,97.9,0.483
21.94,32058.5,34938.0,1.0178,-0.7354,147.6,97.9,0.483
21.96,32164.5,35126.6,2.8437,1.515,147.6,97.9,0.483
21.98,32087.0,35163.7,1.5085,1.9572,147.6,97.9,0.483
22.0,32045.0,35148.6,0.786,1.7771,147.6,97.9,0.483
22.02,32098.5,35095.6,1.707,1.1453,147.6,97.9,0.483
22.04,32091.2,35011.2,1.5813,0.1375,147.6,97.9,0.483
22.06,32033.3,34952.0,0.5839,-0.5688,147.6,97.9,0.483
22.08,32079.3,35041.8,1.3756,0.5032,147.6,97.9,0.483
22.1,32015.7,35067.8,0.2819,0.8132,147.6,97.9,0.483
22.12,32014.9,34946.2,0.2677,-0.6373,147.6,97.9,0.483
22.14,32097.7,34927.7,1.6925,-0.8583,147.6,97.9,0.483
22.16,31970.7,34979.2,-0.4933,-0.2443,147.6,97.9,0.483
22.18,32018.1,34975.8,0.3221,-0.285,147.6,97.9,0.483
22.2,32006.3,34972.5,0.1197,-0.3241,147.6,97.9,0.483
22.22,31951.2,34957.9,-0.8284,-0.4983,147.6,97.9,0.483
22.24,32008.1,34940.9,0.1509,-0.7009,147.6,97.9,0.483
22.26,31941.2,34912.8,-1.0012,-1.0367,147.6,97.9,0.483
22.28,31982.7,34986.3,-0.2869,-0.1594,147.6,97.9,0.483
22.3,32014.1,34907.0,0.2548,-1.1053,147.6,97.9,0.483
22.32,31925.0,34924.4,-1.28,-0.8982,147.6,97.9,0.483
22.34,31998.8,35000.9,-0.0089,0.0148,147.6,97.9,0.483
22.36,32021.8,34974.0,0.3859,-0.3059,147.6,97.9,0.483
22.38,32032.0,35075.1,0.562,0.8999,147.6,97.9,0.483
22.4,32006.0,35069.9,0.1138,0.8389,147.6,97.9,0.483
22.42,32082.6,35094.0,1.4324,1.1259,147.6,97.9,0.483
22.44,32015.1,35072.4,0.272,0.8679,147.6,97.9,0.483
22.46,32123.1,35098.1,2.1309,1.1745,147.6,97.9,0.483
22.48,32053.1,35055.1,0.9248,0.6622,147.6,97.9,0.483
22.5,32012.3,34933.4,0.2226,-0.7909,147.6,97.9,0.483
22.52,31981.7,35051.0,-0.3042,0.613,147.6,97.9,0.483
22.54,31977.1,34974.4,-0.3824,-0.3013,147.6,97.9,0.483
22.56,31986.7,34946.6,-0.2169,-0.6325,147.6,97.9,0.483
22.58,31979.3,34979.1,-0.3455,-0.2449,147.6,97.9,0.483
22.6,32027.1,35018.5,0.478,0.2245,147.6,97.9,0.483
22.62,32052.2,34910.3,0.9107,-1.0657,147.6,97.9,0.483
22.64,31910.7,34899.8,-1.5267,-1.1908,147.6,97.9,0.483
22.66,32105.7,34931.4,1.8316,-0.8146,147.6,97.9,0.483
22.68,32005.5,34887.3,0.1062,-1.3407,147.6,97.9,0.483
22.7,31958.9,34887.0,-0.697,-1.344,147.6,97.9,0.483
22.72,31977.8,34840.7,-0.3714,-1.8968,147.6,97.9,0.483
22.74,31961.8,34973.0,-0.6465,-0.3181,147.6,97.9,0.483
22.76,31960.0,34948.2,-0.6781,-0.6136,147.6,97.9,0.483
22.78,31963.9,34918.2,-0.6098,-0.9716,147.6,97.9,0.483
22.8,32064.0,35072.3,1.1135,0.867,147.6,97.9,0.483
22.82,32081.5,35083.6,1.4146,1.0025,147.6,97.9,0.483
22.84,32025.2,35068.9,0.4459,0.8261,147.6,97.9,0.483
22.86,32031.1,35119.2,0.5459,1.4268,147.6,97.9,0.483
22.88,31970.7,34893.6,-0.4939,-1.2648,147.6,97.9,0.483
22.9,32036.1,35005.9,0.6335,0.0744,147.6,97.9,0.483
22.92,32032.1,35077.4,0.5631,0.9275,147.6,97.9,0.483
22.94,32010.5,34980.3,0.1925,-0.2305,147.6,97.9,0.483
22.96,31999.3,35013.8,-0.0014,0.1689,147.6,97.9,0.483
22.98,31887.9,34976.9,-1.9183,-0.2718,147.6,97.9,0.483
23.0,32002.2,34936.1,0.0495,-0.758,147.6,97.9,0.483
23.02,31950.4,34970.8,-0.8429,-0.3436,147.6,97.9,0.483
23.04,31994.9,35028.4,-0.0758,0.3429,147.6,97.9,0.483
23.06,31964.9,35005.7,-0.5922,0.0719,147.6,97.9,0.483
23.08,31924.0,34856.1,-1.2965,-1.7123,147.6,97.9,0.483
23.1,32002.7,34878.0,0.0576,-1.4519,147.6,97.9,0.483
23.12,31916.7,34825.0,-1.4228,-2.0842,147.6,97.9,0.483
23.14,32015.2,34954.5,0.2737,-0.5388,147.6,97.9,0.483
23.16,32019.9,35015.6,0.3546,0.191,147.6,97.9,0.483
23.18,31967.1,35073.6,-0.555,0.883,147.6,97.9,0.483
23.2,32014.2,35103.3,0.2559,1.2376,147.6,97.9,0.483
23.22,32072.7,35148.2,1.2634,1.7723,147.6,97.9,0.483
23.24,32127.5,35144.2,2.2069,1.7255,147.6,97.9,0.483
23.26,32057.4,35146.9,1.0,1.7578,147.6,97.9,0.483
23.28,32055.5,35123.2,0.9671,1.4743,147.6,97.9,0.483
23.3,31953.1,35055.1,-0.7963,0.6619,147.6,97.9,0.483
23.32,31941.0,35030.3,-1.0037,0.3662,147.6,97.9,0.483
23.34,31958.7,34948.4,-0.699,-0.6114,147.6,97.9,0.483
23.36,32011.3,35014.0,0.2065,0.1711,147.6,97.9,0.483
23.38,32024.7,34994.1,0.4373,-0.0659,147.6,97.9,0.483
23.4,31900.1,34946.6,-1.7082,-0.6325,147.6,97.9,0.483
23.42,32030.9,34992.3,0.5435,-0.0881,147.6,97.9,0.483
23.44,31946.0,34938.6,-0.9191,-0.7283,147.6,97.9,0.483
23.46,31950.3,34956.5,-0.8447,-0.5142,147.6,97.9,0.483
23.48,32031.3,34960.9,0.5502,-0.4622,147.6,97.9,0.483
23.5,31998.7,34938.3,-0.0103,-0.7315,147.6,97.9,0.483
23.52,31974.1,34943.2,-0.4346,-0.6736,147.6,97.9,0.483
23.54,31885.5,34948.9,-1.959,-0.6056,147.6,97.9,0.483
23.56,31938.6,34923.1,-1.0451,-0.9139,147.6,97.9,0.483
23.58,31933.9,35114.8,-1.126,1.3739,147.6,97.9,0.483
23.6,32057.2,35140.1,0.9956,1.6764,147.6,97.9,0.483
23.62,32018.2,35051.3,0.3253,0.617,147.6,97.9,0.483
23.64,32014.6,35073.2,0.2628,0.8775,147.6,97.9,0.483
23.66,32015.6,35052.5,0.279,0.6303,147.6,97.9,0.483
23.68,31984.3,35047.5,-0.2593,0.5707,147.6,97.9,0.483
23.7,32004.5,35035.9,0.0887,0.4328,147.6,97.9,0.483
23.72,32059.5,35071.3,1.0361,0.8546,147.6,97.9,0.483
23.74,31977.8,35060.6,-0.3704,0.7272,147.6,97.9,0.483
23.76,32034.1,34957.1,0.599,-0.5073,147.6,97.9,0.483
23.78,31975.8,34990.9,-0.4056,-0.1042,147.6,97.9,0.483
23.8,32023.2,34954.7,0.4105,-0.536,147.6,97.9,0.483
23.82,31937.5,34948.4,-1.0653,-0.6109,147.6,97.9,0.483
23.84,32001.0,34878.9,0.0278,-1.4404,147.6,97.9,0.483
23.86,32051.6,34924.5,0.8993,-0.8971,147.6,97.9,0.483
23.88,31973.2,34910.3,-0.4495,-1.0656,147.6,97.9,0.483
23.9,31908.4,34914.0,-1.5655,-1.0219,147.6,97.9,0.483
23.92,31861.8,34916.9,-2.3685,-0.9869,147.6,97.9,0.483
23.94,32018.7,34957.4,0.334,-0.5035,147.6,97.9,0.483
23.96,31994.5,34928.7,-0.0829,-0.8466,147.6,97.9,0.483
23.98,32061.8,35024.1,1.0757,0.2917,147.6,97.9,0.483
24.0,31912.2,35146.2,-1.5006,1.7489,147.6,97.9,0.483
24.02,32014.9,35038.3,0.2675,0.461,147.6,97.9,0.483
24.04,32110.6,35136.6,1.9148,1.6344,147.6,97.9,0.483
24.06,32022.4,35102.9,0.3975,1.232,147.6,97.9,0.483
24.08,32169.1,35097.1,2.923,1.1625,147.6,97.9,0.483
24.1,31978.0,35068.0,-0.3671,0.8159,147.6,97.9,0.483
24.12,32039.2,35036.5,0.6862,0.4393,147.6,97.9,0.483
24.14,31975.0,35038.4,-0.4196,0.4626,147.6,97.9,0.483
24.16,32087.7,34978.9,1.5213,-0.2471,147.6,97.9,0.483
24.18,32017.0,35031.6,0.3045,0.3819,147.6,97.9,0.483
24.2,31974.2,34948.8,-0.4331,-0.6064,147.6,97.9,0.483
24.22,31992.5,35010.6,-0.1179,0.1308,147.6,97.9,0.483
24.24,32077.1,34919.0,1.3379,-0.9621,147.6,97.9,0.483
24.26,31980.4,34943.4,-0.3262,-0.6713,147.6,97.9,0.483
24.28,31911.6,34968.7,-1.5099,-0.3692,147.6,97.9,0.483
24.3,31938.4,34872.4,-1.0487,-1.5183,147.6,97.9,0.483
24.32,31969.9,34974.6,-0.5071,-0.299,147.6,97.9,0.483
24.34,31927.7,34939.2,-1.2326,-0.721,147.6,97.9,0.483
24.36,32014.7,34908.4,0.2648,-1.0893,147.6,97.9,0.483
24.38,32036.1,34917.8,0.6326,-0.9768,147.6,97.9,0.483
24.4,32030.0,35039.6,0.5273,0.4773,147.6,97.9,0.483
24.42,32012.3,34987.6,0.2226,-0.1435,147.6,97.9,0.483
24.44,32046.4,35053.3,0.8108,0.6401,147.6,97.9,0.483
24.46,32149.2,35157.8,2.5798,1.8874,147.6,97.9,0.483
24.48,32073.7,35122.1,1.2795,1.4612,147.6,97.9,0.483
24.5,31945.4,34974.7,-0.9289,-0.2971,147.6,97.9,0.483
24.52,31973.1,34999.6,-0.4518,-0.0008,147.6,97.9,0.483
24.54,32029.4,34972.0,0.5169,-0.3294,147.6,97.9,0.483
24.56,31961.9,35057.9,-0.6454,0.6958,147.6,97.9,0.483
24.58,32004.5,35031.5,0.0887,0.3807,147.6,97.9,0.483
24.6,31950.1,34962.3,-0.8485,-0.4454,147.6,97.9,0.483
24.62,31970.4,34973.1,-0.4982,-0.3165,147.6,97.9,0.483
24.64,32017.0,34951.9,0.3044,-0.5698,147.6,97.9,0.483
24.66,31946.6,34948.8,-0.9073,-0.6069,147.6,97.9,0.483
24.68,31959.2,34932.8,-0.6913,-0.7974,147.6,97.9,0.483
24.7,31991.2,34916.7,-0.1394,-0.9893,147.6,97.9,0.483
24.72,32020.6,34881.8,0.3664,-1.4058,147.6,97.9,0.483
24.74,31982.2,34902.3,-0.2957,-1.1609,147.6,97.9,0.483
24.76,32000.1,34901.0,0.0127,-1.1773,147.6,97.9,0.483
24.78,31965.5,34925.0,-0.5822,-0.8905,147.6,97.9,0.483
24.8,32052.2,34921.0,0.9095,-0.9387,147.6,97.9,0.483
24.82,32093.9,35152.8,1.6273,1.8278,147.6,97.9,0.483
24.84,32086.6,35238.2,1.5016,2.8471,147.6,97.9,0.483
24.86,32081.6,35111.8,1.4154,1.3384,147.6,97.9,0.483
24.88,32028.5,35125.2,0.5026,1.4982,147.6,97.9,0.483
24.9,32028.3,35098.0,0.4984,1.1735,147.6,97.9,0.483
24.92,31965.9,35033.9,-0.5748,0.4093,147.6,97.9,0.483
24.94,32072.1,35023.3,1.2531,0.2824,147.6,97.9,0.483
24.96,31976.0,35106.4,-0.4011,1.2739,147.6,97.9,0.483
24.98,32036.7,35095.8,0.6428,1.1476,147.6,97.9,0.483
25.0,31979.7,35015.0,-0.339,0.1838,147.6,97.9,0.483
25.02,32119.9,34939.8,2.075,-0.7136,147.6,97.9,0.483
25.04,31967.5,34997.1,-0.5473,-0.0302,147.6,97.9,0.483
25.06,31948.5,34910.8,-0.8755,-1.0605,147.6,97.9,0.483
25.08,31988.9,35009.0,-0.1798,0.1115,147.6,97.9,0.483
25.1,32034.1,34931.5,0.5986,-0.8135,147.6,97.9,0.483
25.12,31959.1,34958.6,-0.6929,-0.4896,147.6,97.9,0.483
25.14,31981.4,34903.9,-0.3091,-1.1424,147.6,97.9,0.483
25.16,31920.9,34941.7,-1.3512,-0.6908,147.6,97.9,0.483
25.18,31973.9,34959.5,-0.4386,-0.4793,147.6,97.9,0.483
25.2,32007.4,34998.0,0.1386,-0.0195,147.6,97.9,0.483
25.22,32056.9,35021.1,0.9908,0.2558,147.6,97.9,0.483
25.24,31985.1,35176.0,-0.2455,2.1044,147.6,97.9,0.483
25.26,32008.0,34989.7,0.1498,-0.1191,147.6,97.9,0.483
25.28,32087.8,35159.7,1.5231,1.9101,147.6,97.9,0.483
25.3,32044.9,35101.0,0.7839,1.2093,147.6,97.9,0.483
25.32,31957.8,35051.1,-0.7158,0.6136,147.6,97.9,0.483
25.34,32027.0,34992.5,0.476,-0.0856,147.6,97.9,0.483
25.36,31962.9,35107.5,-0.6268,1.2872,147.6,97.9,0.483
25.38,31991.9,34960.4,-0.1287,-0.4685,147.6,97.9,0.483
25.4,32009.3,34995.3,0.1714,-0.0519,147.6,97.9,0.483
25.42,32025.0,34903.0,0.4424,-1.1527,147.6,97.9,0.483
25.44,32072.4,35004.5,1.2585,0.0582,147.6,97.9,0.483
25.46,31956.8,34937.2,-0.7322,-0.745,147.6,97.9,0.483
25.48,31975.7,35009.2,-0.4065,0.114,147.6,97.9,0.483
25.5,32022.0,34869.8,0.3898,-1.5492,147.6,97.9,0.483
25.52,31906.7,34921.5,-1.5944,-0.9324,147.6,97.9,0.483
25.54,32015.8,34824.7,0.283,-2.0873,147.6,97.9,0.483
25.56,31885.5,34931.1,-1.9602,-0.8178,147.6,97.9,0.483
25.58,31954.5,34892.1,-0.7714,-1.2827,147.6,97.9,0.483
25.6,32007.4,34945.3,0.1386,-0.6485,147.6,97.9,0.483
25.62,32013.4,35088.8,0.2428,1.0635,147.6,97.9,0.483
25.64,32054.1,35104.5,0.9429,1.251,147.6,97.9,0.483
25.66,32061.6,35124.9,1.0717,1.4949,147.6,97.9,0.483
25.68,32073.9,35150.5,1.2831,1.7997,147.6,97.9,0.483
25.7,32120.8,35068.4,2.0915,0.8205,147.6,97.9,0.483
25.72,31986.8,35025.5,-0.2153,0.3084,147.6,97.9,0.483
25.74,31993.9,35022.8,-0.0938,0.2762,147.6,97.9,0.483
25.76,32052.4,34993.1,0.914,-0.0777,147.6,97.9,0.483
25.78,31998.5,35052.4,-0.0142,0.6295,147.6,97.9,0.483
25.8,31977.9,35050.5,-0.3689,0.6064,147.6,97.9,0.483
25.82,31908.2,34980.2,-1.5681,-0.2323,147.6,97.9,0.483
25.84,31994.6,34978.4,-0.0815,-0.2534,147.6,97.9,0.483
25.86,32031.1,34912.1,0.5473,-1.045,147.6,97.9,0.483
25.88,31983.0,34971.3,-0.2818,-0.338,147.6,97.9,0.483
25.9,31996.0,34989.0,-0.0577,-0.1264,147.6,97.9,0.483
25.92,31965.5,34848.2,-0.5829,-1.807,147.6,97.9,0.483
25.94,31908.1,34906.8,-1.5713,-1.1079,147.6,97.9,0.483
25.96,32017.1,34983.9,0.306,-0.188,147.6,97.9,0.483
25.98,32003.9,34893.2,0.079,-1.2706,147.6,97.9,0.483
26.0,32001.7,34941.7,0.0414,-0.6916,147.6,97.9,0.483
26.02,32034.2,34985.2,0.6007,-0.1728,147.6,97.9,0.483
26.04,31981.5,35101.9,-0.3072,1.2206,147.6,97.9,0.483
26.06,32018.0,35167.1,0.3206,1.998,147.6,97.9,0.483
26.08,31969.4,35156.0,-0.5159,1.866,147.6,97.9,0.483
26.1,32049.4,35130.5,0.8612,1.5611,147.6,97.9,0.483
26.12,32084.1,35103.2,1.4585,1.2354,147.6,97.9,0.483
26.14,32041.2,35052.3,0.7205,0.6286,147.6,97.9,0.483
26.16,32032.5,35011.2,0.5715,0.1375,147.6,97.9,0.483
26.18,31973.2,35022.9,-0.4508,0.2776,147.6,97.9,0.483
26.2,31991.4,35059.5,-0.1369,0.7142,147.6,97.9,0.483
26.22,32090.8,34976.0,1.5744,-0.282,147.6,97.9,0.483
26.24,32079.6,35037.9,1.3808,0.4564,147.6,97.9,0.483
26.26,31904.5,34928.5,-1.6323,-0.8483,147.6,97.9,0.483
26.28,31952.4,34995.8,-0.8085,-0.0458,147.6,97.9,0.483
26.3,32012.2,34877.5,0.2221,-1.4577,147.6,97.9,0.483
26.32,32012.0,34904.8,0.2172,-1.1319,147.6,97.9,0.483
26.34,31919.7,34887.9,-1.3714,-1.3335,147.6,97.9,0.483
26.36,31877.2,34837.1,-2.1022,-1.9401,147.6,97.9,0.483
26.38,32057.1,34944.4,0.9951,-0.6589,147.6,97.9,0.483
26.4,31907.1,34878.4,-1.5882,-1.4467,147.6,97.9,0.483
26.42,31973.3,35050.3,-0.449,0.604,147.6,97.9,0.483
26.44,32029.5,35045.9,0.5192,0.5519,147.6,97.9,0.483
26.46,32004.4,35118.3,0.0868,1.4159,147.6,97.9,0.483
26.48,32043.7,35093.3,0.7628,1.1171,147.6,97.9,0.483
26.5,32150.5,35043.0,2.6027,0.5174,147.6,97.9,0.483
26.52,32033.3,35032.7,0.5845,0.3949,147.6,97.9,0.483
26.54,32010.0,35028.1,0.1837,0.3398,147.6,97.9,0.483
26.56,32009.8,35027.2,0.1793,0.3283,147.6,97.9,0.483
26.58,32050.0,34961.9,0.8714,-0.4501,147.6,97.9,0.483
26.6,31966.0,34949.7,-0.5731,-0.5956,147.6,97.9,0.483
26.62,32016.0,35001.8,0.2867,0.0255,147.6,97.9,0.483
26.64,31944.3,35011.6,-0.9475,0.1425,147.6,97.9,0.483
26.66,31942.1,34958.1,-0.9853,-0.4952,147.6,97.9,0.483
26.68,31921.9,34839.9,-1.3334,-1.9061,147.6,97.9,0.483
26.7,31965.0,35064.0,-0.5919,0.768,147.6,97.9,0.483
26.72,31941.6,35002.2,-0.9933,0.0304,147.6,97.9,0.483
26.74,31904.0,34976.9,-1.6412,-0.2718,147.6,97.9,0.483
26.76,31981.8,34944.5,-0.3013,-0.6585,147.6,97.9,0.483
26.78,31990.0,34878.9,-0.1606,-1.4402,147.6,97.9,0.483
26.8,32031.0,34905.9,0.5458,-1.1182,147.6,97.9,0.483
26.82,31911.4,34898.5,-1.5135,-1.2064,147.6,97.9,0.483
26.84,32101.8,35066.5,1.7631,0.7974,147.6,97.9,0.483
26.86,32027.0,35092.2,0.4755,1.1048,147.6,97.9,0.483
26.88,32069.6,35098.0,1.21,1.1741,147.6,97.9,0.483
26.9,32004.1,35101.9,0.0814,1.2207,147.6,97.9,0.483
26.92,32023.8,35134.1,0.4208,1.6044,147.6,97.9,0.483
26.94,32035.0,35064.5,0.6136,0.7743,147.6,97.9,0.483
26.96,32060.5,35034.2,1.0535,0.412,147.6,97.9,0.483
26.98,31974.1,35026.4,-0.4344,0.3194,147.6,97.9,0.483
27.0,32060.5,34954.6,1.0521,-0.5375,147.6,97.9,0.483
27.02,31899.4,34974.7,-1.72,-0.2974,147.6,97.9,0.483
27.04,31931.4,35045.8,-1.1692,0.5508,147.6,97.9,0.483
27.06,31871.4,34938.6,-2.2032,-0.7281,147.6,97.9,0.483
27.08,31974.5,35003.6,-0.428,0.0477,147.6,97.9,0.483
27.1,31913.2,34941.7,-1.4821,-0.6914,147.6,97.9,0.483
27.12,31936.9,34980.5,-1.0758,-0.2283,147.6,97.9,0.483
27.14,31966.6,34854.4,-0.5631,-1.7334,147.6,97.9,0.483
27.16,32030.7,35030.6,0.539,0.3697,147.6,97.9,0.483
27.18,31940.6,34994.2,-1.0119,-0.065,147.6,97.9,0.483
27.2,31974.8,34902.0,-0.422,-1.1646,147.6,97.9,0.483
27.22,32082.5,34960.2,1.4308,-0.4708,147.6,97.9,0.483
27.24,31964.1,34922.1,-0.6074,-0.9247,147.6,97.9,0.483
27.26,32113.6,35131.5,1.967,1.5731,147.6,97.9,0.483
27.28,31988.4,35126.1,-0.1892,1.5089,147.6,97.9,0.483
27.3,32043.2,35180.4,0.7545,2.1572,147.6,97.9,0.483
27.32,32041.5,35049.8,0.7253,0.5987,147.6,97.9,0.483
27.34,32031.6,34983.0,0.5559,-0.1991,147.6,97.9,0.483
27.36,31928.0,34984.8,-1.2279,-0.1775,147.6,97.9,0.483
27.38,32021.1,35022.6,0.375,0.2739,147.6,97.9,0.483
27.4,32070.1,35053.8,1.2182,0.6461,147.6,97.9,0.483
27.42,32002.4,34972.5,0.0518,-0.324,147.6,97.9,0.483
27.44,32042.7,34937.7,0.7465,-0.7393,147.6,97.9,0.483
27.46,32036.9,34969.7,0.647,-0.3572,147.6,97.9,0.483
27.48,31953.4,34963.7,-0.7901,-0.4288,147.6,97.9,0.483
27.5,31992.4,34976.5,-0.1195,-0.2758,147.6,97.9,0.483
27.52,31854.5,34957.9,-2.4927,-0.4976,147.6,97.9,0.483
27.54,32008.5,34957.9,0.157,-0.4981,147.6,97.9,0.483
27.56,31999.5,34902.3,0.0023,-1.1621,147.6,97.9,0.483
27.58,31990.8,34977.1,-0.1465,-0.2692,147.6,97.9,0.483
27.6,31996.3,34929.9,-0.0519,-0.8321,147.6,97.9,0.483
27.62,31903.6,34996.3,-1.6474,-0.0396,147.6,97.9,0.483
27.64,32040.2,34971.9,0.7038,-0.3304,147.6,97.9,0.483
27.66,31993.0,35081.4,-0.1087,0.9762,147.6,97.9,0.483
27.68,31983.2,35116.6,-0.2772,1.3961,147.6,97.9,0.483
27.7,31969.4,35133.1,-0.5162,1.5931,147.6,97.9,0.483
27.72,32087.4,35046.0,1.5158,0.5534,147.6,97.9,0.483
27.74,32013.5,35056.6,0.2441,0.6792,147.6,97.9,0.483
27.76,31957.5,34987.6,-0.7204,-0.144,147.6,97.9,0.483
27.78,32028.2,35047.3,0.4973,0.5691,147.6,97.9,0.483
27.8,32042.0,34977.8,0.7347,-0.2601,147.6,97.9,0.483
27.82,31996.3,34979.8,-0.0517,-0.2368,147.6,97.9,0.483
27.84,32086.7,35017.8,1.5033,0.2166,147.6,97.9,0.483
27.86,31980.7,35029.8,-0.3215,0.3604,147.6,97.9,0.483
27.88,32021.5,35006.2,0.382,0.0782,147.6,97.9,0.483
27.9,32026.6,35005.8,0.4692,0.073,147.6,97.9,0.483
27.92,31884.1,34924.8,-1.9832,-0.893,147.6,97.9,0.483
27.94,31958.7,35069.3,-0.6995,0.8311,147.6,97.9,0.483
27.96,32017.8,34913.8,0.317,-1.0241,147.6,97.9,0.483
27.98,31921.3,34991.2,-1.3432,-0.1011,147.6,97.9,0.483
28.0,31926.9,34964.7,-1.2478,-0.4164,147.6,97.9,0.483
28.02,31913.8,34919.9,-1.4728,-0.951,147.6,97.9,0.483
28.04,32034.0,34964.9,0.5969,-0.4148,147.6,97.9,0.483
28.06,32154.1,35036.2,2.6638,0.4359,147.6,97.9,0.483
28.08,31983.8,35119.6,-0.2681,1.431,147.6,97.9,0.483
28.1,32009.7,35133.2,0.1787,1.5938,147.6,97.9,0.483
28.12,32031.1,35096.8,0.5469,1.159,147.6,97.9,0.483
28.14,31981.4,35080.2,-0.3091,0.9612,147.6,97.9,0.483
28.16,32038.1,35004.4,0.6677,0.0565,147.6,97.9,0.483
28.18,32062.1,34997.1,1.0803,-0.0304,147.6,97.9,0.483
28.2,32028.0,35047.4,0.4934,0.5695,147.6,97.9,0.483
28.22,32013.8,34936.6,0.2484,-0.7521,147.6,97.9,0.483
28.24,31926.7,34997.0,-1.2506,-0.0309,147.6,97.9,0.483
28.26,31960.5,34988.0,-0.6681,-0.1388,147.6,97.9,0.483
28.28,31993.7,34986.4,-0.0966,-0.1579,147.6,97.9,0.483
28.3,31939.8,34939.1,-1.0255,-0.7219,147.6,97.9,0.483
28.32,31912.5,34847.0,-1.4945,-1.8215,147.6,97.9,0.483
28.34,31932.1,35009.9,-1.1569,0.1229,147.6,97.9,0.483
28.36,31937.1,34834.6,-1.0722,-1.9691,147.6,97.9,0.483
28.38,31932.2,34945.1,-1.1563,-0.6511,147.6,97.9,0.483
28.4,31987.5,34906.7,-0.2046,-1.109,147.6,97.9,0.483
28.42,32001.9,34869.5,0.0444,-1.5533,147.6,97.9,0.483
28.44,32000.3,34999.2,0.0157,-0.0047,147.6,97.9,0.483
28.46,32038.4,35014.1,0.6716,0.1723,147.6,97.9,0.483
28.48,32142.7,34995.3,2.4686,-0.052,147.6,97.9,0.483
28.5,32003.7,35089.0,0.0754,1.0664,147.6,97.9,0.483
28.52,32058.1,35114.8,1.011,1.3737,147.6,97.9,0.483
28.54,31991.0,35042.8,-0.1434,0.5147,147.6,97.9,0.483
28.56,31982.7,35206.0,-0.2867,2.463,147.6,97.9,0.483
28.58,31978.5,35084.5,-0.3593,1.0129,147.6,97.9,0.483
28.6,32013.9,35047.0,0.2505,0.5652,147.6,97.9,0.483
28.62,32027.2,35044.8,0.4787,0.5388,147.6,97.9,0.483
28.64,31972.1,35004.0,-0.4691,0.0519,147.6,97.9,0.483
28.66,31945.3,34907.9,-0.9309,-1.0951,147.6,97.9,0.483
28.68,31958.8,34988.7,-0.6985,-0.1308,147.6,97.9,0.483
28.7,31954.1,34951.5,-0.7794,-0.574,147.6,97.9,0.483
28.72,31951.2,34927.2,-0.828,-0.864,147.6,97.9,0.483
28.74,31995.7,34976.5,-0.0635,-0.276,147.6,97.9,0.483
28.76,31924.3,34905.8,-1.2917,-1.1194,147.6,97.9,0.483
28.78,32045.0,34968.2,0.786,-0.3752,147.6,97.9,0.483
28.8,31888.5,34953.6,-1.9081,-0.5491,147.6,97.9,0.483
28.82,31973.7,34922.6,-0.4422,-0.9193,147.6,97.9,0.483
28.84,32004.4,34971.1,0.0876,-0.3401,147.6,97.9,0.483
28.86,32016.3,35066.2,0.2912,0.7939,147.6,97.9,0.483
28.88,31978.9,35035.5,-0.3526,0.4278,147.6,97.9,0.483
28.9,32051.4,35016.1,0.8954,0.1964,147.6,97.9,0.483
28.92,32006.3,35111.9,0.1195,1.3397,147.6,97.9,0.483
28.94,32007.2,35095.9,0.1352,1.1484,147.6,97.9,0.483
28.96,32025.4,35106.0,0.4491,1.2695,147.6,97.9,0.483
28.98,31980.0,35116.3,-0.3325,1.3923,147.6,97.9,0.483
29.0,32020.6,35046.0,0.3659,0.5534,147.6,97.9,0.483
29.02,31916.3,34973.2,-1.4303,-0.315,147.6,97.9,0.483
29.04,32027.1,34929.0,0.4774,-0.8432,147.6,97.9,0.483
29.06,32023.1,35004.8,0.4097,0.0612,147.6,97.9,0.483
29.08,31974.7,34931.2,-0.4244,-0.8168,147.6,97.9,0.483
29.1,31909.3,34915.3,-1.5499,-1.0058,147.6,97.9,0.483
29.12,31878.3,34941.8,-2.0843,-0.6897,147.6,97.9,0.483
29.14,31992.4,34962.7,-0.1189,-0.4413,147.6,97.9,0.483
29.16,31991.8,34994.2,-0.1291,-0.0646,147.6,97.9,0.483
29.18,32070.1,34891.6,1.2174,-1.2888,147.6,97.9,0.483
29.2,32028.3,34843.2,0.4982,-1.8671,147.6,97.9,0.483
29.22,31993.9,34933.9,-0.0946,-0.7841,147.6,97.9,0.483
29.24,31945.5,34987.8,-0.9272,-0.1411,147.6,97.9,0.483
29.26,32003.8,34970.2,0.0772,-0.3513,147.6,97.9,0.483
29.28,32098.4,35028.0,1.7054,0.3385,147.6,97.9,0.483
29.3,32033.8,35124.4,0.5933,1.4885,147.6,97.9,0.483
29.32,32160.9,35084.9,2.7807,1.0169,147.6,97.9,0.483
29.34,31969.4,35146.3,-0.5147,1.7502,147.6,97.9,0.483
29.36,32119.4,35043.4,2.0662,0.5217,147.6,97.9,0.483
29.38,32089.3,35065.0,1.5482,0.7804,147.6,97.9,0.483
29.4,32009.7,35058.8,0.1783,0.7062,147.6,97.9,0.483
29.42,31992.2,35010.7,-0.1236,0.132,147.6,97.9,0.483
29.44,32008.0,34981.1,0.1484,-0.2215,147.6,97.9,0.483
29.46,32079.7,35017.5,1.3829,0.2126,147.6,97.9,0.483
29.48,32001.2,34936.8,0.032,-0.7504,147.6,97.9,0.483
29.5,32024.9,34912.9,0.4402,-1.0346,147.6,97.9,0.483
29.52,31950.7,34977.6,-0.8374,-0.2624,147.6,97.9,0.483
29.54,32027.5,34901.2,0.4853,-1.1752,147.6,97.9,0.483
29.56,31997.5,34936.4,-0.0313,-0.7551,147.6,97.9,0.483
29.58,31982.5,34947.8,-0.2902,-0.6189,147.6,97.9,0.483
29.6,32048.1,34880.8,0.8386,-1.4182,147.6,97.9,0.483
29.62,32006.6,34858.4,0.1253,-1.6857,147.6,97.9,0.483
29.64,31960.4,34961.3,-0.6709,-0.4574,147.6,97.9,0.483
29.66,32004.4,34923.9,0.0867,-0.9036,147.6,97.9,0.483
29.68,32060.0,35024.4,1.0449,0.2951,147.6,97.9,0.483
29.7,32022.0,35014.9,0.3907,0.1822,147.6,97.9,0.483
29.72,32135.7,35142.0,2.3468,1.6986,147.6,97.9,0.483
29.74,31950.1,35081.8,-0.8474,0.9807,147.6,97.9,0.483
29.76,32098.7,34984.3,1.7107,-0.1825,147.6,97.9,0.483
29.78,31995.3,35160.7,-0.0695,1.9222,147.6,97.9,0.483
29.8,31979.8,35160.1,-0.3363,1.9145,147.6,97.9,0.483
29.82,32153.0,34975.9,2.6447,-0.2833,147.6,97.9,0.483
29.84,31989.8,34926.7,-0.1646,-0.87,147.6,97.9,0.483
29.86,32010.5,34876.7,0.1926,-1.4664,147.6,97.9,0.483
29.88,32053.2,35003.7,0.9263,0.0481,147.6,97.9,0.483
29.9,31972.9,34944.1,-0.4554,-0.6625,147.6,97.9,0.483
29.92,32021.8,34889.8,0.3858,-1.3102,147.6,97.9,0.483
29.94,31990.7,34965.7,-0.149,-0.4052,147.6,97.9,0.483
29.96,32053.0,34873.4,0.9231,-1.5064,147.6,97.9,0.483
29.98,31983.3,34925.6,-0.2765,-0.8829,147.6,97.9,0.483
30.0,31892.0,34870.1,-1.8477,-1.5458,147.6,97.9,0.483
30.02,31967.2,34899.6,-0.5538,-1.1935,147.6,97.9,0.483
30.04,31907.3,34907.3,-1.5838,-1.102,147.6,97.9,0.483
30.06,32073.5,34845.4,1.2768,-1.8401,147.6,97.9,0.483
30.08,31992.8,34986.7,-0.1134,-0.1548,147.6,97.9,0.483
30.1,32017.8,35038.0,0.3175,0.4575,147.6,97.9,0.483
30.12,32099.8,35088.2,1.7295,1.0568,147.6,97.9,0.483
30.14,32001.7,35101.2,0.0412,1.2123,147.6,97.9,0.483
30.16,32133.7,35118.5,2.3135,1.4185,147.6,97.9,0.483
30.18,32063.2,35080.1,1.0994,0.9602,147.6,97.9,0.483
30.2,32016.7,35036.9,0.2983,0.4446,147.6,97.9,0.483
30.22,31994.6,34959.4,-0.0812,-0.4805,147.6,97.9,0.483
30.24,32061.7,34905.6,1.0731,-1.1216,147.6,97.9,0.483
30.26,31951.1,35030.8,-0.8311,0.3716,147.6,97.9,0.483
30.28,32088.6,35017.3,1.5361,0.2109,147.6,97.9,0.483
30.3,31932.9,35019.5,-1.1436,0.237,147.6,97.9,0.483
30.32,32010.8,34908.8,0.1974,-1.0842,147.6,97.9,0.483
30.34,31976.0,34992.5,-0.4015,-0.0854,147.6,97.9,0.483
30.36,31946.0,34997.3,-0.9188,-0.0284,147.6,97.9,0.483
30.38,32025.9,34999.9,0.4563,0.0034,147.6,97.9,0.483
30.4,31996.2,34905.8,-0.0535,-1.1201,147.6,97.9,0.483
30.42,31948.6,34906.4,-0.8731,-1.1126,147.6,97.9,0.483
30.44,31905.2,34893.0,-1.6209,-1.2727,147.6,97.9,0.483
30.46,31826.6,34949.5,-2.9744,-0.5987,147.6,97.9,0.483
30.48,31968.8,34990.5,-0.5257,-0.1095,147.6,97.9,0.483
30.5,32082.8,35033.8,1.4362,0.4081,147.6,97.9,0.483
30.52,32059.3,35149.1,1.0327,1.7833,147.6,97.9,0.483
30.54,32109.4,35106.0,1.8942,1.2696,147.6,97.9,0.483
30.56,32115.4,35126.6,1.9978,1.5147,147.6,97.9,0.483
30.58,32139.3,35121.5,2.409,1.4547,147.6,97.9,0.483
30.6,31963.2,35092.4,-0.6218,1.1071,147.6,97.9,0.483
30.62,31940.9,34973.6,-1.0054,-0.3104,147.6,97.9,0.483
30.64,32027.8,35034.2,0.4891,0.4126,147.6,97.9,0.483
30.66,31999.3,34973.3,-0.0004,-0.3139,147.6,97.9,0.483
30.68,32068.2,34992.0,1.1859,-0.0905,147.6,97.9,0.483
30.7,32046.3,34965.1,0.809,-0.412,147.6,97.9,0.483
30.72,31995.2,34978.9,-0.0717,-0.2473,147.6,97.9,0.483
30.74,32036.4,34997.1,0.6386,-0.0299,147.6,97.9,0.483
30.76,32054.5,34988.3,0.9502,-0.1355,147.6,97.9,0.483
30.78,32004.3,34926.0,0.0851,-0.8789,147.6,97.9,0.483
30.8,31973.2,34882.0,-0.4492,-1.4035,147.6,97.9,0.483
30.82,31908.1,34907.4,-1.5704,-1.1007,147.6,97.9,0.483
30.84,31959.9,34917.7,-0.6795,-0.9783,147.6,97.9,0.483
30.86,31955.6,34949.2,-0.7523,-0.602,147.6,97.9,0.483
30.88,32000.1,34944.7,0.0128,-0.6558,147.6,97.9,0.483
30.9,31998.2,35038.0,-0.019,0.4581,147.6,97.9,0.483
30.92,32049.1,35126.6,0.856,1.5146,147.6,97.9,0.483
30.94,32079.2,35158.6,1.3744,1.8973,147.6,97.9,0.483
30.96,32005.5,35139.8,0.1059,1.6723,147.6,97.9,0.483
30.98,31997.9,35052.9,-0.0243,0.6354,147.6,97.9,0.483
31.0,32041.9,35045.2,0.7319,0.5439,147.6,97.9,0.483
31.02,31982.5,34985.1,-0.2894,-0.1731,147.6,97.9,0.483
31.04,32083.3,34989.0,1.4446,-0.1274,147.6,97.9,0.483
31.06,31964.5,35016.5,-0.5999,0.2007,147.6,97.9,0.483
31.08,32027.8,35047.5,0.4894,0.5714,147.6,97.9,0.483
31.1,32069.1,35035.1,1.2006,0.423,147.6,97.9,0.483
31.12,32025.9,34996.6,0.4568,-0.0361,147.6,97.9,0.483
31.14,32012.2,34963.6,0.221,-0.4301,147.6,97.9,0.483
31.16,32060.0,34960.6,1.0446,-0.4663,147.6,97.9,0.483
31.18,31933.6,34966.0,-1.1317,-0.4019,147.6,97.9,0.483
31.2,31896.8,34910.8,-1.765,-1.0599,147.6,97.9,0.483
31.22,31976.2,34937.0,-0.3983,-0.7474,147.6,97.9,0.483
31.24,31995.7,34923.5,-0.0624,-0.9084,147.6,97.9,0.483
31.26,31900.9,34850.2,-1.6955,-1.7829,147.6,97.9,0.483
31.28,32003.2,34871.8,0.0656,-1.5251,147.6,97.9,0.483
31.3,32000.3,35067.3,0.0165,0.8073,147.6,97.9,0.483
31.32,32042.3,35106.8,0.7396,1.2783,147.6,97.9,0.483
31.34,32052.0,35118.4,0.9066,1.4175,147.6,97.9,0.483
31.36,32026.3,35066.4,0.4638,0.7965,147.6,97.9,0.483
31.38,32061.9,35009.2,1.0765,0.114,147.6,97.9,0.483
31.4,32019.2,35001.6,0.3425,0.0237,147.6,97.9,0.483
31.42,32048.7,35049.8,0.849,0.598,147.6,97.9,0.483
31.44,32024.6,35043.8,0.4344,0.527,147.6,97.9,0.483
31.46,31992.6,34991.1,-0.1167,-0.1016,147.6,97.9,0.483
31.48,32090.9,35001.3,1.5754,0.0199,147.6,97.9,0.483
31.5,31999.4,35071.2,0.0016,0.8539,147.6,97.9,0.483
31.52,32028.9,34867.5,0.5093,-1.5772,147.6,97.9,0.483
31.54,31941.8,34951.1,-0.9902,-0.5795,147.6,97.9,0.483
31.56,31963.6,34953.4,-0.6146,-0.5522,147.6,97.9,0.483
31.58,31995.7,34983.9,-0.0627,-0.1875,147.6,97.9,0.483
31.6,31921.1,34928.7,-1.3473,-0.8467,147.6,97.9,0.483
31.62,32026.7,34905.5,0.4717,-1.123,147.6,97.9,0.483
31.64,31943.0,34963.1,-0.9694,-0.4361,147.6,97.9,0.483
31.66,31953.6,34897.7,-0.7881,-1.2167,147.6,97.9,0.483
31.68,31927.8,34936.6,-1.2324,-0.7523,147.6,97.9,0.483
31.7,32003.9,34998.4,0.0791,-0.0152,147.6,97.9,0.483
31.72,32055.3,35025.4,0.9634,0.3073,147.6,97.9,0.483
31.74,32031.1,35034.8,0.5464,0.4193,147.6,97.9,0.483
31.76,32112.7,35173.2,1.9519,2.071,147.6,97.9,0.483
31.78,32027.1,35125.1,0.4776,1.4968,147.6,97.9,0.483
31.8,32027.1,35008.2,0.4777,0.1022,147.6,97.9,0.483
31.82,31935.4,35117.6,-1.1006,1.4078,147.6,97.9,0.483
31.84,32047.1,34981.4,0.8227,-0.2179,147.6,97.9,0.483
31.86,31965.9,34946.4,-0.5757,-0.6358,147.6,97.9,0.483
31.88,32021.6,35015.4,0.3826,0.1884,147.6,97.9,0.483
31.9,31988.4,34976.5,-0.1882,-0.2758,147.6,97.9,0.483
31.92,31961.2,35002.4,-0.6558,0.0325,147.6,97.9,0.483
31.94,31985.7,35062.5,-0.2356,0.7497,147.6,97.9,0.483
31.96,31981.1,34988.6,-0.3134,-0.1312,147.6,97.9,0.483
31.98,32028.7,35002.6,0.5054,0.0356,147.6,97.9,0.483
32.0,31949.6,34958.2,-0.8561,-0.4947,147.6,97.9,0.483
32.02,32017.8,34893.3,0.3177,-1.2689,147.6,97.9,0.483
32.04,31962.2,34945.1,-0.639,-0.6502,147.6,97.9,0.483
32.06,31867.6,34890.9,-2.268,-1.2977,147.6,97.9,0.483
32.08,31912.1,34898.0,-1.5023,-1.2132,147.6,97.9,0.483
32.1,32014.6,35042.3,0.2624,0.5093,147.6,97.9,0.483
32.12,31955.9,34985.3,-0.7487,-0.1711,147.6,97.9,0.483
32.14,32063.8,35172.7,1.1088,2.0646,147.6,97.9,0.483
32.16,32085.2,35050.2,1.4787,0.6034,147.6,97.9,0.483
32.18,32067.7,35133.1,1.1765,1.5928,147.6,97.9,0.483
32.2,31998.5,35054.7,-0.0148,0.657,147.6,97.9,0.483
32.22,31981.7,35095.7,-0.3037,1.1466,147.6,97.9,0.483
32.24,31974.9,35032.7,-0.4199,0.3943,147.6,97.9,0.483
32.26,32031.1,35042.9,0.546,0.5164,147.6,97.9,0.483
32.28,32067.2,35066.7,1.1673,0.8004,147.6,97.9,0.483
32.3,31975.0,35036.0,-0.4188,0.4333,147.6,97.9,0.483
32.32,32009.0,34913.6,0.1666,-1.0269,147.6,97.9,0.483
32.34,31947.2,34949.8,-0.8973,-0.5943,147.6,97.9,0.483
32.36,32090.5,35059.9,1.5695,0.7194,147.6,97.9,0.483
32.38,31933.4,34962.5,-1.1358,-0.4426,147.6,97.9,0.483
32.4,31946.6,34964.4,-0.9072,-0.42,147.6,97.9,0.483
32.42,32049.8,34924.6,0.8689,-0.8952,147.6,97.9,0.483
32.44,31995.6,34928.4,-0.0646,-0.8503,147.6,97.9,0.483
32.46,32027.3,34883.9,0.4817,-1.3807,147.6,97.9,0.483
32.48,31991.0,34799.7,-0.1431,-2.3853,147.6,97.9,0.483
32.5,31949.5,34964.8,-0.8587,-0.4155,147.6,97.9,0.483
32.52,31975.7,34890.7,-0.4072,-1.3002,147.6,97.9,0.483
32.54,31967.4,35011.9,-0.55,0.1461,147.6,97.9,0.483
32.56,31995.9,35167.3,-0.0592,2.0011,147.6,97.9,0.483
32.58,32133.4,35151.3,2.3084,1.8101,147.6,97.9,0.483
32.6,31964.2,35123.0,-0.6048,1.472,147.6,97.9,0.483
32.62,32012.7,35093.7,0.2307,1.1224,147.6,97.9,0.483
32.64,31944.9,34971.6,-0.937,-0.3345,147.6,97.9,0.483
32.66,32000.0,35006.3,0.012,0.0798,147.6,97.9,0.483
32.68,32038.5,35090.9,0.6733,1.0885,147.6,97.9,0.483
32.7,31971.0,34978.7,-0.4883,-0.2496,147.6,97.9,0.483
32.72,32025.7,35072.6,0.4541,0.8703,147.6,97.9,0.483
32.74,32066.7,34976.5,1.1603,-0.2767,147.6,97.9,0.483
32.76,31996.9,34962.6,-0.0417,-0.4421,147.6,97.9,0.483
32.78,31967.6,35076.8,-0.5472,0.9211,147.6,97.9,0.483
32.8,31981.4,34982.2,-0.309,-0.2085,147.6,97.9,0.483
32.82,31920.9,34952.8,-1.3499,-0.5595,147.6,97.9,0.483
32.84,31984.6,34885.3,-0.253,-1.3647,147.6,97.9,0.483
32.86,31936.3,34799.0,-1.0853,-2.3942,147.6,97.9,0.483
32.88,32032.1,34925.4,0.5646,-0.886,147.6,97.9,0.483
32.9,32024.5,34962.8,0.4327,-0.4398,147.6,97.9,0.483
32.92,32011.1,34959.3,0.2024,-0.4813,147.6,97.9,0.483
32.94,32153.8,35093.9,2.659,1.1243,147.6,97.9,0.483
32.96,31999.3,35117.1,-0.0004,1.402,147.6,97.9,0.483
32.98,31987.7,35061.0,-0.2009,0.7328,147.6,97.9,0.483
33.0,32096.1,35121.6,1.6664,1.4558,147.6,97.9,0.483
33.02,32129.5,35087.0,2.2406,1.0429,147.6,97.9,0.483
33.04,32001.1,35184.4,0.0295,2.2053,147.6,97.9,0.483
33.06,32016.7,35012.0,0.2988,0.1473,147.6,97.9,0.483
33.08,31926.8,35014.1,-1.2481,0.172,147.6,97.9,0.483
33.1,32026.1,35059.9,0.4611,0.7191,147.6,97.9,0.483
33.12,32030.8,34951.0,0.5414,-0.5804,147.6,97.9,0.483
33.14,31995.9,35013.6,-0.06,0.1662,147.6,97.9,0.483
33.16,31990.5,34986.1,-0.1522,-0.1618,147.6,97.9,0.483
33.18,32058.6,35007.0,1.0204,0.0874,147.6,97.9,0.483
33.2,31939.4,34962.3,-1.0322,-0.4451,147.6,97.9,0.483
33.22,31980.9,34959.4,-0.3168,-0.4805,147.6,97.9,0.483
33.24,32007.5,34981.6,0.141,-0.215,147.6,97.9,0.483
33.26,31940.0,34971.4,-1.0214,-0.3373,147.6,97.9,0.483
33.28,32005.0,34926.2,0.0972,-0.8758,147.6,97.9,0.483
33.3,31948.2,34975.5,-0.8804,-0.2874,147.6,97.9,0.483
33.32,31972.3,35010.4,-0.4662,0.1282,147.6,97.9,0.483
33.34,31998.2,35049.1,-0.0205,0.5903,147.6,97.9,0.483
33.36,32057.7,35056.4,1.0048,0.6776,147.6,97.9,0.483
33.38,32104.2,35151.5,1.8043,1.8123,147.6,97.9,0.483
33.4,32069.4,35174.1,1.2063,2.0816,147.6,97.9,0.483
33.42,32090.5,35012.0,1.5697,0.1477,147.6,97.9,0.483
33.44,32068.9,34948.0,1.1971,-0.6157,147.6,97.9,0.483
33.46,32095.5,35012.1,1.6558,0.149,147.6,97.9,0.483
33.48,32049.7,34984.7,0.866,-0.1777,147.6,97.9,0.483
33.5,31973.7,34923.3,-0.4415,-0.9109,147.6,97.9,0.483
33.52,31999.9,34941.4,0.0091,-0.695,147.6,97.9,0.483
33.54,31956.0,35048.8,-0.7456,0.587,147.6,97.9,0.483
33.56,32036.7,34970.8,0.6423,-0.3447,147.6,97.9,0.483
33.58,32120.7,34893.0,2.0886,-1.273,147.6,97.9,0.483
33.6,31947.7,34865.0,-0.8886,-1.607,147.6,97.9,0.483
33.62,32080.9,34926.0,1.4036,-0.8788,147.6,97.9,0.483
33.64,31903.1,34920.4,-1.6569,-0.9454,147.6,97.9,0.483
33.66,31851.2,35005.5,-2.5498,0.0694,147.6,97.9,0.483
33.68,32011.7,35005.2,0.2128,0.0663,147.6,97.9,0.483
33.7,31958.3,34979.8,-0.7068,-0.2371,147.6,97.9,0.483
33.72,31967.6,34984.6,-0.5466,-0.1791,147.6,97.9,0.483
33.74,32016.6,35025.3,0.2973,0.3059,147.6,97.9,0.483
33.76,32022.1,35037.1,0.3921,0.4471,147.6,97.9,0.483
33.78,31996.7,35103.7,-0.045,1.2422,147.6,97.9,0.483
33.8,32006.8,35081.2,0.1283,0.9734,147.6,97.9,0.483
33.82,32135.6,35099.9,2.3455,1.1967,147.6,97.9,0.483
33.84,32029.9,35138.6,0.5261,1.6585,147.6,97.9,0.483
33.86,32035.7,35068.3,0.626,0.8189,147.6,97.9,0.483
33.88,32010.2,35007.1,0.1868,0.0886,147.6,97.9,0.483
33.9,31975.0,34942.3,-0.4198,-0.6843,147.6,97.9,0.483
33.92,32056.5,35073.3,0.9834,0.8793,147.6,97.9,0.483
33.94,32013.9,35008.3,0.2499,0.1038,147.6,97.9,0.483
33.96,31991.1,35018.0,-0.142,0.2195,147.6,97.9,0.483
33.98,31885.0,34966.3,-1.9682,-0.3975,147.6,97.9,0.483
34.0,31952.5,34938.5,-0.8058,-0.7293,147.6,97.9,0.483
34.02,32019.5,34911.0,0.3474,-1.0579,147.6,97.9,0.483
34.04,31959.9,34879.8,-0.6794,-1.4303,147.6,97.9,0.483
34.06,31965.7,34916.0,-0.579,-0.9985,147.6,97.9,0.483
34.08,31951.3,34953.4,-0.8275,-0.5512,147.6,97.9,0.483
34.1,31964.7,34997.5,-0.5969,-0.0255,147.6,97.9,0.483
34.12,32049.6,34945.7,0.865,-0.6435,147.6,97.9,0.483
34.14,31873.8,35010.9,-2.1616,0.135,147.6,97.9,0.483
34.16,31987.0,35059.6,-0.2123,0.7154,147.6,97.9,0.483
34.18,32045.7,35102.0,0.7978,1.2215,147.6,97.9,0.483
34.2,32007.9,35124.5,0.1469,1.4895,147.6,97.9,0.483
34.22,31979.8,35155.7,-0.3364,1.8627,147.6,97.9,0.483
34.24,31994.7,34981.1,-0.0795,-0.2216,147.6,97.9,0.483
34.26,31996.0,35063.0,-0.0583,0.7555,147.6,97.9,0.483
34.28,31915.6,35124.5,-1.441,1.4896,147.6,97.9,0.483
34.3,32085.5,35052.1,1.4839,0.6255,147.6,97.9,0.483
34.32,31996.1,34959.1,-0.0563,-0.484,147.6,97.9,0.483
34.34,32017.7,34997.9,0.3163,-0.0204,147.6,97.9,0.483
34.36,31931.1,34947.3,-1.1747,-0.6243,147.6,97.9,0.483
34.38,31901.3,34968.6,-1.688,-0.37,147.6,97.9,0.483
34.4,32023.1,35050.4,0.4087,0.6061,147.6,97.9,0.483
34.42,31951.2,34938.9,-0.8285,-0.725,147.6,97.9,0.483
34.44,32014.9,34931.1,0.268,-0.8175,147.6,97.9,0.483
34.46,31930.5,34900.8,-1.1844,-1.1797,147.6,97.9,0.483
34.48,32003.9,34911.8,0.0785,-1.0483,147.6,97.9,0.483
34.5,31951.8,34964.0,-0.8182,-0.4255,147.6,97.9,0.483
34.52,31991.4,34933.1,-0.1364,-0.7943,147.6,97.9,0.483
34.54,32013.4,35005.2,0.2421,0.0667,147.6,97.9,0.483
34.56,32085.1,35002.1,1.4768,0.0288,147.6,97.9,0.483
34.58,32091.1,35134.0,1.58,1.6038,147.6,97.9,0.483
34.6,32046.7,35156.2,0.8156,1.8683,147.6,97.9,0.483
34.62,32124.0,35122.3,2.1459,1.4643,147.6,97.9,0.483
34.64,31966.3,35150.9,-0.5683,1.805,147.6,97.9,0.483
34.66,31980.8,35129.3,-0.3199,1.5476,147.6,97.9,0.483
34.68,32047.0,35167.1,0.8196,1.9984,147.6,97.9,0.483
34.7,32016.7,35016.4,0.2992,0.1995,147.6,97.9,0.483
34.72,31928.6,34992.2,-1.2174,-0.089,147.6,97.9,0.483
34.74,31924.5,35061.0,-1.2886,0.7326,147.6,97.9,0.483
34.76,32014.8,34983.4,0.2662,-0.1937,147.6,97.9,0.483
34.78,31946.9,35003.6,-0.9035,0.0479,147.6,97.9,0.483
34.8,31974.5,35010.3,-0.4277,0.1273,147.6,97.9,0.483
34.82,31986.3,34926.7,-0.2241,-0.8705,147.6,97.9,0.483
34.84,31983.0,34973.9,-0.2812,-0.3067,147.6,97.9,0.483
34.86,31956.7,34907.8,-0.7341,-1.0959,147.6,97.9,0.483
34.88,31985.4,34995.3,-0.2392,-0.0518,147.6,97.9,0.483
34.9,31959.6,34902.5,-0.6839,-1.1589,147.6,97.9,0.483
34.92,31986.7,34909.3,-0.2171,-1.0783,147.6,97.9,0.483
34.94,32016.1,34940.6,0.2879,-0.705,147.6,97.9,0.483
34.96,31973.7,34955.6,-0.4414,-0.5255,147.6,97.9,0.483
34.98,32084.5,35061.8,1.466,0.7423,147.6,97.9,0.483
35.0,32047.6,35060.2,0.8308,0.723,147.6,97.9,0.483
35.02,32009.9,35288.3,0.1816,3.4445,147.6,97.9,0.483
35.04,32003.1,35033.9,0.0652,0.4086,147.6,97.9,0.483
35.06,32030.9,35011.4,0.5436,0.1406,147.6,97.9,0.483
35.08,32034.5,34991.2,0.606,-0.1009,147.6,97.9,0.483
35.1,32046.8,35069.4,0.8177,0.833,147.6,97.9,0.483
35.12,31997.3,35072.3,-0.0353,0.8674,147.6,97.9,0.483
35.14,32070.6,35107.2,1.2264,1.283,147.6,97.9,0.483
35.16,32037.0,35061.1,0.6477,0.7332,147.6,97.9,0.483
35.18,32043.0,34957.5,0.7523,-0.5028,147.6,97.9,0.483
35.2,32075.8,34883.0,1.3166,-1.3922,147.6,97.9,0.483
35.22,31983.9,34987.6,-0.2658,-0.1433,147.6,97.9,0.483
35.24,31946.0,34877.2,-0.9182,-1.4613,147.6,97.9,0.483
35.26,32013.5,34910.2,0.2438,-1.0675,147.6,97.9,0.483
35.28,31965.3,34872.5,-0.5859,-1.5176,147.6,97.9,0.483
35.3,31922.5,34849.8,-1.323,-1.7884,147.6,97.9,0.483
35.32,31967.4,34937.1,-0.5491,-0.7464,147.6,97.9,0.483
35.34,32054.9,35020.1,0.9565,0.2444,147.6,97.9,0.483
35.36,31949.3,35024.0,-0.8618,0.2906,147.6,97.9,0.483
35.38,32089.2,35053.5,1.546,0.6431,147.6,97.9,0.483
35.4,32032.0,35103.7,0.5614,1.242,147.6,97.9,0.483
35.42,32090.5,35094.3,1.5693,1.1295,147.6,97.9,0.483
35.44,32056.0,35052.9,0.9758,0.6354,147.6,97.9,0.483
35.46,31976.2,35046.5,-0.3988,0.5596,147.6,97.9,0.483
35.48,32020.5,35113.6,0.3634,1.3603,147.6,97.9,0.483
35.5,32061.9,35013.3,1.0766,0.1632,147.6,97.9,0.483
35.52,32055.9,35012.6,0.9732,0.1546,147.6,97.9,0.483
35.54,32006.7,35025.5,0.1259,0.3082,147.6,97.9,0.483
35.56,31973.2,34997.0,-0.4502,-0.0311,147.6,97.9,0.483
35.58,31947.7,35001.2,-0.8891,0.0183,147.6,97.9,0.483
35.6,31985.7,34970.7,-0.2357,-0.3452,147.6,97.9,0.483
35.62,31948.6,34942.1,-0.8729,-0.686,147.6,97.9,0.483
35.64,31934.1,34931.9,-1.1226,-0.8077,147.6,97.9,0.483
35.66,31978.5,34869.9,-0.3589,-1.5476,147.6,97.9,0.483
35.68,32032.7,34960.2,0.575,-0.4704,147.6,97.9,0.483
35.7,31994.5,34800.2,-0.0835,-2.3802,147.6,97.9,0.483
35.72,31933.8,34927.1,-1.1286,-0.8652,147.6,97.9,0.483
35.74,32000.2,34968.7,0.0153,-0.3693,147.6,97.9,0.483
35.76,31895.7,34966.2,-1.7835,-0.3989,147.6,97.9,0.483
35.78,32018.4,35046.2,0.3284,0.5552,147.6,97.9,0.483
35.8,32099.8,35151.0,1.7301,1.8066,147.6,97.9,0.483
35.82,32052.9,35120.8,0.922,1.4462,147.6,97.9,0.483
35.84,32074.1,35124.4,1.2863,1.4892,147.6,97.9,0.483
35.86,32149.2,35123.8,2.5805,1.4815,147.6,97.9,0.483
35.88,31984.1,35052.6,-0.263,0.6315,147.6,97.9,0.483
35.9,31949.1,34993.8,-0.8653,-0.0698,147.6,97.9,0.483
35.92,32015.7,35077.9,0.2819,0.9337,147.6,97.9,0.483
35.94,32060.0,34979.5,1.0445,-0.2397,147.6,97.9,0.483
35.96,32051.4,34977.8,0.8968,-0.2611,147.6,97.9,0.483
35.98,32030.2,35011.4,0.5316,0.1407,147.6,97.9,0.483
36.0,31965.9,34990.2,-0.5757,-0.113,147.6,97.9,0.483
36.02,32006.8,34969.2,0.1286,-0.3629,147.6,97.9,0.483
36.04,32029.8,34904.3,0.5243,-1.1377,147.6,97.9,0.483
36.06,32008.0,34981.1,0.1483,-0.2207,147.6,97.9,0.483
36.08,32034.7,34897.0,0.6094,-1.2251,147.6,97.9,0.483
36.1,31963.6,34867.4,-0.6146,-1.5774,147.6,97.9,0.483
36.12,31980.2,34846.4,-0.3303,-1.8287,147.6,97.9,0.483
36.14,32007.4,34910.3,0.1394,-1.0656,147.6,97.9,0.483
36.16,31974.2,34887.0,-0.4322,-1.3441,147.6,97.9,0.483
36.18,32036.9,34952.1,0.6471,-0.5669,147.6,97.9,0.483
36.2,32008.3,35119.9,0.1535,1.4355,147.6,97.9,0.483
36.22,32069.8,35081.0,1.2125,0.9704,147.6,97.9,0.483
36.24,31968.0,35149.1,-0.5397,1.7832,147.6,97.9,0.483
36.26,32041.9,35073.6,0.7333,0.8822,147.6,97.9,0.483
36.28,32079.3,35138.2,1.3759,1.6535,147.6,97.9,0.483
36.3,31978.3,35065.7,-0.3614,0.7882,147.6,97.9,0.483
36.32,32077.5,35010.9,1.3451,0.1349,147.6,97.9,0.483
36.34,31996.7,34887.2,-0.045,-1.3417,147.6,97.9,0.483
36.36,32040.0,35013.2,0.6994,0.1619,147.6,97.9,0.483
36.38,31976.5,35042.9,-0.3939,0.5164,147.6,97.9,0.483
36.4,32030.6,34937.6,0.5381,-0.7403,147.6,97.9,0.483
36.42,31947.5,34909.2,-0.8918,-1.079,147.6,97.9,0.483
36.44,32034.6,34988.6,0.6073,-0.1316,147.6,97.9,0.483
36.46,31941.0,34952.5,-1.0046,-0.562,147.6,97.9,0.483
36.48,31976.2,34954.8,-0.3979,-0.535,147.6,97.9,0.483
36.5,32044.5,34957.1,0.7776,-0.5079,147.6,97.9,0.483
36.52,31864.4,34816.1,-2.3222,-2.1902,147.6,97.9,0.483
36.54,32066.9,34976.6,1.1623,-0.2755,147.6,97.9,0.483
36.56,31911.0,34936.9,-1.5213,-0.7488,147.6,97.9,0.483
36.58,32059.3,34977.4,1.0317,-0.2659,147.6,97.9,0.483
36.6,32007.8,35068.0,0.1461,0.8156,147.6,97.9,0.483
36.62,32141.1,35089.3,2.4396,1.0701,147.6,97.9,0.483
36.64,32036.8,35088.0,0.6445,1.0548,147.6,97.9,0.483
36.66,32039.6,35122.5,0.6936,1.4665,147.6,97.9,0.483
36.68,32017.8,35033.3,0.3179,0.4019,147.6,97.9,0.483
36.7,32038.6,35074.3,0.6759,0.8914,147.6,97.9,0.483
36.72,32010.5,34910.4,0.1924,-1.0643,147.6,97.9,0.483
36.74,32040.9,35001.3,0.7161,0.0193,147.6,97.9,0.483
36.76,32004.9,34952.0,0.0949,-0.5681,147.6,97.9,0.483
36.78,32041.6,35063.2,0.7269,0.7581,147.6,97.9,0.483
36.8,31900.7,34882.2,-1.6981,-1.4011,147.6,97.9,0.483
36.82,31944.5,34867.9,-0.9439,-1.5726,147.6,97.9,0.483
36.84,31957.4,34993.1,-0.7222,-0.0775,147.6,97.9,0.483
36.86,31971.9,34874.8,-0.4725,-1.4901,147.6,97.9,0.483
36.88,31998.8,34929.9,-0.0099,-0.8323,147.6,97.9,0.483
36.9,32026.1,34942.1,0.4612,-0.6862,147.6,97.9,0.483
36.92,31843.8,34939.8,-2.6773,-0.7139,147.6,97.9,0.483
36.94,31961.0,34983.0,-0.6597,-0.199,147.6,97.9,0.483
36.96,31930.0,34926.6,-1.1939,-0.8718,147.6,97.9,0.483
36.98,31978.5,34943.8,-0.3588,-0.6662,147.6,97.9,0.483
37.0,32073.4,35033.0,1.2756,0.3986,147.6,97.9,0.483
37.02,32041.9,35109.5,0.7319,1.311,147.6,97.9,0.483
37.04,32080.6,35113.8,1.3988,1.3621,147.6,97.9,0.483
37.06,32051.7,35034.1,0.9006,0.4115,147.6,97.9,0.483
37.08,32019.6,35155.8,0.3485,1.8635,147.6,97.9,0.483
37.1,31967.4,35118.2,-0.5491,1.415,147.6,97.9,0.483
37.12,32026.3,35027.4,0.4633,0.3316,147.6,97.9,0.483
37.14,31983.9,35029.9,-0.265,0.3613,147.6,97.9,0.483
37.16,31989.0,35037.5,-0.1775,0.4519,147.6,97.9,0.483
37.18,31890.6,35103.1,-1.8716,1.2341,147.6,97.9,0.483
37.2,31976.8,35016.2,-0.3873,0.1981,147.6,97.9,0.483
37.22,31988.6,35024.0,-0.1848,0.291,147.6,97.9,0.483
37.24,31972.9,34975.9,-0.4546,-0.2838,147.6,97.9,0.483
37.26,31982.3,34946.0,-0.2931,-0.6406,147.6,97.9,0.483
37.28,32141.5,34948.3,2.4476,-0.612,147.6,97.9,0.483
37.3,31921.0,34845.1,-1.3493,-1.8446,147.6,97.9,0.483
37.32,32030.3,34919.0,0.5332,-0.9626,147.6,97.9,0.483
37.34,31909.2,34865.1,-1.5521,-1.6059,147.6,97.9,0.483
37.36,31979.2,34946.7,-0.3465,-0.6322,147.6,97.9,0.483
37.38,32072.3,34915.0,1.2562,-1.0099,147.6,97.9,0.483
37.4,32052.4,35025.4,0.914,0.3075,147.6,97.9,0.483
37.42,32023.8,35097.4,0.4208,1.1664,147.6,97.9,0.483
37.44,31942.5,35106.0,-0.9791,1.2691,147.6,97.9,0.483
37.46,32095.6,35133.5,1.6577,1.597,147.6,97.9,0.483
37.48,31928.1,35114.0,-1.2259,1.3649,147.6,97.9,0.483
37.5,31952.1,34960.0,-0.8126,-0.4732,147.6,97.9,0.483
37.52,32032.4,35029.5,0.569,0.356,147.6,97.9,0.483
37.54,31998.8,34990.6,-0.0093,-0.1073,147.6,97.9,0.483
37.56,31939.7,35030.8,-1.0259,0.3721,147.6,97.9,0.483
37.58,32020.7,34991.2,0.3672,-0.1011,147.6,97.9,0.483
37.6,32038.4,35022.8,0.6727,0.276,147.6,97.9,0.483
37.62,32074.7,34937.4,1.2969,-0.7425,147.6,97.9,0.483
37.64,32010.8,34913.6,0.1973,-1.0272,147.6,97.9,0.483
37.66,31997.8,34978.5,-0.0269,-0.2527,147.6,97.9,0.483
37.68,31972.1,35006.2,-0.4692,0.0778,147.6,97.9,0.483
37.7,31980.9,34925.6,-0.3177,-0.8839,147.6,97.9,0.483
37.72,31949.9,34943.7,-0.8507,-0.6673,147.6,97.9,0.483
37.74,31969.6,34856.6,-0.5124,-1.7069,147.6,97.9,0.483
37.76,31925.5,34963.1,-1.2718,-0.4362,147.6,97.9,0.483
37.78,31977.3,34902.0,-0.3799,-1.1649,147.6,97.9,0.483
37.8,31936.1,35030.7,-1.0886,0.3703,147.6,97.9,0.483
37.82,32065.5,35101.9,1.1382,1.2204,147.6,97.9,0.483
37.84,32084.7,35086.6,1.4696,1.0377,147.6,97.9,0.483
37.86,32137.4,35177.3,2.3763,2.1195,147.6,97.9,0.483
37.88,31958.2,35091.3,-0.7085,1.0938,147.6,97.9,0.483
37.9,32068.2,35055.9,1.1846,0.6709,147.6,97.9,0.483
37.92,31970.0,35062.4,-0.5051,0.749,147.6,97.9,0.483
37.94,31972.2,35123.3,-0.4677,1.4756,147.6,97.9,0.483
37.96,32042.2,35007.4,0.7386,0.0928,147.6,97.9,0.483
37.98,31933.5,34967.3,-1.1342,-0.3853,147.6,97.9,0.483
38.0,31956.4,35000.5,-0.7396,0.0104,147.6,97.9,0.483
38.02,31903.3,34927.1,-1.6528,-0.8652,147.6,97.9,0.483
38.04,31892.1,34953.5,-1.8454,-0.5508,147.6,97.9,0.483
38.06,31969.8,34984.0,-0.5086,-0.1861,147.6,97.9,0.483
38.08,31993.4,34882.8,-0.1029,-1.3936,147.6,97.9,0.483
38.1,31975.3,34956.9,-0.4132,-0.5097,147.6,97.9,0.483
38.12,31913.6,35009.7,-1.4753,0.1203,147.6,97.9,0.483
38.14,31974.5,34927.1,-0.4279,-0.8661,147.6,97.9,0.483
38.16,31952.0,34914.6,-0.8152,-1.0146,147.6,97.9,0.483
38.18,31971.7,34971.9,-0.4751,-0.3307,147.6,97.9,0.483
38.2,32099.6,34953.9,1.7258,-0.5454,147.6,97.9,0.483
38.22,31996.2,35113.5,-0.0544,1.3592,147.6,97.9,0.483
38.24,31983.2,35141.6,-0.2782,1.6935,147.6,97.9,0.483
38.26,31992.8,35099.1,-0.1119,1.1874,147.6,97.9,0.483
38.28,32047.3,35261.8,0.8262,3.1278,147.6,97.9,0.483
38.3,32049.9,35125.8,0.8708,1.505,147.6,97.9,0.483
38.32,32021.8,34993.6,0.3863,-0.0717,147.6,97.9,0.483
38.34,32040.2,34996.0,0.7041,-0.0434,147.6,97.9,0.483
38.36,32025.2,35030.6,0.4451,0.3696,147.6,97.9,0.483
38.38,31959.1,35038.3,-0.6919,0.4617,147.6,97.9,0.483
38.4,32048.5,35018.4,0.8468,0.2233,147.6,97.9,0.483
38.42,31915.2,35003.8,-1.4478,0.0493,147.6,97.9,0.483
38.44,32101.8,35038.2,1.7632,0.4605,147.6,97.9,0.483
38.46,32012.2,34969.8,0.2216,-0.3563,147.6,97.9,0.483
38.48,32054.6,34998.8,0.9517,-0.0102,147.6,97.9,0.483
38.5,32014.9,34839.7,0.2682,-1.9083,147.6,97.9,0.483
38.52,31993.2,34915.4,-0.1065,-1.0051,147.6,97.9,0.483
38.54,31911.5,34849.9,-1.5126,-1.7867,147.6,97.9,0.483
38.56,32055.5,35007.6,0.9674,0.0955,147.6,97.9,0.483
38.58,31964.2,34956.5,-0.6042,-0.5142,147.6,97.9,0.483
38.6,32037.9,34938.8,0.663,-0.7254,147.6,97.9,0.483
38.62,32078.9,34986.6,1.369,-0.1557,147.6,97.9,0.483
38.64,32116.3,35080.0,2.0137,0.9592,147.6,97.9,0.483
38.66,32079.3,35167.6,1.3772,2.0047,147.6,97.9,0.483
38.68,32032.9,35143.8,0.5784,1.7204,147.6,97.9,0.483
38.7,31970.8,35112.1,-0.4914,1.3415,147.6,97.9,0.483
38.72,32197.2,35068.1,3.4052,0.8168,147.6,97.9,0.483
38.74,32075.8,34939.8,1.3161,-0.714,147.6,97.9,0.483
38.76,32009.0,35029.9,0.1663,0.3611,147.6,97.9,0.483
38.78,31916.4,35067.4,-1.4282,0.8087,147.6,97.9,0.483
38.8,32010.5,34998.0,0.1912,-0.02,147.6,97.9,0.483
38.82,31991.7,35010.7,-0.131,0.1315,147.6,97.9,0.483
38.84,31994.3,34988.9,-0.0868,-0.1287,147.6,97.9,0.483
38.86,31951.5,34934.8,-0.823,-0.7733,147.6,97.9,0.483
38.88,32023.9,35005.7,0.4228,0.0728,147.6,97.9,0.483
38.9,31940.7,34922.7,-1.0096,-0.9177,147.6,97.9,0.483
38.92,31982.4,34839.8,-0.2921,-1.9072,147.6,97.9,0.483
38.94,31943.7,34929.8,-0.9586,-0.8338,147.6,97.9,0.483
38.96,32033.8,34857.0,0.5935,-1.7024,147.6,97.9,0.483
38.98,32012.8,34912.5,0.2312,-1.0397,147.6,97.9,0.483
39.0,31855.5,34974.9,-2.4762,-0.2946,147.6,97.9,0.483
39.02,32095.1,34996.2,1.6487,-0.0408,147.6,97.9,0.483
39.04,31928.7,35010.5,-1.2154,0.1295,147.6,97.9,0.483
39.06,32100.7,35081.7,1.7439,0.9796,147.6,97.9,0.483
39.08,31991.0,35128.0,-0.1434,1.5318,147.6,97.9,0.483
39.1,32023.7,35086.4,0.4197,1.0358,147.6,97.9,0.483
39.12,32117.2,35067.0,2.0294,0.804,147.6,97.9,0.483
39.14,32094.1,35076.2,1.6318,0.9141,147.6,97.9,0.483
39.16,31933.9,34995.7,-1.1271,-0.0466,147.6,97.9,0.483
39.18,32026.6,34965.6,0.4691,-0.4057,147.6,97.9,0.483
39.2,31983.2,35058.8,-0.2777,0.7058,147.6,97.9,0.483
39.22,32020.3,34911.5,0.36,-1.0523,147.6,97.9,0.483
39.24,31952.9,35000.2,-0.7998,0.0067,147.6,97.9,0.483
39.26,31964.8,34952.6,-0.5949,-0.5618,147.6,97.9,0.483
39.28,32095.6,35037.0,1.6567,0.4457,147.6,97.9,0.483
39.3,31968.8,34948.1,-0.5266,-0.6145,147.6,97.9,0.483
39.32,31995.5,34904.1,-0.0663,-1.1397,147.6,97.9,0.483
39.34,32017.5,34898.9,0.3131,-1.2017,147.6,97.9,0.483
39.36,31992.6,34921.6,-0.1154,-0.9307,147.6,97.9,0.483
39.38,31975.6,34869.2,-0.4079,-1.5567,147.6,97.9,0.483
39.4,31902.3,34894.8,-1.6697,-1.2515,147.6,97.9,0.483
39.42,31958.0,34889.3,-0.7123,-1.3168,147.6,97.9,0.483
39.44,31929.6,34935.4,-1.2013,-0.7659,147.6,97.9,0.483
39.46,32102.4,35038.5,1.7736,0.464,147.6,97.9,0.483
39.48,32068.6,35094.1,1.193,1.1274,147.6,97.9,0.483
39.5,32043.8,35124.2,0.7658,1.4868,147.6,97.9,0.483
39.52,32005.6,35018.7,0.1074,0.227,147.6,97.9,0.483
39.54,31992.4,35141.8,-0.1197,1.697,147.6,97.9,0.483
39.56,31912.5,35015.1,-1.4943,0.1848,147.6,97.9,0.483
39.58,31910.6,35034.0,-1.5273,0.4098,147.6,97.9,0.483
39.6,32067.6,35074.1,1.1747,0.8883,147.6,97.9,0.483
39.62,31968.9,35150.2,-0.5236,1.797,147.6,97.9,0.483
39.64,31958.2,34999.8,-0.7088,0.0014,147.6,97.9,0.483
39.66,31944.4,34983.3,-0.9461,-0.1946,147.6,97.9,0.483
39.68,31993.5,35001.7,-0.1008,0.0249,147.6,97.9,0.483
39.7,32004.9,35039.0,0.0955,0.4698,147.6,97.9,0.483
39.72,32014.3,34899.1,0.2582,-1.1992,147.6,97.9,0.483
39.74,31955.7,34921.3,-0.7508,-0.935,147.6,97.9,0.483
39.76,31887.2,34894.3,-1.9298,-1.2574,147.6,97.9,0.483
39.78,31863.2,34937.2,-2.3429,-0.745,147.6,97.9,0.483
39.8,31956.7,34904.4,-0.7345,-1.1362,147.6,97.9,0.483
39.82,32079.6,34988.3,1.3812,-0.1348,147.6,97.9,0.483
39.84,32011.5,34953.8,0.2095,-0.547,147.6,97.9,0.483
39.86,32031.8,35174.2,0.558,2.0825,147.6,97.9,0.483
39.88,32053.7,35125.5,0.9354,1.5022,147.6,97.9,0.483
39.9,32034.0,35085.9,0.5964,1.0295,147.6,97.9,0.483
39.92,32127.5,35055.6,2.2066,0.6672,147.6,97.9,0.483
39.94,32073.1,35089.8,1.2695,1.0758,147.6,97.9,0.483
39.96,32042.0,34986.4,0.7342,-0.1574,147.6,97.9,0.483
39.98,31996.3,35010.7,-0.0523,0.1326,147.6,97.9,0.483
40.0,31949.9,35062.3,-0.8505,0.7483,147.6,97.9,0.483
40.02,31947.0,34941.5,-0.9012,-0.6941,147.6,97.9,0.483
40.04,31947.4,34983.1,-0.8936,-0.197,147.6,97.9,0.483
40.06,32037.2,35043.6,0.6511,0.5251,147.6,97.9,0.483
40.08,32008.8,34938.3,0.1628,-0.7324,147.6,97.9,0.483
40.1,31940.2,34938.0,-1.0182,-0.7357,147.6,97.9,0.483
40.12,31944.6,34975.9,-0.9423,-0.2827,147.6,97.9,0.483
40.14,31975.5,34887.4,-0.4106,-1.3389,147.6,97.9,0.483
40.16,31953.2,34899.5,-0.7949,-1.1946,147.6,97.9,0.483
40.18,31991.7,34850.8,-0.1308,-1.7765,147.6,97.9,0.483
40.2,31831.2,34957.6,-2.8939,-0.5021,147.6,97.9,0.483
40.22,31901.9,35033.7,-1.6778,0.4064,147.6,97.9,0.483
40.24,31951.2,34972.0,-0.8285,-0.3292,147.6,97.9,0.483
40.26,31963.0,35066.3,-0.6257,0.7951,147.6,97.9,0.483
40.28,32044.5,35187.0,0.7768,2.2359,147.6,97.9,0.483
40.3,32062.1,35087.9,1.08,1.0529,147.6,97.9,0.483
40.32,32079.2,35140.6,1.3739,1.6826,147.6,97.9,0.483
40.34,32105.9,35064.9,1.8345,0.7789,147.6,97.9,0.483
40.36,32067.2,35000.9,1.1673,0.0151,147.6,97.9,0.483
40.38,31976.4,35106.2,-0.3942,1.2719,147.6,97.9,0.483
40.4,32043.2,35014.3,0.7557,0.1748,147.6,97.9,0.483
40.42,32033.7,35064.3,0.5916,0.7713,147.6,97.9,0.483
40.44,31951.9,35047.4,-0.8167,0.5701,147.6,97.9,0.483
40.46,32030.3,34976.2,0.5334,-0.2801,147.6,97.9,0.483
40.48,31919.7,34992.4,-1.3701,-0.0862,147.6,97.9,0.483
40.5,32004.9,34940.0,0.0953,-0.7122,147.6,97.9,0.483
40.52,31941.1,34871.0,-1.0024,-1.5354,147.6,97.9,0.483
40.54,32001.6,34953.7,0.0393,-0.5477,147.6,97.9,0.483
40.56,32021.8,34840.1,0.3864,-1.9039,147.6,97.9,0.483
40.58,31924.4,34926.6,-1.2895,-0.8716,147.6,97.9,0.483
40.6,31974.5,34925.7,-0.4279,-0.8828,147.6,97.9,0.483
40.62,31977.8,34960.0,-0.3705,-0.4726,147.6,97.9,0.483
40.64,31980.5,34975.7,-0.3244,-0.2861,147.6,97.9,0.483
40.66,31987.4,35056.8,-0.2063,0.682,147.6,97.9,0.483
40.68,31949.8,35161.6,-0.853,1.9322,147.6,97.9,0.483
40.7,32051.2,35121.5,0.892,1.4536,147.6,97.9,0.483
40.72,32070.9,35188.5,1.2319,2.2533,147.6,97.9,0.483
40.74,32133.7,35067.3,2.3123,0.8074,147.6,97.9,0.483
40.76,32067.3,35102.6,1.1707,1.2285,147.6,97.9,0.483
40.78,32012.1,35049.6,0.2204,0.5962,147.6,97.9,0.483
40.8,32065.2,35012.9,1.1333,0.1584,147.6,97.9,0.483
40.82,31969.6,35085.7,-0.5122,1.0273,147.6,97.9,0.483
40.84,32115.6,34928.0,2.001,-0.8545,147.6,97.9,0.483
40.86,32071.7,35000.7,1.246,0.0127,147.6,97.9,0.483
40.88,31906.4,34937.2,-1.5992,-0.7448,147.6,97.9,0.483
40.9,31923.4,34985.9,-1.3074,-0.1637,147.6,97.9,0.483
40.92,32030.9,34967.9,0.5439,-0.3786,147.6,97.9,0.483
40.94,31986.8,34906.3,-0.2157,-1.1139,147.6,97.9,0.483
40.96,32101.9,34903.4,1.7661,-1.1485,147.6,97.9,0.483
40.98,32001.8,34900.5,0.0426,-1.1825,147.6,97.9,0.483
41.0,31925.8,34917.2,-1.2658,-0.9841,147.6,97.9,0.483
41.02,31901.6,34862.8,-1.6821,-1.6328,147.6,97.9,0.483
41.04,32042.7,34959.6,0.7456,-0.4772,147.6,97.9,0.483
41.06,32070.9,34915.6,1.2323,-1.0027,147.6,97.9,0.483
41.08,32032.5,35027.7,0.5716,0.3344,147.6,97.9,0.483
41.1,32056.0,35083.8,0.9761,1.0045,147.6,97.9,0.483
41.12,31965.9,35164.1,-0.5762,1.9623,147.6,97.9,0.483
41.14,31985.5,34980.8,-0.2378,-0.2252,147.6,97.9,0.483
41.16,32028.8,35154.7,0.5069,1.85,147.6,97.9,0.483
41.18,32019.1,35006.2,0.3406,0.0785,147.6,97.9,0.483
41.2,31896.7,35060.1,-1.7672,0.722,147.6,97.9,0.483
41.22,32025.6,34932.2,0.4521,-0.8045,147.6,97.9,0.483
41.24,31872.8,34956.1,-2.1779,-0.519,147.6,97.9,0.483
41.26,31947.3,35006.3,-0.8953,0.0789,147.6,97.9,0.483
41.28,31940.4,34966.4,-1.0145,-0.397,147.6,97.9,0.483
41.3,31884.3,34969.0,-1.9812,-0.3651,147.6,97.9,0.483
41.32,32028.3,34917.4,0.498,-0.9816,147.6,97.9,0.483
41.34,31964.8,35038.6,-0.595,0.4653,147.6,97.9,0.483
41.36,31893.4,34853.4,-1.8245,-1.7454,147.6,97.9,0.483
41.38,31981.0,34862.8,-0.3161,-1.6329,147.6,97.9,0.483
41.4,31977.6,34876.5,-0.3749,-1.4699,147.6,97.9,0.483
41.42,31905.6,34877.2,-1.6133,-1.4606,147.6,97.9,0.483
41.44,31956.8,34767.4,-0.7325,-2.7715,147.6,97.9,0.483
41.46,32036.1,35000.7,0.633,0.0122,147.6,97.9,0.483
41.48,32104.4,35077.9,1.8082,0.9339,147.6,97.9,0.483
41.5,32062.5,35094.2,1.087,1.1279,147.6,97.9,0.483
41.52,32031.9,35146.3,0.5608,1.7499,147.6,97.9,0.483
41.54,31975.9,35115.6,-0.404,1.3841,147.6,97.9,0.483
41.56,32070.4,35104.7,1.2225,1.2538,147.6,97.9,0.483
41.58,32037.2,35061.9,0.6508,0.743,147.6,97.9,0.483
41.6,32051.7,35042.1,0.9009,0.5069,147.6,97.9,0.483
41.62,32012.3,35081.4,0.2225,0.9752,147.6,97.9,0.483
41.64,32004.8,34980.4,0.0947,-0.2298,147.6,97.9,0.483
41.66,32029.4,35037.6,0.5178,0.4531,147.6,97.9,0.483
41.68,32026.9,34976.3,0.4749,-0.278,147.6,97.9,0.483
41.7,31908.2,34917.2,-1.5688,-0.9841,147.6,97.9,0.483
41.72,31964.3,34934.9,-0.6026,-0.7724,147.6,97.9,0.483
41.74,32008.6,34927.6,0.1586,-0.8601,147.6,97.9,0.483
41.76,32003.2,34927.9,0.0671,-0.8566,147.6,97.9,0.483
41.78,31990.1,34958.1,-0.1596,-0.4957,147.6,97.9,0.483
41.8,32003.2,34849.4,0.067,-1.7924,147.6,97.9,0.483
41.82,31928.3,34968.2,-1.2227,-0.3753,147.6,97.9,0.483
41.84,31939.3,34920.6,-1.0334,-0.9431,147.6,97.9,0.483
41.86,31963.4,35008.9,-0.6195,0.1107,147.6,97.9,0.483
41.88,32055.7,35009.2,0.9699,0.1135,147.6,97.9,0.483
41.9,32025.0,35088.5,0.4424,1.0608,147.6,97.9,0.483
41.92,32024.2,35051.7,0.4284,0.621,147.6,97.9,0.483
41.94,32048.2,35169.0,0.8405,2.0205,147.6,97.9,0.483
41.96,32033.4,35050.9,0.5854,0.6112,147.6,97.9,0.483
41.98,31999.5,35015.0,0.0019,0.1836,147.6,97.9,0.483
42.0,31992.8,34979.5,-0.1122,-0.2398,147.6,97.9,0.483
42.02,32039.1,34975.3,0.6852,-0.2906,147.6,97.9,0.483
42.04,31859.7,35034.8,-2.403,0.4194,147.6,97.9,0.483
42.06,32095.9,35062.6,1.6626,0.7514,147.6,97.9,0.483
42.08,31973.5,34947.4,-0.4442,-0.6233,147.6,97.9,0.483
42.1,31985.3,34949.9,-0.2416,-0.5936,147.6,97.9,0.483
42.12,32008.7,34895.7,0.1606,-1.2397,147.6,97.9,0.483
42.14,31927.8,35084.6,-1.2317,1.0135,147.6,97.9,0.483
42.16,31913.6,34953.6,-1.4768,-0.5491,147.6,97.9,0.483
42.18,31909.1,34996.7,-1.5533,-0.0355,147.6,97.9,0.483
42.2,32009.7,34971.1,0.1791,-0.3407,147.6,97.9,0.483
42.22,31885.5,34882.1,-1.9592,-1.4027,147.6,97.9,0.483
42.24,31955.5,34866.8,-0.7552,-1.5855,147.6,97.9,0.483
42.26,31958.6,34919.8,-0.7015,-0.9529,147.6,97.9,0.483
42.28,32045.7,35009.5,0.7984,0.1172,147.6,97.9,0.483
42.3,31995.5,35017.8,-0.0658,0.2161,147.6,97.9,0.483
42.32,32104.2,35131.2,1.8057,1.5695,147.6,97.9,0.483
42.34,32012.8,35097.9,0.2313,1.1728,147.6,97.9,0.483
42.36,32123.6,35086.3,2.1383,1.0338,147.6,97.9,0.483
42.38,31953.0,35104.1,-0.7973,1.2469,147.6,97.9,0.483
42.4,31998.0,35021.2,-0.024,0.2567,147.6,97.9,0.483
42.42,32004.8,34921.4,0.0935,-0.9342,147.6,97.9,0.483
42.44,32057.5,34982.6,1.0005,-0.2036,147.6,97.9,0.483
42.46,31942.7,35112.0,-0.9746,1.3405,147.6,97.9,0.483
42.48,32004.3,35034.3,0.0861,0.4136,147.6,97.9,0.483
42.5,31914.3,34958.1,-1.4646,-0.4955,147.6,97.9,0.483
42.52,32019.0,35020.0,0.3388,0.243,147.6,97.9,0.483
42.54,32029.0,34870.0,0.5103,-1.547,147.6,97.9,0.483
42.56,31912.7,34905.4,-1.4914,-1.1245,147.6,97.9,0.483
42.58,31905.4,34900.4,-1.6173,-1.1842,147.6,97.9,0.483
42.6,31873.1,34924.8,-2.174,-0.8933,147.6,97.9,0.483
42.62,31973.9,34935.8,-0.4381,-0.7615,147.6,97.9,0.483
42.64,31910.1,34928.6,-1.537,-0.8481,147.6,97.9,0.483
42.66,31939.7,34986.3,-1.026,-0.1597,147.6,97.9,0.483
42.68,32000.8,35057.9,0.0259,0.6948,147.6,97.9,0.483
42.7,31988.0,34998.0,-0.1957,-0.0194,147.6,97.9,0.483
42.72,32067.1,35179.7,1.1672,2.1486,147.6,97.9,0.483
42.74,32052.7,35196.3,0.919,2.3466,147.6,97.9,0.483
42.76,32043.5,35155.5,0.7606,1.8602,147.6,97.9,0.483
42.78,31937.9,35137.9,-1.058,1.65,147.6,97.9,0.483
42.8,31923.0,35061.9,-1.3134,0.7433,147.6,97.9,0.483
42.82,31992.9,35081.1,-0.1114,0.9719,147.6,97.9,0.483
42.84,31983.0,34971.7,-0.2806,-0.3332,147.6,97.9,0.483
42.86,31948.0,34998.7,-0.8837,-0.0112,147.6,97.9,0.483
42.88,32059.4,34880.4,1.0339,-1.4226,147.6,97.9,0.483
42.9,32000.2,34960.3,0.014,-0.4688,147.6,97.9,0.483
42.92,31949.5,34926.3,-0.8579,-0.875,147.6,97.9,0.483
42.94,31983.7,34933.9,-0.2699,-0.7847,147.6,97.9,0.483
42.96,31932.7,34943.0,-1.1479,-0.6763,147.6,97.9,0.483
42.98,31945.2,35060.6,-0.9316,0.7271,147.6,97.9,0.483
43.0,31994.8,34834.6,-0.0785,-1.9689,147.6,97.9,0.483
43.02,31984.3,34971.6,-0.2589,-0.3344,147.6,97.9,0.483
43.04,31819.0,34811.8,-3.1039,-2.2412,147.6,97.9,0.483
43.06,31923.7,34958.2,-1.3024,-0.4946,147.6,97.9,0.483
43.08,32020.7,34947.2,0.3672,-0.6255,147.6,97.9,0.483
43.1,32033.9,34980.3,0.595,-0.2312,147.6,97.9,0.483
43.12,31970.7,35113.7,-0.4925,1.3613,147.6,97.9,0.483
43.14,32086.8,35138.1,1.5056,1.6526,147.6,97.9,0.483
43.16,32105.8,35098.8,1.8324,1.1835,147.6,97.9,0.483
43.18,32084.1,34970.0,1.4597,-0.3541,147.6,97.9,0.483
43.2,32045.4,35046.4,0.793,0.5576,147.6,97.9,0.483
43.22,32026.4,35073.8,0.4657,0.8845,147.6,97.9,0.483
43.24,32035.2,34942.0,0.617,-0.6873,147.6,97.9,0.483
43.26,32050.0,35093.1,0.8721,1.1156,147.6,97.9,0.483
43.28,32005.3,34981.2,0.102,-0.2195,147.6,97.9,0.483
43.3,31987.1,35047.6,-0.2108,0.5722,147.6,97.9,0.483
43.32,31901.0,34959.9,-1.6921,-0.4742,147.6,97.9,0.483
43.34,31972.6,35024.5,-0.4609,0.2967,147.6,97.9,0.483
43.36,31935.1,34927.2,-1.1066,-0.8649,147.6,97.9,0.483
43.38,31853.6,34951.0,-2.5083,-0.58,147.6,97.9,0.483
43.4,31988.8,34874.8,-0.1821,-1.4896,147.6,97.9,0.483
43.42,31960.0,34935.1,-0.677,-0.7702,147.6,97.9,0.483
43.44,31950.4,34932.5,-0.8419,-0.8008,147.6,97.9,0.483
43.46,31927.1,34886.2,-1.2441,-1.3536,147.6,97.9,0.483
43.48,32070.0,34918.4,1.2158,-0.9688,147.6,97.9,0.483
43.5,32015.3,35042.7,0.2753,0.5137,147.6,97.9,0.483
43.52,32078.2,35032.4,1.357,0.3906,147.6,97.9,0.483
43.54,32019.4,35078.8,0.3455,0.9447,147.6,97.9,0.483
43.56,32043.0,35104.7,0.7512,1.2534,147.6,97.9,0.483
43.58,31962.2,35039.0,-0.6399,0.4702,147.6,97.9,0.483
43.6,32041.5,35128.2,0.725,1.5341,147.6,97.9,0.483
43.62,31975.7,35035.6,-0.407,0.4289,147.6,97.9,0.483
43.64,32057.5,34995.4,1.0014,-0.0504,147.6,97.9,0.483
43.66,32046.8,34987.7,0.8172,-0.1428,147.6,97.9,0.483
43.68,32031.2,34986.0,0.5479,-0.1622,147.6,97.9,0.483
43.7,31974.8,35001.1,-0.4233,0.017,147.6,97.9,0.483
43.72,31950.7,35006.0,-0.837,0.0764,147.6,97.9,0.483
43.74,32011.5,34992.6,0.2096,-0.0843,147.6,97.9,0.483
43.76,31964.0,34896.5,-0.609,-1.2302,147.6,97.9,0.483
43.78,32056.5,35018.3,0.9834,0.2232,147.6,97.9,0.483
43.8,31958.0,34945.1,-0.712,-0.651,147.6,97.9,0.483
43.82,31930.4,34870.2,-1.1866,-1.544,147.6,97.9,0.483
43.84,31979.7,34941.9,-0.3384,-0.6887,147.6,97.9,0.483
43.86,32004.8,35006.6,0.0936,0.0834,147.6,97.9,0.483
43.88,32059.3,34981.7,1.0314,-0.2137,147.6,97.9,0.483
43.9,31931.0,35053.8,-1.1768,0.6458,147.6,97.9,0.483
43.92,32015.7,35007.0,0.2812,0.0875,147.6,97.9,0.483
43.94,32047.8,35117.5,0.8341,1.407,147.6,97.9,0.483
43.96,32045.7,35131.3,0.7987,1.5708,147.6,97.9,0.483
43.98,31989.8,35151.9,-0.164,1.8168,147.6,97.9,0.483
44.0,32123.7,35101.9,2.1409,1.2203,147.6,97.9,0.483
44.02,32069.2,35020.7,1.2026,0.2514,147.6,97.9,0.483
44.04,32009.6,35032.9,0.1763,0.3966,147.6,97.9,0.483
44.06,32050.4,34915.8,0.8788,-1.0004,147.6,97.9,0.483
44.08,31998.6,35029.5,-0.0126,0.356,147.6,97.9,0.483
44.1,31949.9,34880.8,-0.8503,-1.4178,147.6,97.9,0.483
44.12,31970.0,34962.0,-0.5055,-0.4489,147.6,97.9,0.483
44.14,31989.2,34962.1,-0.1741,-0.4477,147.6,97.9,0.483
44.16,31963.4,34895.1,-0.6189,-1.248,147.6,97.9,0.483
44.18,31960.2,35027.7,-0.6735,0.3352,147.6,97.9,0.483
44.2,31973.3,34895.8,-0.4484,-1.2388,147.6,97.9,0.483
44.22,31892.3,34871.6,-1.8428,-1.528,147.6,97.9,0.483
44.24,31974.8,34936.9,-0.4218,-0.7484,147.6,97.9,0.483
44.26,31950.0,34960.6,-0.8498,-0.4661,147.6,97.9,0.483
44.28,31864.1,34944.0,-2.3275,-0.6641,147.6,97.9,0.483
44.3,31946.7,35000.6,-0.9068,0.012,147.6,97.9,0.483
44.32,32039.1,35018.9,0.6837,0.2301,147.6,97.9,0.483
44.34,32057.6,35132.4,1.0023,1.5841,147.6,97.9,0.483
44.36,32109.4,35097.7,1.8943,1.1696,147.6,97.9,0.483
44.38,31987.5,35078.3,-0.2042,0.9384,147.6,97.9,0.483
44.4,32008.9,35047.0,0.164,0.5655,147.6,97.9,0.483
44.42,32038.1,35175.6,0.6679,2.1002,147.6,97.9,0.483
44.44,31997.7,35125.8,-0.0275,1.5056,147.6,97.9,0.483
44.46,31953.7,35019.3,-0.7852,0.2345,147.6,97.9,0.483
44.48,32072.4,34983.8,1.2578,-0.1893,147.6,97.9,0.483
44.5,31986.1,35008.3,-0.228,0.1035,147.6,97.9,0.483
44.52,31968.8,34992.0,-0.5262,-0.0915,147.6,97.9,0.483
44.54,31984.5,34889.5,-0.2556,-1.3144,147.6,97.9,0.483
44.56,32030.1,34938.9,0.5302,-0.7247,147.6,97.9,0.483
44.58,31927.6,34975.8,-1.2358,-0.284,147.6,97.9,0.483
44.6,32078.3,34849.5,1.3593,-1.7921,147.6,97.9,0.483
44.62,32011.7,34958.9,0.2132,-0.486,147.6,97.9,0.483
44.64,31937.1,34885.0,-1.0718,-1.3676,147.6,97.9,0.483
44.66,31869.7,34827.8,-2.2311,-2.0503,147.6,97.9,0.483
44.68,32024.3,34890.1,0.4294,-1.3074,147.6,97.9,0.483
44.7,32028.0,35065.0,0.4941,0.7799,147.6,97.9,0.483
44.72,32025.1,35100.6,0.4426,1.2049,147.6,97.9,0.483
44.74,32015.1,35041.9,0.2704,0.5042,147.6,97.9,0.483
44.76,32105.4,35151.9,1.8255,1.8174,147.6,97.9,0.483
44.78,32083.4,35153.3,1.4462,1.8337,147.6,97.9,0.483
44.8,32012.7,35142.1,0.2303,1.6997,147.6,97.9,0.483
44.82,32086.3,35104.2,1.4965,1.2477,147.6,97.9,0.483
44.84,32045.3,34942.2,0.7905,-0.6851,147.6,97.9,0.483
44.86,32020.8,35026.1,0.3696,0.3152,147.6,97.9,0.483
44.88,31959.0,34944.5,-0.6945,-0.6576,147.6,97.9,0.483
44.9,31949.8,34898.1,-0.8524,-1.2112,147.6,97.9,0.483
44.92,31956.1,35046.7,-0.7437,0.5611,147.6,97.9,0.483
