timestamp,raw_red,raw_ir,filtered_red,filtered_ir,heart_rate,spo2,ac_dc_ratio
0.0,32119.2,35196.4,1.1907,1.1943,142.4,98.5,0.461
0.02,32188.1,35495.9,1.1951,1.2117,142.4,98.5,0.461
0.04,32213.0,35755.7,1.1967,1.2267,142.4,98.5,0.461
0.06,32284.9,35790.9,1.2012,1.2288,142.4,98.5,0.461
0.08,32218.4,35493.2,1.197,1.2115,142.4,98.5,0.461
0.1,32131.7,35412.5,1.1915,1.2068,142.4,98.5,0.461
0.12,32220.3,35230.7,1.1971,1.1963,142.4,98.5,0.461
0.14,32102.3,35178.8,1.1896,1.1933,142.4,98.5,0.461
0.16,32030.2,35164.5,1.1851,1.1925,142.4,98.5,0.461
0.18,32048.9,34971.4,1.1863,1.1813,142.4,98.5,0.461
0.2,32086.4,34910.4,1.1886,1.1777,142.4,98.5,0.461
0.22,31944.2,34922.7,1.1796,1.1785,142.4,98.5,0.461
0.24,31909.7,34719.7,1.1774,1.1667,142.4,98.5,0.461
0.26,31856.2,34582.2,1.174,1.1587,142.4,98.5,0.461
0.28,31875.8,34749.7,1.1753,1.1684,142.4,98.5,0.461
0.3,31764.1,34544.9,1.1682,1.1566,142.4,98.5,0.461
0.32,31886.4,34624.6,1.176,1.1612,142.4,98.5,0.461
0.34,31835.5,34519.0,1.1727,1.1551,142.4,98.5,0.461
0.36,31815.7,34428.3,1.1715,1.1498,142.4,98.5,0.461
0.38,31759.9,34508.6,1.1679,1.1545,142.4,98.5,0.461
0.4,31881.8,34775.5,1.1757,1.1699,142.4,98.5,0.461
0.42,32047.9,35199.6,1.1862,1.1945,142.4,98.5,0.461
0.44,32209.4,35523.2,1.1964,1.2132,142.4,98.5,0.461
0.46,32270.7,35770.2,1.2003,1.2276,142.4,98.5,0.461
0.48,32261.2,35828.2,1.1997,1.2309,142.4,98.5,0.461
0.5,32322.1,35673.3,1.2036,1.2219,142.4,98.5,0.461
0.52,32222.6,35379.1,1.1973,1.2049,142.4,98.5,0.461
0.54,32163.6,35245.0,1.1935,1.1971,142.4,98.5,0.461
0.56,31992.9,35059.7,1.1827,1.1864,142.4,98.5,0.461
0.58,32152.8,35136.5,1.1928,1.1908,142.4,98.5,0.461
0.6,31990.2,35026.0,1.1825,1.1844,142.4,98.5,0.461
0.62,32027.5,34975.9,1.1849,1.1815,142.4,98.5,0.461
0.64,31969.0,34822.6,1.1812,1.1727,142.4,98.5,0.461
0.66,31882.4,34753.8,1.1757,1.1687,142.4,98.5,0.461
0.68,31824.0,34606.9,1.172,1.1602,142.4,98.5,0.461
0.7,31903.9,34654.0,1.1771,1.1629,142.4,98.5,0.461
0.72,31897.0,34692.6,1.1766,1.1651,142.4,98.5,0.461
0.74,31812.4,34654.3,1.1713,1.1629,142.4,98.5,0.461
0.76,31756.7,34469.7,1.1677,1.1522,142.4,98.5,0.461
0.78,31844.5,34497.0,1.1733,1.1538,142.4,98.5,0.461
0.8,31835.7,34534.1,1.1727,1.1559,142.4,98.5,0.461
0.82,31878.1,34756.0,1.1754,1.1688,142.4,98.5,0.461
0.84,32061.0,35113.8,1.187,1.1895,142.4,98.5,0.461
0.86,32201.3,35526.1,1.1959,1.2134,142.4,98.5,0.461
0.88,32234.5,35701.4,1.198,1.2236,142.4,98.5,0.461
0.9,32278.6,35784.4,1.2008,1.2284,142.4,98.5,0.461
0.92,32221.2,35684.6,1.1972,1.2226,142.4,98.5,0.461
0.94,32241.5,35506.5,1.1985,1.2123,142.4,98.5,0.461
0.96,32123.2,35215.3,1.191,1.1954,142.4,98.5,0.461
0.98,32103.5,35201.7,1.1897,1.1946,142.4,98.5,0.461
1.0,32031.8,35109.6,1.1852,1.1893,142.4,98.5,0.461
1.02,31980.8,35025.0,1.1819,1.1844,142.4,98.5,0.461
1.04,32034.6,34908.7,1.1853,1.1776,142.4,98.5,0.461
1.06,31989.3,34894.4,1.1825,1.1768,142.4,98.5,0.461
1.08,31889.0,34706.3,1.1761,1.1659,142.4,98.5,0.461
1.1,31918.4,34645.2,1.178,1.1624,142.4,98.5,0.461
1.12,31750.8,34623.4,1.1674,1.1611,142.4,98.5,0.461
1.14,31871.2,34573.1,1.175,1.1582,142.4,98.5,0.461
1.16,31933.8,34626.5,1.179,1.1613,142.4,98.5,0.461
1.18,31827.9,34493.3,1.1722,1.1536,142.4,98.5,0.461
1.2,31758.7,34418.7,1.1679,1.1493,142.4,98.5,0.461
1.22,31740.3,34550.0,1.1667,1.1569,142.4,98.5,0.461
1.24,31833.2,34810.0,1.1726,1.1719,142.4,98.5,0.461
1.26,32081.5,35044.8,1.1883,1.1855,142.4,98.5,0.461
1.28,32342.0,35478.0,1.2048,1.2106,142.4,98.5,0.461
1.3,32321.6,35723.4,1.2035,1.2248,142.4,98.5,0.461
1.32,32392.8,35755.0,1.208,1.2267,142.4,98.5,0.461
1.34,32278.5,35599.4,1.2008,1.2177,142.4,98.5,0.461
1.36,32127.3,35464.5,1.1912,1.2098,142.4,98.5,0.461
1.38,32139.2,35371.8,1.192,1.2045,142.4,98.5,0.461
1.4,32038.5,35135.3,1.1856,1.1908,142.4,98.5,0.461
1.42,31993.7,35026.6,1.1828,1.1845,142.4,98.5,0.461
1.44,31983.7,35046.1,1.1821,1.1856,142.4,98.5,0.461
1.46,32020.4,34847.2,1.1844,1.1741,142.4,98.5,0.461
1.48,31921.9,34861.0,1.1782,1.1749,142.4,98.5,0.461
1.5,31889.6,34743.9,1.1762,1.1681,142.4,98.5,0.461
1.52,31901.7,34698.4,1.1769,1.1655,142.4,98.5,0.461
1.54,31926.2,34589.0,1.1785,1.1591,142.4,98.5,0.461
1.56,31884.8,34677.8,1.1758,1.1643,142.4,98.5,0.461
1.58,31776.4,34562.4,1.169,1.1576,142.4,98.5,0.461
1.6,31732.3,34447.8,1.1662,1.1509,142.4,98.5,0.461
1.62,31808.9,34448.1,1.171,1.151,142.4,98.5,0.461
1.64,31761.9,34533.9,1.1681,1.1559,142.4,98.5,0.461
1.66,31787.8,34661.5,1.1697,1.1633,142.4,98.5,0.461
1.68,31968.2,35121.6,1.1811,1.19,142.4,98.5,0.461
1.7,32132.6,35361.4,1.1916,1.2039,142.4,98.5,0.461
1.72,32358.8,35586.6,1.2059,1.2169,142.4,98.5,0.461
1.74,32383.6,35763.8,1.2075,1.2272,142.4,98.5,0.461
1.76,32205.5,35777.2,1.1962,1.228,142.4,98.5,0.461
1.78,32238.4,35441.4,1.1983,1.2085,142.4,98.5,0.461
1.8,32085.9,35277.3,1.1886,1.199,142.4,98.5,0.461
1.82,32036.1,35103.7,1.1854,1.1889,142.4,98.5,0.461
1.84,31947.7,35080.7,1.1798,1.1876,142.4,98.5,0.461
1.86,32044.7,35044.3,1.186,1.1855,142.4,98.5,0.461
1.88,31977.1,34936.9,1.1817,1.1793,142.4,98.5,0.461
1.9,31990.4,34862.6,1.1825,1.175,142.4,98.5,0.461
1.92,31783.4,34712.1,1.1694,1.1663,142.4,98.5,0.461
1.94,31867.2,34658.0,1.1747,1.1631,142.4,98.5,0.461
1.96,31816.9,34583.8,1.1715,1.1588,142.4,98.5,0.461
1.98,31824.9,34704.0,1.1721,1.1658,142.4,98.5,0.461
2.0,31801.1,34528.2,1.1705,1.1556,142.4,98.5,0.461
2.02,31802.3,34516.0,1.1706,1.1549,142.4,98.5,0.461
2.04,31730.6,34490.9,1.1661,1.1534,142.4,98.5,0.461
2.06,31800.0,34556.3,1.1705,1.1572,142.4,98.5,0.461
2.08,31826.6,34748.5,1.1722,1.1684,142.4,98.5,0.461
2.1,31969.4,35105.5,1.1812,1.1891,142.4,98.5,0.461
2.12,32245.8,35460.0,1.1987,1.2096,142.4,98.5,0.461
2.14,32249.6,35557.6,1.199,1.2152,142.4,98.5,0.461
2.16,32224.7,35790.8,1.1974,1.2288,142.4,98.5,0.461
2.18,32230.5,35662.8,1.1978,1.2213,142.4,98.5,0.461
2.2,32190.5,35536.9,1.1952,1.214,142.4,98.5,0.461
2.22,32163.3,35331.4,1.1935,1.2021,142.4,98.5,0.461
2.24,32039.5,35113.9,1.1857,1.1895,142.4,98.5,0.461
2.26,31983.2,35082.9,1.1821,1.1877,142.4,98.5,0.461
2.28,32156.2,35031.3,1.1931,1.1848,142.4,98.5,0.461
2.3,31993.7,34975.5,1.1828,1.1815,142.4,98.5,0.461
2.32,31906.9,34794.8,1.1773,1.171,142.4,98.5,0.461
2.34,31888.3,34777.4,1.1761,1.17,142.4,98.5,0.461
2.36,31867.1,34694.3,1.1747,1.1652,142.4,98.5,0.461
2.38,31819.8,34701.0,1.1717,1.1656,142.4,98.5,0.461
2.4,31903.1,34629.8,1.177,1.1615,142.4,98.5,0.461
2.42,31787.6,34617.6,1.1697,1.1608,142.4,98.5,0.461
2.44,31800.1,34610.7,1.1705,1.1604,142.4,98.5,0.461
2.46,31730.3,34550.1,1.1661,1.1569,142.4,98.5,0.461
2.48,31782.9,34499.3,1.1694,1.1539,142.4,98.5,0.461
2.5,31861.5,34688.1,1.1744,1.1649,142.4,98.5,0.461
2.52,32021.2,35025.6,1.1845,1.1844,142.4,98.5,0.461
2.54,32217.6,35389.3,1.1969,1.2055,142.4,98.5,0.461
2.56,32205.3,35857.3,1.1962,1.2326,142.4,98.5,0.461
2.58,32340.2,35715.2,1.2047,1.2244,142.4,98.5,0.461
2.6,32287.5,35631.6,1.2014,1.2195,142.4,98.5,0.461
2.62,32090.6,35543.3,1.1889,1.2144,142.4,98.5,0.461
2.64,32119.9,35258.4,1.1908,1.1979,142.4,98.5,0.461
2.66,32121.1,35137.5,1.1908,1.1909,142.4,98.5,0.461
2.68,32040.9,35167.3,1.1857,1.1926,142.4,98.5,0.461
2.7,32073.9,34956.9,1.1878,1.1804,142.4,98.5,0.461
2.72,32053.6,34932.7,1.1865,1.179,142.4,98.5,0.461
2.74,31962.2,34825.1,1.1808,1.1728,142.4,98.5,0.461
2.76,31871.8,34734.4,1.175,1.1675,142.4,98.5,0.461
2.78,31907.6,34680.8,1.1773,1.1644,142.4,98.5,0.461
2.8,31911.5,34676.2,1.1775,1.1642,142.4,98.5,0.461
2.82,31818.2,34691.8,1.1716,1.1651,142.4,98.5,0.461
2.84,31884.9,34534.2,1.1759,1.1559,142.4,98.5,0.461
2.86,31721.0,34476.2,1.1655,1.1526,142.4,98.5,0.461
2.88,31773.3,34402.7,1.1688,1.1483,142.4,98.5,0.461
2.9,31778.1,34433.5,1.1691,1.1501,142.4,98.5,0.461
2.92,31843.0,34621.1,1.1732,1.161,142.4,98.5,0.461
2.94,31889.3,35098.2,1.1761,1.1886,142.4,98.5,0.461
2.96,32202.3,35416.2,1.196,1.207,142.4,98.5,0.461
2.98,32283.1,35618.3,1.2011,1.2188,142.4,98.5,0.461
3.0,32370.5,35733.0,1.2066,1.2254,142.4,98.5,0.461
3.02,32328.9,35768.7,1.204,1.2275,142.4,98.5,0.461
3.04,32331.3,35607.5,1.2041,1.2181,142.4,98.5,0.461
3.06,32130.2,35215.2,1.1914,1.1954,142.4,98.5,0.461
3.08,32157.0,35129.9,1.1931,1.1905,142.4,98.5,0.461
3.1,32098.3,35084.2,1.1894,1.1878,142.4,98.5,0.461
3.12,31995.7,35003.0,1.1829,1.1831,142.4,98.5,0.461
3.14,31996.6,35061.1,1.1829,1.1865,142.4,98.5,0.461
3.16,31863.1,34923.6,1.1745,1.1785,142.4,98.5,0.461
3.18,31822.7,34718.2,1.1719,1.1666,142.4,98.5,0.461
3.2,31857.3,34786.9,1.1741,1.1706,142.4,98.5,0.461
3.22,31971.2,34765.4,1.1813,1.1693,142.4,98.5,0.461
3.24,31827.3,34719.8,1.1722,1.1667,142.4,98.5,0.461
3.26,31770.0,34624.0,1.1686,1.1612,142.4,98.5,0.461
3.28,31806.0,34568.8,1.1709,1.1579,142.4,98.5,0.461
3.3,31769.9,34455.1,1.1686,1.1514,142.4,98.5,0.461
3.32,31782.4,34473.4,1.1694,1.1524,142.4,98.5,0.461
3.34,31823.7,34645.7,1.172,1.1624,142.4,98.5,0.461
3.36,31969.8,34951.7,1.1812,1.1801,142.4,98.5,0.461
3.38,32131.8,35376.8,1.1915,1.2048,142.4,98.5,0.461
3.4,32274.5,35645.3,1.2006,1.2203,142.4,98.5,0.461
3.42,32297.5,35815.2,1.202,1.2302,142.4,98.5,0.461
3.44,32401.8,35680.2,1.2086,1.2223,142.4,98.5,0.461
3.46,32307.1,35506.8,1.2026,1.2123,142.4,98.5,0.461
3.48,32157.5,35255.2,1.1931,1.1977,142.4,98.5,0.461
3.5,32141.1,35099.9,1.1921,1.1887,142.4,98.5,0.461
3.52,32111.1,35041.3,1.1902,1.1853,142.4,98.5,0.461
3.54,32039.8,35030.6,1.1857,1.1847,142.4,98.5,0.461
3.56,31996.1,34960.4,1.1829,1.1806,142.4,98.5,0.461
3.58,31920.0,34921.9,1.1781,1.1784,142.4,98.5,0.461
3.6,31980.2,34856.8,1.1819,1.1746,142.4,98.5,0.461
3.62,31852.1,34670.3,1.1738,1.1638,142.4,98.5,0.461
3.64,31929.9,34674.8,1.1787,1.1641,142.4,98.5,0.461
3.66,31849.0,34663.5,1.1736,1.1634,142.4,98.5,0.461
3.68,31834.3,34601.2,1.1726,1.1598,142.4,98.5,0.461
3.7,31767.1,34603.1,1.1684,1.1599,142.4,98.5,0.461
3.72,31715.3,34502.2,1.1651,1.1541,142.4,98.5,0.461
3.74,31781.6,34486.3,1.1693,1.1532,142.4,98.5,0.461
3.76,31979.8,34669.0,1.1819,1.1638,142.4,98.5,0.461
3.78,31977.1,34978.5,1.1817,1.1817,142.4,98.5,0.461
3.8,32236.3,35330.2,1.1981,1.2021,142.4,98.5,0.461
3.82,32248.2,35687.7,1.1989,1.2228,142.4,98.5,0.461
3.84,32341.9,35771.8,1.2048,1.2277,142.4,98.5,0.461
3.86,32269.8,35693.7,1.2003,1.2231,142.4,98.5,0.461
3.88,32179.9,35507.4,1.1946,1.2123,142.4,98.5,0.461
3.9,32113.1,35398.7,1.1903,1.206,142.4,98.5,0.461
3.92,32092.4,35198.2,1.189,1.1944,142.4,98.5,0.461
3.94,32068.0,35118.4,1.1875,1.1898,142.4,98.5,0.461
3.96,32092.1,35074.7,1.189,1.1873,142.4,98.5,0.461
3.98,32075.1,35079.8,1.1879,1.1876,142.4,98.5,0.461
4.0,31939.6,34894.0,1.1793,1.1768,142.4,98.5,0.461
4.02,31908.3,34830.8,1.1773,1.1731,142.4,98.5,0.461
4.04,31860.9,34745.2,1.1743,1.1682,142.4,98.5,0.461
4.06,31925.4,34699.0,1.1784,1.1655,142.4,98.5,0.461
4.08,31923.2,34795.5,1.1783,1.1711,142.4,98.5,0.461
4.1,31873.1,34667.6,1.1751,1.1637,142.4,98.5,0.461
4.12,31762.3,34592.9,1.1681,1.1593,142.4,98.5,0.461
4.14,31719.7,34531.4,1.1654,1.1558,142.4,98.5,0.461
4.16,31766.7,34530.8,1.1684,1.1558,142.4,98.5,0.461
4.18,31869.1,34655.6,1.1749,1.163,142.4,98.5,0.461
4.2,31909.5,34949.6,1.1774,1.18,142.4,98.5,0.461
4.22,32075.2,35336.6,1.1879,1.2024,142.4,98.5,0.461
4.24,32349.4,35686.2,1.2053,1.2227,142.4,98.5,0.461
4.26,32308.0,35770.9,1.2027,1.2276,142.4,98.5,0.461
4.28,32269.0,35710.8,1.2002,1.2241,142.4,98.5,0.461
4.3,32308.3,35583.1,1.2027,1.2167,142.4,98.5,0.461
4.32,32119.5,35293.3,1.1907,1.1999,142.4,98.5,0.461
4.34,32020.6,35163.7,1.1845,1.1924,142.4,98.5,0.461
4.36,31974.3,35153.0,1.1815,1.1918,142.4,98.5,0.461
4.38,32010.5,35061.4,1.1838,1.1865,142.4,98.5,0.461
4.4,31997.3,34974.0,1.183,1.1814,142.4,98.5,0.461
4.42,31878.0,34935.0,1.1754,1.1792,142.4,98.5,0.461
4.44,31931.1,34793.0,1.1788,1.1709,142.4,98.5,0.461
4.46,31880.0,34759.8,1.1755,1.169,142.4,98.5,0.461
4.48,31889.0,34702.1,1.1761,1.1657,142.4,98.5,0.461
4.5,31780.7,34691.1,1.1693,1.165,142.4,98.5,0.461
4.52,31795.1,34534.3,1.1702,1.1559,142.4,98.5,0.461
4.54,31828.4,34603.5,1.1723,1.16,142.4,98.5,0.461
4.56,31735.2,34475.0,1.1664,1.1525,142.4,98.5,0.461
4.58,31741.5,34399.8,1.1668,1.1482,142.4,98.5,0.461
4.6,31938.7,34570.2,1.1793,1.158,142.4,98.5,0.461
4.62,32065.1,34986.2,1.1873,1.1821,142.4,98.5,0.461
4.64,32145.4,35279.3,1.1924,1.1991,142.4,98.5,0.461
4.66,32204.6,35668.0,1.1961,1.2216,142.4,98.5,0.461
4.68,32314.9,35756.0,1.2031,1.2267,142.4,98.5,0.461
4.7,32379.8,35610.4,1.2072,1.2183,142.4,98.5,0.461
4.72,32256.9,35512.1,1.1994,1.2126,142.4,98.5,0.461
4.74,32073.4,35390.8,1.1878,1.2056,142.4,98.5,0.461
4.76,31987.3,35185.3,1.1823,1.1937,142.4,98.5,0.461
4.78,32043.1,35073.2,1.1859,1.1872,142.4,98.5,0.461
4.8,32060.8,35106.4,1.187,1.1891,142.4,98.5,0.461
4.82,32042.1,35080.6,1.1858,1.1876,142.4,98.5,0.461
4.84,31884.6,34921.6,1.1758,1.1784,142.4,98.5,0.461
4.86,31921.1,34843.6,1.1782,1.1739,142.4,98.5,0.461
4.88,31878.7,34688.2,1.1755,1.1649,142.4,98.5,0.461
4.9,31751.9,34619.5,1.1674,1.1609,142.4,98.5,0.461
4.92,31974.5,34706.9,1.1815,1.1659,142.4,98.5,0.461
4.94,31930.2,34567.8,1.1787,1.1579,142.4,98.5,0.461
4.96,31802.3,34567.1,1.1706,1.1579,142.4,98.5,0.461
4.98,31725.8,34563.1,1.1658,1.1576,142.4,98.5,0.461
5.0,31757.9,34469.4,1.1678,1.1522,142.4,98.5,0.461
5.02,31744.5,34594.9,1.167,1.1595,142.4,98.5,0.461
5.04,32001.7,34884.5,1.1833,1.1762,142.4,98.5,0.461
5.06,32150.3,35322.6,1.1927,1.2016,142.4,98.5,0.461
5.08,32225.3,35651.5,1.1974,1.2207,142.4,98.5,0.461
5.1,32396.2,35765.3,1.2083,1.2273,142.4,98.5,0.461
5.12,32278.6,35713.3,1.2008,1.2243,142.4,98.5,0.461
5.14,32164.9,35586.4,1.1936,1.2169,142.4,98.5,0.461
5.16,32191.2,35366.7,1.1953,1.2042,142.4,98.5,0.461
5.18,32043.5,35229.6,1.1859,1.1962,142.4,98.5,0.461
5.2,32060.9,35065.1,1.187,1.1867,142.4,98.5,0.461
5.22,32019.2,35022.0,1.1844,1.1842,142.4,98.5,0.461
5.24,32035.0,34969.8,1.1854,1.1812,142.4,98.5,0.461
5.26,31917.2,34965.2,1.1779,1.1809,142.4,98.5,0.461
5.28,31922.7,34768.4,1.1783,1.1695,142.4,98.5,0.461
5.3,31860.8,34675.7,1.1743,1.1641,142.4,98.5,0.461
5.32,31813.4,34664.6,1.1713,1.1635,142.4,98.5,0.461
5.34,31877.2,34672.2,1.1754,1.1639,142.4,98.5,0.461
5.36,31900.6,34687.2,1.1768,1.1648,142.4,98.5,0.461
5.38,31845.4,34527.7,1.1734,1.1556,142.4,98.5,0.461
5.4,31810.8,34557.1,1.1712,1.1573,142.4,98.5,0.461
5.42,31744.6,34513.8,1.167,1.1548,142.4,98.5,0.461
5.44,31878.9,34618.9,1.1755,1.1609,142.4,98.5,0.461
5.46,31903.7,34859.9,1.177,1.1748,142.4,98.5,0.461
5.48,32264.2,35251.4,1.1999,1.1975,142.4,98.5,0.461
5.5,32278.6,35708.4,1.2008,1.224,142.4,98.5,0.461
5.52,32157.1,35756.0,1.1931,1.2267,142.4,98.5,0.461
5.54,32269.2,35676.3,1.2002,1.2221,142.4,98.5,0.461
5.56,32326.5,35533.4,1.2038,1.2138,142.4,98.5,0.461
5.58,32092.6,35442.4,1.189,1.2086,142.4,98.5,0.461
5.6,32061.2,35200.8,1.187,1.1946,142.4,98.5,0.461
5.62,32149.1,35140.0,1.1926,1.191,142.4,98.5,0.461
5.64,31945.4,35119.5,1.1797,1.1899,142.4,98.5,0.461
5.66,32028.1,34967.8,1.1849,1.1811,142.4,98.5,0.461
5.68,32059.4,34901.1,1.1869,1.1772,142.4,98.5,0.461
5.7,31888.0,34755.5,1.1761,1.1688,142.4,98.5,0.461
5.72,31844.5,34710.1,1.1733,1.1661,142.4,98.5,0.461
5.74,31970.5,34628.2,1.1813,1.1614,142.4,98.5,0.461
5.76,31819.5,34616.9,1.1717,1.1607,142.4,98.5,0.461
5.78,31934.5,34601.3,1.179,1.1598,142.4,98.5,0.461
5.8,31828.4,34559.3,1.1723,1.1574,142.4,98.5,0.461
5.82,31684.0,34565.9,1.1631,1.1578,142.4,98.5,0.461
5.84,31786.4,34494.8,1.1696,1.1537,142.4,98.5,0.461
5.86,31851.5,34550.4,1.1737,1.1569,142.4,98.5,0.461
5.88,31941.9,34874.5,1.1795,1.1757,142.4,98.5,0.461
5.9,32173.1,35175.2,1.1941,1.1931,142.4,98.5,0.461
5.92,32205.3,35503.2,1.1962,1.2121,142.4,98.5,0.461
5.94,32330.7,35720.0,1.2041,1.2247,142.4,98.5,0.461
5.96,32289.4,35750.9,1.2015,1.2264,142.4,98.5,0.461
5.98,32199.2,35613.4,1.1958,1.2185,142.4,98.5,0.461
6.0,32181.2,35414.6,1.1946,1.207,142.4,98.5,0.461
6.02,32057.2,35208.4,1.1868,1.195,142.4,98.5,0.461
6.04,32028.8,35224.0,1.185,1.1959,142.4,98.5,0.461
6.06,32118.8,35068.3,1.1907,1.1869,142.4,98.5,0.461
6.08,31957.5,35045.4,1.1805,1.1856,142.4,98.5,0.461
6.1,32029.6,34968.9,1.185,1.1811,142.4,98.5,0.461
6.12,31882.9,34815.7,1.1757,1.1723,142.4,98.5,0.461
6.14,31934.3,34629.0,1.179,1.1614,142.4,98.5,0.461
6.16,31921.4,34787.9,1.1782,1.1706,142.4,98.5,0.461
6.18,31768.4,34712.1,1.1685,1.1663,142.4,98.5,0.461
6.2,31905.0,34647.8,1.1771,1.1625,142.4,98.5,0.461
6.22,31787.2,34685.1,1.1697,1.1647,142.4,98.5,0.461
6.24,31811.6,34485.5,1.1712,1.1531,142.4,98.5,0.461
6.26,31806.3,34419.0,1.1709,1.1493,142.4,98.5,0.461
6.28,31819.8,34603.5,1.1717,1.16,142.4,98.5,0.461
6.3,31971.1,34817.4,1.1813,1.1724,142.4,98.5,0.461
6.32,32107.3,35170.0,1.19,1.1928,142.4,98.5,0.461
6.34,32249.5,35561.0,1.199,1.2154,142.4,98.5,0.461
6.36,32341.0,35710.5,1.2048,1.2241,142.4,98.5,0.461
6.38,32424.0,35786.8,1.21,1.2285,142.4,98.5,0.461
6.4,32320.7,35652.4,1.2035,1.2207,142.4,98.5,0.461
6.42,32149.9,35470.3,1.1927,1.2102,142.4,98.5,0.461
6.44,32105.5,35357.1,1.1898,1.2036,142.4,98.5,0.461
6.46,32078.0,35144.2,1.1881,1.1913,142.4,98.5,0.461
6.48,32030.0,35084.7,1.1851,1.1878,142.4,98.5,0.461
6.5,32059.7,35034.1,1.1869,1.1849,142.4,98.5,0.461
6.52,31981.3,34935.7,1.182,1.1792,142.4,98.5,0.461
6.54,31962.8,34869.1,1.1808,1.1754,142.4,98.5,0.461
6.56,31873.4,34782.9,1.1751,1.1704,142.4,98.5,0.461
6.58,31773.4,34640.0,1.1688,1.1621,142.4,98.5,0.461
6.6,31923.9,34637.7,1.1783,1.1619,142.4,98.5,0.461
6.62,31877.0,34799.9,1.1754,1.1713,142.4,98.5,0.461
6.64,31745.1,34621.6,1.167,1.161,142.4,98.5,0.461
6.66,31718.8,34333.9,1.1653,1.1443,142.4,98.5,0.461
6.68,31744.1,34412.3,1.1669,1.1489,142.4,98.5,0.461
6.7,31815.4,34596.5,1.1715,1.1596,142.4,98.5,0.461
6.72,31963.0,34754.1,1.1808,1.1687,142.4,98.5,0.461
6.74,32088.8,35191.6,1.1888,1.194,142.4,98.5,0.461
6.76,32211.7,35481.9,1.1966,1.2109,142.4,98.5,0.461
6.78,32270.4,35677.6,1.2003,1.2222,142.4,98.5,0.461
6.8,32286.8,35681.5,1.2013,1.2224,142.4,98.5,0.461
6.82,32230.9,35597.8,1.1978,1.2176,142.4,98.5,0.461
6.84,32208.8,35520.3,1.1964,1.2131,142.4,98.5,0.461
6.86,32152.6,35292.5,1.1928,1.1999,142.4,98.5,0.461
6.88,32012.8,35080.7,1.184,1.1876,142.4,98.5,0.461
6.9,32015.5,35153.9,1.1841,1.1919,142.4,98.5,0.461
6.92,32021.3,35091.3,1.1845,1.1882,142.4,98.5,0.461
6.94,32046.8,34896.8,1.1861,1.177,142.4,98.5,0.461
6.96,31959.8,34828.8,1.1806,1.173,142.4,98.5,0.461
6.98,31877.7,34766.2,1.1754,1.1694,142.4,98.5,0.461
7.0,31946.1,34704.3,1.1797,1.1658,142.4,98.5,0.461
7.02,31920.0,34699.0,1.1781,1.1655,142.4,98.5,0.461
7.04,31824.9,34733.7,1.1721,1.1675,142.4,98.5,0.461
7.06,31848.8,34623.1,1.1736,1.1611,142.4,98.5,0.461
7.08,31780.5,34551.3,1.1692,1.1569,142.4,98.5,0.461
7.1,31819.5,34437.5,1.1717,1.1503,142.4,98.5,0.461
7.12,31827.7,34516.6,1.1722,1.1549,142.4,98.5,0.461
7.14,31892.9,34861.1,1.1764,1.1749,142.4,98.5,0.461
7.16,32012.2,35193.3,1.1839,1.1941,142.4,98.5,0.461
7.18,32208.7,35397.7,1.1964,1.206,142.4,98.5,0.461
7.2,32288.4,35744.8,1.2014,1.2261,142.4,98.5,0.461
7.22,32286.6,35782.1,1.2013,1.2283,142.4,98.5,0.461
7.24,32294.1,35614.9,1.2018,1.2186,142.4,98.5,0.461
7.26,32211.0,35354.8,1.1965,1.2035,142.4,98.5,0.461
7.28,32118.1,35307.7,1.1906,1.2008,142.4,98.5,0.461
7.3,32081.6,35147.8,1.1883,1.1915,142.4,98.5,0.461
7.32,31967.0,35206.7,1.1811,1.1949,142.4,98.5,0.461
7.34,32055.3,35047.5,1.1867,1.1857,142.4,98.5,0.461
7.36,31914.4,34894.1,1.1777,1.1768,142.4,98.5,0.461
7.38,31906.8,34871.2,1.1772,1.1755,142.4,98.5,0.461
7.4,31879.4,34707.6,1.1755,1.166,142.4,98.5,0.461
7.42,31866.1,34742.5,1.1747,1.168,142.4,98.5,0.461
7.44,31862.9,34696.7,1.1745,1.1654,142.4,98.5,0.461
7.46,31831.4,34636.6,1.1725,1.1619,142.4,98.5,0.461
7.48,31821.0,34575.5,1.1718,1.1583,142.4,98.5,0.461
7.5,31788.7,34500.6,1.1698,1.154,142.4,98.5,0.461
7.52,31833.6,34488.5,1.1726,1.1533,142.4,98.5,0.461
7.54,31826.2,34563.7,1.1721,1.1577,142.4,98.5,0.461
7.56,31924.5,34777.9,1.1784,1.1701,142.4,98.5,0.461
7.58,32016.6,35160.6,1.1842,1.1922,142.4,98.5,0.461
7.6,32151.8,35545.2,1.1928,1.2145,142.4,98.5,0.461
7.62,32297.8,35683.1,1.202,1.2225,142.4,98.5,0.461
7.64,32338.6,35817.8,1.2046,1.2303,142.4,98.5,0.461
7.66,32357.1,35588.0,1.2058,1.217,142.4,98.5,0.461
7.68,32230.3,35475.3,1.1978,1.2105,142.4,98.5,0.461
7.7,32061.7,35319.5,1.1871,1.2014,142.4,98.5,0.461
7.72,32075.5,35118.0,1.1879,1.1898,142.4,98.5,0.461
7.74,32093.6,35104.3,1.1891,1.189,142.4,98.5,0.461
7.76,31876.9,35106.2,1.1754,1.1891,142.4,98.5,0.461
7.78,32050.6,34967.7,1.1864,1.1811,142.4,98.5,0.461
7.8,31995.3,34796.7,1.1829,1.1712,142.4,98.5,0.461
7.82,31812.0,34746.0,1.1712,1.1682,142.4,98.5,0.461
7.84,31853.0,34679.0,1.1738,1.1643,142.4,98.5,0.461
7.86,31827.6,34693.8,1.1722,1.1652,142.4,98.5,0.461
7.88,31829.0,34812.6,1.1723,1.1721,142.4,98.5,0.461
7.9,31832.2,34622.8,1.1725,1.1611,142.4,98.5,0.461
7.92,31811.0,34450.5,1.1712,1.1511,142.4,98.5,0.461
7.94,31842.6,34409.2,1.1732,1.1487,142.4,98.5,0.461
7.96,31745.8,34495.9,1.167,1.1537,142.4,98.5,0.461
7.98,31882.7,34752.3,1.1757,1.1686,142.4,98.5,0.461
8.0,32041.6,35131.0,1.1858,1.1905,142.4,98.5,0.461
8.02,32217.3,35480.1,1.1969,1.2108,142.4,98.5,0.461
8.04,32305.4,35817.2,1.2025,1.2303,142.4,98.5,0.461
8.06,32237.9,35751.9,1.1982,1.2265,142.4,98.5,0.461
8.08,32272.8,35617.0,1.2004,1.2187,142.4,98.5,0.461
8.1,32132.4,35456.9,1.1915,1.2094,142.4,98.5,0.461
8.12,32152.3,35266.4,1.1928,1.1984,142.4,98.5,0.461
8.14,32067.4,35122.6,1.1874,1.19,142.4,98.5,0.461
8.16,32058.9,35101.5,1.1869,1.1888,142.4,98.5,0.461
8.18,31965.2,35021.4,1.1809,1.1842,142.4,98.5,0.461
8.2,31875.3,34924.9,1.1752,1.1786,142.4,98.5,0.461
8.22,31912.8,34810.6,1.1776,1.172,142.4,98.5,0.461
8.24,31868.7,34726.7,1.1748,1.1671,142.4,98.5,0.461
8.26,31739.6,34686.9,1.1666,1.1648,142.4,98.5,0.461
8.28,31841.9,34661.4,1.1731,1.1633,142.4,98.5,0.461
8.3,31859.2,34631.0,1.1742,1.1616,142.4,98.5,0.461
8.32,31777.7,34561.7,1.1691,1.1575,142.4,98.5,0.461
8.34,31786.4,34520.9,1.1696,1.1552,142.4,98.5,0.461
8.36,31847.6,34359.3,1.1735,1.1458,142.4,98.5,0.461
8.38,31705.8,34532.8,1.1645,1.1559,142.4,98.5,0.461
8.4,31867.1,34735.4,1.1747,1.1676,142.4,98.5,0.461
8.42,32035.1,35025.5,1.1854,1.1844,142.4,98.5,0.461
8.44,32254.5,35418.9,1.1993,1.2072,142.4,98.5,0.461
8.46,32151.9,35682.4,1.1928,1.2225,142.4,98.5,0.461
8.48,32423.3,35766.3,1.21,1.2273,142.4,98.5,0.461
8.5,32318.2,35618.2,1.2033,1.2188,142.4,98.5,0.461
8.52,32139.2,35435.1,1.192,1.2081,142.4,98.5,0.461
8.54,32089.6,35337.8,1.1888,1.2025,142.4,98.5,0.461
8.56,32099.3,35133.0,1.1894,1.1906,142.4,98.5,0.461
8.58,32069.3,35022.6,1.1875,1.1842,142.4,98.5,0.461
8.6,31987.3,35055.4,1.1823,1.1861,142.4,98.5,0.461
8.62,32016.4,34938.2,1.1842,1.1794,142.4,98.5,0.461
8.64,32009.3,34882.9,1.1837,1.1762,142.4,98.5,0.461
8.66,31844.5,34785.3,1.1733,1.1705,142.4,98.5,0.461
8.68,31920.4,34626.2,1.1781,1.1613,142.4,98.5,0.461
8.7,31948.1,34631.2,1.1799,1.1616,142.4,98.5,0.461
8.72,31835.7,34642.6,1.1727,1.1622,142.4,98.5,0.461
8.74,31901.9,34625.1,1.1769,1.1612,142.4,98.5,0.461
8.76,31739.8,34486.9,1.1667,1.1532,142.4,98.5,0.461
8.78,31736.6,34412.4,1.1665,1.1489,142.4,98.5,0.461
8.8,31779.6,34445.2,1.1692,1.1508,142.4,98.5,0.461
8.82,31899.2,34802.0,1.1768,1.1715,142.4,98.5,0.461
8.84,32016.4,35068.4,1.1842,1.1869,142.4,98.5,0.461
8.86,32244.1,35501.1,1.1986,1.212,142.4,98.5,0.461
8.88,32278.7,35642.7,1.2008,1.2202,142.4,98.5,0.461
8.9,32330.9,35662.0,1.2041,1.2213,142.4,98.5,0.461
8.92,32253.7,35650.6,1.1992,1.2206,142.4,98.5,0.461
8.94,32154.0,35583.6,1.1929,1.2168,142.4,98.5,0.461
8.96,32090.9,35295.2,1.1889,1.2,142.4,98.5,0.461
8.98,32051.6,35122.4,1.1864,1.19,142.4,98.5,0.461
9.0,32109.7,35123.8,1.1901,1.1901,142.4,98.5,0.461
9.02,31976.8,35005.4,1.1817,1.1833,142.4,98.5,0.461
9.04,32023.9,34922.0,1.1847,1.1784,142.4,98.5,0.461
9.06,31882.2,34784.9,1.1757,1.1705,142.4,98.5,0.461
9.08,31943.2,34709.8,1.1795,1.1661,142.4,98.5,0.461
9.1,31829.0,34662.9,1.1723,1.1634,142.4,98.5,0.461
9.12,31770.6,34682.0,1.1686,1.1645,142.4,98.5,0.461
9.14,31934.6,34646.9,1.179,1.1625,142.4,98.5,0.461
9.16,31780.9,34678.9,1.1693,1.1643,142.4,98.5,0.461
9.18,31723.3,34464.7,1.1656,1.1519,142.4,98.5,0.461
9.2,31714.0,34499.7,1.165,1.1539,142.4,98.5,0.461
9.22,31722.4,34608.8,1.1656,1.1603,142.4,98.5,0.461
9.24,31915.6,34726.8,1.1778,1.1671,142.4,98.5,0.461
9.26,32088.5,35064.6,1.1888,1.1867,142.4,98.5,0.461
9.28,32248.4,35404.4,1.1989,1.2064,142.4,98.5,0.461
9.3,32267.3,35672.0,1.2001,1.2219,142.4,98.5,0.461
9.32,32296.8,35749.5,1.202,1.2264,142.4,98.5,0.461
9.34,32247.4,35667.5,1.1988,1.2216,142.4,98.5,0.461
9.36,32248.0,35521.3,1.1989,1.2131,142.4,98.5,0.461
9.38,32174.3,35352.1,1.1942,1.2033,142.4,98.5,0.461
9.4,32048.8,35194.6,1.1862,1.1942,142.4,98.5,0.461
9.42,32030.0,35162.7,1.1851,1.1924,142.4,98.5,0.461
9.44,32028.3,35044.6,1.1849,1.1855,142.4,98.5,0.461
9.46,31989.8,34959.5,1.1825,1.1806,142.4,98.5,0.461
9.48,31939.5,34806.8,1.1793,1.1717,142.4,98.5,0.461
9.5,31935.5,34781.6,1.1791,1.1703,142.4,98.5,0.461
9.52,31889.6,34715.1,1.1762,1.1664,142.4,98.5,0.461
9.54,31891.0,34585.9,1.1762,1.1589,142.4,98.5,0.461
9.56,31901.3,34525.1,1.1769,1.1554,142.4,98.5,0.461
9.58,31655.7,34605.1,1.1613,1.1601,142.4,98.5,0.461
9.6,31770.4,34514.8,1.1686,1.1548,142.4,98.5,0.461
9.62,31767.7,34456.4,1.1684,1.1514,142.4,98.5,0.461
9.64,31766.3,34520.6,1.1683,1.1552,142.4,98.5,0.461
9.66,31870.6,34734.1,1.175,1.1675,142.4,98.5,0.461
9.68,32032.4,34936.9,1.1852,1.1793,142.4,98.5,0.461
9.7,32241.9,35366.5,1.1985,1.2042,142.4,98.5,0.461
9.72,32245.2,35665.4,1.1987,1.2215,142.4,98.5,0.461
9.74,32228.4,35772.9,1.1976,1.2277,142.4,98.5,0.461
9.76,32263.0,35743.2,1.1998,1.226,142.4,98.5,0.461
9.78,32210.5,35434.6,1.1965,1.2081,142.4,98.5,0.461
9.8,32121.3,35265.6,1.1908,1.1983,142.4,98.5,0.461
9.82,32063.0,35146.9,1.1871,1.1914,142.4,98.5,0.461
9.84,32076.6,35065.7,1.188,1.1867,142.4,98.5,0.461
9.86,31987.6,35107.1,1.1824,1.1891,142.4,98.5,0.461
9.88,31991.1,34969.8,1.1826,1.1812,142.4,98.5,0.461
9.9,31841.8,34779.3,1.1731,1.1701,142.4,98.5,0.461
9.92,31907.3,34791.8,1.1773,1.1709,142.4,98.5,0.461
9.94,31889.7,34827.6,1.1762,1.1729,142.4,98.5,0.461
9.96,31842.7,34637.9,1.1732,1.162,142.4,98.5,0.461
9.98,31919.6,34686.1,1.1781,1.1647,142.4,98.5,0.461
10.0,31907.7,34618.9,1.1773,1.1609,142.4,98.5,0.461
10.02,31804.1,34529.6,1.1707,1.1557,142.4,98.5,0.461
10.04,31776.0,34449.2,1.169,1.151,142.4,98.5,0.461
10.06,31728.0,34508.6,1.1659,1.1545,142.4,98.5,0.461
10.08,31912.0,34640.3,1.1776,1.1621,142.4,98.5,0.461
10.1,31992.1,34952.1,1.1826,1.1802,142.4,98.5,0.461
10.12,32056.3,35370.2,1.1867,1.2044,142.4,98.5,0.461
10.14,32270.2,35593.3,1.2003,1.2173,142.4,98.5,0.461
10.16,32260.1,35746.6,1.1996,1.2262,142.4,98.5,0.461
10.18,32291.6,35698.4,1.2016,1.2234,142.4,98.5,0.461
10.2,32235.0,35556.6,1.198,1.2152,142.4,98.5,0.461
10.22,32112.0,35264.4,1.1903,1.1983,142.4,98.5,0.461
10.24,32101.7,35156.0,1.1896,1.192,142.4,98.5,0.461
10.26,32017.0,35171.1,1.1842,1.1929,142.4,98.5,0.461
10.28,31989.9,35134.9,1.1825,1.1908,142.4,98.5,0.461
10.3,31931.2,34963.8,1.1788,1.1808,142.4,98.5,0.461
10.32,31860.0,34888.3,1.1743,1.1765,142.4,98.5,0.461
10.34,31791.2,34671.5,1.1699,1.1639,142.4,98.5,0.461
10.36,31904.5,34681.6,1.1771,1.1645,142.4,98.5,0.461
10.38,31965.3,34661.3,1.181,1.1633,142.4,98.5,0.461
10.4,31814.0,34591.1,1.1714,1.1592,142.4,98.5,0.461
10.42,31859.7,34633.5,1.1743,1.1617,142.4,98.5,0.461
10.44,31772.6,34506.9,1.1687,1.1544,142.4,98.5,0.461
10.46,31800.1,34413.7,1.1705,1.149,142.4,98.5,0.461
10.48,31736.1,34476.2,1.1664,1.1526,142.4,98.5,0.461
10.5,31851.3,34654.1,1.1737,1.1629,142.4,98.5,0.461
10.52,31990.9,34985.0,1.1826,1.1821,142.4,98.5,0.461
10.54,32232.5,35316.5,1.1979,1.2013,142.4,98.5,0.461
10.56,32189.2,35570.4,1.1951,1.216,142.4,98.5,0.461
10.58,32301.3,35765.2,1.2022,1.2273,142.4,98.5,0.461
10.6,32272.6,35702.6,1.2004,1.2236,142.4,98.5,0.461
10.62,32319.5,35473.5,1.2034,1.2104,142.4,98.5,0.461
10.64,32326.2,35229.5,1.2038,1.1962,142.4,98.5,0.461
10.66,31994.0,35202.8,1.1828,1.1947,142.4,98.5,0.461
10.68,32052.4,35152.9,1.1865,1.1918,142.4,98.5,0.461
10.7,32042.6,35065.7,1.1859,1.1867,142.4,98.5,0.461
10.72,31870.4,35105.7,1.1749,1.1891,142.4,98.5,0.461
10.74,31910.9,34905.5,1.1775,1.1775,142.4,98.5,0.461
10.76,31988.9,34773.5,1.1824,1.1698,142.4,98.5,0.461
10.78,31846.8,34644.7,1.1734,1.1623,142.4,98.5,0.461
10.8,31905.7,34728.5,1.1772,1.1672,142.4,98.5,0.461
10.82,31766.9,34724.4,1.1684,1.167,142.4,98.5,0.461
10.84,31849.2,34628.1,1.1736,1.1614,142.4,98.5,0.461
10.86,31829.1,34517.6,1.1723,1.155,142.4,98.5,0.461
10.88,31740.5,34454.1,1.1667,1.1513,142.4,98.5,0.461
10.9,31717.4,34373.6,1.1652,1.1466,142.4,98.5,0.461
10.92,31905.4,34627.9,1.1772,1.1614,142.4,98.5,0.461
10.94,31960.9,34904.0,1.1807,1.1774,142.4,98.5,0.461
10.96,32176.9,35338.3,1.1944,1.2025,142.4,98.5,0.461
10.98,32189.0,35668.4,1.1951,1.2217,142.4,98.5,0.461
11.0,32307.3,35820.3,1.2026,1.2305,142.4,98.5,0.461
11.02,32364.9,35660.7,1.2063,1.2212,142.4,98.5,0.461
11.04,32209.1,35449.0,1.1964,1.209,142.4,98.5,0.461
11.06,32227.1,35356.4,1.1975,1.2036,142.4,98.5,0.461
11.08,31999.3,35183.1,1.1831,1.1935,142.4,98.5,0.461
11.1,32049.0,35086.3,1.1863,1.1879,142.4,98.5,0.461
11.12,32009.4,35151.5,1.1837,1.1917,142.4,98.5,0.461
11.14,31939.6,34971.7,1.1793,1.1813,142.4,98.5,0.461
11.16,32003.9,34833.1,1.1834,1.1733,142.4,98.5,0.461
11.18,31950.2,34698.6,1.18,1.1655,142.4,98.5,0.461
11.2,31844.8,34828.2,1.1733,1.173,142.4,98.5,0.461
11.22,31894.6,34683.8,1.1765,1.1646,142.4,98.5,0.461
11.24,31875.9,34675.5,1.1753,1.1641,142.4,98.5,0.461
11.26,31752.7,34645.1,1.1675,1.1624,142.4,98.5,0.461
11.28,31787.8,34524.3,1.1697,1.1554,142.4,98.5,0.461
11.3,31683.9,34403.1,1.1631,1.1483,142.4,98.5,0.461
11.32,31794.5,34490.0,1.1701,1.1534,142.4,98.5,0.461
11.34,31867.0,34575.2,1.1747,1.1583,142.4,98.5,0.461
11.36,32009.6,34809.9,1.1838,1.1719,142.4,98.5,0.461
11.38,32153.6,35392.3,1.1929,1.2057,142.4,98.5,0.461
11.4,32307.8,35642.2,1.2027,1.2201,142.4,98.5,0.461
11.42,32373.2,35779.1,1.2068,1.2281,142.4,98.5,0.461
11.44,32265.5,35699.5,1.2,1.2235,142.4,98.5,0.461
11.46,32224.0,35416.7,1.1973,1.2071,142.4,98.5,0.461
11.48,32141.3,35387.5,1.1921,1.2054,142.4,98.5,0.461
11.5,32071.1,35178.6,1.1877,1.1933,142.4,98.5,0.461
11.52,32003.4,35176.2,1.1834,1.1931,142.4,98.5,0.461
11.54,31999.0,35122.3,1.1831,1.19,142.4,98.5,0.461
11.56,31990.9,34998.6,1.1826,1.1829,142.4,98.5,0.461
11.58,31872.2,34878.8,1.1751,1.1759,142.4,98.5,0.461
11.6,31909.0,34757.5,1.1774,1.1689,142.4,98.5,0.461
11.62,31976.4,34665.3,1.1817,1.1635,142.4,98.5,0.461
11.64,31802.3,34732.1,1.1706,1.1674,142.4,98.5,0.461
11.66,31829.0,34618.8,1.1723,1.1608,142.4,98.5,0.461
11.68,31891.0,34636.5,1.1762,1.1619,142.4,98.5,0.461
11.7,31781.3,34524.1,1.1693,1.1554,142.4,98.5,0.461
11.72,31767.2,34435.3,1.1684,1.1502,142.4,98.5,0.461
11.74,31719.7,34483.1,1.1654,1.153,142.4,98.5,0.461
11.76,31762.9,34622.8,1.1681,1.1611,142.4,98.5,0.461
11.78,31876.9,34866.7,1.1753,1.1752,142.4,98.5,0.461
11.8,32145.4,35324.7,1.1924,1.2018,142.4,98.5,0.461
11.82,32296.2,35582.6,1.2019,1.2167,142.4,98.5,0.461
11.84,32394.3,35727.9,1.2081,1.2251,142.4,98.5,0.461
11.86,32189.5,35735.6,1.1952,1.2256,142.4,98.5,0.461
11.88,32187.6,35550.4,1.195,1.2148,142.4,98.5,0.461
11.9,32107.7,35305.0,1.19,1.2006,142.4,98.5,0.461
11.92,32096.7,35219.2,1.1893,1.1956,142.4,98.5,0.461
11.94,32025.1,35168.8,1.1847,1.1927,142.4,98.5,0.461
11.96,31997.1,35077.1,1.183,1.1874,142.4,98.5,0.461
11.98,32000.0,35007.7,1.1831,1.1834,142.4,98.5,0.461
12.0,31988.5,34847.1,1.1824,1.1741,142.4,98.5,0.461
12.02,31843.4,34798.7,1.1732,1.1713,142.4,98.5,0.461
12.04,31913.8,34705.9,1.1777,1.1659,142.4,98.5,0.461
12.06,31869.1,34572.5,1.1749,1.1582,142.4,98.5,0.461
12.08,31875.2,34710.7,1.1752,1.1662,142.4,98.5,0.461
12.1,31889.9,34629.3,1.1762,1.1615,142.4,98.5,0.461
12.12,31795.8,34563.4,1.1702,1.1576,142.4,98.5,0.461
12.14,31808.0,34497.5,1.171,1.1538,142.4,98.5,0.461
12.16,31800.1,34426.0,1.1705,1.1497,142.4,98.5,0.461
12.18,31894.3,34560.0,1.1764,1.1574,142.4,98.5,0.461
12.2,31964.1,34910.0,1.1809,1.1777,142.4,98.5,0.461
12.22,32195.2,35246.9,1.1955,1.1972,142.4,98.5,0.461
12.24,32218.5,35581.6,1.197,1.2166,142.4,98.5,0.461
12.26,32300.3,35743.2,1.2022,1.226,142.4,98.5,0.461
12.28,32345.6,35785.3,1.2051,1.2284,142.4,98.5,0.461
12.3,32184.1,35635.0,1.1948,1.2197,142.4,98.5,0.461
12.32,32127.7,35412.4,1.1912,1.2068,142.4,98.5,0.461
12.34,32082.5,35219.4,1.1884,1.1956,142.4,98.5,0.461
12.36,32115.0,35147.4,1.1904,1.1915,142.4,98.5,0.461
12.38,32071.3,34989.7,1.1877,1.1823,142.4,98.5,0.461
12.4,32059.7,35061.2,1.1869,1.1865,142.4,98.5,0.461
12.42,31987.2,34927.7,1.1823,1.1787,142.4,98.5,0.461
12.44,31949.4,34803.9,1.1799,1.1716,142.4,98.5,0.461
12.46,31900.3,34689.4,1.1768,1.1649,142.4,98.5,0.461
12.48,31872.2,34666.7,1.1751,1.1636,142.4,98.5,0.461
12.5,31889.8,34658.9,1.1762,1.1632,142.4,98.5,0.461
12.52,31787.0,34790.1,1.1696,1.1708,142.4,98.5,0.461
12.54,31823.9,34538.7,1.172,1.1562,142.4,98.5,0.461
12.56,31756.3,34468.0,1.1677,1.1521,142.4,98.5,0.461
12.58,31752.5,34538.8,1.1675,1.1562,142.4,98.5,0.461
12.6,31779.2,34600.4,1.1692,1.1598,142.4,98.5,0.461
12.62,31994.6,34860.0,1.1828,1.1748,142.4,98.5,0.461
12.64,32210.5,35277.1,1.1965,1.199,142.4,98.5,0.461
12.66,32250.9,35582.1,1.1991,1.2167,142.4,98.5,0.461
12.68,32261.0,35753.9,1.1997,1.2266,142.4,98.5,0.461
12.7,32267.0,35748.7,1.2001,1.2263,142.4,98.5,0.461
12.72,32127.7,35624.1,1.1912,1.2191,142.4,98.5,0.461
12.74,32140.0,35437.1,1.192,1.2083,142.4,98.5,0.461
12.76,32109.9,35216.0,1.1901,1.1955,142.4,98.5,0.461
12.78,32010.9,35256.5,1.1838,1.1978,142.4,98.5,0.461
12.8,31990.8,35062.2,1.1826,1.1865,142.4,98.5,0.461
12.82,32068.3,35024.2,1.1875,1.1843,142.4,98.5,0.461
12.84,31952.3,34994.8,1.1801,1.1826,142.4,98.5,0.461
12.86,31868.7,34844.9,1.1748,1.1739,142.4,98.5,0.461
12.88,31921.5,34693.0,1.1782,1.1651,142.4,98.5,0.461
12.9,31746.2,34720.4,1.1671,1.1667,142.4,98.5,0.461
12.92,31855.0,34653.5,1.174,1.1629,142.4,98.5,0.461
12.94,31815.9,34674.5,1.1715,1.1641,142.4,98.5,0.461
12.96,31832.2,34604.5,1.1725,1.16,142.4,98.5,0.461
12.98,31716.6,34461.9,1.1652,1.1518,142.4,98.5,0.461
13.0,31729.5,34504.8,1.166,1.1542,142.4,98.5,0.461
13.02,31860.0,34499.6,1.1743,1.1539,142.4,98.5,0.461
13.04,31949.8,34832.1,1.18,1.1732,142.4,98.5,0.461
13.06,32080.5,35316.0,1.1883,1.2012,142.4,98.5,0.461
13.08,32160.4,35549.4,1.1933,1.2148,142.4,98.5,0.461
13.1,32302.7,35801.2,1.2023,1.2294,142.4,98.5,0.461
13.12,32328.0,35760.3,1.2039,1.227,142.4,98.5,0.461
13.14,32238.6,35625.4,1.1983,1.2192,142.4,98.5,0.461
13.16,32118.1,35363.5,1.1906,1.204,142.4,98.5,0.461
13.18,32113.3,35204.7,1.1903,1.1948,142.4,98.5,0.461
13.2,32036.6,35127.5,1.1855,1.1903,142.4,98.5,0.461
13.22,32015.8,35100.5,1.1842,1.1888,142.4,98.5,0.461
13.24,31986.4,35074.4,1.1823,1.1872,142.4,98.5,0.461
13.26,31927.6,34934.2,1.1786,1.1791,142.4,98.5,0.461
13.28,31904.7,34749.3,1.1771,1.1684,142.4,98.5,0.461
13.3,31902.9,34680.9,1.177,1.1644,142.4,98.5,0.461
13.32,31903.3,34722.1,1.177,1.1668,142.4,98.5,0.461
13.34,31917.6,34694.8,1.1779,1.1653,142.4,98.5,0.461
13.36,31870.2,34677.3,1.1749,1.1642,142.4,98.5,0.461
13.38,31882.0,34556.7,1.1757,1.1573,142.4,98.5,0.461
13.4,31791.2,34525.0,1.1699,1.1554,142.4,98.5,0.461
13.42,31717.0,34498.7,1.1652,1.1539,142.4,98.5,0.461
13.44,31866.7,34514.7,1.1747,1.1548,142.4,98.5,0.461
13.46,31884.0,34816.9,1.1758,1.1723,142.4,98.5,0.461
13.48,32123.1,35226.5,1.191,1.1961,142.4,98.5,0.461
13.5,32127.2,35521.7,1.1912,1.2132,142.4,98.5,0.461
13.52,32256.8,35743.5,1.1994,1.226,142.4,98.5,0.461
13.54,32266.0,35707.3,1.2,1.2239,142.4,98.5,0.461
13.56,32181.3,35570.5,1.1946,1.216,142.4,98.5,0.461
13.58,32150.1,35405.2,1.1927,1.2064,142.4,98.5,0.461
13.6,32160.3,35203.3,1.1933,1.1947,142.4,98.5,0.461
13.62,31980.0,35170.4,1.1819,1.1928,142.4,98.5,0.461
13.64,31881.2,35013.7,1.1756,1.1837,142.4,98.5,0.461
13.66,32018.9,34985.0,1.1843,1.1821,142.4,98.5,0.461
13.68,32032.1,34936.6,1.1852,1.1793,142.4,98.5,0.461
13.7,32007.4,34772.2,1.1836,1.1697,142.4,98.5,0.461
13.72,31862.0,34713.3,1.1744,1.1663,142.4,98.5,0.461
13.74,31939.9,34672.4,1.1793,1.164,142.4,98.5,0.461
13.76,31860.9,34601.7,1.1743,1.1599,142.4,98.5,0.461
13.78,31845.9,34691.9,1.1734,1.1651,142.4,98.5,0.461
13.8,31793.6,34581.9,1.1701,1.1587,142.4,98.5,0.461
13.82,31741.7,34557.5,1.1668,1.1573,142.4,98.5,0.461
13.84,31855.8,34440.9,1.174,1.1505,142.4,98.5,0.461
13.86,31819.8,34536.2,1.1717,1.1561,142.4,98.5,0.461
13.88,31909.7,34889.6,1.1774,1.1765,142.4,98.5,0.461
13.9,32030.0,35137.6,1.1851,1.1909,142.4,98.5,0.461
13.92,32194.5,35554.2,1.1955,1.215,142.4,98.5,0.461
13.94,32270.9,35676.7,1.2003,1.2221,142.4,98.5,0.461
13.96,32327.5,35755.5,1.2039,1.2267,142.4,98.5,0.461
13.98,32302.1,35523.1,1.2023,1.2132,142.4,98.5,0.461
14.0,32154.9,35446.7,1.193,1.2088,142.4,98.5,0.461
14.02,32074.1,35230.4,1.1878,1.1963,142.4,98.5,0.461
14.04,32070.4,35081.4,1.1876,1.1877,142.4,98.5,0.461
14.06,32151.3,35084.5,1.1927,1.1878,142.4,98.5,0.461
14.08,32043.3,35007.5,1.1859,1.1834,142.4,98.5,0.461
14.1,32029.5,34917.6,1.185,1.1782,142.4,98.5,0.461
14.12,31884.6,34895.4,1.1758,1.1769,142.4,98.5,0.461
14.14,31889.8,34796.2,1.1762,1.1711,142.4,98.5,0.461
14.16,31833.2,34746.1,1.1726,1.1682,142.4,98.5,0.461
14.18,31879.0,34697.3,1.1755,1.1654,142.4,98.5,0.461
14.2,31823.7,34667.2,1.172,1.1637,142.4,98.5,0.461
14.22,31816.6,34580.5,1.1715,1.1586,142.4,98.5,0.461
14.24,31814.5,34368.9,1.1714,1.1464,142.4,98.5,0.461
14.26,31654.0,34491.0,1.1612,1.1534,142.4,98.5,0.461
14.28,31798.2,34560.5,1.1704,1.1575,142.4,98.5,0.461
14.3,31846.6,34734.8,1.1734,1.1676,142.4,98.5,0.461
14.32,32011.3,35145.0,1.1839,1.1913,142.4,98.5,0.461
14.34,32144.0,35488.7,1.1923,1.2113,142.4,98.5,0.461
14.36,32307.0,35724.7,1.2026,1.2249,142.4,98.5,0.461
14.38,32259.0,35869.8,1.1996,1.2333,142.4,98.5,0.461
14.4,32254.2,35560.2,1.1993,1.2154,142.4,98.5,0.461
14.42,32122.6,35455.0,1.1909,1.2093,142.4,98.5,0.461
14.44,32137.1,35188.9,1.1918,1.1939,142.4,98.5,0.461
14.46,32049.0,35152.2,1.1863,1.1918,142.4,98.5,0.461
14.48,32058.7,35113.4,1.1869,1.1895,142.4,98.5,0.461
14.5,32054.2,35100.5,1.1866,1.1888,142.4,98.5,0.461
14.52,31977.6,34938.7,1.1817,1.1794,142.4,98.5,0.461
14.54,31943.5,34762.5,1.1796,1.1692,142.4,98.5,0.461
14.56,31861.6,34751.8,1.1744,1.1686,142.4,98.5,0.461
14.58,31854.2,34671.1,1.1739,1.1639,142.4,98.5,0.461
14.6,31923.9,34582.8,1.1783,1.1588,142.4,98.5,0.461
14.62,31789.0,34727.1,1.1698,1.1671,142.4,98.5,0.461
14.64,31834.3,34570.7,1.1726,1.1581,142.4,98.5,0.461
14.66,31825.6,34520.6,1.1721,1.1552,142.4,98.5,0.461
14.68,31799.3,34566.8,1.1704,1.1578,142.4,98.5,0.461
14.7,31763.6,34535.5,1.1682,1.156,142.4,98.5,0.461
14.72,31855.2,34777.0,1.174,1.17,142.4,98.5,0.461
14.74,32005.5,35150.2,1.1835,1.1916,142.4,98.5,0.461
14.76,32284.2,35506.3,1.2012,1.2123,142.4,98.5,0.461
14.78,32251.3,35721.5,1.1991,1.2247,142.4,98.5,0.461
14.8,32313.6,35757.5,1.203,1.2268,142.4,98.5,0.461
14.82,32261.9,35639.4,1.1997,1.22,142.4,98.5,0.461
14.84,32144.3,35407.7,1.1923,1.2066,142.4,98.5,0.461
14.86,32089.1,35248.4,1.1888,1.1973,142.4,98.5,0.461
14.88,31998.3,35189.3,1.183,1.1939,142.4,98.5,0.461
14.9,32109.9,35102.2,1.1901,1.1889,142.4,98.5,0.461
14.92,32091.5,35045.0,1.1889,1.1855,142.4,98.5,0.461
14.94,31971.0,34907.6,1.1813,1.1776,142.4,98.5,0.461
14.96,31890.8,34757.3,1.1762,1.1689,142.4,98.5,0.461
14.98,31886.6,34851.9,1.176,1.1744,142.4,98.5,0.461
15.0,31814.6,34745.3,1.1714,1.1682,142.4,98.5,0.461
15.02,31893.1,34671.5,1.1764,1.1639,142.4,98.5,0.461
15.04,31876.5,34585.6,1.1753,1.1589,142.4,98.5,0.461
15.06,31859.6,34586.8,1.1743,1.159,142.4,98.5,0.461
15.08,31810.1,34477.0,1.1711,1.1526,142.4,98.5,0.461
15.1,31737.2,34485.3,1.1665,1.1531,142.4,98.5,0.461
15.12,31853.6,34587.2,1.1739,1.159,142.4,98.5,0.461
15.14,31846.4,34695.5,1.1734,1.1653,142.4,98.5,0.461
15.16,32016.8,35127.6,1.1842,1.1903,142.4,98.5,0.461
15.18,32273.4,35499.8,1.2005,1.2119,142.4,98.5,0.461
15.2,32339.4,35694.4,1.2047,1.2232,142.4,98.5,0.461
15.22,32296.9,35736.9,1.202,1.2256,142.4,98.5,0.461
15.24,32288.3,35746.4,1.2014,1.2262,142.4,98.5,0.461
15.26,32328.4,35423.3,1.204,1.2075,142.4,98.5,0.461
15.28,32155.1,35309.9,1.193,1.2009,142.4,98.5,0.461
15.3,32134.0,35202.7,1.1916,1.1947,142.4,98.5,0.461
15.32,32009.1,35070.0,1.1837,1.187,142.4,98.5,0.461
15.34,31955.9,34957.5,1.1804,1.1805,142.4,98.5,0.461
15.36,31963.8,34979.2,1.1809,1.1817,142.4,98.5,0.461
15.38,31902.6,34911.6,1.177,1.1778,142.4,98.5,0.461
15.4,31855.7,34648.6,1.174,1.1626,142.4,98.5,0.461
15.42,31889.8,34738.7,1.1762,1.1678,142.4,98.5,0.461
15.44,31781.7,34646.3,1.1693,1.1624,142.4,98.5,0.461
15.46,31866.0,34652.6,1.1747,1.1628,142.4,98.5,0.461
15.48,31885.6,34642.2,1.1759,1.1622,142.4,98.5,0.461
15.5,31834.1,34591.7,1.1726,1.1593,142.4,98.5,0.461
15.52,31827.5,34476.1,1.1722,1.1526,142.4,98.5,0.461
15.54,31774.3,34521.4,1.1688,1.1552,142.4,98.5,0.461
15.56,31917.4,34758.8,1.1779,1.169,142.4,98.5,0.461
15.58,32052.3,35067.7,1.1865,1.1869,142.4,98.5,0.461
15.6,32111.0,35439.3,1.1902,1.2084,142.4,98.5,0.461
15.62,32175.3,35719.5,1.1943,1.2246,142.4,98.5,0.461
15.64,32214.3,35798.9,1.1967,1.2292,142.4,98.5,0.461
15.66,32277.9,35670.9,1.2008,1.2218,142.4,98.5,0.461
15.68,32174.1,35422.3,1.1942,1.2074,142.4,98.5,0.461
15.7,32186.9,35248.2,1.195,1.1973,142.4,98.5,0.461
15.72,32159.8,35224.3,1.1933,1.1959,142.4,98.5,0.461
15.74,31980.8,35106.6,1.1819,1.1891,142.4,98.5,0.461
15.76,31953.3,35031.9,1.1802,1.1848,142.4,98.5,0.461
15.78,32008.3,34971.2,1.1837,1.1813,142.4,98.5,0.461
15.8,31917.6,34912.7,1.1779,1.1779,142.4,98.5,0.461
15.82,31859.1,34761.7,1.1742,1.1691,142.4,98.5,0.461
15.84,31859.3,34692.8,1.1742,1.1651,142.4,98.5,0.461
15.86,31857.6,34667.8,1.1741,1.1637,142.4,98.5,0.461
15.88,31865.3,34569.4,1.1746,1.158,142.4,98.5,0.461
15.9,31880.7,34609.5,1.1756,1.1603,142.4,98.5,0.461
15.92,31761.0,34522.0,1.168,1.1552,142.4,98.5,0.461
15.94,31761.5,34411.6,1.168,1.1488,142.4,98.5,0.461
15.96,31759.5,34544.5,1.1679,1.1565,142.4,98.5,0.461
15.98,31856.2,34724.0,1.174,1.1669,142.4,98.5,0.461
16.0,31979.9,34959.6,1.1819,1.1806,142.4,98.5,0.461
16.02,32154.1,35391.5,1.1929,1.2056,142.4,98.5,0.461
16.04,32258.7,35798.5,1.1995,1.2292,142.4,98.5,0.461
16.06,32383.1,35807.0,1.2074,1.2297,142.4,98.5,0.461
16.08,32224.1,35681.8,1.1974,1.2224,142.4,98.5,0.461
16.1,32197.9,35496.8,1.1957,1.2117,142.4,98.5,0.461
16.12,32056.4,35355.8,1.1867,1.2036,142.4,98.5,0.461
16.14,32082.6,35138.6,1.1884,1.191,142.4,98.5,0.461
16.16,31983.4,35058.0,1.1821,1.1863,142.4,98.5,0.461
16.18,32047.0,35071.0,1.1861,1.1871,142.4,98.5,0.461
16.2,31969.5,34969.0,1.1812,1.1811,142.4,98.5,0.461
16.22,31994.8,34851.7,1.1828,1.1743,142.4,98.5,0.461
16.24,31842.5,34565.7,1.1732,1.1578,142.4,98.5,0.461
16.26,31874.7,34667.4,1.1752,1.1637,142.4,98.5,0.461
16.28,31857.0,34689.9,1.1741,1.165,142.4,98.5,0.461
16.3,31951.7,34655.6,1.1801,1.163,142.4,98.5,0.461
16.32,31756.0,34601.1,1.1677,1.1598,142.4,98.5,0.461
16.34,31816.8,34563.7,1.1715,1.1577,142.4,98.5,0.461
16.36,31739.5,34524.7,1.1666,1.1554,142.4,98.5,0.461
16.38,31794.1,34462.8,1.1701,1.1518,142.4,98.5,0.461
16.4,31903.9,34622.2,1.1771,1.161,142.4,98.5,0.461
16.42,32038.2,35062.9,1.1856,1.1866,142.4,98.5,0.461
16.44,32191.2,35443.0,1.1953,1.2086,142.4,98.5,0.461
16.46,32253.3,35537.1,1.1992,1.2141,142.4,98.5,0.461
16.48,32411.1,35748.6,1.2092,1.2263,142.4,98.5,0.461
16.5,32306.6,35672.9,1.2026,1.2219,142.4,98.5,0.461
16.52,32153.9,35574.8,1.1929,1.2162,142.4,98.5,0.461
16.54,32128.6,35341.7,1.1913,1.2027,142.4,98.5,0.461
16.56,31970.8,35102.8,1.1813,1.1889,142.4,98.5,0.461
16.58,32096.0,35185.7,1.1892,1.1937,142.4,98.5,0.461
16.6,32060.6,35076.5,1.187,1.1874,142.4,98.5,0.461
16.62,31980.7,34919.0,1.1819,1.1782,142.4,98.5,0.461
16.64,31955.4,34847.0,1.1803,1.1741,142.4,98.5,0.461
16.66,31910.8,34721.9,1.1775,1.1668,142.4,98.5,0.461
16.68,31901.1,34555.1,1.1769,1.1572,142.4,98.5,0.461
16.7,31901.8,34727.5,1.1769,1.1671,142.4,98.5,0.461
16.72,31883.2,34616.0,1.1757,1.1607,142.4,98.5,0.461
16.74,31814.5,34616.9,1.1714,1.1607,142.4,98.5,0.461
16.76,31839.1,34545.0,1.173,1.1566,142.4,98.5,0.461
16.78,31830.7,34382.2,1.1724,1.1471,142.4,98.5,0.461
16.8,31887.3,34482.7,1.176,1.153,142.4,98.5,0.461
16.82,31826.5,34672.4,1.1722,1.164,142.4,98.5,0.461
16.84,32010.5,35002.3,1.1838,1.1831,142.4,98.5,0.461
16.86,32217.8,35347.0,1.197,1.203,142.4,98.5,0.461
16.88,32379.6,35758.9,1.2072,1.2269,142.4,98.5,0.461
16.9,32250.7,35772.3,1.199,1.2277,142.4,98.5,0.461
16.92,32383.3,35663.3,1.2074,1.2214,142.4,98.5,0.461
16.94,32216.1,35534.5,1.1968,1.2139,142.4,98.5,0.461
16.96,32134.2,35345.2,1.1917,1.2029,142.4,98.5,0.461
16.98,31966.6,35146.3,1.181,1.1914,142.4,98.5,0.461
17.0,32065.2,35122.0,1.1873,1.19,142.4,98.5,0.461
17.02,32062.7,35086.6,1.1871,1.188,142.4,98.5,0.461
17.04,32014.5,34911.3,1.1841,1.1778,142.4,98.5,0.461
17.06,32000.7,34899.2,1.1832,1.1771,142.4,98.5,0.461
17.08,31899.2,34855.2,1.1768,1.1745,142.4,98.5,0.461
17.1,31915.4,34732.3,1.1778,1.1674,142.4,98.5,0.461
17.12,31830.7,34587.0,1.1724,1.159,142.4,98.5,0.461
17.14,31962.5,34594.1,1.1808,1.1594,142.4,98.5,0.461
17.16,31818.4,34693.6,1.1716,1.1652,142.4,98.5,0.461
17.18,31807.7,34514.0,1.171,1.1548,142.4,98.5,0.461
17.2,31812.3,34624.2,1.1713,1.1612,142.4,98.5,0.461
17.22,31776.2,34410.7,1.169,1.1488,142.4,98.5,0.461
17.24,31847.6,34636.1,1.1735,1.1618,142.4,98.5,0.461
17.26,31970.1,34980.4,1.1813,1.1818,142.4,98.5,0.461
17.28,32204.3,35408.9,1.1961,1.2066,142.4,98.5,0.461
17.3,32303.3,35727.4,1.2024,1.2251,142.4,98.5,0.461
17.32,32289.1,35825.3,1.2015,1.2308,142.4,98.5,0.461
17.34,32289.3,35639.9,1.2015,1.22,142.4,98.5,0.461
17.36,32217.2,35394.4,1.1969,1.2058,142.4,98.5,0.461
17.38,32115.3,35350.6,1.1905,1.2032,142.4,98.5,0.461
17.4,32065.6,35148.0,1.1873,1.1915,142.4,98.5,0.461
17.42,32034.1,35070.5,1.1853,1.187,142.4,98.5,0.461
17.44,31942.1,35087.6,1.1795,1.188,142.4,98.5,0.461
17.46,32042.9,35045.0,1.1859,1.1855,142.4,98.5,0.461
17.48,31920.0,34834.0,1.1781,1.1733,142.4,98.5,0.461
17.5,31963.8,34821.4,1.1809,1.1726,142.4,98.5,0.461
17.52,31856.2,34701.3,1.174,1.1656,142.4,98.5,0.461
17.54,31899.3,34694.1,1.1768,1.1652,142.4,98.5,0.461
17.56,31805.7,34667.8,1.1708,1.1637,142.4,98.5,0.461
17.58,31770.6,34592.3,1.1686,1.1593,142.4,98.5,0.461
17.6,31747.3,34510.7,1.1671,1.1546,142.4,98.5,0.461
17.62,31717.1,34501.6,1.1652,1.1541,142.4,98.5,0.461
17.64,31781.5,34591.6,1.1693,1.1593,142.4,98.5,0.461
17.66,31907.6,34590.8,1.1773,1.1592,142.4,98.5,0.461
17.68,31973.9,34975.9,1.1815,1.1815,142.4,98.5,0.461
17.7,32030.9,35348.6,1.1851,1.2031,142.4,98.5,0.461
17.72,32192.5,35612.9,1.1954,1.2184,142.4,98.5,0.461
17.74,32290.1,35671.6,1.2015,1.2218,142.4,98.5,0.461
17.76,32265.6,35678.3,1.2,1.2222,142.4,98.5,0.461
17.78,32316.0,35458.1,1.2032,1.2095,142.4,98.5,0.461
17.8,32169.5,35323.7,1.1939,1.2017,142.4,98.5,0.461
17.82,32032.9,35175.4,1.1852,1.1931,142.4,98.5,0.461
17.84,32097.3,35124.9,1.1893,1.1902,142.4,98.5,0.461
17.86,32115.8,35072.0,1.1905,1.1871,142.4,98.5,0.461
17.88,31984.9,34899.3,1.1822,1.1771,142.4,98.5,0.461
17.9,31913.6,34850.1,1.1777,1.1743,142.4,98.5,0.461
17.92,31958.5,34680.1,1.1805,1.1644,142.4,98.5,0.461
17.94,31877.7,34814.7,1.1754,1.1722,142.4,98.5,0.461
17.96,31808.8,34568.2,1.171,1.1579,142.4,98.5,0.461
17.98,31884.6,34674.9,1.1758,1.1641,142.4,98.5,0.461
18.0,31814.1,34578.8,1.1714,1.1585,142.4,98.5,0.461
18.02,31814.8,34486.7,1.1714,1.1532,142.4,98.5,0.461
18.04,31694.0,34441.1,1.1638,1.1505,142.4,98.5,0.461
18.06,31767.8,34532.2,1.1684,1.1558,142.4,98.5,0.461
18.08,31882.8,34591.5,1.1757,1.1593,142.4,98.5,0.461
18.1,32085.8,34960.3,1.1886,1.1806,142.4,98.5,0.461
18.12,32144.3,35466.4,1.1923,1.21,142.4,98.5,0.461
18.14,32217.2,35606.3,1.1969,1.2181,142.4,98.5,0.461
18.16,32240.0,35649.5,1.1984,1.2206,142.4,98.5,0.461
18.18,32335.8,35625.0,1.2044,1.2191,142.4,98.5,0.461
18.2,32222.3,35614.2,1.1972,1.2185,142.4,98.5,0.461
18.22,32078.4,35279.4,1.1881,1.1991,142.4,98.5,0.461
18.24,32096.0,35165.0,1.1892,1.1925,142.4,98.5,0.461
18.26,32010.8,35095.5,1.1838,1.1885,142.4,98.5,0.461
18.28,32067.5,35034.3,1.1874,1.1849,142.4,98.5,0.461
18.3,32059.4,35002.2,1.1869,1.1831,142.4,98.5,0.461
18.32,31878.8,34879.1,1.1755,1.1759,142.4,98.5,0.461
18.34,31885.2,34848.3,1.1759,1.1741,142.4,98.5,0.461
18.36,31916.2,34752.9,1.1778,1.1686,142.4,98.5,0.461
18.38,31831.5,34582.4,1.1725,1.1587,142.4,98.5,0.461
18.4,31916.8,34632.4,1.1779,1.1616,142.4,98.5,0.461
18.42,31752.9,34597.5,1.1675,1.1596,142.4,98.5,0.461
18.44,31794.5,34565.2,1.1701,1.1577,142.4,98.5,0.461
18.46,31801.3,34521.9,1.1706,1.1552,142.4,98.5,0.461
18.48,31633.9,34444.4,1.1599,1.1507,142.4,98.5,0.461
18.5,31859.2,34550.9,1.1742,1.1569,142.4,98.5,0.461
18.52,31924.3,34930.9,1.1784,1.1789,142.4,98.5,0.461
18.54,32167.2,35181.8,1.1937,1.1935,142.4,98.5,0.461
18.56,32295.0,35610.0,1.2019,1.2183,142.4,98.5,0.461
18.58,32306.5,35742.7,1.2026,1.226,142.4,98.5,0.461
18.6,32253.0,35672.3,1.1992,1.2219,142.4,98.5,0.461
18.62,32323.2,35523.6,1.2036,1.2133,142.4,98.5,0.461
18.64,32168.8,35318.7,1.1939,1.2014,142.4,98.5,0.461
18.66,32122.8,35197.7,1.1909,1.1944,142.4,98.5,0.461
18.68,32030.7,35160.4,1.1851,1.1922,142.4,98.5,0.461
18.7,32012.3,35000.3,1.1839,1.183,142.4,98.5,0.461
18.72,31999.5,35019.3,1.1831,1.1841,142.4,98.5,0.461
18.74,31829.2,34840.1,1.1723,1.1737,142.4,98.5,0.461
18.76,31917.7,34810.5,1.1779,1.172,142.4,98.5,0.461
18.78,31936.6,34751.2,1.1791,1.1685,142.4,98.5,0.461
18.8,31909.6,34644.2,1.1774,1.1623,142.4,98.5,0.461
18.82,31900.7,34641.8,1.1769,1.1622,142.4,98.5,0.461
18.84,31823.8,34590.9,1.172,1.1592,142.4,98.5,0.461
18.86,31733.7,34546.1,1.1663,1.1566,142.4,98.5,0.461
18.88,31800.4,34552.9,1.1705,1.157,142.4,98.5,0.461
18.9,31788.5,34447.7,1.1697,1.1509,142.4,98.5,0.461
18.92,31800.0,34596.4,1.1705,1.1595,142.4,98.5,0.461
18.94,31975.8,34846.5,1.1816,1.174,142.4,98.5,0.461
18.96,32151.1,35241.8,1.1927,1.1969,142.4,98.5,0.461
18.98,32270.9,35705.0,1.2003,1.2238,142.4,98.5,0.461
19.0,32274.9,35727.2,1.2006,1.2251,142.4,98.5,0.461
19.02,32340.6,35703.6,1.2047,1.2237,142.4,98.5,0.461
19.04,32184.6,35549.6,1.1948,1.2148,142.4,98.5,0.461
19.06,32116.9,35359.8,1.1906,1.2038,142.4,98.5,0.461
19.08,32061.3,35198.3,1.187,1.1944,142.4,98.5,0.461
19.1,31992.9,35143.6,1.1827,1.1913,142.4,98.5,0.461
19.12,32102.0,35069.7,1.1896,1.187,142.4,98.5,0.461
19.14,31983.3,35055.4,1.1821,1.1861,142.4,98.5,0.461
19.16,32020.7,34871.3,1.1845,1.1755,142.4,98.5,0.461
19.18,31884.7,34758.0,1.1758,1.1689,142.4,98.5,0.461
19.2,31918.0,34684.1,1.178,1.1646,142.4,98.5,0.461
19.22,31825.2,34586.3,1.1721,1.159,142.4,98.5,0.461
19.24,31896.0,34724.5,1.1766,1.167,142.4,98.5,0.461
19.26,31865.0,34661.9,1.1746,1.1633,142.4,98.5,0.461
19.28,31855.6,34525.4,1.174,1.1554,142.4,98.5,0.461
19.3,31740.8,34519.6,1.1667,1.1551,142.4,98.5,0.461
19.32,31768.2,34370.4,1.1685,1.1465,142.4,98.5,0.461
19.34,31853.4,34656.5,1.1739,1.163,142.4,98.5,0.461
19.36,31921.4,34881.5,1.1782,1.1761,142.4,98.5,0.461
19.38,32049.1,35197.1,1.1863,1.1944,142.4,98.5,0.461
19.4,32236.7,35553.0,1.1982,1.215,142.4,98.5,0.461
19.42,32330.1,35729.3,1.2041,1.2252,142.4,98.5,0.461
19.44,32207.6,35690.2,1.1963,1.2229,142.4,98.5,0.461
19.46,32241.4,35546.4,1.1985,1.2146,142.4,98.5,0.461
19.48,32149.4,35341.8,1.1926,1.2027,142.4,98.5,0.461
19.5,32124.3,35263.7,1.191,1.1982,142.4,98.5,0.461
19.52,31987.1,35133.3,1.1823,1.1907,142.4,98.5,0.461
19.54,31982.2,35126.9,1.182,1.1903,142.4,98.5,0.461
19.56,32003.0,34987.1,1.1833,1.1822,142.4,98.5,0.461
19.58,31932.7,34891.9,1.1789,1.1767,142.4,98.5,0.461
19.6,31915.7,34817.8,1.1778,1.1724,142.4,98.5,0.461
19.62,31827.0,34686.1,1.1722,1.1647,142.4,98.5,0.461
19.64,31803.0,34655.6,1.1707,1.163,142.4,98.5,0.461
19.66,31908.5,34662.3,1.1774,1.1634,142.4,98.5,0.461
19.68,31903.3,34539.5,1.177,1.1563,142.4,98.5,0.461
19.7,31784.7,34634.9,1.1695,1.1618,142.4,98.5,0.461
19.72,31783.6,34544.5,1.1694,1.1565,142.4,98.5,0.461
19.74,31779.5,34508.4,1.1692,1.1545,142.4,98.5,0.461
19.76,31883.2,34548.6,1.1757,1.1568,142.4,98.5,0.461
19.78,31978.3,34798.1,1.1818,1.1712,142.4,98.5,0.461
19.8,32185.3,35249.3,1.1949,1.1974,142.4,98.5,0.461
19.82,32282.8,35606.7,1.2011,1.2181,142.4,98.5,0.461
19.84,32401.8,35779.4,1.2086,1.2281,142.4,98.5,0.461
19.86,32322.7,35655.2,1.2036,1.2209,142.4,98.5,0.461
19.88,32286.1,35531.4,1.2013,1.2137,142.4,98.5,0.461
19.9,32203.1,35374.5,1.196,1.2046,142.4,98.5,0.461
19.92,32098.7,35191.3,1.1894,1.194,142.4,98.5,0.461
19.94,32007.6,35081.9,1.1836,1.1877,142.4,98.5,0.461
19.96,32057.8,35167.1,1.1868,1.1926,142.4,98.5,0.461
19.98,31932.3,35002.0,1.1789,1.183,142.4,98.5,0.461
20.0,32032.5,34980.9,1.1852,1.1818,142.4,98.5,0.461
20.02,31969.3,34801.1,1.1812,1.1714,142.4,98.5,0.461
20.04,31904.1,34687.0,1.1771,1.1648,142.4,98.5,0.461
20.06,31882.9,34667.5,1.1757,1.1637,142.4,98.5,0.461
20.08,31877.1,34653.7,1.1754,1.1629,142.4,98.5,0.461
20.1,31889.1,34577.4,1.1761,1.1584,142.4,98.5,0.461
20.12,31884.6,34642.9,1.1758,1.1622,142.4,98.5,0.461
20.14,31775.1,34451.0,1.1689,1.1511,142.4,98.5,0.461
20.16,31781.8,34528.8,1.1693,1.1556,142.4,98.5,0.461
20.18,31842.6,34548.8,1.1732,1.1568,142.4,98.5,0.461
20.2,32025.5,34782.8,1.1848,1.1703,142.4,98.5,0.461
20.22,32049.8,35140.5,1.1863,1.1911,142.4,98.5,0.461
20.24,32228.7,35539.1,1.1976,1.2142,142.4,98.5,0.461
20.26,32291.6,35679.1,1.2016,1.2223,142.4,98.5,0.461
20.28,32337.6,35740.3,1.2045,1.2258,142.4,98.5,0.461
20.3,32283.6,35589.4,1.2011,1.2171,142.4,98.5,0.461
20.32,32157.1,35416.7,1.1931,1.2071,142.4,98.5,0.461
20.34,32118.0,35312.8,1.1906,1.2011,142.4,98.5,0.461
20.36,32153.5,35158.2,1.1929,1.1921,142.4,98.5,0.461
20.38,31918.0,34999.6,1.178,1.1829,142.4,98.5,0.461
20.4,31879.5,35010.7,1.1755,1.1836,142.4,98.5,0.461
20.42,31989.5,34931.4,1.1825,1.179,142.4,98.5,0.461
20.44,31942.7,34864.0,1.1795,1.1751,142.4,98.5,0.461
20.46,31907.1,34669.6,1.1773,1.1638,142.4,98.5,0.461
20.48,31893.7,34638.2,1.1764,1.162,142.4,98.5,0.461
20.5,31821.5,34680.1,1.1718,1.1644,142.4,98.5,0.461
20.52,31906.6,34709.4,1.1772,1.1661,142.4,98.5,0.461
20.54,31817.4,34597.1,1.1716,1.1596,142.4,98.5,0.461
20.56,31798.3,34523.1,1.1704,1.1553,142.4,98.5,0.461
20.58,31731.6,34421.6,1.1661,1.1494,142.4,98.5,0.461
20.6,31775.7,34524.7,1.1689,1.1554,142.4,98.5,0.461
20.62,32000.2,34745.0,1.1832,1.1682,142.4,98.5,0.461
20.64,32119.4,35159.1,1.1907,1.1922,142.4,98.5,0.461
20.66,32176.1,35492.3,1.1943,1.2115,142.4,98.5,0.461
20.68,32283.2,35747.8,1.2011,1.2263,142.4,98.5,0.461
20.7,32271.1,35683.7,1.2003,1.2225,142.4,98.5,0.461
20.72,32276.0,35644.8,1.2006,1.2203,142.4,98.5,0.461
20.74,32134.8,35458.2,1.1917,1.2095,142.4,98.5,0.461
20.76,32189.0,35218.5,1.1951,1.1956,142.4,98.5,0.461
20.78,32001.0,35132.6,1.1832,1.1906,142.4,98.5,0.461
20.8,31971.4,35142.9,1.1813,1.1912,142.4,98.5,0.461
20.82,31913.6,35079.7,1.1777,1.1876,142.4,98.5,0.461
20.84,31945.2,34963.1,1.1797,1.1808,142.4,98.5,0.461
20.86,31947.9,34819.3,1.1798,1.1725,142.4,98.5,0.461
20.88,31795.3,34647.9,1.1702,1.1625,142.4,98.5,0.461
20.9,31849.9,34653.2,1.1736,1.1628,142.4,98.5,0.461
20.92,31925.8,34728.3,1.1784,1.1672,142.4,98.5,0.461
20.94,31950.2,34581.5,1.18,1.1587,142.4,98.5,0.461
20.96,31850.1,34496.1,1.1737,1.1537,142.4,98.5,0.461
20.98,31817.6,34452.3,1.1716,1.1512,142.4,98.5,0.461
21.0,31773.3,34479.1,1.1688,1.1528,142.4,98.5,0.461
21.02,31782.3,34505.9,1.1694,1.1543,142.4,98.5,0.461
21.04,31850.4,34725.2,1.1737,1.167,142.4,98.5,0.461
21.06,32009.3,35061.0,1.1837,1.1865,142.4,98.5,0.461
21.08,32151.6,35473.9,1.1928,1.2104,142.4,98.5,0.461
21.1,32291.1,35824.4,1.2016,1.2307,142.4,98.5,0.461
21.12,32298.8,35748.4,1.2021,1.2263,142.4,98.5,0.461
21.14,32257.5,35599.6,1.1995,1.2177,142.4,98.5,0.461
21.16,32135.4,35357.0,1.1917,1.2036,142.4,98.5,0.461
21.18,32160.0,35196.4,1.1933,1.1943,142.4,98.5,0.461
21.2,32076.8,35102.1,1.188,1.1889,142.4,98.5,0.461
21.22,32056.6,35122.8,1.1867,1.1901,142.4,98.5,0.461
21.24,32027.8,35062.7,1.1849,1.1866,142.4,98.5,0.461
21.26,31922.0,35040.2,1.1782,1.1853,142.4,98.5,0.461
21.28,31892.1,34817.7,1.1763,1.1724,142.4,98.5,0.461
21.3,31806.8,34771.0,1.1709,1.1697,142.4,98.5,0.461
21.32,31820.5,34652.9,1.1718,1.1628,142.4,98.5,0.461
21.34,31834.7,34684.6,1.1727,1.1647,142.4,98.5,0.461
21.36,31939.8,34693.0,1.1793,1.1651,142.4,98.5,0.461
21.38,31876.4,34561.0,1.1753,1.1575,142.4,98.5,0.461
21.4,31857.4,34489.5,1.1741,1.1534,142.4,98.5,0.461
21.42,31725.7,34450.4,1.1658,1.1511,142.4,98.5,0.461
21.44,31790.9,34496.1,1.1699,1.1537,142.4,98.5,0.461
21.46,31863.5,34795.0,1.1745,1.1711,142.4,98.5,0.461
21.48,32062.7,35236.6,1.1871,1.1966,142.4,98.5,0.461
21.5,32295.3,35452.1,1.2019,1.2091,142.4,98.5,0.461
21.52,32236.9,35754.0,1.1982,1.2266,142.4,98.5,0.461
21.54,32366.1,35762.5,1.2064,1.2271,142.4,98.5,0.461
21.56,32330.1,35627.3,1.2041,1.2193,142.4,98.5,0.461
21.58,32105.6,35413.7,1.1898,1.2069,142.4,98.5,0.461
21.6,32161.7,35322.8,1.1934,1.2016,142.4,98.5,0.461
21.62,32101.3,35099.5,1.1896,1.1887,142.4,98.5,0.461
21.64,32042.5,35137.5,1.1858,1.1909,142.4,98.5,0.461
21.66,31908.5,34947.3,1.1773,1.1799,142.4,98.5,0.461
21.68,31992.4,34956.0,1.1827,1.1804,142.4,98.5,0.461
21.7,31886.7,34840.6,1.176,1.1737,142.4,98.5,0.461
21.72,31993.9,34687.9,1.1828,1.1648,142.4,98.5,0.461
21.74,31912.1,34695.1,1.1776,1.1653,142.4,98.5,0.461
21.76,31847.8,34705.5,1.1735,1.1659,142.4,98.5,0.461
21.78,31863.9,34692.3,1.1745,1.1651,142.4,98.5,0.461
21.8,31858.0,34560.0,1.1741,1.1574,142.4,98.5,0.461
21.82,31796.4,34493.0,1.1702,1.1536,142.4,98.5,0.461
21.84,31773.5,34513.5,1.1688,1.1547,142.4,98.5,0.461
21.86,31740.4,34537.5,1.1667,1.1561,142.4,98.5,0.461
21.88,31898.0,34858.1,1.1767,1.1747,142.4,98.5,0.461
21.9,32026.4,35111.1,1.1848,1.1894,142.4,98.5,0.461
21.92,32159.0,35469.1,1.1932,1.2101,142.4,98.5,0.461
21.94,32253.6,35718.6,1.1992,1.2246,142.4,98.5,0.461
21.96,32368.7,35696.9,1.2065,1.2233,142.4,98.5,0.461
21.98,32215.5,35635.1,1.1968,1.2197,142.4,98.5,0.461
22.0,32150.6,35434.3,1.1927,1.2081,142.4,98.5,0.461
22.02,32048.9,35269.6,1.1863,1.1986,142.4,98.5,0.461
22.04,32083.0,35192.6,1.1884,1.1941,142.4,98.5,0.461
22.06,32049.3,35070.1,1.1863,1.187,142.4,98.5,0.461
22.08,32004.8,35079.0,1.1835,1.1875,142.4,98.5,0.461
22.1,31967.1,34878.7,1.1811,1.1759,142.4,98.5,0.461
22.12,31933.1,34850.8,1.1789,1.1743,142.4,98.5,0.461
22.14,31921.4,34825.1,1.1782,1.1728,142.4,98.5,0.461
22.16,31866.9,34757.6,1.1747,1.1689,142.4,98.5,0.461
22.18,31785.8,34645.2,1.1696,1.1624,142.4,98.5,0.461
22.2,31884.8,34563.6,1.1758,1.1577,142.4,98.5,0.461
22.22,31890.6,34576.0,1.1762,1.1584,142.4,98.5,0.461
22.24,31775.0,34510.1,1.1689,1.1546,142.4,98.5,0.461
22.26,31727.7,34475.2,1.1659,1.1525,142.4,98.5,0.461
22.28,31741.5,34435.3,1.1668,1.1502,142.4,98.5,0.461
22.3,31856.0,34698.9,1.174,1.1655,142.4,98.5,0.461
22.32,32036.4,35031.4,1.1855,1.1848,142.4,98.5,0.461
22.34,32200.0,35351.2,1.1958,1.2033,142.4,98.5,0.461
22.36,32275.6,35658.4,1.2006,1.2211,142.4,98.5,0.461
22.38,32307.4,35835.3,1.2026,1.2313,142.4,98.5,0.461
22.4,32270.8,35588.8,1.2003,1.2171,142.4,98.5,0.461
22.42,32244.1,35519.1,1.1986,1.213,142.4,98.5,0.461
22.44,32196.6,35291.5,1.1956,1.1998,142.4,98.5,0.461
22.46,32059.7,35100.5,1.1869,1.1888,142.4,98.5,0.461
22.48,32072.3,35033.7,1.1877,1.1849,142.4,98.5,0.461
22.5,31966.4,35053.0,1.181,1.186,142.4,98.5,0.461
22.52,31935.2,34922.1,1.179,1.1784,142.4,98.5,0.461
22.54,31950.1,34926.7,1.18,1.1787,142.4,98.5,0.461
22.56,31789.9,34815.2,1.1698,1.1722,142.4,98.5,0.461
22.58,31861.8,34726.5,1.1744,1.1671,142.4,98.5,0.461
22.6,31973.0,34643.6,1.1814,1.1623,142.4,98.5,0.461
22.62,31866.5,34625.1,1.1747,1.1612,142.4,98.5,0.461
22.64,31809.0,34532.5,1.171,1.1558,142.4,98.5,0.461
22.66,31791.2,34457.0,1.1699,1.1515,142.4,98.5,0.461
22.68,31826.8,34436.7,1.1722,1.1503,142.4,98.5,0.461
22.7,31752.3,34461.6,1.1674,1.1517,142.4,98.5,0.461
22.72,31783.1,34707.6,1.1694,1.166,142.4,98.5,0.461
22.74,32118.9,35102.2,1.1907,1.1889,142.4,98.5,0.461
22.76,32195.5,35494.2,1.1955,1.2116,142.4,98.5,0.461
22.78,32258.7,35658.6,1.1995,1.2211,142.4,98.5,0.461
22.8,32270.6,35732.5,1.2003,1.2254,142.4,98.5,0.461
22.82,32182.0,35755.1,1.1947,1.2267,142.4,98.5,0.461
22.84,32233.8,35491.1,1.198,1.2114,142.4,98.5,0.461
22.86,32148.9,35262.3,1.1926,1.1981,142.4,98.5,0.461
22.88,32084.2,35267.1,1.1885,1.1984,142.4,98.5,0.461
22.9,32069.1,34994.6,1.1875,1.1826,142.4,98.5,0.461
22.92,32008.0,35089.7,1.1837,1.1881,142.4,98.5,0.461
22.94,31980.0,35062.0,1.1819,1.1865,142.4,98.5,0.461
22.96,31950.9,34788.8,1.18,1.1707,142.4,98.5,0.461
22.98,31935.4,34753.2,1.1791,1.1686,142.4,98.5,0.461
23.0,31924.0,34621.2,1.1783,1.161,142.4,98.5,0.461
23.02,31983.7,34727.6,1.1821,1.1671,142.4,98.5,0.461
23.04,31853.7,34635.5,1.1739,1.1618,142.4,98.5,0.461
23.06,31834.8,34601.1,1.1727,1.1598,142.4,98.5,0.461
23.08,31775.2,34546.5,1.1689,1.1567,142.4,98.5,0.461
23.1,31778.8,34462.7,1.1691,1.1518,142.4,98.5,0.461
23.12,31834.5,34502.3,1.1727,1.1541,142.4,98.5,0.461
23.14,31797.4,34767.3,1.1703,1.1695,142.4,98.5,0.461
23.16,32016.8,34984.6,1.1842,1.182,142.4,98.5,0.461
23.18,32113.5,35426.0,1.1903,1.2076,142.4,98.5,0.461
23.2,32331.8,35778.0,1.2042,1.228,142.4,98.5,0.461
23.22,32228.8,35797.1,1.1977,1.2291,142.4,98.5,0.461
23.24,32241.2,35640.6,1.1984,1.2201,142.4,98.5,0.461
23.26,32198.3,35449.4,1.1957,1.209,142.4,98.5,0.461
23.28,32209.0,35351.0,1.1964,1.2033,142.4,98.5,0.461
23.3,32004.8,35160.1,1.1835,1.1922,142.4,98.5,0.461
23.32,32020.0,35173.5,1.1844,1.193,142.4,98.5,0.461
23.34,31956.3,35051.9,1.1804,1.1859,142.4,98.5,0.461
23.36,32009.5,34934.9,1.1838,1.1792,142.4,98.5,0.461
23.38,31895.9,34772.9,1.1766,1.1698,142.4,98.5,0.461
23.4,31869.3,34821.0,1.1749,1.1726,142.4,98.5,0.461
23.42,31819.7,34751.6,1.1717,1.1685,142.4,98.5,0.461
23.44,31866.5,34643.9,1.1747,1.1623,142.4,98.5,0.461
23.46,31952.9,34689.5,1.1802,1.1649,142.4,98.5,0.461
23.48,31810.4,34635.2,1.1711,1.1618,142.4,98.5,0.461
23.5,31765.7,34526.8,1.1683,1.1555,142.4,98.5,0.461
23.52,31726.4,34483.0,1.1658,1.153,142.4,98.5,0.461
23.54,31829.5,34566.3,1.1723,1.1578,142.4,98.5,0.461
23.56,31904.7,34743.8,1.1771,1.1681,142.4,98.5,0.461
23.58,32050.1,34980.4,1.1863,1.1818,142.4,98.5,0.461
23.6,32144.3,35432.5,1.1923,1.208,142.4,98.5,0.461
23.62,32197.1,35668.0,1.1956,1.2216,142.4,98.5,0.461
23.64,32269.2,35766.3,1.2002,1.2273,142.4,98.5,0.461
23.66,32289.5,35670.3,1.2015,1.2218,142.4,98.5,0.461
23.68,32170.3,35597.4,1.1939,1.2175,142.4,98.5,0.461
23.7,32184.2,35283.6,1.1948,1.1994,142.4,98.5,0.461
23.72,32033.9,35169.3,1.1853,1.1927,142.4,98.5,0.461
23.74,32110.9,35115.5,1.1902,1.1896,142.4,98.5,0.461
23.76,32029.3,35059.0,1.185,1.1864,142.4,98.5,0.461
23.78,32021.9,35000.9,1.1845,1.183,142.4,98.5,0.461
23.8,31988.4,34929.2,1.1824,1.1788,142.4,98.5,0.461
23.82,31859.0,34751.9,1.1742,1.1686,142.4,98.5,0.461
23.84,31810.6,34686.6,1.1711,1.1648,142.4,98.5,0.461
23.86,31864.8,34591.3,1.1746,1.1593,142.4,98.5,0.461
23.88,31823.7,34698.7,1.172,1.1655,142.4,98.5,0.461
23.9,31788.0,34569.0,1.1697,1.158,142.4,98.5,0.461
23.92,31807.6,34570.7,1.171,1.1581,142.4,98.5,0.461
23.94,31877.8,34454.9,1.1754,1.1514,142.4,98.5,0.461
23.96,31835.3,34450.9,1.1727,1.1511,142.4,98.5,0.461
23.98,31785.7,34695.1,1.1696,1.1653,142.4,98.5,0.461
24.0,32009.6,34984.4,1.1838,1.182,142.4,98.5,0.461
24.02,32127.2,35418.0,1.1912,1.2072,142.4,98.5,0.461
24.04,32299.4,35675.5,1.2021,1.2221,142.4,98.5,0.461
24.06,32299.3,35791.7,1.2021,1.2288,142.4,98.5,0.461
24.08,32361.1,35698.9,1.206,1.2234,142.4,98.5,0.461
24.1,32196.6,35537.6,1.1956,1.2141,142.4,98.5,0.461
24.12,32186.0,35267.2,1.1949,1.1984,142.4,98.5,0.461
24.14,32019.0,35137.1,1.1844,1.1909,142.4,98.5,0.461
24.16,32050.1,35027.8,1.1863,1.1845,142.4,98.5,0.461
24.18,31963.6,35035.8,1.1808,1.185,142.4,98.5,0.461
24.2,31979.4,35026.6,1.1818,1.1845,142.4,98.5,0.461
24.22,31945.1,34869.9,1.1797,1.1754,142.4,98.5,0.461
24.24,31916.2,34676.1,1.1778,1.1642,142.4,98.5,0.461
24.26,31851.3,34787.7,1.1737,1.1706,142.4,98.5,0.461
24.28,31729.8,34713.6,1.166,1.1663,142.4,98.5,0.461
24.3,31861.9,34672.5,1.1744,1.164,142.4,98.5,0.461
24.32,31841.1,34619.0,1.1731,1.1609,142.4,98.5,0.461
24.34,31737.4,34556.9,1.1665,1.1573,142.4,98.5,0.461
24.36,31809.6,34444.0,1.1711,1.1507,142.4,98.5,0.461
24.38,31720.6,34578.3,1.1654,1.1585,142.4,98.5,0.461
24.4,31820.3,34757.4,1.1718,1.1689,142.4,98.5,0.461
24.42,31992.9,34961.8,1.1827,1.1807,142.4,98.5,0.461
24.44,32123.0,35293.9,1.1909,1.2,142.4,98.5,0.461
24.46,32324.4,35637.8,1.2037,1.2199,142.4,98.5,0.461
24.48,32345.5,35709.4,1.205,1.224,142.4,98.5,0.461
24.5,32285.5,35800.1,1.2012,1.2293,142.4,98.5,0.461
24.52,32115.4,35476.1,1.1905,1.2105,142.4,98.5,0.461
24.54,32205.6,35350.8,1.1962,1.2033,142.4,98.5,0.461
24.56,32086.1,35141.8,1.1886,1.1912,142.4,98.5,0.461
24.58,32006.5,35141.5,1.1836,1.1911,142.4,98.5,0.461
24.6,31918.8,35021.6,1.178,1.1842,142.4,98.5,0.461
24.62,31998.6,35028.8,1.1831,1.1846,142.4,98.5,0.461
24.64,32023.2,34882.9,1.1846,1.1762,142.4,98.5,0.461
24.66,31882.6,34742.5,1.1757,1.168,142.4,98.5,0.461
24.68,31881.1,34755.6,1.1756,1.1688,142.4,98.5,0.461
24.7,31891.2,34676.2,1.1763,1.1642,142.4,98.5,0.461
24.72,31813.2,34651.8,1.1713,1.1628,142.4,98.5,0.461
24.74,31801.7,34639.7,1.1706,1.1621,142.4,98.5,0.461
24.76,31825.4,34555.0,1.1721,1.1571,142.4,98.5,0.461
24.78,31771.6,34484.9,1.1687,1.1531,142.4,98.5,0.461
24.8,31759.6,34456.7,1.1679,1.1515,142.4,98.5,0.461
24.82,31867.8,34650.5,1.1748,1.1627,142.4,98.5,0.461
24.84,31940.7,34926.0,1.1794,1.1786,142.4,98.5,0.461
24.86,32205.1,35381.9,1.1962,1.2051,142.4,98.5,0.461
24.88,32281.5,35574.3,1.201,1.2162,142.4,98.5,0.461
24.9,32311.2,35784.8,1.2029,1.2284,142.4,98.5,0.461
24.92,32323.9,35752.2,1.2037,1.2265,142.4,98.5,0.461
24.94,32326.9,35570.8,1.2039,1.216,142.4,98.5,0.461
24.96,32109.0,35361.0,1.1901,1.2039,142.4,98.5,0.461
24.98,32065.6,35132.3,1.1873,1.1906,142.4,98.5,0.461
25.0,31998.8,35096.4,1.1831,1.1885,142.4,98.5,0.461
25.02,31994.7,35065.2,1.1828,1.1867,142.4,98.5,0.461
25.04,31973.2,35019.9,1.1814,1.1841,142.4,98.5,0.461
25.06,31869.2,34953.8,1.1749,1.1803,142.4,98.5,0.461
25.08,31897.1,34869.1,1.1766,1.1753,142.4,98.5,0.461
25.1,31942.8,34638.5,1.1795,1.162,142.4,98.5,0.461
25.12,31812.4,34644.6,1.1713,1.1623,142.4,98.5,0.461
25.14,31848.8,34731.4,1.1736,1.1674,142.4,98.5,0.461
25.16,31754.3,34654.0,1.1676,1.1629,142.4,98.5,0.461
25.18,31761.2,34511.6,1.168,1.1546,142.4,98.5,0.461
25.2,31719.4,34490.4,1.1654,1.1534,142.4,98.5,0.461
25.22,31739.9,34431.7,1.1667,1.15,142.4,98.5,0.461
25.24,31856.9,34647.9,1.1741,1.1625,142.4,98.5,0.461
25.26,31983.5,34905.4,1.1821,1.1775,142.4,98.5,0.461
25.28,32122.4,35340.9,1.1909,1.2027,142.4,98.5,0.461
25.3,32372.0,35557.0,1.2067,1.2152,142.4,98.5,0.461
25.32,32329.0,35793.9,1.204,1.2289,142.4,98.5,0.461
25.34,32353.5,35757.8,1.2056,1.2268,142.4,98.5,0.461
25.36,32153.0,35500.7,1.1928,1.2119,142.4,98.5,0.461
25.38,32182.4,35370.8,1.1947,1.2044,142.4,98.5,0.461
25.4,32063.0,35259.2,1.1871,1.198,142.4,98.5,0.461
25.42,32094.8,35188.7,1.1892,1.1939,142.4,98.5,0.461
25.44,32002.4,35108.4,1.1833,1.1892,142.4,98.5,0.461
25.46,32020.1,35064.2,1.1844,1.1867,142.4,98.5,0.461
25.48,31911.5,34814.2,1.1775,1.1722,142.4,98.5,0.461
25.5,31863.3,34844.0,1.1745,1.1739,142.4,98.5,0.461
25.52,31913.6,34688.7,1.1777,1.1649,142.4,98.5,0.461
25.54,31848.5,34599.7,1.1735,1.1597,142.4,98.5,0.461
25.56,31835.8,34619.8,1.1727,1.1609,142.4,98.5,0.461
25.58,31840.9,34617.1,1.1731,1.1607,142.4,98.5,0.461
25.6,31846.6,34570.9,1.1734,1.1581,142.4,98.5,0.461
25.62,31780.1,34459.1,1.1692,1.1516,142.4,98.5,0.461
25.64,31715.9,34491.2,1.1651,1.1535,142.4,98.5,0.461
25.66,31833.0,34625.1,1.1726,1.1612,142.4,98.5,0.461
25.68,31980.9,34928.7,1.1819,1.1788,142.4,98.5,0.461
25.7,32197.9,35282.9,1.1957,1.1993,142.4,98.5,0.461
25.72,32305.6,35640.4,1.2025,1.22,142.4,98.5,0.461
25.74,32380.9,35717.9,1.2073,1.2245,142.4,98.5,0.461
25.76,32290.4,35735.0,1.2016,1.2255,142.4,98.5,0.461
25.78,32299.1,35608.0,1.2021,1.2182,142.4,98.5,0.461
25.8,32173.1,35393.8,1.1941,1.2058,142.4,98.5,0.461
25.82,32023.8,35166.1,1.1847,1.1926,142.4,98.5,0.461
25.84,32042.6,35145.6,1.1859,1.1914,142.4,98.5,0.461
25.86,32065.8,35070.3,1.1873,1.187,142.4,98.5,0.461
25.88,31998.0,35077.1,1.183,1.1874,142.4,98.5,0.461
25.9,31897.5,34912.2,1.1767,1.1778,142.4,98.5,0.461
25.92,31881.9,34815.5,1.1757,1.1722,142.4,98.5,0.461
25.94,31928.0,34681.4,1.1786,1.1645,142.4,98.5,0.461
25.96,31839.6,34621.1,1.173,1.161,142.4,98.5,0.461
25.98,31849.4,34701.1,1.1736,1.1656,142.4,98.5,0.461
26.0,31866.0,34684.4,1.1747,1.1647,142.4,98.5,0.461
26.02,31839.9,34632.7,1.173,1.1617,142.4,98.5,0.461
26.04,31713.1,34514.2,1.165,1.1548,142.4,98.5,0.461
26.06,31649.8,34517.2,1.161,1.155,142.4,98.5,0.461
26.08,31827.1,34620.4,1.1722,1.1609,142.4,98.5,0.461
26.1,32003.8,34869.4,1.1834,1.1754,142.4,98.5,0.461
26.12,32045.4,35220.2,1.186,1.1957,142.4,98.5,0.461
26.14,32274.8,35487.5,1.2006,1.2112,142.4,98.5,0.461
26.16,32411.1,35692.6,1.2092,1.2231,142.4,98.5,0.461
26.18,32344.0,35702.9,1.205,1.2237,142.4,98.5,0.461
26.2,32216.1,35546.5,1.1968,1.2146,142.4,98.5,0.461
26.22,32169.0,35394.9,1.1939,1.2058,142.4,98.5,0.461
26.24,32017.5,35253.4,1.1843,1.1976,142.4,98.5,0.461
26.26,31996.9,35045.2,1.183,1.1856,142.4,98.5,0.461
26.28,32003.2,35049.3,1.1834,1.1858,142.4,98.5,0.461
26.3,31968.2,35082.7,1.1811,1.1877,142.4,98.5,0.461
26.32,31945.3,34936.8,1.1797,1.1793,142.4,98.5,0.461
26.34,31952.1,34815.8,1.1801,1.1723,142.4,98.5,0.461
26.36,31914.7,34697.6,1.1777,1.1654,142.4,98.5,0.461
26.38,31824.7,34774.7,1.172,1.1699,142.4,98.5,0.461
26.4,31903.2,34593.5,1.177,1.1594,142.4,98.5,0.461
26.42,31905.0,34742.2,1.1771,1.168,142.4,98.5,0.461
26.44,31779.2,34548.6,1.1692,1.1568,142.4,98.5,0.461
26.46,31736.0,34446.6,1.1664,1.1509,142.4,98.5,0.461
26.48,31662.1,34495.8,1.1617,1.1537,142.4,98.5,0.461
26.5,31975.8,34599.5,1.1816,1.1597,142.4,98.5,0.461
26.52,31921.8,34846.1,1.1782,1.174,142.4,98.5,0.461
26.54,32020.9,35281.7,1.1845,1.1993,142.4,98.5,0.461
26.56,32193.6,35573.7,1.1954,1.2162,142.4,98.5,0.461
26.58,32226.5,35828.4,1.1975,1.2309,142.4,98.5,0.461
26.6,32284.4,35693.8,1.2012,1.2231,142.4,98.5,0.461
26.62,32250.0,35614.2,1.199,1.2185,142.4,98.5,0.461
26.64,32190.5,35426.3,1.1952,1.2076,142.4,98.5,0.461
26.66,32142.5,35199.3,1.1922,1.1945,142.4,98.5,0.461
26.68,32016.6,35206.2,1.1842,1.1949,142.4,98.5,0.461
26.7,32060.9,35124.1,1.187,1.1901,142.4,98.5,0.461
26.72,32057.1,34983.6,1.1868,1.182,142.4,98.5,0.461
26.74,31931.0,34935.7,1.1788,1.1792,142.4,98.5,0.461
26.76,31814.4,34796.6,1.1714,1.1712,142.4,98.5,0.461
26.78,31896.4,34700.8,1.1766,1.1656,142.4,98.5,0.461
26.8,31883.0,34711.2,1.1757,1.1662,142.4,98.5,0.461
26.82,31913.8,34657.9,1.1777,1.1631,142.4,98.5,0.461
26.84,31828.6,34750.6,1.1723,1.1685,142.4,98.5,0.461
26.86,31818.5,34563.9,1.1716,1.1577,142.4,98.5,0.461
26.88,31813.3,34463.4,1.1713,1.1518,142.4,98.5,0.461
26.9,31800.1,34544.1,1.1705,1.1565,142.4,98.5,0.461
26.92,31824.0,34581.6,1.172,1.1587,142.4,98.5,0.461
26.94,31928.4,34780.0,1.1786,1.1702,142.4,98.5,0.461
26.96,32077.0,35153.2,1.188,1.1918,142.4,98.5,0.461
26.98,32262.0,35552.2,1.1998,1.2149,142.4,98.5,0.461
27.0,32368.5,35750.3,1.2065,1.2264,142.4,98.5,0.461
27.02,32344.7,35770.2,1.205,1.2276,142.4,98.5,0.461
27.04,32121.7,35612.9,1.1909,1.2184,142.4,98.5,0.461
27.06,32091.1,35423.3,1.1889,1.2075,142.4,98.5,0.461
27.08,32090.7,35239.0,1.1889,1.1968,142.4,98.5,0.461
27.1,32022.5,35210.6,1.1846,1.1951,142.4,98.5,0.461
27.12,32110.7,35091.6,1.1902,1.1882,142.4,98.5,0.461
27.14,32074.8,34982.1,1.1879,1.1819,142.4,98.5,0.461
27.16,31899.7,34894.9,1.1768,1.1768,142.4,98.5,0.461
27.18,31955.5,34778.1,1.1803,1.1701,142.4,98.5,0.461
27.2,31915.4,34725.1,1.1778,1.167,142.4,98.5,0.461
27.22,31934.9,34643.9,1.179,1.1623,142.4,98.5,0.461
27.24,31817.9,34575.9,1.1716,1.1584,142.4,98.5,0.461
27.26,31818.3,34728.2,1.1716,1.1672,142.4,98.5,0.461
27.28,31913.5,34507.8,1.1777,1.1544,142.4,98.5,0.461
27.3,31746.7,34489.2,1.1671,1.1533,142.4,98.5,0.461
27.32,31798.2,34504.1,1.1704,1.1542,142.4,98.5,0.461
27.34,31919.2,34456.9,1.178,1.1515,142.4,98.5,0.461
27.36,31847.4,34840.4,1.1735,1.1737,142.4,98.5,0.461
27.38,31994.6,35223.4,1.1828,1.1959,142.4,98.5,0.461
27.4,32258.0,35566.2,1.1995,1.2157,142.4,98.5,0.461
27.42,32314.7,35721.2,1.2031,1.2247,142.4,98.5,0.461
27.44,32299.8,35826.1,1.2022,1.2308,142.4,98.5,0.461
27.46,32201.7,35584.1,1.1959,1.2168,142.4,98.5,0.461
27.48,32167.3,35320.1,1.1938,1.2015,142.4,98.5,0.461
27.5,32087.8,35226.9,1.1887,1.1961,142.4,98.5,0.461
27.52,32085.3,35212.4,1.1886,1.1952,142.4,98.5,0.461
27.54,32050.4,35102.2,1.1863,1.1889,142.4,98.5,0.461
27.56,32021.9,35144.4,1.1845,1.1913,142.4,98.5,0.461
27.58,31884.1,34909.8,1.1758,1.1777,142.4,98.5,0.461
27.6,31918.3,34829.3,1.178,1.173,142.4,98.5,0.461
27.62,31869.4,34779.8,1.1749,1.1702,142.4,98.5,0.461
27.64,31833.1,34749.8,1.1726,1.1684,142.4,98.5,0.461
27.66,31869.6,34739.0,1.1749,1.1678,142.4,98.5,0.461
27.68,31896.4,34671.1,1.1766,1.1639,142.4,98.5,0.461
27.7,31748.8,34612.0,1.1672,1.1605,142.4,98.5,0.461
27.72,31819.5,34531.9,1.1717,1.1558,142.4,98.5,0.461
27.74,31788.2,34490.4,1.1697,1.1534,142.4,98.5,0.461
27.76,31864.7,34571.2,1.1746,1.1581,142.4,98.5,0.461
27.78,31908.3,34751.7,1.1773,1.1686,142.4,98.5,0.461
27.8,31989.3,35217.5,1.1825,1.1955,142.4,98.5,0.461
27.82,32260.1,35553.1,1.1996,1.215,142.4,98.5,0.461
27.84,32386.9,35754.9,1.2077,1.2267,142.4,98.5,0.461
27.86,32370.7,35690.1,1.2066,1.2229,142.4,98.5,0.461
27.88,32233.0,35582.3,1.1979,1.2167,142.4,98.5,0.461
27.9,32143.7,35381.0,1.1923,1.205,142.4,98.5,0.461
27.92,32160.9,35223.9,1.1933,1.1959,142.4,98.5,0.461
27.94,32100.8,35085.2,1.1895,1.1879,142.4,98.5,0.461
27.96,32111.3,35077.2,1.1902,1.1874,142.4,98.5,0.461
27.98,32000.1,35061.0,1.1832,1.1865,142.4,98.5,0.461
28.0,31942.7,34996.8,1.1795,1.1828,142.4,98.5,0.461
28.02,31912.2,34834.3,1.1776,1.1733,142.4,98.5,0.461
28.04,31810.9,34792.4,1.1712,1.1709,142.4,98.5,0.461
28.06,31786.4,34642.8,1.1696,1.1622,142.4,98.5,0.461
28.08,31793.6,34705.1,1.1701,1.1659,142.4,98.5,0.461
28.1,31831.8,34666.5,1.1725,1.1636,142.4,98.5,0.461
28.12,31750.0,34540.5,1.1673,1.1563,142.4,98.5,0.461
28.14,31745.9,34494.4,1.167,1.1536,142.4,98.5,0.461
28.16,31847.1,34418.7,1.1735,1.1493,142.4,98.5,0.461
28.18,31847.5,34563.0,1.1735,1.1576,142.4,98.5,0.461
28.2,31878.8,34788.4,1.1755,1.1707,142.4,98.5,0.461
28.22,32063.5,35176.0,1.1872,1.1931,142.4,98.5,0.461
28.24,32150.1,35432.7,1.1927,1.208,142.4,98.5,0.461
28.26,32310.4,35612.6,1.2028,1.2184,142.4,98.5,0.461
28.28,32285.0,35826.9,1.2012,1.2309,142.4,98.5,0.461
28.3,32195.4,35615.6,1.1955,1.2186,142.4,98.5,0.461
28.32,32027.8,35379.5,1.1849,1.2049,142.4,98.5,0.461
28.34,32079.8,35170.9,1.1882,1.1928,142.4,98.5,0.461
28.36,32071.3,35091.4,1.1877,1.1882,142.4,98.5,0.461
28.38,31972.4,35030.8,1.1814,1.1847,142.4,98.5,0.461
28.4,32104.6,35030.5,1.1898,1.1847,142.4,98.5,0.461
28.42,31975.7,34917.9,1.1816,1.1782,142.4,98.5,0.461
28.44,31869.1,34854.3,1.1749,1.1745,142.4,98.5,0.461
28.46,31919.0,34757.8,1.178,1.1689,142.4,98.5,0.461
28.48,31976.8,34680.9,1.1817,1.1644,142.4,98.5,0.461
28.5,31899.9,34705.4,1.1768,1.1659,142.4,98.5,0.461
28.52,31868.0,34684.1,1.1748,1.1646,142.4,98.5,0.461
28.54,31842.6,34601.7,1.1732,1.1599,142.4,98.5,0.461
28.56,31706.4,34565.3,1.1645,1.1578,142.4,98.5,0.461
28.58,31728.8,34490.9,1.166,1.1534,142.4,98.5,0.461
28.6,31805.8,34500.9,1.1708,1.154,142.4,98.5,0.461
28.62,31983.2,34836.4,1.1821,1.1735,142.4,98.5,0.461
28.64,32067.3,35086.9,1.1874,1.188,142.4,98.5,0.461
28.66,32141.6,35468.6,1.1921,1.2101,142.4,98.5,0.461
28.68,32345.3,35733.1,1.205,1.2254,142.4,98.5,0.461
28.7,32405.9,35753.5,1.2089,1.2266,142.4,98.5,0.461
28.72,32209.3,35650.5,1.1964,1.2206,142.4,98.5,0.461
28.74,32185.8,35472.6,1.1949,1.2103,142.4,98.5,0.461
28.76,32015.0,35215.0,1.1841,1.1954,142.4,98.5,0.461
28.78,32027.3,35172.9,1.1849,1.193,142.4,98.5,0.461
28.8,32003.8,35050.5,1.1834,1.1859,142.4,98.5,0.461
28.82,32004.8,35054.3,1.1835,1.1861,142.4,98.5,0.461
28.84,32035.5,34945.4,1.1854,1.1798,142.4,98.5,0.461
28.86,32037.0,34851.2,1.1855,1.1743,142.4,98.5,0.461
28.88,31938.7,34715.5,1.1793,1.1665,142.4,98.5,0.461
28.9,31852.6,34713.1,1.1738,1.1663,142.4,98.5,0.461
28.92,31818.6,34694.5,1.1717,1.1652,142.4,98.5,0.461
28.94,31858.9,34594.1,1.1742,1.1594,142.4,98.5,0.461
28.96,31825.9,34609.8,1.1721,1.1603,142.4,98.5,0.461
28.98,31816.9,34411.2,1.1715,1.1488,142.4,98.5,0.461
29.0,31863.3,34428.0,1.1745,1.1498,142.4,98.5,0.461
29.02,31822.2,34508.4,1.1719,1.1544,142.4,98.5,0.461
29.04,31899.3,34688.3,1.1768,1.1649,142.4,98.5,0.461
29.06,32088.8,35092.1,1.1888,1.1883,142.4,98.5,0.461
29.08,32180.7,35497.6,1.1946,1.2118,142.4,98.5,0.461
29.1,32347.4,35749.0,1.2052,1.2263,142.4,98.5,0.461
29.12,32320.4,35838.2,1.2035,1.2315,142.4,98.5,0.461
29.14,32315.5,35637.6,1.2032,1.2199,142.4,98.5,0.461
29.16,32254.5,35373.2,1.1993,1.2046,142.4,98.5,0.461
29.18,32107.9,35317.5,1.19,1.2013,142.4,98.5,0.461
29.2,32109.9,35163.0,1.1901,1.1924,142.4,98.5,0.461
29.22,31970.4,35156.6,1.1813,1.192,142.4,98.5,0.461
29.24,32003.7,35027.6,1.1834,1.1845,142.4,98.5,0.461
29.26,31933.2,34944.2,1.1789,1.1797,142.4,98.5,0.461
29.28,31965.0,34873.9,1.1809,1.1756,142.4,98.5,0.461
29.3,31965.1,34671.8,1.1809,1.1639,142.4,98.5,0.461
29.32,31839.2,34692.6,1.173,1.1651,142.4,98.5,0.461
29.34,31857.3,34741.0,1.1741,1.1679,142.4,98.5,0.461
29.36,31791.6,34716.7,1.1699,1.1665,142.4,98.5,0.461
29.38,31932.8,34485.4,1.1789,1.1531,142.4,98.5,0.461
29.4,31782.3,34526.6,1.1693,1.1555,142.4,98.5,0.461
29.42,31734.6,34478.7,1.1663,1.1527,142.4,98.5,0.461
29.44,31844.8,34523.6,1.1733,1.1553,142.4,98.5,0.461
29.46,31791.7,34757.0,1.17,1.1689,142.4,98.5,0.461
29.48,32150.9,35063.5,1.1927,1.1866,142.4,98.5,0.461
29.5,32215.6,35447.4,1.1968,1.2089,142.4,98.5,0.461
29.52,32349.6,35676.0,1.2053,1.2221,142.4,98.5,0.461
29.54,32265.3,35817.8,1.2,1.2303,142.4,98.5,0.461
29.56,32230.0,35648.7,1.1977,1.2205,142.4,98.5,0.461
29.58,32201.0,35442.4,1.1959,1.2086,142.4,98.5,0.461
29.6,32138.0,35289.3,1.1919,1.1997,142.4,98.5,0.461
29.62,32040.6,35192.5,1.1857,1.1941,142.4,98.5,0.461
29.64,31953.0,35089.1,1.1802,1.1881,142.4,98.5,0.461
29.66,32013.0,35061.4,1.184,1.1865,142.4,98.5,0.461
29.68,32029.0,35002.2,1.185,1.1831,142.4,98.5,0.461
29.7,31951.4,34867.4,1.1801,1.1753,142.4,98.5,0.461
29.72,31865.3,34796.8,1.1746,1.1712,142.4,98.5,0.461
29.74,31842.5,34822.0,1.1732,1.1726,142.4,98.5,0.461
29.76,31903.3,34627.5,1.177,1.1614,142.4,98.5,0.461
29.78,31927.0,34695.3,1.1785,1.1653,142.4,98.5,0.461
29.8,31845.0,34642.8,1.1733,1.1622,142.4,98.5,0.461
29.82,31814.9,34468.5,1.1714,1.1521,142.4,98.5,0.461
29.84,31826.9,34510.7,1.1722,1.1546,142.4,98.5,0.461
29.86,31765.6,34501.6,1.1683,1.1541,142.4,98.5,0.461
29.88,31873.7,34695.0,1.1751,1.1653,142.4,98.5,0.461
29.9,31970.9,35079.6,1.1813,1.1875,142.4,98.5,0.461
29.92,32146.4,35415.2,1.1924,1.207,142.4,98.5,0.461
29.94,32285.4,35713.9,1.2012,1.2243,142.4,98.5,0.461
29.96,32393.9,35783.3,1.2081,1.2283,142.4,98.5,0.461
29.98,32191.1,35641.5,1.1953,1.2201,142.4,98.5,0.461
30.0,32174.2,35571.8,1.1942,1.2161,142.4,98.5,0.461
30.02,32179.1,35300.0,1.1945,1.2003,142.4,98.5,0.461
30.04,32008.9,35157.8,1.1837,1.1921,142.4,98.5,0.461
30.06,32080.2,35014.6,1.1882,1.1838,142.4,98.5,0.461
30.08,32021.4,35145.8,1.1845,1.1914,142.4,98.5,0.461
30.1,32019.8,34952.1,1.1844,1.1802,142.4,98.5,0.461
30.12,31988.7,34762.7,1.1824,1.1692,142.4,98.5,0.461
30.14,31893.5,34770.9,1.1764,1.1697,142.4,98.5,0.461
30.16,31883.1,34719.8,1.1757,1.1667,142.4,98.5,0.461
30.18,31934.7,34709.5,1.179,1.1661,142.4,98.5,0.461
30.2,31908.0,34528.4,1.1773,1.1556,142.4,98.5,0.461
30.22,31900.1,34590.0,1.1768,1.1592,142.4,98.5,0.461
30.24,31814.4,34545.6,1.1714,1.1566,142.4,98.5,0.461
30.26,31796.3,34400.5,1.1702,1.1482,142.4,98.5,0.461
30.28,31866.5,34476.7,1.1747,1.1526,142.4,98.5,0.461
30.3,31858.1,34824.3,1.1742,1.1728,142.4,98.5,0.461
30.32,32019.6,35085.5,1.1844,1.1879,142.4,98.5,0.461
30.34,32128.7,35394.5,1.1913,1.2058,142.4,98.5,0.461
30.36,32348.1,35673.6,1.2052,1.222,142.4,98.5,0.461
30.38,32315.4,35799.4,1.2031,1.2293,142.4,98.5,0.461
30.4,32271.1,35692.3,1.2003,1.2231,142.4,98.5,0.461
30.42,32235.0,35519.8,1.198,1.2131,142.4,98.5,0.461
30.44,32178.6,35317.7,1.1945,1.2013,142.4,98.5,0.461
30.46,32087.0,35158.7,1.1887,1.1921,142.4,98.5,0.461
30.48,32040.5,35118.5,1.1857,1.1898,142.4,98.5,0.461
30.5,32058.0,35042.0,1.1868,1.1854,142.4,98.5,0.461
30.52,32029.2,35003.3,1.185,1.1831,142.4,98.5,0.461
30.54,31985.3,34925.8,1.1822,1.1786,142.4,98.5,0.461
30.56,31846.1,34824.1,1.1734,1.1727,142.4,98.5,0.461
30.58,31828.9,34620.1,1.1723,1.1609,142.4,98.5,0.461
30.6,31823.4,34704.9,1.172,1.1658,142.4,98.5,0.461
30.62,31867.0,34635.9,1.1747,1.1618,142.4,98.5,0.461
30.64,31861.5,34668.2,1.1744,1.1637,142.4,98.5,0.461
30.66,31818.1,34507.7,1.1716,1.1544,142.4,98.5,0.461
30.68,31818.7,34418.6,1.1717,1.1492,142.4,98.5,0.461
30.7,31737.9,34473.8,1.1665,1.1524,142.4,98.5,0.461
30.72,31899.8,34567.0,1.1768,1.1578,142.4,98.5,0.461
30.74,32051.4,34987.1,1.1864,1.1822,142.4,98.5,0.461
30.76,32119.7,35288.2,1.1907,1.1996,142.4,98.5,0.461
30.78,32306.8,35668.4,1.2026,1.2217,142.4,98.5,0.461
30.8,32250.6,35798.7,1.199,1.2292,142.4,98.5,0.461
30.82,32288.8,35772.2,1.2015,1.2277,142.4,98.5,0.461
30.84,32243.1,35454.3,1.1986,1.2093,142.4,98.5,0.461
30.86,32105.5,35230.8,1.1898,1.1963,142.4,98.5,0.461
30.88,32011.2,35130.4,1.1839,1.1905,142.4,98.5,0.461
30.9,32079.1,35068.6,1.1882,1.1869,142.4,98.5,0.461
30.92,32099.2,35005.5,1.1894,1.1833,142.4,98.5,0.461
30.94,31977.3,34940.3,1.1817,1.1795,142.4,98.5,0.461
30.96,31943.9,34954.1,1.1796,1.1803,142.4,98.5,0.461
30.98,31963.2,34780.5,1.1808,1.1702,142.4,98.5,0.461
31.0,31899.3,34695.9,1.1768,1.1653,142.4,98.5,0.461
31.02,31829.0,34647.5,1.1723,1.1625,142.4,98.5,0.461
31.04,31931.8,34667.3,1.1788,1.1637,142.4,98.5,0.461
31.06,31845.2,34623.9,1.1733,1.1611,142.4,98.5,0.461
31.08,31824.4,34516.3,1.172,1.1549,142.4,98.5,0.461
31.1,31710.6,34481.8,1.1648,1.1529,142.4,98.5,0.461
31.12,31763.7,34520.4,1.1682,1.1551,142.4,98.5,0.461
31.14,31937.4,34635.4,1.1792,1.1618,142.4,98.5,0.461
31.16,31959.5,34958.4,1.1806,1.1805,142.4,98.5,0.461
31.18,32192.9,35337.0,1.1954,1.2025,142.4,98.5,0.461
31.2,32243.1,35632.6,1.1986,1.2196,142.4,98.5,0.461
31.22,32277.9,35795.3,1.2008,1.229,142.4,98.5,0.461
31.24,32296.7,35728.4,1.202,1.2251,142.4,98.5,0.461
31.26,32188.8,35434.8,1.1951,1.2081,142.4,98.5,0.461
31.28,32166.3,35297.0,1.1937,1.2001,142.4,98.5,0.461
31.3,32098.2,35228.5,1.1894,1.1962,142.4,98.5,0.461
31.32,32028.6,35066.3,1.185,1.1868,142.4,98.5,0.461
31.34,32022.6,35031.2,1.1846,1.1847,142.4,98.5,0.461
31.36,31999.4,35029.7,1.1831,1.1847,142.4,98.5,0.461
31.38,31983.3,34912.8,1.1821,1.1779,142.4,98.5,0.461
31.4,31911.6,34727.1,1.1775,1.1671,142.4,98.5,0.461
31.42,31799.4,34734.1,1.1704,1.1675,142.4,98.5,0.461
31.44,31900.1,34651.1,1.1768,1.1627,142.4,98.5,0.461
31.46,31845.0,34623.0,1.1733,1.1611,142.4,98.5,0.461
31.48,31840.4,34580.6,1.173,1.1586,142.4,98.5,0.461
31.5,31734.4,34527.9,1.1663,1.1556,142.4,98.5,0.461
31.52,31896.3,34449.1,1.1766,1.151,142.4,98.5,0.461
31.54,31800.5,34393.1,1.1705,1.1478,142.4,98.5,0.461
31.56,31831.5,34636.5,1.1725,1.1619,142.4,98.5,0.461
31.58,31916.3,34930.1,1.1778,1.1789,142.4,98.5,0.461
31.6,32155.2,35418.6,1.193,1.2072,142.4,98.5,0.461
31.62,32292.0,35572.6,1.2017,1.2161,142.4,98.5,0.461
31.64,32232.1,35814.7,1.1979,1.2301,142.4,98.5,0.461
31.66,32228.9,35684.6,1.1977,1.2226,142.4,98.5,0.461
31.68,32199.8,35534.9,1.1958,1.2139,142.4,98.5,0.461
31.7,32099.9,35298.5,1.1895,1.2002,142.4,98.5,0.461
31.72,32051.4,35170.4,1.1864,1.1928,142.4,98.5,0.461
31.74,32036.5,35147.5,1.1855,1.1915,142.4,98.5,0.461
31.76,32050.1,35118.8,1.1863,1.1898,142.4,98.5,0.461
31.78,32003.2,35074.8,1.1834,1.1873,142.4,98.5,0.461
31.8,31921.8,34876.0,1.1782,1.1758,142.4,98.5,0.461
31.82,31883.9,34722.3,1.1758,1.1668,142.4,98.5,0.461
31.84,31792.8,34771.5,1.17,1.1697,142.4,98.5,0.461
31.86,31857.4,34728.4,1.1741,1.1672,142.4,98.5,0.461
31.88,31908.8,34679.8,1.1774,1.1644,142.4,98.5,0.461
31.9,31861.9,34559.0,1.1744,1.1574,142.4,98.5,0.461
31.92,31806.7,34490.5,1.1709,1.1534,142.4,98.5,0.461
31.94,31790.9,34520.7,1.1699,1.1552,142.4,98.5,0.461
31.96,31834.2,34508.7,1.1726,1.1545,142.4,98.5,0.461
31.98,31675.4,34563.1,1.1626,1.1576,142.4,98.5,0.461
32.0,32029.9,34868.0,1.185,1.1753,142.4,98.5,0.461
32.02,32144.4,35222.6,1.1923,1.1958,142.4,98.5,0.461
32.04,32236.3,35515.1,1.1981,1.2128,142.4,98.5,0.461
32.06,32295.3,35681.0,1.2019,1.2224,142.4,98.5,0.461
32.08,32221.8,35736.1,1.1972,1.2256,142.4,98.5,0.461
32.1,32208.2,35540.5,1.1963,1.2143,142.4,98.5,0.461
32.12,32003.1,35251.6,1.1833,1.1975,142.4,98.5,0.461
32.14,32086.6,35153.4,1.1886,1.1918,142.4,98.5,0.461
32.16,32010.8,35025.2,1.1838,1.1844,142.4,98.5,0.461
32.18,31956.0,35155.8,1.1804,1.192,142.4,98.5,0.461
32.2,32091.7,35023.7,1.189,1.1843,142.4,98.5,0.461
32.22,31976.6,34926.6,1.1817,1.1787,142.4,98.5,0.461
32.24,31981.4,34702.5,1.182,1.1657,142.4,98.5,0.461
32.26,31947.3,34720.6,1.1798,1.1667,142.4,98.5,0.461
32.28,31804.2,34704.3,1.1707,1.1658,142.4,98.5,0.461
32.3,31806.4,34674.3,1.1709,1.1641,142.4,98.5,0.461
32.32,31852.0,34538.7,1.1738,1.1562,142.4,98.5,0.461
32.34,31778.6,34551.0,1.1691,1.1569,142.4,98.5,0.461
32.36,31787.7,34473.3,1.1697,1.1524,142.4,98.5,0.461
32.38,31680.6,34492.9,1.1629,1.1536,142.4,98.5,0.461
32.4,31815.2,34647.1,1.1714,1.1625,142.4,98.5,0.461
32.42,31982.9,34851.3,1.1821,1.1743,142.4,98.5,0.461
32.44,32072.3,35364.7,1.1877,1.2041,142.4,98.5,0.461
32.46,32243.8,35637.6,1.1986,1.2199,142.4,98.5,0.461
32.48,32363.4,35784.1,1.2062,1.2284,142.4,98.5,0.461
32.5,32340.6,35845.2,1.2047,1.2319,142.4,98.5,0.461
32.52,32194.7,35505.3,1.1955,1.2122,142.4,98.5,0.461
32.54,32088.4,35313.3,1.1888,1.2011,142.4,98.5,0.461
32.56,32087.3,35178.4,1.1887,1.1933,142.4,98.5,0.461
32.58,32062.4,35118.3,1.1871,1.1898,142.4,98.5,0.461
32.6,32104.9,35062.1,1.1898,1.1865,142.4,98.5,0.461
32.62,31940.9,35032.2,1.1794,1.1848,142.4,98.5,0.461
32.64,31949.2,34930.6,1.1799,1.1789,142.4,98.5,0.461
32.66,31920.6,34764.1,1.1781,1.1693,142.4,98.5,0.461
32.68,31902.7,34716.5,1.177,1.1665,142.4,98.5,0.461
32.7,31875.9,34627.4,1.1753,1.1613,142.4,98.5,0.461
32.72,31850.9,34688.3,1.1737,1.1649,142.4,98.5,0.461
32.74,31834.5,34706.0,1.1727,1.1659,142.4,98.5,0.461
32.76,31838.9,34625.0,1.1729,1.1612,142.4,98.5,0.461
32.78,31757.3,34536.4,1.1678,1.1561,142.4,98.5,0.461
32.8,31783.3,34507.6,1.1694,1.1544,142.4,98.5,0.461
32.82,31752.3,34725.0,1.1674,1.167,142.4,98.5,0.461
32.84,32009.9,34914.2,1.1838,1.178,142.4,98.5,0.461
32.86,32082.3,35278.0,1.1884,1.199,142.4,98.5,0.461
32.88,32239.8,35637.5,1.1984,1.2199,142.4,98.5,0.461
32.9,32333.0,35786.5,1.2043,1.2285,142.4,98.5,0.461
32.92,32376.3,35695.2,1.207,1.2232,142.4,98.5,0.461
32.94,32231.0,35551.2,1.1978,1.2149,142.4,98.5,0.461
32.96,32170.0,35375.0,1.1939,1.2047,142.4,98.5,0.461
32.98,32054.4,35126.4,1.1866,1.1903,142.4,98.5,0.461
33.0,32137.3,35105.2,1.1919,1.189,142.4,98.5,0.461
33.02,32019.4,35081.1,1.1844,1.1876,142.4,98.5,0.461
33.04,32014.0,35022.5,1.184,1.1842,142.4,98.5,0.461
33.06,32011.0,34949.7,1.1839,1.18,142.4,98.5,0.461
33.08,31857.7,34767.1,1.1741,1.1694,142.4,98.5,0.461
33.1,31896.2,34778.8,1.1766,1.1701,142.4,98.5,0.461
33.12,31807.6,34692.3,1.171,1.1651,142.4,98.5,0.461
33.14,31951.6,34684.4,1.1801,1.1646,142.4,98.5,0.461
33.16,31894.5,34614.8,1.1765,1.1606,142.4,98.5,0.461
33.18,31836.7,34587.6,1.1728,1.159,142.4,98.5,0.461
33.2,31814.7,34471.4,1.1714,1.1523,142.4,98.5,0.461
33.22,31821.4,34407.5,1.1718,1.1486,142.4,98.5,0.461
33.24,31856.7,34599.2,1.1741,1.1597,142.4,98.5,0.461
33.26,31962.1,34882.7,1.1807,1.1761,142.4,98.5,0.461
33.28,32106.9,35262.0,1.1899,1.1981,142.4,98.5,0.461
33.3,32241.7,35577.9,1.1985,1.2164,142.4,98.5,0.461
33.32,32347.9,35725.1,1.2052,1.225,142.4,98.5,0.461
33.34,32191.6,35804.1,1.1953,1.2295,142.4,98.5,0.461
33.36,32275.7,35545.3,1.2006,1.2145,142.4,98.5,0.461
33.38,32053.9,35385.5,1.1866,1.2053,142.4,98.5,0.461
33.4,32210.2,35085.2,1.1965,1.1879,142.4,98.5,0.461
33.42,32094.3,35095.3,1.1891,1.1885,142.4,98.5,0.461
33.44,32014.1,35121.7,1.184,1.19,142.4,98.5,0.461
33.46,31992.7,35047.4,1.1827,1.1857,142.4,98.5,0.461
33.48,32004.3,34870.1,1.1834,1.1754,142.4,98.5,0.461
33.5,31938.6,34804.0,1.1793,1.1716,142.4,98.5,0.461
33.52,31943.3,34805.3,1.1796,1.1717,142.4,98.5,0.461
33.54,31875.9,34603.6,1.1753,1.16,142.4,98.5,0.461
33.56,31906.6,34714.9,1.1772,1.1664,142.4,98.5,0.461
33.58,31895.1,34616.2,1.1765,1.1607,142.4,98.5,0.461
33.6,31784.0,34504.7,1.1695,1.1542,142.4,98.5,0.461
33.62,31773.8,34369.5,1.1688,1.1464,142.4,98.5,0.461
33.64,31763.2,34484.5,1.1681,1.1531,142.4,98.5,0.461
33.66,31870.8,34560.1,1.175,1.1574,142.4,98.5,0.461
33.68,32016.4,34862.8,1.1842,1.175,142.4,98.5,0.461
33.7,32155.5,35292.6,1.193,1.1999,142.4,98.5,0.461
33.72,32292.8,35527.4,1.2017,1.2135,142.4,98.5,0.461
33.74,32267.3,35705.6,1.2001,1.2238,142.4,98.5,0.461
33.76,32281.5,35701.0,1.201,1.2236,142.4,98.5,0.461
33.78,32236.1,35560.1,1.1981,1.2154,142.4,98.5,0.461
33.8,32189.4,35346.3,1.1952,1.203,142.4,98.5,0.461
33.82,32130.9,35256.4,1.1915,1.1978,142.4,98.5,0.461
33.84,32043.8,35133.2,1.1859,1.1907,142.4,98.5,0.461
33.86,32135.5,35055.2,1.1917,1.1861,142.4,98.5,0.461
33.88,31917.1,34974.0,1.1779,1.1814,142.4,98.5,0.461
33.9,31924.5,34913.3,1.1784,1.1779,142.4,98.5,0.461
33.92,31939.2,34888.7,1.1793,1.1765,142.4,98.5,0.461
33.94,31890.2,34721.8,1.1762,1.1668,142.4,98.5,0.461
33.96,31876.5,34679.0,1.1753,1.1643,142.4,98.5,0.461
33.98,31812.4,34618.3,1.1713,1.1608,142.4,98.5,0.461
34.0,31921.7,34587.3,1.1782,1.159,142.4,98.5,0.461
34.02,31756.7,34579.9,1.1677,1.1586,142.4,98.5,0.461
34.04,31738.7,34448.5,1.1666,1.151,142.4,98.5,0.461
34.06,31731.6,34439.2,1.1661,1.1504,142.4,98.5,0.461
34.08,31857.4,34575.2,1.1741,1.1583,142.4,98.5,0.461
34.1,32005.5,34879.7,1.1835,1.176,142.4,98.5,0.461
34.12,32095.2,35202.0,1.1892,1.1946,142.4,98.5,0.461
34.14,32350.9,35534.4,1.2054,1.2139,142.4,98.5,0.461
34.16,32383.4,35757.5,1.2075,1.2268,142.4,98.5,0.461
34.18,32273.8,35798.6,1.2005,1.2292,142.4,98.5,0.461
34.2,32183.8,35647.0,1.1948,1.2204,142.4,98.5,0.461
34.22,32242.1,35329.6,1.1985,1.202,142.4,98.5,0.461
34.24,32055.1,35221.8,1.1866,1.1958,142.4,98.5,0.461
34.26,32033.5,35210.5,1.1853,1.1951,142.4,98.5,0.461
34.28,32023.4,35049.1,1.1846,1.1858,142.4,98.5,0.461
34.3,31997.0,34975.2,1.183,1.1815,142.4,98.5,0.461
34.32,31965.4,34970.9,1.181,1.1812,142.4,98.5,0.461
34.34,31807.5,34812.8,1.1709,1.1721,142.4,98.5,0.461
34.36,31899.1,34700.3,1.1768,1.1656,142.4,98.5,0.461
34.38,31760.2,34679.4,1.1679,1.1644,142.4,98.5,0.461
34.4,31846.0,34716.6,1.1734,1.1665,142.4,98.5,0.461
34.42,31822.7,34557.1,1.1719,1.1573,142.4,98.5,0.461
34.44,31792.9,34543.9,1.17,1.1565,142.4,98.5,0.461
34.46,31821.0,34573.7,1.1718,1.1582,142.4,98.5,0.461
34.48,31818.0,34521.7,1.1716,1.1552,142.4,98.5,0.461
34.5,31763.3,34560.3,1.1681,1.1575,142.4,98.5,0.461
34.52,31975.3,34823.0,1.1816,1.1727,142.4,98.5,0.461
34.54,32044.3,35117.0,1.186,1.1897,142.4,98.5,0.461
34.56,32196.1,35524.3,1.1956,1.2133,142.4,98.5,0.461
34.58,32259.7,35780.5,1.1996,1.2282,142.4,98.5,0.461
34.6,32279.4,35778.3,1.2009,1.228,142.4,98.5,0.461
34.62,32224.8,35594.1,1.1974,1.2174,142.4,98.5,0.461
34.64,32136.3,35435.8,1.1918,1.2082,142.4,98.5,0.461
34.66,32077.3,35289.6,1.188,1.1997,142.4,98.5,0.461
34.68,31957.1,35131.5,1.1804,1.1906,142.4,98.5,0.461
34.7,32051.5,35077.8,1.1864,1.1874,142.4,98.5,0.461
34.72,31993.0,35111.0,1.1827,1.1894,142.4,98.5,0.461
34.74,31965.4,34896.5,1.181,1.1769,142.4,98.5,0.461
34.76,31947.5,34753.0,1.1798,1.1686,142.4,98.5,0.461
34.78,31935.8,34916.1,1.1791,1.1781,142.4,98.5,0.461
34.8,31766.7,34618.3,1.1684,1.1608,142.4,98.5,0.461
34.82,31868.7,34665.4,1.1748,1.1635,142.4,98.5,0.461
34.84,31756.9,34637.6,1.1677,1.1619,142.4,98.5,0.461
34.86,31803.3,34616.4,1.1707,1.1607,142.4,98.5,0.461
34.88,31719.3,34596.6,1.1654,1.1596,142.4,98.5,0.461
34.9,31768.8,34415.8,1.1685,1.1491,142.4,98.5,0.461
34.92,31707.7,34549.5,1.1646,1.1568,142.4,98.5,0.461
34.94,31877.6,34770.9,1.1754,1.1697,142.4,98.5,0.461
34.96,32095.2,35142.5,1.1892,1.1912,142.4,98.5,0.461
34.98,32241.9,35608.3,1.1985,1.2182,142.4,98.5,0.461
35.0,32364.0,35661.7,1.2062,1.2213,142.4,98.5,0.461
35.02,32276.7,35768.2,1.2007,1.2274,142.4,98.5,0.461
35.04,32211.3,35654.4,1.1965,1.2209,142.4,98.5,0.461
35.06,32178.6,35389.7,1.1945,1.2055,142.4,98.5,0.461
35.08,32130.9,35219.7,1.1915,1.1957,142.4,98.5,0.461
35.1,32063.8,35135.9,1.1872,1.1908,142.4,98.5,0.461
35.12,32023.8,35156.0,1.1847,1.192,142.4,98.5,0.461
35.14,31921.8,35097.7,1.1782,1.1886,142.4,98.5,0.461
35.16,31960.1,34980.1,1.1806,1.1818,142.4,98.5,0.461
35.18,31812.7,34916.0,1.1713,1.1781,142.4,98.5,0.461
35.2,31887.2,34615.8,1.176,1.1607,142.4,98.5,0.461
35.22,31847.0,34699.4,1.1735,1.1655,142.4,98.5,0.461
35.24,31859.3,34647.4,1.1742,1.1625,142.4,98.5,0.461
35.26,31811.3,34692.1,1.1712,1.1651,142.4,98.5,0.461
35.28,31860.2,34551.0,1.1743,1.1569,142.4,98.5,0.461
35.3,31830.5,34447.5,1.1724,1.1509,142.4,98.5,0.461
35.32,31819.6,34480.8,1.1717,1.1529,142.4,98.5,0.461
35.34,31819.2,34596.6,1.1717,1.1596,142.4,98.5,0.461
35.36,31880.0,34767.3,1.1755,1.1695,142.4,98.5,0.461
35.38,32017.0,35086.0,1.1842,1.1879,142.4,98.5,0.461
35.4,32181.2,35491.9,1.1946,1.2114,142.4,98.5,0.461
35.42,32314.5,35698.1,1.2031,1.2234,142.4,98.5,0.461
35.44,32399.3,35763.4,1.2085,1.2272,142.4,98.5,0.461
35.46,32343.9,35637.5,1.2049,1.2199,142.4,98.5,0.461
35.48,32145.7,35358.7,1.1924,1.2037,142.4,98.5,0.461
35.5,32098.0,35153.9,1.1894,1.1919,142.4,98.5,0.461
35.52,32108.1,35168.5,1.19,1.1927,142.4,98.5,0.461
35.54,32080.7,35005.2,1.1883,1.1832,142.4,98.5,0.461
35.56,32081.5,35009.1,1.1883,1.1835,142.4,98.5,0.461
35.58,31954.1,34947.7,1.1802,1.1799,142.4,98.5,0.461
35.6,31909.8,34826.1,1.1774,1.1729,142.4,98.5,0.461
35.62,31914.1,34794.6,1.1777,1.171,142.4,98.5,0.461
35.64,31950.4,34668.1,1.18,1.1637,142.4,98.5,0.461
35.66,31860.7,34672.3,1.1743,1.1639,142.4,98.5,0.461
35.68,31944.2,34684.2,1.1796,1.1646,142.4,98.5,0.461
35.7,31812.9,34598.0,1.1713,1.1596,142.4,98.5,0.461
35.72,31782.4,34553.6,1.1694,1.1571,142.4,98.5,0.461
35.74,31773.1,34401.8,1.1688,1.1483,142.4,98.5,0.461
35.76,31778.4,34539.0,1.1691,1.1562,142.4,98.5,0.461
35.78,31932.9,34772.2,1.1789,1.1697,142.4,98.5,0.461
35.8,32093.8,35065.6,1.1891,1.1867,142.4,98.5,0.461
35.82,32190.6,35479.2,1.1952,1.2107,142.4,98.5,0.461
35.84,32280.3,35679.8,1.2009,1.2223,142.4,98.5,0.461
35.86,32301.1,35687.4,1.2022,1.2228,142.4,98.5,0.461
35.88,32246.1,35663.9,1.1987,1.2214,142.4,98.5,0.461
35.9,32256.7,35343.2,1.1994,1.2028,142.4,98.5,0.461
35.92,32088.9,35164.5,1.1888,1.1925,142.4,98.5,0.461
35.94,32137.5,35063.5,1.1919,1.1866,142.4,98.5,0.461
35.96,31990.0,35056.6,1.1825,1.1862,142.4,98.5,0.461
35.98,32059.4,35001.7,1.1869,1.183,142.4,98.5,0.461
36.0,31886.8,34961.2,1.176,1.1807,142.4,98.5,0.461
36.02,31858.7,34848.6,1.1742,1.1742,142.4,98.5,0.461
36.04,31931.1,34687.5,1.1788,1.1648,142.4,98.5,0.461
36.06,31861.5,34797.5,1.1744,1.1712,142.4,98.5,0.461
36.08,31874.8,34678.0,1.1752,1.1643,142.4,98.5,0.461
36.1,31918.8,34636.6,1.178,1.1619,142.4,98.5,0.461
36.12,31823.0,34570.4,1.1719,1.158,142.4,98.5,0.461
36.14,31757.9,34461.5,1.1678,1.1517,142.4,98.5,0.461
36.16,31750.2,34390.4,1.1673,1.1476,142.4,98.5,0.461
36.18,31747.4,34699.5,1.1671,1.1655,142.4,98.5,0.461
36.2,31856.4,34650.3,1.1741,1.1627,142.4,98.5,0.461
36.22,31976.5,35103.3,1.1817,1.1889,142.4,98.5,0.461
36.24,32214.4,35447.0,1.1967,1.2088,142.4,98.5,0.461
36.26,32291.7,35736.2,1.2016,1.2256,142.4,98.5,0.461
36.28,32365.2,35725.7,1.2063,1.225,142.4,98.5,0.461
36.3,32275.6,35674.7,1.2006,1.222,142.4,98.5,0.461
36.32,32173.3,35526.9,1.1941,1.2135,142.4,98.5,0.461
36.34,32029.3,35251.4,1.185,1.1975,142.4,98.5,0.461
36.36,32062.0,35200.1,1.1871,1.1945,142.4,98.5,0.461
36.38,32053.2,35042.3,1.1865,1.1854,142.4,98.5,0.461
36.4,32072.3,35038.2,1.1877,1.1851,142.4,98.5,0.461
36.42,31956.6,35005.7,1.1804,1.1833,142.4,98.5,0.461
36.44,31915.8,34853.0,1.1778,1.1744,142.4,98.5,0.461
36.46,31901.8,34746.4,1.1769,1.1682,142.4,98.5,0.461
36.48,31768.4,34635.8,1.1685,1.1618,142.4,98.5,0.461
36.5,31875.9,34617.7,1.1753,1.1608,142.4,98.5,0.461
36.52,31867.6,34603.4,1.1748,1.16,142.4,98.5,0.461
36.54,31778.4,34588.9,1.1691,1.1591,142.4,98.5,0.461
36.56,31806.7,34579.1,1.1709,1.1585,142.4,98.5,0.461
36.58,31733.3,34512.0,1.1662,1.1547,142.4,98.5,0.461
36.6,31737.5,34507.6,1.1665,1.1544,142.4,98.5,0.461
36.62,31956.4,34750.5,1.1804,1.1685,142.4,98.5,0.461
36.64,31947.6,35089.1,1.1798,1.1881,142.4,98.5,0.461
36.66,32145.2,35422.1,1.1924,1.2074,142.4,98.5,0.461
36.68,32312.2,35666.2,1.2029,1.2215,142.4,98.5,0.461
36.7,32372.8,35828.7,1.2068,1.231,142.4,98.5,0.461
36.72,32306.4,35614.2,1.2026,1.2185,142.4,98.5,0.461
36.74,32228.9,35443.9,1.1977,1.2087,142.4,98.5,0.461
36.76,32183.5,35258.7,1.1948,1.1979,142.4,98.5,0.461
36.78,32026.7,35111.4,1.1848,1.1894,142.4,98.5,0.461
36.8,31988.9,35082.1,1.1825,1.1877,142.4,98.5,0.461
36.82,32032.7,35059.6,1.1852,1.1864,142.4,98.5,0.461
36.84,32023.1,35057.0,1.1846,1.1862,142.4,98.5,0.461
36.86,31868.6,34874.1,1.1748,1.1756,142.4,98.5,0.461
36.88,31865.9,34811.0,1.1746,1.172,142.4,98.5,0.461
36.9,31862.9,34685.0,1.1745,1.1647,142.4,98.5,0.461
36.92,31902.8,34727.7,1.177,1.1672,142.4,98.5,0.461
36.94,31737.5,34620.6,1.1665,1.161,142.4,98.5,0.461
36.96,31869.7,34555.0,1.1749,1.1572,142.4,98.5,0.461
36.98,31763.2,34485.2,1.1681,1.1531,142.4,98.5,0.461
37.0,31747.1,34434.2,1.1671,1.1502,142.4,98.5,0.461
37.02,31833.7,34495.4,1.1726,1.1537,142.4,98.5,0.461
37.04,31935.7,34794.1,1.1791,1.171,142.4,98.5,0.461
37.06,31977.5,34928.2,1.1817,1.1788,142.4,98.5,0.461
37.08,32087.8,35354.5,1.1887,1.2035,142.4,98.5,0.461
37.1,32312.9,35665.7,1.203,1.2215,142.4,98.5,0.461
37.12,32274.6,35679.0,1.2006,1.2223,142.4,98.5,0.461
37.14,32269.1,35644.8,1.2002,1.2203,142.4,98.5,0.461
37.16,32210.5,35486.6,1.1965,1.2111,142.4,98.5,0.461
37.18,32191.9,35220.6,1.1953,1.1957,142.4,98.5,0.461
37.2,32093.9,35141.7,1.1891,1.1911,142.4,98.5,0.461
37.22,32093.5,35087.5,1.1891,1.188,142.4,98.5,0.461
37.24,32119.0,35019.9,1.1907,1.1841,142.4,98.5,0.461
37.26,31972.3,34949.2,1.1814,1.18,142.4,98.5,0.461
37.28,31979.9,34775.8,1.1819,1.1699,142.4,98.5,0.461
37.3,31847.3,34793.4,1.1735,1.171,142.4,98.5,0.461
37.32,31828.2,34673.9,1.1723,1.164,142.4,98.5,0.461
37.34,31904.4,34635.8,1.1771,1.1618,142.4,98.5,0.461
37.36,31788.0,34664.6,1.1697,1.1635,142.4,98.5,0.461
37.38,31952.7,34588.9,1.1802,1.1591,142.4,98.5,0.461
37.4,31737.3,34553.3,1.1665,1.1571,142.4,98.5,0.461
37.42,31755.0,34438.5,1.1676,1.1504,142.4,98.5,0.461
37.44,31826.8,34515.8,1.1722,1.1549,142.4,98.5,0.461
37.46,31855.9,34655.3,1.174,1.163,142.4,98.5,0.461
37.48,31912.0,35064.0,1.1776,1.1866,142.4,98.5,0.461
37.5,32152.2,35347.7,1.1928,1.2031,142.4,98.5,0.461
37.52,32215.1,35626.9,1.1968,1.2193,142.4,98.5,0.461
37.54,32374.9,35757.2,1.2069,1.2268,142.4,98.5,0.461
37.56,32350.1,35631.0,1.2053,1.2195,142.4,98.5,0.461
37.58,32171.9,35433.6,1.194,1.2081,142.4,98.5,0.461
37.6,32060.3,35303.4,1.187,1.2005,142.4,98.5,0.461
37.62,32126.2,35170.4,1.1912,1.1928,142.4,98.5,0.461
37.64,32031.8,35071.7,1.1852,1.1871,142.4,98.5,0.461
37.66,32044.1,35148.5,1.1859,1.1915,142.4,98.5,0.461
37.68,31938.3,34927.6,1.1792,1.1787,142.4,98.5,0.461
37.7,31918.2,34888.5,1.178,1.1765,142.4,98.5,0.461
37.72,31841.9,34784.7,1.1731,1.1705,142.4,98.5,0.461
37.74,31834.6,34668.5,1.1727,1.1637,142.4,98.5,0.461
37.76,31902.7,34733.1,1.177,1.1675,142.4,98.5,0.461
37.78,31812.6,34687.4,1.1713,1.1648,142.4,98.5,0.461
37.8,31831.9,34538.5,1.1725,1.1562,142.4,98.5,0.461
37.82,31717.0,34541.0,1.1652,1.1563,142.4,98.5,0.461
37.84,31821.2,34432.4,1.1718,1.15,142.4,98.5,0.461
37.86,31788.1,34529.1,1.1697,1.1557,142.4,98.5,0.461
37.88,31874.9,34607.9,1.1752,1.1602,142.4,98.5,0.461
37.9,32077.7,35061.2,1.1881,1.1865,142.4,98.5,0.461
37.92,32226.3,35355.4,1.1975,1.2035,142.4,98.5,0.461
37.94,32249.9,35658.0,1.199,1.2211,142.4,98.5,0.461
37.96,32433.7,35713.8,1.2106,1.2243,142.4,98.5,0.461
37.98,32304.7,35676.2,1.2025,1.2221,142.4,98.5,0.461
38.0,32305.6,35486.0,1.2025,1.2111,142.4,98.5,0.461
38.02,32115.0,35306.7,1.1904,1.2007,142.4,98.5,0.461
38.04,32143.5,35169.7,1.1922,1.1928,142.4,98.5,0.461
38.06,31997.9,35114.9,1.183,1.1896,142.4,98.5,0.461
38.08,32030.5,34990.1,1.1851,1.1824,142.4,98.5,0.461
38.1,32008.3,34889.9,1.1837,1.1766,142.4,98.5,0.461
38.12,32002.3,34881.8,1.1833,1.1761,142.4,98.5,0.461
38.14,31853.3,34697.1,1.1739,1.1654,142.4,98.5,0.461
38.16,31866.8,34650.1,1.1747,1.1627,142.4,98.5,0.461
38.18,31858.1,34691.6,1.1742,1.1651,142.4,98.5,0.461
38.2,31782.3,34697.0,1.1694,1.1654,142.4,98.5,0.461
38.22,31829.8,34565.3,1.1724,1.1578,142.4,98.5,0.461
38.24,31861.0,34564.6,1.1743,1.1577,142.4,98.5,0.461
38.26,31838.0,34430.0,1.1729,1.1499,142.4,98.5,0.461
38.28,31743.2,34447.0,1.1669,1.1509,142.4,98.5,0.461
38.3,31854.1,34675.5,1.1739,1.1641,142.4,98.5,0.461
38.32,32067.8,34934.5,1.1874,1.1791,142.4,98.5,0.461
38.34,32053.0,35335.8,1.1865,1.2024,142.4,98.5,0.461
38.36,32321.7,35648.7,1.2035,1.2205,142.4,98.5,0.461
38.38,32348.9,35810.2,1.2053,1.2299,142.4,98.5,0.461
38.4,32265.1,35665.4,1.2,1.2215,142.4,98.5,0.461
38.42,32170.4,35510.1,1.194,1.2125,142.4,98.5,0.461
38.44,32210.9,35299.8,1.1965,1.2003,142.4,98.5,0.461
38.46,32134.1,35206.2,1.1917,1.1949,142.4,98.5,0.461
38.48,31976.2,35145.3,1.1816,1.1914,142.4,98.5,0.461
38.5,31987.0,35041.7,1.1823,1.1854,142.4,98.5,0.461
38.52,31997.0,34992.0,1.183,1.1825,142.4,98.5,0.461
38.54,31937.7,34899.6,1.1792,1.1771,142.4,98.5,0.461
38.56,31932.2,34805.5,1.1789,1.1717,142.4,98.5,0.461
38.58,31818.5,34631.6,1.1716,1.1616,142.4,98.5,0.461
38.6,31937.7,34589.0,1.1792,1.1591,142.4,98.5,0.461
38.62,31873.4,34648.1,1.1751,1.1625,142.4,98.5,0.461
38.64,31878.3,34650.7,1.1754,1.1627,142.4,98.5,0.461
38.66,31846.8,34498.5,1.1734,1.1539,142.4,98.5,0.461
38.68,31768.5,34494.6,1.1685,1.1537,142.4,98.5,0.461
38.7,31746.9,34537.0,1.1671,1.1561,142.4,98.5,0.461
38.72,31932.0,34691.2,1.1788,1.165,142.4,98.5,0.461
38.74,31993.7,34927.1,1.1828,1.1787,142.4,98.5,0.461
38.76,32180.2,35391.8,1.1946,1.2056,142.4,98.5,0.461
38.78,32225.3,35679.6,1.1974,1.2223,142.4,98.5,0.461
38.8,32302.0,35844.3,1.2023,1.2319,142.4,98.5,0.461
38.82,32225.4,35649.7,1.1974,1.2206,142.4,98.5,0.461
38.84,32224.7,35558.3,1.1974,1.2153,142.4,98.5,0.461
38.86,32080.2,35304.1,1.1882,1.2006,142.4,98.5,0.461
38.88,32145.8,35178.0,1.1924,1.1933,142.4,98.5,0.461
38.9,32045.8,35102.3,1.1861,1.1889,142.4,98.5,0.461
38.92,31992.0,35105.5,1.1826,1.189,142.4,98.5,0.461
38.94,31871.8,34888.1,1.175,1.1765,142.4,98.5,0.461
38.96,31924.7,34878.7,1.1784,1.1759,142.4,98.5,0.461
38.98,31866.8,34748.8,1.1747,1.1684,142.4,98.5,0.461
39.0,31812.8,34740.5,1.1713,1.1679,142.4,98.5,0.461
39.02,31790.2,34677.8,1.1699,1.1643,142.4,98.5,0.461
39.04,31874.7,34637.2,1.1752,1.1619,142.4,98.5,0.461
39.06,31782.5,34598.2,1.1694,1.1597,142.4,98.5,0.461
39.08,31748.0,34590.0,1.1672,1.1592,142.4,98.5,0.461
39.1,31731.3,34470.9,1.1661,1.1523,142.4,98.5,0.461
39.12,31777.9,34424.4,1.1691,1.1496,142.4,98.5,0.461
39.14,31846.8,34619.7,1.1734,1.1609,142.4,98.5,0.461
39.16,31909.4,34870.2,1.1774,1.1754,142.4,98.5,0.461
39.18,32164.9,35246.2,1.1936,1.1972,142.4,98.5,0.461
39.2,32196.0,35639.5,1.1956,1.22,142.4,98.5,0.461
39.22,32378.3,35777.3,1.2071,1.228,142.4,98.5,0.461
39.24,32302.0,35707.0,1.2023,1.2239,142.4,98.5,0.461
39.26,32201.4,35580.0,1.1959,1.2165,142.4,98.5,0.461
39.28,32097.3,35224.3,1.1893,1.1959,142.4,98.5,0.461
39.3,32045.8,35204.0,1.1861,1.1948,142.4,98.5,0.461
39.32,32030.9,35159.1,1.1851,1.1922,142.4,98.5,0.461
39.34,31989.3,35080.6,1.1825,1.1876,142.4,98.5,0.461
39.36,31996.9,34975.4,1.183,1.1815,142.4,98.5,0.461
39.38,31937.5,34949.9,1.1792,1.18,142.4,98.5,0.461
39.4,31854.8,34661.0,1.1739,1.1633,142.4,98.5,0.461
39.42,31921.9,34653.5,1.1782,1.1629,142.4,98.5,0.461
39.44,31845.8,34601.7,1.1734,1.1599,142.4,98.5,0.461
39.46,31796.2,34667.2,1.1702,1.1637,142.4,98.5,0.461
39.48,31807.7,34620.3,1.171,1.1609,142.4,98.5,0.461
39.5,31845.1,34596.4,1.1733,1.1595,142.4,98.5,0.461
39.52,31748.6,34402.2,1.1672,1.1483,142.4,98.5,0.461
39.54,31765.8,34376.0,1.1683,1.1468,142.4,98.5,0.461
39.56,31890.9,34648.1,1.1762,1.1625,142.4,98.5,0.461
39.58,31939.5,34968.0,1.1793,1.1811,142.4,98.5,0.461
39.6,32217.0,35345.4,1.1969,1.2029,142.4,98.5,0.461
39.62,32215.8,35580.4,1.1968,1.2166,142.4,98.5,0.461
39.64,32350.7,35727.0,1.2054,1.2251,142.4,98.5,0.461
39.66,32324.7,35657.9,1.2037,1.2211,142.4,98.5,0.461
39.68,32229.6,35634.5,1.1977,1.2197,142.4,98.5,0.461
39.7,32251.1,35388.3,1.1991,1.2054,142.4,98.5,0.461
39.72,32119.7,35238.2,1.1907,1.1967,142.4,98.5,0.461
39.74,32158.1,35157.2,1.1932,1.192,142.4,98.5,0.461
39.76,32020.5,35031.8,1.1845,1.1848,142.4,98.5,0.461
39.78,32012.5,34995.8,1.1839,1.1827,142.4,98.5,0.461
39.8,31928.4,34949.8,1.1786,1.18,142.4,98.5,0.461
39.82,31971.3,34879.7,1.1813,1.176,142.4,98.5,0.461
39.84,31936.9,34783.1,1.1792,1.1704,142.4,98.5,0.461
39.86,31877.2,34685.5,1.1754,1.1647,142.4,98.5,0.461
39.88,31904.3,34701.1,1.1771,1.1656,142.4,98.5,0.461
39.9,31872.5,34655.9,1.1751,1.163,142.4,98.5,0.461
39.92,31854.4,34522.5,1.1739,1.1553,142.4,98.5,0.461
39.94,31725.7,34498.9,1.1658,1.1539,142.4,98.5,0.461
39.96,31843.1,34443.5,1.1732,1.1507,142.4,98.5,0.461
39.98,31873.5,34648.7,1.1751,1.1626,142.4,98.5,0.461
40.0,32032.9,34938.5,1.1852,1.1794,142.4,98.5,0.461
40.02,32117.6,35221.6,1.1906,1.1958,142.4,98.5,0.461
40.04,32346.6,35645.5,1.2051,1.2203,142.4,98.5,0.461
40.06,32328.3,35710.0,1.204,1.2241,142.4,98.5,0.461
40.08,32370.9,35772.1,1.2067,1.2277,142.4,98.5,0.461
40.1,32151.6,35421.7,1.1928,1.2074,142.4,98.5,0.461
40.12,32129.2,35279.8,1.1913,1.1991,142.4,98.5,0.461
40.14,32085.8,35264.8,1.1886,1.1983,142.4,98.5,0.461
40.16,32036.9,35130.2,1.1855,1.1905,142.4,98.5,0.461
40.18,31983.8,35064.7,1.1821,1.1867,142.4,98.5,0.461
40.2,31958.0,35029.5,1.1805,1.1846,142.4,98.5,0.461
40.22,31946.4,34916.6,1.1798,1.1781,142.4,98.5,0.461
40.24,31984.7,34731.9,1.1822,1.1674,142.4,98.5,0.461
40.26,31834.9,34754.4,1.1727,1.1687,142.4,98.5,0.461
40.28,31864.9,34642.1,1.1746,1.1622,142.4,98.5,0.461
40.3,31886.2,34663.4,1.1759,1.1634,142.4,98.5,0.461
40.32,31887.9,34597.4,1.176,1.1596,142.4,98.5,0.461
40.34,31891.9,34520.9,1.1763,1.1552,142.4,98.5,0.461
40.36,31796.1,34500.4,1.1702,1.154,142.4,98.5,0.461
40.38,31730.9,34520.2,1.1661,1.1551,142.4,98.5,0.461
40.4,31791.7,34592.3,1.1699,1.1593,142.4,98.5,0.461
40.42,31925.2,34869.3,1.1784,1.1754,142.4,98.5,0.461
40.44,32182.9,35266.8,1.1947,1.1984,142.4,98.5,0.461
40.46,32248.2,35548.6,1.1989,1.2147,142.4,98.5,0.461
40.48,32248.8,35848.2,1.1989,1.2321,142.4,98.5,0.461
40.5,32340.8,35706.7,1.2047,1.2239,142.4,98.5,0.461
40.52,32247.4,35597.3,1.1988,1.2175,142.4,98.5,0.461
40.54,32194.6,35411.3,1.1955,1.2068,142.4,98.5,0.461
40.56,32104.1,35174.5,1.1897,1.193,142.4,98.5,0.461
40.58,32004.9,35170.0,1.1835,1.1928,142.4,98.5,0.461
40.6,32136.3,35009.8,1.1918,1.1835,142.4,98.5,0.461
40.62,32001.5,34970.3,1.1832,1.1812,142.4,98.5,0.461
40.64,32016.6,34985.6,1.1842,1.1821,142.4,98.5,0.461
40.66,31963.2,34881.5,1.1808,1.1761,142.4,98.5,0.461
40.68,31851.0,34659.1,1.1737,1.1632,142.4,98.5,0.461
40.7,31921.1,34722.8,1.1782,1.1669,142.4,98.5,0.461
40.72,31811.7,34586.9,1.1712,1.159,142.4,98.5,0.461
40.74,31911.6,34584.5,1.1775,1.1589,142.4,98.5,0.461
40.76,31835.9,34534.4,1.1728,1.156,142.4,98.5,0.461
40.78,31850.7,34422.8,1.1737,1.1495,142.4,98.5,0.461
40.8,31736.6,34411.0,1.1665,1.1488,142.4,98.5,0.461
40.82,31696.9,34543.5,1.1639,1.1565,142.4,98.5,0.461
40.84,31968.4,34793.6,1.1811,1.171,142.4,98.5,0.461
40.86,32126.4,35204.5,1.1912,1.1948,142.4,98.5,0.461
40.88,32152.5,35499.2,1.1928,1.2119,142.4,98.5,0.461
40.9,32332.2,35701.1,1.2042,1.2236,142.4,98.5,0.461
40.92,32389.9,35684.1,1.2079,1.2226,142.4,98.5,0.461
40.94,32303.7,35453.8,1.2024,1.2092,142.4,98.5,0.461
40.96,32133.0,35422.1,1.1916,1.2074,142.4,98.5,0.461
40.98,32148.1,35203.2,1.1925,1.1947,142.4,98.5,0.461
41.0,32016.8,35117.0,1.1842,1.1897,142.4,98.5,0.461
41.02,32027.5,35056.0,1.1849,1.1862,142.4,98.5,0.461
41.04,31962.8,35028.2,1.1808,1.1846,142.4,98.5,0.461
41.06,32067.1,34844.6,1.1874,1.1739,142.4,98.5,0.461
41.08,31942.9,34782.1,1.1795,1.1703,142.4,98.5,0.461
41.1,31797.2,34666.4,1.1703,1.1636,142.4,98.5,0.461
41.12,31868.0,34743.7,1.1748,1.1681,142.4,98.5,0.461
41.14,31894.8,34650.4,1.1765,1.1627,142.4,98.5,0.461
41.16,31799.7,34621.9,1.1705,1.161,142.4,98.5,0.461
41.18,31901.6,34515.7,1.1769,1.1549,142.4,98.5,0.461
41.2,31773.9,34398.7,1.1688,1.1481,142.4,98.5,0.461
41.22,31747.8,34425.3,1.1672,1.1496,142.4,98.5,0.461
41.24,31785.6,34599.6,1.1696,1.1597,142.4,98.5,0.461
41.26,31849.9,34770.0,1.1736,1.1696,142.4,98.5,0.461
41.28,32072.8,35217.3,1.1878,1.1955,142.4,98.5,0.461
41.3,32253.2,35640.2,1.1992,1.22,142.4,98.5,0.461
41.32,32358.8,35835.8,1.2059,1.2314,142.4,98.5,0.461
41.34,32324.4,35711.2,1.2037,1.2241,142.4,98.5,0.461
41.36,32200.3,35512.4,1.1958,1.2126,142.4,98.5,0.461
41.38,32228.1,35422.4,1.1976,1.2074,142.4,98.5,0.461
41.4,32119.0,35151.3,1.1907,1.1917,142.4,98.5,0.461
41.42,32044.9,35234.5,1.186,1.1965,142.4,98.5,0.461
41.44,31998.4,35079.8,1.1831,1.1876,142.4,98.5,0.461
41.46,31985.1,35109.2,1.1822,1.1893,142.4,98.5,0.461
41.48,31945.9,34947.5,1.1797,1.1799,142.4,98.5,0.461
41.5,31989.8,34821.4,1.1825,1.1726,142.4,98.5,0.461
41.52,31954.1,34608.0,1.1802,1.1602,142.4,98.5,0.461
41.54,31847.2,34682.5,1.1735,1.1645,142.4,98.5,0.461
41.56,31898.5,34649.5,1.1767,1.1626,142.4,98.5,0.461
41.58,31807.1,34642.8,1.1709,1.1622,142.4,98.5,0.461
41.6,31853.2,34469.5,1.1738,1.1522,142.4,98.5,0.461
41.62,31768.3,34468.8,1.1685,1.1522,142.4,98.5,0.461
41.64,31746.3,34418.5,1.1671,1.1492,142.4,98.5,0.461
41.66,31824.1,34511.9,1.172,1.1547,142.4,98.5,0.461
41.68,31928.3,34850.2,1.1786,1.1743,142.4,98.5,0.461
41.7,31999.4,35137.4,1.1831,1.1909,142.4,98.5,0.461
41.72,32124.5,35519.5,1.191,1.213,142.4,98.5,0.461
41.74,32285.3,35759.2,1.2012,1.2269,142.4,98.5,0.461
41.76,32315.5,35699.4,1.2031,1.2235,142.4,98.5,0.461
41.78,32273.1,35557.3,1.2005,1.2152,142.4,98.5,0.461
41.8,32222.4,35381.2,1.1972,1.205,142.4,98.5,0.461
41.82,32116.2,35355.7,1.1905,1.2035,142.4,98.5,0.461
41.84,31993.4,35131.1,1.1827,1.1905,142.4,98.5,0.461
41.86,32081.6,35105.7,1.1883,1.1891,142.4,98.5,0.461
41.88,31995.9,34998.3,1.1829,1.1828,142.4,98.5,0.461
41.9,31884.2,34922.8,1.1758,1.1785,142.4,98.5,0.461
41.92,31903.9,34809.0,1.1771,1.1719,142.4,98.5,0.461
41.94,31910.6,34732.4,1.1775,1.1674,142.4,98.5,0.461
41.96,31877.0,34613.2,1.1754,1.1605,142.4,98.5,0.461
41.98,31897.0,34688.4,1.1766,1.1649,142.4,98.5,0.461
42.0,31883.9,34652.5,1.1758,1.1628,142.4,98.5,0.461
42.02,31846.8,34501.5,1.1734,1.1541,142.4,98.5,0.461
42.04,31768.5,34460.3,1.1685,1.1517,142.4,98.5,0.461
42.06,31791.5,34524.6,1.1699,1.1554,142.4,98.5,0.461
42.08,31764.3,34581.5,1.1682,1.1587,142.4,98.5,0.461
42.1,31894.3,34850.3,1.1765,1.1743,142.4,98.5,0.461
42.12,31976.8,35037.9,1.1817,1.1851,142.4,98.5,0.461
42.14,32119.9,35512.8,1.1907,1.2126,142.4,98.5,0.461
42.16,32329.5,35709.5,1.204,1.224,142.4,98.5,0.461
42.18,32282.9,35787.0,1.2011,1.2285,142.4,98.5,0.461
42.2,32379.8,35625.6,1.2072,1.2192,142.4,98.5,0.461
42.22,32124.4,35444.8,1.191,1.2087,142.4,98.5,0.461
42.24,32194.7,35211.7,1.1955,1.1952,142.4,98.5,0.461
42.26,32141.0,35052.8,1.1921,1.186,142.4,98.5,0.461
42.28,32002.3,35064.1,1.1833,1.1867,142.4,98.5,0.461
42.3,32017.0,35026.3,1.1842,1.1845,142.4,98.5,0.461
42.32,31999.9,34862.2,1.1831,1.1749,142.4,98.5,0.461
42.34,31903.9,34871.8,1.1771,1.1755,142.4,98.5,0.461
42.36,31884.6,34779.3,1.1758,1.1701,142.4,98.5,0.461
42.38,31827.8,34729.6,1.1722,1.1673,142.4,98.5,0.461
42.4,31764.5,34682.8,1.1682,1.1646,142.4,98.5,0.461
42.42,31876.3,34678.5,1.1753,1.1643,142.4,98.5,0.461
42.44,31766.1,34521.4,1.1683,1.1552,142.4,98.5,0.461
42.46,31700.4,34536.9,1.1642,1.1561,142.4,98.5,0.461
42.48,31839.3,34363.6,1.173,1.1461,142.4,98.5,0.461
42.5,31756.3,34513.9,1.1677,1.1548,142.4,98.5,0.461
42.52,31966.0,34774.6,1.181,1.1699,142.4,98.5,0.461
42.54,32090.6,35120.7,1.1889,1.1899,142.4,98.5,0.461
42.56,32239.5,35480.7,1.1983,1.2108,142.4,98.5,0.461
42.58,32393.5,35686.7,1.2081,1.2227,142.4,98.5,0.461
42.6,32380.6,35720.3,1.2073,1.2247,142.4,98.5,0.461
42.62,32306.7,35635.3,1.2026,1.2197,142.4,98.5,0.461
42.64,32194.0,35421.4,1.1954,1.2074,142.4,98.5,0.461
42.66,32106.9,35228.8,1.1899,1.1962,142.4,98.5,0.461
42.68,32113.1,35125.0,1.1903,1.1902,142.4,98.5,0.461
42.7,31959.2,35110.7,1.1806,1.1893,142.4,98.5,0.461
42.72,32018.0,35051.4,1.1843,1.1859,142.4,98.5,0.461
42.74,32012.1,34905.5,1.1839,1.1775,142.4,98.5,0.461
42.76,31968.4,34814.9,1.1811,1.1722,142.4,98.5,0.461
42.78,31857.6,34668.4,1.1741,1.1637,142.4,98.5,0.461
42.8,31824.4,34646.4,1.172,1.1624,142.4,98.5,0.461
42.82,31869.7,34603.4,1.1749,1.16,142.4,98.5,0.461
42.84,31847.1,34598.7,1.1735,1.1597,142.4,98.5,0.461
42.86,31750.5,34600.1,1.1673,1.1598,142.4,98.5,0.461
42.88,31738.1,34550.2,1.1665,1.1569,142.4,98.5,0.461
42.9,31822.6,34404.2,1.1719,1.1484,142.4,98.5,0.461
42.92,31757.1,34599.0,1.1678,1.1597,142.4,98.5,0.461
42.94,31961.7,34723.5,1.1807,1.1669,142.4,98.5,0.461
42.96,32142.0,35181.4,1.1921,1.1934,142.4,98.5,0.461
42.98,32196.6,35376.1,1.1956,1.2047,142.4,98.5,0.461
43.0,32275.8,35691.9,1.2006,1.223,142.4,98.5,0.461
43.02,32390.4,35766.6,1.2079,1.2274,142.4,98.5,0.461
43.04,32272.6,35582.1,1.2004,1.2167,142.4,98.5,0.461
43.06,32127.6,35519.1,1.1912,1.213,142.4,98.5,0.461
43.08,32107.1,35284.1,1.1899,1.1994,142.4,98.5,0.461
43.1,32115.6,35138.1,1.1905,1.1909,142.4,98.5,0.461
43.12,31999.2,35046.3,1.1831,1.1856,142.4,98.5,0.461
43.14,32039.8,35040.6,1.1857,1.1853,142.4,98.5,0.461
43.16,32036.2,34963.1,1.1854,1.1808,142.4,98.5,0.461
43.18,31892.5,34870.3,1.1763,1.1754,142.4,98.5,0.461
43.2,31866.8,34730.2,1.1747,1.1673,142.4,98.5,0.461
43.22,31829.3,34661.7,1.1723,1.1633,142.4,98.5,0.461
43.24,31853.1,34629.2,1.1738,1.1614,142.4,98.5,0.461
43.26,31930.4,34611.9,1.1787,1.1605,142.4,98.5,0.461
43.28,31862.8,34591.5,1.1745,1.1593,142.4,98.5,0.461
43.3,31757.7,34536.3,1.1678,1.1561,142.4,98.5,0.461
43.32,31787.3,34492.5,1.1697,1.1535,142.4,98.5,0.461
43.34,31697.8,34587.3,1.164,1.159,142.4,98.5,0.461
43.36,31916.1,34674.4,1.1778,1.1641,142.4,98.5,0.461
43.38,31976.9,35099.5,1.1817,1.1887,142.4,98.5,0.461
43.4,32205.2,35399.3,1.1962,1.2061,142.4,98.5,0.461
43.42,32322.1,35747.5,1.2036,1.2262,142.4,98.5,0.461
43.44,32321.9,35690.2,1.2036,1.2229,142.4,98.5,0.461
43.46,32259.2,35673.0,1.1996,1.2219,142.4,98.5,0.461
43.48,32218.2,35410.4,1.197,1.2067,142.4,98.5,0.461
43.5,32127.4,35190.2,1.1912,1.194,142.4,98.5,0.461
43.52,32097.0,35181.8,1.1893,1.1935,142.4,98.5,0.461
43.54,32057.0,35077.4,1.1868,1.1874,142.4,98.5,0.461
43.56,32089.7,35018.9,1.1888,1.184,142.4,98.5,0.461
43.58,31991.9,34947.3,1.1826,1.1799,142.4,98.5,0.461
43.6,31920.1,34798.4,1.1781,1.1713,142.4,98.5,0.461
43.62,31959.2,34708.8,1.1806,1.1661,142.4,98.5,0.461
43.64,31933.5,34739.1,1.1789,1.1678,142.4,98.5,0.461
43.66,31831.6,34642.9,1.1725,1.1622,142.4,98.5,0.461
43.68,31834.2,34655.7,1.1726,1.163,142.4,98.5,0.461
43.7,31820.1,34492.0,1.1717,1.1535,142.4,98.5,0.461
43.72,31877.7,34525.6,1.1754,1.1554,142.4,98.5,0.461
43.74,31826.0,34458.4,1.1721,1.1516,142.4,98.5,0.461
43.76,31790.0,34471.2,1.1698,1.1523,142.4,98.5,0.461
43.78,31781.7,34698.2,1.1693,1.1654,142.4,98.5,0.461
43.8,32043.6,35091.6,1.1859,1.1882,142.4,98.5,0.461
43.82,32139.6,35316.9,1.192,1.2013,142.4,98.5,0.461
43.84,32260.8,35709.7,1.1997,1.2241,142.4,98.5,0.461
43.86,32401.9,35733.4,1.2086,1.2254,142.4,98.5,0.461
43.88,32345.6,35680.2,1.2051,1.2223,142.4,98.5,0.461
43.9,32139.8,35445.4,1.192,1.2087,142.4,98.5,0.461
43.92,32114.1,35256.7,1.1904,1.1978,142.4,98.5,0.461
43.94,32029.6,35162.6,1.185,1.1924,142.4,98.5,0.461
43.96,32040.3,35076.5,1.1857,1.1874,142.4,98.5,0.461
43.98,31964.7,35028.3,1.1809,1.1846,142.4,98.5,0.461
44.0,32047.3,34896.8,1.1861,1.177,142.4,98.5,0.461
44.02,31857.0,34897.3,1.1741,1.177,142.4,98.5,0.461
44.04,31946.0,34743.3,1.1797,1.1681,142.4,98.5,0.461
44.06,31760.1,34646.5,1.1679,1.1625,142.4,98.5,0.461
44.08,31884.0,34660.0,1.1758,1.1632,142.4,98.5,0.461
44.1,31891.2,34617.8,1.1763,1.1608,142.4,98.5,0.461
44.12,31851.7,34637.5,1.1738,1.1619,142.4,98.5,0.461
44.14,31824.2,34563.5,1.172,1.1576,142.4,98.5,0.461
44.16,31684.6,34458.6,1.1632,1.1516,142.4,98.5,0.461
44.18,31800.7,34486.3,1.1705,1.1532,142.4,98.5,0.461
44.2,31842.7,34755.0,1.1732,1.1687,142.4,98.5,0.461
44.22,32054.3,35007.6,1.1866,1.1834,142.4,98.5,0.461
44.24,32184.1,35434.4,1.1948,1.2081,142.4,98.5,0.461
44.26,32272.4,35728.9,1.2004,1.2252,142.4,98.5,0.461
44.28,32354.4,35722.8,1.2056,1.2248,142.4,98.5,0.461
44.3,32236.4,35665.5,1.1981,1.2215,142.4,98.5,0.461
44.32,32221.7,35547.6,1.1972,1.2147,142.4,98.5,0.461
44.34,32124.1,35410.7,1.191,1.2067,142.4,98.5,0.461
44.36,32149.2,35184.0,1.1926,1.1936,142.4,98.5,0.461
44.38,32036.2,35103.5,1.1854,1.1889,142.4,98.5,0.461
44.4,31983.0,35033.8,1.1821,1.1849,142.4,98.5,0.461
44.42,31992.5,34977.2,1.1827,1.1816,142.4,98.5,0.461
44.44,31947.3,34752.5,1.1798,1.1686,142.4,98.5,0.461
44.46,31977.8,34778.5,1.1817,1.1701,142.4,98.5,0.461
44.48,31896.5,34717.5,1.1766,1.1666,142.4,98.5,0.461
44.5,31875.4,34565.0,1.1753,1.1577,142.4,98.5,0.461
44.52,31807.7,34660.0,1.171,1.1632,142.4,98.5,0.461
44.54,31839.6,34610.2,1.173,1.1603,142.4,98.5,0.461
44.56,31780.6,34509.2,1.1692,1.1545,142.4,98.5,0.461
44.58,31812.4,34457.0,1.1713,1.1515,142.4,98.5,0.461
44.6,31774.6,34558.4,1.1689,1.1573,142.4,98.5,0.461
44.62,31892.7,34668.3,1.1763,1.1637,142.4,98.5,0.461
44.64,32014.4,34988.4,1.1841,1.1823,142.4,98.5,0.461
44.66,32152.8,35356.8,1.1928,1.2036,142.4,98.5,0.461
44.68,32298.8,35734.6,1.2021,1.2255,142.4,98.5,0.461
44.7,32351.3,35735.0,1.2054,1.2255,142.4,98.5,0.461
44.72,32289.9,35643.0,1.2015,1.2202,142.4,98.5,0.461
44.74,32249.6,35469.5,1.199,1.2101,142.4,98.5,0.461
44.76,32183.5,35336.1,1.1948,1.2024,142.4,98.5,0.461
44.78,32063.5,35156.5,1.1872,1.192,142.4,98.5,0.461
44.8,32034.6,35088.1,1.1853,1.188,142.4,98.5,0.461
44.82,32001.8,35060.0,1.1833,1.1864,142.4,98.5,0.461
44.84,31926.2,34892.3,1.1785,1.1767,142.4,98.5,0.461
44.86,31944.9,34840.4,1.1797,1.1737,142.4,98.5,0.461
44.88,31874.4,34776.9,1.1752,1.17,142.4,98.5,0.461
44.9,31871.5,34694.2,1.175,1.1652,142.4,98.5,0.461
44.92,31851.9,34673.5,1.1738,1.164,142.4,98.5,0.461
44.94,31829.2,34641.1,1.1723,1.1621,142.4,98.5,0.461
44.96,31833.8,34693.4,1.1726,1.1652,142.4,98.5,0.461
44.98,31722.5,34456.6,1.1656,1.1514,142.4,98.5,0.461
45.0,31824.9,34494.0,1.1721,1.1536,142.4,98.5,0.461
45.02,31833.7,34469.4,1.1726,1.1522,142.4,98.5,0.461
45.04,32038.4,34690.7,1.1856,1.165,142.4,98.5,0.461
45.06,32042.9,35022.5,1.1859,1.1842,142.4,98.5,0.461
45.08,32146.4,35373.9,1.1924,1.2046,142.4,98.5,0.461
45.1,32343.1,35660.6,1.2049,1.2212,142.4,98.5,0.461
45.12,32320.2,35736.4,1.2034,1.2256,142.4,98.5,0.461
45.14,32194.7,35595.3,1.1955,1.2174,142.4,98.5,0.461
45.16,32263.6,35527.9,1.1999,1.2135,142.4,98.5,0.461
45.18,32145.2,35307.5,1.1924,1.2008,142.4,98.5,0.461
45.2,32049.7,35267.2,1.1863,1.1984,142.4,98.5,0.461
45.22,31951.1,35122.8,1.18,1.1901,142.4,98.5,0.461
45.24,32003.2,35088.1,1.1834,1.188,142.4,98.5,0.461
45.26,31955.1,34960.3,1.1803,1.1806,142.4,98.5,0.461
45.28,31959.4,34821.7,1.1806,1.1726,142.4,98.5,0.461
45.3,31895.0,34753.3,1.1765,1.1686,142.4,98.5,0.461
45.32,31868.0,34757.4,1.1748,1.1689,142.4,98.5,0.461
45.34,31875.8,34677.4,1.1753,1.1642,142.4,98.5,0.461
45.36,31955.3,34727.7,1.1803,1.1672,142.4,98.5,0.461
45.38,31831.4,34603.2,1.1725,1.1599,142.4,98.5,0.461
45.4,31858.6,34643.2,1.1742,1.1623,142.4,98.5,0.461
45.42,31838.7,34479.7,1.1729,1.1528,142.4,98.5,0.461
45.44,31701.1,34476.3,1.1642,1.1526,142.4,98.5,0.461
45.46,31828.5,34635.8,1.1723,1.1618,142.4,98.5,0.461
45.48,32007.9,34943.0,1.1837,1.1796,142.4,98.5,0.461
45.5,32236.0,35371.0,1.1981,1.2044,142.4,98.5,0.461
45.52,32327.8,35652.8,1.2039,1.2208,142.4,98.5,0.461
45.54,32371.7,35654.0,1.2067,1.2208,142.4,98.5,0.461
45.56,32331.9,35572.3,1.2042,1.2161,142.4,98.5,0.461
45.58,32288.8,35498.1,1.2015,1.2118,142.4,98.5,0.461
45.6,32058.4,35385.1,1.1869,1.2052,142.4,98.5,0.461
45.62,32030.9,35142.3,1.1851,1.1912,142.4,98.5,0.461
45.64,32043.1,35029.3,1.1859,1.1846,142.4,98.5,0.461
45.66,32075.2,35097.7,1.1879,1.1886,142.4,98.5,0.461
45.68,31971.8,34956.6,1.1814,1.1804,142.4,98.5,0.461
45.7,31849.9,34900.9,1.1736,1.1772,142.4,98.5,0.461
45.72,31817.9,34674.0,1.1716,1.164,142.4,98.5,0.461
45.74,31870.1,34712.6,1.1749,1.1663,142.4,98.5,0.461
45.76,31841.5,34659.0,1.1731,1.1632,142.4,98.5,0.461
45.78,31824.3,34621.9,1.172,1.161,142.4,98.5,0.461
