timestamp,raw_red,raw_ir,filtered_red,filtered_ir,heart_rate,spo2,ac_dc_ratio
0.0,32127.3,35259.1,0.4921,0.636,146.8,97.2,0.514
0.02,32242.1,35512.2,0.9354,1.258,146.8,97.2,0.514
0.04,32338.8,35753.4,1.3084,1.8507,146.8,97.2,0.514
0.06,32437.4,35740.6,1.6888,1.8193,146.8,97.2,0.514
0.08,32207.4,35647.8,0.8014,1.5913,146.8,97.2,0.514
0.1,32173.4,35401.6,0.67,0.9863,146.8,97.2,0.514
0.12,32100.1,35130.2,0.3875,0.3192,146.8,97.2,0.514
0.14,31943.3,35147.5,-0.2177,0.3617,146.8,97.2,0.514
0.16,32045.7,35062.3,0.1773,0.1524,146.8,97.2,0.514
0.18,31873.3,35106.3,-0.4878,0.2605,146.8,97.2,0.514
0.2,31958.0,34948.6,-0.1609,-0.127,146.8,97.2,0.514
0.22,31829.7,34783.2,-0.6562,-0.5336,146.8,97.2,0.514
0.24,31887.9,34745.4,-0.4315,-0.6265,146.8,97.2,0.514
0.26,31870.7,34645.1,-0.4979,-0.8731,146.8,97.2,0.514
0.28,31830.8,34674.6,-0.6517,-0.8005,146.8,97.2,0.514
0.3,31822.2,34634.6,-0.685,-0.8988,146.8,97.2,0.514
0.32,31767.8,34519.7,-0.8948,-1.1812,146.8,97.2,0.514
0.34,31801.5,34479.6,-0.765,-1.2797,146.8,97.2,0.514
0.36,31893.6,34390.5,-0.4094,-1.4988,146.8,97.2,0.514
0.38,31802.6,34694.3,-0.7607,-0.752,146.8,97.2,0.514
0.4,32016.6,35030.8,0.0652,0.0749,146.8,97.2,0.514
0.42,32223.3,35422.6,0.8627,1.0378,146.8,97.2,0.514
0.44,32327.4,35672.9,1.2645,1.6529,146.8,97.2,0.514
0.46,32400.5,35742.2,1.5466,1.8234,146.8,97.2,0.514
0.48,32293.8,35636.3,1.1349,1.5631,146.8,97.2,0.514
0.5,32227.4,35466.4,0.8785,1.1454,146.8,97.2,0.514
0.52,32143.3,35185.8,0.5538,0.4557,146.8,97.2,0.514
0.54,31999.0,35173.6,-0.0029,0.4258,146.8,97.2,0.514
0.56,31964.1,35168.1,-0.1373,0.4123,146.8,97.2,0.514
0.58,32027.4,35180.5,0.1069,0.4428,146.8,97.2,0.514
0.6,31999.7,34943.3,-0.0002,-0.1402,146.8,97.2,0.514
0.62,31888.5,34765.2,-0.4292,-0.5778,146.8,97.2,0.514
0.64,31864.3,34797.3,-0.5226,-0.4989,146.8,97.2,0.514
0.66,31835.2,34698.3,-0.6347,-0.7423,146.8,97.2,0.514
0.68,31775.5,34722.3,-0.8655,-0.6832,146.8,97.2,0.514
0.7,31861.2,34622.8,-0.5344,-0.9278,146.8,97.2,0.514
0.72,31805.1,34562.5,-0.7509,-1.076,146.8,97.2,0.514
0.74,31723.8,34425.2,-1.0647,-1.4135,146.8,97.2,0.514
0.76,31753.2,34395.8,-0.9515,-1.4858,146.8,97.2,0.514
0.78,31836.9,34577.9,-0.6283,-1.0382,146.8,97.2,0.514
0.8,31873.4,34871.0,-0.4876,-0.3177,146.8,97.2,0.514
0.82,32068.8,35235.0,0.2664,0.5768,146.8,97.2,0.514
0.84,32279.8,35585.4,1.0805,1.4379,146.8,97.2,0.514
0.86,32388.8,35804.5,1.5014,1.9763,146.8,97.2,0.514
0.88,32357.0,35723.8,1.3788,1.7781,146.8,97.2,0.514
0.9,32205.8,35498.2,0.7952,1.2236,146.8,97.2,0.514
0.92,32201.0,35292.6,0.7768,0.7182,146.8,97.2,0.514
0.94,32087.6,35283.2,0.3389,0.6953,146.8,97.2,0.514
0.96,32035.2,35113.3,0.1369,0.2776,146.8,97.2,0.514
0.98,32075.0,35074.2,0.2903,0.1816,146.8,97.2,0.514
1.0,32012.7,34932.5,0.05,-0.1668,146.8,97.2,0.514
1.02,31960.6,34918.2,-0.1509,-0.2017,146.8,97.2,0.514
1.04,31897.1,34746.0,-0.3962,-0.625,146.8,97.2,0.514
1.06,31808.4,34728.9,-0.7385,-0.6671,146.8,97.2,0.514
1.08,31883.1,34604.3,-0.4501,-0.9732,146.8,97.2,0.514
1.1,31880.4,34587.9,-0.4603,-1.0135,146.8,97.2,0.514
1.12,31846.6,34622.3,-0.5907,-0.929,146.8,97.2,0.514
1.14,31799.5,34497.7,-0.7728,-1.2353,146.8,97.2,0.514
1.16,31781.6,34493.2,-0.8417,-1.2463,146.8,97.2,0.514
1.18,31638.0,34594.0,-1.396,-0.9987,146.8,97.2,0.514
1.2,31845.0,34723.7,-0.5972,-0.6798,146.8,97.2,0.514
1.22,32044.6,35081.3,0.1733,0.1991,146.8,97.2,0.514
1.24,32217.3,35369.3,0.8396,0.9067,146.8,97.2,0.514
1.26,32404.4,35622.7,1.5617,1.5295,146.8,97.2,0.514
1.28,32420.3,35707.4,1.6229,1.7378,146.8,97.2,0.514
1.3,32360.1,35643.8,1.3905,1.5815,146.8,97.2,0.514
1.32,32214.1,35396.7,0.8271,0.9741,146.8,97.2,0.514
1.34,32103.4,35185.0,0.3999,0.4539,146.8,97.2,0.514
1.36,32024.9,35139.5,0.097,0.3422,146.8,97.2,0.514
1.38,32016.8,35156.2,0.0659,0.3831,146.8,97.2,0.514
1.4,32001.5,35061.2,0.0068,0.1496,146.8,97.2,0.514
1.42,31931.5,34893.9,-0.2633,-0.2616,146.8,97.2,0.514
1.44,31910.9,34878.4,-0.3429,-0.2997,146.8,97.2,0.514
1.46,31853.5,34753.5,-0.5644,-0.6066,146.8,97.2,0.514
1.48,31862.4,34672.8,-0.5299,-0.805,146.8,97.2,0.514
1.5,31801.8,34616.7,-0.7637,-0.9428,146.8,97.2,0.514
1.52,31809.9,34640.3,-0.7326,-0.8847,146.8,97.2,0.514
1.54,31785.1,34526.3,-0.8283,-1.165,146.8,97.2,0.514
1.56,31733.6,34529.9,-1.0268,-1.156,146.8,97.2,0.514
1.58,31743.3,34424.4,-0.9895,-1.4155,146.8,97.2,0.514
1.6,31746.2,34625.0,-0.9784,-0.9224,146.8,97.2,0.514
1.62,31853.5,34897.8,-0.5642,-0.2519,146.8,97.2,0.514
1.64,32071.1,35321.0,0.2756,0.7881,146.8,97.2,0.514
1.66,32364.6,35634.8,1.4081,1.5593,146.8,97.2,0.514
1.68,32254.8,35733.9,0.9844,1.803,146.8,97.2,0.514
1.7,32268.7,35711.3,1.0378,1.7472,146.8,97.2,0.514
1.72,32258.2,35410.6,0.9974,1.0084,146.8,97.2,0.514
1.74,32171.0,35219.1,0.6608,0.5376,146.8,97.2,0.514
1.76,32118.3,35259.9,0.4577,0.6378,146.8,97.2,0.514
1.78,32023.8,35088.3,0.0927,0.2161,146.8,97.2,0.514
1.8,31982.2,35042.9,-0.0675,0.1047,146.8,97.2,0.514
1.82,31901.7,35041.2,-0.3784,0.1004,146.8,97.2,0.514
1.84,31927.9,34927.0,-0.2771,-0.1801,146.8,97.2,0.514
1.86,31909.2,34784.9,-0.3495,-0.5294,146.8,97.2,0.514
1.88,31882.0,34659.4,-0.4545,-0.8378,146.8,97.2,0.514
1.9,31914.8,34712.0,-0.3277,-0.7085,146.8,97.2,0.514
1.92,31867.5,34715.6,-0.5101,-0.6996,146.8,97.2,0.514
1.94,31741.1,34534.5,-0.9982,-1.1448,146.8,97.2,0.514
1.96,31766.2,34459.8,-0.9011,-1.3285,146.8,97.2,0.514
1.98,31760.1,34451.2,-0.9247,-1.3496,146.8,97.2,0.514
2.0,31736.4,34584.3,-1.0163,-1.0223,146.8,97.2,0.514
2.02,31891.3,34742.4,-0.4184,-0.634,146.8,97.2,0.514
2.04,32134.9,35125.0,0.5217,0.3064,146.8,97.2,0.514
2.06,32228.0,35553.1,0.881,1.3586,146.8,97.2,0.514
2.08,32430.1,35756.2,1.6606,1.8576,146.8,97.2,0.514
2.1,32351.1,35746.2,1.3559,1.833,146.8,97.2,0.514
2.12,32213.9,35628.0,0.8265,1.5427,146.8,97.2,0.514
2.14,32204.1,35388.5,0.7886,0.9539,146.8,97.2,0.514
2.16,32090.1,35263.0,0.3488,0.6456,146.8,97.2,0.514
2.18,32117.9,35120.4,0.4559,0.295,146.8,97.2,0.514
2.2,31975.4,35170.0,-0.094,0.4169,146.8,97.2,0.514
2.22,32010.3,35015.5,0.0409,0.0372,146.8,97.2,0.514
2.24,32031.2,34891.3,0.1215,-0.2679,146.8,97.2,0.514
2.26,31964.9,34759.2,-0.1343,-0.5925,146.8,97.2,0.514
2.28,31862.1,34783.1,-0.5309,-0.5338,146.8,97.2,0.514
2.3,31829.2,34701.6,-0.658,-0.7342,146.8,97.2,0.514
2.32,31751.4,34552.0,-0.9584,-1.1019,146.8,97.2,0.514
2.34,31792.1,34675.6,-0.8013,-0.798,146.8,97.2,0.514
2.36,31799.3,34487.4,-0.7736,-1.2605,146.8,97.2,0.514
2.38,31697.5,34394.3,-1.1661,-1.4894,146.8,97.2,0.514
2.4,31734.8,34428.6,-1.0225,-1.405,146.8,97.2,0.514
2.42,31872.7,34532.8,-0.4903,-1.149,146.8,97.2,0.514
2.44,31997.2,35027.8,-0.0099,0.0677,146.8,97.2,0.514
2.46,32132.5,35316.1,0.5123,0.7761,146.8,97.2,0.514
2.48,32266.8,35628.0,1.0306,1.5426,146.8,97.2,0.514
2.5,32474.0,35815.7,1.8303,2.0039,146.8,97.2,0.514
2.52,32344.3,35745.5,1.3297,1.8315,146.8,97.2,0.514
2.54,32270.8,35468.7,1.0459,1.1511,146.8,97.2,0.514
2.56,32164.3,35333.9,0.635,0.8197,146.8,97.2,0.514
2.58,32008.4,35259.7,0.0336,0.6375,146.8,97.2,0.514
2.6,32025.4,35238.8,0.0989,0.5861,146.8,97.2,0.514
2.62,31999.6,35086.7,-0.0006,0.2122,146.8,97.2,0.514
2.64,32069.8,35007.0,0.2704,0.0165,146.8,97.2,0.514
2.66,31988.5,34758.4,-0.0432,-0.5945,146.8,97.2,0.514
2.68,31893.1,34695.8,-0.4116,-0.7483,146.8,97.2,0.514
2.7,31880.0,34672.2,-0.462,-0.8065,146.8,97.2,0.514
2.72,31840.9,34623.0,-0.6128,-0.9275,146.8,97.2,0.514
2.74,31895.1,34643.8,-0.4036,-0.8763,146.8,97.2,0.514
2.76,31817.3,34543.4,-0.7039,-1.123,146.8,97.2,0.514
2.78,31756.8,34512.6,-0.9373,-1.1986,146.8,97.2,0.514
2.8,31711.7,34478.8,-1.1114,-1.2817,146.8,97.2,0.514
2.82,31796.7,34602.3,-0.7835,-0.9781,146.8,97.2,0.514
2.84,31933.1,34747.6,-0.2573,-0.6212,146.8,97.2,0.514
2.86,32096.1,35057.6,0.3719,0.1408,146.8,97.2,0.514
2.88,32228.6,35452.4,0.8833,1.1111,146.8,97.2,0.514
2.9,32416.9,35720.9,1.6096,1.771,146.8,97.2,0.514
2.92,32336.5,35758.6,1.2995,1.8635,146.8,97.2,0.514
2.94,32305.2,35611.4,1.1788,1.5017,146.8,97.2,0.514
2.96,32155.1,35373.5,0.5994,0.9171,146.8,97.2,0.514
2.98,32057.7,35202.6,0.2236,0.497,146.8,97.2,0.514
3.0,32129.2,35064.4,0.4998,0.1575,146.8,97.2,0.514
3.02,31955.8,35011.2,-0.1697,0.0268,146.8,97.2,0.514
3.04,32059.0,35126.7,0.2286,0.3105,146.8,97.2,0.514
3.06,31941.4,34919.2,-0.2252,-0.1993,146.8,97.2,0.514
3.08,31933.8,34779.6,-0.2545,-0.5424,146.8,97.2,0.514
3.1,31814.7,34804.6,-0.7139,-0.4809,146.8,97.2,0.514
3.12,31793.5,34633.1,-0.7958,-0.9026,146.8,97.2,0.514
3.14,31768.1,34700.2,-0.8937,-0.7375,146.8,97.2,0.514
3.16,31874.0,34629.9,-0.4851,-0.9104,146.8,97.2,0.514
3.18,31716.2,34597.9,-1.0943,-0.9891,146.8,97.2,0.514
3.2,31824.4,34449.3,-0.6767,-1.3542,146.8,97.2,0.514
3.22,31840.6,34416.8,-0.6143,-1.4342,146.8,97.2,0.514
3.24,31802.7,34621.5,-0.7603,-0.9311,146.8,97.2,0.514
3.26,31980.6,34992.3,-0.0739,-0.0196,146.8,97.2,0.514
3.28,32167.2,35416.1,0.6461,1.0219,146.8,97.2,0.514
3.3,32306.6,35715.9,1.1842,1.7586,146.8,97.2,0.514
3.32,32375.6,35748.2,1.4505,1.838,146.8,97.2,0.514
3.34,32281.0,35655.4,1.0852,1.61,146.8,97.2,0.514
3.36,32224.4,35498.7,0.867,1.2249,146.8,97.2,0.514
3.38,32092.6,35272.3,0.3583,0.6684,146.8,97.2,0.514
3.4,32126.7,35141.5,0.4901,0.3471,146.8,97.2,0.514
3.42,32012.3,35137.2,0.0484,0.3365,146.8,97.2,0.514
3.44,31994.8,35037.6,-0.0189,0.0917,146.8,97.2,0.514
3.46,31937.9,34983.6,-0.2384,-0.0411,146.8,97.2,0.514
3.48,31897.8,34817.9,-0.3935,-0.4484,146.8,97.2,0.514
3.5,31893.1,34852.7,-0.4114,-0.3627,146.8,97.2,0.514
3.52,31875.1,34710.2,-0.4809,-0.7129,146.8,97.2,0.514
3.54,31803.5,34637.5,-0.7572,-0.8918,146.8,97.2,0.514
3.56,31922.4,34685.6,-0.2982,-0.7735,146.8,97.2,0.514
3.58,31843.3,34597.3,-0.6038,-0.9906,146.8,97.2,0.514
3.6,31809.7,34557.5,-0.7334,-1.0883,146.8,97.2,0.514
3.62,31662.7,34365.9,-1.3004,-1.5591,146.8,97.2,0.514
3.64,31782.8,34555.9,-0.8371,-1.0922,146.8,97.2,0.514
3.66,31894.9,34771.0,-0.4044,-0.5636,146.8,97.2,0.514
3.68,32114.6,35193.2,0.4432,0.474,146.8,97.2,0.514
3.7,32278.4,35536.0,1.0754,1.3165,146.8,97.2,0.514
3.72,32306.4,35748.3,1.1832,1.8383,146.8,97.2,0.514
3.74,32313.6,35710.2,1.2112,1.7447,146.8,97.2,0.514
3.76,32337.7,35581.2,1.3041,1.4277,146.8,97.2,0.514
3.78,32114.4,35316.5,0.4425,0.777,146.8,97.2,0.514
3.8,32090.7,35228.6,0.3511,0.5611,146.8,97.2,0.514
3.82,32053.7,34995.2,0.2084,-0.0127,146.8,97.2,0.514
3.84,31974.8,35071.7,-0.0961,0.1754,146.8,97.2,0.514
3.86,32016.9,35031.1,0.0663,0.0756,146.8,97.2,0.514
3.88,31986.7,34946.2,-0.0501,-0.1329,146.8,97.2,0.514
3.9,31901.8,34794.5,-0.3778,-0.5059,146.8,97.2,0.514
3.92,31892.0,34613.5,-0.4157,-0.9507,146.8,97.2,0.514
3.94,31861.6,34694.1,-0.5332,-0.7526,146.8,97.2,0.514
3.96,31959.7,34651.0,-0.1543,-0.8586,146.8,97.2,0.514
3.98,31788.1,34520.1,-0.8167,-1.1801,146.8,97.2,0.514
4.0,31753.9,34473.4,-0.9487,-1.2951,146.8,97.2,0.514
4.02,31722.0,34384.6,-1.0716,-1.5133,146.8,97.2,0.514
4.04,31788.9,34496.1,-0.8135,-1.2392,146.8,97.2,0.514
4.06,31869.6,34726.6,-0.5021,-0.6726,146.8,97.2,0.514
4.08,32100.1,34940.8,0.3872,-0.1463,146.8,97.2,0.514
4.1,32247.3,35391.8,0.9552,0.9622,146.8,97.2,0.514
4.12,32395.7,35649.7,1.528,1.596,146.8,97.2,0.514
4.14,32435.1,35813.7,1.6802,1.9991,146.8,97.2,0.514
4.16,32262.1,35660.0,1.0126,1.6214,146.8,97.2,0.514
4.18,32220.5,35412.8,0.852,1.0138,146.8,97.2,0.514
4.2,32085.5,35194.1,0.3311,0.4762,146.8,97.2,0.514
4.22,32107.6,35063.0,0.4164,0.154,146.8,97.2,0.514
4.24,32065.6,35077.4,0.2542,0.1895,146.8,97.2,0.514
4.26,32005.3,35046.9,0.0216,0.1144,146.8,97.2,0.514
4.28,31990.4,34951.6,-0.0359,-0.1196,146.8,97.2,0.514
4.3,31893.4,34864.5,-0.4102,-0.3338,146.8,97.2,0.514
4.32,31819.1,34624.3,-0.6969,-0.924,146.8,97.2,0.514
4.34,31865.5,34674.5,-0.5179,-0.8009,146.8,97.2,0.514
4.36,31851.7,34741.7,-0.5713,-0.6355,146.8,97.2,0.514
4.38,31828.7,34650.7,-0.6601,-0.8593,146.8,97.2,0.514
4.4,31840.6,34542.1,-0.614,-1.1263,146.8,97.2,0.514
4.42,31757.7,34577.3,-0.9338,-1.0397,146.8,97.2,0.514
4.44,31818.3,34426.1,-0.7001,-1.4113,146.8,97.2,0.514
4.46,31934.5,34605.6,-0.2516,-0.9702,146.8,97.2,0.514
4.48,31970.5,34798.6,-0.1129,-0.4959,146.8,97.2,0.514
4.5,32093.5,35310.5,0.3617,0.7624,146.8,97.2,0.514
4.52,32272.4,35485.5,1.0521,1.1925,146.8,97.2,0.514
4.54,32303.5,35774.6,1.1721,1.9029,146.8,97.2,0.514
4.56,32187.3,35753.7,0.7236,1.8516,146.8,97.2,0.514
4.58,32267.2,35504.4,1.0323,1.239,146.8,97.2,0.514
4.6,32088.1,35384.7,0.3411,0.9446,146.8,97.2,0.514
4.62,32071.9,35132.4,0.2786,0.3247,146.8,97.2,0.514
4.64,32096.5,35078.5,0.3735,0.192,146.8,97.2,0.514
4.66,32029.0,35044.1,0.1129,0.1076,146.8,97.2,0.514
4.68,31995.9,34987.2,-0.0146,-0.0322,146.8,97.2,0.514
4.7,32017.8,34989.1,0.0697,-0.0276,146.8,97.2,0.514
4.72,31818.9,34717.8,-0.6979,-0.6945,146.8,97.2,0.514
4.74,31816.2,34717.1,-0.7083,-0.696,146.8,97.2,0.514
4.76,31859.8,34684.3,-0.54,-0.7767,146.8,97.2,0.514
4.78,31792.7,34662.4,-0.7991,-0.8304,146.8,97.2,0.514
4.8,31891.5,34621.5,-0.4178,-0.931,146.8,97.2,0.514
4.82,31825.6,34570.2,-0.6718,-1.0571,146.8,97.2,0.514
4.84,31810.2,34406.3,-0.7313,-1.4599,146.8,97.2,0.514
4.86,31822.7,34488.9,-0.6832,-1.257,146.8,97.2,0.514
4.88,31880.0,34715.5,-0.4622,-0.7001,146.8,97.2,0.514
4.9,32084.8,35086.7,0.3283,0.2124,146.8,97.2,0.514
4.92,32238.5,35422.6,0.9215,1.0378,146.8,97.2,0.514
4.94,32298.3,35627.2,1.152,1.5406,146.8,97.2,0.514
4.96,32299.0,35739.1,1.1547,1.8157,146.8,97.2,0.514
4.98,32260.0,35741.6,1.0042,1.8217,146.8,97.2,0.514
5.0,32150.9,35376.7,0.5831,0.925,146.8,97.2,0.514
5.02,32174.4,35202.9,0.674,0.4979,146.8,97.2,0.514
5.04,32044.5,35281.4,0.1726,0.6908,146.8,97.2,0.514
5.06,32003.3,35118.2,0.0139,0.2897,146.8,97.2,0.514
5.08,31976.8,35087.4,-0.0884,0.214,146.8,97.2,0.514
5.1,32039.7,34903.6,0.1542,-0.2378,146.8,97.2,0.514
5.12,31850.2,34700.9,-0.577,-0.736,146.8,97.2,0.514
5.14,31918.5,34697.9,-0.3133,-0.7431,146.8,97.2,0.514
5.16,31732.0,34750.1,-1.033,-0.6149,146.8,97.2,0.514
5.18,31845.4,34622.4,-0.5956,-0.9287,146.8,97.2,0.514
5.2,31814.1,34638.8,-0.7165,-0.8885,146.8,97.2,0.514
5.22,31818.8,34598.2,-0.6981,-0.9882,146.8,97.2,0.514
5.24,31728.2,34439.2,-1.0478,-1.379,146.8,97.2,0.514
5.26,31813.4,34528.6,-0.719,-1.1593,146.8,97.2,0.514
5.28,31854.1,34576.1,-0.562,-1.0427,146.8,97.2,0.514
5.3,31906.5,34905.3,-0.3596,-0.2335,146.8,97.2,0.514
5.32,32137.2,35366.5,0.5303,0.8998,146.8,97.2,0.514
5.34,32268.2,35648.4,1.0361,1.5928,146.8,97.2,0.514
5.36,32398.6,35824.7,1.539,2.026,146.8,97.2,0.514
5.38,32281.9,35710.2,1.0889,1.7448,146.8,97.2,0.514
5.4,32317.2,35436.7,1.2251,1.0724,146.8,97.2,0.514
5.42,32217.9,35379.7,0.8419,0.9324,146.8,97.2,0.514
5.44,32099.0,35217.0,0.3831,0.5324,146.8,97.2,0.514
5.46,31961.8,35120.6,-0.1462,0.2956,146.8,97.2,0.514
5.48,31966.5,35183.9,-0.1284,0.4513,146.8,97.2,0.514
5.5,31949.3,34920.9,-0.1947,-0.1953,146.8,97.2,0.514
5.52,31996.3,34809.6,-0.0132,-0.4687,146.8,97.2,0.514
5.54,31800.3,34794.3,-0.7694,-0.5062,146.8,97.2,0.514
5.56,31860.9,34698.4,-0.5359,-0.742,146.8,97.2,0.514
5.58,31792.6,34700.8,-0.7994,-0.7362,146.8,97.2,0.514
5.6,31912.6,34667.5,-0.3363,-0.818,146.8,97.2,0.514
5.62,31772.8,34532.5,-0.8756,-1.1498,146.8,97.2,0.514
5.64,31710.1,34532.8,-1.1178,-1.1491,146.8,97.2,0.514
5.66,31630.6,34443.1,-1.4245,-1.3694,146.8,97.2,0.514
5.68,31818.2,34539.0,-0.7006,-1.1337,146.8,97.2,0.514
5.7,31947.8,34818.6,-0.2005,-0.4465,146.8,97.2,0.514
5.72,32080.8,35159.6,0.3129,0.3914,146.8,97.2,0.514
5.74,32238.0,35459.5,0.9194,1.1284,146.8,97.2,0.514
5.76,32311.2,35722.6,1.2019,1.7751,146.8,97.2,0.514
5.78,32312.5,35743.2,1.2071,1.8257,146.8,97.2,0.514
5.8,32309.5,35560.9,1.1955,1.3776,146.8,97.2,0.514
5.82,32155.4,35347.8,0.6007,0.854,146.8,97.2,0.514
5.84,32094.2,35204.3,0.3645,0.5012,146.8,97.2,0.514
5.86,32045.5,35038.6,0.1767,0.0941,146.8,97.2,0.514
5.88,32104.8,35080.1,0.4055,0.196,146.8,97.2,0.514
5.9,31975.9,35062.2,-0.0918,0.1522,146.8,97.2,0.514
5.92,32010.1,34819.1,0.0401,-0.4453,146.8,97.2,0.514
5.94,31904.5,34724.7,-0.3676,-0.6775,146.8,97.2,0.514
5.96,31898.4,34649.6,-0.391,-0.8619,146.8,97.2,0.514
5.98,31801.5,34636.3,-0.7648,-0.8946,146.8,97.2,0.514
6.0,31836.5,34683.4,-0.6299,-0.7789,146.8,97.2,0.514
6.02,31964.5,34728.7,-0.1359,-0.6677,146.8,97.2,0.514
6.04,31887.3,34446.3,-0.434,-1.3616,146.8,97.2,0.514
6.06,31795.3,34438.3,-0.7888,-1.3814,146.8,97.2,0.514
6.08,31762.6,34468.9,-0.915,-1.3061,146.8,97.2,0.514
6.1,31860.5,34608.9,-0.5374,-0.9619,146.8,97.2,0.514
6.12,31860.5,34971.9,-0.5371,-0.0698,146.8,97.2,0.514
6.14,32164.1,35335.5,0.6342,0.8238,146.8,97.2,0.514
6.16,32307.6,35631.2,1.1878,1.5506,146.8,97.2,0.514
6.18,32368.2,35839.9,1.4217,2.0634,146.8,97.2,0.514
6.2,32252.5,35713.0,0.9754,1.7516,146.8,97.2,0.514
6.22,32272.0,35461.8,1.0507,1.1341,146.8,97.2,0.514
6.24,32133.1,35255.2,0.5144,0.6264,146.8,97.2,0.514
6.26,32047.0,35188.2,0.1824,0.4618,146.8,97.2,0.514
6.28,32019.6,35056.1,0.0765,0.1372,146.8,97.2,0.514
6.3,31918.4,35025.3,-0.314,0.0613,146.8,97.2,0.514
6.32,31910.2,34964.7,-0.3453,-0.0875,146.8,97.2,0.514
6.34,31954.7,34854.3,-0.1739,-0.3588,146.8,97.2,0.514
6.36,31955.0,34757.5,-0.1727,-0.5968,146.8,97.2,0.514
6.38,31870.2,34729.6,-0.4998,-0.6654,146.8,97.2,0.514
6.4,31831.9,34699.5,-0.6475,-0.7393,146.8,97.2,0.514
6.42,31854.3,34619.8,-0.5612,-0.9352,146.8,97.2,0.514
6.44,31795.5,34568.4,-0.7881,-1.0615,146.8,97.2,0.514
6.46,31833.0,34486.4,-0.6432,-1.2631,146.8,97.2,0.514
6.48,31676.4,34496.1,-1.2477,-1.2391,146.8,97.2,0.514
6.5,31782.0,34503.8,-0.8401,-1.2202,146.8,97.2,0.514
6.52,31849.0,34814.5,-0.5817,-0.4566,146.8,97.2,0.514
6.54,32077.8,35297.6,0.3012,0.7306,146.8,97.2,0.514
6.56,32222.6,35554.5,0.8602,1.362,146.8,97.2,0.514
6.58,32383.4,35662.2,1.4806,1.6267,146.8,97.2,0.514
6.6,32295.1,35831.3,1.1398,2.0422,146.8,97.2,0.514
6.62,32293.4,35613.1,1.1333,1.506,146.8,97.2,0.514
6.64,32173.4,35365.5,0.67,0.8976,146.8,97.2,0.514
6.66,32115.9,35139.1,0.4482,0.3411,146.8,97.2,0.514
6.68,32071.3,35137.5,0.2762,0.3372,146.8,97.2,0.514
6.7,32027.9,34975.8,0.1087,-0.0603,146.8,97.2,0.514
6.72,31910.6,34995.3,-0.3439,-0.0124,146.8,97.2,0.514
6.74,31970.2,34856.9,-0.1138,-0.3524,146.8,97.2,0.514
6.76,31873.6,34782.8,-0.4868,-0.5347,146.8,97.2,0.514
6.78,31859.7,34643.3,-0.5402,-0.8775,146.8,97.2,0.514
6.8,31780.7,34708.3,-0.8452,-0.7176,146.8,97.2,0.514
6.82,31786.4,34707.6,-0.8233,-0.7193,146.8,97.2,0.514
6.84,31724.7,34585.3,-1.0614,-1.02,146.8,97.2,0.514
6.86,31742.3,34600.7,-0.9934,-0.9822,146.8,97.2,0.514
6.88,31806.0,34523.3,-0.7477,-1.1725,146.8,97.2,0.514
6.9,31763.7,34514.3,-0.9109,-1.1946,146.8,97.2,0.514
6.92,31798.1,34601.4,-0.7781,-0.9804,146.8,97.2,0.514
6.94,31904.6,34993.1,-0.3671,-0.0177,146.8,97.2,0.514
6.96,32135.8,35362.6,0.5249,0.8905,146.8,97.2,0.514
6.98,32246.5,35670.5,0.9521,1.6472,146.8,97.2,0.514
7.0,32298.2,35724.5,1.1518,1.7797,146.8,97.2,0.514
7.02,32348.0,35705.3,1.3437,1.7327,146.8,97.2,0.514
7.04,32289.8,35439.5,1.1192,1.0794,146.8,97.2,0.514
7.06,32063.5,35294.8,0.2462,0.7237,146.8,97.2,0.514
7.08,32020.8,35140.9,0.0814,0.3455,146.8,97.2,0.514
7.1,32056.2,35094.0,0.2178,0.2303,146.8,97.2,0.514
7.12,32050.1,35015.5,0.1945,0.0374,146.8,97.2,0.514
7.14,32068.4,34864.8,0.2651,-0.3331,146.8,97.2,0.514
7.16,31941.8,34782.8,-0.2237,-0.5345,146.8,97.2,0.514
7.18,31863.3,34626.3,-0.5264,-0.9191,146.8,97.2,0.514
7.2,31806.1,34730.2,-0.7473,-0.6638,146.8,97.2,0.514
7.22,31853.7,34645.2,-0.5635,-0.8727,146.8,97.2,0.514
7.24,31875.2,34616.5,-0.4804,-0.9432,146.8,97.2,0.514
7.26,31872.1,34557.8,-0.4926,-1.0876,146.8,97.2,0.514
7.28,31825.6,34458.5,-0.6719,-1.3316,146.8,97.2,0.514
7.3,31747.4,34479.4,-0.9737,-1.2801,146.8,97.2,0.514
7.32,31706.8,34565.8,-1.1305,-1.0679,146.8,97.2,0.514
7.34,31916.4,34787.1,-0.3214,-0.524,146.8,97.2,0.514
7.36,32083.6,35212.6,0.3235,0.5216,146.8,97.2,0.514
7.38,32275.9,35589.6,1.0657,1.4483,146.8,97.2,0.514
7.4,32287.3,35721.1,1.1097,1.7713,146.8,97.2,0.514
7.42,32276.7,35765.5,1.0688,1.8807,146.8,97.2,0.514
7.44,32167.7,35521.4,0.6482,1.2807,146.8,97.2,0.514
7.46,32192.3,35354.6,0.7433,0.8708,146.8,97.2,0.514
7.48,32127.6,35103.2,0.4932,0.2529,146.8,97.2,0.514
7.5,32007.5,35079.1,0.0299,0.1937,146.8,97.2,0.514
7.52,32028.6,35054.8,0.1112,0.134,146.8,97.2,0.514
7.54,31930.2,35043.0,-0.2684,0.105,146.8,97.2,0.514
7.56,31848.6,34895.3,-0.5833,-0.2581,146.8,97.2,0.514
7.58,31864.8,34756.8,-0.5206,-0.5984,146.8,97.2,0.514
7.6,31863.8,34674.7,-0.5245,-0.8002,146.8,97.2,0.514
7.62,31774.4,34674.0,-0.8695,-0.802,146.8,97.2,0.514
7.64,31890.7,34751.4,-0.4207,-0.6117,146.8,97.2,0.514
7.66,31812.9,34552.3,-0.721,-1.1011,146.8,97.2,0.514
7.68,31720.3,34503.8,-1.0782,-1.2203,146.8,97.2,0.514
7.7,31801.9,34436.2,-0.7635,-1.3864,146.8,97.2,0.514
7.72,31875.0,34496.6,-0.4814,-1.238,146.8,97.2,0.514
7.74,31905.4,34686.5,-0.3639,-0.7712,146.8,97.2,0.514
7.76,32044.0,35040.0,0.1709,0.0975,146.8,97.2,0.514
7.78,32217.2,35379.8,0.839,0.9327,146.8,97.2,0.514
7.8,32279.4,35713.9,1.0793,1.7537,146.8,97.2,0.514
7.82,32290.8,35830.8,1.1232,2.0409,146.8,97.2,0.514
7.84,32306.0,35641.4,1.1818,1.5755,146.8,97.2,0.514
7.86,32186.9,35456.1,0.7222,1.1202,146.8,97.2,0.514
7.88,32122.3,35360.4,0.4732,0.885,146.8,97.2,0.514
7.9,32124.2,35143.8,0.4802,0.3527,146.8,97.2,0.514
7.92,32066.5,35008.3,0.2575,0.0196,146.8,97.2,0.514
7.94,31978.6,35038.2,-0.0814,0.0932,146.8,97.2,0.514
7.96,31959.1,34958.6,-0.1567,-0.1025,146.8,97.2,0.514
7.98,31904.3,34823.3,-0.3682,-0.4351,146.8,97.2,0.514
8.0,31886.1,34716.5,-0.4385,-0.6976,146.8,97.2,0.514
8.02,31868.8,34683.8,-0.5052,-0.7779,146.8,97.2,0.514
8.04,31786.9,34696.4,-0.8214,-0.7469,146.8,97.2,0.514
8.06,31817.5,34645.7,-0.7031,-0.8716,146.8,97.2,0.514
8.08,31819.4,34626.8,-0.6958,-0.9179,146.8,97.2,0.514
8.1,31816.8,34435.7,-0.7059,-1.3876,146.8,97.2,0.514
8.12,31657.2,34499.1,-1.3217,-1.2318,146.8,97.2,0.514
8.14,31808.4,34517.5,-0.7384,-1.1867,146.8,97.2,0.514
8.16,31935.2,34855.8,-0.249,-0.3553,146.8,97.2,0.514
8.18,32187.3,35347.4,0.7237,0.853,146.8,97.2,0.514
8.2,32252.2,35639.4,0.9744,1.5706,146.8,97.2,0.514
8.22,32401.3,35703.2,1.5495,1.7275,146.8,97.2,0.514
8.24,32282.9,35700.4,1.0928,1.7205,146.8,97.2,0.514
8.26,32269.4,35498.8,1.0407,1.225,146.8,97.2,0.514
8.28,32227.2,35293.1,0.8778,0.7195,146.8,97.2,0.514
8.3,32111.3,35206.3,0.4304,0.5062,146.8,97.2,0.514
8.32,32074.7,35106.0,0.2893,0.2596,146.8,97.2,0.514
8.34,32066.2,35085.6,0.2566,0.2096,146.8,97.2,0.514
8.36,31933.6,35004.7,-0.2553,0.0107,146.8,97.2,0.514
8.38,31937.4,34873.9,-0.2404,-0.3106,146.8,97.2,0.514
8.4,31939.0,34809.2,-0.2344,-0.4696,146.8,97.2,0.514
8.42,31794.3,34658.7,-0.7926,-0.8397,146.8,97.2,0.514
8.44,31810.4,34748.7,-0.7304,-0.6183,146.8,97.2,0.514
8.46,31882.0,34745.9,-0.4543,-0.6252,146.8,97.2,0.514
8.48,31837.0,34558.2,-0.628,-1.0866,146.8,97.2,0.514
8.5,31893.7,34520.3,-0.409,-1.1796,146.8,97.2,0.514
8.52,31712.1,34448.9,-1.1098,-1.3551,146.8,97.2,0.514
8.54,31718.5,34538.4,-1.0852,-1.1354,146.8,97.2,0.514
8.56,31872.4,34849.9,-0.4912,-0.3697,146.8,97.2,0.514
8.58,32037.2,35179.6,0.1447,0.4407,146.8,97.2,0.514
8.6,32265.6,35494.2,1.0259,1.2137,146.8,97.2,0.514
8.62,32295.8,35702.4,1.1426,1.7256,146.8,97.2,0.514
8.64,32359.4,35773.6,1.3879,1.9004,146.8,97.2,0.514
8.66,32269.7,35604.8,1.0418,1.4855,146.8,97.2,0.514
8.68,32210.0,35438.8,0.8113,1.0776,146.8,97.2,0.514
8.7,32118.1,35162.9,0.4567,0.3995,146.8,97.2,0.514
8.72,32110.0,35101.5,0.4254,0.2487,146.8,97.2,0.514
8.74,31989.9,34992.4,-0.0379,-0.0195,146.8,97.2,0.514
8.76,32064.6,34928.7,0.2503,-0.1761,146.8,97.2,0.514
8.78,31955.8,34951.4,-0.1696,-0.1202,146.8,97.2,0.514
8.8,32032.6,34852.1,0.1266,-0.3642,146.8,97.2,0.514
8.82,31888.2,34764.8,-0.4305,-0.579,146.8,97.2,0.514
8.84,31810.5,34680.9,-0.7301,-0.7851,146.8,97.2,0.514
8.86,31819.5,34572.7,-0.6953,-1.0509,146.8,97.2,0.514
8.88,31830.0,34534.3,-0.6552,-1.1453,146.8,97.2,0.514
8.9,31819.1,34541.1,-0.6971,-1.1285,146.8,97.2,0.514
8.92,31781.5,34497.3,-0.842,-1.2363,146.8,97.2,0.514
8.94,31697.1,34368.0,-1.1679,-1.554,146.8,97.2,0.514
8.96,31761.7,34559.9,-0.9184,-1.0824,146.8,97.2,0.514
8.98,32025.6,34965.1,0.0999,-0.0865,146.8,97.2,0.514
9.0,32263.1,35320.5,1.0165,0.787,146.8,97.2,0.514
9.02,32247.8,35605.0,0.9573,1.4861,146.8,97.2,0.514
9.04,32420.9,35914.6,1.6254,2.2469,146.8,97.2,0.514
9.06,32437.2,35647.2,1.6881,1.5897,146.8,97.2,0.514
9.08,32241.3,35567.3,0.9322,1.3936,146.8,97.2,0.514
9.1,32165.2,35297.4,0.6385,0.7301,146.8,97.2,0.514
9.12,32229.9,35188.6,0.8881,0.4627,146.8,97.2,0.514
9.14,32091.1,35088.6,0.3527,0.217,146.8,97.2,0.514
9.16,32032.4,35138.3,0.1261,0.3391,146.8,97.2,0.514
9.18,31961.4,35022.5,-0.1479,0.0544,146.8,97.2,0.514
9.2,31979.9,34926.3,-0.0764,-0.1819,146.8,97.2,0.514
9.22,31884.9,34761.6,-0.4431,-0.5866,146.8,97.2,0.514
9.24,31876.6,34715.4,-0.4752,-0.7002,146.8,97.2,0.514
9.26,31803.1,34656.3,-0.7587,-0.8456,146.8,97.2,0.514
9.28,31827.5,34634.0,-0.6645,-0.9003,146.8,97.2,0.514
9.3,31768.2,34578.6,-0.8936,-1.0363,146.8,97.2,0.514
9.32,31710.4,34530.9,-1.1163,-1.1537,146.8,97.2,0.514
9.34,31765.3,34457.6,-0.9045,-1.3338,146.8,97.2,0.514
9.36,31773.3,34542.3,-0.8739,-1.1257,146.8,97.2,0.514
9.38,31872.0,34748.4,-0.493,-0.619,146.8,97.2,0.514
9.4,32037.6,35234.6,0.1461,0.5757,146.8,97.2,0.514
9.42,32298.6,35611.2,1.1534,1.5013,146.8,97.2,0.514
9.44,32352.9,35692.1,1.3628,1.7002,146.8,97.2,0.514
9.46,32314.3,35624.2,1.214,1.5334,146.8,97.2,0.514
9.48,32285.8,35657.4,1.104,1.6149,146.8,97.2,0.514
9.5,32235.9,35366.9,0.9112,0.901,146.8,97.2,0.514
9.52,32013.3,35252.7,0.0524,0.6203,146.8,97.2,0.514
9.54,32055.1,35116.5,0.2136,0.2856,146.8,97.2,0.514
9.56,31975.9,35105.3,-0.0919,0.2579,146.8,97.2,0.514
9.58,32027.5,35037.6,0.1073,0.0917,146.8,97.2,0.514
9.6,31851.6,34919.7,-0.5716,-0.1982,146.8,97.2,0.514
9.62,31875.7,34815.4,-0.4786,-0.4544,146.8,97.2,0.514
9.64,31837.7,34609.8,-0.6253,-0.9597,146.8,97.2,0.514
9.66,31701.9,34672.2,-1.1492,-0.8064,146.8,97.2,0.514
9.68,31780.7,34668.0,-0.845,-0.8167,146.8,97.2,0.514
9.7,31872.3,34563.2,-0.4917,-1.0742,146.8,97.2,0.514
9.72,31923.2,34546.8,-0.2953,-1.1146,146.8,97.2,0.514
9.74,31803.6,34368.1,-0.7569,-1.5538,146.8,97.2,0.514
9.76,31780.8,34458.8,-0.8449,-1.3309,146.8,97.2,0.514
9.78,31904.3,34648.0,-0.3684,-0.8658,146.8,97.2,0.514
9.8,32034.2,35009.9,0.1331,0.0236,146.8,97.2,0.514
9.82,32175.3,35374.1,0.6774,0.9186,146.8,97.2,0.514
9.84,32309.3,35655.0,1.1947,1.609,146.8,97.2,0.514
9.86,32391.9,35667.1,1.5134,1.6387,146.8,97.2,0.514
9.88,32383.6,35682.0,1.4812,1.6753,146.8,97.2,0.514
9.9,32204.5,35418.0,0.7902,1.0266,146.8,97.2,0.514
9.92,32168.8,35192.0,0.6522,0.471,146.8,97.2,0.514
9.94,32048.7,35111.0,0.1888,0.2721,146.8,97.2,0.514
9.96,32030.3,35150.5,0.1178,0.3692,146.8,97.2,0.514
9.98,31948.1,34976.7,-0.1991,-0.0581,146.8,97.2,0.514
10.0,31895.5,34930.8,-0.402,-0.1708,146.8,97.2,0.514
10.02,32042.9,34861.5,0.1667,-0.3412,146.8,97.2,0.514
10.04,31875.5,34737.4,-0.4793,-0.6462,146.8,97.2,0.514
10.06,31907.7,34662.2,-0.3551,-0.8309,146.8,97.2,0.514
10.08,31853.7,34671.2,-0.5637,-0.8089,146.8,97.2,0.514
10.1,31884.8,34602.3,-0.4437,-0.9783,146.8,97.2,0.514
10.12,31811.8,34584.1,-0.725,-1.023,146.8,97.2,0.514
10.14,31763.8,34547.5,-0.9102,-1.1129,146.8,97.2,0.514
10.16,31783.7,34405.8,-0.8336,-1.4612,146.8,97.2,0.514
10.18,31819.3,34610.8,-0.6963,-0.9574,146.8,97.2,0.514
10.2,31836.7,34797.5,-0.629,-0.4984,146.8,97.2,0.514
10.22,32098.7,35242.0,0.3818,0.5939,146.8,97.2,0.514
10.24,32242.2,35504.2,0.9358,1.2383,146.8,97.2,0.514
10.26,32379.2,35818.5,1.4645,2.0109,146.8,97.2,0.514
10.28,32277.5,35645.6,1.0718,1.586,146.8,97.2,0.514
10.3,32175.8,35539.0,0.6795,1.3238,146.8,97.2,0.514
10.32,32215.8,35409.4,0.8336,1.0053,146.8,97.2,0.514
10.34,32096.0,35259.7,0.3714,0.6374,146.8,97.2,0.514
10.36,32023.1,35037.7,0.0901,0.0919,146.8,97.2,0.514
10.38,31992.1,35010.3,-0.0296,0.0245,146.8,97.2,0.514
10.4,32013.7,35004.1,0.0537,0.0093,146.8,97.2,0.514
10.42,31964.9,34826.0,-0.1343,-0.4284,146.8,97.2,0.514
10.44,31867.1,34724.0,-0.5119,-0.6791,146.8,97.2,0.514
10.46,31804.4,34801.3,-0.7536,-0.489,146.8,97.2,0.514
10.48,31792.7,34563.8,-0.799,-1.0729,146.8,97.2,0.514
10.5,31909.7,34722.6,-0.3474,-0.6825,146.8,97.2,0.514
10.52,31947.7,34573.3,-0.2007,-1.0496,146.8,97.2,0.514
10.54,31742.0,34530.1,-0.9944,-1.1558,146.8,97.2,0.514
10.56,31711.1,34451.8,-1.1139,-1.348,146.8,97.2,0.514
10.58,31853.9,34587.7,-0.5627,-1.014,146.8,97.2,0.514
10.6,31829.9,34650.7,-0.6553,-0.8593,146.8,97.2,0.514
10.62,31925.6,34991.0,-0.2861,-0.0229,146.8,97.2,0.514
10.64,32228.9,35430.8,0.8844,1.0579,146.8,97.2,0.514
10.66,32320.0,35670.8,1.2359,1.6479,146.8,97.2,0.514
10.68,32319.7,35717.8,1.2348,1.7634,146.8,97.2,0.514
10.7,32342.0,35610.5,1.3207,1.4995,146.8,97.2,0.514
10.72,32214.2,35355.1,0.8277,0.872,146.8,97.2,0.514
10.74,32077.9,35223.3,0.3017,0.5479,146.8,97.2,0.514
10.76,32080.0,35072.9,0.3096,0.1785,146.8,97.2,0.514
10.78,32125.1,35118.6,0.4839,0.2907,146.8,97.2,0.514
10.8,32051.2,35135.0,0.1987,0.3311,146.8,97.2,0.514
10.82,32022.8,34960.7,0.089,-0.0973,146.8,97.2,0.514
10.84,31847.5,34849.4,-0.5873,-0.371,146.8,97.2,0.514
10.86,31904.6,34665.0,-0.3673,-0.8242,146.8,97.2,0.514
10.88,31919.6,34669.1,-0.3092,-0.8141,146.8,97.2,0.514
10.9,31807.8,34590.0,-0.7407,-1.0085,146.8,97.2,0.514
10.92,31774.9,34667.2,-0.8675,-0.8188,146.8,97.2,0.514
10.94,31812.6,34557.6,-0.722,-1.088,146.8,97.2,0.514
10.96,31851.1,34560.9,-0.5736,-1.0799,146.8,97.2,0.514
10.98,31667.0,34473.8,-1.2841,-1.294,146.8,97.2,0.514
11.0,31777.5,34549.7,-0.8577,-1.1076,146.8,97.2,0.514
11.02,31938.8,34918.7,-0.2351,-0.2006,146.8,97.2,0.514
11.04,32155.9,35161.2,0.6026,0.3955,146.8,97.2,0.514
11.06,32297.6,35623.4,1.1496,1.5314,146.8,97.2,0.514
11.08,32360.0,35693.2,1.3903,1.7028,146.8,97.2,0.514
11.1,32323.5,35610.6,1.2495,1.4998,146.8,97.2,0.514
11.12,32169.1,35487.2,0.6537,1.1967,146.8,97.2,0.514
11.14,32126.2,35416.8,0.4879,1.0236,146.8,97.2,0.514
11.16,32075.9,35255.5,0.2938,0.627,146.8,97.2,0.514
11.18,32011.5,35164.4,0.0455,0.4033,146.8,97.2,0.514
11.2,32025.9,34953.0,0.1011,-0.1163,146.8,97.2,0.514
11.22,31964.0,35015.0,-0.1378,0.0362,146.8,97.2,0.514
11.24,31893.8,34933.9,-0.4086,-0.1633,146.8,97.2,0.514
11.26,31931.4,34784.6,-0.2636,-0.5302,146.8,97.2,0.514
11.28,31864.5,34767.2,-0.522,-0.5728,146.8,97.2,0.514
11.3,31893.8,34653.0,-0.4087,-0.8537,146.8,97.2,0.514
11.32,31818.9,34651.7,-0.6978,-0.8568,146.8,97.2,0.514
11.34,31749.1,34619.2,-0.9672,-0.9367,146.8,97.2,0.514
11.36,31809.1,34417.3,-0.7356,-1.4328,146.8,97.2,0.514
11.38,31692.8,34446.6,-1.1843,-1.3608,146.8,97.2,0.514
11.4,31763.9,34564.7,-0.9102,-1.0707,146.8,97.2,0.514
11.42,31879.9,34762.1,-0.4624,-0.5856,146.8,97.2,0.514
11.44,31950.4,35048.5,-0.1903,0.1184,146.8,97.2,0.514
11.46,32219.0,35482.0,0.846,1.1838,146.8,97.2,0.514
11.48,32359.1,35727.6,1.3869,1.7873,146.8,97.2,0.514
11.5,32468.5,35731.0,1.809,1.7958,146.8,97.2,0.514
11.52,32274.8,35617.2,1.0616,1.5161,146.8,97.2,0.514
11.54,32180.7,35419.9,0.6984,1.0312,146.8,97.2,0.514
11.56,32093.3,35219.0,0.3609,0.5375,146.8,97.2,0.514
11.58,32038.6,35169.2,0.1499,0.4151,146.8,97.2,0.514
11.6,32050.2,35068.4,0.1946,0.1672,146.8,97.2,0.514
11.62,32046.1,35037.8,0.1788,0.0922,146.8,97.2,0.514
11.64,31937.3,34876.0,-0.2407,-0.3054,146.8,97.2,0.514
11.66,31889.5,34916.4,-0.4254,-0.2063,146.8,97.2,0.514
11.68,31834.8,34730.4,-0.6365,-0.6634,146.8,97.2,0.514
11.7,31887.9,34723.3,-0.4314,-0.6808,146.8,97.2,0.514
11.72,31900.9,34645.9,-0.3813,-0.8711,146.8,97.2,0.514
11.74,31855.9,34707.7,-0.5549,-0.7191,146.8,97.2,0.514
11.76,31802.4,34579.4,-0.7616,-1.0344,146.8,97.2,0.514
11.78,31728.3,34586.5,-1.0476,-1.017,146.8,97.2,0.514
11.8,31732.4,34499.4,-1.0315,-1.2312,146.8,97.2,0.514
11.82,31810.9,34569.2,-0.7287,-1.0595,146.8,97.2,0.514
11.84,31878.9,34873.3,-0.4662,-0.3122,146.8,97.2,0.514
11.86,32164.0,35362.7,0.6337,0.8906,146.8,97.2,0.514
11.88,32170.7,35577.8,0.6596,1.4193,146.8,97.2,0.514
11.9,32313.1,35804.8,1.2091,1.9771,146.8,97.2,0.514
11.92,32313.5,35735.8,1.2108,1.8077,146.8,97.2,0.514
11.94,32241.5,35425.2,0.9328,1.0442,146.8,97.2,0.514
11.96,32068.1,35304.8,0.2639,0.7483,146.8,97.2,0.514
11.98,32094.7,35200.1,0.3664,0.4909,146.8,97.2,0.514
12.0,32021.3,35104.9,0.0831,0.2571,146.8,97.2,0.514
12.02,32020.5,35077.5,0.0802,0.1897,146.8,97.2,0.514
12.04,31967.9,34945.2,-0.123,-0.1355,146.8,97.2,0.514
12.06,31961.7,34875.4,-0.1469,-0.3071,146.8,97.2,0.514
12.08,31813.2,34808.0,-0.7198,-0.4726,146.8,97.2,0.514
12.1,31792.5,34685.0,-0.7995,-0.7751,146.8,97.2,0.514
12.12,31790.0,34653.1,-0.8095,-0.8535,146.8,97.2,0.514
12.14,31807.6,34633.0,-0.7413,-0.9027,146.8,97.2,0.514
12.16,31780.1,34629.6,-0.8474,-0.9112,146.8,97.2,0.514
12.18,31729.3,34534.0,-1.0437,-1.1461,146.8,97.2,0.514
12.2,31725.1,34424.8,-1.0598,-1.4144,146.8,97.2,0.514
12.22,31770.2,34434.9,-0.8858,-1.3897,146.8,97.2,0.514
12.24,31882.0,34774.2,-0.4544,-0.5558,146.8,97.2,0.514
12.26,32106.1,35090.0,0.4103,0.2203,146.8,97.2,0.514
12.28,32261.2,35530.0,1.0091,1.3019,146.8,97.2,0.514
12.3,32367.9,35724.1,1.4205,1.7789,146.8,97.2,0.514
12.32,32296.3,35669.8,1.1443,1.6455,146.8,97.2,0.514
12.34,32313.2,35659.0,1.2096,1.6189,146.8,97.2,0.514
12.36,32258.7,35462.0,0.9994,1.1346,146.8,97.2,0.514
12.38,32032.5,35131.6,0.1263,0.3226,146.8,97.2,0.514
12.4,32041.9,35060.3,0.1628,0.1475,146.8,97.2,0.514
12.42,32018.5,35083.3,0.0723,0.204,146.8,97.2,0.514
12.44,32010.9,34987.1,0.043,-0.0325,146.8,97.2,0.514
12.46,31940.0,34894.2,-0.2304,-0.2608,146.8,97.2,0.514
12.48,31936.0,34777.4,-0.2459,-0.548,146.8,97.2,0.514
12.5,31863.0,34717.4,-0.5275,-0.6953,146.8,97.2,0.514
12.52,31825.9,34607.1,-0.6707,-0.9665,146.8,97.2,0.514
12.54,31842.2,34611.6,-0.6078,-0.9553,146.8,97.2,0.514
12.56,31906.9,34608.2,-0.3584,-0.9637,146.8,97.2,0.514
12.58,31752.9,34587.8,-0.9524,-1.0138,146.8,97.2,0.514
12.6,31714.1,34441.2,-1.1023,-1.3741,146.8,97.2,0.514
12.62,31669.5,34507.5,-1.2743,-1.2113,146.8,97.2,0.514
12.64,31863.2,34604.8,-0.5269,-0.9721,146.8,97.2,0.514
12.66,31978.3,34907.1,-0.0828,-0.2292,146.8,97.2,0.514
12.68,32148.2,35357.8,0.5731,0.8786,146.8,97.2,0.514
12.7,32262.2,35630.8,1.0129,1.5496,146.8,97.2,0.514
12.72,32373.8,35769.7,1.4434,1.8909,146.8,97.2,0.514
12.74,32294.9,35650.3,1.1392,1.5975,146.8,97.2,0.514
12.76,32217.0,35411.7,0.8385,1.0111,146.8,97.2,0.514
12.78,32173.1,35323.7,0.6691,0.7949,146.8,97.2,0.514
12.8,32013.2,35156.7,0.0519,0.3843,146.8,97.2,0.514
12.82,32012.7,35123.0,0.05,0.3016,146.8,97.2,0.514
12.84,32018.0,35001.8,0.0704,0.0036,146.8,97.2,0.514
12.86,31949.0,34946.2,-0.1956,-0.1329,146.8,97.2,0.514
12.88,31866.1,34880.1,-0.5157,-0.2954,146.8,97.2,0.514
12.9,31958.2,34727.1,-0.1602,-0.6714,146.8,97.2,0.514
12.92,31844.2,34751.4,-0.6001,-0.6117,146.8,97.2,0.514
12.94,31699.8,34735.6,-1.1575,-0.6507,146.8,97.2,0.514
12.96,31869.2,34650.1,-0.5036,-0.8608,146.8,97.2,0.514
12.98,31859.8,34570.7,-0.5402,-1.0558,146.8,97.2,0.514
13.0,31829.8,34497.2,-0.6557,-1.2364,146.8,97.2,0.514
13.02,31740.7,34403.4,-0.9995,-1.467,146.8,97.2,0.514
13.04,31671.3,34572.6,-1.2674,-1.0513,146.8,97.2,0.514
13.06,31945.4,34834.4,-0.2097,-0.4079,146.8,97.2,0.514
13.08,32111.0,35160.6,0.4295,0.394,146.8,97.2,0.514
13.1,32291.6,35516.2,1.1263,1.2679,146.8,97.2,0.514
13.12,32373.1,35681.8,1.4408,1.6748,146.8,97.2,0.514
13.14,32339.4,35737.5,1.3107,1.8117,146.8,97.2,0.514
13.16,32184.6,35504.1,0.7135,1.238,146.8,97.2,0.514
13.18,32183.9,35445.4,0.7105,1.0939,146.8,97.2,0.514
13.2,32061.6,35269.7,0.2388,0.6621,146.8,97.2,0.514
13.22,32027.0,35139.1,0.1051,0.3412,146.8,97.2,0.514
13.24,32010.0,35019.1,0.0395,0.0462,146.8,97.2,0.514
13.26,31958.8,34991.7,-0.1579,-0.0212,146.8,97.2,0.514
13.28,32012.7,35031.0,0.0499,0.0755,146.8,97.2,0.514
13.3,31924.5,34841.5,-0.2903,-0.3903,146.8,97.2,0.514
13.32,31903.5,34693.3,-0.3714,-0.7546,146.8,97.2,0.514
13.34,31847.1,34637.9,-0.5891,-0.8906,146.8,97.2,0.514
13.36,31803.7,34664.0,-0.7565,-0.8265,146.8,97.2,0.514
13.38,31803.8,34583.6,-0.7562,-1.0243,146.8,97.2,0.514
13.4,31737.3,34540.5,-1.0126,-1.13,146.8,97.2,0.514
13.42,31699.1,34488.0,-1.1601,-1.2591,146.8,97.2,0.514
13.44,31763.3,34535.3,-0.9123,-1.1429,146.8,97.2,0.514
13.46,31829.1,34644.2,-0.6584,-0.8752,146.8,97.2,0.514
13.48,31930.4,34955.7,-0.2674,-0.1098,146.8,97.2,0.514
13.5,32183.7,35412.8,0.7098,1.0137,146.8,97.2,0.514
13.52,32319.7,35557.2,1.2345,1.3687,146.8,97.2,0.514
13.54,32371.9,35760.2,1.4363,1.8674,146.8,97.2,0.514
13.56,32305.8,35618.3,1.1809,1.5189,146.8,97.2,0.514
13.58,32167.7,35494.0,0.6481,1.2133,146.8,97.2,0.514
13.6,32080.5,35258.4,0.3115,0.6344,146.8,97.2,0.514
13.62,32059.7,35104.7,0.2313,0.2566,146.8,97.2,0.514
13.64,32077.6,35166.2,0.3007,0.4076,146.8,97.2,0.514
13.66,32021.1,35084.8,0.0823,0.2076,146.8,97.2,0.514
13.68,32053.4,34892.8,0.2071,-0.2643,146.8,97.2,0.514
13.7,31864.2,34811.4,-0.5232,-0.4642,146.8,97.2,0.514
13.72,31986.7,34678.4,-0.0504,-0.7912,146.8,97.2,0.514
13.74,31848.0,34618.0,-0.5854,-0.9396,146.8,97.2,0.514
13.76,31870.5,34640.4,-0.4986,-0.8847,146.8,97.2,0.514
13.78,31854.5,34625.9,-0.5605,-0.9203,146.8,97.2,0.514
13.8,31794.9,34588.3,-0.7905,-1.0125,146.8,97.2,0.514
13.82,31854.0,34488.6,-0.5624,-1.2576,146.8,97.2,0.514
13.84,31796.3,34417.9,-0.785,-1.4315,146.8,97.2,0.514
13.86,31827.6,34646.2,-0.6643,-0.8704,146.8,97.2,0.514
13.88,31872.7,34882.7,-0.4903,-0.289,146.8,97.2,0.514
13.9,32032.0,35179.8,0.1247,0.4412,146.8,97.2,0.514
13.92,32193.0,35538.9,0.7457,1.3236,146.8,97.2,0.514
13.94,32379.1,35799.3,1.4638,1.9637,146.8,97.2,0.514
13.96,32338.6,35676.8,1.3074,1.6626,146.8,97.2,0.514
13.98,32252.0,35571.6,0.9736,1.4039,146.8,97.2,0.514
14.0,32201.4,35434.9,0.778,1.0681,146.8,97.2,0.514
14.02,32066.2,35201.4,0.2566,0.4941,146.8,97.2,0.514
14.04,32001.0,35083.9,0.0048,0.2054,146.8,97.2,0.514
14.06,32080.9,34993.0,0.3132,-0.0179,146.8,97.2,0.514
14.08,31859.2,34996.4,-0.5425,-0.0095,146.8,97.2,0.514
14.1,31934.4,34899.6,-0.252,-0.2476,146.8,97.2,0.514
14.12,31898.6,34781.3,-0.3901,-0.5382,146.8,97.2,0.514
14.14,31838.9,34671.4,-0.6206,-0.8083,146.8,97.2,0.514
14.16,31832.2,34637.6,-0.6463,-0.8914,146.8,97.2,0.514
14.18,31840.1,34603.3,-0.6161,-0.9757,146.8,97.2,0.514
14.2,31750.8,34686.5,-0.9607,-0.7713,146.8,97.2,0.514
14.22,31744.8,34509.0,-0.9838,-1.2076,146.8,97.2,0.514
14.24,31793.2,34503.1,-0.7971,-1.2219,146.8,97.2,0.514
14.26,31743.3,34507.8,-0.9895,-1.2105,146.8,97.2,0.514
14.28,31862.0,34716.3,-0.5316,-0.698,146.8,97.2,0.514
14.3,31953.5,35068.7,-0.1784,0.1679,146.8,97.2,0.514
14.32,32307.3,35382.3,1.1868,0.9387,146.8,97.2,0.514
14.34,32293.2,35763.4,1.1326,1.8753,146.8,97.2,0.514
14.36,32368.8,35697.5,1.4243,1.7135,146.8,97.2,0.514
14.38,32363.4,35622.0,1.4034,1.5278,146.8,97.2,0.514
14.4,32273.9,35371.1,1.058,0.9112,146.8,97.2,0.514
14.42,32105.3,35259.8,0.4075,0.6378,146.8,97.2,0.514
14.44,32008.2,35253.9,0.0327,0.6233,146.8,97.2,0.514
14.46,32084.7,35177.7,0.3277,0.4359,146.8,97.2,0.514
14.48,31987.6,35032.5,-0.0467,0.0791,146.8,97.2,0.514
14.5,31933.0,34848.2,-0.2576,-0.3739,146.8,97.2,0.514
14.52,31898.8,34788.4,-0.3896,-0.5209,146.8,97.2,0.514
14.54,31878.8,34735.5,-0.4665,-0.651,146.8,97.2,0.514
14.56,31878.2,34664.8,-0.4691,-0.8245,146.8,97.2,0.514
14.58,31921.3,34684.4,-0.3028,-0.7764,146.8,97.2,0.514
14.6,31864.4,34610.2,-0.5223,-0.9588,146.8,97.2,0.514
14.62,31800.5,34565.3,-0.7689,-1.0692,146.8,97.2,0.514
14.64,31728.3,34519.1,-1.0474,-1.1828,146.8,97.2,0.514
14.66,31771.2,34419.4,-0.8817,-1.4278,146.8,97.2,0.514
14.68,31788.9,34598.7,-0.8135,-0.987,146.8,97.2,0.514
14.7,31932.6,34917.2,-0.2589,-0.2043,146.8,97.2,0.514
14.72,32095.9,35218.8,0.3713,0.537,146.8,97.2,0.514
14.74,32231.9,35594.2,0.896,1.4596,146.8,97.2,0.514
14.76,32335.5,35777.9,1.2958,1.911,146.8,97.2,0.514
14.78,32287.7,35711.7,1.1111,1.7483,146.8,97.2,0.514
14.8,32295.5,35549.0,1.1414,1.3485,146.8,97.2,0.514
14.82,32141.5,35255.4,0.5469,0.6268,146.8,97.2,0.514
14.84,31989.5,35206.9,-0.0396,0.5077,146.8,97.2,0.514
14.86,31963.9,35066.4,-0.1381,0.1624,146.8,97.2,0.514
14.88,31958.4,35052.0,-0.1594,0.1271,146.8,97.2,0.514
14.9,32025.6,34962.4,0.0998,-0.0931,146.8,97.2,0.514
14.92,31930.6,34753.8,-0.2667,-0.6059,146.8,97.2,0.514
14.94,31880.1,34759.7,-0.4615,-0.5913,146.8,97.2,0.514
14.96,31806.3,34631.1,-0.7464,-0.9074,146.8,97.2,0.514
14.98,31818.9,34765.7,-0.6978,-0.5767,146.8,97.2,0.514
15.0,31851.5,34606.4,-0.5719,-0.9681,146.8,97.2,0.514
15.02,31741.4,34565.6,-0.997,-1.0684,146.8,97.2,0.514
15.04,31765.2,34540.9,-0.9052,-1.1292,146.8,97.2,0.514
15.06,31661.1,34468.9,-1.3067,-1.3061,146.8,97.2,0.514
15.08,31777.4,34541.6,-0.8579,-1.1274,146.8,97.2,0.514
15.1,31883.9,34655.7,-0.4471,-0.8469,146.8,97.2,0.514
15.12,32115.7,35132.2,0.4473,0.3241,146.8,97.2,0.514
15.14,32315.4,35574.1,1.2179,1.4101,146.8,97.2,0.514
15.16,32318.5,35717.1,1.2301,1.7616,146.8,97.2,0.514
15.18,32375.1,35768.1,1.4487,1.8869,146.8,97.2,0.514
15.2,32363.5,35615.5,1.4035,1.5119,146.8,97.2,0.514
15.22,32298.8,35408.5,1.1541,1.0032,146.8,97.2,0.514
15.24,32113.5,35286.0,0.4392,0.702,146.8,97.2,0.514
15.26,32019.2,35043.4,0.0752,0.1059,146.8,97.2,0.514
15.28,31925.2,35098.9,-0.2875,0.2423,146.8,97.2,0.514
15.3,31928.1,35119.3,-0.2766,0.2924,146.8,97.2,0.514
15.32,31939.1,34948.7,-0.2339,-0.127,146.8,97.2,0.514
15.34,31949.3,34819.1,-0.1948,-0.4454,146.8,97.2,0.514
15.36,31794.1,34798.9,-0.7935,-0.495,146.8,97.2,0.514
15.38,31824.1,34617.0,-0.6777,-0.9421,146.8,97.2,0.514
15.4,31880.3,34681.1,-0.4607,-0.7844,146.8,97.2,0.514
15.42,31812.2,34670.7,-0.7237,-0.8101,146.8,97.2,0.514
15.44,31773.0,34550.1,-0.875,-1.1065,146.8,97.2,0.514
15.46,31766.0,34555.8,-0.9019,-1.0924,146.8,97.2,0.514
15.48,31797.1,34412.8,-0.7819,-1.444,146.8,97.2,0.514
15.5,31798.5,34573.4,-0.7764,-1.0492,146.8,97.2,0.514
15.52,32013.3,34970.7,0.0523,-0.0728,146.8,97.2,0.514
15.54,32186.0,35367.3,0.719,0.9019,146.8,97.2,0.514
15.56,32236.8,35681.7,0.9148,1.6747,146.8,97.2,0.514
15.58,32355.6,35784.2,1.3734,1.9265,146.8,97.2,0.514
15.6,32376.9,35656.4,1.4556,1.6125,146.8,97.2,0.514
15.62,32314.1,35407.5,1.213,1.0006,146.8,97.2,0.514
15.64,32193.8,35308.1,0.749,0.7564,146.8,97.2,0.514
15.66,32055.5,35259.5,0.2152,0.637,146.8,97.2,0.514
15.68,32109.3,35099.1,0.4226,0.2428,146.8,97.2,0.514
15.7,32013.5,35028.1,0.053,0.0682,146.8,97.2,0.514
15.72,31979.6,35082.0,-0.0777,0.2006,146.8,97.2,0.514
15.74,31909.7,34749.5,-0.3473,-0.6164,146.8,97.2,0.514
15.76,31931.4,34771.4,-0.2638,-0.5627,146.8,97.2,0.514
15.78,31865.9,34689.0,-0.5164,-0.7652,146.8,97.2,0.514
15.8,31715.3,34686.0,-1.0976,-0.7726,146.8,97.2,0.514
15.82,31806.6,34733.1,-0.7452,-0.6569,146.8,97.2,0.514
15.84,31827.5,34636.4,-0.6645,-0.8943,146.8,97.2,0.514
15.86,31787.7,34475.7,-0.8181,-1.2894,146.8,97.2,0.514
15.88,31704.2,34434.0,-1.1406,-1.3919,146.8,97.2,0.514
15.9,31691.8,34469.9,-1.1882,-1.3035,146.8,97.2,0.514
15.92,31941.4,34755.0,-0.225,-0.603,146.8,97.2,0.514
15.94,32083.1,35135.2,0.3215,0.3314,146.8,97.2,0.514
15.96,32258.1,35458.6,0.9971,1.1264,146.8,97.2,0.514
15.98,32332.6,35636.0,1.2845,1.5622,146.8,97.2,0.514
16.0,32321.8,35699.4,1.2429,1.718,146.8,97.2,0.514
16.02,32210.8,35567.9,0.8143,1.3948,146.8,97.2,0.514
16.04,32195.2,35403.2,0.7542,0.9901,146.8,97.2,0.514
16.06,32072.9,35125.1,0.2825,0.3066,146.8,97.2,0.514
16.08,32056.8,35115.5,0.2201,0.2831,146.8,97.2,0.514
16.1,32080.4,35144.1,0.3115,0.3533,146.8,97.2,0.514
16.12,31984.6,34997.9,-0.0585,-0.006,146.8,97.2,0.514
16.14,31888.7,34934.0,-0.4284,-0.1629,146.8,97.2,0.514
16.16,31869.0,34657.9,-0.5046,-0.8415,146.8,97.2,0.514
16.18,31873.9,34720.7,-0.4856,-0.6873,146.8,97.2,0.514
16.2,31860.2,34625.8,-0.5384,-0.9206,146.8,97.2,0.514
16.22,31926.1,34690.5,-0.2842,-0.7614,146.8,97.2,0.514
16.24,31799.8,34581.7,-0.7715,-1.0289,146.8,97.2,0.514
16.26,31897.6,34546.1,-0.394,-1.1163,146.8,97.2,0.514
16.28,31734.4,34439.9,-1.024,-1.3772,146.8,97.2,0.514
16.3,31718.2,34382.5,-1.0864,-1.5185,146.8,97.2,0.514
16.32,31881.4,34577.6,-0.4568,-1.0389,146.8,97.2,0.514
16.34,31996.5,34994.2,-0.0125,-0.0149,146.8,97.2,0.514
16.36,32203.4,35457.3,0.786,1.1232,146.8,97.2,0.514
16.38,32353.6,35652.7,1.3655,1.6034,146.8,97.2,0.514
16.4,32320.3,35795.2,1.2369,1.9534,146.8,97.2,0.514
16.42,32232.2,35608.3,0.8971,1.4943,146.8,97.2,0.514
16.44,32219.8,35491.8,0.8491,1.2078,146.8,97.2,0.514
16.46,32161.4,35251.7,0.6237,0.6178,146.8,97.2,0.514
16.48,32060.9,35153.3,0.236,0.376,146.8,97.2,0.514
16.5,32052.3,35060.9,0.2028,0.1489,146.8,97.2,0.514
16.52,32031.9,35035.3,0.1243,0.0859,146.8,97.2,0.514
16.54,32030.6,34976.1,0.1192,-0.0597,146.8,97.2,0.514
16.56,31868.0,34849.0,-0.5084,-0.3718,146.8,97.2,0.514
16.58,31847.4,34682.7,-0.5878,-0.7807,146.8,97.2,0.514
16.6,31754.6,34754.3,-0.9458,-0.6047,146.8,97.2,0.514
16.62,31856.7,34664.2,-0.5518,-0.8261,146.8,97.2,0.514
16.64,31910.0,34595.1,-0.3461,-0.9958,146.8,97.2,0.514
16.66,31813.0,34517.5,-0.7207,-1.1867,146.8,97.2,0.514
16.68,31714.1,34493.6,-1.1023,-1.2454,146.8,97.2,0.514
16.7,31682.9,34349.6,-1.2228,-1.5992,146.8,97.2,0.514
16.72,31784.6,34507.9,-0.8302,-1.2103,146.8,97.2,0.514
16.74,31918.7,34890.0,-0.3128,-0.2711,146.8,97.2,0.514
16.76,32133.3,35237.7,0.5152,0.5834,146.8,97.2,0.514
16.78,32239.4,35478.1,0.9249,1.1742,146.8,97.2,0.514
16.8,32431.7,35690.6,1.6667,1.6965,146.8,97.2,0.514
16.82,32334.4,35767.9,1.2914,1.8864,146.8,97.2,0.514
16.84,32285.0,35569.6,1.1006,1.3991,146.8,97.2,0.514
16.86,32197.7,35344.7,0.764,0.8465,146.8,97.2,0.514
16.88,32170.7,35250.4,0.6596,0.6147,146.8,97.2,0.514
16.9,32031.1,35085.3,0.1209,0.2089,146.8,97.2,0.514
16.92,32084.7,35104.7,0.3278,0.2565,146.8,97.2,0.514
16.94,31964.4,34956.6,-0.1363,-0.1075,146.8,97.2,0.514
16.96,31974.3,34869.7,-0.0981,-0.3209,146.8,97.2,0.514
16.98,31959.4,34818.5,-0.1555,-0.447,146.8,97.2,0.514
17.0,31862.5,34765.1,-0.5295,-0.5782,146.8,97.2,0.514
17.02,31847.3,34747.2,-0.5884,-0.6221,146.8,97.2,0.514
17.04,31882.1,34591.3,-0.4539,-1.0052,146.8,97.2,0.514
17.06,31785.2,34590.6,-0.8279,-1.0069,146.8,97.2,0.514
17.08,31683.6,34529.4,-1.2199,-1.1573,146.8,97.2,0.514
17.1,31727.7,34473.9,-1.0499,-1.2939,146.8,97.2,0.514
17.12,31756.0,34494.1,-0.9405,-1.2442,146.8,97.2,0.514
17.14,31886.7,34791.9,-0.4363,-0.5123,146.8,97.2,0.514
17.16,31965.9,35122.7,-0.1304,0.3007,146.8,97.2,0.514
17.18,32214.8,35401.2,0.8301,0.9853,146.8,97.2,0.514
17.2,32374.0,35713.0,1.4443,1.7516,146.8,97.2,0.514
17.22,32251.2,35802.6,0.9705,1.9717,146.8,97.2,0.514
17.24,32336.8,35728.5,1.3006,1.7897,146.8,97.2,0.514
17.26,32250.8,35450.9,0.969,1.1075,146.8,97.2,0.514
17.28,32128.8,35230.9,0.4981,0.5667,146.8,97.2,0.514
17.3,31989.8,35142.3,-0.0382,0.349,146.8,97.2,0.514
17.32,31952.7,35191.9,-0.1814,0.4709,146.8,97.2,0.514
17.34,31974.6,34930.3,-0.097,-0.1722,146.8,97.2,0.514
17.36,31943.3,35018.6,-0.2176,0.045,146.8,97.2,0.514
17.38,31958.4,34813.6,-0.1595,-0.4589,146.8,97.2,0.514
17.4,31845.0,34781.2,-0.5971,-0.5384,146.8,97.2,0.514
17.42,31790.8,34667.6,-0.8061,-0.8177,146.8,97.2,0.514
17.44,31836.8,34684.2,-0.6286,-0.7769,146.8,97.2,0.514
17.46,31769.6,34651.5,-0.8881,-0.8573,146.8,97.2,0.514
17.48,31686.3,34549.8,-1.2095,-1.1073,146.8,97.2,0.514
17.5,31776.9,34469.4,-0.86,-1.3048,146.8,97.2,0.514
17.52,31669.3,34444.1,-1.275,-1.367,146.8,97.2,0.514
17.54,31717.2,34523.5,-1.0901,-1.1718,146.8,97.2,0.514
17.56,31974.3,34917.3,-0.0981,-0.2041,146.8,97.2,0.514
17.58,32114.1,35272.6,0.4413,0.6691,146.8,97.2,0.514
17.6,32308.1,35538.4,1.19,1.3224,146.8,97.2,0.514
17.62,32465.2,35752.9,1.7961,1.8496,146.8,97.2,0.514
17.64,32342.9,35759.5,1.324,1.8658,146.8,97.2,0.514
17.66,32218.1,35528.9,0.8428,1.2991,146.8,97.2,0.514
17.68,32183.8,35358.1,0.7103,0.8793,146.8,97.2,0.514
17.7,32109.0,35185.8,0.4216,0.4557,146.8,97.2,0.514
17.72,32021.7,35033.0,0.0846,0.0803,146.8,97.2,0.514
17.74,31962.3,35090.7,-0.1444,0.2222,146.8,97.2,0.514
17.76,31988.8,34998.8,-0.0424,-0.0038,146.8,97.2,0.514
17.78,31926.1,34867.0,-0.284,-0.3277,146.8,97.2,0.514
17.8,31955.5,34777.2,-0.1707,-0.5483,146.8,97.2,0.514
17.82,31900.4,34626.1,-0.3835,-0.9197,146.8,97.2,0.514
17.84,31825.1,34677.9,-0.6738,-0.7924,146.8,97.2,0.514
17.86,31793.0,34732.3,-0.7977,-0.6586,146.8,97.2,0.514
17.88,31814.4,34593.4,-0.7152,-1.0,146.8,97.2,0.514
17.9,31745.9,34491.4,-0.9796,-1.2507,146.8,97.2,0.514
17.92,31761.0,34517.2,-0.9214,-1.1873,146.8,97.2,0.514
17.94,31766.8,34576.1,-0.8989,-1.0426,146.8,97.2,0.514
17.96,31920.7,34793.4,-0.3048,-0.5085,146.8,97.2,0.514
17.98,32012.6,35149.7,0.0496,0.3672,146.8,97.2,0.514
18.0,32285.8,35495.0,1.1041,1.2157,146.8,97.2,0.514
18.02,32380.2,35646.3,1.468,1.5875,146.8,97.2,0.514
18.04,32364.9,35677.2,1.409,1.6634,146.8,97.2,0.514
18.06,32357.6,35696.3,1.3808,1.7106,146.8,97.2,0.514
18.08,32180.1,35367.8,0.696,0.9031,146.8,97.2,0.514
18.1,32112.7,35223.5,0.436,0.5486,146.8,97.2,0.514
18.12,32060.3,35205.1,0.2339,0.5033,146.8,97.2,0.514
18.14,32000.0,35108.6,0.0011,0.2661,146.8,97.2,0.514
18.16,32097.4,35057.8,0.3769,0.1412,146.8,97.2,0.514
18.18,32019.1,35019.2,0.0748,0.0464,146.8,97.2,0.514
18.2,31961.2,34776.0,-0.1486,-0.5514,146.8,97.2,0.514
18.22,31925.6,34771.7,-0.286,-0.5618,146.8,97.2,0.514
18.24,31882.0,34706.0,-0.4542,-0.7234,146.8,97.2,0.514
18.26,31825.3,34685.6,-0.6732,-0.7735,146.8,97.2,0.514
18.28,31742.9,34577.0,-0.991,-1.0403,146.8,97.2,0.514
18.3,31775.0,34547.2,-0.8673,-1.1136,146.8,97.2,0.514
18.32,31756.6,34484.6,-0.9383,-1.2675,146.8,97.2,0.514
18.34,31690.4,34438.7,-1.1935,-1.3803,146.8,97.2,0.514
18.36,31806.9,34618.9,-0.7442,-0.9374,146.8,97.2,0.514
18.38,31986.1,34927.6,-0.0525,-0.1786,146.8,97.2,0.514
18.4,32199.2,35400.1,0.7696,0.9826,146.8,97.2,0.514
18.42,32246.8,35640.7,0.9535,1.574,146.8,97.2,0.514
18.44,32316.1,35816.5,1.2207,2.0059,146.8,97.2,0.514
18.46,32406.9,35600.2,1.5713,1.4742,146.8,97.2,0.514
18.48,32260.4,35530.5,1.0059,1.3031,146.8,97.2,0.514
18.5,32100.3,35268.7,0.3882,0.6596,146.8,97.2,0.514
18.52,32121.7,35149.2,0.4706,0.366,146.8,97.2,0.514
18.54,32072.4,35127.0,0.2804,0.3114,146.8,97.2,0.514
18.56,31971.1,35101.8,-0.1105,0.2495,146.8,97.2,0.514
18.58,32026.7,35010.9,0.1039,0.026,146.8,97.2,0.514
18.6,31893.1,34824.7,-0.4114,-0.4317,146.8,97.2,0.514
18.62,31951.0,34802.8,-0.1879,-0.4855,146.8,97.2,0.514
18.64,31846.0,34701.4,-0.5933,-0.7346,146.8,97.2,0.514
18.66,31827.0,34630.3,-0.6665,-0.9093,146.8,97.2,0.514
18.68,31824.6,34666.4,-0.6759,-0.8207,146.8,97.2,0.514
18.7,31795.8,34591.3,-0.7869,-1.0052,146.8,97.2,0.514
18.72,31835.5,34460.3,-0.6339,-1.3272,146.8,97.2,0.514
18.74,31650.7,34443.4,-1.3469,-1.3687,146.8,97.2,0.514
18.76,31785.6,34555.4,-0.8265,-1.0936,146.8,97.2,0.514
18.78,31893.8,34901.9,-0.4086,-0.2418,146.8,97.2,0.514
18.8,32075.8,35181.9,0.2935,0.4463,146.8,97.2,0.514
18.82,32248.5,35530.3,0.96,1.3026,146.8,97.2,0.514
18.84,32235.8,35743.4,0.911,1.8262,146.8,97.2,0.514
18.86,32307.9,35714.6,1.1892,1.7555,146.8,97.2,0.514
18.88,32273.5,35605.4,1.0565,1.4872,146.8,97.2,0.514
18.9,32148.0,35444.7,0.5722,1.0922,146.8,97.2,0.514
18.92,32085.0,35152.5,0.3289,0.3741,146.8,97.2,0.514
18.94,32073.3,35135.2,0.284,0.3315,146.8,97.2,0.514
18.96,32074.4,35179.0,0.2881,0.4391,146.8,97.2,0.514
18.98,32006.1,35022.7,0.0245,0.0551,146.8,97.2,0.514
19.0,31960.4,34916.6,-0.1519,-0.2058,146.8,97.2,0.514
19.02,31861.0,34699.7,-0.5352,-0.7388,146.8,97.2,0.514
19.04,31874.4,34704.4,-0.4836,-0.7273,146.8,97.2,0.514
19.06,31884.6,34742.2,-0.4444,-0.6343,146.8,97.2,0.514
19.08,31805.5,34667.8,-0.7495,-0.8174,146.8,97.2,0.514
19.1,31901.2,34640.3,-0.38,-0.8849,146.8,97.2,0.514
19.12,31794.0,34503.9,-0.7939,-1.2199,146.8,97.2,0.514
19.14,31742.3,34465.0,-0.9936,-1.3155,146.8,97.2,0.514
19.16,31729.8,34449.6,-1.0418,-1.3534,146.8,97.2,0.514
19.18,31750.3,34721.8,-0.9627,-0.6845,146.8,97.2,0.514
19.2,32068.7,34969.1,0.266,-0.0767,146.8,97.2,0.514
19.22,32178.9,35305.7,0.6915,0.7506,146.8,97.2,0.514
19.24,32311.5,35684.8,1.2029,1.6821,146.8,97.2,0.514
19.26,32394.4,35748.7,1.5231,1.8392,146.8,97.2,0.514
19.28,32235.9,35613.4,0.9114,1.5067,146.8,97.2,0.514
19.3,32360.3,35476.0,1.3915,1.169,146.8,97.2,0.514
19.32,32212.1,35253.5,0.8196,0.6222,146.8,97.2,0.514
19.34,32050.8,35228.7,0.1969,0.5612,146.8,97.2,0.514
19.36,32077.1,35076.0,0.2987,0.1861,146.8,97.2,0.514
19.38,32016.6,35010.1,0.0651,0.0241,146.8,97.2,0.514
19.4,31969.4,34940.5,-0.117,-0.147,146.8,97.2,0.514
19.42,31940.8,34765.3,-0.2274,-0.5777,146.8,97.2,0.514
19.44,31910.5,34775.3,-0.3443,-0.5529,146.8,97.2,0.514
19.46,31941.7,34651.4,-0.224,-0.8575,146.8,97.2,0.514
19.48,31907.1,34648.7,-0.3573,-0.8642,146.8,97.2,0.514
19.5,31822.7,34665.8,-0.6832,-0.8221,146.8,97.2,0.514
19.52,31812.7,34594.2,-0.7218,-0.9982,146.8,97.2,0.514
19.54,31698.8,34517.9,-1.1611,-1.1855,146.8,97.2,0.514
19.56,31684.1,34466.7,-1.218,-1.3115,146.8,97.2,0.514
19.58,31805.1,34531.0,-0.7511,-1.1534,146.8,97.2,0.514
19.6,31895.5,34842.2,-0.4021,-0.3887,146.8,97.2,0.514
19.62,32073.5,35123.6,0.2845,0.303,146.8,97.2,0.514
19.64,32228.0,35522.6,0.881,1.2836,146.8,97.2,0.514
19.66,32312.4,35774.6,1.2065,1.9029,146.8,97.2,0.514
19.68,32300.0,35711.7,1.1587,1.7484,146.8,97.2,0.514
19.7,32203.3,35583.4,0.7855,1.4331,146.8,97.2,0.514
19.72,32146.8,35339.4,0.5676,0.8333,146.8,97.2,0.514
19.74,32031.3,35233.7,0.1217,0.5736,146.8,97.2,0.514
19.76,32101.3,35017.6,0.3919,0.0426,146.8,97.2,0.514
19.78,31995.5,35075.5,-0.0162,0.1848,146.8,97.2,0.514
19.8,31931.7,35025.1,-0.2625,0.0609,146.8,97.2,0.514
19.82,31924.3,34900.2,-0.2911,-0.246,146.8,97.2,0.514
19.84,31901.4,34783.3,-0.3796,-0.5334,146.8,97.2,0.514
19.86,31759.0,34634.9,-0.9288,-0.8982,146.8,97.2,0.514
19.88,31890.8,34676.1,-0.4205,-0.7969,146.8,97.2,0.514
19.9,31814.3,34735.0,-0.7154,-0.6521,146.8,97.2,0.514
19.92,31823.0,34563.9,-0.6819,-1.0725,146.8,97.2,0.514
19.94,31758.7,34581.8,-0.9301,-1.0287,146.8,97.2,0.514
19.96,31721.0,34541.1,-1.0754,-1.1286,146.8,97.2,0.514
19.98,31749.8,34480.9,-0.9645,-1.2767,146.8,97.2,0.514
20.0,31863.1,34644.9,-0.5271,-0.8734,146.8,97.2,0.514
20.02,32039.5,35070.9,0.1536,0.1736,146.8,97.2,0.514
20.04,32186.0,35454.2,0.7188,1.1155,146.8,97.2,0.514
20.06,32253.4,35671.5,0.979,1.6495,146.8,97.2,0.514
20.08,32361.9,35718.5,1.3974,1.7651,146.8,97.2,0.514
20.1,32302.5,35645.5,1.1684,1.5856,146.8,97.2,0.514
20.12,32174.7,35416.6,0.675,1.0231,146.8,97.2,0.514
20.14,32153.3,35337.0,0.5927,0.8275,146.8,97.2,0.514
20.16,32113.3,35179.6,0.4382,0.4405,146.8,97.2,0.514
20.18,32121.1,35051.8,0.4682,0.1266,146.8,97.2,0.514
20.2,32076.3,35019.4,0.2954,0.047,146.8,97.2,0.514
20.22,31951.0,34994.9,-0.188,-0.0133,146.8,97.2,0.514
20.24,32001.5,34797.0,0.0069,-0.4997,146.8,97.2,0.514
20.26,31855.6,34699.8,-0.5562,-0.7385,146.8,97.2,0.514
20.28,31795.1,34606.6,-0.7898,-0.9677,146.8,97.2,0.514
20.3,31932.5,34724.7,-0.2593,-0.6773,146.8,97.2,0.514
20.32,31827.5,34633.0,-0.6648,-0.9028,146.8,97.2,0.514
20.34,31755.5,34571.4,-0.9426,-1.0542,146.8,97.2,0.514
20.36,31728.6,34489.2,-1.0464,-1.2562,146.8,97.2,0.514
20.38,31771.5,34426.1,-0.8808,-1.4114,146.8,97.2,0.514
20.4,31811.3,34621.6,-0.727,-0.9308,146.8,97.2,0.514
20.42,31934.6,34896.4,-0.2512,-0.2553,146.8,97.2,0.514
20.44,32075.9,35267.2,0.294,0.6559,146.8,97.2,0.514
20.46,32272.8,35624.2,1.0538,1.5333,146.8,97.2,0.514
20.48,32250.4,35756.5,0.9673,1.8584,146.8,97.2,0.514
20.5,32254.1,35684.0,0.9816,1.6803,146.8,97.2,0.514
20.52,32241.0,35579.5,0.9311,1.4234,146.8,97.2,0.514
20.54,32183.2,35397.5,0.7081,0.9761,146.8,97.2,0.514
20.56,32038.4,35179.0,0.1492,0.4392,146.8,97.2,0.514
20.58,32013.7,35111.9,0.054,0.2741,146.8,97.2,0.514
20.6,31932.9,34948.7,-0.258,-0.1269,146.8,97.2,0.514
20.62,31967.5,35019.2,-0.1243,0.0463,146.8,97.2,0.514
20.64,31923.5,34866.0,-0.294,-0.3302,146.8,97.2,0.514
20.66,31891.1,34716.1,-0.4194,-0.6985,146.8,97.2,0.514
20.68,31915.3,34769.1,-0.3257,-0.5682,146.8,97.2,0.514
20.7,31898.0,34737.4,-0.3924,-0.6462,146.8,97.2,0.514
20.72,31846.2,34688.1,-0.5924,-0.7674,146.8,97.2,0.514
20.74,31802.5,34720.5,-0.7609,-0.6876,146.8,97.2,0.514
20.76,31761.4,34519.4,-0.9198,-1.182,146.8,97.2,0.514
20.78,31819.8,34478.0,-0.6943,-1.2837,146.8,97.2,0.514
20.8,31754.8,34467.0,-0.945,-1.3106,146.8,97.2,0.514
20.82,31877.6,34675.1,-0.4713,-0.7993,146.8,97.2,0.514
20.84,32053.2,35156.6,0.2064,0.3841,146.8,97.2,0.514
20.86,32162.1,35458.2,0.6267,1.1254,146.8,97.2,0.514
20.88,32278.6,35696.9,1.076,1.712,146.8,97.2,0.514
20.9,32433.4,35753.7,1.6735,1.8516,146.8,97.2,0.514
20.92,32341.2,35642.2,1.3178,1.5775,146.8,97.2,0.514
20.94,32219.2,35424.2,0.8469,1.0416,146.8,97.2,0.514
20.96,32086.7,35224.1,0.3357,0.55,146.8,97.2,0.514
20.98,32070.2,35185.5,0.2719,0.455,146.8,97.2,0.514
21.0,32034.6,35154.7,0.1345,0.3794,146.8,97.2,0.514
21.02,32026.1,35020.5,0.1018,0.0497,146.8,97.2,0.514
21.04,31987.9,35026.6,-0.0458,0.0645,146.8,97.2,0.514
21.06,31892.1,34829.6,-0.4152,-0.4196,146.8,97.2,0.514
21.08,31882.7,34744.1,-0.4514,-0.6298,146.8,97.2,0.514
21.1,31830.9,34678.2,-0.6516,-0.7916,146.8,97.2,0.514
21.12,31817.1,34698.1,-0.7048,-0.7427,146.8,97.2,0.514
21.14,31809.7,34619.7,-0.7333,-0.9354,146.8,97.2,0.514
21.16,31795.2,34609.7,-0.7892,-0.9599,146.8,97.2,0.514
21.18,31759.7,34567.4,-0.9262,-1.064,146.8,97.2,0.514
21.2,31811.4,34451.1,-0.7269,-1.3497,146.8,97.2,0.514
21.22,31833.9,34643.2,-0.6398,-0.8777,146.8,97.2,0.514
21.24,31942.1,35002.2,-0.2222,0.0046,146.8,97.2,0.514
21.26,32175.2,35324.0,0.6772,0.7956,146.8,97.2,0.514
21.28,32290.3,35555.6,1.1212,1.3647,146.8,97.2,0.514
21.3,32319.2,35701.1,1.2326,1.7223,146.8,97.2,0.514
21.32,32287.2,35749.8,1.1092,1.8419,146.8,97.2,0.514
21.34,32178.2,35404.0,0.6886,0.9921,146.8,97.2,0.514
21.36,32204.3,35325.4,0.7894,0.799,146.8,97.2,0.514
21.38,32008.4,35131.3,0.0333,0.322,146.8,97.2,0.514
21.4,32058.8,35191.3,0.2277,0.4694,146.8,97.2,0.514
21.42,32014.6,35014.8,0.0573,0.0355,146.8,97.2,0.514
21.44,31981.5,34954.6,-0.0705,-0.1124,146.8,97.2,0.514
21.46,31991.1,34776.4,-0.0332,-0.5503,146.8,97.2,0.514
21.48,31953.0,34743.1,-0.1804,-0.6321,146.8,97.2,0.514
21.5,31820.0,34670.5,-0.6937,-0.8105,146.8,97.2,0.514
21.52,31862.9,34686.4,-0.5279,-0.7715,146.8,97.2,0.514
21.54,31754.4,34713.2,-0.9466,-0.7056,146.8,97.2,0.514
21.56,31741.6,34624.8,-0.9961,-0.923,146.8,97.2,0.514
21.58,31765.8,34539.9,-0.9027,-1.1316,146.8,97.2,0.514
21.6,31750.0,34421.8,-0.9637,-1.4219,146.8,97.2,0.514
21.62,31789.4,34503.6,-0.8117,-1.2208,146.8,97.2,0.514
21.64,31794.7,34756.9,-0.791,-0.5982,146.8,97.2,0.514
21.66,31970.6,35097.9,-0.1124,0.2398,146.8,97.2,0.514
21.68,32150.4,35421.8,0.5812,1.0359,146.8,97.2,0.514
21.7,32344.0,35666.0,1.3284,1.636,146.8,97.2,0.514
21.72,32407.4,35755.7,1.5733,1.8564,146.8,97.2,0.514
21.74,32285.6,35585.5,1.1032,1.4382,146.8,97.2,0.514
21.76,32183.0,35261.9,0.7073,0.643,146.8,97.2,0.514
21.78,32021.5,35287.5,0.0838,0.7058,146.8,97.2,0.514
21.8,32097.0,35153.0,0.3751,0.3752,146.8,97.2,0.514
21.82,31957.0,35087.3,-0.165,0.2138,146.8,97.2,0.514
21.84,32032.8,35006.9,0.1277,0.0161,146.8,97.2,0.514
21.86,31914.3,34935.0,-0.3297,-0.1606,146.8,97.2,0.514
21.88,31905.4,34791.7,-0.3641,-0.5126,146.8,97.2,0.514
21.9,31889.1,34810.0,-0.4268,-0.4677,146.8,97.2,0.514
21.92,31993.7,34661.5,-0.0232,-0.8328,146.8,97.2,0.514
21.94,31767.2,34717.5,-0.8974,-0.695,146.8,97.2,0.514
21.96,31915.3,34695.0,-0.326,-0.7503,146.8,97.2,0.514
21.98,31823.8,34500.8,-0.679,-1.2277,146.8,97.2,0.514
22.0,31791.9,34509.5,-0.802,-1.2063,146.8,97.2,0.514
22.02,31762.0,34491.9,-0.9173,-1.2495,146.8,97.2,0.514
22.04,31850.1,34683.7,-0.5775,-0.7781,146.8,97.2,0.514
22.06,32021.9,34894.1,0.0856,-0.2612,146.8,97.2,0.514
22.08,32210.4,35301.7,0.813,0.7406,146.8,97.2,0.514
22.1,32319.0,35605.7,1.2322,1.4878,146.8,97.2,0.514
22.12,32327.0,35825.4,1.2631,2.0278,146.8,97.2,0.514
22.14,32446.5,35659.1,1.7241,1.6191,146.8,97.2,0.514
22.16,32299.1,35417.9,1.1554,1.0264,146.8,97.2,0.514
22.18,32166.0,35257.5,0.6417,0.632,146.8,97.2,0.514
22.2,32026.4,35127.6,0.1029,0.3129,146.8,97.2,0.514
22.22,32085.7,35026.9,0.3319,0.0653,146.8,97.2,0.514
22.24,32012.9,34991.5,0.0508,-0.0218,146.8,97.2,0.514
22.26,31927.0,35006.1,-0.2808,0.0141,146.8,97.2,0.514
22.28,31979.4,34918.2,-0.0784,-0.2019,146.8,97.2,0.514
22.3,31828.9,34689.4,-0.6592,-0.7641,146.8,97.2,0.514
22.32,31856.4,34681.8,-0.553,-0.7827,146.8,97.2,0.514
22.34,31922.5,34576.3,-0.2982,-1.0421,146.8,97.2,0.514
22.36,31741.8,34636.1,-0.9954,-0.8952,146.8,97.2,0.514
22.38,31809.5,34601.7,-0.734,-0.9797,146.8,97.2,0.514
22.4,31759.9,34531.5,-0.9256,-1.1521,146.8,97.2,0.514
22.42,31710.1,34390.6,-1.1175,-1.4986,146.8,97.2,0.514
22.44,31648.9,34599.2,-1.3537,-0.9859,146.8,97.2,0.514
22.46,31875.5,34925.9,-0.4795,-0.1828,146.8,97.2,0.514
22.48,32093.6,35214.5,0.3621,0.5263,146.8,97.2,0.514
22.5,32285.5,35462.0,1.1029,1.1347,146.8,97.2,0.514
22.52,32320.8,35728.6,1.2389,1.7899,146.8,97.2,0.514
22.54,32332.9,35714.8,1.2858,1.7559,146.8,97.2,0.514
22.56,32198.4,35558.5,0.7666,1.3718,146.8,97.2,0.514
22.58,32213.4,35382.7,0.8246,0.9399,146.8,97.2,0.514
22.6,32186.4,35210.2,0.7202,0.5158,146.8,97.2,0.514
22.62,32037.5,35104.0,0.1457,0.2549,146.8,97.2,0.514
22.64,32055.1,35119.1,0.2136,0.2918,146.8,97.2,0.514
22.66,32008.8,34979.2,0.0348,-0.0518,146.8,97.2,0.514
22.68,31986.2,34868.4,-0.0521,-0.3243,146.8,97.2,0.514
22.7,31838.2,34751.5,-0.6234,-0.6114,146.8,97.2,0.514
22.72,31846.4,34730.4,-0.5915,-0.6634,146.8,97.2,0.514
22.74,31815.3,34671.1,-0.7117,-0.8092,146.8,97.2,0.514
22.76,31873.9,34745.1,-0.4854,-0.6273,146.8,97.2,0.514
22.78,31897.6,34683.1,-0.394,-0.7797,146.8,97.2,0.514
22.8,31786.2,34563.9,-0.824,-1.0725,146.8,97.2,0.514
22.82,31677.0,34360.0,-1.2455,-1.5737,146.8,97.2,0.514
22.84,31712.8,34501.3,-1.1071,-1.2264,146.8,97.2,0.514
22.86,31771.0,34723.6,-0.8825,-0.6802,146.8,97.2,0.514
22.88,32039.4,34917.8,0.153,-0.2029,146.8,97.2,0.514
22.9,32140.5,35333.7,0.543,0.8192,146.8,97.2,0.514
22.92,32383.4,35573.9,1.4806,1.4097,146.8,97.2,0.514
22.94,32322.7,35710.2,1.2464,1.7446,146.8,97.2,0.514
22.96,32249.0,35673.6,0.962,1.6548,146.8,97.2,0.514
22.98,32263.2,35487.9,1.0165,1.1983,146.8,97.2,0.514
23.0,32036.3,35290.7,0.1412,0.7137,146.8,97.2,0.514
23.02,32035.5,35138.6,0.1379,0.3397,146.8,97.2,0.514
23.04,32077.7,35183.1,0.3008,0.4491,146.8,97.2,0.514
23.06,32028.6,35053.1,0.1112,0.1298,146.8,97.2,0.514
23.08,32000.0,35009.3,0.001,0.0221,146.8,97.2,0.514
23.1,31920.0,34809.4,-0.3077,-0.4692,146.8,97.2,0.514
23.12,31830.6,34707.1,-0.6527,-0.7206,146.8,97.2,0.514
23.14,31859.2,34670.3,-0.5422,-0.8112,146.8,97.2,0.514
23.16,31772.9,34622.7,-0.8755,-0.9281,146.8,97.2,0.514
23.18,31809.7,34579.3,-0.7334,-1.0348,146.8,97.2,0.514
23.2,31725.2,34654.8,-1.0593,-0.8492,146.8,97.2,0.514
23.22,31720.1,34540.1,-1.079,-1.131,146.8,97.2,0.514
23.24,31739.5,34480.0,-1.0044,-1.2787,146.8,97.2,0.514
23.26,31858.0,34582.8,-0.547,-1.0262,146.8,97.2,0.514
23.28,31880.7,34890.1,-0.4594,-0.271,146.8,97.2,0.514
23.3,32153.5,35207.4,0.5933,0.5089,146.8,97.2,0.514
23.32,32201.6,35555.5,0.7788,1.3644,146.8,97.2,0.514
23.34,32317.8,35730.4,1.2275,1.7943,146.8,97.2,0.514
23.36,32398.2,35887.0,1.5375,2.1792,146.8,97.2,0.514
23.38,32235.1,35383.2,0.9081,0.941,146.8,97.2,0.514
23.4,32144.5,35382.5,0.5588,0.9392,146.8,97.2,0.514
23.42,32057.1,35194.0,0.2214,0.4761,146.8,97.2,0.514
23.44,32030.7,35066.2,0.1196,0.162,146.8,97.2,0.514
23.46,32036.4,35047.6,0.1413,0.1163,146.8,97.2,0.514
23.48,32071.3,34967.1,0.2762,-0.0816,146.8,97.2,0.514
23.5,31863.9,34863.6,-0.5243,-0.336,146.8,97.2,0.514
23.52,31930.9,34821.6,-0.2657,-0.4393,146.8,97.2,0.514
23.54,31917.2,34697.5,-0.3184,-0.7442,146.8,97.2,0.514
23.56,31813.6,34707.2,-0.7184,-0.7204,146.8,97.2,0.514
23.58,31875.3,34683.8,-0.48,-0.778,146.8,97.2,0.514
23.6,31830.9,34597.4,-0.6514,-0.9903,146.8,97.2,0.514
23.62,31783.9,34537.1,-0.8329,-1.1385,146.8,97.2,0.514
23.64,31712.2,34348.5,-1.1096,-1.6019,146.8,97.2,0.514
23.66,31713.4,34572.0,-1.1051,-1.0526,146.8,97.2,0.514
23.68,31820.6,34676.5,-0.6913,-0.7959,146.8,97.2,0.514
23.7,32021.9,35057.1,0.0856,0.1396,146.8,97.2,0.514
23.72,32167.8,35287.8,0.6486,0.7066,146.8,97.2,0.514
23.74,32312.8,35726.1,1.2081,1.7837,146.8,97.2,0.514
23.76,32315.8,35734.2,1.2197,1.8036,146.8,97.2,0.514
23.78,32272.0,35603.8,1.0505,1.4832,146.8,97.2,0.514
23.8,32258.3,35429.1,0.9979,1.0539,146.8,97.2,0.514
23.82,32073.5,35206.0,0.2845,0.5054,146.8,97.2,0.514
23.84,32001.5,35203.1,0.0069,0.4983,146.8,97.2,0.514
23.86,32032.2,35053.6,0.1253,0.131,146.8,97.2,0.514
23.88,32033.5,35040.3,0.1302,0.0983,146.8,97.2,0.514
23.9,31905.4,34876.2,-0.3642,-0.3051,146.8,97.2,0.514
23.92,31890.1,34843.9,-0.4229,-0.3845,146.8,97.2,0.514
23.94,31903.2,34767.2,-0.3727,-0.573,146.8,97.2,0.514
23.96,31817.0,34677.7,-0.7051,-0.793,146.8,97.2,0.514
23.98,31901.6,34705.1,-0.3786,-0.7257,146.8,97.2,0.514
24.0,31877.6,34665.1,-0.4713,-0.8238,146.8,97.2,0.514
24.02,31797.4,34572.1,-0.7809,-1.0524,146.8,97.2,0.514
24.04,31706.6,34508.9,-1.1313,-1.2078,146.8,97.2,0.514
24.06,31699.7,34422.5,-1.1577,-1.42,146.8,97.2,0.514
24.08,31795.4,34648.6,-0.7884,-0.8645,146.8,97.2,0.514
24.1,31868.7,34829.4,-0.5057,-0.4199,146.8,97.2,0.514
24.12,32115.4,35300.0,0.4465,0.7366,146.8,97.2,0.514
24.14,32243.3,35665.6,0.9397,1.6351,146.8,97.2,0.514
24.16,32366.7,35840.9,1.416,2.0659,146.8,97.2,0.514
24.18,32358.0,35645.0,1.3826,1.5845,146.8,97.2,0.514
24.2,32199.1,35585.9,0.7692,1.4392,146.8,97.2,0.514
24.22,32167.5,35379.2,0.6475,0.9311,146.8,97.2,0.514
24.24,32069.2,35209.0,0.2681,0.5128,146.8,97.2,0.514
24.26,32015.3,35073.2,0.0603,0.179,146.8,97.2,0.514
24.28,32147.7,35021.2,0.571,0.0514,146.8,97.2,0.514
24.3,32076.7,34994.2,0.2969,-0.015,146.8,97.2,0.514
24.32,31922.2,34859.6,-0.2992,-0.3457,146.8,97.2,0.514
24.34,31851.7,34678.1,-0.5713,-0.7918,146.8,97.2,0.514
24.36,31897.1,34659.6,-0.3961,-0.8375,146.8,97.2,0.514
24.38,31813.5,34664.7,-0.7188,-0.8248,146.8,97.2,0.514
24.4,31716.9,34685.4,-1.0912,-0.7739,146.8,97.2,0.514
24.42,31810.9,34591.1,-0.7287,-1.0057,146.8,97.2,0.514
24.44,31680.7,34473.7,-1.2312,-1.2942,146.8,97.2,0.514
24.46,31756.2,34603.3,-0.9398,-0.9758,146.8,97.2,0.514
24.48,31756.5,34529.2,-0.9385,-1.1579,146.8,97.2,0.514
24.5,31909.8,34781.7,-0.3472,-0.5374,146.8,97.2,0.514
24.52,31981.3,35080.7,-0.0712,0.1975,146.8,97.2,0.514
24.54,32225.9,35466.4,0.8726,1.1455,146.8,97.2,0.514
24.56,32360.1,35706.6,1.3906,1.7358,146.8,97.2,0.514
24.58,32373.2,35773.2,1.4413,1.8994,146.8,97.2,0.514
24.6,32316.6,35680.7,1.2228,1.6722,146.8,97.2,0.514
24.62,32179.2,35418.0,0.6925,1.0265,146.8,97.2,0.514
24.64,32198.3,35233.6,0.7664,0.5732,146.8,97.2,0.514
24.66,32005.0,35122.8,0.0203,0.301,146.8,97.2,0.514
24.68,32050.2,35069.1,0.1946,0.1691,146.8,97.2,0.514
24.7,32031.1,35043.0,0.1209,0.1048,146.8,97.2,0.514
24.72,31910.3,34930.9,-0.3451,-0.1707,146.8,97.2,0.514
24.74,31843.1,34806.4,-0.6044,-0.4766,146.8,97.2,0.514
24.76,31831.4,34736.3,-0.6496,-0.6489,146.8,97.2,0.514
24.78,31833.6,34665.5,-0.641,-0.8228,146.8,97.2,0.514
24.8,31949.0,34681.8,-0.1958,-0.7829,146.8,97.2,0.514
24.82,31882.6,34611.9,-0.4521,-0.9546,146.8,97.2,0.514
24.84,31894.7,34590.7,-0.4054,-1.0067,146.8,97.2,0.514
24.86,31747.8,34533.8,-0.9722,-1.1467,146.8,97.2,0.514
24.88,31776.3,34479.9,-0.8623,-1.2791,146.8,97.2,0.514
24.9,31825.2,34647.1,-0.6736,-0.8681,146.8,97.2,0.514
24.92,32025.4,34915.8,0.0992,-0.2078,146.8,97.2,0.514
24.94,32133.8,35218.9,0.5172,0.5373,146.8,97.2,0.514
24.96,32264.2,35673.3,1.0206,1.654,146.8,97.2,0.514
24.98,32382.0,35689.7,1.4749,1.6942,146.8,97.2,0.514
25.0,32280.5,35681.4,1.0833,1.6738,146.8,97.2,0.514
25.02,32269.2,35479.1,1.0399,1.1766,146.8,97.2,0.514
25.04,32161.5,35309.6,0.6243,0.7601,146.8,97.2,0.514
25.06,32220.2,35118.8,0.8508,0.2911,146.8,97.2,0.514
25.08,31971.8,34979.6,-0.1076,-0.051,146.8,97.2,0.514
25.1,31998.3,35027.6,-0.0056,0.067,146.8,97.2,0.514
25.12,31956.6,35153.5,-0.1665,0.3766,146.8,97.2,0.514
25.14,32000.8,34950.9,0.0042,-0.1214,146.8,97.2,0.514
25.16,31846.7,34725.6,-0.5905,-0.6751,146.8,97.2,0.514
25.18,31898.5,34687.3,-0.3907,-0.7693,146.8,97.2,0.514
25.2,31874.7,34630.8,-0.4824,-0.9082,146.8,97.2,0.514
25.22,31947.4,34678.3,-0.2021,-0.7915,146.8,97.2,0.514
25.24,31675.5,34604.9,-1.2513,-0.9718,146.8,97.2,0.514
25.26,31747.9,34405.1,-0.9716,-1.4629,146.8,97.2,0.514
25.28,31798.7,34480.6,-0.7758,-1.2772,146.8,97.2,0.514
25.3,31865.4,34520.2,-0.5183,-1.1801,146.8,97.2,0.514
25.32,31914.4,34836.6,-0.3293,-0.4023,146.8,97.2,0.514
25.34,32023.9,35214.1,0.0931,0.5254,146.8,97.2,0.514
25.36,32319.5,35491.4,1.2338,1.207,146.8,97.2,0.514
25.38,32302.4,35768.3,1.168,1.8874,146.8,97.2,0.514
25.4,32405.4,35733.6,1.5654,1.8022,146.8,97.2,0.514
25.42,32244.9,35727.9,0.9461,1.7883,146.8,97.2,0.514
25.44,32102.1,35374.8,0.3949,0.9204,146.8,97.2,0.514
25.46,32132.8,35238.5,0.5136,0.5853,146.8,97.2,0.514
25.48,32082.2,35203.9,0.3184,0.5003,146.8,97.2,0.514
25.5,32060.8,35127.9,0.2355,0.3134,146.8,97.2,0.514
25.52,32016.4,35018.2,0.0642,0.0439,146.8,97.2,0.514
25.54,32054.6,34875.9,0.2116,-0.3057,146.8,97.2,0.514
25.56,31926.3,34736.1,-0.2833,-0.6494,146.8,97.2,0.514
25.58,31771.1,34708.9,-0.8821,-0.7162,146.8,97.2,0.514
25.6,31783.3,34602.1,-0.8354,-0.9787,146.8,97.2,0.514
25.62,31782.5,34657.2,-0.8383,-0.8433,146.8,97.2,0.514
25.64,31802.1,34578.2,-0.7628,-1.0375,146.8,97.2,0.514
25.66,31757.9,34563.2,-0.9331,-1.0742,146.8,97.2,0.514
25.68,31726.0,34371.4,-1.0562,-1.5457,146.8,97.2,0.514
25.7,31756.7,34421.5,-0.938,-1.4226,146.8,97.2,0.514
25.72,31815.4,34725.0,-0.7111,-0.6766,146.8,97.2,0.514
25.74,32067.8,34974.1,0.2625,-0.0644,146.8,97.2,0.514
25.76,32222.9,35364.1,0.8613,0.8941,146.8,97.2,0.514
25.78,32267.8,35584.7,1.0345,1.4363,146.8,97.2,0.514
25.8,32352.5,35718.6,1.3612,1.7653,146.8,97.2,0.514
25.82,32267.5,35689.3,1.0333,1.6934,146.8,97.2,0.514
25.84,32231.5,35447.7,0.8944,1.0995,146.8,97.2,0.514
25.86,32120.8,35305.4,0.4672,0.7499,146.8,97.2,0.514
25.88,32149.7,35087.4,0.5787,0.2139,146.8,97.2,0.514
25.9,32045.5,35069.2,0.1764,0.1693,146.8,97.2,0.514
25.92,31987.4,35029.0,-0.0478,0.0705,146.8,97.2,0.514
25.94,31954.1,34831.8,-0.176,-0.4141,146.8,97.2,0.514
25.96,31966.1,34824.4,-0.1299,-0.4324,146.8,97.2,0.514
25.98,31880.9,34787.6,-0.4587,-0.5228,146.8,97.2,0.514
26.0,31811.5,34572.8,-0.7263,-1.0507,146.8,97.2,0.514
26.02,31949.5,34743.6,-0.1939,-0.6309,146.8,97.2,0.514
26.04,31840.8,34721.9,-0.6133,-0.6843,146.8,97.2,0.514
26.06,31802.7,34646.2,-0.7604,-0.8704,146.8,97.2,0.514
26.08,31864.3,34493.3,-0.5226,-1.246,146.8,97.2,0.514
26.1,31714.4,34542.1,-1.101,-1.1261,146.8,97.2,0.514
26.12,31896.9,34609.4,-0.3967,-0.9608,146.8,97.2,0.514
26.14,31916.0,34858.9,-0.3232,-0.3476,146.8,97.2,0.514
26.16,32054.6,35214.5,0.2119,0.5264,146.8,97.2,0.514
26.18,32232.5,35590.4,0.8982,1.4502,146.8,97.2,0.514
26.2,32366.9,35716.5,1.4168,1.7602,146.8,97.2,0.514
26.22,32262.1,35766.2,1.0124,1.8823,146.8,97.2,0.514
26.24,32296.6,35536.2,1.1456,1.317,146.8,97.2,0.514
26.26,32222.0,35384.9,0.8576,0.9451,146.8,97.2,0.514
26.28,32037.8,35223.8,0.1467,0.5493,146.8,97.2,0.514
26.3,32051.5,35136.9,0.1999,0.3357,146.8,97.2,0.514
26.32,31950.3,35000.5,-0.1906,0.0003,146.8,97.2,0.514
26.34,31965.8,35039.2,-0.131,0.0956,146.8,97.2,0.514
26.36,31890.8,34967.0,-0.4202,-0.0818,146.8,97.2,0.514
26.38,31897.8,34867.9,-0.3932,-0.3255,146.8,97.2,0.514
26.4,31881.5,34683.4,-0.4564,-0.7789,146.8,97.2,0.514
26.42,31895.4,34622.6,-0.4024,-0.9283,146.8,97.2,0.514
26.44,31805.3,34627.1,-0.7502,-0.9172,146.8,97.2,0.514
26.46,31790.0,34627.3,-0.8095,-0.9168,146.8,97.2,0.514
26.48,31702.1,34617.9,-1.1486,-0.9399,146.8,97.2,0.514
26.5,31695.6,34580.3,-1.1737,-1.0323,146.8,97.2,0.514
26.52,31756.6,34526.0,-0.9383,-1.1657,146.8,97.2,0.514
26.54,31849.8,34586.9,-0.5784,-1.016,146.8,97.2,0.514
26.56,32087.7,35013.8,0.3393,0.033,146.8,97.2,0.514
26.58,32168.8,35430.2,0.6525,1.0566,146.8,97.2,0.514
26.6,32327.7,35635.9,1.2655,1.562,146.8,97.2,0.514
26.62,32325.5,35794.4,1.2571,1.9517,146.8,97.2,0.514
26.64,32254.4,35602.4,0.9826,1.4797,146.8,97.2,0.514
26.66,32188.3,35432.0,0.7278,1.061,146.8,97.2,0.514
26.68,32107.8,35297.2,0.4171,0.7295,146.8,97.2,0.514
26.7,32046.6,35263.2,0.1807,0.646,146.8,97.2,0.514
26.72,32072.1,35095.5,0.2791,0.2339,146.8,97.2,0.514
26.74,32013.6,35016.5,0.0536,0.0397,146.8,97.2,0.514
26.76,31994.0,34973.3,-0.0223,-0.0664,146.8,97.2,0.514
26.78,31954.9,34820.8,-0.1729,-0.4412,146.8,97.2,0.514
26.8,31849.8,34730.8,-0.5785,-0.6624,146.8,97.2,0.514
26.82,31813.3,34707.0,-0.7196,-0.7209,146.8,97.2,0.514
26.84,31742.2,34604.0,-0.9936,-0.9741,146.8,97.2,0.514
26.86,31918.8,34626.9,-0.3124,-0.9177,146.8,97.2,0.514
26.88,31772.4,34566.1,-0.8772,-1.0673,146.8,97.2,0.514
26.9,31874.7,34493.0,-0.4823,-1.2468,146.8,97.2,0.514
26.92,31754.7,34469.1,-0.9454,-1.3055,146.8,97.2,0.514
26.94,31823.6,34512.2,-0.6797,-1.1996,146.8,97.2,0.514
26.96,31929.7,34855.1,-0.2703,-0.357,146.8,97.2,0.514
26.98,32127.4,35253.4,0.4926,0.622,146.8,97.2,0.514
27.0,32257.7,35609.9,0.9955,1.4981,146.8,97.2,0.514
27.02,32309.6,35757.8,1.1958,1.8617,146.8,97.2,0.514
27.04,32368.9,35753.2,1.4244,1.8504,146.8,97.2,0.514
27.06,32216.5,35488.9,0.8363,1.2007,146.8,97.2,0.514
27.08,32192.5,35385.8,0.7437,0.9474,146.8,97.2,0.514
27.1,32124.9,35198.5,0.483,0.4871,146.8,97.2,0.514
27.12,32079.0,35062.3,0.3059,0.1524,146.8,97.2,0.514
27.14,32053.7,35087.6,0.2084,0.2146,146.8,97.2,0.514
27.16,31873.8,35039.3,-0.486,0.0957,146.8,97.2,0.514
27.18,31900.1,34803.0,-0.3844,-0.485,146.8,97.2,0.514
27.2,31841.0,34782.6,-0.6125,-0.5352,146.8,97.2,0.514
27.22,31809.0,34643.6,-0.736,-0.8766,146.8,97.2,0.514
27.24,31809.7,34654.3,-0.7332,-0.8505,146.8,97.2,0.514
27.26,31921.6,34636.6,-0.3014,-0.8938,146.8,97.2,0.514
27.28,31853.4,34608.2,-0.5649,-0.9637,146.8,97.2,0.514
27.3,31775.8,34610.7,-0.8642,-0.9575,146.8,97.2,0.514
27.32,31750.5,34450.2,-0.9618,-1.352,146.8,97.2,0.514
27.34,31759.3,34549.0,-0.9279,-1.1093,146.8,97.2,0.514
27.36,31821.1,34682.5,-0.6892,-0.7811,146.8,97.2,0.514
27.38,32083.7,35100.9,0.3241,0.2472,146.8,97.2,0.514
27.4,32221.6,35480.9,0.8563,1.1811,146.8,97.2,0.514
27.42,32354.6,35709.2,1.3694,1.7423,146.8,97.2,0.514
27.44,32336.3,35839.6,1.2989,2.0627,146.8,97.2,0.514
27.46,32238.6,35687.3,0.9216,1.6884,146.8,97.2,0.514
27.48,32198.3,35449.3,0.7661,1.1035,146.8,97.2,0.514
27.5,32100.7,35327.8,0.3897,0.8049,146.8,97.2,0.514
27.52,31924.7,35034.5,-0.2894,0.0839,146.8,97.2,0.514
27.54,32028.4,35153.8,0.1107,0.3771,146.8,97.2,0.514
27.56,32007.8,35009.4,0.0312,0.0222,146.8,97.2,0.514
27.58,31974.5,34992.0,-0.0975,-0.0205,146.8,97.2,0.514
27.6,31816.8,34772.0,-0.7059,-0.5611,146.8,97.2,0.514
27.62,31864.2,34689.6,-0.5229,-0.7636,146.8,97.2,0.514
27.64,31891.8,34715.7,-0.4165,-0.6995,146.8,97.2,0.514
27.66,31794.9,34731.3,-0.7903,-0.6611,146.8,97.2,0.514
27.68,31919.1,34611.7,-0.3113,-0.955,146.8,97.2,0.514
27.7,31867.0,34551.0,-0.5123,-1.1043,146.8,97.2,0.514
27.72,31791.0,34504.0,-0.8055,-1.2198,146.8,97.2,0.514
27.74,31824.4,34465.8,-0.6765,-1.3136,146.8,97.2,0.514
27.76,31826.3,34607.5,-0.6692,-0.9655,146.8,97.2,0.514
27.78,31869.9,34873.6,-0.5011,-0.3114,146.8,97.2,0.514
27.8,32135.9,35356.2,0.5256,0.8746,146.8,97.2,0.514
27.82,32355.7,35673.6,1.3736,1.6547,146.8,97.2,0.514
27.84,32312.3,35826.2,1.2061,2.0298,146.8,97.2,0.514
27.86,32372.4,35661.9,1.4382,1.6259,146.8,97.2,0.514
27.88,32288.1,35588.2,1.1126,1.4448,146.8,97.2,0.514
27.9,32158.6,35298.0,0.6129,0.7317,146.8,97.2,0.514
27.92,32093.4,35209.8,0.3614,0.5147,146.8,97.2,0.514
27.94,31937.3,35151.6,-0.241,0.3718,146.8,97.2,0.514
27.96,32114.5,35058.2,0.443,0.1423,146.8,97.2,0.514
27.98,32014.6,34983.5,0.0575,-0.0413,146.8,97.2,0.514
28.0,32016.0,34834.5,0.0627,-0.4075,146.8,97.2,0.514
28.02,31816.3,34668.1,-0.7077,-0.8165,146.8,97.2,0.514
28.04,31852.6,34739.2,-0.5679,-0.6417,146.8,97.2,0.514
28.06,31827.7,34622.0,-0.664,-0.9299,146.8,97.2,0.514
28.08,31824.3,34635.7,-0.6768,-0.8961,146.8,97.2,0.514
28.1,31755.3,34585.1,-0.9432,-1.0205,146.8,97.2,0.514
28.12,31742.2,34450.9,-0.9939,-1.3504,146.8,97.2,0.514
28.14,31709.8,34467.3,-1.1187,-1.3101,146.8,97.2,0.514
28.16,31805.0,34519.9,-0.7513,-1.1807,146.8,97.2,0.514
28.18,31941.4,34791.1,-0.225,-0.5141,146.8,97.2,0.514
28.2,32024.9,35121.9,0.097,0.2988,146.8,97.2,0.514
28.22,32200.7,35436.9,0.7755,1.073,146.8,97.2,0.514
28.24,32417.7,35733.5,1.6128,1.802,146.8,97.2,0.514
28.26,32215.0,35742.7,0.8307,1.8245,146.8,97.2,0.514
28.28,32289.5,35617.0,1.1182,1.5155,146.8,97.2,0.514
28.3,32224.8,35444.5,0.8686,1.0916,146.8,97.2,0.514
28.32,32133.7,35254.7,0.5168,0.6253,146.8,97.2,0.514
28.34,32095.9,35148.3,0.3712,0.3636,146.8,97.2,0.514
28.36,32082.9,35110.7,0.321,0.2713,146.8,97.2,0.514
28.38,32050.4,35003.2,0.1953,0.0071,146.8,97.2,0.514
28.4,31950.2,34883.0,-0.1911,-0.2883,146.8,97.2,0.514
28.42,31915.9,34740.7,-0.3237,-0.638,146.8,97.2,0.514
28.44,31891.5,34726.0,-0.4176,-0.6741,146.8,97.2,0.514
28.46,31788.4,34710.7,-0.8156,-0.7118,146.8,97.2,0.514
28.48,31902.1,34617.8,-0.3766,-0.9401,146.8,97.2,0.514
28.5,31876.7,34693.0,-0.4747,-0.7554,146.8,97.2,0.514
28.52,31771.3,34567.2,-0.8815,-1.0644,146.8,97.2,0.514
28.54,31749.0,34504.4,-0.9677,-1.2187,146.8,97.2,0.514
28.56,31725.7,34519.6,-1.0575,-1.1815,146.8,97.2,0.514
28.58,31839.4,34622.6,-0.6186,-0.9282,146.8,97.2,0.514
28.6,31940.3,34925.1,-0.2292,-0.185,146.8,97.2,0.514
28.62,32150.5,35401.0,0.5817,0.9849,146.8,97.2,0.514
28.64,32255.8,35667.6,0.9881,1.6401,146.8,97.2,0.514
28.66,32434.6,35837.2,1.678,2.0569,146.8,97.2,0.514
28.68,32291.6,35669.4,1.1261,1.6445,146.8,97.2,0.514
28.7,32256.4,35537.8,0.9906,1.3209,146.8,97.2,0.514
28.72,32133.2,35333.9,0.5151,0.8199,146.8,97.2,0.514
28.74,32072.4,35212.5,0.2806,0.5214,146.8,97.2,0.514
28.76,32073.3,35165.3,0.2837,0.4055,146.8,97.2,0.514
28.78,31978.5,35017.2,-0.0819,0.0414,146.8,97.2,0.514
28.8,32003.1,34964.9,0.013,-0.0871,146.8,97.2,0.514
28.82,31992.9,34873.9,-0.0265,-0.3107,146.8,97.2,0.514
28.84,31835.9,34775.0,-0.6323,-0.5537,146.8,97.2,0.514
28.86,31828.5,34671.2,-0.6607,-0.8089,146.8,97.2,0.514
28.88,31847.8,34627.4,-0.5861,-0.9164,146.8,97.2,0.514
28.9,31788.7,34616.0,-0.8142,-0.9446,146.8,97.2,0.514
28.92,31800.9,34565.7,-0.7675,-1.0682,146.8,97.2,0.514
28.94,31661.5,34454.9,-1.3052,-1.3406,146.8,97.2,0.514
28.96,31783.1,34425.4,-0.836,-1.4131,146.8,97.2,0.514
28.98,31784.4,34576.0,-0.831,-1.0429,146.8,97.2,0.514
29.0,31926.1,34833.9,-0.2842,-0.4091,146.8,97.2,0.514
29.02,32121.9,35154.0,0.4715,0.3777,146.8,97.2,0.514
29.04,32184.1,35507.5,0.7116,1.2465,146.8,97.2,0.514
29.06,32320.1,35754.2,1.2363,1.8527,146.8,97.2,0.514
29.08,32346.0,35736.8,1.3362,1.8099,146.8,97.2,0.514
29.1,32242.3,35596.3,0.9362,1.4646,146.8,97.2,0.514
29.12,32126.2,35363.6,0.4879,0.8928,146.8,97.2,0.514
29.14,32087.0,35173.9,0.3368,0.4265,146.8,97.2,0.514
29.16,32100.7,35097.9,0.3896,0.2399,146.8,97.2,0.514
29.18,31993.3,35018.4,-0.0247,0.0445,146.8,97.2,0.514
29.2,32097.1,35014.6,0.3759,0.0351,146.8,97.2,0.514
29.22,31929.1,34899.2,-0.2725,-0.2486,146.8,97.2,0.514
29.24,31927.2,34795.9,-0.2797,-0.5024,146.8,97.2,0.514
29.26,31877.6,34747.9,-0.4715,-0.6203,146.8,97.2,0.514
29.28,31908.7,34781.1,-0.3512,-0.5387,146.8,97.2,0.514
29.3,31770.7,34718.7,-0.8838,-0.6922,146.8,97.2,0.514
29.32,31695.0,34537.5,-1.176,-1.1374,146.8,97.2,0.514
29.34,31825.3,34517.7,-0.6732,-1.1862,146.8,97.2,0.514
29.36,31710.1,34483.7,-1.1176,-1.2697,146.8,97.2,0.514
29.38,31786.2,34327.6,-0.8239,-1.6533,146.8,97.2,0.514
29.4,31874.5,34592.7,-0.4834,-1.0019,146.8,97.2,0.514
29.42,31907.7,35078.3,-0.3553,0.1916,146.8,97.2,0.514
29.44,32154.7,35455.1,0.5981,1.1177,146.8,97.2,0.514
29.46,32352.1,35699.9,1.3598,1.7193,146.8,97.2,0.514
29.48,32314.2,35764.3,1.2136,1.8776,146.8,97.2,0.514
29.5,32296.9,35592.3,1.1468,1.4548,146.8,97.2,0.514
29.52,32185.5,35505.9,0.7169,1.2427,146.8,97.2,0.514
29.54,32096.1,35283.3,0.372,0.6956,146.8,97.2,0.514
29.56,32051.9,35028.3,0.2013,0.0687,146.8,97.2,0.514
29.58,32076.5,34969.9,0.2964,-0.0747,146.8,97.2,0.514
29.6,31951.9,35060.6,-0.1844,0.1483,146.8,97.2,0.514
29.62,31786.4,34945.6,-0.8231,-0.1345,146.8,97.2,0.514
29.64,31927.2,34779.5,-0.28,-0.5427,146.8,97.2,0.514
29.66,31997.8,34721.0,-0.0074,-0.6864,146.8,97.2,0.514
29.68,31899.4,34651.2,-0.3871,-0.858,146.8,97.2,0.514
29.7,31793.6,34753.1,-0.7953,-0.6077,146.8,97.2,0.514
29.72,31823.0,34678.1,-0.682,-0.792,146.8,97.2,0.514
29.74,31827.5,34551.9,-0.6647,-1.1021,146.8,97.2,0.514
29.76,31737.0,34520.6,-1.0137,-1.179,146.8,97.2,0.514
29.78,31680.8,34431.6,-1.2308,-1.3977,146.8,97.2,0.514
29.8,31889.0,34597.2,-0.4274,-0.9907,146.8,97.2,0.514
29.82,32004.4,34875.3,0.0182,-0.3072,146.8,97.2,0.514
29.84,32107.9,35312.6,0.4174,0.7675,146.8,97.2,0.514
29.86,32219.6,35564.6,0.8486,1.3869,146.8,97.2,0.514
29.88,32354.1,35659.9,1.3673,1.6209,146.8,97.2,0.514
29.9,32335.0,35734.8,1.2938,1.8051,146.8,97.2,0.514
29.92,32292.3,35575.9,1.1291,1.4146,146.8,97.2,0.514
29.94,32232.6,35278.2,0.8987,0.6829,146.8,97.2,0.514
29.96,32108.9,35207.7,0.4213,0.5096,146.8,97.2,0.514
29.98,32128.9,35167.6,0.4982,0.4111,146.8,97.2,0.514
30.0,32104.9,35024.4,0.4059,0.0591,146.8,97.2,0.514
30.02,31947.9,35050.4,-0.2001,0.1231,146.8,97.2,0.514
30.04,31983.9,34913.8,-0.0611,-0.2127,146.8,97.2,0.514
30.06,31864.8,34822.8,-0.5206,-0.4364,146.8,97.2,0.514
30.08,31874.7,34736.6,-0.4824,-0.6482,146.8,97.2,0.514
30.1,31853.7,34670.0,-0.5635,-0.8117,146.8,97.2,0.514
30.12,31852.5,34727.1,-0.5682,-0.6714,146.8,97.2,0.514
30.14,31844.5,34556.5,-0.5988,-1.0908,146.8,97.2,0.514
30.16,31789.2,34594.4,-0.8123,-0.9977,146.8,97.2,0.514
30.18,31705.0,34493.2,-1.1372,-1.2463,146.8,97.2,0.514
30.2,31800.3,34495.4,-0.7697,-1.2408,146.8,97.2,0.514
30.22,31940.0,34757.9,-0.2307,-0.5959,146.8,97.2,0.514
30.24,32134.8,34980.1,0.5211,-0.0497,146.8,97.2,0.514
30.26,32178.6,35387.3,0.69,0.9511,146.8,97.2,0.514
30.28,32401.7,35684.3,1.5511,1.681,146.8,97.2,0.514
30.3,32331.0,35815.6,1.2782,2.0036,146.8,97.2,0.514
30.32,32292.0,35540.9,1.1277,1.3285,146.8,97.2,0.514
30.34,32213.1,35359.7,0.8233,0.8833,146.8,97.2,0.514
30.36,32165.8,35207.3,0.6407,0.5087,146.8,97.2,0.514
30.38,31968.5,35231.5,-0.1205,0.5682,146.8,97.2,0.514
30.4,32006.6,35197.5,0.0264,0.4846,146.8,97.2,0.514
30.42,32028.1,34991.1,0.1094,-0.0227,146.8,97.2,0.514
30.44,32008.9,34970.3,0.0354,-0.0739,146.8,97.2,0.514
30.46,32019.1,34864.3,0.0746,-0.3342,146.8,97.2,0.514
30.48,31937.9,34720.5,-0.2385,-0.6878,146.8,97.2,0.514
30.5,31850.4,34638.7,-0.5763,-0.8888,146.8,97.2,0.514
30.52,31833.3,34674.7,-0.6421,-0.8003,146.8,97.2,0.514
30.54,31865.7,34685.0,-0.5174,-0.7751,146.8,97.2,0.514
30.56,31746.8,34591.9,-0.9762,-1.0037,146.8,97.2,0.514
30.58,31726.8,34532.7,-1.0533,-1.1492,146.8,97.2,0.514
30.6,31650.1,34547.2,-1.3491,-1.1135,146.8,97.2,0.514
30.62,31793.6,34561.6,-0.7953,-1.0782,146.8,97.2,0.514
30.64,31873.2,34907.5,-0.4882,-0.2281,146.8,97.2,0.514
30.66,32095.9,35337.6,0.3712,0.829,146.8,97.2,0.514
30.68,32348.4,35503.5,1.3453,1.2367,146.8,97.2,0.514
30.7,32350.5,35741.8,1.3534,1.8222,146.8,97.2,0.514
30.72,32372.3,35744.6,1.4378,1.8293,146.8,97.2,0.514
30.74,32208.1,35542.8,0.8042,1.3333,146.8,97.2,0.514
30.76,32165.1,35319.1,0.6381,0.7834,146.8,97.2,0.514
30.78,32030.7,35231.5,0.1195,0.5682,146.8,97.2,0.514
30.8,32080.8,35086.3,0.3127,0.2112,146.8,97.2,0.514
30.82,32015.5,35114.7,0.0606,0.2811,146.8,97.2,0.514
30.84,31957.1,34985.0,-0.1647,-0.0376,146.8,97.2,0.514
30.86,31889.3,34812.7,-0.426,-0.4611,146.8,97.2,0.514
30.88,31924.6,34673.6,-0.2899,-0.803,146.8,97.2,0.514
30.9,31853.8,34645.8,-0.5632,-0.8712,146.8,97.2,0.514
30.92,31876.7,34687.1,-0.4746,-0.7697,146.8,97.2,0.514
30.94,31807.9,34656.2,-0.7401,-0.8458,146.8,97.2,0.514
30.96,31838.9,34617.2,-0.6208,-0.9417,146.8,97.2,0.514
30.98,31757.2,34532.9,-0.9358,-1.1489,146.8,97.2,0.514
31.0,31684.2,34525.2,-1.2177,-1.1676,146.8,97.2,0.514
31.02,31770.8,34500.3,-0.8834,-1.2288,146.8,97.2,0.514
31.04,31973.1,34670.0,-0.1027,-0.8119,146.8,97.2,0.514
31.06,32121.8,35071.9,0.4709,0.1759,146.8,97.2,0.514
31.08,32266.1,35469.5,1.0279,1.1531,146.8,97.2,0.514
31.1,32348.1,35692.3,1.3442,1.7008,146.8,97.2,0.514
31.12,32426.2,35843.8,1.6458,2.0729,146.8,97.2,0.514
31.14,32383.9,35561.8,1.4823,1.3799,146.8,97.2,0.514
31.16,32016.1,35410.9,0.0631,1.0092,146.8,97.2,0.514
31.18,32145.6,35160.6,0.5627,0.3938,146.8,97.2,0.514
31.2,32103.3,35086.5,0.3998,0.2117,146.8,97.2,0.514
31.22,32063.3,35110.9,0.2454,0.2718,146.8,97.2,0.514
31.24,32003.3,35061.8,0.0139,0.1512,146.8,97.2,0.514
31.26,31970.6,34931.2,-0.1126,-0.1699,146.8,97.2,0.514
31.28,31883.3,34757.0,-0.4495,-0.5979,146.8,97.2,0.514
31.3,31781.0,34757.5,-0.8441,-0.5968,146.8,97.2,0.514
31.32,31857.1,34583.8,-0.5506,-1.0236,146.8,97.2,0.514
31.34,31850.2,34599.7,-0.5772,-0.9846,146.8,97.2,0.514
31.36,31751.3,34636.3,-0.9586,-0.8945,146.8,97.2,0.514
31.38,31766.6,34630.0,-0.8998,-0.9102,146.8,97.2,0.514
31.4,31701.5,34443.4,-1.1508,-1.3687,146.8,97.2,0.514
31.42,31680.5,34417.5,-1.2318,-1.4323,146.8,97.2,0.514
31.44,31937.6,34600.5,-0.2397,-0.9826,146.8,97.2,0.514
31.46,31912.7,34917.5,-0.336,-0.2035,146.8,97.2,0.514
31.48,32185.0,35262.7,0.7148,0.6448,146.8,97.2,0.514
31.5,32305.2,35644.2,1.1786,1.5824,146.8,97.2,0.514
31.52,32443.3,35707.2,1.7115,1.7373,146.8,97.2,0.514
31.54,32425.8,35742.7,1.644,1.8245,146.8,97.2,0.514
31.56,32219.9,35490.0,0.8496,1.2034,146.8,97.2,0.514
31.58,32183.9,35345.6,0.7107,0.8487,146.8,97.2,0.514
31.6,32175.9,35199.8,0.6799,0.4902,146.8,97.2,0.514
31.62,32092.9,35010.0,0.3596,0.0238,146.8,97.2,0.514
31.64,32102.2,35045.1,0.3956,0.1101,146.8,97.2,0.514
31.66,32052.3,35002.6,0.203,0.0056,146.8,97.2,0.514
31.68,31977.8,34837.3,-0.0846,-0.4007,146.8,97.2,0.514
31.7,31900.6,34724.6,-0.3827,-0.6776,146.8,97.2,0.514
31.72,31847.1,34759.1,-0.5888,-0.5928,146.8,97.2,0.514
31.74,31916.4,34742.6,-0.3217,-0.6334,146.8,97.2,0.514
31.76,31924.2,34655.0,-0.2916,-0.8488,146.8,97.2,0.514
31.78,31770.4,34676.4,-0.8848,-0.7962,146.8,97.2,0.514
31.8,31718.3,34548.0,-1.0859,-1.1116,146.8,97.2,0.514
31.82,31716.8,34481.2,-1.092,-1.2759,146.8,97.2,0.514
31.84,31699.7,34576.4,-1.1579,-1.0419,146.8,97.2,0.514
31.86,31912.7,34906.3,-0.336,-0.2312,146.8,97.2,0.514
31.88,31996.9,35192.1,-0.0109,0.4713,146.8,97.2,0.514
31.9,32171.8,35552.4,0.664,1.3568,146.8,97.2,0.514
31.92,32314.7,35819.3,1.2154,2.0127,146.8,97.2,0.514
31.94,32392.7,35708.5,1.5162,1.7404,146.8,97.2,0.514
31.96,32357.5,35556.3,1.3805,1.3663,146.8,97.2,0.514
31.98,32253.7,35415.9,0.98,1.0214,146.8,97.2,0.514
32.0,32059.6,35226.2,0.2311,0.555,146.8,97.2,0.514
32.02,32083.3,35061.6,0.3223,0.1507,146.8,97.2,0.514
32.04,31999.3,35118.4,-0.0016,0.2902,146.8,97.2,0.514
32.06,32020.3,34937.6,0.0794,-0.1543,146.8,97.2,0.514
32.08,31833.4,34886.5,-0.6418,-0.2798,146.8,97.2,0.514
32.1,31866.9,34776.1,-0.5124,-0.551,146.8,97.2,0.514
32.12,31868.8,34700.8,-0.5053,-0.7361,146.8,97.2,0.514
32.14,31879.3,34738.3,-0.4645,-0.644,146.8,97.2,0.514
32.16,31888.8,34604.8,-0.428,-0.9721,146.8,97.2,0.514
32.18,31801.6,34674.4,-0.7644,-0.8011,146.8,97.2,0.514
32.2,31781.5,34521.1,-0.8421,-1.1779,146.8,97.2,0.514
32.22,31727.4,34497.3,-1.0507,-1.2362,146.8,97.2,0.514
32.24,31801.1,34440.5,-0.7663,-1.3759,146.8,97.2,0.514
32.26,31844.9,34634.2,-0.5975,-0.8999,146.8,97.2,0.514
32.28,31995.2,35018.1,-0.0174,0.0436,146.8,97.2,0.514
32.3,32091.5,35318.2,0.3542,0.7811,146.8,97.2,0.514
32.32,32242.6,35733.8,0.9374,1.8026,146.8,97.2,0.514
32.34,32323.1,35807.5,1.2478,1.9837,146.8,97.2,0.514
32.36,32256.8,35707.8,0.9919,1.7387,146.8,97.2,0.514
32.38,32203.4,35596.4,0.7858,1.4651,146.8,97.2,0.514
32.4,32215.4,35295.3,0.8323,0.725,146.8,97.2,0.514
32.42,32101.3,35195.6,0.392,0.48,146.8,97.2,0.514
32.44,32075.9,35146.0,0.2938,0.3579,146.8,97.2,0.514
32.46,32007.9,35012.0,0.0314,0.0288,146.8,97.2,0.514
32.48,31902.8,34892.2,-0.374,-0.2658,146.8,97.2,0.514
32.5,31924.2,34786.0,-0.2914,-0.5267,146.8,97.2,0.514
32.52,31863.6,34728.1,-0.5253,-0.669,146.8,97.2,0.514
32.54,31839.0,34674.9,-0.6203,-0.7997,146.8,97.2,0.514
32.56,31788.2,34659.9,-0.8164,-0.8366,146.8,97.2,0.514
32.58,31810.5,34605.3,-0.7304,-0.9708,146.8,97.2,0.514
32.6,31875.8,34597.3,-0.4783,-0.9906,146.8,97.2,0.514
32.62,31728.2,34437.8,-1.0478,-1.3826,146.8,97.2,0.514
32.64,31782.1,34464.9,-0.8398,-1.3159,146.8,97.2,0.514
32.66,31807.6,34592.7,-0.7416,-1.0017,146.8,97.2,0.514
32.68,31858.1,34841.2,-0.5467,-0.3911,146.8,97.2,0.514
32.7,32185.8,35252.8,0.7179,0.6205,146.8,97.2,0.514
32.72,32273.6,35522.8,1.0567,1.284,146.8,97.2,0.514
32.74,32353.1,35724.6,1.3635,1.78,146.8,97.2,0.514
32.76,32304.5,35758.8,1.1761,1.864,146.8,97.2,0.514
32.78,32278.3,35662.6,1.0751,1.6276,146.8,97.2,0.514
32.8,32215.9,35372.1,0.8342,0.9136,146.8,97.2,0.514
32.82,32181.1,35217.8,0.7,0.5344,146.8,97.2,0.514
32.84,31926.5,35149.1,-0.2827,0.3655,146.8,97.2,0.514
32.86,31998.8,35086.1,-0.0038,0.2109,146.8,97.2,0.514
32.88,31932.0,34971.4,-0.2615,-0.071,146.8,97.2,0.514
32.9,32009.9,34843.2,0.0391,-0.3861,146.8,97.2,0.514
32.92,31934.9,34879.0,-0.25,-0.2982,146.8,97.2,0.514
32.94,31908.8,34692.9,-0.3509,-0.7555,146.8,97.2,0.514
32.96,31828.2,34632.9,-0.6619,-0.9029,146.8,97.2,0.514
32.98,31807.7,34764.9,-0.7411,-0.5786,146.8,97.2,0.514
33.0,31793.0,34567.9,-0.7978,-1.0627,146.8,97.2,0.514
33.02,31783.9,34523.2,-0.8329,-1.1726,146.8,97.2,0.514
33.04,31735.1,34480.4,-1.0211,-1.2778,146.8,97.2,0.514
33.06,31724.3,34613.4,-1.063,-0.951,146.8,97.2,0.514
33.08,31841.0,34682.1,-0.6126,-0.7822,146.8,97.2,0.514
33.1,31964.3,34917.5,-0.1367,-0.2036,146.8,97.2,0.514
33.12,32219.4,35370.4,0.8476,0.9096,146.8,97.2,0.514
33.14,32275.1,35683.6,1.0624,1.6792,146.8,97.2,0.514
33.16,32375.9,35828.3,1.4516,2.0349,146.8,97.2,0.514
33.18,32255.0,35643.5,0.9849,1.5808,146.8,97.2,0.514
33.2,32169.4,35415.7,0.6546,1.0209,146.8,97.2,0.514
33.22,32119.7,35347.4,0.4628,0.8529,146.8,97.2,0.514
33.24,32126.9,35078.3,0.4908,0.1918,146.8,97.2,0.514
33.26,31952.2,35090.8,-0.1836,0.2223,146.8,97.2,0.514
33.28,32012.3,35009.2,0.0484,0.0219,146.8,97.2,0.514
33.3,31971.0,35006.3,-0.1111,0.0148,146.8,97.2,0.514
33.32,31884.3,34874.8,-0.4456,-0.3084,146.8,97.2,0.514
33.34,31945.5,34752.5,-0.2092,-0.609,146.8,97.2,0.514
33.36,31819.9,34744.3,-0.6939,-0.6293,146.8,97.2,0.514
33.38,31844.9,34623.6,-0.5976,-0.9258,146.8,97.2,0.514
33.4,31804.9,34593.3,-0.752,-1.0003,146.8,97.2,0.514
33.42,31733.6,34639.0,-1.0268,-0.8879,146.8,97.2,0.514
33.44,31691.3,34437.4,-1.1902,-1.3834,146.8,97.2,0.514
33.46,31793.0,34451.8,-0.7979,-1.3481,146.8,97.2,0.514
33.48,31860.1,34577.9,-0.5387,-1.0381,146.8,97.2,0.514
33.5,31974.2,34850.8,-0.0984,-0.3675,146.8,97.2,0.514
33.52,32087.0,35332.8,0.3366,0.8171,146.8,97.2,0.514
33.54,32231.2,35589.2,0.893,1.4473,146.8,97.2,0.514
33.56,32290.2,35838.8,1.1208,2.0607,146.8,97.2,0.514
33.58,32350.0,35656.7,1.3518,1.6132,146.8,97.2,0.514
33.6,32240.9,35559.1,0.9307,1.3733,146.8,97.2,0.514
33.62,32149.2,35353.7,0.5768,0.8686,146.8,97.2,0.514
33.64,32044.8,35175.0,0.1739,0.4293,146.8,97.2,0.514
33.66,31982.1,35048.0,-0.0681,0.1171,146.8,97.2,0.514
33.68,32016.8,35080.1,0.066,0.196,146.8,97.2,0.514
33.7,32004.6,35032.2,0.0188,0.0784,146.8,97.2,0.514
33.72,31993.1,34915.1,-0.0257,-0.2096,146.8,97.2,0.514
33.74,31857.5,34739.5,-0.5488,-0.6411,146.8,97.2,0.514
33.76,31889.0,34649.5,-0.4272,-0.8622,146.8,97.2,0.514
33.78,31830.2,34659.5,-0.6542,-0.8377,146.8,97.2,0.514
33.8,31898.7,34712.0,-0.3899,-0.7085,146.8,97.2,0.514
33.82,31798.2,34645.1,-0.7779,-0.8729,146.8,97.2,0.514
33.84,31729.3,34529.0,-1.0435,-1.1582,146.8,97.2,0.514
33.86,31722.2,34430.4,-1.0711,-1.4006,146.8,97.2,0.514
33.88,31813.5,34453.4,-0.7188,-1.3441,146.8,97.2,0.514
33.9,31827.0,34778.6,-0.6664,-0.545,146.8,97.2,0.514
33.92,32151.4,35134.5,0.5851,0.3297,146.8,97.2,0.514
33.94,32216.2,35474.4,0.8352,1.165,146.8,97.2,0.514
33.96,32352.6,35623.9,1.3615,1.5327,146.8,97.2,0.514
33.98,32332.9,35755.2,1.2855,1.8553,146.8,97.2,0.514
34.0,32295.8,35620.6,1.1426,1.5244,146.8,97.2,0.514
34.02,32208.0,35494.3,0.8038,1.2141,146.8,97.2,0.514
34.04,32099.2,35216.9,0.3839,0.5323,146.8,97.2,0.514
34.06,32091.8,35144.4,0.3553,0.3541,146.8,97.2,0.514
34.08,32072.7,35075.3,0.2816,0.1842,146.8,97.2,0.514
34.1,31954.5,34980.4,-0.1745,-0.0489,146.8,97.2,0.514
34.12,31966.5,34952.0,-0.1281,-0.1188,146.8,97.2,0.514
34.14,31902.3,34823.6,-0.3761,-0.4344,146.8,97.2,0.514
34.16,31933.1,34715.5,-0.2572,-0.7,146.8,97.2,0.514
34.18,31921.5,34688.4,-0.302,-0.7667,146.8,97.2,0.514
34.2,31907.8,34756.1,-0.3546,-0.6002,146.8,97.2,0.514
34.22,31888.3,34555.9,-0.4301,-1.0923,146.8,97.2,0.514
34.24,31780.3,34597.9,-0.847,-0.9891,146.8,97.2,0.514
34.26,31711.7,34396.0,-1.1116,-1.4852,146.8,97.2,0.514
34.28,31721.5,34495.1,-1.0737,-1.2417,146.8,97.2,0.514
34.3,31803.5,34592.1,-0.7573,-1.0032,146.8,97.2,0.514
34.32,31888.2,34940.9,-0.4305,-0.146,146.8,97.2,0.514
34.34,32158.9,35311.2,0.6142,0.764,146.8,97.2,0.514
34.36,32257.4,35647.9,0.9944,1.5916,146.8,97.2,0.514
34.38,32351.6,35798.0,1.3579,1.9605,146.8,97.2,0.514
34.4,32367.5,35659.2,1.4192,1.6194,146.8,97.2,0.514
34.42,32234.2,35567.3,0.9048,1.3935,146.8,97.2,0.514
34.44,32230.1,35187.3,0.8889,0.4595,146.8,97.2,0.514
34.46,32055.4,35134.2,0.2147,0.329,146.8,97.2,0.514
34.48,32094.2,35054.8,0.3647,0.1338,146.8,97.2,0.514
34.5,32023.0,35101.5,0.0898,0.2487,146.8,97.2,0.514
34.52,31945.1,35057.6,-0.211,0.1407,146.8,97.2,0.514
34.54,31941.5,34835.0,-0.2249,-0.4062,146.8,97.2,0.514
34.56,31903.9,34758.4,-0.3698,-0.5947,146.8,97.2,0.514
34.58,31832.5,34706.4,-0.6452,-0.7224,146.8,97.2,0.514
34.6,31780.2,34744.9,-0.8472,-0.6277,146.8,97.2,0.514
34.62,31853.5,34698.6,-0.5642,-0.7415,146.8,97.2,0.514
34.64,31807.7,34607.3,-0.7411,-0.9658,146.8,97.2,0.514
34.66,31831.0,34468.4,-0.6512,-1.3073,146.8,97.2,0.514
34.68,31752.4,34455.2,-0.9543,-1.3397,146.8,97.2,0.514
34.7,31750.9,34551.0,-0.9604,-1.1044,146.8,97.2,0.514
34.72,31945.1,34687.0,-0.2109,-0.77,146.8,97.2,0.514
34.74,32073.0,35101.8,0.2827,0.2495,146.8,97.2,0.514
34.76,32249.2,35557.1,0.9626,1.3685,146.8,97.2,0.514
34.78,32268.9,35794.5,1.0388,1.9517,146.8,97.2,0.514
34.8,32422.7,35785.2,1.6322,1.9289,146.8,97.2,0.514
34.82,32278.1,35578.3,1.0741,1.4204,146.8,97.2,0.514
34.84,32176.7,35461.9,0.6829,1.1344,146.8,97.2,0.514
34.86,32119.0,35181.4,0.4601,0.4449,146.8,97.2,0.514
34.88,32117.0,35066.1,0.4525,0.1616,146.8,97.2,0.514
34.9,32063.4,35190.1,0.2455,0.4665,146.8,97.2,0.514
34.92,32095.5,35011.7,0.3696,0.0279,146.8,97.2,0.514
34.94,31942.9,34898.1,-0.2195,-0.2512,146.8,97.2,0.514
34.96,31850.5,34785.9,-0.5758,-0.5269,146.8,97.2,0.514
34.98,31862.7,34713.4,-0.529,-0.7051,146.8,97.2,0.514
35.0,31867.5,34684.7,-0.5102,-0.7757,146.8,97.2,0.514
35.02,31876.2,34690.2,-0.4768,-0.7621,146.8,97.2,0.514
35.04,31808.7,34569.2,-0.7371,-1.0595,146.8,97.2,0.514
35.06,31825.8,34526.2,-0.6713,-1.1653,146.8,97.2,0.514
35.08,31798.5,34413.4,-0.7764,-1.4425,146.8,97.2,0.514
35.1,31756.8,34521.4,-0.9375,-1.1771,146.8,97.2,0.514
35.12,31857.7,34619.9,-0.5481,-0.935,146.8,97.2,0.514
35.14,32026.3,35031.7,0.1026,0.077,146.8,97.2,0.514
35.16,32164.7,35311.0,0.6367,0.7635,146.8,97.2,0.514
35.18,32387.2,35630.2,1.495,1.5481,146.8,97.2,0.514
35.2,32244.4,35827.1,0.9439,2.0319,146.8,97.2,0.514
35.22,32347.8,35630.6,1.3431,1.5491,146.8,97.2,0.514
35.24,32204.1,35478.3,0.7888,1.1747,146.8,97.2,0.514
35.26,32144.2,35248.2,0.5575,0.6091,146.8,97.2,0.514
35.28,32142.5,35148.6,0.5507,0.3645,146.8,97.2,0.514
35.3,32137.1,35195.9,0.5302,0.4807,146.8,97.2,0.514
35.32,31995.2,34977.8,-0.0175,-0.0554,146.8,97.2,0.514
35.34,32006.1,34926.0,0.0244,-0.1826,146.8,97.2,0.514
35.36,31897.1,34729.0,-0.3962,-0.6668,146.8,97.2,0.514
35.38,31957.5,34800.5,-0.1628,-0.4912,146.8,97.2,0.514
35.4,31791.1,34684.8,-0.8051,-0.7754,146.8,97.2,0.514
35.42,31780.6,34655.4,-0.8454,-0.8476,146.8,97.2,0.514
35.44,31797.7,34582.0,-0.7796,-1.0282,146.8,97.2,0.514
35.46,31776.9,34630.8,-0.86,-0.9083,146.8,97.2,0.514
35.48,31745.6,34464.0,-0.9806,-1.3182,146.8,97.2,0.514
35.5,31713.1,34450.9,-1.1062,-1.3503,146.8,97.2,0.514
35.52,31743.1,34483.6,-0.9904,-1.2699,146.8,97.2,0.514
35.54,31770.7,34859.2,-0.8836,-0.3467,146.8,97.2,0.514
35.56,32117.0,35208.6,0.4524,0.5118,146.8,97.2,0.514
35.58,32256.6,35541.7,0.9911,1.3306,146.8,97.2,0.514
35.6,32337.6,35712.1,1.3038,1.7493,146.8,97.2,0.514
35.62,32441.5,35746.0,1.7047,1.8328,146.8,97.2,0.514
35.64,32309.1,35549.5,1.1938,1.3498,146.8,97.2,0.514
35.66,32181.8,35351.1,0.7027,0.8622,146.8,97.2,0.514
35.68,32176.6,35108.1,0.6825,0.2649,146.8,97.2,0.514
35.7,32132.0,35100.2,0.5105,0.2454,146.8,97.2,0.514
35.72,32021.8,35105.1,0.0851,0.2575,146.8,97.2,0.514
35.74,31967.3,35078.5,-0.1253,0.1921,146.8,97.2,0.514
35.76,31855.8,34835.4,-0.5555,-0.4054,146.8,97.2,0.514
35.78,31853.0,34726.3,-0.5661,-0.6734,146.8,97.2,0.514
35.8,31841.9,34629.1,-0.609,-0.9124,146.8,97.2,0.514
35.82,31864.1,34707.8,-0.5233,-0.719,146.8,97.2,0.514
35.84,31830.6,34573.4,-0.6526,-1.0492,146.8,97.2,0.514
35.86,31790.9,34647.3,-0.8059,-0.8675,146.8,97.2,0.514
35.88,31886.1,34535.4,-0.4387,-1.1428,146.8,97.2,0.514
35.9,31765.0,34437.9,-0.9058,-1.3822,146.8,97.2,0.514
35.92,31707.0,34500.7,-1.1295,-1.2278,146.8,97.2,0.514
35.94,31860.1,34703.8,-0.539,-0.7287,146.8,97.2,0.514
35.96,31949.5,35055.7,-0.194,0.1361,146.8,97.2,0.514
35.98,32195.1,35365.2,0.7537,0.8969,146.8,97.2,0.514
36.0,32305.9,35624.4,1.1813,1.5339,146.8,97.2,0.514
36.02,32340.5,35729.0,1.315,1.7909,146.8,97.2,0.514
36.04,32246.4,35572.4,0.9519,1.4059,146.8,97.2,0.514
36.06,32242.3,35392.8,0.9362,0.9645,146.8,97.2,0.514
36.08,32165.3,35394.9,0.639,0.9697,146.8,97.2,0.514
36.1,32131.8,35103.9,0.5095,0.2547,146.8,97.2,0.514
36.12,32059.9,35107.0,0.2323,0.2623,146.8,97.2,0.514
36.14,32040.4,34945.9,0.157,-0.1338,146.8,97.2,0.514
36.16,31994.6,34982.3,-0.0197,-0.0442,146.8,97.2,0.514
36.18,31933.0,34813.8,-0.2575,-0.4584,146.8,97.2,0.514
36.2,31858.5,34654.4,-0.545,-0.8501,146.8,97.2,0.514
36.22,31788.1,34775.3,-0.8166,-0.553,146.8,97.2,0.514
36.24,31828.2,34598.0,-0.662,-0.9889,146.8,97.2,0.514
36.26,31876.4,34590.2,-0.4758,-1.0079,146.8,97.2,0.514
36.28,31892.2,34718.4,-0.4149,-0.693,146.8,97.2,0.514
36.3,31782.6,34503.7,-0.838,-1.2205,146.8,97.2,0.514
36.32,31668.1,34445.8,-1.2796,-1.3628,146.8,97.2,0.514
36.34,31739.7,34578.0,-1.0036,-1.0378,146.8,97.2,0.514
36.36,31876.4,34868.0,-0.4758,-0.3252,146.8,97.2,0.514
36.38,32141.8,35255.8,0.5484,0.6279,146.8,97.2,0.514
36.4,32255.7,35627.1,0.9877,1.5403,146.8,97.2,0.514
36.42,32311.6,35763.8,1.2033,1.8764,146.8,97.2,0.514
36.44,32305.1,35646.6,1.1784,1.5883,146.8,97.2,0.514
36.46,32274.2,35638.4,1.0591,1.5683,146.8,97.2,0.514
36.48,32154.2,35308.0,0.596,0.7562,146.8,97.2,0.514
36.5,32058.6,35091.7,0.227,0.2246,146.8,97.2,0.514
36.52,32110.1,35130.8,0.4259,0.3207,146.8,97.2,0.514
36.54,32003.9,35051.8,0.0163,0.1265,146.8,97.2,0.514
36.56,31920.1,35046.7,-0.3072,0.114,146.8,97.2,0.514
36.58,31935.1,34908.5,-0.2492,-0.2256,146.8,97.2,0.514
36.6,31867.4,34772.3,-0.5107,-0.5603,146.8,97.2,0.514
36.62,31846.5,34547.6,-0.5915,-1.1128,146.8,97.2,0.514
36.64,31783.5,34699.6,-0.8345,-0.7392,146.8,97.2,0.514
36.66,31866.3,34678.4,-0.515,-0.7912,146.8,97.2,0.514
36.68,31877.2,34569.8,-0.4729,-1.0581,146.8,97.2,0.514
36.7,31771.5,34521.9,-0.8806,-1.1757,146.8,97.2,0.514
36.72,31766.1,34422.5,-0.9015,-1.4201,146.8,97.2,0.514
36.74,31697.1,34518.9,-1.1679,-1.1831,146.8,97.2,0.514
36.76,31878.4,34721.8,-0.4682,-0.6844,146.8,97.2,0.514
36.78,32077.8,35170.8,0.3012,0.4191,146.8,97.2,0.514
36.8,32195.9,35395.7,0.7569,0.9718,146.8,97.2,0.514
36.82,32384.1,35672.9,1.4831,1.653,146.8,97.2,0.514
36.84,32357.8,35794.6,1.3817,1.9521,146.8,97.2,0.514
36.86,32352.2,35665.5,1.36,1.6347,146.8,97.2,0.514
36.88,32222.1,35430.4,0.858,1.057,146.8,97.2,0.514
36.9,32123.8,35235.2,0.4786,0.5771,146.8,97.2,0.514
36.92,32102.3,35120.8,0.3957,0.2961,146.8,97.2,0.514
36.94,32088.4,35109.3,0.3422,0.2679,146.8,97.2,0.514
36.96,31946.6,34987.1,-0.2052,-0.0325,146.8,97.2,0.514
36.98,31933.7,34924.1,-0.2549,-0.1872,146.8,97.2,0.514
37.0,31883.1,34804.2,-0.4501,-0.4819,146.8,97.2,0.514
37.02,31827.6,34694.1,-0.6642,-0.7527,146.8,97.2,0.514
37.04,31811.3,34626.3,-0.727,-0.9191,146.8,97.2,0.514
37.06,31823.3,34677.3,-0.6809,-0.794,146.8,97.2,0.514
37.08,31762.2,34630.2,-0.9165,-0.9096,146.8,97.2,0.514
37.1,31903.7,34520.3,-0.3707,-1.1799,146.8,97.2,0.514
37.12,31785.8,34529.5,-0.8254,-1.1572,146.8,97.2,0.514
37.14,31726.2,34475.2,-1.0554,-1.2905,146.8,97.2,0.514
37.16,31811.0,34662.0,-0.7283,-0.8316,146.8,97.2,0.514
37.18,31946.2,34890.0,-0.2067,-0.2712,146.8,97.2,0.514
37.2,32153.2,35290.3,0.5923,0.7127,146.8,97.2,0.514
37.22,32318.5,35617.5,1.23,1.5168,146.8,97.2,0.514
37.24,32301.5,35751.2,1.1643,1.8455,146.8,97.2,0.514
37.26,32323.8,35752.1,1.2506,1.8476,146.8,97.2,0.514
37.28,32258.9,35516.2,0.9999,1.2678,146.8,97.2,0.514
37.3,32152.7,35209.2,0.5903,0.5134,146.8,97.2,0.514
37.32,32131.8,35228.1,0.5096,0.5598,146.8,97.2,0.514
37.34,32035.6,35148.6,0.1384,0.3645,146.8,97.2,0.514
37.36,32063.6,35035.6,0.2463,0.0866,146.8,97.2,0.514
37.38,32000.9,34919.5,0.0045,-0.1987,146.8,97.2,0.514
37.4,31926.3,34880.8,-0.2836,-0.2937,146.8,97.2,0.514
37.42,31844.0,34712.9,-0.601,-0.7064,146.8,97.2,0.514
37.44,31797.7,34658.5,-0.7798,-0.8401,146.8,97.2,0.514
37.46,31782.8,34636.9,-0.8373,-0.8932,146.8,97.2,0.514
37.48,31864.4,34586.9,-0.5224,-1.016,146.8,97.2,0.514
37.5,31771.2,34597.2,-0.8818,-0.9908,146.8,97.2,0.514
37.52,31755.5,34540.3,-0.9424,-1.1305,146.8,97.2,0.514
37.54,31653.9,34375.0,-1.3343,-1.537,146.8,97.2,0.514
37.56,31848.6,34526.4,-0.5832,-1.1647,146.8,97.2,0.514
37.58,31832.1,34737.2,-0.6468,-0.6466,146.8,97.2,0.514
37.6,32089.1,35037.3,0.3447,0.0908,146.8,97.2,0.514
37.62,32222.7,35465.9,0.8604,1.1443,146.8,97.2,0.514
37.64,32395.4,35659.1,1.5267,1.6192,146.8,97.2,0.514
37.66,32293.1,35776.6,1.132,1.9079,146.8,97.2,0.514
37.68,32267.1,35558.9,1.0316,1.3728,146.8,97.2,0.514
37.7,32218.9,35341.0,0.8457,0.8372,146.8,97.2,0.514
37.72,32217.9,35335.7,0.842,0.8242,146.8,97.2,0.514
37.74,32067.7,35038.7,0.2624,0.0943,146.8,97.2,0.514
37.76,32017.4,35119.4,0.068,0.2928,146.8,97.2,0.514
37.78,31958.2,35087.9,-0.1604,0.2152,146.8,97.2,0.514
37.8,31872.7,34925.0,-0.4904,-0.1852,146.8,97.2,0.514
37.82,31943.3,34873.1,-0.2178,-0.3127,146.8,97.2,0.514
37.84,31876.2,34696.4,-0.4767,-0.7469,146.8,97.2,0.514
37.86,31847.9,34733.7,-0.5861,-0.6553,146.8,97.2,0.514
37.88,31828.3,34628.7,-0.6615,-0.9134,146.8,97.2,0.514
37.9,31818.4,34682.2,-0.6998,-0.7818,146.8,97.2,0.514
37.92,31827.9,34602.3,-0.6631,-0.9782,146.8,97.2,0.514
37.94,31713.4,34533.1,-1.105,-1.1482,146.8,97.2,0.514
37.96,31728.0,34471.4,-1.0485,-1.2999,146.8,97.2,0.514
37.98,31868.1,34643.1,-0.5081,-0.8778,146.8,97.2,0.514
38.0,32030.4,34947.7,0.1183,-0.1294,146.8,97.2,0.514
38.02,32136.9,35327.0,0.5294,0.8029,146.8,97.2,0.514
38.04,32178.8,35622.3,0.691,1.5286,146.8,97.2,0.514
38.06,32361.5,35802.8,1.3958,1.9722,146.8,97.2,0.514
38.08,32346.7,35662.3,1.3391,1.6269,146.8,97.2,0.514
38.1,32240.3,35382.3,0.9284,0.9389,146.8,97.2,0.514
38.12,32169.2,35326.2,0.654,0.8009,146.8,97.2,0.514
38.14,32051.8,35117.2,0.2008,0.2872,146.8,97.2,0.514
38.16,32070.3,35098.0,0.2722,0.2401,146.8,97.2,0.514
38.18,32032.2,35026.3,0.1252,0.0638,146.8,97.2,0.514
38.2,31994.7,35091.2,-0.0195,0.2234,146.8,97.2,0.514
38.22,31978.3,34791.2,-0.0827,-0.5139,146.8,97.2,0.514
38.24,31966.7,34731.9,-0.1275,-0.6596,146.8,97.2,0.514
38.26,31851.0,34573.6,-0.5739,-1.0487,146.8,97.2,0.514
38.28,31883.9,34675.6,-0.4469,-0.7979,146.8,97.2,0.514
38.3,31840.1,34670.2,-0.616,-0.8113,146.8,97.2,0.514
38.32,31839.4,34484.0,-0.6189,-1.269,146.8,97.2,0.514
38.34,31724.6,34453.9,-1.0618,-1.3429,146.8,97.2,0.514
38.36,31754.6,34398.2,-0.9459,-1.4799,146.8,97.2,0.514
38.38,31694.8,34517.2,-1.1765,-1.1875,146.8,97.2,0.514
38.4,31930.7,34796.1,-0.2665,-0.5019,146.8,97.2,0.514
38.42,32118.7,35214.6,0.4592,0.5265,146.8,97.2,0.514
38.44,32176.8,35554.4,0.6833,1.3617,146.8,97.2,0.514
38.46,32351.9,35787.8,1.3591,1.9354,146.8,97.2,0.514
38.48,32342.1,35710.3,1.321,1.7449,146.8,97.2,0.514
38.5,32285.9,35589.8,1.1041,1.4487,146.8,97.2,0.514
38.52,32123.5,35438.8,0.4777,1.0776,146.8,97.2,0.514
38.54,32072.1,35187.8,0.2793,0.4607,146.8,97.2,0.514
38.56,32094.0,35177.8,0.3639,0.4362,146.8,97.2,0.514
38.58,32077.4,35175.5,0.2999,0.4305,146.8,97.2,0.514
38.6,31955.0,35024.3,-0.1726,0.059,146.8,97.2,0.514
38.62,31900.5,34907.8,-0.3828,-0.2273,146.8,97.2,0.514
38.64,31879.0,34879.1,-0.466,-0.2978,146.8,97.2,0.514
38.66,31935.1,34614.7,-0.2493,-0.9477,146.8,97.2,0.514
38.68,31891.0,34689.7,-0.4196,-0.7634,146.8,97.2,0.514
38.7,31762.9,34697.7,-0.9139,-0.7437,146.8,97.2,0.514
38.72,31793.2,34562.4,-0.7968,-1.0763,146.8,97.2,0.514
38.74,31804.7,34430.5,-0.7526,-1.4004,146.8,97.2,0.514
38.76,31709.2,34468.4,-1.1211,-1.3074,146.8,97.2,0.514
38.78,31741.6,34476.6,-0.996,-1.287,146.8,97.2,0.514
38.8,31861.7,34667.5,-0.5326,-0.818,146.8,97.2,0.514
38.82,32020.8,34938.8,0.0811,-0.1511,146.8,97.2,0.514
38.84,32152.9,35532.2,0.591,1.3071,146.8,97.2,0.514
38.86,32288.5,35771.0,1.1143,1.894,146.8,97.2,0.514
38.88,32347.5,35718.6,1.3418,1.7652,146.8,97.2,0.514
38.9,32323.2,35712.9,1.2481,1.7512,146.8,97.2,0.514
38.92,32132.7,35483.5,0.5133,1.1875,146.8,97.2,0.514
38.94,32142.5,35272.4,0.5508,0.6687,146.8,97.2,0.514
38.96,32018.8,35150.3,0.0737,0.3686,146.8,97.2,0.514
38.98,32040.1,35169.2,0.1558,0.415,146.8,97.2,0.514
39.0,32047.6,35081.1,0.1848,0.1986,146.8,97.2,0.514
39.02,32036.3,34889.2,0.141,-0.2732,146.8,97.2,0.514
39.04,31887.3,34820.2,-0.4338,-0.4428,146.8,97.2,0.514
39.06,31752.8,34746.2,-0.9528,-0.6246,146.8,97.2,0.514
39.08,31807.2,34650.5,-0.7429,-0.8598,146.8,97.2,0.514
39.1,31842.1,34663.3,-0.6084,-0.8283,146.8,97.2,0.514
39.12,31844.6,34535.7,-0.5988,-1.142,146.8,97.2,0.514
39.14,31772.2,34605.1,-0.8779,-0.9713,146.8,97.2,0.514
39.16,31771.3,34441.6,-0.8814,-1.3731,146.8,97.2,0.514
39.18,31617.2,34390.6,-1.4762,-1.4985,146.8,97.2,0.514
39.2,31780.2,34640.0,-0.8472,-0.8856,146.8,97.2,0.514
39.22,31885.0,34750.0,-0.4428,-0.6152,146.8,97.2,0.514
39.24,32067.2,35174.2,0.2605,0.4274,146.8,97.2,0.514
39.26,32306.1,35626.6,1.182,1.5391,146.8,97.2,0.514
39.28,32353.5,35759.6,1.3652,1.866,146.8,97.2,0.514
39.3,32388.0,35723.3,1.4983,1.7769,146.8,97.2,0.514
39.32,32278.0,35512.0,1.0737,1.2575,146.8,97.2,0.514
39.34,32049.0,35347.5,0.19,0.8533,146.8,97.2,0.514
39.36,32076.4,35159.5,0.296,0.3913,146.8,97.2,0.514
39.38,32124.8,35054.5,0.4826,0.1332,146.8,97.2,0.514
39.4,32009.3,35043.6,0.0368,0.1063,146.8,97.2,0.514
39.42,31992.4,34974.8,-0.0285,-0.0626,146.8,97.2,0.514
39.44,31935.6,34708.8,-0.2476,-0.7165,146.8,97.2,0.514
39.46,31883.6,34743.8,-0.4481,-0.6304,146.8,97.2,0.514
39.48,31871.2,34757.4,-0.4962,-0.597,146.8,97.2,0.514
39.5,31834.0,34696.7,-0.6396,-0.7462,146.8,97.2,0.514
39.52,31793.2,34658.4,-0.7971,-0.8404,146.8,97.2,0.514
39.54,31772.2,34634.7,-0.878,-0.8986,146.8,97.2,0.514
39.56,31842.8,34446.3,-0.6056,-1.3617,146.8,97.2,0.514
39.58,31710.4,34452.1,-1.1166,-1.3474,146.8,97.2,0.514
39.6,31729.1,34495.3,-1.0442,-1.2413,146.8,97.2,0.514
39.62,31836.7,34703.4,-0.6292,-0.7298,146.8,97.2,0.514
39.64,32007.6,35055.9,0.0303,0.1367,146.8,97.2,0.514
39.66,32281.9,35374.4,1.0887,0.9193,146.8,97.2,0.514
39.68,32310.0,35583.6,1.1974,1.4334,146.8,97.2,0.514
39.7,32261.4,35838.8,1.0096,2.0607,146.8,97.2,0.514
39.72,32468.3,35608.1,1.8081,1.4938,146.8,97.2,0.514
39.74,32201.0,35521.2,0.7768,1.28,146.8,97.2,0.514
39.76,32123.3,35247.2,0.4768,0.6068,146.8,97.2,0.514
39.78,32159.6,35106.4,0.6171,0.2606,146.8,97.2,0.514
39.8,32032.5,35137.8,0.1263,0.3379,146.8,97.2,0.514
39.82,32004.2,35085.7,0.0173,0.2097,146.8,97.2,0.514
39.84,32024.2,34957.5,0.0943,-0.1053,146.8,97.2,0.514
39.86,31949.8,34840.5,-0.1926,-0.3929,146.8,97.2,0.514
39.88,31820.2,34782.5,-0.6927,-0.5353,146.8,97.2,0.514
39.9,31812.8,34702.7,-0.7212,-0.7315,146.8,97.2,0.514
39.92,31827.0,34664.3,-0.6664,-0.8258,146.8,97.2,0.514
39.94,31853.5,34563.6,-0.5641,-1.0733,146.8,97.2,0.514
39.96,31778.9,34543.7,-0.8521,-1.1223,146.8,97.2,0.514
39.98,31735.9,34489.9,-1.0181,-1.2546,146.8,97.2,0.514
40.0,31851.5,34403.5,-0.572,-1.4668,146.8,97.2,0.514
40.02,31837.5,34565.9,-0.626,-1.0677,146.8,97.2,0.514
40.04,31997.4,34958.4,-0.009,-0.103,146.8,97.2,0.514
40.06,32080.5,35319.9,0.3118,0.7855,146.8,97.2,0.514
40.08,32156.3,35711.1,0.604,1.7468,146.8,97.2,0.514
40.1,32388.5,35704.4,1.5003,1.7303,146.8,97.2,0.514
40.12,32435.9,35680.6,1.6829,1.6719,146.8,97.2,0.514
40.14,32259.6,35657.7,1.0028,1.6156,146.8,97.2,0.514
40.16,32210.5,35379.6,0.8131,0.9321,146.8,97.2,0.514
40.18,32067.5,35175.9,0.2615,0.4315,146.8,97.2,0.514
40.2,31975.1,35086.2,-0.095,0.2111,146.8,97.2,0.514
40.22,32014.1,35031.2,0.0555,0.0759,146.8,97.2,0.514
40.24,31994.8,34950.6,-0.0191,-0.1222,146.8,97.2,0.514
40.26,31936.6,34925.9,-0.2435,-0.1829,146.8,97.2,0.514
40.28,31963.7,34684.4,-0.1389,-0.7764,146.8,97.2,0.514
40.3,31831.1,34706.5,-0.6506,-0.7222,146.8,97.2,0.514
40.32,31780.9,34676.2,-0.8446,-0.7965,146.8,97.2,0.514
40.34,31860.1,34700.9,-0.5386,-0.7359,146.8,97.2,0.514
40.36,31868.9,34618.8,-0.5051,-0.9376,146.8,97.2,0.514
40.38,31744.8,34527.5,-0.9839,-1.1619,146.8,97.2,0.514
40.4,31678.4,34548.3,-1.2399,-1.111,146.8,97.2,0.514
40.42,31784.7,34559.5,-0.8299,-1.0835,146.8,97.2,0.514
40.44,31852.7,34703.6,-0.5672,-0.7292,146.8,97.2,0.514
40.46,32137.3,35189.9,0.5309,0.4658,146.8,97.2,0.514
40.48,32209.3,35442.4,0.8086,1.0866,146.8,97.2,0.514
40.5,32333.1,35682.3,1.2864,1.676,146.8,97.2,0.514
40.52,32464.3,35798.6,1.7927,1.962,146.8,97.2,0.514
40.54,32241.8,35652.7,0.9342,1.6033,146.8,97.2,0.514
40.56,32197.1,35432.3,0.7618,1.0616,146.8,97.2,0.514
40.58,32073.1,35271.9,0.2831,0.6676,146.8,97.2,0.514
40.6,32057.9,35174.1,0.2246,0.4271,146.8,97.2,0.514
40.62,32026.4,35005.8,0.1031,0.0134,146.8,97.2,0.514
40.64,32051.1,35021.0,0.1982,0.0509,146.8,97.2,0.514
40.66,31920.7,34903.5,-0.3048,-0.238,146.8,97.2,0.514
40.68,31871.4,34852.4,-0.4954,-0.3635,146.8,97.2,0.514
40.7,31895.8,34772.7,-0.4011,-0.5595,146.8,97.2,0.514
40.72,31820.8,34613.3,-0.6903,-0.9512,146.8,97.2,0.514
40.74,31783.9,34606.2,-0.8328,-0.9685,146.8,97.2,0.514
40.76,31829.3,34695.2,-0.6577,-0.75,146.8,97.2,0.514
40.78,31721.8,34456.4,-1.0724,-1.3367,146.8,97.2,0.514
40.8,31754.1,34483.0,-0.9478,-1.2713,146.8,97.2,0.514
40.82,31754.5,34500.8,-0.9464,-1.2276,146.8,97.2,0.514
40.84,31826.3,34713.2,-0.6692,-0.7055,146.8,97.2,0.514
40.86,31902.2,34934.8,-0.3764,-0.161,146.8,97.2,0.514
40.88,32128.1,35329.7,0.4952,0.8096,146.8,97.2,0.514
40.9,32312.1,35654.4,1.2056,1.6076,146.8,97.2,0.514
40.92,32380.7,35713.4,1.4702,1.7524,146.8,97.2,0.514
40.94,32351.6,35661.3,1.3578,1.6244,146.8,97.2,0.514
40.96,32270.3,35589.8,1.0441,1.4486,146.8,97.2,0.514
40.98,32162.4,35330.8,0.6275,0.8122,146.8,97.2,0.514
41.0,32122.7,35141.8,0.4743,0.3476,146.8,97.2,0.514
41.02,32130.2,35193.9,0.5036,0.4758,146.8,97.2,0.514
41.04,31948.0,35055.1,-0.1995,0.1346,146.8,97.2,0.514
41.06,31906.1,34936.8,-0.3612,-0.156,146.8,97.2,0.514
41.08,31957.8,34837.0,-0.1618,-0.4015,146.8,97.2,0.514
41.1,31894.9,34706.2,-0.4046,-0.7229,146.8,97.2,0.514
41.12,31777.5,34739.9,-0.8577,-0.64,146.8,97.2,0.514
41.14,31772.5,34654.0,-0.8769,-0.8513,146.8,97.2,0.514
41.16,31802.1,34681.1,-0.7626,-0.7846,146.8,97.2,0.514
41.18,31798.7,34582.6,-0.7758,-1.0265,146.8,97.2,0.514
41.2,31826.0,34500.3,-0.6704,-1.2288,146.8,97.2,0.514
41.22,31778.6,34455.7,-0.8534,-1.3384,146.8,97.2,0.514
41.24,31736.8,34524.2,-1.0146,-1.1701,146.8,97.2,0.514
41.26,31928.6,34849.0,-0.2746,-0.3718,146.8,97.2,0.514
41.28,32087.3,35239.9,0.3378,0.5888,146.8,97.2,0.514
41.3,32273.9,35541.6,1.0581,1.3302,146.8,97.2,0.514
41.32,32284.5,35643.3,1.099,1.5803,146.8,97.2,0.514
41.34,32304.5,35836.7,1.176,2.0555,146.8,97.2,0.514
41.36,32252.1,35674.9,0.9737,1.6579,146.8,97.2,0.514
41.38,32151.9,35417.6,0.587,1.0255,146.8,97.2,0.514
41.4,32111.6,35142.5,0.4315,0.3494,146.8,97.2,0.514
41.42,32077.3,35218.5,0.2995,0.5361,146.8,97.2,0.514
41.44,32019.2,35147.8,0.075,0.3625,146.8,97.2,0.514
41.46,32022.5,34983.2,0.088,-0.0422,146.8,97.2,0.514
41.48,31919.3,34888.7,-0.3104,-0.2742,146.8,97.2,0.514
41.5,31849.6,34745.5,-0.5793,-0.6263,146.8,97.2,0.514
41.52,31874.9,34720.3,-0.4818,-0.6883,146.8,97.2,0.514
41.54,31811.4,34619.9,-0.7267,-0.935,146.8,97.2,0.514
41.56,31860.5,34715.6,-0.5374,-0.6998,146.8,97.2,0.514
41.58,31863.4,34742.4,-0.5259,-0.6339,146.8,97.2,0.514
41.6,31771.1,34579.3,-0.8822,-1.0348,146.8,97.2,0.514
41.62,31781.2,34393.3,-0.8434,-1.4919,146.8,97.2,0.514
41.64,31725.1,34407.7,-1.0599,-1.4566,146.8,97.2,0.514
41.66,31878.0,34648.4,-0.4697,-0.8648,146.8,97.2,0.514
41.68,32041.6,34931.9,0.1615,-0.1682,146.8,97.2,0.514
41.7,32208.3,35372.1,0.805,0.9138,146.8,97.2,0.514
41.72,32291.1,35809.9,1.1243,1.9897,146.8,97.2,0.514
41.74,32343.8,35765.2,1.3275,1.8799,146.8,97.2,0.514
41.76,32345.5,35699.2,1.3343,1.7177,146.8,97.2,0.514
41.78,32172.9,35444.3,0.6681,1.0912,146.8,97.2,0.514
41.8,32148.8,35173.3,0.5753,0.4252,146.8,97.2,0.514
41.82,32057.8,35200.0,0.2241,0.4907,146.8,97.2,0.514
41.84,31993.8,35142.1,-0.0229,0.3485,146.8,97.2,0.514
41.86,31959.6,34989.8,-0.1548,-0.0258,146.8,97.2,0.514
41.88,32121.6,34926.6,0.4703,-0.1811,146.8,97.2,0.514
41.9,31887.7,34787.9,-0.4322,-0.5222,146.8,97.2,0.514
41.92,31871.3,34784.8,-0.4957,-0.5296,146.8,97.2,0.514
41.94,31828.0,34695.3,-0.6626,-0.7497,146.8,97.2,0.514
41.96,31882.2,34602.1,-0.4534,-0.9786,146.8,97.2,0.514
41.98,31845.3,34623.4,-0.5958,-0.9264,146.8,97.2,0.514
42.0,31800.9,34575.5,-0.7671,-1.0441,146.8,97.2,0.514
42.02,31721.9,34543.0,-1.0721,-1.1239,146.8,97.2,0.514
42.04,31716.2,34500.4,-1.0941,-1.2286,146.8,97.2,0.514
42.06,31815.3,34590.7,-0.7115,-1.0067,146.8,97.2,0.514
42.08,31851.2,34765.8,-0.5733,-0.5764,146.8,97.2,0.514
42.1,32019.5,35178.6,0.0763,0.4381,146.8,97.2,0.514
42.12,32245.3,35640.2,0.9475,1.5725,146.8,97.2,0.514
42.14,32406.6,35804.4,1.57,1.9761,146.8,97.2,0.514
42.16,32294.4,35691.7,1.1371,1.6992,146.8,97.2,0.514
42.18,32286.8,35576.0,1.1079,1.4147,146.8,97.2,0.514
42.2,32187.4,35366.2,0.7241,0.8992,146.8,97.2,0.514
42.22,32086.3,35223.0,0.3342,0.5472,146.8,97.2,0.514
42.24,32044.9,35135.6,0.1742,0.3324,146.8,97.2,0.514
42.26,31982.3,35038.9,-0.0674,0.0948,146.8,97.2,0.514
42.28,32071.6,34923.1,0.2773,-0.1898,146.8,97.2,0.514
42.3,32020.5,34926.6,0.0802,-0.1813,146.8,97.2,0.514
42.32,31861.7,34799.4,-0.5327,-0.4939,146.8,97.2,0.514
42.34,31908.5,34731.7,-0.3519,-0.6602,146.8,97.2,0.514
42.36,31845.7,34664.9,-0.5946,-0.8245,146.8,97.2,0.514
42.38,31726.8,34674.1,-1.0532,-0.8018,146.8,97.2,0.514
42.4,31841.6,34625.2,-0.6103,-0.9218,146.8,97.2,0.514
42.42,31767.9,34476.3,-0.8946,-1.2878,146.8,97.2,0.514
42.44,31695.8,34397.8,-1.1728,-1.4807,146.8,97.2,0.514
42.46,31795.9,34563.6,-0.7865,-1.0733,146.8,97.2,0.514
42.48,31849.0,34750.2,-0.5817,-0.6147,146.8,97.2,0.514
42.5,32025.8,35011.4,0.1004,0.0271,146.8,97.2,0.514
42.52,32262.7,35440.8,1.0149,1.0826,146.8,97.2,0.514
42.54,32300.0,35778.3,1.1588,1.912,146.8,97.2,0.514
42.56,32367.9,35755.5,1.4208,1.8559,146.8,97.2,0.514
42.58,32340.2,35653.2,1.3137,1.6046,146.8,97.2,0.514
42.6,32175.6,35465.3,0.6786,1.1428,146.8,97.2,0.514
42.62,32067.1,35192.3,0.2598,0.4719,146.8,97.2,0.514
42.64,32141.6,35182.8,0.5476,0.4484,146.8,97.2,0.514
42.66,32057.9,35068.1,0.2244,0.1666,146.8,97.2,0.514
42.68,32060.4,35002.7,0.234,0.006,146.8,97.2,0.514
42.7,31960.1,34967.1,-0.1531,-0.0816,146.8,97.2,0.514
42.72,31941.7,34810.6,-0.224,-0.4662,146.8,97.2,0.514
42.74,31905.3,34676.5,-0.3646,-0.7959,146.8,97.2,0.514
42.76,31803.2,34738.3,-0.7585,-0.6438,146.8,97.2,0.514
42.78,31774.3,34739.6,-0.8699,-0.6407,146.8,97.2,0.514
42.8,31878.1,34631.2,-0.4693,-0.9071,146.8,97.2,0.514
42.82,31784.8,34638.5,-0.8293,-0.8894,146.8,97.2,0.514
42.84,31596.9,34547.1,-1.5543,-1.1138,146.8,97.2,0.514
42.86,31816.3,34462.0,-0.708,-1.3231,146.8,97.2,0.514
42.88,31859.2,34604.5,-0.5423,-0.9727,146.8,97.2,0.514
42.9,31908.2,34921.8,-0.3531,-0.1929,146.8,97.2,0.514
42.92,32231.7,35260.7,0.8951,0.64,146.8,97.2,0.514
42.94,32252.2,35644.5,0.9741,1.5831,146.8,97.2,0.514
42.96,32364.0,35673.2,1.4055,1.6538,146.8,97.2,0.514
42.98,32410.8,35684.8,1.5861,1.6822,146.8,97.2,0.514
43.0,32187.4,35482.7,0.7242,1.1856,146.8,97.2,0.514
43.02,32126.6,35337.8,0.4896,0.8295,146.8,97.2,0.514
43.04,32127.1,35218.9,0.4913,0.5371,146.8,97.2,0.514
43.06,32005.2,35137.4,0.021,0.337,146.8,97.2,0.514
43.08,31981.1,35037.8,-0.0719,0.092,146.8,97.2,0.514
43.1,31933.1,34977.9,-0.2573,-0.0551,146.8,97.2,0.514
43.12,31918.4,34808.9,-0.3139,-0.4705,146.8,97.2,0.514
43.14,31887.0,34843.1,-0.435,-0.3864,146.8,97.2,0.514
43.16,31801.4,34732.2,-0.7653,-0.6589,146.8,97.2,0.514
43.18,31820.1,34684.2,-0.6932,-0.777,146.8,97.2,0.514
43.2,31800.0,34703.0,-0.7706,-0.7308,146.8,97.2,0.514
43.22,31702.6,34519.2,-1.1467,-1.1825,146.8,97.2,0.514
43.24,31824.6,34461.6,-0.676,-1.324,146.8,97.2,0.514
43.26,31700.5,34470.8,-1.1546,-1.3013,146.8,97.2,0.514
43.28,31734.9,34507.1,-1.0219,-1.2121,146.8,97.2,0.514
43.3,31861.3,34751.7,-0.534,-0.611,146.8,97.2,0.514
43.32,32070.2,35110.2,0.2719,0.2701,146.8,97.2,0.514
43.34,32218.2,35469.9,0.8431,1.1542,146.8,97.2,0.514
43.36,32324.1,35669.3,1.2517,1.6441,146.8,97.2,0.514
43.38,32433.5,35708.0,1.6738,1.7393,146.8,97.2,0.514
43.4,32320.9,35573.7,1.2392,1.4091,146.8,97.2,0.514
43.42,32307.2,35440.0,1.1867,1.0805,146.8,97.2,0.514
43.44,32101.5,35273.0,0.3926,0.6702,146.8,97.2,0.514
43.46,32052.6,35128.0,0.2042,0.3138,146.8,97.2,0.514
43.48,32044.0,35052.0,0.1707,0.127,146.8,97.2,0.514
43.5,31909.9,34974.1,-0.3467,-0.0644,146.8,97.2,0.514
43.52,32037.0,34989.4,0.1436,-0.0269,146.8,97.2,0.514
43.54,31945.9,34834.2,-0.2077,-0.4084,146.8,97.2,0.514
43.56,31876.7,34828.0,-0.4749,-0.4235,146.8,97.2,0.514
43.58,31891.0,34647.6,-0.4195,-0.8669,146.8,97.2,0.514
43.6,31807.0,34616.8,-0.7438,-0.9426,146.8,97.2,0.514
43.62,31803.4,34651.6,-0.7574,-0.857,146.8,97.2,0.514
43.64,31793.9,34586.5,-0.7941,-1.0169,146.8,97.2,0.514
43.66,31749.8,34516.5,-0.9643,-1.189,146.8,97.2,0.514
43.68,31673.8,34538.1,-1.2576,-1.1361,146.8,97.2,0.514
43.7,31830.0,34601.5,-0.6548,-0.9801,146.8,97.2,0.514
43.72,31930.6,34874.7,-0.2666,-0.3087,146.8,97.2,0.514
43.74,32172.3,35288.5,0.6658,0.7083,146.8,97.2,0.514
43.76,32344.4,35608.8,1.3299,1.4953,146.8,97.2,0.514
43.78,32358.1,35733.8,1.3828,1.8027,146.8,97.2,0.514
43.8,32295.2,35698.4,1.1401,1.7157,146.8,97.2,0.514
43.82,32223.5,35492.4,0.8633,1.2093,146.8,97.2,0.514
43.84,32157.3,35285.4,0.608,0.7007,146.8,97.2,0.514
43.86,32016.0,35113.2,0.0627,0.2774,146.8,97.2,0.514
43.88,32092.1,35045.2,0.3563,0.1102,146.8,97.2,0.514
43.9,32111.1,35076.8,0.4296,0.188,146.8,97.2,0.514
43.92,32026.0,34912.0,0.1012,-0.2172,146.8,97.2,0.514
43.94,31952.7,34810.9,-0.1813,-0.4655,146.8,97.2,0.514
43.96,31867.4,34688.6,-0.5105,-0.7661,146.8,97.2,0.514
43.98,31897.7,34650.1,-0.3938,-0.8607,146.8,97.2,0.514
44.0,31784.5,34748.6,-0.8304,-0.6185,146.8,97.2,0.514
44.02,31799.7,34633.4,-0.7719,-0.9017,146.8,97.2,0.514
44.04,31769.8,34598.0,-0.8874,-0.9888,146.8,97.2,0.514
44.06,31812.2,34498.5,-0.7237,-1.2334,146.8,97.2,0.514
44.08,31781.5,34440.0,-0.8421,-1.3771,146.8,97.2,0.514
44.1,31803.9,34498.6,-0.7556,-1.233,146.8,97.2,0.514
44.12,31873.5,34728.4,-0.4872,-0.6684,146.8,97.2,0.514
44.14,32027.3,35110.8,0.1065,0.2716,146.8,97.2,0.514
44.16,32173.5,35446.4,0.6706,1.0962,146.8,97.2,0.514
44.18,32398.8,35663.7,1.5401,1.6304,146.8,97.2,0.514
44.2,32271.8,35705.8,1.0499,1.7337,146.8,97.2,0.514
44.22,32310.2,35733.3,1.198,1.8014,146.8,97.2,0.514
44.24,32149.6,35340.8,0.5781,0.8368,146.8,97.2,0.514
44.26,32154.7,35261.1,0.5979,0.641,146.8,97.2,0.514
44.28,32015.4,35150.7,0.0605,0.3695,146.8,97.2,0.514
44.3,32040.5,35071.6,0.1573,0.1752,146.8,97.2,0.514
44.32,32031.6,34943.4,0.1231,-0.1398,146.8,97.2,0.514
44.34,31922.9,34895.9,-0.2964,-0.2565,146.8,97.2,0.514
44.36,31907.9,34702.6,-0.3542,-0.7316,146.8,97.2,0.514
44.38,31863.1,34672.4,-0.5271,-0.806,146.8,97.2,0.514
44.4,31835.1,34734.6,-0.6353,-0.6531,146.8,97.2,0.514
44.42,31766.4,34645.2,-0.9004,-0.8728,146.8,97.2,0.514
44.44,31819.1,34620.7,-0.697,-0.9331,146.8,97.2,0.514
44.46,31819.3,34522.8,-0.6964,-1.1736,146.8,97.2,0.514
44.48,31722.5,34492.0,-1.0696,-1.2492,146.8,97.2,0.514
44.5,31731.9,34493.5,-1.0336,-1.2457,146.8,97.2,0.514
44.52,31900.8,34582.8,-0.3819,-1.0261,146.8,97.2,0.514
44.54,32075.5,34962.4,0.2925,-0.0931,146.8,97.2,0.514
44.56,32072.2,35379.9,0.2795,0.9328,146.8,97.2,0.514
44.58,32309.3,35602.4,1.1946,1.4797,146.8,97.2,0.514
44.6,32301.4,35745.3,1.1642,1.8309,146.8,97.2,0.514
44.62,32366.7,35723.1,1.416,1.7764,146.8,97.2,0.514
44.64,32102.5,35425.8,0.3965,1.0456,146.8,97.2,0.514
44.66,32160.8,35283.8,0.6214,0.6966,146.8,97.2,0.514
44.68,32128.2,35202.2,0.4957,0.4961,146.8,97.2,0.514
44.7,32059.5,35093.4,0.2305,0.2288,146.8,97.2,0.514
44.72,32008.6,35063.3,0.0341,0.1547,146.8,97.2,0.514
44.74,32057.5,34983.8,0.2228,-0.0406,146.8,97.2,0.514
44.76,31957.5,34891.3,-0.1629,-0.2678,146.8,97.2,0.514
44.78,31804.0,34730.4,-0.7552,-0.6634,146.8,97.2,0.514
44.8,31790.5,34743.3,-0.8074,-0.6317,146.8,97.2,0.514
44.82,31896.1,34686.7,-0.3998,-0.7707,146.8,97.2,0.514
44.84,31782.6,34626.6,-0.8379,-0.9185,146.8,97.2,0.514
