timestamp,raw_red,raw_ir,filtered_red,filtered_ir,heart_rate,spo2,ac_dc_ratio
0.0,32002.0,35160.1,0.0243,0.1919,143.1,98.5,0.461
0.02,32084.7,35569.2,0.1356,0.6915,143.1,98.5,0.461
0.04,32333.2,35781.5,0.4699,0.9508,143.1,98.5,0.461
0.06,32305.6,35738.9,0.4328,0.8988,143.1,98.5,0.461
0.08,32255.5,35657.2,0.3655,0.799,143.1,98.5,0.461
0.1,32190.3,35421.9,0.2776,0.5116,143.1,98.5,0.461
0.12,32122.2,35332.1,0.1861,0.402,143.1,98.5,0.461
0.14,32061.4,35163.3,0.1042,0.1957,143.1,98.5,0.461
0.16,32074.6,35112.3,0.1221,0.1335,143.1,98.5,0.461
0.18,32038.8,35194.9,0.0738,0.2344,143.1,98.5,0.461
0.2,31886.1,35000.7,-0.1316,-0.0028,143.1,98.5,0.461
0.22,31908.2,34768.0,-0.1018,-0.2869,143.1,98.5,0.461
0.24,31880.9,34776.6,-0.1386,-0.2764,143.1,98.5,0.461
0.26,31853.2,34668.2,-0.1759,-0.4089,143.1,98.5,0.461
0.28,31784.6,34670.1,-0.2682,-0.4066,143.1,98.5,0.461
0.3,31855.8,34585.2,-0.1724,-0.5102,143.1,98.5,0.461
0.32,31752.7,34563.7,-0.3111,-0.5365,143.1,98.5,0.461
0.34,31834.3,34457.3,-0.2014,-0.6664,143.1,98.5,0.461
0.36,31602.6,34455.2,-0.5131,-0.669,143.1,98.5,0.461
0.38,31820.5,34422.3,-0.2198,-0.7091,143.1,98.5,0.461
0.4,31889.8,34762.9,-0.1267,-0.2932,143.1,98.5,0.461
0.42,32053.5,35235.4,0.0936,0.2839,143.1,98.5,0.461
0.44,32222.2,35451.0,0.3206,0.5472,143.1,98.5,0.461
0.46,32269.0,35726.6,0.3836,0.8837,143.1,98.5,0.461
0.48,32338.5,35663.8,0.4771,0.807,143.1,98.5,0.461
0.5,32172.9,35599.8,0.2543,0.7289,143.1,98.5,0.461
0.52,32140.9,35322.7,0.2112,0.3905,143.1,98.5,0.461
0.54,32169.8,35305.4,0.2501,0.3693,143.1,98.5,0.461
0.56,32055.0,35120.9,0.0956,0.144,143.1,98.5,0.461
0.58,31995.5,35029.6,0.0156,0.0325,143.1,98.5,0.461
0.6,31971.4,34910.5,-0.0169,-0.113,143.1,98.5,0.461
0.62,32013.0,35008.6,0.0392,0.0069,143.1,98.5,0.461
0.64,31977.9,34860.4,-0.0081,-0.1742,143.1,98.5,0.461
0.66,31955.6,34698.8,-0.0382,-0.3715,143.1,98.5,0.461
0.68,31912.9,34756.0,-0.0956,-0.3016,143.1,98.5,0.461
0.7,31873.2,34704.4,-0.149,-0.3646,143.1,98.5,0.461
0.72,31901.5,34709.1,-0.1109,-0.359,143.1,98.5,0.461
0.74,31792.8,34627.1,-0.2572,-0.459,143.1,98.5,0.461
0.76,31799.3,34500.8,-0.2484,-0.6133,143.1,98.5,0.461
0.78,31742.8,34416.3,-0.3244,-0.7165,143.1,98.5,0.461
0.8,31800.9,34566.3,-0.2462,-0.5333,143.1,98.5,0.461
0.82,31965.3,34784.5,-0.025,-0.2668,143.1,98.5,0.461
0.84,32001.0,35162.9,0.023,0.1953,143.1,98.5,0.461
0.86,32181.0,35496.5,0.2652,0.6027,143.1,98.5,0.461
0.88,32365.9,35615.7,0.514,0.7483,143.1,98.5,0.461
0.9,32223.4,35678.7,0.3223,0.8253,143.1,98.5,0.461
0.92,32233.9,35607.3,0.3364,0.738,143.1,98.5,0.461
0.94,32195.8,35458.2,0.2851,0.5559,143.1,98.5,0.461
0.96,32130.2,35299.2,0.1968,0.3617,143.1,98.5,0.461
0.98,32034.9,35273.4,0.0686,0.3302,143.1,98.5,0.461
1.0,32097.8,35039.4,0.1532,0.0444,143.1,98.5,0.461
1.02,31975.0,35023.6,-0.0121,0.0252,143.1,98.5,0.461
1.04,32028.4,34978.2,0.0599,-0.0302,143.1,98.5,0.461
1.06,31930.5,34792.4,-0.0718,-0.2571,143.1,98.5,0.461
1.08,31875.9,34663.8,-0.1454,-0.4142,143.1,98.5,0.461
1.1,31867.9,34684.6,-0.1561,-0.3889,143.1,98.5,0.461
1.12,31833.5,34576.3,-0.2024,-0.5211,143.1,98.5,0.461
1.14,31767.3,34652.2,-0.2914,-0.4284,143.1,98.5,0.461
1.16,31796.3,34537.2,-0.2525,-0.5689,143.1,98.5,0.461
1.18,31879.3,34423.8,-0.1408,-0.7073,143.1,98.5,0.461
1.2,31835.3,34446.5,-0.2,-0.6796,143.1,98.5,0.461
1.22,31816.3,34551.5,-0.2255,-0.5514,143.1,98.5,0.461
1.24,31903.6,34789.0,-0.108,-0.2614,143.1,98.5,0.461
1.26,32055.7,35249.6,0.0966,0.3012,143.1,98.5,0.461
1.28,32257.5,35512.0,0.3682,0.6217,143.1,98.5,0.461
1.3,32291.7,35731.4,0.4142,0.8897,143.1,98.5,0.461
1.32,32282.8,35623.3,0.4022,0.7575,143.1,98.5,0.461
1.34,32203.7,35624.1,0.2957,0.7585,143.1,98.5,0.461
1.36,32138.5,35397.7,0.208,0.4821,143.1,98.5,0.461
1.38,32085.2,35170.5,0.1363,0.2046,143.1,98.5,0.461
1.4,32072.5,35161.2,0.1192,0.1932,143.1,98.5,0.461
1.42,32010.2,35068.9,0.0354,0.0805,143.1,98.5,0.461
1.44,31962.6,34943.2,-0.0286,-0.0731,143.1,98.5,0.461
1.46,32027.2,34922.9,0.0583,-0.0978,143.1,98.5,0.461
1.48,31833.8,34806.8,-0.202,-0.2396,143.1,98.5,0.461
1.5,31906.1,34749.2,-0.1048,-0.3099,143.1,98.5,0.461
1.52,31888.6,34570.5,-0.1283,-0.5282,143.1,98.5,0.461
1.54,31819.3,34648.2,-0.2215,-0.4333,143.1,98.5,0.461
1.56,31865.6,34642.1,-0.1592,-0.4407,143.1,98.5,0.461
1.58,31785.0,34574.4,-0.2677,-0.5235,143.1,98.5,0.461
1.6,31746.1,34477.2,-0.32,-0.6421,143.1,98.5,0.461
1.62,31758.9,34487.8,-0.3028,-0.6292,143.1,98.5,0.461
1.64,31835.5,34542.2,-0.1997,-0.5628,143.1,98.5,0.461
1.66,31942.4,34833.7,-0.0559,-0.2068,143.1,98.5,0.461
1.68,32119.9,35137.2,0.183,0.1639,143.1,98.5,0.461
1.7,32287.5,35536.1,0.4085,0.651,143.1,98.5,0.461
1.72,32245.8,35697.7,0.3524,0.8484,143.1,98.5,0.461
1.74,32313.5,35698.0,0.4434,0.8488,143.1,98.5,0.461
1.76,32259.8,35594.2,0.3713,0.722,143.1,98.5,0.461
1.78,32101.5,35427.0,0.1582,0.5178,143.1,98.5,0.461
1.8,32083.9,35146.8,0.1345,0.1756,143.1,98.5,0.461
1.82,32100.1,35139.3,0.1563,0.1665,143.1,98.5,0.461
1.84,31960.0,35046.9,-0.0321,0.0536,143.1,98.5,0.461
1.86,31987.6,34991.6,0.0049,-0.0139,143.1,98.5,0.461
1.88,32077.3,34959.4,0.1257,-0.0532,143.1,98.5,0.461
1.9,31974.2,34813.0,-0.0131,-0.2321,143.1,98.5,0.461
1.92,31844.0,34730.3,-0.1882,-0.333,143.1,98.5,0.461
1.94,31825.4,34657.4,-0.2133,-0.4221,143.1,98.5,0.461
1.96,31833.6,34630.0,-0.2023,-0.4555,143.1,98.5,0.461
1.98,31824.0,34566.0,-0.2151,-0.5337,143.1,98.5,0.461
2.0,31799.0,34540.1,-0.2488,-0.5653,143.1,98.5,0.461
2.02,31705.3,34477.5,-0.3749,-0.6418,143.1,98.5,0.461
2.04,31768.5,34513.5,-0.2898,-0.5978,143.1,98.5,0.461
2.06,31820.2,34501.1,-0.2203,-0.613,143.1,98.5,0.461
2.08,31973.3,34852.3,-0.0143,-0.184,143.1,98.5,0.461
2.1,32015.2,35296.0,0.0421,0.3579,143.1,98.5,0.461
2.12,32184.2,35579.9,0.2695,0.7046,143.1,98.5,0.461
2.14,32308.7,35789.0,0.4371,0.96,143.1,98.5,0.461
2.16,32309.0,35668.6,0.4374,0.8129,143.1,98.5,0.461
2.18,32265.1,35634.5,0.3784,0.7713,143.1,98.5,0.461
2.2,32077.6,35344.4,0.126,0.417,143.1,98.5,0.461
2.22,32011.1,35258.5,0.0365,0.312,143.1,98.5,0.461
2.24,32063.3,35150.3,0.1069,0.1799,143.1,98.5,0.461
2.26,32038.9,35147.5,0.074,0.1765,143.1,98.5,0.461
2.28,32027.0,35074.2,0.0579,0.0869,143.1,98.5,0.461
2.3,31981.5,34959.8,-0.0033,-0.0527,143.1,98.5,0.461
2.32,31937.6,34861.6,-0.0623,-0.1727,143.1,98.5,0.461
2.34,31865.1,34754.8,-0.1599,-0.3031,143.1,98.5,0.461
2.36,31908.0,34672.1,-0.1021,-0.4041,143.1,98.5,0.461
2.38,31857.2,34591.4,-0.1705,-0.5027,143.1,98.5,0.461
2.4,31846.3,34683.6,-0.1851,-0.39,143.1,98.5,0.461
2.42,31809.3,34619.2,-0.235,-0.4687,143.1,98.5,0.461
2.44,31802.1,34368.5,-0.2446,-0.7749,143.1,98.5,0.461
2.46,31829.0,34375.6,-0.2084,-0.7663,143.1,98.5,0.461
2.48,31766.8,34634.3,-0.2922,-0.4503,143.1,98.5,0.461
2.5,31980.9,34897.5,-0.0041,-0.1289,143.1,98.5,0.461
2.52,32100.8,35182.9,0.1573,0.2197,143.1,98.5,0.461
2.54,32278.1,35497.3,0.3958,0.6036,143.1,98.5,0.461
2.56,32316.7,35823.7,0.4478,1.0024,143.1,98.5,0.461
2.58,32346.3,35686.9,0.4876,0.8353,143.1,98.5,0.461
2.6,32204.0,35514.5,0.2962,0.6247,143.1,98.5,0.461
2.62,32169.9,35314.2,0.2503,0.38,143.1,98.5,0.461
2.64,32123.5,35269.6,0.1878,0.3256,143.1,98.5,0.461
2.66,32073.4,35103.4,0.1204,0.1226,143.1,98.5,0.461
2.68,32024.5,35044.8,0.0546,0.0511,143.1,98.5,0.461
2.7,31983.2,34945.8,-0.001,-0.0699,143.1,98.5,0.461
2.72,31986.2,34836.1,0.0031,-0.2038,143.1,98.5,0.461
2.74,31940.9,34746.7,-0.0579,-0.313,143.1,98.5,0.461
2.76,31895.5,34733.7,-0.119,-0.3288,143.1,98.5,0.461
2.78,31875.7,34645.8,-0.1456,-0.4363,143.1,98.5,0.461
2.8,31901.6,34644.3,-0.1108,-0.438,143.1,98.5,0.461
2.82,31789.5,34601.3,-0.2615,-0.4906,143.1,98.5,0.461
2.84,31808.1,34565.4,-0.2366,-0.5345,143.1,98.5,0.461
2.86,31802.6,34486.4,-0.244,-0.6309,143.1,98.5,0.461
2.88,31810.8,34510.9,-0.2329,-0.601,143.1,98.5,0.461
2.9,31850.2,34536.3,-0.1799,-0.5699,143.1,98.5,0.461
2.92,32019.8,34907.2,0.0482,-0.117,143.1,98.5,0.461
2.94,32136.9,35291.1,0.2058,0.3519,143.1,98.5,0.461
2.96,32255.0,35666.1,0.3647,0.8099,143.1,98.5,0.461
2.98,32225.2,35758.3,0.3247,0.9225,143.1,98.5,0.461
3.0,32288.5,35714.3,0.4099,0.8687,143.1,98.5,0.461
3.02,32181.7,35575.2,0.2661,0.6989,143.1,98.5,0.461
3.04,32126.6,35405.5,0.1919,0.4916,143.1,98.5,0.461
3.06,32052.7,35178.4,0.0926,0.2142,143.1,98.5,0.461
3.08,32082.3,35177.6,0.1324,0.2133,143.1,98.5,0.461
3.1,32025.4,35036.9,0.0558,0.0414,143.1,98.5,0.461
3.12,32004.7,35012.7,0.028,0.0119,143.1,98.5,0.461
3.14,31921.6,34928.4,-0.0839,-0.0911,143.1,98.5,0.461
3.16,31933.3,34844.7,-0.0681,-0.1932,143.1,98.5,0.461
3.18,31893.4,34704.8,-0.1218,-0.3642,143.1,98.5,0.461
3.2,31935.0,34733.4,-0.0659,-0.3292,143.1,98.5,0.461
3.22,31841.4,34630.3,-0.1917,-0.4551,143.1,98.5,0.461
3.24,31862.8,34652.7,-0.163,-0.4278,143.1,98.5,0.461
3.26,31831.9,34504.5,-0.2046,-0.6088,143.1,98.5,0.461
3.28,31749.0,34440.0,-0.3161,-0.6875,143.1,98.5,0.461
3.3,31734.0,34519.1,-0.3363,-0.591,143.1,98.5,0.461
3.32,31790.6,34522.3,-0.2601,-0.5871,143.1,98.5,0.461
3.34,31997.5,34859.5,0.0183,-0.1753,143.1,98.5,0.461
3.36,32103.1,35263.7,0.1604,0.3184,143.1,98.5,0.461
3.38,32174.2,35623.7,0.256,0.7581,143.1,98.5,0.461
3.4,32367.0,35734.1,0.5155,0.8929,143.1,98.5,0.461
3.42,32365.2,35766.0,0.513,0.9318,143.1,98.5,0.461
3.44,32189.4,35502.8,0.2764,0.6104,143.1,98.5,0.461
3.46,32090.0,35403.5,0.1428,0.4892,143.1,98.5,0.461
3.48,32093.9,35147.5,0.148,0.1765,143.1,98.5,0.461
3.5,32036.1,35088.4,0.0702,0.1043,143.1,98.5,0.461
3.52,32065.7,35060.7,0.1101,0.0705,143.1,98.5,0.461
3.54,31959.0,35011.0,-0.0335,0.0098,143.1,98.5,0.461
3.56,31985.4,34878.4,0.002,-0.1521,143.1,98.5,0.461
3.58,31922.1,34775.6,-0.0831,-0.2777,143.1,98.5,0.461
3.6,31877.9,34696.5,-0.1426,-0.3743,143.1,98.5,0.461
3.62,31866.6,34634.2,-0.1579,-0.4504,143.1,98.5,0.461
3.64,31959.5,34703.5,-0.0328,-0.3657,143.1,98.5,0.461
3.66,31815.9,34666.9,-0.2261,-0.4105,143.1,98.5,0.461
3.68,31692.4,34513.7,-0.3922,-0.5976,143.1,98.5,0.461
3.7,31763.3,34492.7,-0.2969,-0.6232,143.1,98.5,0.461
3.72,31737.7,34478.9,-0.3312,-0.6401,143.1,98.5,0.461
3.74,31834.7,34560.8,-0.2008,-0.54,143.1,98.5,0.461
3.76,31948.7,34992.2,-0.0473,-0.0132,143.1,98.5,0.461
3.78,32052.2,35267.8,0.0918,0.3234,143.1,98.5,0.461
3.8,32258.6,35583.3,0.3696,0.7087,143.1,98.5,0.461
3.82,32283.3,35689.9,0.4029,0.8389,143.1,98.5,0.461
3.84,32226.5,35627.2,0.3264,0.7624,143.1,98.5,0.461
3.86,32256.7,35500.9,0.367,0.6081,143.1,98.5,0.461
3.88,32134.7,35293.3,0.2029,0.3546,143.1,98.5,0.461
3.9,32033.6,35249.0,0.0669,0.3005,143.1,98.5,0.461
3.92,32121.1,35140.2,0.1846,0.1675,143.1,98.5,0.461
3.94,32070.7,35048.5,0.1168,0.0556,143.1,98.5,0.461
3.96,31936.4,34970.4,-0.064,-0.0398,143.1,98.5,0.461
3.98,31958.3,34930.9,-0.0345,-0.0881,143.1,98.5,0.461
4.0,31866.4,34772.9,-0.1582,-0.281,143.1,98.5,0.461
4.02,31904.5,34759.8,-0.1069,-0.2971,143.1,98.5,0.461
4.04,31797.5,34734.6,-0.2508,-0.3277,143.1,98.5,0.461
4.06,31899.2,34617.3,-0.114,-0.471,143.1,98.5,0.461
4.08,31875.7,34686.1,-0.1456,-0.387,143.1,98.5,0.461
4.1,31838.6,34479.1,-0.1955,-0.6398,143.1,98.5,0.461
4.12,31694.6,34424.5,-0.3894,-0.7064,143.1,98.5,0.461
4.14,31719.9,34419.4,-0.3553,-0.7128,143.1,98.5,0.461
4.16,31864.1,34674.5,-0.1613,-0.4012,143.1,98.5,0.461
4.18,32035.6,34865.9,0.0695,-0.1675,143.1,98.5,0.461
4.2,32211.5,35212.1,0.3063,0.2554,143.1,98.5,0.461
4.22,32237.1,35458.0,0.3406,0.5557,143.1,98.5,0.461
4.24,32306.6,35777.4,0.4342,0.9458,143.1,98.5,0.461
4.26,32275.6,35752.0,0.3924,0.9147,143.1,98.5,0.461
4.28,32190.6,35476.9,0.2781,0.5788,143.1,98.5,0.461
4.3,32112.0,35396.1,0.1723,0.4801,143.1,98.5,0.461
4.32,32010.0,35214.0,0.0351,0.2577,143.1,98.5,0.461
4.34,32140.7,35116.5,0.211,0.1386,143.1,98.5,0.461
4.36,32032.7,35031.7,0.0657,0.0351,143.1,98.5,0.461
4.38,32029.8,35022.5,0.0618,0.0239,143.1,98.5,0.461
4.4,32046.5,34886.8,0.0842,-0.142,143.1,98.5,0.461
4.42,31888.1,34778.7,-0.1289,-0.2739,143.1,98.5,0.461
4.44,31854.8,34735.7,-0.1737,-0.3264,143.1,98.5,0.461
4.46,31922.6,34625.5,-0.0825,-0.461,143.1,98.5,0.461
4.48,31842.7,34670.1,-0.19,-0.4066,143.1,98.5,0.461
4.5,31822.0,34668.0,-0.2178,-0.4092,143.1,98.5,0.461
4.52,31694.2,34588.0,-0.3898,-0.5068,143.1,98.5,0.461
4.54,31791.7,34475.9,-0.2587,-0.6437,143.1,98.5,0.461
4.56,31746.2,34448.3,-0.3198,-0.6775,143.1,98.5,0.461
4.58,31774.6,34690.7,-0.2817,-0.3813,143.1,98.5,0.461
4.6,31901.9,34899.1,-0.1103,-0.1269,143.1,98.5,0.461
4.62,32048.2,35361.9,0.0866,0.4384,143.1,98.5,0.461
4.64,32270.9,35546.7,0.3861,0.664,143.1,98.5,0.461
4.66,32333.0,35705.0,0.4697,0.8573,143.1,98.5,0.461
4.68,32393.0,35768.5,0.5505,0.9349,143.1,98.5,0.461
4.7,32125.2,35570.4,0.19,0.693,143.1,98.5,0.461
4.72,32137.6,35364.6,0.2067,0.4417,143.1,98.5,0.461
4.74,32039.3,35213.1,0.0745,0.2566,143.1,98.5,0.461
4.76,32022.2,35012.6,0.0515,0.0117,143.1,98.5,0.461
4.78,32002.6,35025.7,0.0252,0.0277,143.1,98.5,0.461
4.8,31993.8,34860.6,0.0133,-0.1739,143.1,98.5,0.461
4.82,31945.6,34956.3,-0.0515,-0.0571,143.1,98.5,0.461
4.84,31848.3,34751.8,-0.1825,-0.3068,143.1,98.5,0.461
4.86,31900.4,34760.0,-0.1124,-0.2968,143.1,98.5,0.461
4.88,31833.3,34651.9,-0.2027,-0.4288,143.1,98.5,0.461
4.9,31916.7,34663.9,-0.0905,-0.4141,143.1,98.5,0.461
4.92,31815.8,34686.0,-0.2262,-0.3871,143.1,98.5,0.461
4.94,31912.1,34642.2,-0.0967,-0.4406,143.1,98.5,0.461
4.96,31825.2,34401.3,-0.2136,-0.7348,143.1,98.5,0.461
4.98,31767.9,34527.3,-0.2906,-0.5809,143.1,98.5,0.461
5.0,31875.2,34575.7,-0.1463,-0.5218,143.1,98.5,0.461
5.02,31987.9,34984.2,0.0054,-0.0229,143.1,98.5,0.461
5.04,32212.8,35336.9,0.308,0.4078,143.1,98.5,0.461
5.06,32284.3,35614.1,0.4041,0.7463,143.1,98.5,0.461
5.08,32314.1,35805.6,0.4443,0.9803,143.1,98.5,0.461
5.1,32312.7,35671.1,0.4424,0.816,143.1,98.5,0.461
5.12,32182.2,35390.1,0.2668,0.4728,143.1,98.5,0.461
5.14,32153.0,35335.4,0.2274,0.406,143.1,98.5,0.461
5.16,32096.5,35191.4,0.1514,0.2301,143.1,98.5,0.461
5.18,32044.6,35118.7,0.0816,0.1414,143.1,98.5,0.461
5.2,31963.8,34943.5,-0.0271,-0.0726,143.1,98.5,0.461
5.22,32116.3,34915.9,0.1781,-0.1063,143.1,98.5,0.461
5.24,31967.3,34867.6,-0.0224,-0.1654,143.1,98.5,0.461
5.26,31895.8,34761.6,-0.1186,-0.2948,143.1,98.5,0.461
5.28,31832.2,34649.9,-0.2042,-0.4312,143.1,98.5,0.461
5.3,31815.3,34731.7,-0.2269,-0.3313,143.1,98.5,0.461
5.32,31912.1,34574.0,-0.0966,-0.5239,143.1,98.5,0.461
5.34,31791.6,34530.2,-0.2588,-0.5774,143.1,98.5,0.461
5.36,31894.3,34512.6,-0.1206,-0.5989,143.1,98.5,0.461
5.38,31820.5,34403.6,-0.2199,-0.7321,143.1,98.5,0.461
5.4,31675.7,34506.5,-0.4147,-0.6064,143.1,98.5,0.461
5.42,31751.6,34707.5,-0.3126,-0.3608,143.1,98.5,0.461
5.44,31964.1,34870.3,-0.0266,-0.1621,143.1,98.5,0.461
5.46,32103.9,35297.0,0.1615,0.3591,143.1,98.5,0.461
5.48,32161.0,35592.8,0.2383,0.7203,143.1,98.5,0.461
5.5,32371.2,35704.1,0.5211,0.8563,143.1,98.5,0.461
5.52,32212.0,35744.4,0.3069,0.9054,143.1,98.5,0.461
5.54,32235.5,35493.7,0.3386,0.5992,143.1,98.5,0.461
5.56,32115.9,35363.2,0.1776,0.4399,143.1,98.5,0.461
5.58,31977.7,35242.4,-0.0084,0.2925,143.1,98.5,0.461
5.6,32076.4,35132.6,0.1245,0.1584,143.1,98.5,0.461
5.62,31973.9,34998.8,-0.0135,-0.0052,143.1,98.5,0.461
5.64,31987.2,35033.9,0.0044,0.0378,143.1,98.5,0.461
5.66,31904.6,34897.3,-0.1067,-0.129,143.1,98.5,0.461
5.68,31964.2,34814.0,-0.0265,-0.2308,143.1,98.5,0.461
5.7,31880.4,34758.8,-0.1393,-0.2982,143.1,98.5,0.461
5.72,31827.9,34694.8,-0.2099,-0.3764,143.1,98.5,0.461
5.74,31893.3,34667.9,-0.1219,-0.4093,143.1,98.5,0.461
5.76,31901.2,34624.6,-0.1113,-0.4622,143.1,98.5,0.461
5.78,31742.3,34537.4,-0.3251,-0.5686,143.1,98.5,0.461
5.8,31773.2,34414.0,-0.2835,-0.7194,143.1,98.5,0.461
5.82,31831.1,34430.1,-0.2057,-0.6996,143.1,98.5,0.461
5.84,31897.0,34556.3,-0.1169,-0.5455,143.1,98.5,0.461
5.86,32084.5,34964.4,0.1353,-0.0472,143.1,98.5,0.461
5.88,32115.7,35279.7,0.1773,0.338,143.1,98.5,0.461
5.9,32283.4,35585.9,0.4029,0.7119,143.1,98.5,0.461
5.92,32264.9,35725.4,0.3781,0.8823,143.1,98.5,0.461
5.94,32246.2,35663.6,0.3529,0.8068,143.1,98.5,0.461
5.96,32177.2,35371.1,0.2601,0.4496,143.1,98.5,0.461
5.98,32124.2,35324.9,0.1887,0.3932,143.1,98.5,0.461
6.0,32009.9,35106.7,0.035,0.1266,143.1,98.5,0.461
6.02,32067.0,35149.9,0.1117,0.1795,143.1,98.5,0.461
6.04,32039.0,35056.1,0.0741,0.0649,143.1,98.5,0.461
6.06,32008.1,34924.0,0.0326,-0.0965,143.1,98.5,0.461
6.08,32031.6,34889.7,0.0641,-0.1383,143.1,98.5,0.461
6.1,31861.8,34700.1,-0.1643,-0.3698,143.1,98.5,0.461
6.12,31905.2,34648.0,-0.1059,-0.4335,143.1,98.5,0.461
6.14,31848.7,34719.8,-0.182,-0.3458,143.1,98.5,0.461
6.16,31781.5,34723.3,-0.2724,-0.3415,143.1,98.5,0.461
6.18,31844.4,34574.5,-0.1877,-0.5233,143.1,98.5,0.461
6.2,31877.4,34509.8,-0.1433,-0.6024,143.1,98.5,0.461
6.22,31771.6,34424.7,-0.2857,-0.7063,143.1,98.5,0.461
6.24,31690.1,34481.2,-0.3953,-0.6372,143.1,98.5,0.461
6.26,31802.6,34703.8,-0.244,-0.3654,143.1,98.5,0.461
6.28,31959.9,35001.6,-0.0323,-0.0017,143.1,98.5,0.461
6.3,32175.0,35346.8,0.2571,0.4199,143.1,98.5,0.461
6.32,32297.7,35752.2,0.4222,0.915,143.1,98.5,0.461
6.34,32301.2,35709.9,0.4269,0.8634,143.1,98.5,0.461
6.36,32314.2,35762.0,0.4445,0.927,143.1,98.5,0.461
6.38,32240.1,35546.3,0.3447,0.6635,143.1,98.5,0.461
6.4,32108.6,35394.4,0.1678,0.478,143.1,98.5,0.461
6.42,31978.1,35267.8,-0.0078,0.3234,143.1,98.5,0.461
6.44,32081.3,35089.6,0.1311,0.1058,143.1,98.5,0.461
6.46,32038.7,35072.4,0.0738,0.0848,143.1,98.5,0.461
6.48,32037.7,34913.1,0.0724,-0.1098,143.1,98.5,0.461
6.5,32015.9,34948.0,0.043,-0.0672,143.1,98.5,0.461
6.52,31969.3,34734.6,-0.0196,-0.3278,143.1,98.5,0.461
6.54,31925.3,34700.6,-0.0789,-0.3692,143.1,98.5,0.461
6.56,31798.1,34646.6,-0.25,-0.4352,143.1,98.5,0.461
6.58,31842.0,34703.5,-0.191,-0.3658,143.1,98.5,0.461
6.6,31867.3,34576.7,-0.157,-0.5206,143.1,98.5,0.461
6.62,31784.7,34559.6,-0.268,-0.5415,143.1,98.5,0.461
6.64,31756.1,34380.5,-0.3065,-0.7603,143.1,98.5,0.461
6.66,31798.7,34401.3,-0.2493,-0.7348,143.1,98.5,0.461
6.68,31913.6,34660.1,-0.0947,-0.4187,143.1,98.5,0.461
6.7,31995.5,35020.6,0.0156,0.0215,143.1,98.5,0.461
6.72,32162.4,35429.8,0.2402,0.5213,143.1,98.5,0.461
6.74,32306.6,35607.5,0.4342,0.7383,143.1,98.5,0.461
6.76,32214.7,35708.2,0.3105,0.8613,143.1,98.5,0.461
6.78,32337.7,35616.0,0.4761,0.7487,143.1,98.5,0.461
6.8,32177.9,35455.4,0.2611,0.5525,143.1,98.5,0.461
6.82,32045.0,35351.0,0.0821,0.425,143.1,98.5,0.461
6.84,32135.7,35152.6,0.2042,0.1828,143.1,98.5,0.461
6.86,32171.5,35082.0,0.2523,0.0965,143.1,98.5,0.461
6.88,31999.9,35005.3,0.0215,0.0029,143.1,98.5,0.461
6.9,31945.3,34913.7,-0.0519,-0.1091,143.1,98.5,0.461
6.92,31993.8,34930.9,0.0133,-0.088,143.1,98.5,0.461
6.94,31895.8,34782.6,-0.1185,-0.2692,143.1,98.5,0.461
6.96,31898.9,34754.3,-0.1143,-0.3037,143.1,98.5,0.461
6.98,31841.7,34652.8,-0.1914,-0.4276,143.1,98.5,0.461
7.0,31905.9,34575.1,-0.1049,-0.5226,143.1,98.5,0.461
7.02,31770.8,34641.4,-0.2867,-0.4416,143.1,98.5,0.461
7.04,31777.0,34593.0,-0.2784,-0.5007,143.1,98.5,0.461
7.06,31758.0,34446.7,-0.3041,-0.6793,143.1,98.5,0.461
7.08,31699.8,34526.1,-0.3823,-0.5824,143.1,98.5,0.461
7.1,31862.3,34622.3,-0.1636,-0.4649,143.1,98.5,0.461
7.12,32094.9,34977.2,0.1493,-0.0315,143.1,98.5,0.461
7.14,32110.3,35303.0,0.1701,0.3664,143.1,98.5,0.461
7.16,32227.0,35703.2,0.3271,0.8552,143.1,98.5,0.461
7.18,32268.6,35789.6,0.3831,0.9607,143.1,98.5,0.461
7.2,32288.2,35734.0,0.4094,0.8928,143.1,98.5,0.461
7.22,32252.9,35525.2,0.362,0.6378,143.1,98.5,0.461
7.24,32133.5,35233.8,0.2013,0.2819,143.1,98.5,0.461
7.26,32076.5,35194.3,0.1246,0.2337,143.1,98.5,0.461
7.28,32022.8,35089.9,0.0523,0.1062,143.1,98.5,0.461
7.3,32048.3,34993.4,0.0866,-0.0117,143.1,98.5,0.461
7.32,32011.2,34900.5,0.0367,-0.1252,143.1,98.5,0.461
7.34,31928.9,34909.7,-0.074,-0.114,143.1,98.5,0.461
7.36,31884.4,34708.7,-0.1339,-0.3594,143.1,98.5,0.461
7.38,31831.2,34739.6,-0.2055,-0.3217,143.1,98.5,0.461
7.4,31866.7,34622.7,-0.1577,-0.4645,143.1,98.5,0.461
7.42,31893.9,34581.1,-0.1212,-0.5152,143.1,98.5,0.461
7.44,31753.3,34604.7,-0.3103,-0.4864,143.1,98.5,0.461
7.46,31735.1,34557.8,-0.3348,-0.5437,143.1,98.5,0.461
7.48,31767.9,34387.1,-0.2906,-0.7522,143.1,98.5,0.461
7.5,31721.6,34479.0,-0.353,-0.64,143.1,98.5,0.461
7.52,31831.4,34641.1,-0.2052,-0.4419,143.1,98.5,0.461
7.54,31980.0,35001.2,-0.0052,-0.0021,143.1,98.5,0.461
7.56,32151.5,35412.0,0.2255,0.4995,143.1,98.5,0.461
7.58,32288.2,35702.2,0.4095,0.8539,143.1,98.5,0.461
7.6,32232.5,35693.6,0.3345,0.8435,143.1,98.5,0.461
7.62,32235.6,35705.6,0.3387,0.8581,143.1,98.5,0.461
7.64,32202.6,35466.1,0.2942,0.5656,143.1,98.5,0.461
7.66,32134.2,35292.3,0.2023,0.3533,143.1,98.5,0.461
7.68,32012.0,35131.1,0.0378,0.1565,143.1,98.5,0.461
7.7,32031.0,34964.4,0.0634,-0.0471,143.1,98.5,0.461
7.72,32005.0,35026.0,0.0284,0.0281,143.1,98.5,0.461
7.74,32087.1,34903.2,0.1389,-0.1219,143.1,98.5,0.461
7.76,31855.9,34869.5,-0.1722,-0.163,143.1,98.5,0.461
7.78,31853.3,34799.1,-0.1758,-0.249,143.1,98.5,0.461
7.8,31897.8,34653.4,-0.1159,-0.4269,143.1,98.5,0.461
7.82,31820.3,34672.1,-0.2202,-0.4041,143.1,98.5,0.461
7.84,31767.6,34615.6,-0.2911,-0.4731,143.1,98.5,0.461
7.86,31831.1,34570.4,-0.2057,-0.5283,143.1,98.5,0.461
7.88,31794.2,34461.1,-0.2553,-0.6619,143.1,98.5,0.461
7.9,31732.1,34417.7,-0.3389,-0.7148,143.1,98.5,0.461
7.92,31806.5,34488.2,-0.2388,-0.6287,143.1,98.5,0.461
7.94,31887.6,34564.7,-0.1296,-0.5352,143.1,98.5,0.461
7.96,32048.0,35022.6,0.0862,0.0239,143.1,98.5,0.461
7.98,32112.6,35326.3,0.1732,0.3948,143.1,98.5,0.461
8.0,32354.9,35628.0,0.4992,0.7634,143.1,98.5,0.461
8.02,32284.4,35816.2,0.4043,0.9932,143.1,98.5,0.461
8.04,32247.9,35669.0,0.3552,0.8134,143.1,98.5,0.461
8.06,32162.8,35542.7,0.2407,0.6591,143.1,98.5,0.461
8.08,32182.0,35318.0,0.2665,0.3847,143.1,98.5,0.461
8.1,32140.6,35185.8,0.2108,0.2232,143.1,98.5,0.461
8.12,32034.1,35211.3,0.0675,0.2544,143.1,98.5,0.461
8.14,32045.0,35037.3,0.0822,0.0419,143.1,98.5,0.461
8.16,32049.4,34930.3,0.0881,-0.0887,143.1,98.5,0.461
8.18,31923.2,34844.7,-0.0817,-0.1934,143.1,98.5,0.461
8.2,31840.9,34718.8,-0.1924,-0.3471,143.1,98.5,0.461
8.22,31824.2,34683.6,-0.215,-0.39,143.1,98.5,0.461
8.24,31968.4,34694.4,-0.0209,-0.3768,143.1,98.5,0.461
8.26,31876.5,34682.4,-0.1445,-0.3915,143.1,98.5,0.461
8.28,31859.3,34705.6,-0.1676,-0.3632,143.1,98.5,0.461
8.3,31774.2,34503.1,-0.2823,-0.6105,143.1,98.5,0.461
8.32,31849.3,34449.2,-0.1811,-0.6764,143.1,98.5,0.461
8.34,31779.5,34471.1,-0.2751,-0.6496,143.1,98.5,0.461
8.36,31765.6,34724.9,-0.2937,-0.3396,143.1,98.5,0.461
8.38,32055.9,35010.2,0.0969,0.0088,143.1,98.5,0.461
8.4,32140.6,35429.1,0.2108,0.5204,143.1,98.5,0.461
8.42,32296.1,35714.3,0.4201,0.8687,143.1,98.5,0.461
8.44,32286.0,35752.1,0.4065,0.9149,143.1,98.5,0.461
8.46,32276.1,35715.0,0.3932,0.8695,143.1,98.5,0.461
8.48,32136.9,35430.7,0.2058,0.5223,143.1,98.5,0.461
8.5,32072.1,35326.7,0.1187,0.3954,143.1,98.5,0.461
8.52,32041.3,35190.6,0.0772,0.2291,143.1,98.5,0.461
8.54,32050.2,35104.2,0.0892,0.1237,143.1,98.5,0.461
8.56,31985.0,35015.1,0.0014,0.0148,143.1,98.5,0.461
8.58,31942.8,34969.6,-0.0554,-0.0407,143.1,98.5,0.461
8.6,31930.8,34782.0,-0.0714,-0.2699,143.1,98.5,0.461
8.62,31830.6,34760.9,-0.2064,-0.2956,143.1,98.5,0.461
8.64,31822.4,34682.2,-0.2174,-0.3918,143.1,98.5,0.461
8.66,31875.2,34673.7,-0.1463,-0.4021,143.1,98.5,0.461
8.68,31860.4,34684.1,-0.1662,-0.3894,143.1,98.5,0.461
8.7,31835.6,34648.9,-0.1995,-0.4325,143.1,98.5,0.461
8.72,31799.4,34509.1,-0.2483,-0.6031,143.1,98.5,0.461
8.74,31773.0,34433.6,-0.2838,-0.6954,143.1,98.5,0.461
8.76,31787.8,34458.9,-0.2639,-0.6644,143.1,98.5,0.461
8.78,31854.6,34674.1,-0.174,-0.4016,143.1,98.5,0.461
8.8,31969.6,35092.2,-0.0192,0.1089,143.1,98.5,0.461
8.82,32180.5,35399.1,0.2646,0.4838,143.1,98.5,0.461
8.84,32315.8,35628.6,0.4466,0.764,143.1,98.5,0.461
8.86,32241.7,35811.1,0.3469,0.9869,143.1,98.5,0.461
8.88,32292.0,35642.6,0.4146,0.7812,143.1,98.5,0.461
8.9,32200.8,35449.7,0.2918,0.5456,143.1,98.5,0.461
8.92,32185.7,35254.7,0.2715,0.3074,143.1,98.5,0.461
8.94,32100.9,35143.8,0.1574,0.1719,143.1,98.5,0.461
8.96,32032.5,35100.6,0.0654,0.1192,143.1,98.5,0.461
8.98,32050.1,35026.8,0.089,0.0291,143.1,98.5,0.461
9.0,31994.4,34884.8,0.0141,-0.1443,143.1,98.5,0.461
9.02,31946.0,34889.8,-0.0511,-0.1383,143.1,98.5,0.461
9.04,31899.1,34736.3,-0.1141,-0.3257,143.1,98.5,0.461
9.06,31797.6,34704.0,-0.2508,-0.3651,143.1,98.5,0.461
9.08,31911.8,34759.4,-0.0971,-0.2974,143.1,98.5,0.461
9.1,31900.6,34576.4,-0.1121,-0.5209,143.1,98.5,0.461
9.12,31877.0,34613.1,-0.1439,-0.4761,143.1,98.5,0.461
9.14,31844.5,34507.1,-0.1876,-0.6056,143.1,98.5,0.461
9.16,31733.5,34532.8,-0.3369,-0.5742,143.1,98.5,0.461
9.18,31834.5,34487.0,-0.2011,-0.6301,143.1,98.5,0.461
9.2,31815.8,34819.8,-0.2263,-0.2237,143.1,98.5,0.461
9.22,32099.9,35038.4,0.156,0.0432,143.1,98.5,0.461
9.24,32173.5,35417.1,0.2551,0.5057,143.1,98.5,0.461
9.26,32306.3,35759.8,0.4338,0.9243,143.1,98.5,0.461
9.28,32322.6,35790.2,0.4558,0.9614,143.1,98.5,0.461
9.3,32284.0,35562.4,0.4037,0.6833,143.1,98.5,0.461
9.32,32195.8,35394.8,0.2851,0.4786,143.1,98.5,0.461
9.34,32115.4,35334.1,0.1769,0.4044,143.1,98.5,0.461
9.36,31993.2,35065.5,0.0124,0.0764,143.1,98.5,0.461
9.38,32124.2,35027.2,0.1888,0.0296,143.1,98.5,0.461
9.4,32049.7,35038.9,0.0885,0.0438,143.1,98.5,0.461
9.42,31967.0,35016.0,-0.0228,0.0159,143.1,98.5,0.461
9.44,31919.9,34864.0,-0.0861,-0.1697,143.1,98.5,0.461
9.46,31932.0,34746.6,-0.0699,-0.3131,143.1,98.5,0.461
9.48,31822.4,34730.9,-0.2173,-0.3323,143.1,98.5,0.461
9.5,31934.6,34654.9,-0.0664,-0.4252,143.1,98.5,0.461
9.52,31854.4,34616.7,-0.1743,-0.4718,143.1,98.5,0.461
9.54,31730.0,34553.6,-0.3417,-0.5489,143.1,98.5,0.461
9.56,31806.6,34518.6,-0.2386,-0.5915,143.1,98.5,0.461
9.58,31784.4,34505.5,-0.2684,-0.6075,143.1,98.5,0.461
9.6,31851.9,34459.4,-0.1776,-0.6639,143.1,98.5,0.461
9.62,31901.8,34745.5,-0.1104,-0.3144,143.1,98.5,0.461
9.64,32053.1,35040.0,0.0931,0.0452,143.1,98.5,0.461
9.66,32209.6,35407.5,0.3036,0.494,143.1,98.5,0.461
9.68,32363.4,35735.6,0.5107,0.8947,143.1,98.5,0.461
9.7,32309.9,35726.6,0.4387,0.8837,143.1,98.5,0.461
9.72,32351.5,35653.5,0.4945,0.7945,143.1,98.5,0.461
9.74,32218.7,35407.3,0.316,0.4938,143.1,98.5,0.461
9.76,32166.8,35289.1,0.2461,0.3495,143.1,98.5,0.461
9.78,32119.3,35155.4,0.1822,0.1862,143.1,98.5,0.461
9.8,32126.5,35125.9,0.1919,0.1501,143.1,98.5,0.461
9.82,31973.2,34982.4,-0.0145,-0.0251,143.1,98.5,0.461
9.84,32002.4,34832.6,0.0249,-0.208,143.1,98.5,0.461
9.86,31887.4,34958.3,-0.1298,-0.0545,143.1,98.5,0.461
9.88,31861.3,34768.3,-0.165,-0.2866,143.1,98.5,0.461
9.9,31823.2,34687.5,-0.2163,-0.3852,143.1,98.5,0.461
9.92,31887.3,34637.7,-0.1301,-0.4461,143.1,98.5,0.461
9.94,31956.2,34678.5,-0.0373,-0.3963,143.1,98.5,0.461
9.96,31797.9,34675.0,-0.2503,-0.4005,143.1,98.5,0.461
9.98,31764.5,34530.7,-0.2952,-0.5768,143.1,98.5,0.461
10.0,31785.8,34523.0,-0.2665,-0.5862,143.1,98.5,0.461
10.02,31801.7,34554.4,-0.2452,-0.5479,143.1,98.5,0.461
10.04,31989.2,34731.8,0.0071,-0.3311,143.1,98.5,0.461
10.06,32053.3,35066.3,0.0933,0.0773,143.1,98.5,0.461
10.08,32264.7,35420.5,0.3779,0.51,143.1,98.5,0.461
10.1,32366.2,35677.7,0.5145,0.824,143.1,98.5,0.461
10.12,32368.8,35725.8,0.5179,0.8828,143.1,98.5,0.461
10.14,32313.0,35642.3,0.4428,0.7808,143.1,98.5,0.461
10.16,32142.4,35444.3,0.2133,0.539,143.1,98.5,0.461
10.18,32103.7,35278.5,0.1612,0.3365,143.1,98.5,0.461
10.2,32055.0,35165.7,0.0956,0.1987,143.1,98.5,0.461
10.22,31929.0,35147.8,-0.0739,0.1768,143.1,98.5,0.461
10.24,31877.3,34995.0,-0.1434,-0.0097,143.1,98.5,0.461
10.26,31987.9,34996.4,0.0054,-0.0081,143.1,98.5,0.461
10.28,31939.7,34863.0,-0.0595,-0.171,143.1,98.5,0.461
10.3,31942.7,34747.3,-0.0555,-0.3123,143.1,98.5,0.461
10.32,31819.8,34626.5,-0.2209,-0.4597,143.1,98.5,0.461
10.34,31885.6,34536.7,-0.1323,-0.5695,143.1,98.5,0.461
10.36,31740.4,34733.8,-0.3277,-0.3287,143.1,98.5,0.461
10.38,31855.8,34628.4,-0.1724,-0.4575,143.1,98.5,0.461
10.4,31787.7,34512.7,-0.2641,-0.5987,143.1,98.5,0.461
10.42,31791.5,34500.9,-0.2589,-0.6132,143.1,98.5,0.461
10.44,31797.4,34474.1,-0.251,-0.6459,143.1,98.5,0.461
10.46,31823.4,34753.4,-0.216,-0.3048,143.1,98.5,0.461
10.48,32014.3,35104.2,0.0409,0.1237,143.1,98.5,0.461
10.5,32213.8,35455.9,0.3094,0.5531,143.1,98.5,0.461
10.52,32351.6,35776.2,0.4948,0.9443,143.1,98.5,0.461
10.54,32346.6,35796.6,0.488,0.9692,143.1,98.5,0.461
10.56,32163.3,35590.3,0.2414,0.7173,143.1,98.5,0.461
10.58,32205.7,35409.5,0.2985,0.4965,143.1,98.5,0.461
10.6,32100.9,35308.8,0.1574,0.3734,143.1,98.5,0.461
10.62,32030.0,35117.1,0.0621,0.1393,143.1,98.5,0.461
10.64,32029.8,35060.3,0.0618,0.07,143.1,98.5,0.461
10.66,31968.9,35039.2,-0.0202,0.0443,143.1,98.5,0.461
10.68,31932.5,34917.4,-0.0692,-0.1045,143.1,98.5,0.461
10.7,31871.2,34785.9,-0.1517,-0.2651,143.1,98.5,0.461
10.72,31961.5,34713.3,-0.0301,-0.3538,143.1,98.5,0.461
10.74,31883.0,34707.9,-0.1358,-0.3604,143.1,98.5,0.461
10.76,31785.1,34701.6,-0.2675,-0.368,143.1,98.5,0.461
10.78,31847.3,34694.5,-0.1839,-0.3767,143.1,98.5,0.461
10.8,31909.9,34672.4,-0.0996,-0.4038,143.1,98.5,0.461
10.82,31816.2,34476.8,-0.2257,-0.6426,143.1,98.5,0.461
10.84,31826.7,34497.3,-0.2115,-0.6176,143.1,98.5,0.461
10.86,31882.7,34462.2,-0.1363,-0.6605,143.1,98.5,0.461
10.88,31896.0,34772.9,-0.1184,-0.281,143.1,98.5,0.461
10.9,32064.6,35191.5,0.1085,0.2303,143.1,98.5,0.461
10.92,32129.1,35455.1,0.1953,0.5521,143.1,98.5,0.461
10.94,32282.2,35697.3,0.4014,0.8479,143.1,98.5,0.461
10.96,32338.7,35746.8,0.4774,0.9084,143.1,98.5,0.461
10.98,32287.0,35682.3,0.4079,0.8297,143.1,98.5,0.461
11.0,32112.6,35387.3,0.1732,0.4694,143.1,98.5,0.461
11.02,32133.3,35273.3,0.201,0.3302,143.1,98.5,0.461
11.04,32051.6,35191.8,0.0911,0.2306,143.1,98.5,0.461
11.06,31968.1,35011.1,-0.0213,0.0099,143.1,98.5,0.461
11.08,32042.2,35059.2,0.0784,0.0686,143.1,98.5,0.461
11.1,32100.5,34934.5,0.1568,-0.0836,143.1,98.5,0.461
11.12,31960.6,34892.8,-0.0314,-0.1346,143.1,98.5,0.461
11.14,31990.8,34745.8,0.0092,-0.3141,143.1,98.5,0.461
11.16,31916.8,34743.3,-0.0903,-0.3171,143.1,98.5,0.461
11.18,31806.8,34728.1,-0.2384,-0.3357,143.1,98.5,0.461
11.2,31791.8,34611.2,-0.2585,-0.4784,143.1,98.5,0.461
11.22,31792.1,34554.7,-0.2581,-0.5474,143.1,98.5,0.461
11.24,31714.0,34456.4,-0.3632,-0.6676,143.1,98.5,0.461
11.26,31695.3,34431.4,-0.3883,-0.698,143.1,98.5,0.461
11.28,31819.4,34483.6,-0.2213,-0.6343,143.1,98.5,0.461
11.3,31850.3,34803.8,-0.1798,-0.2432,143.1,98.5,0.461
11.32,32079.7,35105.4,0.1289,0.125,143.1,98.5,0.461
11.34,32136.9,35421.6,0.2059,0.5113,143.1,98.5,0.461
11.36,32265.2,35704.5,0.3785,0.8567,143.1,98.5,0.461
11.38,32338.3,35782.3,0.4769,0.9518,143.1,98.5,0.461
11.4,32294.7,35656.1,0.4182,0.7977,143.1,98.5,0.461
11.42,32118.6,35487.1,0.1812,0.5912,143.1,98.5,0.461
11.44,32103.3,35262.4,0.1606,0.3168,143.1,98.5,0.461
11.46,31995.9,35177.5,0.0161,0.2131,143.1,98.5,0.461
11.48,32057.1,34958.3,0.0984,-0.0546,143.1,98.5,0.461
11.5,32060.9,35033.9,0.1036,0.0377,143.1,98.5,0.461
11.52,32018.7,34987.1,0.0468,-0.0193,143.1,98.5,0.461
11.54,31965.8,34841.8,-0.0244,-0.1968,143.1,98.5,0.461
11.56,31881.6,34759.5,-0.1376,-0.2974,143.1,98.5,0.461
11.58,31873.0,34701.5,-0.1492,-0.3682,143.1,98.5,0.461
11.6,31887.3,34626.9,-0.13,-0.4593,143.1,98.5,0.461
11.62,31790.7,34649.7,-0.26,-0.4315,143.1,98.5,0.461
11.64,31760.0,34611.5,-0.3013,-0.4781,143.1,98.5,0.461
11.66,31736.6,34501.2,-0.3328,-0.6129,143.1,98.5,0.461
11.68,31719.1,34390.9,-0.3563,-0.7475,143.1,98.5,0.461
11.7,31754.7,34535.1,-0.3085,-0.5714,143.1,98.5,0.461
11.72,31899.3,34752.2,-0.1139,-0.3063,143.1,98.5,0.461
11.74,32090.4,35103.7,0.1433,0.123,143.1,98.5,0.461
11.76,32188.5,35465.5,0.2753,0.5649,143.1,98.5,0.461
11.78,32285.3,35701.8,0.4056,0.8534,143.1,98.5,0.461
11.8,32382.2,35692.4,0.5359,0.842,143.1,98.5,0.461
11.82,32234.2,35668.9,0.3368,0.8133,143.1,98.5,0.461
11.84,32193.8,35370.7,0.2825,0.4491,143.1,98.5,0.461
11.86,32043.8,35175.7,0.0806,0.211,143.1,98.5,0.461
11.88,32050.9,35100.8,0.0902,0.1195,143.1,98.5,0.461
11.9,32095.0,35080.2,0.1495,0.0943,143.1,98.5,0.461
11.92,32014.2,35108.4,0.0407,0.1288,143.1,98.5,0.461
11.94,31980.3,34941.3,-0.0049,-0.0753,143.1,98.5,0.461
11.96,31889.4,34852.4,-0.1272,-0.1839,143.1,98.5,0.461
11.98,31909.5,34665.1,-0.1001,-0.4126,143.1,98.5,0.461
12.0,31948.0,34636.4,-0.0484,-0.4477,143.1,98.5,0.461
12.02,31817.8,34696.1,-0.2235,-0.3748,143.1,98.5,0.461
12.04,31863.2,34675.1,-0.1624,-0.4004,143.1,98.5,0.461
12.06,31872.6,34560.6,-0.1498,-0.5403,143.1,98.5,0.461
12.08,31771.1,34521.4,-0.2864,-0.5881,143.1,98.5,0.461
12.1,31725.5,34432.7,-0.3477,-0.6965,143.1,98.5,0.461
12.12,31728.2,34568.1,-0.344,-0.5311,143.1,98.5,0.461
12.14,31901.0,34819.1,-0.1116,-0.2245,143.1,98.5,0.461
12.16,32044.6,35173.5,0.0817,0.2082,143.1,98.5,0.461
12.18,32182.6,35508.0,0.2673,0.6167,143.1,98.5,0.461
12.2,32373.0,35618.6,0.5235,0.7519,143.1,98.5,0.461
12.22,32345.9,35765.3,0.4871,0.931,143.1,98.5,0.461
12.24,32201.2,35611.0,0.2924,0.7425,143.1,98.5,0.461
12.26,32169.5,35398.1,0.2498,0.4825,143.1,98.5,0.461
12.28,32140.3,35207.9,0.2104,0.2503,143.1,98.5,0.461
12.3,32047.8,35057.2,0.0859,0.0662,143.1,98.5,0.461
12.32,32021.2,35033.8,0.0502,0.0376,143.1,98.5,0.461
12.34,31964.6,35043.0,-0.026,0.0489,143.1,98.5,0.461
12.36,31986.6,34993.3,0.0036,-0.0119,143.1,98.5,0.461
12.38,31934.1,34836.6,-0.067,-0.2032,143.1,98.5,0.461
12.4,31795.4,34689.2,-0.2536,-0.3832,143.1,98.5,0.461
12.42,31854.4,34627.7,-0.1742,-0.4583,143.1,98.5,0.461
12.44,31729.3,34692.2,-0.3426,-0.3796,143.1,98.5,0.461
12.46,32001.1,34543.7,0.0232,-0.5609,143.1,98.5,0.461
12.48,31802.1,34557.9,-0.2447,-0.5436,143.1,98.5,0.461
12.5,31882.0,34512.3,-0.1371,-0.5993,143.1,98.5,0.461
12.52,31726.7,34449.8,-0.3461,-0.6756,143.1,98.5,0.461
12.54,31842.6,34399.6,-0.1901,-0.7369,143.1,98.5,0.461
12.56,31792.9,34771.6,-0.257,-0.2826,143.1,98.5,0.461
12.58,32000.5,35229.2,0.0222,0.2763,143.1,98.5,0.461
12.6,32229.5,35525.6,0.3304,0.6383,143.1,98.5,0.461
12.62,32371.1,35749.2,0.521,0.9114,143.1,98.5,0.461
12.64,32292.0,35661.1,0.4145,0.8037,143.1,98.5,0.461
12.66,32284.3,35561.3,0.4042,0.6818,143.1,98.5,0.461
12.68,32130.1,35349.2,0.1966,0.4228,143.1,98.5,0.461
12.7,32031.1,35208.6,0.0634,0.2511,143.1,98.5,0.461
12.72,31988.6,35058.3,0.0063,0.0676,143.1,98.5,0.461
12.74,31997.5,35085.3,0.0183,0.1005,143.1,98.5,0.461
12.76,32024.7,35026.8,0.0549,0.0291,143.1,98.5,0.461
12.78,31998.6,34923.0,0.0197,-0.0977,143.1,98.5,0.461
12.8,31916.3,34892.9,-0.091,-0.1345,143.1,98.5,0.461
12.82,31916.0,34752.7,-0.0913,-0.3057,143.1,98.5,0.461
12.84,31870.4,34763.9,-0.1528,-0.292,143.1,98.5,0.461
12.86,31878.9,34690.1,-0.1412,-0.3821,143.1,98.5,0.461
12.88,31853.2,34632.7,-0.1759,-0.4523,143.1,98.5,0.461
12.9,31759.5,34586.4,-0.302,-0.5088,143.1,98.5,0.461
12.92,31850.3,34561.3,-0.1798,-0.5394,143.1,98.5,0.461
12.94,31722.9,34451.8,-0.3512,-0.6731,143.1,98.5,0.461
12.96,31827.0,34566.8,-0.2111,-0.5328,143.1,98.5,0.461
12.98,31958.5,34769.1,-0.0342,-0.2856,143.1,98.5,0.461
13.0,32094.6,35074.0,0.1489,0.0867,143.1,98.5,0.461
13.02,32103.4,35497.2,0.1608,0.6036,143.1,98.5,0.461
13.04,32319.8,35765.7,0.4519,0.9315,143.1,98.5,0.461
13.06,32243.8,35809.9,0.3496,0.9855,143.1,98.5,0.461
13.08,32255.5,35591.2,0.3655,0.7184,143.1,98.5,0.461
13.1,32162.1,35386.5,0.2397,0.4684,143.1,98.5,0.461
13.12,32066.2,35276.3,0.1107,0.3337,143.1,98.5,0.461
13.14,32057.6,35169.0,0.0992,0.2027,143.1,98.5,0.461
13.16,32051.0,35043.2,0.0902,0.0491,143.1,98.5,0.461
13.18,32034.5,35057.0,0.0681,0.066,143.1,98.5,0.461
13.2,31957.7,35010.1,-0.0353,0.0087,143.1,98.5,0.461
13.22,31901.2,34818.9,-0.1113,-0.2248,143.1,98.5,0.461
13.24,31885.7,34719.6,-0.1322,-0.3461,143.1,98.5,0.461
13.26,31854.9,34708.8,-0.1737,-0.3593,143.1,98.5,0.461
13.28,31833.0,34677.7,-0.2031,-0.3972,143.1,98.5,0.461
13.3,31858.5,34636.2,-0.1687,-0.448,143.1,98.5,0.461
13.32,31798.1,34500.0,-0.25,-0.6143,143.1,98.5,0.461
13.34,31784.5,34506.8,-0.2684,-0.606,143.1,98.5,0.461
13.36,31765.6,34378.5,-0.2938,-0.7627,143.1,98.5,0.461
13.38,31798.0,34651.5,-0.2502,-0.4293,143.1,98.5,0.461
13.4,31908.3,34809.9,-0.1018,-0.2359,143.1,98.5,0.461
13.42,32099.4,35171.7,0.1555,0.2061,143.1,98.5,0.461
13.44,32255.1,35552.7,0.3649,0.6713,143.1,98.5,0.461
13.46,32247.4,35740.7,0.3546,0.901,143.1,98.5,0.461
13.48,32359.9,35742.9,0.5059,0.9036,143.1,98.5,0.461
13.5,32267.9,35538.6,0.3822,0.6541,143.1,98.5,0.461
13.52,32155.0,35368.4,0.2302,0.4463,143.1,98.5,0.461
13.54,32135.8,35211.8,0.2043,0.255,143.1,98.5,0.461
13.56,32169.2,35192.3,0.2493,0.2312,143.1,98.5,0.461
13.58,32081.1,35137.5,0.1308,0.1642,143.1,98.5,0.461
13.6,31975.6,35046.2,-0.0112,0.0528,143.1,98.5,0.461
13.62,31996.7,34932.5,0.0172,-0.0861,143.1,98.5,0.461
13.64,31910.7,34882.0,-0.0985,-0.1478,143.1,98.5,0.461
13.66,31880.8,34777.7,-0.1388,-0.2752,143.1,98.5,0.461
13.68,31876.4,34612.2,-0.1447,-0.4773,143.1,98.5,0.461
13.7,31857.8,34612.7,-0.1698,-0.4767,143.1,98.5,0.461
13.72,31815.1,34624.0,-0.2272,-0.4629,143.1,98.5,0.461
13.74,31738.7,34564.8,-0.33,-0.5351,143.1,98.5,0.461
13.76,31771.4,34471.1,-0.286,-0.6495,143.1,98.5,0.461
13.78,31677.7,34489.7,-0.4121,-0.6269,143.1,98.5,0.461
13.8,31807.7,34565.0,-0.2372,-0.535,143.1,98.5,0.461
13.82,31835.3,34807.2,-0.2,-0.2391,143.1,98.5,0.461
13.84,32032.2,35191.9,0.065,0.2307,143.1,98.5,0.461
13.86,32258.8,35560.0,0.3699,0.6802,143.1,98.5,0.461
13.88,32355.0,35819.9,0.4993,0.9977,143.1,98.5,0.461
13.9,32313.6,35798.8,0.4437,0.972,143.1,98.5,0.461
13.92,32247.2,35572.5,0.3542,0.6955,143.1,98.5,0.461
13.94,32182.7,35432.8,0.2675,0.5249,143.1,98.5,0.461
13.96,32100.8,35229.3,0.1572,0.2764,143.1,98.5,0.461
13.98,32011.1,35040.3,0.0366,0.0455,143.1,98.5,0.461
14.0,32021.3,35037.5,0.0503,0.0421,143.1,98.5,0.461
14.02,32047.5,35004.9,0.0855,0.0024,143.1,98.5,0.461
14.04,31931.3,34766.6,-0.0708,-0.2887,143.1,98.5,0.461
14.06,31872.9,34788.1,-0.1494,-0.2624,143.1,98.5,0.461
14.08,31855.5,34768.1,-0.1728,-0.2869,143.1,98.5,0.461
14.1,31868.7,34684.4,-0.1551,-0.3891,143.1,98.5,0.461
14.12,31884.1,34654.3,-0.1343,-0.4258,143.1,98.5,0.461
14.14,31866.2,34548.1,-0.1584,-0.5555,143.1,98.5,0.461
14.16,31858.2,34601.3,-0.1691,-0.4905,143.1,98.5,0.461
14.18,31714.5,34476.8,-0.3625,-0.6426,143.1,98.5,0.461
14.2,31841.5,34482.0,-0.1916,-0.6363,143.1,98.5,0.461
14.22,31808.7,34645.5,-0.2358,-0.4366,143.1,98.5,0.461
14.24,31886.5,34798.8,-0.1311,-0.2494,143.1,98.5,0.461
14.26,32092.0,35217.9,0.1454,0.2624,143.1,98.5,0.461
14.28,32258.6,35575.9,0.3696,0.6997,143.1,98.5,0.461
14.3,32412.3,35634.2,0.5765,0.7709,143.1,98.5,0.461
14.32,32396.0,35676.7,0.5545,0.8228,143.1,98.5,0.461
14.34,32209.3,35536.6,0.3032,0.6516,143.1,98.5,0.461
14.36,32177.2,35308.4,0.26,0.373,143.1,98.5,0.461
14.38,32067.8,35231.5,0.1129,0.2791,143.1,98.5,0.461
14.4,32206.2,35152.5,0.2991,0.1826,143.1,98.5,0.461
14.42,32098.6,35075.6,0.1544,0.0887,143.1,98.5,0.461
14.44,32026.6,34969.3,0.0575,-0.0412,143.1,98.5,0.461
14.46,32045.3,34954.3,0.0826,-0.0595,143.1,98.5,0.461
14.48,31894.0,34853.1,-0.1209,-0.183,143.1,98.5,0.461
14.5,31939.9,34758.1,-0.0593,-0.2991,143.1,98.5,0.461
14.52,31976.7,34780.3,-0.0097,-0.2719,143.1,98.5,0.461
14.54,31867.8,34629.1,-0.1562,-0.4566,143.1,98.5,0.461
14.56,31836.4,34625.2,-0.1985,-0.4614,143.1,98.5,0.461
14.58,31848.0,34547.2,-0.1829,-0.5566,143.1,98.5,0.461
14.6,31844.1,34476.9,-0.1882,-0.6425,143.1,98.5,0.461
14.62,31854.1,34493.3,-0.1746,-0.6225,143.1,98.5,0.461
14.64,31784.8,34525.6,-0.2679,-0.583,143.1,98.5,0.461
14.66,31876.4,34844.6,-0.1446,-0.1935,143.1,98.5,0.461
14.68,32097.8,35137.2,0.1532,0.1639,143.1,98.5,0.461
14.7,32293.5,35519.1,0.4165,0.6303,143.1,98.5,0.461
14.72,32344.6,35779.5,0.4853,0.9483,143.1,98.5,0.461
14.74,32340.5,35730.2,0.4798,0.8882,143.1,98.5,0.461
14.76,32333.9,35644.5,0.4709,0.7835,143.1,98.5,0.461
14.78,32211.1,35384.1,0.3057,0.4655,143.1,98.5,0.461
14.8,32013.7,35175.5,0.04,0.2107,143.1,98.5,0.461
14.82,32042.5,35125.1,0.0788,0.1491,143.1,98.5,0.461
14.84,32111.3,35073.2,0.1714,0.0858,143.1,98.5,0.461
14.86,32063.0,35022.3,0.1063,0.0236,143.1,98.5,0.461
14.88,31949.8,34884.9,-0.0459,-0.1442,143.1,98.5,0.461
14.9,31959.4,34875.2,-0.0331,-0.156,143.1,98.5,0.461
14.92,31769.6,34747.1,-0.2884,-0.3124,143.1,98.5,0.461
14.94,31903.5,34703.0,-0.1082,-0.3663,143.1,98.5,0.461
14.96,31844.9,34654.0,-0.1871,-0.4262,143.1,98.5,0.461
14.98,31918.3,34510.6,-0.0883,-0.6014,143.1,98.5,0.461
15.0,31826.9,34473.7,-0.2113,-0.6464,143.1,98.5,0.461
15.02,31798.5,34566.6,-0.2495,-0.5329,143.1,98.5,0.461
15.04,31754.4,34441.1,-0.3089,-0.6862,143.1,98.5,0.461
15.06,31739.9,34593.8,-0.3284,-0.4998,143.1,98.5,0.461
15.08,31940.3,34850.1,-0.0587,-0.1867,143.1,98.5,0.461
15.1,32051.8,35261.0,0.0913,0.3151,143.1,98.5,0.461
15.12,32254.0,35598.0,0.3635,0.7267,143.1,98.5,0.461
15.14,32375.6,35759.1,0.5271,0.9234,143.1,98.5,0.461
15.16,32264.0,35677.4,0.3769,0.8237,143.1,98.5,0.461
15.18,32331.2,35547.8,0.4673,0.6653,143.1,98.5,0.461
15.2,32143.5,35325.1,0.2147,0.3934,143.1,98.5,0.461
15.22,31974.4,35229.0,-0.0128,0.2761,143.1,98.5,0.461
15.24,31973.1,35135.7,-0.0145,0.1621,143.1,98.5,0.461
15.26,32057.6,35076.6,0.0991,0.0899,143.1,98.5,0.461
15.28,31904.8,35053.6,-0.1065,0.0619,143.1,98.5,0.461
15.3,31896.5,34934.0,-0.1176,-0.0842,143.1,98.5,0.461
15.32,31856.9,34792.8,-0.1709,-0.2567,143.1,98.5,0.461
15.34,31865.4,34632.8,-0.1594,-0.4521,143.1,98.5,0.461
15.36,31941.7,34767.2,-0.0568,-0.288,143.1,98.5,0.461
15.38,31837.6,34654.5,-0.1969,-0.4256,143.1,98.5,0.461
15.4,31915.7,34494.0,-0.0918,-0.6216,143.1,98.5,0.461
15.42,31852.1,34487.4,-0.1774,-0.6297,143.1,98.5,0.461
15.44,31790.2,34459.7,-0.2606,-0.6635,143.1,98.5,0.461
15.46,31789.5,34490.2,-0.2617,-0.6263,143.1,98.5,0.461
15.48,31841.7,34579.6,-0.1913,-0.5171,143.1,98.5,0.461
15.5,31929.8,34897.9,-0.0729,-0.1283,143.1,98.5,0.461
15.52,32074.4,35315.8,0.1218,0.382,143.1,98.5,0.461
15.54,32294.8,35588.5,0.4184,0.715,143.1,98.5,0.461
15.56,32388.8,35706.2,0.5448,0.8588,143.1,98.5,0.461
15.58,32321.8,35696.4,0.4547,0.8469,143.1,98.5,0.461
15.6,32211.9,35583.5,0.3068,0.709,143.1,98.5,0.461
15.62,32101.8,35301.5,0.1587,0.3646,143.1,98.5,0.461
15.64,32135.2,35284.7,0.2036,0.344,143.1,98.5,0.461
15.66,32100.2,35206.7,0.1565,0.2488,143.1,98.5,0.461
15.68,32112.8,35060.6,0.1735,0.0703,143.1,98.5,0.461
15.7,32039.8,34978.4,0.0752,-0.03,143.1,98.5,0.461
15.72,31946.5,34819.3,-0.0503,-0.2243,143.1,98.5,0.461
15.74,31974.5,34836.6,-0.0127,-0.2032,143.1,98.5,0.461
15.76,31814.9,34757.4,-0.2275,-0.3,143.1,98.5,0.461
15.78,31842.4,34762.8,-0.1904,-0.2934,143.1,98.5,0.461
15.8,31809.3,34668.1,-0.2349,-0.4089,143.1,98.5,0.461
15.82,31871.3,34714.3,-0.1515,-0.3526,143.1,98.5,0.461
15.84,31795.8,34548.3,-0.2531,-0.5553,143.1,98.5,0.461
15.86,31730.9,34376.5,-0.3405,-0.7651,143.1,98.5,0.461
15.88,31788.7,34505.2,-0.2627,-0.6079,143.1,98.5,0.461
15.9,31810.4,34543.2,-0.2335,-0.5615,143.1,98.5,0.461
15.92,31971.4,34898.9,-0.0169,-0.1271,143.1,98.5,0.461
15.94,32081.8,35186.6,0.1317,0.2243,143.1,98.5,0.461
15.96,32258.7,35597.6,0.3697,0.7262,143.1,98.5,0.461
15.98,32291.0,35747.5,0.4131,0.9092,143.1,98.5,0.461
16.0,32358.1,35785.4,0.5035,0.9556,143.1,98.5,0.461
16.02,32278.1,35584.4,0.3958,0.71,143.1,98.5,0.461
16.04,32120.4,35391.4,0.1836,0.4744,143.1,98.5,0.461
16.06,32164.5,35244.5,0.243,0.2949,143.1,98.5,0.461
16.08,32078.2,35191.4,0.1268,0.2301,143.1,98.5,0.461
16.1,31971.7,35032.8,-0.0165,0.0364,143.1,98.5,0.461
16.12,31973.2,35040.9,-0.0144,0.0463,143.1,98.5,0.461
16.14,31899.5,34875.4,-0.1136,-0.1558,143.1,98.5,0.461
16.16,31979.2,34803.0,-0.0063,-0.2443,143.1,98.5,0.461
16.18,31818.3,34701.3,-0.2228,-0.3684,143.1,98.5,0.461
16.2,31841.2,34736.7,-0.1921,-0.3253,143.1,98.5,0.461
16.22,31841.5,34687.2,-0.1916,-0.3857,143.1,98.5,0.461
16.24,31894.6,34616.5,-0.1202,-0.472,143.1,98.5,0.461
16.26,31816.9,34619.0,-0.2248,-0.469,143.1,98.5,0.461
16.28,31812.9,34546.2,-0.2302,-0.5579,143.1,98.5,0.461
16.3,31760.5,34417.8,-0.3006,-0.7147,143.1,98.5,0.461
16.32,31779.4,34559.8,-0.2752,-0.5413,143.1,98.5,0.461
16.34,31928.5,34906.3,-0.0746,-0.1181,143.1,98.5,0.461
16.36,32095.0,35342.4,0.1495,0.4145,143.1,98.5,0.461
16.38,32275.4,35654.5,0.3923,0.7957,143.1,98.5,0.461
16.4,32310.0,35787.4,0.4388,0.958,143.1,98.5,0.461
16.42,32364.7,35675.6,0.5123,0.8215,143.1,98.5,0.461
16.44,32266.3,35562.9,0.38,0.6838,143.1,98.5,0.461
16.46,32172.3,35284.3,0.2535,0.3436,143.1,98.5,0.461
16.48,32082.7,35209.5,0.1329,0.2522,143.1,98.5,0.461
16.5,32076.3,35182.8,0.1244,0.2196,143.1,98.5,0.461
16.52,32057.6,34993.7,0.0991,-0.0114,143.1,98.5,0.461
16.54,32057.8,34947.1,0.0995,-0.0682,143.1,98.5,0.461
16.56,31962.9,34911.1,-0.0283,-0.1122,143.1,98.5,0.461
16.58,31938.4,34840.0,-0.0613,-0.1991,143.1,98.5,0.461
16.6,31903.1,34742.4,-0.1088,-0.3182,143.1,98.5,0.461
16.62,31892.7,34698.2,-0.1227,-0.3722,143.1,98.5,0.461
16.64,31908.5,34574.1,-0.1015,-0.5238,143.1,98.5,0.461
16.66,31866.1,34658.2,-0.1586,-0.4211,143.1,98.5,0.461
16.68,31765.6,34572.6,-0.2938,-0.5256,143.1,98.5,0.461
16.7,31757.9,34385.5,-0.3042,-0.7542,143.1,98.5,0.461
16.72,31757.8,34474.8,-0.3042,-0.645,143.1,98.5,0.461
16.74,31805.5,34651.6,-0.24,-0.4291,143.1,98.5,0.461
16.76,31903.0,34936.5,-0.1089,-0.0811,143.1,98.5,0.461
16.78,32077.4,35306.4,0.1258,0.3706,143.1,98.5,0.461
16.8,32171.4,35600.1,0.2523,0.7293,143.1,98.5,0.461
16.82,32364.3,35815.2,0.5118,0.9919,143.1,98.5,0.461
16.84,32224.5,35792.4,0.3237,0.9641,143.1,98.5,0.461
16.86,32339.0,35563.2,0.4778,0.6842,143.1,98.5,0.461
16.88,32145.0,35361.3,0.2167,0.4376,143.1,98.5,0.461
16.9,32161.3,35154.0,0.2387,0.1844,143.1,98.5,0.461
16.92,32086.9,35194.4,0.1386,0.2337,143.1,98.5,0.461
16.94,32068.1,35069.7,0.1133,0.0815,143.1,98.5,0.461
16.96,32017.6,35021.0,0.0453,0.0221,143.1,98.5,0.461
16.98,31960.8,34949.8,-0.0311,-0.0649,143.1,98.5,0.461
17.0,31864.4,34693.8,-0.1609,-0.3775,143.1,98.5,0.461
17.02,31843.2,34707.7,-0.1893,-0.3607,143.1,98.5,0.461
17.04,31890.8,34710.8,-0.1253,-0.3569,143.1,98.5,0.461
17.06,31790.9,34564.5,-0.2598,-0.5355,143.1,98.5,0.461
17.08,31848.1,34611.5,-0.1828,-0.4781,143.1,98.5,0.461
17.1,31820.1,34514.7,-0.2205,-0.5963,143.1,98.5,0.461
17.12,31759.0,34480.4,-0.3027,-0.6382,143.1,98.5,0.461
17.14,31823.9,34468.9,-0.2154,-0.6523,143.1,98.5,0.461
17.16,31845.1,34626.9,-0.1867,-0.4593,143.1,98.5,0.461
17.18,31996.3,34879.5,0.0166,-0.1509,143.1,98.5,0.461
17.2,32148.1,35243.3,0.2209,0.2934,143.1,98.5,0.461
17.22,32231.1,35571.6,0.3326,0.6945,143.1,98.5,0.461
17.24,32375.5,35786.6,0.527,0.9571,143.1,98.5,0.461
17.26,32370.0,35712.6,0.5195,0.8666,143.1,98.5,0.461
17.28,32294.9,35528.2,0.4184,0.6414,143.1,98.5,0.461
17.3,32139.8,35425.3,0.2098,0.5157,143.1,98.5,0.461
17.32,32129.4,35165.6,0.1958,0.1986,143.1,98.5,0.461
17.34,32044.6,35119.0,0.0817,0.1417,143.1,98.5,0.461
17.36,32022.5,35062.7,0.0519,0.0729,143.1,98.5,0.461
17.38,32078.9,34929.3,0.1279,-0.09,143.1,98.5,0.461
17.4,31848.5,34923.6,-0.1822,-0.0969,143.1,98.5,0.461
17.42,31862.1,34756.3,-0.1639,-0.3013,143.1,98.5,0.461
17.44,31886.1,34768.1,-0.1316,-0.2869,143.1,98.5,0.461
17.46,31774.6,34710.4,-0.2817,-0.3574,143.1,98.5,0.461
17.48,31958.2,34626.6,-0.0346,-0.4597,143.1,98.5,0.461
17.5,31892.2,34600.2,-0.1234,-0.4919,143.1,98.5,0.461
17.52,31780.5,34542.6,-0.2738,-0.5622,143.1,98.5,0.461
17.54,31792.7,34459.3,-0.2573,-0.6639,143.1,98.5,0.461
17.56,31793.1,34394.1,-0.2568,-0.7436,143.1,98.5,0.461
17.58,31767.9,34652.8,-0.2906,-0.4277,143.1,98.5,0.461
17.6,32041.8,34887.6,0.0778,-0.1409,143.1,98.5,0.461
17.62,32172.2,35352.0,0.2534,0.4263,143.1,98.5,0.461
17.64,32273.7,35599.9,0.3899,0.729,143.1,98.5,0.461
17.66,32325.6,35704.6,0.4597,0.8568,143.1,98.5,0.461
17.68,32307.4,35600.3,0.4353,0.7295,143.1,98.5,0.461
17.7,32244.7,35633.9,0.3509,0.7705,143.1,98.5,0.461
17.72,32116.0,35384.3,0.1778,0.4658,143.1,98.5,0.461
17.74,32067.4,35183.9,0.1123,0.221,143.1,98.5,0.461
17.76,32074.9,35226.2,0.1225,0.2726,143.1,98.5,0.461
17.78,32038.2,35096.7,0.073,0.1144,143.1,98.5,0.461
17.8,32050.1,34978.2,0.0891,-0.0302,143.1,98.5,0.461
17.82,31905.3,34816.1,-0.1057,-0.2283,143.1,98.5,0.461
17.84,31864.2,34751.5,-0.1611,-0.3071,143.1,98.5,0.461
17.86,31969.5,34735.0,-0.0194,-0.3273,143.1,98.5,0.461
17.88,31919.3,34627.5,-0.0869,-0.4586,143.1,98.5,0.461
17.9,31800.2,34603.7,-0.2473,-0.4877,143.1,98.5,0.461
17.92,31837.1,34524.1,-0.1976,-0.5849,143.1,98.5,0.461
17.94,31761.2,34541.6,-0.2997,-0.5635,143.1,98.5,0.461
17.96,31645.2,34449.3,-0.4558,-0.6762,143.1,98.5,0.461
17.98,31662.9,34484.1,-0.4319,-0.6338,143.1,98.5,0.461
18.0,31907.4,34642.7,-0.1029,-0.44,143.1,98.5,0.461
18.02,32026.9,34974.1,0.0579,-0.0352,143.1,98.5,0.461
18.04,32089.6,35350.3,0.1421,0.4241,143.1,98.5,0.461
18.06,32263.5,35653.5,0.3762,0.7944,143.1,98.5,0.461
18.08,32402.0,35810.7,0.5626,0.9864,143.1,98.5,0.461
18.1,32320.9,35726.5,0.4534,0.8836,143.1,98.5,0.461
18.12,32260.4,35484.7,0.372,0.5883,143.1,98.5,0.461
18.14,32179.4,35299.6,0.263,0.3623,143.1,98.5,0.461
18.16,32019.4,35216.6,0.0478,0.2609,143.1,98.5,0.461
18.18,31973.5,35111.0,-0.014,0.132,143.1,98.5,0.461
18.2,32005.4,35062.0,0.0289,0.072,143.1,98.5,0.461
18.22,31949.4,34962.3,-0.0464,-0.0496,143.1,98.5,0.461
18.24,31916.0,34859.8,-0.0914,-0.1749,143.1,98.5,0.461
18.26,31918.6,34668.4,-0.0879,-0.4087,143.1,98.5,0.461
18.28,31850.3,34735.8,-0.1798,-0.3263,143.1,98.5,0.461
18.3,31846.6,34756.3,-0.1848,-0.3012,143.1,98.5,0.461
18.32,31815.7,34634.0,-0.2264,-0.4506,143.1,98.5,0.461
18.34,31793.0,34566.8,-0.2569,-0.5327,143.1,98.5,0.461
18.36,31801.4,34558.0,-0.2456,-0.5435,143.1,98.5,0.461
18.38,31863.9,34413.2,-0.1615,-0.7203,143.1,98.5,0.461
18.4,31828.9,34432.0,-0.2086,-0.6973,143.1,98.5,0.461
18.42,31908.7,34641.0,-0.1012,-0.4421,143.1,98.5,0.461
18.44,31941.2,35004.7,-0.0575,0.002,143.1,98.5,0.461
18.46,32091.7,35325.9,0.145,0.3944,143.1,98.5,0.461
18.48,32240.4,35663.7,0.3451,0.8069,143.1,98.5,0.461
18.5,32285.3,35663.1,0.4056,0.8062,143.1,98.5,0.461
18.52,32190.0,35622.9,0.2773,0.7571,143.1,98.5,0.461
18.54,32252.7,35541.1,0.3616,0.6572,143.1,98.5,0.461
18.56,32152.9,35217.3,0.2273,0.2618,143.1,98.5,0.461
18.58,32088.6,35181.5,0.1408,0.2181,143.1,98.5,0.461
18.6,32013.6,35149.1,0.0399,0.1784,143.1,98.5,0.461
18.62,31954.4,35066.6,-0.0397,0.0777,143.1,98.5,0.461
18.64,31955.4,34932.0,-0.0383,-0.0867,143.1,98.5,0.461
18.66,31922.5,34926.8,-0.0827,-0.093,143.1,98.5,0.461
18.68,31894.7,34697.5,-0.1201,-0.3731,143.1,98.5,0.461
18.7,31876.3,34746.1,-0.1447,-0.3137,143.1,98.5,0.461
18.72,31874.0,34734.5,-0.1479,-0.3279,143.1,98.5,0.461
18.74,31880.3,34593.6,-0.1394,-0.5,143.1,98.5,0.461
18.76,31820.7,34621.1,-0.2196,-0.4664,143.1,98.5,0.461
18.78,31772.2,34500.0,-0.2849,-0.6143,143.1,98.5,0.461
18.8,31782.2,34498.7,-0.2714,-0.6158,143.1,98.5,0.461
18.82,31741.1,34497.0,-0.3268,-0.6179,143.1,98.5,0.461
18.84,31831.5,34663.0,-0.2051,-0.4153,143.1,98.5,0.461
18.86,31938.9,34980.1,-0.0605,-0.028,143.1,98.5,0.461
18.88,32184.8,35333.8,0.2702,0.4041,143.1,98.5,0.461
18.9,32221.4,35743.4,0.3195,0.9043,143.1,98.5,0.461
18.92,32353.5,35782.6,0.4973,0.9521,143.1,98.5,0.461
18.94,32344.8,35681.8,0.4857,0.829,143.1,98.5,0.461
18.96,32245.7,35473.0,0.3522,0.574,143.1,98.5,0.461
18.98,32186.8,35256.7,0.273,0.3098,143.1,98.5,0.461
19.0,32085.4,35163.4,0.1366,0.1959,143.1,98.5,0.461
19.02,32034.9,35090.4,0.0686,0.1067,143.1,98.5,0.461
19.04,31953.2,35011.4,-0.0414,0.0102,143.1,98.5,0.461
19.06,31964.9,35033.1,-0.0255,0.0368,143.1,98.5,0.461
19.08,31891.1,34898.7,-0.1248,-0.1274,143.1,98.5,0.461
19.1,31881.8,34693.5,-0.1373,-0.378,143.1,98.5,0.461
19.12,31897.1,34750.5,-0.1168,-0.3084,143.1,98.5,0.461
19.14,31857.7,34676.0,-0.1698,-0.3994,143.1,98.5,0.461
19.16,31805.8,34710.5,-0.2396,-0.3573,143.1,98.5,0.461
19.18,31931.5,34650.0,-0.0705,-0.4311,143.1,98.5,0.461
19.2,31838.0,34470.5,-0.1964,-0.6503,143.1,98.5,0.461
19.22,31842.0,34433.7,-0.191,-0.6952,143.1,98.5,0.461
19.24,31783.6,34492.1,-0.2696,-0.624,143.1,98.5,0.461
19.26,31833.7,34694.2,-0.2021,-0.3771,143.1,98.5,0.461
19.28,32023.7,34976.4,0.0535,-0.0324,143.1,98.5,0.461
19.3,32149.4,35233.4,0.2227,0.2815,143.1,98.5,0.461
19.32,32281.5,35700.6,0.4005,0.852,143.1,98.5,0.461
19.34,32290.9,35758.1,0.413,0.9222,143.1,98.5,0.461
19.36,32331.8,35793.6,0.4681,0.9656,143.1,98.5,0.461
19.38,32245.9,35510.4,0.3525,0.6197,143.1,98.5,0.461
19.4,32094.8,35328.8,0.1492,0.3979,143.1,98.5,0.461
19.42,32081.4,35191.5,0.1312,0.2302,143.1,98.5,0.461
19.44,32101.9,35122.4,0.1587,0.1459,143.1,98.5,0.461
19.46,32098.8,35057.0,0.1546,0.066,143.1,98.5,0.461
19.48,32034.8,34967.4,0.0685,-0.0435,143.1,98.5,0.461
19.5,31919.6,34822.8,-0.0865,-0.22,143.1,98.5,0.461
19.52,31954.0,34741.8,-0.0402,-0.3189,143.1,98.5,0.461
19.54,31916.7,34749.9,-0.0904,-0.3091,143.1,98.5,0.461
19.56,31924.3,34652.7,-0.0802,-0.4278,143.1,98.5,0.461
19.58,31864.5,34655.7,-0.1607,-0.4241,143.1,98.5,0.461
19.6,31754.8,34539.0,-0.3083,-0.5667,143.1,98.5,0.461
19.62,31771.9,34531.8,-0.2853,-0.5755,143.1,98.5,0.461
19.64,31728.9,34411.9,-0.3431,-0.7219,143.1,98.5,0.461
19.66,31775.9,34596.4,-0.2799,-0.4965,143.1,98.5,0.461
19.68,31808.5,34746.7,-0.2361,-0.313,143.1,98.5,0.461
19.7,32038.0,34966.2,0.0728,-0.045,143.1,98.5,0.461
19.72,32133.5,35354.6,0.2013,0.4294,143.1,98.5,0.461
19.74,32244.8,35675.5,0.3511,0.8214,143.1,98.5,0.461
19.76,32297.6,35709.0,0.4221,0.8622,143.1,98.5,0.461
19.78,32373.2,35685.4,0.5237,0.8334,143.1,98.5,0.461
19.8,32286.1,35419.5,0.4066,0.5087,143.1,98.5,0.461
19.82,32040.6,35323.5,0.0762,0.3914,143.1,98.5,0.461
19.84,32008.7,35139.3,0.0334,0.1664,143.1,98.5,0.461
19.86,32124.1,35058.2,0.1886,0.0674,143.1,98.5,0.461
19.88,32047.9,34921.2,0.086,-0.0999,143.1,98.5,0.461
19.9,32021.3,34886.7,0.0504,-0.142,143.1,98.5,0.461
19.92,31993.7,34896.2,0.0131,-0.1304,143.1,98.5,0.461
19.94,31977.2,34729.7,-0.009,-0.3338,143.1,98.5,0.461
19.96,31820.1,34663.2,-0.2205,-0.415,143.1,98.5,0.461
19.98,31838.6,34682.3,-0.1955,-0.3916,143.1,98.5,0.461
20.0,31963.8,34731.2,-0.0271,-0.332,143.1,98.5,0.461
20.02,31808.9,34569.8,-0.2355,-0.5291,143.1,98.5,0.461
20.04,31887.7,34557.2,-0.1294,-0.5444,143.1,98.5,0.461
20.06,31753.2,34447.9,-0.3104,-0.678,143.1,98.5,0.461
20.08,31784.4,34424.4,-0.2685,-0.7067,143.1,98.5,0.461
20.1,31875.0,34823.6,-0.1466,-0.2191,143.1,98.5,0.461
20.12,31967.4,35145.1,-0.0222,0.1736,143.1,98.5,0.461
20.14,31964.6,35385.9,-0.0259,0.4676,143.1,98.5,0.461
20.16,32290.0,35653.4,0.4118,0.7943,143.1,98.5,0.461
20.18,32287.4,35713.8,0.4083,0.8681,143.1,98.5,0.461
20.2,32281.4,35706.7,0.4002,0.8594,143.1,98.5,0.461
20.22,32150.2,35395.8,0.2238,0.4797,143.1,98.5,0.461
20.24,32062.7,35281.7,0.106,0.3404,143.1,98.5,0.461
20.26,32150.3,35171.1,0.2239,0.2053,143.1,98.5,0.461
20.28,31988.8,35125.8,0.0065,0.15,143.1,98.5,0.461
20.3,32045.9,35097.7,0.0834,0.1157,143.1,98.5,0.461
20.32,32044.4,35067.1,0.0814,0.0783,143.1,98.5,0.461
20.34,32037.8,34933.8,0.0724,-0.0845,143.1,98.5,0.461
20.36,31894.4,34734.6,-0.1204,-0.3278,143.1,98.5,0.461
20.38,31958.0,34745.5,-0.0349,-0.3144,143.1,98.5,0.461
20.4,31798.9,34699.0,-0.249,-0.3712,143.1,98.5,0.461
20.42,31826.3,34718.3,-0.2121,-0.3477,143.1,98.5,0.461
20.44,31813.0,34531.4,-0.23,-0.5759,143.1,98.5,0.461
20.46,31767.9,34460.2,-0.2907,-0.6629,143.1,98.5,0.461
20.48,31829.7,34455.9,-0.2075,-0.6682,143.1,98.5,0.461
20.5,31760.5,34491.8,-0.3006,-0.6243,143.1,98.5,0.461
20.52,31832.2,34710.1,-0.2041,-0.3577,143.1,98.5,0.461
20.54,32020.2,35084.3,0.0488,0.0993,143.1,98.5,0.461
20.56,32147.4,35369.5,0.2199,0.4477,143.1,98.5,0.461
20.58,32283.6,35747.8,0.4032,0.9096,143.1,98.5,0.461
20.6,32212.3,35710.3,0.3073,0.8639,143.1,98.5,0.461
20.62,32280.7,35699.0,0.3994,0.85,143.1,98.5,0.461
20.64,32237.9,35495.8,0.3418,0.6018,143.1,98.5,0.461
20.66,32118.4,35292.3,0.181,0.3533,143.1,98.5,0.461
20.68,32040.9,35135.3,0.0767,0.1616,143.1,98.5,0.461
20.7,32059.0,35131.2,0.101,0.1566,143.1,98.5,0.461
20.72,32018.1,34959.2,0.046,-0.0534,143.1,98.5,0.461
20.74,32056.2,34965.3,0.0972,-0.046,143.1,98.5,0.461
20.76,31950.6,34844.6,-0.0448,-0.1934,143.1,98.5,0.461
20.78,31843.0,34795.2,-0.1896,-0.2537,143.1,98.5,0.461
20.8,31896.4,34690.9,-0.1177,-0.3812,143.1,98.5,0.461
20.82,31829.7,34646.2,-0.2075,-0.4357,143.1,98.5,0.461
20.84,31869.9,34591.3,-0.1534,-0.5028,143.1,98.5,0.461
20.86,31798.4,34589.4,-0.2496,-0.5052,143.1,98.5,0.461
20.88,31834.3,34507.0,-0.2013,-0.6057,143.1,98.5,0.461
20.9,31787.5,34564.2,-0.2643,-0.5359,143.1,98.5,0.461
20.92,31844.4,34532.5,-0.1877,-0.5745,143.1,98.5,0.461
20.94,31827.4,34766.2,-0.2105,-0.2891,143.1,98.5,0.461
20.96,32118.1,35043.5,0.1805,0.0495,143.1,98.5,0.461
20.98,32091.1,35358.6,0.1442,0.4343,143.1,98.5,0.461
21.0,32250.1,35731.1,0.3582,0.8892,143.1,98.5,0.461
21.02,32346.2,35743.1,0.4875,0.9039,143.1,98.5,0.461
21.04,32255.3,35641.3,0.3651,0.7795,143.1,98.5,0.461
21.06,32258.2,35449.1,0.369,0.5449,143.1,98.5,0.461
21.08,32168.4,35267.7,0.2482,0.3233,143.1,98.5,0.461
21.1,32125.7,35153.4,0.1907,0.1837,143.1,98.5,0.461
21.12,32003.9,34956.2,0.0268,-0.0572,143.1,98.5,0.461
21.14,31973.1,34967.1,-0.0146,-0.0438,143.1,98.5,0.461
21.16,31922.0,35015.9,-0.0833,0.0158,143.1,98.5,0.461
21.18,31944.3,34954.7,-0.0533,-0.059,143.1,98.5,0.461
21.2,31939.4,34786.6,-0.0598,-0.2642,143.1,98.5,0.461
21.22,31897.4,34702.5,-0.1164,-0.367,143.1,98.5,0.461
21.24,31874.9,34682.9,-0.1466,-0.391,143.1,98.5,0.461
21.26,31872.0,34675.5,-0.1506,-0.3999,143.1,98.5,0.461
21.28,31899.4,34598.3,-0.1137,-0.4943,143.1,98.5,0.461
21.3,31844.6,34479.3,-0.1875,-0.6396,143.1,98.5,0.461
21.32,31805.2,34402.2,-0.2405,-0.7337,143.1,98.5,0.461
21.34,31792.7,34603.2,-0.2573,-0.4882,143.1,98.5,0.461
21.36,31910.4,34687.1,-0.0989,-0.3858,143.1,98.5,0.461
21.38,32130.7,35035.0,0.1975,0.0391,143.1,98.5,0.461
21.4,32171.6,35474.9,0.2526,0.5764,143.1,98.5,0.461
21.42,32321.7,35655.6,0.4544,0.797,143.1,98.5,0.461
21.44,32307.6,35702.2,0.4355,0.8539,143.1,98.5,0.461
21.46,32297.8,35661.4,0.4224,0.8041,143.1,98.5,0.461
21.48,32252.9,35496.0,0.362,0.6021,143.1,98.5,0.461
21.5,32178.2,35291.7,0.2614,0.3526,143.1,98.5,0.461
21.52,32067.7,35160.7,0.1127,0.1926,143.1,98.5,0.461
21.54,32002.9,35141.0,0.0256,0.1685,143.1,98.5,0.461
21.56,32006.1,35004.6,0.0299,0.0019,143.1,98.5,0.461
21.58,32033.5,34962.1,0.0667,-0.05,143.1,98.5,0.461
21.6,32009.9,34803.7,0.035,-0.2434,143.1,98.5,0.461
21.62,31871.6,34743.0,-0.1511,-0.3175,143.1,98.5,0.461
21.64,31914.2,34709.6,-0.0938,-0.3583,143.1,98.5,0.461
21.66,31938.3,34796.2,-0.0613,-0.2526,143.1,98.5,0.461
21.68,31869.3,34632.0,-0.1543,-0.4531,143.1,98.5,0.461
21.7,31799.9,34572.1,-0.2476,-0.5262,143.1,98.5,0.461
21.72,31786.6,34484.5,-0.2655,-0.6332,143.1,98.5,0.461
21.74,31796.8,34477.6,-0.2518,-0.6416,143.1,98.5,0.461
21.76,31805.9,34531.3,-0.2395,-0.5761,143.1,98.5,0.461
21.78,31919.6,34835.6,-0.0865,-0.2045,143.1,98.5,0.461
21.8,32061.0,35020.0,0.1037,0.0207,143.1,98.5,0.461
21.82,32133.2,35445.7,0.2009,0.5407,143.1,98.5,0.461
21.84,32321.7,35636.1,0.4545,0.7733,143.1,98.5,0.461
21.86,32368.8,35635.9,0.5179,0.7729,143.1,98.5,0.461
21.88,32217.8,35691.4,0.3147,0.8407,143.1,98.5,0.461
21.9,32225.9,35441.5,0.3257,0.5355,143.1,98.5,0.461
21.92,32079.5,35207.8,0.1287,0.2502,143.1,98.5,0.461
21.94,32067.2,35153.5,0.1121,0.1838,143.1,98.5,0.461
21.96,32111.5,35109.7,0.1717,0.1303,143.1,98.5,0.461
21.98,32058.9,34973.2,0.1009,-0.0364,143.1,98.5,0.461
22.0,31994.0,34878.0,0.0136,-0.1526,143.1,98.5,0.461
22.02,31846.5,34889.6,-0.1849,-0.1385,143.1,98.5,0.461
22.04,31843.8,34777.6,-0.1885,-0.2752,143.1,98.5,0.461
22.06,31894.1,34665.7,-0.1209,-0.412,143.1,98.5,0.461
22.08,31927.1,34597.0,-0.0765,-0.4958,143.1,98.5,0.461
22.1,31840.8,34678.3,-0.1926,-0.3965,143.1,98.5,0.461
22.12,31781.0,34586.6,-0.273,-0.5085,143.1,98.5,0.461
22.14,31821.6,34514.8,-0.2185,-0.5963,143.1,98.5,0.461
22.16,31825.3,34474.3,-0.2134,-0.6457,143.1,98.5,0.461
22.18,31814.1,34594.5,-0.2285,-0.4989,143.1,98.5,0.461
22.2,31868.6,34711.8,-0.1552,-0.3556,143.1,98.5,0.461
22.22,31977.2,35093.0,-0.009,0.1099,143.1,98.5,0.461
22.24,32160.9,35477.9,0.2382,0.58,143.1,98.5,0.461
22.26,32194.1,35691.3,0.2828,0.8406,143.1,98.5,0.461
22.28,32322.3,35704.9,0.4553,0.8573,143.1,98.5,0.461
22.3,32245.1,35681.0,0.3515,0.828,143.1,98.5,0.461
22.32,32235.7,35491.5,0.3388,0.5966,143.1,98.5,0.461
22.34,32134.3,35292.1,0.2024,0.3531,143.1,98.5,0.461
22.36,32011.1,35151.5,0.0365,0.1814,143.1,98.5,0.461
22.38,32060.9,35189.3,0.1035,0.2276,143.1,98.5,0.461
22.4,32084.2,35031.4,0.1349,0.0347,143.1,98.5,0.461
22.42,32006.1,34938.3,0.0299,-0.079,143.1,98.5,0.461
22.44,31983.0,34810.6,-0.0012,-0.235,143.1,98.5,0.461
22.46,31964.6,34746.6,-0.0259,-0.3132,143.1,98.5,0.461
22.48,31862.3,34616.5,-0.1637,-0.4721,143.1,98.5,0.461
22.5,31849.6,34665.6,-0.1808,-0.412,143.1,98.5,0.461
22.52,31900.2,34692.9,-0.1127,-0.3787,143.1,98.5,0.461
22.54,31847.3,34529.8,-0.1838,-0.5779,143.1,98.5,0.461
22.56,31894.4,34397.6,-0.1205,-0.7393,143.1,98.5,0.461
22.58,31822.1,34471.4,-0.2177,-0.6492,143.1,98.5,0.461
22.6,31732.7,34524.2,-0.338,-0.5848,143.1,98.5,0.461
22.62,31823.8,34737.5,-0.2154,-0.3243,143.1,98.5,0.461
22.64,32026.6,35058.9,0.0574,0.0683,143.1,98.5,0.461
22.66,32169.2,35396.0,0.2493,0.48,143.1,98.5,0.461
22.68,32293.6,35725.8,0.4167,0.8827,143.1,98.5,0.461
22.7,32208.1,35767.1,0.3017,0.9332,143.1,98.5,0.461
22.72,32249.3,35564.2,0.3571,0.6853,143.1,98.5,0.461
22.74,32150.7,35460.3,0.2245,0.5586,143.1,98.5,0.461
22.76,32179.3,35291.4,0.2629,0.3523,143.1,98.5,0.461
22.78,32059.7,35171.4,0.1019,0.2057,143.1,98.5,0.461
22.8,32012.2,35105.2,0.038,0.1249,143.1,98.5,0.461
22.82,31945.2,35123.3,-0.052,0.1469,143.1,98.5,0.461
22.84,32044.2,34981.8,0.0811,-0.0259,143.1,98.5,0.461
22.86,31856.2,34816.1,-0.1719,-0.2282,143.1,98.5,0.461
22.88,31859.3,34687.7,-0.1677,-0.3851,143.1,98.5,0.461
22.9,31891.8,34687.5,-0.1239,-0.3853,143.1,98.5,0.461
22.92,31888.5,34613.5,-0.1284,-0.4757,143.1,98.5,0.461
22.94,31877.4,34576.2,-0.1434,-0.5212,143.1,98.5,0.461
22.96,31878.6,34594.4,-0.1417,-0.4989,143.1,98.5,0.461
22.98,31800.9,34451.0,-0.2463,-0.6742,143.1,98.5,0.461
23.0,31718.4,34455.9,-0.3573,-0.6682,143.1,98.5,0.461
23.02,31761.8,34477.0,-0.2989,-0.6424,143.1,98.5,0.461
23.04,31931.5,34690.1,-0.0705,-0.3822,143.1,98.5,0.461
23.06,32044.6,35023.8,0.0817,0.0254,143.1,98.5,0.461
23.08,32231.9,35566.7,0.3336,0.6885,143.1,98.5,0.461
23.1,32321.0,35710.4,0.4536,0.864,143.1,98.5,0.461
23.12,32325.7,35765.8,0.4599,0.9317,143.1,98.5,0.461
23.14,32272.8,35618.0,0.3887,0.7511,143.1,98.5,0.461
23.16,32229.5,35410.5,0.3304,0.4977,143.1,98.5,0.461
23.18,32178.4,35294.5,0.2617,0.356,143.1,98.5,0.461
23.2,32011.3,35179.7,0.0368,0.2158,143.1,98.5,0.461
23.22,32006.1,35016.5,0.0298,0.0166,143.1,98.5,0.461
23.24,32110.0,35126.0,0.1696,0.1502,143.1,98.5,0.461
23.26,31989.4,35018.6,0.0073,0.0191,143.1,98.5,0.461
23.28,31918.6,34876.4,-0.0879,-0.1546,143.1,98.5,0.461
23.3,31945.2,34704.1,-0.052,-0.365,143.1,98.5,0.461
23.32,31748.3,34717.9,-0.317,-0.3482,143.1,98.5,0.461
23.34,31795.0,34672.7,-0.2542,-0.4034,143.1,98.5,0.461
23.36,31844.8,34561.5,-0.1872,-0.5392,143.1,98.5,0.461
23.38,31781.4,34558.7,-0.2724,-0.5426,143.1,98.5,0.461
23.4,31802.0,34555.7,-0.2448,-0.5463,143.1,98.5,0.461
23.42,31731.9,34467.8,-0.3392,-0.6536,143.1,98.5,0.461
23.44,31894.1,34508.5,-0.1208,-0.6039,143.1,98.5,0.461
23.46,31836.2,34755.2,-0.1988,-0.3026,143.1,98.5,0.461
23.48,32057.2,35178.9,0.0986,0.2149,143.1,98.5,0.461
23.5,32070.0,35417.0,0.1159,0.5057,143.1,98.5,0.461
23.52,32208.2,35759.0,0.3018,0.9233,143.1,98.5,0.461
23.54,32353.9,35755.7,0.4979,0.9193,143.1,98.5,0.461
23.56,32237.2,35541.5,0.3408,0.6577,143.1,98.5,0.461
23.58,32155.3,35398.7,0.2306,0.4833,143.1,98.5,0.461
23.6,32037.4,35276.0,0.072,0.3334,143.1,98.5,0.461
23.62,32099.9,35199.7,0.156,0.2402,143.1,98.5,0.461
23.64,31961.1,35153.2,-0.0307,0.1834,143.1,98.5,0.461
23.66,31976.0,35094.0,-0.0107,0.1112,143.1,98.5,0.461
23.68,31986.5,35024.9,0.0034,0.0268,143.1,98.5,0.461
23.7,31900.9,34818.3,-0.1118,-0.2256,143.1,98.5,0.461
23.72,31890.2,34750.0,-0.1261,-0.309,143.1,98.5,0.461
23.74,31805.1,34720.9,-0.2406,-0.3445,143.1,98.5,0.461
23.76,31852.4,34571.6,-0.177,-0.5268,143.1,98.5,0.461
23.78,31865.6,34639.8,-0.1592,-0.4435,143.1,98.5,0.461
23.8,31842.7,34533.2,-0.1901,-0.5737,143.1,98.5,0.461
23.82,31791.1,34502.1,-0.2594,-0.6117,143.1,98.5,0.461
23.84,31764.6,34570.0,-0.2951,-0.5288,143.1,98.5,0.461
23.86,31833.2,34538.5,-0.2028,-0.5673,143.1,98.5,0.461
23.88,31926.6,34674.4,-0.0772,-0.4013,143.1,98.5,0.461
23.9,32119.8,35187.1,0.1829,0.2249,143.1,98.5,0.461
23.92,32242.1,35542.9,0.3474,0.6594,143.1,98.5,0.461
23.94,32288.0,35651.9,0.4091,0.7925,143.1,98.5,0.461
23.96,32307.2,35674.5,0.435,0.8201,143.1,98.5,0.461
23.98,32272.1,35624.7,0.3877,0.7593,143.1,98.5,0.461
24.0,32216.0,35509.8,0.3122,0.619,143.1,98.5,0.461
24.02,32176.2,35238.3,0.2588,0.2874,143.1,98.5,0.461
24.04,32069.4,35194.6,0.115,0.234,143.1,98.5,0.461
24.06,32018.1,35143.5,0.046,0.1716,143.1,98.5,0.461
24.08,32006.1,34909.5,0.0299,-0.1142,143.1,98.5,0.461
24.1,32074.9,34969.7,0.1224,-0.0407,143.1,98.5,0.461
24.12,31933.6,34867.7,-0.0678,-0.1653,143.1,98.5,0.461
24.14,31843.7,34828.8,-0.1887,-0.2127,143.1,98.5,0.461
24.16,31824.5,34755.4,-0.2146,-0.3024,143.1,98.5,0.461
24.18,31827.5,34648.2,-0.2105,-0.4333,143.1,98.5,0.461
24.2,31875.0,34673.1,-0.1466,-0.4029,143.1,98.5,0.461
24.22,31754.5,34684.0,-0.3087,-0.3896,143.1,98.5,0.461
24.24,31729.1,34553.5,-0.3429,-0.5489,143.1,98.5,0.461
24.26,31767.2,34463.4,-0.2916,-0.659,143.1,98.5,0.461
24.28,31830.6,34495.9,-0.2063,-0.6193,143.1,98.5,0.461
24.3,31906.4,34817.0,-0.1043,-0.2271,143.1,98.5,0.461
24.32,32069.8,35099.2,0.1155,0.1175,143.1,98.5,0.461
24.34,32187.7,35384.9,0.2742,0.4665,143.1,98.5,0.461
24.36,32307.7,35702.4,0.4357,0.8542,143.1,98.5,0.461
24.38,32296.9,35795.3,0.4211,0.9676,143.1,98.5,0.461
24.4,32280.8,35665.3,0.3995,0.8089,143.1,98.5,0.461
24.42,32254.6,35464.9,0.3642,0.5641,143.1,98.5,0.461
24.44,32112.9,35244.6,0.1736,0.2951,143.1,98.5,0.461
24.46,32078.3,35186.0,0.127,0.2235,143.1,98.5,0.461
24.48,32051.4,35116.1,0.0909,0.1382,143.1,98.5,0.461
24.5,31968.9,35015.3,-0.0201,0.015,143.1,98.5,0.461
24.52,31959.7,34811.4,-0.0325,-0.234,143.1,98.5,0.461
24.54,31859.7,34802.4,-0.1672,-0.245,143.1,98.5,0.461
24.56,31901.9,34774.6,-0.1103,-0.2789,143.1,98.5,0.461
24.58,31828.2,34750.7,-0.2095,-0.3081,143.1,98.5,0.461
24.6,31854.4,34747.2,-0.1742,-0.3124,143.1,98.5,0.461
24.62,31821.5,34572.2,-0.2186,-0.5261,143.1,98.5,0.461
24.64,31871.6,34511.8,-0.1511,-0.5999,143.1,98.5,0.461
24.66,31760.6,34406.2,-0.3005,-0.7288,143.1,98.5,0.461
24.68,31705.8,34488.6,-0.3743,-0.6283,143.1,98.5,0.461
24.7,31786.5,34554.9,-0.2657,-0.5472,143.1,98.5,0.461
24.72,31890.7,34798.4,-0.1255,-0.2499,143.1,98.5,0.461
24.74,32074.6,35194.6,0.122,0.234,143.1,98.5,0.461
24.76,32224.9,35377.6,0.3243,0.4575,143.1,98.5,0.461
24.78,32319.0,35742.6,0.4508,0.9032,143.1,98.5,0.461
24.8,32353.8,35740.5,0.4978,0.9007,143.1,98.5,0.461
24.82,32332.3,35521.4,0.4687,0.6331,143.1,98.5,0.461
24.84,32223.0,35401.8,0.3217,0.4871,143.1,98.5,0.461
24.86,32107.4,35336.1,0.1662,0.4069,143.1,98.5,0.461
24.88,32150.1,35107.0,0.2236,0.1271,143.1,98.5,0.461
24.9,32012.1,35041.9,0.0379,0.0475,143.1,98.5,0.461
24.92,31992.8,35063.1,0.0119,0.0734,143.1,98.5,0.461
24.94,31995.4,34912.7,0.0154,-0.1102,143.1,98.5,0.461
24.96,31839.7,34856.1,-0.194,-0.1794,143.1,98.5,0.461
24.98,31814.4,34737.6,-0.2281,-0.3241,143.1,98.5,0.461
25.0,31849.4,34634.2,-0.181,-0.4504,143.1,98.5,0.461
25.02,31880.5,34695.2,-0.1391,-0.3759,143.1,98.5,0.461
25.04,31894.3,34620.0,-0.1205,-0.4678,143.1,98.5,0.461
25.06,31835.3,34555.4,-0.2,-0.5466,143.1,98.5,0.461
25.08,31827.6,34475.2,-0.2103,-0.6445,143.1,98.5,0.461
25.1,31760.6,34515.6,-0.3005,-0.5952,143.1,98.5,0.461
25.12,31836.4,34511.5,-0.1985,-0.6002,143.1,98.5,0.461
25.14,32016.2,34769.4,0.0435,-0.2853,143.1,98.5,0.461
25.16,32020.3,35176.6,0.0489,0.212,143.1,98.5,0.461
25.18,32228.3,35519.6,0.3288,0.6309,143.1,98.5,0.461
25.2,32292.5,35821.3,0.4152,0.9994,143.1,98.5,0.461
25.22,32333.5,35719.0,0.4704,0.8744,143.1,98.5,0.461
25.24,32248.3,35601.1,0.3557,0.7305,143.1,98.5,0.461
25.26,32171.6,35393.1,0.2525,0.4765,143.1,98.5,0.461
25.28,32149.6,35153.3,0.2229,0.1836,143.1,98.5,0.461
25.3,32089.2,35185.9,0.1417,0.2234,143.1,98.5,0.461
25.32,31988.6,35107.0,0.0063,0.127,143.1,98.5,0.461
25.34,31998.7,35099.9,0.0199,0.1183,143.1,98.5,0.461
25.36,32003.6,34984.7,0.0265,-0.0223,143.1,98.5,0.461
25.38,31913.8,34825.6,-0.0943,-0.2167,143.1,98.5,0.461
25.4,31811.5,34747.6,-0.2319,-0.3118,143.1,98.5,0.461
25.42,31926.9,34602.3,-0.0767,-0.4894,143.1,98.5,0.461
25.44,31851.2,34689.9,-0.1785,-0.3824,143.1,98.5,0.461
25.46,31783.5,34693.4,-0.2696,-0.3781,143.1,98.5,0.461
25.48,31819.3,34609.4,-0.2215,-0.4806,143.1,98.5,0.461
25.5,31754.0,34543.5,-0.3094,-0.5611,143.1,98.5,0.461
25.52,31730.5,34433.5,-0.341,-0.6955,143.1,98.5,0.461
25.54,31726.4,34614.4,-0.3466,-0.4745,143.1,98.5,0.461
25.56,31901.5,34870.2,-0.1109,-0.1621,143.1,98.5,0.461
25.58,32022.8,35169.6,0.0523,0.2035,143.1,98.5,0.461
25.6,32197.7,35532.6,0.2876,0.6468,143.1,98.5,0.461
25.62,32274.5,35744.3,0.3909,0.9053,143.1,98.5,0.461
25.64,32289.2,35707.0,0.4108,0.8597,143.1,98.5,0.461
25.66,32206.4,35558.3,0.2993,0.6783,143.1,98.5,0.461
25.68,32070.5,35388.6,0.1166,0.4709,143.1,98.5,0.461
25.7,31989.6,35182.1,0.0076,0.2188,143.1,98.5,0.461
25.72,31951.4,35085.7,-0.0438,0.101,143.1,98.5,0.461
25.74,32077.2,35135.1,0.1255,0.1613,143.1,98.5,0.461
25.76,31963.2,35115.6,-0.0279,0.1375,143.1,98.5,0.461
25.78,31948.7,34964.5,-0.0474,-0.047,143.1,98.5,0.461
25.8,31885.9,34822.8,-0.1318,-0.2201,143.1,98.5,0.461
25.82,31900.0,34719.7,-0.1129,-0.346,143.1,98.5,0.461
25.84,31904.8,34717.9,-0.1065,-0.3482,143.1,98.5,0.461
25.86,31961.0,34597.6,-0.0309,-0.4951,143.1,98.5,0.461
25.88,31802.1,34620.3,-0.2446,-0.4674,143.1,98.5,0.461
25.9,31821.3,34583.9,-0.2188,-0.5118,143.1,98.5,0.461
25.92,31727.4,34529.5,-0.3452,-0.5783,143.1,98.5,0.461
25.94,31743.6,34497.6,-0.3233,-0.6173,143.1,98.5,0.461
25.96,31758.2,34472.6,-0.3037,-0.6478,143.1,98.5,0.461
25.98,31976.8,34782.7,-0.0096,-0.269,143.1,98.5,0.461
26.0,32081.4,35196.7,0.1312,0.2366,143.1,98.5,0.461
26.02,32285.1,35430.7,0.4052,0.5223,143.1,98.5,0.461
26.04,32289.6,35720.3,0.4113,0.876,143.1,98.5,0.461
26.06,32275.7,35692.9,0.3926,0.8426,143.1,98.5,0.461
26.08,32190.2,35692.9,0.2775,0.8426,143.1,98.5,0.461
26.1,32220.8,35428.6,0.3187,0.5198,143.1,98.5,0.461
26.12,32108.1,35255.0,0.1671,0.3078,143.1,98.5,0.461
26.14,32004.5,35101.1,0.0276,0.1199,143.1,98.5,0.461
26.16,32077.5,35027.5,0.1259,0.0299,143.1,98.5,0.461
26.18,31973.8,35122.2,-0.0136,0.1456,143.1,98.5,0.461
26.2,31941.5,34855.9,-0.0571,-0.1796,143.1,98.5,0.461
26.22,31918.4,34909.3,-0.0882,-0.1145,143.1,98.5,0.461
26.24,31841.2,34712.8,-0.192,-0.3544,143.1,98.5,0.461
26.26,31867.2,34657.0,-0.1571,-0.4225,143.1,98.5,0.461
26.28,31785.9,34638.3,-0.2664,-0.4454,143.1,98.5,0.461
26.3,31815.6,34669.5,-0.2264,-0.4072,143.1,98.5,0.461
26.32,31832.7,34636.5,-0.2034,-0.4475,143.1,98.5,0.461
26.34,31793.2,34472.3,-0.2567,-0.6481,143.1,98.5,0.461
26.36,31783.8,34392.8,-0.2693,-0.7452,143.1,98.5,0.461
26.38,31777.1,34629.2,-0.2783,-0.4565,143.1,98.5,0.461
26.4,31914.7,34827.4,-0.0931,-0.2145,143.1,98.5,0.461
26.42,32094.3,35148.1,0.1486,0.1772,143.1,98.5,0.461
26.44,32273.8,35546.3,0.3901,0.6635,143.1,98.5,0.461
26.46,32270.4,35713.9,0.3855,0.8682,143.1,98.5,0.461
26.48,32341.4,35662.6,0.481,0.8056,143.1,98.5,0.461
26.5,32203.0,35644.4,0.2948,0.7834,143.1,98.5,0.461
26.52,32172.8,35302.4,0.2541,0.3657,143.1,98.5,0.461
26.54,32115.1,35234.8,0.1765,0.2831,143.1,98.5,0.461
26.56,32073.3,35061.6,0.1202,0.0716,143.1,98.5,0.461
26.58,32071.9,35084.6,0.1184,0.0997,143.1,98.5,0.461
26.6,32082.4,35008.9,0.1326,0.0072,143.1,98.5,0.461
26.62,31978.8,34881.2,-0.0068,-0.1487,143.1,98.5,0.461
26.64,31960.4,34827.9,-0.0317,-0.2139,143.1,98.5,0.461
26.66,31819.4,34723.9,-0.2214,-0.3408,143.1,98.5,0.461
26.68,31889.3,34711.3,-0.1273,-0.3562,143.1,98.5,0.461
26.7,31951.4,34686.4,-0.0437,-0.3866,143.1,98.5,0.461
26.72,31867.0,34658.8,-0.1574,-0.4203,143.1,98.5,0.461
26.74,31873.7,34525.3,-0.1483,-0.5834,143.1,98.5,0.461
26.76,31841.1,34430.2,-0.1921,-0.6996,143.1,98.5,0.461
26.78,31763.8,34403.9,-0.2962,-0.7316,143.1,98.5,0.461
26.8,31810.5,34508.8,-0.2334,-0.6036,143.1,98.5,0.461
26.82,31933.2,34816.5,-0.0682,-0.2278,143.1,98.5,0.461
26.84,32081.2,35130.5,0.1309,0.1557,143.1,98.5,0.461
26.86,32210.5,35486.3,0.3048,0.5903,143.1,98.5,0.461
26.88,32361.8,35754.9,0.5084,0.9184,143.1,98.5,0.461
26.9,32308.1,35783.8,0.4362,0.9536,143.1,98.5,0.461
26.92,32217.3,35631.5,0.314,0.7676,143.1,98.5,0.461
26.94,32101.2,35344.8,0.1578,0.4175,143.1,98.5,0.461
26.96,32108.6,35241.7,0.1678,0.2915,143.1,98.5,0.461
26.98,32019.1,35223.5,0.0473,0.2693,143.1,98.5,0.461
27.0,32109.2,35138.8,0.1685,0.1659,143.1,98.5,0.461
27.02,31998.7,35079.2,0.0199,0.093,143.1,98.5,0.461
27.04,31932.3,34924.4,-0.0694,-0.0959,143.1,98.5,0.461
27.06,31855.5,34867.9,-0.1727,-0.165,143.1,98.5,0.461
27.08,31860.8,34851.3,-0.1656,-0.1853,143.1,98.5,0.461
27.1,31822.4,34684.7,-0.2174,-0.3887,143.1,98.5,0.461
27.12,31918.3,34689.3,-0.0883,-0.383,143.1,98.5,0.461
27.14,31812.3,34653.6,-0.2309,-0.4267,143.1,98.5,0.461
27.16,31763.7,34617.6,-0.2964,-0.4707,143.1,98.5,0.461
27.18,31746.3,34493.4,-0.3197,-0.6223,143.1,98.5,0.461
27.2,31735.5,34465.2,-0.3342,-0.6568,143.1,98.5,0.461
27.22,31756.4,34526.2,-0.3061,-0.5822,143.1,98.5,0.461
27.24,31889.6,34823.1,-0.1269,-0.2198,143.1,98.5,0.461
27.26,32046.4,35182.5,0.084,0.2193,143.1,98.5,0.461
27.28,32271.3,35499.4,0.3867,0.6062,143.1,98.5,0.461
27.3,32285.8,35713.6,0.4062,0.8678,143.1,98.5,0.461
27.32,32304.1,35806.6,0.4308,0.9814,143.1,98.5,0.461
27.34,32254.4,35653.6,0.3639,0.7946,143.1,98.5,0.461
27.36,32159.7,35420.7,0.2365,0.5101,143.1,98.5,0.461
27.38,32020.7,35226.1,0.0495,0.2725,143.1,98.5,0.461
27.4,32075.2,35106.9,0.1229,0.127,143.1,98.5,0.461
27.42,32060.4,35074.7,0.1029,0.0876,143.1,98.5,0.461
27.44,32007.7,35010.2,0.032,0.0088,143.1,98.5,0.461
27.46,31974.3,34864.1,-0.0129,-0.1696,143.1,98.5,0.461
27.48,31863.2,34813.6,-0.1624,-0.2313,143.1,98.5,0.461
27.5,31867.1,34743.8,-0.1572,-0.3166,143.1,98.5,0.461
27.52,31805.5,34643.3,-0.2401,-0.4393,143.1,98.5,0.461
27.54,31864.5,34627.9,-0.1606,-0.4581,143.1,98.5,0.461
27.56,31821.6,34608.9,-0.2185,-0.4813,143.1,98.5,0.461
27.58,31779.0,34549.2,-0.2757,-0.5542,143.1,98.5,0.461
27.6,31825.3,34473.5,-0.2134,-0.6467,143.1,98.5,0.461
27.62,31716.5,34555.2,-0.3598,-0.5469,143.1,98.5,0.461
27.64,31922.3,34632.4,-0.083,-0.4526,143.1,98.5,0.461
27.66,31903.1,34841.3,-0.1088,-0.1975,143.1,98.5,0.461
27.68,32116.6,35195.7,0.1785,0.2354,143.1,98.5,0.461
27.7,32233.3,35562.4,0.3356,0.6832,143.1,98.5,0.461
27.72,32309.4,35711.8,0.438,0.8657,143.1,98.5,0.461
27.74,32349.9,35719.9,0.4925,0.8755,143.1,98.5,0.461
27.76,32244.0,35511.2,0.35,0.6206,143.1,98.5,0.461
27.78,32174.7,35358.9,0.2567,0.4347,143.1,98.5,0.461
27.8,32033.7,35284.8,0.067,0.3442,143.1,98.5,0.461
27.82,32030.1,35114.6,0.0621,0.1363,143.1,98.5,0.461
27.84,31980.6,35097.4,-0.0045,0.1153,143.1,98.5,0.461
27.86,31978.4,35028.0,-0.0074,0.0306,143.1,98.5,0.461
27.88,31949.6,34823.4,-0.0462,-0.2193,143.1,98.5,0.461
27.9,31883.2,34839.6,-0.1356,-0.1996,143.1,98.5,0.461
27.92,31890.9,34762.8,-0.1252,-0.2933,143.1,98.5,0.461
27.94,31766.2,34727.4,-0.2929,-0.3365,143.1,98.5,0.461
27.96,31873.8,34667.7,-0.1481,-0.4094,143.1,98.5,0.461
27.98,31802.2,34630.2,-0.2445,-0.4553,143.1,98.5,0.461
28.0,31851.5,34586.1,-0.1781,-0.5092,143.1,98.5,0.461
28.02,31698.7,34465.5,-0.3838,-0.6564,143.1,98.5,0.461
28.04,31662.3,34498.8,-0.4328,-0.6158,143.1,98.5,0.461
28.06,31828.8,34621.0,-0.2088,-0.4665,143.1,98.5,0.461
28.08,31949.1,34799.7,-0.0469,-0.2483,143.1,98.5,0.461
28.1,32122.2,35180.1,0.186,0.2163,143.1,98.5,0.461
28.12,32235.5,35587.6,0.3385,0.7139,143.1,98.5,0.461
28.14,32269.8,35839.2,0.3847,1.0212,143.1,98.5,0.461
28.16,32250.8,35630.4,0.3591,0.7662,143.1,98.5,0.461
28.18,32205.1,35586.6,0.2976,0.7128,143.1,98.5,0.461
28.2,32233.2,35401.2,0.3354,0.4863,143.1,98.5,0.461
28.22,32009.4,35156.3,0.0343,0.1872,143.1,98.5,0.461
28.24,32107.1,35190.6,0.1657,0.2291,143.1,98.5,0.461
28.26,31976.3,35152.6,-0.0103,0.1827,143.1,98.5,0.461
28.28,32036.7,35028.5,0.071,0.0311,143.1,98.5,0.461
28.3,31928.3,34877.3,-0.0748,-0.1535,143.1,98.5,0.461
28.32,31955.8,34822.9,-0.0378,-0.2199,143.1,98.5,0.461
28.34,31905.7,34699.4,-0.1052,-0.3708,143.1,98.5,0.461
28.36,31910.9,34649.0,-0.0982,-0.4323,143.1,98.5,0.461
28.38,31795.9,34746.9,-0.2529,-0.3127,143.1,98.5,0.461
28.4,31821.0,34647.5,-0.2192,-0.4342,143.1,98.5,0.461
28.42,31852.9,34549.9,-0.1763,-0.5533,143.1,98.5,0.461
28.44,31797.6,34498.2,-0.2507,-0.6165,143.1,98.5,0.461
28.46,31822.5,34458.6,-0.2171,-0.6648,143.1,98.5,0.461
28.48,31815.2,34644.0,-0.2271,-0.4384,143.1,98.5,0.461
28.5,32004.9,34906.2,0.0282,-0.1183,143.1,98.5,0.461
28.52,32156.2,35196.1,0.2318,0.2359,143.1,98.5,0.461
28.54,32147.8,35563.1,0.2205,0.6841,143.1,98.5,0.461
28.56,32294.2,35749.3,0.4175,0.9115,143.1,98.5,0.461
28.58,32339.3,35655.0,0.4782,0.7963,143.1,98.5,0.461
28.6,32260.4,35565.8,0.3721,0.6873,143.1,98.5,0.461
28.62,32105.9,35394.3,0.1641,0.478,143.1,98.5,0.461
28.64,32089.4,35191.6,0.142,0.2303,143.1,98.5,0.461
28.66,32076.1,35096.0,0.124,0.1135,143.1,98.5,0.461
28.68,32067.0,35055.1,0.1118,0.0637,143.1,98.5,0.461
28.7,32058.1,34963.9,0.0998,-0.0477,143.1,98.5,0.461
28.72,32005.3,34844.4,0.0287,-0.1937,143.1,98.5,0.461
28.74,31866.2,34883.3,-0.1583,-0.1461,143.1,98.5,0.461
28.76,31896.8,34777.6,-0.1173,-0.2753,143.1,98.5,0.461
28.78,31843.9,34675.6,-0.1884,-0.3998,143.1,98.5,0.461
28.8,31784.2,34602.9,-0.2687,-0.4887,143.1,98.5,0.461
28.82,31900.7,34556.4,-0.1119,-0.5454,143.1,98.5,0.461
28.84,31854.6,34524.5,-0.174,-0.5844,143.1,98.5,0.461
28.86,31757.6,34421.8,-0.3045,-0.7098,143.1,98.5,0.461
28.88,31812.6,34464.1,-0.2305,-0.6581,143.1,98.5,0.461
28.9,31836.1,34503.3,-0.1989,-0.6103,143.1,98.5,0.461
28.92,31876.5,34843.8,-0.1446,-0.1944,143.1,98.5,0.461
28.94,32183.7,35392.6,0.2688,0.4758,143.1,98.5,0.461
28.96,32186.0,35608.0,0.2719,0.739,143.1,98.5,0.461
28.98,32405.1,35782.8,0.5668,0.9524,143.1,98.5,0.461
29.0,32271.2,35725.1,0.3865,0.8819,143.1,98.5,0.461
29.02,32271.2,35551.4,0.3866,0.6698,143.1,98.5,0.461
29.04,32124.3,35424.8,0.1889,0.5151,143.1,98.5,0.461
29.06,32107.9,35182.1,0.1668,0.2187,143.1,98.5,0.461
29.08,32023.9,35112.4,0.0538,0.1336,143.1,98.5,0.461
29.1,32049.4,34988.0,0.0881,-0.0183,143.1,98.5,0.461
29.12,31906.4,34985.9,-0.1043,-0.0208,143.1,98.5,0.461
29.14,31967.7,34981.1,-0.0218,-0.0267,143.1,98.5,0.461
29.16,31943.6,34781.5,-0.0543,-0.2705,143.1,98.5,0.461
29.18,31912.4,34750.4,-0.0962,-0.3084,143.1,98.5,0.461
29.2,31822.7,34692.7,-0.2169,-0.379,143.1,98.5,0.461
29.22,31790.7,34649.2,-0.26,-0.4321,143.1,98.5,0.461
29.24,31846.5,34592.5,-0.1848,-0.5013,143.1,98.5,0.461
29.26,31847.9,34590.5,-0.1831,-0.5038,143.1,98.5,0.461
29.28,31710.1,34447.3,-0.3684,-0.6787,143.1,98.5,0.461
29.3,31862.7,34471.9,-0.1632,-0.6486,143.1,98.5,0.461
29.32,31871.8,34628.3,-0.1508,-0.4576,143.1,98.5,0.461
29.34,31871.8,34937.2,-0.1509,-0.0803,143.1,98.5,0.461
29.36,32170.1,35283.5,0.2505,0.3426,143.1,98.5,0.461
29.38,32239.0,35537.6,0.3432,0.653,143.1,98.5,0.461
29.4,32343.0,35718.1,0.4832,0.8734,143.1,98.5,0.461
29.42,32302.8,35656.4,0.4291,0.798,143.1,98.5,0.461
29.44,32241.6,35602.1,0.3467,0.7317,143.1,98.5,0.461
29.46,32170.9,35275.0,0.2515,0.3322,143.1,98.5,0.461
29.48,32048.4,35289.1,0.0868,0.3494,143.1,98.5,0.461
29.5,31952.5,35168.8,-0.0423,0.2025,143.1,98.5,0.461
29.52,32074.4,35131.5,0.1218,0.157,143.1,98.5,0.461
29.54,31999.0,34920.3,0.0203,-0.1009,143.1,98.5,0.461
29.56,31935.0,34840.0,-0.0658,-0.1991,143.1,98.5,0.461
29.58,31925.9,34793.4,-0.0781,-0.2559,143.1,98.5,0.461
29.6,31784.4,34733.9,-0.2684,-0.3286,143.1,98.5,0.461
29.62,31875.1,34542.8,-0.1464,-0.562,143.1,98.5,0.461
29.64,31791.2,34667.6,-0.2593,-0.4096,143.1,98.5,0.461
29.66,31842.6,34658.7,-0.1901,-0.4205,143.1,98.5,0.461
29.68,31841.0,34547.7,-0.1923,-0.556,143.1,98.5,0.461
29.7,31823.0,34477.2,-0.2166,-0.6421,143.1,98.5,0.461
29.72,31737.4,34448.7,-0.3317,-0.6769,143.1,98.5,0.461
29.74,31760.9,34612.6,-0.3001,-0.4767,143.1,98.5,0.461
29.76,31999.1,34993.3,0.0205,-0.0118,143.1,98.5,0.461
29.78,32181.4,35273.7,0.2657,0.3306,143.1,98.5,0.461
29.8,32289.4,35539.9,0.411,0.6557,143.1,98.5,0.461
29.82,32314.2,35822.6,0.4444,1.001,143.1,98.5,0.461
29.84,32266.6,35701.4,0.3804,0.853,143.1,98.5,0.461
29.86,32188.8,35511.9,0.2756,0.6215,143.1,98.5,0.461
29.88,32197.3,35296.1,0.2872,0.358,143.1,98.5,0.461
29.9,32089.9,35286.7,0.1426,0.3465,143.1,98.5,0.461
29.92,32144.8,35139.9,0.2165,0.1672,143.1,98.5,0.461
29.94,32084.7,35043.1,0.1356,0.049,143.1,98.5,0.461
29.96,32035.0,35028.1,0.0687,0.0306,143.1,98.5,0.461
29.98,31962.6,34926.5,-0.0287,-0.0934,143.1,98.5,0.461
30.0,33890.7,36206.6,2.5657,1.4699,143.1,98.5,0.461
30.02,32834.5,29357.0,1.1446,-6.8953,143.1,98.5,0.461
30.04,35466.8,33296.1,4.6865,-2.0845,143.1,98.5,0.461
30.06,29309.9,30896.7,-3.598,-5.015,143.1,98.5,0.461
30.08,32469.6,35719.2,0.6535,0.8748,143.1,98.5,0.461
30.1,33702.5,35008.4,2.3125,0.0066,143.1,98.5,0.461
30.12,32466.6,36098.9,0.6495,1.3384,143.1,98.5,0.461
30.14,31587.5,35124.5,-0.5335,0.1484,143.1,98.5,0.461
30.16,33071.3,38613.1,1.4632,4.4089,143.1,98.5,0.461
30.18,27046.3,36913.3,-6.644,2.333,143.1,98.5,0.461
30.2,33210.4,36779.9,1.6503,2.1701,143.1,98.5,0.461
30.22,33893.2,38049.8,2.5691,3.7211,143.1,98.5,0.461
30.24,37589.9,31489.5,7.5432,-4.2909,143.1,98.5,0.461
30.26,32615.7,36970.5,0.8501,2.4028,143.1,98.5,0.461
30.28,32008.9,34109.4,0.0336,-1.0913,143.1,98.5,0.461
30.3,27223.5,35186.2,-6.4054,0.2238,143.1,98.5,0.461
30.32,34019.1,37201.6,2.7385,2.6851,143.1,98.5,0.461
30.34,30256.0,32753.8,-2.325,-2.747,143.1,98.5,0.461
30.36,33551.9,36142.6,2.1099,1.3919,143.1,98.5,0.461
30.38,35219.3,34467.4,4.3534,-0.6541,143.1,98.5,0.461
30.4,31711.2,35993.9,-0.367,1.2102,143.1,98.5,0.461
30.42,31215.2,33645.0,-1.0344,-1.6585,143.1,98.5,0.461
30.44,35561.9,35780.0,4.8144,0.949,143.1,98.5,0.461
30.46,26169.4,35865.3,-7.8239,1.0531,143.1,98.5,0.461
30.48,31522.8,34305.4,-0.6204,-0.852,143.1,98.5,0.461
30.5,30711.5,35458.3,-1.7121,0.5561,143.1,98.5,0.461
30.52,29790.1,33265.1,-2.952,-2.1225,143.1,98.5,0.461
30.54,34138.7,32888.7,2.8994,-2.5821,143.1,98.5,0.461
30.56,31311.1,34099.9,-0.9054,-1.1029,143.1,98.5,0.461
30.58,30598.4,31841.1,-1.8644,-3.8616,143.1,98.5,0.461
30.6,32381.6,31074.9,0.5351,-4.7973,143.1,98.5,0.461
30.62,38002.9,36312.7,8.099,1.5995,143.1,98.5,0.461
30.64,32480.3,34639.0,0.6679,-0.4445,143.1,98.5,0.461
30.66,30390.5,38216.2,-2.1441,3.9243,143.1,98.5,0.461
30.68,32562.8,35084.6,0.7789,0.0997,143.1,98.5,0.461
30.7,33421.8,36192.1,1.9347,1.4523,143.1,98.5,0.461
30.72,26495.6,37318.5,-7.385,2.8279,143.1,98.5,0.461
30.74,30714.2,34463.4,-1.7085,-0.659,143.1,98.5,0.461
30.76,30006.0,32966.4,-2.6615,-2.4872,143.1,98.5,0.461
30.78,28884.4,32279.8,-4.1706,-3.3258,143.1,98.5,0.461
30.8,29183.3,34889.8,-3.7685,-0.1383,143.1,98.5,0.461
30.82,32819.8,34587.6,1.1248,-0.5073,143.1,98.5,0.461
30.84,32138.3,37242.3,0.2078,2.7348,143.1,98.5,0.461
30.86,31789.7,37115.4,-0.2614,2.5799,143.1,98.5,0.461
30.88,34432.0,35329.1,3.2941,0.3982,143.1,98.5,0.461
30.9,31684.0,34593.4,-0.4035,-0.5002,143.1,98.5,0.461
30.92,33035.5,37290.3,1.415,2.7935,143.1,98.5,0.461
30.94,30349.6,34685.0,-2.199,-0.3883,143.1,98.5,0.461
30.96,30411.4,35913.4,-2.116,1.1118,143.1,98.5,0.461
30.98,32973.3,32753.4,1.3313,-2.7474,143.1,98.5,0.461
31.0,33029.1,36005.1,1.4064,1.2238,143.1,98.5,0.461
31.02,31192.9,33720.1,-1.0644,-1.5667,143.1,98.5,0.461
31.04,31761.9,34696.3,-0.2988,-0.3746,143.1,98.5,0.461
31.06,31567.2,32292.5,-0.5607,-3.3103,143.1,98.5,0.461
31.08,30582.8,31947.6,-1.8853,-3.7315,143.1,98.5,0.461
31.1,34703.5,33732.7,3.6593,-1.5514,143.1,98.5,0.461
31.12,33908.5,38446.0,2.5896,4.2049,143.1,98.5,0.461
31.14,31231.5,39831.3,-1.0124,5.8967,143.1,98.5,0.461
31.16,34703.2,33668.1,3.6589,-1.6303,143.1,98.5,0.461
31.18,34376.6,34665.6,3.2195,-0.412,143.1,98.5,0.461
31.2,33536.9,35069.4,2.0896,0.0811,143.1,98.5,0.461
31.22,33323.2,34558.3,1.8022,-0.5431,143.1,98.5,0.461
31.24,28356.3,33603.2,-4.8813,-1.7095,143.1,98.5,0.461
31.26,32215.6,34964.2,0.3117,-0.0474,143.1,98.5,0.461
31.28,33057.9,34638.9,1.4451,-0.4447,143.1,98.5,0.461
31.3,30829.2,32796.8,-1.5538,-2.6944,143.1,98.5,0.461
31.32,32927.0,32716.6,1.269,-2.7924,143.1,98.5,0.461
31.34,32959.5,38204.5,1.3128,3.91,143.1,98.5,0.461
31.36,32521.0,32261.0,0.7227,-3.3487,143.1,98.5,0.461
31.38,31083.0,35118.4,-1.2122,0.141,143.1,98.5,0.461
31.4,32593.3,28972.8,0.82,-7.3645,143.1,98.5,0.461
31.42,34851.1,36266.3,3.858,1.5429,143.1,98.5,0.461
31.44,32323.9,35241.5,0.4575,0.2912,143.1,98.5,0.461
31.46,32913.2,33457.0,1.2505,-1.8881,143.1,98.5,0.461
31.48,35476.7,35534.7,4.6997,0.6494,143.1,98.5,0.461
31.5,30365.1,35769.9,-2.1783,0.9367,143.1,98.5,0.461
31.52,33016.7,38607.3,1.3896,4.4019,143.1,98.5,0.461
31.54,33872.0,36590.0,2.5405,1.9382,143.1,98.5,0.461
31.56,34558.8,34048.8,3.4647,-1.1653,143.1,98.5,0.461
31.58,34289.0,36589.6,3.1016,1.9377,143.1,98.5,0.461
31.6,31140.4,39542.3,-1.135,5.5438,143.1,98.5,0.461
31.62,36804.2,35524.0,6.4861,0.6363,143.1,98.5,0.461
31.64,32161.9,37858.6,0.2394,3.4875,143.1,98.5,0.461
31.66,31145.3,33418.2,-1.1284,-1.9355,143.1,98.5,0.461
31.68,31686.6,35269.1,-0.4001,0.3251,143.1,98.5,0.461
31.7,28771.1,34886.0,-4.3231,-0.1429,143.1,98.5,0.461
31.72,30023.8,31548.1,-2.6374,-4.2194,143.1,98.5,0.461
31.74,32140.8,34231.5,0.2112,-0.9423,143.1,98.5,0.461
31.76,31948.0,34444.8,-0.0483,-0.6817,143.1,98.5,0.461
31.78,30602.0,33306.3,-1.8594,-2.0721,143.1,98.5,0.461
31.8,29775.4,35111.6,-2.9718,0.1327,143.1,98.5,0.461
31.82,30664.5,37841.1,-1.7754,3.4662,143.1,98.5,0.461
31.84,32589.4,35780.1,0.8147,0.9491,143.1,98.5,0.461
31.86,29766.4,35660.8,-2.9838,0.8034,143.1,98.5,0.461
31.88,33590.9,37239.5,2.1623,2.7315,143.1,98.5,0.461
31.9,30386.7,32682.6,-2.1491,-2.8338,143.1,98.5,0.461
31.92,33327.4,34087.6,1.8078,-1.1179,143.1,98.5,0.461
31.94,29865.9,33728.3,-2.8499,-1.5567,143.1,98.5,0.461
31.96,33797.2,37035.3,2.4399,2.482,143.1,98.5,0.461
31.98,32428.5,33086.1,0.5982,-2.3411,143.1,98.5,0.461
32.0,32403.7,35856.2,0.5649,1.0421,143.1,98.5,0.461
32.02,33434.9,35481.8,1.9525,0.5848,143.1,98.5,0.461
32.04,32296.5,33742.3,0.4206,-1.5396,143.1,98.5,0.461
32.06,34042.7,34223.2,2.7702,-0.9523,143.1,98.5,0.461
32.08,30358.1,38500.7,-2.1876,4.2717,143.1,98.5,0.461
32.1,31202.2,31297.6,-1.0519,-4.5253,143.1,98.5,0.461
32.12,31388.4,36295.2,-0.8014,1.5782,143.1,98.5,0.461
32.14,29027.8,33704.0,-3.9776,-1.5865,143.1,98.5,0.461
32.16,29979.6,37169.6,-2.6969,2.646,143.1,98.5,0.461
32.18,30257.3,36243.0,-2.3233,1.5144,143.1,98.5,0.461
32.2,36491.9,33058.8,6.0659,-2.3743,143.1,98.5,0.461
32.22,32293.3,33930.9,0.4163,-1.3093,143.1,98.5,0.461
32.24,31401.4,36122.8,-0.7838,1.3676,143.1,98.5,0.461
32.26,30092.8,32044.9,-2.5446,-3.6127,143.1,98.5,0.461
32.28,28468.4,33010.8,-4.7304,-2.433,143.1,98.5,0.461
32.3,37022.3,38570.2,6.7795,4.3566,143.1,98.5,0.461
32.32,32432.7,37257.9,0.6039,2.7539,143.1,98.5,0.461
32.34,33623.1,36662.9,2.2057,2.0273,143.1,98.5,0.461
32.36,32605.5,33116.7,0.8364,-2.3037,143.1,98.5,0.461
32.38,34669.0,34466.5,3.6129,-0.6553,143.1,98.5,0.461
32.4,31175.2,36689.5,-1.0882,2.0598,143.1,98.5,0.461
32.42,33037.3,33705.7,1.4174,-1.5844,143.1,98.5,0.461
32.44,28273.6,36223.6,-4.9925,1.4907,143.1,98.5,0.461
32.46,29584.0,32645.2,-3.2292,-2.8796,143.1,98.5,0.461
32.48,32964.7,29448.4,1.3197,-6.7837,143.1,98.5,0.461
32.5,33369.4,35538.2,1.8643,0.6536,143.1,98.5,0.461
32.52,35961.6,34181.7,5.3522,-1.003,143.1,98.5,0.461
32.54,30099.4,38091.6,-2.5358,3.772,143.1,98.5,0.461
32.56,34714.5,35799.2,3.6741,0.9724,143.1,98.5,0.461
32.58,32765.5,37752.5,1.0517,3.3579,143.1,98.5,0.461
32.6,33199.5,34964.4,1.6357,-0.0471,143.1,98.5,0.461
32.62,35224.9,34615.2,4.361,-0.4736,143.1,98.5,0.461
32.64,31846.2,34427.4,-0.1853,-0.7029,143.1,98.5,0.461
32.66,28673.4,32780.1,-4.4546,-2.7148,143.1,98.5,0.461
32.68,32213.9,31739.6,0.3094,-3.9855,143.1,98.5,0.461
32.7,32569.2,31839.2,0.7875,-3.8639,143.1,98.5,0.461
32.72,33227.5,37636.1,1.6733,3.2158,143.1,98.5,0.461
32.74,32213.0,35917.6,0.3082,1.117,143.1,98.5,0.461
32.76,32114.4,38372.7,0.1756,4.1154,143.1,98.5,0.461
32.78,31601.0,38311.3,-0.5152,4.0404,143.1,98.5,0.461
32.8,34018.8,36905.2,2.7381,2.3231,143.1,98.5,0.461
32.82,33090.0,34969.8,1.4883,-0.0406,143.1,98.5,0.461
32.84,33404.2,37648.2,1.9111,3.2306,143.1,98.5,0.461
32.86,33125.1,35281.1,1.5356,0.3396,143.1,98.5,0.461
32.88,27837.6,32815.2,-5.5792,-2.6719,143.1,98.5,0.461
32.9,35068.6,35126.1,4.1507,0.1504,143.1,98.5,0.461
32.92,34418.9,35611.7,3.2765,0.7434,143.1,98.5,0.461
32.94,34240.7,34660.6,3.0367,-0.4182,143.1,98.5,0.461
32.96,33803.0,34715.4,2.4477,-0.3512,143.1,98.5,0.461
32.98,29535.9,36016.5,-3.294,1.2378,143.1,98.5,0.461
33.0,35015.4,35176.5,4.0791,0.212,143.1,98.5,0.461
33.02,30664.6,33421.3,-1.7752,-1.9316,143.1,98.5,0.461
33.04,31260.4,37112.9,-0.9735,2.5768,143.1,98.5,0.461
33.06,37936.3,34412.1,8.0093,-0.7217,143.1,98.5,0.461
33.08,32396.1,33115.2,0.5546,-2.3055,143.1,98.5,0.461
33.1,33223.5,33280.1,1.668,-2.1041,143.1,98.5,0.461
33.12,32011.0,35594.2,0.0364,0.722,143.1,98.5,0.461
33.14,31754.4,33197.5,-0.3089,-2.205,143.1,98.5,0.461
33.16,33336.3,36598.2,1.8197,1.9482,143.1,98.5,0.461
33.18,30020.6,32557.4,-2.6417,-2.9867,143.1,98.5,0.461
33.2,33506.4,35804.6,2.0487,0.979,143.1,98.5,0.461
33.22,33192.9,37434.1,1.6268,2.9691,143.1,98.5,0.461
33.24,32179.0,37767.6,0.2625,3.3764,143.1,98.5,0.461
33.26,33989.3,39093.9,2.6984,4.9962,143.1,98.5,0.461
33.28,33674.2,38047.4,2.2744,3.7181,143.1,98.5,0.461
33.3,31092.0,35197.4,-1.2002,0.2374,143.1,98.5,0.461
33.32,32087.2,38146.6,0.1389,3.8392,143.1,98.5,0.461
33.34,33528.7,34348.6,2.0786,-0.7992,143.1,98.5,0.461
33.36,34810.4,35121.1,3.8032,0.1442,143.1,98.5,0.461
33.38,31124.5,37418.0,-1.1565,2.9494,143.1,98.5,0.461
33.4,29739.6,32535.7,-3.0199,-3.0133,143.1,98.5,0.461
33.42,32254.2,37109.7,0.3637,2.5729,143.1,98.5,0.461
33.44,29478.5,36984.2,-3.3712,2.4197,143.1,98.5,0.461
33.46,31557.0,32831.8,-0.5745,-2.6516,143.1,98.5,0.461
33.48,29743.5,30880.8,-3.0147,-5.0344,143.1,98.5,0.461
33.5,30527.5,36078.1,-1.9597,1.3131,143.1,98.5,0.461
33.52,33936.2,36964.1,2.627,2.3951,143.1,98.5,0.461
33.54,32132.4,35556.7,0.1998,0.6762,143.1,98.5,0.461
33.56,32666.9,34249.8,0.919,-0.9198,143.1,98.5,0.461
33.58,32940.8,38537.1,1.2876,4.3162,143.1,98.5,0.461
33.6,33927.3,35104.5,2.615,0.1239,143.1,98.5,0.461
33.62,30631.5,35236.1,-1.8198,0.2848,143.1,98.5,0.461
33.64,32499.5,37790.7,0.6938,3.4046,143.1,98.5,0.461
33.66,34055.9,35290.1,2.7879,0.3506,143.1,98.5,0.461
33.68,35899.5,32111.0,5.2688,-3.532,143.1,98.5,0.461
33.7,33829.6,35608.0,2.4835,0.7389,143.1,98.5,0.461
33.72,28917.7,35188.3,-4.1258,0.2263,143.1,98.5,0.461
33.74,33778.3,36674.2,2.4144,2.0411,143.1,98.5,0.461
33.76,30685.8,34063.3,-1.7467,-1.1476,143.1,98.5,0.461
33.78,29915.7,35517.3,-2.783,0.6281,143.1,98.5,0.461
33.8,29522.6,33711.9,-3.3119,-1.5768,143.1,98.5,0.461
33.82,31476.6,35599.4,-0.6826,0.7284,143.1,98.5,0.461
33.84,35512.4,33789.8,4.7478,-1.4816,143.1,98.5,0.461
33.86,32892.4,34516.0,1.2224,-0.5947,143.1,98.5,0.461
33.88,27934.7,33854.4,-5.4486,-1.4028,143.1,98.5,0.461
33.9,30653.5,36775.3,-1.7902,2.1645,143.1,98.5,0.461
33.92,33319.1,31778.8,1.7966,-3.9377,143.1,98.5,0.461
33.94,31506.9,32471.7,-0.6418,-3.0914,143.1,98.5,0.461
33.96,33632.8,36819.5,2.2186,2.2184,143.1,98.5,0.461
33.98,35106.8,35838.9,4.202,1.0209,143.1,98.5,0.461
34.0,33956.5,37453.9,2.6543,2.9933,143.1,98.5,0.461
34.02,32513.5,33725.7,0.7125,-1.5599,143.1,98.5,0.461
34.04,32935.7,35654.5,1.2807,0.7957,143.1,98.5,0.461
34.06,33231.6,34609.0,1.6789,-0.4811,143.1,98.5,0.461
34.08,31122.1,35012.1,-1.1596,0.0112,143.1,98.5,0.461
34.1,31553.1,32875.4,-0.5797,-2.5983,143.1,98.5,0.461
34.12,34965.2,37194.9,4.0115,2.677,143.1,98.5,0.461
34.14,31645.6,38458.3,-0.4552,4.2199,143.1,98.5,0.461
34.16,29699.2,34617.8,-3.0742,-0.4705,143.1,98.5,0.461
34.18,31393.6,36838.2,-0.7943,2.2413,143.1,98.5,0.461
34.2,32134.8,35067.3,0.2031,0.0785,143.1,98.5,0.461
34.22,35523.7,36993.9,4.7631,2.4314,143.1,98.5,0.461
34.24,32076.1,33408.0,0.1241,-1.948,143.1,98.5,0.461
34.26,32125.7,34818.9,0.1908,-0.2249,143.1,98.5,0.461
34.28,29854.9,33308.2,-2.8648,-2.0698,143.1,98.5,0.461
34.3,33418.3,34324.0,1.9301,-0.8292,143.1,98.5,0.461
34.32,37256.0,36954.5,7.094,2.3834,143.1,98.5,0.461
34.34,31089.2,33173.6,-1.2039,-2.2342,143.1,98.5,0.461
34.36,29950.6,32091.9,-2.736,-3.5553,143.1,98.5,0.461
34.38,30259.2,36037.2,-2.3207,1.2631,143.1,98.5,0.461
34.4,27755.1,31187.8,-5.6901,-4.6595,143.1,98.5,0.461
34.42,33924.2,36790.4,2.6107,2.183,143.1,98.5,0.461
34.44,27074.4,35444.4,-6.6061,0.5391,143.1,98.5,0.461
34.46,33739.4,35588.2,2.3622,0.7147,143.1,98.5,0.461
34.48,31786.6,39891.1,-0.2656,5.9698,143.1,98.5,0.461
34.5,34841.4,37411.9,3.845,2.9419,143.1,98.5,0.461
34.52,31611.0,35727.7,-0.5018,0.8851,143.1,98.5,0.461
34.54,30098.5,34225.7,-2.537,-0.9493,143.1,98.5,0.461
34.56,29895.9,33152.6,-2.8096,-2.2599,143.1,98.5,0.461
34.58,29710.8,33068.9,-3.0586,-2.3621,143.1,98.5,0.461
34.6,32798.2,35236.0,1.0957,0.2846,143.1,98.5,0.461
34.62,32082.4,35452.0,0.1325,0.5483,143.1,98.5,0.461
34.64,30923.3,34822.7,-1.4272,-0.2202,143.1,98.5,0.461
34.66,31820.9,32554.9,-0.2194,-2.9898,143.1,98.5,0.461
34.68,29791.4,36317.4,-2.9502,1.6053,143.1,98.5,0.461
34.7,32299.0,36617.0,0.4239,1.9711,143.1,98.5,0.461
34.72,32512.0,32417.3,0.7105,-3.1579,143.1,98.5,0.461
34.74,32030.3,37292.0,0.0624,2.7955,143.1,98.5,0.461
34.76,31355.0,33954.1,-0.8462,-1.281,143.1,98.5,0.461
34.78,33524.7,37647.3,2.0732,3.2294,143.1,98.5,0.461
34.8,30614.6,33897.2,-1.8425,-1.3504,143.1,98.5,0.461
34.82,36094.1,32197.4,5.5306,-3.4264,143.1,98.5,0.461
34.84,30139.3,36656.0,-2.4821,2.0187,143.1,98.5,0.461
34.86,32080.5,35560.7,0.13,0.6812,143.1,98.5,0.461
34.88,31141.9,38048.2,-1.133,3.719,143.1,98.5,0.461
34.9,33113.5,37776.6,1.52,3.3874,143.1,98.5,0.461
34.92,34689.1,34357.2,3.64,-0.7887,143.1,98.5,0.461
34.94,31412.9,36825.8,-0.7683,2.2261,143.1,98.5,0.461
34.96,33841.4,39070.2,2.4993,4.9673,143.1,98.5,0.461
34.98,32656.0,36182.8,0.9043,1.4409,143.1,98.5,0.461
35.0,29922.4,35707.3,-2.7739,0.8602,143.1,98.5,0.461
35.02,29297.8,33640.1,-3.6144,-1.6644,143.1,98.5,0.461
35.04,33985.8,35392.9,2.6937,0.4763,143.1,98.5,0.461
35.06,31860.8,35274.0,-0.1656,0.331,143.1,98.5,0.461
35.08,32001.1,32893.3,0.0231,-2.5765,143.1,98.5,0.461
35.1,32944.2,37194.7,1.2922,2.6768,143.1,98.5,0.461
35.12,30793.2,34983.7,-1.6022,-0.0235,143.1,98.5,0.461
35.14,32849.5,34854.7,1.1647,-0.1811,143.1,98.5,0.461
35.16,37438.1,33243.1,7.339,-2.1493,143.1,98.5,0.461
35.18,28605.7,31423.2,-4.5456,-4.3719,143.1,98.5,0.461
35.2,28975.6,31405.4,-4.0479,-4.3937,143.1,98.5,0.461
35.22,30816.5,30974.2,-1.5708,-4.9203,143.1,98.5,0.461
35.24,35110.8,39340.8,4.2075,5.2976,143.1,98.5,0.461
35.26,32148.4,35722.5,0.2214,0.8787,143.1,98.5,0.461
35.28,33815.6,32734.0,2.4646,-2.7711,143.1,98.5,0.461
35.3,28198.7,37030.5,-5.0933,2.4762,143.1,98.5,0.461
35.32,30930.1,31720.5,-1.418,-4.0088,143.1,98.5,0.461
35.34,32224.9,35807.9,0.3243,0.983,143.1,98.5,0.461
35.36,29066.2,37007.1,-3.926,2.4476,143.1,98.5,0.461
35.38,32013.0,34646.6,0.0391,-0.4353,143.1,98.5,0.461
35.4,32630.9,32328.4,0.8705,-3.2664,143.1,98.5,0.461
35.42,31395.9,36019.5,-0.7912,1.2415,143.1,98.5,0.461
35.44,29366.3,35660.2,-3.5223,0.8026,143.1,98.5,0.461
35.46,29284.0,30142.6,-3.6329,-5.936,143.1,98.5,0.461
35.48,31437.9,34467.9,-0.7347,-0.6535,143.1,98.5,0.461
35.5,30307.0,35213.3,-2.2565,0.2569,143.1,98.5,0.461
35.52,27957.2,35396.2,-5.4183,0.4803,143.1,98.5,0.461
35.54,32635.5,33740.4,0.8768,-1.542,143.1,98.5,0.461
35.56,28821.3,34716.6,-4.2555,-0.3497,143.1,98.5,0.461
35.58,33218.8,28738.4,1.6617,-7.6509,143.1,98.5,0.461
35.6,30473.8,35686.0,-2.0319,0.8342,143.1,98.5,0.461
35.62,30957.6,32191.0,-1.381,-3.4342,143.1,98.5,0.461
35.64,33191.6,34720.4,1.625,-0.3451,143.1,98.5,0.461
35.66,28190.7,32047.1,-5.104,-3.6099,143.1,98.5,0.461
35.68,31827.0,35756.4,-0.2112,0.9201,143.1,98.5,0.461
35.7,32551.7,35081.0,0.764,0.0952,143.1,98.5,0.461
35.72,33830.5,35094.9,2.4847,0.1123,143.1,98.5,0.461
35.74,32306.0,34598.4,0.4334,-0.4942,143.1,98.5,0.461
35.76,31435.4,35908.3,-0.7381,1.1056,143.1,98.5,0.461
35.78,32584.0,36426.0,0.8075,1.7378,143.1,98.5,0.461
35.8,30346.1,34717.7,-2.2038,-0.3484,143.1,98.5,0.461
35.82,32413.3,32426.4,0.5778,-3.1468,143.1,98.5,0.461
35.84,32622.3,35359.9,0.859,0.4358,143.1,98.5,0.461
35.86,33525.7,36122.6,2.0746,1.3673,143.1,98.5,0.461
35.88,31962.1,32039.2,-0.0293,-3.6196,143.1,98.5,0.461
35.9,36561.6,37904.3,6.1596,3.5433,143.1,98.5,0.461
35.92,33210.4,32925.2,1.6503,-2.5376,143.1,98.5,0.461
35.94,35703.1,34426.3,5.0044,-0.7043,143.1,98.5,0.461
35.96,28242.5,36642.1,-5.0344,2.0019,143.1,98.5,0.461
35.98,30722.1,34342.5,-1.6979,-0.8066,143.1,98.5,0.461
36.0,33517.7,32904.9,2.0638,-2.5623,143.1,98.5,0.461
36.02,31563.8,31944.2,-0.5654,-3.7357,143.1,98.5,0.461
36.04,30255.6,33395.5,-2.3256,-1.9632,143.1,98.5,0.461
36.06,32586.0,33098.0,0.8101,-2.3265,143.1,98.5,0.461
36.08,32086.5,32993.2,0.1381,-2.4546,143.1,98.5,0.461
36.1,31065.3,34804.7,-1.2361,-0.2422,143.1,98.5,0.461
36.12,30003.8,32850.7,-2.6644,-2.6286,143.1,98.5,0.461
36.14,30967.2,37645.0,-1.3681,3.2267,143.1,98.5,0.461
36.16,29615.2,36145.6,-3.1873,1.3955,143.1,98.5,0.461
36.18,32612.2,38290.9,0.8453,4.0155,143.1,98.5,0.461
36.2,33412.2,33586.4,1.9219,-1.73,143.1,98.5,0.461
36.22,28524.5,35766.7,-4.6549,0.9328,143.1,98.5,0.461
36.24,27148.3,33831.6,-6.5067,-1.4306,143.1,98.5,0.461
36.26,30447.1,33174.0,-2.0679,-2.2337,143.1,98.5,0.461
36.28,29628.8,33777.8,-3.1689,-1.4964,143.1,98.5,0.461
36.3,33546.7,33703.6,2.1028,-1.587,143.1,98.5,0.461
36.32,32735.9,35114.2,1.0119,0.1359,143.1,98.5,0.461
36.34,32384.9,33784.9,0.5396,-1.4876,143.1,98.5,0.461
36.36,27801.6,37818.6,-5.6277,3.4386,143.1,98.5,0.461
36.38,30016.3,37356.2,-2.6475,2.874,143.1,98.5,0.461
36.4,31687.9,31975.5,-0.3983,-3.6974,143.1,98.5,0.461
36.42,35003.8,35540.6,4.0635,0.6565,143.1,98.5,0.461
36.44,27672.0,35930.9,-5.8021,1.1332,143.1,98.5,0.461
36.46,32992.4,34603.2,1.357,-0.4883,143.1,98.5,0.461
36.48,31011.3,35494.4,-1.3087,0.6001,143.1,98.5,0.461
36.5,31489.9,37039.3,-0.6648,2.4869,143.1,98.5,0.461
36.52,33006.2,35049.8,1.3756,0.0571,143.1,98.5,0.461
36.54,31214.0,39555.7,-1.036,5.5601,143.1,98.5,0.461
36.56,31392.2,38934.6,-0.7962,4.8016,143.1,98.5,0.461
36.58,30333.8,35212.9,-2.2203,0.2564,143.1,98.5,0.461
36.6,32530.4,35989.5,0.7354,1.2048,143.1,98.5,0.461
36.62,30620.4,36372.4,-1.8347,1.6724,143.1,98.5,0.461
36.64,28444.2,34161.2,-4.763,-1.028,143.1,98.5,0.461
36.66,32418.1,35485.5,0.5842,0.5893,143.1,98.5,0.461
36.68,32669.2,36044.6,0.9222,1.2722,143.1,98.5,0.461
36.7,29399.6,34217.1,-3.4774,-0.9598,143.1,98.5,0.461
36.72,30996.2,34163.4,-1.3291,-1.0253,143.1,98.5,0.461
36.74,31030.9,33738.0,-1.2824,-1.5449,143.1,98.5,0.461
36.76,27747.0,36213.4,-5.7011,1.4783,143.1,98.5,0.461
36.78,32027.8,34654.4,0.059,-0.4257,143.1,98.5,0.461
36.8,28249.3,37890.5,-5.0253,3.5264,143.1,98.5,0.461
36.82,29354.8,36984.7,-3.5377,2.4203,143.1,98.5,0.461
36.84,32348.5,33595.1,0.4905,-1.7194,143.1,98.5,0.461
36.86,29262.0,32660.8,-3.6625,-2.8605,143.1,98.5,0.461
36.88,32258.8,28871.8,0.3699,-7.4879,143.1,98.5,0.461
36.9,32364.3,34975.6,0.5119,-0.0334,143.1,98.5,0.461
36.92,35878.1,36171.1,5.2399,1.4266,143.1,98.5,0.461
36.94,30600.7,37636.5,-1.8613,3.2163,143.1,98.5,0.461
36.96,32511.3,38698.6,0.7096,4.5134,143.1,98.5,0.461
36.98,30356.4,35312.1,-2.19,0.3775,143.1,98.5,0.461
37.0,33467.9,35860.7,1.9968,1.0475,143.1,98.5,0.461
37.02,29185.3,32816.1,-3.7658,-2.6708,143.1,98.5,0.461
37.04,32872.7,35473.2,1.196,0.5742,143.1,98.5,0.461
37.06,31081.6,33173.5,-1.2142,-2.2343,143.1,98.5,0.461
37.08,31600.7,32676.0,-0.5157,-2.8419,143.1,98.5,0.461
37.1,30872.9,34484.4,-1.495,-0.6333,143.1,98.5,0.461
37.12,35492.2,36107.0,4.7206,1.3483,143.1,98.5,0.461
37.14,28799.5,32646.5,-4.2848,-2.8779,143.1,98.5,0.461
37.16,30652.8,35180.7,-1.7911,0.2171,143.1,98.5,0.461
37.18,35746.8,34579.3,5.0632,-0.5174,143.1,98.5,0.461
37.2,31560.3,34142.4,-0.57,-1.0511,143.1,98.5,0.461
37.22,27620.8,33941.7,-5.8709,-1.2962,143.1,98.5,0.461
37.24,35682.7,34917.1,4.977,-0.1048,143.1,98.5,0.461
37.26,32032.3,35791.8,0.0651,0.9633,143.1,98.5,0.461
37.28,31748.0,34526.1,-0.3174,-0.5825,143.1,98.5,0.461
37.3,33760.3,35626.9,2.3903,0.7619,143.1,98.5,0.461
37.32,34539.1,34977.2,3.4382,-0.0314,143.1,98.5,0.461
37.34,33105.2,34910.5,1.5088,-0.1129,143.1,98.5,0.461
37.36,32553.3,35232.4,0.7661,0.2802,143.1,98.5,0.461
37.38,28644.6,36129.2,-4.4933,1.3755,143.1,98.5,0.461
37.4,33990.6,29629.4,2.7001,-6.5626,143.1,98.5,0.461
37.42,29204.6,32618.2,-3.7398,-2.9125,143.1,98.5,0.461
37.44,31804.5,35626.0,-0.2414,0.7609,143.1,98.5,0.461
37.46,30658.0,36721.9,-1.7841,2.0993,143.1,98.5,0.461
37.48,31939.0,33889.7,-0.0604,-1.3596,143.1,98.5,0.461
37.5,26638.7,35363.0,-7.1924,0.4397,143.1,98.5,0.461
37.52,30527.6,34659.1,-1.9596,-0.42,143.1,98.5,0.461
37.54,31145.3,35189.6,-1.1284,0.2279,143.1,98.5,0.461
37.56,28409.6,38667.3,-4.8096,4.4752,143.1,98.5,0.461
37.58,29586.0,36156.3,-3.2265,1.4085,143.1,98.5,0.461
37.6,33293.1,34503.7,1.7616,-0.6098,143.1,98.5,0.461
37.62,27477.2,36287.2,-6.0642,1.5684,143.1,98.5,0.461
37.64,29254.8,32918.5,-3.6722,-2.5457,143.1,98.5,0.461
37.66,33442.5,32916.9,1.9627,-2.5477,143.1,98.5,0.461
37.68,31555.1,34923.8,-0.577,-0.0967,143.1,98.5,0.461
37.7,31717.0,35581.9,-0.3592,0.707,143.1,98.5,0.461
37.72,31055.3,31527.2,-1.2495,-4.245,143.1,98.5,0.461
37.74,33001.0,32698.4,1.3685,-2.8145,143.1,98.5,0.461
37.76,31377.0,37343.9,-0.8166,2.859,143.1,98.5,0.461
37.78,29681.6,37168.2,-3.0979,2.6443,143.1,98.5,0.461
37.8,30007.9,36751.8,-2.6589,2.1358,143.1,98.5,0.461
37.82,32875.6,35345.5,1.1998,0.4183,143.1,98.5,0.461
37.84,29471.0,31431.3,-3.3813,-4.362,143.1,98.5,0.461
37.86,34059.1,34058.7,2.7923,-1.1533,143.1,98.5,0.461
37.88,30895.3,32654.8,-1.4648,-2.8678,143.1,98.5,0.461
37.9,29038.0,35338.5,-3.964,0.4098,143.1,98.5,0.461
37.92,30394.4,36557.9,-2.1388,1.899,143.1,98.5,0.461
37.94,32487.8,35435.1,0.678,0.5278,143.1,98.5,0.461
37.96,31518.5,33141.3,-0.6262,-2.2736,143.1,98.5,0.461
37.98,31028.4,34152.4,-1.2857,-1.0388,143.1,98.5,0.461
38.0,32182.1,33572.6,0.2666,-1.747,143.1,98.5,0.461
38.02,33445.7,34080.7,1.967,-1.1263,143.1,98.5,0.461
38.04,31553.3,33597.5,-0.5794,-1.7165,143.1,98.5,0.461
38.06,31502.9,33024.8,-0.6472,-2.416,143.1,98.5,0.461
38.08,32275.9,32055.9,0.3929,-3.5992,143.1,98.5,0.461
38.1,29473.2,39277.3,-3.3783,5.2201,143.1,98.5,0.461
38.12,31330.4,32908.3,-0.8794,-2.5581,143.1,98.5,0.461
38.14,30807.2,33891.4,-1.5834,-1.3576,143.1,98.5,0.461
38.16,32041.8,35311.5,0.0779,0.3768,143.1,98.5,0.461
38.18,31505.0,35438.1,-0.6444,0.5314,143.1,98.5,0.461
38.2,30378.0,34532.7,-2.1609,-0.5744,143.1,98.5,0.461
38.22,32428.1,38969.8,0.5976,4.8446,143.1,98.5,0.461
38.24,34077.2,30419.7,2.8167,-5.5975,143.1,98.5,0.461
38.26,30011.2,36055.4,-2.6544,1.2853,143.1,98.5,0.461
38.28,32649.5,35557.4,0.8956,0.6771,143.1,98.5,0.461
38.3,30626.5,36028.5,-1.8266,1.2524,143.1,98.5,0.461
38.32,30777.6,35487.2,-1.6231,0.5913,143.1,98.5,0.461
38.34,29404.4,37467.3,-3.471,3.0096,143.1,98.5,0.461
38.36,32493.1,36000.8,0.6852,1.2186,143.1,98.5,0.461
38.38,32974.9,33387.8,1.3334,-1.9726,143.1,98.5,0.461
38.4,33241.7,34432.5,1.6924,-0.6967,143.1,98.5,0.461
38.42,32411.3,34133.3,0.5751,-1.0621,143.1,98.5,0.461
38.44,31420.9,31494.6,-0.7576,-4.2848,143.1,98.5,0.461
38.46,30232.8,31696.9,-2.3563,-4.0377,143.1,98.5,0.461
38.48,31377.8,35944.6,-0.8155,1.15,143.1,98.5,0.461
38.5,29721.3,31457.8,-3.0445,-4.3297,143.1,98.5,0.461
38.52,34064.0,30684.8,2.7989,-5.2737,143.1,98.5,0.461
38.54,31647.5,33596.4,-0.4527,-1.7179,143.1,98.5,0.461
38.56,28618.1,33670.4,-4.529,-1.6275,143.1,98.5,0.461
38.58,33455.5,36411.8,1.9801,1.7206,143.1,98.5,0.461
38.6,33889.4,32788.0,2.5639,-2.7051,143.1,98.5,0.461
38.62,34362.5,36808.7,3.2005,2.2053,143.1,98.5,0.461
38.64,34087.6,34868.5,2.8307,-0.1642,143.1,98.5,0.461
38.66,33351.5,36258.1,1.8402,1.5329,143.1,98.5,0.461
38.68,31954.5,38246.2,-0.0396,3.9609,143.1,98.5,0.461
38.7,36261.9,32677.3,5.7564,-2.8403,143.1,98.5,0.461
38.72,34293.1,34520.1,3.1072,-0.5898,143.1,98.5,0.461
38.74,30694.4,33298.1,-1.7351,-2.0822,143.1,98.5,0.461
38.76,27865.2,33082.0,-5.5421,-2.346,143.1,98.5,0.461
38.78,33080.4,32871.5,1.4754,-2.6031,143.1,98.5,0.461
38.8,33129.6,34422.2,1.5416,-0.7093,143.1,98.5,0.461
38.82,33240.5,38103.5,1.6908,3.7867,143.1,98.5,0.461
38.84,30789.5,34920.6,-1.6072,-0.1006,143.1,98.5,0.461
38.86,32689.1,36072.2,0.9489,1.3058,143.1,98.5,0.461
38.88,30816.4,35577.8,-1.571,0.702,143.1,98.5,0.461
38.9,32942.4,35550.9,1.2897,0.6692,143.1,98.5,0.461
38.92,33828.5,32650.5,2.482,-2.873,143.1,98.5,0.461
38.94,30967.9,35567.5,-1.3671,0.6895,143.1,98.5,0.461
38.96,33097.0,34944.3,1.4978,-0.0716,143.1,98.5,0.461
38.98,32427.7,31035.6,0.5971,-4.8453,143.1,98.5,0.461
39.0,34576.4,35889.0,3.4883,1.0821,143.1,98.5,0.461
39.02,31342.4,37125.9,-0.8633,2.5927,143.1,98.5,0.461
39.04,32473.0,35001.8,0.6581,-0.0014,143.1,98.5,0.461
39.06,37236.8,36801.0,7.0681,2.1958,143.1,98.5,0.461
39.08,35041.7,36245.3,4.1144,1.5172,143.1,98.5,0.461
39.1,31767.4,35666.7,-0.2914,0.8106,143.1,98.5,0.461
39.12,32186.4,34787.0,0.2725,-0.2638,143.1,98.5,0.461
39.14,30609.9,33268.7,-1.8489,-2.118,143.1,98.5,0.461
39.16,32595.7,35484.7,0.8232,0.5884,143.1,98.5,0.461
39.18,33974.5,36342.8,2.6785,1.6363,143.1,98.5,0.461
39.2,29652.5,33649.4,-3.1372,-1.6531,143.1,98.5,0.461
39.22,29670.2,32092.3,-3.1133,-3.5547,143.1,98.5,0.461
39.24,29731.9,35579.8,-3.0303,0.7044,143.1,98.5,0.461
39.26,32676.6,33660.3,0.9321,-1.6398,143.1,98.5,0.461
39.28,30973.1,37126.8,-1.3601,2.5938,143.1,98.5,0.461
39.3,28906.0,34300.4,-4.1415,-0.858,143.1,98.5,0.461
39.32,33634.6,34457.4,2.2212,-0.6664,143.1,98.5,0.461
39.34,29170.1,34898.6,-3.7862,-0.1275,143.1,98.5,0.461
39.36,32967.8,34413.1,1.3239,-0.7204,143.1,98.5,0.461
39.38,30973.3,32698.8,-1.3599,-2.8141,143.1,98.5,0.461
39.4,30823.2,35985.1,-1.5618,1.1994,143.1,98.5,0.461
39.42,33249.7,32354.8,1.7033,-3.2342,143.1,98.5,0.461
39.44,32227.7,34054.3,0.328,-1.1586,143.1,98.5,0.461
39.46,34032.3,34197.7,2.7562,-0.9835,143.1,98.5,0.461
39.48,33294.2,33069.6,1.7631,-2.3613,143.1,98.5,0.461
39.5,35537.9,38625.7,4.7822,4.4244,143.1,98.5,0.461
39.52,34564.6,35703.3,3.4725,0.8552,143.1,98.5,0.461
39.54,29523.5,37013.7,-3.3107,2.4556,143.1,98.5,0.461
39.56,33830.0,35621.7,2.4841,0.7556,143.1,98.5,0.461
39.58,29924.5,33501.4,-2.7711,-1.8339,143.1,98.5,0.461
39.6,34786.9,37250.1,3.7716,2.7444,143.1,98.5,0.461
39.62,30385.8,32805.9,-2.1504,-2.6832,143.1,98.5,0.461
39.64,32335.9,33488.2,0.4737,-1.85,143.1,98.5,0.461
39.66,32303.2,36407.7,0.4297,1.7156,143.1,98.5,0.461
39.68,31332.4,37153.7,-0.8767,2.6267,143.1,98.5,0.461
39.7,34037.4,31362.0,2.763,-4.4467,143.1,98.5,0.461
39.72,28522.8,38116.6,-4.6571,3.8026,143.1,98.5,0.461
39.74,30324.6,35705.3,-2.2328,0.8577,143.1,98.5,0.461
39.76,32737.8,37755.5,1.0144,3.3616,143.1,98.5,0.461
39.78,31861.9,32921.3,-0.1642,-2.5424,143.1,98.5,0.461
39.8,35023.5,33944.2,4.09,-1.2931,143.1,98.5,0.461
39.82,31422.1,33137.9,-0.756,-2.2778,143.1,98.5,0.461
39.84,32832.9,36782.5,1.1423,2.1733,143.1,98.5,0.461
39.86,29328.5,38934.7,-3.5731,4.8018,143.1,98.5,0.461
39.88,31404.9,38521.7,-0.7791,4.2974,143.1,98.5,0.461
39.9,30242.6,37611.7,-2.3431,3.186,143.1,98.5,0.461
39.92,33006.2,36597.7,1.3755,1.9476,143.1,98.5,0.461
39.94,31363.2,34264.3,-0.8352,-0.9021,143.1,98.5,0.461
39.96,30333.1,35065.6,-2.2212,0.0764,143.1,98.5,0.461
39.98,29702.3,33545.4,-3.0701,-1.7802,143.1,98.5,0.461
40.0,31791.8,35597.1,-0.2585,0.7256,143.1,98.5,0.461
40.02,33586.5,37895.1,2.1563,3.532,143.1,98.5,0.461
40.04,29133.8,35135.2,-3.8351,0.1614,143.1,98.5,0.461
40.06,29684.4,37736.0,-3.0942,3.3378,143.1,98.5,0.461
40.08,30928.2,33875.4,-1.4205,-1.3771,143.1,98.5,0.461
40.1,28524.4,32422.6,-4.655,-3.1513,143.1,98.5,0.461
40.12,30945.1,33532.4,-1.3978,-1.7961,143.1,98.5,0.461
40.14,32422.2,33619.0,0.5897,-1.6902,143.1,98.5,0.461
40.16,33757.9,32012.1,2.387,-3.6528,143.1,98.5,0.461
40.18,31435.5,36458.7,-0.7379,1.7779,143.1,98.5,0.461
40.2,30246.1,37612.1,-2.3384,3.1864,143.1,98.5,0.461
40.22,30763.0,36190.5,-1.6429,1.4503,143.1,98.5,0.461
40.24,32916.7,33692.7,1.2551,-1.6002,143.1,98.5,0.461
40.26,33107.5,30761.2,1.5118,-5.1805,143.1,98.5,0.461
40.28,31784.5,37308.4,-0.2683,2.8155,143.1,98.5,0.461
40.3,31908.1,34966.7,-0.1021,-0.0443,143.1,98.5,0.461
40.32,28766.9,34901.7,-4.3288,-0.1237,143.1,98.5,0.461
40.34,31831.6,35349.4,-0.2049,0.4231,143.1,98.5,0.461
40.36,30090.2,35362.1,-2.5481,0.4386,143.1,98.5,0.461
40.38,31962.1,37084.6,-0.0293,2.5423,143.1,98.5,0.461
40.4,35817.0,31968.8,5.1577,-3.7056,143.1,98.5,0.461
40.42,29750.5,32147.5,-3.0052,-3.4873,143.1,98.5,0.461
40.44,32843.1,36372.7,1.1561,1.6728,143.1,98.5,0.461
40.46,30291.6,35697.3,-2.2772,0.8479,143.1,98.5,0.461
40.48,33731.5,36501.9,2.3515,1.8307,143.1,98.5,0.461
40.5,32274.9,32474.2,0.3915,-3.0883,143.1,98.5,0.461
40.52,30548.8,36421.6,-1.931,1.7325,143.1,98.5,0.461
40.54,34112.3,33126.3,2.8639,-2.292,143.1,98.5,0.461
40.56,32475.4,35311.5,0.6614,0.3768,143.1,98.5,0.461
40.58,32481.0,36515.2,0.6689,1.8468,143.1,98.5,0.461
40.6,29096.7,35138.2,-3.8849,0.1651,143.1,98.5,0.461
40.62,30119.9,32908.5,-2.5082,-2.558,143.1,98.5,0.461
40.64,34649.2,35106.4,3.5863,0.1263,143.1,98.5,0.461
40.66,32015.7,34527.2,0.0428,-0.581,143.1,98.5,0.461
40.68,33631.0,35478.7,2.2162,0.581,143.1,98.5,0.461
40.7,29535.5,33324.4,-3.2945,-2.05,143.1,98.5,0.461
40.72,31532.5,40484.6,-0.6074,6.6946,143.1,98.5,0.461
40.74,30558.5,35553.0,-1.918,0.6717,143.1,98.5,0.461
40.76,31080.7,34013.7,-1.2153,-1.2082,143.1,98.5,0.461
40.78,33477.4,36712.5,2.0097,2.0878,143.1,98.5,0.461
40.8,30488.5,32352.9,-2.0122,-3.2365,143.1,98.5,0.461
40.82,32922.7,35930.7,1.2632,1.133,143.1,98.5,0.461
40.84,33834.0,34933.4,2.4895,-0.085,143.1,98.5,0.461
40.86,34039.6,33203.2,2.7661,-2.1981,143.1,98.5,0.461
40.88,28672.6,39348.9,-4.4556,5.3076,143.1,98.5,0.461
40.9,30694.7,37802.7,-1.7348,3.4193,143.1,98.5,0.461
40.92,34470.0,34578.2,3.3452,-0.5188,143.1,98.5,0.461
40.94,30320.1,38138.0,-2.2387,3.8288,143.1,98.5,0.461
40.96,34209.9,35421.9,2.9952,0.5116,143.1,98.5,0.461
40.98,31579.7,33364.5,-0.5438,-2.0011,143.1,98.5,0.461
41.0,30526.6,38910.9,-1.961,4.7727,143.1,98.5,0.461
41.02,31849.3,36977.4,-0.1812,2.4113,143.1,98.5,0.461
41.04,34014.4,36283.8,2.7322,1.5642,143.1,98.5,0.461
41.06,26966.3,33800.4,-6.7515,-1.4687,143.1,98.5,0.461
41.08,31877.3,32713.5,-0.1435,-2.7961,143.1,98.5,0.461
41.1,33904.3,38195.1,2.584,3.8985,143.1,98.5,0.461
41.12,32483.1,35451.5,0.6717,0.5477,143.1,98.5,0.461
41.14,29338.0,34797.0,-3.5603,-0.2515,143.1,98.5,0.461
41.16,31338.7,36115.3,-0.8683,1.3584,143.1,98.5,0.461
41.18,34506.5,36584.4,3.3943,1.9313,143.1,98.5,0.461
41.2,31825.0,36056.4,-0.2139,1.2865,143.1,98.5,0.461
41.22,33533.6,35481.5,2.0852,0.5844,143.1,98.5,0.461
41.24,36341.3,35689.3,5.8632,0.8381,143.1,98.5,0.461
41.26,31291.8,34392.7,-0.9313,-0.7453,143.1,98.5,0.461
41.28,27490.8,34787.3,-6.0458,-0.2634,143.1,98.5,0.461
41.3,32336.8,33160.5,0.4748,-2.2502,143.1,98.5,0.461
41.32,32851.1,34775.4,1.1669,-0.278,143.1,98.5,0.461
41.34,29634.5,33528.3,-3.1613,-1.801,143.1,98.5,0.461
41.36,29804.9,34932.2,-2.9321,-0.0865,143.1,98.5,0.461
41.38,33719.8,37035.8,2.3358,2.4826,143.1,98.5,0.461
41.4,32198.1,35443.9,0.2881,0.5384,143.1,98.5,0.461
41.42,27942.3,34571.1,-5.4384,-0.5274,143.1,98.5,0.461
41.44,30275.7,33357.2,-2.2985,-2.01,143.1,98.5,0.461
41.46,27003.7,30054.6,-6.7013,-6.0434,143.1,98.5,0.461
41.48,32353.6,34812.9,0.4974,-0.2322,143.1,98.5,0.461
41.5,29599.9,31385.4,-3.2079,-4.418,143.1,98.5,0.461
41.52,32246.9,34133.2,0.3539,-1.0622,143.1,98.5,0.461
41.54,34422.2,38387.5,3.281,4.1334,143.1,98.5,0.461
41.56,33353.7,35124.0,1.8431,0.1478,143.1,98.5,0.461
41.58,33467.0,34939.9,1.9956,-0.0771,143.1,98.5,0.461
41.6,34968.1,35554.0,4.0155,0.6729,143.1,98.5,0.461
41.62,35124.1,35613.8,4.2253,0.746,143.1,98.5,0.461
41.64,32879.7,35291.1,1.2054,0.3519,143.1,98.5,0.461
41.66,35429.2,36822.1,4.6359,2.2216,143.1,98.5,0.461
41.68,31492.1,35971.1,-0.6618,1.1823,143.1,98.5,0.461
41.7,30396.1,35356.2,-2.1365,0.4313,143.1,98.5,0.461
41.72,29400.6,31706.5,-3.4761,-4.026,143.1,98.5,0.461
41.74,30746.6,30262.6,-1.6649,-5.7893,143.1,98.5,0.461
41.76,33278.0,34073.8,1.7412,-1.1348,143.1,98.5,0.461
41.78,29777.3,33405.4,-2.9692,-1.9511,143.1,98.5,0.461
41.8,30533.9,35440.4,-1.9511,0.5342,143.1,98.5,0.461
41.82,30641.4,38968.8,-1.8065,4.8433,143.1,98.5,0.461
41.84,30301.5,34892.1,-2.2638,-0.1354,143.1,98.5,0.461
41.86,30134.3,33374.7,-2.4888,-1.9886,143.1,98.5,0.461
41.88,31312.9,30549.5,-0.9029,-5.439,143.1,98.5,0.461
41.9,28930.7,33955.1,-4.1083,-1.2798,143.1,98.5,0.461
41.92,32121.1,33215.5,0.1846,-2.183,143.1,98.5,0.461
41.94,30439.4,37427.4,-2.0782,2.9609,143.1,98.5,0.461
41.96,31566.8,35163.2,-0.5613,0.1956,143.1,98.5,0.461
41.98,31463.3,36452.7,-0.7006,1.7705,143.1,98.5,0.461
42.0,33327.4,37696.0,1.8078,3.2889,143.1,98.5,0.461
42.02,34438.0,38902.9,3.3022,4.7629,143.1,98.5,0.461
42.04,31366.6,38608.8,-0.8307,4.4038,143.1,98.5,0.461
42.06,31106.8,35793.2,-1.1803,0.9651,143.1,98.5,0.461
42.08,30995.9,38122.5,-1.3294,3.8098,143.1,98.5,0.461
42.1,31351.2,34134.6,-0.8514,-1.0606,143.1,98.5,0.461
42.12,30760.1,34884.0,-1.6467,-0.1453,143.1,98.5,0.461
42.14,32454.0,33797.5,0.6325,-1.4722,143.1,98.5,0.461
42.16,32645.3,35273.6,0.8899,0.3305,143.1,98.5,0.461
42.18,33167.3,35320.7,1.5924,0.388,143.1,98.5,0.461
42.2,32359.2,33178.9,0.5049,-2.2278,143.1,98.5,0.461
42.22,35158.7,32352.3,4.2719,-3.2372,143.1,98.5,0.461
42.24,30715.5,32428.6,-1.7068,-3.144,143.1,98.5,0.461
42.26,31193.6,33722.9,-1.0634,-1.5633,143.1,98.5,0.461
42.28,29737.6,36858.1,-3.0226,2.2656,143.1,98.5,0.461
42.3,32115.9,33480.5,0.1776,-1.8594,143.1,98.5,0.461
42.32,33639.8,36582.7,2.2282,1.9292,143.1,98.5,0.461
42.34,32678.8,37168.1,0.935,2.6442,143.1,98.5,0.461
42.36,34092.2,35079.3,2.8368,0.0932,143.1,98.5,0.461
42.38,35123.6,35961.3,4.2247,1.1704,143.1,98.5,0.461
42.4,32987.4,30124.1,1.3503,-5.9585,143.1,98.5,0.461
42.42,35551.7,33945.1,4.8007,-1.292,143.1,98.5,0.461
42.44,33903.0,38173.3,2.5823,3.8719,143.1,98.5,0.461
42.46,30332.1,38438.7,-2.2226,4.196,143.1,98.5,0.461
42.48,29981.2,35452.7,-2.6949,0.5492,143.1,98.5,0.461
42.5,28667.6,35892.8,-4.4623,1.0867,143.1,98.5,0.461
42.52,31433.2,36607.6,-0.7411,1.9597,143.1,98.5,0.461
42.54,30578.8,36629.2,-1.8907,1.9861,143.1,98.5,0.461
42.56,31601.4,34149.8,-0.5146,-1.0419,143.1,98.5,0.461
42.58,28956.6,30242.3,-4.0735,-5.8141,143.1,98.5,0.461
42.6,33548.1,34124.1,2.1047,-1.0734,143.1,98.5,0.461
42.62,34253.2,32270.2,3.0536,-3.3375,143.1,98.5,0.461
42.64,28360.9,38720.0,-4.8751,4.5395,143.1,98.5,0.461
42.66,34479.8,34644.0,3.3584,-0.4384,143.1,98.5,0.461
42.68,29994.7,34178.1,-2.6766,-1.0074,143.1,98.5,0.461
42.7,33121.2,35498.5,1.5303,0.6051,143.1,98.5,0.461
42.72,31112.1,34075.1,-1.1731,-1.1332,143.1,98.5,0.461
42.74,32483.5,36963.6,0.6722,2.3944,143.1,98.5,0.461
42.76,31133.8,40165.9,-1.1439,6.3054,143.1,98.5,0.461
42.78,33918.9,37472.4,2.6037,3.0158,143.1,98.5,0.461
42.8,35230.2,38952.8,4.3681,4.8239,143.1,98.5,0.461
42.82,30084.5,33300.8,-2.5558,-2.0789,143.1,98.5,0.461
42.84,32244.7,39390.0,0.3509,5.3578,143.1,98.5,0.461
42.86,33708.6,35018.5,2.3207,0.019,143.1,98.5,0.461
42.88,34035.2,34340.2,2.7601,-0.8094,143.1,98.5,0.461
42.9,30641.7,36153.8,-1.806,1.4054,143.1,98.5,0.461
42.92,31344.0,34520.7,-0.861,-0.589,143.1,98.5,0.461
42.94,31981.2,33015.9,-0.0036,-2.4268,143.1,98.5,0.461
42.96,29783.6,35108.8,-2.9607,0.1292,143.1,98.5,0.461
42.98,32369.2,36319.7,0.5184,1.6081,143.1,98.5,0.461
43.0,33139.1,39313.4,1.5543,5.2642,143.1,98.5,0.461
43.02,30572.6,36176.1,-1.899,1.4327,143.1,98.5,0.461
43.04,31068.7,38500.9,-1.2315,4.272,143.1,98.5,0.461
43.06,31958.0,32873.7,-0.0349,-2.6005,143.1,98.5,0.461
43.08,32786.4,37465.5,1.0797,3.0074,143.1,98.5,0.461
43.1,30548.5,34916.7,-1.9315,-0.1054,143.1,98.5,0.461
43.12,30919.6,34699.9,-1.4321,-0.3701,143.1,98.5,0.461
43.14,34465.4,28801.3,3.339,-7.5741,143.1,98.5,0.461
43.16,31247.5,34858.5,-0.9909,-0.1764,143.1,98.5,0.461
43.18,33790.5,33819.4,2.4309,-1.4455,143.1,98.5,0.461
43.2,30895.7,37363.9,-1.4643,2.8834,143.1,98.5,0.461
43.22,32812.4,35598.5,1.1148,0.7273,143.1,98.5,0.461
43.24,30935.3,36638.2,-1.411,1.9971,143.1,98.5,0.461
43.26,32554.2,34558.7,0.7673,-0.5426,143.1,98.5,0.461
43.28,26632.6,37083.9,-7.2006,2.5413,143.1,98.5,0.461
43.3,29739.8,33633.7,-3.0196,-1.6722,143.1,98.5,0.461
43.32,32758.0,36217.3,1.0415,1.483,143.1,98.5,0.461
43.34,29180.8,32668.9,-3.7718,-2.8506,143.1,98.5,0.461
43.36,29796.8,37080.2,-2.9429,2.5368,143.1,98.5,0.461
43.38,28172.1,36177.5,-5.1291,1.4344,143.1,98.5,0.461
43.4,30729.9,35639.6,-1.6874,0.7775,143.1,98.5,0.461
43.42,27841.6,34894.8,-5.5738,-0.1321,143.1,98.5,0.461
43.44,36041.4,30244.9,5.4597,-5.811,143.1,98.5,0.461
43.46,31836.8,30127.3,-0.198,-5.9546,143.1,98.5,0.461
43.48,30855.9,33679.1,-1.5178,-1.6168,143.1,98.5,0.461
43.5,29982.5,35925.3,-2.693,1.1264,143.1,98.5,0.461
43.52,30861.6,36901.5,-1.5101,2.3186,143.1,98.5,0.461
43.54,32677.0,33158.7,0.9326,-2.2524,143.1,98.5,0.461
43.56,29858.3,33284.6,-2.8601,-2.0986,143.1,98.5,0.461
43.58,34520.9,32987.5,3.4137,-2.4615,143.1,98.5,0.461
43.6,34400.6,36201.5,3.2518,1.4638,143.1,98.5,0.461
43.62,32153.2,36219.2,0.2278,1.4853,143.1,98.5,0.461
43.64,32787.6,35398.9,1.0814,0.4836,143.1,98.5,0.461
43.66,29722.1,33638.8,-3.0435,-1.666,143.1,98.5,0.461
43.68,28276.6,38414.7,-4.9884,4.1666,143.1,98.5,0.461
43.7,30229.1,36499.9,-2.3612,1.8281,143.1,98.5,0.461
43.72,31684.0,38101.7,-0.4036,3.7844,143.1,98.5,0.461
43.74,33091.5,36133.4,1.4904,1.3806,143.1,98.5,0.461
43.76,31359.1,37098.4,-0.8407,2.559,143.1,98.5,0.461
43.78,32367.8,33942.2,0.5165,-1.2955,143.1,98.5,0.461
43.8,33918.5,36637.4,2.6031,1.9961,143.1,98.5,0.461
43.82,32496.1,34832.7,0.6892,-0.208,143.1,98.5,0.461
43.84,30477.7,37111.0,-2.0267,2.5745,143.1,98.5,0.461
43.86,30266.0,33386.7,-2.3116,-1.974,143.1,98.5,0.461
43.88,35056.4,30997.7,4.1343,-4.8916,143.1,98.5,0.461
43.9,31602.4,34575.3,-0.5134,-0.5223,143.1,98.5,0.461
43.92,28062.8,33537.5,-5.2762,-1.7897,143.1,98.5,0.461
43.94,32947.5,36241.0,1.2965,1.512,143.1,98.5,0.461
43.96,32686.2,36132.0,0.945,1.3788,143.1,98.5,0.461
43.98,35572.2,34054.2,4.8282,-1.1588,143.1,98.5,0.461
44.0,34326.7,33176.4,3.1523,-2.2307,143.1,98.5,0.461
44.02,32095.8,35716.1,0.1505,0.8709,143.1,98.5,0.461
44.04,30175.3,35268.5,-2.4336,0.3242,143.1,98.5,0.461
44.06,31502.2,35952.6,-0.6482,1.1598,143.1,98.5,0.461
44.08,27478.7,37588.9,-6.0621,3.1582,143.1,98.5,0.461
44.1,30925.1,35116.3,-1.4248,0.1384,143.1,98.5,0.461
44.12,29153.0,33353.7,-3.8093,-2.0142,143.1,98.5,0.461
44.14,29816.7,35446.9,-2.9161,0.5422,143.1,98.5,0.461
44.16,32108.5,36174.9,0.1677,1.4312,143.1,98.5,0.461
44.18,29200.1,41448.0,-3.7459,7.8712,143.1,98.5,0.461
44.2,34236.4,35546.7,3.0309,0.664,143.1,98.5,0.461
44.22,31179.4,38230.5,-1.0825,3.9417,143.1,98.5,0.461
44.24,31912.0,36258.8,-0.0968,1.5337,143.1,98.5,0.461
44.26,35046.2,35018.2,4.1205,0.0186,143.1,98.5,0.461
44.28,30190.9,29652.6,-2.4127,-6.5344,143.1,98.5,0.461
44.3,28679.8,33783.5,-4.4459,-1.4893,143.1,98.5,0.461
44.32,33298.9,34817.9,1.7694,-0.2261,143.1,98.5,0.461
44.34,32711.1,35098.6,0.9784,0.1167,143.1,98.5,0.461
44.36,31684.1,35145.8,-0.4034,0.1744,143.1,98.5,0.461
44.38,32471.5,36586.8,0.6561,1.9343,143.1,98.5,0.461
44.4,30390.0,34799.6,-2.1447,-0.2484,143.1,98.5,0.461
44.42,29915.5,35965.2,-2.7832,1.1751,143.1,98.5,0.461
44.44,32583.0,33271.4,0.8061,-2.1148,143.1,98.5,0.461
44.46,32786.4,32622.2,1.0799,-2.9076,143.1,98.5,0.461
44.48,35558.8,36819.5,4.8103,2.2185,143.1,98.5,0.461
44.5,35777.4,34701.3,5.1044,-0.3684,143.1,98.5,0.461
44.52,30477.1,38546.1,-2.0275,4.3272,143.1,98.5,0.461
44.54,33839.5,37003.9,2.4969,2.4437,143.1,98.5,0.461
44.56,32482.0,37363.6,0.6702,2.883,143.1,98.5,0.461
44.58,31015.6,32055.5,-1.3029,-3.5997,143.1,98.5,0.461
44.6,32369.3,36612.9,0.5185,1.9661,143.1,98.5,0.461
44.62,30991.6,36020.8,-1.3352,1.243,143.1,98.5,0.461
44.64,31089.8,32964.7,-1.2031,-2.4893,143.1,98.5,0.461
44.66,30950.6,34948.3,-1.3905,-0.0668,143.1,98.5,0.461
44.68,34011.2,33088.7,2.7279,-2.3379,143.1,98.5,0.461
44.7,29778.7,35859.3,-2.9674,1.0458,143.1,98.5,0.461
44.72,34952.0,34243.8,3.9937,-0.9272,143.1,98.5,0.461
44.74,30577.7,34017.7,-1.8922,-1.2033,143.1,98.5,0.461
44.76,27660.8,32838.4,-5.8171,-2.6436,143.1,98.5,0.461
44.78,32922.9,38535.6,1.2634,4.3144,143.1,98.5,0.461
44.8,36722.1,34139.7,6.3756,-1.0543,143.1,98.5,0.461
44.82,28858.1,34646.1,-4.206,-0.4359,143.1,98.5,0.461
44.84,31174.0,35642.4,-1.0899,0.7809,143.1,98.5,0.461
44.86,28801.0,38465.2,-4.2829,4.2283,143.1,98.5,0.461
44.88,36326.7,35261.0,5.8436,0.3151,143.1,98.5,0.461
44.9,35455.1,31061.7,4.6707,-4.8134,143.1,98.5,0.461
