timestamp,raw_red,raw_ir,filtered_red,filtered_ir,heart_rate,spo2,ac_dc_ratio
0.0,32092.2,35184.1,0.3588,0.451,138.0,96.4,0.545
0.02,32339.2,35433.1,1.3332,1.0628,138.0,96.4,0.545
0.04,32394.0,35696.3,1.5495,1.7095,138.0,96.4,0.545
0.06,32362.7,35755.2,1.426,1.8541,138.0,96.4,0.545
0.08,32324.0,35691.4,1.2735,1.6974,138.0,96.4,0.545
0.1,32213.7,35446.7,0.8384,1.0961,138.0,96.4,0.545
0.12,32108.5,35353.7,0.4232,0.8676,138.0,96.4,0.545
0.14,32080.4,35133.1,0.3126,0.3258,138.0,96.4,0.545
0.16,32049.3,35117.7,0.1899,0.2878,138.0,96.4,0.545
0.18,32060.0,35037.5,0.2319,0.0909,138.0,96.4,0.545
0.2,31992.3,34987.7,-0.0352,-0.0316,138.0,96.4,0.545
0.22,31866.8,34839.2,-0.5302,-0.3963,138.0,96.4,0.545
0.24,31954.9,34691.1,-0.1826,-0.7602,138.0,96.4,0.545
0.26,31918.1,34709.0,-0.3278,-0.7162,138.0,96.4,0.545
0.28,31849.1,34599.3,-0.5999,-0.9858,138.0,96.4,0.545
0.3,31760.2,34668.6,-0.9507,-0.8154,138.0,96.4,0.545
0.32,31802.0,34637.9,-0.7858,-0.8909,138.0,96.4,0.545
0.34,31803.0,34498.8,-0.7818,-1.2326,138.0,96.4,0.545
0.36,31746.5,34412.8,-1.0046,-1.4439,138.0,96.4,0.545
0.38,31695.3,34409.3,-1.2068,-1.4526,138.0,96.4,0.545
0.4,31864.5,34590.3,-0.5392,-1.0079,138.0,96.4,0.545
0.42,31980.5,34871.8,-0.0819,-0.3163,138.0,96.4,0.545
0.44,32089.6,35245.7,0.3488,0.6024,138.0,96.4,0.545
0.46,32260.9,35602.3,1.0243,1.4785,138.0,96.4,0.545
0.48,32342.2,35745.6,1.3452,1.8305,138.0,96.4,0.545
0.5,32379.9,35716.5,1.4939,1.7591,138.0,96.4,0.545
0.52,32220.6,35634.9,0.8656,1.5586,138.0,96.4,0.545
0.54,32165.8,35408.1,0.6494,1.0013,138.0,96.4,0.545
0.56,32191.9,35211.9,0.7524,0.5193,138.0,96.4,0.545
0.58,32118.6,35184.5,0.463,0.4519,138.0,96.4,0.545
0.6,32004.3,35040.9,0.0123,0.0993,138.0,96.4,0.545
0.62,31987.3,35033.5,-0.0548,0.0811,138.0,96.4,0.545
0.64,32047.3,34963.6,0.1819,-0.0907,138.0,96.4,0.545
0.66,31982.8,34774.8,-0.0728,-0.5547,138.0,96.4,0.545
0.68,31821.5,34688.0,-0.7089,-0.7679,138.0,96.4,0.545
0.7,31785.5,34653.1,-0.8508,-0.8535,138.0,96.4,0.545
0.72,31818.6,34590.2,-0.7203,-1.0081,138.0,96.4,0.545
0.74,31822.7,34697.5,-0.7041,-0.7444,138.0,96.4,0.545
0.76,31767.7,34560.6,-0.9212,-1.0807,138.0,96.4,0.545
0.78,31801.2,34554.0,-0.7889,-1.0971,138.0,96.4,0.545
0.8,31783.4,34526.1,-0.8592,-1.1657,138.0,96.4,0.545
0.82,31768.4,34452.8,-0.9183,-1.3456,138.0,96.4,0.545
0.84,31862.1,34661.7,-0.5489,-0.8325,138.0,96.4,0.545
0.86,31974.5,34924.2,-0.1053,-0.1875,138.0,96.4,0.545
0.88,32197.1,35392.5,0.7728,0.9631,138.0,96.4,0.545
0.9,32355.8,35616.2,1.3988,1.5126,138.0,96.4,0.545
0.92,32432.9,35802.0,1.7031,1.9691,138.0,96.4,0.545
0.94,32358.5,35713.6,1.4096,1.7518,138.0,96.4,0.545
0.96,32347.9,35527.2,1.3677,1.2941,138.0,96.4,0.545
0.98,32236.5,35353.1,0.9281,0.8662,138.0,96.4,0.545
1.0,32094.3,35153.9,0.3672,0.3767,138.0,96.4,0.545
1.02,32023.2,35083.4,0.0868,0.2035,138.0,96.4,0.545
1.04,32128.7,35061.6,0.503,0.1501,138.0,96.4,0.545
1.06,32004.0,35037.9,0.0111,0.0918,138.0,96.4,0.545
1.08,31948.7,34892.1,-0.2072,-0.2663,138.0,96.4,0.545
1.1,31820.0,34834.4,-0.7148,-0.4082,138.0,96.4,0.545
1.12,31856.1,34736.8,-0.5723,-0.6479,138.0,96.4,0.545
1.14,31793.3,34655.1,-0.8202,-0.8486,138.0,96.4,0.545
1.16,31835.0,34750.7,-0.6557,-0.6138,138.0,96.4,0.545
1.18,31806.2,34538.4,-0.7693,-1.1353,138.0,96.4,0.545
1.2,31846.0,34586.0,-0.6122,-1.0185,138.0,96.4,0.545
1.22,31744.0,34566.1,-1.0148,-1.0674,138.0,96.4,0.545
1.24,31745.6,34467.5,-1.0082,-1.3094,138.0,96.4,0.545
1.26,31723.8,34488.5,-1.0941,-1.2579,138.0,96.4,0.545
1.28,31882.8,34667.0,-0.467,-0.8195,138.0,96.4,0.545
1.3,31996.9,35036.7,-0.017,0.0889,138.0,96.4,0.545
1.32,32187.4,35429.1,0.7344,1.0529,138.0,96.4,0.545
1.34,32336.1,35676.8,1.3211,1.6615,138.0,96.4,0.545
1.36,32391.9,35755.8,1.5411,1.8556,138.0,96.4,0.545
1.38,32331.8,35580.2,1.3039,1.4243,138.0,96.4,0.545
1.4,32286.3,35464.4,1.1244,1.1396,138.0,96.4,0.545
1.42,32185.4,35319.0,0.7266,0.7824,138.0,96.4,0.545
1.44,32107.6,35187.0,0.4197,0.4581,138.0,96.4,0.545
1.46,32007.8,35102.7,0.0262,0.2511,138.0,96.4,0.545
1.48,31999.8,34937.8,-0.0056,-0.1542,138.0,96.4,0.545
1.5,31914.4,35038.3,-0.3425,0.0927,138.0,96.4,0.545
1.52,31941.7,34926.4,-0.2346,-0.1821,138.0,96.4,0.545
1.54,31954.1,34779.1,-0.1858,-0.5439,138.0,96.4,0.545
1.56,31839.4,34727.6,-0.6382,-0.6706,138.0,96.4,0.545
1.58,31876.5,34668.7,-0.492,-0.8152,138.0,96.4,0.545
1.6,31805.0,34645.1,-0.7741,-0.8732,138.0,96.4,0.545
1.62,31782.0,34587.0,-0.8647,-1.016,138.0,96.4,0.545
1.64,31697.5,34547.2,-1.1981,-1.1138,138.0,96.4,0.545
1.66,31670.9,34459.5,-1.303,-1.3293,138.0,96.4,0.545
1.68,31657.6,34416.8,-1.3556,-1.4341,138.0,96.4,0.545
1.7,31765.7,34526.8,-0.9289,-1.1638,138.0,96.4,0.545
1.72,31912.3,34823.9,-0.3506,-0.4339,138.0,96.4,0.545
1.74,32142.3,35160.5,0.5564,0.393,138.0,96.4,0.545
1.76,32229.6,35491.0,0.9011,1.205,138.0,96.4,0.545
1.78,32353.4,35726.7,1.3892,1.784,138.0,96.4,0.545
1.8,32379.6,35750.3,1.4927,1.8421,138.0,96.4,0.545
1.82,32337.6,35623.7,1.3268,1.531,138.0,96.4,0.545
1.84,32249.1,35361.9,0.9778,0.8878,138.0,96.4,0.545
1.86,32142.7,35290.3,0.5582,0.712,138.0,96.4,0.545
1.88,32095.8,35130.1,0.373,0.3184,138.0,96.4,0.545
1.9,32049.6,35138.2,0.1909,0.3382,138.0,96.4,0.545
1.92,32138.6,35066.2,0.542,0.1613,138.0,96.4,0.545
1.94,31989.1,34940.5,-0.0477,-0.1476,138.0,96.4,0.545
1.96,31907.8,34963.8,-0.3683,-0.0902,138.0,96.4,0.545
1.98,31841.0,34726.6,-0.6321,-0.6729,138.0,96.4,0.545
2.0,31888.8,34691.0,-0.4433,-0.7604,138.0,96.4,0.545
2.02,31889.6,34643.6,-0.4403,-0.877,138.0,96.4,0.545
2.04,31952.8,34643.5,-0.191,-0.877,138.0,96.4,0.545
2.06,31846.4,34579.9,-0.6107,-1.0335,138.0,96.4,0.545
2.08,31750.2,34564.8,-0.9903,-1.0706,138.0,96.4,0.545
2.1,31781.4,34495.7,-0.8672,-1.2402,138.0,96.4,0.545
2.12,31696.3,34540.2,-1.2029,-1.131,138.0,96.4,0.545
2.14,31746.4,34533.2,-1.0052,-1.1481,138.0,96.4,0.545
2.16,31952.0,34855.0,-0.1942,-0.3575,138.0,96.4,0.545
2.18,32089.4,35260.0,0.3478,0.6375,138.0,96.4,0.545
2.2,32244.9,35609.2,0.9612,1.4955,138.0,96.4,0.545
2.22,32296.0,35721.3,1.1629,1.7709,138.0,96.4,0.545
2.24,32373.6,35694.0,1.4688,1.7037,138.0,96.4,0.545
2.26,32190.7,35573.7,0.7475,1.4083,138.0,96.4,0.545
2.28,32153.7,35353.3,0.6016,0.8668,138.0,96.4,0.545
2.3,32056.1,35218.2,0.2166,0.5348,138.0,96.4,0.545
2.32,32059.5,35119.2,0.2301,0.2915,138.0,96.4,0.545
2.34,31975.8,35023.9,-0.1003,0.0575,138.0,96.4,0.545
2.36,32057.9,35033.3,0.2237,0.0805,138.0,96.4,0.545
2.38,32007.1,34923.9,0.0232,-0.1883,138.0,96.4,0.545
2.4,31839.7,34878.3,-0.637,-0.3002,138.0,96.4,0.545
2.42,31826.7,34731.5,-0.6882,-0.661,138.0,96.4,0.545
2.44,31957.9,34703.4,-0.1708,-0.73,138.0,96.4,0.545
2.46,31750.1,34620.0,-0.9905,-0.9349,138.0,96.4,0.545
2.48,31827.2,34610.2,-0.6865,-0.9589,138.0,96.4,0.545
2.5,31810.3,34636.1,-0.753,-0.8952,138.0,96.4,0.545
2.52,31744.4,34598.6,-1.0132,-0.9875,138.0,96.4,0.545
2.54,31674.6,34409.7,-1.2885,-1.4515,138.0,96.4,0.545
2.56,31732.9,34585.4,-1.0585,-1.0199,138.0,96.4,0.545
2.58,31779.9,34691.4,-0.8729,-0.7595,138.0,96.4,0.545
2.6,32064.9,35058.6,0.2513,0.1427,138.0,96.4,0.545
2.62,32199.4,35347.9,0.782,0.8534,138.0,96.4,0.545
2.64,32338.1,35674.8,1.329,1.6567,138.0,96.4,0.545
2.66,32422.7,35720.4,1.6627,1.7687,138.0,96.4,0.545
2.68,32277.5,35746.0,1.0898,1.8316,138.0,96.4,0.545
2.7,32264.1,35472.9,1.0371,1.1606,138.0,96.4,0.545
2.72,32198.8,35335.4,0.7793,0.8227,138.0,96.4,0.545
2.74,32137.7,35198.4,0.5384,0.4862,138.0,96.4,0.545
2.76,32114.0,35123.0,0.4448,0.301,138.0,96.4,0.545
2.78,32095.4,35049.5,0.3716,0.1204,138.0,96.4,0.545
2.8,32039.0,35075.3,0.1492,0.1838,138.0,96.4,0.545
2.82,31898.5,34922.3,-0.4052,-0.1923,138.0,96.4,0.545
2.84,31889.4,34807.5,-0.4411,-0.4742,138.0,96.4,0.545
2.86,31874.4,34741.2,-0.5,-0.6372,138.0,96.4,0.545
2.88,31821.0,34662.3,-0.7107,-0.8309,138.0,96.4,0.545
2.9,31874.6,34644.4,-0.4992,-0.8749,138.0,96.4,0.545
2.92,31772.9,34718.7,-0.9006,-0.6924,138.0,96.4,0.545
2.94,31795.7,34618.5,-0.8107,-0.9385,138.0,96.4,0.545
2.96,31780.2,34453.7,-0.8717,-1.3435,138.0,96.4,0.545
2.98,31801.2,34472.7,-0.7888,-1.2967,138.0,96.4,0.545
3.0,31788.4,34579.8,-0.8394,-1.0335,138.0,96.4,0.545
3.02,31873.4,34672.3,-0.5043,-0.8063,138.0,96.4,0.545
3.04,32044.8,35144.4,0.1719,0.3534,138.0,96.4,0.545
3.06,32241.4,35523.9,0.9476,1.2858,138.0,96.4,0.545
3.08,32294.7,35683.7,1.1576,1.6784,138.0,96.4,0.545
3.1,32411.1,35775.2,1.6168,1.9031,138.0,96.4,0.545
3.12,32382.7,35715.5,1.5049,1.7565,138.0,96.4,0.545
3.14,32214.5,35490.6,0.8412,1.204,138.0,96.4,0.545
3.16,32138.3,35312.9,0.5408,0.7676,138.0,96.4,0.545
3.18,32162.0,35205.4,0.6341,0.5033,138.0,96.4,0.545
3.2,32028.9,35105.1,0.1091,0.257,138.0,96.4,0.545
3.22,32006.2,35035.5,0.0197,0.0859,138.0,96.4,0.545
3.24,31972.9,34896.0,-0.1118,-0.2567,138.0,96.4,0.545
3.26,31983.4,34877.6,-0.0701,-0.3021,138.0,96.4,0.545
3.28,31863.2,34793.4,-0.5445,-0.5089,138.0,96.4,0.545
3.3,31802.2,34741.9,-0.7852,-0.6355,138.0,96.4,0.545
3.32,31798.3,34621.1,-0.8006,-0.9321,138.0,96.4,0.545
3.34,31774.1,34616.2,-0.8959,-0.9443,138.0,96.4,0.545
3.36,31743.2,34661.7,-1.0177,-0.8325,138.0,96.4,0.545
3.38,31878.5,34491.7,-0.484,-1.2501,138.0,96.4,0.545
3.4,31652.0,34484.6,-1.3774,-1.2675,138.0,96.4,0.545
3.42,31750.5,34476.6,-0.9888,-1.2873,138.0,96.4,0.545
3.44,31843.8,34621.9,-0.6209,-0.9302,138.0,96.4,0.545
3.46,31944.3,34819.8,-0.2245,-0.444,138.0,96.4,0.545
3.48,32157.7,35193.5,0.6173,0.474,138.0,96.4,0.545
3.5,32233.6,35564.9,0.9169,1.3867,138.0,96.4,0.545
3.52,32309.3,35725.0,1.2154,1.7798,138.0,96.4,0.545
3.54,32354.3,35758.4,1.3931,1.862,138.0,96.4,0.545
3.56,32391.8,35622.8,1.5407,1.5289,138.0,96.4,0.545
3.58,32152.0,35336.5,0.5949,0.8255,138.0,96.4,0.545
3.6,32106.1,35301.5,0.4139,0.7395,138.0,96.4,0.545
3.62,32128.1,35144.7,0.5005,0.3542,138.0,96.4,0.545
3.64,32059.0,35126.4,0.2281,0.3093,138.0,96.4,0.545
3.66,32065.1,34951.3,0.2522,-0.1208,138.0,96.4,0.545
3.68,32021.8,34979.2,0.0812,-0.0524,138.0,96.4,0.545
3.7,31973.7,34842.7,-0.1085,-0.3878,138.0,96.4,0.545
3.72,31896.9,34716.6,-0.4115,-0.6975,138.0,96.4,0.545
3.74,31811.4,34709.9,-0.7488,-0.7139,138.0,96.4,0.545
3.76,31831.3,34696.3,-0.6701,-0.7473,138.0,96.4,0.545
3.78,31846.8,34660.0,-0.609,-0.8367,138.0,96.4,0.545
3.8,31751.6,34593.4,-0.9847,-1.0003,138.0,96.4,0.545
3.82,31780.5,34625.3,-0.8707,-0.9218,138.0,96.4,0.545
3.84,31878.9,34468.7,-0.4823,-1.3067,138.0,96.4,0.545
3.86,31724.2,34495.1,-1.0926,-1.2417,138.0,96.4,0.545
3.88,31801.2,34611.9,-0.7889,-0.9548,138.0,96.4,0.545
3.9,31951.5,34967.9,-0.1961,-0.0802,138.0,96.4,0.545
3.92,32163.5,35268.8,0.64,0.6592,138.0,96.4,0.545
3.94,32317.7,35542.0,1.2484,1.3303,138.0,96.4,0.545
3.96,32393.4,35742.2,1.5469,1.8222,138.0,96.4,0.545
3.98,32365.7,35776.8,1.4377,1.9072,138.0,96.4,0.545
4.0,32277.0,35604.6,1.088,1.4842,138.0,96.4,0.545
4.02,32162.5,35403.3,0.6364,0.9896,138.0,96.4,0.545
4.04,32067.8,35210.4,0.2628,0.5158,138.0,96.4,0.545
4.06,32053.3,35103.3,0.2056,0.2526,138.0,96.4,0.545
4.08,32040.2,35157.4,0.1539,0.3855,138.0,96.4,0.545
4.1,31937.2,34924.5,-0.2523,-0.1868,138.0,96.4,0.545
4.12,31949.6,34882.3,-0.2035,-0.2905,138.0,96.4,0.545
4.14,31883.7,34733.6,-0.4633,-0.6558,138.0,96.4,0.545
4.16,31877.6,34641.0,-0.4877,-0.8832,138.0,96.4,0.545
4.18,31806.8,34740.6,-0.7667,-0.6387,138.0,96.4,0.545
4.2,31776.1,34580.7,-0.8878,-1.0315,138.0,96.4,0.545
4.22,31790.9,34733.5,-0.8296,-0.656,138.0,96.4,0.545
4.24,31782.9,34552.8,-0.8611,-1.0999,138.0,96.4,0.545
4.26,31856.3,34522.7,-0.5715,-1.1739,138.0,96.4,0.545
4.28,31738.1,34395.6,-1.0379,-1.4862,138.0,96.4,0.545
4.3,31730.4,34463.8,-1.0682,-1.3187,138.0,96.4,0.545
4.32,31856.6,34747.4,-0.5704,-0.6219,138.0,96.4,0.545
4.34,32031.1,34983.4,0.1178,-0.0421,138.0,96.4,0.545
4.36,32191.3,35275.3,0.7501,0.6751,138.0,96.4,0.545
4.38,32248.4,35641.3,0.9749,1.5744,138.0,96.4,0.545
4.4,32356.3,35809.8,1.4009,1.9884,138.0,96.4,0.545
4.42,32298.5,35758.7,1.1727,1.8628,138.0,96.4,0.545
4.44,32308.7,35643.0,1.2131,1.5785,138.0,96.4,0.545
4.46,32106.5,35395.3,0.4156,0.9698,138.0,96.4,0.545
4.48,32005.0,35109.3,0.0149,0.2672,138.0,96.4,0.545
4.5,32061.6,35129.5,0.2383,0.3168,138.0,96.4,0.545
4.52,32054.0,35008.6,0.2083,0.0198,138.0,96.4,0.545
4.54,31999.8,34982.4,-0.0053,-0.0446,138.0,96.4,0.545
4.56,31947.7,34869.6,-0.2112,-0.3216,138.0,96.4,0.545
4.58,31901.5,34804.2,-0.3931,-0.4823,138.0,96.4,0.545
4.6,31867.6,34806.1,-0.5269,-0.4777,138.0,96.4,0.545
4.62,31844.6,34711.4,-0.6178,-0.7102,138.0,96.4,0.545
4.64,31788.6,34682.1,-0.8385,-0.7824,138.0,96.4,0.545
4.66,31800.2,34561.0,-0.7928,-1.0798,138.0,96.4,0.545
4.68,31751.9,34612.5,-0.9834,-0.9534,138.0,96.4,0.545
4.7,31727.7,34485.9,-1.0788,-1.2642,138.0,96.4,0.545
4.72,31728.0,34539.9,-1.0779,-1.1316,138.0,96.4,0.545
4.74,31741.3,34526.5,-1.0251,-1.1647,138.0,96.4,0.545
4.76,31812.8,34792.4,-0.743,-0.5114,138.0,96.4,0.545
4.78,32044.0,35098.3,0.169,0.2403,138.0,96.4,0.545
4.8,32242.1,35445.7,0.9504,1.0937,138.0,96.4,0.545
4.82,32373.5,35753.2,1.4686,1.8493,138.0,96.4,0.545
4.84,32323.5,35758.1,1.2713,1.8612,138.0,96.4,0.545
4.86,32333.6,35670.3,1.3113,1.6454,138.0,96.4,0.545
4.88,32164.7,35363.9,0.6449,0.8929,138.0,96.4,0.545
4.9,32154.7,35317.8,0.6055,0.7796,138.0,96.4,0.545
4.92,32067.8,35182.4,0.2627,0.447,138.0,96.4,0.545
4.94,32127.4,35086.5,0.4978,0.2113,138.0,96.4,0.545
4.96,32045.2,35076.2,0.1734,0.1859,138.0,96.4,0.545
4.98,32008.6,34947.6,0.029,-0.1301,138.0,96.4,0.545
5.0,31997.1,34859.5,-0.016,-0.3465,138.0,96.4,0.545
5.02,31802.8,34724.5,-0.7826,-0.6782,138.0,96.4,0.545
5.04,31953.6,34623.7,-0.1879,-0.9258,138.0,96.4,0.545
5.06,31901.6,34679.7,-0.3928,-0.7881,138.0,96.4,0.545
5.08,31904.4,34710.3,-0.3818,-0.7129,138.0,96.4,0.545
5.1,31753.1,34620.1,-0.9788,-0.9346,138.0,96.4,0.545
5.12,31872.0,34541.1,-0.5097,-1.1287,138.0,96.4,0.545
5.14,31742.7,34496.6,-1.0197,-1.2382,138.0,96.4,0.545
5.16,31676.8,34420.7,-1.2797,-1.4245,138.0,96.4,0.545
5.18,31851.5,34543.5,-0.5906,-1.1228,138.0,96.4,0.545
5.2,31924.7,34868.8,-0.302,-0.3237,138.0,96.4,0.545
5.22,32150.5,35230.8,0.5887,0.5658,138.0,96.4,0.545
5.24,32302.8,35534.9,1.1898,1.3128,138.0,96.4,0.545
5.26,32358.8,35655.0,1.4106,1.608,138.0,96.4,0.545
5.28,32323.8,35796.4,1.2727,1.9553,138.0,96.4,0.545
5.3,32262.6,35528.2,1.0312,1.2964,138.0,96.4,0.545
5.32,32225.6,35329.7,0.8851,0.8088,138.0,96.4,0.545
5.34,32185.2,35308.7,0.726,0.7571,138.0,96.4,0.545
5.36,32001.1,35225.6,-0.0003,0.5531,138.0,96.4,0.545
5.38,32006.6,35092.6,0.0214,0.2262,138.0,96.4,0.545
5.4,32063.1,35043.2,0.244,0.105,138.0,96.4,0.545
5.42,31984.3,34942.8,-0.0668,-0.1419,138.0,96.4,0.545
5.44,31848.5,34865.3,-0.6025,-0.3323,138.0,96.4,0.545
5.46,31884.9,34742.7,-0.4588,-0.6334,138.0,96.4,0.545
5.48,31798.5,34605.9,-0.7997,-0.9695,138.0,96.4,0.545
5.5,31959.1,34660.0,-0.166,-0.8366,138.0,96.4,0.545
5.52,31825.2,34691.1,-0.6944,-0.7602,138.0,96.4,0.545
5.54,31873.0,34505.9,-0.5059,-1.2152,138.0,96.4,0.545
5.56,31787.5,34517.5,-0.8429,-1.1866,138.0,96.4,0.545
5.58,31779.9,34485.7,-0.8731,-1.2647,138.0,96.4,0.545
5.6,31744.1,34441.4,-1.0143,-1.3738,138.0,96.4,0.545
5.62,31887.5,34663.6,-0.4487,-0.8277,138.0,96.4,0.545
5.64,32003.5,34973.8,0.0089,-0.0656,138.0,96.4,0.545
5.66,32188.1,35265.4,0.7372,0.6508,138.0,96.4,0.545
5.68,32208.6,35551.7,0.8183,1.3542,138.0,96.4,0.545
5.7,32378.0,35728.5,1.4863,1.7884,138.0,96.4,0.545
5.72,32348.1,35671.0,1.3683,1.6473,138.0,96.4,0.545
5.74,32259.7,35553.0,1.0197,1.3573,138.0,96.4,0.545
5.76,32239.4,35449.2,0.9396,1.1023,138.0,96.4,0.545
5.78,32149.6,35255.5,0.5852,0.6265,138.0,96.4,0.545
5.8,32112.4,35031.1,0.4385,0.0752,138.0,96.4,0.545
5.82,32032.1,35063.2,0.1218,0.1539,138.0,96.4,0.545
5.84,31901.8,34924.8,-0.3921,-0.186,138.0,96.4,0.545
5.86,32013.2,34964.2,0.0474,-0.0892,138.0,96.4,0.545
5.88,31888.7,34865.2,-0.4438,-0.3325,138.0,96.4,0.545
5.9,31859.7,34803.2,-0.5583,-0.4848,138.0,96.4,0.545
5.92,31770.6,34741.1,-0.9095,-0.6373,138.0,96.4,0.545
5.94,31801.9,34595.8,-0.7861,-0.9944,138.0,96.4,0.545
5.96,31823.4,34642.6,-0.7013,-0.8793,138.0,96.4,0.545
5.98,31866.8,34523.6,-0.5302,-1.1718,138.0,96.4,0.545
6.0,31796.5,34441.4,-0.8075,-1.3736,138.0,96.4,0.545
6.02,31723.5,34483.5,-1.0953,-1.2703,138.0,96.4,0.545
6.04,31755.6,34521.5,-0.9689,-1.1768,138.0,96.4,0.545
6.06,31875.6,34683.3,-0.4954,-0.7792,138.0,96.4,0.545
6.08,31938.0,34984.9,-0.2492,-0.0384,138.0,96.4,0.545
6.1,32107.6,35398.6,0.4198,0.9779,138.0,96.4,0.545
6.12,32385.5,35593.3,1.5159,1.4562,138.0,96.4,0.545
6.14,32377.5,35802.7,1.4846,1.9708,138.0,96.4,0.545
6.16,32305.9,35642.5,1.2019,1.5772,138.0,96.4,0.545
6.18,32236.3,35526.5,0.9273,1.2922,138.0,96.4,0.545
6.2,32104.7,35243.3,0.4083,0.5966,138.0,96.4,0.545
6.22,32060.6,35082.0,0.2343,0.2002,138.0,96.4,0.545
6.24,32026.1,35133.8,0.0982,0.3273,138.0,96.4,0.545
6.26,32028.6,35097.1,0.108,0.2373,138.0,96.4,0.545
6.28,31965.8,34974.1,-0.1398,-0.0649,138.0,96.4,0.545
6.3,32068.5,34888.6,0.2656,-0.2751,138.0,96.4,0.545
6.32,31904.9,34790.1,-0.3798,-0.517,138.0,96.4,0.545
6.34,31786.4,34664.3,-0.8473,-0.8261,138.0,96.4,0.545
6.36,31830.6,34615.7,-0.6731,-0.9454,138.0,96.4,0.545
6.38,31786.1,34635.7,-0.8486,-0.8963,138.0,96.4,0.545
6.4,31870.3,34579.4,-0.5162,-1.0346,138.0,96.4,0.545
6.42,31755.4,34597.6,-0.9696,-0.9898,138.0,96.4,0.545
6.44,31709.4,34505.1,-1.1512,-1.2173,138.0,96.4,0.545
6.46,31741.6,34549.0,-1.0239,-1.1093,138.0,96.4,0.545
6.48,31882.5,34562.2,-0.4684,-1.0769,138.0,96.4,0.545
6.5,31916.8,34733.5,-0.3331,-0.6559,138.0,96.4,0.545
6.52,31999.4,35087.1,-0.0073,0.2127,138.0,96.4,0.545
6.54,32186.0,35518.5,0.7291,1.2727,138.0,96.4,0.545
6.56,32398.1,35669.4,1.5657,1.6433,138.0,96.4,0.545
6.58,32258.0,35783.2,1.0129,1.923,138.0,96.4,0.545
6.6,32333.8,35605.0,1.3121,1.4852,138.0,96.4,0.545
6.62,32277.7,35463.8,1.0906,1.1382,138.0,96.4,0.545
6.64,32086.6,35275.6,0.3369,0.6758,138.0,96.4,0.545
6.66,32105.8,35150.4,0.4124,0.3683,138.0,96.4,0.545
6.68,32144.5,35066.9,0.5653,0.1631,138.0,96.4,0.545
6.7,31950.3,35080.1,-0.201,0.1955,138.0,96.4,0.545
6.72,31962.3,34999.0,-0.1535,-0.0038,138.0,96.4,0.545
6.74,31938.4,34809.5,-0.2476,-0.4692,138.0,96.4,0.545
6.76,31958.6,34811.5,-0.1681,-0.4644,138.0,96.4,0.545
6.78,31882.5,34726.3,-0.4682,-0.6738,138.0,96.4,0.545
6.8,31819.2,34727.7,-0.7181,-0.6703,138.0,96.4,0.545
6.82,31818.4,34655.4,-0.7211,-0.8479,138.0,96.4,0.545
6.84,31762.5,34624.7,-0.9415,-0.9233,138.0,96.4,0.545
6.86,31779.1,34523.1,-0.8763,-1.1729,138.0,96.4,0.545
6.88,31703.4,34439.0,-1.1748,-1.3796,138.0,96.4,0.545
6.9,31756.8,34470.9,-0.964,-1.3013,138.0,96.4,0.545
6.92,31738.8,34621.6,-1.0349,-0.931,138.0,96.4,0.545
6.94,31897.9,34809.0,-0.4074,-0.4705,138.0,96.4,0.545
6.96,32095.9,35254.4,0.3737,0.6237,138.0,96.4,0.545
6.98,32218.3,35572.8,0.8564,1.4059,138.0,96.4,0.545
7.0,32343.9,35729.9,1.3519,1.7919,138.0,96.4,0.545
7.02,32376.1,35765.1,1.4787,1.8785,138.0,96.4,0.545
7.04,32248.7,35545.4,0.9765,1.3387,138.0,96.4,0.545
7.06,32160.0,35419.2,0.6263,1.0287,138.0,96.4,0.545
7.08,32126.0,35262.8,0.4924,0.6443,138.0,96.4,0.545
7.1,32123.4,35148.3,0.4822,0.3631,138.0,96.4,0.545
7.12,32025.7,35081.8,0.0967,0.1997,138.0,96.4,0.545
7.14,32107.3,35031.5,0.4183,0.0762,138.0,96.4,0.545
7.16,31918.3,34935.1,-0.3271,-0.1607,138.0,96.4,0.545
7.18,31924.2,34854.4,-0.3037,-0.3589,138.0,96.4,0.545
7.2,31907.9,34670.3,-0.368,-0.8112,138.0,96.4,0.545
7.22,31812.2,34714.2,-0.7454,-0.7034,138.0,96.4,0.545
7.24,31849.3,34646.1,-0.5993,-0.8708,138.0,96.4,0.545
7.26,31775.2,34562.4,-0.8915,-1.0763,138.0,96.4,0.545
7.28,31879.9,34688.7,-0.4787,-0.766,138.0,96.4,0.545
7.3,31718.0,34621.4,-1.1173,-0.9315,138.0,96.4,0.545
7.32,31700.3,34419.2,-1.1868,-1.4282,138.0,96.4,0.545
7.34,31693.6,34549.1,-1.2133,-1.1092,138.0,96.4,0.545
7.36,31881.3,34677.9,-0.4728,-0.7925,138.0,96.4,0.545
7.38,32003.1,35000.3,0.0075,-0.0006,138.0,96.4,0.545
7.4,32110.0,35420.0,0.429,1.0306,138.0,96.4,0.545
7.42,32330.6,35673.0,1.2996,1.6523,138.0,96.4,0.545
7.44,32354.0,35725.9,1.3919,1.7822,138.0,96.4,0.545
7.46,32341.5,35583.1,1.3425,1.4313,138.0,96.4,0.545
7.48,32313.8,35545.7,1.2332,1.3394,138.0,96.4,0.545
7.5,32167.3,35446.8,0.6553,1.0965,138.0,96.4,0.545
7.52,32144.0,35182.5,0.5634,0.447,138.0,96.4,0.545
7.54,32102.4,35167.9,0.399,0.4113,138.0,96.4,0.545
7.56,32003.6,35045.3,0.0096,0.11,138.0,96.4,0.545
7.58,32074.7,34998.6,0.2897,-0.0048,138.0,96.4,0.545
7.6,31992.7,34943.8,-0.0334,-0.1394,138.0,96.4,0.545
7.62,31856.7,34912.6,-0.57,-0.216,138.0,96.4,0.545
7.64,31918.4,34832.2,-0.3267,-0.4136,138.0,96.4,0.545
7.66,31831.2,34656.3,-0.6705,-0.8457,138.0,96.4,0.545
7.68,31811.3,34647.4,-0.7492,-0.8674,138.0,96.4,0.545
7.7,31923.7,34605.2,-0.3056,-0.9713,138.0,96.4,0.545
7.72,31786.5,34543.1,-0.8471,-1.1238,138.0,96.4,0.545
7.74,31835.2,34482.1,-0.6549,-1.2736,138.0,96.4,0.545
7.76,31705.3,34416.8,-1.1671,-1.4341,138.0,96.4,0.545
7.78,31797.9,34512.9,-0.8019,-1.198,138.0,96.4,0.545
7.8,31799.4,34722.8,-0.7962,-0.6823,138.0,96.4,0.545
7.82,32033.7,35024.5,0.1282,0.0588,138.0,96.4,0.545
7.84,32193.3,35477.5,0.7579,1.1717,138.0,96.4,0.545
7.86,32366.9,35726.3,1.4424,1.7832,138.0,96.4,0.545
7.88,32445.1,35914.5,1.7509,2.2455,138.0,96.4,0.545
7.9,32392.8,35599.9,1.5446,1.4725,138.0,96.4,0.545
7.92,32226.3,35504.1,0.888,1.2372,138.0,96.4,0.545
7.94,32058.2,35214.9,0.2247,0.5267,138.0,96.4,0.545
7.96,32134.9,35234.5,0.5273,0.5747,138.0,96.4,0.545
7.98,32030.8,35131.0,0.1168,0.3205,138.0,96.4,0.545
8.0,32015.7,35071.5,0.0573,0.1744,138.0,96.4,0.545
8.02,32003.2,35039.3,0.0079,0.0954,138.0,96.4,0.545
8.04,32019.3,34900.2,0.0714,-0.2465,138.0,96.4,0.545
8.06,31801.0,34770.3,-0.7896,-0.5656,138.0,96.4,0.545
8.08,31904.0,34791.8,-0.3833,-0.5128,138.0,96.4,0.545
8.1,31889.4,34631.7,-0.4412,-0.9062,138.0,96.4,0.545
8.12,31880.7,34664.6,-0.4752,-0.8253,138.0,96.4,0.545
8.14,31835.5,34700.4,-0.6538,-0.7373,138.0,96.4,0.545
8.16,31764.7,34549.0,-0.9328,-1.1093,138.0,96.4,0.545
8.18,31706.6,34452.0,-1.1622,-1.3477,138.0,96.4,0.545
8.2,31701.8,34474.9,-1.181,-1.2913,138.0,96.4,0.545
8.22,31765.2,34633.5,-0.931,-0.9017,138.0,96.4,0.545
8.24,31898.4,34874.9,-0.4053,-0.3086,138.0,96.4,0.545
8.26,32026.1,35222.8,0.0981,0.5461,138.0,96.4,0.545
8.28,32205.3,35494.9,0.8052,1.2145,138.0,96.4,0.545
8.3,32390.5,35785.9,1.5356,1.9296,138.0,96.4,0.545
8.32,32333.5,35728.7,1.3109,1.7889,138.0,96.4,0.545
8.34,32283.2,35584.3,1.1123,1.4342,138.0,96.4,0.545
8.36,32246.9,35465.8,0.9691,1.1432,138.0,96.4,0.545
8.38,32125.3,35254.2,0.4894,0.6233,138.0,96.4,0.545
8.4,32015.8,35141.1,0.0574,0.3453,138.0,96.4,0.545
8.42,32072.3,35155.6,0.2806,0.3809,138.0,96.4,0.545
8.44,32075.8,35119.8,0.2943,0.2931,138.0,96.4,0.545
8.46,31964.0,34939.8,-0.1467,-0.1493,138.0,96.4,0.545
8.48,31936.5,34869.2,-0.2553,-0.3227,138.0,96.4,0.545
8.5,31969.3,34813.0,-0.1258,-0.4607,138.0,96.4,0.545
8.52,31861.0,34755.1,-0.5531,-0.6029,138.0,96.4,0.545
8.54,31882.1,34692.4,-0.4698,-0.757,138.0,96.4,0.545
8.56,31856.3,34702.1,-0.5715,-0.7332,138.0,96.4,0.545
8.58,31813.2,34614.8,-0.7417,-0.9477,138.0,96.4,0.545
8.6,31787.3,34551.5,-0.8437,-1.1032,138.0,96.4,0.545
8.62,31825.5,34456.6,-0.6931,-1.3363,138.0,96.4,0.545
8.64,31733.2,34407.6,-1.0572,-1.4568,138.0,96.4,0.545
8.66,31780.1,34563.6,-0.8721,-1.0734,138.0,96.4,0.545
8.68,31873.6,34957.0,-0.5035,-0.1069,138.0,96.4,0.545
8.7,32172.3,35314.5,0.6748,0.7713,138.0,96.4,0.545
8.72,32361.6,35479.0,1.4216,1.1756,138.0,96.4,0.545
8.74,32382.8,35755.7,1.5053,1.8552,138.0,96.4,0.545
8.76,32367.1,35785.0,1.4432,1.9274,138.0,96.4,0.545
8.78,32272.1,35603.2,1.0687,1.4806,138.0,96.4,0.545
8.8,32293.5,35328.4,1.153,0.8055,138.0,96.4,0.545
8.82,32106.9,35185.0,0.4171,0.4531,138.0,96.4,0.545
8.84,32142.7,35078.1,0.5583,0.1905,138.0,96.4,0.545
8.86,32061.4,35091.4,0.2373,0.2232,138.0,96.4,0.545
8.88,31950.3,35095.3,-0.2006,0.2328,138.0,96.4,0.545
8.9,31933.4,34996.5,-0.2675,-0.0099,138.0,96.4,0.545
8.92,31975.2,34762.6,-0.1027,-0.5845,138.0,96.4,0.545
8.94,31918.1,34752.5,-0.3279,-0.6094,138.0,96.4,0.545
8.96,31810.7,34733.0,-0.7516,-0.6572,138.0,96.4,0.545
8.98,31907.2,34687.9,-0.3709,-0.7681,138.0,96.4,0.545
9.0,31856.7,34698.4,-0.57,-0.7422,138.0,96.4,0.545
9.02,31854.1,34679.6,-0.5802,-0.7886,138.0,96.4,0.545
9.04,31797.7,34433.7,-0.8027,-1.3926,138.0,96.4,0.545
9.06,31709.2,34392.0,-1.152,-1.495,138.0,96.4,0.545
9.08,31791.4,34402.0,-0.8276,-1.4705,138.0,96.4,0.545
9.1,31868.2,34695.1,-0.5248,-0.7503,138.0,96.4,0.545
9.12,32110.8,35057.3,0.4323,0.1396,138.0,96.4,0.545
9.14,32158.0,35306.9,0.6187,0.7527,138.0,96.4,0.545
9.16,32337.5,35711.1,1.3266,1.7457,138.0,96.4,0.545
9.18,32336.6,35740.2,1.3229,1.8174,138.0,96.4,0.545
9.2,32240.7,35762.2,0.9447,1.8712,138.0,96.4,0.545
9.22,32340.2,35641.7,1.3371,1.5753,138.0,96.4,0.545
9.24,32199.1,35372.6,0.7808,0.9141,138.0,96.4,0.545
9.26,32112.5,35196.0,0.4392,0.4802,138.0,96.4,0.545
9.28,32039.8,35072.6,0.1523,0.177,138.0,96.4,0.545
9.3,31994.7,35110.0,-0.0255,0.269,138.0,96.4,0.545
9.32,32015.8,35025.8,0.0575,0.0622,138.0,96.4,0.545
9.34,31964.6,34916.0,-0.1445,-0.2075,138.0,96.4,0.545
9.36,31947.5,34847.3,-0.2117,-0.3764,138.0,96.4,0.545
9.38,31868.0,34721.7,-0.5256,-0.6851,138.0,96.4,0.545
9.4,31822.0,34614.8,-0.7068,-0.9477,138.0,96.4,0.545
9.42,31876.6,34670.9,-0.4915,-0.8097,138.0,96.4,0.545
9.44,31932.7,34653.1,-0.2704,-0.8535,138.0,96.4,0.545
9.46,31784.1,34588.7,-0.8565,-1.0117,138.0,96.4,0.545
9.48,31800.9,34435.8,-0.7902,-1.3873,138.0,96.4,0.545
9.5,31712.3,34335.3,-1.1396,-1.6344,138.0,96.4,0.545
9.52,31716.6,34490.2,-1.1226,-1.2538,138.0,96.4,0.545
9.54,31926.7,34723.3,-0.2937,-0.6811,138.0,96.4,0.545
9.56,32058.5,35143.5,0.2262,0.3513,138.0,96.4,0.545
9.58,32234.5,35445.1,0.9201,1.0922,138.0,96.4,0.545
9.6,32376.3,35717.5,1.4796,1.7614,138.0,96.4,0.545
9.62,32406.5,35811.5,1.5986,1.9923,138.0,96.4,0.545
9.64,32294.0,35668.4,1.1548,1.641,138.0,96.4,0.545
9.66,32218.6,35387.6,0.8576,0.951,138.0,96.4,0.545
9.68,32034.6,35280.0,0.1318,0.6867,138.0,96.4,0.545
9.7,32136.5,35159.6,0.5337,0.3909,138.0,96.4,0.545
9.72,32018.6,35029.0,0.0685,0.0701,138.0,96.4,0.545
9.74,31991.5,35007.9,-0.0383,0.0181,138.0,96.4,0.545
9.76,32028.7,35071.8,0.1086,0.175,138.0,96.4,0.545
9.78,31889.2,34946.0,-0.442,-0.134,138.0,96.4,0.545
9.8,31835.2,34766.6,-0.6549,-0.5747,138.0,96.4,0.545
9.82,31801.8,34668.1,-0.7865,-0.8167,138.0,96.4,0.545
9.84,31820.6,34770.1,-0.7125,-0.5661,138.0,96.4,0.545
9.86,31897.9,34649.7,-0.4074,-0.8618,138.0,96.4,0.545
9.88,31835.8,34601.0,-0.6523,-0.9817,138.0,96.4,0.545
9.9,31770.0,34576.8,-0.9122,-1.0411,138.0,96.4,0.545
9.92,31683.4,34572.4,-1.2538,-1.0518,138.0,96.4,0.545
9.94,31749.9,34531.3,-0.9915,-1.1529,138.0,96.4,0.545
9.96,31808.3,34496.2,-0.7609,-1.239,138.0,96.4,0.545
9.98,31986.0,34919.4,-0.0599,-0.1994,138.0,96.4,0.545
10.0,32053.9,35251.0,0.2078,0.6154,138.0,96.4,0.545
10.02,32210.9,35548.7,0.8272,1.3468,138.0,96.4,0.545
10.04,32270.6,35758.7,1.0626,1.8626,138.0,96.4,0.545
10.06,32341.1,35820.6,1.341,2.0149,138.0,96.4,0.545
10.08,32319.5,35567.3,1.2555,1.3924,138.0,96.4,0.545
10.1,32194.5,35415.0,0.7625,1.0182,138.0,96.4,0.545
10.12,32115.7,35337.2,0.4517,0.8272,138.0,96.4,0.545
10.14,32117.7,35220.5,0.4597,0.5405,138.0,96.4,0.545
10.16,32089.9,35059.5,0.3499,0.145,138.0,96.4,0.545
10.18,31998.9,35066.5,-0.0089,0.1621,138.0,96.4,0.545
10.2,31944.9,35050.6,-0.2223,0.1229,138.0,96.4,0.545
10.22,32015.1,34795.0,0.0549,-0.5049,138.0,96.4,0.545
10.24,31833.7,34821.5,-0.6608,-0.4397,138.0,96.4,0.545
10.26,31784.5,34756.2,-0.8547,-0.6002,138.0,96.4,0.545
10.28,31874.5,34694.3,-0.4996,-0.7525,138.0,96.4,0.545
10.3,31785.7,34639.9,-0.8499,-0.886,138.0,96.4,0.545
10.32,31891.5,34566.7,-0.4326,-1.0658,138.0,96.4,0.545
10.34,31709.5,34575.4,-1.1508,-1.0443,138.0,96.4,0.545
10.36,31750.5,34406.1,-0.9889,-1.4604,138.0,96.4,0.545
10.38,31732.9,34456.1,-1.0583,-1.3376,138.0,96.4,0.545
10.4,31864.4,34627.2,-0.5396,-0.9172,138.0,96.4,0.545
10.42,31956.0,34934.9,-0.1783,-0.1612,138.0,96.4,0.545
10.44,32154.1,35283.6,0.6033,0.6954,138.0,96.4,0.545
10.46,32187.4,35605.5,0.7344,1.4863,138.0,96.4,0.545
10.48,32313.5,35767.5,1.2319,1.8843,138.0,96.4,0.545
10.5,32394.7,35706.1,1.5523,1.7334,138.0,96.4,0.545
10.52,32325.5,35628.8,1.2794,1.5437,138.0,96.4,0.545
10.54,32172.7,35349.4,0.6763,0.8572,138.0,96.4,0.545
10.56,32075.3,35266.4,0.2924,0.6531,138.0,96.4,0.545
10.58,32078.5,35153.0,0.3048,0.3746,138.0,96.4,0.545
10.6,32009.1,35099.7,0.0312,0.2437,138.0,96.4,0.545
10.62,31922.3,35050.7,-0.3113,0.1232,138.0,96.4,0.545
10.64,31940.4,34848.5,-0.24,-0.3735,138.0,96.4,0.545
10.66,31896.7,34838.1,-0.4121,-0.399,138.0,96.4,0.545
10.68,31886.1,34714.3,-0.454,-0.7032,138.0,96.4,0.545
10.7,31885.1,34615.4,-0.458,-0.9463,138.0,96.4,0.545
10.72,31900.5,34641.8,-0.3972,-0.8813,138.0,96.4,0.545
10.74,31852.3,34735.2,-0.5876,-0.6518,138.0,96.4,0.545
10.76,31842.1,34599.6,-0.6276,-0.985,138.0,96.4,0.545
10.78,31809.3,34513.0,-0.7568,-1.1977,138.0,96.4,0.545
10.8,31688.6,34570.3,-1.2332,-1.057,138.0,96.4,0.545
10.82,31759.0,34447.1,-0.9554,-1.3595,138.0,96.4,0.545
10.84,31868.9,34667.7,-0.5219,-0.8178,138.0,96.4,0.545
10.86,31942.8,35004.4,-0.2305,0.0096,138.0,96.4,0.545
10.88,32166.0,35337.1,0.65,0.8268,138.0,96.4,0.545
10.9,32309.5,35699.5,1.216,1.7172,138.0,96.4,0.545
10.92,32409.8,35704.2,1.6118,1.7288,138.0,96.4,0.545
10.94,32325.8,35714.0,1.2803,1.7529,138.0,96.4,0.545
10.96,32210.6,35497.7,0.8259,1.2214,138.0,96.4,0.545
10.98,32245.1,35227.7,0.9622,0.5582,138.0,96.4,0.545
11.0,32172.4,35185.8,0.6752,0.4552,138.0,96.4,0.545
11.02,32068.7,35255.0,0.2662,0.6252,138.0,96.4,0.545
11.04,31995.8,35146.3,-0.0211,0.3583,138.0,96.4,0.545
11.06,32008.0,34945.1,0.0267,-0.1362,138.0,96.4,0.545
11.08,32105.6,34885.6,0.4119,-0.2824,138.0,96.4,0.545
11.1,31894.4,34736.9,-0.4214,-0.6476,138.0,96.4,0.545
11.12,31872.0,34777.1,-0.5097,-0.5489,138.0,96.4,0.545
11.14,31836.5,34640.4,-0.6497,-0.8848,138.0,96.4,0.545
11.16,31859.7,34656.6,-0.5584,-0.8449,138.0,96.4,0.545
11.18,31761.7,34674.5,-0.9446,-0.801,138.0,96.4,0.545
11.2,31712.1,34496.4,-1.1404,-1.2384,138.0,96.4,0.545
11.22,31742.7,34492.3,-1.0197,-1.2487,138.0,96.4,0.545
11.24,31715.0,34472.9,-1.1289,-1.2964,138.0,96.4,0.545
11.26,31777.0,34557.9,-0.8844,-1.0874,138.0,96.4,0.545
11.28,31866.0,34772.6,-0.5335,-0.56,138.0,96.4,0.545
11.3,32074.7,35128.6,0.2899,0.3146,138.0,96.4,0.545
11.32,32277.0,35461.8,1.0881,1.1332,138.0,96.4,0.545
11.34,32378.5,35677.2,1.4884,1.6626,138.0,96.4,0.545
11.36,32412.7,35796.1,1.6232,1.9545,138.0,96.4,0.545
11.38,32305.6,35696.3,1.2007,1.7094,138.0,96.4,0.545
11.4,32221.4,35509.0,0.8686,1.2493,138.0,96.4,0.545
11.42,32078.9,35187.1,0.3064,0.4584,138.0,96.4,0.545
11.44,32028.2,35110.4,0.1067,0.27,138.0,96.4,0.545
11.46,32043.7,35045.1,0.1676,0.1094,138.0,96.4,0.545
11.48,31989.6,35054.0,-0.0456,0.1315,138.0,96.4,0.545
11.5,32090.9,35020.7,0.3537,0.0495,138.0,96.4,0.545
11.52,31865.2,34863.3,-0.5366,-0.3372,138.0,96.4,0.545
11.54,31859.4,34777.2,-0.5593,-0.5486,138.0,96.4,0.545
11.56,31854.0,34722.4,-0.5805,-0.6833,138.0,96.4,0.545
11.58,31855.4,34715.4,-0.5751,-0.7004,138.0,96.4,0.545
11.6,31839.4,34730.9,-0.6382,-0.6625,138.0,96.4,0.545
11.62,31756.8,34678.1,-0.964,-0.792,138.0,96.4,0.545
11.64,31772.5,34571.5,-0.902,-1.054,138.0,96.4,0.545
11.66,31692.9,34378.6,-1.2161,-1.5278,138.0,96.4,0.545
11.68,31662.5,34419.2,-1.3362,-1.4283,138.0,96.4,0.545
11.7,31838.6,34658.1,-0.6414,-0.8413,138.0,96.4,0.545
11.72,31963.9,34880.1,-0.1472,-0.2959,138.0,96.4,0.545
11.74,32102.7,35258.3,0.4003,0.6333,138.0,96.4,0.545
11.76,32275.1,35592.9,1.0804,1.4555,138.0,96.4,0.545
11.78,32440.0,35709.4,1.7308,1.7415,138.0,96.4,0.545
11.8,32364.5,35656.2,1.433,1.6108,138.0,96.4,0.545
11.82,32329.4,35539.2,1.2947,1.3235,138.0,96.4,0.545
11.84,32245.9,35505.4,0.9653,1.2404,138.0,96.4,0.545
11.86,32115.5,35152.1,0.4509,0.3723,138.0,96.4,0.545
11.88,32126.5,35209.2,0.4944,0.5126,138.0,96.4,0.545
11.9,31995.8,35051.7,-0.0213,0.1258,138.0,96.4,0.545
11.92,31972.0,35069.2,-0.115,0.1687,138.0,96.4,0.545
11.94,31926.3,34980.2,-0.2955,-0.05,138.0,96.4,0.545
11.96,31984.0,34821.3,-0.0679,-0.4403,138.0,96.4,0.545
11.98,31989.9,34818.5,-0.0445,-0.4472,138.0,96.4,0.545
12.0,31815.2,34756.2,-0.7337,-0.6004,138.0,96.4,0.545
12.02,31819.7,34672.2,-0.7159,-0.8067,138.0,96.4,0.545
12.04,31796.7,34615.4,-0.8066,-0.9463,138.0,96.4,0.545
12.06,31827.9,34572.8,-0.6838,-1.0508,138.0,96.4,0.545
12.08,31825.3,34500.5,-0.6938,-1.2284,138.0,96.4,0.545
12.1,31683.4,34493.0,-1.2535,-1.247,138.0,96.4,0.545
12.12,31723.9,34455.1,-1.0937,-1.3399,138.0,96.4,0.545
12.14,31850.5,34714.6,-0.5945,-0.7025,138.0,96.4,0.545
12.16,31983.3,35012.2,-0.0706,0.0287,138.0,96.4,0.545
12.18,32237.7,35261.4,0.933,0.6408,138.0,96.4,0.545
12.2,32248.3,35577.1,0.9748,1.4166,138.0,96.4,0.545
12.22,32407.3,35712.4,1.602,1.749,138.0,96.4,0.545
12.24,32279.7,35745.7,1.0986,1.8309,138.0,96.4,0.545
12.26,32363.6,35476.6,1.4296,1.1697,138.0,96.4,0.545
12.28,32188.5,35370.3,0.7388,0.9084,138.0,96.4,0.545
12.3,32073.1,35261.3,0.2836,0.6408,138.0,96.4,0.545
12.32,32069.8,35134.8,0.2708,0.3298,138.0,96.4,0.545
12.34,32078.4,35095.9,0.3045,0.2343,138.0,96.4,0.545
12.36,32058.6,35117.8,0.2264,0.2881,138.0,96.4,0.545
12.38,32032.7,34962.0,0.1243,-0.0947,138.0,96.4,0.545
12.4,31911.1,34791.3,-0.3553,-0.5141,138.0,96.4,0.545
12.42,31904.4,34670.8,-0.3819,-0.81,138.0,96.4,0.545
12.44,31812.4,34592.1,-0.7446,-1.0034,138.0,96.4,0.545
12.46,31752.2,34719.0,-0.9823,-0.6915,138.0,96.4,0.545
12.48,31905.2,34645.4,-0.3787,-0.8724,138.0,96.4,0.545
12.5,31905.0,34596.3,-0.3796,-0.993,138.0,96.4,0.545
12.52,31750.4,34433.5,-0.9895,-1.3932,138.0,96.4,0.545
12.54,31706.4,34416.8,-1.1629,-1.434,138.0,96.4,0.545
12.56,31792.6,34503.0,-0.8227,-1.2223,138.0,96.4,0.545
12.58,31817.2,34714.3,-0.7257,-0.7031,138.0,96.4,0.545
12.6,31946.0,35024.8,-0.2176,0.0597,138.0,96.4,0.545
12.62,32200.5,35368.1,0.7863,0.9031,138.0,96.4,0.545
12.64,32285.1,35720.7,1.1201,1.7694,138.0,96.4,0.545
12.66,32415.1,35754.8,1.6326,1.8532,138.0,96.4,0.545
12.68,32341.6,35663.8,1.3428,1.6296,138.0,96.4,0.545
12.7,32341.4,35498.2,1.3418,1.2228,138.0,96.4,0.545
12.72,32242.6,35307.1,0.9521,0.7533,138.0,96.4,0.545
12.74,32083.2,35204.0,0.3236,0.4999,138.0,96.4,0.545
12.76,32101.3,35117.4,0.3949,0.2872,138.0,96.4,0.545
12.78,32015.9,34977.4,0.0578,-0.0569,138.0,96.4,0.545
12.8,32003.5,35043.6,0.0089,0.1058,138.0,96.4,0.545
12.82,32048.0,34849.4,0.1847,-0.3712,138.0,96.4,0.545
12.84,31851.1,34844.5,-0.592,-0.3834,138.0,96.4,0.545
12.86,31850.0,34742.2,-0.5964,-0.6347,138.0,96.4,0.545
12.88,31943.2,34614.7,-0.229,-0.9479,138.0,96.4,0.545
12.9,31804.5,34562.9,-0.7761,-1.0753,138.0,96.4,0.545
12.92,31713.1,34614.3,-1.1365,-0.9489,138.0,96.4,0.545
12.94,31762.2,34575.1,-0.9427,-1.0453,138.0,96.4,0.545
12.96,31730.0,34387.7,-1.0697,-1.5057,138.0,96.4,0.545
12.98,31768.8,34473.6,-0.9166,-1.2945,138.0,96.4,0.545
13.0,31736.6,34548.4,-1.0439,-1.1109,138.0,96.4,0.545
13.02,31846.4,34756.6,-0.6106,-0.5993,138.0,96.4,0.545
13.04,32054.2,35213.8,0.2091,0.524,138.0,96.4,0.545
13.06,32182.5,35420.3,0.7154,1.0314,138.0,96.4,0.545
13.08,32284.2,35652.3,1.1163,1.6014,138.0,96.4,0.545
13.1,32424.6,35694.9,1.6701,1.7059,138.0,96.4,0.545
13.12,32271.1,35696.3,1.0645,1.7093,138.0,96.4,0.545
13.14,32267.1,35440.4,1.0489,1.0807,138.0,96.4,0.545
13.16,32133.9,35346.2,0.5235,0.8492,138.0,96.4,0.545
13.18,31975.2,35165.8,-0.1028,0.406,138.0,96.4,0.545
13.2,32081.6,35071.6,0.3172,0.1747,138.0,96.4,0.545
13.22,32028.9,35062.8,0.1094,0.153,138.0,96.4,0.545
13.24,31886.0,34944.3,-0.4546,-0.1382,138.0,96.4,0.545
13.26,31972.2,34817.8,-0.1144,-0.4489,138.0,96.4,0.545
13.28,31876.0,34771.6,-0.4938,-0.5623,138.0,96.4,0.545
13.3,31784.5,34708.2,-0.8549,-0.7181,138.0,96.4,0.545
13.32,31932.6,34665.8,-0.2705,-0.8225,138.0,96.4,0.545
13.34,31850.8,34592.2,-0.5934,-1.0032,138.0,96.4,0.545
13.36,31830.8,34664.2,-0.6721,-0.8262,138.0,96.4,0.545
13.38,31757.5,34519.0,-0.9614,-1.183,138.0,96.4,0.545
13.4,31832.3,34486.2,-0.6663,-1.2636,138.0,96.4,0.545
13.42,31733.4,34458.2,-1.0563,-1.3324,138.0,96.4,0.545
13.44,31783.3,34606.5,-0.8597,-0.9681,138.0,96.4,0.545
13.46,31980.6,34859.8,-0.0812,-0.3458,138.0,96.4,0.545
13.48,32074.7,35161.7,0.2898,0.3959,138.0,96.4,0.545
13.5,32199.4,35536.0,0.7817,1.3156,138.0,96.4,0.545
13.52,32398.9,35709.4,1.5687,1.7415,138.0,96.4,0.545
13.54,32399.3,35788.6,1.5703,1.9362,138.0,96.4,0.545
13.56,32187.9,35682.3,0.7364,1.675,138.0,96.4,0.545
13.58,32209.9,35378.1,0.8234,0.9278,138.0,96.4,0.545
13.6,32086.1,35189.1,0.3351,0.4632,138.0,96.4,0.545
13.62,32057.9,35096.3,0.2237,0.2353,138.0,96.4,0.545
13.64,32000.1,35072.2,-0.0042,0.1762,138.0,96.4,0.545
13.66,32023.7,35046.8,0.0889,0.1137,138.0,96.4,0.545
13.68,31969.4,35016.5,-0.1253,0.0391,138.0,96.4,0.545
13.7,31964.7,34823.5,-0.1441,-0.435,138.0,96.4,0.545
13.72,31906.9,34720.3,-0.3719,-0.6885,138.0,96.4,0.545
13.74,31824.3,34713.1,-0.698,-0.7062,138.0,96.4,0.545
13.76,31792.1,34757.3,-0.8248,-0.5975,138.0,96.4,0.545
13.78,31819.9,34612.1,-0.7154,-0.9543,138.0,96.4,0.545
13.8,31774.9,34574.1,-0.8927,-1.0476,138.0,96.4,0.545
13.82,31768.9,34509.4,-0.9163,-1.2065,138.0,96.4,0.545
13.84,31730.9,34502.8,-1.0662,-1.2228,138.0,96.4,0.545
13.86,31701.6,34488.3,-1.1817,-1.2585,138.0,96.4,0.545
13.88,31870.8,34702.5,-0.5145,-0.7321,138.0,96.4,0.545
13.9,31956.9,34920.6,-0.1746,-0.1965,138.0,96.4,0.545
13.92,32228.2,35334.6,0.8954,0.8208,138.0,96.4,0.545
13.94,32213.0,35575.8,0.8355,1.4135,138.0,96.4,0.545
13.96,32396.9,35759.8,1.5611,1.8655,138.0,96.4,0.545
13.98,32325.1,35603.1,1.2778,1.4805,138.0,96.4,0.545
14.0,32265.2,35527.5,1.0415,1.2946,138.0,96.4,0.545
14.02,32132.4,35368.1,0.5177,0.9031,138.0,96.4,0.545
14.04,32174.3,35196.6,0.6827,0.4817,138.0,96.4,0.545
14.06,32135.8,35196.9,0.531,0.4825,138.0,96.4,0.545
14.08,32052.6,35188.8,0.2027,0.4625,138.0,96.4,0.545
14.1,32000.9,34982.9,-0.0014,-0.0433,138.0,96.4,0.545
14.12,32038.3,34926.2,0.1464,-0.1826,138.0,96.4,0.545
14.14,31918.2,34793.8,-0.3275,-0.5079,138.0,96.4,0.545
14.16,31874.4,34795.3,-0.5001,-0.5041,138.0,96.4,0.545
14.18,31944.7,34670.8,-0.2231,-0.8101,138.0,96.4,0.545
14.2,31800.0,34635.7,-0.7936,-0.8963,138.0,96.4,0.545
14.22,31727.8,34631.1,-1.0787,-0.9077,138.0,96.4,0.545
14.24,31788.7,34583.1,-0.8384,-1.0255,138.0,96.4,0.545
14.26,31731.2,34445.5,-1.0652,-1.3636,138.0,96.4,0.545
14.28,31723.5,34403.1,-1.0954,-1.4678,138.0,96.4,0.545
14.3,31741.9,34452.4,-1.0228,-1.3466,138.0,96.4,0.545
14.32,31815.3,34746.6,-0.7334,-0.6239,138.0,96.4,0.545
14.34,32007.2,35113.8,0.0235,0.2783,138.0,96.4,0.545
14.36,32182.1,35383.3,0.7134,0.9404,138.0,96.4,0.545
14.38,32347.4,35633.4,1.3656,1.5549,138.0,96.4,0.545
14.4,32327.4,35772.8,1.2866,1.8973,138.0,96.4,0.545
14.42,32324.2,35581.8,1.274,1.4282,138.0,96.4,0.545
14.44,32342.4,35518.1,1.3461,1.2716,138.0,96.4,0.545
14.46,32163.5,35360.2,0.6403,0.8836,138.0,96.4,0.545
14.48,32106.0,35148.1,0.4133,0.3625,138.0,96.4,0.545
14.5,32053.8,35090.0,0.2077,0.2199,138.0,96.4,0.545
14.52,32032.8,35083.4,0.1245,0.2037,138.0,96.4,0.545
14.54,31924.1,34995.6,-0.304,-0.012,138.0,96.4,0.545
14.56,31949.9,34947.4,-0.2023,-0.1305,138.0,96.4,0.545
14.58,31871.0,34818.4,-0.5135,-0.4475,138.0,96.4,0.545
14.6,31885.0,34617.6,-0.4583,-0.9407,138.0,96.4,0.545
14.62,31822.3,34643.7,-0.7059,-0.8767,138.0,96.4,0.545
14.64,31786.0,34579.9,-0.849,-1.0334,138.0,96.4,0.545
14.66,31708.6,34708.5,-1.1543,-0.7173,138.0,96.4,0.545
14.68,31826.9,34571.2,-0.6876,-1.0549,138.0,96.4,0.545
14.7,31739.1,34501.7,-1.0341,-1.2256,138.0,96.4,0.545
14.72,31715.9,34400.2,-1.1256,-1.4749,138.0,96.4,0.545
14.74,31758.4,34521.1,-0.9577,-1.1777,138.0,96.4,0.545
14.76,31913.4,34812.4,-0.3463,-0.4621,138.0,96.4,0.545
14.78,32078.4,35226.4,0.3047,0.555,138.0,96.4,0.545
14.8,32290.0,35531.1,1.1392,1.3034,138.0,96.4,0.545
14.82,32374.2,35744.3,1.4713,1.8274,138.0,96.4,0.545
14.84,32430.5,35751.5,1.6933,1.845,138.0,96.4,0.545
14.86,32375.9,35683.2,1.478,1.6773,138.0,96.4,0.545
14.88,32235.8,35404.6,0.9255,0.9928,138.0,96.4,0.545
14.9,32105.3,35269.6,0.4108,0.661,138.0,96.4,0.545
14.92,32127.4,35140.4,0.4977,0.3436,138.0,96.4,0.545
14.94,32014.7,35074.3,0.0532,0.1812,138.0,96.4,0.545
14.96,31949.4,34980.3,-0.2043,-0.0497,138.0,96.4,0.545
14.98,31930.4,34868.7,-0.2792,-0.3238,138.0,96.4,0.545
15.0,31911.0,34733.4,-0.3559,-0.6562,138.0,96.4,0.545
15.02,31982.6,34722.1,-0.0733,-0.6839,138.0,96.4,0.545
15.04,31880.9,34650.5,-0.4746,-0.86,138.0,96.4,0.545
15.06,31879.8,34661.9,-0.4788,-0.832,138.0,96.4,0.545
15.08,31829.8,34602.1,-0.676,-0.9788,138.0,96.4,0.545
15.1,31858.4,34743.7,-0.5633,-0.6309,138.0,96.4,0.545
15.12,31721.4,34532.6,-1.1037,-1.1497,138.0,96.4,0.545
15.14,31790.7,34436.0,-0.8305,-1.387,138.0,96.4,0.545
15.16,31749.0,34522.1,-0.995,-1.1753,138.0,96.4,0.545
15.18,31686.2,34537.3,-1.2428,-1.1379,138.0,96.4,0.545
15.2,31940.7,34911.9,-0.2385,-0.2178,138.0,96.4,0.545
15.22,32097.2,35268.1,0.3785,0.6573,138.0,96.4,0.545
15.24,32278.8,35515.3,1.0951,1.2647,138.0,96.4,0.545
15.26,32434.1,35781.1,1.7078,1.9176,138.0,96.4,0.545
15.28,32373.8,35763.9,1.4699,1.8754,138.0,96.4,0.545
15.3,32252.1,35632.5,0.9897,1.5527,138.0,96.4,0.545
15.32,32196.2,35415.6,0.7692,1.0197,138.0,96.4,0.545
15.34,32125.6,35209.7,0.4909,0.514,138.0,96.4,0.545
15.36,32095.2,35156.9,0.3706,0.3843,138.0,96.4,0.545
15.38,32018.6,35148.7,0.0687,0.3641,138.0,96.4,0.545
15.4,31982.7,35051.1,-0.0728,0.1242,138.0,96.4,0.545
15.42,31947.3,34966.1,-0.2127,-0.0845,138.0,96.4,0.545
15.44,31877.3,34920.2,-0.4886,-0.1974,138.0,96.4,0.545
15.46,31817.8,34765.5,-0.7235,-0.5774,138.0,96.4,0.545
15.48,31862.0,34665.5,-0.5493,-0.823,138.0,96.4,0.545
15.5,31780.8,34601.9,-0.8695,-0.9794,138.0,96.4,0.545
15.52,31903.9,34578.3,-0.3837,-1.0372,138.0,96.4,0.545
15.54,31874.4,34589.9,-0.5004,-1.0088,138.0,96.4,0.545
15.56,31795.4,34555.3,-0.812,-1.0938,138.0,96.4,0.545
15.58,31748.3,34446.5,-0.9978,-1.3612,138.0,96.4,0.545
15.6,31607.2,34543.1,-1.5543,-1.1238,138.0,96.4,0.545
15.62,31819.9,34644.6,-0.7153,-0.8743,138.0,96.4,0.545
15.64,31993.0,34940.2,-0.0322,-0.1482,138.0,96.4,0.545
15.66,32229.5,35355.1,0.9004,0.8712,138.0,96.4,0.545
15.68,32247.0,35547.5,0.9697,1.3437,138.0,96.4,0.545
15.7,32412.5,35715.1,1.6224,1.7557,138.0,96.4,0.545
15.72,32397.4,35623.0,1.5629,1.5292,138.0,96.4,0.545
15.74,32292.6,35584.8,1.1497,1.4354,138.0,96.4,0.545
15.76,32142.4,35334.2,0.557,0.8199,138.0,96.4,0.545
15.78,32119.9,35182.7,0.4681,0.4476,138.0,96.4,0.545
15.8,32032.9,35123.6,0.1251,0.3024,138.0,96.4,0.545
15.82,32027.1,35081.5,0.102,0.1988,138.0,96.4,0.545
15.84,31896.2,34965.9,-0.4143,-0.0851,138.0,96.4,0.545
15.86,31950.5,35024.3,-0.2001,0.0583,138.0,96.4,0.545
15.88,31903.9,34821.9,-0.3839,-0.4389,138.0,96.4,0.545
15.9,31880.5,34756.8,-0.4763,-0.5987,138.0,96.4,0.545
15.92,31900.1,34812.3,-0.399,-0.4624,138.0,96.4,0.545
15.94,31832.6,34660.3,-0.665,-0.8359,138.0,96.4,0.545
15.96,31780.6,34711.9,-0.8703,-0.709,138.0,96.4,0.545
15.98,31754.1,34540.1,-0.9749,-1.1313,138.0,96.4,0.545
16.0,31839.3,34419.3,-0.6387,-1.428,138.0,96.4,0.545
16.02,31748.9,34440.9,-0.9954,-1.3748,138.0,96.4,0.545
16.04,31777.9,34439.9,-0.8809,-1.3773,138.0,96.4,0.545
16.06,31938.6,34797.7,-0.247,-0.4983,138.0,96.4,0.545
16.08,31997.0,35068.6,-0.0165,0.1674,138.0,96.4,0.545
16.1,32175.7,35462.2,0.6882,1.1343,138.0,96.4,0.545
16.12,32317.8,35714.3,1.2489,1.7536,138.0,96.4,0.545
16.14,32400.0,35811.7,1.5733,1.993,138.0,96.4,0.545
16.16,32309.2,35629.6,1.2148,1.5454,138.0,96.4,0.545
16.18,32203.5,35521.6,0.7982,1.2801,138.0,96.4,0.545
16.2,32102.4,35300.4,0.3992,0.7368,138.0,96.4,0.545
16.22,32087.3,35115.6,0.3396,0.2827,138.0,96.4,0.545
16.24,32077.0,35107.3,0.2991,0.2622,138.0,96.4,0.545
16.26,32074.3,35123.4,0.2882,0.302,138.0,96.4,0.545
16.28,32001.3,34968.5,0.0003,-0.0788,138.0,96.4,0.545
16.3,32013.9,34897.6,0.0499,-0.2528,138.0,96.4,0.545
16.32,32012.9,34806.2,0.0461,-0.4774,138.0,96.4,0.545
16.34,31891.1,34764.6,-0.4343,-0.5797,138.0,96.4,0.545
16.36,31809.4,34665.3,-0.7568,-0.8237,138.0,96.4,0.545
16.38,31772.9,34649.3,-0.9006,-0.8629,138.0,96.4,0.545
16.4,31851.4,34541.1,-0.591,-1.1286,138.0,96.4,0.545
16.42,31818.0,34640.6,-0.7227,-0.8842,138.0,96.4,0.545
16.44,31774.1,34435.7,-0.896,-1.3877,138.0,96.4,0.545
16.46,31721.7,34513.5,-1.1026,-1.1965,138.0,96.4,0.545
16.48,31803.3,34599.7,-0.7808,-0.9846,138.0,96.4,0.545
16.5,31840.3,34841.1,-0.6347,-0.3917,138.0,96.4,0.545
16.52,32076.6,35175.6,0.2973,0.4302,138.0,96.4,0.545
16.54,32289.0,35552.4,1.1352,1.3559,138.0,96.4,0.545
16.56,32288.1,35636.0,1.1318,1.5613,138.0,96.4,0.545
16.58,32454.2,35696.9,1.7869,1.7109,138.0,96.4,0.545
16.6,32350.9,35746.6,1.3795,1.8329,138.0,96.4,0.545
16.62,32223.7,35481.6,0.8776,1.1819,138.0,96.4,0.545
16.64,32123.5,35272.7,0.4823,0.6688,138.0,96.4,0.545
16.66,31955.7,35114.5,-0.1797,0.2801,138.0,96.4,0.545
16.68,32039.5,35052.0,0.151,0.1264,138.0,96.4,0.545
16.7,32001.8,35098.4,0.0024,0.2405,138.0,96.4,0.545
16.72,31937.2,34966.7,-0.2523,-0.0831,138.0,96.4,0.545
16.74,31939.1,34868.8,-0.2448,-0.3235,138.0,96.4,0.545
16.76,31837.0,34789.5,-0.6476,-0.5185,138.0,96.4,0.545
16.78,31819.0,34710.2,-0.7187,-0.7132,138.0,96.4,0.545
16.8,31803.7,34685.1,-0.779,-0.775,138.0,96.4,0.545
16.82,31788.0,34662.3,-0.8411,-0.831,138.0,96.4,0.545
16.84,31763.7,34602.3,-0.937,-0.9783,138.0,96.4,0.545
16.86,31746.6,34536.8,-1.0044,-1.1394,138.0,96.4,0.545
16.88,31753.8,34522.8,-0.976,-1.1736,138.0,96.4,0.545
16.9,31794.9,34456.4,-0.8137,-1.3368,138.0,96.4,0.545
16.92,31717.0,34612.7,-1.1209,-0.9528,138.0,96.4,0.545
16.94,31930.7,34820.0,-0.278,-0.4435,138.0,96.4,0.545
16.96,32164.2,35276.5,0.6431,0.6781,138.0,96.4,0.545
16.98,32287.5,35539.1,1.1293,1.3231,138.0,96.4,0.545
17.0,32325.0,35759.4,1.2774,1.8644,138.0,96.4,0.545
17.02,32368.5,35695.6,1.4488,1.7077,138.0,96.4,0.545
17.04,32252.3,35661.3,0.9906,1.6233,138.0,96.4,0.545
17.06,32157.7,35332.4,0.6173,0.8155,138.0,96.4,0.545
17.08,32113.9,35108.6,0.4447,0.2656,138.0,96.4,0.545
17.1,32122.9,35183.8,0.4801,0.4504,138.0,96.4,0.545
17.12,32108.9,35158.0,0.4247,0.387,138.0,96.4,0.545
17.14,31957.8,35063.0,-0.1713,0.1535,138.0,96.4,0.545
17.16,31963.5,34920.1,-0.1488,-0.1977,138.0,96.4,0.545
17.18,31905.0,34845.2,-0.3794,-0.3815,138.0,96.4,0.545
17.2,31905.1,34813.5,-0.379,-0.4594,138.0,96.4,0.545
17.22,31846.4,34767.5,-0.6106,-0.5725,138.0,96.4,0.545
17.24,31913.5,34724.2,-0.3461,-0.6788,138.0,96.4,0.545
17.26,31710.6,34628.1,-1.1465,-0.9149,138.0,96.4,0.545
17.28,31849.0,34658.4,-0.6005,-0.8404,138.0,96.4,0.545
17.3,31658.8,34563.0,-1.3509,-1.0749,138.0,96.4,0.545
17.32,31773.8,34511.1,-0.8972,-1.2023,138.0,96.4,0.545
17.34,31731.9,34481.1,-1.0622,-1.2762,138.0,96.4,0.545
17.36,31829.1,34666.1,-0.679,-0.8217,138.0,96.4,0.545
17.38,31999.1,35019.9,-0.0081,0.0476,138.0,96.4,0.545
17.4,32154.4,35418.7,0.6043,1.0275,138.0,96.4,0.545
17.42,32348.4,35646.1,1.3695,1.5861,138.0,96.4,0.545
17.44,32445.8,35738.0,1.7538,1.8118,138.0,96.4,0.545
17.46,32375.9,35717.1,1.478,1.7604,138.0,96.4,0.545
17.48,32209.2,35481.5,0.8207,1.1816,138.0,96.4,0.545
17.5,32072.4,35335.3,0.2807,0.8225,138.0,96.4,0.545
17.52,32103.9,35176.9,0.4051,0.4334,138.0,96.4,0.545
17.54,32142.8,35165.3,0.5585,0.4049,138.0,96.4,0.545
17.56,32079.9,35080.8,0.3103,0.1973,138.0,96.4,0.545
17.58,32011.4,35014.1,0.0402,0.0334,138.0,96.4,0.545
17.6,31985.5,34922.7,-0.0618,-0.1912,138.0,96.4,0.545
17.62,32050.8,34714.3,0.1958,-0.7031,138.0,96.4,0.545
17.64,31799.0,34762.6,-0.7977,-0.5845,138.0,96.4,0.545
17.66,31858.3,34667.2,-0.5637,-0.8189,138.0,96.4,0.545
17.68,31781.2,34667.0,-0.8678,-0.8194,138.0,96.4,0.545
17.7,31827.8,34605.6,-0.6841,-0.9702,138.0,96.4,0.545
17.72,31787.2,34596.7,-0.8444,-0.992,138.0,96.4,0.545
17.74,31773.6,34528.5,-0.8978,-1.1596,138.0,96.4,0.545
17.76,31696.9,34474.0,-1.2004,-1.2935,138.0,96.4,0.545
17.78,31756.8,34484.3,-0.9642,-1.2681,138.0,96.4,0.545
17.8,31892.8,34809.2,-0.4275,-0.47,138.0,96.4,0.545
17.82,32053.7,35031.1,0.2071,0.0751,138.0,96.4,0.545
17.84,32275.0,35469.4,1.0801,1.1519,138.0,96.4,0.545
17.86,32424.0,35737.0,1.668,1.8093,138.0,96.4,0.545
17.88,32363.8,35760.5,1.4304,1.8671,138.0,96.4,0.545
17.9,32315.8,35729.9,1.2411,1.7919,138.0,96.4,0.545
17.92,32211.1,35472.0,0.828,1.1584,138.0,96.4,0.545
17.94,32173.6,35327.0,0.6801,0.802,138.0,96.4,0.545
17.96,32034.9,35153.1,0.1328,0.3748,138.0,96.4,0.545
17.98,31955.8,35161.4,-0.1793,0.3953,138.0,96.4,0.545
18.0,32030.9,35056.9,0.1172,0.1386,138.0,96.4,0.545
18.02,32119.4,35026.6,0.4664,0.064,138.0,96.4,0.545
18.04,32020.4,34828.0,0.0756,-0.4239,138.0,96.4,0.545
18.06,31866.8,34768.8,-0.5304,-0.5692,138.0,96.4,0.545
18.08,31926.8,34695.3,-0.2935,-0.75,138.0,96.4,0.545
18.1,31720.4,34637.2,-1.1076,-0.8926,138.0,96.4,0.545
18.12,31838.3,34765.3,-0.6425,-0.5779,138.0,96.4,0.545
18.14,31789.2,34637.8,-0.8363,-0.8912,138.0,96.4,0.545
18.16,31797.0,34533.6,-0.8054,-1.1471,138.0,96.4,0.545
18.18,31839.8,34467.6,-0.6369,-1.3093,138.0,96.4,0.545
18.2,31762.6,34478.2,-0.9414,-1.2833,138.0,96.4,0.545
18.22,31777.2,34657.5,-0.8835,-0.8427,138.0,96.4,0.545
18.24,31935.9,34848.7,-0.2574,-0.3729,138.0,96.4,0.545
18.26,32070.2,35165.4,0.2723,0.4051,138.0,96.4,0.545
18.28,32271.1,35521.2,1.0648,1.2793,138.0,96.4,0.545
18.3,32363.3,35799.8,1.4284,1.9637,138.0,96.4,0.545
18.32,32337.6,35719.3,1.3272,1.7659,138.0,96.4,0.545
18.34,32333.2,35588.0,1.3096,1.4433,138.0,96.4,0.545
18.36,32208.0,35483.8,0.8156,1.1873,138.0,96.4,0.545
18.38,32158.1,35222.9,0.6187,0.5464,138.0,96.4,0.545
18.4,32056.3,35116.2,0.2172,0.2843,138.0,96.4,0.545
18.42,32075.3,35158.6,0.2924,0.3883,138.0,96.4,0.545
18.44,31975.3,35049.1,-0.1022,0.1193,138.0,96.4,0.545
18.46,32071.7,34889.9,0.2779,-0.2717,138.0,96.4,0.545
18.48,31984.4,34860.3,-0.0662,-0.3446,138.0,96.4,0.545
18.5,31921.3,34788.8,-0.3151,-0.5201,138.0,96.4,0.545
18.52,31740.4,34683.2,-1.0288,-0.7796,138.0,96.4,0.545
18.54,31794.2,34692.6,-0.8165,-0.7566,138.0,96.4,0.545
18.56,31825.1,34525.4,-0.6949,-1.1673,138.0,96.4,0.545
18.58,31763.4,34566.2,-0.9381,-1.0671,138.0,96.4,0.545
18.6,31815.3,34563.9,-0.7334,-1.0728,138.0,96.4,0.545
18.62,31789.7,34478.4,-0.8343,-1.2827,138.0,96.4,0.545
18.64,31676.5,34416.7,-1.2809,-1.4343,138.0,96.4,0.545
18.66,31871.4,34628.7,-0.512,-0.9134,138.0,96.4,0.545
18.68,31908.9,34924.2,-0.3642,-0.1875,138.0,96.4,0.545
18.7,32289.7,35356.5,1.1382,0.8746,138.0,96.4,0.545
18.72,32250.5,35632.3,0.9835,1.5522,138.0,96.4,0.545
18.74,32305.8,35686.3,1.2016,1.6849,138.0,96.4,0.545
18.76,32409.6,35704.5,1.6109,1.7296,138.0,96.4,0.545
18.78,32335.5,35555.0,1.3188,1.3622,138.0,96.4,0.545
18.8,32239.8,35356.0,0.9411,0.8733,138.0,96.4,0.545
18.82,32096.3,35253.2,0.375,0.6208,138.0,96.4,0.545
18.84,32222.6,35059.1,0.8733,0.1439,138.0,96.4,0.545
18.86,32055.1,35058.6,0.2126,0.1426,138.0,96.4,0.545
18.88,32027.5,35045.1,0.1039,0.1094,138.0,96.4,0.545
18.9,31957.3,34962.2,-0.1731,-0.0942,138.0,96.4,0.545
18.92,31920.5,34781.1,-0.3182,-0.539,138.0,96.4,0.545
18.94,31866.2,34711.7,-0.5327,-0.7095,138.0,96.4,0.545
18.96,31834.1,34675.3,-0.6593,-0.799,138.0,96.4,0.545
18.98,31791.7,34633.3,-0.8266,-0.9022,138.0,96.4,0.545
19.0,31842.9,34637.7,-0.6243,-0.8915,138.0,96.4,0.545
19.02,31826.5,34659.8,-0.6893,-0.837,138.0,96.4,0.545
19.04,31789.2,34463.2,-0.8365,-1.3201,138.0,96.4,0.545
19.06,31771.1,34388.2,-0.9078,-1.5044,138.0,96.4,0.545
19.08,31702.9,34541.8,-1.1766,-1.127,138.0,96.4,0.545
19.1,31800.5,34754.5,-0.7917,-0.6045,138.0,96.4,0.545
19.12,32003.8,35028.9,0.01,0.0698,138.0,96.4,0.545
19.14,32055.6,35353.5,0.2145,0.8673,138.0,96.4,0.545
19.16,32296.9,35633.2,1.1664,1.5543,138.0,96.4,0.545
19.18,32328.1,35721.7,1.2897,1.7717,138.0,96.4,0.545
19.2,32340.4,35648.0,1.3379,1.5907,138.0,96.4,0.545
19.22,32200.4,35459.2,0.7856,1.127,138.0,96.4,0.545
19.24,32203.6,35351.3,0.7982,0.8618,138.0,96.4,0.545
19.26,32148.5,35206.4,0.5811,0.5059,138.0,96.4,0.545
19.28,32074.9,35148.8,0.2906,0.3643,138.0,96.4,0.545
19.3,31996.1,35078.0,-0.0201,0.1903,138.0,96.4,0.545
19.32,31956.9,35005.7,-0.1747,0.0126,138.0,96.4,0.545
19.34,31965.9,34897.0,-0.1391,-0.2543,138.0,96.4,0.545
19.36,31888.0,34818.1,-0.4468,-0.4483,138.0,96.4,0.545
19.38,31857.9,34654.3,-0.5653,-0.8506,138.0,96.4,0.545
19.4,31812.1,34678.8,-0.746,-0.7905,138.0,96.4,0.545
19.42,31859.5,34700.2,-0.559,-0.7378,138.0,96.4,0.545
19.44,31779.8,34629.9,-0.8733,-0.9105,138.0,96.4,0.545
19.46,31733.4,34534.4,-1.0564,-1.1451,138.0,96.4,0.545
19.48,31723.7,34536.1,-1.0945,-1.1411,138.0,96.4,0.545
19.5,31716.4,34468.2,-1.1235,-1.3079,138.0,96.4,0.545
19.52,31843.6,34480.4,-0.6216,-1.2778,138.0,96.4,0.545
19.54,31818.3,34803.0,-0.7214,-0.4853,138.0,96.4,0.545
19.56,32055.3,35184.8,0.2133,0.4528,138.0,96.4,0.545
19.58,32225.2,35500.5,0.8834,1.2284,138.0,96.4,0.545
19.6,32332.3,35745.5,1.306,1.8302,138.0,96.4,0.545
19.62,32403.1,35719.2,1.5854,1.7657,138.0,96.4,0.545
19.64,32310.4,35676.7,1.2199,1.6614,138.0,96.4,0.545
19.66,32215.5,35522.8,0.8452,1.2832,138.0,96.4,0.545
19.68,32199.1,35218.7,0.7807,0.536,138.0,96.4,0.545
19.7,32069.8,35224.9,0.2708,0.5512,138.0,96.4,0.545
19.72,32100.2,35163.0,0.3907,0.3993,138.0,96.4,0.545
19.74,32036.5,35127.3,0.1391,0.3116,138.0,96.4,0.545
19.76,32069.2,35034.8,0.2682,0.0842,138.0,96.4,0.545
19.78,31999.6,34850.8,-0.0064,-0.3678,138.0,96.4,0.545
19.8,31902.4,34859.6,-0.3899,-0.3463,138.0,96.4,0.545
19.82,31881.5,34804.6,-0.4723,-0.4813,138.0,96.4,0.545
19.84,31902.0,34583.9,-0.3914,-1.0236,138.0,96.4,0.545
19.86,31866.4,34698.9,-0.5317,-0.7411,138.0,96.4,0.545
19.88,31831.0,34643.2,-0.6714,-0.8779,138.0,96.4,0.545
19.9,31773.7,34597.0,-0.8973,-0.9914,138.0,96.4,0.545
19.92,31717.3,34542.9,-1.12,-1.1244,138.0,96.4,0.545
19.94,31770.5,34467.7,-0.9099,-1.3091,138.0,96.4,0.545
19.96,31808.9,34617.4,-0.7586,-0.9412,138.0,96.4,0.545
19.98,31924.1,34863.6,-0.3043,-0.3364,138.0,96.4,0.545
20.0,32093.7,35172.1,0.3647,0.4214,138.0,96.4,0.545
20.02,32326.0,35530.5,1.2811,1.3022,138.0,96.4,0.545
20.04,32367.5,35753.3,1.4448,1.8494,138.0,96.4,0.545
20.06,32322.0,35759.7,1.2653,1.8653,138.0,96.4,0.545
20.08,32377.2,35646.6,1.4832,1.5873,138.0,96.4,0.545
20.1,32191.9,35448.6,0.7522,1.1009,138.0,96.4,0.545
20.12,32154.6,35207.5,0.605,0.5085,138.0,96.4,0.545
20.14,32053.2,35175.4,0.2051,0.4295,138.0,96.4,0.545
20.16,31975.0,35059.2,-0.1032,0.1442,138.0,96.4,0.545
20.18,32033.7,35042.3,0.1284,0.1026,138.0,96.4,0.545
20.2,32088.4,34934.6,0.3439,-0.1619,138.0,96.4,0.545
20.22,31915.7,34895.2,-0.3373,-0.2588,138.0,96.4,0.545
20.24,31876.3,34720.5,-0.4926,-0.688,138.0,96.4,0.545
20.26,31718.6,34712.0,-1.1148,-0.7089,138.0,96.4,0.545
20.28,31862.0,34636.1,-0.5491,-0.8953,138.0,96.4,0.545
20.3,31854.4,34714.3,-0.5791,-0.7032,138.0,96.4,0.545
20.32,31754.6,34540.1,-0.9728,-1.1311,138.0,96.4,0.545
20.34,31663.8,34609.7,-1.3311,-0.9603,138.0,96.4,0.545
20.36,31780.5,34474.8,-0.8708,-1.2916,138.0,96.4,0.545
20.38,31710.8,34455.9,-1.1456,-1.3382,138.0,96.4,0.545
20.4,31842.5,34552.7,-0.6261,-1.1001,138.0,96.4,0.545
20.42,31905.8,35052.3,-0.3763,0.1273,138.0,96.4,0.545
20.44,32148.3,35284.9,0.5802,0.6986,138.0,96.4,0.545
20.46,32270.1,35651.4,1.0606,1.5992,138.0,96.4,0.545
20.48,32314.1,35713.9,1.2343,1.7527,138.0,96.4,0.545
20.5,32368.6,35664.3,1.4492,1.6307,138.0,96.4,0.545
20.52,32232.4,35480.1,0.9121,1.1783,138.0,96.4,0.545
20.54,32152.7,35404.0,0.5975,0.9912,138.0,96.4,0.545
20.56,32073.0,35107.7,0.2832,0.2632,138.0,96.4,0.545
20.58,32132.7,35077.7,0.5187,0.1895,138.0,96.4,0.545
20.6,32019.9,35042.9,0.0736,0.1042,138.0,96.4,0.545
20.62,32058.5,35040.8,0.2258,0.099,138.0,96.4,0.545
20.64,32064.7,34921.3,0.2504,-0.1946,138.0,96.4,0.545
20.66,31983.6,34845.5,-0.0696,-0.3809,138.0,96.4,0.545
20.68,31892.5,34724.0,-0.4289,-0.6794,138.0,96.4,0.545
20.7,31902.7,34594.3,-0.3887,-0.9981,138.0,96.4,0.545
20.72,31825.5,34683.4,-0.6933,-0.779,138.0,96.4,0.545
20.74,31972.0,34573.7,-0.1151,-1.0486,138.0,96.4,0.545
20.76,31784.1,34545.2,-0.8566,-1.1186,138.0,96.4,0.545
20.78,31757.7,34524.2,-0.9606,-1.1703,138.0,96.4,0.545
20.8,31680.8,34456.4,-1.2641,-1.3368,138.0,96.4,0.545
20.82,31782.4,34453.3,-0.863,-1.3443,138.0,96.4,0.545
20.84,31893.2,34766.6,-0.4259,-0.5747,138.0,96.4,0.545
20.86,32020.1,35085.8,0.0744,0.2095,138.0,96.4,0.545
20.88,32178.4,35368.4,0.6989,0.9038,138.0,96.4,0.545
20.9,32368.1,35750.6,1.4472,1.8429,138.0,96.4,0.545
20.92,32280.7,35795.2,1.1025,1.9524,138.0,96.4,0.545
20.94,32319.8,35732.8,1.2568,1.7992,138.0,96.4,0.545
20.96,32274.1,35552.5,1.0764,1.3561,138.0,96.4,0.545
20.98,32134.3,35396.8,0.525,0.9737,138.0,96.4,0.545
21.0,32097.3,35207.9,0.3789,0.5096,138.0,96.4,0.545
21.02,32019.9,35109.1,0.0737,0.2669,138.0,96.4,0.545
21.04,32133.4,35192.8,0.5213,0.4725,138.0,96.4,0.545
21.06,31999.1,34989.1,-0.0084,-0.028,138.0,96.4,0.545
21.08,31849.8,34907.3,-0.5974,-0.2291,138.0,96.4,0.545
21.1,31867.5,34816.1,-0.5276,-0.4532,138.0,96.4,0.545
21.12,31835.0,34660.7,-0.6556,-0.8349,138.0,96.4,0.545
21.14,31800.8,34617.2,-0.7907,-0.9418,138.0,96.4,0.545
21.16,31840.0,34745.0,-0.6358,-0.6277,138.0,96.4,0.545
21.18,31821.9,34638.4,-0.7073,-0.8897,138.0,96.4,0.545
21.2,31834.9,34652.4,-0.6558,-0.8553,138.0,96.4,0.545
21.22,31658.1,34506.1,-1.3534,-1.2147,138.0,96.4,0.545
21.24,31809.7,34518.9,-0.7555,-1.1833,138.0,96.4,0.545
21.26,31701.1,34636.8,-1.1839,-0.8936,138.0,96.4,0.545
21.28,31973.5,34766.9,-0.1093,-0.5738,138.0,96.4,0.545
21.3,32063.3,35067.4,0.2451,0.1644,138.0,96.4,0.545
21.32,32255.8,35478.2,1.0044,1.1736,138.0,96.4,0.545
21.34,32298.5,35681.4,1.1729,1.6727,138.0,96.4,0.545
21.36,32439.1,35694.9,1.7273,1.7059,138.0,96.4,0.545
21.38,32266.6,35661.7,1.0469,1.6243,138.0,96.4,0.545
21.4,32190.5,35439.3,0.7469,1.078,138.0,96.4,0.545
21.42,32108.9,35279.8,0.4249,0.6862,138.0,96.4,0.545
21.44,32057.2,35270.3,0.2211,0.6627,138.0,96.4,0.545
21.46,32076.3,35118.2,0.2963,0.2891,138.0,96.4,0.545
21.48,31992.3,35026.2,-0.035,0.063,138.0,96.4,0.545
21.5,31970.5,35003.2,-0.1213,0.0065,138.0,96.4,0.545
21.52,32005.5,34952.5,0.0169,-0.118,138.0,96.4,0.545
21.54,31835.4,34788.8,-0.6541,-0.5203,138.0,96.4,0.545
21.56,31996.7,34660.0,-0.0176,-0.8366,138.0,96.4,0.545
21.58,31915.4,34650.0,-0.3384,-0.8612,138.0,96.4,0.545
21.6,31935.8,34603.8,-0.2578,-0.9747,138.0,96.4,0.545
21.62,31719.2,34606.7,-1.1126,-0.9676,138.0,96.4,0.545
21.64,31757.2,34508.2,-0.9626,-1.2096,138.0,96.4,0.545
21.66,31699.8,34480.1,-1.1888,-1.2787,138.0,96.4,0.545
21.68,31682.8,34462.9,-1.2562,-1.321,138.0,96.4,0.545
21.7,31854.9,34561.4,-0.577,-1.0788,138.0,96.4,0.545
21.72,31864.1,34855.4,-0.5409,-0.3564,138.0,96.4,0.545
21.74,32059.4,35254.9,0.2295,0.6249,138.0,96.4,0.545
21.76,32229.4,35463.2,0.9,1.1368,138.0,96.4,0.545
21.78,32293.1,35676.6,1.1513,1.6611,138.0,96.4,0.545
21.8,32382.8,35754.8,1.5055,1.8531,138.0,96.4,0.545
21.82,32344.2,35610.5,1.3532,1.4987,138.0,96.4,0.545
21.84,32183.9,35390.0,0.7205,0.9569,138.0,96.4,0.545
21.86,32101.0,35227.8,0.3937,0.5585,138.0,96.4,0.545
21.88,32028.5,35041.0,0.1077,0.0995,138.0,96.4,0.545
21.9,32087.2,35035.9,0.3391,0.087,138.0,96.4,0.545
21.92,32041.3,35008.9,0.1582,0.0207,138.0,96.4,0.545
21.94,31958.2,34895.2,-0.1696,-0.2589,138.0,96.4,0.545
21.96,31966.8,34776.9,-0.1356,-0.5494,138.0,96.4,0.545
21.98,31875.8,34667.5,-0.4949,-0.8181,138.0,96.4,0.545
22.0,31856.8,34732.7,-0.5695,-0.6581,138.0,96.4,0.545
22.02,31924.3,34672.4,-0.3034,-0.806,138.0,96.4,0.545
22.04,31762.2,34573.9,-0.9427,-1.0482,138.0,96.4,0.545
22.06,31826.3,34674.1,-0.69,-0.8019,138.0,96.4,0.545
22.08,31643.8,34540.5,-1.4098,-1.1302,138.0,96.4,0.545
22.1,31722.3,34491.2,-1.1,-1.2512,138.0,96.4,0.545
22.12,31783.4,34504.6,-0.8591,-1.2183,138.0,96.4,0.545
22.14,31757.3,34594.0,-0.962,-0.9988,138.0,96.4,0.545
22.16,32035.0,34917.7,0.1332,-0.2034,138.0,96.4,0.545
22.18,32175.4,35286.1,0.6871,0.7015,138.0,96.4,0.545
22.2,32293.2,35579.5,1.1517,1.4223,138.0,96.4,0.545
22.22,32389.8,35831.0,1.533,2.0403,138.0,96.4,0.545
22.24,32216.4,35744.7,0.849,1.8284,138.0,96.4,0.545
22.26,32300.5,35595.2,1.1807,1.4611,138.0,96.4,0.545
22.28,32229.7,35350.3,0.9015,0.8593,138.0,96.4,0.545
22.3,32114.2,35169.3,0.4459,0.4147,138.0,96.4,0.545
22.32,32109.4,35155.2,0.4269,0.3801,138.0,96.4,0.545
22.34,31997.8,35038.9,-0.0133,0.0943,138.0,96.4,0.545
22.36,31991.8,35019.0,-0.0372,0.0453,138.0,96.4,0.545
22.38,32008.9,34995.6,0.0304,-0.0121,138.0,96.4,0.545
22.4,31928.6,34806.4,-0.2862,-0.477,138.0,96.4,0.545
22.42,31891.9,34776.0,-0.4314,-0.5516,138.0,96.4,0.545
22.44,31835.0,34726.6,-0.6554,-0.6731,138.0,96.4,0.545
22.46,31843.3,34649.7,-0.6228,-0.8619,138.0,96.4,0.545
22.48,31860.2,34628.3,-0.5561,-0.9145,138.0,96.4,0.545
22.5,31814.6,34605.6,-0.7359,-0.9702,138.0,96.4,0.545
22.52,31672.6,34555.4,-1.2962,-1.0937,138.0,96.4,0.545
22.54,31699.7,34432.8,-1.1894,-1.3947,138.0,96.4,0.545
22.56,31783.0,34447.2,-0.8609,-1.3595,138.0,96.4,0.545
22.58,31792.8,34710.7,-0.8223,-0.7119,138.0,96.4,0.545
22.6,32012.0,34964.1,0.0426,-0.0895,138.0,96.4,0.545
22.62,32250.8,35442.8,0.9844,1.0865,138.0,96.4,0.545
22.64,32285.7,35614.4,1.1224,1.5082,138.0,96.4,0.545
22.66,32326.3,35751.2,1.2822,1.8442,138.0,96.4,0.545
22.68,32336.4,35700.9,1.3222,1.7207,138.0,96.4,0.545
22.7,32279.0,35546.2,1.0959,1.3406,138.0,96.4,0.545
22.72,32161.2,35276.6,0.6313,0.6784,138.0,96.4,0.545
22.74,32096.7,35208.3,0.3766,0.5105,138.0,96.4,0.545
22.76,32031.7,35056.1,0.1203,0.1364,138.0,96.4,0.545
22.78,32031.6,35106.0,0.1198,0.2592,138.0,96.4,0.545
22.8,31908.3,34981.6,-0.3664,-0.0465,138.0,96.4,0.545
22.82,31956.7,34851.6,-0.1754,-0.3659,138.0,96.4,0.545
22.84,31992.6,34813.3,-0.034,-0.4599,138.0,96.4,0.545
22.86,31908.5,34733.6,-0.3657,-0.6559,138.0,96.4,0.545
22.88,31892.8,34503.8,-0.4276,-1.2204,138.0,96.4,0.545
22.9,31805.6,34590.2,-0.7716,-1.008,138.0,96.4,0.545
22.92,31802.4,34501.3,-0.7843,-1.2264,138.0,96.4,0.545
22.94,31791.3,34554.4,-0.8279,-1.0961,138.0,96.4,0.545
22.96,31831.2,34539.7,-0.6705,-1.1322,138.0,96.4,0.545
22.98,31642.1,34483.9,-1.4165,-1.2692,138.0,96.4,0.545
23.0,31820.8,34467.6,-0.7116,-1.3092,138.0,96.4,0.545
23.02,31911.6,34849.9,-0.3535,-0.37,138.0,96.4,0.545
23.04,32106.2,35182.4,0.4141,0.4468,138.0,96.4,0.545
23.06,32150.3,35477.5,0.5883,1.1718,138.0,96.4,0.545
23.08,32267.7,35718.1,1.0514,1.7629,138.0,96.4,0.545
23.1,32408.8,35706.1,1.6078,1.7334,138.0,96.4,0.545
23.12,32341.3,35617.5,1.3416,1.5159,138.0,96.4,0.545
23.14,32275.9,35452.4,1.0838,1.1102,138.0,96.4,0.545
23.16,32149.9,35306.5,0.5865,0.7516,138.0,96.4,0.545
23.18,32085.4,35256.8,0.3322,0.6296,138.0,96.4,0.545
23.2,32064.8,35005.2,0.2509,0.0115,138.0,96.4,0.545
23.22,32073.5,35053.2,0.2853,0.1294,138.0,96.4,0.545
23.24,31993.1,34908.4,-0.0321,-0.2264,138.0,96.4,0.545
23.26,31921.5,34947.8,-0.3144,-0.1295,138.0,96.4,0.545
23.28,31899.5,34794.8,-0.4011,-0.5054,138.0,96.4,0.545
23.3,31874.2,34696.5,-0.5008,-0.7469,138.0,96.4,0.545
23.32,31824.8,34650.5,-0.6957,-0.8599,138.0,96.4,0.545
23.34,31842.3,34671.8,-0.6268,-0.8077,138.0,96.4,0.545
23.36,31825.0,34635.3,-0.6952,-0.8974,138.0,96.4,0.545
23.38,31792.1,34519.3,-0.8248,-1.1823,138.0,96.4,0.545
23.4,31730.0,34475.6,-1.0697,-1.2896,138.0,96.4,0.545
23.42,31734.5,34510.5,-1.0521,-1.2038,138.0,96.4,0.545
23.44,31732.5,34556.9,-1.0598,-1.0898,138.0,96.4,0.545
23.46,31930.6,34879.5,-0.2785,-0.2974,138.0,96.4,0.545
23.48,32171.5,35331.4,0.6717,0.8129,138.0,96.4,0.545
23.5,32262.0,35622.8,1.0289,1.5288,138.0,96.4,0.545
23.52,32364.6,35745.4,1.4334,1.8301,138.0,96.4,0.545
23.54,32318.9,35574.1,1.2534,1.4091,138.0,96.4,0.545
23.56,32256.3,35559.8,1.0065,1.3742,138.0,96.4,0.545
23.58,32195.7,35343.4,0.7672,0.8424,138.0,96.4,0.545
23.6,32031.3,35234.6,0.1189,0.5751,138.0,96.4,0.545
23.62,32083.3,35098.8,0.3239,0.2414,138.0,96.4,0.545
23.64,32085.5,35060.7,0.3327,0.1478,138.0,96.4,0.545
23.66,32051.2,35033.8,0.1973,0.0818,138.0,96.4,0.545
23.68,32020.3,34959.1,0.0755,-0.1017,138.0,96.4,0.545
23.7,31913.8,34756.4,-0.3446,-0.5998,138.0,96.4,0.545
23.72,31948.4,34838.4,-0.2084,-0.3983,138.0,96.4,0.545
23.74,31776.2,34743.1,-0.8876,-0.6325,138.0,96.4,0.545
23.76,31839.4,34615.2,-0.6382,-0.9467,138.0,96.4,0.545
23.78,31822.2,34729.3,-0.7061,-0.6664,138.0,96.4,0.545
23.8,31687.7,34701.7,-1.2365,-0.7342,138.0,96.4,0.545
23.82,31640.5,34560.1,-1.4231,-1.082,138.0,96.4,0.545
23.84,31805.7,34530.1,-0.7713,-1.1556,138.0,96.4,0.545
23.86,31799.7,34468.2,-0.7947,-1.3079,138.0,96.4,0.545
23.88,31819.2,34748.6,-0.718,-0.619,138.0,96.4,0.545
23.9,32018.1,35018.1,0.0665,0.0431,138.0,96.4,0.545
23.92,32147.6,35329.2,0.5774,0.8075,138.0,96.4,0.545
23.94,32307.9,35671.5,1.2098,1.6485,138.0,96.4,0.545
23.96,32467.0,35747.4,1.8373,1.835,138.0,96.4,0.545
23.98,32372.2,35693.6,1.4634,1.7028,138.0,96.4,0.545
24.0,32302.8,35540.7,1.1896,1.3272,138.0,96.4,0.545
24.02,32185.8,35366.0,0.7281,0.898,138.0,96.4,0.545
24.04,32165.5,35192.4,0.6482,0.4715,138.0,96.4,0.545
24.06,32052.8,35083.7,0.2037,0.2044,138.0,96.4,0.545
24.08,32005.5,35025.4,0.017,0.0612,138.0,96.4,0.545
24.1,31910.1,35016.4,-0.3593,0.039,138.0,96.4,0.545
24.12,31926.4,34928.1,-0.2952,-0.1779,138.0,96.4,0.545
24.14,31886.8,34829.7,-0.4511,-0.4197,138.0,96.4,0.545
24.16,31889.7,34698.2,-0.4401,-0.7428,138.0,96.4,0.545
24.18,31918.5,34644.6,-0.3264,-0.8746,138.0,96.4,0.545
24.2,31786.3,34651.9,-0.8476,-0.8566,138.0,96.4,0.545
24.22,31864.3,34627.8,-0.5401,-0.9157,138.0,96.4,0.545
24.24,31889.6,34480.9,-0.4402,-1.2767,138.0,96.4,0.545
24.26,31695.8,34510.5,-1.2048,-1.204,138.0,96.4,0.545
24.28,31747.0,34517.9,-1.0029,-1.1858,138.0,96.4,0.545
24.3,31758.2,34567.3,-0.9586,-1.0644,138.0,96.4,0.545
24.32,31843.4,34763.1,-0.6224,-0.5833,138.0,96.4,0.545
24.34,32069.7,35096.3,0.2701,0.2354,138.0,96.4,0.545
24.36,32134.6,35436.0,0.5263,1.0698,138.0,96.4,0.545
24.38,32364.0,35623.2,1.4311,1.5299,138.0,96.4,0.545
24.4,32462.5,35771.0,1.8197,1.8929,138.0,96.4,0.545
24.42,32282.4,35685.0,1.1093,1.6817,138.0,96.4,0.545
24.44,32291.8,35515.1,1.1461,1.2643,138.0,96.4,0.545
24.46,32159.7,35263.3,0.6254,0.6455,138.0,96.4,0.545
24.48,32102.8,35154.9,0.4008,0.3794,138.0,96.4,0.545
24.5,32024.2,35069.1,0.0906,0.1684,138.0,96.4,0.545
24.52,32031.2,34990.7,0.1183,-0.0242,138.0,96.4,0.545
24.54,32006.6,34953.5,0.0214,-0.1155,138.0,96.4,0.545
24.56,31942.5,34919.1,-0.2317,-0.2001,138.0,96.4,0.545
24.58,31989.1,34812.2,-0.0476,-0.4627,138.0,96.4,0.545
24.6,31839.9,34680.1,-0.6364,-0.7872,138.0,96.4,0.545
24.62,31829.2,34681.8,-0.6784,-0.7832,138.0,96.4,0.545
24.64,31850.9,34778.2,-0.593,-0.5462,138.0,96.4,0.545
24.66,31727.5,34607.9,-1.0797,-0.9646,138.0,96.4,0.545
24.68,31798.0,34471.5,-0.8015,-1.2997,138.0,96.4,0.545
24.7,31736.1,34425.7,-1.0458,-1.4122,138.0,96.4,0.545
24.72,31633.3,34490.9,-1.4512,-1.2521,138.0,96.4,0.545
24.74,31820.7,34603.4,-0.7119,-0.9756,138.0,96.4,0.545
24.76,31865.8,34791.1,-0.5343,-0.5145,138.0,96.4,0.545
24.78,32034.4,35228.3,0.131,0.5596,138.0,96.4,0.545
24.8,32258.1,35501.3,1.0135,1.2304,138.0,96.4,0.545
24.82,32314.1,35786.2,1.2342,1.9302,138.0,96.4,0.545
24.84,32349.0,35780.0,1.3718,1.9151,138.0,96.4,0.545
24.86,32206.8,35639.3,0.811,1.5693,138.0,96.4,0.545
24.88,32158.3,35415.7,0.6199,1.02,138.0,96.4,0.545
24.9,32174.7,35288.3,0.6843,0.707,138.0,96.4,0.545
24.92,32151.6,35200.0,0.5932,0.49,138.0,96.4,0.545
24.94,32129.0,34999.1,0.5041,-0.0034,138.0,96.4,0.545
24.96,32029.3,35081.9,0.1108,0.1999,138.0,96.4,0.545
24.98,31997.6,34997.2,-0.0143,-0.0082,138.0,96.4,0.545
25.0,31966.9,34893.9,-0.1355,-0.2619,138.0,96.4,0.545
25.02,31869.4,34724.4,-0.5199,-0.6784,138.0,96.4,0.545
25.04,31786.6,34615.5,-0.8465,-0.9459,138.0,96.4,0.545
25.06,31802.4,34656.9,-0.7844,-0.8443,138.0,96.4,0.545
25.08,31823.4,34597.4,-0.7013,-0.9903,138.0,96.4,0.545
25.1,31756.1,34676.0,-0.9667,-0.7973,138.0,96.4,0.545
25.12,31774.2,34425.7,-0.8953,-1.4122,138.0,96.4,0.545
25.14,31787.3,34548.5,-0.8437,-1.1104,138.0,96.4,0.545
25.16,31730.2,34478.5,-1.069,-1.2824,138.0,96.4,0.545
25.18,31831.0,34611.8,-0.6716,-0.955,138.0,96.4,0.545
25.2,31974.3,34890.9,-0.106,-0.2694,138.0,96.4,0.545
25.22,32159.8,35335.5,0.6255,0.8231,138.0,96.4,0.545
25.24,32292.5,35556.1,1.1491,1.3649,138.0,96.4,0.545
25.26,32478.6,35738.8,1.8833,1.8137,138.0,96.4,0.545
25.28,32426.0,35806.2,1.6757,1.9794,138.0,96.4,0.545
25.3,32349.3,35604.2,1.373,1.483,138.0,96.4,0.545
25.32,32198.7,35389.6,0.7792,0.9559,138.0,96.4,0.545
25.34,32051.3,35245.1,0.1978,0.6009,138.0,96.4,0.545
25.36,32148.6,35068.7,0.5813,0.1675,138.0,96.4,0.545
25.38,31984.7,35053.8,-0.0651,0.1308,138.0,96.4,0.545
25.4,31973.2,34917.1,-0.1106,-0.2051,138.0,96.4,0.545
25.42,32023.4,34924.8,0.0876,-0.1862,138.0,96.4,0.545
25.44,31844.3,34866.0,-0.6188,-0.3306,138.0,96.4,0.545
25.46,31829.4,34792.7,-0.6778,-0.5106,138.0,96.4,0.545
25.48,31867.6,34674.2,-0.5271,-0.8016,138.0,96.4,0.545
25.5,31727.2,34600.3,-1.0807,-0.9832,138.0,96.4,0.545
25.52,31892.9,34648.0,-0.4271,-0.866,138.0,96.4,0.545
25.54,31883.1,34594.3,-0.4658,-0.9981,138.0,96.4,0.545
25.56,31694.3,34519.9,-1.2106,-1.1807,138.0,96.4,0.545
25.58,31781.0,34491.5,-0.8688,-1.2507,138.0,96.4,0.545
25.6,31749.1,34487.6,-0.9944,-1.2602,138.0,96.4,0.545
25.62,31839.6,34665.2,-0.6375,-0.8238,138.0,96.4,0.545
25.64,31970.7,34940.3,-0.1203,-0.1481,138.0,96.4,0.545
25.66,32117.9,35308.7,0.4605,0.7572,138.0,96.4,0.545
25.68,32344.0,35602.5,1.3522,1.4791,138.0,96.4,0.545
25.7,32466.5,35758.7,1.8355,1.8628,138.0,96.4,0.545
25.72,32343.0,35767.7,1.3481,1.8847,138.0,96.4,0.545
25.74,32260.7,35419.4,1.0235,1.0292,138.0,96.4,0.545
25.76,32199.6,35331.8,0.7826,0.8138,138.0,96.4,0.545
25.78,32065.7,35202.1,0.2544,0.4952,138.0,96.4,0.545
25.8,32089.1,35202.3,0.3467,0.4957,138.0,96.4,0.545
25.82,32082.7,35087.5,0.3214,0.2138,138.0,96.4,0.545
25.84,31992.1,35011.6,-0.036,0.0272,138.0,96.4,0.545
25.86,31980.9,34974.5,-0.0801,-0.0639,138.0,96.4,0.545
25.88,31964.1,34768.3,-0.1463,-0.5704,138.0,96.4,0.545
25.9,31861.7,34720.8,-0.5502,-0.6873,138.0,96.4,0.545
25.92,31810.5,34689.1,-0.7522,-0.7652,138.0,96.4,0.545
25.94,31911.3,34684.8,-0.3545,-0.7756,138.0,96.4,0.545
25.96,31861.8,34657.6,-0.5498,-0.8425,138.0,96.4,0.545
25.98,31805.6,34636.9,-0.7715,-0.8934,138.0,96.4,0.545
26.0,31739.7,34467.2,-1.0315,-1.3104,138.0,96.4,0.545
26.02,31748.2,34480.2,-0.9982,-1.2784,138.0,96.4,0.545
26.04,31775.7,34533.9,-0.8896,-1.1464,138.0,96.4,0.545
26.06,31932.4,34772.4,-0.2716,-0.5605,138.0,96.4,0.545
26.08,32041.1,35098.9,0.1574,0.2418,138.0,96.4,0.545
26.1,32273.8,35412.1,1.0754,1.0111,138.0,96.4,0.545
26.12,32352.7,35645.4,1.3866,1.5843,138.0,96.4,0.545
26.14,32334.1,35811.9,1.313,1.9934,138.0,96.4,0.545
26.16,32318.9,35658.2,1.2533,1.6158,138.0,96.4,0.545
26.18,32215.1,35496.8,0.8438,1.2194,138.0,96.4,0.545
26.2,32159.0,35221.5,0.6223,0.5428,138.0,96.4,0.545
26.22,32036.5,35144.8,0.1394,0.3545,138.0,96.4,0.545
26.24,32083.4,35098.5,0.3243,0.2407,138.0,96.4,0.545
26.26,31954.5,35078.6,-0.1842,0.1918,138.0,96.4,0.545
26.28,32044.8,34960.7,0.1718,-0.0977,138.0,96.4,0.545
26.3,31929.6,34881.7,-0.2826,-0.292,138.0,96.4,0.545
26.32,31927.0,34761.3,-0.2928,-0.5878,138.0,96.4,0.545
26.34,31955.9,34743.2,-0.1788,-0.6323,138.0,96.4,0.545
26.36,31807.4,34686.8,-0.7643,-0.7708,138.0,96.4,0.545
26.38,31790.1,34686.9,-0.8329,-0.7706,138.0,96.4,0.545
26.4,31838.3,34694.5,-0.6427,-0.7517,138.0,96.4,0.545
26.42,31783.3,34526.2,-0.8597,-1.1654,138.0,96.4,0.545
26.44,31667.2,34458.4,-1.3176,-1.3319,138.0,96.4,0.545
26.46,31673.4,34570.0,-1.2933,-1.0578,138.0,96.4,0.545
26.48,31828.7,34599.9,-0.6805,-0.9843,138.0,96.4,0.545
26.5,31914.7,34882.6,-0.3411,-0.2897,138.0,96.4,0.545
26.52,32124.0,35196.3,0.4845,0.4809,138.0,96.4,0.545
26.54,32311.3,35471.7,1.2234,1.1575,138.0,96.4,0.545
26.56,32327.0,35662.6,1.285,1.6267,138.0,96.4,0.545
26.58,32292.4,35804.7,1.1486,1.9758,138.0,96.4,0.545
26.6,32419.1,35656.5,1.6487,1.6117,138.0,96.4,0.545
26.62,32148.1,35407.5,0.5796,0.9998,138.0,96.4,0.545
26.64,32060.3,35260.7,0.2332,0.6391,138.0,96.4,0.545
26.66,32022.0,35156.7,0.0822,0.3836,138.0,96.4,0.545
26.68,32078.6,35048.0,0.3051,0.1166,138.0,96.4,0.545
26.7,31973.5,35075.7,-0.1091,0.1848,138.0,96.4,0.545
26.72,32044.6,34942.4,0.1713,-0.1427,138.0,96.4,0.545
26.74,31982.7,34852.8,-0.0731,-0.3628,138.0,96.4,0.545
26.76,31993.9,34788.7,-0.0289,-0.5204,138.0,96.4,0.545
26.78,31850.1,34637.8,-0.596,-0.8912,138.0,96.4,0.545
26.8,31932.9,34668.2,-0.2694,-0.8163,138.0,96.4,0.545
26.82,31865.6,34614.4,-0.5348,-0.9486,138.0,96.4,0.545
26.84,31782.0,34600.0,-0.8647,-0.9841,138.0,96.4,0.545
26.86,31816.2,34524.1,-0.7297,-1.1706,138.0,96.4,0.545
26.88,31726.5,34467.1,-1.0836,-1.3105,138.0,96.4,0.545
26.9,31731.6,34541.8,-1.0637,-1.127,138.0,96.4,0.545
26.92,31801.7,34685.0,-0.7871,-0.7751,138.0,96.4,0.545
26.94,31948.7,34972.4,-0.207,-0.069,138.0,96.4,0.545
26.96,32281.3,35197.7,1.105,0.4844,138.0,96.4,0.545
26.98,32286.7,35595.5,1.1261,1.4618,138.0,96.4,0.545
27.0,32366.1,35667.3,1.4394,1.638,138.0,96.4,0.545
27.02,32361.4,35635.9,1.4209,1.5611,138.0,96.4,0.545
27.04,32279.6,35503.2,1.0983,1.2351,138.0,96.4,0.545
27.06,32198.9,35352.0,0.78,0.8636,138.0,96.4,0.545
27.08,32094.8,35253.3,0.3694,0.6209,138.0,96.4,0.545
27.1,32033.7,35159.3,0.1283,0.3902,138.0,96.4,0.545
27.12,31974.6,35098.4,-0.105,0.2405,138.0,96.4,0.545
27.14,32015.1,35069.5,0.0548,0.1694,138.0,96.4,0.545
27.16,32023.7,34968.1,0.0886,-0.0797,138.0,96.4,0.545
27.18,31902.3,34882.1,-0.39,-0.291,138.0,96.4,0.545
27.2,31917.1,34791.1,-0.3317,-0.5145,138.0,96.4,0.545
27.22,31845.3,34683.2,-0.6149,-0.7797,138.0,96.4,0.545
27.24,31897.0,34699.5,-0.4112,-0.7396,138.0,96.4,0.545
27.26,31792.1,34695.5,-0.825,-0.7494,138.0,96.4,0.545
27.28,31852.7,34461.3,-0.586,-1.3248,138.0,96.4,0.545
27.3,31711.8,34610.7,-1.1415,-0.9578,138.0,96.4,0.545
27.32,31654.7,34462.8,-1.3669,-1.3211,138.0,96.4,0.545
27.34,31735.7,34595.9,-1.0474,-0.9941,138.0,96.4,0.545
27.36,31839.5,34739.3,-0.638,-0.6417,138.0,96.4,0.545
27.38,32052.7,34942.9,0.2031,-0.1416,138.0,96.4,0.545
27.4,32149.8,35449.1,0.5862,1.1021,138.0,96.4,0.545
27.42,32314.0,35597.2,1.2337,1.466,138.0,96.4,0.545
27.44,32295.2,35832.4,1.1598,2.0438,138.0,96.4,0.545
27.46,32367.6,35686.6,1.4454,1.6857,138.0,96.4,0.545
27.48,32375.0,35578.2,1.4747,1.4193,138.0,96.4,0.545
27.5,32212.3,35243.1,0.8327,0.596,138.0,96.4,0.545
27.52,32172.3,35185.5,0.6748,0.4544,138.0,96.4,0.545
27.54,32084.8,35122.8,0.3296,0.3004,138.0,96.4,0.545
27.56,32058.6,35066.4,0.2264,0.1618,138.0,96.4,0.545
27.58,31927.0,35009.6,-0.2928,0.0224,138.0,96.4,0.545
27.6,31977.6,34995.7,-0.093,-0.0119,138.0,96.4,0.545
27.62,31861.5,34713.6,-0.5511,-0.7049,138.0,96.4,0.545
27.64,31779.9,34700.1,-0.873,-0.7381,138.0,96.4,0.545
27.66,31927.9,34676.3,-0.289,-0.7965,138.0,96.4,0.545
27.68,31873.5,34691.6,-0.5038,-0.7589,138.0,96.4,0.545
27.7,31873.6,34667.9,-0.5034,-0.8171,138.0,96.4,0.545
27.72,31816.4,34493.1,-0.7291,-1.2467,138.0,96.4,0.545
27.74,31717.3,34544.3,-1.1201,-1.1208,138.0,96.4,0.545
27.76,31690.8,34481.6,-1.2244,-1.2749,138.0,96.4,0.545
27.78,31729.3,34485.7,-1.0727,-1.2647,138.0,96.4,0.545
27.8,31865.3,34808.3,-0.536,-0.4722,138.0,96.4,0.545
27.82,31943.1,35163.4,-0.2292,0.4001,138.0,96.4,0.545
27.84,32157.0,35507.3,0.6146,1.245,138.0,96.4,0.545
27.86,32260.6,35736.1,1.0231,1.8071,138.0,96.4,0.545
27.88,32433.6,35821.4,1.7056,2.0168,138.0,96.4,0.545
27.9,32243.0,35710.6,0.9537,1.7446,138.0,96.4,0.545
27.92,32180.4,35451.3,0.7067,1.1074,138.0,96.4,0.545
27.94,32045.6,35342.1,0.1751,0.8391,138.0,96.4,0.545
27.96,32012.4,35176.1,0.0443,0.4315,138.0,96.4,0.545
27.98,32101.9,35114.1,0.3971,0.2791,138.0,96.4,0.545
28.0,32007.6,35048.4,0.0252,0.1176,138.0,96.4,0.545
28.02,31949.3,35013.8,-0.2046,0.0326,138.0,96.4,0.545
28.04,31914.7,34848.6,-0.3414,-0.3732,138.0,96.4,0.545
28.06,31909.5,34807.2,-0.3618,-0.475,138.0,96.4,0.545
28.08,31859.8,34601.5,-0.5577,-0.9804,138.0,96.4,0.545
28.1,31831.2,34647.5,-0.6708,-0.8673,138.0,96.4,0.545
28.12,31855.6,34671.0,-0.5744,-0.8096,138.0,96.4,0.545
28.14,31737.1,34610.3,-1.0417,-0.9586,138.0,96.4,0.545
28.16,31853.4,34492.5,-0.5832,-1.2481,138.0,96.4,0.545
28.18,31691.3,34303.5,-1.2225,-1.7124,138.0,96.4,0.545
28.2,31756.5,34416.0,-0.9651,-1.436,138.0,96.4,0.545
28.22,31734.2,34606.0,-1.0532,-0.9692,138.0,96.4,0.545
28.24,31888.0,34885.7,-0.4467,-0.2822,138.0,96.4,0.545
28.26,32066.5,35232.8,0.2575,0.5706,138.0,96.4,0.545
28.28,32235.0,35657.2,0.9224,1.6134,138.0,96.4,0.545
28.3,32381.1,35702.7,1.4986,1.7251,138.0,96.4,0.545
28.32,32343.3,35684.1,1.3493,1.6793,138.0,96.4,0.545
28.34,32320.5,35623.3,1.2594,1.53,138.0,96.4,0.545
28.36,32180.2,35420.6,0.7061,1.032,138.0,96.4,0.545
28.38,32078.6,35116.0,0.3054,0.2837,138.0,96.4,0.545
28.4,32003.4,35140.3,0.0086,0.3434,138.0,96.4,0.545
28.42,32056.2,34970.6,0.2169,-0.0736,138.0,96.4,0.545
28.44,32041.6,34996.6,0.1593,-0.0097,138.0,96.4,0.545
28.46,32001.4,34980.8,0.0009,-0.0484,138.0,96.4,0.545
28.48,31879.7,34821.9,-0.4794,-0.4389,138.0,96.4,0.545
28.5,31880.3,34757.5,-0.477,-0.5971,138.0,96.4,0.545
28.52,31866.2,34761.2,-0.5325,-0.5881,138.0,96.4,0.545
28.54,31895.2,34679.0,-0.418,-0.79,138.0,96.4,0.545
28.56,31816.8,34609.5,-0.7273,-0.9607,138.0,96.4,0.545
28.58,31829.5,34573.6,-0.6775,-1.0488,138.0,96.4,0.545
28.6,31850.5,34564.8,-0.5944,-1.0704,138.0,96.4,0.545
28.62,31811.3,34473.8,-0.7489,-1.2941,138.0,96.4,0.545
28.64,31709.0,34454.3,-1.1526,-1.342,138.0,96.4,0.545
28.66,31813.6,34674.7,-0.7402,-0.8005,138.0,96.4,0.545
28.68,31966.6,34950.9,-0.1367,-0.122,138.0,96.4,0.545
28.7,32143.5,35294.2,0.5613,0.7216,138.0,96.4,0.545
28.72,32323.4,35532.8,1.271,1.3077,138.0,96.4,0.545
28.74,32343.9,35776.5,1.3519,1.9065,138.0,96.4,0.545
28.76,32266.5,35723.6,1.0463,1.7766,138.0,96.4,0.545
28.78,32214.6,35569.0,0.8418,1.3966,138.0,96.4,0.545
28.8,32154.8,35302.5,0.6057,0.742,138.0,96.4,0.545
28.82,32043.1,35193.7,0.1651,0.4747,138.0,96.4,0.545
28.84,32000.8,35202.9,-0.0015,0.4973,138.0,96.4,0.545
28.86,32059.6,35095.4,0.2302,0.2332,138.0,96.4,0.545
28.88,31938.5,35120.5,-0.2472,0.2948,138.0,96.4,0.545
28.9,31928.5,34890.0,-0.2868,-0.2716,138.0,96.4,0.545
28.92,31919.1,34825.9,-0.3238,-0.429,138.0,96.4,0.545
28.94,31876.4,34816.4,-0.4924,-0.4523,138.0,96.4,0.545
28.96,31906.6,34756.1,-0.3734,-0.6006,138.0,96.4,0.545
28.98,31849.7,34687.2,-0.5977,-0.7698,138.0,96.4,0.545
29.0,31871.5,34626.8,-0.5118,-0.9181,138.0,96.4,0.545
29.02,31723.4,34574.7,-1.096,-1.0461,138.0,96.4,0.545
29.04,31861.8,34572.5,-0.5498,-1.0516,138.0,96.4,0.545
29.06,31789.8,34433.7,-0.8339,-1.3925,138.0,96.4,0.545
29.08,31689.0,34429.2,-1.2314,-1.4037,138.0,96.4,0.545
29.1,31882.9,34781.6,-0.4668,-0.5379,138.0,96.4,0.545
29.12,31975.4,35081.1,-0.1016,0.1979,138.0,96.4,0.545
29.14,32232.6,35385.6,0.9128,0.946,138.0,96.4,0.545
29.16,32323.6,35652.8,1.2718,1.6024,138.0,96.4,0.545
29.18,32251.3,35782.3,0.9864,1.9207,138.0,96.4,0.545
29.2,32313.6,35623.8,1.2324,1.5314,138.0,96.4,0.545
29.22,32226.3,35480.8,0.8879,1.18,138.0,96.4,0.545
29.24,32181.3,35305.7,0.7106,0.7498,138.0,96.4,0.545
29.26,32129.7,35116.8,0.5069,0.2856,138.0,96.4,0.545
29.28,32148.9,35032.9,0.5825,0.0796,138.0,96.4,0.545
29.3,32086.1,35010.8,0.3349,0.0252,138.0,96.4,0.545
29.32,32073.9,35022.7,0.2868,0.0545,138.0,96.4,0.545
29.34,31863.6,34914.9,-0.5426,-0.2104,138.0,96.4,0.545
29.36,31937.5,34752.9,-0.2511,-0.6083,138.0,96.4,0.545
29.38,31862.6,34726.4,-0.5467,-0.6735,138.0,96.4,0.545
29.4,31824.7,34602.2,-0.6961,-0.9785,138.0,96.4,0.545
29.42,31848.1,34560.6,-0.6039,-1.0808,138.0,96.4,0.545
29.44,31848.5,34676.7,-0.6023,-0.7955,138.0,96.4,0.545
29.46,31832.0,34567.9,-0.6673,-1.0628,138.0,96.4,0.545
29.48,31811.3,34471.6,-0.7493,-1.2995,138.0,96.4,0.545
29.5,31761.0,34384.4,-0.9474,-1.5138,138.0,96.4,0.545
29.52,31807.0,34576.7,-0.7661,-1.0412,138.0,96.4,0.545
29.54,31913.4,34805.2,-0.3462,-0.4799,138.0,96.4,0.545
29.56,32035.9,35099.5,0.1368,0.2433,138.0,96.4,0.545
29.58,32160.0,35489.6,0.6263,1.2017,138.0,96.4,0.545
29.6,32427.9,35715.1,1.6833,1.7557,138.0,96.4,0.545
29.62,32379.2,35814.3,1.491,1.9992,138.0,96.4,0.545
29.64,32338.1,35650.6,1.329,1.5972,138.0,96.4,0.545
29.66,32280.9,35382.9,1.1033,0.9393,138.0,96.4,0.545
29.68,32102.4,35348.7,0.399,0.8554,138.0,96.4,0.545
29.7,32112.1,35115.4,0.4374,0.2823,138.0,96.4,0.545
29.72,32070.8,35100.8,0.2746,0.2464,138.0,96.4,0.545
29.74,32043.0,35136.5,0.1647,0.334,138.0,96.4,0.545
29.76,32066.6,34940.2,0.258,-0.1481,138.0,96.4,0.545
29.78,31952.0,34820.6,-0.1939,-0.442,138.0,96.4,0.545
29.8,31828.1,34746.4,-0.6827,-0.6243,138.0,96.4,0.545
29.82,31794.3,34751.9,-0.8163,-0.6109,138.0,96.4,0.545
29.84,31836.2,34579.7,-0.6508,-1.0339,138.0,96.4,0.545
29.86,31912.9,34548.0,-0.3482,-1.1118,138.0,96.4,0.545
29.88,31891.1,34569.6,-0.4343,-1.0586,138.0,96.4,0.545
29.9,31826.5,34483.3,-0.689,-1.2708,138.0,96.4,0.545
29.92,31647.7,34446.7,-1.3946,-1.3605,138.0,96.4,0.545
29.94,31809.4,34451.5,-0.7567,-1.3488,138.0,96.4,0.545
29.96,31840.8,34550.2,-0.6328,-1.1064,138.0,96.4,0.545
29.98,31936.3,34912.7,-0.256,-0.2157,138.0,96.4,0.545
30.0,32174.5,35203.4,0.6836,0.4985,138.0,96.4,0.545
30.02,32304.7,35537.0,1.1973,1.318,138.0,96.4,0.545
30.04,32399.6,35762.4,1.5716,1.8717,138.0,96.4,0.545
30.06,32398.8,35716.8,1.5682,1.7597,138.0,96.4,0.545
30.08,32364.9,35601.9,1.4347,1.4774,138.0,96.4,0.545
30.1,32268.1,35470.4,1.0527,1.1545,138.0,96.4,0.545
30.12,32070.6,35251.3,0.2737,0.6161,138.0,96.4,0.545
30.14,32097.3,35161.7,0.3793,0.3959,138.0,96.4,0.545
30.16,32018.2,35097.2,0.0669,0.2374,138.0,96.4,0.545
30.18,32053.8,34992.7,0.2075,-0.0193,138.0,96.4,0.545
30.2,31984.8,34964.2,-0.0647,-0.0892,138.0,96.4,0.545
30.22,31858.0,34876.6,-0.5649,-0.3044,138.0,96.4,0.545
30.24,31876.0,34746.7,-0.4939,-0.6236,138.0,96.4,0.545
30.26,31817.0,34629.4,-0.7268,-0.9117,138.0,96.4,0.545
30.28,31780.3,34737.3,-0.8712,-0.6466,138.0,96.4,0.545
30.3,31914.1,34708.7,-0.3435,-0.717,138.0,96.4,0.545
30.32,31894.2,34604.9,-0.4221,-0.9719,138.0,96.4,0.545
30.34,31782.1,34457.3,-0.8642,-1.3347,138.0,96.4,0.545
30.36,31773.2,34452.3,-0.8994,-1.3468,138.0,96.4,0.545
30.38,31732.2,34497.5,-1.061,-1.2358,138.0,96.4,0.545
30.4,31830.3,34680.9,-0.6742,-0.7854,138.0,96.4,0.545
30.42,31923.8,35001.6,-0.3055,0.0026,138.0,96.4,0.545
30.44,32167.1,35251.7,0.6544,0.617,138.0,96.4,0.545
30.46,32339.8,35601.7,1.3356,1.477,138.0,96.4,0.545
30.48,32409.5,35708.9,1.6105,1.7403,138.0,96.4,0.545
30.5,32349.9,35783.5,1.3756,1.9237,138.0,96.4,0.545
30.52,32207.5,35545.1,0.8137,1.3379,138.0,96.4,0.545
30.54,32128.5,35367.6,0.5023,0.9018,138.0,96.4,0.545
30.56,32046.5,35178.9,0.1787,0.4382,138.0,96.4,0.545
30.58,32076.0,35120.8,0.2949,0.2954,138.0,96.4,0.545
30.6,32050.8,35069.1,0.1956,0.1684,138.0,96.4,0.545
30.62,32009.6,34992.7,0.0333,-0.0192,138.0,96.4,0.545
30.64,31930.5,35010.4,-0.2788,0.0243,138.0,96.4,0.545
30.66,31908.5,34850.5,-0.3657,-0.3686,138.0,96.4,0.545
30.68,31878.4,34737.9,-0.4845,-0.6452,138.0,96.4,0.545
30.7,31859.3,34666.8,-0.56,-0.8199,138.0,96.4,0.545
30.72,31859.3,34692.8,-0.5599,-0.7561,138.0,96.4,0.545
30.74,31835.5,34629.4,-0.6538,-0.9118,138.0,96.4,0.545
30.76,31793.4,34570.5,-0.8199,-1.0564,138.0,96.4,0.545
30.78,31787.2,34581.4,-0.844,-1.0296,138.0,96.4,0.545
30.8,31723.4,34528.8,-1.0958,-1.1589,138.0,96.4,0.545
30.82,31769.4,34533.4,-0.9146,-1.1477,138.0,96.4,0.545
30.84,31908.8,34746.3,-0.3644,-0.6245,138.0,96.4,0.545
30.86,32012.4,35078.8,0.044,0.1922,138.0,96.4,0.545
30.88,32260.6,35381.2,1.0233,0.9353,138.0,96.4,0.545
30.9,32304.7,35765.7,1.1971,1.88,138.0,96.4,0.545
30.92,32388.7,35737.4,1.5286,1.8104,138.0,96.4,0.545
30.94,32263.9,35639.3,1.0364,1.5694,138.0,96.4,0.545
30.96,32248.0,35443.4,0.9737,1.0882,138.0,96.4,0.545
30.98,32126.6,35284.1,0.4947,0.6968,138.0,96.4,0.545
31.0,32124.8,35128.2,0.4877,0.3136,138.0,96.4,0.545
31.02,32013.8,35100.1,0.0496,0.2445,138.0,96.4,0.545
31.04,32078.6,35075.5,0.3053,0.1842,138.0,96.4,0.545
31.06,32020.1,35007.7,0.0746,0.0176,138.0,96.4,0.545
31.08,31975.0,34960.5,-0.1035,-0.0982,138.0,96.4,0.545
31.1,31920.1,34711.6,-0.3201,-0.7099,138.0,96.4,0.545
31.12,31838.1,34690.7,-0.6436,-0.7612,138.0,96.4,0.545
31.14,31918.9,34685.4,-0.3246,-0.7742,138.0,96.4,0.545
31.16,31747.7,34650.4,-0.9999,-0.8603,138.0,96.4,0.545
31.18,31826.3,34629.2,-0.6898,-0.9122,138.0,96.4,0.545
31.2,31873.3,34561.5,-0.5046,-1.0785,138.0,96.4,0.545
31.22,31731.6,34442.6,-1.0637,-1.3708,138.0,96.4,0.545
31.24,31670.7,34445.7,-1.3036,-1.3632,138.0,96.4,0.545
31.26,31782.2,34567.1,-0.8641,-1.0647,138.0,96.4,0.545
31.28,31848.2,34858.8,-0.6034,-0.3481,138.0,96.4,0.545
31.3,32121.7,35161.7,0.4754,0.3959,138.0,96.4,0.545
31.32,32172.0,35584.9,0.6739,1.4357,138.0,96.4,0.545
31.34,32474.2,35635.1,1.8658,1.559,138.0,96.4,0.545
31.36,32408.4,35760.7,1.6061,1.8677,138.0,96.4,0.545
31.38,32395.1,35701.2,1.5537,1.7213,138.0,96.4,0.545
31.4,32321.7,35465.6,1.2641,1.1425,138.0,96.4,0.545
31.42,32123.6,35215.9,0.4828,0.5292,138.0,96.4,0.545
31.44,32154.0,35112.9,0.6029,0.2762,138.0,96.4,0.545
31.46,32014.0,35095.4,0.0505,0.2331,138.0,96.4,0.545
31.48,32032.1,35009.7,0.1218,0.0225,138.0,96.4,0.545
31.5,31858.7,34939.9,-0.5623,-0.149,138.0,96.4,0.545
31.52,31920.2,34963.9,-0.3196,-0.09,138.0,96.4,0.545
31.54,31866.3,34763.6,-0.532,-0.5821,138.0,96.4,0.545
31.56,31792.2,34759.3,-0.8244,-0.5926,138.0,96.4,0.545
31.58,31826.9,34716.0,-0.6878,-0.6989,138.0,96.4,0.545
31.6,31804.4,34609.5,-0.7763,-0.9606,138.0,96.4,0.545
31.62,31794.6,34641.6,-0.8151,-0.8817,138.0,96.4,0.545
31.64,31754.6,34503.5,-0.9726,-1.221,138.0,96.4,0.545
31.66,31728.8,34494.3,-1.0747,-1.2436,138.0,96.4,0.545
31.68,31702.2,34469.7,-1.1795,-1.3042,138.0,96.4,0.545
31.7,31734.1,34556.8,-1.0535,-1.0902,138.0,96.4,0.545
31.72,31874.9,34947.4,-0.4982,-0.1306,138.0,96.4,0.545
31.74,32189.4,35213.2,0.7424,0.5224,138.0,96.4,0.545
31.76,32242.6,35551.6,0.9522,1.3538,138.0,96.4,0.545
31.78,32376.2,35769.6,1.4794,1.8895,138.0,96.4,0.545
31.8,32427.3,35696.6,1.6807,1.7102,138.0,96.4,0.545
31.82,32343.1,35560.4,1.3486,1.3754,138.0,96.4,0.545
31.84,32196.4,35464.7,0.7699,1.1405,138.0,96.4,0.545
31.86,32063.3,35252.7,0.2449,0.6195,138.0,96.4,0.545
31.88,32102.9,35183.1,0.4011,0.4486,138.0,96.4,0.545
31.9,32072.6,35062.9,0.2818,0.1532,138.0,96.4,0.545
31.92,32017.3,34987.2,0.0634,-0.0328,138.0,96.4,0.545
31.94,31961.4,35011.5,-0.1571,0.027,138.0,96.4,0.545
31.96,31882.2,34758.7,-0.4695,-0.5941,138.0,96.4,0.545
31.98,31857.0,34764.0,-0.5689,-0.581,138.0,96.4,0.545
32.0,31766.9,34699.0,-0.9241,-0.7409,138.0,96.4,0.545
32.02,31807.0,34553.3,-0.766,-1.0986,138.0,96.4,0.545
32.04,31757.4,34590.8,-0.9617,-1.0066,138.0,96.4,0.545
32.06,31739.8,34565.8,-1.0313,-1.0681,138.0,96.4,0.545
32.08,31892.4,34595.8,-0.4292,-0.9942,138.0,96.4,0.545
32.1,31782.6,34505.2,-0.8624,-1.2169,138.0,96.4,0.545
32.12,31749.2,34527.8,-0.994,-1.1613,138.0,96.4,0.545
32.14,31876.9,34697.3,-0.4903,-0.7451,138.0,96.4,0.545
32.16,32077.0,35008.0,0.2992,0.0184,138.0,96.4,0.545
32.18,32203.3,35353.3,0.7973,0.8666,138.0,96.4,0.545
32.2,32297.6,35616.9,1.1693,1.5143,138.0,96.4,0.545
32.22,32442.7,35788.7,1.7414,1.9364,138.0,96.4,0.545
32.24,32356.8,35728.1,1.4027,1.7875,138.0,96.4,0.545
32.26,32302.3,35598.7,1.1878,1.4696,138.0,96.4,0.545
32.28,32119.6,35348.2,0.467,0.8543,138.0,96.4,0.545
32.3,32081.8,35176.8,0.3178,0.4331,138.0,96.4,0.545
32.32,32146.2,35166.7,0.572,0.4083,138.0,96.4,0.545
32.34,32024.7,35095.7,0.0928,0.2338,138.0,96.4,0.545
32.36,32095.0,35043.2,0.3701,0.1049,138.0,96.4,0.545
32.38,31850.6,34877.8,-0.5942,-0.3014,138.0,96.4,0.545
32.4,31955.2,34733.0,-0.1814,-0.6571,138.0,96.4,0.545
32.42,31904.0,34796.3,-0.3833,-0.5017,138.0,96.4,0.545
32.44,31859.6,34651.5,-0.5588,-0.8574,138.0,96.4,0.545
32.46,31899.0,34653.3,-0.4031,-0.8531,138.0,96.4,0.545
32.48,31841.6,34677.2,-0.6295,-0.7944,138.0,96.4,0.545
32.5,31797.5,34518.0,-0.8037,-1.1856,138.0,96.4,0.545
32.52,31775.6,34539.6,-0.8899,-1.1325,138.0,96.4,0.545
32.54,31760.0,34473.6,-0.9514,-1.2946,138.0,96.4,0.545
32.56,31733.2,34477.0,-1.057,-1.2863,138.0,96.4,0.545
32.58,31869.6,34731.1,-0.519,-0.662,138.0,96.4,0.545
32.6,32080.5,35084.8,0.3128,0.2071,138.0,96.4,0.545
32.62,32219.0,35413.7,0.8591,1.015,138.0,96.4,0.545
32.64,32364.6,35623.1,1.4336,1.5295,138.0,96.4,0.545
32.66,32360.5,35766.3,1.4174,1.8813,138.0,96.4,0.545
32.68,32307.1,35714.1,1.2066,1.7531,138.0,96.4,0.545
32.7,32257.8,35519.8,1.012,1.2757,138.0,96.4,0.545
32.72,32249.7,35189.7,0.9802,0.4647,138.0,96.4,0.545
32.74,32127.3,35134.0,0.4975,0.328,138.0,96.4,0.545
32.76,32209.1,35176.7,0.8203,0.433,138.0,96.4,0.545
32.78,31969.2,35093.4,-0.1263,0.2282,138.0,96.4,0.545
32.8,31963.9,34997.5,-0.1473,-0.0074,138.0,96.4,0.545
32.82,31871.4,34931.2,-0.512,-0.1704,138.0,96.4,0.545
32.84,31882.3,34786.2,-0.4689,-0.5267,138.0,96.4,0.545
32.86,31862.1,34754.2,-0.5488,-0.6051,138.0,96.4,0.545
32.88,31788.7,34641.3,-0.8382,-0.8826,138.0,96.4,0.545
32.9,31845.6,34659.5,-0.6137,-0.8379,138.0,96.4,0.545
32.92,31817.9,34680.3,-0.7229,-0.7866,138.0,96.4,0.545
32.94,31756.6,34587.8,-0.9651,-1.0139,138.0,96.4,0.545
32.96,31663.6,34434.9,-1.3318,-1.3898,138.0,96.4,0.545
32.98,31778.2,34433.2,-0.8797,-1.3938,138.0,96.4,0.545
33.0,31783.8,34501.1,-0.8578,-1.227,138.0,96.4,0.545
33.02,31927.7,34790.8,-0.2898,-0.5153,138.0,96.4,0.545
33.04,32122.8,35189.7,0.4796,0.4647,138.0,96.4,0.545
33.06,32209.1,35551.2,0.82,1.3529,138.0,96.4,0.545
33.08,32425.3,35841.7,1.6728,2.0666,138.0,96.4,0.545
33.1,32270.5,35791.3,1.0623,1.9429,138.0,96.4,0.545
33.12,32295.5,35658.5,1.1607,1.6165,138.0,96.4,0.545
33.14,32303.0,35487.8,1.1904,1.1971,138.0,96.4,0.545
33.16,32187.6,35277.1,0.7354,0.6794,138.0,96.4,0.545
33.18,32107.9,35101.1,0.4209,0.247,138.0,96.4,0.545
33.2,32191.0,35113.3,0.7485,0.2771,138.0,96.4,0.545
33.22,31910.7,35036.4,-0.3569,0.0881,138.0,96.4,0.545
33.24,31989.8,34960.7,-0.045,-0.0979,138.0,96.4,0.545
33.26,31918.9,34912.3,-0.3245,-0.2167,138.0,96.4,0.545
33.28,31836.4,34735.4,-0.6502,-0.6513,138.0,96.4,0.545
33.3,31920.3,34651.1,-0.3193,-0.8585,138.0,96.4,0.545
33.32,31908.7,34651.2,-0.3648,-0.8583,138.0,96.4,0.545
33.34,31922.6,34650.5,-0.3101,-0.86,138.0,96.4,0.545
33.36,31905.0,34547.0,-0.3796,-1.1141,138.0,96.4,0.545
33.38,31848.2,34454.0,-0.6037,-1.3426,138.0,96.4,0.545
33.4,31663.8,34496.9,-1.3308,-1.2373,138.0,96.4,0.545
33.42,31727.4,34449.8,-1.0799,-1.353,138.0,96.4,0.545
33.44,31795.4,34641.5,-0.8117,-0.8821,138.0,96.4,0.545
33.46,31890.8,34976.1,-0.4356,-0.06,138.0,96.4,0.545
33.48,32068.8,35258.5,0.2666,0.6339,138.0,96.4,0.545
33.5,32280.7,35602.4,1.1025,1.4786,138.0,96.4,0.545
33.52,32355.4,35753.2,1.3973,1.8493,138.0,96.4,0.545
33.54,32388.7,35648.6,1.5285,1.5921,138.0,96.4,0.545
33.56,32259.2,35608.1,1.0176,1.4927,138.0,96.4,0.545
33.58,32221.8,35353.3,0.8702,0.8667,138.0,96.4,0.545
33.6,32092.0,35243.9,0.3583,0.5979,138.0,96.4,0.545
33.62,32076.2,35241.1,0.2957,0.5912,138.0,96.4,0.545
33.64,32044.3,35087.5,0.1701,0.2138,138.0,96.4,0.545
33.66,31961.9,34992.0,-0.1551,-0.0209,138.0,96.4,0.545
33.68,31954.5,34883.1,-0.1841,-0.2885,138.0,96.4,0.545
33.7,31839.7,34814.7,-0.637,-0.4565,138.0,96.4,0.545
33.72,31762.1,34672.6,-0.9431,-0.8055,138.0,96.4,0.545
33.74,31873.7,34653.0,-0.503,-0.8539,138.0,96.4,0.545
33.76,31917.3,34707.6,-0.3309,-0.7196,138.0,96.4,0.545
33.78,31819.5,34645.5,-0.7169,-0.8722,138.0,96.4,0.545
33.8,31845.3,34582.7,-0.615,-1.0266,138.0,96.4,0.545
33.82,31751.8,34494.3,-0.9837,-1.2437,138.0,96.4,0.545
33.84,31762.6,34418.5,-0.9411,-1.4299,138.0,96.4,0.545
33.86,31687.2,34489.2,-1.2388,-1.2563,138.0,96.4,0.545
33.88,31781.8,34622.1,-0.8656,-0.9298,138.0,96.4,0.545
33.9,31998.5,35077.6,-0.0106,0.1893,138.0,96.4,0.545
33.92,32180.8,35342.9,0.7084,0.8411,138.0,96.4,0.545
33.94,32275.9,35699.0,1.0836,1.716,138.0,96.4,0.545
33.96,32441.1,35845.2,1.7355,2.0753,138.0,96.4,0.545
33.98,32365.2,35722.5,1.436,1.7738,138.0,96.4,0.545
34.0,32303.7,35482.9,1.1934,1.1852,138.0,96.4,0.545
34.02,32077.0,35322.5,0.299,0.791,138.0,96.4,0.545
34.04,32140.6,35194.0,0.5497,0.4754,138.0,96.4,0.545
34.06,32030.8,35139.7,0.1168,0.342,138.0,96.4,0.545
34.08,32074.9,35015.3,0.2906,0.0363,138.0,96.4,0.545
34.1,31990.3,35055.1,-0.0432,0.134,138.0,96.4,0.545
34.12,31882.8,34979.5,-0.4671,-0.0515,138.0,96.4,0.545
34.14,31930.1,34821.6,-0.2806,-0.4396,138.0,96.4,0.545
34.16,31802.2,34712.3,-0.7849,-0.708,138.0,96.4,0.545
34.18,31892.4,34728.0,-0.429,-0.6695,138.0,96.4,0.545
34.2,31804.4,34532.1,-0.7763,-1.1509,138.0,96.4,0.545
34.22,31825.7,34697.2,-0.6922,-0.7451,138.0,96.4,0.545
34.24,31805.8,34597.5,-0.771,-0.9901,138.0,96.4,0.545
34.26,31811.2,34535.9,-0.7493,-1.1415,138.0,96.4,0.545
34.28,31744.0,34466.2,-1.0148,-1.3128,138.0,96.4,0.545
34.3,31777.4,34534.0,-0.8827,-1.1461,138.0,96.4,0.545
34.32,31958.5,34682.1,-0.1685,-0.7822,138.0,96.4,0.545
34.34,32061.8,35136.7,0.2389,0.3345,138.0,96.4,0.545
34.36,32145.5,35487.0,0.5693,1.1952,138.0,96.4,0.545
34.38,32263.8,35740.3,1.0359,1.8175,138.0,96.4,0.545
34.4,32350.1,35762.5,1.3764,1.8721,138.0,96.4,0.545
34.42,32373.0,35653.8,1.4667,1.605,138.0,96.4,0.545
34.44,32201.2,35468.1,0.7889,1.1487,138.0,96.4,0.545
34.46,32100.4,35276.7,0.3914,0.6784,138.0,96.4,0.545
34.48,32099.9,35219.2,0.3894,0.5374,138.0,96.4,0.545
34.5,32101.5,35173.5,0.3957,0.4249,138.0,96.4,0.545
34.52,32053.8,34935.1,0.2075,-0.1608,138.0,96.4,0.545
34.54,31976.5,34982.0,-0.0974,-0.0454,138.0,96.4,0.545
34.56,31844.5,34840.2,-0.6181,-0.394,138.0,96.4,0.545
34.58,31917.4,34789.6,-0.3307,-0.5181,138.0,96.4,0.545
34.6,31828.2,34613.3,-0.6825,-0.9514,138.0,96.4,0.545
34.62,31812.2,34654.8,-0.7454,-0.8495,138.0,96.4,0.545
34.64,31848.3,34734.1,-0.6033,-0.6545,138.0,96.4,0.545
34.66,31768.9,34640.9,-0.9165,-0.8835,138.0,96.4,0.545
34.68,31717.3,34563.6,-1.1198,-1.0734,138.0,96.4,0.545
34.7,31731.6,34384.1,-1.0636,-1.5144,138.0,96.4,0.545
34.72,31655.3,34495.7,-1.3643,-1.2404,138.0,96.4,0.545
34.74,31780.3,34482.8,-0.8715,-1.2719,138.0,96.4,0.545
34.76,31961.6,34852.4,-0.1563,-0.364,138.0,96.4,0.545
34.78,32050.5,35134.2,0.1943,0.3285,138.0,96.4,0.545
34.8,32195.3,35476.9,0.7658,1.1703,138.0,96.4,0.545
34.82,32397.1,35713.9,1.5619,1.7526,138.0,96.4,0.545
34.84,32440.6,35850.1,1.7334,2.0872,138.0,96.4,0.545
34.86,32316.7,35729.8,1.2446,1.7917,138.0,96.4,0.545
34.88,32127.2,35461.6,0.497,1.1327,138.0,96.4,0.545
34.9,32097.9,35215.7,0.3813,0.5286,138.0,96.4,0.545
34.92,32095.3,35230.9,0.371,0.566,138.0,96.4,0.545
34.94,32010.0,35205.1,0.0348,0.5026,138.0,96.4,0.545
34.96,32006.4,35092.6,0.0206,0.2262,138.0,96.4,0.545
34.98,31904.3,34931.9,-0.3822,-0.1686,138.0,96.4,0.545
35.0,31932.5,34803.0,-0.2709,-0.4853,138.0,96.4,0.545
35.02,31948.9,34779.1,-0.2064,-0.5441,138.0,96.4,0.545
35.04,31852.9,34610.6,-0.585,-0.9579,138.0,96.4,0.545
35.06,31815.7,34635.0,-0.7319,-0.8981,138.0,96.4,0.545
35.08,31833.3,34693.0,-0.6623,-0.7556,138.0,96.4,0.545
35.1,31854.8,34594.3,-0.5776,-0.998,138.0,96.4,0.545
35.12,31744.0,34528.2,-1.0146,-1.1605,138.0,96.4,0.545
35.14,31712.0,34402.9,-1.1408,-1.4682,138.0,96.4,0.545
35.16,31760.0,34378.0,-0.9513,-1.5295,138.0,96.4,0.545
35.18,31812.7,34684.7,-0.7435,-0.7759,138.0,96.4,0.545
35.2,31921.2,34903.4,-0.3156,-0.2386,138.0,96.4,0.545
35.22,32194.7,35272.5,0.7632,0.6683,138.0,96.4,0.545
35.24,32292.6,35557.3,1.1493,1.3679,138.0,96.4,0.545
35.26,32294.0,35738.0,1.1551,1.8119,138.0,96.4,0.545
35.28,32372.0,35736.1,1.4626,1.8072,138.0,96.4,0.545
35.3,32282.1,35568.7,1.1079,1.3959,138.0,96.4,0.545
35.32,32223.5,35288.1,0.8768,0.7066,138.0,96.4,0.545
35.34,32037.9,35157.6,0.1447,0.386,138.0,96.4,0.545
35.36,32125.6,35100.5,0.4905,0.2457,138.0,96.4,0.545
35.38,32055.0,35059.8,0.2121,0.1455,138.0,96.4,0.545
35.4,31990.2,35074.3,-0.0435,0.1813,138.0,96.4,0.545
35.42,31914.3,34960.9,-0.3427,-0.0973,138.0,96.4,0.545
35.44,31946.6,34845.1,-0.2153,-0.3817,138.0,96.4,0.545
35.46,31865.8,34740.9,-0.5343,-0.6378,138.0,96.4,0.545
35.48,31862.4,34611.9,-0.5474,-0.9549,138.0,96.4,0.545
35.5,31895.7,34689.2,-0.416,-0.7649,138.0,96.4,0.545
35.52,31855.8,34697.9,-0.5735,-0.7435,138.0,96.4,0.545
35.54,31684.0,34641.5,-1.2512,-0.8821,138.0,96.4,0.545
35.56,31651.9,34502.7,-1.378,-1.223,138.0,96.4,0.545
35.58,31704.0,34472.4,-1.1724,-1.2975,138.0,96.4,0.545
35.6,31723.0,34535.5,-1.0974,-1.1426,138.0,96.4,0.545
35.62,31854.6,34693.1,-0.5784,-0.7553,138.0,96.4,0.545
35.64,31948.4,35009.6,-0.2083,0.0224,138.0,96.4,0.545
35.66,32200.3,35384.3,0.7855,0.943,138.0,96.4,0.545
35.68,32370.6,35652.9,1.4573,1.6028,138.0,96.4,0.545
35.7,32372.5,35756.4,1.4645,1.857,138.0,96.4,0.545
35.72,32388.0,35786.4,1.5257,1.9309,138.0,96.4,0.545
35.74,32293.7,35558.4,1.154,1.3706,138.0,96.4,0.545
35.76,32101.9,35354.6,0.3972,0.87,138.0,96.4,0.545
35.78,32035.6,35182.2,0.1355,0.4465,138.0,96.4,0.545
35.8,31977.4,35093.5,-0.0941,0.2285,138.0,96.4,0.545
35.82,32019.9,35012.5,0.0738,0.0294,138.0,96.4,0.545
35.84,32022.8,35013.5,0.0851,0.0318,138.0,96.4,0.545
35.86,31913.6,34937.6,-0.3454,-0.1545,138.0,96.4,0.545
35.88,31921.2,34820.5,-0.3157,-0.4424,138.0,96.4,0.545
35.9,31867.1,34805.0,-0.5288,-0.4805,138.0,96.4,0.545
35.92,31956.5,34696.4,-0.1764,-0.7471,138.0,96.4,0.545
35.94,31878.0,34623.6,-0.4861,-0.9261,138.0,96.4,0.545
35.96,31850.4,34684.0,-0.5951,-0.7777,138.0,96.4,0.545
35.98,31826.7,34623.5,-0.6884,-0.9263,138.0,96.4,0.545
36.0,31670.8,34520.0,-1.3032,-1.1805,138.0,96.4,0.545
36.02,31780.0,34463.2,-0.8727,-1.3202,138.0,96.4,0.545
36.04,31851.1,34541.9,-0.5922,-1.1268,138.0,96.4,0.545
36.06,31881.8,34688.6,-0.4712,-0.7663,138.0,96.4,0.545
36.08,32178.7,35175.0,0.7003,0.4286,138.0,96.4,0.545
36.1,32204.4,35470.4,0.8015,1.1544,138.0,96.4,0.545
36.12,32293.5,35705.0,1.1532,1.7309,138.0,96.4,0.545
36.14,32420.4,35734.7,1.6536,1.8038,138.0,96.4,0.545
36.16,32384.7,35701.9,1.5127,1.7232,138.0,96.4,0.545
36.18,32311.8,35468.0,1.2253,1.1486,138.0,96.4,0.545
36.2,32182.9,35313.0,0.7167,0.7676,138.0,96.4,0.545
36.22,32147.4,35207.0,0.5767,0.5073,138.0,96.4,0.545
36.24,32066.8,35081.2,0.2589,0.1983,138.0,96.4,0.545
36.26,31987.9,35083.7,-0.0525,0.2044,138.0,96.4,0.545
36.28,31971.9,34929.4,-0.1157,-0.1746,138.0,96.4,0.545
36.3,31828.4,34915.4,-0.6818,-0.2091,138.0,96.4,0.545
36.32,31933.5,34784.9,-0.2672,-0.5299,138.0,96.4,0.545
36.34,31931.7,34729.4,-0.274,-0.666,138.0,96.4,0.545
36.36,31843.2,34650.1,-0.6232,-0.8608,138.0,96.4,0.545
36.38,31900.4,34691.4,-0.3976,-0.7596,138.0,96.4,0.545
36.4,31728.9,34534.1,-1.074,-1.146,138.0,96.4,0.545
36.42,31783.0,34517.6,-0.8608,-1.1865,138.0,96.4,0.545
36.44,31776.2,34459.8,-0.8876,-1.3286,138.0,96.4,0.545
36.46,31690.3,34526.9,-1.2264,-1.1635,138.0,96.4,0.545
36.48,31756.2,34503.8,-0.9666,-1.2202,138.0,96.4,0.545
36.5,31974.6,34833.9,-0.1049,-0.4093,138.0,96.4,0.545
36.52,32179.5,35263.3,0.7033,0.6455,138.0,96.4,0.545
36.54,32271.8,35584.6,1.0674,1.4349,138.0,96.4,0.545
36.56,32294.7,35725.1,1.1579,1.7801,138.0,96.4,0.545
36.58,32453.6,35675.2,1.7847,1.6577,138.0,96.4,0.545
36.6,32297.7,35601.6,1.1695,1.4769,138.0,96.4,0.545
36.62,32233.1,35338.5,0.9149,0.8304,138.0,96.4,0.545
36.64,32105.6,35212.7,0.412,0.5213,138.0,96.4,0.545
36.66,32087.7,35124.4,0.341,0.3043,138.0,96.4,0.545
36.68,32104.4,35064.0,0.4072,0.1559,138.0,96.4,0.545
36.7,32045.0,35004.0,0.1726,0.0085,138.0,96.4,0.545
36.72,31942.3,34944.1,-0.2325,-0.1387,138.0,96.4,0.545
36.74,31989.4,34845.9,-0.0464,-0.38,138.0,96.4,0.545
36.76,31796.8,34789.5,-0.8063,-0.5184,138.0,96.4,0.545
36.78,31937.9,34694.9,-0.2497,-0.751,138.0,96.4,0.545
36.8,31805.3,34672.6,-0.7728,-0.8056,138.0,96.4,0.545
36.82,31804.7,34680.4,-0.7753,-0.7864,138.0,96.4,0.545
36.84,31846.4,34635.3,-0.6105,-0.8973,138.0,96.4,0.545
36.86,31766.0,34589.9,-0.9278,-1.0089,138.0,96.4,0.545
36.88,31762.8,34537.6,-0.9406,-1.1374,138.0,96.4,0.545
36.9,31702.5,34448.1,-1.1784,-1.3573,138.0,96.4,0.545
36.92,31793.8,34678.1,-0.8181,-0.7922,138.0,96.4,0.545
36.94,31941.9,34980.2,-0.2338,-0.0499,138.0,96.4,0.545
36.96,32139.7,35349.2,0.5462,0.8567,138.0,96.4,0.545
36.98,32351.7,35588.4,1.3826,1.4443,138.0,96.4,0.545
37.0,32363.9,35770.9,1.4308,1.8927,138.0,96.4,0.545
37.02,32270.3,35767.4,1.0617,1.884,138.0,96.4,0.545
37.04,32259.4,35540.7,1.0186,1.3272,138.0,96.4,0.545
37.06,32184.0,35330.5,0.7212,0.8107,138.0,96.4,0.545
37.08,32113.9,35310.7,0.4445,0.7619,138.0,96.4,0.545
37.1,32176.2,35207.7,0.6901,0.5089,138.0,96.4,0.545
37.12,32021.1,35036.5,0.0784,0.0884,138.0,96.4,0.545
37.14,31979.8,35059.8,-0.0846,0.1456,138.0,96.4,0.545
37.16,31916.5,35060.5,-0.334,0.1473,138.0,96.4,0.545
37.18,31910.0,34756.6,-0.3597,-0.5994,138.0,96.4,0.545
37.2,31878.9,34759.4,-0.4824,-0.5923,138.0,96.4,0.545
37.22,31795.3,34632.8,-0.8122,-0.9033,138.0,96.4,0.545
37.24,31827.5,34633.6,-0.6851,-0.9015,138.0,96.4,0.545
37.26,31862.5,34647.3,-0.5471,-0.8678,138.0,96.4,0.545
37.28,31777.9,34462.3,-0.8807,-1.3224,138.0,96.4,0.545
37.3,31810.0,34475.2,-0.7543,-1.2905,138.0,96.4,0.545
37.32,31795.5,34434.6,-0.8113,-1.3903,138.0,96.4,0.545
37.34,31718.4,34423.3,-1.1156,-1.418,138.0,96.4,0.545
37.36,31852.2,34741.0,-0.5878,-0.6377,138.0,96.4,0.545
37.38,32118.1,35050.6,0.4612,0.1231,138.0,96.4,0.545
37.4,32187.9,35440.7,0.7364,1.0813,138.0,96.4,0.545
37.42,32300.0,35633.9,1.1788,1.556,138.0,96.4,0.545
37.44,32252.0,35777.5,0.9892,1.9089,138.0,96.4,0.545
37.46,32374.2,35641.0,1.4714,1.5735,138.0,96.4,0.545
37.48,32257.6,35612.5,1.0113,1.5036,138.0,96.4,0.545
37.5,32203.2,35378.3,0.7968,0.9281,138.0,96.4,0.545
37.52,32048.2,35059.7,0.1855,0.1454,138.0,96.4,0.545
37.54,32056.2,35092.3,0.2169,0.2255,138.0,96.4,0.545
37.56,32040.5,35013.9,0.155,0.0329,138.0,96.4,0.545
37.58,31997.5,35048.0,-0.0147,0.1166,138.0,96.4,0.545
37.6,31993.8,34914.9,-0.0291,-0.2102,138.0,96.4,0.545
37.62,31896.0,34788.4,-0.4151,-0.5211,138.0,96.4,0.545
37.64,31770.5,34711.1,-0.9102,-0.7111,138.0,96.4,0.545
37.66,31910.5,34665.1,-0.3578,-0.8241,138.0,96.4,0.545
37.68,31837.0,34729.8,-0.6479,-0.6651,138.0,96.4,0.545
37.7,31794.7,34599.9,-0.8147,-0.9841,138.0,96.4,0.545
37.72,31816.5,34536.5,-0.7285,-1.1401,138.0,96.4,0.545
37.74,31691.3,34578.0,-1.2225,-1.038,138.0,96.4,0.545
37.76,31729.5,34499.1,-1.0718,-1.2319,138.0,96.4,0.545
37.78,31767.6,34543.5,-0.9216,-1.1228,138.0,96.4,0.545
37.8,31928.2,34772.0,-0.288,-0.5614,138.0,96.4,0.545
37.82,32083.5,35153.7,0.3248,0.3762,138.0,96.4,0.545
37.84,32253.9,35525.4,0.9967,1.2895,138.0,96.4,0.545
37.86,32367.7,35802.9,1.4458,1.9713,138.0,96.4,0.545
37.88,32461.5,35693.2,1.8159,1.7019,138.0,96.4,0.545
37.9,32358.8,35698.4,1.4105,1.7145,138.0,96.4,0.545
37.92,32198.3,35410.3,0.7776,1.0068,138.0,96.4,0.545
37.94,32117.2,35240.5,0.4576,0.5895,138.0,96.4,0.545
37.96,32072.8,35132.2,0.2823,0.3236,138.0,96.4,0.545
37.98,32008.7,35111.8,0.0297,0.2734,138.0,96.4,0.545
38.0,32044.2,34951.7,0.1696,-0.1199,138.0,96.4,0.545
38.02,32011.6,35020.3,0.0411,0.0486,138.0,96.4,0.545
38.04,31921.4,34775.0,-0.3149,-0.5541,138.0,96.4,0.545
38.06,31918.4,34783.4,-0.3266,-0.5333,138.0,96.4,0.545
38.08,31885.9,34738.1,-0.4547,-0.6447,138.0,96.4,0.545
38.1,31924.0,34674.1,-0.3044,-0.802,138.0,96.4,0.545
38.12,31864.2,34636.0,-0.5406,-0.8955,138.0,96.4,0.545
38.14,31793.9,34686.9,-0.8179,-0.7705,138.0,96.4,0.545
38.16,31788.3,34582.9,-0.8399,-1.0261,138.0,96.4,0.545
38.18,31720.6,34424.0,-1.1069,-1.4165,138.0,96.4,0.545
38.2,31683.1,34402.0,-1.2548,-1.4704,138.0,96.4,0.545
38.22,31764.9,34581.7,-0.9322,-1.0289,138.0,96.4,0.545
38.24,31975.8,35006.2,-0.1004,0.0139,138.0,96.4,0.545
38.26,32044.8,35326.4,0.172,0.8007,138.0,96.4,0.545
38.28,32271.7,35559.7,1.0672,1.3737,138.0,96.4,0.545
38.3,32377.4,35706.3,1.4839,1.734,138.0,96.4,0.545
38.32,32345.5,35723.5,1.358,1.7762,138.0,96.4,0.545
38.34,32206.1,35579.5,0.8081,1.4225,138.0,96.4,0.545
38.36,32236.7,35365.2,0.9288,0.8959,138.0,96.4,0.545
38.38,32083.7,35260.9,0.3255,0.6397,138.0,96.4,0.545
38.4,32117.3,35084.7,0.4581,0.2069,138.0,96.4,0.545
38.42,32010.2,35113.8,0.0355,0.2783,138.0,96.4,0.545
38.44,32049.8,35051.3,0.1919,0.1247,138.0,96.4,0.545
38.46,31993.5,35020.8,-0.0303,0.0499,138.0,96.4,0.545
38.48,31964.6,34878.1,-0.1442,-0.3008,138.0,96.4,0.545
38.5,31900.3,34797.3,-0.3981,-0.4993,138.0,96.4,0.545
38.52,31851.8,34797.1,-0.5893,-0.4997,138.0,96.4,0.545
38.54,31812.8,34633.4,-0.7431,-0.902,138.0,96.4,0.545
38.56,31905.3,34670.5,-0.3783,-0.8108,138.0,96.4,0.545
38.58,31818.2,34591.6,-0.722,-1.0045,138.0,96.4,0.545
38.6,31724.8,34568.5,-1.0903,-1.0614,138.0,96.4,0.545
38.62,31785.4,34417.2,-0.8511,-1.4332,138.0,96.4,0.545
38.64,31776.3,34454.1,-0.8872,-1.3425,138.0,96.4,0.545
38.66,31850.6,34625.6,-0.5941,-0.9212,138.0,96.4,0.545
38.68,32112.5,34969.9,0.4392,-0.0753,138.0,96.4,0.545
38.7,32164.2,35358.6,0.6431,0.8797,138.0,96.4,0.545
38.72,32256.6,35654.5,1.0075,1.6066,138.0,96.4,0.545
38.74,32367.8,35925.3,1.4461,2.272,138.0,96.4,0.545
38.76,32383.9,35693.3,1.5096,1.702,138.0,96.4,0.545
38.78,32241.8,35453.4,0.9491,1.1127,138.0,96.4,0.545
38.8,32219.7,35381.0,0.862,0.9347,138.0,96.4,0.545
38.82,32097.3,35254.4,0.3791,0.6236,138.0,96.4,0.545
38.84,32102.8,35152.2,0.401,0.3726,138.0,96.4,0.545
38.86,32107.1,35080.5,0.4177,0.1966,138.0,96.4,0.545
38.88,31967.8,35038.3,-0.1318,0.0929,138.0,96.4,0.545
38.9,31953.0,34959.6,-0.19,-0.1005,138.0,96.4,0.545
38.92,31940.2,34750.0,-0.2405,-0.6154,138.0,96.4,0.545
38.94,31806.5,34702.1,-0.7682,-0.7332,138.0,96.4,0.545
38.96,31826.5,34640.3,-0.6891,-0.885,138.0,96.4,0.545
38.98,31787.8,34636.8,-0.8419,-0.8936,138.0,96.4,0.545
39.0,31773.4,34692.4,-0.8988,-0.7569,138.0,96.4,0.545
39.02,31741.1,34593.8,-1.0261,-0.9992,138.0,96.4,0.545
39.04,31726.2,34522.9,-1.085,-1.1734,138.0,96.4,0.545
39.06,31729.0,34396.8,-1.0738,-1.4832,138.0,96.4,0.545
39.08,31723.6,34511.8,-1.0949,-1.2008,138.0,96.4,0.545
39.1,31803.0,34771.1,-0.782,-0.5636,138.0,96.4,0.545
39.12,32049.3,35063.5,0.1898,0.1548,138.0,96.4,0.545
39.14,32206.6,35484.9,0.8101,1.19,138.0,96.4,0.545
39.16,32354.6,35689.5,1.394,1.6928,138.0,96.4,0.545
39.18,32309.0,35662.9,1.2141,1.6273,138.0,96.4,0.545
39.2,32352.4,35707.3,1.3855,1.7364,138.0,96.4,0.545
39.22,32243.3,35449.5,0.9548,1.103,138.0,96.4,0.545
39.24,32092.0,35175.1,0.3582,0.4289,138.0,96.4,0.545
39.26,32135.5,35170.8,0.5296,0.4184,138.0,96.4,0.545
39.28,32057.3,35091.1,0.2212,0.2224,138.0,96.4,0.545
39.3,32047.8,34972.6,0.1839,-0.0685,138.0,96.4,0.545
39.32,32040.2,34983.3,0.1537,-0.0422,138.0,96.4,0.545
39.34,31904.4,34875.7,-0.3818,-0.3066,138.0,96.4,0.545
39.36,31922.8,34849.3,-0.3093,-0.3716,138.0,96.4,0.545
39.38,31900.4,34672.8,-0.3977,-0.805,138.0,96.4,0.545
39.4,31910.7,34625.8,-0.3572,-0.9207,138.0,96.4,0.545
39.42,31804.4,34621.3,-0.7765,-0.9318,138.0,96.4,0.545
39.44,31769.8,34611.2,-0.9128,-0.9564,138.0,96.4,0.545
39.46,31862.0,34533.5,-0.5492,-1.1474,138.0,96.4,0.545
39.48,31693.1,34566.2,-1.2156,-1.067,138.0,96.4,0.545
39.5,31709.6,34459.3,-1.1504,-1.3297,138.0,96.4,0.545
39.52,31777.3,34635.5,-0.8831,-0.8967,138.0,96.4,0.545
39.54,31885.6,34869.3,-0.456,-0.3224,138.0,96.4,0.545
39.56,32105.4,35155.7,0.4111,0.3811,138.0,96.4,0.545
39.58,32139.8,35505.9,0.5467,1.2416,138.0,96.4,0.545
39.6,32356.6,35660.7,1.4018,1.622,138.0,96.4,0.545
39.62,32419.5,35609.9,1.6501,1.4971,138.0,96.4,0.545
39.64,32306.4,35554.2,1.2039,1.3602,138.0,96.4,0.545
39.66,32235.0,35457.3,0.9223,1.1222,138.0,96.4,0.545
39.68,32085.9,35136.7,0.3339,0.3347,138.0,96.4,0.545
39.7,32061.4,35182.7,0.2375,0.4477,138.0,96.4,0.545
39.72,31985.2,35035.2,-0.0632,0.0853,138.0,96.4,0.545
39.74,31988.2,34996.0,-0.0513,-0.011,138.0,96.4,0.545
39.76,32016.8,35047.8,0.0615,0.1161,138.0,96.4,0.545
39.78,31885.0,34882.0,-0.4584,-0.2912,138.0,96.4,0.545
39.8,31858.6,34750.8,-0.5625,-0.6135,138.0,96.4,0.545
39.82,31931.7,34680.4,-0.2743,-0.7865,138.0,96.4,0.545
39.84,31853.1,34721.7,-0.5841,-0.6849,138.0,96.4,0.545
39.86,31729.9,34590.0,-1.0702,-1.0085,138.0,96.4,0.545
39.88,31728.5,34558.6,-1.0758,-1.0858,138.0,96.4,0.545
39.9,31799.8,34491.5,-0.7944,-1.2505,138.0,96.4,0.545
39.92,31754.9,34407.7,-0.9718,-1.4564,138.0,96.4,0.545
39.94,31778.6,34513.3,-0.8783,-1.197,138.0,96.4,0.545
39.96,31735.7,34614.6,-1.0474,-0.948,138.0,96.4,0.545
39.98,31948.5,34902.8,-0.208,-0.2401,138.0,96.4,0.545
40.0,32115.2,35286.3,0.4497,0.702,138.0,96.4,0.545
40.02,32283.0,35586.4,1.1117,1.4394,138.0,96.4,0.546
40.04,32433.9,35827.6,1.707,2.0321,138.0,96.3,0.547
40.06,32497.3,35730.2,1.957,1.7927,138.0,96.3,0.547
40.08,32303.6,35531.3,1.1927,1.3041,137.9,96.3,0.548
40.1,32152.8,35413.1,0.5978,1.0135,137.9,96.3,0.548
40.12,32096.0,35198.5,0.374,0.4864,137.9,96.3,0.549
40.14,32073.9,35171.3,0.2867,0.4195,137.9,96.3,0.549
40.16,32049.0,35017.0,0.1885,0.0404,137.9,96.3,0.55
40.18,32021.4,35122.1,0.0795,0.2986,137.8,96.2,0.55
40.2,32028.0,34873.3,0.1057,-0.3126,137.8,96.2,0.551
40.22,31913.9,34838.9,-0.3442,-0.3971,137.8,96.2,0.551
40.24,31924.3,34707.6,-0.3032,-0.7196,137.8,96.2,0.552
40.26,31878.6,34634.2,-0.4837,-0.8999,137.8,96.2,0.552
40.28,31803.1,34617.1,-0.7815,-0.9421,137.7,96.2,0.553
40.3,31821.9,34653.3,-0.7073,-0.853,137.7,96.2,0.553
40.32,31856.0,34594.6,-0.5728,-0.9973,137.7,96.2,0.554
40.34,31825.5,34500.5,-0.6931,-1.2284,137.7,96.1,0.554
40.36,31662.5,34428.1,-1.3359,-1.4063,137.7,96.1,0.555
40.38,31733.8,34488.5,-1.0547,-1.258,137.6,96.1,0.555
40.4,31842.0,34637.2,-0.6278,-0.8927,137.6,96.1,0.556
40.42,32045.6,35053.1,0.1752,0.1292,137.6,96.1,0.556
40.44,32290.6,35431.2,1.1417,1.058,137.6,96.1,0.557
40.46,32291.6,35683.1,1.1457,1.677,137.6,96.1,0.557
40.48,32407.4,35792.9,1.6024,1.9467,137.5,96.1,0.558
40.5,32411.4,35773.1,1.6183,1.898,137.5,96.0,0.558
40.52,32249.0,35530.5,0.9775,1.3021,137.5,96.0,0.559
40.54,32176.9,35369.8,0.693,0.9074,137.5,96.0,0.559
40.56,32070.6,35182.7,0.2739,0.4476,137.5,96.0,0.56
40.58,32076.5,35069.5,0.2969,0.1696,137.4,96.0,0.56
40.6,32051.0,35169.5,0.1963,0.4152,137.4,96.0,0.561
40.62,31985.1,35026.6,-0.0637,0.0641,137.4,96.0,0.561
40.64,32022.9,34970.8,0.0854,-0.073,137.4,96.0,0.562
40.66,31820.3,34812.2,-0.7135,-0.4627,137.4,95.9,0.562
40.68,31729.4,34691.7,-1.0723,-0.7588,137.3,95.9,0.563
40.7,31778.5,34719.6,-0.8783,-0.6902,137.3,95.9,0.563
40.72,31848.5,34584.9,-0.6025,-1.021,137.3,95.9,0.564
40.74,31798.7,34768.3,-0.7988,-0.5704,137.3,95.9,0.564
40.76,31772.3,34559.3,-0.9031,-1.084,137.3,95.9,0.565
40.78,31765.2,34569.7,-0.9309,-1.0585,137.2,95.9,0.565
40.8,31738.4,34399.2,-1.0367,-1.4773,137.2,95.9,0.566
40.82,31763.5,34514.2,-0.9375,-1.1947,137.2,95.8,0.566
40.84,31929.1,34710.3,-0.2845,-0.713,137.2,95.8,0.567
40.86,31994.5,35010.4,-0.0263,0.0242,137.2,95.8,0.567
40.88,32254.8,35376.2,1.0004,0.923,137.1,95.8,0.568
40.9,32394.5,35721.3,1.5515,1.7709,137.1,95.8,0.568
40.92,32359.8,35698.0,1.4144,1.7135,137.1,95.8,0.569
40.94,32371.9,35635.6,1.4624,1.5602,137.1,95.8,0.569
40.96,32197.8,35518.5,0.7755,1.2725,137.1,95.8,0.57
40.98,32138.7,35235.8,0.5423,0.578,137.0,95.7,0.57
41.0,32096.8,35236.2,0.3769,0.5791,137.0,95.7,0.571
41.02,32102.8,35166.5,0.4008,0.4079,137.0,95.7,0.571
41.04,32121.1,35011.4,0.4731,0.0268,137.0,95.7,0.572
41.06,31984.0,35047.2,-0.0677,0.1146,137.0,95.7,0.572
41.08,31929.9,34933.0,-0.2813,-0.1659,136.9,95.7,0.573
41.1,31921.7,34757.2,-0.3136,-0.5979,136.9,95.7,0.573
41.12,31973.7,34719.1,-0.1086,-0.6913,136.9,95.7,0.574
41.14,31871.7,34695.0,-0.5109,-0.7507,136.9,95.6,0.575
41.16,31829.2,34686.5,-0.6784,-0.7716,136.9,95.6,0.575
41.18,31821.0,34566.4,-0.7107,-1.0666,136.8,95.6,0.576
41.2,31796.0,34672.9,-0.8096,-0.805,136.8,95.6,0.576
41.22,31661.7,34467.3,-1.3391,-1.3101,136.8,95.6,0.577
41.24,31740.6,34469.9,-1.0279,-1.3036,136.8,95.6,0.577
41.26,31781.8,34529.2,-0.8654,-1.158,136.8,95.6,0.578
41.28,31837.9,34743.8,-0.6441,-0.6308,136.7,95.5,0.578
41.3,32150.4,35149.4,0.5886,0.3657,136.7,95.5,0.579
41.32,32145.9,35422.9,0.5708,1.0377,136.7,95.5,0.579
41.34,32305.7,35698.5,1.2013,1.7149,136.7,95.5,0.58
41.36,32404.5,35760.0,1.591,1.8658,136.7,95.5,0.58
41.38,32345.3,35692.1,1.3575,1.699,136.6,95.5,0.581
41.4,32294.5,35502.3,1.1568,1.2328,136.6,95.5,0.581
41.42,32105.3,35410.2,0.4106,1.0065,136.6,95.5,0.582
41.44,32065.0,35091.0,0.2517,0.2222,136.6,95.4,0.582
41.46,32038.5,35121.5,0.1473,0.2973,136.6,95.4,0.583
41.48,32084.8,35049.6,0.3299,0.1207,136.5,95.4,0.583
41.5,31983.5,35074.8,-0.07,0.1824,136.5,95.4,0.584
41.52,31950.4,34872.7,-0.2004,-0.314,136.5,95.4,0.584
41.54,31841.6,34835.3,-0.6296,-0.4058,136.5,95.4,0.585
41.56,31840.6,34601.6,-0.6335,-0.9801,136.5,95.4,0.585
41.58,31800.2,34722.9,-0.7931,-0.682,136.4,95.4,0.586
41.6,31914.8,34628.0,-0.3408,-0.9153,136.4,95.3,0.586
41.62,31772.9,34688.6,-0.9007,-0.7663,136.4,95.3,0.587
41.64,31847.3,34569.3,-0.6071,-1.0594,136.4,95.3,0.587
41.66,31665.4,34423.6,-1.3249,-1.4174,136.4,95.3,0.588
41.68,31747.0,34517.5,-1.0029,-1.1867,136.3,95.3,0.588
41.7,31670.1,34474.5,-1.306,-1.2923,136.3,95.3,0.589
41.72,31911.5,34739.3,-0.3537,-0.6419,136.3,95.3,0.589
41.74,32038.3,35149.4,0.1464,0.3659,136.3,95.3,0.59
41.76,32311.7,35445.5,1.2247,1.0933,136.3,95.2,0.59
41.78,32322.6,35712.3,1.268,1.7487,136.2,95.2,0.591
41.8,32438.8,35814.3,1.726,1.9992,136.2,95.2,0.591
41.82,32350.6,35668.7,1.3781,1.6415,136.2,95.2,0.592
41.84,32299.0,35522.1,1.1746,1.2813,136.2,95.2,0.592
41.86,32136.1,35254.9,0.5323,0.6249,136.2,95.2,0.593
41.88,31993.8,35186.9,-0.0294,0.4578,136.1,95.2,0.593
41.9,32133.1,35130.7,0.5202,0.3198,136.1,95.2,0.594
41.92,32152.7,35027.5,0.5975,0.0663,136.1,95.1,0.594
41.94,32016.3,34948.7,0.0596,-0.1272,136.1,95.1,0.595
41.96,31926.9,34911.4,-0.2929,-0.219,136.1,95.1,0.595
41.98,31857.3,34834.4,-0.5676,-0.4081,136.0,95.1,0.596
42.0,31901.6,34716.0,-0.3931,-0.699,136.0,95.1,0.596
42.02,31778.1,34690.7,-0.88,-0.7612,136.0,95.1,0.597
42.04,31786.6,34607.5,-0.8468,-0.9656,136.0,95.1,0.597
42.06,31794.2,34654.1,-0.8167,-0.8511,136.0,95.1,0.598
42.08,31701.6,34594.4,-1.1818,-0.9977,135.9,95.0,0.598
42.1,31648.5,34533.2,-1.3915,-1.1481,135.9,95.0,0.599
42.12,31708.5,34451.5,-1.1547,-1.3489,135.9,95.0,0.599
42.14,31671.1,34542.2,-1.3021,-1.126,135.9,95.0,0.6
42.16,31852.9,34726.8,-0.5851,-0.6725,135.9,95.0,0.6
42.18,32024.6,35027.6,0.0921,0.0665,135.8,95.0,0.601
42.2,32230.3,35473.2,0.9035,1.1612,135.8,95.0,0.601
42.22,32329.9,35692.1,1.2966,1.6991,135.8,95.0,0.602
42.24,32413.6,35769.4,1.6269,1.889,135.8,94.9,0.603
42.26,32330.3,35719.0,1.2983,1.7652,135.8,94.9,0.603
42.28,32244.4,35512.7,0.9595,1.2583,135.7,94.9,0.604
42.3,32135.0,35295.0,0.5279,0.7234,135.7,94.9,0.604
42.32,32070.9,35223.7,0.2748,0.5483,135.7,94.9,0.605
42.34,32079.4,35115.1,0.3083,0.2814,135.7,94.9,0.605
42.36,32086.4,35078.2,0.3359,0.1908,135.7,94.9,0.606
42.38,31960.9,34986.8,-0.1592,-0.0338,135.6,94.8,0.606
42.4,31936.7,34963.5,-0.2546,-0.0908,135.6,94.8,0.607
42.42,31920.7,34807.7,-0.3176,-0.4738,135.6,94.8,0.607
42.44,31905.7,34648.0,-0.3768,-0.8661,135.6,94.8,0.608
42.46,31819.4,34645.7,-0.7173,-0.8717,135.6,94.8,0.608
42.48,31822.5,34621.0,-0.705,-0.9325,135.5,94.8,0.609
42.5,31823.9,34635.4,-0.6994,-0.8971,135.5,94.8,0.609
42.52,31735.5,34617.9,-1.0483,-0.94,135.5,94.8,0.61
42.54,31753.4,34414.0,-0.9774,-1.441,135.5,94.7,0.61
42.56,31734.5,34479.4,-1.0523,-1.2802,135.5,94.7,0.611
42.58,31779.3,34529.4,-0.8753,-1.1576,135.4,94.7,0.611
42.6,31726.1,34646.1,-1.0852,-0.8709,135.4,94.7,0.612
42.62,31941.4,34987.7,-0.2361,-0.0316,135.4,94.7,0.612
42.64,32197.8,35391.4,0.7757,0.9604,135.4,94.7,0.613
42.66,32336.9,35670.5,1.3241,1.646,135.4,94.7,0.613
42.68,32444.9,35741.9,1.7502,1.8214,135.3,94.7,0.614
42.7,32411.9,35698.8,1.6201,1.7155,135.3,94.6,0.614
42.72,32254.8,35506.6,1.0005,1.2435,135.3,94.6,0.615
42.74,32126.3,35361.1,0.4933,0.8858,135.3,94.6,0.615
42.76,32073.5,35177.2,0.2851,0.4342,135.3,94.6,0.616
42.78,31982.8,35145.0,-0.0726,0.3549,135.2,94.6,0.616
42.8,32023.1,35052.7,0.0865,0.1283,135.2,94.6,0.617
42.82,32060.9,34956.2,0.2354,-0.1089,135.2,94.6,0.617
42.84,31931.2,34976.5,-0.2763,-0.059,135.2,94.6,0.618
42.86,31919.0,34832.6,-0.3241,-0.4126,135.2,94.5,0.618
42.88,31885.5,34795.2,-0.4564,-0.5043,135.1,94.5,0.619
42.9,31790.1,34643.7,-0.8328,-0.8765,135.1,94.5,0.619
42.92,31847.4,34702.8,-0.6066,-0.7314,135.1,94.5,0.62
42.94,31824.3,34654.9,-0.698,-0.8491,135.1,94.5,0.62
42.96,31829.9,34609.3,-0.6757,-0.9611,135.1,94.5,0.621
42.98,31733.1,34472.9,-1.0575,-1.2963,135.0,94.5,0.621
43.0,31680.2,34444.4,-1.2664,-1.3663,135.0,94.5,0.622
43.02,31756.9,34544.7,-0.9636,-1.1199,135.0,94.4,0.622
43.04,31736.5,34634.4,-1.0442,-0.8995,135.0,94.4,0.623
43.06,32043.5,34929.7,0.1667,-0.174,135.0,94.4,0.623
43.08,32223.8,35273.2,0.8781,0.6699,134.9,94.4,0.624
43.1,32285.1,35631.3,1.12,1.5498,134.9,94.4,0.624
43.12,32413.4,35672.6,1.6259,1.6512,134.9,94.4,0.625
43.14,32380.5,35696.2,1.4963,1.7093,134.9,94.4,0.625
43.16,32316.8,35589.1,1.2448,1.4462,134.9,94.4,0.626
43.18,32211.8,35346.3,0.8307,0.8496,134.8,94.3,0.626
43.2,32235.9,35214.5,0.9258,0.5256,134.8,94.3,0.627
43.22,32123.5,35114.7,0.4826,0.2805,134.8,94.3,0.627
43.24,32132.8,35056.2,0.5193,0.1367,134.8,94.3,0.628
43.26,32061.9,35078.2,0.2394,0.1908,134.8,94.3,0.628
43.28,32060.1,34880.8,0.2323,-0.2942,134.7,94.3,0.629
43.3,31935.3,34865.0,-0.2599,-0.3328,134.7,94.3,0.629
43.32,31871.8,34800.2,-0.5103,-0.4922,134.7,94.3,0.63
43.34,31843.4,34771.8,-0.6226,-0.5618,134.7,94.2,0.631
43.36,31866.9,34646.9,-0.53,-0.8689,134.7,94.2,0.631
43.38,31823.1,34683.8,-0.7026,-0.7781,134.6,94.2,0.632
43.4,31744.9,34587.4,-1.0112,-1.015,134.6,94.2,0.632
43.42,31701.6,34497.5,-1.182,-1.2359,134.6,94.2,0.633
43.44,31698.6,34517.0,-1.1939,-1.1878,134.6,94.2,0.633
43.46,31822.9,34372.6,-0.7034,-1.5428,134.6,94.2,0.634
43.48,31708.7,34611.1,-1.1538,-0.9567,134.5,94.1,0.634
43.5,31928.4,34865.8,-0.2873,-0.3309,134.5,94.1,0.635
43.52,32106.2,35287.4,0.4144,0.7048,134.5,94.1,0.635
43.54,32312.7,35550.1,1.2287,1.3501,134.5,94.1,0.636
43.56,32395.7,35721.6,1.556,1.7716,134.5,94.1,0.636
43.58,32475.9,35743.2,1.8726,1.8247,134.4,94.1,0.637
43.6,32338.8,35595.6,1.3317,1.4621,134.4,94.1,0.637
43.62,32332.9,35468.0,1.3086,1.1484,134.4,94.1,0.638
43.64,32192.2,35256.9,0.7534,0.6299,134.4,94.0,0.638
43.66,32130.1,35159.8,0.5086,0.3913,134.4,94.0,0.639
43.68,32090.8,35142.1,0.3534,0.3477,134.3,94.0,0.639
43.7,32054.5,35017.9,0.2103,0.0426,134.3,94.0,0.64
43.72,32000.7,35024.4,-0.0018,0.0586,134.3,94.0,0.64
43.74,31994.3,34825.2,-0.0274,-0.4308,134.3,94.0,0.641
43.76,31888.8,34957.9,-0.4436,-0.1048,134.3,94.0,0.641
43.78,31747.1,34699.4,-1.0026,-0.7398,134.2,94.0,0.642
43.8,31912.6,34687.6,-0.3495,-0.7688,134.2,93.9,0.642
43.82,31745.3,34785.5,-1.0093,-0.5283,134.2,93.9,0.643
43.84,31796.4,34646.0,-0.808,-0.871,134.2,93.9,0.643
43.86,31698.8,34529.2,-1.1929,-1.158,134.2,93.9,0.644
43.88,31726.5,34484.6,-1.0837,-1.2675,134.1,93.9,0.644
43.9,31639.8,34412.6,-1.4258,-1.4444,134.1,93.9,0.645
43.92,31725.5,34443.9,-1.0875,-1.3676,134.1,93.9,0.645
43.94,31807.0,34798.9,-0.7659,-0.4953,134.1,93.9,0.646
43.96,31974.5,35151.9,-0.1055,0.3718,134.1,93.8,0.646
43.98,32310.5,35404.4,1.2202,0.9923,134.0,93.8,0.647
44.0,32316.7,35712.6,1.2447,1.7494,134.0,93.8,0.647
44.02,32494.3,35866.1,1.9451,2.1266,134.0,93.8,0.648
44.04,32319.9,35740.7,1.2571,1.8184,134.0,93.8,0.648
44.06,32197.9,35429.8,0.7759,1.0546,134.0,93.8,0.649
44.08,32178.1,35355.3,0.6979,0.8716,133.9,93.8,0.649
44.1,32162.8,35251.2,0.6374,0.6159,133.9,93.8,0.65
44.12,32112.3,35140.2,0.4381,0.3431,133.9,93.7,0.65
44.14,32055.6,35126.2,0.2146,0.3088,133.9,93.7,0.651
44.16,32087.2,34943.7,0.3391,-0.1395,133.9,93.7,0.651
44.18,31916.2,34881.8,-0.3354,-0.2918,133.8,93.7,0.652
44.2,31869.6,34828.9,-0.519,-0.4218,133.8,93.7,0.652
44.22,31838.0,34701.5,-0.6438,-0.7346,133.8,93.7,0.653
44.24,31806.0,34718.0,-0.7702,-0.6941,133.8,93.7,0.653
44.26,31781.1,34659.7,-0.8681,-0.8372,133.8,93.7,0.654
44.28,31917.3,34619.7,-0.3311,-0.9356,133.7,93.6,0.654
44.3,31802.9,34589.1,-0.7824,-1.0108,133.7,93.6,0.655
44.32,31700.3,34484.1,-1.1869,-1.2687,133.7,93.6,0.655
44.34,31725.3,34413.4,-1.0883,-1.4425,133.7,93.6,0.656
44.36,31725.2,34523.9,-1.0889,-1.171,133.7,93.6,0.656
44.38,31776.6,34636.4,-0.8862,-0.8947,133.6,93.6,0.657
44.4,32072.6,34966.3,0.2815,-0.084,133.6,93.6,0.657
44.42,32177.1,35336.4,0.6939,0.8252,133.6,93.6,0.658
44.44,32287.2,35583.9,1.1282,1.4331,133.6,93.5,0.659
44.46,32506.8,35861.5,1.9945,2.1152,133.6,93.5,0.659
44.48,32454.1,35789.0,1.7867,1.9372,133.5,93.5,0.66
44.5,32302.1,35574.4,1.1872,1.41,133.5,93.5,0.66
44.52,32254.7,35426.7,1.0002,1.047,133.5,93.5,0.661
44.54,32175.5,35196.9,0.6876,0.4824,133.5,93.5,0.661
44.56,32064.8,35217.6,0.2509,0.5334,133.5,93.5,0.662
44.58,32147.1,35087.8,0.5756,0.2144,133.4,93.4,0.662
44.6,32022.9,35073.2,0.0858,0.1785,133.4,93.4,0.663
44.62,32035.4,34906.4,0.1349,-0.2312,133.4,93.4,0.663
44.64,31873.1,34854.9,-0.5052,-0.3578,133.4,93.4,0.664
44.66,31892.8,34729.0,-0.4275,-0.667,133.4,93.4,0.664
44.68,31890.0,34735.3,-0.4388,-0.6515,133.3,93.4,0.665
44.7,31742.1,34613.7,-1.0221,-0.9504,133.3,93.4,0.665
44.72,31806.9,34623.4,-0.7663,-0.9266,133.3,93.4,0.666
44.74,31807.7,34675.2,-0.7634,-0.7993,133.3,93.3,0.666
44.76,31688.9,34536.3,-1.232,-1.1405,133.3,93.3,0.667
44.78,31704.4,34532.7,-1.1707,-1.1494,133.2,93.3,0.667
44.8,31704.0,34443.0,-1.1723,-1.3698,133.2,93.3,0.668
44.82,31663.8,34442.3,-1.3309,-1.3714,133.2,93.3,0.668
44.84,31877.0,34725.8,-0.49,-0.675,133.2,93.3,0.669
44.86,32038.3,35060.6,0.1463,0.1476,133.2,93.3,0.669
