timestamp,raw_red,raw_ir,filtered_red,filtered_ir,heart_rate,spo2,ac_dc_ratio
0.0,31963.2,35079.3,-0.6156,0.9791,136.5,96.9,0.524
0.02,31992.0,35039.4,-0.1303,0.4901,136.5,96.9,0.524
0.04,32027.8,35083.9,0.4744,1.0358,136.5,96.9,0.524
0.06,32052.8,35132.9,0.8949,1.6351,136.5,96.9,0.524
0.08,31973.8,35129.4,-0.4373,1.592,136.5,96.9,0.524
0.1,32024.6,35068.0,0.4195,0.8409,136.5,96.9,0.524
0.12,32082.4,35053.3,1.3954,0.6609,136.5,96.9,0.524
0.14,32037.7,34999.3,0.6407,-0.0008,136.5,96.9,0.524
0.16,31954.0,34982.8,-0.7702,-0.2026,136.5,96.9,0.524
0.18,31993.3,34979.4,-0.1076,-0.2438,136.5,96.9,0.524
0.2,32040.7,34993.3,0.6908,-0.0742,136.5,96.9,0.524
0.22,31833.2,34920.7,-2.8068,-0.9626,136.5,96.9,0.524
0.24,31959.2,34978.5,-0.682,-0.2557,136.5,96.9,0.524
0.26,32043.2,34898.1,0.7342,-1.2399,136.5,96.9,0.524
0.28,31921.1,34947.8,-1.3255,-0.6315,136.5,96.9,0.524
0.3,31986.4,34907.0,-0.2244,-1.1311,136.5,96.9,0.524
0.32,31909.3,34854.4,-1.5251,-1.7755,136.5,96.9,0.524
0.34,31979.9,34838.8,-0.3329,-1.9657,136.5,96.9,0.524
0.36,31911.4,34936.2,-1.4894,-0.7727,136.5,96.9,0.524
0.38,31919.9,34954.1,-1.3454,-0.5538,136.5,96.9,0.524
0.4,31935.8,34953.9,-1.0767,-0.557,136.5,96.9,0.524
0.42,32105.6,34964.0,1.7854,-0.4331,136.5,96.9,0.524
0.44,32106.5,35063.8,1.8005,0.7897,136.5,96.9,0.524
0.46,31948.2,35129.6,-0.8689,1.595,136.5,96.9,0.524
0.48,32136.7,35046.2,2.3098,0.574,136.5,96.9,0.524
0.5,32112.3,35201.0,1.8985,2.4689,136.5,96.9,0.524
0.52,32098.0,35042.7,1.6572,0.5306,136.5,96.9,0.524
0.54,32023.7,35033.8,0.4055,0.422,136.5,96.9,0.524
0.56,32002.9,35141.6,0.0536,1.742,136.5,96.9,0.524
0.58,31986.2,34971.3,-0.227,-0.344,136.5,96.9,0.524
0.6,32058.5,34976.7,0.9911,-0.2774,136.5,96.9,0.524
0.62,31940.2,35029.9,-1.0024,0.3744,136.5,96.9,0.524
0.64,31960.0,34972.5,-0.6693,-0.3293,136.5,96.9,0.524
0.66,31936.9,35026.0,-1.0596,0.3257,136.5,96.9,0.524
0.68,31998.6,34963.0,-0.0181,-0.445,136.5,96.9,0.524
0.7,31928.0,34908.3,-1.2086,-1.1156,136.5,96.9,0.524
0.72,31995.7,34905.6,-0.0668,-1.1481,136.5,96.9,0.524
0.74,32019.2,34886.8,0.3293,-1.3781,136.5,96.9,0.524
0.76,31932.5,34945.3,-1.1327,-0.662,136.5,96.9,0.524
0.78,31966.9,34996.1,-0.5537,-0.0398,136.5,96.9,0.524
0.8,31924.8,34956.0,-1.2622,-0.5308,136.5,96.9,0.524
0.82,32005.5,34923.7,0.0976,-0.9261,136.5,96.9,0.524
0.84,31962.0,34973.4,-0.636,-0.3177,136.5,96.9,0.524
0.86,32001.4,35016.9,0.0289,0.2147,136.5,96.9,0.524
0.88,32023.9,35088.7,0.4085,1.0936,136.5,96.9,0.524
0.9,32021.1,35081.3,0.3612,1.0036,136.5,96.9,0.524
0.92,32143.1,35183.0,2.418,2.2488,136.5,96.9,0.524
0.94,32073.1,35163.5,1.2379,2.0104,136.5,96.9,0.524
0.96,32057.3,35123.9,0.9709,1.5249,136.5,96.9,0.524
0.98,32030.3,35008.1,0.5158,0.1068,136.5,96.9,0.524
1.0,31986.3,35098.2,-0.2261,1.2104,136.5,96.9,0.524
1.02,31985.7,34944.9,-0.236,-0.6662,136.5,96.9,0.524
1.04,32013.5,34906.9,0.2335,-1.1315,136.5,96.9,0.524
1.06,32007.2,35030.2,0.126,0.3772,136.5,96.9,0.524
1.08,32030.5,35115.8,0.5197,1.4255,136.5,96.9,0.524
1.1,32041.8,34945.8,0.7095,-0.6553,136.5,96.9,0.524
1.12,32015.7,35057.3,0.2693,0.7098,136.5,96.9,0.524
1.14,31951.6,35037.2,-0.8108,0.4637,136.5,96.9,0.524
1.16,31930.3,34972.3,-1.1698,-0.3312,136.5,96.9,0.524
1.18,31936.7,34958.6,-1.0621,-0.4994,136.5,96.9,0.524
1.2,31974.9,34946.9,-0.4188,-0.6419,136.5,96.9,0.524
1.22,31941.4,34909.6,-0.9828,-1.0995,136.5,96.9,0.524
1.24,31896.7,34891.3,-1.7365,-1.3233,136.5,96.9,0.524
1.26,31931.2,35025.1,-1.1543,0.3152,136.5,96.9,0.524
1.28,31963.0,34922.2,-0.6193,-0.9445,136.5,96.9,0.524
1.3,31876.2,34983.7,-2.0818,-0.1913,136.5,96.9,0.524
1.32,31899.6,34970.3,-1.6874,-0.356,136.5,96.9,0.524
1.34,32117.7,35130.3,1.9898,1.6031,136.5,96.9,0.524
1.36,31999.1,35205.8,-0.0093,2.5282,136.5,96.9,0.524
1.38,32042.2,35083.6,0.7176,1.0312,136.5,96.9,0.524
1.4,32103.9,35143.8,1.7565,1.7692,136.5,96.9,0.524
1.42,32126.3,35066.5,2.1352,0.8221,136.5,96.9,0.524
1.44,32000.0,35098.8,0.0054,1.2181,136.5,96.9,0.524
1.46,31943.5,35008.5,-0.9479,0.1122,136.5,96.9,0.524
1.48,32081.5,35053.3,1.3797,0.6601,136.5,96.9,0.524
1.5,31975.5,34925.4,-0.4086,-0.9059,136.5,96.9,0.524
1.52,31984.7,34948.8,-0.252,-0.6186,136.5,96.9,0.524
1.54,31927.7,34954.8,-1.2146,-0.5459,136.5,96.9,0.524
1.56,31984.8,35004.5,-0.2514,0.0634,136.5,96.9,0.524
1.58,32037.4,34883.4,0.6355,-1.4203,136.5,96.9,0.524
1.6,31955.5,34888.9,-0.7454,-1.3526,136.5,96.9,0.524
1.62,31850.8,34911.7,-2.5099,-1.0731,136.5,96.9,0.524
1.64,31992.6,34827.1,-0.119,-2.1096,136.5,96.9,0.524
1.66,31956.3,34886.7,-0.732,-1.38,136.5,96.9,0.524
1.68,31938.7,34885.3,-1.0284,-1.3969,136.5,96.9,0.524
1.7,31935.4,34919.3,-1.0845,-0.9798,136.5,96.9,0.524
1.72,31924.1,34943.9,-1.2751,-0.6791,136.5,96.9,0.524
1.74,31963.8,34968.1,-0.6049,-0.3825,136.5,96.9,0.524
1.76,32075.8,34965.4,1.2842,-0.4157,136.5,96.9,0.524
1.78,32045.4,35068.8,0.7715,0.85,136.5,96.9,0.524
1.8,32079.0,35101.6,1.3372,1.2525,136.5,96.9,0.524
1.82,32075.5,35164.8,1.2782,2.0261,136.5,96.9,0.524
1.84,32049.3,35102.5,0.8367,1.2631,136.5,96.9,0.524
1.86,32097.5,35055.8,1.6486,0.6913,136.5,96.9,0.524
1.88,31996.3,35078.5,-0.0568,0.9694,136.5,96.9,0.524
1.9,32012.4,35054.7,0.2143,0.6779,136.5,96.9,0.524
1.92,32061.3,34970.3,1.0386,-0.3558,136.5,96.9,0.524
1.94,32028.5,35031.1,0.4854,0.3891,136.5,96.9,0.524
1.96,31975.6,35062.2,-0.406,0.7701,136.5,96.9,0.524
1.98,31946.9,34927.7,-0.891,-0.8773,136.5,96.9,0.524
2.0,31960.2,34906.5,-0.6659,-1.1366,136.5,96.9,0.524
2.02,31963.4,34976.6,-0.6118,-0.2783,136.5,96.9,0.524
2.04,31991.2,34965.5,-0.1427,-0.4142,136.5,96.9,0.524
2.06,31878.8,34883.7,-2.0384,-1.4156,136.5,96.9,0.524
2.08,31945.0,35042.6,-0.923,0.5295,136.5,96.9,0.524
2.1,31956.0,34875.4,-0.736,-1.5174,136.5,96.9,0.524
2.12,32070.9,34933.6,1.2,-0.8055,136.5,96.9,0.524
2.14,31984.6,34977.8,-0.2553,-0.2645,136.5,96.9,0.524
2.16,31976.4,34818.1,-0.392,-2.2196,136.5,96.9,0.524
2.18,31949.8,35006.1,-0.8407,0.0823,136.5,96.9,0.524
2.2,32134.4,35091.3,2.2709,1.1253,136.5,96.9,0.524
2.22,32061.7,35022.3,1.045,0.2808,136.5,96.9,0.524
2.24,32083.8,35125.4,1.418,1.5432,136.5,96.9,0.524
2.26,31997.4,35130.3,-0.0383,1.6038,136.5,96.9,0.524
2.28,32132.8,35150.3,2.2454,1.848,136.5,96.9,0.524
2.3,32078.9,35040.8,1.3365,0.5071,136.5,96.9,0.524
2.32,32030.7,35035.9,0.5236,0.4471,136.5,96.9,0.524
2.34,31996.6,35110.2,-0.0516,1.3569,136.5,96.9,0.524
2.36,32016.0,35038.8,0.2759,0.4825,136.5,96.9,0.524
2.38,32017.9,35016.4,0.3065,0.2088,136.5,96.9,0.524
2.4,32028.8,34923.6,0.4905,-0.9276,136.5,96.9,0.524
2.42,32013.3,34989.1,0.2297,-0.1255,136.5,96.9,0.524
2.44,31958.5,34871.8,-0.6941,-1.5615,136.5,96.9,0.524
2.46,32062.4,34996.5,1.0571,-0.035,136.5,96.9,0.524
2.48,31981.4,35008.2,-0.3077,0.1086,136.5,96.9,0.524
2.5,32008.1,34871.7,0.1418,-1.5634,136.5,96.9,0.524
2.52,32046.4,34963.3,0.787,-0.4417,136.5,96.9,0.524
2.54,31966.5,34896.9,-0.5596,-1.2541,136.5,96.9,0.524
2.56,31978.2,34938.6,-0.3628,-0.7437,136.5,96.9,0.524
2.58,32009.2,34901.1,0.1597,-1.203,136.5,96.9,0.524
2.6,31914.7,34956.7,-1.4336,-0.5219,136.5,96.9,0.524
2.62,31970.9,34953.9,-0.4847,-0.5561,136.5,96.9,0.524
2.64,31930.5,35066.2,-1.1674,0.8186,136.5,96.9,0.524
2.66,32036.5,35138.3,0.6201,1.7013,136.5,96.9,0.524
2.68,31992.2,35093.4,-0.1256,1.1516,136.5,96.9,0.524
2.7,32069.9,35060.6,1.1845,0.7499,136.5,96.9,0.524
2.72,32080.4,35051.5,1.3616,0.6379,136.5,96.9,0.524
2.74,32018.9,35115.9,0.3244,1.4268,136.5,96.9,0.524
2.76,31966.7,34954.3,-0.5571,-0.5517,136.5,96.9,0.524
2.78,31994.1,34992.6,-0.094,-0.0827,136.5,96.9,0.524
2.8,31965.4,35030.2,-0.5786,0.3772,136.5,96.9,0.524
2.82,31987.4,34961.1,-0.2065,-0.4684,136.5,96.9,0.524
2.84,31963.0,34994.3,-0.6186,-0.0614,136.5,96.9,0.524
2.86,32039.6,34944.8,0.6727,-0.6683,136.5,96.9,0.524
2.88,31987.8,34943.0,-0.2012,-0.6895,136.5,96.9,0.524
2.9,31887.5,34915.6,-1.8923,-1.0253,136.5,96.9,0.524
2.92,31949.2,34952.6,-0.852,-0.5731,136.5,96.9,0.524
2.94,31982.2,34877.0,-0.295,-1.4979,136.5,96.9,0.524
2.96,32031.3,34949.0,0.5333,-0.617,136.5,96.9,0.524
2.98,32009.5,34925.9,0.166,-0.8991,136.5,96.9,0.524
3.0,31994.8,34881.0,-0.083,-1.4491,136.5,96.9,0.524
3.02,31905.2,34979.0,-1.5926,-0.2496,136.5,96.9,0.524
3.04,31897.1,34907.2,-1.7306,-1.1282,136.5,96.9,0.524
3.06,31974.1,35014.5,-0.4308,0.1851,136.5,96.9,0.524
3.08,31966.9,35081.2,-0.553,1.0024,136.5,96.9,0.524
3.1,32056.6,35091.8,0.9601,1.1319,136.5,96.9,0.524
3.12,32046.1,35112.5,0.7828,1.386,136.5,96.9,0.524
3.14,32079.3,35044.9,1.3424,0.5581,136.5,96.9,0.524
3.16,32114.3,35148.9,1.9334,1.8317,136.5,96.9,0.524
3.18,32023.7,35106.7,0.4044,1.3139,136.5,96.9,0.524
3.2,32064.1,35053.7,1.0866,0.665,136.5,96.9,0.524
3.22,32062.8,35037.9,1.064,0.4725,136.5,96.9,0.524
3.24,31955.0,35101.5,-0.7539,1.2505,136.5,96.9,0.524
3.26,32026.4,35045.3,0.45,0.562,136.5,96.9,0.524
3.28,31889.4,35054.2,-1.8593,0.6718,136.5,96.9,0.524
3.3,32007.6,35020.9,0.1331,0.2642,136.5,96.9,0.524
3.32,31876.8,34876.9,-2.0715,-1.4992,136.5,96.9,0.524
3.34,31976.5,34831.5,-0.3903,-2.0556,136.5,96.9,0.524
3.36,31953.6,34972.2,-0.7769,-0.3328,136.5,96.9,0.524
3.38,31973.1,34942.9,-0.4478,-0.6913,136.5,96.9,0.524
3.4,31953.3,35084.9,-0.7828,1.0479,136.5,96.9,0.524
3.42,31929.8,34917.5,-1.1785,-1.0025,136.5,96.9,0.524
3.44,31868.4,34989.3,-2.2132,-0.1234,136.5,96.9,0.524
3.46,31977.5,34980.0,-0.3737,-0.2367,136.5,96.9,0.524
3.48,31957.1,34897.8,-0.7189,-1.2441,136.5,96.9,0.524
3.5,32014.8,34996.4,0.254,-0.0359,136.5,96.9,0.524
3.52,31961.6,34966.2,-0.6431,-0.4058,136.5,96.9,0.524
3.54,32051.0,35100.2,0.8649,1.2343,136.5,96.9,0.524
3.56,32078.2,35103.1,1.3239,1.2705,136.5,96.9,0.524
3.58,32051.4,35142.2,0.8726,1.7497,136.5,96.9,0.524
3.6,32040.1,35053.6,0.6814,0.6642,136.5,96.9,0.524
3.62,31907.8,35105.7,-1.549,1.3021,136.5,96.9,0.524
3.64,32061.0,34963.8,1.0343,-0.4348,136.5,96.9,0.524
3.66,32027.9,35050.7,0.4759,0.6287,136.5,96.9,0.524
3.68,31923.7,35047.7,-1.2809,0.5923,136.5,96.9,0.524
3.7,31982.4,35021.9,-0.2919,0.2765,136.5,96.9,0.524
3.72,32024.0,34989.6,0.4103,-0.1197,136.5,96.9,0.524
3.74,32099.2,34993.1,1.6778,-0.0762,136.5,96.9,0.524
3.76,32092.0,34918.1,1.5564,-0.9951,136.5,96.9,0.524
3.78,32063.6,34994.7,1.0769,-0.0568,136.5,96.9,0.524
3.8,31973.9,34992.4,-0.4354,-0.0848,136.5,96.9,0.524
3.82,31891.8,34996.6,-1.8191,-0.0334,136.5,96.9,0.524
3.84,32013.8,34910.5,0.238,-1.0881,136.5,96.9,0.524
3.86,31997.9,34874.2,-0.0294,-1.5325,136.5,96.9,0.524
3.88,31986.8,34906.6,-0.2172,-1.1353,136.5,96.9,0.524
3.9,31958.9,34955.2,-0.6882,-0.5412,136.5,96.9,0.524
3.92,31910.7,34967.4,-1.4999,-0.3919,136.5,96.9,0.524
3.94,31879.7,34962.3,-2.0239,-0.4539,136.5,96.9,0.524
3.96,31954.7,34988.3,-0.758,-0.1355,136.5,96.9,0.524
3.98,32005.5,35079.1,0.098,0.9769,136.5,96.9,0.524
4.0,32030.2,35130.9,0.5146,1.6105,136.5,96.9,0.524
4.02,32033.9,35189.3,0.5767,2.326,136.5,96.9,0.524
4.04,32063.9,35142.8,1.0835,1.7564,136.5,96.9,0.524
4.06,32048.7,35041.1,0.8261,0.5114,136.5,96.9,0.524
4.08,31982.1,34996.7,-0.2964,-0.0327,136.5,96.9,0.524
4.1,32037.2,35010.8,0.6326,0.1397,136.5,96.9,0.524
4.12,31994.5,34976.6,-0.088,-0.2782,136.5,96.9,0.524
4.14,31909.7,35073.7,-1.5177,0.9107,136.5,96.9,0.524
4.16,32036.8,34960.1,0.6262,-0.4807,136.5,96.9,0.524
4.18,32000.2,34941.0,0.0094,-0.7146,136.5,96.9,0.524
4.2,31966.5,34960.6,-0.5593,-0.4741,136.5,96.9,0.524
4.22,31990.0,34916.8,-0.1642,-1.0106,136.5,96.9,0.524
4.24,31939.5,34935.1,-1.0154,-0.7868,136.5,96.9,0.524
4.26,31941.3,34907.7,-0.9843,-1.1221,136.5,96.9,0.524
4.28,31983.4,34930.5,-0.2755,-0.8426,136.5,96.9,0.524
4.3,32022.0,34880.6,0.3768,-1.4544,136.5,96.9,0.524
4.32,31934.1,34912.5,-1.1053,-1.0631,136.5,96.9,0.524
4.34,31916.3,34864.4,-1.4062,-1.6529,136.5,96.9,0.524
4.36,32037.3,34895.2,0.6347,-1.2754,136.5,96.9,0.524
4.38,32002.5,34917.9,0.0469,-0.997,136.5,96.9,0.524
4.4,31993.8,35014.7,-0.0988,0.1874,136.5,96.9,0.524
4.42,31910.1,35041.3,-1.5101,0.5133,136.5,96.9,0.524
4.44,32050.7,35168.1,0.8601,2.0664,136.5,96.9,0.524
4.46,31993.3,35141.7,-0.1077,1.7434,136.5,96.9,0.524
4.48,31962.2,35102.7,-0.6329,1.2651,136.5,96.9,0.524
4.5,32080.0,35156.8,1.3538,1.9281,136.5,96.9,0.524
4.52,32128.3,35054.5,2.1684,0.6756,136.5,96.9,0.524
4.54,32059.4,34999.1,1.007,-0.0037,136.5,96.9,0.524
4.56,31960.3,35069.6,-0.6642,0.8607,136.5,96.9,0.524
4.58,31970.6,35000.3,-0.4909,0.0113,136.5,96.9,0.524
4.6,32041.0,35019.9,0.6961,0.2512,136.5,96.9,0.524
4.62,31911.0,35012.6,-1.4955,0.1623,136.5,96.9,0.524
4.64,31884.7,34980.6,-1.9394,-0.2297,136.5,96.9,0.524
4.66,31891.4,34906.7,-1.8263,-1.135,136.5,96.9,0.524
4.68,31947.7,34978.5,-0.8771,-0.2553,136.5,96.9,0.524
4.7,31967.6,34947.0,-0.5411,-0.6417,136.5,96.9,0.524
4.72,32042.5,34915.9,0.722,-1.0218,136.5,96.9,0.524
4.74,31923.9,34957.3,-1.2783,-0.5149,136.5,96.9,0.524
4.76,32035.3,34842.6,0.6004,-1.9196,136.5,96.9,0.524
4.78,32015.3,34963.9,0.2635,-0.4341,136.5,96.9,0.524
4.8,31943.4,34949.7,-0.9489,-0.6085,136.5,96.9,0.524
4.82,32019.2,35043.9,0.3289,0.5452,136.5,96.9,0.524
4.84,31988.3,35090.3,-0.1925,1.1136,136.5,96.9,0.524
4.86,32031.5,35129.1,0.5362,1.5886,136.5,96.9,0.524
4.88,32006.4,35113.9,0.1139,1.4025,136.5,96.9,0.524
4.9,32113.5,35131.7,1.9195,1.6204,136.5,96.9,0.524
4.92,31998.9,35074.5,-0.0131,0.9201,136.5,96.9,0.524
4.94,32012.2,35086.4,0.2116,1.066,136.5,96.9,0.524
4.96,32034.6,35014.7,0.5891,0.1879,136.5,96.9,0.524
4.98,32018.4,34987.0,0.3161,-0.1518,136.5,96.9,0.524
5.0,32071.5,35073.5,1.2104,0.9073,136.5,96.9,0.524
5.02,32021.0,35002.4,0.36,0.0368,136.5,96.9,0.524
5.04,31978.9,35101.3,-0.3507,1.248,136.5,96.9,0.524
5.06,31972.7,35047.9,-0.4551,0.5943,136.5,96.9,0.524
5.08,31929.5,34956.5,-1.1842,-0.5246,136.5,96.9,0.524
5.1,31892.7,35024.2,-1.8047,0.3044,136.5,96.9,0.524
5.12,31921.2,34962.4,-1.323,-0.4521,136.5,96.9,0.524
5.14,31918.4,34925.0,-1.3712,-0.91,136.5,96.9,0.524
5.16,31953.5,34916.8,-0.7792,-1.0106,136.5,96.9,0.524
5.18,31858.6,34861.9,-2.3793,-1.6828,136.5,96.9,0.524
5.2,31973.6,34911.8,-0.44,-1.0715,136.5,96.9,0.524
5.22,31991.6,34895.7,-0.1372,-1.2689,136.5,96.9,0.524
5.24,32029.9,34968.6,0.5091,-0.3766,136.5,96.9,0.524
5.26,31996.5,34973.2,-0.0533,-0.3197,136.5,96.9,0.524
5.28,32085.8,34968.2,1.4522,-0.3817,136.5,96.9,0.524
5.3,32081.2,35085.1,1.3752,1.0502,136.5,96.9,0.524
5.32,31987.3,35045.8,-0.209,0.5683,136.5,96.9,0.524
5.34,32192.8,35090.0,3.2565,1.1098,136.5,96.9,0.524
5.36,32027.1,35054.5,0.4623,0.6752,136.5,96.9,0.524
5.38,32087.0,35083.3,1.4722,1.0279,136.5,96.9,0.524
5.4,31991.9,35132.6,-0.1319,1.6313,136.5,96.9,0.524
5.42,31963.9,35008.2,-0.6032,0.1077,136.5,96.9,0.524
5.44,32052.9,34971.1,0.8975,-0.3457,136.5,96.9,0.524
5.46,31943.3,34978.2,-0.9503,-0.2595,136.5,96.9,0.524
5.48,31892.4,34958.0,-1.8092,-0.5062,136.5,96.9,0.524
5.5,31951.8,34942.0,-0.8079,-0.7022,136.5,96.9,0.524
5.52,31949.1,34957.2,-0.8532,-0.5168,136.5,96.9,0.524
5.54,31996.8,34912.3,-0.0484,-1.0654,136.5,96.9,0.524
5.56,32003.2,34973.5,0.0584,-0.3161,136.5,96.9,0.524
5.58,31990.6,34972.2,-0.154,-0.3324,136.5,96.9,0.524
5.6,31903.1,34916.0,-1.6286,-1.0211,136.5,96.9,0.524
5.62,31956.7,34948.8,-0.7249,-0.6196,136.5,96.9,0.524
5.64,31874.8,34968.6,-2.1058,-0.3771,136.5,96.9,0.524
5.66,31878.2,34923.2,-2.0489,-0.9331,136.5,96.9,0.524
5.68,31944.8,34901.4,-0.9256,-1.1989,136.5,96.9,0.524
5.7,32009.1,35035.4,0.1593,0.4416,136.5,96.9,0.524
5.72,32026.8,34985.9,0.4565,-0.1646,136.5,96.9,0.524
5.74,32055.8,35147.9,0.9455,1.8194,136.5,96.9,0.524
5.76,32016.7,35106.0,0.2875,1.3057,136.5,96.9,0.524
5.78,31990.9,35139.1,-0.1488,1.7106,136.5,96.9,0.524
5.8,31986.3,35107.5,-0.226,1.3245,136.5,96.9,0.524
5.82,32086.7,35088.5,1.468,1.0918,136.5,96.9,0.524
5.84,32102.0,35067.0,1.7252,0.8285,136.5,96.9,0.524
5.86,32017.7,34994.6,0.3037,-0.0584,136.5,96.9,0.524
5.88,32042.2,34914.8,0.7162,-1.0355,136.5,96.9,0.524
5.9,31977.3,34948.1,-0.3776,-0.6278,136.5,96.9,0.524
5.92,31964.5,34978.2,-0.5927,-0.2587,136.5,96.9,0.524
5.94,32085.0,35002.3,1.4391,0.0359,136.5,96.9,0.524
5.96,31948.1,35034.2,-0.8692,0.4263,136.5,96.9,0.524
5.98,31953.3,34918.4,-0.7819,-0.9909,136.5,96.9,0.524
6.0,31940.3,34945.2,-1.0014,-0.6628,136.5,96.9,0.524
6.02,31940.9,34903.5,-0.9916,-1.1735,136.5,96.9,0.524
6.04,32084.0,34934.8,1.4211,-0.79,136.5,96.9,0.524
6.06,31951.0,34931.6,-0.8214,-0.8301,136.5,96.9,0.524
6.08,32022.7,34968.2,0.3879,-0.3814,136.5,96.9,0.524
6.1,31902.8,34919.5,-1.6345,-0.9773,136.5,96.9,0.524
6.12,32055.1,34921.2,0.9344,-0.9571,136.5,96.9,0.524
6.14,32003.8,34978.9,0.0691,-0.2501,136.5,96.9,0.524
6.16,32060.8,35087.2,1.0312,1.0755,136.5,96.9,0.524
6.18,32001.2,35008.2,0.0252,0.1089,136.5,96.9,0.524
6.2,31945.9,35084.8,-0.907,1.0462,136.5,96.9,0.524
6.22,32005.5,35098.3,0.0984,1.211,136.5,96.9,0.524
6.24,32078.2,35133.0,1.3235,1.6367,136.5,96.9,0.524
6.26,32014.9,35076.6,0.2571,0.9461,136.5,96.9,0.524
6.28,31968.3,35050.2,-0.5287,0.6222,136.5,96.9,0.524
6.3,32082.5,35123.4,1.3964,1.5192,136.5,96.9,0.524
6.32,31918.4,34927.0,-1.3712,-0.8859,136.5,96.9,0.524
6.34,32007.7,34991.7,0.1349,-0.0938,136.5,96.9,0.524
6.36,31983.5,34900.3,-0.2731,-1.2125,136.5,96.9,0.524
6.38,32044.0,35066.4,0.7469,0.8204,136.5,96.9,0.524
6.4,31986.8,34991.3,-0.2174,-0.0982,136.5,96.9,0.524
6.42,32161.0,35000.4,2.7201,0.0126,136.5,96.9,0.524
6.44,31918.4,34885.4,-1.3715,-1.3948,136.5,96.9,0.524
6.46,31939.8,34975.0,-1.0108,-0.2986,136.5,96.9,0.524
6.48,32013.4,34922.8,0.2305,-0.9378,136.5,96.9,0.524
6.5,32065.3,34862.0,1.1058,-1.6823,136.5,96.9,0.524
6.52,31896.2,35026.0,-1.7457,0.3259,136.5,96.9,0.524
6.54,32011.9,34905.7,0.2053,-1.1469,136.5,96.9,0.524
6.56,31938.6,34988.1,-1.0297,-0.1379,136.5,96.9,0.524
6.58,31971.8,35018.0,-0.4704,0.2283,136.5,96.9,0.524
6.6,32049.2,35073.0,0.8346,0.9018,136.5,96.9,0.524
6.62,31982.2,35039.4,-0.2941,0.4906,136.5,96.9,0.524
6.64,32043.7,35071.5,0.742,0.883,136.5,96.9,0.524
6.66,32072.4,35190.4,1.2258,2.3389,136.5,96.9,0.524
6.68,32109.9,35094.9,1.8578,1.1694,136.5,96.9,0.524
6.7,31960.5,35022.7,-0.6603,0.2864,136.5,96.9,0.524
6.72,31952.6,35108.2,-0.7938,1.3328,136.5,96.9,0.524
6.74,31939.8,35044.3,-1.0101,0.5505,136.5,96.9,0.524
6.76,32019.2,34936.4,0.3287,-0.7707,136.5,96.9,0.524
6.78,32001.2,34979.0,0.0256,-0.2497,136.5,96.9,0.524
6.8,31865.3,34953.6,-2.2659,-0.5598,136.5,96.9,0.524
6.82,31913.1,35020.4,-1.4601,0.2578,136.5,96.9,0.524
6.84,31999.7,34887.6,0.0001,-1.3682,136.5,96.9,0.524
6.86,31962.2,34885.8,-0.6317,-1.3905,136.5,96.9,0.524
6.88,31916.6,34894.9,-1.4004,-1.2787,136.5,96.9,0.524
6.9,31920.2,34982.0,-1.3408,-0.212,136.5,96.9,0.524
6.92,31958.5,34867.7,-0.6954,-1.6116,136.5,96.9,0.524
6.94,32022.1,34986.1,0.3782,-0.1629,136.5,96.9,0.524
6.96,32025.1,34831.8,0.4279,-2.0515,136.5,96.9,0.524
6.98,31898.6,34808.1,-1.704,-2.342,136.5,96.9,0.524
7.0,31968.5,34897.0,-0.5255,-1.2532,136.5,96.9,0.524
7.02,31911.6,34998.1,-1.4861,-0.0154,136.5,96.9,0.524
7.04,32057.5,34966.0,0.9753,-0.4087,136.5,96.9,0.524
7.06,32026.5,34977.1,0.4524,-0.2729,136.5,96.9,0.524
7.08,32087.6,35142.8,1.4817,1.756,136.5,96.9,0.524
7.1,32001.8,35114.2,0.036,1.4058,136.5,96.9,0.524
7.12,32046.5,35024.3,0.7896,0.3049,136.5,96.9,0.524
7.14,32009.1,34992.4,0.1589,-0.0849,136.5,96.9,0.524
7.16,32046.6,34983.9,0.7903,-0.1898,136.5,96.9,0.524
7.18,32054.9,35069.5,0.9317,0.8593,136.5,96.9,0.524
7.2,31989.2,35051.2,-0.1775,0.6343,136.5,96.9,0.524
7.22,32007.3,35041.3,0.1282,0.5131,136.5,96.9,0.524
7.24,32043.0,35008.1,0.7306,0.1065,136.5,96.9,0.524
7.26,31939.6,34984.3,-1.0128,-0.1839,136.5,96.9,0.524
7.28,32012.1,34946.6,0.2095,-0.6455,136.5,96.9,0.524
7.3,32062.5,34964.3,1.0584,-0.4291,136.5,96.9,0.524
7.32,32018.0,34933.3,0.3091,-0.8086,136.5,96.9,0.524
7.34,32014.7,34979.6,0.2528,-0.2417,136.5,96.9,0.524
7.36,31982.2,34986.1,-0.2943,-0.1623,136.5,96.9,0.524
7.38,31957.6,34814.5,-0.7095,-2.2632,136.5,96.9,0.524
7.4,31996.6,34864.0,-0.0527,-1.6573,136.5,96.9,0.524
7.42,31914.6,34975.3,-1.4341,-0.2943,136.5,96.9,0.524
7.44,31970.0,34927.9,-0.5013,-0.8754,136.5,96.9,0.524
7.46,31976.9,34956.2,-0.3841,-0.5287,136.5,96.9,0.524
7.48,32066.7,35010.7,1.1304,0.1394,136.5,96.9,0.524
7.5,32025.7,35069.1,0.4392,0.8536,136.5,96.9,0.524
7.52,32084.4,35103.4,1.4293,1.2736,136.5,96.9,0.524
7.54,32021.6,35123.3,0.3694,1.5172,136.5,96.9,0.524
7.56,31949.0,35054.3,-0.8548,0.6732,136.5,96.9,0.524
7.58,32050.4,35003.4,0.8547,0.0501,136.5,96.9,0.524
7.6,32092.3,35141.7,1.5614,1.7433,136.5,96.9,0.524
7.62,31919.8,34996.0,-1.3477,-0.0415,136.5,96.9,0.524
7.64,32008.8,34911.0,0.1537,-1.0816,136.5,96.9,0.524
7.66,32021.6,34990.6,0.3688,-0.1068,136.5,96.9,0.524
7.68,32017.9,35016.7,0.3063,0.2128,136.5,96.9,0.524
7.7,31956.1,34993.0,-0.7345,-0.0774,136.5,96.9,0.524
7.72,31898.4,34872.6,-1.7079,-1.5517,136.5,96.9,0.524
7.74,31989.7,34962.6,-0.1679,-0.4495,136.5,96.9,0.524
7.76,31896.3,34895.2,-1.7439,-1.2755,136.5,96.9,0.524
7.78,31965.3,34931.9,-0.5803,-0.8256,136.5,96.9,0.524
7.8,31925.6,34958.8,-1.2487,-0.4961,136.5,96.9,0.524
7.82,31942.4,35021.3,-0.9664,0.2688,136.5,96.9,0.524
7.84,32038.1,34853.5,0.6472,-1.7858,136.5,96.9,0.524
7.86,31876.5,34914.8,-2.0769,-1.0359,136.5,96.9,0.524
7.88,31986.4,34970.8,-0.2249,-0.3501,136.5,96.9,0.524
7.9,31939.3,34884.2,-1.0182,-1.4097,136.5,96.9,0.524
7.92,32124.1,35072.2,2.0973,0.8925,136.5,96.9,0.524
7.94,32075.4,35169.7,1.2762,2.0856,136.5,96.9,0.524
7.96,32066.2,35092.9,1.122,1.1453,136.5,96.9,0.524
7.98,32042.6,35126.3,0.7232,1.5541,136.5,96.9,0.524
8.0,31967.1,35093.6,-0.5494,1.1537,136.5,96.9,0.524
8.02,32022.9,35103.7,0.3915,1.2779,136.5,96.9,0.524
8.04,31953.6,35009.0,-0.778,0.118,136.5,96.9,0.524
8.06,32003.6,35027.0,0.0653,0.338,136.5,96.9,0.524
8.08,32017.6,34988.9,0.3016,-0.1284,136.5,96.9,0.524
8.1,31998.5,34982.9,-0.0195,-0.2018,136.5,96.9,0.524
8.12,31991.8,34959.6,-0.1332,-0.4868,136.5,96.9,0.524
8.14,31985.5,34979.9,-0.2388,-0.2387,136.5,96.9,0.524
8.16,31980.5,35030.9,-0.3236,0.3862,136.5,96.9,0.524
8.18,31980.3,34896.5,-0.3274,-1.259,136.5,96.9,0.524
8.2,31943.8,34914.4,-0.9423,-1.0406,136.5,96.9,0.524
8.22,32014.4,34984.4,0.248,-0.1827,136.5,96.9,0.524
8.24,32057.7,34916.0,0.9786,-1.0206,136.5,96.9,0.524
8.26,31999.7,34880.1,0.0009,-1.46,136.5,96.9,0.524
8.28,31957.4,34894.9,-0.713,-1.2785,136.5,96.9,0.524
8.3,31942.7,34816.8,-0.9608,-2.2358,136.5,96.9,0.524
8.32,31934.0,34869.0,-1.1078,-1.5958,136.5,96.9,0.524
8.34,31969.0,34975.1,-0.5172,-0.2974,136.5,96.9,0.524
8.36,31965.4,35106.8,-0.5781,1.3156,136.5,96.9,0.524
8.38,32073.7,35175.5,1.2478,2.1565,136.5,96.9,0.524
8.4,32020.7,35122.5,0.3538,1.5076,136.5,96.9,0.524
8.42,32014.1,35058.7,0.2436,0.7262,136.5,96.9,0.524
8.44,32032.4,35094.2,0.5515,1.1615,136.5,96.9,0.524
8.46,31965.3,35024.0,-0.5802,0.3019,136.5,96.9,0.524
8.48,31945.6,35031.5,-0.9116,0.3932,136.5,96.9,0.524
8.5,32021.2,35052.7,0.3628,0.6532,136.5,96.9,0.524
8.52,31978.1,35045.5,-0.3647,0.5654,136.5,96.9,0.524
8.54,32034.6,34957.3,0.5882,-0.5147,136.5,96.9,0.524
8.56,32004.3,35051.9,0.0778,0.6433,136.5,96.9,0.524
8.58,31869.1,34932.2,-2.2029,-0.8229,136.5,96.9,0.524
8.6,32017.4,34886.3,0.299,-1.3848,136.5,96.9,0.524
8.62,32032.5,34941.9,0.5534,-0.703,136.5,96.9,0.524
8.64,32023.6,35014.9,0.4025,0.19,136.5,96.9,0.524
8.66,31944.7,34889.0,-0.9268,-1.3516,136.5,96.9,0.524
8.68,31912.0,34926.9,-1.4789,-0.8877,136.5,96.9,0.524
8.7,31861.5,34980.0,-2.331,-0.2372,136.5,96.9,0.524
8.72,31910.8,34986.5,-1.4995,-0.1576,136.5,96.9,0.524
8.74,31911.4,34918.5,-1.4891,-0.9907,136.5,96.9,0.524
8.76,32009.4,34938.4,0.1641,-0.7462,136.5,96.9,0.524
8.78,32031.4,34951.5,0.5346,-0.5859,136.5,96.9,0.524
8.8,32006.6,35105.2,0.1164,1.2966,136.5,96.9,0.524
8.82,32074.8,35117.9,1.2666,1.452,136.5,96.9,0.524
8.84,32097.4,35137.5,1.6483,1.6918,136.5,96.9,0.524
8.86,32116.1,35098.7,1.9624,1.217,136.5,96.9,0.524
8.88,32063.7,35110.1,1.0799,1.3562,136.5,96.9,0.524
8.9,32028.9,35130.0,0.4919,1.5992,136.5,96.9,0.524
8.92,31967.7,35035.3,-0.5392,0.4399,136.5,96.9,0.524
8.94,32076.1,34952.8,1.2877,-0.5698,136.5,96.9,0.524
8.96,31982.6,35040.2,-0.2879,0.5005,136.5,96.9,0.524
8.98,31888.3,35021.2,-1.8777,0.268,136.5,96.9,0.524
9.0,32004.0,35006.6,0.072,0.0892,136.5,96.9,0.524
9.02,32009.9,34937.6,0.1729,-0.7559,136.5,96.9,0.524
9.04,31980.7,35004.1,-0.3204,0.0582,136.5,96.9,0.524
9.06,31981.2,35006.3,-0.3116,0.0852,136.5,96.9,0.524
9.08,31907.1,34903.5,-1.5619,-1.1739,136.5,96.9,0.524
9.1,31958.4,34889.6,-0.6963,-1.3436,136.5,96.9,0.524
9.12,31893.5,34891.6,-1.7899,-1.3195,136.5,96.9,0.524
9.14,31945.3,34844.0,-0.9164,-1.9026,136.5,96.9,0.524
9.16,31958.9,34971.1,-0.6883,-0.3463,136.5,96.9,0.524
9.18,31962.9,34951.7,-0.62,-0.5841,136.5,96.9,0.524
9.2,31914.0,34879.9,-1.445,-1.4629,136.5,96.9,0.524
9.22,31969.2,34991.3,-0.5135,-0.0992,136.5,96.9,0.524
9.24,32017.4,34994.4,0.2992,-0.0609,136.5,96.9,0.524
9.26,32081.0,35177.2,1.371,2.1773,136.5,96.9,0.524
9.28,31952.3,35057.3,-0.7998,0.7099,136.5,96.9,0.524
9.3,31998.1,35161.1,-0.0266,1.9806,136.5,96.9,0.524
9.32,32110.0,35128.8,1.8595,1.5853,136.5,96.9,0.524
9.34,32018.4,35013.1,0.315,0.1683,136.5,96.9,0.524
9.36,32043.1,35029.7,0.7317,0.3717,136.5,96.9,0.524
9.38,31950.7,35068.1,-0.8254,0.8413,136.5,96.9,0.524
9.4,32056.2,35103.2,0.9525,1.2713,136.5,96.9,0.524
9.42,32073.2,35009.9,1.2404,0.129,136.5,96.9,0.524
9.44,31993.8,35041.1,-0.0993,0.5108,136.5,96.9,0.524
9.46,32048.2,34938.4,0.8176,-0.7467,136.5,96.9,0.524
9.48,31954.5,35025.1,-0.7613,0.3149,136.5,96.9,0.524
9.5,31974.4,35029.9,-0.4269,0.3738,136.5,96.9,0.524
9.52,31979.4,34956.8,-0.3413,-0.5212,136.5,96.9,0.524
9.54,32032.3,34862.1,0.5505,-1.6811,136.5,96.9,0.524
9.56,31990.4,34847.7,-0.1572,-1.8573,136.5,96.9,0.524
9.58,32010.0,34940.0,0.173,-0.7267,136.5,96.9,0.524
9.6,31943.8,34953.7,-0.9421,-0.5585,136.5,96.9,0.524
9.62,31918.0,34896.8,-1.3769,-1.2554,136.5,96.9,0.524
9.64,32090.4,34940.9,1.5302,-0.7157,136.5,96.9,0.524
9.66,31993.2,34992.9,-0.11,-0.079,136.5,96.9,0.524
9.68,31952.9,35053.8,-0.789,0.6663,136.5,96.9,0.524
9.7,31998.8,35037.4,-0.0149,0.4653,136.5,96.9,0.524
9.72,32036.6,35108.1,0.6218,1.3311,136.5,96.9,0.524
9.74,32121.1,35196.6,2.0479,2.415,136.5,96.9,0.524
9.76,32055.5,35123.0,0.941,1.5145,136.5,96.9,0.524
9.78,32078.7,35080.6,1.3324,0.995,136.5,96.9,0.524
9.8,32105.5,35067.6,1.7842,0.8359,136.5,96.9,0.524
9.82,31951.8,35067.9,-0.8083,0.8392,136.5,96.9,0.524
9.84,32001.0,35072.3,0.0218,0.8928,136.5,96.9,0.524
9.86,31997.8,34927.4,-0.0313,-0.8812,136.5,96.9,0.524
9.88,31909.3,35004.0,-1.5237,0.0572,136.5,96.9,0.524
9.9,31968.3,34937.1,-0.5285,-0.7622,136.5,96.9,0.524
9.92,31904.8,34926.4,-1.6008,-0.8932,136.5,96.9,0.524
9.94,31974.8,34953.6,-0.4206,-0.5599,136.5,96.9,0.524
9.96,31915.8,34884.2,-1.4146,-1.4104,136.5,96.9,0.524
9.98,31990.7,34941.7,-0.1524,-0.7058,136.5,96.9,0.524
10.0,31991.4,34869.1,-0.1398,-1.5954,136.5,96.9,0.524
10.02,31999.4,34888.3,-0.0042,-1.3593,136.5,96.9,0.524
10.04,32016.3,34841.8,0.28,-1.9295,136.5,96.9,0.524
10.06,32032.0,34865.7,0.5453,-1.636,136.5,96.9,0.524
10.08,31960.9,34919.0,-0.6545,-0.9845,136.5,96.9,0.524
10.1,31974.0,34955.9,-0.4332,-0.532,136.5,96.9,0.524
10.12,32031.8,35077.9,0.5419,0.9619,136.5,96.9,0.524
10.14,32011.9,35077.8,0.2063,0.9606,136.5,96.9,0.524
10.16,31973.2,35075.8,-0.4464,0.9361,136.5,96.9,0.524
10.18,32002.7,35079.4,0.0509,0.98,136.5,96.9,0.524
10.2,32064.2,35190.5,1.0884,2.3406,136.5,96.9,0.524
10.22,31919.5,35061.0,-1.3524,0.7543,136.5,96.9,0.524
10.24,32078.7,35031.6,1.3324,0.3952,136.5,96.9,0.524
10.26,32056.1,34964.3,0.9506,-0.4295,136.5,96.9,0.524
10.28,32090.1,35110.5,1.5252,1.3611,136.5,96.9,0.524
10.3,31986.7,34985.2,-0.2198,-0.1738,136.5,96.9,0.524
10.32,31982.6,34985.5,-0.2885,-0.1702,136.5,96.9,0.524
10.34,32030.3,35022.5,0.5164,0.2836,136.5,96.9,0.524
10.36,31987.9,35067.0,-0.1989,0.8288,136.5,96.9,0.524
10.38,31931.4,34977.1,-1.1519,-0.2727,136.5,96.9,0.524
10.4,31940.9,34864.8,-0.991,-1.6473,136.5,96.9,0.524
10.42,31976.4,35004.8,-0.3927,0.0662,136.5,96.9,0.524
10.44,31937.8,34890.7,-1.0429,-1.3302,136.5,96.9,0.524
10.46,32018.2,34947.4,0.3129,-0.6359,136.5,96.9,0.524
10.48,31921.4,34915.2,-1.3207,-1.0309,136.5,96.9,0.524
10.5,31918.4,35012.2,-1.3715,0.1569,136.5,96.9,0.524
10.52,31993.4,34802.8,-0.1066,-2.4072,136.5,96.9,0.524
10.54,32067.0,34996.3,1.135,-0.0372,136.5,96.9,0.524
10.56,31861.4,35071.8,-2.3319,0.8866,136.5,96.9,0.524
10.58,31990.0,35066.1,-0.1638,0.8167,136.5,96.9,0.524
10.6,32069.1,35093.1,1.1704,1.1479,136.5,96.9,0.524
10.62,32093.2,35078.5,1.5763,0.9697,136.5,96.9,0.524
10.64,32047.8,35182.1,0.8119,2.2372,136.5,96.9,0.524
10.66,32009.8,35044.3,0.1698,0.5499,136.5,96.9,0.524
10.68,31950.0,34996.2,-0.8374,-0.0387,136.5,96.9,0.524
10.7,32051.4,34951.8,0.8718,-0.5826,136.5,96.9,0.524
10.72,32025.0,35044.5,0.4276,0.5526,136.5,96.9,0.524
10.74,32048.9,34989.4,0.8296,-0.122,136.5,96.9,0.524
10.76,32035.3,34981.1,0.6011,-0.2236,136.5,96.9,0.524
10.78,32024.9,35063.7,0.4254,0.7877,136.5,96.9,0.524
10.8,31952.5,35018.9,-0.7954,0.2391,136.5,96.9,0.524
10.82,31960.4,34975.6,-0.6617,-0.2913,136.5,96.9,0.524
10.84,32031.7,34924.7,0.5393,-0.9147,136.5,96.9,0.524
10.86,32013.6,34848.3,0.234,-1.8497,136.5,96.9,0.524
10.88,31910.4,34946.4,-1.5055,-0.6487,136.5,96.9,0.524
10.9,32006.6,34928.5,0.1158,-0.8673,136.5,96.9,0.524
10.92,32003.2,34931.2,0.0594,-0.8341,136.5,96.9,0.524
10.94,31954.2,34891.0,-0.7666,-1.3262,136.5,96.9,0.524
10.96,32004.2,34974.4,0.0754,-0.3058,136.5,96.9,0.524
10.98,32001.7,35044.1,0.0332,0.5481,136.5,96.9,0.524
11.0,31961.8,35122.6,-0.6383,1.5088,136.5,96.9,0.524
11.02,32107.0,35104.2,1.8091,1.2837,136.5,96.9,0.524
11.04,32057.7,35212.6,0.9786,2.6113,136.5,96.9,0.524
11.06,32065.2,35107.8,1.1053,1.3284,136.5,96.9,0.524
11.08,32038.9,35111.9,0.6612,1.3779,136.5,96.9,0.524
11.1,32017.7,35061.0,0.3037,0.7544,136.5,96.9,0.524
11.12,32040.1,34995.8,0.681,-0.0437,136.5,96.9,0.524
11.14,31947.3,35017.9,-0.8839,0.2275,136.5,96.9,0.524
11.16,31972.5,35010.2,-0.458,0.1322,136.5,96.9,0.524
11.18,32094.6,35075.9,1.6001,0.9376,136.5,96.9,0.524
11.2,31957.3,35014.2,-0.7156,0.1813,136.5,96.9,0.524
11.22,32021.1,34897.1,0.3606,-1.2524,136.5,96.9,0.524
11.24,31950.5,34953.0,-0.8296,-0.5671,136.5,96.9,0.524
11.26,31911.8,35029.0,-1.4813,0.3631,136.5,96.9,0.524
11.28,32084.6,34930.9,1.431,-0.8387,136.5,96.9,0.524
11.3,32015.0,34940.6,0.2576,-0.7191,136.5,96.9,0.524
11.32,32019.1,34941.5,0.3268,-0.7088,136.5,96.9,0.524
11.34,31971.4,35048.9,-0.4766,0.6063,136.5,96.9,0.524
11.36,31987.6,34878.5,-0.2038,-1.4794,136.5,96.9,0.524
11.38,31969.6,34931.5,-0.5073,-0.8308,136.5,96.9,0.524
11.4,31983.7,34939.9,-0.2701,-0.7284,136.5,96.9,0.524
11.42,31954.3,34904.5,-0.7655,-1.1618,136.5,96.9,0.524
11.44,32071.0,35133.9,1.2023,1.6474,136.5,96.9,0.524
11.46,32066.9,35082.6,1.1334,1.0199,136.5,96.9,0.524
11.48,32056.0,35104.8,0.9488,1.2911,136.5,96.9,0.524
11.5,32015.0,35071.0,0.2575,0.8771,136.5,96.9,0.524
11.52,32026.2,35030.5,0.4469,0.3814,136.5,96.9,0.524
11.54,32047.8,35080.9,0.8106,0.9989,136.5,96.9,0.524
11.56,31969.4,35039.2,-0.5105,0.4884,136.5,96.9,0.524
11.58,31993.0,35093.0,-0.1124,1.1462,136.5,96.9,0.524
11.6,31967.8,35021.6,-0.5373,0.2729,136.5,96.9,0.524
11.62,32010.1,34924.1,0.1747,-0.9212,136.5,96.9,0.524
11.64,32043.3,34959.2,0.7353,-0.4919,136.5,96.9,0.524
11.66,31947.4,34909.1,-0.8821,-1.1048,136.5,96.9,0.524
11.68,31970.7,34995.6,-0.4893,-0.0459,136.5,96.9,0.524
11.7,31970.6,34935.8,-0.4903,-0.7777,136.5,96.9,0.524
11.72,31974.2,34909.8,-0.4292,-1.0965,136.5,96.9,0.524
11.74,32002.8,34998.7,0.0518,-0.0082,136.5,96.9,0.524
11.76,32001.8,34964.5,0.0364,-0.4273,136.5,96.9,0.524
11.78,31899.3,34886.7,-1.6925,-1.3794,136.5,96.9,0.524
11.8,31915.2,34911.6,-1.425,-1.0748,136.5,96.9,0.524
11.82,31966.3,34946.6,-0.5627,-0.6454,136.5,96.9,0.524
11.84,32014.5,34970.7,0.249,-0.3505,136.5,96.9,0.524
11.86,31976.9,34897.0,-0.3844,-1.2536,136.5,96.9,0.524
11.88,31937.0,35063.0,-1.0567,0.779,136.5,96.9,0.524
11.9,32052.6,35074.7,0.8925,0.9231,136.5,96.9,0.524
11.92,32094.1,35158.2,1.5926,1.9453,136.5,96.9,0.524
11.94,32060.5,35055.5,1.0251,0.687,136.5,96.9,0.524
11.96,32105.3,35069.2,1.7812,0.8549,136.5,96.9,0.524
11.98,32034.1,35017.8,0.581,0.2253,136.5,96.9,0.524
12.0,32028.8,35050.3,0.4913,0.6236,136.5,96.9,0.524
12.02,32036.7,35038.3,0.6238,0.4772,136.5,96.9,0.524
12.04,31927.4,35010.7,-1.2185,0.1385,136.5,96.9,0.524
12.06,31945.4,35031.4,-0.9152,0.3923,136.5,96.9,0.524
12.08,32019.9,34989.6,0.3416,-0.1195,136.5,96.9,0.524
12.1,32027.8,34974.4,0.4743,-0.3052,136.5,96.9,0.524
12.12,32078.6,35007.9,1.3303,0.1048,136.5,96.9,0.524
12.14,31920.3,35000.7,-1.339,0.0164,136.5,96.9,0.524
12.16,31971.9,34965.9,-0.4685,-0.4103,136.5,96.9,0.524
12.18,32057.6,34911.7,0.9762,-1.0733,136.5,96.9,0.524
12.2,31932.1,34978.9,-1.1398,-0.2501,136.5,96.9,0.524
12.22,31962.7,35037.4,-0.6241,0.4654,136.5,96.9,0.524
12.24,31894.0,34890.0,-1.7816,-1.3394,136.5,96.9,0.524
12.26,31889.9,34865.7,-1.8509,-1.6363,136.5,96.9,0.524
12.28,32054.0,34961.6,0.916,-0.4621,136.5,96.9,0.524
12.3,32005.1,34931.6,0.092,-0.8302,136.5,96.9,0.524
12.32,32157.2,35040.9,2.6556,0.5091,136.5,96.9,0.524
12.34,31960.3,35055.4,-0.6645,0.6865,136.5,96.9,0.524
12.36,31995.1,35126.5,-0.0774,1.5569,136.5,96.9,0.524
12.38,32125.1,35113.8,2.1145,1.4009,136.5,96.9,0.524
12.4,32003.4,35126.5,0.0619,1.5566,136.5,96.9,0.524
12.42,32117.5,35100.3,1.987,1.2365,136.5,96.9,0.524
12.44,32028.0,35047.1,0.4767,0.5844,136.5,96.9,0.524
12.46,31991.2,34957.0,-0.1436,-0.5192,136.5,96.9,0.524
12.48,32067.6,35019.5,1.1446,0.2468,136.5,96.9,0.524
12.5,32048.7,35065.7,0.8262,0.8119,136.5,96.9,0.524
12.52,31993.8,35055.2,-0.0994,0.6844,136.5,96.9,0.524
12.54,32095.0,34932.5,1.6079,-0.8193,136.5,96.9,0.524
12.56,32045.5,34975.4,0.7732,-0.2933,136.5,96.9,0.524
12.58,31943.6,34968.6,-0.9454,-0.3771,136.5,96.9,0.524
12.6,32077.2,34992.0,1.3075,-0.09,136.5,96.9,0.524
12.62,31997.5,34931.1,-0.0375,-0.8357,136.5,96.9,0.524
12.64,31898.7,35052.7,-1.7026,0.653,136.5,96.9,0.524
12.66,31906.9,34960.2,-1.5651,-0.4794,136.5,96.9,0.524
12.68,31981.9,34858.1,-0.2994,-1.7297,136.5,96.9,0.524
12.7,32023.8,34918.5,0.407,-0.9898,136.5,96.9,0.524
12.72,31978.2,34984.6,-0.3627,-0.1811,136.5,96.9,0.524
12.74,31971.3,34959.5,-0.4786,-0.488,136.5,96.9,0.524
12.76,32015.9,35065.5,0.2742,0.8104,136.5,96.9,0.524
12.78,32055.3,35083.3,0.938,1.0276,136.5,96.9,0.524
12.8,32055.8,35155.5,0.9468,1.9124,136.5,96.9,0.524
12.82,32037.8,35187.8,0.643,2.3079,136.5,96.9,0.524
12.84,32018.4,35134.4,0.3149,1.6534,136.5,96.9,0.524
12.86,32016.1,35027.5,0.2768,0.3442,136.5,96.9,0.524
12.88,32010.5,35043.0,0.1826,0.5345,136.5,96.9,0.524
12.9,31913.6,35008.6,-1.4522,0.1133,136.5,96.9,0.524
12.92,32032.0,35045.5,0.5445,0.5652,136.5,96.9,0.524
12.94,32078.4,34970.7,1.3269,-0.3515,136.5,96.9,0.524
12.96,31936.8,34954.5,-1.0609,-0.5487,136.5,96.9,0.524
12.98,31987.5,35045.8,-0.205,0.5684,136.5,96.9,0.524
13.0,32012.0,34966.4,0.2072,-0.4034,136.5,96.9,0.524
13.02,32036.4,34954.0,0.6189,-0.5553,136.5,96.9,0.524
13.04,31949.4,34948.3,-0.8474,-0.6254,136.5,96.9,0.524
13.06,32013.2,34939.2,0.2286,-0.737,136.5,96.9,0.524
13.08,31977.1,34998.4,-0.381,-0.0117,136.5,96.9,0.524
13.1,31945.6,34902.2,-0.9115,-1.1902,136.5,96.9,0.524
13.12,31991.2,34880.4,-0.1431,-1.4561,136.5,96.9,0.524
13.14,31969.8,34837.5,-0.5036,-1.9816,136.5,96.9,0.524
13.16,31967.8,34967.5,-0.5382,-0.3905,136.5,96.9,0.524
13.18,32034.8,35045.4,0.5922,0.5636,136.5,96.9,0.524
13.2,32041.1,34988.7,0.6988,-0.1304,136.5,96.9,0.524
13.22,32037.6,35134.4,0.6391,1.6541,136.5,96.9,0.524
13.24,32128.7,35107.3,2.1749,1.3216,136.5,96.9,0.524
13.26,32102.9,35188.5,1.7408,2.3157,136.5,96.9,0.524
13.28,32078.0,35123.6,1.321,1.5214,136.5,96.9,0.524
13.3,31937.1,35078.6,-1.0563,0.9703,136.5,96.9,0.524
13.32,31937.9,35003.7,-1.042,0.0534,136.5,96.9,0.524
13.34,31968.4,34943.4,-0.5282,-0.6855,136.5,96.9,0.524
13.36,31963.5,34959.7,-0.6103,-0.4851,136.5,96.9,0.524
13.38,31954.6,34946.1,-0.7603,-0.6518,136.5,96.9,0.524
13.4,31973.8,34979.3,-0.437,-0.2451,136.5,96.9,0.524
13.42,32068.9,34916.3,1.1677,-1.0176,136.5,96.9,0.524
13.44,31850.2,34931.9,-2.52,-0.8259,136.5,96.9,0.524
13.46,31978.7,34960.9,-0.3539,-0.471,136.5,96.9,0.524
13.48,32004.0,34967.0,0.0726,-0.3967,136.5,96.9,0.524
13.5,31915.8,34947.3,-1.4141,-0.6378,136.5,96.9,0.524
13.52,31939.1,34891.5,-1.022,-1.3205,136.5,96.9,0.524
13.54,31931.3,34996.6,-1.1527,-0.0337,136.5,96.9,0.524
13.56,31851.5,34911.7,-2.499,-1.0739,136.5,96.9,0.524
13.58,31994.4,34825.5,-0.0894,-2.129,136.5,96.9,0.524
13.6,31941.4,34887.6,-0.9834,-1.368,136.5,96.9,0.524
13.62,32066.5,34980.7,1.127,-0.228,136.5,96.9,0.524
13.64,31954.7,35038.7,-0.7579,0.4816,136.5,96.9,0.524
13.66,32064.7,35096.1,1.0969,1.1844,136.5,96.9,0.524
13.68,32023.3,35159.1,0.398,1.9566,136.5,96.9,0.524
13.7,32060.2,35092.9,1.02,1.1459,136.5,96.9,0.524
13.72,32143.1,35098.5,2.4176,1.2136,136.5,96.9,0.524
13.74,32062.1,35102.2,1.0522,1.2588,136.5,96.9,0.524
13.76,31997.1,35065.7,-0.0429,0.8124,136.5,96.9,0.524
13.78,32094.4,34999.2,1.5972,-0.0014,136.5,96.9,0.524
13.8,31965.8,35009.2,-0.5717,0.1204,136.5,96.9,0.524
13.82,31925.9,35053.0,-1.2444,0.657,136.5,96.9,0.524
13.84,31999.2,34985.5,-0.009,-0.1698,136.5,96.9,0.524
13.86,31966.7,35036.7,-0.5569,0.4572,136.5,96.9,0.524
13.88,31981.2,34929.6,-0.312,-0.8537,136.5,96.9,0.524
13.9,31967.5,34947.0,-0.5433,-0.6417,136.5,96.9,0.524
13.92,32021.1,34956.4,0.3608,-0.5257,136.5,96.9,0.524
13.94,31968.2,34870.6,-0.5306,-1.5765,136.5,96.9,0.524
13.96,32025.3,34990.0,0.4318,-0.114,136.5,96.9,0.524
13.98,31912.6,34920.0,-1.4689,-0.9721,136.5,96.9,0.524
14.0,31950.5,34836.1,-0.8302,-1.9996,136.5,96.9,0.524
14.02,31895.2,34907.3,-1.7623,-1.1275,136.5,96.9,0.524
14.04,31955.5,35028.0,-0.7446,0.3504,136.5,96.9,0.524
14.06,32011.8,35017.3,0.2039,0.2198,136.5,96.9,0.524
14.08,31986.1,34993.7,-0.2288,-0.0692,136.5,96.9,0.524
14.1,32038.2,35084.8,0.6493,1.046,136.5,96.9,0.524
14.12,32093.9,35172.3,1.5886,2.1175,136.5,96.9,0.524
14.14,32028.9,35079.8,0.4928,0.9856,136.5,96.9,0.524
14.16,32033.5,35157.2,0.5705,1.9326,136.5,96.9,0.524
14.18,32025.5,35141.0,0.435,1.7346,136.5,96.9,0.524
14.2,31919.3,35062.2,-1.3558,0.7694,136.5,96.9,0.524
14.22,32014.5,34985.6,0.2493,-0.1687,136.5,96.9,0.524
14.24,31930.6,34963.3,-1.1655,-0.4411,136.5,96.9,0.524
14.26,31964.0,35062.4,-0.6012,0.7718,136.5,96.9,0.524
14.28,32060.0,34998.4,1.0172,-0.0119,136.5,96.9,0.524
14.3,31973.3,34931.7,-0.4457,-0.8283,136.5,96.9,0.524
14.32,31885.2,34976.6,-1.9314,-0.2782,136.5,96.9,0.524
14.34,32007.7,34921.9,0.1354,-0.9483,136.5,96.9,0.524
14.36,32013.7,35005.1,0.237,0.0708,136.5,96.9,0.524
14.38,31904.7,34872.0,-1.6014,-1.5591,136.5,96.9,0.524
14.4,32068.5,34959.5,1.1605,-0.4878,136.5,96.9,0.524
14.42,31960.7,34935.1,-0.6572,-0.7863,136.5,96.9,0.524
14.44,31892.5,34926.5,-1.8069,-0.8925,136.5,96.9,0.524
14.46,31942.7,34941.4,-0.9603,-0.7092,136.5,96.9,0.524
14.48,31990.9,34950.3,-0.1474,-0.6003,136.5,96.9,0.524
14.5,31958.6,34966.6,-0.6931,-0.4017,136.5,96.9,0.524
14.52,31983.0,35048.4,-0.2816,0.6007,136.5,96.9,0.524
14.54,32039.9,35185.3,0.6788,2.277,136.5,96.9,0.524
14.56,32055.7,35119.0,0.9453,1.4646,136.5,96.9,0.524
14.58,32008.5,35058.6,0.1493,0.7254,136.5,96.9,0.524
14.6,31984.8,35155.2,-0.2507,1.9083,136.5,96.9,0.524
14.62,32067.9,35009.1,1.1509,0.1188,136.5,96.9,0.524
14.64,31983.7,35011.2,-0.2704,0.1454,136.5,96.9,0.524
14.66,31941.6,35010.3,-0.9794,0.1343,136.5,96.9,0.524
14.68,32028.2,35105.6,0.4807,1.3011,136.5,96.9,0.524
14.7,31988.5,34965.8,-0.1894,-0.4111,136.5,96.9,0.524
14.72,31930.0,34977.8,-1.1759,-0.2642,136.5,96.9,0.524
14.74,31901.5,35124.1,-1.6566,1.5275,136.5,96.9,0.524
14.76,32001.0,34953.0,0.0213,-0.5674,136.5,96.9,0.524
14.78,31994.9,34910.0,-0.0806,-1.0948,136.5,96.9,0.524
14.8,31968.5,34903.3,-0.5257,-1.1768,136.5,96.9,0.524
14.82,31881.0,34900.8,-2.0013,-1.2072,136.5,96.9,0.524
14.84,31991.6,34950.4,-0.1363,-0.5997,136.5,96.9,0.524
14.86,31908.8,34946.5,-1.5333,-0.6466,136.5,96.9,0.524
14.88,31955.5,34899.9,-0.7444,-1.2178,136.5,96.9,0.524
14.9,31875.5,34955.4,-2.0943,-0.5376,136.5,96.9,0.524
14.92,32009.0,34910.1,0.1566,-1.0927,136.5,96.9,0.524
14.94,32036.5,35014.3,0.621,0.1828,136.5,96.9,0.524
14.96,32023.9,35091.4,0.4082,1.127,136.5,96.9,0.524
14.98,32119.5,35020.4,2.0198,0.2579,136.5,96.9,0.524
15.0,32076.4,35131.8,1.2938,1.6213,136.5,96.9,0.524
15.02,32066.7,35086.8,1.1308,1.0707,136.5,96.9,0.524
15.04,31974.8,35098.0,-0.4204,1.2081,136.5,96.9,0.524
15.06,31945.9,35079.9,-0.9071,0.9867,136.5,96.9,0.524
15.08,32124.9,35077.1,2.1106,0.9519,136.5,96.9,0.524
15.1,31960.6,35033.9,-0.6585,0.4231,136.5,96.9,0.524
15.12,31984.3,34939.2,-0.2595,-0.736,136.5,96.9,0.524
15.14,31994.4,35006.3,-0.0891,0.0855,136.5,96.9,0.524
15.16,32021.9,34976.4,0.3753,-0.2809,136.5,96.9,0.524
15.18,31957.0,34953.1,-0.7198,-0.566,136.5,96.9,0.524
15.2,32013.7,35005.2,0.236,0.0719,136.5,96.9,0.524
15.22,32052.1,35023.3,0.8836,0.2936,136.5,96.9,0.524
15.24,31996.6,34937.0,-0.0523,-0.763,136.5,96.9,0.524
15.26,31952.7,34990.7,-0.7921,-0.1056,136.5,96.9,0.524
15.28,31909.1,34989.2,-1.5272,-0.1248,136.5,96.9,0.524
15.3,31986.2,34947.9,-0.2277,-0.63,136.5,96.9,0.524
15.32,31969.7,34908.3,-0.5049,-1.1146,136.5,96.9,0.524
15.34,31975.7,35002.4,-0.4048,0.037,136.5,96.9,0.524
15.36,31927.2,34941.4,-1.223,-0.7097,136.5,96.9,0.524
15.38,31967.7,34915.6,-0.5402,-1.0261,136.5,96.9,0.524
15.4,32061.2,35148.4,1.0374,1.825,136.5,96.9,0.524
15.42,32004.9,35028.4,0.0877,0.3557,136.5,96.9,0.524
15.44,31980.4,35102.8,-0.3261,1.2667,136.5,96.9,0.524
15.46,32059.8,35201.7,1.0135,2.4781,136.5,96.9,0.524
15.48,32054.2,35176.7,0.9189,2.1722,136.5,96.9,0.524
15.5,31913.7,35117.0,-1.4494,1.4407,136.5,96.9,0.524
15.52,32047.1,35107.1,0.7995,1.3195,136.5,96.9,0.524
15.54,32038.2,35026.4,0.6494,0.3312,136.5,96.9,0.524
15.56,31967.9,34937.0,-0.5359,-0.7639,136.5,96.9,0.524
15.58,32044.9,35053.4,0.7625,0.6614,136.5,96.9,0.524
15.6,32095.5,34934.3,1.616,-0.7967,136.5,96.9,0.524
15.62,31976.1,34956.8,-0.3972,-0.5207,136.5,96.9,0.524
15.64,32028.2,34975.8,0.4815,-0.2878,136.5,96.9,0.524
15.66,32125.3,34990.7,2.1188,-0.1056,136.5,96.9,0.524
15.68,31938.6,35025.2,-1.0294,0.3159,136.5,96.9,0.524
15.7,31918.7,34907.1,-1.3658,-1.1298,136.5,96.9,0.524
15.72,31961.8,34904.5,-0.6396,-1.1618,136.5,96.9,0.524
15.74,32016.0,34842.0,0.2742,-1.9266,136.5,96.9,0.524
15.76,32035.9,34840.1,0.6103,-1.9496,136.5,96.9,0.524
15.78,31943.0,34988.4,-0.9562,-0.1339,136.5,96.9,0.524
15.8,32021.3,34951.7,0.3649,-0.583,136.5,96.9,0.524
15.82,32103.9,34952.0,1.7576,-0.5804,136.5,96.9,0.524
15.84,32004.0,34997.5,0.0721,-0.0231,136.5,96.9,0.524
15.86,32020.3,35070.0,0.3469,0.8648,136.5,96.9,0.524
15.88,32026.6,35017.1,0.4539,0.2176,136.5,96.9,0.524
15.9,32032.6,35074.2,0.5557,0.9163,136.5,96.9,0.524
15.92,32045.8,35156.4,0.7772,1.9231,136.5,96.9,0.524
15.94,32092.3,35133.7,1.5615,1.6445,136.5,96.9,0.524
15.96,32052.0,34979.4,0.8829,-0.2449,136.5,96.9,0.524
15.98,32137.3,35026.2,2.3208,0.3284,136.5,96.9,0.524
16.0,31983.4,35019.7,-0.2743,0.2494,136.5,96.9,0.524
16.02,32012.5,34937.9,0.2153,-0.752,136.5,96.9,0.524
16.04,31962.5,34983.5,-0.6277,-0.1944,136.5,96.9,0.524
16.06,31944.3,35012.0,-0.9348,0.1546,136.5,96.9,0.524
16.08,31989.0,34982.3,-0.1796,-0.2083,136.5,96.9,0.524
16.1,32022.5,34941.0,0.3839,-0.7145,136.5,96.9,0.524
16.12,31968.0,34936.9,-0.535,-0.7649,136.5,96.9,0.524
16.14,32008.3,34938.9,0.1456,-0.7407,136.5,96.9,0.524
16.16,31946.0,34905.8,-0.9049,-1.1457,136.5,96.9,0.524
16.18,31878.8,34923.9,-2.0378,-0.9237,136.5,96.9,0.524
16.2,31931.8,34931.3,-1.1445,-0.8338,136.5,96.9,0.524
16.22,31927.4,34960.1,-1.2185,-0.4806,136.5,96.9,0.524
16.24,31955.1,34951.5,-0.7526,-0.5858,136.5,96.9,0.524
16.26,32071.7,34953.0,1.2135,-0.5671,136.5,96.9,0.524
16.28,31950.6,35029.6,-0.8281,0.3703,136.5,96.9,0.524
16.3,32028.5,35164.0,0.486,2.0165,136.5,96.9,0.524
16.32,32020.7,35166.4,0.3544,2.045,136.5,96.9,0.524
16.34,32126.6,35091.1,2.1396,1.1232,136.5,96.9,0.524
16.36,32042.6,35100.8,0.7242,1.2427,136.5,96.9,0.524
16.38,31996.3,35138.9,-0.0576,1.7083,136.5,96.9,0.524
16.4,32028.7,35017.7,0.4894,0.2242,136.5,96.9,0.524
16.42,32001.2,34954.5,0.0258,-0.5489,136.5,96.9,0.524
16.44,32043.5,35020.5,0.7382,0.2595,136.5,96.9,0.524
16.46,32024.9,34878.9,0.425,-1.4753,136.5,96.9,0.524
16.48,31897.5,35029.3,-1.7237,0.3664,136.5,96.9,0.524
16.5,31942.8,35016.7,-0.9587,0.2129,136.5,96.9,0.524
16.52,31888.4,35044.4,-1.8763,0.5519,136.5,96.9,0.524
16.54,31866.7,34928.3,-2.2427,-0.8702,136.5,96.9,0.524
16.56,31934.7,34893.7,-1.0952,-1.2932,136.5,96.9,0.524
16.58,31966.7,34964.3,-0.557,-0.4288,136.5,96.9,0.524
16.6,31987.0,34889.8,-0.2134,-1.3411,136.5,96.9,0.524
16.62,31968.7,34899.6,-0.5229,-1.222,136.5,96.9,0.524
16.64,32003.5,34820.3,0.0648,-2.192,136.5,96.9,0.524
16.66,32008.1,34849.9,0.1418,-1.8302,136.5,96.9,0.524
16.68,32094.3,34957.6,1.5957,-0.5107,136.5,96.9,0.524
16.7,32063.4,35061.2,1.0741,0.7571,136.5,96.9,0.524
16.72,32053.5,35132.8,0.9081,1.6342,136.5,96.9,0.524
16.74,31987.5,35156.5,-0.2058,1.9241,136.5,96.9,0.524
16.76,32067.1,35066.0,1.1372,0.816,136.5,96.9,0.524
16.78,32018.7,35160.4,0.321,1.9717,136.5,96.9,0.524
16.8,32007.4,35099.4,0.1298,1.2248,136.5,96.9,0.524
16.82,32053.4,35042.3,0.9064,0.5257,136.5,96.9,0.524
16.84,32052.3,35132.4,0.8864,1.6297,136.5,96.9,0.524
16.86,32050.3,34967.1,0.8533,-0.3944,136.5,96.9,0.524
16.88,32013.0,34939.9,0.2244,-0.7277,136.5,96.9,0.524
16.9,32041.2,35001.7,0.6991,0.0282,136.5,96.9,0.524
16.92,32071.2,34994.1,1.2055,-0.0647,136.5,96.9,0.524
16.94,31959.8,34980.7,-0.6722,-0.2284,136.5,96.9,0.524
16.96,31931.5,34997.1,-1.1505,-0.028,136.5,96.9,0.524
16.98,32043.4,34966.5,0.7365,-0.4026,136.5,96.9,0.524
17.0,32002.3,34968.7,0.0445,-0.3753,136.5,96.9,0.524
17.02,31875.4,35008.3,-2.0959,0.1089,136.5,96.9,0.524
17.04,31962.0,35005.4,-0.6362,0.0743,136.5,96.9,0.524
17.06,31951.2,34936.2,-0.818,-0.7737,136.5,96.9,0.524
17.08,31878.5,34963.5,-2.0432,-0.4388,136.5,96.9,0.524
17.1,31875.0,34973.2,-2.1034,-0.3206,136.5,96.9,0.524
17.12,31948.4,35019.1,-0.8644,0.2417,136.5,96.9,0.524
17.14,32001.8,35011.5,0.035,0.1489,136.5,96.9,0.524
17.16,31986.3,35052.6,-0.2255,0.6514,136.5,96.9,0.524
17.18,32027.9,35001.6,0.475,0.0277,136.5,96.9,0.524
17.2,32150.1,35118.1,2.5357,1.4537,136.5,96.9,0.524
17.22,32115.1,35086.2,1.9464,1.0638,136.5,96.9,0.524
17.24,32046.9,35142.7,0.7955,1.7556,136.5,96.9,0.524
17.26,32011.9,35155.0,0.2067,1.9055,136.5,96.9,0.524
17.28,31950.9,34993.9,-0.8222,-0.0674,136.5,96.9,0.524
17.3,31998.3,35088.8,-0.0231,1.095,136.5,96.9,0.524
17.32,32015.0,35134.8,0.2581,1.658,136.5,96.9,0.524
17.34,32015.8,35087.0,0.2716,1.073,136.5,96.9,0.524
17.36,31953.0,35032.0,-0.7878,0.3997,136.5,96.9,0.524
17.38,32022.4,34957.1,0.3829,-0.5173,136.5,96.9,0.524
17.4,31984.7,35002.0,-0.252,0.0326,136.5,96.9,0.524
17.42,31953.1,34907.7,-0.7858,-1.122,136.5,96.9,0.524
17.44,31956.4,34887.0,-0.7293,-1.3755,136.5,96.9,0.524
17.46,31986.3,34968.8,-0.2256,-0.374,136.5,96.9,0.524
17.48,31984.9,35004.4,-0.2501,0.0621,136.5,96.9,0.524
17.5,32032.5,34919.2,0.5528,-0.9816,136.5,96.9,0.524
17.52,31986.8,34922.0,-0.217,-0.947,136.5,96.9,0.524
17.54,31997.9,34894.3,-0.0294,-1.2867,136.5,96.9,0.524
17.56,32002.5,34917.7,0.0482,-1.0001,136.5,96.9,0.524
17.58,32032.1,35006.5,0.547,0.0869,136.5,96.9,0.524
17.6,31947.0,34906.6,-0.8892,-1.1355,136.5,96.9,0.524
17.62,32125.9,35031.2,2.129,0.3899,136.5,96.9,0.524
17.64,32175.7,35135.1,2.9679,1.6628,136.5,96.9,0.524
17.66,32055.7,35077.1,0.9447,0.9525,136.5,96.9,0.524
17.68,32099.9,35072.0,1.6897,0.8897,136.5,96.9,0.524
17.7,31965.0,34999.5,-0.5845,0.002,136.5,96.9,0.524
17.72,31992.8,35041.6,-0.1169,0.5171,136.5,96.9,0.524
17.74,32051.7,34976.4,0.8772,-0.2816,136.5,96.9,0.524
17.76,32028.8,34944.0,0.491,-0.6774,136.5,96.9,0.524
17.78,31990.7,34907.4,-0.1517,-1.1265,136.5,96.9,0.524
17.8,32039.5,34891.4,0.6718,-1.3213,136.5,96.9,0.524
17.82,31999.1,34964.0,-0.0097,-0.4335,136.5,96.9,0.524
17.84,31978.2,34944.1,-0.3618,-0.6764,136.5,96.9,0.524
17.86,31971.1,34903.6,-0.4828,-1.172,136.5,96.9,0.524
17.88,31896.9,34903.0,-1.7332,-1.1798,136.5,96.9,0.524
17.9,31990.0,35066.7,-0.164,0.8242,136.5,96.9,0.524
17.92,32001.5,34906.0,0.0311,-1.143,136.5,96.9,0.524
17.94,32010.2,34913.0,0.1778,-1.058,136.5,96.9,0.524
17.96,31872.7,34872.3,-2.1416,-1.5557,136.5,96.9,0.524
17.98,32033.5,34899.6,0.5698,-1.2213,136.5,96.9,0.524
18.0,31903.2,34969.3,-1.6279,-0.3677,136.5,96.9,0.524
18.02,31997.6,35074.1,-0.0351,0.9156,136.5,96.9,0.524
18.04,31974.9,35085.6,-0.4186,1.0555,136.5,96.9,0.524
18.06,32004.1,35194.2,0.0743,2.3857,136.5,96.9,0.524
18.08,32077.1,35044.3,1.3057,0.5509,136.5,96.9,0.524
18.1,32034.0,34983.8,0.5789,-0.1908,136.5,96.9,0.524
18.12,32084.2,35102.2,1.4255,1.2591,136.5,96.9,0.524
18.14,31965.6,35113.4,-0.575,1.396,136.5,96.9,0.524
18.16,32086.7,35055.9,1.4669,0.6927,136.5,96.9,0.524
18.18,31955.6,34956.7,-0.7427,-0.5225,136.5,96.9,0.524
18.2,31922.5,35014.6,-1.3013,0.1861,136.5,96.9,0.524
18.22,31959.9,34994.3,-0.6713,-0.0617,136.5,96.9,0.524
18.24,31968.8,34976.8,-0.5207,-0.2761,136.5,96.9,0.524
18.26,31994.5,35055.4,-0.0881,0.6862,136.5,96.9,0.524
18.28,32072.0,35003.4,1.2187,0.0497,136.5,96.9,0.524
18.3,32038.9,34962.3,0.661,-0.4541,136.5,96.9,0.524
18.32,32019.0,34888.3,0.3248,-1.3601,136.5,96.9,0.524
18.34,31996.7,34909.4,-0.0499,-1.1018,136.5,96.9,0.524
18.36,31920.0,34981.5,-1.3446,-0.2188,136.5,96.9,0.524
18.38,32030.2,34891.1,0.5148,-1.3252,136.5,96.9,0.524
18.4,31962.5,34904.4,-0.6267,-1.1631,136.5,96.9,0.524
18.42,31922.5,34926.0,-1.3024,-0.8982,136.5,96.9,0.524
18.44,31940.5,34927.1,-0.999,-0.8842,136.5,96.9,0.524
18.46,32012.8,34963.3,0.2218,-0.4418,136.5,96.9,0.524
18.48,31982.6,35007.3,-0.2876,0.0967,136.5,96.9,0.524
18.5,32100.0,35112.3,1.6919,1.3827,136.5,96.9,0.524
18.52,32050.2,35237.0,0.8514,2.9094,136.5,96.9,0.524
18.54,32099.3,35042.5,1.6795,0.5284,136.5,96.9,0.524
18.56,32031.6,35157.2,0.5377,1.9327,136.5,96.9,0.524
18.58,32019.2,35114.1,0.3287,1.4055,136.5,96.9,0.524
18.6,32014.5,35013.0,0.2496,0.167,136.5,96.9,0.524
18.62,31969.9,35031.9,-0.5027,0.3989,136.5,96.9,0.524
18.64,31994.4,34983.3,-0.0894,-0.1966,136.5,96.9,0.524
18.66,32046.0,35086.4,0.7814,1.066,136.5,96.9,0.524
18.68,32079.0,34962.5,1.3368,-0.4511,136.5,96.9,0.524
18.7,32110.5,34993.2,1.8678,-0.0748,136.5,96.9,0.524
18.72,31947.4,34952.1,-0.8814,-0.5791,136.5,96.9,0.524
18.74,32025.4,34945.8,0.4337,-0.656,136.5,96.9,0.524
18.76,32026.2,35022.0,0.4479,0.2769,136.5,96.9,0.524
18.78,32015.3,34888.5,0.2634,-1.3573,136.5,96.9,0.524
18.8,31981.5,34911.7,-0.3073,-1.0733,136.5,96.9,0.524
18.82,31951.8,34958.3,-0.8076,-0.5033,136.5,96.9,0.524
18.84,31988.4,34976.6,-0.1912,-0.2787,136.5,96.9,0.524
18.86,31954.6,34817.6,-0.7609,-2.2261,136.5,96.9,0.524
18.88,31976.4,34913.8,-0.392,-1.0478,136.5,96.9,0.524
18.9,31856.4,34911.5,-2.4156,-1.0754,136.5,96.9,0.524
18.92,32125.7,34987.1,2.1241,-0.1496,136.5,96.9,0.524
18.94,32053.6,35126.1,0.9091,1.5514,136.5,96.9,0.524
18.96,32058.9,35094.0,0.9978,1.1584,136.5,96.9,0.524
18.98,31991.5,35162.7,-0.1373,1.9997,136.5,96.9,0.524
19.0,32078.3,35126.5,1.3261,1.5565,136.5,96.9,0.524
19.02,32028.5,35077.1,0.485,0.9523,136.5,96.9,0.524
19.04,32072.0,35092.6,1.219,1.1413,136.5,96.9,0.524
19.06,32111.8,34995.3,1.8905,-0.0494,136.5,96.9,0.524
19.08,31985.6,35054.7,-0.2381,0.6775,136.5,96.9,0.524
19.1,31938.0,35053.0,-1.0405,0.6563,136.5,96.9,0.524
19.12,32022.2,35034.0,0.3791,0.4239,136.5,96.9,0.524
19.14,31881.7,35005.9,-1.9897,0.0796,136.5,96.9,0.524
19.16,31956.5,34968.2,-0.7289,-0.3818,136.5,96.9,0.524
19.18,31957.0,34970.1,-0.7196,-0.3587,136.5,96.9,0.524
19.2,32057.2,34931.7,0.9699,-0.8283,136.5,96.9,0.524
19.22,31984.5,34909.6,-0.2567,-1.0985,136.5,96.9,0.524
19.24,31955.1,34887.2,-0.7525,-1.373,136.5,96.9,0.524
19.26,31938.3,34899.2,-1.0351,-1.2268,136.5,96.9,0.524
19.28,31922.9,34901.6,-1.2942,-1.1975,136.5,96.9,0.524
19.3,31976.9,34974.9,-0.3838,-0.2998,136.5,96.9,0.524
19.32,31946.7,34933.0,-0.893,-0.8124,136.5,96.9,0.524
19.34,31999.0,34928.3,-0.0124,-0.8699,136.5,96.9,0.524
19.36,32031.4,35099.8,0.5356,1.2295,136.5,96.9,0.524
19.38,32159.0,35143.6,2.6869,1.7666,136.5,96.9,0.524
19.4,32027.0,35096.3,0.4597,1.1876,136.5,96.9,0.524
19.42,32115.7,35021.0,1.9568,0.2651,136.5,96.9,0.524
19.44,31966.5,35178.3,-0.5598,2.191,136.5,96.9,0.524
19.46,31938.0,35023.2,-1.0396,0.2925,136.5,96.9,0.524
19.48,32034.9,34983.2,0.594,-0.198,136.5,96.9,0.524
19.5,32073.9,35051.6,1.2507,0.6393,136.5,96.9,0.524
19.52,32019.3,34964.2,0.3304,-0.4305,136.5,96.9,0.524
19.54,32075.3,35023.3,1.2745,0.2928,136.5,96.9,0.524
19.56,31936.3,34978.4,-1.0692,-0.2568,136.5,96.9,0.524
19.58,32032.5,34955.6,0.5534,-0.5352,136.5,96.9,0.524
19.6,32005.7,35040.3,0.1005,0.5019,136.5,96.9,0.524
19.62,31969.6,34929.0,-0.5072,-0.8619,136.5,96.9,0.524
19.64,31919.6,34909.4,-1.3504,-1.1011,136.5,96.9,0.524
19.66,31880.2,34890.3,-2.0147,-1.3352,136.5,96.9,0.524
19.68,31966.3,34955.3,-0.5623,-0.5391,136.5,96.9,0.524
19.7,32055.9,34869.6,0.9474,-1.5889,136.5,96.9,0.524
19.72,31934.1,34911.0,-1.1054,-1.082,136.5,96.9,0.524
19.74,31905.4,34886.1,-1.5899,-1.3866,136.5,96.9,0.524
19.76,31977.8,35022.2,-0.37,0.2801,136.5,96.9,0.524
19.78,31985.8,34954.2,-0.2344,-0.5533,136.5,96.9,0.524
19.8,32018.1,35024.9,0.3097,0.3127,136.5,96.9,0.524
19.82,32088.9,35173.8,1.5049,2.1366,136.5,96.9,0.524
19.84,32024.6,35172.9,0.4207,2.1251,136.5,96.9,0.524
19.86,32059.5,35039.3,1.0091,0.4893,136.5,96.9,0.524
19.88,32071.4,35178.4,1.2094,2.1919,136.5,96.9,0.524
19.9,31962.1,34904.0,-0.634,-1.1672,136.5,96.9,0.524
19.92,32026.1,35032.1,0.4454,0.4004,136.5,96.9,0.524
19.94,32011.4,35028.2,0.1968,0.3538,136.5,96.9,0.524
19.96,31988.2,34871.0,-0.1942,-1.5713,136.5,96.9,0.524
19.98,32005.9,34997.6,0.1044,-0.0214,136.5,96.9,0.524
20.0,32079.3,34968.3,1.3422,-0.38,136.5,96.9,0.524
20.02,31920.9,34923.8,-1.3289,-0.9253,136.5,96.9,0.524
20.04,32031.1,34945.4,0.5305,-0.6608,136.5,96.9,0.524
20.06,31991.1,34905.2,-0.1453,-1.1528,136.5,96.9,0.524
20.08,31986.4,34929.3,-0.2239,-0.8584,136.5,96.9,0.524
20.1,32057.0,34954.2,0.9663,-0.5532,136.5,96.9,0.524
20.12,31878.3,34968.5,-2.0476,-0.378,136.5,96.9,0.524
20.14,31998.8,34959.8,-0.0147,-0.4847,136.5,96.9,0.524
20.16,31978.6,34928.6,-0.3562,-0.8658,136.5,96.9,0.524
20.18,32002.7,34978.5,0.0514,-0.2554,136.5,96.9,0.524
20.2,32008.7,34854.4,0.1514,-1.7754,136.5,96.9,0.524
20.22,32001.2,35079.0,0.0254,0.9754,136.5,96.9,0.524
20.24,32073.3,35089.5,1.2412,1.1037,136.5,96.9,0.524
20.26,31990.2,35191.3,-0.1601,2.3509,136.5,96.9,0.524
20.28,32031.1,35200.9,0.5297,2.4674,136.5,96.9,0.524
20.3,32122.9,35129.9,2.078,1.5986,136.5,96.9,0.524
20.32,32027.2,35042.7,0.4641,0.5302,136.5,96.9,0.524
20.34,31991.0,35074.1,-0.1466,0.915,136.5,96.9,0.524
20.36,32015.2,35052.1,0.262,0.6457,136.5,96.9,0.524
20.38,32018.4,35025.9,0.3156,0.3252,136.5,96.9,0.524
20.4,31925.7,34946.0,-1.247,-0.6533,136.5,96.9,0.524
20.42,32022.5,34850.4,0.3839,-1.8243,136.5,96.9,0.524
20.44,32002.5,35059.4,0.0478,0.7356,136.5,96.9,0.524
20.46,32004.5,34960.7,0.0807,-0.4738,136.5,96.9,0.524
20.48,32022.2,34996.8,0.3791,-0.0316,136.5,96.9,0.524
20.5,31991.2,35001.4,-0.1438,0.0256,136.5,96.9,0.524
20.52,31922.7,34932.3,-1.2986,-0.8216,136.5,96.9,0.524
20.54,31984.7,34912.1,-0.2524,-1.0682,136.5,96.9,0.524
20.56,31972.4,34937.2,-0.4601,-0.7612,136.5,96.9,0.524
20.58,31974.9,34894.9,-0.4184,-1.2795,136.5,96.9,0.524
20.6,31914.3,34944.0,-1.4394,-0.6775,136.5,96.9,0.524
20.62,31912.9,34929.8,-1.4628,-0.8518,136.5,96.9,0.524
20.64,31972.1,35051.3,-0.4652,0.6357,136.5,96.9,0.524
20.66,31969.8,35034.1,-0.5037,0.4255,136.5,96.9,0.524
20.68,32022.0,35077.6,0.3756,0.9579,136.5,96.9,0.524
20.7,32039.8,35056.5,0.676,0.6993,136.5,96.9,0.524
20.72,32011.4,35137.8,0.1977,1.6958,136.5,96.9,0.524
20.74,32013.5,35148.3,0.2321,1.8235,136.5,96.9,0.524
20.76,32061.2,35095.2,1.0368,1.1741,136.5,96.9,0.524
20.78,32096.3,34983.6,1.63,-0.1928,136.5,96.9,0.524
20.8,31934.5,34982.3,-1.0998,-0.2088,136.5,96.9,0.524
20.82,32004.9,35000.1,0.088,0.0086,136.5,96.9,0.524
20.84,31998.8,34933.9,-0.0151,-0.8009,136.5,96.9,0.524
20.86,32024.1,34993.4,0.4109,-0.0733,136.5,96.9,0.524
20.88,32056.9,34943.3,0.965,-0.6868,136.5,96.9,0.524
20.9,31948.1,34960.4,-0.8707,-0.4767,136.5,96.9,0.524
20.92,32006.3,35014.2,0.1112,0.1822,136.5,96.9,0.524
20.94,31923.6,34980.6,-1.2826,-0.2293,136.5,96.9,0.524
20.96,31972.0,34873.3,-0.4666,-1.5438,136.5,96.9,0.524
20.98,32086.0,34874.3,1.4547,-1.5308,136.5,96.9,0.524
21.0,32040.5,35031.6,0.6876,0.3945,136.5,96.9,0.524
21.02,32006.7,34879.4,0.119,-1.4683,136.5,96.9,0.524
21.04,32008.3,34878.1,0.1453,-1.4853,136.5,96.9,0.524
21.06,32037.1,34949.6,0.63,-0.6095,136.5,96.9,0.524
21.08,31911.7,34995.9,-1.4837,-0.0426,136.5,96.9,0.524
21.1,32049.3,35000.9,0.8361,0.0189,136.5,96.9,0.524
21.12,32036.7,35114.9,0.6243,1.4143,136.5,96.9,0.524
21.14,31995.8,35046.3,-0.0649,0.5749,136.5,96.9,0.524
21.16,32139.2,35155.6,2.3531,1.9126,136.5,96.9,0.524
21.18,31983.7,35116.9,-0.27,1.4398,136.5,96.9,0.524
21.2,32015.4,35036.6,0.265,0.4562,136.5,96.9,0.524
21.22,32034.6,34956.0,0.5879,-0.5311,136.5,96.9,0.524
21.24,32099.5,35055.9,1.6839,0.6918,136.5,96.9,0.524
21.26,31970.0,34989.5,-0.5,-0.1207,136.5,96.9,0.524
21.28,32061.6,34980.7,1.0438,-0.2289,136.5,96.9,0.524
21.3,32004.2,35009.4,0.0766,0.1227,136.5,96.9,0.524
21.32,31908.1,35058.0,-1.5446,0.7175,136.5,96.9,0.524
21.34,32052.9,34943.2,0.8981,-0.6882,136.5,96.9,0.524
21.36,32014.2,34951.6,0.244,-0.5842,136.5,96.9,0.524
21.38,31956.0,34881.4,-0.7364,-1.4438,136.5,96.9,0.524
21.4,31938.9,34970.9,-1.0247,-0.3479,136.5,96.9,0.524
21.42,31985.1,34905.4,-0.2455,-1.1502,136.5,96.9,0.524
21.44,31904.9,34916.6,-1.5987,-1.013,136.5,96.9,0.524
21.46,32014.7,34941.7,0.2532,-0.7061,136.5,96.9,0.524
21.48,31989.6,34901.7,-0.1695,-1.1952,136.5,96.9,0.524
21.5,31973.8,34983.3,-0.4365,-0.1968,136.5,96.9,0.524
21.52,32042.6,34979.4,0.7232,-0.2447,136.5,96.9,0.524
21.54,32097.9,35046.0,1.6555,0.5715,136.5,96.9,0.524
21.56,31952.5,35104.1,-0.7955,1.283,136.5,96.9,0.524
21.58,32022.2,35092.8,0.3791,1.1443,136.5,96.9,0.524
21.6,32084.0,35122.1,1.422,1.5029,136.5,96.9,0.524
21.62,32050.4,35088.1,0.8549,1.0867,136.5,96.9,0.524
21.64,32000.5,35117.3,0.0129,1.4442,136.5,96.9,0.524
21.66,31998.2,34963.2,-0.025,-0.4422,136.5,96.9,0.524
21.68,31995.7,35023.1,-0.0673,0.2907,136.5,96.9,0.524
21.7,32043.2,35086.3,0.7334,1.0649,136.5,96.9,0.524
21.72,31993.3,35077.6,-0.1076,0.9582,136.5,96.9,0.524
21.74,31928.6,34966.5,-1.1986,-0.4017,136.5,96.9,0.524
21.76,31936.5,35028.9,-1.0662,0.3622,136.5,96.9,0.524
21.78,31950.6,34975.3,-0.8271,-0.2946,136.5,96.9,0.524
21.8,32046.0,34952.8,0.781,-0.5697,136.5,96.9,0.524
21.82,31941.4,34832.5,-0.9837,-2.0432,136.5,96.9,0.524
21.84,32004.9,34908.6,0.0883,-1.1107,136.5,96.9,0.524
21.86,31994.5,34918.2,-0.0879,-0.9931,136.5,96.9,0.524
21.88,31899.4,35023.5,-1.6915,0.2959,136.5,96.9,0.524
21.9,31985.4,34891.0,-0.2411,-1.3269,136.5,96.9,0.524
21.92,31986.8,34968.7,-0.2175,-0.3753,136.5,96.9,0.524
21.94,31913.5,34885.6,-1.4543,-1.3934,136.5,96.9,0.524
21.96,31933.4,34982.1,-1.1181,-0.2117,136.5,96.9,0.524
21.98,32061.1,34977.1,1.0363,-0.2723,136.5,96.9,0.524
22.0,31964.9,35071.4,-0.5874,0.8819,136.5,96.9,0.524
22.02,32019.1,35088.5,0.3278,1.0915,136.5,96.9,0.524
22.04,32159.7,35155.0,2.6978,1.9053,136.5,96.9,0.524
22.06,32016.1,35194.0,0.2775,2.3837,136.5,96.9,0.524
22.08,31993.1,35059.2,-0.1109,0.7328,136.5,96.9,0.524
22.1,32040.4,35056.2,0.6867,0.6962,136.5,96.9,0.524
22.12,31993.2,35027.4,-0.1095,0.3432,136.5,96.9,0.524
22.14,31984.3,35014.1,-0.26,0.1799,136.5,96.9,0.524
22.16,32031.0,34992.2,0.5273,-0.087,136.5,96.9,0.524
22.18,32015.0,34934.7,0.2589,-0.7916,136.5,96.9,0.524
22.2,31963.3,35025.1,-0.6143,0.315,136.5,96.9,0.524
22.22,32024.3,34953.9,0.4143,-0.5568,136.5,96.9,0.524
22.24,31954.2,34900.8,-0.7666,-1.2068,136.5,96.9,0.524
22.26,31932.9,34877.6,-1.1256,-1.4904,136.5,96.9,0.524
22.28,31978.8,34928.4,-0.3531,-0.8689,136.5,96.9,0.524
22.3,31934.7,34944.7,-1.0951,-0.6698,136.5,96.9,0.524
22.32,31954.7,34890.9,-0.7594,-1.3281,136.5,96.9,0.524
22.34,31860.5,35019.3,-2.3467,0.2438,136.5,96.9,0.524
22.36,32029.4,34848.8,0.501,-1.8439,136.5,96.9,0.524
22.38,31978.5,34842.8,-0.3581,-1.9164,136.5,96.9,0.524
22.4,31975.0,34986.1,-0.4169,-0.1619,136.5,96.9,0.524
22.42,32029.7,35010.1,0.5059,0.1321,136.5,96.9,0.524
22.44,32028.2,35069.3,0.4806,0.8563,136.5,96.9,0.524
22.46,32004.3,35047.0,0.078,0.5832,136.5,96.9,0.524
22.48,32050.8,35140.3,0.8616,1.7261,136.5,96.9,0.524
22.5,32119.5,35078.5,2.0201,0.969,136.5,96.9,0.524
22.52,32047.3,35089.2,0.8026,1.1005,136.5,96.9,0.524
22.54,32004.7,35086.8,0.0847,1.0711,136.5,96.9,0.524
22.56,31952.7,35045.6,-0.7932,0.5662,136.5,96.9,0.524
22.58,32010.7,34998.0,0.1855,-0.0171,136.5,96.9,0.524
22.6,31972.1,34983.6,-0.4651,-0.1932,136.5,96.9,0.524
22.62,31976.4,35004.5,-0.3924,0.0634,136.5,96.9,0.524
22.64,32017.6,34954.1,0.3013,-0.5544,136.5,96.9,0.524
22.66,32037.2,34987.9,0.6331,-0.1399,136.5,96.9,0.524
22.68,31922.0,34912.0,-1.3105,-1.0697,136.5,96.9,0.524
22.7,32023.2,34949.2,0.3965,-0.6139,136.5,96.9,0.524
22.72,31970.5,34949.2,-0.4917,-0.6138,136.5,96.9,0.524
22.74,31866.2,34960.3,-2.2503,-0.4785,136.5,96.9,0.524
22.76,31966.5,34917.1,-0.559,-1.0071,136.5,96.9,0.524
22.78,32034.0,34995.1,0.5792,-0.0521,136.5,96.9,0.524
22.8,31907.8,34986.9,-1.5491,-0.1519,136.5,96.9,0.524
22.82,31913.3,34954.9,-1.457,-0.5449,136.5,96.9,0.524
22.84,32093.0,34991.9,1.5732,-0.0916,136.5,96.9,0.524
22.86,31968.0,35046.8,-0.5338,0.5805,136.5,96.9,0.524
22.88,32023.7,35090.8,0.405,1.1203,136.5,96.9,0.524
22.9,32062.7,35104.1,1.0628,1.283,136.5,96.9,0.524
22.92,32043.6,35174.1,0.7401,2.1396,136.5,96.9,0.524
22.94,32009.9,35072.3,0.1719,0.893,136.5,96.9,0.524
22.96,32069.4,35044.3,1.1755,0.5498,136.5,96.9,0.524
22.98,31966.0,34928.3,-0.5675,-0.8703,136.5,96.9,0.524
23.0,32103.5,34983.0,1.7503,-0.2003,136.5,96.9,0.524
23.02,32016.3,35039.6,0.2806,0.4927,136.5,96.9,0.524
23.04,31981.7,35082.2,-0.3032,1.0146,136.5,96.9,0.524
23.06,31958.8,35031.2,-0.6897,0.3898,136.5,96.9,0.524
23.08,32008.7,35092.5,0.1527,1.1402,136.5,96.9,0.524
23.1,32013.7,34986.0,0.2367,-0.1631,136.5,96.9,0.524
23.12,31973.6,34944.3,-0.4395,-0.6739,136.5,96.9,0.524
23.14,31934.3,34912.4,-1.102,-1.0652,136.5,96.9,0.524
23.16,31966.8,34861.6,-0.5552,-1.6866,136.5,96.9,0.524
23.18,31958.0,34889.8,-0.7035,-1.3413,136.5,96.9,0.524
23.2,32041.6,34889.7,0.707,-1.3427,136.5,96.9,0.524
23.22,31885.5,34928.8,-1.9249,-0.864,136.5,96.9,0.524
23.24,31937.2,34810.1,-1.0536,-2.3175,136.5,96.9,0.524
23.26,31904.8,34977.7,-1.6003,-0.2653,136.5,96.9,0.524
23.28,32081.9,34974.6,1.3866,-0.303,136.5,96.9,0.524
23.3,32037.8,35081.7,0.6422,1.0088,136.5,96.9,0.524
23.32,32028.8,35088.1,0.4915,1.0869,136.5,96.9,0.524
23.34,32013.2,35132.6,0.2274,1.6316,136.5,96.9,0.524
23.36,32042.7,35134.2,0.7247,1.6514,136.5,96.9,0.524
23.38,32044.6,35095.1,0.7568,1.1727,136.5,96.9,0.524
23.4,32038.8,35138.2,0.6588,1.6999,136.5,96.9,0.524
23.42,31994.0,35149.1,-0.0963,1.8341,136.5,96.9,0.524
23.44,32027.9,34987.2,0.4759,-0.1493,136.5,96.9,0.524
23.46,31960.9,34938.1,-0.6548,-0.7496,136.5,96.9,0.524
23.48,31961.7,34972.1,-0.6408,-0.3338,136.5,96.9,0.524
23.5,32033.6,34988.3,0.572,-0.1353,136.5,96.9,0.524
23.52,31969.5,35027.4,-0.5086,0.344,136.5,96.9,0.524
23.54,32034.9,34937.9,0.5938,-0.7528,136.5,96.9,0.524
23.56,32038.4,35043.8,0.6535,0.5439,136.5,96.9,0.524
23.58,32028.2,34903.4,0.4799,-1.1751,136.5,96.9,0.524
23.6,32033.4,34936.5,0.5686,-0.7695,136.5,96.9,0.524
23.62,31992.2,35024.2,-0.126,0.3041,136.5,96.9,0.524
23.64,31927.5,34928.6,-1.2181,-0.8667,136.5,96.9,0.524
23.66,31839.5,34888.0,-2.701,-1.3632,136.5,96.9,0.524
23.68,31876.6,34859.0,-2.0755,-1.7181,136.5,96.9,0.524
23.7,31923.4,34998.5,-1.286,-0.0105,136.5,96.9,0.524
23.72,31962.7,34884.2,-0.6246,-1.4105,136.5,96.9,0.524
23.74,32000.6,35079.3,0.0161,0.9784,136.5,96.9,0.524
23.76,32066.4,35069.4,1.1251,0.8578,136.5,96.9,0.524
23.78,32019.9,35073.7,0.3405,0.9107,136.5,96.9,0.524
23.8,32142.7,35164.6,2.4122,2.0237,136.5,96.9,0.524
23.82,32032.8,35090.8,0.559,1.1195,136.5,96.9,0.524
23.84,32070.0,35076.9,1.1854,0.9497,136.5,96.9,0.524
23.86,32064.2,35141.7,1.088,1.7426,136.5,96.9,0.524
23.88,31967.7,35044.2,-0.5397,0.5496,136.5,96.9,0.524
23.9,32020.6,34954.6,0.3534,-0.5486,136.5,96.9,0.524
23.92,32022.8,34984.6,0.3894,-0.1812,136.5,96.9,0.524
23.94,32006.4,35063.9,0.1138,0.7909,136.5,96.9,0.524
23.96,31950.4,35048.3,-0.8318,0.5993,136.5,96.9,0.524
23.98,31989.6,34909.6,-0.1701,-1.0991,136.5,96.9,0.524
24.0,31988.7,34952.2,-0.1847,-0.5769,136.5,96.9,0.524
24.02,31884.4,34925.1,-1.9443,-0.9094,136.5,96.9,0.524
24.04,31954.7,34890.0,-0.758,-1.3392,136.5,96.9,0.524
24.06,31949.7,34974.0,-0.8434,-0.3107,136.5,96.9,0.524
24.08,32013.3,34938.0,0.2302,-0.7514,136.5,96.9,0.524
24.1,31944.1,34962.9,-0.9368,-0.446,136.5,96.9,0.524
24.12,31881.9,34931.3,-1.986,-0.8333,136.5,96.9,0.524
24.14,32022.3,34975.0,0.3805,-0.2984,136.5,96.9,0.524
24.16,32014.2,34922.1,0.2438,-0.9457,136.5,96.9,0.524
24.18,31956.8,35017.8,-0.7237,0.226,136.5,96.9,0.524
24.2,31971.1,35108.5,-0.4819,1.3362,136.5,96.9,0.524
24.22,32055.8,35140.4,0.9459,1.7274,136.5,96.9,0.524
24.24,31917.6,35101.0,-1.3836,1.2445,136.5,96.9,0.524
24.26,31993.9,35143.7,-0.0981,1.7673,136.5,96.9,0.524
24.28,32060.1,35136.0,1.0179,1.6736,136.5,96.9,0.524
24.3,32067.3,35059.9,1.1403,0.741,136.5,96.9,0.524
24.32,31994.4,34950.7,-0.0893,-0.5956,136.5,96.9,0.524
24.34,32017.5,34946.3,0.2996,-0.6497,136.5,96.9,0.524
24.36,32064.9,35037.8,1.099,0.4706,136.5,96.9,0.524
24.38,31898.7,34888.1,-1.7033,-1.3628,136.5,96.9,0.524
24.4,32039.3,35000.3,0.6679,0.0117,136.5,96.9,0.524
24.42,31978.4,34958.9,-0.3586,-0.4952,136.5,96.9,0.524
24.44,31930.2,34935.1,-1.1722,-0.7865,136.5,96.9,0.524
24.46,31887.2,34961.6,-1.897,-0.462,136.5,96.9,0.524
24.48,32021.2,34931.1,0.3627,-0.8354,136.5,96.9,0.524
24.5,31985.9,34962.0,-0.2322,-0.458,136.5,96.9,0.524
24.52,31897.1,34896.3,-1.7293,-1.2617,136.5,96.9,0.524
24.54,31970.0,34945.4,-0.5007,-0.6605,136.5,96.9,0.524
24.56,31986.6,34914.5,-0.2199,-1.0387,136.5,96.9,0.524
24.58,31987.2,34958.2,-0.2111,-0.5045,136.5,96.9,0.524
24.6,32011.2,35063.1,0.1947,0.7803,136.5,96.9,0.524
24.62,31921.0,35118.5,-1.3272,1.4594,136.5,96.9,0.524
24.64,31975.6,35131.6,-0.4061,1.6195,136.5,96.9,0.524
24.66,32094.4,35085.0,1.5967,1.0483,136.5,96.9,0.524
24.68,32008.5,35172.3,0.1479,2.1174,136.5,96.9,0.524
24.7,31934.7,35095.6,-1.0968,1.1789,136.5,96.9,0.524
24.72,32093.3,35076.4,1.5778,0.9432,136.5,96.9,0.524
24.74,32069.3,35136.7,1.1735,1.6817,136.5,96.9,0.524
24.76,32046.9,35170.7,0.7958,2.0986,136.5,96.9,0.524
24.78,31937.4,34950.2,-1.0506,-0.6024,136.5,96.9,0.524
24.8,32074.0,35074.2,1.2535,0.9161,136.5,96.9,0.524
24.82,32052.4,35101.4,0.8885,1.2498,136.5,96.9,0.524
24.84,31887.5,34924.8,-1.8913,-0.9129,136.5,96.9,0.524
24.86,31974.9,35036.1,-0.4175,0.45,136.5,96.9,0.524
24.88,31955.3,34951.1,-0.7478,-0.5903,136.5,96.9,0.524
24.9,31968.0,34962.0,-0.534,-0.4579,136.5,96.9,0.524
24.92,32013.1,34938.0,0.2265,-0.7508,136.5,96.9,0.524
24.94,31936.3,34925.8,-1.069,-0.9003,136.5,96.9,0.524
24.96,31895.9,34939.8,-1.7499,-0.7289,136.5,96.9,0.524
24.98,31996.4,34834.8,-0.0548,-2.0156,136.5,96.9,0.524
25.0,31980.7,34972.8,-0.3204,-0.3247,136.5,96.9,0.524
25.02,32005.8,34913.9,0.1027,-1.0468,136.5,96.9,0.524
25.04,31915.1,34949.1,-1.4266,-0.6154,136.5,96.9,0.524
25.06,31976.0,35018.8,-0.3996,0.2375,136.5,96.9,0.524
25.08,31977.2,35084.0,-0.3795,1.0365,136.5,96.9,0.524
25.1,32056.3,35064.5,0.9552,0.798,136.5,96.9,0.524
25.12,32063.1,35098.7,1.0693,1.217,136.5,96.9,0.524
25.14,32053.9,35167.9,0.9145,2.0638,136.5,96.9,0.524
25.16,31935.2,35149.0,-1.0879,1.832,136.5,96.9,0.524
25.18,32057.4,35014.1,0.9739,0.1804,136.5,96.9,0.524
25.2,31997.2,34971.6,-0.0426,-0.3395,136.5,96.9,0.524
25.22,32010.1,35017.0,0.1763,0.2157,136.5,96.9,0.524
25.24,31954.9,34943.5,-0.7561,-0.6835,136.5,96.9,0.524
25.26,32114.4,35066.5,1.9344,0.8226,136.5,96.9,0.524
25.28,31903.7,34949.5,-1.618,-0.6109,136.5,96.9,0.524
25.3,31948.3,34932.3,-0.8672,-0.821,136.5,96.9,0.524
25.32,31933.4,35025.6,-1.1171,0.3213,136.5,96.9,0.524
25.34,31936.4,35000.1,-1.0665,0.0086,136.5,96.9,0.524
25.36,31851.5,34959.5,-2.4989,-0.488,136.5,96.9,0.524
25.38,32095.0,34856.3,1.6068,-1.7521,136.5,96.9,0.524
25.4,31953.5,34883.9,-0.7786,-1.4137,136.5,96.9,0.524
25.42,31982.3,34911.1,-0.2928,-1.0806,136.5,96.9,0.524
25.44,31964.6,34895.2,-0.5922,-1.2758,136.5,96.9,0.524
25.46,31982.0,34961.4,-0.2991,-0.4652,136.5,96.9,0.524
25.48,31926.5,34941.3,-1.2337,-0.711,136.5,96.9,0.524
25.5,31996.8,35121.6,-0.0482,1.4965,136.5,96.9,0.524
25.52,32037.8,35072.6,0.6418,0.8968,136.5,96.9,0.524
25.54,32002.0,35145.0,0.0383,1.7835,136.5,96.9,0.524
25.56,32201.0,35123.7,3.3941,1.5225,136.5,96.9,0.524
25.58,32075.5,35110.7,1.2785,1.3631,136.5,96.9,0.524
25.6,32091.2,35141.7,1.5439,1.7429,136.5,96.9,0.524
25.62,32036.0,35104.1,0.6116,1.2827,136.5,96.9,0.524
25.64,32025.8,35025.1,0.441,0.3151,136.5,96.9,0.524
25.66,31956.5,34964.6,-0.7277,-0.4257,136.5,96.9,0.524
25.68,31989.5,35043.1,-0.1719,0.5354,136.5,96.9,0.524
25.7,31958.7,34999.4,-0.6907,0.0006,136.5,96.9,0.524
25.72,32090.7,34955.3,1.5353,-0.5392,136.5,96.9,0.524
25.74,31904.7,34957.1,-1.6011,-0.5171,136.5,96.9,0.524
25.76,31938.5,34921.1,-1.0321,-0.9577,136.5,96.9,0.524
25.78,31931.4,34998.3,-1.1507,-0.0123,136.5,96.9,0.524
25.8,31933.0,34924.3,-1.125,-0.9197,136.5,96.9,0.524
25.82,31977.9,34961.5,-0.3669,-0.4632,136.5,96.9,0.524
25.84,31869.5,34991.9,-2.1949,-0.0913,136.5,96.9,0.524
25.86,31952.8,34860.3,-0.7902,-1.7023,136.5,96.9,0.524
25.88,31992.8,34885.2,-0.1156,-1.398,136.5,96.9,0.524
25.9,31874.1,34924.7,-2.1183,-0.9142,136.5,96.9,0.524
25.92,31945.7,34868.9,-0.91,-1.5973,136.5,96.9,0.524
25.94,32036.5,35056.8,0.6215,0.7037,136.5,96.9,0.524
25.96,32052.0,35067.3,0.8816,0.8317,136.5,96.9,0.524
25.98,32129.7,35064.5,2.193,0.798,136.5,96.9,0.524
26.0,32063.7,35083.5,1.0801,1.03,136.5,96.9,0.524
26.02,32136.7,35031.0,2.3101,0.3875,136.5,96.9,0.524
26.04,32062.1,35022.7,1.0525,0.2861,136.5,96.9,0.524
26.06,32013.0,34998.1,0.2242,-0.0156,136.5,96.9,0.524
26.08,31972.1,35093.1,-0.4655,1.1474,136.5,96.9,0.524
26.1,32016.4,34991.7,0.281,-0.0937,136.5,96.9,0.524
26.12,32007.1,35002.2,0.1248,0.0354,136.5,96.9,0.524
26.14,31994.0,34988.4,-0.096,-0.1347,136.5,96.9,0.524
26.16,31910.8,34996.4,-1.4996,-0.0359,136.5,96.9,0.524
26.18,31957.4,34953.6,-0.7137,-0.5603,136.5,96.9,0.524
26.2,31991.4,34952.1,-0.1402,-0.579,136.5,96.9,0.524
26.22,31908.2,34858.5,-1.5431,-1.7243,136.5,96.9,0.524
26.24,31975.2,34950.0,-0.4127,-0.6048,136.5,96.9,0.524
26.26,32015.6,34975.4,0.2678,-0.2931,136.5,96.9,0.524
26.28,31962.1,34926.1,-0.6346,-0.8976,136.5,96.9,0.524
26.3,31957.8,34889.0,-0.7057,-1.3512,136.5,96.9,0.524
26.32,31934.5,34869.6,-1.1001,-1.5888,136.5,96.9,0.524
26.34,31992.9,34968.3,-0.1139,-0.3797,136.5,96.9,0.524
26.36,31932.9,34963.6,-1.1266,-0.4374,136.5,96.9,0.524
26.38,31991.4,35034.0,-0.1403,0.4248,136.5,96.9,0.524
26.4,32031.7,35074.2,0.5395,0.916,136.5,96.9,0.524
26.42,32059.3,35077.9,1.005,0.9615,136.5,96.9,0.524
26.44,32064.2,35120.9,1.0886,1.4887,136.5,96.9,0.524
26.46,32015.9,35159.2,0.2739,1.9575,136.5,96.9,0.524
26.48,32081.0,35153.0,1.3704,1.8816,136.5,96.9,0.524
26.5,32029.6,35050.6,0.5037,0.6278,136.5,96.9,0.524
26.52,32066.8,35057.9,1.1313,0.7173,136.5,96.9,0.524
26.54,32035.4,35092.0,0.6025,1.1342,136.5,96.9,0.524
26.56,32062.3,34966.0,1.0556,-0.4089,136.5,96.9,0.524
26.58,31958.8,35011.1,-0.689,0.1432,136.5,96.9,0.524
26.6,32020.8,35018.0,0.3554,0.2287,136.5,96.9,0.524
26.62,31907.0,34976.3,-1.5631,-0.2821,136.5,96.9,0.524
26.64,31951.4,34923.3,-0.814,-0.9312,136.5,96.9,0.524
26.66,32000.2,34899.6,0.0094,-1.2218,136.5,96.9,0.524
26.68,31966.7,34997.8,-0.5563,-0.0196,136.5,96.9,0.524
26.7,32033.4,34941.2,0.5682,-0.7118,136.5,96.9,0.524
26.72,31986.4,35018.6,-0.2246,0.2359,136.5,96.9,0.524
26.74,31948.2,34980.5,-0.8685,-0.2305,136.5,96.9,0.524
26.76,31919.0,34819.7,-1.3606,-2.1993,136.5,96.9,0.524
26.78,31992.5,34916.2,-0.1209,-1.0183,136.5,96.9,0.524
26.8,31928.2,34926.4,-1.2062,-0.8933,136.5,96.9,0.524
26.82,32018.2,34959.3,0.3129,-0.491,136.5,96.9,0.524
26.84,32020.5,35174.4,0.3516,2.1434,136.5,96.9,0.524
26.86,31998.5,35166.0,-0.02,2.041,136.5,96.9,0.524
26.88,32061.6,35124.6,1.044,1.5338,136.5,96.9,0.524
26.9,32189.2,35052.5,3.1952,0.6513,136.5,96.9,0.524
26.92,32018.4,35000.6,0.3153,0.015,136.5,96.9,0.524
26.94,32088.1,35027.4,1.4905,0.3434,136.5,96.9,0.524
26.96,31951.8,34968.7,-0.8081,-0.3754,136.5,96.9,0.524
26.98,32030.2,34878.4,0.5137,-1.4805,136.5,96.9,0.524
27.0,32002.3,35001.0,0.0441,0.0203,136.5,96.9,0.524
27.02,32051.8,35043.5,0.8791,0.5406,136.5,96.9,0.524
27.04,31981.8,34975.2,-0.3013,-0.2952,136.5,96.9,0.524
27.06,32007.5,34914.7,0.1314,-1.0371,136.5,96.9,0.524
27.08,31891.4,34882.5,-1.8254,-1.4309,136.5,96.9,0.524
27.1,31948.1,34953.4,-0.8696,-0.5625,136.5,96.9,0.524
27.12,32035.0,34962.7,0.5954,-0.449,136.5,96.9,0.524
27.14,32001.7,35021.3,0.0332,0.2689,136.5,96.9,0.524
27.16,31934.2,34826.6,-1.1043,-2.1159,136.5,96.9,0.524
27.18,31939.3,35011.1,-1.018,0.1443,136.5,96.9,0.524
27.2,31888.3,34838.1,-1.8778,-1.9746,136.5,96.9,0.524
27.22,32008.8,34898.5,0.1529,-1.2349,136.5,96.9,0.524
27.24,31971.6,34892.3,-0.4729,-1.3108,136.5,96.9,0.524
27.26,32100.1,35017.9,1.6929,0.2275,136.5,96.9,0.524
27.28,32031.9,35094.4,0.543,1.1632,136.5,96.9,0.524
27.3,32018.8,35065.7,0.3221,0.8127,136.5,96.9,0.524
27.32,32050.1,35049.8,0.8496,0.6173,136.5,96.9,0.524
27.34,32040.2,35023.9,0.6828,0.301,136.5,96.9,0.524
27.36,31984.6,35060.8,-0.2542,0.7522,136.5,96.9,0.524
27.38,32028.8,35049.7,0.4917,0.6162,136.5,96.9,0.524
27.4,32029.0,35007.1,0.4944,0.0952,136.5,96.9,0.524
27.42,32016.5,35054.1,0.2831,0.6709,136.5,96.9,0.524
27.44,32060.9,35045.4,1.0321,0.5642,136.5,96.9,0.524
27.46,31924.3,35034.1,-1.2721,0.4251,136.5,96.9,0.524
27.48,31956.3,35009.5,-0.7315,0.1248,136.5,96.9,0.524
27.5,31919.4,34930.1,-1.3545,-0.8482,136.5,96.9,0.524
27.52,32001.8,34831.9,0.0352,-2.051,136.5,96.9,0.524
27.54,32000.6,34928.0,0.0154,-0.8734,136.5,96.9,0.524
27.56,32062.7,35008.7,1.0617,0.1139,136.5,96.9,0.524
27.58,31945.2,34937.9,-0.9194,-0.7525,136.5,96.9,0.524
27.6,31969.8,34933.0,-0.5034,-0.8129,136.5,96.9,0.524
27.62,31870.7,34842.7,-2.1758,-1.9181,136.5,96.9,0.524
27.64,31880.9,34929.7,-2.0039,-0.8531,136.5,96.9,0.524
27.66,31973.5,34945.2,-0.4422,-0.6629,136.5,96.9,0.524
27.68,31948.7,34950.2,-0.8602,-0.6021,136.5,96.9,0.524
27.7,32016.2,35039.3,0.2792,0.4889,136.5,96.9,0.524
27.72,32053.3,35038.1,0.9035,0.4749,136.5,96.9,0.524
27.74,32075.2,35061.6,1.2736,0.7618,136.5,96.9,0.524
27.76,32069.1,35042.7,1.1707,0.5309,136.5,96.9,0.524
27.78,32019.0,35104.1,0.3261,1.2832,136.5,96.9,0.524
27.8,32007.9,35165.5,0.1385,2.034,136.5,96.9,0.524
27.82,32041.2,35064.9,0.7001,0.8025,136.5,96.9,0.524
27.84,32025.5,35078.0,0.4356,0.963,136.5,96.9,0.524
27.86,32082.3,34936.1,1.3927,-0.7749,136.5,96.9,0.524
27.88,32099.1,35028.9,1.6769,0.3615,136.5,96.9,0.524
27.9,32038.2,35059.2,0.6488,0.7323,136.5,96.9,0.524
27.92,32076.8,35046.4,1.3004,0.5766,136.5,96.9,0.524
27.94,32003.5,34980.8,0.0648,-0.2271,136.5,96.9,0.524
27.96,31935.4,34923.9,-1.0836,-0.9243,136.5,96.9,0.524
27.98,32003.6,35028.0,0.0658,0.3504,136.5,96.9,0.524
28.0,31965.0,34920.7,-0.5845,-0.9627,136.5,96.9,0.524
28.02,31955.8,35006.0,-0.74,0.0814,136.5,96.9,0.524
28.04,32019.0,34951.6,0.3259,-0.5842,136.5,96.9,0.524
28.06,31923.2,34793.7,-1.2898,-2.5179,136.5,96.9,0.524
28.08,32090.0,34910.3,1.5224,-1.0906,136.5,96.9,0.524
28.1,31977.8,34913.0,-0.3688,-1.0577,136.5,96.9,0.524
28.12,31957.2,34978.3,-0.7165,-0.2584,136.5,96.9,0.524
28.14,32057.2,35062.3,0.9691,0.7707,136.5,96.9,0.524
28.16,32123.3,34999.4,2.0852,0.0008,136.5,96.9,0.524
28.18,32132.5,35152.4,2.2401,1.8736,136.5,96.9,0.524
28.2,32033.2,35137.7,0.5654,1.6946,136.5,96.9,0.524
28.22,32127.3,35095.5,2.1522,1.1779,136.5,96.9,0.524
28.24,32116.6,35072.6,1.9718,0.8968,136.5,96.9,0.524
28.26,32019.0,35096.9,0.3255,1.194,136.5,96.9,0.524
28.28,32115.9,35004.7,1.9597,0.0654,136.5,96.9,0.524
28.3,32014.5,35081.4,0.2499,1.0051,136.5,96.9,0.524
28.32,32002.6,35000.4,0.0484,0.013,136.5,96.9,0.524
28.34,31980.0,34935.9,-0.3316,-0.7775,136.5,96.9,0.524
28.36,32089.8,34951.2,1.5188,-0.5903,136.5,96.9,0.524
28.38,32031.2,34967.0,0.5307,-0.3959,136.5,96.9,0.524
28.4,31995.2,34879.8,-0.0753,-1.4638,136.5,96.9,0.524
28.42,31998.4,34918.5,-0.0217,-0.9898,136.5,96.9,0.524
28.44,32012.8,34978.4,0.2205,-0.2571,136.5,96.9,0.524
28.46,31982.7,34902.6,-0.2866,-1.1849,136.5,96.9,0.524
28.48,32005.4,34935.6,0.0969,-0.7809,136.5,96.9,0.524
28.5,31926.4,34877.4,-1.236,-1.4938,136.5,96.9,0.524
28.52,31897.8,34914.9,-1.719,-1.0336,136.5,96.9,0.524
28.54,31983.2,34934.1,-0.2785,-0.7988,136.5,96.9,0.524
28.56,31990.0,34883.5,-0.164,-1.4191,136.5,96.9,0.524
28.58,31911.9,35100.1,-1.4804,1.2342,136.5,96.9,0.524
28.6,32043.4,35030.3,0.7374,0.3794,136.5,96.9,0.524
28.62,32075.5,35190.3,1.2787,2.3378,136.5,96.9,0.524
28.64,32157.9,35122.3,2.6683,1.5056,136.5,96.9,0.524
28.66,32115.5,35057.6,1.9537,0.7129,136.5,96.9,0.524
28.68,31952.8,34992.3,-0.7914,-0.0861,136.5,96.9,0.524
28.7,32121.1,35005.2,2.047,0.0713,136.5,96.9,0.524
28.72,32070.3,34959.5,1.1899,-0.4875,136.5,96.9,0.524
28.74,32089.9,35029.8,1.5209,0.3726,136.5,96.9,0.524
28.76,32093.3,35068.8,1.5784,0.85,136.5,96.9,0.524
28.78,31952.9,35050.2,-0.7893,0.6231,136.5,96.9,0.524
28.8,31949.9,34994.7,-0.8402,-0.0574,136.5,96.9,0.524
28.82,32033.3,34955.6,0.567,-0.5361,136.5,96.9,0.524
28.84,31995.1,34998.6,-0.0767,-0.0092,136.5,96.9,0.524
28.86,31975.7,35025.2,-0.4037,0.3169,136.5,96.9,0.524
28.88,31887.6,35012.0,-1.8898,0.1544,136.5,96.9,0.524
28.9,31969.4,34979.2,-0.5107,-0.2467,136.5,96.9,0.524
28.92,31979.7,34986.4,-0.3377,-0.1589,136.5,96.9,0.524
28.94,31968.8,34935.3,-0.5206,-0.7843,136.5,96.9,0.524
28.96,31961.3,34878.7,-0.6482,-1.4778,136.5,96.9,0.524
28.98,31949.2,34837.3,-0.8513,-1.9848,136.5,96.9,0.524
29.0,32054.8,34949.2,0.9296,-0.6144,136.5,96.9,0.524
29.02,32028.4,35091.6,0.4844,1.13,136.5,96.9,0.524
29.04,31970.3,35091.6,-0.4961,1.1298,136.5,96.9,0.524
29.06,32078.2,35140.3,1.3245,1.7262,136.5,96.9,0.524
29.08,32022.5,35101.7,0.3843,1.2534,136.5,96.9,0.524
29.1,32092.5,35078.7,1.5649,0.9711,136.5,96.9,0.524
29.12,32091.8,35067.4,1.5538,0.8337,136.5,96.9,0.524
29.14,32054.0,35034.9,0.915,0.4349,136.5,96.9,0.524
29.16,31998.8,35015.5,-0.0158,0.1976,136.5,96.9,0.524
29.18,32009.7,35003.0,0.1694,0.0446,136.5,96.9,0.524
29.2,31922.7,35012.7,-1.298,0.1636,136.5,96.9,0.524
29.22,31954.0,35001.0,-0.771,0.0198,136.5,96.9,0.524
29.24,31922.0,34967.5,-1.3106,-0.3899,136.5,96.9,0.524
29.26,32026.5,34997.6,0.4518,-0.021,136.5,96.9,0.524
29.28,31969.6,34869.1,-0.5073,-1.5954,136.5,96.9,0.524
29.3,32007.5,34976.0,0.1315,-0.2858,136.5,96.9,0.524
29.32,32001.2,34940.9,0.025,-0.7158,136.5,96.9,0.524
29.34,31945.4,34944.4,-0.9156,-0.6733,136.5,96.9,0.524
29.36,32015.3,34959.4,0.2633,-0.4893,136.5,96.9,0.524
29.38,31943.9,34978.8,-0.9415,-0.252,136.5,96.9,0.524
29.4,31909.0,34858.6,-1.529,-1.7233,136.5,96.9,0.524
29.42,31933.2,34977.8,-1.1217,-0.2638,136.5,96.9,0.524
29.44,32052.9,34953.9,0.8974,-0.557,136.5,96.9,0.524
29.46,32002.3,35056.9,0.0435,0.705,136.5,96.9,0.524
29.48,32022.2,35091.8,0.3795,1.132,136.5,96.9,0.524
29.5,32112.3,35116.0,1.899,1.4281,136.5,96.9,0.524
29.52,32090.9,35160.9,1.5379,1.978,136.5,96.9,0.524
29.54,31921.5,35123.1,-1.3191,1.5156,136.5,96.9,0.524
29.56,31975.5,35045.3,-0.4074,0.5626,136.5,96.9,0.524
29.58,31942.0,35024.3,-0.9723,0.3057,136.5,96.9,0.524
29.6,31970.4,35104.5,-0.4946,1.2878,136.5,96.9,0.524
29.62,31939.3,34994.4,-1.0181,-0.0612,136.5,96.9,0.524
29.64,31974.4,34992.1,-0.4272,-0.0891,136.5,96.9,0.524
29.66,32018.3,35033.1,0.3142,0.4138,136.5,96.9,0.524
29.68,31970.0,35057.3,-0.501,0.7099,136.5,96.9,0.524
29.7,31919.6,35021.0,-1.3509,0.265,136.5,96.9,0.524
29.72,31944.8,34967.7,-0.9258,-0.3876,136.5,96.9,0.524
29.74,31988.6,35003.5,-0.1876,0.0509,136.5,96.9,0.524
29.76,31992.1,34957.0,-0.128,-0.5187,136.5,96.9,0.524
29.78,31980.0,34909.8,-0.3327,-1.097,136.5,96.9,0.524
29.8,31942.9,34922.9,-0.957,-0.9357,136.5,96.9,0.524
29.82,31925.2,34850.9,-1.2562,-1.8179,136.5,96.9,0.524
29.84,31901.3,34859.6,-1.659,-1.7118,136.5,96.9,0.524
29.86,31947.5,34902.2,-0.8801,-1.19,136.5,96.9,0.524
29.88,31968.6,34939.5,-0.525,-0.7329,136.5,96.9,0.524
29.9,32079.1,35053.0,1.3395,0.6574,136.5,96.9,0.524
29.92,32042.6,35111.7,0.7239,1.3752,136.5,96.9,0.524
29.94,31998.1,35127.1,-0.0275,1.5638,136.5,96.9,0.524
29.96,32042.7,35146.9,0.7248,1.8062,136.5,96.9,0.524
29.98,32065.9,35007.8,1.1172,0.103,136.5,96.9,0.524
30.0,32038.7,35089.0,0.6573,1.0983,136.5,96.9,0.524
30.02,32068.8,34981.3,1.1652,-0.2213,136.5,96.9,0.524
30.04,32063.8,35061.1,1.0805,0.7558,136.5,96.9,0.524
30.06,32084.8,35041.6,1.4348,0.5173,136.5,96.9,0.524
30.08,32002.0,34980.3,0.0385,-0.233,136.5,96.9,0.524
30.1,31996.5,34946.9,-0.053,-0.642,136.5,96.9,0.524
30.12,31976.8,34985.1,-0.3857,-0.1749,136.5,96.9,0.524
30.14,32050.5,34984.8,0.8576,-0.178,136.5,96.9,0.524
30.16,31956.7,34902.4,-0.725,-1.1873,136.5,96.9,0.524
30.18,32006.9,34971.5,0.1222,-0.3414,136.5,96.9,0.524
30.2,32067.6,35005.7,1.1453,0.0774,136.5,96.9,0.524
30.22,31878.6,34987.3,-2.0424,-0.1482,136.5,96.9,0.524
30.24,32052.7,34961.8,0.8945,-0.4596,136.5,96.9,0.524
30.26,31939.7,34960.3,-1.011,-0.4781,136.5,96.9,0.524
30.28,31988.1,34856.0,-0.1948,-1.7555,136.5,96.9,0.524
30.3,32048.5,34950.2,0.8223,-0.6021,136.5,96.9,0.524
30.32,32056.1,34937.3,0.9513,-0.7593,136.5,96.9,0.524
30.34,32056.8,35027.3,0.9628,0.3421,136.5,96.9,0.524
30.36,31993.7,35000.9,-0.1006,0.0184,136.5,96.9,0.524
30.38,32005.9,35179.7,0.1046,2.208,136.5,96.9,0.524
30.4,32074.0,35104.5,1.2523,1.2876,136.5,96.9,0.524
30.42,31983.0,35203.8,-0.2822,2.5034,136.5,96.9,0.524
30.44,32050.3,35037.3,0.8539,0.4652,136.5,96.9,0.524
30.46,32118.6,35045.5,2.0046,0.5654,136.5,96.9,0.524
30.48,32021.6,35073.5,0.3701,0.9085,136.5,96.9,0.524
30.5,31980.3,35041.3,-0.3272,0.5141,136.5,96.9,0.524
30.52,31973.1,34882.2,-0.4484,-1.4349,136.5,96.9,0.524
30.54,32057.5,35004.2,0.9742,0.0589,136.5,96.9,0.524
30.56,31922.6,34982.2,-1.2992,-0.2104,136.5,96.9,0.524
30.58,31961.4,34877.5,-0.6449,-1.4919,136.5,96.9,0.524
30.6,31986.3,34956.5,-0.2265,-0.5252,136.5,96.9,0.524
30.62,32021.7,34909.9,0.3708,-1.0956,136.5,96.9,0.524
30.64,32013.3,34873.8,0.2297,-1.5376,136.5,96.9,0.524
30.66,31872.5,34862.5,-2.1442,-1.6759,136.5,96.9,0.524
30.68,31920.4,35009.2,-1.3365,0.1205,136.5,96.9,0.524
30.7,31970.1,34973.6,-0.4984,-0.3156,136.5,96.9,0.524
30.72,31947.3,34821.8,-0.8829,-2.1742,136.5,96.9,0.524
30.74,31922.4,34898.8,-1.3029,-1.2316,136.5,96.9,0.524
30.76,31982.1,34888.9,-0.2962,-1.3526,136.5,96.9,0.524
30.78,32015.9,34968.2,0.2727,-0.3819,136.5,96.9,0.524
30.8,32015.1,35089.9,0.2592,1.1088,136.5,96.9,0.524
30.82,32017.9,35140.5,0.3073,1.7283,136.5,96.9,0.524
30.84,32014.9,35219.2,0.2572,2.6919,136.5,96.9,0.524
30.86,32052.0,35162.4,0.8826,1.9963,136.5,96.9,0.524
30.88,32048.4,35060.3,0.8208,0.7462,136.5,96.9,0.524
30.9,32053.7,35077.4,0.9108,0.9552,136.5,96.9,0.524
30.92,32022.7,35091.0,0.3874,1.1226,136.5,96.9,0.524
30.94,31899.6,34978.2,-1.6874,-0.2592,136.5,96.9,0.524
30.96,32098.0,34862.2,1.6578,-1.6799,136.5,96.9,0.524
30.98,32066.6,34988.6,1.1278,-0.1316,136.5,96.9,0.524
31.0,31965.5,34974.5,-0.5771,-0.3041,136.5,96.9,0.524
31.02,32062.5,34967.3,1.0589,-0.3921,136.5,96.9,0.524
31.04,31986.5,34919.0,-0.2228,-0.9837,136.5,96.9,0.524
31.06,31925.5,34953.9,-1.2517,-0.5562,136.5,96.9,0.524
31.08,31902.4,34956.4,-1.6414,-0.5256,136.5,96.9,0.524
31.1,31930.6,34937.1,-1.1645,-0.7618,136.5,96.9,0.524
31.12,31960.8,34974.1,-0.656,-0.3091,136.5,96.9,0.524
31.14,31909.4,34944.0,-1.5227,-0.6782,136.5,96.9,0.524
31.16,31927.5,34953.7,-1.2173,-0.5595,136.5,96.9,0.524
31.18,32039.5,34952.4,0.6713,-0.5745,136.5,96.9,0.524
31.2,32011.4,35037.9,0.1971,0.4716,136.5,96.9,0.524
31.22,31884.8,34963.2,-1.9376,-0.4429,136.5,96.9,0.524
31.24,32052.3,35088.3,0.8865,1.0891,136.5,96.9,0.524
31.26,32035.1,35049.3,0.5973,0.6118,136.5,96.9,0.524
31.28,31980.6,35079.5,-0.3224,0.9809,136.5,96.9,0.524
31.3,32042.0,35025.4,0.7131,0.3192,136.5,96.9,0.524
31.32,31984.8,35054.5,-0.2504,0.6751,136.5,96.9,0.524
31.34,31999.0,35094.9,-0.0111,1.1701,136.5,96.9,0.524
31.36,32011.9,35008.4,0.2054,0.1102,136.5,96.9,0.524
31.38,32042.9,35025.9,0.7282,0.3248,136.5,96.9,0.524
31.4,31928.5,34993.4,-1.2011,-0.0735,136.5,96.9,0.524
31.42,31959.4,35022.4,-0.6797,0.2816,136.5,96.9,0.524
31.44,32018.9,34995.0,0.3239,-0.0537,136.5,96.9,0.524
31.46,32034.6,34960.4,0.589,-0.4774,136.5,96.9,0.524
31.48,31987.1,35011.5,-0.2122,0.149,136.5,96.9,0.524
31.5,32002.6,34993.5,0.0484,-0.0718,136.5,96.9,0.524
31.52,31995.6,34980.5,-0.0683,-0.2313,136.5,96.9,0.524
31.54,31966.3,34845.3,-0.5625,-1.8861,136.5,96.9,0.524
31.56,32021.6,34900.5,0.3702,-1.2109,136.5,96.9,0.524
31.58,31939.3,34959.5,-1.0182,-0.4885,136.5,96.9,0.524
31.6,32028.3,34861.2,0.4816,-1.6917,136.5,96.9,0.524
31.62,32002.7,34952.7,0.0516,-0.5718,136.5,96.9,0.524
31.64,32063.5,34970.1,1.0765,-0.3586,136.5,96.9,0.524
31.66,31991.4,35063.5,-0.1398,0.7858,136.5,96.9,0.524
31.68,31995.5,35103.0,-0.0714,1.2693,136.5,96.9,0.524
31.7,32003.7,35118.6,0.0683,1.4607,136.5,96.9,0.524
31.72,31994.7,35073.7,-0.0846,0.9106,136.5,96.9,0.524
31.74,32022.2,35073.4,0.3796,0.9062,136.5,96.9,0.524
31.76,32079.1,34985.7,1.3393,-0.1668,136.5,96.9,0.524
31.78,32051.4,35016.3,0.8715,0.2078,136.5,96.9,0.524
31.8,31890.8,35024.4,-1.836,0.3061,136.5,96.9,0.524
31.82,32002.4,35007.8,0.0456,0.1039,136.5,96.9,0.524
31.84,31932.2,34993.5,-1.1384,-0.0722,136.5,96.9,0.524
31.86,31941.0,35069.9,-0.9897,0.8633,136.5,96.9,0.524
31.88,32067.2,35057.4,1.139,0.7108,136.5,96.9,0.524
31.9,31979.0,34828.8,-0.3489,-2.0882,136.5,96.9,0.524
31.92,31948.2,34903.7,-0.8691,-1.1711,136.5,96.9,0.524
31.94,31938.8,34883.7,-1.0276,-1.4157,136.5,96.9,0.524
31.96,31994.0,35060.2,-0.0959,0.7449,136.5,96.9,0.524
31.98,32047.6,34952.3,0.8072,-0.576,136.5,96.9,0.524
32.0,31962.4,34900.1,-0.6293,-1.216,136.5,96.9,0.524
32.02,31936.1,34962.9,-1.0717,-0.4461,136.5,96.9,0.524
32.04,31989.0,34897.8,-0.1801,-1.2433,136.5,96.9,0.524
32.06,32040.6,34897.5,0.6898,-1.2468,136.5,96.9,0.524
32.08,31965.5,34960.8,-0.5768,-0.4715,136.5,96.9,0.524
32.1,31962.4,34979.6,-0.6283,-0.2413,136.5,96.9,0.524
32.12,32041.1,35078.8,0.6983,0.9733,136.5,96.9,0.524
32.14,31999.7,35200.3,0.0009,2.4605,136.5,96.9,0.524
32.16,32062.6,35140.8,1.0611,1.7317,136.5,96.9,0.524
32.18,32068.2,35089.3,1.155,1.1009,136.5,96.9,0.524
32.2,32049.4,35070.7,0.8378,0.8731,136.5,96.9,0.524
32.22,32002.2,34974.5,0.0431,-0.3041,136.5,96.9,0.524
32.24,32066.2,35102.4,1.1213,1.2623,136.5,96.9,0.524
32.26,31925.1,35017.5,-1.2572,0.2221,136.5,96.9,0.524
32.28,31961.1,34948.3,-0.6516,-0.6257,136.5,96.9,0.524
32.3,32025.7,35015.7,0.4385,0.1998,136.5,96.9,0.524
32.32,31976.9,34963.5,-0.385,-0.439,136.5,96.9,0.524
32.34,31962.7,34884.3,-0.6235,-1.4085,136.5,96.9,0.524
32.36,32006.4,34993.5,0.113,-0.0723,136.5,96.9,0.524
32.38,31998.3,34946.0,-0.0239,-0.6537,136.5,96.9,0.524
32.4,31939.2,34956.6,-1.0197,-0.5241,136.5,96.9,0.524
32.42,32033.7,34953.3,0.5732,-0.5637,136.5,96.9,0.524
32.44,32024.7,34884.7,0.4219,-1.4039,136.5,96.9,0.524
32.46,31949.8,34894.6,-0.8412,-1.2832,136.5,96.9,0.524
32.48,32009.0,34980.3,0.157,-0.2337,136.5,96.9,0.524
32.5,31897.0,34872.8,-1.7315,-1.5491,136.5,96.9,0.524
32.52,31962.9,35005.0,-0.6207,0.0697,136.5,96.9,0.524
32.54,31972.6,35093.5,-0.4565,1.153,136.5,96.9,0.524
32.56,32160.8,35136.4,2.7164,1.6778,136.5,96.9,0.524
32.58,32054.3,35195.6,0.9213,2.4029,136.5,96.9,0.524
32.6,32129.3,35170.1,2.1859,2.091,136.5,96.9,0.524
32.62,32005.6,35036.9,0.0996,0.4595,136.5,96.9,0.524
32.64,32016.9,35120.0,0.2902,1.4777,136.5,96.9,0.524
32.66,32026.6,35054.4,0.4545,0.6743,136.5,96.9,0.524
32.68,32084.9,35010.3,1.4376,0.1339,136.5,96.9,0.524
32.7,32062.5,35006.7,1.0596,0.0903,136.5,96.9,0.524
32.72,31990.9,35059.5,-0.1484,0.7362,136.5,96.9,0.524
32.74,32031.6,34963.5,0.5381,-0.4393,136.5,96.9,0.524
32.76,31990.6,34968.1,-0.1531,-0.3825,136.5,96.9,0.524
32.78,31934.9,34971.1,-1.0923,-0.3463,136.5,96.9,0.524
32.8,32016.5,34971.4,0.2831,-0.3422,136.5,96.9,0.524
32.82,32006.8,34971.2,0.1203,-0.3444,136.5,96.9,0.524
32.84,31980.3,34911.5,-0.3269,-1.076,136.5,96.9,0.524
32.86,32008.6,34940.4,0.1502,-0.7222,136.5,96.9,0.524
32.88,31934.9,34888.9,-1.092,-1.3524,136.5,96.9,0.524
32.9,31900.8,34928.8,-1.6678,-0.8642,136.5,96.9,0.524
32.92,31903.4,34982.2,-1.624,-0.2099,136.5,96.9,0.524
32.94,32008.0,34924.4,0.1408,-0.9173,136.5,96.9,0.524
32.96,31959.7,34974.1,-0.6737,-0.3095,136.5,96.9,0.524
32.98,32057.6,35031.6,0.9772,0.3948,136.5,96.9,0.524
33.0,32030.4,35104.4,0.5173,1.2861,136.5,96.9,0.524
33.02,31973.8,35171.6,-0.4358,2.1094,136.5,96.9,0.524
33.04,32224.4,35090.2,3.7893,1.1127,136.5,96.9,0.524
33.06,32056.4,35106.4,0.9564,1.3111,136.5,96.9,0.524
33.08,31924.5,34984.6,-1.2679,-0.181,136.5,96.9,0.524
33.1,32019.6,35093.1,0.3359,1.1477,136.5,96.9,0.524
33.12,32005.6,34989.8,0.1001,-0.1168,136.5,96.9,0.524
33.14,32029.2,35057.4,0.4978,0.7109,136.5,96.9,0.524
33.16,31939.2,34952.0,-1.0199,-0.5799,136.5,96.9,0.524
33.18,31929.7,34965.9,-1.1808,-0.4102,136.5,96.9,0.524
33.2,31905.0,34870.0,-1.596,-1.5842,136.5,96.9,0.524
33.22,32012.0,34972.6,0.2071,-0.3279,136.5,96.9,0.524
33.24,32000.1,34975.1,0.0062,-0.297,136.5,96.9,0.524
33.26,31907.0,35049.3,-1.5632,0.6117,136.5,96.9,0.524
33.28,31969.6,34866.7,-0.5071,-1.6245,136.5,96.9,0.524
33.3,31989.3,35009.2,-0.1748,0.1211,136.5,96.9,0.524
33.32,32015.5,34913.3,0.2662,-1.0533,136.5,96.9,0.524
33.34,31968.0,34978.6,-0.5348,-0.2545,136.5,96.9,0.524
33.36,32011.6,34909.8,0.201,-1.0965,136.5,96.9,0.524
33.38,31913.8,34995.9,-1.4479,-0.0428,136.5,96.9,0.524
33.4,31960.0,35024.5,-0.6693,0.3081,136.5,96.9,0.524
33.42,31970.4,35089.9,-0.4939,1.1088,136.5,96.9,0.524
33.44,32026.0,35084.6,0.443,1.0434,136.5,96.9,0.524
33.46,32094.9,35165.2,1.6057,2.0306,136.5,96.9,0.524
33.48,32123.2,35096.1,2.0825,1.1851,136.5,96.9,0.524
33.5,32115.9,35055.4,1.96,0.6865,136.5,96.9,0.524
33.52,32012.2,35096.5,0.2116,1.1901,136.5,96.9,0.524
33.54,31983.3,35076.6,-0.2764,0.9453,136.5,96.9,0.524
33.56,32072.6,35062.4,1.2298,0.7719,136.5,96.9,0.524
33.58,32042.7,35064.1,0.7258,0.7929,136.5,96.9,0.524
33.6,32010.1,35009.4,0.1747,0.1225,136.5,96.9,0.524
33.62,31968.2,35020.7,-0.5313,0.2612,136.5,96.9,0.524
33.64,31979.3,34981.1,-0.3434,-0.2231,136.5,96.9,0.524
33.66,32006.6,34966.0,0.1173,-0.409,136.5,96.9,0.524
33.68,32089.8,34979.3,1.52,-0.2459,136.5,96.9,0.524
33.7,32034.4,34961.4,0.5859,-0.4644,136.5,96.9,0.524
33.72,31907.6,35011.4,-1.5526,0.1479,136.5,96.9,0.524
33.74,31969.0,35024.8,-0.517,0.3112,136.5,96.9,0.524
33.76,31898.0,34897.8,-1.7147,-1.243,136.5,96.9,0.524
33.78,31860.8,34962.4,-2.3423,-0.4529,136.5,96.9,0.524
33.8,31985.0,34935.7,-0.2475,-0.7798,136.5,96.9,0.524
33.82,31969.5,34992.9,-0.5092,-0.079,136.5,96.9,0.524
33.84,31927.0,34975.6,-1.225,-0.2909,136.5,96.9,0.524
33.86,32097.6,35029.0,1.6513,0.3625,136.5,96.9,0.524
33.88,32088.6,35149.1,1.4986,1.8338,136.5,96.9,0.524
33.9,32059.6,35072.7,1.0103,0.8986,136.5,96.9,0.524
33.92,32017.3,35090.5,0.2977,1.1162,136.5,96.9,0.524
33.94,32041.8,35093.8,0.7101,1.1566,136.5,96.9,0.524
33.96,32048.2,35082.8,0.8178,1.022,136.5,96.9,0.524
33.98,31978.9,35041.4,-0.3498,0.5148,136.5,96.9,0.524
34.0,32069.1,35037.2,1.17,0.4633,136.5,96.9,0.524
34.02,32077.5,35084.0,1.3125,1.036,136.5,96.9,0.524
34.04,31974.6,35151.9,-0.4237,1.8675,136.5,96.9,0.524
34.06,32022.2,34947.9,0.379,-0.6295,136.5,96.9,0.524
34.08,32052.6,34991.0,0.8928,-0.1021,136.5,96.9,0.524
34.1,32001.8,34975.0,0.0356,-0.2986,136.5,96.9,0.524
34.12,31850.6,34917.4,-2.514,-1.0037,136.5,96.9,0.524
34.14,31971.9,34854.0,-0.4689,-1.7794,136.5,96.9,0.524
34.16,31968.6,35031.0,-0.5235,0.3876,136.5,96.9,0.524
34.18,31979.6,35008.2,-0.3385,0.108,136.5,96.9,0.524
34.2,31992.2,34966.6,-0.1266,-0.4011,136.5,96.9,0.524
34.22,31981.7,34964.2,-0.3034,-0.4311,136.5,96.9,0.524
34.24,32077.6,34911.6,1.3131,-1.074,136.5,96.9,0.524
34.26,31960.1,34916.5,-0.6675,-1.0143,136.5,96.9,0.524
34.28,32002.5,35033.4,0.0479,0.4166,136.5,96.9,0.524
34.3,32089.9,34993.2,1.5205,-0.0756,136.5,96.9,0.524
34.32,31983.1,35083.6,-0.2793,1.0314,136.5,96.9,0.524
34.34,32126.0,35084.1,2.1302,1.038,136.5,96.9,0.524
34.36,32111.3,35076.3,1.8829,0.9421,136.5,96.9,0.524
34.38,32072.3,35081.2,1.2248,1.0025,136.5,96.9,0.524
34.4,31958.1,35011.6,-0.7005,0.1502,136.5,96.9,0.524
34.42,32043.3,35053.9,0.7362,0.6677,136.5,96.9,0.524
34.44,32085.6,35009.3,1.4486,0.1219,136.5,96.9,0.524
34.46,32039.5,34949.7,0.6707,-0.6085,136.5,96.9,0.524
34.48,32056.4,35028.2,0.9559,0.3534,136.5,96.9,0.524
34.5,31980.8,35014.7,-0.3192,0.1878,136.5,96.9,0.524
34.52,32074.9,34886.2,1.2686,-1.3855,136.5,96.9,0.524
34.54,31904.7,34936.6,-1.602,-0.7685,136.5,96.9,0.524
34.56,32043.6,35001.3,0.7407,0.0244,136.5,96.9,0.524
34.58,32057.5,34989.9,0.9747,-0.116,136.5,96.9,0.524
34.6,31992.8,34958.2,-0.1162,-0.5041,136.5,96.9,0.524
34.62,31933.7,34893.7,-1.1123,-1.2943,136.5,96.9,0.524
34.64,31940.9,34876.2,-0.9919,-1.5086,136.5,96.9,0.524
34.66,31977.7,34856.3,-0.3701,-1.7512,136.5,96.9,0.524
34.68,31936.1,34903.4,-1.0719,-1.1747,136.5,96.9,0.524
34.7,31917.8,34914.9,-1.3815,-1.0344,136.5,96.9,0.524
34.72,31985.7,35091.9,-0.2357,1.1334,136.5,96.9,0.524
34.74,31988.5,35026.9,-0.1892,0.3371,136.5,96.9,0.524
34.76,32055.5,35066.6,0.9406,0.8233,136.5,96.9,0.524
34.78,32114.3,35090.4,1.932,1.1145,136.5,96.9,0.524
34.8,32057.8,35217.1,0.9802,2.6663,136.5,96.9,0.524
34.82,32041.4,35072.5,0.7035,0.8951,136.5,96.9,0.524
34.84,31914.0,35059.3,-1.4452,0.7339,136.5,96.9,0.524
34.86,32013.0,35055.0,0.2236,0.6812,136.5,96.9,0.524
34.88,32031.8,34980.2,0.5415,-0.2342,136.5,96.9,0.524
34.9,31931.4,34938.2,-1.1522,-0.7493,136.5,96.9,0.524
34.92,32060.3,34965.9,1.0219,-0.4102,136.5,96.9,0.524
34.94,31967.7,34980.2,-0.5393,-0.2346,136.5,96.9,0.524
34.96,32035.1,34965.4,0.5966,-0.4154,136.5,96.9,0.524
34.98,31922.8,34921.8,-1.2965,-0.9495,136.5,96.9,0.524
35.0,31958.4,35009.8,-0.6961,0.1277,136.5,96.9,0.524
35.02,31972.7,34948.0,-0.4557,-0.6292,136.5,96.9,0.524
35.04,32008.8,35011.6,0.1532,0.1496,136.5,96.9,0.524
35.06,31958.7,34971.0,-0.6914,-0.3466,136.5,96.9,0.524
35.08,31927.2,34957.5,-1.2228,-0.512,136.5,96.9,0.524
35.1,31999.8,34989.0,0.0011,-0.1265,136.5,96.9,0.524
35.12,31960.8,34857.2,-0.6563,-1.7403,136.5,96.9,0.524
35.14,32046.4,34954.8,0.7871,-0.5461,136.5,96.9,0.524
35.16,31984.9,34943.4,-0.25,-0.6849,136.5,96.9,0.524
35.18,31946.3,35025.8,-0.8999,0.324,136.5,96.9,0.524
35.2,32027.5,35077.4,0.4695,0.9554,136.5,96.9,0.524
35.22,32084.0,35164.5,1.4225,2.0221,136.5,96.9,0.524
35.24,32029.5,35115.0,0.503,1.4163,136.5,96.9,0.524
35.26,31967.2,34994.4,-0.5482,-0.0604,136.5,96.9,0.524
35.28,32006.0,35142.5,0.1057,1.7528,136.5,96.9,0.524
35.3,31996.3,35089.5,-0.0571,1.1034,136.5,96.9,0.524
35.32,32048.4,35134.1,0.8215,1.6495,136.5,96.9,0.524
35.34,31991.0,35042.8,-0.1471,0.5317,136.5,96.9,0.524
35.36,31954.8,35047.7,-0.7563,0.5921,136.5,96.9,0.524
35.38,32035.5,34917.4,0.6043,-1.0034,136.5,96.9,0.524
35.4,31881.2,35049.0,-1.9985,0.6082,136.5,96.9,0.524
35.42,32075.2,34970.8,1.2736,-0.3498,136.5,96.9,0.524
35.44,31935.5,35014.6,-1.0821,0.1869,136.5,96.9,0.524
35.46,31986.8,35029.7,-0.2169,0.3713,136.5,96.9,0.524
35.48,31932.6,34954.4,-1.1306,-0.551,136.5,96.9,0.524
35.5,31924.1,34978.6,-1.275,-0.2538,136.5,96.9,0.524
35.52,31922.5,34999.5,-1.3016,0.0019,136.5,96.9,0.524
35.54,31972.8,34901.6,-0.4542,-1.1967,136.5,96.9,0.524
35.56,31946.0,34917.5,-0.9048,-1.002,136.5,96.9,0.524
35.58,32026.4,34923.5,0.4498,-0.9283,136.5,96.9,0.524
35.6,31971.1,34977.1,-0.4824,-0.2722,136.5,96.9,0.524
35.62,32018.3,35092.1,0.314,1.1362,136.5,96.9,0.524
35.64,32095.6,35106.8,1.6165,1.3155,136.5,96.9,0.524
35.66,31980.8,35111.7,-0.3192,1.3752,136.5,96.9,0.524
35.68,32084.1,35137.6,1.4228,1.6924,136.5,96.9,0.524
35.7,32029.0,35084.9,0.4936,1.0481,136.5,96.9,0.524
35.72,32028.5,34967.5,0.4856,-0.3901,136.5,96.9,0.524
35.74,32056.7,35026.6,0.9617,0.3334,136.5,96.9,0.524
35.76,32059.5,35030.0,1.0086,0.375,136.5,96.9,0.524
35.78,32010.8,35067.1,0.1881,0.8295,136.5,96.9,0.524
35.8,31942.6,35022.0,-0.963,0.2767,136.5,96.9,0.524
35.82,32152.9,34943.2,2.5837,-0.6876,136.5,96.9,0.524
35.84,31986.1,34992.7,-0.2294,-0.081,136.5,96.9,0.524
35.86,31976.8,34920.6,-0.3857,-0.9647,136.5,96.9,0.524
35.88,32079.8,34883.2,1.3516,-1.4217,136.5,96.9,0.524
35.9,32001.1,34895.3,0.0239,-1.2736,136.5,96.9,0.524
35.92,32046.5,35022.6,0.7902,0.2852,136.5,96.9,0.524
35.94,31954.2,34961.7,-0.7666,-0.4613,136.5,96.9,0.524
35.96,32019.2,34934.5,0.3283,-0.7944,136.5,96.9,0.524
35.98,32012.7,34941.3,0.2191,-0.7105,136.5,96.9,0.524
36.0,31892.1,34992.9,-1.8142,-0.079,136.5,96.9,0.524
36.02,31958.1,35045.3,-0.7012,0.5628,136.5,96.9,0.524
36.04,32008.5,35008.0,0.1489,0.1064,136.5,96.9,0.524
36.06,32081.6,35044.1,1.3818,0.5482,136.5,96.9,0.524
36.08,32086.9,35095.2,1.4711,1.1739,136.5,96.9,0.524
36.1,32015.9,35107.0,0.2737,1.3185,136.5,96.9,0.524
36.12,32060.5,35137.2,1.026,1.6873,136.5,96.9,0.524
36.14,32126.2,35098.3,2.134,1.2121,136.5,96.9,0.524
36.16,32110.0,35024.3,1.8606,0.3049,136.5,96.9,0.524
36.18,31960.7,34998.3,-0.658,-0.0132,136.5,96.9,0.524
36.2,32004.1,35084.0,0.0737,1.0368,136.5,96.9,0.524
36.22,31969.7,35058.3,-0.5052,0.7219,136.5,96.9,0.524
36.24,31992.9,35020.2,-0.1151,0.2557,136.5,96.9,0.524
36.26,32028.7,34982.4,0.4892,-0.2078,136.5,96.9,0.524
36.28,32022.6,35038.7,0.386,0.4816,136.5,96.9,0.524
36.3,32005.9,34928.8,0.1044,-0.8642,136.5,96.9,0.524
36.32,31925.3,35004.6,-1.2549,0.0647,136.5,96.9,0.524
36.34,31993.1,34832.4,-0.1112,-2.0445,136.5,96.9,0.524
36.36,31935.7,34988.3,-1.0789,-0.1358,136.5,96.9,0.524
36.38,31970.0,34863.6,-0.5002,-1.6625,136.5,96.9,0.524
36.4,31989.6,34914.0,-0.1693,-1.0446,136.5,96.9,0.524
36.42,32015.7,34855.4,0.2699,-1.7621,136.5,96.9,0.524
36.44,31876.0,34915.8,-2.086,-1.0228,136.5,96.9,0.524
36.46,31939.9,34821.4,-1.0083,-2.1794,136.5,96.9,0.524
36.48,31970.7,34943.1,-0.4894,-0.6886,136.5,96.9,0.524
36.5,32005.5,35042.5,0.0981,0.5284,136.5,96.9,0.524
36.52,32106.7,35141.5,1.8037,1.74,136.5,96.9,0.524
36.54,32135.1,35029.3,2.2839,0.3664,136.5,96.9,0.524
36.56,32125.2,35159.8,2.1159,1.965,136.5,96.9,0.524
36.58,31956.4,35069.5,-0.7304,0.8594,136.5,96.9,0.524
36.6,32066.4,34929.6,1.1242,-0.8538,136.5,96.9,0.524
36.62,32038.2,35038.8,0.65,0.4825,136.5,96.9,0.524
36.64,31966.2,34960.1,-0.5648,-0.4805,136.5,96.9,0.524
36.66,32022.5,34968.5,0.3853,-0.3781,136.5,96.9,0.524
36.68,31986.4,35037.8,-0.2242,0.4704,136.5,96.9,0.524
36.7,32013.7,35019.5,0.2367,0.2462,136.5,96.9,0.524
36.72,31907.5,34941.3,-1.554,-0.7108,136.5,96.9,0.524
36.74,31959.6,34885.1,-0.6759,-1.3995,136.5,96.9,0.524
36.76,32062.0,34996.9,1.0515,-0.0297,136.5,96.9,0.524
36.78,32000.9,34910.1,0.0209,-1.0928,136.5,96.9,0.524
36.8,31970.0,34968.7,-0.5012,-0.375,136.5,96.9,0.524
36.82,31930.6,34897.3,-1.1646,-1.2498,136.5,96.9,0.524
36.84,31942.1,34967.4,-0.9704,-0.3915,136.5,96.9,0.524
36.86,31983.2,34943.0,-0.2783,-0.6895,136.5,96.9,0.524
36.88,31955.9,34930.1,-0.7388,-0.8476,136.5,96.9,0.524
36.9,31944.7,34966.5,-0.9277,-0.4021,136.5,96.9,0.524
36.92,31934.2,34948.3,-1.105,-0.6255,136.5,96.9,0.524
36.94,31961.9,35118.0,-0.6367,1.453,136.5,96.9,0.524
36.96,32049.8,35050.9,0.8452,0.6313,136.5,96.9,0.524
36.98,32016.0,35130.3,0.2751,1.603,136.5,96.9,0.524
37.0,32101.5,35148.8,1.7169,1.8295,136.5,96.9,0.524
37.02,32058.6,35198.3,0.9934,2.4362,136.5,96.9,0.524
37.04,32027.0,35103.3,0.4607,1.2728,136.5,96.9,0.524
37.06,32044.5,35022.3,0.7559,0.2807,136.5,96.9,0.524
37.08,32068.3,35116.1,1.1567,1.4292,136.5,96.9,0.524
37.1,32041.9,35010.6,0.7116,0.1376,136.5,96.9,0.524
37.12,32007.0,35035.9,0.123,0.4481,136.5,96.9,0.524
37.14,31870.5,35081.3,-2.178,1.0034,136.5,96.9,0.524
37.16,32002.8,34978.4,0.052,-0.2563,136.5,96.9,0.524
37.18,31886.8,34965.0,-1.9035,-0.4206,136.5,96.9,0.524
37.2,31931.3,34970.3,-1.154,-0.3563,136.5,96.9,0.524
37.22,31915.9,34971.8,-1.4125,-0.3378,136.5,96.9,0.524
37.24,31990.0,34996.3,-0.163,-0.0376,136.5,96.9,0.524
37.26,31992.0,34989.3,-0.1305,-0.1229,136.5,96.9,0.524
37.28,31899.1,34923.7,-1.697,-0.9266,136.5,96.9,0.524
37.3,32003.3,34952.0,0.0606,-0.5801,136.5,96.9,0.524
37.32,31856.5,34981.6,-2.415,-0.218,136.5,96.9,0.524
37.34,31991.3,34911.5,-0.1422,-1.076,136.5,96.9,0.524
37.36,31970.1,34887.6,-0.4993,-1.369,136.5,96.9,0.524
37.38,32082.9,34978.8,1.4039,-0.2516,136.5,96.9,0.524
37.4,31925.4,35067.1,-1.253,0.8301,136.5,96.9,0.524
37.42,32152.9,35066.0,2.584,0.8162,136.5,96.9,0.524
37.44,32028.5,35160.3,0.486,1.971,136.5,96.9,0.524
37.46,32059.5,35123.3,1.0089,1.5173,136.5,96.9,0.524
37.48,32099.4,34978.2,1.6817,-0.2594,136.5,96.9,0.524
37.5,31971.9,35026.8,-0.4681,0.3355,136.5,96.9,0.524
37.52,32031.3,34968.2,0.5336,-0.3814,136.5,96.9,0.524
37.54,31977.5,34989.6,-0.3745,-0.1189,136.5,96.9,0.524
37.56,31913.4,34970.8,-1.455,-0.3493,136.5,96.9,0.524
37.58,32010.7,34881.8,0.1863,-1.4398,136.5,96.9,0.524
37.6,32039.7,34945.4,0.674,-0.6604,136.5,96.9,0.524
37.62,32038.9,34968.5,0.6606,-0.3779,136.5,96.9,0.524
37.64,31898.7,34975.4,-1.7037,-0.2931,136.5,96.9,0.524
37.66,31974.2,34990.9,-0.43,-0.1035,136.5,96.9,0.524
37.68,32020.0,35002.8,0.342,0.0416,136.5,96.9,0.524
37.7,31936.3,34836.7,-1.0689,-1.9923,136.5,96.9,0.524
37.72,31920.5,34906.7,-1.3356,-1.1343,136.5,96.9,0.524
37.74,31978.6,34822.2,-0.3559,-2.1698,136.5,96.9,0.524
37.76,31937.1,34958.1,-1.056,-0.5052,136.5,96.9,0.524
37.78,32088.9,34931.4,1.5051,-0.8318,136.5,96.9,0.524
37.8,31985.3,34980.9,-0.243,-0.2263,136.5,96.9,0.524
37.82,32029.6,35120.5,0.5038,1.483,136.5,96.9,0.524
37.84,32081.1,35041.1,1.3734,0.5116,136.5,96.9,0.524
37.86,31988.7,35119.6,-0.1849,1.4722,136.5,96.9,0.524
37.88,32000.2,35066.7,0.0092,0.8244,136.5,96.9,0.524
37.9,32070.2,35083.4,1.189,1.0295,136.5,96.9,0.524
37.92,32082.9,35052.3,1.4038,0.6482,136.5,96.9,0.524
37.94,32052.8,35036.5,0.8955,0.4542,136.5,96.9,0.524
37.96,31998.4,35023.0,-0.021,0.2892,136.5,96.9,0.524
37.98,31937.5,35055.2,-1.0495,0.6838,136.5,96.9,0.524
38.0,32041.4,34990.6,0.7032,-0.1066,136.5,96.9,0.524
38.02,32035.1,34986.9,0.5971,-0.152,136.5,96.9,0.524
38.04,31971.1,34996.4,-0.4819,-0.0361,136.5,96.9,0.524
38.06,31930.8,35021.0,-1.1624,0.2645,136.5,96.9,0.524
38.08,31956.1,34960.3,-0.7345,-0.4781,136.5,96.9,0.524
38.1,31969.4,34917.8,-0.511,-0.9989,136.5,96.9,0.524
38.12,31935.8,34928.2,-1.0767,-0.8712,136.5,96.9,0.524
38.14,32028.8,34915.1,0.4907,-1.0312,136.5,96.9,0.524
38.16,31964.0,34937.2,-0.6013,-0.7612,136.5,96.9,0.524
38.18,31886.7,34875.4,-1.9057,-1.5179,136.5,96.9,0.524
38.2,31975.6,34913.3,-0.406,-1.0535,136.5,96.9,0.524
38.22,31959.4,34928.6,-0.679,-0.8666,136.5,96.9,0.524
38.24,32012.6,34948.7,0.217,-0.6205,136.5,96.9,0.524
38.26,32042.6,35075.9,0.7228,0.9369,136.5,96.9,0.524
38.28,32050.1,35105.4,0.8495,1.2989,136.5,96.9,0.524
38.3,32067.1,35084.7,1.136,1.0454,136.5,96.9,0.524
38.32,31961.8,35123.7,-0.6386,1.5224,136.5,96.9,0.524
38.34,32050.4,35131.6,0.8557,1.6196,136.5,96.9,0.524
38.36,32108.3,35097.4,1.8309,1.2006,136.5,96.9,0.524
38.38,32013.4,35024.4,0.232,0.3066,136.5,96.9,0.524
38.4,31956.9,35017.0,-0.7224,0.2166,136.5,96.9,0.524
38.42,32009.3,35013.2,0.1619,0.169,136.5,96.9,0.524
38.44,31946.3,35074.8,-0.9004,0.9242,136.5,96.9,0.524
38.46,31997.7,35042.8,-0.033,0.5325,136.5,96.9,0.524
38.48,32018.9,35001.7,0.3233,0.0293,136.5,96.9,0.524
38.5,31917.5,34896.8,-1.3866,-1.2561,136.5,96.9,0.524
38.52,32089.6,34976.5,1.5165,-0.2796,136.5,96.9,0.524
38.54,31948.2,35030.7,-0.8678,0.3835,136.5,96.9,0.524
38.56,31869.3,34908.1,-2.1989,-1.1177,136.5,96.9,0.524
38.58,31949.0,34843.7,-0.8547,-1.9056,136.5,96.9,0.524
38.6,31899.3,34939.2,-1.6933,-0.7371,136.5,96.9,0.524
38.62,31964.4,34933.9,-0.5953,-0.8015,136.5,96.9,0.524
38.64,32021.5,34947.4,0.3676,-0.6362,136.5,96.9,0.524
38.66,31892.4,35005.0,-1.8092,0.0694,136.5,96.9,0.524
38.68,31922.6,34996.1,-1.2996,-0.0399,136.5,96.9,0.524
38.7,32023.7,35007.7,0.4042,0.1026,136.5,96.9,0.524
38.72,32087.0,35126.8,1.4724,1.5607,136.5,96.9,0.524
38.74,32082.5,35107.7,1.3959,1.3267,136.5,96.9,0.524
38.76,32015.2,35048.5,0.2623,0.6014,136.5,96.9,0.524
38.78,32041.9,34981.9,0.7118,-0.2138,136.5,96.9,0.524
38.8,31980.0,34945.3,-0.3324,-0.6616,136.5,96.9,0.524
38.82,32021.9,34989.0,0.3742,-0.1271,136.5,96.9,0.524
38.84,32058.0,35040.2,0.9835,0.5001,136.5,96.9,0.524
38.86,32002.3,34944.2,0.0434,-0.6749,136.5,96.9,0.524
38.88,32005.3,34977.6,0.0948,-0.2664,136.5,96.9,0.524
38.9,32014.5,35004.6,0.2496,0.0647,136.5,96.9,0.524
38.92,32001.2,34937.1,0.0253,-0.7618,136.5,96.9,0.524
38.94,31981.3,34934.2,-0.3105,-0.7982,136.5,96.9,0.524
38.96,31986.4,34884.5,-0.2234,-1.4065,136.5,96.9,0.524
38.98,32029.2,34975.6,0.4981,-0.2915,136.5,96.9,0.524
39.0,31912.2,34911.2,-1.4752,-1.0799,136.5,96.9,0.524
39.02,31945.6,34933.1,-0.912,-0.8109,136.5,96.9,0.524
39.04,31933.4,34973.6,-1.1174,-0.3153,136.5,96.9,0.524
39.06,32016.6,35000.7,0.2847,0.0167,136.5,96.9,0.524
39.08,31943.8,34898.3,-0.9432,-1.2379,136.5,96.9,0.524
39.1,31947.4,34977.4,-0.8811,-0.2688,136.5,96.9,0.524
39.12,31978.4,34995.9,-0.3586,-0.0421,136.5,96.9,0.524
39.14,32048.0,35065.6,0.8153,0.8106,136.5,96.9,0.524
39.16,32106.8,35044.1,1.806,0.5475,136.5,96.9,0.524
39.18,32030.5,35127.1,0.5193,1.5643,136.5,96.9,0.524
39.2,31961.6,35102.0,-0.6418,1.2564,136.5,96.9,0.524
39.22,31969.2,35088.6,-0.5147,1.0931,136.5,96.9,0.524
39.24,32096.6,35087.8,1.6342,1.0835,136.5,96.9,0.524
39.26,31986.1,35015.4,-0.2298,0.1962,136.5,96.9,0.524
39.28,31966.0,35042.6,-0.5679,0.5293,136.5,96.9,0.524
39.3,31965.3,35001.0,-0.5803,0.0205,136.5,96.9,0.524
39.32,31940.4,34999.5,-1.0002,0.0018,136.5,96.9,0.524
39.34,31957.2,34997.9,-0.7163,-0.018,136.5,96.9,0.524
39.36,32033.7,35020.2,0.5732,0.2553,136.5,96.9,0.524
39.38,31999.6,34862.7,-0.0016,-1.6739,136.5,96.9,0.524
39.4,31920.0,34968.8,-1.3446,-0.3744,136.5,96.9,0.524
39.42,31987.9,34931.2,-0.1988,-0.8349,136.5,96.9,0.524
39.44,32066.6,34976.6,1.1284,-0.2792,136.5,96.9,0.524
39.46,32008.7,34855.9,0.152,-1.7572,136.5,96.9,0.524
39.48,31945.0,34971.9,-0.9214,-0.3361,136.5,96.9,0.524
39.5,32013.8,34924.5,0.2376,-0.9167,136.5,96.9,0.524
39.52,31900.9,34923.6,-1.6664,-0.927,136.5,96.9,0.524
39.54,32019.6,34901.9,0.3359,-1.1939,136.5,96.9,0.524
39.56,31959.1,34954.8,-0.6836,-0.5455,136.5,96.9,0.524
39.58,32065.9,35097.0,1.1171,1.1958,136.5,96.9,0.524
39.6,32043.1,35137.0,0.7327,1.6853,136.5,96.9,0.524
39.62,32159.9,35178.6,2.7024,2.1949,136.5,96.9,0.524
39.64,32030.2,35130.4,0.5151,1.605,136.5,96.9,0.524
39.66,32105.8,35137.8,1.7885,1.6951,136.5,96.9,0.524
39.68,32043.3,35130.1,0.7359,1.6004,136.5,96.9,0.524
39.7,31963.3,35034.5,-0.6129,0.4307,136.5,96.9,0.524
39.72,32066.5,34968.2,1.1265,-0.3818,136.5,96.9,0.524
39.74,32047.4,35053.4,0.8053,0.6618,136.5,96.9,0.524
39.76,32012.3,34973.2,0.2118,-0.3201,136.5,96.9,0.524
39.78,31923.5,34909.9,-1.2852,-1.0958,136.5,96.9,0.524
39.8,31930.4,35029.8,-1.1678,0.3726,136.5,96.9,0.524
39.82,32005.7,34976.9,0.1007,-0.2755,136.5,96.9,0.524
39.84,32024.5,34983.9,0.4182,-0.1893,136.5,96.9,0.524
39.86,31970.6,34911.6,-0.4909,-1.0745,136.5,96.9,0.524
39.88,32016.7,34889.4,0.2876,-1.3464,136.5,96.9,0.524
39.9,31915.6,34933.0,-1.4187,-0.812,136.5,96.9,0.524
39.92,32019.1,34871.1,0.3265,-1.5711,136.5,96.9,0.524
39.94,31962.7,34859.8,-0.6242,-1.709,136.5,96.9,0.524
39.96,32001.9,34903.2,0.0368,-1.1779,136.5,96.9,0.524
39.98,32003.1,34914.9,0.0568,-1.0346,136.5,96.9,0.524
40.0,31999.1,35100.4,-0.0101,1.2371,136.5,96.9,0.524
40.02,32028.7,35051.3,0.4892,0.6356,136.5,96.9,0.524
40.04,31916.7,35077.0,-1.3993,0.9504,136.5,96.9,0.524
40.06,31985.3,35095.8,-0.2428,1.1813,136.5,96.9,0.524
40.08,31989.3,35087.7,-0.1752,1.0819,136.5,96.9,0.524
40.1,32051.3,35211.8,0.8706,2.6018,136.5,96.9,0.524
40.12,32042.6,34973.6,0.7238,-0.3152,136.5,96.9,0.524
40.14,32102.4,35056.8,1.7317,0.7033,136.5,96.9,0.524
40.16,32013.9,34960.0,0.2394,-0.4817,136.5,96.9,0.524
40.18,31977.0,35054.3,-0.3825,0.6725,136.5,96.9,0.524
40.2,32069.0,34981.7,1.1681,-0.2159,136.5,96.9,0.524
40.22,32005.1,34953.1,0.0918,-0.5662,136.5,96.9,0.524
40.24,31921.9,35005.6,-1.3118,0.077,136.5,96.9,0.524
40.26,31952.5,34957.8,-0.7962,-0.5093,136.5,96.9,0.524
40.28,31983.1,34891.7,-0.2805,-1.3179,136.5,96.9,0.524
40.3,31989.3,34877.8,-0.1757,-1.4886,136.5,96.9,0.524
40.32,31972.0,34961.4,-0.4672,-0.4642,136.5,96.9,0.524
40.34,31967.4,34968.6,-0.5441,-0.3771,136.5,96.9,0.524
40.36,31943.6,34924.0,-0.9453,-0.9233,136.5,96.9,0.524
40.38,31968.5,34939.0,-0.5254,-0.739,136.5,96.9,0.524
40.4,31924.3,34959.5,-1.2714,-0.4882,136.5,96.9,0.524
40.42,31957.6,35038.7,-0.7094,0.4816,136.5,96.9,0.524
40.44,32011.1,35071.5,0.1932,0.8828,136.5,96.9,0.524
40.46,32078.1,35006.4,1.323,0.0868,136.5,96.9,0.524
40.48,31941.4,35130.3,-0.9834,1.6034,136.5,96.9,0.524
40.5,32113.5,35166.0,1.9185,2.0409,136.5,96.9,0.524
40.52,32080.6,35080.2,1.3635,0.9897,136.5,96.9,0.524
40.54,32048.5,35110.5,0.8233,1.3604,136.5,96.9,0.524
40.56,32039.8,35049.2,0.676,0.6102,136.5,96.9,0.524
40.58,31882.7,35056.4,-1.9735,0.6987,136.5,96.9,0.524
40.6,32118.7,35045.1,2.0069,0.5597,136.5,96.9,0.524
40.62,32054.5,35004.5,0.9241,0.0634,136.5,96.9,0.524
40.64,31972.7,35054.6,-0.4552,0.6764,136.5,96.9,0.524
40.66,32000.8,35045.1,0.0185,0.5606,136.5,96.9,0.524
40.68,31969.7,34994.0,-0.5054,-0.0652,136.5,96.9,0.524
40.7,31970.7,34942.6,-0.4888,-0.6948,136.5,96.9,0.524
40.72,32073.8,35023.7,1.2498,0.2975,136.5,96.9,0.524
40.74,31993.9,34946.6,-0.0976,-0.6455,136.5,96.9,0.524
40.76,31943.0,34965.5,-0.9567,-0.414,136.5,96.9,0.524
40.78,31961.5,35005.3,-0.6442,0.0732,136.5,96.9,0.524
40.8,32011.5,34993.0,0.1989,-0.0776,136.5,96.9,0.524
40.82,31906.9,34943.0,-1.5646,-0.6897,136.5,96.9,0.524
40.84,31876.7,34957.8,-2.0745,-0.5094,136.5,96.9,0.524
40.86,32029.9,35046.7,0.5098,0.5797,136.5,96.9,0.524
40.88,32050.1,35053.2,0.8499,0.6598,136.5,96.9,0.524
40.9,32135.5,35074.6,2.2905,0.9209,136.5,96.9,0.524
40.92,31980.4,35093.1,-0.3258,1.1479,136.5,96.9,0.524
40.94,32054.1,35133.1,0.918,1.6382,136.5,96.9,0.524
40.96,32090.8,35116.9,1.5361,1.4392,136.5,96.9,0.524
40.98,32019.7,35062.9,0.3381,0.7782,136.5,96.9,0.524
41.0,31970.6,34956.5,-0.4912,-0.5248,136.5,96.9,0.524
41.02,32032.4,35157.6,0.552,1.9375,136.5,96.9,0.524
41.04,32025.8,35043.0,0.4398,0.5346,136.5,96.9,0.524
41.06,32033.3,34997.6,0.5672,-0.022,136.5,96.9,0.524
41.08,31979.3,35065.9,-0.344,0.8144,136.5,96.9,0.524
41.1,32080.0,34950.4,1.354,-0.5998,136.5,96.9,0.524
41.12,31945.8,34883.6,-0.9082,-1.4172,136.5,96.9,0.524
41.14,31967.5,34936.3,-0.5423,-0.7718,136.5,96.9,0.524
41.16,31948.7,34980.4,-0.8602,-0.2317,136.5,96.9,0.524
41.18,31896.7,34927.1,-1.737,-0.8848,136.5,96.9,0.524
41.2,32029.8,34902.2,0.5081,-1.1897,136.5,96.9,0.524
41.22,31857.9,34897.8,-2.3914,-1.2432,136.5,96.9,0.524
41.24,31889.9,35065.4,-1.851,0.8085,136.5,96.9,0.524
41.26,31920.2,34893.2,-1.3402,-1.2998,136.5,96.9,0.524
41.28,31938.7,34949.6,-1.0285,-0.6094,136.5,96.9,0.524
41.3,31909.5,34997.2,-1.5211,-0.026,136.5,96.9,0.524
41.32,32020.4,34958.0,0.3499,-0.5067,136.5,96.9,0.524
41.34,32048.8,35103.1,0.8285,1.27,136.5,96.9,0.524
41.36,32007.3,35000.7,0.1277,0.0164,136.5,96.9,0.524
41.38,32079.0,35124.2,1.3366,1.5289,136.5,96.9,0.524
41.4,32096.7,35122.3,1.6355,1.5056,136.5,96.9,0.524
41.42,32022.3,35043.1,0.3817,0.5352,136.5,96.9,0.524
41.44,32011.4,35083.3,0.1972,1.0279,136.5,96.9,0.524
41.46,31996.7,35031.1,-0.0505,0.3888,136.5,96.9,0.524
41.48,31947.5,34972.0,-0.8799,-0.3348,136.5,96.9,0.524
41.5,31998.3,35113.5,-0.0241,1.3971,136.5,96.9,0.524
41.52,31999.4,34985.2,-0.0051,-0.1736,136.5,96.9,0.524
41.54,32039.6,34996.1,0.6726,-0.0396,136.5,96.9,0.524
41.56,31947.2,34977.8,-0.8857,-0.2644,136.5,96.9,0.524
41.58,31987.4,34911.0,-0.2072,-1.0819,136.5,96.9,0.524
41.6,31955.4,34900.4,-0.7475,-1.2121,136.5,96.9,0.524
41.62,31993.7,34971.2,-0.1006,-0.3453,136.5,96.9,0.524
41.64,31934.1,34922.8,-1.1067,-0.9373,136.5,96.9,0.524
41.66,32006.6,34964.9,0.1169,-0.4221,136.5,96.9,0.524
41.68,31958.8,34944.3,-0.689,-0.6745,136.5,96.9,0.524
41.7,31933.4,34897.8,-1.1174,-1.2437,136.5,96.9,0.524
41.72,32009.4,34906.0,0.1635,-1.1433,136.5,96.9,0.524
41.74,31959.8,34920.8,-0.6726,-0.9623,136.5,96.9,0.524
41.76,32091.3,34943.6,1.5444,-0.6826,136.5,96.9,0.524
41.78,31910.5,35026.8,-1.5045,0.3366,136.5,96.9,0.524
41.8,32040.9,35054.5,0.6947,0.6749,136.5,96.9,0.524
41.82,32083.5,35216.7,1.4127,2.6609,136.5,96.9,0.524
41.84,32095.9,35041.6,1.6219,0.5169,136.5,96.9,0.524
41.86,31997.3,35150.9,-0.0411,1.8553,136.5,96.9,0.524
41.88,32042.2,35073.6,0.7165,0.9089,136.5,96.9,0.524
41.9,31940.9,35174.3,-0.9913,2.1425,136.5,96.9,0.524
41.92,31982.5,35043.4,-0.2896,0.5397,136.5,96.9,0.524
41.94,32011.9,35082.5,0.2057,1.0183,136.5,96.9,0.524
41.96,32006.3,34951.0,0.1107,-0.5924,136.5,96.9,0.524
41.98,31889.8,34945.2,-1.8524,-0.6629,136.5,96.9,0.524
42.0,31972.8,34963.8,-0.4532,-0.4352,136.5,96.9,0.524
42.02,32001.9,34906.6,0.038,-1.1362,136.5,96.9,0.524
42.04,31941.8,34945.0,-0.977,-0.6662,136.5,96.9,0.524
42.06,31940.1,35009.9,-1.0047,0.1297,136.5,96.9,0.524
42.08,32062.1,34979.9,1.0523,-0.2376,136.5,96.9,0.524
42.1,31945.9,34976.6,-0.9062,-0.2791,136.5,96.9,0.524
42.12,32075.9,34934.8,1.2855,-0.7899,136.5,96.9,0.524
42.14,31952.0,34950.8,-0.8044,-0.5944,136.5,96.9,0.524
42.16,31997.9,34903.4,-0.0308,-1.1745,136.5,96.9,0.524
42.18,31982.4,35039.8,-0.2912,0.4947,136.5,96.9,0.524
42.2,31962.3,34951.8,-0.6305,-0.5824,136.5,96.9,0.524
42.22,31981.0,35039.8,-0.3145,0.4953,136.5,96.9,0.524
42.24,32034.6,35130.8,0.589,1.6094,136.5,96.9,0.524
42.26,32103.5,35116.8,1.7499,1.4377,136.5,96.9,0.524
42.28,32105.5,35180.3,1.7846,2.2158,136.5,96.9,0.524
42.3,32084.7,34997.4,1.4333,-0.0238,136.5,96.9,0.524
42.32,32031.4,35014.9,0.5355,0.1908,136.5,96.9,0.524
42.34,31967.5,35076.4,-0.5427,0.9435,136.5,96.9,0.524
42.36,32037.9,34954.9,0.6451,-0.5447,136.5,96.9,0.524
42.38,31957.4,35041.3,-0.7137,0.5136,136.5,96.9,0.524
42.4,31973.9,35071.4,-0.4344,0.882,136.5,96.9,0.524
42.42,31984.4,34969.2,-0.2575,-0.369,136.5,96.9,0.524
42.44,31998.3,35039.3,-0.0239,0.4891,136.5,96.9,0.524
42.46,31996.6,34986.7,-0.0528,-0.155,136.5,96.9,0.524
42.48,31949.8,34952.7,-0.8406,-0.5718,136.5,96.9,0.524
42.5,31955.4,34914.4,-0.7467,-1.0408,136.5,96.9,0.524
42.52,31987.6,34973.2,-0.2037,-0.3208,136.5,96.9,0.524
42.54,31987.2,34891.2,-0.2098,-1.3246,136.5,96.9,0.524
42.56,31931.2,34886.6,-1.1543,-1.3811,136.5,96.9,0.524
42.58,31929.5,34918.7,-1.1835,-0.9874,136.5,96.9,0.524
42.6,31990.2,34948.3,-0.1601,-0.6252,136.5,96.9,0.524
42.62,31983.1,34913.7,-0.2792,-1.0484,136.5,96.9,0.524
42.64,32046.9,34896.4,0.7955,-1.2612,136.5,96.9,0.524
42.66,32054.4,35120.2,0.9226,1.4799,136.5,96.9,0.524
42.68,32043.0,35111.8,0.7305,1.3774,136.5,96.9,0.524
42.7,32196.9,35081.8,3.326,1.0098,136.5,96.9,0.524
42.72,32135.5,35098.3,2.2898,1.2116,136.5,96.9,0.524
42.74,32024.2,35129.1,0.4131,1.5893,136.5,96.9,0.524
42.76,32074.4,35038.1,1.2601,0.4745,136.5,96.9,0.524
42.78,32008.2,34990.9,0.1433,-0.104,136.5,96.9,0.524
42.8,31957.2,35036.7,-0.7171,0.4578,136.5,96.9,0.524
42.82,32092.4,35025.8,1.5637,0.3241,136.5,96.9,0.524
42.84,31978.3,35059.7,-0.3605,0.7391,136.5,96.9,0.524
42.86,31930.9,34960.2,-1.1594,-0.48,136.5,96.9,0.524
42.88,32035.2,34997.3,0.5986,-0.0255,136.5,96.9,0.524
42.9,31980.4,34980.3,-0.3251,-0.2329,136.5,96.9,0.524
42.92,32003.8,34956.0,0.0696,-0.5307,136.5,96.9,0.524
42.94,32068.5,34932.7,1.1595,-0.8165,136.5,96.9,0.524
42.96,31944.8,34977.9,-0.9249,-0.2621,136.5,96.9,0.524
42.98,32037.3,34847.9,0.6342,-1.8546,136.5,96.9,0.524
43.0,31922.6,34984.4,-1.2995,-0.1833,136.5,96.9,0.524
43.02,32008.7,34879.5,0.1512,-1.4681,136.5,96.9,0.524
43.04,31962.9,34893.8,-0.6201,-1.2922,136.5,96.9,0.524
43.06,32007.0,34976.8,0.1232,-0.2765,136.5,96.9,0.524
43.08,32098.9,35163.5,1.6726,2.0094,136.5,96.9,0.524
43.1,31950.3,35012.7,-0.8324,0.163,136.5,96.9,0.524
43.12,32073.0,35116.8,1.2356,1.4375,136.5,96.9,0.524
43.14,32076.4,35121.2,1.2937,1.4919,136.5,96.9,0.524
43.16,32103.8,35076.4,1.7551,0.9433,136.5,96.9,0.524
43.18,32093.2,35138.7,1.5762,1.7058,136.5,96.9,0.524
43.2,32060.3,35021.8,1.022,0.2746,136.5,96.9,0.524
43.22,32005.0,35156.6,0.0888,1.9255,136.5,96.9,0.524
43.24,32003.0,35115.2,0.0564,1.4186,136.5,96.9,0.524
43.26,31969.8,34970.0,-0.5042,-0.3596,136.5,96.9,0.524
43.28,31925.3,35077.1,-1.2539,0.9519,136.5,96.9,0.524
43.3,31996.7,34963.1,-0.0498,-0.4443,136.5,96.9,0.524
43.32,31931.1,34952.6,-1.1565,-0.5729,136.5,96.9,0.524
43.34,31997.4,34920.4,-0.0388,-0.9662,136.5,96.9,0.524
43.36,32050.3,34941.4,0.8538,-0.7102,136.5,96.9,0.524
43.38,31972.8,34964.2,-0.4536,-0.4307,136.5,96.9,0.524
43.4,31912.6,34934.1,-1.4684,-0.7989,136.5,96.9,0.524
43.42,31870.2,34970.7,-2.1837,-0.3509,136.5,96.9,0.524
43.44,31977.6,34882.6,-0.3731,-1.4296,136.5,96.9,0.524
43.46,32063.7,34835.8,1.0791,-2.0027,136.5,96.9,0.524
43.48,31990.2,34830.3,-0.1605,-2.0697,136.5,96.9,0.524
43.5,32028.9,34990.8,0.4931,-0.1051,136.5,96.9,0.524
43.52,31942.4,35039.3,-0.9655,0.4889,136.5,96.9,0.524
43.54,32022.0,35056.2,0.3759,0.6958,136.5,96.9,0.524
43.56,31944.5,35131.9,-0.931,1.623,136.5,96.9,0.524
43.58,32087.5,35122.9,1.4809,1.5125,136.5,96.9,0.524
43.6,32044.1,35096.5,0.7492,1.1897,136.5,96.9,0.524
43.62,32019.7,35051.3,0.3369,0.6361,136.5,96.9,0.524
43.64,31949.1,35036.8,-0.8536,0.4585,136.5,96.9,0.524
43.66,31997.7,35052.3,-0.0329,0.6488,136.5,96.9,0.524
43.68,32072.3,35020.9,1.2236,0.264,136.5,96.9,0.524
43.7,31952.5,35051.8,-0.7964,0.6421,136.5,96.9,0.524
43.72,31956.1,35012.3,-0.7359,0.158,136.5,96.9,0.524
43.74,32101.5,34951.7,1.7168,-0.5841,136.5,96.9,0.524
43.76,32017.7,34907.1,0.3042,-1.1292,136.5,96.9,0.524
43.78,32001.0,34938.4,0.0215,-0.7467,136.5,96.9,0.524
43.8,32041.0,34901.1,0.6963,-1.2028,136.5,96.9,0.524
43.82,31954.3,34983.2,-0.7652,-0.1981,136.5,96.9,0.524
43.84,31983.3,34936.3,-0.2757,-0.7721,136.5,96.9,0.524
43.86,31917.6,35005.5,-1.3835,0.0755,136.5,96.9,0.524
43.88,32050.4,34955.4,0.8545,-0.5379,136.5,96.9,0.524
43.9,31973.6,35003.5,-0.4407,0.0506,136.5,96.9,0.524
43.92,31899.4,34840.2,-1.6908,-1.9485,136.5,96.9,0.524
43.94,31951.8,34965.3,-0.808,-0.4171,136.5,96.9,0.524
43.96,31911.1,35015.8,-1.4945,0.201,136.5,96.9,0.524
43.98,32085.5,35070.5,1.4469,0.8718,136.5,96.9,0.524
44.0,32040.3,35118.2,0.6843,1.4551,136.5,96.9,0.524
44.02,32031.5,35138.1,0.5363,1.6986,136.5,96.9,0.524
44.04,32124.5,34998.1,2.104,-0.0151,136.5,96.9,0.524
44.06,32112.3,35114.5,1.8983,1.4098,136.5,96.9,0.524
44.08,32020.9,35078.8,0.358,0.9729,136.5,96.9,0.524
44.1,31935.6,35014.4,-1.0811,0.1837,136.5,96.9,0.524
44.12,31992.1,35001.9,-0.1283,0.0305,136.5,96.9,0.524
44.14,31966.1,35031.2,-0.5664,0.3896,136.5,96.9,0.524
44.16,32077.0,34978.4,1.3039,-0.2564,136.5,96.9,0.524
44.18,32004.2,34889.2,0.0765,-1.3486,136.5,96.9,0.524
44.2,31979.4,35001.1,-0.3427,0.0208,136.5,96.9,0.524
44.22,32028.5,35024.3,0.4856,0.306,136.5,96.9,0.524
44.24,31933.6,34930.7,-1.1146,-0.8403,136.5,96.9,0.524
44.26,32014.5,34906.9,0.2502,-1.1324,136.5,96.9,0.524
44.28,31892.7,34822.4,-1.804,-2.1664,136.5,96.9,0.524
44.3,32055.6,35020.3,0.9425,0.2567,136.5,96.9,0.524
44.32,31916.2,34961.7,-1.4072,-0.4612,136.5,96.9,0.524
44.34,32008.8,34903.6,0.153,-1.1729,136.5,96.9,0.524
44.36,32011.8,34871.7,0.2039,-1.563,136.5,96.9,0.524
44.38,32025.4,34954.0,0.4338,-0.5551,136.5,96.9,0.524
44.4,31979.2,35021.6,-0.3452,0.2724,136.5,96.9,0.524
44.42,32030.0,35058.6,0.5107,0.7254,136.5,96.9,0.524
44.44,32042.5,35142.6,0.7227,1.7541,136.5,96.9,0.524
44.46,32109.4,35105.7,1.8496,1.3021,136.5,96.9,0.524
44.48,32145.8,35080.7,2.4643,0.9959,136.5,96.9,0.524
44.5,32049.0,34961.9,0.8321,-0.4581,136.5,96.9,0.524
44.52,31995.7,34989.4,-0.0678,-0.1218,136.5,96.9,0.524
44.54,32096.2,35059.2,1.6275,0.7323,136.5,96.9,0.524
44.56,32043.7,34977.7,0.7418,-0.2652,136.5,96.9,0.524
44.58,32018.1,35020.5,0.3108,0.2587,136.5,96.9,0.524
44.6,31906.7,35042.9,-1.5684,0.5335,136.5,96.9,0.524
44.62,31975.5,35016.6,-0.4073,0.2106,136.5,96.9,0.524
44.64,32112.5,34937.4,1.9024,-0.7584,136.5,96.9,0.524
44.66,31970.2,34889.8,-0.4965,-1.3411,136.5,96.9,0.524
44.68,31973.5,34917.1,-0.4414,-1.007,136.5,96.9,0.524
44.7,31965.8,34900.6,-0.5715,-1.2099,136.5,96.9,0.524
44.72,32017.8,34938.5,0.3048,-0.7457,136.5,96.9,0.524
44.74,32024.9,34902.2,0.4254,-1.1897,136.5,96.9,0.524
44.76,31979.7,35043.3,-0.3371,0.5383,136.5,96.9,0.524
44.78,32010.4,34936.5,0.1803,-0.7698,136.5,96.9,0.524
44.8,31953.9,34927.2,-0.7721,-0.8839,136.5,96.9,0.524
44.82,31974.9,34900.6,-0.4185,-1.2097,136.5,96.9,0.524
44.84,31952.3,34965.6,-0.7999,-0.4138,136.5,96.9,0.524
44.86,32011.7,35040.6,0.2029,0.5049,136.5,96.9,0.524
44.88,32075.0,35095.4,1.2697,1.1755,136.5,96.9,0.524
44.9,32135.5,35071.5,2.2906,0.8835,136.5,96.9,0.524
