timestamp,raw_red,raw_ir,filtered_red,filtered_ir,heart_rate,spo2,ac_dc_ratio
0.0,32113.8,35170.4,1.1904,1.1929,147.4,97.3,0.507
0.02,32285.2,35522.2,1.2013,1.2133,147.4,97.3,0.507
0.04,32333.6,35828.7,1.2043,1.2311,147.4,97.3,0.507
0.06,32401.5,35794.3,1.2086,1.2291,147.4,97.3,0.507
0.08,32204.8,35676.9,1.1962,1.2223,147.4,97.3,0.507
0.1,32080.9,35355.7,1.1883,1.2037,147.4,97.3,0.507
0.12,32053.1,35215.6,1.1866,1.1956,147.4,97.3,0.507
0.14,32072.1,35098.9,1.1878,1.1888,147.4,97.3,0.507
0.16,32089.5,35081.1,1.1889,1.1878,147.4,97.3,0.507
0.18,32035.1,34961.4,1.1854,1.1808,147.4,97.3,0.507
0.2,31918.8,34967.4,1.178,1.1812,147.4,97.3,0.507
0.22,31936.9,34813.6,1.1792,1.1723,147.4,97.3,0.507
0.24,31853.5,34638.4,1.1739,1.1621,147.4,97.3,0.507
0.26,31766.8,34724.2,1.1684,1.1671,147.4,97.3,0.507
0.28,31814.0,34660.6,1.1714,1.1634,147.4,97.3,0.507
0.3,31798.9,34515.3,1.1705,1.155,147.4,97.3,0.507
0.32,31855.9,34612.9,1.1741,1.1606,147.4,97.3,0.507
0.34,31774.0,34529.8,1.1689,1.1558,147.4,97.3,0.507
0.36,31710.3,34488.4,1.1648,1.1534,147.4,97.3,0.507
0.38,31861.0,34697.5,1.1744,1.1655,147.4,97.3,0.507
0.4,32017.7,35005.7,1.1843,1.1834,147.4,97.3,0.507
0.42,32106.5,35393.0,1.1899,1.2058,147.4,97.3,0.507
0.44,32247.2,35721.1,1.1989,1.2249,147.4,97.3,0.507
0.46,32352.1,35818.1,1.2055,1.2305,147.4,97.3,0.507
0.48,32244.3,35634.9,1.1987,1.2199,147.4,97.3,0.507
0.5,32106.3,35524.3,1.1899,1.2134,147.4,97.3,0.507
0.52,32176.5,35314.8,1.1944,1.2013,147.4,97.3,0.507
0.54,32039.2,35121.9,1.1857,1.1901,147.4,97.3,0.507
0.56,32029.6,35043.4,1.1851,1.1856,147.4,97.3,0.507
0.58,32026.0,34975.6,1.1848,1.1817,147.4,97.3,0.507
0.6,31996.3,35039.3,1.183,1.1853,147.4,97.3,0.507
0.62,31987.8,34857.9,1.1824,1.1748,147.4,97.3,0.507
0.64,31823.5,34742.7,1.172,1.1682,147.4,97.3,0.507
0.66,31867.6,34674.6,1.1748,1.1642,147.4,97.3,0.507
0.68,31740.7,34550.8,1.1668,1.157,147.4,97.3,0.507
0.7,31830.3,34663.5,1.1724,1.1636,147.4,97.3,0.507
0.72,31820.2,34562.0,1.1718,1.1577,147.4,97.3,0.507
0.74,31810.9,34463.8,1.1712,1.152,147.4,97.3,0.507
0.76,31764.1,34513.9,1.1682,1.1549,147.4,97.3,0.507
0.78,31830.4,34613.9,1.1724,1.1607,147.4,97.3,0.507
0.8,31944.8,34891.5,1.1797,1.1768,147.4,97.3,0.507
0.82,32058.0,35302.6,1.1869,1.2006,147.4,97.3,0.507
0.84,32284.0,35677.4,1.2012,1.2223,147.4,97.3,0.507
0.86,32420.5,35729.0,1.2098,1.2253,147.4,97.3,0.507
0.88,32361.5,35630.9,1.2061,1.2196,147.4,97.3,0.507
0.9,32294.9,35539.4,1.2019,1.2143,147.4,97.3,0.507
0.92,32171.7,35231.8,1.1941,1.1965,147.4,97.3,0.507
0.94,32113.0,35213.9,1.1904,1.1955,147.4,97.3,0.507
0.96,31974.0,35210.7,1.1815,1.1953,147.4,97.3,0.507
0.98,32085.6,35057.9,1.1886,1.1864,147.4,97.3,0.507
1.0,31973.7,34959.3,1.1815,1.1807,147.4,97.3,0.507
1.02,32014.1,34809.4,1.1841,1.172,147.4,97.3,0.507
1.04,31894.2,34737.3,1.1765,1.1678,147.4,97.3,0.507
1.06,31832.6,34721.4,1.1726,1.1669,147.4,97.3,0.507
1.08,31869.3,34637.9,1.1749,1.1621,147.4,97.3,0.507
1.1,31901.2,34538.4,1.1769,1.1563,147.4,97.3,0.507
1.12,31802.6,34556.2,1.1707,1.1574,147.4,97.3,0.507
1.14,31807.7,34438.2,1.171,1.1505,147.4,97.3,0.507
1.16,31712.8,34450.3,1.165,1.1512,147.4,97.3,0.507
1.18,31745.4,34474.7,1.1671,1.1526,147.4,97.3,0.507
1.2,31827.0,34734.9,1.1722,1.1677,147.4,97.3,0.507
1.22,32119.6,35161.9,1.1908,1.1924,147.4,97.3,0.507
1.24,32157.1,35461.2,1.1932,1.2098,147.4,97.3,0.507
1.26,32371.2,35797.6,1.2067,1.2293,147.4,97.3,0.507
1.28,32414.0,35751.7,1.2094,1.2266,147.4,97.3,0.507
1.3,32286.9,35557.8,1.2014,1.2154,147.4,97.3,0.507
1.32,32110.7,35408.8,1.1902,1.2068,147.4,97.3,0.507
1.34,32124.1,35204.9,1.1911,1.1949,147.4,97.3,0.507
1.36,32058.1,35189.9,1.1869,1.1941,147.4,97.3,0.507
1.38,32097.4,35124.8,1.1894,1.1903,147.4,97.3,0.507
1.4,32015.7,34990.4,1.1842,1.1825,147.4,97.3,0.507
1.42,31935.3,34849.2,1.1791,1.1743,147.4,97.3,0.507
1.44,31867.2,34787.8,1.1748,1.1708,147.4,97.3,0.507
1.46,31800.0,34691.2,1.1705,1.1652,147.4,97.3,0.507
1.48,31959.9,34727.8,1.1807,1.1673,147.4,97.3,0.507
1.5,31846.5,34675.5,1.1735,1.1643,147.4,97.3,0.507
1.52,31836.0,34643.0,1.1728,1.1624,147.4,97.3,0.507
1.54,31820.2,34458.3,1.1718,1.1517,147.4,97.3,0.507
1.56,31628.4,34402.9,1.1596,1.1485,147.4,97.3,0.507
1.58,31777.8,34485.5,1.1691,1.1533,147.4,97.3,0.507
1.6,31873.0,34795.1,1.1751,1.1712,147.4,97.3,0.507
1.62,31984.6,35013.4,1.1822,1.1838,147.4,97.3,0.507
1.64,32144.1,35327.1,1.1923,1.202,147.4,97.3,0.507
1.66,32283.4,35777.3,1.2012,1.2281,147.4,97.3,0.507
1.68,32386.6,35802.2,1.2077,1.2296,147.4,97.3,0.507
1.7,32293.2,35637.4,1.2018,1.22,147.4,97.3,0.507
1.72,32308.3,35446.4,1.2027,1.2089,147.4,97.3,0.507
1.74,32186.8,35318.4,1.195,1.2015,147.4,97.3,0.507
1.76,32094.7,35136.4,1.1892,1.191,147.4,97.3,0.507
1.78,32073.4,35026.7,1.1878,1.1846,147.4,97.3,0.507
1.8,32037.9,35024.7,1.1856,1.1845,147.4,97.3,0.507
1.82,31901.6,34970.1,1.177,1.1813,147.4,97.3,0.507
1.84,31930.7,34828.3,1.1788,1.1731,147.4,97.3,0.507
1.86,31924.6,34695.9,1.1784,1.1654,147.4,97.3,0.507
1.88,31893.1,34655.4,1.1764,1.1631,147.4,97.3,0.507
1.9,31922.7,34667.3,1.1783,1.1638,147.4,97.3,0.507
1.92,31872.9,34606.1,1.1751,1.1602,147.4,97.3,0.507
1.94,31834.9,34544.0,1.1727,1.1566,147.4,97.3,0.507
1.96,31682.3,34433.7,1.1631,1.1503,147.4,97.3,0.507
1.98,31811.6,34500.2,1.1713,1.1541,147.4,97.3,0.507
2.0,31939.7,34615.2,1.1794,1.1608,147.4,97.3,0.507
2.02,31965.8,34902.0,1.181,1.1774,147.4,97.3,0.507
2.04,32130.4,35340.4,1.1915,1.2028,147.4,97.3,0.507
2.06,32310.3,35637.3,1.2029,1.22,147.4,97.3,0.507
2.08,32303.4,35784.2,1.2024,1.2285,147.4,97.3,0.507
2.1,32283.1,35642.4,1.2011,1.2203,147.4,97.3,0.507
2.12,32246.1,35582.6,1.1988,1.2168,147.4,97.3,0.507
2.14,32171.6,35340.4,1.1941,1.2028,147.4,97.3,0.507
2.16,32103.5,35184.4,1.1898,1.1937,147.4,97.3,0.507
2.18,32001.0,35140.1,1.1833,1.1912,147.4,97.3,0.507
2.2,32050.9,35120.2,1.1864,1.19,147.4,97.3,0.507
2.22,32072.7,35041.9,1.1878,1.1855,147.4,97.3,0.507
2.24,31890.7,34898.3,1.1763,1.1772,147.4,97.3,0.507
2.26,31945.2,34762.2,1.1797,1.1693,147.4,97.3,0.507
2.28,31893.9,34689.5,1.1765,1.1651,147.4,97.3,0.507
2.3,31818.7,34701.4,1.1717,1.1658,147.4,97.3,0.507
2.32,31899.7,34703.9,1.1768,1.1659,147.4,97.3,0.507
2.34,31752.0,34611.9,1.1675,1.1606,147.4,97.3,0.507
2.36,31812.7,34549.2,1.1713,1.1569,147.4,97.3,0.507
2.38,31794.6,34361.3,1.1702,1.1461,147.4,97.3,0.507
2.4,31754.3,34559.7,1.1676,1.1576,147.4,97.3,0.507
2.42,31947.8,34682.9,1.1799,1.1647,147.4,97.3,0.507
2.44,32121.3,35175.6,1.1909,1.1932,147.4,97.3,0.507
2.46,32237.0,35531.2,1.1982,1.2138,147.4,97.3,0.507
2.48,32427.8,35681.7,1.2103,1.2226,147.4,97.3,0.507
2.5,32372.2,35778.3,1.2068,1.2282,147.4,97.3,0.507
2.52,32347.8,35604.6,1.2052,1.2181,147.4,97.3,0.507
2.54,32148.0,35434.6,1.1926,1.2082,147.4,97.3,0.507
2.56,32097.7,35190.5,1.1894,1.1941,147.4,97.3,0.507
2.58,32043.9,35285.3,1.186,1.1996,147.4,97.3,0.507
2.6,32066.2,35128.3,1.1874,1.1905,147.4,97.3,0.507
2.62,31905.9,34989.5,1.1772,1.1825,147.4,97.3,0.507
2.64,31890.7,34951.7,1.1763,1.1803,147.4,97.3,0.507
2.66,31924.4,34710.3,1.1784,1.1663,147.4,97.3,0.507
2.68,31767.3,34734.8,1.1684,1.1677,147.4,97.3,0.507
2.7,31779.7,34616.0,1.1692,1.1608,147.4,97.3,0.507
2.72,31895.2,34749.3,1.1766,1.1685,147.4,97.3,0.507
2.74,31831.6,34606.2,1.1725,1.1602,147.4,97.3,0.507
2.76,31802.6,34534.7,1.1707,1.1561,147.4,97.3,0.507
2.78,31771.0,34443.4,1.1687,1.1508,147.4,97.3,0.507
2.8,31801.2,34398.3,1.1706,1.1482,147.4,97.3,0.507
2.82,31851.2,34663.1,1.1738,1.1635,147.4,97.3,0.507
2.84,32002.4,35043.6,1.1833,1.1856,147.4,97.3,0.507
2.86,32256.2,35291.5,1.1994,1.2,147.4,97.3,0.507
2.88,32250.8,35611.9,1.1991,1.2185,147.4,97.3,0.507
2.9,32310.1,35801.2,1.2029,1.2295,147.4,97.3,0.507
2.92,32299.8,35747.0,1.2022,1.2264,147.4,97.3,0.507
2.94,32232.4,35563.2,1.1979,1.2157,147.4,97.3,0.507
2.96,32144.1,35170.3,1.1923,1.1929,147.4,97.3,0.507
2.98,32085.0,35168.1,1.1886,1.1928,147.4,97.3,0.507
3.0,32003.5,35055.9,1.1834,1.1863,147.4,97.3,0.507
3.02,32008.9,35103.0,1.1838,1.189,147.4,97.3,0.507
3.04,31935.8,34906.4,1.1791,1.1776,147.4,97.3,0.507
3.06,31941.2,34802.7,1.1795,1.1716,147.4,97.3,0.507
3.08,31939.5,34712.8,1.1794,1.1664,147.4,97.3,0.507
3.1,31886.6,34746.2,1.176,1.1684,147.4,97.3,0.507
3.12,31902.8,34637.4,1.177,1.1621,147.4,97.3,0.507
3.14,31769.9,34679.7,1.1686,1.1645,147.4,97.3,0.507
3.16,31864.9,34543.8,1.1746,1.1566,147.4,97.3,0.507
3.18,31764.7,34518.4,1.1683,1.1552,147.4,97.3,0.507
3.2,31737.0,34422.7,1.1665,1.1496,147.4,97.3,0.507
3.22,31844.4,34658.5,1.1733,1.1633,147.4,97.3,0.507
3.24,31910.7,34772.0,1.1775,1.1699,147.4,97.3,0.507
3.26,32165.0,35271.9,1.1937,1.1988,147.4,97.3,0.507
3.28,32315.3,35530.9,1.2032,1.2138,147.4,97.3,0.507
3.3,32373.7,35729.7,1.2069,1.2253,147.4,97.3,0.507
3.32,32338.7,35646.1,1.2047,1.2205,147.4,97.3,0.507
3.34,32246.4,35585.2,1.1988,1.217,147.4,97.3,0.507
3.36,32136.2,35368.1,1.1918,1.2044,147.4,97.3,0.507
3.38,32171.1,35171.7,1.194,1.193,147.4,97.3,0.507
3.4,32091.1,35054.6,1.189,1.1862,147.4,97.3,0.507
3.42,32027.9,34995.2,1.185,1.1828,147.4,97.3,0.507
3.44,32020.4,35080.0,1.1845,1.1877,147.4,97.3,0.507
3.46,31884.0,34913.2,1.1758,1.178,147.4,97.3,0.507
3.48,31898.7,34761.9,1.1768,1.1693,147.4,97.3,0.507
3.5,31835.4,34711.9,1.1728,1.1664,147.4,97.3,0.507
3.52,31876.2,34672.8,1.1754,1.1641,147.4,97.3,0.507
3.54,31845.5,34655.4,1.1734,1.1631,147.4,97.3,0.507
3.56,31803.3,34653.2,1.1707,1.163,147.4,97.3,0.507
3.58,31753.6,34522.3,1.1676,1.1554,147.4,97.3,0.507
3.6,31820.3,34375.5,1.1718,1.1469,147.4,97.3,0.507
3.62,31758.3,34461.4,1.1679,1.1519,147.4,97.3,0.507
3.64,31983.2,34795.7,1.1821,1.1712,147.4,97.3,0.507
3.66,32045.5,35238.9,1.1861,1.1969,147.4,97.3,0.507
3.68,32223.7,35629.6,1.1974,1.2195,147.4,97.3,0.507
3.7,32359.0,35669.4,1.206,1.2219,147.4,97.3,0.507
3.72,32348.8,35780.8,1.2053,1.2283,147.4,97.3,0.507
3.74,32276.7,35659.5,1.2007,1.2213,147.4,97.3,0.507
3.76,32192.9,35443.7,1.1954,1.2088,147.4,97.3,0.507
3.78,32143.7,35245.0,1.1923,1.1973,147.4,97.3,0.507
3.8,32185.6,35162.7,1.195,1.1925,147.4,97.3,0.507
3.82,32137.1,35093.1,1.1919,1.1885,147.4,97.3,0.507
3.84,32090.2,35019.8,1.1889,1.1842,147.4,97.3,0.507
3.86,31983.6,34905.6,1.1822,1.1776,147.4,97.3,0.507
3.88,31935.8,34794.1,1.1791,1.1711,147.4,97.3,0.507
3.9,31775.8,34798.7,1.169,1.1714,147.4,97.3,0.507
3.92,31770.9,34603.5,1.1687,1.1601,147.4,97.3,0.507
3.94,31816.9,34628.1,1.1716,1.1615,147.4,97.3,0.507
3.96,31846.2,34638.0,1.1734,1.1621,147.4,97.3,0.507
3.98,31754.0,34592.0,1.1676,1.1594,147.4,97.3,0.507
4.0,31830.5,34524.2,1.1725,1.1555,147.4,97.3,0.507
4.02,31773.3,34475.1,1.1688,1.1526,147.4,97.3,0.507
4.04,31847.4,34706.6,1.1735,1.1661,147.4,97.3,0.507
4.06,31990.6,35010.7,1.1826,1.1837,147.4,97.3,0.507
4.08,32128.8,35450.9,1.1914,1.2092,147.4,97.3,0.507
4.1,32339.5,35678.9,1.2047,1.2224,147.4,97.3,0.507
4.12,32322.5,35702.8,1.2036,1.2238,147.4,97.3,0.507
4.14,32363.9,35740.2,1.2063,1.226,147.4,97.3,0.507
4.16,32218.2,35459.1,1.197,1.2097,147.4,97.3,0.507
4.18,32147.0,35222.2,1.1925,1.1959,147.4,97.3,0.507
4.2,32058.7,35181.7,1.1869,1.1936,147.4,97.3,0.507
4.22,32060.4,35113.7,1.187,1.1897,147.4,97.3,0.507
4.24,32024.8,35053.5,1.1848,1.1862,147.4,97.3,0.507
4.26,31976.4,35029.5,1.1817,1.1848,147.4,97.3,0.507
4.28,31929.5,34863.1,1.1787,1.1751,147.4,97.3,0.507
4.3,31940.3,34693.5,1.1794,1.1653,147.4,97.3,0.507
4.32,31772.5,34705.4,1.1688,1.166,147.4,97.3,0.507
4.34,31834.3,34625.9,1.1727,1.1614,147.4,97.3,0.507
4.36,31719.6,34642.3,1.1654,1.1623,147.4,97.3,0.507
4.38,31747.0,34526.0,1.1672,1.1556,147.4,97.3,0.507
4.4,31817.6,34579.5,1.1716,1.1587,147.4,97.3,0.507
4.42,31737.8,34377.4,1.1666,1.147,147.4,97.3,0.507
4.44,31806.0,34535.0,1.1709,1.1561,147.4,97.3,0.507
4.46,31935.9,34941.5,1.1791,1.1797,147.4,97.3,0.507
4.48,32096.2,35244.7,1.1893,1.1972,147.4,97.3,0.507
4.5,32324.7,35587.5,1.2038,1.2171,147.4,97.3,0.507
4.52,32357.7,35791.7,1.2059,1.2289,147.4,97.3,0.507
4.54,32371.7,35642.9,1.2068,1.2203,147.4,97.3,0.507
4.56,32148.9,35556.2,1.1926,1.2153,147.4,97.3,0.507
4.58,32155.6,35405.6,1.1931,1.2066,147.4,97.3,0.507
4.6,32064.0,35196.1,1.1873,1.1944,147.4,97.3,0.507
4.62,32051.7,35137.7,1.1865,1.191,147.4,97.3,0.507
4.64,31976.6,35083.0,1.1817,1.1879,147.4,97.3,0.507
4.66,32055.9,34967.8,1.1867,1.1812,147.4,97.3,0.507
4.68,31929.2,34907.2,1.1787,1.1777,147.4,97.3,0.507
4.7,31791.3,34735.8,1.17,1.1678,147.4,97.3,0.507
4.72,31720.8,34692.5,1.1655,1.1652,147.4,97.3,0.507
4.74,31785.9,34638.9,1.1696,1.1621,147.4,97.3,0.507
4.76,31761.8,34636.9,1.1681,1.162,147.4,97.3,0.507
4.78,31746.9,34484.1,1.1672,1.1532,147.4,97.3,0.507
4.8,31876.5,34628.0,1.1754,1.1615,147.4,97.3,0.507
4.82,31747.5,34506.7,1.1672,1.1545,147.4,97.3,0.507
4.84,31735.6,34567.8,1.1664,1.158,147.4,97.3,0.507
4.86,31905.4,34640.8,1.1772,1.1623,147.4,97.3,0.507
4.88,32153.8,35094.5,1.1929,1.1885,147.4,97.3,0.507
4.9,32216.7,35404.0,1.1969,1.2065,147.4,97.3,0.507
4.92,32341.1,35696.6,1.2048,1.2234,147.4,97.3,0.507
4.94,32319.6,35763.5,1.2035,1.2273,147.4,97.3,0.507
4.96,32340.2,35567.4,1.2048,1.2159,147.4,97.3,0.507
4.98,32213.6,35408.7,1.1967,1.2067,147.4,97.3,0.507
5.0,32095.5,35252.1,1.1892,1.1977,147.4,97.3,0.507
5.02,32053.0,35162.6,1.1866,1.1925,147.4,97.3,0.507
5.04,32110.3,35195.3,1.1902,1.1944,147.4,97.3,0.507
5.06,31898.0,35018.6,1.1767,1.1841,147.4,97.3,0.507
5.08,31974.7,34795.0,1.1816,1.1712,147.4,97.3,0.507
5.1,31920.0,34852.3,1.1781,1.1745,147.4,97.3,0.507
5.12,31860.7,34663.0,1.1744,1.1635,147.4,97.3,0.507
5.14,31846.5,34664.8,1.1735,1.1636,147.4,97.3,0.507
5.16,31820.9,34689.9,1.1718,1.1651,147.4,97.3,0.507
5.18,31772.5,34616.1,1.1688,1.1608,147.4,97.3,0.507
5.2,31769.4,34605.5,1.1686,1.1602,147.4,97.3,0.507
5.22,31733.9,34608.4,1.1663,1.1604,147.4,97.3,0.507
5.24,31798.1,34520.7,1.1704,1.1553,147.4,97.3,0.507
5.26,31839.6,34634.3,1.173,1.1619,147.4,97.3,0.507
5.28,31940.2,34941.1,1.1794,1.1796,147.4,97.3,0.507
5.3,32238.0,35344.2,1.1983,1.203,147.4,97.3,0.507
5.32,32286.3,35665.5,1.2013,1.2216,147.4,97.3,0.507
5.34,32353.6,35618.3,1.2056,1.2189,147.4,97.3,0.507
5.36,32345.0,35620.7,1.2051,1.219,147.4,97.3,0.507
5.38,32229.9,35490.6,1.1978,1.2115,147.4,97.3,0.507
5.4,32136.4,35278.3,1.1918,1.1992,147.4,97.3,0.507
5.42,32075.9,35124.2,1.188,1.1903,147.4,97.3,0.507
5.44,32026.9,35071.1,1.1849,1.1872,147.4,97.3,0.507
5.46,32033.9,35025.0,1.1853,1.1845,147.4,97.3,0.507
5.48,31997.0,34934.9,1.183,1.1793,147.4,97.3,0.507
5.5,31996.1,34805.9,1.1829,1.1718,147.4,97.3,0.507
5.52,31913.2,34750.0,1.1777,1.1686,147.4,97.3,0.507
5.54,31855.9,34758.0,1.1741,1.169,147.4,97.3,0.507
5.56,31870.1,34656.4,1.175,1.1632,147.4,97.3,0.507
5.58,31889.4,34602.0,1.1762,1.16,147.4,97.3,0.507
5.6,31836.8,34612.0,1.1728,1.1606,147.4,97.3,0.507
5.62,31728.1,34475.4,1.166,1.1527,147.4,97.3,0.507
5.64,31718.8,34400.5,1.1654,1.1483,147.4,97.3,0.507
5.66,31826.1,34464.1,1.1722,1.152,147.4,97.3,0.507
5.68,31924.8,34817.0,1.1784,1.1725,147.4,97.3,0.507
5.7,32106.4,35256.1,1.1899,1.1979,147.4,97.3,0.507
5.72,32265.5,35531.2,1.2,1.2138,147.4,97.3,0.507
5.74,32234.8,35739.7,1.1981,1.2259,147.4,97.3,0.507
5.76,32323.6,35699.0,1.2037,1.2236,147.4,97.3,0.507
5.78,32200.0,35567.7,1.1959,1.216,147.4,97.3,0.507
5.8,32093.7,35375.1,1.1891,1.2048,147.4,97.3,0.507
5.82,32081.0,35178.9,1.1883,1.1934,147.4,97.3,0.507
5.84,32100.9,35184.8,1.1896,1.1938,147.4,97.3,0.507
5.86,32016.2,35045.3,1.1842,1.1857,147.4,97.3,0.507
5.88,32048.5,34983.9,1.1863,1.1821,147.4,97.3,0.507
5.9,31890.6,34892.8,1.1763,1.1769,147.4,97.3,0.507
5.92,31966.5,34788.5,1.1811,1.1708,147.4,97.3,0.507
5.94,31928.0,34683.8,1.1786,1.1647,147.4,97.3,0.507
5.96,31783.6,34762.3,1.1695,1.1693,147.4,97.3,0.507
5.98,31926.9,34640.7,1.1786,1.1622,147.4,97.3,0.507
6.0,31875.3,34625.8,1.1753,1.1614,147.4,97.3,0.507
6.02,31764.6,34423.5,1.1683,1.1497,147.4,97.3,0.507
6.04,31715.9,34442.0,1.1652,1.1507,147.4,97.3,0.507
6.06,31747.9,34521.8,1.1672,1.1554,147.4,97.3,0.507
6.08,31858.2,34751.7,1.1742,1.1687,147.4,97.3,0.507
6.1,32097.6,35126.8,1.1894,1.1904,147.4,97.3,0.507
6.12,32207.1,35395.4,1.1963,1.206,147.4,97.3,0.507
6.14,32289.7,35767.1,1.2016,1.2275,147.4,97.3,0.507
6.16,32341.6,35851.4,1.2048,1.2324,147.4,97.3,0.507
6.18,32226.3,35705.9,1.1975,1.224,147.4,97.3,0.507
6.2,32209.6,35366.6,1.1965,1.2043,147.4,97.3,0.507
6.22,32041.3,35233.7,1.1858,1.1966,147.4,97.3,0.507
6.24,32035.5,35159.2,1.1854,1.1923,147.4,97.3,0.507
6.26,31940.3,35116.4,1.1794,1.1898,147.4,97.3,0.507
6.28,31973.5,34940.0,1.1815,1.1796,147.4,97.3,0.507
6.3,31907.9,34902.7,1.1774,1.1774,147.4,97.3,0.507
6.32,31921.1,34869.3,1.1782,1.1755,147.4,97.3,0.507
6.34,31862.8,34646.9,1.1745,1.1626,147.4,97.3,0.507
6.36,31863.8,34764.3,1.1746,1.1694,147.4,97.3,0.507
6.38,31780.1,34651.0,1.1693,1.1628,147.4,97.3,0.507
6.4,31834.0,34602.5,1.1727,1.16,147.4,97.3,0.507
6.42,31807.4,34526.2,1.171,1.1556,147.4,97.3,0.507
6.44,31754.3,34548.8,1.1676,1.1569,147.4,97.3,0.507
6.46,31718.4,34547.1,1.1653,1.1568,147.4,97.3,0.507
6.48,31891.2,34639.6,1.1763,1.1622,147.4,97.3,0.507
6.5,32000.8,34956.5,1.1832,1.1805,147.4,97.3,0.507
6.52,32179.8,35343.2,1.1946,1.203,147.4,97.3,0.507
6.54,32258.0,35540.5,1.1995,1.2144,147.4,97.3,0.507
6.56,32391.1,35770.0,1.208,1.2277,147.4,97.3,0.507
6.58,32334.2,35694.6,1.2044,1.2233,147.4,97.3,0.507
6.6,32217.7,35501.7,1.197,1.2121,147.4,97.3,0.507
6.62,32157.8,35141.6,1.1932,1.1913,147.4,97.3,0.507
6.64,32007.9,35168.5,1.1837,1.1928,147.4,97.3,0.507
6.66,31987.6,35099.7,1.1824,1.1888,147.4,97.3,0.507
6.68,32057.4,35080.2,1.1868,1.1877,147.4,97.3,0.507
6.7,31968.2,34901.3,1.1812,1.1773,147.4,97.3,0.507
6.72,31949.7,34909.8,1.18,1.1778,147.4,97.3,0.507
6.74,31833.0,34713.1,1.1726,1.1664,147.4,97.3,0.507
6.76,31787.2,34597.9,1.1697,1.1598,147.4,97.3,0.507
6.78,31672.3,34633.3,1.1624,1.1618,147.4,97.3,0.507
6.8,31846.8,34628.8,1.1735,1.1616,147.4,97.3,0.507
6.82,31779.6,34616.5,1.1692,1.1608,147.4,97.3,0.507
6.84,31791.9,34519.7,1.17,1.1552,147.4,97.3,0.507
6.86,31709.6,34414.1,1.1648,1.1491,147.4,97.3,0.507
6.88,31779.1,34505.5,1.1692,1.1544,147.4,97.3,0.507
6.9,32015.7,34862.1,1.1842,1.1751,147.4,97.3,0.507
6.92,32054.6,35209.1,1.1867,1.1952,147.4,97.3,0.507
6.94,32284.1,35473.0,1.2012,1.2105,147.4,97.3,0.507
6.96,32389.7,35766.9,1.2079,1.2275,147.4,97.3,0.507
6.98,32377.4,35634.9,1.2071,1.2199,147.4,97.3,0.507
7.0,32285.2,35523.7,1.2013,1.2134,147.4,97.3,0.507
7.02,32158.1,35415.9,1.1932,1.2072,147.4,97.3,0.507
7.04,32206.6,35188.7,1.1963,1.194,147.4,97.3,0.507
7.06,32101.9,35032.7,1.1897,1.185,147.4,97.3,0.507
7.08,32059.2,35139.1,1.187,1.1911,147.4,97.3,0.507
7.1,31950.0,35050.0,1.18,1.186,147.4,97.3,0.507
7.12,31886.2,34927.3,1.176,1.1789,147.4,97.3,0.507
7.14,31894.7,34780.9,1.1765,1.1704,147.4,97.3,0.507
7.16,31827.7,34649.2,1.1723,1.1627,147.4,97.3,0.507
7.18,31829.4,34709.4,1.1724,1.1662,147.4,97.3,0.507
7.2,31826.3,34589.9,1.1722,1.1593,147.4,97.3,0.507
7.22,31803.7,34573.1,1.1708,1.1583,147.4,97.3,0.507
7.24,31774.3,34474.9,1.1689,1.1526,147.4,97.3,0.507
7.26,31700.0,34508.5,1.1642,1.1546,147.4,97.3,0.507
7.28,31847.8,34539.1,1.1735,1.1564,147.4,97.3,0.507
7.3,31870.5,34723.0,1.175,1.167,147.4,97.3,0.507
7.32,32080.5,35100.2,1.1883,1.1889,147.4,97.3,0.507
7.34,32065.9,35518.3,1.1874,1.2131,147.4,97.3,0.507
7.36,32320.1,35645.6,1.2035,1.2205,147.4,97.3,0.507
7.38,32388.8,35745.8,1.2078,1.2263,147.4,97.3,0.507
7.4,32266.0,35563.6,1.2001,1.2157,147.4,97.3,0.507
7.42,32244.6,35451.8,1.1987,1.2092,147.4,97.3,0.507
7.44,32151.5,35265.1,1.1928,1.1984,147.4,97.3,0.507
7.46,32067.2,35098.2,1.1875,1.1888,147.4,97.3,0.507
7.48,32035.0,35177.9,1.1854,1.1934,147.4,97.3,0.507
7.5,32062.6,35066.3,1.1872,1.1869,147.4,97.3,0.507
7.52,31982.2,34873.2,1.1821,1.1757,147.4,97.3,0.507
7.54,31964.6,34782.7,1.181,1.1705,147.4,97.3,0.507
7.56,31860.3,34733.9,1.1743,1.1676,147.4,97.3,0.507
7.58,31835.1,34702.9,1.1727,1.1658,147.4,97.3,0.507
7.6,31788.2,34708.9,1.1698,1.1662,147.4,97.3,0.507
7.62,31808.4,34561.7,1.1711,1.1577,147.4,97.3,0.507
7.64,31771.4,34599.2,1.1687,1.1598,147.4,97.3,0.507
7.66,31796.2,34371.9,1.1703,1.1467,147.4,97.3,0.507
7.68,31711.7,34488.5,1.1649,1.1534,147.4,97.3,0.507
7.7,31950.7,34667.2,1.1801,1.1638,147.4,97.3,0.507
7.72,32124.3,34999.3,1.1911,1.183,147.4,97.3,0.507
7.74,32103.4,35298.9,1.1897,1.2004,147.4,97.3,0.507
7.76,32293.3,35608.5,1.2018,1.2183,147.4,97.3,0.507
7.78,32325.1,35730.8,1.2038,1.2254,147.4,97.3,0.507
7.8,32309.6,35614.5,1.2028,1.2187,147.4,97.3,0.507
7.82,32309.2,35520.6,1.2028,1.2132,147.4,97.3,0.507
7.84,32137.6,35360.7,1.1919,1.204,147.4,97.3,0.507
7.86,32071.0,35142.9,1.1877,1.1913,147.4,97.3,0.507
7.88,31950.7,35148.9,1.1801,1.1917,147.4,97.3,0.507
7.9,31993.7,35087.3,1.1828,1.1881,147.4,97.3,0.507
7.92,31988.5,35007.5,1.1825,1.1835,147.4,97.3,0.507
7.94,32022.6,34881.1,1.1846,1.1762,147.4,97.3,0.507
7.96,31950.3,34744.3,1.18,1.1682,147.4,97.3,0.507
7.98,31895.8,34760.8,1.1766,1.1692,147.4,97.3,0.507
8.0,31886.1,34608.0,1.176,1.1604,147.4,97.3,0.507
8.02,31841.5,34588.9,1.1731,1.1592,147.4,97.3,0.507
8.04,31886.1,34602.6,1.176,1.16,147.4,97.3,0.507
8.06,31766.6,34421.9,1.1684,1.1496,147.4,97.3,0.507
8.08,31709.8,34463.1,1.1648,1.152,147.4,97.3,0.507
8.1,31830.8,34563.6,1.1725,1.1578,147.4,97.3,0.507
8.12,31885.6,34820.0,1.1759,1.1726,147.4,97.3,0.507
8.14,32138.3,35160.7,1.192,1.1924,147.4,97.3,0.507
8.16,32256.1,35499.5,1.1994,1.212,147.4,97.3,0.507
8.18,32331.0,35741.9,1.2042,1.2261,147.4,97.3,0.507
8.2,32360.1,35702.7,1.206,1.2238,147.4,97.3,0.507
8.22,32233.1,35666.9,1.198,1.2217,147.4,97.3,0.507
8.24,32183.6,35474.3,1.1948,1.2105,147.4,97.3,0.507
8.26,32038.0,35271.3,1.1856,1.1988,147.4,97.3,0.507
8.28,32072.5,35141.4,1.1878,1.1913,147.4,97.3,0.507
8.3,32004.7,34922.8,1.1835,1.1786,147.4,97.3,0.507
8.32,31932.1,35042.6,1.1789,1.1855,147.4,97.3,0.507
8.34,31928.5,34930.2,1.1787,1.179,147.4,97.3,0.507
8.36,31929.0,34812.9,1.1787,1.1722,147.4,97.3,0.507
8.38,31860.5,34703.4,1.1744,1.1659,147.4,97.3,0.507
8.4,31903.8,34643.1,1.1771,1.1624,147.4,97.3,0.507
8.42,31874.0,34725.0,1.1752,1.1671,147.4,97.3,0.507
8.44,31737.1,34712.1,1.1665,1.1664,147.4,97.3,0.507
8.46,31725.1,34503.7,1.1658,1.1543,147.4,97.3,0.507
8.48,31763.1,34404.5,1.1682,1.1486,147.4,97.3,0.507
8.5,31813.7,34418.2,1.1714,1.1494,147.4,97.3,0.507
8.52,31826.8,34706.6,1.1722,1.1661,147.4,97.3,0.507
8.54,31980.7,35060.8,1.182,1.1866,147.4,97.3,0.507
8.56,32190.5,35424.4,1.1953,1.2077,147.4,97.3,0.507
8.58,32386.7,35709.1,1.2077,1.2242,147.4,97.3,0.507
8.6,32437.6,35781.9,1.2109,1.2284,147.4,97.3,0.507
8.62,32316.4,35703.3,1.2032,1.2238,147.4,97.3,0.507
8.64,32225.7,35391.1,1.1975,1.2057,147.4,97.3,0.507
8.66,32092.9,35236.9,1.1891,1.1968,147.4,97.3,0.507
8.68,32023.7,35120.7,1.1847,1.1901,147.4,97.3,0.507
8.7,31989.6,35052.0,1.1825,1.1861,147.4,97.3,0.507
8.72,32043.9,35012.8,1.186,1.1838,147.4,97.3,0.507
8.74,31841.5,34817.4,1.1731,1.1725,147.4,97.3,0.507
8.76,31931.2,34867.9,1.1788,1.1754,147.4,97.3,0.507
8.78,32002.5,34623.7,1.1834,1.1613,147.4,97.3,0.507
8.8,31838.2,34598.7,1.1729,1.1598,147.4,97.3,0.507
8.82,31811.8,34634.4,1.1713,1.1619,147.4,97.3,0.507
8.84,31872.0,34649.6,1.1751,1.1628,147.4,97.3,0.507
8.86,31887.8,34619.1,1.1761,1.161,147.4,97.3,0.507
8.88,31696.2,34543.7,1.1639,1.1566,147.4,97.3,0.507
8.9,31804.3,34413.1,1.1708,1.1491,147.4,97.3,0.507
8.92,31794.8,34585.6,1.1702,1.1591,147.4,97.3,0.507
8.94,31939.9,34873.3,1.1794,1.1757,147.4,97.3,0.507
8.96,32066.2,35175.0,1.1874,1.1932,147.4,97.3,0.507
8.98,32307.2,35699.2,1.2027,1.2236,147.4,97.3,0.507
9.0,32328.5,35711.8,1.204,1.2243,147.4,97.3,0.507
9.02,32313.1,35747.7,1.203,1.2264,147.4,97.3,0.507
9.04,32301.9,35608.8,1.2023,1.2183,147.4,97.3,0.507
9.06,32105.5,35352.2,1.1899,1.2035,147.4,97.3,0.507
9.08,32113.6,35166.1,1.1904,1.1927,147.4,97.3,0.507
9.1,32068.6,35083.6,1.1875,1.1879,147.4,97.3,0.507
9.12,32016.7,34968.4,1.1843,1.1812,147.4,97.3,0.507
9.14,31985.8,35041.7,1.1823,1.1855,147.4,97.3,0.507
9.16,31964.2,34837.7,1.1809,1.1737,147.4,97.3,0.507
9.18,31916.7,34746.1,1.1779,1.1684,147.4,97.3,0.507
9.2,31920.9,34713.6,1.1782,1.1665,147.4,97.3,0.507
9.22,31863.2,34619.1,1.1745,1.161,147.4,97.3,0.507
9.24,31879.7,34663.2,1.1756,1.1635,147.4,97.3,0.507
9.26,31819.7,34604.7,1.1718,1.1602,147.4,97.3,0.507
9.28,31750.0,34481.9,1.1674,1.153,147.4,97.3,0.507
9.3,31724.1,34508.0,1.1657,1.1546,147.4,97.3,0.507
9.32,31794.7,34482.0,1.1702,1.153,147.4,97.3,0.507
9.34,31932.7,34733.4,1.1789,1.1676,147.4,97.3,0.507
9.36,32019.5,35212.3,1.1844,1.1954,147.4,97.3,0.507
9.38,32227.5,35518.3,1.1976,1.2131,147.4,97.3,0.507
9.4,32298.5,35831.1,1.2021,1.2312,147.4,97.3,0.507
9.42,32349.2,35776.8,1.2053,1.2281,147.4,97.3,0.507
9.44,32191.1,35564.7,1.1953,1.2158,147.4,97.3,0.507
9.46,32206.6,35383.6,1.1963,1.2053,147.4,97.3,0.507
9.48,32123.1,35162.9,1.191,1.1925,147.4,97.3,0.507
9.5,32051.1,35196.4,1.1864,1.1944,147.4,97.3,0.507
9.52,32074.3,35116.0,1.1879,1.1898,147.4,97.3,0.507
9.54,32012.8,34925.2,1.184,1.1787,147.4,97.3,0.507
9.56,31965.2,34836.9,1.181,1.1736,147.4,97.3,0.507
9.58,31915.8,34798.4,1.1779,1.1714,147.4,97.3,0.507
9.6,31861.0,34718.5,1.1744,1.1668,147.4,97.3,0.507
9.62,31854.6,34629.0,1.174,1.1616,147.4,97.3,0.507
9.64,31815.3,34759.3,1.1715,1.1691,147.4,97.3,0.507
9.66,31776.3,34577.9,1.169,1.1586,147.4,97.3,0.507
9.68,31758.1,34569.2,1.1679,1.1581,147.4,97.3,0.507
9.7,31804.8,34456.6,1.1708,1.1516,147.4,97.3,0.507
9.72,31779.7,34482.9,1.1692,1.1531,147.4,97.3,0.507
9.74,31866.0,34671.4,1.1747,1.164,147.4,97.3,0.507
9.76,32002.4,34983.4,1.1833,1.1821,147.4,97.3,0.507
9.78,32208.6,35379.9,1.1964,1.2051,147.4,97.3,0.507
9.8,32255.1,35649.4,1.1994,1.2207,147.4,97.3,0.507
9.82,32328.0,35769.4,1.204,1.2276,147.4,97.3,0.507
9.84,32303.5,35661.9,1.2024,1.2214,147.4,97.3,0.507
9.86,32232.2,35411.8,1.1979,1.2069,147.4,97.3,0.507
9.88,32149.6,35308.2,1.1927,1.2009,147.4,97.3,0.507
9.9,32136.8,35097.3,1.1919,1.1887,147.4,97.3,0.507
9.92,32060.2,35084.6,1.187,1.188,147.4,97.3,0.507
9.94,31990.3,35066.7,1.1826,1.1869,147.4,97.3,0.507
9.96,31947.6,35010.0,1.1799,1.1836,147.4,97.3,0.507
9.98,31933.9,34829.5,1.179,1.1732,147.4,97.3,0.507
10.0,31921.0,34642.0,1.1782,1.1623,147.4,97.3,0.507
10.02,31894.5,34677.1,1.1765,1.1644,147.4,97.3,0.507
10.04,31824.8,34606.5,1.1721,1.1603,147.4,97.3,0.507
10.06,31791.7,34678.9,1.17,1.1645,147.4,97.3,0.507
10.08,31845.0,34582.8,1.1734,1.1589,147.4,97.3,0.507
10.1,31769.9,34515.6,1.1686,1.155,147.4,97.3,0.507
10.12,31884.8,34482.3,1.1759,1.1531,147.4,97.3,0.507
10.14,31793.0,34615.0,1.1701,1.1608,147.4,97.3,0.507
10.16,31972.7,34951.0,1.1815,1.1802,147.4,97.3,0.507
10.18,32063.8,35309.1,1.1872,1.201,147.4,97.3,0.507
10.2,32312.3,35680.9,1.203,1.2225,147.4,97.3,0.507
10.22,32358.6,35833.7,1.2059,1.2314,147.4,97.3,0.507
10.24,32316.8,35723.6,1.2033,1.225,147.4,97.3,0.507
10.26,32240.7,35542.4,1.1985,1.2145,147.4,97.3,0.507
10.28,32076.9,35312.7,1.1881,1.2012,147.4,97.3,0.507
10.3,32141.8,35211.2,1.1922,1.1953,147.4,97.3,0.507
10.32,32080.0,35116.9,1.1883,1.1898,147.4,97.3,0.507
10.34,32030.7,35167.0,1.1851,1.1927,147.4,97.3,0.507
10.36,31936.2,35021.1,1.1792,1.1843,147.4,97.3,0.507
10.38,31911.7,34866.9,1.1776,1.1754,147.4,97.3,0.507
10.4,31938.6,34751.1,1.1793,1.1686,147.4,97.3,0.507
10.42,31825.0,34707.7,1.1721,1.1661,147.4,97.3,0.507
10.44,31854.9,34678.2,1.174,1.1644,147.4,97.3,0.507
10.46,31709.2,34627.6,1.1648,1.1615,147.4,97.3,0.507
10.48,31801.2,34568.2,1.1706,1.158,147.4,97.3,0.507
10.5,31743.9,34502.5,1.167,1.1542,147.4,97.3,0.507
10.52,31735.0,34467.2,1.1664,1.1522,147.4,97.3,0.507
10.54,31774.1,34466.4,1.1689,1.1521,147.4,97.3,0.507
10.56,31850.3,34747.3,1.1737,1.1684,147.4,97.3,0.507
10.58,31984.0,35079.3,1.1822,1.1877,147.4,97.3,0.507
10.6,32232.2,35446.4,1.1979,1.2089,147.4,97.3,0.507
10.62,32366.5,35727.3,1.2064,1.2252,147.4,97.3,0.507
10.64,32346.1,35760.2,1.2051,1.2271,147.4,97.3,0.507
10.66,32246.2,35573.6,1.1988,1.2163,147.4,97.3,0.507
10.68,32137.9,35354.8,1.1919,1.2036,147.4,97.3,0.507
10.7,32088.0,35163.1,1.1888,1.1925,147.4,97.3,0.507
10.72,32063.8,35050.6,1.1872,1.186,147.4,97.3,0.507
10.74,32019.0,35032.1,1.1844,1.1849,147.4,97.3,0.507
10.76,31965.4,35034.3,1.181,1.1851,147.4,97.3,0.507
10.78,32012.2,34937.6,1.184,1.1794,147.4,97.3,0.507
10.8,31881.0,34908.0,1.1756,1.1777,147.4,97.3,0.507
10.82,31936.5,34749.3,1.1792,1.1685,147.4,97.3,0.507
10.84,31777.6,34718.4,1.1691,1.1667,147.4,97.3,0.507
10.86,31823.0,34707.4,1.172,1.1661,147.4,97.3,0.507
10.88,31842.4,34552.5,1.1732,1.1571,147.4,97.3,0.507
10.9,31709.1,34499.1,1.1648,1.154,147.4,97.3,0.507
10.92,31734.7,34437.5,1.1664,1.1505,147.4,97.3,0.507
10.94,31827.7,34457.0,1.1723,1.1516,147.4,97.3,0.507
10.96,31835.0,34734.8,1.1727,1.1677,147.4,97.3,0.507
10.98,31947.1,34992.7,1.1798,1.1826,147.4,97.3,0.507
11.0,32233.8,35331.7,1.198,1.2023,147.4,97.3,0.507
11.02,32299.6,35576.9,1.2022,1.2165,147.4,97.3,0.507
11.04,32291.3,35732.6,1.2017,1.2255,147.4,97.3,0.507
11.06,32307.5,35609.8,1.2027,1.2184,147.4,97.3,0.507
11.08,32140.5,35457.6,1.1921,1.2096,147.4,97.3,0.507
11.1,32202.6,35157.9,1.196,1.1922,147.4,97.3,0.507
11.12,32120.1,35186.5,1.1908,1.1939,147.4,97.3,0.507
11.14,32048.4,35032.8,1.1863,1.185,147.4,97.3,0.507
11.16,32069.1,34986.5,1.1876,1.1823,147.4,97.3,0.507
11.18,31934.9,34934.5,1.1791,1.1793,147.4,97.3,0.507
11.2,31883.5,34782.9,1.1758,1.1705,147.4,97.3,0.507
11.22,31882.0,34775.2,1.1757,1.17,147.4,97.3,0.507
11.24,31831.4,34653.5,1.1725,1.163,147.4,97.3,0.507
11.26,31876.4,34599.1,1.1754,1.1598,147.4,97.3,0.507
11.28,31897.5,34693.5,1.1767,1.1653,147.4,97.3,0.507
11.3,31774.1,34602.6,1.1689,1.16,147.4,97.3,0.507
11.32,31691.1,34515.4,1.1636,1.155,147.4,97.3,0.507
11.34,31760.7,34460.1,1.168,1.1518,147.4,97.3,0.507
11.36,31862.9,34629.5,1.1745,1.1616,147.4,97.3,0.507
11.38,32017.2,34982.9,1.1843,1.1821,147.4,97.3,0.507
11.4,32073.1,35212.4,1.1878,1.1954,147.4,97.3,0.507
11.42,32203.0,35603.2,1.1961,1.218,147.4,97.3,0.507
11.44,32357.0,35791.1,1.2058,1.2289,147.4,97.3,0.507
11.46,32330.7,35756.8,1.2042,1.2269,147.4,97.3,0.507
11.48,32257.7,35477.7,1.1995,1.2107,147.4,97.3,0.507
11.5,32180.6,35308.3,1.1946,1.2009,147.4,97.3,0.507
11.52,32076.8,35191.3,1.1881,1.1942,147.4,97.3,0.507
11.54,31997.0,35096.1,1.183,1.1886,147.4,97.3,0.507
11.56,32001.5,35009.7,1.1833,1.1836,147.4,97.3,0.507
11.58,31929.0,34970.7,1.1787,1.1814,147.4,97.3,0.507
11.6,31833.1,34885.5,1.1726,1.1764,147.4,97.3,0.507
11.62,31941.6,34842.5,1.1795,1.1739,147.4,97.3,0.507
11.64,31821.0,34668.7,1.1719,1.1639,147.4,97.3,0.507
11.66,31866.5,34597.8,1.1747,1.1598,147.4,97.3,0.507
11.68,31742.7,34586.9,1.1669,1.1591,147.4,97.3,0.507
11.7,31816.5,34554.0,1.1716,1.1572,147.4,97.3,0.507
11.72,31725.3,34515.1,1.1658,1.155,147.4,97.3,0.507
11.74,31777.6,34430.5,1.1691,1.1501,147.4,97.3,0.507
11.76,31909.4,34517.3,1.1775,1.1551,147.4,97.3,0.507
11.78,31858.3,34734.4,1.1742,1.1677,147.4,97.3,0.507
11.8,32112.8,35177.0,1.1903,1.1933,147.4,97.3,0.507
11.82,32268.0,35479.1,1.2002,1.2108,147.4,97.3,0.507
11.84,32297.0,35773.8,1.202,1.2279,147.4,97.3,0.507
11.86,32221.3,35788.3,1.1972,1.2287,147.4,97.3,0.507
11.88,32380.6,35585.0,1.2073,1.217,147.4,97.3,0.507
11.9,32224.2,35409.6,1.1974,1.2068,147.4,97.3,0.507
11.92,32111.7,35194.1,1.1903,1.1943,147.4,97.3,0.507
11.94,31990.9,35090.5,1.1826,1.1883,147.4,97.3,0.507
11.96,32034.4,35100.2,1.1854,1.1889,147.4,97.3,0.507
11.98,32037.6,35061.9,1.1856,1.1867,147.4,97.3,0.507
12.0,31984.0,34895.1,1.1822,1.177,147.4,97.3,0.507
12.02,31860.2,34887.5,1.1743,1.1765,147.4,97.3,0.507
12.04,31713.0,34709.5,1.165,1.1662,147.4,97.3,0.507
12.06,31880.0,34597.8,1.1756,1.1598,147.4,97.3,0.507
12.08,31897.5,34713.2,1.1767,1.1664,147.4,97.3,0.507
12.1,31915.5,34611.1,1.1778,1.1605,147.4,97.3,0.507
12.12,31783.7,34585.0,1.1695,1.159,147.4,97.3,0.507
12.14,31786.0,34379.6,1.1696,1.1471,147.4,97.3,0.507
12.16,31797.2,34472.9,1.1703,1.1525,147.4,97.3,0.507
12.18,31842.9,34667.8,1.1732,1.1638,147.4,97.3,0.507
12.2,31924.4,34923.7,1.1784,1.1786,147.4,97.3,0.507
12.22,32152.5,35392.0,1.1929,1.2058,147.4,97.3,0.507
12.24,32360.7,35665.8,1.2061,1.2216,147.4,97.3,0.507
12.26,32439.7,35813.5,1.2111,1.2302,147.4,97.3,0.507
12.28,32287.2,35594.0,1.2014,1.2175,147.4,97.3,0.507
12.3,32221.5,35542.2,1.1972,1.2145,147.4,97.3,0.507
12.32,32178.4,35237.7,1.1945,1.1968,147.4,97.3,0.507
12.34,31933.5,35095.8,1.179,1.1886,147.4,97.3,0.507
12.36,31947.1,35118.4,1.1798,1.1899,147.4,97.3,0.507
12.38,31958.2,34977.7,1.1805,1.1818,147.4,97.3,0.507
12.4,31997.5,34923.0,1.183,1.1786,147.4,97.3,0.507
12.42,31894.4,34869.8,1.1765,1.1755,147.4,97.3,0.507
12.44,31998.8,34705.4,1.1831,1.166,147.4,97.3,0.507
12.46,31849.0,34734.9,1.1736,1.1677,147.4,97.3,0.507
12.48,31853.0,34734.5,1.1739,1.1677,147.4,97.3,0.507
12.5,31799.7,34594.2,1.1705,1.1595,147.4,97.3,0.507
12.52,31857.6,34556.8,1.1742,1.1574,147.4,97.3,0.507
12.54,31700.1,34448.8,1.1642,1.1511,147.4,97.3,0.507
12.56,31710.6,34406.0,1.1649,1.1486,147.4,97.3,0.507
12.58,31819.2,34659.9,1.1717,1.1634,147.4,97.3,0.507
12.6,31921.0,34812.2,1.1782,1.1722,147.4,97.3,0.507
12.62,32026.2,35288.6,1.1849,1.1998,147.4,97.3,0.507
12.64,32315.8,35636.4,1.2032,1.2199,147.4,97.3,0.507
12.66,32304.6,35716.7,1.2025,1.2246,147.4,97.3,0.507
12.68,32368.2,35640.7,1.2065,1.2202,147.4,97.3,0.507
12.7,32244.4,35532.4,1.1987,1.2139,147.4,97.3,0.507
12.72,32043.1,35368.9,1.1859,1.2044,147.4,97.3,0.507
12.74,32103.9,35205.3,1.1898,1.195,147.4,97.3,0.507
12.76,32066.5,35131.6,1.1874,1.1907,147.4,97.3,0.507
12.78,32041.9,34924.7,1.1859,1.1787,147.4,97.3,0.507
12.8,31943.5,35079.8,1.1796,1.1877,147.4,97.3,0.507
12.82,31958.7,34921.0,1.1806,1.1785,147.4,97.3,0.507
12.84,31912.7,34772.5,1.1777,1.1699,147.4,97.3,0.507
12.86,31803.3,34703.7,1.1707,1.1659,147.4,97.3,0.507
12.88,31909.2,34659.3,1.1774,1.1633,147.4,97.3,0.507
12.9,31826.5,34627.0,1.1722,1.1614,147.4,97.3,0.507
12.92,31870.0,34613.8,1.175,1.1607,147.4,97.3,0.507
12.94,31719.6,34474.3,1.1654,1.1526,147.4,97.3,0.507
12.96,31738.0,34405.7,1.1666,1.1486,147.4,97.3,0.507
12.98,31701.6,34469.3,1.1643,1.1523,147.4,97.3,0.507
13.0,31842.4,34773.0,1.1732,1.1699,147.4,97.3,0.507
13.02,31991.1,35111.7,1.1826,1.1895,147.4,97.3,0.507
13.04,32239.3,35516.6,1.1984,1.213,147.4,97.3,0.507
13.06,32303.7,35677.8,1.2024,1.2223,147.4,97.3,0.507
13.08,32373.3,35705.8,1.2069,1.224,147.4,97.3,0.507
13.1,32388.2,35549.9,1.2078,1.2149,147.4,97.3,0.507
13.12,32214.8,35374.1,1.1968,1.2047,147.4,97.3,0.507
13.14,32169.9,35153.4,1.194,1.192,147.4,97.3,0.507
13.16,32039.1,35137.1,1.1857,1.191,147.4,97.3,0.507
13.18,32070.4,35038.9,1.1877,1.1853,147.4,97.3,0.507
13.2,32025.3,35026.6,1.1848,1.1846,147.4,97.3,0.507
13.22,31946.6,34981.1,1.1798,1.182,147.4,97.3,0.507
13.24,31907.7,34844.3,1.1773,1.174,147.4,97.3,0.507
13.26,31876.4,34741.4,1.1754,1.1681,147.4,97.3,0.507
13.28,31829.1,34719.7,1.1724,1.1668,147.4,97.3,0.507
13.3,31876.4,34627.0,1.1754,1.1615,147.4,97.3,0.507
13.32,31837.7,34609.9,1.1729,1.1605,147.4,97.3,0.507
13.34,31815.9,34517.3,1.1715,1.1551,147.4,97.3,0.507
13.36,31767.4,34538.4,1.1685,1.1563,147.4,97.3,0.507
13.38,31808.2,34536.5,1.171,1.1562,147.4,97.3,0.507
13.4,31888.9,34687.5,1.1762,1.165,147.4,97.3,0.507
13.42,31986.0,34907.7,1.1823,1.1777,147.4,97.3,0.507
13.44,32272.8,35395.3,1.2005,1.206,147.4,97.3,0.507
13.46,32179.6,35644.1,1.1946,1.2204,147.4,97.3,0.507
13.48,32395.9,35674.8,1.2083,1.2222,147.4,97.3,0.507
13.5,32269.9,35619.0,1.2003,1.2189,147.4,97.3,0.507
13.52,32175.4,35584.0,1.1943,1.2169,147.4,97.3,0.507
13.54,32098.1,35212.2,1.1894,1.1954,147.4,97.3,0.507
13.56,32100.8,35279.8,1.1896,1.1993,147.4,97.3,0.507
13.58,32080.1,35103.4,1.1883,1.1891,147.4,97.3,0.507
13.6,32004.7,35019.9,1.1835,1.1842,147.4,97.3,0.507
13.62,32009.1,34964.9,1.1838,1.181,147.4,97.3,0.507
13.64,32007.1,34850.0,1.1836,1.1744,147.4,97.3,0.507
13.66,31904.8,34701.9,1.1772,1.1658,147.4,97.3,0.507
13.68,31850.3,34625.2,1.1737,1.1613,147.4,97.3,0.507
13.7,31890.0,34606.6,1.1762,1.1603,147.4,97.3,0.507
13.72,31771.3,34613.7,1.1687,1.1607,147.4,97.3,0.507
13.74,31755.8,34595.0,1.1677,1.1596,147.4,97.3,0.507
13.76,31685.4,34361.4,1.1633,1.1461,147.4,97.3,0.507
13.78,31787.2,34463.5,1.1697,1.152,147.4,97.3,0.507
13.8,31837.9,34552.8,1.1729,1.1572,147.4,97.3,0.507
13.82,31910.3,34846.5,1.1775,1.1742,147.4,97.3,0.507
13.84,32086.4,35269.5,1.1887,1.1987,147.4,97.3,0.507
13.86,32270.0,35597.5,1.2003,1.2177,147.4,97.3,0.507
13.88,32360.7,35714.0,1.2061,1.2244,147.4,97.3,0.507
13.9,32458.5,35709.3,1.2123,1.2242,147.4,97.3,0.507
13.92,32223.5,35544.8,1.1974,1.2146,147.4,97.3,0.507
13.94,32176.3,35347.2,1.1944,1.2032,147.4,97.3,0.507
13.96,32112.7,35165.3,1.1903,1.1926,147.4,97.3,0.507
13.98,32067.1,35083.8,1.1874,1.1879,147.4,97.3,0.507
14.0,31995.9,35161.4,1.1829,1.1924,147.4,97.3,0.507
14.02,32026.0,34965.6,1.1848,1.1811,147.4,97.3,0.507
14.04,31990.6,34901.1,1.1826,1.1773,147.4,97.3,0.507
14.06,31858.2,34805.7,1.1742,1.1718,147.4,97.3,0.507
14.08,31862.0,34729.1,1.1744,1.1674,147.4,97.3,0.507
14.1,31910.0,34725.6,1.1775,1.1672,147.4,97.3,0.507
14.12,31810.2,34557.7,1.1712,1.1574,147.4,97.3,0.507
14.14,31785.9,34670.0,1.1696,1.1639,147.4,97.3,0.507
14.16,31837.6,34572.1,1.1729,1.1583,147.4,97.3,0.507
14.18,31785.5,34392.0,1.1696,1.1478,147.4,97.3,0.507
14.2,31747.9,34442.9,1.1672,1.1508,147.4,97.3,0.507
14.22,31884.0,34639.4,1.1758,1.1622,147.4,97.3,0.507
14.24,31975.8,35057.2,1.1817,1.1864,147.4,97.3,0.507
14.26,32239.7,35486.6,1.1984,1.2113,147.4,97.3,0.507
14.28,32315.9,35780.0,1.2032,1.2283,147.4,97.3,0.507
14.3,32311.6,35749.6,1.2029,1.2265,147.4,97.3,0.507
14.32,32263.6,35603.5,1.1999,1.218,147.4,97.3,0.507
14.34,32102.4,35422.5,1.1897,1.2075,147.4,97.3,0.507
14.36,32087.6,35166.2,1.1887,1.1927,147.4,97.3,0.507
14.38,32061.8,35183.1,1.1871,1.1937,147.4,97.3,0.507
14.4,32075.5,35042.4,1.188,1.1855,147.4,97.3,0.507
14.42,31973.2,35043.3,1.1815,1.1856,147.4,97.3,0.507
14.44,31873.8,34897.6,1.1752,1.1771,147.4,97.3,0.507
14.46,31975.2,34795.9,1.1816,1.1712,147.4,97.3,0.507
14.48,31838.5,34623.0,1.173,1.1612,147.4,97.3,0.507
14.5,31759.0,34660.6,1.1679,1.1634,147.4,97.3,0.507
14.52,31815.8,34651.0,1.1715,1.1628,147.4,97.3,0.507
14.54,31838.3,34636.9,1.1729,1.162,147.4,97.3,0.507
14.56,31777.6,34513.6,1.1691,1.1549,147.4,97.3,0.507
14.58,31752.2,34410.0,1.1675,1.1489,147.4,97.3,0.507
14.6,31698.1,34527.3,1.1641,1.1557,147.4,97.3,0.507
14.62,31834.4,34676.7,1.1727,1.1643,147.4,97.3,0.507
14.64,31900.3,35009.8,1.1769,1.1836,147.4,97.3,0.507
14.66,32195.5,35347.3,1.1956,1.2032,147.4,97.3,0.507
14.68,32316.8,35631.4,1.2033,1.2197,147.4,97.3,0.507
14.7,32363.4,35782.0,1.2062,1.2284,147.4,97.3,0.507
14.72,32297.2,35671.0,1.202,1.2219,147.4,97.3,0.507
14.74,32305.1,35560.2,1.2025,1.2155,147.4,97.3,0.507
14.76,32201.0,35296.6,1.1959,1.2003,147.4,97.3,0.507
14.78,32022.7,35170.5,1.1846,1.1929,147.4,97.3,0.507
14.8,31929.8,35164.9,1.1787,1.1926,147.4,97.3,0.507
14.82,32064.5,34990.6,1.1873,1.1825,147.4,97.3,0.507
14.84,31930.5,34894.7,1.1788,1.177,147.4,97.3,0.507
14.86,31996.8,34842.6,1.183,1.1739,147.4,97.3,0.507
14.88,31854.1,34688.2,1.1739,1.165,147.4,97.3,0.507
14.9,31830.5,34637.6,1.1725,1.1621,147.4,97.3,0.507
14.92,31786.8,34652.9,1.1697,1.163,147.4,97.3,0.507
14.94,31737.0,34666.8,1.1665,1.1638,147.4,97.3,0.507
14.96,31832.5,34627.4,1.1726,1.1615,147.4,97.3,0.507
14.98,31810.3,34534.5,1.1712,1.1561,147.4,97.3,0.507
15.0,31667.8,34399.4,1.1621,1.1483,147.4,97.3,0.507
15.02,31751.5,34518.4,1.1674,1.1552,147.4,97.3,0.507
15.04,31937.5,34784.6,1.1792,1.1706,147.4,97.3,0.507
15.06,32148.6,35266.8,1.1926,1.1985,147.4,97.3,0.507
15.08,32202.9,35642.1,1.1961,1.2203,147.4,97.3,0.507
15.1,32407.1,35677.9,1.209,1.2223,147.4,97.3,0.507
15.12,32307.1,35736.0,1.2027,1.2257,147.4,97.3,0.507
15.14,32306.7,35510.7,1.2026,1.2127,147.4,97.3,0.507
15.16,32190.4,35341.2,1.1953,1.2028,147.4,97.3,0.507
15.18,32018.6,35252.8,1.1844,1.1977,147.4,97.3,0.507
15.2,32065.1,35096.3,1.1873,1.1886,147.4,97.3,0.507
15.22,31982.8,35017.7,1.1821,1.1841,147.4,97.3,0.507
15.24,31942.7,34991.7,1.1796,1.1826,147.4,97.3,0.507
15.26,31951.5,34844.8,1.1801,1.1741,147.4,97.3,0.507
15.28,31876.5,34779.5,1.1754,1.1703,147.4,97.3,0.507
15.3,31917.5,34698.8,1.178,1.1656,147.4,97.3,0.507
15.32,31911.3,34668.7,1.1776,1.1639,147.4,97.3,0.507
15.34,31837.1,34669.7,1.1729,1.1639,147.4,97.3,0.507
15.36,31906.0,34734.7,1.1772,1.1677,147.4,97.3,0.507
15.38,31707.2,34502.0,1.1646,1.1542,147.4,97.3,0.507
15.4,31664.9,34458.1,1.162,1.1517,147.4,97.3,0.507
15.42,31828.0,34421.3,1.1723,1.1495,147.4,97.3,0.507
15.44,31964.5,34772.5,1.1809,1.1699,147.4,97.3,0.507
15.46,32052.5,35011.5,1.1865,1.1837,147.4,97.3,0.507
15.48,32203.6,35482.6,1.1961,1.211,147.4,97.3,0.507
15.5,32305.3,35701.4,1.2025,1.2237,147.4,97.3,0.507
15.52,32407.9,35734.7,1.209,1.2256,147.4,97.3,0.507
15.54,32204.0,35683.3,1.1961,1.2227,147.4,97.3,0.507
15.56,32169.6,35432.6,1.1939,1.2081,147.4,97.3,0.507
15.58,32067.4,35153.7,1.1875,1.192,147.4,97.3,0.507
15.6,32076.2,35193.8,1.188,1.1943,147.4,97.3,0.507
15.62,32026.4,35039.4,1.1849,1.1853,147.4,97.3,0.507
15.64,32011.4,35084.6,1.1839,1.188,147.4,97.3,0.507
15.66,32007.3,34909.3,1.1837,1.1778,147.4,97.3,0.507
15.68,31874.6,34823.3,1.1752,1.1728,147.4,97.3,0.507
15.7,31885.3,34629.3,1.1759,1.1616,147.4,97.3,0.507
15.72,31779.5,34760.8,1.1692,1.1692,147.4,97.3,0.507
15.74,31828.9,34650.0,1.1723,1.1628,147.4,97.3,0.507
15.76,31825.5,34618.6,1.1721,1.161,147.4,97.3,0.507
15.78,31829.0,34498.7,1.1724,1.154,147.4,97.3,0.507
15.8,31790.2,34523.0,1.1699,1.1554,147.4,97.3,0.507
15.82,31787.2,34505.3,1.1697,1.1544,147.4,97.3,0.507
15.84,31899.3,34599.6,1.1768,1.1599,147.4,97.3,0.507
15.86,31927.3,34949.1,1.1786,1.1801,147.4,97.3,0.507
15.88,32235.2,35328.2,1.1981,1.2021,147.4,97.3,0.507
15.9,32311.3,35670.3,1.2029,1.2219,147.4,97.3,0.507
15.92,32380.2,35776.0,1.2073,1.228,147.4,97.3,0.507
15.94,32330.8,35617.7,1.2042,1.2189,147.4,97.3,0.507
15.96,32333.8,35492.3,1.2044,1.2116,147.4,97.3,0.507
15.98,32042.6,35311.9,1.1859,1.2011,147.4,97.3,0.507
16.0,32082.7,35099.1,1.1884,1.1888,147.4,97.3,0.507
16.02,32069.7,35149.3,1.1876,1.1917,147.4,97.3,0.507
16.04,32100.0,35019.0,1.1895,1.1842,147.4,97.3,0.507
16.06,31995.4,34856.5,1.1829,1.1747,147.4,97.3,0.507
16.08,31987.5,34875.1,1.1824,1.1758,147.4,97.3,0.507
16.1,31973.1,34737.7,1.1815,1.1679,147.4,97.3,0.507
16.12,31828.2,34765.9,1.1723,1.1695,147.4,97.3,0.507
16.14,31834.4,34724.6,1.1727,1.1671,147.4,97.3,0.507
16.16,31815.8,34682.8,1.1715,1.1647,147.4,97.3,0.507
16.18,31758.3,34538.5,1.1679,1.1563,147.4,97.3,0.507
16.2,31800.4,34552.4,1.1705,1.1571,147.4,97.3,0.507
16.22,31713.0,34513.0,1.165,1.1548,147.4,97.3,0.507
16.24,31760.1,34547.5,1.168,1.1568,147.4,97.3,0.507
16.26,31921.8,34858.2,1.1782,1.1748,147.4,97.3,0.507
16.28,32105.4,35163.5,1.1899,1.1925,147.4,97.3,0.507
16.3,32264.8,35506.4,1.2,1.2124,147.4,97.3,0.507
16.32,32279.1,35754.6,1.2009,1.2268,147.4,97.3,0.507
16.34,32338.2,35699.1,1.2046,1.2236,147.4,97.3,0.507
16.36,32295.2,35597.5,1.2019,1.2177,147.4,97.3,0.507
16.38,32149.4,35426.6,1.1927,1.2078,147.4,97.3,0.507
16.4,32111.1,35216.4,1.1902,1.1956,147.4,97.3,0.507
16.42,31996.1,35079.7,1.1829,1.1877,147.4,97.3,0.507
16.44,32096.1,35074.2,1.1893,1.1874,147.4,97.3,0.507
16.46,32109.2,35040.8,1.1901,1.1854,147.4,97.3,0.507
16.48,31926.4,34923.2,1.1785,1.1786,147.4,97.3,0.507
16.5,31925.3,34689.7,1.1785,1.1651,147.4,97.3,0.507
16.52,31939.1,34777.8,1.1793,1.1702,147.4,97.3,0.507
16.54,31778.6,34702.3,1.1692,1.1658,147.4,97.3,0.507
16.56,31874.0,34602.1,1.1752,1.16,147.4,97.3,0.507
16.58,31840.1,34564.4,1.1731,1.1578,147.4,97.3,0.507
16.6,31877.0,34450.4,1.1754,1.1512,147.4,97.3,0.507
16.62,31752.5,34422.3,1.1675,1.1496,147.4,97.3,0.507
16.64,31798.5,34535.6,1.1704,1.1562,147.4,97.3,0.507
16.66,31787.3,34711.2,1.1697,1.1663,147.4,97.3,0.507
16.68,32029.5,35066.0,1.1851,1.1869,147.4,97.3,0.507
16.7,32132.5,35496.3,1.1916,1.2118,147.4,97.3,0.507
16.72,32339.9,35713.6,1.2047,1.2244,147.4,97.3,0.507
16.74,32333.8,35748.5,1.2044,1.2264,147.4,97.3,0.507
16.76,32291.6,35579.1,1.2017,1.2166,147.4,97.3,0.507
16.78,32251.2,35472.8,1.1991,1.2105,147.4,97.3,0.507
16.8,32107.8,35238.8,1.19,1.1969,147.4,97.3,0.507
16.82,32029.6,35217.1,1.1851,1.1956,147.4,97.3,0.507
16.84,31964.9,35096.8,1.181,1.1887,147.4,97.3,0.507
16.86,31908.0,35002.5,1.1774,1.1832,147.4,97.3,0.507
16.88,32037.2,34931.0,1.1856,1.1791,147.4,97.3,0.507
16.9,31862.1,34884.5,1.1745,1.1764,147.4,97.3,0.507
16.92,31885.0,34721.8,1.1759,1.1669,147.4,97.3,0.507
16.94,31806.2,34678.8,1.1709,1.1645,147.4,97.3,0.507
16.96,31877.3,34579.2,1.1754,1.1587,147.4,97.3,0.507
16.98,31817.4,34652.1,1.1716,1.1629,147.4,97.3,0.507
17.0,31734.3,34579.3,1.1664,1.1587,147.4,97.3,0.507
17.02,31834.0,34410.9,1.1727,1.1489,147.4,97.3,0.507
17.04,31778.6,34487.0,1.1692,1.1533,147.4,97.3,0.507
17.06,31873.5,34547.2,1.1752,1.1568,147.4,97.3,0.507
17.08,31997.5,34936.4,1.183,1.1794,147.4,97.3,0.507
17.1,32143.8,35250.9,1.1923,1.1976,147.4,97.3,0.507
17.12,32316.7,35638.8,1.2033,1.2201,147.4,97.3,0.507
17.14,32367.1,35728.8,1.2065,1.2253,147.4,97.3,0.507
17.16,32281.7,35792.3,1.2011,1.229,147.4,97.3,0.507
17.18,32242.9,35546.6,1.1986,1.2147,147.4,97.3,0.507
17.2,32220.6,35420.1,1.1972,1.2074,147.4,97.3,0.507
17.22,32073.5,35140.8,1.1879,1.1912,147.4,97.3,0.507
17.24,32015.3,35149.4,1.1842,1.1917,147.4,97.3,0.507
17.26,31940.0,35073.6,1.1794,1.1873,147.4,97.3,0.507
17.28,32037.9,34959.8,1.1856,1.1807,147.4,97.3,0.507
17.3,31806.5,34862.6,1.1709,1.1751,147.4,97.3,0.507
17.32,31865.6,34661.5,1.1747,1.1634,147.4,97.3,0.507
17.34,31854.4,34663.1,1.174,1.1635,147.4,97.3,0.507
17.36,31807.0,34633.0,1.171,1.1618,147.4,97.3,0.507
17.38,31862.0,34593.4,1.1745,1.1595,147.4,97.3,0.507
17.4,31768.4,34662.8,1.1685,1.1635,147.4,97.3,0.507
17.42,31757.1,34459.9,1.1678,1.1518,147.4,97.3,0.507
17.44,31753.2,34509.1,1.1676,1.1546,147.4,97.3,0.507
17.46,31723.8,34591.6,1.1657,1.1594,147.4,97.3,0.507
17.48,31888.0,34850.1,1.1761,1.1744,147.4,97.3,0.507
17.5,32154.3,35162.7,1.193,1.1925,147.4,97.3,0.507
17.52,32324.9,35574.1,1.2038,1.2163,147.4,97.3,0.507
17.54,32296.4,35769.3,1.202,1.2276,147.4,97.3,0.507
17.56,32385.7,35663.9,1.2076,1.2215,147.4,97.3,0.507
17.58,32228.2,35579.4,1.1977,1.2166,147.4,97.3,0.507
17.6,32221.9,35317.2,1.1973,1.2014,147.4,97.3,0.507
17.62,32087.0,35167.4,1.1887,1.1928,147.4,97.3,0.507
17.64,31970.5,35088.3,1.1813,1.1882,147.4,97.3,0.507
17.66,31928.7,35092.3,1.1787,1.1884,147.4,97.3,0.507
17.68,32104.6,34906.0,1.1898,1.1776,147.4,97.3,0.507
17.7,31854.6,34854.2,1.174,1.1746,147.4,97.3,0.507
17.72,31867.2,34768.9,1.1748,1.1697,147.4,97.3,0.507
17.74,31936.4,34637.1,1.1792,1.162,147.4,97.3,0.507
17.76,31833.3,34590.8,1.1726,1.1594,147.4,97.3,0.507
17.78,31780.9,34661.1,1.1693,1.1634,147.4,97.3,0.507
17.8,31740.8,34606.1,1.1668,1.1602,147.4,97.3,0.507
17.82,31713.8,34497.1,1.1651,1.1539,147.4,97.3,0.507
17.84,31677.1,34382.7,1.1627,1.1473,147.4,97.3,0.507
17.86,31727.9,34442.5,1.1659,1.1508,147.4,97.3,0.507
17.88,31847.0,34717.7,1.1735,1.1667,147.4,97.3,0.507
17.9,31990.4,35153.0,1.1826,1.1919,147.4,97.3,0.507
17.92,32145.6,35449.8,1.1924,1.2091,147.4,97.3,0.507
17.94,32282.5,35593.3,1.2011,1.2174,147.4,97.3,0.507
17.96,32406.4,35738.2,1.209,1.2258,147.4,97.3,0.507
17.98,32292.5,35620.8,1.2017,1.219,147.4,97.3,0.507
18.0,32223.9,35441.5,1.1974,1.2086,147.4,97.3,0.507
18.02,32135.7,35178.6,1.1918,1.1934,147.4,97.3,0.507
18.04,32112.3,35160.3,1.1903,1.1924,147.4,97.3,0.507
18.06,32031.8,35140.4,1.1852,1.1912,147.4,97.3,0.507
18.08,32079.7,35023.3,1.1882,1.1844,147.4,97.3,0.507
18.1,31887.5,34922.4,1.1761,1.1786,147.4,97.3,0.507
18.12,31911.0,34884.1,1.1776,1.1763,147.4,97.3,0.507
18.14,31890.0,34680.2,1.1762,1.1645,147.4,97.3,0.507
18.16,31777.0,34652.8,1.1691,1.1629,147.4,97.3,0.507
18.18,31814.3,34701.1,1.1714,1.1657,147.4,97.3,0.507
18.2,31846.7,34649.8,1.1735,1.1628,147.4,97.3,0.507
18.22,31735.0,34640.1,1.1664,1.1622,147.4,97.3,0.507
18.24,31645.9,34521.9,1.1608,1.1554,147.4,97.3,0.507
18.26,31744.9,34459.0,1.167,1.1517,147.4,97.3,0.507
18.28,31691.9,34565.4,1.1637,1.1579,147.4,97.3,0.507
18.3,31995.9,34874.4,1.1829,1.1758,147.4,97.3,0.507
18.32,32162.8,35297.5,1.1935,1.2003,147.4,97.3,0.507
18.34,32234.6,35653.9,1.1981,1.221,147.4,97.3,0.507
18.36,32370.2,35735.4,1.2067,1.2257,147.4,97.3,0.507
18.38,32209.2,35674.1,1.1965,1.2221,147.4,97.3,0.507
18.4,32210.1,35503.0,1.1965,1.2122,147.4,97.3,0.507
18.42,32182.7,35280.2,1.1948,1.1993,147.4,97.3,0.507
18.44,32099.0,35170.9,1.1895,1.193,147.4,97.3,0.507
18.46,32012.1,35159.6,1.184,1.1923,147.4,97.3,0.507
18.48,32010.1,35064.3,1.1838,1.1868,147.4,97.3,0.507
18.5,31939.5,35002.7,1.1794,1.1832,147.4,97.3,0.507
18.52,31949.5,34869.1,1.18,1.1755,147.4,97.3,0.507
18.54,31854.5,34729.6,1.174,1.1674,147.4,97.3,0.507
18.56,31901.3,34622.2,1.1769,1.1612,147.4,97.3,0.507
18.58,31845.9,34734.0,1.1734,1.1677,147.4,97.3,0.507
18.6,31830.9,34634.4,1.1725,1.1619,147.4,97.3,0.507
18.62,31803.4,34639.1,1.1707,1.1622,147.4,97.3,0.507
18.64,31696.0,34612.4,1.1639,1.1606,147.4,97.3,0.507
18.66,31807.8,34462.5,1.171,1.1519,147.4,97.3,0.507
18.68,31856.1,34579.5,1.1741,1.1587,147.4,97.3,0.507
18.7,31889.4,34829.7,1.1762,1.1732,147.4,97.3,0.507
18.72,32067.7,35041.9,1.1875,1.1855,147.4,97.3,0.507
18.74,32195.7,35498.9,1.1956,1.212,147.4,97.3,0.507
18.76,32348.2,35692.8,1.2053,1.2232,147.4,97.3,0.507
18.78,32378.1,35752.8,1.2072,1.2267,147.4,97.3,0.507
18.8,32217.3,35632.8,1.197,1.2197,147.4,97.3,0.507
18.82,32237.3,35282.2,1.1982,1.1994,147.4,97.3,0.507
18.84,32037.3,35289.4,1.1856,1.1998,147.4,97.3,0.507
18.86,31992.4,35069.7,1.1827,1.1871,147.4,97.3,0.507
18.88,31972.7,35069.1,1.1815,1.1871,147.4,97.3,0.507
18.9,32031.3,35047.0,1.1852,1.1858,147.4,97.3,0.507
18.92,32032.1,34833.5,1.1852,1.1734,147.4,97.3,0.507
18.94,31913.9,34845.5,1.1777,1.1741,147.4,97.3,0.507
18.96,31834.4,34677.7,1.1727,1.1644,147.4,97.3,0.507
18.98,31861.0,34689.0,1.1744,1.165,147.4,97.3,0.507
19.0,31958.9,34667.9,1.1806,1.1638,147.4,97.3,0.507
19.02,31870.9,34639.7,1.175,1.1622,147.4,97.3,0.507
19.04,31713.7,34585.3,1.165,1.159,147.4,97.3,0.507
19.06,31743.1,34466.3,1.1669,1.1521,147.4,97.3,0.507
19.08,31710.9,34480.1,1.1649,1.1529,147.4,97.3,0.507
19.1,31917.1,34654.2,1.1779,1.163,147.4,97.3,0.507
19.12,32091.7,34967.7,1.189,1.1812,147.4,97.3,0.507
19.14,32228.6,35409.3,1.1977,1.2068,147.4,97.3,0.507
19.16,32324.3,35693.0,1.2038,1.2232,147.4,97.3,0.507
19.18,32220.1,35748.1,1.1971,1.2264,147.4,97.3,0.507
19.2,32258.9,35593.7,1.1996,1.2175,147.4,97.3,0.507
19.22,32194.1,35453.6,1.1955,1.2094,147.4,97.3,0.507
19.24,32120.8,35295.5,1.1908,1.2002,147.4,97.3,0.507
19.26,32045.2,35164.9,1.1861,1.1926,147.4,97.3,0.507
19.28,32010.4,35104.1,1.1839,1.1891,147.4,97.3,0.507
19.3,31969.9,35064.7,1.1813,1.1868,147.4,97.3,0.507
19.32,31936.9,35020.8,1.1792,1.1843,147.4,97.3,0.507
19.34,31910.7,34923.1,1.1775,1.1786,147.4,97.3,0.507
19.36,31965.9,34697.6,1.181,1.1655,147.4,97.3,0.507
19.38,31872.6,34664.3,1.1751,1.1636,147.4,97.3,0.507
19.4,31813.3,34697.8,1.1714,1.1656,147.4,97.3,0.507
19.42,31882.3,34733.4,1.1757,1.1676,147.4,97.3,0.507
19.44,31800.9,34608.4,1.1706,1.1604,147.4,97.3,0.507
19.46,31774.6,34452.5,1.1689,1.1513,147.4,97.3,0.507
19.48,31724.5,34422.7,1.1657,1.1496,147.4,97.3,0.507
19.5,31849.3,34484.1,1.1736,1.1532,147.4,97.3,0.507
19.52,31941.2,34937.2,1.1795,1.1794,147.4,97.3,0.507
19.54,32194.0,35268.4,1.1955,1.1986,147.4,97.3,0.507
19.56,32274.9,35490.5,1.2006,1.2115,147.4,97.3,0.507
19.58,32388.8,35717.0,1.2078,1.2246,147.4,97.3,0.507
19.6,32361.7,35659.5,1.2061,1.2213,147.4,97.3,0.507
19.62,32258.3,35576.7,1.1996,1.2165,147.4,97.3,0.507
19.64,32174.9,35195.9,1.1943,1.1944,147.4,97.3,0.507
19.66,32069.9,35180.8,1.1876,1.1935,147.4,97.3,0.507
19.68,32063.6,35143.7,1.1872,1.1914,147.4,97.3,0.507
19.7,31988.8,34983.3,1.1825,1.1821,147.4,97.3,0.507
19.72,31945.2,34982.8,1.1797,1.1821,147.4,97.3,0.507
19.74,31890.9,34847.5,1.1763,1.1742,147.4,97.3,0.507
19.76,31955.9,34841.4,1.1804,1.1739,147.4,97.3,0.507
19.78,31879.8,34656.8,1.1756,1.1632,147.4,97.3,0.507
19.8,31896.9,34666.3,1.1767,1.1637,147.4,97.3,0.507
19.82,31808.4,34677.1,1.171,1.1644,147.4,97.3,0.507
19.84,31790.1,34635.7,1.1699,1.162,147.4,97.3,0.507
19.86,31756.8,34495.6,1.1678,1.1538,147.4,97.3,0.507
19.88,31701.1,34495.3,1.1643,1.1538,147.4,97.3,0.507
19.9,31730.6,34577.2,1.1661,1.1586,147.4,97.3,0.507
19.92,31939.9,34825.1,1.1794,1.1729,147.4,97.3,0.507
19.94,32028.4,35167.5,1.185,1.1928,147.4,97.3,0.507
19.96,32267.1,35571.2,1.2001,1.2162,147.4,97.3,0.507
19.98,32335.3,35722.8,1.2044,1.2249,147.4,97.3,0.507
20.0,32373.9,35725.8,1.2069,1.2251,147.4,97.3,0.507
20.02,32259.0,35519.3,1.1996,1.2132,147.4,97.3,0.507
20.04,32148.1,35433.2,1.1926,1.2082,147.4,97.3,0.507
20.06,32061.6,35260.4,1.1871,1.1982,147.4,97.3,0.507
20.08,32076.3,35154.0,1.188,1.192,147.4,97.3,0.507
20.1,32091.7,35146.3,1.189,1.1915,147.4,97.3,0.507
20.12,32017.9,35013.1,1.1843,1.1838,147.4,97.3,0.507
20.14,31924.4,34948.4,1.1784,1.1801,147.4,97.3,0.507
20.16,31846.0,34779.4,1.1734,1.1703,147.4,97.3,0.507
20.18,31901.3,34658.0,1.1769,1.1632,147.4,97.3,0.507
20.2,31874.3,34698.3,1.1752,1.1656,147.4,97.3,0.507
20.22,31871.2,34638.4,1.175,1.1621,147.4,97.3,0.507
20.24,31793.3,34632.3,1.1701,1.1618,147.4,97.3,0.507
20.26,31852.4,34453.9,1.1738,1.1514,147.4,97.3,0.507
20.28,31744.6,34481.2,1.167,1.153,147.4,97.3,0.507
20.3,31718.0,34507.1,1.1653,1.1545,147.4,97.3,0.507
20.32,31826.4,34699.6,1.1722,1.1657,147.4,97.3,0.507
20.34,32001.0,34904.8,1.1833,1.1775,147.4,97.3,0.507
20.36,32191.1,35432.4,1.1953,1.2081,147.4,97.3,0.507
20.38,32292.8,35622.2,1.2018,1.2191,147.4,97.3,0.507
20.4,32318.9,35751.6,1.2034,1.2266,147.4,97.3,0.507
20.42,32308.0,35710.6,1.2027,1.2242,147.4,97.3,0.507
20.44,32233.1,35503.9,1.198,1.2123,147.4,97.3,0.507
20.46,32065.6,35325.6,1.1874,1.2019,147.4,97.3,0.507
20.48,32065.9,35067.8,1.1874,1.187,147.4,97.3,0.507
20.5,31999.8,35155.8,1.1832,1.1921,147.4,97.3,0.507
20.52,31934.9,35071.7,1.1791,1.1872,147.4,97.3,0.507
20.54,32114.6,34978.1,1.1905,1.1818,147.4,97.3,0.507
20.56,31807.6,34807.1,1.171,1.1719,147.4,97.3,0.507
20.58,31841.1,34710.1,1.1731,1.1663,147.4,97.3,0.507
20.6,31826.3,34611.1,1.1722,1.1605,147.4,97.3,0.507
20.62,31828.0,34686.1,1.1723,1.1649,147.4,97.3,0.507
20.64,31829.9,34648.9,1.1724,1.1627,147.4,97.3,0.507
20.66,31832.1,34550.9,1.1726,1.157,147.4,97.3,0.507
20.68,31736.6,34474.5,1.1665,1.1526,147.4,97.3,0.507
20.7,31872.1,34475.1,1.1751,1.1526,147.4,97.3,0.507
20.72,31887.5,34502.3,1.1761,1.1542,147.4,97.3,0.507
20.74,31901.0,34769.0,1.1769,1.1697,147.4,97.3,0.507
20.76,32156.0,35229.7,1.1931,1.1964,147.4,97.3,0.507
20.78,32312.4,35572.6,1.203,1.2162,147.4,97.3,0.507
20.8,32313.1,35811.0,1.203,1.2301,147.4,97.3,0.507
20.82,32365.2,35630.4,1.2063,1.2196,147.4,97.3,0.507
20.84,32311.3,35563.1,1.2029,1.2157,147.4,97.3,0.507
20.86,32193.9,35369.2,1.1955,1.2045,147.4,97.3,0.507
20.88,32076.0,35205.3,1.188,1.195,147.4,97.3,0.507
20.9,31999.8,35138.0,1.1832,1.1911,147.4,97.3,0.507
20.92,31996.7,34988.9,1.183,1.1824,147.4,97.3,0.507
20.94,31992.6,34971.0,1.1827,1.1814,147.4,97.3,0.507
20.96,31999.6,34828.6,1.1832,1.1731,147.4,97.3,0.507
20.98,31943.0,34721.4,1.1796,1.1669,147.4,97.3,0.507
21.0,31911.6,34629.9,1.1776,1.1616,147.4,97.3,0.507
21.02,31939.3,34649.8,1.1793,1.1628,147.4,97.3,0.507
21.04,31849.4,34645.9,1.1737,1.1625,147.4,97.3,0.507
21.06,31825.3,34610.9,1.1721,1.1605,147.4,97.3,0.507
21.08,31777.6,34537.8,1.1691,1.1563,147.4,97.3,0.507
21.1,31685.0,34526.8,1.1632,1.1556,147.4,97.3,0.507
21.12,31902.4,34488.0,1.177,1.1534,147.4,97.3,0.507
21.14,31839.3,34779.0,1.173,1.1703,147.4,97.3,0.507
21.16,32104.4,35076.6,1.1898,1.1875,147.4,97.3,0.507
21.18,32115.6,35403.6,1.1905,1.2065,147.4,97.3,0.507
21.2,32280.8,35699.0,1.201,1.2236,147.4,97.3,0.507
21.22,32271.5,35833.0,1.2004,1.2313,147.4,97.3,0.507
21.24,32272.4,35586.6,1.2005,1.2171,147.4,97.3,0.507
21.26,32204.2,35361.6,1.1961,1.204,147.4,97.3,0.507
21.28,32086.2,35184.4,1.1887,1.1938,147.4,97.3,0.507
21.3,32138.1,35233.0,1.1919,1.1966,147.4,97.3,0.507
21.32,32044.9,35095.0,1.186,1.1886,147.4,97.3,0.507
21.34,31917.6,35000.0,1.178,1.1831,147.4,97.3,0.507
21.36,31953.7,34968.4,1.1803,1.1812,147.4,97.3,0.507
21.38,31963.7,34764.8,1.1809,1.1694,147.4,97.3,0.507
21.4,31809.8,34710.6,1.1711,1.1663,147.4,97.3,0.507
21.42,31866.1,34684.4,1.1747,1.1648,147.4,97.3,0.507
21.44,31770.9,34521.6,1.1687,1.1553,147.4,97.3,0.507
21.46,31879.9,34625.7,1.1756,1.1614,147.4,97.3,0.507
21.48,31833.8,34567.1,1.1727,1.158,147.4,97.3,0.507
21.5,31656.3,34384.7,1.1614,1.1474,147.4,97.3,0.507
21.52,31750.4,34465.2,1.1674,1.1521,147.4,97.3,0.507
21.54,31855.9,34700.4,1.1741,1.1657,147.4,97.3,0.507
21.56,31921.4,35018.9,1.1782,1.1842,147.4,97.3,0.507
21.58,32197.6,35400.0,1.1957,1.2062,147.4,97.3,0.507
21.6,32293.5,35595.8,1.2018,1.2176,147.4,97.3,0.507
21.62,32296.4,35760.2,1.202,1.2271,147.4,97.3,0.507
21.64,32266.3,35660.0,1.2001,1.2213,147.4,97.3,0.507
21.66,32162.5,35532.6,1.1935,1.2139,147.4,97.3,0.507
21.68,32117.0,35262.7,1.1906,1.1983,147.4,97.3,0.507
21.7,32153.6,35219.9,1.1929,1.1958,147.4,97.3,0.507
21.72,32072.7,35151.9,1.1878,1.1919,147.4,97.3,0.507
21.74,32060.0,35038.5,1.187,1.1853,147.4,97.3,0.507
21.76,31971.5,35004.3,1.1814,1.1833,147.4,97.3,0.507
21.78,32013.0,34815.4,1.184,1.1724,147.4,97.3,0.507
21.8,31869.4,34749.5,1.1749,1.1686,147.4,97.3,0.507
21.82,31829.9,34703.1,1.1724,1.1659,147.4,97.3,0.507
21.84,31855.0,34711.8,1.174,1.1664,147.4,97.3,0.507
21.86,31731.1,34646.4,1.1661,1.1626,147.4,97.3,0.507
21.88,31749.1,34520.9,1.1673,1.1553,147.4,97.3,0.507
21.9,31758.5,34490.8,1.1679,1.1536,147.4,97.3,0.507
21.92,31681.0,34462.7,1.163,1.1519,147.4,97.3,0.507
21.94,31746.1,34495.9,1.1671,1.1539,147.4,97.3,0.507
21.96,31885.0,34902.7,1.1759,1.1774,147.4,97.3,0.507
21.98,32090.2,35246.3,1.1889,1.1973,147.4,97.3,0.507
22.0,32118.9,35553.0,1.1907,1.2151,147.4,97.3,0.507
22.02,32358.8,35748.1,1.2059,1.2264,147.4,97.3,0.507
22.04,32389.1,35771.6,1.2079,1.2278,147.4,97.3,0.507
22.06,32277.8,35565.2,1.2008,1.2158,147.4,97.3,0.507
22.08,32156.9,35369.9,1.1931,1.2045,147.4,97.3,0.507
22.1,32092.7,35156.4,1.1891,1.1921,147.4,97.3,0.507
22.12,32059.4,35093.6,1.187,1.1885,147.4,97.3,0.507
22.14,32038.3,35049.6,1.1856,1.1859,147.4,97.3,0.507
22.16,32071.6,34954.7,1.1877,1.1804,147.4,97.3,0.507
22.18,31881.8,34919.2,1.1757,1.1784,147.4,97.3,0.507
22.2,31917.9,34808.1,1.178,1.1719,147.4,97.3,0.507
22.22,31761.4,34708.5,1.1681,1.1662,147.4,97.3,0.507
22.24,31885.5,34665.3,1.1759,1.1637,147.4,97.3,0.507
22.26,31852.5,34632.3,1.1738,1.1618,147.4,97.3,0.507
22.28,31832.7,34532.9,1.1726,1.156,147.4,97.3,0.507
22.3,31747.0,34537.9,1.1672,1.1563,147.4,97.3,0.507
22.32,31778.6,34392.8,1.1692,1.1479,147.4,97.3,0.507
22.34,31772.9,34582.0,1.1688,1.1588,147.4,97.3,0.507
22.36,31865.3,34683.7,1.1747,1.1647,147.4,97.3,0.507
22.38,32001.3,35048.6,1.1833,1.1859,147.4,97.3,0.507
22.4,32208.5,35496.6,1.1964,1.2118,147.4,97.3,0.507
22.42,32398.0,35787.3,1.2084,1.2287,147.4,97.3,0.507
22.44,32424.7,35828.3,1.2101,1.2311,147.4,97.3,0.507
22.46,32218.8,35574.8,1.1971,1.2164,147.4,97.3,0.507
22.48,32239.5,35466.1,1.1984,1.2101,147.4,97.3,0.507
22.5,32039.5,35131.1,1.1857,1.1907,147.4,97.3,0.507
22.52,32073.9,35097.0,1.1879,1.1887,147.4,97.3,0.507
22.54,32026.6,35076.3,1.1849,1.1875,147.4,97.3,0.507
22.56,32015.4,35104.1,1.1842,1.1891,147.4,97.3,0.507
22.58,31917.1,34896.4,1.1779,1.1771,147.4,97.3,0.507
22.6,31924.2,34808.3,1.1784,1.172,147.4,97.3,0.507
22.62,31874.1,34821.8,1.1752,1.1727,147.4,97.3,0.507
22.64,31900.1,34687.2,1.1769,1.1649,147.4,97.3,0.507
22.66,31853.4,34660.7,1.1739,1.1634,147.4,97.3,0.507
22.68,31836.3,34584.8,1.1728,1.159,147.4,97.3,0.507
22.7,31807.1,34542.8,1.171,1.1566,147.4,97.3,0.507
22.72,31721.3,34374.9,1.1655,1.1468,147.4,97.3,0.507
22.74,31726.4,34425.2,1.1659,1.1498,147.4,97.3,0.507
22.76,31776.3,34649.9,1.169,1.1628,147.4,97.3,0.507
22.78,32027.2,35028.9,1.1849,1.1847,147.4,97.3,0.507
22.8,32233.0,35411.2,1.198,1.2069,147.4,97.3,0.507
22.82,32375.3,35608.9,1.207,1.2183,147.4,97.3,0.507
22.84,32290.0,35724.3,1.2016,1.225,147.4,97.3,0.507
22.86,32285.4,35682.1,1.2013,1.2226,147.4,97.3,0.507
22.88,32250.5,35476.3,1.1991,1.2107,147.4,97.3,0.507
22.9,32175.2,35230.1,1.1943,1.1964,147.4,97.3,0.507
22.92,32031.2,35075.3,1.1852,1.1874,147.4,97.3,0.507
22.94,32032.7,35090.3,1.1853,1.1883,147.4,97.3,0.507
22.96,31994.2,35074.1,1.1828,1.1874,147.4,97.3,0.507
22.98,31947.1,34963.2,1.1798,1.1809,147.4,97.3,0.507
23.0,31848.6,34842.3,1.1736,1.1739,147.4,97.3,0.507
23.02,31849.1,34760.9,1.1736,1.1692,147.4,97.3,0.507
23.04,31838.7,34650.8,1.173,1.1628,147.4,97.3,0.507
23.06,31882.5,34648.4,1.1757,1.1627,147.4,97.3,0.507
23.08,31710.0,34624.2,1.1648,1.1613,147.4,97.3,0.507
23.1,31752.0,34575.4,1.1675,1.1585,147.4,97.3,0.507
23.12,31707.1,34510.7,1.1646,1.1547,147.4,97.3,0.507
23.14,31773.2,34428.2,1.1688,1.1499,147.4,97.3,0.507
23.16,31873.0,34465.2,1.1751,1.1521,147.4,97.3,0.507
23.18,32054.3,34894.3,1.1866,1.1769,147.4,97.3,0.507
23.2,32179.2,35194.5,1.1946,1.1943,147.4,97.3,0.507
23.22,32261.1,35634.5,1.1997,1.2198,147.4,97.3,0.507
23.24,32348.8,35846.4,1.2053,1.2321,147.4,97.3,0.507
23.26,32449.9,35807.4,1.2117,1.2299,147.4,97.3,0.507
23.28,32181.2,35539.0,1.1947,1.2143,147.4,97.3,0.507
23.3,32084.6,35349.6,1.1886,1.2033,147.4,97.3,0.507
23.32,32104.9,35122.1,1.1898,1.1901,147.4,97.3,0.507
23.34,32016.9,35147.3,1.1843,1.1916,147.4,97.3,0.507
23.36,31966.8,35079.9,1.1811,1.1877,147.4,97.3,0.507
23.38,32024.1,35007.6,1.1847,1.1835,147.4,97.3,0.507
23.4,31922.6,34928.9,1.1783,1.1789,147.4,97.3,0.507
23.42,31917.5,34859.2,1.178,1.1749,147.4,97.3,0.507
23.44,31863.9,34693.8,1.1746,1.1653,147.4,97.3,0.507
23.46,31794.3,34594.0,1.1702,1.1595,147.4,97.3,0.507
23.48,31791.8,34646.0,1.17,1.1626,147.4,97.3,0.507
23.5,31846.1,34606.9,1.1734,1.1603,147.4,97.3,0.507
23.52,31755.0,34495.4,1.1677,1.1538,147.4,97.3,0.507
23.54,31735.4,34508.6,1.1664,1.1546,147.4,97.3,0.507
23.56,31804.9,34514.9,1.1708,1.155,147.4,97.3,0.507
23.58,31850.7,34709.0,1.1737,1.1662,147.4,97.3,0.507
23.6,32094.2,35092.3,1.1892,1.1884,147.4,97.3,0.507
23.62,32225.0,35415.0,1.1975,1.2071,147.4,97.3,0.507
23.64,32299.2,35762.3,1.2022,1.2272,147.4,97.3,0.507
23.66,32330.2,35741.3,1.2041,1.226,147.4,97.3,0.507
23.68,32365.2,35564.6,1.2063,1.2158,147.4,97.3,0.507
23.7,32259.6,35378.2,1.1997,1.205,147.4,97.3,0.507
23.72,32069.5,35276.7,1.1876,1.1991,147.4,97.3,0.507
23.74,32036.0,35157.9,1.1855,1.1922,147.4,97.3,0.507
23.76,31978.9,35070.3,1.1819,1.1871,147.4,97.3,0.507
23.78,32092.4,35033.8,1.1891,1.185,147.4,97.3,0.507
23.8,32060.8,34946.8,1.187,1.18,147.4,97.3,0.507
23.82,31954.0,34824.9,1.1803,1.1729,147.4,97.3,0.507
23.84,31854.0,34764.1,1.1739,1.1694,147.4,97.3,0.507
23.86,31831.3,34736.4,1.1725,1.1678,147.4,97.3,0.507
23.88,31792.6,34685.5,1.17,1.1648,147.4,97.3,0.507
23.9,31870.6,34633.3,1.175,1.1618,147.4,97.3,0.507
23.92,31770.9,34593.8,1.1687,1.1595,147.4,97.3,0.507
23.94,31778.0,34439.9,1.1691,1.1506,147.4,97.3,0.507
23.96,31744.0,34476.2,1.167,1.1527,147.4,97.3,0.507
23.98,31882.1,34688.9,1.1757,1.165,147.4,97.3,0.507
24.0,31936.2,34977.0,1.1791,1.1817,147.4,97.3,0.507
24.02,32201.6,35366.7,1.196,1.2043,147.4,97.3,0.507
24.04,32288.0,35586.7,1.2015,1.2171,147.4,97.3,0.507
24.06,32373.0,35738.9,1.2068,1.2259,147.4,97.3,0.507
24.08,32311.3,35584.7,1.2029,1.2169,147.4,97.3,0.507
24.1,32177.6,35485.7,1.1945,1.2112,147.4,97.3,0.507
24.12,32146.9,35296.1,1.1925,1.2002,147.4,97.3,0.507
24.14,31981.1,35130.4,1.182,1.1906,147.4,97.3,0.507
24.16,32112.8,35148.0,1.1903,1.1916,147.4,97.3,0.507
24.18,32030.2,35083.2,1.1851,1.1879,147.4,97.3,0.507
24.2,31943.6,34983.9,1.1796,1.1821,147.4,97.3,0.507
24.22,31877.8,34844.0,1.1754,1.174,147.4,97.3,0.507
24.24,31818.0,34694.6,1.1717,1.1654,147.4,97.3,0.507
24.26,31810.3,34646.8,1.1712,1.1626,147.4,97.3,0.507
24.28,31852.4,34612.2,1.1738,1.1606,147.4,97.3,0.507
24.3,31727.5,34621.2,1.1659,1.1611,147.4,97.3,0.507
24.32,31804.7,34560.5,1.1708,1.1576,147.4,97.3,0.507
24.34,31825.5,34371.6,1.1721,1.1467,147.4,97.3,0.507
24.36,31711.2,34529.9,1.1649,1.1558,147.4,97.3,0.507
24.38,31734.4,34525.8,1.1664,1.1556,147.4,97.3,0.507
24.4,31885.4,34757.3,1.1759,1.169,147.4,97.3,0.507
24.42,32142.6,35117.1,1.1922,1.1899,147.4,97.3,0.507
24.44,32268.9,35627.0,1.2002,1.2194,147.4,97.3,0.507
24.46,32366.3,35758.3,1.2064,1.227,147.4,97.3,0.507
24.48,32332.1,35670.7,1.2042,1.2219,147.4,97.3,0.507
24.5,32321.9,35579.9,1.2036,1.2167,147.4,97.3,0.507
24.52,32178.6,35333.1,1.1945,1.2024,147.4,97.3,0.507
24.54,32116.7,35171.7,1.1906,1.193,147.4,97.3,0.507
24.56,32059.4,35098.4,1.187,1.1888,147.4,97.3,0.507
24.58,32178.9,35128.7,1.1945,1.1905,147.4,97.3,0.507
24.6,31907.5,35028.7,1.1773,1.1847,147.4,97.3,0.507
24.62,32010.9,34948.2,1.1839,1.1801,147.4,97.3,0.507
24.64,31900.4,34785.0,1.1769,1.1706,147.4,97.3,0.507
24.66,31814.9,34782.1,1.1715,1.1704,147.4,97.3,0.507
24.68,31833.0,34700.2,1.1726,1.1657,147.4,97.3,0.507
24.7,31860.1,34642.5,1.1743,1.1623,147.4,97.3,0.507
24.72,31879.7,34560.1,1.1756,1.1576,147.4,97.3,0.507
24.74,31742.1,34594.1,1.1669,1.1595,147.4,97.3,0.507
24.76,31841.7,34402.9,1.1732,1.1485,147.4,97.3,0.507
24.78,31779.5,34518.8,1.1692,1.1552,147.4,97.3,0.507
24.8,31813.9,34657.9,1.1714,1.1632,147.4,97.3,0.507
24.82,31998.8,35071.2,1.1831,1.1872,147.4,97.3,0.507
24.84,32217.5,35396.6,1.197,1.206,147.4,97.3,0.507
24.86,32335.4,35675.4,1.2045,1.2222,147.4,97.3,0.507
24.88,32421.2,35726.6,1.2099,1.2252,147.4,97.3,0.507
24.9,32363.8,35685.3,1.2063,1.2228,147.4,97.3,0.507
24.92,32070.2,35410.0,1.1876,1.2068,147.4,97.3,0.507
24.94,32062.6,35314.6,1.1872,1.2013,147.4,97.3,0.507
24.96,32035.1,35131.3,1.1854,1.1907,147.4,97.3,0.507
24.98,32043.1,35053.6,1.1859,1.1862,147.4,97.3,0.507
25.0,32061.1,35041.0,1.1871,1.1854,147.4,97.3,0.507
25.02,32020.7,34954.0,1.1845,1.1804,147.4,97.3,0.507
25.04,31914.8,34769.0,1.1778,1.1697,147.4,97.3,0.507
25.06,31818.5,34621.0,1.1717,1.1611,147.4,97.3,0.507
25.08,31746.2,34661.2,1.1671,1.1634,147.4,97.3,0.507
25.1,31790.6,34689.0,1.1699,1.165,147.4,97.3,0.507
25.12,31774.7,34602.5,1.1689,1.16,147.4,97.3,0.507
25.14,31741.8,34515.9,1.1668,1.155,147.4,97.3,0.507
25.16,31748.1,34519.0,1.1672,1.1552,147.4,97.3,0.507
25.18,31729.9,34386.5,1.1661,1.1475,147.4,97.3,0.507
25.2,31801.8,34533.8,1.1706,1.1561,147.4,97.3,0.507
25.22,31970.1,34948.9,1.1813,1.1801,147.4,97.3,0.507
25.24,32118.6,35252.1,1.1907,1.1977,147.4,97.3,0.507
25.26,32247.0,35558.7,1.1988,1.2154,147.4,97.3,0.507
25.28,32347.3,35731.4,1.2052,1.2254,147.4,97.3,0.507
25.3,32277.4,35725.7,1.2008,1.2251,147.4,97.3,0.507
25.32,32233.7,35527.8,1.198,1.2137,147.4,97.3,0.507
25.34,32104.2,35328.7,1.1898,1.2021,147.4,97.3,0.507
25.36,32060.8,35245.3,1.187,1.1973,147.4,97.3,0.507
25.38,32025.7,35077.4,1.1848,1.1876,147.4,97.3,0.507
25.4,31914.5,35021.2,1.1778,1.1843,147.4,97.3,0.507
25.42,31945.3,34931.2,1.1797,1.1791,147.4,97.3,0.507
25.44,31952.0,34792.2,1.1802,1.171,147.4,97.3,0.507
25.46,31910.5,34772.8,1.1775,1.1699,147.4,97.3,0.507
25.48,31812.4,34676.7,1.1713,1.1643,147.4,97.3,0.507
25.5,31787.5,34646.1,1.1697,1.1626,147.4,97.3,0.507
25.52,31739.1,34672.5,1.1667,1.1641,147.4,97.3,0.507
25.54,31739.7,34585.7,1.1667,1.1591,147.4,97.3,0.507
25.56,31870.8,34418.9,1.175,1.1494,147.4,97.3,0.507
25.58,31677.2,34424.2,1.1627,1.1497,147.4,97.3,0.507
25.6,31778.7,34447.7,1.1692,1.1511,147.4,97.3,0.507
25.62,31892.1,34809.5,1.1764,1.172,147.4,97.3,0.507
25.64,32135.7,35141.0,1.1918,1.1912,147.4,97.3,0.507
25.66,32165.1,35551.5,1.1937,1.215,147.4,97.3,0.507
25.68,32258.7,35779.4,1.1996,1.2282,147.4,97.3,0.507
25.7,32277.0,35694.8,1.2008,1.2233,147.4,97.3,0.507
25.72,32223.4,35601.9,1.1974,1.2179,147.4,97.3,0.507
25.74,32169.3,35289.3,1.1939,1.1998,147.4,97.3,0.507
25.76,32176.8,35167.3,1.1944,1.1928,147.4,97.3,0.507
25.78,32027.5,35122.7,1.1849,1.1902,147.4,97.3,0.507
25.8,32033.0,35001.4,1.1853,1.1831,147.4,97.3,0.507
25.82,31947.0,34920.9,1.1798,1.1785,147.4,97.3,0.507
25.84,32042.5,34990.6,1.1859,1.1825,147.4,97.3,0.507
25.86,31913.8,34832.5,1.1777,1.1734,147.4,97.3,0.507
25.88,31859.2,34703.8,1.1743,1.1659,147.4,97.3,0.507
25.9,31886.8,34617.1,1.176,1.1609,147.4,97.3,0.507
25.92,31817.7,34662.8,1.1716,1.1635,147.4,97.3,0.507
25.94,31788.2,34600.3,1.1698,1.1599,147.4,97.3,0.507
25.96,31697.5,34556.7,1.164,1.1574,147.4,97.3,0.507
25.98,31763.1,34386.1,1.1682,1.1475,147.4,97.3,0.507
26.0,31785.9,34494.5,1.1696,1.1538,147.4,97.3,0.507
26.02,31883.0,34601.6,1.1758,1.16,147.4,97.3,0.507
26.04,31961.7,35030.4,1.1808,1.1848,147.4,97.3,0.507
26.06,32180.4,35392.8,1.1946,1.2058,147.4,97.3,0.507
26.08,32288.7,35707.2,1.2015,1.224,147.4,97.3,0.507
26.1,32339.0,35703.7,1.2047,1.2238,147.4,97.3,0.507
26.12,32293.1,35616.6,1.2018,1.2188,147.4,97.3,0.507
26.14,32125.0,35471.1,1.1911,1.2104,147.4,97.3,0.507
26.16,32044.0,35219.3,1.186,1.1958,147.4,97.3,0.507
26.18,32119.8,35083.9,1.1908,1.1879,147.4,97.3,0.507
26.2,32033.7,35076.0,1.1853,1.1875,147.4,97.3,0.507
26.22,31950.8,35033.2,1.1801,1.185,147.4,97.3,0.507
26.24,31973.6,34953.1,1.1815,1.1803,147.4,97.3,0.507
26.26,31877.0,34770.3,1.1754,1.1698,147.4,97.3,0.507
26.28,31858.8,34692.6,1.1742,1.1653,147.4,97.3,0.507
26.3,31782.7,34662.1,1.1694,1.1635,147.4,97.3,0.507
26.32,31885.1,34645.5,1.1759,1.1625,147.4,97.3,0.507
26.34,31887.5,34654.6,1.1761,1.163,147.4,97.3,0.507
26.36,31833.2,34525.0,1.1726,1.1555,147.4,97.3,0.507
26.38,31798.7,34454.0,1.1704,1.1514,147.4,97.3,0.507
26.4,31681.4,34517.0,1.163,1.1551,147.4,97.3,0.507
26.42,31750.7,34683.0,1.1674,1.1647,147.4,97.3,0.507
26.44,31903.5,34898.7,1.1771,1.1772,147.4,97.3,0.507
26.46,32177.2,35214.9,1.1944,1.1955,147.4,97.3,0.507
26.48,32232.4,35632.0,1.1979,1.2197,147.4,97.3,0.507
26.5,32406.1,35784.0,1.2089,1.2285,147.4,97.3,0.507
26.52,32211.7,35716.4,1.1966,1.2246,147.4,97.3,0.507
26.54,32258.6,35509.2,1.1996,1.2126,147.4,97.3,0.507
26.56,32143.8,35364.9,1.1923,1.2042,147.4,97.3,0.507
26.58,32064.3,35181.0,1.1873,1.1936,147.4,97.3,0.507
26.6,32058.7,35097.6,1.1869,1.1887,147.4,97.3,0.507
26.62,32020.6,35016.9,1.1845,1.184,147.4,97.3,0.507
26.64,32022.1,34928.0,1.1846,1.1789,147.4,97.3,0.507
26.66,31886.2,34910.2,1.176,1.1779,147.4,97.3,0.507
26.68,31924.5,34718.6,1.1784,1.1668,147.4,97.3,0.507
26.7,31872.1,34666.4,1.1751,1.1637,147.4,97.3,0.507
26.72,31808.6,34679.6,1.1711,1.1645,147.4,97.3,0.507
26.74,31837.6,34620.1,1.1729,1.161,147.4,97.3,0.507
26.76,31809.1,34671.5,1.1711,1.164,147.4,97.3,0.507
26.78,31702.3,34558.8,1.1643,1.1575,147.4,97.3,0.507
26.8,31755.3,34475.9,1.1677,1.1527,147.4,97.3,0.507
26.82,31848.1,34531.6,1.1736,1.1559,147.4,97.3,0.507
26.84,31857.1,34798.4,1.1741,1.1714,147.4,97.3,0.507
26.86,32089.2,35148.2,1.1889,1.1917,147.4,97.3,0.507
26.88,32295.4,35447.6,1.2019,1.209,147.4,97.3,0.507
26.9,32319.0,35704.2,1.2034,1.2239,147.4,97.3,0.507
26.92,32369.7,35765.9,1.2066,1.2274,147.4,97.3,0.507
26.94,32249.1,35566.6,1.199,1.2159,147.4,97.3,0.507
26.96,32224.2,35440.3,1.1974,1.2086,147.4,97.3,0.507
26.98,32210.3,35210.8,1.1965,1.1953,147.4,97.3,0.507
27.0,32039.4,35080.2,1.1857,1.1877,147.4,97.3,0.507
27.02,32064.3,35082.8,1.1873,1.1879,147.4,97.3,0.507
27.04,31991.5,35048.5,1.1827,1.1859,147.4,97.3,0.507
27.06,32020.7,34946.6,1.1845,1.18,147.4,97.3,0.507
27.08,31859.8,34799.7,1.1743,1.1715,147.4,97.3,0.507
27.1,31713.9,34687.6,1.1651,1.165,147.4,97.3,0.507
27.12,31859.0,34749.6,1.1743,1.1686,147.4,97.3,0.507
27.14,31877.8,34650.9,1.1755,1.1628,147.4,97.3,0.507
27.16,31784.1,34663.8,1.1695,1.1636,147.4,97.3,0.507
27.18,31760.8,34537.6,1.168,1.1563,147.4,97.3,0.507
27.2,31814.8,34449.9,1.1715,1.1512,147.4,97.3,0.507
27.22,31759.5,34444.0,1.168,1.1508,147.4,97.3,0.507
27.24,31980.3,34619.7,1.1819,1.161,147.4,97.3,0.507
27.26,32113.7,35094.2,1.1904,1.1885,147.4,97.3,0.507
27.28,32127.0,35482.9,1.1912,1.211,147.4,97.3,0.507
27.3,32320.0,35616.4,1.2035,1.2188,147.4,97.3,0.507
27.32,32388.2,35796.7,1.2078,1.2292,147.4,97.3,0.507
27.34,32333.3,35676.2,1.2043,1.2222,147.4,97.3,0.507
27.36,32233.0,35462.5,1.198,1.2099,147.4,97.3,0.507
27.38,32146.5,35284.3,1.1925,1.1995,147.4,97.3,0.507
27.4,32020.9,35295.5,1.1845,1.2002,147.4,97.3,0.507
27.42,32010.4,35049.8,1.1839,1.186,147.4,97.3,0.507
27.44,32114.8,34966.9,1.1905,1.1811,147.4,97.3,0.507
27.46,31971.4,34913.5,1.1814,1.1781,147.4,97.3,0.507
27.48,31941.5,34806.7,1.1795,1.1719,147.4,97.3,0.507
27.5,31897.7,34705.3,1.1767,1.166,147.4,97.3,0.507
27.52,31953.9,34657.9,1.1803,1.1632,147.4,97.3,0.507
27.54,31959.5,34609.9,1.1806,1.1605,147.4,97.3,0.507
27.56,31816.1,34657.8,1.1715,1.1632,147.4,97.3,0.507
27.58,31726.7,34642.5,1.1659,1.1624,147.4,97.3,0.507
27.6,31727.0,34442.8,1.1659,1.1508,147.4,97.3,0.507
27.62,31788.0,34396.3,1.1698,1.1481,147.4,97.3,0.507
27.64,31830.3,34536.4,1.1724,1.1562,147.4,97.3,0.507
27.66,31926.7,34891.4,1.1785,1.1768,147.4,97.3,0.507
27.68,32180.4,35300.1,1.1946,1.2005,147.4,97.3,0.507
27.7,32316.4,35603.4,1.2033,1.218,147.4,97.3,0.507
27.72,32353.8,35809.1,1.2056,1.2299,147.4,97.3,0.507
27.74,32308.9,35677.2,1.2028,1.2223,147.4,97.3,0.507
27.76,32253.8,35564.2,1.1993,1.2158,147.4,97.3,0.507
27.78,32013.4,35364.4,1.184,1.2042,147.4,97.3,0.507
27.8,32026.6,35076.1,1.1849,1.1875,147.4,97.3,0.507
27.82,32143.9,35022.3,1.1923,1.1844,147.4,97.3,0.507
27.84,32041.8,34950.3,1.1858,1.1802,147.4,97.3,0.507
27.86,32059.1,34969.1,1.1869,1.1813,147.4,97.3,0.507
27.88,32041.7,34872.1,1.1858,1.1757,147.4,97.3,0.507
27.9,31929.5,34829.3,1.1787,1.1732,147.4,97.3,0.507
27.92,31856.7,34689.8,1.1741,1.1651,147.4,97.3,0.507
27.94,31871.0,34788.5,1.175,1.1708,147.4,97.3,0.507
27.96,31828.2,34558.7,1.1723,1.1575,147.4,97.3,0.507
27.98,31988.7,34586.5,1.1825,1.1591,147.4,97.3,0.507
28.0,31770.4,34507.0,1.1686,1.1545,147.4,97.3,0.507
28.02,31711.6,34440.3,1.1649,1.1506,147.4,97.3,0.507
28.04,31725.0,34545.5,1.1658,1.1567,147.4,97.3,0.507
28.06,31791.2,34751.0,1.17,1.1686,147.4,97.3,0.507
28.08,32022.0,35178.5,1.1846,1.1934,147.4,97.3,0.507
28.1,32211.9,35514.3,1.1966,1.2129,147.4,97.3,0.507
28.12,32328.9,35796.3,1.204,1.2292,147.4,97.3,0.507
28.14,32420.8,35778.1,1.2099,1.2282,147.4,97.3,0.507
28.16,32295.9,35586.1,1.2019,1.217,147.4,97.3,0.507
28.18,32184.8,35418.3,1.1949,1.2073,147.4,97.3,0.507
28.2,32159.6,35192.5,1.1933,1.1942,147.4,97.3,0.507
28.22,31966.9,35095.6,1.1811,1.1886,147.4,97.3,0.507
28.24,32034.2,34987.4,1.1854,1.1823,147.4,97.3,0.507
28.26,31925.7,35010.5,1.1785,1.1837,147.4,97.3,0.507
28.28,31966.0,34917.0,1.181,1.1783,147.4,97.3,0.507
28.3,31916.1,34899.2,1.1779,1.1772,147.4,97.3,0.507
28.32,31874.8,34623.5,1.1753,1.1612,147.4,97.3,0.507
28.34,31845.9,34643.1,1.1734,1.1624,147.4,97.3,0.507
28.36,31840.9,34649.3,1.1731,1.1627,147.4,97.3,0.507
28.38,31883.8,34573.2,1.1758,1.1583,147.4,97.3,0.507
28.4,31700.6,34518.0,1.1642,1.1551,147.4,97.3,0.507
28.42,31702.3,34522.2,1.1643,1.1554,147.4,97.3,0.507
28.44,31691.9,34531.0,1.1637,1.1559,147.4,97.3,0.507
28.46,31838.5,34647.8,1.173,1.1627,147.4,97.3,0.507
28.48,32056.2,34977.0,1.1868,1.1817,147.4,97.3,0.507
28.5,32168.6,35296.8,1.1939,1.2003,147.4,97.3,0.507
28.52,32304.7,35576.3,1.2025,1.2165,147.4,97.3,0.507
28.54,32246.3,35666.5,1.1988,1.2217,147.4,97.3,0.507
28.56,32317.4,35642.8,1.2033,1.2203,147.4,97.3,0.507
28.58,32233.2,35450.9,1.198,1.2092,147.4,97.3,0.507
28.6,32103.2,35317.9,1.1897,1.2015,147.4,97.3,0.507
28.62,32058.6,35216.1,1.1869,1.1956,147.4,97.3,0.507
28.64,31970.1,35029.1,1.1813,1.1847,147.4,97.3,0.507
28.66,31976.8,35062.6,1.1817,1.1867,147.4,97.3,0.507
28.68,32017.1,34996.3,1.1843,1.1828,147.4,97.3,0.507
28.7,31935.1,34909.1,1.1791,1.1778,147.4,97.3,0.507
28.72,31924.0,34653.4,1.1784,1.163,147.4,97.3,0.507
28.74,31912.6,34687.8,1.1777,1.165,147.4,97.3,0.507
28.76,31791.1,34624.1,1.17,1.1613,147.4,97.3,0.507
28.78,31826.5,34597.7,1.1722,1.1598,147.4,97.3,0.507
28.8,31847.4,34680.2,1.1735,1.1645,147.4,97.3,0.507
28.82,31746.7,34544.1,1.1671,1.1566,147.4,97.3,0.507
28.84,31704.6,34424.2,1.1645,1.1497,147.4,97.3,0.507
28.86,31755.9,34656.5,1.1677,1.1632,147.4,97.3,0.507
28.88,31954.7,34901.0,1.1803,1.1773,147.4,97.3,0.507
28.9,32053.1,35314.6,1.1866,1.2013,147.4,97.3,0.507
28.92,32153.4,35474.3,1.1929,1.2105,147.4,97.3,0.507
28.94,32426.9,35748.6,1.2103,1.2264,147.4,97.3,0.507
28.96,32349.1,35662.4,1.2053,1.2214,147.4,97.3,0.507
28.98,32189.6,35394.9,1.1952,1.2059,147.4,97.3,0.507
29.0,32193.4,35298.3,1.1955,1.2004,147.4,97.3,0.507
29.02,32137.5,35197.6,1.1919,1.1945,147.4,97.3,0.507
29.04,32097.6,35003.3,1.1894,1.1833,147.4,97.3,0.507
29.06,32053.1,35047.9,1.1866,1.1858,147.4,97.3,0.507
29.08,32043.0,35017.0,1.1859,1.184,147.4,97.3,0.507
29.1,31949.8,34958.4,1.18,1.1807,147.4,97.3,0.507
29.12,31906.8,34836.0,1.1773,1.1736,147.4,97.3,0.507
29.14,31799.5,34675.5,1.1705,1.1643,147.4,97.3,0.507
29.16,31863.9,34638.5,1.1746,1.1621,147.4,97.3,0.507
29.18,31858.3,34655.1,1.1742,1.1631,147.4,97.3,0.507
29.2,31858.4,34676.9,1.1742,1.1643,147.4,97.3,0.507
29.22,31853.7,34532.7,1.1739,1.156,147.4,97.3,0.507
29.24,31734.4,34470.1,1.1664,1.1524,147.4,97.3,0.507
29.26,31800.2,34477.7,1.1705,1.1528,147.4,97.3,0.507
29.28,31962.3,34726.6,1.1808,1.1672,147.4,97.3,0.507
29.3,32093.3,35124.1,1.1891,1.1903,147.4,97.3,0.507
29.32,32318.8,35560.7,1.2034,1.2156,147.4,97.3,0.507
29.34,32312.2,35740.3,1.203,1.226,147.4,97.3,0.507
29.36,32280.6,35780.4,1.201,1.2283,147.4,97.3,0.507
29.38,32272.5,35585.2,1.2005,1.217,147.4,97.3,0.507
29.4,32159.9,35380.1,1.1933,1.2051,147.4,97.3,0.507
29.42,32171.7,35233.4,1.1941,1.1966,147.4,97.3,0.507
29.44,32046.8,35131.5,1.1862,1.1907,147.4,97.3,0.507
29.46,32054.7,35049.2,1.1867,1.1859,147.4,97.3,0.507
29.48,31965.3,34930.0,1.181,1.179,147.4,97.3,0.507
29.5,31913.5,34917.3,1.1777,1.1783,147.4,97.3,0.507
29.52,31943.8,34856.2,1.1796,1.1747,147.4,97.3,0.507
29.54,31851.2,34710.0,1.1738,1.1663,147.4,97.3,0.507
29.56,31780.2,34690.1,1.1693,1.1651,147.4,97.3,0.507
29.58,31821.8,34647.0,1.1719,1.1626,147.4,97.3,0.507
29.6,31793.4,34637.9,1.1701,1.1621,147.4,97.3,0.507
29.62,31781.4,34621.6,1.1693,1.1611,147.4,97.3,0.507
29.64,31687.1,34463.7,1.1634,1.152,147.4,97.3,0.507
29.66,31752.7,34390.7,1.1675,1.1478,147.4,97.3,0.507
29.68,31781.3,34578.8,1.1693,1.1587,147.4,97.3,0.507
29.7,31940.6,34970.1,1.1794,1.1813,147.4,97.3,0.507
29.72,32177.1,35423.5,1.1944,1.2076,147.4,97.3,0.507
29.74,32285.0,35635.5,1.2013,1.2199,147.4,97.3,0.507
29.76,32326.2,35765.3,1.2039,1.2274,147.4,97.3,0.507
29.78,32268.1,35758.0,1.2002,1.227,147.4,97.3,0.507
29.8,32208.7,35424.7,1.1964,1.2077,147.4,97.3,0.507
29.82,32169.4,35351.3,1.1939,1.2034,147.4,97.3,0.507
29.84,32022.3,35112.9,1.1846,1.1896,147.4,97.3,0.507
29.86,31948.5,35163.1,1.1799,1.1925,147.4,97.3,0.507
29.88,31997.1,35133.4,1.183,1.1908,147.4,97.3,0.507
29.9,31975.5,34976.5,1.1816,1.1817,147.4,97.3,0.507
29.92,31903.5,34891.4,1.1771,1.1768,147.4,97.3,0.507
29.94,31982.9,34711.3,1.1821,1.1663,147.4,97.3,0.507
29.96,31812.9,34682.8,1.1713,1.1647,147.4,97.3,0.507
29.98,31830.4,34746.8,1.1724,1.1684,147.4,97.3,0.507
30.0,31813.9,34669.4,1.1714,1.1639,147.4,97.3,0.507
30.02,31787.9,34633.5,1.1697,1.1618,147.4,97.3,0.507
30.04,31726.1,34483.9,1.1658,1.1532,147.4,97.3,0.507
30.06,31728.7,34458.3,1.166,1.1517,147.4,97.3,0.507
30.08,31969.7,34481.5,1.1813,1.153,147.4,97.3,0.507
30.1,31981.9,34785.1,1.1821,1.1706,147.4,97.3,0.507
30.12,32107.4,35198.7,1.19,1.1946,147.4,97.3,0.507
30.14,32218.3,35510.3,1.197,1.2126,147.4,97.3,0.507
30.16,32487.5,35786.6,1.2141,1.2286,147.4,97.3,0.507
30.18,32363.6,35750.3,1.2062,1.2265,147.4,97.3,0.507
30.2,32285.8,35474.8,1.2013,1.2106,147.4,97.3,0.507
30.22,32124.8,35317.7,1.1911,1.2015,147.4,97.3,0.507
30.24,32143.0,35204.9,1.1923,1.1949,147.4,97.3,0.507
30.26,32051.0,35201.3,1.1864,1.1947,147.4,97.3,0.507
30.28,32069.7,35087.8,1.1876,1.1882,147.4,97.3,0.507
30.3,32010.5,35008.8,1.1839,1.1836,147.4,97.3,0.507
30.32,31915.0,34875.0,1.1778,1.1758,147.4,97.3,0.507
30.34,31847.0,34746.6,1.1735,1.1684,147.4,97.3,0.507
30.36,31886.3,34727.6,1.176,1.1673,147.4,97.3,0.507
30.38,31851.7,34735.5,1.1738,1.1677,147.4,97.3,0.507
30.4,31806.4,34628.8,1.1709,1.1616,147.4,97.3,0.507
30.42,31868.5,34607.1,1.1749,1.1603,147.4,97.3,0.507
30.44,31746.3,34545.1,1.1671,1.1567,147.4,97.3,0.507
30.46,31762.2,34514.1,1.1681,1.1549,147.4,97.3,0.507
30.48,31705.1,34544.8,1.1645,1.1567,147.4,97.3,0.507
30.5,31817.4,34699.1,1.1716,1.1656,147.4,97.3,0.507
30.52,32078.8,35105.9,1.1882,1.1892,147.4,97.3,0.507
30.54,32222.5,35473.6,1.1973,1.2105,147.4,97.3,0.507
30.56,32294.2,35680.2,1.2018,1.2225,147.4,97.3,0.507
30.58,32357.2,35807.0,1.2058,1.2298,147.4,97.3,0.507
30.6,32313.4,35612.0,1.2031,1.2185,147.4,97.3,0.507
30.62,32163.9,35405.7,1.1936,1.2066,147.4,97.3,0.507
30.64,32019.4,35181.5,1.1844,1.1936,147.4,97.3,0.507
30.66,32106.1,35144.8,1.1899,1.1915,147.4,97.3,0.507
30.68,31974.1,35047.9,1.1816,1.1858,147.4,97.3,0.507
30.7,32000.9,35120.6,1.1833,1.1901,147.4,97.3,0.507
30.72,31905.9,35022.6,1.1772,1.1844,147.4,97.3,0.507
30.74,32008.4,34842.7,1.1837,1.174,147.4,97.3,0.507
30.76,31866.3,34679.9,1.1747,1.1645,147.4,97.3,0.507
30.78,31752.4,34601.9,1.1675,1.16,147.4,97.3,0.507
30.8,31863.7,34643.7,1.1746,1.1624,147.4,97.3,0.507
30.82,31866.2,34552.1,1.1747,1.1571,147.4,97.3,0.507
30.84,31818.0,34567.2,1.1717,1.158,147.4,97.3,0.507
30.86,31736.4,34466.5,1.1665,1.1521,147.4,97.3,0.507
30.88,31774.5,34462.6,1.1689,1.1519,147.4,97.3,0.507
30.9,31909.1,34579.1,1.1774,1.1587,147.4,97.3,0.507
30.92,32017.7,34900.4,1.1843,1.1773,147.4,97.3,0.507
30.94,32101.7,35335.8,1.1896,1.2025,147.4,97.3,0.507
30.96,32293.0,35615.4,1.2018,1.2187,147.4,97.3,0.507
30.98,32372.0,35785.7,1.2068,1.2286,147.4,97.3,0.507
31.0,32321.6,35694.1,1.2036,1.2233,147.4,97.3,0.507
31.02,32155.5,35498.3,1.1931,1.2119,147.4,97.3,0.507
31.04,32199.3,35256.2,1.1958,1.1979,147.4,97.3,0.507
31.06,32036.1,35215.9,1.1855,1.1956,147.4,97.3,0.507
31.08,31982.6,35038.8,1.1821,1.1853,147.4,97.3,0.507
31.1,32072.6,35010.7,1.1878,1.1837,147.4,97.3,0.507
31.12,31963.8,34911.9,1.1809,1.178,147.4,97.3,0.507
31.14,31924.8,34834.9,1.1784,1.1735,147.4,97.3,0.507
31.16,31897.4,34716.5,1.1767,1.1666,147.4,97.3,0.507
31.18,31852.8,34689.1,1.1739,1.165,147.4,97.3,0.507
31.2,31891.8,34674.2,1.1763,1.1642,147.4,97.3,0.507
31.22,31802.2,34630.6,1.1707,1.1617,147.4,97.3,0.507
31.24,31803.6,34616.0,1.1707,1.1608,147.4,97.3,0.507
31.26,31649.2,34522.6,1.161,1.1554,147.4,97.3,0.507
31.28,31820.7,34408.8,1.1718,1.1488,147.4,97.3,0.507
31.3,31810.7,34541.5,1.1712,1.1565,147.4,97.3,0.507
31.32,31896.9,34815.8,1.1767,1.1724,147.4,97.3,0.507
31.34,32115.3,35166.8,1.1905,1.1927,147.4,97.3,0.507
31.36,32229.9,35553.0,1.1978,1.2151,147.4,97.3,0.507
31.38,32439.7,35794.2,1.2111,1.2291,147.4,97.3,0.507
31.4,32337.6,35670.0,1.2046,1.2219,147.4,97.3,0.507
31.42,32308.9,35528.4,1.2028,1.2137,147.4,97.3,0.507
31.44,32092.9,35390.2,1.1891,1.2057,147.4,97.3,0.507
31.46,32078.2,35289.0,1.1882,1.1998,147.4,97.3,0.507
31.48,32030.0,35107.4,1.1851,1.1893,147.4,97.3,0.507
31.5,32086.0,35053.7,1.1886,1.1862,147.4,97.3,0.507
31.52,31937.0,34973.6,1.1792,1.1815,147.4,97.3,0.507
31.54,31865.9,34945.9,1.1747,1.1799,147.4,97.3,0.507
31.56,31874.8,34831.4,1.1753,1.1733,147.4,97.3,0.507
31.58,31897.4,34675.4,1.1767,1.1643,147.4,97.3,0.507
31.6,31865.7,34653.6,1.1747,1.163,147.4,97.3,0.507
31.62,31909.4,34685.7,1.1775,1.1649,147.4,97.3,0.507
31.64,31797.0,34605.9,1.1703,1.1602,147.4,97.3,0.507
31.66,31913.3,34601.4,1.1777,1.16,147.4,97.3,0.507
31.68,31684.2,34445.6,1.1632,1.1509,147.4,97.3,0.507
31.7,31875.5,34520.1,1.1753,1.1553,147.4,97.3,0.507
31.72,31909.3,34773.5,1.1774,1.1699,147.4,97.3,0.507
31.74,32098.4,35041.7,1.1894,1.1855,147.4,97.3,0.507
31.76,32275.9,35454.3,1.2007,1.2094,147.4,97.3,0.507
31.78,32355.2,35731.2,1.2057,1.2254,147.4,97.3,0.507
31.8,32437.3,35709.6,1.2109,1.2242,147.4,97.3,0.507
31.82,32279.8,35563.3,1.2009,1.2157,147.4,97.3,0.507
31.84,32211.1,35396.5,1.1966,1.206,147.4,97.3,0.507
31.86,32154.9,35205.9,1.193,1.195,147.4,97.3,0.507
31.88,32045.3,35222.0,1.1861,1.1959,147.4,97.3,0.507
31.9,32046.2,35103.3,1.1861,1.1891,147.4,97.3,0.507
31.92,32043.1,35042.6,1.1859,1.1855,147.4,97.3,0.507
31.94,31891.9,34871.7,1.1763,1.1756,147.4,97.3,0.507
31.96,31877.0,34743.0,1.1754,1.1682,147.4,97.3,0.507
31.98,31816.2,34694.3,1.1715,1.1654,147.4,97.3,0.507
32.0,31881.5,34626.2,1.1757,1.1614,147.4,97.3,0.507
32.02,31880.5,34684.1,1.1756,1.1648,147.4,97.3,0.507
32.04,31834.1,34594.9,1.1727,1.1596,147.4,97.3,0.507
32.06,31816.5,34499.0,1.1716,1.154,147.4,97.3,0.507
32.08,31797.4,34400.4,1.1704,1.1483,147.4,97.3,0.507
32.1,31797.6,34460.7,1.1704,1.1518,147.4,97.3,0.507
32.12,31845.2,34597.0,1.1734,1.1597,147.4,97.3,0.507
32.14,32033.1,34897.0,1.1853,1.1771,147.4,97.3,0.507
32.16,32229.7,35312.2,1.1978,1.2012,147.4,97.3,0.507
32.18,32241.7,35622.6,1.1985,1.2191,147.4,97.3,0.507
32.2,32335.6,35775.8,1.2045,1.228,147.4,97.3,0.507
32.22,32351.7,35716.3,1.2055,1.2246,147.4,97.3,0.507
32.24,32334.0,35482.1,1.2044,1.211,147.4,97.3,0.507
32.26,32192.4,35263.3,1.1954,1.1983,147.4,97.3,0.507
32.28,31981.4,35161.0,1.182,1.1924,147.4,97.3,0.507
32.3,32010.4,35123.6,1.1839,1.1902,147.4,97.3,0.507
32.32,32040.5,35060.2,1.1858,1.1866,147.4,97.3,0.507
32.34,32011.9,34932.3,1.184,1.1791,147.4,97.3,0.507
32.36,31903.0,34855.6,1.177,1.1747,147.4,97.3,0.507
32.38,31809.5,34862.0,1.1711,1.1751,147.4,97.3,0.507
32.4,31827.9,34715.9,1.1723,1.1666,147.4,97.3,0.507
32.42,31839.9,34587.2,1.173,1.1591,147.4,97.3,0.507
32.44,31817.5,34684.4,1.1716,1.1648,147.4,97.3,0.507
32.46,31753.2,34612.9,1.1676,1.1606,147.4,97.3,0.507
32.48,31691.3,34483.7,1.1636,1.1531,147.4,97.3,0.507
32.5,31764.8,34440.4,1.1683,1.1506,147.4,97.3,0.507
32.52,31823.7,34548.2,1.172,1.1569,147.4,97.3,0.507
32.54,31921.2,34884.7,1.1782,1.1764,147.4,97.3,0.507
32.56,32148.7,35212.2,1.1926,1.1954,147.4,97.3,0.507
32.58,32130.8,35587.2,1.1915,1.2171,147.4,97.3,0.507
32.6,32357.8,35699.1,1.2059,1.2236,147.4,97.3,0.507
32.62,32367.0,35683.0,1.2065,1.2226,147.4,97.3,0.507
32.64,32184.8,35584.5,1.1949,1.2169,147.4,97.3,0.507
32.66,32122.4,35266.2,1.191,1.1985,147.4,97.3,0.507
32.68,32104.7,35223.0,1.1898,1.196,147.4,97.3,0.507
32.7,32068.3,35139.1,1.1875,1.1911,147.4,97.3,0.507
32.72,32033.9,35091.3,1.1853,1.1884,147.4,97.3,0.507
32.74,32064.3,34916.2,1.1873,1.1782,147.4,97.3,0.507
32.76,31991.4,34825.7,1.1826,1.173,147.4,97.3,0.507
32.78,31863.7,34863.6,1.1746,1.1752,147.4,97.3,0.507
32.8,31800.3,34679.2,1.1705,1.1645,147.4,97.3,0.507
32.82,31720.7,34686.6,1.1655,1.1649,147.4,97.3,0.507
32.84,31774.8,34741.2,1.1689,1.1681,147.4,97.3,0.507
32.86,31841.5,34649.6,1.1732,1.1628,147.4,97.3,0.507
32.88,31780.2,34488.7,1.1693,1.1534,147.4,97.3,0.507
32.9,31799.9,34506.8,1.1705,1.1545,147.4,97.3,0.507
32.92,31669.7,34449.7,1.1623,1.1512,147.4,97.3,0.507
32.94,31851.8,34718.6,1.1738,1.1668,147.4,97.3,0.507
32.96,32059.7,35059.1,1.187,1.1865,147.4,97.3,0.507
32.98,32245.2,35403.7,1.1987,1.2065,147.4,97.3,0.507
33.0,32318.9,35843.2,1.2034,1.2319,147.4,97.3,0.507
33.02,32376.7,35853.7,1.2071,1.2325,147.4,97.3,0.507
33.04,32250.3,35598.3,1.1991,1.2177,147.4,97.3,0.507
33.06,32266.5,35446.8,1.2001,1.209,147.4,97.3,0.507
33.08,32115.5,35245.0,1.1905,1.1973,147.4,97.3,0.507
33.1,32062.2,35069.3,1.1871,1.1871,147.4,97.3,0.507
33.12,32024.4,34992.5,1.1847,1.1826,147.4,97.3,0.507
33.14,32054.3,35039.4,1.1866,1.1854,147.4,97.3,0.507
33.16,31865.4,34931.5,1.1747,1.1791,147.4,97.3,0.507
33.18,31931.5,34791.6,1.1789,1.171,147.4,97.3,0.507
33.2,31831.8,34762.4,1.1725,1.1693,147.4,97.3,0.507
33.22,31869.8,34658.1,1.1749,1.1633,147.4,97.3,0.507
33.24,31846.8,34654.0,1.1735,1.163,147.4,97.3,0.507
33.26,31812.3,34784.2,1.1713,1.1706,147.4,97.3,0.507
33.28,31785.1,34544.6,1.1696,1.1567,147.4,97.3,0.507
33.3,31776.6,34444.9,1.169,1.1509,147.4,97.3,0.507
33.32,31694.3,34402.7,1.1638,1.1485,147.4,97.3,0.507
33.34,31814.5,34660.7,1.1714,1.1634,147.4,97.3,0.507
33.36,31959.6,34891.3,1.1806,1.1768,147.4,97.3,0.507
33.38,32203.0,35326.6,1.1961,1.202,147.4,97.3,0.507
33.4,32279.2,35658.6,1.2009,1.2212,147.4,97.3,0.507
33.42,32323.5,35697.8,1.2037,1.2235,147.4,97.3,0.507
33.44,32329.3,35664.8,1.2041,1.2216,147.4,97.3,0.507
33.46,32252.9,35474.9,1.1992,1.2106,147.4,97.3,0.507
33.48,32119.1,35265.1,1.1907,1.1984,147.4,97.3,0.507
33.5,32108.6,35187.9,1.1901,1.194,147.4,97.3,0.507
33.52,31969.2,35067.0,1.1812,1.1869,147.4,97.3,0.507
33.54,31974.3,35059.1,1.1816,1.1865,147.4,97.3,0.507
33.56,31926.3,34937.0,1.1785,1.1794,147.4,97.3,0.507
33.58,31882.6,34783.0,1.1758,1.1705,147.4,97.3,0.507
33.6,31840.1,34708.5,1.1731,1.1662,147.4,97.3,0.507
33.62,31787.6,34658.4,1.1697,1.1633,147.4,97.3,0.507
33.64,31911.0,34653.3,1.1776,1.163,147.4,97.3,0.507
33.66,31826.7,34645.3,1.1722,1.1625,147.4,97.3,0.507
33.68,31806.5,34581.3,1.1709,1.1588,147.4,97.3,0.507
33.7,31732.9,34425.1,1.1663,1.1498,147.4,97.3,0.507
33.72,31646.5,34393.1,1.1608,1.1479,147.4,97.3,0.507
33.74,31873.6,34574.8,1.1752,1.1584,147.4,97.3,0.507
33.76,31807.5,34729.5,1.171,1.1674,147.4,97.3,0.507
33.78,32113.7,35202.8,1.1904,1.1948,147.4,97.3,0.507
33.8,32164.1,35455.0,1.1936,1.2094,147.4,97.3,0.507
33.82,32266.4,35709.0,1.2001,1.2241,147.4,97.3,0.507
33.84,32388.6,35722.4,1.2078,1.2249,147.4,97.3,0.507
33.86,32303.7,35639.2,1.2024,1.2201,147.4,97.3,0.507
33.88,32224.7,35357.9,1.1974,1.2038,147.4,97.3,0.507
33.9,32128.4,35261.6,1.1913,1.1982,147.4,97.3,0.507
33.92,32026.2,35204.5,1.1849,1.1949,147.4,97.3,0.507
33.94,32055.8,35097.2,1.1867,1.1887,147.4,97.3,0.507
33.96,31990.9,35002.7,1.1826,1.1832,147.4,97.3,0.507
33.98,31934.2,34876.8,1.179,1.1759,147.4,97.3,0.507
34.0,31894.2,34784.6,1.1765,1.1706,147.4,97.3,0.507
34.02,31837.3,34860.9,1.1729,1.175,147.4,97.3,0.507
34.04,31814.5,34602.9,1.1714,1.1601,147.4,97.3,0.507
34.06,31872.8,34637.9,1.1751,1.1621,147.4,97.3,0.507
34.08,31698.0,34664.9,1.1641,1.1636,147.4,97.3,0.507
34.1,31750.3,34568.4,1.1674,1.1581,147.4,97.3,0.507
34.12,31762.6,34495.6,1.1681,1.1538,147.4,97.3,0.507
34.14,31721.9,34492.6,1.1656,1.1537,147.4,97.3,0.507
34.16,31829.0,34740.9,1.1724,1.1681,147.4,97.3,0.507
34.18,32102.0,35052.7,1.1897,1.1861,147.4,97.3,0.507
34.2,32165.4,35443.0,1.1937,1.2087,147.4,97.3,0.507
34.22,32247.6,35747.9,1.1989,1.2264,147.4,97.3,0.507
34.24,32390.1,35740.4,1.2079,1.226,147.4,97.3,0.507
34.26,32202.7,35627.4,1.196,1.2194,147.4,97.3,0.507
34.28,32253.8,35412.2,1.1993,1.207,147.4,97.3,0.507
34.3,32248.7,35363.3,1.199,1.2041,147.4,97.3,0.507
34.32,32027.2,35152.8,1.1849,1.1919,147.4,97.3,0.507
34.34,31844.6,35184.9,1.1733,1.1938,147.4,97.3,0.507
34.36,32143.6,35135.4,1.1923,1.1909,147.4,97.3,0.507
34.38,32008.9,34873.4,1.1838,1.1757,147.4,97.3,0.507
34.4,31966.2,34738.9,1.1811,1.1679,147.4,97.3,0.507
34.42,31997.4,34801.6,1.183,1.1716,147.4,97.3,0.507
34.44,31864.5,34648.2,1.1746,1.1627,147.4,97.3,0.507
34.46,31892.7,34635.8,1.1764,1.162,147.4,97.3,0.507
34.48,31752.1,34569.0,1.1675,1.1581,147.4,97.3,0.507
34.5,31781.0,34616.0,1.1693,1.1608,147.4,97.3,0.507
34.52,31724.0,34405.5,1.1657,1.1486,147.4,97.3,0.507
34.54,31720.7,34523.2,1.1655,1.1554,147.4,97.3,0.507
34.56,31867.2,34673.2,1.1748,1.1641,147.4,97.3,0.507
34.58,31889.9,34952.9,1.1762,1.1803,147.4,97.3,0.507
34.6,32105.7,35218.0,1.1899,1.1957,147.4,97.3,0.507
34.62,32214.8,35611.0,1.1968,1.2185,147.4,97.3,0.507
34.64,32297.8,35764.5,1.2021,1.2274,147.4,97.3,0.507
34.66,32408.3,35678.9,1.2091,1.2224,147.4,97.3,0.507
34.68,32272.4,35471.6,1.2005,1.2104,147.4,97.3,0.507
34.7,32177.4,35333.4,1.1944,1.2024,147.4,97.3,0.507
34.72,32050.1,35184.8,1.1864,1.1938,147.4,97.3,0.507
34.74,32061.7,35054.9,1.1871,1.1862,147.4,97.3,0.507
34.76,32065.4,35055.8,1.1873,1.1863,147.4,97.3,0.507
34.78,31958.6,34893.0,1.1806,1.1769,147.4,97.3,0.507
34.8,31885.3,34971.9,1.1759,1.1814,147.4,97.3,0.507
34.82,31896.5,34700.0,1.1766,1.1657,147.4,97.3,0.507
34.84,31918.3,34700.1,1.178,1.1657,147.4,97.3,0.507
34.86,31781.6,34644.2,1.1693,1.1624,147.4,97.3,0.507
34.88,31865.0,34690.9,1.1746,1.1652,147.4,97.3,0.507
34.9,31842.2,34632.8,1.1732,1.1618,147.4,97.3,0.507
34.92,31733.5,34511.1,1.1663,1.1547,147.4,97.3,0.507
34.94,31715.4,34446.1,1.1652,1.151,147.4,97.3,0.507
34.96,31869.0,34513.8,1.1749,1.1549,147.4,97.3,0.507
34.98,31947.4,34886.5,1.1799,1.1765,147.4,97.3,0.507
35.0,32092.4,35169.4,1.189,1.1929,147.4,97.3,0.507
35.02,32180.3,35535.2,1.1946,1.2141,147.4,97.3,0.507
35.04,32413.2,35728.8,1.2094,1.2253,147.4,97.3,0.507
35.06,32243.3,35669.0,1.1986,1.2218,147.4,97.3,0.507
35.08,32304.4,35613.3,1.2025,1.2186,147.4,97.3,0.507
35.1,32278.3,35395.8,1.2008,1.206,147.4,97.3,0.507
35.12,32103.1,35191.2,1.1897,1.1941,147.4,97.3,0.507
35.14,32036.6,35141.7,1.1855,1.1913,147.4,97.3,0.507
35.16,32018.4,35052.5,1.1844,1.1861,147.4,97.3,0.507
35.18,32028.0,35061.6,1.185,1.1866,147.4,97.3,0.507
35.2,31985.1,34834.9,1.1823,1.1735,147.4,97.3,0.507
35.22,31851.6,34826.8,1.1738,1.173,147.4,97.3,0.507
35.24,31812.4,34724.3,1.1713,1.1671,147.4,97.3,0.507
35.26,31868.1,34669.1,1.1748,1.1639,147.4,97.3,0.507
35.28,31909.7,34703.2,1.1775,1.1659,147.4,97.3,0.507
35.3,31865.3,34586.9,1.1747,1.1591,147.4,97.3,0.507
35.32,31885.2,34583.9,1.1759,1.159,147.4,97.3,0.507
35.34,31739.0,34352.6,1.1667,1.1455,147.4,97.3,0.507
35.36,31744.5,34451.1,1.167,1.1513,147.4,97.3,0.507
35.38,31945.3,34712.9,1.1797,1.1664,147.4,97.3,0.507
35.4,31927.4,35014.0,1.1786,1.1839,147.4,97.3,0.507
35.42,32192.0,35383.0,1.1954,1.2053,147.4,97.3,0.507
35.44,32333.1,35592.4,1.2043,1.2174,147.4,97.3,0.507
35.46,32331.7,35765.1,1.2042,1.2274,147.4,97.3,0.507
35.48,32316.5,35665.4,1.2033,1.2216,147.4,97.3,0.507
35.5,32170.8,35493.2,1.194,1.2116,147.4,97.3,0.507
35.52,32179.2,35274.1,1.1946,1.1989,147.4,97.3,0.507
35.54,32083.6,35163.0,1.1885,1.1925,147.4,97.3,0.507
35.56,32115.8,35094.8,1.1905,1.1886,147.4,97.3,0.507
35.58,31904.6,35084.0,1.1771,1.1879,147.4,97.3,0.507
35.6,31911.4,34882.8,1.1776,1.1763,147.4,97.3,0.507
35.62,31860.8,34837.1,1.1744,1.1736,147.4,97.3,0.507
35.64,31884.9,34646.6,1.1759,1.1626,147.4,97.3,0.507
35.66,31865.6,34696.8,1.1747,1.1655,147.4,97.3,0.507
35.68,31778.5,34749.5,1.1692,1.1686,147.4,97.3,0.507
35.7,31847.1,34623.6,1.1735,1.1613,147.4,97.3,0.507
35.72,31768.4,34506.1,1.1685,1.1544,147.4,97.3,0.507
35.74,31887.1,34499.8,1.176,1.1541,147.4,97.3,0.507
35.76,31737.6,34419.0,1.1666,1.1494,147.4,97.3,0.507
35.78,31772.3,34766.3,1.1688,1.1695,147.4,97.3,0.507
35.8,31909.7,34929.9,1.1775,1.179,147.4,97.3,0.507
35.82,32085.2,35195.3,1.1886,1.1944,147.4,97.3,0.507
35.84,32201.5,35657.9,1.196,1.2212,147.4,97.3,0.507
35.86,32475.0,35752.1,1.2133,1.2266,147.4,97.3,0.507
35.88,32291.0,35681.1,1.2016,1.2225,147.4,97.3,0.507
35.9,32217.1,35503.1,1.197,1.2122,147.4,97.3,0.507
35.92,32131.0,35365.0,1.1915,1.2042,147.4,97.3,0.507
35.94,32055.1,35189.1,1.1867,1.194,147.4,97.3,0.507
35.96,32029.6,34972.2,1.1851,1.1815,147.4,97.3,0.507
35.98,31983.8,35114.1,1.1822,1.1897,147.4,97.3,0.507
36.0,32022.3,34968.4,1.1846,1.1812,147.4,97.3,0.507
36.02,31973.3,34890.9,1.1815,1.1767,147.4,97.3,0.507
36.04,31853.9,34683.4,1.1739,1.1647,147.4,97.3,0.507
36.06,31885.6,34658.6,1.1759,1.1633,147.4,97.3,0.507
36.08,31944.3,34726.1,1.1797,1.1672,147.4,97.3,0.507
36.1,31809.8,34561.9,1.1711,1.1577,147.4,97.3,0.507
36.12,31858.6,34610.3,1.1742,1.1605,147.4,97.3,0.507
36.14,31780.2,34481.8,1.1693,1.153,147.4,97.3,0.507
36.16,31725.7,34433.8,1.1658,1.1503,147.4,97.3,0.507
36.18,31774.8,34484.4,1.1689,1.1532,147.4,97.3,0.507
36.2,31860.3,34752.4,1.1743,1.1687,147.4,97.3,0.507
36.22,32043.0,35162.4,1.1859,1.1925,147.4,97.3,0.507
36.24,32282.5,35507.3,1.2011,1.2125,147.4,97.3,0.507
36.26,32350.5,35672.1,1.2054,1.222,147.4,97.3,0.507
36.28,32406.1,35604.2,1.2089,1.2181,147.4,97.3,0.507
36.3,32222.2,35488.8,1.1973,1.2114,147.4,97.3,0.507
36.32,32152.6,35387.2,1.1929,1.2055,147.4,97.3,0.507
36.34,32148.2,35112.1,1.1926,1.1896,147.4,97.3,0.507
36.36,32118.4,35148.0,1.1907,1.1916,147.4,97.3,0.507
36.38,32118.4,35073.9,1.1907,1.1873,147.4,97.3,0.507
36.4,32031.0,35035.4,1.1852,1.1851,147.4,97.3,0.507
36.42,31951.9,34866.1,1.1801,1.1753,147.4,97.3,0.507
36.44,31864.1,34785.5,1.1746,1.1706,147.4,97.3,0.507
36.46,31824.4,34782.4,1.1721,1.1705,147.4,97.3,0.507
36.48,31791.7,34688.3,1.17,1.165,147.4,97.3,0.507
36.5,31790.7,34708.0,1.1699,1.1661,147.4,97.3,0.507
36.52,31807.5,34582.3,1.171,1.1589,147.4,97.3,0.507
36.54,31811.4,34470.3,1.1712,1.1524,147.4,97.3,0.507
36.56,31805.9,34521.4,1.1709,1.1553,147.4,97.3,0.507
36.58,31726.3,34488.5,1.1658,1.1534,147.4,97.3,0.507
36.6,31896.7,34655.5,1.1766,1.1631,147.4,97.3,0.507
36.62,32082.4,35063.4,1.1884,1.1867,147.4,97.3,0.507
36.64,32278.8,35375.6,1.2009,1.2048,147.4,97.3,0.507
36.66,32255.4,35659.9,1.1994,1.2213,147.4,97.3,0.507
36.68,32280.7,35739.5,1.201,1.2259,147.4,97.3,0.507
36.7,32204.1,35624.2,1.1961,1.2192,147.4,97.3,0.507
36.72,32183.0,35435.1,1.1948,1.2083,147.4,97.3,0.507
36.74,32173.3,35225.5,1.1942,1.1961,147.4,97.3,0.507
36.76,32148.3,35134.4,1.1926,1.1909,147.4,97.3,0.507
36.78,32003.6,35094.7,1.1834,1.1886,147.4,97.3,0.507
36.8,31988.9,35024.7,1.1825,1.1845,147.4,97.3,0.507
36.82,32037.8,34957.5,1.1856,1.1806,147.4,97.3,0.507
36.84,31942.4,34797.1,1.1795,1.1713,147.4,97.3,0.507
36.86,31835.8,34729.9,1.1728,1.1674,147.4,97.3,0.507
36.88,31858.7,34653.3,1.1742,1.163,147.4,97.3,0.507
36.9,31824.4,34719.4,1.1721,1.1668,147.4,97.3,0.507
36.92,31829.2,34590.9,1.1724,1.1594,147.4,97.3,0.507
36.94,31699.4,34568.5,1.1641,1.1581,147.4,97.3,0.507
36.96,31652.7,34478.7,1.1612,1.1529,147.4,97.3,0.507
36.98,31767.2,34460.8,1.1684,1.1518,147.4,97.3,0.507
37.0,31754.8,34424.7,1.1677,1.1497,147.4,97.3,0.507
37.02,31856.0,34826.6,1.1741,1.173,147.4,97.3,0.507
37.04,32199.4,35210.2,1.1958,1.1952,147.4,97.3,0.507
37.06,32297.4,35578.6,1.202,1.2166,147.4,97.3,0.507
37.08,32308.3,35641.8,1.2027,1.2203,147.4,97.3,0.507
37.1,32379.6,35642.6,1.2073,1.2203,147.4,97.3,0.507
37.12,32254.0,35572.9,1.1993,1.2163,147.4,97.3,0.507
37.14,32111.1,35284.1,1.1902,1.1995,147.4,97.3,0.507
37.16,32154.3,35199.6,1.193,1.1946,147.4,97.3,0.507
37.18,32025.6,35010.7,1.1848,1.1837,147.4,97.3,0.507
37.2,31957.3,35056.0,1.1805,1.1863,147.4,97.3,0.507
37.22,32010.7,34960.4,1.1839,1.1808,147.4,97.3,0.507
37.24,31862.7,34826.5,1.1745,1.173,147.4,97.3,0.507
37.26,31894.5,34684.1,1.1765,1.1648,147.4,97.3,0.507
37.28,31957.9,34714.9,1.1805,1.1665,147.4,97.3,0.507
37.3,31917.2,34631.9,1.1779,1.1617,147.4,97.3,0.507
37.32,31782.1,34694.2,1.1694,1.1653,147.4,97.3,0.507
37.34,31948.8,34641.7,1.18,1.1623,147.4,97.3,0.507
37.36,31757.5,34511.3,1.1678,1.1547,147.4,97.3,0.507
37.38,31686.2,34393.2,1.1633,1.1479,147.4,97.3,0.507
37.4,31856.6,34563.8,1.1741,1.1578,147.4,97.3,0.507
37.42,31817.4,34770.9,1.1716,1.1698,147.4,97.3,0.507
37.44,32104.8,35190.4,1.1898,1.1941,147.4,97.3,0.507
37.46,32231.5,35418.7,1.1979,1.2073,147.4,97.3,0.507
37.48,32439.5,35687.3,1.2111,1.2229,147.4,97.3,0.507
37.5,32390.2,35710.2,1.2079,1.2242,147.4,97.3,0.507
37.52,32276.9,35531.4,1.2007,1.2139,147.4,97.3,0.507
37.54,32184.8,35358.2,1.1949,1.2038,147.4,97.3,0.507
37.56,32143.1,35214.2,1.1923,1.1955,147.4,97.3,0.507
37.58,32108.4,35224.5,1.1901,1.1961,147.4,97.3,0.507
37.6,32048.2,35124.3,1.1862,1.1903,147.4,97.3,0.507
37.62,32024.9,35030.0,1.1848,1.1848,147.4,97.3,0.507
37.64,31957.6,34894.1,1.1805,1.1769,147.4,97.3,0.507
37.66,31969.3,34873.2,1.1812,1.1757,147.4,97.3,0.507
37.68,31884.1,34711.0,1.1758,1.1663,147.4,97.3,0.507
37.7,31848.5,34834.8,1.1736,1.1735,147.4,97.3,0.507
37.72,31886.2,34694.0,1.176,1.1653,147.4,97.3,0.507
37.74,31887.5,34606.3,1.1761,1.1603,147.4,97.3,0.507
37.76,31806.0,34534.8,1.1709,1.1561,147.4,97.3,0.507
37.78,31809.0,34413.3,1.1711,1.1491,147.4,97.3,0.507
37.8,31770.0,34441.8,1.1686,1.1507,147.4,97.3,0.507
37.82,31816.6,34661.6,1.1716,1.1635,147.4,97.3,0.507
37.84,31968.2,34979.7,1.1812,1.1819,147.4,97.3,0.507
37.86,32184.0,35409.9,1.1949,1.2068,147.4,97.3,0.507
37.88,32236.8,35715.3,1.1982,1.2245,147.4,97.3,0.507
37.9,32304.4,35865.6,1.2025,1.2332,147.4,97.3,0.507
37.92,32381.0,35670.6,1.2073,1.2219,147.4,97.3,0.507
37.94,32279.7,35514.8,1.2009,1.2129,147.4,97.3,0.507
37.96,32140.2,35266.8,1.1921,1.1985,147.4,97.3,0.507
37.98,32110.2,35115.3,1.1902,1.1897,147.4,97.3,0.507
38.0,31986.2,35128.5,1.1823,1.1905,147.4,97.3,0.507
38.02,32074.0,35084.3,1.1879,1.1879,147.4,97.3,0.507
38.04,31999.1,35030.2,1.1831,1.1848,147.4,97.3,0.507
38.06,31966.9,34780.3,1.1811,1.1703,147.4,97.3,0.507
38.08,31923.2,34702.4,1.1783,1.1658,147.4,97.3,0.507
38.1,31815.0,34721.1,1.1715,1.1669,147.4,97.3,0.507
38.12,31932.8,34739.7,1.1789,1.168,147.4,97.3,0.507
38.14,31878.9,34701.7,1.1755,1.1658,147.4,97.3,0.507
38.16,31848.5,34561.8,1.1736,1.1577,147.4,97.3,0.507
38.18,31818.5,34537.9,1.1717,1.1563,147.4,97.3,0.507
38.2,31827.5,34448.4,1.1723,1.1511,147.4,97.3,0.507
38.22,31835.4,34574.9,1.1728,1.1584,147.4,97.3,0.507
38.24,31982.2,34927.8,1.1821,1.1789,147.4,97.3,0.507
38.26,32099.9,35256.7,1.1895,1.1979,147.4,97.3,0.507
38.28,32226.1,35622.1,1.1975,1.2191,147.4,97.3,0.507
38.3,32425.2,35743.8,1.2101,1.2262,147.4,97.3,0.507
38.32,32384.7,35758.8,1.2076,1.227,147.4,97.3,0.507
38.34,32310.4,35563.7,1.2029,1.2157,147.4,97.3,0.507
38.36,32183.2,35363.0,1.1948,1.2041,147.4,97.3,0.507
38.38,32124.1,35105.3,1.1911,1.1892,147.4,97.3,0.507
38.4,32005.0,35132.3,1.1835,1.1907,147.4,97.3,0.507
38.42,32079.8,35039.9,1.1883,1.1854,147.4,97.3,0.507
38.44,31893.2,34996.5,1.1764,1.1829,147.4,97.3,0.507
38.46,31919.4,34909.3,1.1781,1.1778,147.4,97.3,0.507
38.48,31852.9,34762.6,1.1739,1.1693,147.4,97.3,0.507
38.5,31858.9,34660.4,1.1743,1.1634,147.4,97.3,0.507
38.52,31918.8,34668.4,1.178,1.1638,147.4,97.3,0.507
38.54,31756.6,34554.8,1.1678,1.1573,147.4,97.3,0.507
38.56,31826.7,34588.9,1.1722,1.1592,147.4,97.3,0.507
38.58,31849.6,34459.5,1.1737,1.1517,147.4,97.3,0.507
38.6,31712.3,34489.4,1.165,1.1535,147.4,97.3,0.507
38.62,31770.5,34568.1,1.1687,1.158,147.4,97.3,0.507
38.64,31807.1,34693.4,1.171,1.1653,147.4,97.3,0.507
38.66,31995.9,35111.4,1.1829,1.1895,147.4,97.3,0.507
38.68,32212.6,35462.6,1.1967,1.2099,147.4,97.3,0.507
38.7,32291.0,35791.3,1.2016,1.2289,147.4,97.3,0.507
38.72,32393.0,35789.6,1.2081,1.2288,147.4,97.3,0.507
38.74,32248.9,35611.4,1.199,1.2185,147.4,97.3,0.507
38.76,32158.4,35433.0,1.1932,1.2082,147.4,97.3,0.507
38.78,32101.0,35285.2,1.1896,1.1996,147.4,97.3,0.507
38.8,32079.0,35183.0,1.1882,1.1937,147.4,97.3,0.507
38.82,31978.3,35080.1,1.1818,1.1877,147.4,97.3,0.507
38.84,32013.7,34997.8,1.1841,1.1829,147.4,97.3,0.507
38.86,31949.8,34869.0,1.18,1.1755,147.4,97.3,0.507
38.88,31958.6,34787.1,1.1806,1.1707,147.4,97.3,0.507
38.9,31813.8,34767.9,1.1714,1.1696,147.4,97.3,0.507
38.92,31850.7,34642.4,1.1737,1.1623,147.4,97.3,0.507
38.94,31846.6,34723.1,1.1735,1.167,147.4,97.3,0.507
38.96,31844.2,34703.9,1.1733,1.1659,147.4,97.3,0.507
38.98,31823.9,34600.4,1.172,1.1599,147.4,97.3,0.507
39.0,31759.8,34517.2,1.168,1.1551,147.4,97.3,0.507
39.02,31705.6,34447.5,1.1645,1.151,147.4,97.3,0.507
39.04,31810.8,34533.2,1.1712,1.156,147.4,97.3,0.507
39.06,32057.2,34954.2,1.1868,1.1804,147.4,97.3,0.507
39.08,32162.4,35401.1,1.1935,1.2063,147.4,97.3,0.507
39.1,32299.9,35760.4,1.2022,1.2271,147.4,97.3,0.507
39.12,32337.0,35828.8,1.2046,1.2311,147.4,97.3,0.507
39.14,32343.4,35689.8,1.205,1.223,147.4,97.3,0.507
39.16,32277.5,35449.6,1.2008,1.2091,147.4,97.3,0.507
39.18,32001.2,35239.1,1.1833,1.1969,147.4,97.3,0.507
39.2,32051.8,35217.0,1.1865,1.1956,147.4,97.3,0.507
39.22,32075.3,35072.7,1.188,1.1873,147.4,97.3,0.507
39.24,32085.0,35011.3,1.1886,1.1837,147.4,97.3,0.507
39.26,32007.8,35025.4,1.1837,1.1845,147.4,97.3,0.507
39.28,31929.5,34920.5,1.1787,1.1785,147.4,97.3,0.507
39.3,31892.2,34722.7,1.1764,1.167,147.4,97.3,0.507
39.32,31874.7,34769.1,1.1753,1.1697,147.4,97.3,0.507
39.34,31853.5,34618.0,1.1739,1.1609,147.4,97.3,0.507
39.36,31767.7,34668.9,1.1685,1.1639,147.4,97.3,0.507
39.38,31843.6,34612.1,1.1733,1.1606,147.4,97.3,0.507
39.4,31807.1,34449.0,1.171,1.1511,147.4,97.3,0.507
39.42,31766.4,34312.6,1.1684,1.1432,147.4,97.3,0.507
39.44,31699.8,34647.7,1.1642,1.1626,147.4,97.3,0.507
39.46,31955.4,34862.7,1.1804,1.1751,147.4,97.3,0.507
39.48,32152.5,35168.6,1.1929,1.1928,147.4,97.3,0.507
39.5,32316.2,35514.6,1.2032,1.2129,147.4,97.3,0.507
39.52,32242.5,35749.1,1.1986,1.2265,147.4,97.3,0.507
39.54,32301.7,35770.2,1.2023,1.2277,147.4,97.3,0.507
39.56,32376.4,35446.2,1.2071,1.2089,147.4,97.3,0.507
39.58,32135.1,35341.8,1.1918,1.2029,147.4,97.3,0.507
39.6,32026.5,35115.4,1.1849,1.1898,147.4,97.3,0.507
39.62,32038.5,35169.8,1.1856,1.1929,147.4,97.3,0.507
39.64,31976.2,35029.7,1.1817,1.1848,147.4,97.3,0.507
39.66,31955.8,34972.1,1.1804,1.1814,147.4,97.3,0.507
39.68,31915.8,34813.2,1.1779,1.1722,147.4,97.3,0.507
39.7,31846.5,34768.2,1.1735,1.1696,147.4,97.3,0.507
39.72,31822.5,34686.1,1.1719,1.1649,147.4,97.3,0.507
39.74,31884.9,34683.0,1.1759,1.1647,147.4,97.3,0.507
39.76,31839.8,34577.5,1.173,1.1586,147.4,97.3,0.507
39.78,31869.1,34603.8,1.1749,1.1601,147.4,97.3,0.507
39.8,31781.6,34550.0,1.1694,1.157,147.4,97.3,0.507
39.82,31714.1,34486.4,1.1651,1.1533,147.4,97.3,0.507
39.84,31854.3,34533.6,1.174,1.156,147.4,97.3,0.507
39.86,31904.9,34749.5,1.1772,1.1685,147.4,97.3,0.507
39.88,32061.4,35207.2,1.1871,1.1951,147.4,97.3,0.507
39.9,32159.9,35464.9,1.1933,1.21,147.4,97.3,0.507
39.92,32338.1,35681.4,1.2046,1.2225,147.4,97.3,0.507
39.94,32385.0,35838.1,1.2076,1.2316,147.4,97.3,0.507
39.96,32316.4,35620.0,1.2032,1.219,147.4,97.3,0.507
39.98,32157.8,35493.2,1.1932,1.2116,147.4,97.3,0.507
40.0,32131.3,35206.1,1.1915,1.195,147.4,97.3,0.507
40.02,32122.7,35035.9,1.191,1.1851,147.4,97.3,0.507
40.04,32009.7,35102.3,1.1838,1.189,147.4,97.3,0.507
40.06,32063.1,35063.3,1.1872,1.1867,147.4,97.3,0.507
40.08,31900.2,34882.7,1.1769,1.1763,147.4,97.3,0.507
40.1,31890.9,34767.1,1.1763,1.1696,147.4,97.3,0.507
40.12,31926.0,34776.4,1.1785,1.1701,147.4,97.3,0.507
40.14,31836.0,34633.1,1.1728,1.1618,147.4,97.3,0.507
40.16,31866.8,34631.5,1.1748,1.1617,147.4,97.3,0.507
40.18,31794.0,34556.1,1.1701,1.1573,147.4,97.3,0.507
40.2,31675.0,34566.8,1.1626,1.158,147.4,97.3,0.507
40.22,31759.1,34498.1,1.1679,1.154,147.4,97.3,0.507
40.24,31763.3,34561.3,1.1682,1.1576,147.4,97.3,0.507
40.26,31846.0,34604.8,1.1734,1.1602,147.4,97.3,0.507
40.28,32007.7,35010.2,1.1837,1.1837,147.4,97.3,0.507
40.3,32160.3,35494.3,1.1934,1.2117,147.4,97.3,0.507
40.32,32211.8,35660.2,1.1966,1.2213,147.4,97.3,0.507
40.34,32426.1,35661.0,1.2102,1.2214,147.4,97.3,0.507
40.36,32255.8,35591.9,1.1994,1.2174,147.4,97.3,0.507
40.38,32227.6,35487.8,1.1976,1.2113,147.4,97.3,0.507
40.4,32159.2,35202.1,1.1933,1.1948,147.4,97.3,0.507
40.42,31995.6,35159.4,1.1829,1.1923,147.4,97.3,0.507
40.44,32052.6,35142.2,1.1865,1.1913,147.4,97.3,0.507
40.46,32088.7,34985.2,1.1888,1.1822,147.4,97.3,0.507
40.48,31972.5,34918.8,1.1814,1.1784,147.4,97.3,0.507
40.5,31993.3,34886.1,1.1828,1.1765,147.4,97.3,0.507
40.52,31842.1,34672.9,1.1732,1.1641,147.4,97.3,0.507
40.54,31847.9,34657.1,1.1736,1.1632,147.4,97.3,0.507
40.56,31889.6,34785.5,1.1762,1.1706,147.4,97.3,0.507
40.58,31822.4,34666.9,1.1719,1.1638,147.4,97.3,0.507
40.6,31810.7,34567.9,1.1712,1.158,147.4,97.3,0.507
40.62,31745.8,34440.2,1.1671,1.1506,147.4,97.3,0.507
40.64,31766.3,34482.7,1.1684,1.1531,147.4,97.3,0.507
40.66,31792.7,34529.9,1.1701,1.1558,147.4,97.3,0.507
40.68,31968.6,34800.1,1.1812,1.1715,147.4,97.3,0.507
40.7,32153.9,35220.0,1.193,1.1958,147.4,97.3,0.507
40.72,32271.5,35522.4,1.2004,1.2133,147.4,97.3,0.507
40.74,32434.5,35729.6,1.2107,1.2253,147.4,97.3,0.507
40.76,32393.0,35711.4,1.2081,1.2243,147.4,97.3,0.507
40.78,32344.2,35599.0,1.205,1.2178,147.4,97.3,0.507
40.8,32206.8,35379.0,1.1963,1.205,147.4,97.3,0.507
40.82,32193.4,35170.3,1.1955,1.1929,147.4,97.3,0.507
40.84,32071.6,35114.6,1.1877,1.1897,147.4,97.3,0.507
40.86,32021.2,35089.1,1.1845,1.1882,147.4,97.3,0.507
40.88,31906.5,34990.1,1.1773,1.1825,147.4,97.3,0.507
40.9,31929.2,34867.7,1.1787,1.1754,147.4,97.3,0.507
40.92,31821.5,34730.4,1.1719,1.1674,147.4,97.3,0.507
40.94,31802.9,34737.3,1.1707,1.1678,147.4,97.3,0.507
40.96,31833.7,34617.1,1.1727,1.1609,147.4,97.3,0.507
40.98,31911.5,34672.4,1.1776,1.1641,147.4,97.3,0.507
41.0,31889.7,34630.1,1.1762,1.1616,147.4,97.3,0.507
41.02,31771.6,34537.0,1.1687,1.1562,147.4,97.3,0.507
41.04,31758.3,34459.1,1.1679,1.1517,147.4,97.3,0.507
41.06,31711.4,34584.1,1.1649,1.159,147.4,97.3,0.507
41.08,31836.8,34761.1,1.1729,1.1692,147.4,97.3,0.507
41.1,32015.0,35069.1,1.1841,1.1871,147.4,97.3,0.507
41.12,32249.6,35443.8,1.199,1.2088,147.4,97.3,0.507
41.14,32301.6,35701.3,1.2023,1.2237,147.4,97.3,0.507
41.16,32383.5,35773.1,1.2075,1.2279,147.4,97.3,0.507
41.18,32251.6,35592.2,1.1991,1.2174,147.4,97.3,0.507
41.2,32241.1,35431.1,1.1985,1.208,147.4,97.3,0.507
41.22,32088.9,35287.3,1.1888,1.1997,147.4,97.3,0.507
41.24,32075.9,35187.7,1.188,1.1939,147.4,97.3,0.507
41.26,31993.9,35139.3,1.1828,1.1911,147.4,97.3,0.507
41.28,31982.9,34911.3,1.1821,1.1779,147.4,97.3,0.507
41.3,31882.8,34966.4,1.1758,1.1811,147.4,97.3,0.507
41.32,31942.9,34792.7,1.1796,1.1711,147.4,97.3,0.507
41.34,31827.9,34728.3,1.1723,1.1673,147.4,97.3,0.507
41.36,31780.3,34715.2,1.1693,1.1666,147.4,97.3,0.507
41.38,31888.2,34562.5,1.1761,1.1577,147.4,97.3,0.507
41.4,31804.0,34613.1,1.1708,1.1606,147.4,97.3,0.507
41.42,31748.2,34591.4,1.1672,1.1594,147.4,97.3,0.507
41.44,31767.0,34383.7,1.1684,1.1474,147.4,97.3,0.507
41.46,31722.8,34441.3,1.1656,1.1507,147.4,97.3,0.507
41.48,31880.3,34643.4,1.1756,1.1624,147.4,97.3,0.507
41.5,31908.0,34907.2,1.1774,1.1777,147.4,97.3,0.507
41.52,32099.7,35274.0,1.1895,1.1989,147.4,97.3,0.507
41.54,32242.8,35573.7,1.1986,1.2163,147.4,97.3,0.507
41.56,32318.4,35755.3,1.2034,1.2268,147.4,97.3,0.507
41.58,32385.4,35672.9,1.2076,1.2221,147.4,97.3,0.507
41.6,32285.1,35504.9,1.2013,1.2123,147.4,97.3,0.507
41.62,32218.4,35325.7,1.197,1.2019,147.4,97.3,0.507
41.64,32057.3,35211.2,1.1868,1.1953,147.4,97.3,0.507
41.66,31972.5,35183.2,1.1815,1.1937,147.4,97.3,0.507
41.68,31980.8,34992.5,1.182,1.1826,147.4,97.3,0.507
41.7,32032.8,34968.1,1.1853,1.1812,147.4,97.3,0.507
41.72,31901.7,34874.8,1.177,1.1758,147.4,97.3,0.507
41.74,31851.2,34843.0,1.1738,1.174,147.4,97.3,0.507
41.76,31841.9,34661.6,1.1732,1.1635,147.4,97.3,0.507
41.78,31903.2,34729.0,1.1771,1.1674,147.4,97.3,0.507
41.8,31799.0,34587.4,1.1705,1.1592,147.4,97.3,0.507
41.82,31723.4,34571.4,1.1657,1.1582,147.4,97.3,0.507
41.84,31782.5,34481.6,1.1694,1.153,147.4,97.3,0.507
41.86,31714.8,34474.5,1.1651,1.1526,147.4,97.3,0.507
41.88,31764.0,34600.7,1.1682,1.1599,147.4,97.3,0.507
41.9,31920.9,34794.4,1.1782,1.1712,147.4,97.3,0.507
41.92,32144.1,35124.3,1.1923,1.1903,147.4,97.3,0.507
41.94,32265.6,35520.7,1.2,1.2132,147.4,97.3,0.507
41.96,32313.1,35731.6,1.203,1.2255,147.4,97.3,0.507
41.98,32310.0,35668.8,1.2028,1.2218,147.4,97.3,0.507
42.0,32130.7,35603.4,1.1915,1.218,147.4,97.3,0.507
42.02,32189.9,35392.4,1.1952,1.2058,147.4,97.3,0.507
42.04,32191.3,35200.1,1.1953,1.1947,147.4,97.3,0.507
42.06,31975.0,35176.6,1.1816,1.1933,147.4,97.3,0.507
42.08,31997.5,35033.5,1.183,1.185,147.4,97.3,0.507
42.1,31973.0,35059.4,1.1815,1.1865,147.4,97.3,0.507
42.12,31984.7,34938.8,1.1822,1.1795,147.4,97.3,0.507
42.14,31902.9,34687.2,1.177,1.1649,147.4,97.3,0.507
42.16,31809.7,34761.9,1.1711,1.1693,147.4,97.3,0.507
42.18,31880.2,34693.6,1.1756,1.1653,147.4,97.3,0.507
42.2,31955.9,34699.2,1.1804,1.1656,147.4,97.3,0.507
42.22,31816.8,34600.9,1.1716,1.1599,147.4,97.3,0.507
42.24,31758.6,34474.9,1.1679,1.1526,147.4,97.3,0.507
42.26,31689.5,34427.8,1.1635,1.1499,147.4,97.3,0.507
42.28,31838.2,34464.8,1.1729,1.1521,147.4,97.3,0.507
42.3,31763.7,34746.3,1.1682,1.1684,147.4,97.3,0.507
42.32,32076.5,35050.4,1.188,1.186,147.4,97.3,0.507
42.34,32231.4,35352.8,1.1979,1.2035,147.4,97.3,0.507
42.36,32393.0,35667.0,1.2081,1.2217,147.4,97.3,0.507
42.38,32438.8,35747.9,1.211,1.2264,147.4,97.3,0.507
42.4,32307.4,35717.7,1.2027,1.2247,147.4,97.3,0.507
42.42,32267.8,35487.9,1.2002,1.2113,147.4,97.3,0.507
42.44,32111.8,35167.8,1.1903,1.1928,147.4,97.3,0.507
42.46,32087.1,35061.9,1.1887,1.1867,147.4,97.3,0.507
42.48,32007.5,35047.4,1.1837,1.1858,147.4,97.3,0.507
42.5,32012.8,35113.0,1.184,1.1896,147.4,97.3,0.507
42.52,31913.2,34946.9,1.1777,1.18,147.4,97.3,0.507
42.54,31896.4,34916.7,1.1766,1.1782,147.4,97.3,0.507
42.56,31841.3,34708.1,1.1731,1.1662,147.4,97.3,0.507
42.58,31897.2,34679.5,1.1767,1.1645,147.4,97.3,0.507
42.6,31712.9,34752.5,1.165,1.1687,147.4,97.3,0.507
42.62,31868.6,34634.6,1.1749,1.1619,147.4,97.3,0.507
42.64,31744.7,34472.9,1.167,1.1525,147.4,97.3,0.507
42.66,31722.3,34419.8,1.1656,1.1494,147.4,97.3,0.507
42.68,31735.4,34486.1,1.1664,1.1533,147.4,97.3,0.507
42.7,31828.6,34624.1,1.1723,1.1613,147.4,97.3,0.507
42.72,31958.2,34833.8,1.1805,1.1734,147.4,97.3,0.507
42.74,32116.4,35238.4,1.1906,1.1969,147.4,97.3,0.507
42.76,32250.3,35658.2,1.1991,1.2212,147.4,97.3,0.507
42.78,32438.9,35790.6,1.211,1.2289,147.4,97.3,0.507
42.8,32275.4,35666.3,1.2007,1.2217,147.4,97.3,0.507
42.82,32252.5,35471.0,1.1992,1.2104,147.4,97.3,0.507
42.84,32089.0,35243.5,1.1888,1.1972,147.4,97.3,0.507
42.86,32087.5,35094.0,1.1887,1.1885,147.4,97.3,0.507
42.88,32056.7,35068.4,1.1868,1.187,147.4,97.3,0.507
42.9,32048.6,35042.5,1.1863,1.1855,147.4,97.3,0.507
42.92,32042.8,34916.2,1.1859,1.1782,147.4,97.3,0.507
42.94,31957.5,34843.3,1.1805,1.174,147.4,97.3,0.507
42.96,31918.1,34810.4,1.178,1.1721,147.4,97.3,0.507
42.98,31744.0,34684.4,1.167,1.1648,147.4,97.3,0.507
43.0,31855.7,34693.3,1.174,1.1653,147.4,97.3,0.507
43.02,31822.0,34635.5,1.1719,1.1619,147.4,97.3,0.507
43.04,31869.8,34664.3,1.1749,1.1636,147.4,97.3,0.507
43.06,31711.0,34507.9,1.1649,1.1546,147.4,97.3,0.507
43.08,31728.0,34504.6,1.166,1.1544,147.4,97.3,0.507
43.1,31773.9,34503.5,1.1689,1.1543,147.4,97.3,0.507
43.12,31951.3,34749.1,1.1801,1.1685,147.4,97.3,0.507
43.14,32092.8,35156.3,1.1891,1.1921,147.4,97.3,0.507
43.16,32227.3,35538.7,1.1976,1.2143,147.4,97.3,0.507
43.18,32283.1,35736.0,1.2011,1.2257,147.4,97.3,0.507
43.2,32320.6,35764.9,1.2035,1.2274,147.4,97.3,0.507
43.22,32278.1,35581.3,1.2008,1.2167,147.4,97.3,0.507
43.24,32206.4,35387.3,1.1963,1.2055,147.4,97.3,0.507
43.26,32075.6,35196.7,1.188,1.1945,147.4,97.3,0.507
43.28,32126.1,35136.2,1.1912,1.191,147.4,97.3,0.507
43.3,32055.3,35124.6,1.1867,1.1903,147.4,97.3,0.507
43.32,32025.6,35095.3,1.1848,1.1886,147.4,97.3,0.507
43.34,31984.3,34950.5,1.1822,1.1802,147.4,97.3,0.507
43.36,31844.7,34824.9,1.1733,1.1729,147.4,97.3,0.507
43.38,31844.8,34599.6,1.1734,1.1599,147.4,97.3,0.507
43.4,31847.0,34743.4,1.1735,1.1682,147.4,97.3,0.507
43.42,31757.8,34607.1,1.1678,1.1603,147.4,97.3,0.507
43.44,31813.5,34614.7,1.1714,1.1607,147.4,97.3,0.507
43.46,31806.1,34501.5,1.1709,1.1542,147.4,97.3,0.507
43.48,31735.4,34385.8,1.1664,1.1475,147.4,97.3,0.507
43.5,31775.6,34523.3,1.169,1.1554,147.4,97.3,0.507
43.52,31918.6,34807.7,1.178,1.1719,147.4,97.3,0.507
43.54,31957.1,35007.8,1.1805,1.1835,147.4,97.3,0.507
43.56,32203.4,35440.4,1.1961,1.2086,147.4,97.3,0.507
43.58,32365.7,35624.7,1.2064,1.2193,147.4,97.3,0.507
43.6,32344.9,35727.5,1.2051,1.2252,147.4,97.3,0.507
43.62,32308.8,35619.0,1.2028,1.2189,147.4,97.3,0.507
43.64,32159.7,35460.5,1.1933,1.2097,147.4,97.3,0.507
43.66,32136.2,35283.6,1.1918,1.1995,147.4,97.3,0.507
43.68,32133.5,35177.1,1.1917,1.1933,147.4,97.3,0.507
43.7,31975.1,35097.0,1.1816,1.1887,147.4,97.3,0.507
43.72,32094.0,35193.1,1.1892,1.1943,147.4,97.3,0.507
43.74,31927.7,34949.5,1.1786,1.1801,147.4,97.3,0.507
43.76,31945.2,34899.4,1.1797,1.1772,147.4,97.3,0.507
43.78,31902.6,34758.8,1.177,1.1691,147.4,97.3,0.507
43.8,31861.1,34669.0,1.1744,1.1639,147.4,97.3,0.507
43.82,31855.3,34673.0,1.174,1.1641,147.4,97.3,0.507
43.84,31809.7,34614.4,1.1711,1.1607,147.4,97.3,0.507
43.86,31785.4,34583.2,1.1696,1.1589,147.4,97.3,0.507
43.88,31824.6,34422.9,1.1721,1.1496,147.4,97.3,0.507
43.9,31703.2,34461.2,1.1644,1.1518,147.4,97.3,0.507
43.92,31844.8,34622.3,1.1734,1.1612,147.4,97.3,0.507
43.94,32027.7,35013.5,1.185,1.1839,147.4,97.3,0.507
43.96,32149.3,35273.7,1.1927,1.1989,147.4,97.3,0.507
43.98,32263.8,35688.1,1.1999,1.2229,147.4,97.3,0.507
44.0,32386.9,35685.3,1.2077,1.2228,147.4,97.3,0.507
44.02,32320.2,35735.5,1.2035,1.2257,147.4,97.3,0.507
44.04,32269.0,35440.5,1.2002,1.2086,147.4,97.3,0.507
44.06,32167.5,35237.9,1.1938,1.1969,147.4,97.3,0.507
44.08,31934.3,35147.7,1.179,1.1916,147.4,97.3,0.507
44.1,32101.0,35094.5,1.1896,1.1885,147.4,97.3,0.507
44.12,32072.3,35026.5,1.1878,1.1846,147.4,97.3,0.507
44.14,31999.6,35078.9,1.1832,1.1876,147.4,97.3,0.507
44.16,31887.9,34894.2,1.1761,1.1769,147.4,97.3,0.507
44.18,31825.0,34851.0,1.1721,1.1744,147.4,97.3,0.507
44.2,31860.3,34716.6,1.1743,1.1666,147.4,97.3,0.507
44.22,31877.9,34495.5,1.1755,1.1538,147.4,97.3,0.507
44.24,31710.0,34633.4,1.1648,1.1618,147.4,97.3,0.507
44.26,31798.9,34564.5,1.1704,1.1578,147.4,97.3,0.507
44.28,31699.4,34472.1,1.1641,1.1525,147.4,97.3,0.507
44.3,31745.7,34401.9,1.1671,1.1484,147.4,97.3,0.507
44.32,31806.0,34522.5,1.1709,1.1554,147.4,97.3,0.507
44.34,31906.0,34789.7,1.1772,1.1709,147.4,97.3,0.507
44.36,32074.7,35134.9,1.1879,1.1909,147.4,97.3,0.507
44.38,32153.8,35545.7,1.1929,1.2147,147.4,97.3,0.507
44.4,32352.9,35794.4,1.2056,1.2291,147.4,97.3,0.507
44.42,32315.5,35818.9,1.2032,1.2305,147.4,97.3,0.507
44.44,32236.7,35571.8,1.1982,1.2162,147.4,97.3,0.507
44.46,32140.4,35483.1,1.1921,1.2111,147.4,97.3,0.507
44.48,32008.7,35302.8,1.1837,1.2006,147.4,97.3,0.507
44.5,32097.5,35064.3,1.1894,1.1868,147.4,97.3,0.507
44.52,31977.8,34977.8,1.1818,1.1818,147.4,97.3,0.507
44.54,32059.3,34989.8,1.187,1.1825,147.4,97.3,0.507
44.56,31948.5,34941.8,1.1799,1.1797,147.4,97.3,0.507
44.58,31822.0,34876.3,1.1719,1.1759,147.4,97.3,0.507
44.6,31848.7,34697.3,1.1736,1.1655,147.4,97.3,0.507
44.62,31852.4,34635.4,1.1738,1.1619,147.4,97.3,0.507
44.64,31710.7,34620.6,1.1649,1.1611,147.4,97.3,0.507
44.66,31891.5,34666.8,1.1763,1.1638,147.4,97.3,0.507
44.68,31841.3,34543.7,1.1731,1.1566,147.4,97.3,0.507
44.7,31714.2,34384.9,1.1651,1.1474,147.4,97.3,0.507
44.72,31783.2,34481.2,1.1695,1.153,147.4,97.3,0.507
44.74,31834.4,34611.1,1.1727,1.1605,147.4,97.3,0.507
44.76,32018.7,34971.9,1.1844,1.1814,147.4,97.3,0.507
44.78,32173.3,35456.2,1.1942,1.2095,147.4,97.3,0.507
44.8,32359.7,35679.7,1.206,1.2225,147.4,97.3,0.507
44.82,32334.9,35733.6,1.2044,1.2256,147.4,97.3,0.507
44.84,32235.8,35715.7,1.1981,1.2245,147.4,97.3,0.507
44.86,32233.9,35444.0,1.198,1.2088,147.4,97.3,0.507
44.88,32174.7,35273.9,1.1943,1.1989,147.4,97.3,0.507
44.9,32115.6,35167.1,1.1905,1.1927,147.4,97.3,0.507
44.92,32074.4,35091.9,1.1879,1.1884,147.4,97.3,0.507
44.94,32032.5,35125.4,1.1853,1.1903,147.4,97.3,0.507
44.96,31947.6,34986.5,1.1799,1.1823,147.4,97.3,0.507
44.98,31904.0,34925.6,1.1771,1.1788,147.4,97.3,0.507
45.0,31829.0,34698.7,1.1724,1.1656,147.4,97.3,0.507
45.02,31839.6,34699.6,1.173,1.1657,147.4,97.3,0.507
45.04,31895.8,34621.9,1.1766,1.1612,147.4,97.3,0.507
45.06,31828.5,34622.2,1.1723,1.1612,147.4,97.3,0.507
45.08,31807.8,34568.8,1.171,1.1581,147.4,97.3,0.507
45.1,31818.3,34539.0,1.1717,1.1564,147.4,97.3,0.507
45.12,31714.5,34560.4,1.1651,1.1576,147.4,97.3,0.507
45.14,31790.3,34569.2,1.1699,1.1581,147.4,97.3,0.507
45.16,32011.5,34893.6,1.1839,1.1769,147.4,97.3,0.507
45.18,32119.8,35200.5,1.1908,1.1947,147.4,97.3,0.507
45.2,32241.6,35583.3,1.1985,1.2169,147.4,97.3,0.507
45.22,32327.6,35836.7,1.204,1.2315,147.4,97.3,0.507
45.24,32363.6,35721.3,1.2062,1.2249,147.4,97.3,0.507
45.26,32147.6,35528.1,1.1925,1.2137,147.4,97.3,0.507
45.28,32191.9,35333.3,1.1954,1.2024,147.4,97.3,0.507
45.3,32062.8,35207.6,1.1872,1.1951,147.4,97.3,0.507
45.32,31987.8,35220.4,1.1824,1.1958,147.4,97.3,0.507
45.34,32120.9,35041.8,1.1909,1.1855,147.4,97.3,0.507
45.36,31931.8,34987.5,1.1789,1.1823,147.4,97.3,0.507
45.38,32052.1,34847.8,1.1865,1.1742,147.4,97.3,0.507
45.4,31867.7,34726.7,1.1748,1.1672,147.4,97.3,0.507
45.42,31907.1,34599.3,1.1773,1.1598,147.4,97.3,0.507
45.44,31939.3,34577.9,1.1793,1.1586,147.4,97.3,0.507
45.46,31813.2,34706.6,1.1714,1.1661,147.4,97.3,0.507
45.48,31786.8,34568.0,1.1697,1.158,147.4,97.3,0.507
45.5,31731.2,34484.3,1.1662,1.1532,147.4,97.3,0.507
45.52,31746.8,34438.5,1.1671,1.1505,147.4,97.3,0.507
45.54,31736.3,34411.8,1.1665,1.149,147.4,97.3,0.507
45.56,31876.3,34820.6,1.1754,1.1727,147.4,97.3,0.507
45.58,32006.1,35174.7,1.1836,1.1932,147.4,97.3,0.507
45.6,32154.3,35475.4,1.193,1.2106,147.4,97.3,0.507
45.62,32281.3,35748.3,1.201,1.2264,147.4,97.3,0.507
45.64,32322.6,35765.6,1.2036,1.2274,147.4,97.3,0.507
45.66,32226.1,35556.9,1.1975,1.2153,147.4,97.3,0.507
45.68,32225.0,35341.3,1.1975,1.2028,147.4,97.3,0.507
45.7,32109.6,35238.8,1.1901,1.1969,147.4,97.3,0.507
45.72,32018.2,35163.2,1.1843,1.1925,147.4,97.3,0.507
45.74,32012.8,34999.6,1.184,1.183,147.4,97.3,0.507
45.76,31987.4,34910.4,1.1824,1.1779,147.4,97.3,0.507
45.78,31973.3,34928.1,1.1815,1.1789,147.4,97.3,0.507
