timestamp,raw_red,raw_ir,filtered_red,filtered_ir,heart_rate,spo2,ac_dc_ratio
0.0,32157.1,35221.0,0.8867,0.5428,148.3,98.4,0.463
0.02,32300.5,35596.8,1.6936,1.4685,148.3,98.4,0.463
0.04,32282.1,35722.9,1.5899,1.7791,148.3,98.4,0.463
0.06,32264.6,35713.4,1.4916,1.7557,148.3,98.4,0.463
0.08,32344.2,35587.5,1.9392,1.4456,148.3,98.4,0.463
0.1,32186.7,35439.8,1.0532,1.0819,148.3,98.4,0.463
0.12,31987.9,35167.8,-0.0647,0.4119,148.3,98.4,0.463
0.14,31962.0,35101.3,-0.2106,0.2481,148.3,98.4,0.463
0.16,32033.8,35146.4,0.1934,0.3591,148.3,98.4,0.463
0.18,31942.3,35044.1,-0.3212,0.1073,148.3,98.4,0.463
0.2,31987.6,34903.6,-0.0665,-0.239,148.3,98.4,0.463
0.22,31971.1,34849.1,-0.1593,-0.3731,148.3,98.4,0.463
0.24,31849.3,34702.5,-0.8444,-0.7342,148.3,98.4,0.463
0.26,31911.5,34751.8,-0.4945,-0.6129,148.3,98.4,0.463
0.28,31832.9,34701.0,-0.9366,-0.7379,148.3,98.4,0.463
0.3,31857.2,34577.0,-0.7999,-1.0433,148.3,98.4,0.463
0.32,31821.4,34539.5,-1.0015,-1.1356,148.3,98.4,0.463
0.34,31867.0,34446.1,-0.7446,-1.3658,148.3,98.4,0.463
0.36,31778.9,34497.8,-1.2406,-1.2383,148.3,98.4,0.463
0.38,31875.0,34778.2,-0.6998,-0.5478,148.3,98.4,0.463
0.4,32022.1,35060.8,0.1277,0.1483,148.3,98.4,0.463
0.42,32199.6,35472.8,1.1257,1.163,148.3,98.4,0.463
0.44,32316.0,35738.3,1.7807,1.8171,148.3,98.4,0.463
0.46,32374.3,35792.9,2.1086,1.9515,148.3,98.4,0.463
0.48,32263.7,35530.6,1.4865,1.3055,148.3,98.4,0.463
0.5,32173.1,35340.1,0.9767,0.8362,148.3,98.4,0.463
0.52,32106.6,35291.5,0.603,0.7166,148.3,98.4,0.463
0.54,31983.7,35189.7,-0.0887,0.4659,148.3,98.4,0.463
0.56,32027.8,35073.1,0.1595,0.1785,148.3,98.4,0.463
0.58,32005.9,35009.3,0.0362,0.0214,148.3,98.4,0.463
0.6,31869.6,34926.6,-0.7301,-0.1823,148.3,98.4,0.463
0.62,31868.1,34776.9,-0.7389,-0.551,148.3,98.4,0.463
0.64,31824.1,34749.9,-0.9863,-0.6174,148.3,98.4,0.463
0.66,31886.6,34678.2,-0.6345,-0.794,148.3,98.4,0.463
0.68,31944.2,34600.4,-0.3105,-0.9857,148.3,98.4,0.463
0.7,31936.0,34659.7,-0.3567,-0.8397,148.3,98.4,0.463
0.72,31845.6,34601.6,-0.8655,-0.9827,148.3,98.4,0.463
0.74,31747.4,34502.4,-1.4177,-1.2271,148.3,98.4,0.463
0.76,31714.1,34473.1,-1.6048,-1.2993,148.3,98.4,0.463
0.78,31853.5,34697.5,-0.8211,-0.7466,148.3,98.4,0.463
0.8,31980.6,35043.4,-0.1059,0.1056,148.3,98.4,0.463
0.82,32194.9,35331.7,1.0994,0.8155,148.3,98.4,0.463
0.84,32296.7,35656.8,1.6718,1.6163,148.3,98.4,0.463
0.86,32271.4,35755.7,1.5299,1.8598,148.3,98.4,0.463
0.88,32330.3,35671.0,1.8609,1.6514,148.3,98.4,0.463
0.9,32183.9,35446.0,1.0374,1.097,148.3,98.4,0.463
0.92,32133.7,35260.8,0.755,0.641,148.3,98.4,0.463
0.94,32054.3,35134.1,0.3084,0.3289,148.3,98.4,0.463
0.96,31988.9,35152.1,-0.059,0.3732,148.3,98.4,0.463
0.98,31919.8,35107.6,-0.4479,0.2637,148.3,98.4,0.463
1.0,31938.5,34906.3,-0.3425,-0.2322,148.3,98.4,0.463
1.02,31963.8,34791.5,-0.2005,-0.5149,148.3,98.4,0.463
1.04,31907.0,34654.6,-0.5198,-0.8521,148.3,98.4,0.463
1.06,31936.8,34692.7,-0.3526,-0.7583,148.3,98.4,0.463
1.08,31853.2,34643.5,-0.8227,-0.8796,148.3,98.4,0.463
1.1,31752.0,34678.3,-1.3918,-0.7939,148.3,98.4,0.463
1.12,31838.5,34585.6,-0.9052,-1.0221,148.3,98.4,0.463
1.14,31861.4,34495.0,-0.7765,-1.2452,148.3,98.4,0.463
1.16,31786.6,34432.2,-1.197,-1.3999,148.3,98.4,0.463
1.18,31829.5,34498.2,-0.9557,-1.2374,148.3,98.4,0.463
1.2,31908.8,34945.3,-0.5101,-0.1361,148.3,98.4,0.463
1.22,32191.5,35382.6,1.0802,0.941,148.3,98.4,0.463
1.24,32264.0,35674.9,1.4883,1.661,148.3,98.4,0.463
1.26,32273.0,35753.1,1.5385,1.8535,148.3,98.4,0.463
1.28,32336.9,35719.8,1.8981,1.7714,148.3,98.4,0.463
1.3,32255.1,35533.2,1.4382,1.312,148.3,98.4,0.463
1.32,32142.0,35235.9,0.802,0.5797,148.3,98.4,0.463
1.34,32109.3,35213.9,0.6179,0.5255,148.3,98.4,0.463
1.36,32055.3,35118.2,0.314,0.2898,148.3,98.4,0.463
1.38,31968.1,35028.0,-0.176,0.0675,148.3,98.4,0.463
1.4,32021.8,35001.0,0.1256,0.001,148.3,98.4,0.463
1.42,32057.4,34837.3,0.3258,-0.4022,148.3,98.4,0.463
1.44,31911.9,34653.1,-0.4924,-0.8559,148.3,98.4,0.463
1.46,31944.0,34707.3,-0.3117,-0.7224,148.3,98.4,0.463
1.48,31769.8,34649.5,-1.2918,-0.8646,148.3,98.4,0.463
1.5,31927.7,34645.6,-0.4035,-0.8742,148.3,98.4,0.463
1.52,31714.4,34671.9,-1.603,-0.8095,148.3,98.4,0.463
1.54,31777.6,34463.3,-1.2477,-1.3234,148.3,98.4,0.463
1.56,31826.8,34421.8,-0.9712,-1.4256,148.3,98.4,0.463
1.58,31824.0,34441.0,-0.9865,-1.3784,148.3,98.4,0.463
1.6,31884.6,34926.2,-0.6457,-0.1831,148.3,98.4,0.463
1.62,32082.1,35180.4,0.4649,0.4429,148.3,98.4,0.463
1.64,32253.1,35466.2,1.427,1.1467,148.3,98.4,0.463
1.66,32228.9,35680.7,1.2908,1.6751,148.3,98.4,0.463
1.68,32347.5,35684.6,1.9579,1.6848,148.3,98.4,0.463
1.7,32171.6,35599.3,0.9684,1.4747,148.3,98.4,0.463
1.72,32101.7,35239.8,0.5753,0.5892,148.3,98.4,0.463
1.74,32110.6,35263.7,0.6253,0.6481,148.3,98.4,0.463
1.76,32050.5,35231.7,0.2871,0.5692,148.3,98.4,0.463
1.78,32005.7,35129.0,0.0355,0.3164,148.3,98.4,0.463
1.8,31979.2,34950.7,-0.1136,-0.1229,148.3,98.4,0.463
1.82,31973.3,34819.4,-0.147,-0.4462,148.3,98.4,0.463
1.84,31863.8,34676.8,-0.7629,-0.7974,148.3,98.4,0.463
1.86,31973.5,34682.7,-0.1456,-0.7829,148.3,98.4,0.463
1.88,31832.6,34747.1,-0.9385,-0.6244,148.3,98.4,0.463
1.9,31807.4,34618.7,-1.0799,-0.9406,148.3,98.4,0.463
1.92,31867.2,34583.7,-0.7435,-1.0268,148.3,98.4,0.463
1.94,31826.9,34536.6,-0.9707,-1.1428,148.3,98.4,0.463
1.96,31713.6,34489.3,-1.6075,-1.2593,148.3,98.4,0.463
1.98,31866.4,34547.5,-0.7485,-1.116,148.3,98.4,0.463
2.0,31877.6,34710.0,-0.6851,-0.7158,148.3,98.4,0.463
2.02,32015.2,35064.2,0.0889,0.1568,148.3,98.4,0.463
2.04,32142.8,35427.6,0.8063,1.0519,148.3,98.4,0.463
2.06,32369.9,35713.8,2.0837,1.7567,148.3,98.4,0.463
2.08,32282.2,35692.4,1.5906,1.7039,148.3,98.4,0.463
2.1,32313.7,35600.8,1.7677,1.4784,148.3,98.4,0.463
2.12,32111.7,35374.0,0.6315,0.9198,148.3,98.4,0.463
2.14,32080.5,35120.8,0.456,0.296,148.3,98.4,0.463
2.16,32014.8,35116.9,0.0862,0.2864,148.3,98.4,0.463
2.18,32052.6,35107.9,0.2992,0.2643,148.3,98.4,0.463
2.2,31955.5,35055.0,-0.2472,0.134,148.3,98.4,0.463
2.22,31889.2,34927.9,-0.6202,-0.1791,148.3,98.4,0.463
2.24,31933.0,34834.2,-0.3737,-0.4097,148.3,98.4,0.463
2.26,31842.7,34662.8,-0.8816,-0.832,148.3,98.4,0.463
2.28,31915.6,34593.9,-0.4717,-1.0018,148.3,98.4,0.463
2.3,31951.5,34651.0,-0.2695,-0.8611,148.3,98.4,0.463
2.32,31809.2,34543.9,-1.0701,-1.1248,148.3,98.4,0.463
2.34,31782.1,34662.3,-1.2223,-0.8331,148.3,98.4,0.463
2.36,31730.9,34481.4,-1.5104,-1.2787,148.3,98.4,0.463
2.38,31753.1,34471.7,-1.3857,-1.3026,148.3,98.4,0.463
2.4,31832.1,34643.2,-0.941,-0.8803,148.3,98.4,0.463
2.42,32043.4,35096.8,0.2471,0.2371,148.3,98.4,0.463
2.44,32174.6,35335.1,0.9854,0.8239,148.3,98.4,0.463
2.46,32355.7,35623.3,2.0038,1.5337,148.3,98.4,0.463
2.48,32377.7,35734.1,2.1275,1.8067,148.3,98.4,0.463
2.5,32231.6,35712.0,1.3059,1.7522,148.3,98.4,0.463
2.52,32132.7,35460.4,0.7495,1.1326,148.3,98.4,0.463
2.54,32049.4,35198.6,0.2808,0.4877,148.3,98.4,0.463
2.56,32076.8,35115.3,0.435,0.2826,148.3,98.4,0.463
2.58,32097.7,35066.2,0.5525,0.1615,148.3,98.4,0.463
2.6,31995.2,35069.8,-0.0238,0.1706,148.3,98.4,0.463
2.62,31950.1,34823.8,-0.2775,-0.4354,148.3,98.4,0.463
2.64,31971.8,34833.2,-0.1553,-0.4122,148.3,98.4,0.463
2.66,31957.9,34786.6,-0.2337,-0.527,148.3,98.4,0.463
2.68,31864.5,34756.9,-0.7587,-0.6001,148.3,98.4,0.463
2.7,31862.7,34566.3,-0.7691,-1.0697,148.3,98.4,0.463
2.72,31788.2,34633.9,-1.1882,-0.9033,148.3,98.4,0.463
2.74,31796.7,34581.1,-1.1405,-1.0332,148.3,98.4,0.463
2.76,31803.4,34461.4,-1.1025,-1.328,148.3,98.4,0.463
2.78,31849.0,34496.2,-0.8461,-1.2423,148.3,98.4,0.463
2.8,31789.9,34554.4,-1.1788,-1.0988,148.3,98.4,0.463
2.82,31941.5,34915.0,-0.3257,-0.2109,148.3,98.4,0.463
2.84,32202.8,35299.8,1.1439,0.7369,148.3,98.4,0.463
2.86,32237.2,35597.0,1.3374,1.4689,148.3,98.4,0.463
2.88,32298.4,35794.7,1.6816,1.9559,148.3,98.4,0.463
2.9,32277.8,35676.8,1.5658,1.6657,148.3,98.4,0.463
2.92,32272.9,35511.3,1.538,1.2578,148.3,98.4,0.463
2.94,32187.7,35289.8,1.059,0.7123,148.3,98.4,0.463
2.96,32030.2,35128.9,0.1732,0.3162,148.3,98.4,0.463
2.98,32026.2,35089.3,0.1505,0.2185,148.3,98.4,0.463
3.0,32040.9,35021.5,0.2331,0.0516,148.3,98.4,0.463
3.02,31955.5,34965.5,-0.2472,-0.0863,148.3,98.4,0.463
3.04,31996.6,34733.0,-0.0159,-0.6589,148.3,98.4,0.463
3.06,31887.2,34791.7,-0.631,-0.5146,148.3,98.4,0.463
3.08,31910.5,34704.0,-0.5005,-0.7306,148.3,98.4,0.463
3.1,31774.8,34711.0,-1.2637,-0.7131,148.3,98.4,0.463
3.12,31910.5,34696.5,-0.5005,-0.749,148.3,98.4,0.463
3.14,31720.1,34503.4,-1.5709,-1.2246,148.3,98.4,0.463
3.16,31792.5,34576.4,-1.164,-1.0447,148.3,98.4,0.463
3.18,31764.8,34475.5,-1.3195,-1.2932,148.3,98.4,0.463
3.2,31819.3,34499.3,-1.013,-1.2348,148.3,98.4,0.463
3.22,31908.8,34883.3,-0.5096,-0.2889,148.3,98.4,0.463
3.24,32065.1,35240.2,0.3695,0.5902,148.3,98.4,0.463
3.26,32244.9,35590.3,1.3804,1.4526,148.3,98.4,0.463
3.28,32301.2,35776.7,1.6972,1.9116,148.3,98.4,0.463
3.3,32239.8,35790.7,1.3518,1.9461,148.3,98.4,0.463
3.32,32279.1,35582.2,1.5733,1.4326,148.3,98.4,0.463
3.34,32291.5,35369.6,1.643,0.9089,148.3,98.4,0.463
3.36,32018.7,35162.6,0.1082,0.399,148.3,98.4,0.463
3.38,31998.2,34986.8,-0.0069,-0.0341,148.3,98.4,0.463
3.4,32095.9,34986.8,0.5427,-0.0338,148.3,98.4,0.463
3.42,32003.1,34984.9,0.0207,-0.0386,148.3,98.4,0.463
3.44,31954.2,34892.9,-0.2546,-0.2653,148.3,98.4,0.463
3.46,31862.9,34767.5,-0.7678,-0.5742,148.3,98.4,0.463
3.48,31776.1,34716.2,-1.2562,-0.7005,148.3,98.4,0.463
3.5,31877.9,34603.6,-0.6835,-0.9778,148.3,98.4,0.463
3.52,31891.7,34682.9,-0.6057,-0.7824,148.3,98.4,0.463
3.54,31741.9,34615.4,-1.4484,-0.9487,148.3,98.4,0.463
3.56,31861.7,34488.5,-0.7749,-1.2613,148.3,98.4,0.463
3.58,31803.0,34437.0,-1.1049,-1.388,148.3,98.4,0.463
3.6,31796.1,34476.7,-1.1435,-1.2903,148.3,98.4,0.463
3.62,31906.4,34750.3,-0.5232,-0.6164,148.3,98.4,0.463
3.64,31995.4,35070.5,-0.0225,0.1721,148.3,98.4,0.463
3.66,32103.4,35469.0,0.5847,1.1538,148.3,98.4,0.463
3.68,32270.2,35706.3,1.5228,1.7383,148.3,98.4,0.463
3.7,32307.5,35731.2,1.7327,1.7995,148.3,98.4,0.463
3.72,32240.6,35556.3,1.3564,1.3687,148.3,98.4,0.463
3.74,32185.0,35436.6,1.0437,1.074,148.3,98.4,0.463
3.76,32061.9,35204.2,0.3514,0.5015,148.3,98.4,0.463
3.78,32056.8,35099.8,0.3227,0.2444,148.3,98.4,0.463
3.8,32094.4,35068.6,0.5341,0.1675,148.3,98.4,0.463
3.82,32005.6,34983.5,0.0349,-0.0422,148.3,98.4,0.463
3.84,31922.6,34877.8,-0.4323,-0.3025,148.3,98.4,0.463
3.86,31926.4,34761.6,-0.4108,-0.5886,148.3,98.4,0.463
3.88,31836.5,34731.7,-0.9165,-0.6623,148.3,98.4,0.463
3.9,31815.5,34707.4,-1.0347,-0.7221,148.3,98.4,0.463
3.92,31770.6,34664.7,-1.287,-0.8274,148.3,98.4,0.463
3.94,31843.6,34634.5,-0.8766,-0.9017,148.3,98.4,0.463
3.96,31800.3,34574.7,-1.1199,-1.0489,148.3,98.4,0.463
3.98,31818.9,34413.1,-1.0155,-1.447,148.3,98.4,0.463
4.0,31800.6,34512.4,-1.1185,-1.2025,148.3,98.4,0.463
4.02,31926.4,34738.8,-0.4109,-0.6449,148.3,98.4,0.463
4.04,32046.0,35090.1,0.2619,0.2205,148.3,98.4,0.463
4.06,32224.7,35458.9,1.2673,1.1288,148.3,98.4,0.463
4.08,32322.5,35641.0,1.8171,1.5773,148.3,98.4,0.463
4.1,32306.0,35781.1,1.7246,1.9225,148.3,98.4,0.463
4.12,32315.3,35666.9,1.7769,1.6412,148.3,98.4,0.463
4.14,32142.9,35451.0,0.807,1.1093,148.3,98.4,0.463
4.16,32117.7,35330.0,0.6652,0.8114,148.3,98.4,0.463
4.18,32077.0,35114.2,0.4363,0.2797,148.3,98.4,0.463
4.2,32055.6,35061.1,0.3159,0.149,148.3,98.4,0.463
4.22,31936.2,35027.2,-0.3555,0.0654,148.3,98.4,0.463
4.24,32001.7,34968.2,0.0126,-0.0797,148.3,98.4,0.463
4.26,31924.8,34800.0,-0.42,-0.4941,148.3,98.4,0.463
4.28,31908.1,34639.0,-0.5138,-0.8906,148.3,98.4,0.463
4.3,31775.0,34752.1,-1.2626,-0.612,148.3,98.4,0.463
4.32,31850.4,34698.7,-0.8383,-0.7436,148.3,98.4,0.463
4.34,31808.8,34660.9,-1.0725,-0.8367,148.3,98.4,0.463
4.36,31816.7,34512.9,-1.0277,-1.2011,148.3,98.4,0.463
4.38,31827.2,34570.2,-0.9686,-1.0599,148.3,98.4,0.463
4.4,31682.4,34534.1,-1.7832,-1.1489,148.3,98.4,0.463
4.42,31825.3,34542.1,-0.9795,-1.1293,148.3,98.4,0.463
4.44,32003.5,34872.0,0.023,-0.3167,148.3,98.4,0.463
4.46,32143.5,35364.2,0.8102,0.8956,148.3,98.4,0.463
4.48,32287.6,35624.7,1.6206,1.5373,148.3,98.4,0.463
4.5,32382.6,35771.0,2.1551,1.8975,148.3,98.4,0.463
4.52,32258.8,35633.5,1.4588,1.5589,148.3,98.4,0.463
4.54,32156.7,35492.5,0.8844,1.2116,148.3,98.4,0.463
4.56,32195.4,35270.3,1.1024,0.6643,148.3,98.4,0.463
4.58,32058.6,35053.3,0.3326,0.1298,148.3,98.4,0.463
4.6,32047.9,35122.8,0.2729,0.301,148.3,98.4,0.463
4.62,32032.4,35064.3,0.1853,0.1569,148.3,98.4,0.463
4.64,31976.9,34881.9,-0.1265,-0.2923,148.3,98.4,0.463
4.66,31844.2,34880.3,-0.8733,-0.2963,148.3,98.4,0.463
4.68,31910.5,34637.2,-0.5002,-0.8949,148.3,98.4,0.463
4.7,31844.0,34734.4,-0.874,-0.6555,148.3,98.4,0.463
4.72,31773.5,34675.6,-1.2709,-0.8005,148.3,98.4,0.463
4.74,31831.9,34615.7,-0.9424,-0.948,148.3,98.4,0.463
4.76,31811.0,34524.9,-1.0598,-1.1715,148.3,98.4,0.463
4.78,31807.8,34480.8,-1.0778,-1.2803,148.3,98.4,0.463
4.8,31695.0,34512.9,-1.7125,-1.2011,148.3,98.4,0.463
4.82,31791.0,34585.2,-1.1726,-1.0231,148.3,98.4,0.463
4.84,31960.2,34933.1,-0.2206,-0.1663,148.3,98.4,0.463
4.86,32054.3,35302.8,0.3085,0.7443,148.3,98.4,0.463
4.88,32260.9,35606.6,1.4705,1.4926,148.3,98.4,0.463
4.9,32147.0,35684.0,0.83,1.6833,148.3,98.4,0.463
4.92,32302.5,35758.9,1.7048,1.8678,148.3,98.4,0.463
4.94,32210.2,35471.5,1.1855,1.16,148.3,98.4,0.463
4.96,32114.8,35356.4,0.6486,0.8764,148.3,98.4,0.463
4.98,32115.4,35183.8,0.6524,0.4513,148.3,98.4,0.463
5.0,32152.6,35132.0,0.8617,0.3238,148.3,98.4,0.463
5.02,32073.6,35014.3,0.4171,0.0338,148.3,98.4,0.463
5.04,31959.8,35007.4,-0.2227,0.0169,148.3,98.4,0.463
5.06,31946.5,34831.0,-0.2978,-0.4177,148.3,98.4,0.463
5.08,31794.5,34764.8,-1.1524,-0.5807,148.3,98.4,0.463
5.1,31870.7,34691.3,-0.7243,-0.7618,148.3,98.4,0.463
5.12,31930.9,34701.0,-0.3852,-0.7379,148.3,98.4,0.463
5.14,31884.7,34647.0,-0.6451,-0.8708,148.3,98.4,0.463
5.16,31739.4,34543.2,-1.4627,-1.1266,148.3,98.4,0.463
5.18,31706.6,34477.7,-1.6472,-1.2879,148.3,98.4,0.463
5.2,31709.9,34588.1,-1.6284,-1.016,148.3,98.4,0.463
5.22,31893.4,34533.0,-0.5966,-1.1516,148.3,98.4,0.463
5.24,31868.5,34691.1,-0.7365,-0.7622,148.3,98.4,0.463
5.26,32136.6,35189.1,0.7714,0.4644,148.3,98.4,0.463
5.28,32235.4,35485.9,1.327,1.1953,148.3,98.4,0.463
5.3,32350.7,35651.7,1.9758,1.6036,148.3,98.4,0.463
5.32,32299.2,35734.1,1.6863,1.8067,148.3,98.4,0.463
5.34,32339.9,35583.4,1.9148,1.4354,148.3,98.4,0.463
5.36,32083.5,35375.6,0.4729,0.9236,148.3,98.4,0.463
5.38,32091.5,35230.8,0.5178,0.5671,148.3,98.4,0.463
5.4,32046.7,35086.7,0.2661,0.212,148.3,98.4,0.463
5.42,31996.6,35131.7,-0.0159,0.323,148.3,98.4,0.463
5.44,32063.3,35081.0,0.359,0.1981,148.3,98.4,0.463
5.46,31972.7,34894.4,-0.1505,-0.2616,148.3,98.4,0.463
5.48,31841.3,34737.1,-0.8896,-0.6489,148.3,98.4,0.463
5.5,31810.7,34702.4,-1.0613,-0.7345,148.3,98.4,0.463
5.52,31841.2,34605.2,-0.89,-0.9739,148.3,98.4,0.463
5.54,31886.6,34629.8,-0.6344,-0.9133,148.3,98.4,0.463
5.56,31804.9,34571.5,-1.0943,-1.0567,148.3,98.4,0.463
5.58,31798.1,34502.4,-1.1325,-1.2271,148.3,98.4,0.463
5.6,31837.9,34393.3,-0.9088,-1.4958,148.3,98.4,0.463
5.62,31881.6,34438.8,-0.6628,-1.3838,148.3,98.4,0.463
5.64,31850.1,34624.5,-0.84,-0.9264,148.3,98.4,0.463
5.66,31970.1,35012.5,-0.165,0.0292,148.3,98.4,0.463
5.68,32178.6,35448.1,1.0079,1.1022,148.3,98.4,0.463
5.7,32226.8,35779.3,1.2789,1.918,148.3,98.4,0.463
5.72,32258.9,35770.2,1.4593,1.8956,148.3,98.4,0.463
5.74,32197.6,35583.1,1.1148,1.4347,148.3,98.4,0.463
5.76,32194.8,35527.8,1.0987,1.2985,148.3,98.4,0.463
5.78,32065.4,35227.7,0.3712,0.5593,148.3,98.4,0.463
5.8,32009.4,35137.8,0.056,0.3381,148.3,98.4,0.463
5.82,32028.5,35083.8,0.1636,0.205,148.3,98.4,0.463
5.84,32023.7,34965.9,0.1367,-0.0855,148.3,98.4,0.463
5.86,31925.0,34876.0,-0.4189,-0.3068,148.3,98.4,0.463
5.88,31963.3,34733.3,-0.2033,-0.6584,148.3,98.4,0.463
5.9,31832.7,34658.8,-0.938,-0.8417,148.3,98.4,0.463
5.92,31910.7,34683.0,-0.4993,-0.7821,148.3,98.4,0.463
5.94,31804.9,34621.4,-1.0944,-0.934,148.3,98.4,0.463
5.96,31867.0,34625.2,-0.7451,-0.9247,148.3,98.4,0.463
5.98,31820.7,34471.9,-1.0055,-1.3021,148.3,98.4,0.463
6.0,31827.8,34500.6,-0.9654,-1.2314,148.3,98.4,0.463
6.02,31715.4,34505.2,-1.5978,-1.2202,148.3,98.4,0.463
6.04,31935.4,34664.1,-0.36,-0.8287,148.3,98.4,0.463
6.06,31931.1,34966.5,-0.3845,-0.084,148.3,98.4,0.463
6.08,32177.8,35364.9,1.0033,0.8974,148.3,98.4,0.463
6.1,32260.2,35721.9,1.4669,1.7766,148.3,98.4,0.463
6.12,32226.8,35779.3,1.279,1.918,148.3,98.4,0.463
6.14,32236.3,35700.5,1.3322,1.724,148.3,98.4,0.463
6.16,32182.0,35442.0,1.0269,1.0872,148.3,98.4,0.463
6.18,32075.2,35274.3,0.4261,0.6741,148.3,98.4,0.463
6.2,32088.4,35169.8,0.5002,0.4169,148.3,98.4,0.463
6.22,32028.4,35114.2,0.1629,0.2798,148.3,98.4,0.463
6.24,32095.3,35003.6,0.5391,0.0075,148.3,98.4,0.463
6.26,31947.1,34844.4,-0.2942,-0.3847,148.3,98.4,0.463
6.28,31937.0,34878.3,-0.351,-0.3013,148.3,98.4,0.463
6.3,32011.1,34701.2,0.0656,-0.7374,148.3,98.4,0.463
6.32,31889.4,34859.0,-0.6191,-0.3487,148.3,98.4,0.463
6.34,31779.2,34711.9,-1.2386,-0.7111,148.3,98.4,0.463
6.36,31831.8,34609.4,-0.9427,-0.9635,148.3,98.4,0.463
6.38,31807.0,34536.8,-1.0822,-1.1423,148.3,98.4,0.463
6.4,31774.9,34488.8,-1.2626,-1.2605,148.3,98.4,0.463
6.42,31807.2,34434.9,-1.081,-1.3934,148.3,98.4,0.463
6.44,31764.3,34632.5,-1.3224,-0.9066,148.3,98.4,0.463
6.46,31889.1,34856.4,-0.6204,-0.355,148.3,98.4,0.463
6.48,32102.8,35212.6,0.5812,0.5222,148.3,98.4,0.463
6.5,32185.3,35542.6,1.0453,1.3349,148.3,98.4,0.463
6.52,32306.5,35759.1,1.7274,1.8683,148.3,98.4,0.463
6.54,32329.9,35785.7,1.8589,1.9337,148.3,98.4,0.463
6.56,32222.5,35558.0,1.2547,1.3729,148.3,98.4,0.463
6.58,32110.1,35297.8,0.6223,0.732,148.3,98.4,0.463
6.6,32041.3,35058.9,0.2354,0.1436,148.3,98.4,0.463
6.62,32079.9,35131.5,0.4523,0.3226,148.3,98.4,0.463
6.64,32015.9,35126.3,0.0928,0.3098,148.3,98.4,0.463
6.66,31982.7,34962.7,-0.0939,-0.0934,148.3,98.4,0.463
6.68,31928.8,34845.5,-0.3973,-0.3821,148.3,98.4,0.463
6.7,31974.2,34791.6,-0.1417,-0.5146,148.3,98.4,0.463
6.72,31890.0,34646.1,-0.6153,-0.8732,148.3,98.4,0.463
6.74,31944.6,34601.2,-0.3082,-0.9837,148.3,98.4,0.463
6.76,31875.8,34662.5,-0.6956,-0.8326,148.3,98.4,0.463
6.78,31863.3,34596.5,-0.7656,-0.9952,148.3,98.4,0.463
6.8,31756.8,34445.9,-1.3649,-1.3663,148.3,98.4,0.463
6.82,31700.3,34488.0,-1.6825,-1.2624,148.3,98.4,0.463
6.84,31719.1,34505.1,-1.5768,-1.2203,148.3,98.4,0.463
6.86,31886.8,34806.0,-0.6336,-0.4791,148.3,98.4,0.463
6.88,32092.3,35114.3,0.5226,0.2801,148.3,98.4,0.463
6.9,32228.7,35471.3,1.2896,1.1594,148.3,98.4,0.463
6.92,32292.6,35703.5,1.6489,1.7313,148.3,98.4,0.463
6.94,32291.1,35729.5,1.6403,1.7954,148.3,98.4,0.463
6.96,32202.1,35571.9,1.1397,1.4072,148.3,98.4,0.463
6.98,32044.4,35307.5,0.253,0.7559,148.3,98.4,0.463
7.0,32058.7,35135.4,0.3333,0.332,148.3,98.4,0.463
7.02,32100.7,35117.5,0.5696,0.2879,148.3,98.4,0.463
7.04,31959.9,35038.9,-0.2221,0.0943,148.3,98.4,0.463
7.06,32079.0,35020.0,0.4476,0.0478,148.3,98.4,0.463
7.08,31971.5,34936.2,-0.157,-0.1585,148.3,98.4,0.463
7.1,31888.3,34736.3,-0.6253,-0.6509,148.3,98.4,0.463
7.12,31854.7,34671.6,-0.8143,-0.8102,148.3,98.4,0.463
7.14,31840.1,34693.7,-0.8965,-0.7558,148.3,98.4,0.463
7.16,31898.0,34715.8,-0.5706,-0.7013,148.3,98.4,0.463
7.18,31792.2,34655.6,-1.1655,-0.8498,148.3,98.4,0.463
7.2,31855.3,34575.9,-0.8109,-1.046,148.3,98.4,0.463
7.22,31682.0,34429.8,-1.7856,-1.4059,148.3,98.4,0.463
7.24,31816.6,34478.9,-1.0284,-1.2848,148.3,98.4,0.463
7.26,31865.3,34701.3,-0.7545,-0.7372,148.3,98.4,0.463
7.28,31955.7,35043.9,-0.2462,0.1068,148.3,98.4,0.463
7.3,32223.4,35466.1,1.2596,1.1466,148.3,98.4,0.463
7.32,32278.3,35737.1,1.5683,1.8141,148.3,98.4,0.463
7.34,32308.2,35763.1,1.7369,1.8782,148.3,98.4,0.463
7.36,32220.7,35558.0,1.2446,1.373,148.3,98.4,0.463
7.38,32214.3,35424.1,1.2084,1.0431,148.3,98.4,0.463
7.4,32074.0,35231.9,0.4196,0.5697,148.3,98.4,0.463
7.42,32062.9,35073.8,0.3569,0.1803,148.3,98.4,0.463
7.44,31995.9,35011.1,-0.02,0.0258,148.3,98.4,0.463
7.46,31977.8,34993.0,-0.1216,-0.0187,148.3,98.4,0.463
7.48,32017.1,34964.7,0.0993,-0.0883,148.3,98.4,0.463
7.5,32009.2,34879.2,0.0547,-0.2989,148.3,98.4,0.463
7.52,31896.1,34649.8,-0.5809,-0.8641,148.3,98.4,0.463
7.54,31852.8,34700.1,-0.8248,-0.7401,148.3,98.4,0.463
7.56,31829.7,34626.6,-0.9548,-0.9212,148.3,98.4,0.463
7.58,31813.4,34647.7,-1.0462,-0.8693,148.3,98.4,0.463
7.6,31770.6,34525.8,-1.2869,-1.1695,148.3,98.4,0.463
7.62,31795.6,34483.4,-1.1465,-1.274,148.3,98.4,0.463
7.64,31847.2,34498.7,-0.8563,-1.2362,148.3,98.4,0.463
7.66,31846.7,34620.8,-0.859,-0.9353,148.3,98.4,0.463
7.68,31939.4,34882.5,-0.3375,-0.2908,148.3,98.4,0.463
7.7,32140.2,35435.1,0.7917,1.0702,148.3,98.4,0.463
7.72,32366.8,35722.4,2.0661,1.7779,148.3,98.4,0.463
7.74,32337.4,35803.5,1.9008,1.9776,148.3,98.4,0.463
7.76,32293.0,35679.8,1.651,1.6729,148.3,98.4,0.463
7.78,32180.4,35455.1,1.0177,1.1194,148.3,98.4,0.463
7.8,32055.0,35292.3,0.3126,0.7185,148.3,98.4,0.463
7.82,32066.4,35232.1,0.3766,0.5701,148.3,98.4,0.463
7.84,32025.9,35054.0,0.1486,0.1317,148.3,98.4,0.463
7.86,32017.7,34979.9,0.1026,-0.0509,148.3,98.4,0.463
7.88,32007.3,34946.4,0.0444,-0.1334,148.3,98.4,0.463
7.9,31966.3,34868.6,-0.1863,-0.3251,148.3,98.4,0.463
7.92,31997.2,34771.8,-0.0128,-0.5636,148.3,98.4,0.463
7.94,31886.6,34678.8,-0.6347,-0.7925,148.3,98.4,0.463
7.96,31809.4,34571.7,-1.0688,-1.0563,148.3,98.4,0.463
7.98,31865.3,34751.7,-0.7543,-0.613,148.3,98.4,0.463
8.0,31812.1,34567.1,-1.0534,-1.0678,148.3,98.4,0.463
8.02,31719.5,34502.5,-1.5744,-1.2269,148.3,98.4,0.463
8.04,31792.3,34507.5,-1.1648,-1.2144,148.3,98.4,0.463
8.06,31890.6,34628.9,-0.6124,-0.9154,148.3,98.4,0.463
8.08,31953.4,34881.1,-0.2587,-0.2942,148.3,98.4,0.463
8.1,32086.2,35237.5,0.4883,0.5836,148.3,98.4,0.463
8.12,32293.8,35570.3,1.6557,1.4032,148.3,98.4,0.463
8.14,32341.2,35783.3,1.9224,1.9279,148.3,98.4,0.463
8.16,32303.5,35704.9,1.7101,1.7347,148.3,98.4,0.463
8.18,32161.9,35503.3,0.9139,1.2383,148.3,98.4,0.463
8.2,32202.0,35316.1,1.1396,0.777,148.3,98.4,0.463
8.22,32040.4,35171.1,0.2304,0.4201,148.3,98.4,0.463
8.24,32100.2,35164.9,0.5669,0.4048,148.3,98.4,0.463
8.26,31926.9,34964.9,-0.408,-0.0879,148.3,98.4,0.463
8.28,31988.0,34971.5,-0.0643,-0.0717,148.3,98.4,0.463
8.3,31949.3,34830.6,-0.2821,-0.4186,148.3,98.4,0.463
8.32,31815.5,34678.3,-1.0346,-0.7937,148.3,98.4,0.463
8.34,31877.2,34682.2,-0.6878,-0.7842,148.3,98.4,0.463
8.36,31813.5,34746.4,-1.0457,-0.626,148.3,98.4,0.463
8.38,31866.2,34641.9,-0.7495,-0.8834,148.3,98.4,0.463
8.4,31859.0,34595.4,-0.7901,-0.9979,148.3,98.4,0.463
8.42,31768.1,34470.1,-1.3014,-1.3066,148.3,98.4,0.463
8.44,31790.5,34505.1,-1.1749,-1.2204,148.3,98.4,0.463
8.46,31759.0,34553.2,-1.3523,-1.1019,148.3,98.4,0.463
8.48,31908.9,34827.4,-0.5094,-0.4266,148.3,98.4,0.463
8.5,32118.1,35217.8,0.6673,0.535,148.3,98.4,0.463
8.52,32247.1,35528.6,1.3929,1.3005,148.3,98.4,0.463
8.54,32248.8,35758.1,1.4024,1.8658,148.3,98.4,0.463
8.56,32418.5,35716.3,2.3569,1.7629,148.3,98.4,0.463
8.58,32190.2,35504.7,1.0729,1.2418,148.3,98.4,0.463
8.6,32162.7,35357.4,0.9182,0.8788,148.3,98.4,0.463
8.62,32114.2,35220.0,0.6457,0.5405,148.3,98.4,0.463
8.64,32112.4,35120.0,0.6352,0.2942,148.3,98.4,0.463
8.66,32017.4,35055.9,0.1013,0.1363,148.3,98.4,0.463
8.68,31921.0,35002.0,-0.4409,0.0035,148.3,98.4,0.463
8.7,31946.4,34927.2,-0.2985,-0.1808,148.3,98.4,0.463
8.72,32026.0,34768.4,0.1495,-0.5718,148.3,98.4,0.463
8.74,31821.9,34708.8,-0.9984,-0.7188,148.3,98.4,0.463
8.76,31847.2,34618.2,-0.8562,-0.9417,148.3,98.4,0.463
8.78,31960.3,34704.2,-0.2202,-0.73,148.3,98.4,0.463
8.8,31881.0,34562.4,-0.666,-1.0792,148.3,98.4,0.463
8.82,31825.5,34566.8,-0.9781,-1.0683,148.3,98.4,0.463
8.84,31732.6,34483.2,-1.501,-1.2743,148.3,98.4,0.463
8.86,31754.7,34482.1,-1.3763,-1.2771,148.3,98.4,0.463
8.88,31887.5,34647.2,-0.6295,-0.8704,148.3,98.4,0.463
8.9,32068.1,35118.0,0.3864,0.2892,148.3,98.4,0.463
8.92,32333.4,35436.9,1.8785,1.0747,148.3,98.4,0.463
8.94,32372.0,35794.0,2.0953,1.9543,148.3,98.4,0.463
8.96,32342.0,35743.8,1.9268,1.8306,148.3,98.4,0.463
8.98,32298.7,35535.1,1.683,1.3167,148.3,98.4,0.463
9.0,32221.7,35374.6,1.2502,0.9212,148.3,98.4,0.463
9.02,32069.9,35261.6,0.3963,0.6429,148.3,98.4,0.463
9.04,32038.5,35140.2,0.2195,0.3438,148.3,98.4,0.463
9.06,32058.0,35083.4,0.3294,0.2041,148.3,98.4,0.463
9.08,32011.1,35030.7,0.0657,0.0742,148.3,98.4,0.463
9.1,31886.2,34886.9,-0.6368,-0.28,148.3,98.4,0.463
9.12,31907.3,34721.8,-0.5184,-0.6866,148.3,98.4,0.463
9.14,31864.3,34758.8,-0.7603,-0.5955,148.3,98.4,0.463
9.16,31881.9,34615.2,-0.6611,-0.9492,148.3,98.4,0.463
9.18,31955.4,34718.1,-0.2477,-0.6958,148.3,98.4,0.463
9.2,31851.2,34505.5,-0.8337,-1.2193,148.3,98.4,0.463
9.22,31859.7,34603.0,-0.7861,-0.9792,148.3,98.4,0.463
9.24,31709.6,34454.1,-1.6305,-1.346,148.3,98.4,0.463
9.26,31762.6,34457.4,-1.3319,-1.3379,148.3,98.4,0.463
9.28,31905.5,34650.0,-0.5283,-0.8635,148.3,98.4,0.463
9.3,32033.3,35016.5,0.1904,0.0393,148.3,98.4,0.463
9.32,32150.6,35374.1,0.8505,0.9199,148.3,98.4,0.463
9.34,32302.8,35620.7,1.7064,1.5273,148.3,98.4,0.463
9.36,32263.8,35763.7,1.4869,1.8795,148.3,98.4,0.463
9.38,32252.8,35614.3,1.4248,1.5115,148.3,98.4,0.463
9.4,32188.5,35498.8,1.0633,1.2271,148.3,98.4,0.463
9.42,32135.6,35196.4,0.7657,0.4823,148.3,98.4,0.463
9.44,32094.0,35153.2,0.5318,0.3758,148.3,98.4,0.463
9.46,32110.6,35052.7,0.6251,0.1284,148.3,98.4,0.463
9.48,31999.0,35049.4,-0.0022,0.1202,148.3,98.4,0.463
9.5,31963.8,34970.6,-0.2002,-0.0737,148.3,98.4,0.463
9.52,31933.5,34878.2,-0.3707,-0.3013,148.3,98.4,0.463
9.54,31881.6,34696.8,-0.6627,-0.7482,148.3,98.4,0.463
9.56,31912.6,34665.3,-0.4885,-0.8258,148.3,98.4,0.463
9.58,31853.2,34695.8,-0.8227,-0.7506,148.3,98.4,0.463
9.6,31843.0,34616.2,-0.8799,-0.9467,148.3,98.4,0.463
9.62,31824.8,34517.0,-0.9822,-1.1912,148.3,98.4,0.463
9.64,31801.6,34414.8,-1.113,-1.4429,148.3,98.4,0.463
9.66,31736.0,34434.1,-1.4817,-1.3953,148.3,98.4,0.463
9.68,31913.2,34637.5,-0.485,-0.8944,148.3,98.4,0.463
9.7,32000.1,34940.5,0.004,-0.1479,148.3,98.4,0.463
9.72,32212.6,35284.4,1.1987,0.699,148.3,98.4,0.463
9.74,32337.2,35678.5,1.8998,1.6699,148.3,98.4,0.463
9.76,32420.7,35777.4,2.3693,1.9133,148.3,98.4,0.463
9.78,32343.4,35734.7,1.9345,1.8082,148.3,98.4,0.463
9.8,32210.4,35474.9,1.1865,1.1684,148.3,98.4,0.463
9.82,32153.0,35360.1,0.8639,0.8854,148.3,98.4,0.463
9.84,31988.8,35126.5,-0.0596,0.3101,148.3,98.4,0.463
9.86,32022.0,35082.2,0.127,0.2009,148.3,98.4,0.463
9.88,32015.1,34951.3,0.0884,-0.1213,148.3,98.4,0.463
9.9,32030.8,34997.4,0.1765,-0.0079,148.3,98.4,0.463
9.92,31909.0,34853.1,-0.5084,-0.3632,148.3,98.4,0.463
9.94,31850.7,34684.1,-0.8368,-0.7796,148.3,98.4,0.463
9.96,31933.5,34691.8,-0.371,-0.7604,148.3,98.4,0.463
9.98,31869.9,34669.0,-0.7283,-0.8166,148.3,98.4,0.463
10.0,31851.5,34686.0,-0.832,-0.7749,148.3,98.4,0.463
10.02,31839.7,34561.9,-0.8984,-1.0804,148.3,98.4,0.463
10.04,31764.6,34460.2,-1.3207,-1.331,148.3,98.4,0.463
10.06,31758.7,34540.3,-1.3538,-1.1336,148.3,98.4,0.463
10.08,31846.3,34594.6,-0.8613,-0.9999,148.3,98.4,0.463
10.1,31906.8,34815.3,-0.521,-0.4564,148.3,98.4,0.463
10.12,32184.4,35217.7,1.0403,0.5347,148.3,98.4,0.463
10.14,32221.8,35579.0,1.2507,1.4247,148.3,98.4,0.463
10.16,32288.8,35900.5,1.6277,2.2164,148.3,98.4,0.463
10.18,32305.3,35708.5,1.7206,1.7437,148.3,98.4,0.463
10.2,32208.4,35591.2,1.1751,1.4547,148.3,98.4,0.463
10.22,32199.7,35345.3,1.1262,0.8491,148.3,98.4,0.463
10.24,32015.7,35226.0,0.0916,0.5553,148.3,98.4,0.463
10.26,32096.6,35074.7,0.5464,0.1825,148.3,98.4,0.463
10.28,32018.5,35004.8,0.107,0.0104,148.3,98.4,0.463
10.3,31938.0,34957.9,-0.3455,-0.105,148.3,98.4,0.463
10.32,31971.5,34907.7,-0.1571,-0.2287,148.3,98.4,0.463
10.34,31822.8,34672.2,-0.9938,-0.8088,148.3,98.4,0.463
10.36,31806.1,34744.9,-1.0872,-0.6298,148.3,98.4,0.463
10.38,31931.7,34757.8,-0.3812,-0.598,148.3,98.4,0.463
10.4,31871.5,34602.3,-0.7199,-0.9809,148.3,98.4,0.463
10.42,31816.9,34628.2,-1.0266,-0.9172,148.3,98.4,0.463
10.44,31791.5,34470.2,-1.1696,-1.3063,148.3,98.4,0.463
10.46,31906.4,34389.4,-0.5232,-1.5053,148.3,98.4,0.463
10.48,31814.7,34506.4,-1.0389,-1.2171,148.3,98.4,0.463
10.5,31882.7,34841.1,-0.6565,-0.3929,148.3,98.4,0.463
10.52,32054.9,35050.2,0.3122,0.1221,148.3,98.4,0.463
10.54,32155.0,35440.4,0.875,1.0833,148.3,98.4,0.463
10.56,32261.3,35656.9,1.4731,1.6166,148.3,98.4,0.463
10.58,32389.3,35779.5,2.1929,1.9184,148.3,98.4,0.463
10.6,32322.4,35556.6,1.8164,1.3695,148.3,98.4,0.463
10.62,32164.3,35352.9,0.9275,0.8677,148.3,98.4,0.463
10.64,32082.2,35211.1,0.4656,0.5185,148.3,98.4,0.463
10.66,31971.0,35066.5,-0.1597,0.1623,148.3,98.4,0.463
10.68,32028.3,35166.2,0.1624,0.408,148.3,98.4,0.463
10.7,32070.7,35007.5,0.4009,0.0171,148.3,98.4,0.463
10.72,31935.5,34915.1,-0.3593,-0.2105,148.3,98.4,0.463
10.74,31879.5,34756.8,-0.6747,-0.6004,148.3,98.4,0.463
10.76,31788.3,34701.7,-1.1878,-0.7362,148.3,98.4,0.463
10.78,31892.2,34686.0,-0.603,-0.7749,148.3,98.4,0.463
10.8,31869.1,34631.8,-0.733,-0.9083,148.3,98.4,0.463
10.82,31714.4,34642.5,-1.6032,-0.8821,148.3,98.4,0.463
10.84,31843.8,34559.9,-0.8753,-1.0855,148.3,98.4,0.463
10.86,31759.8,34474.5,-1.3479,-1.2958,148.3,98.4,0.463
10.88,31755.8,34581.6,-1.3702,-1.032,148.3,98.4,0.463
10.9,31860.1,34654.3,-0.7838,-0.8529,148.3,98.4,0.463
10.92,31969.3,35010.1,-0.1693,0.0234,148.3,98.4,0.463
10.94,32143.5,35283.8,0.8104,0.6977,148.3,98.4,0.463
10.96,32281.9,35762.4,1.5886,1.8765,148.3,98.4,0.463
10.98,32342.0,35729.0,1.9268,1.7941,148.3,98.4,0.463
11.0,32243.1,35601.5,1.3708,1.4802,148.3,98.4,0.463
11.02,32146.9,35526.3,0.8292,1.2947,148.3,98.4,0.463
11.04,32048.7,35215.9,0.2769,0.5304,148.3,98.4,0.463
11.06,32062.4,35096.2,0.3543,0.2355,148.3,98.4,0.463
11.08,32017.2,35137.6,0.0998,0.3374,148.3,98.4,0.463
11.1,32071.2,35135.8,0.4037,0.333,148.3,98.4,0.463
11.12,31983.9,34920.1,-0.0876,-0.1981,148.3,98.4,0.463
11.14,31896.7,34766.8,-0.5776,-0.5759,148.3,98.4,0.463
11.16,31824.4,34632.0,-0.9844,-0.9078,148.3,98.4,0.463
11.18,31806.8,34715.6,-1.0834,-0.7019,148.3,98.4,0.463
11.2,31870.9,34672.9,-0.7229,-0.807,148.3,98.4,0.463
11.22,31823.4,34668.2,-0.9901,-0.8187,148.3,98.4,0.463
11.24,31835.6,34589.6,-0.9212,-1.0122,148.3,98.4,0.463
11.26,31708.5,34461.2,-1.6366,-1.3286,148.3,98.4,0.463
11.28,31721.3,34418.9,-1.5645,-1.4327,148.3,98.4,0.463
11.3,31849.0,34609.0,-0.8461,-0.9646,148.3,98.4,0.463
11.32,31959.1,35005.5,-0.2269,0.0121,148.3,98.4,0.463
11.34,32059.9,35353.0,0.3402,0.8679,148.3,98.4,0.463
11.36,32280.1,35687.4,1.5787,1.6917,148.3,98.4,0.463
11.38,32249.5,35830.1,1.4067,2.0431,148.3,98.4,0.463
11.4,32330.6,35648.9,1.8625,1.5968,148.3,98.4,0.463
11.42,32246.0,35470.9,1.3871,1.1583,148.3,98.4,0.463
11.44,32119.4,35298.9,0.675,0.7348,148.3,98.4,0.463
11.46,32145.9,35207.2,0.8238,0.5089,148.3,98.4,0.463
11.48,32074.3,35114.8,0.4209,0.2812,148.3,98.4,0.463
11.5,32038.2,35056.6,0.2179,0.1379,148.3,98.4,0.463
11.52,31985.2,34860.9,-0.0803,-0.3441,148.3,98.4,0.463
11.54,31903.6,34798.4,-0.539,-0.498,148.3,98.4,0.463
11.56,31847.5,34723.7,-0.8547,-0.6819,148.3,98.4,0.463
11.58,31901.9,34698.1,-0.5485,-0.7449,148.3,98.4,0.463
11.6,31736.3,34676.6,-1.4801,-0.7981,148.3,98.4,0.463
11.62,31837.5,34623.2,-0.911,-0.9296,148.3,98.4,0.463
11.64,31838.9,34588.6,-0.9028,-1.0148,148.3,98.4,0.463
11.66,31760.0,34488.9,-1.3466,-1.2602,148.3,98.4,0.463
11.68,31832.0,34461.1,-0.9417,-1.3287,148.3,98.4,0.463
11.7,31859.9,34517.6,-0.7846,-1.1897,148.3,98.4,0.463
11.72,32017.5,34864.9,0.1017,-0.3342,148.3,98.4,0.463
11.74,32181.0,35402.2,1.0212,0.9893,148.3,98.4,0.463
11.76,32194.8,35531.3,1.0989,1.3071,148.3,98.4,0.463
11.78,32316.0,35713.1,1.7806,1.7549,148.3,98.4,0.463
11.8,32244.0,35692.3,1.3758,1.7038,148.3,98.4,0.463
11.82,32151.3,35537.5,0.8539,1.3224,148.3,98.4,0.463
11.84,32066.9,35328.4,0.3793,0.8075,148.3,98.4,0.463
11.86,32008.1,35141.6,0.0485,0.3472,148.3,98.4,0.463
11.88,31971.9,35127.9,-0.155,0.3137,148.3,98.4,0.463
11.9,32079.1,35049.9,0.4481,0.1216,148.3,98.4,0.463
11.92,32087.3,34978.3,0.494,-0.055,148.3,98.4,0.463
11.94,31966.0,34875.1,-0.1879,-0.309,148.3,98.4,0.463
11.96,31855.0,34719.9,-0.8124,-0.6913,148.3,98.4,0.463
11.98,31895.9,34745.1,-0.5823,-0.6294,148.3,98.4,0.463
12.0,31892.4,34667.0,-0.602,-0.8217,148.3,98.4,0.463
12.02,31860.1,34738.4,-0.7837,-0.6458,148.3,98.4,0.463
12.04,31762.7,34625.4,-1.3313,-0.924,148.3,98.4,0.463
12.06,31827.5,34506.4,-0.9669,-1.2171,148.3,98.4,0.463
12.08,31723.3,34478.6,-1.5532,-1.2857,148.3,98.4,0.463
12.1,31879.4,34597.3,-0.6751,-0.9934,148.3,98.4,0.463
12.12,31943.8,34782.8,-0.3132,-0.5364,148.3,98.4,0.463
12.14,32082.1,35166.8,0.4648,0.4094,148.3,98.4,0.463
12.16,32227.1,35527.2,1.2807,1.2971,148.3,98.4,0.463
12.18,32504.2,35775.4,2.8392,1.9083,148.3,98.4,0.463
12.2,32377.1,35754.8,2.1242,1.8576,148.3,98.4,0.463
12.22,32217.6,35559.3,1.227,1.3761,148.3,98.4,0.463
12.24,32226.2,35369.6,1.2756,0.909,148.3,98.4,0.463
12.26,32042.5,35193.2,0.242,0.4744,148.3,98.4,0.463
12.28,32020.7,35229.1,0.1197,0.5628,148.3,98.4,0.463
12.3,31971.0,35022.7,-0.1598,0.0544,148.3,98.4,0.463
12.32,32083.9,35013.2,0.4753,0.031,148.3,98.4,0.463
12.34,31903.9,34894.9,-0.5376,-0.2603,148.3,98.4,0.463
12.36,31858.0,34737.0,-0.7958,-0.6493,148.3,98.4,0.463
12.38,31961.8,34643.8,-0.2115,-0.8788,148.3,98.4,0.463
12.4,31853.2,34721.6,-0.8226,-0.6872,148.3,98.4,0.463
12.42,31799.7,34700.6,-1.1237,-0.7388,148.3,98.4,0.463
12.44,31850.8,34676.6,-0.8357,-0.7981,148.3,98.4,0.463
12.46,31845.8,34481.8,-0.8641,-1.2777,148.3,98.4,0.463
12.48,31776.4,34460.5,-1.2544,-1.3301,148.3,98.4,0.463
12.5,31764.3,34528.8,-1.3223,-1.162,148.3,98.4,0.463
12.52,31851.3,34782.2,-0.833,-0.5378,148.3,98.4,0.463
12.54,32077.7,34997.3,0.4401,-0.0081,148.3,98.4,0.463
12.56,32133.0,35397.9,0.7511,0.9785,148.3,98.4,0.463
12.58,32226.5,35688.3,1.2774,1.694,148.3,98.4,0.463
12.6,32348.6,35794.0,1.9639,1.9542,148.3,98.4,0.463
12.62,32256.6,35661.3,1.4464,1.6274,148.3,98.4,0.463
12.64,32203.3,35429.0,1.1465,1.0553,148.3,98.4,0.463
12.66,32042.8,35242.2,0.244,0.5951,148.3,98.4,0.463
12.68,32005.7,35040.6,0.035,0.0985,148.3,98.4,0.463
12.7,32063.1,35135.9,0.3583,0.3332,148.3,98.4,0.463
12.72,32018.3,34995.2,0.1063,-0.0132,148.3,98.4,0.463
12.74,32047.3,34896.5,0.2693,-0.2565,148.3,98.4,0.463
12.76,31906.1,34825.8,-0.5248,-0.4305,148.3,98.4,0.463
12.78,31882.1,34603.4,-0.6599,-0.9783,148.3,98.4,0.463
12.8,31902.8,34717.1,-0.5434,-0.6983,148.3,98.4,0.463
12.82,31997.9,34731.9,-0.0086,-0.6618,148.3,98.4,0.463
12.84,31859.5,34637.3,-0.7868,-0.8948,148.3,98.4,0.463
12.86,31682.6,34498.0,-1.7821,-1.238,148.3,98.4,0.463
12.88,31807.4,34427.1,-1.0801,-1.4125,148.3,98.4,0.463
12.9,31803.5,34499.8,-1.1021,-1.2334,148.3,98.4,0.463
12.92,31794.9,34626.1,-1.1505,-0.9224,148.3,98.4,0.463
12.94,32035.2,35010.2,0.2013,0.0237,148.3,98.4,0.463
12.96,32183.9,35332.0,1.0378,0.8163,148.3,98.4,0.463
12.98,32334.3,35652.8,1.8832,1.6063,148.3,98.4,0.463
13.0,32329.6,35735.7,1.857,1.8105,148.3,98.4,0.463
13.02,32363.5,35626.3,2.048,1.5411,148.3,98.4,0.463
13.04,32232.9,35546.7,1.313,1.3452,148.3,98.4,0.463
13.06,32141.6,35263.2,0.7999,0.647,148.3,98.4,0.463
13.08,32116.0,35162.7,0.6556,0.3992,148.3,98.4,0.463
13.1,31996.0,35113.8,-0.019,0.2789,148.3,98.4,0.463
13.12,32009.3,35038.0,0.0553,0.0922,148.3,98.4,0.463
13.14,31948.1,34989.9,-0.289,-0.0262,148.3,98.4,0.463
13.16,31949.7,34866.2,-0.2794,-0.331,148.3,98.4,0.463
13.18,31789.9,34764.7,-1.1785,-0.5809,148.3,98.4,0.463
13.2,31933.6,34607.8,-0.3701,-0.9675,148.3,98.4,0.463
13.22,31875.1,34724.4,-0.6992,-0.6802,148.3,98.4,0.463
13.24,31805.3,34581.9,-1.092,-1.0311,148.3,98.4,0.463
13.26,31818.4,34532.3,-1.0181,-1.1533,148.3,98.4,0.463
13.28,31800.0,34520.9,-1.1219,-1.1815,148.3,98.4,0.463
13.3,31664.0,34509.1,-1.8865,-1.2106,148.3,98.4,0.463
13.32,31809.2,34632.1,-1.0701,-0.9076,148.3,98.4,0.463
13.34,31939.5,34896.1,-0.3373,-0.2572,148.3,98.4,0.463
13.36,32156.2,35235.6,0.8815,0.579,148.3,98.4,0.463
13.38,32211.1,35564.5,1.1906,1.389,148.3,98.4,0.463
13.4,32373.9,35673.0,2.1063,1.6562,148.3,98.4,0.463
13.42,32226.7,35672.6,1.2784,1.6551,148.3,98.4,0.463
13.44,32151.9,35586.7,0.8575,1.4437,148.3,98.4,0.463
13.46,32149.4,35301.1,0.8434,0.7402,148.3,98.4,0.463
13.48,32066.4,35221.1,0.3767,0.5432,148.3,98.4,0.463
13.5,32053.7,35094.3,0.3053,0.2308,148.3,98.4,0.463
13.52,32047.1,34991.1,0.2682,-0.0234,148.3,98.4,0.463
13.54,32005.4,35000.4,0.0338,-0.0005,148.3,98.4,0.463
13.56,31939.9,34886.9,-0.335,-0.2801,148.3,98.4,0.463
13.58,31869.6,34734.3,-0.7303,-0.6558,148.3,98.4,0.463
13.6,31821.9,34830.9,-0.9986,-0.4179,148.3,98.4,0.463
13.62,31862.8,34638.5,-0.7687,-0.8917,148.3,98.4,0.463
13.64,31846.1,34694.2,-0.8624,-0.7546,148.3,98.4,0.463
13.66,31724.0,34675.2,-1.5489,-0.8015,148.3,98.4,0.463
13.68,31834.8,34437.4,-0.9261,-1.3872,148.3,98.4,0.463
13.7,31774.4,34463.6,-1.2656,-1.3226,148.3,98.4,0.463
13.72,31816.6,34537.6,-1.0286,-1.1404,148.3,98.4,0.463
13.74,31878.9,34769.7,-0.6779,-0.5686,148.3,98.4,0.463
13.76,32117.8,35145.7,0.6656,0.3573,148.3,98.4,0.463
13.78,32221.0,35574.8,1.2462,1.4143,148.3,98.4,0.463
13.8,32248.2,35815.6,1.3991,2.0075,148.3,98.4,0.463
13.82,32353.7,35706.5,1.9929,1.7387,148.3,98.4,0.463
13.84,32255.0,35483.3,1.4373,1.1889,148.3,98.4,0.463
13.86,32093.7,35303.6,0.53,0.7464,148.3,98.4,0.463
13.88,32043.0,35279.4,0.245,0.6867,148.3,98.4,0.463
13.9,32012.9,34959.1,0.0756,-0.1021,148.3,98.4,0.463
13.92,31934.8,35030.4,-0.3637,0.0734,148.3,98.4,0.463
13.94,32049.2,35014.9,0.2797,0.0353,148.3,98.4,0.463
13.96,31974.6,34907.5,-0.1398,-0.2292,148.3,98.4,0.463
13.98,31901.3,34822.8,-0.5517,-0.4379,148.3,98.4,0.463
14.0,31814.6,34698.5,-1.0398,-0.744,148.3,98.4,0.463
14.02,31809.2,34592.3,-1.0699,-1.0056,148.3,98.4,0.463
14.04,31937.9,34647.9,-0.3462,-0.8687,148.3,98.4,0.463
14.06,31875.9,34589.1,-0.6948,-1.0134,148.3,98.4,0.463
14.08,31786.2,34502.5,-1.1993,-1.2268,148.3,98.4,0.463
14.1,31755.5,34482.5,-1.3722,-1.276,148.3,98.4,0.463
14.12,31867.6,34469.4,-0.7414,-1.3083,148.3,98.4,0.463
14.14,31912.4,34719.0,-0.4893,-0.6935,148.3,98.4,0.463
14.16,31990.3,35075.1,-0.0514,0.1836,148.3,98.4,0.463
14.18,32253.0,35487.0,1.4263,1.1981,148.3,98.4,0.463
14.2,32278.4,35774.2,1.5688,1.9055,148.3,98.4,0.463
14.22,32302.6,35758.0,1.7054,1.8657,148.3,98.4,0.463
14.24,32288.0,35535.4,1.6234,1.3172,148.3,98.4,0.463
14.26,32256.4,35397.6,1.4456,0.9778,148.3,98.4,0.463
14.28,32170.8,35161.6,0.9641,0.3967,148.3,98.4,0.463
14.3,32150.1,35147.2,0.8473,0.3611,148.3,98.4,0.463
14.32,31990.4,35162.7,-0.0506,0.3992,148.3,98.4,0.463
14.34,31976.6,35098.3,-0.1286,0.2407,148.3,98.4,0.463
14.36,31945.2,34970.6,-0.3049,-0.0739,148.3,98.4,0.463
14.38,31973.6,34811.6,-0.1453,-0.4654,148.3,98.4,0.463
14.4,31761.5,34611.6,-1.3384,-0.958,148.3,98.4,0.463
14.42,31897.4,34726.7,-0.5738,-0.6746,148.3,98.4,0.463
14.44,31777.9,34612.8,-1.2463,-0.955,148.3,98.4,0.463
14.46,31891.5,34645.2,-0.6072,-0.8754,148.3,98.4,0.463
14.48,31848.1,34508.8,-0.8514,-1.2113,148.3,98.4,0.463
14.5,31846.7,34517.2,-0.8591,-1.1905,148.3,98.4,0.463
14.52,31814.4,34539.1,-1.0406,-1.1367,148.3,98.4,0.463
14.54,31826.8,34671.7,-0.9713,-0.8099,148.3,98.4,0.463
14.56,31984.7,34988.7,-0.0831,-0.0293,148.3,98.4,0.463
14.58,32123.9,35360.6,0.7,0.8867,148.3,98.4,0.463
14.6,32244.5,35695.5,1.3785,1.7117,148.3,98.4,0.463
14.62,32395.4,35709.0,2.2274,1.7448,148.3,98.4,0.463
14.64,32337.3,35694.0,1.9001,1.7079,148.3,98.4,0.463
14.66,32196.1,35496.3,1.1062,1.2211,148.3,98.4,0.463
14.68,32105.7,35230.2,0.5977,0.5656,148.3,98.4,0.463
14.7,32111.8,35184.0,0.632,0.4518,148.3,98.4,0.463
14.72,32014.5,35138.3,0.0849,0.3392,148.3,98.4,0.463
14.74,32057.5,35033.6,0.3265,0.0814,148.3,98.4,0.463
14.76,31977.5,34891.7,-0.1232,-0.2682,148.3,98.4,0.463
14.78,31905.7,34805.0,-0.5273,-0.4817,148.3,98.4,0.463
14.8,31917.8,34728.5,-0.459,-0.6702,148.3,98.4,0.463
14.82,31867.8,34720.7,-0.7402,-0.6894,148.3,98.4,0.463
14.84,31826.0,34717.6,-0.9757,-0.6971,148.3,98.4,0.463
14.86,31870.7,34587.5,-0.7241,-1.0175,148.3,98.4,0.463
14.88,31777.0,34647.7,-1.2508,-0.8691,148.3,98.4,0.463
14.9,31763.1,34459.6,-1.3291,-1.3324,148.3,98.4,0.463
14.92,31720.2,34387.1,-1.5706,-1.5111,148.3,98.4,0.463
14.94,31857.5,34631.0,-0.7983,-0.9102,148.3,98.4,0.463
14.96,31999.9,34978.5,0.0029,-0.0545,148.3,98.4,0.463
14.98,32123.9,35284.8,0.7003,0.7001,148.3,98.4,0.463
15.0,32277.2,35518.9,1.5621,1.2766,148.3,98.4,0.463
15.02,32330.9,35772.4,1.8642,1.901,148.3,98.4,0.463
15.04,32330.1,35777.1,1.86,1.9126,148.3,98.4,0.463
15.06,32189.4,35515.6,1.0683,1.2685,148.3,98.4,0.463
15.08,32156.1,35298.6,0.8815,0.734,148.3,98.4,0.463
15.1,32034.7,35092.2,0.1981,0.2256,148.3,98.4,0.463
15.12,31925.8,35044.0,-0.4139,0.1069,148.3,98.4,0.463
15.14,32036.8,35042.2,0.2102,0.1025,148.3,98.4,0.463
15.16,31991.9,35106.4,-0.0426,0.2606,148.3,98.4,0.463
15.18,31934.0,34901.7,-0.3681,-0.2436,148.3,98.4,0.463
15.2,31975.8,34781.7,-0.1328,-0.5392,148.3,98.4,0.463
15.22,31857.6,34666.8,-0.798,-0.8221,148.3,98.4,0.463
15.24,31778.2,34665.1,-1.2443,-0.8263,148.3,98.4,0.463
15.26,31847.5,34711.7,-0.8547,-0.7114,148.3,98.4,0.463
15.28,31887.7,34572.7,-0.6285,-1.054,148.3,98.4,0.463
15.3,31854.8,34456.7,-0.8137,-1.3396,148.3,98.4,0.463
15.32,31754.1,34340.5,-1.3801,-1.6257,148.3,98.4,0.463
15.34,31840.7,34597.8,-0.8928,-0.992,148.3,98.4,0.463
15.36,31986.3,34847.5,-0.0739,-0.377,148.3,98.4,0.463
15.38,32030.4,35206.9,0.174,0.5081,148.3,98.4,0.463
15.4,32309.8,35552.9,1.7458,1.3605,148.3,98.4,0.463
15.42,32307.6,35772.7,1.7334,1.9018,148.3,98.4,0.463
15.44,32343.1,35680.4,1.9333,1.6745,148.3,98.4,0.463
15.46,32152.7,35639.1,0.8621,1.5727,148.3,98.4,0.463
15.48,32122.3,35325.3,0.6911,0.7998,148.3,98.4,0.463
15.5,32092.2,35152.5,0.5216,0.3742,148.3,98.4,0.463
15.52,32043.0,35040.7,0.2452,0.0989,148.3,98.4,0.463
15.54,32007.8,35017.9,0.0471,0.0428,148.3,98.4,0.463
15.56,31966.5,35011.2,-0.185,0.0263,148.3,98.4,0.463
15.58,31939.2,34887.3,-0.3386,-0.279,148.3,98.4,0.463
15.6,31903.7,34736.3,-0.5386,-0.651,148.3,98.4,0.463
15.62,31872.8,34761.6,-0.7122,-0.5886,148.3,98.4,0.463
15.64,31883.9,34658.5,-0.6498,-0.8426,148.3,98.4,0.463
15.66,31869.5,34595.3,-0.7307,-0.9981,148.3,98.4,0.463
15.68,31952.6,34664.3,-0.2636,-0.8284,148.3,98.4,0.463
15.7,31820.8,34537.4,-1.0046,-1.1409,148.3,98.4,0.463
15.72,31673.0,34421.5,-1.8362,-1.4262,148.3,98.4,0.463
15.74,31755.2,34494.1,-1.3738,-1.2475,148.3,98.4,0.463
15.76,31801.3,34722.7,-1.1146,-0.6845,148.3,98.4,0.463
15.78,32015.7,35075.9,0.0917,0.1856,148.3,98.4,0.463
15.8,32216.2,35468.9,1.2193,1.1536,148.3,98.4,0.463
15.82,32306.3,35637.2,1.7261,1.5681,148.3,98.4,0.463
15.84,32354.3,35713.6,1.9958,1.7562,148.3,98.4,0.463
15.86,32207.2,35637.8,1.1685,1.5695,148.3,98.4,0.463
15.88,32217.4,35328.5,1.2259,0.8077,148.3,98.4,0.463
15.9,32101.4,35261.9,0.5736,0.6437,148.3,98.4,0.463
15.92,32049.2,35189.2,0.2802,0.4646,148.3,98.4,0.463
15.94,32118.5,35082.8,0.6698,0.2026,148.3,98.4,0.463
15.96,31960.4,35037.0,-0.2194,0.0897,148.3,98.4,0.463
15.98,31951.6,34926.5,-0.2688,-0.1824,148.3,98.4,0.463
16.0,31962.3,34718.3,-0.2086,-0.6952,148.3,98.4,0.463
16.02,31885.0,34752.4,-0.6439,-0.6112,148.3,98.4,0.463
16.04,31842.2,34738.4,-0.8844,-0.6457,148.3,98.4,0.463
16.06,31867.0,34657.8,-0.745,-0.8443,148.3,98.4,0.463
16.08,31850.3,34680.3,-0.839,-0.7889,148.3,98.4,0.463
16.1,31801.5,34654.7,-1.1132,-0.8518,148.3,98.4,0.463
16.12,31784.2,34410.9,-1.2104,-1.4525,148.3,98.4,0.463
16.14,31791.3,34453.7,-1.1705,-1.3469,148.3,98.4,0.463
16.16,31856.3,34679.2,-0.8049,-0.7916,148.3,98.4,0.463
16.18,31898.2,34963.1,-0.5694,-0.0924,148.3,98.4,0.463
16.2,32218.5,35451.0,1.2324,1.1094,148.3,98.4,0.463
16.22,32307.1,35654.2,1.7304,1.6099,148.3,98.4,0.463
16.24,32313.9,35718.8,1.7688,1.7691,148.3,98.4,0.463
16.26,32268.7,35638.5,1.5143,1.5713,148.3,98.4,0.463
16.28,32220.1,35561.8,1.2414,1.3823,148.3,98.4,0.463
16.3,32087.0,35291.1,0.4924,0.7155,148.3,98.4,0.463
16.32,32046.0,35105.9,0.2618,0.2593,148.3,98.4,0.463
16.34,32006.9,35156.1,0.0417,0.383,148.3,98.4,0.463
16.36,31962.2,35039.8,-0.2093,0.0966,148.3,98.4,0.463
16.38,31928.0,34935.7,-0.402,-0.1598,148.3,98.4,0.463
16.4,31805.8,34835.7,-1.0893,-0.406,148.3,98.4,0.463
16.42,31870.9,34681.5,-0.7228,-0.7859,148.3,98.4,0.463
16.44,31843.6,34665.2,-0.8765,-0.826,148.3,98.4,0.463
16.46,31834.1,34708.0,-0.9301,-0.7207,148.3,98.4,0.463
16.48,31827.1,34610.7,-0.9692,-0.9602,148.3,98.4,0.463
16.5,31800.8,34504.2,-1.117,-1.2226,148.3,98.4,0.463
16.52,31747.8,34459.8,-1.4152,-1.3318,148.3,98.4,0.463
16.54,31779.3,34432.1,-1.2384,-1.4001,148.3,98.4,0.463
16.56,31843.7,34555.3,-0.8757,-1.0968,148.3,98.4,0.463
16.58,31971.4,34900.3,-0.1579,-0.247,148.3,98.4,0.463
16.6,32130.3,35241.5,0.7359,0.5934,148.3,98.4,0.463
16.62,32236.5,35686.9,1.3333,1.6905,148.3,98.4,0.463
16.64,32278.7,35775.9,1.571,1.9096,148.3,98.4,0.463
16.66,32302.0,35677.1,1.702,1.6663,148.3,98.4,0.463
16.68,32240.7,35547.7,1.3571,1.3476,148.3,98.4,0.463
16.7,32157.1,35355.8,0.8866,0.8749,148.3,98.4,0.463
16.72,32097.4,35094.0,0.5512,0.2301,148.3,98.4,0.463
16.74,32115.1,35178.9,0.6507,0.4391,148.3,98.4,0.463
16.76,32021.3,35042.1,0.1228,0.1023,148.3,98.4,0.463
16.78,31922.0,34929.2,-0.4353,-0.1758,148.3,98.4,0.463
16.8,31958.3,34935.1,-0.2312,-0.1613,148.3,98.4,0.463
16.82,31823.6,34661.2,-0.9892,-0.8359,148.3,98.4,0.463
16.84,31852.3,34709.9,-0.8275,-0.7161,148.3,98.4,0.463
16.86,31877.8,34622.9,-0.6842,-0.9304,148.3,98.4,0.463
16.88,31785.1,34705.5,-1.2055,-0.7268,148.3,98.4,0.463
16.9,31812.3,34582.0,-1.0525,-1.0309,148.3,98.4,0.463
16.92,31786.7,34425.9,-1.1963,-1.4154,148.3,98.4,0.463
16.94,31772.7,34437.6,-1.2753,-1.3867,148.3,98.4,0.463
16.96,31867.4,34563.5,-0.7425,-1.0765,148.3,98.4,0.463
16.98,31850.2,34718.3,-0.8392,-0.6953,148.3,98.4,0.463
17.0,32108.7,35245.7,0.6144,0.6038,148.3,98.4,0.463
17.02,32209.4,35477.1,1.1809,1.1736,148.3,98.4,0.463
17.04,32365.6,35741.5,2.0597,1.8248,148.3,98.4,0.463
17.06,32304.1,35806.4,1.7139,1.9848,148.3,98.4,0.463
17.08,32266.3,35569.7,1.5008,1.4019,148.3,98.4,0.463
17.1,32210.9,35364.7,1.1894,0.8969,148.3,98.4,0.463
17.12,32095.5,35178.4,0.5402,0.438,148.3,98.4,0.463
17.14,32123.9,35101.9,0.7,0.2494,148.3,98.4,0.463
17.16,32071.2,35091.4,0.4036,0.2237,148.3,98.4,0.463
17.18,31960.7,34969.6,-0.2179,-0.0764,148.3,98.4,0.463
17.2,31915.8,34848.0,-0.4703,-0.3757,148.3,98.4,0.463
17.22,31830.8,34796.9,-0.9487,-0.5016,148.3,98.4,0.463
17.24,31941.0,34657.5,-0.3289,-0.8449,148.3,98.4,0.463
17.26,31873.4,34709.2,-0.7091,-0.7177,148.3,98.4,0.463
17.28,31897.4,34717.7,-0.5737,-0.6967,148.3,98.4,0.463
17.3,31882.2,34645.2,-0.6592,-0.8753,148.3,98.4,0.463
17.32,31805.2,34555.0,-1.0926,-1.0974,148.3,98.4,0.463
17.34,31670.7,34475.0,-1.8491,-1.2946,148.3,98.4,0.463
17.36,31809.2,34526.8,-1.0702,-1.1669,148.3,98.4,0.463
17.38,31853.3,34710.0,-0.8222,-0.7158,148.3,98.4,0.463
17.4,31953.2,35110.3,-0.2602,0.2701,148.3,98.4,0.463
17.42,32083.8,35416.8,0.4746,1.0252,148.3,98.4,0.463
17.44,32267.4,35633.3,1.5073,1.5583,148.3,98.4,0.463
17.46,32296.0,35787.9,1.668,1.9392,148.3,98.4,0.463
17.48,32273.0,35559.3,1.5388,1.3762,148.3,98.4,0.463
17.5,32216.7,35415.5,1.2218,1.0219,148.3,98.4,0.463
17.52,32003.2,35226.4,0.0211,0.5561,148.3,98.4,0.463
17.54,32033.6,35117.9,0.1925,0.2889,148.3,98.4,0.463
17.56,32081.1,35051.7,0.4593,0.126,148.3,98.4,0.463
17.58,31984.4,34958.4,-0.0844,-0.104,148.3,98.4,0.463
17.6,31935.8,34987.2,-0.3577,-0.033,148.3,98.4,0.463
17.62,31858.9,34892.9,-0.7902,-0.2652,148.3,98.4,0.463
17.64,31856.6,34691.5,-0.8031,-0.7613,148.3,98.4,0.463
17.66,31913.0,34702.2,-0.4859,-0.7348,148.3,98.4,0.463
17.68,31893.6,34703.0,-0.5953,-0.733,148.3,98.4,0.463
17.7,31731.5,34669.9,-1.5071,-0.8146,148.3,98.4,0.463
17.72,31781.4,34548.9,-1.2266,-1.1124,148.3,98.4,0.463
17.74,31815.4,34444.8,-1.0349,-1.3689,148.3,98.4,0.463
17.76,31762.6,34447.0,-1.3323,-1.3636,148.3,98.4,0.463
17.78,31942.0,34649.3,-0.3231,-0.8653,148.3,98.4,0.463
17.8,31975.5,35046.7,-0.1348,0.1136,148.3,98.4,0.463
17.82,32241.0,35393.0,1.3585,0.9667,148.3,98.4,0.463
17.84,32278.5,35654.4,1.5699,1.6104,148.3,98.4,0.463
17.86,32234.3,35801.5,1.321,1.9728,148.3,98.4,0.463
17.88,32237.4,35627.8,1.3384,1.5449,148.3,98.4,0.463
17.9,32249.5,35454.0,1.4065,1.1168,148.3,98.4,0.463
17.92,32155.7,35274.6,0.8789,0.675,148.3,98.4,0.463
17.94,32004.2,35211.0,0.0266,0.5183,148.3,98.4,0.463
17.96,32083.1,35107.7,0.4704,0.2637,148.3,98.4,0.463
17.98,31919.6,34975.1,-0.4491,-0.0629,148.3,98.4,0.463
18.0,31997.4,34871.4,-0.0116,-0.3182,148.3,98.4,0.463
18.02,31829.6,34747.5,-0.9551,-0.6232,148.3,98.4,0.463
18.04,31920.9,34674.3,-0.4419,-0.8036,148.3,98.4,0.463
18.06,31887.6,34745.3,-0.6292,-0.6288,148.3,98.4,0.463
18.08,31815.8,34685.4,-1.0331,-0.7764,148.3,98.4,0.463
18.1,31880.4,34600.7,-0.6697,-0.9849,148.3,98.4,0.463
18.12,31824.5,34543.4,-0.9839,-1.126,148.3,98.4,0.463
18.14,31791.9,34463.1,-1.1674,-1.3237,148.3,98.4,0.463
18.16,31771.9,34531.7,-1.2801,-1.1549,148.3,98.4,0.463
18.18,31801.1,34716.9,-1.1156,-0.6987,148.3,98.4,0.463
18.2,32005.4,34984.8,0.0334,-0.0389,148.3,98.4,0.463
18.22,32118.3,35309.2,0.6688,0.7602,148.3,98.4,0.463
18.24,32268.2,35576.9,1.5118,1.4194,148.3,98.4,0.463
18.26,32311.6,35767.5,1.7556,1.889,148.3,98.4,0.463
18.28,32289.3,35724.6,1.6302,1.7833,148.3,98.4,0.463
18.3,32224.0,35457.7,1.2633,1.1258,148.3,98.4,0.463
18.32,32195.1,35285.9,1.1006,0.7028,148.3,98.4,0.463
18.34,32061.9,35083.6,0.3513,0.2046,148.3,98.4,0.463
18.36,32031.4,35117.7,0.1799,0.2885,148.3,98.4,0.463
18.38,32015.4,35029.3,0.0897,0.0706,148.3,98.4,0.463
18.4,32033.2,34915.2,0.1901,-0.2103,148.3,98.4,0.463
18.42,31929.0,34837.5,-0.396,-0.4016,148.3,98.4,0.463
18.44,31917.9,34750.8,-0.4588,-0.6151,148.3,98.4,0.463
18.46,31842.6,34632.3,-0.8821,-0.9071,148.3,98.4,0.463
18.48,31771.0,34649.7,-1.2849,-0.8642,148.3,98.4,0.463
18.5,31859.0,34623.7,-0.79,-0.9283,148.3,98.4,0.463
18.52,31868.1,34484.8,-0.7388,-1.2705,148.3,98.4,0.463
18.54,31792.4,34467.6,-1.1642,-1.3128,148.3,98.4,0.463
18.56,31755.1,34471.0,-1.374,-1.3043,148.3,98.4,0.463
18.58,31836.8,34506.7,-0.9147,-1.2165,148.3,98.4,0.463
18.6,31878.3,34844.0,-0.6816,-0.3856,148.3,98.4,0.463
18.62,32030.8,35233.5,0.1767,0.5736,148.3,98.4,0.463
18.64,32234.6,35536.1,1.3228,1.319,148.3,98.4,0.463
18.66,32387.5,35799.6,2.1827,1.968,148.3,98.4,0.463
18.68,32192.4,35677.2,1.0853,1.6665,148.3,98.4,0.463
18.7,32287.4,35456.0,1.6197,1.1218,148.3,98.4,0.463
18.72,32179.1,35400.5,1.0103,0.9851,148.3,98.4,0.463
18.74,32126.0,35219.0,0.7117,0.538,148.3,98.4,0.463
18.76,32139.3,35176.0,0.7867,0.432,148.3,98.4,0.463
18.78,32031.5,35131.1,0.1805,0.3216,148.3,98.4,0.463
18.8,31946.1,35015.8,-0.3,0.0376,148.3,98.4,0.463
18.82,31957.6,34831.3,-0.2355,-0.4168,148.3,98.4,0.463
18.84,31838.7,34821.6,-0.9041,-0.4408,148.3,98.4,0.463
18.86,31904.5,34676.0,-0.5342,-0.7994,148.3,98.4,0.463
18.88,31829.1,34631.1,-0.9581,-0.9101,148.3,98.4,0.463
18.9,31888.6,34608.6,-0.6234,-0.9655,148.3,98.4,0.463
18.92,31741.6,34628.7,-1.4501,-0.9161,148.3,98.4,0.463
18.94,31746.0,34451.4,-1.4252,-1.3527,148.3,98.4,0.463
18.96,31822.8,34499.6,-0.9936,-1.2338,148.3,98.4,0.463
18.98,31863.1,34521.7,-0.767,-1.1796,148.3,98.4,0.463
19.0,31949.6,34805.3,-0.2801,-0.4809,148.3,98.4,0.463
19.02,32027.7,35252.7,0.1587,0.6209,148.3,98.4,0.463
19.04,32211.5,35476.1,1.1928,1.1713,148.3,98.4,0.463
19.06,32391.5,35686.3,2.2055,1.689,148.3,98.4,0.463
19.08,32371.5,35695.5,2.093,1.7115,148.3,98.4,0.463
19.1,32266.3,35580.7,1.5009,1.4289,148.3,98.4,0.463
19.12,32211.6,35373.4,1.1936,0.9182,148.3,98.4,0.463
19.14,32166.5,35206.5,0.9399,0.5072,148.3,98.4,0.463
19.16,32087.1,35190.2,0.4933,0.4672,148.3,98.4,0.463
19.18,32040.6,35051.1,0.2315,0.1245,148.3,98.4,0.463
19.2,31974.2,34987.5,-0.1419,-0.0323,148.3,98.4,0.463
19.22,31950.7,34876.0,-0.2739,-0.3068,148.3,98.4,0.463
19.24,31881.2,34791.0,-0.6652,-0.5161,148.3,98.4,0.463
19.26,31806.8,34758.4,-1.0832,-0.5965,148.3,98.4,0.463
19.28,31878.0,34684.7,-0.6828,-0.7781,148.3,98.4,0.463
19.3,31788.2,34560.6,-1.1883,-1.0837,148.3,98.4,0.463
19.32,31808.9,34644.1,-1.0718,-0.8781,148.3,98.4,0.463
19.34,31817.9,34463.3,-1.0212,-1.3234,148.3,98.4,0.463
19.36,31783.9,34511.7,-1.2122,-1.2042,148.3,98.4,0.463
19.38,31781.6,34456.0,-1.2253,-1.3414,148.3,98.4,0.463
19.4,31871.3,34696.7,-0.7204,-0.7484,148.3,98.4,0.463
19.42,32035.8,35062.0,0.2048,0.1513,148.3,98.4,0.463
19.44,32130.3,35420.5,0.736,1.0342,148.3,98.4,0.463
19.46,32354.6,35796.9,1.9977,1.9614,148.3,98.4,0.463
19.48,32378.8,35738.1,2.1337,1.8165,148.3,98.4,0.463
19.5,32349.2,35600.0,1.9673,1.4764,148.3,98.4,0.463
19.52,32147.8,35402.2,0.8342,0.9892,148.3,98.4,0.463
19.54,32073.8,35125.8,0.4184,0.3083,148.3,98.4,0.463
19.56,32071.0,35069.4,0.4024,0.1694,148.3,98.4,0.463
19.58,32071.2,35097.5,0.4039,0.2388,148.3,98.4,0.463
19.6,32056.0,35049.7,0.318,0.1209,148.3,98.4,0.463
19.62,31996.6,34956.5,-0.0159,-0.1087,148.3,98.4,0.463
19.64,31865.8,34838.1,-0.7517,-0.4002,148.3,98.4,0.463
19.66,31913.4,34733.4,-0.4837,-0.6581,148.3,98.4,0.463
19.68,31876.6,34694.2,-0.6908,-0.7547,148.3,98.4,0.463
19.7,31871.5,34705.4,-0.7198,-0.727,148.3,98.4,0.463
19.72,31971.8,34613.5,-0.1553,-0.9533,148.3,98.4,0.463
19.74,31794.5,34551.7,-1.1527,-1.1056,148.3,98.4,0.463
19.76,31786.1,34496.5,-1.1996,-1.2415,148.3,98.4,0.463
19.78,31809.7,34478.9,-1.0671,-1.2848,148.3,98.4,0.463
19.8,31843.2,34580.4,-0.8789,-1.0349,148.3,98.4,0.463
19.82,31951.9,34962.7,-0.2673,-0.0933,148.3,98.4,0.463
19.84,32107.5,35306.1,0.6078,0.7525,148.3,98.4,0.463
19.86,32218.7,35692.6,1.2331,1.7044,148.3,98.4,0.463
19.88,32328.9,35711.7,1.8531,1.7515,148.3,98.4,0.463
19.9,32327.6,35616.9,1.8457,1.5181,148.3,98.4,0.463
19.92,32196.6,35631.7,1.109,1.5545,148.3,98.4,0.463
19.94,32149.2,35250.3,0.8425,0.6151,148.3,98.4,0.463
19.96,32068.5,35166.3,0.3885,0.4082,148.3,98.4,0.463
19.98,32013.5,35078.0,0.0792,0.1907,148.3,98.4,0.463
20.0,32068.5,35087.0,0.3884,0.2129,148.3,98.4,0.463
20.02,31927.2,35045.7,-0.4063,0.1111,148.3,98.4,0.463
20.04,31817.6,34837.7,-1.0227,-0.4012,148.3,98.4,0.463
20.06,31995.8,34658.5,-0.0206,-0.8426,148.3,98.4,0.463
20.08,31808.0,34627.7,-1.0769,-0.9185,148.3,98.4,0.463
20.1,31840.1,34716.1,-0.896,-0.7007,148.3,98.4,0.463
20.12,31726.2,34667.2,-1.5369,-0.8211,148.3,98.4,0.463
20.14,31822.1,34496.5,-0.9977,-1.2415,148.3,98.4,0.463
20.16,31787.5,34491.9,-1.1923,-1.253,148.3,98.4,0.463
20.18,31704.7,34414.3,-1.6576,-1.444,148.3,98.4,0.463
20.2,31867.0,34605.1,-0.7448,-0.9742,148.3,98.4,0.463
20.22,31970.6,34980.8,-0.1621,-0.0488,148.3,98.4,0.463
20.24,32203.7,35332.8,1.1489,0.8182,148.3,98.4,0.463
20.26,32144.8,35536.4,0.8177,1.3196,148.3,98.4,0.463
20.28,32265.2,35797.3,1.4948,1.9624,148.3,98.4,0.463
20.3,32218.6,35696.2,1.2326,1.7134,148.3,98.4,0.463
20.32,32232.5,35368.5,1.3112,0.9063,148.3,98.4,0.463
20.34,32156.1,35365.1,0.8815,0.8977,148.3,98.4,0.463
20.36,32069.5,35192.5,0.3943,0.4726,148.3,98.4,0.463
20.38,32008.1,35101.4,0.0488,0.2483,148.3,98.4,0.463
20.4,32023.9,35060.4,0.1379,0.1474,148.3,98.4,0.463
20.42,31985.8,34974.2,-0.0767,-0.0649,148.3,98.4,0.463
20.44,31935.9,34776.7,-0.3573,-0.5514,148.3,98.4,0.463
20.46,31916.7,34762.7,-0.4651,-0.5859,148.3,98.4,0.463
20.48,31898.5,34710.4,-0.5679,-0.7147,148.3,98.4,0.463
20.5,31887.8,34686.1,-0.6276,-0.7746,148.3,98.4,0.463
20.52,31781.6,34583.8,-1.2255,-1.0265,148.3,98.4,0.463
20.54,31740.8,34485.2,-1.455,-1.2693,148.3,98.4,0.463
20.56,31849.1,34436.2,-0.8457,-1.39,148.3,98.4,0.463
20.58,31798.3,34450.4,-1.1313,-1.3552,148.3,98.4,0.463
20.6,31898.7,34466.0,-0.5667,-1.3167,148.3,98.4,0.463
20.62,31852.5,34763.3,-0.8265,-0.5844,148.3,98.4,0.463
20.64,32154.8,35200.9,0.874,0.4934,148.3,98.4,0.463
20.66,32213.6,35534.7,1.2044,1.3155,148.3,98.4,0.463
20.68,32287.1,35772.5,1.6178,1.9014,148.3,98.4,0.463
20.7,32273.9,35727.8,1.5439,1.7911,148.3,98.4,0.463
20.72,32258.2,35553.8,1.4557,1.3627,148.3,98.4,0.463
20.74,32212.2,35359.6,1.1965,0.8842,148.3,98.4,0.463
20.76,32166.0,35142.0,0.9368,0.3484,148.3,98.4,0.463
20.78,31997.8,35090.2,-0.0091,0.2207,148.3,98.4,0.463
20.8,31991.8,35117.0,-0.043,0.2866,148.3,98.4,0.463
20.82,31908.1,34969.6,-0.5134,-0.0763,148.3,98.4,0.463
20.84,31881.8,34879.6,-0.6619,-0.2979,148.3,98.4,0.463
20.86,31832.0,34845.7,-0.9416,-0.3816,148.3,98.4,0.463
20.88,31818.7,34710.0,-1.0163,-0.7157,148.3,98.4,0.463
20.9,31893.2,34760.3,-0.5975,-0.5917,148.3,98.4,0.463
20.92,31941.0,34759.8,-0.3288,-0.593,148.3,98.4,0.463
20.94,31843.7,34591.0,-0.8758,-1.0088,148.3,98.4,0.463
20.96,31752.2,34520.5,-1.3908,-1.1824,148.3,98.4,0.463
20.98,31808.0,34483.7,-1.077,-1.2732,148.3,98.4,0.463
21.0,31771.5,34397.4,-1.2818,-1.4856,148.3,98.4,0.463
21.02,31873.6,34795.6,-0.7077,-0.5049,148.3,98.4,0.463
21.04,32029.8,35122.6,0.1706,0.3006,148.3,98.4,0.463
21.06,32100.2,35357.9,0.5665,0.8801,148.3,98.4,0.463
21.08,32379.5,35664.2,2.1378,1.6345,148.3,98.4,0.463
21.1,32303.3,35823.4,1.7089,2.0268,148.3,98.4,0.463
21.12,32219.5,35614.1,1.238,1.5111,148.3,98.4,0.463
21.14,32193.3,35544.0,1.0907,1.3385,148.3,98.4,0.463
21.16,32158.7,35216.2,0.8957,0.531,148.3,98.4,0.463
21.18,32053.3,35159.2,0.3031,0.3907,148.3,98.4,0.463
21.2,32048.5,35067.4,0.276,0.1645,148.3,98.4,0.463
21.22,31916.0,34905.0,-0.4691,-0.2353,148.3,98.4,0.463
21.24,31980.5,34932.0,-0.1062,-0.169,148.3,98.4,0.463
21.26,31964.4,34738.0,-0.1972,-0.6467,148.3,98.4,0.463
21.28,31886.0,34701.8,-0.638,-0.7358,148.3,98.4,0.463
21.3,31838.7,34740.4,-0.9042,-0.6408,148.3,98.4,0.463
21.32,31873.2,34692.5,-0.7098,-0.7587,148.3,98.4,0.463
21.34,31890.7,34629.9,-0.6116,-0.9129,148.3,98.4,0.463
21.36,31879.9,34466.5,-0.6725,-1.3154,148.3,98.4,0.463
21.38,31639.8,34340.3,-2.0227,-1.6263,148.3,98.4,0.463
21.4,31733.3,34471.1,-1.4966,-1.3042,148.3,98.4,0.463
21.42,31876.5,34611.1,-0.6915,-0.9593,148.3,98.4,0.463
21.44,32014.9,35059.8,0.0869,0.1459,148.3,98.4,0.463
21.46,32153.0,35295.8,0.8638,0.7272,148.3,98.4,0.463
21.48,32361.5,35723.0,2.0366,1.7793,148.3,98.4,0.463
21.5,32326.6,35841.5,1.8402,2.0712,148.3,98.4,0.463
21.52,32290.4,35612.0,1.6368,1.5059,148.3,98.4,0.463
21.54,32173.7,35502.6,0.9803,1.2366,148.3,98.4,0.463
21.56,32113.2,35234.9,0.6401,0.5772,148.3,98.4,0.463
21.58,32002.0,35066.7,0.0144,0.1628,148.3,98.4,0.463
21.6,31995.9,35142.4,-0.0196,0.3493,148.3,98.4,0.463
21.62,31988.6,35082.7,-0.061,0.2024,148.3,98.4,0.463
21.64,31939.7,34888.3,-0.336,-0.2766,148.3,98.4,0.463
21.66,31978.4,34927.4,-0.1182,-0.1803,148.3,98.4,0.463
21.68,31857.0,34684.5,-0.8013,-0.7785,148.3,98.4,0.463
21.7,31831.7,34636.3,-0.9434,-0.8973,148.3,98.4,0.463
21.72,31943.7,34786.7,-0.3137,-0.5267,148.3,98.4,0.463
21.74,31846.1,34690.9,-0.8624,-0.7626,148.3,98.4,0.463
21.76,31706.1,34613.4,-1.6497,-0.9537,148.3,98.4,0.463
21.78,31738.9,34646.6,-1.4654,-0.8718,148.3,98.4,0.463
21.8,31735.7,34534.0,-1.4833,-1.1492,148.3,98.4,0.463
21.82,31810.2,34561.3,-1.0643,-1.0819,148.3,98.4,0.463
21.84,31906.0,34980.7,-0.5254,-0.049,148.3,98.4,0.463
21.86,32152.4,35196.7,0.8607,0.483,148.3,98.4,0.463
21.88,32226.8,35607.2,1.2791,1.4941,148.3,98.4,0.463
21.9,32235.5,35772.7,1.3276,1.9018,148.3,98.4,0.463
21.92,32299.2,35686.9,1.6862,1.6904,148.3,98.4,0.463
21.94,32253.5,35509.6,1.4292,1.2537,148.3,98.4,0.463
21.96,32176.4,35349.6,0.9952,0.8598,148.3,98.4,0.463
21.98,32042.3,35171.3,0.241,0.4206,148.3,98.4,0.463
22.0,32002.5,35164.4,0.0171,0.4035,148.3,98.4,0.463
22.02,32024.3,35056.5,0.14,0.1378,148.3,98.4,0.463
22.04,32010.7,34971.7,0.0635,-0.0711,148.3,98.4,0.463
22.06,31888.6,34822.8,-0.6234,-0.4379,148.3,98.4,0.463
22.08,31911.1,34707.6,-0.4966,-0.7215,148.3,98.4,0.463
22.1,31858.2,34715.4,-0.7944,-0.7025,148.3,98.4,0.463
22.12,31895.9,34675.5,-0.5823,-0.8006,148.3,98.4,0.463
22.14,31813.3,34621.9,-1.0471,-0.9327,148.3,98.4,0.463
22.16,31854.7,34501.9,-0.8139,-1.2282,148.3,98.4,0.463
22.18,31770.9,34519.8,-1.2857,-1.1842,148.3,98.4,0.463
22.2,31772.8,34517.1,-1.2749,-1.1907,148.3,98.4,0.463
22.22,31867.3,34544.0,-0.7433,-1.1245,148.3,98.4,0.463
22.24,31942.1,34825.8,-0.3227,-0.4305,148.3,98.4,0.463
22.26,32212.7,35226.5,1.1996,0.5564,148.3,98.4,0.463
22.28,32200.2,35502.5,1.1292,1.2362,148.3,98.4,0.463
22.3,32347.7,35744.7,1.9586,1.8327,148.3,98.4,0.463
22.32,32303.4,35715.8,1.71,1.7616,148.3,98.4,0.463
22.34,32178.4,35602.2,1.0065,1.4818,148.3,98.4,0.463
22.36,32150.9,35396.2,0.8521,0.9743,148.3,98.4,0.463
22.38,32107.7,35161.0,0.6088,0.395,148.3,98.4,0.463
22.4,32054.1,35143.4,0.3076,0.3518,148.3,98.4,0.463
22.42,32033.8,35102.3,0.1934,0.2506,148.3,98.4,0.463
22.44,32004.0,34987.3,0.026,-0.0328,148.3,98.4,0.463
22.46,31925.6,34899.6,-0.4153,-0.2488,148.3,98.4,0.463
22.48,31978.0,34877.1,-0.1207,-0.3042,148.3,98.4,0.463
22.5,31873.7,34671.3,-0.707,-0.811,148.3,98.4,0.463
22.52,31812.1,34703.5,-1.0538,-0.7317,148.3,98.4,0.463
22.54,31875.0,34615.7,-0.7,-0.948,148.3,98.4,0.463
22.56,31842.4,34572.0,-0.8835,-1.0555,148.3,98.4,0.463
22.58,31767.2,34526.6,-1.3062,-1.1673,148.3,98.4,0.463
22.6,31801.3,34397.2,-1.1142,-1.4862,148.3,98.4,0.463
22.62,31872.2,34397.0,-0.7158,-1.4866,148.3,98.4,0.463
22.64,31927.6,34761.3,-0.404,-0.5894,148.3,98.4,0.463
22.66,32081.3,35086.3,0.4604,0.2112,148.3,98.4,0.463
22.68,32183.5,35387.9,1.0353,0.954,148.3,98.4,0.463
22.7,32344.3,35687.2,1.9398,1.6911,148.3,98.4,0.463
22.72,32339.2,35654.3,1.9112,1.61,148.3,98.4,0.463
22.74,32186.5,35521.8,1.0524,1.2838,148.3,98.4,0.463
22.76,32184.8,35323.1,1.0427,0.7944,148.3,98.4,0.463
22.78,32022.9,35255.6,0.1321,0.6282,148.3,98.4,0.463
22.8,32022.3,35143.7,0.1288,0.3525,148.3,98.4,0.463
22.82,32026.2,34981.7,0.1508,-0.0466,148.3,98.4,0.463
22.84,32005.5,35087.0,0.0341,0.2128,148.3,98.4,0.463
22.86,31962.5,34893.9,-0.2079,-0.2627,148.3,98.4,0.463
22.88,31994.7,34854.4,-0.0267,-0.3601,148.3,98.4,0.463
22.9,31948.8,34689.2,-0.2849,-0.767,148.3,98.4,0.463
22.92,31833.1,34609.3,-0.9355,-0.9637,148.3,98.4,0.463
22.94,31767.2,34652.0,-1.3065,-0.8584,148.3,98.4,0.463
22.96,31772.4,34653.3,-1.2769,-0.8553,148.3,98.4,0.463
22.98,31743.9,34542.0,-1.4375,-1.1296,148.3,98.4,0.463
23.0,31781.2,34504.6,-1.2277,-1.2216,148.3,98.4,0.463
23.02,31806.5,34488.1,-1.085,-1.2623,148.3,98.4,0.463
23.04,31823.0,34617.7,-0.9926,-0.943,148.3,98.4,0.463
23.06,31987.8,35025.1,-0.0655,0.0604,148.3,98.4,0.463
23.08,32162.7,35338.8,0.9181,0.8332,148.3,98.4,0.463
23.1,32340.6,35749.7,1.9187,1.8451,148.3,98.4,0.463
23.12,32306.3,35796.8,1.7261,1.9612,148.3,98.4,0.463
23.14,32200.7,35673.4,1.1318,1.6571,148.3,98.4,0.463
23.16,32152.3,35415.3,0.86,1.0214,148.3,98.4,0.463
23.18,32127.3,35212.0,0.7194,0.5206,148.3,98.4,0.463
23.2,32082.8,35167.4,0.4689,0.4108,148.3,98.4,0.463
23.22,31953.4,35052.7,-0.2588,0.1284,148.3,98.4,0.463
23.24,31957.3,35098.4,-0.2369,0.2409,148.3,98.4,0.463
23.26,31951.7,34971.8,-0.2685,-0.0709,148.3,98.4,0.463
23.28,31998.1,34859.9,-0.0077,-0.3465,148.3,98.4,0.463
23.3,31894.0,34789.4,-0.5932,-0.52,148.3,98.4,0.463
23.32,31908.6,34669.7,-0.5107,-0.8149,148.3,98.4,0.463
23.34,31820.8,34702.9,-1.0046,-0.7333,148.3,98.4,0.463
23.36,31868.2,34624.0,-0.7379,-0.9275,148.3,98.4,0.463
23.38,31762.9,34514.1,-1.3302,-1.1981,148.3,98.4,0.463
23.4,31831.0,34516.7,-0.9474,-1.1919,148.3,98.4,0.463
23.42,31810.9,34555.2,-1.0605,-1.0971,148.3,98.4,0.463
23.44,31804.2,34566.3,-1.0982,-1.0697,148.3,98.4,0.463
23.46,31886.3,34799.0,-0.6362,-0.4965,148.3,98.4,0.463
23.48,32123.7,35381.2,0.6988,0.9376,148.3,98.4,0.463
23.5,32245.8,35660.9,1.3857,1.6263,148.3,98.4,0.463
23.52,32223.0,35723.2,1.2574,1.7798,148.3,98.4,0.463
23.54,32368.5,35734.9,2.076,1.8087,148.3,98.4,0.463
23.56,32236.5,35511.4,1.3332,1.2582,148.3,98.4,0.463
23.58,32141.1,35296.3,0.797,0.7283,148.3,98.4,0.463
23.6,32006.5,35158.8,0.0397,0.3897,148.3,98.4,0.463
23.62,32093.5,35133.0,0.5294,0.3262,148.3,98.4,0.463
23.64,32041.3,35056.4,0.2354,0.1376,148.3,98.4,0.463
23.66,32018.4,35021.1,0.1068,0.0505,148.3,98.4,0.463
23.68,31955.6,34869.0,-0.2466,-0.3242,148.3,98.4,0.463
23.7,31896.4,34842.9,-0.5795,-0.3883,148.3,98.4,0.463
23.72,31948.6,34713.5,-0.2862,-0.7071,148.3,98.4,0.463
23.74,31840.6,34591.4,-0.8932,-1.0077,148.3,98.4,0.463
23.76,31752.2,34599.4,-1.3907,-0.9881,148.3,98.4,0.463
23.78,31821.6,34629.2,-1.0002,-0.9147,148.3,98.4,0.463
23.8,31873.4,34543.8,-0.7088,-1.125,148.3,98.4,0.463
23.82,31881.5,34526.9,-0.6636,-1.1667,148.3,98.4,0.463
23.84,31724.0,34597.5,-1.549,-0.9928,148.3,98.4,0.463
23.86,31906.1,34798.5,-0.5249,-0.4978,148.3,98.4,0.463
23.88,32078.6,35233.7,0.4452,0.5742,148.3,98.4,0.463
23.9,32299.1,35573.7,1.6856,1.4116,148.3,98.4,0.463
23.92,32319.9,35832.5,1.8027,2.049,148.3,98.4,0.463
23.94,32285.6,35713.4,1.6098,1.7556,148.3,98.4,0.463
23.96,32268.7,35493.4,1.5144,1.2138,148.3,98.4,0.463
23.98,32131.3,35257.3,0.7418,0.6322,148.3,98.4,0.463
24.0,32138.8,35172.7,0.7839,0.4239,148.3,98.4,0.463
24.02,32009.9,35076.0,0.0588,0.1858,148.3,98.4,0.463
24.04,32081.6,35064.4,0.462,0.1572,148.3,98.4,0.463
24.06,31996.4,35049.0,-0.0171,0.1193,148.3,98.4,0.463
24.08,31890.4,34822.1,-0.6134,-0.4396,148.3,98.4,0.463
24.1,31917.9,34784.8,-0.4588,-0.5316,148.3,98.4,0.463
24.12,31843.1,34733.4,-0.8794,-0.6581,148.3,98.4,0.463
24.14,31837.4,34656.5,-0.9115,-0.8474,148.3,98.4,0.463
24.16,31847.2,34659.3,-0.8561,-0.8407,148.3,98.4,0.463
24.18,31834.2,34590.2,-0.9294,-1.0109,148.3,98.4,0.463
24.2,31776.9,34479.8,-1.2515,-1.2827,148.3,98.4,0.463
24.22,31803.6,34334.4,-1.1014,-1.6407,148.3,98.4,0.463
24.24,31831.1,34487.6,-0.9469,-1.2635,148.3,98.4,0.463
24.26,31858.3,34774.4,-0.7936,-0.5572,148.3,98.4,0.463
24.28,31997.6,35106.4,-0.0106,0.2608,148.3,98.4,0.463
24.3,32146.5,35521.8,0.8274,1.2838,148.3,98.4,0.463
24.32,32369.9,35750.2,2.0838,1.8465,148.3,98.4,0.463
24.34,32340.6,35748.9,1.9188,1.8432,148.3,98.4,0.463
24.36,32261.5,35565.0,1.4738,1.3901,148.3,98.4,0.463
24.38,32125.0,35444.3,0.7061,1.0928,148.3,98.4,0.463
24.4,32119.2,35275.1,0.6736,0.6761,148.3,98.4,0.463
24.42,32022.8,35087.2,0.1314,0.2132,148.3,98.4,0.463
24.44,32012.7,35054.4,0.0746,0.1324,148.3,98.4,0.463
24.46,31985.0,35056.5,-0.0814,0.1377,148.3,98.4,0.463
24.48,31983.9,34910.9,-0.0874,-0.2208,148.3,98.4,0.463
24.5,31822.6,34863.3,-0.9945,-0.3382,148.3,98.4,0.463
24.52,31849.7,34720.3,-0.842,-0.6903,148.3,98.4,0.463
24.54,31787.0,34680.7,-1.1946,-0.788,148.3,98.4,0.463
24.56,31760.7,34632.7,-1.343,-0.9062,148.3,98.4,0.463
24.58,31748.9,34615.4,-1.4093,-0.9486,148.3,98.4,0.463
24.6,31813.1,34446.5,-1.0482,-1.3648,148.3,98.4,0.463
24.62,31769.8,34484.4,-1.2915,-1.2713,148.3,98.4,0.463
24.64,31761.5,34472.4,-1.3381,-1.3008,148.3,98.4,0.463
24.66,31929.2,34662.7,-0.3951,-0.8322,148.3,98.4,0.463
24.68,31995.6,35097.8,-0.0215,0.2395,148.3,98.4,0.463
24.7,32214.4,35349.9,1.2093,0.8604,148.3,98.4,0.463
24.72,32319.0,35669.8,1.7977,1.6484,148.3,98.4,0.463
24.74,32326.5,35703.2,1.8396,1.7306,148.3,98.4,0.463
24.76,32300.3,35523.2,1.6924,1.2873,148.3,98.4,0.463
24.78,32157.6,35466.4,0.8894,1.1473,148.3,98.4,0.463
24.8,32020.9,35217.1,0.121,0.5333,148.3,98.4,0.463
24.82,32074.7,35198.0,0.4232,0.4863,148.3,98.4,0.463
24.84,32093.1,35107.9,0.5268,0.2644,148.3,98.4,0.463
24.86,32015.2,35059.3,0.0884,0.1445,148.3,98.4,0.463
24.88,32033.2,34950.7,0.19,-0.1229,148.3,98.4,0.463
24.9,31923.1,34747.2,-0.4291,-0.624,148.3,98.4,0.463
24.92,31945.8,34722.7,-0.3014,-0.6844,148.3,98.4,0.463
24.94,31926.0,34708.3,-0.4129,-0.7199,148.3,98.4,0.463
24.96,31866.4,34725.8,-0.7483,-0.6769,148.3,98.4,0.463
24.98,31864.3,34675.1,-0.7601,-0.8016,148.3,98.4,0.463
25.0,31739.8,34594.1,-1.4604,-1.0011,148.3,98.4,0.463
25.02,31790.0,34442.9,-1.1778,-1.3735,148.3,98.4,0.463
25.04,31814.0,34437.5,-1.043,-1.3869,148.3,98.4,0.463
25.06,31845.9,34553.1,-0.8637,-1.1021,148.3,98.4,0.463
25.08,32008.0,34945.2,0.0484,-0.1364,148.3,98.4,0.463
25.1,32124.8,35227.6,0.7054,0.5593,148.3,98.4,0.463
25.12,32236.9,35658.8,1.3359,1.6213,148.3,98.4,0.463
25.14,32412.4,35775.3,2.3226,1.9082,148.3,98.4,0.463
25.16,32322.2,35610.5,1.8155,1.5022,148.3,98.4,0.463
25.18,32187.4,35553.6,1.0574,1.3621,148.3,98.4,0.463
25.2,32080.7,35264.9,0.4571,0.651,148.3,98.4,0.463
25.22,32095.2,35193.3,0.5385,0.4746,148.3,98.4,0.463
25.24,32124.9,35163.1,0.7055,0.4004,148.3,98.4,0.463
25.26,32105.8,34963.4,0.5983,-0.0916,148.3,98.4,0.463
25.28,31983.7,34946.4,-0.0882,-0.1334,148.3,98.4,0.463
25.3,31921.3,34837.0,-0.4397,-0.4028,148.3,98.4,0.463
25.32,31853.2,34804.9,-0.8226,-0.482,148.3,98.4,0.463
25.34,31838.7,34633.5,-0.904,-0.9041,148.3,98.4,0.463
25.36,31888.5,34680.3,-0.6242,-0.7888,148.3,98.4,0.463
25.38,31911.7,34552.2,-0.4937,-1.1043,148.3,98.4,0.463
25.4,31878.4,34522.3,-0.6806,-1.178,148.3,98.4,0.463
25.42,31754.1,34465.0,-1.38,-1.319,148.3,98.4,0.463
25.44,31751.9,34495.7,-1.3923,-1.2436,148.3,98.4,0.463
25.46,31843.6,34533.1,-0.8766,-1.1515,148.3,98.4,0.463
25.48,31947.9,34939.1,-0.2898,-0.1515,148.3,98.4,0.463
25.5,32126.3,35240.8,0.7135,0.5917,148.3,98.4,0.463
25.52,32317.6,35594.7,1.7896,1.4633,148.3,98.4,0.463
25.54,32314.9,35681.7,1.7744,1.6776,148.3,98.4,0.463
25.56,32253.3,35685.2,1.4279,1.6862,148.3,98.4,0.463
25.58,32168.9,35559.5,0.9534,1.3768,148.3,98.4,0.463
25.6,32180.4,35342.8,1.0178,0.8428,148.3,98.4,0.463
25.62,32203.4,35243.3,1.1472,0.5979,148.3,98.4,0.463
25.64,32066.0,35075.0,0.3744,0.1834,148.3,98.4,0.463
25.66,32034.2,34983.7,0.1957,-0.0415,148.3,98.4,0.463
25.68,31965.8,35045.7,-0.189,0.1112,148.3,98.4,0.463
25.7,31930.2,34897.9,-0.3892,-0.253,148.3,98.4,0.463
25.72,31859.8,34785.9,-0.7854,-0.5287,148.3,98.4,0.463
25.74,31825.1,34674.2,-0.9805,-0.8038,148.3,98.4,0.463
25.76,31799.1,34608.1,-1.1268,-0.9666,148.3,98.4,0.463
25.78,31889.9,34622.4,-0.6163,-0.9314,148.3,98.4,0.463
25.8,31858.8,34567.0,-0.7908,-1.0679,148.3,98.4,0.463
25.82,31879.0,34471.9,-0.6775,-1.3021,148.3,98.4,0.463
25.84,31830.6,34524.2,-0.9495,-1.1734,148.3,98.4,0.463
25.86,31711.8,34598.3,-1.6179,-0.9908,148.3,98.4,0.463
25.88,31840.1,34754.6,-0.8962,-0.6058,148.3,98.4,0.463
25.9,32126.2,35127.2,0.7129,0.3118,148.3,98.4,0.463
25.92,32197.9,35487.0,1.1163,1.198,148.3,98.4,0.463
25.94,32313.2,35696.7,1.7646,1.7146,148.3,98.4,0.463
25.96,32297.6,35752.5,1.6771,1.852,148.3,98.4,0.463
25.98,32158.5,35524.5,0.895,1.2905,148.3,98.4,0.463
26.0,32158.9,35356.9,0.8967,0.8777,148.3,98.4,0.463
26.02,32053.2,35145.5,0.3026,0.357,148.3,98.4,0.463
26.04,32016.2,35121.3,0.0943,0.2972,148.3,98.4,0.463
26.06,32010.5,35078.4,0.062,0.1916,148.3,98.4,0.463
26.08,31952.4,34977.6,-0.2647,-0.0565,148.3,98.4,0.463
26.1,31902.5,34854.0,-0.545,-0.361,148.3,98.4,0.463
26.12,31893.1,34840.2,-0.5979,-0.3951,148.3,98.4,0.463
26.14,31981.3,34748.0,-0.1018,-0.6221,148.3,98.4,0.463
26.16,31801.3,34749.4,-1.1145,-0.6187,148.3,98.4,0.463
26.18,31802.9,34626.4,-1.1052,-0.9217,148.3,98.4,0.463
26.2,31830.3,34594.9,-0.9515,-0.9991,148.3,98.4,0.463
26.22,31737.9,34537.1,-1.471,-1.1416,148.3,98.4,0.463
26.24,31785.2,34511.9,-1.2052,-1.2037,148.3,98.4,0.463
26.26,31779.7,34564.8,-1.236,-1.0734,148.3,98.4,0.463
26.28,31803.2,34661.3,-1.1038,-0.8357,148.3,98.4,0.463
26.3,32066.8,35047.7,0.3791,0.1161,148.3,98.4,0.463
26.32,32150.6,35381.2,0.8504,0.9375,148.3,98.4,0.463
26.34,32302.4,35666.3,1.7042,1.6397,148.3,98.4,0.463
26.36,32412.5,35702.6,2.3232,1.7292,148.3,98.4,0.463
26.38,32186.4,35584.1,1.0517,1.4373,148.3,98.4,0.463
26.4,32312.5,35437.0,1.7611,1.075,148.3,98.4,0.463
26.42,32156.5,35205.7,0.8835,0.5053,148.3,98.4,0.463
26.44,32045.9,35141.6,0.2613,0.3473,148.3,98.4,0.463
26.46,32052.9,35040.7,0.3007,0.0987,148.3,98.4,0.463
26.48,32052.7,34943.1,0.2997,-0.1417,148.3,98.4,0.463
26.5,31883.5,34961.5,-0.6523,-0.0961,148.3,98.4,0.463
26.52,31933.0,34829.5,-0.3738,-0.4215,148.3,98.4,0.463
26.54,31927.8,34764.5,-0.4027,-0.5816,148.3,98.4,0.463
26.56,31835.4,34685.5,-0.9229,-0.7761,148.3,98.4,0.463
26.58,31931.7,34653.7,-0.3809,-0.8544,148.3,98.4,0.463
26.6,31897.7,34642.9,-0.5721,-0.881,148.3,98.4,0.463
26.62,31836.9,34514.9,-0.9142,-1.1962,148.3,98.4,0.463
26.64,31810.3,34514.1,-1.0639,-1.1982,148.3,98.4,0.463
26.66,31781.8,34499.7,-1.2239,-1.2338,148.3,98.4,0.463
26.68,31783.0,34685.2,-1.2176,-0.7767,148.3,98.4,0.463
26.7,31956.6,34989.2,-0.2411,-0.028,148.3,98.4,0.463
26.72,32152.9,35307.7,0.8633,0.7563,148.3,98.4,0.463
26.74,32254.3,35575.3,1.4336,1.4157,148.3,98.4,0.463
26.76,32290.8,35609.2,1.6388,1.4991,148.3,98.4,0.463
26.78,32158.4,35735.4,0.894,1.8099,148.3,98.4,0.463
26.8,32221.6,35455.2,1.2494,1.1198,148.3,98.4,0.463
26.82,32109.6,35335.9,0.6198,0.8259,148.3,98.4,0.463
26.84,31982.5,35158.4,-0.0954,0.3886,148.3,98.4,0.463
26.86,32115.2,35030.7,0.6512,0.0743,148.3,98.4,0.463
26.88,32047.5,35156.7,0.2704,0.3846,148.3,98.4,0.463
26.9,31960.4,34960.3,-0.2193,-0.0993,148.3,98.4,0.463
26.92,31847.9,34853.9,-0.8521,-0.3613,148.3,98.4,0.463
26.94,31878.6,34715.9,-0.6794,-0.7013,148.3,98.4,0.463
26.96,31853.4,34683.8,-0.8215,-0.7803,148.3,98.4,0.463
26.98,31792.2,34711.4,-1.1654,-0.7122,148.3,98.4,0.463
27.0,31830.8,34644.6,-0.9487,-0.8768,148.3,98.4,0.463
27.02,31842.1,34559.5,-0.8847,-1.0863,148.3,98.4,0.463
27.04,31768.3,34428.1,-1.3002,-1.4101,148.3,98.4,0.463
27.06,31856.4,34416.5,-0.8042,-1.4385,148.3,98.4,0.463
27.08,31897.3,34523.5,-0.5745,-1.1751,148.3,98.4,0.463
27.1,31955.2,34892.8,-0.2488,-0.2656,148.3,98.4,0.463
27.12,32126.2,35274.6,0.7128,0.6748,148.3,98.4,0.463
27.14,32286.6,35632.3,1.6152,1.5561,148.3,98.4,0.463
27.16,32352.5,35837.7,1.9859,2.0619,148.3,98.4,0.463
27.18,32314.7,35750.3,1.7733,1.8465,148.3,98.4,0.463
27.2,32271.4,35524.6,1.5294,1.2906,148.3,98.4,0.463
27.22,32233.5,35305.3,1.3163,0.7505,148.3,98.4,0.463
27.24,32070.0,35141.8,0.397,0.3478,148.3,98.4,0.463
27.26,32017.3,35179.8,0.1006,0.4413,148.3,98.4,0.463
27.28,32093.6,34962.6,0.5296,-0.0937,148.3,98.4,0.463
27.3,31981.4,35016.4,-0.1016,0.0389,148.3,98.4,0.463
27.32,31910.0,34811.6,-0.5028,-0.4654,148.3,98.4,0.463
27.34,31976.4,34682.1,-0.1296,-0.7844,148.3,98.4,0.463
27.36,31916.9,34711.4,-0.4644,-0.7123,148.3,98.4,0.463
27.38,31936.7,34617.7,-0.353,-0.943,148.3,98.4,0.463
27.4,31891.9,34671.2,-0.6046,-0.8113,148.3,98.4,0.463
27.42,31868.9,34494.3,-0.7341,-1.2471,148.3,98.4,0.463
27.44,31790.7,34521.6,-1.1741,-1.1798,148.3,98.4,0.463
27.46,31777.3,34522.0,-1.2492,-1.1789,148.3,98.4,0.463
27.48,31733.4,34508.0,-1.4964,-1.2132,148.3,98.4,0.463
27.5,31965.5,34881.3,-0.1907,-0.2939,148.3,98.4,0.463
27.52,32033.0,35252.3,0.189,0.62,148.3,98.4,0.463
27.54,32213.9,35536.6,1.2061,1.3202,148.3,98.4,0.463
27.56,32255.8,35691.1,1.4422,1.7007,148.3,98.4,0.463
27.58,32300.4,35707.1,1.6928,1.7402,148.3,98.4,0.463
27.6,32179.7,35611.3,1.0139,1.5041,148.3,98.4,0.463
27.62,32162.3,35326.4,0.9163,0.8024,148.3,98.4,0.463
27.64,32122.2,35242.4,0.6906,0.5956,148.3,98.4,0.463
27.66,31979.2,35163.0,-0.1137,0.4,148.3,98.4,0.463
27.68,32017.5,35047.2,0.1015,0.1149,148.3,98.4,0.463
27.7,31996.8,35062.9,-0.0151,0.1534,148.3,98.4,0.463
27.72,31952.2,34904.2,-0.2659,-0.2373,148.3,98.4,0.463
27.74,31995.6,34746.0,-0.0215,-0.627,148.3,98.4,0.463
27.76,31927.1,34660.8,-0.4068,-0.8369,148.3,98.4,0.463
27.78,31837.1,34610.7,-0.9131,-0.9604,148.3,98.4,0.463
27.8,31878.0,34614.5,-0.6828,-0.9509,148.3,98.4,0.463
27.82,31873.7,34577.2,-0.7071,-1.0429,148.3,98.4,0.463
27.84,31785.9,34482.0,-1.2008,-1.2773,148.3,98.4,0.463
27.86,31760.1,34397.9,-1.346,-1.4843,148.3,98.4,0.463
27.88,31855.1,34516.4,-0.8118,-1.1925,148.3,98.4,0.463
27.9,31944.7,34780.6,-0.3076,-0.5419,148.3,98.4,0.463
27.92,32047.2,35128.7,0.2686,0.3156,148.3,98.4,0.463
27.94,32144.9,35510.7,0.818,1.2564,148.3,98.4,0.463
27.96,32273.7,35694.2,1.5425,1.7084,148.3,98.4,0.463
27.98,32263.8,35783.4,1.487,1.9281,148.3,98.4,0.463
28.0,32254.9,35736.8,1.4367,1.8133,148.3,98.4,0.463
28.02,32188.2,35410.3,1.0615,1.009,148.3,98.4,0.463
28.04,32091.4,35195.7,0.5175,0.4807,148.3,98.4,0.463
28.06,32107.4,35201.9,0.6073,0.4959,148.3,98.4,0.463
28.08,32042.8,35183.9,0.2439,0.4514,148.3,98.4,0.463
28.1,31964.0,35016.1,-0.1992,0.0381,148.3,98.4,0.463
28.12,32020.3,34917.1,0.1171,-0.2055,148.3,98.4,0.463
28.14,31956.4,34850.5,-0.242,-0.3696,148.3,98.4,0.463
28.16,31924.4,34780.3,-0.4221,-0.5425,148.3,98.4,0.463
28.18,31768.8,34780.3,-1.2975,-0.5427,148.3,98.4,0.463
28.2,31816.9,34657.4,-1.0268,-0.8453,148.3,98.4,0.463
28.22,31885.3,34632.7,-0.6418,-0.9062,148.3,98.4,0.463
28.24,31843.6,34581.0,-0.8764,-1.0334,148.3,98.4,0.463
28.26,31681.3,34441.4,-1.7896,-1.3774,148.3,98.4,0.463
28.28,31842.0,34452.6,-0.8853,-1.3497,148.3,98.4,0.463
28.3,31828.5,34603.1,-0.9613,-0.9791,148.3,98.4,0.463
28.32,31957.7,35022.5,-0.2349,0.0539,148.3,98.4,0.463
28.34,32145.0,35392.5,0.8185,0.9652,148.3,98.4,0.463
28.36,32298.4,35591.7,1.6815,1.456,148.3,98.4,0.463
28.38,32313.9,35756.5,1.7686,1.862,148.3,98.4,0.463
28.4,32373.4,35698.2,2.1032,1.7184,148.3,98.4,0.463
28.42,32298.7,35441.2,1.6831,1.0853,148.3,98.4,0.463
28.44,32102.5,35301.2,0.5795,0.7404,148.3,98.4,0.463
28.46,32091.4,35245.6,0.517,0.6034,148.3,98.4,0.463
28.48,32075.1,35108.4,0.4257,0.2655,148.3,98.4,0.463
28.5,32027.6,34921.3,0.1586,-0.1954,148.3,98.4,0.463
28.52,31956.4,34954.1,-0.2423,-0.1144,148.3,98.4,0.463
28.54,31952.0,34836.6,-0.2669,-0.404,148.3,98.4,0.463
28.56,31991.6,34739.4,-0.0443,-0.6434,148.3,98.4,0.463
28.58,31867.3,34708.0,-0.7431,-0.7206,148.3,98.4,0.463
28.6,31971.4,34798.9,-0.1576,-0.4968,148.3,98.4,0.463
28.62,31864.4,34717.5,-0.7596,-0.6973,148.3,98.4,0.463
28.64,31835.3,34604.9,-0.9235,-0.9745,148.3,98.4,0.463
28.66,31816.7,34465.8,-1.0277,-1.3173,148.3,98.4,0.463
28.68,31889.9,34376.3,-0.6161,-1.5377,148.3,98.4,0.463
28.7,31836.3,34599.4,-0.9175,-0.9882,148.3,98.4,0.463
28.72,31995.6,34967.3,-0.0216,-0.082,148.3,98.4,0.463
28.74,32136.5,35272.1,0.7708,0.6688,148.3,98.4,0.463
28.76,32218.9,35682.0,1.2342,1.6783,148.3,98.4,0.463
28.78,32311.6,35653.4,1.7558,1.608,148.3,98.4,0.463
28.8,32330.1,35677.4,1.8599,1.667,148.3,98.4,0.463
28.82,32306.0,35540.9,1.7244,1.3309,148.3,98.4,0.463
28.84,32067.9,35327.0,0.3852,0.804,148.3,98.4,0.463
28.86,32032.4,35168.6,0.1856,0.4138,148.3,98.4,0.463
28.88,31982.8,35072.0,-0.0937,0.176,148.3,98.4,0.463
28.9,32016.8,35060.1,0.0976,0.1465,148.3,98.4,0.463
28.92,32000.7,35012.7,0.007,0.0299,148.3,98.4,0.463
28.94,32032.4,34830.6,0.1856,-0.4187,148.3,98.4,0.463
28.96,31929.9,34740.5,-0.3911,-0.6405,148.3,98.4,0.463
28.98,31792.1,34792.3,-1.166,-0.5129,148.3,98.4,0.463
29.0,31881.2,34661.3,-0.665,-0.8357,148.3,98.4,0.463
29.02,31771.1,34655.8,-1.2844,-0.8492,148.3,98.4,0.463
29.04,31879.2,34654.8,-0.6765,-0.8516,148.3,98.4,0.463
29.06,31831.2,34458.1,-0.9462,-1.3362,148.3,98.4,0.463
29.08,31747.3,34398.2,-1.418,-1.4836,148.3,98.4,0.463
29.1,31871.3,34617.6,-0.7205,-0.9434,148.3,98.4,0.463
29.12,31951.8,34842.9,-0.2677,-0.3885,148.3,98.4,0.463
29.14,32070.5,35083.6,0.3998,0.2046,148.3,98.4,0.463
29.16,32190.0,35584.2,1.0717,1.4374,148.3,98.4,0.463
29.18,32391.8,35684.0,2.2072,1.6833,148.3,98.4,0.463
29.2,32351.3,35779.9,1.9791,1.9194,148.3,98.4,0.463
29.22,32287.9,35592.6,1.6226,1.4583,148.3,98.4,0.463
29.24,32251.4,35367.8,1.417,0.9045,148.3,98.4,0.463
29.26,32043.9,35164.5,0.25,0.4039,148.3,98.4,0.463
29.28,32045.2,35114.1,0.2571,0.2795,148.3,98.4,0.463
29.3,32082.4,35082.7,0.4668,0.2023,148.3,98.4,0.463
29.32,32008.3,34998.0,0.05,-0.0063,148.3,98.4,0.463
29.34,31940.4,34947.1,-0.3319,-0.1318,148.3,98.4,0.463
29.36,31889.7,34758.5,-0.6173,-0.5963,148.3,98.4,0.463
29.38,31878.7,34744.2,-0.6792,-0.6314,148.3,98.4,0.463
29.4,31887.7,34584.1,-0.6286,-1.0259,148.3,98.4,0.463
29.42,31860.6,34700.0,-0.781,-0.7403,148.3,98.4,0.463
29.44,31833.0,34616.6,-0.9363,-0.9457,148.3,98.4,0.463
29.46,31755.8,34500.2,-1.3702,-1.2324,148.3,98.4,0.463
29.48,31759.9,34417.3,-1.3473,-1.4366,148.3,98.4,0.463
29.5,31940.6,34517.4,-0.3311,-1.1902,148.3,98.4,0.463
29.52,31812.4,34778.2,-1.0522,-0.5478,148.3,98.4,0.463
29.54,31984.2,35172.5,-0.0857,0.4234,148.3,98.4,0.463
29.56,32126.2,35444.9,0.7132,1.0944,148.3,98.4,0.463
29.58,32192.4,35685.6,1.0852,1.6873,148.3,98.4,0.463
29.6,32410.6,35681.7,2.3124,1.6775,148.3,98.4,0.463
29.62,32231.8,35599.9,1.307,1.4762,148.3,98.4,0.463
29.64,32186.2,35492.6,1.0505,1.2119,148.3,98.4,0.463
29.66,32028.8,35308.3,0.1652,0.758,148.3,98.4,0.463
29.68,32018.4,35158.0,0.1068,0.3876,148.3,98.4,0.463
29.7,32039.9,35099.0,0.2275,0.2424,148.3,98.4,0.463
29.72,31925.2,34896.0,-0.4174,-0.2576,148.3,98.4,0.463
29.74,32016.0,34937.1,0.0931,-0.1565,148.3,98.4,0.463
29.76,31905.4,34760.7,-0.5288,-0.5909,148.3,98.4,0.463
29.78,31923.3,34611.8,-0.4284,-0.9575,148.3,98.4,0.463
29.8,31876.8,34698.0,-0.69,-0.7452,148.3,98.4,0.463
29.82,31821.9,34635.0,-0.9986,-0.9005,148.3,98.4,0.463
29.84,31836.8,34589.2,-0.915,-1.0132,148.3,98.4,0.463
29.86,31772.8,34536.8,-1.2748,-1.1423,148.3,98.4,0.463
29.88,31685.9,34380.0,-1.7632,-1.5286,148.3,98.4,0.463
29.9,31760.3,34516.6,-1.3452,-1.1921,148.3,98.4,0.463
29.92,31874.5,34699.8,-0.7026,-0.741,148.3,98.4,0.463
29.94,32008.3,35023.2,0.0499,0.0557,148.3,98.4,0.463
29.96,32037.6,35346.0,0.2146,0.8507,148.3,98.4,0.463
29.98,32314.5,35622.7,1.7719,1.5324,148.3,98.4,0.463
30.0,32291.7,35757.4,1.6441,1.8641,148.3,98.4,0.463
30.02,32237.4,35650.5,1.3387,1.6009,148.3,98.4,0.463
30.04,32253.4,35439.6,1.4282,1.0814,148.3,98.4,0.463
30.06,32140.8,35259.1,0.795,0.6367,148.3,98.4,0.463
30.08,32098.2,35165.5,0.5557,0.4061,148.3,98.4,0.463
30.1,32031.8,35076.0,0.1823,0.1857,148.3,98.4,0.463
30.12,32069.4,34969.4,0.3934,-0.0767,148.3,98.4,0.463
30.14,32049.9,34886.3,0.2839,-0.2816,148.3,98.4,0.463
30.16,31958.7,34821.9,-0.2289,-0.4402,148.3,98.4,0.463
30.18,31854.1,34748.2,-0.8175,-0.6217,148.3,98.4,0.463
30.2,31826.7,34718.1,-0.9715,-0.6959,148.3,98.4,0.463
30.22,31870.4,34628.2,-0.7256,-0.9171,148.3,98.4,0.463
30.24,31816.8,34565.5,-1.0275,-1.0717,148.3,98.4,0.463
30.26,31824.1,34533.8,-0.9861,-1.1498,148.3,98.4,0.463
30.28,31759.1,34430.0,-1.3518,-1.4053,148.3,98.4,0.463
30.3,31769.3,34384.1,-1.2942,-1.5183,148.3,98.4,0.463
30.32,31850.4,34605.6,-0.8384,-0.9728,148.3,98.4,0.463
30.34,31979.9,34952.3,-0.1096,-0.119,148.3,98.4,0.463
30.36,32156.6,35328.3,0.8843,0.8072,148.3,98.4,0.463
30.38,32277.7,35558.6,1.5651,1.3745,148.3,98.4,0.463
30.4,32345.1,35761.9,1.9444,1.8751,148.3,98.4,0.463
30.42,32270.1,35650.5,1.5222,1.6007,148.3,98.4,0.463
30.44,32200.9,35471.3,1.1329,1.1594,148.3,98.4,0.463
30.46,32073.3,35281.2,0.4157,0.6911,148.3,98.4,0.463
30.48,32046.8,35203.7,0.2664,0.5003,148.3,98.4,0.463
30.5,32020.3,35078.5,0.1173,0.1918,148.3,98.4,0.463
30.52,32039.5,35017.3,0.2251,0.0411,148.3,98.4,0.463
30.54,31950.0,35013.3,-0.2783,0.0312,148.3,98.4,0.463
30.56,31881.2,34864.1,-0.6653,-0.3361,148.3,98.4,0.463
30.58,31958.0,34712.2,-0.2328,-0.7103,148.3,98.4,0.463
30.6,31843.1,34729.7,-0.8794,-0.6672,148.3,98.4,0.463
30.62,31856.2,34574.4,-0.8054,-1.0497,148.3,98.4,0.463
30.64,31839.6,34624.6,-0.8991,-0.926,148.3,98.4,0.463
30.66,31831.8,34577.6,-0.943,-1.0419,148.3,98.4,0.463
30.68,31737.5,34379.6,-1.4731,-1.5295,148.3,98.4,0.463
30.7,31732.7,34442.5,-1.5004,-1.3746,148.3,98.4,0.463
30.72,31878.6,34611.5,-0.6798,-0.9582,148.3,98.4,0.463
30.74,31890.8,34883.1,-0.6112,-0.2893,148.3,98.4,0.463
30.76,32089.2,35159.3,0.5049,0.391,148.3,98.4,0.463
30.78,32237.4,35547.0,1.3384,1.3458,148.3,98.4,0.463
30.8,32268.8,35742.4,1.5152,1.827,148.3,98.4,0.463
30.82,32312.0,35734.9,1.758,1.8086,148.3,98.4,0.463
30.84,32157.0,35575.4,0.8862,1.4157,148.3,98.4,0.463
30.86,32139.7,35317.8,0.7887,0.7814,148.3,98.4,0.463
30.88,32157.1,35192.4,0.8866,0.4725,148.3,98.4,0.463
30.9,32116.3,35046.0,0.6576,0.112,148.3,98.4,0.463
30.92,32152.4,35111.5,0.8602,0.2732,148.3,98.4,0.463
30.94,32030.9,34993.3,0.1768,-0.018,148.3,98.4,0.463
30.96,32008.9,34852.3,0.0535,-0.3652,148.3,98.4,0.463
30.98,31856.8,34697.1,-0.8025,-0.7476,148.3,98.4,0.463
31.0,31851.6,34740.5,-0.8313,-0.6405,148.3,98.4,0.463
31.02,31885.1,34760.8,-0.6432,-0.5907,148.3,98.4,0.463
31.04,31937.9,34625.6,-0.346,-0.9236,148.3,98.4,0.463
31.06,31787.3,34605.5,-1.1934,-0.973,148.3,98.4,0.463
31.08,31800.9,34501.2,-1.1164,-1.23,148.3,98.4,0.463
31.1,31723.5,34404.9,-1.5517,-1.4671,148.3,98.4,0.463
31.12,31785.3,34645.9,-1.2046,-0.8736,148.3,98.4,0.463
31.14,31920.6,34715.5,-0.4436,-0.7022,148.3,98.4,0.463
31.16,31984.6,35132.4,-0.0834,0.3247,148.3,98.4,0.463
31.18,32207.6,35451.6,1.1711,1.111,148.3,98.4,0.463
31.2,32238.5,35702.9,1.3448,1.7297,148.3,98.4,0.463
31.22,32273.3,35736.2,1.5405,1.8118,148.3,98.4,0.463
31.24,32180.0,35701.5,1.0158,1.7264,148.3,98.4,0.463
31.26,32240.2,35449.6,1.3545,1.1059,148.3,98.4,0.463
31.28,32074.3,35222.7,0.421,0.5472,148.3,98.4,0.463
31.3,32086.6,35038.1,0.4903,0.0923,148.3,98.4,0.463
31.32,31881.6,35124.7,-0.6629,0.3058,148.3,98.4,0.463
31.34,31938.8,34958.9,-0.3412,-0.1027,148.3,98.4,0.463
31.36,31972.9,34958.3,-0.1493,-0.1042,148.3,98.4,0.463
31.38,31926.5,34799.3,-0.4101,-0.4957,148.3,98.4,0.463
31.4,31828.8,34823.3,-0.9596,-0.4366,148.3,98.4,0.463
31.42,31830.7,34572.8,-0.949,-1.0536,148.3,98.4,0.463
31.44,31890.3,34633.0,-0.6138,-0.9053,148.3,98.4,0.463
31.46,31819.3,34609.2,-1.0135,-0.9641,148.3,98.4,0.463
31.48,31797.7,34468.8,-1.1347,-1.3099,148.3,98.4,0.463
31.5,31722.0,34503.7,-1.5606,-1.2238,148.3,98.4,0.463
31.52,31740.5,34431.5,-1.4564,-1.4016,148.3,98.4,0.463
31.54,31762.0,34696.8,-1.3354,-0.7482,148.3,98.4,0.463
31.56,31930.1,34998.1,-0.3899,-0.0061,148.3,98.4,0.463
31.58,32155.7,35345.9,0.8791,0.8506,148.3,98.4,0.463
31.6,32287.7,35646.4,1.6214,1.5906,148.3,98.4,0.463
31.62,32306.6,35731.8,1.7278,1.8009,148.3,98.4,0.463
31.64,32286.7,35560.6,1.616,1.3794,148.3,98.4,0.463
31.66,32231.5,35430.0,1.3055,1.0576,148.3,98.4,0.463
31.68,32058.1,35240.8,0.3302,0.5916,148.3,98.4,0.463
31.7,32153.5,35188.0,0.8665,0.4616,148.3,98.4,0.463
31.72,32023.2,35046.7,0.1338,0.1136,148.3,98.4,0.463
31.74,32005.2,35063.6,0.0326,0.1552,148.3,98.4,0.463
31.76,31925.2,34907.7,-0.4175,-0.2288,148.3,98.4,0.463
31.78,31863.8,34848.8,-0.7629,-0.3738,148.3,98.4,0.463
31.8,31842.1,34774.0,-0.8852,-0.5582,148.3,98.4,0.463
31.82,31766.5,34717.4,-1.3104,-0.6975,148.3,98.4,0.463
31.84,31824.8,34701.3,-0.9825,-0.7371,148.3,98.4,0.463
31.86,31878.3,34544.2,-0.6812,-1.1242,148.3,98.4,0.463
31.88,31818.9,34559.9,-1.0155,-1.0854,148.3,98.4,0.463
31.9,31728.0,34479.1,-1.5267,-1.2844,148.3,98.4,0.463
31.92,31802.3,34490.7,-1.1087,-1.2559,148.3,98.4,0.463
31.94,31831.4,34584.3,-0.9449,-1.0253,148.3,98.4,0.463
31.96,32013.3,34974.8,0.0777,-0.0636,148.3,98.4,0.463
31.98,32087.2,35260.9,0.4937,0.6413,148.3,98.4,0.463
32.0,32273.5,35689.2,1.5415,1.6961,148.3,98.4,0.463
32.02,32364.9,35711.8,2.0555,1.7519,148.3,98.4,0.463
32.04,32261.3,35738.6,1.4727,1.8179,148.3,98.4,0.463
32.06,32230.2,35546.5,1.298,1.3445,148.3,98.4,0.463
32.08,32074.4,35191.2,0.4219,0.4694,148.3,98.4,0.463
32.1,32025.9,35165.0,0.1489,0.405,148.3,98.4,0.463
32.12,32075.9,35124.3,0.4301,0.3046,148.3,98.4,0.463
32.14,32024.3,35047.0,0.14,0.1144,148.3,98.4,0.463
32.16,31997.1,35001.5,-0.0134,0.0024,148.3,98.4,0.463
32.18,31926.9,34883.3,-0.4077,-0.2889,148.3,98.4,0.463
32.2,31982.3,34678.6,-0.0963,-0.793,148.3,98.4,0.463
32.22,31801.4,34686.5,-1.1141,-0.7737,148.3,98.4,0.463
32.24,31838.7,34693.5,-0.9041,-0.7564,148.3,98.4,0.463
32.26,31929.9,34617.7,-0.3909,-0.943,148.3,98.4,0.463
32.28,31895.9,34582.6,-0.5823,-1.0295,148.3,98.4,0.463
32.3,31738.1,34571.4,-1.4701,-1.057,148.3,98.4,0.463
32.32,31698.1,34521.2,-1.6951,-1.1806,148.3,98.4,0.463
32.34,31829.4,34585.4,-0.9566,-1.0226,148.3,98.4,0.463
32.36,31980.1,34791.1,-0.1086,-0.516,148.3,98.4,0.463
32.38,32026.4,35291.0,0.1518,0.7152,148.3,98.4,0.463
32.4,32289.6,35638.0,1.6321,1.5699,148.3,98.4,0.463
32.42,32424.5,35749.5,2.3911,1.8445,148.3,98.4,0.463
32.44,32334.3,35729.6,1.8836,1.7957,148.3,98.4,0.463
32.46,32210.2,35483.6,1.1853,1.1896,148.3,98.4,0.463
32.48,32168.8,35286.9,0.9528,0.7052,148.3,98.4,0.463
32.5,32105.3,35205.7,0.5954,0.5052,148.3,98.4,0.463
32.52,31990.5,35116.1,-0.0505,0.2847,148.3,98.4,0.463
32.54,32056.1,35083.2,0.3188,0.2036,148.3,98.4,0.463
32.56,32071.2,34920.9,0.4037,-0.1963,148.3,98.4,0.463
32.58,31975.1,34840.8,-0.137,-0.3935,148.3,98.4,0.463
32.6,31937.3,34675.5,-0.3496,-0.8007,148.3,98.4,0.463
32.62,31856.7,34682.0,-0.8031,-0.7846,148.3,98.4,0.463
32.64,31845.7,34617.3,-0.8645,-0.944,148.3,98.4,0.463
32.66,31893.2,34620.4,-0.5975,-0.9365,148.3,98.4,0.463
32.68,31849.5,34559.1,-0.8433,-1.0873,148.3,98.4,0.463
32.7,31903.9,34527.4,-0.5373,-1.1654,148.3,98.4,0.463
32.72,31787.8,34503.1,-1.1904,-1.2252,148.3,98.4,0.463
32.74,31772.8,34509.4,-1.2746,-1.2099,148.3,98.4,0.463
32.76,31900.5,34763.6,-0.5565,-0.5837,148.3,98.4,0.463
32.78,32125.2,35101.4,0.7074,0.2484,148.3,98.4,0.463
32.8,32185.5,35652.9,1.0467,1.6066,148.3,98.4,0.463
32.82,32330.4,35733.3,1.8614,1.8048,148.3,98.4,0.463
32.84,32332.9,35757.3,1.8755,1.8639,148.3,98.4,0.463
32.86,32267.7,35615.0,1.5088,1.5133,148.3,98.4,0.463
32.88,32174.6,35381.3,0.9852,0.9378,148.3,98.4,0.463
32.9,32086.7,35164.7,0.491,0.4043,148.3,98.4,0.463
32.92,32066.6,35131.7,0.378,0.3229,148.3,98.4,0.463
32.94,31992.3,35053.9,-0.0403,0.1314,148.3,98.4,0.463
32.96,32029.1,34991.1,0.1668,-0.0234,148.3,98.4,0.463
32.98,31907.0,34899.1,-0.5197,-0.2499,148.3,98.4,0.463
33.0,31947.2,34838.4,-0.2939,-0.3995,148.3,98.4,0.463
33.02,31913.3,34703.8,-0.4842,-0.731,148.3,98.4,0.463
33.04,31841.0,34829.3,-0.891,-0.422,148.3,98.4,0.463
33.06,31870.6,34563.1,-0.7246,-1.0776,148.3,98.4,0.463
33.08,31834.4,34635.6,-0.9283,-0.899,148.3,98.4,0.463
33.1,31810.1,34522.9,-1.0651,-1.1766,148.3,98.4,0.463
33.12,31796.6,34601.1,-1.1408,-0.984,148.3,98.4,0.463
33.14,31789.9,34478.5,-1.1788,-1.2859,148.3,98.4,0.463
33.16,31863.5,34710.5,-0.7645,-0.7145,148.3,98.4,0.463
33.18,32016.1,35041.6,0.0937,0.1011,148.3,98.4,0.463
33.2,32115.2,35393.1,0.6511,0.9668,148.3,98.4,0.463
33.22,32310.7,35614.9,1.7506,1.5131,148.3,98.4,0.463
33.24,32357.1,35770.3,2.0116,1.8959,148.3,98.4,0.463
33.26,32270.3,35597.1,1.5237,1.4693,148.3,98.4,0.463
33.28,32140.8,35357.6,0.7954,0.8794,148.3,98.4,0.463
33.3,32114.9,35245.4,0.6493,0.6031,148.3,98.4,0.463
33.32,32146.8,35240.7,0.8291,0.5915,148.3,98.4,0.463
33.34,32057.4,35063.6,0.326,0.1553,148.3,98.4,0.463
33.36,32078.7,34999.7,0.4461,-0.0021,148.3,98.4,0.463
33.38,31912.6,34926.9,-0.4887,-0.1814,148.3,98.4,0.463
33.4,31908.2,34832.7,-0.5131,-0.4136,148.3,98.4,0.463
33.42,31902.3,34740.4,-0.5463,-0.6408,148.3,98.4,0.463
33.44,31868.8,34592.1,-0.7349,-1.0062,148.3,98.4,0.463
33.46,31874.3,34612.3,-0.7036,-0.9564,148.3,98.4,0.463
33.48,31877.0,34674.9,-0.6889,-0.8023,148.3,98.4,0.463
33.5,31801.0,34657.8,-1.1161,-0.8444,148.3,98.4,0.463
33.52,31787.0,34588.9,-1.195,-1.014,148.3,98.4,0.463
33.54,31734.0,34419.0,-1.4931,-1.4324,148.3,98.4,0.463
33.56,31720.9,34681.8,-1.5667,-0.7852,148.3,98.4,0.463
33.58,31946.9,34957.3,-0.2956,-0.1066,148.3,98.4,0.463
33.6,32112.6,35257.4,0.6365,0.6326,148.3,98.4,0.463
33.62,32281.2,35655.0,1.5847,1.6118,148.3,98.4,0.463
33.64,32297.8,35798.9,1.6782,1.9664,148.3,98.4,0.463
33.66,32246.1,35655.3,1.3874,1.6127,148.3,98.4,0.463
33.68,32209.1,35495.6,1.1793,1.2192,148.3,98.4,0.463
33.7,32209.8,35208.6,1.1834,0.5123,148.3,98.4,0.463
33.72,32066.3,35134.3,0.3763,0.3295,148.3,98.4,0.463
33.74,32066.2,35037.3,0.3758,0.0905,148.3,98.4,0.463
33.76,32049.0,35083.0,0.2786,0.2031,148.3,98.4,0.463
33.78,32004.4,34945.1,0.0278,-0.1367,148.3,98.4,0.463
33.8,31813.6,34912.1,-1.0453,-0.2179,148.3,98.4,0.463
33.82,31810.4,34673.1,-1.0635,-0.8067,148.3,98.4,0.463
33.84,31886.0,34701.0,-0.6378,-0.7378,148.3,98.4,0.463
33.86,31857.7,34604.3,-0.7971,-0.9761,148.3,98.4,0.463
33.88,31810.9,34701.2,-1.0606,-0.7374,148.3,98.4,0.463
33.9,31864.5,34655.2,-0.7592,-0.8507,148.3,98.4,0.463
33.92,31838.0,34497.2,-0.9081,-1.2398,148.3,98.4,0.463
33.94,31847.6,34501.2,-0.8537,-1.2299,148.3,98.4,0.463
33.96,31805.5,34639.5,-1.0908,-0.8894,148.3,98.4,0.463
33.98,31982.9,34859.0,-0.0929,-0.3487,148.3,98.4,0.463
34.0,32139.3,35317.2,0.7865,0.7799,148.3,98.4,0.463
34.02,32262.9,35648.3,1.4819,1.5955,148.3,98.4,0.463
34.04,32307.8,35698.8,1.7344,1.7198,148.3,98.4,0.463
34.06,32321.9,35789.9,1.8136,1.9441,148.3,98.4,0.463
34.08,32205.5,35398.2,1.159,0.9794,148.3,98.4,0.463
34.1,32073.5,35278.4,0.4167,0.6843,148.3,98.4,0.463
34.12,32034.4,35192.8,0.1964,0.4735,148.3,98.4,0.463
34.14,32030.8,35125.4,0.1766,0.3075,148.3,98.4,0.463
34.16,32050.2,35059.3,0.2855,0.1446,148.3,98.4,0.463
34.18,32045.0,34912.6,0.2561,-0.2166,148.3,98.4,0.463
34.2,31928.5,34782.9,-0.399,-0.5363,148.3,98.4,0.463
34.22,31902.4,34766.2,-0.5458,-0.5772,148.3,98.4,0.463
34.24,31842.9,34718.4,-0.8803,-0.695,148.3,98.4,0.463
34.26,31721.8,34720.0,-1.5618,-0.6912,148.3,98.4,0.463
34.28,31802.2,34621.9,-1.1095,-0.9327,148.3,98.4,0.463
34.3,31860.3,34652.2,-0.7825,-0.8581,148.3,98.4,0.463
34.32,31747.6,34502.1,-1.4163,-1.2277,148.3,98.4,0.463
34.34,31672.8,34419.3,-1.8374,-1.4317,148.3,98.4,0.463
34.36,31863.2,34488.8,-0.766,-1.2605,148.3,98.4,0.463
34.38,31834.0,34820.5,-0.9308,-0.4435,148.3,98.4,0.463
34.4,32210.6,35170.8,1.1877,0.4191,148.3,98.4,0.463
34.42,32134.8,35605.8,0.7617,1.4908,148.3,98.4,0.463
34.44,32332.2,35690.5,1.8717,1.6992,148.3,98.4,0.463
34.46,32312.6,35731.1,1.7617,1.7993,148.3,98.4,0.463
34.48,32331.1,35669.8,1.8656,1.6482,148.3,98.4,0.463
34.5,32136.3,35382.7,0.7699,0.9412,148.3,98.4,0.463
34.52,32053.8,35255.4,0.3058,0.6275,148.3,98.4,0.463
34.54,32076.5,35113.7,0.4334,0.2785,148.3,98.4,0.463
34.56,32091.8,35064.0,0.5197,0.1563,148.3,98.4,0.463
34.58,31980.4,34957.1,-0.1071,-0.107,148.3,98.4,0.463
34.6,32045.8,34981.9,0.2605,-0.0459,148.3,98.4,0.463
34.62,31954.9,34810.6,-0.2506,-0.4678,148.3,98.4,0.463
34.64,31882.3,34707.9,-0.6586,-0.7208,148.3,98.4,0.463
34.66,31918.0,34653.5,-0.4582,-0.855,148.3,98.4,0.463
34.68,31781.0,34679.9,-1.2287,-0.7897,148.3,98.4,0.463
34.7,31827.1,34642.1,-0.9695,-0.8831,148.3,98.4,0.463
34.72,31722.2,34556.0,-1.5594,-1.0951,148.3,98.4,0.463
34.74,31692.1,34495.3,-1.7289,-1.2446,148.3,98.4,0.463
34.76,31778.1,34522.5,-1.245,-1.1776,148.3,98.4,0.463
34.78,31828.4,34731.3,-0.9619,-0.6633,148.3,98.4,0.463
34.8,31959.0,35096.7,-0.2275,0.2367,148.3,98.4,0.463
34.82,32156.0,35455.5,0.8808,1.1206,148.3,98.4,0.463
34.84,32342.9,35702.4,1.9319,1.7285,148.3,98.4,0.463
34.86,32305.2,35829.0,1.7201,2.0405,148.3,98.4,0.463
34.88,32277.3,35589.8,1.5628,1.4512,148.3,98.4,0.463
34.9,32177.4,35481.1,1.0011,1.1834,148.3,98.4,0.463
34.92,32154.6,35267.2,0.8728,0.6566,148.3,98.4,0.463
34.94,32080.8,35215.2,0.4574,0.5285,148.3,98.4,0.463
34.96,31956.8,35034.1,-0.2395,0.0827,148.3,98.4,0.463
34.98,32059.8,35022.2,0.3398,0.0531,148.3,98.4,0.463
35.0,31943.1,34855.2,-0.3168,-0.358,148.3,98.4,0.463
35.02,31843.6,34752.5,-0.8765,-0.6111,148.3,98.4,0.463
35.04,31846.6,34640.4,-0.8599,-0.8871,148.3,98.4,0.463
35.06,31756.3,34724.6,-1.3675,-0.6797,148.3,98.4,0.463
35.08,31837.4,34621.4,-0.9113,-0.934,148.3,98.4,0.463
35.1,31884.7,34584.7,-0.6451,-1.0243,148.3,98.4,0.463
35.12,31847.4,34533.3,-0.8554,-1.1509,148.3,98.4,0.463
35.14,31740.0,34449.3,-1.459,-1.3578,148.3,98.4,0.463
35.16,31766.8,34527.0,-1.3085,-1.1664,148.3,98.4,0.463
35.18,31859.7,34692.4,-0.7861,-0.7591,148.3,98.4,0.463
35.2,31979.8,35031.7,-0.1104,0.0765,148.3,98.4,0.463
35.22,32069.8,35417.3,0.3955,1.0264,148.3,98.4,0.463
35.24,32316.3,35645.6,1.7821,1.5887,148.3,98.4,0.463
35.26,32295.9,35795.2,1.6677,1.9573,148.3,98.4,0.463
35.28,32268.4,35686.1,1.5129,1.6884,148.3,98.4,0.463
35.3,32176.9,35480.2,0.9981,1.1813,148.3,98.4,0.463
35.32,32148.5,35236.0,0.8387,0.5799,148.3,98.4,0.463
35.34,32065.5,35210.3,0.3717,0.5165,148.3,98.4,0.463
35.36,31961.1,35077.9,-0.2159,0.1904,148.3,98.4,0.463
35.38,32091.3,35000.5,0.5166,-0.0002,148.3,98.4,0.463
35.4,31876.5,34978.4,-0.6915,-0.0547,148.3,98.4,0.463
35.42,31939.1,34822.3,-0.3394,-0.439,148.3,98.4,0.463
35.44,31903.4,34718.3,-0.54,-0.6952,148.3,98.4,0.463
35.46,31835.3,34707.6,-0.9234,-0.7216,148.3,98.4,0.463
35.48,31839.8,34726.6,-0.8977,-0.6749,148.3,98.4,0.463
35.5,31911.3,34618.5,-0.4958,-0.9412,148.3,98.4,0.463
35.52,31824.8,34637.0,-0.9825,-0.8956,148.3,98.4,0.463
35.54,31805.5,34461.6,-1.091,-1.3275,148.3,98.4,0.463
35.56,31809.8,34422.5,-1.0665,-1.4238,148.3,98.4,0.463
35.58,31849.2,34537.1,-0.8453,-1.1416,148.3,98.4,0.463
35.6,31977.9,34759.4,-0.121,-0.5939,148.3,98.4,0.463
35.62,32145.3,35280.8,0.8206,0.6903,148.3,98.4,0.463
35.64,32271.0,35655.8,1.5276,1.6139,148.3,98.4,0.463
35.66,32314.1,35743.9,1.7696,1.8309,148.3,98.4,0.463
35.68,32399.9,35719.8,2.2522,1.7716,148.3,98.4,0.463
35.7,32265.9,35482.2,1.4988,1.1863,148.3,98.4,0.463
35.72,32165.9,35297.1,0.9362,0.7305,148.3,98.4,0.463
35.74,32087.8,35194.0,0.4972,0.4764,148.3,98.4,0.463
35.76,32015.8,35201.9,0.092,0.4957,148.3,98.4,0.463
35.78,31943.1,35074.9,-0.3171,0.1831,148.3,98.4,0.463
35.8,31978.9,34923.2,-0.1154,-0.1905,148.3,98.4,0.463
35.82,32034.8,34840.6,0.1989,-0.3941,148.3,98.4,0.463
35.84,31906.4,34768.9,-0.5231,-0.5705,148.3,98.4,0.463
35.86,31836.5,34687.7,-0.9164,-0.7707,148.3,98.4,0.463
35.88,31886.8,34684.3,-0.6337,-0.779,148.3,98.4,0.463
35.9,31859.8,34661.0,-0.7851,-0.8365,148.3,98.4,0.463
35.92,31865.9,34668.7,-0.751,-0.8174,148.3,98.4,0.463
35.94,31810.1,34513.0,-1.0651,-1.201,148.3,98.4,0.463
35.96,31679.4,34478.4,-1.8,-1.2863,148.3,98.4,0.463
35.98,31929.6,34505.0,-0.3925,-1.2207,148.3,98.4,0.463
36.0,31994.5,34807.2,-0.0278,-0.4764,148.3,98.4,0.463
36.02,32014.5,35077.2,0.0845,0.1888,148.3,98.4,0.463
36.04,32154.0,35555.4,0.8696,1.3665,148.3,98.4,0.463
36.06,32314.3,35835.2,1.7713,2.0557,148.3,98.4,0.463
36.08,32218.4,35815.9,1.2318,2.0082,148.3,98.4,0.463
36.1,32299.0,35474.6,1.6848,1.1676,148.3,98.4,0.463
36.12,32178.5,35381.6,1.0069,0.9385,148.3,98.4,0.463
36.14,32115.7,35139.7,0.6539,0.3426,148.3,98.4,0.463
36.16,32082.7,35092.0,0.4682,0.2251,148.3,98.4,0.463
36.18,32095.9,35131.6,0.5424,0.3227,148.3,98.4,0.463
36.2,31907.5,34970.1,-0.5173,-0.075,148.3,98.4,0.463
36.22,31906.5,34877.3,-0.5229,-0.3036,148.3,98.4,0.463
36.24,31932.3,34694.5,-0.3778,-0.7539,148.3,98.4,0.463
36.26,31891.4,34681.0,-0.6079,-0.7872,148.3,98.4,0.463
36.28,31788.1,34574.2,-1.1887,-1.0502,148.3,98.4,0.463
36.3,31893.5,34644.8,-0.5959,-0.8762,148.3,98.4,0.463
36.32,31794.8,34568.3,-1.1508,-1.0647,148.3,98.4,0.463
36.34,31776.9,34552.3,-1.2514,-1.1041,148.3,98.4,0.463
36.36,31766.9,34449.1,-1.3078,-1.3583,148.3,98.4,0.463
36.38,31820.3,34464.8,-1.0078,-1.3197,148.3,98.4,0.463
36.4,31824.4,34717.4,-0.9843,-0.6974,148.3,98.4,0.463
36.42,32015.6,35144.6,0.0908,0.3547,148.3,98.4,0.463
36.44,32242.8,35487.9,1.3691,1.2003,148.3,98.4,0.463
36.46,32339.7,35797.4,1.914,1.9627,148.3,98.4,0.463
36.48,32308.3,35773.8,1.7374,1.9044,148.3,98.4,0.463
36.5,32199.8,35660.3,1.1271,1.6249,148.3,98.4,0.463
36.52,32207.0,35402.8,1.1674,0.9906,148.3,98.4,0.463
36.54,32146.0,35235.3,0.8244,0.5781,148.3,98.4,0.463
36.56,32020.6,35147.3,0.1192,0.3614,148.3,98.4,0.463
36.58,32029.1,35166.4,0.167,0.4083,148.3,98.4,0.463
36.6,32010.9,34961.1,0.0645,-0.0972,148.3,98.4,0.463
36.62,31859.6,34969.9,-0.7865,-0.0756,148.3,98.4,0.463
36.64,31901.4,34845.4,-0.5515,-0.3823,148.3,98.4,0.463
36.66,31807.0,34762.5,-1.0825,-0.5863,148.3,98.4,0.463
36.68,31903.5,34651.2,-0.5395,-0.8606,148.3,98.4,0.463
36.7,31750.1,34703.5,-1.4025,-0.7317,148.3,98.4,0.463
36.72,31862.3,34659.4,-0.7712,-0.8404,148.3,98.4,0.463
36.74,31817.8,34453.1,-1.0216,-1.3485,148.3,98.4,0.463
36.76,31785.2,34518.4,-1.2051,-1.1877,148.3,98.4,0.463
36.78,31707.0,34436.0,-1.6449,-1.3907,148.3,98.4,0.463
36.8,31811.2,34688.8,-1.0588,-0.7678,148.3,98.4,0.463
36.82,32022.9,35064.0,0.1319,0.1563,148.3,98.4,0.463
36.84,32137.1,35394.5,0.7742,0.9703,148.3,98.4,0.463
36.86,32219.5,35636.8,1.2376,1.5671,148.3,98.4,0.463
36.88,32435.3,35812.4,2.4516,1.9996,148.3,98.4,0.463
36.9,32303.6,35620.1,1.7109,1.5259,148.3,98.4,0.463
36.92,32201.0,35464.5,1.1337,1.1426,148.3,98.4,0.463
36.94,32116.4,35194.9,0.6581,0.4786,148.3,98.4,0.463
36.96,32036.9,35193.9,0.2106,0.4761,148.3,98.4,0.463
36.98,31977.1,35102.7,-0.1254,0.2516,148.3,98.4,0.463
37.0,32105.2,35052.6,0.5948,0.1281,148.3,98.4,0.463
37.02,31996.1,34895.3,-0.0186,-0.2593,148.3,98.4,0.463
37.04,31905.7,34791.8,-0.5273,-0.5143,148.3,98.4,0.463
37.06,31874.0,34700.1,-0.7055,-0.7402,148.3,98.4,0.463
37.08,31914.9,34686.4,-0.4756,-0.7739,148.3,98.4,0.463
37.1,32006.7,34681.9,0.0406,-0.785,148.3,98.4,0.463
37.12,31934.2,34620.5,-0.367,-0.9363,148.3,98.4,0.463
37.14,31841.3,34585.4,-0.8894,-1.0227,148.3,98.4,0.463
37.16,31828.2,34390.3,-0.9631,-1.5032,148.3,98.4,0.463
37.18,31743.8,34472.5,-1.438,-1.3006,148.3,98.4,0.463
37.2,31823.1,34636.2,-0.9916,-0.8974,148.3,98.4,0.463
37.22,31950.4,34923.2,-0.276,-0.1906,148.3,98.4,0.463
37.24,32100.6,35372.8,0.5687,0.9168,148.3,98.4,0.463
37.26,32283.4,35656.3,1.5974,1.615,148.3,98.4,0.463
37.28,32352.9,35768.3,1.9884,1.8909,148.3,98.4,0.463
37.3,32258.3,35671.9,1.456,1.6535,148.3,98.4,0.463
37.32,32228.2,35435.6,1.2869,1.0714,148.3,98.4,0.463
37.34,32122.6,35338.7,0.6926,0.8328,148.3,98.4,0.463
37.36,32047.1,35135.8,0.2679,0.333,148.3,98.4,0.463
37.38,32043.4,35084.9,0.2473,0.2076,148.3,98.4,0.463
37.4,31985.2,35111.6,-0.08,0.2736,148.3,98.4,0.463
37.42,31954.4,34933.2,-0.2534,-0.166,148.3,98.4,0.463
37.44,31965.8,34863.7,-0.189,-0.3371,148.3,98.4,0.463
37.46,31887.3,34738.6,-0.6307,-0.6452,148.3,98.4,0.463
37.48,31795.3,34685.2,-1.1482,-0.7769,148.3,98.4,0.463
37.5,31914.2,34757.0,-0.4795,-0.5998,148.3,98.4,0.463
37.52,31807.1,34618.6,-1.0818,-0.9409,148.3,98.4,0.463
37.54,31764.7,34553.5,-1.3202,-1.1012,148.3,98.4,0.463
37.56,31881.9,34467.1,-0.6609,-1.314,148.3,98.4,0.463
37.58,31833.1,34446.5,-0.9355,-1.3646,148.3,98.4,0.463
37.6,31798.4,34579.2,-1.1307,-1.0379,148.3,98.4,0.463
37.62,31941.5,34930.3,-0.3261,-0.1731,148.3,98.4,0.463
37.64,32141.7,35224.4,0.8001,0.5513,148.3,98.4,0.463
37.66,32189.7,35590.7,1.0704,1.4534,148.3,98.4,0.463
37.68,32257.0,35665.8,1.449,1.6384,148.3,98.4,0.463
37.7,32212.9,35639.1,1.2008,1.5728,148.3,98.4,0.463
37.72,32179.7,35577.5,1.0138,1.4209,148.3,98.4,0.463
37.74,32113.0,35332.1,0.6389,0.8165,148.3,98.4,0.463
37.76,32112.3,35224.9,0.6351,0.5524,148.3,98.4,0.463
37.78,31957.8,35128.9,-0.2339,0.316,148.3,98.4,0.463
37.8,32046.3,35055.0,0.2636,0.1339,148.3,98.4,0.463
37.82,32021.6,35000.5,0.1246,-0.0001,148.3,98.4,0.463
37.84,31933.8,34820.1,-0.3692,-0.4444,148.3,98.4,0.463
37.86,31946.1,34814.2,-0.3001,-0.459,148.3,98.4,0.463
37.88,31904.1,34706.4,-0.5362,-0.7246,148.3,98.4,0.463
37.9,31860.9,34670.9,-0.7792,-0.812,148.3,98.4,0.463
37.92,31966.1,34673.3,-0.1876,-0.806,148.3,98.4,0.463
37.94,31804.6,34692.0,-1.0959,-0.76,148.3,98.4,0.463
37.96,31724.2,34495.6,-1.548,-1.2437,148.3,98.4,0.463
37.98,31750.6,34448.1,-1.3997,-1.3607,148.3,98.4,0.463
38.0,31808.4,34565.5,-1.0744,-1.0715,148.3,98.4,0.463
38.02,31975.6,34715.2,-0.134,-0.7028,148.3,98.4,0.463
38.04,32062.7,35123.3,0.3556,0.3022,148.3,98.4,0.463
38.06,32175.3,35484.1,0.9895,1.191,148.3,98.4,0.463
38.08,32226.6,35773.2,1.2778,1.9031,148.3,98.4,0.463
38.1,32265.3,35665.6,1.4953,1.638,148.3,98.4,0.463
38.12,32261.6,35623.3,1.4748,1.5337,148.3,98.4,0.463
38.14,32263.3,35435.0,1.4841,1.0699,148.3,98.4,0.463
38.16,32204.6,35260.9,1.1538,0.6411,148.3,98.4,0.463
38.18,32080.4,35110.1,0.4554,0.2698,148.3,98.4,0.463
38.2,31990.9,35063.2,-0.0483,0.1542,148.3,98.4,0.463
38.22,32101.5,35004.5,0.574,0.0097,148.3,98.4,0.463
38.24,31926.6,34890.3,-0.4096,-0.2717,148.3,98.4,0.463
38.26,31895.4,34693.4,-0.585,-0.7565,148.3,98.4,0.463
38.28,31886.2,34770.4,-0.637,-0.5671,148.3,98.4,0.463
38.3,31890.9,34566.9,-0.6104,-1.0683,148.3,98.4,0.463
38.32,31824.2,34710.4,-0.9858,-0.7148,148.3,98.4,0.463
38.34,31794.2,34659.4,-1.1543,-0.8404,148.3,98.4,0.463
38.36,31802.4,34600.5,-1.1083,-0.9854,148.3,98.4,0.463
38.38,31731.8,34483.5,-1.5053,-1.2735,148.3,98.4,0.463
38.4,31741.4,34452.7,-1.4511,-1.3494,148.3,98.4,0.463
38.42,31825.8,34631.4,-0.9765,-0.9093,148.3,98.4,0.463
38.44,32034.8,35010.2,0.1987,0.0236,148.3,98.4,0.463
38.46,32125.0,35385.7,0.706,0.9486,148.3,98.4,0.463
38.48,32284.1,35669.8,1.6011,1.6484,148.3,98.4,0.463
38.5,32431.8,35736.4,2.4319,1.8123,148.3,98.4,0.463
38.52,32300.7,35751.7,1.6947,1.8501,148.3,98.4,0.463
38.54,32156.7,35429.9,0.8847,1.0573,148.3,98.4,0.463
38.56,32150.4,35210.2,0.8493,0.5163,148.3,98.4,0.463
38.58,32011.5,35134.3,0.0679,0.3295,148.3,98.4,0.463
38.6,32025.8,35084.2,0.1481,0.206,148.3,98.4,0.463
38.62,31927.7,34969.1,-0.4034,-0.0775,148.3,98.4,0.463
38.64,31986.2,34887.7,-0.0743,-0.2779,148.3,98.4,0.463
38.66,31929.8,34747.3,-0.3914,-0.6239,148.3,98.4,0.463
38.68,31913.5,34736.2,-0.4832,-0.6512,148.3,98.4,0.463
38.7,31891.9,34684.4,-0.6048,-0.7787,148.3,98.4,0.463
38.72,31863.8,34703.8,-0.763,-0.7311,148.3,98.4,0.463
38.74,31854.9,34615.5,-0.813,-0.9484,148.3,98.4,0.463
38.76,31846.4,34596.7,-0.8606,-0.9949,148.3,98.4,0.463
38.78,31818.6,34505.8,-1.0173,-1.2186,148.3,98.4,0.463
38.8,31696.4,34427.5,-1.7042,-1.4116,148.3,98.4,0.463
38.82,31901.3,34582.1,-0.5518,-1.0306,148.3,98.4,0.463
38.84,31957.9,34999.6,-0.2338,-0.0025,148.3,98.4,0.463
38.86,32016.0,35369.7,0.0931,0.9092,148.3,98.4,0.463
38.88,32357.4,35629.5,2.0136,1.549,148.3,98.4,0.463
38.9,32302.6,35803.7,1.7054,1.9781,148.3,98.4,0.463
38.92,32266.8,35713.6,1.5041,1.7561,148.3,98.4,0.463
38.94,32204.5,35468.9,1.1535,1.1535,148.3,98.4,0.463
38.96,32148.4,35380.7,0.8379,0.9361,148.3,98.4,0.463
38.98,31961.7,35191.2,-0.2122,0.4694,148.3,98.4,0.463
39.0,32031.1,35089.8,0.1784,0.2196,148.3,98.4,0.463
39.02,32008.3,34972.4,0.0501,-0.0693,148.3,98.4,0.463
39.04,32067.2,34882.2,0.3812,-0.2917,148.3,98.4,0.463
39.06,31887.1,34903.1,-0.6319,-0.2401,148.3,98.4,0.463
39.08,31928.3,34787.3,-0.3999,-0.5254,148.3,98.4,0.463
39.1,31900.1,34702.5,-0.5588,-0.7343,148.3,98.4,0.463
39.12,31861.1,34793.3,-0.778,-0.5106,148.3,98.4,0.463
39.14,31861.2,34552.3,-0.7774,-1.1041,148.3,98.4,0.463
39.16,31881.8,34601.0,-0.6614,-0.9843,148.3,98.4,0.463
39.18,31838.9,34539.8,-0.9031,-1.135,148.3,98.4,0.463
39.2,31652.5,34374.0,-1.9511,-1.5433,148.3,98.4,0.463
39.22,31852.0,34578.6,-0.8293,-1.0393,148.3,98.4,0.463
39.24,31949.6,34846.1,-0.2805,-0.3804,148.3,98.4,0.463
39.26,32089.2,35205.5,0.5051,0.5047,148.3,98.4,0.463
39.28,32252.5,35546.3,1.4231,1.3442,148.3,98.4,0.463
39.3,32355.3,35794.0,2.0018,1.9543,148.3,98.4,0.463
39.32,32278.6,35753.5,1.5702,1.8545,148.3,98.4,0.463
39.34,32231.0,35595.4,1.3023,1.465,148.3,98.4,0.463
39.36,32106.7,35306.7,0.6035,0.7539,148.3,98.4,0.463
39.38,32015.4,35176.3,0.0896,0.4329,148.3,98.4,0.463
39.4,32016.1,35130.7,0.0937,0.3205,148.3,98.4,0.463
39.42,32013.7,35058.3,0.0804,0.1423,148.3,98.4,0.463
39.44,32031.7,35008.8,0.1813,0.0202,148.3,98.4,0.463
39.46,31892.3,34821.1,-0.6028,-0.442,148.3,98.4,0.463
39.48,31872.3,34755.5,-0.715,-0.6035,148.3,98.4,0.463
39.5,31948.8,34643.3,-0.2849,-0.88,148.3,98.4,0.463
39.52,31911.3,34712.9,-0.4955,-0.7084,148.3,98.4,0.463
39.54,31912.1,34712.0,-0.4911,-0.7107,148.3,98.4,0.463
39.56,31844.5,34560.7,-0.8715,-1.0834,148.3,98.4,0.463
39.58,31765.7,34489.0,-1.3145,-1.2601,148.3,98.4,0.463
39.6,31710.5,34511.0,-1.6251,-1.2058,148.3,98.4,0.463
39.62,31820.7,34582.8,-1.0051,-1.0291,148.3,98.4,0.463
39.64,31930.3,34723.9,-0.3887,-0.6815,148.3,98.4,0.463
39.66,32010.3,35093.5,0.0611,0.229,148.3,98.4,0.463
39.68,32230.7,35524.9,1.3007,1.2914,148.3,98.4,0.463
39.7,32269.2,35682.2,1.5173,1.6788,148.3,98.4,0.463
39.72,32396.2,35747.2,2.2318,1.8389,148.3,98.4,0.463
39.74,32200.6,35569.3,1.1313,1.4008,148.3,98.4,0.463
39.76,32170.0,35408.3,0.9594,1.0042,148.3,98.4,0.463
39.78,32074.8,35137.7,0.4242,0.3377,148.3,98.4,0.463
39.8,32062.8,35018.1,0.3566,0.0431,148.3,98.4,0.463
39.82,31998.9,35146.7,-0.0029,0.3599,148.3,98.4,0.463
39.84,32018.6,35033.1,0.1076,0.0802,148.3,98.4,0.463
39.86,31988.1,34952.3,-0.0635,-0.1189,148.3,98.4,0.463
39.88,31969.9,34856.4,-0.1662,-0.3551,148.3,98.4,0.463
39.9,31886.5,34655.4,-0.6355,-0.8502,148.3,98.4,0.463
39.92,31806.7,34701.1,-1.0843,-0.7376,148.3,98.4,0.463
39.94,31853.4,34613.7,-0.8215,-0.953,148.3,98.4,0.463
39.96,31845.8,34588.3,-0.864,-1.0154,148.3,98.4,0.463
39.98,31882.1,34558.9,-0.6601,-1.088,148.3,98.4,0.463
40.0,31732.7,34419.8,-1.5004,-1.4306,148.3,98.4,0.463
40.02,31845.3,34525.1,-0.8671,-1.1711,148.3,98.4,0.463
40.04,31867.9,34615.9,-0.7399,-0.9474,148.3,98.4,0.463
40.06,32052.3,35099.2,0.2976,0.243,148.3,98.4,0.463
40.08,32184.2,35447.5,1.0393,1.1009,148.3,98.4,0.463
40.1,32217.9,35739.6,1.229,1.8202,148.3,98.4,0.463
40.12,32325.2,35692.9,1.8325,1.7051,148.3,98.4,0.463
40.14,32281.0,35571.5,1.5839,1.4061,148.3,98.4,0.463
40.16,32204.3,35395.4,1.1523,0.9724,148.3,98.4,0.463
40.18,32079.6,35274.7,0.4509,0.6751,148.3,98.4,0.463
40.2,32001.3,35121.3,0.0106,0.2973,148.3,98.4,0.463
40.22,32050.8,35047.7,0.289,0.1162,148.3,98.4,0.463
40.24,32104.0,34995.6,0.588,-0.0123,148.3,98.4,0.463
40.26,31948.5,34951.8,-0.2865,-0.1202,148.3,98.4,0.463
40.28,31862.1,34853.0,-0.7724,-0.3636,148.3,98.4,0.463
40.3,31935.6,34713.7,-0.3593,-0.7065,148.3,98.4,0.463
40.32,31859.5,34763.3,-0.7869,-0.5845,148.3,98.4,0.463
40.34,31791.8,34700.8,-1.1681,-0.7384,148.3,98.4,0.463
40.36,31877.0,34643.6,-0.6885,-0.8792,148.3,98.4,0.463
40.38,31815.8,34529.1,-1.0328,-1.1613,148.3,98.4,0.463
40.4,31779.3,34500.4,-1.2384,-1.2319,148.3,98.4,0.463
40.42,31738.4,34439.7,-1.4682,-1.3814,148.3,98.4,0.463
40.44,31923.5,34624.2,-0.4272,-0.927,148.3,98.4,0.463
40.46,31997.9,35073.2,-0.0087,0.1788,148.3,98.4,0.463
40.48,32191.8,35304.4,1.0819,0.7482,148.3,98.4,0.463
40.5,32318.8,35743.6,1.7962,1.83,148.3,98.4,0.463
40.52,32301.5,35829.2,1.699,2.0408,148.3,98.4,0.463
40.54,32372.7,35664.3,2.0995,1.6349,148.3,98.4,0.463
40.56,32195.1,35439.4,1.1004,1.0809,148.3,98.4,0.463
40.58,31980.5,35301.1,-0.1067,0.7403,148.3,98.4,0.463
40.6,32010.1,35199.5,0.0598,0.4899,148.3,98.4,0.463
40.62,32021.1,35163.9,0.1221,0.4022,148.3,98.4,0.463
40.64,31966.7,35033.4,-0.1844,0.0809,148.3,98.4,0.463
40.66,31991.3,34926.1,-0.0458,-0.1834,148.3,98.4,0.463
40.68,31845.0,34813.0,-0.8686,-0.4621,148.3,98.4,0.463
40.7,31877.5,34845.3,-0.6858,-0.3826,148.3,98.4,0.463
40.72,31856.0,34610.8,-0.8066,-0.96,148.3,98.4,0.463
40.74,31861.1,34713.9,-0.7782,-0.7061,148.3,98.4,0.463
40.76,31835.0,34713.5,-0.9248,-0.707,148.3,98.4,0.463
40.78,31763.6,34557.0,-1.3266,-1.0925,148.3,98.4,0.463
40.8,31742.3,34429.1,-1.4464,-1.4075,148.3,98.4,0.463
40.82,31745.2,34506.0,-1.4299,-1.2182,148.3,98.4,0.463
40.84,31893.9,34547.1,-0.5938,-1.117,148.3,98.4,0.463
40.86,31959.4,34750.7,-0.2252,-0.6155,148.3,98.4,0.463
40.88,32057.4,35298.8,0.3259,0.7345,148.3,98.4,0.463
40.9,32229.3,35625.9,1.2927,1.5403,148.3,98.4,0.463
40.92,32326.7,35681.7,1.8406,1.6775,148.3,98.4,0.463
40.94,32225.2,35718.9,1.27,1.7691,148.3,98.4,0.463
40.96,32245.0,35579.4,1.3811,1.4256,148.3,98.4,0.463
40.98,32099.6,35353.3,0.5635,0.8688,148.3,98.4,0.463
41.0,32102.8,35306.0,0.5812,0.7523,148.3,98.4,0.463
41.02,31985.3,35007.4,-0.0794,0.0168,148.3,98.4,0.463
41.04,32040.9,35064.2,0.2332,0.1567,148.3,98.4,0.463
41.06,32048.5,34933.8,0.276,-0.1646,148.3,98.4,0.463
41.08,31844.8,34834.8,-0.8699,-0.4083,148.3,98.4,0.463
41.1,31818.8,34761.8,-1.0157,-0.5882,148.3,98.4,0.463
41.12,31888.0,34691.4,-0.6267,-0.7616,148.3,98.4,0.463
41.14,31843.2,34691.7,-0.8786,-0.7609,148.3,98.4,0.463
41.16,31725.5,34658.0,-1.5406,-0.8438,148.3,98.4,0.463
41.18,31850.6,34581.2,-0.8371,-1.0329,148.3,98.4,0.463
41.2,31813.2,34426.3,-1.0476,-1.4145,148.3,98.4,0.463
41.22,31757.3,34491.5,-1.3618,-1.2538,148.3,98.4,0.463
41.24,31734.7,34507.5,-1.489,-1.2144,148.3,98.4,0.463
41.26,31954.4,34808.5,-0.2533,-0.4732,148.3,98.4,0.463
41.28,32129.7,35131.1,0.7328,0.3216,148.3,98.4,0.463
41.3,32238.5,35477.1,1.3445,1.1736,148.3,98.4,0.463
41.32,32335.2,35796.6,1.8883,1.9607,148.3,98.4,0.463
41.34,32337.6,35719.9,1.902,1.7716,148.3,98.4,0.463
41.36,32267.2,35606.3,1.5062,1.4919,148.3,98.4,0.463
41.38,32203.8,35447.1,1.1496,1.0999,148.3,98.4,0.463
41.4,32096.8,35200.8,0.5477,0.4931,148.3,98.4,0.463
41.42,32127.3,35160.5,0.7194,0.394,148.3,98.4,0.463
41.44,32018.6,35039.1,0.1076,0.0949,148.3,98.4,0.463
41.46,31992.0,35047.2,-0.0418,0.1149,148.3,98.4,0.463
41.48,32034.0,34876.4,0.1945,-0.3058,148.3,98.4,0.463
41.5,31885.1,34790.5,-0.6428,-0.5175,148.3,98.4,0.463
41.52,31970.1,34673.9,-0.165,-0.8046,148.3,98.4,0.463
41.54,31919.0,34736.6,-0.4524,-0.6503,148.3,98.4,0.463
41.56,31862.8,34694.2,-0.7682,-0.7547,148.3,98.4,0.463
41.58,31838.1,34589.6,-0.9077,-1.0123,148.3,98.4,0.463
41.6,31746.7,34468.8,-1.4218,-1.3097,148.3,98.4,0.463
41.62,31831.7,34374.0,-0.9434,-1.5432,148.3,98.4,0.463
41.64,31790.0,34583.5,-1.1781,-1.0272,148.3,98.4,0.463
41.66,31882.9,34775.7,-0.6554,-0.5539,148.3,98.4,0.463
41.68,31968.4,35064.3,-0.1746,0.157,148.3,98.4,0.463
41.7,32166.1,35417.1,0.9374,1.0259,148.3,98.4,0.463
41.72,32309.5,35644.3,1.7442,1.5854,148.3,98.4,0.463
41.74,32212.3,35729.2,1.1973,1.7945,148.3,98.4,0.463
41.76,32276.0,35644.6,1.5556,1.5862,148.3,98.4,0.463
41.78,32171.6,35461.9,0.9683,1.1362,148.3,98.4,0.463
41.8,32119.2,35261.3,0.6739,0.6422,148.3,98.4,0.463
41.82,32004.4,35142.4,0.0277,0.3494,148.3,98.4,0.463
41.84,32058.5,34991.2,0.3324,-0.0232,148.3,98.4,0.463
41.86,31930.7,35031.7,-0.3864,0.0766,148.3,98.4,0.463
41.88,32014.7,34803.1,0.0859,-0.4864,148.3,98.4,0.463
41.9,31893.3,34757.0,-0.5972,-0.6001,148.3,98.4,0.463
41.92,31822.3,34740.6,-0.9964,-0.6402,148.3,98.4,0.463
41.94,31863.2,34731.6,-0.7662,-0.6624,148.3,98.4,0.463
41.96,31904.0,34641.5,-0.5369,-0.8844,148.3,98.4,0.463
41.98,31888.2,34593.3,-0.6254,-1.003,148.3,98.4,0.463
42.0,31797.1,34574.4,-1.1379,-1.0496,148.3,98.4,0.463
42.02,31782.4,34438.5,-1.2205,-1.3844,148.3,98.4,0.463
42.04,31768.0,34365.7,-1.3018,-1.5639,148.3,98.4,0.463
42.06,31815.0,34669.8,-1.0371,-0.8146,148.3,98.4,0.463
42.08,31951.8,34950.8,-0.2682,-0.1227,148.3,98.4,0.463
42.1,32107.5,35373.7,0.608,0.9191,148.3,98.4,0.463
42.12,32222.1,35681.9,1.2526,1.6782,148.3,98.4,0.463
42.14,32273.2,35789.7,1.5398,1.9437,148.3,98.4,0.463
42.16,32256.0,35678.6,1.4429,1.6699,148.3,98.4,0.463
42.18,32166.3,35419.6,0.9384,1.0321,148.3,98.4,0.463
42.2,32159.4,35263.9,0.8997,0.6487,148.3,98.4,0.463
42.22,32129.4,35183.0,0.7307,0.4492,148.3,98.4,0.463
42.24,32062.8,35115.9,0.3565,0.2841,148.3,98.4,0.463
42.26,32118.9,35043.5,0.6722,0.1058,148.3,98.4,0.463
42.28,31950.0,35014.6,-0.2783,0.0345,148.3,98.4,0.463
42.3,31868.5,34812.3,-0.7365,-0.4637,148.3,98.4,0.463
42.32,31943.4,34742.2,-0.3154,-0.6364,148.3,98.4,0.463
42.34,31897.3,34651.4,-0.5745,-0.8601,148.3,98.4,0.463
42.36,31811.0,34685.0,-1.0599,-0.7772,148.3,98.4,0.463
42.38,31878.6,34552.9,-0.6799,-1.1026,148.3,98.4,0.463
42.4,31800.6,34637.5,-1.1186,-0.8943,148.3,98.4,0.463
42.42,31769.8,34529.8,-1.2913,-1.1596,148.3,98.4,0.463
42.44,31870.1,34478.7,-0.7277,-1.2855,148.3,98.4,0.463
42.46,31821.6,34583.4,-1.0002,-1.0275,148.3,98.4,0.463
42.48,32040.7,34887.8,0.2322,-0.2777,148.3,98.4,0.463
42.5,32049.0,35272.8,0.2789,0.6706,148.3,98.4,0.463
42.52,32296.1,35666.6,1.6688,1.6404,148.3,98.4,0.463
42.54,32308.9,35763.0,1.7406,1.8778,148.3,98.4,0.463
42.56,32393.1,35751.7,2.2141,1.8501,148.3,98.4,0.463
42.58,32203.7,35495.5,1.1487,1.2191,148.3,98.4,0.463
42.6,32123.1,35314.7,0.6956,0.7737,148.3,98.4,0.463
42.62,32058.5,35118.0,0.332,0.2893,148.3,98.4,0.463
42.64,32050.5,35168.5,0.287,0.4137,148.3,98.4,0.463
42.66,31968.7,35077.5,-0.173,0.1895,148.3,98.4,0.463
42.68,31955.0,34874.2,-0.2501,-0.3112,148.3,98.4,0.463
42.7,31916.5,34832.9,-0.4667,-0.4131,148.3,98.4,0.463
42.72,31912.4,34748.6,-0.4896,-0.6205,148.3,98.4,0.463
42.74,31874.1,34743.0,-0.7049,-0.6344,148.3,98.4,0.463
42.76,31860.5,34654.8,-0.7813,-0.8517,148.3,98.4,0.463
42.78,31918.9,34585.4,-0.4529,-1.0226,148.3,98.4,0.463
42.8,31910.2,34624.1,-0.5018,-0.9274,148.3,98.4,0.463
42.82,31841.4,34553.1,-0.889,-1.1022,148.3,98.4,0.463
42.84,31791.7,34441.0,-1.1683,-1.3782,148.3,98.4,0.463
42.86,31856.5,34538.5,-0.804,-1.1382,148.3,98.4,0.463
42.88,31927.0,34806.0,-0.4077,-0.4792,148.3,98.4,0.463
42.9,32093.8,35215.8,0.5311,0.53,148.3,98.4,0.463
42.92,32264.1,35460.4,1.4888,1.1325,148.3,98.4,0.463
42.94,32248.2,35740.1,1.3991,1.8215,148.3,98.4,0.463
42.96,32344.4,35828.5,1.9404,2.0393,148.3,98.4,0.463
42.98,32330.4,35495.6,1.8618,1.2191,148.3,98.4,0.463
43.0,32184.6,35373.6,1.0417,0.9187,148.3,98.4,0.463
43.02,32035.7,35194.2,0.2041,0.4769,148.3,98.4,0.463
43.04,32138.9,35100.2,0.7845,0.2453,148.3,98.4,0.463
43.06,32031.7,35120.1,0.1813,0.2943,148.3,98.4,0.463
43.08,31938.2,35018.9,-0.3444,0.045,148.3,98.4,0.463
43.1,31965.9,34847.3,-0.1885,-0.3775,148.3,98.4,0.463
43.12,31909.3,34785.1,-0.5072,-0.5306,148.3,98.4,0.463
43.14,31863.7,34676.7,-0.7633,-0.7978,148.3,98.4,0.463
43.16,31894.6,34669.4,-0.5898,-0.8158,148.3,98.4,0.463
43.18,31869.4,34650.3,-0.7316,-0.8628,148.3,98.4,0.463
43.2,31857.6,34703.3,-0.7975,-0.7321,148.3,98.4,0.463
43.22,31742.7,34575.9,-1.4441,-1.046,148.3,98.4,0.463
43.24,31768.4,34448.6,-1.2997,-1.3594,148.3,98.4,0.463
43.26,31778.0,34471.0,-1.2456,-1.3045,148.3,98.4,0.463
43.28,31910.0,34741.1,-0.5029,-0.639,148.3,98.4,0.463
43.3,31998.6,35058.7,-0.0045,0.1431,148.3,98.4,0.463
43.32,32331.7,35475.4,1.8687,1.1696,148.3,98.4,0.463
43.34,32377.3,35637.4,2.1253,1.5684,148.3,98.4,0.463
43.36,32211.2,35805.1,1.1913,1.9816,148.3,98.4,0.463
43.38,32235.9,35603.7,1.3298,1.4855,148.3,98.4,0.463
43.4,32195.7,35410.1,1.1039,1.0088,148.3,98.4,0.463
43.42,32152.6,35190.0,0.8614,0.4665,148.3,98.4,0.463
43.44,32112.0,35095.1,0.6329,0.2329,148.3,98.4,0.463
43.46,32012.6,35036.3,0.0743,0.088,148.3,98.4,0.463
43.48,31980.7,34979.5,-0.1053,-0.0518,148.3,98.4,0.463
43.5,32025.9,34836.7,0.1486,-0.4037,148.3,98.4,0.463
43.52,31914.7,34807.3,-0.4765,-0.4761,148.3,98.4,0.463
43.54,31885.4,34631.5,-0.6416,-0.9091,148.3,98.4,0.463
43.56,31912.9,34617.8,-0.4869,-0.9428,148.3,98.4,0.463
43.58,31819.2,34608.9,-1.014,-0.9646,148.3,98.4,0.463
43.6,31884.2,34689.9,-0.6483,-0.7653,148.3,98.4,0.463
43.62,31870.5,34573.7,-0.7255,-1.0515,148.3,98.4,0.463
43.64,31767.5,34448.5,-1.3047,-1.3598,148.3,98.4,0.463
43.66,31781.6,34440.1,-1.2252,-1.3805,148.3,98.4,0.463
43.68,31920.1,34787.6,-0.4462,-0.5247,148.3,98.4,0.463
43.7,31975.0,35070.7,-0.1376,0.1727,148.3,98.4,0.463
43.72,32120.0,35401.9,0.6781,0.9886,148.3,98.4,0.463
43.74,32215.7,35716.9,1.2163,1.7644,148.3,98.4,0.463
43.76,32223.0,35833.0,1.2576,2.0504,148.3,98.4,0.463
43.78,32271.8,35672.2,1.5318,1.6541,148.3,98.4,0.463
43.8,32212.1,35452.5,1.1961,1.1132,148.3,98.4,0.463
43.82,32120.1,35170.8,0.679,0.4193,148.3,98.4,0.463
43.84,32157.1,35159.4,0.8868,0.3912,148.3,98.4,0.463
43.86,31968.4,35096.4,-0.1744,0.236,148.3,98.4,0.463
43.88,31999.6,35053.5,0.0007,0.1305,148.3,98.4,0.463
43.9,31957.2,34962.5,-0.2375,-0.0938,148.3,98.4,0.463
43.92,32021.0,34836.5,0.1212,-0.4041,148.3,98.4,0.463
43.94,31894.3,34609.2,-0.5912,-0.964,148.3,98.4,0.463
43.96,31851.0,34717.4,-0.8351,-0.6974,148.3,98.4,0.463
43.98,31885.4,34591.3,-0.6414,-1.0081,148.3,98.4,0.463
44.0,31878.8,34553.8,-0.6785,-1.1004,148.3,98.4,0.463
44.02,31861.9,34437.3,-0.7734,-1.3874,148.3,98.4,0.463
44.04,31744.9,34516.3,-1.4315,-1.1928,148.3,98.4,0.463
44.06,31799.2,34423.6,-1.1263,-1.4212,148.3,98.4,0.463
44.08,31778.2,34599.7,-1.2443,-0.9874,148.3,98.4,0.463
44.1,31934.6,34901.7,-0.3644,-0.2436,148.3,98.4,0.463
44.12,32149.8,35386.3,0.8459,0.9501,148.3,98.4,0.463
44.14,32288.5,35651.2,1.6257,1.6025,148.3,98.4,0.463
44.16,32352.2,35742.8,1.984,1.828,148.3,98.4,0.463
44.18,32299.2,35781.9,1.6863,1.9243,148.3,98.4,0.463
44.2,32210.9,35471.1,1.1894,1.1588,148.3,98.4,0.463
44.22,32088.3,35325.1,0.5001,0.7994,148.3,98.4,0.463
44.24,32019.9,35194.7,0.1154,0.4781,148.3,98.4,0.463
44.26,32005.9,35090.3,0.0361,0.2209,148.3,98.4,0.463
44.28,31947.3,35058.1,-0.2935,0.1417,148.3,98.4,0.463
44.3,32077.7,35075.9,0.4402,0.1855,148.3,98.4,0.463
44.32,31871.7,34826.1,-0.7187,-0.4298,148.3,98.4,0.463
44.34,31901.1,34757.4,-0.5528,-0.599,148.3,98.4,0.463
44.36,31893.6,34627.3,-0.5951,-0.9195,148.3,98.4,0.463
44.38,31853.0,34655.2,-0.8239,-0.8508,148.3,98.4,0.463
44.4,31879.5,34651.3,-0.6744,-0.8604,148.3,98.4,0.463
44.42,31779.1,34591.9,-1.2392,-1.0065,148.3,98.4,0.463
44.44,31706.1,34449.1,-1.65,-1.3583,148.3,98.4,0.463
44.46,31776.5,34512.0,-1.2542,-1.2034,148.3,98.4,0.463
44.48,31766.6,34501.3,-1.3097,-1.2297,148.3,98.4,0.463
44.5,31945.2,34932.9,-0.3052,-0.1667,148.3,98.4,0.463
44.52,32139.8,35184.4,0.7896,0.4528,148.3,98.4,0.463
44.54,32180.5,35549.1,1.0186,1.3509,148.3,98.4,0.463
44.56,32290.0,35761.8,1.6343,1.8748,148.3,98.4,0.463
44.58,32303.4,35730.7,1.7097,1.7983,148.3,98.4,0.463
44.6,32217.2,35607.6,1.2249,1.4952,148.3,98.4,0.463
44.62,32112.1,35415.5,0.6336,1.022,148.3,98.4,0.463
44.64,32049.5,35134.2,0.2818,0.3292,148.3,98.4,0.463
44.66,32082.1,35043.4,0.465,0.1054,148.3,98.4,0.463
44.68,31993.1,35072.7,-0.0356,0.1776,148.3,98.4,0.463
44.7,31937.8,34990.8,-0.3465,-0.0241,148.3,98.4,0.463
44.72,31994.6,34826.3,-0.0271,-0.4293,148.3,98.4,0.463
44.74,31857.3,34808.4,-0.7994,-0.4735,148.3,98.4,0.463
44.76,31907.0,34665.6,-0.5202,-0.8252,148.3,98.4,0.463
44.78,31938.9,34716.3,-0.3407,-0.7002,148.3,98.4,0.463
44.8,31813.6,34714.8,-1.0453,-0.7039,148.3,98.4,0.463
44.82,31828.8,34570.5,-0.9595,-1.0592,148.3,98.4,0.463
44.84,31660.0,34536.4,-1.9089,-1.1432,148.3,98.4,0.463
