timestamp,raw_red,raw_ir,filtered_red,filtered_ir,heart_rate,spo2,ac_dc_ratio
0.0,32217.1,35200.8,0.9957,0.4949,149.8,97.7,0.492
0.02,32209.7,35560.5,0.9616,1.381,149.8,97.7,0.492
0.04,32340.1,35788.2,1.56,1.9419,149.8,97.7,0.492
0.06,32290.1,35712.5,1.3303,1.7553,149.8,97.7,0.492
0.08,32276.9,35626.3,1.2702,1.543,149.8,97.7,0.492
0.1,32152.6,35319.2,0.6999,0.7865,149.8,97.7,0.492
0.12,32100.5,35133.4,0.4609,0.3289,149.8,97.7,0.492
0.14,32134.7,35076.6,0.618,0.1891,149.8,97.7,0.492
0.16,31972.3,35029.7,-0.1271,0.0736,149.8,97.7,0.492
0.18,32064.7,35053.9,0.2966,0.1331,149.8,97.7,0.492
0.2,32054.3,34912.3,0.2488,-0.2155,149.8,97.7,0.492
0.22,31855.4,34765.2,-0.6633,-0.578,149.8,97.7,0.492
0.24,31818.3,34676.8,-0.8333,-0.7957,149.8,97.7,0.492
0.26,31825.2,34689.8,-0.8015,-0.7637,149.8,97.7,0.492
0.28,31865.2,34710.1,-0.6182,-0.7137,149.8,97.7,0.492
0.3,31858.5,34667.0,-0.649,-0.8197,149.8,97.7,0.492
0.32,31786.0,34457.7,-0.9813,-1.3353,149.8,97.7,0.492
0.34,31721.1,34492.8,-1.2792,-1.2488,149.8,97.7,0.492
0.36,31751.8,34479.9,-1.1381,-1.2806,149.8,97.7,0.492
0.38,31918.9,34758.2,-0.372,-0.5951,149.8,97.7,0.492
0.4,32088.5,35205.6,0.4057,0.5067,149.8,97.7,0.492
0.42,32267.2,35539.7,1.2257,1.3298,149.8,97.7,0.492
0.44,32333.8,35771.9,1.5311,1.9016,149.8,97.7,0.492
0.46,32235.3,35819.3,1.0791,2.0184,149.8,97.7,0.492
0.48,32353.8,35571.9,1.6227,1.409,149.8,97.7,0.492
0.5,32177.2,35366.1,0.8127,0.9022,149.8,97.7,0.492
0.52,32070.0,35232.3,0.3212,0.5727,149.8,97.7,0.492
0.54,32015.0,35072.2,0.069,0.1781,149.8,97.7,0.492
0.56,32094.7,35004.3,0.4345,0.0109,149.8,97.7,0.492
0.58,31996.9,34986.4,-0.0144,-0.0331,149.8,97.7,0.492
0.6,32015.5,34926.4,0.0709,-0.1808,149.8,97.7,0.492
0.62,31913.7,34735.2,-0.3959,-0.6518,149.8,97.7,0.492
0.64,31932.3,34809.8,-0.3106,-0.4681,149.8,97.7,0.492
0.66,31855.1,34676.2,-0.6646,-0.7971,149.8,97.7,0.492
0.68,31728.9,34616.4,-1.2434,-0.9446,149.8,97.7,0.492
0.7,31705.0,34560.0,-1.353,-1.0833,149.8,97.7,0.492
0.72,31839.5,34513.5,-0.7362,-1.198,149.8,97.7,0.492
0.74,31650.2,34431.4,-1.6045,-1.4002,149.8,97.7,0.492
0.76,31787.8,34513.3,-0.9734,-1.1983,149.8,97.7,0.492
0.78,32053.2,34841.8,0.2442,-0.3892,149.8,97.7,0.492
0.8,32026.0,35158.6,0.1192,0.391,149.8,97.7,0.492
0.82,32165.7,35407.8,0.7601,1.0049,149.8,97.7,0.492
0.84,32328.1,35708.5,1.5049,1.7454,149.8,97.7,0.492
0.86,32359.9,35658.8,1.6508,1.623,149.8,97.7,0.492
0.88,32271.5,35557.5,1.2453,1.3735,149.8,97.7,0.492
0.9,32113.7,35273.1,0.5214,0.6731,149.8,97.7,0.492
0.92,32095.8,35188.1,0.4393,0.4636,149.8,97.7,0.492
0.94,32012.4,35151.4,0.0568,0.3734,149.8,97.7,0.492
0.96,32086.5,35073.3,0.3968,0.1809,149.8,97.7,0.492
0.98,31923.9,34891.3,-0.3492,-0.2673,149.8,97.7,0.492
1.0,31912.0,34921.1,-0.4034,-0.194,149.8,97.7,0.492
1.02,31914.3,34766.0,-0.3932,-0.5759,149.8,97.7,0.492
1.04,31892.7,34706.8,-0.4923,-0.7217,149.8,97.7,0.492
1.06,31879.7,34681.8,-0.5515,-0.7835,149.8,97.7,0.492
1.08,31838.1,34621.8,-0.7427,-0.931,149.8,97.7,0.492
1.1,31779.5,34543.6,-1.0112,-1.1238,149.8,97.7,0.492
1.12,31791.6,34495.5,-0.9558,-1.2421,149.8,97.7,0.492
1.14,31784.3,34437.4,-0.989,-1.3853,149.8,97.7,0.492
1.16,31751.3,34531.5,-1.1405,-1.1535,149.8,97.7,0.492
1.18,31993.5,34750.6,-0.03,-0.6138,149.8,97.7,0.492
1.2,32134.7,35078.4,0.6177,0.1936,149.8,97.7,0.492
1.22,32159.8,35479.9,0.733,1.1824,149.8,97.7,0.492
1.24,32398.8,35703.9,1.8292,1.7341,149.8,97.7,0.492
1.26,32317.5,35750.7,1.4562,1.8494,149.8,97.7,0.492
1.28,32308.8,35616.8,1.4161,1.5196,149.8,97.7,0.492
1.3,32135.4,35378.5,0.6209,0.9326,149.8,97.7,0.492
1.32,32162.3,35208.1,0.7443,0.513,149.8,97.7,0.492
1.34,32017.3,35095.2,0.0793,0.2348,149.8,97.7,0.492
1.36,32019.1,35137.1,0.0875,0.3381,149.8,97.7,0.492
1.38,31956.8,35003.1,-0.1981,0.0079,149.8,97.7,0.492
1.4,31886.6,34883.2,-0.5201,-0.2872,149.8,97.7,0.492
1.42,31892.0,34778.5,-0.4955,-0.5451,149.8,97.7,0.492
1.44,31893.0,34775.6,-0.4907,-0.5523,149.8,97.7,0.492
1.46,31815.0,34608.6,-0.8483,-0.9636,149.8,97.7,0.492
1.48,31883.9,34680.0,-0.5324,-0.7877,149.8,97.7,0.492
1.5,31825.0,34587.2,-0.8026,-1.0164,149.8,97.7,0.492
1.52,31773.3,34497.4,-1.0396,-1.2376,149.8,97.7,0.492
1.54,31728.8,34429.8,-1.2437,-1.4039,149.8,97.7,0.492
1.56,31740.4,34583.6,-1.1904,-1.0253,149.8,97.7,0.492
1.58,31882.6,34768.0,-0.5385,-0.5711,149.8,97.7,0.492
1.6,32122.2,35085.9,0.5606,0.2119,149.8,97.7,0.492
1.62,32193.6,35492.7,0.8879,1.2139,149.8,97.7,0.492
1.64,32335.6,35776.3,1.5394,1.9124,149.8,97.7,0.492
1.66,32338.9,35775.7,1.5543,1.911,149.8,97.7,0.492
1.68,32350.0,35566.0,1.6053,1.3945,149.8,97.7,0.492
1.7,32173.1,35428.7,0.794,1.0562,149.8,97.7,0.492
1.72,32069.9,35266.4,0.3208,0.6565,149.8,97.7,0.492
1.74,32013.1,35118.4,0.06,0.2921,149.8,97.7,0.492
1.76,31979.3,35108.7,-0.0947,0.268,149.8,97.7,0.492
1.78,31911.7,35029.8,-0.4049,0.0738,149.8,97.7,0.492
1.8,31980.8,34906.5,-0.0879,-0.2298,149.8,97.7,0.492
1.82,31879.4,34810.9,-0.5532,-0.4655,149.8,97.7,0.492
1.84,31871.3,34718.9,-0.5904,-0.692,149.8,97.7,0.492
1.86,31873.0,34751.2,-0.5825,-0.6124,149.8,97.7,0.492
1.88,31775.4,34537.3,-1.0301,-1.1394,149.8,97.7,0.492
1.9,31825.0,34559.1,-0.8027,-1.0855,149.8,97.7,0.492
1.92,31836.5,34514.6,-0.7499,-1.1951,149.8,97.7,0.492
1.94,31772.3,34408.2,-1.0444,-1.4573,149.8,97.7,0.492
1.96,31777.0,34565.8,-1.0227,-1.0692,149.8,97.7,0.492
1.98,31942.2,34781.6,-0.2652,-0.5376,149.8,97.7,0.492
2.0,32058.7,35062.6,0.2693,0.1546,149.8,97.7,0.492
2.02,32193.3,35553.9,0.8866,1.3647,149.8,97.7,0.492
2.04,32405.6,35747.2,1.8605,1.8408,149.8,97.7,0.492
2.06,32292.5,35841.6,1.3415,2.0734,149.8,97.7,0.492
2.08,32255.4,35650.1,1.1712,1.6016,149.8,97.7,0.492
2.1,32051.6,35368.2,0.2369,0.9073,149.8,97.7,0.492
2.12,32144.2,35267.5,0.6615,0.6593,149.8,97.7,0.492
2.14,31962.4,35110.2,-0.1725,0.2717,149.8,97.7,0.492
2.16,32030.2,35037.6,0.1385,0.093,149.8,97.7,0.492
2.18,31979.6,34923.8,-0.0935,-0.1874,149.8,97.7,0.492
2.2,31950.8,34814.1,-0.2255,-0.4575,149.8,97.7,0.492
2.22,31897.4,34767.6,-0.4706,-0.572,149.8,97.7,0.492
2.24,31910.0,34753.6,-0.4128,-0.6064,149.8,97.7,0.492
2.26,31920.3,34625.1,-0.3655,-0.923,149.8,97.7,0.492
2.28,31863.5,34652.4,-0.6261,-0.8558,149.8,97.7,0.492
2.3,31862.1,34503.3,-0.6323,-1.223,149.8,97.7,0.492
2.32,31831.3,34457.6,-0.7735,-1.3357,149.8,97.7,0.492
2.34,31717.4,34505.6,-1.296,-1.2175,149.8,97.7,0.492
2.36,31760.0,34421.9,-1.1008,-1.4236,149.8,97.7,0.492
2.38,31778.9,34723.4,-1.0139,-0.6808,149.8,97.7,0.492
2.4,31958.7,35088.1,-0.1892,0.2175,149.8,97.7,0.492
2.42,32172.7,35471.3,0.7919,1.1613,149.8,97.7,0.492
2.44,32234.9,35683.2,1.0776,1.6833,149.8,97.7,0.492
2.46,32374.4,35732.7,1.7173,1.8051,149.8,97.7,0.492
2.48,32163.8,35634.7,0.7512,1.5638,149.8,97.7,0.492
2.5,32249.0,35352.1,1.1419,0.8676,149.8,97.7,0.492
2.52,32043.2,35172.7,0.198,0.4257,149.8,97.7,0.492
2.54,32021.6,35120.1,0.0993,0.2962,149.8,97.7,0.492
2.56,31974.3,35013.4,-0.118,0.0334,149.8,97.7,0.492
2.58,31908.2,34930.6,-0.4209,-0.1704,149.8,97.7,0.492
2.6,31933.8,34918.5,-0.3034,-0.2004,149.8,97.7,0.492
2.62,31886.8,34868.4,-0.5189,-0.3239,149.8,97.7,0.492
2.64,31795.7,34706.5,-0.9369,-0.7225,149.8,97.7,0.492
2.66,31786.3,34675.6,-0.9803,-0.7986,149.8,97.7,0.492
2.68,31825.1,34603.1,-0.8021,-0.9771,149.8,97.7,0.492
2.7,31840.6,34699.8,-0.7312,-0.7389,149.8,97.7,0.492
2.72,31680.8,34565.3,-1.464,-1.0704,149.8,97.7,0.492
2.74,31699.3,34432.3,-1.3791,-1.398,149.8,97.7,0.492
2.76,31803.1,34557.2,-0.9028,-1.0902,149.8,97.7,0.492
2.78,31866.0,34725.4,-0.6147,-0.676,149.8,97.7,0.492
2.8,32140.5,35166.4,0.6445,0.4102,149.8,97.7,0.492
2.82,32286.0,35445.4,1.3117,1.0975,149.8,97.7,0.492
2.84,32299.0,35756.1,1.3714,1.8628,149.8,97.7,0.492
2.86,32368.7,35738.3,1.6912,1.8189,149.8,97.7,0.492
2.88,32162.6,35614.2,0.7456,1.5133,149.8,97.7,0.492
2.9,32162.4,35260.3,0.7449,0.6414,149.8,97.7,0.492
2.92,32054.5,35240.9,0.2499,0.5937,149.8,97.7,0.492
2.94,32043.0,35193.8,0.1973,0.4778,149.8,97.7,0.492
2.96,31971.7,35104.6,-0.13,0.258,149.8,97.7,0.492
2.98,32052.1,34871.5,0.239,-0.3161,149.8,97.7,0.492
3.0,32009.0,34966.3,0.0412,-0.0826,149.8,97.7,0.492
3.02,31918.4,34837.3,-0.3741,-0.4003,149.8,97.7,0.492
3.04,31840.6,34664.9,-0.7311,-0.8251,149.8,97.7,0.492
3.06,31927.5,34599.3,-0.3325,-0.9867,149.8,97.7,0.492
3.08,31860.8,34659.2,-0.6385,-0.8391,149.8,97.7,0.492
3.1,31827.3,34618.2,-0.792,-0.9401,149.8,97.7,0.492
3.12,31822.6,34419.9,-0.8138,-1.4284,149.8,97.7,0.492
3.14,31767.3,34450.0,-1.067,-1.3544,149.8,97.7,0.492
3.16,31721.8,34534.9,-1.276,-1.1453,149.8,97.7,0.492
3.18,31844.6,34796.4,-0.7127,-0.5012,149.8,97.7,0.492
3.2,32065.6,35149.2,0.3009,0.368,149.8,97.7,0.492
3.22,32233.2,35528.9,1.0695,1.3031,149.8,97.7,0.492
3.24,32306.2,35687.0,1.4046,1.6927,149.8,97.7,0.492
3.26,32447.5,35765.4,2.0526,1.8857,149.8,97.7,0.492
3.28,32243.3,35659.9,1.116,1.6258,149.8,97.7,0.492
3.3,32225.4,35453.8,1.034,1.1182,149.8,97.7,0.492
3.32,32080.4,35197.1,0.3687,0.4858,149.8,97.7,0.492
3.34,32048.3,35100.6,0.2216,0.2482,149.8,97.7,0.492
3.36,32089.8,35005.7,0.4118,0.0144,149.8,97.7,0.492
3.38,32016.7,34942.8,0.0768,-0.1404,149.8,97.7,0.492
3.4,31936.1,34862.6,-0.293,-0.3381,149.8,97.7,0.492
3.42,31894.1,34765.2,-0.4857,-0.5779,149.8,97.7,0.492
3.44,31903.9,34743.4,-0.4409,-0.6315,149.8,97.7,0.492
3.46,31785.9,34709.5,-0.9819,-0.7152,149.8,97.7,0.492
3.48,31831.5,34643.2,-0.7728,-0.8784,149.8,97.7,0.492
3.5,31826.2,34676.0,-0.797,-0.7976,149.8,97.7,0.492
3.52,31677.8,34511.1,-1.4777,-1.2038,149.8,97.7,0.492
3.54,31672.7,34402.7,-1.501,-1.4707,149.8,97.7,0.492
3.56,31754.1,34500.2,-1.1277,-1.2308,149.8,97.7,0.492
3.58,31855.7,34774.3,-0.662,-0.5554,149.8,97.7,0.492
3.6,32013.8,35116.2,0.0634,0.2867,149.8,97.7,0.492
3.62,32252.7,35472.1,1.1591,1.1632,149.8,97.7,0.492
3.64,32360.0,35642.7,1.6509,1.5833,149.8,97.7,0.492
3.66,32285.7,35811.7,1.3101,1.9998,149.8,97.7,0.492
3.68,32214.2,35629.7,0.9825,1.5513,149.8,97.7,0.492
3.7,32152.1,35417.4,0.6977,1.0285,149.8,97.7,0.492
3.72,32107.0,35185.3,0.491,0.4568,149.8,97.7,0.492
3.74,32023.0,35118.0,0.1055,0.2911,149.8,97.7,0.492
3.76,31983.2,35057.3,-0.077,0.1414,149.8,97.7,0.492
3.78,32012.0,34988.6,0.0549,-0.0278,149.8,97.7,0.492
3.8,31961.4,34897.1,-0.1769,-0.253,149.8,97.7,0.492
3.82,31980.3,34757.8,-0.0901,-0.5961,149.8,97.7,0.492
3.84,31874.1,34687.8,-0.5772,-0.7687,149.8,97.7,0.492
3.86,31898.1,34699.5,-0.4673,-0.7397,149.8,97.7,0.492
3.88,31874.1,34667.6,-0.5774,-0.8184,149.8,97.7,0.492
3.9,31761.9,34649.9,-1.0921,-0.8618,149.8,97.7,0.492
3.92,31710.6,34463.5,-1.3273,-1.321,149.8,97.7,0.492
3.94,31808.9,34543.4,-0.8765,-1.1242,149.8,97.7,0.492
3.96,31731.1,34478.4,-1.2334,-1.2845,149.8,97.7,0.492
3.98,31871.4,34660.1,-0.5899,-0.8368,149.8,97.7,0.492
4.0,32013.1,35201.3,0.0603,0.4962,149.8,97.7,0.492
4.02,32195.3,35486.9,0.8955,1.1996,149.8,97.7,0.492
4.04,32353.6,35661.5,1.6218,1.6298,149.8,97.7,0.492
4.06,32376.2,35738.9,1.7255,1.8204,149.8,97.7,0.492
4.08,32246.9,35650.0,1.1322,1.6014,149.8,97.7,0.492
4.1,32181.5,35442.0,0.8325,1.0891,149.8,97.7,0.492
4.12,32033.1,35172.8,0.1519,0.426,149.8,97.7,0.492
4.14,32076.3,35172.8,0.3498,0.4261,149.8,97.7,0.492
4.16,32071.3,35045.1,0.327,0.1115,149.8,97.7,0.492
4.18,32004.5,34926.7,0.0207,-0.1801,149.8,97.7,0.492
4.2,31973.4,34978.7,-0.122,-0.052,149.8,97.7,0.492
4.22,31955.8,34780.9,-0.2027,-0.5392,149.8,97.7,0.492
4.24,31935.3,34619.8,-0.2966,-0.9361,149.8,97.7,0.492
4.26,31885.0,34633.7,-0.5272,-0.9018,149.8,97.7,0.492
4.28,31886.9,34701.7,-0.5185,-0.7342,149.8,97.7,0.492
4.3,31767.7,34603.5,-1.0653,-0.9762,149.8,97.7,0.492
4.32,31741.7,34537.9,-1.1846,-1.1379,149.8,97.7,0.492
4.34,31765.9,34483.3,-1.0737,-1.2722,149.8,97.7,0.492
4.36,31726.4,34489.3,-1.255,-1.2576,149.8,97.7,0.492
4.38,31928.0,34732.1,-0.33,-0.6595,149.8,97.7,0.492
4.4,32073.4,35150.7,0.3367,0.3715,149.8,97.7,0.492
4.42,32326.3,35454.2,1.4966,1.1192,149.8,97.7,0.492
4.44,32266.1,35741.6,1.2205,1.827,149.8,97.7,0.492
4.46,32360.4,35769.8,1.6527,1.8964,149.8,97.7,0.492
4.48,32289.5,35645.6,1.3277,1.5905,149.8,97.7,0.492
4.5,32207.2,35483.8,0.9504,1.1921,149.8,97.7,0.492
4.52,32082.6,35185.8,0.3789,0.4579,149.8,97.7,0.492
4.54,32107.7,35125.9,0.4942,0.3104,149.8,97.7,0.492
4.56,32037.7,35051.6,0.1728,0.1275,149.8,97.7,0.492
4.58,31987.2,35045.8,-0.0586,0.1132,149.8,97.7,0.492
4.6,32016.8,34963.1,0.0773,-0.0905,149.8,97.7,0.492
4.62,31899.6,34834.0,-0.4602,-0.4084,149.8,97.7,0.492
4.64,31775.0,34713.0,-1.0318,-0.7065,149.8,97.7,0.492
4.66,31874.0,34671.1,-0.5777,-0.8098,149.8,97.7,0.492
4.68,31823.8,34711.0,-0.808,-0.7114,149.8,97.7,0.492
4.7,31837.9,34631.6,-0.7432,-0.907,149.8,97.7,0.492
4.72,31741.8,34517.6,-1.1842,-1.1877,149.8,97.7,0.492
4.74,31813.9,34476.6,-0.8533,-1.2887,149.8,97.7,0.492
4.76,31742.9,34494.9,-1.1791,-1.2437,149.8,97.7,0.492
4.78,31797.9,34764.3,-0.9268,-0.5802,149.8,97.7,0.492
4.8,31928.7,35049.3,-0.3272,0.1219,149.8,97.7,0.492
4.82,32257.1,35432.7,1.1794,1.0661,149.8,97.7,0.492
4.84,32368.8,35708.0,1.6915,1.7442,149.8,97.7,0.492
4.86,32252.7,35682.6,1.1589,1.6817,149.8,97.7,0.492
4.88,32269.6,35708.2,1.2366,1.7447,149.8,97.7,0.492
4.9,32099.4,35389.3,0.4561,0.9593,149.8,97.7,0.492
4.92,32145.6,35164.6,0.6678,0.4058,149.8,97.7,0.492
4.94,32090.5,35122.1,0.4149,0.3011,149.8,97.7,0.492
4.96,32052.5,35045.9,0.2407,0.1136,149.8,97.7,0.492
4.98,31983.3,35078.9,-0.0766,0.1948,149.8,97.7,0.492
5.0,31945.8,34885.9,-0.2487,-0.2806,149.8,97.7,0.492
5.02,31871.2,34796.0,-0.5905,-0.5021,149.8,97.7,0.492
5.04,31829.0,34750.2,-0.7844,-0.6149,149.8,97.7,0.492
5.06,31829.9,34647.1,-0.7801,-0.8688,149.8,97.7,0.492
5.08,31960.1,34708.6,-0.1828,-0.7174,149.8,97.7,0.492
5.1,31818.7,34604.9,-0.8314,-0.9727,149.8,97.7,0.492
5.12,31791.9,34557.2,-0.9542,-1.0902,149.8,97.7,0.492
5.14,31795.4,34493.4,-0.9385,-1.2474,149.8,97.7,0.492
5.16,31841.2,34469.6,-0.7281,-1.306,149.8,97.7,0.492
5.18,31847.3,34870.2,-0.7002,-0.3192,149.8,97.7,0.492
5.2,32041.2,35066.1,0.1891,0.1631,149.8,97.7,0.492
5.22,32255.8,35517.4,1.1731,1.2749,149.8,97.7,0.492
5.24,32388.8,35649.0,1.7833,1.5989,149.8,97.7,0.492
5.26,32329.5,35692.1,1.5111,1.7052,149.8,97.7,0.492
5.28,32247.3,35632.7,1.1343,1.5588,149.8,97.7,0.492
5.3,32215.3,35356.0,0.9875,0.8772,149.8,97.7,0.492
5.32,32063.7,35156.4,0.2922,0.3857,149.8,97.7,0.492
5.34,31919.3,35202.4,-0.37,0.499,149.8,97.7,0.492
5.36,32084.5,35109.3,0.3876,0.2696,149.8,97.7,0.492
5.38,32039.0,35004.6,0.179,0.0118,149.8,97.7,0.492
5.4,31954.8,34855.0,-0.2073,-0.3567,149.8,97.7,0.492
5.42,31895.1,34778.2,-0.481,-0.5458,149.8,97.7,0.492
5.44,31796.3,34659.1,-0.9344,-0.8394,149.8,97.7,0.492
5.46,31872.8,34669.1,-0.5835,-0.8145,149.8,97.7,0.492
5.48,31804.1,34673.5,-0.8983,-0.8038,149.8,97.7,0.492
5.5,31860.9,34640.3,-0.6379,-0.8855,149.8,97.7,0.492
5.52,31778.2,34624.3,-1.0174,-0.9249,149.8,97.7,0.492
5.54,31679.1,34396.1,-1.4718,-1.487,149.8,97.7,0.492
5.56,31736.6,34494.5,-1.2081,-1.2447,149.8,97.7,0.492
5.58,31880.3,34736.1,-0.5489,-0.6497,149.8,97.7,0.492
5.6,31987.1,35066.0,-0.0591,0.163,149.8,97.7,0.492
5.62,32202.6,35430.3,0.9292,1.0603,149.8,97.7,0.492
5.64,32269.8,35613.7,1.2374,1.512,149.8,97.7,0.492
5.66,32394.2,35700.1,1.808,1.7249,149.8,97.7,0.492
5.68,32369.0,35654.1,1.6926,1.6114,149.8,97.7,0.492
5.7,32153.0,35383.2,0.7018,0.9444,149.8,97.7,0.492
5.72,32105.4,35166.6,0.4834,0.4107,149.8,97.7,0.492
5.74,32048.4,35134.8,0.2222,0.3325,149.8,97.7,0.492
5.76,31979.4,35064.7,-0.0947,0.1597,149.8,97.7,0.492
5.78,32004.7,34980.9,0.0218,-0.0466,149.8,97.7,0.492
5.8,31907.3,34900.3,-0.425,-0.2451,149.8,97.7,0.492
5.82,31920.7,34799.7,-0.3634,-0.493,149.8,97.7,0.492
5.84,31883.5,34696.0,-0.5341,-0.7485,149.8,97.7,0.492
5.86,31879.1,34683.7,-0.5547,-0.7786,149.8,97.7,0.492
5.88,31772.0,34693.6,-1.0456,-0.7542,149.8,97.7,0.492
5.9,31833.0,34627.5,-0.7658,-0.9172,149.8,97.7,0.492
5.92,31818.2,34407.3,-0.8338,-1.4595,149.8,97.7,0.492
5.94,31782.0,34516.3,-0.9997,-1.1911,149.8,97.7,0.492
5.96,31679.7,34486.6,-1.469,-1.2643,149.8,97.7,0.492
5.98,31830.7,34689.2,-0.7766,-0.7652,149.8,97.7,0.492
6.0,32052.7,35038.9,0.2419,0.0963,149.8,97.7,0.492
6.02,32125.6,35511.8,0.5762,1.2611,149.8,97.7,0.492
6.04,32373.9,35643.2,1.7148,1.5847,149.8,97.7,0.492
6.06,32380.5,35774.5,1.745,1.908,149.8,97.7,0.492
6.08,32228.0,35635.6,1.0455,1.566,149.8,97.7,0.492
6.1,32190.9,35388.2,0.8756,0.9566,149.8,97.7,0.492
6.12,32129.1,35128.9,0.5919,0.3179,149.8,97.7,0.492
6.14,32117.5,35141.9,0.5387,0.3499,149.8,97.7,0.492
6.16,32006.6,35103.2,0.0304,0.2546,149.8,97.7,0.492
6.18,31923.5,35015.7,-0.3506,0.039,149.8,97.7,0.492
6.2,31884.3,34982.0,-0.5307,-0.0439,149.8,97.7,0.492
6.22,32012.3,34852.6,0.0563,-0.3627,149.8,97.7,0.492
6.24,31921.3,34729.0,-0.361,-0.6672,149.8,97.7,0.492
6.26,31833.4,34721.6,-0.7639,-0.6852,149.8,97.7,0.492
6.28,31800.1,34655.9,-0.9167,-0.8472,149.8,97.7,0.492
6.3,31848.3,34607.3,-0.6959,-0.967,149.8,97.7,0.492
6.32,31743.3,34492.3,-1.1772,-1.2501,149.8,97.7,0.492
6.34,31691.4,34470.7,-1.4153,-1.3034,149.8,97.7,0.492
6.36,31717.2,34518.6,-1.2969,-1.1853,149.8,97.7,0.492
6.38,31986.7,34666.4,-0.0608,-0.8214,149.8,97.7,0.492
6.4,32047.0,35119.1,0.2154,0.2938,149.8,97.7,0.492
6.42,32196.2,35385.4,0.9,0.9498,149.8,97.7,0.492
6.44,32309.9,35600.8,1.4215,1.4803,149.8,97.7,0.492
6.46,32423.3,35815.6,1.9413,2.0094,149.8,97.7,0.492
6.48,32306.6,35600.8,1.4063,1.4803,149.8,97.7,0.492
6.5,32188.8,35411.6,0.8659,1.0142,149.8,97.7,0.492
6.52,32131.2,35289.4,0.6016,0.7133,149.8,97.7,0.492
6.54,32033.4,35103.3,0.1531,0.2549,149.8,97.7,0.492
6.56,32091.0,35133.0,0.4172,0.3279,149.8,97.7,0.492
6.58,32110.1,34987.1,0.5048,-0.0315,149.8,97.7,0.492
6.6,31915.0,35025.3,-0.3898,0.0628,149.8,97.7,0.492
6.62,31935.0,34750.8,-0.2981,-0.6135,149.8,97.7,0.492
6.64,31764.3,34668.2,-1.0811,-0.8168,149.8,97.7,0.492
6.66,31845.0,34688.4,-0.7111,-0.7672,149.8,97.7,0.492
6.68,31852.9,34640.3,-0.6747,-0.8857,149.8,97.7,0.492
6.7,31814.8,34641.2,-0.8493,-0.8835,149.8,97.7,0.492
6.72,31808.1,34461.6,-0.8799,-1.3256,149.8,97.7,0.492
6.74,31792.4,34485.7,-0.9523,-1.2664,149.8,97.7,0.492
6.76,31816.1,34512.1,-0.8434,-1.2013,149.8,97.7,0.492
6.78,31957.6,34712.8,-0.1943,-0.7069,149.8,97.7,0.492
6.8,32039.0,35055.0,0.179,0.1359,149.8,97.7,0.492
6.82,32140.9,35479.8,0.6463,1.1823,149.8,97.7,0.492
6.84,32355.8,35640.3,1.6319,1.5776,149.8,97.7,0.492
6.86,32357.7,35760.9,1.6404,1.8746,149.8,97.7,0.492
6.88,32278.1,35705.7,1.2756,1.7386,149.8,97.7,0.492
6.9,32203.5,35379.8,0.9332,0.9359,149.8,97.7,0.492
6.92,32030.6,35230.1,0.1404,0.5671,149.8,97.7,0.492
6.94,32034.0,35116.8,0.1559,0.2881,149.8,97.7,0.492
6.96,31953.4,35041.0,-0.2138,0.1013,149.8,97.7,0.492
6.98,32016.7,35086.7,0.0768,0.2139,149.8,97.7,0.492
7.0,31969.5,34958.0,-0.1399,-0.103,149.8,97.7,0.492
7.02,31890.7,34731.1,-0.5011,-0.662,149.8,97.7,0.492
7.04,31932.6,34718.5,-0.3089,-0.6929,149.8,97.7,0.492
7.06,31834.9,34719.9,-0.7572,-0.6896,149.8,97.7,0.492
7.08,31875.4,34732.2,-0.5716,-0.6592,149.8,97.7,0.492
7.1,31750.9,34551.7,-1.1425,-1.1038,149.8,97.7,0.492
7.12,31723.4,34511.2,-1.2688,-1.2036,149.8,97.7,0.492
7.14,31802.4,34371.8,-0.9063,-1.547,149.8,97.7,0.492
7.16,31692.0,34566.7,-1.4127,-1.0668,149.8,97.7,0.492
7.18,31811.7,34656.3,-0.8637,-0.8462,149.8,97.7,0.492
7.2,32077.5,35000.0,0.3556,0.0005,149.8,97.7,0.492
7.22,32165.5,35450.7,0.7591,1.1106,149.8,97.7,0.492
7.24,32311.1,35688.1,1.4266,1.6953,149.8,97.7,0.492
7.26,32380.9,35795.7,1.7468,1.9603,149.8,97.7,0.492
7.28,32269.2,35710.6,1.2348,1.7506,149.8,97.7,0.492
7.3,32154.4,35413.8,0.7083,1.0195,149.8,97.7,0.492
7.32,32138.7,35275.5,0.6362,0.679,149.8,97.7,0.492
7.34,32091.8,35083.7,0.421,0.2066,149.8,97.7,0.492
7.36,32014.0,35092.4,0.0643,0.228,149.8,97.7,0.492
7.38,32027.6,35085.0,0.1264,0.2097,149.8,97.7,0.492
7.4,31883.8,34909.5,-0.5327,-0.2226,149.8,97.7,0.492
7.42,31935.9,34697.1,-0.2938,-0.7457,149.8,97.7,0.492
7.44,31836.6,34723.6,-0.7494,-0.6805,149.8,97.7,0.492
7.46,31841.0,34677.4,-0.7293,-0.7943,149.8,97.7,0.492
7.48,31930.0,34700.1,-0.3212,-0.7384,149.8,97.7,0.492
7.5,31877.8,34661.2,-0.5602,-0.8342,149.8,97.7,0.492
7.52,31737.1,34554.7,-1.2058,-1.0964,149.8,97.7,0.492
7.54,31716.4,34423.8,-1.3009,-1.4189,149.8,97.7,0.492
7.56,31812.3,34536.3,-0.8607,-1.1418,149.8,97.7,0.492
7.58,31859.3,34619.4,-0.6451,-0.937,149.8,97.7,0.492
7.6,32075.1,35045.3,0.3445,0.1119,149.8,97.7,0.492
7.62,32205.0,35372.9,0.9401,0.919,149.8,97.7,0.492
7.64,32370.1,35626.8,1.6976,1.5442,149.8,97.7,0.492
7.66,32291.5,35699.3,1.3371,1.7228,149.8,97.7,0.492
7.68,32345.5,35693.7,1.5847,1.7091,149.8,97.7,0.492
7.7,32124.9,35420.2,0.5727,1.0355,149.8,97.7,0.492
7.72,32100.3,35273.6,0.4599,0.6743,149.8,97.7,0.492
7.74,32139.1,35079.8,0.6381,0.197,149.8,97.7,0.492
7.76,32059.1,35089.3,0.271,0.2204,149.8,97.7,0.492
7.78,31958.3,35032.3,-0.1912,0.0799,149.8,97.7,0.492
7.8,32015.2,34905.0,0.0698,-0.2335,149.8,97.7,0.492
7.82,31879.7,34769.1,-0.5519,-0.5683,149.8,97.7,0.492
7.84,31838.3,34739.2,-0.7416,-0.642,149.8,97.7,0.492
7.86,31817.1,34724.6,-0.839,-0.6779,149.8,97.7,0.492
7.88,31805.1,34612.0,-0.8936,-0.9553,149.8,97.7,0.492
7.9,31871.9,34646.1,-0.5875,-0.8713,149.8,97.7,0.492
7.92,31757.5,34513.6,-1.1122,-1.1976,149.8,97.7,0.492
7.94,31780.7,34402.4,-1.0057,-1.4716,149.8,97.7,0.492
7.96,31668.1,34491.8,-1.5222,-1.2513,149.8,97.7,0.492
7.98,31817.6,34652.1,-0.8364,-0.8566,149.8,97.7,0.492
8.0,31977.2,34991.0,-0.1046,-0.0219,149.8,97.7,0.492
8.02,32198.0,35430.7,0.908,1.0613,149.8,97.7,0.492
8.04,32201.4,35775.4,0.9239,1.9102,149.8,97.7,0.492
8.06,32289.6,35738.1,1.3284,1.8184,149.8,97.7,0.492
8.08,32236.9,35596.1,1.0866,1.4686,149.8,97.7,0.492
8.1,32244.7,35528.0,1.1221,1.3009,149.8,97.7,0.492
8.12,32160.3,35254.8,0.7354,0.628,149.8,97.7,0.492
8.14,32068.0,35014.7,0.3117,0.0367,149.8,97.7,0.492
8.16,31967.7,35055.6,-0.1483,0.1373,149.8,97.7,0.492
8.18,31993.5,34994.3,-0.0298,-0.0136,149.8,97.7,0.492
8.2,31967.0,34923.1,-0.1514,-0.189,149.8,97.7,0.492
8.22,31866.6,34801.2,-0.6116,-0.4892,149.8,97.7,0.492
8.24,31819.8,34812.8,-0.8264,-0.4606,149.8,97.7,0.492
8.26,31891.9,34705.7,-0.4959,-0.7246,149.8,97.7,0.492
8.28,31933.5,34578.0,-0.305,-1.0391,149.8,97.7,0.492
8.3,31886.3,34635.8,-0.5214,-0.8967,149.8,97.7,0.492
8.32,31898.8,34585.8,-0.4642,-1.0197,149.8,97.7,0.492
8.34,31811.4,34477.7,-0.8649,-1.286,149.8,97.7,0.492
8.36,31826.5,34524.1,-0.7957,-1.1719,149.8,97.7,0.492
8.38,31930.2,34680.2,-0.3201,-0.7872,149.8,97.7,0.492
8.4,32022.6,35035.8,0.1036,0.0886,149.8,97.7,0.492
8.42,32046.4,35409.7,0.2128,1.0096,149.8,97.7,0.492
8.44,32393.1,35685.7,1.8029,1.6893,149.8,97.7,0.492
8.46,32355.8,35838.3,1.632,2.0653,149.8,97.7,0.492
8.48,32203.4,35637.5,0.9331,1.5706,149.8,97.7,0.492
8.5,32147.5,35515.7,0.6766,1.2706,149.8,97.7,0.492
8.52,32069.3,35287.6,0.3177,0.7087,149.8,97.7,0.492
8.54,32017.3,35170.0,0.0794,0.4192,149.8,97.7,0.492
8.56,32052.4,35178.5,0.2404,0.44,149.8,97.7,0.492
8.58,31998.8,35146.1,-0.0055,0.3602,149.8,97.7,0.492
8.6,31943.8,35008.5,-0.2579,0.0214,149.8,97.7,0.492
8.62,31943.8,34762.6,-0.2577,-0.5843,149.8,97.7,0.492
8.64,31852.1,34768.7,-0.6783,-0.5692,149.8,97.7,0.492
8.66,31886.2,34783.8,-0.5219,-0.5322,149.8,97.7,0.492
8.68,31888.7,34619.9,-0.5104,-0.9359,149.8,97.7,0.492
8.7,31813.9,34595.3,-0.8537,-0.9965,149.8,97.7,0.492
8.72,31817.4,34556.5,-0.8375,-1.092,149.8,97.7,0.492
8.74,31789.6,34518.5,-0.9651,-1.1856,149.8,97.7,0.492
8.76,31860.1,34473.4,-0.6414,-1.2968,149.8,97.7,0.492
8.78,31858.1,34735.4,-0.6506,-0.6514,149.8,97.7,0.492
8.8,31951.1,34985.1,-0.2241,-0.0363,149.8,97.7,0.492
8.82,32249.4,35293.9,1.144,0.7243,149.8,97.7,0.492
8.84,32262.1,35675.3,1.2021,1.6637,149.8,97.7,0.492
8.86,32274.9,35766.1,1.2609,1.8874,149.8,97.7,0.492
8.88,32223.2,35582.4,1.0236,1.4348,149.8,97.7,0.492
8.9,32284.2,35403.5,1.3035,0.9942,149.8,97.7,0.492
8.92,32145.6,35275.8,0.668,0.6798,149.8,97.7,0.492
8.94,32115.2,35164.8,0.5283,0.4063,149.8,97.7,0.492
8.96,32126.9,34972.1,0.5822,-0.0682,149.8,97.7,0.492
8.98,32054.9,35104.2,0.2519,0.257,149.8,97.7,0.492
9.0,32045.0,34918.8,0.2065,-0.1996,149.8,97.7,0.492
9.02,31912.2,34775.5,-0.4027,-0.5526,149.8,97.7,0.492
9.04,31880.1,34589.3,-0.5497,-1.0113,149.8,97.7,0.492
9.06,31859.0,34739.3,-0.6467,-0.6418,149.8,97.7,0.492
9.08,31889.8,34710.8,-0.5052,-0.7119,149.8,97.7,0.492
9.1,31865.9,34617.5,-0.6148,-0.9417,149.8,97.7,0.492
9.12,31732.3,34676.1,-1.2278,-0.7974,149.8,97.7,0.492
9.14,31763.5,34447.7,-1.0845,-1.3601,149.8,97.7,0.492
9.16,31763.2,34412.4,-1.0858,-1.447,149.8,97.7,0.492
9.18,31968.6,34660.2,-0.1438,-0.8365,149.8,97.7,0.492
9.2,32007.9,34994.7,0.036,-0.0127,149.8,97.7,0.492
9.22,32129.6,35354.5,0.5946,0.8735,149.8,97.7,0.492
9.24,32301.2,35686.8,1.3813,1.692,149.8,97.7,0.492
9.26,32286.4,35653.1,1.3134,1.6092,149.8,97.7,0.492
9.28,32285.0,35676.4,1.3069,1.6663,149.8,97.7,0.492
9.3,32205.7,35409.2,0.9434,1.0083,149.8,97.7,0.492
9.32,32140.7,35137.7,0.6454,0.3397,149.8,97.7,0.492
9.34,32108.3,35188.9,0.4968,0.4657,149.8,97.7,0.492
9.36,32046.2,35110.7,0.2117,0.273,149.8,97.7,0.492
9.38,32034.5,34949.9,0.1583,-0.123,149.8,97.7,0.492
9.4,31930.3,34912.8,-0.3199,-0.2143,149.8,97.7,0.492
9.42,31944.0,34816.1,-0.2567,-0.4525,149.8,97.7,0.492
9.44,31894.8,34767.7,-0.4827,-0.5718,149.8,97.7,0.492
9.46,31897.6,34650.1,-0.4694,-0.8615,149.8,97.7,0.492
9.48,31881.1,34654.7,-0.5451,-0.8502,149.8,97.7,0.492
9.5,31814.0,34562.3,-0.853,-1.0777,149.8,97.7,0.492
9.52,31805.8,34678.1,-0.8906,-0.7926,149.8,97.7,0.492
9.54,31823.3,34410.0,-0.8104,-1.4528,149.8,97.7,0.492
9.56,31739.0,34550.6,-1.1968,-1.1066,149.8,97.7,0.492
9.58,31806.9,34699.2,-0.8854,-0.7405,149.8,97.7,0.492
9.6,31993.4,34983.0,-0.0303,-0.0415,149.8,97.7,0.492
9.62,32163.3,35352.7,0.749,0.869,149.8,97.7,0.492
9.64,32282.7,35686.1,1.2964,1.6903,149.8,97.7,0.492
9.66,32274.6,35756.6,1.2592,1.864,149.8,97.7,0.492
9.68,32296.3,35634.9,1.3589,1.5641,149.8,97.7,0.492
9.7,32199.6,35521.0,0.9157,1.2838,149.8,97.7,0.492
9.72,32129.6,35302.1,0.5943,0.7445,149.8,97.7,0.492
9.74,32187.3,35171.1,0.859,0.4218,149.8,97.7,0.492
9.76,31975.6,35158.6,-0.112,0.391,149.8,97.7,0.492
9.78,31994.9,35023.7,-0.0232,0.0588,149.8,97.7,0.492
9.8,32004.4,34975.5,0.02,-0.06,149.8,97.7,0.492
9.82,31975.0,34816.8,-0.1146,-0.4508,149.8,97.7,0.492
9.84,31958.8,34717.6,-0.1891,-0.6953,149.8,97.7,0.492
9.86,31849.1,34629.7,-0.6919,-0.9116,149.8,97.7,0.492
9.88,31814.4,34659.2,-0.8512,-0.839,149.8,97.7,0.492
9.9,31920.9,34580.3,-0.363,-1.0334,149.8,97.7,0.492
9.92,31855.8,34574.5,-0.6613,-1.0477,149.8,97.7,0.492
9.94,31922.4,34494.5,-0.3557,-1.2446,149.8,97.7,0.492
9.96,31748.9,34426.6,-1.1514,-1.412,149.8,97.7,0.492
9.98,31832.0,34616.5,-0.7706,-0.9443,149.8,97.7,0.492
10.0,31959.3,34949.2,-0.1864,-0.1248,149.8,97.7,0.492
10.02,32144.6,35335.6,0.6634,0.827,149.8,97.7,0.492
10.04,32352.7,35614.8,1.6176,1.5146,149.8,97.7,0.492
10.06,32273.0,35770.7,1.2521,1.8987,149.8,97.7,0.492
10.08,32223.4,35620.0,1.0244,1.5275,149.8,97.7,0.492
10.1,32206.1,35478.4,0.9455,1.1787,149.8,97.7,0.492
10.12,32148.4,35284.5,0.6807,0.7011,149.8,97.7,0.492
10.14,31998.2,35090.7,-0.0083,0.2238,149.8,97.7,0.492
10.16,31935.5,35085.6,-0.2959,0.2113,149.8,97.7,0.492
10.18,31941.9,35017.2,-0.2663,0.0429,149.8,97.7,0.492
10.2,31950.0,34940.1,-0.2291,-0.1472,149.8,97.7,0.492
10.22,31851.6,34774.0,-0.6805,-0.5563,149.8,97.7,0.492
10.24,31832.3,34701.5,-0.769,-0.7349,149.8,97.7,0.492
10.26,31890.4,34617.5,-0.5028,-0.9418,149.8,97.7,0.492
10.28,31825.6,34613.8,-0.8,-0.9509,149.8,97.7,0.492
10.3,31813.4,34548.9,-0.8559,-1.1108,149.8,97.7,0.492
10.32,31781.7,34546.5,-1.001,-1.1167,149.8,97.7,0.492
10.34,31728.8,34497.5,-1.2437,-1.2374,149.8,97.7,0.492
10.36,31689.3,34527.6,-1.4249,-1.1632,149.8,97.7,0.492
10.38,31780.2,34677.8,-1.008,-0.7932,149.8,97.7,0.492
10.4,31967.2,34950.1,-0.1503,-0.1225,149.8,97.7,0.492
10.42,32129.2,35376.5,0.5925,0.9278,149.8,97.7,0.492
10.44,32371.9,35569.3,1.7055,1.4027,149.8,97.7,0.492
10.46,32298.7,35774.4,1.37,1.9077,149.8,97.7,0.492
10.48,32348.6,35649.1,1.599,1.5991,149.8,97.7,0.492
10.5,32215.3,35476.5,0.9876,1.174,149.8,97.7,0.492
10.52,32121.2,35232.5,0.5557,0.573,149.8,97.7,0.492
10.54,32094.0,35144.1,0.4311,0.3552,149.8,97.7,0.492
10.56,32077.4,35069.9,0.3549,0.1726,149.8,97.7,0.492
10.58,31972.6,35060.8,-0.1255,0.1502,149.8,97.7,0.492
10.6,31993.0,35077.4,-0.032,0.191,149.8,97.7,0.492
10.62,31885.7,34794.8,-0.524,-0.505,149.8,97.7,0.492
10.64,31913.6,34777.1,-0.3962,-0.5487,149.8,97.7,0.492
10.66,31866.5,34662.8,-0.612,-0.8302,149.8,97.7,0.492
10.68,31805.5,34682.5,-0.8922,-0.7815,149.8,97.7,0.492
10.7,31805.1,34605.7,-0.8941,-0.9708,149.8,97.7,0.492
10.72,31709.5,34526.9,-1.3323,-1.1649,149.8,97.7,0.492
10.74,31712.3,34592.0,-1.3194,-1.0046,149.8,97.7,0.492
10.76,31756.4,34426.7,-1.1173,-1.4117,149.8,97.7,0.492
10.78,31783.5,34594.4,-0.9927,-0.9987,149.8,97.7,0.492
10.8,31949.5,34957.3,-0.2316,-0.1048,149.8,97.7,0.492
10.82,32064.4,35363.0,0.2954,0.8946,149.8,97.7,0.492
10.84,32252.6,35633.3,1.1586,1.5603,149.8,97.7,0.492
10.86,32279.2,35775.8,1.2807,1.9112,149.8,97.7,0.492
10.88,32387.6,35604.5,1.7775,1.4893,149.8,97.7,0.492
10.9,32153.7,35476.7,0.705,1.1746,149.8,97.7,0.492
10.92,32179.3,35345.4,0.8225,0.851,149.8,97.7,0.492
10.94,32160.6,35118.4,0.7368,0.292,149.8,97.7,0.492
10.96,32009.0,35072.9,0.0412,0.1801,149.8,97.7,0.492
10.98,32019.3,35024.0,0.0887,0.0596,149.8,97.7,0.492
11.0,31938.3,34962.2,-0.2828,-0.0927,149.8,97.7,0.492
11.02,31820.6,34843.0,-0.8228,-0.3864,149.8,97.7,0.492
11.04,31850.0,34751.6,-0.6881,-0.6115,149.8,97.7,0.492
11.06,31843.7,34593.4,-0.7167,-1.0011,149.8,97.7,0.492
11.08,31806.7,34666.8,-0.8866,-0.8204,149.8,97.7,0.492
11.1,31828.9,34703.4,-0.7845,-0.7302,149.8,97.7,0.492
11.12,31834.0,34583.5,-0.7614,-1.0255,149.8,97.7,0.492
11.14,31845.9,34552.5,-0.7066,-1.1018,149.8,97.7,0.492
11.16,31840.2,34460.4,-0.7331,-1.3286,149.8,97.7,0.492
11.18,31820.7,34634.8,-0.8225,-0.8992,149.8,97.7,0.492
11.2,31940.3,34944.1,-0.2738,-0.1373,149.8,97.7,0.492
11.22,32213.3,35424.8,0.9781,1.0468,149.8,97.7,0.492
11.24,32247.1,35621.7,1.1332,1.5317,149.8,97.7,0.492
11.26,32265.9,35783.8,1.2195,1.931,149.8,97.7,0.492
11.28,32180.2,35648.0,0.8265,1.5964,149.8,97.7,0.492
11.3,32256.5,35512.4,1.1763,1.2626,149.8,97.7,0.492
11.32,32238.6,35330.5,1.0941,0.8143,149.8,97.7,0.492
11.34,32140.3,35192.1,0.6433,0.4736,149.8,97.7,0.492
11.36,32115.9,35072.0,0.5318,0.1777,149.8,97.7,0.492
11.38,32012.5,35032.5,0.0572,0.0804,149.8,97.7,0.492
11.4,32028.8,34924.9,0.1319,-0.1847,149.8,97.7,0.492
11.42,31932.4,34788.8,-0.3102,-0.5199,149.8,97.7,0.492
11.44,31885.6,34689.1,-0.5246,-0.7653,149.8,97.7,0.492
11.46,31927.8,34663.9,-0.3311,-0.8274,149.8,97.7,0.492
11.48,31816.0,34771.7,-0.8438,-0.5618,149.8,97.7,0.492
11.5,31791.9,34617.0,-0.9543,-0.943,149.8,97.7,0.492
11.52,31869.8,34532.0,-0.5972,-1.1523,149.8,97.7,0.492
11.54,31853.0,34560.6,-0.6741,-1.0818,149.8,97.7,0.492
11.56,31756.8,34442.6,-1.1153,-1.3726,149.8,97.7,0.492
11.58,31892.2,34627.1,-0.4942,-0.918,149.8,97.7,0.492
11.6,31968.7,34943.8,-0.1436,-0.1381,149.8,97.7,0.492
11.62,32158.2,35253.3,0.7254,0.6243,149.8,97.7,0.492
11.64,32431.7,35740.8,1.9799,1.8251,149.8,97.7,0.492
11.66,32374.6,35741.5,1.7181,1.8269,149.8,97.7,0.492
11.68,32297.2,35700.5,1.3632,1.7257,149.8,97.7,0.492
11.7,32296.1,35554.2,1.3582,1.3654,149.8,97.7,0.492
11.72,32092.6,35305.2,0.4247,0.7522,149.8,97.7,0.492
11.74,32058.8,35165.6,0.2699,0.4084,149.8,97.7,0.492
11.76,32148.4,35180.5,0.6809,0.4449,149.8,97.7,0.492
11.78,32074.9,35029.3,0.3436,0.0727,149.8,97.7,0.492
11.8,31918.4,34942.9,-0.374,-0.1402,149.8,97.7,0.492
11.82,31896.0,34860.2,-0.4769,-0.3441,149.8,97.7,0.492
11.84,31831.0,34713.4,-0.7751,-0.7055,149.8,97.7,0.492
11.86,31863.2,34603.1,-0.6272,-0.9772,149.8,97.7,0.492
11.88,31801.8,34735.5,-0.9088,-0.6511,149.8,97.7,0.492
11.9,31840.8,34717.7,-0.7301,-0.695,149.8,97.7,0.492
11.92,31805.3,34492.7,-0.893,-1.249,149.8,97.7,0.492
11.94,31694.3,34469.3,-1.4022,-1.3067,149.8,97.7,0.492
11.96,31757.0,34515.9,-1.1142,-1.1921,149.8,97.7,0.492
11.98,31857.9,34549.1,-0.6516,-1.1103,149.8,97.7,0.492
12.0,31984.1,34912.2,-0.0731,-0.2158,149.8,97.7,0.492
12.02,32108.4,35249.8,0.4971,0.6156,149.8,97.7,0.492
12.04,32343.6,35611.4,1.576,1.5064,149.8,97.7,0.492
12.06,32379.0,35789.7,1.7381,1.9455,149.8,97.7,0.492
12.08,32262.0,35678.0,1.2016,1.6705,149.8,97.7,0.492
12.1,32273.0,35586.4,1.2521,1.4448,149.8,97.7,0.492
12.12,32160.8,35297.3,0.7373,0.7328,149.8,97.7,0.492
12.14,32115.7,35135.9,0.5308,0.3352,149.8,97.7,0.492
12.16,31968.6,35123.6,-0.1442,0.3048,149.8,97.7,0.492
12.18,32067.8,35042.2,0.3112,0.1044,149.8,97.7,0.492
12.2,31986.0,34894.2,-0.0643,-0.2601,149.8,97.7,0.492
12.22,31989.3,34721.7,-0.0491,-0.6851,149.8,97.7,0.492
12.24,31949.8,34796.9,-0.2301,-0.5,149.8,97.7,0.492
12.26,31819.2,34621.7,-0.8292,-0.9313,149.8,97.7,0.492
12.28,31769.5,34654.2,-1.057,-0.8514,149.8,97.7,0.492
12.3,31949.3,34623.2,-0.2323,-0.9278,149.8,97.7,0.492
12.32,31789.1,34474.7,-0.9673,-1.2935,149.8,97.7,0.492
12.34,31760.0,34478.4,-1.1007,-1.2844,149.8,97.7,0.492
12.36,31766.7,34446.6,-1.0702,-1.3628,149.8,97.7,0.492
12.38,31828.6,34588.4,-0.7862,-1.0135,149.8,97.7,0.492
12.4,31953.6,34772.8,-0.2126,-0.5591,149.8,97.7,0.492
12.42,32212.1,35467.5,0.9729,1.1519,149.8,97.7,0.492
12.44,32264.4,35645.4,1.2127,1.5901,149.8,97.7,0.492
12.46,32254.4,35805.2,1.1668,1.9838,149.8,97.7,0.492
12.48,32311.3,35661.3,1.4279,1.6292,149.8,97.7,0.492
12.5,32300.5,35381.8,1.3782,0.9409,149.8,97.7,0.492
12.52,32173.4,35293.8,0.7954,0.7242,149.8,97.7,0.492
12.54,32113.5,35221.4,0.5204,0.5458,149.8,97.7,0.492
12.56,31922.0,35183.5,-0.3579,0.4524,149.8,97.7,0.492
12.58,31946.7,35034.1,-0.2446,0.0844,149.8,97.7,0.492
12.6,32072.4,35009.5,0.3321,0.0238,149.8,97.7,0.492
12.62,31995.1,34771.2,-0.0222,-0.5632,149.8,97.7,0.492
12.64,31921.4,34639.6,-0.3604,-0.8874,149.8,97.7,0.492
12.66,31940.2,34641.7,-0.2741,-0.882,149.8,97.7,0.492
12.68,31780.7,34679.0,-1.0058,-0.7903,149.8,97.7,0.492
12.7,31799.5,34610.0,-0.9195,-0.9603,149.8,97.7,0.492
12.72,31800.5,34625.5,-0.9148,-0.9221,149.8,97.7,0.492
12.74,31685.0,34433.6,-1.4446,-1.3948,149.8,97.7,0.492
12.76,31754.6,34419.0,-1.1254,-1.4307,149.8,97.7,0.492
12.78,31812.2,34535.0,-0.8613,-1.145,149.8,97.7,0.492
12.8,31925.4,34941.8,-0.3422,-0.1429,149.8,97.7,0.492
12.82,32116.7,35358.8,0.5352,0.8842,149.8,97.7,0.492
12.84,32315.8,35616.0,1.4482,1.5176,149.8,97.7,0.492
12.86,32302.7,35730.9,1.3885,1.8008,149.8,97.7,0.492
12.88,32328.3,35609.8,1.5058,1.5024,149.8,97.7,0.492
12.9,32237.5,35494.5,1.0891,1.2184,149.8,97.7,0.492
12.92,32178.7,35287.9,0.8196,0.7096,149.8,97.7,0.492
12.94,32017.0,35127.7,0.0778,0.315,149.8,97.7,0.492
12.96,32130.7,35152.5,0.5994,0.376,149.8,97.7,0.492
12.98,32110.5,35045.3,0.5068,0.1119,149.8,97.7,0.492
13.0,31972.4,34901.6,-0.1266,-0.2419,149.8,97.7,0.492
13.02,31982.1,34883.8,-0.0821,-0.2857,149.8,97.7,0.492
13.04,31861.1,34674.0,-0.6372,-0.8026,149.8,97.7,0.492
13.06,31863.9,34633.3,-0.6242,-0.9027,149.8,97.7,0.492
13.08,31828.3,34626.1,-0.7875,-0.9206,149.8,97.7,0.492
13.1,31885.8,34652.5,-0.5236,-0.8554,149.8,97.7,0.492
13.12,31757.2,34483.5,-1.1137,-1.2717,149.8,97.7,0.492
13.14,31734.2,34520.4,-1.219,-1.181,149.8,97.7,0.492
13.16,31759.8,34466.9,-1.1018,-1.3127,149.8,97.7,0.492
13.18,31831.5,34615.7,-0.7728,-0.9462,149.8,97.7,0.492
13.2,31978.4,34927.1,-0.0991,-0.1791,149.8,97.7,0.492
13.22,32085.8,35300.9,0.3936,0.7415,149.8,97.7,0.492
13.24,32341.0,35568.1,1.5639,1.3997,149.8,97.7,0.492
13.26,32228.8,35762.2,1.0492,1.8778,149.8,97.7,0.492
13.28,32331.8,35625.0,1.5216,1.5398,149.8,97.7,0.492
13.3,32184.5,35579.0,0.8463,1.4265,149.8,97.7,0.492
13.32,32190.7,35309.3,0.8746,0.7622,149.8,97.7,0.492
13.34,32117.7,35117.3,0.5399,0.2894,149.8,97.7,0.492
13.36,31996.1,35078.9,-0.0178,0.1947,149.8,97.7,0.492
13.38,32100.9,35041.7,0.4626,0.103,149.8,97.7,0.492
13.4,31984.3,35001.6,-0.0718,0.0043,149.8,97.7,0.492
13.42,31954.4,34866.0,-0.2093,-0.3296,149.8,97.7,0.492
13.44,31954.9,34750.1,-0.2068,-0.6151,149.8,97.7,0.492
13.46,31807.0,34712.5,-0.885,-0.7078,149.8,97.7,0.492
13.48,31854.1,34565.1,-0.6689,-1.0708,149.8,97.7,0.492
13.5,31893.1,34653.9,-0.4903,-0.8521,149.8,97.7,0.492
13.52,31818.3,34574.5,-0.8335,-1.0478,149.8,97.7,0.492
13.54,31744.4,34476.3,-1.1723,-1.2894,149.8,97.7,0.492
13.56,31735.0,34382.7,-1.2155,-1.5201,149.8,97.7,0.492
13.58,31840.9,34508.1,-0.7295,-1.2112,149.8,97.7,0.492
13.6,31912.4,35003.2,-0.4017,0.0082,149.8,97.7,0.492
13.62,32195.4,35332.0,0.8961,0.8181,149.8,97.7,0.492
13.64,32289.2,35688.8,1.3262,1.697,149.8,97.7,0.492
13.66,32317.1,35750.7,1.4543,1.8493,149.8,97.7,0.492
13.68,32238.5,35613.3,1.0938,1.5111,149.8,97.7,0.492
13.7,32213.7,35471.9,0.98,1.1627,149.8,97.7,0.492
13.72,32136.1,35317.6,0.6242,0.7828,149.8,97.7,0.492
13.74,32145.0,35203.9,0.6649,0.5027,149.8,97.7,0.492
13.76,32102.0,35035.6,0.4679,0.088,149.8,97.7,0.492
13.78,32058.2,35015.9,0.267,0.0397,149.8,97.7,0.492
13.8,32000.8,35002.6,0.0037,0.0067,149.8,97.7,0.492
13.82,31821.2,34912.8,-0.8202,-0.2144,149.8,97.7,0.492
13.84,31848.9,34754.4,-0.6931,-0.6045,149.8,97.7,0.492
13.86,31885.1,34644.6,-0.5271,-0.8749,149.8,97.7,0.492
13.88,31840.4,34721.7,-0.732,-0.685,149.8,97.7,0.492
13.9,31830.4,34564.9,-0.7779,-1.0713,149.8,97.7,0.492
13.92,31908.5,34519.1,-0.4198,-1.1842,149.8,97.7,0.492
13.94,31810.1,34435.2,-0.8708,-1.3908,149.8,97.7,0.492
13.96,31753.6,34433.3,-1.1301,-1.3955,149.8,97.7,0.492
13.98,31870.2,34615.6,-0.5953,-0.9465,149.8,97.7,0.492
14.0,31935.1,34936.3,-0.2978,-0.1564,149.8,97.7,0.492
14.02,32077.8,35261.5,0.357,0.6446,149.8,97.7,0.492
14.04,32256.1,35619.3,1.1744,1.5258,149.8,97.7,0.492
14.06,32320.8,35869.0,1.4712,2.1409,149.8,97.7,0.492
14.08,32349.9,35755.2,1.6049,1.8604,149.8,97.7,0.492
14.1,32225.4,35462.5,1.0338,1.1396,149.8,97.7,0.492
14.12,32214.9,35338.5,0.9855,0.8342,149.8,97.7,0.492
14.14,32142.9,35180.3,0.6556,0.4444,149.8,97.7,0.492
14.16,32076.9,35081.3,0.3528,0.2006,149.8,97.7,0.492
14.18,31954.8,35063.4,-0.2073,0.1565,149.8,97.7,0.492
14.2,31959.4,34977.3,-0.186,-0.0556,149.8,97.7,0.492
14.22,31980.5,34756.7,-0.0894,-0.5988,149.8,97.7,0.492
14.24,31917.3,34748.6,-0.3792,-0.6189,149.8,97.7,0.492
14.26,31807.6,34717.5,-0.8822,-0.6955,149.8,97.7,0.492
14.28,31833.3,34730.6,-0.7645,-0.6632,149.8,97.7,0.492
14.3,31926.9,34633.0,-0.3352,-0.9035,149.8,97.7,0.492
14.32,31768.5,34551.9,-1.0618,-1.1032,149.8,97.7,0.492
14.34,31807.1,34484.3,-0.8848,-1.2698,149.8,97.7,0.492
14.36,31761.8,34311.2,-1.0926,-1.6963,149.8,97.7,0.492
14.38,31891.9,34592.8,-0.4957,-1.0025,149.8,97.7,0.492
14.4,31953.3,34995.7,-0.2141,-0.0103,149.8,97.7,0.492
14.42,32196.2,35274.2,0.8998,0.6759,149.8,97.7,0.492
14.44,32288.9,35638.2,1.3249,1.5723,149.8,97.7,0.492
14.46,32306.1,35576.4,1.4038,1.4201,149.8,97.7,0.492
14.48,32348.2,35561.7,1.5972,1.3838,149.8,97.7,0.492
14.5,32262.4,35529.1,1.2033,1.3037,149.8,97.7,0.492
14.52,32169.7,35294.5,0.7784,0.7259,149.8,97.7,0.492
14.54,32062.7,35180.3,0.2876,0.4444,149.8,97.7,0.492
14.56,32067.1,35137.0,0.3078,0.3378,149.8,97.7,0.492
14.58,31922.9,35147.0,-0.3537,0.3626,149.8,97.7,0.492
14.6,32156.0,34964.3,0.7155,-0.0875,149.8,97.7,0.492
14.62,31992.8,34842.8,-0.033,-0.3868,149.8,97.7,0.492
14.64,31947.0,34862.5,-0.2432,-0.3382,149.8,97.7,0.492
14.66,31794.5,34585.6,-0.9427,-1.0202,149.8,97.7,0.492
14.68,31880.2,34624.9,-0.5495,-0.9235,149.8,97.7,0.492
14.7,31827.0,34606.8,-0.7936,-0.9681,149.8,97.7,0.492
14.72,31802.1,34598.7,-0.9075,-0.988,149.8,97.7,0.492
14.74,31738.7,34581.4,-1.1986,-1.0307,149.8,97.7,0.492
14.76,31741.5,34398.6,-1.1856,-1.4809,149.8,97.7,0.492
14.78,31846.8,34543.8,-0.7025,-1.1232,149.8,97.7,0.492
14.8,31960.2,34855.3,-0.1827,-0.3561,149.8,97.7,0.492
14.82,32090.4,35116.6,0.4148,0.2876,149.8,97.7,0.492
14.84,32311.0,35628.9,1.4262,1.5495,149.8,97.7,0.492
14.86,32238.9,35700.2,1.0958,1.7251,149.8,97.7,0.492
14.88,32214.2,35610.9,0.9825,1.5051,149.8,97.7,0.492
14.9,32262.6,35544.1,1.2045,1.3407,149.8,97.7,0.492
14.92,32114.4,35244.1,0.5247,0.6016,149.8,97.7,0.492
14.94,32114.7,35175.2,0.5262,0.432,149.8,97.7,0.492
14.96,32129.5,35058.3,0.594,0.1441,149.8,97.7,0.492
14.98,32128.3,34984.2,0.5885,-0.0385,149.8,97.7,0.492
15.0,32000.8,34924.9,0.0038,-0.1846,149.8,97.7,0.492
15.02,31919.6,34750.8,-0.3688,-0.6134,149.8,97.7,0.492
15.04,31743.5,34789.6,-1.1764,-0.5178,149.8,97.7,0.492
15.06,31839.2,34658.8,-0.7375,-0.8399,149.8,97.7,0.492
15.08,31832.3,34667.4,-0.769,-0.8189,149.8,97.7,0.492
15.1,31864.1,34635.6,-0.6232,-0.8972,149.8,97.7,0.492
15.12,31776.1,34662.9,-1.0269,-0.8299,149.8,97.7,0.492
15.14,31783.9,34542.1,-0.991,-1.1275,149.8,97.7,0.492
15.16,31864.2,34420.3,-0.6228,-1.4274,149.8,97.7,0.492
15.18,31826.0,34475.6,-0.7981,-1.2911,149.8,97.7,0.492
15.2,31916.0,34830.4,-0.385,-0.4174,149.8,97.7,0.492
15.22,32098.6,35256.8,0.4522,0.6328,149.8,97.7,0.492
15.24,32216.4,35727.3,0.9925,1.7919,149.8,97.7,0.492
15.26,32308.6,35706.3,1.4153,1.7401,149.8,97.7,0.492
15.28,32369.3,35650.4,1.6937,1.6023,149.8,97.7,0.492
15.3,32256.1,35481.1,1.1746,1.1854,149.8,97.7,0.492
15.32,32130.2,35330.7,0.5971,0.815,149.8,97.7,0.492
15.34,32119.7,35166.8,0.5492,0.4113,149.8,97.7,0.492
15.36,32114.3,35068.2,0.5243,0.1683,149.8,97.7,0.492
15.38,32020.7,35062.0,0.0951,0.1532,149.8,97.7,0.492
15.4,32023.9,34952.7,0.1097,-0.116,149.8,97.7,0.492
15.42,31939.1,34844.7,-0.2795,-0.3822,149.8,97.7,0.492
15.44,31913.9,34673.5,-0.3947,-0.8038,149.8,97.7,0.492
15.46,31824.9,34639.4,-0.8033,-0.8878,149.8,97.7,0.492
15.48,31782.2,34679.8,-0.999,-0.7882,149.8,97.7,0.492
15.5,31783.9,34623.9,-0.991,-0.9259,149.8,97.7,0.492
15.52,31803.7,34574.0,-0.9004,-1.0488,149.8,97.7,0.492
15.54,31795.4,34540.4,-0.9384,-1.1317,149.8,97.7,0.492
15.56,31653.6,34465.4,-1.5887,-1.3164,149.8,97.7,0.492
15.58,31815.1,34646.5,-0.8481,-0.8704,149.8,97.7,0.492
15.6,31943.8,34863.1,-0.2577,-0.3367,149.8,97.7,0.492
15.62,32274.7,35239.9,1.2599,0.5914,149.8,97.7,0.492
15.64,32283.6,35519.6,1.3008,1.2803,149.8,97.7,0.492
15.66,32293.6,35737.2,1.3464,1.8163,149.8,97.7,0.492
15.68,32321.0,35736.7,1.472,1.8151,149.8,97.7,0.492
15.7,32291.5,35467.0,1.3371,1.1506,149.8,97.7,0.492
15.72,32137.5,35353.0,0.6308,0.8699,149.8,97.7,0.492
15.74,32194.2,35160.5,0.8907,0.3957,149.8,97.7,0.492
15.76,32056.6,35139.7,0.2597,0.3444,149.8,97.7,0.492
15.78,32010.9,35053.7,0.0499,0.1327,149.8,97.7,0.492
15.8,32003.0,34924.8,0.014,-0.1849,149.8,97.7,0.492
15.82,31955.1,34901.1,-0.2057,-0.2433,149.8,97.7,0.492
15.84,31898.1,34817.7,-0.4674,-0.4487,149.8,97.7,0.492
15.86,31794.6,34771.6,-0.9418,-0.5622,149.8,97.7,0.492
15.88,31808.3,34624.9,-0.8791,-0.9234,149.8,97.7,0.492
15.9,31834.0,34634.5,-0.7611,-0.8999,149.8,97.7,0.492
15.92,31818.8,34641.0,-0.8312,-0.8839,149.8,97.7,0.492
15.94,31838.5,34518.0,-0.7405,-1.1867,149.8,97.7,0.492
15.96,31731.6,34408.9,-1.2309,-1.4554,149.8,97.7,0.492
15.98,31838.4,34529.4,-0.7413,-1.1587,149.8,97.7,0.492
16.0,31964.8,34800.5,-0.1615,-0.491,149.8,97.7,0.492
16.02,32088.8,35262.5,0.4075,0.6468,149.8,97.7,0.492
16.04,32310.9,35696.7,1.4257,1.7165,149.8,97.7,0.492
16.06,32226.6,35825.5,1.0391,2.0337,149.8,97.7,0.492
16.08,32383.4,35757.1,1.7586,1.8653,149.8,97.7,0.492
16.1,32236.3,35537.7,1.0836,1.3249,149.8,97.7,0.492
16.12,32126.4,35343.7,0.5798,0.847,149.8,97.7,0.492
16.14,32032.7,35162.3,0.1499,0.4,149.8,97.7,0.492
16.16,31989.6,35243.6,-0.0476,0.6005,149.8,97.7,0.492
16.18,31977.9,35023.3,-0.1014,0.0578,149.8,97.7,0.492
16.2,31985.7,34944.3,-0.0656,-0.1367,149.8,97.7,0.492
16.22,31976.8,34840.4,-0.1065,-0.3926,149.8,97.7,0.492
16.24,31902.3,34744.1,-0.4479,-0.63,149.8,97.7,0.492
16.26,31886.9,34713.9,-0.5185,-0.7043,149.8,97.7,0.492
16.28,31876.0,34767.3,-0.5685,-0.5728,149.8,97.7,0.492
16.3,31826.3,34752.9,-0.7967,-0.6084,149.8,97.7,0.492
16.32,31778.8,34470.0,-1.0145,-1.3051,149.8,97.7,0.492
16.34,31873.7,34481.0,-0.5792,-1.2779,149.8,97.7,0.492
16.36,31825.1,34538.4,-0.802,-1.1365,149.8,97.7,0.492
16.38,31734.3,34573.3,-1.2188,-1.0506,149.8,97.7,0.492
16.4,31893.7,34831.8,-0.4876,-0.4139,149.8,97.7,0.492
16.42,32133.1,35268.8,0.6103,0.6625,149.8,97.7,0.492
16.44,32232.1,35653.2,1.0647,1.6093,149.8,97.7,0.492
16.46,32309.3,35734.1,1.4184,1.8085,149.8,97.7,0.492
16.48,32278.6,35726.8,1.2778,1.7906,149.8,97.7,0.492
16.5,32283.7,35534.3,1.3013,1.3164,149.8,97.7,0.492
16.52,32163.3,35389.6,0.7492,0.96,149.8,97.7,0.492
16.54,32102.9,35244.3,0.4718,0.6021,149.8,97.7,0.492
16.56,32015.0,35118.6,0.069,0.2926,149.8,97.7,0.492
16.58,31997.2,35104.3,-0.0127,0.2572,149.8,97.7,0.492
16.6,31959.1,34928.2,-0.1873,-0.1763,149.8,97.7,0.492
16.62,31954.0,34861.2,-0.2109,-0.3414,149.8,97.7,0.492
16.64,31830.7,34828.6,-0.7764,-0.4219,149.8,97.7,0.492
16.66,31853.4,34687.6,-0.6725,-0.7692,149.8,97.7,0.492
16.68,31747.4,34659.2,-1.1587,-0.8391,149.8,97.7,0.492
16.7,31747.5,34746.8,-1.1579,-0.6232,149.8,97.7,0.492
16.72,31740.9,34675.8,-1.1882,-0.7982,149.8,97.7,0.492
16.74,31762.0,34511.9,-1.0916,-1.2019,149.8,97.7,0.492
16.76,31675.9,34404.6,-1.4865,-1.466,149.8,97.7,0.492
16.78,31793.3,34556.6,-0.9477,-1.0918,149.8,97.7,0.492
16.8,31947.3,34845.9,-0.2416,-0.3791,149.8,97.7,0.492
16.82,32069.2,35249.7,0.3176,0.6154,149.8,97.7,0.492
16.84,32287.4,35561.7,1.318,1.384,149.8,97.7,0.492
16.86,32346.2,35821.1,1.5877,2.0229,149.8,97.7,0.492
16.88,32374.2,35749.3,1.716,1.8461,149.8,97.7,0.492
16.9,32227.7,35533.5,1.0441,1.3145,149.8,97.7,0.492
16.92,32287.3,35395.0,1.3175,0.9732,149.8,97.7,0.492
16.94,32174.1,35150.2,0.7984,0.3703,149.8,97.7,0.492
16.96,32143.5,35208.3,0.6581,0.5134,149.8,97.7,0.492
16.98,32002.6,35031.9,0.0121,0.0789,149.8,97.7,0.492
17.0,31957.0,34965.4,-0.1971,-0.0848,149.8,97.7,0.492
17.02,31939.7,34802.0,-0.2768,-0.4874,149.8,97.7,0.492
17.04,31848.7,34700.7,-0.694,-0.7369,149.8,97.7,0.492
17.06,31887.1,34732.2,-0.5179,-0.6592,149.8,97.7,0.492
17.08,31775.7,34708.3,-1.0287,-0.718,149.8,97.7,0.492
17.1,31882.4,34599.5,-0.5392,-0.986,149.8,97.7,0.492
17.12,31844.2,34543.8,-0.7147,-1.1234,149.8,97.7,0.492
17.14,31804.7,34449.4,-0.8958,-1.3558,149.8,97.7,0.492
17.16,31736.7,34506.5,-1.2075,-1.2152,149.8,97.7,0.492
17.18,31772.0,34557.4,-1.0455,-1.0898,149.8,97.7,0.492
17.2,31945.9,34923.9,-0.2482,-0.1871,149.8,97.7,0.492
17.22,32097.5,35271.6,0.4474,0.6693,149.8,97.7,0.492
17.24,32230.0,35521.3,1.0549,1.2844,149.8,97.7,0.492
17.26,32319.1,35737.5,1.4633,1.8169,149.8,97.7,0.492
17.28,32235.9,35726.7,1.0818,1.7905,149.8,97.7,0.492
17.3,32281.8,35536.8,1.2924,1.3225,149.8,97.7,0.492
17.32,32097.4,35300.2,0.4469,0.7399,149.8,97.7,0.492
17.34,32039.7,35189.1,0.182,0.4662,149.8,97.7,0.492
17.36,32067.3,35098.5,0.3089,0.243,149.8,97.7,0.492
17.38,31968.5,35060.0,-0.1447,0.1482,149.8,97.7,0.492
17.4,32027.9,35106.8,0.1279,0.2635,149.8,97.7,0.492
17.42,31907.3,34784.3,-0.4253,-0.531,149.8,97.7,0.492
17.44,31888.2,34811.6,-0.5126,-0.4636,149.8,97.7,0.492
17.46,31945.2,34694.9,-0.2511,-0.7512,149.8,97.7,0.492
17.48,31814.9,34683.4,-0.8488,-0.7794,149.8,97.7,0.492
17.5,31863.7,34658.9,-0.6251,-0.8397,149.8,97.7,0.492
17.52,31861.1,34481.6,-0.6368,-1.2764,149.8,97.7,0.492
17.54,31767.1,34494.4,-1.0679,-1.2449,149.8,97.7,0.492
17.56,31762.3,34542.5,-1.0902,-1.1265,149.8,97.7,0.492
17.58,31832.6,34550.2,-0.7679,-1.1075,149.8,97.7,0.492
17.6,31928.1,34839.8,-0.3298,-0.3941,149.8,97.7,0.492
17.62,32118.5,35215.1,0.5435,0.5302,149.8,97.7,0.492
17.64,32310.1,35524.3,1.4222,1.2919,149.8,97.7,0.492
17.66,32361.9,35779.2,1.66,1.9196,149.8,97.7,0.492
17.68,32228.5,35777.7,1.0482,1.9159,149.8,97.7,0.492
17.7,32265.3,35542.1,1.2167,1.3357,149.8,97.7,0.492
17.72,32147.7,35342.2,0.6774,0.8434,149.8,97.7,0.492
17.74,32101.6,35162.9,0.4662,0.4015,149.8,97.7,0.492
17.76,32014.8,35153.7,0.068,0.379,149.8,97.7,0.492
17.78,31941.3,35133.0,-0.2691,0.3279,149.8,97.7,0.492
17.8,31975.7,35029.9,-0.1116,0.074,149.8,97.7,0.492
17.82,31903.3,34834.4,-0.4436,-0.4075,149.8,97.7,0.492
17.84,31847.4,34763.4,-0.6998,-0.5824,149.8,97.7,0.492
17.86,31840.9,34832.1,-0.7295,-0.4131,149.8,97.7,0.492
17.88,31809.8,34662.3,-0.8723,-0.8315,149.8,97.7,0.492
17.9,31836.2,34673.5,-0.751,-0.8038,149.8,97.7,0.492
17.92,31829.0,34621.8,-0.7844,-0.9311,149.8,97.7,0.492
17.94,31671.6,34559.0,-1.506,-1.0858,149.8,97.7,0.492
17.96,31748.9,34345.3,-1.1514,-1.6123,149.8,97.7,0.492
17.98,31818.2,34534.6,-0.8338,-1.146,149.8,97.7,0.492
18.0,31927.7,34867.3,-0.3316,-0.3266,149.8,97.7,0.492
18.02,32199.6,35125.4,0.9157,0.3093,149.8,97.7,0.492
18.04,32188.3,35606.6,0.8638,1.4946,149.8,97.7,0.492
18.06,32380.1,35689.3,1.7434,1.6983,149.8,97.7,0.492
18.08,32398.9,35624.7,1.8296,1.5392,149.8,97.7,0.492
18.1,32301.8,35606.6,1.384,1.4945,149.8,97.7,0.492
18.12,32220.2,35380.1,1.0098,0.9366,149.8,97.7,0.492
18.14,32049.8,35117.5,0.2283,0.2898,149.8,97.7,0.492
18.16,32133.1,35088.9,0.6107,0.2193,149.8,97.7,0.492
18.18,32016.0,35021.4,0.0733,0.0531,149.8,97.7,0.492
18.2,32011.7,35055.3,0.0539,0.1367,149.8,97.7,0.492
18.22,31944.4,34812.2,-0.255,-0.4622,149.8,97.7,0.492
18.24,31936.4,34730.9,-0.2916,-0.6623,149.8,97.7,0.492
18.26,31843.3,34763.2,-0.7186,-0.5828,149.8,97.7,0.492
18.28,31836.9,34680.9,-0.748,-0.7855,149.8,97.7,0.492
18.3,31808.0,34680.8,-0.8805,-0.7857,149.8,97.7,0.492
18.32,31861.7,34563.1,-0.6342,-1.0758,149.8,97.7,0.492
18.34,31670.8,34452.4,-1.5099,-1.3483,149.8,97.7,0.492
18.36,31701.5,34449.1,-1.3689,-1.3565,149.8,97.7,0.492
18.38,31793.7,34519.3,-0.9463,-1.1836,149.8,97.7,0.492
18.4,31958.6,34787.8,-0.1897,-0.5222,149.8,97.7,0.492
18.42,32047.3,35138.5,0.2168,0.3415,149.8,97.7,0.492
18.44,32202.4,35575.0,0.9283,1.4167,149.8,97.7,0.492
18.46,32343.9,35721.0,1.5771,1.7763,149.8,97.7,0.492
18.48,32331.8,35714.7,1.5219,1.7607,149.8,97.7,0.492
18.5,32218.4,35530.5,1.0016,1.3072,149.8,97.7,0.492
18.52,32074.4,35333.1,0.3413,0.8209,149.8,97.7,0.492
18.54,32137.5,35221.6,0.6305,0.5462,149.8,97.7,0.492
18.56,32049.8,35051.0,0.2286,0.126,149.8,97.7,0.492
18.58,31988.9,35030.6,-0.051,0.0758,149.8,97.7,0.492
18.6,31988.8,35081.5,-0.0515,0.2012,149.8,97.7,0.492
18.62,31952.2,34858.4,-0.2191,-0.3484,149.8,97.7,0.492
18.64,31920.1,34773.0,-0.3663,-0.5588,149.8,97.7,0.492
18.66,31861.8,34664.8,-0.6338,-0.8252,149.8,97.7,0.492
18.68,31909.9,34600.5,-0.4133,-0.9835,149.8,97.7,0.492
18.7,31842.4,34642.5,-0.7227,-0.8802,149.8,97.7,0.492
18.72,31881.5,34616.1,-0.5434,-0.9452,149.8,97.7,0.492
18.74,31745.2,34428.5,-1.1686,-1.4074,149.8,97.7,0.492
18.76,31702.8,34382.6,-1.3631,-1.5202,149.8,97.7,0.492
18.78,31810.4,34511.0,-0.8697,-1.2039,149.8,97.7,0.492
18.8,31965.2,34763.8,-0.1596,-0.5813,149.8,97.7,0.492
18.82,31978.8,35197.9,-0.0971,0.4879,149.8,97.7,0.492
18.84,32196.5,35523.4,0.901,1.2895,149.8,97.7,0.492
18.86,32215.8,35726.3,0.9898,1.7894,149.8,97.7,0.492
18.88,32360.4,35691.2,1.6529,1.7028,149.8,97.7,0.492
18.9,32198.6,35614.4,0.9107,1.5138,149.8,97.7,0.492
18.92,32203.5,35368.9,0.9335,0.9091,149.8,97.7,0.492
18.94,32082.5,35192.0,0.3785,0.4733,149.8,97.7,0.492
18.96,32035.1,35064.5,0.1609,0.1593,149.8,97.7,0.492
18.98,31984.3,35138.1,-0.0718,0.3406,149.8,97.7,0.492
19.0,32036.4,34821.8,0.167,-0.4385,149.8,97.7,0.492
19.02,31977.9,34930.4,-0.1013,-0.171,149.8,97.7,0.492
19.04,31947.6,34720.6,-0.2404,-0.6878,149.8,97.7,0.492
19.06,31820.6,34680.4,-0.8229,-0.7869,149.8,97.7,0.492
19.08,31777.4,34677.8,-1.0209,-0.7932,149.8,97.7,0.492
19.1,31850.6,34663.4,-0.685,-0.8288,149.8,97.7,0.492
19.12,31794.6,34507.1,-0.9418,-1.2137,149.8,97.7,0.492
19.14,31752.0,34490.7,-1.1372,-1.2541,149.8,97.7,0.492
19.16,31725.2,34482.3,-1.2604,-1.2747,149.8,97.7,0.492
19.18,31805.3,34460.3,-0.8928,-1.3289,149.8,97.7,0.492
19.2,31874.1,34754.4,-0.5775,-0.6045,149.8,97.7,0.492
19.22,32027.7,35323.9,0.1271,0.7982,149.8,97.7,0.492
19.24,32202.8,35550.9,0.9301,1.3572,149.8,97.7,0.492
19.26,32331.6,35848.8,1.5207,2.0911,149.8,97.7,0.492
19.28,32381.7,35832.6,1.7505,2.0511,149.8,97.7,0.492
19.3,32327.8,35510.5,1.5033,1.2577,149.8,97.7,0.492
19.32,32159.0,35363.5,0.7291,0.8958,149.8,97.7,0.492
19.34,32173.6,35085.9,0.7962,0.2121,149.8,97.7,0.492
19.36,31997.1,35120.0,-0.0133,0.2961,149.8,97.7,0.492
19.38,31971.8,35013.0,-0.1294,0.0324,149.8,97.7,0.492
19.4,32044.9,35012.9,0.206,0.0322,149.8,97.7,0.492
19.42,31923.3,34917.6,-0.3516,-0.2025,149.8,97.7,0.492
19.44,31894.3,34798.6,-0.4849,-0.4956,149.8,97.7,0.492
19.46,31858.7,34680.7,-0.6479,-0.7862,149.8,97.7,0.492
19.48,31865.5,34748.4,-0.6168,-0.6193,149.8,97.7,0.492
19.5,31767.1,34699.6,-1.068,-0.7394,149.8,97.7,0.492
19.52,31813.3,34606.8,-0.8563,-0.968,149.8,97.7,0.492
19.54,31911.3,34551.8,-0.4067,-1.1035,149.8,97.7,0.492
19.56,31724.8,34429.8,-1.2621,-1.4042,149.8,97.7,0.492
19.58,31785.1,34538.1,-0.9857,-1.1373,149.8,97.7,0.492
19.6,31983.5,34804.9,-0.0758,-0.4802,149.8,97.7,0.492
19.62,32127.0,35249.2,0.5824,0.6143,149.8,97.7,0.492
19.64,32241.5,35443.9,1.1076,1.0937,149.8,97.7,0.492
19.66,32314.9,35730.5,1.4443,1.7996,149.8,97.7,0.492
19.68,32272.1,35672.4,1.248,1.6565,149.8,97.7,0.492
19.7,32192.6,35615.2,0.8835,1.5158,149.8,97.7,0.492
19.72,32133.4,35352.0,0.6117,0.8675,149.8,97.7,0.492
19.74,32016.1,35035.9,0.0736,0.0888,149.8,97.7,0.492
19.76,32091.9,35098.0,0.4217,0.2418,149.8,97.7,0.492
19.78,32025.7,35142.3,0.1177,0.351,149.8,97.7,0.492
19.8,32004.4,34940.3,0.0202,-0.1466,149.8,97.7,0.492
19.82,31927.6,34860.1,-0.332,-0.3442,149.8,97.7,0.492
19.84,31926.4,34762.0,-0.3374,-0.5858,149.8,97.7,0.492
19.86,31830.9,34666.7,-0.7754,-0.8206,149.8,97.7,0.492
19.88,31844.5,34712.0,-0.7131,-0.709,149.8,97.7,0.492
19.9,31732.4,34588.0,-1.2273,-1.0144,149.8,97.7,0.492
19.92,31788.6,34585.7,-0.9697,-1.02,149.8,97.7,0.492
19.94,31829.9,34542.5,-0.7801,-1.1265,149.8,97.7,0.492
19.96,31712.3,34401.9,-1.3196,-1.4728,149.8,97.7,0.492
19.98,31757.3,34455.5,-1.1131,-1.3409,149.8,97.7,0.492
20.0,31940.1,34745.1,-0.2747,-0.6273,149.8,97.7,0.492
20.02,32025.1,35152.6,0.1151,0.3762,149.8,97.7,0.492
20.04,32218.6,35555.3,1.0024,1.3681,149.8,97.7,0.492
20.06,32238.7,35773.4,1.0948,1.9053,149.8,97.7,0.492
20.08,32352.8,35689.5,1.618,1.6988,149.8,97.7,0.492
20.1,32212.9,35598.0,0.9767,1.4734,149.8,97.7,0.492
20.12,32201.4,35358.6,0.9236,0.8838,149.8,97.7,0.492
20.14,32117.1,35290.5,0.5373,0.7159,149.8,97.7,0.492
20.16,32068.3,35079.4,0.3133,0.1961,149.8,97.7,0.492
20.18,32067.0,35161.4,0.3074,0.3979,149.8,97.7,0.492
20.2,32020.9,35073.0,0.0961,0.1802,149.8,97.7,0.492
20.22,31934.6,34857.9,-0.3001,-0.3497,149.8,97.7,0.492
20.24,31932.2,34853.4,-0.3109,-0.3608,149.8,97.7,0.492
20.26,31754.4,34681.7,-1.1265,-0.7836,149.8,97.7,0.492
20.28,31818.0,34629.6,-0.8345,-0.9118,149.8,97.7,0.492
20.3,31844.3,34622.6,-0.7142,-0.9292,149.8,97.7,0.492
20.32,31753.9,34585.0,-1.1286,-1.0218,149.8,97.7,0.492
20.34,31692.2,34475.5,-1.4118,-1.2915,149.8,97.7,0.492
20.36,31746.1,34428.1,-1.1645,-1.4082,149.8,97.7,0.492
20.38,31766.9,34508.3,-1.0689,-1.2107,149.8,97.7,0.492
20.4,31793.7,34768.2,-0.946,-0.5706,149.8,97.7,0.492
20.42,32077.5,35144.3,0.3555,0.3558,149.8,97.7,0.492
20.44,32240.0,35533.2,1.1008,1.3136,149.8,97.7,0.492
20.46,32365.3,35713.4,1.6753,1.7577,149.8,97.7,0.492
20.48,32294.5,35696.0,1.3507,1.7147,149.8,97.7,0.492
20.5,32258.2,35624.8,1.1841,1.5393,149.8,97.7,0.492
20.52,32192.4,35400.3,0.8824,0.9864,149.8,97.7,0.492
20.54,32074.9,35148.1,0.3436,0.3652,149.8,97.7,0.492
20.56,32016.6,35046.5,0.0763,0.1149,149.8,97.7,0.492
20.58,32081.8,35004.4,0.3753,0.0113,149.8,97.7,0.492
20.6,31935.4,34947.5,-0.2963,-0.1289,149.8,97.7,0.492
20.62,31954.0,34923.0,-0.211,-0.1893,149.8,97.7,0.492
20.64,31872.4,34791.3,-0.5852,-0.5136,149.8,97.7,0.492
20.66,31916.0,34664.6,-0.3852,-0.8258,149.8,97.7,0.492
20.68,31806.9,34644.1,-0.8857,-0.8763,149.8,97.7,0.492
20.7,31808.6,34634.1,-0.8779,-0.9009,149.8,97.7,0.492
20.72,31739.7,34565.6,-1.1938,-1.0696,149.8,97.7,0.492
20.74,31698.7,34560.5,-1.3821,-1.0822,149.8,97.7,0.492
20.76,31680.9,34420.4,-1.4635,-1.4273,149.8,97.7,0.492
20.78,31774.6,34608.8,-1.0336,-0.9632,149.8,97.7,0.492
20.8,31857.9,34853.0,-0.6515,-0.3618,149.8,97.7,0.492
20.82,32112.8,35194.6,0.5176,0.4797,149.8,97.7,0.492
20.84,32285.7,35568.8,1.3104,1.4013,149.8,97.7,0.492
20.86,32309.4,35686.5,1.4192,1.6913,149.8,97.7,0.492
20.88,32351.8,35816.8,1.6136,2.0122,149.8,97.7,0.492
20.9,32269.3,35628.9,1.2352,1.5495,149.8,97.7,0.492
20.92,32144.8,35416.9,0.6641,1.0273,149.8,97.7,0.492
20.94,31966.1,35176.3,-0.1553,0.4346,149.8,97.7,0.492
20.96,32086.6,35183.7,0.3973,0.4528,149.8,97.7,0.492
20.98,31954.8,35116.1,-0.2071,0.2863,149.8,97.7,0.492
21.0,31990.3,34918.9,-0.0443,-0.1994,149.8,97.7,0.492
21.02,31933.0,34930.5,-0.3071,-0.1707,149.8,97.7,0.492
21.04,31783.7,34763.0,-0.9919,-0.5833,149.8,97.7,0.492
21.06,31864.5,34795.4,-0.6216,-0.5036,149.8,97.7,0.492
21.08,31926.1,34683.4,-0.3389,-0.7794,149.8,97.7,0.492
21.1,31806.3,34666.6,-0.8885,-0.8207,149.8,97.7,0.492
21.12,31758.2,34648.0,-1.1089,-0.8666,149.8,97.7,0.492
21.14,31792.8,34517.3,-0.9503,-1.1887,149.8,97.7,0.492
21.16,31787.2,34519.7,-0.9761,-1.1828,149.8,97.7,0.492
21.18,31765.7,34610.8,-1.0745,-0.9583,149.8,97.7,0.492
21.2,31950.5,34707.8,-0.2271,-0.7192,149.8,97.7,0.492
21.22,32037.2,35069.9,0.1704,0.1726,149.8,97.7,0.492
21.24,32312.3,35439.3,1.4324,1.0824,149.8,97.7,0.492
21.26,32251.8,35673.6,1.1549,1.6594,149.8,97.7,0.492
21.28,32412.9,35753.0,1.8938,1.8552,149.8,97.7,0.492
21.3,32238.9,35571.7,1.0955,1.4086,149.8,97.7,0.492
21.32,32242.7,35348.8,1.1129,0.8596,149.8,97.7,0.492
21.34,32055.4,35132.4,0.2539,0.3266,149.8,97.7,0.492
21.36,32083.9,35121.3,0.3848,0.2992,149.8,97.7,0.492
21.38,31977.9,35077.5,-0.1012,0.1912,149.8,97.7,0.492
21.4,31925.7,35047.6,-0.3406,0.1177,149.8,97.7,0.492
21.42,31877.8,34905.6,-0.5606,-0.2321,149.8,97.7,0.492
21.44,31926.1,34757.0,-0.3388,-0.5981,149.8,97.7,0.492
21.46,31772.7,34710.3,-1.0422,-0.7131,149.8,97.7,0.492
21.48,31966.7,34667.3,-0.1526,-0.8191,149.8,97.7,0.492
21.5,31769.7,34679.5,-1.056,-0.7889,149.8,97.7,0.492
21.52,31834.8,34555.6,-0.7578,-1.0942,149.8,97.7,0.492
21.54,31779.7,34596.0,-1.0102,-0.9947,149.8,97.7,0.492
21.56,31788.7,34475.8,-0.9689,-1.2907,149.8,97.7,0.492
21.58,31844.3,34507.0,-0.7142,-1.2139,149.8,97.7,0.492
21.6,31943.6,34753.9,-0.2586,-0.6057,149.8,97.7,0.492
21.62,32058.0,35126.9,0.2659,0.313,149.8,97.7,0.492
21.64,32234.9,35464.2,1.0771,1.1438,149.8,97.7,0.492
21.66,32423.6,35838.6,1.9429,2.0659,149.8,97.7,0.492
21.68,32238.7,35835.6,1.0948,2.0587,149.8,97.7,0.492
21.7,32273.6,35665.5,1.2548,1.6396,149.8,97.7,0.492
21.72,32197.5,35414.1,0.9057,1.0203,149.8,97.7,0.492
21.74,32128.4,35209.5,0.5887,0.5165,149.8,97.7,0.492
21.76,31888.8,35144.0,-0.5098,0.3552,149.8,97.7,0.492
21.78,32078.2,35067.3,0.3589,0.1662,149.8,97.7,0.492
21.8,31998.5,34961.2,-0.0069,-0.0953,149.8,97.7,0.492
21.82,31978.4,34879.9,-0.0989,-0.2955,149.8,97.7,0.492
21.84,31872.2,34729.7,-0.5862,-0.6653,149.8,97.7,0.492
21.86,31909.3,34662.4,-0.4159,-0.8312,149.8,97.7,0.492
21.88,31754.8,34575.3,-1.1246,-1.0457,149.8,97.7,0.492
21.9,31809.1,34668.1,-0.8756,-0.8171,149.8,97.7,0.492
21.92,31747.8,34639.3,-1.1565,-0.8881,149.8,97.7,0.492
21.94,31855.8,34466.2,-0.6613,-1.3144,149.8,97.7,0.492
21.96,31778.8,34511.0,-1.0146,-1.2041,149.8,97.7,0.492
21.98,31844.6,34588.6,-0.7129,-1.0129,149.8,97.7,0.492
22.0,31879.6,34765.0,-0.5521,-0.5786,149.8,97.7,0.492
22.02,32034.4,35094.6,0.1576,0.2334,149.8,97.7,0.492
22.04,32278.9,35554.5,1.279,1.3662,149.8,97.7,0.492
22.06,32252.9,35678.1,1.1598,1.6706,149.8,97.7,0.492
22.08,32356.9,35824.1,1.6369,2.0302,149.8,97.7,0.492
22.1,32267.4,35591.4,1.2262,1.457,149.8,97.7,0.492
22.12,32243.0,35402.8,1.1147,0.9926,149.8,97.7,0.492
22.14,32102.8,35189.1,0.4716,0.4663,149.8,97.7,0.492
22.16,31967.6,35107.7,-0.1486,0.2656,149.8,97.7,0.492
22.18,32030.1,35074.2,0.1379,0.1832,149.8,97.7,0.492
22.2,32027.8,35096.7,0.1276,0.2386,149.8,97.7,0.492
22.22,31941.9,34861.0,-0.2665,-0.3421,149.8,97.7,0.492
22.24,31879.0,34808.9,-0.5549,-0.4704,149.8,97.7,0.492
22.26,31832.0,34711.8,-0.7704,-0.7095,149.8,97.7,0.492
22.28,31902.8,34626.8,-0.4458,-0.9188,149.8,97.7,0.492
22.3,31827.8,34673.7,-0.7898,-0.8033,149.8,97.7,0.492
22.32,31898.4,34623.3,-0.466,-0.9274,149.8,97.7,0.492
22.34,31762.3,34450.9,-1.0903,-1.3521,149.8,97.7,0.492
22.36,31824.9,34414.8,-0.8029,-1.441,149.8,97.7,0.492
22.38,31832.2,34556.3,-0.7698,-1.0924,149.8,97.7,0.492
22.4,31900.3,34767.7,-0.4574,-0.5718,149.8,97.7,0.492
22.42,32091.3,35090.0,0.4186,0.2221,149.8,97.7,0.492
22.44,32225.2,35542.6,1.0329,1.3368,149.8,97.7,0.492
22.46,32296.6,35623.2,1.3603,1.5353,149.8,97.7,0.492
22.48,32243.8,35710.7,1.1181,1.751,149.8,97.7,0.492
22.5,32181.7,35546.9,0.8336,1.3474,149.8,97.7,0.492
22.52,32100.7,35435.1,0.4621,1.072,149.8,97.7,0.492
22.54,32023.2,35193.0,0.1062,0.4758,149.8,97.7,0.492
22.56,32063.8,35028.6,0.2928,0.071,149.8,97.7,0.492
22.58,32042.8,35070.9,0.1963,0.1751,149.8,97.7,0.492
22.6,31961.6,35037.2,-0.1763,0.0919,149.8,97.7,0.492
22.62,31975.1,34855.2,-0.114,-0.3563,149.8,97.7,0.492
22.64,31914.0,34698.4,-0.3945,-0.7424,149.8,97.7,0.492
22.66,31850.2,34718.0,-0.6871,-0.6941,149.8,97.7,0.492
22.68,31806.8,34650.4,-0.8862,-0.8608,149.8,97.7,0.492
22.7,31775.8,34574.7,-1.0282,-1.0472,149.8,97.7,0.492
22.72,31797.7,34631.7,-0.928,-0.9067,149.8,97.7,0.492
22.74,31771.5,34515.9,-1.0478,-1.1921,149.8,97.7,0.492
22.76,31681.1,34499.2,-1.4626,-1.2332,149.8,97.7,0.492
22.78,31739.0,34455.7,-1.1969,-1.3403,149.8,97.7,0.492
22.8,31824.8,34719.8,-0.8035,-0.6899,149.8,97.7,0.492
22.82,32081.7,35159.0,0.3746,0.3921,149.8,97.7,0.492
22.84,32147.3,35454.7,0.6756,1.1204,149.8,97.7,0.492
22.86,32366.9,35692.6,1.6829,1.7064,149.8,97.7,0.492
22.88,32311.2,35727.3,1.4273,1.7917,149.8,97.7,0.492
22.9,32271.9,35562.7,1.2469,1.3864,149.8,97.7,0.492
22.92,32155.0,35375.3,0.7108,0.9247,149.8,97.7,0.492
22.94,32038.6,35277.7,0.1771,0.6844,149.8,97.7,0.492
22.96,32104.9,35135.0,0.481,0.3329,149.8,97.7,0.492
22.98,32003.1,35113.4,0.0143,0.2798,149.8,97.7,0.492
23.0,32016.8,35018.5,0.077,0.0459,149.8,97.7,0.492
23.02,31924.8,34925.0,-0.3451,-0.1845,149.8,97.7,0.492
23.04,31950.0,34755.4,-0.2294,-0.6021,149.8,97.7,0.492
23.06,31916.0,34722.6,-0.385,-0.683,149.8,97.7,0.492
23.08,31850.0,34659.5,-0.688,-0.8384,149.8,97.7,0.492
23.1,31903.0,34661.2,-0.4449,-0.834,149.8,97.7,0.492
23.12,31699.4,34705.0,-1.3784,-0.7262,149.8,97.7,0.492
23.14,31785.1,34463.9,-0.9858,-1.32,149.8,97.7,0.492
23.16,31817.3,34453.7,-0.8379,-1.3453,149.8,97.7,0.492
23.18,31722.6,34489.0,-1.272,-1.2583,149.8,97.7,0.492
23.2,31885.9,34813.5,-0.5231,-0.4591,149.8,97.7,0.492
23.22,32121.5,35097.9,0.5574,0.2416,149.8,97.7,0.492
23.24,32349.3,35483.9,1.6021,1.1924,149.8,97.7,0.492
23.26,32365.7,35737.2,1.6773,1.8162,149.8,97.7,0.492
23.28,32377.5,35695.5,1.7312,1.7135,149.8,97.7,0.492
23.3,32270.6,35544.7,1.241,1.342,149.8,97.7,0.492
23.32,32225.7,35455.3,1.0353,1.1218,149.8,97.7,0.492
23.34,32056.5,35214.8,0.2592,0.5295,149.8,97.7,0.492
23.36,32020.5,35128.4,0.0939,0.3167,149.8,97.7,0.492
23.38,32014.3,35067.6,0.0656,0.1669,149.8,97.7,0.492
23.4,32073.5,34889.2,0.3372,-0.2724,149.8,97.7,0.492
23.42,31917.5,34939.4,-0.3783,-0.1489,149.8,97.7,0.492
23.44,31902.0,34849.4,-0.4494,-0.3706,149.8,97.7,0.492
23.46,31787.8,34767.0,-0.9732,-0.5734,149.8,97.7,0.492
23.48,31862.0,34650.2,-0.6331,-0.8613,149.8,97.7,0.492
23.5,31861.8,34595.6,-0.6338,-0.9957,149.8,97.7,0.492
23.52,31771.8,34610.3,-1.0464,-0.9594,149.8,97.7,0.492
23.54,31730.2,34569.1,-1.2373,-1.0609,149.8,97.7,0.492
23.56,31705.5,34449.9,-1.3507,-1.3546,149.8,97.7,0.492
23.58,31652.1,34456.9,-1.5953,-1.3374,149.8,97.7,0.492
23.6,31847.3,34775.1,-0.7001,-0.5536,149.8,97.7,0.492
23.62,31978.9,35029.4,-0.0969,0.0728,149.8,97.7,0.492
23.64,32314.5,35445.2,1.4423,1.0969,149.8,97.7,0.492
23.66,32264.9,35799.9,1.2151,1.9707,149.8,97.7,0.492
23.68,32367.7,35696.3,1.6863,1.7154,149.8,97.7,0.492
23.7,32296.9,35600.6,1.3617,1.4797,149.8,97.7,0.492
23.72,32101.8,35398.1,0.4669,0.981,149.8,97.7,0.492
23.74,32088.3,35201.0,0.4052,0.4954,149.8,97.7,0.492
23.76,32127.7,35212.5,0.5858,0.5239,149.8,97.7,0.492
23.78,32088.3,35126.9,0.405,0.3129,149.8,97.7,0.492
23.8,31966.1,35024.0,-0.1557,0.0595,149.8,97.7,0.492
23.82,31964.0,34912.5,-0.1649,-0.2151,149.8,97.7,0.492
23.84,31983.3,34768.7,-0.0766,-0.5692,149.8,97.7,0.492
23.86,31855.2,34764.1,-0.6639,-0.5807,149.8,97.7,0.492
23.88,31860.2,34667.3,-0.641,-0.8191,149.8,97.7,0.492
23.9,31775.3,34668.1,-1.0304,-0.8172,149.8,97.7,0.492
23.92,31815.2,34557.2,-0.8476,-1.0901,149.8,97.7,0.492
23.94,31838.9,34565.5,-0.7388,-1.0698,149.8,97.7,0.492
23.96,31747.0,34405.4,-1.1603,-1.4642,149.8,97.7,0.492
23.98,31796.9,34447.9,-0.9316,-1.3595,149.8,97.7,0.492
24.0,31935.3,34786.7,-0.2967,-0.5249,149.8,97.7,0.492
24.02,32087.6,35085.3,0.402,0.2105,149.8,97.7,0.492
24.04,32092.1,35481.4,0.4226,1.186,149.8,97.7,0.492
24.06,32365.3,35686.1,1.6754,1.6903,149.8,97.7,0.492
24.08,32292.6,35721.1,1.342,1.7764,149.8,97.7,0.492
24.1,32369.3,35632.4,1.6939,1.558,149.8,97.7,0.492
24.12,32198.9,35432.4,0.9124,1.0654,149.8,97.7,0.492
24.14,32119.1,35193.4,0.5462,0.4768,149.8,97.7,0.492
24.16,31989.9,35033.7,-0.0461,0.0834,149.8,97.7,0.492
24.18,32015.2,35055.1,0.0699,0.1361,149.8,97.7,0.492
24.2,32046.3,35029.5,0.2124,0.0731,149.8,97.7,0.492
24.22,32058.4,34903.4,0.2677,-0.2377,149.8,97.7,0.492
24.24,31923.8,34725.5,-0.3494,-0.6756,149.8,97.7,0.492
24.26,31875.1,34707.9,-0.5726,-0.7191,149.8,97.7,0.492
24.28,31865.2,34702.3,-0.6182,-0.7328,149.8,97.7,0.492
24.3,31798.3,34646.0,-0.9252,-0.8715,149.8,97.7,0.492
24.32,31847.0,34615.1,-0.7019,-0.9476,149.8,97.7,0.492
24.34,31790.4,34494.9,-0.9614,-1.2437,149.8,97.7,0.492
24.36,31745.9,34370.9,-1.1654,-1.5492,149.8,97.7,0.492
24.38,31668.9,34571.8,-1.5184,-1.0542,149.8,97.7,0.492
24.4,31885.2,34662.0,-0.5265,-0.832,149.8,97.7,0.492
24.42,31999.6,35115.8,-0.0019,0.2856,149.8,97.7,0.492
24.44,32260.1,35481.0,1.1931,1.1852,149.8,97.7,0.492
24.46,32317.1,35744.2,1.4544,1.8334,149.8,97.7,0.492
24.48,32320.7,35778.4,1.471,1.9178,149.8,97.7,0.492
24.5,32370.3,35610.5,1.6982,1.504,149.8,97.7,0.492
24.52,32187.2,35529.4,0.8584,1.3044,149.8,97.7,0.492
24.54,32170.0,35229.6,0.7797,0.566,149.8,97.7,0.492
24.56,32036.1,35088.1,0.1657,0.2174,149.8,97.7,0.492
24.58,32058.9,35032.9,0.2702,0.0814,149.8,97.7,0.492
24.6,32002.3,35110.1,0.0105,0.2716,149.8,97.7,0.492
24.62,32072.0,34847.0,0.3302,-0.3766,149.8,97.7,0.492
24.64,31818.3,34821.2,-0.8335,-0.44,149.8,97.7,0.492
24.66,31864.6,34760.6,-0.6208,-0.5894,149.8,97.7,0.492
24.68,31868.3,34691.9,-0.6042,-0.7585,149.8,97.7,0.492
24.7,31872.8,34589.1,-0.5835,-1.0116,149.8,97.7,0.492
24.72,31798.7,34640.8,-0.9234,-0.8844,149.8,97.7,0.492
24.74,31836.5,34535.6,-0.7497,-1.1434,149.8,97.7,0.492
24.76,31871.0,34458.4,-0.5917,-1.3336,149.8,97.7,0.492
24.78,31779.1,34428.0,-1.0131,-1.4085,149.8,97.7,0.492
24.8,31890.3,34653.1,-0.5031,-0.8539,149.8,97.7,0.492
24.82,32034.4,35029.4,0.1577,0.0729,149.8,97.7,0.492
24.84,32090.5,35508.1,0.4149,1.2518,149.8,97.7,0.492
24.86,32299.3,35719.7,1.3726,1.7731,149.8,97.7,0.492
24.88,32294.9,35725.0,1.3523,1.7862,149.8,97.7,0.492
24.9,32326.3,35644.7,1.4968,1.5884,149.8,97.7,0.492
24.92,32195.2,35376.5,0.8952,0.9278,149.8,97.7,0.492
24.94,32148.4,35239.5,0.6808,0.5902,149.8,97.7,0.492
24.96,32086.5,35136.3,0.3968,0.3362,149.8,97.7,0.492
24.98,32005.8,35054.6,0.0265,0.1349,149.8,97.7,0.492
25.0,32065.0,35113.5,0.2979,0.2801,149.8,97.7,0.492
25.02,31945.0,34926.7,-0.2521,-0.1802,149.8,97.7,0.492
25.04,31937.5,34741.9,-0.2865,-0.6352,149.8,97.7,0.492
25.06,31885.2,34795.4,-0.5266,-0.5035,149.8,97.7,0.492
25.08,31782.2,34748.6,-0.999,-0.6189,149.8,97.7,0.492
25.1,31897.1,34667.4,-0.4719,-0.8189,149.8,97.7,0.492
25.12,31800.7,34561.9,-0.9141,-1.0786,149.8,97.7,0.492
25.14,31732.9,34533.6,-1.2249,-1.1483,149.8,97.7,0.492
25.16,31769.4,34435.5,-1.0578,-1.3901,149.8,97.7,0.492
25.18,31787.2,34515.8,-0.9758,-1.1923,149.8,97.7,0.492
25.2,31905.0,34727.9,-0.4357,-0.6697,149.8,97.7,0.492
25.22,32104.2,35057.3,0.4778,0.1416,149.8,97.7,0.492
25.24,32138.6,35469.4,0.6357,1.1565,149.8,97.7,0.492
25.26,32311.9,35698.9,1.4306,1.7218,149.8,97.7,0.492
25.28,32270.4,35852.6,1.2402,2.1003,149.8,97.7,0.492
25.3,32240.8,35587.6,1.1045,1.4478,149.8,97.7,0.492
25.32,32156.1,35398.0,0.716,0.9807,149.8,97.7,0.492
25.34,32101.4,35184.3,0.4651,0.4542,149.8,97.7,0.492
25.36,32073.8,35117.5,0.3384,0.2897,149.8,97.7,0.492
25.38,32108.5,35058.7,0.4976,0.145,149.8,97.7,0.492
25.4,32025.9,35067.2,0.1186,0.1659,149.8,97.7,0.492
25.42,31932.1,34887.4,-0.3113,-0.2771,149.8,97.7,0.492
25.44,31975.2,34823.3,-0.1137,-0.4348,149.8,97.7,0.492
25.46,31916.1,34671.3,-0.3846,-0.8093,149.8,97.7,0.492
25.48,31819.6,34670.3,-0.8273,-0.8118,149.8,97.7,0.492
25.5,31885.5,34712.2,-0.5249,-0.7085,149.8,97.7,0.492
25.52,31788.5,34620.1,-0.9701,-0.9354,149.8,97.7,0.492
25.54,31870.8,34526.1,-0.5924,-1.167,149.8,97.7,0.492
25.56,31793.6,34435.8,-0.9467,-1.3892,149.8,97.7,0.492
25.58,31809.2,34481.9,-0.8751,-1.2756,149.8,97.7,0.492
25.6,31979.6,34677.2,-0.0937,-0.7948,149.8,97.7,0.492
25.62,32022.7,35039.3,0.1042,0.0973,149.8,97.7,0.492
25.64,32277.3,35339.2,1.272,0.8358,149.8,97.7,0.492
25.66,32339.2,35747.7,1.5555,1.842,149.8,97.7,0.492
25.68,32393.7,35748.6,1.8055,1.8443,149.8,97.7,0.492
25.7,32403.3,35686.3,1.8498,1.6909,149.8,97.7,0.492
25.72,32153.0,35509.4,0.7017,1.255,149.8,97.7,0.492
25.74,32124.1,35238.7,0.5693,0.5883,149.8,97.7,0.492
25.76,32008.7,35123.0,0.04,0.3034,149.8,97.7,0.492
25.78,32032.9,35083.7,0.151,0.2067,149.8,97.7,0.492
25.8,31973.1,35075.9,-0.1232,0.1873,149.8,97.7,0.492
25.82,32017.6,34924.2,0.0806,-0.1864,149.8,97.7,0.492
25.84,31886.2,34797.2,-0.5218,-0.4992,149.8,97.7,0.492
25.86,31859.1,34632.4,-0.646,-0.9049,149.8,97.7,0.492
25.88,31874.9,34611.0,-0.5737,-0.9578,149.8,97.7,0.492
25.9,31895.1,34569.3,-0.4811,-1.0605,149.8,97.7,0.492
25.92,31820.0,34704.6,-0.8254,-0.7272,149.8,97.7,0.492
25.94,31804.7,34500.2,-0.8958,-1.2307,149.8,97.7,0.492
25.96,31794.4,34345.2,-0.9427,-1.6124,149.8,97.7,0.492
25.98,31791.5,34509.8,-0.9562,-1.2071,149.8,97.7,0.492
26.0,31928.1,34654.2,-0.33,-0.8514,149.8,97.7,0.492
26.02,31999.6,35020.9,-0.0019,0.0518,149.8,97.7,0.492
26.04,32105.4,35363.8,0.4835,0.8965,149.8,97.7,0.492
26.06,32325.4,35697.9,1.4925,1.7193,149.8,97.7,0.492
26.08,32329.3,35800.0,1.5102,1.9709,149.8,97.7,0.492
26.1,32265.4,35668.7,1.217,1.6476,149.8,97.7,0.492
26.12,32144.1,35414.1,0.6609,1.0204,149.8,97.7,0.492
26.14,32205.9,35348.2,0.9442,0.858,149.8,97.7,0.492
26.16,32084.2,35213.3,0.3861,0.5259,149.8,97.7,0.492
26.18,32044.1,35044.7,0.2023,0.1105,149.8,97.7,0.492
26.2,32054.8,34967.0,0.2515,-0.081,149.8,97.7,0.492
26.22,32038.3,34928.9,0.1757,-0.1747,149.8,97.7,0.492
26.24,31899.6,34820.0,-0.4605,-0.443,149.8,97.7,0.492
26.26,31841.4,34779.0,-0.7273,-0.544,149.8,97.7,0.492
26.28,31828.2,34720.3,-0.788,-0.6886,149.8,97.7,0.492
26.3,31798.6,34670.0,-0.9237,-0.8124,149.8,97.7,0.492
26.32,31807.2,34606.7,-0.8844,-0.9684,149.8,97.7,0.492
26.34,31782.8,34590.6,-0.9959,-1.008,149.8,97.7,0.492
26.36,31762.1,34464.2,-1.0913,-1.3192,149.8,97.7,0.492
26.38,31881.0,34380.2,-0.5457,-1.5262,149.8,97.7,0.492
26.4,31743.6,34712.4,-1.1761,-0.708,149.8,97.7,0.492
26.42,32004.9,34990.7,0.0224,-0.0225,149.8,97.7,0.492
26.44,32254.1,35453.3,1.1655,1.117,149.8,97.7,0.492
26.46,32361.2,35664.7,1.6568,1.6375,149.8,97.7,0.492
26.48,32405.8,35839.0,1.861,2.0669,149.8,97.7,0.492
26.5,32260.2,35536.8,1.1933,1.3226,149.8,97.7,0.492
26.52,32230.7,35361.8,1.0582,0.8914,149.8,97.7,0.492
26.54,32121.5,35187.5,0.5575,0.4623,149.8,97.7,0.492
26.56,31978.2,35177.1,-0.1001,0.4365,149.8,97.7,0.492
26.58,31968.6,35069.4,-0.1442,0.1715,149.8,97.7,0.492
26.6,32042.4,34994.4,0.1945,-0.0133,149.8,97.7,0.492
26.62,31938.1,34842.5,-0.284,-0.3875,149.8,97.7,0.492
26.64,31878.2,34858.6,-0.5588,-0.3478,149.8,97.7,0.492
26.66,31843.8,34800.5,-0.7164,-0.491,149.8,97.7,0.492
26.68,31877.6,34678.8,-0.5614,-0.7907,149.8,97.7,0.492
26.7,31819.6,34689.1,-0.8273,-0.7654,149.8,97.7,0.492
26.72,31853.7,34644.5,-0.6707,-0.8752,149.8,97.7,0.492
26.74,31822.8,34534.4,-0.8125,-1.1463,149.8,97.7,0.492
26.76,31722.8,34443.6,-1.2712,-1.3701,149.8,97.7,0.492
26.78,31788.6,34495.1,-0.9696,-1.2431,149.8,97.7,0.492
26.8,31870.2,34666.4,-0.5951,-0.8214,149.8,97.7,0.492
26.82,32068.3,35057.6,0.3134,0.1422,149.8,97.7,0.492
26.84,32126.4,35380.6,0.5796,0.9378,149.8,97.7,0.492
26.86,32310.8,35672.8,1.4253,1.6576,149.8,97.7,0.492
26.88,32395.3,35782.0,1.8129,1.9265,149.8,97.7,0.492
26.9,32287.4,35591.7,1.3183,1.4577,149.8,97.7,0.492
26.92,32153.0,35397.8,0.7018,0.9803,149.8,97.7,0.492
26.94,32122.3,35370.9,0.5608,0.914,149.8,97.7,0.492
26.96,32015.4,35165.4,0.0709,0.4077,149.8,97.7,0.492
26.98,32015.2,35078.4,0.0699,0.1935,149.8,97.7,0.492
27.0,32113.3,35015.2,0.5198,0.0379,149.8,97.7,0.492
27.02,31996.7,34952.7,-0.0153,-0.1161,149.8,97.7,0.492
27.04,31964.6,34820.8,-0.1621,-0.441,149.8,97.7,0.492
27.06,31837.6,34725.5,-0.7448,-0.6756,149.8,97.7,0.492
27.08,31788.4,34594.6,-0.9704,-0.9982,149.8,97.7,0.492
27.1,31832.0,34731.1,-0.7703,-0.6618,149.8,97.7,0.492
27.12,31877.9,34633.6,-0.5599,-0.9021,149.8,97.7,0.492
27.14,31803.6,34551.4,-0.9006,-1.1045,149.8,97.7,0.492
27.16,31766.2,34448.6,-1.0725,-1.3578,149.8,97.7,0.492
27.18,31790.1,34561.0,-0.9626,-1.081,149.8,97.7,0.492
27.2,31859.3,34711.8,-0.6455,-0.7096,149.8,97.7,0.492
27.22,32034.2,34977.3,0.1568,-0.0554,149.8,97.7,0.492
27.24,32162.1,35470.5,0.7436,1.1593,149.8,97.7,0.492
27.26,32420.7,35623.1,1.9294,1.5352,149.8,97.7,0.492
27.28,32389.0,35707.4,1.7843,1.7427,149.8,97.7,0.492
27.3,32274.7,35622.7,1.2599,1.5342,149.8,97.7,0.492
27.32,32241.8,35453.4,1.1088,1.1172,149.8,97.7,0.492
27.34,32066.8,35191.1,0.3064,0.4711,149.8,97.7,0.492
27.36,32040.9,35214.2,0.1877,0.5279,149.8,97.7,0.492
27.38,31964.4,34988.8,-0.1633,-0.0273,149.8,97.7,0.492
27.4,32004.6,35001.8,0.0212,0.0049,149.8,97.7,0.492
27.42,31932.3,34907.4,-0.3106,-0.2277,149.8,97.7,0.492
27.44,31869.7,34847.0,-0.5976,-0.3765,149.8,97.7,0.492
27.46,31888.4,34689.8,-0.5118,-0.7636,149.8,97.7,0.492
27.48,31779.7,34620.6,-1.0104,-0.9342,149.8,97.7,0.492
27.5,31837.1,34571.9,-0.7469,-1.0541,149.8,97.7,0.492
27.52,31822.8,34627.0,-0.8126,-0.9183,149.8,97.7,0.492
27.54,31842.5,34583.4,-0.7224,-1.0257,149.8,97.7,0.492
27.56,31716.2,34445.7,-1.3015,-1.365,149.8,97.7,0.492
27.58,31730.7,34515.3,-1.2352,-1.1935,149.8,97.7,0.492
27.6,31891.7,34687.3,-0.4966,-0.7698,149.8,97.7,0.492
27.62,32028.7,34983.1,0.1318,-0.0413,149.8,97.7,0.492
27.64,32117.2,35362.8,0.5374,0.894,149.8,97.7,0.492
27.66,32318.0,35708.4,1.4584,1.7452,149.8,97.7,0.492
27.68,32341.4,35761.6,1.5658,1.8762,149.8,97.7,0.492
27.7,32285.9,35679.6,1.3113,1.6743,149.8,97.7,0.492
27.72,32126.7,35462.0,0.581,1.1384,149.8,97.7,0.492
27.74,32173.9,35301.6,0.7977,0.7433,149.8,97.7,0.492
27.76,32061.4,35186.0,0.2817,0.4585,149.8,97.7,0.492
27.78,32096.8,35104.0,0.4441,0.2566,149.8,97.7,0.492
27.8,31995.3,35045.1,-0.0214,0.1115,149.8,97.7,0.492
27.82,31970.4,34933.6,-0.1355,-0.1631,149.8,97.7,0.492
27.84,31981.5,34715.3,-0.0849,-0.7008,149.8,97.7,0.492
27.86,31842.2,34658.4,-0.7236,-0.8411,149.8,97.7,0.492
27.88,31851.1,34742.4,-0.6829,-0.6342,149.8,97.7,0.492
27.9,31817.0,34647.9,-0.8392,-0.8669,149.8,97.7,0.492
27.92,31784.1,34573.9,-0.99,-1.0492,149.8,97.7,0.492
27.94,31818.5,34418.1,-0.8323,-1.4328,149.8,97.7,0.492
27.96,31738.6,34498.3,-1.1991,-1.2353,149.8,97.7,0.492
27.98,31733.9,34522.0,-1.2205,-1.177,149.8,97.7,0.492
28.0,31840.9,34621.4,-0.7298,-0.9322,149.8,97.7,0.492
28.02,32001.8,35032.6,0.0081,0.0807,149.8,97.7,0.492
28.04,32274.9,35328.4,1.2608,0.8092,149.8,97.7,0.492
28.06,32379.6,35708.2,1.7408,1.7447,149.8,97.7,0.492
28.08,32352.3,35745.9,1.6157,1.8377,149.8,97.7,0.492
28.1,32242.4,35517.7,1.1117,1.2755,149.8,97.7,0.492
28.12,32174.4,35433.8,0.7999,1.069,149.8,97.7,0.492
28.14,32115.4,35235.6,0.5291,0.5807,149.8,97.7,0.492
28.16,32074.3,35013.5,0.341,0.0337,149.8,97.7,0.492
28.18,31960.7,35056.1,-0.1802,0.1387,149.8,97.7,0.492
28.2,32108.2,35044.8,0.4963,0.1108,149.8,97.7,0.492
28.22,31910.4,34870.2,-0.4108,-0.3194,149.8,97.7,0.492
28.24,32033.5,34860.8,0.1539,-0.3426,149.8,97.7,0.492
28.26,31831.8,34757.6,-0.7714,-0.5967,149.8,97.7,0.492
28.28,31862.9,34706.4,-0.6288,-0.7227,149.8,97.7,0.492
28.3,31824.2,34671.2,-0.8062,-0.8096,149.8,97.7,0.492
28.32,31890.5,34685.2,-0.5021,-0.7749,149.8,97.7,0.492
28.34,31811.8,34577.9,-0.863,-1.0392,149.8,97.7,0.492
28.36,31795.4,34542.7,-0.9384,-1.1259,149.8,97.7,0.492
28.38,31788.1,34511.9,-0.972,-1.2018,149.8,97.7,0.492
28.4,31826.7,34670.8,-0.7948,-0.8105,149.8,97.7,0.492
28.42,31999.4,35053.8,-0.0029,0.1328,149.8,97.7,0.492
28.44,32201.2,35352.6,0.9228,0.8688,149.8,97.7,0.492
28.46,32247.6,35694.0,1.1354,1.7098,149.8,97.7,0.492
28.48,32353.3,35735.0,1.6204,1.8108,149.8,97.7,0.492
28.5,32220.6,35625.5,1.0116,1.5411,149.8,97.7,0.492
28.52,32290.4,35451.4,1.3319,1.1122,149.8,97.7,0.492
28.54,32180.0,35251.6,0.8257,0.6202,149.8,97.7,0.492
28.56,32084.3,35131.9,0.3867,0.3253,149.8,97.7,0.492
28.58,32004.7,35157.2,0.0217,0.3877,149.8,97.7,0.492
28.6,32066.5,35048.1,0.305,0.119,149.8,97.7,0.492
28.62,32061.6,34925.5,0.2828,-0.1832,149.8,97.7,0.492
28.64,31919.4,34808.2,-0.3696,-0.472,149.8,97.7,0.492
28.66,31917.6,34766.3,-0.3781,-0.5751,149.8,97.7,0.492
28.68,31806.9,34664.2,-0.8858,-0.8266,149.8,97.7,0.492
28.7,31843.2,34611.0,-0.719,-0.9578,149.8,97.7,0.492
28.72,31847.6,34638.0,-0.6991,-0.8912,149.8,97.7,0.492
28.74,31669.7,34550.5,-1.515,-1.1068,149.8,97.7,0.492
28.76,31730.3,34392.0,-1.2369,-1.4972,149.8,97.7,0.492
28.78,31747.2,34428.6,-1.1596,-1.407,149.8,97.7,0.492
28.8,31898.2,34688.4,-0.4669,-0.767,149.8,97.7,0.492
28.82,32019.0,34988.8,0.0873,-0.0272,149.8,97.7,0.492
28.84,32155.9,35327.0,0.7151,0.8059,149.8,97.7,0.492
28.86,32256.4,35738.0,1.1758,1.8181,149.8,97.7,0.492
28.88,32270.4,35719.5,1.2403,1.7726,149.8,97.7,0.492
28.9,32318.1,35640.3,1.4589,1.5775,149.8,97.7,0.492
28.92,32176.1,35521.0,0.8078,1.2837,149.8,97.7,0.492
28.94,32100.4,35319.2,0.4604,0.7865,149.8,97.7,0.492
28.96,32049.3,35173.2,0.2259,0.4271,149.8,97.7,0.492
28.98,32041.9,35126.8,0.1921,0.3128,149.8,97.7,0.492
29.0,32052.8,34998.4,0.2421,-0.0035,149.8,97.7,0.492
29.02,31998.8,34961.9,-0.0055,-0.0934,149.8,97.7,0.492
29.04,31927.6,34840.7,-0.3321,-0.392,149.8,97.7,0.492
29.06,31884.3,34637.0,-0.5308,-0.8936,149.8,97.7,0.492
29.08,31844.9,34631.6,-0.7112,-0.9071,149.8,97.7,0.492
29.1,31895.8,34636.5,-0.4778,-0.8949,149.8,97.7,0.492
29.12,31896.9,34660.5,-0.4727,-0.8358,149.8,97.7,0.492
29.14,31707.4,34509.9,-1.3419,-1.2067,149.8,97.7,0.492
29.16,31646.4,34437.4,-1.6216,-1.3855,149.8,97.7,0.492
29.18,31756.5,34479.0,-1.1166,-1.2829,149.8,97.7,0.492
29.2,31855.9,34665.8,-0.6608,-0.8228,149.8,97.7,0.492
29.22,31922.7,35056.3,-0.3547,0.1391,149.8,97.7,0.492
29.24,32209.1,35416.2,0.9592,1.0256,149.8,97.7,0.492
29.26,32360.4,35589.7,1.653,1.453,149.8,97.7,0.492
29.28,32445.1,35816.4,2.0415,2.0113,149.8,97.7,0.492
29.3,32339.5,35678.7,1.557,1.672,149.8,97.7,0.492
29.32,32262.3,35477.0,1.2029,1.1754,149.8,97.7,0.492
29.34,32061.1,35203.0,0.2805,0.5003,149.8,97.7,0.492
29.36,32062.6,35200.0,0.2873,0.4931,149.8,97.7,0.492
29.38,31988.6,35144.3,-0.0521,0.3559,149.8,97.7,0.492
29.4,31975.3,34970.2,-0.1134,-0.0729,149.8,97.7,0.492
29.42,31899.0,34892.6,-0.463,-0.2641,149.8,97.7,0.492
29.44,31819.3,34830.0,-0.8288,-0.4183,149.8,97.7,0.492
29.46,31937.9,34759.8,-0.2846,-0.5913,149.8,97.7,0.492
29.48,31891.8,34706.9,-0.4962,-0.7216,149.8,97.7,0.492
29.5,31902.7,34728.8,-0.446,-0.6675,149.8,97.7,0.492
29.52,31768.4,34522.8,-1.0624,-1.1749,149.8,97.7,0.492
29.54,31801.1,34651.5,-0.9122,-0.858,149.8,97.7,0.492
29.56,31771.7,34382.1,-1.047,-1.5216,149.8,97.7,0.492
29.58,31753.9,34380.9,-1.1288,-1.5245,149.8,97.7,0.492
29.6,31949.6,34686.1,-0.2312,-0.7727,149.8,97.7,0.492
29.62,32024.6,35042.7,0.1131,0.1055,149.8,97.7,0.492
29.64,32153.7,35287.0,0.7049,0.7074,149.8,97.7,0.492
29.66,32248.2,35588.1,1.1384,1.4491,149.8,97.7,0.492
29.68,32400.1,35747.8,1.8352,1.8423,149.8,97.7,0.492
29.7,32295.0,35591.3,1.3532,1.4568,149.8,97.7,0.492
29.72,32225.7,35466.7,1.0351,1.15,149.8,97.7,0.492
29.74,32090.0,35249.2,0.4126,0.6142,149.8,97.7,0.492
29.76,31953.0,35121.9,-0.2153,0.3006,149.8,97.7,0.492
29.78,32033.8,35117.8,0.1548,0.2906,149.8,97.7,0.492
29.8,32082.9,35035.5,0.3804,0.0878,149.8,97.7,0.492
29.82,31962.9,34936.5,-0.1702,-0.1559,149.8,97.7,0.492
29.84,31954.7,34804.2,-0.2076,-0.4819,149.8,97.7,0.492
29.86,31863.9,34709.8,-0.6241,-0.7145,149.8,97.7,0.492
29.88,31848.4,34779.6,-0.6953,-0.5424,149.8,97.7,0.492
29.9,31849.7,34672.8,-0.6892,-0.8056,149.8,97.7,0.492
29.92,31889.1,34737.7,-0.5088,-0.6456,149.8,97.7,0.492
29.94,31780.8,34512.3,-1.0053,-1.2009,149.8,97.7,0.492
29.96,31733.6,34441.5,-1.2217,-1.3753,149.8,97.7,0.492
29.98,31795.0,34457.8,-0.94,-1.335,149.8,97.7,0.492
30.0,31787.3,34647.3,-0.9754,-0.8683,149.8,97.7,0.492
30.02,31957.8,34879.4,-0.1937,-0.2966,149.8,97.7,0.492
30.04,32124.5,35373.4,0.5709,0.9202,149.8,97.7,0.492
30.06,32329.8,35666.5,1.5128,1.642,149.8,97.7,0.492
30.08,32412.2,35775.3,1.8906,1.91,149.8,97.7,0.492
30.1,32265.4,35670.8,1.2172,1.6525,149.8,97.7,0.492
30.12,32212.0,35463.3,0.9724,1.1415,149.8,97.7,0.492
30.14,32100.9,35312.8,0.4626,0.7707,149.8,97.7,0.492
30.16,32032.8,35179.0,0.1506,0.4414,149.8,97.7,0.492
30.18,32037.9,35086.4,0.1739,0.2132,149.8,97.7,0.492
30.2,32099.8,35057.1,0.4578,0.1411,149.8,97.7,0.492
30.22,31932.2,34946.9,-0.311,-0.1305,149.8,97.7,0.492
30.24,32038.3,34817.2,0.1756,-0.4498,149.8,97.7,0.492
30.26,31888.8,34823.5,-0.5101,-0.4343,149.8,97.7,0.492
30.28,31704.2,34645.7,-1.3564,-0.8724,149.8,97.7,0.492
30.3,31867.3,34695.1,-0.6086,-0.7507,149.8,97.7,0.492
30.32,31757.4,34632.7,-1.1127,-0.9042,149.8,97.7,0.492
30.34,31761.5,34628.0,-1.0938,-0.916,149.8,97.7,0.492
30.36,31664.7,34423.9,-1.5378,-1.4186,149.8,97.7,0.492
30.38,31806.4,34487.3,-0.8878,-1.2625,149.8,97.7,0.492
30.4,31868.5,34586.3,-0.6031,-1.0187,149.8,97.7,0.492
30.42,32029.4,34872.8,0.1349,-0.3128,149.8,97.7,0.492
30.44,32149.8,35407.3,0.6871,1.0035,149.8,97.7,0.492
30.46,32180.3,35685.5,0.8271,1.689,149.8,97.7,0.492
30.48,32397.1,35799.4,1.8214,1.9695,149.8,97.7,0.492
30.5,32289.0,35675.8,1.3252,1.6648,149.8,97.7,0.492
30.52,32254.2,35484.4,1.1661,1.1936,149.8,97.7,0.492
30.54,32084.1,35233.0,0.3859,0.5743,149.8,97.7,0.492
30.56,32154.0,35186.8,0.7065,0.4606,149.8,97.7,0.492
30.58,32079.7,35147.1,0.3656,0.3628,149.8,97.7,0.492
30.6,31973.1,34930.3,-0.1236,-0.1713,149.8,97.7,0.492
30.62,31896.2,34872.2,-0.4762,-0.3145,149.8,97.7,0.492
30.64,31889.8,34787.6,-0.5052,-0.5227,149.8,97.7,0.492
30.66,31933.1,34864.3,-0.3067,-0.3338,149.8,97.7,0.492
30.68,31906.3,34647.5,-0.4298,-0.8678,149.8,97.7,0.492
30.7,31887.6,34742.2,-0.5156,-0.6346,149.8,97.7,0.492
30.72,31732.9,34684.0,-1.2251,-0.7778,149.8,97.7,0.492
30.74,31839.4,34558.9,-0.7366,-1.0862,149.8,97.7,0.492
30.76,31799.7,34520.5,-0.9185,-1.1808,149.8,97.7,0.492
30.78,31752.8,34395.1,-1.1338,-1.4894,149.8,97.7,0.492
30.8,31815.9,34654.6,-0.8442,-0.8504,149.8,97.7,0.492
30.82,32073.3,34966.8,0.3362,-0.0813,149.8,97.7,0.492
30.84,32191.9,35346.8,0.8802,0.8545,149.8,97.7,0.492
30.86,32417.8,35670.9,1.9163,1.6529,149.8,97.7,0.492
30.88,32318.1,35718.5,1.459,1.7702,149.8,97.7,0.492
30.9,32333.8,35661.0,1.531,1.6286,149.8,97.7,0.492
30.92,32321.7,35424.8,1.4754,1.0468,149.8,97.7,0.492
30.94,32122.8,35233.2,0.5633,0.5748,149.8,97.7,0.492
30.96,32105.0,35151.2,0.4817,0.3729,149.8,97.7,0.492
30.98,31995.3,35155.3,-0.0215,0.383,149.8,97.7,0.492
31.0,32045.2,35035.5,0.2073,0.0878,149.8,97.7,0.492
31.02,31885.4,35012.6,-0.5258,0.0313,149.8,97.7,0.492
31.04,31897.8,34862.3,-0.4685,-0.3389,149.8,97.7,0.492
31.06,31848.4,34714.3,-0.6951,-0.7034,149.8,97.7,0.492
31.08,31902.4,34625.6,-0.4477,-0.9218,149.8,97.7,0.492
31.1,32046.3,34600.6,0.2124,-0.9833,149.8,97.7,0.492
31.12,31898.7,34642.9,-0.4645,-0.8791,149.8,97.7,0.492
31.14,31763.3,34527.6,-1.0857,-1.1632,149.8,97.7,0.492
31.16,31810.2,34472.5,-0.8704,-1.2989,149.8,97.7,0.492
31.18,31786.8,34456.8,-0.9776,-1.3375,149.8,97.7,0.492
31.2,31854.6,34620.4,-0.667,-0.9345,149.8,97.7,0.492
31.22,31910.4,34973.9,-0.4111,-0.0639,149.8,97.7,0.492
31.24,32180.9,35260.2,0.8298,0.6414,149.8,97.7,0.492
31.26,32264.0,35626.7,1.2107,1.544,149.8,97.7,0.492
31.28,32302.0,35736.9,1.3852,1.8155,149.8,97.7,0.492
31.3,32238.9,35672.6,1.0958,1.6571,149.8,97.7,0.492
31.32,32189.8,35532.3,0.8706,1.3115,149.8,97.7,0.492
31.34,32037.3,35306.8,0.1709,0.756,149.8,97.7,0.492
31.36,32050.4,35073.6,0.2313,0.1816,149.8,97.7,0.492
31.38,32024.5,35102.6,0.1122,0.2532,149.8,97.7,0.492
31.4,32030.5,35141.8,0.1399,0.3497,149.8,97.7,0.492
31.42,31955.2,34961.2,-0.2052,-0.0951,149.8,97.7,0.492
31.44,31999.7,34777.0,-0.0012,-0.5489,149.8,97.7,0.492
31.46,31889.9,34643.1,-0.5051,-0.8786,149.8,97.7,0.492
31.48,31865.4,34702.6,-0.6173,-0.7321,149.8,97.7,0.492
31.5,31877.4,34619.2,-0.5624,-0.9375,149.8,97.7,0.492
31.52,31825.7,34638.2,-0.7995,-0.8907,149.8,97.7,0.492
31.54,31852.5,34593.6,-0.6765,-1.0007,149.8,97.7,0.492
31.56,31901.2,34536.4,-0.4532,-1.1415,149.8,97.7,0.492
31.58,31670.5,34511.8,-1.5113,-1.2022,149.8,97.7,0.492
31.6,31807.2,34694.5,-0.8841,-0.7521,149.8,97.7,0.492
31.62,31912.7,34934.3,-0.4003,-0.1614,149.8,97.7,0.492
31.64,32178.5,35284.3,0.8187,0.7007,149.8,97.7,0.492
31.66,32311.7,35603.5,1.4294,1.487,149.8,97.7,0.492
31.68,32305.6,35807.8,1.4018,1.9902,149.8,97.7,0.492
31.7,32341.0,35686.8,1.5638,1.692,149.8,97.7,0.492
31.72,32196.2,35421.9,0.8998,1.0396,149.8,97.7,0.492
31.74,32165.7,35295.2,0.76,0.7276,149.8,97.7,0.492
31.76,32183.3,35137.3,0.8407,0.3386,149.8,97.7,0.492
31.78,32062.7,35095.8,0.2877,0.2363,149.8,97.7,0.492
31.8,31976.1,35149.4,-0.1094,0.3684,149.8,97.7,0.492
31.82,31993.8,34991.6,-0.0282,-0.0203,149.8,97.7,0.492
31.84,31942.0,34787.5,-0.266,-0.5231,149.8,97.7,0.492
31.86,31932.9,34738.9,-0.3075,-0.6428,149.8,97.7,0.492
31.88,31873.2,34696.4,-0.5813,-0.7474,149.8,97.7,0.492
31.9,31860.3,34630.5,-0.6405,-0.9096,149.8,97.7,0.492
31.92,31777.3,34653.7,-1.0211,-0.8526,149.8,97.7,0.492
31.94,31817.5,34603.8,-0.837,-0.9755,149.8,97.7,0.492
31.96,31759.6,34476.5,-1.1026,-1.289,149.8,97.7,0.492
31.98,31743.2,34449.8,-1.1778,-1.3548,149.8,97.7,0.492
32.0,31845.8,34642.7,-0.7073,-0.8796,149.8,97.7,0.492
32.02,31974.8,35002.0,-0.1154,0.0052,149.8,97.7,0.492
32.04,32104.7,35193.2,0.4803,0.4764,149.8,97.7,0.492
32.06,32386.7,35609.5,1.7736,1.5017,149.8,97.7,0.492
32.08,32363.5,35774.8,1.6672,1.9088,149.8,97.7,0.492
32.1,32265.3,35776.1,1.217,1.912,149.8,97.7,0.492
32.12,32321.4,35518.7,1.4742,1.2779,149.8,97.7,0.492
32.14,32130.1,35348.9,0.5969,0.8598,149.8,97.7,0.492
32.16,32038.4,35191.0,0.1762,0.4708,149.8,97.7,0.492
32.18,32055.1,35009.1,0.2528,0.0228,149.8,97.7,0.492
32.2,32060.4,35042.3,0.2772,0.1047,149.8,97.7,0.492
32.22,31933.9,34981.0,-0.3032,-0.0465,149.8,97.7,0.492
32.24,31938.6,34794.1,-0.2817,-0.5068,149.8,97.7,0.492
32.26,31927.0,34752.3,-0.3347,-0.6098,149.8,97.7,0.492
32.28,31896.4,34662.6,-0.4753,-0.8306,149.8,97.7,0.492
32.3,31940.2,34589.8,-0.2742,-1.0099,149.8,97.7,0.492
32.32,31774.3,34707.4,-1.0349,-0.7203,149.8,97.7,0.492
32.34,31757.2,34534.8,-1.1134,-1.1455,149.8,97.7,0.492
32.36,31735.8,34315.9,-1.2119,-1.6847,149.8,97.7,0.492
32.38,31711.5,34406.5,-1.323,-1.4616,149.8,97.7,0.492
32.4,31848.0,34590.4,-0.6972,-1.0085,149.8,97.7,0.492
32.42,31939.6,34932.8,-0.2768,-0.1651,149.8,97.7,0.492
32.44,32237.7,35258.7,1.0901,0.6376,149.8,97.7,0.492
32.46,32258.0,35619.5,1.1833,1.5262,149.8,97.7,0.492
32.48,32282.3,35788.8,1.2946,1.9433,149.8,97.7,0.492
32.5,32285.1,35560.1,1.3076,1.38,149.8,97.7,0.492
32.52,32283.7,35547.8,1.3009,1.3496,149.8,97.7,0.492
32.54,32176.5,35284.2,0.8097,0.7004,149.8,97.7,0.492
32.56,32050.4,35234.2,0.2313,0.5771,149.8,97.7,0.492
32.58,32045.0,35075.2,0.2063,0.1856,149.8,97.7,0.492
32.6,32091.9,35066.8,0.4216,0.1649,149.8,97.7,0.492
32.62,32000.0,34935.8,-0.0001,-0.1578,149.8,97.7,0.492
32.64,32036.1,34843.1,0.1654,-0.386,149.8,97.7,0.492
32.66,31885.9,34684.1,-0.5233,-0.7776,149.8,97.7,0.492
32.68,31811.9,34664.0,-0.8627,-0.8272,149.8,97.7,0.492
32.7,31804.4,34716.9,-0.897,-0.6969,149.8,97.7,0.492
32.72,31874.4,34638.9,-0.5759,-0.889,149.8,97.7,0.492
32.74,31783.8,34528.9,-0.9913,-1.1599,149.8,97.7,0.492
32.76,31736.5,34485.2,-1.2086,-1.2677,149.8,97.7,0.492
32.78,31672.9,34407.8,-1.5,-1.4583,149.8,97.7,0.492
32.8,31742.9,34605.9,-1.179,-0.9703,149.8,97.7,0.492
32.82,32040.1,34858.8,0.1841,-0.3475,149.8,97.7,0.492
32.84,32035.3,35299.9,0.1621,0.739,149.8,97.7,0.492
32.86,32283.3,35613.6,1.2991,1.5118,149.8,97.7,0.492
32.88,32276.7,35582.0,1.2692,1.434,149.8,97.7,0.492
32.9,32434.9,35797.6,1.9944,1.9649,149.8,97.7,0.492
32.92,32250.4,35473.2,1.1482,1.1658,149.8,97.7,0.492
32.94,32162.9,35253.4,0.7471,0.6246,149.8,97.7,0.492
32.96,32031.7,35141.9,0.1456,0.3499,149.8,97.7,0.492
32.98,31993.9,35045.8,-0.0281,0.1131,149.8,97.7,0.492
33.0,32033.6,35053.1,0.1539,0.1313,149.8,97.7,0.492
33.02,31999.2,34921.6,-0.0038,-0.1928,149.8,97.7,0.492
33.04,31865.9,34871.2,-0.6148,-0.3169,149.8,97.7,0.492
33.06,31912.4,34781.0,-0.4018,-0.5391,149.8,97.7,0.492
33.08,31712.2,34665.7,-1.3201,-0.8231,149.8,97.7,0.492
33.1,31847.9,34706.9,-0.6974,-0.7216,149.8,97.7,0.492
33.12,31790.0,34610.8,-0.963,-0.9582,149.8,97.7,0.492
33.14,31776.3,34565.3,-1.026,-1.0702,149.8,97.7,0.492
33.16,31733.3,34484.0,-1.223,-1.2706,149.8,97.7,0.492
33.18,31796.3,34510.0,-0.9341,-1.2064,149.8,97.7,0.492
33.2,31929.1,34603.3,-0.3252,-0.9768,149.8,97.7,0.492
33.22,31957.9,34986.4,-0.1932,-0.033,149.8,97.7,0.492
33.24,32114.8,35334.4,0.5264,0.8239,149.8,97.7,0.492
33.26,32260.9,35620.7,1.1968,1.5292,149.8,97.7,0.492
33.28,32289.9,35807.3,1.3294,1.9889,149.8,97.7,0.492
33.3,32281.0,35733.6,1.2886,1.8074,149.8,97.7,0.492
33.32,32206.7,35563.9,0.948,1.3895,149.8,97.7,0.492
33.34,32179.5,35271.1,0.8234,0.6682,149.8,97.7,0.492
33.36,32008.5,35193.3,0.0391,0.4765,149.8,97.7,0.492
33.38,32032.8,35038.1,0.1503,0.0943,149.8,97.7,0.492
33.4,32015.5,35144.4,0.0713,0.356,149.8,97.7,0.492
33.42,31947.1,34949.7,-0.2425,-0.1235,149.8,97.7,0.492
33.44,31946.0,34878.6,-0.2477,-0.2985,149.8,97.7,0.492
33.46,31883.8,34745.3,-0.533,-0.627,149.8,97.7,0.492
33.48,31935.1,34737.5,-0.2976,-0.6462,149.8,97.7,0.492
33.5,31742.7,34606.5,-1.1801,-0.9689,149.8,97.7,0.492
33.52,31932.7,34772.8,-0.3088,-0.5593,149.8,97.7,0.492
33.54,31793.9,34568.7,-0.9452,-1.0619,149.8,97.7,0.492
33.56,31739.4,34476.0,-1.1953,-1.2902,149.8,97.7,0.492
33.58,31697.9,34468.7,-1.3857,-1.3082,149.8,97.7,0.492
33.6,31793.5,34570.4,-0.947,-1.0577,149.8,97.7,0.492
33.62,31881.8,34852.8,-0.542,-0.3622,149.8,97.7,0.492
33.64,32155.9,35277.8,0.7152,0.6847,149.8,97.7,0.492
33.66,32304.3,35609.1,1.3957,1.5006,149.8,97.7,0.492
33.68,32351.6,35770.4,1.6123,1.8979,149.8,97.7,0.492
33.7,32395.5,35697.0,1.8141,1.7171,149.8,97.7,0.492
33.72,32199.2,35533.2,0.9138,1.3137,149.8,97.7,0.492
33.74,32103.9,35334.7,0.4764,0.8249,149.8,97.7,0.492
33.76,31979.1,35146.8,-0.0957,0.3619,149.8,97.7,0.492
33.78,32116.6,35128.0,0.5346,0.3157,149.8,97.7,0.492
33.8,32002.1,35051.9,0.0095,0.1282,149.8,97.7,0.492
33.82,32050.1,34970.3,0.2296,-0.0727,149.8,97.7,0.492
33.84,31958.0,34873.6,-0.1926,-0.3109,149.8,97.7,0.492
33.86,31871.7,34785.5,-0.5885,-0.528,149.8,97.7,0.492
33.88,31871.4,34769.2,-0.5897,-0.5681,149.8,97.7,0.492
33.9,31825.4,34645.6,-0.8008,-0.8725,149.8,97.7,0.492
33.92,31812.2,34764.9,-0.8614,-0.5787,149.8,97.7,0.492
33.94,31826.7,34586.0,-0.795,-1.0192,149.8,97.7,0.492
33.96,31799.6,34463.6,-0.919,-1.3207,149.8,97.7,0.492
33.98,31748.8,34472.0,-1.1519,-1.3001,149.8,97.7,0.492
34.0,31772.6,34577.3,-1.0431,-1.0406,149.8,97.7,0.492
34.02,31965.9,34846.8,-0.1564,-0.3771,149.8,97.7,0.492
34.04,32090.5,35283.0,0.4153,0.6975,149.8,97.7,0.492
34.06,32199.2,35590.0,0.9136,1.4536,149.8,97.7,0.492
34.08,32226.4,35766.3,1.0381,1.8879,149.8,97.7,0.492
34.1,32328.0,35694.4,1.5044,1.7108,149.8,97.7,0.492
34.12,32239.8,35572.4,1.0997,1.4103,149.8,97.7,0.492
34.14,32092.2,35305.1,0.423,0.752,149.8,97.7,0.492
34.16,32101.2,35160.1,0.464,0.3947,149.8,97.7,0.492
34.18,32011.0,35120.6,0.0505,0.2974,149.8,97.7,0.492
34.2,31975.2,35070.6,-0.1137,0.1744,149.8,97.7,0.492
34.22,31959.3,34925.3,-0.1868,-0.1836,149.8,97.7,0.492
34.24,31988.6,34819.4,-0.0521,-0.4445,149.8,97.7,0.492
34.26,31932.1,34705.4,-0.3112,-0.7251,149.8,97.7,0.492
34.28,31883.1,34577.4,-0.5362,-1.0404,149.8,97.7,0.492
34.3,31831.9,34656.1,-0.771,-0.8466,149.8,97.7,0.492
34.32,31873.1,34631.7,-0.5818,-0.9069,149.8,97.7,0.492
34.34,31873.3,34595.1,-0.5811,-0.997,149.8,97.7,0.492
34.36,31783.9,34461.0,-0.9909,-1.3273,149.8,97.7,0.492
34.38,31710.3,34420.4,-1.3285,-1.4271,149.8,97.7,0.492
34.4,31772.7,34565.6,-1.0427,-1.0696,149.8,97.7,0.492
34.42,31938.8,34894.2,-0.2807,-0.2601,149.8,97.7,0.492
34.44,32070.9,35232.6,0.3253,0.5733,149.8,97.7,0.492
34.46,32253.1,35577.3,1.161,1.4224,149.8,97.7,0.492
34.48,32333.1,35753.2,1.5276,1.8555,149.8,97.7,0.492
34.5,32361.5,35587.2,1.6579,1.4467,149.8,97.7,0.492
34.52,32267.3,35500.3,1.226,1.2326,149.8,97.7,0.492
34.54,32137.0,35380.2,0.6285,0.937,149.8,97.7,0.492
34.56,32045.2,35193.8,0.2072,0.4777,149.8,97.7,0.492
34.58,32092.1,35072.6,0.4225,0.1793,149.8,97.7,0.492
34.6,31970.0,35042.8,-0.1376,0.1059,149.8,97.7,0.492
34.62,31943.1,34904.1,-0.2609,-0.2359,149.8,97.7,0.492
34.64,31905.4,34856.9,-0.434,-0.3521,149.8,97.7,0.492
34.66,31784.1,34694.4,-0.9901,-0.7524,149.8,97.7,0.492
34.68,31833.4,34614.9,-0.764,-0.9482,149.8,97.7,0.492
34.7,31845.9,34621.0,-0.7067,-0.9331,149.8,97.7,0.492
34.72,31899.5,34667.8,-0.4609,-0.8179,149.8,97.7,0.492
34.74,31809.1,34587.5,-0.8754,-1.0157,149.8,97.7,0.492
34.76,31689.6,34553.4,-1.4234,-1.0997,149.8,97.7,0.492
34.78,31750.1,34449.3,-1.1463,-1.3561,149.8,97.7,0.492
34.8,31817.4,34643.4,-0.8374,-0.878,149.8,97.7,0.492
34.82,31993.4,34921.2,-0.0304,-0.1938,149.8,97.7,0.492
34.84,32038.5,35204.5,0.1767,0.5042,149.8,97.7,0.492
34.86,32334.4,35616.6,1.5339,1.519,149.8,97.7,0.492
34.88,32313.5,35733.7,1.4379,1.8075,149.8,97.7,0.492
34.9,32324.8,35705.1,1.4897,1.7372,149.8,97.7,0.492
34.92,32170.4,35533.7,0.7817,1.315,149.8,97.7,0.492
34.94,32132.4,35288.9,0.6075,0.7121,149.8,97.7,0.492
34.96,32102.7,35144.8,0.4709,0.3571,149.8,97.7,0.492
34.98,32041.4,35015.1,0.1898,0.0375,149.8,97.7,0.492
35.0,32074.4,35107.8,0.3413,0.266,149.8,97.7,0.492
35.02,32020.4,34881.6,0.0937,-0.2912,149.8,97.7,0.492
35.04,31879.6,34842.9,-0.5522,-0.3866,149.8,97.7,0.492
35.06,31772.4,34751.3,-1.0439,-0.6122,149.8,97.7,0.492
35.08,31892.3,34659.4,-0.4941,-0.8384,149.8,97.7,0.492
35.1,31814.4,34645.5,-0.851,-0.8727,149.8,97.7,0.492
35.12,31893.1,34622.2,-0.4903,-0.9302,149.8,97.7,0.492
35.14,31833.6,34655.0,-0.7631,-0.8493,149.8,97.7,0.492
35.16,31827.1,34555.2,-0.7932,-1.0952,149.8,97.7,0.492
35.18,31744.6,34545.3,-1.1714,-1.1196,149.8,97.7,0.492
35.2,31959.1,34639.1,-0.1876,-0.8886,149.8,97.7,0.492
35.22,31947.2,34823.2,-0.2424,-0.435,149.8,97.7,0.492
35.24,32085.5,35140.1,0.3923,0.3454,149.8,97.7,0.492
35.26,32296.4,35676.8,1.3595,1.6675,149.8,97.7,0.492
35.28,32314.3,35740.6,1.4415,1.8246,149.8,97.7,0.492
35.3,32333.7,35699.4,1.5304,1.7231,149.8,97.7,0.492
35.32,32158.9,35482.2,0.7288,1.1881,149.8,97.7,0.492
35.34,32159.6,35338.1,0.7318,0.8333,149.8,97.7,0.492
35.36,32086.4,35124.6,0.3963,0.3072,149.8,97.7,0.492
35.38,32022.7,35111.8,0.1043,0.2757,149.8,97.7,0.492
35.4,32070.4,35174.5,0.3231,0.4301,149.8,97.7,0.492
35.42,32018.2,34913.8,0.0834,-0.212,149.8,97.7,0.492
35.44,31929.9,34886.6,-0.3214,-0.279,149.8,97.7,0.492
35.46,31902.9,34687.7,-0.4454,-0.7687,149.8,97.7,0.492
35.48,31876.7,34668.2,-0.5653,-0.8168,149.8,97.7,0.492
35.5,31892.9,34670.4,-0.491,-0.8115,149.8,97.7,0.492
35.52,31838.9,34593.3,-0.739,-1.0014,149.8,97.7,0.492
35.54,31788.1,34637.5,-0.9719,-0.8926,149.8,97.7,0.492
35.56,31852.0,34552.7,-0.6785,-1.1015,149.8,97.7,0.492
35.58,31672.2,34460.3,-1.5032,-1.3289,149.8,97.7,0.492
35.6,31832.1,34498.5,-0.7701,-1.2348,149.8,97.7,0.492
35.62,31960.5,34867.6,-0.1813,-0.3258,149.8,97.7,0.492
35.64,32228.9,35184.3,1.0499,0.4544,149.8,97.7,0.492
35.66,32178.3,35570.9,0.818,1.4066,149.8,97.7,0.492
35.68,32313.2,35768.7,1.4362,1.8939,149.8,97.7,0.492
35.7,32347.5,35741.0,1.5937,1.8256,149.8,97.7,0.492
35.72,32171.1,35550.8,0.7846,1.357,149.8,97.7,0.492
35.74,32153.3,35314.3,0.7033,0.7746,149.8,97.7,0.492
35.76,32141.0,35105.7,0.6469,0.2607,149.8,97.7,0.492
35.78,32055.8,35122.4,0.2559,0.302,149.8,97.7,0.492
35.8,32014.2,35059.1,0.0652,0.146,149.8,97.7,0.492
35.82,32032.6,34926.1,0.1494,-0.1817,149.8,97.7,0.492
35.84,32045.8,34860.5,0.21,-0.3432,149.8,97.7,0.492
35.86,31835.7,34877.9,-0.7535,-0.3003,149.8,97.7,0.492
35.88,31780.2,34654.6,-1.0078,-0.8503,149.8,97.7,0.492
35.9,31769.0,34624.1,-1.0593,-0.9255,149.8,97.7,0.492
35.92,31909.3,34607.6,-0.4158,-0.9662,149.8,97.7,0.492
35.94,31863.2,34566.0,-0.6275,-1.0687,149.8,97.7,0.492
35.96,31828.2,34465.3,-0.7881,-1.3165,149.8,97.7,0.492
35.98,31733.1,34470.7,-1.2242,-1.3032,149.8,97.7,0.492
36.0,31827.3,34637.1,-0.7921,-0.8935,149.8,97.7,0.492
36.02,31904.5,34888.9,-0.4378,-0.2732,149.8,97.7,0.492
36.04,32129.9,35181.4,0.5959,0.4471,149.8,97.7,0.492
36.06,32227.9,35601.6,1.0451,1.4823,149.8,97.7,0.492
36.08,32328.4,35730.1,1.5064,1.7988,149.8,97.7,0.492
36.1,32308.1,35707.8,1.413,1.7437,149.8,97.7,0.492
36.12,32258.2,35503.5,1.1843,1.2407,149.8,97.7,0.492
36.14,32121.1,35386.0,0.5556,0.9511,149.8,97.7,0.492
36.16,32222.9,35142.7,1.0223,0.3519,149.8,97.7,0.492
36.18,32053.7,35067.6,0.2464,0.1669,149.8,97.7,0.492
36.2,31981.1,35053.2,-0.0869,0.1314,149.8,97.7,0.492
36.22,31948.6,34866.2,-0.2357,-0.3291,149.8,97.7,0.492
36.24,31881.6,34966.3,-0.5432,-0.0825,149.8,97.7,0.492
36.26,31958.9,34760.5,-0.1885,-0.5894,149.8,97.7,0.492
36.28,31875.4,34737.9,-0.5713,-0.6451,149.8,97.7,0.492
36.3,31833.2,34652.5,-0.7649,-0.8554,149.8,97.7,0.492
36.32,31799.9,34618.3,-0.9178,-0.9397,149.8,97.7,0.492
36.34,31868.5,34618.6,-0.6033,-0.9389,149.8,97.7,0.492
36.36,31773.5,34536.4,-1.0386,-1.1414,149.8,97.7,0.492
36.38,31834.1,34409.2,-0.7609,-1.4548,149.8,97.7,0.492
36.4,31763.0,34643.8,-1.0869,-0.8769,149.8,97.7,0.492
36.42,31944.4,34894.6,-0.2551,-0.2591,149.8,97.7,0.492
36.44,32093.2,35173.1,0.4275,0.4268,149.8,97.7,0.492
36.46,32375.5,35604.5,1.7223,1.4894,149.8,97.7,0.492
36.48,32331.4,35841.3,1.52,2.0726,149.8,97.7,0.492
36.5,32314.1,35755.0,1.4408,1.8602,149.8,97.7,0.492
36.52,32241.9,35548.1,1.1094,1.3505,149.8,97.7,0.492
36.54,32203.2,35354.5,0.9321,0.8735,149.8,97.7,0.492
36.56,32107.5,35169.6,0.4929,0.4183,149.8,97.7,0.492
36.58,32004.3,35038.3,0.0197,0.0948,149.8,97.7,0.492
36.6,32022.1,35064.3,0.1013,0.1587,149.8,97.7,0.492
36.62,31980.3,34974.2,-0.0905,-0.0632,149.8,97.7,0.492
36.64,31966.4,34842.6,-0.1543,-0.3874,149.8,97.7,0.492
36.66,31882.9,34671.6,-0.5369,-0.8085,149.8,97.7,0.492
36.68,31944.8,34636.0,-0.2531,-0.8962,149.8,97.7,0.492
36.7,31874.2,34569.5,-0.5768,-1.0601,149.8,97.7,0.492
36.72,31873.3,34624.1,-0.581,-0.9256,149.8,97.7,0.492
36.74,31838.4,34644.3,-0.7413,-0.8757,149.8,97.7,0.492
36.76,31764.6,34484.0,-1.0795,-1.2705,149.8,97.7,0.492
36.78,31675.6,34425.1,-1.4877,-1.4156,149.8,97.7,0.492
36.8,31814.1,34500.6,-0.8527,-1.2296,149.8,97.7,0.492
36.82,31878.9,34835.3,-0.5553,-0.4053,149.8,97.7,0.492
36.84,32134.2,35136.9,0.6157,0.3375,149.8,97.7,0.492
36.86,32248.7,35496.2,1.1406,1.2225,149.8,97.7,0.492
36.88,32256.2,35768.4,1.1749,1.893,149.8,97.7,0.492
36.9,32277.0,35775.9,1.2705,1.9115,149.8,97.7,0.492
36.92,32274.2,35541.8,1.2574,1.3348,149.8,97.7,0.492
36.94,32265.7,35363.2,1.2184,0.895,149.8,97.7,0.492
36.96,32052.1,35078.9,0.239,0.1947,149.8,97.7,0.492
36.98,32061.4,35171.5,0.2819,0.4228,149.8,97.7,0.492
37.0,32023.1,34973.4,0.1061,-0.0651,149.8,97.7,0.492
37.02,31965.8,35063.1,-0.1569,0.1558,149.8,97.7,0.492
37.04,31934.0,34844.2,-0.3026,-0.3835,149.8,97.7,0.492
37.06,31922.6,34757.1,-0.3551,-0.5978,149.8,97.7,0.492
37.08,31786.3,34673.6,-0.9799,-0.8036,149.8,97.7,0.492
37.1,31895.7,34615.9,-0.4783,-0.9457,149.8,97.7,0.492
37.12,31753.9,34657.3,-1.1287,-0.8437,149.8,97.7,0.492
37.14,31825.1,34554.6,-0.8021,-1.0966,149.8,97.7,0.492
37.16,31732.8,34546.7,-1.2253,-1.1162,149.8,97.7,0.492
37.18,31740.7,34457.1,-1.1894,-1.3368,149.8,97.7,0.492
37.2,31844.5,34513.2,-0.7133,-1.1987,149.8,97.7,0.492
37.22,31991.9,34838.7,-0.0371,-0.397,149.8,97.7,0.492
37.24,31984.2,35158.5,-0.0724,0.3908,149.8,97.7,0.492
37.26,32237.7,35601.1,1.09,1.4809,149.8,97.7,0.492
37.28,32362.8,35782.5,1.6639,1.9279,149.8,97.7,0.492
37.3,32375.1,35654.6,1.7202,1.6127,149.8,97.7,0.492
37.32,32168.0,35485.9,0.7706,1.1973,149.8,97.7,0.492
37.34,32203.9,35303.0,0.9352,0.7466,149.8,97.7,0.492
37.36,32028.7,35190.2,0.1317,0.4689,149.8,97.7,0.492
37.38,32017.7,35123.7,0.0811,0.305,149.8,97.7,0.492
37.4,32060.6,35012.1,0.278,0.0302,149.8,97.7,0.492
37.42,32034.7,34977.2,0.1593,-0.0557,149.8,97.7,0.492
37.44,31975.4,34933.0,-0.1128,-0.1646,149.8,97.7,0.492
37.46,31921.8,34794.4,-0.3584,-0.5061,149.8,97.7,0.492
37.48,31895.0,34566.5,-0.4817,-1.0674,149.8,97.7,0.492
37.5,31782.9,34688.8,-0.9957,-0.7661,149.8,97.7,0.492
37.52,31825.8,34648.6,-0.7988,-0.8652,149.8,97.7,0.492
37.54,31786.4,34552.6,-0.9796,-1.1016,149.8,97.7,0.492
37.56,31783.2,34474.8,-0.9943,-1.2933,149.8,97.7,0.492
37.58,31693.4,34389.8,-1.4061,-1.5027,149.8,97.7,0.492
37.6,31754.8,34516.0,-1.1244,-1.1918,149.8,97.7,0.492
37.62,31907.4,34869.4,-0.4247,-0.3212,149.8,97.7,0.492
37.64,32075.7,35106.4,0.3472,0.2623,149.8,97.7,0.492
37.66,32210.5,35485.4,0.9652,1.196,149.8,97.7,0.492
37.68,32353.0,35705.5,1.619,1.7381,149.8,97.7,0.492
37.7,32340.3,35692.8,1.5609,1.7067,149.8,97.7,0.492
37.72,32164.8,35486.3,0.7557,1.1981,149.8,97.7,0.492
37.74,32089.3,35344.9,0.4094,0.8499,149.8,97.7,0.492
37.76,32089.7,35248.9,0.4114,0.6134,149.8,97.7,0.492
37.78,32120.0,35100.6,0.5502,0.2483,149.8,97.7,0.492
37.8,31946.8,35103.9,-0.2438,0.2562,149.8,97.7,0.492
37.82,32066.8,34986.3,0.3064,-0.0333,149.8,97.7,0.492
37.84,31894.4,34743.2,-0.4842,-0.6321,149.8,97.7,0.492
37.86,31902.1,34788.5,-0.449,-0.5207,149.8,97.7,0.492
37.88,31931.3,34699.4,-0.3152,-0.7399,149.8,97.7,0.492
37.9,31844.9,34654.9,-0.7114,-0.8497,149.8,97.7,0.492
37.92,31886.5,34724.7,-0.5204,-0.6776,149.8,97.7,0.492
37.94,31751.2,34578.4,-1.1413,-1.0381,149.8,97.7,0.492
37.96,31830.1,34527.7,-0.7793,-1.1629,149.8,97.7,0.492
37.98,31766.2,34416.6,-1.0725,-1.4366,149.8,97.7,0.492
38.0,31703.6,34550.5,-1.3594,-1.1068,149.8,97.7,0.492
38.02,31881.0,34761.9,-0.5456,-0.5862,149.8,97.7,0.492
38.04,32071.8,35162.4,0.3294,0.4005,149.8,97.7,0.492
38.06,32138.4,35537.6,0.635,1.3244,149.8,97.7,0.492
38.08,32381.3,35694.4,1.7487,1.7108,149.8,97.7,0.492
38.1,32370.9,35702.0,1.7013,1.7296,149.8,97.7,0.492
38.12,32321.8,35591.1,1.476,1.4563,149.8,97.7,0.492
38.14,32112.7,35315.3,0.517,0.7771,149.8,97.7,0.492
38.16,32039.7,35140.2,0.1823,0.3457,149.8,97.7,0.492
38.18,32043.8,35202.3,0.2007,0.4988,149.8,97.7,0.492
38.2,32084.3,35037.0,0.3864,0.0916,149.8,97.7,0.492
38.22,32033.4,34855.8,0.1532,-0.3547,149.8,97.7,0.492
38.24,31900.6,34935.1,-0.4559,-0.1596,149.8,97.7,0.492
38.26,31894.7,34677.0,-0.4831,-0.7951,149.8,97.7,0.492
38.28,31944.2,34680.9,-0.256,-0.7856,149.8,97.7,0.492
38.3,31910.6,34659.2,-0.41,-0.8389,149.8,97.7,0.492
38.32,31814.5,34728.4,-0.8509,-0.6686,149.8,97.7,0.492
38.34,31801.1,34565.5,-0.9121,-1.0698,149.8,97.7,0.492
38.36,31776.1,34565.3,-1.0268,-1.0703,149.8,97.7,0.492
38.38,31672.8,34394.1,-1.5004,-1.4921,149.8,97.7,0.492
38.4,31742.2,34690.8,-1.1824,-0.7613,149.8,97.7,0.492
38.42,31975.4,34838.6,-0.113,-0.3973,149.8,97.7,0.492
38.44,32156.2,35258.6,0.7165,0.6374,149.8,97.7,0.492
38.46,32232.4,35612.8,1.066,1.5098,149.8,97.7,0.492
38.48,32333.4,35717.2,1.5292,1.7669,149.8,97.7,0.492
38.5,32266.9,35727.1,1.2239,1.7913,149.8,97.7,0.492
38.52,32148.9,35586.3,0.6831,1.4445,149.8,97.7,0.492
38.54,32185.6,35264.0,0.8511,0.6506,149.8,97.7,0.492
38.56,32079.9,35198.4,0.3664,0.4892,149.8,97.7,0.492
38.58,31994.0,35067.4,-0.0275,0.1665,149.8,97.7,0.492
38.6,32009.6,35024.4,0.044,0.0606,149.8,97.7,0.492
38.62,31921.7,34947.1,-0.3589,-0.1299,149.8,97.7,0.492
38.64,32014.3,34941.8,0.0657,-0.1429,149.8,97.7,0.492
38.66,31875.6,34746.4,-0.5704,-0.6242,149.8,97.7,0.492
38.68,31929.6,34685.5,-0.3229,-0.7742,149.8,97.7,0.492
38.7,31851.8,34724.4,-0.6796,-0.6785,149.8,97.7,0.492
38.72,31818.1,34702.0,-0.8341,-0.7337,149.8,97.7,0.492
38.74,31809.5,34552.3,-0.8739,-1.1024,149.8,97.7,0.492
38.76,31884.5,34513.6,-0.5297,-1.1977,149.8,97.7,0.492
38.78,31782.9,34359.6,-0.9958,-1.577,149.8,97.7,0.492
38.8,31805.8,34541.5,-0.8908,-1.129,149.8,97.7,0.492
38.82,31977.5,34827.2,-0.1031,-0.4252,149.8,97.7,0.492
38.84,32076.7,35099.2,0.3518,0.2449,149.8,97.7,0.492
38.86,32185.3,35493.7,0.85,1.2165,149.8,97.7,0.492
38.88,32408.1,35765.7,1.8717,1.8863,149.8,97.7,0.492
38.9,32300.5,35769.0,1.3781,1.8944,149.8,97.7,0.492
38.92,32196.7,35467.6,0.9022,1.1521,149.8,97.7,0.492
38.94,32202.0,35271.2,0.9265,0.6683,149.8,97.7,0.492
38.96,32071.1,35213.7,0.3259,0.5266,149.8,97.7,0.492
38.98,32038.0,35183.8,0.1741,0.4532,149.8,97.7,0.492
39.0,32001.0,35063.8,0.0047,0.1576,149.8,97.7,0.492
39.02,31930.4,35031.7,-0.319,0.0784,149.8,97.7,0.492
39.04,31881.9,34980.5,-0.5415,-0.0476,149.8,97.7,0.492
39.06,31862.2,34834.0,-0.6319,-0.4085,149.8,97.7,0.492
39.08,31871.3,34700.6,-0.5901,-0.7371,149.8,97.7,0.492
39.1,31762.1,34639.9,-1.0909,-0.8865,149.8,97.7,0.492
39.12,31862.0,34611.9,-0.633,-0.9555,149.8,97.7,0.492
39.14,31791.2,34659.3,-0.9578,-0.8387,149.8,97.7,0.492
39.16,31795.9,34447.4,-0.9361,-1.3607,149.8,97.7,0.492
39.18,31774.6,34531.4,-1.0337,-1.1537,149.8,97.7,0.492
39.2,31806.6,34585.9,-0.8869,-1.0197,149.8,97.7,0.492
39.22,31862.2,34857.0,-0.632,-0.3517,149.8,97.7,0.492
39.24,32037.1,35198.8,0.1701,0.49,149.8,97.7,0.492
39.26,32249.0,35615.7,1.1418,1.517,149.8,97.7,0.492
39.28,32392.1,35777.3,1.7985,1.9149,149.8,97.7,0.492
39.3,32338.1,35748.0,1.5505,1.8429,149.8,97.7,0.492
39.32,32312.4,35619.6,1.4329,1.5266,149.8,97.7,0.492
39.34,32186.1,35339.5,0.8535,0.8366,149.8,97.7,0.492
39.36,32018.1,35219.4,0.083,0.5407,149.8,97.7,0.492
39.38,32054.8,35165.3,0.2513,0.4075,149.8,97.7,0.492
39.4,32001.0,34997.1,0.0047,-0.0069,149.8,97.7,0.492
39.42,32040.1,34867.9,0.184,-0.325,149.8,97.7,0.492
39.44,31981.2,34945.8,-0.0863,-0.1331,149.8,97.7,0.492
39.46,31870.9,34745.5,-0.5918,-0.6264,149.8,97.7,0.492
39.48,31877.3,34651.1,-0.5625,-0.859,149.8,97.7,0.492
39.5,31886.6,34690.6,-0.5202,-0.7617,149.8,97.7,0.492
39.52,31895.7,34708.5,-0.4783,-0.7177,149.8,97.7,0.492
39.54,31825.7,34623.4,-0.7992,-0.9272,149.8,97.7,0.492
39.56,31737.9,34498.6,-1.202,-1.2346,149.8,97.7,0.492
39.58,31805.8,34367.4,-0.8904,-1.5578,149.8,97.7,0.492
39.6,31794.2,34509.3,-0.944,-1.2082,149.8,97.7,0.492
39.62,31885.2,34870.7,-0.5264,-0.318,149.8,97.7,0.492
39.64,32128.3,35193.3,0.5884,0.4764,149.8,97.7,0.492
39.66,32229.1,35519.6,1.051,1.2803,149.8,97.7,0.492
39.68,32434.3,35704.8,1.992,1.7364,149.8,97.7,0.492
39.7,32338.6,35734.1,1.5529,1.8085,149.8,97.7,0.492
39.72,32204.2,35562.8,0.9363,1.3866,149.8,97.7,0.492
39.74,32148.1,35457.2,0.6793,1.1265,149.8,97.7,0.492
39.76,32075.4,35176.2,0.346,0.4345,149.8,97.7,0.492
39.78,32086.3,35150.5,0.3956,0.371,149.8,97.7,0.492
39.8,31980.3,35019.6,-0.0904,0.0487,149.8,97.7,0.492
39.82,31929.4,35006.5,-0.324,0.0165,149.8,97.7,0.492
39.84,31978.1,34850.7,-0.1004,-0.3674,149.8,97.7,0.492
39.86,31857.9,34785.7,-0.6519,-0.5276,149.8,97.7,0.492
39.88,31894.8,34697.3,-0.4824,-0.7453,149.8,97.7,0.492
39.9,31782.5,34619.1,-0.9976,-0.9379,149.8,97.7,0.492
39.92,31835.6,34752.5,-0.7539,-0.6091,149.8,97.7,0.492
39.94,31811.8,34495.2,-0.8629,-1.2431,149.8,97.7,0.492
39.96,31747.6,34499.2,-1.1577,-1.2332,149.8,97.7,0.492
39.98,31771.6,34456.6,-1.0475,-1.3381,149.8,97.7,0.492
40.0,31777.4,34451.5,-1.021,-1.3506,149.8,97.7,0.492
40.02,31921.8,34777.5,-0.3587,-0.5477,149.8,97.7,0.492
40.04,32103.5,35196.3,0.4747,0.484,149.8,97.7,0.492
40.06,32092.7,35530.8,0.4253,1.3078,149.8,97.7,0.492
40.08,32210.2,35747.6,0.9638,1.8417,149.8,97.7,0.492
40.1,32384.6,35740.0,1.7639,1.8232,149.8,97.7,0.492
40.12,32174.2,35625.0,0.799,1.5397,149.8,97.7,0.492
40.14,32097.3,35390.0,0.4462,0.961,149.8,97.7,0.492
40.16,32056.4,35200.5,0.2585,0.4943,149.8,97.7,0.492
40.18,32143.5,35159.4,0.6581,0.393,149.8,97.7,0.492
40.2,32035.6,35020.6,0.1633,0.0511,149.8,97.7,0.492
40.22,32022.8,34928.4,0.1045,-0.176,149.8,97.7,0.492
40.24,31924.0,34934.7,-0.3485,-0.1605,149.8,97.7,0.492
40.26,31956.5,34709.5,-0.1995,-0.7151,149.8,97.7,0.492
40.28,31899.3,34721.7,-0.462,-0.6852,149.8,97.7,0.492
40.3,31804.5,34724.3,-0.8968,-0.6788,149.8,97.7,0.492
40.32,31871.7,34759.0,-0.5882,-0.5931,149.8,97.7,0.492
40.34,31864.7,34604.3,-0.6205,-0.9742,149.8,97.7,0.492
40.36,31826.1,34446.5,-0.7977,-1.363,149.8,97.7,0.492
40.38,31767.1,34475.0,-1.0681,-1.2928,149.8,97.7,0.492
40.4,31790.9,34513.2,-0.9592,-1.1987,149.8,97.7,0.492
40.42,31946.8,34716.6,-0.244,-0.6978,149.8,97.7,0.492
40.44,32082.9,35222.8,0.3803,0.5491,149.8,97.7,0.492
40.46,32241.9,35523.0,1.1095,1.2885,149.8,97.7,0.492
40.48,32337.6,35725.7,1.5483,1.788,149.8,97.7,0.492
40.5,32353.2,35726.2,1.6199,1.7892,149.8,97.7,0.492
40.52,32252.2,35557.8,1.1568,1.3743,149.8,97.7,0.492
40.54,32162.8,35357.7,0.7466,0.8816,149.8,97.7,0.492
40.56,32082.7,35273.9,0.3795,0.6751,149.8,97.7,0.492
40.58,32043.9,35117.0,0.2014,0.2885,149.8,97.7,0.492
40.6,32089.7,34949.3,0.4116,-0.1245,149.8,97.7,0.492
40.62,31994.5,34973.0,-0.0251,-0.0662,149.8,97.7,0.492
40.64,31987.0,34875.9,-0.0597,-0.3053,149.8,97.7,0.492
40.66,31963.5,34884.3,-0.1676,-0.2846,149.8,97.7,0.492
40.68,31939.4,34747.1,-0.2779,-0.6224,149.8,97.7,0.492
40.7,31874.0,34646.0,-0.5778,-0.8716,149.8,97.7,0.492
40.72,31831.9,34602.9,-0.7708,-0.9777,149.8,97.7,0.492
40.74,31807.0,34567.7,-0.8849,-1.0644,149.8,97.7,0.492
40.76,31786.7,34486.8,-0.9781,-1.2637,149.8,97.7,0.492
40.78,31878.1,34482.8,-0.5591,-1.2736,149.8,97.7,0.492
40.8,31805.9,34530.9,-0.8901,-1.1549,149.8,97.7,0.492
40.82,31878.6,34625.8,-0.5569,-0.9213,149.8,97.7,0.492
40.84,31995.3,35150.9,-0.0214,0.3721,149.8,97.7,0.492
40.86,32179.1,35537.5,0.8214,1.3244,149.8,97.7,0.492
40.88,32331.1,35718.6,1.5187,1.7704,149.8,97.7,0.492
40.9,32303.8,35770.1,1.3932,1.8973,149.8,97.7,0.492
40.92,32302.7,35622.7,1.3884,1.5341,149.8,97.7,0.492
40.94,32235.7,35313.1,1.0808,0.7716,149.8,97.7,0.492
40.96,32135.4,35260.9,0.6209,0.6431,149.8,97.7,0.492
40.98,32071.5,35142.9,0.3279,0.3523,149.8,97.7,0.492
41.0,32030.0,35089.7,0.1376,0.2213,149.8,97.7,0.492
41.02,32034.0,34977.0,0.1559,-0.0562,149.8,97.7,0.492
41.04,31914.8,34793.0,-0.3909,-0.5094,149.8,97.7,0.492
41.06,31924.9,34626.7,-0.3446,-0.919,149.8,97.7,0.492
41.08,31870.7,34720.9,-0.5931,-0.6871,149.8,97.7,0.492
41.1,31860.4,34683.6,-0.6401,-0.7788,149.8,97.7,0.492
41.12,31890.9,34668.2,-0.5004,-0.8169,149.8,97.7,0.492
41.14,31831.3,34582.0,-0.7739,-1.0292,149.8,97.7,0.492
41.16,31810.3,34454.8,-0.87,-1.3426,149.8,97.7,0.492
41.18,31827.0,34593.6,-0.7936,-1.0006,149.8,97.7,0.492
41.2,31833.5,34482.5,-0.7638,-1.2743,149.8,97.7,0.492
41.22,31834.6,34752.6,-0.7587,-0.609,149.8,97.7,0.492
41.24,32078.5,35162.4,0.3602,0.4003,149.8,97.7,0.492
41.26,32242.1,35499.2,1.1103,1.2301,149.8,97.7,0.492
41.28,32362.4,35761.9,1.662,1.8769,149.8,97.7,0.492
41.3,32314.8,35770.0,1.444,1.8971,149.8,97.7,0.492
41.32,32202.5,35685.5,0.9288,1.6887,149.8,97.7,0.492
41.34,32167.6,35408.5,0.7686,1.0066,149.8,97.7,0.492
41.36,32045.1,35242.7,0.2069,0.5982,149.8,97.7,0.492
41.38,32143.4,35041.6,0.6578,0.1029,149.8,97.7,0.492
41.4,32064.3,35045.3,0.2949,0.1119,149.8,97.7,0.492
41.42,32027.8,35031.2,0.1273,0.0773,149.8,97.7,0.492
41.44,31887.9,34949.8,-0.5139,-0.1233,149.8,97.7,0.492
41.46,31967.4,34882.3,-0.1493,-0.2896,149.8,97.7,0.492
41.48,31863.4,34636.8,-0.6266,-0.8941,149.8,97.7,0.492
41.5,31821.5,34648.9,-0.8187,-0.8643,149.8,97.7,0.492
41.52,31885.1,34621.2,-0.5269,-0.9326,149.8,97.7,0.492
41.54,31814.7,34548.4,-0.8499,-1.1119,149.8,97.7,0.492
41.56,31768.0,34626.8,-1.0641,-0.9189,149.8,97.7,0.492
41.58,31738.6,34435.7,-1.199,-1.3896,149.8,97.7,0.492
41.6,31707.4,34607.5,-1.342,-0.9664,149.8,97.7,0.492
41.62,31931.6,34832.5,-0.3135,-0.4123,149.8,97.7,0.492
41.64,32200.8,35106.6,0.9211,0.263,149.8,97.7,0.492
41.66,32207.5,35525.6,0.9515,1.295,149.8,97.7,0.492
41.68,32341.7,35675.5,1.5672,1.6643,149.8,97.7,0.492
41.7,32340.3,35741.8,1.5608,1.8275,149.8,97.7,0.492
41.72,32347.7,35538.3,1.5947,1.3262,149.8,97.7,0.492
41.74,32103.2,35296.8,0.4731,0.7315,149.8,97.7,0.492
41.76,32148.3,35197.2,0.6801,0.4861,149.8,97.7,0.492
41.78,32036.8,35144.9,0.1689,0.3572,149.8,97.7,0.492
41.8,32032.3,35067.9,0.1482,0.1675,149.8,97.7,0.492
41.82,32042.0,34982.1,0.1924,-0.0437,149.8,97.7,0.492
41.84,31967.8,34867.5,-0.1475,-0.3261,149.8,97.7,0.492
41.86,31921.4,34769.0,-0.3605,-0.5686,149.8,97.7,0.492
41.88,31907.7,34773.4,-0.4232,-0.5578,149.8,97.7,0.492
41.9,31828.2,34618.8,-0.7881,-0.9387,149.8,97.7,0.492
41.92,31884.1,34519.6,-0.5316,-1.1828,149.8,97.7,0.492
41.94,31847.2,34462.4,-0.7008,-1.3237,149.8,97.7,0.492
41.96,31709.7,34483.6,-1.3313,-1.2716,149.8,97.7,0.492
41.98,31755.9,34437.9,-1.1197,-1.3842,149.8,97.7,0.492
42.0,31764.5,34518.5,-1.08,-1.1856,149.8,97.7,0.492
42.02,31895.4,34748.8,-0.4797,-0.6183,149.8,97.7,0.492
42.04,32025.7,35135.7,0.1179,0.3346,149.8,97.7,0.492
42.06,32167.4,35506.8,0.7676,1.2486,149.8,97.7,0.492
42.08,32308.0,35701.0,1.4127,1.7271,149.8,97.7,0.492
42.1,32298.7,35770.4,1.37,1.8981,149.8,97.7,0.492
42.12,32278.2,35527.2,1.2757,1.2989,149.8,97.7,0.492
42.14,32190.0,35530.6,0.8713,1.3074,149.8,97.7,0.492
42.16,32047.3,35249.9,0.217,0.616,149.8,97.7,0.492
42.18,31955.8,35193.9,-0.2026,0.4779,149.8,97.7,0.492
42.2,32083.5,35100.1,0.3829,0.2469,149.8,97.7,0.492
42.22,32051.7,34999.9,0.2369,0.0002,149.8,97.7,0.492
42.24,32016.3,34890.1,0.0747,-0.2702,149.8,97.7,0.492
42.26,31939.2,34824.6,-0.2788,-0.4316,149.8,97.7,0.492
42.28,31875.7,34707.1,-0.5701,-0.7211,149.8,97.7,0.492
42.3,31821.0,34624.9,-0.8208,-0.9235,149.8,97.7,0.492
42.32,31796.9,34706.7,-0.9313,-0.7219,149.8,97.7,0.492
42.34,31842.4,34599.9,-0.7227,-0.985,149.8,97.7,0.492
42.36,31768.6,34544.7,-1.0613,-1.1211,149.8,97.7,0.492
42.38,31792.5,34485.1,-0.9516,-1.2679,149.8,97.7,0.492
42.4,31782.2,34441.3,-0.9987,-1.3759,149.8,97.7,0.492
42.42,31931.4,34698.3,-0.3146,-0.7427,149.8,97.7,0.492
42.44,32078.4,35161.7,0.3596,0.3986,149.8,97.7,0.492
42.46,32255.8,35402.0,1.1734,0.9905,149.8,97.7,0.492
42.48,32330.5,35717.9,1.516,1.7687,149.8,97.7,0.492
42.5,32372.1,35813.1,1.7065,2.0031,149.8,97.7,0.492
42.52,32196.5,35573.0,0.9013,1.4117,149.8,97.7,0.492
42.54,32163.8,35371.1,0.7514,0.9145,149.8,97.7,0.492
42.56,32034.6,35320.2,0.1587,0.7892,149.8,97.7,0.492
42.58,32105.7,35028.4,0.4849,0.0704,149.8,97.7,0.492
42.6,31949.8,35018.8,-0.2303,0.0467,149.8,97.7,0.492
42.62,32020.5,34961.7,0.0942,-0.094,149.8,97.7,0.492
42.64,31956.4,34918.9,-0.1998,-0.1994,149.8,97.7,0.492
42.66,31818.0,34832.4,-0.8345,-0.4125,149.8,97.7,0.492
42.68,31782.4,34676.7,-0.9981,-0.796,149.8,97.7,0.492
42.7,31816.6,34695.6,-0.8409,-0.7493,149.8,97.7,0.492
42.72,31856.6,34610.6,-0.6577,-0.9587,149.8,97.7,0.492
42.74,31824.0,34624.4,-0.8071,-0.9248,149.8,97.7,0.492
42.76,31755.7,34530.0,-1.1204,-1.1572,149.8,97.7,0.492
42.78,31707.0,34504.1,-1.3436,-1.2211,149.8,97.7,0.492
42.8,31769.2,34529.4,-1.0586,-1.1588,149.8,97.7,0.492
42.82,31803.9,34692.6,-0.8994,-0.7568,149.8,97.7,0.492
42.84,32012.9,35149.3,0.0592,0.368,149.8,97.7,0.492
42.86,32207.5,35422.7,0.9515,1.0417,149.8,97.7,0.492
42.88,32439.3,35789.0,2.0146,1.9437,149.8,97.7,0.492
42.9,32334.9,35851.6,1.536,2.098,149.8,97.7,0.492
42.92,32317.2,35581.6,1.455,1.433,149.8,97.7,0.492
42.94,32214.9,35345.7,0.9858,0.8519,149.8,97.7,0.492
42.96,32084.4,35182.1,0.387,0.4489,149.8,97.7,0.492
42.98,32151.3,35224.0,0.6941,0.5521,149.8,97.7,0.492
43.0,31965.7,35088.8,-0.1573,0.2192,149.8,97.7,0.492
43.02,32058.5,35084.5,0.2685,0.2086,149.8,97.7,0.492
43.04,31978.5,34853.5,-0.0987,-0.3605,149.8,97.7,0.492
43.06,31839.9,34793.2,-0.734,-0.5089,149.8,97.7,0.492
43.08,31897.0,34707.2,-0.4723,-0.7208,149.8,97.7,0.492
43.1,31924.7,34677.2,-0.3452,-0.7946,149.8,97.7,0.492
43.12,31785.8,34600.7,-0.9825,-0.983,149.8,97.7,0.492
43.14,31835.3,34603.7,-0.7551,-0.9758,149.8,97.7,0.492
43.16,31823.3,34496.5,-0.8105,-1.2398,149.8,97.7,0.492
43.18,31742.0,34472.0,-1.1834,-1.3002,149.8,97.7,0.492
43.2,31834.0,34427.5,-0.7613,-1.4096,149.8,97.7,0.492
43.22,31900.2,34706.4,-0.4578,-0.7227,149.8,97.7,0.492
43.24,31941.3,35041.3,-0.2694,0.102,149.8,97.7,0.492
43.26,32314.3,35363.0,1.4417,0.8946,149.8,97.7,0.492
43.28,32225.7,35657.8,1.035,1.6207,149.8,97.7,0.492
43.3,32338.9,35741.8,1.5544,1.8276,149.8,97.7,0.492
43.32,32248.0,35579.0,1.1375,1.4266,149.8,97.7,0.492
43.34,32183.4,35428.3,0.841,1.0554,149.8,97.7,0.492
43.36,32195.9,35269.7,0.8987,0.6646,149.8,97.7,0.492
43.38,32138.1,35221.9,0.6334,0.547,149.8,97.7,0.492
43.4,32007.1,35104.0,0.0325,0.2567,149.8,97.7,0.492
43.42,31878.1,34926.4,-0.5592,-0.1809,149.8,97.7,0.492
43.44,32006.8,34894.4,0.0313,-0.2598,149.8,97.7,0.492
43.46,31909.3,34793.6,-0.4158,-0.508,149.8,97.7,0.492
43.48,31847.6,34698.9,-0.6987,-0.7412,149.8,97.7,0.492
43.5,31912.3,34643.9,-0.4021,-0.8768,149.8,97.7,0.492
43.52,31901.0,34701.2,-0.4538,-0.7355,149.8,97.7,0.492
43.54,31771.2,34587.6,-1.0495,-1.0154,149.8,97.7,0.492
43.56,31772.2,34593.9,-1.0446,-0.9999,149.8,97.7,0.492
43.58,31830.0,34482.1,-0.7797,-1.2753,149.8,97.7,0.492
43.6,31760.4,34487.2,-1.0988,-1.2628,149.8,97.7,0.492
43.62,31894.5,34696.5,-0.4837,-0.7473,149.8,97.7,0.492
43.64,31966.6,35079.6,-0.1531,0.1966,149.8,97.7,0.492
43.66,32177.5,35398.4,0.8139,0.9818,149.8,97.7,0.492
43.68,32349.7,35786.3,1.6037,1.9371,149.8,97.7,0.492
43.7,32355.7,35660.3,1.6316,1.6268,149.8,97.7,0.492
43.72,32171.6,35603.1,0.787,1.4859,149.8,97.7,0.492
43.74,32177.9,35316.7,0.8159,0.7804,149.8,97.7,0.492
43.76,32039.9,35125.7,0.1829,0.31,149.8,97.7,0.492
43.78,32053.3,35116.3,0.2444,0.2868,149.8,97.7,0.492
43.8,31965.7,35120.7,-0.1574,0.2978,149.8,97.7,0.492
43.82,32081.2,35010.4,0.3722,0.026,149.8,97.7,0.492
43.84,31878.1,34912.8,-0.5593,-0.2144,149.8,97.7,0.492
43.86,31934.1,34756.3,-0.302,-0.5998,149.8,97.7,0.492
43.88,31797.3,34711.9,-0.9296,-0.7093,149.8,97.7,0.492
43.9,31812.8,34721.6,-0.8585,-0.6854,149.8,97.7,0.492
43.92,31865.5,34680.5,-0.6168,-0.7867,149.8,97.7,0.492
43.94,31887.9,34591.2,-0.5139,-1.0066,149.8,97.7,0.492
43.96,31739.0,34564.2,-1.1972,-1.073,149.8,97.7,0.492
43.98,31755.6,34424.9,-1.1208,-1.4161,149.8,97.7,0.492
44.0,31737.6,34519.9,-1.2032,-1.1821,149.8,97.7,0.492
44.02,31814.7,34644.6,-0.85,-0.8749,149.8,97.7,0.492
44.04,31970.7,35068.2,-0.1345,0.1685,149.8,97.7,0.492
44.06,32205.2,35361.5,0.9411,0.8908,149.8,97.7,0.492
44.08,32275.1,35712.9,1.2618,1.7563,149.8,97.7,0.492
44.1,32349.3,35724.5,1.602,1.7849,149.8,97.7,0.492
44.12,32153.9,35617.9,0.7059,1.5224,149.8,97.7,0.492
44.14,32137.3,35387.4,0.6297,0.9545,149.8,97.7,0.492
44.16,32067.2,35317.7,0.3081,0.7829,149.8,97.7,0.492
44.18,32096.7,35144.8,0.4434,0.3571,149.8,97.7,0.492
44.2,32026.9,35006.9,0.1235,0.0174,149.8,97.7,0.492
44.22,31940.1,34985.8,-0.2745,-0.0345,149.8,97.7,0.492
44.24,31986.5,34849.2,-0.0621,-0.371,149.8,97.7,0.492
44.26,31809.6,34789.9,-0.8733,-0.5171,149.8,97.7,0.492
44.28,31824.8,34763.7,-0.8037,-0.5816,149.8,97.7,0.492
44.3,31793.3,34694.8,-0.9479,-0.7512,149.8,97.7,0.492
44.32,31869.7,34602.2,-0.5977,-0.9795,149.8,97.7,0.492
44.34,31881.7,34676.7,-0.5424,-0.7958,149.8,97.7,0.492
44.36,31757.1,34445.8,-1.1139,-1.3646,149.8,97.7,0.492
44.38,31707.7,34448.3,-1.3407,-1.3585,149.8,97.7,0.492
44.4,31900.8,34530.4,-0.4549,-1.1562,149.8,97.7,0.492
44.42,31849.3,34839.3,-0.6913,-0.3954,149.8,97.7,0.492
44.44,32124.3,34997.4,0.57,-0.0059,149.8,97.7,0.492
44.46,32130.1,35402.7,0.5965,0.9922,149.8,97.7,0.492
44.48,32315.3,35747.8,1.4461,1.8423,149.8,97.7,0.492
44.5,32281.0,35725.6,1.2889,1.7876,149.8,97.7,0.492
44.52,32282.6,35646.9,1.2963,1.5939,149.8,97.7,0.492
44.54,32141.1,35336.4,0.6474,0.8289,149.8,97.7,0.492
44.56,32208.7,35224.8,0.9571,0.554,149.8,97.7,0.492
44.58,32062.1,35155.5,0.2846,0.3834,149.8,97.7,0.492
44.6,31956.0,35075.8,-0.2016,0.1871,149.8,97.7,0.492
44.62,32041.7,35071.7,0.1915,0.1771,149.8,97.7,0.492
44.64,31964.9,34924.7,-0.1611,-0.1851,149.8,97.7,0.492
44.66,31943.9,34751.1,-0.2574,-0.6128,149.8,97.7,0.492
44.68,31921.4,34770.5,-0.3603,-0.565,149.8,97.7,0.492
44.7,31856.1,34676.3,-0.6602,-0.797,149.8,97.7,0.492
44.72,31830.6,34669.9,-0.7769,-0.8126,149.8,97.7,0.492
44.74,31799.6,34605.3,-0.9188,-0.9717,149.8,97.7,0.492
44.76,31801.1,34586.8,-0.9121,-1.0174,149.8,97.7,0.492
44.78,31754.4,34384.1,-1.1264,-1.5165,149.8,97.7,0.492
44.8,31780.0,34366.2,-1.0088,-1.5608,149.8,97.7,0.492
44.82,31918.7,34688.8,-0.3727,-0.7662,149.8,97.7,0.492
44.84,32005.0,34951.4,0.023,-0.1194,149.8,97.7,0.492
44.86,32177.7,35437.8,0.815,1.0788,149.8,97.7,0.492
