timestamp,raw_red,raw_ir,filtered_red,filtered_ir,heart_rate,spo2,ac_dc_ratio
0.0,32035.8,35188.6,0.1521,0.464,146.4,96.3,0.547
0.02,32306.6,35467.3,1.2951,1.1513,146.4,96.3,0.547
0.04,32391.1,35649.7,1.6516,1.601,146.4,96.3,0.547
0.06,32400.5,35763.8,1.6911,1.8823,146.4,96.3,0.547
0.08,32201.8,35623.6,0.8527,1.5366,146.4,96.3,0.547
0.1,32090.1,35398.2,0.3814,0.9809,146.4,96.3,0.547
0.12,32108.8,35231.4,0.4604,0.5697,146.4,96.3,0.547
0.14,32113.2,35099.0,0.479,0.2432,146.4,96.3,0.547
0.16,31985.7,35084.8,-0.0594,0.2083,146.4,96.3,0.547
0.18,31958.1,34909.9,-0.1757,-0.2231,146.4,96.3,0.547
0.2,31913.6,34910.4,-0.3636,-0.2218,146.4,96.3,0.547
0.22,31898.0,34704.1,-0.4294,-0.7306,146.4,96.3,0.547
0.24,31868.5,34694.9,-0.5537,-0.7533,146.4,96.3,0.547
0.26,31831.5,34629.6,-0.7101,-0.9141,146.4,96.3,0.547
0.28,31829.7,34613.7,-0.7176,-0.9533,146.4,96.3,0.547
0.3,31797.1,34667.5,-0.8554,-0.8208,146.4,96.3,0.547
0.32,31787.2,34637.1,-0.8969,-0.8956,146.4,96.3,0.547
0.34,31682.5,34511.2,-1.3388,-1.2061,146.4,96.3,0.547
0.36,31762.0,34406.3,-1.0033,-1.4648,146.4,96.3,0.547
0.38,31840.3,34693.0,-0.6728,-0.7579,146.4,96.3,0.547
0.4,31991.3,35049.7,-0.0356,0.1217,146.4,96.3,0.547
0.42,32184.2,35404.6,0.7784,0.9967,146.4,96.3,0.547
0.44,32283.7,35618.5,1.1985,1.5241,146.4,96.3,0.547
0.46,32423.8,35824.2,1.7897,2.0314,146.4,96.3,0.547
0.48,32257.7,35694.1,1.0885,1.7106,146.4,96.3,0.547
0.5,32192.7,35456.3,0.8145,1.1243,146.4,96.3,0.547
0.52,32098.5,35273.1,0.4169,0.6726,146.4,96.3,0.547
0.54,32037.8,35195.4,0.1607,0.4808,146.4,96.3,0.547
0.56,31993.6,35128.7,-0.0259,0.3163,146.4,96.3,0.547
0.58,31975.6,34975.7,-0.102,-0.0609,146.4,96.3,0.547
0.6,31977.8,34963.4,-0.0927,-0.0911,146.4,96.3,0.547
0.62,31855.1,34818.1,-0.6102,-0.4494,146.4,96.3,0.547
0.64,31876.6,34712.9,-0.5197,-0.7088,146.4,96.3,0.547
0.66,31892.1,34677.4,-0.4545,-0.7963,146.4,96.3,0.547
0.68,31731.5,34628.5,-1.1322,-0.917,146.4,96.3,0.547
0.7,31898.7,34681.2,-0.4263,-0.787,146.4,96.3,0.547
0.72,31728.5,34604.6,-1.1445,-0.9757,146.4,96.3,0.547
0.74,31784.1,34511.6,-0.9101,-1.2052,146.4,96.3,0.547
0.76,31850.5,34472.3,-0.6297,-1.3019,146.4,96.3,0.547
0.78,31812.8,34566.3,-0.789,-1.0702,146.4,96.3,0.547
0.8,31829.5,34772.8,-0.7183,-0.5612,146.4,96.3,0.547
0.82,32111.9,35187.6,0.4731,0.4616,146.4,96.3,0.547
0.84,32192.5,35569.6,0.8134,1.4036,146.4,96.3,0.547
0.86,32317.3,35808.5,1.3402,1.9926,146.4,96.3,0.547
0.88,32324.2,35631.7,1.3694,1.5567,146.4,96.3,0.547
0.9,32355.6,35581.7,1.5016,1.4334,146.4,96.3,0.547
0.92,32244.5,35389.1,1.0327,0.9586,146.4,96.3,0.547
0.94,32079.9,35174.4,0.3383,0.4291,146.4,96.3,0.547
0.96,31991.5,35099.0,-0.0347,0.2433,146.4,96.3,0.547
0.98,32049.9,35089.4,0.2119,0.2195,146.4,96.3,0.547
1.0,32066.8,35060.0,0.2829,0.1471,146.4,96.3,0.547
1.02,31986.0,34974.3,-0.0578,-0.0643,146.4,96.3,0.547
1.04,31892.7,34828.1,-0.4519,-0.4248,146.4,96.3,0.547
1.06,31753.1,34729.5,-1.0409,-0.6679,146.4,96.3,0.547
1.08,31843.7,34679.5,-0.6586,-0.7912,146.4,96.3,0.547
1.1,31772.2,34636.3,-0.9601,-0.8976,146.4,96.3,0.547
1.12,31815.1,34580.7,-0.7793,-1.0348,146.4,96.3,0.547
1.14,31681.6,34481.6,-1.3427,-1.2792,146.4,96.3,0.547
1.16,31714.6,34530.6,-1.2033,-1.1583,146.4,96.3,0.547
1.18,31717.0,34449.4,-1.1934,-1.3586,146.4,96.3,0.547
1.2,31724.7,34701.8,-1.1607,-0.7363,146.4,96.3,0.547
1.22,32022.8,34972.5,0.0971,-0.0687,146.4,96.3,0.547
1.24,32044.3,35394.8,0.1882,0.9725,146.4,96.3,0.547
1.26,32368.0,35662.8,1.5539,1.6334,146.4,96.3,0.547
1.28,32419.2,35753.6,1.77,1.8573,146.4,96.3,0.547
1.3,32359.8,35729.0,1.5192,1.7966,146.4,96.3,0.547
1.32,32105.4,35447.4,0.4458,1.1024,146.4,96.3,0.547
1.34,32220.7,35387.9,0.9326,0.9554,146.4,96.3,0.547
1.36,32085.2,35188.2,0.3607,0.4631,146.4,96.3,0.547
1.38,32048.6,35129.1,0.2063,0.3173,146.4,96.3,0.547
1.4,31890.2,35043.2,-0.4624,0.1055,146.4,96.3,0.547
1.42,32025.0,34879.0,0.1067,-0.2993,146.4,96.3,0.547
1.44,31846.2,34851.1,-0.6479,-0.3681,146.4,96.3,0.547
1.46,31837.0,34685.1,-0.6866,-0.7774,146.4,96.3,0.547
1.48,31812.0,34646.1,-0.7924,-0.8734,146.4,96.3,0.547
1.5,31797.2,34685.2,-0.8548,-0.777,146.4,96.3,0.547
1.52,31808.4,34643.6,-0.8074,-0.8798,146.4,96.3,0.547
1.54,31754.9,34575.4,-1.0334,-1.0477,146.4,96.3,0.547
1.56,31689.8,34518.3,-1.3078,-1.1887,146.4,96.3,0.547
1.58,31751.6,34445.8,-1.0473,-1.3674,146.4,96.3,0.547
1.6,31812.1,34604.0,-0.7919,-0.9772,146.4,96.3,0.547
1.62,31880.7,34840.0,-0.5023,-0.3954,146.4,96.3,0.547
1.64,32125.3,35132.5,0.5298,0.3258,146.4,96.3,0.547
1.66,32288.9,35492.9,1.2204,1.2143,146.4,96.3,0.547
1.68,32309.8,35651.8,1.3085,1.6063,146.4,96.3,0.547
1.7,32322.5,35711.7,1.362,1.7539,146.4,96.3,0.547
1.72,32344.4,35538.6,1.4543,1.327,146.4,96.3,0.547
1.74,32136.3,35395.5,0.5762,0.9744,146.4,96.3,0.547
1.76,32075.6,35208.3,0.3201,0.5128,146.4,96.3,0.547
1.78,32094.2,35096.8,0.3988,0.2377,146.4,96.3,0.547
1.8,32133.4,35073.9,0.564,0.1813,146.4,96.3,0.547
1.82,31976.9,34963.9,-0.0963,-0.0899,146.4,96.3,0.547
1.84,31859.9,34905.4,-0.5901,-0.2341,146.4,96.3,0.547
1.86,31862.0,34766.0,-0.5814,-0.5778,146.4,96.3,0.547
1.88,31835.1,34755.1,-0.6948,-0.6048,146.4,96.3,0.547
1.9,31797.3,34753.4,-0.8542,-0.6088,146.4,96.3,0.547
1.92,31884.9,34633.7,-0.4847,-0.9041,146.4,96.3,0.547
1.94,31868.5,34630.3,-0.5537,-0.9124,146.4,96.3,0.547
1.96,31736.8,34555.4,-1.1095,-1.097,146.4,96.3,0.547
1.98,31745.0,34421.5,-1.0749,-1.4273,146.4,96.3,0.547
2.0,31767.3,34450.8,-0.9809,-1.355,146.4,96.3,0.547
2.02,31882.1,34697.0,-0.4965,-0.7479,146.4,96.3,0.547
2.04,31971.8,35066.4,-0.1179,0.1628,146.4,96.3,0.547
2.06,32196.0,35356.8,0.828,0.8789,146.4,96.3,0.547
2.08,32319.1,35663.4,1.3475,1.6349,146.4,96.3,0.547
2.1,32394.6,35788.3,1.6665,1.9427,146.4,96.3,0.547
2.12,32315.1,35734.4,1.3306,1.8099,146.4,96.3,0.547
2.14,32248.2,35497.7,1.0486,1.2263,146.4,96.3,0.547
2.16,32191.8,35270.0,0.8103,0.6649,146.4,96.3,0.547
2.18,32017.2,35151.4,0.0738,0.3725,146.4,96.3,0.547
2.2,32030.4,35066.9,0.1294,0.1641,146.4,96.3,0.547
2.22,31974.5,34982.7,-0.1067,-0.0435,146.4,96.3,0.547
2.24,32009.6,34895.8,0.0415,-0.2577,146.4,96.3,0.547
2.26,31925.8,34896.0,-0.312,-0.2572,146.4,96.3,0.547
2.28,31880.6,34763.4,-0.5029,-0.5843,146.4,96.3,0.547
2.3,31830.2,34604.8,-0.7156,-0.9754,146.4,96.3,0.547
2.32,31859.5,34678.1,-0.592,-0.7947,146.4,96.3,0.547
2.34,31882.4,34675.1,-0.495,-0.802,146.4,96.3,0.547
2.36,31808.4,34552.5,-0.8076,-1.1042,146.4,96.3,0.547
2.38,31759.1,34556.7,-1.0153,-1.0938,146.4,96.3,0.547
2.4,31753.4,34413.5,-1.0395,-1.4471,146.4,96.3,0.547
2.42,31804.7,34687.6,-0.8232,-0.7713,146.4,96.3,0.547
2.44,31914.9,34820.0,-0.3578,-0.4447,146.4,96.3,0.547
2.46,32154.5,35182.7,0.6531,0.4496,146.4,96.3,0.547
2.48,32254.3,35600.2,1.0742,1.4789,146.4,96.3,0.547
2.5,32412.8,35691.3,1.7431,1.7036,146.4,96.3,0.547
2.52,32350.4,35676.3,1.4797,1.6667,146.4,96.3,0.547
2.54,32268.3,35571.5,1.1335,1.4083,146.4,96.3,0.547
2.56,32167.2,35341.5,0.7066,0.841,146.4,96.3,0.547
2.58,32044.4,35239.4,0.1885,0.5893,146.4,96.3,0.547
2.6,32068.3,35077.2,0.2893,0.1894,146.4,96.3,0.547
2.62,32001.7,35093.3,0.0084,0.2291,146.4,96.3,0.547
2.64,32000.1,34959.7,0.0014,-0.1003,146.4,96.3,0.547
2.66,31931.9,34810.3,-0.2862,-0.4687,146.4,96.3,0.547
2.68,31859.6,34815.3,-0.5912,-0.4563,146.4,96.3,0.547
2.7,31835.3,34741.3,-0.6941,-0.6388,146.4,96.3,0.547
2.72,31765.9,34735.7,-0.987,-0.6525,146.4,96.3,0.547
2.74,31860.6,34658.2,-0.5871,-0.8436,146.4,96.3,0.547
2.76,31796.2,34543.9,-0.8591,-1.1254,146.4,96.3,0.547
2.78,31740.5,34522.6,-1.094,-1.178,146.4,96.3,0.547
2.8,31737.3,34495.7,-1.1076,-1.2444,146.4,96.3,0.547
2.82,31869.7,34468.7,-0.549,-1.311,146.4,96.3,0.547
2.84,31867.0,34691.6,-0.5604,-0.7614,146.4,96.3,0.547
2.86,31983.7,35061.9,-0.0675,0.1517,146.4,96.3,0.547
2.88,32186.1,35281.7,0.7864,0.6937,146.4,96.3,0.547
2.9,32304.2,35599.7,1.285,1.4777,146.4,96.3,0.547
2.92,32394.9,35667.4,1.6676,1.6446,146.4,96.3,0.547
2.94,32281.7,35583.1,1.1897,1.4368,146.4,96.3,0.547
2.96,32274.5,35408.7,1.1594,1.0069,146.4,96.3,0.547
2.98,32112.0,35291.3,0.4738,0.7173,146.4,96.3,0.547
3.0,32130.7,35139.0,0.5527,0.3419,146.4,96.3,0.547
3.02,31958.0,35103.9,-0.1761,0.2553,146.4,96.3,0.547
3.04,31963.3,35077.5,-0.1539,0.1902,146.4,96.3,0.547
3.06,31954.9,34988.5,-0.1892,-0.0293,146.4,96.3,0.547
3.08,31927.2,34849.7,-0.3061,-0.3714,146.4,96.3,0.547
3.1,31811.8,34720.5,-0.793,-0.6901,146.4,96.3,0.547
3.12,31839.9,34737.2,-0.6745,-0.6488,146.4,96.3,0.547
3.14,31779.3,34683.7,-0.9302,-0.7808,146.4,96.3,0.547
3.16,31829.4,34639.1,-0.7189,-0.8908,146.4,96.3,0.547
3.18,31782.1,34650.9,-0.9186,-0.8617,146.4,96.3,0.547
3.2,31727.1,34501.3,-1.1507,-1.2306,146.4,96.3,0.547
3.22,31624.8,34503.4,-1.5824,-1.2253,146.4,96.3,0.547
3.24,31792.6,34565.5,-0.8741,-1.0723,146.4,96.3,0.547
3.26,31866.6,34901.3,-0.5618,-0.2443,146.4,96.3,0.547
3.28,32085.9,35293.3,0.3636,0.7223,146.4,96.3,0.547
3.3,32241.6,35553.4,1.0208,1.3637,146.4,96.3,0.547
3.32,32381.7,35719.3,1.6119,1.7725,146.4,96.3,0.547
3.34,32382.7,35798.9,1.6161,1.9689,146.4,96.3,0.547
3.36,32321.4,35427.2,1.3576,1.0525,146.4,96.3,0.547
3.38,32194.2,35367.5,0.8204,0.9053,146.4,96.3,0.547
3.4,32091.1,35303.5,0.3854,0.7475,146.4,96.3,0.547
3.42,32096.1,35108.9,0.4067,0.2677,146.4,96.3,0.547
3.44,32095.8,35085.1,0.4052,0.2089,146.4,96.3,0.547
3.46,31902.8,34921.3,-0.4089,-0.1949,146.4,96.3,0.547
3.48,31982.4,34874.5,-0.0733,-0.3104,146.4,96.3,0.547
3.5,31918.6,34876.0,-0.3423,-0.3067,146.4,96.3,0.547
3.52,31783.2,34778.7,-0.914,-0.5467,146.4,96.3,0.547
3.54,31768.2,34612.9,-0.9772,-0.9554,146.4,96.3,0.547
3.56,31800.8,34659.0,-0.8395,-0.8417,146.4,96.3,0.547
3.58,31770.3,34632.1,-0.9684,-0.9081,146.4,96.3,0.547
3.6,31714.5,34450.5,-1.2037,-1.3557,146.4,96.3,0.547
3.62,31771.1,34497.7,-0.965,-1.2394,146.4,96.3,0.547
3.64,31825.8,34487.0,-0.7341,-1.2657,146.4,96.3,0.547
3.66,31826.7,34680.3,-0.7302,-0.7892,146.4,96.3,0.547
3.68,31981.9,35008.2,-0.0753,0.0192,146.4,96.3,0.547
3.7,32216.6,35388.4,0.9151,0.9568,146.4,96.3,0.547
3.72,32359.0,35720.8,1.5161,1.7763,146.4,96.3,0.547
3.74,32396.2,35745.6,1.6729,1.8375,146.4,96.3,0.547
3.76,32320.0,35683.7,1.3516,1.6849,146.4,96.3,0.547
3.78,32249.0,35503.3,1.0519,1.2402,146.4,96.3,0.547
3.8,32173.9,35215.1,0.7348,0.5296,146.4,96.3,0.547
3.82,32106.9,35220.5,0.452,0.5428,146.4,96.3,0.547
3.84,32098.4,35110.2,0.4165,0.2709,146.4,96.3,0.547
3.86,32033.1,35030.6,0.1406,0.0746,146.4,96.3,0.547
3.88,31933.5,34893.5,-0.2797,-0.2635,146.4,96.3,0.547
3.9,31920.6,34835.2,-0.3341,-0.4071,146.4,96.3,0.547
3.92,31851.6,34676.6,-0.6252,-0.7983,146.4,96.3,0.547
3.94,31857.6,34627.8,-0.5997,-0.9187,146.4,96.3,0.547
3.96,31830.3,34739.2,-0.7149,-0.6439,146.4,96.3,0.547
3.98,31808.4,34638.7,-0.8074,-0.8917,146.4,96.3,0.547
4.0,31777.1,34637.0,-0.9395,-0.8958,146.4,96.3,0.547
4.02,31747.6,34534.6,-1.0639,-1.1483,146.4,96.3,0.547
4.04,31752.5,34393.5,-1.0432,-1.4962,146.4,96.3,0.547
4.06,31745.5,34569.0,-1.0728,-1.0636,146.4,96.3,0.547
4.08,31876.6,34817.5,-0.5196,-0.451,146.4,96.3,0.547
4.1,32172.6,35164.4,0.7296,0.4044,146.4,96.3,0.547
4.12,32350.0,35480.6,1.4782,1.1841,146.4,96.3,0.547
4.14,32373.3,35717.9,1.5766,1.7693,146.4,96.3,0.547
4.16,32399.4,35736.3,1.6866,1.8145,146.4,96.3,0.547
4.18,32236.6,35594.5,0.9997,1.465,146.4,96.3,0.547
4.2,32148.6,35362.4,0.6284,0.8926,146.4,96.3,0.547
4.22,32049.2,35184.6,0.2088,0.4543,146.4,96.3,0.547
4.24,32153.1,35126.8,0.647,0.3118,146.4,96.3,0.547
4.26,32127.7,34969.1,0.5398,-0.077,146.4,96.3,0.547
4.28,31869.4,35017.0,-0.5499,0.0409,146.4,96.3,0.547
4.3,31953.1,34962.3,-0.197,-0.0937,146.4,96.3,0.547
4.32,31866.4,34769.6,-0.5627,-0.569,146.4,96.3,0.547
4.34,31871.6,34668.2,-0.5407,-0.819,146.4,96.3,0.547
4.36,31855.5,34745.6,-0.6086,-0.6281,146.4,96.3,0.547
4.38,31885.3,34602.8,-0.4828,-0.9802,146.4,96.3,0.547
4.4,31818.6,34610.7,-0.7646,-0.9607,146.4,96.3,0.547
4.42,31691.1,34596.7,-1.3025,-0.9953,146.4,96.3,0.547
4.44,31765.5,34553.7,-0.9887,-1.1014,146.4,96.3,0.547
4.46,31727.9,34410.2,-1.1473,-1.4552,146.4,96.3,0.547
4.48,31914.6,34748.7,-0.3594,-0.6205,146.4,96.3,0.547
4.5,32111.8,35114.5,0.4728,0.2813,146.4,96.3,0.547
4.52,32198.3,35421.1,0.8377,1.0374,146.4,96.3,0.547
4.54,32299.2,35694.5,1.2638,1.7115,146.4,96.3,0.547
4.56,32337.0,35786.7,1.4232,1.9388,146.4,96.3,0.547
4.58,32345.6,35651.3,1.4594,1.605,146.4,96.3,0.547
4.6,32223.5,35437.5,0.9441,1.0779,146.4,96.3,0.547
4.62,32099.1,35226.6,0.4192,0.5579,146.4,96.3,0.547
4.64,32049.7,35202.1,0.2108,0.4973,146.4,96.3,0.547
4.66,32113.6,35074.9,0.4805,0.1837,146.4,96.3,0.547
4.68,32022.1,34989.1,0.0942,-0.0279,146.4,96.3,0.547
4.7,31905.6,34960.0,-0.3971,-0.0995,146.4,96.3,0.547
4.72,31898.9,34902.2,-0.4255,-0.242,146.4,96.3,0.547
4.74,31763.2,34657.0,-0.9983,-0.8466,146.4,96.3,0.547
4.76,31830.4,34705.4,-0.7145,-0.7273,146.4,96.3,0.547
4.78,31754.7,34738.6,-1.0342,-0.6455,146.4,96.3,0.547
4.8,31872.6,34587.9,-0.5364,-1.017,146.4,96.3,0.547
4.82,31799.3,34493.1,-0.8457,-1.2507,146.4,96.3,0.547
4.84,31740.2,34415.7,-1.0953,-1.4416,146.4,96.3,0.547
4.86,31679.4,34498.1,-1.3517,-1.2383,146.4,96.3,0.547
4.88,31733.2,34508.0,-1.125,-1.2141,146.4,96.3,0.547
4.9,31858.1,34893.4,-0.5978,-0.2637,146.4,96.3,0.547
4.92,32185.7,35347.7,0.7847,0.8565,146.4,96.3,0.547
4.94,32310.7,35496.9,1.3124,1.2242,146.4,96.3,0.547
4.96,32435.2,35769.7,1.8376,1.8969,146.4,96.3,0.547
4.98,32282.2,35674.1,1.192,1.6612,146.4,96.3,0.547
5.0,32296.9,35515.9,1.2541,1.2712,146.4,96.3,0.547
5.02,32245.4,35332.2,1.0368,0.8182,146.4,96.3,0.547
5.04,32182.6,35170.1,0.7717,0.4184,146.4,96.3,0.547
5.06,32061.4,35117.1,0.26,0.2877,146.4,96.3,0.547
5.08,32010.2,35022.4,0.0442,0.0544,146.4,96.3,0.547
5.1,31983.4,34939.7,-0.069,-0.1496,146.4,96.3,0.547
5.12,31950.8,34903.6,-0.2067,-0.2386,146.4,96.3,0.547
5.14,31879.4,34721.3,-0.5078,-0.6881,146.4,96.3,0.547
5.16,31823.3,34690.4,-0.7446,-0.7642,146.4,96.3,0.547
5.18,31822.8,34653.3,-0.7469,-0.8558,146.4,96.3,0.547
5.2,31779.3,34694.1,-0.9301,-0.7551,146.4,96.3,0.547
5.22,31798.4,34632.6,-0.8498,-0.9067,146.4,96.3,0.547
5.24,31705.5,34568.3,-1.2417,-1.0653,146.4,96.3,0.547
5.26,31758.4,34446.8,-1.0186,-1.3649,146.4,96.3,0.547
5.28,31807.9,34541.8,-0.8096,-1.1306,146.4,96.3,0.547
5.3,31907.2,34674.9,-0.3904,-0.8025,146.4,96.3,0.547
5.32,32053.7,34928.0,0.2277,-0.1784,146.4,96.3,0.547
5.34,32239.5,35356.1,1.0118,0.8771,146.4,96.3,0.547
5.36,32321.8,35720.0,1.3591,1.7744,146.4,96.3,0.547
5.38,32399.2,35758.7,1.6856,1.8698,146.4,96.3,0.547
5.4,32373.5,35597.5,1.5773,1.4723,146.4,96.3,0.547
5.42,32134.6,35474.6,0.569,1.1694,146.4,96.3,0.547
5.44,32099.8,35200.1,0.4222,0.4925,146.4,96.3,0.547
5.46,32049.3,35133.3,0.2092,0.3278,146.4,96.3,0.547
5.48,32113.3,35035.1,0.4794,0.0856,146.4,96.3,0.547
5.5,32011.1,35043.3,0.0479,0.1059,146.4,96.3,0.547
5.52,32006.6,34981.8,0.029,-0.0458,146.4,96.3,0.547
5.54,31919.0,34865.8,-0.3408,-0.3317,146.4,96.3,0.547
5.56,31850.1,34726.8,-0.6314,-0.6745,146.4,96.3,0.547
5.58,31827.5,34749.4,-0.7267,-0.6188,146.4,96.3,0.547
5.6,31893.9,34674.5,-0.4467,-0.8034,146.4,96.3,0.547
5.62,31839.3,34642.0,-0.6771,-0.8837,146.4,96.3,0.547
5.64,31890.9,34583.6,-0.4593,-1.0276,146.4,96.3,0.547
5.66,31769.2,34447.0,-0.973,-1.3645,146.4,96.3,0.547
5.68,31806.1,34424.5,-0.8172,-1.4198,146.4,96.3,0.547
5.7,31800.3,34573.3,-0.8415,-1.053,146.4,96.3,0.547
5.72,31886.8,34844.2,-0.4767,-0.385,146.4,96.3,0.547
5.74,32077.3,35238.0,0.3275,0.586,146.4,96.3,0.547
5.76,32214.8,35566.7,0.9074,1.3965,146.4,96.3,0.547
5.78,32439.1,35764.3,1.854,1.8835,146.4,96.3,0.547
5.8,32428.0,35720.5,1.8074,1.7757,146.4,96.3,0.547
5.82,32238.8,35479.7,1.0087,1.1818,146.4,96.3,0.547
5.84,32194.5,35331.8,0.8219,0.8172,146.4,96.3,0.547
5.86,32141.5,35265.2,0.598,0.653,146.4,96.3,0.547
5.88,32092.4,35114.5,0.3909,0.2815,146.4,96.3,0.547
5.9,31990.3,35195.2,-0.0401,0.4805,146.4,96.3,0.547
5.92,32056.6,35005.3,0.2399,0.0122,146.4,96.3,0.547
5.94,31884.4,34968.9,-0.4869,-0.0776,146.4,96.3,0.547
5.96,31886.4,34873.1,-0.4782,-0.3138,146.4,96.3,0.547
5.98,31882.3,34685.7,-0.4958,-0.7758,146.4,96.3,0.547
6.0,31844.0,34600.3,-0.6572,-0.9864,146.4,96.3,0.547
6.02,31836.3,34771.8,-0.6898,-0.5636,146.4,96.3,0.547
6.04,31868.5,34527.6,-0.554,-1.1658,146.4,96.3,0.547
6.06,31747.1,34590.1,-1.0661,-1.0115,146.4,96.3,0.547
6.08,31796.6,34389.1,-0.8573,-1.5072,146.4,96.3,0.547
6.1,31751.3,34413.7,-1.0486,-1.4464,146.4,96.3,0.547
6.12,31856.2,34674.8,-0.6056,-0.8027,146.4,96.3,0.547
6.14,31980.7,35081.6,-0.0804,0.2003,146.4,96.3,0.547
6.16,32212.1,35437.6,0.896,1.0782,146.4,96.3,0.547
6.18,32357.4,35760.7,1.5095,1.8748,146.4,96.3,0.547
6.2,32438.0,35787.4,1.8493,1.9407,146.4,96.3,0.547
6.22,32348.7,35576.2,1.4725,1.4197,146.4,96.3,0.547
6.24,32273.0,35428.1,1.1534,1.0547,146.4,96.3,0.547
6.26,32189.8,35304.4,0.8018,0.7497,146.4,96.3,0.547
6.28,32134.4,35182.1,0.5684,0.4481,146.4,96.3,0.547
6.3,32055.3,35061.9,0.2344,0.1518,146.4,96.3,0.547
6.32,31925.4,34936.3,-0.3136,-0.1579,146.4,96.3,0.547
6.34,32030.8,34983.3,0.131,-0.0421,146.4,96.3,0.547
6.36,31958.0,34798.6,-0.176,-0.4974,146.4,96.3,0.547
6.38,31847.6,34755.6,-0.642,-0.6035,146.4,96.3,0.547
6.4,31779.8,34697.2,-0.928,-0.7474,146.4,96.3,0.547
6.42,31765.8,34740.3,-0.9871,-0.6413,146.4,96.3,0.547
6.44,31807.9,34571.7,-0.8097,-1.057,146.4,96.3,0.547
6.46,31767.2,34501.4,-0.9814,-1.2304,146.4,96.3,0.547
6.48,31719.9,34392.0,-1.1808,-1.5,146.4,96.3,0.547
6.5,31688.6,34498.4,-1.313,-1.2376,146.4,96.3,0.547
6.52,31837.0,34521.3,-0.6869,-1.1813,146.4,96.3,0.547
6.54,31879.1,34959.7,-0.5092,-0.1001,146.4,96.3,0.547
6.56,32026.5,35246.7,0.1128,0.6073,146.4,96.3,0.547
6.58,32331.8,35614.6,1.4012,1.5146,146.4,96.3,0.547
6.6,32380.5,35663.5,1.6066,1.6351,146.4,96.3,0.547
6.62,32289.8,35736.2,1.2242,1.8142,146.4,96.3,0.547
6.64,32343.6,35580.6,1.4513,1.4307,146.4,96.3,0.547
6.66,32194.8,35324.8,0.8232,0.7999,146.4,96.3,0.547
6.68,32066.6,35256.6,0.2822,0.6317,146.4,96.3,0.547
6.7,32010.9,35074.5,0.0471,0.1828,146.4,96.3,0.547
6.72,32057.3,34984.9,0.2427,-0.0381,146.4,96.3,0.547
6.74,31993.7,34990.1,-0.0256,-0.0253,146.4,96.3,0.547
6.76,31877.4,34921.4,-0.5163,-0.1946,146.4,96.3,0.547
6.78,31764.7,34752.5,-0.9919,-0.6113,146.4,96.3,0.547
6.8,31819.2,34514.6,-0.7618,-1.1978,146.4,96.3,0.547
6.82,31826.1,34671.2,-0.7328,-0.8116,146.4,96.3,0.547
6.84,31807.6,34612.8,-0.8107,-0.9557,146.4,96.3,0.547
6.86,31880.8,34586.8,-0.5021,-1.0198,146.4,96.3,0.547
6.88,31653.6,34601.4,-1.4608,-0.9836,146.4,96.3,0.547
6.9,31738.5,34455.3,-1.1024,-1.344,146.4,96.3,0.547
6.92,31661.4,34520.8,-1.428,-1.1825,146.4,96.3,0.547
6.94,31838.2,34741.5,-0.6816,-0.6383,146.4,96.3,0.547
6.96,31992.3,35055.8,-0.0314,0.1367,146.4,96.3,0.547
6.98,32246.2,35430.8,1.0403,1.0613,146.4,96.3,0.547
7.0,32428.3,35729.8,1.8084,1.7985,146.4,96.3,0.547
7.02,32380.1,35725.7,1.605,1.7884,146.4,96.3,0.547
7.04,32361.3,35668.6,1.5258,1.6478,146.4,96.3,0.547
7.06,32227.7,35421.6,0.9621,1.0385,146.4,96.3,0.547
7.08,32060.1,35247.1,0.2548,0.6085,146.4,96.3,0.547
7.1,32041.5,35137.0,0.1762,0.337,146.4,96.3,0.547
7.12,32082.0,35170.2,0.347,0.4189,146.4,96.3,0.547
7.14,32030.2,35052.0,0.1284,0.1273,146.4,96.3,0.547
7.16,31929.0,34904.8,-0.2985,-0.2356,146.4,96.3,0.547
7.18,31968.6,34850.3,-0.1316,-0.37,146.4,96.3,0.547
7.2,31869.1,34785.6,-0.5513,-0.5296,146.4,96.3,0.547
7.22,31793.8,34748.0,-0.8692,-0.6221,146.4,96.3,0.547
7.24,31743.5,34636.8,-1.0814,-0.8964,146.4,96.3,0.547
7.26,31864.8,34598.7,-0.5696,-0.9904,146.4,96.3,0.547
7.28,31758.9,34608.4,-1.0162,-0.9666,146.4,96.3,0.547
7.3,31759.7,34522.6,-1.0128,-1.1781,146.4,96.3,0.547
7.32,31845.1,34367.4,-0.6527,-1.5606,146.4,96.3,0.547
7.34,31726.2,34552.4,-1.1542,-1.1046,146.4,96.3,0.547
7.36,31930.2,34873.0,-0.2934,-0.314,146.4,96.3,0.547
7.38,32107.8,35249.5,0.4559,0.6144,146.4,96.3,0.547
7.4,32243.3,35540.1,1.0279,1.3307,146.4,96.3,0.547
7.42,32342.3,35777.1,1.4457,1.9151,146.4,96.3,0.547
7.44,32381.2,35681.9,1.6096,1.6803,146.4,96.3,0.547
7.46,32273.7,35522.9,1.1562,1.2884,146.4,96.3,0.547
7.48,32172.2,35264.2,0.7279,0.6505,146.4,96.3,0.547
7.5,32127.1,35221.9,0.5373,0.5462,146.4,96.3,0.547
7.52,32065.4,35100.3,0.2769,0.2463,146.4,96.3,0.547
7.54,32077.0,35066.8,0.3259,0.1638,146.4,96.3,0.547
7.56,31929.8,35050.5,-0.2953,0.1237,146.4,96.3,0.547
7.58,31943.0,34916.0,-0.2395,-0.208,146.4,96.3,0.547
7.6,31940.3,34714.4,-0.2511,-0.705,146.4,96.3,0.547
7.62,31901.1,34593.4,-0.4164,-1.0033,146.4,96.3,0.547
7.64,31856.2,34594.3,-0.6056,-1.0012,146.4,96.3,0.547
7.66,31710.5,34691.9,-1.2207,-0.7605,146.4,96.3,0.547
7.68,31782.5,34669.1,-0.9167,-0.8168,146.4,96.3,0.547
7.7,31747.9,34496.3,-1.0628,-1.2429,146.4,96.3,0.547
7.72,31674.6,34353.2,-1.3722,-1.5956,146.4,96.3,0.547
7.74,31751.4,34462.2,-1.048,-1.3269,146.4,96.3,0.547
7.76,31922.3,34657.3,-0.3269,-0.8459,146.4,96.3,0.547
7.78,32090.6,35153.9,0.3836,0.3786,146.4,96.3,0.547
7.8,32303.9,35419.2,1.2836,1.0327,146.4,96.3,0.547
7.82,32353.2,35699.6,1.4916,1.7241,146.4,96.3,0.547
7.84,32384.9,35742.5,1.6256,1.83,146.4,96.3,0.547
7.86,32284.8,35677.9,1.2028,1.6706,146.4,96.3,0.547
7.88,32213.7,35442.9,0.9029,1.0912,146.4,96.3,0.547
7.9,32039.0,35247.9,0.1656,0.6104,146.4,96.3,0.547
7.92,32145.8,35161.0,0.6164,0.396,146.4,96.3,0.547
7.94,32095.2,35137.1,0.4029,0.3371,146.4,96.3,0.547
7.96,31998.0,35001.5,-0.0075,0.0027,146.4,96.3,0.547
7.98,32025.7,34901.3,0.1095,-0.2443,146.4,96.3,0.547
8.0,31881.2,34737.6,-0.5001,-0.648,146.4,96.3,0.547
8.02,31899.8,34744.6,-0.4219,-0.6307,146.4,96.3,0.547
8.04,31774.2,34725.8,-0.952,-0.677,146.4,96.3,0.547
8.06,31870.8,34566.6,-0.544,-1.0694,146.4,96.3,0.547
8.08,31877.4,34629.6,-0.5161,-0.9142,146.4,96.3,0.547
8.1,31735.3,34590.4,-1.1159,-1.0108,146.4,96.3,0.547
8.12,31749.7,34424.2,-1.0554,-1.4207,146.4,96.3,0.547
8.14,31712.3,34512.6,-1.2128,-1.2028,146.4,96.3,0.547
8.16,31751.2,34731.9,-1.049,-0.662,146.4,96.3,0.547
8.18,31898.0,34870.6,-0.4294,-0.32,146.4,96.3,0.547
8.2,32183.5,35136.2,0.7753,0.335,146.4,96.3,0.547
8.22,32377.4,35647.3,1.5936,1.5951,146.4,96.3,0.547
8.24,32428.5,35706.8,1.8096,1.7418,146.4,96.3,0.547
8.26,32255.0,35688.1,1.0773,1.6958,146.4,96.3,0.547
8.28,32310.9,35552.0,1.3129,1.3602,146.4,96.3,0.547
8.3,32172.1,35265.1,0.7272,0.6527,146.4,96.3,0.547
8.32,32068.5,35182.2,0.2901,0.4484,146.4,96.3,0.547
8.34,32078.2,35070.0,0.3309,0.1718,146.4,96.3,0.547
8.36,31951.6,35125.9,-0.2032,0.3096,146.4,96.3,0.547
8.38,31941.6,35016.5,-0.2455,0.0397,146.4,96.3,0.547
8.4,31905.9,34936.9,-0.3962,-0.1565,146.4,96.3,0.547
8.42,31784.1,34721.4,-0.9099,-0.6877,146.4,96.3,0.547
8.44,31814.8,34711.2,-0.7804,-0.713,146.4,96.3,0.547
8.46,31777.3,34642.3,-0.9386,-0.8829,146.4,96.3,0.547
8.48,31932.8,34559.4,-0.2825,-1.0872,146.4,96.3,0.547
8.5,31783.1,34584.1,-0.9144,-1.0264,146.4,96.3,0.547
8.52,31733.1,34467.5,-1.1251,-1.3138,146.4,96.3,0.547
8.54,31752.5,34379.8,-1.0435,-1.5302,146.4,96.3,0.547
8.56,31791.8,34427.2,-0.8775,-1.4133,146.4,96.3,0.547
8.58,31931.0,34721.7,-0.29,-0.6871,146.4,96.3,0.547
8.6,32092.0,35050.1,0.3893,0.1226,146.4,96.3,0.547
8.62,32171.3,35432.4,0.724,1.0652,146.4,96.3,0.547
8.64,32263.3,35618.4,1.1122,1.5238,146.4,96.3,0.547
8.66,32271.5,35701.0,1.1466,1.7276,146.4,96.3,0.547
8.68,32278.4,35714.5,1.1758,1.7609,146.4,96.3,0.547
8.7,32176.3,35466.7,0.7452,1.1499,146.4,96.3,0.547
8.72,32161.7,35234.0,0.6834,0.5761,146.4,96.3,0.547
8.74,32082.3,35147.9,0.3483,0.3638,146.4,96.3,0.547
8.76,32084.6,35065.5,0.3582,0.1606,146.4,96.3,0.547
8.78,32038.6,34989.7,0.164,-0.0263,146.4,96.3,0.547
8.8,31970.5,34976.8,-0.1232,-0.0581,146.4,96.3,0.547
8.82,31898.7,34793.4,-0.4265,-0.5104,146.4,96.3,0.547
8.84,31940.7,34685.2,-0.2491,-0.7772,146.4,96.3,0.547
8.86,31889.1,34608.0,-0.467,-0.9673,146.4,96.3,0.547
8.88,31940.5,34656.8,-0.2502,-0.8471,146.4,96.3,0.547
8.9,31808.4,34633.9,-0.8073,-0.9036,146.4,96.3,0.547
8.92,31710.3,34534.9,-1.2214,-1.1477,146.4,96.3,0.547
8.94,31739.8,34373.2,-1.097,-1.5463,146.4,96.3,0.547
8.96,31775.3,34388.1,-0.9472,-1.5097,146.4,96.3,0.547
8.98,31828.1,34557.7,-0.7243,-1.0915,146.4,96.3,0.547
9.0,32016.8,34805.8,0.072,-0.4797,146.4,96.3,0.547
9.02,32140.8,35293.7,0.5951,0.7233,146.4,96.3,0.547
9.04,32303.7,35623.8,1.2827,1.5372,146.4,96.3,0.547
9.06,32327.2,35774.6,1.3819,1.9091,146.4,96.3,0.547
9.08,32365.5,35765.7,1.5433,1.887,146.4,96.3,0.547
9.1,32208.2,35477.1,0.8795,1.1754,146.4,96.3,0.547
9.12,32182.7,35412.9,0.772,1.0171,146.4,96.3,0.547
9.14,32133.7,35145.5,0.5654,0.3579,146.4,96.3,0.547
9.16,32094.3,35077.2,0.3991,0.1895,146.4,96.3,0.547
9.18,32034.5,34976.7,0.1465,-0.0583,146.4,96.3,0.547
9.2,31970.3,34911.7,-0.1242,-0.2186,146.4,96.3,0.547
9.22,31910.3,34838.5,-0.3774,-0.3991,146.4,96.3,0.547
9.24,31768.6,34805.0,-0.9754,-0.4816,146.4,96.3,0.547
9.26,31894.3,34597.0,-0.4452,-0.9946,146.4,96.3,0.547
9.28,31967.3,34739.9,-0.137,-0.6422,146.4,96.3,0.547
9.3,31948.1,34623.0,-0.2178,-0.9305,146.4,96.3,0.547
9.32,31764.9,34655.2,-0.9912,-0.8511,146.4,96.3,0.547
9.34,31714.2,34530.6,-1.2051,-1.1582,146.4,96.3,0.547
9.36,31715.6,34416.4,-1.1993,-1.4398,146.4,96.3,0.547
9.38,31755.4,34525.7,-1.031,-1.1704,146.4,96.3,0.547
9.4,31841.9,34806.2,-0.666,-0.4789,146.4,96.3,0.547
9.42,31940.1,35151.1,-0.2517,0.3716,146.4,96.3,0.547
9.44,32248.1,35505.9,1.0479,1.2464,146.4,96.3,0.547
9.46,32459.5,35669.5,1.94,1.6498,146.4,96.3,0.547
9.48,32303.6,35761.5,1.2824,1.8766,146.4,96.3,0.547
9.5,32204.6,35690.3,0.8646,1.7011,146.4,96.3,0.547
9.52,32221.4,35402.2,0.9352,0.9907,146.4,96.3,0.547
9.54,32018.3,35182.5,0.0783,0.449,146.4,96.3,0.547
9.56,31996.2,35190.0,-0.0151,0.4675,146.4,96.3,0.547
9.58,32019.5,35119.8,0.0833,0.2946,146.4,96.3,0.547
9.6,31973.9,35023.1,-0.109,0.0561,146.4,96.3,0.547
9.62,31981.2,34983.8,-0.0784,-0.0407,146.4,96.3,0.547
9.64,31827.0,34736.5,-0.7291,-0.6507,146.4,96.3,0.547
9.66,31807.6,34756.8,-0.811,-0.6004,146.4,96.3,0.547
9.68,31833.0,34624.8,-0.7037,-0.9261,146.4,96.3,0.547
9.7,31713.5,34765.0,-1.208,-0.5803,146.4,96.3,0.547
9.72,31843.1,34622.1,-0.6611,-0.9327,146.4,96.3,0.547
9.74,31677.4,34538.8,-1.3602,-1.138,146.4,96.3,0.547
9.76,31743.9,34475.0,-1.0798,-1.2952,146.4,96.3,0.547
9.78,31724.5,34402.6,-1.1616,-1.4739,146.4,96.3,0.547
9.8,31817.2,34559.8,-0.7705,-1.0864,146.4,96.3,0.547
9.82,32000.6,34890.5,0.0035,-0.2709,146.4,96.3,0.547
9.84,32134.2,35284.5,0.5674,0.7006,146.4,96.3,0.547
9.86,32267.2,35603.9,1.1285,1.4881,146.4,96.3,0.547
9.88,32352.7,35766.8,1.4894,1.8899,146.4,96.3,0.547
9.9,32348.2,35687.8,1.4707,1.6949,146.4,96.3,0.547
9.92,32279.1,35449.9,1.1788,1.1083,146.4,96.3,0.547
9.94,32082.6,35327.0,0.3498,0.8054,146.4,96.3,0.547
9.96,32132.0,35083.6,0.5582,0.2051,146.4,96.3,0.547
9.98,32128.6,35099.0,0.5437,0.2433,146.4,96.3,0.547
10.0,32095.6,35035.6,0.4046,0.087,146.4,96.3,0.547
10.02,31963.0,34945.5,-0.155,-0.1353,146.4,96.3,0.547
10.04,31915.9,34868.1,-0.3538,-0.3261,146.4,96.3,0.547
10.06,31930.5,34742.6,-0.2924,-0.6355,146.4,96.3,0.547
10.08,31774.7,34667.0,-0.9496,-0.8221,146.4,96.3,0.547
10.1,31838.3,34604.3,-0.6815,-0.9765,146.4,96.3,0.547
10.12,31858.7,34658.0,-0.5954,-0.8441,146.4,96.3,0.547
10.14,31771.8,34605.2,-0.9619,-0.9744,146.4,96.3,0.547
10.16,31783.0,34493.0,-0.9147,-1.251,146.4,96.3,0.547
10.18,31716.4,34541.5,-1.1956,-1.1314,146.4,96.3,0.547
10.2,31747.5,34411.9,-1.0646,-1.451,146.4,96.3,0.547
10.22,31853.7,34746.0,-0.6164,-0.6271,146.4,96.3,0.547
10.24,32099.2,35049.3,0.4195,0.1207,146.4,96.3,0.547
10.26,32200.4,35561.7,0.8466,1.384,146.4,96.3,0.547
10.28,32296.6,35677.0,1.2528,1.6683,146.4,96.3,0.547
10.3,32338.6,35732.9,1.4299,1.8062,146.4,96.3,0.547
10.32,32378.8,35717.1,1.5997,1.7671,146.4,96.3,0.547
10.34,32116.4,35430.1,0.4924,1.0597,146.4,96.3,0.547
10.36,32144.7,35225.0,0.6119,0.5538,146.4,96.3,0.547
10.38,32061.9,35081.8,0.2622,0.2007,146.4,96.3,0.547
10.4,32057.2,34984.7,0.2423,-0.0386,146.4,96.3,0.547
10.42,31966.9,35005.5,-0.1384,0.0126,146.4,96.3,0.547
10.44,31954.7,34965.3,-0.1901,-0.0864,146.4,96.3,0.547
10.46,31980.6,34817.9,-0.0809,-0.45,146.4,96.3,0.547
10.48,31895.0,34704.6,-0.4419,-0.7292,146.4,96.3,0.547
10.5,31756.9,34699.3,-1.0248,-0.7424,146.4,96.3,0.547
10.52,31815.4,34565.4,-0.7778,-1.0725,146.4,96.3,0.547
10.54,31786.9,34517.2,-0.8983,-1.1912,146.4,96.3,0.547
10.56,31737.3,34535.2,-1.1074,-1.147,146.4,96.3,0.547
10.58,31695.5,34500.5,-1.2841,-1.2324,146.4,96.3,0.547
10.6,31777.3,34412.1,-0.9389,-1.4505,146.4,96.3,0.547
10.62,31729.9,34695.4,-1.1386,-0.752,146.4,96.3,0.547
10.64,31935.5,34878.9,-0.271,-0.2994,146.4,96.3,0.547
10.66,32143.7,35282.7,0.6075,0.6962,146.4,96.3,0.547
10.68,32361.3,35604.0,1.5256,1.4884,146.4,96.3,0.547
10.7,32408.6,35798.5,1.7253,1.968,146.4,96.3,0.547
10.72,32404.5,35712.7,1.7082,1.7563,146.4,96.3,0.547
10.74,32333.4,35497.9,1.4079,1.2268,146.4,96.3,0.547
10.76,32130.9,35322.6,0.5533,0.7946,146.4,96.3,0.547
10.78,32045.4,35120.2,0.1926,0.2955,146.4,96.3,0.547
10.8,32076.9,35211.3,0.3256,0.5202,146.4,96.3,0.547
10.82,32023.6,35065.8,0.1007,0.1613,146.4,96.3,0.547
10.84,32045.7,34969.7,0.194,-0.0756,146.4,96.3,0.547
10.86,31878.8,34835.9,-0.5104,-0.4054,146.4,96.3,0.547
10.88,31970.2,34764.7,-0.1245,-0.581,146.4,96.3,0.547
10.9,31858.0,34660.4,-0.5983,-0.8382,146.4,96.3,0.547
10.92,31769.0,34711.2,-0.9739,-0.7129,146.4,96.3,0.547
10.94,31817.8,34723.4,-0.7678,-0.6829,146.4,96.3,0.547
10.96,31875.1,34539.5,-0.526,-1.1364,146.4,96.3,0.547
10.98,31740.4,34550.3,-1.0944,-1.1097,146.4,96.3,0.547
11.0,31707.2,34322.7,-1.2347,-1.6708,146.4,96.3,0.547
11.02,31745.1,34515.2,-1.0747,-1.1963,146.4,96.3,0.547
11.04,31850.5,34745.9,-0.6296,-0.6275,146.4,96.3,0.547
11.06,32087.7,35103.0,0.3712,0.2531,146.4,96.3,0.547
11.08,32215.3,35494.7,0.9098,1.2188,146.4,96.3,0.547
11.1,32340.7,35807.0,1.4388,1.9888,146.4,96.3,0.547
11.12,32455.8,35795.9,1.9246,1.9614,146.4,96.3,0.547
11.14,32241.9,35613.6,1.022,1.5121,146.4,96.3,0.547
11.16,32139.4,35428.9,0.5893,1.0566,146.4,96.3,0.547
11.18,32193.4,35310.0,0.8174,0.7633,146.4,96.3,0.547
11.2,32133.5,35154.9,0.5645,0.381,146.4,96.3,0.547
11.22,32026.4,35034.6,0.1123,0.0844,146.4,96.3,0.547
11.24,32091.6,35033.3,0.3874,0.0813,146.4,96.3,0.547
11.26,31996.6,34867.1,-0.0134,-0.3286,146.4,96.3,0.547
11.28,31872.5,34843.0,-0.5369,-0.388,146.4,96.3,0.547
11.3,31825.0,34745.1,-0.7376,-0.6293,146.4,96.3,0.547
11.32,31819.7,34700.0,-0.7598,-0.7405,146.4,96.3,0.547
11.34,31783.4,34692.6,-0.9131,-0.7589,146.4,96.3,0.547
11.36,31872.4,34661.1,-0.5375,-0.8365,146.4,96.3,0.547
11.38,31817.0,34544.3,-0.7712,-1.1245,146.4,96.3,0.547
11.4,31691.5,34439.3,-1.3009,-1.3834,146.4,96.3,0.547
11.42,31672.3,34458.9,-1.3818,-1.335,146.4,96.3,0.547
11.44,31758.5,34561.6,-1.0182,-1.0819,146.4,96.3,0.547
11.46,31973.0,34949.7,-0.113,-0.1249,146.4,96.3,0.547
11.48,32149.9,35270.5,0.6335,0.6662,146.4,96.3,0.547
11.5,32354.3,35652.2,1.4964,1.6073,146.4,96.3,0.547
11.52,32294.7,35848.0,1.2449,2.0899,146.4,96.3,0.547
11.54,32342.1,35802.5,1.4449,1.9777,146.4,96.3,0.547
11.56,32202.7,35560.3,0.8566,1.3805,146.4,96.3,0.547
11.58,32235.0,35298.2,0.9926,0.7343,146.4,96.3,0.547
11.6,31994.0,35171.4,-0.0242,0.4217,146.4,96.3,0.547
11.62,32073.0,35076.7,0.3092,0.1882,146.4,96.3,0.547
11.64,31996.9,35139.0,-0.0118,0.3419,146.4,96.3,0.547
11.66,31929.5,34987.1,-0.2964,-0.0327,146.4,96.3,0.547
11.68,31971.3,34922.9,-0.1198,-0.1909,146.4,96.3,0.547
11.7,31844.4,34808.5,-0.6554,-0.4732,146.4,96.3,0.547
11.72,31795.8,34628.9,-0.8608,-0.9159,146.4,96.3,0.547
11.74,31757.6,34731.8,-1.022,-0.6622,146.4,96.3,0.547
11.76,31848.0,34673.5,-0.6403,-0.806,146.4,96.3,0.547
11.78,31840.8,34515.5,-0.6708,-1.1955,146.4,96.3,0.547
11.8,31738.5,34451.6,-1.1023,-1.353,146.4,96.3,0.547
11.82,31787.4,34470.0,-0.8962,-1.3077,146.4,96.3,0.547
11.84,31707.7,34521.2,-1.2326,-1.1813,146.4,96.3,0.547
11.86,31877.7,34837.1,-0.5151,-0.4025,146.4,96.3,0.547
11.88,31991.3,35019.1,-0.0358,0.0461,146.4,96.3,0.547
11.9,32301.7,35506.5,1.2743,1.2481,146.4,96.3,0.547
11.92,32352.1,35767.1,1.4868,1.8905,146.4,96.3,0.547
11.94,32424.9,35695.9,1.794,1.7148,146.4,96.3,0.547
11.96,32250.6,35569.9,1.0587,1.4044,146.4,96.3,0.547
11.98,32216.1,35458.7,0.9131,1.1302,146.4,96.3,0.547
12.0,32084.1,35253.2,0.3561,0.6233,146.4,96.3,0.547
12.02,32136.8,35051.5,0.5782,0.1262,146.4,96.3,0.547
12.04,31997.0,35063.3,-0.0118,0.1551,146.4,96.3,0.547
12.06,32045.6,35039.0,0.1935,0.0953,146.4,96.3,0.547
12.08,31852.9,34888.4,-0.6196,-0.2761,146.4,96.3,0.547
12.1,31986.6,34839.4,-0.0554,-0.397,146.4,96.3,0.547
12.12,31838.5,34712.0,-0.6804,-0.7111,146.4,96.3,0.547
12.14,31822.2,34651.0,-0.7493,-0.8614,146.4,96.3,0.547
12.16,31788.4,34702.7,-0.892,-0.7339,146.4,96.3,0.547
12.18,31823.0,34597.5,-0.746,-0.9933,146.4,96.3,0.547
12.2,31838.2,34587.7,-0.6816,-1.0175,146.4,96.3,0.547
12.22,31781.4,34495.2,-0.9215,-1.2455,146.4,96.3,0.547
12.24,31698.4,34437.7,-1.2715,-1.3873,146.4,96.3,0.547
12.26,31809.0,34650.6,-0.805,-0.8625,146.4,96.3,0.547
12.28,31839.4,34861.8,-0.6766,-0.3417,146.4,96.3,0.547
12.3,32111.2,35314.9,0.4702,0.7755,146.4,96.3,0.547
12.32,32274.0,35702.2,1.1576,1.7306,146.4,96.3,0.547
12.34,32316.5,35811.7,1.3368,2.0006,146.4,96.3,0.547
12.36,32291.4,35753.2,1.2307,1.8562,146.4,96.3,0.547
12.38,32142.5,35523.1,0.6023,1.2888,146.4,96.3,0.547
12.4,32150.6,35283.1,0.6368,0.6971,146.4,96.3,0.547
12.42,32099.8,35220.6,0.4221,0.5429,146.4,96.3,0.547
12.44,32003.8,35093.2,0.0171,0.229,146.4,96.3,0.547
12.46,31902.4,35077.2,-0.4106,0.1894,146.4,96.3,0.547
12.48,31984.3,34955.4,-0.065,-0.111,146.4,96.3,0.547
12.5,31881.7,34834.7,-0.498,-0.4085,146.4,96.3,0.547
12.52,31931.2,34743.2,-0.2894,-0.634,146.4,96.3,0.547
12.54,31852.0,34680.2,-0.6235,-0.7894,146.4,96.3,0.547
12.56,31917.8,34626.9,-0.3457,-0.9207,146.4,96.3,0.547
12.58,31794.6,34560.5,-0.8659,-1.0846,146.4,96.3,0.547
12.6,31729.6,34634.7,-1.1401,-0.9015,146.4,96.3,0.547
12.62,31710.8,34501.2,-1.2193,-1.2307,146.4,96.3,0.547
12.64,31750.2,34443.9,-1.0531,-1.372,146.4,96.3,0.547
12.66,31779.1,34588.8,-0.9311,-1.0147,146.4,96.3,0.547
12.68,31890.6,34756.3,-0.4607,-0.6017,146.4,96.3,0.547
12.7,31992.3,35113.4,-0.0313,0.2788,146.4,96.3,0.547
12.72,32267.1,35570.5,1.1284,1.4058,146.4,96.3,0.547
12.74,32366.3,35722.8,1.5467,1.7812,146.4,96.3,0.547
12.76,32384.7,35605.7,1.6247,1.4926,146.4,96.3,0.547
12.78,32373.7,35632.6,1.578,1.5588,146.4,96.3,0.547
12.8,32158.6,35389.6,0.6703,0.9596,146.4,96.3,0.547
12.82,32151.1,35238.7,0.6387,0.5877,146.4,96.3,0.547
12.84,32120.0,35145.7,0.5075,0.3583,146.4,96.3,0.547
12.86,31959.9,35142.6,-0.1683,0.3507,146.4,96.3,0.547
12.88,32048.5,35086.2,0.2056,0.2117,146.4,96.3,0.547
12.9,31973.9,34896.3,-0.1091,-0.2566,146.4,96.3,0.547
12.92,31860.1,34825.6,-0.5893,-0.431,146.4,96.3,0.547
12.94,31891.9,34760.1,-0.4551,-0.5923,146.4,96.3,0.547
12.96,31726.9,34650.9,-1.1512,-0.8616,146.4,96.3,0.547
12.98,31715.4,34661.8,-1.2001,-0.8347,146.4,96.3,0.547
13.0,31839.3,34585.9,-0.677,-1.0219,146.4,96.3,0.547
13.02,31774.5,34450.8,-0.9507,-1.355,146.4,96.3,0.547
13.04,31752.0,34462.8,-1.0454,-1.3253,146.4,96.3,0.547
13.06,31726.9,34457.7,-1.1513,-1.3381,146.4,96.3,0.547
13.08,31741.3,34632.9,-1.0907,-0.906,146.4,96.3,0.547
13.1,32032.9,34899.2,0.1398,-0.2493,146.4,96.3,0.547
13.12,32165.4,35358.7,0.699,0.8835,146.4,96.3,0.547
13.14,32238.2,35601.3,1.0063,1.4817,146.4,96.3,0.547
13.16,32367.3,35799.2,1.5511,1.9696,146.4,96.3,0.547
13.18,32404.7,35621.2,1.7091,1.5307,146.4,96.3,0.547
13.2,32194.6,35521.1,0.8221,1.2841,146.4,96.3,0.547
13.22,32146.3,35382.5,0.6186,0.9422,146.4,96.3,0.547
13.24,32173.5,35187.1,0.7332,0.4604,146.4,96.3,0.547
13.26,32128.3,35125.5,0.5426,0.3086,146.4,96.3,0.547
13.28,32049.3,35123.1,0.2092,0.3026,146.4,96.3,0.547
13.3,31923.6,34925.3,-0.3214,-0.1851,146.4,96.3,0.547
13.32,31984.3,34849.1,-0.065,-0.373,146.4,96.3,0.547
13.34,31918.3,34861.2,-0.3437,-0.3432,146.4,96.3,0.547
13.36,31805.2,34687.8,-0.8208,-0.7706,146.4,96.3,0.547
13.38,31787.2,34620.5,-0.8971,-0.9366,146.4,96.3,0.547
13.4,31747.2,34607.7,-1.0658,-0.9682,146.4,96.3,0.547
13.42,31757.0,34509.5,-1.0244,-1.2104,146.4,96.3,0.547
13.44,31778.4,34516.2,-0.9339,-1.1937,146.4,96.3,0.547
13.46,31728.4,34436.3,-1.1451,-1.3907,146.4,96.3,0.547
13.48,31792.8,34523.7,-0.8734,-1.1753,146.4,96.3,0.547
13.5,31880.2,34781.6,-0.5047,-0.5394,146.4,96.3,0.547
13.52,32146.6,35154.3,0.6197,0.3796,146.4,96.3,0.547
13.54,32269.1,35558.8,1.1368,1.377,146.4,96.3,0.547
13.56,32337.0,35622.6,1.4232,1.5343,146.4,96.3,0.547
13.58,32438.0,35747.1,1.8494,1.8411,146.4,96.3,0.547
13.6,32333.0,35591.8,1.4066,1.4582,146.4,96.3,0.547
13.62,32139.1,35396.6,0.588,0.9771,146.4,96.3,0.547
13.64,32163.0,35242.6,0.6888,0.5973,146.4,96.3,0.547
13.66,32040.4,35109.6,0.1716,0.2692,146.4,96.3,0.547
13.68,32064.2,35020.1,0.2722,0.0486,146.4,96.3,0.547
13.7,31966.7,34932.0,-0.1395,-0.1685,146.4,96.3,0.547
13.72,31982.3,34873.9,-0.0734,-0.3119,146.4,96.3,0.547
13.74,31825.1,34779.6,-0.7372,-0.5444,146.4,96.3,0.547
13.76,31850.3,34807.8,-0.6308,-0.4749,146.4,96.3,0.547
13.78,31799.2,34687.1,-0.8465,-0.7723,146.4,96.3,0.547
13.8,31909.7,34689.2,-0.3798,-0.7672,146.4,96.3,0.547
13.82,31876.2,34641.6,-0.5213,-0.8845,146.4,96.3,0.547
13.84,31793.2,34477.1,-0.8717,-1.2903,146.4,96.3,0.547
13.86,31700.2,34471.0,-1.2641,-1.3053,146.4,96.3,0.547
13.88,31771.4,34511.7,-0.9638,-1.2048,146.4,96.3,0.547
13.9,31809.1,34578.9,-0.8044,-1.0392,146.4,96.3,0.547
13.92,32010.1,34996.7,0.0437,-0.0091,146.4,96.3,0.547
13.94,32139.2,35309.2,0.5886,0.7616,146.4,96.3,0.547
13.96,32330.5,35605.9,1.3957,1.4929,146.4,96.3,0.547
13.98,32361.0,35803.0,1.5244,1.9791,146.4,96.3,0.547
14.0,32364.6,35689.8,1.5396,1.6998,146.4,96.3,0.547
14.02,32343.0,35511.7,1.4486,1.2609,146.4,96.3,0.547
14.04,32132.3,35318.3,0.5594,0.784,146.4,96.3,0.547
14.06,32139.6,35136.4,0.59,0.3353,146.4,96.3,0.547
14.08,32018.2,35112.6,0.0777,0.2768,146.4,96.3,0.547
14.1,32088.9,35143.8,0.3762,0.3536,146.4,96.3,0.547
14.12,32008.4,35058.9,0.0364,0.1443,146.4,96.3,0.547
14.14,31914.3,34765.6,-0.3606,-0.5788,146.4,96.3,0.547
14.16,31904.6,34802.3,-0.4017,-0.4883,146.4,96.3,0.547
14.18,31781.0,34598.3,-0.9231,-0.9913,146.4,96.3,0.547
14.2,31911.0,34664.5,-0.3745,-0.8281,146.4,96.3,0.547
14.22,31879.8,34690.9,-0.5061,-0.7629,146.4,96.3,0.547
14.24,31773.0,34637.0,-0.9568,-0.8959,146.4,96.3,0.547
14.26,31763.8,34509.3,-0.9957,-1.2107,146.4,96.3,0.547
14.28,31721.5,34392.9,-1.1741,-1.4978,146.4,96.3,0.547
14.3,31798.7,34607.3,-0.8486,-0.969,146.4,96.3,0.547
14.32,31899.4,34734.7,-0.4236,-0.6551,146.4,96.3,0.547
14.34,32057.8,35125.9,0.2452,0.3095,146.4,96.3,0.547
14.36,32181.0,35464.5,0.7647,1.1445,146.4,96.3,0.547
14.38,32442.7,35765.4,1.8694,1.8863,146.4,96.3,0.547
14.4,32473.1,35715.6,1.9976,1.7635,146.4,96.3,0.547
14.42,32347.3,35593.5,1.4665,1.4625,146.4,96.3,0.547
14.44,32095.8,35307.5,0.4053,0.7574,146.4,96.3,0.547
14.46,32169.6,35214.2,0.7168,0.5272,146.4,96.3,0.547
14.48,32075.3,35130.2,0.3189,0.3202,146.4,96.3,0.547
14.5,31970.9,35031.5,-0.1218,0.0769,146.4,96.3,0.547
14.52,31938.5,35012.1,-0.2585,0.029,146.4,96.3,0.547
14.54,31942.0,34853.3,-0.2437,-0.3627,146.4,96.3,0.547
14.56,31875.0,34823.2,-0.5265,-0.4367,146.4,96.3,0.547
14.58,31941.0,34697.6,-0.2481,-0.7465,146.4,96.3,0.547
14.6,31876.7,34714.6,-0.5192,-0.7046,146.4,96.3,0.547
14.62,31847.2,34636.4,-0.6438,-0.8975,146.4,96.3,0.547
14.64,31746.4,34660.4,-1.0692,-0.8381,146.4,96.3,0.547
14.66,31713.4,34485.5,-1.2084,-1.2696,146.4,96.3,0.547
14.68,31702.8,34536.1,-1.2533,-1.1447,146.4,96.3,0.547
14.7,31758.8,34548.7,-1.0167,-1.1138,146.4,96.3,0.547
14.72,31861.8,34644.1,-0.5821,-0.8785,146.4,96.3,0.547
14.74,31987.1,35000.9,-0.0533,0.0014,146.4,96.3,0.547
14.76,32137.5,35354.4,0.5813,0.873,146.4,96.3,0.547
14.78,32344.1,35661.9,1.4532,1.6312,146.4,96.3,0.547
14.8,32321.2,35778.2,1.3564,1.9178,146.4,96.3,0.547
14.82,32325.8,35676.1,1.3759,1.6661,146.4,96.3,0.547
14.84,32293.2,35470.5,1.2385,1.1591,146.4,96.3,0.547
14.86,32125.4,35299.4,0.5302,0.7374,146.4,96.3,0.547
14.88,32014.1,35121.1,0.0607,0.2976,146.4,96.3,0.547
14.9,32079.8,35046.0,0.3378,0.1126,146.4,96.3,0.547
14.92,32041.7,35034.4,0.1771,0.084,146.4,96.3,0.547
14.94,31942.7,34923.1,-0.2405,-0.1906,146.4,96.3,0.547
14.96,31859.8,34980.8,-0.5907,-0.0483,146.4,96.3,0.547
14.98,31937.5,34805.5,-0.2626,-0.4804,146.4,96.3,0.547
15.0,31830.0,34713.7,-0.7164,-0.7068,146.4,96.3,0.547
15.02,31872.0,34709.2,-0.5391,-0.7178,146.4,96.3,0.547
15.04,31836.6,34620.0,-0.6884,-0.9379,146.4,96.3,0.547
15.06,31683.7,34520.8,-1.3337,-1.1823,146.4,96.3,0.547
15.08,31720.6,34555.2,-1.1779,-1.0976,146.4,96.3,0.547
15.1,31680.3,34440.6,-1.3481,-1.3802,146.4,96.3,0.547
15.12,31780.0,34549.6,-0.9271,-1.1115,146.4,96.3,0.547
15.14,31913.7,34718.3,-0.3633,-0.6955,146.4,96.3,0.547
15.16,32150.0,35188.6,0.6339,0.464,146.4,96.3,0.547
15.18,32256.0,35528.6,1.0815,1.3024,146.4,96.3,0.547
15.2,32321.2,35769.9,1.3564,1.8973,146.4,96.3,0.547
15.22,32441.1,35680.8,1.8624,1.6777,146.4,96.3,0.547
15.24,32333.1,35568.4,1.4068,1.4006,146.4,96.3,0.547
15.26,32249.3,35419.4,1.0533,1.0331,146.4,96.3,0.547
15.28,32149.2,35230.8,0.6307,0.5681,146.4,96.3,0.547
15.3,32072.7,35103.3,0.3077,0.2537,146.4,96.3,0.547
15.32,32047.0,35146.0,0.1994,0.359,146.4,96.3,0.547
15.34,32030.8,35007.1,0.1309,0.0166,146.4,96.3,0.547
15.36,31981.7,34889.5,-0.076,-0.2733,146.4,96.3,0.547
15.38,31893.4,34754.9,-0.4487,-0.6053,146.4,96.3,0.547
15.4,31905.5,34733.1,-0.3978,-0.659,146.4,96.3,0.547
15.42,31842.9,34663.3,-0.6621,-0.831,146.4,96.3,0.547
15.44,31710.7,34660.4,-1.2199,-0.8384,146.4,96.3,0.547
15.46,31822.1,34544.3,-0.7495,-1.1245,146.4,96.3,0.547
15.48,31756.1,34519.6,-1.0282,-1.1854,146.4,96.3,0.547
15.5,31725.6,34407.0,-1.157,-1.4631,146.4,96.3,0.547
15.52,31719.2,34498.8,-1.1839,-1.2366,146.4,96.3,0.547
15.54,31858.5,34602.7,-0.596,-0.9806,146.4,96.3,0.547
15.56,32046.4,35020.5,0.1969,0.0497,146.4,96.3,0.547
15.58,32209.9,35287.6,0.8868,0.7083,146.4,96.3,0.547
15.6,32285.6,35602.8,1.2064,1.4854,146.4,96.3,0.547
15.62,32341.0,35694.7,1.4401,1.7121,146.4,96.3,0.547
15.64,32371.5,35698.3,1.5687,1.7208,146.4,96.3,0.547
15.66,32256.1,35437.5,1.0819,1.0778,146.4,96.3,0.547
15.68,32166.4,35279.8,0.7031,0.6889,146.4,96.3,0.547
15.7,32154.7,35253.3,0.6538,0.6237,146.4,96.3,0.547
15.72,32049.9,35131.9,0.2117,0.3244,146.4,96.3,0.547
15.74,32065.2,35062.4,0.2762,0.153,146.4,96.3,0.547
15.76,32007.6,34950.5,0.0331,-0.1229,146.4,96.3,0.547
15.78,31892.7,34942.6,-0.4517,-0.1425,146.4,96.3,0.547
15.8,31871.3,34809.1,-0.5419,-0.4716,146.4,96.3,0.547
15.82,31880.0,34682.3,-0.5054,-0.7843,146.4,96.3,0.547
15.84,31779.7,34628.0,-0.9285,-0.9181,146.4,96.3,0.547
15.86,31800.5,34609.9,-0.8408,-0.9628,146.4,96.3,0.547
15.88,31770.9,34597.1,-0.9657,-0.9943,146.4,96.3,0.547
15.9,31784.8,34511.4,-0.9072,-1.2056,146.4,96.3,0.547
15.92,31735.0,34428.7,-1.1173,-1.4096,146.4,96.3,0.547
15.94,31774.3,34542.4,-0.9514,-1.1292,146.4,96.3,0.547
15.96,31840.0,34817.5,-0.6741,-0.4509,146.4,96.3,0.547
15.98,32159.3,35173.8,0.6733,0.4277,146.4,96.3,0.547
16.0,32251.2,35500.4,1.0609,1.2329,146.4,96.3,0.547
16.02,32386.6,35745.5,1.6325,1.8372,146.4,96.3,0.547
16.04,32295.3,35718.5,1.2475,1.7707,146.4,96.3,0.547
16.06,32251.3,35606.2,1.0617,1.4937,146.4,96.3,0.547
16.08,32164.2,35425.6,0.6942,1.0484,146.4,96.3,0.547
16.1,32086.7,35298.0,0.367,0.734,146.4,96.3,0.547
16.12,32014.9,35211.2,0.0641,0.5198,146.4,96.3,0.547
16.14,32082.8,35095.9,0.3505,0.2355,146.4,96.3,0.547
16.16,32028.9,35029.6,0.1229,0.0722,146.4,96.3,0.547
16.18,31984.4,34868.8,-0.0649,-0.3243,146.4,96.3,0.547
16.2,31934.9,34832.2,-0.2738,-0.4146,146.4,96.3,0.547
16.22,31807.6,34601.1,-0.811,-0.9845,146.4,96.3,0.547
16.24,31810.4,34714.9,-0.7991,-0.7039,146.4,96.3,0.547
16.26,31796.6,34604.8,-0.8571,-0.9754,146.4,96.3,0.547
16.28,31797.4,34590.8,-0.854,-1.0098,146.4,96.3,0.547
16.3,31806.0,34570.4,-0.8176,-1.0601,146.4,96.3,0.547
16.32,31795.6,34487.0,-0.8617,-1.2658,146.4,96.3,0.547
16.34,31716.2,34523.9,-1.1964,-1.1748,146.4,96.3,0.547
16.36,31859.5,34755.2,-0.5918,-0.6046,146.4,96.3,0.547
16.38,32027.6,34934.2,0.1175,-0.1631,146.4,96.3,0.547
16.4,32119.3,35342.2,0.5044,0.8428,146.4,96.3,0.547
16.42,32244.2,35695.4,1.0318,1.7138,146.4,96.3,0.547
16.44,32347.3,35860.0,1.4666,2.1195,146.4,96.3,0.547
16.46,32426.6,35662.0,1.8014,1.6314,146.4,96.3,0.547
16.48,32218.2,35449.2,0.9218,1.1067,146.4,96.3,0.547
16.5,32102.4,35353.9,0.4332,0.8718,146.4,96.3,0.547
16.52,32081.4,35100.8,0.3447,0.2476,146.4,96.3,0.547
16.54,31976.9,35094.9,-0.0965,0.233,146.4,96.3,0.547
16.56,32042.8,35044.7,0.1817,0.1094,146.4,96.3,0.547
16.58,31928.0,34915.3,-0.3029,-0.2097,146.4,96.3,0.547
16.6,31932.8,34745.1,-0.2825,-0.6295,146.4,96.3,0.547
16.62,31833.2,34725.0,-0.7029,-0.679,146.4,96.3,0.547
16.64,31751.5,34733.0,-1.0475,-0.6591,146.4,96.3,0.547
16.66,31812.1,34761.0,-0.7919,-0.5902,146.4,96.3,0.547
16.68,31800.0,34535.0,-0.8428,-1.1474,146.4,96.3,0.547
16.7,31704.2,34638.7,-1.2474,-0.8918,146.4,96.3,0.547
16.72,31661.8,34494.0,-1.4261,-1.2485,146.4,96.3,0.547
16.74,31756.1,34372.4,-1.0282,-1.5483,146.4,96.3,0.547
16.76,31782.1,34491.3,-0.9184,-1.2553,146.4,96.3,0.547
16.78,31848.7,34807.5,-0.6373,-0.4756,146.4,96.3,0.547
16.8,32040.8,35157.5,0.1731,0.3874,146.4,96.3,0.547
16.82,32218.7,35504.2,0.924,1.2424,146.4,96.3,0.547
16.84,32315.0,35740.0,1.3302,1.8238,146.4,96.3,0.547
16.86,32397.5,35734.9,1.6787,1.8111,146.4,96.3,0.547
16.88,32267.5,35620.0,1.1299,1.5278,146.4,96.3,0.547
16.9,32217.8,35261.0,0.9201,0.6427,146.4,96.3,0.547
16.92,32133.9,35215.2,0.5661,0.5298,146.4,96.3,0.547
16.94,32091.8,35112.9,0.3886,0.2774,146.4,96.3,0.547
16.96,32001.7,35121.7,0.0082,0.2991,146.4,96.3,0.547
16.98,32004.0,34988.2,0.0181,-0.0301,146.4,96.3,0.547
17.0,31976.1,34916.3,-0.0996,-0.2073,146.4,96.3,0.547
17.02,31901.8,34758.4,-0.4134,-0.5965,146.4,96.3,0.547
17.04,31915.3,34687.9,-0.3562,-0.7705,146.4,96.3,0.547
17.06,31846.1,34742.3,-0.6486,-0.6362,146.4,96.3,0.547
17.08,31891.0,34660.3,-0.459,-0.8384,146.4,96.3,0.547
17.1,31841.3,34546.2,-0.6686,-1.1198,146.4,96.3,0.547
17.12,31758.4,34461.0,-1.0185,-1.33,146.4,96.3,0.547
17.14,31718.3,34440.9,-1.1878,-1.3794,146.4,96.3,0.547
17.16,31733.8,34392.0,-1.1221,-1.5001,146.4,96.3,0.547
17.18,31834.3,34626.0,-0.698,-0.923,146.4,96.3,0.547
17.2,32007.6,34942.7,0.0333,-0.1422,146.4,96.3,0.547
17.22,32188.4,35365.3,0.7961,0.8998,146.4,96.3,0.547
17.24,32336.6,35660.6,1.4217,1.6278,146.4,96.3,0.547
17.26,32532.7,35810.3,2.2492,1.997,146.4,96.3,0.547
17.28,32280.1,35744.3,1.1832,1.8342,146.4,96.3,0.547
17.3,32253.5,35455.2,1.0707,1.1215,146.4,96.3,0.547
17.32,32108.5,35245.3,0.459,0.604,146.4,96.3,0.547
17.34,32104.0,35092.0,0.4399,0.2259,146.4,96.3,0.547
17.36,32067.9,35083.1,0.2876,0.2039,146.4,96.3,0.547
17.38,32029.5,35032.1,0.1255,0.0781,146.4,96.3,0.547
17.4,31944.2,34923.6,-0.2346,-0.1893,146.4,96.3,0.547
17.42,32002.7,34824.6,0.0124,-0.4333,146.4,96.3,0.547
17.44,31982.0,34790.1,-0.0748,-0.5184,146.4,96.3,0.547
17.46,31884.9,34695.8,-0.4846,-0.751,146.4,96.3,0.547
17.48,31797.8,34628.7,-0.8524,-0.9164,146.4,96.3,0.547
17.5,31826.3,34716.5,-0.7318,-0.6999,146.4,96.3,0.547
17.52,31871.4,34560.2,-0.5415,-1.0854,146.4,96.3,0.547
17.54,31781.4,34487.1,-0.9216,-1.2656,146.4,96.3,0.547
17.56,31707.0,34443.8,-1.2354,-1.3724,146.4,96.3,0.547
17.58,31765.7,34513.0,-0.9879,-1.2017,146.4,96.3,0.547
17.6,32013.4,34814.0,0.0577,-0.4595,146.4,96.3,0.547
17.62,32062.6,35129.3,0.2652,0.318,146.4,96.3,0.547
17.64,32322.6,35484.9,1.3625,1.1947,146.4,96.3,0.547
17.66,32399.9,35689.1,1.6885,1.6983,146.4,96.3,0.547
17.68,32468.3,35886.8,1.9771,2.1857,146.4,96.3,0.547
17.7,32281.6,35575.1,1.1892,1.417,146.4,96.3,0.547
17.72,32232.0,35389.6,0.98,0.9597,146.4,96.3,0.547
17.74,32149.4,35174.8,0.6317,0.43,146.4,96.3,0.547
17.76,32044.1,35065.1,0.1872,0.1596,146.4,96.3,0.547
17.78,32091.9,35075.2,0.3891,0.1846,146.4,96.3,0.547
17.8,32036.6,34956.2,0.1555,-0.109,146.4,96.3,0.547
17.82,31858.0,34898.8,-0.5982,-0.2504,146.4,96.3,0.547
17.84,31728.9,34774.4,-1.1428,-0.5572,146.4,96.3,0.547
17.86,31822.9,34747.6,-0.7461,-0.6231,146.4,96.3,0.547
17.88,31871.2,34666.9,-0.5427,-0.8223,146.4,96.3,0.547
17.9,31723.5,34590.4,-1.1658,-1.0109,146.4,96.3,0.547
17.92,31780.4,34571.3,-0.9258,-1.058,146.4,96.3,0.547
17.94,31718.9,34569.9,-1.1851,-1.0614,146.4,96.3,0.547
17.96,31689.9,34426.8,-1.3077,-1.4142,146.4,96.3,0.547
17.98,31639.0,34447.9,-1.5222,-1.3622,146.4,96.3,0.547
18.0,31778.4,34573.5,-0.934,-1.0526,146.4,96.3,0.547
18.02,32003.6,35063.1,0.0163,0.1546,146.4,96.3,0.547
18.04,32149.2,35429.8,0.6309,1.0587,146.4,96.3,0.547
18.06,32325.0,35703.7,1.3726,1.7342,146.4,96.3,0.547
18.08,32382.8,35800.2,1.6164,1.9721,146.4,96.3,0.547
18.1,32241.3,35520.0,1.0196,1.2814,146.4,96.3,0.547
18.12,32319.6,35510.6,1.3497,1.258,146.4,96.3,0.547
18.14,32082.9,35301.4,0.3509,0.7422,146.4,96.3,0.547
18.16,31996.1,35211.6,-0.0155,0.5209,146.4,96.3,0.547
18.18,32094.0,35143.6,0.3976,0.3531,146.4,96.3,0.547
18.2,31969.3,35022.6,-0.1284,0.0548,146.4,96.3,0.547
18.22,32047.8,35000.6,0.2029,0.0005,146.4,96.3,0.547
18.24,31933.1,34859.1,-0.2812,-0.3482,146.4,96.3,0.547
18.26,31835.4,34704.8,-0.6937,-0.7288,146.4,96.3,0.547
18.28,31795.8,34674.2,-0.8605,-0.8041,146.4,96.3,0.547
18.3,31861.5,34681.0,-0.5833,-0.7873,146.4,96.3,0.547
18.32,31847.1,34588.4,-0.6444,-1.0158,146.4,96.3,0.547
18.34,31749.2,34587.8,-1.0573,-1.0173,146.4,96.3,0.547
18.36,31733.2,34498.7,-1.1249,-1.2368,146.4,96.3,0.547
18.38,31677.4,34515.3,-1.3605,-1.1961,146.4,96.3,0.547
18.4,31791.7,34547.2,-0.8782,-1.1174,146.4,96.3,0.547
18.42,31854.9,34899.0,-0.6112,-0.2499,146.4,96.3,0.547
18.44,32015.2,35261.5,0.0651,0.6438,146.4,96.3,0.547
18.46,32234.9,35526.9,0.9926,1.2983,146.4,96.3,0.547
18.48,32406.2,35703.8,1.7153,1.7344,146.4,96.3,0.547
18.5,32471.0,35742.0,1.9888,1.8286,146.4,96.3,0.547
18.52,32313.7,35536.5,1.3248,1.322,146.4,96.3,0.547
18.54,32316.8,35384.0,1.3381,0.9458,146.4,96.3,0.547
18.56,32136.9,35269.6,0.5786,0.6638,146.4,96.3,0.547
18.58,31961.3,35153.7,-0.1623,0.378,146.4,96.3,0.547
18.6,32019.3,35002.4,0.0825,0.0051,146.4,96.3,0.547
18.62,32002.5,35096.4,0.0117,0.2367,146.4,96.3,0.547
18.64,31987.0,34912.2,-0.0538,-0.2174,146.4,96.3,0.547
18.66,31886.3,34694.9,-0.4787,-0.7532,146.4,96.3,0.547
18.68,31821.4,34691.5,-0.7526,-0.7615,146.4,96.3,0.547
18.7,31816.5,34656.5,-0.7734,-0.8478,146.4,96.3,0.547
18.72,31756.8,34657.4,-1.0252,-0.8457,146.4,96.3,0.547
18.74,31749.8,34741.3,-1.0546,-0.6387,146.4,96.3,0.547
18.76,31775.2,34545.1,-0.9476,-1.1225,146.4,96.3,0.547
18.78,31788.2,34479.9,-0.8926,-1.2832,146.4,96.3,0.547
18.8,31770.4,34463.8,-0.968,-1.323,146.4,96.3,0.547
18.82,31802.6,34654.5,-0.832,-0.8528,146.4,96.3,0.547
18.84,31992.6,34971.0,-0.0302,-0.0725,146.4,96.3,0.547
18.86,32187.5,35368.1,0.7923,0.9067,146.4,96.3,0.547
18.88,32375.5,35707.6,1.5858,1.7439,146.4,96.3,0.547
18.9,32414.3,35832.9,1.7495,2.0528,146.4,96.3,0.547
18.92,32266.3,35685.8,1.125,1.69,146.4,96.3,0.547
18.94,32250.7,35439.5,1.059,1.0829,146.4,96.3,0.547
18.96,32150.8,35218.7,0.6374,0.5383,146.4,96.3,0.547
18.98,32035.3,35174.2,0.1502,0.4287,146.4,96.3,0.547
19.0,32000.7,35093.5,0.0042,0.2297,146.4,96.3,0.547
19.02,32154.2,35039.1,0.6517,0.0956,146.4,96.3,0.547
19.04,31988.0,34871.2,-0.0497,-0.3186,146.4,96.3,0.547
19.06,31956.1,34905.3,-0.1841,-0.2343,146.4,96.3,0.547
19.08,31876.4,34849.1,-0.5203,-0.373,146.4,96.3,0.547
19.1,31878.8,34738.8,-0.5105,-0.645,146.4,96.3,0.547
19.12,31802.9,34721.4,-0.8307,-0.6879,146.4,96.3,0.547
19.14,31800.4,34657.5,-0.8414,-0.8453,146.4,96.3,0.547
19.16,31722.1,34569.2,-1.1717,-1.0631,146.4,96.3,0.547
19.18,31840.1,34454.5,-0.6738,-1.346,146.4,96.3,0.547
19.2,31811.8,34494.5,-0.793,-1.2474,146.4,96.3,0.547
19.22,31741.1,34526.2,-1.0913,-1.1692,146.4,96.3,0.547
19.24,31981.5,34744.3,-0.0772,-0.6313,146.4,96.3,0.547
19.26,32083.1,35178.1,0.3518,0.4382,146.4,96.3,0.547
19.28,32273.9,35594.6,1.1571,1.4651,146.4,96.3,0.547
19.3,32324.2,35660.1,1.3692,1.6267,146.4,96.3,0.547
19.32,32350.3,35768.7,1.4793,1.8945,146.4,96.3,0.547
19.34,32422.2,35561.6,1.7828,1.3839,146.4,96.3,0.547
19.36,32228.8,35338.3,0.9665,0.8332,146.4,96.3,0.547
19.38,32124.7,35073.2,0.5271,0.1796,146.4,96.3,0.547
19.4,32048.4,35168.7,0.2054,0.4151,146.4,96.3,0.547
19.42,32102.3,35095.1,0.4328,0.2336,146.4,96.3,0.547
19.44,32059.2,34954.8,0.2507,-0.1124,146.4,96.3,0.547
19.46,31896.3,34967.8,-0.4364,-0.0802,146.4,96.3,0.547
19.48,31920.9,34796.6,-0.3326,-0.5025,146.4,96.3,0.547
19.5,31883.7,34781.8,-0.4895,-0.5389,146.4,96.3,0.547
19.52,31751.9,34675.3,-1.0459,-0.8015,146.4,96.3,0.547
19.54,31815.2,34712.5,-0.7789,-0.7098,146.4,96.3,0.547
19.56,31805.2,34623.6,-0.8212,-0.929,146.4,96.3,0.547
19.58,31781.0,34543.5,-0.9231,-1.1264,146.4,96.3,0.547
19.6,31691.0,34426.2,-1.3027,-1.4157,146.4,96.3,0.547
19.62,31697.2,34500.0,-1.2766,-1.2338,146.4,96.3,0.547
19.64,31823.9,34705.4,-0.7419,-0.7272,146.4,96.3,0.547
19.66,32050.1,34971.9,0.2126,-0.0703,146.4,96.3,0.547
19.68,32195.0,35326.3,0.824,0.8035,146.4,96.3,0.547
19.7,32314.4,35664.2,1.328,1.6368,146.4,96.3,0.547
19.72,32360.0,35811.3,1.5203,1.9994,146.4,96.3,0.547
19.74,32394.4,35642.4,1.6655,1.583,146.4,96.3,0.547
19.76,32174.9,35462.6,0.7391,1.1398,146.4,96.3,0.547
19.78,32108.6,35250.7,0.4596,0.6172,146.4,96.3,0.547
19.8,32047.2,35122.7,0.2003,0.3016,146.4,96.3,0.547
19.82,32055.2,35074.4,0.2341,0.1827,146.4,96.3,0.547
19.84,31988.6,35065.1,-0.0471,0.1596,146.4,96.3,0.547
19.86,31905.2,34953.4,-0.3988,-0.1159,146.4,96.3,0.547
19.88,31888.5,34900.2,-0.4693,-0.2471,146.4,96.3,0.547
19.9,31816.2,34815.0,-0.7745,-0.4571,146.4,96.3,0.547
19.92,31835.1,34631.4,-0.6949,-0.9098,146.4,96.3,0.547
19.94,31847.1,34733.4,-0.6442,-0.6582,146.4,96.3,0.547
19.96,31855.8,34765.7,-0.6073,-0.5785,146.4,96.3,0.547
19.98,31781.9,34620.1,-0.9194,-0.9376,146.4,96.3,0.547
20.0,31710.1,34456.5,-1.2225,-1.3409,146.4,96.3,0.547
20.02,31701.2,34406.1,-1.2597,-1.4653,146.4,96.3,0.547
20.04,31795.0,34490.6,-0.8642,-1.2568,146.4,96.3,0.547
20.06,31971.1,34780.4,-0.1207,-0.5424,146.4,96.3,0.547
20.08,32082.5,35157.6,0.3493,0.3876,146.4,96.3,0.547
20.1,32240.5,35523.2,1.0158,1.2892,146.4,96.3,0.547
20.12,32382.5,35772.3,1.6153,1.9032,146.4,96.3,0.547
20.14,32356.8,35704.3,1.5066,1.7356,146.4,96.3,0.547
20.16,32252.2,35525.0,1.0655,1.2936,146.4,96.3,0.547
20.18,32177.3,35348.5,0.7494,0.8583,146.4,96.3,0.547
20.2,32048.1,35269.1,0.2039,0.6626,146.4,96.3,0.547
20.22,32119.2,35162.5,0.5041,0.3998,146.4,96.3,0.547
20.24,32080.0,35053.2,0.3388,0.1303,146.4,96.3,0.547
20.26,31996.6,35022.6,-0.0132,0.0549,146.4,96.3,0.547
20.28,31956.0,34876.3,-0.1848,-0.3059,146.4,96.3,0.547
20.3,31921.9,34746.1,-0.3286,-0.6269,146.4,96.3,0.547
20.32,31781.2,34748.0,-0.9222,-0.6222,146.4,96.3,0.547
20.34,31861.4,34681.1,-0.5837,-0.7871,146.4,96.3,0.547
20.36,31773.8,34640.8,-0.9535,-0.8866,146.4,96.3,0.547
20.38,31759.9,34496.6,-1.012,-1.242,146.4,96.3,0.547
20.4,31793.2,34476.8,-0.8718,-1.2908,146.4,96.3,0.547
20.42,31655.5,34380.0,-1.4528,-1.5297,146.4,96.3,0.547
20.44,31796.8,34513.2,-0.8566,-1.2012,146.4,96.3,0.547
20.46,31767.0,34666.0,-0.982,-0.8244,146.4,96.3,0.547
20.48,32060.1,35086.4,0.2545,0.2122,146.4,96.3,0.547
20.5,32208.1,35508.4,0.8795,1.2527,146.4,96.3,0.547
20.52,32341.6,35696.7,1.4426,1.7169,146.4,96.3,0.547
20.54,32313.8,35784.7,1.3252,1.934,146.4,96.3,0.547
20.56,32353.0,35650.3,1.4907,1.6025,146.4,96.3,0.547
20.58,32237.6,35420.3,1.004,1.0354,146.4,96.3,0.547
20.6,32165.4,35256.8,0.6989,0.6324,146.4,96.3,0.547
20.62,32068.4,35223.5,0.2899,0.5502,146.4,96.3,0.547
20.64,32133.6,35124.7,0.5647,0.3067,146.4,96.3,0.547
20.66,31991.1,35032.1,-0.0365,0.0784,146.4,96.3,0.547
20.68,31897.7,34939.1,-0.4304,-0.151,146.4,96.3,0.547
20.7,31934.3,34879.3,-0.2763,-0.2986,146.4,96.3,0.547
20.72,31921.2,34748.1,-0.3314,-0.622,146.4,96.3,0.547
20.74,31771.1,34707.0,-0.965,-0.7232,146.4,96.3,0.547
20.76,31859.3,34662.4,-0.5928,-0.8332,146.4,96.3,0.547
20.78,31780.1,34651.4,-0.9269,-0.8604,146.4,96.3,0.547
20.8,31765.2,34591.2,-0.9896,-1.0089,146.4,96.3,0.547
20.82,31842.7,34516.1,-0.6628,-1.1939,146.4,96.3,0.547
20.84,31755.6,34532.9,-1.0304,-1.1526,146.4,96.3,0.547
20.86,31839.9,34488.9,-0.6745,-1.261,146.4,96.3,0.547
20.88,31941.5,34822.4,-0.246,-0.4387,146.4,96.3,0.547
20.9,32023.0,35182.3,0.0981,0.4485,146.4,96.3,0.547
20.92,32288.6,35616.4,1.2191,1.519,146.4,96.3,0.547
20.94,32441.1,35789.8,1.8625,1.9464,146.4,96.3,0.547
20.96,32327.9,35609.3,1.3849,1.5015,146.4,96.3,0.547
20.98,32269.5,35464.2,1.1385,1.1436,146.4,96.3,0.547
21.0,32104.7,35354.0,0.4428,0.8721,146.4,96.3,0.547
21.02,32062.2,35204.2,0.2636,0.5026,146.4,96.3,0.547
21.04,32059.9,35161.4,0.2537,0.3971,146.4,96.3,0.547
21.06,32047.6,35054.6,0.2021,0.1336,146.4,96.3,0.547
21.08,31941.2,35009.8,-0.247,0.0233,146.4,96.3,0.547
21.1,31962.6,34887.2,-0.1568,-0.279,146.4,96.3,0.547
21.12,31942.4,34780.1,-0.2421,-0.5431,146.4,96.3,0.547
21.14,31831.8,34651.2,-0.7087,-0.8608,146.4,96.3,0.547
21.16,31842.4,34666.5,-0.6638,-0.8232,146.4,96.3,0.547
21.18,31879.0,34684.8,-0.5095,-0.778,146.4,96.3,0.547
21.2,31816.5,34633.1,-0.7733,-0.9055,146.4,96.3,0.547
21.22,31775.8,34481.8,-0.9451,-1.2786,146.4,96.3,0.547
21.24,31713.0,34399.0,-1.21,-1.4827,146.4,96.3,0.547
21.26,31707.3,34402.0,-1.234,-1.4754,146.4,96.3,0.547
21.28,31886.9,34716.6,-0.4764,-0.6996,146.4,96.3,0.547
21.3,32021.8,35068.3,0.0929,0.1675,146.4,96.3,0.547
21.32,32233.2,35443.5,0.9852,1.0927,146.4,96.3,0.547
21.34,32330.6,35689.2,1.3964,1.6985,146.4,96.3,0.547
21.36,32392.0,35764.7,1.6555,1.8845,146.4,96.3,0.547
21.38,32307.7,35672.1,1.2998,1.6562,146.4,96.3,0.547
21.4,32210.5,35476.5,0.8895,1.1739,146.4,96.3,0.547
21.42,32066.1,35219.8,0.2802,0.5411,146.4,96.3,0.547
21.44,31998.0,35229.2,-0.0073,0.5641,146.4,96.3,0.547
21.46,32128.1,35136.4,0.5416,0.3353,146.4,96.3,0.547
21.48,32071.0,35036.9,0.3007,0.09,146.4,96.3,0.547
21.5,31985.7,34958.7,-0.0592,-0.1026,146.4,96.3,0.547
21.52,31866.8,34811.1,-0.5609,-0.4666,146.4,96.3,0.547
21.54,31867.2,34752.2,-0.5595,-0.6119,146.4,96.3,0.547
21.56,31891.5,34599.5,-0.4568,-0.9883,146.4,96.3,0.547
21.58,31832.1,34661.4,-0.7075,-0.8358,146.4,96.3,0.547
21.6,31833.0,34657.3,-0.7038,-0.8459,146.4,96.3,0.547
21.62,31724.7,34567.5,-1.1606,-1.0673,146.4,96.3,0.547
21.64,31807.2,34526.2,-0.8128,-1.1692,146.4,96.3,0.547
21.66,31700.9,34479.4,-1.261,-1.2846,146.4,96.3,0.547
21.68,31793.5,34561.7,-0.8705,-1.0816,146.4,96.3,0.547
21.7,31975.3,34913.7,-0.1032,-0.2138,146.4,96.3,0.547
21.72,32072.7,35221.8,0.3079,0.5461,146.4,96.3,0.547
21.74,32267.6,35591.9,1.1304,1.4585,146.4,96.3,0.547
21.76,32280.6,35694.3,1.1851,1.7111,146.4,96.3,0.547
21.78,32348.9,35617.0,1.4734,1.5205,146.4,96.3,0.547
21.8,32310.0,35487.4,1.3093,1.2009,146.4,96.3,0.547
21.82,32143.7,35284.1,0.6076,0.6996,146.4,96.3,0.547
21.84,32086.7,35125.2,0.3671,0.3079,146.4,96.3,0.547
21.86,32015.6,35155.1,0.067,0.3816,146.4,96.3,0.547
21.88,32066.6,35075.5,0.2823,0.1854,146.4,96.3,0.547
21.9,32054.5,34951.4,0.2311,-0.1207,146.4,96.3,0.547
21.92,31998.5,34869.4,-0.0052,-0.323,146.4,96.3,0.547
21.94,31910.4,34802.1,-0.3771,-0.4887,146.4,96.3,0.547
21.96,31906.2,34737.1,-0.3949,-0.6492,146.4,96.3,0.547
21.98,31875.4,34660.4,-0.5248,-0.8381,146.4,96.3,0.547
22.0,31897.8,34618.3,-0.4302,-0.9421,146.4,96.3,0.547
22.02,31792.1,34629.0,-0.8763,-0.9157,146.4,96.3,0.547
22.04,31721.5,34519.4,-1.1744,-1.1859,146.4,96.3,0.547
22.06,31718.0,34483.4,-1.1889,-1.2747,146.4,96.3,0.547
22.08,31608.1,34418.1,-1.6526,-1.4357,146.4,96.3,0.547
22.1,31885.0,34759.3,-0.4842,-0.5943,146.4,96.3,0.547
22.12,32107.1,35091.4,0.4529,0.2246,146.4,96.3,0.547
22.14,32204.0,35333.4,0.862,0.8213,146.4,96.3,0.547
22.16,32333.3,35647.5,1.4075,1.5955,146.4,96.3,0.547
22.18,32435.8,35776.7,1.8401,1.9142,146.4,96.3,0.547
22.2,32265.7,35543.2,1.1224,1.3386,146.4,96.3,0.547
22.22,32124.6,35416.1,0.5269,1.0252,146.4,96.3,0.547
22.24,32144.1,35170.0,0.6091,0.4183,146.4,96.3,0.547
22.26,32058.1,35088.5,0.2463,0.2172,146.4,96.3,0.547
22.28,32135.6,35056.5,0.5731,0.1384,146.4,96.3,0.547
22.3,32025.8,34982.2,0.1098,-0.0447,146.4,96.3,0.547
22.32,31966.0,34921.2,-0.1426,-0.1953,146.4,96.3,0.547
22.34,31870.9,34737.6,-0.5436,-0.6478,146.4,96.3,0.547
22.36,31887.6,34718.8,-0.4733,-0.6942,146.4,96.3,0.547
22.38,31855.6,34633.2,-0.6085,-0.9054,146.4,96.3,0.547
22.4,31842.0,34678.2,-0.6659,-0.7944,146.4,96.3,0.547
22.42,31865.9,34616.7,-0.5649,-0.946,146.4,96.3,0.547
22.44,31788.7,34580.0,-0.8908,-1.0364,146.4,96.3,0.547
22.46,31767.5,34515.3,-0.9799,-1.196,146.4,96.3,0.547
22.48,31653.6,34525.3,-1.4606,-1.1713,146.4,96.3,0.547
22.5,31772.4,34603.9,-0.9594,-0.9776,146.4,96.3,0.547
22.52,31925.0,34848.4,-0.3153,-0.3747,146.4,96.3,0.547
22.54,32103.5,35265.1,0.4379,0.6528,146.4,96.3,0.547
22.56,32184.1,35617.5,0.7778,1.5216,146.4,96.3,0.547
22.58,32295.7,35827.1,1.2492,2.0385,146.4,96.3,0.547
22.6,32519.5,35757.6,2.1935,1.8672,146.4,96.3,0.547
22.62,32254.4,35537.9,1.0747,1.3255,146.4,96.3,0.547
22.64,32174.9,35323.5,0.739,0.7966,146.4,96.3,0.547
22.66,32047.7,35186.0,0.2024,0.4577,146.4,96.3,0.547
22.68,32081.9,35108.3,0.3467,0.2663,146.4,96.3,0.547
22.7,32014.5,34989.3,0.0622,-0.0272,146.4,96.3,0.547
22.72,31986.2,34947.8,-0.057,-0.1297,146.4,96.3,0.547
22.74,31929.5,34924.2,-0.2966,-0.1878,146.4,96.3,0.547
22.76,31946.0,34759.8,-0.2269,-0.5932,146.4,96.3,0.547
22.78,31877.7,34700.0,-0.5152,-0.7406,146.4,96.3,0.547
22.8,31827.3,34706.4,-0.7276,-0.7247,146.4,96.3,0.547
22.82,31845.2,34701.7,-0.6522,-0.7364,146.4,96.3,0.547
22.84,31841.5,34574.6,-0.668,-1.0498,146.4,96.3,0.547
22.86,31701.9,34484.5,-1.2571,-1.272,146.4,96.3,0.547
22.88,31596.2,34454.1,-1.703,-1.3469,146.4,96.3,0.547
22.9,31705.8,34460.3,-1.2404,-1.3317,146.4,96.3,0.547
22.92,31820.5,34655.6,-0.7563,-0.8501,146.4,96.3,0.547
22.94,31971.6,35104.9,-0.1186,0.2578,146.4,96.3,0.547
22.96,32228.1,35428.0,0.9637,1.0544,146.4,96.3,0.547
22.98,32317.1,35616.7,1.3392,1.5197,146.4,96.3,0.547
23.0,32356.9,35764.0,1.507,1.8828,146.4,96.3,0.547
23.02,32342.2,35679.9,1.4453,1.6756,146.4,96.3,0.547
23.04,32249.3,35436.3,1.0532,1.0749,146.4,96.3,0.547
23.06,32098.4,35266.8,0.4164,0.6569,146.4,96.3,0.547
23.08,32120.7,35082.0,0.5103,0.2012,146.4,96.3,0.547
23.1,31996.0,35107.8,-0.0156,0.265,146.4,96.3,0.547
23.12,32026.6,35019.5,0.1135,0.0472,146.4,96.3,0.547
23.14,31937.2,34844.4,-0.264,-0.3845,146.4,96.3,0.547
23.16,31883.9,34749.1,-0.4888,-0.6195,146.4,96.3,0.547
23.18,31848.4,34783.7,-0.6386,-0.5343,146.4,96.3,0.547
23.2,31745.2,34666.5,-1.074,-0.8231,146.4,96.3,0.547
23.22,31803.6,34588.6,-0.8276,-1.0152,146.4,96.3,0.547
23.24,31851.5,34623.4,-0.6257,-0.9295,146.4,96.3,0.547
23.26,31808.0,34556.6,-0.809,-1.0941,146.4,96.3,0.547
23.28,31776.7,34422.0,-0.9414,-1.426,146.4,96.3,0.547
23.3,31842.3,34437.7,-0.6645,-1.3872,146.4,96.3,0.547
23.32,31817.3,34560.8,-0.7698,-1.0839,146.4,96.3,0.547
23.34,31878.3,34871.3,-0.5123,-0.3181,146.4,96.3,0.547
23.36,32190.5,35278.0,0.8052,0.6846,146.4,96.3,0.547
23.38,32283.7,35616.2,1.1984,1.5185,146.4,96.3,0.547
23.4,32446.4,35771.4,1.8848,1.9012,146.4,96.3,0.547
23.42,32346.5,35658.4,1.4632,1.6225,146.4,96.3,0.547
23.44,32242.8,35545.9,1.0259,1.3451,146.4,96.3,0.547
23.46,32140.8,35316.1,0.5954,0.7786,146.4,96.3,0.547
23.48,32132.4,35237.9,0.5598,0.5857,146.4,96.3,0.547
23.5,32091.8,35138.5,0.3883,0.3406,146.4,96.3,0.547
23.52,32091.2,35102.2,0.386,0.251,146.4,96.3,0.547
23.54,31949.8,35018.3,-0.2106,0.0443,146.4,96.3,0.547
23.56,31901.4,34907.7,-0.4151,-0.2286,146.4,96.3,0.547
23.58,31972.5,34798.5,-0.1148,-0.4977,146.4,96.3,0.547
23.6,31809.5,34682.4,-0.8026,-0.7839,146.4,96.3,0.547
23.62,31790.7,34726.2,-0.8822,-0.676,146.4,96.3,0.547
23.64,31769.2,34604.8,-0.9727,-0.9753,146.4,96.3,0.547
23.66,31712.4,34605.0,-1.2125,-0.9748,146.4,96.3,0.547
23.68,31791.3,34548.2,-0.8796,-1.115,146.4,96.3,0.547
23.7,31652.4,34489.2,-1.4659,-1.2603,146.4,96.3,0.547
23.72,31609.2,34482.1,-1.6483,-1.2778,146.4,96.3,0.547
23.74,31928.9,34704.9,-0.2988,-0.7284,146.4,96.3,0.547
23.76,32064.8,35050.5,0.2747,0.1237,146.4,96.3,0.547
23.78,32179.4,35492.9,0.758,1.2145,146.4,96.3,0.547
23.8,32360.0,35706.3,1.5203,1.7407,146.4,96.3,0.547
23.82,32424.2,35768.5,1.7912,1.894,146.4,96.3,0.547
23.84,32319.4,35592.2,1.3491,1.4593,146.4,96.3,0.547
23.86,32200.6,35416.4,0.8476,1.0257,146.4,96.3,0.547
23.88,32229.5,35277.4,0.9696,0.683,146.4,96.3,0.547
23.9,32058.4,35145.1,0.2474,0.357,146.4,96.3,0.547
23.92,32080.6,35112.1,0.3413,0.2755,146.4,96.3,0.547
23.94,32049.8,35061.6,0.2112,0.151,146.4,96.3,0.547
23.96,31910.2,35026.9,-0.3778,0.0656,146.4,96.3,0.547
23.98,31877.1,34851.9,-0.5177,-0.366,146.4,96.3,0.547
24.0,31805.1,34771.2,-0.8214,-0.565,146.4,96.3,0.547
24.02,31879.1,34683.8,-0.5092,-0.7805,146.4,96.3,0.547
24.04,31829.9,34632.3,-0.7169,-0.9074,146.4,96.3,0.547
24.06,31776.1,34661.6,-0.9436,-0.8353,146.4,96.3,0.547
24.08,31853.7,34639.2,-0.6164,-0.8905,146.4,96.3,0.547
24.1,31678.8,34540.3,-1.3546,-1.1344,146.4,96.3,0.547
24.12,31676.7,34456.2,-1.3633,-1.3416,146.4,96.3,0.547
24.14,31855.6,34560.5,-0.6084,-1.0844,146.4,96.3,0.547
24.16,31939.5,34857.6,-0.254,-0.352,146.4,96.3,0.547
24.18,32217.2,35288.3,0.9178,0.71,146.4,96.3,0.547
24.2,32308.7,35625.1,1.3036,1.5405,146.4,96.3,0.547
24.22,32320.5,35773.3,1.3537,1.9058,146.4,96.3,0.547
24.24,32297.6,35736.3,1.2569,1.8146,146.4,96.3,0.547
24.26,32259.2,35521.2,1.0951,1.2842,146.4,96.3,0.547
24.28,32127.5,35301.7,0.5391,0.7431,146.4,96.3,0.547
24.3,32113.1,35162.7,0.4784,0.4003,146.4,96.3,0.547
24.32,32099.8,35150.9,0.4224,0.3713,146.4,96.3,0.547
24.34,32009.7,35081.7,0.0421,0.2006,146.4,96.3,0.547
24.36,32048.6,34990.4,0.206,-0.0245,146.4,96.3,0.547
24.38,31896.2,34938.7,-0.4368,-0.152,146.4,96.3,0.547
24.4,31918.5,34737.5,-0.3427,-0.648,146.4,96.3,0.547
24.42,31832.4,34691.6,-0.7061,-0.7613,146.4,96.3,0.547
24.44,31854.6,34602.2,-0.6126,-0.9818,146.4,96.3,0.547
24.46,31804.1,34722.3,-0.8257,-0.6855,146.4,96.3,0.547
24.48,31904.1,34654.1,-0.4036,-0.8537,146.4,96.3,0.547
24.5,31769.3,34455.3,-0.9723,-1.344,146.4,96.3,0.547
24.52,31714.1,34504.8,-1.2052,-1.222,146.4,96.3,0.547
24.54,31759.2,34490.9,-1.0153,-1.2562,146.4,96.3,0.547
24.56,31889.2,34748.6,-0.4666,-0.6207,146.4,96.3,0.547
24.58,32038.2,35210.2,0.1625,0.5174,146.4,96.3,0.547
24.6,32203.8,35548.0,0.8612,1.3503,146.4,96.3,0.547
24.62,32328.3,35650.7,1.3864,1.6034,146.4,96.3,0.547
24.64,32386.0,35776.0,1.6301,1.9126,146.4,96.3,0.547
24.66,32302.6,35550.5,1.2779,1.3565,146.4,96.3,0.547
24.68,32195.0,35475.4,0.824,1.1713,146.4,96.3,0.547
24.7,32173.7,35245.0,0.7341,0.6033,146.4,96.3,0.547
24.72,32048.3,35147.6,0.2048,0.363,146.4,96.3,0.547
24.74,32035.0,35072.4,0.1487,0.1776,146.4,96.3,0.547
24.76,32068.4,35049.4,0.2897,0.1208,146.4,96.3,0.547
24.78,31961.4,34904.3,-0.1616,-0.2367,146.4,96.3,0.547
24.8,31928.1,34828.6,-0.3022,-0.4234,146.4,96.3,0.547
24.82,31805.3,34734.9,-0.8204,-0.6545,146.4,96.3,0.547
24.84,31723.8,34620.2,-1.1644,-0.9373,146.4,96.3,0.547
24.86,31812.3,34739.6,-0.7912,-0.643,146.4,96.3,0.547
24.88,31847.1,34642.6,-0.6443,-0.8822,146.4,96.3,0.547
24.9,31800.5,34538.7,-0.8408,-1.1383,146.4,96.3,0.547
24.92,31712.6,34439.1,-1.2116,-1.3839,146.4,96.3,0.547
24.94,31676.3,34376.1,-1.3651,-1.5392,146.4,96.3,0.547
24.96,31764.6,34567.0,-0.9925,-1.0684,146.4,96.3,0.547
24.98,31966.1,34945.3,-0.1418,-0.1358,146.4,96.3,0.547
25.0,32102.7,35257.0,0.4345,0.6329,146.4,96.3,0.547
25.02,32331.3,35546.7,1.3993,1.3472,146.4,96.3,0.547
25.04,32342.3,35717.9,1.4457,1.7693,146.4,96.3,0.547
25.06,32377.4,35730.3,1.5937,1.7999,146.4,96.3,0.547
25.08,32290.6,35524.1,1.2274,1.2915,146.4,96.3,0.547
25.1,32144.7,35328.8,0.6118,0.8098,146.4,96.3,0.547
25.12,32036.2,35199.7,0.1538,0.4915,146.4,96.3,0.547
25.14,32060.2,35152.7,0.2552,0.3755,146.4,96.3,0.547
25.16,32022.4,35005.2,0.0958,0.0119,146.4,96.3,0.547
25.18,32012.7,35046.8,0.0547,0.1145,146.4,96.3,0.547
25.2,31877.8,34870.1,-0.5148,-0.3212,146.4,96.3,0.547
25.22,31846.9,34749.6,-0.6449,-0.6184,146.4,96.3,0.547
25.24,31824.7,34735.0,-0.7387,-0.6543,146.4,96.3,0.547
25.26,31826.2,34755.5,-0.7323,-0.6038,146.4,96.3,0.547
25.28,31830.6,34637.6,-0.7136,-0.8945,146.4,96.3,0.547
25.3,31765.2,34661.0,-0.9898,-0.8367,146.4,96.3,0.547
25.32,31709.9,34532.0,-1.2233,-1.1548,146.4,96.3,0.547
25.34,31691.9,34508.9,-1.2989,-1.2119,146.4,96.3,0.547
25.36,31680.7,34593.0,-1.3462,-1.0043,146.4,96.3,0.547
25.38,31879.5,34685.8,-0.5073,-0.7756,146.4,96.3,0.547
25.4,32140.9,35088.1,0.5956,0.2163,146.4,96.3,0.547
25.42,32225.4,35496.4,0.9523,1.223,146.4,96.3,0.547
25.44,32342.4,35646.8,1.4458,1.5938,146.4,96.3,0.547
25.46,32290.7,35792.1,1.2277,1.952,146.4,96.3,0.547
25.48,32184.8,35682.2,0.7809,1.6811,146.4,96.3,0.547
25.5,32204.0,35434.7,0.8618,1.0709,146.4,96.3,0.547
25.52,32093.1,35267.4,0.3941,0.6583,146.4,96.3,0.547
25.54,32127.9,35242.9,0.541,0.5981,146.4,96.3,0.547
25.56,32141.9,35047.2,0.5999,0.1156,146.4,96.3,0.547
25.58,31990.6,34992.0,-0.0387,-0.0205,146.4,96.3,0.547
25.6,32047.8,34917.0,0.2029,-0.2055,146.4,96.3,0.547
25.62,31887.3,34746.5,-0.4747,-0.626,146.4,96.3,0.547
25.64,31806.0,34772.1,-0.8176,-0.5629,146.4,96.3,0.547
25.66,31848.7,34736.3,-0.6375,-0.651,146.4,96.3,0.547
25.68,31838.0,34639.0,-0.6825,-0.8909,146.4,96.3,0.547
25.7,31804.9,34689.5,-0.8223,-0.7665,146.4,96.3,0.547
25.72,31704.0,34546.0,-1.2479,-1.1202,146.4,96.3,0.547
25.74,31734.4,34541.5,-1.1197,-1.1313,146.4,96.3,0.547
25.76,31770.7,34388.2,-0.9666,-1.5093,146.4,96.3,0.547
25.78,31711.3,34584.1,-1.2173,-1.0264,146.4,96.3,0.547
25.8,31908.8,34854.7,-0.3839,-0.3591,146.4,96.3,0.547
25.82,32055.6,35320.4,0.2356,0.7892,146.4,96.3,0.547
25.84,32288.6,35554.1,1.2188,1.3653,146.4,96.3,0.547
25.86,32426.1,35786.0,1.7993,1.9371,146.4,96.3,0.547
25.88,32412.3,35751.2,1.7409,1.8512,146.4,96.3,0.547
25.9,32203.6,35629.6,0.8605,1.5516,146.4,96.3,0.547
25.92,32127.2,35399.8,0.5377,0.9849,146.4,96.3,0.547
25.94,32207.8,35170.4,0.8781,0.4193,146.4,96.3,0.547
25.96,32071.5,35064.1,0.3029,0.1571,146.4,96.3,0.547
25.98,32065.5,35094.1,0.2774,0.2312,146.4,96.3,0.547
26.0,32064.7,35042.6,0.2743,0.1041,146.4,96.3,0.547
26.02,31944.5,34887.3,-0.2331,-0.2788,146.4,96.3,0.547
26.04,31873.9,34799.3,-0.531,-0.4959,146.4,96.3,0.547
26.06,31908.9,34620.4,-0.3835,-0.9368,146.4,96.3,0.547
26.08,31751.8,34701.8,-1.0463,-0.7363,146.4,96.3,0.547
26.1,31781.8,34654.0,-0.9199,-0.854,146.4,96.3,0.547
26.12,31742.3,34680.4,-1.0864,-0.7889,146.4,96.3,0.547
26.14,31760.9,34613.0,-1.008,-0.9551,146.4,96.3,0.547
26.16,31762.8,34514.8,-0.9998,-1.1973,146.4,96.3,0.547
26.18,31806.4,34451.1,-0.8161,-1.3542,146.4,96.3,0.547
26.2,31879.6,34714.7,-0.5072,-0.7042,146.4,96.3,0.547
26.22,32108.2,35090.5,0.4579,0.2222,146.4,96.3,0.547
26.24,32266.9,35441.1,1.1273,1.0867,146.4,96.3,0.547
26.26,32307.3,35713.1,1.2979,1.7573,146.4,96.3,0.547
26.28,32280.6,35759.5,1.1853,1.8718,146.4,96.3,0.547
26.3,32334.9,35585.8,1.4146,1.4434,146.4,96.3,0.547
26.32,32176.6,35353.5,0.7462,0.8708,146.4,96.3,0.547
26.34,32145.6,35235.6,0.6155,0.58,146.4,96.3,0.547
26.36,32036.2,35032.5,0.1539,0.0793,146.4,96.3,0.547
26.38,32111.4,35085.0,0.4713,0.2086,146.4,96.3,0.547
26.4,32080.1,34993.2,0.3392,-0.0176,146.4,96.3,0.547
26.42,31875.3,34937.7,-0.5251,-0.1544,146.4,96.3,0.547
26.44,31900.6,34803.4,-0.4182,-0.4856,146.4,96.3,0.547
26.46,31857.1,34770.1,-0.6022,-0.5677,146.4,96.3,0.547
26.48,31839.9,34714.9,-0.6746,-0.7039,146.4,96.3,0.547
26.5,31786.9,34613.9,-0.8984,-0.9528,146.4,96.3,0.547
26.52,31836.9,34548.5,-0.6873,-1.1141,146.4,96.3,0.547
26.54,31853.9,34596.2,-0.6153,-0.9966,146.4,96.3,0.547
26.56,31623.7,34455.4,-1.5871,-1.3438,146.4,96.3,0.547
26.58,31743.9,34473.7,-1.0795,-1.2987,146.4,96.3,0.547
26.6,31777.5,34583.9,-0.938,-1.0268,146.4,96.3,0.547
26.62,31915.5,34999.9,-0.3555,-0.0011,146.4,96.3,0.547
26.64,32085.4,35211.7,0.3613,0.521,146.4,96.3,0.547
26.66,32230.7,35657.2,0.9747,1.6196,146.4,96.3,0.547
26.68,32299.5,35716.4,1.2648,1.7655,146.4,96.3,0.547
26.7,32229.0,35758.0,0.9674,1.868,146.4,96.3,0.547
26.72,32284.7,35392.1,1.2027,0.9659,146.4,96.3,0.547
26.74,32160.1,35376.7,0.6767,0.928,146.4,96.3,0.547
26.76,32069.6,35104.4,0.2948,0.2565,146.4,96.3,0.547
26.78,32029.1,35127.8,0.124,0.3141,146.4,96.3,0.547
26.8,32056.8,35078.0,0.2408,0.1915,146.4,96.3,0.547
26.82,31989.8,34977.8,-0.0421,-0.0557,146.4,96.3,0.547
26.84,32015.2,34842.3,0.0653,-0.3898,146.4,96.3,0.547
26.86,31842.2,34933.3,-0.6649,-0.1653,146.4,96.3,0.547
26.88,31726.7,34635.7,-1.1522,-0.8991,146.4,96.3,0.547
26.9,31863.2,34691.3,-0.5761,-0.762,146.4,96.3,0.547
26.92,31903.8,34696.3,-0.405,-0.7496,146.4,96.3,0.547
26.94,31847.0,34597.7,-0.6445,-0.9929,146.4,96.3,0.547
26.96,31736.6,34496.9,-1.1105,-1.2414,146.4,96.3,0.547
26.98,31737.4,34450.8,-1.1071,-1.3551,146.4,96.3,0.547
27.0,31839.7,34523.8,-0.6753,-1.1749,146.4,96.3,0.547
27.02,31916.2,34739.6,-0.3524,-0.6428,146.4,96.3,0.547
27.04,32132.5,35150.4,0.5604,0.3701,146.4,96.3,0.547
27.06,32287.9,35446.5,1.2162,1.1,146.4,96.3,0.547
27.08,32321.9,35755.7,1.3594,1.8624,146.4,96.3,0.547
27.1,32295.3,35708.7,1.2471,1.7465,146.4,96.3,0.547
27.12,32318.5,35609.7,1.3451,1.5025,146.4,96.3,0.547
27.14,32250.6,35451.6,1.0585,1.1126,146.4,96.3,0.547
27.16,32192.7,35192.3,0.8144,0.4732,146.4,96.3,0.547
27.18,32112.6,35193.0,0.4762,0.4749,146.4,96.3,0.547
27.2,32086.8,35045.8,0.3673,0.1119,146.4,96.3,0.547
27.22,31973.9,35020.2,-0.109,0.0488,146.4,96.3,0.547
27.24,31951.9,34904.7,-0.202,-0.2358,146.4,96.3,0.547
27.26,31961.5,34741.7,-0.1614,-0.6379,146.4,96.3,0.547
27.28,31842.4,34693.9,-0.6641,-0.7556,146.4,96.3,0.547
27.3,31928.6,34642.9,-0.3003,-0.8814,146.4,96.3,0.547
27.32,31845.0,34701.3,-0.6529,-0.7373,146.4,96.3,0.547
27.34,31792.8,34609.8,-0.8733,-0.963,146.4,96.3,0.547
27.36,31808.1,34584.8,-0.8087,-1.0247,146.4,96.3,0.547
27.38,31767.2,34467.5,-0.9815,-1.3139,146.4,96.3,0.547
27.4,31674.6,34501.1,-1.3721,-1.2309,146.4,96.3,0.547
27.42,31929.7,34618.3,-0.2954,-0.942,146.4,96.3,0.547
27.44,31955.3,34934.2,-0.1876,-0.163,146.4,96.3,0.547
27.46,32143.4,35258.5,0.6061,0.6365,146.4,96.3,0.547
27.48,32239.2,35738.4,1.0107,1.8198,146.4,96.3,0.547
27.5,32336.5,35728.2,1.421,1.7945,146.4,96.3,0.547
27.52,32255.5,35711.2,1.0794,1.7526,146.4,96.3,0.547
27.54,32283.9,35494.6,1.199,1.2186,146.4,96.3,0.547
27.56,32167.8,35273.1,0.7092,0.6724,146.4,96.3,0.547
27.58,32043.0,35140.0,0.1824,0.3444,146.4,96.3,0.547
27.6,32003.1,35039.6,0.014,0.0967,146.4,96.3,0.547
27.62,32036.3,35030.7,0.1541,0.0749,146.4,96.3,0.547
27.64,31972.6,34951.1,-0.1146,-0.1215,146.4,96.3,0.547
27.66,31952.6,34947.8,-0.1989,-0.1295,146.4,96.3,0.547
27.68,31928.0,34734.3,-0.303,-0.656,146.4,96.3,0.547
27.7,31857.3,34658.5,-0.601,-0.8428,146.4,96.3,0.547
27.72,31825.8,34680.1,-0.7342,-0.7897,146.4,96.3,0.547
27.74,31837.3,34693.1,-0.6856,-0.7576,146.4,96.3,0.547
27.76,31802.8,34563.6,-0.8312,-1.0769,146.4,96.3,0.547
27.78,31767.7,34525.0,-0.9794,-1.1722,146.4,96.3,0.547
27.8,31704.8,34393.8,-1.2445,-1.4957,146.4,96.3,0.547
27.82,31869.2,34578.6,-0.5508,-1.0399,146.4,96.3,0.547
27.84,31904.6,34706.9,-0.4016,-0.7235,146.4,96.3,0.547
27.86,31957.3,35212.2,-0.179,0.5223,146.4,96.3,0.547
27.88,32226.0,35511.1,0.9549,1.2593,146.4,96.3,0.547
27.9,32353.2,35627.4,1.4917,1.546,146.4,96.3,0.547
27.92,32374.2,35803.5,1.5802,1.9801,146.4,96.3,0.547
27.94,32348.8,35615.1,1.4729,1.5157,146.4,96.3,0.547
27.96,32222.7,35372.7,0.9407,0.9181,146.4,96.3,0.547
27.98,32097.7,35195.1,0.4135,0.4803,146.4,96.3,0.547
28.0,32036.4,35091.6,0.1548,0.225,146.4,96.3,0.547
28.02,32053.0,35090.6,0.2248,0.2225,146.4,96.3,0.547
28.04,32003.8,34979.8,0.0173,-0.0506,146.4,96.3,0.547
28.06,31986.5,34852.7,-0.056,-0.3642,146.4,96.3,0.547
28.08,31879.4,34775.0,-0.508,-0.5556,146.4,96.3,0.547
28.1,31760.8,34701.6,-1.0084,-0.7367,146.4,96.3,0.547
28.12,31811.5,34664.7,-0.7944,-0.8275,146.4,96.3,0.547
28.14,31862.3,34698.4,-0.5802,-0.7444,146.4,96.3,0.547
28.16,31828.6,34696.4,-0.7223,-0.7494,146.4,96.3,0.547
28.18,31826.7,34613.2,-0.7303,-0.9546,146.4,96.3,0.547
28.2,31750.4,34511.3,-1.0523,-1.2057,146.4,96.3,0.547
28.22,31792.8,34471.2,-0.8732,-1.3048,146.4,96.3,0.547
28.24,31683.3,34631.7,-1.3354,-0.909,146.4,96.3,0.547
28.26,31962.7,34913.7,-0.1565,-0.2136,146.4,96.3,0.547
28.28,32113.6,35374.7,0.4803,0.9229,146.4,96.3,0.547
28.3,32301.7,35628.5,1.2743,1.5488,146.4,96.3,0.547
28.32,32402.9,35746.5,1.7014,1.8397,146.4,96.3,0.547
28.34,32360.7,35628.1,1.5234,1.5479,146.4,96.3,0.547
28.36,32163.4,35573.5,0.6907,1.4131,146.4,96.3,0.547
28.38,32062.1,35332.0,0.263,0.8178,146.4,96.3,0.547
28.4,32045.6,35194.9,0.1936,0.4797,146.4,96.3,0.547
28.42,32016.5,35077.8,0.0706,0.191,146.4,96.3,0.547
28.44,31971.0,35011.9,-0.1212,0.0284,146.4,96.3,0.547
28.46,31991.6,35026.9,-0.0343,0.0655,146.4,96.3,0.547
28.48,31993.6,34812.8,-0.026,-0.4624,146.4,96.3,0.547
28.5,31874.8,34689.8,-0.5271,-0.7657,146.4,96.3,0.547
28.52,31860.5,34809.6,-0.5877,-0.4704,146.4,96.3,0.547
28.54,31859.5,34767.7,-0.5919,-0.5736,146.4,96.3,0.547
28.56,31793.3,34737.3,-0.8714,-0.6486,146.4,96.3,0.547
28.58,31798.8,34643.1,-0.848,-0.8809,146.4,96.3,0.547
28.6,31772.8,34533.3,-0.9575,-1.1515,146.4,96.3,0.547
28.62,31737.9,34436.2,-1.1049,-1.3909,146.4,96.3,0.547
28.64,31719.9,34554.9,-1.1808,-1.0984,146.4,96.3,0.547
28.66,31899.4,34764.0,-0.4235,-0.5827,146.4,96.3,0.547
28.68,32030.7,35079.9,0.1305,0.1961,146.4,96.3,0.547
28.7,32173.1,35508.6,0.7314,1.2531,146.4,96.3,0.547
28.72,32372.3,35697.0,1.5723,1.7176,146.4,96.3,0.547
28.74,32447.8,35764.7,1.891,1.8846,146.4,96.3,0.547
28.76,32395.2,35544.5,1.6688,1.3417,146.4,96.3,0.547
28.78,32188.0,35430.3,0.7944,1.0601,146.4,96.3,0.547
28.8,32131.0,35186.3,0.554,0.4585,146.4,96.3,0.547
28.82,32059.5,35168.4,0.2523,0.4143,146.4,96.3,0.547
28.84,32010.2,35133.1,0.0441,0.3272,146.4,96.3,0.547
28.86,32055.7,35005.4,0.2361,0.0124,146.4,96.3,0.547
28.88,31922.0,34967.9,-0.3281,-0.0802,146.4,96.3,0.547
28.9,31904.0,34930.7,-0.4039,-0.1718,146.4,96.3,0.547
28.92,31735.2,34706.9,-1.1164,-0.7237,146.4,96.3,0.547
28.94,31901.7,34694.0,-0.4136,-0.7555,146.4,96.3,0.547
28.96,31871.9,34659.6,-0.5397,-0.8402,146.4,96.3,0.547
28.98,31813.7,34764.3,-0.7852,-0.582,146.4,96.3,0.547
29.0,31870.0,34551.0,-0.5473,-1.1079,146.4,96.3,0.547
29.02,31790.8,34447.2,-0.8817,-1.3639,146.4,96.3,0.547
29.04,31605.1,34525.0,-1.6653,-1.172,146.4,96.3,0.547
29.06,31828.9,34592.8,-0.7208,-1.0049,146.4,96.3,0.547
29.08,31972.5,34981.5,-0.1148,-0.0464,146.4,96.3,0.547
29.1,32184.8,35294.6,0.781,0.7256,146.4,96.3,0.547
29.12,32390.2,35709.6,1.6479,1.7487,146.4,96.3,0.547
29.14,32390.9,35819.7,1.6506,2.0202,146.4,96.3,0.547
29.16,32393.1,35686.5,1.6598,1.6917,146.4,96.3,0.547
29.18,32264.7,35429.5,1.1181,1.0582,146.4,96.3,0.547
29.2,32079.7,35341.8,0.3375,0.8419,146.4,96.3,0.547
29.22,32092.8,35175.1,0.3929,0.4307,146.4,96.3,0.547
29.24,32073.4,35065.0,0.3106,0.1595,146.4,96.3,0.547
29.26,32059.6,35089.5,0.2525,0.2198,146.4,96.3,0.547
29.28,32107.8,34930.8,0.4562,-0.1714,146.4,96.3,0.547
29.3,31943.0,34844.8,-0.2393,-0.3835,146.4,96.3,0.547
29.32,31860.3,34827.0,-0.5885,-0.4273,146.4,96.3,0.547
29.34,31873.2,34647.9,-0.5339,-0.8691,146.4,96.3,0.547
29.36,31859.5,34696.5,-0.592,-0.7492,146.4,96.3,0.547
29.38,31901.3,34604.2,-0.4154,-0.9769,146.4,96.3,0.547
29.4,31889.9,34601.8,-0.4634,-0.9828,146.4,96.3,0.547
29.42,31726.6,34510.6,-1.1525,-1.2075,146.4,96.3,0.547
29.44,31690.1,34412.5,-1.3066,-1.4494,146.4,96.3,0.547
29.46,31829.5,34469.8,-0.7183,-1.3082,146.4,96.3,0.547
29.48,31845.9,34813.9,-0.649,-0.4598,146.4,96.3,0.547
29.5,32084.1,35158.8,0.3559,0.3906,146.4,96.3,0.547
29.52,32218.4,35509.3,0.9225,1.2549,146.4,96.3,0.547
29.54,32414.3,35769.0,1.7494,1.8951,146.4,96.3,0.547
29.56,32396.5,35721.4,1.6745,1.7778,146.4,96.3,0.547
29.58,32248.5,35664.8,1.0496,1.6383,146.4,96.3,0.547
29.6,32150.4,35372.9,0.6358,0.9186,146.4,96.3,0.547
29.62,32180.9,35196.2,0.7646,0.4829,146.4,96.3,0.547
29.64,32228.5,35098.8,0.9655,0.2428,146.4,96.3,0.547
29.66,32065.1,35033.4,0.276,0.0815,146.4,96.3,0.547
29.68,32003.6,35011.5,0.0164,0.0276,146.4,96.3,0.547
29.7,31933.1,34944.6,-0.2814,-0.1375,146.4,96.3,0.547
29.72,31878.6,34797.6,-0.5113,-0.4999,146.4,96.3,0.547
29.74,31958.1,34704.7,-0.1756,-0.7289,146.4,96.3,0.547
29.76,31839.2,34675.9,-0.6775,-0.8,146.4,96.3,0.547
29.78,31851.1,34650.4,-0.6273,-0.8628,146.4,96.3,0.547
29.8,31894.5,34588.1,-0.444,-1.0164,146.4,96.3,0.547
29.82,31800.7,34518.9,-0.84,-1.1871,146.4,96.3,0.547
29.84,31695.0,34461.3,-1.2861,-1.3292,146.4,96.3,0.547
29.86,31774.2,34440.2,-0.9519,-1.3812,146.4,96.3,0.547
29.88,31879.2,34588.7,-0.5085,-1.0149,146.4,96.3,0.547
29.9,31957.7,34916.2,-0.1774,-0.2076,146.4,96.3,0.547
29.92,32130.2,35373.0,0.5507,0.9189,146.4,96.3,0.547
29.94,32357.1,35682.3,1.5081,1.6815,146.4,96.3,0.547
29.96,32434.1,35769.5,1.8331,1.8965,146.4,96.3,0.547
29.98,32282.2,35736.0,1.1921,1.8139,146.4,96.3,0.547
30.0,32214.3,35513.2,0.9055,1.2644,146.4,96.3,0.547
30.02,32063.6,35438.2,0.2694,1.0795,146.4,96.3,0.547
30.04,32137.4,35222.1,0.5809,0.5468,146.4,96.3,0.547
30.06,32130.2,35170.9,0.5504,0.4204,146.4,96.3,0.547
30.08,32016.9,34978.7,0.0725,-0.0535,146.4,96.3,0.547
30.1,31983.1,34882.6,-0.0704,-0.2904,146.4,96.3,0.547
30.12,31838.5,34882.1,-0.6804,-0.2915,146.4,96.3,0.547
30.14,31837.1,34754.5,-0.6865,-0.6063,146.4,96.3,0.547
30.16,31936.6,34675.9,-0.2665,-0.8001,146.4,96.3,0.547
30.18,31809.0,34679.4,-0.8051,-0.7913,146.4,96.3,0.547
30.2,31835.3,34694.4,-0.6941,-0.7545,146.4,96.3,0.547
30.22,31708.7,34545.5,-1.2281,-1.1216,146.4,96.3,0.547
30.24,31753.3,34478.9,-1.0399,-1.2857,146.4,96.3,0.547
30.26,31673.4,34421.3,-1.377,-1.4278,146.4,96.3,0.547
30.28,31762.5,34488.1,-1.001,-1.2631,146.4,96.3,0.547
30.3,31778.1,34815.4,-0.9354,-0.4562,146.4,96.3,0.547
30.32,32069.5,35140.0,0.2942,0.3443,146.4,96.3,0.547
30.34,32236.3,35550.6,0.9983,1.3568,146.4,96.3,0.547
30.36,32344.3,35714.2,1.454,1.76,146.4,96.3,0.547
30.38,32475.4,35766.4,2.0072,1.8888,146.4,96.3,0.547
30.4,32347.9,35537.6,1.4692,1.3245,146.4,96.3,0.547
30.42,32133.4,35336.6,0.5638,0.8291,146.4,96.3,0.547
30.44,32051.0,35206.3,0.2163,0.5079,146.4,96.3,0.547
30.46,31991.3,35132.0,-0.0354,0.3246,146.4,96.3,0.547
30.48,32003.7,35022.5,0.0168,0.0545,146.4,96.3,0.547
30.5,32100.2,35006.8,0.424,0.0158,146.4,96.3,0.547
30.52,32006.0,34855.5,0.0263,-0.3572,146.4,96.3,0.547
30.54,31919.5,34819.5,-0.3388,-0.4459,146.4,96.3,0.547
30.56,31891.0,34787.4,-0.4589,-0.5252,146.4,96.3,0.547
30.58,31840.7,34686.2,-0.6711,-0.7745,146.4,96.3,0.547
30.6,31813.2,34681.9,-0.7872,-0.7851,146.4,96.3,0.547
30.62,31793.8,34701.9,-0.8692,-0.736,146.4,96.3,0.547
30.64,31784.0,34486.9,-0.9105,-1.2659,146.4,96.3,0.547
30.66,31731.3,34406.4,-1.1329,-1.4645,146.4,96.3,0.547
30.68,31729.5,34426.3,-1.1403,-1.4154,146.4,96.3,0.547
30.7,31846.8,34537.0,-0.6455,-1.1425,146.4,96.3,0.547
30.72,31964.7,35001.8,-0.1478,0.0036,146.4,96.3,0.547
30.74,32229.9,35335.9,0.9714,0.8273,146.4,96.3,0.547
30.76,32310.8,35664.2,1.3125,1.6367,146.4,96.3,0.547
30.78,32261.8,35722.3,1.1059,1.78,146.4,96.3,0.547
30.8,32353.2,35721.1,1.4917,1.7772,146.4,96.3,0.547
30.82,32182.7,35520.1,0.7721,1.2815,146.4,96.3,0.547
30.84,32060.5,35296.0,0.2564,0.7289,146.4,96.3,0.547
30.86,32151.9,35181.2,0.6419,0.4459,146.4,96.3,0.547
30.88,32017.7,35171.7,0.0758,0.4226,146.4,96.3,0.547
30.9,31971.8,35060.6,-0.1179,0.1485,146.4,96.3,0.547
30.92,31978.5,34971.6,-0.0895,-0.071,146.4,96.3,0.547
30.94,31948.7,34818.1,-0.2152,-0.4494,146.4,96.3,0.547
30.96,31847.4,34762.8,-0.6429,-0.5856,146.4,96.3,0.547
30.98,31844.1,34682.8,-0.657,-0.783,146.4,96.3,0.547
31.0,31838.1,34653.1,-0.6824,-0.8563,146.4,96.3,0.547
31.02,31782.5,34661.3,-0.9168,-0.836,146.4,96.3,0.547
31.04,31751.9,34675.3,-1.0461,-0.8015,146.4,96.3,0.547
31.06,31745.5,34485.5,-1.0729,-1.2695,146.4,96.3,0.547
31.08,31750.6,34454.2,-1.0513,-1.3467,146.4,96.3,0.547
31.1,31746.1,34541.2,-1.0705,-1.1321,146.4,96.3,0.547
31.12,31864.7,34770.9,-0.5697,-0.5658,146.4,96.3,0.547
31.14,32008.2,35193.7,0.0356,0.4766,146.4,96.3,0.547
31.16,32266.7,35529.8,1.1267,1.3054,146.4,96.3,0.547
31.18,32382.8,35684.9,1.6165,1.6879,146.4,96.3,0.547
31.2,32379.1,35838.0,1.6009,2.0654,146.4,96.3,0.547
31.22,32284.7,35641.2,1.2027,1.5802,146.4,96.3,0.547
31.24,32184.1,35330.8,0.7782,0.8149,146.4,96.3,0.547
31.26,32056.1,35273.2,0.2379,0.6728,146.4,96.3,0.547
31.28,32036.0,35139.6,0.153,0.3433,146.4,96.3,0.547
31.3,32077.3,35024.7,0.3274,0.0599,146.4,96.3,0.547
31.32,32021.1,35023.1,0.0901,0.056,146.4,96.3,0.547
31.34,31914.9,34907.0,-0.3581,-0.2302,146.4,96.3,0.547
31.36,31841.5,34796.4,-0.6678,-0.503,146.4,96.3,0.547
31.38,31768.7,34705.0,-0.9749,-0.7283,146.4,96.3,0.547
31.4,31943.3,34743.3,-0.238,-0.6338,146.4,96.3,0.547
31.42,31768.8,34636.6,-0.9747,-0.897,146.4,96.3,0.547
31.44,31822.6,34572.9,-0.7475,-1.054,146.4,96.3,0.547
31.46,31801.5,34463.2,-0.8367,-1.3245,146.4,96.3,0.547
31.48,31754.6,34370.1,-1.0344,-1.554,146.4,96.3,0.547
31.5,31695.1,34419.2,-1.2855,-1.4331,146.4,96.3,0.547
31.52,31871.5,34642.4,-0.5414,-0.8827,146.4,96.3,0.547
31.54,31931.9,34893.4,-0.2864,-0.2637,146.4,96.3,0.547
31.56,32125.8,35357.3,0.5322,0.88,146.4,96.3,0.547
31.58,32213.4,35634.2,0.9015,1.5629,146.4,96.3,0.547
31.6,32439.6,35759.2,1.8561,1.871,146.4,96.3,0.547
31.62,32306.6,35534.4,1.2948,1.3167,146.4,96.3,0.547
31.64,32329.6,35395.7,1.3919,0.9747,146.4,96.3,0.547
31.66,32254.0,35257.6,1.0729,0.6342,146.4,96.3,0.547
31.68,32088.2,35193.8,0.3733,0.477,146.4,96.3,0.547
31.7,32052.8,35088.5,0.2241,0.2173,146.4,96.3,0.547
31.72,31956.2,35082.2,-0.1837,0.2017,146.4,96.3,0.547
31.74,31853.7,35084.8,-0.6164,0.2082,146.4,96.3,0.547
31.76,31899.3,34806.5,-0.4238,-0.4781,146.4,96.3,0.547
31.78,31912.4,34815.0,-0.3686,-0.4569,146.4,96.3,0.547
31.8,31841.2,34595.4,-0.669,-0.9986,146.4,96.3,0.547
31.82,31864.4,34659.6,-0.5712,-0.8403,146.4,96.3,0.547
31.84,31909.0,34669.8,-0.383,-0.8151,146.4,96.3,0.547
31.86,31859.0,34588.2,-0.5941,-1.0162,146.4,96.3,0.547
31.88,31732.0,34522.7,-1.13,-1.1778,146.4,96.3,0.547
31.9,31660.8,34322.8,-1.4305,-1.6707,146.4,96.3,0.547
31.92,31791.8,34608.1,-0.8776,-0.9671,146.4,96.3,0.547
31.94,31939.7,34757.6,-0.2535,-0.5986,146.4,96.3,0.547
31.96,32077.8,35130.5,0.3294,0.3208,146.4,96.3,0.547
31.98,32277.8,35504.4,1.1732,1.2428,146.4,96.3,0.547
32.0,32310.0,35725.6,1.3091,1.7881,146.4,96.3,0.547
32.02,32369.2,35756.0,1.559,1.8632,146.4,96.3,0.547
32.04,32365.5,35632.6,1.5433,1.559,146.4,96.3,0.547
32.06,32177.4,35345.9,0.7495,0.8521,146.4,96.3,0.547
32.08,32129.0,35205.5,0.5455,0.5058,146.4,96.3,0.547
32.1,32147.5,35100.6,0.6237,0.2472,146.4,96.3,0.547
32.12,32051.3,35057.5,0.2176,0.141,146.4,96.3,0.547
32.14,31970.8,34971.6,-0.1222,-0.0708,146.4,96.3,0.547
32.16,31991.6,34852.0,-0.0345,-0.3657,146.4,96.3,0.547
32.18,31852.5,34772.9,-0.6215,-0.5607,146.4,96.3,0.547
32.2,31873.1,34662.4,-0.5344,-0.8333,146.4,96.3,0.547
32.22,31774.8,34612.8,-0.9493,-0.9556,146.4,96.3,0.547
32.24,31777.8,34614.1,-0.9368,-0.9525,146.4,96.3,0.547
32.26,31759.5,34557.7,-1.0137,-1.0914,146.4,96.3,0.547
32.28,31852.6,34632.3,-0.6209,-0.9074,146.4,96.3,0.547
32.3,31756.6,34363.9,-1.0259,-1.5692,146.4,96.3,0.547
32.32,31791.5,34545.0,-0.8788,-1.1226,146.4,96.3,0.547
32.34,31847.9,34708.6,-0.6408,-0.7194,146.4,96.3,0.547
32.36,32028.5,35028.7,0.1214,0.0698,146.4,96.3,0.547
32.38,32144.0,35263.7,0.6086,0.6492,146.4,96.3,0.547
32.4,32307.5,35667.5,1.2986,1.6448,146.4,96.3,0.547
32.42,32372.6,35788.4,1.5733,1.943,146.4,96.3,0.547
32.44,32304.3,35556.8,1.2854,1.3719,146.4,96.3,0.547
32.46,32296.5,35436.6,1.2523,1.0756,146.4,96.3,0.547
32.48,32112.6,35241.9,0.4763,0.5956,146.4,96.3,0.547
32.5,32112.8,35311.0,0.477,0.7659,146.4,96.3,0.547
32.52,32097.6,35038.1,0.4131,0.0931,146.4,96.3,0.547
32.54,32083.9,35010.6,0.355,0.0252,146.4,96.3,0.547
32.56,32007.1,34995.7,0.0309,-0.0115,146.4,96.3,0.547
32.58,31910.0,34791.1,-0.3788,-0.516,146.4,96.3,0.547
32.6,31902.3,34705.2,-0.4112,-0.7278,146.4,96.3,0.547
32.62,31810.7,34584.8,-0.7977,-1.0246,146.4,96.3,0.547
32.64,31812.6,34709.4,-0.7897,-0.7175,146.4,96.3,0.547
32.66,31771.3,34679.9,-0.964,-0.7902,146.4,96.3,0.547
32.68,31747.9,34592.0,-1.0628,-1.0069,146.4,96.3,0.547
32.7,31729.9,34573.7,-1.1386,-1.052,146.4,96.3,0.547
32.72,31687.1,34448.4,-1.3195,-1.361,146.4,96.3,0.547
32.74,31753.9,34522.4,-1.0374,-1.1786,146.4,96.3,0.547
32.76,31924.7,34781.2,-0.3165,-0.5404,146.4,96.3,0.547
32.78,32112.3,35170.5,0.4749,0.4195,146.4,96.3,0.547
32.8,32208.5,35503.4,0.8808,1.2402,146.4,96.3,0.547
32.82,32324.5,35824.5,1.3704,2.032,146.4,96.3,0.547
32.84,32334.9,35719.6,1.4142,1.7734,146.4,96.3,0.547
32.86,32319.9,35469.6,1.351,1.1571,146.4,96.3,0.547
32.88,32148.1,35419.9,0.6263,1.0344,146.4,96.3,0.547
32.9,32164.4,35162.1,0.6951,0.3987,146.4,96.3,0.547
32.92,32106.8,35028.7,0.4518,0.0698,146.4,96.3,0.547
32.94,32004.4,35005.3,0.0198,0.0122,146.4,96.3,0.547
32.96,32031.8,34991.2,0.1354,-0.0226,146.4,96.3,0.547
32.98,31968.2,34959.6,-0.1332,-0.1005,146.4,96.3,0.547
33.0,31831.8,34809.1,-0.7087,-0.4715,146.4,96.3,0.547
33.02,31843.9,34658.5,-0.6577,-0.843,146.4,96.3,0.547
33.04,31848.9,34646.8,-0.6367,-0.8718,146.4,96.3,0.547
33.06,31772.5,34703.1,-0.959,-0.733,146.4,96.3,0.547
33.08,31827.7,34640.0,-0.7262,-0.8884,146.4,96.3,0.547
33.1,31675.0,34546.3,-1.3706,-1.1196,146.4,96.3,0.547
33.12,31697.6,34450.0,-1.2749,-1.3571,146.4,96.3,0.547
33.14,31715.1,34471.4,-1.2013,-1.3043,146.4,96.3,0.547
33.16,31850.5,34627.3,-0.6296,-0.9199,146.4,96.3,0.547
33.18,31952.4,34995.5,-0.2,-0.0121,146.4,96.3,0.547
33.2,32107.3,35397.2,0.4538,0.9786,146.4,96.3,0.547
33.22,32353.7,35669.0,1.4937,1.6487,146.4,96.3,0.547
33.24,32369.4,35774.7,1.5598,1.9093,146.4,96.3,0.547
33.26,32323.5,35612.9,1.3663,1.5102,146.4,96.3,0.547
33.28,32201.0,35571.5,0.8492,1.4083,146.4,96.3,0.547
33.3,32196.1,35397.2,0.8285,0.9785,146.4,96.3,0.547
33.32,32048.8,35113.1,0.2071,0.278,146.4,96.3,0.547
33.34,32060.8,35091.2,0.2576,0.2239,146.4,96.3,0.547
33.36,31990.8,34958.8,-0.0378,-0.1025,146.4,96.3,0.547
33.38,31893.0,34923.1,-0.4504,-0.1904,146.4,96.3,0.547
33.4,31917.9,34814.5,-0.3454,-0.4583,146.4,96.3,0.547
33.42,31759.4,34739.8,-1.0143,-0.6424,146.4,96.3,0.547
33.44,31850.8,34658.4,-0.6284,-0.8431,146.4,96.3,0.547
33.46,31837.0,34633.4,-0.6866,-0.9047,146.4,96.3,0.547
33.48,31825.2,34698.8,-0.7367,-0.7436,146.4,96.3,0.547
33.5,31853.2,34593.3,-0.6183,-1.0037,146.4,96.3,0.547
33.52,31734.0,34523.4,-1.1215,-1.1761,146.4,96.3,0.547
33.54,31767.8,34442.0,-0.9788,-1.3766,146.4,96.3,0.547
33.56,31793.2,34562.0,-0.8715,-1.081,146.4,96.3,0.547
33.58,31921.7,34811.8,-0.3293,-0.4648,146.4,96.3,0.547
33.6,32086.1,35162.4,0.3642,0.3995,146.4,96.3,0.547
33.62,32345.8,35572.8,1.4604,1.4114,146.4,96.3,0.547
33.64,32405.5,35791.7,1.7125,1.9512,146.4,96.3,0.547
33.66,32385.7,35833.4,1.6289,2.0539,146.4,96.3,0.547
33.68,32282.2,35602.1,1.192,1.4837,146.4,96.3,0.547
33.7,32165.0,35418.2,0.6976,1.0303,146.4,96.3,0.547
33.72,32168.9,35211.0,0.714,0.5194,146.4,96.3,0.547
33.74,32108.5,35098.1,0.4592,0.241,146.4,96.3,0.547
33.76,31956.5,35063.7,-0.1824,0.1561,146.4,96.3,0.547
33.78,31958.5,35078.9,-0.174,0.1936,146.4,96.3,0.547
33.8,31953.7,34882.3,-0.1942,-0.291,146.4,96.3,0.547
33.82,31877.1,34887.8,-0.5174,-0.2776,146.4,96.3,0.547
33.84,31884.4,34693.5,-0.4868,-0.7565,146.4,96.3,0.547
33.86,31826.4,34698.1,-0.7315,-0.7454,146.4,96.3,0.547
33.88,31852.6,34605.1,-0.6208,-0.9746,146.4,96.3,0.547
33.9,31798.6,34590.9,-0.849,-1.0096,146.4,96.3,0.547
33.92,31787.3,34554.1,-0.8966,-1.1004,146.4,96.3,0.547
33.94,31709.5,34508.5,-1.2247,-1.2128,146.4,96.3,0.547
33.96,31727.4,34473.0,-1.1495,-1.3003,146.4,96.3,0.547
33.98,31874.2,34657.2,-0.5299,-0.8461,146.4,96.3,0.547
34.0,32019.6,34946.0,0.0839,-0.134,146.4,96.3,0.547
34.02,32156.7,35353.7,0.6622,0.8713,146.4,96.3,0.547
34.04,32264.3,35759.3,1.1163,1.8714,146.4,96.3,0.547
34.06,32389.6,35757.4,1.6452,1.8666,146.4,96.3,0.547
34.08,32272.5,35739.4,1.1511,1.8222,146.4,96.3,0.547
34.1,32268.1,35471.3,1.1326,1.1612,146.4,96.3,0.547
34.12,32044.1,35317.3,0.1871,0.7815,146.4,96.3,0.547
34.14,32052.1,35119.1,0.2209,0.2927,146.4,96.3,0.547
34.16,32014.8,35067.9,0.0637,0.1666,146.4,96.3,0.547
34.18,32010.3,35006.7,0.0447,0.0157,146.4,96.3,0.547
34.2,32027.8,35031.6,0.1183,0.0771,146.4,96.3,0.547
34.22,31857.5,34826.5,-0.6003,-0.4287,146.4,96.3,0.547
34.24,31903.3,34681.8,-0.4068,-0.7854,146.4,96.3,0.547
34.26,31802.1,34691.4,-0.8343,-0.7617,146.4,96.3,0.547
34.28,31920.2,34636.3,-0.3357,-0.8977,146.4,96.3,0.547
34.3,31872.6,34663.9,-0.5366,-0.8296,146.4,96.3,0.547
34.32,31758.1,34638.3,-1.0198,-0.8926,146.4,96.3,0.547
34.34,31771.5,34523.9,-0.9633,-1.1748,146.4,96.3,0.547
34.36,31765.6,34503.2,-0.9881,-1.2259,146.4,96.3,0.547
34.38,31751.3,34457.8,-1.0484,-1.3377,146.4,96.3,0.547
34.4,31883.8,34893.1,-0.4891,-0.2645,146.4,96.3,0.547
34.42,32119.9,35102.1,0.5069,0.2508,146.4,96.3,0.547
34.44,32311.7,35534.0,1.3166,1.3159,146.4,96.3,0.547
34.46,32345.3,35770.8,1.4583,1.8997,146.4,96.3,0.547
34.48,32386.8,35715.7,1.6333,1.7639,146.4,96.3,0.547
34.5,32259.7,35603.6,1.097,1.4873,146.4,96.3,0.547
34.52,32087.0,35429.8,0.3683,1.0589,146.4,96.3,0.547
34.54,32109.6,35279.6,0.4637,0.6885,146.4,96.3,0.547
34.56,32116.0,35132.8,0.4906,0.3265,146.4,96.3,0.547
34.58,32057.4,35121.7,0.2431,0.2991,146.4,96.3,0.547
34.6,32046.7,34995.7,0.1981,-0.0114,146.4,96.3,0.547
34.62,32028.8,34855.9,0.1225,-0.3563,146.4,96.3,0.547
34.64,31847.4,34873.8,-0.643,-0.3119,146.4,96.3,0.547
34.66,31894.8,34750.6,-0.4429,-0.6158,146.4,96.3,0.547
34.68,31869.0,34743.2,-0.5516,-0.6341,146.4,96.3,0.547
34.7,31750.7,34693.8,-1.0509,-0.7558,146.4,96.3,0.547
34.72,31786.3,34663.5,-0.9009,-0.8305,146.4,96.3,0.547
34.74,31725.6,34477.4,-1.1571,-1.2894,146.4,96.3,0.547
34.76,31706.2,34537.2,-1.2386,-1.1421,146.4,96.3,0.547
34.78,31743.3,34529.8,-1.0823,-1.1602,146.4,96.3,0.547
34.8,31837.5,34616.2,-0.6845,-0.9472,146.4,96.3,0.547
34.82,32006.5,35019.6,0.0283,0.0473,146.4,96.3,0.547
34.84,32224.4,35405.0,0.948,0.9978,146.4,96.3,0.547
34.86,32297.4,35716.6,1.2561,1.7661,146.4,96.3,0.547
34.88,32408.1,35778.3,1.7233,1.9181,146.4,96.3,0.547
34.9,32302.1,35670.7,1.2761,1.6529,146.4,96.3,0.547
34.92,32240.8,35424.1,1.0174,1.0447,146.4,96.3,0.547
34.94,32147.0,35332.8,0.6215,0.8198,146.4,96.3,0.547
34.96,32030.1,35099.5,0.1282,0.2443,146.4,96.3,0.547
34.98,32015.5,35112.8,0.0666,0.2773,146.4,96.3,0.547
35.0,32063.3,35147.4,0.2683,0.3626,146.4,96.3,0.547
35.02,31988.5,34963.4,-0.0474,-0.0911,146.4,96.3,0.547
35.04,31878.0,34879.6,-0.5139,-0.2979,146.4,96.3,0.547
35.06,31819.0,34681.1,-0.7628,-0.7873,146.4,96.3,0.547
35.08,31923.7,34644.5,-0.3209,-0.8773,146.4,96.3,0.547
35.1,31797.3,34609.0,-0.8545,-0.965,146.4,96.3,0.547
35.12,31877.0,34522.6,-0.518,-1.1781,146.4,96.3,0.547
35.14,31793.9,34614.9,-0.8686,-0.9504,146.4,96.3,0.547
35.16,31769.3,34539.6,-0.9723,-1.1362,146.4,96.3,0.547
35.18,31819.6,34437.7,-0.7603,-1.3873,146.4,96.3,0.547
35.2,31723.6,34589.6,-1.1655,-1.0129,146.4,96.3,0.547
35.22,31788.2,34771.2,-0.8926,-0.565,146.4,96.3,0.547
35.24,32154.1,35180.2,0.6513,0.4434,146.4,96.3,0.547
35.26,32414.0,35578.6,1.7483,1.4258,146.4,96.3,0.547
35.28,32450.8,35680.8,1.9033,1.6777,146.4,96.3,0.547
35.3,32392.1,35777.5,1.6557,1.9162,146.4,96.3,0.547
35.32,32253.5,35616.6,1.0711,1.5195,146.4,96.3,0.547
35.34,32163.1,35379.3,0.6894,0.9343,146.4,96.3,0.547
35.36,32134.8,35086.9,0.5699,0.2133,146.4,96.3,0.547
35.38,32105.1,35112.0,0.4444,0.2753,146.4,96.3,0.547
35.4,32033.0,35091.2,0.1404,0.2241,146.4,96.3,0.547
35.42,31888.6,34953.2,-0.4688,-0.1163,146.4,96.3,0.547
35.44,31915.1,35027.0,-0.357,0.0656,146.4,96.3,0.547
35.46,31865.1,34781.9,-0.5682,-0.5386,146.4,96.3,0.547
35.48,31865.0,34710.0,-0.5688,-0.7158,146.4,96.3,0.547
35.5,31775.5,34667.2,-0.9464,-0.8214,146.4,96.3,0.547
35.52,31727.5,34649.6,-1.1487,-0.8649,146.4,96.3,0.547
35.54,31868.1,34763.4,-0.5557,-0.5843,146.4,96.3,0.547
35.56,31776.3,34449.4,-0.9428,-1.3584,146.4,96.3,0.547
35.58,31692.2,34479.5,-1.2976,-1.2843,146.4,96.3,0.547
35.6,31751.1,34447.9,-1.0494,-1.3621,146.4,96.3,0.547
35.62,31898.9,34725.7,-0.4257,-0.6772,146.4,96.3,0.547
35.64,32014.8,34947.7,0.0634,-0.1299,146.4,96.3,0.547
35.66,32186.2,35429.2,0.7867,1.0573,146.4,96.3,0.547
35.68,32351.8,35623.5,1.4857,1.5365,146.4,96.3,0.547
35.7,32422.0,35690.9,1.7818,1.7027,146.4,96.3,0.547
35.72,32327.8,35626.1,1.3842,1.5428,146.4,96.3,0.547
35.74,32299.1,35382.6,1.2631,0.9425,146.4,96.3,0.547
35.76,32153.7,35305.0,0.6495,0.7512,146.4,96.3,0.547
35.78,32121.7,35208.4,0.5147,0.513,146.4,96.3,0.547
35.8,31979.5,35116.6,-0.0853,0.2866,146.4,96.3,0.547
35.82,32064.5,35089.8,0.2731,0.2204,146.4,96.3,0.547
35.84,31968.6,34956.5,-0.1312,-0.1081,146.4,96.3,0.547
35.86,31922.7,34829.2,-0.3252,-0.422,146.4,96.3,0.547
35.88,31794.6,34702.0,-0.8656,-0.7357,146.4,96.3,0.547
35.9,31938.8,34670.2,-0.257,-0.8141,146.4,96.3,0.547
35.92,31853.6,34695.1,-0.6165,-0.7528,146.4,96.3,0.547
35.94,31839.3,34720.3,-0.6772,-0.6906,146.4,96.3,0.547
35.96,31725.0,34566.5,-1.1593,-1.0697,146.4,96.3,0.547
35.98,31711.1,34480.4,-1.2183,-1.2819,146.4,96.3,0.547
36.0,31748.7,34554.3,-1.0593,-1.0997,146.4,96.3,0.547
36.02,31722.2,34591.6,-1.1714,-1.0078,146.4,96.3,0.547
36.04,31924.0,34811.1,-0.3198,-0.4667,146.4,96.3,0.547
36.06,32098.3,35207.9,0.4161,0.5116,146.4,96.3,0.547
36.08,32314.8,35598.5,1.3295,1.4748,146.4,96.3,0.547
36.1,32319.2,35773.4,1.3483,1.9061,146.4,96.3,0.547
36.12,32433.8,35805.5,1.8319,1.9852,146.4,96.3,0.547
36.14,32236.3,35538.2,0.9981,1.3262,146.4,96.3,0.547
36.16,32167.0,35388.2,0.7059,0.9562,146.4,96.3,0.547
36.18,32144.4,35197.8,0.6104,0.4869,146.4,96.3,0.547
36.2,32130.5,35154.9,0.552,0.3811,146.4,96.3,0.547
36.22,32119.7,35122.1,0.5062,0.3002,146.4,96.3,0.547
36.24,31978.4,34904.2,-0.0901,-0.237,146.4,96.3,0.547
36.26,31982.0,34894.8,-0.0749,-0.2604,146.4,96.3,0.547
36.28,31874.5,34802.9,-0.5287,-0.4868,146.4,96.3,0.547
36.3,31995.7,34682.9,-0.0172,-0.7828,146.4,96.3,0.547
36.32,31775.0,34683.4,-0.9485,-0.7816,146.4,96.3,0.547
36.34,31824.2,34556.4,-0.7408,-1.0946,146.4,96.3,0.547
36.36,31835.4,34583.1,-0.6935,-1.0288,146.4,96.3,0.547
36.38,31826.6,34563.7,-0.7308,-1.0765,146.4,96.3,0.547
36.4,31744.9,34500.7,-1.0754,-1.232,146.4,96.3,0.547
36.42,31747.9,34560.0,-1.0628,-1.0857,146.4,96.3,0.547
36.44,31896.5,34605.0,-0.4355,-0.9748,146.4,96.3,0.547
36.46,31933.7,35089.8,-0.2788,0.2205,146.4,96.3,0.547
36.48,32214.9,35380.9,0.9079,0.9382,146.4,96.3,0.547
36.5,32377.9,35642.4,1.5957,1.5829,146.4,96.3,0.547
36.52,32376.6,35807.7,1.5903,1.9906,146.4,96.3,0.547
36.54,32268.3,35613.5,1.1334,1.5119,146.4,96.3,0.547
36.56,32256.8,35394.2,1.085,0.971,146.4,96.3,0.547
36.58,32124.0,35325.1,0.5243,0.8006,146.4,96.3,0.547
36.6,32016.6,35152.7,0.071,0.3757,146.4,96.3,0.547
36.62,32007.4,35111.9,0.0324,0.275,146.4,96.3,0.547
36.64,31935.6,35068.2,-0.2709,0.1674,146.4,96.3,0.547
36.66,31972.0,34961.1,-0.117,-0.0967,146.4,96.3,0.547
36.68,31865.5,34775.9,-0.5667,-0.5536,146.4,96.3,0.547
36.7,31907.6,34749.3,-0.3889,-0.6189,146.4,96.3,0.547
36.72,31814.3,34739.5,-0.7827,-0.6432,146.4,96.3,0.547
36.74,31815.0,34695.8,-0.7798,-0.7509,146.4,96.3,0.547
36.76,31804.5,34570.8,-0.8239,-1.0592,146.4,96.3,0.547
36.78,31770.1,34592.9,-0.9689,-1.0045,146.4,96.3,0.547
36.8,31788.1,34527.4,-0.8932,-1.1663,146.4,96.3,0.547
36.82,31705.8,34448.4,-1.2406,-1.361,146.4,96.3,0.547
36.84,31811.4,34480.3,-0.7948,-1.2824,146.4,96.3,0.547
36.86,31956.1,34835.1,-0.184,-0.4074,146.4,96.3,0.547
36.88,32176.2,35267.6,0.7446,0.6588,146.4,96.3,0.547
36.9,32245.7,35536.4,1.0381,1.3216,146.4,96.3,0.547
36.92,32490.0,35789.5,2.0687,1.9456,146.4,96.3,0.547
36.94,32431.0,35682.5,1.8199,1.6818,146.4,96.3,0.547
36.96,32182.9,35551.0,0.7729,1.3577,146.4,96.3,0.547
36.98,32168.3,35354.7,0.7114,0.8736,146.4,96.3,0.547
37.0,32045.9,35182.4,0.1947,0.4487,146.4,96.3,0.547
37.02,32231.9,35083.1,0.9798,0.204,146.4,96.3,0.547
37.04,32015.5,35004.7,0.0663,0.0107,146.4,96.3,0.547
37.06,32008.2,34980.3,0.0357,-0.0495,146.4,96.3,0.547
37.08,31878.3,34947.1,-0.5123,-0.1313,146.4,96.3,0.547
37.1,31881.7,34737.8,-0.498,-0.6473,146.4,96.3,0.547
37.12,31878.1,34618.7,-0.5132,-0.9411,146.4,96.3,0.547
37.14,31885.3,34648.6,-0.4831,-0.8672,146.4,96.3,0.547
37.16,31817.1,34719.8,-0.7707,-0.6917,146.4,96.3,0.547
37.18,31810.2,34588.2,-0.7999,-1.0163,146.4,96.3,0.547
37.2,31752.5,34526.1,-1.0435,-1.1693,146.4,96.3,0.547
37.22,31726.5,34452.0,-1.1532,-1.352,146.4,96.3,0.547
37.24,31769.0,34621.1,-0.9737,-0.935,146.4,96.3,0.547
37.26,31789.5,34773.4,-0.8874,-0.5595,146.4,96.3,0.547
37.28,32077.8,35113.0,0.3293,0.2777,146.4,96.3,0.547
37.3,32152.5,35422.5,0.6445,1.0409,146.4,96.3,0.547
37.32,32383.3,35717.4,1.6187,1.7681,146.4,96.3,0.547
37.34,32397.3,35782.6,1.6778,1.9288,146.4,96.3,0.547
37.36,32345.4,35702.7,1.4587,1.7317,146.4,96.3,0.547
37.38,32154.6,35496.3,0.6533,1.2227,146.4,96.3,0.547
37.4,32058.4,35303.7,0.2475,0.7478,146.4,96.3,0.547
37.42,32045.3,35168.6,0.1923,0.4147,146.4,96.3,0.547
37.44,32088.1,35103.8,0.3727,0.2551,146.4,96.3,0.547
37.46,32049.4,35107.9,0.2093,0.2652,146.4,96.3,0.547
37.48,31903.6,34933.9,-0.4059,-0.1639,146.4,96.3,0.547
37.5,31810.1,34824.3,-0.8005,-0.434,146.4,96.3,0.547
37.52,31850.0,34741.4,-0.6319,-0.6386,146.4,96.3,0.547
37.54,31871.6,34713.8,-0.5408,-0.7067,146.4,96.3,0.547
37.56,31796.6,34725.7,-0.8571,-0.6772,146.4,96.3,0.547
37.58,31858.4,34679.0,-0.5966,-0.7924,146.4,96.3,0.547
37.6,31837.9,34627.1,-0.6829,-0.9204,146.4,96.3,0.547
37.62,31611.8,34469.9,-1.6372,-1.3078,146.4,96.3,0.547
37.64,31740.9,34391.1,-1.0924,-1.5023,146.4,96.3,0.547
37.66,31797.0,34556.5,-0.8557,-1.0944,146.4,96.3,0.547
37.68,31893.3,34818.6,-0.449,-0.4481,146.4,96.3,0.547
37.7,32082.3,35292.3,0.3485,0.7197,146.4,96.3,0.547
37.72,32346.5,35508.7,1.4634,1.2534,146.4,96.3,0.547
37.74,32407.3,35682.6,1.72,1.6822,146.4,96.3,0.547
37.76,32468.7,35767.6,1.9789,1.8918,146.4,96.3,0.547
37.78,32310.6,35558.1,1.3119,1.3752,146.4,96.3,0.547
37.8,32259.4,35328.8,1.0956,0.8097,146.4,96.3,0.547
37.82,32174.9,35161.5,0.7391,0.3974,146.4,96.3,0.547
37.84,32002.3,35090.3,0.011,0.2218,146.4,96.3,0.547
37.86,32063.5,35062.5,0.2692,0.1532,146.4,96.3,0.547
37.88,31973.3,34996.8,-0.1114,-0.0088,146.4,96.3,0.547
37.9,31898.8,34815.7,-0.426,-0.4553,146.4,96.3,0.547
37.92,31837.4,34769.3,-0.6849,-0.5698,146.4,96.3,0.547
37.94,31885.3,34822.6,-0.483,-0.4384,146.4,96.3,0.547
37.96,31781.8,34641.1,-0.9199,-0.8859,146.4,96.3,0.547
37.98,31858.6,34652.0,-0.5956,-0.8589,146.4,96.3,0.547
38.0,31887.6,34591.5,-0.4733,-1.0082,146.4,96.3,0.547
38.02,31735.1,34486.4,-1.1169,-1.2673,146.4,96.3,0.547
38.04,31770.1,34458.9,-0.9691,-1.3351,146.4,96.3,0.547
38.06,31777.0,34508.5,-0.9401,-1.2128,146.4,96.3,0.547
38.08,31941.3,34704.7,-0.2465,-0.729,146.4,96.3,0.547
38.1,32053.2,35063.6,0.2254,0.156,146.4,96.3,0.547
38.12,32181.7,35511.6,0.768,1.2606,146.4,96.3,0.547
38.14,32336.5,35745.5,1.4211,1.8373,146.4,96.3,0.547
38.16,32380.8,35739.6,1.6081,1.8227,146.4,96.3,0.547
38.18,32266.8,35636.3,1.1272,1.5681,146.4,96.3,0.547
38.2,32187.8,35503.2,0.7935,1.2398,146.4,96.3,0.547
38.22,32081.3,35243.9,0.3441,0.6005,146.4,96.3,0.547
38.24,32095.1,35160.6,0.4025,0.395,146.4,96.3,0.547
38.26,32114.6,35139.9,0.4845,0.344,146.4,96.3,0.547
38.28,31989.4,35058.6,-0.0436,0.1437,146.4,96.3,0.547
38.3,31994.1,35004.7,-0.0237,0.0107,146.4,96.3,0.547
38.32,31880.8,34898.2,-0.5019,-0.2519,146.4,96.3,0.547
38.34,31890.2,34713.6,-0.4621,-0.707,146.4,96.3,0.547
38.36,31794.4,34688.5,-0.8664,-0.769,146.4,96.3,0.547
38.38,31761.5,34661.5,-1.0056,-0.8356,146.4,96.3,0.547
38.4,31790.3,34650.4,-0.8837,-0.8628,146.4,96.3,0.547
38.42,31697.3,34571.2,-1.2762,-1.0583,146.4,96.3,0.547
38.44,31768.5,34479.6,-0.976,-1.284,146.4,96.3,0.547
38.46,31785.1,34556.7,-0.9056,-1.0939,146.4,96.3,0.547
38.48,31825.1,34556.7,-0.737,-1.0939,146.4,96.3,0.547
38.5,31973.3,34815.4,-0.1115,-0.4561,146.4,96.3,0.547
38.52,32086.8,35246.2,0.3675,0.6061,146.4,96.3,0.547
38.54,32242.2,35563.7,1.0232,1.389,146.4,96.3,0.547
38.56,32397.8,35787.6,1.6798,1.941,146.4,96.3,0.547
38.58,32383.8,35659.2,1.6206,1.6245,146.4,96.3,0.547
38.6,32245.7,35562.4,1.0379,1.3857,146.4,96.3,0.547
38.62,32139.4,35379.1,0.5893,0.9339,146.4,96.3,0.547
38.64,32129.1,35290.9,0.5459,0.7164,146.4,96.3,0.547
38.66,32077.1,35052.3,0.3263,0.1281,146.4,96.3,0.547
38.68,32071.4,35032.9,0.3025,0.0801,146.4,96.3,0.547
38.7,32026.6,34957.1,0.1135,-0.1067,146.4,96.3,0.547
38.72,31996.4,34754.8,-0.0141,-0.6056,146.4,96.3,0.547
38.74,31866.2,34816.7,-0.5636,-0.4527,146.4,96.3,0.547
38.76,31817.2,34699.9,-0.7704,-0.7408,146.4,96.3,0.547
38.78,31825.6,34681.0,-0.7348,-0.7874,146.4,96.3,0.547
38.8,31850.5,34657.3,-0.6299,-0.846,146.4,96.3,0.547
38.82,31731.1,34685.3,-1.1336,-0.7768,146.4,96.3,0.547
38.84,31847.6,34470.0,-0.6421,-1.3076,146.4,96.3,0.547
38.86,31696.8,34391.6,-1.2785,-1.501,146.4,96.3,0.547
38.88,31699.6,34544.8,-1.2666,-1.1233,146.4,96.3,0.547
38.9,31856.3,34685.1,-0.6053,-0.7773,146.4,96.3,0.547
38.92,32049.2,35124.5,0.2085,0.306,146.4,96.3,0.547
38.94,32291.3,35437.1,1.2305,1.0767,146.4,96.3,0.547
38.96,32480.2,35665.2,2.0275,1.6392,146.4,96.3,0.547
38.98,32349.6,35807.4,1.4762,1.9899,146.4,96.3,0.547
39.0,32368.3,35638.6,1.5552,1.5738,146.4,96.3,0.547
39.02,32251.0,35492.7,1.0604,1.2139,146.4,96.3,0.547
39.04,32132.0,35208.4,0.558,0.513,146.4,96.3,0.547
39.06,32043.4,35134.2,0.1842,0.33,146.4,96.3,0.547
39.08,32083.3,35169.6,0.3526,0.4172,146.4,96.3,0.547
39.1,32072.4,35045.3,0.3067,0.1107,146.4,96.3,0.547
39.12,31936.4,34990.4,-0.2672,-0.0246,146.4,96.3,0.547
39.14,31863.5,34740.8,-0.5748,-0.64,146.4,96.3,0.547
39.16,31904.3,34665.7,-0.4029,-0.8252,146.4,96.3,0.547
39.18,31808.1,34744.0,-0.8089,-0.6321,146.4,96.3,0.547
39.2,31824.5,34593.6,-0.7396,-1.003,146.4,96.3,0.547
39.22,31793.1,34667.5,-0.872,-0.8208,146.4,96.3,0.547
39.24,31875.8,34487.6,-0.5232,-1.2643,146.4,96.3,0.547
39.26,31763.6,34541.1,-0.9966,-1.1323,146.4,96.3,0.547
39.28,31670.5,34397.2,-1.3895,-1.4872,146.4,96.3,0.547
39.3,31768.2,34556.8,-0.9773,-1.0937,146.4,96.3,0.547
39.32,31935.0,34920.8,-0.2734,-0.1962,146.4,96.3,0.547
39.34,32149.3,35253.7,0.6311,0.6246,146.4,96.3,0.547
39.36,32287.2,35571.1,1.2131,1.4072,146.4,96.3,0.547
39.38,32322.3,35660.3,1.3611,1.6273,146.4,96.3,0.547
39.4,32288.3,35726.5,1.2178,1.7904,146.4,96.3,0.547
39.42,32245.8,35614.9,1.0385,1.5153,146.4,96.3,0.547
39.44,32136.6,35303.6,0.5777,0.7476,146.4,96.3,0.547
39.46,32134.8,35153.5,0.57,0.3775,146.4,96.3,0.547
39.48,32063.3,35092.9,0.2682,0.2282,146.4,96.3,0.547
39.5,32030.7,35003.0,0.1308,0.0066,146.4,96.3,0.547
39.52,32042.6,34942.4,0.181,-0.1428,146.4,96.3,0.547
39.54,31984.1,34886.8,-0.0661,-0.2801,146.4,96.3,0.547
39.56,31858.6,34804.1,-0.5958,-0.4838,146.4,96.3,0.547
39.58,31885.0,34674.4,-0.4841,-0.8037,146.4,96.3,0.547
39.6,31767.1,34641.8,-0.982,-0.8841,146.4,96.3,0.547
39.62,31799.0,34585.0,-0.8473,-1.0241,146.4,96.3,0.547
39.64,31841.1,34585.2,-0.6693,-1.0237,146.4,96.3,0.547
39.66,31731.8,34471.6,-1.1306,-1.3037,146.4,96.3,0.547
39.68,31777.5,34464.7,-0.938,-1.3209,146.4,96.3,0.547
39.7,31859.9,34444.8,-0.5903,-1.3698,146.4,96.3,0.547
39.72,31898.1,34648.6,-0.4289,-0.8673,146.4,96.3,0.547
39.74,32061.6,35055.0,0.2609,0.1347,146.4,96.3,0.547
39.76,32251.0,35467.9,1.0603,1.1528,146.4,96.3,0.547
39.78,32317.7,35667.6,1.3416,1.6452,146.4,96.3,0.547
39.8,32420.0,35664.0,1.7734,1.6363,146.4,96.3,0.547
39.82,32358.0,35671.1,1.5119,1.6538,146.4,96.3,0.547
39.84,32215.9,35464.6,0.9123,1.1446,146.4,96.3,0.547
39.86,32177.1,35196.3,0.7483,0.4831,146.4,96.3,0.547
39.88,32130.1,35193.2,0.5501,0.4755,146.4,96.3,0.547
39.9,32029.3,35089.3,0.1249,0.2192,146.4,96.3,0.547
39.92,32057.5,35089.5,0.2437,0.2197,146.4,96.3,0.547
39.94,31979.4,34898.9,-0.0859,-0.2502,146.4,96.3,0.547
39.96,31837.7,34806.5,-0.684,-0.4781,146.4,96.3,0.547
39.98,31872.8,34745.1,-0.5356,-0.6295,146.4,96.3,0.547
40.0,31856.9,34598.6,-0.6028,-0.9907,146.4,96.3,0.547
40.02,31875.1,34581.4,-0.5259,-1.0329,146.4,96.3,0.547
40.04,31831.7,34581.9,-0.7092,-1.0317,146.4,96.3,0.547
40.06,31794.6,34616.2,-0.8657,-0.9471,146.4,96.3,0.547
40.08,31651.2,34556.3,-1.4709,-1.0949,146.4,96.3,0.547
40.1,31687.4,34384.9,-1.3182,-1.5175,146.4,96.3,0.547
40.12,31831.9,34601.7,-0.7081,-0.9831,146.4,96.3,0.547
40.14,31839.1,34840.2,-0.6781,-0.395,146.4,96.3,0.547
40.16,32007.8,35155.7,0.0341,0.3831,146.4,96.3,0.547
40.18,32338.2,35645.8,1.4285,1.5915,146.4,96.3,0.547
40.2,32406.4,35806.1,1.716,1.9866,146.4,96.3,0.547
40.22,32341.4,35684.0,1.4417,1.6855,146.4,96.3,0.547
40.24,32261.0,35575.3,1.1023,1.4177,146.4,96.3,0.547
40.26,32185.0,35340.7,0.782,0.8392,146.4,96.3,0.547
40.28,32098.1,35186.7,0.4151,0.4594,146.4,96.3,0.547
40.3,32083.6,35072.2,0.3539,0.1771,146.4,96.3,0.547
40.32,32066.2,35117.7,0.2806,0.2893,146.4,96.3,0.547
40.34,32090.3,34942.3,0.3822,-0.1431,146.4,96.3,0.547
40.36,31980.8,34953.7,-0.0798,-0.115,146.4,96.3,0.547
40.38,31827.6,34752.9,-0.7264,-0.6102,146.4,96.3,0.547
40.4,31813.3,34665.8,-0.7868,-0.825,146.4,96.3,0.547
40.42,31893.1,34677.3,-0.4502,-0.7966,146.4,96.3,0.547
40.44,31879.5,34667.6,-0.5073,-0.8204,146.4,96.3,0.547
40.46,31764.5,34540.9,-0.9926,-1.1329,146.4,96.3,0.547
40.48,31759.2,34485.4,-1.0152,-1.2696,146.4,96.3,0.547
40.5,31717.4,34464.5,-1.1917,-1.3212,146.4,96.3,0.547
40.52,31698.3,34551.4,-1.272,-1.1069,146.4,96.3,0.547
40.54,31852.2,34752.2,-0.6227,-0.6118,146.4,96.3,0.547
40.56,32082.0,35082.7,0.347,0.2031,146.4,96.3,0.547
40.58,32151.6,35426.3,0.6408,1.0502,146.4,96.3,0.547
40.6,32386.2,35664.8,1.6307,1.6382,146.4,96.3,0.547
40.62,32392.0,35783.8,1.6552,1.9316,146.4,96.3,0.547
40.64,32303.4,35621.0,1.2814,1.5304,146.4,96.3,0.547
40.66,32160.3,35373.8,0.6775,0.9209,146.4,96.3,0.547
40.68,32196.1,35197.8,0.8286,0.4869,146.4,96.3,0.547
40.7,32074.4,35135.1,0.3152,0.3323,146.4,96.3,0.547
40.72,31967.5,35185.2,-0.1362,0.4557,146.4,96.3,0.547
40.74,31962.5,34951.5,-0.1573,-0.1204,146.4,96.3,0.547
40.76,31903.1,34979.3,-0.4078,-0.0519,146.4,96.3,0.547
40.78,31939.4,34843.0,-0.2548,-0.3879,146.4,96.3,0.547
40.8,31843.2,34699.4,-0.6606,-0.742,146.4,96.3,0.547
40.82,31843.8,34670.2,-0.658,-0.814,146.4,96.3,0.547
40.84,31828.9,34726.1,-0.721,-0.6763,146.4,96.3,0.547
40.86,31781.6,34697.8,-0.9207,-0.7461,146.4,96.3,0.547
40.88,31819.0,34567.1,-0.7628,-1.0682,146.4,96.3,0.547
40.9,31688.9,34454.3,-1.3118,-1.3465,146.4,96.3,0.547
40.92,31741.9,34467.2,-1.0882,-1.3145,146.4,96.3,0.547
40.94,31849.8,34510.8,-0.6329,-1.2071,146.4,96.3,0.547
40.96,31924.0,34875.2,-0.3197,-0.3085,146.4,96.3,0.547
40.98,32274.6,35391.8,1.16,0.965,146.4,96.3,0.547
41.0,32303.9,35579.1,1.2834,1.427,146.4,96.3,0.547
41.02,32289.1,35755.3,1.221,1.8615,146.4,96.3,0.547
41.04,32350.7,35787.0,1.4809,1.9395,146.4,96.3,0.547
41.06,32309.9,35439.3,1.3091,1.0822,146.4,96.3,0.547
41.08,32191.2,35363.5,0.808,0.8955,146.4,96.3,0.547
41.1,32099.2,35153.0,0.4195,0.3763,146.4,96.3,0.547
41.12,32053.6,35176.5,0.2274,0.4342,146.4,96.3,0.547
41.14,31990.4,35063.5,-0.0396,0.1557,146.4,96.3,0.547
41.16,31959.2,35010.4,-0.1711,0.0246,146.4,96.3,0.547
41.18,31916.3,34864.6,-0.3522,-0.3347,146.4,96.3,0.547
41.2,31945.8,34832.5,-0.2276,-0.414,146.4,96.3,0.547
41.22,31883.7,34669.7,-0.4898,-0.8153,146.4,96.3,0.547
41.24,31799.4,34703.7,-0.8455,-0.7315,146.4,96.3,0.547
41.26,31835.9,34603.0,-0.6914,-0.9796,146.4,96.3,0.547
41.28,31862.2,34598.0,-0.5806,-0.9921,146.4,96.3,0.547
41.3,31764.4,34521.5,-0.993,-1.1808,146.4,96.3,0.547
41.32,31626.9,34478.6,-1.5734,-1.2866,146.4,96.3,0.547
41.34,31703.1,34510.0,-1.2517,-1.209,146.4,96.3,0.547
41.36,31810.3,34745.0,-0.7996,-0.6296,146.4,96.3,0.547
41.38,32069.3,35164.8,0.2935,0.4053,146.4,96.3,0.547
41.4,32216.6,35433.5,0.915,1.0679,146.4,96.3,0.547
41.42,32354.5,35716.9,1.4972,1.7667,146.4,96.3,0.547
41.44,32300.5,35852.7,1.2694,2.1016,146.4,96.3,0.547
41.46,32277.3,35558.8,1.1711,1.3768,146.4,96.3,0.547
41.48,32199.7,35399.1,0.8437,0.9831,146.4,96.3,0.547
41.5,32069.2,35263.9,0.293,0.6498,146.4,96.3,0.547
41.52,32037.4,35068.4,0.159,0.1677,146.4,96.3,0.547
41.54,32035.3,35075.7,0.1499,0.1857,146.4,96.3,0.547
41.56,32084.0,35006.7,0.3556,0.0156,146.4,96.3,0.547
41.58,31944.9,34908.3,-0.2313,-0.2269,146.4,96.3,0.547
41.6,31953.7,34793.7,-0.1943,-0.5097,146.4,96.3,0.547
41.62,31889.1,34737.2,-0.4669,-0.6489,146.4,96.3,0.547
41.64,31758.5,34637.1,-1.018,-0.8957,146.4,96.3,0.547
41.66,31946.2,34676.4,-0.2259,-0.7988,146.4,96.3,0.547
41.68,31864.8,34633.2,-0.5693,-0.9052,146.4,96.3,0.547
41.7,31649.6,34580.1,-1.4776,-1.0361,146.4,96.3,0.547
41.72,31730.0,34438.2,-1.1384,-1.3861,146.4,96.3,0.547
41.74,31675.4,34491.2,-1.3687,-1.2554,146.4,96.3,0.547
41.76,31751.2,34591.2,-1.0487,-1.0088,146.4,96.3,0.547
41.78,32000.4,34928.5,0.0027,-0.1773,146.4,96.3,0.547
41.8,32101.1,35313.6,0.4279,0.7722,146.4,96.3,0.547
41.82,32281.5,35614.2,1.1889,1.5135,146.4,96.3,0.547
41.84,32446.3,35729.2,1.8845,1.7971,146.4,96.3,0.547
41.86,32319.3,35686.9,1.3486,1.6928,146.4,96.3,0.547
41.88,32259.5,35516.7,1.0961,1.273,146.4,96.3,0.547
41.9,32157.3,35227.0,0.6649,0.5587,146.4,96.3,0.547
41.92,32084.0,35167.5,0.3557,0.412,146.4,96.3,0.547
41.94,32088.2,35061.2,0.3733,0.15,146.4,96.3,0.547
41.96,31940.5,35015.3,-0.2499,0.0368,146.4,96.3,0.547
41.98,31973.0,35002.0,-0.1129,0.0041,146.4,96.3,0.547
42.0,31906.3,34889.4,-0.3942,-0.2736,146.4,96.3,0.547
42.02,31852.5,34764.2,-0.6215,-0.5823,146.4,96.3,0.547
42.04,31814.6,34679.4,-0.7814,-0.7915,146.4,96.3,0.547
42.06,31746.3,34713.7,-1.0696,-0.7068,146.4,96.3,0.547
42.08,31809.4,34588.1,-0.8032,-1.0166,146.4,96.3,0.547
42.1,31773.5,34598.5,-0.9548,-0.9909,146.4,96.3,0.547
42.12,31774.3,34541.9,-0.9513,-1.1304,146.4,96.3,0.547
42.14,31676.7,34512.4,-1.3631,-1.203,146.4,96.3,0.547
42.16,31765.8,34563.6,-0.9872,-1.0768,146.4,96.3,0.547
42.18,31909.2,34776.5,-0.3822,-0.552,146.4,96.3,0.547
42.2,31978.0,35043.9,-0.0916,0.1073,146.4,96.3,0.547
42.22,32251.1,35422.5,1.0608,1.0408,146.4,96.3,0.547
42.24,32272.5,35646.5,1.1512,1.5932,146.4,96.3,0.547
42.26,32270.4,35746.4,1.1424,1.8394,146.4,96.3,0.547
42.28,32278.3,35568.1,1.1757,1.3997,146.4,96.3,0.547
42.3,32201.1,35429.3,0.8496,1.0575,146.4,96.3,0.547
42.32,32120.4,35155.0,0.5092,0.3813,146.4,96.3,0.547
42.34,32090.4,35216.0,0.3824,0.5318,146.4,96.3,0.547
42.36,32013.0,35095.5,0.0558,0.2346,146.4,96.3,0.547
42.38,32127.4,35022.4,0.5387,0.0543,146.4,96.3,0.547
42.4,31952.5,35006.2,-0.1995,0.0144,146.4,96.3,0.547
42.42,31988.6,34720.3,-0.0471,-0.6907,146.4,96.3,0.547
42.44,31849.5,34733.8,-0.6338,-0.6573,146.4,96.3,0.547
42.46,31799.5,34639.9,-0.8449,-0.8887,146.4,96.3,0.547
42.48,31847.6,34652.5,-0.6421,-0.8578,146.4,96.3,0.547
42.5,31850.2,34666.2,-0.6311,-0.8239,146.4,96.3,0.547
42.52,31771.6,34526.1,-0.9628,-1.1693,146.4,96.3,0.547
42.54,31732.5,34513.7,-1.1279,-1.2,146.4,96.3,0.547
42.56,31757.7,34457.7,-1.0215,-1.3379,146.4,96.3,0.547
42.58,31761.4,34616.0,-1.0058,-0.9476,146.4,96.3,0.547
42.6,32060.3,34936.0,0.2554,-0.1588,146.4,96.3,0.547
42.62,32140.8,35267.3,0.5954,0.6581,146.4,96.3,0.547
42.64,32256.1,35549.7,1.0817,1.3544,146.4,96.3,0.547
42.66,32448.9,35836.1,1.8954,2.0607,146.4,96.3,0.547
42.68,32245.4,35692.4,1.0366,1.7063,146.4,96.3,0.547
42.7,32219.3,35536.4,0.9265,1.3217,146.4,96.3,0.547
42.72,32083.9,35269.7,0.3551,0.6641,146.4,96.3,0.547
42.74,32184.6,35246.1,0.7803,0.6058,146.4,96.3,0.547
42.76,32133.4,35000.9,0.5641,0.0012,146.4,96.3,0.547
42.78,32043.9,35042.8,0.1865,0.1046,146.4,96.3,0.547
42.8,31946.6,34980.1,-0.2242,-0.05,146.4,96.3,0.547
42.82,31897.2,34839.2,-0.4328,-0.3974,146.4,96.3,0.547
42.84,31915.3,34799.0,-0.3564,-0.4966,146.4,96.3,0.547
42.86,31901.9,34681.5,-0.4131,-0.7863,146.4,96.3,0.547
42.88,31733.7,34713.0,-1.1228,-0.7084,146.4,96.3,0.547
42.9,31936.8,34702.7,-0.2656,-0.7339,146.4,96.3,0.547
42.92,31755.7,34592.5,-1.0297,-1.0056,146.4,96.3,0.547
42.94,31806.0,34546.7,-0.8177,-1.1187,146.4,96.3,0.547
42.96,31774.4,34423.4,-0.9511,-1.4227,146.4,96.3,0.547
42.98,31723.1,34397.4,-1.1676,-1.4866,146.4,96.3,0.547
43.0,31856.8,34780.4,-0.6034,-0.5423,146.4,96.3,0.547
43.02,31967.4,35069.4,-0.1363,0.1703,146.4,96.3,0.547
43.04,32268.8,35497.6,1.1355,1.2259,146.4,96.3,0.547
43.06,32292.4,35686.5,1.235,1.6917,146.4,96.3,0.547
43.08,32458.4,35738.1,1.9355,1.819,146.4,96.3,0.547
43.1,32325.6,35584.4,1.3752,1.44,146.4,96.3,0.547
43.12,32179.8,35499.4,0.76,1.2304,146.4,96.3,0.547
43.14,32137.1,35211.0,0.5795,0.5193,146.4,96.3,0.547
43.16,32080.3,35126.1,0.3398,0.31,146.4,96.3,0.547
43.18,32017.3,35062.1,0.0741,0.1521,146.4,96.3,0.547
43.2,32015.6,35055.0,0.0671,0.1346,146.4,96.3,0.547
43.22,31938.0,34883.4,-0.2607,-0.2884,146.4,96.3,0.547
43.24,31920.4,34776.2,-0.335,-0.5528,146.4,96.3,0.547
43.26,31922.8,34725.9,-0.3247,-0.6768,146.4,96.3,0.547
43.28,31862.3,34674.9,-0.5799,-0.8025,146.4,96.3,0.547
43.3,31676.8,34657.5,-1.3628,-0.8454,146.4,96.3,0.547
43.32,31856.5,34616.9,-0.6046,-0.9456,146.4,96.3,0.547
43.34,31656.3,34459.5,-1.4493,-1.3335,146.4,96.3,0.547
43.36,31659.3,34463.8,-1.4366,-1.323,146.4,96.3,0.547
43.38,31734.3,34388.6,-1.1204,-1.5084,146.4,96.3,0.547
43.4,31784.3,34600.3,-0.909,-0.9864,146.4,96.3,0.547
43.42,32028.0,34953.9,0.1191,-0.1146,146.4,96.3,0.547
43.44,32133.3,35323.8,0.5636,0.7975,146.4,96.3,0.547
43.46,32378.0,35618.7,1.5961,1.5246,146.4,96.3,0.547
43.48,32311.1,35721.0,1.3138,1.777,146.4,96.3,0.547
43.5,32348.6,35681.7,1.4724,1.6799,146.4,96.3,0.547
43.52,32290.2,35604.7,1.2259,1.49,146.4,96.3,0.547
43.54,32171.5,35269.7,0.7248,0.664,146.4,96.3,0.547
43.56,32117.7,35171.1,0.4976,0.4209,146.4,96.3,0.547
43.58,32077.3,35044.9,0.3273,0.1099,146.4,96.3,0.547
43.6,32071.9,35020.5,0.3047,0.0496,146.4,96.3,0.547
43.62,31992.2,35065.7,-0.0318,0.1612,146.4,96.3,0.547
43.64,31928.7,34885.1,-0.2997,-0.2842,146.4,96.3,0.547
43.66,31861.3,34760.0,-0.5844,-0.5927,146.4,96.3,0.547
43.68,31895.7,34638.0,-0.439,-0.8933,146.4,96.3,0.547
43.7,31748.2,34667.7,-1.0614,-0.8201,146.4,96.3,0.547
43.72,31852.3,34658.3,-0.6224,-0.8433,146.4,96.3,0.547
43.74,31755.2,34623.1,-1.0321,-0.9302,146.4,96.3,0.547
43.76,31716.6,34387.0,-1.195,-1.5123,146.4,96.3,0.547
43.78,31572.4,34353.5,-1.8036,-1.5949,146.4,96.3,0.547
43.8,31715.9,34531.8,-1.1977,-1.1554,146.4,96.3,0.547
43.82,31897.6,34699.3,-0.4311,-0.7423,146.4,96.3,0.547
43.84,32049.4,35202.3,0.2097,0.4978,146.4,96.3,0.547
43.86,32250.1,35507.2,1.0566,1.2497,146.4,96.3,0.547
43.88,32377.8,35803.2,1.5953,1.9796,146.4,96.3,0.547
43.9,32373.8,35727.9,1.5786,1.7938,146.4,96.3,0.547
43.92,32290.3,35607.8,1.226,1.4978,146.4,96.3,0.547
43.94,32218.2,35403.0,0.9217,0.9929,146.4,96.3,0.547
43.96,32050.7,35186.6,0.2151,0.4591,146.4,96.3,0.547
43.98,32093.5,35003.4,0.3956,0.0075,146.4,96.3,0.547
44.0,32062.6,34972.9,0.2654,-0.0678,146.4,96.3,0.547
44.02,31984.2,34954.0,-0.0655,-0.1144,146.4,96.3,0.547
44.04,31895.2,34879.5,-0.4412,-0.2981,146.4,96.3,0.547
44.06,31895.2,34714.4,-0.441,-0.705,146.4,96.3,0.547
44.08,31912.4,34730.5,-0.3685,-0.6654,146.4,96.3,0.547
44.1,31840.4,34679.5,-0.6725,-0.7911,146.4,96.3,0.547
44.12,31891.5,34768.6,-0.4566,-0.5713,146.4,96.3,0.547
44.14,31779.6,34706.9,-0.9292,-0.7235,146.4,96.3,0.547
44.16,31777.8,34679.5,-0.9367,-0.7912,146.4,96.3,0.547
44.18,31792.5,34520.0,-0.8747,-1.1843,146.4,96.3,0.547
44.2,31741.3,34484.2,-1.0905,-1.2727,146.4,96.3,0.547
44.22,31830.8,34627.9,-0.713,-0.9183,146.4,96.3,0.547
44.24,31848.1,35001.5,-0.6398,0.0029,146.4,96.3,0.547
44.26,32208.4,35305.1,0.8804,0.7514,146.4,96.3,0.547
44.28,32362.3,35579.8,1.53,1.4287,146.4,96.3,0.547
44.3,32421.5,35775.7,1.7799,1.9116,146.4,96.3,0.547
44.32,32335.8,35669.2,1.4181,1.6492,146.4,96.3,0.547
44.34,32198.7,35565.5,0.8397,1.3935,146.4,96.3,0.547
44.36,32119.3,35319.4,0.5044,0.7867,146.4,96.3,0.547
44.38,32010.6,35186.8,0.0458,0.4597,146.4,96.3,0.547
44.4,32106.8,35128.1,0.4518,0.315,146.4,96.3,0.547
44.42,32106.9,35005.5,0.4522,0.0126,146.4,96.3,0.547
44.44,31948.6,35006.6,-0.216,0.0153,146.4,96.3,0.547
44.46,31939.0,34819.6,-0.2564,-0.4456,146.4,96.3,0.547
44.48,31884.7,34750.9,-0.4856,-0.615,146.4,96.3,0.547
44.5,31857.3,34719.1,-0.601,-0.6936,146.4,96.3,0.547
44.52,31886.3,34645.3,-0.4786,-0.8754,146.4,96.3,0.547
44.54,31825.4,34731.8,-0.7357,-0.6622,146.4,96.3,0.547
44.56,31772.1,34638.6,-0.9606,-0.8919,146.4,96.3,0.547
44.58,31623.4,34450.8,-1.5882,-1.3551,146.4,96.3,0.547
44.6,31718.6,34389.3,-1.1865,-1.5067,146.4,96.3,0.547
44.62,31687.0,34508.2,-1.3199,-1.2136,146.4,96.3,0.547
44.64,31919.1,34718.5,-0.3402,-0.6949,146.4,96.3,0.547
44.66,31985.2,35080.2,-0.0613,0.1969,146.4,96.3,0.547
44.68,32195.1,35462.2,0.8246,1.1386,146.4,96.3,0.547
44.7,32362.8,35676.1,1.5322,1.6661,146.4,96.3,0.547
44.72,32386.2,35729.8,1.6309,1.7985,146.4,96.3,0.547
44.74,32242.1,35602.2,1.0227,1.4838,146.4,96.3,0.547
44.76,32237.6,35375.4,1.0036,0.9248,146.4,96.3,0.547
44.78,32118.9,35261.3,0.5027,0.6434,146.4,96.3,0.547
44.8,32061.5,35144.8,0.2606,0.3561,146.4,96.3,0.547
44.82,32045.1,35052.4,0.1916,0.1284,146.4,96.3,0.547
44.84,32049.1,35009.8,0.2081,0.0232,146.4,96.3,0.547
44.86,31893.4,34896.7,-0.4488,-0.2556,146.4,96.3,0.547
