timestamp,raw_red,raw_ir,filtered_red,filtered_ir,heart_rate,spo2,ac_dc_ratio
0.0,32109.2,35145.0,0.5909,0.3586,142.7,97.9,0.482
0.02,32243.9,35563.0,1.3141,1.3877,142.7,97.9,0.482
0.04,32330.7,35620.4,1.7803,1.5291,142.7,97.9,0.482
0.06,32283.1,35685.0,1.5245,1.6881,142.7,97.9,0.482
0.08,32302.6,35658.5,1.6296,1.6228,142.7,97.9,0.482
0.1,32147.8,35384.0,0.7984,0.947,142.7,97.9,0.482
0.12,32013.1,35164.3,0.0748,0.406,142.7,97.9,0.482
0.14,32038.2,35129.0,0.2098,0.3192,142.7,97.9,0.482
0.16,32013.4,35107.9,0.0766,0.2672,142.7,97.9,0.482
0.18,31945.3,34997.4,-0.2891,-0.0048,142.7,97.9,0.482
0.2,31989.5,35008.9,-0.0521,0.0235,142.7,97.9,0.482
0.22,31876.5,34877.0,-0.6586,-0.3014,142.7,97.9,0.482
0.24,31855.6,34651.0,-0.7709,-0.8577,142.7,97.9,0.482
0.26,31868.1,34684.9,-0.7038,-0.7744,142.7,97.9,0.482
0.28,31891.0,34708.1,-0.5807,-0.717,142.7,97.9,0.482
0.3,31914.6,34696.6,-0.4539,-0.7454,142.7,97.9,0.482
0.32,31898.5,34538.2,-0.5404,-1.1354,142.7,97.9,0.482
0.34,31762.4,34476.4,-1.2716,-1.2876,142.7,97.9,0.482
0.36,31750.7,34454.9,-1.3343,-1.3406,142.7,97.9,0.482
0.38,31803.6,34544.1,-1.0503,-1.121,142.7,97.9,0.482
0.4,32014.3,34814.6,0.0811,-0.4549,142.7,97.9,0.482
0.42,32048.1,35096.3,0.2626,0.2386,142.7,97.9,0.482
0.44,32243.3,35499.7,1.3111,1.2318,142.7,97.9,0.482
0.46,32272.4,35738.5,1.4672,1.8199,142.7,97.9,0.482
0.48,32333.1,35753.4,1.793,1.8565,142.7,97.9,0.482
0.5,32361.6,35620.4,1.9464,1.529,142.7,97.9,0.482
0.52,32172.7,35365.7,0.932,0.902,142.7,97.9,0.482
0.54,32173.9,35199.3,0.9385,0.4923,142.7,97.9,0.482
0.56,32171.2,35175.7,0.9236,0.4343,142.7,97.9,0.482
0.58,32017.7,35114.9,0.0994,0.2844,142.7,97.9,0.482
0.6,32059.6,35127.6,0.3247,0.3159,142.7,97.9,0.482
0.62,31955.3,34953.2,-0.2357,-0.1137,142.7,97.9,0.482
0.64,31852.1,34812.2,-0.7895,-0.4608,142.7,97.9,0.482
0.66,31851.3,34783.9,-0.794,-0.5305,142.7,97.9,0.482
0.68,31896.2,34694.6,-0.5528,-0.7504,142.7,97.9,0.482
0.7,31969.7,34586.9,-0.1584,-1.0155,142.7,97.9,0.482
0.72,31762.1,34656.7,-1.2727,-0.8438,142.7,97.9,0.482
0.74,31781.7,34494.3,-1.1678,-1.2435,142.7,97.9,0.482
0.76,31715.8,34455.6,-1.5216,-1.3388,142.7,97.9,0.482
0.78,31785.7,34414.8,-1.1464,-1.4392,142.7,97.9,0.482
0.8,31693.2,34565.7,-1.6428,-1.0677,142.7,97.9,0.482
0.82,31887.9,34764.4,-0.5977,-0.5786,142.7,97.9,0.482
0.84,32138.0,35132.9,0.7454,0.3288,142.7,97.9,0.482
0.86,32260.2,35521.9,1.4015,1.2866,142.7,97.9,0.482
0.88,32261.5,35739.9,1.4089,1.8233,142.7,97.9,0.482
0.9,32307.2,35767.0,1.6543,1.89,142.7,97.9,0.482
0.92,32275.8,35623.2,1.4856,1.5359,142.7,97.9,0.482
0.94,32197.4,35395.5,1.0645,0.9754,142.7,97.9,0.482
0.96,32113.1,35222.5,0.6117,0.5494,142.7,97.9,0.482
0.98,32029.4,35147.1,0.1622,0.3638,142.7,97.9,0.482
1.0,31985.6,35134.9,-0.0729,0.3336,142.7,97.9,0.482
1.02,32022.9,34998.0,0.1276,-0.0033,142.7,97.9,0.482
1.04,32049.1,34913.8,0.268,-0.2106,142.7,97.9,0.482
1.06,31939.2,34834.2,-0.3223,-0.4067,142.7,97.9,0.482
1.08,31862.6,34865.2,-0.7333,-0.3303,142.7,97.9,0.482
1.1,31836.3,34706.6,-0.8743,-0.7208,142.7,97.9,0.482
1.12,31891.9,34603.6,-0.5763,-0.9744,142.7,97.9,0.482
1.14,31879.2,34700.4,-0.6444,-0.7362,142.7,97.9,0.482
1.16,31853.9,34644.7,-0.7802,-0.8733,142.7,97.9,0.482
1.18,31891.0,34533.0,-0.5807,-1.1481,142.7,97.9,0.482
1.2,31751.7,34352.0,-1.3291,-1.5939,142.7,97.9,0.482
1.22,31837.2,34404.7,-0.8695,-1.4641,142.7,97.9,0.482
1.24,31807.9,34917.2,-1.0269,-0.2023,142.7,97.9,0.482
1.26,32029.7,35161.8,0.1638,0.3999,142.7,97.9,0.482
1.28,32212.9,35477.3,1.1476,1.1767,142.7,97.9,0.482
1.3,32318.6,35641.4,1.7153,1.5807,142.7,97.9,0.482
1.32,32407.6,35695.7,2.1931,1.7144,142.7,97.9,0.482
1.34,32228.6,35688.5,1.2322,1.6968,142.7,97.9,0.482
1.36,32196.0,35366.6,1.0568,0.9043,142.7,97.9,0.482
1.38,32051.1,35213.8,0.2789,0.5279,142.7,97.9,0.482
1.4,32143.8,35042.0,0.7769,0.105,142.7,97.9,0.482
1.42,31986.0,35132.8,-0.0708,0.3285,142.7,97.9,0.482
1.44,32050.8,35072.4,0.2774,0.1797,142.7,97.9,0.482
1.46,31918.1,34868.6,-0.4355,-0.322,142.7,97.9,0.482
1.48,31907.1,34849.8,-0.4945,-0.3683,142.7,97.9,0.482
1.5,31913.4,34714.6,-0.4608,-0.7012,142.7,97.9,0.482
1.52,31836.3,34734.4,-0.8745,-0.6524,142.7,97.9,0.482
1.54,31938.3,34573.3,-0.3266,-1.0489,142.7,97.9,0.482
1.56,31876.5,34690.7,-0.6586,-0.7601,142.7,97.9,0.482
1.58,31744.8,34542.1,-1.3661,-1.1259,142.7,97.9,0.482
1.6,31677.0,34494.9,-1.7302,-1.2421,142.7,97.9,0.482
1.62,31808.2,34508.9,-1.0255,-1.2076,142.7,97.9,0.482
1.64,31856.6,34443.0,-0.7658,-1.3697,142.7,97.9,0.482
1.66,31895.8,34722.0,-0.5551,-0.6828,142.7,97.9,0.482
1.68,32068.4,35177.4,0.3719,0.4383,142.7,97.9,0.482
1.7,32237.7,35496.5,1.2812,1.2241,142.7,97.9,0.482
1.72,32354.1,35665.9,1.9058,1.6412,142.7,97.9,0.482
1.74,32303.6,35714.8,1.635,1.7615,142.7,97.9,0.482
1.76,32295.8,35680.0,1.5927,1.6758,142.7,97.9,0.482
1.78,32178.7,35431.5,0.9643,1.064,142.7,97.9,0.482
1.8,32118.2,35291.3,0.639,0.7187,142.7,97.9,0.482
1.82,32108.9,35167.3,0.5894,0.4134,142.7,97.9,0.482
1.84,32040.7,35087.7,0.2231,0.2175,142.7,97.9,0.482
1.86,32044.4,35016.7,0.243,0.0427,142.7,97.9,0.482
1.88,31926.3,34906.7,-0.3914,-0.2281,142.7,97.9,0.482
1.9,31889.5,34744.4,-0.589,-0.6278,142.7,97.9,0.482
1.92,31879.6,34760.1,-0.642,-0.5892,142.7,97.9,0.482
1.94,31912.2,34679.9,-0.4672,-0.7865,142.7,97.9,0.482
1.96,31865.1,34660.4,-0.7201,-0.8346,142.7,97.9,0.482
1.98,31918.7,34624.2,-0.4322,-0.9237,142.7,97.9,0.482
2.0,31953.3,34551.4,-0.2462,-1.103,142.7,97.9,0.482
2.02,31746.2,34550.3,-1.3585,-1.1056,142.7,97.9,0.482
2.04,31713.0,34424.4,-1.5365,-1.4156,142.7,97.9,0.482
2.06,31839.7,34564.3,-0.8561,-1.0712,142.7,97.9,0.482
2.08,31944.9,34718.7,-0.2915,-0.691,142.7,97.9,0.482
2.1,31992.7,35199.3,-0.0345,0.4922,142.7,97.9,0.482
2.12,32208.8,35448.9,1.126,1.1069,142.7,97.9,0.482
2.14,32340.6,35738.7,1.8335,1.8205,142.7,97.9,0.482
2.16,32337.6,35840.6,1.8173,2.0712,142.7,97.9,0.482
2.18,32302.3,35627.2,1.6277,1.5458,142.7,97.9,0.482
2.2,32141.4,35366.0,0.7636,0.9028,142.7,97.9,0.482
2.22,32141.3,35240.4,0.7634,0.5936,142.7,97.9,0.482
2.24,32080.3,35181.0,0.4359,0.4472,142.7,97.9,0.482
2.26,32078.8,35167.5,0.4275,0.4139,142.7,97.9,0.482
2.28,32000.3,35071.6,0.006,0.1778,142.7,97.9,0.482
2.3,31938.8,34889.2,-0.3243,-0.2712,142.7,97.9,0.482
2.32,31926.6,34889.3,-0.3898,-0.271,142.7,97.9,0.482
2.34,31988.3,34699.1,-0.0582,-0.7392,142.7,97.9,0.482
2.36,31833.2,34669.6,-0.8914,-0.812,142.7,97.9,0.482
2.38,31833.5,34616.1,-0.8894,-0.9437,142.7,97.9,0.482
2.4,31854.3,34626.3,-0.7777,-0.9185,142.7,97.9,0.482
2.42,31817.0,34623.0,-0.9783,-0.9267,142.7,97.9,0.482
2.44,31802.8,34485.9,-1.0545,-1.2642,142.7,97.9,0.482
2.46,31786.2,34455.5,-1.1438,-1.3391,142.7,97.9,0.482
2.48,31776.8,34468.8,-1.1941,-1.3062,142.7,97.9,0.482
2.5,31903.0,34788.6,-0.5164,-0.519,142.7,97.9,0.482
2.52,32031.4,35120.5,0.1732,0.2983,142.7,97.9,0.482
2.54,32301.9,35430.0,1.6257,1.0603,142.7,97.9,0.482
2.56,32284.0,35667.2,1.5296,1.6442,142.7,97.9,0.482
2.58,32397.3,35800.7,2.1377,1.9731,142.7,97.9,0.482
2.6,32306.4,35637.3,1.6499,1.5708,142.7,97.9,0.482
2.62,32241.8,35474.2,1.303,1.1691,142.7,97.9,0.482
2.64,32082.3,35249.7,0.4466,0.6164,142.7,97.9,0.482
2.66,32095.5,35247.1,0.5173,0.6099,142.7,97.9,0.482
2.68,32125.4,35093.0,0.6781,0.2305,142.7,97.9,0.482
2.7,31990.4,35035.8,-0.0469,0.0896,142.7,97.9,0.482
2.72,32018.1,34929.3,0.1018,-0.1724,142.7,97.9,0.482
2.74,31907.1,34851.6,-0.4941,-0.3637,142.7,97.9,0.482
2.76,31789.2,34812.1,-1.1276,-0.4611,142.7,97.9,0.482
2.78,31825.5,34716.3,-0.9327,-0.6969,142.7,97.9,0.482
2.8,31922.7,34664.7,-0.4106,-0.8239,142.7,97.9,0.482
2.82,31862.5,34629.4,-0.7338,-0.911,142.7,97.9,0.482
2.84,31853.0,34552.1,-0.7846,-1.1013,142.7,97.9,0.482
2.86,31836.0,34435.3,-0.8764,-1.3887,142.7,97.9,0.482
2.88,31699.0,34377.0,-1.6121,-1.5323,142.7,97.9,0.482
2.9,31749.1,34475.3,-1.3426,-1.2903,142.7,97.9,0.482
2.92,31908.3,34827.7,-0.4877,-0.4226,142.7,97.9,0.482
2.94,31960.5,35225.6,-0.2075,0.5569,142.7,97.9,0.482
2.96,32228.3,35504.2,1.2305,1.2431,142.7,97.9,0.482
2.98,32303.8,35723.6,1.6358,1.7832,142.7,97.9,0.482
3.0,32381.0,35728.6,2.0505,1.7954,142.7,97.9,0.482
3.02,32311.7,35616.7,1.6785,1.5201,142.7,97.9,0.482
3.04,32270.9,35466.8,1.4594,1.151,142.7,97.9,0.482
3.06,32132.4,35259.1,0.7155,0.6395,142.7,97.9,0.482
3.08,32123.5,35183.3,0.6678,0.4528,142.7,97.9,0.482
3.1,32112.4,35102.5,0.608,0.254,142.7,97.9,0.482
3.12,31996.3,34997.8,-0.0155,-0.0038,142.7,97.9,0.482
3.14,31940.0,34966.7,-0.3178,-0.0804,142.7,97.9,0.482
3.16,32006.8,34832.1,0.041,-0.4118,142.7,97.9,0.482
3.18,31854.6,34702.3,-0.7765,-0.7315,142.7,97.9,0.482
3.2,31846.5,34697.7,-0.8197,-0.7426,142.7,97.9,0.482
3.22,31839.2,34698.3,-0.859,-0.7412,142.7,97.9,0.482
3.24,31806.7,34571.6,-1.0337,-1.0533,142.7,97.9,0.482
3.26,31924.2,34683.4,-0.4025,-0.7779,142.7,97.9,0.482
3.28,31797.2,34581.9,-1.0846,-1.0279,142.7,97.9,0.482
3.3,31741.0,34481.7,-1.3862,-1.2744,142.7,97.9,0.482
3.32,31858.8,34504.3,-0.7537,-1.2188,142.7,97.9,0.482
3.34,31903.3,34722.4,-0.5147,-0.682,142.7,97.9,0.482
3.36,32101.1,34998.5,0.5474,-0.002,142.7,97.9,0.482
3.38,32213.6,35407.4,1.1514,1.0046,142.7,97.9,0.482
3.4,32314.1,35692.7,1.6913,1.707,142.7,97.9,0.482
3.42,32402.8,35743.2,2.1674,1.8315,142.7,97.9,0.482
3.44,32350.5,35661.8,1.8866,1.631,142.7,97.9,0.482
3.46,32192.6,35407.9,1.0389,1.006,142.7,97.9,0.482
3.48,32140.4,35261.1,0.7584,0.6444,142.7,97.9,0.482
3.5,32020.6,35137.3,0.1151,0.3395,142.7,97.9,0.482
3.52,32077.2,35050.1,0.4192,0.1249,142.7,97.9,0.482
3.54,32022.7,35010.7,0.1265,0.0278,142.7,97.9,0.482
3.56,31981.7,34964.2,-0.0939,-0.0866,142.7,97.9,0.482
3.58,31847.9,34811.6,-0.8121,-0.4623,142.7,97.9,0.482
3.6,31904.1,34724.2,-0.5105,-0.6774,142.7,97.9,0.482
3.62,31855.6,34728.5,-0.7708,-0.6668,142.7,97.9,0.482
3.64,31752.3,34638.5,-1.3254,-0.8885,142.7,97.9,0.482
3.66,31903.2,34656.1,-0.5151,-0.8451,142.7,97.9,0.482
3.68,31759.3,34555.4,-1.288,-1.093,142.7,97.9,0.482
3.7,31784.4,34460.2,-1.1531,-1.3276,142.7,97.9,0.482
3.72,31835.0,34534.1,-0.8815,-1.1455,142.7,97.9,0.482
3.74,31814.4,34467.0,-0.9921,-1.3107,142.7,97.9,0.482
3.76,31951.8,34781.4,-0.2542,-0.5365,142.7,97.9,0.482
3.78,31989.5,35062.1,-0.0517,0.1545,142.7,97.9,0.482
3.8,32287.2,35423.9,1.5469,1.0453,142.7,97.9,0.482
3.82,32302.6,35664.8,1.6295,1.6383,142.7,97.9,0.482
3.84,32343.1,35710.3,1.847,1.7505,142.7,97.9,0.482
3.86,32357.1,35598.4,1.9219,1.4749,142.7,97.9,0.482
3.88,32264.3,35514.1,1.4238,1.2675,142.7,97.9,0.482
3.9,32198.5,35306.1,1.0702,0.7553,142.7,97.9,0.482
3.92,32081.5,35187.5,0.442,0.4631,142.7,97.9,0.482
3.94,32096.6,35098.0,0.523,0.2428,142.7,97.9,0.482
3.96,32023.4,35005.1,0.1303,0.0141,142.7,97.9,0.482
3.98,32056.3,34964.3,0.3066,-0.0863,142.7,97.9,0.482
4.0,31897.9,34881.0,-0.5438,-0.2915,142.7,97.9,0.482
4.02,31960.1,34697.2,-0.2098,-0.7439,142.7,97.9,0.482
4.04,31886.5,34717.7,-0.6048,-0.6936,142.7,97.9,0.482
4.06,31865.2,34696.3,-0.7192,-0.7463,142.7,97.9,0.482
4.08,31882.0,34647.6,-0.6289,-0.866,142.7,97.9,0.482
4.1,31787.1,34584.5,-1.1385,-1.0215,142.7,97.9,0.482
4.12,31878.3,34505.9,-0.6493,-1.2149,142.7,97.9,0.482
4.14,31714.5,34440.6,-1.5284,-1.3757,142.7,97.9,0.482
4.16,31882.4,34441.1,-0.6268,-1.3745,142.7,97.9,0.482
4.18,31775.1,34713.5,-1.2029,-0.7039,142.7,97.9,0.482
4.2,32096.2,35018.6,0.5211,0.0473,142.7,97.9,0.482
4.22,32092.4,35412.3,0.5005,1.0167,142.7,97.9,0.482
4.24,32350.9,35746.8,1.8889,1.8402,142.7,97.9,0.482
4.26,32316.4,35758.2,1.7035,1.8684,142.7,97.9,0.482
4.28,32327.8,35660.4,1.7646,1.6274,142.7,97.9,0.482
4.3,32139.5,35495.9,0.7537,1.2225,142.7,97.9,0.482
4.32,32114.3,35360.1,0.6184,0.8882,142.7,97.9,0.482
4.34,32123.5,35177.6,0.6674,0.4389,142.7,97.9,0.482
4.36,32004.1,35157.1,0.0267,0.3884,142.7,97.9,0.482
4.38,32008.7,35092.5,0.051,0.2293,142.7,97.9,0.482
4.4,32028.7,34879.5,0.1585,-0.2951,142.7,97.9,0.482
4.42,31950.7,34825.6,-0.2601,-0.4278,142.7,97.9,0.482
4.44,31887.0,34815.8,-0.6021,-0.4519,142.7,97.9,0.482
4.46,31874.2,34649.3,-0.6711,-0.8618,142.7,97.9,0.482
4.48,32006.7,34670.8,0.0406,-0.8089,142.7,97.9,0.482
4.5,31908.5,34659.6,-0.4868,-0.8366,142.7,97.9,0.482
4.52,31823.0,34658.6,-0.9461,-0.8389,142.7,97.9,0.482
4.54,31768.7,34545.2,-1.2373,-1.1183,142.7,97.9,0.482
4.56,31799.4,34413.2,-1.0725,-1.4431,142.7,97.9,0.482
4.58,31786.0,34569.5,-1.1446,-1.0583,142.7,97.9,0.482
4.6,31799.2,34731.5,-1.0736,-0.6594,142.7,97.9,0.482
4.62,31930.7,35106.9,-0.3674,0.2647,142.7,97.9,0.482
4.64,32241.6,35317.1,1.302,0.7823,142.7,97.9,0.482
4.66,32255.3,35710.9,1.3753,1.7518,142.7,97.9,0.482
4.68,32325.3,35737.4,1.7513,1.8171,142.7,97.9,0.482
4.7,32302.8,35701.2,1.6307,1.7279,142.7,97.9,0.482
4.72,32184.2,35480.3,0.9938,1.184,142.7,97.9,0.482
4.74,32135.5,35280.5,0.7321,0.6921,142.7,97.9,0.482
4.76,32235.3,35152.9,1.268,0.378,142.7,97.9,0.482
4.78,32023.3,35112.0,0.1296,0.2773,142.7,97.9,0.482
4.8,32057.0,35141.4,0.3108,0.3497,142.7,97.9,0.482
4.82,31971.1,34957.7,-0.1507,-0.1026,142.7,97.9,0.482
4.84,31923.0,34920.7,-0.4089,-0.1936,142.7,97.9,0.482
4.86,31941.4,34719.0,-0.3103,-0.6902,142.7,97.9,0.482
4.88,31841.4,34755.0,-0.8473,-0.6017,142.7,97.9,0.482
4.9,31775.2,34600.8,-1.2028,-0.9813,142.7,97.9,0.482
4.92,31757.4,34746.4,-1.298,-0.6228,142.7,97.9,0.482
4.94,31779.4,34619.0,-1.1799,-0.9365,142.7,97.9,0.482
4.96,31752.9,34553.2,-1.3225,-1.0984,142.7,97.9,0.482
4.98,31746.2,34287.6,-1.3584,-1.7525,142.7,97.9,0.482
5.0,31798.4,34528.0,-1.0779,-1.1606,142.7,97.9,0.482
5.02,31855.6,34800.7,-0.771,-0.4891,142.7,97.9,0.482
5.04,32047.2,35014.3,0.2579,0.0368,142.7,97.9,0.482
5.06,32201.8,35378.0,1.088,0.9322,142.7,97.9,0.482
5.08,32307.5,35700.1,1.6556,1.7254,142.7,97.9,0.482
5.1,32308.4,35798.8,1.6605,1.9683,142.7,97.9,0.482
5.12,32404.9,35648.2,2.1786,1.5975,142.7,97.9,0.482
5.14,32206.0,35574.4,1.1106,1.4159,142.7,97.9,0.482
5.16,32157.0,35236.4,0.8475,0.5835,142.7,97.9,0.482
5.18,32110.2,35205.5,0.596,0.5075,142.7,97.9,0.482
5.2,31994.4,35085.9,-0.0257,0.2131,142.7,97.9,0.482
5.22,32042.2,34988.6,0.2313,-0.0266,142.7,97.9,0.482
5.24,31956.2,34943.3,-0.2307,-0.1381,142.7,97.9,0.482
5.26,31863.8,34848.8,-0.727,-0.3706,142.7,97.9,0.482
5.28,31823.8,34800.0,-0.9418,-0.491,142.7,97.9,0.482
5.3,31868.1,34653.3,-0.7039,-0.8522,142.7,97.9,0.482
5.32,31852.1,34649.6,-0.7896,-0.8612,142.7,97.9,0.482
5.34,31818.9,34621.3,-0.968,-0.9309,142.7,97.9,0.482
5.36,31769.1,34582.4,-1.2352,-1.0265,142.7,97.9,0.482
5.38,31749.0,34485.1,-1.3431,-1.2662,142.7,97.9,0.482
5.4,31674.9,34425.8,-1.7412,-1.4122,142.7,97.9,0.482
5.42,31709.9,34440.9,-1.5534,-1.3749,142.7,97.9,0.482
5.44,31836.2,34665.2,-0.8753,-0.8227,142.7,97.9,0.482
5.46,32032.2,35004.2,0.1773,0.0119,142.7,97.9,0.482
5.48,32120.5,35503.8,0.6515,1.2419,142.7,97.9,0.482
5.5,32296.4,35759.3,1.5964,1.8711,142.7,97.9,0.482
5.52,32360.1,35808.4,1.9384,1.9919,142.7,97.9,0.482
5.54,32287.3,35655.6,1.5474,1.6156,142.7,97.9,0.482
5.56,32177.7,35422.9,0.9588,1.0428,142.7,97.9,0.482
5.58,32208.3,35279.5,1.1232,0.6896,142.7,97.9,0.482
5.6,32082.9,35191.6,0.4497,0.4732,142.7,97.9,0.482
5.62,32021.0,35174.7,0.1171,0.4317,142.7,97.9,0.482
5.64,32034.3,34972.7,0.1888,-0.0655,142.7,97.9,0.482
5.66,31985.0,34987.8,-0.0762,-0.0284,142.7,97.9,0.482
5.68,31880.4,34855.9,-0.6378,-0.3532,142.7,97.9,0.482
5.7,31939.5,34726.2,-0.3206,-0.6725,142.7,97.9,0.482
5.72,31925.9,34689.1,-0.3936,-0.764,142.7,97.9,0.482
5.74,31845.5,34667.6,-0.8251,-0.8168,142.7,97.9,0.482
5.76,31857.6,34619.3,-0.76,-0.9357,142.7,97.9,0.482
5.78,31764.1,34625.9,-1.2622,-0.9194,142.7,97.9,0.482
5.8,31734.4,34572.1,-1.4216,-1.0521,142.7,97.9,0.482
5.82,31709.6,34513.6,-1.5548,-1.1961,142.7,97.9,0.482
5.84,31846.0,34410.3,-0.8227,-1.4504,142.7,97.9,0.482
5.86,31880.5,34702.0,-0.637,-0.7322,142.7,97.9,0.482
5.88,32037.3,34967.8,0.205,-0.0777,142.7,97.9,0.482
5.9,32159.6,35375.3,0.8614,0.9257,142.7,97.9,0.482
5.92,32287.4,35659.7,1.5478,1.6259,142.7,97.9,0.482
5.94,32356.9,35720.2,1.9209,1.7747,142.7,97.9,0.482
5.96,32276.6,35730.4,1.49,1.8,142.7,97.9,0.482
5.98,32237.6,35516.7,1.2805,1.2738,142.7,97.9,0.482
6.0,32119.3,35264.3,0.6451,0.6523,142.7,97.9,0.482
6.02,32041.7,35160.3,0.2282,0.3962,142.7,97.9,0.482
6.04,32075.7,35071.9,0.4111,0.1785,142.7,97.9,0.482
6.06,32007.4,35036.1,0.0442,0.0906,142.7,97.9,0.482
6.08,32043.1,35043.7,0.2359,0.1093,142.7,97.9,0.482
6.1,32016.2,34958.7,0.0915,-0.1002,142.7,97.9,0.482
6.12,31829.4,34675.3,-0.9115,-0.7978,142.7,97.9,0.482
6.14,31936.5,34676.0,-0.3365,-0.7961,142.7,97.9,0.482
6.16,31853.9,34659.3,-0.7799,-0.8373,142.7,97.9,0.482
6.18,31917.3,34629.8,-0.4396,-0.9099,142.7,97.9,0.482
6.2,31744.5,34572.2,-1.3676,-1.0518,142.7,97.9,0.482
6.22,31876.9,34542.2,-0.6565,-1.1257,142.7,97.9,0.482
6.24,31842.7,34556.6,-0.84,-1.09,142.7,97.9,0.482
6.26,31751.7,34510.2,-1.3287,-1.2045,142.7,97.9,0.482
6.28,31826.3,34728.8,-0.9283,-0.6661,142.7,97.9,0.482
6.3,32008.7,35015.8,0.0515,0.0404,142.7,97.9,0.482
6.32,32142.3,35379.5,0.7689,0.936,142.7,97.9,0.482
6.34,32244.9,35775.0,1.3196,1.9098,142.7,97.9,0.482
6.36,32391.7,35720.7,2.1076,1.7759,142.7,97.9,0.482
6.38,32248.6,35685.7,1.3393,1.6899,142.7,97.9,0.482
6.4,32336.5,35497.1,1.8117,1.2254,142.7,97.9,0.482
6.42,32120.5,35301.8,0.6514,0.7447,142.7,97.9,0.482
6.44,32031.8,35183.6,0.1753,0.4536,142.7,97.9,0.482
6.46,32107.4,35106.8,0.5815,0.2645,142.7,97.9,0.482
6.48,32041.6,34969.2,0.2281,-0.0743,142.7,97.9,0.482
6.5,31913.2,34986.5,-0.4614,-0.0316,142.7,97.9,0.482
6.52,31965.2,34905.8,-0.1826,-0.2303,142.7,97.9,0.482
6.54,31887.1,34708.1,-0.6016,-0.7171,142.7,97.9,0.482
6.56,31955.3,34671.3,-0.2354,-0.8077,142.7,97.9,0.482
6.58,31909.1,34695.2,-0.4834,-0.7489,142.7,97.9,0.482
6.6,31770.0,34601.0,-1.2308,-0.9807,142.7,97.9,0.482
6.62,31804.9,34531.4,-1.0433,-1.1523,142.7,97.9,0.482
6.64,31831.8,34630.4,-0.8989,-0.9083,142.7,97.9,0.482
6.66,31868.6,34459.2,-0.7013,-1.3299,142.7,97.9,0.482
6.68,31818.6,34443.4,-0.9698,-1.3689,142.7,97.9,0.482
6.7,31866.2,34728.3,-0.7138,-0.6674,142.7,97.9,0.482
6.72,32044.1,34970.9,0.2414,-0.0701,142.7,97.9,0.482
6.74,32130.9,35330.4,0.7073,0.815,142.7,97.9,0.482
6.76,32316.7,35653.8,1.7054,1.6112,142.7,97.9,0.482
6.78,32250.0,35802.9,1.3471,1.9785,142.7,97.9,0.482
6.8,32330.8,35621.8,1.7808,1.5326,142.7,97.9,0.482
6.82,32256.3,35574.0,1.3811,1.4148,142.7,97.9,0.482
6.84,32123.9,35360.7,0.6698,0.8896,142.7,97.9,0.482
6.86,32140.1,35124.6,0.7571,0.3082,142.7,97.9,0.482
6.88,32063.7,35111.5,0.3467,0.2761,142.7,97.9,0.482
6.9,31933.3,35004.7,-0.3536,0.0131,142.7,97.9,0.482
6.92,31941.0,34998.0,-0.3123,-0.0035,142.7,97.9,0.482
6.94,31916.2,34811.9,-0.4454,-0.4615,142.7,97.9,0.482
6.96,31926.0,34757.1,-0.3931,-0.5966,142.7,97.9,0.482
6.98,31780.9,34692.7,-1.1718,-0.7551,142.7,97.9,0.482
7.0,31838.3,34663.9,-0.8638,-0.826,142.7,97.9,0.482
7.02,31838.0,34674.8,-0.8656,-0.7992,142.7,97.9,0.482
7.04,31800.1,34553.5,-1.0689,-1.0979,142.7,97.9,0.482
7.06,31762.4,34482.9,-1.2716,-1.2716,142.7,97.9,0.482
7.08,31767.3,34537.0,-1.2451,-1.1385,142.7,97.9,0.482
7.1,31714.9,34535.0,-1.5263,-1.1434,142.7,97.9,0.482
7.12,31923.5,34667.4,-0.4061,-0.8175,142.7,97.9,0.482
7.14,32043.9,35045.4,0.2403,0.1133,142.7,97.9,0.482
7.16,32097.6,35466.2,0.5286,1.1494,142.7,97.9,0.482
7.18,32286.4,35700.9,1.5425,1.7274,142.7,97.9,0.482
7.2,32332.1,35706.3,1.7876,1.7406,142.7,97.9,0.482
7.22,32279.2,35684.2,1.5039,1.6861,142.7,97.9,0.482
7.24,32241.2,35546.9,1.2997,1.3482,142.7,97.9,0.482
7.26,32163.5,35337.7,0.8826,0.833,142.7,97.9,0.482
7.28,31966.7,35250.4,-0.1742,0.6182,142.7,97.9,0.482
7.3,32006.6,35117.9,0.04,0.2918,142.7,97.9,0.482
7.32,32059.8,35041.7,0.3256,0.1043,142.7,97.9,0.482
7.34,32055.5,35033.0,0.3027,0.0828,142.7,97.9,0.482
7.36,31953.5,34891.3,-0.2452,-0.266,142.7,97.9,0.482
7.38,31889.5,34744.1,-0.5887,-0.6286,142.7,97.9,0.482
7.4,31863.8,34690.7,-0.7267,-0.7601,142.7,97.9,0.482
7.42,31889.5,34629.3,-0.5887,-0.9111,142.7,97.9,0.482
7.44,31886.6,34655.7,-0.6043,-0.8461,142.7,97.9,0.482
7.46,31821.9,34597.2,-0.9521,-0.9901,142.7,97.9,0.482
7.48,31807.0,34583.8,-1.0319,-1.0232,142.7,97.9,0.482
7.5,31738.5,34461.6,-1.3995,-1.3241,142.7,97.9,0.482
7.52,31780.8,34516.9,-1.1724,-1.1878,142.7,97.9,0.482
7.54,31891.3,34705.1,-0.5791,-0.7244,142.7,97.9,0.482
7.56,31968.9,34952.6,-0.1622,-0.1151,142.7,97.9,0.482
7.58,32269.8,35349.8,1.4536,0.8629,142.7,97.9,0.482
7.6,32206.9,35647.1,1.1158,1.5947,142.7,97.9,0.482
7.62,32358.9,35732.3,1.9319,1.8046,142.7,97.9,0.482
7.64,32346.8,35639.4,1.8669,1.5758,142.7,97.9,0.482
7.66,32313.0,35494.7,1.6852,1.2197,142.7,97.9,0.482
7.68,32171.2,35321.9,0.924,0.7942,142.7,97.9,0.482
7.7,32092.5,35174.2,0.501,0.4305,142.7,97.9,0.482
7.72,32082.9,35051.0,0.4494,0.127,142.7,97.9,0.482
7.74,31997.5,35076.2,-0.0088,0.1891,142.7,97.9,0.482
7.76,32068.7,35000.3,0.3736,0.0023,142.7,97.9,0.482
7.78,31927.0,34883.0,-0.3878,-0.2866,142.7,97.9,0.482
7.8,31831.3,34720.0,-0.9012,-0.6878,142.7,97.9,0.482
7.82,31806.1,34657.6,-1.0366,-0.8413,142.7,97.9,0.482
7.84,31917.9,34689.5,-0.4366,-0.7628,142.7,97.9,0.482
7.86,31834.5,34666.2,-0.884,-0.8203,142.7,97.9,0.482
7.88,31925.9,34540.4,-0.3936,-1.1301,142.7,97.9,0.482
7.9,31785.3,34482.5,-1.1486,-1.2725,142.7,97.9,0.482
7.92,31784.6,34470.2,-1.1521,-1.3028,142.7,97.9,0.482
7.94,31727.8,34506.7,-1.4574,-1.213,142.7,97.9,0.482
7.96,31930.2,34643.8,-0.3704,-0.8756,142.7,97.9,0.482
7.98,32026.1,34951.5,0.1448,-0.1178,142.7,97.9,0.482
8.0,32119.2,35415.1,0.6446,1.0235,142.7,97.9,0.482
8.02,32301.3,35618.0,1.6226,1.5232,142.7,97.9,0.482
8.04,32310.6,35766.3,1.6722,1.8884,142.7,97.9,0.482
8.06,32301.4,35700.9,1.6228,1.7272,142.7,97.9,0.482
8.08,32260.6,35502.4,1.4038,1.2385,142.7,97.9,0.482
8.1,32148.7,35316.2,0.8031,0.7801,142.7,97.9,0.482
8.12,32023.8,35203.1,0.1322,0.5017,142.7,97.9,0.482
8.14,32088.8,35087.5,0.4812,0.2171,142.7,97.9,0.482
8.16,32059.3,35104.6,0.323,0.2592,142.7,97.9,0.482
8.18,32061.5,34947.4,0.3347,-0.128,142.7,97.9,0.482
8.2,31926.5,34850.0,-0.3904,-0.3678,142.7,97.9,0.482
8.22,31884.5,34828.9,-0.6155,-0.4197,142.7,97.9,0.482
8.24,31800.5,34766.4,-1.067,-0.5737,142.7,97.9,0.482
8.26,31805.5,34724.5,-1.0402,-0.6767,142.7,97.9,0.482
8.28,31848.6,34696.8,-0.8083,-0.7449,142.7,97.9,0.482
8.3,31872.2,34607.4,-0.6816,-0.965,142.7,97.9,0.482
8.32,31732.7,34534.9,-1.4309,-1.1436,142.7,97.9,0.482
8.34,31799.6,34422.9,-1.0717,-1.4193,142.7,97.9,0.482
8.36,31803.5,34399.3,-1.0506,-1.4775,142.7,97.9,0.482
8.38,31836.1,34611.2,-0.8754,-0.9557,142.7,97.9,0.482
8.4,31866.8,35013.5,-0.7105,0.0347,142.7,97.9,0.482
8.42,32201.5,35364.0,1.0866,0.8978,142.7,97.9,0.482
8.44,32264.5,35659.1,1.4248,1.6243,142.7,97.9,0.482
8.46,32232.4,35696.4,1.2524,1.7162,142.7,97.9,0.482
8.48,32380.8,35637.6,2.0495,1.5715,142.7,97.9,0.482
8.5,32259.8,35479.6,1.3996,1.1824,142.7,97.9,0.482
8.52,32104.7,35251.1,0.5669,0.6197,142.7,97.9,0.482
8.54,32072.9,35149.0,0.3957,0.3685,142.7,97.9,0.482
8.56,32036.7,35099.4,0.2014,0.2464,142.7,97.9,0.482
8.58,31982.6,35056.7,-0.089,0.1412,142.7,97.9,0.482
8.6,32037.2,35070.4,0.2045,0.175,142.7,97.9,0.482
8.62,31913.3,34947.9,-0.4612,-0.1266,142.7,97.9,0.482
8.64,31890.1,34794.7,-0.5859,-0.5039,142.7,97.9,0.482
8.66,31846.1,34776.3,-0.8221,-0.5492,142.7,97.9,0.482
8.68,31958.9,34607.1,-0.2164,-0.9657,142.7,97.9,0.482
8.7,31865.4,34662.6,-0.7184,-0.8291,142.7,97.9,0.482
8.72,31890.9,34629.9,-0.5814,-0.9097,142.7,97.9,0.482
8.74,31843.6,34569.7,-0.8355,-1.0579,142.7,97.9,0.482
8.76,31722.7,34477.4,-1.4848,-1.2852,142.7,97.9,0.482
8.78,31780.4,34439.0,-1.1747,-1.3796,142.7,97.9,0.482
8.8,31794.0,34632.2,-1.1019,-0.904,142.7,97.9,0.482
8.82,32019.8,34979.1,0.1107,-0.05,142.7,97.9,0.482
8.84,32159.4,35406.8,0.8603,1.003,142.7,97.9,0.482
8.86,32320.8,35691.8,1.7272,1.7048,142.7,97.9,0.482
8.88,32281.2,35748.3,1.5145,1.8439,142.7,97.9,0.482
8.9,32251.1,35631.2,1.3527,1.5556,142.7,97.9,0.482
8.92,32220.0,35553.9,1.186,1.3653,142.7,97.9,0.482
8.94,32131.9,35311.4,0.713,0.7683,142.7,97.9,0.482
8.96,32076.6,35084.1,0.4158,0.2086,142.7,97.9,0.482
8.98,32066.6,35081.7,0.3624,0.2027,142.7,97.9,0.482
9.0,32036.9,34872.2,0.2025,-0.313,142.7,97.9,0.482
9.02,32026.5,35037.4,0.147,0.0937,142.7,97.9,0.482
9.04,32001.0,34928.7,0.01,-0.1739,142.7,97.9,0.482
9.06,31929.1,34749.9,-0.376,-0.6142,142.7,97.9,0.482
9.08,31816.7,34720.7,-0.9798,-0.6861,142.7,97.9,0.482
9.1,31899.8,34691.8,-0.5338,-0.7572,142.7,97.9,0.482
9.12,31826.0,34596.2,-0.9297,-0.9925,142.7,97.9,0.482
9.14,31810.4,34614.0,-1.0134,-0.9488,142.7,97.9,0.482
9.16,31729.9,34565.2,-1.4458,-1.0689,142.7,97.9,0.482
9.18,31713.6,34484.2,-1.5333,-1.2684,142.7,97.9,0.482
9.2,31852.6,34439.2,-0.7868,-1.3792,142.7,97.9,0.482
9.22,31842.5,34651.9,-0.8412,-0.8555,142.7,97.9,0.482
9.24,31916.2,34857.3,-0.4457,-0.3498,142.7,97.9,0.482
9.26,32198.8,35274.6,1.0722,0.6777,142.7,97.9,0.482
9.28,32306.0,35676.5,1.6476,1.6671,142.7,97.9,0.482
9.3,32478.2,35852.4,2.5722,2.1002,142.7,97.9,0.482
9.32,32335.6,35703.3,1.8067,1.7331,142.7,97.9,0.482
9.34,32265.3,35505.9,1.4293,1.2471,142.7,97.9,0.482
9.36,32093.9,35341.8,0.5086,0.8432,142.7,97.9,0.482
9.38,32098.6,35220.0,0.5339,0.5432,142.7,97.9,0.482
9.4,32034.6,35071.1,0.1904,0.1766,142.7,97.9,0.482
9.42,32071.8,35068.3,0.3903,0.1696,142.7,97.9,0.482
9.44,32016.0,34995.2,0.0904,-0.0102,142.7,97.9,0.482
9.46,31986.2,34857.0,-0.0694,-0.3506,142.7,97.9,0.482
9.48,31898.7,34764.7,-0.5395,-0.5779,142.7,97.9,0.482
9.5,31814.4,34685.1,-0.9924,-0.7739,142.7,97.9,0.482
9.52,31817.5,34737.5,-0.9757,-0.6447,142.7,97.9,0.482
9.54,31851.1,34693.6,-0.7951,-0.7527,142.7,97.9,0.482
9.56,31862.3,34635.2,-0.735,-0.8965,142.7,97.9,0.482
9.58,31715.8,34517.0,-1.5217,-1.1877,142.7,97.9,0.482
9.6,31763.1,34361.2,-1.2675,-1.5712,142.7,97.9,0.482
9.62,31778.4,34429.7,-1.1855,-1.4025,142.7,97.9,0.482
9.64,31794.5,34608.4,-1.0989,-0.9626,142.7,97.9,0.482
9.66,31941.2,34964.2,-0.3111,-0.0866,142.7,97.9,0.482
9.68,32140.4,35330.1,0.7585,0.8143,142.7,97.9,0.482
9.7,32310.1,35535.0,1.6695,1.3189,142.7,97.9,0.482
9.72,32336.5,35766.0,1.8114,1.8875,142.7,97.9,0.482
9.74,32326.2,35708.8,1.756,1.7466,142.7,97.9,0.482
9.76,32145.7,35515.7,0.7868,1.2713,142.7,97.9,0.482
9.78,32206.7,35380.6,1.1146,0.9386,142.7,97.9,0.482
9.8,32112.1,35153.4,0.6064,0.3793,142.7,97.9,0.482
9.82,31969.9,35084.5,-0.1571,0.2096,142.7,97.9,0.482
9.84,32035.9,35118.3,0.1972,0.2929,142.7,97.9,0.482
9.86,31980.9,35030.1,-0.0978,0.0758,142.7,97.9,0.482
9.88,31914.7,34862.2,-0.4538,-0.3378,142.7,97.9,0.482
9.9,31876.6,34846.4,-0.658,-0.3766,142.7,97.9,0.482
9.92,31850.0,34691.9,-0.801,-0.757,142.7,97.9,0.482
9.94,31847.6,34669.9,-0.8137,-0.8111,142.7,97.9,0.482
9.96,31875.0,34661.0,-0.6669,-0.8331,142.7,97.9,0.482
9.98,31846.8,34682.5,-0.8179,-0.7801,142.7,97.9,0.482
10.0,31763.7,34524.7,-1.2647,-1.1687,142.7,97.9,0.482
10.02,31830.6,34515.7,-0.905,-1.1907,142.7,97.9,0.482
10.04,31819.8,34489.3,-0.9632,-1.2557,142.7,97.9,0.482
10.06,31849.9,34658.7,-0.8013,-0.8387,142.7,97.9,0.482
10.08,31939.8,34977.8,-0.3188,-0.0532,142.7,97.9,0.482
10.1,32140.6,35317.2,0.7594,0.7825,142.7,97.9,0.482
10.12,32318.4,35583.7,1.7145,1.4386,142.7,97.9,0.482
10.14,32375.3,35731.1,2.0196,1.8016,142.7,97.9,0.482
10.16,32400.2,35712.7,2.1537,1.7563,142.7,97.9,0.482
10.18,32227.7,35469.2,1.2273,1.1567,142.7,97.9,0.482
10.2,32141.4,35374.5,0.764,0.9237,142.7,97.9,0.482
10.22,32110.3,35086.2,0.597,0.2138,142.7,97.9,0.482
10.24,31964.9,35009.2,-0.1842,0.0242,142.7,97.9,0.482
10.26,31996.4,35087.4,-0.0147,0.2167,142.7,97.9,0.482
10.28,32003.8,34999.0,0.0248,-0.0008,142.7,97.9,0.482
10.3,31917.7,34996.6,-0.4376,-0.0067,142.7,97.9,0.482
10.32,31973.4,34760.2,-0.1386,-0.5888,142.7,97.9,0.482
10.34,31796.3,34734.2,-1.0893,-0.6528,142.7,97.9,0.482
10.36,31904.6,34633.5,-0.5078,-0.9008,142.7,97.9,0.482
10.38,31851.1,34687.2,-0.7948,-0.7685,142.7,97.9,0.482
10.4,31834.4,34630.1,-0.8847,-0.9091,142.7,97.9,0.482
10.42,31785.7,34554.6,-1.1462,-1.0949,142.7,97.9,0.482
10.44,31806.2,34395.9,-1.0361,-1.4858,142.7,97.9,0.482
10.46,31788.4,34409.0,-1.1317,-1.4537,142.7,97.9,0.482
10.48,31790.0,34656.0,-1.1231,-0.8454,142.7,97.9,0.482
10.5,31938.3,34925.1,-0.3267,-0.1829,142.7,97.9,0.482
10.52,32179.5,35278.4,0.9684,0.6871,142.7,97.9,0.482
10.54,32194.0,35550.2,1.0464,1.3563,142.7,97.9,0.482
10.56,32369.1,35828.7,1.9866,2.0419,142.7,97.9,0.482
10.58,32242.9,35679.7,1.3087,1.675,142.7,97.9,0.482
10.6,32208.0,35460.4,1.1214,1.1352,142.7,97.9,0.482
10.62,32124.9,35298.9,0.6755,0.7376,142.7,97.9,0.482
10.64,32072.5,35194.4,0.394,0.4801,142.7,97.9,0.482
10.66,32041.8,35134.6,0.2289,0.333,142.7,97.9,0.482
10.68,32062.6,35080.6,0.3405,0.1999,142.7,97.9,0.482
10.7,31964.8,34994.6,-0.1847,-0.0117,142.7,97.9,0.482
10.72,31901.5,34866.4,-0.5244,-0.3273,142.7,97.9,0.482
10.74,31972.3,34885.8,-0.1443,-0.2796,142.7,97.9,0.482
10.76,31765.5,34732.3,-1.2545,-0.6574,142.7,97.9,0.482
10.78,31899.8,34664.4,-0.5336,-0.8247,142.7,97.9,0.482
10.8,31838.3,34709.4,-0.864,-0.714,142.7,97.9,0.482
10.82,31860.3,34624.8,-0.7455,-0.9221,142.7,97.9,0.482
10.84,31847.3,34587.9,-0.8154,-1.013,142.7,97.9,0.482
10.86,31750.3,34498.4,-1.3361,-1.2334,142.7,97.9,0.482
10.88,31785.1,34527.2,-1.1497,-1.1624,142.7,97.9,0.482
10.9,31748.9,34626.3,-1.3441,-0.9184,142.7,97.9,0.482
10.92,31939.4,34999.7,-0.3209,0.0009,142.7,97.9,0.482
10.94,32109.4,35319.7,0.5917,0.7886,142.7,97.9,0.482
10.96,32270.8,35645.6,1.4586,1.591,142.7,97.9,0.482
10.98,32373.1,35770.9,2.0082,1.8997,142.7,97.9,0.482
11.0,32268.0,35686.0,1.4435,1.6906,142.7,97.9,0.482
11.02,32215.6,35534.7,1.1625,1.318,142.7,97.9,0.482
11.04,32126.0,35429.4,0.6811,1.0587,142.7,97.9,0.482
11.06,32095.2,35150.6,0.5156,0.3723,142.7,97.9,0.482
11.08,32045.4,35056.0,0.2482,0.1394,142.7,97.9,0.482
11.1,32089.2,35108.2,0.4833,0.2681,142.7,97.9,0.482
11.12,32050.1,34965.7,0.2733,-0.0829,142.7,97.9,0.482
11.14,31910.8,34823.2,-0.4747,-0.4338,142.7,97.9,0.482
11.16,31942.7,34836.5,-0.3031,-0.4009,142.7,97.9,0.482
11.18,31911.7,34628.2,-0.4696,-0.9138,142.7,97.9,0.482
11.2,31943.8,34693.3,-0.2971,-0.7535,142.7,97.9,0.482
11.22,31853.9,34637.2,-0.7803,-0.8917,142.7,97.9,0.482
11.24,31791.2,34656.2,-1.117,-0.8448,142.7,97.9,0.482
11.26,31808.5,34479.8,-1.0239,-1.2792,142.7,97.9,0.482
11.28,31738.6,34454.6,-1.3994,-1.3413,142.7,97.9,0.482
11.3,31728.5,34475.9,-1.4536,-1.2888,142.7,97.9,0.482
11.32,31831.1,34694.9,-0.9024,-0.7496,142.7,97.9,0.482
11.34,31931.8,34961.3,-0.362,-0.0938,142.7,97.9,0.482
11.36,32066.4,35252.7,0.3609,0.6237,142.7,97.9,0.482
11.38,32208.4,35637.6,1.1238,1.5714,142.7,97.9,0.482
11.4,32414.8,35782.0,2.2321,1.927,142.7,97.9,0.482
11.42,32245.3,35671.0,1.3215,1.6537,142.7,97.9,0.482
11.44,32267.1,35566.9,1.4387,1.3972,142.7,97.9,0.482
11.46,32143.2,35384.4,0.7732,0.948,142.7,97.9,0.482
11.48,32067.9,35173.7,0.369,0.4291,142.7,97.9,0.482
11.5,32064.5,35178.0,0.351,0.4398,142.7,97.9,0.482
11.52,32021.9,35024.9,0.1221,0.0628,142.7,97.9,0.482
11.54,32070.4,34939.7,0.3823,-0.1468,142.7,97.9,0.482
11.56,31980.7,34929.6,-0.0992,-0.1718,142.7,97.9,0.482
11.58,31896.2,34704.7,-0.5531,-0.7256,142.7,97.9,0.482
11.6,31939.3,34725.9,-0.3214,-0.6733,142.7,97.9,0.482
11.62,31817.6,34621.1,-0.9749,-0.9314,142.7,97.9,0.482
11.64,31771.6,34637.1,-1.222,-0.8919,142.7,97.9,0.482
11.66,31883.5,34632.1,-0.6209,-0.9043,142.7,97.9,0.482
11.68,31767.0,34464.4,-1.2466,-1.3172,142.7,97.9,0.482
11.7,31766.6,34455.6,-1.2489,-1.3389,142.7,97.9,0.482
11.72,31743.6,34495.4,-1.3721,-1.2407,142.7,97.9,0.482
11.74,31765.5,34567.2,-1.2548,-1.0641,142.7,97.9,0.482
11.76,31968.9,34912.8,-0.1625,-0.2131,142.7,97.9,0.482
11.78,32161.5,35209.0,0.872,0.5162,142.7,97.9,0.482
11.8,32208.0,35563.5,1.1213,1.3891,142.7,97.9,0.482
11.82,32267.7,35763.7,1.4419,1.882,142.7,97.9,0.482
11.84,32369.2,35736.7,1.987,1.8154,142.7,97.9,0.482
11.86,32262.4,35542.6,1.4134,1.3376,142.7,97.9,0.482
11.88,32130.0,35341.0,0.7024,0.8411,142.7,97.9,0.482
11.9,32172.3,35151.9,0.93,0.3755,142.7,97.9,0.482
11.92,32005.0,35141.3,0.0313,0.3494,142.7,97.9,0.482
11.94,32004.9,35155.8,0.0307,0.3853,142.7,97.9,0.482
11.96,32083.5,35075.5,0.4528,0.1875,142.7,97.9,0.482
11.98,31980.3,34898.7,-0.1014,-0.2479,142.7,97.9,0.482
12.0,31895.2,34792.5,-0.5583,-0.5093,142.7,97.9,0.482
12.02,31767.0,34695.7,-1.2467,-0.7478,142.7,97.9,0.482
12.04,31907.9,34717.8,-0.4903,-0.6932,142.7,97.9,0.482
12.06,31916.7,34637.4,-0.4427,-0.8913,142.7,97.9,0.482
12.08,31838.2,34626.1,-0.8641,-0.919,142.7,97.9,0.482
12.1,31890.0,34514.5,-0.5865,-1.1937,142.7,97.9,0.482
12.12,31703.1,34455.4,-1.5898,-1.3393,142.7,97.9,0.482
12.14,31829.0,34445.1,-0.9138,-1.3646,142.7,97.9,0.482
12.16,31851.9,34559.8,-0.7907,-1.0822,142.7,97.9,0.482
12.18,31951.7,34950.8,-0.2547,-0.1197,142.7,97.9,0.482
12.2,32130.0,35256.8,0.7028,0.6338,142.7,97.9,0.482
12.22,32239.6,35641.9,1.2911,1.5821,142.7,97.9,0.482
12.24,32403.8,35709.5,2.173,1.7485,142.7,97.9,0.482
12.26,32288.9,35744.2,1.5558,1.8339,142.7,97.9,0.482
12.28,32254.0,35605.6,1.3686,1.4927,142.7,97.9,0.482
12.3,32167.3,35295.5,0.9029,0.729,142.7,97.9,0.482
12.32,32091.0,35180.4,0.4934,0.4456,142.7,97.9,0.482
12.34,31999.6,35122.3,0.0021,0.3026,142.7,97.9,0.482
12.36,31989.6,35085.1,-0.0516,0.211,142.7,97.9,0.482
12.38,32073.6,35040.7,0.3998,0.1017,142.7,97.9,0.482
12.4,31933.4,34861.9,-0.3532,-0.3384,142.7,97.9,0.482
12.42,31917.0,34877.4,-0.441,-0.3003,142.7,97.9,0.482
12.44,31863.6,34780.3,-0.7279,-0.5394,142.7,97.9,0.482
12.46,31870.8,34695.6,-0.6894,-0.7479,142.7,97.9,0.482
12.48,31895.9,34517.4,-0.5546,-1.1867,142.7,97.9,0.482
12.5,31853.7,34686.9,-0.781,-0.7692,142.7,97.9,0.482
12.52,31819.3,34513.2,-0.9661,-1.1969,142.7,97.9,0.482
12.54,31729.5,34408.9,-1.4481,-1.4539,142.7,97.9,0.482
12.56,31754.4,34503.1,-1.3142,-1.2219,142.7,97.9,0.482
12.58,31804.4,34512.9,-1.0457,-1.1976,142.7,97.9,0.482
12.6,31953.0,34858.3,-0.2477,-0.3472,142.7,97.9,0.482
12.62,32043.2,35247.0,0.2364,0.6098,142.7,97.9,0.482
12.64,32216.2,35579.7,1.1656,1.4289,142.7,97.9,0.482
12.66,32333.7,35734.2,1.7966,1.8092,142.7,97.9,0.482
12.68,32413.1,35762.6,2.223,1.8793,142.7,97.9,0.482
12.7,32304.3,35521.6,1.6388,1.2857,142.7,97.9,0.482
12.72,32119.4,35421.3,0.6458,1.0388,142.7,97.9,0.482
12.74,32054.9,35240.0,0.2995,0.5925,142.7,97.9,0.482
12.76,32019.1,35155.7,0.1071,0.3849,142.7,97.9,0.482
12.78,32027.4,35006.2,0.1514,0.0168,142.7,97.9,0.482
12.8,31987.0,34980.4,-0.0655,-0.0467,142.7,97.9,0.482
12.82,32033.8,34913.1,0.1857,-0.2123,142.7,97.9,0.482
12.84,31890.6,34764.2,-0.5828,-0.5789,142.7,97.9,0.482
12.86,31806.3,34712.0,-1.0357,-0.7074,142.7,97.9,0.482
12.88,31835.7,34676.7,-0.8777,-0.7944,142.7,97.9,0.482
12.9,31837.1,34603.8,-0.87,-0.974,142.7,97.9,0.482
12.92,31873.1,34549.8,-0.677,-1.107,142.7,97.9,0.482
12.94,31661.7,34587.5,-1.8124,-1.014,142.7,97.9,0.482
12.96,31777.5,34452.3,-1.1903,-1.347,142.7,97.9,0.482
12.98,31844.0,34450.6,-0.8329,-1.3511,142.7,97.9,0.482
13.0,31954.0,34604.4,-0.2428,-0.9726,142.7,97.9,0.482
13.02,31995.3,34816.4,-0.0206,-0.4505,142.7,97.9,0.482
13.04,32151.2,35170.9,0.8165,0.4223,142.7,97.9,0.482
13.06,32203.7,35627.8,1.0984,1.5472,142.7,97.9,0.482
13.08,32368.6,35741.9,1.9838,1.8283,142.7,97.9,0.482
13.1,32312.9,35723.9,1.685,1.784,142.7,97.9,0.482
13.12,32163.4,35579.6,0.8817,1.4287,142.7,97.9,0.482
13.14,32170.0,35395.4,0.9173,0.975,142.7,97.9,0.482
13.16,32096.0,35271.4,0.5198,0.6697,142.7,97.9,0.482
13.18,32076.4,35152.9,0.4146,0.3781,142.7,97.9,0.482
13.2,32066.9,35080.1,0.364,0.1987,142.7,97.9,0.482
13.22,32023.0,35102.5,0.1282,0.254,142.7,97.9,0.482
13.24,32055.4,34905.9,0.3019,-0.23,142.7,97.9,0.482
13.26,31983.5,34752.8,-0.0842,-0.6071,142.7,97.9,0.482
13.28,31926.7,34687.2,-0.3892,-0.7685,142.7,97.9,0.482
13.3,31912.1,34659.7,-0.4677,-0.8364,142.7,97.9,0.482
13.32,31754.5,34638.9,-1.3138,-0.8876,142.7,97.9,0.482
13.34,31819.5,34623.9,-0.9647,-0.9244,142.7,97.9,0.482
13.36,31726.9,34603.7,-1.4622,-0.9741,142.7,97.9,0.482
13.38,31788.4,34495.3,-1.1318,-1.241,142.7,97.9,0.482
13.4,31825.7,34481.6,-0.9315,-1.2748,142.7,97.9,0.482
13.42,31832.4,34584.8,-0.8956,-1.0208,142.7,97.9,0.482
13.44,31888.0,34889.1,-0.5968,-0.2715,142.7,97.9,0.482
13.46,32139.1,35163.1,0.7516,0.403,142.7,97.9,0.482
13.48,32167.3,35467.8,0.9029,1.1534,142.7,97.9,0.482
13.5,32289.0,35732.2,1.5566,1.8042,142.7,97.9,0.482
13.52,32374.7,35726.6,2.0163,1.7905,142.7,97.9,0.482
13.54,32324.3,35557.1,1.7461,1.3733,142.7,97.9,0.482
13.56,32116.4,35411.8,0.6296,1.0154,142.7,97.9,0.482
13.58,32112.7,35202.3,0.6096,0.4997,142.7,97.9,0.482
13.6,32083.5,35078.6,0.4527,0.1951,142.7,97.9,0.482
13.62,32054.5,35072.5,0.297,0.1801,142.7,97.9,0.482
13.64,31916.2,34970.2,-0.4455,-0.0717,142.7,97.9,0.482
13.66,31938.7,34932.8,-0.3247,-0.1639,142.7,97.9,0.482
13.68,32067.1,34746.8,0.3649,-0.6218,142.7,97.9,0.482
13.7,31972.1,34750.6,-0.1453,-0.6126,142.7,97.9,0.482
13.72,31819.8,34688.3,-0.963,-0.7658,142.7,97.9,0.482
13.74,31838.7,34607.2,-0.8617,-0.9656,142.7,97.9,0.482
13.76,31881.2,34605.1,-0.6336,-0.9707,142.7,97.9,0.482
13.78,31730.7,34556.7,-1.4414,-1.09,142.7,97.9,0.482
13.8,31674.7,34518.4,-1.7424,-1.1842,142.7,97.9,0.482
13.82,31713.0,34486.7,-1.5364,-1.2623,142.7,97.9,0.482
13.84,31896.4,34602.9,-0.5517,-0.9763,142.7,97.9,0.482
13.86,31917.8,34977.5,-0.4371,-0.0539,142.7,97.9,0.482
13.88,32084.0,35097.1,0.4555,0.2405,142.7,97.9,0.482
13.9,32248.5,35586.4,1.3391,1.4455,142.7,97.9,0.482
13.92,32247.8,35714.6,1.335,1.761,142.7,97.9,0.482
13.94,32367.3,35672.1,1.9766,1.6563,142.7,97.9,0.482
13.96,32217.5,35615.9,1.1727,1.518,142.7,97.9,0.482
13.98,32151.4,35340.9,0.8175,0.841,142.7,97.9,0.482
14.0,32086.3,35215.6,0.4677,0.5324,142.7,97.9,0.482
14.02,32101.3,35067.0,0.5484,0.1666,142.7,97.9,0.482
14.04,32103.3,35047.5,0.5591,0.1184,142.7,97.9,0.482
14.06,32020.8,35020.6,0.1161,0.0524,142.7,97.9,0.482
14.08,32029.3,34894.1,0.1617,-0.2591,142.7,97.9,0.482
14.1,31885.4,34872.3,-0.6111,-0.3129,142.7,97.9,0.482
14.12,31904.7,34698.6,-0.5075,-0.7404,142.7,97.9,0.482
14.14,31862.9,34667.7,-0.732,-0.8166,142.7,97.9,0.482
14.16,31823.8,34707.0,-0.9417,-0.7198,142.7,97.9,0.482
14.18,31828.7,34618.4,-0.9151,-0.938,142.7,97.9,0.482
14.2,31854.6,34516.1,-0.7761,-1.1898,142.7,97.9,0.482
14.22,31718.9,34515.9,-1.505,-1.1903,142.7,97.9,0.482
14.24,31674.3,34481.3,-1.7447,-1.2754,142.7,97.9,0.482
14.26,31755.5,34646.6,-1.3083,-0.8686,142.7,97.9,0.482
14.28,31905.9,34882.5,-0.501,-0.2877,142.7,97.9,0.482
14.3,32121.5,35195.8,0.6569,0.4836,142.7,97.9,0.482
14.32,32185.8,35587.6,1.0024,1.4483,142.7,97.9,0.482
14.34,32348.4,35698.4,1.8756,1.7211,142.7,97.9,0.482
14.36,32294.7,35779.0,1.5869,1.9196,142.7,97.9,0.482
14.38,32306.5,35607.8,1.6504,1.4979,142.7,97.9,0.482
14.4,32220.7,35449.6,1.1897,1.1086,142.7,97.9,0.482
14.42,32171.0,35293.5,0.9227,0.7241,142.7,97.9,0.482
14.44,32038.6,35162.3,0.2119,0.4011,142.7,97.9,0.482
14.46,32043.3,35101.4,0.2369,0.2513,142.7,97.9,0.482
14.48,32002.4,34993.4,0.0172,-0.0146,142.7,97.9,0.482
14.5,31968.8,34917.0,-0.1628,-0.2029,142.7,97.9,0.482
14.52,31875.2,34746.9,-0.6655,-0.6216,142.7,97.9,0.482
14.54,31814.7,34760.0,-0.9904,-0.5893,142.7,97.9,0.482
14.56,31851.3,34685.8,-0.7943,-0.7721,142.7,97.9,0.482
14.58,31848.1,34644.3,-0.8111,-0.8741,142.7,97.9,0.482
14.6,31881.6,34635.1,-0.6312,-0.8968,142.7,97.9,0.482
14.62,31822.2,34579.3,-0.9502,-1.0343,142.7,97.9,0.482
14.64,31702.4,34596.7,-1.5936,-0.9915,142.7,97.9,0.482
14.66,31758.5,34482.1,-1.2924,-1.2736,142.7,97.9,0.482
14.68,31831.7,34570.5,-0.8991,-1.0559,142.7,97.9,0.482
14.7,31967.8,34824.7,-0.1686,-0.4299,142.7,97.9,0.482
14.72,32057.7,35193.2,0.3142,0.4773,142.7,97.9,0.482
14.74,32293.5,35616.9,1.5808,1.5204,142.7,97.9,0.482
14.76,32337.6,35717.3,1.8172,1.7676,142.7,97.9,0.482
14.78,32318.9,35667.0,1.717,1.6439,142.7,97.9,0.482
14.8,32238.8,35532.7,1.2868,1.3132,142.7,97.9,0.482
14.82,32109.7,35434.6,0.5937,1.0716,142.7,97.9,0.482
14.84,32068.5,35287.2,0.3724,0.7086,142.7,97.9,0.482
14.86,32061.0,35119.4,0.3323,0.2956,142.7,97.9,0.482
14.88,31995.2,35030.4,-0.0212,0.0763,142.7,97.9,0.482
14.9,32036.6,34984.1,0.2008,-0.0377,142.7,97.9,0.482
14.92,32010.2,34927.8,0.0593,-0.1762,142.7,97.9,0.482
14.94,31949.6,34750.0,-0.2663,-0.614,142.7,97.9,0.482
14.96,31808.9,34696.6,-1.0219,-0.7455,142.7,97.9,0.482
14.98,31827.6,34686.4,-0.921,-0.7707,142.7,97.9,0.482
15.0,31834.7,34705.5,-0.8829,-0.7234,142.7,97.9,0.482
15.02,31834.2,34637.4,-0.8858,-0.8913,142.7,97.9,0.482
15.04,31797.6,34537.1,-1.0825,-1.1381,142.7,97.9,0.482
15.06,31823.6,34467.3,-0.9428,-1.31,142.7,97.9,0.482
15.08,31748.3,34435.3,-1.3469,-1.3887,142.7,97.9,0.482
15.1,31670.0,34533.6,-1.7673,-1.1467,142.7,97.9,0.482
15.12,31910.3,34822.0,-0.4769,-0.4367,142.7,97.9,0.482
15.14,32088.3,35228.3,0.4786,0.5637,142.7,97.9,0.482
15.16,32163.4,35536.5,0.8822,1.3225,142.7,97.9,0.482
15.18,32342.6,35724.8,1.844,1.7862,142.7,97.9,0.482
15.2,32416.2,35723.8,2.2394,1.7836,142.7,97.9,0.482
15.22,32208.6,35624.4,1.1245,1.5389,142.7,97.9,0.482
15.24,32107.3,35532.2,0.5807,1.312,142.7,97.9,0.482
15.26,32121.5,35106.5,0.6569,0.2638,142.7,97.9,0.482
15.28,32076.7,35158.8,0.4165,0.3925,142.7,97.9,0.482
15.3,32029.6,35164.4,0.1635,0.4063,142.7,97.9,0.482
15.32,31928.7,34974.9,-0.3784,-0.0602,142.7,97.9,0.482
15.34,31986.0,34827.6,-0.0706,-0.423,142.7,97.9,0.482
15.36,31826.4,34754.5,-0.9277,-0.603,142.7,97.9,0.482
15.38,31836.0,34787.1,-0.8762,-0.5226,142.7,97.9,0.482
15.4,31897.3,34653.1,-0.5471,-0.8525,142.7,97.9,0.482
15.42,31918.4,34665.4,-0.4335,-0.8222,142.7,97.9,0.482
15.44,31795.7,34607.4,-1.0927,-0.965,142.7,97.9,0.482
15.46,31812.2,34579.3,-1.004,-1.0343,142.7,97.9,0.482
15.48,31852.4,34485.7,-0.7882,-1.2647,142.7,97.9,0.482
15.5,31750.8,34494.7,-1.3336,-1.2426,142.7,97.9,0.482
15.52,31733.9,34544.7,-1.4245,-1.1195,142.7,97.9,0.482
15.54,31884.2,34791.2,-0.6173,-0.5125,142.7,97.9,0.482
15.56,31966.9,35120.1,-0.1732,0.2973,142.7,97.9,0.482
15.58,32296.0,35594.2,1.5942,1.4647,142.7,97.9,0.482
15.6,32342.3,35732.4,1.8425,1.8049,142.7,97.9,0.482
15.62,32336.0,35712.2,1.8086,1.7551,142.7,97.9,0.482
15.64,32297.8,35658.4,1.6036,1.6225,142.7,97.9,0.482
15.66,32240.2,35399.0,1.2941,0.9839,142.7,97.9,0.482
15.68,32124.5,35230.8,0.6729,0.5699,142.7,97.9,0.482
15.7,32035.6,35116.1,0.1959,0.2875,142.7,97.9,0.482
15.72,31953.9,35030.2,-0.2429,0.076,142.7,97.9,0.482
15.74,31969.8,35052.3,-0.1578,0.1303,142.7,97.9,0.482
15.76,32019.6,34909.2,0.1095,-0.2219,142.7,97.9,0.482
15.78,31895.4,34771.4,-0.5574,-0.5614,142.7,97.9,0.482
15.8,31843.3,34674.8,-0.837,-0.7992,142.7,97.9,0.482
15.82,31885.0,34627.8,-0.613,-0.9147,142.7,97.9,0.482
15.84,31737.1,34696.4,-1.4073,-0.746,142.7,97.9,0.482
15.86,31871.7,34676.7,-0.6845,-0.7945,142.7,97.9,0.482
15.88,31804.1,34582.2,-1.0473,-1.027,142.7,97.9,0.482
15.9,31739.1,34466.8,-1.3964,-1.3111,142.7,97.9,0.482
15.92,31770.9,34496.7,-1.2257,-1.2376,142.7,97.9,0.482
15.94,31860.8,34561.7,-0.7429,-1.0776,142.7,97.9,0.482
15.96,31934.0,34856.9,-0.3501,-0.3507,142.7,97.9,0.482
15.98,32020.2,35155.0,0.113,0.3831,142.7,97.9,0.482
16.0,32227.6,35540.0,1.2269,1.331,142.7,97.9,0.482
16.02,32365.4,35793.6,1.9668,1.9555,142.7,97.9,0.482
16.04,32383.3,35741.0,2.0626,1.8259,142.7,97.9,0.482
16.06,32257.9,35620.9,1.3894,1.5302,142.7,97.9,0.482
16.08,32179.4,35318.1,0.9678,0.7847,142.7,97.9,0.482
16.1,32192.7,35257.7,1.039,0.636,142.7,97.9,0.482
16.12,32091.5,35187.6,0.4958,0.4635,142.7,97.9,0.482
16.14,32085.2,35097.9,0.4618,0.2425,142.7,97.9,0.482
16.16,32003.0,35000.2,0.0205,0.0019,142.7,97.9,0.482
16.18,31958.8,34970.6,-0.2168,-0.0709,142.7,97.9,0.482
16.2,31935.5,34817.4,-0.3417,-0.448,142.7,97.9,0.482
16.22,31844.3,34686.9,-0.8315,-0.7694,142.7,97.9,0.482
16.24,31804.9,34661.6,-1.0433,-0.8316,142.7,97.9,0.482
16.26,31849.8,34586.8,-0.8019,-1.0159,142.7,97.9,0.482
16.28,31828.1,34549.7,-0.9185,-1.1072,142.7,97.9,0.482
16.3,31821.7,34628.1,-0.9528,-0.9142,142.7,97.9,0.482
16.32,31820.6,34399.3,-0.959,-1.4774,142.7,97.9,0.482
16.34,31718.3,34367.8,-1.5081,-1.5551,142.7,97.9,0.482
16.36,31853.6,34636.4,-0.7815,-0.8937,142.7,97.9,0.482
16.38,31849.1,34839.4,-0.806,-0.3939,142.7,97.9,0.482
16.4,32112.8,35245.0,0.6103,0.6048,142.7,97.9,0.482
16.42,32232.9,35551.7,1.2551,1.3598,142.7,97.9,0.482
16.44,32355.0,35704.6,1.9109,1.7363,142.7,97.9,0.482
16.46,32268.8,35694.9,1.448,1.7125,142.7,97.9,0.482
16.48,32278.7,35587.1,1.5012,1.447,142.7,97.9,0.482
16.5,32132.2,35355.9,0.7143,0.8778,142.7,97.9,0.482
16.52,32008.8,35201.1,0.052,0.4966,142.7,97.9,0.482
16.54,32122.2,35149.1,0.6605,0.3686,142.7,97.9,0.482
16.56,32077.0,35133.2,0.4181,0.3296,142.7,97.9,0.482
16.58,32010.7,35105.2,0.0622,0.2606,142.7,97.9,0.482
16.6,32017.1,34939.1,0.0965,-0.1484,142.7,97.9,0.482
16.62,31882.3,34760.7,-0.6274,-0.5876,142.7,97.9,0.482
16.64,31804.5,34704.5,-1.0453,-0.7259,142.7,97.9,0.482
16.66,31839.6,34719.0,-0.857,-0.6902,142.7,97.9,0.482
16.68,31833.7,34747.9,-0.8886,-0.6192,142.7,97.9,0.482
16.7,31894.6,34593.1,-0.5614,-1.0003,142.7,97.9,0.482
16.72,31751.4,34590.0,-1.3306,-1.0079,142.7,97.9,0.482
16.74,31836.7,34428.8,-0.8726,-1.4048,142.7,97.9,0.482
16.76,31709.5,34476.1,-1.5556,-1.2884,142.7,97.9,0.482
16.78,31817.6,34576.6,-0.9752,-1.0409,142.7,97.9,0.482
16.8,31901.7,34837.9,-0.5235,-0.3975,142.7,97.9,0.482
16.82,32019.5,35168.6,0.1092,0.4168,142.7,97.9,0.482
16.84,32267.8,35536.6,1.4427,1.3227,142.7,97.9,0.482
16.86,32287.7,35690.1,1.5494,1.7006,142.7,97.9,0.482
16.88,32326.0,35764.0,1.7553,1.8827,142.7,97.9,0.482
16.9,32344.2,35544.2,1.853,1.3414,142.7,97.9,0.482
16.92,32128.6,35430.0,0.695,1.0602,142.7,97.9,0.482
16.94,32070.9,35353.2,0.3853,0.8712,142.7,97.9,0.482
16.96,32088.4,35067.9,0.4792,0.1688,142.7,97.9,0.482
16.98,32009.5,35120.8,0.0557,0.2991,142.7,97.9,0.482
17.0,31967.9,35092.0,-0.168,0.2282,142.7,97.9,0.482
17.02,31940.9,34962.7,-0.313,-0.0903,142.7,97.9,0.482
17.04,31959.9,34906.0,-0.2109,-0.2299,142.7,97.9,0.482
17.06,31914.5,34673.0,-0.4547,-0.8035,142.7,97.9,0.482
17.08,31827.4,34757.5,-0.9221,-0.5956,142.7,97.9,0.482
17.1,31869.8,34640.2,-0.6949,-0.8843,142.7,97.9,0.482
17.12,31935.1,34604.7,-0.3441,-0.9716,142.7,97.9,0.482
17.14,31777.6,34636.9,-1.1897,-0.8924,142.7,97.9,0.482
17.16,31727.0,34498.7,-1.4616,-1.2327,142.7,97.9,0.482
17.18,31688.6,34454.3,-1.6678,-1.3421,142.7,97.9,0.482
17.2,31802.1,34431.9,-1.0582,-1.3973,142.7,97.9,0.482
17.22,32052.1,34793.8,0.2842,-0.5062,142.7,97.9,0.482
17.24,31963.4,35191.5,-0.192,0.4731,142.7,97.9,0.482
17.26,32163.0,35591.9,0.8795,1.459,142.7,97.9,0.482
17.28,32313.6,35632.0,1.6886,1.5575,142.7,97.9,0.482
17.3,32211.1,35778.8,1.1382,1.9191,142.7,97.9,0.482
17.32,32295.2,35652.7,1.5896,1.6086,142.7,97.9,0.482
17.34,32160.1,35494.7,0.8642,1.2196,142.7,97.9,0.482
17.36,32041.1,35249.3,0.225,0.6155,142.7,97.9,0.482
17.38,32095.3,35169.0,0.5161,0.4177,142.7,97.9,0.482
17.4,32021.1,35003.5,0.1178,0.0102,142.7,97.9,0.482
17.42,31942.0,35020.4,-0.3072,0.0519,142.7,97.9,0.482
17.44,31962.2,35000.9,-0.1983,0.0039,142.7,97.9,0.482
17.46,32003.7,34796.0,0.0244,-0.5008,142.7,97.9,0.482
17.48,31968.2,34699.5,-0.1662,-0.7384,142.7,97.9,0.482
17.5,31861.0,34659.3,-0.7418,-0.8373,142.7,97.9,0.482
17.52,31841.4,34659.1,-0.8471,-0.8377,142.7,97.9,0.482
17.54,31916.4,34646.6,-0.4443,-0.8685,142.7,97.9,0.482
17.56,31829.2,34561.6,-0.9125,-1.0777,142.7,97.9,0.482
17.58,31792.1,34427.6,-1.1117,-1.4078,142.7,97.9,0.482
17.6,31611.6,34528.1,-2.0811,-1.1604,142.7,97.9,0.482
17.62,31786.3,34582.3,-1.1433,-1.0268,142.7,97.9,0.482
17.64,31918.0,34815.8,-0.4357,-0.452,142.7,97.9,0.482
17.66,32098.8,35137.6,0.5351,0.3403,142.7,97.9,0.482
17.68,32207.5,35460.0,1.1185,1.1341,142.7,97.9,0.482
17.7,32260.7,35716.2,1.4046,1.7649,142.7,97.9,0.482
17.72,32273.0,35697.9,1.4704,1.7199,142.7,97.9,0.482
17.74,32298.7,35573.8,1.6086,1.4144,142.7,97.9,0.482
17.76,32194.9,35462.7,1.0512,1.1408,142.7,97.9,0.482
17.78,32054.5,35223.8,0.2971,0.5527,142.7,97.9,0.482
17.8,32040.3,35221.1,0.221,0.546,142.7,97.9,0.482
17.82,32037.9,35057.4,0.2083,0.143,142.7,97.9,0.482
17.84,32113.0,34986.1,0.6114,-0.0325,142.7,97.9,0.482
17.86,31905.3,34956.8,-0.5043,-0.1048,142.7,97.9,0.482
17.88,31798.6,34853.1,-1.0772,-0.3601,142.7,97.9,0.482
17.9,31830.4,34683.7,-0.9062,-0.7772,142.7,97.9,0.482
17.92,31897.7,34698.8,-0.5451,-0.7399,142.7,97.9,0.482
17.94,31783.7,34695.6,-1.1569,-0.7479,142.7,97.9,0.482
17.96,31813.3,34613.3,-0.9981,-0.9505,142.7,97.9,0.482
17.98,31804.3,34591.4,-1.0464,-1.0044,142.7,97.9,0.482
18.0,31798.5,34548.0,-1.0775,-1.1113,142.7,97.9,0.482
18.02,31661.4,34454.4,-1.8136,-1.3419,142.7,97.9,0.482
18.04,31783.7,34482.2,-1.1571,-1.2733,142.7,97.9,0.482
18.06,31885.9,34783.9,-0.6079,-0.5304,142.7,97.9,0.482
18.08,31976.4,35203.0,-0.1222,0.5014,142.7,97.9,0.482
18.1,32240.0,35470.2,1.293,1.1591,142.7,97.9,0.482
18.12,32300.2,35680.2,1.6164,1.6763,142.7,97.9,0.482
18.14,32351.3,35764.4,1.8911,1.8836,142.7,97.9,0.482
18.16,32258.1,35627.4,1.3903,1.5462,142.7,97.9,0.482
18.18,32159.3,35359.9,0.8598,0.8876,142.7,97.9,0.482
18.2,32123.5,35285.1,0.6674,0.7036,142.7,97.9,0.482
18.22,32098.4,35101.3,0.5327,0.2509,142.7,97.9,0.482
18.24,32091.8,35011.2,0.4972,0.0292,142.7,97.9,0.482
18.26,31972.1,35059.4,-0.1452,0.1477,142.7,97.9,0.482
18.28,31940.3,34957.4,-0.3163,-0.1033,142.7,97.9,0.482
18.3,31916.8,34804.3,-0.4423,-0.4803,142.7,97.9,0.482
18.32,31845.9,34732.5,-0.8229,-0.6571,142.7,97.9,0.482
18.34,31871.0,34674.3,-0.6882,-0.8004,142.7,97.9,0.482
18.36,31885.0,34698.3,-0.6131,-0.7414,142.7,97.9,0.482
18.38,31925.5,34633.3,-0.3953,-0.9013,142.7,97.9,0.482
18.4,31837.5,34546.6,-0.8679,-1.1147,142.7,97.9,0.482
18.42,31713.3,34518.3,-1.5353,-1.1845,142.7,97.9,0.482
18.44,31805.8,34467.0,-1.0382,-1.3108,142.7,97.9,0.482
18.46,31789.4,34554.9,-1.1263,-1.0944,142.7,97.9,0.482
18.48,31897.8,34702.4,-0.5445,-0.7313,142.7,97.9,0.482
18.5,32061.4,35116.4,0.3343,0.2881,142.7,97.9,0.482
18.52,32185.4,35439.0,1.0003,1.0825,142.7,97.9,0.482
18.54,32335.8,35668.7,1.8075,1.6481,142.7,97.9,0.482
18.56,32272.7,35717.9,1.4687,1.7692,142.7,97.9,0.482
18.58,32295.0,35574.2,1.5888,1.4153,142.7,97.9,0.482
18.6,32144.5,35405.5,0.7806,0.9999,142.7,97.9,0.482
18.62,32147.8,35292.9,0.7982,0.7227,142.7,97.9,0.482
18.64,32075.8,35163.5,0.4117,0.4041,142.7,97.9,0.482
18.66,32064.1,35134.2,0.3486,0.3319,142.7,97.9,0.482
18.68,32044.6,34936.6,0.2439,-0.1545,142.7,97.9,0.482
18.7,31954.2,34944.8,-0.2413,-0.1345,142.7,97.9,0.482
18.72,32005.9,34827.1,0.0361,-0.4241,142.7,97.9,0.482
18.74,31804.3,34801.8,-1.0464,-0.4864,142.7,97.9,0.482
18.76,31787.3,34631.6,-1.1379,-0.9054,142.7,97.9,0.482
18.78,31830.7,34733.3,-0.9044,-0.655,142.7,97.9,0.482
18.8,31787.2,34583.8,-1.1381,-1.0232,142.7,97.9,0.482
18.82,31835.2,34539.3,-0.8805,-1.1327,142.7,97.9,0.482
18.84,31793.7,34412.7,-1.1032,-1.4445,142.7,97.9,0.482
18.86,31788.9,34480.3,-1.1288,-1.2781,142.7,97.9,0.482
18.88,31797.5,34510.0,-1.0827,-1.2049,142.7,97.9,0.482
18.9,31784.0,34798.2,-1.1556,-0.4954,142.7,97.9,0.482
18.92,32051.5,35165.7,0.2809,0.4095,142.7,97.9,0.482
18.94,32125.6,35524.4,0.6789,1.2928,142.7,97.9,0.482
18.96,32252.0,35628.7,1.3579,1.5496,142.7,97.9,0.482
18.98,32233.8,35770.1,1.2602,1.8975,142.7,97.9,0.482
19.0,32246.4,35662.0,1.3274,1.6315,142.7,97.9,0.482
19.02,32195.7,35370.7,1.0554,0.9142,142.7,97.9,0.482
19.04,32129.2,35181.3,0.6983,0.4479,142.7,97.9,0.482
19.06,32112.1,35109.4,0.6065,0.2708,142.7,97.9,0.482
19.08,32042.6,35091.3,0.2335,0.2264,142.7,97.9,0.482
19.1,31903.6,35028.6,-0.5134,0.0719,142.7,97.9,0.482
19.12,31890.6,34970.3,-0.5831,-0.0716,142.7,97.9,0.482
19.14,31883.4,34819.6,-0.6218,-0.4426,142.7,97.9,0.482
19.16,31871.8,34716.6,-0.684,-0.6962,142.7,97.9,0.482
19.18,31829.4,34724.3,-0.9116,-0.6773,142.7,97.9,0.482
19.2,31795.3,34735.4,-1.0946,-0.65,142.7,97.9,0.482
19.22,31817.1,34663.6,-0.9775,-0.8268,142.7,97.9,0.482
19.24,31914.7,34588.7,-0.4537,-1.0111,142.7,97.9,0.482
19.26,31807.6,34610.0,-1.0286,-0.9588,142.7,97.9,0.482
19.28,31712.5,34433.6,-1.5394,-1.3931,142.7,97.9,0.482
19.3,31795.1,34541.9,-1.0956,-1.1262,142.7,97.9,0.482
19.32,31858.4,34783.5,-0.7558,-0.5314,142.7,97.9,0.482
19.34,32015.8,35117.2,0.0893,0.2901,142.7,97.9,0.482
19.36,32180.4,35446.2,0.973,1.1001,142.7,97.9,0.482
19.38,32254.1,35641.5,1.3692,1.581,142.7,97.9,0.482
19.4,32381.1,35580.3,2.0511,1.4302,142.7,97.9,0.482
19.42,32295.8,35585.1,1.5931,1.442,142.7,97.9,0.482
19.44,32100.2,35399.2,0.5427,0.9845,142.7,97.9,0.482
19.46,32091.9,35311.2,0.498,0.7678,142.7,97.9,0.482
19.48,32134.0,35124.5,0.724,0.3082,142.7,97.9,0.482
19.5,32031.7,35161.9,0.1747,0.4001,142.7,97.9,0.482
19.52,31943.8,34951.1,-0.2973,-0.1189,142.7,97.9,0.482
19.54,32068.8,34929.6,0.3738,-0.1717,142.7,97.9,0.482
19.56,31995.8,34833.7,-0.0181,-0.408,142.7,97.9,0.482
19.58,31851.0,34720.7,-0.7957,-0.6861,142.7,97.9,0.482
19.6,31848.9,34655.9,-0.807,-0.8457,142.7,97.9,0.482
19.62,31691.8,34682.2,-1.6507,-0.7808,142.7,97.9,0.482
19.64,31877.3,34717.3,-0.6543,-0.6944,142.7,97.9,0.482
19.66,31814.1,34586.0,-0.9939,-1.0177,142.7,97.9,0.482
19.68,31769.7,34477.6,-1.232,-1.2847,142.7,97.9,0.482
19.7,31756.0,34509.8,-1.306,-1.2054,142.7,97.9,0.482
19.72,31703.6,34435.1,-1.5871,-1.3893,142.7,97.9,0.482
19.74,31824.4,34773.0,-0.9385,-0.5574,142.7,97.9,0.482
19.76,32071.6,35037.2,0.389,0.0931,142.7,97.9,0.482
19.78,32222.5,35503.1,1.1995,1.2404,142.7,97.9,0.482
19.8,32341.8,35737.7,1.8402,1.8179,142.7,97.9,0.482
19.82,32338.5,35816.8,1.8221,2.0127,142.7,97.9,0.482
19.84,32272.9,35691.4,1.4701,1.704,142.7,97.9,0.482
19.86,32242.8,35424.3,1.3083,1.0462,142.7,97.9,0.482
19.88,32118.9,35290.3,0.6431,0.7163,142.7,97.9,0.482
19.9,32102.1,35109.0,0.5527,0.2698,142.7,97.9,0.482
19.92,31933.9,35209.0,-0.3502,0.5161,142.7,97.9,0.482
19.94,32038.8,35029.0,0.2128,0.073,142.7,97.9,0.482
19.96,32013.8,34916.2,0.0783,-0.2047,142.7,97.9,0.482
19.98,31885.0,34931.9,-0.6132,-0.1662,142.7,97.9,0.482
20.0,31846.5,34685.0,-0.8197,-0.7741,142.7,97.9,0.482
20.02,31846.1,34594.7,-0.8221,-0.9963,142.7,97.9,0.482
20.04,31907.7,34569.7,-0.4911,-1.0579,142.7,97.9,0.482
20.06,31848.8,34615.7,-0.8075,-0.9447,142.7,97.9,0.482
20.08,31830.9,34591.6,-0.9035,-1.004,142.7,97.9,0.482
20.1,31784.1,34548.0,-1.1547,-1.1112,142.7,97.9,0.482
20.12,31683.8,34458.6,-1.6932,-1.3314,142.7,97.9,0.482
20.14,31782.5,34541.9,-1.1636,-1.1263,142.7,97.9,0.482
20.16,31878.1,34786.9,-0.6503,-0.5231,142.7,97.9,0.482
20.18,32042.9,35118.9,0.235,0.2943,142.7,97.9,0.482
20.2,32184.1,35457.5,0.9931,1.128,142.7,97.9,0.482
20.22,32337.4,35633.5,1.8161,1.5612,142.7,97.9,0.482
20.24,32379.7,35789.4,2.0437,1.9452,142.7,97.9,0.482
20.26,32337.8,35609.2,1.8184,1.5016,142.7,97.9,0.482
20.28,32223.7,35471.4,1.206,1.1622,142.7,97.9,0.482
20.3,32088.2,35351.3,0.4783,0.8664,142.7,97.9,0.482
20.32,32007.3,35126.5,0.0435,0.3131,142.7,97.9,0.482
20.34,32080.5,35035.9,0.437,0.0899,142.7,97.9,0.482
20.36,32021.3,35070.9,0.1187,0.1762,142.7,97.9,0.482
20.38,31963.7,34935.1,-0.1907,-0.1582,142.7,97.9,0.482
20.4,32052.0,34827.4,0.2837,-0.4235,142.7,97.9,0.482
20.42,31916.2,34728.6,-0.4457,-0.6666,142.7,97.9,0.482
20.44,31823.3,34744.4,-0.9446,-0.6279,142.7,97.9,0.482
20.46,31824.0,34737.6,-0.9404,-0.6446,142.7,97.9,0.482
20.48,31763.0,34650.3,-1.2684,-0.8593,142.7,97.9,0.482
20.5,31785.2,34523.3,-1.149,-1.172,142.7,97.9,0.482
20.52,31799.5,34518.0,-1.072,-1.1852,142.7,97.9,0.482
20.54,31762.1,34533.3,-1.2732,-1.1474,142.7,97.9,0.482
20.56,31744.7,34473.7,-1.3662,-1.2942,142.7,97.9,0.482
20.58,31913.5,34719.2,-0.4599,-0.6897,142.7,97.9,0.482
20.6,31942.1,35071.1,-0.3064,0.1767,142.7,97.9,0.482
20.62,32200.1,35447.3,1.0788,1.1028,142.7,97.9,0.482
20.64,32309.8,35678.0,1.668,1.671,142.7,97.9,0.482
20.66,32236.9,35724.6,1.2765,1.7857,142.7,97.9,0.482
20.68,32225.4,35590.3,1.2151,1.455,142.7,97.9,0.482
20.7,32166.3,35455.9,0.8977,1.124,142.7,97.9,0.482
20.72,32199.3,35316.9,1.0745,0.7818,142.7,97.9,0.482
20.74,32083.2,35162.6,0.4511,0.4018,142.7,97.9,0.482
20.76,32063.0,35125.2,0.3431,0.3099,142.7,97.9,0.482
20.78,31916.4,35027.3,-0.4444,0.0688,142.7,97.9,0.482
20.8,32032.2,35006.8,0.1772,0.0182,142.7,97.9,0.482
20.82,31885.7,34852.5,-0.6094,-0.3616,142.7,97.9,0.482
20.84,31892.6,34852.5,-0.5724,-0.3617,142.7,97.9,0.482
20.86,31840.4,34803.1,-0.8523,-0.4833,142.7,97.9,0.482
20.88,31874.2,34691.6,-0.6711,-0.7578,142.7,97.9,0.482
20.9,31846.4,34621.6,-0.8205,-0.9301,142.7,97.9,0.482
20.92,31836.4,34551.2,-0.8742,-1.1033,142.7,97.9,0.482
20.94,31803.8,34658.7,-1.0489,-0.8388,142.7,97.9,0.482
20.96,31769.2,34391.0,-1.235,-1.4979,142.7,97.9,0.482
20.98,31758.5,34493.8,-1.2926,-1.2447,142.7,97.9,0.482
21.0,31917.4,34735.2,-0.4392,-0.6505,142.7,97.9,0.482
21.02,32020.7,35131.6,0.1158,0.3255,142.7,97.9,0.482
21.04,32196.7,35425.3,1.0605,1.0486,142.7,97.9,0.482
21.06,32320.9,35722.2,1.7279,1.7797,142.7,97.9,0.482
21.08,32310.9,35732.6,1.6742,1.8053,142.7,97.9,0.482
21.1,32311.4,35615.6,1.6769,1.5173,142.7,97.9,0.482
21.12,32296.2,35469.2,1.595,1.1567,142.7,97.9,0.482
21.14,32198.7,35296.4,1.0717,0.7313,142.7,97.9,0.482
21.16,32092.6,35189.5,0.5018,0.4681,142.7,97.9,0.482
21.18,32108.1,35235.2,0.5851,0.5807,142.7,97.9,0.482
21.2,31986.8,34958.0,-0.0664,-0.1019,142.7,97.9,0.482
21.22,31973.8,34905.3,-0.1362,-0.2316,142.7,97.9,0.482
21.24,31907.9,34799.2,-0.4901,-0.4928,142.7,97.9,0.482
21.26,31831.2,34843.4,-0.9017,-0.3841,142.7,97.9,0.482
21.28,31860.4,34783.5,-0.7452,-0.5316,142.7,97.9,0.482
21.3,31886.3,34607.9,-0.6061,-0.9639,142.7,97.9,0.482
21.32,31835.8,34541.6,-0.8771,-1.127,142.7,97.9,0.482
21.34,31806.9,34586.6,-1.0327,-1.0162,142.7,97.9,0.482
21.36,31712.7,34436.5,-1.5381,-1.3858,142.7,97.9,0.482
21.38,31665.0,34460.6,-1.7942,-1.3264,142.7,97.9,0.482
21.4,31797.2,34525.4,-1.0845,-1.1669,142.7,97.9,0.482
21.42,31911.2,34799.1,-0.4725,-0.4932,142.7,97.9,0.482
21.44,31997.8,34976.5,-0.0074,-0.0562,142.7,97.9,0.482
21.46,32190.6,35433.7,1.0279,1.0695,142.7,97.9,0.482
21.48,32275.8,35714.4,1.4856,1.7606,142.7,97.9,0.482
21.5,32286.7,35786.2,1.5439,1.9372,142.7,97.9,0.482
21.52,32290.6,35696.5,1.5649,1.7164,142.7,97.9,0.482
21.54,32220.4,35469.9,1.1883,1.1586,142.7,97.9,0.482
21.56,32171.0,35299.1,0.923,0.7379,142.7,97.9,0.482
21.58,32105.0,35145.3,0.5681,0.3592,142.7,97.9,0.482
21.6,31969.9,35129.8,-0.1573,0.321,142.7,97.9,0.482
21.62,32028.3,35083.1,0.1567,0.2063,142.7,97.9,0.482
21.64,31941.1,34928.5,-0.3118,-0.1746,142.7,97.9,0.482
21.66,31912.1,34913.9,-0.4675,-0.2104,142.7,97.9,0.482
21.68,31787.3,34762.2,-1.1377,-0.5839,142.7,97.9,0.482
21.7,31902.0,34758.6,-0.522,-0.5929,142.7,97.9,0.482
21.72,31864.0,34631.8,-0.7256,-0.9049,142.7,97.9,0.482
21.74,31830.5,34625.6,-0.9057,-0.9203,142.7,97.9,0.482
21.76,31812.0,34635.2,-1.005,-0.8966,142.7,97.9,0.482
21.78,31737.7,34474.1,-1.4038,-1.2933,142.7,97.9,0.482
21.8,31682.3,34431.3,-1.7017,-1.3987,142.7,97.9,0.482
21.82,31761.6,34477.4,-1.2759,-1.2852,142.7,97.9,0.482
21.84,31828.7,34704.4,-0.9153,-0.7262,142.7,97.9,0.482
21.86,31993.0,35047.0,-0.033,0.1172,142.7,97.9,0.482
21.88,32163.2,35440.1,0.8808,1.0852,142.7,97.9,0.482
21.9,32349.9,35680.6,1.8834,1.6773,142.7,97.9,0.482
21.92,32267.4,35816.3,1.4404,2.0114,142.7,97.9,0.482
21.94,32307.2,35660.0,1.6539,1.6266,142.7,97.9,0.482
21.96,32234.2,35544.7,1.2619,1.3428,142.7,97.9,0.482
21.98,32068.5,35355.5,0.3722,0.8769,142.7,97.9,0.482
22.0,32093.8,35236.1,0.5083,0.5829,142.7,97.9,0.482
22.02,32029.0,35078.5,0.1603,0.1948,142.7,97.9,0.482
22.04,32057.4,35129.0,0.3126,0.3192,142.7,97.9,0.482
22.06,31943.5,34894.3,-0.299,-0.2587,142.7,97.9,0.482
22.08,31911.3,34846.5,-0.4717,-0.3764,142.7,97.9,0.482
22.1,31783.9,34807.9,-1.1561,-0.4715,142.7,97.9,0.482
22.12,31782.5,34729.8,-1.1633,-0.6637,142.7,97.9,0.482
22.14,31956.1,34622.9,-0.2311,-0.9269,142.7,97.9,0.482
22.16,31876.3,34577.4,-0.6597,-1.039,142.7,97.9,0.482
22.18,31755.3,34635.1,-1.3094,-0.8969,142.7,97.9,0.482
22.2,31752.9,34474.8,-1.3223,-1.2916,142.7,97.9,0.482
22.22,31844.2,34398.0,-0.8319,-1.4806,142.7,97.9,0.482
22.24,31818.2,34517.3,-0.9717,-1.1868,142.7,97.9,0.482
22.26,31986.9,34748.8,-0.066,-0.6169,142.7,97.9,0.482
22.28,31951.5,35061.3,-0.2557,0.1526,142.7,97.9,0.482
22.3,32182.2,35429.6,0.983,1.0594,142.7,97.9,0.482
22.32,32319.2,35618.0,1.7187,1.5233,142.7,97.9,0.482
22.34,32340.5,35680.1,1.8328,1.6761,142.7,97.9,0.482
22.36,32360.4,35742.1,1.94,1.8287,142.7,97.9,0.482
22.38,32286.0,35403.9,1.5402,0.9961,142.7,97.9,0.482
22.4,32119.2,35188.8,0.6444,0.4664,142.7,97.9,0.482
22.42,32050.1,35167.7,0.2735,0.4145,142.7,97.9,0.482
22.44,32027.9,35122.0,0.1542,0.3019,142.7,97.9,0.482
22.46,32060.6,35007.8,0.3302,0.0209,142.7,97.9,0.482
22.48,31995.5,34849.2,-0.0197,-0.3698,142.7,97.9,0.482
22.5,31912.2,34834.0,-0.4669,-0.4072,142.7,97.9,0.482
22.52,31808.2,34748.7,-1.0257,-0.6171,142.7,97.9,0.482
22.54,31776.1,34779.6,-1.1978,-0.5411,142.7,97.9,0.482
22.56,31911.6,34680.2,-0.4701,-0.7859,142.7,97.9,0.482
22.58,31856.6,34642.8,-0.7658,-0.878,142.7,97.9,0.482
22.6,31854.9,34561.7,-0.7749,-1.0776,142.7,97.9,0.482
22.62,31744.6,34567.4,-1.3672,-1.0634,142.7,97.9,0.482
22.64,31754.0,34505.1,-1.3163,-1.2168,142.7,97.9,0.482
22.66,31779.4,34475.5,-1.1803,-1.2898,142.7,97.9,0.482
22.68,31865.9,34746.5,-0.7155,-0.6227,142.7,97.9,0.482
22.7,32006.6,35027.0,0.0401,0.068,142.7,97.9,0.482
22.72,32139.5,35396.3,0.7538,0.9773,142.7,97.9,0.482
22.74,32249.6,35559.1,1.3449,1.3782,142.7,97.9,0.482
22.76,32293.5,35761.0,1.5807,1.8751,142.7,97.9,0.482
22.78,32288.1,35613.0,1.5513,1.5107,142.7,97.9,0.482
22.8,32232.4,35551.2,1.2525,1.3586,142.7,97.9,0.482
22.82,32171.6,35192.6,0.9257,0.4757,142.7,97.9,0.482
22.84,32030.4,35152.6,0.1677,0.3772,142.7,97.9,0.482
22.86,32091.4,35128.7,0.4953,0.3185,142.7,97.9,0.482
22.88,32029.7,35018.3,0.1642,0.0467,142.7,97.9,0.482
22.9,32010.3,34884.8,0.0598,-0.2822,142.7,97.9,0.482
22.92,31897.2,34836.2,-0.5473,-0.4017,142.7,97.9,0.482
22.94,31865.8,34703.3,-0.7163,-0.7289,142.7,97.9,0.482
22.96,31878.8,34787.2,-0.6462,-0.5224,142.7,97.9,0.482
22.98,31855.0,34677.0,-0.7742,-0.7937,142.7,97.9,0.482
23.0,31893.2,34641.0,-0.5692,-0.8822,142.7,97.9,0.482
23.02,31846.6,34627.9,-0.8194,-0.9147,142.7,97.9,0.482
23.04,31884.5,34525.4,-0.6157,-1.1668,142.7,97.9,0.482
23.06,31745.4,34464.9,-1.3628,-1.316,142.7,97.9,0.482
23.08,31772.7,34505.7,-1.2163,-1.2155,142.7,97.9,0.482
23.1,31878.2,34743.7,-0.6494,-0.6294,142.7,97.9,0.482
23.12,31996.1,35033.6,-0.0167,0.0842,142.7,97.9,0.482
23.14,32122.8,35404.5,0.6639,0.9975,142.7,97.9,0.482
23.16,32423.2,35736.2,2.2769,1.8141,142.7,97.9,0.482
23.18,32337.8,35746.3,1.8185,1.8391,142.7,97.9,0.482
23.2,32203.2,35729.3,1.0956,1.7972,142.7,97.9,0.482
23.22,32228.3,35483.9,1.2303,1.193,142.7,97.9,0.482
23.24,32075.1,35327.4,0.4078,0.8076,142.7,97.9,0.482
23.26,31974.9,35264.3,-0.1301,0.6523,142.7,97.9,0.482
23.28,32037.5,35184.9,0.2056,0.4567,142.7,97.9,0.482
23.3,32082.5,35018.2,0.4474,0.0464,142.7,97.9,0.482
23.32,32009.7,34970.0,0.0567,-0.0723,142.7,97.9,0.482
23.34,31905.9,34845.9,-0.501,-0.3778,142.7,97.9,0.482
23.36,31869.0,34798.7,-0.6989,-0.4939,142.7,97.9,0.482
23.38,31880.2,34705.6,-0.6389,-0.7234,142.7,97.9,0.482
23.4,31829.2,34754.1,-0.9128,-0.6038,142.7,97.9,0.482
23.42,31868.8,34676.3,-0.7003,-0.7955,142.7,97.9,0.482
23.44,31767.2,34680.6,-1.2455,-0.7848,142.7,97.9,0.482
23.46,31759.4,34561.7,-1.2875,-1.0776,142.7,97.9,0.482
23.48,31755.8,34559.3,-1.3067,-1.0834,142.7,97.9,0.482
23.5,31745.3,34423.5,-1.3634,-1.4179,142.7,97.9,0.482
23.52,31866.2,34688.9,-0.7138,-0.7643,142.7,97.9,0.482
23.54,31903.8,35025.8,-0.512,0.0651,142.7,97.9,0.482
23.56,32160.6,35396.9,0.8668,0.9789,142.7,97.9,0.482
23.58,32247.0,35582.9,1.331,1.4366,142.7,97.9,0.482
23.6,32285.6,35817.5,1.5384,2.0143,142.7,97.9,0.482
23.62,32280.4,35668.4,1.5101,1.6471,142.7,97.9,0.482
23.64,32226.2,35561.0,1.2189,1.3829,142.7,97.9,0.482
23.66,32102.7,35361.7,0.5561,0.8922,142.7,97.9,0.482
23.68,32047.0,35138.2,0.2568,0.3418,142.7,97.9,0.482
23.7,32124.4,35047.8,0.6724,0.1192,142.7,97.9,0.482
23.72,32069.0,35009.4,0.375,0.0248,142.7,97.9,0.482
23.74,31877.7,35064.9,-0.6524,0.1614,142.7,97.9,0.482
23.76,31934.9,34827.6,-0.345,-0.4228,142.7,97.9,0.482
23.78,31904.5,34783.3,-0.5083,-0.5319,142.7,97.9,0.482
23.8,31862.3,34733.6,-0.7351,-0.6543,142.7,97.9,0.482
23.82,31868.2,34652.1,-0.7035,-0.8551,142.7,97.9,0.482
23.84,31841.6,34623.1,-0.8458,-0.9263,142.7,97.9,0.482
23.86,31914.1,34692.2,-0.4568,-0.7562,142.7,97.9,0.482
23.88,31927.2,34488.8,-0.3862,-1.2572,142.7,97.9,0.482
23.9,31691.5,34495.2,-1.6519,-1.2414,142.7,97.9,0.482
23.92,31793.2,34503.6,-1.1062,-1.2206,142.7,97.9,0.482
23.94,31801.2,34714.4,-1.063,-0.7017,142.7,97.9,0.482
23.96,31905.1,35021.2,-0.5053,0.0538,142.7,97.9,0.482
23.98,32094.0,35313.9,0.5095,0.7745,142.7,97.9,0.482
24.0,32244.3,35675.8,1.3166,1.6655,142.7,97.9,0.482
24.02,32336.8,35767.6,1.813,1.8914,142.7,97.9,0.482
24.04,32306.9,35688.8,1.6527,1.6975,142.7,97.9,0.482
24.06,32215.3,35512.6,1.1605,1.2637,142.7,97.9,0.482
24.08,32135.3,35281.0,0.7312,0.6933,142.7,97.9,0.482
24.1,32118.1,35184.3,0.6386,0.4554,142.7,97.9,0.482
24.12,32077.4,35083.3,0.4199,0.2067,142.7,97.9,0.482
24.14,31951.6,35077.5,-0.2556,0.1923,142.7,97.9,0.482
24.16,31949.8,34983.0,-0.2649,-0.0403,142.7,97.9,0.482
24.18,31956.5,34790.0,-0.229,-0.5156,142.7,97.9,0.482
24.2,31887.1,34729.5,-0.6017,-0.6645,142.7,97.9,0.482
24.22,31881.9,34770.9,-0.6299,-0.5625,142.7,97.9,0.482
24.24,31909.7,34680.3,-0.4804,-0.7857,142.7,97.9,0.482
24.26,31835.7,34629.8,-0.8776,-0.9099,142.7,97.9,0.482
24.28,31747.7,34554.6,-1.3502,-1.095,142.7,97.9,0.482
24.3,31756.7,34551.0,-1.3023,-1.104,142.7,97.9,0.482
24.32,31790.3,34339.4,-1.1216,-1.6249,142.7,97.9,0.482
24.34,31680.1,34506.0,-1.7132,-1.2146,142.7,97.9,0.482
24.36,31913.9,34723.2,-0.4579,-0.6799,142.7,97.9,0.482
24.38,32049.3,34950.7,0.2693,-0.1197,142.7,97.9,0.482
24.4,32212.0,35367.9,1.143,0.9073,142.7,97.9,0.482
24.42,32296.9,35679.0,1.5988,1.6733,142.7,97.9,0.482
24.44,32340.0,35754.9,1.83,1.8603,142.7,97.9,0.482
24.46,32266.0,35722.3,1.433,1.78,142.7,97.9,0.482
24.48,32122.3,35428.0,0.6611,1.0553,142.7,97.9,0.482
24.5,32180.3,35347.2,0.9729,0.8563,142.7,97.9,0.482
24.52,32027.6,35181.9,0.1528,0.4495,142.7,97.9,0.482
24.54,32037.8,35072.7,0.2075,0.1806,142.7,97.9,0.482
24.56,31981.4,35057.8,-0.0954,0.144,142.7,97.9,0.482
24.58,31978.9,34959.4,-0.1086,-0.0983,142.7,97.9,0.482
24.6,31946.1,34874.4,-0.2849,-0.3078,142.7,97.9,0.482
24.62,31929.9,34742.9,-0.3719,-0.6316,142.7,97.9,0.482
24.64,31821.9,34789.7,-0.952,-0.5161,142.7,97.9,0.482
24.66,31822.7,34601.2,-0.9474,-0.9803,142.7,97.9,0.482
24.68,31834.8,34623.3,-0.8828,-0.9259,142.7,97.9,0.482
24.7,31834.0,34590.2,-0.8871,-1.0074,142.7,97.9,0.482
24.72,31942.0,34631.4,-0.307,-0.906,142.7,97.9,0.482
24.74,31738.8,34388.8,-1.3984,-1.5033,142.7,97.9,0.482
24.76,31746.1,34492.1,-1.359,-1.2489,142.7,97.9,0.482
24.78,31880.0,34664.3,-0.6399,-0.8249,142.7,97.9,0.482
24.8,32057.3,34997.5,0.3122,-0.0046,142.7,97.9,0.482
24.82,32173.0,35360.5,0.9333,0.8891,142.7,97.9,0.482
24.84,32281.9,35627.2,1.5181,1.5457,142.7,97.9,0.482
24.86,32481.3,35762.0,2.5888,1.8777,142.7,97.9,0.482
24.88,32323.4,35680.8,1.7412,1.6778,142.7,97.9,0.482
24.9,32188.4,35422.1,1.0161,1.0407,142.7,97.9,0.482
24.92,32201.1,35333.3,1.0843,0.8221,142.7,97.9,0.482
24.94,32171.7,35089.6,0.9267,0.2222,142.7,97.9,0.482
24.96,32019.4,35079.2,0.1085,0.1967,142.7,97.9,0.482
24.98,31953.3,34948.0,-0.2465,-0.1266,142.7,97.9,0.482
25.0,32034.1,35014.4,0.1878,0.0369,142.7,97.9,0.482
25.02,31882.1,34882.5,-0.6286,-0.2878,142.7,97.9,0.482
25.04,31854.4,34784.9,-0.7774,-0.528,142.7,97.9,0.482
25.06,31852.6,34696.8,-0.7872,-0.745,142.7,97.9,0.482
25.08,31812.0,34669.7,-1.0049,-0.8117,142.7,97.9,0.482
25.1,31854.8,34654.2,-0.775,-0.8499,142.7,97.9,0.482
25.12,31785.2,34615.4,-1.1492,-0.9455,142.7,97.9,0.482
25.14,31755.2,34425.8,-1.3098,-1.4121,142.7,97.9,0.482
25.16,31797.5,34460.0,-1.083,-1.3279,142.7,97.9,0.482
25.18,31778.3,34521.8,-1.1858,-1.1759,142.7,97.9,0.482
25.2,31842.1,34634.0,-0.8434,-0.8996,142.7,97.9,0.482
25.22,31979.5,35027.1,-0.1058,0.0684,142.7,97.9,0.482
25.24,32045.3,35388.1,0.2478,0.9572,142.7,97.9,0.482
25.26,32274.7,35651.8,1.4795,1.6064,142.7,97.9,0.482
25.28,32316.9,35687.2,1.7062,1.6934,142.7,97.9,0.482
25.3,32235.5,35631.1,1.2689,1.5555,142.7,97.9,0.482
25.32,32248.3,35521.2,1.3381,1.2847,142.7,97.9,0.482
25.34,32127.6,35366.1,0.6898,0.903,142.7,97.9,0.482
25.36,32053.7,35183.1,0.2926,0.4523,142.7,97.9,0.482
25.38,32069.5,35035.4,0.3775,0.0888,142.7,97.9,0.482
25.4,32013.1,35011.9,0.0747,0.0309,142.7,97.9,0.482
25.42,32027.4,34921.0,0.1517,-0.193,142.7,97.9,0.482
25.44,31894.3,34883.3,-0.5628,-0.2858,142.7,97.9,0.482
25.46,31851.0,34832.2,-0.7958,-0.4117,142.7,97.9,0.482
25.48,31907.6,34739.4,-0.4914,-0.64,142.7,97.9,0.482
25.5,31881.2,34653.9,-0.6337,-0.8507,142.7,97.9,0.482
25.52,31777.6,34606.0,-1.19,-0.9686,142.7,97.9,0.482
25.54,31856.3,34599.7,-0.7672,-0.984,142.7,97.9,0.482
25.56,31711.1,34522.3,-1.5471,-1.1746,142.7,97.9,0.482
25.58,31811.6,34497.3,-1.007,-1.2362,142.7,97.9,0.482
25.6,31775.8,34531.2,-1.1996,-1.1526,142.7,97.9,0.482
25.62,31824.3,34623.8,-0.9388,-0.9246,142.7,97.9,0.482
25.64,31942.6,34966.3,-0.3036,-0.0815,142.7,97.9,0.482
25.66,32188.8,35342.5,1.0183,0.8448,142.7,97.9,0.482
25.68,32179.9,35646.0,0.9704,1.5921,142.7,97.9,0.482
25.7,32369.8,35737.1,1.9905,1.8164,142.7,97.9,0.482
25.72,32301.7,35636.6,1.6246,1.5689,142.7,97.9,0.482
25.74,32248.2,35485.6,1.3374,1.1971,142.7,97.9,0.482
25.76,32087.3,35242.0,0.4733,0.5975,142.7,97.9,0.482
25.78,32023.5,35092.1,0.1307,0.2284,142.7,97.9,0.482
25.8,32071.3,35073.0,0.3872,0.1814,142.7,97.9,0.482
25.82,31978.8,35047.1,-0.1094,0.1174,142.7,97.9,0.482
25.84,32067.6,34937.1,0.3676,-0.1532,142.7,97.9,0.482
25.86,32052.4,34884.0,0.2859,-0.2839,142.7,97.9,0.482
25.88,31840.5,34801.9,-0.8518,-0.4862,142.7,97.9,0.482
25.9,31893.5,34655.0,-0.5674,-0.8478,142.7,97.9,0.482
25.92,31844.1,34592.6,-0.8325,-1.0016,142.7,97.9,0.482
25.94,31841.6,34652.5,-0.8463,-0.8539,142.7,97.9,0.482
25.96,31799.6,34679.9,-1.0717,-0.7865,142.7,97.9,0.482
25.98,31865.1,34507.2,-0.7198,-1.2118,142.7,97.9,0.482
26.0,31816.2,34441.5,-0.9825,-1.3736,142.7,97.9,0.482
26.02,31759.2,34529.7,-1.2884,-1.1564,142.7,97.9,0.482
26.04,31823.2,34588.6,-0.945,-1.0114,142.7,97.9,0.482
26.06,31978.8,34997.5,-0.1093,-0.0047,142.7,97.9,0.482
26.08,32174.9,35337.2,0.9437,0.8317,142.7,97.9,0.482
26.1,32344.8,35675.6,1.8563,1.665,142.7,97.9,0.482
26.12,32371.0,35711.4,1.9968,1.7531,142.7,97.9,0.482
26.14,32270.0,35746.4,1.4543,1.8392,142.7,97.9,0.482
26.16,32236.3,35505.7,1.2734,1.2468,142.7,97.9,0.482
26.18,32117.4,35322.8,0.635,0.7963,142.7,97.9,0.482
26.2,32024.2,35176.4,0.1344,0.4358,142.7,97.9,0.482
26.22,32006.9,35051.4,0.0414,0.1282,142.7,97.9,0.482
26.24,31953.1,35091.8,-0.2476,0.2277,142.7,97.9,0.482
26.26,31961.2,35032.3,-0.2037,0.081,142.7,97.9,0.482
26.28,31933.7,34986.2,-0.3514,-0.0324,142.7,97.9,0.482
26.3,31876.0,34814.7,-0.6614,-0.4547,142.7,97.9,0.482
26.32,31897.6,34753.6,-0.5453,-0.605,142.7,97.9,0.482
26.34,31792.0,34680.0,-1.1127,-0.7862,142.7,97.9,0.482
26.36,31834.3,34615.8,-0.8851,-0.9443,142.7,97.9,0.482
26.38,31849.7,34575.3,-0.8025,-1.044,142.7,97.9,0.482
26.4,31834.2,34524.5,-0.8859,-1.1692,142.7,97.9,0.482
26.42,31802.4,34517.3,-1.0566,-1.1868,142.7,97.9,0.482
26.44,31817.3,34387.8,-0.9768,-1.5058,142.7,97.9,0.482
26.46,31812.4,34683.9,-1.0028,-0.7766,142.7,97.9,0.482
26.48,31982.3,34909.4,-0.0903,-0.2214,142.7,97.9,0.482
26.5,32172.8,35431.8,0.9322,1.0648,142.7,97.9,0.482
26.52,32279.7,35650.8,1.5063,1.604,142.7,97.9,0.482
26.54,32359.6,35761.6,1.9354,1.8768,142.7,97.9,0.482
26.56,32273.9,35653.3,1.4751,1.61,142.7,97.9,0.482
26.58,32231.6,35579.2,1.2481,1.4276,142.7,97.9,0.482
26.6,32095.9,35400.3,0.5196,0.9872,142.7,97.9,0.482
26.62,32030.8,35141.6,0.1699,0.3503,142.7,97.9,0.482
26.64,32089.7,35100.6,0.4861,0.2494,142.7,97.9,0.482
26.66,32058.7,35100.5,0.3196,0.249,142.7,97.9,0.482
26.68,31912.1,34991.3,-0.4673,-0.0199,142.7,97.9,0.482
26.7,31934.2,34886.9,-0.3489,-0.2769,142.7,97.9,0.482
26.72,31812.0,34772.2,-1.0049,-0.5594,142.7,97.9,0.482
26.74,31932.3,34767.5,-0.3589,-0.5709,142.7,97.9,0.482
26.76,31862.2,34639.1,-0.7354,-0.8871,142.7,97.9,0.482
26.78,31831.7,34718.7,-0.8991,-0.6911,142.7,97.9,0.482
26.8,31795.2,34520.6,-1.0953,-1.1787,142.7,97.9,0.482
26.82,31802.6,34552.7,-1.0554,-1.0996,142.7,97.9,0.482
26.84,31807.9,34547.5,-1.0273,-1.1126,142.7,97.9,0.482
26.86,31779.0,34476.1,-1.1823,-1.2883,142.7,97.9,0.482
26.88,31827.7,34637.5,-0.9208,-0.8911,142.7,97.9,0.482
26.9,31965.7,35012.2,-0.1795,0.0316,142.7,97.9,0.482
26.92,32151.2,35380.2,0.8163,0.9376,142.7,97.9,0.482
26.94,32255.0,35630.5,1.3741,1.5539,142.7,97.9,0.482
26.96,32337.5,35735.1,1.8167,1.8115,142.7,97.9,0.482
26.98,32403.3,35728.1,2.1704,1.7941,142.7,97.9,0.482
27.0,32232.6,35550.3,1.2538,1.3566,142.7,97.9,0.482
27.02,32134.9,35317.5,0.729,0.7834,142.7,97.9,0.482
27.04,32071.5,35230.8,0.3882,0.5699,142.7,97.9,0.482
27.06,32017.6,35090.1,0.099,0.2233,142.7,97.9,0.482
27.08,32013.2,35025.1,0.0756,0.0633,142.7,97.9,0.482
27.1,32007.8,34986.6,0.0464,-0.0313,142.7,97.9,0.482
27.12,31997.5,34853.9,-0.0092,-0.3581,142.7,97.9,0.482
27.14,31881.7,34713.3,-0.6308,-0.7043,142.7,97.9,0.482
27.16,31914.9,34763.1,-0.4523,-0.5816,142.7,97.9,0.482
27.18,31888.2,34697.2,-0.5957,-0.7441,142.7,97.9,0.482
27.2,31913.0,34669.9,-0.4626,-0.8111,142.7,97.9,0.482
27.22,31820.3,34737.1,-0.9607,-0.6457,142.7,97.9,0.482
27.24,31806.7,34562.8,-1.0333,-1.0748,142.7,97.9,0.482
27.26,31763.6,34387.0,-1.2648,-1.5078,142.7,97.9,0.482
27.28,31800.0,34543.0,-1.0695,-1.1236,142.7,97.9,0.482
27.3,31884.1,34645.1,-0.6181,-0.8722,142.7,97.9,0.482
27.32,32016.7,34866.6,0.094,-0.327,142.7,97.9,0.482
27.34,32282.5,35284.3,1.5216,0.7014,142.7,97.9,0.482
27.36,32221.4,35656.2,1.1936,1.6172,142.7,97.9,0.482
27.38,32170.3,35722.6,0.919,1.7807,142.7,97.9,0.482
27.4,32338.8,35655.2,1.8236,1.6147,142.7,97.9,0.482
27.42,32196.4,35424.9,1.059,1.0478,142.7,97.9,0.482
27.44,32115.0,35298.1,0.622,0.7356,142.7,97.9,0.482
27.46,32043.5,35174.6,0.238,0.4315,142.7,97.9,0.482
27.48,32046.3,35149.4,0.2533,0.3695,142.7,97.9,0.482
27.5,32084.7,35106.3,0.4592,0.2633,142.7,97.9,0.482
27.52,32067.9,34983.1,0.3692,-0.0401,142.7,97.9,0.482
27.54,31987.0,34866.9,-0.0655,-0.326,142.7,97.9,0.482
27.56,31886.5,34837.7,-0.6051,-0.3981,142.7,97.9,0.482
27.58,31815.6,34709.9,-0.9859,-0.7126,142.7,97.9,0.482
27.6,31819.4,34687.0,-0.9655,-0.7691,142.7,97.9,0.482
27.62,31772.1,34651.2,-1.219,-0.8573,142.7,97.9,0.482
27.64,31816.8,34511.9,-0.9795,-1.2001,142.7,97.9,0.482
27.66,31790.1,34503.9,-1.1227,-1.2198,142.7,97.9,0.482
27.68,31815.2,34459.3,-0.9878,-1.3298,142.7,97.9,0.482
27.7,31788.8,34485.6,-1.1299,-1.265,142.7,97.9,0.482
27.72,31867.6,34548.4,-0.7063,-1.1103,142.7,97.9,0.482
27.74,31915.5,34970.3,-0.449,-0.0716,142.7,97.9,0.482
27.76,32090.1,35261.7,0.4885,0.6458,142.7,97.9,0.482
27.78,32261.2,35628.9,1.4073,1.55,142.7,97.9,0.482
27.8,32313.2,35764.0,1.6861,1.8825,142.7,97.9,0.482
27.82,32265.6,35592.4,1.4309,1.4602,142.7,97.9,0.482
27.84,32105.3,35471.1,0.5701,1.1615,142.7,97.9,0.482
27.86,32212.0,35301.4,1.143,0.7435,142.7,97.9,0.482
27.88,32083.5,35074.2,0.453,0.1843,142.7,97.9,0.482
27.9,32049.6,35100.0,0.2707,0.2477,142.7,97.9,0.482
27.92,32070.7,35058.6,0.384,0.1459,142.7,97.9,0.482
27.94,32068.8,35036.6,0.3742,0.0916,142.7,97.9,0.482
27.96,31869.0,34807.4,-0.6989,-0.4725,142.7,97.9,0.482
27.98,31874.1,34732.9,-0.6718,-0.6561,142.7,97.9,0.482
28.0,31932.8,34633.5,-0.3564,-0.9007,142.7,97.9,0.482
28.02,31872.6,34730.1,-0.6795,-0.663,142.7,97.9,0.482
28.04,31863.6,34716.7,-0.7277,-0.696,142.7,97.9,0.482
28.06,31785.9,34597.4,-1.1453,-0.9897,142.7,97.9,0.482
28.08,31920.4,34606.4,-0.4229,-0.9675,142.7,97.9,0.482
28.1,31791.8,34421.9,-1.1136,-1.4217,142.7,97.9,0.482
28.12,31757.7,34492.7,-1.2967,-1.2474,142.7,97.9,0.482
28.14,31828.3,34649.7,-0.9173,-0.861,142.7,97.9,0.482
28.16,32044.8,35003.7,0.245,0.0108,142.7,97.9,0.482
28.18,32163.7,35319.9,0.8833,0.7891,142.7,97.9,0.482
28.2,32301.8,35617.3,1.6252,1.5214,142.7,97.9,0.482
28.22,32412.5,35729.5,2.2198,1.7977,142.7,97.9,0.482
28.24,32301.9,35810.1,1.6256,1.9961,142.7,97.9,0.482
28.26,32169.9,35529.1,0.9167,1.3043,142.7,97.9,0.482
28.28,32175.1,35300.3,0.9447,0.741,142.7,97.9,0.482
28.3,32060.4,35260.9,0.3289,0.644,142.7,97.9,0.482
28.32,32081.0,35059.5,0.4393,0.148,142.7,97.9,0.482
28.34,32121.9,34994.9,0.6591,-0.011,142.7,97.9,0.482
28.36,31966.1,34997.6,-0.1777,-0.0044,142.7,97.9,0.482
28.38,31946.2,34990.9,-0.2842,-0.0207,142.7,97.9,0.482
28.4,31878.2,34866.8,-0.6497,-0.3265,142.7,97.9,0.482
28.42,31811.1,34652.0,-1.0098,-0.8552,142.7,97.9,0.482
28.44,31820.3,34645.6,-0.9606,-0.871,142.7,97.9,0.482
28.46,31821.5,34653.1,-0.9538,-0.8526,142.7,97.9,0.482
28.48,31846.0,34584.8,-0.8223,-1.0207,142.7,97.9,0.482
28.5,31692.7,34574.9,-1.6456,-1.0451,142.7,97.9,0.482
28.52,31750.6,34359.1,-1.3346,-1.5765,142.7,97.9,0.482
28.54,31793.8,34470.5,-1.103,-1.3021,142.7,97.9,0.482
28.56,31749.6,34701.1,-1.3403,-0.7344,142.7,97.9,0.482
28.58,31940.8,34876.9,-0.3135,-0.3016,142.7,97.9,0.482
28.6,32114.0,35218.7,0.6169,0.5399,142.7,97.9,0.482
28.62,32163.8,35561.1,0.8843,1.383,142.7,97.9,0.482
28.64,32392.1,35706.1,2.1102,1.7402,142.7,97.9,0.482
28.66,32280.1,35646.0,1.5085,1.5921,142.7,97.9,0.482
28.68,32288.9,35558.0,1.5557,1.3754,142.7,97.9,0.482
28.7,32164.3,35418.9,0.8869,1.0329,142.7,97.9,0.482
28.72,32105.1,35167.2,0.5689,0.4133,142.7,97.9,0.482
28.74,32046.0,35139.8,0.2513,0.3458,142.7,97.9,0.482
28.76,31970.3,35025.8,-0.1549,0.0651,142.7,97.9,0.482
28.78,31990.1,35030.9,-0.0489,0.0777,142.7,97.9,0.482
28.8,31969.7,34918.8,-0.158,-0.1984,142.7,97.9,0.482
28.82,31871.1,34741.9,-0.6879,-0.6339,142.7,97.9,0.482
28.84,31831.6,34620.3,-0.8997,-0.9333,142.7,97.9,0.482
28.86,31831.9,34670.0,-0.898,-0.8109,142.7,97.9,0.482
28.88,31814.9,34690.3,-0.9896,-0.761,142.7,97.9,0.482
28.9,31844.6,34595.7,-0.8301,-0.9938,142.7,97.9,0.482
28.92,31807.7,34575.7,-1.0279,-1.043,142.7,97.9,0.482
28.94,31812.7,34428.7,-1.0013,-1.405,142.7,97.9,0.482
28.96,31754.8,34443.4,-1.3124,-1.3688,142.7,97.9,0.482
28.98,31801.4,34610.0,-1.0622,-0.9587,142.7,97.9,0.482
29.0,32037.5,34838.5,0.2059,-0.396,142.7,97.9,0.482
29.02,32103.5,35315.7,0.5604,0.7787,142.7,97.9,0.482
29.04,32206.9,35547.7,1.1155,1.3501,142.7,97.9,0.482
29.06,32393.2,35803.0,2.1157,1.9786,142.7,97.9,0.482
29.08,32301.5,35715.8,1.6235,1.764,142.7,97.9,0.482
29.1,32198.1,35545.6,1.0681,1.345,142.7,97.9,0.482
29.12,32120.2,35356.1,0.6502,0.8783,142.7,97.9,0.482
29.14,32063.1,35195.6,0.3436,0.4832,142.7,97.9,0.482
29.16,32005.7,35157.9,0.0352,0.3903,142.7,97.9,0.482
29.18,32004.6,35081.1,0.0291,0.2013,142.7,97.9,0.482
29.2,32068.4,35052.9,0.3719,0.1319,142.7,97.9,0.482
29.22,31990.5,34943.0,-0.0464,-0.1388,142.7,97.9,0.482
29.24,31918.3,34727.3,-0.4344,-0.6699,142.7,97.9,0.482
29.26,31949.0,34733.0,-0.2694,-0.6559,142.7,97.9,0.482
29.28,31779.5,34765.1,-1.1796,-0.5769,142.7,97.9,0.482
29.3,31865.6,34745.3,-0.7174,-0.6255,142.7,97.9,0.482
29.32,31879.6,34585.7,-0.642,-1.0186,142.7,97.9,0.482
29.34,31873.4,34508.1,-0.6751,-1.2094,142.7,97.9,0.482
29.36,31775.7,34370.0,-1.1998,-1.5495,142.7,97.9,0.482
29.38,31742.7,34462.1,-1.3772,-1.3229,142.7,97.9,0.482
29.4,31881.9,34553.8,-0.6297,-1.097,142.7,97.9,0.482
29.42,31928.0,34840.8,-0.3821,-0.3905,142.7,97.9,0.482
29.44,32124.1,35154.2,0.671,0.3813,142.7,97.9,0.482
29.46,32275.7,35602.2,1.4851,1.4842,142.7,97.9,0.482
29.48,32223.6,35769.7,1.2051,1.8967,142.7,97.9,0.482
29.5,32390.3,35703.7,2.1002,1.7343,142.7,97.9,0.482
29.52,32301.9,35609.3,1.6259,1.5017,142.7,97.9,0.482
29.54,32157.2,35276.1,0.8486,0.6814,142.7,97.9,0.482
29.56,32033.9,35304.5,0.1866,0.7513,142.7,97.9,0.482
29.58,32121.1,35044.4,0.6547,0.1109,142.7,97.9,0.482
29.6,32033.1,35076.5,0.1823,0.19,142.7,97.9,0.482
29.62,32073.8,34935.6,0.4008,-0.1571,142.7,97.9,0.482
29.64,32032.2,34886.9,0.1774,-0.2769,142.7,97.9,0.482
29.66,31874.1,34706.5,-0.6714,-0.7211,142.7,97.9,0.482
29.68,31857.8,34763.1,-0.759,-0.5816,142.7,97.9,0.482
29.7,31846.5,34712.7,-0.82,-0.7059,142.7,97.9,0.482
29.72,31810.2,34642.0,-1.0146,-0.88,142.7,97.9,0.482
29.74,31861.1,34609.2,-0.7413,-0.9606,142.7,97.9,0.482
29.76,31873.1,34514.2,-0.6768,-1.1946,142.7,97.9,0.482
29.78,31770.4,34508.7,-1.2283,-1.2082,142.7,97.9,0.482
29.8,31763.0,34403.6,-1.268,-1.4668,142.7,97.9,0.482
29.82,31796.8,34559.9,-1.0865,-1.082,142.7,97.9,0.482
29.84,31864.0,34912.8,-0.7256,-0.2132,142.7,97.9,0.482
29.86,32157.9,35217.8,0.8526,0.5378,142.7,97.9,0.482
29.88,32193.7,35550.0,1.0448,1.3557,142.7,97.9,0.482
29.9,32363.7,35749.7,1.9576,1.8474,142.7,97.9,0.482
29.92,32350.8,35696.7,1.8883,1.717,142.7,97.9,0.482
29.94,32268.8,35551.3,1.4478,1.3589,142.7,97.9,0.482
29.96,32138.2,35402.4,0.7464,0.9923,142.7,97.9,0.482
29.98,32083.7,35144.9,0.4542,0.3584,142.7,97.9,0.482
30.0,31972.6,35178.6,-0.1429,0.4414,142.7,97.9,0.482
30.02,32126.1,35062.2,0.6814,0.1548,142.7,97.9,0.482
30.04,32018.6,35049.4,0.1042,0.1232,142.7,97.9,0.482
30.06,31853.9,34892.9,-0.78,-0.262,142.7,97.9,0.482
30.08,31918.3,34738.2,-0.4343,-0.6431,142.7,97.9,0.482
30.1,31856.4,34729.6,-0.7667,-0.6643,142.7,97.9,0.482
30.12,31929.0,34561.2,-0.3766,-1.0789,142.7,97.9,0.482
30.14,31800.3,34672.4,-1.068,-0.8051,142.7,97.9,0.482
30.16,31811.2,34709.7,-1.0093,-0.7132,142.7,97.9,0.482
30.18,31808.1,34537.6,-1.0261,-1.1368,142.7,97.9,0.482
30.2,31787.2,34484.3,-1.138,-1.2681,142.7,97.9,0.482
30.22,31785.5,34481.6,-1.1471,-1.2748,142.7,97.9,0.482
30.24,31797.7,34606.2,-1.082,-0.968,142.7,97.9,0.482
30.26,31948.5,34917.6,-0.2721,-0.2012,142.7,97.9,0.482
30.28,32126.7,35227.5,0.6846,0.5617,142.7,97.9,0.482
30.3,32209.8,35535.7,1.1313,1.3206,142.7,97.9,0.482
30.32,32349.1,35735.3,1.8794,1.812,142.7,97.9,0.482
30.34,32215.7,35744.9,1.1629,1.8355,142.7,97.9,0.482
30.36,32175.0,35563.0,0.9444,1.3878,142.7,97.9,0.482
30.38,32217.6,35378.0,1.173,0.9322,142.7,97.9,0.482
30.4,32142.5,35220.9,0.7697,0.5453,142.7,97.9,0.482
30.42,31926.4,35112.4,-0.3909,0.2784,142.7,97.9,0.482
30.44,31965.7,35063.5,-0.1797,0.1578,142.7,97.9,0.482
30.46,31885.6,34957.0,-0.61,-0.1044,142.7,97.9,0.482
30.48,31971.7,34819.5,-0.1474,-0.4428,142.7,97.9,0.482
30.5,31817.6,34843.3,-0.9749,-0.3843,142.7,97.9,0.482
30.52,31947.8,34753.7,-0.276,-0.6049,142.7,97.9,0.482
30.54,31806.5,34538.0,-1.0344,-1.1358,142.7,97.9,0.482
30.56,31906.7,34539.7,-0.4964,-1.1317,142.7,97.9,0.482
30.58,31811.4,34656.9,-1.0081,-0.8432,142.7,97.9,0.482
30.6,31854.2,34476.8,-0.7785,-1.2865,142.7,97.9,0.482
30.62,31794.5,34536.7,-1.099,-1.1392,142.7,97.9,0.482
30.64,31730.2,34420.4,-1.4445,-1.4255,142.7,97.9,0.482
30.66,31815.5,34547.2,-0.9862,-1.1132,142.7,97.9,0.482
30.68,31912.8,34943.3,-0.4638,-0.1381,142.7,97.9,0.482
30.7,32060.4,35257.1,0.3289,0.6347,142.7,97.9,0.482
30.72,32282.1,35545.8,1.5195,1.3454,142.7,97.9,0.482
30.74,32344.3,35668.8,1.8536,1.6481,142.7,97.9,0.482
30.76,32290.1,35706.0,1.5624,1.7398,142.7,97.9,0.482
30.78,32204.1,35481.0,1.1006,1.186,142.7,97.9,0.482
30.8,32121.8,35425.7,0.6584,1.0497,142.7,97.9,0.482
30.82,32038.7,35182.7,0.2125,0.4515,142.7,97.9,0.482
30.84,32047.1,35049.3,0.2573,0.123,142.7,97.9,0.482
30.86,31949.7,35121.0,-0.2654,0.2994,142.7,97.9,0.482
30.88,32040.0,35053.0,0.2191,0.1322,142.7,97.9,0.482
30.9,31914.9,34971.9,-0.4522,-0.0675,142.7,97.9,0.482
30.92,31862.9,34835.0,-0.7319,-0.4048,142.7,97.9,0.482
30.94,31855.7,34656.7,-0.7705,-0.8436,142.7,97.9,0.482
30.96,31819.3,34789.0,-0.9658,-0.5179,142.7,97.9,0.482
30.98,31866.9,34729.9,-0.7102,-0.6635,142.7,97.9,0.482
31.0,31851.0,34651.4,-0.7955,-0.8568,142.7,97.9,0.482
31.02,31737.3,34550.1,-1.4064,-1.106,142.7,97.9,0.482
31.04,31823.5,34419.4,-0.9435,-1.428,142.7,97.9,0.482
31.06,31717.8,34447.9,-1.5109,-1.3579,142.7,97.9,0.482
31.08,31770.1,34498.7,-1.2299,-1.2326,142.7,97.9,0.482
31.1,31912.5,34884.2,-0.4653,-0.2837,142.7,97.9,0.482
31.12,32149.7,35249.0,0.8083,0.6147,142.7,97.9,0.482
31.14,32259.6,35555.1,1.3988,1.3683,142.7,97.9,0.482
31.16,32332.9,35844.2,1.792,2.0802,142.7,97.9,0.482
31.18,32343.5,35825.1,1.8492,2.0329,142.7,97.9,0.482
31.2,32213.5,35632.4,1.151,1.5587,142.7,97.9,0.482
31.22,32172.0,35353.4,0.928,0.8717,142.7,97.9,0.482
31.24,32178.0,35216.7,0.9601,0.5351,142.7,97.9,0.482
31.26,32067.9,35107.0,0.3693,0.265,142.7,97.9,0.482
31.28,32026.4,34956.7,0.1463,-0.105,142.7,97.9,0.482
31.3,32051.2,34988.0,0.2794,-0.0281,142.7,97.9,0.482
31.32,31891.3,34912.4,-0.5791,-0.2141,142.7,97.9,0.482
31.34,31904.6,34874.1,-0.5079,-0.3084,142.7,97.9,0.482
31.36,31872.3,34686.7,-0.6814,-0.7699,142.7,97.9,0.482
31.38,32000.0,34748.5,0.0045,-0.6177,142.7,97.9,0.482
31.4,31860.2,34663.2,-0.7463,-0.8277,142.7,97.9,0.482
31.42,31898.7,34699.0,-0.5395,-0.7396,142.7,97.9,0.482
31.44,31758.9,34554.1,-1.2904,-1.0963,142.7,97.9,0.482
31.46,31772.7,34463.6,-1.216,-1.3191,142.7,97.9,0.482
31.48,31670.6,34426.5,-1.7644,-1.4104,142.7,97.9,0.482
31.5,31935.3,34593.7,-0.3432,-0.9988,142.7,97.9,0.482
31.52,31906.8,34854.1,-0.496,-0.3578,142.7,97.9,0.482
31.54,32068.1,35155.6,0.37,0.3846,142.7,97.9,0.482
31.56,32255.6,35519.1,1.377,1.2795,142.7,97.9,0.482
31.58,32341.2,35754.0,1.8367,1.8581,142.7,97.9,0.482
31.6,32424.4,35777.5,2.2833,1.9158,142.7,97.9,0.482
31.62,32307.2,35581.6,1.654,1.4334,142.7,97.9,0.482
31.64,32151.7,35355.7,0.819,0.8773,142.7,97.9,0.482
31.66,32067.6,35303.1,0.3673,0.7477,142.7,97.9,0.482
31.68,32114.6,35138.8,0.6197,0.3433,142.7,97.9,0.482
31.7,31984.0,35031.9,-0.0814,0.0801,142.7,97.9,0.482
31.72,32046.6,35008.9,0.255,0.0235,142.7,97.9,0.482
31.74,31906.8,34881.8,-0.496,-0.2893,142.7,97.9,0.482
31.76,31899.2,34872.1,-0.5369,-0.3133,142.7,97.9,0.482
31.78,31915.1,34687.7,-0.4514,-0.7674,142.7,97.9,0.482
31.8,31854.2,34664.1,-0.7787,-0.8254,142.7,97.9,0.482
31.82,31822.9,34720.5,-0.9465,-0.6866,142.7,97.9,0.482
31.84,31870.1,34591.6,-0.6932,-1.0039,142.7,97.9,0.482
31.86,31722.6,34531.6,-1.485,-1.1517,142.7,97.9,0.482
31.88,31761.9,34453.8,-1.2739,-1.3432,142.7,97.9,0.482
31.9,31838.9,34469.2,-0.8603,-1.3054,142.7,97.9,0.482
31.92,31798.4,34495.2,-1.0782,-1.2412,142.7,97.9,0.482
31.94,31990.1,34875.1,-0.0485,-0.306,142.7,97.9,0.482
31.96,32093.2,35254.7,0.505,0.6286,142.7,97.9,0.482
31.98,32213.8,35550.4,1.1526,1.3567,142.7,97.9,0.482
32.0,32232.5,35720.4,1.2528,1.7753,142.7,97.9,0.482
32.02,32235.8,35756.0,1.2708,1.863,142.7,97.9,0.482
32.04,32262.4,35664.3,1.4133,1.6371,142.7,97.9,0.482
32.06,32157.5,35436.1,0.8502,1.0752,142.7,97.9,0.482
32.08,32136.6,35234.5,0.7379,0.579,142.7,97.9,0.482
32.1,31993.6,35129.7,-0.0297,0.3209,142.7,97.9,0.482
32.12,31983.5,35155.6,-0.0841,0.3846,142.7,97.9,0.482
32.14,32026.8,34969.2,0.1481,-0.0743,142.7,97.9,0.482
32.16,31924.7,34866.1,-0.4,-0.3281,142.7,97.9,0.482
32.18,31856.2,34762.3,-0.7679,-0.5837,142.7,97.9,0.482
32.2,31897.3,34714.4,-0.5468,-0.7017,142.7,97.9,0.482
32.22,31846.0,34694.8,-0.8224,-0.75,142.7,97.9,0.482
32.24,31830.8,34696.0,-0.9042,-0.7468,142.7,97.9,0.482
32.26,31854.9,34648.6,-0.7745,-0.8635,142.7,97.9,0.482
32.28,31889.9,34596.6,-0.587,-0.9917,142.7,97.9,0.482
32.3,31791.5,34576.8,-1.1153,-1.0404,142.7,97.9,0.482
32.32,31828.2,34497.9,-0.918,-1.2346,142.7,97.9,0.482
32.34,31816.3,34565.8,-0.9818,-1.0674,142.7,97.9,0.482
32.36,31800.4,34812.0,-1.0673,-0.4614,142.7,97.9,0.482
32.38,32031.1,35182.6,0.1717,0.4511,142.7,97.9,0.482
32.4,32180.3,35486.8,0.9726,1.2001,142.7,97.9,0.482
32.42,32334.0,35703.9,1.7982,1.7347,142.7,97.9,0.482
32.44,32373.7,35735.6,2.0114,1.8126,142.7,97.9,0.482
32.46,32214.4,35647.4,1.1559,1.5956,142.7,97.9,0.482
32.48,32192.6,35353.7,1.0386,0.8725,142.7,97.9,0.482
32.5,32102.9,35309.0,0.5573,0.7623,142.7,97.9,0.482
32.52,32119.3,35192.4,0.6452,0.4753,142.7,97.9,0.482
32.54,31952.1,35006.6,-0.2526,0.0177,142.7,97.9,0.482
32.56,32094.6,34957.1,0.5125,-0.1041,142.7,97.9,0.482
32.58,31853.0,34934.1,-0.7848,-0.1606,142.7,97.9,0.482
32.6,31931.5,34858.2,-0.3636,-0.3476,142.7,97.9,0.482
32.62,31843.7,34757.1,-0.835,-0.5965,142.7,97.9,0.482
32.64,31833.1,34639.6,-0.8919,-0.8859,142.7,97.9,0.482
32.66,31919.3,34613.2,-0.4286,-0.9508,142.7,97.9,0.482
32.68,31914.0,34699.0,-0.4575,-0.7395,142.7,97.9,0.482
32.7,31768.1,34619.6,-1.2407,-0.9349,142.7,97.9,0.482
32.72,31790.5,34461.5,-1.1204,-1.3243,142.7,97.9,0.482
32.74,31827.1,34331.6,-0.9237,-1.6442,142.7,97.9,0.482
32.76,31863.6,34607.5,-0.7278,-0.9649,142.7,97.9,0.482
32.78,31903.3,34899.3,-0.5149,-0.2463,142.7,97.9,0.482
32.8,32024.8,35214.6,0.1378,0.53,142.7,97.9,0.482
32.82,32307.5,35519.3,1.6557,1.2801,142.7,97.9,0.482
32.84,32334.0,35786.5,1.798,1.9379,142.7,97.9,0.482
32.86,32320.1,35723.9,1.7234,1.784,142.7,97.9,0.482
32.88,32225.9,35572.8,1.2174,1.4119,142.7,97.9,0.482
32.9,32243.1,35440.7,1.3098,1.0866,142.7,97.9,0.482
32.92,32103.5,35231.5,0.5604,0.5715,142.7,97.9,0.482
32.94,32109.4,35133.0,0.5918,0.329,142.7,97.9,0.482
32.96,32165.4,35015.1,0.8929,0.0388,142.7,97.9,0.482
32.98,31944.4,35049.0,-0.2939,0.1223,142.7,97.9,0.482
33.0,31993.8,34968.3,-0.0286,-0.0765,142.7,97.9,0.482
33.02,31916.9,34817.2,-0.4416,-0.4485,142.7,97.9,0.482
33.04,31909.0,34837.7,-0.4843,-0.3981,142.7,97.9,0.482
33.06,31878.9,34613.3,-0.6459,-0.9505,142.7,97.9,0.482
33.08,31840.6,34738.2,-0.8515,-0.6431,142.7,97.9,0.482
33.1,31781.1,34549.3,-1.171,-1.1082,142.7,97.9,0.482
33.12,31748.9,34558.3,-1.3441,-1.086,142.7,97.9,0.482
33.14,31742.6,34534.8,-1.3779,-1.1439,142.7,97.9,0.482
33.16,31775.4,34541.6,-1.2014,-1.1271,142.7,97.9,0.482
33.18,31764.7,34543.6,-1.259,-1.1221,142.7,97.9,0.482
33.2,32039.5,34713.1,0.2168,-0.7048,142.7,97.9,0.482
33.22,32068.3,35129.0,0.3711,0.3193,142.7,97.9,0.482
33.24,32195.5,35460.5,1.0541,1.1355,142.7,97.9,0.482
33.26,32327.7,35732.5,1.764,1.805,142.7,97.9,0.482
33.28,32321.8,35773.0,1.7327,1.9047,142.7,97.9,0.482
33.3,32237.5,35637.2,1.28,1.5705,142.7,97.9,0.482
33.32,32206.3,35387.1,1.1124,0.9546,142.7,97.9,0.482
33.34,32080.7,35132.2,0.4379,0.3271,142.7,97.9,0.482
33.36,32056.9,35063.8,0.3101,0.1586,142.7,97.9,0.482
33.38,32125.7,35128.3,0.6794,0.3174,142.7,97.9,0.482
33.4,32036.2,35018.5,0.1991,0.0472,142.7,97.9,0.482
33.42,31966.4,34949.0,-0.1758,-0.124,142.7,97.9,0.482
33.44,31985.8,34782.4,-0.0719,-0.5342,142.7,97.9,0.482
33.46,31841.8,34668.7,-0.8451,-0.8141,142.7,97.9,0.482
33.48,31767.7,34694.9,-1.2432,-0.7496,142.7,97.9,0.482
33.5,31870.2,34709.1,-0.6926,-0.7147,142.7,97.9,0.482
33.52,31810.1,34671.5,-1.0152,-0.8072,142.7,97.9,0.482
33.54,31870.1,34509.0,-0.6931,-1.2073,142.7,97.9,0.482
33.56,31786.2,34508.3,-1.1438,-1.2091,142.7,97.9,0.482
33.58,31755.0,34474.7,-1.3109,-1.2918,142.7,97.9,0.482
33.6,31760.9,34456.4,-1.2796,-1.3368,142.7,97.9,0.482
33.62,32022.6,34870.7,0.126,-0.3169,142.7,97.9,0.482
33.64,32069.5,35112.0,0.3776,0.2772,142.7,97.9,0.482
33.66,32307.1,35499.8,1.6534,1.2321,142.7,97.9,0.482
33.68,32330.4,35720.0,1.7786,1.7743,142.7,97.9,0.482
33.7,32399.5,35815.7,2.1495,2.0099,142.7,97.9,0.482
33.72,32304.6,35562.6,1.64,1.3868,142.7,97.9,0.482
33.74,32153.5,35452.0,0.8287,1.1145,142.7,97.9,0.482
33.76,32056.6,35294.4,0.3084,0.7264,142.7,97.9,0.482
33.78,32111.5,35146.4,0.603,0.3619,142.7,97.9,0.482
33.8,31996.0,35064.9,-0.0168,0.1614,142.7,97.9,0.482
33.82,31989.8,35070.0,-0.0502,0.174,142.7,97.9,0.482
33.84,31938.7,34903.3,-0.3246,-0.2366,142.7,97.9,0.482
33.86,31927.8,34897.3,-0.3831,-0.2513,142.7,97.9,0.482
33.88,31906.7,34733.3,-0.4962,-0.655,142.7,97.9,0.482
33.9,31925.3,34633.8,-0.3968,-0.8999,142.7,97.9,0.482
33.92,31756.0,34700.5,-1.306,-0.7359,142.7,97.9,0.482
33.94,31779.8,34682.7,-1.1781,-0.7797,142.7,97.9,0.482
33.96,31838.2,34529.2,-0.8641,-1.1577,142.7,97.9,0.482
33.98,31746.2,34526.2,-1.3581,-1.1649,142.7,97.9,0.482
34.0,31743.7,34349.2,-1.3716,-1.6007,142.7,97.9,0.482
34.02,31777.4,34505.1,-1.191,-1.217,142.7,97.9,0.482
34.04,31806.8,34750.6,-1.033,-0.6124,142.7,97.9,0.482
34.06,32118.6,35129.0,0.6415,0.3193,142.7,97.9,0.482
34.08,32243.6,35439.5,1.3127,1.0836,142.7,97.9,0.482
34.1,32340.9,35777.4,1.8351,1.9155,142.7,97.9,0.482
34.12,32409.6,35722.4,2.204,1.7801,142.7,97.9,0.482
34.14,32306.7,35568.8,1.6514,1.402,142.7,97.9,0.482
34.16,32232.3,35446.3,1.2518,1.1004,142.7,97.9,0.482
34.18,32032.6,35132.4,0.1798,0.3276,142.7,97.9,0.482
34.2,32146.6,35149.9,0.7915,0.3707,142.7,97.9,0.482
34.22,31978.3,35136.6,-0.1122,0.3379,142.7,97.9,0.482
34.24,31974.8,35017.2,-0.1306,0.044,142.7,97.9,0.482
34.26,32031.6,35002.8,0.1742,0.0083,142.7,97.9,0.482
34.28,31901.5,34821.9,-0.5244,-0.4368,142.7,97.9,0.482
34.3,31797.2,34752.9,-1.0846,-0.6068,142.7,97.9,0.482
34.32,31841.6,34655.5,-0.8461,-0.8466,142.7,97.9,0.482
34.34,31779.7,34747.2,-1.1785,-0.621,142.7,97.9,0.482
34.36,31852.9,34611.5,-0.7856,-0.955,142.7,97.9,0.482
34.38,31866.4,34653.0,-0.7129,-0.8528,142.7,97.9,0.482
34.4,31697.6,34550.0,-1.6194,-1.1063,142.7,97.9,0.482
34.42,31733.1,34469.8,-1.4285,-1.3038,142.7,97.9,0.482
34.44,31915.4,34481.0,-0.4498,-1.2762,142.7,97.9,0.482
34.46,31861.6,34841.8,-0.7389,-0.388,142.7,97.9,0.482
34.48,31993.2,35151.2,-0.032,0.3739,142.7,97.9,0.482
34.5,32274.0,35506.1,1.4757,1.2477,142.7,97.9,0.482
34.52,32344.8,35802.3,1.8562,1.977,142.7,97.9,0.482
34.54,32379.0,35683.1,2.0394,1.6835,142.7,97.9,0.482
34.56,32337.7,35727.1,1.818,1.7917,142.7,97.9,0.482
34.58,32241.3,35457.6,1.3003,1.1283,142.7,97.9,0.482
34.6,32074.0,35294.8,0.4019,0.7274,142.7,97.9,0.482
34.62,32003.5,35209.1,0.023,0.5164,142.7,97.9,0.482
34.64,32028.1,35052.8,0.1551,0.1316,142.7,97.9,0.482
34.66,32043.0,34969.1,0.2354,-0.0746,142.7,97.9,0.482
34.68,31981.2,34916.9,-0.0965,-0.203,142.7,97.9,0.482
34.7,31992.4,34881.2,-0.0365,-0.2908,142.7,97.9,0.482
34.72,31822.1,34722.9,-0.9509,-0.6806,142.7,97.9,0.482
34.74,31844.8,34663.6,-0.8288,-0.8266,142.7,97.9,0.482
34.76,31798.1,34688.5,-1.0799,-0.7653,142.7,97.9,0.482
34.78,31861.7,34711.9,-0.738,-0.7077,142.7,97.9,0.482
34.8,31845.0,34601.3,-0.8276,-0.98,142.7,97.9,0.482
34.82,31813.0,34482.4,-0.9996,-1.2728,142.7,97.9,0.482
34.84,31743.9,34463.2,-1.3705,-1.32,142.7,97.9,0.482
34.86,31847.7,34540.7,-0.8136,-1.1292,142.7,97.9,0.482
34.88,31878.4,34785.0,-0.6484,-0.5278,142.7,97.9,0.482
34.9,32167.6,35047.2,0.9047,0.1178,142.7,97.9,0.482
34.92,32241.8,35465.6,1.3028,1.1478,142.7,97.9,0.482
34.94,32324.2,35697.7,1.7452,1.7194,142.7,97.9,0.482
34.96,32394.6,35680.4,2.1237,1.6768,142.7,97.9,0.482
34.98,32292.2,35549.2,1.5735,1.3538,142.7,97.9,0.482
35.0,32202.9,35378.7,1.0942,0.934,142.7,97.9,0.482
35.02,32056.8,35228.8,0.3095,0.5648,142.7,97.9,0.482
35.04,31988.7,35163.5,-0.0561,0.4041,142.7,97.9,0.482
35.06,32092.3,35054.0,0.4999,0.1345,142.7,97.9,0.482
35.08,31995.5,35052.0,-0.0198,0.1296,142.7,97.9,0.482
35.1,31997.9,34956.2,-0.0068,-0.1064,142.7,97.9,0.482
35.12,31891.6,34870.2,-0.5773,-0.3179,142.7,97.9,0.482
35.14,31774.0,34751.3,-1.2093,-0.6108,142.7,97.9,0.482
35.16,31903.3,34717.2,-0.5147,-0.6948,142.7,97.9,0.482
35.18,31843.5,34658.7,-0.8359,-0.8387,142.7,97.9,0.482
35.2,31814.7,34545.2,-0.9906,-1.1183,142.7,97.9,0.482
35.22,31888.4,34515.7,-0.5947,-1.1909,142.7,97.9,0.482
35.24,31799.3,34498.7,-1.0734,-1.2328,142.7,97.9,0.482
35.26,31723.4,34428.2,-1.4806,-1.4063,142.7,97.9,0.482
35.28,31775.6,34525.0,-1.2004,-1.1679,142.7,97.9,0.482
35.3,31946.2,34795.5,-0.2845,-0.5018,142.7,97.9,0.482
35.32,32125.4,35157.6,0.678,0.3896,142.7,97.9,0.482
35.34,32178.8,35541.7,0.9649,1.3354,142.7,97.9,0.482
35.36,32244.8,35789.7,1.319,1.9458,142.7,97.9,0.482
35.38,32340.4,35746.3,1.8322,1.839,142.7,97.9,0.482
35.4,32289.5,35612.2,1.559,1.5088,142.7,97.9,0.482
35.42,32149.9,35422.7,0.8094,1.0424,142.7,97.9,0.482
35.44,32111.5,35286.2,0.6031,0.7062,142.7,97.9,0.482
35.46,32114.0,35113.3,0.6165,0.2806,142.7,97.9,0.482
35.48,32141.8,35168.4,0.7657,0.4162,142.7,97.9,0.482
35.5,31991.7,34981.8,-0.0402,-0.0432,142.7,97.9,0.482
35.52,31973.4,34949.7,-0.1382,-0.1222,142.7,97.9,0.482
35.54,31953.1,34929.6,-0.2472,-0.1718,142.7,97.9,0.482
35.56,31884.7,34739.3,-0.6144,-0.6404,142.7,97.9,0.482
35.58,31825.9,34729.3,-0.9306,-0.665,142.7,97.9,0.482
35.6,31833.6,34666.1,-0.889,-0.8207,142.7,97.9,0.482
35.62,31812.8,34635.4,-1.001,-0.8961,142.7,97.9,0.482
35.64,31837.4,34545.0,-0.8686,-1.1188,142.7,97.9,0.482
35.66,31693.6,34429.2,-1.6409,-1.4038,142.7,97.9,0.482
35.68,31682.4,34474.6,-1.7009,-1.2921,142.7,97.9,0.482
35.7,31838.6,34564.3,-0.8624,-1.0712,142.7,97.9,0.482
35.72,31931.6,34751.7,-0.3631,-0.6098,142.7,97.9,0.482
35.74,32025.8,35197.4,0.1429,0.4875,142.7,97.9,0.482
35.76,32139.4,35474.0,0.7529,1.1686,142.7,97.9,0.482
35.78,32237.9,35794.2,1.2818,1.9569,142.7,97.9,0.482
35.8,32316.7,35888.8,1.7049,2.1899,142.7,97.9,0.482
35.82,32208.6,35629.5,1.1247,1.5516,142.7,97.9,0.482
35.84,32148.0,35425.4,0.7992,1.049,142.7,97.9,0.482
35.86,32102.5,35295.2,0.5548,0.7283,142.7,97.9,0.482
35.88,32095.1,35108.5,0.5149,0.2686,142.7,97.9,0.482
35.9,31998.8,35048.9,-0.002,0.1221,142.7,97.9,0.482
35.92,31991.4,35092.8,-0.0415,0.2301,142.7,97.9,0.482
35.94,31983.2,35079.9,-0.0855,0.1984,142.7,97.9,0.482
35.96,31919.2,34899.5,-0.4292,-0.2459,142.7,97.9,0.482
35.98,31854.8,34741.8,-0.7753,-0.6342,142.7,97.9,0.482
36.0,31776.5,34729.9,-1.1954,-0.6635,142.7,97.9,0.482
36.02,31949.9,34605.9,-0.2647,-0.9687,142.7,97.9,0.482
36.04,31901.3,34671.2,-0.5256,-0.8079,142.7,97.9,0.482
36.06,31872.0,34616.2,-0.6828,-0.9433,142.7,97.9,0.482
36.08,31788.5,34480.1,-1.1313,-1.2786,142.7,97.9,0.482
36.1,31669.9,34426.2,-1.768,-1.4112,142.7,97.9,0.482
36.12,31799.6,34513.5,-1.0716,-1.1961,142.7,97.9,0.482
36.14,31835.3,34740.5,-0.8799,-0.6374,142.7,97.9,0.482
36.16,32053.6,35110.6,0.2922,0.2739,142.7,97.9,0.482
36.18,32184.3,35432.8,0.9942,1.0672,142.7,97.9,0.482
36.2,32300.2,35702.0,1.6165,1.7299,142.7,97.9,0.482
36.22,32469.7,35720.4,2.5269,1.7753,142.7,97.9,0.482
36.24,32325.3,35661.5,1.7511,1.6303,142.7,97.9,0.482
36.26,32200.6,35422.8,1.0815,1.0424,142.7,97.9,0.482
36.28,32024.9,35182.2,0.138,0.4501,142.7,97.9,0.482
36.3,32057.4,35146.7,0.3125,0.3628,142.7,97.9,0.482
36.32,32099.2,35026.6,0.537,0.067,142.7,97.9,0.482
36.34,32019.1,35071.2,0.1072,0.1768,142.7,97.9,0.482
36.36,31980.0,34979.4,-0.1027,-0.0491,142.7,97.9,0.482
36.38,31962.9,34830.4,-0.1948,-0.416,142.7,97.9,0.482
36.4,31796.6,34704.2,-1.088,-0.7268,142.7,97.9,0.482
36.42,31889.3,34652.3,-0.5901,-0.8546,142.7,97.9,0.482
36.44,31846.1,34702.4,-0.8217,-0.7312,142.7,97.9,0.482
36.46,31736.4,34550.3,-1.4109,-1.1056,142.7,97.9,0.482
36.48,31763.2,34593.4,-1.267,-0.9995,142.7,97.9,0.482
36.5,31845.1,34481.6,-0.827,-1.2748,142.7,97.9,0.482
36.52,31782.3,34426.2,-1.1645,-1.4111,142.7,97.9,0.482
36.54,31872.0,34536.9,-0.6827,-1.1386,142.7,97.9,0.482
36.56,31866.1,34760.7,-0.7144,-0.5876,142.7,97.9,0.482
36.58,31983.0,35099.6,-0.0869,0.2468,142.7,97.9,0.482
36.6,32271.7,35415.7,1.4633,1.0251,142.7,97.9,0.482
36.62,32323.0,35669.2,1.7389,1.6491,142.7,97.9,0.482
36.64,32336.0,35669.3,1.8086,1.6495,142.7,97.9,0.482
36.66,32295.6,35653.4,1.5918,1.6104,142.7,97.9,0.482
36.68,32159.5,35426.8,0.861,1.0523,142.7,97.9,0.482
36.7,32030.7,35235.3,0.1695,0.581,142.7,97.9,0.482
36.72,32057.9,35199.4,0.3154,0.4926,142.7,97.9,0.482
36.74,32079.1,35074.6,0.4291,0.1852,142.7,97.9,0.482
36.76,32021.2,34976.6,0.1186,-0.056,142.7,97.9,0.482
36.78,31940.9,34974.5,-0.3129,-0.0612,142.7,97.9,0.482
36.8,31942.2,34891.5,-0.306,-0.2655,142.7,97.9,0.482
36.82,31902.5,34688.2,-0.5193,-0.7661,142.7,97.9,0.482
36.84,31959.2,34704.2,-0.2147,-0.7268,142.7,97.9,0.482
36.86,31810.9,34681.7,-1.0111,-0.7821,142.7,97.9,0.482
36.88,31853.9,34601.2,-0.7799,-0.9803,142.7,97.9,0.482
36.9,31742.2,34633.9,-1.3797,-0.8998,142.7,97.9,0.482
36.92,31658.2,34494.8,-1.8309,-1.2423,142.7,97.9,0.482
36.94,31724.4,34405.8,-1.4757,-1.4614,142.7,97.9,0.482
36.96,31742.0,34387.0,-1.3809,-1.5077,142.7,97.9,0.482
36.98,31971.5,34740.3,-0.1486,-0.6378,142.7,97.9,0.482
37.0,32011.6,35160.3,0.0669,0.3962,142.7,97.9,0.482
37.02,32232.5,35412.7,1.2528,1.0176,142.7,97.9,0.482
37.04,32266.3,35714.9,1.4343,1.7618,142.7,97.9,0.482
37.06,32338.1,35744.9,1.8203,1.8356,142.7,97.9,0.482
37.08,32331.3,35678.4,1.7837,1.6718,142.7,97.9,0.482
37.1,32263.0,35367.2,1.4167,0.9056,142.7,97.9,0.482
37.12,32051.5,35246.1,0.281,0.6076,142.7,97.9,0.482
37.14,32104.5,35058.5,0.5658,0.1457,142.7,97.9,0.482
37.16,32052.8,35179.2,0.2881,0.4428,142.7,97.9,0.482
37.18,31965.3,34949.1,-0.1819,-0.1237,142.7,97.9,0.482
37.2,31959.7,34927.8,-0.2118,-0.1763,142.7,97.9,0.482
37.22,32008.4,34804.3,0.0498,-0.4802,142.7,97.9,0.482
37.24,31974.9,34765.3,-0.1305,-0.5763,142.7,97.9,0.482
37.26,31909.5,34677.0,-0.4816,-0.7938,142.7,97.9,0.482
37.28,31923.7,34735.7,-0.4051,-0.6492,142.7,97.9,0.482
37.3,31865.0,34623.0,-0.7204,-0.9267,142.7,97.9,0.482
37.32,31851.5,34580.6,-0.7927,-1.031,142.7,97.9,0.482
37.34,31792.8,34520.2,-1.1082,-1.1797,142.7,97.9,0.482
37.36,31852.6,34450.4,-0.787,-1.3516,142.7,97.9,0.482
37.38,31788.7,34532.9,-1.1303,-1.1485,142.7,97.9,0.482
37.4,31912.6,34683.9,-0.4647,-0.7767,142.7,97.9,0.482
37.42,31973.1,35063.2,-0.1398,0.1572,142.7,97.9,0.482
37.44,32208.3,35357.0,1.1233,0.8805,142.7,97.9,0.482
37.46,32327.0,35640.1,1.7603,1.5776,142.7,97.9,0.482
37.48,32346.7,35797.4,1.866,1.9648,142.7,97.9,0.482
37.5,32384.2,35649.8,2.0674,1.6014,142.7,97.9,0.482
37.52,32141.6,35460.0,0.7648,1.1342,142.7,97.9,0.482
37.54,32151.4,35247.4,0.8174,0.6108,142.7,97.9,0.482
37.56,32027.1,35137.3,0.1501,0.3396,142.7,97.9,0.482
37.58,32162.1,35049.1,0.8751,0.1225,142.7,97.9,0.482
37.6,32087.6,35140.9,0.4748,0.3485,142.7,97.9,0.482
37.62,31969.0,34967.6,-0.1622,-0.0783,142.7,97.9,0.482
37.64,31928.7,34826.3,-0.3784,-0.4262,142.7,97.9,0.482
37.66,31932.7,34807.5,-0.357,-0.4723,142.7,97.9,0.482
37.68,31865.6,34706.7,-0.717,-0.7207,142.7,97.9,0.482
37.7,31838.5,34740.9,-0.8629,-0.6363,142.7,97.9,0.482
37.72,31947.9,34553.6,-0.2752,-1.0974,142.7,97.9,0.482
37.74,31750.6,34633.2,-1.3348,-0.9014,142.7,97.9,0.482
37.76,31748.3,34438.0,-1.3469,-1.3821,142.7,97.9,0.482
37.78,31804.6,34428.4,-1.0448,-1.4057,142.7,97.9,0.482
37.8,31730.3,34532.0,-1.4438,-1.1506,142.7,97.9,0.482
37.82,31897.5,34762.2,-0.5458,-0.5838,142.7,97.9,0.482
37.84,32033.9,35077.1,0.1866,0.1915,142.7,97.9,0.482
37.86,32181.5,35332.8,0.979,0.821,142.7,97.9,0.482
37.88,32313.2,35655.3,1.6863,1.615,142.7,97.9,0.482
37.9,32303.0,35813.5,1.6318,2.0044,142.7,97.9,0.482
37.92,32328.1,35660.6,1.7664,1.628,142.7,97.9,0.482
37.94,32159.5,35433.6,0.8608,1.0692,142.7,97.9,0.482
37.96,32112.1,35266.3,0.6067,0.6573,142.7,97.9,0.482
37.98,32111.5,35126.2,0.6032,0.3124,142.7,97.9,0.482
38.0,32034.5,35135.9,0.1897,0.3363,142.7,97.9,0.482
38.02,31987.3,35092.5,-0.0634,0.2294,142.7,97.9,0.482
38.04,31988.6,34958.5,-0.0565,-0.1005,142.7,97.9,0.482
38.06,31938.7,34889.8,-0.3248,-0.2697,142.7,97.9,0.482
38.08,31881.6,34754.9,-0.6311,-0.6019,142.7,97.9,0.482
38.1,31862.5,34703.2,-0.7338,-0.7292,142.7,97.9,0.482
38.12,31886.7,34704.7,-0.604,-0.7256,142.7,97.9,0.482
38.14,31823.9,34634.6,-0.9409,-0.8982,142.7,97.9,0.482
38.16,31908.9,34584.5,-0.4849,-1.0215,142.7,97.9,0.482
38.18,31788.2,34458.1,-1.1329,-1.3327,142.7,97.9,0.482
38.2,31729.5,34478.6,-1.4481,-1.2822,142.7,97.9,0.482
38.22,31776.7,34576.2,-1.1945,-1.042,142.7,97.9,0.482
38.24,31970.2,34635.9,-0.1555,-0.8949,142.7,97.9,0.482
38.26,32087.0,35053.4,0.4715,0.1331,142.7,97.9,0.482
38.28,32123.2,35430.6,0.6659,1.0617,142.7,97.9,0.482
38.3,32340.4,35684.2,1.8323,1.6862,142.7,97.9,0.482
38.32,32313.9,35818.9,1.6903,2.0178,142.7,97.9,0.482
38.34,32296.9,35573.4,1.5986,1.4134,142.7,97.9,0.482
38.36,32136.9,35550.8,0.7399,1.3578,142.7,97.9,0.482
38.38,32085.7,35214.8,0.4649,0.5305,142.7,97.9,0.482
38.4,32125.9,35244.7,0.6805,0.604,142.7,97.9,0.482
38.42,31999.1,35063.6,-0.0003,0.1582,142.7,97.9,0.482
38.44,31995.3,35079.8,-0.0206,0.198,142.7,97.9,0.482
38.46,31961.3,34906.3,-0.2031,-0.2292,142.7,97.9,0.482
38.48,31995.0,34796.1,-0.0222,-0.5005,142.7,97.9,0.482
38.5,31881.2,34758.1,-0.6334,-0.5939,142.7,97.9,0.482
38.52,31800.5,34657.1,-1.0666,-0.8428,142.7,97.9,0.482
38.54,31782.5,34636.5,-1.1633,-0.8935,142.7,97.9,0.482
38.56,31944.3,34668.9,-0.2945,-0.8137,142.7,97.9,0.482
38.58,31906.9,34624.3,-0.4952,-0.9235,142.7,97.9,0.482
38.6,31870.3,34570.1,-0.6919,-1.0569,142.7,97.9,0.482
38.62,31819.0,34524.4,-0.9677,-1.1694,142.7,97.9,0.482
38.64,31707.8,34526.5,-1.5648,-1.1643,142.7,97.9,0.482
38.66,31878.7,34826.0,-0.6469,-0.4269,142.7,97.9,0.482
38.68,32078.8,35075.7,0.4274,0.188,142.7,97.9,0.482
38.7,32231.3,35387.8,1.2466,0.9564,142.7,97.9,0.482
38.72,32331.0,35625.8,1.7821,1.5424,142.7,97.9,0.482
38.74,32331.4,35730.9,1.7838,1.801,142.7,97.9,0.482
38.76,32297.1,35675.2,1.5998,1.6639,142.7,97.9,0.482
38.78,32248.4,35420.6,1.3381,1.037,142.7,97.9,0.482
38.8,32048.7,35293.1,0.266,0.7233,142.7,97.9,0.482
38.82,32087.0,35195.7,0.4717,0.4833,142.7,97.9,0.482
38.84,32015.5,35060.1,0.0876,0.1495,142.7,97.9,0.482
38.86,31978.5,35093.1,-0.1109,0.2307,142.7,97.9,0.482
38.88,31991.8,34944.6,-0.0396,-0.1349,142.7,97.9,0.482
38.9,31892.8,34835.7,-0.5711,-0.4028,142.7,97.9,0.482
38.92,31851.0,34799.2,-0.7955,-0.4928,142.7,97.9,0.482
38.94,31854.0,34736.5,-0.7796,-0.6472,142.7,97.9,0.482
38.96,31898.8,34634.7,-0.539,-0.8977,142.7,97.9,0.482
38.98,31771.8,34671.8,-1.2209,-0.8066,142.7,97.9,0.482
39.0,31814.0,34596.4,-0.9943,-0.9922,142.7,97.9,0.482
39.02,31904.4,34492.7,-0.509,-1.2475,142.7,97.9,0.482
39.04,31797.3,34445.9,-1.0839,-1.3628,142.7,97.9,0.482
39.06,31801.1,34638.7,-1.0634,-0.8879,142.7,97.9,0.482
39.08,31805.0,34743.2,-1.0424,-0.6308,142.7,97.9,0.482
39.1,31960.5,35022.8,-0.2075,0.0576,142.7,97.9,0.482
39.12,32215.5,35417.7,1.1615,1.0299,142.7,97.9,0.482
39.14,32321.0,35771.7,1.7285,1.9016,142.7,97.9,0.482
39.16,32394.5,35774.0,2.1228,1.9072,142.7,97.9,0.482
39.18,32335.1,35653.8,1.8038,1.6112,142.7,97.9,0.482
39.2,32271.7,35481.0,1.4637,1.1858,142.7,97.9,0.482
39.22,32035.5,35300.3,0.1954,0.7408,142.7,97.9,0.482
39.24,31990.3,35204.6,-0.0477,0.5054,142.7,97.9,0.482
39.26,32060.4,35102.5,0.329,0.254,142.7,97.9,0.482
39.28,32005.6,35046.1,0.0347,0.115,142.7,97.9,0.482
39.3,31954.9,34875.3,-0.2375,-0.3054,142.7,97.9,0.482
39.32,31936.9,34803.4,-0.3345,-0.4824,142.7,97.9,0.482
39.34,31912.0,34804.3,-0.468,-0.4803,142.7,97.9,0.482
39.36,31858.9,34760.4,-0.7534,-0.5884,142.7,97.9,0.482
39.38,31784.9,34702.4,-1.1503,-0.7312,142.7,97.9,0.482
39.4,31844.2,34660.5,-0.8321,-0.8343,142.7,97.9,0.482
39.42,31772.0,34610.0,-1.2198,-0.9588,142.7,97.9,0.482
39.44,31824.6,34556.6,-0.9376,-1.0901,142.7,97.9,0.482
39.46,31752.0,34451.0,-1.3271,-1.3502,142.7,97.9,0.482
39.48,31713.9,34461.6,-1.5318,-1.3239,142.7,97.9,0.482
39.5,31909.8,34660.7,-0.4797,-0.8337,142.7,97.9,0.482
39.52,31998.9,35067.7,-0.0016,0.1683,142.7,97.9,0.482
39.54,32119.3,35369.0,0.6453,0.9102,142.7,97.9,0.482
39.56,32314.6,35718.6,1.6936,1.7709,142.7,97.9,0.482
39.58,32319.7,35697.0,1.7215,1.7176,142.7,97.9,0.482
39.6,32369.6,35704.6,1.9892,1.7363,142.7,97.9,0.482
39.62,32243.1,35436.5,1.3099,1.0764,142.7,97.9,0.482
39.64,32150.3,35251.1,0.8118,0.6198,142.7,97.9,0.482
39.66,32053.5,35208.6,0.2919,0.5152,142.7,97.9,0.482
39.68,32053.2,35083.4,0.2901,0.207,142.7,97.9,0.482
39.7,32029.7,35075.8,0.164,0.1881,142.7,97.9,0.482
39.72,31919.4,35066.2,-0.4284,0.1645,142.7,97.9,0.482
39.74,31955.4,34773.5,-0.2348,-0.5561,142.7,97.9,0.482
39.76,31922.3,34688.5,-0.4128,-0.7654,142.7,97.9,0.482
39.78,31868.2,34693.2,-0.7031,-0.7539,142.7,97.9,0.482
39.8,31820.9,34665.8,-0.9575,-0.8214,142.7,97.9,0.482
39.82,31835.3,34560.1,-0.8797,-1.0816,142.7,97.9,0.482
39.84,31793.4,34624.4,-1.105,-0.9232,142.7,97.9,0.482
39.86,31856.2,34414.8,-0.7679,-1.4394,142.7,97.9,0.482
39.88,31806.5,34409.6,-1.0347,-1.452,142.7,97.9,0.482
39.9,31867.4,34448.9,-0.7078,-1.3553,142.7,97.9,0.482
39.92,31855.5,34786.3,-0.7716,-0.5246,142.7,97.9,0.482
39.94,32034.7,34960.8,0.1906,-0.0949,142.7,97.9,0.482
39.96,32045.4,35300.4,0.2482,0.7412,142.7,97.9,0.482
39.98,32303.6,35701.4,1.6346,1.7284,142.7,97.9,0.482
40.0,32468.3,35760.6,2.5191,1.8742,142.7,97.9,0.482
40.02,32265.9,35733.6,1.4323,1.8078,142.7,97.9,0.482
40.04,32237.6,35432.8,1.2802,1.0672,142.7,97.9,0.482
40.06,32062.1,35275.8,0.3382,0.6806,142.7,97.9,0.482
40.08,32033.7,35143.5,0.1857,0.3549,142.7,97.9,0.482
40.1,32014.0,35033.4,0.0796,0.0839,142.7,97.9,0.482
40.12,32122.1,35091.8,0.6601,0.2275,142.7,97.9,0.482
40.14,31905.1,34980.7,-0.505,-0.0459,142.7,97.9,0.482
40.16,31962.5,34886.2,-0.1969,-0.2786,142.7,97.9,0.482
40.18,31903.5,34785.0,-0.514,-0.5278,142.7,97.9,0.482
40.2,31887.3,34688.4,-0.6007,-0.7657,142.7,97.9,0.482
40.22,31922.7,34689.0,-0.4106,-0.7641,142.7,97.9,0.482
40.24,31878.8,34729.8,-0.6464,-0.6637,142.7,97.9,0.482
40.26,31861.4,34622.7,-0.7397,-0.9273,142.7,97.9,0.482
40.28,31778.3,34608.1,-1.186,-0.9633,142.7,97.9,0.482
40.3,31796.3,34390.2,-1.0894,-1.4999,142.7,97.9,0.482
40.32,31816.2,34540.6,-0.9823,-1.1296,142.7,97.9,0.482
40.34,31896.9,34682.3,-0.5492,-0.7807,142.7,97.9,0.482
40.36,32008.2,35020.6,0.0484,0.0523,142.7,97.9,0.482
40.38,32072.2,35401.9,0.3919,0.991,142.7,97.9,0.482
40.4,32293.3,35712.4,1.5792,1.7556,142.7,97.9,0.482
40.42,32344.4,35710.9,1.854,1.7518,142.7,97.9,0.482
40.44,32314.7,35717.6,1.6943,1.7683,142.7,97.9,0.482
40.46,32209.5,35517.2,1.1294,1.275,142.7,97.9,0.482
40.48,32171.6,35256.1,0.9261,0.6322,142.7,97.9,0.482
40.5,32084.7,35165.5,0.4591,0.4092,142.7,97.9,0.482
40.52,32055.4,35096.4,0.3019,0.2388,142.7,97.9,0.482
40.54,32012.6,34942.1,0.0719,-0.1411,142.7,97.9,0.482
40.56,31982.0,34967.3,-0.092,-0.0788,142.7,97.9,0.482
40.58,31843.8,34899.8,-0.8341,-0.2451,142.7,97.9,0.482
40.6,31879.7,34779.7,-0.6413,-0.5409,142.7,97.9,0.482
40.62,31773.3,34714.5,-1.2126,-0.7013,142.7,97.9,0.482
40.64,31827.1,34711.2,-0.9242,-0.7095,142.7,97.9,0.482
40.66,31827.4,34739.8,-0.9223,-0.639,142.7,97.9,0.482
40.68,31848.5,34586.2,-0.8091,-1.0172,142.7,97.9,0.482
40.7,31833.4,34536.8,-0.89,-1.1388,142.7,97.9,0.482
40.72,31669.0,34454.5,-1.7729,-1.3414,142.7,97.9,0.482
40.74,31787.2,34501.3,-1.1385,-1.2264,142.7,97.9,0.482
40.76,31778.0,34600.0,-1.1879,-0.9833,142.7,97.9,0.482
40.78,31991.2,34977.0,-0.0428,-0.0552,142.7,97.9,0.482
40.8,32084.1,35417.1,0.4559,1.0286,142.7,97.9,0.482
40.82,32220.5,35658.0,1.1886,1.6217,142.7,97.9,0.482
40.84,32316.1,35789.5,1.7018,1.9454,142.7,97.9,0.482
40.86,32294.7,35650.6,1.5868,1.6035,142.7,97.9,0.482
40.88,32244.0,35531.3,1.315,1.3098,142.7,97.9,0.482
40.9,32117.3,35344.3,0.6343,0.8493,142.7,97.9,0.482
40.92,32004.8,35142.1,0.0302,0.3515,142.7,97.9,0.482
40.94,32103.6,35093.5,0.5607,0.2319,142.7,97.9,0.482
40.96,32079.7,35043.3,0.4324,0.1082,142.7,97.9,0.482
40.98,31992.4,34999.1,-0.0364,-0.0006,142.7,97.9,0.482
41.0,32008.0,34818.8,0.0476,-0.4446,142.7,97.9,0.482
41.02,31908.6,34793.6,-0.4862,-0.5066,142.7,97.9,0.482
41.04,31864.8,34767.6,-0.7216,-0.5707,142.7,97.9,0.482
41.06,31800.9,34650.0,-1.0648,-0.8603,142.7,97.9,0.482
41.08,31768.3,34682.8,-1.2394,-0.7793,142.7,97.9,0.482
41.1,31827.8,34528.1,-0.9203,-1.1603,142.7,97.9,0.482
41.12,31811.8,34513.8,-1.0063,-1.1956,142.7,97.9,0.482
41.14,31725.4,34505.5,-1.4699,-1.2159,142.7,97.9,0.482
41.16,31703.3,34440.3,-1.5889,-1.3766,142.7,97.9,0.482
41.18,31755.2,34548.6,-1.3099,-1.1098,142.7,97.9,0.482
41.2,31927.3,35024.0,-0.3857,0.0607,142.7,97.9,0.482
41.22,32155.0,35377.2,0.8369,0.9303,142.7,97.9,0.482
41.24,32299.1,35571.9,1.6105,1.4096,142.7,97.9,0.482
41.26,32441.4,35696.5,2.3747,1.7165,142.7,97.9,0.482
41.28,32302.8,35723.4,1.6304,1.7827,142.7,97.9,0.482
41.3,32204.1,35546.3,1.1006,1.3466,142.7,97.9,0.482
41.32,32098.0,35352.8,0.5308,0.8702,142.7,97.9,0.482
41.34,32127.8,35260.3,0.6909,0.6425,142.7,97.9,0.482
41.36,31982.5,35096.3,-0.0895,0.2387,142.7,97.9,0.482
41.38,31989.5,35077.1,-0.0521,0.1913,142.7,97.9,0.482
41.4,31988.2,35047.0,-0.0588,0.1172,142.7,97.9,0.482
41.42,31992.3,34924.8,-0.037,-0.1835,142.7,97.9,0.482
41.44,31915.3,34817.0,-0.4503,-0.4491,142.7,97.9,0.482
41.46,31890.2,34718.1,-0.585,-0.6925,142.7,97.9,0.482
41.48,31867.6,34665.3,-0.7064,-0.8226,142.7,97.9,0.482
41.5,31888.1,34691.4,-0.5963,-0.7582,142.7,97.9,0.482
41.52,31814.9,34567.7,-0.9896,-1.0629,142.7,97.9,0.482
41.54,31818.0,34505.1,-0.9727,-1.2169,142.7,97.9,0.482
41.56,31822.2,34437.2,-0.9503,-1.384,142.7,97.9,0.482
41.58,31771.1,34531.8,-1.2247,-1.1513,142.7,97.9,0.482
41.6,31867.3,34638.8,-0.7084,-0.8876,142.7,97.9,0.482
41.62,32081.9,34858.0,0.4443,-0.3481,142.7,97.9,0.482
41.64,32186.9,35306.0,1.0079,0.755,142.7,97.9,0.482
41.66,32298.0,35665.3,1.605,1.6396,142.7,97.9,0.482
41.68,32414.0,35781.7,2.2278,1.9261,142.7,97.9,0.482
41.7,32217.3,35625.1,1.1715,1.5407,142.7,97.9,0.482
41.72,32234.0,35492.0,1.2609,1.2129,142.7,97.9,0.482
41.74,32111.6,35188.9,0.6038,0.4667,142.7,97.9,0.482
41.76,32021.2,35223.2,0.1181,0.5511,142.7,97.9,0.482
41.78,32091.4,35085.3,0.4954,0.2116,142.7,97.9,0.482
41.8,32005.7,35024.7,0.0352,0.0625,142.7,97.9,0.482
41.82,31942.8,34996.4,-0.3026,-0.0073,142.7,97.9,0.482
41.84,31908.8,34871.1,-0.4851,-0.3158,142.7,97.9,0.482
41.86,31878.0,34653.3,-0.6509,-0.8522,142.7,97.9,0.482
41.88,31940.2,34713.4,-0.3168,-0.7041,142.7,97.9,0.482
41.9,31834.3,34786.2,-0.8851,-0.5249,142.7,97.9,0.482
41.92,31801.0,34621.8,-1.0641,-0.9295,142.7,97.9,0.482
41.94,31721.3,34522.2,-1.4919,-1.1747,142.7,97.9,0.482
41.96,31784.0,34633.1,-1.1552,-0.9019,142.7,97.9,0.482
41.98,31762.4,34493.6,-1.2712,-1.2451,142.7,97.9,0.482
42.0,31790.6,34516.6,-1.1201,-1.1886,142.7,97.9,0.482
42.02,31833.3,34679.8,-0.8906,-0.7869,142.7,97.9,0.482
42.04,32018.5,34945.5,0.1039,-0.1326,142.7,97.9,0.482
42.06,32132.9,35287.2,0.7181,0.7086,142.7,97.9,0.482
42.08,32304.7,35711.7,1.6409,1.7538,142.7,97.9,0.482
42.1,32250.3,35735.4,1.3483,1.8123,142.7,97.9,0.482
42.12,32290.5,35690.1,1.5644,1.7007,142.7,97.9,0.482
42.14,32281.1,35528.9,1.514,1.3038,142.7,97.9,0.482
42.16,32196.6,35198.5,1.0603,0.4903,142.7,97.9,0.482
42.18,32137.6,35187.7,0.7435,0.4637,142.7,97.9,0.482
42.2,31953.0,35106.1,-0.2477,0.2629,142.7,97.9,0.482
42.22,32041.7,34922.9,0.2286,-0.1882,142.7,97.9,0.482
42.24,31925.4,34953.7,-0.3964,-0.1123,142.7,97.9,0.482
42.26,31962.3,34893.5,-0.198,-0.2607,142.7,97.9,0.482
42.28,31880.5,34750.0,-0.6373,-0.614,142.7,97.9,0.482
42.3,31933.6,34671.5,-0.352,-0.8072,142.7,97.9,0.482
42.32,31859.8,34728.3,-0.7485,-0.6675,142.7,97.9,0.482
42.34,31796.8,34622.2,-1.0868,-0.9287,142.7,97.9,0.482
42.36,31836.8,34545.9,-0.8716,-1.1165,142.7,97.9,0.482
42.38,31745.1,34517.1,-1.364,-1.1874,142.7,97.9,0.482
42.4,31709.9,34507.7,-1.5534,-1.2106,142.7,97.9,0.482
42.42,31865.4,34481.6,-0.7184,-1.2749,142.7,97.9,0.482
42.44,31853.6,34639.5,-0.7818,-0.886,142.7,97.9,0.482
42.46,31969.9,35007.5,-0.1571,0.02,142.7,97.9,0.482
42.48,32254.8,35286.6,1.3728,0.7071,142.7,97.9,0.482
42.5,32274.4,35656.6,1.4781,1.6183,142.7,97.9,0.482
42.52,32352.0,35818.4,1.8946,2.0166,142.7,97.9,0.482
42.54,32345.8,35735.8,1.8615,1.8133,142.7,97.9,0.482
42.56,32234.0,35522.3,1.2612,1.2876,142.7,97.9,0.482
42.58,32078.2,35349.1,0.4243,0.8611,142.7,97.9,0.482
42.6,32070.9,35199.5,0.385,0.4927,142.7,97.9,0.482
42.62,32016.3,35096.7,0.092,0.2398,142.7,97.9,0.482
42.64,32029.0,35135.0,0.1602,0.3339,142.7,97.9,0.482
42.66,32014.0,35023.8,0.0794,0.0601,142.7,97.9,0.482
42.68,31969.3,34844.4,-0.1605,-0.3815,142.7,97.9,0.482
42.7,31870.9,34775.2,-0.6886,-0.552,142.7,97.9,0.482
42.72,31927.0,34772.3,-0.3874,-0.559,142.7,97.9,0.482
42.74,31854.4,34655.6,-0.7775,-0.8463,142.7,97.9,0.482
42.76,31773.7,34653.1,-1.2106,-0.8527,142.7,97.9,0.482
42.78,31749.0,34606.5,-1.3435,-0.9673,142.7,97.9,0.482
42.8,31892.8,34479.3,-0.5711,-1.2804,142.7,97.9,0.482
42.82,31720.1,34455.7,-1.4988,-1.3386,142.7,97.9,0.482
42.84,31784.7,34469.6,-1.1515,-1.3042,142.7,97.9,0.482
42.86,31797.5,34691.4,-1.0832,-0.7583,142.7,97.9,0.482
42.88,32004.7,34942.3,0.0296,-0.1406,142.7,97.9,0.482
42.9,32112.6,35389.5,0.6091,0.9606,142.7,97.9,0.482
42.92,32286.1,35624.1,1.5406,1.5381,142.7,97.9,0.482
42.94,32362.7,35730.6,1.9522,1.8004,142.7,97.9,0.482
42.96,32385.5,35693.2,2.0746,1.7083,142.7,97.9,0.482
42.98,32261.9,35539.2,1.4106,1.3292,142.7,97.9,0.482
43.0,32097.8,35264.2,0.5298,0.6521,142.7,97.9,0.482
43.02,32140.2,35081.3,0.7572,0.2018,142.7,97.9,0.482
43.04,31997.7,35128.4,-0.0078,0.3177,142.7,97.9,0.482
43.06,31949.3,35052.9,-0.2679,0.1317,142.7,97.9,0.482
43.08,32017.3,35014.1,0.0976,0.0363,142.7,97.9,0.482
43.1,31954.2,34824.9,-0.2416,-0.4296,142.7,97.9,0.482
43.12,31938.4,34754.1,-0.3265,-0.6039,142.7,97.9,0.482
43.14,31853.8,34670.6,-0.7804,-0.8094,142.7,97.9,0.482
43.16,31779.0,34640.6,-1.1822,-0.8832,142.7,97.9,0.482
43.18,31782.1,34620.5,-1.1658,-0.9327,142.7,97.9,0.482
43.2,31806.4,34630.3,-1.0354,-0.9087,142.7,97.9,0.482
43.22,31756.5,34544.0,-1.3032,-1.1212,142.7,97.9,0.482
43.24,31812.1,34583.8,-1.0047,-1.0232,142.7,97.9,0.482
43.26,31737.4,34503.5,-1.4057,-1.2209,142.7,97.9,0.482
43.28,31835.9,34714.0,-0.8766,-0.7027,142.7,97.9,0.482
43.3,31984.2,34953.6,-0.0802,-0.1128,142.7,97.9,0.482
43.32,32095.2,35315.5,0.5158,0.7785,142.7,97.9,0.482
43.34,32303.1,35698.4,1.632,1.7212,142.7,97.9,0.482
43.36,32425.2,35736.9,2.2877,1.8158,142.7,97.9,0.482
43.38,32271.3,35708.8,1.4613,1.7466,142.7,97.9,0.482
43.4,32236.4,35561.1,1.2737,1.383,142.7,97.9,0.482
43.42,32117.3,35320.7,0.6342,0.7911,142.7,97.9,0.482
43.44,32090.7,35233.2,0.4916,0.5758,142.7,97.9,0.482
43.46,32028.6,35078.9,0.1579,0.1957,142.7,97.9,0.482
43.48,31992.9,34941.7,-0.0336,-0.1419,142.7,97.9,0.482
43.5,32090.2,35054.0,0.4888,0.1345,142.7,97.9,0.482
43.52,32003.5,34905.1,0.0231,-0.2322,142.7,97.9,0.482
43.54,31988.3,34804.9,-0.0585,-0.4789,142.7,97.9,0.482
43.56,31869.1,34684.8,-0.6986,-0.7746,142.7,97.9,0.482
43.58,31809.0,34664.9,-1.021,-0.8235,142.7,97.9,0.482
43.6,31772.0,34789.0,-1.2199,-0.5179,142.7,97.9,0.482
43.62,31787.4,34620.2,-1.1369,-0.9335,142.7,97.9,0.482
43.64,31913.7,34495.1,-0.459,-1.2416,142.7,97.9,0.482
43.66,31791.9,34357.1,-1.113,-1.5812,142.7,97.9,0.482
43.68,31816.8,34470.9,-0.9795,-1.3012,142.7,97.9,0.482
43.7,31856.3,34694.7,-0.7673,-0.7501,142.7,97.9,0.482
43.72,31989.6,34957.5,-0.0516,-0.1032,142.7,97.9,0.482
43.74,32120.1,35239.0,0.6495,0.5899,142.7,97.9,0.482
43.76,32280.0,35535.0,1.5083,1.3189,142.7,97.9,0.482
43.78,32359.7,35795.1,1.9361,1.9593,142.7,97.9,0.482
43.8,32314.0,35623.5,1.6905,1.5367,142.7,97.9,0.482
43.82,32201.4,35621.2,1.086,1.5312,142.7,97.9,0.482
43.84,32119.2,35350.9,0.6448,0.8656,142.7,97.9,0.482
43.86,32066.6,35223.2,0.3621,0.5511,142.7,97.9,0.482
43.88,32036.8,35057.9,0.2022,0.1442,142.7,97.9,0.482
43.9,32102.8,34991.8,0.5564,-0.0187,142.7,97.9,0.482
43.92,31976.6,34916.1,-0.1212,-0.205,142.7,97.9,0.482
43.94,31883.1,34828.2,-0.6232,-0.4214,142.7,97.9,0.482
43.96,31839.1,34777.1,-0.8594,-0.5471,142.7,97.9,0.482
43.98,31808.9,34695.8,-1.0215,-0.7475,142.7,97.9,0.482
44.0,31860.8,34691.6,-0.7427,-0.7577,142.7,97.9,0.482
44.02,31909.4,34726.3,-0.482,-0.6724,142.7,97.9,0.482
44.04,31832.4,34660.5,-0.8955,-0.8342,142.7,97.9,0.482
44.06,31828.7,34454.4,-0.9152,-1.3417,142.7,97.9,0.482
44.08,31678.8,34420.8,-1.7202,-1.4246,142.7,97.9,0.482
44.1,31802.6,34524.8,-1.0558,-1.1684,142.7,97.9,0.482
44.12,31820.5,34614.6,-0.9595,-0.9473,142.7,97.9,0.482
44.14,31910.9,34956.4,-0.474,-0.1059,142.7,97.9,0.482
44.16,32092.1,35341.1,0.4993,0.8413,142.7,97.9,0.482
44.18,32217.2,35643.8,1.1711,1.5866,142.7,97.9,0.482
44.2,32303.6,35731.3,1.6346,1.802,142.7,97.9,0.482
44.22,32232.1,35709.6,1.2508,1.7486,142.7,97.9,0.482
44.24,32081.4,35535.3,0.4415,1.3195,142.7,97.9,0.482
44.26,32229.4,35217.1,1.2362,0.536,142.7,97.9,0.482
44.28,32012.2,35205.1,0.07,0.5066,142.7,97.9,0.482
44.3,32045.9,35113.4,0.251,0.2807,142.7,97.9,0.482
44.32,31970.9,35104.6,-0.152,0.259,142.7,97.9,0.482
44.34,32003.9,34975.6,0.0253,-0.0586,142.7,97.9,0.482
44.36,32019.9,34891.6,0.1113,-0.2653,142.7,97.9,0.482
44.38,31925.4,34751.7,-0.3964,-0.6098,142.7,97.9,0.482
44.4,31836.2,34743.1,-0.8753,-0.6308,142.7,97.9,0.482
44.42,31839.6,34685.4,-0.8567,-0.773,142.7,97.9,0.482
44.44,31823.8,34552.5,-0.9414,-1.1002,142.7,97.9,0.482
44.46,31865.6,34602.0,-0.7171,-0.9783,142.7,97.9,0.482
44.48,31855.4,34479.9,-0.7717,-1.279,142.7,97.9,0.482
44.5,31698.2,34483.5,-1.616,-1.2701,142.7,97.9,0.482
44.52,31753.1,34496.4,-1.3214,-1.2384,142.7,97.9,0.482
44.54,31859.4,34626.2,-0.7504,-0.9187,142.7,97.9,0.482
44.56,32044.1,34954.7,0.2415,-0.11,142.7,97.9,0.482
44.58,32051.9,35283.5,0.2832,0.6997,142.7,97.9,0.482
44.6,32267.5,35583.0,1.4409,1.437,142.7,97.9,0.482
44.62,32439.9,35763.8,2.3666,1.8821,142.7,97.9,0.482
44.64,32307.5,35711.9,1.6555,1.7543,142.7,97.9,0.482
44.66,32183.1,35487.6,0.9878,1.2021,142.7,97.9,0.482
44.68,32130.0,35333.1,0.7027,0.8217,142.7,97.9,0.482
44.7,32178.5,35197.0,0.9631,0.4866,142.7,97.9,0.482
44.72,32042.5,35208.3,0.2328,0.5144,142.7,97.9,0.482
44.74,32010.0,35084.8,0.0584,0.2103,142.7,97.9,0.482
44.76,32099.5,35058.7,0.5388,0.1462,142.7,97.9,0.482
44.78,31942.0,34857.6,-0.3072,-0.3491,142.7,97.9,0.482
44.8,31873.3,34757.5,-0.6758,-0.5954,142.7,97.9,0.482
44.82,31864.4,34732.4,-0.7234,-0.6574,142.7,97.9,0.482
44.84,31887.4,34612.0,-0.6001,-0.9537,142.7,97.9,0.482
44.86,31950.9,34631.7,-0.2594,-0.9053,142.7,97.9,0.482
