timestamp,raw_red,raw_ir,filtered_red,filtered_ir,heart_rate,spo2,ac_dc_ratio
0.0,32093.6,35124.8,0.3838,0.305,135.3,97.3,0.506
0.02,32151.7,35545.3,0.6237,1.3412,135.3,97.3,0.506
0.04,32277.5,35682.2,1.1428,1.6783,135.3,97.3,0.506
0.06,32330.7,35769.7,1.3624,1.8941,135.3,97.3,0.506
0.08,32310.0,35717.7,1.2769,1.7659,135.3,97.3,0.506
0.1,32246.7,35580.8,1.0157,1.4285,135.3,97.3,0.506
0.12,32113.3,35250.7,0.4653,0.6152,135.3,97.3,0.506
0.14,32034.6,35160.6,0.1405,0.3932,135.3,97.3,0.506
0.16,32046.2,35113.1,0.1883,0.2762,135.3,97.3,0.506
0.18,32102.0,35022.0,0.4184,0.0519,135.3,97.3,0.506
0.2,31933.9,34923.2,-0.275,-0.1917,135.3,97.3,0.506
0.22,31947.6,34886.4,-0.2185,-0.2823,135.3,97.3,0.506
0.24,31923.0,34775.9,-0.3202,-0.5546,135.3,97.3,0.506
0.26,31894.5,34763.0,-0.4378,-0.5863,135.3,97.3,0.506
0.28,31769.7,34739.7,-0.9526,-0.6437,135.3,97.3,0.506
0.3,31942.6,34707.6,-0.2392,-0.7227,135.3,97.3,0.506
0.32,31913.6,34626.7,-0.3588,-0.9222,135.3,97.3,0.506
0.34,31832.3,34590.5,-0.6942,-1.0112,135.3,97.3,0.506
0.36,31839.2,34459.0,-0.6659,-1.3353,135.3,97.3,0.506
0.38,31687.8,34462.3,-1.2906,-1.3272,135.3,97.3,0.506
0.4,31758.8,34521.5,-0.9975,-1.1814,135.3,97.3,0.506
0.42,31901.7,34724.8,-0.4079,-0.6804,135.3,97.3,0.506
0.44,32034.9,35180.8,0.1418,0.4431,135.3,97.3,0.506
0.46,32295.3,35383.1,1.2162,0.9416,135.3,97.3,0.506
0.48,32380.2,35584.6,1.5666,1.4379,135.3,97.3,0.506
0.5,32310.3,35734.7,1.2782,1.8079,135.3,97.3,0.506
0.52,32282.7,35762.9,1.1641,1.8773,135.3,97.3,0.506
0.54,32304.4,35510.0,1.2539,1.2542,135.3,97.3,0.506
0.56,32131.9,35391.3,0.5419,0.9616,135.3,97.3,0.506
0.58,32145.2,35161.7,0.5969,0.3961,135.3,97.3,0.506
0.6,32044.3,35119.0,0.1804,0.2908,135.3,97.3,0.506
0.62,32028.1,35116.0,0.1135,0.2835,135.3,97.3,0.506
0.64,32015.3,34996.4,0.0608,-0.0112,135.3,97.3,0.506
0.66,31833.5,34901.1,-0.6894,-0.2459,135.3,97.3,0.506
0.68,31921.6,34843.7,-0.326,-0.3875,135.3,97.3,0.506
0.7,31809.8,34627.4,-0.7872,-0.9203,135.3,97.3,0.506
0.72,31927.7,34599.4,-0.3008,-0.9894,135.3,97.3,0.506
0.74,31862.6,34675.9,-0.5691,-0.8008,135.3,97.3,0.506
0.76,31936.8,34595.2,-0.2629,-0.9998,135.3,97.3,0.506
0.78,31804.9,34585.8,-0.8074,-1.0229,135.3,97.3,0.506
0.8,31699.0,34494.0,-1.2444,-1.2492,135.3,97.3,0.506
0.82,31774.1,34410.6,-0.9343,-1.4546,135.3,97.3,0.506
0.84,31828.8,34505.7,-0.709,-1.2202,135.3,97.3,0.506
0.86,31840.3,34759.7,-0.6611,-0.5945,135.3,97.3,0.506
0.88,32012.2,34986.9,0.048,-0.0348,135.3,97.3,0.506
0.9,32189.2,35399.9,0.7782,0.983,135.3,97.3,0.506
0.92,32303.6,35626.6,1.2504,1.5415,135.3,97.3,0.506
0.94,32376.1,35872.9,1.5496,2.1484,135.3,97.3,0.506
0.96,32387.0,35696.7,1.5944,1.7142,135.3,97.3,0.506
0.98,32261.4,35591.0,1.0763,1.4537,135.3,97.3,0.506
1.0,32011.0,35369.4,0.043,0.9076,135.3,97.3,0.506
1.02,32114.6,35239.5,0.4705,0.5876,135.3,97.3,0.506
1.04,32081.3,35106.1,0.3333,0.2591,135.3,97.3,0.506
1.06,32027.9,35073.3,0.113,0.1783,135.3,97.3,0.506
1.08,31964.2,35036.2,-0.1499,0.0868,135.3,97.3,0.506
1.1,32052.1,34935.9,0.2128,-0.1602,135.3,97.3,0.506
1.12,31918.2,34770.5,-0.34,-0.5677,135.3,97.3,0.506
1.14,31959.0,34750.2,-0.1716,-0.6178,135.3,97.3,0.506
1.16,31793.2,34643.3,-0.8556,-0.8813,135.3,97.3,0.506
1.18,31836.5,34664.4,-0.6771,-0.8291,135.3,97.3,0.506
1.2,31847.6,34640.7,-0.6313,-0.8875,135.3,97.3,0.506
1.22,31870.0,34617.6,-0.5389,-0.9446,135.3,97.3,0.506
1.24,31810.5,34594.9,-0.7845,-1.0005,135.3,97.3,0.506
1.26,31801.8,34454.7,-0.82,-1.3459,135.3,97.3,0.506
1.28,31706.0,34490.8,-1.2156,-1.257,135.3,97.3,0.506
1.3,31880.2,34684.1,-0.4966,-0.7806,135.3,97.3,0.506
1.32,32050.3,34988.2,0.2052,-0.0314,135.3,97.3,0.506
1.34,32118.6,35407.1,0.4869,1.0007,135.3,97.3,0.506
1.36,32306.4,35553.2,1.2621,1.3606,135.3,97.3,0.506
1.38,32400.8,35844.9,1.6513,2.0793,135.3,97.3,0.506
1.4,32438.8,35751.7,1.8082,1.8497,135.3,97.3,0.506
1.42,32205.0,35619.8,0.8437,1.5246,135.3,97.3,0.506
1.44,32223.2,35287.3,0.9187,0.7056,135.3,97.3,0.506
1.46,32082.6,35239.9,0.3383,0.5886,135.3,97.3,0.506
1.48,32157.6,35137.6,0.6481,0.3365,135.3,97.3,0.506
1.5,32016.1,35100.7,0.064,0.2458,135.3,97.3,0.506
1.52,31991.1,34986.4,-0.0391,-0.036,135.3,97.3,0.506
1.54,31957.4,34936.7,-0.178,-0.1584,135.3,97.3,0.506
1.56,31887.5,34804.4,-0.4667,-0.4843,135.3,97.3,0.506
1.58,31952.4,34721.5,-0.1989,-0.6884,135.3,97.3,0.506
1.6,31948.5,34626.7,-0.2147,-0.9221,135.3,97.3,0.506
1.62,31754.4,34588.6,-1.0156,-1.016,135.3,97.3,0.506
1.64,31885.3,34586.8,-0.4756,-1.0205,135.3,97.3,0.506
1.66,31742.7,34572.6,-1.0639,-1.0555,135.3,97.3,0.506
1.68,31794.9,34544.9,-0.8484,-1.1235,135.3,97.3,0.506
1.7,31852.5,34468.1,-0.6108,-1.3129,135.3,97.3,0.506
1.72,31787.9,34416.3,-0.8777,-1.4405,135.3,97.3,0.506
1.74,31864.9,34521.2,-0.5599,-1.1821,135.3,97.3,0.506
1.76,31971.2,34928.0,-0.121,-0.1798,135.3,97.3,0.506
1.78,32145.9,35224.3,0.5999,0.5503,135.3,97.3,0.506
1.8,32283.6,35551.6,1.1678,1.3567,135.3,97.3,0.506
1.82,32437.1,35751.8,1.8013,1.8499,135.3,97.3,0.506
1.84,32342.4,35789.0,1.4105,1.9415,135.3,97.3,0.506
1.86,32257.1,35585.8,1.0585,1.4409,135.3,97.3,0.506
1.88,32175.5,35430.7,0.7217,1.0589,135.3,97.3,0.506
1.9,32137.3,35260.3,0.5644,0.6389,135.3,97.3,0.506
1.92,32098.3,35047.4,0.4034,0.1145,135.3,97.3,0.506
1.94,32111.0,35092.8,0.4557,0.2262,135.3,97.3,0.506
1.96,31948.0,35052.0,-0.2171,0.1256,135.3,97.3,0.506
1.98,31931.4,35035.2,-0.2855,0.0844,135.3,97.3,0.506
2.0,31886.1,34856.7,-0.4723,-0.3554,135.3,97.3,0.506
2.02,31884.1,34838.1,-0.4805,-0.4012,135.3,97.3,0.506
2.04,31806.9,34680.5,-0.7992,-0.7896,135.3,97.3,0.506
2.06,31789.3,34656.4,-0.8717,-0.8489,135.3,97.3,0.506
2.08,31841.7,34693.9,-0.6555,-0.7566,135.3,97.3,0.506
2.1,31764.8,34689.3,-0.9728,-0.7679,135.3,97.3,0.506
2.12,31805.8,34509.0,-0.8035,-1.212,135.3,97.3,0.506
2.14,31789.5,34510.0,-0.871,-1.2097,135.3,97.3,0.506
2.16,31785.0,34453.0,-0.8893,-1.35,135.3,97.3,0.506
2.18,31905.8,34519.7,-0.3912,-1.1857,135.3,97.3,0.506
2.2,31986.8,34944.5,-0.057,-0.1391,135.3,97.3,0.506
2.22,32062.4,35089.1,0.2553,0.2171,135.3,97.3,0.506
2.24,32224.3,35446.7,0.9231,1.0982,135.3,97.3,0.506
2.26,32488.9,35770.1,2.0148,1.8949,135.3,97.3,0.506
2.28,32302.8,35714.9,1.2472,1.759,135.3,97.3,0.506
2.3,32332.3,35579.1,1.3688,1.4245,135.3,97.3,0.506
2.32,32221.6,35350.3,0.9121,0.8607,135.3,97.3,0.506
2.34,32078.1,35228.8,0.3198,0.5613,135.3,97.3,0.506
2.36,32130.0,35168.6,0.5341,0.4129,135.3,97.3,0.506
2.38,32136.3,35114.9,0.56,0.2807,135.3,97.3,0.506
2.4,31984.7,35090.2,-0.0654,0.2198,135.3,97.3,0.506
2.42,31990.5,34997.9,-0.0417,-0.0075,135.3,97.3,0.506
2.44,32028.2,34940.0,0.1141,-0.1503,135.3,97.3,0.506
2.46,31870.7,34870.8,-0.5358,-0.3206,135.3,97.3,0.506
2.48,31906.8,34672.8,-0.387,-0.8086,135.3,97.3,0.506
2.5,31887.9,34612.4,-0.4651,-0.9574,135.3,97.3,0.506
2.52,31725.1,34642.3,-1.1367,-0.8837,135.3,97.3,0.506
2.54,31896.3,34629.3,-0.4301,-0.9157,135.3,97.3,0.506
2.56,31857.4,34599.7,-0.5909,-0.9888,135.3,97.3,0.506
2.58,31770.3,34478.4,-0.9503,-1.2875,135.3,97.3,0.506
2.6,31765.5,34528.8,-0.9698,-1.1633,135.3,97.3,0.506
2.62,31772.0,34501.7,-0.943,-1.2302,135.3,97.3,0.506
2.64,31928.4,34778.4,-0.2976,-0.5484,135.3,97.3,0.506
2.66,32020.8,35088.5,0.0834,0.2156,135.3,97.3,0.506
2.68,32208.9,35372.1,0.8596,0.9144,135.3,97.3,0.506
2.7,32388.5,35690.9,1.6009,1.6998,135.3,97.3,0.506
2.72,32407.9,35768.6,1.6806,1.8914,135.3,97.3,0.506
2.74,32260.4,35655.8,1.0723,1.6132,135.3,97.3,0.506
2.76,32175.4,35513.0,0.7213,1.2614,135.3,97.3,0.506
2.78,32258.1,35335.3,1.0624,0.8238,135.3,97.3,0.506
2.8,32054.2,35235.4,0.2212,0.5777,135.3,97.3,0.506
2.82,32137.3,35062.9,0.5642,0.1525,135.3,97.3,0.506
2.84,31972.0,35155.1,-0.1181,0.3796,135.3,97.3,0.506
2.86,32051.3,35030.0,0.2092,0.0715,135.3,97.3,0.506
2.88,31903.9,34975.6,-0.3991,-0.0626,135.3,97.3,0.506
2.9,31949.7,34760.5,-0.2098,-0.5924,135.3,97.3,0.506
2.92,31872.6,34690.1,-0.5281,-0.7659,135.3,97.3,0.506
2.94,31827.3,34711.5,-0.715,-0.7132,135.3,97.3,0.506
2.96,31836.6,34642.4,-0.6766,-0.8833,135.3,97.3,0.506
2.98,31799.7,34652.8,-0.8289,-0.8577,135.3,97.3,0.506
3.0,31878.2,34549.8,-0.5048,-1.1116,135.3,97.3,0.506
3.02,31786.4,34534.9,-0.8835,-1.1482,135.3,97.3,0.506
3.04,31789.6,34413.2,-0.8707,-1.4482,135.3,97.3,0.506
3.06,31768.9,34540.6,-0.9561,-1.1343,135.3,97.3,0.506
3.08,31897.8,34812.7,-0.4242,-0.4639,135.3,97.3,0.506
3.1,32020.3,34984.2,0.0814,-0.0413,135.3,97.3,0.506
3.12,32282.9,35468.4,1.1649,1.1516,135.3,97.3,0.506
3.14,32330.6,35636.3,1.362,1.5652,135.3,97.3,0.506
3.16,32408.2,35734.2,1.6822,1.8066,135.3,97.3,0.506
3.18,32341.2,35711.8,1.4054,1.7512,135.3,97.3,0.506
3.2,32220.8,35499.3,0.9087,1.2278,135.3,97.3,0.506
3.22,32200.4,35376.3,0.8246,0.9247,135.3,97.3,0.506
3.24,32175.0,35228.4,0.7196,0.5604,135.3,97.3,0.506
3.26,32096.1,35092.4,0.3943,0.2252,135.3,97.3,0.506
3.28,32081.5,35122.5,0.3339,0.2995,135.3,97.3,0.506
3.3,31977.7,35040.8,-0.0942,0.0982,135.3,97.3,0.506
3.32,31948.8,34951.7,-0.2136,-0.1213,135.3,97.3,0.506
3.34,31935.9,34922.6,-0.2667,-0.1931,135.3,97.3,0.506
3.36,31862.4,34767.7,-0.5701,-0.5747,135.3,97.3,0.506
3.38,31841.2,34671.7,-0.6576,-0.8111,135.3,97.3,0.506
3.4,31909.7,34682.6,-0.3749,-0.7844,135.3,97.3,0.506
3.42,31820.6,34617.1,-0.7428,-0.9457,135.3,97.3,0.506
3.44,31876.3,34687.8,-0.5128,-0.7715,135.3,97.3,0.506
3.46,31857.6,34442.4,-0.5897,-1.3762,135.3,97.3,0.506
3.48,31761.5,34434.9,-0.9866,-1.3946,135.3,97.3,0.506
3.5,31834.8,34421.1,-0.6838,-1.4287,135.3,97.3,0.506
3.52,31864.7,34605.2,-0.5606,-0.975,135.3,97.3,0.506
3.54,32019.3,34972.7,0.0772,-0.0696,135.3,97.3,0.506
3.56,32250.0,35318.8,1.0294,0.783,135.3,97.3,0.506
3.58,32276.1,35618.7,1.137,1.5219,135.3,97.3,0.506
3.6,32326.5,35725.2,1.345,1.7843,135.3,97.3,0.506
3.62,32281.9,35748.5,1.1607,1.8419,135.3,97.3,0.506
3.64,32280.0,35506.9,1.1528,1.2464,135.3,97.3,0.506
3.66,32111.4,35383.6,0.4572,0.9428,135.3,97.3,0.506
3.68,32109.3,35194.7,0.4487,0.4773,135.3,97.3,0.506
3.7,31938.7,35118.7,-0.2552,0.2901,135.3,97.3,0.506
3.72,31966.2,35041.3,-0.1419,0.0993,135.3,97.3,0.506
3.74,31935.7,35114.5,-0.2677,0.2797,135.3,97.3,0.506
3.76,32139.1,34884.1,0.5718,-0.288,135.3,97.3,0.506
3.78,31941.4,34869.7,-0.2441,-0.3233,135.3,97.3,0.506
3.8,31902.3,34653.4,-0.4055,-0.8564,135.3,97.3,0.506
3.82,31856.0,34768.8,-0.5964,-0.5721,135.3,97.3,0.506
3.84,31904.7,34657.1,-0.3957,-0.8473,135.3,97.3,0.506
3.86,31934.8,34685.7,-0.2715,-0.7768,135.3,97.3,0.506
3.88,31785.5,34677.2,-0.8873,-0.7977,135.3,97.3,0.506
3.9,31776.8,34550.4,-0.9231,-1.1101,135.3,97.3,0.506
3.92,31758.0,34404.4,-1.0007,-1.4698,135.3,97.3,0.506
3.94,31788.1,34420.3,-0.8768,-1.4307,135.3,97.3,0.506
3.96,31851.0,34670.9,-0.6171,-0.8133,135.3,97.3,0.506
3.98,31926.7,34988.8,-0.3048,-0.0299,135.3,97.3,0.506
4.0,32207.3,35309.3,0.8531,0.7597,135.3,97.3,0.506
4.02,32214.0,35650.1,0.8805,1.5993,135.3,97.3,0.506
4.04,32286.3,35685.2,1.1791,1.6858,135.3,97.3,0.506
4.06,32211.4,35748.6,0.8701,1.8419,135.3,97.3,0.506
4.08,32198.0,35640.0,0.8148,1.5745,135.3,97.3,0.506
4.1,32142.8,35396.8,0.587,0.9752,135.3,97.3,0.506
4.12,32151.6,35188.3,0.623,0.4615,135.3,97.3,0.506
4.14,32066.6,35126.9,0.2723,0.3103,135.3,97.3,0.506
4.16,32149.7,35104.7,0.6152,0.2555,135.3,97.3,0.506
4.18,32067.7,35012.0,0.277,0.0271,135.3,97.3,0.506
4.2,31976.0,35002.2,-0.1012,0.0029,135.3,97.3,0.506
4.22,31875.7,34782.7,-0.5154,-0.5377,135.3,97.3,0.506
4.24,31862.8,34803.0,-0.5687,-0.4879,135.3,97.3,0.506
4.26,31797.5,34737.9,-0.8379,-0.6481,135.3,97.3,0.506
4.28,31768.2,34714.7,-0.9586,-0.7053,135.3,97.3,0.506
4.3,31865.4,34661.2,-0.5578,-0.837,135.3,97.3,0.506
4.32,31844.3,34572.0,-0.6448,-1.0569,135.3,97.3,0.506
4.34,31795.0,34540.6,-0.8483,-1.1343,135.3,97.3,0.506
4.36,31759.7,34518.3,-0.9939,-1.1892,135.3,97.3,0.506
4.38,31797.6,34538.7,-0.8376,-1.1388,135.3,97.3,0.506
4.4,31719.3,34623.3,-1.1604,-0.9305,135.3,97.3,0.506
4.42,31986.2,34886.4,-0.0591,-0.2824,135.3,97.3,0.506
4.44,32149.5,35177.1,0.6147,0.434,135.3,97.3,0.506
4.46,32242.2,35476.4,0.9972,1.1713,135.3,97.3,0.506
4.48,32369.3,35673.9,1.5217,1.658,135.3,97.3,0.506
4.5,32401.0,35706.3,1.6521,1.7378,135.3,97.3,0.506
4.52,32249.9,35653.9,1.0289,1.6088,135.3,97.3,0.506
4.54,32154.4,35450.0,0.6348,1.1063,135.3,97.3,0.506
4.56,32172.3,35206.1,0.7087,0.5053,135.3,97.3,0.506
4.58,32098.7,35111.8,0.4047,0.2731,135.3,97.3,0.506
4.6,32063.6,35078.8,0.2601,0.1918,135.3,97.3,0.506
4.62,31968.2,35033.1,-0.1336,0.0791,135.3,97.3,0.506
4.64,32024.1,34945.3,0.0969,-0.1371,135.3,97.3,0.506
4.66,32046.5,34888.9,0.1895,-0.2761,135.3,97.3,0.506
4.68,31872.5,34788.6,-0.5283,-0.5232,135.3,97.3,0.506
4.7,31879.4,34703.0,-0.4999,-0.7342,135.3,97.3,0.506
4.72,31816.8,34641.1,-0.7585,-0.8865,135.3,97.3,0.506
4.74,31807.5,34673.3,-0.7968,-0.8073,135.3,97.3,0.506
4.76,31870.2,34586.5,-0.538,-1.0211,135.3,97.3,0.506
4.78,31870.1,34563.6,-0.5382,-1.0775,135.3,97.3,0.506
4.8,31736.4,34481.3,-1.0901,-1.2803,135.3,97.3,0.506
4.82,31728.4,34482.4,-1.123,-1.2776,135.3,97.3,0.506
4.84,31778.0,34518.5,-0.9186,-1.1887,135.3,97.3,0.506
4.86,31886.8,34821.7,-0.4695,-0.4417,135.3,97.3,0.506
4.88,32035.1,35179.0,0.1424,0.4386,135.3,97.3,0.506
4.9,32272.1,35511.7,1.1206,1.2583,135.3,97.3,0.506
4.92,32408.6,35705.8,1.6834,1.7364,135.3,97.3,0.506
4.94,32289.1,35722.2,1.1905,1.777,135.3,97.3,0.506
4.96,32305.7,35607.3,1.2591,1.494,135.3,97.3,0.506
4.98,32236.5,35457.6,0.9734,1.125,135.3,97.3,0.506
5.0,32105.0,35327.0,0.4307,0.8033,135.3,97.3,0.506
5.02,32051.7,35149.2,0.2108,0.3653,135.3,97.3,0.506
5.04,32043.9,35076.7,0.1787,0.1866,135.3,97.3,0.506
5.06,32034.2,35075.5,0.1387,0.1837,135.3,97.3,0.506
5.08,31955.5,34928.0,-0.1861,-0.1798,135.3,97.3,0.506
5.1,31898.9,34859.8,-0.4196,-0.3478,135.3,97.3,0.506
5.12,31882.4,34657.4,-0.4877,-0.8465,135.3,97.3,0.506
5.14,31939.0,34826.2,-0.2538,-0.4306,135.3,97.3,0.506
5.16,31701.6,34720.5,-1.2337,-0.6911,135.3,97.3,0.506
5.18,31776.9,34780.9,-0.9227,-0.5422,135.3,97.3,0.506
5.2,31857.3,34652.3,-0.5913,-0.8589,135.3,97.3,0.506
5.22,31707.3,34597.1,-1.2102,-0.9951,135.3,97.3,0.506
5.24,31801.0,34450.7,-0.8235,-1.3557,135.3,97.3,0.506
5.26,31687.0,34399.9,-1.2939,-1.481,135.3,97.3,0.506
5.28,31778.0,34512.6,-0.9186,-1.2033,135.3,97.3,0.506
5.3,31799.8,34805.7,-0.8283,-0.481,135.3,97.3,0.506
5.32,32080.1,35148.7,0.3282,0.3639,135.3,97.3,0.506
5.34,32195.1,35526.8,0.8025,1.2956,135.3,97.3,0.506
5.36,32293.7,35760.0,1.2095,1.8702,135.3,97.3,0.506
5.38,32417.2,35671.7,1.719,1.6526,135.3,97.3,0.506
5.4,32305.2,35688.0,1.2568,1.6928,135.3,97.3,0.506
5.42,32144.4,35489.8,0.5933,1.2044,135.3,97.3,0.506
5.44,32056.2,35335.5,0.2295,0.8242,135.3,97.3,0.506
5.46,32113.5,35200.1,0.4659,0.4907,135.3,97.3,0.506
5.48,32122.9,35098.9,0.5046,0.2414,135.3,97.3,0.506
5.5,32003.4,35135.2,0.0117,0.3308,135.3,97.3,0.506
5.52,32063.0,34983.3,0.2576,-0.0434,135.3,97.3,0.506
5.54,31978.5,34834.8,-0.091,-0.4095,135.3,97.3,0.506
5.56,31856.7,34808.6,-0.5938,-0.4739,135.3,97.3,0.506
5.58,31850.7,34694.2,-0.6183,-0.7559,135.3,97.3,0.506
5.6,31887.4,34701.7,-0.4668,-0.7373,135.3,97.3,0.506
5.62,31854.7,34685.2,-0.602,-0.7779,135.3,97.3,0.506
5.64,31837.0,34616.3,-0.6747,-0.9476,135.3,97.3,0.506
5.66,31751.4,34528.8,-1.0283,-1.1633,135.3,97.3,0.506
5.68,31887.3,34440.9,-0.4672,-1.3798,135.3,97.3,0.506
5.7,31737.3,34521.5,-1.0864,-1.1813,135.3,97.3,0.506
5.72,31780.4,34575.8,-0.9084,-1.0475,135.3,97.3,0.506
5.74,31914.0,34677.8,-0.3572,-0.7961,135.3,97.3,0.506
5.76,32060.1,35063.6,0.2455,0.1543,135.3,97.3,0.506
5.78,32136.9,35287.6,0.5625,0.7061,135.3,97.3,0.506
5.8,32309.5,35628.3,1.2746,1.5456,135.3,97.3,0.506
5.82,32378.1,35728.4,1.5578,1.7923,135.3,97.3,0.506
5.84,32341.3,35732.5,1.4058,1.8023,135.3,97.3,0.506
5.86,32244.4,35526.5,1.006,1.2947,135.3,97.3,0.506
5.88,32082.1,35380.2,0.3363,0.9343,135.3,97.3,0.506
5.9,32104.3,35081.6,0.4279,0.1988,135.3,97.3,0.506
5.92,32125.9,35161.7,0.517,0.396,135.3,97.3,0.506
5.94,32052.6,35071.3,0.2147,0.1733,135.3,97.3,0.506
5.96,31933.6,35040.9,-0.2765,0.0983,135.3,97.3,0.506
5.98,31985.1,34799.4,-0.0639,-0.4967,135.3,97.3,0.506
6.0,31887.2,34830.2,-0.4679,-0.4207,135.3,97.3,0.506
6.02,31867.4,34753.0,-0.5495,-0.6109,135.3,97.3,0.506
6.04,31859.6,34695.2,-0.5817,-0.7533,135.3,97.3,0.506
6.06,31871.7,34647.9,-0.5318,-0.8699,135.3,97.3,0.506
6.08,31818.9,34599.5,-0.7494,-0.9892,135.3,97.3,0.506
6.1,31839.4,34549.8,-0.665,-1.1115,135.3,97.3,0.506
6.12,31777.4,34539.8,-0.9209,-1.1362,135.3,97.3,0.506
6.14,31766.1,34477.6,-0.9677,-1.2894,135.3,97.3,0.506
6.16,31789.0,34570.8,-0.8729,-1.0598,135.3,97.3,0.506
6.18,31864.5,34693.3,-0.5615,-0.758,135.3,97.3,0.506
6.2,31949.5,35065.3,-0.2107,0.1584,135.3,97.3,0.506
6.22,32195.6,35366.2,0.8046,0.8998,135.3,97.3,0.506
6.24,32203.6,35640.3,0.8377,1.5751,135.3,97.3,0.506
6.26,32271.9,35736.3,1.1196,1.8116,135.3,97.3,0.506
6.28,32361.3,35641.9,1.4886,1.5791,135.3,97.3,0.506
6.3,32194.4,35570.2,0.7999,1.4025,135.3,97.3,0.506
6.32,32234.2,35388.2,0.9639,0.9541,135.3,97.3,0.506
6.34,32156.6,35280.9,0.6439,0.6896,135.3,97.3,0.506
6.36,32101.9,35091.1,0.418,0.2222,135.3,97.3,0.506
6.38,32104.3,35030.6,0.4282,0.0731,135.3,97.3,0.506
6.4,31993.6,34996.0,-0.0289,-0.0123,135.3,97.3,0.506
6.42,32020.8,34987.1,0.0836,-0.0343,135.3,97.3,0.506
6.44,31957.3,34876.8,-0.1783,-0.306,135.3,97.3,0.506
6.46,31796.9,34762.6,-0.8406,-0.5873,135.3,97.3,0.506
6.48,31809.8,34599.5,-0.7873,-0.9892,135.3,97.3,0.506
6.5,31886.4,34698.4,-0.471,-0.7454,135.3,97.3,0.506
6.52,31823.3,34661.6,-0.7315,-0.8362,135.3,97.3,0.506
6.54,31880.5,34639.8,-0.4954,-0.8898,135.3,97.3,0.506
6.56,31788.2,34497.8,-0.8761,-1.2398,135.3,97.3,0.506
6.58,31793.7,34509.2,-0.8537,-1.2116,135.3,97.3,0.506
6.6,31751.8,34433.9,-1.0263,-1.3971,135.3,97.3,0.506
6.62,31863.2,34634.3,-0.5668,-0.9034,135.3,97.3,0.506
6.64,32028.8,34894.1,0.1165,-0.2633,135.3,97.3,0.506
6.66,32061.2,35333.9,0.2503,0.8202,135.3,97.3,0.506
6.68,32323.9,35571.2,1.3342,1.4048,135.3,97.3,0.506
6.7,32386.8,35785.6,1.5937,1.9331,135.3,97.3,0.506
6.72,32351.4,35725.1,1.4475,1.7842,135.3,97.3,0.506
6.74,32288.0,35647.7,1.1859,1.5935,135.3,97.3,0.506
6.76,32118.4,35421.4,0.4862,1.036,135.3,97.3,0.506
6.78,32076.9,35272.8,0.3148,0.6696,135.3,97.3,0.506
6.8,32118.7,35153.6,0.4873,0.3762,135.3,97.3,0.506
6.82,32049.6,35097.5,0.2023,0.2379,135.3,97.3,0.506
6.84,32017.5,35004.9,0.07,0.0097,135.3,97.3,0.506
6.86,31983.0,34986.2,-0.0723,-0.0364,135.3,97.3,0.506
6.88,31936.0,34834.0,-0.2665,-0.4114,135.3,97.3,0.506
6.9,31892.2,34742.0,-0.4471,-0.6381,135.3,97.3,0.506
6.92,31913.5,34673.5,-0.3591,-0.8068,135.3,97.3,0.506
6.94,31786.9,34749.2,-0.8815,-0.6204,135.3,97.3,0.506
6.96,31765.7,34631.6,-0.969,-0.9101,135.3,97.3,0.506
6.98,31878.1,34507.6,-0.5053,-1.2156,135.3,97.3,0.506
7.0,31749.6,34587.7,-1.0355,-1.0181,135.3,97.3,0.506
7.02,31793.3,34369.7,-0.8552,-1.5552,135.3,97.3,0.506
7.04,31817.2,34529.0,-0.7568,-1.1627,135.3,97.3,0.506
7.06,31853.3,34628.6,-0.6076,-0.9175,135.3,97.3,0.506
7.08,31979.4,34887.1,-0.0875,-0.2807,135.3,97.3,0.506
7.1,32098.3,35201.6,0.4033,0.4944,135.3,97.3,0.506
7.12,32283.3,35563.7,1.1668,1.3864,135.3,97.3,0.506
7.14,32289.6,35755.7,1.1926,1.8595,135.3,97.3,0.506
7.16,32291.0,35846.1,1.1982,2.0823,135.3,97.3,0.506
7.18,32411.7,35644.8,1.6965,1.5863,135.3,97.3,0.506
7.2,32135.1,35380.5,0.5552,0.9351,135.3,97.3,0.506
7.22,32060.6,35164.8,0.2475,0.4037,135.3,97.3,0.506
7.24,32065.8,35160.7,0.2692,0.3935,135.3,97.3,0.506
7.26,32060.5,35178.3,0.2472,0.4369,135.3,97.3,0.506
7.28,32003.3,35151.3,0.0113,0.3705,135.3,97.3,0.506
7.3,31958.8,34997.1,-0.1723,-0.0096,135.3,97.3,0.506
7.32,31815.3,34903.2,-0.7643,-0.2408,135.3,97.3,0.506
7.34,31912.2,34803.7,-0.3644,-0.486,135.3,97.3,0.506
7.36,31915.2,34554.9,-0.3522,-1.0989,135.3,97.3,0.506
7.38,31885.2,34614.2,-0.4759,-0.9528,135.3,97.3,0.506
7.4,31871.8,34691.5,-0.5314,-0.7625,135.3,97.3,0.506
7.42,31941.9,34628.7,-0.2423,-0.9173,135.3,97.3,0.506
7.44,31813.6,34545.3,-0.7714,-1.1228,135.3,97.3,0.506
7.46,31756.0,34564.7,-1.0093,-1.0748,135.3,97.3,0.506
7.48,31744.2,34490.5,-1.0577,-1.2576,135.3,97.3,0.506
7.5,31842.7,34570.3,-0.6514,-1.0612,135.3,97.3,0.506
7.52,31973.9,34731.3,-0.11,-0.6644,135.3,97.3,0.506
7.54,32109.5,35171.3,0.4495,0.4196,135.3,97.3,0.506
7.56,32332.8,35560.0,1.371,1.3773,135.3,97.3,0.506
7.58,32295.8,35643.9,1.218,1.5839,135.3,97.3,0.506
7.6,32305.0,35781.4,1.2562,1.9228,135.3,97.3,0.506
7.62,32403.1,35665.0,1.6611,1.6359,135.3,97.3,0.506
7.64,32202.1,35491.8,0.8317,1.2094,135.3,97.3,0.506
7.66,32144.7,35230.0,0.5949,0.5643,135.3,97.3,0.506
7.68,32105.4,35131.5,0.4327,0.3215,135.3,97.3,0.506
7.7,32023.4,35090.7,0.0942,0.2212,135.3,97.3,0.506
7.72,32069.7,35078.0,0.2853,0.1898,135.3,97.3,0.506
7.74,32012.8,34932.6,0.0505,-0.1685,135.3,97.3,0.506
7.76,31968.8,34774.4,-0.1309,-0.5583,135.3,97.3,0.506
7.78,31911.6,34865.1,-0.367,-0.3347,135.3,97.3,0.506
7.8,31867.2,34735.1,-0.5503,-0.6551,135.3,97.3,0.506
7.82,31964.8,34736.7,-0.1477,-0.651,135.3,97.3,0.506
7.84,31800.6,34568.5,-0.825,-1.0655,135.3,97.3,0.506
7.86,31793.3,34612.4,-0.8551,-0.9573,135.3,97.3,0.506
7.88,31851.0,34526.4,-0.6173,-1.1692,135.3,97.3,0.506
7.9,31751.0,34587.4,-1.0296,-1.0191,135.3,97.3,0.506
7.92,31772.3,34399.7,-0.9419,-1.4813,135.3,97.3,0.506
7.94,31804.3,34585.6,-0.8097,-1.0233,135.3,97.3,0.506
7.96,31890.7,34853.9,-0.4535,-0.3625,135.3,97.3,0.506
7.98,32013.1,35112.2,0.0516,0.2741,135.3,97.3,0.506
8.0,32210.9,35451.1,0.8679,1.109,135.3,97.3,0.506
8.02,32319.5,35697.9,1.3158,1.7171,135.3,97.3,0.506
8.04,32358.2,35680.5,1.4756,1.6743,135.3,97.3,0.506
8.06,32283.2,35583.1,1.1661,1.4344,135.3,97.3,0.506
8.08,32247.0,35456.2,1.0169,1.1215,135.3,97.3,0.506
8.1,32100.0,35352.2,0.4101,0.8655,135.3,97.3,0.506
8.12,32041.6,35180.4,0.1693,0.4422,135.3,97.3,0.506
8.14,32063.8,35117.7,0.261,0.2876,135.3,97.3,0.506
8.16,32030.5,35024.8,0.1234,0.0588,135.3,97.3,0.506
8.18,31974.9,35039.0,-0.1061,0.0938,135.3,97.3,0.506
8.2,31877.1,34886.2,-0.5096,-0.2827,135.3,97.3,0.506
8.22,31958.6,34920.0,-0.1734,-0.1995,135.3,97.3,0.506
8.24,31795.9,34710.4,-0.8445,-0.7159,135.3,97.3,0.506
8.26,31849.1,34682.6,-0.6249,-0.7843,135.3,97.3,0.506
8.28,31903.2,34624.6,-0.4017,-0.9273,135.3,97.3,0.506
8.3,31894.6,34547.8,-0.4371,-1.1165,135.3,97.3,0.506
8.32,31761.4,34593.1,-0.9868,-1.0049,135.3,97.3,0.506
8.34,31732.0,34516.9,-1.1083,-1.1925,135.3,97.3,0.506
8.36,31731.8,34442.3,-1.1091,-1.3763,135.3,97.3,0.506
8.38,31792.6,34480.7,-0.8581,-1.2819,135.3,97.3,0.506
8.4,31902.0,34729.0,-0.4068,-0.6702,135.3,97.3,0.506
8.42,32056.3,35074.5,0.2299,0.1812,135.3,97.3,0.506
8.44,32196.1,35455.1,0.8068,1.119,135.3,97.3,0.506
8.46,32305.5,35676.4,1.258,1.664,135.3,97.3,0.506
8.48,32309.1,35729.4,1.2731,1.7947,135.3,97.3,0.506
8.5,32233.1,35604.8,0.9594,1.4876,135.3,97.3,0.506
8.52,32306.6,35502.8,1.2628,1.2364,135.3,97.3,0.506
8.54,32172.4,35325.6,0.7091,0.7999,135.3,97.3,0.506
8.56,32118.4,35198.4,0.4863,0.4864,135.3,97.3,0.506
8.58,32061.5,35073.9,0.2514,0.1797,135.3,97.3,0.506
8.6,32069.3,35035.2,0.2836,0.0843,135.3,97.3,0.506
8.62,31994.4,34994.2,-0.0253,-0.0167,135.3,97.3,0.506
8.64,31866.2,34917.1,-0.5545,-0.2066,135.3,97.3,0.506
8.66,31881.9,34729.3,-0.4897,-0.6693,135.3,97.3,0.506
8.68,31852.9,34752.4,-0.6095,-0.6124,135.3,97.3,0.506
8.7,31948.8,34661.7,-0.2138,-0.8359,135.3,97.3,0.506
8.72,31815.4,34667.7,-0.7642,-0.821,135.3,97.3,0.506
8.74,31859.0,34625.3,-0.584,-0.9255,135.3,97.3,0.506
8.76,31820.4,34531.5,-0.7434,-1.1566,135.3,97.3,0.506
8.78,31749.5,34502.5,-1.0359,-1.2282,135.3,97.3,0.506
8.8,31698.2,34422.3,-1.2478,-1.4257,135.3,97.3,0.506
8.82,31727.1,34490.9,-1.1285,-1.2566,135.3,97.3,0.506
8.84,31772.6,34728.4,-0.9407,-0.6716,135.3,97.3,0.506
8.86,31973.5,35094.5,-0.1119,0.2305,135.3,97.3,0.506
8.88,32237.8,35242.2,0.9788,0.5943,135.3,97.3,0.506
8.9,32301.0,35551.3,1.2396,1.3558,135.3,97.3,0.506
8.92,32328.9,35785.9,1.3548,1.934,135.3,97.3,0.506
8.94,32309.1,35668.2,1.273,1.6439,135.3,97.3,0.506
8.96,32200.3,35575.5,0.8243,1.4156,135.3,97.3,0.506
8.98,32113.2,35378.6,0.4648,0.9304,135.3,97.3,0.506
9.0,32166.8,35167.0,0.686,0.409,135.3,97.3,0.506
9.02,32052.5,35159.7,0.2144,0.391,135.3,97.3,0.506
9.04,32080.7,35103.8,0.3305,0.2532,135.3,97.3,0.506
9.06,32061.9,34955.2,0.2529,-0.1127,135.3,97.3,0.506
9.08,32130.7,34882.5,0.537,-0.292,135.3,97.3,0.506
9.1,31821.6,34758.8,-0.7385,-0.5967,135.3,97.3,0.506
9.12,31860.0,34684.4,-0.5799,-0.7799,135.3,97.3,0.506
9.14,31814.1,34676.8,-0.7694,-0.7987,135.3,97.3,0.506
9.16,31882.3,34663.3,-0.4881,-0.832,135.3,97.3,0.506
9.18,31751.7,34628.0,-1.0267,-0.9188,135.3,97.3,0.506
9.2,31860.9,34647.9,-0.5764,-0.8699,135.3,97.3,0.506
9.22,31734.8,34590.7,-1.0966,-1.0108,135.3,97.3,0.506
9.24,31761.5,34522.2,-0.9864,-1.1797,135.3,97.3,0.506
9.26,31688.6,34472.3,-1.2874,-1.3025,135.3,97.3,0.506
9.28,31770.8,34663.1,-0.9481,-0.8324,135.3,97.3,0.506
9.3,31998.8,34902.4,-0.0072,-0.243,135.3,97.3,0.506
9.32,32108.7,35267.4,0.446,0.6564,135.3,97.3,0.506
9.34,32269.6,35534.1,1.1102,1.3134,135.3,97.3,0.506
9.36,32391.8,35813.2,1.6143,2.0012,135.3,97.3,0.506
9.38,32312.4,35708.4,1.2865,1.743,135.3,97.3,0.506
9.4,32204.4,35610.4,0.8409,1.5014,135.3,97.3,0.506
9.42,32139.7,35311.3,0.574,0.7645,135.3,97.3,0.506
9.44,32154.8,35275.0,0.6363,0.6751,135.3,97.3,0.506
9.46,32032.3,35168.0,0.1311,0.4115,135.3,97.3,0.506
9.48,32097.0,35151.0,0.3981,0.3697,135.3,97.3,0.506
9.5,32044.0,34990.8,0.1793,-0.025,135.3,97.3,0.506
9.52,31965.4,34983.5,-0.1451,-0.043,135.3,97.3,0.506
9.54,31926.4,34916.0,-0.3059,-0.2095,135.3,97.3,0.506
9.56,31823.6,34785.7,-0.7301,-0.5304,135.3,97.3,0.506
9.58,31865.4,34637.6,-0.5579,-0.8952,135.3,97.3,0.506
9.6,31871.7,34734.3,-0.5316,-0.657,135.3,97.3,0.506
9.62,31861.5,34689.7,-0.5738,-0.7668,135.3,97.3,0.506
9.64,31745.3,34742.7,-1.0535,-0.6362,135.3,97.3,0.506
9.66,31740.4,34615.9,-1.0734,-0.9487,135.3,97.3,0.506
9.68,31744.9,34448.4,-1.0548,-1.3614,135.3,97.3,0.506
9.7,31684.5,34401.8,-1.304,-1.4763,135.3,97.3,0.506
9.72,31825.0,34584.7,-0.7244,-1.0257,135.3,97.3,0.506
9.74,31879.5,34849.9,-0.4994,-0.3722,135.3,97.3,0.506
9.76,32135.8,35273.2,0.5581,0.6708,135.3,97.3,0.506
9.78,32298.7,35606.2,1.23,1.4913,135.3,97.3,0.506
9.8,32382.8,35737.5,1.5774,1.8147,135.3,97.3,0.506
9.82,32341.9,35820.2,1.4083,2.0184,135.3,97.3,0.506
9.84,32229.8,35545.6,0.9458,1.342,135.3,97.3,0.506
9.86,32250.5,35528.5,1.0311,1.2998,135.3,97.3,0.506
9.88,32057.4,35260.5,0.2346,0.6393,135.3,97.3,0.506
9.9,32055.6,35175.0,0.2272,0.4287,135.3,97.3,0.506
9.92,32090.1,34966.2,0.3695,-0.0856,135.3,97.3,0.506
9.94,32074.6,35115.7,0.3056,0.2827,135.3,97.3,0.506
9.96,31936.2,34966.3,-0.2658,-0.0855,135.3,97.3,0.506
9.98,31878.0,34857.0,-0.5056,-0.3548,135.3,97.3,0.506
10.0,31972.5,34872.6,-0.116,-0.3163,135.3,97.3,0.506
10.02,31880.5,34645.8,-0.4952,-0.875,135.3,97.3,0.506
10.04,31864.3,34670.9,-0.5623,-0.8132,135.3,97.3,0.506
10.06,31894.7,34688.3,-0.4369,-0.7703,135.3,97.3,0.506
10.08,31861.5,34619.3,-0.5739,-0.9403,135.3,97.3,0.506
10.1,31837.2,34620.7,-0.6739,-0.9369,135.3,97.3,0.506
10.12,31786.3,34476.3,-0.884,-1.2928,135.3,97.3,0.506
10.14,31780.4,34476.2,-0.9085,-1.2928,135.3,97.3,0.506
10.16,31735.9,34678.6,-1.0921,-0.7943,135.3,97.3,0.506
10.18,32008.8,34809.4,0.0338,-0.472,135.3,97.3,0.506
10.2,32120.3,35241.6,0.4942,0.5929,135.3,97.3,0.506
10.22,32233.5,35530.5,0.9611,1.3047,135.3,97.3,0.506
10.24,32324.3,35680.1,1.3358,1.6731,135.3,97.3,0.506
10.26,32344.8,35694.3,1.4205,1.7081,135.3,97.3,0.506
10.28,32310.9,35651.9,1.2804,1.6037,135.3,97.3,0.506
10.3,32238.2,35447.8,0.9805,1.1009,135.3,97.3,0.506
10.32,32175.8,35238.7,0.723,0.5856,135.3,97.3,0.506
10.34,32084.7,35214.7,0.3471,0.5267,135.3,97.3,0.506
10.36,32040.8,35083.5,0.1661,0.2033,135.3,97.3,0.506
10.38,32017.6,35077.3,0.0702,0.1881,135.3,97.3,0.506
10.4,32003.0,35022.3,0.0101,0.0526,135.3,97.3,0.506
10.42,31978.3,34848.2,-0.092,-0.3764,135.3,97.3,0.506
10.44,31876.0,34754.2,-0.514,-0.6079,135.3,97.3,0.506
10.46,31880.1,34638.8,-0.4972,-0.8923,135.3,97.3,0.506
10.48,31867.2,34744.1,-0.5501,-0.6328,135.3,97.3,0.506
10.5,31726.3,34567.3,-1.1317,-1.0685,135.3,97.3,0.506
10.52,31934.3,34643.6,-0.2735,-0.8806,135.3,97.3,0.506
10.54,31849.9,34644.3,-0.6218,-0.8786,135.3,97.3,0.506
10.56,31744.9,34474.7,-1.0551,-1.2966,135.3,97.3,0.506
10.58,31706.3,34503.6,-1.2142,-1.2253,135.3,97.3,0.506
10.6,31771.5,34542.9,-0.9454,-1.1286,135.3,97.3,0.506
10.62,31947.4,34815.8,-0.2193,-0.4563,135.3,97.3,0.506
10.64,32071.8,35048.4,0.2939,0.1168,135.3,97.3,0.506
10.66,32234.4,35467.3,0.9649,1.1488,135.3,97.3,0.506
10.68,32312.4,35563.8,1.2868,1.3867,135.3,97.3,0.506
10.7,32280.6,35701.5,1.1555,1.7258,135.3,97.3,0.506
10.72,32319.4,35720.4,1.3157,1.7726,135.3,97.3,0.506
10.74,32129.3,35454.6,0.5312,1.1176,135.3,97.3,0.506
10.76,32187.3,35265.3,0.7707,0.6513,135.3,97.3,0.506
10.78,32111.3,35166.1,0.4569,0.4068,135.3,97.3,0.506
10.8,32074.2,35197.3,0.304,0.4838,135.3,97.3,0.506
10.82,32131.5,35031.3,0.5401,0.0748,135.3,97.3,0.506
10.84,32030.0,34957.7,0.1213,-0.1067,135.3,97.3,0.506
10.86,31998.8,34819.1,-0.0074,-0.4481,135.3,97.3,0.506
10.88,31866.8,34808.7,-0.5518,-0.4738,135.3,97.3,0.506
10.9,31916.4,34752.1,-0.3471,-0.6132,135.3,97.3,0.506
10.92,31805.5,34621.0,-0.8049,-0.9361,135.3,97.3,0.506
10.94,31843.5,34691.6,-0.648,-0.7622,135.3,97.3,0.506
10.96,31851.7,34731.1,-0.6142,-0.6649,135.3,97.3,0.506
10.98,31806.4,34538.9,-0.8011,-1.1384,135.3,97.3,0.506
11.0,31844.0,34436.9,-0.6459,-1.3898,135.3,97.3,0.506
11.02,31780.8,34451.5,-0.9067,-1.3538,135.3,97.3,0.506
11.04,31818.8,34545.5,-0.7501,-1.1221,135.3,97.3,0.506
11.06,31929.1,34692.1,-0.2951,-0.7611,135.3,97.3,0.506
11.08,32128.7,35128.3,0.5285,0.3137,135.3,97.3,0.506
11.1,32197.8,35480.8,0.814,1.1823,135.3,97.3,0.506
11.12,32284.2,35668.9,1.1702,1.6457,135.3,97.3,0.506
11.14,32331.4,35805.8,1.3652,1.983,135.3,97.3,0.506
11.16,32335.8,35726.6,1.3833,1.7877,135.3,97.3,0.506
11.18,32242.7,35518.2,0.9992,1.2742,135.3,97.3,0.506
11.2,32184.9,35343.1,0.7606,0.843,135.3,97.3,0.506
11.22,32092.8,35119.0,0.3804,0.2909,135.3,97.3,0.506
11.24,31988.4,35148.6,-0.05,0.3637,135.3,97.3,0.506
11.26,31996.4,35101.4,-0.0171,0.2475,135.3,97.3,0.506
11.28,31931.2,34974.4,-0.2861,-0.0654,135.3,97.3,0.506
11.3,31981.4,34953.2,-0.0791,-0.1177,135.3,97.3,0.506
11.32,31907.7,34843.1,-0.3834,-0.389,135.3,97.3,0.506
11.34,31871.1,34670.3,-0.5341,-0.8147,135.3,97.3,0.506
11.36,31866.2,34645.0,-0.5543,-0.8771,135.3,97.3,0.506
11.38,31901.6,34701.5,-0.4084,-0.7379,135.3,97.3,0.506
11.4,31848.4,34688.1,-0.628,-0.771,135.3,97.3,0.506
11.42,31877.7,34642.6,-0.5072,-0.8831,135.3,97.3,0.506
11.44,31830.0,34523.0,-0.7038,-1.1777,135.3,97.3,0.506
11.46,31688.3,34473.2,-1.2885,-1.3004,135.3,97.3,0.506
11.48,31803.8,34438.2,-0.8117,-1.3867,135.3,97.3,0.506
11.5,31971.4,34713.5,-0.1202,-0.7082,135.3,97.3,0.506
11.52,31948.0,34971.0,-0.2169,-0.0738,135.3,97.3,0.506
11.54,32172.6,35403.9,0.7098,0.9928,135.3,97.3,0.506
11.56,32327.0,35632.9,1.347,1.5571,135.3,97.3,0.506
11.58,32356.2,35752.1,1.4674,1.8505,135.3,97.3,0.506
11.6,32284.7,35622.1,1.1724,1.5303,135.3,97.3,0.506
11.62,32274.7,35521.3,1.1311,1.282,135.3,97.3,0.506
11.64,32132.9,35342.9,0.546,0.8424,135.3,97.3,0.506
11.66,32097.5,35272.8,0.4002,0.6698,135.3,97.3,0.506
11.68,32102.6,35106.9,0.4208,0.261,135.3,97.3,0.506
11.7,31949.6,35076.7,-0.2102,0.1866,135.3,97.3,0.506
11.72,31958.2,35052.5,-0.1749,0.127,135.3,97.3,0.506
11.74,31859.8,34911.4,-0.581,-0.2206,135.3,97.3,0.506
11.76,31882.3,34835.6,-0.4878,-0.4075,135.3,97.3,0.506
11.78,31859.3,34712.6,-0.5829,-0.7105,135.3,97.3,0.506
11.8,31771.3,34703.1,-0.9459,-0.734,135.3,97.3,0.506
11.82,31866.8,34601.5,-0.5518,-0.9842,135.3,97.3,0.506
11.84,31860.7,34611.9,-0.5771,-0.9586,135.3,97.3,0.506
11.86,31839.7,34579.4,-0.6637,-1.0387,135.3,97.3,0.506
11.88,31883.4,34508.9,-0.4835,-1.2123,135.3,97.3,0.506
11.9,31715.0,34459.6,-1.1785,-1.3339,135.3,97.3,0.506
11.92,31745.9,34485.8,-1.0507,-1.2693,135.3,97.3,0.506
11.94,31817.1,34675.2,-0.7571,-0.8026,135.3,97.3,0.506
11.96,31960.9,34926.1,-0.1638,-0.1845,135.3,97.3,0.506
11.98,32082.6,35243.0,0.3383,0.5964,135.3,97.3,0.506
12.0,32203.4,35586.9,0.8368,1.4435,135.3,97.3,0.506
12.02,32362.5,35765.5,1.4933,1.8837,135.3,97.3,0.506
12.04,32351.9,35740.5,1.4497,1.822,135.3,97.3,0.506
12.06,32232.8,35631.8,0.9582,1.5542,135.3,97.3,0.506
12.08,32170.4,35333.7,0.7006,0.8199,135.3,97.3,0.506
12.1,32032.7,35300.3,0.1325,0.7374,135.3,97.3,0.506
12.12,32128.7,35151.2,0.5285,0.3701,135.3,97.3,0.506
12.14,32096.3,35084.6,0.3952,0.2061,135.3,97.3,0.506
12.16,31983.2,35049.5,-0.0718,0.1197,135.3,97.3,0.506
12.18,32022.5,34882.3,0.0906,-0.2923,135.3,97.3,0.506
12.2,32018.2,34916.7,0.073,-0.2076,135.3,97.3,0.506
12.22,31911.9,34800.6,-0.3657,-0.4937,135.3,97.3,0.506
12.24,31833.6,34707.8,-0.689,-0.7222,135.3,97.3,0.506
12.26,31835.3,34727.5,-0.682,-0.6738,135.3,97.3,0.506
12.28,31924.5,34647.2,-0.3138,-0.8716,135.3,97.3,0.506
12.3,31783.4,34575.1,-0.8962,-1.0493,135.3,97.3,0.506
12.32,31704.4,34596.9,-1.2219,-0.9955,135.3,97.3,0.506
12.34,31738.9,34521.4,-1.0795,-1.1815,135.3,97.3,0.506
12.36,31695.1,34581.1,-1.2603,-1.0344,135.3,97.3,0.506
12.38,31786.1,34620.4,-0.885,-0.9375,135.3,97.3,0.506
12.4,31911.3,34955.2,-0.3683,-0.1127,135.3,97.3,0.506
12.42,32161.7,35210.5,0.6648,0.5163,135.3,97.3,0.506
12.44,32258.0,35556.4,1.0621,1.3684,135.3,97.3,0.506
12.46,32430.8,35720.9,1.7753,1.7738,135.3,97.3,0.506
12.48,32359.6,35753.8,1.4814,1.8548,135.3,97.3,0.506
12.5,32307.8,35539.5,1.2676,1.3268,135.3,97.3,0.506
12.52,32155.1,35478.7,0.6376,1.1771,135.3,97.3,0.506
12.54,32160.4,35236.6,0.6597,0.5805,135.3,97.3,0.506
12.56,32033.3,35196.2,0.135,0.481,135.3,97.3,0.506
12.58,32012.3,35112.5,0.0485,0.2748,135.3,97.3,0.506
12.6,31949.1,35141.4,-0.2125,0.3461,135.3,97.3,0.506
12.62,32041.7,34970.1,0.1695,-0.0759,135.3,97.3,0.506
12.64,31938.2,34869.4,-0.2572,-0.3242,135.3,97.3,0.506
12.66,31829.6,34848.1,-0.7054,-0.3767,135.3,97.3,0.506
12.68,31825.1,34777.7,-0.7241,-0.5501,135.3,97.3,0.506
12.7,31782.9,34702.1,-0.898,-0.7364,135.3,97.3,0.506
12.72,31836.2,34732.2,-0.6782,-0.6623,135.3,97.3,0.506
12.74,31845.3,34667.1,-0.6406,-0.8225,135.3,97.3,0.506
12.76,31666.9,34437.4,-1.3768,-1.3884,135.3,97.3,0.506
12.78,31778.8,34413.5,-0.9152,-1.4474,135.3,97.3,0.506
12.8,31654.2,34435.6,-1.4293,-1.393,135.3,97.3,0.506
12.82,31767.9,34623.3,-0.9601,-0.9305,135.3,97.3,0.506
12.84,31798.2,34883.6,-0.8352,-0.2892,135.3,97.3,0.506
12.86,31985.3,35208.8,-0.063,0.5121,135.3,97.3,0.506
12.88,32232.1,35533.7,0.9554,1.3125,135.3,97.3,0.506
12.9,32330.2,35706.8,1.3601,1.7389,135.3,97.3,0.506
12.92,32317.3,35725.9,1.3069,1.7862,135.3,97.3,0.506
12.94,32275.0,35725.5,1.1326,1.7851,135.3,97.3,0.506
12.96,32189.5,35459.7,0.7796,1.1301,135.3,97.3,0.506
12.98,32181.8,35243.9,0.7479,0.5985,135.3,97.3,0.506
13.0,32010.7,35159.2,0.042,0.3898,135.3,97.3,0.506
13.02,32097.0,35039.9,0.3979,0.0958,135.3,97.3,0.506
13.04,32033.3,35023.5,0.1351,0.0554,135.3,97.3,0.506
13.06,31946.7,34920.9,-0.2224,-0.1972,135.3,97.3,0.506
13.08,31967.1,34815.3,-0.1379,-0.4575,135.3,97.3,0.506
13.1,31873.7,34784.3,-0.5235,-0.5339,135.3,97.3,0.506
13.12,31861.2,34712.3,-0.575,-0.7112,135.3,97.3,0.506
13.14,31879.1,34637.0,-0.5011,-0.8968,135.3,97.3,0.506
13.16,31868.0,34715.6,-0.547,-0.703,135.3,97.3,0.506
13.18,31867.1,34583.1,-0.5506,-1.0296,135.3,97.3,0.506
13.2,31786.6,34557.3,-0.8829,-1.0931,135.3,97.3,0.506
13.22,31766.2,34431.6,-0.9671,-1.4027,135.3,97.3,0.506
13.24,31741.0,34423.6,-1.0711,-1.4224,135.3,97.3,0.506
13.26,31765.4,34573.8,-0.9703,-1.0525,135.3,97.3,0.506
13.28,31924.5,34763.0,-0.314,-0.5863,135.3,97.3,0.506
13.3,31981.3,35122.8,-0.0797,0.3002,135.3,97.3,0.506
13.32,32161.1,35480.8,0.6622,1.1821,135.3,97.3,0.506
13.34,32292.4,35702.7,1.2043,1.7288,135.3,97.3,0.506
13.36,32412.5,35740.0,1.6999,1.8209,135.3,97.3,0.506
13.38,32254.6,35650.0,1.0483,1.5991,135.3,97.3,0.506
13.4,32217.3,35415.2,0.8944,1.0206,135.3,97.3,0.506
13.42,32243.8,35255.7,1.0036,0.6275,135.3,97.3,0.506
13.44,32078.7,35216.6,0.3226,0.5312,135.3,97.3,0.506
13.46,32008.9,35093.0,0.0345,0.2267,135.3,97.3,0.506
13.48,32021.7,35028.5,0.0873,0.0679,135.3,97.3,0.506
13.5,32127.6,35051.4,0.524,0.1243,135.3,97.3,0.506
13.52,31968.4,34951.6,-0.1327,-0.1216,135.3,97.3,0.506
13.54,31926.9,34765.6,-0.3041,-0.5799,135.3,97.3,0.506
13.56,31834.8,34682.4,-0.6838,-0.7848,135.3,97.3,0.506
13.58,31923.2,34680.6,-0.3193,-0.7892,135.3,97.3,0.506
13.6,31720.8,34660.1,-1.1543,-0.8398,135.3,97.3,0.506
13.62,31808.6,34681.1,-0.7922,-0.7881,135.3,97.3,0.506
13.64,31872.3,34517.3,-0.5292,-1.1916,135.3,97.3,0.506
13.66,31836.9,34546.9,-0.6752,-1.1188,135.3,97.3,0.506
13.68,31818.3,34467.1,-0.7522,-1.3153,135.3,97.3,0.506
13.7,31774.1,34514.5,-0.9346,-1.1985,135.3,97.3,0.506
13.72,31871.1,34746.6,-0.5344,-0.6267,135.3,97.3,0.506
13.74,31965.4,35074.0,-0.1451,0.18,135.3,97.3,0.506
13.76,32171.6,35372.1,0.7057,0.9144,135.3,97.3,0.506
13.78,32356.7,35647.9,1.4696,1.594,135.3,97.3,0.506
13.8,32295.9,35750.2,1.2185,1.8459,135.3,97.3,0.506
13.82,32245.1,35778.6,1.009,1.9159,135.3,97.3,0.506
13.84,32215.9,35499.9,0.8884,1.2292,135.3,97.3,0.506
13.86,32281.5,35408.1,1.1593,1.0032,135.3,97.3,0.506
13.88,32186.3,35228.1,0.7665,0.5595,135.3,97.3,0.506
13.9,32061.0,35192.3,0.2494,0.4715,135.3,97.3,0.506
13.92,32070.6,34964.3,0.2889,-0.0904,135.3,97.3,0.506
13.94,32017.2,35191.4,0.0685,0.4691,135.3,97.3,0.506
13.96,31933.6,34846.8,-0.2762,-0.3798,135.3,97.3,0.506
13.98,31957.6,34906.1,-0.1773,-0.2337,135.3,97.3,0.506
14.0,31836.5,34670.7,-0.6769,-0.8137,135.3,97.3,0.506
14.02,31897.4,34746.3,-0.4257,-0.6276,135.3,97.3,0.506
14.04,31736.4,34626.7,-1.09,-0.9221,135.3,97.3,0.506
14.06,31860.5,34595.6,-0.5779,-0.9987,135.3,97.3,0.506
14.08,31755.1,34520.4,-1.0129,-1.184,135.3,97.3,0.506
14.1,31809.9,34567.8,-0.7869,-1.0673,135.3,97.3,0.506
14.12,31830.8,34461.9,-0.7005,-1.3282,135.3,97.3,0.506
14.14,31820.9,34539.2,-0.7412,-1.1377,135.3,97.3,0.506
14.16,31925.9,34750.6,-0.3079,-0.6169,135.3,97.3,0.506
14.18,32068.8,34887.9,0.2815,-0.2785,135.3,97.3,0.506
14.2,32084.6,35287.8,0.3467,0.7067,135.3,97.3,0.506
14.22,32320.7,35624.1,1.3211,1.5353,135.3,97.3,0.506
14.24,32326.7,35794.0,1.3458,1.9538,135.3,97.3,0.506
14.26,32278.8,35736.9,1.1481,1.8132,135.3,97.3,0.506
14.28,32217.2,35539.1,0.8937,1.3257,135.3,97.3,0.506
14.3,32174.9,35385.1,0.7193,0.9465,135.3,97.3,0.506
14.32,32001.1,35142.9,0.0022,0.3497,135.3,97.3,0.506
14.34,31988.9,35167.8,-0.048,0.4109,135.3,97.3,0.506
14.36,31994.4,35109.8,-0.0256,0.2681,135.3,97.3,0.506
14.38,31961.8,35032.3,-0.16,0.0772,135.3,97.3,0.506
14.4,31837.1,34934.6,-0.6744,-0.1636,135.3,97.3,0.506
14.42,31873.8,34779.9,-0.5232,-0.5446,135.3,97.3,0.506
14.44,31839.3,34778.6,-0.6653,-0.5479,135.3,97.3,0.506
14.46,31899.1,34662.7,-0.4188,-0.8334,135.3,97.3,0.506
14.48,31899.0,34694.1,-0.4189,-0.7561,135.3,97.3,0.506
14.5,31773.3,34711.7,-0.9377,-0.7126,135.3,97.3,0.506
14.52,31811.2,34605.3,-0.7812,-0.975,135.3,97.3,0.506
14.54,31689.7,34521.3,-1.2829,-1.1819,135.3,97.3,0.506
14.56,31723.2,34383.0,-1.1444,-1.5224,135.3,97.3,0.506
14.58,31788.6,34527.5,-0.8745,-1.1665,135.3,97.3,0.506
14.6,31796.4,34714.1,-0.8425,-0.7067,135.3,97.3,0.506
14.62,31965.1,34949.8,-0.1465,-0.126,135.3,97.3,0.506
14.64,32157.3,35279.2,0.6466,0.6856,135.3,97.3,0.506
14.66,32191.7,35582.2,0.7887,1.432,135.3,97.3,0.506
14.68,32324.6,35749.7,1.3371,1.8448,135.3,97.3,0.506
14.7,32325.1,35791.4,1.3393,1.9475,135.3,97.3,0.506
14.72,32293.8,35624.0,1.21,1.5349,135.3,97.3,0.506
14.74,32165.6,35360.6,0.6808,0.8861,135.3,97.3,0.506
14.76,32124.6,35290.2,0.5117,0.7127,135.3,97.3,0.506
14.78,31992.5,35172.9,-0.0333,0.4235,135.3,97.3,0.506
14.8,32058.2,35077.1,0.2377,0.1875,135.3,97.3,0.506
14.82,32044.1,35093.3,0.1796,0.2274,135.3,97.3,0.506
14.84,31991.4,35035.7,-0.0378,0.0856,135.3,97.3,0.506
14.86,31958.8,34843.7,-0.1723,-0.3874,135.3,97.3,0.506
14.88,31866.7,34734.6,-0.5525,-0.6563,135.3,97.3,0.506
14.9,31862.4,34765.3,-0.5702,-0.5806,135.3,97.3,0.506
14.92,31856.5,34665.6,-0.5943,-0.8262,135.3,97.3,0.506
14.94,31763.3,34717.7,-0.9789,-0.6979,135.3,97.3,0.506
14.96,31836.5,34670.3,-0.6771,-0.8147,135.3,97.3,0.506
14.98,31785.9,34454.7,-0.8859,-1.3459,135.3,97.3,0.506
15.0,31755.4,34515.9,-1.0117,-1.1952,135.3,97.3,0.506
15.02,31752.5,34421.0,-1.0237,-1.429,135.3,97.3,0.506
15.04,31757.8,34570.7,-1.0017,-1.06,135.3,97.3,0.506
15.06,31893.1,34886.0,-0.4436,-0.2833,135.3,97.3,0.506
15.08,32129.7,35260.3,0.5327,0.6389,135.3,97.3,0.506
15.1,32285.8,35499.4,1.177,1.228,135.3,97.3,0.506
15.12,32398.5,35794.9,1.6418,1.9561,135.3,97.3,0.506
15.14,32297.3,35837.3,1.2246,2.0606,135.3,97.3,0.506
15.16,32311.1,35599.2,1.2813,1.4738,135.3,97.3,0.506
15.18,32151.6,35365.2,0.6231,0.8974,135.3,97.3,0.506
15.2,32082.4,35234.9,0.3375,0.5764,135.3,97.3,0.506
15.22,32092.4,35257.3,0.3788,0.6315,135.3,97.3,0.506
15.24,31973.6,35108.4,-0.1113,0.2648,135.3,97.3,0.506
15.26,32029.6,35048.5,0.1197,0.117,135.3,97.3,0.506
15.28,31962.9,34890.4,-0.1553,-0.2724,135.3,97.3,0.506
15.3,31960.4,34891.6,-0.1657,-0.2695,135.3,97.3,0.506
15.32,31924.8,34846.3,-0.3128,-0.3811,135.3,97.3,0.506
15.34,31907.9,34698.0,-0.3824,-0.7465,135.3,97.3,0.506
15.36,31795.0,34605.1,-0.8483,-0.9753,135.3,97.3,0.506
15.38,31891.9,34620.8,-0.4484,-0.9367,135.3,97.3,0.506
15.4,31851.6,34630.0,-0.6147,-0.914,135.3,97.3,0.506
15.42,31870.8,34480.6,-0.5355,-1.2822,135.3,97.3,0.506
15.44,31738.5,34506.5,-1.0813,-1.2182,135.3,97.3,0.506
15.46,31766.5,34462.3,-0.966,-1.3272,135.3,97.3,0.506
15.48,31887.0,34547.9,-0.4685,-1.1162,135.3,97.3,0.506
15.5,31923.1,34786.9,-0.3195,-0.5275,135.3,97.3,0.506
15.52,32072.2,35187.2,0.2956,0.4588,135.3,97.3,0.506
15.54,32309.2,35485.0,1.2733,1.1927,135.3,97.3,0.506
15.56,32293.1,35701.2,1.207,1.7251,135.3,97.3,0.506
15.58,32342.9,35784.1,1.4127,1.9294,135.3,97.3,0.506
15.6,32257.2,35647.9,1.0587,1.594,135.3,97.3,0.506
15.62,32329.3,35351.1,1.3564,0.8627,135.3,97.3,0.506
15.64,32138.8,35300.1,0.5706,0.7369,135.3,97.3,0.506
15.66,32019.3,35091.7,0.0771,0.2236,135.3,97.3,0.506
15.68,32040.1,35148.3,0.1631,0.363,135.3,97.3,0.506
15.7,31920.2,35087.7,-0.3318,0.2138,135.3,97.3,0.506
15.72,31965.8,34966.4,-0.1434,-0.0851,135.3,97.3,0.506
15.74,31978.9,34874.0,-0.0896,-0.3128,135.3,97.3,0.506
15.76,31835.1,34820.9,-0.6827,-0.4436,135.3,97.3,0.506
15.78,31909.0,34766.7,-0.3779,-0.5771,135.3,97.3,0.506
15.8,31872.1,34544.7,-0.5303,-1.1242,135.3,97.3,0.506
15.82,31834.0,34720.5,-0.6874,-0.6909,135.3,97.3,0.506
15.84,31949.1,34566.5,-0.2123,-1.0705,135.3,97.3,0.506
15.86,31775.3,34635.7,-0.9293,-0.9,135.3,97.3,0.506
15.88,31772.0,34553.6,-0.9432,-1.1022,135.3,97.3,0.506
15.9,31730.6,34519.2,-1.114,-1.1869,135.3,97.3,0.506
15.92,31819.1,34535.0,-0.7486,-1.1481,135.3,97.3,0.506
15.94,31866.2,34791.0,-0.5546,-0.5172,135.3,97.3,0.506
15.96,32001.2,35090.6,0.0026,0.2207,135.3,97.3,0.506
15.98,32198.9,35524.0,0.8185,1.2887,135.3,97.3,0.506
16.0,32269.2,35646.4,1.1086,1.5901,135.3,97.3,0.506
16.02,32362.0,35788.3,1.4915,1.9399,135.3,97.3,0.506
16.04,32348.6,35681.3,1.4359,1.6761,135.3,97.3,0.506
16.06,32254.5,35511.8,1.0476,1.2585,135.3,97.3,0.506
16.08,32225.7,35299.8,0.9288,0.7362,135.3,97.3,0.506
16.1,32166.6,35230.0,0.6849,0.5642,135.3,97.3,0.506
16.12,32029.4,35131.1,0.1191,0.3206,135.3,97.3,0.506
16.14,32009.8,35031.5,0.0379,0.0753,135.3,97.3,0.506
16.16,32033.1,35007.8,0.1342,0.0168,135.3,97.3,0.506
16.18,31908.4,35004.4,-0.3801,0.0086,135.3,97.3,0.506
16.2,32023.3,34723.2,0.0939,-0.6843,135.3,97.3,0.506
16.22,31805.7,34644.0,-0.8041,-0.8795,135.3,97.3,0.506
16.24,31847.2,34671.6,-0.6328,-0.8115,135.3,97.3,0.506
16.26,31804.2,34651.5,-0.8103,-0.861,135.3,97.3,0.506
16.28,31760.7,34685.2,-0.9897,-0.778,135.3,97.3,0.506
16.3,31798.6,34610.5,-0.8333,-0.9621,135.3,97.3,0.506
16.32,31819.0,34485.0,-0.7494,-1.2712,135.3,97.3,0.506
16.34,31666.0,34459.3,-1.3806,-1.3345,135.3,97.3,0.506
16.36,31803.3,34474.9,-0.8141,-1.296,135.3,97.3,0.506
16.38,31858.2,34646.9,-0.5876,-0.8723,135.3,97.3,0.506
16.4,31983.1,35078.5,-0.0721,0.1909,135.3,97.3,0.506
16.42,32245.0,35359.3,1.0084,0.8828,135.3,97.3,0.506
16.44,32296.0,35654.0,1.2189,1.6089,135.3,97.3,0.506
16.46,32315.0,35742.3,1.2973,1.8265,135.3,97.3,0.506
16.48,32274.9,35664.9,1.132,1.6358,135.3,97.3,0.506
16.5,32322.0,35472.9,1.3263,1.1628,135.3,97.3,0.506
16.52,32155.4,35272.6,0.6388,0.6692,135.3,97.3,0.506
16.54,32041.8,35186.9,0.17,0.4581,135.3,97.3,0.506
16.56,32068.1,35144.2,0.2787,0.353,135.3,97.3,0.506
16.58,32097.2,35024.5,0.3989,0.0581,135.3,97.3,0.506
16.6,31980.8,34988.6,-0.0816,-0.0305,135.3,97.3,0.506
16.62,32044.2,34956.2,0.1801,-0.1103,135.3,97.3,0.506
16.64,31899.6,34897.6,-0.4165,-0.2547,135.3,97.3,0.506
16.66,31837.4,34728.9,-0.6734,-0.6703,135.3,97.3,0.506
16.68,31894.5,34688.1,-0.4378,-0.7707,135.3,97.3,0.506
16.7,31873.8,34666.4,-0.5232,-0.8243,135.3,97.3,0.506
16.72,31812.8,34548.6,-0.7746,-1.1144,135.3,97.3,0.506
16.74,31724.2,34649.3,-1.1403,-0.8663,135.3,97.3,0.506
16.76,31746.9,34511.4,-1.0465,-1.2063,135.3,97.3,0.506
16.78,31775.7,34522.6,-0.928,-1.1785,135.3,97.3,0.506
16.8,31790.8,34547.3,-0.8655,-1.1177,135.3,97.3,0.506
16.82,31874.9,34605.9,-0.5186,-0.9733,135.3,97.3,0.506
16.84,31944.4,35072.8,-0.2318,0.177,135.3,97.3,0.506
16.86,32242.9,35389.1,0.9999,0.9562,135.3,97.3,0.506
16.88,32241.5,35573.5,0.9942,1.4105,135.3,97.3,0.506
16.9,32466.5,35774.2,1.9227,1.9052,135.3,97.3,0.506
16.92,32385.0,35675.3,1.5861,1.6613,135.3,97.3,0.506
16.94,32258.0,35559.3,1.0624,1.3755,135.3,97.3,0.506
16.96,32168.8,35324.9,0.694,0.798,135.3,97.3,0.506
16.98,32006.2,35182.1,0.0232,0.4462,135.3,97.3,0.506
17.0,31978.4,35088.8,-0.0914,0.2163,135.3,97.3,0.506
17.02,32026.6,35110.2,0.1075,0.2691,135.3,97.3,0.506
17.04,32013.3,35060.9,0.0526,0.1476,135.3,97.3,0.506
17.06,31993.9,34934.0,-0.0273,-0.165,135.3,97.3,0.506
17.08,32004.1,34851.2,0.0145,-0.3689,135.3,97.3,0.506
17.1,31827.9,34817.6,-0.7126,-0.4518,135.3,97.3,0.506
17.12,31859.4,34714.1,-0.5825,-0.7068,135.3,97.3,0.506
17.14,31922.1,34652.8,-0.3237,-0.8579,135.3,97.3,0.506
17.16,31911.5,34645.4,-0.3677,-0.8762,135.3,97.3,0.506
17.18,31760.9,34669.2,-0.9889,-0.8175,135.3,97.3,0.506
17.2,31761.9,34468.3,-0.985,-1.3125,135.3,97.3,0.506
17.22,31793.5,34468.1,-0.8544,-1.3128,135.3,97.3,0.506
17.24,31813.7,34517.9,-0.771,-1.1902,135.3,97.3,0.506
17.26,31829.6,34645.3,-0.7055,-0.8763,135.3,97.3,0.506
17.28,31919.9,35022.1,-0.3328,0.0521,135.3,97.3,0.506
17.3,32097.1,35273.7,0.3982,0.672,135.3,97.3,0.506
17.32,32325.2,35483.2,1.3397,1.1881,135.3,97.3,0.506
17.34,32225.5,35799.4,0.928,1.9671,135.3,97.3,0.506
17.36,32347.6,35773.8,1.4321,1.9041,135.3,97.3,0.506
17.38,32316.4,35599.2,1.3032,1.4738,135.3,97.3,0.506
17.4,32303.4,35470.0,1.2494,1.1555,135.3,97.3,0.506
17.42,32070.7,35184.5,0.2892,0.4522,135.3,97.3,0.506
17.44,32037.0,35145.2,0.1505,0.3553,135.3,97.3,0.506
17.46,32080.5,35105.0,0.3298,0.2563,135.3,97.3,0.506
17.48,32046.6,34996.1,0.1899,-0.012,135.3,97.3,0.506
17.5,31988.0,34916.9,-0.0519,-0.2071,135.3,97.3,0.506
17.52,31918.6,34841.7,-0.3381,-0.3923,135.3,97.3,0.506
17.54,31831.1,34703.0,-0.6991,-0.7341,135.3,97.3,0.506
17.56,31928.1,34667.3,-0.2989,-0.8221,135.3,97.3,0.506
17.58,31885.1,34665.8,-0.4766,-0.8258,135.3,97.3,0.506
17.6,31779.9,34724.7,-0.9105,-0.6806,135.3,97.3,0.506
17.62,31811.0,34651.5,-0.7824,-0.8609,135.3,97.3,0.506
17.64,31808.5,34571.9,-0.7924,-1.0572,135.3,97.3,0.506
17.66,31731.4,34497.7,-1.1107,-1.2399,135.3,97.3,0.506
17.68,31667.2,34464.5,-1.3755,-1.3217,135.3,97.3,0.506
17.7,31735.9,34650.0,-1.0921,-0.8646,135.3,97.3,0.506
17.72,31883.2,34907.9,-0.4844,-0.2292,135.3,97.3,0.506
17.74,32047.7,35176.6,0.1947,0.4328,135.3,97.3,0.506
17.76,32315.9,35477.1,1.3011,1.1732,135.3,97.3,0.506
17.78,32383.6,35704.1,1.5805,1.7323,135.3,97.3,0.506
17.8,32314.8,35743.2,1.2966,1.8287,135.3,97.3,0.506
17.82,32272.4,35674.3,1.1216,1.6588,135.3,97.3,0.506
17.84,32224.6,35481.4,0.9244,1.1836,135.3,97.3,0.506
17.86,31986.8,35228.0,-0.0567,0.5593,135.3,97.3,0.506
17.88,32135.9,35137.5,0.5586,0.3363,135.3,97.3,0.506
17.9,32096.3,35148.3,0.395,0.3629,135.3,97.3,0.506
17.92,32026.4,35080.2,0.1066,0.1952,135.3,97.3,0.506
17.94,32012.4,34974.5,0.0488,-0.0652,135.3,97.3,0.506
17.96,31924.0,34828.0,-0.3159,-0.4261,135.3,97.3,0.506
17.98,31783.4,34790.2,-0.8963,-0.5192,135.3,97.3,0.506
18.0,31775.3,34689.3,-0.9297,-0.768,135.3,97.3,0.506
18.02,31812.3,34647.0,-0.7769,-0.872,135.3,97.3,0.506
18.04,31806.2,34636.1,-0.8022,-0.8988,135.3,97.3,0.506
18.06,31894.9,34582.2,-0.436,-1.0319,135.3,97.3,0.506
18.08,31821.2,34496.8,-0.74,-1.2423,135.3,97.3,0.506
18.1,31823.7,34517.3,-0.7298,-1.1916,135.3,97.3,0.506
18.12,31723.7,34468.3,-1.1426,-1.3123,135.3,97.3,0.506
18.14,31802.5,34549.6,-0.8174,-1.1121,135.3,97.3,0.506
18.16,31938.1,34824.2,-0.2576,-0.4354,135.3,97.3,0.506
18.18,32000.0,35086.7,-0.0023,0.2113,135.3,97.3,0.506
18.2,32204.9,35471.8,0.8431,1.1599,135.3,97.3,0.506
18.22,32355.7,35738.6,1.4652,1.8174,135.3,97.3,0.506
18.24,32268.3,35804.2,1.1047,1.9789,135.3,97.3,0.506
18.26,32287.6,35683.0,1.1842,1.6804,135.3,97.3,0.506
18.28,32132.5,35478.3,0.5442,1.1761,135.3,97.3,0.506
18.3,32162.6,35346.7,0.6687,0.8519,135.3,97.3,0.506
18.32,32044.1,35159.2,0.1796,0.3897,135.3,97.3,0.506
18.34,31992.7,35082.9,-0.0326,0.2019,135.3,97.3,0.506
18.36,32061.8,34977.3,0.2527,-0.0582,135.3,97.3,0.506
18.38,31987.0,35000.7,-0.056,-0.0006,135.3,97.3,0.506
18.4,31957.1,34885.0,-0.1792,-0.2858,135.3,97.3,0.506
18.42,32013.1,34794.5,0.0515,-0.5087,135.3,97.3,0.506
18.44,31850.3,34664.7,-0.6202,-0.8285,135.3,97.3,0.506
18.46,31928.8,34688.1,-0.2961,-0.7709,135.3,97.3,0.506
18.48,31868.7,34685.5,-0.5441,-0.7772,135.3,97.3,0.506
18.5,31860.1,34649.7,-0.5796,-0.8654,135.3,97.3,0.506
18.52,31709.3,34646.8,-1.2019,-0.8727,135.3,97.3,0.506
18.54,31822.4,34532.5,-0.7352,-1.1543,135.3,97.3,0.506
18.56,31710.6,34365.6,-1.1963,-1.5654,135.3,97.3,0.506
18.58,31849.9,34435.9,-0.6217,-1.3922,135.3,97.3,0.506
18.6,32016.3,34693.3,0.0649,-0.758,135.3,97.3,0.506
18.62,32038.5,35056.9,0.1565,0.1379,135.3,97.3,0.506
18.64,32248.9,35398.6,1.0247,0.9797,135.3,97.3,0.506
18.66,32300.8,35718.2,1.239,1.767,135.3,97.3,0.506
18.68,32279.4,35737.0,1.1506,1.8135,135.3,97.3,0.506
18.7,32251.9,35657.3,1.037,1.6171,135.3,97.3,0.506
18.72,32147.1,35542.4,0.6047,1.3341,135.3,97.3,0.506
18.74,32171.9,35349.3,0.7068,0.8583,135.3,97.3,0.506
18.76,32146.8,35132.9,0.6032,0.325,135.3,97.3,0.506
18.78,32048.9,35052.0,0.1996,0.1257,135.3,97.3,0.506
18.8,32006.9,35177.7,0.026,0.4354,135.3,97.3,0.506
18.82,32087.1,34962.7,0.357,-0.0943,135.3,97.3,0.506
18.84,31910.0,34853.8,-0.3736,-0.3627,135.3,97.3,0.506
18.86,31836.7,34763.0,-0.6762,-0.5863,135.3,97.3,0.506
18.88,31853.1,34678.2,-0.6084,-0.7952,135.3,97.3,0.506
18.9,31811.2,34744.4,-0.7812,-0.6322,135.3,97.3,0.506
18.92,31855.9,34631.3,-0.5968,-0.9108,135.3,97.3,0.506
18.94,31846.4,34737.1,-0.6362,-0.6501,135.3,97.3,0.506
18.96,31837.0,34525.6,-0.6749,-1.1712,135.3,97.3,0.506
18.98,31774.3,34484.5,-0.9334,-1.2725,135.3,97.3,0.506
19.0,31811.5,34592.0,-0.7802,-1.0075,135.3,97.3,0.506
19.02,31696.0,34487.3,-1.2569,-1.2657,135.3,97.3,0.506
19.04,31893.8,34724.6,-0.4407,-0.681,135.3,97.3,0.506
19.06,32061.8,35005.9,0.2527,0.0122,135.3,97.3,0.506
19.08,32166.3,35391.9,0.6838,0.963,135.3,97.3,0.506
19.1,32214.0,35667.6,0.8808,1.6425,135.3,97.3,0.506
19.12,32465.5,35807.4,1.9182,1.987,135.3,97.3,0.506
19.14,32376.6,35638.7,1.5515,1.5713,135.3,97.3,0.506
19.16,32250.9,35425.2,1.033,1.0453,135.3,97.3,0.506
19.18,32118.2,35394.5,0.4853,0.9695,135.3,97.3,0.506
19.2,32120.7,35191.4,0.4956,0.4692,135.3,97.3,0.506
19.22,32090.1,35081.1,0.3693,0.1973,135.3,97.3,0.506
19.24,32045.6,35070.8,0.1857,0.172,135.3,97.3,0.506
19.26,32059.7,35017.8,0.2441,0.0415,135.3,97.3,0.506
19.28,32045.0,34933.2,0.1832,-0.167,135.3,97.3,0.506
19.3,31968.1,34797.3,-0.1339,-0.5019,135.3,97.3,0.506
19.32,31806.1,34754.3,-0.8024,-0.6076,135.3,97.3,0.506
19.34,31855.3,34655.4,-0.5995,-0.8514,135.3,97.3,0.506
19.36,31883.6,34699.2,-0.4826,-0.7435,135.3,97.3,0.506
19.38,31849.9,34654.6,-0.6216,-0.8533,135.3,97.3,0.506
19.4,31827.8,34669.0,-0.7128,-0.8178,135.3,97.3,0.506
19.42,31772.2,34542.8,-0.9422,-1.1289,135.3,97.3,0.506
19.44,31754.2,34461.3,-1.0166,-1.3297,135.3,97.3,0.506
19.46,31745.3,34420.1,-1.0531,-1.4312,135.3,97.3,0.506
19.48,31844.0,34636.1,-0.6462,-0.8989,135.3,97.3,0.506
19.5,31956.7,34959.0,-0.1809,-0.1034,135.3,97.3,0.506
19.52,32117.0,35342.8,0.4804,0.8421,135.3,97.3,0.506
19.54,32244.4,35528.3,1.006,1.2992,135.3,97.3,0.506
19.56,32349.6,35713.7,1.4403,1.7561,135.3,97.3,0.506
19.58,32283.6,35723.1,1.1679,1.7793,135.3,97.3,0.506
19.6,32179.1,35499.6,0.7366,1.2284,135.3,97.3,0.506
19.62,32154.9,35365.4,0.6368,0.8979,135.3,97.3,0.506
19.64,32047.8,35190.1,0.1949,0.466,135.3,97.3,0.506
19.66,32056.0,35124.0,0.2289,0.3031,135.3,97.3,0.506
19.68,32060.8,34985.8,0.2484,-0.0373,135.3,97.3,0.506
19.7,31989.4,35149.7,-0.0462,0.3663,135.3,97.3,0.506
19.72,31941.2,34927.1,-0.2449,-0.1821,135.3,97.3,0.506
19.74,31950.3,34870.4,-0.2075,-0.3216,135.3,97.3,0.506
19.76,31926.8,34802.4,-0.3046,-0.4892,135.3,97.3,0.506
19.78,31824.8,34650.8,-0.7252,-0.8627,135.3,97.3,0.506
19.8,31888.7,34641.4,-0.4614,-0.886,135.3,97.3,0.506
19.82,31836.8,34693.4,-0.6757,-0.7578,135.3,97.3,0.506
19.84,31805.5,34697.3,-0.8048,-0.7481,135.3,97.3,0.506
19.86,31802.6,34483.7,-0.8171,-1.2745,135.3,97.3,0.506
19.88,31764.3,34418.8,-0.9748,-1.4345,135.3,97.3,0.506
19.9,31728.5,34392.0,-1.1226,-1.5004,135.3,97.3,0.506
19.92,31877.5,34517.8,-0.5079,-1.1904,135.3,97.3,0.506
19.94,31915.9,34872.4,-0.3492,-0.3169,135.3,97.3,0.506
19.96,32196.9,35353.0,0.8103,0.8672,135.3,97.3,0.506
19.98,32225.7,35530.7,0.9289,1.3052,135.3,97.3,0.506
20.0,32409.2,35698.2,1.6861,1.7177,135.3,97.3,0.506
20.02,32246.0,35689.3,1.0128,1.696,135.3,97.3,0.506
20.04,32249.7,35657.4,1.028,1.6173,135.3,97.3,0.506
20.06,32295.7,35316.0,1.2178,0.7761,135.3,97.3,0.506
20.08,32071.8,35188.4,0.2939,0.4617,135.3,97.3,0.506
20.1,32010.2,35098.3,0.0398,0.2399,135.3,97.3,0.506
20.12,32122.9,35056.7,0.5046,0.1372,135.3,97.3,0.506
20.14,32027.5,35100.4,0.1111,0.245,135.3,97.3,0.506
20.16,32001.7,34886.3,0.0049,-0.2824,135.3,97.3,0.506
20.18,31967.1,34841.8,-0.1383,-0.3923,135.3,97.3,0.506
20.2,31850.7,34785.4,-0.6184,-0.5312,135.3,97.3,0.506
20.22,31886.2,34722.0,-0.4717,-0.6872,135.3,97.3,0.506
20.24,31872.0,34625.6,-0.5304,-0.9249,135.3,97.3,0.506
20.26,31882.0,34519.2,-0.4892,-1.1871,135.3,97.3,0.506
20.28,31860.7,34559.5,-0.5772,-1.0876,135.3,97.3,0.506
20.3,31830.3,34583.4,-0.7027,-1.0288,135.3,97.3,0.506
20.32,31841.7,34505.2,-0.6555,-1.2215,135.3,97.3,0.506
20.34,31732.8,34499.3,-1.1051,-1.2359,135.3,97.3,0.506
20.36,31775.1,34697.0,-0.9302,-0.7488,135.3,97.3,0.506
20.38,31919.0,34785.8,-0.3368,-0.53,135.3,97.3,0.506
20.4,32135.8,35152.2,0.5578,0.3725,135.3,97.3,0.506
20.42,32265.7,35576.4,1.0942,1.4177,135.3,97.3,0.506
20.44,32349.4,35680.8,1.4395,1.6751,135.3,97.3,0.506
20.46,32259.1,35678.6,1.0666,1.6695,135.3,97.3,0.506
20.48,32342.5,35699.9,1.4108,1.722,135.3,97.3,0.506
20.5,32113.4,35416.1,0.4656,1.0229,135.3,97.3,0.506
20.52,32112.3,35310.1,0.4609,0.7617,135.3,97.3,0.506
20.54,31976.2,35185.0,-0.1007,0.4533,135.3,97.3,0.506
20.56,32026.5,35051.7,0.107,0.1251,135.3,97.3,0.506
20.58,32010.3,35071.5,0.0402,0.1739,135.3,97.3,0.506
20.6,31960.7,34925.1,-0.1646,-0.187,135.3,97.3,0.506
20.62,31848.6,34914.8,-0.6273,-0.2123,135.3,97.3,0.506
20.64,31836.8,34722.5,-0.6759,-0.6862,135.3,97.3,0.506
20.66,31922.9,34657.2,-0.3203,-0.847,135.3,97.3,0.506
20.68,31898.3,34718.4,-0.4221,-0.6962,135.3,97.3,0.506
20.7,31823.9,34671.6,-0.7289,-0.8115,135.3,97.3,0.506
20.72,31790.1,34565.0,-0.8684,-1.074,135.3,97.3,0.506
20.74,31730.0,34454.7,-1.1165,-1.346,135.3,97.3,0.506
20.76,31873.0,34481.6,-0.5264,-1.2796,135.3,97.3,0.506
20.78,31741.9,34508.2,-1.0674,-1.2142,135.3,97.3,0.506
20.8,31709.2,34531.2,-1.2024,-1.1575,135.3,97.3,0.506
20.82,31931.9,34813.7,-0.2832,-0.4614,135.3,97.3,0.506
20.84,31985.7,35109.8,-0.0613,0.2682,135.3,97.3,0.506
20.86,32256.4,35605.5,1.0554,1.4895,135.3,97.3,0.506
20.88,32355.3,35638.3,1.4636,1.5702,135.3,97.3,0.506
20.9,32334.7,35738.0,1.3785,1.8159,135.3,97.3,0.506
20.92,32330.8,35680.2,1.3626,1.6735,135.3,97.3,0.506
20.94,32187.3,35494.3,0.7705,1.2154,135.3,97.3,0.506
20.96,32242.6,35262.9,0.9986,0.6453,135.3,97.3,0.506
20.98,32044.4,35217.2,0.1808,0.5328,135.3,97.3,0.506
21.0,32033.4,35092.6,0.1355,0.2258,135.3,97.3,0.506
21.02,32005.2,35029.3,0.019,0.0697,135.3,97.3,0.506
21.04,31993.0,35009.7,-0.0311,0.0215,135.3,97.3,0.506
21.06,31903.9,34873.9,-0.3988,-0.313,135.3,97.3,0.506
21.08,31966.1,34811.5,-0.1424,-0.4668,135.3,97.3,0.506
21.1,31942.8,34743.6,-0.2383,-0.6341,135.3,97.3,0.506
21.12,31819.7,34576.6,-0.7462,-1.0456,135.3,97.3,0.506
21.14,31835.4,34752.3,-0.6817,-0.6127,135.3,97.3,0.506
21.16,31948.1,34695.9,-0.2166,-0.7516,135.3,97.3,0.506
21.18,31861.9,34581.3,-0.5722,-1.034,135.3,97.3,0.506
21.2,31624.8,34482.5,-1.5506,-1.2774,135.3,97.3,0.506
21.22,31736.7,34356.5,-1.089,-1.5879,135.3,97.3,0.506
21.24,31802.5,34490.6,-0.8172,-1.2574,135.3,97.3,0.506
21.26,31912.1,34677.5,-0.3652,-0.7971,135.3,97.3,0.506
21.28,32046.5,35054.3,0.1895,0.1315,135.3,97.3,0.506
21.3,32172.2,35496.5,0.7083,1.2209,135.3,97.3,0.506
21.32,32300.2,35699.0,1.2365,1.7197,135.3,97.3,0.506
21.34,32401.7,35799.9,1.6553,1.9684,135.3,97.3,0.506
21.36,32223.7,35742.7,0.9207,1.8274,135.3,97.3,0.506
21.38,32263.1,35577.1,1.0834,1.4196,135.3,97.3,0.506
21.4,32139.6,35292.5,0.5738,0.7182,135.3,97.3,0.506
21.42,32102.8,35176.6,0.4218,0.4328,135.3,97.3,0.506
21.44,31961.0,35196.2,-0.1631,0.481,135.3,97.3,0.506
21.46,32086.6,35027.9,0.3549,0.0664,135.3,97.3,0.506
21.48,32044.4,34912.4,0.181,-0.2183,135.3,97.3,0.506
21.5,31941.8,34900.9,-0.2425,-0.2464,135.3,97.3,0.506
21.52,31933.9,34739.0,-0.2751,-0.6454,135.3,97.3,0.506
21.54,31837.2,34813.0,-0.6741,-0.4631,135.3,97.3,0.506
21.56,31801.2,34715.8,-0.8226,-0.7025,135.3,97.3,0.506
21.58,31853.6,34685.0,-0.6065,-0.7784,135.3,97.3,0.506
21.6,31828.9,34698.5,-0.7082,-0.7453,135.3,97.3,0.506
21.62,31830.4,34580.2,-0.7021,-1.0368,135.3,97.3,0.506
21.64,31670.5,34533.3,-1.3618,-1.1522,135.3,97.3,0.506
21.66,31751.4,34502.3,-1.0282,-1.2287,135.3,97.3,0.506
21.68,31805.9,34521.0,-0.8034,-1.1826,135.3,97.3,0.506
21.7,31837.2,34693.6,-0.6742,-0.7573,135.3,97.3,0.506
21.72,31977.4,35084.0,-0.0956,0.2046,135.3,97.3,0.506
21.74,32186.8,35356.3,0.7686,0.8753,135.3,97.3,0.506
21.76,32281.1,35685.7,1.1577,1.687,135.3,97.3,0.506
21.78,32317.1,35791.6,1.3059,1.948,135.3,97.3,0.506
21.8,32201.4,35662.4,0.8288,1.6295,135.3,97.3,0.506
21.82,32213.9,35522.4,0.8803,1.2846,135.3,97.3,0.506
21.84,32188.3,35407.1,0.7745,1.0005,135.3,97.3,0.506
21.86,32163.8,35120.3,0.6734,0.2939,135.3,97.3,0.506
21.88,32063.1,35055.2,0.2582,0.1336,135.3,97.3,0.506
21.9,32029.3,35084.7,0.1187,0.2062,135.3,97.3,0.506
21.92,31928.6,35074.1,-0.2971,0.1801,135.3,97.3,0.506
21.94,31978.4,34890.5,-0.0913,-0.2721,135.3,97.3,0.506
21.96,31924.2,34778.6,-0.3151,-0.5478,135.3,97.3,0.506
21.98,31867.3,34724.7,-0.5499,-0.6806,135.3,97.3,0.506
22.0,31879.4,34680.6,-0.5001,-0.7893,135.3,97.3,0.506
22.02,31916.4,34698.2,-0.3474,-0.7459,135.3,97.3,0.506
22.04,31807.7,34709.6,-0.796,-0.718,135.3,97.3,0.506
22.06,31784.4,34516.9,-0.892,-1.1927,135.3,97.3,0.506
22.08,31902.7,34583.1,-0.4038,-1.0295,135.3,97.3,0.506
22.1,31762.7,34492.5,-0.9814,-1.2527,135.3,97.3,0.506
22.12,31789.0,34464.3,-0.8731,-1.3221,135.3,97.3,0.506
22.14,31863.1,34586.8,-0.5672,-1.0205,135.3,97.3,0.506
22.16,32003.0,34922.9,0.0101,-0.1922,135.3,97.3,0.506
22.18,32163.9,35316.5,0.6739,0.7775,135.3,97.3,0.506
22.2,32144.0,35617.0,0.5918,1.5177,135.3,97.3,0.506
22.22,32350.1,35740.6,1.4424,1.8224,135.3,97.3,0.506
22.24,32388.7,35695.4,1.6016,1.7109,135.3,97.3,0.506
22.26,32151.3,35518.9,0.6219,1.276,135.3,97.3,0.506
22.28,32173.4,35318.0,0.7133,0.7811,135.3,97.3,0.506
22.3,32107.8,35253.3,0.4425,0.6217,135.3,97.3,0.506
22.32,32172.8,35129.6,0.7108,0.317,135.3,97.3,0.506
22.34,32114.2,34998.1,0.4688,-0.0071,135.3,97.3,0.506
22.36,32041.5,35080.3,0.1689,0.1954,135.3,97.3,0.506
22.38,31911.9,34969.3,-0.3657,-0.078,135.3,97.3,0.506
22.4,31858.5,34863.0,-0.5863,-0.34,135.3,97.3,0.506
22.42,31865.1,34681.5,-0.5589,-0.787,135.3,97.3,0.506
22.44,31854.8,34691.5,-0.6016,-0.7626,135.3,97.3,0.506
22.46,31870.2,34698.0,-0.5381,-0.7464,135.3,97.3,0.506
22.48,31827.3,34599.3,-0.7148,-0.9896,135.3,97.3,0.506
22.5,31786.3,34551.3,-0.8843,-1.1078,135.3,97.3,0.506
22.52,31733.3,34476.3,-1.1028,-1.2927,135.3,97.3,0.506
22.54,31825.0,34509.1,-0.7245,-1.2118,135.3,97.3,0.506
22.56,31813.7,34494.3,-0.7709,-1.2483,135.3,97.3,0.506
22.58,31785.5,34568.9,-0.8873,-1.0645,135.3,97.3,0.506
22.6,31992.2,34925.3,-0.0344,-0.1865,135.3,97.3,0.506
22.62,32171.4,35274.6,0.705,0.6741,135.3,97.3,0.506
22.64,32249.3,35670.2,1.0264,1.6489,135.3,97.3,0.506
22.66,32324.0,35793.8,1.3345,1.9535,135.3,97.3,0.506
22.68,32323.1,35692.9,1.3307,1.7047,135.3,97.3,0.506
22.7,32296.2,35522.0,1.2199,1.2837,135.3,97.3,0.506
22.72,32203.4,35325.3,0.8369,0.799,135.3,97.3,0.506
22.74,32085.4,35257.9,0.35,0.633,135.3,97.3,0.506
22.76,32098.4,35103.9,0.4036,0.2537,135.3,97.3,0.506
22.78,32007.7,35068.7,0.0295,0.1669,135.3,97.3,0.506
22.8,32045.5,34990.6,0.1853,-0.0256,135.3,97.3,0.506
22.82,31959.4,34933.2,-0.1698,-0.167,135.3,97.3,0.506
22.84,31918.2,34872.8,-0.3398,-0.3158,135.3,97.3,0.506
22.86,31903.1,34724.8,-0.4022,-0.6805,135.3,97.3,0.506
22.88,31891.8,34680.4,-0.449,-0.7898,135.3,97.3,0.506
22.9,31819.2,34653.6,-0.7483,-0.8557,135.3,97.3,0.506
22.92,31901.0,34757.4,-0.411,-0.6002,135.3,97.3,0.506
22.94,31784.0,34534.3,-0.8934,-1.1499,135.3,97.3,0.506
22.96,31854.7,34597.4,-0.6018,-0.9942,135.3,97.3,0.506
22.98,31655.0,34435.8,-1.4257,-1.3924,135.3,97.3,0.506
23.0,31688.4,34519.3,-1.288,-1.1867,135.3,97.3,0.506
23.02,31839.6,34631.1,-0.6641,-0.9113,135.3,97.3,0.506
23.04,31847.1,34790.8,-0.6332,-0.5178,135.3,97.3,0.506
23.06,32261.4,35133.9,1.0761,0.3274,135.3,97.3,0.506
23.08,32246.3,35550.5,1.014,1.3538,135.3,97.3,0.506
23.1,32411.2,35718.0,1.6946,1.7666,135.3,97.3,0.506
23.12,32311.8,35681.9,1.284,1.6776,135.3,97.3,0.506
23.14,32356.9,35613.1,1.4703,1.5083,135.3,97.3,0.506
23.16,32240.2,35317.8,0.9889,0.7806,135.3,97.3,0.506
23.18,32135.0,35347.3,0.5549,0.8532,135.3,97.3,0.506
23.2,32063.8,35225.2,0.261,0.5524,135.3,97.3,0.506
23.22,32078.4,35103.1,0.3213,0.2515,135.3,97.3,0.506
23.24,32059.2,35139.9,0.2418,0.3423,135.3,97.3,0.506
23.26,31925.5,35041.7,-0.3099,0.1004,135.3,97.3,0.506
23.28,31967.4,34900.0,-0.1371,-0.2488,135.3,97.3,0.506
23.3,31797.3,34757.9,-0.8388,-0.5988,135.3,97.3,0.506
23.32,31842.0,34758.4,-0.6542,-0.5977,135.3,97.3,0.506
23.34,31847.1,34751.9,-0.6333,-0.6136,135.3,97.3,0.506
23.36,31829.6,34612.4,-0.7055,-0.9574,135.3,97.3,0.506
23.38,31788.7,34611.9,-0.8741,-0.9587,135.3,97.3,0.506
23.4,31873.4,34562.3,-0.5246,-1.0807,135.3,97.3,0.506
23.42,31747.1,34418.6,-1.0458,-1.4348,135.3,97.3,0.506
23.44,31717.4,34507.3,-1.1684,-1.2162,135.3,97.3,0.506
23.46,31778.7,34607.0,-0.9156,-0.9706,135.3,97.3,0.506
23.48,31862.6,34798.9,-0.5695,-0.4978,135.3,97.3,0.506
23.5,31976.7,35116.1,-0.0983,0.2838,135.3,97.3,0.506
23.52,32265.0,35481.6,1.0911,1.1841,135.3,97.3,0.506
23.54,32374.4,35744.2,1.5426,1.8312,135.3,97.3,0.506
23.56,32304.1,35775.2,1.2522,1.9076,135.3,97.3,0.506
23.58,32296.3,35686.8,1.2203,1.6897,135.3,97.3,0.506
23.6,32237.3,35421.4,0.9769,1.0359,135.3,97.3,0.506
23.62,32146.3,35320.2,0.6012,0.7866,135.3,97.3,0.506
23.64,32114.9,35184.0,0.4718,0.451,135.3,97.3,0.506
23.66,32034.2,35184.0,0.1389,0.451,135.3,97.3,0.506
23.68,32005.0,35034.6,0.0182,0.083,135.3,97.3,0.506
23.7,31970.5,35003.8,-0.124,0.0069,135.3,97.3,0.506
23.72,31991.5,34855.3,-0.0373,-0.3589,135.3,97.3,0.506
23.74,31848.5,34788.2,-0.6276,-0.5242,135.3,97.3,0.506
23.76,31857.3,34674.2,-0.5912,-0.8052,135.3,97.3,0.506
23.78,31866.9,34665.6,-0.5516,-0.8263,135.3,97.3,0.506
23.8,31856.3,34780.3,-0.5952,-0.5436,135.3,97.3,0.506
23.82,31812.4,34663.7,-0.7764,-0.831,135.3,97.3,0.506
23.84,31916.5,34555.4,-0.347,-1.0979,135.3,97.3,0.506
23.86,31786.0,34545.1,-0.8855,-1.1232,135.3,97.3,0.506
23.88,31742.4,34364.5,-1.0652,-1.5681,135.3,97.3,0.506
23.9,31720.1,34496.2,-1.1574,-1.2436,135.3,97.3,0.506
23.92,31910.0,34782.3,-0.3739,-0.5387,135.3,97.3,0.506
23.94,32029.5,35033.2,0.1196,0.0795,135.3,97.3,0.506
23.96,32244.0,35401.2,1.0044,0.9862,135.3,97.3,0.506
23.98,32337.0,35707.0,1.388,1.7395,135.3,97.3,0.506
24.0,32217.2,35825.4,0.8939,2.0311,135.3,97.3,0.506
24.02,32244.2,35779.8,1.0055,1.9188,135.3,97.3,0.506
24.04,32161.1,35500.3,0.6623,1.2302,135.3,97.3,0.506
24.06,32145.6,35302.9,0.5986,0.7439,135.3,97.3,0.506
24.08,32085.7,35225.6,0.3513,0.5535,135.3,97.3,0.506
24.1,32016.6,35048.5,0.0663,0.117,135.3,97.3,0.506
24.12,32101.0,35055.6,0.4144,0.1345,135.3,97.3,0.506
24.14,31925.8,34977.8,-0.3084,-0.0572,135.3,97.3,0.506
24.16,32023.0,34844.5,0.0928,-0.3856,135.3,97.3,0.506
24.18,31858.3,34722.9,-0.5871,-0.6851,135.3,97.3,0.506
24.2,31819.7,34684.8,-0.7462,-0.779,135.3,97.3,0.506
24.22,31834.1,34734.2,-0.6868,-0.6574,135.3,97.3,0.506
24.24,31790.1,34683.4,-0.8686,-0.7824,135.3,97.3,0.506
24.26,31774.4,34527.0,-0.933,-1.1678,135.3,97.3,0.506
24.28,31877.1,34618.7,-0.5093,-0.9419,135.3,97.3,0.506
24.3,31753.5,34547.3,-1.0195,-1.1176,135.3,97.3,0.506
24.32,31750.0,34429.8,-1.034,-1.4072,135.3,97.3,0.506
24.34,31744.4,34523.9,-1.057,-1.1754,135.3,97.3,0.506
24.36,31800.0,34784.6,-0.8275,-0.5332,135.3,97.3,0.506
24.38,32013.9,35047.6,0.0551,0.1148,135.3,97.3,0.506
24.4,32145.4,35370.7,0.5976,0.911,135.3,97.3,0.506
24.42,32247.5,35581.0,1.0188,1.429,135.3,97.3,0.506
24.44,32331.4,35738.6,1.3649,1.8173,135.3,97.3,0.506
24.46,32242.4,35751.4,0.998,1.8488,135.3,97.3,0.506
24.48,32231.3,35622.3,0.9519,1.5307,135.3,97.3,0.506
24.5,32229.5,35341.9,0.9445,0.84,135.3,97.3,0.506
24.52,32085.5,35262.7,0.3504,0.6449,135.3,97.3,0.506
24.54,32096.7,35105.9,0.3966,0.2586,135.3,97.3,0.506
24.56,32044.5,35083.3,0.1811,0.2029,135.3,97.3,0.506
24.58,31914.9,35151.7,-0.3533,0.3715,135.3,97.3,0.506
24.6,31941.3,34987.4,-0.2445,-0.0335,135.3,97.3,0.506
24.62,31917.4,34782.3,-0.3433,-0.5387,135.3,97.3,0.506
24.64,31940.4,34795.7,-0.2482,-0.5058,135.3,97.3,0.506
24.66,31854.0,34648.6,-0.6048,-0.8683,135.3,97.3,0.506
24.68,31902.8,34665.3,-0.4033,-0.8271,135.3,97.3,0.506
24.7,31874.5,34575.4,-0.52,-1.0485,135.3,97.3,0.506
24.72,31830.0,34593.3,-0.7039,-1.0043,135.3,97.3,0.506
24.74,31789.5,34512.7,-0.8708,-1.2031,135.3,97.3,0.506
24.76,31777.7,34458.9,-0.9194,-1.3355,135.3,97.3,0.506
24.78,31851.7,34492.3,-0.6142,-1.2531,135.3,97.3,0.506
24.8,31847.1,34687.7,-0.6332,-0.7719,135.3,97.3,0.506
24.82,31985.8,34990.1,-0.061,-0.0269,135.3,97.3,0.506
24.84,32087.4,35293.1,0.3582,0.7198,135.3,97.3,0.506
24.86,32219.8,35522.5,0.9044,1.285,135.3,97.3,0.506
24.88,32384.9,35704.3,1.586,1.7329,135.3,97.3,0.506
24.9,32284.5,35718.1,1.1717,1.7669,135.3,97.3,0.506
24.92,32294.1,35562.6,1.2112,1.3838,135.3,97.3,0.506
24.94,32170.5,35363.8,0.7011,0.894,135.3,97.3,0.506
24.96,32060.5,35246.4,0.2474,0.6048,135.3,97.3,0.506
24.98,32032.4,35226.4,0.1315,0.5554,135.3,97.3,0.506
25.0,32077.1,35161.4,0.3159,0.3953,135.3,97.3,0.506
25.02,31983.8,34991.1,-0.0693,-0.0242,135.3,97.3,0.506
25.04,32047.6,34961.1,0.1939,-0.0982,135.3,97.3,0.506
25.06,31812.0,34783.7,-0.7782,-0.5353,135.3,97.3,0.506
25.08,31862.9,34798.3,-0.5682,-0.4993,135.3,97.3,0.506
25.1,31888.6,34677.6,-0.4619,-0.7966,135.3,97.3,0.506
25.12,31867.8,34666.3,-0.5479,-0.8245,135.3,97.3,0.506
25.14,31838.5,34716.3,-0.6687,-0.7014,135.3,97.3,0.506
25.16,31847.8,34619.2,-0.6305,-0.9405,135.3,97.3,0.506
25.18,31826.3,34514.6,-0.7189,-1.1983,135.3,97.3,0.506
25.2,31792.8,34419.7,-0.8574,-1.4322,135.3,97.3,0.506
25.22,31783.0,34515.1,-0.8977,-1.1971,135.3,97.3,0.506
25.24,31726.5,34520.9,-1.1308,-1.1828,135.3,97.3,0.506
25.26,31947.4,34940.9,-0.2195,-0.1481,135.3,97.3,0.506
25.28,32073.7,35229.0,0.3018,0.5619,135.3,97.3,0.506
25.3,32322.8,35594.5,1.3298,1.4623,135.3,97.3,0.506
25.32,32338.5,35744.0,1.3944,1.8307,135.3,97.3,0.506
25.34,32399.3,35640.4,1.6451,1.5754,135.3,97.3,0.506
25.36,32258.9,35677.3,1.0659,1.6664,135.3,97.3,0.506
25.38,32094.8,35470.6,0.3887,1.1572,135.3,97.3,0.506
25.4,32106.7,35329.7,0.4379,0.8098,135.3,97.3,0.506
25.42,31997.3,35140.8,-0.0134,0.3446,135.3,97.3,0.506
25.44,32076.0,35071.2,0.311,0.1729,135.3,97.3,0.506
25.46,31917.9,34981.2,-0.3413,-0.0487,135.3,97.3,0.506
25.48,31964.1,35005.5,-0.1505,0.0111,135.3,97.3,0.506
25.5,31984.6,34875.6,-0.066,-0.309,135.3,97.3,0.506
25.52,31941.5,34763.2,-0.2436,-0.5857,135.3,97.3,0.506
25.54,31916.8,34648.9,-0.3458,-0.8675,135.3,97.3,0.506
25.56,31752.7,34691.2,-1.0229,-0.7632,135.3,97.3,0.506
25.58,31901.1,34687.8,-0.4105,-0.7715,135.3,97.3,0.506
25.6,31792.1,34645.4,-0.8601,-0.8761,135.3,97.3,0.506
25.62,31847.1,34533.9,-0.6332,-1.1507,135.3,97.3,0.506
25.64,31777.1,34556.0,-0.9221,-1.0964,135.3,97.3,0.506
25.66,31762.1,34364.2,-0.9838,-1.5689,135.3,97.3,0.506
25.68,31874.0,34541.8,-0.5221,-1.1313,135.3,97.3,0.506
25.7,31837.4,34854.6,-0.6732,-0.3606,135.3,97.3,0.506
25.72,32109.4,35283.8,0.4492,0.6969,135.3,97.3,0.506
25.74,32122.4,35535.0,0.5027,1.3158,135.3,97.3,0.506
25.76,32290.9,35771.9,1.1978,1.8994,135.3,97.3,0.506
25.78,32355.8,35734.9,1.4658,1.8083,135.3,97.3,0.506
25.8,32228.9,35735.1,0.9421,1.8086,135.3,97.3,0.506
25.82,32157.6,35518.6,0.6479,1.2755,135.3,97.3,0.506
25.84,31984.5,35276.9,-0.0663,0.6799,135.3,97.3,0.506
25.86,32014.4,35099.9,0.0569,0.2437,135.3,97.3,0.506
25.88,31990.6,35092.5,-0.0413,0.2255,135.3,97.3,0.506
25.9,31999.2,34954.0,-0.0055,-0.1157,135.3,97.3,0.506
25.92,32040.1,34912.1,0.1632,-0.2189,135.3,97.3,0.506
25.94,32023.7,34841.8,0.0955,-0.3921,135.3,97.3,0.506
25.96,31862.9,34855.1,-0.568,-0.3595,135.3,97.3,0.506
25.98,31872.5,34762.6,-0.5284,-0.5874,135.3,97.3,0.506
26.0,31790.9,34690.6,-0.8652,-0.7646,135.3,97.3,0.506
26.02,31874.2,34695.1,-0.5215,-0.7535,135.3,97.3,0.506
26.04,31746.1,34583.8,-1.0501,-1.0277,135.3,97.3,0.506
26.06,31774.3,34668.4,-0.9335,-0.8193,135.3,97.3,0.506
26.08,31808.9,34485.3,-0.7909,-1.2704,135.3,97.3,0.506
26.1,31661.8,34477.0,-1.398,-1.2909,135.3,97.3,0.506
26.12,31790.0,34540.7,-0.8689,-1.134,135.3,97.3,0.506
26.14,31846.4,34879.0,-0.6362,-0.3004,135.3,97.3,0.506
26.16,32095.1,35231.4,0.3901,0.5677,135.3,97.3,0.506
26.18,32192.0,35424.1,0.7899,1.0426,135.3,97.3,0.506
26.2,32424.4,35732.7,1.7487,1.8029,135.3,97.3,0.506
26.22,32348.9,35724.1,1.4373,1.7817,135.3,97.3,0.506
26.24,32368.6,35656.1,1.5186,1.6141,135.3,97.3,0.506
26.26,32293.0,35502.2,1.2066,1.235,135.3,97.3,0.506
26.28,32187.9,35255.5,0.7731,0.6272,135.3,97.3,0.506
26.3,32008.8,35176.4,0.0338,0.4323,135.3,97.3,0.506
26.32,32028.2,35178.5,0.1141,0.4374,135.3,97.3,0.506
26.34,32042.4,34959.4,0.1725,-0.1024,135.3,97.3,0.506
26.36,31998.4,35025.4,-0.0091,0.0602,135.3,97.3,0.506
26.38,31909.2,34931.3,-0.3768,-0.1716,135.3,97.3,0.506
26.4,31944.6,34826.8,-0.2311,-0.429,135.3,97.3,0.506
26.42,32006.0,34661.6,0.0224,-0.8362,135.3,97.3,0.506
26.44,31807.5,34685.8,-0.7966,-0.7766,135.3,97.3,0.506
26.46,31830.9,34589.2,-0.7003,-1.0145,135.3,97.3,0.506
26.48,31856.5,34676.4,-0.5944,-0.7997,135.3,97.3,0.506
26.5,31806.0,34581.2,-0.8027,-1.0341,135.3,97.3,0.506
26.52,31762.6,34544.4,-0.982,-1.1248,135.3,97.3,0.506
26.54,31637.4,34394.8,-1.4983,-1.4934,135.3,97.3,0.506
26.56,31764.8,34531.9,-0.9728,-1.1558,135.3,97.3,0.506
26.58,31964.5,34711.7,-0.1487,-0.7127,135.3,97.3,0.506
26.6,32038.5,35110.6,0.1565,0.2702,135.3,97.3,0.506
26.62,32209.8,35402.6,0.8635,0.9895,135.3,97.3,0.506
26.64,32356.0,35732.8,1.4667,1.8031,135.3,97.3,0.506
26.66,32381.9,35818.4,1.5734,2.0141,135.3,97.3,0.506
26.68,32306.4,35613.0,1.2618,1.5079,135.3,97.3,0.506
26.7,32295.4,35489.5,1.2167,1.2037,135.3,97.3,0.506
26.72,32205.5,35269.1,0.8454,0.6607,135.3,97.3,0.506
26.74,32066.0,35097.0,0.2699,0.2365,135.3,97.3,0.506
26.76,31999.1,35098.4,-0.0061,0.24,135.3,97.3,0.506
26.78,32059.3,35048.5,0.2424,0.1172,135.3,97.3,0.506
26.8,31991.4,34949.7,-0.0377,-0.1263,135.3,97.3,0.506
26.82,31942.1,34934.0,-0.2412,-0.1651,135.3,97.3,0.506
26.84,31959.4,34820.7,-0.17,-0.4443,135.3,97.3,0.506
26.86,31851.3,34788.3,-0.6158,-0.5241,135.3,97.3,0.506
26.88,31862.7,34601.0,-0.569,-0.9855,135.3,97.3,0.506
26.9,31927.3,34628.4,-0.3024,-0.918,135.3,97.3,0.506
26.92,31884.9,34755.2,-0.4773,-0.6056,135.3,97.3,0.506
26.94,31815.9,34523.4,-0.7618,-1.1767,135.3,97.3,0.506
26.96,31757.1,34407.1,-1.0047,-1.4632,135.3,97.3,0.506
26.98,31696.6,34378.5,-1.2544,-1.5337,135.3,97.3,0.506
27.0,31776.8,34518.4,-0.9232,-1.1889,135.3,97.3,0.506
27.02,31891.9,34760.3,-0.4484,-0.5929,135.3,97.3,0.506
27.04,32052.8,35018.4,0.2154,0.043,135.3,97.3,0.506
27.06,32161.2,35467.1,0.663,1.1485,135.3,97.3,0.506
27.08,32269.1,35627.0,1.1081,1.5425,135.3,97.3,0.506
27.1,32440.0,35802.8,1.8132,1.9755,135.3,97.3,0.506
27.12,32299.9,35769.4,1.2353,1.8932,135.3,97.3,0.506
27.14,32306.3,35477.6,1.2615,1.1744,135.3,97.3,0.506
27.16,32126.9,35339.1,0.5214,0.8332,135.3,97.3,0.506
27.18,32074.7,35224.7,0.306,0.5511,135.3,97.3,0.506
27.2,32078.1,35074.2,0.3198,0.1804,135.3,97.3,0.506
27.22,32021.3,35072.5,0.0855,0.1761,135.3,97.3,0.506
27.24,32083.8,35091.6,0.3436,0.2234,135.3,97.3,0.506
27.26,32033.2,34951.0,0.1347,-0.123,135.3,97.3,0.506
27.28,31936.6,34845.4,-0.2638,-0.3833,135.3,97.3,0.506
27.3,31875.6,34810.4,-0.5158,-0.4695,135.3,97.3,0.506
27.32,31916.5,34690.5,-0.347,-0.765,135.3,97.3,0.506
27.34,31854.4,34616.8,-0.6033,-0.9464,135.3,97.3,0.506
27.36,31849.7,34616.1,-0.6227,-0.9483,135.3,97.3,0.506
27.38,31791.8,34534.6,-0.8613,-1.149,135.3,97.3,0.506
27.4,31778.6,34490.8,-0.9161,-1.2569,135.3,97.3,0.506
27.42,31714.8,34488.1,-1.1789,-1.2635,135.3,97.3,0.506
27.44,31798.4,34497.5,-0.8341,-1.2403,135.3,97.3,0.506
27.46,31937.4,34727.5,-0.2607,-0.6737,135.3,97.3,0.506
27.48,31896.6,34920.0,-0.4292,-0.1994,135.3,97.3,0.506
27.5,32132.8,35304.2,0.5458,0.7472,135.3,97.3,0.506
27.52,32229.0,35662.2,0.9426,1.6291,135.3,97.3,0.506
27.54,32330.3,35834.7,1.3604,2.0541,135.3,97.3,0.506
27.56,32333.1,35831.6,1.3723,2.0466,135.3,97.3,0.506
27.58,32248.0,35584.0,1.021,1.4364,135.3,97.3,0.506
27.6,32155.5,35441.0,0.6393,1.0842,135.3,97.3,0.506
27.62,32101.1,35265.4,0.4149,0.6516,135.3,97.3,0.506
27.64,32070.5,35223.2,0.2885,0.5476,135.3,97.3,0.506
27.66,32040.8,35069.5,0.1661,0.169,135.3,97.3,0.506
27.68,32001.0,35060.7,0.0019,0.1473,135.3,97.3,0.506
27.7,32005.2,34901.4,0.019,-0.2454,135.3,97.3,0.506
27.72,31933.8,34863.4,-0.2755,-0.339,135.3,97.3,0.506
27.74,31782.5,34750.4,-0.8998,-0.6174,135.3,97.3,0.506
27.76,31839.4,34650.3,-0.665,-0.8639,135.3,97.3,0.506
27.78,31897.7,34708.7,-0.4245,-0.7202,135.3,97.3,0.506
27.8,31795.5,34733.1,-0.8461,-0.6599,135.3,97.3,0.506
27.82,31774.0,34654.1,-0.9349,-0.8547,135.3,97.3,0.506
27.84,31802.5,34463.7,-0.8171,-1.3238,135.3,97.3,0.506
27.86,31679.1,34500.2,-1.3265,-1.2339,135.3,97.3,0.506
27.88,31781.8,34488.3,-0.9028,-1.2631,135.3,97.3,0.506
27.9,31826.4,34561.2,-0.7187,-1.0834,135.3,97.3,0.506
27.92,31975.9,34897.8,-0.1017,-0.2541,135.3,97.3,0.506
27.94,32094.2,35300.4,0.3862,0.7376,135.3,97.3,0.506
27.96,32254.1,35590.3,1.0461,1.4519,135.3,97.3,0.506
27.98,32397.9,35768.7,1.6397,1.8916,135.3,97.3,0.506
28.0,32338.9,35773.8,1.3961,1.9042,135.3,97.3,0.506
28.02,32281.7,35605.7,1.16,1.49,135.3,97.3,0.506
28.04,32170.7,35391.0,0.7022,0.9609,135.3,97.3,0.506
28.06,32086.1,35294.2,0.3529,0.7225,135.3,97.3,0.506
28.08,32073.6,35188.7,0.3012,0.4625,135.3,97.3,0.506
28.1,32053.5,35116.6,0.2185,0.285,135.3,97.3,0.506
28.12,32021.8,35009.9,0.0876,0.0221,135.3,97.3,0.506
28.14,31949.9,34984.7,-0.209,-0.04,135.3,97.3,0.506
28.16,31917.6,34777.2,-0.3425,-0.5512,135.3,97.3,0.506
28.18,31862.0,34732.6,-0.5716,-0.6613,135.3,97.3,0.506
28.2,31858.5,34663.4,-0.5861,-0.8316,135.3,97.3,0.506
28.22,31818.9,34739.3,-0.7498,-0.6448,135.3,97.3,0.506
28.24,31852.8,34649.6,-0.6098,-0.8657,135.3,97.3,0.506
28.26,31816.8,34608.8,-0.7584,-0.9663,135.3,97.3,0.506
28.28,31820.9,34627.8,-0.7413,-0.9194,135.3,97.3,0.506
28.3,31802.2,34418.9,-0.8186,-1.434,135.3,97.3,0.506
28.32,31773.9,34440.0,-0.9353,-1.3822,135.3,97.3,0.506
28.34,31932.9,34416.5,-0.2791,-1.44,135.3,97.3,0.506
28.36,31922.9,34801.5,-0.3205,-0.4914,135.3,97.3,0.506
28.38,32082.7,35084.5,0.3388,0.2059,135.3,97.3,0.506
28.4,32220.8,35507.4,0.9088,1.2477,135.3,97.3,0.506
28.42,32356.1,35741.5,1.4671,1.8244,135.3,97.3,0.506
28.44,32426.5,35762.6,1.7577,1.8764,135.3,97.3,0.506
28.46,32287.1,35648.1,1.1824,1.5945,135.3,97.3,0.506
28.48,32183.4,35466.6,0.7546,1.1471,135.3,97.3,0.506
28.5,32111.0,35234.6,0.4558,0.5755,135.3,97.3,0.506
28.52,32029.6,35134.8,0.12,0.3296,135.3,97.3,0.506
28.54,32096.4,35167.7,0.3952,0.4108,135.3,97.3,0.506
28.56,32076.8,35112.2,0.3147,0.2741,135.3,97.3,0.506
28.58,31987.6,34981.3,-0.0536,-0.0485,135.3,97.3,0.506
28.6,31881.9,34904.1,-0.4898,-0.2386,135.3,97.3,0.506
28.62,31828.3,34830.6,-0.7109,-0.4198,135.3,97.3,0.506
28.64,31802.7,34689.4,-0.8166,-0.7675,135.3,97.3,0.506
28.66,31895.5,34685.0,-0.4336,-0.7785,135.3,97.3,0.506
28.68,31738.2,34605.9,-1.0828,-0.9735,135.3,97.3,0.506
28.7,31789.2,34609.0,-0.8723,-0.9656,135.3,97.3,0.506
28.72,31757.3,34513.0,-1.0039,-1.2024,135.3,97.3,0.506
28.74,31868.6,34427.2,-0.5445,-1.4136,135.3,97.3,0.506
28.76,31780.0,34452.7,-0.9101,-1.3507,135.3,97.3,0.506
28.78,31810.2,34569.4,-0.7857,-1.0634,135.3,97.3,0.506
28.8,31808.0,34811.1,-0.7948,-0.4677,135.3,97.3,0.506
28.82,32104.8,35085.2,0.4303,0.2076,135.3,97.3,0.506
28.84,32194.6,35473.7,0.8005,1.1648,135.3,97.3,0.506
28.86,32306.4,35657.2,1.2617,1.6168,135.3,97.3,0.506
28.88,32374.6,35736.0,1.5432,1.8109,135.3,97.3,0.506
28.9,32255.2,35784.4,1.0505,1.9301,135.3,97.3,0.506
28.92,32322.5,35477.9,1.3286,1.1751,135.3,97.3,0.506
28.94,32104.9,35228.2,0.4306,0.5598,135.3,97.3,0.506
28.96,32072.0,35163.9,0.2948,0.4013,135.3,97.3,0.506
28.98,32077.1,35166.6,0.3159,0.4081,135.3,97.3,0.506
29.0,32003.7,35159.4,0.013,0.3903,135.3,97.3,0.506
29.02,32055.8,35036.6,0.2278,0.0877,135.3,97.3,0.506
29.04,32008.6,34888.3,0.0333,-0.2775,135.3,97.3,0.506
29.06,31924.8,34774.7,-0.3126,-0.5575,135.3,97.3,0.506
29.08,31867.2,34729.7,-0.5504,-0.6684,135.3,97.3,0.506
29.1,31840.7,34743.6,-0.6595,-0.6341,135.3,97.3,0.506
29.12,31866.8,34697.4,-0.5518,-0.7478,135.3,97.3,0.506
29.14,31816.3,34626.2,-0.7602,-0.9232,135.3,97.3,0.506
29.16,31825.9,34501.4,-0.7209,-1.2309,135.3,97.3,0.506
29.18,31730.6,34564.5,-1.1141,-1.0754,135.3,97.3,0.506
29.2,31738.9,34432.0,-1.0797,-1.4018,135.3,97.3,0.506
29.22,31703.1,34594.2,-1.2274,-1.0022,135.3,97.3,0.506
29.24,31820.9,34729.9,-0.7412,-0.6678,135.3,97.3,0.506
29.26,32067.0,35095.2,0.2741,0.2321,135.3,97.3,0.506
29.28,32155.3,35462.6,0.6383,1.1372,135.3,97.3,0.506
29.3,32351.3,35720.8,1.4471,1.7735,135.3,97.3,0.506
29.32,32398.2,35752.4,1.6405,1.8513,135.3,97.3,0.506
29.34,32323.5,35705.5,1.3326,1.7358,135.3,97.3,0.506
29.36,32072.1,35549.2,0.2952,1.3507,135.3,97.3,0.506
29.38,32192.8,35295.9,0.7934,0.7266,135.3,97.3,0.506
29.4,32161.8,35218.0,0.6652,0.5348,135.3,97.3,0.506
29.42,32042.1,35183.5,0.1714,0.4498,135.3,97.3,0.506
29.44,32014.0,35216.5,0.0553,0.5311,135.3,97.3,0.506
29.46,32078.3,35053.3,0.3208,0.129,135.3,97.3,0.506
29.48,31904.9,34996.5,-0.3949,-0.0111,135.3,97.3,0.506
29.5,31872.7,34816.9,-0.5275,-0.4536,135.3,97.3,0.506
29.52,31933.5,34725.8,-0.2769,-0.678,135.3,97.3,0.506
29.54,31742.8,34691.0,-1.0634,-0.7636,135.3,97.3,0.506
29.56,31739.4,34704.4,-1.0778,-0.7306,135.3,97.3,0.506
29.58,31872.2,34652.1,-0.5298,-0.8596,135.3,97.3,0.506
29.6,31776.4,34600.6,-0.9251,-0.9864,135.3,97.3,0.506
29.62,31744.9,34518.8,-1.055,-1.1879,135.3,97.3,0.506
29.64,31743.9,34476.1,-1.0593,-1.2933,135.3,97.3,0.506
29.66,31761.5,34458.3,-0.9863,-1.337,135.3,97.3,0.506
29.68,31830.8,34759.6,-0.7006,-0.5948,135.3,97.3,0.506
29.7,31995.9,35042.7,-0.0191,0.1027,135.3,97.3,0.506
29.72,32183.4,35344.2,0.7544,0.8456,135.3,97.3,0.506
29.74,32323.9,35693.1,1.3343,1.7053,135.3,97.3,0.506
29.76,32335.0,35786.8,1.3797,1.936,135.3,97.3,0.506
29.78,32334.5,35734.1,1.3781,1.8062,135.3,97.3,0.506
29.8,32219.5,35483.5,0.9033,1.1889,135.3,97.3,0.506
29.82,32168.6,35369.6,0.6931,0.9082,135.3,97.3,0.506
29.84,32120.9,35268.8,0.4966,0.66,135.3,97.3,0.506
29.86,32010.8,35156.8,0.0423,0.3839,135.3,97.3,0.506
29.88,32021.2,35056.5,0.0853,0.1368,135.3,97.3,0.506
29.9,32058.7,35036.4,0.24,0.0872,135.3,97.3,0.506
29.92,31981.0,34963.7,-0.0808,-0.0919,135.3,97.3,0.506
29.94,31879.7,34855.9,-0.4987,-0.3575,135.3,97.3,0.506
29.96,31882.4,34775.0,-0.4874,-0.5567,135.3,97.3,0.506
29.98,31872.8,34724.9,-0.5272,-0.6801,135.3,97.3,0.506
30.0,31871.8,34782.9,-0.5312,-0.5372,135.3,97.3,0.506
30.02,31818.2,34619.6,-0.7526,-0.9395,135.3,97.3,0.506
30.04,31863.5,34633.2,-0.5654,-0.9061,135.3,97.3,0.506
30.06,31745.2,34562.2,-1.0538,-1.081,135.3,97.3,0.506
30.08,31745.8,34459.0,-1.0511,-1.3354,135.3,97.3,0.506
30.1,31823.8,34604.2,-0.7295,-0.9776,135.3,97.3,0.506
30.12,31862.5,34640.9,-0.5698,-0.887,135.3,97.3,0.506
30.14,32008.8,34955.8,0.0339,-0.1112,135.3,97.3,0.506
30.16,32133.3,35253.3,0.5475,0.6216,135.3,97.3,0.506
30.18,32315.7,35572.0,1.3001,1.407,135.3,97.3,0.506
30.2,32386.5,35743.2,1.5922,1.8287,135.3,97.3,0.506
30.22,32333.7,35706.2,1.3747,1.7374,135.3,97.3,0.506
30.24,32342.1,35638.3,1.4093,1.5704,135.3,97.3,0.506
30.26,32141.1,35362.5,0.5797,0.8907,135.3,97.3,0.506
30.28,32024.7,35288.2,0.0996,0.7077,135.3,97.3,0.506
30.3,32206.5,35091.6,0.8497,0.2233,135.3,97.3,0.506
30.32,32036.3,35008.6,0.1473,0.0187,135.3,97.3,0.506
30.34,32050.2,34966.6,0.2047,-0.0846,135.3,97.3,0.506
30.36,31992.8,34940.3,-0.0321,-0.1495,135.3,97.3,0.506
30.38,31911.8,34837.2,-0.3663,-0.4035,135.3,97.3,0.506
30.4,31877.5,34764.6,-0.508,-0.5823,135.3,97.3,0.506
30.42,31791.0,34633.4,-0.8648,-0.9057,135.3,97.3,0.506
30.44,31908.2,34641.6,-0.381,-0.8853,135.3,97.3,0.506
30.46,31803.8,34654.7,-0.8121,-0.8531,135.3,97.3,0.506
30.48,31786.3,34661.4,-0.8842,-0.8365,135.3,97.3,0.506
30.5,31732.3,34451.2,-1.1068,-1.3546,135.3,97.3,0.506
30.52,31719.2,34443.6,-1.1609,-1.3733,135.3,97.3,0.506
30.54,31662.1,34453.6,-1.3965,-1.3485,135.3,97.3,0.506
30.56,31839.6,34628.9,-0.6642,-0.9167,135.3,97.3,0.506
30.58,31930.1,34920.5,-0.2908,-0.1981,135.3,97.3,0.506
30.6,32093.6,35336.9,0.3839,0.8276,135.3,97.3,0.506
30.62,32284.4,35590.6,1.1712,1.4528,135.3,97.3,0.506
30.64,32341.6,35787.7,1.4071,1.9383,135.3,97.3,0.506
30.66,32324.7,35728.8,1.3373,1.7932,135.3,97.3,0.506
30.68,32321.2,35644.5,1.3229,1.5854,135.3,97.3,0.506
30.7,32261.8,35365.1,1.0781,0.8971,135.3,97.3,0.506
30.72,32165.6,35287.8,0.681,0.7067,135.3,97.3,0.506
30.74,32087.7,35162.9,0.3595,0.399,135.3,97.3,0.506
30.76,32092.4,35114.1,0.3789,0.2788,135.3,97.3,0.506
30.78,32017.7,34994.9,0.0708,-0.0149,135.3,97.3,0.506
30.8,31997.4,34963.4,-0.0132,-0.0927,135.3,97.3,0.506
30.82,31971.7,34830.0,-0.1191,-0.4213,135.3,97.3,0.506
30.84,31899.4,34810.3,-0.4175,-0.4697,135.3,97.3,0.506
30.86,31935.0,34690.6,-0.2705,-0.7647,135.3,97.3,0.506
30.88,31867.9,34619.2,-0.5476,-0.9406,135.3,97.3,0.506
30.9,31803.7,34690.7,-0.8123,-0.7645,135.3,97.3,0.506
30.92,31732.7,34584.9,-1.1053,-1.025,135.3,97.3,0.506
30.94,31722.6,34459.5,-1.1468,-1.3341,135.3,97.3,0.506
30.96,31756.7,34532.6,-1.0063,-1.1539,135.3,97.3,0.506
30.98,31696.9,34476.6,-1.253,-1.2919,135.3,97.3,0.506
31.0,31807.2,34632.3,-0.7978,-0.9082,135.3,97.3,0.506
31.02,31939.6,34916.5,-0.2514,-0.2081,135.3,97.3,0.506
31.04,32098.7,35195.5,0.4051,0.4793,135.3,97.3,0.506
31.06,32247.3,35445.5,1.0179,1.0953,135.3,97.3,0.506
31.08,32367.8,35686.7,1.5153,1.6896,135.3,97.3,0.506
31.1,32338.5,35694.6,1.3942,1.7089,135.3,97.3,0.506
31.12,32342.2,35557.0,1.4095,1.3699,135.3,97.3,0.506
31.14,32238.1,35508.1,0.9803,1.2493,135.3,97.3,0.506
31.16,32136.1,35305.4,0.5593,0.7502,135.3,97.3,0.506
31.18,32085.3,35204.4,0.3498,0.5012,135.3,97.3,0.506
31.2,32057.8,34992.1,0.236,-0.0219,135.3,97.3,0.506
31.22,31962.1,35018.5,-0.1587,0.0433,135.3,97.3,0.506
31.24,32030.3,34978.6,0.1228,-0.0551,135.3,97.3,0.506
31.26,31947.1,34794.8,-0.2206,-0.508,135.3,97.3,0.506
31.28,31875.3,34862.0,-0.517,-0.3424,135.3,97.3,0.506
31.3,31846.5,34685.7,-0.6358,-0.7767,135.3,97.3,0.506
31.32,31921.1,34624.8,-0.328,-0.9268,135.3,97.3,0.506
31.34,31878.6,34750.4,-0.5034,-0.6172,135.3,97.3,0.506
31.36,31857.0,34582.0,-0.5923,-1.0323,135.3,97.3,0.506
31.38,31754.8,34654.9,-1.0143,-0.8526,135.3,97.3,0.506
31.4,31749.5,34528.4,-1.036,-1.1642,135.3,97.3,0.506
31.42,31745.0,34414.3,-1.0545,-1.4453,135.3,97.3,0.506
31.44,31796.9,34552.5,-0.8406,-1.105,135.3,97.3,0.506
31.46,31849.7,34725.6,-0.6227,-0.6785,135.3,97.3,0.506
31.48,32006.6,35067.1,0.0249,0.163,135.3,97.3,0.506
31.5,32163.8,35426.2,0.6737,1.0477,135.3,97.3,0.506
31.52,32335.7,35650.4,1.3827,1.6001,135.3,97.3,0.506
31.54,32409.6,35728.4,1.6878,1.7923,135.3,97.3,0.506
31.56,32256.5,35622.8,1.0559,1.532,135.3,97.3,0.506
31.58,32219.9,35462.8,0.9049,1.1378,135.3,97.3,0.506
31.6,32113.3,35247.6,0.4652,0.6077,135.3,97.3,0.506
31.62,32078.8,35165.7,0.3227,0.4058,135.3,97.3,0.506
31.64,32070.2,35058.1,0.2874,0.1408,135.3,97.3,0.506
31.66,32052.7,35042.0,0.2153,0.1011,135.3,97.3,0.506
31.68,32058.6,35044.0,0.2395,0.106,135.3,97.3,0.506
31.7,32074.3,34884.2,0.3042,-0.2876,135.3,97.3,0.506
31.72,31806.5,34828.3,-0.8007,-0.4255,135.3,97.3,0.506
31.74,31774.2,34684.7,-0.934,-0.7791,135.3,97.3,0.506
31.76,31831.2,34558.8,-0.6988,-1.0893,135.3,97.3,0.506
31.78,31851.8,34602.7,-0.6136,-0.9812,135.3,97.3,0.506
31.8,31850.6,34684.0,-0.6189,-0.781,135.3,97.3,0.506
31.82,31755.8,34590.5,-1.0099,-1.0114,135.3,97.3,0.506
31.84,31771.3,34474.1,-0.9459,-1.298,135.3,97.3,0.506
31.86,31736.9,34361.3,-1.0881,-1.5761,135.3,97.3,0.506
31.88,31760.4,34481.4,-0.9909,-1.28,135.3,97.3,0.506
31.9,31935.8,34776.1,-0.2673,-0.554,135.3,97.3,0.506
31.92,32028.0,35083.9,0.1133,0.2044,135.3,97.3,0.506
31.94,32279.6,35532.2,1.1515,1.3087,135.3,97.3,0.506
31.96,32263.5,35690.0,1.0849,1.6975,135.3,97.3,0.506
31.98,32331.9,35774.2,1.367,1.9051,135.3,97.3,0.506
32.0,32367.7,35785.2,1.5148,1.9322,135.3,97.3,0.506
32.02,32242.4,35487.5,0.998,1.1988,135.3,97.3,0.506
32.04,32112.7,35454.3,0.4625,1.1169,135.3,97.3,0.506
32.06,32109.0,35255.4,0.4474,0.6269,135.3,97.3,0.506
32.08,31981.2,35117.3,-0.08,0.2867,135.3,97.3,0.506
32.1,32012.5,35121.8,0.0494,0.2978,135.3,97.3,0.506
32.12,31857.1,35050.7,-0.5918,0.1226,135.3,97.3,0.506
32.14,31968.6,34877.3,-0.1319,-0.3046,135.3,97.3,0.506
32.16,31923.2,34779.6,-0.3194,-0.5455,135.3,97.3,0.506
32.18,31913.3,34765.1,-0.3601,-0.5812,135.3,97.3,0.506
32.2,31848.4,34779.7,-0.628,-0.545,135.3,97.3,0.506
32.22,31869.6,34660.7,-0.5404,-0.8383,135.3,97.3,0.506
32.24,31828.3,34615.4,-0.711,-0.9499,135.3,97.3,0.506
32.26,31755.2,34560.5,-1.0125,-1.0852,135.3,97.3,0.506
32.28,31885.9,34494.9,-0.4731,-1.2468,135.3,97.3,0.506
32.3,31762.7,34467.3,-0.9815,-1.3149,135.3,97.3,0.506
32.32,31841.5,34502.2,-0.6564,-1.2289,135.3,97.3,0.506
32.34,31925.0,34758.3,-0.3117,-0.5979,135.3,97.3,0.506
32.36,32012.8,35066.2,0.0503,0.1607,135.3,97.3,0.506
32.38,32062.5,35374.2,0.2556,0.9196,135.3,97.3,0.506
32.4,32300.3,35641.7,1.2368,1.5786,135.3,97.3,0.506
32.42,32436.3,35767.1,1.7978,1.8876,135.3,97.3,0.506
32.44,32261.2,35735.4,1.0755,1.8094,135.3,97.3,0.506
32.46,32213.0,35617.7,0.8764,1.5195,135.3,97.3,0.506
32.48,32258.8,35414.7,1.0656,1.0194,135.3,97.3,0.506
32.5,32114.9,35259.3,0.4717,0.6365,135.3,97.3,0.506
32.52,31992.5,35221.7,-0.0331,0.5438,135.3,97.3,0.506
32.54,32002.2,35072.0,0.0067,0.175,135.3,97.3,0.506
32.56,32011.4,35088.0,0.0446,0.2145,135.3,97.3,0.506
32.58,31964.9,34934.0,-0.147,-0.1649,135.3,97.3,0.506
32.6,31862.3,34885.5,-0.5705,-0.2844,135.3,97.3,0.506
32.62,31833.6,34676.2,-0.6888,-0.8003,135.3,97.3,0.506
32.64,31834.2,34641.2,-0.6867,-0.8865,135.3,97.3,0.506
32.66,31946.4,34673.5,-0.2237,-0.8069,135.3,97.3,0.506
32.68,31873.4,34718.6,-0.5247,-0.6957,135.3,97.3,0.506
32.7,31838.5,34616.2,-0.6686,-0.9479,135.3,97.3,0.506
32.72,31835.7,34526.8,-0.6804,-1.1682,135.3,97.3,0.506
32.74,31794.8,34513.0,-0.8491,-1.2022,135.3,97.3,0.506
32.76,31787.1,34477.8,-0.8807,-1.2891,135.3,97.3,0.506
32.78,31786.4,34662.6,-0.8837,-0.8337,135.3,97.3,0.506
32.8,31954.0,34981.7,-0.192,-0.0476,135.3,97.3,0.506
32.82,32087.6,35320.1,0.359,0.7862,135.3,97.3,0.506
32.84,32348.9,35573.2,1.4372,1.4099,135.3,97.3,0.506
32.86,32369.7,35699.5,1.523,1.7211,135.3,97.3,0.506
32.88,32373.1,35724.7,1.5373,1.783,135.3,97.3,0.506
32.9,32211.4,35474.9,0.8701,1.1676,135.3,97.3,0.506
32.92,32182.5,35400.5,0.7506,0.9844,135.3,97.3,0.506
32.94,32005.9,35125.8,0.0221,0.3075,135.3,97.3,0.506
32.96,32072.6,35143.6,0.2972,0.3514,135.3,97.3,0.506
32.98,31979.7,35028.3,-0.0862,0.0673,135.3,97.3,0.506
33.0,32037.3,35113.3,0.1517,0.2768,135.3,97.3,0.506
33.02,32014.5,34898.7,0.0574,-0.252,135.3,97.3,0.506
33.04,31940.2,34922.9,-0.2492,-0.1922,135.3,97.3,0.506
33.06,31874.7,34821.0,-0.5192,-0.4434,135.3,97.3,0.506
33.08,31763.3,34677.0,-0.9789,-0.7981,135.3,97.3,0.506
33.1,31841.9,34675.2,-0.6549,-0.8025,135.3,97.3,0.506
33.12,31810.4,34711.7,-0.7847,-0.7126,135.3,97.3,0.506
33.14,31865.3,34577.1,-0.5582,-1.0443,135.3,97.3,0.506
33.16,31814.5,34483.4,-0.7676,-1.2751,135.3,97.3,0.506
33.18,31785.8,34453.3,-0.8861,-1.3493,135.3,97.3,0.506
33.2,31791.7,34485.3,-0.862,-1.2706,135.3,97.3,0.506
33.22,31766.5,34643.3,-0.9656,-0.8811,135.3,97.3,0.506
33.24,31967.9,34848.9,-0.135,-0.3747,135.3,97.3,0.506
33.26,32175.7,35296.4,0.7226,0.7278,135.3,97.3,0.506
33.28,32296.7,35507.5,1.222,1.2479,135.3,97.3,0.506
33.3,32413.5,35722.4,1.7038,1.7774,135.3,97.3,0.506
33.32,32369.1,35715.2,1.5207,1.7597,135.3,97.3,0.506
33.34,32356.6,35616.9,1.4692,1.5174,135.3,97.3,0.506
33.36,32187.1,35490.1,0.7699,1.2051,135.3,97.3,0.506
33.38,32141.4,35233.7,0.5812,0.5735,135.3,97.3,0.506
33.4,32133.5,35102.3,0.5485,0.2495,135.3,97.3,0.506
33.42,32081.8,35069.4,0.335,0.1687,135.3,97.3,0.506
33.44,31979.8,35089.3,-0.0857,0.2176,135.3,97.3,0.506
33.46,32015.4,34916.8,0.0613,-0.2074,135.3,97.3,0.506
33.48,31948.5,34887.1,-0.2147,-0.2805,135.3,97.3,0.506
33.5,31791.3,34691.1,-0.8636,-0.7635,135.3,97.3,0.506
33.52,31878.2,34600.3,-0.505,-0.9872,135.3,97.3,0.506
33.54,31800.5,34682.9,-0.8255,-0.7835,135.3,97.3,0.506
33.56,31779.7,34727.8,-0.9114,-0.6729,135.3,97.3,0.506
33.58,31801.2,34565.8,-0.8224,-1.0722,135.3,97.3,0.506
33.6,31749.6,34499.0,-1.0357,-1.2368,135.3,97.3,0.506
33.62,31681.1,34506.1,-1.3183,-1.2193,135.3,97.3,0.506
33.64,31693.8,34471.8,-1.2657,-1.3037,135.3,97.3,0.506
33.66,31726.6,34524.0,-1.1306,-1.1751,135.3,97.3,0.506
33.68,31957.8,34819.0,-0.1764,-0.4484,135.3,97.3,0.506
33.7,32112.8,35175.7,0.4632,0.4306,135.3,97.3,0.506
33.72,32244.3,35503.7,1.0056,1.2386,135.3,97.3,0.506
33.74,32468.0,35663.7,1.9288,1.6328,135.3,97.3,0.506
33.76,32320.7,35746.0,1.3208,1.8356,135.3,97.3,0.506
33.78,32291.0,35683.4,1.1984,1.6814,135.3,97.3,0.506
33.8,32149.7,35482.4,0.6152,1.1861,135.3,97.3,0.506
33.82,32179.6,35268.4,0.7386,0.6588,135.3,97.3,0.506
33.84,32071.6,35268.3,0.2931,0.6588,135.3,97.3,0.506
33.86,32103.1,35059.6,0.4232,0.1444,135.3,97.3,0.506
33.88,32047.0,35027.2,0.1917,0.0645,135.3,97.3,0.506
33.9,32009.9,34877.9,0.0387,-0.3031,135.3,97.3,0.506
33.92,31960.7,34880.7,-0.1646,-0.2962,135.3,97.3,0.506
33.94,31874.6,34803.9,-0.5197,-0.4856,135.3,97.3,0.506
33.96,31990.3,34726.2,-0.0424,-0.677,135.3,97.3,0.506
33.98,31818.9,34759.3,-0.7495,-0.5955,135.3,97.3,0.506
34.0,31833.6,34615.2,-0.6891,-0.9504,135.3,97.3,0.506
34.02,31828.7,34620.7,-0.7091,-0.9369,135.3,97.3,0.506
34.04,31875.7,34561.1,-0.5152,-1.0838,135.3,97.3,0.506
34.06,31753.6,34485.9,-1.0191,-1.269,135.3,97.3,0.506
34.08,31746.9,34449.5,-1.0466,-1.3588,135.3,97.3,0.506
34.1,31809.2,34543.6,-0.7896,-1.1267,135.3,97.3,0.506
34.12,31889.6,34776.9,-0.4579,-0.5521,135.3,97.3,0.506
34.14,32082.9,35085.9,0.3398,0.2092,135.3,97.3,0.506
34.16,32196.6,35411.5,0.8089,1.0115,135.3,97.3,0.506
34.18,32312.0,35724.5,1.2852,1.7826,135.3,97.3,0.506
34.2,32261.0,35785.0,1.0746,1.9316,135.3,97.3,0.506
34.22,32368.8,35658.5,1.5193,1.62,135.3,97.3,0.506
34.24,32257.3,35384.2,1.0595,0.9443,135.3,97.3,0.506
34.26,32159.1,35289.3,0.654,0.7104,135.3,97.3,0.506
34.28,32060.9,35187.0,0.249,0.4584,135.3,97.3,0.506
34.3,32100.4,35152.4,0.4118,0.3731,135.3,97.3,0.506
34.32,32052.9,35060.8,0.2158,0.1473,135.3,97.3,0.506
34.34,31946.3,35000.2,-0.2239,-0.0018,135.3,97.3,0.506
34.36,32033.4,34865.5,0.1354,-0.3339,135.3,97.3,0.506
34.38,31906.2,34875.6,-0.3894,-0.3088,135.3,97.3,0.506
34.4,31873.0,34702.7,-0.5266,-0.7348,135.3,97.3,0.506
34.42,31905.6,34647.2,-0.3918,-0.8716,135.3,97.3,0.506
34.44,31819.9,34751.0,-0.7453,-0.6158,135.3,97.3,0.506
34.46,31846.7,34617.4,-0.6349,-0.945,135.3,97.3,0.506
34.48,31869.1,34571.6,-0.5425,-1.0579,135.3,97.3,0.506
34.5,31696.7,34412.3,-1.2537,-1.4503,135.3,97.3,0.506
34.52,31681.6,34470.0,-1.3163,-1.3082,135.3,97.3,0.506
34.54,31735.8,34505.6,-1.0923,-1.2205,135.3,97.3,0.506
34.56,31918.3,34699.1,-0.3393,-0.7438,135.3,97.3,0.506
34.58,31994.5,35135.5,-0.025,0.3314,135.3,97.3,0.506
34.6,32192.7,35386.1,0.7928,0.9489,135.3,97.3,0.506
34.62,32350.0,35707.8,1.442,1.7414,135.3,97.3,0.506
34.64,32384.5,35766.4,1.5843,1.8859,135.3,97.3,0.506
34.66,32315.4,35727.2,1.2992,1.7892,135.3,97.3,0.506
34.68,32169.6,35556.1,0.6974,1.3678,135.3,97.3,0.506
34.7,32213.4,35313.7,0.878,0.7705,135.3,97.3,0.506
34.72,32056.1,35181.1,0.229,0.4437,135.3,97.3,0.506
34.74,32052.4,35169.2,0.2138,0.4145,135.3,97.3,0.506
34.76,32090.6,35156.3,0.3713,0.3827,135.3,97.3,0.506
34.78,32007.4,34993.9,0.0282,-0.0174,135.3,97.3,0.506
34.8,31915.9,34931.8,-0.3492,-0.1705,135.3,97.3,0.506
34.82,31935.3,34780.2,-0.2692,-0.5439,135.3,97.3,0.506
34.84,31913.3,34796.7,-0.3602,-0.5033,135.3,97.3,0.506
34.86,31854.1,34746.1,-0.6045,-0.6279,135.3,97.3,0.506
34.88,31892.6,34711.2,-0.4457,-0.7139,135.3,97.3,0.506
34.9,31905.1,34607.4,-0.3938,-0.9697,135.3,97.3,0.506
34.92,31710.7,34622.3,-1.1959,-0.9329,135.3,97.3,0.506
34.94,31802.6,34474.3,-0.817,-1.2977,135.3,97.3,0.506
34.96,31654.4,34395.4,-1.4283,-1.4919,135.3,97.3,0.506
34.98,31778.8,34487.5,-0.9152,-1.2651,135.3,97.3,0.506
35.0,31880.8,34705.9,-0.4942,-0.7269,135.3,97.3,0.506
35.02,31997.1,34976.1,-0.0141,-0.0613,135.3,97.3,0.506
35.04,32185.9,35316.8,0.7647,0.7782,135.3,97.3,0.506
35.06,32219.1,35643.2,0.9016,1.5822,135.3,97.3,0.506
35.08,32335.5,35753.9,1.3821,1.855,135.3,97.3,0.506
35.1,32372.0,35650.4,1.5324,1.5999,135.3,97.3,0.506
35.12,32261.9,35575.0,1.0782,1.4142,135.3,97.3,0.506
35.14,32198.7,35372.4,0.8175,0.9152,135.3,97.3,0.506
35.16,32124.8,35170.5,0.5125,0.4177,135.3,97.3,0.506
35.18,32007.0,35145.3,0.0266,0.3556,135.3,97.3,0.506
35.2,32044.3,35127.5,0.1803,0.3117,135.3,97.3,0.506
35.22,32004.1,34995.0,0.0147,-0.0147,135.3,97.3,0.506
35.24,32005.6,34899.6,0.0208,-0.2498,135.3,97.3,0.506
35.26,31901.5,34844.0,-0.4088,-0.3867,135.3,97.3,0.506
35.28,31940.9,34737.0,-0.2462,-0.6505,135.3,97.3,0.506
35.3,31901.8,34693.2,-0.4077,-0.7582,135.3,97.3,0.506
35.32,31799.4,34586.2,-0.8301,-1.022,135.3,97.3,0.506
35.34,31839.5,34632.3,-0.6647,-0.9084,135.3,97.3,0.506
35.36,31798.9,34517.1,-0.8321,-1.192,135.3,97.3,0.506
35.38,31827.3,34519.2,-0.7148,-1.1869,135.3,97.3,0.506
35.4,31746.8,34430.0,-1.047,-1.4068,135.3,97.3,0.506
35.42,31730.6,34432.3,-1.1138,-1.4011,135.3,97.3,0.506
35.44,31787.9,34631.8,-0.8776,-0.9096,135.3,97.3,0.506
35.46,32048.3,34959.6,0.1969,-0.102,135.3,97.3,0.506
35.48,32077.8,35233.8,0.3185,0.5737,135.3,97.3,0.506
35.5,32276.3,35583.7,1.1379,1.4357,135.3,97.3,0.506
35.52,32366.5,35681.2,1.5097,1.6759,135.3,97.3,0.506
35.54,32466.0,35735.7,1.9205,1.8103,135.3,97.3,0.506
35.56,32239.6,35621.6,0.9864,1.529,135.3,97.3,0.506
35.58,32126.6,35449.5,0.5201,1.1052,135.3,97.3,0.506
35.6,32081.2,35272.6,0.3325,0.6693,135.3,97.3,0.506
35.62,32085.6,35095.3,0.3508,0.2323,135.3,97.3,0.506
35.64,32058.1,35033.4,0.2375,0.08,135.3,97.3,0.506
35.66,32078.6,34885.4,0.3219,-0.2846,135.3,97.3,0.506
35.68,31950.8,35009.0,-0.2054,0.0199,135.3,97.3,0.506
35.7,31877.4,34891.0,-0.5082,-0.2709,135.3,97.3,0.506
35.72,31866.9,34689.1,-0.5514,-0.7685,135.3,97.3,0.506
35.74,31786.5,34649.2,-0.8832,-0.8667,135.3,97.3,0.506
35.76,31883.8,34633.7,-0.4818,-0.905,135.3,97.3,0.506
35.78,31831.2,34543.6,-0.6987,-1.1269,135.3,97.3,0.506
35.8,31712.0,34601.0,-1.1908,-0.9853,135.3,97.3,0.506
35.82,31788.2,34551.9,-0.8761,-1.1063,135.3,97.3,0.506
35.84,31751.0,34426.5,-1.0299,-1.4155,135.3,97.3,0.506
35.86,31863.5,34481.6,-0.5656,-1.2796,135.3,97.3,0.506
35.88,31796.3,34643.9,-0.843,-0.8797,135.3,97.3,0.506
35.9,31971.0,34828.5,-0.1221,-0.4249,135.3,97.3,0.506
35.92,32107.2,35246.7,0.4401,0.6054,135.3,97.3,0.506
35.94,32312.9,35598.2,1.2888,1.4714,135.3,97.3,0.506
35.96,32421.2,35723.8,1.7357,1.7808,135.3,97.3,0.506
35.98,32359.0,35744.6,1.4791,1.8322,135.3,97.3,0.506
36.0,32304.7,35613.5,1.2551,1.5092,135.3,97.3,0.506
36.02,32241.3,35369.1,0.9932,0.907,135.3,97.3,0.506
36.04,31990.0,35333.3,-0.0435,0.8187,135.3,97.3,0.506
36.06,32114.5,35139.0,0.4702,0.3402,135.3,97.3,0.506
36.08,32017.3,35172.9,0.069,0.4235,135.3,97.3,0.506
36.1,32017.1,35116.9,0.0681,0.2856,135.3,97.3,0.506
36.12,31995.6,34981.9,-0.0204,-0.0469,135.3,97.3,0.506
36.14,31957.5,34799.7,-0.1777,-0.496,135.3,97.3,0.506
36.16,31939.7,34803.0,-0.2512,-0.4877,135.3,97.3,0.506
36.18,31856.7,34666.9,-0.5936,-0.8231,135.3,97.3,0.506
36.2,31753.9,34745.0,-1.0178,-0.6305,135.3,97.3,0.506
36.22,31786.7,34676.2,-0.8825,-0.8002,135.3,97.3,0.506
36.24,31892.3,34697.8,-0.4468,-0.747,135.3,97.3,0.506
36.26,31874.9,34619.8,-0.5185,-0.939,135.3,97.3,0.506
36.28,31721.6,34451.2,-1.1511,-1.3545,135.3,97.3,0.506
36.3,31765.6,34525.5,-0.9696,-1.1714,135.3,97.3,0.506
36.32,31688.3,34570.7,-1.2886,-1.0601,135.3,97.3,0.506
36.34,31928.0,34773.7,-0.2995,-0.5599,135.3,97.3,0.506
36.36,32136.5,35171.6,0.561,0.4204,135.3,97.3,0.506
36.38,32280.2,35495.5,1.154,1.2184,135.3,97.3,0.506
36.4,32260.3,35704.5,1.0718,1.7334,135.3,97.3,0.506
36.42,32207.9,35797.6,0.8557,1.9627,135.3,97.3,0.506
36.44,32309.2,35584.2,1.2735,1.437,135.3,97.3,0.506
36.46,32316.9,35428.4,1.3054,1.053,135.3,97.3,0.506
36.48,32139.8,35281.5,0.5746,0.6911,135.3,97.3,0.506
36.5,32090.5,35213.2,0.3711,0.5229,135.3,97.3,0.506
36.52,32034.0,35143.7,0.138,0.3516,135.3,97.3,0.506
36.54,32071.4,34992.7,0.2922,-0.0204,135.3,97.3,0.506
36.56,31999.3,35076.6,-0.005,0.1864,135.3,97.3,0.506
36.58,31851.4,34805.4,-0.6154,-0.482,135.3,97.3,0.506
36.6,31840.3,34802.4,-0.6613,-0.4893,135.3,97.3,0.506
36.62,31874.3,34698.4,-0.5209,-0.7454,135.3,97.3,0.506
36.64,31897.7,34549.0,-0.4246,-1.1136,135.3,97.3,0.506
36.66,31825.1,34621.4,-0.724,-0.9352,135.3,97.3,0.506
36.68,31813.3,34616.8,-0.7728,-0.9464,135.3,97.3,0.506
36.7,31850.1,34572.3,-0.621,-1.0562,135.3,97.3,0.506
36.72,31788.3,34519.2,-0.876,-1.187,135.3,97.3,0.506
36.74,31741.9,34451.6,-1.0674,-1.3535,135.3,97.3,0.506
36.76,31850.5,34526.0,-0.6191,-1.1703,135.3,97.3,0.506
36.78,31862.7,34750.5,-0.5689,-0.617,135.3,97.3,0.506
36.8,32130.2,35111.6,0.5347,0.2725,135.3,97.3,0.506
36.82,32183.1,35403.2,0.7531,0.991,135.3,97.3,0.506
36.84,32294.6,35745.3,1.2132,1.834,135.3,97.3,0.506
36.86,32283.4,35768.8,1.1669,1.8917,135.3,97.3,0.506
36.88,32300.5,35704.1,1.2375,1.7324,135.3,97.3,0.506
36.9,32214.4,35455.3,0.8825,1.1194,135.3,97.3,0.506
36.92,32176.3,35280.0,0.725,0.6876,135.3,97.3,0.506
36.94,32201.9,35153.4,0.8306,0.3756,135.3,97.3,0.506
36.96,32086.4,35097.2,0.3542,0.237,135.3,97.3,0.506
36.98,31937.4,35066.5,-0.2606,0.1614,135.3,97.3,0.506
37.0,31960.0,35000.7,-0.1672,-0.0006,135.3,97.3,0.506
37.02,31893.6,34852.5,-0.4415,-0.3659,135.3,97.3,0.506
37.04,31897.8,34871.9,-0.4241,-0.318,135.3,97.3,0.506
37.06,31854.3,34660.7,-0.6037,-0.8382,135.3,97.3,0.506
37.08,31895.9,34742.4,-0.4319,-0.6371,135.3,97.3,0.506
37.1,31842.1,34684.3,-0.6537,-0.7803,135.3,97.3,0.506
37.12,31787.0,34681.5,-0.8811,-0.7871,135.3,97.3,0.506
37.14,31728.8,34546.0,-1.1213,-1.1208,135.3,97.3,0.506
37.16,31791.2,34446.4,-0.8639,-1.3664,135.3,97.3,0.506
37.18,31706.1,34418.7,-1.2152,-1.4345,135.3,97.3,0.506
37.2,31796.6,34574.1,-0.8416,-1.0517,135.3,97.3,0.506
37.22,31830.5,34798.2,-0.7018,-0.4995,135.3,97.3,0.506
37.24,32017.8,35008.4,0.0712,0.0183,135.3,97.3,0.506
37.26,32226.8,35418.7,0.9334,1.0293,135.3,97.3,0.506
37.28,32390.2,35615.3,1.6077,1.5135,135.3,97.3,0.506
37.3,32359.5,35701.0,1.4811,1.7248,135.3,97.3,0.506
37.32,32364.0,35654.5,1.4994,1.6103,135.3,97.3,0.506
37.34,32261.7,35408.9,1.0776,1.005,135.3,97.3,0.506
37.36,32130.9,35325.9,0.5376,0.8005,135.3,97.3,0.506
37.38,32081.9,35267.8,0.3356,0.6575,135.3,97.3,0.506
37.4,31968.8,35079.4,-0.1313,0.1931,135.3,97.3,0.506
37.42,32062.9,35049.7,0.257,0.1201,135.3,97.3,0.506
37.44,32083.7,35099.7,0.343,0.2432,135.3,97.3,0.506
37.46,32030.5,34892.8,0.1236,-0.2664,135.3,97.3,0.506
37.48,31905.4,34835.5,-0.3927,-0.4078,135.3,97.3,0.506
37.5,31934.6,34755.9,-0.2722,-0.6037,135.3,97.3,0.506
37.52,31782.9,34688.6,-0.898,-0.7697,135.3,97.3,0.506
37.54,31809.0,34670.3,-0.7905,-0.8148,135.3,97.3,0.506
37.56,31772.3,34603.3,-0.9419,-0.9798,135.3,97.3,0.506
37.58,31790.9,34650.6,-0.8653,-0.8633,135.3,97.3,0.506
37.6,31768.8,34537.1,-0.9562,-1.143,135.3,97.3,0.506
37.62,31777.2,34477.6,-0.9215,-1.2894,135.3,97.3,0.506
37.64,31758.7,34524.7,-0.998,-1.1735,135.3,97.3,0.506
37.66,31849.0,34668.4,-0.6256,-0.8195,135.3,97.3,0.506
37.68,32052.0,34984.8,0.2122,-0.04,135.3,97.3,0.506
37.7,32136.1,35417.1,0.5593,1.0252,135.3,97.3,0.506
37.72,32184.4,35515.3,0.7585,1.2671,135.3,97.3,0.506
37.74,32388.4,35825.8,1.6001,2.0322,135.3,97.3,0.506
37.76,32262.5,35666.6,1.0806,1.64,135.3,97.3,0.506
37.78,32316.6,35515.3,1.3042,1.2672,135.3,97.3,0.506
37.8,32186.8,35437.1,0.7682,1.0745,135.3,97.3,0.506
37.82,32107.2,35201.3,0.44,0.4935,135.3,97.3,0.506
37.84,32029.0,35169.5,0.1174,0.4151,135.3,97.3,0.506
37.86,32067.3,35112.8,0.2752,0.2755,135.3,97.3,0.506
37.88,32039.1,35063.2,0.1588,0.1534,135.3,97.3,0.506
37.9,32015.1,34982.1,0.0598,-0.0466,135.3,97.3,0.506
37.92,31920.2,34802.1,-0.3316,-0.4899,135.3,97.3,0.506
37.94,31894.5,34667.2,-0.4376,-0.8224,135.3,97.3,0.506
37.96,31858.4,34698.8,-0.5867,-0.7445,135.3,97.3,0.506
37.98,31916.7,34648.5,-0.3462,-0.8683,135.3,97.3,0.506
38.0,31780.8,34682.0,-0.9069,-0.7858,135.3,97.3,0.506
38.02,31868.1,34580.7,-0.5466,-1.0354,135.3,97.3,0.506
38.04,31859.0,34558.7,-0.5843,-1.0898,135.3,97.3,0.506
38.06,31734.1,34520.2,-1.0997,-1.1845,135.3,97.3,0.506
38.08,31736.8,34461.4,-1.0883,-1.3293,135.3,97.3,0.506
38.1,31810.5,34712.3,-0.7842,-0.7112,135.3,97.3,0.506
38.12,31940.2,34912.6,-0.249,-0.2176,135.3,97.3,0.506
38.14,32168.9,35220.6,0.6948,0.541,135.3,97.3,0.506
38.16,32275.8,35579.1,1.1359,1.4244,135.3,97.3,0.506
38.18,32330.2,35883.8,1.3601,2.1751,135.3,97.3,0.506
38.2,32328.7,35707.3,1.354,1.7403,135.3,97.3,0.506
38.22,32227.7,35603.9,0.9372,1.4854,135.3,97.3,0.506
38.24,32170.8,35350.8,0.7023,0.8619,135.3,97.3,0.506
38.26,32087.7,35189.3,0.3593,0.4641,135.3,97.3,0.506
38.28,32005.7,35083.0,0.0211,0.2021,135.3,97.3,0.506
38.3,32043.0,35101.5,0.1751,0.2476,135.3,97.3,0.506
38.32,32054.9,34952.7,0.224,-0.1189,135.3,97.3,0.506
38.34,32027.7,35001.6,0.112,0.0016,135.3,97.3,0.506
38.36,31945.2,34834.8,-0.2286,-0.4094,135.3,97.3,0.506
38.38,32029.2,34758.9,0.1181,-0.5964,135.3,97.3,0.506
38.4,31887.3,34726.2,-0.4672,-0.677,135.3,97.3,0.506
38.42,31835.2,34739.5,-0.6823,-0.6442,135.3,97.3,0.506
38.44,31826.0,34786.3,-0.7204,-0.529,135.3,97.3,0.506
38.46,31794.6,34585.8,-0.8498,-1.0229,135.3,97.3,0.506
38.48,31739.6,34507.9,-1.0768,-1.2149,135.3,97.3,0.506
38.5,31811.8,34533.7,-0.7791,-1.1513,135.3,97.3,0.506
38.52,31736.7,34463.7,-1.0888,-1.3236,135.3,97.3,0.506
38.54,31857.0,34575.2,-0.5922,-1.0491,135.3,97.3,0.506
38.56,31961.0,34875.3,-0.1632,-0.3096,135.3,97.3,0.506
38.58,32096.0,35361.4,0.3939,0.888,135.3,97.3,0.506
38.6,32194.9,35559.9,0.8017,1.377,135.3,97.3,0.506
38.62,32347.4,35706.3,1.4313,1.7377,135.3,97.3,0.506
38.64,32378.1,35749.5,1.5578,1.8442,135.3,97.3,0.506
38.66,32351.9,35580.4,1.4496,1.4276,135.3,97.3,0.506
38.68,32217.4,35441.7,0.8947,1.0859,135.3,97.3,0.506
38.7,32088.0,35331.9,0.3609,0.8153,135.3,97.3,0.506
38.72,32098.6,35131.6,0.4044,0.3217,135.3,97.3,0.506
38.74,32097.4,35078.7,0.3996,0.1914,135.3,97.3,0.506
38.76,31983.1,35083.6,-0.0721,0.2037,135.3,97.3,0.506
38.78,31988.3,35094.2,-0.0507,0.2297,135.3,97.3,0.506
38.8,32024.6,34917.8,0.0993,-0.2049,135.3,97.3,0.506
38.82,31882.3,34856.5,-0.4878,-0.3559,135.3,97.3,0.506
38.84,31860.4,34720.8,-0.5783,-0.6903,135.3,97.3,0.506
38.86,31900.1,34724.2,-0.4144,-0.6819,135.3,97.3,0.506
38.88,31827.5,34660.8,-0.7142,-0.8381,135.3,97.3,0.506
38.9,31793.9,34579.8,-0.8528,-1.0377,135.3,97.3,0.506
38.92,31829.2,34564.7,-0.707,-1.0748,135.3,97.3,0.506
38.94,31749.2,34500.9,-1.0373,-1.2321,135.3,97.3,0.506
38.96,31738.7,34506.0,-1.0803,-1.2195,135.3,97.3,0.506
38.98,31744.3,34552.4,-1.0575,-1.1053,135.3,97.3,0.506
39.0,31928.0,34790.7,-0.2994,-0.518,135.3,97.3,0.506
39.02,32047.3,35204.2,0.1927,0.5008,135.3,97.3,0.506
39.04,32112.4,35530.7,0.4613,1.3051,135.3,97.3,0.506
39.06,32360.6,35675.5,1.4855,1.662,135.3,97.3,0.506
39.08,32391.1,35741.6,1.6116,1.8248,135.3,97.3,0.506
39.1,32319.5,35701.4,1.3161,1.7258,135.3,97.3,0.506
39.12,32160.6,35405.8,0.6602,0.9974,135.3,97.3,0.506
39.14,32119.7,35303.5,0.4916,0.7453,135.3,97.3,0.506
39.16,32037.1,35168.2,0.1508,0.4121,135.3,97.3,0.506
39.18,32185.7,35109.9,0.764,0.2684,135.3,97.3,0.506
39.2,32086.5,35103.1,0.3544,0.2517,135.3,97.3,0.506
39.22,32065.6,34977.1,0.2684,-0.0588,135.3,97.3,0.506
39.24,31945.2,34844.1,-0.2286,-0.3866,135.3,97.3,0.506
39.26,31900.8,34815.3,-0.4115,-0.4575,135.3,97.3,0.506
39.28,31846.7,34744.4,-0.6349,-0.6321,135.3,97.3,0.506
39.3,31870.9,34668.9,-0.5352,-0.8181,135.3,97.3,0.506
39.32,31849.0,34696.0,-0.6254,-0.7513,135.3,97.3,0.506
39.34,31868.0,34617.9,-0.547,-0.9437,135.3,97.3,0.506
39.36,31814.8,34562.3,-0.7667,-1.0808,135.3,97.3,0.506
39.38,31810.2,34456.3,-0.7856,-1.3418,135.3,97.3,0.506
39.4,31748.0,34380.9,-1.0423,-1.5278,135.3,97.3,0.506
39.42,31774.8,34509.8,-0.9317,-1.2103,135.3,97.3,0.506
39.44,31846.5,34790.4,-0.6358,-0.5189,135.3,97.3,0.506
39.46,32030.8,35110.8,0.1248,0.2706,135.3,97.3,0.506
39.48,32237.8,35508.6,0.9789,1.2507,135.3,97.3,0.506
39.5,32287.0,35728.2,1.1818,1.7917,135.3,97.3,0.506
39.52,32408.4,35788.1,1.6828,1.9392,135.3,97.3,0.506
39.54,32305.8,35753.3,1.2596,1.8537,135.3,97.3,0.506
39.56,32221.8,35482.4,0.9127,1.186,135.3,97.3,0.506
39.58,32137.6,35332.3,0.5655,0.8163,135.3,97.3,0.506
39.6,32075.3,35221.7,0.3086,0.5438,135.3,97.3,0.506
39.62,31965.0,35139.2,-0.1469,0.3405,135.3,97.3,0.506
39.64,32017.0,35033.8,0.0678,0.0808,135.3,97.3,0.506
39.66,32025.9,34930.5,0.1045,-0.1737,135.3,97.3,0.506
39.68,31966.2,34897.7,-0.1418,-0.2545,135.3,97.3,0.506
39.7,31972.2,34793.7,-0.1169,-0.5107,135.3,97.3,0.506
39.72,31873.3,34733.0,-0.5253,-0.6603,135.3,97.3,0.506
39.74,31791.1,34675.3,-0.8645,-0.8023,135.3,97.3,0.506
39.76,31814.4,34648.5,-0.7681,-0.8685,135.3,97.3,0.506
39.78,31836.9,34679.7,-0.6752,-0.7915,135.3,97.3,0.506
39.8,31741.7,34579.9,-1.068,-1.0374,135.3,97.3,0.506
39.82,31767.8,34461.3,-0.9603,-1.3297,135.3,97.3,0.506
39.84,31772.4,34429.4,-0.9417,-1.4083,135.3,97.3,0.506
39.86,31769.5,34483.1,-0.9535,-1.2759,135.3,97.3,0.506
39.88,31916.8,34795.1,-0.3457,-0.5071,135.3,97.3,0.506
39.9,32151.3,35053.0,0.6221,0.1283,135.3,97.3,0.506
39.92,32214.8,35329.9,0.8841,0.8104,135.3,97.3,0.506
39.94,32280.1,35658.4,1.1533,1.6199,135.3,97.3,0.506
39.96,32324.8,35653.3,1.3377,1.6071,135.3,97.3,0.506
39.98,32216.4,35653.8,0.8905,1.6083,135.3,97.3,0.506
40.0,32259.1,35496.5,1.0669,1.2208,135.3,97.3,0.506
40.02,32175.8,35332.2,0.7229,0.8162,135.3,97.3,0.507
40.04,32080.6,35169.2,0.3301,0.4146,135.3,97.3,0.507
40.06,32135.5,35101.2,0.5567,0.247,135.3,97.3,0.508
40.08,32044.7,35115.3,0.1821,0.2816,135.2,97.3,0.508
40.1,31965.3,35012.0,-0.1455,0.0273,135.2,97.3,0.509
40.12,31955.5,34940.1,-0.1859,-0.15,135.2,97.3,0.509
40.14,31908.5,34791.0,-0.38,-0.5172,135.2,97.3,0.51
40.16,31878.4,34770.9,-0.5041,-0.5668,135.2,97.2,0.51
40.18,31912.4,34715.8,-0.3638,-0.7026,135.1,97.2,0.511
40.2,31899.4,34636.4,-0.4175,-0.8983,135.1,97.2,0.511
40.22,31774.3,34646.3,-0.9337,-0.8739,135.1,97.2,0.512
40.24,31923.1,34621.8,-0.3197,-0.9343,135.1,97.2,0.512
40.26,31715.9,34557.9,-1.1745,-1.0917,135.1,97.2,0.513
40.28,31826.1,34434.8,-0.7199,-1.3949,135.0,97.2,0.513
40.3,31775.2,34605.5,-0.9298,-0.9744,135.0,97.2,0.514
40.32,31791.2,34626.3,-0.8637,-0.9232,135.0,97.1,0.514
40.34,31927.3,35101.8,-0.3023,0.2485,135.0,97.1,0.515
40.36,32153.0,35260.7,0.629,0.6399,135.0,97.1,0.515
40.38,32338.3,35537.4,1.3935,1.3216,134.9,97.1,0.516
40.4,32432.9,35683.8,1.7839,1.6824,134.9,97.1,0.516
40.42,32441.2,35778.4,1.8183,1.9154,134.9,97.1,0.517
40.44,32246.6,35527.8,1.0153,1.298,134.9,97.1,0.517
40.46,32179.8,35324.4,0.7395,0.7968,134.9,97.1,0.518
40.48,32050.6,35167.7,0.2065,0.4108,134.8,97.0,0.518
40.5,32011.6,35139.2,0.0455,0.3406,134.8,97.0,0.519
40.52,32003.2,34952.2,0.0107,-0.1202,134.8,97.0,0.519
40.54,31998.8,35010.8,-0.0073,0.0243,134.8,97.0,0.52
40.56,32063.8,34921.4,0.261,-0.1959,134.8,97.0,0.52
40.58,31978.3,34762.1,-0.092,-0.5885,134.7,97.0,0.521
40.6,31897.3,34692.0,-0.426,-0.7613,134.7,97.0,0.521
40.62,31887.7,34595.2,-0.4658,-0.9998,134.7,97.0,0.522
40.64,31904.9,34693.0,-0.3949,-0.7588,134.7,96.9,0.522
40.66,31853.9,34639.8,-0.6051,-0.8899,134.7,96.9,0.523
40.68,31830.5,34607.3,-0.7018,-0.97,134.6,96.9,0.523
40.7,31739.1,34612.4,-1.0787,-0.9573,134.6,96.9,0.524
40.72,31784.3,34509.5,-0.8924,-1.2109,134.6,96.9,0.524
40.74,31704.3,34525.4,-1.2223,-1.1718,134.6,96.9,0.525
40.76,31760.5,34506.3,-0.9904,-1.2188,134.6,96.9,0.525
40.78,31883.5,34902.7,-0.4832,-0.2422,134.5,96.9,0.526
40.8,32130.8,35240.5,0.5376,0.5902,134.5,96.8,0.526
40.82,32270.4,35527.8,1.1133,1.2979,134.5,96.8,0.527
40.84,32343.3,35703.2,1.4141,1.7301,134.5,96.8,0.527
40.86,32318.0,35771.7,1.3099,1.8989,134.5,96.8,0.528
40.88,32339.0,35658.5,1.3964,1.6201,134.4,96.8,0.528
40.9,32203.3,35465.0,0.8366,1.1432,134.4,96.8,0.529
40.92,32117.0,35365.2,0.4805,0.8974,134.4,96.8,0.53
40.94,32067.8,35179.6,0.2773,0.4401,134.4,96.7,0.53
40.96,31996.3,35137.8,-0.0178,0.3371,134.4,96.7,0.531
40.98,32026.8,34973.2,0.1084,-0.0684,134.3,96.7,0.531
41.0,31944.9,34969.8,-0.2297,-0.0767,134.3,96.7,0.532
41.02,31870.6,34963.3,-0.5362,-0.0927,134.3,96.7,0.532
41.04,31921.1,34829.3,-0.328,-0.423,134.3,96.7,0.533
41.06,31891.7,34700.0,-0.4492,-0.7415,134.3,96.7,0.533
41.08,31813.8,34626.7,-0.7705,-0.922,134.2,96.7,0.534
41.1,31946.6,34573.2,-0.2225,-1.054,134.2,96.6,0.534
41.12,31834.5,34598.0,-0.6853,-0.9929,134.2,96.6,0.535
41.14,31759.8,34525.8,-0.9936,-1.1708,134.2,96.6,0.535
41.16,31678.5,34437.6,-1.329,-1.3881,134.2,96.6,0.536
41.18,31690.3,34493.6,-1.2801,-1.25,134.1,96.6,0.536
41.2,31795.3,34564.1,-0.8471,-1.0764,134.1,96.6,0.537
41.22,31905.8,34788.9,-0.3908,-0.5226,134.1,96.6,0.537
41.24,32015.2,35098.2,0.0604,0.2395,134.1,96.6,0.538
41.26,32276.3,35527.7,1.1378,1.2977,134.1,96.5,0.538
41.28,32357.1,35629.4,1.4711,1.5484,134.0,96.5,0.539
41.3,32432.5,35730.4,1.7821,1.7971,134.0,96.5,0.539
41.32,32313.7,35673.6,1.2919,1.6573,134.0,96.5,0.54
41.34,32217.4,35483.7,0.8945,1.1894,134.0,96.5,0.54
41.36,32130.7,35226.9,0.5371,0.5566,134.0,96.5,0.541
41.38,32137.5,35204.5,0.565,0.5013,133.9,96.5,0.541
41.4,32048.1,35021.6,0.196,0.0508,133.9,96.5,0.542
41.42,32034.0,35069.3,0.138,0.1682,133.9,96.4,0.542
41.44,32049.4,34972.6,0.2015,-0.07,133.9,96.4,0.543
41.46,31967.7,34917.6,-0.1356,-0.2055,133.9,96.4,0.543
41.48,31952.2,34776.3,-0.1996,-0.5535,133.8,96.4,0.544
41.5,31856.9,34791.9,-0.5929,-0.5151,133.8,96.4,0.544
41.52,31740.9,34689.3,-1.0713,-0.7679,133.8,96.4,0.545
41.54,31803.4,34702.8,-0.8136,-0.7346,133.8,96.4,0.545
41.56,31817.4,34664.2,-0.7558,-0.8296,133.8,96.4,0.546
41.58,31779.0,34563.1,-0.9142,-1.0787,133.7,96.3,0.546
41.6,31764.8,34452.4,-0.973,-1.3515,133.7,96.3,0.547
41.62,31707.0,34425.9,-1.2112,-1.4169,133.7,96.3,0.547
41.64,31845.0,34444.8,-0.6419,-1.3702,133.7,96.3,0.548
41.66,31846.7,34658.9,-0.6351,-0.8428,133.7,96.3,0.548
41.68,32061.0,34895.2,0.2494,-0.2605,133.6,96.3,0.549
41.7,32156.4,35335.1,0.643,0.8233,133.6,96.3,0.549
41.72,32278.3,35629.6,1.1459,1.5489,133.6,96.3,0.55
41.74,32421.7,35801.7,1.7376,1.9727,133.6,96.2,0.55
41.76,32356.5,35707.7,1.4687,1.7413,133.6,96.2,0.551
41.78,32236.7,35543.1,0.9743,1.3358,133.5,96.2,0.551
41.8,32200.5,35419.2,0.825,1.0305,133.5,96.2,0.552
41.82,32133.4,35263.8,0.5481,0.6475,133.5,96.2,0.552
41.84,31995.7,35199.3,-0.0201,0.4885,133.5,96.2,0.553
41.86,32039.3,35109.3,0.1597,0.2668,133.5,96.2,0.553
41.88,31995.9,35000.0,-0.0193,-0.0024,133.4,96.2,0.554
41.9,31927.4,34947.9,-0.3018,-0.1307,133.4,96.1,0.554
41.92,31962.9,34844.7,-0.1553,-0.3849,133.4,96.1,0.555
41.94,31819.2,34867.2,-0.7484,-0.3297,133.4,96.1,0.555
41.96,31802.6,34727.2,-0.817,-0.6746,133.4,96.1,0.556
41.98,31877.0,34674.6,-0.5099,-0.8041,133.3,96.1,0.556
42.0,31857.5,34706.5,-0.5901,-0.7256,133.3,96.1,0.557
42.02,31744.8,34706.1,-1.0555,-0.7264,133.3,96.1,0.558
42.04,31829.1,34572.8,-0.7073,-1.0548,133.3,96.0,0.558
42.06,31762.2,34442.7,-0.9837,-1.3755,133.3,96.0,0.559
42.08,31704.1,34440.5,-1.2232,-1.381,133.2,96.0,0.559
42.1,31691.8,34561.1,-1.2739,-1.0838,133.2,96.0,0.56
42.12,31881.4,34830.0,-0.4917,-0.4213,133.2,96.0,0.56
42.14,32059.6,35102.0,0.2437,0.2489,133.2,96.0,0.561
42.16,32222.0,35418.0,0.9138,1.0275,133.2,96.0,0.561
42.18,32280.0,35614.3,1.1532,1.511,133.1,96.0,0.562
42.2,32421.3,35735.2,1.7359,1.809,133.1,95.9,0.562
42.22,32298.2,35611.8,1.2283,1.505,133.1,95.9,0.563
42.24,32337.3,35466.4,1.3893,1.1466,133.1,95.9,0.563
42.26,32119.5,35330.1,0.4907,0.811,133.1,95.9,0.564
42.28,32122.4,35173.5,0.5027,0.4251,133.0,95.9,0.564
42.3,32009.1,35092.8,0.035,0.2261,133.0,95.9,0.565
42.32,32016.5,35001.3,0.0658,0.0009,133.0,95.9,0.565
42.34,32021.7,35049.3,0.0871,0.1192,133.0,95.9,0.566
42.36,31929.1,35009.3,-0.2949,0.0206,133.0,95.8,0.566
42.38,31849.0,34862.4,-0.6252,-0.3414,132.9,95.8,0.567
42.4,31819.5,34683.4,-0.7473,-0.7824,132.9,95.8,0.567
42.42,31865.3,34736.9,-0.558,-0.6507,132.9,95.8,0.568
42.44,31852.3,34582.2,-0.6118,-1.0317,132.9,95.8,0.568
42.46,31792.2,34631.4,-0.8596,-0.9105,132.9,95.8,0.569
42.48,31834.7,34627.5,-0.6846,-0.9202,132.8,95.8,0.569
42.5,31820.3,34601.0,-0.7438,-0.9853,132.8,95.8,0.57
42.52,31755.0,34408.3,-1.0131,-1.4601,132.8,95.7,0.57
42.54,31702.7,34495.4,-1.2292,-1.2457,132.8,95.7,0.571
42.56,31847.3,34580.9,-0.6322,-1.0348,132.8,95.7,0.571
42.58,31983.3,34889.0,-0.0712,-0.2759,132.7,95.7,0.572
42.6,32070.0,35313.7,0.2867,0.7705,132.7,95.7,0.572
42.62,32314.0,35449.3,1.2934,1.1047,132.7,95.7,0.573
42.64,32376.1,35807.8,1.5496,1.9879,132.7,95.7,0.573
42.66,32268.8,35714.1,1.107,1.7569,132.7,95.7,0.574
42.68,32271.8,35501.5,1.119,1.2331,132.6,95.6,0.574
42.7,32243.5,35399.3,1.0025,0.9814,132.6,95.6,0.575
42.72,32161.9,35201.0,0.6656,0.4927,132.6,95.6,0.575
42.74,32094.9,35194.7,0.3894,0.4774,132.6,95.6,0.576
42.76,32085.1,35065.0,0.349,0.1577,132.6,95.6,0.576
42.78,31997.4,35110.7,-0.0132,0.2704,132.5,95.6,0.577
42.8,32023.8,35014.4,0.0957,0.0331,132.5,95.6,0.577
42.82,31963.0,34883.9,-0.155,-0.2885,132.5,95.6,0.578
42.84,31926.9,34752.6,-0.3039,-0.612,132.5,95.5,0.578
42.86,31869.8,34745.8,-0.5395,-0.6288,132.5,95.5,0.579
42.88,31839.5,34633.3,-0.6648,-0.9059,132.4,95.5,0.579
42.9,31840.2,34688.2,-0.6615,-0.7706,132.4,95.5,0.58
42.92,31846.9,34628.3,-0.6339,-0.9183,132.4,95.5,0.58
42.94,31781.7,34626.5,-0.903,-0.9226,132.4,95.5,0.581
42.96,31817.3,34472.2,-0.7561,-1.3027,132.4,95.5,0.581
42.98,31661.4,34416.8,-1.3994,-1.4393,132.3,95.5,0.582
43.0,31726.9,34481.9,-1.1292,-1.2788,132.3,95.4,0.582
43.02,31899.2,34773.4,-0.4181,-0.5606,132.3,95.4,0.583
43.04,31992.1,35060.3,-0.0349,0.1462,132.3,95.4,0.583
43.06,32185.4,35339.5,0.7629,0.8341,132.3,95.4,0.584
43.08,32451.0,35688.8,1.8587,1.6946,132.2,95.4,0.584
43.1,32348.1,35809.2,1.4339,1.9912,132.2,95.4,0.585
43.12,32375.9,35749.7,1.5486,1.8448,132.2,95.4,0.586
43.14,32248.3,35601.4,1.0222,1.4792,132.2,95.3,0.586
43.16,32173.9,35336.3,0.7151,0.8263,132.2,95.3,0.587
43.18,32137.7,35322.1,0.566,0.7913,132.1,95.3,0.587
43.2,32040.8,35093.5,0.1659,0.228,132.1,95.3,0.588
43.22,31982.3,35037.3,-0.0755,0.0895,132.1,95.3,0.588
43.24,32065.2,35020.4,0.2665,0.0478,132.1,95.3,0.589
43.26,32000.6,34951.1,0.0003,-0.1228,132.1,95.3,0.589
43.28,31828.9,34840.0,-0.7082,-0.3966,132.0,95.3,0.59
43.3,31903.3,34693.8,-0.4015,-0.7568,132.0,95.2,0.59
43.32,31727.5,34651.0,-1.1269,-0.8622,132.0,95.2,0.591
43.34,31844.0,34659.3,-0.6462,-0.8419,132.0,95.2,0.591
43.36,31931.2,34643.9,-0.2861,-0.8798,132.0,95.2,0.592
43.38,31744.0,34559.3,-1.0586,-1.0881,131.9,95.2,0.592
43.4,31759.8,34583.4,-0.9934,-1.0289,131.9,95.2,0.593
43.42,31706.9,34501.8,-1.2118,-1.2299,131.9,95.2,0.593
43.44,31787.3,34464.6,-0.8798,-1.3216,131.9,95.2,0.594
43.46,31863.2,34610.2,-0.5667,-0.9629,131.9,95.1,0.594
43.48,31961.3,34773.5,-0.1621,-0.5604,131.8,95.1,0.595
43.5,32170.1,35208.2,0.6995,0.5105,131.8,95.1,0.595
43.52,32331.1,35406.3,1.364,0.9988,131.8,95.1,0.596
43.54,32297.6,35576.3,1.2257,1.4175,131.8,95.1,0.596
43.56,32411.6,35744.6,1.6961,1.8321,131.8,95.1,0.597
43.58,32316.9,35680.9,1.3053,1.6752,131.7,95.1,0.597
43.6,32246.7,35598.9,1.0156,1.4731,131.7,95.1,0.598
43.62,32134.0,35289.2,0.5506,0.71,131.7,95.0,0.598
43.64,32126.1,35240.7,0.518,0.5907,131.7,95.0,0.599
43.66,32020.4,35148.2,0.0816,0.3627,131.7,95.0,0.599
43.68,32117.6,35062.1,0.4828,0.1506,131.6,95.0,0.6
43.7,32004.9,35004.1,0.0181,0.0078,131.6,95.0,0.6
43.72,31952.0,34981.4,-0.2004,-0.0481,131.6,95.0,0.601
43.74,31877.7,34763.7,-0.507,-0.5845,131.6,95.0,0.601
43.76,31826.8,34718.3,-0.717,-0.6964,131.6,95.0,0.602
43.78,31891.6,34668.1,-0.4497,-0.8202,131.5,94.9,0.602
43.8,31775.8,34635.6,-0.9274,-0.9002,131.5,94.9,0.603
43.82,31848.4,34638.0,-0.6281,-0.8943,131.5,94.9,0.603
43.84,31762.8,34535.8,-0.9809,-1.146,131.5,94.9,0.604
43.86,31768.3,34553.4,-0.9583,-1.1028,131.5,94.9,0.604
43.88,31680.2,34499.8,-1.3219,-1.2347,131.4,94.9,0.605
43.9,31729.6,34418.4,-1.1181,-1.4354,131.4,94.9,0.605
43.92,31800.6,34629.6,-0.8252,-0.915,131.4,94.9,0.606
43.94,32001.2,34929.0,0.0027,-0.1773,131.4,94.8,0.606
43.96,32159.7,35233.6,0.6566,0.5731,131.4,94.8,0.607
43.98,32271.5,35503.1,1.1178,1.2371,131.3,94.8,0.607
44.0,32436.2,35748.6,1.7977,1.8421,131.3,94.8,0.608
44.02,32406.1,35592.0,1.6735,1.4561,131.3,94.8,0.608
44.04,32406.8,35701.0,1.6763,1.7247,131.3,94.8,0.609
44.06,32222.2,35441.7,0.9143,1.086,131.3,94.8,0.609
44.08,32105.0,35191.0,0.431,0.4681,131.2,94.8,0.61
44.1,32119.0,35201.3,0.4889,0.4935,131.2,94.7,0.61
44.12,32105.8,35133.2,0.4343,0.3258,131.2,94.7,0.611
44.14,32062.4,35068.5,0.2553,0.1663,131.2,94.7,0.611
44.16,31914.4,35017.7,-0.3555,0.0412,131.2,94.7,0.612
44.18,31906.0,34923.1,-0.3901,-0.1919,131.1,94.7,0.612
44.2,31925.5,34851.4,-0.3099,-0.3686,131.1,94.7,0.613
44.22,31834.1,34772.6,-0.6871,-0.5628,131.1,94.7,0.614
44.24,31840.5,34677.5,-0.6606,-0.797,131.1,94.6,0.614
44.26,31898.3,34670.2,-0.4221,-0.8151,131.1,94.6,0.615
44.28,31768.2,34608.2,-0.9587,-0.9677,131.0,94.6,0.615
44.3,31781.4,34639.2,-0.9045,-0.8912,131.0,94.6,0.616
44.32,31772.1,34526.0,-0.9427,-1.1702,131.0,94.6,0.616
44.34,31675.1,34458.6,-1.3429,-1.3363,131.0,94.6,0.617
44.36,31792.1,34455.6,-0.8602,-1.3437,131.0,94.6,0.617
44.38,31795.5,34646.4,-0.846,-0.8736,130.9,94.6,0.618
44.4,32063.6,34948.9,0.2599,-0.1282,130.9,94.5,0.618
44.42,32102.1,35245.5,0.419,0.6025,130.9,94.5,0.619
44.44,32386.8,35539.6,1.5936,1.327,130.9,94.5,0.619
44.46,32372.9,35687.0,1.5363,1.6903,130.9,94.5,0.62
44.48,32491.5,35762.6,2.0256,1.8765,130.8,94.5,0.62
44.5,32436.4,35648.3,1.7984,1.5949,130.8,94.5,0.621
44.52,32258.7,35392.7,1.0651,0.9651,130.8,94.5,0.621
44.54,32158.7,35373.9,0.6527,0.9188,130.8,94.5,0.622
44.56,32096.7,35213.4,0.3968,0.5233,130.8,94.4,0.622
44.58,32086.6,35136.7,0.3548,0.3343,130.7,94.4,0.623
44.6,32055.4,34993.6,0.2261,-0.0181,130.7,94.4,0.623
44.62,31999.6,34942.2,-0.0042,-0.1449,130.7,94.4,0.624
44.64,31877.7,34841.0,-0.507,-0.3941,130.7,94.4,0.624
44.66,31923.1,34757.6,-0.3195,-0.5997,130.7,94.4,0.625
44.68,31820.4,34626.7,-0.7435,-0.922,130.6,94.4,0.625
44.7,31721.3,34762.1,-1.1524,-0.5886,130.6,94.4,0.626
44.72,31867.7,34691.8,-0.5481,-0.7617,130.6,94.3,0.626
44.74,31843.1,34514.4,-0.6499,-1.1987,130.6,94.3,0.627
44.76,31801.7,34669.1,-0.8204,-0.8177,130.6,94.3,0.627
44.78,31612.3,34490.2,-1.6021,-1.2585,130.5,94.3,0.628
44.8,31629.1,34463.6,-1.5328,-1.324,130.5,94.3,0.628
44.82,31775.2,34531.4,-0.9297,-1.157,130.5,94.3,0.629
44.84,31754.4,34646.1,-1.0157,-0.8744,130.5,94.3,0.629
44.86,32021.2,34903.1,0.085,-0.2411,130.5,94.3,0.63
