timestamp,raw_red,raw_ir,filtered_red,filtered_ir,heart_rate,spo2,ac_dc_ratio
0.0,32090.5,35136.6,0.1107,0.1782,136.9,96.9,0.525
0.02,32243.3,35467.1,0.3166,0.5701,136.9,96.9,0.525
0.04,32330.8,35701.0,0.4345,0.8474,136.9,96.9,0.525
0.06,32325.9,35755.3,0.4279,0.9118,136.9,96.9,0.525
0.08,32319.1,35631.2,0.4187,0.7646,136.9,96.9,0.525
0.1,32196.3,35482.7,0.2533,0.5885,136.9,96.9,0.525
0.12,32165.9,35296.3,0.2123,0.3676,136.9,96.9,0.525
0.14,32089.9,35175.4,0.1099,0.2242,136.9,96.9,0.525
0.16,32038.5,35140.4,0.0407,0.1827,136.9,96.9,0.525
0.18,32042.8,35070.8,0.0465,0.1002,136.9,96.9,0.525
0.2,32061.6,34953.1,0.0718,-0.0393,136.9,96.9,0.525
0.22,31938.2,34850.7,-0.0944,-0.1608,136.9,96.9,0.525
0.24,31975.6,34769.1,-0.0441,-0.2576,136.9,96.9,0.525
0.26,31864.1,34757.4,-0.1942,-0.2715,136.9,96.9,0.525
0.28,31874.7,34620.8,-0.18,-0.4335,136.9,96.9,0.525
0.3,31808.1,34626.1,-0.2695,-0.4271,136.9,96.9,0.525
0.32,31911.4,34662.3,-0.1305,-0.3842,136.9,96.9,0.525
0.34,31722.1,34535.6,-0.3855,-0.5344,136.9,96.9,0.525
0.36,31776.6,34437.9,-0.3121,-0.6503,136.9,96.9,0.525
0.38,31760.8,34466.0,-0.3333,-0.6169,136.9,96.9,0.525
0.4,31850.0,34600.1,-0.2132,-0.4579,136.9,96.9,0.525
0.42,31931.6,34934.9,-0.1033,-0.061,136.9,96.9,0.525
0.44,32109.4,35209.0,0.1362,0.264,136.9,96.9,0.525
0.46,32197.9,35461.0,0.2554,0.5628,136.9,96.9,0.525
0.48,32328.2,35735.8,0.4309,0.8887,136.9,96.9,0.525
0.5,32340.2,35748.5,0.4471,0.9037,136.9,96.9,0.525
0.52,32295.5,35693.9,0.3869,0.8391,136.9,96.9,0.525
0.54,32220.9,35398.2,0.2864,0.4884,136.9,96.9,0.525
0.56,32097.6,35190.2,0.1203,0.2418,136.9,96.9,0.525
0.58,32010.6,35145.4,0.0031,0.1886,136.9,96.9,0.525
0.6,32074.8,35144.6,0.0896,0.1877,136.9,96.9,0.525
0.62,32027.3,35001.9,0.0257,0.0185,136.9,96.9,0.525
0.64,31982.3,35005.2,-0.035,0.0224,136.9,96.9,0.525
0.66,31913.7,34916.7,-0.1274,-0.0826,136.9,96.9,0.525
0.68,31972.8,34701.0,-0.0478,-0.3383,136.9,96.9,0.525
0.7,31759.2,34658.8,-0.3355,-0.3884,136.9,96.9,0.525
0.72,31817.9,34663.3,-0.2565,-0.383,136.9,96.9,0.525
0.74,31773.3,34706.6,-0.3165,-0.3317,136.9,96.9,0.525
0.76,31792.4,34658.6,-0.2908,-0.3886,136.9,96.9,0.525
0.78,31752.3,34504.6,-0.3447,-0.5712,136.9,96.9,0.525
0.8,31767.3,34492.1,-0.3245,-0.586,136.9,96.9,0.525
0.82,31661.6,34387.6,-0.4669,-0.71,136.9,96.9,0.525
0.84,31838.7,34597.1,-0.2284,-0.4615,136.9,96.9,0.525
0.86,31952.2,34833.3,-0.0756,-0.1815,136.9,96.9,0.525
0.88,32159.0,35162.0,0.203,0.2083,136.9,96.9,0.525
0.9,32259.2,35475.7,0.338,0.5803,136.9,96.9,0.525
0.92,32308.7,35774.2,0.4047,0.9342,136.9,96.9,0.525
0.94,32245.5,35737.9,0.3195,0.8912,136.9,96.9,0.525
0.96,32171.0,35566.7,0.2192,0.6882,136.9,96.9,0.525
0.98,32171.0,35413.8,0.2191,0.5069,136.9,96.9,0.525
1.0,32083.0,35319.2,0.1006,0.3947,136.9,96.9,0.525
1.02,32052.3,35167.7,0.0593,0.2151,136.9,96.9,0.525
1.04,32053.6,35121.8,0.0611,0.1606,136.9,96.9,0.525
1.06,32026.6,35069.8,0.0247,0.099,136.9,96.9,0.525
1.08,32060.3,34997.8,0.0701,0.0136,136.9,96.9,0.525
1.1,31879.8,34804.8,-0.173,-0.2152,136.9,96.9,0.525
1.12,31863.8,34736.9,-0.1946,-0.2957,136.9,96.9,0.525
1.14,31861.3,34724.3,-0.198,-0.3107,136.9,96.9,0.525
1.16,31838.4,34611.3,-0.2288,-0.4446,136.9,96.9,0.525
1.18,31810.3,34578.2,-0.2666,-0.4839,136.9,96.9,0.525
1.2,31761.1,34624.2,-0.333,-0.4294,136.9,96.9,0.525
1.22,31744.6,34543.9,-0.3552,-0.5246,136.9,96.9,0.525
1.24,31795.0,34475.4,-0.2872,-0.6058,136.9,96.9,0.525
1.26,31681.8,34385.8,-0.4397,-0.7121,136.9,96.9,0.525
1.28,31820.8,34641.4,-0.2525,-0.409,136.9,96.9,0.525
1.3,31875.9,34864.8,-0.1782,-0.1441,136.9,96.9,0.525
1.32,32138.7,35170.8,0.1757,0.2187,136.9,96.9,0.525
1.34,32294.4,35488.8,0.3854,0.5959,136.9,96.9,0.525
1.36,32268.3,35689.1,0.3503,0.8333,136.9,96.9,0.525
1.38,32324.3,35692.7,0.4257,0.8375,136.9,96.9,0.525
1.4,32334.5,35557.2,0.4395,0.677,136.9,96.9,0.525
1.42,32280.8,35401.0,0.3671,0.4917,136.9,96.9,0.525
1.44,32102.8,35363.3,0.1273,0.4471,136.9,96.9,0.525
1.46,32069.4,35216.7,0.0823,0.2732,136.9,96.9,0.525
1.48,32031.4,35009.3,0.0311,0.0273,136.9,96.9,0.525
1.5,31954.2,35057.2,-0.0728,0.084,136.9,96.9,0.525
1.52,32067.8,34952.8,0.0801,-0.0397,136.9,96.9,0.525
1.54,31901.9,34879.0,-0.1433,-0.1273,136.9,96.9,0.525
1.56,31943.5,34813.7,-0.0873,-0.2047,136.9,96.9,0.525
1.58,31844.8,34701.7,-0.2202,-0.3375,136.9,96.9,0.525
1.6,31764.3,34772.2,-0.3286,-0.2539,136.9,96.9,0.525
1.62,31772.5,34662.0,-0.3175,-0.3845,136.9,96.9,0.525
1.64,31780.5,34536.9,-0.3067,-0.5329,136.9,96.9,0.525
1.66,31818.5,34467.1,-0.2556,-0.6156,136.9,96.9,0.525
1.68,31812.3,34489.6,-0.264,-0.589,136.9,96.9,0.525
1.7,31732.9,34496.4,-0.3708,-0.5809,136.9,96.9,0.525
1.72,31890.9,34622.5,-0.158,-0.4314,136.9,96.9,0.525
1.74,31940.2,34950.7,-0.0917,-0.0423,136.9,96.9,0.525
1.76,32177.5,35393.5,0.2279,0.4828,136.9,96.9,0.525
1.78,32379.4,35516.1,0.4999,0.6281,136.9,96.9,0.525
1.8,32367.6,35768.9,0.484,0.928,136.9,96.9,0.525
1.82,32347.7,35724.3,0.4572,0.875,136.9,96.9,0.525
1.84,32301.8,35551.8,0.3954,0.6705,136.9,96.9,0.525
1.86,32037.8,35308.1,0.0398,0.3816,136.9,96.9,0.525
1.88,32100.5,35355.2,0.1243,0.4374,136.9,96.9,0.525
1.9,32132.7,35153.1,0.1676,0.1977,136.9,96.9,0.525
1.92,32128.5,35170.9,0.162,0.2189,136.9,96.9,0.525
1.94,32041.2,35070.7,0.0444,0.1001,136.9,96.9,0.525
1.96,31965.0,35006.7,-0.0583,0.0242,136.9,96.9,0.525
1.98,31880.3,34860.0,-0.1723,-0.1498,136.9,96.9,0.525
2.0,31974.6,34828.5,-0.0453,-0.1871,136.9,96.9,0.525
2.02,31877.9,34662.2,-0.1756,-0.3843,136.9,96.9,0.525
2.04,31809.2,34661.2,-0.2681,-0.3855,136.9,96.9,0.525
2.06,31849.9,34601.8,-0.2133,-0.4559,136.9,96.9,0.525
2.08,31785.1,34617.2,-0.3005,-0.4376,136.9,96.9,0.525
2.1,31703.5,34435.7,-0.4105,-0.6528,136.9,96.9,0.525
2.12,31854.7,34314.5,-0.2069,-0.7966,136.9,96.9,0.525
2.14,31764.8,34550.1,-0.3279,-0.5172,136.9,96.9,0.525
2.16,31855.2,34658.0,-0.2062,-0.3893,136.9,96.9,0.525
2.18,31985.3,34985.1,-0.031,-0.0015,136.9,96.9,0.525
2.2,32138.3,35257.2,0.1752,0.3212,136.9,96.9,0.525
2.22,32342.7,35542.1,0.4504,0.659,136.9,96.9,0.525
2.24,32370.2,35768.0,0.4875,0.9268,136.9,96.9,0.525
2.26,32380.6,35715.9,0.5016,0.8651,136.9,96.9,0.525
2.28,32287.7,35508.9,0.3763,0.6196,136.9,96.9,0.525
2.3,32143.1,35345.2,0.1817,0.4255,136.9,96.9,0.525
2.32,32137.1,35101.9,0.1735,0.1371,136.9,96.9,0.525
2.34,32116.9,35152.8,0.1463,0.1974,136.9,96.9,0.525
2.36,32053.5,35172.1,0.061,0.2203,136.9,96.9,0.525
2.38,32010.0,35076.2,0.0023,0.1065,136.9,96.9,0.525
2.4,31986.7,34964.7,-0.0291,-0.0257,136.9,96.9,0.525
2.42,31940.2,34825.7,-0.0917,-0.1904,136.9,96.9,0.525
2.44,31809.8,34792.2,-0.2674,-0.2301,136.9,96.9,0.525
2.46,31866.1,34728.9,-0.1915,-0.3052,136.9,96.9,0.525
2.48,31803.8,34612.2,-0.2754,-0.4436,136.9,96.9,0.525
2.5,31752.5,34593.8,-0.3445,-0.4654,136.9,96.9,0.525
2.52,31705.4,34720.9,-0.4079,-0.3147,136.9,96.9,0.525
2.54,31735.5,34534.1,-0.3673,-0.5362,136.9,96.9,0.525
2.56,31698.0,34452.2,-0.4179,-0.6333,136.9,96.9,0.525
2.58,31732.3,34593.1,-0.3717,-0.4662,136.9,96.9,0.525
2.6,31949.1,34612.8,-0.0797,-0.4429,136.9,96.9,0.525
2.62,32015.5,34887.7,0.0098,-0.1169,136.9,96.9,0.525
2.64,32201.9,35206.3,0.2609,0.2608,136.9,96.9,0.525
2.66,32323.4,35514.8,0.4244,0.6267,136.9,96.9,0.525
2.68,32301.5,35700.2,0.395,0.8464,136.9,96.9,0.525
2.7,32322.2,35693.2,0.4229,0.8382,136.9,96.9,0.525
2.72,32275.9,35556.3,0.3605,0.6758,136.9,96.9,0.525
2.74,32184.1,35333.4,0.2369,0.4116,136.9,96.9,0.525
2.76,32158.0,35177.4,0.2017,0.2266,136.9,96.9,0.525
2.78,32142.2,35225.7,0.1804,0.2839,136.9,96.9,0.525
2.8,32075.2,35096.4,0.0901,0.1305,136.9,96.9,0.525
2.82,31971.5,34978.6,-0.0495,-0.0092,136.9,96.9,0.525
2.84,31934.3,34929.9,-0.0996,-0.0669,136.9,96.9,0.525
2.86,31916.2,34798.5,-0.1239,-0.2227,136.9,96.9,0.525
2.88,31784.2,34829.8,-0.3018,-0.1856,136.9,96.9,0.525
2.9,31764.9,34606.4,-0.3277,-0.4505,136.9,96.9,0.525
2.92,31816.1,34680.1,-0.2588,-0.3631,136.9,96.9,0.525
2.94,31817.1,34761.4,-0.2575,-0.2667,136.9,96.9,0.525
2.96,31852.9,34625.6,-0.2093,-0.4278,136.9,96.9,0.525
2.98,31762.0,34443.0,-0.3317,-0.6442,136.9,96.9,0.525
3.0,31697.2,34518.8,-0.419,-0.5544,136.9,96.9,0.525
3.02,31701.3,34524.7,-0.4135,-0.5474,136.9,96.9,0.525
3.04,31809.1,34682.8,-0.2682,-0.3599,136.9,96.9,0.525
3.06,31906.4,35025.3,-0.1373,0.0463,136.9,96.9,0.525
3.08,32195.5,35299.2,0.2521,0.3711,136.9,96.9,0.525
3.1,32347.5,35644.9,0.457,0.7809,136.9,96.9,0.525
3.12,32360.7,35723.8,0.4747,0.8744,136.9,96.9,0.525
3.14,32252.6,35709.6,0.3292,0.8576,136.9,96.9,0.525
3.16,32217.8,35561.9,0.2822,0.6824,136.9,96.9,0.525
3.18,32208.7,35310.2,0.27,0.3841,136.9,96.9,0.525
3.2,32066.7,35247.4,0.0787,0.3096,136.9,96.9,0.525
3.22,32054.7,35194.7,0.0625,0.2471,136.9,96.9,0.525
3.24,31983.7,35091.3,-0.0331,0.1245,136.9,96.9,0.525
3.26,32063.6,35074.7,0.0745,0.1048,136.9,96.9,0.525
3.28,31944.8,34945.3,-0.0855,-0.0486,136.9,96.9,0.525
3.3,32014.6,34848.4,0.0085,-0.1635,136.9,96.9,0.525
3.32,31874.0,34707.6,-0.1808,-0.3305,136.9,96.9,0.525
3.34,31826.3,34695.9,-0.2451,-0.3443,136.9,96.9,0.525
3.36,31855.5,34652.4,-0.2058,-0.3959,136.9,96.9,0.525
3.38,31819.6,34637.3,-0.2542,-0.4138,136.9,96.9,0.525
3.4,31793.1,34556.1,-0.2898,-0.5102,136.9,96.9,0.525
3.42,31821.8,34530.6,-0.2511,-0.5404,136.9,96.9,0.525
3.44,31761.7,34483.5,-0.3321,-0.5962,136.9,96.9,0.525
3.46,31768.5,34470.0,-0.3229,-0.6122,136.9,96.9,0.525
3.48,31833.0,34726.8,-0.2361,-0.3077,136.9,96.9,0.525
3.5,32088.8,35063.8,0.1084,0.0918,136.9,96.9,0.525
3.52,32141.6,35465.7,0.1796,0.5684,136.9,96.9,0.525
3.54,32279.8,35589.9,0.3657,0.7157,136.9,96.9,0.525
3.56,32329.8,35728.9,0.4331,0.8804,136.9,96.9,0.525
3.58,32351.3,35725.0,0.462,0.8759,136.9,96.9,0.525
3.6,32300.1,35548.1,0.393,0.6661,136.9,96.9,0.525
3.62,32217.7,35302.8,0.2821,0.3753,136.9,96.9,0.525
3.64,32111.8,35266.8,0.1394,0.3326,136.9,96.9,0.525
3.66,32072.8,35172.9,0.087,0.2212,136.9,96.9,0.525
3.68,31989.4,35041.7,-0.0254,0.0657,136.9,96.9,0.525
3.7,31984.4,35013.6,-0.0322,0.0324,136.9,96.9,0.525
3.72,31994.2,34964.3,-0.019,-0.0261,136.9,96.9,0.525
3.74,31923.5,34810.0,-0.1142,-0.209,136.9,96.9,0.525
3.76,31872.1,34780.0,-0.1834,-0.2446,136.9,96.9,0.525
3.78,31759.2,34740.8,-0.3354,-0.2911,136.9,96.9,0.525
3.8,31873.4,34628.5,-0.1816,-0.4243,136.9,96.9,0.525
3.82,31755.4,34650.8,-0.3405,-0.3978,136.9,96.9,0.525
3.84,31819.4,34624.3,-0.2544,-0.4292,136.9,96.9,0.525
3.86,31827.9,34503.1,-0.2429,-0.573,136.9,96.9,0.525
3.88,31734.7,34442.8,-0.3684,-0.6444,136.9,96.9,0.525
3.9,31836.7,34459.4,-0.231,-0.6247,136.9,96.9,0.525
3.92,31803.7,34693.0,-0.2756,-0.3478,136.9,96.9,0.525
3.94,32064.4,35060.4,0.0756,0.0878,136.9,96.9,0.525
3.96,32167.0,35432.1,0.2138,0.5286,136.9,96.9,0.525
3.98,32270.4,35696.7,0.353,0.8424,136.9,96.9,0.525
4.0,32333.0,35778.3,0.4374,0.9391,136.9,96.9,0.525
4.02,32250.7,35561.8,0.3265,0.6823,136.9,96.9,0.525
4.04,32300.9,35406.7,0.3942,0.4984,136.9,96.9,0.525
4.06,32128.3,35245.3,0.1617,0.307,136.9,96.9,0.525
4.08,32136.2,35213.8,0.1723,0.2697,136.9,96.9,0.525
4.1,32034.9,35164.2,0.0358,0.211,136.9,96.9,0.525
4.12,32034.2,34986.8,0.0349,0.0006,136.9,96.9,0.525
4.14,31927.9,34880.4,-0.1083,-0.1255,136.9,96.9,0.525
4.16,31879.1,34856.3,-0.174,-0.1541,136.9,96.9,0.525
4.18,31888.4,34791.8,-0.1615,-0.2307,136.9,96.9,0.525
4.2,31957.4,34750.6,-0.0685,-0.2795,136.9,96.9,0.525
4.22,31859.1,34673.9,-0.2009,-0.3705,136.9,96.9,0.525
4.24,31828.7,34667.0,-0.2419,-0.3786,136.9,96.9,0.525
4.26,31905.4,34759.9,-0.1385,-0.2684,136.9,96.9,0.525
4.28,31826.8,34642.4,-0.2444,-0.4078,136.9,96.9,0.525
4.3,31763.0,34442.5,-0.3303,-0.6448,136.9,96.9,0.525
4.32,31773.1,34408.3,-0.3167,-0.6853,136.9,96.9,0.525
4.34,31747.0,34515.7,-0.3519,-0.558,136.9,96.9,0.525
4.36,31823.3,34800.3,-0.2491,-0.2205,136.9,96.9,0.525
4.38,32030.0,35039.3,0.0292,0.0628,136.9,96.9,0.525
4.4,32287.7,35376.5,0.3763,0.4626,136.9,96.9,0.525
4.42,32336.9,35702.7,0.4427,0.8495,136.9,96.9,0.525
4.44,32293.4,35765.0,0.3841,0.9233,136.9,96.9,0.525
4.46,32378.8,35588.2,0.4991,0.7137,136.9,96.9,0.525
4.48,32324.0,35512.0,0.4253,0.6233,136.9,96.9,0.525
4.5,32204.5,35288.7,0.2643,0.3586,136.9,96.9,0.525
4.52,32018.7,35154.2,0.014,0.1991,136.9,96.9,0.525
4.54,32021.4,35021.4,0.0177,0.0416,136.9,96.9,0.525
4.56,32053.2,35152.7,0.0605,0.1973,136.9,96.9,0.525
4.58,32056.1,34946.7,0.0644,-0.047,136.9,96.9,0.525
4.6,32010.3,34848.1,0.0027,-0.1639,136.9,96.9,0.525
4.62,31855.0,34746.2,-0.2064,-0.2847,136.9,96.9,0.525
4.64,31868.5,34751.0,-0.1883,-0.2791,136.9,96.9,0.525
4.66,31834.0,34720.2,-0.2347,-0.3155,136.9,96.9,0.525
4.68,31863.0,34621.0,-0.1956,-0.4332,136.9,96.9,0.525
4.7,31763.2,34684.8,-0.3301,-0.3575,136.9,96.9,0.525
4.72,31838.2,34553.1,-0.2291,-0.5136,136.9,96.9,0.525
4.74,31735.2,34442.1,-0.3678,-0.6452,136.9,96.9,0.525
4.76,31745.5,34442.0,-0.3539,-0.6454,136.9,96.9,0.525
4.78,31741.0,34643.1,-0.36,-0.407,136.9,96.9,0.525
4.8,31831.2,34783.6,-0.2385,-0.2404,136.9,96.9,0.525
4.82,32121.3,35125.8,0.1522,0.1654,136.9,96.9,0.525
4.84,32193.2,35448.7,0.249,0.5483,136.9,96.9,0.525
4.86,32356.9,35695.7,0.4696,0.8411,136.9,96.9,0.525
4.88,32403.8,35677.0,0.5327,0.8189,136.9,96.9,0.525
4.9,32302.9,35719.9,0.3969,0.8698,136.9,96.9,0.525
4.92,32310.9,35549.9,0.4076,0.6682,136.9,96.9,0.525
4.94,32247.6,35213.2,0.3223,0.269,136.9,96.9,0.525
4.96,32131.2,35153.4,0.1656,0.1981,136.9,96.9,0.525
4.98,32019.7,35130.5,0.0154,0.171,136.9,96.9,0.525
5.0,32047.6,35054.1,0.053,0.0803,136.9,96.9,0.525
5.02,32024.3,35004.6,0.0216,0.0217,136.9,96.9,0.525
5.04,31980.6,34897.6,-0.0372,-0.1052,136.9,96.9,0.525
5.06,31842.7,34801.8,-0.223,-0.2188,136.9,96.9,0.525
5.08,31836.3,34712.3,-0.2316,-0.325,136.9,96.9,0.525
5.1,31798.5,34633.5,-0.2825,-0.4184,136.9,96.9,0.525
5.12,31809.6,34682.4,-0.2676,-0.3604,136.9,96.9,0.525
5.14,31829.2,34662.1,-0.2412,-0.3845,136.9,96.9,0.525
5.16,31834.5,34585.5,-0.2341,-0.4753,136.9,96.9,0.525
5.18,31732.8,34468.2,-0.3711,-0.6143,136.9,96.9,0.525
5.2,31824.3,34441.0,-0.2478,-0.6466,136.9,96.9,0.525
5.22,31718.3,34667.6,-0.3906,-0.3779,136.9,96.9,0.525
5.24,31910.0,34784.6,-0.1323,-0.2391,136.9,96.9,0.525
5.26,32143.7,35116.5,0.1824,0.1544,136.9,96.9,0.525
5.28,32250.4,35477.9,0.3261,0.5829,136.9,96.9,0.525
5.3,32347.6,35683.4,0.4571,0.8266,136.9,96.9,0.525
5.32,32346.0,35814.6,0.4548,0.9821,136.9,96.9,0.525
5.34,32377.1,35595.8,0.4968,0.7227,136.9,96.9,0.525
5.36,32224.0,35466.4,0.2906,0.5693,136.9,96.9,0.525
5.38,32191.2,35314.1,0.2465,0.3887,136.9,96.9,0.525
5.4,32070.4,35186.4,0.0836,0.2373,136.9,96.9,0.525
5.42,31968.9,35047.5,-0.053,0.0725,136.9,96.9,0.525
5.44,32129.9,35027.2,0.1638,0.0485,136.9,96.9,0.525
5.46,32005.5,34942.9,-0.0037,-0.0515,136.9,96.9,0.525
5.48,31916.2,34875.0,-0.124,-0.132,136.9,96.9,0.525
5.5,31893.5,34666.0,-0.1546,-0.3798,136.9,96.9,0.525
5.52,31861.2,34705.6,-0.1981,-0.3328,136.9,96.9,0.525
5.54,31821.9,34709.0,-0.251,-0.3289,136.9,96.9,0.525
5.56,31824.7,34621.0,-0.2473,-0.4332,136.9,96.9,0.525
5.58,31817.9,34621.2,-0.2564,-0.4329,136.9,96.9,0.525
5.6,31763.9,34506.0,-0.3291,-0.5695,136.9,96.9,0.525
5.62,31764.9,34550.0,-0.3278,-0.5173,136.9,96.9,0.525
5.64,31701.1,34351.2,-0.4137,-0.753,136.9,96.9,0.525
5.66,31897.2,34571.9,-0.1496,-0.4913,136.9,96.9,0.525
5.68,32001.7,34845.5,-0.0089,-0.167,136.9,96.9,0.525
5.7,32050.6,35232.9,0.057,0.2923,136.9,96.9,0.525
5.72,32243.1,35501.9,0.3162,0.6113,136.9,96.9,0.525
5.74,32268.3,35771.5,0.3502,0.9311,136.9,96.9,0.525
5.76,32377.1,35847.3,0.4968,1.0209,136.9,96.9,0.525
5.78,32316.7,35620.1,0.4155,0.7515,136.9,96.9,0.525
5.8,32167.8,35451.5,0.2148,0.5516,136.9,96.9,0.525
5.82,32054.3,35288.5,0.062,0.3583,136.9,96.9,0.525
5.84,32082.8,35160.9,0.1004,0.207,136.9,96.9,0.525
5.86,32038.7,35072.8,0.041,0.1026,136.9,96.9,0.525
5.88,31982.2,35040.0,-0.0352,0.0636,136.9,96.9,0.525
5.9,32023.2,34955.7,0.0202,-0.0363,136.9,96.9,0.525
5.92,31884.1,34905.5,-0.1672,-0.0959,136.9,96.9,0.525
5.94,31867.8,34679.6,-0.1892,-0.3637,136.9,96.9,0.525
5.96,31779.6,34633.7,-0.308,-0.4181,136.9,96.9,0.525
5.98,31860.5,34648.7,-0.199,-0.4004,136.9,96.9,0.525
6.0,31796.8,34680.8,-0.2848,-0.3623,136.9,96.9,0.525
6.02,31845.0,34563.7,-0.2199,-0.5011,136.9,96.9,0.525
6.04,31776.4,34547.9,-0.3123,-0.5199,136.9,96.9,0.525
6.06,31726.0,34458.1,-0.3802,-0.6263,136.9,96.9,0.525
6.08,31787.0,34471.9,-0.298,-0.61,136.9,96.9,0.525
6.1,31769.6,34637.6,-0.3214,-0.4135,136.9,96.9,0.525
6.12,31921.7,34903.7,-0.1166,-0.0979,136.9,96.9,0.525
6.14,32130.3,35243.4,0.1644,0.3048,136.9,96.9,0.525
6.16,32301.6,35542.1,0.3951,0.659,136.9,96.9,0.525
6.18,32319.5,35718.8,0.4193,0.8685,136.9,96.9,0.525
6.2,32284.8,35771.9,0.3725,0.9314,136.9,96.9,0.525
6.22,32321.8,35666.8,0.4223,0.8069,136.9,96.9,0.525
6.24,32214.0,35450.4,0.2771,0.5503,136.9,96.9,0.525
6.26,32059.2,35270.6,0.0686,0.3371,136.9,96.9,0.525
6.28,32049.4,35116.2,0.0554,0.154,136.9,96.9,0.525
6.3,32008.4,35072.3,0.0001,0.102,136.9,96.9,0.525
6.32,32105.3,35095.0,0.1306,0.1289,136.9,96.9,0.525
6.34,31917.2,34939.7,-0.1227,-0.0552,136.9,96.9,0.525
6.36,31930.4,34859.1,-0.1049,-0.1508,136.9,96.9,0.525
6.38,31894.0,34862.8,-0.1539,-0.1465,136.9,96.9,0.525
6.4,31815.2,34763.7,-0.2601,-0.264,136.9,96.9,0.525
6.42,31836.3,34588.1,-0.2317,-0.4722,136.9,96.9,0.525
6.44,31889.9,34632.3,-0.1594,-0.4197,136.9,96.9,0.525
6.46,31849.3,34582.9,-0.2142,-0.4784,136.9,96.9,0.525
6.48,31778.5,34584.1,-0.3095,-0.4769,136.9,96.9,0.525
6.5,31771.9,34472.9,-0.3184,-0.6087,136.9,96.9,0.525
6.52,31702.9,34510.6,-0.4113,-0.5641,136.9,96.9,0.525
6.54,31761.4,34584.7,-0.3326,-0.4762,136.9,96.9,0.525
6.56,32039.4,34897.6,0.042,-0.1052,136.9,96.9,0.525
6.58,32039.9,35209.6,0.0427,0.2648,136.9,96.9,0.525
6.6,32264.7,35509.2,0.3454,0.62,136.9,96.9,0.525
6.62,32329.5,35706.8,0.4327,0.8543,136.9,96.9,0.525
6.64,32386.8,35753.6,0.5099,0.9098,136.9,96.9,0.525
6.66,32292.4,35527.0,0.3827,0.6412,136.9,96.9,0.525
6.68,32249.9,35413.1,0.3255,0.5061,136.9,96.9,0.525
6.7,32124.7,35250.9,0.1568,0.3137,136.9,96.9,0.525
6.72,32090.4,35127.4,0.1106,0.1673,136.9,96.9,0.525
6.74,32083.3,35087.7,0.101,0.1202,136.9,96.9,0.525
6.76,31972.5,35089.7,-0.0481,0.1225,136.9,96.9,0.525
6.78,32057.4,34888.0,0.0662,-0.1166,136.9,96.9,0.525
6.8,31929.1,34836.5,-0.1067,-0.1776,136.9,96.9,0.525
6.82,31901.6,34785.1,-0.1436,-0.2385,136.9,96.9,0.525
6.84,31876.0,34645.0,-0.1782,-0.4047,136.9,96.9,0.525
6.86,31874.4,34663.7,-0.1804,-0.3826,136.9,96.9,0.525
6.88,31778.1,34674.2,-0.3101,-0.37,136.9,96.9,0.525
6.9,31766.4,34723.2,-0.3258,-0.3119,136.9,96.9,0.525
6.92,31742.5,34467.8,-0.358,-0.6148,136.9,96.9,0.525
6.94,31666.0,34372.4,-0.461,-0.7279,136.9,96.9,0.525
6.96,31742.3,34415.5,-0.3582,-0.6768,136.9,96.9,0.525
6.98,31831.5,34611.6,-0.238,-0.4443,136.9,96.9,0.525
7.0,31967.0,34842.8,-0.0555,-0.1702,136.9,96.9,0.525
7.02,32153.2,35239.7,0.1952,0.3005,136.9,96.9,0.525
7.04,32298.5,35686.4,0.3909,0.8302,136.9,96.9,0.525
7.06,32350.7,35666.6,0.4612,0.8066,136.9,96.9,0.525
7.08,32360.1,35764.7,0.4738,0.9229,136.9,96.9,0.525
7.1,32259.3,35520.3,0.3381,0.6332,136.9,96.9,0.525
7.12,32263.1,35469.3,0.3432,0.5727,136.9,96.9,0.525
7.14,32151.5,35282.1,0.1929,0.3507,136.9,96.9,0.525
7.16,32035.7,35183.8,0.037,0.2342,136.9,96.9,0.525
7.18,31998.2,35139.3,-0.0135,0.1814,136.9,96.9,0.525
7.2,32029.3,35074.8,0.0284,0.1049,136.9,96.9,0.525
7.22,31918.5,34995.5,-0.1209,0.0109,136.9,96.9,0.525
7.24,31962.4,34817.0,-0.0618,-0.2008,136.9,96.9,0.525
7.26,31791.8,34823.7,-0.2915,-0.1928,136.9,96.9,0.525
7.28,31856.9,34648.9,-0.2039,-0.4001,136.9,96.9,0.525
7.3,31794.9,34733.0,-0.2874,-0.3004,136.9,96.9,0.525
7.32,31906.4,34617.7,-0.1372,-0.4371,136.9,96.9,0.525
7.34,31800.9,34620.3,-0.2794,-0.434,136.9,96.9,0.525
7.36,31721.7,34535.5,-0.386,-0.5345,136.9,96.9,0.525
7.38,31823.1,34354.6,-0.2495,-0.749,136.9,96.9,0.525
7.4,31769.2,34484.7,-0.322,-0.5948,136.9,96.9,0.525
7.42,31815.8,34686.8,-0.2593,-0.3552,136.9,96.9,0.525
7.44,32019.9,34963.2,0.0156,-0.0274,136.9,96.9,0.525
7.46,32115.6,35421.2,0.1446,0.5156,136.9,96.9,0.525
7.48,32253.0,35659.5,0.3297,0.7982,136.9,96.9,0.525
7.5,32403.9,35849.1,0.5329,1.023,136.9,96.9,0.525
7.52,32304.6,35695.1,0.3992,0.8404,136.9,96.9,0.525
7.54,32334.5,35652.6,0.4394,0.79,136.9,96.9,0.525
7.56,32194.5,35378.5,0.2508,0.465,136.9,96.9,0.525
7.58,32089.4,35232.5,0.1093,0.2919,136.9,96.9,0.525
7.6,32041.8,35146.2,0.0452,0.1896,136.9,96.9,0.525
7.62,32001.6,35078.3,-0.009,0.109,136.9,96.9,0.525
7.64,31996.5,35018.3,-0.0159,0.0379,136.9,96.9,0.525
7.66,31944.5,34894.9,-0.0859,-0.1084,136.9,96.9,0.525
7.68,31932.4,34826.9,-0.1022,-0.189,136.9,96.9,0.525
7.7,31929.5,34696.8,-0.1061,-0.3433,136.9,96.9,0.525
7.72,31796.9,34640.4,-0.2847,-0.4102,136.9,96.9,0.525
7.74,31875.9,34693.3,-0.1783,-0.3474,136.9,96.9,0.525
7.76,31845.1,34729.0,-0.2197,-0.3051,136.9,96.9,0.525
7.78,31827.0,34620.6,-0.2441,-0.4336,136.9,96.9,0.525
7.8,31718.0,34537.0,-0.3909,-0.5328,136.9,96.9,0.525
7.82,31706.6,34469.3,-0.4063,-0.6131,136.9,96.9,0.525
7.84,31681.6,34477.7,-0.44,-0.6031,136.9,96.9,0.525
7.86,31792.7,34687.4,-0.2903,-0.3545,136.9,96.9,0.525
7.88,31983.3,34989.2,-0.0337,0.0034,136.9,96.9,0.525
7.9,32238.6,35347.2,0.3102,0.4279,136.9,96.9,0.525
7.92,32266.9,35647.5,0.3484,0.784,136.9,96.9,0.525
7.94,32388.2,35697.1,0.5117,0.8428,136.9,96.9,0.525
7.96,32357.6,35734.7,0.4705,0.8874,136.9,96.9,0.525
7.98,32264.6,35536.5,0.3453,0.6523,136.9,96.9,0.525
8.0,32206.8,35312.5,0.2674,0.3867,136.9,96.9,0.525
8.02,32125.9,35181.2,0.1584,0.2311,136.9,96.9,0.525
8.04,32084.0,35166.2,0.102,0.2133,136.9,96.9,0.525
8.06,32118.3,35094.6,0.1482,0.1284,136.9,96.9,0.525
8.08,32038.3,34996.8,0.0404,0.0124,136.9,96.9,0.525
8.1,31949.1,34903.4,-0.0798,-0.0983,136.9,96.9,0.525
8.12,31910.6,34848.1,-0.1316,-0.1638,136.9,96.9,0.525
8.14,31888.9,34740.6,-0.1607,-0.2914,136.9,96.9,0.525
8.16,31821.8,34687.3,-0.2512,-0.3546,136.9,96.9,0.525
8.18,31853.6,34579.9,-0.2083,-0.4819,136.9,96.9,0.525
8.2,31837.4,34667.9,-0.2301,-0.3776,136.9,96.9,0.525
8.22,31809.1,34710.7,-0.2682,-0.3268,136.9,96.9,0.525
8.24,31789.7,34516.7,-0.2944,-0.5568,136.9,96.9,0.525
8.26,31751.2,34481.8,-0.3462,-0.5982,136.9,96.9,0.525
8.28,31678.0,34542.4,-0.4449,-0.5263,136.9,96.9,0.525
8.3,31920.6,34677.9,-0.1181,-0.3657,136.9,96.9,0.525
8.32,32061.2,35118.9,0.0713,0.1572,136.9,96.9,0.525
8.34,32146.9,35390.0,0.1867,0.4786,136.9,96.9,0.525
8.36,32247.5,35581.1,0.3223,0.7053,136.9,96.9,0.525
8.38,32328.1,35756.3,0.4308,0.913,136.9,96.9,0.525
8.4,32319.2,35742.1,0.4188,0.8962,136.9,96.9,0.525
8.42,32214.3,35521.5,0.2774,0.6346,136.9,96.9,0.525
8.44,32159.6,35270.3,0.2039,0.3367,136.9,96.9,0.525
8.46,31996.6,35106.6,-0.0158,0.1427,136.9,96.9,0.525
8.48,32098.2,35192.0,0.1211,0.2439,136.9,96.9,0.525
8.5,32051.6,35068.6,0.0583,0.0976,136.9,96.9,0.525
8.52,32037.7,34966.8,0.0397,-0.0232,136.9,96.9,0.525
8.54,31962.6,34894.9,-0.0615,-0.1083,136.9,96.9,0.525
8.56,31910.3,34866.6,-0.132,-0.142,136.9,96.9,0.525
8.58,31897.6,34694.2,-0.1491,-0.3463,136.9,96.9,0.525
8.6,31822.3,34687.1,-0.2504,-0.3548,136.9,96.9,0.525
8.62,31852.2,34598.9,-0.2103,-0.4593,136.9,96.9,0.525
8.64,31921.5,34626.7,-0.1169,-0.4265,136.9,96.9,0.525
8.66,31760.5,34606.9,-0.3337,-0.4499,136.9,96.9,0.525
8.68,31671.5,34448.7,-0.4535,-0.6375,136.9,96.9,0.525
8.7,31707.9,34491.5,-0.4046,-0.5867,136.9,96.9,0.525
8.72,31804.6,34581.0,-0.2744,-0.4806,136.9,96.9,0.525
8.74,31796.8,34740.6,-0.2849,-0.2914,136.9,96.9,0.525
8.76,32063.9,34968.8,0.0749,-0.0208,136.9,96.9,0.525
8.78,32122.2,35464.1,0.1535,0.5665,136.9,96.9,0.525
8.8,32244.9,35745.1,0.3187,0.8998,136.9,96.9,0.525
8.82,32361.9,35735.9,0.4763,0.8889,136.9,96.9,0.525
8.84,32332.9,35781.2,0.4373,0.9426,136.9,96.9,0.525
8.86,32234.7,35554.2,0.305,0.6733,136.9,96.9,0.525
8.88,32177.5,35260.4,0.2279,0.325,136.9,96.9,0.525
8.9,31999.2,35252.2,-0.0122,0.3152,136.9,96.9,0.525
8.92,32144.8,35102.2,0.1839,0.1374,136.9,96.9,0.525
8.94,32033.7,35058.0,0.0342,0.085,136.9,96.9,0.525
8.96,32026.6,35035.8,0.0247,0.0587,136.9,96.9,0.525
8.98,31947.2,34934.3,-0.0823,-0.0616,136.9,96.9,0.525
9.0,31953.2,34879.4,-0.0742,-0.1267,136.9,96.9,0.525
9.02,31788.1,34663.3,-0.2965,-0.383,136.9,96.9,0.525
9.04,31821.5,34673.1,-0.2516,-0.3713,136.9,96.9,0.525
9.06,31873.0,34554.1,-0.1822,-0.5125,136.9,96.9,0.525
9.08,31869.8,34647.0,-0.1866,-0.4024,136.9,96.9,0.525
9.1,31785.8,34591.5,-0.2997,-0.4681,136.9,96.9,0.525
9.12,31801.3,34511.0,-0.2788,-0.5636,136.9,96.9,0.525
9.14,31772.1,34436.2,-0.3181,-0.6523,136.9,96.9,0.525
9.16,31833.2,34492.1,-0.2359,-0.586,136.9,96.9,0.525
9.18,31934.9,34679.3,-0.0988,-0.364,136.9,96.9,0.525
9.2,31928.2,35180.3,-0.1078,0.23,136.9,96.9,0.525
9.22,32189.0,35378.7,0.2434,0.4652,136.9,96.9,0.525
9.24,32282.8,35683.8,0.3698,0.8271,136.9,96.9,0.525
9.26,32359.7,35775.7,0.4734,0.936,136.9,96.9,0.525
9.28,32354.7,35664.8,0.4666,0.8045,136.9,96.9,0.525
9.3,32232.2,35522.1,0.3016,0.6353,136.9,96.9,0.525
9.32,32143.4,35250.4,0.182,0.3132,136.9,96.9,0.525
9.34,32144.4,35161.1,0.1834,0.2072,136.9,96.9,0.525
9.36,32055.2,35121.7,0.0633,0.1605,136.9,96.9,0.525
9.38,32047.5,35169.3,0.0528,0.2169,136.9,96.9,0.525
9.4,32021.2,34990.0,0.0174,0.0044,136.9,96.9,0.525
9.42,31950.7,34987.4,-0.0775,0.0013,136.9,96.9,0.525
9.44,31825.9,34830.8,-0.2456,-0.1844,136.9,96.9,0.525
9.46,31899.3,34747.8,-0.1468,-0.2828,136.9,96.9,0.525
9.48,31896.3,34708.2,-0.1508,-0.3298,136.9,96.9,0.525
9.5,31865.5,34625.8,-0.1923,-0.4274,136.9,96.9,0.525
9.52,31797.9,34613.7,-0.2834,-0.4418,136.9,96.9,0.525
9.54,31809.6,34584.2,-0.2676,-0.4768,136.9,96.9,0.525
9.56,31691.5,34473.3,-0.4267,-0.6082,136.9,96.9,0.525
9.58,31789.7,34421.7,-0.2944,-0.6695,136.9,96.9,0.525
9.6,31823.2,34528.6,-0.2492,-0.5428,136.9,96.9,0.525
9.62,31895.6,34792.5,-0.1517,-0.2298,136.9,96.9,0.525
9.64,32053.6,35090.2,0.061,0.1232,136.9,96.9,0.525
9.66,32282.4,35443.2,0.3692,0.5418,136.9,96.9,0.525
9.68,32362.2,35741.2,0.4768,0.895,136.9,96.9,0.525
9.7,32327.3,35730.2,0.4297,0.8821,136.9,96.9,0.525
9.72,32155.1,35574.4,0.1978,0.6974,136.9,96.9,0.525
9.74,32160.8,35432.6,0.2054,0.5291,136.9,96.9,0.525
9.76,32139.8,35228.2,0.1772,0.2869,136.9,96.9,0.525
9.78,32011.0,35028.7,0.0037,0.0503,136.9,96.9,0.525
9.8,32018.9,35102.5,0.0143,0.1378,136.9,96.9,0.525
9.82,32053.2,35036.4,0.0605,0.0594,136.9,96.9,0.525
9.84,32005.6,35001.7,-0.0036,0.0183,136.9,96.9,0.525
9.86,31956.5,34935.2,-0.0697,-0.0606,136.9,96.9,0.525
9.88,31903.0,34689.0,-0.1417,-0.3525,136.9,96.9,0.525
9.9,31801.5,34657.8,-0.2785,-0.3895,136.9,96.9,0.525
9.92,31872.0,34754.2,-0.1835,-0.2752,136.9,96.9,0.525
9.94,31780.2,34769.1,-0.3072,-0.2575,136.9,96.9,0.525
9.96,31754.7,34676.7,-0.3415,-0.3672,136.9,96.9,0.525
9.98,31702.0,34652.4,-0.4126,-0.396,136.9,96.9,0.525
10.0,31755.3,34423.4,-0.3408,-0.6675,136.9,96.9,0.525
10.02,31817.0,34447.6,-0.2576,-0.6387,136.9,96.9,0.525
10.04,31780.9,34586.2,-0.3062,-0.4744,136.9,96.9,0.525
10.06,31927.9,34855.1,-0.1083,-0.1556,136.9,96.9,0.525
10.08,32052.4,35269.5,0.0595,0.3358,136.9,96.9,0.525
10.1,32254.0,35405.2,0.331,0.4966,136.9,96.9,0.525
10.12,32285.6,35672.6,0.3736,0.8138,136.9,96.9,0.525
10.14,32328.4,35851.8,0.4312,1.0262,136.9,96.9,0.525
10.16,32284.1,35717.1,0.3716,0.8665,136.9,96.9,0.525
10.18,32222.7,35480.7,0.2888,0.5862,136.9,96.9,0.525
10.2,32142.1,35276.1,0.1802,0.3436,136.9,96.9,0.525
10.22,32070.6,35195.4,0.0839,0.2479,136.9,96.9,0.525
10.24,32012.3,35125.3,0.0055,0.1647,136.9,96.9,0.525
10.26,32063.2,35025.1,0.074,0.046,136.9,96.9,0.525
10.28,32062.8,34969.9,0.0734,-0.0194,136.9,96.9,0.525
10.3,31972.0,34871.2,-0.0488,-0.1365,136.9,96.9,0.525
10.32,31858.7,34814.8,-0.2015,-0.2034,136.9,96.9,0.525
10.34,31832.0,34708.4,-0.2374,-0.3296,136.9,96.9,0.525
10.36,31847.5,34682.1,-0.2166,-0.3607,136.9,96.9,0.525
10.38,31801.9,34687.8,-0.278,-0.3539,136.9,96.9,0.525
10.4,31882.7,34665.3,-0.1691,-0.3806,136.9,96.9,0.525
10.42,31808.6,34579.6,-0.2689,-0.4822,136.9,96.9,0.525
10.44,31788.6,34448.4,-0.2959,-0.6378,136.9,96.9,0.525
10.46,31710.3,34393.7,-0.4013,-0.7026,136.9,96.9,0.525
10.48,31784.2,34657.4,-0.3017,-0.39,136.9,96.9,0.525
10.5,31873.7,34795.2,-0.1812,-0.2266,136.9,96.9,0.525
10.52,32061.1,35176.0,0.0711,0.2249,136.9,96.9,0.525
10.54,32271.9,35483.0,0.355,0.5889,136.9,96.9,0.525
10.56,32384.8,35750.0,0.5072,0.9055,136.9,96.9,0.525
10.58,32353.5,35752.6,0.465,0.9086,136.9,96.9,0.525
10.6,32220.4,35659.3,0.2858,0.7979,136.9,96.9,0.525
10.62,32112.2,35506.7,0.1401,0.6171,136.9,96.9,0.525
10.64,32200.3,35226.9,0.2587,0.2852,136.9,96.9,0.525
10.66,32016.7,35034.8,0.0113,0.0575,136.9,96.9,0.525
10.68,32130.9,35091.1,0.1652,0.1243,136.9,96.9,0.525
10.7,31979.1,35027.5,-0.0393,0.0488,136.9,96.9,0.525
10.72,31997.6,35035.4,-0.0143,0.0582,136.9,96.9,0.525
10.74,31844.0,34826.0,-0.2213,-0.1901,136.9,96.9,0.525
10.76,31913.8,34714.3,-0.1272,-0.3225,136.9,96.9,0.525
10.78,31811.8,34619.0,-0.2646,-0.4355,136.9,96.9,0.525
10.8,31784.5,34627.5,-0.3014,-0.4255,136.9,96.9,0.525
10.82,31828.7,34673.9,-0.2419,-0.3704,136.9,96.9,0.525
10.84,31816.4,34560.1,-0.2584,-0.5054,136.9,96.9,0.525
10.86,31780.4,34530.5,-0.3069,-0.5405,136.9,96.9,0.525
10.88,31796.6,34449.6,-0.2851,-0.6364,136.9,96.9,0.525
10.9,31782.8,34418.2,-0.3036,-0.6737,136.9,96.9,0.525
10.92,31769.1,34585.1,-0.3222,-0.4757,136.9,96.9,0.525
10.94,31928.8,34837.7,-0.107,-0.1762,136.9,96.9,0.525
10.96,32160.8,35222.2,0.2055,0.2797,136.9,96.9,0.525
10.98,32182.2,35521.8,0.2342,0.635,136.9,96.9,0.525
11.0,32345.1,35731.3,0.4536,0.8833,136.9,96.9,0.525
11.02,32477.1,35748.9,0.6315,0.9042,136.9,96.9,0.525
11.04,32327.8,35563.0,0.4303,0.6838,136.9,96.9,0.525
11.06,32288.0,35373.8,0.3768,0.4595,136.9,96.9,0.525
11.08,32118.0,35286.5,0.1478,0.356,136.9,96.9,0.525
11.1,32046.3,35164.5,0.0512,0.2113,136.9,96.9,0.525
11.12,32110.4,34986.4,0.1375,0.0001,136.9,96.9,0.525
11.14,32053.4,35013.5,0.0608,0.0322,136.9,96.9,0.525
11.16,31924.6,34971.2,-0.1127,-0.0179,136.9,96.9,0.525
11.18,31963.4,34841.3,-0.0604,-0.172,136.9,96.9,0.525
11.2,31819.3,34807.7,-0.2545,-0.2118,136.9,96.9,0.525
11.22,31857.4,34720.6,-0.2033,-0.3151,136.9,96.9,0.525
11.24,31865.4,34709.7,-0.1924,-0.328,136.9,96.9,0.525
11.26,31723.6,34611.9,-0.3834,-0.444,136.9,96.9,0.525
11.28,31787.7,34714.3,-0.2971,-0.3226,136.9,96.9,0.525
11.3,31760.9,34439.2,-0.3332,-0.6487,136.9,96.9,0.525
11.32,31802.1,34351.2,-0.2777,-0.753,136.9,96.9,0.525
11.34,31672.0,34431.7,-0.453,-0.6576,136.9,96.9,0.525
11.36,31718.4,34639.7,-0.3905,-0.411,136.9,96.9,0.525
11.38,32052.7,34968.3,0.0598,-0.0213,136.9,96.9,0.525
11.4,32056.9,35244.7,0.0655,0.3064,136.9,96.9,0.525
11.42,32268.2,35557.5,0.3501,0.6773,136.9,96.9,0.525
11.44,32333.9,35693.8,0.4386,0.8389,136.9,96.9,0.525
11.46,32323.4,35683.9,0.4245,0.8271,136.9,96.9,0.525
11.48,32274.6,35630.7,0.3587,0.764,136.9,96.9,0.525
11.5,32244.5,35377.1,0.3182,0.4633,136.9,96.9,0.525
11.52,32273.4,35303.8,0.3571,0.3765,136.9,96.9,0.525
11.54,32139.3,35180.4,0.1765,0.2301,136.9,96.9,0.525
11.56,32100.8,35189.8,0.1247,0.2412,136.9,96.9,0.525
11.58,32042.8,35032.1,0.0466,0.0542,136.9,96.9,0.525
11.6,31989.5,34937.6,-0.0253,-0.0577,136.9,96.9,0.525
11.62,31941.6,34824.7,-0.0898,-0.1916,136.9,96.9,0.525
11.64,31945.6,34696.6,-0.0844,-0.3435,136.9,96.9,0.525
11.66,31938.2,34755.2,-0.0944,-0.2741,136.9,96.9,0.525
11.68,31862.6,34650.2,-0.1962,-0.3986,136.9,96.9,0.525
11.7,31881.0,34616.0,-0.1714,-0.4391,136.9,96.9,0.525
11.72,31757.0,34572.1,-0.3385,-0.4911,136.9,96.9,0.525
11.74,31751.0,34526.3,-0.3465,-0.5454,136.9,96.9,0.525
11.76,31826.5,34466.4,-0.2448,-0.6165,136.9,96.9,0.525
11.78,31699.0,34505.4,-0.4166,-0.5703,136.9,96.9,0.525
11.8,31824.3,34663.3,-0.2478,-0.383,136.9,96.9,0.525
11.82,31920.0,35012.8,-0.1189,0.0314,136.9,96.9,0.525
11.84,32125.2,35304.9,0.1575,0.3778,136.9,96.9,0.525
11.86,32140.8,35605.9,0.1785,0.7347,136.9,96.9,0.525
11.88,32344.0,35767.8,0.4522,0.9267,136.9,96.9,0.525
11.9,32334.2,35719.8,0.4391,0.8697,136.9,96.9,0.525
11.92,32292.7,35498.2,0.3832,0.607,136.9,96.9,0.525
11.94,32121.2,35455.9,0.1521,0.5567,136.9,96.9,0.525
11.96,32122.6,35329.3,0.154,0.4067,136.9,96.9,0.525
11.98,32110.1,35122.5,0.1372,0.1615,136.9,96.9,0.525
12.0,31988.0,35109.7,-0.0273,0.1463,136.9,96.9,0.525
12.02,32059.8,35016.5,0.0694,0.0357,136.9,96.9,0.525
12.04,32021.9,34943.4,0.0183,-0.0509,136.9,96.9,0.525
12.06,31880.9,34842.9,-0.1716,-0.17,136.9,96.9,0.525
12.08,31804.2,34673.1,-0.2749,-0.3714,136.9,96.9,0.525
12.1,31830.0,34659.3,-0.2401,-0.3878,136.9,96.9,0.525
12.12,31879.2,34652.3,-0.1738,-0.396,136.9,96.9,0.525
12.14,31853.9,34626.2,-0.208,-0.427,136.9,96.9,0.525
12.16,31765.3,34599.4,-0.3273,-0.4588,136.9,96.9,0.525
12.18,31792.7,34527.6,-0.2904,-0.5439,136.9,96.9,0.525
12.2,31716.0,34431.1,-0.3936,-0.6583,136.9,96.9,0.525
12.22,31738.4,34458.5,-0.3635,-0.6259,136.9,96.9,0.525
12.24,31820.3,34643.7,-0.2531,-0.4062,136.9,96.9,0.525
12.26,32031.0,34971.9,0.0306,-0.0171,136.9,96.9,0.525
12.28,32147.3,35355.3,0.1872,0.4375,136.9,96.9,0.525
12.3,32349.7,35546.5,0.4598,0.6643,136.9,96.9,0.525
12.32,32420.0,35759.8,0.5546,0.9171,136.9,96.9,0.525
12.34,32347.9,35788.2,0.4574,0.9508,136.9,96.9,0.525
12.36,32208.1,35606.7,0.2691,0.7356,136.9,96.9,0.525
12.38,32217.0,35430.2,0.2811,0.5264,136.9,96.9,0.525
12.4,32038.5,35246.3,0.0408,0.3083,136.9,96.9,0.525
12.42,32082.1,35133.2,0.0994,0.1741,136.9,96.9,0.525
12.44,32018.1,35025.9,0.0132,0.0469,136.9,96.9,0.525
12.46,32007.2,35017.9,-0.0015,0.0375,136.9,96.9,0.525
12.48,31968.4,34952.8,-0.0536,-0.0398,136.9,96.9,0.525
12.5,31911.4,34887.4,-0.1304,-0.1173,136.9,96.9,0.525
12.52,31848.4,34712.8,-0.2153,-0.3243,136.9,96.9,0.525
12.54,31875.4,34748.8,-0.179,-0.2817,136.9,96.9,0.525
12.56,31824.7,34623.1,-0.2473,-0.4307,136.9,96.9,0.525
12.58,31868.8,34617.5,-0.1878,-0.4373,136.9,96.9,0.525
12.6,31836.3,34578.6,-0.2316,-0.4834,136.9,96.9,0.525
12.62,31822.5,34542.2,-0.2502,-0.5266,136.9,96.9,0.525
12.64,31801.3,34391.4,-0.2788,-0.7054,136.9,96.9,0.525
12.66,31669.3,34505.5,-0.4566,-0.5701,136.9,96.9,0.525
12.68,31811.9,34581.0,-0.2645,-0.4806,136.9,96.9,0.525
12.7,31898.5,34970.5,-0.1478,-0.0187,136.9,96.9,0.525
12.72,32132.5,35340.9,0.1674,0.4204,136.9,96.9,0.525
12.74,32274.0,35709.7,0.3579,0.8577,136.9,96.9,0.525
12.76,32378.4,35695.0,0.4986,0.8403,136.9,96.9,0.525
12.78,32398.9,35757.2,0.5262,0.914,136.9,96.9,0.525
12.8,32249.8,35608.8,0.3253,0.738,136.9,96.9,0.525
12.82,32229.4,35450.1,0.2979,0.5499,136.9,96.9,0.525
12.84,32134.6,35237.4,0.1701,0.2977,136.9,96.9,0.525
12.86,32066.9,35184.1,0.079,0.2345,136.9,96.9,0.525
12.88,32051.0,35017.9,0.0575,0.0375,136.9,96.9,0.525
12.9,32072.2,34908.2,0.0861,-0.0927,136.9,96.9,0.525
12.92,32008.4,34880.5,0.0001,-0.1254,136.9,96.9,0.525
12.94,31913.9,34796.4,-0.1271,-0.2252,136.9,96.9,0.525
12.96,31919.0,34764.2,-0.1202,-0.2634,136.9,96.9,0.525
12.98,31920.9,34590.7,-0.1176,-0.469,136.9,96.9,0.525
13.0,31836.1,34652.4,-0.2319,-0.396,136.9,96.9,0.525
13.02,31778.7,34608.5,-0.3092,-0.448,136.9,96.9,0.525
13.04,31784.5,34547.7,-0.3014,-0.52,136.9,96.9,0.525
13.06,31752.5,34572.5,-0.3444,-0.4907,136.9,96.9,0.525
13.08,31686.6,34421.0,-0.4332,-0.6703,136.9,96.9,0.525
13.1,31701.3,34470.3,-0.4134,-0.6119,136.9,96.9,0.525
13.12,31876.9,34700.1,-0.1769,-0.3394,136.9,96.9,0.525
13.14,32036.1,35003.8,0.0374,0.0208,136.9,96.9,0.525
13.16,32190.1,35371.2,0.2449,0.4563,136.9,96.9,0.525
13.18,32380.2,35697.3,0.501,0.8431,136.9,96.9,0.525
13.2,32408.2,35772.9,0.5387,0.9327,136.9,96.9,0.525
13.22,32292.4,35611.0,0.3827,0.7408,136.9,96.9,0.525
13.24,32325.8,35502.1,0.4277,0.6116,136.9,96.9,0.525
13.26,32289.7,35335.1,0.3791,0.4136,136.9,96.9,0.525
13.28,32165.6,35152.3,0.2119,0.1968,136.9,96.9,0.525
13.3,32141.3,35174.2,0.1791,0.2227,136.9,96.9,0.525
13.32,32030.4,35091.5,0.0298,0.1247,136.9,96.9,0.525
13.34,32024.1,34976.4,0.0213,-0.0117,136.9,96.9,0.525
13.36,31919.7,34874.1,-0.1192,-0.1331,136.9,96.9,0.525
13.38,31914.0,34741.4,-0.127,-0.2904,136.9,96.9,0.525
13.4,31855.6,34587.8,-0.2057,-0.4725,136.9,96.9,0.525
13.42,31805.5,34701.9,-0.2731,-0.3372,136.9,96.9,0.525
13.44,31953.3,34701.9,-0.074,-0.3372,136.9,96.9,0.525
13.46,31805.8,34684.5,-0.2728,-0.3579,136.9,96.9,0.525
13.48,31812.6,34542.0,-0.2636,-0.5268,136.9,96.9,0.525
13.5,31811.2,34593.1,-0.2654,-0.4663,136.9,96.9,0.525
13.52,31764.7,34421.6,-0.328,-0.6696,136.9,96.9,0.525
13.54,31826.9,34641.4,-0.2443,-0.4089,136.9,96.9,0.525
13.56,31889.8,34711.6,-0.1596,-0.3258,136.9,96.9,0.525
13.58,32094.4,35197.6,0.1161,0.2505,136.9,96.9,0.525
13.6,32196.5,35401.7,0.2536,0.4925,136.9,96.9,0.525
13.62,32293.9,35740.4,0.3847,0.8942,136.9,96.9,0.525
13.64,32369.6,35774.3,0.4867,0.9343,136.9,96.9,0.525
13.66,32353.2,35685.4,0.4646,0.8289,136.9,96.9,0.525
13.68,32186.2,35547.7,0.2397,0.6656,136.9,96.9,0.525
13.7,32200.1,35391.8,0.2584,0.4808,136.9,96.9,0.525
13.72,32028.5,35224.8,0.0273,0.2828,136.9,96.9,0.525
13.74,31980.8,35068.0,-0.037,0.0968,136.9,96.9,0.525
13.76,32113.9,35114.7,0.1423,0.1522,136.9,96.9,0.525
13.78,32029.2,34991.6,0.0282,0.0062,136.9,96.9,0.525
13.8,31997.4,34900.9,-0.0147,-0.1013,136.9,96.9,0.525
13.82,31912.9,34784.3,-0.1284,-0.2396,136.9,96.9,0.525
13.84,31744.7,34691.7,-0.355,-0.3493,136.9,96.9,0.525
13.86,31744.5,34638.6,-0.3553,-0.4123,136.9,96.9,0.525
13.88,31821.8,34603.0,-0.2512,-0.4545,136.9,96.9,0.525
13.9,31802.7,34742.5,-0.2769,-0.2891,136.9,96.9,0.525
13.92,31693.3,34490.9,-0.4243,-0.5874,136.9,96.9,0.525
13.94,31729.3,34427.1,-0.3757,-0.6631,136.9,96.9,0.525
13.96,31683.5,34569.0,-0.4374,-0.4948,136.9,96.9,0.525
13.98,31800.9,34386.9,-0.2794,-0.7107,136.9,96.9,0.525
14.0,31849.3,34687.3,-0.2141,-0.3546,136.9,96.9,0.525
14.02,31957.9,34969.0,-0.0679,-0.0206,136.9,96.9,0.525
14.04,32212.7,35470.2,0.2753,0.5737,136.9,96.9,0.525
14.06,32378.2,35727.5,0.4983,0.8789,136.9,96.9,0.525
14.08,32313.5,35714.9,0.4112,0.8639,136.9,96.9,0.525
14.1,32248.7,35695.9,0.3239,0.8414,136.9,96.9,0.525
14.12,32222.0,35562.7,0.2879,0.6834,136.9,96.9,0.525
14.14,32147.6,35312.5,0.1877,0.3868,136.9,96.9,0.525
14.16,32055.6,35140.9,0.0637,0.1833,136.9,96.9,0.525
14.18,32008.1,35148.9,-0.0003,0.1928,136.9,96.9,0.525
14.2,32064.4,35027.5,0.0757,0.0489,136.9,96.9,0.525
14.22,32062.3,34971.6,0.0728,-0.0175,136.9,96.9,0.525
14.24,31916.7,34846.6,-0.1233,-0.1657,136.9,96.9,0.525
14.26,31807.1,34786.2,-0.2709,-0.2373,136.9,96.9,0.525
14.28,31792.2,34636.5,-0.2911,-0.4148,136.9,96.9,0.525
14.3,31885.6,34713.6,-0.1652,-0.3233,136.9,96.9,0.525
14.32,31858.0,34666.3,-0.2024,-0.3794,136.9,96.9,0.525
14.34,31785.6,34662.1,-0.2999,-0.3845,136.9,96.9,0.525
14.36,31833.0,34516.7,-0.2361,-0.5568,136.9,96.9,0.525
14.38,31817.8,34457.4,-0.2565,-0.6271,136.9,96.9,0.525
14.4,31777.4,34480.8,-0.3109,-0.5994,136.9,96.9,0.525
14.42,31795.4,34511.7,-0.2867,-0.5628,136.9,96.9,0.525
14.44,31830.8,34684.6,-0.2391,-0.3577,136.9,96.9,0.525
14.46,32014.8,35179.3,0.0088,0.2288,136.9,96.9,0.525
14.48,32258.9,35454.9,0.3376,0.5557,136.9,96.9,0.525
14.5,32362.3,35718.2,0.4769,0.8678,136.9,96.9,0.525
14.52,32294.9,35755.2,0.3861,0.9117,136.9,96.9,0.525
14.54,32373.1,35611.8,0.4913,0.7416,136.9,96.9,0.525
14.56,32303.0,35488.1,0.397,0.595,136.9,96.9,0.525
14.58,32168.1,35271.4,0.2153,0.338,136.9,96.9,0.525
14.6,32060.9,35174.3,0.0708,0.2229,136.9,96.9,0.525
14.62,32076.0,35191.6,0.0912,0.2434,136.9,96.9,0.525
14.64,32069.9,34986.3,0.083,0.0,136.9,96.9,0.525
14.66,31984.5,34957.5,-0.032,-0.0342,136.9,96.9,0.525
14.68,31922.0,34865.6,-0.1161,-0.1431,136.9,96.9,0.525
14.7,31897.8,34836.6,-0.1488,-0.1775,136.9,96.9,0.525
14.72,31897.2,34683.0,-0.1495,-0.3597,136.9,96.9,0.525
14.74,31844.3,34704.6,-0.2208,-0.334,136.9,96.9,0.525
14.76,31795.0,34636.7,-0.2873,-0.4145,136.9,96.9,0.525
14.78,31886.7,34637.8,-0.1637,-0.4133,136.9,96.9,0.525
14.8,31760.6,34646.7,-0.3336,-0.4027,136.9,96.9,0.525
14.82,31707.0,34460.5,-0.4058,-0.6235,136.9,96.9,0.525
14.84,31685.8,34430.1,-0.4344,-0.6595,136.9,96.9,0.525
14.86,31744.4,34623.6,-0.3555,-0.4301,136.9,96.9,0.525
14.88,31955.6,34846.7,-0.0709,-0.1655,136.9,96.9,0.525
14.9,32094.7,35159.1,0.1164,0.2048,136.9,96.9,0.525
14.92,32327.4,35496.9,0.4298,0.6054,136.9,96.9,0.525
14.94,32329.5,35612.2,0.4327,0.7421,136.9,96.9,0.525
14.96,32326.3,35697.5,0.4283,0.8432,136.9,96.9,0.525
14.98,32313.4,35656.7,0.4111,0.7949,136.9,96.9,0.525
15.0,32174.0,35387.3,0.2232,0.4755,136.9,96.9,0.525
15.02,32194.0,35345.7,0.2502,0.4261,136.9,96.9,0.525
15.04,32091.7,35172.3,0.1123,0.2205,136.9,96.9,0.525
15.06,32014.1,35074.3,0.0078,0.1044,136.9,96.9,0.525
15.08,32084.6,35060.4,0.1028,0.0878,136.9,96.9,0.525
15.1,31988.0,34931.6,-0.0273,-0.0649,136.9,96.9,0.525
15.12,31948.1,34866.4,-0.081,-0.1422,136.9,96.9,0.525
15.14,31916.3,34756.9,-0.1238,-0.272,136.9,96.9,0.525
15.16,31819.4,34729.1,-0.2543,-0.305,136.9,96.9,0.525
15.18,31861.8,34716.4,-0.1973,-0.3201,136.9,96.9,0.525
15.2,31834.0,34693.7,-0.2347,-0.3469,136.9,96.9,0.525
15.22,31800.1,34686.5,-0.2804,-0.3555,136.9,96.9,0.525
15.24,31724.2,34563.3,-0.3827,-0.5016,136.9,96.9,0.525
15.26,31665.8,34503.0,-0.4612,-0.5731,136.9,96.9,0.525
15.28,31793.4,34402.0,-0.2894,-0.6929,136.9,96.9,0.525
15.3,31755.7,34552.8,-0.3401,-0.514,136.9,96.9,0.525
15.32,31927.0,34749.5,-0.1094,-0.2807,136.9,96.9,0.525
15.34,32130.9,35174.3,0.1652,0.2229,136.9,96.9,0.525
15.36,32359.0,35540.0,0.4725,0.6565,136.9,96.9,0.525
15.38,32364.3,35619.0,0.4795,0.7502,136.9,96.9,0.525
15.4,32359.3,35709.0,0.4728,0.8569,136.9,96.9,0.525
15.42,32314.6,35673.1,0.4126,0.8144,136.9,96.9,0.525
15.44,32187.1,35419.9,0.2408,0.5141,136.9,96.9,0.525
15.46,32171.8,35425.9,0.2203,0.5212,136.9,96.9,0.525
15.48,32080.4,35154.1,0.0972,0.1989,136.9,96.9,0.525
15.5,32090.6,35093.4,0.1108,0.127,136.9,96.9,0.525
15.52,32069.4,35074.7,0.0824,0.1048,136.9,96.9,0.525
15.54,31938.9,34992.0,-0.0935,0.0067,136.9,96.9,0.525
15.56,31956.7,34880.5,-0.0695,-0.1255,136.9,96.9,0.525
15.58,31864.5,34865.9,-0.1936,-0.1428,136.9,96.9,0.525
15.6,31887.5,34726.0,-0.1627,-0.3087,136.9,96.9,0.525
15.62,31930.3,34656.0,-0.105,-0.3917,136.9,96.9,0.525
15.64,31761.2,34649.8,-0.3327,-0.3991,136.9,96.9,0.525
15.66,31893.4,34718.3,-0.1548,-0.3178,136.9,96.9,0.525
15.68,31792.9,34465.3,-0.2901,-0.6178,136.9,96.9,0.525
15.7,31731.3,34469.4,-0.3731,-0.6129,136.9,96.9,0.525
15.72,31792.5,34424.6,-0.2907,-0.666,136.9,96.9,0.525
15.74,31750.9,34609.3,-0.3467,-0.4471,136.9,96.9,0.525
15.76,31902.3,34997.4,-0.1427,0.0131,136.9,96.9,0.525
15.78,32119.6,35167.8,0.1499,0.2152,136.9,96.9,0.525
15.8,32139.5,35586.6,0.1768,0.7118,136.9,96.9,0.525
15.82,32363.8,35775.6,0.4789,0.9359,136.9,96.9,0.525
15.84,32413.6,35721.0,0.546,0.8711,136.9,96.9,0.525
15.86,32374.5,35663.8,0.4932,0.8033,136.9,96.9,0.525
15.88,32267.8,35501.8,0.3496,0.6113,136.9,96.9,0.525
15.9,32094.9,35310.3,0.1167,0.3842,136.9,96.9,0.525
15.92,32077.5,35143.2,0.0932,0.186,136.9,96.9,0.525
15.94,31980.3,35047.8,-0.0376,0.0729,136.9,96.9,0.525
15.96,31953.8,35111.2,-0.0734,0.1481,136.9,96.9,0.525
15.98,32008.2,34951.0,-0.0001,-0.0419,136.9,96.9,0.525
16.0,31855.5,34822.3,-0.2058,-0.1945,136.9,96.9,0.525
16.02,31875.1,34699.9,-0.1794,-0.3396,136.9,96.9,0.525
16.04,31819.3,34658.7,-0.2545,-0.3884,136.9,96.9,0.525
16.06,31816.4,34669.6,-0.2584,-0.3755,136.9,96.9,0.525
16.08,31901.6,34640.9,-0.1437,-0.4096,136.9,96.9,0.525
16.1,31781.1,34628.5,-0.306,-0.4243,136.9,96.9,0.525
16.12,31756.7,34521.4,-0.3389,-0.5513,136.9,96.9,0.525
16.14,31762.2,34489.5,-0.3314,-0.589,136.9,96.9,0.525
16.16,31845.7,34433.7,-0.219,-0.6553,136.9,96.9,0.525
16.18,31785.0,34536.3,-0.3007,-0.5336,136.9,96.9,0.525
16.2,31919.3,34910.7,-0.1199,-0.0897,136.9,96.9,0.525
16.22,32076.1,35229.4,0.0913,0.2883,136.9,96.9,0.525
16.24,32359.2,35515.4,0.4726,0.6274,136.9,96.9,0.525
16.26,32326.3,35663.4,0.4284,0.8028,136.9,96.9,0.525
16.28,32363.0,35704.9,0.4778,0.852,136.9,96.9,0.525
16.3,32329.9,35485.3,0.4333,0.5917,136.9,96.9,0.525
16.32,32242.2,35415.3,0.315,0.5086,136.9,96.9,0.525
16.34,32107.1,35344.3,0.1331,0.4245,136.9,96.9,0.525
16.36,32103.6,35156.9,0.1284,0.2023,136.9,96.9,0.525
16.38,32030.5,35123.3,0.0299,0.1625,136.9,96.9,0.525
16.4,32092.9,34992.1,0.114,0.0068,136.9,96.9,0.525
16.42,31942.6,34965.6,-0.0884,-0.0245,136.9,96.9,0.525
16.44,31946.7,34897.3,-0.0829,-0.1055,136.9,96.9,0.525
16.46,31833.0,34728.8,-0.2361,-0.3053,136.9,96.9,0.525
16.48,31872.4,34708.1,-0.183,-0.3298,136.9,96.9,0.525
16.5,31763.3,34603.8,-0.3299,-0.4535,136.9,96.9,0.525
16.52,31848.2,34691.0,-0.2156,-0.3502,136.9,96.9,0.525
16.54,31806.7,34560.4,-0.2715,-0.5051,136.9,96.9,0.525
16.56,31823.5,34544.0,-0.2489,-0.5244,136.9,96.9,0.525
16.58,31760.1,34387.5,-0.3342,-0.71,136.9,96.9,0.525
16.6,31809.0,34476.0,-0.2684,-0.6051,136.9,96.9,0.525
16.62,31818.9,34597.6,-0.255,-0.4609,136.9,96.9,0.525
16.64,31894.4,34845.2,-0.1534,-0.1674,136.9,96.9,0.525
16.66,32181.9,35258.7,0.2338,0.323,136.9,96.9,0.525
16.68,32296.8,35578.5,0.3886,0.7022,136.9,96.9,0.525
16.7,32406.4,35763.7,0.5362,0.9217,136.9,96.9,0.525
16.72,32293.3,35716.9,0.3839,0.8663,136.9,96.9,0.525
16.74,32297.3,35658.0,0.3893,0.7965,136.9,96.9,0.525
16.76,32126.1,35345.1,0.1587,0.4254,136.9,96.9,0.525
16.78,32003.6,35215.6,-0.0063,0.2718,136.9,96.9,0.525
16.8,32084.1,35050.2,0.1022,0.0758,136.9,96.9,0.525
16.82,31984.5,35077.2,-0.0321,0.1078,136.9,96.9,0.525
16.84,32088.3,34981.9,0.1078,-0.0052,136.9,96.9,0.525
16.86,32013.5,34878.0,0.007,-0.1285,136.9,96.9,0.525
16.88,31876.8,34846.6,-0.1771,-0.1657,136.9,96.9,0.525
16.9,31859.2,34727.9,-0.2008,-0.3064,136.9,96.9,0.525
16.92,31809.3,34622.6,-0.268,-0.4313,136.9,96.9,0.525
16.94,31909.8,34721.5,-0.1326,-0.314,136.9,96.9,0.525
16.96,31785.6,34624.2,-0.2999,-0.4294,136.9,96.9,0.525
16.98,31692.6,34671.2,-0.4251,-0.3736,136.9,96.9,0.525
17.0,31781.6,34461.9,-0.3054,-0.6218,136.9,96.9,0.525
17.02,31789.2,34500.9,-0.2951,-0.5756,136.9,96.9,0.525
17.04,31684.6,34391.7,-0.436,-0.705,136.9,96.9,0.525
17.06,31895.3,34611.0,-0.1521,-0.445,136.9,96.9,0.525
17.08,31909.5,35065.6,-0.133,0.094,136.9,96.9,0.525
17.1,32174.0,35336.5,0.2232,0.4152,136.9,96.9,0.525
17.12,32237.8,35526.2,0.3091,0.6401,136.9,96.9,0.525
17.14,32322.7,35790.9,0.4236,0.954,136.9,96.9,0.525
17.16,32339.5,35824.5,0.4462,0.9939,136.9,96.9,0.525
17.18,32232.9,35501.8,0.3025,0.6113,136.9,96.9,0.525
17.2,32188.4,35287.7,0.2426,0.3574,136.9,96.9,0.525
17.22,32124.1,35248.5,0.156,0.3109,136.9,96.9,0.525
17.24,31963.0,35136.5,-0.0609,0.178,136.9,96.9,0.525
17.26,32060.4,35124.1,0.0702,0.1634,136.9,96.9,0.525
17.28,31999.9,34937.0,-0.0112,-0.0585,136.9,96.9,0.525
17.3,32001.9,34846.2,-0.0086,-0.1661,136.9,96.9,0.525
17.32,32001.4,34730.1,-0.0092,-0.3038,136.9,96.9,0.525
17.34,31985.2,34706.3,-0.031,-0.332,136.9,96.9,0.525
17.36,31819.8,34678.3,-0.2538,-0.3652,136.9,96.9,0.525
17.38,31844.7,34625.2,-0.2203,-0.4282,136.9,96.9,0.525
17.4,31822.6,34701.2,-0.2501,-0.3381,136.9,96.9,0.525
17.42,31847.8,34606.7,-0.2162,-0.4502,136.9,96.9,0.525
17.44,31753.1,34582.6,-0.3436,-0.4787,136.9,96.9,0.525
17.46,31787.1,34524.0,-0.2979,-0.5482,136.9,96.9,0.525
17.48,31727.0,34428.7,-0.3788,-0.6611,136.9,96.9,0.525
17.5,31785.1,34650.3,-0.3005,-0.3985,136.9,96.9,0.525
17.52,31900.7,34953.1,-0.1449,-0.0394,136.9,96.9,0.525
17.54,32157.6,35407.9,0.2011,0.4999,136.9,96.9,0.525
17.56,32359.7,35606.9,0.4733,0.7358,136.9,96.9,0.525
17.58,32393.1,35771.2,0.5184,0.9307,136.9,96.9,0.525
17.6,32288.8,35702.3,0.3779,0.8489,136.9,96.9,0.525
17.62,32209.8,35610.5,0.2715,0.7401,136.9,96.9,0.525
17.64,32219.3,35331.2,0.2843,0.409,136.9,96.9,0.525
17.66,32117.5,35346.6,0.1472,0.4271,136.9,96.9,0.525
17.68,32093.8,35136.1,0.1152,0.1776,136.9,96.9,0.525
17.7,32046.6,35076.2,0.0516,0.1065,136.9,96.9,0.525
17.72,32024.1,35049.1,0.0214,0.0745,136.9,96.9,0.525
17.74,31975.4,34842.6,-0.0443,-0.1704,136.9,96.9,0.525
17.76,31960.0,34911.7,-0.065,-0.0885,136.9,96.9,0.525
17.78,31882.7,34718.0,-0.1691,-0.3182,136.9,96.9,0.525
17.8,31751.2,34721.1,-0.3463,-0.3145,136.9,96.9,0.525
17.82,31738.2,34693.7,-0.3637,-0.3469,136.9,96.9,0.525
17.84,31857.7,34661.1,-0.2027,-0.3856,136.9,96.9,0.525
17.86,31797.9,34564.7,-0.2834,-0.4999,136.9,96.9,0.525
17.88,31712.9,34506.9,-0.3979,-0.5685,136.9,96.9,0.525
17.9,31776.7,34445.5,-0.3119,-0.6412,136.9,96.9,0.525
17.92,31853.0,34493.1,-0.2092,-0.5848,136.9,96.9,0.525
17.94,31930.7,34630.0,-0.1045,-0.4225,136.9,96.9,0.525
17.96,31898.4,35007.9,-0.148,0.0256,136.9,96.9,0.525
17.98,32176.4,35421.0,0.2264,0.5154,136.9,96.9,0.525
18.0,32370.7,35634.0,0.4881,0.768,136.9,96.9,0.525
18.02,32378.8,35683.4,0.499,0.8265,136.9,96.9,0.525
18.04,32445.2,35714.2,0.5885,0.8631,136.9,96.9,0.525
18.06,32134.7,35497.9,0.1703,0.6066,136.9,96.9,0.525
18.08,32188.7,35294.9,0.2431,0.3659,136.9,96.9,0.525
18.1,32110.6,35167.2,0.1379,0.2145,136.9,96.9,0.525
18.12,32099.7,35100.5,0.1232,0.1354,136.9,96.9,0.525
18.14,32017.5,35061.3,0.0124,0.0889,136.9,96.9,0.525
18.16,32018.7,35035.6,0.0141,0.0584,136.9,96.9,0.525
18.18,31950.3,34895.0,-0.078,-0.1082,136.9,96.9,0.525
18.2,31789.6,34774.4,-0.2945,-0.2513,136.9,96.9,0.525
18.22,31866.8,34615.9,-0.1905,-0.4392,136.9,96.9,0.525
18.24,31890.1,34727.1,-0.1592,-0.3073,136.9,96.9,0.525
18.26,31831.0,34682.1,-0.2388,-0.3607,136.9,96.9,0.525
18.28,31767.6,34644.5,-0.3242,-0.4053,136.9,96.9,0.525
18.3,31803.7,34474.2,-0.2756,-0.6073,136.9,96.9,0.525
18.32,31751.4,34570.5,-0.346,-0.4931,136.9,96.9,0.525
18.34,31692.6,34486.8,-0.4252,-0.5923,136.9,96.9,0.525
18.36,31785.5,34560.1,-0.3001,-0.5054,136.9,96.9,0.525
18.38,31853.4,34691.9,-0.2086,-0.3491,136.9,96.9,0.525
18.4,32028.6,34988.8,0.0274,0.003,136.9,96.9,0.525
18.42,32289.5,35388.0,0.3789,0.4762,136.9,96.9,0.525
18.44,32304.8,35651.5,0.3994,0.7887,136.9,96.9,0.525
18.46,32353.9,35789.1,0.4656,0.9519,136.9,96.9,0.525
18.48,32260.4,35692.4,0.3396,0.8372,136.9,96.9,0.525
18.5,32260.7,35513.3,0.34,0.6249,136.9,96.9,0.525
18.52,32228.4,35236.0,0.2965,0.296,136.9,96.9,0.525
18.54,32048.3,35247.2,0.054,0.3093,136.9,96.9,0.525
18.56,32083.7,35048.4,0.1015,0.0736,136.9,96.9,0.525
18.58,32070.3,35122.4,0.0836,0.1614,136.9,96.9,0.525
18.6,31920.2,35008.1,-0.1186,0.0259,136.9,96.9,0.525
18.62,32063.1,34918.2,0.0739,-0.0808,136.9,96.9,0.525
18.64,31922.4,34913.6,-0.1156,-0.0862,136.9,96.9,0.525
18.66,31805.4,34816.9,-0.2733,-0.2008,136.9,96.9,0.525
18.68,31888.6,34690.5,-0.1612,-0.3507,136.9,96.9,0.525
18.7,31816.9,34674.5,-0.2577,-0.3697,136.9,96.9,0.525
18.72,31852.1,34678.9,-0.2103,-0.3645,136.9,96.9,0.525
18.74,31817.4,34600.9,-0.2571,-0.457,136.9,96.9,0.525
18.76,31751.6,34462.4,-0.3457,-0.6213,136.9,96.9,0.525
18.78,31677.9,34417.8,-0.445,-0.6741,136.9,96.9,0.525
18.8,31709.2,34503.7,-0.4028,-0.5723,136.9,96.9,0.525
18.82,31878.2,34823.1,-0.1752,-0.1935,136.9,96.9,0.525
18.84,32008.1,35065.2,-0.0002,0.0935,136.9,96.9,0.525
18.86,32222.3,35391.2,0.2883,0.4801,136.9,96.9,0.525
18.88,32297.0,35743.7,0.3889,0.898,136.9,96.9,0.525
18.9,32367.8,35657.2,0.4842,0.7955,136.9,96.9,0.525
18.92,32276.0,35607.1,0.3606,0.7361,136.9,96.9,0.525
18.94,32242.2,35483.9,0.3151,0.59,136.9,96.9,0.525
18.96,32202.6,35352.2,0.2618,0.4339,136.9,96.9,0.525
18.98,32093.0,35118.3,0.1141,0.1565,136.9,96.9,0.525
19.0,32151.8,35077.3,0.1933,0.1079,136.9,96.9,0.525
19.02,32002.0,35079.9,-0.0084,0.111,136.9,96.9,0.525
19.04,31932.0,34991.0,-0.1027,0.0055,136.9,96.9,0.525
19.06,31931.3,34909.6,-0.1037,-0.0909,136.9,96.9,0.525
19.08,31844.4,34694.0,-0.2208,-0.3466,136.9,96.9,0.525
19.1,31825.4,34673.4,-0.2463,-0.371,136.9,96.9,0.525
19.12,31810.4,34691.0,-0.2666,-0.3501,136.9,96.9,0.525
19.14,31879.6,34742.9,-0.1734,-0.2886,136.9,96.9,0.525
19.16,31661.2,34616.0,-0.4675,-0.4391,136.9,96.9,0.525
19.18,31757.1,34504.9,-0.3383,-0.5708,136.9,96.9,0.525
19.2,31827.5,34466.2,-0.2435,-0.6167,136.9,96.9,0.525
19.22,31714.0,34490.8,-0.3963,-0.5876,136.9,96.9,0.525
19.24,31778.3,34659.3,-0.3098,-0.3877,136.9,96.9,0.525
19.26,31865.0,34739.9,-0.1929,-0.2922,136.9,96.9,0.525
19.28,32028.0,35109.4,0.0266,0.1459,136.9,96.9,0.525
19.3,32270.4,35457.4,0.3531,0.5586,136.9,96.9,0.525
19.32,32347.3,35666.3,0.4566,0.8062,136.9,96.9,0.525
19.34,32422.0,35786.8,0.5572,0.9492,136.9,96.9,0.525
19.36,32294.9,35639.9,0.3861,0.775,136.9,96.9,0.525
19.38,32239.1,35443.9,0.3109,0.5426,136.9,96.9,0.525
19.4,32161.7,35323.9,0.2066,0.4003,136.9,96.9,0.525
19.42,32087.3,35132.5,0.1064,0.1733,136.9,96.9,0.525
19.44,32011.8,35119.1,0.0047,0.1574,136.9,96.9,0.525
19.46,32033.8,35119.7,0.0344,0.1581,136.9,96.9,0.525
19.48,32035.2,35010.1,0.0363,0.0282,136.9,96.9,0.525
19.5,31917.3,34788.3,-0.1225,-0.2348,136.9,96.9,0.525
19.52,31902.2,34838.0,-0.1429,-0.1758,136.9,96.9,0.525
19.54,31780.3,34656.4,-0.3071,-0.3912,136.9,96.9,0.525
19.56,31827.9,34652.3,-0.2429,-0.3961,136.9,96.9,0.525
19.58,31803.7,34584.6,-0.2755,-0.4763,136.9,96.9,0.525
19.6,31833.8,34581.1,-0.235,-0.4804,136.9,96.9,0.525
19.62,31828.9,34517.1,-0.2416,-0.5564,136.9,96.9,0.525
19.64,31736.7,34441.6,-0.3657,-0.6459,136.9,96.9,0.525
19.66,31716.1,34583.1,-0.3936,-0.4781,136.9,96.9,0.525
19.68,31883.1,34527.3,-0.1686,-0.5442,136.9,96.9,0.525
19.7,31864.4,34861.4,-0.1938,-0.1482,136.9,96.9,0.525
19.72,32132.6,35141.1,0.1674,0.1835,136.9,96.9,0.525
19.74,32200.8,35444.6,0.2593,0.5434,136.9,96.9,0.525
19.76,32323.0,35752.3,0.4239,0.9083,136.9,96.9,0.525
19.78,32281.9,35779.8,0.3686,0.9409,136.9,96.9,0.525
19.8,32303.4,35625.2,0.3975,0.7576,136.9,96.9,0.525
19.82,32197.7,35459.8,0.2551,0.5614,136.9,96.9,0.525
19.84,32071.8,35261.0,0.0856,0.3257,136.9,96.9,0.525
19.86,32070.5,35157.5,0.0838,0.203,136.9,96.9,0.525
19.88,31976.0,35097.6,-0.0434,0.132,136.9,96.9,0.525
19.9,32122.4,35052.4,0.1537,0.0784,136.9,96.9,0.525
19.92,31950.7,34876.1,-0.0775,-0.1307,136.9,96.9,0.525
19.94,32022.8,34901.9,0.0196,-0.1001,136.9,96.9,0.525
19.96,31898.5,34822.0,-0.1479,-0.1948,136.9,96.9,0.525
19.98,31885.4,34637.1,-0.1654,-0.4141,136.9,96.9,0.525
20.0,31845.3,34649.9,-0.2195,-0.3989,136.9,96.9,0.525
20.02,31815.1,34600.0,-0.2602,-0.4581,136.9,96.9,0.525
20.04,31791.1,34598.3,-0.2925,-0.4601,136.9,96.9,0.525
20.06,31792.2,34531.3,-0.291,-0.5395,136.9,96.9,0.525
20.08,31738.5,34505.9,-0.3634,-0.5697,136.9,96.9,0.525
20.1,31859.9,34495.3,-0.1998,-0.5823,136.9,96.9,0.525
20.12,31872.1,34542.3,-0.1835,-0.5265,136.9,96.9,0.525
20.14,31931.3,34782.0,-0.1036,-0.2422,136.9,96.9,0.525
20.16,32066.3,35171.8,0.0781,0.2199,136.9,96.9,0.525
20.18,32196.6,35538.3,0.2536,0.6545,136.9,96.9,0.525
20.2,32315.2,35675.0,0.4135,0.8166,136.9,96.9,0.525
20.22,32376.1,35737.0,0.4954,0.8901,136.9,96.9,0.525
20.24,32269.1,35664.7,0.3513,0.8044,136.9,96.9,0.525
20.26,32203.6,35479.9,0.2632,0.5853,136.9,96.9,0.525
20.28,32088.5,35261.8,0.1081,0.3267,136.9,96.9,0.525
20.3,32074.7,35179.6,0.0894,0.2292,136.9,96.9,0.525
20.32,32134.7,35108.4,0.1703,0.1448,136.9,96.9,0.525
20.34,31941.7,35004.9,-0.0896,0.022,136.9,96.9,0.525
20.36,31938.3,34920.8,-0.0942,-0.0777,136.9,96.9,0.525
20.38,31882.3,34891.4,-0.1697,-0.1125,136.9,96.9,0.525
20.4,31901.6,34765.4,-0.1437,-0.2619,136.9,96.9,0.525
20.42,31869.7,34679.3,-0.1866,-0.364,136.9,96.9,0.525
20.44,31808.0,34553.1,-0.2698,-0.5137,136.9,96.9,0.525
20.46,31888.9,34644.4,-0.1608,-0.4055,136.9,96.9,0.525
20.48,31887.4,34590.4,-0.1629,-0.4695,136.9,96.9,0.525
20.5,31754.2,34624.0,-0.3422,-0.4296,136.9,96.9,0.525
20.52,31785.5,34502.4,-0.3,-0.5737,136.9,96.9,0.525
20.54,31740.4,34514.0,-0.3608,-0.56,136.9,96.9,0.525
20.56,31827.0,34589.3,-0.2441,-0.4707,136.9,96.9,0.525
20.58,32022.2,34914.5,0.0187,-0.0852,136.9,96.9,0.525
20.6,32068.3,35261.2,0.0808,0.3259,136.9,96.9,0.525
20.62,32199.3,35530.0,0.2574,0.6447,136.9,96.9,0.525
20.64,32312.4,35690.1,0.4097,0.8345,136.9,96.9,0.525
20.66,32422.7,35714.9,0.5582,0.8639,136.9,96.9,0.525
20.68,32417.1,35731.5,0.5507,0.8836,136.9,96.9,0.525
20.7,32257.9,35478.3,0.3362,0.5834,136.9,96.9,0.525
20.72,32153.3,35307.1,0.1953,0.3804,136.9,96.9,0.525
20.74,32045.1,35168.2,0.0496,0.2157,136.9,96.9,0.525
20.76,32047.9,35078.0,0.0533,0.1087,136.9,96.9,0.525
20.78,31968.2,35136.7,-0.054,0.1784,136.9,96.9,0.525
20.8,31938.6,34951.8,-0.0938,-0.0409,136.9,96.9,0.525
20.82,31923.0,34880.1,-0.1149,-0.126,136.9,96.9,0.525
20.84,31833.5,34754.3,-0.2354,-0.2751,136.9,96.9,0.525
20.86,31973.2,34687.2,-0.0472,-0.3546,136.9,96.9,0.525
20.88,31891.9,34740.9,-0.1567,-0.291,136.9,96.9,0.525
20.9,31893.3,34599.0,-0.1549,-0.4592,136.9,96.9,0.525
20.92,31853.7,34656.7,-0.2082,-0.3908,136.9,96.9,0.525
20.94,31741.5,34577.7,-0.3594,-0.4845,136.9,96.9,0.525
20.96,31731.2,34540.8,-0.3732,-0.5282,136.9,96.9,0.525
20.98,31695.5,34504.7,-0.4213,-0.5711,136.9,96.9,0.525
21.0,31833.2,34721.5,-0.2358,-0.314,136.9,96.9,0.525
21.02,31968.8,34944.5,-0.0531,-0.0496,136.9,96.9,0.525
21.04,32113.3,35246.3,0.1414,0.3082,136.9,96.9,0.525
21.06,32195.4,35465.9,0.2521,0.5686,136.9,96.9,0.525
21.08,32283.3,35773.8,0.3705,0.9338,136.9,96.9,0.525
21.1,32326.4,35686.2,0.4285,0.8299,136.9,96.9,0.525
21.12,32267.4,35517.2,0.3491,0.6295,136.9,96.9,0.525
21.14,32178.6,35404.7,0.2294,0.496,136.9,96.9,0.525
21.16,32200.3,35298.4,0.2587,0.37,136.9,96.9,0.525
21.18,32004.4,35055.0,-0.0052,0.0814,136.9,96.9,0.525
21.2,32025.2,35050.4,0.0228,0.076,136.9,96.9,0.525
21.22,31954.8,34981.9,-0.072,-0.0052,136.9,96.9,0.525
21.24,32016.3,34884.9,0.0108,-0.1203,136.9,96.9,0.525
21.26,31956.8,34833.7,-0.0693,-0.1809,136.9,96.9,0.525
21.28,31865.5,34758.8,-0.1923,-0.2697,136.9,96.9,0.525
21.3,31859.4,34707.9,-0.2006,-0.3301,136.9,96.9,0.525
21.32,31882.4,34666.2,-0.1695,-0.3796,136.9,96.9,0.525
21.34,31776.7,34619.0,-0.3119,-0.4356,136.9,96.9,0.525
21.36,31770.9,34577.7,-0.3197,-0.4844,136.9,96.9,0.525
21.38,31759.5,34536.1,-0.3351,-0.5338,136.9,96.9,0.525
21.4,31766.1,34538.9,-0.3262,-0.5305,136.9,96.9,0.525
21.42,31738.1,34489.3,-0.3639,-0.5893,136.9,96.9,0.525
21.44,31823.0,34600.0,-0.2495,-0.458,136.9,96.9,0.525
21.46,32016.7,34898.0,0.0113,-0.1048,136.9,96.9,0.525
21.48,32107.5,35294.3,0.1337,0.3652,136.9,96.9,0.525
21.5,32207.3,35584.5,0.2681,0.7093,136.9,96.9,0.525
21.52,32342.8,35773.9,0.4505,0.9338,136.9,96.9,0.525
21.54,32311.4,35746.0,0.4083,0.9007,136.9,96.9,0.525
21.56,32236.5,35604.9,0.3074,0.7335,136.9,96.9,0.525
21.58,32207.0,35318.7,0.2676,0.3941,136.9,96.9,0.525
21.6,32137.9,35241.8,0.1746,0.303,136.9,96.9,0.525
21.62,32038.4,35156.2,0.0405,0.2015,136.9,96.9,0.525
21.64,32052.2,35097.8,0.0592,0.1322,136.9,96.9,0.525
21.66,32034.3,35063.2,0.0351,0.0912,136.9,96.9,0.525
21.68,32002.0,34886.1,-0.0084,-0.1189,136.9,96.9,0.525
21.7,31891.6,34869.4,-0.1571,-0.1387,136.9,96.9,0.525
21.72,31894.1,34816.5,-0.1538,-0.2013,136.9,96.9,0.525
21.74,31842.1,34721.7,-0.2239,-0.3137,136.9,96.9,0.525
21.76,31881.3,34719.7,-0.1711,-0.3161,136.9,96.9,0.525
21.78,31876.8,34658.5,-0.177,-0.3887,136.9,96.9,0.525
21.8,31847.2,34612.1,-0.2169,-0.4437,136.9,96.9,0.525
21.82,31778.1,34546.7,-0.31,-0.5212,136.9,96.9,0.525
21.84,31754.9,34480.8,-0.3413,-0.5994,136.9,96.9,0.525
21.86,31704.1,34536.8,-0.4097,-0.533,136.9,96.9,0.525
21.88,31829.4,34631.1,-0.241,-0.4212,136.9,96.9,0.525
21.9,31973.3,34963.0,-0.0471,-0.0277,136.9,96.9,0.525
21.92,32089.0,35323.8,0.1087,0.4002,136.9,96.9,0.525
21.94,32265.1,35571.0,0.3459,0.6933,136.9,96.9,0.525
21.96,32315.8,35754.8,0.4142,0.9112,136.9,96.9,0.525
21.98,32288.4,35670.6,0.3773,0.8114,136.9,96.9,0.525
22.0,32244.1,35505.0,0.3176,0.6151,136.9,96.9,0.525
22.02,32215.6,35344.8,0.2793,0.4251,136.9,96.9,0.525
22.04,32066.7,35146.9,0.0786,0.1905,136.9,96.9,0.525
22.06,32041.1,35090.7,0.0442,0.1238,136.9,96.9,0.525
22.08,32116.7,35057.6,0.1461,0.0845,136.9,96.9,0.525
22.1,32041.0,34998.2,0.0441,0.0141,136.9,96.9,0.525
22.12,31932.0,35000.1,-0.1027,0.0164,136.9,96.9,0.525
22.14,31799.3,34823.6,-0.2815,-0.1929,136.9,96.9,0.525
22.16,31933.9,34727.3,-0.1001,-0.3071,136.9,96.9,0.525
22.18,31865.2,34623.4,-0.1927,-0.4303,136.9,96.9,0.525
22.2,31734.2,34710.9,-0.3692,-0.3266,136.9,96.9,0.525
22.22,31779.3,34652.5,-0.3084,-0.3959,136.9,96.9,0.525
22.24,31834.9,34644.8,-0.2335,-0.405,136.9,96.9,0.525
22.26,31805.1,34484.0,-0.2736,-0.5956,136.9,96.9,0.525
22.28,31677.2,34490.9,-0.4459,-0.5874,136.9,96.9,0.525
22.3,31838.0,34531.1,-0.2293,-0.5397,136.9,96.9,0.525
22.32,31881.0,34711.9,-0.1715,-0.3253,136.9,96.9,0.525
22.34,32009.4,34995.7,0.0015,0.0111,136.9,96.9,0.525
22.36,32172.3,35287.2,0.2209,0.3568,136.9,96.9,0.525
22.38,32309.8,35575.4,0.4062,0.6985,136.9,96.9,0.525
22.4,32397.2,35832.6,0.5239,1.0034,136.9,96.9,0.525
22.42,32284.1,35720.6,0.3716,0.8707,136.9,96.9,0.525
22.44,32422.4,35604.2,0.5578,0.7327,136.9,96.9,0.525
22.46,32193.3,35372.4,0.2492,0.4578,136.9,96.9,0.525
22.48,32083.7,35140.8,0.1015,0.1831,136.9,96.9,0.525
22.5,32086.0,35132.2,0.1047,0.1729,136.9,96.9,0.525
22.52,32031.9,35007.4,0.0318,0.025,136.9,96.9,0.525
22.54,32009.2,35050.5,0.0012,0.0761,136.9,96.9,0.525
22.56,31921.2,34854.3,-0.1173,-0.1565,136.9,96.9,0.525
22.58,31909.1,34804.4,-0.1336,-0.2157,136.9,96.9,0.525
22.6,31907.0,34753.6,-0.1364,-0.2759,136.9,96.9,0.525
22.62,31849.8,34724.8,-0.2134,-0.3101,136.9,96.9,0.525
22.64,31837.0,34807.9,-0.2307,-0.2115,136.9,96.9,0.525
22.66,31824.0,34616.2,-0.2482,-0.4389,136.9,96.9,0.525
22.68,31772.7,34615.7,-0.3173,-0.4394,136.9,96.9,0.525
22.7,31811.1,34425.5,-0.2656,-0.6649,136.9,96.9,0.525
22.72,31773.6,34549.4,-0.3161,-0.518,136.9,96.9,0.525
22.74,31784.2,34593.0,-0.3019,-0.4664,136.9,96.9,0.525
22.76,31814.9,34682.3,-0.2605,-0.3605,136.9,96.9,0.525
22.78,32002.2,35036.7,-0.0081,0.0597,136.9,96.9,0.525
22.8,32221.2,35385.1,0.2868,0.4728,136.9,96.9,0.525
22.82,32277.7,35687.0,0.3629,0.8308,136.9,96.9,0.525
22.84,32337.0,35799.9,0.4428,0.9647,136.9,96.9,0.525
22.86,32218.6,35679.4,0.2833,0.8219,136.9,96.9,0.525
22.88,32259.4,35520.3,0.3382,0.6332,136.9,96.9,0.525
22.9,32226.0,35315.2,0.2933,0.39,136.9,96.9,0.525
22.92,32067.8,35117.1,0.0802,0.1551,136.9,96.9,0.525
22.94,32078.2,35080.3,0.0943,0.1114,136.9,96.9,0.525
22.96,31928.2,35119.9,-0.1078,0.1584,136.9,96.9,0.525
22.98,31999.4,35011.5,-0.012,0.0298,136.9,96.9,0.525
23.0,31983.8,34873.5,-0.0329,-0.1337,136.9,96.9,0.525
23.02,31897.4,34814.1,-0.1493,-0.2042,136.9,96.9,0.525
23.04,31893.6,34695.3,-0.1545,-0.345,136.9,96.9,0.525
23.06,31864.3,34678.1,-0.1939,-0.3655,136.9,96.9,0.525
23.08,31738.7,34650.6,-0.363,-0.3981,136.9,96.9,0.525
23.1,31812.2,34613.0,-0.264,-0.4427,136.9,96.9,0.525
23.12,31832.4,34628.1,-0.2369,-0.4248,136.9,96.9,0.525
23.14,31833.5,34551.1,-0.2353,-0.5161,136.9,96.9,0.525
23.16,31670.9,34465.2,-0.4545,-0.6179,136.9,96.9,0.525
23.18,31748.0,34532.2,-0.3506,-0.5385,136.9,96.9,0.525
23.2,31896.1,34772.0,-0.1511,-0.2542,136.9,96.9,0.525
23.22,32177.6,35119.1,0.2281,0.1574,136.9,96.9,0.525
23.24,32263.0,35336.5,0.3431,0.4152,136.9,96.9,0.525
23.26,32270.2,35602.4,0.3528,0.7305,136.9,96.9,0.525
23.28,32356.0,35770.4,0.4683,0.9298,136.9,96.9,0.525
23.3,32336.5,35635.7,0.4421,0.77,136.9,96.9,0.525
23.32,32317.1,35541.4,0.416,0.6582,136.9,96.9,0.525
23.34,32152.2,35398.5,0.1939,0.4887,136.9,96.9,0.525
23.36,32091.9,35240.6,0.1126,0.3015,136.9,96.9,0.525
23.38,32100.7,35053.3,0.1245,0.0794,136.9,96.9,0.525
23.4,31976.5,35177.6,-0.0428,0.2268,136.9,96.9,0.525
23.42,31934.8,35003.0,-0.099,0.0198,136.9,96.9,0.525
23.44,31911.7,34984.8,-0.13,-0.0018,136.9,96.9,0.525
23.46,31858.0,34840.6,-0.2024,-0.1728,136.9,96.9,0.525
23.48,31842.7,34686.3,-0.223,-0.3557,136.9,96.9,0.525
23.5,31871.4,34701.8,-0.1844,-0.3374,136.9,96.9,0.525
23.52,31842.8,34639.2,-0.2228,-0.4116,136.9,96.9,0.525
23.54,31825.0,34701.1,-0.2469,-0.3382,136.9,96.9,0.525
23.56,31860.7,34553.9,-0.1987,-0.5127,136.9,96.9,0.525
23.58,31752.4,34506.0,-0.3447,-0.5696,136.9,96.9,0.525
23.6,31726.9,34415.7,-0.379,-0.6766,136.9,96.9,0.525
23.62,31799.6,34533.4,-0.2811,-0.537,136.9,96.9,0.525
23.64,31893.8,34685.9,-0.1542,-0.3562,136.9,96.9,0.525
23.66,32076.5,35039.9,0.0919,0.0636,136.9,96.9,0.525
23.68,32133.9,35424.3,0.1693,0.5194,136.9,96.9,0.525
23.7,32284.6,35664.4,0.3722,0.804,136.9,96.9,0.525
23.72,32399.3,35757.4,0.5267,0.9143,136.9,96.9,0.525
23.74,32244.7,35708.2,0.3185,0.856,136.9,96.9,0.525
23.76,32229.5,35449.3,0.298,0.549,136.9,96.9,0.525
23.78,32189.5,35341.6,0.2441,0.4213,136.9,96.9,0.525
23.8,32143.9,35193.4,0.1827,0.2455,136.9,96.9,0.525
23.82,32068.8,35157.0,0.0816,0.2023,136.9,96.9,0.525
23.84,31966.6,34975.8,-0.0561,-0.0125,136.9,96.9,0.525
23.86,32007.8,34961.6,-0.0006,-0.0293,136.9,96.9,0.525
23.88,31948.8,34835.6,-0.0801,-0.1787,136.9,96.9,0.525
23.9,31931.5,34776.9,-0.1033,-0.2483,136.9,96.9,0.525
23.92,31883.8,34652.0,-0.1676,-0.3964,136.9,96.9,0.525
23.94,31881.5,34660.4,-0.1707,-0.3865,136.9,96.9,0.525
23.96,31855.8,34733.2,-0.2054,-0.3001,136.9,96.9,0.525
23.98,31809.5,34627.3,-0.2677,-0.4257,136.9,96.9,0.525
24.0,31776.6,34587.0,-0.3121,-0.4734,136.9,96.9,0.525
24.02,31753.5,34549.1,-0.3432,-0.5184,136.9,96.9,0.525
24.04,31671.3,34446.3,-0.4538,-0.6403,136.9,96.9,0.525
24.06,31831.0,34509.2,-0.2387,-0.5657,136.9,96.9,0.525
24.08,31825.1,34785.5,-0.2467,-0.2381,136.9,96.9,0.525
24.1,32012.3,35112.4,0.0054,0.1495,136.9,96.9,0.525
24.12,32264.4,35495.2,0.345,0.6033,136.9,96.9,0.525
24.14,32339.8,35697.0,0.4466,0.8427,136.9,96.9,0.525
24.16,32343.3,35781.1,0.4512,0.9424,136.9,96.9,0.525
24.18,32350.0,35617.3,0.4603,0.7482,136.9,96.9,0.525
24.2,32250.0,35426.1,0.3255,0.5214,136.9,96.9,0.525
24.22,32185.7,35374.5,0.239,0.4603,136.9,96.9,0.525
24.24,32111.0,35268.3,0.1383,0.3343,136.9,96.9,0.525
24.26,31980.6,35114.8,-0.0373,0.1523,136.9,96.9,0.525
24.28,32070.5,35052.8,0.0839,0.0788,136.9,96.9,0.525
24.3,31915.6,34942.6,-0.1248,-0.0519,136.9,96.9,0.525
24.32,31955.3,34984.5,-0.0713,-0.0021,136.9,96.9,0.525
24.34,31911.4,34778.9,-0.1305,-0.2459,136.9,96.9,0.525
24.36,31919.4,34639.3,-0.1196,-0.4115,136.9,96.9,0.525
24.38,31912.9,34718.1,-0.1284,-0.318,136.9,96.9,0.525
24.4,31885.1,34675.9,-0.1659,-0.368,136.9,96.9,0.525
24.42,31893.5,34611.0,-0.1546,-0.445,136.9,96.9,0.525
24.44,31710.2,34607.9,-0.4015,-0.4487,136.9,96.9,0.525
24.46,31758.4,34499.2,-0.3366,-0.5775,136.9,96.9,0.525
24.48,31747.6,34429.7,-0.3512,-0.66,136.9,96.9,0.525
24.5,31798.9,34430.2,-0.282,-0.6594,136.9,96.9,0.525
24.52,31918.3,34722.6,-0.1211,-0.3127,136.9,96.9,0.525
24.54,32095.6,35171.7,0.1176,0.2198,136.9,96.9,0.525
24.56,32190.2,35458.6,0.2451,0.56,136.9,96.9,0.525
24.58,32308.9,35728.3,0.4049,0.8798,136.9,96.9,0.525
24.6,32394.1,35793.9,0.5197,0.9576,136.9,96.9,0.525
24.62,32259.8,35707.3,0.3389,0.8549,136.9,96.9,0.525
24.64,32236.1,35391.5,0.3068,0.4804,136.9,96.9,0.525
24.66,32075.0,35255.5,0.0898,0.3191,136.9,96.9,0.525
24.68,32017.5,35066.4,0.0124,0.095,136.9,96.9,0.525
24.7,32048.7,35104.6,0.0545,0.1402,136.9,96.9,0.525
24.72,31913.6,35073.6,-0.1275,0.1035,136.9,96.9,0.525
24.74,31988.6,34993.7,-0.0265,0.0088,136.9,96.9,0.525
24.76,31940.8,34923.7,-0.0908,-0.0742,136.9,96.9,0.525
24.78,31868.8,34734.3,-0.1878,-0.2989,136.9,96.9,0.525
24.8,31871.4,34761.3,-0.1844,-0.2668,136.9,96.9,0.525
24.82,31867.2,34575.5,-0.1901,-0.4871,136.9,96.9,0.525
24.84,31848.5,34564.7,-0.2152,-0.4999,136.9,96.9,0.525
24.86,31701.5,34504.8,-0.4132,-0.5709,136.9,96.9,0.525
24.88,31835.9,34627.0,-0.2321,-0.4261,136.9,96.9,0.525
24.9,31750.7,34435.4,-0.347,-0.6533,136.9,96.9,0.525
24.92,31703.5,34511.4,-0.4105,-0.5632,136.9,96.9,0.525
24.94,31770.7,34500.8,-0.32,-0.5757,136.9,96.9,0.525
24.96,31884.5,34794.8,-0.1668,-0.227,136.9,96.9,0.525
24.98,32118.7,35162.0,0.1488,0.2083,136.9,96.9,0.525
25.0,32296.3,35481.7,0.388,0.5874,136.9,96.9,0.525
25.02,32320.3,35694.7,0.4203,0.8399,136.9,96.9,0.525
25.04,32456.5,35821.9,0.6038,0.9908,136.9,96.9,0.525
25.06,32352.5,35668.9,0.4637,0.8093,136.9,96.9,0.525
25.08,32212.1,35449.0,0.2745,0.5487,136.9,96.9,0.525
25.1,32167.5,35321.3,0.2144,0.3972,136.9,96.9,0.525
25.12,32060.8,35077.7,0.0708,0.1083,136.9,96.9,0.525
25.14,31979.5,35056.0,-0.0387,0.0827,136.9,96.9,0.525
25.16,31980.8,35013.2,-0.0369,0.0319,136.9,96.9,0.525
25.18,32006.3,34930.8,-0.0026,-0.0659,136.9,96.9,0.525
25.2,31933.3,34785.1,-0.1009,-0.2385,136.9,96.9,0.525
25.22,32025.7,34697.2,0.0234,-0.3428,136.9,96.9,0.525
25.24,31867.2,34599.6,-0.1901,-0.4585,136.9,96.9,0.525
25.26,31870.8,34668.4,-0.1851,-0.377,136.9,96.9,0.525
25.28,31893.2,34661.0,-0.155,-0.3858,136.9,96.9,0.525
25.3,31902.5,34625.0,-0.1425,-0.4284,136.9,96.9,0.525
25.32,31759.5,34545.2,-0.3351,-0.523,136.9,96.9,0.525
25.34,31738.0,34484.1,-0.364,-0.5954,136.9,96.9,0.525
25.36,31662.4,34430.7,-0.4658,-0.6588,136.9,96.9,0.525
25.38,31830.5,34549.7,-0.2395,-0.5178,136.9,96.9,0.525
25.4,31915.2,34889.9,-0.1253,-0.1143,136.9,96.9,0.525
25.42,32101.6,35267.2,0.1257,0.3331,136.9,96.9,0.525
25.44,32294.0,35486.7,0.3849,0.5933,136.9,96.9,0.525
25.46,32413.2,35685.5,0.5454,0.829,136.9,96.9,0.525
25.48,32399.3,35710.0,0.5267,0.8581,136.9,96.9,0.525
25.5,32289.1,35654.1,0.3783,0.7918,136.9,96.9,0.525
25.52,32193.2,35430.4,0.2492,0.5266,136.9,96.9,0.525
25.54,32162.7,35261.5,0.208,0.3263,136.9,96.9,0.525
25.56,32047.3,35123.0,0.0525,0.1621,136.9,96.9,0.525
25.58,31965.7,34993.0,-0.0573,0.0079,136.9,96.9,0.525
25.6,31996.5,35106.0,-0.0159,0.1419,136.9,96.9,0.525
25.62,32004.8,34948.3,-0.0047,-0.0451,136.9,96.9,0.525
25.64,31977.4,34821.1,-0.0416,-0.1958,136.9,96.9,0.525
25.66,31837.7,34714.5,-0.2298,-0.3222,136.9,96.9,0.525
25.68,31867.5,34719.3,-0.1896,-0.3166,136.9,96.9,0.525
25.7,31866.8,34639.0,-0.1905,-0.4118,136.9,96.9,0.525
25.72,31846.9,34693.6,-0.2173,-0.3471,136.9,96.9,0.525
25.74,31841.5,34594.7,-0.2246,-0.4644,136.9,96.9,0.525
25.76,31831.6,34527.4,-0.2379,-0.5442,136.9,96.9,0.525
25.78,31698.2,34470.1,-0.4176,-0.6121,136.9,96.9,0.525
25.8,31635.4,34519.8,-0.5022,-0.5532,136.9,96.9,0.525
25.82,31831.7,34657.4,-0.2378,-0.3901,136.9,96.9,0.525
25.84,31944.2,34817.9,-0.0863,-0.1997,136.9,96.9,0.525
25.86,32089.5,35164.4,0.1094,0.2112,136.9,96.9,0.525
25.88,32288.4,35513.0,0.3773,0.6245,136.9,96.9,0.525
25.9,32355.1,35779.4,0.4672,0.9404,136.9,96.9,0.525
25.92,32420.8,35731.6,0.5556,0.8836,136.9,96.9,0.525
25.94,32251.6,35549.3,0.3277,0.6675,136.9,96.9,0.525
25.96,32247.4,35430.2,0.3221,0.5263,136.9,96.9,0.525
25.98,32157.3,35294.2,0.2007,0.3651,136.9,96.9,0.525
26.0,32097.0,35146.7,0.1195,0.1902,136.9,96.9,0.525
26.02,32038.9,35063.4,0.0413,0.0914,136.9,96.9,0.525
26.04,32061.0,35086.2,0.071,0.1185,136.9,96.9,0.525
26.06,31908.1,35011.1,-0.1349,0.0294,136.9,96.9,0.525
26.08,31961.6,34889.5,-0.0629,-0.1148,136.9,96.9,0.525
26.1,31858.2,34736.6,-0.2021,-0.2961,136.9,96.9,0.525
26.12,31895.5,34701.9,-0.1519,-0.3372,136.9,96.9,0.525
26.14,31867.8,34731.2,-0.1892,-0.3026,136.9,96.9,0.525
26.16,31834.5,34698.1,-0.2341,-0.3417,136.9,96.9,0.525
26.18,31805.7,34582.0,-0.2728,-0.4794,136.9,96.9,0.525
26.2,31744.0,34502.0,-0.356,-0.5742,136.9,96.9,0.525
26.22,31704.9,34492.4,-0.4086,-0.5856,136.9,96.9,0.525
26.24,31743.7,34426.4,-0.3564,-0.6639,136.9,96.9,0.525
26.26,31933.6,34516.3,-0.1005,-0.5573,136.9,96.9,0.525
26.28,31970.6,34936.3,-0.0508,-0.0593,136.9,96.9,0.525
26.3,32120.4,35261.7,0.151,0.3266,136.9,96.9,0.525
26.32,32247.0,35534.6,0.3215,0.6501,136.9,96.9,0.525
26.34,32338.7,35726.4,0.445,0.8775,136.9,96.9,0.525
26.36,32295.3,35640.1,0.3866,0.7752,136.9,96.9,0.525
26.38,32175.2,35526.4,0.2249,0.6403,136.9,96.9,0.525
26.4,32273.9,35320.5,0.3578,0.3963,136.9,96.9,0.525
26.42,32115.4,35264.8,0.1443,0.3302,136.9,96.9,0.525
26.44,32183.5,35098.1,0.236,0.1325,136.9,96.9,0.525
26.46,32074.5,35118.5,0.0892,0.1567,136.9,96.9,0.525
26.48,31994.2,35056.1,-0.0189,0.0827,136.9,96.9,0.525
26.5,31928.7,34927.2,-0.1072,-0.0701,136.9,96.9,0.525
26.52,31887.0,34836.7,-0.1633,-0.1774,136.9,96.9,0.525
26.54,31857.0,34768.4,-0.2037,-0.2584,136.9,96.9,0.525
26.56,31819.9,34683.7,-0.2537,-0.3589,136.9,96.9,0.525
26.58,31782.8,34758.2,-0.3037,-0.2705,136.9,96.9,0.525
26.6,31827.2,34674.1,-0.2439,-0.3702,136.9,96.9,0.525
26.62,31780.9,34641.5,-0.3062,-0.4088,136.9,96.9,0.525
26.64,31831.9,34495.0,-0.2375,-0.5826,136.9,96.9,0.525
26.66,31652.1,34526.2,-0.4797,-0.5456,136.9,96.9,0.525
26.68,31707.2,34447.2,-0.4055,-0.6392,136.9,96.9,0.525
26.7,31872.8,34530.5,-0.1824,-0.5404,136.9,96.9,0.525
26.72,31979.6,34907.4,-0.0386,-0.0936,136.9,96.9,0.525
26.74,32101.0,35279.6,0.1248,0.3477,136.9,96.9,0.525
26.76,32247.7,35638.6,0.3225,0.7734,136.9,96.9,0.525
26.78,32415.7,35754.0,0.5488,0.9103,136.9,96.9,0.525
26.8,32321.3,35725.2,0.4216,0.8761,136.9,96.9,0.525
26.82,32366.0,35555.5,0.4819,0.675,136.9,96.9,0.525
26.84,32151.4,35363.7,0.1927,0.4475,136.9,96.9,0.525
26.86,32162.6,35177.6,0.2079,0.2268,136.9,96.9,0.525
26.88,32028.2,35168.3,0.0269,0.2158,136.9,96.9,0.525
26.9,32046.4,35165.0,0.0514,0.2119,136.9,96.9,0.525
26.92,31989.9,35006.1,-0.0247,0.0234,136.9,96.9,0.525
26.94,31894.4,34879.5,-0.1533,-0.1266,136.9,96.9,0.525
26.96,31923.0,34892.9,-0.1149,-0.1108,136.9,96.9,0.525
26.98,31930.2,34754.1,-0.1051,-0.2754,136.9,96.9,0.525
27.0,31892.9,34736.9,-0.1554,-0.2958,136.9,96.9,0.525
27.02,31868.0,34704.3,-0.1889,-0.3344,136.9,96.9,0.525
27.04,31833.8,34697.8,-0.235,-0.3421,136.9,96.9,0.525
27.06,31714.7,34566.8,-0.3954,-0.4974,136.9,96.9,0.525
27.08,31806.1,34460.9,-0.2723,-0.623,136.9,96.9,0.525
27.1,31776.5,34461.4,-0.3121,-0.6224,136.9,96.9,0.525
27.12,31721.4,34587.3,-0.3864,-0.4732,136.9,96.9,0.525
27.14,31876.8,34723.1,-0.1771,-0.3122,136.9,96.9,0.525
27.16,32094.9,34910.7,0.1166,-0.0896,136.9,96.9,0.525
27.18,32161.2,35299.6,0.2059,0.3715,136.9,96.9,0.525
27.2,32265.2,35616.6,0.3461,0.7473,136.9,96.9,0.525
27.22,32298.9,35720.7,0.3915,0.8708,136.9,96.9,0.525
27.24,32314.9,35662.2,0.413,0.8014,136.9,96.9,0.525
27.26,32273.3,35527.9,0.357,0.6422,136.9,96.9,0.525
27.28,32154.9,35406.2,0.1975,0.4979,136.9,96.9,0.525
27.3,32060.1,35242.8,0.0698,0.3042,136.9,96.9,0.525
27.32,32088.6,35094.7,0.1082,0.1285,136.9,96.9,0.525
27.34,31999.5,35078.8,-0.0119,0.1097,136.9,96.9,0.525
27.36,32011.9,35014.6,0.0049,0.0335,136.9,96.9,0.525
27.38,31950.0,34900.2,-0.0785,-0.1021,136.9,96.9,0.525
27.4,31825.4,34885.6,-0.2463,-0.1194,136.9,96.9,0.525
27.42,31843.5,34759.8,-0.2219,-0.2686,136.9,96.9,0.525
27.44,31858.4,34644.1,-0.2019,-0.4058,136.9,96.9,0.525
27.46,31889.1,34694.1,-0.1605,-0.3465,136.9,96.9,0.525
27.48,31842.8,34726.1,-0.2228,-0.3086,136.9,96.9,0.525
27.5,31852.3,34580.2,-0.2101,-0.4816,136.9,96.9,0.525
27.52,31741.8,34503.5,-0.3589,-0.5724,136.9,96.9,0.525
27.54,31663.0,34386.3,-0.4651,-0.7114,136.9,96.9,0.525
27.56,31806.3,34524.9,-0.272,-0.5472,136.9,96.9,0.525
27.58,31809.9,34735.7,-0.2672,-0.2972,136.9,96.9,0.525
27.6,32010.3,35015.0,0.0028,0.034,136.9,96.9,0.525
27.62,32193.0,35397.1,0.2488,0.4871,136.9,96.9,0.525
27.64,32361.2,35629.3,0.4753,0.7624,136.9,96.9,0.525
27.66,32365.3,35675.3,0.481,0.817,136.9,96.9,0.525
27.68,32308.8,35770.7,0.4047,0.9301,136.9,96.9,0.525
27.7,32353.6,35536.8,0.4651,0.6527,136.9,96.9,0.525
27.72,32178.4,35287.0,0.2292,0.3566,136.9,96.9,0.525
27.74,32149.9,35281.0,0.1908,0.3494,136.9,96.9,0.525
27.76,32038.9,35175.7,0.0412,0.2246,136.9,96.9,0.525
27.78,32039.6,34967.1,0.0423,-0.0227,136.9,96.9,0.525
27.8,31916.4,34959.0,-0.1237,-0.0324,136.9,96.9,0.525
27.82,32011.1,34909.2,0.0039,-0.0914,136.9,96.9,0.525
27.84,31875.7,34832.3,-0.1786,-0.1826,136.9,96.9,0.525
27.86,31870.0,34694.7,-0.1863,-0.3458,136.9,96.9,0.525
27.88,31821.3,34696.9,-0.2518,-0.3432,136.9,96.9,0.525
27.9,31766.9,34640.0,-0.3251,-0.4107,136.9,96.9,0.525
27.92,31792.8,34695.1,-0.2902,-0.3453,136.9,96.9,0.525
27.94,31788.7,34603.4,-0.2957,-0.454,136.9,96.9,0.525
27.96,31723.4,34463.6,-0.3837,-0.6197,136.9,96.9,0.525
27.98,31763.8,34419.1,-0.3292,-0.6725,136.9,96.9,0.525
28.0,31743.1,34511.9,-0.3572,-0.5626,136.9,96.9,0.525
28.02,31782.6,34701.5,-0.304,-0.3377,136.9,96.9,0.525
28.04,32064.1,35008.2,0.0752,0.026,136.9,96.9,0.525
28.06,32199.1,35369.8,0.2571,0.4547,136.9,96.9,0.525
28.08,32243.1,35679.2,0.3164,0.8216,136.9,96.9,0.525
28.1,32299.5,35795.4,0.3922,0.9593,136.9,96.9,0.525
28.12,32235.4,35695.4,0.306,0.8407,136.9,96.9,0.525
28.14,32266.9,35501.3,0.3483,0.6106,136.9,96.9,0.525
28.16,32188.5,35349.2,0.2428,0.4303,136.9,96.9,0.525
28.18,32096.5,35268.5,0.1188,0.3345,136.9,96.9,0.525
28.2,32020.3,35230.9,0.0162,0.29,136.9,96.9,0.525
28.22,32017.8,35104.3,0.0128,0.1399,136.9,96.9,0.525
28.24,31998.1,35068.7,-0.0136,0.0977,136.9,96.9,0.525
28.26,31916.4,34911.7,-0.1237,-0.0885,136.9,96.9,0.525
28.28,31860.1,34814.7,-0.1996,-0.2035,136.9,96.9,0.525
28.3,31818.0,34740.0,-0.2562,-0.292,136.9,96.9,0.525
28.32,31853.0,34655.3,-0.2091,-0.3924,136.9,96.9,0.525
28.34,31916.9,34729.9,-0.1231,-0.304,136.9,96.9,0.525
28.36,31827.9,34669.2,-0.2429,-0.376,136.9,96.9,0.525
28.38,31806.3,34527.9,-0.2721,-0.5436,136.9,96.9,0.525
28.4,31757.3,34519.3,-0.338,-0.5538,136.9,96.9,0.525
28.42,31642.4,34484.9,-0.4928,-0.5945,136.9,96.9,0.525
28.44,31739.2,34568.9,-0.3624,-0.4949,136.9,96.9,0.525
28.46,31794.9,34667.0,-0.2874,-0.3786,136.9,96.9,0.525
28.48,31988.8,35089.4,-0.0262,0.1223,136.9,96.9,0.525
28.5,32171.8,35344.0,0.2203,0.4241,136.9,96.9,0.525
28.52,32329.5,35661.0,0.4327,0.8,136.9,96.9,0.525
28.54,32417.5,35737.5,0.5512,0.8907,136.9,96.9,0.525
28.56,32214.8,35689.5,0.2782,0.8337,136.9,96.9,0.525
28.58,32186.4,35462.2,0.2399,0.5642,136.9,96.9,0.525
28.6,32100.9,35268.2,0.1248,0.3343,136.9,96.9,0.525
28.62,32048.9,35217.4,0.0547,0.274,136.9,96.9,0.525
28.64,32079.9,35063.4,0.0965,0.0914,136.9,96.9,0.525
28.66,32060.6,35039.9,0.0705,0.0635,136.9,96.9,0.525
28.68,31991.2,34924.5,-0.023,-0.0732,136.9,96.9,0.525
28.7,31885.5,34970.6,-0.1653,-0.0187,136.9,96.9,0.525
28.72,31904.2,34830.5,-0.1401,-0.1848,136.9,96.9,0.525
28.74,31855.4,34785.5,-0.2059,-0.2381,136.9,96.9,0.525
28.76,31824.0,34667.0,-0.2482,-0.3786,136.9,96.9,0.525
28.78,31792.4,34655.5,-0.2908,-0.3922,136.9,96.9,0.525
28.8,31912.5,34623.4,-0.129,-0.4303,136.9,96.9,0.525
28.82,31734.2,34544.2,-0.3691,-0.5243,136.9,96.9,0.525
28.84,31839.7,34454.3,-0.227,-0.6308,136.9,96.9,0.525
28.86,31720.0,34519.9,-0.3882,-0.553,136.9,96.9,0.525
28.88,31871.5,34564.5,-0.1842,-0.5001,136.9,96.9,0.525
28.9,31834.3,34739.7,-0.2343,-0.2925,136.9,96.9,0.525
28.92,32065.4,35149.3,0.077,0.1933,136.9,96.9,0.525
28.94,32232.8,35462.0,0.3024,0.5641,136.9,96.9,0.525
28.96,32360.2,35604.7,0.4741,0.7332,136.9,96.9,0.525
28.98,32364.6,35809.9,0.4799,0.9766,136.9,96.9,0.525
29.0,32350.9,35753.6,0.4615,0.9098,136.9,96.9,0.525
29.02,32284.9,35327.1,0.3726,0.404,136.9,96.9,0.525
29.04,32178.4,35298.7,0.2291,0.3704,136.9,96.9,0.525
29.06,32097.4,35144.3,0.1201,0.1873,136.9,96.9,0.525
29.08,32077.5,35155.3,0.0933,0.2003,136.9,96.9,0.525
29.1,32038.0,35106.5,0.04,0.1425,136.9,96.9,0.525
29.12,31890.8,35102.0,-0.1583,0.1371,136.9,96.9,0.525
29.14,31883.0,34902.5,-0.1687,-0.0993,136.9,96.9,0.525
29.16,31929.9,34727.0,-0.1056,-0.3075,136.9,96.9,0.525
29.18,31879.4,34648.8,-0.1735,-0.4002,136.9,96.9,0.525
29.2,31791.1,34672.9,-0.2925,-0.3716,136.9,96.9,0.525
29.22,31900.8,34679.9,-0.1447,-0.3633,136.9,96.9,0.525
29.24,31803.4,34594.3,-0.2759,-0.4649,136.9,96.9,0.525
29.26,31824.8,34599.7,-0.2472,-0.4584,136.9,96.9,0.525
29.28,31708.3,34486.0,-0.404,-0.5933,136.9,96.9,0.525
29.3,31815.3,34404.2,-0.2599,-0.6902,136.9,96.9,0.525
29.32,31819.9,34580.5,-0.2538,-0.4812,136.9,96.9,0.525
29.34,31844.6,34674.3,-0.2205,-0.37,136.9,96.9,0.525
29.36,32068.4,35102.8,0.081,0.1381,136.9,96.9,0.525
29.38,32134.7,35496.8,0.1703,0.6052,136.9,96.9,0.525
29.4,32259.5,35761.9,0.3384,0.9196,136.9,96.9,0.525
29.42,32366.9,35725.9,0.483,0.877,136.9,96.9,0.525
29.44,32273.4,35760.7,0.3571,0.9182,136.9,96.9,0.525
29.46,32256.9,35459.2,0.3349,0.5607,136.9,96.9,0.525
29.48,32110.0,35300.4,0.1371,0.3724,136.9,96.9,0.525
29.5,32085.5,35220.3,0.1041,0.2775,136.9,96.9,0.525
29.52,32011.5,35163.9,0.0044,0.2105,136.9,96.9,0.525
29.54,32011.5,35010.9,0.0044,0.0291,136.9,96.9,0.525
29.56,32004.7,34974.8,-0.0049,-0.0136,136.9,96.9,0.525
29.58,31935.7,34938.1,-0.0977,-0.0572,136.9,96.9,0.525
29.6,31884.5,34773.8,-0.1667,-0.252,136.9,96.9,0.525
29.62,31881.3,34563.9,-0.171,-0.5009,136.9,96.9,0.525
29.64,31814.6,34740.1,-0.2609,-0.2919,136.9,96.9,0.525
29.66,31776.1,34686.9,-0.3127,-0.355,136.9,96.9,0.525
29.68,31899.2,34577.1,-0.1469,-0.4852,136.9,96.9,0.525
29.7,31812.3,34593.4,-0.264,-0.4658,136.9,96.9,0.525
29.72,31792.2,34385.3,-0.2911,-0.7126,136.9,96.9,0.525
29.74,31698.3,34531.2,-0.4175,-0.5396,136.9,96.9,0.525
29.76,31767.4,34596.0,-0.3245,-0.4629,136.9,96.9,0.525
29.78,31810.6,34831.0,-0.2663,-0.1842,136.9,96.9,0.525
29.8,32050.3,35193.7,0.0567,0.2459,136.9,96.9,0.525
29.82,32221.2,35417.0,0.2868,0.5107,136.9,96.9,0.525
29.84,32352.4,35749.6,0.4635,0.905,136.9,96.9,0.525
29.86,32313.2,35672.1,0.4107,0.8132,136.9,96.9,0.525
29.88,32348.4,35566.9,0.4581,0.6885,136.9,96.9,0.525
29.9,32150.1,35462.4,0.191,0.5645,136.9,96.9,0.525
29.92,32040.4,35312.9,0.0432,0.3873,136.9,96.9,0.525
29.94,32071.0,35131.9,0.0844,0.1726,136.9,96.9,0.525
29.96,32021.1,35140.3,0.0173,0.1826,136.9,96.9,0.525
29.98,31958.3,35093.1,-0.0674,0.1266,136.9,96.9,0.525
30.0,33234.8,32434.1,1.6521,-3.0263,136.9,96.9,0.525
30.02,29346.7,34565.9,-3.5849,-0.4985,136.9,96.9,0.525
30.04,29394.0,34039.6,-3.5212,-1.1225,136.9,96.9,0.525
30.06,31673.9,35292.6,-0.4503,0.3631,136.9,96.9,0.525
30.08,33280.4,33958.4,1.7135,-1.2188,136.9,96.9,0.525
30.1,32842.6,38475.9,1.1238,4.1377,136.9,96.9,0.525
30.12,33401.7,36395.1,1.8769,1.6705,136.9,96.9,0.525
30.14,28354.8,33629.7,-4.9209,-1.6085,136.9,96.9,0.525
30.16,32581.3,32659.4,0.7719,-2.7591,136.9,96.9,0.525
30.18,31460.1,35595.0,-0.7383,0.7217,136.9,96.9,0.525
30.2,34621.3,35132.3,3.5195,0.1731,136.9,96.9,0.525
30.22,28935.3,38056.0,-4.139,3.6399,136.9,96.9,0.525
30.24,37248.0,33387.6,7.0575,-1.8957,136.9,96.9,0.525
30.26,28671.0,37848.9,-4.495,3.3942,136.9,96.9,0.525
30.28,31053.3,35528.7,-1.2863,0.6431,136.9,96.9,0.525
30.3,33149.6,37491.9,1.5372,2.971,136.9,96.9,0.525
30.32,28919.6,36168.5,-4.1603,1.4018,136.9,96.9,0.525
30.34,31384.8,32074.2,-0.8398,-3.453,136.9,96.9,0.525
30.36,31671.4,38873.7,-0.4537,4.6094,136.9,96.9,0.525
30.38,30073.3,27480.5,-2.6063,-8.8998,136.9,96.9,0.525
30.4,29397.0,36117.5,-3.5171,1.3413,136.9,96.9,0.525
30.42,35779.0,36987.9,5.0789,2.3733,136.9,96.9,0.525
30.44,32387.2,32168.9,0.5104,-3.3407,136.9,96.9,0.525
30.46,35648.4,33096.1,4.903,-2.2412,136.9,96.9,0.525
30.48,32538.8,32773.3,0.7145,-2.6241,136.9,96.9,0.525
30.5,32295.0,39112.9,0.3862,4.893,136.9,96.9,0.525
30.52,31392.6,34394.3,-0.8292,-0.7019,136.9,96.9,0.525
30.54,28478.8,38090.6,-4.754,3.6808,136.9,96.9,0.525
30.56,35287.6,30274.7,4.417,-5.5866,136.9,96.9,0.525
30.58,32393.0,34361.5,0.5182,-0.7409,136.9,96.9,0.525
30.6,30073.9,31374.1,-2.6055,-4.2831,136.9,96.9,0.525
30.62,33522.6,35198.0,2.0398,0.2511,136.9,96.9,0.525
30.64,33298.8,30417.3,1.7382,-5.4176,136.9,96.9,0.525
30.66,36038.4,32651.5,5.4283,-2.7685,136.9,96.9,0.525
30.68,35556.8,37996.1,4.7797,3.5687,136.9,96.9,0.525
30.7,34298.5,35085.0,3.0848,0.117,136.9,96.9,0.525
30.72,35064.3,38726.0,4.1162,4.4343,136.9,96.9,0.525
30.74,30353.9,34937.4,-2.2283,-0.058,136.9,96.9,0.525
30.76,32472.5,34935.5,0.6252,-0.0602,136.9,96.9,0.525
30.78,32438.9,33290.6,0.58,-2.0107,136.9,96.9,0.525
30.8,32394.6,32411.8,0.5203,-3.0527,136.9,96.9,0.525
30.82,35106.9,36943.2,4.1736,2.3204,136.9,96.9,0.525
30.84,31900.1,32347.2,-0.1457,-3.1292,136.9,96.9,0.525
30.86,32354.5,35194.7,0.4664,0.2471,136.9,96.9,0.525
30.88,29606.9,35752.2,-3.2345,0.9081,136.9,96.9,0.525
30.9,29549.1,35590.6,-3.3123,0.7166,136.9,96.9,0.525
30.92,30163.1,31415.6,-2.4852,-4.2339,136.9,96.9,0.525
30.94,30087.6,34466.0,-2.587,-0.617,136.9,96.9,0.525
30.96,30924.8,36377.9,-1.4593,1.65,136.9,96.9,0.525
30.98,33641.3,37083.9,2.1996,2.4872,136.9,96.9,0.525
31.0,36954.2,32527.6,6.6618,-2.9154,136.9,96.9,0.525
31.02,31201.8,37634.4,-1.0862,3.1399,136.9,96.9,0.525
31.04,31911.5,32955.5,-0.1303,-2.408,136.9,96.9,0.525
31.06,32359.1,34818.2,0.4726,-0.1993,136.9,96.9,0.525
31.08,32179.6,37927.3,0.2307,3.4872,136.9,96.9,0.525
31.1,33547.4,32661.8,2.0731,-2.7563,136.9,96.9,0.525
31.12,33923.5,31714.4,2.5797,-3.8796,136.9,96.9,0.525
31.14,34064.9,33517.4,2.7702,-1.7418,136.9,96.9,0.525
31.16,31715.5,33917.3,-0.3944,-1.2676,136.9,96.9,0.525
31.18,32643.2,34069.3,0.8552,-1.0873,136.9,96.9,0.525
31.2,32491.0,32779.9,0.6502,-2.6162,136.9,96.9,0.525
31.22,31490.2,33044.1,-0.6978,-2.303,136.9,96.9,0.525
31.24,32813.3,33994.2,1.0843,-1.1763,136.9,96.9,0.525
31.26,30688.0,34528.6,-1.7783,-0.5428,136.9,96.9,0.525
31.28,31918.6,36679.9,-0.1208,2.0081,136.9,96.9,0.525
31.3,32850.2,35416.5,1.134,0.51,136.9,96.9,0.525
31.32,32732.8,32361.0,0.9759,-3.113,136.9,96.9,0.525
31.34,32633.7,33230.8,0.8425,-2.0816,136.9,96.9,0.525
31.36,32222.8,34116.8,0.289,-1.031,136.9,96.9,0.525
31.38,32332.3,33226.1,0.4364,-2.0872,136.9,96.9,0.525
31.4,30253.5,38491.4,-2.3635,4.1561,136.9,96.9,0.525
31.42,31481.9,33227.4,-0.709,-2.0856,136.9,96.9,0.525
31.44,28032.4,31073.0,-5.3551,-4.6402,136.9,96.9,0.525
31.46,34004.0,32646.9,2.6881,-2.7739,136.9,96.9,0.525
31.48,34911.7,34912.8,3.9107,-0.0871,136.9,96.9,0.525
31.5,30552.8,31993.0,-1.9604,-3.5493,136.9,96.9,0.525
31.52,30672.1,36655.4,-1.7997,1.9791,136.9,96.9,0.525
31.54,32244.6,36050.8,0.3184,1.2622,136.9,96.9,0.525
31.56,30537.7,35899.6,-1.9807,1.083,136.9,96.9,0.525
31.58,33454.5,39054.6,1.948,4.8239,136.9,96.9,0.525
31.6,31865.8,32430.2,-0.1919,-3.0309,136.9,96.9,0.525
31.62,31489.5,35625.9,-0.6987,0.7584,136.9,96.9,0.525
31.64,32093.2,35817.0,0.1145,0.9849,136.9,96.9,0.525
31.66,31938.1,35089.5,-0.0945,0.1224,136.9,96.9,0.525
31.68,32897.4,34821.5,1.1976,-0.1955,136.9,96.9,0.525
31.7,38156.8,37592.7,8.2816,3.0905,136.9,96.9,0.525
31.72,29668.9,35681.2,-3.1509,0.8239,136.9,96.9,0.525
31.74,33590.4,30427.5,2.131,-5.4055,136.9,96.9,0.525
31.76,29909.7,35887.2,-2.8267,1.0682,136.9,96.9,0.525
31.78,29531.9,35112.7,-3.3356,0.1499,136.9,96.9,0.525
31.8,31494.8,33605.1,-0.6915,-1.6378,136.9,96.9,0.525
31.82,31898.2,34867.3,-0.1482,-0.1412,136.9,96.9,0.525
31.84,33249.2,35963.3,1.6715,1.1584,136.9,96.9,0.525
31.86,29014.4,34964.5,-4.0325,-0.0258,136.9,96.9,0.525
31.88,34941.0,39957.1,3.9502,5.894,136.9,96.9,0.525
31.9,26304.8,32871.2,-7.6822,-2.508,136.9,96.9,0.525
31.92,33098.8,32828.3,1.4688,-2.5588,136.9,96.9,0.525
31.94,34920.7,35485.6,3.9228,0.592,136.9,96.9,0.525
31.96,30342.2,37925.6,-2.2441,3.4851,136.9,96.9,0.525
31.98,34926.7,35780.3,3.9309,0.9415,136.9,96.9,0.525
32.0,30232.4,36571.1,-2.3919,1.8792,136.9,96.9,0.525
32.02,32515.7,39870.1,0.6835,5.7908,136.9,96.9,0.525
32.04,32357.2,38474.3,0.4699,4.1358,136.9,96.9,0.525
32.06,29902.2,34851.8,-2.8367,-0.1595,136.9,96.9,0.525
32.08,32097.7,32988.3,0.1204,-2.3691,136.9,96.9,0.525
32.1,32334.7,37641.0,0.4397,3.1478,136.9,96.9,0.525
32.12,34293.2,36395.1,3.0777,1.6705,136.9,96.9,0.525
32.14,32742.9,32754.9,0.9895,-2.6458,136.9,96.9,0.525
32.16,29568.8,36269.1,-3.2858,1.521,136.9,96.9,0.525
32.18,33239.1,30159.8,1.6578,-5.7229,136.9,96.9,0.525
32.2,30561.0,33242.0,-1.9494,-2.0682,136.9,96.9,0.525
32.22,32687.7,34687.1,0.9152,-0.3548,136.9,96.9,0.525
32.24,33624.7,33135.7,2.1772,-2.1944,136.9,96.9,0.525
32.26,35455.7,35282.1,4.6435,0.3507,136.9,96.9,0.525
32.28,32370.5,31170.9,0.4879,-4.524,136.9,96.9,0.525
32.3,32476.8,33034.3,0.6311,-2.3146,136.9,96.9,0.525
32.32,31331.9,34726.6,-0.9111,-0.3079,136.9,96.9,0.525
32.34,33853.7,34351.2,2.4857,-0.7531,136.9,96.9,0.525
32.36,30089.4,32046.0,-2.5846,-3.4864,136.9,96.9,0.525
32.38,30710.2,34889.2,-1.7485,-0.1152,136.9,96.9,0.525
32.4,32297.0,29610.4,0.3888,-6.3744,136.9,96.9,0.525
32.42,32214.9,36309.4,0.2783,1.5688,136.9,96.9,0.525
32.44,30882.1,37939.5,-1.5169,3.5017,136.9,96.9,0.525
32.46,33159.1,33988.9,1.5501,-1.1826,136.9,96.9,0.525
32.48,30472.6,37107.4,-2.0684,2.5151,136.9,96.9,0.525
32.5,30279.1,35112.5,-2.329,0.1496,136.9,96.9,0.525
32.52,36905.3,34691.0,6.5959,-0.3502,136.9,96.9,0.525
32.54,30034.0,38058.3,-2.6592,3.6425,136.9,96.9,0.525
32.56,31436.3,33432.1,-0.7704,-1.8429,136.9,96.9,0.525
32.58,31408.4,37160.3,-0.808,2.5777,136.9,96.9,0.525
32.6,29759.2,36285.7,-3.0293,1.5407,136.9,96.9,0.525
32.62,29955.2,35033.0,-2.7653,0.0553,136.9,96.9,0.525
32.64,30032.9,35083.7,-2.6606,0.1155,136.9,96.9,0.525
32.66,31978.7,30664.1,-0.0398,-5.1249,136.9,96.9,0.525
32.68,33506.1,35408.7,2.0175,0.5009,136.9,96.9,0.525
32.7,34793.4,35081.1,3.7513,0.1123,136.9,96.9,0.525
32.72,32128.4,34957.2,0.1619,-0.0345,136.9,96.9,0.525
32.74,30149.9,35945.3,-2.5031,1.1371,136.9,96.9,0.525
32.76,31267.9,34999.8,-0.9972,0.016,136.9,96.9,0.525
32.78,35291.7,33398.5,4.4225,-1.8827,136.9,96.9,0.525
32.8,30876.8,33686.4,-1.5239,-1.5414,136.9,96.9,0.525
32.82,36595.5,36825.9,6.1786,2.1813,136.9,96.9,0.525
32.84,34681.0,34263.8,3.6,-0.8567,136.9,96.9,0.525
32.86,26893.4,35827.2,-6.8893,0.9971,136.9,96.9,0.525
32.88,31100.9,34166.1,-1.2222,-0.9726,136.9,96.9,0.525
32.9,32862.1,32322.0,1.15,-3.1592,136.9,96.9,0.525
32.92,31194.1,30602.5,-1.0967,-5.198,136.9,96.9,0.525
32.94,32264.3,36646.2,0.3449,1.9681,136.9,96.9,0.525
32.96,28058.8,32612.1,-5.3196,-2.8152,136.9,96.9,0.525
32.98,31552.2,31820.2,-0.6142,-3.7542,136.9,96.9,0.525
33.0,30876.8,35867.0,-1.524,1.0442,136.9,96.9,0.525
33.02,32387.6,33708.3,0.5109,-1.5154,136.9,96.9,0.525
33.04,30736.1,36077.9,-1.7136,1.2943,136.9,96.9,0.525
33.06,33475.2,35157.8,1.9758,0.2034,136.9,96.9,0.525
33.08,28836.8,36270.3,-4.2717,1.5225,136.9,96.9,0.525
33.1,33549.8,33702.8,2.0764,-1.5219,136.9,96.9,0.525
33.12,30214.2,37962.6,-2.4164,3.529,136.9,96.9,0.525
33.14,31881.0,36567.5,-0.1714,1.8748,136.9,96.9,0.525
33.16,29591.2,34589.1,-3.2557,-0.471,136.9,96.9,0.525
33.18,32773.0,32572.4,1.03,-2.8622,136.9,96.9,0.525
33.2,31784.3,36570.7,-0.3016,1.8787,136.9,96.9,0.525
33.22,30541.3,35048.2,-1.9759,0.0734,136.9,96.9,0.525
33.24,32559.8,32507.9,0.7429,-2.9387,136.9,96.9,0.525
33.26,32994.4,33384.9,1.3282,-1.8988,136.9,96.9,0.525
33.28,30690.9,33635.8,-1.7744,-1.6014,136.9,96.9,0.525
33.3,31767.0,35075.5,-0.3249,0.1058,136.9,96.9,0.525
33.32,37115.8,36072.4,6.8795,1.2878,136.9,96.9,0.525
33.34,35147.4,38828.8,4.2282,4.5562,136.9,96.9,0.525
33.36,34107.0,35632.7,2.8268,0.7664,136.9,96.9,0.525
33.38,35401.3,30538.2,4.5702,-5.2743,136.9,96.9,0.525
33.4,30751.0,34788.3,-1.6935,-0.2347,136.9,96.9,0.525
33.42,31700.4,36367.3,-0.4146,1.6375,136.9,96.9,0.525
33.44,34545.6,36080.4,3.4176,1.2973,136.9,96.9,0.525
33.46,32336.0,34413.1,0.4415,-0.6797,136.9,96.9,0.525
33.48,30487.3,39168.9,-2.0486,4.9594,136.9,96.9,0.525
33.5,33557.8,32644.7,2.0872,-2.7765,136.9,96.9,0.525
33.52,31480.3,38624.2,-0.7112,4.3136,136.9,96.9,0.525
33.54,27366.9,33684.9,-6.2516,-1.5431,136.9,96.9,0.525
33.56,32498.2,32888.9,0.6598,-2.4869,136.9,96.9,0.525
33.58,32608.4,33118.7,0.8083,-2.2144,136.9,96.9,0.525
33.6,33189.3,33180.0,1.5908,-2.1419,136.9,96.9,0.525
33.62,32108.4,35492.8,0.1348,0.6006,136.9,96.9,0.525
33.64,32546.5,34956.4,0.7249,-0.0355,136.9,96.9,0.525
33.66,29872.4,34200.4,-2.8769,-0.9319,136.9,96.9,0.525
33.68,34446.4,40207.1,3.284,6.1904,136.9,96.9,0.525
33.7,28597.6,30585.4,-4.5939,-5.2183,136.9,96.9,0.525
33.72,33789.9,33591.0,2.3997,-1.6544,136.9,96.9,0.525
33.74,32396.7,33847.0,0.5232,-1.351,136.9,96.9,0.525
33.76,32317.8,32390.2,0.4169,-3.0782,136.9,96.9,0.525
33.78,32567.4,31062.7,0.7532,-4.6523,136.9,96.9,0.525
33.8,29165.0,34683.7,-3.8296,-0.3589,136.9,96.9,0.525
33.82,32092.7,35108.9,0.1138,0.1453,136.9,96.9,0.525
33.84,30784.1,34527.4,-1.6489,-0.5441,136.9,96.9,0.525
33.86,33908.4,34928.0,2.5594,-0.0692,136.9,96.9,0.525
33.88,29495.4,37801.1,-3.3846,3.3375,136.9,96.9,0.525
33.9,32690.8,37126.6,0.9193,2.5378,136.9,96.9,0.525
33.92,32295.7,32477.3,0.3872,-2.975,136.9,96.9,0.525
33.94,34673.3,32799.1,3.5896,-2.5935,136.9,96.9,0.525
33.96,30623.0,33246.2,-1.8658,-2.0633,136.9,96.9,0.525
33.98,34288.1,38821.0,3.0707,4.5469,136.9,96.9,0.525
34.0,36377.2,30421.6,5.8846,-5.4125,136.9,96.9,0.525
34.02,28639.8,35172.3,-4.537,0.2205,136.9,96.9,0.525
34.04,29946.7,34474.3,-2.7768,-0.6071,136.9,96.9,0.525
34.06,33288.7,34990.9,1.7247,0.0055,136.9,96.9,0.525
34.08,30792.8,32537.8,-1.6372,-2.9033,136.9,96.9,0.525
34.1,33633.2,34011.2,2.1886,-1.1562,136.9,96.9,0.525
34.12,31788.4,33705.8,-0.2961,-1.5184,136.9,96.9,0.525
34.14,31104.9,34585.5,-1.2168,-0.4753,136.9,96.9,0.525
34.16,32412.3,34360.8,0.5442,-0.7417,136.9,96.9,0.525
34.18,32192.0,30566.2,0.2474,-5.2411,136.9,96.9,0.525
34.2,30740.6,33344.5,-1.7075,-1.9467,136.9,96.9,0.525
34.22,30455.3,37132.8,-2.0917,2.5452,136.9,96.9,0.525
34.24,35009.4,36980.6,4.0424,2.3647,136.9,96.9,0.525
34.26,33212.7,34650.6,1.6223,-0.3981,136.9,96.9,0.525
34.28,31782.6,35473.0,-0.3039,0.5771,136.9,96.9,0.525
34.3,32755.7,32177.1,1.0068,-3.3309,136.9,96.9,0.525
34.32,32883.2,33914.4,1.1784,-1.271,136.9,96.9,0.525
34.34,30046.4,34988.2,-2.6424,0.0023,136.9,96.9,0.525
34.36,30181.3,38691.7,-2.4608,4.3936,136.9,96.9,0.525
34.38,30666.2,32279.4,-1.8077,-3.2097,136.9,96.9,0.525
34.4,33162.2,35913.1,1.5542,1.0989,136.9,96.9,0.525
34.42,30501.7,34041.3,-2.0293,-1.1205,136.9,96.9,0.525
34.44,30414.8,36516.0,-2.1463,1.8138,136.9,96.9,0.525
34.46,35384.9,34199.9,4.5481,-0.9324,136.9,96.9,0.525
34.48,35399.0,34302.5,4.5671,-0.8108,136.9,96.9,0.525
34.5,28476.4,37466.2,-4.7572,2.9405,136.9,96.9,0.525
34.52,29084.2,33662.7,-3.9385,-1.5695,136.9,96.9,0.525
34.54,33166.6,36080.5,1.5602,1.2974,136.9,96.9,0.525
34.56,29610.8,36420.5,-3.2292,1.7006,136.9,96.9,0.525
34.58,31593.2,35915.9,-0.5591,1.1022,136.9,96.9,0.525
34.6,35512.2,38065.6,4.7196,3.6511,136.9,96.9,0.525
34.62,35532.0,37010.9,4.7462,2.4006,136.9,96.9,0.525
34.64,31371.0,35732.9,-0.8584,0.8853,136.9,96.9,0.525
34.66,30589.4,38562.3,-1.9112,4.2401,136.9,96.9,0.525
34.68,31812.6,36481.5,-0.2635,1.7728,136.9,96.9,0.525
34.7,31687.6,32267.1,-0.4319,-3.2242,136.9,96.9,0.525
34.72,31402.0,38125.1,-0.8165,3.7217,136.9,96.9,0.525
34.74,36670.1,34444.7,6.2791,-0.6423,136.9,96.9,0.525
34.76,31378.4,38142.7,-0.8483,3.7426,136.9,96.9,0.525
34.78,28875.5,31592.9,-4.2196,-4.0237,136.9,96.9,0.525
34.8,30280.8,34856.7,-2.3268,-0.1536,136.9,96.9,0.525
34.82,29969.1,32557.7,-2.7466,-2.8797,136.9,96.9,0.525
34.84,29659.8,32805.6,-3.1632,-2.5857,136.9,96.9,0.525
34.86,31750.9,34024.8,-0.3467,-1.1401,136.9,96.9,0.525
34.88,34559.1,39530.1,3.4358,5.3877,136.9,96.9,0.525
34.9,35152.7,35222.6,4.2353,0.2802,136.9,96.9,0.525
34.92,30569.4,35441.9,-1.9381,0.5402,136.9,96.9,0.525
34.94,31914.8,33767.8,-0.126,-1.4449,136.9,96.9,0.525
34.96,32804.4,36020.6,1.0723,1.2264,136.9,96.9,0.525
34.98,30617.3,32731.3,-1.8736,-2.6738,136.9,96.9,0.525
35.0,32579.1,34339.5,0.7688,-0.767,136.9,96.9,0.525
35.02,31423.2,34871.9,-0.788,-0.1357,136.9,96.9,0.525
35.04,32938.6,32608.1,1.2531,-2.8199,136.9,96.9,0.525
35.06,30556.5,35276.5,-1.9554,0.344,136.9,96.9,0.525
35.08,33457.3,39008.9,1.9518,4.7697,136.9,96.9,0.525
35.1,34444.6,38604.4,3.2815,4.2901,136.9,96.9,0.525
35.12,33260.5,38154.3,1.6867,3.7563,136.9,96.9,0.525
35.14,33664.8,36723.5,2.2312,2.0598,136.9,96.9,0.525
35.16,32804.7,33976.2,1.0728,-1.1977,136.9,96.9,0.525
35.18,33667.4,33235.9,2.2348,-2.0755,136.9,96.9,0.525
35.2,35550.5,34660.3,4.7711,-0.3865,136.9,96.9,0.525
35.22,33741.6,31095.7,2.3347,-4.6132,136.9,96.9,0.525
35.24,34586.8,39319.9,3.473,5.1384,136.9,96.9,0.525
35.26,32403.5,36584.6,0.5324,1.8951,136.9,96.9,0.525
35.28,31802.6,37304.7,-0.277,2.749,136.9,96.9,0.525
35.3,31492.3,37119.5,-0.695,2.5294,136.9,96.9,0.525
35.32,33881.4,32560.4,2.523,-2.8765,136.9,96.9,0.525
35.34,31995.9,35597.7,-0.0167,0.7249,136.9,96.9,0.525
35.36,35239.4,38477.4,4.3521,4.1395,136.9,96.9,0.525
35.38,32350.2,33137.7,0.4605,-2.192,136.9,96.9,0.525
35.4,35205.5,32608.5,4.3064,-2.8194,136.9,96.9,0.525
35.42,31791.0,35413.5,-0.2926,0.5065,136.9,96.9,0.525
35.44,32036.4,32231.2,0.0379,-3.2668,136.9,96.9,0.525
35.46,30519.8,33227.4,-2.0048,-2.0856,136.9,96.9,0.525
35.48,32606.8,36435.6,0.8062,1.7184,136.9,96.9,0.525
35.5,30039.0,34737.9,-2.6525,-0.2946,136.9,96.9,0.525
35.52,32706.3,35376.5,0.9403,0.4627,136.9,96.9,0.525
35.54,28221.5,38799.1,-5.1005,4.5209,136.9,96.9,0.525
35.56,32149.5,34362.2,0.1903,-0.7401,136.9,96.9,0.525
35.58,29694.0,37089.1,-3.1172,2.4933,136.9,96.9,0.525
35.6,29553.3,37928.0,-3.3067,3.4881,136.9,96.9,0.525
35.62,30214.7,36459.6,-2.4157,1.7469,136.9,96.9,0.525
35.64,33917.5,35321.1,2.5715,0.397,136.9,96.9,0.525
35.66,33506.5,37780.1,2.018,3.3127,136.9,96.9,0.525
35.68,32336.6,35395.3,0.4423,0.4849,136.9,96.9,0.525
35.7,34236.4,32182.0,3.0011,-3.3252,136.9,96.9,0.525
35.72,29010.9,37685.1,-4.0373,3.2,136.9,96.9,0.525
35.74,30045.2,33367.8,-2.6441,-1.9192,136.9,96.9,0.525
35.76,29077.2,37425.3,-3.9479,2.892,136.9,96.9,0.525
35.78,34019.2,35669.5,2.7086,0.8101,136.9,96.9,0.525
35.8,33350.6,36253.6,1.8081,1.5027,136.9,96.9,0.525
35.82,28619.1,33325.8,-4.5649,-1.9689,136.9,96.9,0.525
35.84,32096.1,33473.7,0.1183,-1.7935,136.9,96.9,0.525
35.86,32606.1,32764.6,0.8053,-2.6343,136.9,96.9,0.525
35.88,31508.8,33734.4,-0.6727,-1.4844,136.9,96.9,0.525
35.9,32883.6,32439.2,1.1789,-3.0202,136.9,96.9,0.525
35.92,32298.1,36067.9,0.3904,1.2825,136.9,96.9,0.525
35.94,29655.4,36542.1,-3.1691,1.8448,136.9,96.9,0.525
35.96,33108.5,37446.2,1.4819,2.9167,136.9,96.9,0.525
35.98,30322.7,37307.3,-2.2703,2.7521,136.9,96.9,0.525
36.0,34215.0,36129.7,2.9722,1.3557,136.9,96.9,0.525
36.02,33802.7,33925.4,2.417,-1.2579,136.9,96.9,0.525
36.04,30068.3,32399.8,-2.613,-3.067,136.9,96.9,0.525
36.06,32347.0,35261.2,0.4563,0.326,136.9,96.9,0.525
36.08,31733.9,35482.8,-0.3695,0.5887,136.9,96.9,0.525
36.1,31648.3,31065.0,-0.4848,-4.6496,136.9,96.9,0.525
36.12,32192.0,34975.4,0.2475,-0.0129,136.9,96.9,0.525
36.14,30027.9,33763.4,-2.6674,-1.45,136.9,96.9,0.525
36.16,30560.8,33542.5,-1.9496,-1.712,136.9,96.9,0.525
36.18,28491.4,36571.5,-4.737,1.8796,136.9,96.9,0.525
36.2,32808.2,32780.6,1.0774,-2.6153,136.9,96.9,0.525
36.22,32196.2,32044.4,0.2532,-3.4884,136.9,96.9,0.525
36.24,32122.3,32283.6,0.1535,-3.2047,136.9,96.9,0.525
36.26,30420.2,36822.8,-2.139,2.1776,136.9,96.9,0.525
36.28,32051.5,34351.6,0.0583,-0.7526,136.9,96.9,0.525
36.3,32682.5,32811.8,0.9081,-2.5784,136.9,96.9,0.525
36.32,32313.8,34953.0,0.4116,-0.0395,136.9,96.9,0.525
36.34,28143.4,33970.4,-5.2056,-1.2046,136.9,96.9,0.525
36.36,34472.0,36463.9,3.3184,1.752,136.9,96.9,0.525
36.38,34910.4,34404.9,3.9089,-0.6894,136.9,96.9,0.525
36.4,36263.4,34283.9,5.7314,-0.8329,136.9,96.9,0.525
36.42,31669.7,38641.7,-0.4561,4.3342,136.9,96.9,0.525
36.44,30717.6,33235.6,-1.7384,-2.0758,136.9,96.9,0.525
36.46,29418.7,33960.6,-3.488,-1.2162,136.9,96.9,0.525
36.48,33088.9,34415.2,1.4555,-0.6772,136.9,96.9,0.525
36.5,30024.1,32464.1,-2.6725,-2.9906,136.9,96.9,0.525
36.52,34030.7,34259.4,2.7241,-0.8619,136.9,96.9,0.525
36.54,32733.7,33207.0,0.9772,-2.1098,136.9,96.9,0.525
36.56,31178.2,36401.4,-1.1181,1.6779,136.9,96.9,0.525
36.58,32727.5,34077.0,0.9687,-1.0782,136.9,96.9,0.525
36.6,32548.9,35969.2,0.7282,1.1655,136.9,96.9,0.525
36.62,33463.6,37666.8,1.9602,3.1783,136.9,96.9,0.525
36.64,32067.1,35281.7,0.0793,0.3502,136.9,96.9,0.525
36.66,29194.6,33317.4,-3.7898,-1.9788,136.9,96.9,0.525
36.68,32821.6,37254.9,1.0955,2.6899,136.9,96.9,0.525
36.7,30692.4,34331.3,-1.7723,-0.7767,136.9,96.9,0.525
36.72,33173.2,36149.3,1.569,1.379,136.9,96.9,0.525
36.74,30741.5,32531.0,-1.7063,-2.9113,136.9,96.9,0.525
36.76,34536.1,32138.1,3.4047,-3.3772,136.9,96.9,0.525
36.78,31727.7,34679.2,-0.378,-0.3642,136.9,96.9,0.525
36.8,30513.6,34586.7,-2.0132,-0.4738,136.9,96.9,0.525
36.82,29565.2,33666.9,-3.2906,-1.5645,136.9,96.9,0.525
36.84,30883.7,34640.8,-1.5147,-0.4097,136.9,96.9,0.525
36.86,32316.9,37448.8,0.4157,2.9199,136.9,96.9,0.525
36.88,33136.7,39193.5,1.5199,4.9886,136.9,96.9,0.525
36.9,34653.5,33523.0,3.563,-1.7351,136.9,96.9,0.525
36.92,31017.6,33535.5,-1.3343,-1.7202,136.9,96.9,0.525
36.94,31576.3,28447.3,-0.5819,-7.7535,136.9,96.9,0.525
36.96,31185.8,37762.6,-1.1078,3.292,136.9,96.9,0.525
36.98,31517.4,34608.3,-0.6612,-0.4482,136.9,96.9,0.525
37.0,29811.3,36523.9,-2.9591,1.8232,136.9,96.9,0.525
37.02,36790.2,31943.7,6.4409,-3.6078,136.9,96.9,0.525
37.04,35073.8,33565.7,4.1291,-1.6845,136.9,96.9,0.525
37.06,31849.3,31871.3,-0.2141,-3.6936,136.9,96.9,0.525
37.08,28648.8,36874.1,-4.525,2.2384,136.9,96.9,0.525
37.1,30900.6,32593.9,-1.492,-2.8368,136.9,96.9,0.525
37.12,28462.8,33183.4,-4.7755,-2.1377,136.9,96.9,0.525
37.14,29638.7,36658.2,-3.1916,1.9824,136.9,96.9,0.525
37.16,33336.4,35153.6,1.7889,0.1983,136.9,96.9,0.525
37.18,32691.1,32467.0,0.9198,-2.9872,136.9,96.9,0.525
37.2,30473.9,31534.7,-2.0666,-4.0926,136.9,96.9,0.525
37.22,37781.8,31424.0,7.7765,-4.2239,136.9,96.9,0.525
37.24,31721.5,33146.8,-0.3862,-2.1811,136.9,96.9,0.525
37.26,33614.5,36442.9,2.1634,1.7271,136.9,96.9,0.525
37.28,35237.9,34996.0,4.3501,0.0115,136.9,96.9,0.525
37.3,32080.6,34494.6,0.0974,-0.5831,136.9,96.9,0.525
37.32,33697.4,37040.8,2.2751,2.4361,136.9,96.9,0.525
37.34,31442.1,33952.4,-0.7626,-1.2259,136.9,96.9,0.525
37.36,34744.5,33587.5,3.6854,-1.6586,136.9,96.9,0.525
37.38,35585.2,33403.5,4.8179,-1.8767,136.9,96.9,0.525
37.4,32412.2,37596.3,0.544,3.0947,136.9,96.9,0.525
37.42,35001.1,35796.3,4.0311,0.9605,136.9,96.9,0.525
37.44,31111.0,33525.1,-1.2086,-1.7326,136.9,96.9,0.525
37.46,32212.4,37059.5,0.2749,2.4582,136.9,96.9,0.525
37.48,35997.2,35355.0,5.3728,0.4371,136.9,96.9,0.525
37.5,32051.9,35927.1,0.0587,1.1155,136.9,96.9,0.525
37.52,32516.3,34404.0,0.6842,-0.6905,136.9,96.9,0.525
37.54,30106.9,30484.8,-2.561,-5.3375,136.9,96.9,0.525
37.56,33353.6,38895.8,1.812,4.6356,136.9,96.9,0.525
37.58,31443.0,31308.4,-0.7614,-4.361,136.9,96.9,0.525
37.6,30650.1,31892.6,-1.8294,-3.6683,136.9,96.9,0.525
37.62,34786.0,37884.5,3.7415,3.4364,136.9,96.9,0.525
37.64,30294.5,33181.6,-2.3083,-2.1399,136.9,96.9,0.525
37.66,33529.3,29792.5,2.0488,-6.1584,136.9,96.9,0.525
37.68,37838.1,34236.3,7.8524,-0.8893,136.9,96.9,0.525
37.7,31352.7,35760.7,-0.883,0.9182,136.9,96.9,0.525
37.72,35004.8,39882.7,4.0361,5.8058,136.9,96.9,0.525
37.74,31280.7,35164.5,-0.98,0.2113,136.9,96.9,0.525
37.76,28609.8,35464.5,-4.5775,0.567,136.9,96.9,0.525
37.78,31968.1,36072.8,-0.054,1.2883,136.9,96.9,0.525
37.8,29993.6,33308.3,-2.7136,-1.9896,136.9,96.9,0.525
37.82,27799.3,37809.4,-5.6692,3.3474,136.9,96.9,0.525
37.84,29817.6,29476.7,-2.9507,-6.5329,136.9,96.9,0.525
37.86,29471.9,34386.2,-3.4163,-0.7116,136.9,96.9,0.525
37.88,32678.1,30453.7,0.9022,-5.3744,136.9,96.9,0.525
37.9,30831.9,34984.9,-1.5844,-0.0016,136.9,96.9,0.525
37.92,33538.7,34183.9,2.0613,-0.9515,136.9,96.9,0.525
37.94,31373.1,33957.7,-0.8555,-1.2196,136.9,96.9,0.525
37.96,36009.8,34020.8,5.3898,-1.1448,136.9,96.9,0.525
37.98,32678.1,33417.7,0.9023,-1.8599,136.9,96.9,0.525
38.0,32241.7,34544.5,0.3145,-0.5239,136.9,96.9,0.525
38.02,30511.8,34558.1,-2.0156,-0.5078,136.9,96.9,0.525
38.04,30833.2,35862.2,-1.5827,1.0386,136.9,96.9,0.525
38.06,34093.1,35784.8,2.8081,0.9468,136.9,96.9,0.525
38.08,34348.2,31774.5,3.1517,-3.8084,136.9,96.9,0.525
38.1,29281.1,33483.9,-3.6733,-1.7815,136.9,96.9,0.525
38.12,34608.5,31735.1,3.5024,-3.855,136.9,96.9,0.525
38.14,31881.1,36934.6,-0.1713,2.3101,136.9,96.9,0.525
38.16,30783.5,39456.1,-1.6497,5.2999,136.9,96.9,0.525
38.18,34130.6,35722.7,2.8586,0.8732,136.9,96.9,0.525
38.2,32363.4,36361.5,0.4783,1.6306,136.9,96.9,0.525
38.22,30449.5,37177.6,-2.0995,2.5983,136.9,96.9,0.525
38.24,31671.3,34144.8,-0.4539,-0.9979,136.9,96.9,0.525
38.26,30954.4,34921.5,-1.4195,-0.0768,136.9,96.9,0.525
38.28,28877.9,33148.2,-4.2164,-2.1795,136.9,96.9,0.525
38.3,30593.9,35696.3,-1.9051,0.8418,136.9,96.9,0.525
38.32,27616.3,36476.3,-5.9156,1.7667,136.9,96.9,0.525
38.34,32053.9,35118.1,0.0615,0.1563,136.9,96.9,0.525
38.36,32606.4,34192.1,0.8057,-0.9417,136.9,96.9,0.525
38.38,32272.8,34564.0,0.3563,-0.5007,136.9,96.9,0.525
38.4,30440.6,31498.0,-2.1115,-4.1361,136.9,96.9,0.525
38.42,35257.6,35263.8,4.3766,0.329,136.9,96.9,0.525
38.44,32727.0,33506.2,0.968,-1.755,136.9,96.9,0.525
38.46,28003.1,33836.7,-5.3947,-1.3631,136.9,96.9,0.525
38.48,33334.6,34583.0,1.7864,-0.4782,136.9,96.9,0.525
38.5,31517.4,34537.3,-0.6611,-0.5324,136.9,96.9,0.525
38.52,35396.4,31103.8,4.5636,-4.6036,136.9,96.9,0.525
38.54,32924.3,35591.8,1.2339,0.718,136.9,96.9,0.525
38.56,31632.4,31863.9,-0.5063,-3.7023,136.9,96.9,0.525
38.58,31925.7,34954.3,-0.1112,-0.0379,136.9,96.9,0.525
38.6,28943.8,37120.4,-4.1276,2.5304,136.9,96.9,0.525
38.62,30050.8,33447.4,-2.6366,-1.8247,136.9,96.9,0.525
38.64,33188.6,37558.8,1.5898,3.0503,136.9,96.9,0.525
38.66,28930.2,35303.0,-4.1459,0.3755,136.9,96.9,0.525
38.68,32136.8,38272.2,0.1731,3.8961,136.9,96.9,0.525
38.7,29288.8,35095.4,-3.6629,0.1293,136.9,96.9,0.525
38.72,30717.6,35471.1,-1.7384,0.5749,136.9,96.9,0.525
38.74,30832.8,34643.4,-1.5832,-0.4066,136.9,96.9,0.525
38.76,30253.0,35532.0,-2.3643,0.6471,136.9,96.9,0.525
38.78,32374.9,35668.3,0.4939,0.8086,136.9,96.9,0.525
38.8,31625.9,33377.0,-0.5151,-1.9083,136.9,96.9,0.525
38.82,31466.5,34191.7,-0.7297,-0.9422,136.9,96.9,0.525
38.84,30307.2,36706.8,-2.2912,2.04,136.9,96.9,0.525
38.86,32173.0,35578.4,0.2219,0.7021,136.9,96.9,0.525
38.88,32376.5,36876.7,0.496,2.2415,136.9,96.9,0.525
38.9,32549.8,34411.2,0.7294,-0.6819,136.9,96.9,0.525
38.92,29375.2,38162.8,-3.5466,3.7665,136.9,96.9,0.525
38.94,30999.5,35970.9,-1.3588,1.1674,136.9,96.9,0.525
38.96,29743.8,35914.5,-3.0501,1.1006,136.9,96.9,0.525
38.98,34925.4,37341.9,3.9291,2.7931,136.9,96.9,0.525
39.0,32721.1,36086.5,0.9602,1.3045,136.9,96.9,0.525
39.02,31891.6,35071.9,-0.1571,0.1015,136.9,96.9,0.525
39.04,32033.3,36241.9,0.0338,1.4888,136.9,96.9,0.525
39.06,28380.3,40364.8,-4.8867,6.3775,136.9,96.9,0.525
39.08,29962.2,39860.6,-2.7559,5.7796,136.9,96.9,0.525
39.1,33915.7,39964.0,2.5692,5.9021,136.9,96.9,0.525
39.12,32332.1,35965.5,0.4362,1.1611,136.9,96.9,0.525
39.14,30895.8,33524.5,-1.4984,-1.7333,136.9,96.9,0.525
39.16,32427.9,34531.1,0.5652,-0.5398,136.9,96.9,0.525
39.18,32252.4,35457.6,0.3288,0.5588,136.9,96.9,0.525
39.2,33503.2,30563.3,2.0136,-5.2445,136.9,96.9,0.525
39.22,29312.9,34963.0,-3.6304,-0.0277,136.9,96.9,0.525
39.24,32834.3,34119.0,1.1127,-1.0284,136.9,96.9,0.525
39.26,32147.8,36505.6,0.1879,1.8014,136.9,96.9,0.525
39.28,31592.0,39124.7,-0.5607,4.907,136.9,96.9,0.525
39.3,35419.4,33241.7,4.5946,-2.0686,136.9,96.9,0.525
39.32,32407.0,32470.6,0.5371,-2.983,136.9,96.9,0.525
39.34,37227.1,30051.2,7.0294,-5.8516,136.9,96.9,0.525
39.36,34175.6,33315.9,2.9192,-1.9807,136.9,96.9,0.525
39.38,36975.3,35228.9,6.6903,0.2876,136.9,96.9,0.525
39.4,31036.0,32419.4,-1.3096,-3.0437,136.9,96.9,0.525
39.42,29484.0,35567.8,-3.4,0.6895,136.9,96.9,0.525
39.44,30997.5,33437.1,-1.3615,-1.8369,136.9,96.9,0.525
39.46,33352.3,35427.3,1.8103,0.5228,136.9,96.9,0.525
39.48,33712.9,33699.2,2.296,-1.5262,136.9,96.9,0.525
39.5,35192.0,35097.4,4.2882,0.1317,136.9,96.9,0.525
39.52,34349.0,36278.6,3.1528,1.5323,136.9,96.9,0.525
39.54,32844.6,35609.4,1.1264,0.7388,136.9,96.9,0.525
39.56,32629.2,34763.6,0.8363,-0.2641,136.9,96.9,0.525
39.58,37090.4,35909.0,6.8452,1.0941,136.9,96.9,0.525
39.6,31985.3,35694.4,-0.0309,0.8396,136.9,96.9,0.525
39.62,32627.5,33247.4,0.8341,-2.0619,136.9,96.9,0.525
39.64,28972.0,34128.2,-4.0896,-1.0175,136.9,96.9,0.525
39.66,32064.8,34806.9,0.0762,-0.2128,136.9,96.9,0.525
39.68,35616.0,36031.9,4.8593,1.2398,136.9,96.9,0.525
39.7,32000.3,31919.5,-0.0108,-3.6364,136.9,96.9,0.525
39.72,30789.8,36258.6,-1.6411,1.5086,136.9,96.9,0.525
39.74,30463.3,37132.8,-2.081,2.5452,136.9,96.9,0.525
39.76,30205.4,33311.4,-2.4283,-1.986,136.9,96.9,0.525
39.78,33624.9,35451.0,2.1775,0.551,136.9,96.9,0.525
39.8,30291.6,32922.2,-2.3122,-2.4475,136.9,96.9,0.525
39.82,32050.9,34141.4,0.0574,-1.0019,136.9,96.9,0.525
39.84,33639.5,34335.6,2.1972,-0.7716,136.9,96.9,0.525
39.86,32772.5,35662.8,1.0294,0.8022,136.9,96.9,0.525
39.88,34323.6,38008.2,3.1186,3.5831,136.9,96.9,0.525
39.9,32485.1,33695.9,0.6423,-1.5301,136.9,96.9,0.525
39.92,32844.1,35249.5,1.1258,0.312,136.9,96.9,0.525
39.94,33382.5,37608.9,1.851,3.1097,136.9,96.9,0.525
39.96,30544.0,35879.8,-1.9723,1.0594,136.9,96.9,0.525
39.98,29986.0,36519.5,-2.7238,1.8179,136.9,96.9,0.525
40.0,32065.0,33641.8,0.0765,-1.5943,136.9,96.9,0.525
40.02,31314.8,35334.8,-0.9341,0.4132,136.9,96.9,0.525
40.04,31513.3,36154.6,-0.6667,1.3853,136.9,96.9,0.525
40.06,31161.1,33557.6,-1.1411,-1.6941,136.9,96.9,0.525
40.08,31969.6,31253.4,-0.0521,-4.4262,136.9,96.9,0.525
40.1,34314.1,36552.8,3.1058,1.8574,136.9,96.9,0.525
40.12,32162.8,36917.3,0.2082,2.2896,136.9,96.9,0.525
40.14,32519.0,36088.0,0.6879,1.3063,136.9,96.9,0.525
40.16,31160.5,34282.7,-1.1419,-0.8343,136.9,96.9,0.525
40.18,34204.9,36254.3,2.9587,1.5035,136.9,96.9,0.525
40.2,32991.8,32748.1,1.3247,-2.6539,136.9,96.9,0.525
40.22,29478.1,34139.6,-3.408,-1.0039,136.9,96.9,0.525
40.24,31633.7,33178.5,-0.5045,-2.1435,136.9,96.9,0.525
40.26,32664.5,35931.9,0.8839,1.1213,136.9,96.9,0.525
40.28,34731.3,34175.5,3.6678,-0.9615,136.9,96.9,0.525
40.3,34391.8,32612.7,3.2105,-2.8144,136.9,96.9,0.525
40.32,32314.9,31684.3,0.413,-3.9153,136.9,96.9,0.525
40.34,31886.6,33375.6,-0.1639,-1.9099,136.9,96.9,0.525
40.36,30406.4,36159.3,-2.1576,1.3908,136.9,96.9,0.525
40.38,32672.6,34326.0,0.8948,-0.783,136.9,96.9,0.525
40.4,33867.1,36036.0,2.5037,1.2446,136.9,96.9,0.525
40.42,37309.3,36126.9,7.1401,1.3525,136.9,96.9,0.525
40.44,32747.8,34388.5,0.9961,-0.7088,136.9,96.9,0.525
40.46,33645.5,34074.8,2.2053,-1.0808,136.9,96.9,0.525
40.48,29283.3,37408.4,-3.6703,2.8719,136.9,96.9,0.525
40.5,33985.1,34772.4,2.6627,-0.2537,136.9,96.9,0.525
40.52,34928.1,35969.2,3.9328,1.1654,136.9,96.9,0.525
40.54,32804.5,34177.6,1.0725,-0.959,136.9,96.9,0.525
40.56,29648.6,34951.7,-3.1783,-0.0411,136.9,96.9,0.525
40.58,29273.2,35440.0,-3.6839,0.5379,136.9,96.9,0.525
40.6,33778.9,34836.9,2.3849,-0.1772,136.9,96.9,0.525
40.62,32973.3,35556.0,1.2998,0.6755,136.9,96.9,0.525
40.64,31198.0,33650.8,-1.0913,-1.5836,136.9,96.9,0.525
40.66,34406.6,36920.3,3.2304,2.2932,136.9,96.9,0.525
40.68,31678.5,35708.9,-0.4441,0.8568,136.9,96.9,0.525
40.7,32563.5,33069.6,0.7478,-2.2727,136.9,96.9,0.525
40.72,31289.7,33678.9,-0.9679,-1.5502,136.9,96.9,0.525
40.74,32749.8,37498.7,0.9988,2.979,136.9,96.9,0.525
40.76,32692.2,37591.9,0.9212,3.0895,136.9,96.9,0.525
40.78,34763.8,34693.0,3.7115,-0.3478,136.9,96.9,0.525
40.8,35010.1,34464.5,4.0433,-0.6187,136.9,96.9,0.525
40.82,32087.6,34150.2,0.1069,-0.9914,136.9,96.9,0.525
40.84,31044.2,32706.6,-1.2985,-2.7031,136.9,96.9,0.525
40.86,32546.1,35791.8,0.7244,0.9551,136.9,96.9,0.525
40.88,36604.3,35493.4,6.1905,0.6013,136.9,96.9,0.525
40.9,30167.2,35137.9,-2.4798,0.1798,136.9,96.9,0.525
40.92,25345.3,34977.9,-8.9746,-0.01,136.9,96.9,0.525
40.94,32211.5,38976.5,0.2737,4.7313,136.9,96.9,0.525
40.96,29392.2,34586.7,-3.5236,-0.4739,136.9,96.9,0.525
40.98,30220.0,35457.2,-2.4087,0.5584,136.9,96.9,0.525
41.0,30250.3,38232.6,-2.3678,3.8493,136.9,96.9,0.525
41.02,32106.0,30928.9,0.1317,-4.811,136.9,96.9,0.525
41.04,32883.8,32647.1,1.1793,-2.7737,136.9,96.9,0.525
41.06,32282.1,34158.8,0.3688,-0.9812,136.9,96.9,0.525
41.08,34938.9,33660.3,3.9473,-1.5723,136.9,96.9,0.525
41.1,32231.0,34792.9,0.3001,-0.2293,136.9,96.9,0.525
41.12,28488.1,33845.3,-4.7413,-1.3529,136.9,96.9,0.525
41.14,30661.3,33022.0,-1.8142,-2.3292,136.9,96.9,0.525
41.16,31070.1,38765.9,-1.2637,4.4815,136.9,96.9,0.525
41.18,33633.7,36292.9,2.1893,1.5492,136.9,96.9,0.525
41.2,33937.1,34669.5,2.598,-0.3757,136.9,96.9,0.525
41.22,36639.4,33205.3,6.2378,-2.1118,136.9,96.9,0.525
41.24,33547.6,36432.1,2.0734,1.7143,136.9,96.9,0.525
41.26,34811.0,38553.1,3.7751,4.2292,136.9,96.9,0.525
41.28,35020.6,37427.1,4.0574,2.8941,136.9,96.9,0.525
41.3,34533.5,36100.9,3.4014,1.3216,136.9,96.9,0.525
41.32,29313.9,36962.2,-3.6291,2.3428,136.9,96.9,0.525
41.34,30748.3,37967.7,-1.6971,3.5352,136.9,96.9,0.525
41.36,30838.5,32448.2,-1.5756,-3.0095,136.9,96.9,0.525
41.38,27071.6,34588.2,-6.6493,-0.472,136.9,96.9,0.525
41.4,28400.8,37465.8,-4.8589,2.94,136.9,96.9,0.525
41.42,35511.5,35544.8,4.7186,0.6622,136.9,96.9,0.525
41.44,30641.4,35057.6,-1.8411,0.0846,136.9,96.9,0.525
41.46,32551.3,35330.0,0.7314,0.4075,136.9,96.9,0.525
41.48,30987.2,33114.3,-1.3754,-2.2198,136.9,96.9,0.525
41.5,31660.0,37626.0,-0.4691,3.1299,136.9,96.9,0.525
41.52,30511.0,29548.0,-2.0168,-6.4483,136.9,96.9,0.525
41.54,34346.2,34827.1,3.149,-0.1888,136.9,96.9,0.525
41.56,31346.0,33602.7,-0.892,-1.6405,136.9,96.9,0.525
41.58,33178.1,29579.3,1.5757,-6.4112,136.9,96.9,0.525
41.6,29523.8,34905.1,-3.3464,-0.0964,136.9,96.9,0.525
41.62,30314.4,38114.5,-2.2815,3.7092,136.9,96.9,0.525
41.64,33488.8,37922.3,1.9942,3.4813,136.9,96.9,0.525
41.66,35246.7,35186.0,4.3619,0.2368,136.9,96.9,0.525
41.68,32432.1,37821.7,0.5709,3.362,136.9,96.9,0.525
41.7,33468.2,34489.2,1.9664,-0.5894,136.9,96.9,0.525
41.72,32464.3,37137.5,0.6143,2.5507,136.9,96.9,0.525
41.74,31653.1,38941.9,-0.4784,4.6902,136.9,96.9,0.525
41.76,33409.9,36542.9,1.8879,1.8457,136.9,96.9,0.525
41.78,32622.7,35589.6,0.8276,0.7153,136.9,96.9,0.525
41.8,30446.6,36343.3,-2.1034,1.609,136.9,96.9,0.525
41.82,35465.0,35490.7,4.656,0.5981,136.9,96.9,0.525
41.84,34795.7,31093.8,3.7545,-4.6154,136.9,96.9,0.525
41.86,31952.2,36658.7,-0.0755,1.983,136.9,96.9,0.525
41.88,29909.2,33061.8,-2.8273,-2.2819,136.9,96.9,0.525
41.9,28751.3,33616.0,-4.3869,-1.6248,136.9,96.9,0.525
41.92,32135.7,36718.2,0.1717,2.0535,136.9,96.9,0.525
41.94,34193.2,34404.6,2.9429,-0.6898,136.9,96.9,0.525
41.96,30659.1,32619.9,-1.8172,-2.8059,136.9,96.9,0.525
41.98,37822.2,35587.8,7.8309,0.7132,136.9,96.9,0.525
42.0,30143.8,34500.9,-2.5113,-0.5756,136.9,96.9,0.525
42.02,30271.6,32571.2,-2.3392,-2.8636,136.9,96.9,0.525
42.04,30908.2,37322.0,-1.4817,2.7695,136.9,96.9,0.525
42.06,35532.7,37579.6,4.7472,3.0749,136.9,96.9,0.525
42.08,30272.1,37743.3,-2.3384,3.269,136.9,96.9,0.525
42.1,31251.1,34663.0,-1.0198,-0.3833,136.9,96.9,0.525
42.12,33505.8,35366.1,2.017,0.4503,136.9,96.9,0.525
42.14,33144.9,37930.1,1.531,3.4905,136.9,96.9,0.525
42.16,32043.2,35459.4,0.0471,0.561,136.9,96.9,0.525
42.18,32412.6,34042.5,0.5447,-1.1191,136.9,96.9,0.525
42.2,32772.8,34066.4,1.0298,-1.0907,136.9,96.9,0.525
42.22,34119.0,33990.3,2.843,-1.181,136.9,96.9,0.525
42.24,31591.3,35937.2,-0.5617,1.1274,136.9,96.9,0.525
42.26,31673.1,32383.7,-0.4514,-3.086,136.9,96.9,0.525
42.28,34599.3,32187.4,3.49,-3.3187,136.9,96.9,0.525
42.3,31096.9,36361.8,-1.2276,1.6309,136.9,96.9,0.525
42.32,25678.2,31875.9,-8.5262,-3.6881,136.9,96.9,0.525
42.34,32755.0,35854.2,1.0059,1.0291,136.9,96.9,0.525
42.36,31477.7,35255.1,-0.7146,0.3187,136.9,96.9,0.525
42.38,29469.1,31930.3,-3.4201,-3.6236,136.9,96.9,0.525
42.4,30982.4,29904.1,-1.3818,-6.0261,136.9,96.9,0.525
42.42,31404.0,35416.5,-0.8139,0.5101,136.9,96.9,0.525
42.44,33693.3,36055.5,2.2696,1.2678,136.9,96.9,0.525
42.46,32653.4,33444.1,0.869,-1.8287,136.9,96.9,0.525
42.48,32127.3,38510.8,0.1604,4.1791,136.9,96.9,0.525
42.5,31863.3,34460.3,-0.1953,-0.6237,136.9,96.9,0.525
42.52,32747.9,34477.1,0.9963,-0.6038,136.9,96.9,0.525
42.54,33978.4,37870.8,2.6536,3.4203,136.9,96.9,0.525
42.56,34620.6,36411.8,3.5186,1.6902,136.9,96.9,0.525
42.58,32401.1,35558.8,0.5291,0.6788,136.9,96.9,0.525
42.6,34771.5,37235.4,3.7219,2.6668,136.9,96.9,0.525
42.62,31732.1,37523.4,-0.372,3.0082,136.9,96.9,0.525
42.64,28326.1,37045.1,-4.9596,2.4412,136.9,96.9,0.525
42.66,32443.9,34150.6,0.5867,-0.9909,136.9,96.9,0.525
42.68,31781.7,30533.1,-0.3052,-5.2803,136.9,96.9,0.525
42.7,33794.0,35286.2,2.4052,0.3556,136.9,96.9,0.525
42.72,30885.9,35918.3,-1.5118,1.1051,136.9,96.9,0.525
42.74,31497.1,34130.7,-0.6885,-1.0145,136.9,96.9,0.525
42.76,29860.2,34764.6,-2.8933,-0.2629,136.9,96.9,0.525
42.78,30978.5,35391.2,-1.387,0.4801,136.9,96.9,0.525
42.8,28411.4,34718.4,-4.8447,-0.3177,136.9,96.9,0.525
42.82,31788.5,34133.5,-0.296,-1.0112,136.9,96.9,0.525
42.84,29868.6,34017.1,-2.882,-1.1492,136.9,96.9,0.525
42.86,32027.6,36653.3,0.0261,1.9766,136.9,96.9,0.525
42.88,29523.9,34488.5,-3.3463,-0.5903,136.9,96.9,0.525
42.9,35402.1,30418.4,4.5713,-5.4163,136.9,96.9,0.525
42.92,33016.7,33900.3,1.3583,-1.2877,136.9,96.9,0.525
42.94,26575.0,34033.1,-7.3183,-1.1303,136.9,96.9,0.525
42.96,30605.8,35344.9,-1.889,0.4252,136.9,96.9,0.525
42.98,31903.6,40096.5,-0.141,6.0593,136.9,96.9,0.525
43.0,31932.2,37334.7,-0.1024,2.7846,136.9,96.9,0.525
43.02,33828.8,39864.8,2.4521,5.7846,136.9,96.9,0.525
43.04,32465.5,36996.9,0.6159,2.384,136.9,96.9,0.525
43.06,32166.7,36591.3,0.2135,1.903,136.9,96.9,0.525
43.08,34152.6,34568.0,2.8882,-0.496,136.9,96.9,0.525
43.1,31940.6,35521.8,-0.0912,0.635,136.9,96.9,0.525
43.12,30672.8,36262.4,-1.7988,1.5131,136.9,96.9,0.525
43.14,30748.4,32150.5,-1.6969,-3.3625,136.9,96.9,0.525
43.16,34866.0,35350.2,3.8492,0.4315,136.9,96.9,0.525
43.18,33203.8,33581.1,1.6103,-1.6663,136.9,96.9,0.525
43.2,30431.9,34608.4,-2.1232,-0.4481,136.9,96.9,0.525
43.22,25377.2,37120.9,-8.9315,2.531,136.9,96.9,0.525
43.24,32739.1,31910.1,0.9844,-3.6476,136.9,96.9,0.525
43.26,30267.4,34666.8,-2.3448,-0.3788,136.9,96.9,0.525
43.28,32049.8,32828.7,0.056,-2.5583,136.9,96.9,0.525
43.3,32587.2,31082.3,0.7798,-4.6291,136.9,96.9,0.525
43.32,28000.7,32758.2,-5.3979,-2.6419,136.9,96.9,0.525
43.34,31417.6,30332.4,-0.7956,-5.5183,136.9,96.9,0.525
43.36,31977.7,36097.4,-0.0412,1.3174,136.9,96.9,0.525
43.38,36514.0,34549.9,6.0689,-0.5174,136.9,96.9,0.525
43.4,30793.5,34697.5,-1.6362,-0.3425,136.9,96.9,0.525
43.42,32794.6,35729.7,1.0592,0.8814,136.9,96.9,0.525
43.44,30998.2,35699.1,-1.3605,0.8451,136.9,96.9,0.525
43.46,32273.2,37496.7,0.3568,2.9766,136.9,96.9,0.525
43.48,31526.4,33776.0,-0.649,-1.4351,136.9,96.9,0.525
43.5,31454.4,35384.3,-0.746,0.4719,136.9,96.9,0.525
43.52,32588.8,32364.7,0.7819,-3.1085,136.9,96.9,0.525
43.54,31515.7,35548.7,-0.6635,0.6668,136.9,96.9,0.525
43.56,28036.1,34608.5,-5.3502,-0.448,136.9,96.9,0.525
43.58,31793.5,32980.2,-0.2893,-2.3787,136.9,96.9,0.525
43.6,33053.3,32154.1,1.4076,-3.3583,136.9,96.9,0.525
43.62,30338.0,35214.5,-2.2497,0.2706,136.9,96.9,0.525
43.64,33013.2,33416.1,1.3536,-1.8618,136.9,96.9,0.525
43.66,31322.4,36330.1,-0.9239,1.5934,136.9,96.9,0.525
43.68,32498.7,32180.9,0.6605,-3.3265,136.9,96.9,0.525
43.7,31635.5,35479.8,-0.5021,0.5852,136.9,96.9,0.525
43.72,29839.5,36187.6,-2.9212,1.4244,136.9,96.9,0.525
43.74,30563.4,33769.1,-1.9461,-1.4433,136.9,96.9,0.525
43.76,32306.8,33974.5,0.4021,-1.1997,136.9,96.9,0.525
43.78,31024.3,33353.9,-1.3253,-1.9355,136.9,96.9,0.525
43.8,28501.8,34414.7,-4.723,-0.6778,136.9,96.9,0.525
43.82,31834.1,33888.8,-0.2346,-1.3014,136.9,96.9,0.525
43.84,31523.7,36401.4,-0.6527,1.6779,136.9,96.9,0.525
43.86,30778.8,38060.5,-1.656,3.6452,136.9,96.9,0.525
43.88,34807.9,36005.6,3.7709,1.2085,136.9,96.9,0.525
43.9,34865.6,35432.5,3.8486,0.529,136.9,96.9,0.525
43.92,35427.7,35001.0,4.6057,0.0174,136.9,96.9,0.525
43.94,34349.4,32621.9,3.1533,-2.8035,136.9,96.9,0.525
43.96,32780.3,36607.5,1.0398,1.9223,136.9,96.9,0.525
43.98,34067.1,39380.1,2.7731,5.2098,136.9,96.9,0.525
44.0,33915.8,36868.1,2.5692,2.2313,136.9,96.9,0.525
44.02,31657.5,35063.0,-0.4724,0.0909,136.9,96.9,0.525
44.04,32047.0,34123.4,0.0522,-1.0231,136.9,96.9,0.525
44.06,32367.3,37284.5,0.4836,2.725,136.9,96.9,0.525
44.08,31145.1,32873.4,-1.1627,-2.5053,136.9,96.9,0.525
44.1,32983.5,38558.2,1.3136,4.2353,136.9,96.9,0.525
44.12,32482.4,34427.0,0.6387,-0.6632,136.9,96.9,0.525
44.14,30766.9,32844.3,-1.672,-2.5399,136.9,96.9,0.525
44.16,31341.9,32515.7,-0.8975,-2.9295,136.9,96.9,0.525
44.18,31237.8,37650.7,-1.0377,3.1593,136.9,96.9,0.525
44.2,30072.4,33280.7,-2.6075,-2.0224,136.9,96.9,0.525
44.22,31887.5,35476.2,-0.1627,0.5809,136.9,96.9,0.525
44.24,35093.2,37770.2,4.1552,3.3009,136.9,96.9,0.525
44.26,30354.9,37709.2,-2.227,3.2286,136.9,96.9,0.525
44.28,29435.4,34911.1,-3.4655,-0.0892,136.9,96.9,0.525
44.3,28137.4,34890.0,-5.2138,-0.1142,136.9,96.9,0.525
44.32,32243.9,35239.4,0.3173,0.3,136.9,96.9,0.525
44.34,32983.6,36229.9,1.3137,1.4746,136.9,96.9,0.525
44.36,31540.8,34477.5,-0.6296,-0.6033,136.9,96.9,0.525
44.38,34453.6,33761.6,3.2937,-1.4521,136.9,96.9,0.525
44.4,33601.2,37101.2,2.1455,2.5077,136.9,96.9,0.525
44.42,33289.9,33430.5,1.7263,-1.8448,136.9,96.9,0.525
44.44,31856.1,34124.1,-0.205,-1.0224,136.9,96.9,0.525
44.46,27452.7,32374.9,-6.136,-3.0965,136.9,96.9,0.525
44.48,30246.3,32281.3,-2.3733,-3.2074,136.9,96.9,0.525
44.5,34184.9,35660.1,2.9318,0.7989,136.9,96.9,0.525
44.52,30474.2,36145.0,-2.0663,1.3739,136.9,96.9,0.525
44.54,30678.4,33585.4,-1.7912,-1.6611,136.9,96.9,0.525
44.56,32118.8,31928.2,0.1489,-3.6261,136.9,96.9,0.525
44.58,33938.3,34907.3,2.5996,-0.0937,136.9,96.9,0.525
44.6,34148.6,36231.9,2.8828,1.4769,136.9,96.9,0.525
44.62,33928.7,29056.7,2.5867,-7.0309,136.9,96.9,0.525
44.64,34799.6,32962.2,3.7598,-2.4001,136.9,96.9,0.525
44.66,27945.4,35787.5,-5.4724,0.95,136.9,96.9,0.525
44.68,32242.3,34271.0,0.3152,-0.8482,136.9,96.9,0.525
44.7,30606.5,32708.9,-1.8881,-2.7004,136.9,96.9,0.525
44.72,30262.7,33512.8,-2.3511,-1.7471,136.9,96.9,0.525
44.74,35715.5,37289.1,4.9934,2.7304,136.9,96.9,0.525
44.76,31268.9,36686.2,-0.9959,2.0156,136.9,96.9,0.525
44.78,34583.6,37820.9,3.4688,3.361,136.9,96.9,0.525
44.8,33097.1,36374.5,1.4665,1.646,136.9,96.9,0.525
44.82,32774.6,31837.7,1.0321,-3.7334,136.9,96.9,0.525
44.84,31686.4,35846.8,-0.4336,1.0203,136.9,96.9,0.525
44.86,30507.0,34911.7,-2.0221,-0.0885,136.9,96.9,0.525
44.88,31150.5,31232.1,-1.1554,-4.4515,136.9,96.9,0.525
