timestamp,raw_red,raw_ir,filtered_red,filtered_ir,heart_rate,spo2,ac_dc_ratio
0.0,32081.9,35158.8,1.1883,1.1922,146.7,96.3,0.547
0.02,32190.3,35634.4,1.1952,1.2198,146.7,96.3,0.547
0.04,32387.4,35846.5,1.2077,1.2321,146.7,96.3,0.547
0.06,32463.9,35678.9,1.2125,1.2224,146.7,96.3,0.547
0.08,32298.0,35576.5,1.202,1.2164,146.7,96.3,0.547
0.1,32111.4,35391.8,1.1902,1.2057,146.7,96.3,0.547
0.12,32114.3,35158.9,1.1903,1.1922,146.7,96.3,0.547
0.14,31993.9,35012.2,1.1827,1.1837,146.7,96.3,0.547
0.16,32086.7,35051.5,1.1886,1.186,146.7,96.3,0.547
0.18,32034.3,35053.1,1.1853,1.1861,146.7,96.3,0.547
0.2,31965.1,34872.3,1.1809,1.1756,146.7,96.3,0.547
0.22,31860.0,34868.9,1.1742,1.1754,146.7,96.3,0.547
0.24,31879.1,34666.8,1.1754,1.1637,146.7,96.3,0.547
0.26,31859.6,34626.8,1.1742,1.1614,146.7,96.3,0.547
0.28,31863.4,34617.6,1.1744,1.1609,146.7,96.3,0.547
0.3,31799.0,34631.2,1.1704,1.1616,146.7,96.3,0.547
0.32,31816.8,34529.8,1.1715,1.1558,146.7,96.3,0.547
0.34,31746.7,34455.8,1.1671,1.1515,146.7,96.3,0.547
0.36,31732.4,34585.8,1.1661,1.159,146.7,96.3,0.547
0.38,31856.7,34698.2,1.174,1.1655,146.7,96.3,0.547
0.4,31978.2,34967.6,1.1817,1.1811,146.7,96.3,0.547
0.42,32217.6,35394.6,1.1969,1.2059,146.7,96.3,0.547
0.44,32368.8,35682.0,1.2065,1.2225,146.7,96.3,0.547
0.46,32405.0,35745.0,1.2088,1.2262,146.7,96.3,0.547
0.48,32322.2,35607.4,1.2035,1.2182,146.7,96.3,0.547
0.5,32133.6,35505.8,1.1916,1.2123,146.7,96.3,0.547
0.52,32172.1,35292.0,1.194,1.1999,146.7,96.3,0.547
0.54,32158.5,35173.7,1.1932,1.1931,146.7,96.3,0.547
0.56,32023.2,35076.2,1.1846,1.1874,146.7,96.3,0.547
0.58,32051.8,35010.3,1.1864,1.1836,146.7,96.3,0.547
0.6,31972.7,34992.9,1.1814,1.1826,146.7,96.3,0.547
0.62,31973.1,34792.0,1.1814,1.171,146.7,96.3,0.547
0.64,31791.5,34734.7,1.1699,1.1676,146.7,96.3,0.547
0.66,31860.8,34678.9,1.1743,1.1644,146.7,96.3,0.547
0.68,31863.0,34690.4,1.1744,1.1651,146.7,96.3,0.547
0.7,31791.8,34607.6,1.1699,1.1603,146.7,96.3,0.547
0.72,31809.3,34462.9,1.171,1.1519,146.7,96.3,0.547
0.74,31733.2,34525.0,1.1662,1.1555,146.7,96.3,0.547
0.76,31667.4,34352.0,1.162,1.1455,146.7,96.3,0.547
0.78,31723.5,34554.5,1.1656,1.1572,146.7,96.3,0.547
0.8,31917.5,34807.0,1.1779,1.1718,146.7,96.3,0.547
0.82,32026.5,35189.4,1.1848,1.194,146.7,96.3,0.547
0.84,32256.4,35614.6,1.1994,1.2186,146.7,96.3,0.547
0.86,32345.6,35732.9,1.205,1.2255,146.7,96.3,0.547
0.88,32378.6,35681.4,1.2071,1.2225,146.7,96.3,0.547
0.9,32303.6,35583.0,1.2023,1.2168,146.7,96.3,0.547
0.92,32146.7,35413.2,1.1924,1.207,146.7,96.3,0.547
0.94,32089.4,35230.3,1.1888,1.1964,146.7,96.3,0.547
0.96,32067.5,35020.2,1.1874,1.1842,146.7,96.3,0.547
0.98,32075.4,35073.6,1.1879,1.1873,146.7,96.3,0.547
1.0,31982.2,34979.0,1.182,1.1818,146.7,96.3,0.547
1.02,31902.2,34914.9,1.1769,1.1781,146.7,96.3,0.547
1.04,31878.8,34748.7,1.1754,1.1685,146.7,96.3,0.547
1.06,31899.9,34625.8,1.1768,1.1613,146.7,96.3,0.547
1.08,31876.0,34625.4,1.1752,1.1613,146.7,96.3,0.547
1.1,31772.2,34749.3,1.1687,1.1685,146.7,96.3,0.547
1.12,31869.2,34619.5,1.1748,1.161,146.7,96.3,0.547
1.14,31712.8,34526.0,1.1649,1.1555,146.7,96.3,0.547
1.16,31669.3,34494.5,1.1621,1.1537,146.7,96.3,0.547
1.18,31707.9,34511.4,1.1646,1.1547,146.7,96.3,0.547
1.2,31849.0,34684.5,1.1735,1.1647,146.7,96.3,0.547
1.22,32005.5,35022.8,1.1835,1.1843,146.7,96.3,0.547
1.24,32156.7,35436.7,1.193,1.2083,146.7,96.3,0.547
1.26,32356.6,35754.0,1.2057,1.2267,146.7,96.3,0.547
1.28,32340.4,35760.8,1.2047,1.2271,146.7,96.3,0.547
1.3,32347.3,35695.5,1.2051,1.2233,146.7,96.3,0.547
1.32,32276.7,35304.7,1.2006,1.2007,146.7,96.3,0.547
1.34,32091.7,35253.1,1.1889,1.1977,146.7,96.3,0.547
1.36,32024.1,35104.7,1.1846,1.1891,146.7,96.3,0.547
1.38,32035.2,35130.6,1.1853,1.1906,146.7,96.3,0.547
1.4,31949.3,34999.6,1.1799,1.183,146.7,96.3,0.547
1.42,32016.1,34959.7,1.1841,1.1807,146.7,96.3,0.547
1.44,31900.6,34807.7,1.1768,1.1719,146.7,96.3,0.547
1.46,31805.3,34756.8,1.1708,1.1689,146.7,96.3,0.547
1.48,31898.0,34713.0,1.1766,1.1664,146.7,96.3,0.547
1.5,31793.7,34685.2,1.17,1.1648,146.7,96.3,0.547
1.52,31823.3,34642.8,1.1719,1.1623,146.7,96.3,0.547
1.54,31759.2,34514.7,1.1678,1.1549,146.7,96.3,0.547
1.56,31753.4,34399.5,1.1675,1.1482,146.7,96.3,0.547
1.58,31688.3,34351.7,1.1633,1.1455,146.7,96.3,0.547
1.6,31713.7,34517.4,1.165,1.1551,146.7,96.3,0.547
1.62,31949.9,34921.2,1.1799,1.1784,146.7,96.3,0.547
1.64,32077.4,35226.5,1.188,1.1961,146.7,96.3,0.547
1.66,32327.9,35563.3,1.2039,1.2157,146.7,96.3,0.547
1.68,32379.2,35664.7,1.2071,1.2215,146.7,96.3,0.547
1.7,32346.1,35662.2,1.205,1.2214,146.7,96.3,0.547
1.72,32264.8,35504.4,1.1999,1.2122,146.7,96.3,0.547
1.74,32068.1,35314.5,1.1874,1.2012,146.7,96.3,0.547
1.76,32074.4,35301.4,1.1878,1.2005,146.7,96.3,0.547
1.78,32107.7,35112.1,1.1899,1.1895,146.7,96.3,0.547
1.8,32037.9,35113.7,1.1855,1.1896,146.7,96.3,0.547
1.82,31980.7,34970.0,1.1819,1.1813,146.7,96.3,0.547
1.84,31941.1,34837.6,1.1794,1.1736,146.7,96.3,0.547
1.86,31906.6,34823.5,1.1772,1.1728,146.7,96.3,0.547
1.88,31809.6,34694.3,1.171,1.1653,146.7,96.3,0.547
1.9,31864.2,34729.4,1.1745,1.1673,146.7,96.3,0.547
1.92,31804.3,34673.3,1.1707,1.1641,146.7,96.3,0.547
1.94,31787.6,34549.5,1.1696,1.1569,146.7,96.3,0.547
1.96,31684.3,34585.1,1.1631,1.159,146.7,96.3,0.547
1.98,31685.2,34403.8,1.1632,1.1485,146.7,96.3,0.547
2.0,31738.3,34481.0,1.1665,1.1529,146.7,96.3,0.547
2.02,31881.3,34718.7,1.1756,1.1667,146.7,96.3,0.547
2.04,31955.1,35029.9,1.1803,1.1847,146.7,96.3,0.547
2.06,32254.8,35427.3,1.1993,1.2078,146.7,96.3,0.547
2.08,32397.1,35747.2,1.2083,1.2263,146.7,96.3,0.547
2.1,32336.5,35756.6,1.2044,1.2269,146.7,96.3,0.547
2.12,32421.5,35743.5,1.2098,1.2261,146.7,96.3,0.547
2.14,32179.4,35349.4,1.1945,1.2033,146.7,96.3,0.547
2.16,32139.9,35292.5,1.192,1.2,146.7,96.3,0.547
2.18,31979.2,35188.8,1.1818,1.194,146.7,96.3,0.547
2.2,32058.6,35076.1,1.1868,1.1874,146.7,96.3,0.547
2.22,31974.2,34953.5,1.1815,1.1803,146.7,96.3,0.547
2.24,31935.9,34945.4,1.179,1.1799,146.7,96.3,0.547
2.26,31944.4,34748.4,1.1796,1.1684,146.7,96.3,0.547
2.28,31942.6,34747.4,1.1795,1.1684,146.7,96.3,0.547
2.3,31924.0,34591.3,1.1783,1.1593,146.7,96.3,0.547
2.32,31816.8,34619.8,1.1715,1.161,146.7,96.3,0.547
2.34,31868.0,34634.3,1.1747,1.1618,146.7,96.3,0.547
2.36,31786.0,34525.9,1.1695,1.1555,146.7,96.3,0.547
2.38,31802.1,34507.1,1.1706,1.1545,146.7,96.3,0.547
2.4,31695.6,34508.3,1.1638,1.1545,146.7,96.3,0.547
2.42,31751.1,34621.8,1.1673,1.1611,146.7,96.3,0.547
2.44,32031.4,34953.6,1.1851,1.1803,146.7,96.3,0.547
2.46,32153.0,35295.3,1.1928,1.2001,146.7,96.3,0.547
2.48,32215.1,35633.3,1.1967,1.2197,146.7,96.3,0.547
2.5,32441.6,35801.5,1.2111,1.2295,146.7,96.3,0.547
2.52,32344.9,35726.7,1.205,1.2251,146.7,96.3,0.547
2.54,32303.7,35556.2,1.2024,1.2152,146.7,96.3,0.547
2.56,32101.1,35355.7,1.1895,1.2036,146.7,96.3,0.547
2.58,32097.1,35122.6,1.1893,1.1901,146.7,96.3,0.547
2.6,32073.7,35037.5,1.1878,1.1852,146.7,96.3,0.547
2.62,32080.1,35115.5,1.1882,1.1897,146.7,96.3,0.547
2.64,31951.9,35034.6,1.1801,1.185,146.7,96.3,0.547
2.66,31945.4,34899.2,1.1796,1.1772,146.7,96.3,0.547
2.68,31977.3,34877.6,1.1817,1.1759,146.7,96.3,0.547
2.7,31768.0,34743.7,1.1684,1.1682,146.7,96.3,0.547
2.72,31879.5,34632.3,1.1755,1.1617,146.7,96.3,0.547
2.74,31841.9,34657.2,1.1731,1.1632,146.7,96.3,0.547
2.76,31891.4,34554.9,1.1762,1.1572,146.7,96.3,0.547
2.78,31806.8,34499.6,1.1709,1.154,146.7,96.3,0.547
2.8,31825.2,34373.5,1.172,1.1467,146.7,96.3,0.547
2.82,31700.4,34621.6,1.1641,1.1611,146.7,96.3,0.547
2.84,31841.6,34723.5,1.1731,1.167,146.7,96.3,0.547
2.86,31996.7,35123.7,1.1829,1.1902,146.7,96.3,0.547
2.88,32324.0,35491.4,1.2036,1.2115,146.7,96.3,0.547
2.9,32330.8,35657.6,1.2041,1.2211,146.7,96.3,0.547
2.92,32354.7,35700.7,1.2056,1.2236,146.7,96.3,0.547
2.94,32318.2,35598.1,1.2033,1.2177,146.7,96.3,0.547
2.96,32249.6,35396.6,1.1989,1.206,146.7,96.3,0.547
2.98,32133.3,35191.4,1.1916,1.1941,146.7,96.3,0.547
3.0,32063.8,35142.9,1.1871,1.1913,146.7,96.3,0.547
3.02,31997.6,35125.9,1.183,1.1903,146.7,96.3,0.547
3.04,32040.1,34938.1,1.1856,1.1794,146.7,96.3,0.547
3.06,31994.5,34923.3,1.1828,1.1786,146.7,96.3,0.547
3.08,31872.1,34820.9,1.175,1.1726,146.7,96.3,0.547
3.1,31803.2,34739.9,1.1706,1.1679,146.7,96.3,0.547
3.12,31921.2,34708.0,1.1781,1.1661,146.7,96.3,0.547
3.14,31844.7,34646.6,1.1733,1.1625,146.7,96.3,0.547
3.16,31919.4,34617.8,1.178,1.1609,146.7,96.3,0.547
3.18,31711.3,34597.1,1.1648,1.1597,146.7,96.3,0.547
3.2,31789.0,34463.6,1.1697,1.1519,146.7,96.3,0.547
3.22,31862.6,34456.4,1.1744,1.1515,146.7,96.3,0.547
3.24,31861.5,34648.2,1.1743,1.1626,146.7,96.3,0.547
3.26,31978.1,34912.1,1.1817,1.1779,146.7,96.3,0.547
3.28,32246.0,35383.0,1.1987,1.2052,146.7,96.3,0.547
3.3,32316.4,35610.3,1.2032,1.2184,146.7,96.3,0.547
3.32,32400.8,35774.2,1.2085,1.2279,146.7,96.3,0.547
3.34,32338.7,35734.9,1.2046,1.2256,146.7,96.3,0.547
3.36,32300.2,35432.3,1.2021,1.2081,146.7,96.3,0.547
3.38,32207.8,35325.8,1.1963,1.2019,146.7,96.3,0.547
3.4,32066.1,35179.2,1.1873,1.1934,146.7,96.3,0.547
3.42,31900.0,35188.8,1.1768,1.194,146.7,96.3,0.547
3.44,31998.4,35011.2,1.183,1.1837,146.7,96.3,0.547
3.46,32017.4,35044.3,1.1842,1.1856,146.7,96.3,0.547
3.48,31880.6,34942.1,1.1755,1.1797,146.7,96.3,0.547
3.5,31851.5,34741.3,1.1737,1.168,146.7,96.3,0.547
3.52,31804.9,34705.9,1.1707,1.166,146.7,96.3,0.547
3.54,31792.4,34615.9,1.1699,1.1608,146.7,96.3,0.547
3.56,31797.6,34690.0,1.1703,1.1651,146.7,96.3,0.547
3.58,31816.0,34583.6,1.1714,1.1589,146.7,96.3,0.547
3.6,31764.5,34443.3,1.1682,1.1508,146.7,96.3,0.547
3.62,31804.3,34471.7,1.1707,1.1524,146.7,96.3,0.547
3.64,31685.6,34666.2,1.1632,1.1637,146.7,96.3,0.547
3.66,31906.0,34764.5,1.1771,1.1694,146.7,96.3,0.547
3.68,32009.9,35140.2,1.1837,1.1911,146.7,96.3,0.547
3.7,32251.3,35513.1,1.199,1.2127,146.7,96.3,0.547
3.72,32363.6,35730.1,1.2062,1.2253,146.7,96.3,0.547
3.74,32386.8,35684.0,1.2076,1.2226,146.7,96.3,0.547
3.76,32262.0,35544.2,1.1997,1.2145,146.7,96.3,0.547
3.78,32229.2,35310.1,1.1976,1.201,146.7,96.3,0.547
3.8,31970.6,35151.8,1.1812,1.1918,146.7,96.3,0.547
3.82,32153.5,35072.9,1.1928,1.1872,146.7,96.3,0.547
3.84,32009.2,35054.1,1.1837,1.1862,146.7,96.3,0.547
3.86,31997.9,35102.1,1.183,1.1889,146.7,96.3,0.547
3.88,31939.9,34920.6,1.1793,1.1784,146.7,96.3,0.547
3.9,31890.8,34777.0,1.1762,1.1701,146.7,96.3,0.547
3.92,31865.9,34752.9,1.1746,1.1687,146.7,96.3,0.547
3.94,31755.6,34685.0,1.1676,1.1648,146.7,96.3,0.547
3.96,31832.6,34630.6,1.1725,1.1616,146.7,96.3,0.547
3.98,31789.0,34578.1,1.1697,1.1586,146.7,96.3,0.547
4.0,31903.2,34522.0,1.177,1.1553,146.7,96.3,0.547
4.02,31704.4,34465.0,1.1644,1.152,146.7,96.3,0.547
4.04,31803.9,34464.1,1.1707,1.152,146.7,96.3,0.547
4.06,31735.7,34581.4,1.1664,1.1588,146.7,96.3,0.547
4.08,31862.9,35014.5,1.1744,1.1839,146.7,96.3,0.547
4.1,32154.5,35413.2,1.1929,1.207,146.7,96.3,0.547
4.12,32344.8,35666.4,1.205,1.2216,146.7,96.3,0.547
4.14,32330.1,35751.3,1.204,1.2266,146.7,96.3,0.547
4.16,32325.6,35655.6,1.2037,1.221,146.7,96.3,0.547
4.18,32345.7,35472.0,1.205,1.2104,146.7,96.3,0.547
4.2,32079.5,35278.4,1.1881,1.1991,146.7,96.3,0.547
4.22,32116.6,35200.8,1.1905,1.1946,146.7,96.3,0.547
4.24,32077.5,35152.2,1.188,1.1918,146.7,96.3,0.547
4.26,32010.3,35085.3,1.1838,1.188,146.7,96.3,0.547
4.28,31963.2,35065.3,1.1808,1.1868,146.7,96.3,0.547
4.3,31799.9,34885.9,1.1704,1.1764,146.7,96.3,0.547
4.32,31850.0,34730.4,1.1736,1.1674,146.7,96.3,0.547
4.34,31850.4,34670.0,1.1736,1.1639,146.7,96.3,0.547
4.36,31812.7,34611.1,1.1712,1.1605,146.7,96.3,0.547
4.38,31783.8,34676.0,1.1694,1.1642,146.7,96.3,0.547
4.4,31754.8,34591.0,1.1676,1.1593,146.7,96.3,0.547
4.42,31718.7,34457.9,1.1653,1.1516,146.7,96.3,0.547
4.44,31782.9,34419.4,1.1693,1.1494,146.7,96.3,0.547
4.46,31769.4,34543.3,1.1685,1.1566,146.7,96.3,0.547
4.48,31976.5,34755.1,1.1816,1.1688,146.7,96.3,0.547
4.5,32153.5,35194.8,1.1928,1.1943,146.7,96.3,0.547
4.52,32251.5,35519.7,1.199,1.2131,146.7,96.3,0.547
4.54,32374.4,35727.0,1.2068,1.2251,146.7,96.3,0.547
4.56,32324.9,35684.4,1.2037,1.2227,146.7,96.3,0.547
4.58,32301.7,35598.4,1.2022,1.2177,146.7,96.3,0.547
4.6,32100.1,35351.8,1.1894,1.2034,146.7,96.3,0.547
4.62,32085.0,35228.1,1.1885,1.1962,146.7,96.3,0.547
4.64,32087.0,35107.0,1.1886,1.1892,146.7,96.3,0.547
4.66,32108.2,35131.4,1.19,1.1906,146.7,96.3,0.547
4.68,32007.3,35083.8,1.1836,1.1879,146.7,96.3,0.547
4.7,32053.5,34893.4,1.1865,1.1768,146.7,96.3,0.547
4.72,31905.0,34806.4,1.1771,1.1718,146.7,96.3,0.547
4.74,31848.4,34684.6,1.1735,1.1647,146.7,96.3,0.547
4.76,31858.7,34718.1,1.1741,1.1667,146.7,96.3,0.547
4.78,31821.8,34665.0,1.1718,1.1636,146.7,96.3,0.547
4.8,31820.0,34555.9,1.1717,1.1573,146.7,96.3,0.547
4.82,31731.6,34520.8,1.1661,1.1552,146.7,96.3,0.547
4.84,31737.5,34445.9,1.1665,1.1509,146.7,96.3,0.547
4.86,31805.6,34491.0,1.1708,1.1535,146.7,96.3,0.547
4.88,31846.4,34669.8,1.1734,1.1639,146.7,96.3,0.547
4.9,32018.8,35019.4,1.1843,1.1841,146.7,96.3,0.547
4.92,32220.8,35481.3,1.1971,1.2109,146.7,96.3,0.547
4.94,32358.7,35675.0,1.2058,1.2221,146.7,96.3,0.547
4.96,32390.4,35760.5,1.2078,1.2271,146.7,96.3,0.547
4.98,32377.2,35600.1,1.207,1.2178,146.7,96.3,0.547
5.0,32171.7,35402.2,1.194,1.2063,146.7,96.3,0.547
5.02,32237.0,35257.7,1.1981,1.1979,146.7,96.3,0.547
5.04,32054.4,35197.4,1.1866,1.1945,146.7,96.3,0.547
5.06,32066.8,35130.9,1.1873,1.1906,146.7,96.3,0.547
5.08,32145.1,35050.9,1.1923,1.186,146.7,96.3,0.547
5.1,31953.3,34994.4,1.1801,1.1827,146.7,96.3,0.547
5.12,31911.8,34812.0,1.1775,1.1721,146.7,96.3,0.547
5.14,31837.2,34677.2,1.1728,1.1643,146.7,96.3,0.547
5.16,31878.3,34608.4,1.1754,1.1603,146.7,96.3,0.547
5.18,31896.1,34692.6,1.1765,1.1652,146.7,96.3,0.547
5.2,31771.1,34707.8,1.1686,1.1661,146.7,96.3,0.547
5.22,31764.7,34546.2,1.1682,1.1567,146.7,96.3,0.547
5.24,31636.3,34463.7,1.1601,1.1519,146.7,96.3,0.547
5.26,31733.6,34386.7,1.1662,1.1475,146.7,96.3,0.547
5.28,31736.3,34619.0,1.1664,1.1609,146.7,96.3,0.547
5.3,31980.5,34831.3,1.1819,1.1732,146.7,96.3,0.547
5.32,32066.3,35269.1,1.1873,1.1986,146.7,96.3,0.547
5.34,32265.0,35568.4,1.1999,1.216,146.7,96.3,0.547
5.36,32389.6,35732.2,1.2078,1.2254,146.7,96.3,0.547
5.38,32269.3,35753.3,1.2002,1.2267,146.7,96.3,0.547
5.4,32282.7,35583.0,1.201,1.2168,146.7,96.3,0.547
5.42,32172.9,35268.6,1.1941,1.1986,146.7,96.3,0.547
5.44,32074.5,35236.5,1.1878,1.1967,146.7,96.3,0.547
5.46,32001.0,35099.7,1.1832,1.1888,146.7,96.3,0.547
5.48,32059.1,35062.1,1.1869,1.1866,146.7,96.3,0.547
5.5,32089.8,34975.4,1.1888,1.1816,146.7,96.3,0.547
5.52,31993.9,34918.4,1.1827,1.1783,146.7,96.3,0.547
5.54,31886.7,34684.1,1.1759,1.1647,146.7,96.3,0.547
5.56,31808.3,34764.7,1.171,1.1694,146.7,96.3,0.547
5.58,31728.9,34641.3,1.1659,1.1622,146.7,96.3,0.547
5.6,31829.3,34596.9,1.1723,1.1597,146.7,96.3,0.547
5.62,31804.7,34648.5,1.1707,1.1626,146.7,96.3,0.547
5.64,31751.1,34507.4,1.1673,1.1545,146.7,96.3,0.547
5.66,31709.7,34569.3,1.1647,1.1581,146.7,96.3,0.547
5.68,31775.6,34543.2,1.1689,1.1565,146.7,96.3,0.547
5.7,31847.8,34659.9,1.1735,1.1633,146.7,96.3,0.547
5.72,32090.6,35104.2,1.1888,1.1891,146.7,96.3,0.547
5.74,32226.0,35434.5,1.1974,1.2082,146.7,96.3,0.547
5.76,32305.3,35738.9,1.2025,1.2258,146.7,96.3,0.547
5.78,32339.1,35807.0,1.2046,1.2298,146.7,96.3,0.547
5.8,32343.2,35661.4,1.2049,1.2213,146.7,96.3,0.547
5.82,32253.5,35460.3,1.1992,1.2097,146.7,96.3,0.547
5.84,32212.8,35141.3,1.1966,1.1912,146.7,96.3,0.547
5.86,32143.3,35129.3,1.1922,1.1905,146.7,96.3,0.547
5.88,32093.4,35122.0,1.189,1.1901,146.7,96.3,0.547
5.9,32011.0,35123.2,1.1838,1.1902,146.7,96.3,0.547
5.92,31888.7,34956.0,1.1761,1.1805,146.7,96.3,0.547
5.94,31948.5,34730.6,1.1798,1.1674,146.7,96.3,0.547
5.96,31845.8,34766.4,1.1733,1.1695,146.7,96.3,0.547
5.98,31818.7,34648.0,1.1716,1.1626,146.7,96.3,0.547
6.0,31895.9,34630.2,1.1765,1.1616,146.7,96.3,0.547
6.02,31855.2,34572.6,1.1739,1.1583,146.7,96.3,0.547
6.04,31794.6,34561.7,1.1701,1.1576,146.7,96.3,0.547
6.06,31781.2,34444.5,1.1692,1.1508,146.7,96.3,0.547
6.08,31745.4,34516.7,1.167,1.155,146.7,96.3,0.547
6.1,31753.7,34595.9,1.1675,1.1596,146.7,96.3,0.547
6.12,31975.7,34855.6,1.1816,1.1747,146.7,96.3,0.547
6.14,32175.5,35302.8,1.1942,1.2006,146.7,96.3,0.547
6.16,32282.6,35526.8,1.201,1.2135,146.7,96.3,0.547
6.18,32335.8,35732.0,1.2044,1.2254,146.7,96.3,0.547
6.2,32384.5,35654.7,1.2075,1.221,146.7,96.3,0.547
6.22,32214.1,35547.4,1.1967,1.2147,146.7,96.3,0.547
6.24,32160.6,35359.2,1.1933,1.2038,146.7,96.3,0.547
6.26,32109.7,35164.6,1.1901,1.1926,146.7,96.3,0.547
6.28,32049.5,35030.0,1.1862,1.1848,146.7,96.3,0.547
6.3,32033.8,35043.1,1.1852,1.1855,146.7,96.3,0.547
6.32,31983.1,34998.5,1.182,1.1829,146.7,96.3,0.547
6.34,31848.9,34920.2,1.1735,1.1784,146.7,96.3,0.547
6.36,31893.6,34802.1,1.1764,1.1715,146.7,96.3,0.547
6.38,31833.5,34695.5,1.1725,1.1654,146.7,96.3,0.547
6.4,31890.1,34675.5,1.1761,1.1642,146.7,96.3,0.547
6.42,31865.0,34632.9,1.1745,1.1617,146.7,96.3,0.547
6.44,31799.7,34575.5,1.1704,1.1584,146.7,96.3,0.547
6.46,31773.0,34548.6,1.1687,1.1569,146.7,96.3,0.547
6.48,31738.9,34484.8,1.1666,1.1532,146.7,96.3,0.547
6.5,31789.8,34443.4,1.1698,1.1508,146.7,96.3,0.547
6.52,31821.4,34755.6,1.1718,1.1689,146.7,96.3,0.547
6.54,32028.3,35078.1,1.1849,1.1875,146.7,96.3,0.547
6.56,32243.8,35510.8,1.1986,1.2126,146.7,96.3,0.547
6.58,32381.1,35707.0,1.2073,1.224,146.7,96.3,0.547
6.6,32292.5,35754.8,1.2016,1.2268,146.7,96.3,0.547
6.62,32277.4,35613.7,1.2007,1.2186,146.7,96.3,0.547
6.64,32227.7,35462.5,1.1975,1.2098,146.7,96.3,0.547
6.66,32139.4,35221.7,1.1919,1.1959,146.7,96.3,0.547
6.68,32035.7,35147.1,1.1854,1.1915,146.7,96.3,0.547
6.7,32064.9,35075.2,1.1872,1.1874,146.7,96.3,0.547
6.72,32033.1,35035.4,1.1852,1.1851,146.7,96.3,0.547
6.74,31997.5,34982.5,1.1829,1.182,146.7,96.3,0.547
6.76,31893.6,34783.6,1.1764,1.1705,146.7,96.3,0.547
6.78,31897.6,34771.7,1.1766,1.1698,146.7,96.3,0.547
6.8,31794.0,34698.7,1.1701,1.1656,146.7,96.3,0.547
6.82,31818.8,34521.4,1.1716,1.1553,146.7,96.3,0.547
6.84,31824.1,34634.1,1.172,1.1618,146.7,96.3,0.547
6.86,31799.4,34592.6,1.1704,1.1594,146.7,96.3,0.547
6.88,31765.3,34493.6,1.1682,1.1537,146.7,96.3,0.547
6.9,31658.6,34426.6,1.1615,1.1498,146.7,96.3,0.547
6.92,31813.8,34584.0,1.1713,1.1589,146.7,96.3,0.547
6.94,31939.7,34914.6,1.1793,1.1781,146.7,96.3,0.547
6.96,32233.4,35321.3,1.1979,1.2016,146.7,96.3,0.547
6.98,32245.9,35742.3,1.1987,1.226,146.7,96.3,0.547
7.0,32399.8,35735.7,1.2084,1.2256,146.7,96.3,0.547
7.02,32378.7,35722.9,1.2071,1.2249,146.7,96.3,0.547
7.04,32201.7,35470.1,1.1959,1.2103,146.7,96.3,0.547
7.06,32099.2,35342.9,1.1894,1.2029,146.7,96.3,0.547
7.08,32150.0,35040.6,1.1926,1.1854,146.7,96.3,0.547
7.1,32083.3,35055.2,1.1884,1.1862,146.7,96.3,0.547
7.12,32008.5,35032.4,1.1836,1.1849,146.7,96.3,0.547
7.14,31975.1,35035.6,1.1815,1.1851,146.7,96.3,0.547
7.16,31895.3,34813.2,1.1765,1.1722,146.7,96.3,0.547
7.18,31845.2,34805.5,1.1733,1.1717,146.7,96.3,0.547
7.2,31886.8,34715.4,1.1759,1.1665,146.7,96.3,0.547
7.22,31796.6,34551.0,1.1702,1.157,146.7,96.3,0.547
7.24,31843.8,34666.4,1.1732,1.1637,146.7,96.3,0.547
7.26,31816.4,34541.1,1.1715,1.1564,146.7,96.3,0.547
7.28,31763.6,34465.5,1.1681,1.152,146.7,96.3,0.547
7.3,31733.9,34430.4,1.1662,1.15,146.7,96.3,0.547
7.32,31841.9,34524.3,1.1731,1.1554,146.7,96.3,0.547
7.34,31883.8,34823.5,1.1757,1.1728,146.7,96.3,0.547
7.36,32093.4,35163.0,1.189,1.1925,146.7,96.3,0.547
7.38,32198.3,35494.8,1.1957,1.2117,146.7,96.3,0.547
7.4,32353.1,35729.0,1.2055,1.2253,146.7,96.3,0.547
7.42,32353.4,35700.3,1.2055,1.2236,146.7,96.3,0.547
7.44,32331.8,35631.3,1.2041,1.2196,146.7,96.3,0.547
7.46,32263.4,35382.7,1.1998,1.2052,146.7,96.3,0.547
7.48,32075.6,35293.9,1.1879,1.2,146.7,96.3,0.547
7.5,31985.4,35148.1,1.1822,1.1916,146.7,96.3,0.547
7.52,31992.7,35099.4,1.1826,1.1888,146.7,96.3,0.547
7.54,32037.6,35071.1,1.1855,1.1871,146.7,96.3,0.547
7.56,31966.3,34966.5,1.181,1.1811,146.7,96.3,0.547
7.58,31822.8,34784.7,1.1719,1.1705,146.7,96.3,0.547
7.6,31790.0,34776.2,1.1698,1.17,146.7,96.3,0.547
7.62,31862.0,34562.2,1.1744,1.1576,146.7,96.3,0.547
7.64,31824.6,34631.2,1.172,1.1616,146.7,96.3,0.547
7.66,31783.0,34668.0,1.1694,1.1638,146.7,96.3,0.547
7.68,31825.2,34521.4,1.172,1.1553,146.7,96.3,0.547
7.7,31685.0,34393.1,1.1631,1.1478,146.7,96.3,0.547
7.72,31766.5,34478.3,1.1683,1.1528,146.7,96.3,0.547
7.74,31783.2,34687.8,1.1694,1.1649,146.7,96.3,0.547
7.76,31951.3,34964.9,1.18,1.181,146.7,96.3,0.547
7.78,32140.4,35299.6,1.192,1.2004,146.7,96.3,0.547
7.8,32329.8,35673.7,1.204,1.2221,146.7,96.3,0.547
7.82,32402.8,35805.8,1.2086,1.2297,146.7,96.3,0.547
7.84,32334.2,35594.4,1.2043,1.2175,146.7,96.3,0.547
7.86,32290.9,35553.7,1.2015,1.2151,146.7,96.3,0.547
7.88,32137.5,35313.0,1.1918,1.2012,146.7,96.3,0.547
7.9,32246.9,35078.8,1.1988,1.1876,146.7,96.3,0.547
7.92,32040.1,35011.3,1.1856,1.1837,146.7,96.3,0.547
7.94,32061.3,35102.1,1.187,1.1889,146.7,96.3,0.547
7.96,32014.4,34905.4,1.184,1.1775,146.7,96.3,0.547
7.98,31929.0,34902.4,1.1786,1.1774,146.7,96.3,0.547
8.0,31893.7,34778.5,1.1764,1.1702,146.7,96.3,0.547
8.02,31743.0,34734.4,1.1668,1.1676,146.7,96.3,0.547
8.04,31729.2,34653.3,1.1659,1.1629,146.7,96.3,0.547
8.06,31774.2,34584.0,1.1688,1.1589,146.7,96.3,0.547
8.08,31748.2,34634.6,1.1671,1.1618,146.7,96.3,0.547
8.1,31824.9,34428.1,1.172,1.1499,146.7,96.3,0.547
8.12,31775.9,34403.7,1.1689,1.1485,146.7,96.3,0.547
8.14,31745.1,34551.3,1.1669,1.157,146.7,96.3,0.547
8.16,31929.5,34825.6,1.1786,1.1729,146.7,96.3,0.547
8.18,32024.1,35170.2,1.1846,1.1929,146.7,96.3,0.547
8.2,32250.7,35542.9,1.199,1.2145,146.7,96.3,0.547
8.22,32331.4,35754.4,1.2041,1.2267,146.7,96.3,0.547
8.24,32359.4,35736.3,1.2059,1.2257,146.7,96.3,0.547
8.26,32277.8,35645.2,1.2007,1.2204,146.7,96.3,0.547
8.28,32135.8,35497.2,1.1917,1.2118,146.7,96.3,0.547
8.3,32045.6,35201.2,1.186,1.1947,146.7,96.3,0.547
8.32,32163.1,35114.2,1.1934,1.1896,146.7,96.3,0.547
8.34,32026.8,34975.3,1.1848,1.1816,146.7,96.3,0.547
8.36,31994.4,35029.5,1.1827,1.1847,146.7,96.3,0.547
8.38,31973.4,34820.1,1.1814,1.1726,146.7,96.3,0.547
8.4,31850.2,34756.1,1.1736,1.1689,146.7,96.3,0.547
8.42,31802.2,34677.9,1.1706,1.1644,146.7,96.3,0.547
8.44,31939.2,34615.6,1.1792,1.1607,146.7,96.3,0.547
8.46,31764.9,34706.1,1.1682,1.166,146.7,96.3,0.547
8.48,31782.3,34660.6,1.1693,1.1633,146.7,96.3,0.547
8.5,31631.5,34505.0,1.1597,1.1543,146.7,96.3,0.547
8.52,31637.6,34503.3,1.1601,1.1542,146.7,96.3,0.547
8.54,31817.8,34543.1,1.1716,1.1565,146.7,96.3,0.547
8.56,31791.8,34742.7,1.1699,1.1681,146.7,96.3,0.547
8.58,31961.3,35116.7,1.1807,1.1898,146.7,96.3,0.547
8.6,32250.1,35413.1,1.199,1.207,146.7,96.3,0.547
8.62,32348.0,35728.5,1.2052,1.2252,146.7,96.3,0.547
8.64,32407.3,35681.1,1.2089,1.2225,146.7,96.3,0.547
8.66,32373.9,35709.4,1.2068,1.2241,146.7,96.3,0.547
8.68,32181.2,35463.8,1.1946,1.2099,146.7,96.3,0.547
8.7,32201.0,35245.0,1.1958,1.1972,146.7,96.3,0.547
8.72,32086.2,35125.4,1.1886,1.1903,146.7,96.3,0.547
8.74,32090.0,35068.1,1.1888,1.187,146.7,96.3,0.547
8.76,32003.9,35107.7,1.1834,1.1893,146.7,96.3,0.547
8.78,32035.4,34951.0,1.1853,1.1802,146.7,96.3,0.547
8.8,31917.2,34789.6,1.1779,1.1708,146.7,96.3,0.547
8.82,31841.3,34775.4,1.173,1.17,146.7,96.3,0.547
8.84,31808.7,34622.1,1.171,1.1611,146.7,96.3,0.547
8.86,31808.2,34576.6,1.1709,1.1585,146.7,96.3,0.547
8.88,31820.9,34682.2,1.1718,1.1646,146.7,96.3,0.547
8.9,31785.3,34690.7,1.1695,1.1651,146.7,96.3,0.547
8.92,31820.9,34440.3,1.1718,1.1506,146.7,96.3,0.547
8.94,31731.8,34440.0,1.1661,1.1506,146.7,96.3,0.547
8.96,31783.2,34553.5,1.1694,1.1571,146.7,96.3,0.547
8.98,31940.5,34855.3,1.1793,1.1746,146.7,96.3,0.547
9.0,32089.0,35178.3,1.1887,1.1933,146.7,96.3,0.547
9.02,32256.5,35563.4,1.1994,1.2157,146.7,96.3,0.547
9.04,32274.1,35651.9,1.2005,1.2208,146.7,96.3,0.547
9.06,32265.0,35685.9,1.1999,1.2228,146.7,96.3,0.547
9.08,32265.2,35587.5,1.1999,1.2171,146.7,96.3,0.547
9.1,32282.7,35405.5,1.201,1.2065,146.7,96.3,0.547
9.12,32168.8,35151.5,1.1938,1.1918,146.7,96.3,0.547
9.14,32105.3,35103.8,1.1898,1.189,146.7,96.3,0.547
9.16,32020.8,35070.9,1.1844,1.1871,146.7,96.3,0.547
9.18,32029.3,35026.0,1.185,1.1845,146.7,96.3,0.547
9.2,31945.8,34867.8,1.1797,1.1754,146.7,96.3,0.547
9.22,31902.0,34682.6,1.1769,1.1646,146.7,96.3,0.547
9.24,31805.7,34631.1,1.1708,1.1616,146.7,96.3,0.547
9.26,31821.4,34679.2,1.1718,1.1644,146.7,96.3,0.547
9.28,31888.6,34651.2,1.176,1.1628,146.7,96.3,0.547
9.3,31844.1,34543.6,1.1732,1.1566,146.7,96.3,0.547
9.32,31743.1,34532.9,1.1668,1.156,146.7,96.3,0.547
9.34,31680.1,34385.2,1.1628,1.1474,146.7,96.3,0.547
9.36,31762.9,34497.6,1.1681,1.1539,146.7,96.3,0.547
9.38,31854.8,34696.1,1.1739,1.1654,146.7,96.3,0.547
9.4,32092.9,35083.0,1.189,1.1878,146.7,96.3,0.547
9.42,32181.9,35353.0,1.1946,1.2035,146.7,96.3,0.547
9.44,32401.9,35678.5,1.2086,1.2223,146.7,96.3,0.547
9.46,32360.8,35694.3,1.206,1.2232,146.7,96.3,0.547
9.48,32278.6,35650.9,1.2008,1.2207,146.7,96.3,0.547
9.5,32181.5,35408.1,1.1946,1.2067,146.7,96.3,0.547
9.52,32171.6,35171.8,1.194,1.193,146.7,96.3,0.547
9.54,32054.8,35181.7,1.1866,1.1935,146.7,96.3,0.547
9.56,32012.6,35083.1,1.1839,1.1878,146.7,96.3,0.547
9.58,31991.3,35027.2,1.1825,1.1846,146.7,96.3,0.547
9.6,31991.3,34912.2,1.1826,1.1779,146.7,96.3,0.547
9.62,31897.7,34871.0,1.1766,1.1755,146.7,96.3,0.547
9.64,31916.7,34733.9,1.1778,1.1676,146.7,96.3,0.547
9.66,31811.5,34649.8,1.1712,1.1627,146.7,96.3,0.547
9.68,31776.6,34715.5,1.1689,1.1665,146.7,96.3,0.547
9.7,31799.2,34585.7,1.1704,1.159,146.7,96.3,0.547
9.72,31768.6,34535.6,1.1684,1.1561,146.7,96.3,0.547
9.74,31737.7,34524.3,1.1665,1.1555,146.7,96.3,0.547
9.76,31727.3,34464.8,1.1658,1.152,146.7,96.3,0.547
9.78,31812.9,34572.6,1.1712,1.1583,146.7,96.3,0.547
9.8,31909.8,34917.6,1.1774,1.1782,146.7,96.3,0.547
9.82,32098.1,35285.3,1.1893,1.1995,146.7,96.3,0.547
9.84,32283.6,35606.9,1.2011,1.2182,146.7,96.3,0.547
9.86,32430.8,35832.1,1.2104,1.2312,146.7,96.3,0.547
9.88,32292.9,35758.3,1.2017,1.227,146.7,96.3,0.547
9.9,32340.3,35522.4,1.2047,1.2133,146.7,96.3,0.547
9.92,32151.9,35254.5,1.1927,1.1978,146.7,96.3,0.547
9.94,32140.4,35221.1,1.192,1.1958,146.7,96.3,0.547
9.96,31987.6,35118.5,1.1823,1.1899,146.7,96.3,0.547
9.98,32061.9,34938.4,1.187,1.1794,146.7,96.3,0.547
10.0,31999.5,34977.1,1.1831,1.1817,146.7,96.3,0.547
10.02,31865.0,34810.3,1.1745,1.172,146.7,96.3,0.547
10.04,31894.1,34743.4,1.1764,1.1681,146.7,96.3,0.547
10.06,31865.8,34706.2,1.1746,1.166,146.7,96.3,0.547
10.08,31800.1,34704.1,1.1704,1.1659,146.7,96.3,0.547
10.1,31907.4,34622.0,1.1772,1.1611,146.7,96.3,0.547
10.12,31836.4,34523.5,1.1727,1.1554,146.7,96.3,0.547
10.14,31782.1,34445.3,1.1693,1.1509,146.7,96.3,0.547
10.16,31678.2,34454.6,1.1627,1.1514,146.7,96.3,0.547
10.18,31755.7,34442.9,1.1676,1.1507,146.7,96.3,0.547
10.2,31892.5,34768.1,1.1763,1.1696,146.7,96.3,0.547
10.22,32129.9,35112.5,1.1913,1.1895,146.7,96.3,0.547
10.24,32246.5,35443.0,1.1987,1.2087,146.7,96.3,0.547
10.26,32295.3,35720.9,1.2018,1.2248,146.7,96.3,0.547
10.28,32365.6,35725.2,1.2063,1.225,146.7,96.3,0.547
10.3,32213.7,35649.2,1.1966,1.2206,146.7,96.3,0.547
10.32,32247.7,35409.8,1.1988,1.2068,146.7,96.3,0.547
10.34,32159.1,35297.7,1.1932,1.2003,146.7,96.3,0.547
10.36,32052.6,35043.3,1.1864,1.1855,146.7,96.3,0.547
10.38,31995.1,35028.2,1.1828,1.1846,146.7,96.3,0.547
10.4,32017.4,35026.2,1.1842,1.1845,146.7,96.3,0.547
10.42,31888.7,34922.1,1.1761,1.1785,146.7,96.3,0.547
10.44,31882.4,34797.4,1.1756,1.1713,146.7,96.3,0.547
10.46,31895.8,34814.0,1.1765,1.1722,146.7,96.3,0.547
10.48,31836.4,34594.3,1.1727,1.1595,146.7,96.3,0.547
10.5,31796.1,34632.0,1.1702,1.1617,146.7,96.3,0.547
10.52,31843.6,34731.0,1.1732,1.1674,146.7,96.3,0.547
10.54,31745.9,34600.9,1.167,1.1599,146.7,96.3,0.547
10.56,31810.6,34466.0,1.1711,1.1521,146.7,96.3,0.547
10.58,31736.8,34537.7,1.1664,1.1562,146.7,96.3,0.547
10.6,31765.9,34629.1,1.1683,1.1615,146.7,96.3,0.547
10.62,32023.5,34896.5,1.1846,1.177,146.7,96.3,0.547
10.64,32126.5,35272.4,1.1911,1.1988,146.7,96.3,0.547
10.66,32341.4,35574.5,1.2047,1.2163,146.7,96.3,0.547
10.68,32385.4,35810.7,1.2075,1.23,146.7,96.3,0.547
10.7,32348.0,35696.8,1.2052,1.2234,146.7,96.3,0.547
10.72,32369.2,35502.2,1.2065,1.2121,146.7,96.3,0.547
10.74,32221.5,35372.5,1.1971,1.2046,146.7,96.3,0.547
10.76,32061.9,35145.2,1.187,1.1914,146.7,96.3,0.547
10.78,32028.9,35078.0,1.1849,1.1875,146.7,96.3,0.547
10.8,32062.3,35028.6,1.1871,1.1847,146.7,96.3,0.547
10.82,32078.1,34962.5,1.1881,1.1808,146.7,96.3,0.547
10.84,31959.5,34934.4,1.1805,1.1792,146.7,96.3,0.547
10.86,31894.4,34832.1,1.1764,1.1733,146.7,96.3,0.547
10.88,31852.0,34694.4,1.1737,1.1653,146.7,96.3,0.547
10.9,31858.9,34695.6,1.1742,1.1654,146.7,96.3,0.547
10.92,31852.9,34691.9,1.1738,1.1652,146.7,96.3,0.547
10.94,31763.2,34605.6,1.1681,1.1602,146.7,96.3,0.547
10.96,31797.3,34560.6,1.1703,1.1576,146.7,96.3,0.547
10.98,31710.8,34416.4,1.1648,1.1492,146.7,96.3,0.547
11.0,31754.7,34520.1,1.1676,1.1552,146.7,96.3,0.547
11.02,31820.8,34786.2,1.1717,1.1706,146.7,96.3,0.547
11.04,32063.3,35137.6,1.1871,1.191,146.7,96.3,0.547
11.06,32245.1,35464.3,1.1986,1.2099,146.7,96.3,0.547
11.08,32340.3,35698.2,1.2047,1.2235,146.7,96.3,0.547
11.1,32343.0,35762.9,1.2048,1.2272,146.7,96.3,0.547
11.12,32257.0,35689.7,1.1994,1.223,146.7,96.3,0.547
11.14,32164.7,35476.9,1.1935,1.2107,146.7,96.3,0.547
11.16,32084.2,35060.6,1.1884,1.1865,146.7,96.3,0.547
11.18,32056.6,35117.9,1.1867,1.1898,146.7,96.3,0.547
11.2,31995.2,35053.8,1.1828,1.1861,146.7,96.3,0.547
11.22,31987.0,35006.4,1.1823,1.1834,146.7,96.3,0.547
11.24,31938.1,34900.3,1.1792,1.1772,146.7,96.3,0.547
11.26,31884.6,34768.9,1.1758,1.1696,146.7,96.3,0.547
11.28,31837.5,34714.5,1.1728,1.1665,146.7,96.3,0.547
11.3,31776.1,34697.4,1.1689,1.1655,146.7,96.3,0.547
11.32,31871.9,34610.6,1.175,1.1605,146.7,96.3,0.547
11.34,31861.5,34660.5,1.1743,1.1633,146.7,96.3,0.547
11.36,31791.8,34579.9,1.1699,1.1587,146.7,96.3,0.547
11.38,31766.8,34482.8,1.1683,1.153,146.7,96.3,0.547
11.4,31660.9,34535.0,1.1616,1.1561,146.7,96.3,0.547
11.42,31922.4,34616.2,1.1782,1.1608,146.7,96.3,0.547
11.44,31918.5,34928.7,1.1779,1.1789,146.7,96.3,0.547
11.46,32138.2,35340.1,1.1919,1.2027,146.7,96.3,0.547
11.48,32343.3,35750.9,1.2049,1.2265,146.7,96.3,0.547
11.5,32380.3,35676.0,1.2072,1.2222,146.7,96.3,0.547
11.52,32306.1,35756.7,1.2025,1.2269,146.7,96.3,0.547
11.54,32290.9,35494.1,1.2015,1.2116,146.7,96.3,0.547
11.56,32126.9,35292.4,1.1911,1.2,146.7,96.3,0.547
11.58,32046.6,35211.3,1.1861,1.1953,146.7,96.3,0.547
11.6,32076.0,35097.6,1.1879,1.1887,146.7,96.3,0.547
11.62,32014.9,35011.0,1.1841,1.1837,146.7,96.3,0.547
11.64,31958.2,34991.6,1.1805,1.1825,146.7,96.3,0.547
11.66,31978.5,34760.6,1.1817,1.1691,146.7,96.3,0.547
11.68,31897.6,34762.5,1.1766,1.1693,146.7,96.3,0.547
11.7,31906.8,34672.9,1.1772,1.1641,146.7,96.3,0.547
11.72,31751.7,34663.9,1.1674,1.1635,146.7,96.3,0.547
11.74,31844.1,34668.1,1.1732,1.1638,146.7,96.3,0.547
11.76,31844.2,34570.9,1.1732,1.1582,146.7,96.3,0.547
11.78,31720.4,34434.0,1.1654,1.1502,146.7,96.3,0.547
11.8,31721.7,34387.8,1.1655,1.1475,146.7,96.3,0.547
11.82,31742.2,34644.5,1.1668,1.1624,146.7,96.3,0.547
11.84,31884.8,34738.4,1.1758,1.1679,146.7,96.3,0.547
11.86,32083.9,35212.5,1.1884,1.1953,146.7,96.3,0.547
11.88,32197.8,35533.6,1.1956,1.2139,146.7,96.3,0.547
11.9,32373.3,35715.3,1.2068,1.2245,146.7,96.3,0.547
11.92,32391.3,35654.6,1.2079,1.2209,146.7,96.3,0.547
11.94,32327.8,35600.7,1.2039,1.2178,146.7,96.3,0.547
11.96,32184.7,35397.9,1.1948,1.2061,146.7,96.3,0.547
11.98,32171.6,35178.9,1.194,1.1934,146.7,96.3,0.547
12.0,32065.0,35098.9,1.1872,1.1887,146.7,96.3,0.547
12.02,32029.1,35121.8,1.1849,1.1901,146.7,96.3,0.547
12.04,32004.0,35008.6,1.1834,1.1835,146.7,96.3,0.547
12.06,31962.8,34860.0,1.1807,1.1749,146.7,96.3,0.547
12.08,31899.2,34731.8,1.1767,1.1675,146.7,96.3,0.547
12.1,31851.6,34754.8,1.1737,1.1688,146.7,96.3,0.547
12.12,31838.0,34686.6,1.1728,1.1649,146.7,96.3,0.547
12.14,31851.6,34613.8,1.1737,1.1606,146.7,96.3,0.547
12.16,31835.3,34666.1,1.1727,1.1637,146.7,96.3,0.547
12.18,31809.2,34471.7,1.171,1.1524,146.7,96.3,0.547
12.2,31706.0,34470.8,1.1645,1.1524,146.7,96.3,0.547
12.22,31777.4,34491.6,1.169,1.1536,146.7,96.3,0.547
12.24,31891.0,34674.5,1.1762,1.1642,146.7,96.3,0.547
12.26,31944.0,34979.9,1.1796,1.1819,146.7,96.3,0.547
12.28,32213.7,35337.3,1.1967,1.2026,146.7,96.3,0.547
12.3,32330.0,35720.4,1.204,1.2248,146.7,96.3,0.547
12.32,32307.6,35744.0,1.2026,1.2261,146.7,96.3,0.547
12.34,32354.1,35695.5,1.2055,1.2233,146.7,96.3,0.547
12.36,32221.7,35499.3,1.1972,1.2119,146.7,96.3,0.547
12.38,32158.5,35254.6,1.1931,1.1978,146.7,96.3,0.547
12.4,32067.6,35195.1,1.1874,1.1943,146.7,96.3,0.547
12.42,32050.6,35090.5,1.1863,1.1883,146.7,96.3,0.547
12.44,32053.3,35101.5,1.1865,1.1889,146.7,96.3,0.547
12.46,31918.2,35009.0,1.1779,1.1835,146.7,96.3,0.547
12.48,32072.7,34814.2,1.1877,1.1723,146.7,96.3,0.547
12.5,31902.6,34740.5,1.1769,1.168,146.7,96.3,0.547
12.52,31857.9,34715.4,1.1741,1.1665,146.7,96.3,0.547
12.54,31915.7,34615.3,1.1778,1.1607,146.7,96.3,0.547
12.56,31807.4,34684.5,1.1709,1.1647,146.7,96.3,0.547
12.58,31795.3,34505.8,1.1701,1.1544,146.7,96.3,0.547
12.6,31775.5,34521.7,1.1689,1.1553,146.7,96.3,0.547
12.62,31800.5,34469.7,1.1705,1.1523,146.7,96.3,0.547
12.64,31719.0,34508.3,1.1653,1.1545,146.7,96.3,0.547
12.66,31798.3,34926.9,1.1703,1.1788,146.7,96.3,0.547
12.68,32134.7,35102.6,1.1916,1.189,146.7,96.3,0.547
12.7,32340.4,35529.2,1.2047,1.2137,146.7,96.3,0.547
12.72,32326.2,35758.3,1.2038,1.227,146.7,96.3,0.547
12.74,32321.8,35795.3,1.2035,1.2291,146.7,96.3,0.547
12.76,32291.6,35461.2,1.2016,1.2097,146.7,96.3,0.547
12.78,32107.3,35387.7,1.1899,1.2055,146.7,96.3,0.547
12.8,32100.2,35215.7,1.1895,1.1955,146.7,96.3,0.547
12.82,32082.4,35162.7,1.1883,1.1924,146.7,96.3,0.547
12.84,31988.3,35059.8,1.1824,1.1865,146.7,96.3,0.547
12.86,31934.7,35025.0,1.179,1.1845,146.7,96.3,0.547
12.88,31958.7,34809.5,1.1805,1.172,146.7,96.3,0.547
12.9,31802.6,34871.7,1.1706,1.1756,146.7,96.3,0.547
12.92,31789.5,34646.6,1.1698,1.1625,146.7,96.3,0.547
12.94,31848.7,34708.7,1.1735,1.1661,146.7,96.3,0.547
12.96,31825.0,34522.9,1.172,1.1554,146.7,96.3,0.547
12.98,31873.2,34575.3,1.1751,1.1584,146.7,96.3,0.547
13.0,31734.4,34511.8,1.1663,1.1547,146.7,96.3,0.547
13.02,31727.5,34415.1,1.1658,1.1491,146.7,96.3,0.547
13.04,31780.9,34494.2,1.1692,1.1537,146.7,96.3,0.547
13.06,31863.6,34699.7,1.1745,1.1656,146.7,96.3,0.547
13.08,32027.4,35021.7,1.1848,1.1843,146.7,96.3,0.547
13.1,32278.7,35373.9,1.2008,1.2047,146.7,96.3,0.547
13.12,32374.1,35742.9,1.2068,1.2261,146.7,96.3,0.547
13.14,32342.7,35772.0,1.2048,1.2278,146.7,96.3,0.547
13.16,32334.1,35609.1,1.2043,1.2183,146.7,96.3,0.547
13.18,32211.4,35490.1,1.1965,1.2114,146.7,96.3,0.547
13.2,32116.2,35244.7,1.1905,1.1972,146.7,96.3,0.547
13.22,32038.2,35223.4,1.1855,1.196,146.7,96.3,0.547
13.24,32014.7,35233.8,1.184,1.1966,146.7,96.3,0.547
13.26,32022.5,35017.8,1.1845,1.184,146.7,96.3,0.547
13.28,32027.6,34836.9,1.1849,1.1736,146.7,96.3,0.547
13.3,31992.6,34821.2,1.1826,1.1727,146.7,96.3,0.547
13.32,31887.8,34816.8,1.176,1.1724,146.7,96.3,0.547
13.34,31799.5,34651.4,1.1704,1.1628,146.7,96.3,0.547
13.36,31827.5,34683.6,1.1722,1.1647,146.7,96.3,0.547
13.38,31821.6,34669.9,1.1718,1.1639,146.7,96.3,0.547
13.4,31795.8,34617.8,1.1702,1.1609,146.7,96.3,0.547
13.42,31753.7,34483.8,1.1675,1.1531,146.7,96.3,0.547
13.44,31749.7,34483.5,1.1672,1.1531,146.7,96.3,0.547
13.46,31870.8,34595.6,1.1749,1.1596,146.7,96.3,0.547
13.48,31956.6,34810.9,1.1804,1.1721,146.7,96.3,0.547
13.5,32175.4,35333.7,1.1942,1.2024,146.7,96.3,0.547
13.52,32301.8,35540.7,1.2022,1.2143,146.7,96.3,0.547
13.54,32424.9,35781.3,1.21,1.2283,146.7,96.3,0.547
13.56,32331.3,35775.2,1.2041,1.2279,146.7,96.3,0.547
13.58,32189.9,35619.5,1.1951,1.2189,146.7,96.3,0.547
13.6,32179.4,35331.0,1.1945,1.2022,146.7,96.3,0.547
13.62,32093.2,35212.4,1.189,1.1953,146.7,96.3,0.547
13.64,32120.9,35064.1,1.1908,1.1867,146.7,96.3,0.547
13.66,32026.0,35121.9,1.1848,1.1901,146.7,96.3,0.547
13.68,32001.7,34979.4,1.1832,1.1818,146.7,96.3,0.547
13.7,31947.5,34793.5,1.1798,1.171,146.7,96.3,0.547
13.72,31909.2,34804.0,1.1773,1.1717,146.7,96.3,0.547
13.74,31849.7,34712.1,1.1736,1.1663,146.7,96.3,0.547
13.76,31864.7,34656.7,1.1745,1.1631,146.7,96.3,0.547
13.78,31830.2,34648.1,1.1723,1.1626,146.7,96.3,0.547
13.8,31894.8,34589.5,1.1764,1.1592,146.7,96.3,0.547
13.82,31788.9,34527.0,1.1697,1.1556,146.7,96.3,0.547
13.84,31669.7,34487.1,1.1622,1.1533,146.7,96.3,0.547
13.86,31777.7,34519.4,1.169,1.1552,146.7,96.3,0.547
13.88,31830.5,34698.8,1.1724,1.1656,146.7,96.3,0.547
13.9,31988.9,35129.3,1.1824,1.1905,146.7,96.3,0.547
13.92,32153.3,35472.5,1.1928,1.2104,146.7,96.3,0.547
13.94,32292.1,35653.6,1.2016,1.2209,146.7,96.3,0.547
13.96,32327.1,35786.6,1.2038,1.2286,146.7,96.3,0.547
13.98,32252.4,35626.6,1.1991,1.2193,146.7,96.3,0.547
14.0,32255.0,35480.3,1.1993,1.2108,146.7,96.3,0.547
14.02,32157.3,35208.0,1.1931,1.1951,146.7,96.3,0.547
14.04,32009.5,35182.0,1.1837,1.1936,146.7,96.3,0.547
14.06,32105.2,35011.6,1.1898,1.1837,146.7,96.3,0.547
14.08,32077.7,35005.4,1.188,1.1833,146.7,96.3,0.547
14.1,31945.1,35026.9,1.1796,1.1846,146.7,96.3,0.547
14.12,31998.6,34802.4,1.183,1.1716,146.7,96.3,0.547
14.14,31888.1,34698.0,1.176,1.1655,146.7,96.3,0.547
14.16,31810.7,34691.8,1.1711,1.1652,146.7,96.3,0.547
14.18,31874.1,34711.9,1.1751,1.1663,146.7,96.3,0.547
14.2,31758.3,34597.8,1.1678,1.1597,146.7,96.3,0.547
14.22,31761.7,34563.0,1.168,1.1577,146.7,96.3,0.547
14.24,31788.5,34467.5,1.1697,1.1522,146.7,96.3,0.547
14.26,31766.5,34424.9,1.1683,1.1497,146.7,96.3,0.547
14.28,31809.4,34606.5,1.171,1.1602,146.7,96.3,0.547
14.3,31884.0,34899.5,1.1757,1.1772,146.7,96.3,0.547
14.32,32151.5,35321.2,1.1927,1.2016,146.7,96.3,0.547
14.34,32257.4,35602.4,1.1994,1.2179,146.7,96.3,0.547
14.36,32376.4,35771.4,1.207,1.2277,146.7,96.3,0.547
14.38,32298.3,35699.9,1.202,1.2236,146.7,96.3,0.547
14.4,32259.7,35646.7,1.1996,1.2205,146.7,96.3,0.547
14.42,32216.8,35390.7,1.1968,1.2057,146.7,96.3,0.547
14.44,32129.5,35164.2,1.1913,1.1925,146.7,96.3,0.547
14.46,32135.8,35071.5,1.1917,1.1872,146.7,96.3,0.547
14.48,32039.6,35022.4,1.1856,1.1843,146.7,96.3,0.547
14.5,31982.9,34961.5,1.182,1.1808,146.7,96.3,0.547
14.52,31906.4,34879.4,1.1772,1.176,146.7,96.3,0.547
14.54,31836.8,34763.1,1.1728,1.1693,146.7,96.3,0.547
14.56,31888.5,34592.6,1.176,1.1594,146.7,96.3,0.547
14.58,31822.6,34646.0,1.1719,1.1625,146.7,96.3,0.547
14.6,31840.4,34602.4,1.173,1.16,146.7,96.3,0.547
14.62,31789.7,34602.0,1.1698,1.16,146.7,96.3,0.547
14.64,31686.5,34475.0,1.1632,1.1526,146.7,96.3,0.547
14.66,31791.2,34431.7,1.1699,1.1501,146.7,96.3,0.547
14.68,31717.4,34487.5,1.1652,1.1533,146.7,96.3,0.547
14.7,31888.1,34745.8,1.176,1.1683,146.7,96.3,0.547
14.72,32043.5,35154.5,1.1859,1.192,146.7,96.3,0.547
14.74,32183.5,35467.5,1.1947,1.2101,146.7,96.3,0.547
14.76,32321.0,35626.5,1.2034,1.2193,146.7,96.3,0.547
14.78,32372.8,35702.9,1.2067,1.2237,146.7,96.3,0.547
14.8,32316.5,35539.6,1.2032,1.2143,146.7,96.3,0.547
14.82,32112.8,35403.8,1.1903,1.2064,146.7,96.3,0.547
14.84,32131.5,35262.6,1.1914,1.1982,146.7,96.3,0.547
14.86,31983.8,35099.4,1.1821,1.1888,146.7,96.3,0.547
14.88,31987.9,35117.6,1.1823,1.1898,146.7,96.3,0.547
14.9,32045.2,35144.3,1.186,1.1914,146.7,96.3,0.547
14.92,31905.2,34901.2,1.1771,1.1773,146.7,96.3,0.547
14.94,31912.0,34807.3,1.1775,1.1718,146.7,96.3,0.547
14.96,31850.4,34770.3,1.1736,1.1697,146.7,96.3,0.547
14.98,31919.8,34682.6,1.178,1.1646,146.7,96.3,0.547
15.0,31857.3,34602.9,1.1741,1.16,146.7,96.3,0.547
15.02,31790.4,34656.6,1.1698,1.1631,146.7,96.3,0.547
15.04,31746.9,34559.3,1.1671,1.1575,146.7,96.3,0.547
15.06,31721.0,34475.0,1.1654,1.1526,146.7,96.3,0.547
15.08,31734.1,34385.6,1.1663,1.1474,146.7,96.3,0.547
15.1,31755.6,34682.9,1.1676,1.1646,146.7,96.3,0.547
15.12,32082.3,34911.3,1.1883,1.1779,146.7,96.3,0.547
15.14,32172.2,35374.7,1.194,1.2047,146.7,96.3,0.547
15.16,32353.3,35710.9,1.2055,1.2242,146.7,96.3,0.547
15.18,32379.9,35728.0,1.2072,1.2252,146.7,96.3,0.547
15.2,32371.4,35664.1,1.2066,1.2215,146.7,96.3,0.547
15.22,32258.7,35467.4,1.1995,1.2101,146.7,96.3,0.547
15.24,32144.6,35311.0,1.1923,1.201,146.7,96.3,0.547
15.26,32052.0,35169.6,1.1864,1.1928,146.7,96.3,0.547
15.28,32058.7,35106.9,1.1868,1.1892,146.7,96.3,0.547
15.3,32072.9,34979.0,1.1877,1.1818,146.7,96.3,0.547
15.32,31934.2,35007.1,1.1789,1.1834,146.7,96.3,0.547
15.34,31924.5,34879.9,1.1783,1.1761,146.7,96.3,0.547
15.36,31905.5,34697.5,1.1771,1.1655,146.7,96.3,0.547
15.38,31827.7,34705.0,1.1722,1.1659,146.7,96.3,0.547
15.4,31750.8,34605.7,1.1673,1.1602,146.7,96.3,0.547
15.42,31808.8,34657.7,1.171,1.1632,146.7,96.3,0.547
15.44,31758.5,34619.2,1.1678,1.161,146.7,96.3,0.547
15.46,31775.7,34419.7,1.1689,1.1494,146.7,96.3,0.547
15.48,31687.6,34521.3,1.1633,1.1553,146.7,96.3,0.547
15.5,31775.5,34472.4,1.1689,1.1524,146.7,96.3,0.547
15.52,31859.1,34727.8,1.1742,1.1672,146.7,96.3,0.547
15.54,32167.4,35101.8,1.1937,1.1889,146.7,96.3,0.547
15.56,32187.6,35559.0,1.195,1.2154,146.7,96.3,0.547
15.58,32298.5,35722.9,1.202,1.2249,146.7,96.3,0.547
15.6,32401.0,35800.4,1.2085,1.2294,146.7,96.3,0.547
15.62,32311.2,35564.1,1.2028,1.2157,146.7,96.3,0.547
15.64,32171.8,35375.9,1.194,1.2048,146.7,96.3,0.547
15.66,32114.3,35192.0,1.1903,1.1941,146.7,96.3,0.547
15.68,32074.0,35121.0,1.1878,1.19,146.7,96.3,0.547
15.7,31980.8,35111.8,1.1819,1.1895,146.7,96.3,0.547
15.72,31979.8,34964.2,1.1818,1.1809,146.7,96.3,0.547
15.74,32019.7,34849.7,1.1844,1.1743,146.7,96.3,0.547
15.76,31838.5,34800.9,1.1729,1.1715,146.7,96.3,0.547
15.78,31970.9,34723.1,1.1813,1.167,146.7,96.3,0.547
15.8,31787.1,34626.8,1.1696,1.1614,146.7,96.3,0.547
15.82,31793.7,34636.9,1.17,1.162,146.7,96.3,0.547
15.84,31773.1,34644.8,1.1687,1.1624,146.7,96.3,0.547
15.86,31757.4,34634.8,1.1677,1.1619,146.7,96.3,0.547
15.88,31758.2,34495.9,1.1678,1.1538,146.7,96.3,0.547
15.9,31818.2,34489.4,1.1716,1.1534,146.7,96.3,0.547
15.92,31920.2,34646.9,1.178,1.1626,146.7,96.3,0.547
15.94,31969.2,35079.0,1.1812,1.1876,146.7,96.3,0.547
15.96,32193.7,35461.5,1.1954,1.2098,146.7,96.3,0.547
15.98,32316.6,35778.3,1.2032,1.2281,146.7,96.3,0.547
16.0,32330.4,35742.6,1.204,1.226,146.7,96.3,0.547
16.02,32359.3,35626.6,1.2059,1.2193,146.7,96.3,0.547
16.04,32236.8,35485.4,1.1981,1.2111,146.7,96.3,0.547
16.06,32073.1,35350.1,1.1877,1.2033,146.7,96.3,0.547
16.08,32099.5,35127.8,1.1894,1.1904,146.7,96.3,0.547
16.1,31989.7,35185.2,1.1824,1.1937,146.7,96.3,0.547
16.12,32057.5,35079.4,1.1868,1.1876,146.7,96.3,0.547
16.14,32008.8,34937.3,1.1837,1.1794,146.7,96.3,0.547
16.16,31907.6,34779.9,1.1772,1.1703,146.7,96.3,0.547
16.18,31842.4,34793.1,1.1731,1.171,146.7,96.3,0.547
16.2,31893.9,34632.6,1.1764,1.1617,146.7,96.3,0.547
16.22,31829.7,34694.1,1.1723,1.1653,146.7,96.3,0.547
16.24,31817.7,34622.0,1.1716,1.1611,146.7,96.3,0.547
16.26,31756.9,34600.1,1.1677,1.1598,146.7,96.3,0.547
16.28,31783.5,34476.0,1.1694,1.1527,146.7,96.3,0.547
16.3,31759.2,34398.2,1.1678,1.1481,146.7,96.3,0.547
16.32,31734.5,34586.2,1.1663,1.159,146.7,96.3,0.547
16.34,31908.8,34823.8,1.1773,1.1728,146.7,96.3,0.547
16.36,32064.7,35252.9,1.1872,1.1977,146.7,96.3,0.547
16.38,32281.1,35536.8,1.2009,1.2141,146.7,96.3,0.547
16.4,32495.9,35749.7,1.2145,1.2265,146.7,96.3,0.547
16.42,32260.9,35699.4,1.1996,1.2235,146.7,96.3,0.547
16.44,32289.6,35547.5,1.2015,1.2147,146.7,96.3,0.547
16.46,32193.2,35402.4,1.1954,1.2063,146.7,96.3,0.547
16.48,32138.8,35165.8,1.1919,1.1926,146.7,96.3,0.547
16.5,32079.6,35106.6,1.1881,1.1892,146.7,96.3,0.547
16.52,32061.0,35094.8,1.187,1.1885,146.7,96.3,0.547
16.54,31878.3,34925.0,1.1754,1.1787,146.7,96.3,0.547
16.56,31926.7,34943.0,1.1785,1.1797,146.7,96.3,0.547
16.58,31908.0,34853.3,1.1773,1.1745,146.7,96.3,0.547
16.6,31851.3,34591.4,1.1737,1.1593,146.7,96.3,0.547
16.62,31842.2,34750.1,1.1731,1.1685,146.7,96.3,0.547
16.64,31775.1,34663.5,1.1689,1.1635,146.7,96.3,0.547
16.66,31766.8,34533.5,1.1683,1.156,146.7,96.3,0.547
16.68,31755.7,34419.0,1.1676,1.1494,146.7,96.3,0.547
16.7,31781.8,34369.9,1.1693,1.1465,146.7,96.3,0.547
16.72,31642.8,34426.6,1.1605,1.1498,146.7,96.3,0.547
16.74,31814.8,34722.9,1.1714,1.167,146.7,96.3,0.547
16.76,31958.3,35006.1,1.1805,1.1834,146.7,96.3,0.547
16.78,32201.1,35411.1,1.1959,1.2068,146.7,96.3,0.547
16.8,32249.7,35696.8,1.1989,1.2234,146.7,96.3,0.547
16.82,32332.2,35706.6,1.2042,1.224,146.7,96.3,0.547
16.84,32376.6,35716.2,1.207,1.2245,146.7,96.3,0.547
16.86,32239.5,35450.1,1.1983,1.2091,146.7,96.3,0.547
16.88,32107.0,35295.9,1.1899,1.2002,146.7,96.3,0.547
16.9,32081.2,35099.5,1.1883,1.1888,146.7,96.3,0.547
16.92,31988.9,35108.0,1.1824,1.1893,146.7,96.3,0.547
16.94,31989.5,35034.5,1.1824,1.185,146.7,96.3,0.547
16.96,31995.7,34929.7,1.1828,1.1789,146.7,96.3,0.547
16.98,31899.7,34877.3,1.1767,1.1759,146.7,96.3,0.547
17.0,31880.5,34658.2,1.1755,1.1632,146.7,96.3,0.547
17.02,31938.6,34760.7,1.1792,1.1692,146.7,96.3,0.547
17.04,31779.3,34686.9,1.1691,1.1649,146.7,96.3,0.547
17.06,31846.2,34682.9,1.1734,1.1646,146.7,96.3,0.547
17.08,31765.0,34458.6,1.1682,1.1516,146.7,96.3,0.547
17.1,31708.5,34508.8,1.1646,1.1546,146.7,96.3,0.547
17.12,31763.7,34449.3,1.1681,1.1511,146.7,96.3,0.547
17.14,31828.6,34585.5,1.1722,1.159,146.7,96.3,0.547
17.16,32014.2,34869.7,1.184,1.1755,146.7,96.3,0.547
17.18,32184.5,35238.6,1.1948,1.1968,146.7,96.3,0.547
17.2,32246.5,35611.0,1.1987,1.2184,146.7,96.3,0.547
17.22,32280.0,35747.1,1.2008,1.2263,146.7,96.3,0.547
17.24,32304.0,35764.9,1.2024,1.2273,146.7,96.3,0.547
17.26,32247.2,35554.4,1.1988,1.2151,146.7,96.3,0.547
17.28,32178.9,35362.6,1.1944,1.204,146.7,96.3,0.547
17.3,32134.4,35207.0,1.1916,1.195,146.7,96.3,0.547
17.32,32074.8,35120.1,1.1878,1.19,146.7,96.3,0.547
17.34,31942.0,35084.2,1.1794,1.1879,146.7,96.3,0.547
17.36,32036.8,35016.8,1.1854,1.184,146.7,96.3,0.547
17.38,31951.9,34934.5,1.1801,1.1792,146.7,96.3,0.547
17.4,31839.5,34764.2,1.1729,1.1694,146.7,96.3,0.547
17.42,31881.2,34658.5,1.1756,1.1632,146.7,96.3,0.547
17.44,31922.2,34694.5,1.1782,1.1653,146.7,96.3,0.547
17.46,31792.1,34660.7,1.1699,1.1634,146.7,96.3,0.547
17.48,31776.9,34682.6,1.169,1.1646,146.7,96.3,0.547
17.5,31743.1,34446.9,1.1668,1.151,146.7,96.3,0.547
17.52,31733.2,34453.0,1.1662,1.1513,146.7,96.3,0.547
17.54,31723.5,34459.6,1.1656,1.1517,146.7,96.3,0.547
17.56,31763.4,34695.0,1.1681,1.1653,146.7,96.3,0.547
17.58,32061.9,35023.1,1.187,1.1844,146.7,96.3,0.547
17.6,32209.0,35463.8,1.1963,1.2099,146.7,96.3,0.547
17.62,32353.4,35669.1,1.2055,1.2218,146.7,96.3,0.547
17.64,32414.1,35743.7,1.2093,1.2261,146.7,96.3,0.547
17.66,32426.9,35673.0,1.2102,1.222,146.7,96.3,0.547
17.68,32125.8,35394.9,1.1911,1.2059,146.7,96.3,0.547
17.7,32125.9,35205.3,1.1911,1.1949,146.7,96.3,0.547
17.72,32053.0,35160.0,1.1865,1.1923,146.7,96.3,0.547
17.74,32055.1,35129.3,1.1866,1.1905,146.7,96.3,0.547
17.76,32043.4,34914.9,1.1859,1.1781,146.7,96.3,0.547
17.78,32027.0,34985.1,1.1848,1.1822,146.7,96.3,0.547
17.8,32005.8,34750.4,1.1835,1.1685,146.7,96.3,0.547
17.82,31843.3,34668.1,1.1732,1.1638,146.7,96.3,0.547
17.84,31887.3,34737.6,1.176,1.1678,146.7,96.3,0.547
17.86,31889.2,34680.4,1.1761,1.1645,146.7,96.3,0.547
17.88,31795.7,34582.3,1.1702,1.1588,146.7,96.3,0.547
17.9,31782.8,34542.9,1.1693,1.1565,146.7,96.3,0.547
17.92,31682.7,34405.0,1.163,1.1485,146.7,96.3,0.547
17.94,31737.2,34525.6,1.1664,1.1555,146.7,96.3,0.547
17.96,31863.3,34560.0,1.1744,1.1575,146.7,96.3,0.547
17.98,31855.4,34819.3,1.1739,1.1725,146.7,96.3,0.547
18.0,32118.5,35246.2,1.1906,1.1973,146.7,96.3,0.547
18.02,32312.9,35541.7,1.2029,1.2144,146.7,96.3,0.547
18.04,32289.5,35756.8,1.2015,1.2269,146.7,96.3,0.547
18.06,32353.9,35738.5,1.2055,1.2258,146.7,96.3,0.547
18.08,32291.4,35478.7,1.2016,1.2108,146.7,96.3,0.547
18.1,32113.9,35273.9,1.1903,1.1989,146.7,96.3,0.547
18.12,32090.3,35177.3,1.1888,1.1933,146.7,96.3,0.547
18.14,32007.4,35077.3,1.1836,1.1875,146.7,96.3,0.547
18.16,32088.2,34947.3,1.1887,1.18,146.7,96.3,0.547
18.18,32009.7,34930.6,1.1837,1.179,146.7,96.3,0.547
18.2,31852.3,34803.6,1.1737,1.1716,146.7,96.3,0.547
18.22,31879.7,34726.6,1.1755,1.1672,146.7,96.3,0.547
18.24,31817.3,34664.6,1.1715,1.1636,146.7,96.3,0.547
18.26,31814.6,34742.7,1.1714,1.1681,146.7,96.3,0.547
18.28,31843.1,34645.7,1.1732,1.1625,146.7,96.3,0.547
18.3,31757.7,34645.1,1.1677,1.1625,146.7,96.3,0.547
18.32,31732.1,34548.2,1.1661,1.1568,146.7,96.3,0.547
18.34,31705.6,34431.0,1.1644,1.15,146.7,96.3,0.547
18.36,31842.7,34493.7,1.1731,1.1537,146.7,96.3,0.547
18.38,31813.5,34758.9,1.1713,1.169,146.7,96.3,0.547
18.4,32034.0,35142.8,1.1853,1.1913,146.7,96.3,0.547
18.42,32217.2,35455.6,1.1969,1.2094,146.7,96.3,0.547
18.44,32366.2,35749.8,1.2063,1.2265,146.7,96.3,0.547
18.46,32400.8,35756.1,1.2085,1.2268,146.7,96.3,0.547
18.48,32389.8,35640.7,1.2078,1.2201,146.7,96.3,0.547
18.5,32290.9,35390.8,1.2015,1.2057,146.7,96.3,0.547
18.52,32114.0,35288.7,1.1903,1.1997,146.7,96.3,0.547
18.54,32152.1,35090.6,1.1927,1.1883,146.7,96.3,0.547
18.56,32062.3,35084.2,1.1871,1.1879,146.7,96.3,0.547
18.58,32025.9,35011.7,1.1847,1.1837,146.7,96.3,0.547
18.6,31950.6,34952.7,1.18,1.1803,146.7,96.3,0.547
18.62,32023.2,34800.5,1.1846,1.1715,146.7,96.3,0.547
18.64,31853.3,34738.1,1.1738,1.1678,146.7,96.3,0.547
18.66,31859.4,34716.7,1.1742,1.1666,146.7,96.3,0.547
18.68,31802.6,34620.2,1.1706,1.161,146.7,96.3,0.547
18.7,31836.6,34679.2,1.1727,1.1644,146.7,96.3,0.547
18.72,31844.0,34476.8,1.1732,1.1527,146.7,96.3,0.547
18.74,31810.6,34483.0,1.1711,1.1531,146.7,96.3,0.547
18.76,31796.2,34386.2,1.1702,1.1474,146.7,96.3,0.547
18.78,31810.1,34513.7,1.1711,1.1548,146.7,96.3,0.547
18.8,31885.7,34940.4,1.1759,1.1796,146.7,96.3,0.547
18.82,32116.6,35280.2,1.1905,1.1993,146.7,96.3,0.547
18.84,32326.3,35648.3,1.2038,1.2206,146.7,96.3,0.547
18.86,32391.2,35800.4,1.2079,1.2294,146.7,96.3,0.547
18.88,32324.4,35647.5,1.2037,1.2205,146.7,96.3,0.547
18.9,32223.2,35541.1,1.1972,1.2144,146.7,96.3,0.547
18.92,32229.5,35233.5,1.1977,1.1965,146.7,96.3,0.547
18.94,32069.0,35149.5,1.1875,1.1917,146.7,96.3,0.547
18.96,31997.7,35140.2,1.183,1.1911,146.7,96.3,0.547
18.98,31945.4,35062.0,1.1796,1.1866,146.7,96.3,0.547
19.0,31911.1,34888.5,1.1775,1.1766,146.7,96.3,0.547
19.02,31854.3,34913.0,1.1739,1.178,146.7,96.3,0.547
19.04,31808.9,34754.1,1.171,1.1688,146.7,96.3,0.547
19.06,31827.3,34779.1,1.1722,1.1702,146.7,96.3,0.547
19.08,31828.9,34720.9,1.1723,1.1668,146.7,96.3,0.547
19.1,31813.1,34604.5,1.1713,1.1601,146.7,96.3,0.547
19.12,31776.4,34642.1,1.1689,1.1623,146.7,96.3,0.547
19.14,31798.6,34504.1,1.1703,1.1543,146.7,96.3,0.547
19.16,31786.3,34437.7,1.1696,1.1504,146.7,96.3,0.547
19.18,31706.2,34516.5,1.1645,1.155,146.7,96.3,0.547
19.2,31874.6,34736.7,1.1752,1.1678,146.7,96.3,0.547
19.22,31970.5,35192.7,1.1812,1.1942,146.7,96.3,0.547
19.24,32193.2,35453.8,1.1953,1.2093,146.7,96.3,0.547
19.26,32445.2,35735.4,1.2113,1.2256,146.7,96.3,0.547
19.28,32419.6,35742.9,1.2097,1.2261,146.7,96.3,0.547
19.3,32375.4,35666.9,1.2069,1.2217,146.7,96.3,0.547
19.32,32165.4,35461.6,1.1936,1.2098,146.7,96.3,0.547
19.34,32060.7,35262.6,1.1869,1.1982,146.7,96.3,0.547
19.36,32009.3,35145.8,1.1837,1.1915,146.7,96.3,0.547
19.38,32058.1,34973.0,1.1868,1.1815,146.7,96.3,0.547
19.4,32008.5,35032.3,1.1836,1.1849,146.7,96.3,0.547
19.42,31945.8,34905.8,1.1797,1.1776,146.7,96.3,0.547
19.44,31989.1,34735.2,1.1824,1.1677,146.7,96.3,0.547
19.46,31815.1,34736.7,1.1714,1.1678,146.7,96.3,0.547
19.48,31771.7,34606.7,1.1686,1.1602,146.7,96.3,0.547
19.5,31839.1,34605.1,1.1729,1.1601,146.7,96.3,0.547
19.52,31835.9,34632.4,1.1727,1.1617,146.7,96.3,0.547
19.54,31713.8,34533.1,1.165,1.156,146.7,96.3,0.547
19.56,31775.4,34444.5,1.1689,1.1508,146.7,96.3,0.547
19.58,31729.1,34482.4,1.1659,1.153,146.7,96.3,0.547
19.6,31803.0,34690.8,1.1706,1.1651,146.7,96.3,0.547
19.62,31964.2,35107.2,1.1808,1.1892,146.7,96.3,0.547
19.64,32176.2,35309.4,1.1943,1.2009,146.7,96.3,0.547
19.66,32304.6,35645.0,1.2024,1.2204,146.7,96.3,0.547
19.68,32412.3,35725.5,1.2092,1.2251,146.7,96.3,0.547
19.7,32395.9,35667.2,1.2082,1.2217,146.7,96.3,0.547
19.72,32218.0,35493.9,1.1969,1.2116,146.7,96.3,0.547
19.74,32067.6,35267.0,1.1874,1.1985,146.7,96.3,0.547
19.76,32086.3,35115.6,1.1886,1.1897,146.7,96.3,0.547
19.78,31964.8,35144.3,1.1809,1.1914,146.7,96.3,0.547
19.8,31981.1,35077.8,1.1819,1.1875,146.7,96.3,0.547
19.82,31929.7,34940.6,1.1786,1.1796,146.7,96.3,0.547
19.84,31900.7,34802.9,1.1768,1.1716,146.7,96.3,0.547
19.86,31864.5,34727.8,1.1745,1.1672,146.7,96.3,0.547
19.88,31885.3,34651.0,1.1758,1.1628,146.7,96.3,0.547
19.9,31863.7,34660.6,1.1745,1.1633,146.7,96.3,0.547
19.92,31763.1,34710.2,1.1681,1.1662,146.7,96.3,0.547
19.94,31864.7,34600.6,1.1745,1.1599,146.7,96.3,0.547
19.96,31845.0,34503.6,1.1733,1.1543,146.7,96.3,0.547
19.98,31699.3,34484.0,1.164,1.1531,146.7,96.3,0.547
20.0,31719.3,34519.5,1.1653,1.1552,146.7,96.3,0.547
20.02,31940.8,34845.0,1.1794,1.174,146.7,96.3,0.547
20.04,32027.4,35161.7,1.1848,1.1924,146.7,96.3,0.547
20.06,32346.8,35518.5,1.2051,1.2131,146.7,96.3,0.547
20.08,32316.5,35801.7,1.2032,1.2295,146.7,96.3,0.547
20.1,32347.0,35759.7,1.2051,1.227,146.7,96.3,0.547
20.12,32266.3,35624.1,1.2,1.2192,146.7,96.3,0.547
20.14,32198.8,35377.1,1.1957,1.2049,146.7,96.3,0.547
20.16,32119.6,35140.7,1.1907,1.1912,146.7,96.3,0.547
20.18,32020.2,35085.9,1.1844,1.188,146.7,96.3,0.547
20.2,32095.5,35111.5,1.1892,1.1895,146.7,96.3,0.547
20.22,32103.7,35057.8,1.1897,1.1864,146.7,96.3,0.547
20.24,31944.9,34926.3,1.1796,1.1787,146.7,96.3,0.547
20.26,31798.8,34796.8,1.1704,1.1712,146.7,96.3,0.547
20.28,31904.3,34615.8,1.177,1.1608,146.7,96.3,0.547
20.3,31839.5,34660.2,1.1729,1.1633,146.7,96.3,0.547
20.32,31829.6,34695.1,1.1723,1.1653,146.7,96.3,0.547
20.34,31798.4,34637.3,1.1703,1.162,146.7,96.3,0.547
20.36,31722.4,34451.3,1.1655,1.1512,146.7,96.3,0.547
20.38,31649.2,34481.2,1.1609,1.153,146.7,96.3,0.547
20.4,31793.7,34413.5,1.17,1.149,146.7,96.3,0.547
20.42,31867.3,34727.7,1.1747,1.1672,146.7,96.3,0.547
20.44,31906.0,34949.0,1.1771,1.1801,146.7,96.3,0.547
20.46,32221.0,35398.1,1.1971,1.2061,146.7,96.3,0.547
20.48,32436.7,35666.7,1.2108,1.2216,146.7,96.3,0.547
20.5,32395.6,35689.8,1.2082,1.223,146.7,96.3,0.547
20.52,32221.8,35652.0,1.1972,1.2208,146.7,96.3,0.547
20.54,32230.5,35431.5,1.1977,1.208,146.7,96.3,0.547
20.56,32103.3,35251.4,1.1897,1.1976,146.7,96.3,0.547
20.58,32166.7,35088.7,1.1937,1.1882,146.7,96.3,0.547
20.6,31964.9,35028.1,1.1809,1.1846,146.7,96.3,0.547
20.62,32027.4,35100.6,1.1848,1.1888,146.7,96.3,0.547
20.64,32023.9,34958.7,1.1846,1.1806,146.7,96.3,0.547
20.66,31979.8,34773.2,1.1818,1.1699,146.7,96.3,0.547
20.68,31919.5,34688.3,1.178,1.165,146.7,96.3,0.547
20.7,31810.5,34682.3,1.1711,1.1646,146.7,96.3,0.547
20.72,31901.8,34698.6,1.1769,1.1656,146.7,96.3,0.547
20.74,31729.4,34692.8,1.166,1.1652,146.7,96.3,0.547
20.76,31866.4,34535.6,1.1746,1.1561,146.7,96.3,0.547
20.78,31692.2,34536.8,1.1636,1.1562,146.7,96.3,0.547
20.8,31747.9,34470.6,1.1671,1.1523,146.7,96.3,0.547
20.82,31823.5,34669.6,1.1719,1.1639,146.7,96.3,0.547
20.84,31922.2,34805.8,1.1782,1.1718,146.7,96.3,0.547
20.86,32130.6,35213.4,1.1914,1.1954,146.7,96.3,0.547
20.88,32285.2,35557.1,1.2012,1.2153,146.7,96.3,0.547
20.9,32479.1,35752.1,1.2135,1.2266,146.7,96.3,0.547
20.92,32472.6,35745.8,1.2131,1.2262,146.7,96.3,0.547
20.94,32258.3,35623.5,1.1995,1.2191,146.7,96.3,0.547
20.96,32254.2,35326.0,1.1992,1.2019,146.7,96.3,0.547
20.98,32104.5,35152.6,1.1897,1.1919,146.7,96.3,0.547
21.0,32103.1,35124.4,1.1896,1.1902,146.7,96.3,0.547
21.02,32034.6,34952.4,1.1853,1.1803,146.7,96.3,0.547
21.04,31997.8,35005.3,1.183,1.1833,146.7,96.3,0.547
21.06,31944.4,34934.1,1.1796,1.1792,146.7,96.3,0.547
21.08,31853.0,34779.5,1.1738,1.1702,146.7,96.3,0.547
21.1,31873.2,34644.2,1.1751,1.1624,146.7,96.3,0.547
21.12,31815.5,34676.9,1.1714,1.1643,146.7,96.3,0.547
21.14,31781.4,34540.2,1.1692,1.1564,146.7,96.3,0.547
21.16,31787.7,34689.3,1.1696,1.165,146.7,96.3,0.547
21.18,31746.6,34621.0,1.167,1.1611,146.7,96.3,0.547
21.2,31718.5,34468.0,1.1653,1.1522,146.7,96.3,0.547
21.22,31715.6,34468.4,1.1651,1.1522,146.7,96.3,0.547
21.24,31824.9,34752.0,1.172,1.1686,146.7,96.3,0.547
21.26,32095.1,35048.2,1.1891,1.1858,146.7,96.3,0.547
21.28,32211.5,35440.5,1.1965,1.2085,146.7,96.3,0.547
21.3,32438.3,35629.5,1.2109,1.2195,146.7,96.3,0.547
21.32,32401.8,35757.7,1.2086,1.2269,146.7,96.3,0.547
21.34,32289.0,35655.4,1.2014,1.221,146.7,96.3,0.547
21.36,32201.0,35454.7,1.1958,1.2094,146.7,96.3,0.547
21.38,32075.5,35272.6,1.1879,1.1988,146.7,96.3,0.547
21.4,32050.8,35125.7,1.1863,1.1903,146.7,96.3,0.547
21.42,32080.2,35110.2,1.1882,1.1894,146.7,96.3,0.547
21.44,32030.4,35032.9,1.185,1.1849,146.7,96.3,0.547
21.46,31915.4,34886.9,1.1777,1.1765,146.7,96.3,0.547
21.48,31908.8,34846.3,1.1773,1.1741,146.7,96.3,0.547
21.5,31806.8,34750.2,1.1709,1.1685,146.7,96.3,0.547
21.52,31814.1,34662.2,1.1713,1.1634,146.7,96.3,0.547
21.54,31856.1,34650.9,1.174,1.1628,146.7,96.3,0.547
21.56,31763.3,34662.3,1.1681,1.1634,146.7,96.3,0.547
21.58,31715.7,34576.7,1.1651,1.1585,146.7,96.3,0.547
21.6,31726.5,34506.4,1.1658,1.1544,146.7,96.3,0.547
21.62,31725.9,34424.6,1.1657,1.1497,146.7,96.3,0.547
21.64,31748.0,34506.6,1.1671,1.1544,146.7,96.3,0.547
21.66,31997.0,34885.4,1.1829,1.1764,146.7,96.3,0.547
21.68,32155.8,35309.2,1.193,1.2009,146.7,96.3,0.547
21.7,32291.1,35665.7,1.2016,1.2216,146.7,96.3,0.547
21.72,32366.7,35744.5,1.2063,1.2262,146.7,96.3,0.547
21.74,32319.8,35746.7,1.2034,1.2263,146.7,96.3,0.547
21.76,32270.7,35525.7,1.2003,1.2135,146.7,96.3,0.547
21.78,32121.2,35368.9,1.1908,1.2044,146.7,96.3,0.547
21.8,32105.9,35173.8,1.1898,1.1931,146.7,96.3,0.547
21.82,32052.9,35114.4,1.1865,1.1896,146.7,96.3,0.547
21.84,32046.1,35042.9,1.186,1.1855,146.7,96.3,0.547
21.86,31963.6,35002.3,1.1808,1.1831,146.7,96.3,0.547
21.88,31912.3,34876.7,1.1775,1.1759,146.7,96.3,0.547
21.9,31814.9,34768.1,1.1714,1.1696,146.7,96.3,0.547
21.92,31775.5,34701.0,1.1689,1.1657,146.7,96.3,0.547
21.94,31845.1,34685.3,1.1733,1.1648,146.7,96.3,0.547
21.96,31709.8,34644.0,1.1647,1.1624,146.7,96.3,0.547
21.98,31795.8,34570.0,1.1702,1.1581,146.7,96.3,0.547
22.0,31727.9,34461.3,1.1659,1.1518,146.7,96.3,0.547
22.02,31666.6,34376.4,1.162,1.1469,146.7,96.3,0.547
22.04,31699.8,34508.8,1.1641,1.1546,146.7,96.3,0.547
22.06,31860.0,34732.9,1.1742,1.1675,146.7,96.3,0.547
22.08,32081.8,35059.8,1.1883,1.1865,146.7,96.3,0.547
22.1,32355.8,35436.5,1.2057,1.2083,146.7,96.3,0.547
22.12,32374.6,35658.1,1.2068,1.2211,146.7,96.3,0.547
22.14,32371.5,35792.1,1.2066,1.2289,146.7,96.3,0.547
22.16,32342.9,35598.3,1.2048,1.2177,146.7,96.3,0.547
22.18,32167.3,35450.2,1.1937,1.2091,146.7,96.3,0.547
22.2,32053.5,35261.2,1.1865,1.1981,146.7,96.3,0.547
22.22,31988.0,35235.5,1.1823,1.1967,146.7,96.3,0.547
22.24,31945.0,35084.4,1.1796,1.1879,146.7,96.3,0.547
22.26,32036.8,34994.1,1.1854,1.1827,146.7,96.3,0.547
22.28,31916.4,34958.5,1.1778,1.1806,146.7,96.3,0.547
22.3,31927.1,34873.7,1.1785,1.1757,146.7,96.3,0.547
22.32,31863.8,34689.4,1.1745,1.165,146.7,96.3,0.547
22.34,31883.0,34774.4,1.1757,1.1699,146.7,96.3,0.547
22.36,31777.1,34644.0,1.169,1.1624,146.7,96.3,0.547
22.38,31806.0,34576.8,1.1708,1.1585,146.7,96.3,0.547
22.4,31828.7,34606.7,1.1722,1.1602,146.7,96.3,0.547
22.42,31786.7,34534.2,1.1696,1.156,146.7,96.3,0.547
22.44,31708.5,34473.7,1.1646,1.1525,146.7,96.3,0.547
22.46,31766.9,34552.8,1.1683,1.1571,146.7,96.3,0.547
22.48,31927.3,34990.3,1.1785,1.1825,146.7,96.3,0.547
22.5,32172.0,35362.5,1.194,1.204,146.7,96.3,0.547
22.52,32375.1,35562.8,1.2069,1.2156,146.7,96.3,0.547
22.54,32319.9,35733.3,1.2034,1.2255,146.7,96.3,0.547
22.56,32329.7,35754.9,1.204,1.2268,146.7,96.3,0.547
22.58,32266.9,35510.8,1.2,1.2126,146.7,96.3,0.547
22.6,32129.1,35302.7,1.1913,1.2006,146.7,96.3,0.547
22.62,32093.5,35093.3,1.189,1.1884,146.7,96.3,0.547
22.64,31972.1,35103.1,1.1813,1.189,146.7,96.3,0.547
22.66,32058.6,35057.2,1.1868,1.1863,146.7,96.3,0.547
22.68,32038.0,34906.9,1.1855,1.1776,146.7,96.3,0.547
22.7,31844.0,34758.7,1.1732,1.169,146.7,96.3,0.547
22.72,31925.4,34827.2,1.1784,1.173,146.7,96.3,0.547
22.74,31877.2,34704.3,1.1753,1.1659,146.7,96.3,0.547
22.76,31769.2,34648.4,1.1685,1.1626,146.7,96.3,0.547
22.78,31798.1,34619.9,1.1703,1.161,146.7,96.3,0.547
22.8,31794.6,34616.4,1.1701,1.1608,146.7,96.3,0.547
22.82,31742.5,34527.2,1.1668,1.1556,146.7,96.3,0.547
22.84,31718.9,34457.1,1.1653,1.1516,146.7,96.3,0.547
22.86,31764.8,34581.4,1.1682,1.1588,146.7,96.3,0.547
22.88,31842.6,34773.9,1.1731,1.1699,146.7,96.3,0.547
22.9,32040.2,35140.1,1.1857,1.1911,146.7,96.3,0.547
22.92,32201.3,35568.7,1.1959,1.216,146.7,96.3,0.547
22.94,32377.2,35788.8,1.207,1.2287,146.7,96.3,0.547
22.96,32398.3,35766.2,1.2083,1.2274,146.7,96.3,0.547
22.98,32276.3,35631.6,1.2006,1.2196,146.7,96.3,0.547
23.0,32218.8,35451.7,1.197,1.2092,146.7,96.3,0.547
23.02,32050.1,35250.4,1.1863,1.1975,146.7,96.3,0.547
23.04,32043.9,35099.1,1.1859,1.1888,146.7,96.3,0.547
23.06,32083.8,35093.8,1.1884,1.1885,146.7,96.3,0.547
23.08,32006.4,34990.0,1.1835,1.1824,146.7,96.3,0.547
23.1,31948.6,34956.4,1.1798,1.1805,146.7,96.3,0.547
23.12,31978.9,34807.1,1.1818,1.1718,146.7,96.3,0.547
23.14,31872.0,34726.9,1.175,1.1672,146.7,96.3,0.547
23.16,31822.9,34678.8,1.1719,1.1644,146.7,96.3,0.547
23.18,31879.8,34658.3,1.1755,1.1632,146.7,96.3,0.547
23.2,31859.7,34626.3,1.1742,1.1614,146.7,96.3,0.547
23.22,31748.5,34503.3,1.1672,1.1542,146.7,96.3,0.547
23.24,31679.2,34401.4,1.1628,1.1483,146.7,96.3,0.547
23.26,31701.4,34506.9,1.1642,1.1544,146.7,96.3,0.547
23.28,31800.7,34590.5,1.1705,1.1593,146.7,96.3,0.547
23.3,31875.2,34890.4,1.1752,1.1767,146.7,96.3,0.547
23.32,32148.3,35187.7,1.1925,1.1939,146.7,96.3,0.547
23.34,32299.6,35636.2,1.2021,1.2199,146.7,96.3,0.547
23.36,32431.4,35707.9,1.2104,1.224,146.7,96.3,0.547
23.38,32404.5,35733.1,1.2087,1.2255,146.7,96.3,0.547
23.4,32296.1,35496.1,1.2019,1.2118,146.7,96.3,0.547
23.42,32096.4,35280.0,1.1892,1.1992,146.7,96.3,0.547
23.44,32054.7,35162.2,1.1866,1.1924,146.7,96.3,0.547
23.46,31996.0,35169.4,1.1828,1.1928,146.7,96.3,0.547
23.48,32061.6,35051.3,1.187,1.186,146.7,96.3,0.547
23.5,31965.9,35031.2,1.1809,1.1848,146.7,96.3,0.547
23.52,31968.7,34833.2,1.1811,1.1734,146.7,96.3,0.547
23.54,31865.8,34767.1,1.1746,1.1695,146.7,96.3,0.547
23.56,31852.8,34705.3,1.1738,1.1659,146.7,96.3,0.547
23.58,31789.6,34588.0,1.1698,1.1591,146.7,96.3,0.547
23.6,31789.7,34640.0,1.1698,1.1622,146.7,96.3,0.547
23.62,31739.5,34568.3,1.1666,1.158,146.7,96.3,0.547
23.64,31757.4,34559.3,1.1677,1.1575,146.7,96.3,0.547
23.66,31716.8,34474.1,1.1652,1.1525,146.7,96.3,0.547
23.68,31744.0,34551.2,1.1669,1.157,146.7,96.3,0.547
23.7,31968.2,34764.1,1.1811,1.1693,146.7,96.3,0.547
23.72,32068.7,35138.4,1.1875,1.191,146.7,96.3,0.547
23.74,32200.1,35474.7,1.1958,1.2105,146.7,96.3,0.547
23.76,32319.5,35751.4,1.2034,1.2266,146.7,96.3,0.547
23.78,32353.0,35682.0,1.2055,1.2225,146.7,96.3,0.547
23.8,32300.1,35504.6,1.2021,1.2123,146.7,96.3,0.547
23.82,32251.6,35338.2,1.199,1.2026,146.7,96.3,0.547
23.84,32173.5,35231.2,1.1941,1.1964,146.7,96.3,0.547
23.86,32137.4,35138.8,1.1918,1.1911,146.7,96.3,0.547
23.88,32067.8,35089.7,1.1874,1.1882,146.7,96.3,0.547
23.9,32051.0,35058.1,1.1863,1.1864,146.7,96.3,0.547
23.92,31984.6,34848.6,1.1821,1.1742,146.7,96.3,0.547
23.94,31765.1,34848.8,1.1682,1.1743,146.7,96.3,0.547
23.96,31766.7,34677.9,1.1683,1.1644,146.7,96.3,0.547
23.98,31750.7,34652.4,1.1673,1.1629,146.7,96.3,0.547
24.0,31767.9,34658.1,1.1684,1.1632,146.7,96.3,0.547
24.02,31765.6,34574.3,1.1682,1.1583,146.7,96.3,0.547
24.04,31755.8,34559.9,1.1676,1.1575,146.7,96.3,0.547
24.06,31696.0,34368.7,1.1638,1.1464,146.7,96.3,0.547
24.08,31736.4,34472.8,1.1664,1.1525,146.7,96.3,0.547
24.1,31817.9,34676.1,1.1716,1.1642,146.7,96.3,0.547
24.12,31984.1,34984.5,1.1821,1.1821,146.7,96.3,0.547
24.14,32321.0,35288.9,1.2034,1.1998,146.7,96.3,0.547
24.16,32246.1,35548.2,1.1987,1.2148,146.7,96.3,0.547
24.18,32399.8,35707.8,1.2084,1.224,146.7,96.3,0.547
24.2,32323.7,35649.0,1.2036,1.2206,146.7,96.3,0.547
24.22,32345.5,35448.4,1.205,1.209,146.7,96.3,0.547
24.24,32149.0,35240.9,1.1925,1.197,146.7,96.3,0.547
24.26,32143.8,35133.2,1.1922,1.1907,146.7,96.3,0.547
24.28,32023.7,35136.3,1.1846,1.1909,146.7,96.3,0.547
24.3,32077.7,35038.2,1.188,1.1852,146.7,96.3,0.547
24.32,31972.5,34935.7,1.1814,1.1793,146.7,96.3,0.547
24.34,31903.5,34756.7,1.177,1.1689,146.7,96.3,0.547
24.36,31919.7,34748.6,1.178,1.1684,146.7,96.3,0.547
24.38,31796.3,34725.3,1.1702,1.1671,146.7,96.3,0.547
24.4,31812.7,34753.2,1.1712,1.1687,146.7,96.3,0.547
24.42,31827.1,34714.7,1.1721,1.1665,146.7,96.3,0.547
24.44,31739.3,34590.7,1.1666,1.1593,146.7,96.3,0.547
24.46,31772.7,34541.3,1.1687,1.1564,146.7,96.3,0.547
24.48,31730.6,34395.2,1.166,1.148,146.7,96.3,0.547
24.5,31715.7,34652.5,1.1651,1.1629,146.7,96.3,0.547
24.52,31904.3,34813.9,1.177,1.1722,146.7,96.3,0.547
24.54,32153.7,35267.1,1.1928,1.1985,146.7,96.3,0.547
24.56,32272.4,35503.2,1.2004,1.2122,146.7,96.3,0.547
24.58,32315.7,35838.2,1.2031,1.2316,146.7,96.3,0.547
24.6,32344.7,35697.4,1.205,1.2234,146.7,96.3,0.547
24.62,32287.4,35667.6,1.2013,1.2217,146.7,96.3,0.547
24.64,32291.3,35289.8,1.2016,1.1998,146.7,96.3,0.547
24.66,32082.1,35231.6,1.1883,1.1964,146.7,96.3,0.547
24.68,32092.2,35121.0,1.1889,1.19,146.7,96.3,0.547
24.7,32016.4,35042.6,1.1841,1.1855,146.7,96.3,0.547
24.72,31982.6,35166.3,1.182,1.1927,146.7,96.3,0.547
24.74,31910.3,34892.1,1.1774,1.1768,146.7,96.3,0.547
24.76,31830.5,34834.0,1.1724,1.1734,146.7,96.3,0.547
24.78,31863.3,34604.5,1.1744,1.1601,146.7,96.3,0.547
24.8,31868.0,34650.0,1.1747,1.1627,146.7,96.3,0.547
24.82,31759.7,34718.9,1.1679,1.1667,146.7,96.3,0.547
24.84,31714.4,34722.3,1.165,1.1669,146.7,96.3,0.547
24.86,31751.1,34469.2,1.1673,1.1523,146.7,96.3,0.547
24.88,31724.7,34424.3,1.1657,1.1497,146.7,96.3,0.547
24.9,31618.0,34499.3,1.1589,1.154,146.7,96.3,0.547
24.92,31821.8,34672.7,1.1718,1.1641,146.7,96.3,0.547
24.94,31978.9,35010.5,1.1818,1.1836,146.7,96.3,0.547
24.96,32258.3,35345.2,1.1995,1.203,146.7,96.3,0.547
24.98,32316.0,35579.0,1.2031,1.2166,146.7,96.3,0.547
25.0,32392.6,35790.5,1.208,1.2288,146.7,96.3,0.547
25.02,32263.4,35644.3,1.1998,1.2204,146.7,96.3,0.547
25.04,32304.5,35526.0,1.2024,1.2135,146.7,96.3,0.547
25.06,32072.5,35249.5,1.1877,1.1975,146.7,96.3,0.547
25.08,32105.7,35156.0,1.1898,1.1921,146.7,96.3,0.547
25.1,32084.3,35060.0,1.1884,1.1865,146.7,96.3,0.547
25.12,31962.5,35028.1,1.1807,1.1846,146.7,96.3,0.547
25.14,31948.3,34929.2,1.1798,1.1789,146.7,96.3,0.547
25.16,31958.9,34900.5,1.1805,1.1772,146.7,96.3,0.547
25.18,31899.0,34657.5,1.1767,1.1632,146.7,96.3,0.547
25.2,31893.7,34598.5,1.1764,1.1598,146.7,96.3,0.547
25.22,31850.9,34718.0,1.1737,1.1667,146.7,96.3,0.547
25.24,31843.2,34658.4,1.1732,1.1632,146.7,96.3,0.547
25.26,31813.4,34578.2,1.1713,1.1586,146.7,96.3,0.547
25.28,31863.9,34477.2,1.1745,1.1527,146.7,96.3,0.547
25.3,31674.9,34522.3,1.1625,1.1553,146.7,96.3,0.547
25.32,31794.7,34585.1,1.1701,1.159,146.7,96.3,0.547
25.34,31939.9,34945.8,1.1793,1.1799,146.7,96.3,0.547
25.36,32101.0,35255.0,1.1895,1.1978,146.7,96.3,0.547
25.38,32303.7,35555.0,1.2024,1.2152,146.7,96.3,0.547
25.4,32331.7,35668.8,1.2041,1.2218,146.7,96.3,0.547
25.42,32180.6,35717.6,1.1946,1.2246,146.7,96.3,0.547
25.44,32257.8,35513.7,1.1994,1.2128,146.7,96.3,0.547
25.46,32109.6,35383.5,1.1901,1.2052,146.7,96.3,0.547
25.48,32142.4,35250.1,1.1921,1.1975,146.7,96.3,0.547
25.5,32081.6,35168.7,1.1883,1.1928,146.7,96.3,0.547
25.52,32070.2,35041.7,1.1876,1.1854,146.7,96.3,0.547
25.54,31924.4,35008.2,1.1783,1.1835,146.7,96.3,0.547
25.56,31954.8,34926.7,1.1802,1.1788,146.7,96.3,0.547
25.58,31830.5,34709.6,1.1724,1.1662,146.7,96.3,0.547
25.6,31832.9,34732.8,1.1725,1.1675,146.7,96.3,0.547
25.62,31798.8,34773.3,1.1703,1.1699,146.7,96.3,0.547
25.64,31837.2,34637.5,1.1728,1.162,146.7,96.3,0.547
25.66,31835.1,34637.7,1.1727,1.162,146.7,96.3,0.547
25.68,31749.0,34570.0,1.1672,1.1581,146.7,96.3,0.547
25.7,31738.3,34477.8,1.1665,1.1528,146.7,96.3,0.547
25.72,31737.4,34499.1,1.1665,1.154,146.7,96.3,0.547
25.74,31915.9,34641.3,1.1778,1.1622,146.7,96.3,0.547
25.76,31930.2,35125.6,1.1787,1.1903,146.7,96.3,0.547
25.78,32257.4,35463.3,1.1994,1.2099,146.7,96.3,0.547
25.8,32318.4,35672.4,1.2033,1.222,146.7,96.3,0.547
25.82,32322.0,35725.3,1.2035,1.225,146.7,96.3,0.547
25.84,32267.7,35720.0,1.2001,1.2247,146.7,96.3,0.547
25.86,32204.6,35401.5,1.1961,1.2063,146.7,96.3,0.547
25.88,32193.6,35223.8,1.1954,1.196,146.7,96.3,0.547
25.9,32099.4,35131.5,1.1894,1.1906,146.7,96.3,0.547
25.92,32090.3,35066.9,1.1888,1.1869,146.7,96.3,0.547
25.94,32007.6,35067.4,1.1836,1.1869,146.7,96.3,0.547
25.96,31938.1,34955.0,1.1792,1.1804,146.7,96.3,0.547
25.98,31809.3,34741.0,1.171,1.168,146.7,96.3,0.547
26.0,31805.2,34754.7,1.1708,1.1688,146.7,96.3,0.547
26.02,31784.5,34652.6,1.1694,1.1629,146.7,96.3,0.547
26.04,31785.3,34696.9,1.1695,1.1655,146.7,96.3,0.547
26.06,31819.6,34656.5,1.1717,1.1631,146.7,96.3,0.547
26.08,31830.8,34453.5,1.1724,1.1513,146.7,96.3,0.547
26.1,31790.1,34503.8,1.1698,1.1543,146.7,96.3,0.547
26.12,31752.1,34424.1,1.1674,1.1496,146.7,96.3,0.547
26.14,31726.7,34686.8,1.1658,1.1649,146.7,96.3,0.547
26.16,31950.3,34893.1,1.18,1.1768,146.7,96.3,0.547
26.18,32043.2,35213.9,1.1858,1.1954,146.7,96.3,0.547
26.2,32316.6,35618.6,1.2032,1.2189,146.7,96.3,0.547
26.22,32414.3,35819.5,1.2094,1.2305,146.7,96.3,0.547
26.24,32434.7,35655.8,1.2107,1.221,146.7,96.3,0.547
26.26,32266.2,35500.1,1.2,1.212,146.7,96.3,0.547
26.28,32130.9,35323.9,1.1914,1.2018,146.7,96.3,0.547
26.3,32137.6,35270.5,1.1918,1.1987,146.7,96.3,0.547
26.32,32048.5,34975.6,1.1862,1.1816,146.7,96.3,0.547
26.34,32037.8,35049.7,1.1855,1.1859,146.7,96.3,0.547
26.36,32006.2,35039.8,1.1835,1.1853,146.7,96.3,0.547
26.38,32020.0,34891.3,1.1844,1.1767,146.7,96.3,0.547
26.4,31834.0,34748.5,1.1726,1.1684,146.7,96.3,0.547
26.42,31883.8,34645.5,1.1757,1.1625,146.7,96.3,0.547
26.44,31869.5,34595.9,1.1748,1.1596,146.7,96.3,0.547
26.46,31839.3,34717.2,1.1729,1.1666,146.7,96.3,0.547
26.48,31803.2,34550.8,1.1706,1.157,146.7,96.3,0.547
26.5,31770.2,34488.4,1.1685,1.1534,146.7,96.3,0.547
26.52,31733.8,34452.8,1.1662,1.1513,146.7,96.3,0.547
26.54,31762.6,34569.7,1.1681,1.1581,146.7,96.3,0.547
26.56,31872.6,34811.1,1.175,1.1721,146.7,96.3,0.547
26.58,32074.0,35141.9,1.1878,1.1912,146.7,96.3,0.547
26.6,32254.0,35465.3,1.1992,1.21,146.7,96.3,0.547
26.62,32396.7,35735.4,1.2082,1.2256,146.7,96.3,0.547
26.64,32427.4,35728.2,1.2102,1.2252,146.7,96.3,0.547
26.66,32304.9,35579.7,1.2024,1.2166,146.7,96.3,0.547
26.68,32161.9,35464.2,1.1934,1.2099,146.7,96.3,0.547
26.7,32117.4,35272.7,1.1905,1.1988,146.7,96.3,0.547
26.72,32132.1,35160.3,1.1915,1.1923,146.7,96.3,0.547
26.74,32112.9,35037.6,1.1903,1.1852,146.7,96.3,0.547
26.76,32001.8,35069.5,1.1832,1.187,146.7,96.3,0.547
26.78,31968.5,34895.5,1.1811,1.177,146.7,96.3,0.547
26.8,31974.7,34768.6,1.1815,1.1696,146.7,96.3,0.547
26.82,31817.2,34698.5,1.1715,1.1655,146.7,96.3,0.547
26.84,31852.5,34720.8,1.1738,1.1668,146.7,96.3,0.547
26.86,31959.5,34639.9,1.1805,1.1621,146.7,96.3,0.547
26.88,31798.0,34673.4,1.1703,1.1641,146.7,96.3,0.547
26.9,31742.4,34547.5,1.1668,1.1568,146.7,96.3,0.547
26.92,31725.3,34475.9,1.1657,1.1526,146.7,96.3,0.547
26.94,31730.6,34350.6,1.166,1.1454,146.7,96.3,0.547
26.96,31890.2,34620.5,1.1761,1.161,146.7,96.3,0.547
26.98,31921.6,34963.7,1.1781,1.1809,146.7,96.3,0.547
27.0,32206.9,35255.5,1.1962,1.1978,146.7,96.3,0.547
27.02,32282.8,35634.5,1.201,1.2198,146.7,96.3,0.547
27.04,32357.7,35690.1,1.2058,1.223,146.7,96.3,0.547
27.06,32384.3,35789.3,1.2075,1.2288,146.7,96.3,0.547
27.08,32274.7,35497.5,1.2005,1.2118,146.7,96.3,0.547
27.1,32189.5,35230.8,1.1951,1.1964,146.7,96.3,0.547
27.12,32024.8,35164.3,1.1847,1.1925,146.7,96.3,0.547
27.14,32078.5,35026.8,1.1881,1.1846,146.7,96.3,0.547
27.16,32045.3,35098.5,1.186,1.1887,146.7,96.3,0.547
27.18,32009.6,35010.9,1.1837,1.1836,146.7,96.3,0.547
27.2,31911.7,34882.7,1.1775,1.1762,146.7,96.3,0.547
27.22,31850.8,34624.6,1.1736,1.1613,146.7,96.3,0.547
27.24,31871.5,34713.1,1.175,1.1664,146.7,96.3,0.547
27.26,31828.7,34688.4,1.1722,1.165,146.7,96.3,0.547
27.28,31813.1,34544.9,1.1713,1.1566,146.7,96.3,0.547
27.3,31749.8,34572.5,1.1672,1.1582,146.7,96.3,0.547
27.32,31732.8,34486.6,1.1662,1.1533,146.7,96.3,0.547
27.34,31740.9,34398.3,1.1667,1.1481,146.7,96.3,0.547
27.36,31779.7,34539.1,1.1691,1.1563,146.7,96.3,0.547
27.38,31897.6,34801.7,1.1766,1.1715,146.7,96.3,0.547
27.4,32045.3,35191.8,1.186,1.1941,146.7,96.3,0.547
27.42,32308.1,35498.7,1.2026,1.2119,146.7,96.3,0.547
27.44,32390.2,35708.8,1.2078,1.2241,146.7,96.3,0.547
27.46,32349.4,35714.1,1.2053,1.2244,146.7,96.3,0.547
27.48,32292.3,35590.9,1.2016,1.2173,146.7,96.3,0.547
27.5,32202.9,35362.3,1.196,1.204,146.7,96.3,0.547
27.52,32091.3,35216.6,1.1889,1.1956,146.7,96.3,0.547
27.54,32041.1,35140.0,1.1857,1.1911,146.7,96.3,0.547
27.56,32038.7,35066.0,1.1856,1.1868,146.7,96.3,0.547
27.58,31960.8,34959.9,1.1806,1.1807,146.7,96.3,0.547
27.6,32014.8,34938.9,1.184,1.1795,146.7,96.3,0.547
27.62,31878.1,34810.6,1.1754,1.172,146.7,96.3,0.547
27.64,31878.3,34742.3,1.1754,1.1681,146.7,96.3,0.547
27.66,31819.2,34681.0,1.1716,1.1645,146.7,96.3,0.547
27.68,31888.7,34725.5,1.1761,1.1671,146.7,96.3,0.547
27.7,31843.2,34556.2,1.1732,1.1573,146.7,96.3,0.547
27.72,31700.7,34530.0,1.1641,1.1558,146.7,96.3,0.547
27.74,31710.7,34475.8,1.1648,1.1526,146.7,96.3,0.547
27.76,31723.2,34487.3,1.1656,1.1533,146.7,96.3,0.547
27.78,31694.6,34638.1,1.1637,1.162,146.7,96.3,0.547
27.8,32011.8,34994.0,1.1839,1.1827,146.7,96.3,0.547
27.82,32192.6,35322.5,1.1953,1.2017,146.7,96.3,0.547
27.84,32388.1,35625.7,1.2077,1.2193,146.7,96.3,0.547
27.86,32414.2,35712.6,1.2094,1.2243,146.7,96.3,0.547
27.88,32417.3,35659.6,1.2096,1.2212,146.7,96.3,0.547
27.9,32199.9,35540.6,1.1958,1.2143,146.7,96.3,0.547
27.92,32128.7,35218.8,1.1913,1.1957,146.7,96.3,0.547
27.94,32091.4,35192.3,1.1889,1.1942,146.7,96.3,0.547
27.96,32012.3,35153.1,1.1839,1.1919,146.7,96.3,0.547
27.98,32019.0,35078.9,1.1843,1.1876,146.7,96.3,0.547
28.0,31941.9,34979.5,1.1794,1.1818,146.7,96.3,0.547
28.02,31901.0,34865.2,1.1768,1.1752,146.7,96.3,0.547
28.04,31907.9,34728.1,1.1773,1.1673,146.7,96.3,0.547
28.06,31815.5,34657.3,1.1714,1.1632,146.7,96.3,0.547
28.08,31852.4,34593.7,1.1737,1.1595,146.7,96.3,0.547
28.1,31756.7,34691.0,1.1677,1.1651,146.7,96.3,0.547
28.12,31852.4,34540.8,1.1737,1.1564,146.7,96.3,0.547
28.14,31797.3,34536.0,1.1703,1.1561,146.7,96.3,0.547
28.16,31698.4,34520.4,1.164,1.1552,146.7,96.3,0.547
28.18,31684.4,34602.5,1.1631,1.16,146.7,96.3,0.547
28.2,31935.0,34864.7,1.179,1.1752,146.7,96.3,0.547
28.22,32093.7,35186.5,1.189,1.1938,146.7,96.3,0.547
28.24,32335.4,35510.8,1.2044,1.2126,146.7,96.3,0.547
28.26,32387.2,35691.9,1.2076,1.2231,146.7,96.3,0.547
28.28,32369.8,35829.2,1.2065,1.2311,146.7,96.3,0.547
28.3,32297.2,35548.6,1.2019,1.2148,146.7,96.3,0.547
28.32,32140.7,35422.3,1.192,1.2075,146.7,96.3,0.547
28.34,32146.0,35208.7,1.1924,1.1951,146.7,96.3,0.547
28.36,32109.2,35130.5,1.19,1.1906,146.7,96.3,0.547
28.38,32056.7,35033.6,1.1867,1.185,146.7,96.3,0.547
28.4,32066.1,34988.3,1.1873,1.1823,146.7,96.3,0.547
28.42,31950.5,34944.6,1.18,1.1798,146.7,96.3,0.547
28.44,31932.1,34705.0,1.1788,1.1659,146.7,96.3,0.547
28.46,31858.0,34826.2,1.1741,1.1729,146.7,96.3,0.547
28.48,31809.9,34706.4,1.1711,1.166,146.7,96.3,0.547
28.5,31806.6,34754.4,1.1708,1.1688,146.7,96.3,0.547
28.52,31735.3,34597.0,1.1663,1.1597,146.7,96.3,0.547
28.54,31729.3,34538.8,1.1659,1.1563,146.7,96.3,0.547
28.56,31722.6,34416.5,1.1655,1.1492,146.7,96.3,0.547
28.58,31748.1,34543.1,1.1671,1.1565,146.7,96.3,0.547
28.6,31892.5,34668.3,1.1763,1.1638,146.7,96.3,0.547
28.62,32094.6,34970.8,1.1891,1.1813,146.7,96.3,0.547
28.64,32174.1,35379.6,1.1941,1.205,146.7,96.3,0.547
28.66,32291.0,35670.6,1.2015,1.2219,146.7,96.3,0.547
28.68,32433.1,35703.6,1.2106,1.2238,146.7,96.3,0.547
28.7,32321.5,35709.1,1.2035,1.2241,146.7,96.3,0.547
28.72,32158.2,35415.6,1.1931,1.2071,146.7,96.3,0.547
28.74,32082.3,35329.4,1.1883,1.2021,146.7,96.3,0.547
28.76,32120.0,35192.2,1.1907,1.1942,146.7,96.3,0.547
28.78,32110.8,35055.1,1.1901,1.1862,146.7,96.3,0.547
28.8,32104.7,35163.0,1.1897,1.1925,146.7,96.3,0.547
28.82,31998.7,34981.9,1.183,1.182,146.7,96.3,0.547
28.84,31900.9,34827.4,1.1768,1.173,146.7,96.3,0.547
28.86,31929.2,34737.7,1.1786,1.1678,146.7,96.3,0.547
28.88,31832.3,34678.0,1.1725,1.1644,146.7,96.3,0.547
28.9,31908.9,34614.3,1.1773,1.1607,146.7,96.3,0.547
28.92,31727.9,34643.8,1.1659,1.1624,146.7,96.3,0.547
28.94,31766.5,34624.0,1.1683,1.1612,146.7,96.3,0.547
28.96,31742.1,34537.4,1.1668,1.1562,146.7,96.3,0.547
28.98,31692.8,34492.0,1.1636,1.1536,146.7,96.3,0.547
29.0,31846.9,34564.7,1.1734,1.1578,146.7,96.3,0.547
29.02,31935.3,34819.3,1.179,1.1725,146.7,96.3,0.547
29.04,32025.8,35156.5,1.1847,1.1921,146.7,96.3,0.547
29.06,32379.5,35548.8,1.2072,1.2148,146.7,96.3,0.547
29.08,32444.2,35844.2,1.2113,1.2319,146.7,96.3,0.547
29.1,32320.6,35827.5,1.2034,1.231,146.7,96.3,0.547
29.12,32285.9,35566.6,1.2012,1.2158,146.7,96.3,0.547
29.14,32133.4,35309.5,1.1916,1.2009,146.7,96.3,0.547
29.16,32079.2,35120.4,1.1881,1.19,146.7,96.3,0.547
29.18,32029.9,35117.1,1.185,1.1898,146.7,96.3,0.547
29.2,32053.3,35024.3,1.1865,1.1844,146.7,96.3,0.547
29.22,32049.7,34924.1,1.1863,1.1786,146.7,96.3,0.547
29.24,31923.5,34966.2,1.1783,1.1811,146.7,96.3,0.547
29.26,31967.4,34740.5,1.181,1.168,146.7,96.3,0.547
29.28,31839.2,34740.5,1.1729,1.168,146.7,96.3,0.547
29.3,31822.6,34702.4,1.1719,1.1658,146.7,96.3,0.547
29.32,31783.8,34692.9,1.1694,1.1652,146.7,96.3,0.547
29.34,31852.8,34539.2,1.1738,1.1563,146.7,96.3,0.547
29.36,31726.6,34428.1,1.1658,1.1499,146.7,96.3,0.547
29.38,31785.3,34384.0,1.1695,1.1473,146.7,96.3,0.547
29.4,31818.9,34524.1,1.1716,1.1554,146.7,96.3,0.547
29.42,31877.3,34716.4,1.1753,1.1666,146.7,96.3,0.547
29.44,31937.0,35050.3,1.1791,1.1859,146.7,96.3,0.547
29.46,32148.6,35498.8,1.1925,1.2119,146.7,96.3,0.547
29.48,32388.1,35752.6,1.2077,1.2266,146.7,96.3,0.547
29.5,32376.2,35800.0,1.2069,1.2294,146.7,96.3,0.547
29.52,32363.8,35691.6,1.2062,1.2231,146.7,96.3,0.547
29.54,32165.2,35375.4,1.1936,1.2048,146.7,96.3,0.547
29.56,32157.2,35150.9,1.1931,1.1918,146.7,96.3,0.547
29.58,32034.3,35128.3,1.1853,1.1904,146.7,96.3,0.547
29.6,32051.2,35136.5,1.1864,1.1909,146.7,96.3,0.547
29.62,32048.1,34996.4,1.1862,1.1828,146.7,96.3,0.547
29.64,32018.7,34913.6,1.1843,1.178,146.7,96.3,0.547
29.66,31877.4,34844.5,1.1753,1.174,146.7,96.3,0.547
29.68,31859.4,34758.3,1.1742,1.169,146.7,96.3,0.547
29.7,31754.8,34664.5,1.1676,1.1636,146.7,96.3,0.547
29.72,31793.7,34635.6,1.17,1.1619,146.7,96.3,0.547
29.74,31784.7,34736.9,1.1695,1.1678,146.7,96.3,0.547
29.76,31815.8,34621.2,1.1714,1.1611,146.7,96.3,0.547
29.78,31751.3,34467.8,1.1673,1.1522,146.7,96.3,0.547
29.8,31717.4,34454.1,1.1652,1.1514,146.7,96.3,0.547
29.82,31814.2,34607.1,1.1713,1.1602,146.7,96.3,0.547
29.84,31908.6,34961.8,1.1773,1.1808,146.7,96.3,0.547
29.86,32158.5,35293.2,1.1931,1.2,146.7,96.3,0.547
29.88,32316.5,35615.7,1.2032,1.2187,146.7,96.3,0.547
29.9,32399.8,35685.1,1.2084,1.2227,146.7,96.3,0.547
29.92,32361.0,35683.9,1.206,1.2226,146.7,96.3,0.547
29.94,32228.6,35441.9,1.1976,1.2086,146.7,96.3,0.547
29.96,32185.2,35389.7,1.1948,1.2056,146.7,96.3,0.547
29.98,32204.5,35165.6,1.1961,1.1926,146.7,96.3,0.547
30.0,31977.0,35152.9,1.1816,1.1919,146.7,96.3,0.547
30.02,32097.4,35181.3,1.1893,1.1935,146.7,96.3,0.547
30.04,31962.3,34961.0,1.1807,1.1808,146.7,96.3,0.547
30.06,31888.0,34963.0,1.176,1.1809,146.7,96.3,0.547
30.08,31834.4,34697.6,1.1726,1.1655,146.7,96.3,0.547
30.1,31783.0,34563.1,1.1693,1.1577,146.7,96.3,0.547
30.12,31845.1,34633.4,1.1733,1.1618,146.7,96.3,0.547
30.14,31883.6,34680.2,1.1757,1.1645,146.7,96.3,0.547
30.16,31890.5,34656.6,1.1762,1.1631,146.7,96.3,0.547
30.18,31752.2,34446.4,1.1674,1.1509,146.7,96.3,0.547
30.2,31798.2,34483.0,1.1703,1.1531,146.7,96.3,0.547
30.22,31805.4,34529.1,1.1708,1.1557,146.7,96.3,0.547
30.24,31878.2,34784.0,1.1754,1.1705,146.7,96.3,0.547
30.26,32061.8,35112.3,1.187,1.1895,146.7,96.3,0.547
30.28,32264.0,35478.6,1.1998,1.2107,146.7,96.3,0.547
30.3,32222.8,35698.4,1.1972,1.2235,146.7,96.3,0.547
30.32,32381.1,35756.5,1.2073,1.2268,146.7,96.3,0.547
30.34,32296.3,35605.6,1.2019,1.2181,146.7,96.3,0.547
30.36,32159.7,35330.9,1.1932,1.2022,146.7,96.3,0.547
30.38,32136.1,35268.8,1.1917,1.1986,146.7,96.3,0.547
30.4,32215.0,35110.8,1.1967,1.1894,146.7,96.3,0.547
30.42,32147.8,35055.0,1.1925,1.1862,146.7,96.3,0.547
30.44,31942.1,35082.0,1.1794,1.1878,146.7,96.3,0.547
30.46,32055.2,34908.5,1.1866,1.1777,146.7,96.3,0.547
30.48,31976.7,34840.8,1.1816,1.1738,146.7,96.3,0.547
30.5,31892.1,34718.7,1.1763,1.1667,146.7,96.3,0.547
30.52,31909.8,34781.8,1.1774,1.1704,146.7,96.3,0.547
30.54,31848.8,34693.8,1.1735,1.1653,146.7,96.3,0.547
30.56,31903.6,34635.1,1.177,1.1619,146.7,96.3,0.547
30.58,31721.8,34475.7,1.1655,1.1526,146.7,96.3,0.547
30.6,31734.2,34492.2,1.1663,1.1536,146.7,96.3,0.547
30.62,31814.0,34442.1,1.1713,1.1507,146.7,96.3,0.547
30.64,31764.4,34609.9,1.1682,1.1604,146.7,96.3,0.547
30.66,31978.0,34952.4,1.1817,1.1803,146.7,96.3,0.547
30.68,32126.6,35326.0,1.1911,1.2019,146.7,96.3,0.547
30.7,32370.7,35710.4,1.2066,1.2242,146.7,96.3,0.547
30.72,32404.5,35752.9,1.2087,1.2266,146.7,96.3,0.547
30.74,32245.0,35649.8,1.1986,1.2207,146.7,96.3,0.547
30.76,32233.5,35491.0,1.1979,1.2115,146.7,96.3,0.547
30.78,32219.4,35392.6,1.197,1.2058,146.7,96.3,0.547
30.8,32048.0,35142.6,1.1861,1.1913,146.7,96.3,0.547
30.82,32103.9,35097.8,1.1897,1.1887,146.7,96.3,0.547
30.84,32052.0,35022.5,1.1864,1.1843,146.7,96.3,0.547
30.86,31954.0,35029.5,1.1802,1.1847,146.7,96.3,0.547
30.88,31937.1,34793.5,1.1791,1.171,146.7,96.3,0.547
30.9,31998.3,34706.7,1.183,1.166,146.7,96.3,0.547
30.92,31866.7,34730.4,1.1747,1.1674,146.7,96.3,0.547
30.94,31816.9,34680.4,1.1715,1.1645,146.7,96.3,0.547
30.96,31824.3,34605.5,1.172,1.1602,146.7,96.3,0.547
30.98,31816.6,34552.1,1.1715,1.1571,146.7,96.3,0.547
31.0,31806.5,34559.0,1.1708,1.1575,146.7,96.3,0.547
31.02,31758.1,34392.6,1.1678,1.1478,146.7,96.3,0.547
31.04,31823.3,34608.5,1.1719,1.1603,146.7,96.3,0.547
31.06,31899.6,34689.2,1.1767,1.165,146.7,96.3,0.547
31.08,32077.1,35180.3,1.188,1.1935,146.7,96.3,0.547
31.1,32253.9,35513.3,1.1992,1.2128,146.7,96.3,0.547
31.12,32317.8,35675.6,1.2032,1.2222,146.7,96.3,0.547
31.14,32368.8,35664.4,1.2065,1.2215,146.7,96.3,0.547
31.16,32355.9,35534.8,1.2057,1.214,146.7,96.3,0.547
31.18,32221.2,35433.2,1.1971,1.2081,146.7,96.3,0.547
31.2,32015.6,35147.2,1.1841,1.1915,146.7,96.3,0.547
31.22,32111.9,35166.2,1.1902,1.1926,146.7,96.3,0.547
31.24,32043.9,35079.6,1.1859,1.1876,146.7,96.3,0.547
31.26,32104.7,35072.6,1.1897,1.1872,146.7,96.3,0.547
31.28,31962.4,34861.4,1.1807,1.175,146.7,96.3,0.547
31.3,31980.2,34734.8,1.1818,1.1676,146.7,96.3,0.547
31.32,31849.7,34740.3,1.1736,1.168,146.7,96.3,0.547
31.34,31887.6,34606.6,1.176,1.1602,146.7,96.3,0.547
31.36,31794.3,34583.6,1.1701,1.1589,146.7,96.3,0.547
31.38,31842.5,34593.2,1.1731,1.1594,146.7,96.3,0.547
31.4,31808.0,34517.8,1.1709,1.1551,146.7,96.3,0.547
31.42,31707.6,34505.6,1.1646,1.1544,146.7,96.3,0.547
31.44,31747.6,34483.8,1.1671,1.1531,146.7,96.3,0.547
31.46,31791.9,34652.7,1.1699,1.1629,146.7,96.3,0.547
31.48,32005.7,34956.9,1.1835,1.1805,146.7,96.3,0.547
31.5,32225.3,35352.0,1.1974,1.2034,146.7,96.3,0.547
31.52,32341.6,35688.1,1.2048,1.2229,146.7,96.3,0.547
31.54,32445.8,35736.0,1.2114,1.2257,146.7,96.3,0.547
31.56,32329.3,35665.2,1.204,1.2216,146.7,96.3,0.547
31.58,32156.6,35579.9,1.193,1.2166,146.7,96.3,0.547
31.6,32194.4,35320.9,1.1954,1.2016,146.7,96.3,0.547
31.62,32035.7,35194.0,1.1854,1.1943,146.7,96.3,0.547
31.64,32040.5,35139.8,1.1857,1.1911,146.7,96.3,0.547
31.66,32043.2,35002.3,1.1858,1.1832,146.7,96.3,0.547
31.68,32045.1,34980.3,1.186,1.1819,146.7,96.3,0.547
31.7,31938.4,34920.7,1.1792,1.1784,146.7,96.3,0.547
31.72,31922.1,34666.9,1.1782,1.1637,146.7,96.3,0.547
31.74,31875.4,34699.2,1.1752,1.1656,146.7,96.3,0.547
31.76,31777.9,34712.5,1.169,1.1664,146.7,96.3,0.547
31.78,31816.3,34656.0,1.1715,1.1631,146.7,96.3,0.547
31.8,31810.9,34531.5,1.1711,1.1559,146.7,96.3,0.547
31.82,31751.1,34454.0,1.1673,1.1514,146.7,96.3,0.547
31.84,31812.9,34445.0,1.1712,1.1509,146.7,96.3,0.547
31.86,31642.7,34571.7,1.1605,1.1582,146.7,96.3,0.547
31.88,31973.9,34866.3,1.1815,1.1753,146.7,96.3,0.547
31.9,32132.0,35220.3,1.1915,1.1958,146.7,96.3,0.547
31.92,32296.5,35522.8,1.2019,1.2133,146.7,96.3,0.547
31.94,32312.1,35788.8,1.2029,1.2287,146.7,96.3,0.547
31.96,32352.6,35680.1,1.2055,1.2224,146.7,96.3,0.547
31.98,32317.0,35636.8,1.2032,1.2199,146.7,96.3,0.547
32.0,32207.6,35434.6,1.1963,1.2082,146.7,96.3,0.547
32.02,32110.0,35211.8,1.1901,1.1953,146.7,96.3,0.547
32.04,32137.3,35100.1,1.1918,1.1888,146.7,96.3,0.547
32.06,32073.5,35068.7,1.1878,1.187,146.7,96.3,0.547
32.08,32000.6,34894.9,1.1831,1.1769,146.7,96.3,0.547
32.1,31980.2,34877.1,1.1818,1.1759,146.7,96.3,0.547
32.12,31908.1,34778.8,1.1773,1.1702,146.7,96.3,0.547
32.14,31894.2,34654.2,1.1764,1.163,146.7,96.3,0.547
32.16,31859.3,34650.3,1.1742,1.1628,146.7,96.3,0.547
32.18,31818.4,34635.4,1.1716,1.1619,146.7,96.3,0.547
32.2,31834.7,34639.3,1.1726,1.1621,146.7,96.3,0.547
32.22,31804.8,34517.5,1.1707,1.1551,146.7,96.3,0.547
32.24,31676.6,34522.8,1.1626,1.1554,146.7,96.3,0.547
32.26,31793.7,34471.2,1.17,1.1524,146.7,96.3,0.547
32.28,31838.2,34693.4,1.1729,1.1652,146.7,96.3,0.547
32.3,31981.7,34977.4,1.1819,1.1817,146.7,96.3,0.547
32.32,32159.1,35395.0,1.1932,1.2059,146.7,96.3,0.547
32.34,32265.9,35586.4,1.2,1.217,146.7,96.3,0.547
32.36,32375.6,35714.0,1.2069,1.2244,146.7,96.3,0.547
32.38,32388.1,35693.4,1.2077,1.2232,146.7,96.3,0.547
32.4,32193.2,35434.4,1.1953,1.2082,146.7,96.3,0.547
32.42,32186.8,35274.9,1.1949,1.1989,146.7,96.3,0.547
32.44,32090.0,35212.2,1.1888,1.1953,146.7,96.3,0.547
32.46,32040.5,35089.7,1.1857,1.1882,146.7,96.3,0.547
32.48,32033.4,35003.8,1.1852,1.1832,146.7,96.3,0.547
32.5,31970.3,34931.0,1.1812,1.179,146.7,96.3,0.547
32.52,31902.0,34953.0,1.1769,1.1803,146.7,96.3,0.547
32.54,31876.6,34818.5,1.1753,1.1725,146.7,96.3,0.547
32.56,31908.9,34705.1,1.1773,1.1659,146.7,96.3,0.547
32.58,31791.5,34694.4,1.1699,1.1653,146.7,96.3,0.547
32.6,31871.4,34680.2,1.175,1.1645,146.7,96.3,0.547
32.62,31728.1,34615.3,1.1659,1.1607,146.7,96.3,0.547
32.64,31756.6,34463.8,1.1677,1.1519,146.7,96.3,0.547
32.66,31741.3,34410.2,1.1667,1.1488,146.7,96.3,0.547
32.68,31807.8,34577.4,1.1709,1.1585,146.7,96.3,0.547
32.7,31977.8,34808.6,1.1817,1.1719,146.7,96.3,0.547
32.72,32108.3,35277.9,1.19,1.1991,146.7,96.3,0.547
32.74,32154.6,35578.5,1.1929,1.2165,146.7,96.3,0.547
32.76,32390.7,35746.5,1.2079,1.2263,146.7,96.3,0.547
32.78,32320.6,35723.2,1.2034,1.2249,146.7,96.3,0.547
32.8,32272.2,35626.6,1.2004,1.2193,146.7,96.3,0.547
32.82,32198.4,35330.7,1.1957,1.2022,146.7,96.3,0.547
32.84,32063.5,35114.2,1.1871,1.1896,146.7,96.3,0.547
32.86,32058.6,35106.9,1.1868,1.1892,146.7,96.3,0.547
32.88,32034.4,35146.1,1.1853,1.1915,146.7,96.3,0.547
32.9,32014.8,35014.4,1.184,1.1838,146.7,96.3,0.547
32.92,31977.1,34899.9,1.1817,1.1772,146.7,96.3,0.547
32.94,31953.0,34766.8,1.1801,1.1695,146.7,96.3,0.547
32.96,31888.1,34715.0,1.176,1.1665,146.7,96.3,0.547
32.98,31886.7,34668.7,1.1759,1.1638,146.7,96.3,0.547
33.0,31791.6,34643.3,1.1699,1.1623,146.7,96.3,0.547
33.02,31788.9,34728.0,1.1697,1.1673,146.7,96.3,0.547
33.04,31704.0,34479.6,1.1643,1.1529,146.7,96.3,0.547
33.06,31775.9,34482.8,1.1689,1.153,146.7,96.3,0.547
33.08,31529.9,34439.9,1.1533,1.1506,146.7,96.3,0.547
33.1,31821.9,34692.8,1.1718,1.1652,146.7,96.3,0.547
33.12,32074.9,35101.1,1.1879,1.1889,146.7,96.3,0.547
33.14,32220.4,35384.9,1.1971,1.2053,146.7,96.3,0.547
33.16,32437.6,35629.8,1.2108,1.2195,146.7,96.3,0.547
33.18,32373.0,35750.2,1.2067,1.2265,146.7,96.3,0.547
33.2,32323.5,35621.5,1.2036,1.219,146.7,96.3,0.547
33.22,32213.8,35285.1,1.1967,1.1995,146.7,96.3,0.547
33.24,32157.9,35256.0,1.1931,1.1979,146.7,96.3,0.547
33.26,32126.0,35182.8,1.1911,1.1936,146.7,96.3,0.547
33.28,32163.1,35055.4,1.1934,1.1862,146.7,96.3,0.547
33.3,31961.4,35058.1,1.1807,1.1864,146.7,96.3,0.547
33.32,32008.4,34929.8,1.1836,1.1789,146.7,96.3,0.547
33.34,31856.8,34872.4,1.174,1.1756,146.7,96.3,0.547
33.36,31818.1,34773.4,1.1716,1.1699,146.7,96.3,0.547
33.38,31866.7,34707.0,1.1747,1.166,146.7,96.3,0.547
33.4,31842.7,34583.8,1.1731,1.1589,146.7,96.3,0.547
33.42,31803.0,34656.1,1.1706,1.1631,146.7,96.3,0.547
33.44,31739.3,34614.4,1.1666,1.1607,146.7,96.3,0.547
33.46,31761.1,34553.7,1.168,1.1572,146.7,96.3,0.547
33.48,31779.4,34462.7,1.1691,1.1519,146.7,96.3,0.547
33.5,31833.0,34585.8,1.1725,1.159,146.7,96.3,0.547
33.52,31913.0,34864.1,1.1776,1.1751,146.7,96.3,0.547
33.54,32187.5,35256.9,1.195,1.1979,146.7,96.3,0.547
33.56,32343.7,35651.0,1.2049,1.2207,146.7,96.3,0.547
33.58,32264.6,35708.1,1.1999,1.224,146.7,96.3,0.547
33.6,32372.1,35703.3,1.2067,1.2238,146.7,96.3,0.547
33.62,32342.0,35561.6,1.2048,1.2156,146.7,96.3,0.547
33.64,32144.8,35331.4,1.1923,1.2022,146.7,96.3,0.547
33.66,31988.1,35049.8,1.1823,1.1859,146.7,96.3,0.547
33.68,32049.8,35206.4,1.1863,1.195,146.7,96.3,0.547
33.7,31981.7,35059.5,1.1819,1.1865,146.7,96.3,0.547
33.72,31942.2,34909.9,1.1794,1.1778,146.7,96.3,0.547
33.74,31951.7,34908.9,1.18,1.1777,146.7,96.3,0.547
33.76,31875.8,34763.6,1.1752,1.1693,146.7,96.3,0.547
33.78,31790.8,34636.2,1.1698,1.1619,146.7,96.3,0.547
33.8,31819.0,34660.5,1.1716,1.1633,146.7,96.3,0.547
33.82,31824.4,34624.8,1.172,1.1613,146.7,96.3,0.547
33.84,31824.1,34657.8,1.172,1.1632,146.7,96.3,0.547
33.86,31737.8,34573.5,1.1665,1.1583,146.7,96.3,0.547
33.88,31711.4,34497.7,1.1648,1.1539,146.7,96.3,0.547
33.9,31802.4,34446.7,1.1706,1.151,146.7,96.3,0.547
33.92,31854.8,34695.3,1.1739,1.1654,146.7,96.3,0.547
33.94,32033.3,35026.6,1.1852,1.1846,146.7,96.3,0.547
33.96,32227.1,35409.8,1.1975,1.2068,146.7,96.3,0.547
33.98,32365.0,35725.7,1.2062,1.2251,146.7,96.3,0.547
34.0,32358.8,35765.0,1.2058,1.2273,146.7,96.3,0.547
34.02,32220.8,35656.5,1.1971,1.2211,146.7,96.3,0.547
34.04,32192.5,35376.9,1.1953,1.2049,146.7,96.3,0.547
34.06,32157.4,35182.7,1.1931,1.1936,146.7,96.3,0.547
34.08,32131.5,35066.2,1.1914,1.1869,146.7,96.3,0.547
34.1,31995.3,35063.1,1.1828,1.1867,146.7,96.3,0.547
34.12,31932.3,35036.4,1.1788,1.1851,146.7,96.3,0.547
34.14,31942.6,34926.9,1.1795,1.1788,146.7,96.3,0.547
34.16,31893.2,34836.3,1.1763,1.1735,146.7,96.3,0.547
34.18,31843.9,34754.3,1.1732,1.1688,146.7,96.3,0.547
34.2,31795.8,34669.1,1.1702,1.1638,146.7,96.3,0.547
34.22,31856.3,34655.2,1.174,1.163,146.7,96.3,0.547
34.24,31839.8,34641.5,1.173,1.1622,146.7,96.3,0.547
34.26,31781.9,34551.4,1.1693,1.157,146.7,96.3,0.547
34.28,31699.1,34517.7,1.164,1.1551,146.7,96.3,0.547
34.3,31711.4,34468.1,1.1648,1.1522,146.7,96.3,0.547
34.32,31795.2,34670.9,1.1701,1.1639,146.7,96.3,0.547
34.34,32011.8,34849.1,1.1839,1.1743,146.7,96.3,0.547
34.36,32133.0,35315.0,1.1915,1.2013,146.7,96.3,0.547
34.38,32335.7,35609.9,1.2044,1.2184,146.7,96.3,0.547
34.4,32476.4,35695.6,1.2133,1.2233,146.7,96.3,0.547
34.42,32352.2,35768.0,1.2054,1.2275,146.7,96.3,0.547
34.44,32261.1,35533.8,1.1997,1.2139,146.7,96.3,0.547
34.46,32130.0,35327.9,1.1913,1.202,146.7,96.3,0.547
34.48,32195.6,35159.3,1.1955,1.1922,146.7,96.3,0.547
34.5,32001.6,35205.4,1.1832,1.1949,146.7,96.3,0.547
34.52,31976.2,35064.5,1.1816,1.1868,146.7,96.3,0.547
34.54,31935.9,35060.8,1.179,1.1865,146.7,96.3,0.547
34.56,32041.3,34784.6,1.1857,1.1705,146.7,96.3,0.547
34.58,31904.5,34852.1,1.1771,1.1744,146.7,96.3,0.547
34.6,31833.2,34692.7,1.1725,1.1652,146.7,96.3,0.547
34.62,31742.2,34687.4,1.1668,1.1649,146.7,96.3,0.547
34.64,31815.0,34596.9,1.1714,1.1597,146.7,96.3,0.547
34.66,31828.4,34537.4,1.1722,1.1562,146.7,96.3,0.547
34.68,31725.0,34556.4,1.1657,1.1573,146.7,96.3,0.547
34.7,31760.2,34444.2,1.1679,1.1508,146.7,96.3,0.547
34.72,31802.0,34491.4,1.1706,1.1535,146.7,96.3,0.547
34.74,31843.4,34829.8,1.1732,1.1732,146.7,96.3,0.547
34.76,32023.5,35102.4,1.1846,1.1889,146.7,96.3,0.547
34.78,32309.4,35468.0,1.2027,1.2101,146.7,96.3,0.547
34.8,32450.3,35690.2,1.2116,1.223,146.7,96.3,0.547
34.82,32318.9,35770.1,1.2033,1.2276,146.7,96.3,0.547
34.84,32345.6,35581.8,1.205,1.2167,146.7,96.3,0.547
34.86,32329.0,35400.4,1.204,1.2062,146.7,96.3,0.547
34.88,32076.5,35192.6,1.188,1.1942,146.7,96.3,0.547
34.9,32033.6,35148.3,1.1852,1.1916,146.7,96.3,0.547
34.92,32065.3,35093.8,1.1872,1.1885,146.7,96.3,0.547
34.94,31977.2,35058.5,1.1817,1.1864,146.7,96.3,0.547
34.96,32005.1,34864.4,1.1834,1.1752,146.7,96.3,0.547
34.98,31946.1,34804.8,1.1797,1.1717,146.7,96.3,0.547
35.0,31727.6,34800.0,1.1658,1.1714,146.7,96.3,0.547
35.02,31896.2,34707.1,1.1765,1.166,146.7,96.3,0.547
35.04,31890.3,34614.3,1.1762,1.1607,146.7,96.3,0.547
35.06,31792.3,34578.3,1.1699,1.1586,146.7,96.3,0.547
35.08,31837.0,34534.4,1.1728,1.156,146.7,96.3,0.547
35.1,31700.4,34602.8,1.1641,1.16,146.7,96.3,0.547
35.12,31618.3,34547.4,1.1589,1.1568,146.7,96.3,0.547
35.14,31803.6,34696.2,1.1707,1.1654,146.7,96.3,0.547
35.16,31923.3,34982.9,1.1782,1.182,146.7,96.3,0.547
35.18,32063.6,35236.4,1.1871,1.1967,146.7,96.3,0.547
35.2,32302.1,35580.8,1.2022,1.2167,146.7,96.3,0.547
35.22,32298.4,35730.9,1.202,1.2254,146.7,96.3,0.547
35.24,32352.5,35669.0,1.2054,1.2218,146.7,96.3,0.547
35.26,32284.6,35513.8,1.2011,1.2128,146.7,96.3,0.547
35.28,32170.9,35232.9,1.1939,1.1965,146.7,96.3,0.547
35.3,32062.7,35144.3,1.1871,1.1914,146.7,96.3,0.547
35.32,32087.6,35119.0,1.1887,1.1899,146.7,96.3,0.547
35.34,32110.4,34956.8,1.1901,1.1805,146.7,96.3,0.547
35.36,31980.3,35036.6,1.1819,1.1851,146.7,96.3,0.547
35.38,31843.7,34862.8,1.1732,1.1751,146.7,96.3,0.547
35.4,31932.1,34700.0,1.1788,1.1656,146.7,96.3,0.547
35.42,31806.9,34635.2,1.1709,1.1619,146.7,96.3,0.547
35.44,31742.9,34631.1,1.1668,1.1616,146.7,96.3,0.547
35.46,31872.2,34635.1,1.175,1.1619,146.7,96.3,0.547
35.48,31702.9,34631.2,1.1643,1.1616,146.7,96.3,0.547
35.5,31801.2,34448.8,1.1705,1.1511,146.7,96.3,0.547
35.52,31690.7,34491.4,1.1635,1.1535,146.7,96.3,0.547
35.54,31738.3,34495.7,1.1665,1.1538,146.7,96.3,0.547
35.56,31897.2,34749.6,1.1766,1.1685,146.7,96.3,0.547
35.58,32116.1,35243.3,1.1905,1.1971,146.7,96.3,0.547
35.6,32254.9,35528.5,1.1993,1.2136,146.7,96.3,0.547
35.62,32388.0,35658.9,1.2077,1.2212,146.7,96.3,0.547
35.64,32360.5,35778.9,1.206,1.2282,146.7,96.3,0.547
35.66,32301.2,35636.3,1.2022,1.2199,146.7,96.3,0.547
35.68,32215.3,35340.5,1.1968,1.2027,146.7,96.3,0.547
35.7,32053.8,35271.9,1.1865,1.1988,146.7,96.3,0.547
35.72,32071.3,35110.9,1.1876,1.1894,146.7,96.3,0.547
35.74,32047.0,35160.8,1.1861,1.1923,146.7,96.3,0.547
35.76,32005.3,34926.6,1.1834,1.1788,146.7,96.3,0.547
35.78,31963.3,34906.3,1.1808,1.1776,146.7,96.3,0.547
35.8,31814.4,34766.9,1.1713,1.1695,146.7,96.3,0.547
35.82,31811.0,34756.3,1.1711,1.1689,146.7,96.3,0.547
35.84,31780.3,34674.9,1.1692,1.1642,146.7,96.3,0.547
35.86,31796.0,34677.0,1.1702,1.1643,146.7,96.3,0.547
35.88,31860.6,34660.8,1.1743,1.1634,146.7,96.3,0.547
35.9,31733.5,34462.9,1.1662,1.1519,146.7,96.3,0.547
35.92,31794.3,34568.4,1.1701,1.158,146.7,96.3,0.547
35.94,31738.6,34504.0,1.1665,1.1543,146.7,96.3,0.547
35.96,31808.4,34626.9,1.171,1.1614,146.7,96.3,0.547
35.98,32031.2,35021.6,1.1851,1.1843,146.7,96.3,0.547
36.0,32187.5,35302.1,1.195,1.2005,146.7,96.3,0.547
36.02,32353.0,35668.3,1.2055,1.2217,146.7,96.3,0.547
36.04,32368.2,35740.8,1.2064,1.2259,146.7,96.3,0.547
36.06,32419.0,35691.8,1.2097,1.2231,146.7,96.3,0.547
36.08,32307.4,35497.9,1.2026,1.2119,146.7,96.3,0.547
36.1,32095.4,35269.9,1.1891,1.1987,146.7,96.3,0.547
36.12,32099.7,35150.9,1.1894,1.1918,146.7,96.3,0.547
36.14,31984.8,35204.6,1.1821,1.1949,146.7,96.3,0.547
36.16,32049.8,35065.7,1.1863,1.1868,146.7,96.3,0.547
36.18,32014.0,34943.3,1.184,1.1797,146.7,96.3,0.547
36.2,31971.9,34826.4,1.1813,1.173,146.7,96.3,0.547
36.22,31938.9,34648.6,1.1792,1.1627,146.7,96.3,0.547
36.24,31815.5,34707.0,1.1714,1.166,146.7,96.3,0.547
36.26,31843.8,34610.3,1.1732,1.1604,146.7,96.3,0.547
36.28,31913.2,34670.0,1.1776,1.1639,146.7,96.3,0.547
36.3,31833.9,34599.5,1.1726,1.1598,146.7,96.3,0.547
36.32,31819.9,34403.3,1.1717,1.1484,146.7,96.3,0.547
36.34,31671.1,34369.6,1.1623,1.1465,146.7,96.3,0.547
36.36,31770.4,34614.5,1.1686,1.1607,146.7,96.3,0.547
36.38,31941.2,34815.8,1.1794,1.1723,146.7,96.3,0.547
36.4,32077.5,35285.3,1.188,1.1995,146.7,96.3,0.547
36.42,32288.7,35564.0,1.2014,1.2157,146.7,96.3,0.547
36.44,32361.9,35743.2,1.206,1.2261,146.7,96.3,0.547
36.46,32363.1,35745.3,1.2061,1.2262,146.7,96.3,0.547
36.48,32291.6,35588.4,1.2016,1.2171,146.7,96.3,0.547
36.5,32250.2,35274.3,1.199,1.1989,146.7,96.3,0.547
36.52,32099.4,35244.3,1.1894,1.1972,146.7,96.3,0.547
36.54,32150.2,35102.6,1.1926,1.189,146.7,96.3,0.547
36.56,32007.5,35113.2,1.1836,1.1896,146.7,96.3,0.547
36.58,31990.2,35030.7,1.1825,1.1848,146.7,96.3,0.547
36.6,31978.6,34851.1,1.1817,1.1744,146.7,96.3,0.547
36.62,31950.5,34843.2,1.18,1.1739,146.7,96.3,0.547
36.64,31795.8,34661.9,1.1702,1.1634,146.7,96.3,0.547
36.66,31853.9,34594.7,1.1738,1.1595,146.7,96.3,0.547
36.68,31783.6,34672.3,1.1694,1.164,146.7,96.3,0.547
36.7,31756.2,34638.8,1.1676,1.1621,146.7,96.3,0.547
36.72,31832.6,34491.5,1.1725,1.1535,146.7,96.3,0.547
36.74,31635.0,34403.7,1.16,1.1485,146.7,96.3,0.547
36.76,31688.5,34527.4,1.1634,1.1556,146.7,96.3,0.547
36.78,31822.1,34733.4,1.1718,1.1676,146.7,96.3,0.547
36.8,32043.5,35051.3,1.1859,1.186,146.7,96.3,0.547
36.82,32203.6,35368.4,1.196,1.2044,146.7,96.3,0.547
36.84,32442.9,35677.5,1.2112,1.2223,146.7,96.3,0.547
36.86,32457.9,35750.4,1.2121,1.2265,146.7,96.3,0.547
36.88,32328.7,35636.3,1.2039,1.2199,146.7,96.3,0.547
36.9,32290.8,35501.7,1.2015,1.2121,146.7,96.3,0.547
36.92,32068.9,35219.0,1.1875,1.1957,146.7,96.3,0.547
36.94,32056.0,35101.5,1.1867,1.1889,146.7,96.3,0.547
36.96,31987.7,35106.7,1.1823,1.1892,146.7,96.3,0.547
36.98,31956.2,34972.6,1.1803,1.1814,146.7,96.3,0.547
37.0,31894.9,34992.5,1.1764,1.1826,146.7,96.3,0.547
37.02,31866.7,34874.8,1.1747,1.1758,146.7,96.3,0.547
37.04,31937.1,34723.5,1.1791,1.167,146.7,96.3,0.547
37.06,31823.0,34688.2,1.1719,1.1649,146.7,96.3,0.547
37.08,31860.4,34631.2,1.1743,1.1616,146.7,96.3,0.547
37.1,31902.6,34650.0,1.1769,1.1627,146.7,96.3,0.547
37.12,31733.8,34677.5,1.1662,1.1643,146.7,96.3,0.547
37.14,31797.3,34372.1,1.1703,1.1466,146.7,96.3,0.547
37.16,31735.3,34444.7,1.1663,1.1508,146.7,96.3,0.547
37.18,31836.4,34634.4,1.1727,1.1618,146.7,96.3,0.547
37.2,31828.1,34814.1,1.1722,1.1722,146.7,96.3,0.547
37.22,32123.7,35208.9,1.1909,1.1951,146.7,96.3,0.547
37.24,32250.9,35638.0,1.199,1.22,146.7,96.3,0.547
37.26,32389.0,35833.1,1.2078,1.2313,146.7,96.3,0.547
37.28,32402.1,35716.3,1.2086,1.2245,146.7,96.3,0.547
37.3,32251.7,35592.2,1.1991,1.2173,146.7,96.3,0.547
37.32,32132.4,35325.7,1.1915,1.2019,146.7,96.3,0.547
37.34,31993.9,35255.3,1.1827,1.1978,146.7,96.3,0.547
37.36,32044.3,35148.5,1.1859,1.1916,146.7,96.3,0.547
37.38,32022.7,35000.2,1.1845,1.183,146.7,96.3,0.547
37.4,32106.2,34985.3,1.1898,1.1822,146.7,96.3,0.547
37.42,31981.5,34947.4,1.1819,1.18,146.7,96.3,0.547
37.44,31891.8,34750.5,1.1762,1.1686,146.7,96.3,0.547
37.46,31820.4,34665.5,1.1717,1.1636,146.7,96.3,0.547
37.48,31868.2,34706.3,1.1748,1.166,146.7,96.3,0.547
37.5,31826.9,34612.0,1.1721,1.1605,146.7,96.3,0.547
37.52,31834.0,34627.3,1.1726,1.1614,146.7,96.3,0.547
37.54,31758.4,34575.2,1.1678,1.1584,146.7,96.3,0.547
37.56,31762.6,34529.9,1.1681,1.1558,146.7,96.3,0.547
37.58,31814.3,34408.5,1.1713,1.1487,146.7,96.3,0.547
37.6,31885.2,34761.7,1.1758,1.1692,146.7,96.3,0.547
37.62,31982.4,35112.4,1.182,1.1895,146.7,96.3,0.547
37.64,32358.0,35445.5,1.2058,1.2088,146.7,96.3,0.547
37.66,32282.3,35765.6,1.201,1.2274,146.7,96.3,0.547
37.68,32356.7,35792.2,1.2057,1.2289,146.7,96.3,0.547
37.7,32300.3,35626.0,1.2021,1.2193,146.7,96.3,0.547
37.72,32245.3,35428.4,1.1987,1.2078,146.7,96.3,0.547
37.74,32150.7,35261.3,1.1927,1.1982,146.7,96.3,0.547
37.76,32093.6,35153.1,1.189,1.1919,146.7,96.3,0.547
37.78,32033.5,35089.3,1.1852,1.1882,146.7,96.3,0.547
37.8,32082.6,35031.1,1.1883,1.1848,146.7,96.3,0.547
37.82,31961.9,35045.5,1.1807,1.1857,146.7,96.3,0.547
37.84,31888.4,34882.4,1.176,1.1762,146.7,96.3,0.547
37.86,31787.9,34698.2,1.1697,1.1655,146.7,96.3,0.547
37.88,31846.7,34819.5,1.1734,1.1726,146.7,96.3,0.547
37.9,31754.0,34697.1,1.1675,1.1655,146.7,96.3,0.547
37.92,31803.7,34628.2,1.1707,1.1615,146.7,96.3,0.547
37.94,31750.3,34536.4,1.1673,1.1562,146.7,96.3,0.547
37.96,31734.9,34403.0,1.1663,1.1484,146.7,96.3,0.547
37.98,31790.7,34571.4,1.1698,1.1582,146.7,96.3,0.547
38.0,31813.8,34605.7,1.1713,1.1602,146.7,96.3,0.547
38.02,31933.2,34930.5,1.1789,1.179,146.7,96.3,0.547
38.04,32107.9,35212.6,1.1899,1.1953,146.7,96.3,0.547
38.06,32295.5,35616.2,1.2018,1.2187,146.7,96.3,0.547
38.08,32444.2,35791.3,1.2113,1.2289,146.7,96.3,0.547
38.1,32394.7,35747.3,1.2081,1.2263,146.7,96.3,0.547
38.12,32268.5,35532.4,1.2001,1.2139,146.7,96.3,0.547
38.14,32084.8,35349.8,1.1885,1.2033,146.7,96.3,0.547
38.16,32071.6,35149.0,1.1876,1.1916,146.7,96.3,0.547
38.18,32080.3,35158.1,1.1882,1.1922,146.7,96.3,0.547
38.2,31932.4,35021.0,1.1788,1.1842,146.7,96.3,0.547
38.22,31935.6,34940.0,1.179,1.1795,146.7,96.3,0.547
38.24,31935.0,34866.8,1.179,1.1753,146.7,96.3,0.547
38.26,31866.3,34805.3,1.1746,1.1717,146.7,96.3,0.547
38.28,31839.3,34785.4,1.1729,1.1706,146.7,96.3,0.547
38.3,31782.3,34686.5,1.1693,1.1648,146.7,96.3,0.547
38.32,31744.9,34651.1,1.1669,1.1628,146.7,96.3,0.547
38.34,31787.7,34590.4,1.1696,1.1593,146.7,96.3,0.547
38.36,31768.2,34456.0,1.1684,1.1515,146.7,96.3,0.547
38.38,31717.7,34458.9,1.1652,1.1517,146.7,96.3,0.547
38.4,31686.2,34542.7,1.1632,1.1565,146.7,96.3,0.547
38.42,32040.4,34804.0,1.1857,1.1717,146.7,96.3,0.547
38.44,32103.7,35129.4,1.1897,1.1905,146.7,96.3,0.547
38.46,32260.2,35414.0,1.1996,1.207,146.7,96.3,0.547
38.48,32408.1,35700.9,1.209,1.2236,146.7,96.3,0.547
38.5,32381.3,35718.8,1.2073,1.2247,146.7,96.3,0.547
38.52,32373.2,35643.9,1.2068,1.2203,146.7,96.3,0.547
38.54,32246.2,35361.5,1.1987,1.204,146.7,96.3,0.547
38.56,32199.4,35169.8,1.1957,1.1929,146.7,96.3,0.547
38.58,32066.6,35175.1,1.1873,1.1932,146.7,96.3,0.547
38.6,32055.6,35064.9,1.1866,1.1868,146.7,96.3,0.547
38.62,31982.7,34914.3,1.182,1.178,146.7,96.3,0.547
38.64,31886.3,34963.4,1.1759,1.1809,146.7,96.3,0.547
38.66,31903.7,34840.2,1.177,1.1738,146.7,96.3,0.547
38.68,31839.9,34743.5,1.173,1.1682,146.7,96.3,0.547
38.7,31839.3,34711.5,1.1729,1.1663,146.7,96.3,0.547
38.72,31839.3,34647.4,1.1729,1.1626,146.7,96.3,0.547
38.74,31847.3,34611.1,1.1734,1.1605,146.7,96.3,0.547
38.76,31775.2,34531.3,1.1689,1.1559,146.7,96.3,0.547
38.78,31774.2,34499.9,1.1688,1.154,146.7,96.3,0.547
38.8,31699.5,34552.5,1.1641,1.1571,146.7,96.3,0.547
38.82,31790.7,34621.5,1.1698,1.1611,146.7,96.3,0.547
38.84,31994.0,35013.5,1.1827,1.1838,146.7,96.3,0.547
38.86,32256.1,35360.7,1.1993,1.2039,146.7,96.3,0.547
38.88,32250.8,35699.1,1.199,1.2235,146.7,96.3,0.547
38.9,32380.9,35699.1,1.2072,1.2235,146.7,96.3,0.547
38.92,32295.2,35646.1,1.2018,1.2205,146.7,96.3,0.547
38.94,32261.7,35492.9,1.1997,1.2116,146.7,96.3,0.547
38.96,32134.4,35332.7,1.1916,1.2023,146.7,96.3,0.547
38.98,31989.2,35088.9,1.1824,1.1882,146.7,96.3,0.547
39.0,32110.5,35114.2,1.1901,1.1896,146.7,96.3,0.547
39.02,32027.5,35004.3,1.1849,1.1833,146.7,96.3,0.547
39.04,31904.5,34925.6,1.1771,1.1787,146.7,96.3,0.547
39.06,31908.6,34862.1,1.1773,1.175,146.7,96.3,0.547
39.08,31929.3,34704.5,1.1786,1.1659,146.7,96.3,0.547
39.1,31838.0,34650.8,1.1728,1.1628,146.7,96.3,0.547
39.12,31719.6,34724.9,1.1653,1.1671,146.7,96.3,0.547
39.14,31762.2,34607.5,1.168,1.1603,146.7,96.3,0.547
39.16,31836.6,34649.9,1.1727,1.1627,146.7,96.3,0.547
39.18,31710.9,34527.9,1.1648,1.1557,146.7,96.3,0.547
39.2,31776.4,34409.6,1.1689,1.1488,146.7,96.3,0.547
39.22,31724.5,34489.4,1.1656,1.1534,146.7,96.3,0.547
39.24,31938.3,34883.3,1.1792,1.1763,146.7,96.3,0.547
39.26,32086.8,35158.1,1.1886,1.1922,146.7,96.3,0.547
39.28,32270.0,35552.0,1.2002,1.215,146.7,96.3,0.547
39.3,32373.2,35681.9,1.2068,1.2225,146.7,96.3,0.547
39.32,32440.1,35687.0,1.211,1.2228,146.7,96.3,0.547
39.34,32298.5,35559.7,1.202,1.2154,146.7,96.3,0.547
39.36,32116.7,35303.3,1.1905,1.2006,146.7,96.3,0.547
39.38,32142.5,35223.4,1.1921,1.196,146.7,96.3,0.547
39.4,32088.9,35172.1,1.1887,1.193,146.7,96.3,0.547
39.42,32007.2,35131.2,1.1836,1.1906,146.7,96.3,0.547
39.44,31974.5,35028.5,1.1815,1.1847,146.7,96.3,0.547
39.46,31880.5,34978.8,1.1755,1.1818,146.7,96.3,0.547
39.48,31890.0,34849.0,1.1761,1.1743,146.7,96.3,0.547
39.5,31886.6,34772.8,1.1759,1.1699,146.7,96.3,0.547
39.52,31848.6,34754.1,1.1735,1.1688,146.7,96.3,0.547
39.54,31860.1,34613.4,1.1742,1.1606,146.7,96.3,0.547
39.56,31884.4,34538.5,1.1758,1.1563,146.7,96.3,0.547
39.58,31718.4,34543.5,1.1653,1.1566,146.7,96.3,0.547
39.6,31812.6,34555.5,1.1712,1.1573,146.7,96.3,0.547
39.62,31614.3,34534.1,1.1587,1.156,146.7,96.3,0.547
39.64,31876.1,34616.3,1.1753,1.1608,146.7,96.3,0.547
39.66,32045.2,35010.0,1.186,1.1836,146.7,96.3,0.547
39.68,32262.2,35360.6,1.1997,1.2039,146.7,96.3,0.547
39.7,32337.8,35604.6,1.2045,1.2181,146.7,96.3,0.547
39.72,32340.8,35784.9,1.2047,1.2285,146.7,96.3,0.547
39.74,32319.4,35693.4,1.2033,1.2232,146.7,96.3,0.547
39.76,32181.5,35543.2,1.1946,1.2145,146.7,96.3,0.547
39.78,32149.8,35281.9,1.1926,1.1994,146.7,96.3,0.547
39.8,32127.1,35162.9,1.1912,1.1925,146.7,96.3,0.547
39.82,31988.5,35110.3,1.1824,1.1894,146.7,96.3,0.547
39.84,32048.0,35107.1,1.1861,1.1892,146.7,96.3,0.547
39.86,31981.5,34917.6,1.1819,1.1782,146.7,96.3,0.547
39.88,31948.3,34897.5,1.1798,1.1771,146.7,96.3,0.547
39.9,31944.2,34678.7,1.1796,1.1644,146.7,96.3,0.547
39.92,31799.2,34559.9,1.1704,1.1575,146.7,96.3,0.547
39.94,31841.0,34608.3,1.173,1.1603,146.7,96.3,0.547
39.96,31775.1,34583.2,1.1688,1.1589,146.7,96.3,0.547
39.98,31838.0,34572.0,1.1728,1.1582,146.7,96.3,0.547
40.0,31660.3,34490.3,1.1616,1.1535,146.7,96.3,0.547
40.02,31789.4,34441.1,1.1698,1.1506,146.7,96.3,0.547
40.04,31857.4,34554.4,1.1741,1.1572,146.7,96.3,0.547
40.06,31898.0,34853.4,1.1766,1.1745,146.7,96.3,0.547
40.08,32061.5,35213.2,1.187,1.1954,146.7,96.3,0.547
40.1,32225.2,35547.9,1.1974,1.2148,146.7,96.3,0.547
40.12,32437.3,35714.8,1.2108,1.2244,146.7,96.3,0.547
40.14,32379.6,35737.3,1.2072,1.2257,146.7,96.3,0.547
40.16,32286.1,35563.8,1.2012,1.2157,146.7,96.3,0.547
40.18,32134.2,35387.1,1.1916,1.2054,146.7,96.3,0.547
40.2,32015.1,35170.8,1.1841,1.1929,146.7,96.3,0.547
40.22,32068.4,35100.3,1.1874,1.1888,146.7,96.3,0.547
40.24,32029.8,35155.3,1.185,1.192,146.7,96.3,0.547
40.26,31969.4,34899.6,1.1812,1.1772,146.7,96.3,0.547
40.28,31957.7,34839.5,1.1804,1.1737,146.7,96.3,0.547
40.3,31894.4,34778.2,1.1764,1.1702,146.7,96.3,0.547
40.32,31825.1,34698.1,1.172,1.1655,146.7,96.3,0.547
40.34,31924.8,34557.2,1.1783,1.1574,146.7,96.3,0.547
40.36,31846.1,34693.0,1.1734,1.1652,146.7,96.3,0.547
40.38,31802.0,34551.3,1.1706,1.157,146.7,96.3,0.547
40.4,31747.3,34514.8,1.1671,1.1549,146.7,96.3,0.547
40.42,31772.0,34524.6,1.1687,1.1555,146.7,96.3,0.547
40.44,31769.7,34551.0,1.1685,1.157,146.7,96.3,0.547
40.46,31881.9,34679.8,1.1756,1.1645,146.7,96.3,0.547
40.48,31997.4,35090.3,1.1829,1.1882,146.7,96.3,0.547
40.5,32189.9,35301.1,1.1951,1.2005,146.7,96.3,0.547
40.52,32286.4,35686.7,1.2013,1.2228,146.7,96.3,0.547
40.54,32363.1,35826.2,1.2061,1.2309,146.7,96.3,0.547
40.56,32266.0,35651.9,1.2,1.2208,146.7,96.3,0.547
40.58,32262.5,35466.3,1.1997,1.21,146.7,96.3,0.547
40.6,32140.9,35218.2,1.192,1.1957,146.7,96.3,0.547
40.62,32006.6,35153.2,1.1835,1.1919,146.7,96.3,0.547
40.64,32051.9,35093.7,1.1864,1.1884,146.7,96.3,0.547
40.66,32027.3,35024.4,1.1848,1.1844,146.7,96.3,0.547
40.68,31903.8,34912.2,1.177,1.1779,146.7,96.3,0.547
40.7,31939.2,34837.9,1.1793,1.1736,146.7,96.3,0.547
40.72,31793.4,34802.5,1.17,1.1716,146.7,96.3,0.547
40.74,31799.8,34670.4,1.1704,1.1639,146.7,96.3,0.547
40.76,31825.4,34652.3,1.172,1.1629,146.7,96.3,0.547
40.78,31778.8,34595.6,1.1691,1.1596,146.7,96.3,0.547
40.8,31776.9,34537.3,1.169,1.1562,146.7,96.3,0.547
40.82,31664.5,34494.0,1.1618,1.1537,146.7,96.3,0.547
40.84,31769.0,34452.7,1.1685,1.1513,146.7,96.3,0.547
40.86,31779.6,34551.7,1.1691,1.157,146.7,96.3,0.547
40.88,31932.3,34846.8,1.1788,1.1741,146.7,96.3,0.547
40.9,32118.9,35217.2,1.1906,1.1956,146.7,96.3,0.547
40.92,32276.2,35578.7,1.2006,1.2165,146.7,96.3,0.547
40.94,32495.6,35689.7,1.2145,1.223,146.7,96.3,0.547
40.96,32327.9,35743.1,1.2039,1.2261,146.7,96.3,0.547
40.98,32257.9,35503.9,1.1995,1.2122,146.7,96.3,0.547
41.0,32161.1,35299.9,1.1933,1.2004,146.7,96.3,0.547
41.02,32081.1,35118.8,1.1882,1.1899,146.7,96.3,0.547
41.04,32020.4,35098.3,1.1844,1.1887,146.7,96.3,0.547
41.06,32034.6,35007.5,1.1853,1.1834,146.7,96.3,0.547
41.08,32045.9,34937.7,1.186,1.1794,146.7,96.3,0.547
41.1,31915.3,34879.3,1.1777,1.176,146.7,96.3,0.547
41.12,31901.9,34770.7,1.1769,1.1697,146.7,96.3,0.547
41.14,31845.6,34765.8,1.1733,1.1694,146.7,96.3,0.547
41.16,31829.7,34723.2,1.1723,1.167,146.7,96.3,0.547
41.18,31842.0,34629.5,1.1731,1.1615,146.7,96.3,0.547
41.2,31768.5,34621.1,1.1684,1.1611,146.7,96.3,0.547
41.22,31767.3,34489.2,1.1684,1.1534,146.7,96.3,0.547
41.24,31830.7,34545.9,1.1724,1.1567,146.7,96.3,0.547
41.26,31715.1,34542.3,1.165,1.1565,146.7,96.3,0.547
41.28,31856.7,34689.0,1.174,1.165,146.7,96.3,0.547
41.3,32064.0,35020.0,1.1872,1.1842,146.7,96.3,0.547
41.32,32220.2,35446.0,1.1971,1.2089,146.7,96.3,0.547
41.34,32445.8,35597.0,1.2114,1.2176,146.7,96.3,0.547
41.36,32426.1,35741.7,1.2101,1.226,146.7,96.3,0.547
41.38,32376.5,35647.5,1.207,1.2205,146.7,96.3,0.547
41.4,32381.0,35411.8,1.2073,1.2069,146.7,96.3,0.547
41.42,32121.8,35357.3,1.1908,1.2037,146.7,96.3,0.547
41.44,32070.6,35222.1,1.1876,1.1959,146.7,96.3,0.547
41.46,32022.5,35009.0,1.1845,1.1835,146.7,96.3,0.547
41.48,31961.4,35027.6,1.1807,1.1846,146.7,96.3,0.547
41.5,32008.3,34947.5,1.1836,1.18,146.7,96.3,0.547
41.52,31889.2,34828.9,1.1761,1.1731,146.7,96.3,0.547
41.54,31853.7,34676.4,1.1738,1.1643,146.7,96.3,0.547
41.56,31883.9,34695.3,1.1757,1.1654,146.7,96.3,0.547
41.58,31800.3,34615.2,1.1704,1.1607,146.7,96.3,0.547
41.6,31868.6,34635.0,1.1748,1.1619,146.7,96.3,0.547
41.62,31763.9,34547.4,1.1681,1.1568,146.7,96.3,0.547
41.64,31739.5,34426.3,1.1666,1.1498,146.7,96.3,0.547
41.66,31729.5,34458.6,1.166,1.1516,146.7,96.3,0.547
41.68,31773.1,34591.4,1.1687,1.1593,146.7,96.3,0.547
41.7,31980.1,34831.1,1.1818,1.1732,146.7,96.3,0.547
41.72,32167.0,35241.2,1.1937,1.197,146.7,96.3,0.547
41.74,32311.8,35533.5,1.2029,1.2139,146.7,96.3,0.547
41.76,32344.1,35818.4,1.2049,1.2304,146.7,96.3,0.547
41.78,32333.8,35723.1,1.2043,1.2249,146.7,96.3,0.547
41.8,32234.0,35457.5,1.1979,1.2095,146.7,96.3,0.547
41.82,32125.7,35310.4,1.1911,1.201,146.7,96.3,0.547
41.84,32149.9,35184.8,1.1926,1.1937,146.7,96.3,0.547
41.86,32070.2,35050.4,1.1876,1.1859,146.7,96.3,0.547
41.88,31942.7,35007.8,1.1795,1.1835,146.7,96.3,0.547
41.9,32004.7,34972.9,1.1834,1.1814,146.7,96.3,0.547
41.92,31899.2,34942.4,1.1767,1.1797,146.7,96.3,0.547
41.94,31822.3,34742.5,1.1718,1.1681,146.7,96.3,0.547
41.96,31838.3,34737.3,1.1729,1.1678,146.7,96.3,0.547
41.98,31872.3,34687.4,1.175,1.1649,146.7,96.3,0.547
42.0,31945.4,34683.2,1.1796,1.1647,146.7,96.3,0.547
42.02,31848.6,34643.5,1.1735,1.1624,146.7,96.3,0.547
42.04,31804.5,34559.6,1.1707,1.1575,146.7,96.3,0.547
42.06,31692.4,34389.1,1.1636,1.1476,146.7,96.3,0.547
42.08,31756.5,34563.4,1.1677,1.1577,146.7,96.3,0.547
42.1,31959.7,34692.8,1.1805,1.1652,146.7,96.3,0.547
42.12,32003.3,35093.1,1.1833,1.1884,146.7,96.3,0.547
42.14,32203.7,35450.1,1.196,1.2091,146.7,96.3,0.547
42.16,32291.4,35597.5,1.2016,1.2176,146.7,96.3,0.547
42.18,32391.2,35806.2,1.2079,1.2297,146.7,96.3,0.547
42.2,32354.4,35640.0,1.2056,1.2201,146.7,96.3,0.547
42.22,32254.9,35358.7,1.1993,1.2038,146.7,96.3,0.547
42.24,32145.9,35192.6,1.1923,1.1942,146.7,96.3,0.547
42.26,32135.3,35228.1,1.1917,1.1962,146.7,96.3,0.547
42.28,32034.0,35131.6,1.1853,1.1906,146.7,96.3,0.547
42.3,32013.7,34984.6,1.184,1.1821,146.7,96.3,0.547
42.32,31932.5,34878.6,1.1788,1.176,146.7,96.3,0.547
42.34,31862.8,34753.3,1.1744,1.1687,146.7,96.3,0.547
42.36,31800.3,34790.7,1.1704,1.1709,146.7,96.3,0.547
42.38,31757.4,34647.7,1.1677,1.1626,146.7,96.3,0.547
42.4,31785.0,34674.4,1.1695,1.1641,146.7,96.3,0.547
42.42,31825.6,34579.6,1.172,1.1587,146.7,96.3,0.547
42.44,31747.6,34606.5,1.1671,1.1602,146.7,96.3,0.547
42.46,31698.3,34491.1,1.164,1.1535,146.7,96.3,0.547
42.48,31723.3,34497.6,1.1656,1.1539,146.7,96.3,0.547
42.5,31825.7,34506.1,1.1721,1.1544,146.7,96.3,0.547
42.52,32067.8,34931.6,1.1874,1.179,146.7,96.3,0.547
42.54,32241.0,35326.9,1.1984,1.202,146.7,96.3,0.547
42.56,32364.4,35621.0,1.2062,1.219,146.7,96.3,0.547
42.58,32370.9,35789.7,1.2066,1.2288,146.7,96.3,0.547
42.6,32326.9,35714.1,1.2038,1.2244,146.7,96.3,0.547
42.62,32198.6,35517.1,1.1957,1.213,146.7,96.3,0.547
42.64,32139.9,35261.3,1.192,1.1982,146.7,96.3,0.547
42.66,32149.4,35164.2,1.1926,1.1925,146.7,96.3,0.547
42.68,31975.5,35132.0,1.1815,1.1907,146.7,96.3,0.547
42.7,31970.2,35028.1,1.1812,1.1846,146.7,96.3,0.547
42.72,32062.1,34876.6,1.187,1.1759,146.7,96.3,0.547
42.74,31950.2,34871.7,1.1799,1.1756,146.7,96.3,0.547
42.76,31857.9,34805.5,1.1741,1.1717,146.7,96.3,0.547
42.78,31878.2,34707.5,1.1754,1.1661,146.7,96.3,0.547
42.8,31822.6,34640.8,1.1719,1.1622,146.7,96.3,0.547
42.82,31780.7,34593.9,1.1692,1.1595,146.7,96.3,0.547
42.84,31772.6,34707.3,1.1687,1.1661,146.7,96.3,0.547
42.86,31698.5,34450.1,1.164,1.1511,146.7,96.3,0.547
42.88,31730.6,34430.8,1.166,1.15,146.7,96.3,0.547
42.9,31621.1,34643.0,1.1591,1.1623,146.7,96.3,0.547
42.92,31857.7,34779.7,1.1741,1.1703,146.7,96.3,0.547
42.94,32096.8,35153.6,1.1892,1.1919,146.7,96.3,0.547
42.96,32291.9,35383.0,1.2016,1.2052,146.7,96.3,0.547
42.98,32445.8,35770.3,1.2114,1.2276,146.7,96.3,0.547
43.0,32333.6,35810.8,1.2042,1.23,146.7,96.3,0.547
43.02,32341.6,35591.6,1.2048,1.2173,146.7,96.3,0.547
43.04,32165.7,35398.0,1.1936,1.2061,146.7,96.3,0.547
43.06,32090.8,35221.7,1.1889,1.1959,146.7,96.3,0.547
43.08,32101.1,35151.6,1.1895,1.1918,146.7,96.3,0.547
43.1,32023.9,35127.6,1.1846,1.1904,146.7,96.3,0.547
43.12,32039.0,35097.1,1.1856,1.1886,146.7,96.3,0.547
43.14,31946.0,34947.2,1.1797,1.18,146.7,96.3,0.547
43.16,31884.6,34903.7,1.1758,1.1774,146.7,96.3,0.547
43.18,31901.2,34722.4,1.1768,1.1669,146.7,96.3,0.547
43.2,31815.5,34746.1,1.1714,1.1683,146.7,96.3,0.547
43.22,31743.2,34647.5,1.1668,1.1626,146.7,96.3,0.547
43.24,31814.6,34617.4,1.1714,1.1608,146.7,96.3,0.547
43.26,31766.4,34557.1,1.1683,1.1574,146.7,96.3,0.547
43.28,31816.1,34513.7,1.1715,1.1548,146.7,96.3,0.547
43.3,31657.2,34436.2,1.1614,1.1503,146.7,96.3,0.547
43.32,31837.7,34621.0,1.1728,1.1611,146.7,96.3,0.547
43.34,31973.8,35053.0,1.1814,1.1861,146.7,96.3,0.547
43.36,32114.8,35267.3,1.1904,1.1985,146.7,96.3,0.547
43.38,32338.2,35600.2,1.2045,1.2178,146.7,96.3,0.547
43.4,32300.7,35695.3,1.2022,1.2233,146.7,96.3,0.547
43.42,32356.9,35749.5,1.2057,1.2264,146.7,96.3,0.547
43.44,32214.8,35523.3,1.1967,1.2133,146.7,96.3,0.547
43.46,32153.9,35237.9,1.1929,1.1968,146.7,96.3,0.547
43.48,32057.3,35209.9,1.1867,1.1952,146.7,96.3,0.547
43.5,32017.6,35037.5,1.1842,1.1852,146.7,96.3,0.547
43.52,32093.2,35045.5,1.189,1.1857,146.7,96.3,0.547
43.54,31979.7,35014.7,1.1818,1.1839,146.7,96.3,0.547
43.56,31844.4,34844.9,1.1732,1.174,146.7,96.3,0.547
43.58,31869.9,34759.5,1.1749,1.1691,146.7,96.3,0.547
43.6,31868.1,34637.5,1.1747,1.162,146.7,96.3,0.547
43.62,31872.1,34678.3,1.175,1.1644,146.7,96.3,0.547
43.64,31820.6,34650.4,1.1717,1.1628,146.7,96.3,0.547
43.66,31750.5,34575.8,1.1673,1.1584,146.7,96.3,0.547
43.68,31771.7,34553.6,1.1686,1.1571,146.7,96.3,0.547
43.7,31712.4,34437.0,1.1649,1.1504,146.7,96.3,0.547
43.72,31790.8,34554.9,1.1698,1.1572,146.7,96.3,0.547
43.74,31879.2,34813.6,1.1755,1.1722,146.7,96.3,0.547
43.76,32052.2,35152.7,1.1864,1.1919,146.7,96.3,0.547
43.78,32277.8,35459.5,1.2007,1.2096,146.7,96.3,0.547
43.8,32403.8,35733.7,1.2087,1.2255,146.7,96.3,0.547
43.82,32342.1,35837.0,1.2048,1.2315,146.7,96.3,0.547
43.84,32217.8,35514.1,1.1969,1.2128,146.7,96.3,0.547
43.86,32205.1,35436.4,1.1961,1.2083,146.7,96.3,0.547
43.88,32066.2,35170.7,1.1873,1.1929,146.7,96.3,0.547
43.9,31974.4,35151.0,1.1815,1.1918,146.7,96.3,0.547
43.92,31999.8,35078.5,1.1831,1.1876,146.7,96.3,0.547
43.94,31969.5,34975.6,1.1812,1.1816,146.7,96.3,0.547
43.96,31922.1,34951.5,1.1782,1.1802,146.7,96.3,0.547
43.98,31974.0,34804.7,1.1815,1.1717,146.7,96.3,0.547
44.0,31852.7,34692.0,1.1738,1.1652,146.7,96.3,0.547
44.02,31794.6,34660.8,1.1701,1.1634,146.7,96.3,0.547
44.04,31792.5,34609.6,1.17,1.1604,146.7,96.3,0.547
44.06,31754.8,34601.0,1.1676,1.1599,146.7,96.3,0.547
44.08,31821.1,34606.0,1.1718,1.1602,146.7,96.3,0.547
44.1,31645.4,34399.1,1.1606,1.1482,146.7,96.3,0.547
44.12,31743.2,34508.0,1.1668,1.1545,146.7,96.3,0.547
44.14,31816.5,34682.9,1.1715,1.1646,146.7,96.3,0.547
44.16,31988.7,35103.5,1.1824,1.189,146.7,96.3,0.547
44.18,32285.1,35386.8,1.2012,1.2054,146.7,96.3,0.547
44.2,32399.4,35694.0,1.2084,1.2232,146.7,96.3,0.547
44.22,32364.1,35853.5,1.2062,1.2325,146.7,96.3,0.547
44.24,32295.8,35600.0,1.2019,1.2178,146.7,96.3,0.547
44.26,32173.3,35431.1,1.1941,1.208,146.7,96.3,0.547
44.28,32122.9,35195.9,1.1909,1.1944,146.7,96.3,0.547
44.3,32049.0,35216.7,1.1862,1.1956,146.7,96.3,0.547
44.32,32073.8,35157.2,1.1878,1.1921,146.7,96.3,0.547
44.34,32081.5,34997.3,1.1883,1.1829,146.7,96.3,0.547
44.36,31997.1,34999.3,1.1829,1.183,146.7,96.3,0.547
44.38,31928.4,34739.1,1.1786,1.1679,146.7,96.3,0.547
44.4,31793.6,34748.4,1.17,1.1684,146.7,96.3,0.547
44.42,31865.4,34595.5,1.1746,1.1596,146.7,96.3,0.547
44.44,31790.6,34593.2,1.1698,1.1594,146.7,96.3,0.547
44.46,31864.2,34658.7,1.1745,1.1632,146.7,96.3,0.547
44.48,31797.9,34555.3,1.1703,1.1573,146.7,96.3,0.547
44.5,31758.4,34451.9,1.1678,1.1513,146.7,96.3,0.547
44.52,31808.9,34391.3,1.171,1.1477,146.7,96.3,0.547
44.54,31652.0,34608.9,1.161,1.1604,146.7,96.3,0.547
44.56,31983.0,34832.2,1.182,1.1733,146.7,96.3,0.547
44.58,32034.0,35290.9,1.1853,1.1999,146.7,96.3,0.547
44.6,32306.9,35499.1,1.2026,1.2119,146.7,96.3,0.547
44.62,32464.5,35744.7,1.2125,1.2262,146.7,96.3,0.547
44.64,32387.9,35705.6,1.2077,1.2239,146.7,96.3,0.547
44.66,32262.3,35520.2,1.1997,1.2132,146.7,96.3,0.547
44.68,32246.5,35445.8,1.1987,1.2088,146.7,96.3,0.547
44.7,32119.0,35207.8,1.1906,1.1951,146.7,96.3,0.547
44.72,31977.0,35207.4,1.1816,1.195,146.7,96.3,0.547
44.74,32094.0,35060.9,1.1891,1.1865,146.7,96.3,0.547
44.76,31950.6,34903.3,1.18,1.1774,146.7,96.3,0.547
44.78,32021.1,34799.9,1.1844,1.1714,146.7,96.3,0.547
44.8,31888.6,34812.1,1.176,1.1721,146.7,96.3,0.547
44.82,31855.0,34738.7,1.1739,1.1679,146.7,96.3,0.547
44.84,31784.5,34642.3,1.1694,1.1623,146.7,96.3,0.547
44.86,31801.9,34659.0,1.1705,1.1633,146.7,96.3,0.547
44.88,31821.1,34619.2,1.1718,1.161,146.7,96.3,0.547
44.9,31713.2,34571.3,1.1649,1.1582,146.7,96.3,0.547
44.92,31625.1,34475.4,1.1593,1.1526,146.7,96.3,0.547
44.94,31659.8,34376.7,1.1615,1.1469,146.7,96.3,0.547
44.96,31940.2,34724.8,1.1793,1.1671,146.7,96.3,0.547
44.98,32048.2,34996.0,1.1862,1.1828,146.7,96.3,0.547
45.0,32131.4,35460.4,1.1914,1.2097,146.7,96.3,0.547
45.02,32366.0,35663.3,1.2063,1.2214,146.7,96.3,0.547
45.04,32523.6,35782.8,1.2163,1.2284,146.7,96.3,0.547
45.06,32296.1,35688.8,1.2019,1.2229,146.7,96.3,0.547
45.08,32194.0,35444.1,1.1954,1.2087,146.7,96.3,0.547
45.1,32117.9,35293.7,1.1906,1.2,146.7,96.3,0.547
45.12,32126.8,35197.9,1.1911,1.1945,146.7,96.3,0.547
45.14,31954.5,35084.7,1.1802,1.1879,146.7,96.3,0.547
45.16,31899.8,35135.2,1.1768,1.1909,146.7,96.3,0.547
45.18,32056.7,34874.1,1.1867,1.1757,146.7,96.3,0.547
45.2,31925.1,34871.1,1.1784,1.1755,146.7,96.3,0.547
45.22,31821.7,34726.9,1.1718,1.1672,146.7,96.3,0.547
45.24,31832.0,34783.6,1.1725,1.1705,146.7,96.3,0.547
45.26,31921.3,34692.4,1.1781,1.1652,146.7,96.3,0.547
45.28,31855.1,34625.4,1.1739,1.1613,146.7,96.3,0.547
45.3,31815.7,34557.7,1.1714,1.1574,146.7,96.3,0.547
45.32,31686.6,34478.6,1.1632,1.1528,146.7,96.3,0.547
45.34,31715.6,34455.5,1.1651,1.1515,146.7,96.3,0.547
45.36,31866.9,34632.0,1.1747,1.1617,146.7,96.3,0.547
45.38,31972.5,34903.9,1.1814,1.1774,146.7,96.3,0.547
45.4,32032.8,35216.1,1.1852,1.1955,146.7,96.3,0.547
45.42,32242.6,35612.5,1.1985,1.2185,146.7,96.3,0.547
45.44,32390.5,35666.4,1.2079,1.2216,146.7,96.3,0.547
45.46,32455.9,35696.8,1.212,1.2234,146.7,96.3,0.547
45.48,32236.0,35558.0,1.1981,1.2153,146.7,96.3,0.547
45.5,32167.0,35383.5,1.1937,1.2052,146.7,96.3,0.547
45.52,32068.7,35163.9,1.1875,1.1925,146.7,96.3,0.547
45.54,32080.9,35115.9,1.1882,1.1897,146.7,96.3,0.547
45.56,32029.7,35099.5,1.185,1.1888,146.7,96.3,0.547
45.58,32038.7,34951.2,1.1856,1.1802,146.7,96.3,0.547
45.6,31937.8,34885.8,1.1792,1.1764,146.7,96.3,0.547
45.62,31900.9,34851.9,1.1768,1.1744,146.7,96.3,0.547
45.64,31932.8,34725.3,1.1788,1.1671,146.7,96.3,0.547
45.66,31802.5,34704.8,1.1706,1.1659,146.7,96.3,0.547
45.68,31782.9,34686.2,1.1693,1.1648,146.7,96.3,0.547
45.7,31838.5,34534.0,1.1729,1.156,146.7,96.3,0.547
45.72,31757.3,34598.3,1.1677,1.1597,146.7,96.3,0.547
45.74,31776.5,34431.3,1.1689,1.1501,146.7,96.3,0.547
45.76,31771.8,34419.4,1.1686,1.1494,146.7,96.3,0.547
45.78,31902.3,34737.2,1.1769,1.1678,146.7,96.3,0.547
45.8,32021.6,35082.6,1.1845,1.1878,146.7,96.3,0.547
