timestamp,raw_red,raw_ir,filtered_red,filtered_ir,heart_rate,spo2,ac_dc_ratio
0.0,32081.0,35119.4,0.4302,0.2911,146.7,97.6,0.496
0.02,32246.3,35505.5,1.3101,1.2394,146.7,97.6,0.496
0.04,32311.9,35607.3,1.6596,1.4897,146.7,97.6,0.496
0.06,32331.0,35823.2,1.7609,2.0198,146.7,97.6,0.496
0.08,32230.7,35612.6,1.2271,1.5027,146.7,97.6,0.496
0.1,32141.4,35364.1,0.7521,0.8923,146.7,97.6,0.496
0.12,32188.7,35207.2,1.0038,0.5068,146.7,97.6,0.496
0.14,32082.2,35088.3,0.4369,0.2147,146.7,97.6,0.496
0.16,32073.4,35110.9,0.3902,0.2703,146.7,97.6,0.496
0.18,32004.6,34981.4,0.0237,-0.0479,146.7,97.6,0.496
0.2,32022.9,34972.7,0.1212,-0.0694,146.7,97.6,0.496
0.22,32004.3,34700.1,0.0223,-0.7388,146.7,97.6,0.496
0.24,31883.4,34766.8,-0.6213,-0.5749,146.7,97.6,0.496
0.26,31801.9,34671.8,-1.0549,-0.8083,146.7,97.6,0.496
0.28,31802.9,34716.9,-1.0498,-0.6976,146.7,97.6,0.496
0.3,31812.2,34639.0,-1.0,-0.8889,146.7,97.6,0.496
0.32,31800.0,34432.7,-1.0651,-1.3957,146.7,97.6,0.496
0.34,31784.2,34356.4,-1.1493,-1.5833,146.7,97.6,0.496
0.36,31690.3,34473.9,-1.6488,-1.2945,146.7,97.6,0.496
0.38,31785.6,34629.0,-1.1419,-0.9136,146.7,97.6,0.496
0.4,32022.0,34992.0,0.1164,-0.0219,146.7,97.6,0.496
0.42,32134.4,35486.7,0.7145,1.1934,146.7,97.6,0.496
0.44,32394.5,35688.5,2.099,1.6891,146.7,97.6,0.496
0.46,32363.1,35738.1,1.9318,1.811,146.7,97.6,0.496
0.48,32300.7,35619.3,1.5999,1.5191,146.7,97.6,0.496
0.5,32228.9,35482.9,1.2175,1.1839,146.7,97.6,0.496
0.52,32129.0,35340.5,0.6858,0.8342,146.7,97.6,0.496
0.54,32095.3,35132.3,0.5066,0.3229,146.7,97.6,0.496
0.56,32021.8,35129.5,0.1152,0.3159,146.7,97.6,0.496
0.58,31991.9,35074.8,-0.0437,0.1816,146.7,97.6,0.496
0.6,31971.7,34965.1,-0.1512,-0.088,146.7,97.6,0.496
0.62,31915.8,34858.6,-0.4489,-0.3496,146.7,97.6,0.496
0.64,31846.7,34687.2,-0.8167,-0.7707,146.7,97.6,0.496
0.66,31890.8,34567.6,-0.582,-1.0645,146.7,97.6,0.496
0.68,31870.2,34704.6,-0.6914,-0.7279,146.7,97.6,0.496
0.7,31784.9,34659.5,-1.1454,-0.8385,146.7,97.6,0.496
0.72,31798.7,34652.7,-1.0718,-0.8552,146.7,97.6,0.496
0.74,31693.4,34532.1,-1.6325,-1.1517,146.7,97.6,0.496
0.76,31697.7,34467.2,-1.6096,-1.3109,146.7,97.6,0.496
0.78,31816.6,34496.0,-0.9768,-1.2401,146.7,97.6,0.496
0.8,31872.0,34895.1,-0.6818,-0.2599,146.7,97.6,0.496
0.82,32005.6,35141.6,0.029,0.3455,146.7,97.6,0.496
0.84,32319.4,35570.7,1.6995,1.3996,146.7,97.6,0.496
0.86,32344.9,35717.1,1.8349,1.7592,146.7,97.6,0.496
0.88,32313.3,35693.4,1.667,1.7011,146.7,97.6,0.496
0.9,32225.9,35632.1,1.2018,1.5506,146.7,97.6,0.496
0.92,32214.2,35339.6,1.1395,0.832,146.7,97.6,0.496
0.94,32035.4,35157.9,0.188,0.3856,146.7,97.6,0.496
0.96,32135.9,35175.0,0.7225,0.4276,146.7,97.6,0.496
0.98,32088.7,35016.2,0.4712,0.0376,146.7,97.6,0.496
1.0,32091.8,34921.0,0.488,-0.1963,146.7,97.6,0.496
1.02,31979.7,34930.1,-0.1085,-0.174,146.7,97.6,0.496
1.04,31932.6,34795.3,-0.3595,-0.5051,146.7,97.6,0.496
1.06,31852.7,34789.1,-0.7847,-0.5203,146.7,97.6,0.496
1.08,31890.3,34714.5,-0.5844,-0.7035,146.7,97.6,0.496
1.1,31845.7,34724.4,-0.8221,-0.6791,146.7,97.6,0.496
1.12,31844.3,34570.0,-0.8292,-1.0584,146.7,97.6,0.496
1.14,31806.4,34525.4,-1.0312,-1.1679,146.7,97.6,0.496
1.16,31725.4,34457.6,-1.462,-1.3346,146.7,97.6,0.496
1.18,31720.4,34434.7,-1.4886,-1.3909,146.7,97.6,0.496
1.2,31888.1,34665.9,-0.5961,-0.823,146.7,97.6,0.496
1.22,32116.2,35064.6,0.618,0.1566,146.7,97.6,0.496
1.24,32136.0,35447.9,0.7233,1.098,146.7,97.6,0.496
1.26,32218.9,35722.4,1.1644,1.7723,146.7,97.6,0.496
1.28,32355.1,35739.4,1.8891,1.8141,146.7,97.6,0.496
1.3,32313.9,35635.2,1.6702,1.5581,146.7,97.6,0.496
1.32,32218.3,35377.4,1.1611,0.9249,146.7,97.6,0.496
1.34,32057.6,35211.3,0.3062,0.5168,146.7,97.6,0.496
1.36,32092.1,35138.4,0.4894,0.3378,146.7,97.6,0.496
1.38,32012.2,35080.5,0.0641,0.1957,146.7,97.6,0.496
1.4,32058.0,35079.5,0.3079,0.193,146.7,97.6,0.496
1.42,32040.3,34959.2,0.2137,-0.1024,146.7,97.6,0.496
1.44,31892.9,34938.7,-0.5708,-0.1528,146.7,97.6,0.496
1.46,31927.7,34703.2,-0.3853,-0.7313,146.7,97.6,0.496
1.48,31884.6,34689.1,-0.6148,-0.766,146.7,97.6,0.496
1.5,31784.4,34743.7,-1.1482,-0.6319,146.7,97.6,0.496
1.52,31842.5,34596.9,-0.8388,-0.9925,146.7,97.6,0.496
1.54,31798.2,34564.3,-1.0748,-1.0726,146.7,97.6,0.496
1.56,31780.6,34400.6,-1.1685,-1.4746,146.7,97.6,0.496
1.58,31783.2,34376.8,-1.1545,-1.5331,146.7,97.6,0.496
1.6,31889.5,34612.0,-0.5888,-0.9554,146.7,97.6,0.496
1.62,31908.4,34882.9,-0.4884,-0.2897,146.7,97.6,0.496
1.64,32081.6,35251.8,0.4339,0.6163,146.7,97.6,0.496
1.66,32291.3,35558.1,1.55,1.3688,146.7,97.6,0.496
1.68,32330.3,35768.0,1.7576,1.8844,146.7,97.6,0.496
1.7,32256.7,35804.0,1.3657,1.9728,146.7,97.6,0.496
1.72,32171.2,35552.3,0.9104,1.3545,146.7,97.6,0.496
1.74,32192.0,35296.7,1.0212,0.7266,146.7,97.6,0.496
1.76,32022.8,35168.3,0.1207,0.4112,146.7,97.6,0.496
1.78,32027.9,35165.4,0.1479,0.4041,146.7,97.6,0.496
1.8,32119.6,35036.6,0.636,0.0877,146.7,97.6,0.496
1.82,32045.7,35006.2,0.2425,0.0132,146.7,97.6,0.496
1.84,31954.8,34877.4,-0.2414,-0.3032,146.7,97.6,0.496
1.86,31870.8,34801.2,-0.6881,-0.4905,146.7,97.6,0.496
1.88,31836.5,34705.8,-0.8707,-0.725,146.7,97.6,0.496
1.9,31821.5,34649.0,-0.9508,-0.8643,146.7,97.6,0.496
1.92,31772.9,34693.8,-1.2091,-0.7544,146.7,97.6,0.496
1.94,31839.8,34592.7,-0.8533,-1.0026,146.7,97.6,0.496
1.96,31791.7,34417.9,-1.1091,-1.432,146.7,97.6,0.496
1.98,31775.0,34523.0,-1.1982,-1.1739,146.7,97.6,0.496
2.0,31832.2,34575.6,-0.8935,-1.0446,146.7,97.6,0.496
2.02,31844.5,34784.3,-0.8281,-0.532,146.7,97.6,0.496
2.04,32059.3,35114.4,0.3149,0.2788,146.7,97.6,0.496
2.06,32137.2,35522.9,0.7293,1.2823,146.7,97.6,0.496
2.08,32322.4,35711.2,1.7151,1.7449,146.7,97.6,0.496
2.1,32398.8,35709.5,2.1221,1.7407,146.7,97.6,0.496
2.12,32343.7,35585.6,1.8287,1.4362,146.7,97.6,0.496
2.14,32268.7,35467.5,1.4297,1.1463,146.7,97.6,0.496
2.16,32200.7,35329.1,1.0675,0.8062,146.7,97.6,0.496
2.18,32146.5,35111.7,0.7793,0.2722,146.7,97.6,0.496
2.2,31969.8,35047.8,-0.1612,0.1153,146.7,97.6,0.496
2.22,32007.3,35086.1,0.0383,0.2092,146.7,97.6,0.496
2.24,31924.6,34940.3,-0.4017,-0.1488,146.7,97.6,0.496
2.26,31943.4,34728.7,-0.3019,-0.6687,146.7,97.6,0.496
2.28,31879.5,34629.7,-0.6421,-0.9117,146.7,97.6,0.496
2.3,31858.2,34648.0,-0.7554,-0.8668,146.7,97.6,0.496
2.32,31892.8,34665.1,-0.5713,-0.8249,146.7,97.6,0.496
2.34,31834.9,34564.9,-0.8793,-1.0711,146.7,97.6,0.496
2.36,31847.7,34510.1,-0.8114,-1.2057,146.7,97.6,0.496
2.38,31715.5,34484.9,-1.515,-1.2676,146.7,97.6,0.496
2.4,31737.4,34482.5,-1.3984,-1.2735,146.7,97.6,0.496
2.42,31789.2,34570.9,-1.1226,-1.0564,146.7,97.6,0.496
2.44,31899.6,34840.2,-0.5349,-0.3947,146.7,97.6,0.496
2.46,32230.5,35413.7,1.2263,1.014,146.7,97.6,0.496
2.48,32271.5,35548.5,1.4443,1.3453,146.7,97.6,0.496
2.5,32392.1,35696.8,2.086,1.7094,146.7,97.6,0.496
2.52,32339.3,35699.0,1.8051,1.7149,146.7,97.6,0.496
2.54,32245.2,35502.4,1.3046,1.2318,146.7,97.6,0.496
2.56,32124.6,35279.5,0.6623,0.6845,146.7,97.6,0.496
2.58,32178.5,35243.1,0.9496,0.595,146.7,97.6,0.496
2.6,32054.4,35032.7,0.289,0.078,146.7,97.6,0.496
2.62,32053.4,35149.1,0.2834,0.3641,146.7,97.6,0.496
2.64,31940.4,34943.6,-0.3181,-0.1407,146.7,97.6,0.496
2.66,31928.1,34837.6,-0.3832,-0.4012,146.7,97.6,0.496
2.68,31902.6,34799.7,-0.519,-0.4943,146.7,97.6,0.496
2.7,31901.1,34717.5,-0.5271,-0.6962,146.7,97.6,0.496
2.72,31804.3,34585.0,-1.0424,-1.0217,146.7,97.6,0.496
2.74,31817.0,34642.9,-0.9744,-0.8793,146.7,97.6,0.496
2.76,31901.3,34688.1,-0.526,-0.7684,146.7,97.6,0.496
2.78,31764.0,34594.6,-1.2569,-0.9981,146.7,97.6,0.496
2.8,31730.0,34598.4,-1.4375,-0.9888,146.7,97.6,0.496
2.82,31773.0,34564.6,-1.209,-1.0718,146.7,97.6,0.496
2.84,31861.5,34674.7,-0.7375,-0.8013,146.7,97.6,0.496
2.86,31983.5,35081.8,-0.0886,0.1986,146.7,97.6,0.496
2.88,32205.7,35510.0,1.0944,1.2505,146.7,97.6,0.496
2.9,32264.0,35759.8,1.4043,1.8642,146.7,97.6,0.496
2.92,32299.5,35792.1,1.5937,1.9436,146.7,97.6,0.496
2.94,32308.8,35604.0,1.6428,1.4816,146.7,97.6,0.496
2.96,32171.0,35355.8,0.9095,0.8718,146.7,97.6,0.496
2.98,32085.5,35252.4,0.4545,0.6179,146.7,97.6,0.496
3.0,32046.4,35041.5,0.2465,0.0997,146.7,97.6,0.496
3.02,32059.9,35007.8,0.3184,0.0171,146.7,97.6,0.496
3.04,32026.3,35052.1,0.1395,0.1257,146.7,97.6,0.496
3.06,31985.5,34936.7,-0.0777,-0.1577,146.7,97.6,0.496
3.08,31988.7,34871.6,-0.061,-0.3176,146.7,97.6,0.496
3.1,31853.6,34715.7,-0.78,-0.7006,146.7,97.6,0.496
3.12,31851.7,34579.6,-0.7901,-1.0349,146.7,97.6,0.496
3.14,31904.5,34677.4,-0.5091,-0.7947,146.7,97.6,0.496
3.16,31832.2,34634.9,-0.8938,-0.8989,146.7,97.6,0.496
3.18,31698.5,34568.8,-1.6055,-1.0615,146.7,97.6,0.496
3.2,31835.1,34410.3,-0.8784,-1.4509,146.7,97.6,0.496
3.22,31739.9,34437.2,-1.3849,-1.3846,146.7,97.6,0.496
3.24,31737.9,34643.5,-1.3956,-0.878,146.7,97.6,0.496
3.26,31895.9,34812.2,-0.5548,-0.4635,146.7,97.6,0.496
3.28,32163.9,35316.9,0.8717,0.7763,146.7,97.6,0.496
3.3,32379.1,35529.3,2.017,1.2981,146.7,97.6,0.496
3.32,32410.1,35781.4,2.1818,1.9174,146.7,97.6,0.496
3.34,32249.2,35741.1,1.3256,1.8182,146.7,97.6,0.496
3.36,32231.2,35535.3,1.2297,1.3127,146.7,97.6,0.496
3.38,32122.1,35437.8,0.6491,1.0733,146.7,97.6,0.496
3.4,32120.8,35104.8,0.6422,0.2553,146.7,97.6,0.496
3.42,32086.1,35133.7,0.4579,0.3263,146.7,97.6,0.496
3.44,32038.3,35035.7,0.2032,0.0854,146.7,97.6,0.496
3.46,32049.7,34966.2,0.2641,-0.0852,146.7,97.6,0.496
3.48,31914.0,34806.4,-0.4585,-0.4779,146.7,97.6,0.496
3.5,31815.1,34730.8,-0.985,-0.6635,146.7,97.6,0.496
3.52,31866.0,34742.7,-0.7139,-0.6342,146.7,97.6,0.496
3.54,31834.4,34712.0,-0.8822,-0.7096,146.7,97.6,0.496
3.56,31869.6,34685.5,-0.6947,-0.7747,146.7,97.6,0.496
3.58,31848.0,34610.8,-0.8094,-0.9583,146.7,97.6,0.496
3.6,31795.8,34505.4,-1.0875,-1.217,146.7,97.6,0.496
3.62,31748.4,34428.4,-1.3397,-1.4063,146.7,97.6,0.496
3.64,31740.8,34518.0,-1.3803,-1.1863,146.7,97.6,0.496
3.66,31890.1,34798.8,-0.5858,-0.4964,146.7,97.6,0.496
3.68,31956.8,35183.9,-0.2305,0.4495,146.7,97.6,0.496
3.7,32224.5,35512.4,1.1941,1.2564,146.7,97.6,0.496
3.72,32374.5,35739.2,1.9925,1.8137,146.7,97.6,0.496
3.74,32305.8,35701.4,1.6271,1.7208,146.7,97.6,0.496
3.76,32284.1,35647.7,1.5114,1.5887,146.7,97.6,0.496
3.78,32161.5,35411.2,0.8588,1.008,146.7,97.6,0.496
3.8,32011.1,35200.4,0.0584,0.4901,146.7,97.6,0.496
3.82,32067.0,35125.3,0.3557,0.3055,146.7,97.6,0.496
3.84,31975.0,35038.0,-0.1335,0.0911,146.7,97.6,0.496
3.86,31969.1,35027.8,-0.165,0.0662,146.7,97.6,0.496
3.88,31960.1,34952.0,-0.2132,-0.1202,146.7,97.6,0.496
3.9,31844.3,34814.5,-0.8292,-0.458,146.7,97.6,0.496
3.92,31934.3,34772.5,-0.3502,-0.5611,146.7,97.6,0.496
3.94,31856.2,34610.8,-0.7661,-0.9582,146.7,97.6,0.496
3.96,31887.2,34625.2,-0.6011,-0.923,146.7,97.6,0.496
3.98,31861.8,34714.9,-0.7361,-0.7026,146.7,97.6,0.496
4.0,31786.1,34536.7,-1.1391,-1.1404,146.7,97.6,0.496
4.02,31777.4,34392.3,-1.1855,-1.495,146.7,97.6,0.496
4.04,31791.0,34456.0,-1.1128,-1.3385,146.7,97.6,0.496
4.06,31833.2,34621.0,-0.8884,-0.9332,146.7,97.6,0.496
4.08,31993.5,35010.5,-0.0355,0.0237,146.7,97.6,0.496
4.1,32227.2,35355.6,1.2087,0.8713,146.7,97.6,0.496
4.12,32306.2,35619.6,1.629,1.5199,146.7,97.6,0.496
4.14,32365.1,35796.3,1.9426,1.9538,146.7,97.6,0.496
4.16,32323.6,35698.1,1.7214,1.7126,146.7,97.6,0.496
4.18,32255.5,35459.3,1.3593,1.1261,146.7,97.6,0.496
4.2,32092.1,35340.9,0.4897,0.8351,146.7,97.6,0.496
4.22,32059.6,35128.1,0.3165,0.3124,146.7,97.6,0.496
4.24,32066.2,35108.5,0.3518,0.2643,146.7,97.6,0.496
4.26,31894.5,35043.6,-0.5619,0.105,146.7,97.6,0.496
4.28,31989.0,34978.6,-0.0593,-0.0547,146.7,97.6,0.496
4.3,31981.1,34860.9,-0.101,-0.3438,146.7,97.6,0.496
4.32,31918.9,34792.5,-0.4321,-0.512,146.7,97.6,0.496
4.34,31932.3,34610.6,-0.361,-0.9587,146.7,97.6,0.496
4.36,31882.6,34672.5,-0.6254,-0.8067,146.7,97.6,0.496
4.38,31851.5,34711.8,-0.791,-0.7101,146.7,97.6,0.496
4.4,31837.5,34649.9,-0.8657,-0.8623,146.7,97.6,0.496
4.42,31774.9,34469.1,-1.1988,-1.3064,146.7,97.6,0.496
4.44,31719.9,34468.1,-1.4912,-1.3087,146.7,97.6,0.496
4.46,31719.4,34467.1,-1.4942,-1.3113,146.7,97.6,0.496
4.48,31962.8,34791.7,-0.1984,-0.5139,146.7,97.6,0.496
4.5,31992.0,35172.0,-0.0432,0.4204,146.7,97.6,0.496
4.52,32261.6,35428.3,1.3916,1.0498,146.7,97.6,0.496
4.54,32337.9,35760.1,1.7978,1.865,146.7,97.6,0.496
4.56,32307.2,35720.9,1.6343,1.7687,146.7,97.6,0.496
4.58,32072.3,35529.7,0.3842,1.299,146.7,97.6,0.496
4.6,32163.2,35400.7,0.8682,0.982,146.7,97.6,0.496
4.62,32043.1,35276.5,0.2288,0.677,146.7,97.6,0.496
4.64,32093.5,35205.3,0.4971,0.5022,146.7,97.6,0.496
4.66,32016.3,35143.8,0.0862,0.3511,146.7,97.6,0.496
4.68,32024.3,35149.1,0.1286,0.3641,146.7,97.6,0.496
4.7,31868.1,34864.0,-0.7025,-0.3362,146.7,97.6,0.496
4.72,31860.9,34747.6,-0.7408,-0.6221,146.7,97.6,0.496
4.74,31954.5,34643.1,-0.2428,-0.879,146.7,97.6,0.496
4.76,31869.8,34671.8,-0.6938,-0.8085,146.7,97.6,0.496
4.78,31820.2,34598.9,-0.9578,-0.9874,146.7,97.6,0.496
4.8,31829.5,34554.2,-0.9082,-1.0972,146.7,97.6,0.496
4.82,31830.9,34521.3,-0.9007,-1.1782,146.7,97.6,0.496
4.84,31779.4,34414.8,-1.1748,-1.4398,146.7,97.6,0.496
4.86,31704.0,34571.0,-1.5762,-1.056,146.7,97.6,0.496
4.88,31860.8,34588.6,-0.7417,-1.0127,146.7,97.6,0.496
4.9,32016.6,35018.4,0.0875,0.0431,146.7,97.6,0.496
4.92,32139.8,35352.8,0.7433,0.8644,146.7,97.6,0.496
4.94,32364.9,35633.2,1.9417,1.5532,146.7,97.6,0.496
4.96,32320.7,35775.6,1.7063,1.9031,146.7,97.6,0.496
4.98,32433.8,35689.6,2.3084,1.6917,146.7,97.6,0.496
5.0,32240.7,35454.0,1.2806,1.1129,146.7,97.6,0.496
5.02,32189.5,35250.8,1.0081,0.614,146.7,97.6,0.496
5.04,32084.1,35179.5,0.447,0.4386,146.7,97.6,0.496
5.06,32155.8,35059.2,0.8288,0.1431,146.7,97.6,0.496
5.08,32104.5,35071.1,0.5553,0.1724,146.7,97.6,0.496
5.1,31991.8,34838.9,-0.0443,-0.3978,146.7,97.6,0.496
5.12,31941.2,34971.4,-0.3134,-0.0725,146.7,97.6,0.496
5.14,31833.3,34719.7,-0.8881,-0.6908,146.7,97.6,0.496
5.16,31863.5,34678.6,-0.7273,-0.7917,146.7,97.6,0.496
5.18,31839.5,34694.5,-0.855,-0.7527,146.7,97.6,0.496
5.2,31817.7,34662.8,-0.9707,-0.8305,146.7,97.6,0.496
5.22,31833.7,34562.0,-0.886,-1.0782,146.7,97.6,0.496
5.24,31758.2,34474.1,-1.2873,-1.294,146.7,97.6,0.496
5.26,31718.7,34468.7,-1.4976,-1.3073,146.7,97.6,0.496
5.28,31790.7,34553.7,-1.1145,-1.0986,146.7,97.6,0.496
5.3,31908.4,34866.2,-0.4884,-0.3309,146.7,97.6,0.496
5.32,32069.7,35072.5,0.3704,0.1758,146.7,97.6,0.496
5.34,32200.1,35592.8,1.0646,1.4541,146.7,97.6,0.496
5.36,32328.3,35665.6,1.7467,1.6327,146.7,97.6,0.496
5.38,32346.0,35680.0,1.841,1.6682,146.7,97.6,0.496
5.4,32190.9,35596.6,1.0152,1.4632,146.7,97.6,0.496
5.42,32092.1,35334.0,0.4897,0.8183,146.7,97.6,0.496
5.44,32148.6,35186.0,0.7905,0.4547,146.7,97.6,0.496
5.46,31972.7,35108.4,-0.1458,0.2642,146.7,97.6,0.496
5.48,32006.9,35127.2,0.036,0.3102,146.7,97.6,0.496
5.5,32002.5,35007.8,0.0128,0.0169,146.7,97.6,0.496
5.52,31921.6,34782.0,-0.4177,-0.5376,146.7,97.6,0.496
5.54,31899.3,34722.8,-0.5365,-0.6831,146.7,97.6,0.496
5.56,31900.2,34720.7,-0.5318,-0.6883,146.7,97.6,0.496
5.58,31881.1,34661.7,-0.6334,-0.8331,146.7,97.6,0.496
5.6,31903.1,34620.6,-0.5165,-0.9341,146.7,97.6,0.496
5.62,31872.2,34566.7,-0.681,-1.0666,146.7,97.6,0.496
5.64,31795.1,34507.5,-1.0911,-1.212,146.7,97.6,0.496
5.66,31817.3,34395.2,-0.9732,-1.4878,146.7,97.6,0.496
5.68,31801.5,34463.7,-1.0574,-1.3197,146.7,97.6,0.496
5.7,31926.5,34715.1,-0.3918,-0.702,146.7,97.6,0.496
5.72,31998.9,34935.2,-0.0067,-0.1615,146.7,97.6,0.496
5.74,32267.9,35368.3,1.425,0.9024,146.7,97.6,0.496
5.76,32316.2,35649.3,1.6825,1.5928,146.7,97.6,0.496
5.78,32358.5,35752.5,1.9072,1.8463,146.7,97.6,0.496
5.8,32277.3,35633.7,1.4753,1.5544,146.7,97.6,0.496
5.82,32209.7,35385.7,1.1153,0.9452,146.7,97.6,0.496
5.84,32094.5,35249.5,0.5024,0.6107,146.7,97.6,0.496
5.86,32016.2,35159.9,0.0857,0.3905,146.7,97.6,0.496
5.88,32097.0,35064.0,0.5155,0.1549,146.7,97.6,0.496
5.9,32037.5,35103.6,0.1991,0.2524,146.7,97.6,0.496
5.92,31965.9,34857.1,-0.182,-0.3531,146.7,97.6,0.496
5.94,31838.4,34795.3,-0.8608,-0.5049,146.7,97.6,0.496
5.96,31923.2,34724.8,-0.4095,-0.6783,146.7,97.6,0.496
5.98,31874.0,34754.3,-0.6711,-0.6059,146.7,97.6,0.496
6.0,31903.7,34630.2,-0.5134,-0.9105,146.7,97.6,0.496
6.02,31881.2,34706.8,-0.6328,-0.7224,146.7,97.6,0.496
6.04,31820.7,34582.2,-0.9548,-1.0284,146.7,97.6,0.496
6.06,31743.0,34438.0,-1.3683,-1.3826,146.7,97.6,0.496
6.08,31796.8,34442.3,-1.082,-1.3722,146.7,97.6,0.496
6.1,31804.6,34591.5,-1.0407,-1.0057,146.7,97.6,0.496
6.12,31927.0,34831.2,-0.3889,-0.4167,146.7,97.6,0.496
6.14,32179.6,35203.3,0.9555,0.4972,146.7,97.6,0.496
6.16,32353.2,35521.2,1.8793,1.2782,146.7,97.6,0.496
6.18,32391.4,35759.0,2.0827,1.8623,146.7,97.6,0.496
6.2,32300.7,35705.6,1.5998,1.7311,146.7,97.6,0.496
6.22,32225.6,35514.2,1.2003,1.261,146.7,97.6,0.496
6.24,32217.5,35364.7,1.1571,0.8936,146.7,97.6,0.496
6.26,32145.3,35285.2,0.7728,0.6983,146.7,97.6,0.496
6.28,32116.1,35103.9,0.6172,0.2529,146.7,97.6,0.496
6.3,32045.0,35045.7,0.2391,0.1101,146.7,97.6,0.496
6.32,31966.3,34992.8,-0.1801,-0.02,146.7,97.6,0.496
6.34,32012.0,34775.5,0.063,-0.5536,146.7,97.6,0.496
6.36,31891.7,34752.3,-0.5769,-0.6107,146.7,97.6,0.496
6.38,31879.8,34730.0,-0.6403,-0.6653,146.7,97.6,0.496
6.4,31823.8,34672.2,-0.9383,-0.8073,146.7,97.6,0.496
6.42,31776.7,34588.6,-1.1891,-1.0128,146.7,97.6,0.496
6.44,31854.8,34592.3,-0.7733,-1.0036,146.7,97.6,0.496
6.46,31770.6,34599.5,-1.2217,-0.986,146.7,97.6,0.496
6.48,31681.2,34530.5,-1.6973,-1.1554,146.7,97.6,0.496
6.5,31819.0,34511.3,-0.9639,-1.2028,146.7,97.6,0.496
6.52,31834.5,34688.2,-0.8815,-0.7682,146.7,97.6,0.496
6.54,31982.8,35162.9,-0.092,0.3978,146.7,97.6,0.496
6.56,32142.2,35375.4,0.756,0.9199,146.7,97.6,0.496
6.58,32349.6,35705.1,1.8598,1.7298,146.7,97.6,0.496
6.6,32369.6,35806.8,1.9663,1.9796,146.7,97.6,0.496
6.62,32255.5,35634.2,1.3594,1.5558,146.7,97.6,0.496
6.64,32122.6,35422.0,0.652,1.0343,146.7,97.6,0.496
6.66,32073.8,35186.6,0.3921,0.4563,146.7,97.6,0.496
6.68,32019.2,35099.1,0.1017,0.2413,146.7,97.6,0.496
6.7,32074.6,35091.0,0.3964,0.2214,146.7,97.6,0.496
6.72,32075.0,35070.6,0.3987,0.1711,146.7,97.6,0.496
6.74,32035.2,35078.7,0.1866,0.1912,146.7,97.6,0.496
6.76,31840.9,34847.2,-0.8474,-0.3776,146.7,97.6,0.496
6.78,31818.7,34748.6,-0.9657,-0.6197,146.7,97.6,0.496
6.8,31785.2,34693.9,-1.1436,-0.754,146.7,97.6,0.496
6.82,31848.3,34652.9,-0.8082,-0.8547,146.7,97.6,0.496
6.84,31937.2,34543.6,-0.3351,-1.1232,146.7,97.6,0.496
6.86,31780.6,34530.9,-1.1683,-1.1545,146.7,97.6,0.496
6.88,31819.2,34416.3,-0.9628,-1.4361,146.7,97.6,0.496
6.9,31748.3,34459.8,-1.34,-1.3292,146.7,97.6,0.496
6.92,31781.1,34597.1,-1.1659,-0.9919,146.7,97.6,0.496
6.94,31970.2,34956.4,-0.1594,-0.1093,146.7,97.6,0.496
6.96,32156.2,35313.4,0.8305,0.7677,146.7,97.6,0.496
6.98,32222.5,35583.4,1.1836,1.431,146.7,97.6,0.496
7.0,32379.7,35893.3,2.0204,2.1922,146.7,97.6,0.496
7.02,32269.7,35742.3,1.4349,1.8213,146.7,97.6,0.496
7.04,32162.4,35568.6,0.8638,1.3944,146.7,97.6,0.496
7.06,32120.6,35359.0,0.6412,0.8796,146.7,97.6,0.496
7.08,31981.5,35203.9,-0.099,0.4987,146.7,97.6,0.496
7.1,32032.5,35111.1,0.1724,0.2706,146.7,97.6,0.496
7.12,32066.6,35170.2,0.3541,0.416,146.7,97.6,0.496
7.14,31986.9,35019.6,-0.0702,0.0459,146.7,97.6,0.496
7.16,31950.0,34896.6,-0.2666,-0.2563,146.7,97.6,0.496
7.18,31962.8,34751.4,-0.1989,-0.613,146.7,97.6,0.496
7.2,31820.0,34608.6,-0.9588,-0.9638,146.7,97.6,0.496
7.22,31835.7,34641.0,-0.8749,-0.8841,146.7,97.6,0.496
7.24,31888.8,34685.4,-0.5926,-0.7751,146.7,97.6,0.496
7.26,31834.4,34558.2,-0.8822,-1.0875,146.7,97.6,0.496
7.28,31745.6,34544.1,-1.3548,-1.1221,146.7,97.6,0.496
7.3,31748.5,34480.2,-1.339,-1.2791,146.7,97.6,0.496
7.32,31739.6,34548.1,-1.3868,-1.1124,146.7,97.6,0.496
7.34,31906.3,34787.6,-0.4992,-0.5239,146.7,97.6,0.496
7.36,32042.3,35128.5,0.2244,0.3135,146.7,97.6,0.496
7.38,32224.2,35508.0,1.1925,1.2457,146.7,97.6,0.496
7.4,32374.0,35716.1,1.9899,1.7569,146.7,97.6,0.496
7.42,32372.9,35667.7,1.9841,1.6379,146.7,97.6,0.496
7.44,32277.7,35607.7,1.4775,1.4906,146.7,97.6,0.496
7.46,32164.3,35379.9,0.8739,0.9309,146.7,97.6,0.496
7.48,32029.0,35185.5,0.1536,0.4534,146.7,97.6,0.496
7.5,32020.1,35138.1,0.1063,0.3371,146.7,97.6,0.496
7.52,32070.5,35062.9,0.3748,0.1522,146.7,97.6,0.496
7.54,32016.2,35048.4,0.0856,0.1167,146.7,97.6,0.496
7.56,31988.5,34946.3,-0.0616,-0.1341,146.7,97.6,0.496
7.58,31939.7,34872.5,-0.3215,-0.3154,146.7,97.6,0.496
7.6,31924.0,34754.7,-0.4051,-0.6047,146.7,97.6,0.496
7.62,31802.4,34667.4,-1.0524,-0.8193,146.7,97.6,0.496
7.64,31836.4,34648.3,-0.8716,-0.8661,146.7,97.6,0.496
7.66,31869.6,34671.5,-0.6947,-0.8091,146.7,97.6,0.496
7.68,31681.6,34571.7,-1.6954,-1.0543,146.7,97.6,0.496
7.7,31752.4,34405.7,-1.3187,-1.4621,146.7,97.6,0.496
7.72,31736.6,34480.9,-1.4025,-1.2774,146.7,97.6,0.496
7.74,31764.5,34631.5,-1.2542,-0.9073,146.7,97.6,0.496
7.76,31956.8,35016.1,-0.2306,0.0373,146.7,97.6,0.496
7.78,32248.9,35329.4,1.3239,0.807,146.7,97.6,0.496
7.8,32258.3,35650.0,1.3741,1.5945,146.7,97.6,0.496
7.82,32470.4,35843.2,2.5028,2.0692,146.7,97.6,0.496
7.84,32330.2,35729.0,1.7567,1.7885,146.7,97.6,0.496
7.86,32222.2,35543.5,1.1822,1.3328,146.7,97.6,0.496
7.88,32212.4,35382.0,1.1296,0.9361,146.7,97.6,0.496
7.9,32054.7,35220.6,0.2907,0.5398,146.7,97.6,0.496
7.92,32034.5,35084.0,0.1827,0.204,146.7,97.6,0.496
7.94,31997.7,35032.7,-0.0127,0.0781,146.7,97.6,0.496
7.96,31955.9,35018.5,-0.2355,0.0432,146.7,97.6,0.496
7.98,31929.8,34806.6,-0.3743,-0.4772,146.7,97.6,0.496
8.0,31903.4,34728.9,-0.5146,-0.6682,146.7,97.6,0.496
8.02,31820.0,34725.3,-0.9586,-0.677,146.7,97.6,0.496
8.04,31808.0,34612.6,-1.0225,-0.9538,146.7,97.6,0.496
8.06,31854.2,34580.1,-0.7765,-1.0337,146.7,97.6,0.496
8.08,31870.7,34641.5,-0.6887,-0.8828,146.7,97.6,0.496
8.1,31753.7,34520.4,-1.3116,-1.1804,146.7,97.6,0.496
8.12,31727.1,34407.9,-1.4532,-1.4566,146.7,97.6,0.496
8.14,31782.5,34445.6,-1.1584,-1.364,146.7,97.6,0.496
8.16,31830.3,34728.3,-0.9036,-0.6697,146.7,97.6,0.496
8.18,32013.1,35078.5,0.0691,0.1905,146.7,97.6,0.496
8.2,32203.8,35360.2,1.0839,0.8827,146.7,97.6,0.496
8.22,32322.2,35711.1,1.7142,1.7447,146.7,97.6,0.496
8.24,32368.6,35650.1,1.961,1.5947,146.7,97.6,0.496
8.26,32218.2,35664.9,1.1609,1.6311,146.7,97.6,0.496
8.28,32106.1,35350.1,0.5638,0.8578,146.7,97.6,0.496
8.3,31953.7,35184.8,-0.247,0.4517,146.7,97.6,0.496
8.32,32103.5,35175.2,0.5502,0.4282,146.7,97.6,0.496
8.34,31946.3,35064.9,-0.2863,0.1573,146.7,97.6,0.496
8.36,32028.3,34932.8,0.1502,-0.1673,146.7,97.6,0.496
8.38,31959.2,34965.6,-0.2179,-0.0867,146.7,97.6,0.496
8.4,31955.3,34823.6,-0.2386,-0.4355,146.7,97.6,0.496
8.42,31920.9,34665.5,-0.4218,-0.8238,146.7,97.6,0.496
8.44,31900.7,34627.0,-0.5289,-0.9185,146.7,97.6,0.496
8.46,31898.0,34688.3,-0.5433,-0.7678,146.7,97.6,0.496
8.48,31762.0,34658.3,-1.2673,-0.8416,146.7,97.6,0.496
8.5,31736.6,34506.0,-1.4026,-1.2158,146.7,97.6,0.496
8.52,31763.6,34455.0,-1.259,-1.341,146.7,97.6,0.496
8.54,31788.9,34519.7,-1.1242,-1.182,146.7,97.6,0.496
8.56,31818.8,34606.7,-0.9652,-0.9684,146.7,97.6,0.496
8.58,31942.9,35048.4,-0.3045,0.1168,146.7,97.6,0.496
8.6,32119.7,35293.6,0.6367,0.719,146.7,97.6,0.496
8.62,32223.0,35639.7,1.1865,1.5693,146.7,97.6,0.496
8.64,32280.5,35756.0,1.4924,1.8548,146.7,97.6,0.496
8.66,32267.3,35652.8,1.4221,1.6014,146.7,97.6,0.496
8.68,32180.0,35499.8,0.9574,1.2255,146.7,97.6,0.496
8.7,32075.4,35222.7,0.4008,0.5449,146.7,97.6,0.496
8.72,32090.7,35169.4,0.4821,0.4139,146.7,97.6,0.496
8.74,32144.5,35112.7,0.7683,0.2746,146.7,97.6,0.496
8.76,32003.1,35081.9,0.0159,0.199,146.7,97.6,0.496
8.78,32067.5,34962.4,0.3586,-0.0945,146.7,97.6,0.496
8.8,31950.3,34858.5,-0.2653,-0.3498,146.7,97.6,0.496
8.82,31853.1,34715.6,-0.7824,-0.7007,146.7,97.6,0.496
8.84,31890.2,34714.5,-0.5852,-0.7036,146.7,97.6,0.496
8.86,31865.0,34732.2,-0.7194,-0.66,146.7,97.6,0.496
8.88,31932.0,34566.0,-0.3627,-1.0684,146.7,97.6,0.496
8.9,31858.7,34567.5,-0.7524,-1.0646,146.7,97.6,0.496
8.92,31737.4,34521.9,-1.3985,-1.1767,146.7,97.6,0.496
8.94,31677.6,34456.2,-1.7164,-1.3379,146.7,97.6,0.496
8.96,31770.4,34483.8,-1.2228,-1.2702,146.7,97.6,0.496
8.98,31872.7,34751.0,-0.6783,-0.6139,146.7,97.6,0.496
9.0,32077.7,35202.2,0.4131,0.4944,146.7,97.6,0.496
9.02,32264.7,35472.7,1.408,1.159,146.7,97.6,0.496
9.04,32343.4,35711.4,1.8269,1.7454,146.7,97.6,0.496
9.06,32309.7,35712.3,1.6478,1.7474,146.7,97.6,0.496
9.08,32294.6,35480.0,1.5675,1.1768,146.7,97.6,0.496
9.1,32130.3,35496.4,0.6926,1.2171,146.7,97.6,0.496
9.12,32103.8,35231.5,0.552,0.5666,146.7,97.6,0.496
9.14,32090.4,35097.1,0.4806,0.2363,146.7,97.6,0.496
9.16,32027.1,35054.9,0.1438,0.1326,146.7,97.6,0.496
9.18,32050.1,35081.2,0.2658,0.1973,146.7,97.6,0.496
9.2,31951.7,34820.2,-0.2576,-0.4439,146.7,97.6,0.496
9.22,31897.2,34781.6,-0.5476,-0.5386,146.7,97.6,0.496
9.24,31907.9,34697.3,-0.4909,-0.7457,146.7,97.6,0.496
9.26,31872.5,34681.0,-0.6792,-0.7858,146.7,97.6,0.496
9.28,31863.8,34574.8,-0.7256,-1.0466,146.7,97.6,0.496
9.3,31829.9,34704.0,-0.9062,-0.7294,146.7,97.6,0.496
9.32,31728.7,34518.1,-1.4446,-1.1861,146.7,97.6,0.496
9.34,31738.0,34458.9,-1.3952,-1.3313,146.7,97.6,0.496
9.36,31790.4,34427.2,-1.1161,-1.4091,146.7,97.6,0.496
9.38,31919.7,34717.4,-0.4283,-0.6964,146.7,97.6,0.496
9.4,32030.8,35003.7,0.1632,0.0068,146.7,97.6,0.496
9.42,32198.7,35389.4,1.0568,0.9543,146.7,97.6,0.496
9.44,32381.5,35706.9,2.0297,1.7342,146.7,97.6,0.496
9.46,32371.3,35726.3,1.9755,1.7819,146.7,97.6,0.496
9.48,32327.5,35615.2,1.7426,1.5089,146.7,97.6,0.496
9.5,32228.7,35489.8,1.2164,1.2009,146.7,97.6,0.496
9.52,32076.0,35282.7,0.4038,0.6923,146.7,97.6,0.496
9.54,32016.4,35137.7,0.0867,0.3362,146.7,97.6,0.496
9.56,31998.5,35084.1,-0.0088,0.2044,146.7,97.6,0.496
9.58,31990.8,34998.8,-0.0495,-0.0052,146.7,97.6,0.496
9.6,32002.4,34880.5,0.0123,-0.2957,146.7,97.6,0.496
9.62,31890.3,34715.0,-0.5846,-0.7023,146.7,97.6,0.496
9.64,31838.1,34714.7,-0.8621,-0.7031,146.7,97.6,0.496
9.66,31850.0,34728.2,-0.7987,-0.6699,146.7,97.6,0.496
9.68,31868.1,34759.0,-0.7029,-0.5942,146.7,97.6,0.496
9.7,31909.5,34653.0,-0.4825,-0.8545,146.7,97.6,0.496
9.72,31839.0,34590.0,-0.8575,-1.0092,146.7,97.6,0.496
9.74,31779.6,34534.2,-1.1737,-1.1463,146.7,97.6,0.496
9.76,31731.1,34390.6,-1.4316,-1.499,146.7,97.6,0.496
9.78,31802.1,34565.4,-1.054,-1.0697,146.7,97.6,0.496
9.8,31937.4,34885.2,-0.3335,-0.2842,146.7,97.6,0.496
9.82,32086.1,35221.6,0.4574,0.5422,146.7,97.6,0.496
9.84,32144.9,35568.5,0.7706,1.3943,146.7,97.6,0.496
9.86,32364.6,35777.8,1.9397,1.9083,146.7,97.6,0.496
9.88,32372.7,35835.8,1.9829,2.0508,146.7,97.6,0.496
9.9,32121.3,35642.5,0.6448,1.5762,146.7,97.6,0.496
9.92,32192.2,35332.7,1.0222,0.815,146.7,97.6,0.496
9.94,32131.8,35195.7,0.7009,0.4785,146.7,97.6,0.496
9.96,32145.1,35150.2,0.7715,0.3667,146.7,97.6,0.496
9.98,32022.1,35168.0,0.1168,0.4104,146.7,97.6,0.496
10.0,32073.8,35018.6,0.3922,0.0435,146.7,97.6,0.496
10.02,31930.4,34828.2,-0.3711,-0.4243,146.7,97.6,0.496
10.04,31902.7,34796.9,-0.5183,-0.5012,146.7,97.6,0.496
10.06,31884.8,34718.7,-0.6137,-0.6932,146.7,97.6,0.496
10.08,31806.7,34684.6,-1.0296,-0.7769,146.7,97.6,0.496
10.1,31747.1,34576.1,-1.3464,-1.0434,146.7,97.6,0.496
10.12,31794.9,34656.8,-1.0921,-0.8451,146.7,97.6,0.496
10.14,31775.0,34629.2,-1.198,-0.9129,146.7,97.6,0.496
10.16,31628.6,34399.5,-1.9771,-1.4774,146.7,97.6,0.496
10.18,31789.2,34400.2,-1.1225,-1.4757,146.7,97.6,0.496
10.2,31972.2,34614.8,-0.1484,-0.9484,146.7,97.6,0.496
10.22,31982.7,34970.9,-0.0926,-0.0737,146.7,97.6,0.496
10.24,32162.0,35374.7,0.8615,0.9181,146.7,97.6,0.496
10.26,32381.4,35609.0,2.0295,1.4938,146.7,97.6,0.496
10.28,32363.1,35799.5,1.932,1.9616,146.7,97.6,0.496
10.3,32299.2,35599.3,1.5919,1.4699,146.7,97.6,0.496
10.32,32110.7,35434.7,0.5883,1.0656,146.7,97.6,0.496
10.34,32130.7,35276.0,0.6952,0.6759,146.7,97.6,0.496
10.36,32026.1,35190.7,0.1382,0.4662,146.7,97.6,0.496
10.38,32053.6,35028.0,0.2846,0.0665,146.7,97.6,0.496
10.4,32028.3,35027.3,0.1498,0.0648,146.7,97.6,0.496
10.42,31982.0,34972.1,-0.0962,-0.0708,146.7,97.6,0.496
10.44,31834.0,34838.8,-0.8844,-0.3981,146.7,97.6,0.496
10.46,31906.1,34791.5,-0.5005,-0.5143,146.7,97.6,0.496
10.48,31842.7,34628.4,-0.838,-0.915,146.7,97.6,0.496
10.5,31908.4,34784.5,-0.4883,-0.5317,146.7,97.6,0.496
10.52,31895.6,34612.2,-0.5565,-0.9548,146.7,97.6,0.496
10.54,31789.8,34532.1,-1.1193,-1.1516,146.7,97.6,0.496
10.56,31715.7,34454.7,-1.5139,-1.3418,146.7,97.6,0.496
10.58,31754.8,34503.6,-1.3059,-1.2216,146.7,97.6,0.496
10.6,31736.9,34485.0,-1.4007,-1.2674,146.7,97.6,0.496
10.62,31992.3,34910.6,-0.0419,-0.2219,146.7,97.6,0.496
10.64,32072.1,35236.8,0.3832,0.5795,146.7,97.6,0.496
10.66,32348.5,35571.2,1.8544,1.4009,146.7,97.6,0.496
10.68,32426.9,35734.2,2.2713,1.8013,146.7,97.6,0.496
10.7,32334.2,35617.8,1.7781,1.5154,146.7,97.6,0.496
10.72,32300.9,35560.9,1.6008,1.3755,146.7,97.6,0.496
10.74,32170.9,35374.9,0.9088,0.9187,146.7,97.6,0.496
10.76,32087.8,35162.0,0.4665,0.3958,146.7,97.6,0.496
10.78,32129.4,35080.2,0.6881,0.1949,146.7,97.6,0.496
10.8,32056.4,35061.7,0.2997,0.1494,146.7,97.6,0.496
10.82,31950.5,34996.5,-0.2639,-0.0108,146.7,97.6,0.496
10.84,31952.8,34825.9,-0.2517,-0.43,146.7,97.6,0.496
10.86,31838.5,34721.5,-0.8602,-0.6864,146.7,97.6,0.496
10.88,31891.2,34694.8,-0.5797,-0.7518,146.7,97.6,0.496
10.9,31860.1,34620.5,-0.7453,-0.9344,146.7,97.6,0.496
10.92,31779.0,34614.2,-1.1767,-0.9499,146.7,97.6,0.496
10.94,31794.4,34592.6,-1.0947,-1.003,146.7,97.6,0.496
10.96,31713.6,34549.8,-1.5252,-1.1082,146.7,97.6,0.496
10.98,31737.8,34497.7,-1.396,-1.2361,146.7,97.6,0.496
11.0,31862.4,34572.1,-0.7329,-1.0532,146.7,97.6,0.496
11.02,31845.4,34742.8,-0.8236,-0.6341,146.7,97.6,0.496
11.04,32024.3,35068.6,0.1285,0.1663,146.7,97.6,0.496
11.06,32254.2,35466.0,1.3525,1.1424,146.7,97.6,0.496
11.08,32311.8,35630.4,1.6587,1.5463,146.7,97.6,0.496
11.1,32254.3,35818.3,1.353,2.008,146.7,97.6,0.496
11.12,32265.3,35591.6,1.4115,1.4511,146.7,97.6,0.496
11.14,32244.9,35453.0,1.3028,1.1105,146.7,97.6,0.496
11.16,32125.6,35232.3,0.6679,0.5684,146.7,97.6,0.496
11.18,32100.0,35204.2,0.5316,0.4994,146.7,97.6,0.496
11.2,32029.3,35182.1,0.1552,0.4451,146.7,97.6,0.496
11.22,32091.9,35029.6,0.4882,0.0705,146.7,97.6,0.496
11.24,31903.5,34978.6,-0.5144,-0.0547,146.7,97.6,0.496
11.26,31958.9,34876.0,-0.2196,-0.3069,146.7,97.6,0.496
11.28,31905.2,34768.4,-0.5052,-0.5712,146.7,97.6,0.496
11.3,31873.3,34596.5,-0.6749,-0.9934,146.7,97.6,0.496
11.32,31940.9,34722.2,-0.315,-0.6846,146.7,97.6,0.496
11.34,31729.1,34711.3,-1.4426,-0.7114,146.7,97.6,0.496
11.36,31811.9,34568.3,-1.0019,-1.0627,146.7,97.6,0.496
11.38,31803.8,34462.8,-1.0447,-1.3217,146.7,97.6,0.496
11.4,31700.2,34453.1,-1.5963,-1.3455,146.7,97.6,0.496
11.42,31835.3,34614.1,-0.8773,-0.9501,146.7,97.6,0.496
11.44,31845.7,34855.7,-0.8217,-0.3567,146.7,97.6,0.496
11.46,32134.2,35348.0,0.7134,0.8525,146.7,97.6,0.496
11.48,32246.6,35605.5,1.3116,1.4852,146.7,97.6,0.496
11.5,32336.4,35715.6,1.7897,1.7557,146.7,97.6,0.496
11.52,32331.7,35710.4,1.7645,1.7428,146.7,97.6,0.496
11.54,32251.1,35542.6,1.3356,1.3307,146.7,97.6,0.496
11.56,32144.7,35310.1,0.7697,0.7596,146.7,97.6,0.496
11.58,32016.8,35208.1,0.089,0.509,146.7,97.6,0.496
11.6,32037.9,35047.1,0.2013,0.1136,146.7,97.6,0.496
11.62,32090.3,35108.7,0.4802,0.2649,146.7,97.6,0.496
11.64,31991.2,34914.4,-0.0473,-0.2125,146.7,97.6,0.496
11.66,31918.7,34867.1,-0.4334,-0.3287,146.7,97.6,0.496
11.68,31765.9,34812.7,-1.2464,-0.4623,146.7,97.6,0.496
11.7,31900.1,34710.5,-0.5323,-0.7134,146.7,97.6,0.496
11.72,31874.6,34616.4,-0.668,-0.9446,146.7,97.6,0.496
11.74,31914.2,34569.4,-0.4573,-1.06,146.7,97.6,0.496
11.76,31814.1,34570.2,-0.9902,-1.0579,146.7,97.6,0.496
11.78,31778.3,34513.6,-1.1805,-1.1969,146.7,97.6,0.496
11.8,31742.8,34345.9,-1.3694,-1.609,146.7,97.6,0.496
11.82,31781.4,34562.9,-1.1644,-1.0758,146.7,97.6,0.496
11.84,31881.0,34723.3,-0.6338,-0.682,146.7,97.6,0.496
11.86,31962.9,35044.4,-0.1981,0.1068,146.7,97.6,0.496
11.88,32222.4,35412.3,1.1829,1.0106,146.7,97.6,0.496
11.9,32296.7,35632.9,1.5786,1.5525,146.7,97.6,0.496
11.92,32432.0,35794.9,2.2987,1.9505,146.7,97.6,0.496
11.94,32334.7,35656.0,1.781,1.6092,146.7,97.6,0.496
11.96,32197.4,35376.0,1.0502,0.9215,146.7,97.6,0.496
11.98,32057.6,35280.1,0.306,0.6858,146.7,97.6,0.496
12.0,32036.1,35157.9,0.1916,0.3856,146.7,97.6,0.496
12.02,31954.0,35013.8,-0.2456,0.0318,146.7,97.6,0.496
12.04,32022.0,35014.8,0.1167,0.0342,146.7,97.6,0.496
12.06,31936.8,34915.6,-0.337,-0.2095,146.7,97.6,0.496
12.08,32007.6,34773.6,0.0396,-0.5583,146.7,97.6,0.496
12.1,31873.2,34798.6,-0.6756,-0.4969,146.7,97.6,0.496
12.12,31867.3,34664.5,-0.707,-0.8264,146.7,97.6,0.496
12.14,31826.6,34611.7,-0.9234,-0.956,146.7,97.6,0.496
12.16,31806.4,34616.9,-1.0312,-0.9433,146.7,97.6,0.496
12.18,31731.9,34534.5,-1.4275,-1.1457,146.7,97.6,0.496
12.2,31833.8,34493.7,-0.8851,-1.2459,146.7,97.6,0.496
12.22,31737.5,34425.5,-1.3977,-1.4135,146.7,97.6,0.496
12.24,31857.4,34666.2,-0.7596,-0.8223,146.7,97.6,0.496
12.26,32019.8,34934.4,0.1049,-0.1632,146.7,97.6,0.496
12.28,32083.7,35325.7,0.4446,0.7979,146.7,97.6,0.496
12.3,32266.3,35653.1,1.4166,1.6021,146.7,97.6,0.496
12.32,32312.9,35823.0,1.6648,2.0193,146.7,97.6,0.496
12.34,32305.1,35673.9,1.6234,1.6532,146.7,97.6,0.496
12.36,32265.5,35435.4,1.4123,1.0674,146.7,97.6,0.496
12.38,32176.5,35366.1,0.939,0.8971,146.7,97.6,0.496
12.4,32144.9,35229.1,0.7706,0.5606,146.7,97.6,0.496
12.42,32107.6,35098.1,0.5722,0.2388,146.7,97.6,0.496
12.44,31965.4,34996.9,-0.1847,-0.0098,146.7,97.6,0.496
12.46,31906.0,34964.3,-0.5007,-0.0898,146.7,97.6,0.496
12.48,31879.8,34934.3,-0.6403,-0.1636,146.7,97.6,0.496
12.5,31849.4,34736.9,-0.8021,-0.6484,146.7,97.6,0.496
12.52,31883.3,34673.7,-0.6219,-0.8037,146.7,97.6,0.496
12.54,31893.8,34659.1,-0.5658,-0.8395,146.7,97.6,0.496
12.56,31807.4,34644.1,-1.0256,-0.8765,146.7,97.6,0.496
12.58,31789.3,34524.4,-1.1221,-1.1706,146.7,97.6,0.496
12.6,31829.4,34448.5,-0.9086,-1.357,146.7,97.6,0.496
12.62,31767.6,34511.7,-1.2374,-1.2017,146.7,97.6,0.496
12.64,31759.6,34502.7,-1.2799,-1.2238,146.7,97.6,0.496
12.66,31935.6,34813.2,-0.3432,-0.4611,146.7,97.6,0.496
12.68,32012.4,35092.5,0.0654,0.2251,146.7,97.6,0.496
12.7,32221.1,35591.9,1.1762,1.4519,146.7,97.6,0.496
12.72,32363.7,35636.5,1.935,1.5614,146.7,97.6,0.496
12.74,32402.3,35769.4,2.1403,1.8878,146.7,97.6,0.496
12.76,32288.8,35608.7,1.5364,1.4931,146.7,97.6,0.496
12.78,32131.9,35363.0,0.7016,0.8896,146.7,97.6,0.496
12.8,32115.4,35248.3,0.6136,0.6078,146.7,97.6,0.496
12.82,32050.7,35185.7,0.269,0.454,146.7,97.6,0.496
12.84,32104.6,35021.1,0.5559,0.0496,146.7,97.6,0.496
12.86,31910.6,35048.9,-0.4764,0.118,146.7,97.6,0.496
12.88,31942.0,34960.8,-0.3095,-0.0984,146.7,97.6,0.496
12.9,31916.8,34731.8,-0.4434,-0.661,146.7,97.6,0.496
12.92,31903.0,34719.9,-0.517,-0.6902,146.7,97.6,0.496
12.94,31812.4,34695.7,-0.9992,-0.7496,146.7,97.6,0.496
12.96,31903.9,34625.7,-0.512,-0.9217,146.7,97.6,0.496
12.98,31841.3,34533.6,-0.8453,-1.1478,146.7,97.6,0.496
13.0,31763.8,34562.7,-1.2576,-1.0764,146.7,97.6,0.496
13.02,31791.9,34538.5,-1.108,-1.1358,146.7,97.6,0.496
13.04,31831.9,34548.2,-0.8955,-1.112,146.7,97.6,0.496
13.06,31804.0,34689.0,-1.0439,-0.7663,146.7,97.6,0.496
13.08,31922.2,34950.2,-0.4148,-0.1246,146.7,97.6,0.496
13.1,32068.3,35274.7,0.3629,0.6726,146.7,97.6,0.496
13.12,32283.0,35679.5,1.5054,1.667,146.7,97.6,0.496
13.14,32384.1,35743.8,2.0438,1.8249,146.7,97.6,0.496
13.16,32325.6,35716.3,1.7325,1.7572,146.7,97.6,0.496
13.18,32227.9,35520.0,1.2123,1.2751,146.7,97.6,0.496
13.2,32162.9,35294.3,0.8663,0.7206,146.7,97.6,0.496
13.22,32022.1,35174.8,0.1168,0.4271,146.7,97.6,0.496
13.24,32027.2,35138.8,0.1443,0.3389,146.7,97.6,0.496
13.26,32022.8,35062.0,0.1208,0.1501,146.7,97.6,0.496
13.28,31933.0,34905.8,-0.3572,-0.2336,146.7,97.6,0.496
13.3,32006.6,34963.6,0.0345,-0.0916,146.7,97.6,0.496
13.32,31910.6,34719.5,-0.4765,-0.6913,146.7,97.6,0.496
13.34,31915.6,34689.4,-0.4496,-0.7651,146.7,97.6,0.496
13.36,31868.6,34755.8,-0.6999,-0.602,146.7,97.6,0.496
13.38,31898.0,34619.5,-0.5433,-0.9369,146.7,97.6,0.496
13.4,31824.4,34585.9,-0.9354,-1.0195,146.7,97.6,0.496
13.42,31766.3,34593.3,-1.2443,-1.0012,146.7,97.6,0.496
13.44,31799.7,34401.6,-1.0665,-1.4721,146.7,97.6,0.496
13.46,31809.4,34547.6,-1.0151,-1.1134,146.7,97.6,0.496
13.48,31924.7,34878.0,-0.4013,-0.3019,146.7,97.6,0.496
13.5,32097.6,35160.0,0.5187,0.3907,146.7,97.6,0.496
13.52,32175.7,35681.6,0.9343,1.672,146.7,97.6,0.496
13.54,32352.8,35680.3,1.877,1.6689,146.7,97.6,0.496
13.56,32311.1,35796.9,1.6553,1.9555,146.7,97.6,0.496
13.58,32289.7,35559.9,1.5414,1.3731,146.7,97.6,0.496
13.6,32058.7,35357.0,0.3117,0.8747,146.7,97.6,0.496
13.62,32143.8,35223.8,0.7649,0.5475,146.7,97.6,0.496
13.64,31990.3,35040.2,-0.0523,0.0965,146.7,97.6,0.496
13.66,31961.2,35086.7,-0.2072,0.2107,146.7,97.6,0.496
13.68,32001.7,34912.2,0.0082,-0.2178,146.7,97.6,0.496
13.7,31958.2,34890.5,-0.2228,-0.2711,146.7,97.6,0.496
13.72,31961.4,34825.6,-0.2062,-0.4306,146.7,97.6,0.496
13.74,31807.2,34681.7,-1.0268,-0.7841,146.7,97.6,0.496
13.76,31899.3,34657.5,-0.5367,-0.8436,146.7,97.6,0.496
13.78,31853.3,34650.5,-0.7813,-0.8607,146.7,97.6,0.496
13.8,31932.5,34637.8,-0.3598,-0.8919,146.7,97.6,0.496
13.82,31817.1,34487.3,-0.974,-1.2617,146.7,97.6,0.496
13.84,31809.5,34432.2,-1.0146,-1.3969,146.7,97.6,0.496
13.86,31858.9,34467.7,-0.7519,-1.3097,146.7,97.6,0.496
13.88,31845.9,34658.1,-0.821,-0.842,146.7,97.6,0.496
13.9,31917.1,35022.4,-0.4421,0.0529,146.7,97.6,0.496
13.92,32145.6,35385.8,0.7742,0.9456,146.7,97.6,0.496
13.94,32274.4,35676.1,1.4598,1.6586,146.7,97.6,0.496
13.96,32344.7,35651.5,1.8339,1.5981,146.7,97.6,0.496
13.98,32366.1,35680.0,1.9477,1.6682,146.7,97.6,0.496
14.0,32234.6,35465.4,1.248,1.1411,146.7,97.6,0.496
14.02,32129.0,35362.5,0.6858,0.8883,146.7,97.6,0.496
14.04,32080.2,35187.4,0.4262,0.4581,146.7,97.6,0.496
14.06,32068.9,35100.0,0.3659,0.2434,146.7,97.6,0.496
14.08,32079.5,35046.4,0.4225,0.1117,146.7,97.6,0.496
14.1,31971.7,34943.3,-0.1513,-0.1415,146.7,97.6,0.496
14.12,31945.3,34777.2,-0.2917,-0.5496,146.7,97.6,0.496
14.14,31941.7,34750.5,-0.3109,-0.615,146.7,97.6,0.496
14.16,31898.9,34777.7,-0.5385,-0.5483,146.7,97.6,0.496
14.18,31829.3,34645.7,-0.9092,-0.8724,146.7,97.6,0.496
14.2,31771.2,34711.3,-1.2182,-0.7114,146.7,97.6,0.496
14.22,31849.5,34534.8,-0.8014,-1.1449,146.7,97.6,0.496
14.24,31786.2,34410.2,-1.1388,-1.451,146.7,97.6,0.496
14.26,31761.7,34554.4,-1.2688,-1.0967,146.7,97.6,0.496
14.28,31815.5,34559.9,-0.9826,-1.0833,146.7,97.6,0.496
14.3,31873.5,34800.3,-0.6742,-0.4929,146.7,97.6,0.496
14.32,32160.2,35161.5,0.8521,0.3944,146.7,97.6,0.496
14.34,32246.2,35481.5,1.3098,1.1807,146.7,97.6,0.496
14.36,32320.2,35732.4,1.7034,1.797,146.7,97.6,0.496
14.38,32282.1,35727.9,1.501,1.7858,146.7,97.6,0.496
14.4,32254.3,35621.5,1.3527,1.5245,146.7,97.6,0.496
14.42,32105.5,35403.1,0.561,0.9879,146.7,97.6,0.496
14.44,32077.4,35200.7,0.4115,0.4907,146.7,97.6,0.496
14.46,32108.5,35038.7,0.5769,0.0928,146.7,97.6,0.496
14.48,31962.3,35071.6,-0.2011,0.1736,146.7,97.6,0.496
14.5,31989.4,35007.1,-0.057,0.0152,146.7,97.6,0.496
14.52,32027.5,34846.2,0.1458,-0.3801,146.7,97.6,0.496
14.54,31920.0,34721.7,-0.4265,-0.6858,146.7,97.6,0.496
14.56,31908.4,34661.6,-0.4881,-0.8335,146.7,97.6,0.496
14.58,31902.7,34711.3,-0.5186,-0.7113,146.7,97.6,0.496
14.6,31830.7,34568.0,-0.9016,-1.0635,146.7,97.6,0.496
14.62,31761.5,34530.2,-1.2701,-1.1563,146.7,97.6,0.496
14.64,31759.0,34562.2,-1.2831,-1.0776,146.7,97.6,0.496
14.66,31793.9,34433.4,-1.0975,-1.394,146.7,97.6,0.496
14.68,31789.7,34490.3,-1.1199,-1.2542,146.7,97.6,0.496
14.7,31847.9,34719.3,-0.81,-0.6916,146.7,97.6,0.496
14.72,32007.7,35038.4,0.0401,0.0922,146.7,97.6,0.496
14.74,32161.0,35482.9,0.8562,1.1839,146.7,97.6,0.496
14.76,32246.2,35708.5,1.3095,1.7382,146.7,97.6,0.496
14.78,32423.1,35686.0,2.2512,1.683,146.7,97.6,0.496
14.8,32309.1,35654.2,1.6445,1.6048,146.7,97.6,0.496
14.82,32268.6,35406.4,1.4289,0.996,146.7,97.6,0.496
14.84,32098.6,35276.0,0.5241,0.6757,146.7,97.6,0.496
14.86,32162.9,35148.0,0.8666,0.3614,146.7,97.6,0.496
14.88,32036.3,35061.3,0.1927,0.1485,146.7,97.6,0.496
14.9,31940.8,35099.6,-0.3156,0.2425,146.7,97.6,0.496
14.92,32026.2,34911.2,0.1386,-0.2204,146.7,97.6,0.496
14.94,31927.8,34819.4,-0.3847,-0.4457,146.7,97.6,0.496
14.96,31887.3,34705.4,-0.6007,-0.7258,146.7,97.6,0.496
14.98,31872.6,34662.7,-0.6789,-0.8307,146.7,97.6,0.496
15.0,31817.2,34678.7,-0.9738,-0.7913,146.7,97.6,0.496
15.02,31909.5,34540.9,-0.4823,-1.1299,146.7,97.6,0.496
15.04,31794.1,34513.8,-1.0963,-1.1966,146.7,97.6,0.496
15.06,31734.3,34520.4,-1.4148,-1.1804,146.7,97.6,0.496
15.08,31748.4,34458.9,-1.34,-1.3313,146.7,97.6,0.496
15.1,31883.7,34660.3,-0.6195,-0.8367,146.7,97.6,0.496
15.12,31866.2,34836.1,-0.7129,-0.4048,146.7,97.6,0.496
15.14,32068.1,35323.4,0.3617,0.7921,146.7,97.6,0.496
15.16,32264.3,35640.5,1.4059,1.5711,146.7,97.6,0.496
15.18,32253.0,35769.8,1.3461,1.8887,146.7,97.6,0.496
15.2,32282.2,35668.9,1.5016,1.6409,146.7,97.6,0.496
15.22,32198.9,35648.6,1.0581,1.591,146.7,97.6,0.496
15.24,32100.5,35393.5,0.5342,0.9645,146.7,97.6,0.496
15.26,31978.3,35215.5,-0.1159,0.5271,146.7,97.6,0.496
15.28,32072.0,35115.4,0.3824,0.2812,146.7,97.6,0.496
15.3,31933.4,34885.0,-0.3553,-0.2846,146.7,97.6,0.496
15.32,31948.8,35044.7,-0.2729,0.1077,146.7,97.6,0.496
15.34,31904.6,34854.8,-0.5086,-0.3589,146.7,97.6,0.496
15.36,31931.5,34752.5,-0.3651,-0.6101,146.7,97.6,0.496
15.38,31816.1,34720.3,-0.9792,-0.6892,146.7,97.6,0.496
15.4,31914.6,34679.0,-0.4554,-0.7908,146.7,97.6,0.496
15.42,31884.9,34708.1,-0.6134,-0.7191,146.7,97.6,0.496
15.44,31851.2,34732.8,-0.7925,-0.6586,146.7,97.6,0.496
15.46,31817.2,34492.1,-0.9734,-1.2497,146.7,97.6,0.496
15.48,31818.8,34437.5,-0.9648,-1.3838,146.7,97.6,0.496
15.5,31730.5,34581.7,-1.435,-1.0296,146.7,97.6,0.496
15.52,31945.9,34718.0,-0.2884,-0.695,146.7,97.6,0.496
15.54,32118.4,35113.0,0.6293,0.2755,146.7,97.6,0.496
15.56,32168.7,35372.9,0.8975,0.9137,146.7,97.6,0.496
15.58,32322.8,35644.8,1.7173,1.5817,146.7,97.6,0.496
15.6,32406.0,35754.8,2.1601,1.852,146.7,97.6,0.496
15.62,32165.9,35644.5,0.8821,1.5809,146.7,97.6,0.496
15.64,32190.8,35456.3,1.0149,1.1188,146.7,97.6,0.496
15.66,32088.3,35118.8,0.4696,0.2896,146.7,97.6,0.496
15.68,32078.1,35167.9,0.4151,0.4101,146.7,97.6,0.496
15.7,32012.2,35088.6,0.0641,0.2154,146.7,97.6,0.496
15.72,32030.4,35000.2,0.161,-0.0016,146.7,97.6,0.496
15.74,32042.9,34990.9,0.2278,-0.0245,146.7,97.6,0.496
15.76,31986.4,34833.5,-0.0732,-0.4112,146.7,97.6,0.496
15.78,31876.8,34720.8,-0.6561,-0.688,146.7,97.6,0.496
15.8,31910.5,34688.0,-0.4771,-0.7687,146.7,97.6,0.496
15.82,31814.1,34687.8,-0.9903,-0.7691,146.7,97.6,0.496
15.84,31835.2,34687.1,-0.8777,-0.7708,146.7,97.6,0.496
15.86,31738.0,34537.2,-1.395,-1.1391,146.7,97.6,0.496
15.88,31702.1,34482.6,-1.5862,-1.2732,146.7,97.6,0.496
15.9,31793.3,34404.4,-1.101,-1.4652,146.7,97.6,0.496
15.92,31866.8,34543.9,-0.7094,-1.1225,146.7,97.6,0.496
15.94,32001.8,34924.3,0.0088,-0.1881,146.7,97.6,0.496
15.96,32073.7,35313.4,0.3917,0.7677,146.7,97.6,0.496
15.98,32308.0,35551.7,1.6387,1.353,146.7,97.6,0.496
16.0,32376.4,35758.5,2.0025,1.8609,146.7,97.6,0.496
16.02,32313.6,35702.0,1.6682,1.7222,146.7,97.6,0.496
16.04,32233.4,35497.4,1.2418,1.2195,146.7,97.6,0.496
16.06,32119.4,35380.2,0.6351,0.9318,146.7,97.6,0.496
16.08,32060.5,35197.4,0.3214,0.4827,146.7,97.6,0.496
16.1,32104.0,35102.5,0.5528,0.2496,146.7,97.6,0.496
16.12,32052.0,35049.6,0.2762,0.1197,146.7,97.6,0.496
16.14,32051.8,34983.1,0.2752,-0.0438,146.7,97.6,0.496
16.16,32023.5,34858.0,0.1246,-0.3509,146.7,97.6,0.496
16.18,31966.6,34761.9,-0.1783,-0.5872,146.7,97.6,0.496
16.2,31947.2,34673.9,-0.2817,-0.8032,146.7,97.6,0.496
16.22,31766.5,34582.2,-1.2436,-1.0285,146.7,97.6,0.496
16.24,31821.9,34601.6,-0.9485,-0.9809,146.7,97.6,0.496
16.26,31782.0,34666.7,-1.1607,-0.8209,146.7,97.6,0.496
16.28,31864.7,34526.1,-0.7205,-1.1662,146.7,97.6,0.496
16.3,31692.8,34412.3,-1.6357,-1.4458,146.7,97.6,0.496
16.32,31796.9,34428.1,-1.0818,-1.407,146.7,97.6,0.496
16.34,31902.4,34805.7,-0.5203,-0.4795,146.7,97.6,0.496
16.36,31949.8,35063.9,-0.2677,0.1547,146.7,97.6,0.496
16.38,32253.5,35454.9,1.3486,1.1153,146.7,97.6,0.496
16.4,32308.1,35625.7,1.6391,1.5348,146.7,97.6,0.496
16.42,32246.0,35730.0,1.3088,1.7909,146.7,97.6,0.496
16.44,32239.7,35713.1,1.2751,1.7494,146.7,97.6,0.496
16.46,32047.2,35335.1,0.2506,0.8211,146.7,97.6,0.496
16.48,32123.6,35202.5,0.657,0.4952,146.7,97.6,0.496
16.5,32005.8,35149.3,0.03,0.3644,146.7,97.6,0.496
16.52,32016.6,35096.2,0.0876,0.2342,146.7,97.6,0.496
16.54,32039.2,35138.3,0.208,0.3376,146.7,97.6,0.496
16.56,32048.7,34964.2,0.2585,-0.09,146.7,97.6,0.496
16.58,31856.7,34874.9,-0.7633,-0.3096,146.7,97.6,0.496
16.6,31973.5,34629.1,-0.1417,-0.9132,146.7,97.6,0.496
16.62,31908.2,34728.7,-0.4892,-0.6685,146.7,97.6,0.496
16.64,31813.3,34670.9,-0.9943,-0.8106,146.7,97.6,0.496
16.66,31851.3,34599.9,-0.792,-0.985,146.7,97.6,0.496
16.68,31830.0,34547.9,-0.9056,-1.1127,146.7,97.6,0.496
16.7,31750.6,34496.5,-1.3281,-1.2389,146.7,97.6,0.496
16.72,31679.0,34568.6,-1.709,-1.062,146.7,97.6,0.496
16.74,31701.2,34624.0,-1.5912,-0.9259,146.7,97.6,0.496
16.76,31947.3,34938.2,-0.281,-0.1541,146.7,97.6,0.496
16.78,32149.1,35320.2,0.7929,0.7844,146.7,97.6,0.496
16.8,32348.1,35721.3,1.852,1.7696,146.7,97.6,0.496
16.82,32290.4,35831.4,1.5448,2.0402,146.7,97.6,0.496
16.84,32399.0,35700.2,2.123,1.7178,146.7,97.6,0.496
16.86,32226.8,35508.4,1.2064,1.2466,146.7,97.6,0.496
16.88,32105.3,35313.1,0.5597,0.767,146.7,97.6,0.496
16.9,32060.8,35140.2,0.3227,0.3422,146.7,97.6,0.496
16.92,31999.4,35024.3,-0.004,0.0575,146.7,97.6,0.496
16.94,32056.7,35061.3,0.3012,0.1484,146.7,97.6,0.496
16.96,31976.1,34833.9,-0.1277,-0.4101,146.7,97.6,0.496
16.98,32021.5,34886.4,0.1137,-0.2813,146.7,97.6,0.496
17.0,31917.9,34769.5,-0.4377,-0.5683,146.7,97.6,0.496
17.02,31819.6,34823.0,-0.9606,-0.437,146.7,97.6,0.496
17.04,31806.4,34649.4,-1.0309,-0.8633,146.7,97.6,0.496
17.06,31928.1,34569.5,-0.3831,-1.0597,146.7,97.6,0.496
17.08,31824.8,34576.2,-0.9332,-1.0433,146.7,97.6,0.496
17.1,31866.0,34555.3,-0.7136,-1.0945,146.7,97.6,0.496
17.12,31765.6,34475.9,-1.248,-1.2897,146.7,97.6,0.496
17.14,31821.2,34477.8,-0.9524,-1.2851,146.7,97.6,0.496
17.16,31875.9,34755.2,-0.6613,-0.6036,146.7,97.6,0.496
17.18,32122.0,35178.8,0.6488,0.4371,146.7,97.6,0.496
17.2,32176.4,35474.3,0.9384,1.1629,146.7,97.6,0.496
17.22,32296.5,35725.5,1.5775,1.78,146.7,97.6,0.496
17.24,32320.9,35706.1,1.7073,1.7323,146.7,97.6,0.496
17.26,32260.7,35564.3,1.3866,1.3839,146.7,97.6,0.496
17.28,32207.1,35508.3,1.1014,1.2464,146.7,97.6,0.496
17.3,32159.2,35265.3,0.8468,0.6494,146.7,97.6,0.496
17.32,32075.3,35026.8,0.4001,0.0637,146.7,97.6,0.496
17.34,32059.6,35093.7,0.3167,0.228,146.7,97.6,0.496
17.36,31992.4,34982.1,-0.041,-0.0461,146.7,97.6,0.496
17.38,32031.0,34967.8,0.1642,-0.0813,146.7,97.6,0.496
17.4,31893.7,34815.6,-0.5666,-0.4551,146.7,97.6,0.496
17.42,31842.3,34747.8,-0.8399,-0.6217,146.7,97.6,0.496
17.44,31924.7,34673.4,-0.4013,-0.8044,146.7,97.6,0.496
17.46,31848.5,34670.5,-0.8069,-0.8116,146.7,97.6,0.496
17.48,31856.8,34609.2,-0.763,-0.9623,146.7,97.6,0.496
17.5,31793.3,34487.9,-1.1005,-1.2601,146.7,97.6,0.496
17.52,31783.8,34537.1,-1.1515,-1.1394,146.7,97.6,0.496
17.54,31810.7,34469.9,-1.008,-1.3044,146.7,97.6,0.496
17.56,31756.4,34631.7,-1.297,-0.9069,146.7,97.6,0.496
17.58,31979.6,34923.5,-0.1089,-0.1902,146.7,97.6,0.496
17.6,32225.5,35396.3,1.1995,0.9712,146.7,97.6,0.496
17.62,32266.1,35591.1,1.4158,1.4498,146.7,97.6,0.496
17.64,32379.9,35805.7,2.0212,1.977,146.7,97.6,0.496
17.66,32259.4,35682.6,1.3798,1.6745,146.7,97.6,0.496
17.68,32220.1,35395.9,1.171,0.9704,146.7,97.6,0.496
17.7,32127.9,35321.3,0.6799,0.7869,146.7,97.6,0.496
17.72,32166.0,35091.2,0.8831,0.2218,146.7,97.6,0.496
17.74,32031.2,35108.6,0.1657,0.2645,146.7,97.6,0.496
17.76,32006.0,35132.7,0.0312,0.3238,146.7,97.6,0.496
17.78,32038.4,35001.1,0.2036,0.0006,146.7,97.6,0.496
17.8,31897.2,34900.8,-0.548,-0.2458,146.7,97.6,0.496
17.82,31988.4,34775.1,-0.0624,-0.5547,146.7,97.6,0.496
17.84,31924.7,34704.3,-0.4013,-0.7286,146.7,97.6,0.496
17.86,31858.9,34628.0,-0.7517,-0.916,146.7,97.6,0.496
17.88,31903.3,34649.3,-0.5152,-0.8636,146.7,97.6,0.496
17.9,31762.6,34575.5,-1.2643,-1.045,146.7,97.6,0.496
17.92,31725.3,34545.5,-1.4625,-1.1187,146.7,97.6,0.496
17.94,31750.5,34351.9,-1.3286,-1.5941,146.7,97.6,0.496
17.96,31832.8,34539.9,-0.8907,-1.1325,146.7,97.6,0.496
17.98,31829.4,34849.1,-0.9087,-0.3728,146.7,97.6,0.496
18.0,32049.0,35157.0,0.2602,0.3834,146.7,97.6,0.496
18.02,32173.0,35471.1,0.9199,1.1552,146.7,97.6,0.496
18.04,32283.2,35729.0,1.5065,1.7885,146.7,97.6,0.496
18.06,32347.4,35820.4,1.8484,2.013,146.7,97.6,0.496
18.08,32206.9,35596.9,1.1007,1.4641,146.7,97.6,0.496
18.1,32096.1,35283.2,0.5108,0.6936,146.7,97.6,0.496
18.12,32214.9,35213.8,1.1432,0.523,146.7,97.6,0.496
18.14,32049.2,35103.5,0.2611,0.252,146.7,97.6,0.496
18.16,32018.6,34980.4,0.0982,-0.0503,146.7,97.6,0.496
18.18,32027.2,35032.5,0.1439,0.0777,146.7,97.6,0.496
18.2,31873.5,34842.4,-0.6738,-0.3894,146.7,97.6,0.496
18.22,31890.2,34784.1,-0.585,-0.5325,146.7,97.6,0.496
18.24,31901.7,34757.7,-0.5237,-0.5975,146.7,97.6,0.496
18.26,31915.8,34689.9,-0.4489,-0.7638,146.7,97.6,0.496
18.28,31858.6,34637.4,-0.753,-0.8928,146.7,97.6,0.496
18.3,31876.8,34657.8,-0.6565,-0.8428,146.7,97.6,0.496
18.32,31831.3,34535.2,-0.8987,-1.144,146.7,97.6,0.496
18.34,31806.2,34426.6,-1.0319,-1.4107,146.7,97.6,0.496
18.36,31770.6,34532.3,-1.2216,-1.1511,146.7,97.6,0.496
18.38,31913.0,34627.1,-0.4637,-0.9183,146.7,97.6,0.496
18.4,31941.9,35026.7,-0.3096,0.0634,146.7,97.6,0.496
18.42,32160.8,35288.5,0.8554,0.7066,146.7,97.6,0.496
18.44,32298.7,35676.8,1.5892,1.6603,146.7,97.6,0.496
18.46,32261.6,35734.0,1.3917,1.8009,146.7,97.6,0.496
18.48,32300.7,35664.1,1.5999,1.6292,146.7,97.6,0.496
18.5,32132.9,35472.8,0.7068,1.1591,146.7,97.6,0.496
18.52,32171.3,35311.7,0.9112,0.7636,146.7,97.6,0.496
18.54,32052.1,35205.2,0.2765,0.502,146.7,97.6,0.496
18.56,32058.9,35112.3,0.3129,0.2737,146.7,97.6,0.496
18.58,32044.9,35008.0,0.2382,0.0174,146.7,97.6,0.496
18.6,31953.5,34932.4,-0.2482,-0.1683,146.7,97.6,0.496
18.62,31934.5,34926.8,-0.3492,-0.182,146.7,97.6,0.496
18.64,31903.0,34743.0,-0.517,-0.6334,146.7,97.6,0.496
18.66,31804.0,34643.7,-1.0439,-0.8773,146.7,97.6,0.496
18.68,31911.3,34669.9,-0.4726,-0.813,146.7,97.6,0.496
18.7,31936.8,34681.5,-0.3372,-0.7845,146.7,97.6,0.496
18.72,31728.4,34640.8,-1.4464,-0.8845,146.7,97.6,0.496
18.74,31785.4,34545.4,-1.1427,-1.1188,146.7,97.6,0.496
18.76,31774.1,34387.7,-1.2028,-1.5062,146.7,97.6,0.496
18.78,31890.8,34560.8,-0.5818,-1.0812,146.7,97.6,0.496
18.8,31879.4,34856.8,-0.6426,-0.354,146.7,97.6,0.496
18.82,32008.7,35229.0,0.0456,0.5603,146.7,97.6,0.496
18.84,32237.5,35491.5,1.2634,1.2051,146.7,97.6,0.496
18.86,32367.3,35711.8,1.9545,1.7464,146.7,97.6,0.496
18.88,32299.2,35745.8,1.5921,1.8298,146.7,97.6,0.496
18.9,32287.5,35516.9,1.5294,1.2676,146.7,97.6,0.496
18.92,32205.9,35373.8,1.0952,0.916,146.7,97.6,0.496
18.94,32036.0,35219.5,0.191,0.5369,146.7,97.6,0.496
18.96,32080.4,35193.9,0.4273,0.4742,146.7,97.6,0.496
18.98,32035.8,35060.8,0.1896,0.1471,146.7,97.6,0.496
19.0,31924.5,35006.3,-0.4027,0.0133,146.7,97.6,0.496
19.02,31879.4,34877.8,-0.6423,-0.3024,146.7,97.6,0.496
19.04,31958.9,34765.4,-0.2196,-0.5785,146.7,97.6,0.496
19.06,31853.4,34753.0,-0.781,-0.609,146.7,97.6,0.496
19.08,31837.9,34595.3,-0.8635,-0.9964,146.7,97.6,0.496
19.1,31826.3,34586.9,-0.925,-1.017,146.7,97.6,0.496
19.12,31803.3,34577.8,-1.0475,-1.0393,146.7,97.6,0.496
19.14,31821.5,34577.0,-0.9505,-1.0414,146.7,97.6,0.496
19.16,31715.1,34499.3,-1.5172,-1.2321,146.7,97.6,0.496
19.18,31759.5,34523.3,-1.2808,-1.1731,146.7,97.6,0.496
19.2,31851.9,34677.3,-0.7888,-0.7948,146.7,97.6,0.496
19.22,32052.1,35042.6,0.2766,0.1024,146.7,97.6,0.496
19.24,32147.9,35441.0,0.7864,1.081,146.7,97.6,0.496
19.26,32235.5,35638.6,1.2528,1.5666,146.7,97.6,0.496
19.28,32317.0,35736.2,1.6866,1.8062,146.7,97.6,0.496
19.3,32312.5,35721.4,1.6627,1.7698,146.7,97.6,0.496
19.32,32172.5,35452.0,0.9173,1.108,146.7,97.6,0.496
19.34,31995.7,35172.6,-0.0237,0.4218,146.7,97.6,0.496
19.36,32099.7,35056.5,0.5297,0.1366,146.7,97.6,0.496
19.38,32019.2,35063.4,0.1017,0.1534,146.7,97.6,0.496
19.4,31986.3,35100.4,-0.0734,0.2444,146.7,97.6,0.496
19.42,31978.3,34899.3,-0.1159,-0.2495,146.7,97.6,0.496
19.44,31954.6,34795.2,-0.2424,-0.5053,146.7,97.6,0.496
19.46,31911.9,34789.1,-0.4694,-0.5203,146.7,97.6,0.496
19.48,31822.2,34573.1,-0.9469,-1.0507,146.7,97.6,0.496
19.5,31849.7,34658.1,-0.8008,-0.8422,146.7,97.6,0.496
19.52,31784.7,34634.2,-1.1465,-0.9006,146.7,97.6,0.496
19.54,31813.8,34634.6,-0.9918,-0.8997,146.7,97.6,0.496
19.56,31689.0,34436.0,-1.6557,-1.3876,146.7,97.6,0.496
19.58,31787.0,34466.0,-1.1344,-1.3139,146.7,97.6,0.496
19.6,31836.3,34647.2,-0.872,-0.8689,146.7,97.6,0.496
19.62,31880.7,34762.3,-0.6355,-0.586,146.7,97.6,0.496
19.64,32200.1,35247.1,1.0644,0.6049,146.7,97.6,0.496
19.66,32174.4,35623.1,0.9278,1.5283,146.7,97.6,0.496
19.68,32330.4,35796.2,1.7581,1.9535,146.7,97.6,0.496
19.7,32367.7,35724.3,1.9565,1.7769,146.7,97.6,0.496
19.72,32248.4,35491.6,1.3214,1.2054,146.7,97.6,0.496
19.74,32151.7,35312.2,0.8069,0.7648,146.7,97.6,0.496
19.76,32083.2,35181.0,0.4422,0.4424,146.7,97.6,0.496
19.78,31953.6,35064.5,-0.2478,0.1563,146.7,97.6,0.496
19.8,32059.9,35077.0,0.3183,0.187,146.7,97.6,0.496
19.82,32005.4,34959.5,0.0281,-0.1017,146.7,97.6,0.496
19.84,31956.2,34857.6,-0.2339,-0.3519,146.7,97.6,0.496
19.86,31878.3,34807.8,-0.6482,-0.4744,146.7,97.6,0.496
19.88,31863.1,34721.5,-0.7294,-0.6863,146.7,97.6,0.496
19.9,31825.4,34612.6,-0.9299,-0.9539,146.7,97.6,0.496
19.92,31912.2,34666.0,-0.4678,-0.8226,146.7,97.6,0.496
19.94,31806.9,34636.2,-1.0284,-0.8959,146.7,97.6,0.496
19.96,31813.0,34576.1,-0.9958,-1.0436,146.7,97.6,0.496
19.98,31733.2,34452.2,-1.4207,-1.3479,146.7,97.6,0.496
20.0,31696.5,34434.2,-1.6159,-1.392,146.7,97.6,0.496
20.02,31881.6,34704.2,-0.6306,-0.7288,146.7,97.6,0.496
20.04,31985.0,34976.9,-0.0804,-0.0589,146.7,97.6,0.496
20.06,32186.6,35449.6,0.9923,1.1022,146.7,97.6,0.496
20.08,32311.8,35671.6,1.6591,1.6474,146.7,97.6,0.496
20.1,32388.1,35880.3,2.065,2.1601,146.7,97.6,0.496
20.12,32345.5,35700.9,1.8383,1.7196,146.7,97.6,0.496
20.14,32187.4,35437.4,0.9966,1.0722,146.7,97.6,0.496
20.16,32042.6,35194.2,0.2263,0.4747,146.7,97.6,0.496
20.18,32092.7,35048.6,0.4926,0.1173,146.7,97.6,0.496
20.2,31960.5,35060.2,-0.211,0.1456,146.7,97.6,0.496
20.22,32051.4,35027.3,0.2729,0.065,146.7,97.6,0.496
20.24,31919.8,34869.8,-0.4272,-0.3219,146.7,97.6,0.496
20.26,31932.1,34801.9,-0.3619,-0.4888,146.7,97.6,0.496
20.28,31904.1,34794.7,-0.5109,-0.5066,146.7,97.6,0.496
20.3,31911.6,34683.8,-0.4713,-0.7789,146.7,97.6,0.496
20.32,31900.7,34660.9,-0.5293,-0.8353,146.7,97.6,0.496
20.34,31938.2,34677.8,-0.3296,-0.7937,146.7,97.6,0.496
20.36,31834.8,34542.9,-0.88,-1.1251,146.7,97.6,0.496
20.38,31782.6,34469.4,-1.1579,-1.3057,146.7,97.6,0.496
20.4,31865.5,34469.9,-0.7166,-1.3044,146.7,97.6,0.496
20.42,31827.8,34597.4,-0.9173,-0.9911,146.7,97.6,0.496
20.44,31948.0,34900.4,-0.2776,-0.2469,146.7,97.6,0.496
20.46,32071.5,35296.4,0.38,0.7259,146.7,97.6,0.496
20.48,32386.0,35626.2,2.0536,1.5361,146.7,97.6,0.496
20.5,32424.2,35728.5,2.2573,1.7873,146.7,97.6,0.496
20.52,32344.0,35712.0,1.8302,1.7469,146.7,97.6,0.496
20.54,32194.9,35453.6,1.0367,1.112,146.7,97.6,0.496
20.56,32181.5,35296.3,0.9654,0.7256,146.7,97.6,0.496
20.58,32132.3,35256.1,0.7033,0.6268,146.7,97.6,0.496
20.6,32064.4,35114.3,0.3421,0.2786,146.7,97.6,0.496
20.62,31965.5,35015.5,-0.1842,0.0359,146.7,97.6,0.496
20.64,32022.3,34908.3,0.1178,-0.2275,146.7,97.6,0.496
20.66,31979.3,34868.1,-0.111,-0.3262,146.7,97.6,0.496
20.68,31883.3,34741.6,-0.6218,-0.6369,146.7,97.6,0.496
20.7,31902.8,34684.4,-0.5181,-0.7774,146.7,97.6,0.496
20.72,31849.2,34719.4,-0.8035,-0.6916,146.7,97.6,0.496
20.74,31927.2,34775.0,-0.3881,-0.555,146.7,97.6,0.496
20.76,31863.2,34656.7,-0.729,-0.8456,146.7,97.6,0.496
20.78,31811.9,34515.4,-1.0015,-1.1925,146.7,97.6,0.496
20.8,31802.6,34462.0,-1.0514,-1.3239,146.7,97.6,0.496
20.82,31744.1,34484.1,-1.3626,-1.2694,146.7,97.6,0.496
20.84,31866.1,34780.5,-0.7135,-0.5415,146.7,97.6,0.496
20.86,32032.7,35118.7,0.1737,0.2893,146.7,97.6,0.496
20.88,32234.9,35534.9,1.2497,1.3118,146.7,97.6,0.496
20.9,32225.7,35788.8,1.2006,1.9354,146.7,97.6,0.496
20.92,32331.5,35739.9,1.7636,1.8153,146.7,97.6,0.496
20.94,32301.9,35582.7,1.6062,1.4291,146.7,97.6,0.496
20.96,32129.3,35344.5,0.6876,0.8441,146.7,97.6,0.496
20.98,32141.7,35294.1,0.7533,0.7202,146.7,97.6,0.496
21.0,32091.7,35096.1,0.4872,0.234,146.7,97.6,0.496
21.02,31971.9,35160.1,-0.1502,0.391,146.7,97.6,0.496
21.04,32016.2,35029.6,0.0856,0.0705,146.7,97.6,0.496
21.06,31991.1,34993.1,-0.0482,-0.0191,146.7,97.6,0.496
21.08,31894.6,34803.6,-0.5615,-0.4845,146.7,97.6,0.496
21.1,31914.0,34766.0,-0.4585,-0.5769,146.7,97.6,0.496
21.12,31905.1,34711.5,-0.5056,-0.711,146.7,97.6,0.496
21.14,31899.6,34589.0,-0.5351,-1.0119,146.7,97.6,0.496
21.16,31849.8,34581.3,-0.7998,-1.0308,146.7,97.6,0.496
21.18,31843.4,34479.1,-0.8341,-1.2817,146.7,97.6,0.496
21.2,31729.3,34386.0,-1.4414,-1.5103,146.7,97.6,0.496
21.22,31812.3,34481.7,-0.9997,-1.2754,146.7,97.6,0.496
21.24,31840.8,34615.8,-0.8481,-0.9461,146.7,97.6,0.496
21.26,32027.7,34889.5,0.147,-0.2736,146.7,97.6,0.496
21.28,32164.7,35417.1,0.8759,1.0225,146.7,97.6,0.496
21.3,32278.9,35626.1,1.4837,1.5358,146.7,97.6,0.496
21.32,32318.1,35795.2,1.6924,1.9513,146.7,97.6,0.496
21.34,32311.8,35722.6,1.6589,1.7729,146.7,97.6,0.496
21.36,32280.5,35521.1,1.4921,1.2778,146.7,97.6,0.496
21.38,32170.9,35320.2,0.9092,0.7843,146.7,97.6,0.496
21.4,32103.4,35204.6,0.5498,0.5005,146.7,97.6,0.496
21.42,31989.3,35143.2,-0.0577,0.3496,146.7,97.6,0.496
21.44,31963.4,35080.2,-0.1955,0.1949,146.7,97.6,0.496
21.46,31964.7,34909.5,-0.1885,-0.2245,146.7,97.6,0.496
21.48,31953.1,34824.0,-0.2501,-0.4346,146.7,97.6,0.496
21.5,31865.9,34708.8,-0.7141,-0.7175,146.7,97.6,0.496
21.52,31847.1,34634.7,-0.8145,-0.8994,146.7,97.6,0.496
21.54,31793.5,34657.5,-1.1,-0.8434,146.7,97.6,0.496
21.56,31787.4,34644.5,-1.1324,-0.8754,146.7,97.6,0.496
21.58,31821.2,34548.7,-0.9522,-1.1108,146.7,97.6,0.496
21.6,31848.7,34422.3,-0.8056,-1.4212,146.7,97.6,0.496
21.62,31689.5,34443.4,-1.6534,-1.3694,146.7,97.6,0.496
21.64,31823.3,34531.2,-0.9413,-1.1537,146.7,97.6,0.496
21.66,31919.8,34831.1,-0.4277,-0.417,146.7,97.6,0.496
21.68,32083.6,35213.0,0.4445,0.521,146.7,97.6,0.496
21.7,32165.6,35613.7,0.8808,1.5054,146.7,97.6,0.496
21.72,32314.1,35721.4,1.671,1.77,146.7,97.6,0.496
21.74,32320.1,35727.4,1.7032,1.7847,146.7,97.6,0.496
21.76,32380.8,35612.9,2.0264,1.5035,146.7,97.6,0.496
21.78,32151.3,35477.9,0.8046,1.1717,146.7,97.6,0.496
21.8,32158.6,35265.0,0.8434,0.6487,146.7,97.6,0.496
21.82,32034.2,35169.8,0.1815,0.415,146.7,97.6,0.496
21.84,32010.7,35115.2,0.0564,0.2808,146.7,97.6,0.496
21.86,31972.6,34983.5,-0.1465,-0.0427,146.7,97.6,0.496
21.88,31889.9,34987.7,-0.5865,-0.0325,146.7,97.6,0.496
21.9,31828.9,34816.0,-0.9112,-0.4543,146.7,97.6,0.496
21.92,31823.1,34699.3,-0.9424,-0.7408,146.7,97.6,0.496
21.94,31836.0,34707.8,-0.8736,-0.7201,146.7,97.6,0.496
21.96,31913.7,34658.4,-0.4598,-0.8412,146.7,97.6,0.496
21.98,31859.9,34681.9,-0.7461,-0.7836,146.7,97.6,0.496
22.0,31838.0,34507.4,-0.8631,-1.2121,146.7,97.6,0.496
22.02,31751.8,34413.0,-1.3216,-1.4442,146.7,97.6,0.496
22.04,31738.2,34508.9,-1.3942,-1.2087,146.7,97.6,0.496
22.06,31948.5,34695.1,-0.2746,-0.7511,146.7,97.6,0.496
22.08,32062.8,34972.6,0.3337,-0.0696,146.7,97.6,0.496
22.1,32076.1,35360.4,0.4044,0.8831,146.7,97.6,0.496
22.12,32348.3,35612.7,1.8529,1.5029,146.7,97.6,0.496
22.14,32369.4,35663.5,1.9657,1.6277,146.7,97.6,0.496
22.16,32277.1,35721.1,1.4741,1.7691,146.7,97.6,0.496
22.18,32198.8,35579.4,1.0574,1.4212,146.7,97.6,0.496
22.2,32089.4,35240.3,0.4753,0.5881,146.7,97.6,0.496
22.22,32061.8,35189.9,0.3281,0.4642,146.7,97.6,0.496
22.24,32020.8,35070.0,0.1098,0.1697,146.7,97.6,0.496
22.26,32008.4,35162.1,0.0439,0.396,146.7,97.6,0.496
22.28,31907.6,34983.6,-0.4923,-0.0425,146.7,97.6,0.496
22.3,32033.4,34919.7,0.1769,-0.1995,146.7,97.6,0.496
22.32,31919.8,34736.1,-0.4274,-0.6504,146.7,97.6,0.496
22.34,31819.2,34801.3,-0.9631,-0.4904,146.7,97.6,0.496
22.36,31926.3,34651.2,-0.3928,-0.8591,146.7,97.6,0.496
22.38,31943.1,34609.0,-0.3035,-0.9628,146.7,97.6,0.496
22.4,31800.5,34646.4,-1.0623,-0.8709,146.7,97.6,0.496
22.42,31857.1,34501.4,-0.7613,-1.2269,146.7,97.6,0.496
22.44,31754.5,34431.0,-1.3075,-1.3999,146.7,97.6,0.496
22.46,31720.4,34562.4,-1.4888,-1.0772,146.7,97.6,0.496
22.48,31914.9,34850.8,-0.4536,-0.3688,146.7,97.6,0.496
22.5,32069.1,35214.1,0.367,0.5236,146.7,97.6,0.496
22.52,32231.9,35543.9,1.2338,1.3338,146.7,97.6,0.496
22.54,32439.9,35706.2,2.3407,1.7325,146.7,97.6,0.496
22.56,32283.0,35775.6,1.5055,1.9031,146.7,97.6,0.496
22.58,32244.9,35634.9,1.3027,1.5574,146.7,97.6,0.496
22.6,32122.0,35434.9,0.6485,1.0661,146.7,97.6,0.496
22.62,32078.9,35241.7,0.4191,0.5914,146.7,97.6,0.496
22.64,32079.4,35179.5,0.4218,0.4389,146.7,97.6,0.496
22.66,32098.3,35103.9,0.5225,0.253,146.7,97.6,0.496
22.68,32012.1,35039.3,0.064,0.0943,146.7,97.6,0.496
22.7,31983.4,34884.3,-0.0891,-0.2864,146.7,97.6,0.496
22.72,31988.0,34819.8,-0.0644,-0.4447,146.7,97.6,0.496
22.74,31882.0,34685.4,-0.6287,-0.7749,146.7,97.6,0.496
22.76,31800.8,34680.1,-1.0608,-0.788,146.7,97.6,0.496
22.78,31883.3,34732.0,-0.6216,-0.6606,146.7,97.6,0.496
22.8,31783.7,34596.9,-1.152,-0.9924,146.7,97.6,0.496
22.82,31783.7,34657.2,-1.1517,-0.8442,146.7,97.6,0.496
22.84,31806.0,34479.5,-1.0329,-1.2808,146.7,97.6,0.496
22.86,31710.3,34515.6,-1.5425,-1.1921,146.7,97.6,0.496
22.88,31893.0,34615.9,-0.5702,-0.9456,146.7,97.6,0.496
22.9,31991.2,34993.4,-0.0474,-0.0183,146.7,97.6,0.496
22.92,32186.4,35386.2,0.9912,0.9465,146.7,97.6,0.496
22.94,32285.8,35594.1,1.5205,1.4572,146.7,97.6,0.496
22.96,32407.3,35732.0,2.167,1.7959,146.7,97.6,0.496
22.98,32296.3,35592.0,1.5765,1.4519,146.7,97.6,0.496
23.0,32148.1,35425.7,0.7876,1.0435,146.7,97.6,0.496
23.02,32157.2,35270.8,0.8361,0.663,146.7,97.6,0.496
23.04,32076.8,35221.4,0.4079,0.5417,146.7,97.6,0.496
23.06,32047.5,35102.1,0.2524,0.2487,146.7,97.6,0.496
23.08,32044.1,35014.3,0.2339,0.0329,146.7,97.6,0.496
23.1,31977.0,34888.2,-0.123,-0.2768,146.7,97.6,0.496
23.12,31894.9,34802.9,-0.5599,-0.4865,146.7,97.6,0.496
23.14,31892.8,34737.1,-0.5714,-0.6481,146.7,97.6,0.496
23.16,31762.6,34712.9,-1.264,-0.7075,146.7,97.6,0.496
23.18,31933.0,34747.1,-0.3572,-0.6234,146.7,97.6,0.496
23.2,31772.8,34647.0,-1.2097,-0.8694,146.7,97.6,0.496
23.22,31784.6,34589.1,-1.1468,-1.0114,146.7,97.6,0.496
23.24,31779.1,34523.8,-1.1762,-1.1719,146.7,97.6,0.496
23.26,31732.0,34410.9,-1.427,-1.4493,146.7,97.6,0.496
23.28,31766.9,34585.9,-1.2412,-1.0194,146.7,97.6,0.496
23.3,31886.6,34863.4,-0.6042,-0.3378,146.7,97.6,0.496
23.32,32156.8,35273.5,0.8339,0.6698,146.7,97.6,0.496
23.34,32239.0,35635.0,1.2711,1.5576,146.7,97.6,0.496
23.36,32378.5,35701.9,2.0141,1.722,146.7,97.6,0.496
23.38,32252.1,35711.0,1.3412,1.7444,146.7,97.6,0.496
23.4,32195.8,35617.3,1.0417,1.5142,146.7,97.6,0.496
23.42,32196.2,35378.0,1.0436,0.9262,146.7,97.6,0.496
23.44,32047.9,35223.2,0.2543,0.5461,146.7,97.6,0.496
23.46,31980.4,35079.9,-0.1048,0.1942,146.7,97.6,0.496
23.48,31918.7,35031.0,-0.4334,0.0738,146.7,97.6,0.496
23.5,31942.9,34990.6,-0.3047,-0.0253,146.7,97.6,0.496
23.52,31933.5,34956.9,-0.3546,-0.108,146.7,97.6,0.496
23.54,31929.2,34841.0,-0.3773,-0.3928,146.7,97.6,0.496
23.56,31847.1,34646.9,-0.8143,-0.8696,146.7,97.6,0.496
23.58,31830.4,34705.4,-0.9033,-0.7258,146.7,97.6,0.496
23.6,31855.1,34612.9,-0.772,-0.9531,146.7,97.6,0.496
23.62,31817.4,34640.3,-0.9727,-0.8859,146.7,97.6,0.496
23.64,31786.5,34568.3,-1.1368,-1.0626,146.7,97.6,0.496
23.66,31774.6,34477.7,-1.2004,-1.2852,146.7,97.6,0.496
23.68,31759.0,34407.9,-1.2834,-1.4566,146.7,97.6,0.496
23.7,31834.8,34638.2,-0.8797,-0.891,146.7,97.6,0.496
23.72,32036.2,35028.6,0.1918,0.068,146.7,97.6,0.496
23.74,32267.9,35402.7,1.425,0.9869,146.7,97.6,0.496
23.76,32371.7,35635.3,1.9777,1.5583,146.7,97.6,0.496
23.78,32312.1,35678.7,1.6606,1.665,146.7,97.6,0.496
23.8,32278.5,35689.7,1.4817,1.6921,146.7,97.6,0.496
23.82,32168.3,35371.4,0.8949,0.9101,146.7,97.6,0.496
23.84,32155.4,35302.5,0.8267,0.741,146.7,97.6,0.496
23.86,31999.0,35136.2,-0.006,0.3324,146.7,97.6,0.496
23.88,31976.3,35181.8,-0.1269,0.4445,146.7,97.6,0.496
23.9,32097.8,35082.2,0.52,0.1997,146.7,97.6,0.496
23.92,31930.4,34901.3,-0.3712,-0.2447,146.7,97.6,0.496
23.94,31921.5,34800.0,-0.4186,-0.4934,146.7,97.6,0.496
23.96,31860.0,34783.6,-0.746,-0.5338,146.7,97.6,0.496
23.98,31748.3,34661.1,-1.3402,-0.8347,146.7,97.6,0.496
24.0,31860.8,34751.3,-0.7415,-0.6131,146.7,97.6,0.496
24.02,31879.0,34656.9,-0.6448,-0.845,146.7,97.6,0.496
24.04,31727.4,34369.3,-1.4514,-1.5514,146.7,97.6,0.496
24.06,31766.5,34511.6,-1.2436,-1.202,146.7,97.6,0.496
24.08,31779.6,34424.0,-1.1735,-1.4171,146.7,97.6,0.496
24.1,31753.7,34562.1,-1.3113,-1.0778,146.7,97.6,0.496
24.12,31917.2,34985.3,-0.4412,-0.0383,146.7,97.6,0.496
24.14,32163.9,35239.4,0.8719,0.5859,146.7,97.6,0.496
24.16,32229.2,35612.0,1.2194,1.5013,146.7,97.6,0.496
24.18,32340.4,35684.0,1.8113,1.678,146.7,97.6,0.496
24.2,32323.2,35742.3,1.7194,1.8211,146.7,97.6,0.496
24.22,32230.2,35517.2,1.2247,1.2683,146.7,97.6,0.496
24.24,32155.8,35251.9,0.8286,0.6165,146.7,97.6,0.496
24.26,32017.3,35177.4,0.0914,0.4335,146.7,97.6,0.496
24.28,32006.0,35096.8,0.0315,0.2355,146.7,97.6,0.496
24.3,32000.9,34982.6,0.0044,-0.0449,146.7,97.6,0.496
24.32,32017.1,34892.8,0.0904,-0.2655,146.7,97.6,0.496
24.34,31987.8,34832.1,-0.0657,-0.4146,146.7,97.6,0.496
24.36,31859.5,34773.3,-0.7482,-0.559,146.7,97.6,0.496
24.38,31926.2,34731.6,-0.3936,-0.6615,146.7,97.6,0.496
24.4,31861.1,34711.5,-0.7401,-0.7108,146.7,97.6,0.496
24.42,31889.5,34684.8,-0.5889,-0.7764,146.7,97.6,0.496
24.44,31765.0,34668.1,-1.2511,-0.8175,146.7,97.6,0.496
24.46,31723.5,34550.8,-1.472,-1.1056,146.7,97.6,0.496
24.48,31791.9,34502.5,-1.108,-1.2244,146.7,97.6,0.496
24.5,31782.2,34595.9,-1.1597,-0.9949,146.7,97.6,0.496
24.52,31949.4,34726.5,-0.2701,-0.6739,146.7,97.6,0.496
24.54,32005.2,35136.5,0.0271,0.3331,146.7,97.6,0.496
24.56,32173.4,35490.1,0.9224,1.2018,146.7,97.6,0.496
24.58,32303.0,35734.1,1.6122,1.801,146.7,97.6,0.496
24.6,32374.8,35791.6,1.9941,1.9424,146.7,97.6,0.496
24.62,32313.2,35594.7,1.6663,1.4586,146.7,97.6,0.496
24.64,32207.5,35454.6,1.104,1.1145,146.7,97.6,0.496
24.66,32210.2,35262.6,1.1182,0.643,146.7,97.6,0.496
24.68,32087.7,35228.2,0.4659,0.5584,146.7,97.6,0.496
24.7,32036.0,35076.7,0.1911,0.1863,146.7,97.6,0.496
24.72,32038.6,34906.8,0.2049,-0.231,146.7,97.6,0.496
24.74,32014.7,34890.9,0.0778,-0.2703,146.7,97.6,0.496
24.76,31854.4,34782.3,-0.7757,-0.5369,146.7,97.6,0.496
24.78,31834.9,34704.6,-0.8794,-0.7277,146.7,97.6,0.496
24.8,31875.8,34628.2,-0.6617,-0.9155,146.7,97.6,0.496
24.82,31809.3,34629.2,-1.0158,-0.9131,146.7,97.6,0.496
24.84,31765.8,34676.3,-1.2471,-0.7973,146.7,97.6,0.496
24.86,31819.2,34604.9,-0.963,-0.9727,146.7,97.6,0.496
24.88,31736.6,34443.4,-1.4026,-1.3695,146.7,97.6,0.496
24.9,31670.8,34487.2,-1.7526,-1.2619,146.7,97.6,0.496
24.92,31822.4,34623.3,-0.9459,-0.9275,146.7,97.6,0.496
24.94,31941.1,34920.7,-0.3142,-0.1969,146.7,97.6,0.496
24.96,32059.3,35226.8,0.3147,0.555,146.7,97.6,0.496
24.98,32246.8,35594.0,1.3129,1.4568,146.7,97.6,0.496
25.0,32299.6,35813.6,1.5938,1.9963,146.7,97.6,0.496
25.02,32342.1,35728.9,1.82,1.7884,146.7,97.6,0.496
25.04,32148.7,35562.2,0.791,1.3788,146.7,97.6,0.496
25.06,32143.8,35326.6,0.7647,0.8001,146.7,97.6,0.496
25.08,32020.7,35240.0,0.1095,0.5874,146.7,97.6,0.496
25.1,31999.5,35095.1,-0.0034,0.2315,146.7,97.6,0.496
25.12,31979.5,35067.8,-0.1097,0.1644,146.7,97.6,0.496
25.14,31964.1,35022.0,-0.1915,0.0518,146.7,97.6,0.496
25.16,31884.6,34906.9,-0.615,-0.2308,146.7,97.6,0.496
25.18,31906.3,34782.7,-0.4992,-0.5359,146.7,97.6,0.496
25.2,31804.2,34694.7,-1.0427,-0.7522,146.7,97.6,0.496
25.22,31821.8,34715.3,-0.9489,-0.7015,146.7,97.6,0.496
25.24,31924.1,34714.5,-0.4047,-0.7035,146.7,97.6,0.496
25.26,31759.7,34594.4,-1.2796,-0.9984,146.7,97.6,0.496
25.28,31809.4,34522.5,-1.0151,-1.1752,146.7,97.6,0.496
25.3,31760.4,34475.0,-1.2759,-1.2918,146.7,97.6,0.496
25.32,31865.6,34537.6,-0.7159,-1.1379,146.7,97.6,0.496
25.34,31869.9,34793.0,-0.693,-0.5108,146.7,97.6,0.496
25.36,32049.9,35132.9,0.2648,0.3242,146.7,97.6,0.496
25.38,32166.7,35408.7,0.8866,1.0018,146.7,97.6,0.496
25.4,32270.2,35704.1,1.4373,1.7274,146.7,97.6,0.496
25.42,32367.9,35692.4,1.9572,1.6987,146.7,97.6,0.496
25.44,32240.4,35613.6,1.2788,1.5051,146.7,97.6,0.496
25.46,32135.1,35394.9,0.7183,0.9679,146.7,97.6,0.496
25.48,32127.8,35233.4,0.6793,0.5711,146.7,97.6,0.496
25.5,31946.2,35113.7,-0.2868,0.2771,146.7,97.6,0.496
25.52,32075.1,35064.2,0.3992,0.1554,146.7,97.6,0.496
25.54,31911.4,35062.6,-0.4719,0.1517,146.7,97.6,0.496
25.56,31983.0,34959.7,-0.0911,-0.1011,146.7,97.6,0.496
25.58,31941.4,34797.7,-0.3127,-0.4993,146.7,97.6,0.496
25.6,31817.9,34788.2,-0.9697,-0.5225,146.7,97.6,0.496
25.62,31762.2,34814.4,-1.2662,-0.4581,146.7,97.6,0.496
25.64,31830.7,34643.2,-0.9015,-0.8787,146.7,97.6,0.496
25.66,31879.4,34620.4,-0.6427,-0.9347,146.7,97.6,0.496
25.68,31812.8,34570.9,-0.9971,-1.0562,146.7,97.6,0.496
25.7,31727.3,34494.8,-1.4519,-1.2431,146.7,97.6,0.496
25.72,31769.0,34449.4,-1.23,-1.3548,146.7,97.6,0.496
25.74,31880.3,34689.4,-0.6379,-0.7653,146.7,97.6,0.496
25.76,32012.1,34877.8,0.0638,-0.3025,146.7,97.6,0.496
25.78,32269.2,35344.3,1.4321,0.8436,146.7,97.6,0.496
25.8,32335.6,35634.1,1.7857,1.5553,146.7,97.6,0.496
25.82,32293.9,35785.5,1.5634,1.9273,146.7,97.6,0.496
25.84,32313.3,35727.8,1.667,1.7857,146.7,97.6,0.496
25.86,32178.9,35525.3,0.9514,1.2883,146.7,97.6,0.496
25.88,32004.1,35301.2,0.021,0.7376,146.7,97.6,0.496
25.9,32171.0,35150.8,0.9092,0.3683,146.7,97.6,0.496
25.92,32007.1,35091.9,0.0374,0.2234,146.7,97.6,0.496
25.94,32002.9,35080.5,0.0149,0.1954,146.7,97.6,0.496
25.96,31900.1,34948.5,-0.5323,-0.1286,146.7,97.6,0.496
25.98,31908.9,34885.9,-0.4854,-0.2825,146.7,97.6,0.496
26.0,31850.4,34731.5,-0.7967,-0.6618,146.7,97.6,0.496
26.02,31850.1,34685.2,-0.7983,-0.7755,146.7,97.6,0.496
26.04,31797.6,34692.0,-1.0778,-0.7589,146.7,97.6,0.496
26.06,31843.0,34679.2,-0.8362,-0.7901,146.7,97.6,0.496
26.08,31894.8,34605.1,-0.5605,-0.9724,146.7,97.6,0.496
26.1,31772.9,34461.8,-1.2095,-1.3242,146.7,97.6,0.496
26.12,31803.7,34458.0,-1.0456,-1.3337,146.7,97.6,0.496
26.14,31887.1,34580.0,-0.6018,-1.034,146.7,97.6,0.496
26.16,31903.3,34762.8,-0.5155,-0.585,146.7,97.6,0.496
26.18,32107.7,35141.4,0.5725,0.3451,146.7,97.6,0.496
26.2,32240.7,35507.5,1.2804,1.2443,146.7,97.6,0.496
26.22,32371.1,35697.7,1.9745,1.7117,146.7,97.6,0.496
26.24,32407.9,35731.4,2.1705,1.7943,146.7,97.6,0.496
26.26,32282.2,35546.8,1.5012,1.341,146.7,97.6,0.496
26.28,32119.2,35368.6,0.6336,0.9033,146.7,97.6,0.496
26.3,32152.7,35174.1,0.8121,0.4255,146.7,97.6,0.496
26.32,32018.4,35119.6,0.0975,0.2915,146.7,97.6,0.496
26.34,32000.7,35091.0,0.0031,0.2213,146.7,97.6,0.496
26.36,32005.6,35079.1,0.0293,0.1921,146.7,97.6,0.496
26.38,32014.7,34896.8,0.0775,-0.2556,146.7,97.6,0.496
26.4,31929.9,34814.9,-0.3738,-0.4569,146.7,97.6,0.496
26.42,31873.3,34652.0,-0.6748,-0.8572,146.7,97.6,0.496
26.44,31888.6,34692.8,-0.5937,-0.7568,146.7,97.6,0.496
26.46,31855.1,34662.5,-0.7719,-0.8314,146.7,97.6,0.496
26.48,31776.5,34619.3,-1.1902,-0.9374,146.7,97.6,0.496
26.5,31821.7,34492.3,-0.9495,-1.2493,146.7,97.6,0.496
26.52,31755.0,34510.5,-1.3045,-1.2046,146.7,97.6,0.496
26.54,31725.5,34543.1,-1.4617,-1.1245,146.7,97.6,0.496
26.56,31757.9,34635.5,-1.289,-0.8975,146.7,97.6,0.496
26.58,31900.5,34964.9,-0.5301,-0.0883,146.7,97.6,0.496
26.6,32245.5,35343.4,1.306,0.8414,146.7,97.6,0.496
26.62,32273.1,35729.0,1.4531,1.7886,146.7,97.6,0.496
26.64,32371.6,35822.8,1.9772,2.0189,146.7,97.6,0.496
26.66,32369.3,35657.3,1.9648,1.6123,146.7,97.6,0.496
26.68,32248.8,35420.9,1.3236,1.0316,146.7,97.6,0.496
26.7,32023.2,35247.8,0.1229,0.6066,146.7,97.6,0.496
26.72,32064.4,35111.9,0.342,0.2727,146.7,97.6,0.496
26.74,32030.8,35090.3,0.1634,0.2197,146.7,97.6,0.496
26.76,32001.9,35063.2,0.0095,0.1531,146.7,97.6,0.496
26.78,31845.4,34995.8,-0.8235,-0.0126,146.7,97.6,0.496
26.8,31975.0,34855.2,-0.1336,-0.3579,146.7,97.6,0.496
26.82,31891.0,34770.9,-0.5807,-0.5649,146.7,97.6,0.496
26.84,31892.1,34667.0,-0.5747,-0.8202,146.7,97.6,0.496
26.86,31781.9,34737.0,-1.1613,-0.6481,146.7,97.6,0.496
26.88,31903.0,34614.2,-0.5168,-0.9498,146.7,97.6,0.496
26.9,31923.0,34676.3,-0.4102,-0.7974,146.7,97.6,0.496
26.92,31785.4,34558.6,-1.1425,-1.0866,146.7,97.6,0.496
26.94,31738.6,34423.8,-1.3919,-1.4175,146.7,97.6,0.496
26.96,31814.2,34505.0,-0.9895,-1.2182,146.7,97.6,0.496
26.98,31875.9,34915.4,-0.661,-0.2101,146.7,97.6,0.496
27.0,32125.2,35148.4,0.6657,0.3622,146.7,97.6,0.496
27.02,32206.8,35527.8,1.1002,1.2943,146.7,97.6,0.496
27.04,32379.8,35733.7,2.0207,1.8,146.7,97.6,0.496
27.06,32366.6,35687.0,1.9504,1.6855,146.7,97.6,0.496
27.08,32292.4,35631.0,1.5558,1.5477,146.7,97.6,0.496
27.1,32207.7,35325.0,1.1048,0.7961,146.7,97.6,0.496
27.12,32026.3,35198.1,0.1395,0.4844,146.7,97.6,0.496
27.14,31977.7,35184.7,-0.1194,0.4516,146.7,97.6,0.496
27.16,32016.4,35103.2,0.0867,0.2512,146.7,97.6,0.496
27.18,32018.8,34957.4,0.0996,-0.107,146.7,97.6,0.496
27.2,32014.1,34865.2,0.0746,-0.3334,146.7,97.6,0.496
27.22,31936.4,34762.6,-0.3393,-0.5853,146.7,97.6,0.496
27.24,31829.5,34704.7,-0.9083,-0.7276,146.7,97.6,0.496
27.26,31980.3,34596.1,-0.1052,-0.9944,146.7,97.6,0.496
27.28,31820.7,34645.3,-0.9548,-0.8736,146.7,97.6,0.496
27.3,31875.2,34711.6,-0.6646,-0.7105,146.7,97.6,0.496
27.32,31747.2,34491.9,-1.3463,-1.2503,146.7,97.6,0.496
27.34,31780.0,34441.1,-1.1714,-1.3751,146.7,97.6,0.496
27.36,31709.2,34506.9,-1.5485,-1.2135,146.7,97.6,0.496
27.38,31851.1,34750.5,-0.7933,-0.6151,146.7,97.6,0.496
27.4,32035.2,35001.3,0.1868,0.0009,146.7,97.6,0.496
27.42,32124.9,35431.6,0.6643,1.0579,146.7,97.6,0.496
27.44,32198.3,35652.5,1.0548,1.6005,146.7,97.6,0.496
27.46,32385.7,35870.9,2.0522,2.137,146.7,97.6,0.496
27.48,32299.7,35750.0,1.5945,1.8401,146.7,97.6,0.496
27.5,32203.0,35488.1,1.0799,1.1969,146.7,97.6,0.496
27.52,32209.5,35346.9,1.1146,0.85,146.7,97.6,0.496
27.54,32103.8,35159.0,0.5518,0.3884,146.7,97.6,0.496
27.56,32066.1,35134.6,0.351,0.3285,146.7,97.6,0.496
27.58,32046.2,35029.8,0.2451,0.071,146.7,97.6,0.496
27.6,31944.0,34948.3,-0.2985,-0.1291,146.7,97.6,0.496
27.62,31916.2,34777.2,-0.4465,-0.5495,146.7,97.6,0.496
27.64,31851.6,34664.5,-0.7906,-0.8264,146.7,97.6,0.496
27.66,31907.9,34693.2,-0.4906,-0.7558,146.7,97.6,0.496
27.68,31874.5,34705.5,-0.6686,-0.7255,146.7,97.6,0.496
27.7,31888.6,34623.8,-0.5936,-0.9264,146.7,97.6,0.496
27.72,31807.9,34624.9,-1.023,-0.9235,146.7,97.6,0.496
27.74,31718.0,34560.9,-1.5013,-1.0809,146.7,97.6,0.496
27.76,31662.6,34492.6,-1.7961,-1.2486,146.7,97.6,0.496
27.78,31883.3,34606.2,-0.6218,-0.9696,146.7,97.6,0.496
27.8,31949.1,34880.3,-0.2718,-0.2963,146.7,97.6,0.496
27.82,32113.7,35283.3,0.6047,0.6936,146.7,97.6,0.496
27.84,32276.1,35541.0,1.4689,1.3267,146.7,97.6,0.496
27.86,32386.7,35705.0,2.0577,1.7295,146.7,97.6,0.496
27.88,32313.3,35707.3,1.667,1.7351,146.7,97.6,0.496
27.9,32319.6,35641.4,1.7004,1.5735,146.7,97.6,0.496
27.92,32132.3,35393.1,0.7035,0.9635,146.7,97.6,0.496
27.94,32080.0,35243.9,0.4249,0.5968,146.7,97.6,0.496
27.96,32015.4,35065.2,0.0811,0.158,146.7,97.6,0.496
27.98,31966.9,35123.8,-0.1769,0.3019,146.7,97.6,0.496
28.0,32057.6,35007.6,0.306,0.0166,146.7,97.6,0.496
28.02,32024.1,34908.7,0.1274,-0.2266,146.7,97.6,0.496
28.04,31798.6,34760.0,-1.0725,-0.5918,146.7,97.6,0.496
28.06,31836.1,34732.3,-0.873,-0.6599,146.7,97.6,0.496
28.08,31838.2,34601.4,-0.8619,-0.9812,146.7,97.6,0.496
28.1,31877.8,34723.0,-0.6509,-0.6826,146.7,97.6,0.496
28.12,31918.4,34612.9,-0.435,-0.9532,146.7,97.6,0.496
28.14,31788.6,34609.2,-1.126,-0.9621,146.7,97.6,0.496
28.16,31781.7,34451.9,-1.1627,-1.3486,146.7,97.6,0.496
28.18,31723.6,34412.6,-1.472,-1.4452,146.7,97.6,0.496
28.2,31789.5,34685.0,-1.1211,-0.776,146.7,97.6,0.496
28.22,32005.8,34989.1,0.0303,-0.0289,146.7,97.6,0.496
28.24,32099.4,35518.3,0.5285,1.2709,146.7,97.6,0.496
28.26,32328.9,35627.1,1.7501,1.5383,146.7,97.6,0.496
28.28,32300.8,35846.5,1.6003,2.0772,146.7,97.6,0.496
28.3,32332.2,35642.9,1.7672,1.577,146.7,97.6,0.496
28.32,32194.2,35470.7,1.0329,1.154,146.7,97.6,0.496
28.34,32153.9,35233.1,0.8184,0.5703,146.7,97.6,0.496
28.36,32038.4,35164.0,0.2039,0.4006,146.7,97.6,0.496
28.38,32116.4,35033.0,0.6187,0.079,146.7,97.6,0.496
28.4,32056.2,35026.5,0.2984,0.0628,146.7,97.6,0.496
28.42,32076.6,34978.8,0.407,-0.0542,146.7,97.6,0.496
28.44,31927.1,34801.8,-0.3885,-0.4891,146.7,97.6,0.496
28.46,31866.9,34669.2,-0.7093,-0.8147,146.7,97.6,0.496
28.48,31846.9,34670.3,-0.8156,-0.812,146.7,97.6,0.496
28.5,31849.9,34703.1,-0.7993,-0.7315,146.7,97.6,0.496
28.52,31872.7,34684.2,-0.6783,-0.7778,146.7,97.6,0.496
28.54,31685.2,34508.6,-1.676,-1.2093,146.7,97.6,0.496
28.56,31687.2,34509.3,-1.6653,-1.2077,146.7,97.6,0.496
28.58,31725.5,34419.9,-1.4616,-1.4273,146.7,97.6,0.496
28.6,31790.0,34672.7,-1.1186,-0.8063,146.7,97.6,0.496
28.62,32034.6,34889.3,0.1836,-0.2741,146.7,97.6,0.496
28.64,32118.3,35291.1,0.6292,0.7129,146.7,97.6,0.496
28.66,32306.7,35614.9,1.6319,1.5084,146.7,97.6,0.496
28.68,32328.9,35769.3,1.7501,1.8875,146.7,97.6,0.496
28.7,32248.7,35740.8,1.323,1.8175,146.7,97.6,0.496
28.72,32168.3,35560.0,0.8951,1.3733,146.7,97.6,0.496
28.74,32140.4,35427.8,0.7467,1.0488,146.7,97.6,0.496
28.76,32070.7,35244.2,0.3758,0.5977,146.7,97.6,0.496
28.78,32086.9,35147.7,0.4619,0.3605,146.7,97.6,0.496
28.8,31963.6,34986.1,-0.1942,-0.0365,146.7,97.6,0.496
28.82,31886.2,35017.6,-0.6062,0.0411,146.7,97.6,0.496
28.84,31892.8,34836.7,-0.5714,-0.4032,146.7,97.6,0.496
28.86,31824.9,34740.8,-0.9326,-0.639,146.7,97.6,0.496
28.88,31881.9,34754.1,-0.629,-0.6062,146.7,97.6,0.496
28.9,31976.4,34669.4,-0.126,-0.8144,146.7,97.6,0.496
28.92,31874.5,34608.9,-0.6685,-0.963,146.7,97.6,0.496
28.94,31827.6,34667.8,-0.9181,-0.8182,146.7,97.6,0.496
28.96,31744.6,34557.5,-1.3599,-1.0891,146.7,97.6,0.496
28.98,31662.0,34434.1,-1.7997,-1.3923,146.7,97.6,0.496
29.0,31801.5,34523.3,-1.057,-1.1733,146.7,97.6,0.496
29.02,31918.4,34672.9,-0.435,-0.8058,146.7,97.6,0.496
29.04,32000.3,34986.8,0.0011,-0.0346,146.7,97.6,0.496
29.06,32252.0,35421.6,1.3406,1.0335,146.7,97.6,0.496
29.08,32254.6,35749.2,1.3544,1.8382,146.7,97.6,0.496
29.1,32311.3,35771.9,1.6562,1.894,146.7,97.6,0.496
29.12,32274.6,35709.8,1.4607,1.7413,146.7,97.6,0.496
29.14,32157.5,35418.6,0.8375,1.026,146.7,97.6,0.496
29.16,32069.4,35156.4,0.3686,0.382,146.7,97.6,0.496
29.18,32001.2,35200.8,0.0057,0.4911,146.7,97.6,0.496
29.2,32039.9,35141.5,0.2119,0.3454,146.7,97.6,0.496
29.22,32037.7,35032.3,0.2,0.0771,146.7,97.6,0.496
29.24,31920.7,34891.8,-0.423,-0.268,146.7,97.6,0.496
29.26,31962.1,34895.1,-0.2024,-0.2599,146.7,97.6,0.496
29.28,31913.7,34681.4,-0.4599,-0.7849,146.7,97.6,0.496
29.3,31874.4,34703.3,-0.6692,-0.7311,146.7,97.6,0.496
29.32,31817.6,34718.8,-0.9715,-0.6928,146.7,97.6,0.496
29.34,31790.1,34653.6,-1.1179,-0.8531,146.7,97.6,0.496
29.36,31860.7,34576.5,-0.7423,-1.0425,146.7,97.6,0.496
29.38,31736.6,34385.6,-1.4023,-1.5113,146.7,97.6,0.496
29.4,31728.9,34403.9,-1.4437,-1.4666,146.7,97.6,0.496
29.42,31916.7,34658.7,-0.4442,-0.8405,146.7,97.6,0.496
29.44,32107.9,34953.2,0.5738,-0.1172,146.7,97.6,0.496
29.46,32088.9,35305.7,0.4724,0.7489,146.7,97.6,0.496
29.48,32311.6,35703.6,1.658,1.7261,146.7,97.6,0.496
29.5,32330.7,35769.1,1.7597,1.887,146.7,97.6,0.496
29.52,32307.4,35654.2,1.6356,1.6049,146.7,97.6,0.496
29.54,32140.6,35523.8,0.7476,1.2845,146.7,97.6,0.496
29.56,32126.1,35303.2,0.6707,0.7425,146.7,97.6,0.496
29.58,32068.2,35202.1,0.3626,0.4942,146.7,97.6,0.496
29.6,32033.0,35102.0,0.1748,0.2484,146.7,97.6,0.496
29.62,32129.5,35016.0,0.6888,0.037,146.7,97.6,0.496
29.64,32020.2,34934.7,0.1071,-0.1626,146.7,97.6,0.496
29.66,31974.3,34856.6,-0.1375,-0.3544,146.7,97.6,0.496
29.68,31891.5,34724.3,-0.5782,-0.6794,146.7,97.6,0.496
29.7,31823.9,34673.3,-0.9377,-0.8048,146.7,97.6,0.496
29.72,31858.7,34618.5,-0.7524,-0.9394,146.7,97.6,0.496
29.74,31852.8,34764.2,-0.7842,-0.5814,146.7,97.6,0.496
29.76,31822.9,34609.7,-0.9433,-0.9609,146.7,97.6,0.496
29.78,31740.0,34437.2,-1.3845,-1.3846,146.7,97.6,0.496
29.8,31784.7,34429.3,-1.1464,-1.4041,146.7,97.6,0.496
29.82,31810.4,34489.0,-1.0098,-1.2574,146.7,97.6,0.496
29.84,31904.1,34791.9,-0.511,-0.5135,146.7,97.6,0.496
29.86,32045.6,35007.0,0.2418,0.0151,146.7,97.6,0.496
29.88,32286.7,35417.3,1.5255,1.0228,146.7,97.6,0.496
29.9,32342.8,35777.0,1.824,1.9066,146.7,97.6,0.496
29.92,32391.5,35704.8,2.0832,1.7292,146.7,97.6,0.496
29.94,32269.3,35538.8,1.4325,1.3214,146.7,97.6,0.496
29.96,32118.7,35423.2,0.6313,1.0373,146.7,97.6,0.496
29.98,32154.2,35272.9,0.8198,0.6682,146.7,97.6,0.496
30.0,32036.0,35188.9,0.1911,0.4618,146.7,97.6,0.496
30.02,32001.0,35147.2,0.0049,0.3594,146.7,97.6,0.496
30.04,32006.8,35076.3,0.0358,0.1852,146.7,97.6,0.496
30.06,32057.9,34964.9,0.3076,-0.0885,146.7,97.6,0.496
30.08,31866.2,34833.6,-0.713,-0.4109,146.7,97.6,0.496
30.1,31829.7,34720.3,-0.9068,-0.6894,146.7,97.6,0.496
30.12,31878.5,34747.2,-0.6472,-0.6231,146.7,97.6,0.496
30.14,31833.7,34700.6,-0.8855,-0.7375,146.7,97.6,0.496
30.16,31910.0,34690.6,-0.4794,-0.7623,146.7,97.6,0.496
30.18,31829.4,34529.2,-0.9088,-1.1586,146.7,97.6,0.496
30.2,31813.7,34355.9,-0.9919,-1.5845,146.7,97.6,0.496
30.22,31748.3,34411.3,-1.3402,-1.4483,146.7,97.6,0.496
30.24,31865.4,34639.2,-0.7171,-0.8884,146.7,97.6,0.496
30.26,32007.5,34940.3,0.0393,-0.1488,146.7,97.6,0.496
30.28,32182.6,35303.9,0.9713,0.7442,146.7,97.6,0.496
30.3,32311.8,35765.0,1.6588,1.877,146.7,97.6,0.496
30.32,32287.3,35731.0,1.5286,1.7934,146.7,97.6,0.496
30.34,32347.7,35738.0,1.8501,1.8107,146.7,97.6,0.496
30.36,32309.5,35394.2,1.6464,0.9662,146.7,97.6,0.496
30.38,32166.6,35250.5,0.8861,0.6132,146.7,97.6,0.496
30.4,32126.2,35126.0,0.6712,0.3073,146.7,97.6,0.496
30.42,32096.1,35017.6,0.511,0.0411,146.7,97.6,0.496
30.44,31916.4,35031.1,-0.4453,0.0742,146.7,97.6,0.496
30.46,32054.3,34929.5,0.2882,-0.1753,146.7,97.6,0.496
30.48,31933.2,34797.5,-0.3563,-0.4995,146.7,97.6,0.496
30.5,31875.6,34664.1,-0.663,-0.8272,146.7,97.6,0.496
30.52,31871.9,34618.0,-0.6824,-0.9405,146.7,97.6,0.496
30.54,31814.1,34724.5,-0.9903,-0.6789,146.7,97.6,0.496
30.56,31815.2,34625.5,-0.9843,-0.9221,146.7,97.6,0.496
30.58,31852.5,34698.4,-0.7855,-0.743,146.7,97.6,0.496
30.6,31741.6,34554.0,-1.3757,-1.0977,146.7,97.6,0.496
30.62,31796.9,34427.3,-1.0817,-1.409,146.7,97.6,0.496
30.64,31832.4,34608.2,-0.8926,-0.9647,146.7,97.6,0.496
30.66,31823.2,34866.7,-0.9419,-0.3295,146.7,97.6,0.496
30.68,32025.6,35138.3,0.1356,0.3375,146.7,97.6,0.496
30.7,32231.0,35513.0,1.2287,1.258,146.7,97.6,0.496
30.72,32240.0,35769.3,1.2767,1.8874,146.7,97.6,0.496
30.74,32297.5,35788.9,1.5827,1.9357,146.7,97.6,0.496
30.76,32259.3,35668.5,1.3795,1.6399,146.7,97.6,0.496
30.78,32269.5,35347.6,1.434,0.8516,146.7,97.6,0.496
30.8,32051.0,35211.9,0.2709,0.5182,146.7,97.6,0.496
30.82,32090.8,35083.4,0.4824,0.2027,146.7,97.6,0.496
30.84,32063.8,35020.5,0.3388,0.0481,146.7,97.6,0.496
30.86,32015.1,35097.7,0.0795,0.2379,146.7,97.6,0.496
30.88,31921.2,34952.5,-0.4202,-0.1188,146.7,97.6,0.496
30.9,31936.5,34839.7,-0.3388,-0.3959,146.7,97.6,0.496
30.92,31858.4,34709.4,-0.754,-0.7159,146.7,97.6,0.496
30.94,31780.1,34615.3,-1.1712,-0.9473,146.7,97.6,0.496
30.96,31732.9,34628.9,-1.4221,-0.9138,146.7,97.6,0.496
30.98,31838.2,34608.1,-0.862,-0.9648,146.7,97.6,0.496
31.0,31817.4,34520.1,-0.9723,-1.1809,146.7,97.6,0.496
31.02,31778.0,34408.8,-1.1822,-1.4545,146.7,97.6,0.496
31.04,31805.9,34466.4,-1.0334,-1.3131,146.7,97.6,0.496
31.06,31856.7,34655.0,-0.7634,-0.8496,146.7,97.6,0.496
31.08,31966.5,34940.3,-0.1789,-0.149,146.7,97.6,0.496
31.1,32209.2,35313.4,1.1127,0.7677,146.7,97.6,0.496
31.12,32338.5,35722.5,1.8009,1.7726,146.7,97.6,0.496
31.14,32410.6,35669.5,2.1846,1.6424,146.7,97.6,0.496
31.16,32263.9,35789.0,1.4039,1.9359,146.7,97.6,0.496
31.18,32204.2,35419.3,1.0861,1.0278,146.7,97.6,0.496
31.2,32080.1,35342.1,0.4257,0.8382,146.7,97.6,0.496
31.22,32031.6,35191.1,0.1675,0.4673,146.7,97.6,0.496
31.24,32053.5,35069.8,0.2842,0.1694,146.7,97.6,0.496
31.26,32086.0,35065.2,0.4569,0.1579,146.7,97.6,0.496
31.28,32058.3,34972.1,0.3098,-0.0708,146.7,97.6,0.496
31.3,32050.1,34902.3,0.2659,-0.2423,146.7,97.6,0.496
31.32,31902.6,34822.4,-0.5189,-0.4386,146.7,97.6,0.496
31.34,31792.3,34646.3,-1.1063,-0.871,146.7,97.6,0.496
31.36,31922.0,34679.6,-0.4159,-0.7892,146.7,97.6,0.496
31.38,31784.8,34634.4,-1.1459,-0.9002,146.7,97.6,0.496
31.4,31805.7,34555.6,-1.0346,-1.0939,146.7,97.6,0.496
31.42,31783.8,34594.2,-1.1513,-0.9991,146.7,97.6,0.496
31.44,31755.9,34392.3,-1.2998,-1.4951,146.7,97.6,0.496
31.46,31863.6,34517.6,-0.7264,-1.1871,146.7,97.6,0.496
31.48,31912.2,34773.6,-0.468,-0.5582,146.7,97.6,0.496
31.5,32064.5,35149.2,0.3426,0.3643,146.7,97.6,0.496
31.52,32256.7,35502.6,1.3657,1.2324,146.7,97.6,0.496
31.54,32304.1,35671.9,1.6178,1.6483,146.7,97.6,0.496
31.56,32266.0,35764.6,1.4149,1.8761,146.7,97.6,0.496
31.58,32228.0,35588.4,1.2127,1.4431,146.7,97.6,0.496
31.6,32197.2,35406.2,1.0487,0.9957,146.7,97.6,0.496
31.62,31979.1,35149.7,-0.1117,0.3655,146.7,97.6,0.496
31.64,32040.6,35029.1,0.2157,0.0693,146.7,97.6,0.496
31.66,32067.1,35092.2,0.3567,0.2244,146.7,97.6,0.496
31.68,32052.9,35095.1,0.2808,0.2313,146.7,97.6,0.496
31.7,32019.3,34848.6,0.1022,-0.3741,146.7,97.6,0.496
31.72,31895.2,34774.2,-0.5583,-0.5568,146.7,97.6,0.496
31.74,31964.3,34681.6,-0.1908,-0.7844,146.7,97.6,0.496
31.76,31961.9,34644.4,-0.2036,-0.8757,146.7,97.6,0.496
31.78,31911.3,34590.9,-0.4725,-1.0071,146.7,97.6,0.496
31.8,31739.4,34695.1,-1.3876,-0.7513,146.7,97.6,0.496
31.82,31821.4,34512.0,-0.9513,-1.2009,146.7,97.6,0.496
31.84,31842.2,34437.7,-0.8403,-1.3835,146.7,97.6,0.496
31.86,31741.9,34509.6,-1.3744,-1.2068,146.7,97.6,0.496
31.88,31894.8,34612.7,-0.5604,-0.9536,146.7,97.6,0.496
31.9,32059.6,35039.5,0.3166,0.0949,146.7,97.6,0.496
31.92,32196.2,35322.6,1.0436,0.7904,146.7,97.6,0.496
31.94,32368.9,35625.4,1.9626,1.5341,146.7,97.6,0.496
31.96,32373.9,35813.6,1.9894,1.9965,146.7,97.6,0.496
31.98,32283.2,35690.6,1.5066,1.6943,146.7,97.6,0.496
32.0,32145.2,35425.1,0.7722,1.0421,146.7,97.6,0.496
32.02,32156.6,35245.9,0.8329,0.6018,146.7,97.6,0.496
32.04,32146.6,35259.2,0.7794,0.6346,146.7,97.6,0.496
32.06,32005.5,35058.6,0.0284,0.1418,146.7,97.6,0.496
32.08,31980.1,34989.1,-0.1067,-0.029,146.7,97.6,0.496
32.1,31877.5,34938.5,-0.6524,-0.1532,146.7,97.6,0.496
32.12,31883.4,34800.4,-0.621,-0.4926,146.7,97.6,0.496
32.14,31893.0,34733.8,-0.5703,-0.656,146.7,97.6,0.496
32.16,31889.3,34719.8,-0.5898,-0.6906,146.7,97.6,0.496
32.18,31821.0,34658.4,-0.9531,-0.8413,146.7,97.6,0.496
32.2,31901.0,34713.6,-0.5277,-0.7057,146.7,97.6,0.496
32.22,31816.4,34554.8,-0.978,-1.0959,146.7,97.6,0.496
32.24,31678.8,34503.4,-1.7104,-1.2222,146.7,97.6,0.496
32.26,31743.3,34452.3,-1.3667,-1.3475,146.7,97.6,0.496
32.28,31799.8,34540.7,-1.0664,-1.1305,146.7,97.6,0.496
32.3,31956.2,34786.0,-0.2336,-0.5278,146.7,97.6,0.496
32.32,32087.9,35178.9,0.4671,0.4372,146.7,97.6,0.496
32.34,32259.7,35560.5,1.3814,1.3746,146.7,97.6,0.496
32.36,32399.0,35710.9,2.1232,1.744,146.7,97.6,0.496
32.38,32301.5,35746.5,1.6042,1.8314,146.7,97.6,0.496
32.4,32182.6,35642.9,0.971,1.577,146.7,97.6,0.496
32.42,32147.1,35402.0,0.7822,0.9854,146.7,97.6,0.496
32.44,32071.5,35206.4,0.38,0.5049,146.7,97.6,0.496
32.46,32056.0,35073.4,0.2974,0.1781,146.7,97.6,0.496
32.48,32066.2,35024.1,0.3516,0.0569,146.7,97.6,0.496
32.5,32027.3,34990.6,0.1444,-0.0253,146.7,97.6,0.496
32.52,32003.2,34819.8,0.0163,-0.4448,146.7,97.6,0.496
32.54,31856.5,34712.1,-0.7642,-0.7094,146.7,97.6,0.496
32.56,31893.6,34730.4,-0.5667,-0.6646,146.7,97.6,0.496
32.58,31874.6,34644.4,-0.668,-0.8757,146.7,97.6,0.496
32.6,31792.6,34561.4,-1.1047,-1.0796,146.7,97.6,0.496
32.62,31743.0,34590.2,-1.3685,-1.0089,146.7,97.6,0.496
32.64,31829.9,34549.7,-0.9061,-1.1083,146.7,97.6,0.496
32.66,31755.4,34361.6,-1.3025,-1.5703,146.7,97.6,0.496
32.68,31730.2,34495.6,-1.4364,-1.2411,146.7,97.6,0.496
32.7,31810.8,34664.2,-1.0077,-0.827,146.7,97.6,0.496
32.72,32011.8,35041.6,0.062,0.1001,146.7,97.6,0.496
32.74,32204.4,35432.7,1.0874,1.0608,146.7,97.6,0.496
32.76,32170.0,35694.3,0.9044,1.7032,146.7,97.6,0.496
32.78,32392.8,35753.5,2.0899,1.8487,146.7,97.6,0.496
32.8,32265.9,35658.3,1.4148,1.6148,146.7,97.6,0.496
32.82,32252.5,35435.2,1.3431,1.067,146.7,97.6,0.496
32.84,32170.2,35230.4,0.905,0.5637,146.7,97.6,0.496
32.86,32152.8,35124.4,0.8128,0.3033,146.7,97.6,0.496
32.88,32001.3,35144.2,0.0064,0.352,146.7,97.6,0.496
32.9,32003.4,34928.7,0.0172,-0.1773,146.7,97.6,0.496
32.92,31925.7,34949.6,-0.3962,-0.1259,146.7,97.6,0.496
32.94,31837.0,34801.5,-0.8684,-0.4898,146.7,97.6,0.496
32.96,31904.7,34720.5,-0.508,-0.6887,146.7,97.6,0.496
32.98,31935.6,34671.4,-0.3434,-0.8095,146.7,97.6,0.496
33.0,31805.9,34694.7,-1.0336,-0.7521,146.7,97.6,0.496
33.02,31816.0,34670.8,-0.9801,-0.811,146.7,97.6,0.496
33.04,31855.3,34578.6,-0.7706,-1.0374,146.7,97.6,0.496
33.06,31785.2,34415.8,-1.1437,-1.4372,146.7,97.6,0.496
33.08,31830.4,34407.4,-0.9034,-1.4578,146.7,97.6,0.496
33.1,31772.6,34572.0,-1.2112,-1.0537,146.7,97.6,0.496
33.12,31983.6,34872.0,-0.0879,-0.3166,146.7,97.6,0.496
33.14,32105.2,35272.2,0.5594,0.6666,146.7,97.6,0.496
33.16,32224.5,35607.9,1.1945,1.4912,146.7,97.6,0.496
33.18,32244.0,35768.9,1.2978,1.8865,146.7,97.6,0.496
33.2,32353.7,35659.6,1.8821,1.6182,146.7,97.6,0.496
33.22,32216.5,35544.6,1.1516,1.3357,146.7,97.6,0.496
33.24,32136.3,35320.7,0.7247,0.7856,146.7,97.6,0.496
33.26,32033.1,35103.2,0.1756,0.2513,146.7,97.6,0.496
33.28,32159.7,35110.2,0.8494,0.2685,146.7,97.6,0.496
33.3,31907.0,34989.8,-0.4954,-0.0273,146.7,97.6,0.496
33.32,31942.4,35063.7,-0.3071,0.1542,146.7,97.6,0.496
33.34,31965.6,34878.7,-0.1838,-0.3001,146.7,97.6,0.496
33.36,31855.2,34755.3,-0.7713,-0.6032,146.7,97.6,0.496
33.38,31935.3,34744.5,-0.3449,-0.6299,146.7,97.6,0.496
33.4,31788.8,34614.1,-1.1246,-0.9502,146.7,97.6,0.496
33.42,31830.5,34693.2,-0.9029,-0.7559,146.7,97.6,0.496
33.44,31757.9,34717.5,-1.289,-0.6962,146.7,97.6,0.496
33.46,31717.8,34474.1,-1.5028,-1.294,146.7,97.6,0.496
33.48,31754.5,34555.8,-1.3074,-1.0933,146.7,97.6,0.496
33.5,31785.7,34483.4,-1.1411,-1.2713,146.7,97.6,0.496
33.52,31874.5,34703.0,-0.6685,-0.7318,146.7,97.6,0.496
33.54,31996.3,35060.8,-0.0203,0.1471,146.7,97.6,0.496
33.56,32120.3,35500.6,0.6398,1.2274,146.7,97.6,0.496
33.58,32334.2,35692.2,1.7782,1.6982,146.7,97.6,0.496
33.6,32295.0,35599.9,1.5694,1.4715,146.7,97.6,0.496
33.62,32215.4,35636.1,1.1458,1.5603,146.7,97.6,0.496
33.64,32206.8,35482.4,1.1,1.1829,146.7,97.6,0.496
33.66,32136.6,35210.4,0.7263,0.5148,146.7,97.6,0.496
33.68,32057.7,35154.9,0.3067,0.3783,146.7,97.6,0.496
33.7,31908.3,35080.2,-0.4887,0.1949,146.7,97.6,0.496
33.72,31941.7,34964.2,-0.3107,-0.0902,146.7,97.6,0.496
33.74,31935.8,34948.5,-0.3423,-0.1286,146.7,97.6,0.496
33.76,31959.3,34810.1,-0.2172,-0.4686,146.7,97.6,0.496
33.78,31837.1,34747.0,-0.8679,-0.6237,146.7,97.6,0.496
33.8,31837.0,34635.0,-0.8682,-0.8987,146.7,97.6,0.496
33.82,31834.8,34625.6,-0.88,-0.9219,146.7,97.6,0.496
33.84,31835.2,34585.2,-0.8775,-1.0212,146.7,97.6,0.496
33.86,31704.6,34537.7,-1.5731,-1.1378,146.7,97.6,0.496
33.88,31761.2,34472.2,-1.2716,-1.2988,146.7,97.6,0.496
33.9,31701.2,34456.4,-1.591,-1.3375,146.7,97.6,0.496
33.92,31743.3,34700.9,-1.367,-0.737,146.7,97.6,0.496
33.94,31980.0,34913.0,-0.107,-0.216,146.7,97.6,0.496
33.96,32141.1,35265.1,0.7505,0.649,146.7,97.6,0.496
33.98,32268.0,35670.6,1.4257,1.6451,146.7,97.6,0.496
34.0,32288.0,35736.5,1.5324,1.807,146.7,97.6,0.496
34.02,32405.6,35685.3,2.1578,1.6811,146.7,97.6,0.496
34.04,32149.8,35548.3,0.7967,1.3448,146.7,97.6,0.496
34.06,32103.7,35343.0,0.5512,0.8403,146.7,97.6,0.496
34.08,32039.2,35154.6,0.2079,0.3775,146.7,97.6,0.496
34.1,32003.4,35113.4,0.0173,0.2765,146.7,97.6,0.496
34.12,31992.9,35067.3,-0.0382,0.1631,146.7,97.6,0.496
34.14,32038.3,34959.9,0.2031,-0.1006,146.7,97.6,0.496
34.16,31860.4,34736.0,-0.7437,-0.6508,146.7,97.6,0.496
34.18,31844.0,34723.9,-0.8307,-0.6804,146.7,97.6,0.496
34.2,31823.5,34683.8,-0.9401,-0.7789,146.7,97.6,0.496
34.22,31805.8,34547.0,-1.0341,-1.1149,146.7,97.6,0.496
34.24,31851.6,34684.6,-0.7903,-0.7771,146.7,97.6,0.496
34.26,31819.7,34491.6,-0.9603,-1.251,146.7,97.6,0.496
34.28,31790.6,34480.1,-1.1153,-1.2793,146.7,97.6,0.496
34.3,31770.2,34388.6,-1.2238,-1.5041,146.7,97.6,0.496
34.32,31828.6,34472.9,-0.9127,-1.2969,146.7,97.6,0.496
34.34,31896.2,34775.4,-0.553,-0.554,146.7,97.6,0.496
34.36,32096.8,35057.6,0.5148,0.1392,146.7,97.6,0.496
34.38,32268.9,35533.6,1.4303,1.3087,146.7,97.6,0.496
34.4,32369.4,35756.3,1.9656,1.8557,146.7,97.6,0.496
34.42,32344.0,35791.0,1.8302,1.9408,146.7,97.6,0.496
34.44,32295.8,35609.0,1.5739,1.4939,146.7,97.6,0.496
34.46,32175.7,35465.9,0.9346,1.1422,146.7,97.6,0.496
34.48,32012.5,35202.1,0.0657,0.4943,146.7,97.6,0.496
34.5,32054.1,35070.0,0.2876,0.1698,146.7,97.6,0.496
34.52,32040.9,35056.0,0.217,0.1353,146.7,97.6,0.496
34.54,32013.6,34961.9,0.0719,-0.0959,146.7,97.6,0.496
34.56,31979.5,34946.2,-0.1098,-0.1343,146.7,97.6,0.496
34.58,31928.9,34729.5,-0.3792,-0.6668,146.7,97.6,0.496
34.6,31838.5,34693.5,-0.86,-0.7552,146.7,97.6,0.496
34.62,31924.4,34702.4,-0.4029,-0.7332,146.7,97.6,0.496
34.64,31865.8,34573.8,-0.7151,-1.049,146.7,97.6,0.496
34.66,31884.8,34670.7,-0.6139,-0.8111,146.7,97.6,0.496
34.68,31785.5,34540.5,-1.1423,-1.1309,146.7,97.6,0.496
34.7,31791.0,34394.2,-1.1132,-1.4903,146.7,97.6,0.496
34.72,31830.5,34450.2,-0.9027,-1.3528,146.7,97.6,0.496
34.74,31923.3,34696.0,-0.4088,-0.7489,146.7,97.6,0.496
34.76,31905.0,34880.5,-0.5062,-0.2956,146.7,97.6,0.496
34.78,32120.2,35290.8,0.6392,0.7122,146.7,97.6,0.496
34.8,32239.4,35590.4,1.2733,1.448,146.7,97.6,0.496
34.82,32325.9,35784.7,1.734,1.9253,146.7,97.6,0.496
34.84,32313.9,35746.3,1.6699,1.8311,146.7,97.6,0.496
34.86,32101.4,35512.2,0.5391,1.2561,146.7,97.6,0.496
34.88,32210.6,35298.6,1.1201,0.7313,146.7,97.6,0.496
34.9,32097.7,35143.3,0.5195,0.3499,146.7,97.6,0.496
34.92,32074.1,35051.4,0.3937,0.1242,146.7,97.6,0.496
34.94,31966.5,34941.3,-0.1788,-0.1464,146.7,97.6,0.496
34.96,32016.0,34961.1,0.0843,-0.0978,146.7,97.6,0.496
34.98,31864.5,34801.5,-0.7217,-0.4898,146.7,97.6,0.496
35.0,31861.6,34810.2,-0.7373,-0.4684,146.7,97.6,0.496
35.02,31904.4,34690.1,-0.5097,-0.7635,146.7,97.6,0.496
35.04,31745.2,34598.9,-1.3567,-0.9874,146.7,97.6,0.496
35.06,31878.1,34697.5,-0.6495,-0.7453,146.7,97.6,0.496
35.08,31764.0,34584.4,-1.2567,-1.0232,146.7,97.6,0.496
35.1,31665.8,34526.3,-1.7791,-1.1659,146.7,97.6,0.496
35.12,31806.1,34402.7,-1.0327,-1.4695,146.7,97.6,0.496
35.14,31808.5,34494.6,-1.02,-1.2436,146.7,97.6,0.496
35.16,31873.9,34726.5,-0.672,-0.674,146.7,97.6,0.496
35.18,32038.8,35219.4,0.2061,0.5368,146.7,97.6,0.496
35.2,32268.1,35593.0,1.4261,1.4545,146.7,97.6,0.496
35.22,32318.3,35705.2,1.6932,1.73,146.7,97.6,0.496
35.24,32369.3,35721.9,1.965,1.7711,146.7,97.6,0.496
35.26,32176.6,35544.4,0.9392,1.3351,146.7,97.6,0.496
35.28,32166.9,35427.5,0.8876,1.048,146.7,97.6,0.496
35.3,32157.7,35223.3,0.8388,0.5463,146.7,97.6,0.496
35.32,32105.1,35087.9,0.5585,0.2138,146.7,97.6,0.496
35.34,32052.1,35070.1,0.2768,0.1701,146.7,97.6,0.496
35.36,31945.5,35066.6,-0.2906,0.1614,146.7,97.6,0.496
35.38,31926.1,34886.0,-0.3942,-0.2823,146.7,97.6,0.496
35.4,31947.4,34857.8,-0.2807,-0.3514,146.7,97.6,0.496
35.42,31825.6,34689.7,-0.9291,-0.7645,146.7,97.6,0.496
35.44,31833.7,34650.3,-0.8856,-0.8613,146.7,97.6,0.496
35.46,31722.2,34669.2,-1.4791,-0.8149,146.7,97.6,0.496
35.48,31810.0,34514.0,-1.0121,-1.1961,146.7,97.6,0.496
35.5,31740.6,34528.3,-1.3813,-1.1608,146.7,97.6,0.496
35.52,31754.6,34461.0,-1.3068,-1.3262,146.7,97.6,0.496
35.54,31842.4,34533.8,-0.8393,-1.1474,146.7,97.6,0.496
35.56,31852.8,34618.2,-0.7842,-0.9401,146.7,97.6,0.496
35.58,31990.3,34965.5,-0.0521,-0.087,146.7,97.6,0.496
35.6,32115.5,35225.4,0.6142,0.5515,146.7,97.6,0.496
35.62,32294.2,35596.6,1.5654,1.4633,146.7,97.6,0.496
35.64,32271.7,35806.1,1.4454,1.9779,146.7,97.6,0.496
35.66,32206.3,35687.2,1.0974,1.6859,146.7,97.6,0.496
35.68,32233.9,35366.1,1.244,0.8972,146.7,97.6,0.496
35.7,32095.5,35301.5,0.5079,0.7385,146.7,97.6,0.496
35.72,32116.3,35202.2,0.6183,0.4946,146.7,97.6,0.496
35.74,32052.7,35088.0,0.2797,0.214,146.7,97.6,0.496
35.76,32077.9,35040.7,0.414,0.0979,146.7,97.6,0.496
35.78,31962.1,34961.5,-0.2022,-0.0969,146.7,97.6,0.496
35.8,31923.5,34830.7,-0.408,-0.4181,146.7,97.6,0.496
35.82,31904.8,34725.7,-0.5072,-0.6761,146.7,97.6,0.496
35.84,31959.0,34685.8,-0.219,-0.7741,146.7,97.6,0.496
35.86,31764.1,34684.3,-1.2561,-0.7778,146.7,97.6,0.496
35.88,31819.3,34641.3,-0.9623,-0.8834,146.7,97.6,0.496
35.9,31827.6,34571.1,-0.9182,-1.0557,146.7,97.6,0.496
35.92,31885.3,34509.5,-0.6112,-1.2071,146.7,97.6,0.496
35.94,31808.1,34467.8,-1.0222,-1.3096,146.7,97.6,0.496
35.96,31843.5,34573.3,-0.8337,-1.0503,146.7,97.6,0.496
35.98,31985.5,34854.7,-0.0781,-0.3592,146.7,97.6,0.496
36.0,32092.4,35214.5,0.4912,0.5246,146.7,97.6,0.496
36.02,32284.2,35509.5,1.5119,1.2493,146.7,97.6,0.496
36.04,32411.6,35808.4,2.1898,1.9836,146.7,97.6,0.496
36.06,32300.3,35731.2,1.5979,1.794,146.7,97.6,0.496
36.08,32246.3,35511.6,1.3105,1.2546,146.7,97.6,0.496
36.1,32222.6,35391.3,1.1839,0.959,146.7,97.6,0.496
36.12,32152.9,35267.4,0.8134,0.6547,146.7,97.6,0.496
36.14,32030.2,35176.1,0.16,0.4305,146.7,97.6,0.496
36.16,32019.4,35111.9,0.1027,0.2726,146.7,97.6,0.496
36.18,31955.3,34960.4,-0.2385,-0.0996,146.7,97.6,0.496
36.2,31952.9,34942.0,-0.2514,-0.1447,146.7,97.6,0.496
36.22,31949.8,34803.1,-0.2679,-0.4859,146.7,97.6,0.496
36.24,31859.1,34657.9,-0.7506,-0.8425,146.7,97.6,0.496
36.26,31863.4,34606.8,-0.7276,-0.968,146.7,97.6,0.496
36.28,31822.8,34627.7,-0.944,-0.9167,146.7,97.6,0.496
36.3,31778.3,34685.1,-1.1806,-0.7758,146.7,97.6,0.496
36.32,31732.7,34466.9,-1.4231,-1.3118,146.7,97.6,0.496
36.34,31747.8,34473.5,-1.343,-1.2955,146.7,97.6,0.496
36.36,31763.3,34369.2,-1.2606,-1.5518,146.7,97.6,0.496
36.38,31906.7,34586.9,-0.497,-1.0169,146.7,97.6,0.496
36.4,31979.3,35017.7,-0.111,0.0413,146.7,97.6,0.496
36.42,32133.9,35423.6,0.7118,1.0384,146.7,97.6,0.496
36.44,32343.6,35667.4,1.8283,1.6373,146.7,97.6,0.496
36.46,32351.2,35815.8,1.8687,2.0017,146.7,97.6,0.496
36.48,32315.6,35674.7,1.6792,1.6551,146.7,97.6,0.496
36.5,32165.0,35469.5,0.8774,1.1511,146.7,97.6,0.496
36.52,32215.7,35344.9,1.1473,0.845,146.7,97.6,0.496
36.54,32130.2,35183.0,0.6921,0.4473,146.7,97.6,0.496
36.56,32097.6,35091.6,0.5188,0.2227,146.7,97.6,0.496
36.58,32003.4,35094.9,0.0174,0.2309,146.7,97.6,0.496
36.6,32025.6,34915.0,0.1356,-0.211,146.7,97.6,0.496
36.62,31865.8,34769.4,-0.715,-0.5686,146.7,97.6,0.496
36.64,31917.8,34731.9,-0.4379,-0.6607,146.7,97.6,0.496
36.66,31944.1,34739.9,-0.298,-0.641,146.7,97.6,0.496
36.68,31838.7,34593.0,-0.8589,-1.002,146.7,97.6,0.496
36.7,31837.1,34595.4,-0.8675,-0.9961,146.7,97.6,0.496
36.72,31744.1,34572.3,-1.3627,-1.0528,146.7,97.6,0.496
36.74,31819.0,34413.4,-0.964,-1.4432,146.7,97.6,0.496
36.76,31796.8,34442.6,-1.0822,-1.3715,146.7,97.6,0.496
36.78,31762.8,34557.8,-1.2631,-1.0884,146.7,97.6,0.496
36.8,31978.0,34816.6,-0.1179,-0.4526,146.7,97.6,0.496
36.82,32085.9,35147.6,0.4566,0.3603,146.7,97.6,0.496
36.84,32302.0,35622.5,1.6069,1.527,146.7,97.6,0.496
36.86,32314.9,35721.6,1.6751,1.7703,146.7,97.6,0.496
36.88,32210.6,35669.8,1.1204,1.6431,146.7,97.6,0.496
36.9,32363.5,35573.5,1.9343,1.4066,146.7,97.6,0.496
36.92,32100.8,35387.5,0.5361,0.9497,146.7,97.6,0.496
36.94,32121.2,35155.4,0.6442,0.3796,146.7,97.6,0.496
36.96,32066.6,35115.1,0.354,0.2805,146.7,97.6,0.496
36.98,31980.3,34988.9,-0.1057,-0.0294,146.7,97.6,0.496
37.0,32044.0,34972.0,0.2334,-0.071,146.7,97.6,0.496
37.02,31898.8,34862.9,-0.5392,-0.339,146.7,97.6,0.496
37.04,31881.0,34803.2,-0.6342,-0.4856,146.7,97.6,0.496
37.06,31942.6,34737.4,-0.3059,-0.6471,146.7,97.6,0.496
37.08,31926.6,34618.0,-0.3915,-0.9405,146.7,97.6,0.496
37.1,31817.3,34548.7,-0.9728,-1.1109,146.7,97.6,0.496
37.12,31836.6,34625.1,-0.8702,-0.923,146.7,97.6,0.496
37.14,31932.9,34464.9,-0.3579,-1.3167,146.7,97.6,0.496
37.16,31702.0,34448.9,-1.5869,-1.356,146.7,97.6,0.496
37.18,31752.6,34473.4,-1.3175,-1.2958,146.7,97.6,0.496
37.2,31803.3,34691.2,-1.0475,-0.7608,146.7,97.6,0.496
37.22,32074.6,35066.7,0.3963,0.1617,146.7,97.6,0.496
37.24,32282.1,35397.6,1.5008,0.9744,146.7,97.6,0.496
37.26,32306.6,35751.1,1.6311,1.8428,146.7,97.6,0.496
37.28,32281.3,35733.6,1.4963,1.7999,146.7,97.6,0.496
37.3,32267.6,35632.4,1.4237,1.5513,146.7,97.6,0.496
37.32,32139.2,35561.0,0.74,1.3759,146.7,97.6,0.496
37.34,32156.0,35301.9,0.8295,0.7395,146.7,97.6,0.496
37.36,32077.3,35078.6,0.411,0.1908,146.7,97.6,0.496
37.38,32048.8,35063.8,0.2592,0.1544,146.7,97.6,0.496
37.4,31990.6,34956.7,-0.0505,-0.1085,146.7,97.6,0.496
37.42,32027.6,35006.4,0.1462,0.0135,146.7,97.6,0.496
37.44,31914.2,34907.9,-0.4572,-0.2285,146.7,97.6,0.496
37.46,31847.8,34728.9,-0.8109,-0.6681,146.7,97.6,0.496
37.48,31826.9,34689.4,-0.9217,-0.7652,146.7,97.6,0.496
37.5,31904.9,34578.0,-0.5068,-1.0388,146.7,97.6,0.496
37.52,31857.2,34672.2,-0.7609,-0.8074,146.7,97.6,0.496
37.54,31717.4,34611.5,-1.5049,-0.9566,146.7,97.6,0.496
37.56,31825.4,34511.0,-0.9301,-1.2035,146.7,97.6,0.496
37.58,31829.6,34451.9,-0.9075,-1.3487,146.7,97.6,0.496
37.6,31857.2,34510.1,-0.7608,-1.2056,146.7,97.6,0.496
37.62,31883.9,34884.5,-0.6184,-0.2859,146.7,97.6,0.496
37.64,32069.2,35174.3,0.3679,0.4259,146.7,97.6,0.496
37.66,32368.9,35540.8,1.963,1.3261,146.7,97.6,0.496
37.68,32287.5,35720.0,1.5296,1.7665,146.7,97.6,0.496
37.7,32310.3,35681.7,1.6509,1.6725,146.7,97.6,0.496
37.72,32228.1,35519.0,1.2134,1.2726,146.7,97.6,0.496
37.74,32139.9,35280.4,0.744,0.6866,146.7,97.6,0.496
37.76,32044.1,35190.4,0.2343,0.4654,146.7,97.6,0.496
37.78,32082.3,35145.6,0.4375,0.3553,146.7,97.6,0.496
37.8,32117.7,35063.0,0.6256,0.1525,146.7,97.6,0.496
37.82,32051.2,34973.7,0.2717,-0.0667,146.7,97.6,0.496
37.84,31968.9,34960.2,-0.1664,-0.1,146.7,97.6,0.496
37.86,31905.5,34899.0,-0.5035,-0.2502,146.7,97.6,0.496
37.88,31887.1,34731.9,-0.6017,-0.6608,146.7,97.6,0.496
37.9,31813.3,34623.5,-0.9941,-0.9271,146.7,97.6,0.496
37.92,31834.4,34703.7,-0.8821,-0.7301,146.7,97.6,0.496
37.94,31867.1,34710.7,-0.708,-0.7127,146.7,97.6,0.496
37.96,31760.7,34504.7,-1.2744,-1.219,146.7,97.6,0.496
37.98,31762.4,34422.9,-1.2651,-1.4197,146.7,97.6,0.496
38.0,31778.0,34538.4,-1.1821,-1.1361,146.7,97.6,0.496
38.02,31874.4,34687.9,-0.6689,-0.7687,146.7,97.6,0.496
38.04,32051.6,35060.2,0.2742,0.1456,146.7,97.6,0.496
38.06,32291.5,35364.7,1.551,0.8937,146.7,97.6,0.496
38.08,32291.1,35695.0,1.5486,1.7051,146.7,97.6,0.496
38.1,32271.0,35821.0,1.4418,2.0147,146.7,97.6,0.496
38.12,32358.1,35581.9,1.905,1.4271,146.7,97.6,0.496
38.14,32182.1,35361.4,0.9686,0.8856,146.7,97.6,0.496
38.16,32164.8,35318.9,0.8767,0.7813,146.7,97.6,0.496
38.18,32008.2,35080.1,0.043,0.1945,146.7,97.6,0.496
38.2,32058.8,35065.0,0.3123,0.1576,146.7,97.6,0.496
38.22,32084.2,35034.8,0.4475,0.0832,146.7,97.6,0.496
38.24,31916.6,34984.7,-0.4444,-0.0399,146.7,97.6,0.496
38.26,31909.6,34874.0,-0.4819,-0.3117,146.7,97.6,0.496
38.28,31778.1,34705.4,-1.1819,-0.7259,146.7,97.6,0.496
38.3,31890.7,34649.6,-0.5822,-0.8629,146.7,97.6,0.496
38.32,31902.2,34673.7,-0.5214,-0.8036,146.7,97.6,0.496
38.34,31845.4,34643.1,-0.8234,-0.8788,146.7,97.6,0.496
38.36,31767.6,34587.3,-1.2376,-1.016,146.7,97.6,0.496
38.38,31759.7,34476.9,-1.2795,-1.2872,146.7,97.6,0.496
38.4,31785.6,34416.3,-1.1417,-1.436,146.7,97.6,0.496
38.42,31879.4,34639.2,-0.6423,-0.8884,146.7,97.6,0.496
38.44,31895.1,34885.3,-0.559,-0.2839,146.7,97.6,0.496
38.46,32171.7,35230.3,0.9134,0.5636,146.7,97.6,0.496
38.48,32259.9,35591.1,1.3826,1.4498,146.7,97.6,0.496
38.5,32388.0,35765.9,2.0642,1.8792,146.7,97.6,0.496
38.52,32324.0,35730.6,1.7239,1.7926,146.7,97.6,0.496
38.54,32259.3,35530.1,1.3796,1.3,146.7,97.6,0.496
38.56,32024.5,35338.9,0.1298,0.8303,146.7,97.6,0.496
38.58,32002.9,35231.0,0.0146,0.5652,146.7,97.6,0.496
38.6,32118.3,35100.0,0.6287,0.2435,146.7,97.6,0.496
38.62,32118.8,35089.5,0.6315,0.2176,146.7,97.6,0.496
38.64,32023.4,35023.4,0.1239,0.0552,146.7,97.6,0.496
38.66,31932.6,34846.4,-0.3595,-0.3795,146.7,97.6,0.496
38.68,31898.2,34733.4,-0.5424,-0.6571,146.7,97.6,0.496
38.7,31905.1,34710.3,-0.5056,-0.7138,146.7,97.6,0.496
38.72,31893.2,34709.8,-0.569,-0.7151,146.7,97.6,0.496
38.74,31885.2,34568.8,-0.6116,-1.0615,146.7,97.6,0.496
38.76,31759.0,34567.5,-1.2835,-1.0647,146.7,97.6,0.496
38.78,31760.8,34497.9,-1.2735,-1.2355,146.7,97.6,0.496
38.8,31730.1,34419.8,-1.4371,-1.4274,146.7,97.6,0.496
38.82,31782.0,34529.1,-1.161,-1.159,146.7,97.6,0.496
38.84,31904.8,34799.6,-0.5074,-0.4945,146.7,97.6,0.496
38.86,32040.8,35152.1,0.2164,0.3714,146.7,97.6,0.496
38.88,32239.5,35488.7,1.2743,1.1983,146.7,97.6,0.496
38.9,32374.0,35680.6,1.9899,1.6697,146.7,97.6,0.496
38.92,32342.3,35723.9,1.8215,1.776,146.7,97.6,0.496
38.94,32333.7,35632.5,1.7753,1.5514,146.7,97.6,0.496
38.96,32187.4,35479.4,0.9969,1.1754,146.7,97.6,0.496
38.98,32106.8,35204.9,0.5679,0.501,146.7,97.6,0.496
39.0,32039.7,35255.3,0.2106,0.6249,146.7,97.6,0.496
39.02,32072.5,35012.2,0.3851,0.0277,146.7,97.6,0.496
39.04,31997.5,34948.5,-0.0138,-0.1287,146.7,97.6,0.496
39.06,31885.4,34884.2,-0.6107,-0.2865,146.7,97.6,0.496
39.08,31909.8,34804.9,-0.4809,-0.4815,146.7,97.6,0.496
39.1,31877.1,34721.2,-0.6547,-0.6869,146.7,97.6,0.496
39.12,31820.4,34667.4,-0.9565,-0.8192,146.7,97.6,0.496
39.14,31801.8,34638.6,-1.0554,-0.8899,146.7,97.6,0.496
39.16,31788.8,34642.5,-1.1246,-0.8805,146.7,97.6,0.496
39.18,31776.9,34522.5,-1.188,-1.1752,146.7,97.6,0.496
39.2,31675.5,34464.4,-1.7275,-1.3178,146.7,97.6,0.496
39.22,31733.9,34467.3,-1.417,-1.3106,146.7,97.6,0.496
39.24,31745.3,34630.9,-1.3561,-0.9089,146.7,97.6,0.496
39.26,32028.3,34996.6,0.1502,-0.0105,146.7,97.6,0.496
39.28,32243.0,35348.5,1.2925,0.8539,146.7,97.6,0.496
39.3,32251.4,35659.6,1.3373,1.6182,146.7,97.6,0.496
39.32,32347.2,35730.7,1.8474,1.7927,146.7,97.6,0.496
39.34,32432.5,35718.4,2.3011,1.7626,146.7,97.6,0.496
39.36,32156.4,35452.1,0.8317,1.1083,146.7,97.6,0.496
39.38,32141.4,35336.5,0.7519,0.8243,146.7,97.6,0.496
39.4,32082.6,35145.3,0.4389,0.3547,146.7,97.6,0.496
39.42,32111.5,35063.2,0.5931,0.1531,146.7,97.6,0.496
39.44,31976.5,35035.4,-0.126,0.0848,146.7,97.6,0.496
39.46,31987.5,34969.4,-0.0673,-0.0775,146.7,97.6,0.496
39.48,32088.1,34816.7,0.468,-0.4525,146.7,97.6,0.496
39.5,31859.3,34685.3,-0.7494,-0.7753,146.7,97.6,0.496
39.52,31872.8,34668.9,-0.6775,-0.8156,146.7,97.6,0.496
39.54,31877.5,34615.1,-0.6525,-0.9476,146.7,97.6,0.496
39.56,31866.2,34682.3,-0.7125,-0.7826,146.7,97.6,0.496
39.58,31835.1,34545.0,-0.8785,-1.1199,146.7,97.6,0.496
39.6,31786.5,34460.9,-1.1367,-1.3265,146.7,97.6,0.496
39.62,31729.4,34428.0,-1.441,-1.4072,146.7,97.6,0.496
39.64,31837.0,34491.1,-0.868,-1.2524,146.7,97.6,0.496
39.66,31927.0,34728.7,-0.3893,-0.6687,146.7,97.6,0.496
39.68,32160.8,35164.1,0.8553,0.401,146.7,97.6,0.496
39.7,32127.2,35487.8,0.6764,1.1959,146.7,97.6,0.496
39.72,32321.0,35725.8,1.7076,1.7808,146.7,97.6,0.496
39.74,32296.2,35793.5,1.5756,1.947,146.7,97.6,0.496
39.76,32222.8,35566.7,1.1854,1.3898,146.7,97.6,0.496
39.78,32160.1,35352.9,0.8515,0.8646,146.7,97.6,0.496
39.8,32112.7,35218.8,0.5993,0.5353,146.7,97.6,0.496
39.82,32065.9,35097.9,0.3499,0.2383,146.7,97.6,0.496
39.84,32106.5,35088.7,0.5664,0.2156,146.7,97.6,0.496
39.86,31973.7,35016.4,-0.1406,0.038,146.7,97.6,0.496
39.88,31994.3,34888.6,-0.0309,-0.2759,146.7,97.6,0.496
39.9,31947.2,34887.9,-0.2819,-0.2777,146.7,97.6,0.496
39.92,31885.0,34646.2,-0.6126,-0.8714,146.7,97.6,0.496
39.94,31837.7,34690.2,-0.8642,-0.7633,146.7,97.6,0.496
39.96,31879.4,34652.8,-0.6423,-0.855,146.7,97.6,0.496
39.98,31793.0,34639.9,-1.1025,-0.8868,146.7,97.6,0.496
40.0,31799.0,34515.4,-1.0704,-1.1927,146.7,97.6,0.496
40.02,31775.6,34491.1,-1.195,-1.2523,146.7,97.6,0.496
40.04,31817.5,34439.7,-0.972,-1.3784,146.7,97.6,0.496
40.06,31871.5,34669.9,-0.6843,-0.8132,146.7,97.6,0.496
40.08,31973.2,35032.3,-0.1433,0.0773,146.7,97.6,0.496
40.1,32162.1,35383.2,0.862,0.9391,146.7,97.6,0.496
40.12,32311.3,35694.6,1.6562,1.7041,146.7,97.6,0.496
40.14,32313.6,35734.9,1.6685,1.8031,146.7,97.6,0.496
40.16,32287.2,35680.8,1.5281,1.6702,146.7,97.6,0.496
40.18,32247.1,35645.9,1.3143,1.5845,146.7,97.6,0.496
40.2,32124.5,35331.6,0.6622,0.8124,146.7,97.6,0.496
40.22,32079.2,35211.6,0.4212,0.5176,146.7,97.6,0.496
40.24,32015.2,35102.4,0.0802,0.2495,146.7,97.6,0.496
40.26,32066.6,35056.7,0.3539,0.1371,146.7,97.6,0.496
40.28,31902.0,34986.6,-0.5221,-0.0351,146.7,97.6,0.496
40.3,31863.0,34792.0,-0.7298,-0.5131,146.7,97.6,0.496
40.32,31922.6,34790.5,-0.4126,-0.5168,146.7,97.6,0.496
40.34,31895.8,34627.9,-0.5551,-0.9162,146.7,97.6,0.496
40.36,31838.7,34583.5,-0.8594,-1.0254,146.7,97.6,0.496
40.38,31790.8,34694.0,-1.1139,-0.7537,146.7,97.6,0.496
40.4,31845.1,34547.4,-0.8252,-1.114,146.7,97.6,0.496
40.42,31717.0,34417.5,-1.5067,-1.433,146.7,97.6,0.496
40.44,31818.1,34448.0,-0.9686,-1.3582,146.7,97.6,0.496
40.46,31775.2,34529.7,-1.1969,-1.1575,146.7,97.6,0.496
40.48,31903.3,34795.1,-0.5154,-0.5054,146.7,97.6,0.496
40.5,32001.2,35140.1,0.0059,0.342,146.7,97.6,0.496
40.52,32254.3,35587.6,1.353,1.4411,146.7,97.6,0.496
40.54,32341.9,35650.7,1.819,1.5961,146.7,97.6,0.496
40.56,32240.0,35663.9,1.277,1.6288,146.7,97.6,0.496
40.58,32358.3,35605.1,1.9065,1.4843,146.7,97.6,0.496
40.6,32209.0,35378.1,1.1115,0.9267,146.7,97.6,0.496
40.62,32199.7,35183.8,1.0625,0.4493,146.7,97.6,0.496
40.64,31979.3,35106.1,-0.1108,0.2584,146.7,97.6,0.496
40.66,32035.1,35048.3,0.1864,0.1165,146.7,97.6,0.496
40.68,31965.2,35091.9,-0.186,0.2236,146.7,97.6,0.496
40.7,31947.9,34825.3,-0.2782,-0.4314,146.7,97.6,0.496
40.72,31870.8,34795.8,-0.6884,-0.5039,146.7,97.6,0.496
40.74,31776.4,34726.7,-1.1906,-0.6735,146.7,97.6,0.496
40.76,31895.1,34627.6,-0.5591,-0.9169,146.7,97.6,0.496
40.78,31884.3,34691.5,-0.6165,-0.7599,146.7,97.6,0.496
40.8,31801.4,34665.4,-1.0574,-0.8241,146.7,97.6,0.496
40.82,31876.1,34526.2,-0.6602,-1.1661,146.7,97.6,0.496
40.84,31766.4,34408.3,-1.2437,-1.4556,146.7,97.6,0.496
40.86,31667.5,34457.0,-1.7704,-1.3361,146.7,97.6,0.496
40.88,31781.7,34720.7,-1.1624,-0.6882,146.7,97.6,0.496
40.9,32000.8,35021.7,0.0037,0.0511,146.7,97.6,0.496
40.92,32199.7,35429.2,1.0624,1.052,146.7,97.6,0.496
40.94,32405.7,35719.5,2.1585,1.7651,146.7,97.6,0.496
40.96,32274.6,35749.7,1.4607,1.8395,146.7,97.6,0.496
40.98,32271.2,35729.0,1.4427,1.7885,146.7,97.6,0.496
41.0,32258.0,35459.0,1.3725,1.1253,146.7,97.6,0.496
41.02,32172.2,35281.7,0.9158,0.6899,146.7,97.6,0.496
41.04,32096.6,35147.9,0.5133,0.3612,146.7,97.6,0.496
41.06,32067.2,35102.8,0.3568,0.2502,146.7,97.6,0.496
41.08,31964.7,35054.5,-0.1886,0.1316,146.7,97.6,0.496
41.1,31901.7,34915.8,-0.5237,-0.2089,146.7,97.6,0.496
41.12,31881.4,34922.8,-0.6318,-0.1919,146.7,97.6,0.496
41.14,32030.7,34689.1,0.1625,-0.766,146.7,97.6,0.496
41.16,31750.4,34697.4,-1.329,-0.7456,146.7,97.6,0.496
41.18,31822.3,34710.4,-0.9466,-0.7136,146.7,97.6,0.496
41.2,31798.7,34586.1,-1.0721,-1.0188,146.7,97.6,0.496
41.22,31748.7,34502.3,-1.3379,-1.2249,146.7,97.6,0.496
41.24,31773.2,34556.1,-1.2075,-1.0926,146.7,97.6,0.496
41.26,31702.9,34491.2,-1.5818,-1.252,146.7,97.6,0.496
41.28,31743.1,34601.1,-1.3681,-0.9822,146.7,97.6,0.496
41.3,31954.7,34924.9,-0.2419,-0.1866,146.7,97.6,0.496
41.32,32036.1,35214.4,0.1916,0.5245,146.7,97.6,0.496
41.34,32256.2,35587.1,1.3629,1.44,146.7,97.6,0.496
41.36,32264.2,35705.3,1.4053,1.7302,146.7,97.6,0.496
41.38,32285.2,35681.3,1.5175,1.6713,146.7,97.6,0.496
41.4,32299.8,35472.4,1.5951,1.1583,146.7,97.6,0.496
41.42,32187.8,35390.6,0.999,0.9572,146.7,97.6,0.496
41.44,32080.5,35164.2,0.4281,0.4012,146.7,97.6,0.496
41.46,32005.8,35104.3,0.0303,0.254,146.7,97.6,0.496
41.48,31950.5,35079.9,-0.264,0.194,146.7,97.6,0.496
41.5,31988.9,34974.5,-0.0599,-0.0648,146.7,97.6,0.496
41.52,32043.0,34943.6,0.2283,-0.1409,146.7,97.6,0.496
41.54,31975.5,34727.8,-0.1309,-0.6708,146.7,97.6,0.496
41.56,31841.0,34688.3,-0.8468,-0.7678,146.7,97.6,0.496
41.58,31842.9,34617.3,-0.837,-0.9423,146.7,97.6,0.496
41.6,31854.1,34601.3,-0.7774,-0.9816,146.7,97.6,0.496
41.62,31811.6,34573.8,-1.0035,-1.0492,146.7,97.6,0.496
41.64,31796.6,34541.3,-1.0833,-1.1289,146.7,97.6,0.496
41.66,31728.1,34499.1,-1.4476,-1.2326,146.7,97.6,0.496
41.68,31782.8,34472.3,-1.1565,-1.2985,146.7,97.6,0.496
41.7,31773.5,34689.8,-1.2063,-0.7642,146.7,97.6,0.496
41.72,32012.5,34984.0,0.066,-0.0414,146.7,97.6,0.496
41.74,32235.3,35431.5,1.2516,1.0578,146.7,97.6,0.496
41.76,32268.7,35818.4,1.4297,2.0082,146.7,97.6,0.496
41.78,32358.8,35764.2,1.9092,1.8749,146.7,97.6,0.496
41.8,32359.9,35616.6,1.9149,1.5124,146.7,97.6,0.496
41.82,32257.0,35446.9,1.3673,1.0955,146.7,97.6,0.496
41.84,31990.7,35255.7,-0.05,0.626,146.7,97.6,0.496
41.86,31987.8,35279.6,-0.0657,0.6847,146.7,97.6,0.496
41.88,32026.7,34996.6,0.1417,-0.0106,146.7,97.6,0.496
41.9,31999.7,34950.1,-0.0023,-0.1247,146.7,97.6,0.496
41.92,31950.5,34964.8,-0.2641,-0.0887,146.7,97.6,0.496
41.94,31860.9,34770.1,-0.741,-0.567,146.7,97.6,0.496
41.96,31873.1,34694.6,-0.6758,-0.7524,146.7,97.6,0.496
41.98,31852.1,34746.1,-0.7877,-0.6258,146.7,97.6,0.496
42.0,31895.4,34611.0,-0.5572,-0.9577,146.7,97.6,0.496
42.02,31855.7,34642.2,-0.7685,-0.881,146.7,97.6,0.496
42.04,31806.5,34551.9,-1.0307,-1.1029,146.7,97.6,0.496
42.06,31816.5,34462.8,-0.9773,-1.3218,146.7,97.6,0.496
42.08,31682.5,34430.6,-1.6903,-1.4008,146.7,97.6,0.496
42.1,31749.8,34504.3,-1.3321,-1.22,146.7,97.6,0.496
42.12,31891.8,34896.8,-0.5766,-0.2557,146.7,97.6,0.496
42.14,32114.5,35244.2,0.6089,0.5978,146.7,97.6,0.496
42.16,32303.2,35469.0,1.6131,1.1498,146.7,97.6,0.496
42.18,32346.6,35704.8,1.8442,1.7292,146.7,97.6,0.496
42.2,32346.7,35673.5,1.8448,1.6523,146.7,97.6,0.496
42.22,32169.0,35573.0,0.8986,1.4054,146.7,97.6,0.496
42.24,32163.7,35367.7,0.8708,0.9011,146.7,97.6,0.496
42.26,32042.2,35243.4,0.2239,0.5958,146.7,97.6,0.496
42.28,32050.6,35163.5,0.2687,0.3996,146.7,97.6,0.496
42.3,32049.9,35099.1,0.2648,0.2412,146.7,97.6,0.496
42.32,31885.8,34992.4,-0.6084,-0.0209,146.7,97.6,0.496
42.34,31968.4,34926.9,-0.1689,-0.1818,146.7,97.6,0.496
42.36,31930.8,34781.6,-0.3687,-0.5386,146.7,97.6,0.496
42.38,31839.3,34738.8,-0.8558,-0.6439,146.7,97.6,0.496
42.4,31893.1,34644.8,-0.5698,-0.8747,146.7,97.6,0.496
42.42,31823.9,34687.4,-0.9377,-0.7702,146.7,97.6,0.496
42.44,31813.1,34615.1,-0.9956,-0.9476,146.7,97.6,0.496
42.46,31832.4,34531.2,-0.8926,-1.1539,146.7,97.6,0.496
42.48,31786.3,34419.8,-1.1378,-1.4274,146.7,97.6,0.496
42.5,31796.0,34483.0,-1.0863,-1.2721,146.7,97.6,0.496
42.52,31932.9,34791.8,-0.3577,-0.5135,146.7,97.6,0.496
42.54,32074.2,35156.3,0.3943,0.3817,146.7,97.6,0.496
42.56,32141.2,35379.2,0.7509,0.9294,146.7,97.6,0.496
42.58,32259.7,35700.5,1.3816,1.7186,146.7,97.6,0.496
42.6,32364.4,35676.6,1.9389,1.6598,146.7,97.6,0.496
42.62,32301.3,35636.0,1.6029,1.56,146.7,97.6,0.496
42.64,32225.5,35371.4,1.1996,0.9102,146.7,97.6,0.496
42.66,32152.5,35213.4,0.8113,0.5221,146.7,97.6,0.496
42.68,31970.6,35217.9,-0.1569,0.533,146.7,97.6,0.496
42.7,32062.4,35056.3,0.3314,0.1361,146.7,97.6,0.496
42.72,31985.4,34998.6,-0.0784,-0.0056,146.7,97.6,0.496
42.74,31959.1,34956.3,-0.2182,-0.1096,146.7,97.6,0.496
42.76,31920.3,34817.0,-0.4247,-0.4517,146.7,97.6,0.496
42.78,31839.1,34704.2,-0.8572,-0.7288,146.7,97.6,0.496
42.8,31843.3,34725.2,-0.8346,-0.6772,146.7,97.6,0.496
42.82,31787.7,34610.9,-1.1308,-0.9579,146.7,97.6,0.496
42.84,31870.8,34593.9,-0.6884,-0.9997,146.7,97.6,0.496
42.86,31792.5,34566.9,-1.1051,-1.0661,146.7,97.6,0.496
42.88,31897.1,34411.5,-0.5485,-1.4479,146.7,97.6,0.496
42.9,31746.0,34550.7,-1.3527,-1.1058,146.7,97.6,0.496
42.92,31828.6,34612.3,-0.9127,-0.9545,146.7,97.6,0.496
42.94,31962.5,34884.4,-0.2004,-0.2862,146.7,97.6,0.496
42.96,32106.1,35313.4,0.5641,0.7676,146.7,97.6,0.496
42.98,32265.6,35611.1,1.4132,1.499,146.7,97.6,0.496
43.0,32414.3,35778.6,2.2042,1.9104,146.7,97.6,0.496
43.02,32395.4,35753.5,2.1037,1.8487,146.7,97.6,0.496
43.04,32240.3,35595.8,1.2783,1.4614,146.7,97.6,0.496
43.06,32132.8,35326.5,0.7061,0.7999,146.7,97.6,0.496
43.08,32064.2,35112.2,0.3411,0.2734,146.7,97.6,0.496
43.1,32071.1,35081.1,0.3778,0.1971,146.7,97.6,0.496
43.12,32047.7,35098.5,0.2534,0.2398,146.7,97.6,0.496
43.14,32045.5,35053.9,0.2417,0.1301,146.7,97.6,0.496
43.16,32000.8,34855.1,0.0039,-0.3581,146.7,97.6,0.496
43.18,31926.9,34806.0,-0.3896,-0.4788,146.7,97.6,0.496
43.2,31946.7,34717.1,-0.2842,-0.6972,146.7,97.6,0.496
43.22,31752.3,34628.6,-1.3191,-0.9146,146.7,97.6,0.496
43.24,31875.1,34697.4,-0.6655,-0.7455,146.7,97.6,0.496
43.26,31828.6,34596.8,-0.9127,-0.9926,146.7,97.6,0.496
43.28,31817.7,34562.2,-0.9709,-1.0777,146.7,97.6,0.496
43.3,31736.3,34497.6,-1.4042,-1.2364,146.7,97.6,0.496
43.32,31904.8,34537.7,-0.5074,-1.1379,146.7,97.6,0.496
43.34,31850.4,34658.6,-0.7969,-0.8408,146.7,97.6,0.496
43.36,32042.1,35061.1,0.2236,0.1478,146.7,97.6,0.496
43.38,32251.7,35455.5,1.3388,1.1168,146.7,97.6,0.496
43.4,32371.6,35743.4,1.9771,1.8239,146.7,97.6,0.496
43.42,32347.3,35719.4,1.8476,1.7649,146.7,97.6,0.496
43.44,32247.7,35702.0,1.3177,1.7222,146.7,97.6,0.496
43.46,32279.5,35453.5,1.4868,1.1117,146.7,97.6,0.496
43.48,31987.2,35196.9,-0.0688,0.4815,146.7,97.6,0.496
43.5,32009.2,35069.8,0.0481,0.1693,146.7,97.6,0.496
43.52,32040.4,35088.5,0.2145,0.2153,146.7,97.6,0.496
43.54,31971.1,34993.5,-0.1546,-0.0181,146.7,97.6,0.496
43.56,31929.4,34926.5,-0.3764,-0.1827,146.7,97.6,0.496
43.58,31901.5,34767.7,-0.5247,-0.5729,146.7,97.6,0.496
43.6,31829.1,34780.5,-0.9102,-0.5413,146.7,97.6,0.496
43.62,31881.4,34695.0,-0.6316,-0.7513,146.7,97.6,0.496
43.64,31861.9,34686.0,-0.7357,-0.7735,146.7,97.6,0.496
43.66,31884.2,34639.6,-0.6169,-0.8874,146.7,97.6,0.496
43.68,31773.6,34520.4,-1.2055,-1.1804,146.7,97.6,0.496
43.7,31811.0,34410.1,-1.0064,-1.4513,146.7,97.6,0.496
43.72,31762.6,34433.0,-1.2643,-1.3951,146.7,97.6,0.496
43.74,31879.0,34631.2,-0.6446,-0.908,146.7,97.6,0.496
43.76,31899.3,34892.3,-0.5366,-0.2668,146.7,97.6,0.496
43.78,32225.9,35387.0,1.2017,0.9483,146.7,97.6,0.496
43.8,32207.1,35613.4,1.1017,1.5047,146.7,97.6,0.496
43.82,32398.8,35692.3,2.1219,1.6984,146.7,97.6,0.496
43.84,32268.8,35678.0,1.4298,1.6632,146.7,97.6,0.496
43.86,32213.1,35562.4,1.1334,1.3793,146.7,97.6,0.496
43.88,32141.2,35352.7,0.7508,0.8641,146.7,97.6,0.496
43.9,32093.9,35081.3,0.4991,0.1974,146.7,97.6,0.496
43.92,32014.2,35115.4,0.075,0.2814,146.7,97.6,0.496
43.94,32040.9,35097.5,0.2173,0.2373,146.7,97.6,0.496
43.96,32044.1,35053.1,0.234,0.1281,146.7,97.6,0.496
43.98,31840.4,34890.7,-0.8502,-0.2706,146.7,97.6,0.496
44.0,31903.2,34733.6,-0.5161,-0.6566,146.7,97.6,0.496
44.02,31918.4,34744.4,-0.4351,-0.63,146.7,97.6,0.496
44.04,31925.3,34678.8,-0.3985,-0.7911,146.7,97.6,0.496
44.06,31812.6,34646.6,-0.9979,-0.8702,146.7,97.6,0.496
44.08,31854.7,34670.6,-0.774,-0.8113,146.7,97.6,0.496
44.1,31835.5,34574.2,-0.8761,-1.0482,146.7,97.6,0.496
44.12,31779.0,34529.9,-1.1769,-1.1569,146.7,97.6,0.496
44.14,31848.8,34527.6,-0.8053,-1.1626,146.7,97.6,0.496
44.16,31927.8,34829.2,-0.3847,-0.4218,146.7,97.6,0.496
44.18,32072.7,35187.8,0.3861,0.459,146.7,97.6,0.496
44.2,32182.2,35540.7,0.9693,1.3261,146.7,97.6,0.496
44.22,32265.4,35779.3,1.4122,1.912,146.7,97.6,0.496
44.24,32346.6,35749.5,1.8442,1.8388,146.7,97.6,0.496
44.26,32284.1,35596.7,1.5113,1.4635,146.7,97.6,0.496
44.28,32149.5,35477.1,0.7952,1.1698,146.7,97.6,0.496
44.3,32111.5,35245.0,0.5926,0.5996,146.7,97.6,0.496
44.32,32067.7,35149.2,0.3594,0.3642,146.7,97.6,0.496
44.34,32092.1,35088.4,0.4898,0.215,146.7,97.6,0.496
44.36,32015.0,34994.3,0.0791,-0.0163,146.7,97.6,0.496
44.38,31961.5,34938.6,-0.2053,-0.153,146.7,97.6,0.496
44.4,31926.3,34833.1,-0.3929,-0.4121,146.7,97.6,0.496
44.42,31878.0,34649.0,-0.6497,-0.8644,146.7,97.6,0.496
44.44,31760.7,34649.3,-1.2741,-0.8636,146.7,97.6,0.496
44.46,31868.4,34649.6,-0.7008,-0.8629,146.7,97.6,0.496
44.48,31785.2,34720.1,-1.144,-0.6897,146.7,97.6,0.496
44.5,31843.4,34485.6,-0.834,-1.2658,146.7,97.6,0.496
44.52,31724.0,34461.2,-1.4697,-1.3258,146.7,97.6,0.496
44.54,31759.3,34482.2,-1.2819,-1.2742,146.7,97.6,0.496
44.56,31831.8,34741.7,-0.8961,-0.6366,146.7,97.6,0.496
44.58,32047.7,35000.7,0.2531,-0.0005,146.7,97.6,0.496
44.6,32144.6,35385.4,0.7689,0.9445,146.7,97.6,0.496
44.62,32308.7,35644.5,1.6422,1.581,146.7,97.6,0.496
44.64,32301.3,35693.8,1.6028,1.702,146.7,97.6,0.496
44.66,32296.7,35637.4,1.5786,1.5635,146.7,97.6,0.496
44.68,32117.3,35419.4,0.6238,1.0282,146.7,97.6,0.496
44.7,32114.2,35371.1,0.6073,0.9093,146.7,97.6,0.496
44.72,32104.6,35096.1,0.5559,0.2339,146.7,97.6,0.496
44.74,32022.1,35076.3,0.1172,0.1853,146.7,97.6,0.496
44.76,31932.0,35035.8,-0.3626,0.0856,146.7,97.6,0.496
44.78,31944.7,35017.3,-0.295,0.0404,146.7,97.6,0.496
44.8,31979.5,34876.0,-0.1095,-0.3067,146.7,97.6,0.496
44.82,31898.8,34773.5,-0.5392,-0.5585,146.7,97.6,0.496
44.84,31858.6,34686.6,-0.7534,-0.7719,146.7,97.6,0.496
44.86,31866.6,34635.1,-0.7107,-0.8986,146.7,97.6,0.496
