timestamp,raw_red,raw_ir,filtered_red,filtered_ir,heart_rate,spo2,ac_dc_ratio
0.0,32076.7,35123.5,1.3057,1.4844,139.5,97.1,0.518
0.02,32004.3,35175.9,0.0802,2.1166,139.5,97.1,0.518
0.04,32108.4,35073.1,1.8435,0.8764,139.5,97.1,0.518
0.06,32040.9,35097.4,0.7002,1.1698,139.5,97.1,0.518
0.08,32016.0,35208.0,0.2774,2.5038,139.5,97.1,0.518
0.1,31998.2,35081.6,-0.0234,0.9791,139.5,97.1,0.518
0.12,31976.7,35029.9,-0.3881,0.3558,139.5,97.1,0.518
0.14,32002.3,34936.8,0.0463,-0.7687,139.5,97.1,0.518
0.16,31936.8,34990.7,-1.0634,-0.1177,139.5,97.1,0.518
0.18,31996.3,34991.1,-0.0557,-0.1134,139.5,97.1,0.518
0.2,31970.1,34867.6,-0.4989,-1.6025,139.5,97.1,0.518
0.22,31967.3,34964.3,-0.5477,-0.4358,139.5,97.1,0.518
0.24,31948.8,34935.9,-0.8601,-0.7796,139.5,97.1,0.518
0.26,32038.3,35024.9,0.6551,0.2954,139.5,97.1,0.518
0.28,31893.6,34969.2,-1.7956,-0.3774,139.5,97.1,0.518
0.3,31939.8,35069.7,-1.0131,0.8352,139.5,97.1,0.518
0.32,32094.0,34942.9,1.5994,-0.6944,139.5,97.1,0.518
0.34,32026.1,34915.2,0.4492,-1.0292,139.5,97.1,0.518
0.36,32046.4,34898.5,0.7921,-1.2301,139.5,97.1,0.518
0.38,31925.6,34910.5,-1.2531,-1.086,139.5,97.1,0.518
0.4,31984.1,34938.6,-0.2628,-0.7459,139.5,97.1,0.518
0.42,31962.0,34916.6,-0.6376,-1.0117,139.5,97.1,0.518
0.44,32019.6,35067.2,0.3382,0.8053,139.5,97.1,0.518
0.46,32062.9,35077.0,1.0721,0.9235,139.5,97.1,0.518
0.48,31991.3,35090.5,-0.1408,1.0863,139.5,97.1,0.518
0.5,32097.0,35125.1,1.6493,1.5033,139.5,97.1,0.518
0.52,31986.5,35028.8,-0.2223,0.3415,139.5,97.1,0.518
0.54,31948.8,34977.1,-0.8596,-0.2817,139.5,97.1,0.518
0.56,31963.6,35090.6,-0.6098,1.0872,139.5,97.1,0.518
0.58,32054.1,35077.8,0.9237,0.9331,139.5,97.1,0.518
0.6,32032.0,35064.8,0.5496,0.7761,139.5,97.1,0.518
0.62,31968.4,34989.2,-0.5287,-0.1357,139.5,97.1,0.518
0.64,31923.8,35004.6,-1.2839,0.0503,139.5,97.1,0.518
0.66,31976.5,34978.1,-0.3916,-0.2694,139.5,97.1,0.518
0.68,32017.0,35002.2,0.2944,0.0205,139.5,97.1,0.518
0.7,31998.6,34980.8,-0.017,-0.2371,139.5,97.1,0.518
0.72,31922.4,34873.8,-1.3068,-1.5278,139.5,97.1,0.518
0.74,31890.9,34921.7,-1.8409,-0.9508,139.5,97.1,0.518
0.76,31930.8,34925.9,-1.1661,-0.9001,139.5,97.1,0.518
0.78,31975.7,34909.8,-0.4043,-1.0945,139.5,97.1,0.518
0.8,31970.7,34974.3,-0.4896,-0.3162,139.5,97.1,0.518
0.82,32018.3,34959.0,0.317,-0.5004,139.5,97.1,0.518
0.84,32023.6,34861.0,0.4063,-1.6827,139.5,97.1,0.518
0.86,32046.2,35035.0,0.7898,0.4164,139.5,97.1,0.518
0.88,32010.9,35062.9,0.1918,0.7535,139.5,97.1,0.518
0.9,31996.9,35119.9,-0.0465,1.441,139.5,97.1,0.518
0.92,32031.8,35159.1,0.5463,1.9144,139.5,97.1,0.518
0.94,32027.9,35142.0,0.4797,1.7083,139.5,97.1,0.518
0.96,32015.7,35061.8,0.2735,0.7401,139.5,97.1,0.518
0.98,32047.1,35110.1,0.8051,1.3232,139.5,97.1,0.518
1.0,31970.0,35012.9,-0.5009,0.1496,139.5,97.1,0.518
1.02,32018.3,34944.5,0.3163,-0.6755,139.5,97.1,0.518
1.04,31919.9,35044.0,-1.3504,0.5255,139.5,97.1,0.518
1.06,32072.3,34977.6,1.232,-0.2762,139.5,97.1,0.518
1.08,31998.9,34963.7,-0.012,-0.4441,139.5,97.1,0.518
1.1,32054.1,35000.5,0.9226,-0.0001,139.5,97.1,0.518
1.12,31946.8,34908.3,-0.8948,-1.112,139.5,97.1,0.518
1.14,31985.9,34944.0,-0.2327,-0.6817,139.5,97.1,0.518
1.16,31956.1,34936.8,-0.7363,-0.7679,139.5,97.1,0.518
1.18,31941.5,34944.7,-0.9838,-0.6727,139.5,97.1,0.518
1.2,31966.1,34945.3,-0.5668,-0.6655,139.5,97.1,0.518
1.22,32005.1,34863.6,0.0926,-1.6514,139.5,97.1,0.518
1.24,31942.8,34854.6,-0.9622,-1.7604,139.5,97.1,0.518
1.26,32040.7,34941.0,0.6955,-0.7177,139.5,97.1,0.518
1.28,31998.9,35024.0,-0.012,0.2836,139.5,97.1,0.518
1.3,32060.6,35061.0,1.0337,0.7308,139.5,97.1,0.518
1.32,32112.6,35049.4,1.9142,0.5911,139.5,97.1,0.518
1.34,32109.2,35011.2,1.8565,0.1293,139.5,97.1,0.518
1.36,32076.3,35049.9,1.2985,0.5963,139.5,97.1,0.518
1.38,32095.5,35057.8,1.6249,0.6917,139.5,97.1,0.518
1.4,31976.2,35143.4,-0.3956,1.7241,139.5,97.1,0.518
1.42,31972.7,35051.6,-0.4553,0.6175,139.5,97.1,0.518
1.44,32037.5,35025.1,0.6424,0.2975,139.5,97.1,0.518
1.46,32062.6,35004.6,1.068,0.0502,139.5,97.1,0.518
1.48,31983.2,34957.9,-0.2785,-0.5141,139.5,97.1,0.518
1.5,32023.7,35029.3,0.409,0.3484,139.5,97.1,0.518
1.52,32037.1,34780.1,0.6351,-2.6585,139.5,97.1,0.518
1.54,31884.8,34987.5,-1.9446,-0.1567,139.5,97.1,0.518
1.56,31942.3,34960.0,-0.9709,-0.4887,139.5,97.1,0.518
1.58,32011.7,34954.4,0.2043,-0.5562,139.5,97.1,0.518
1.6,31892.1,34971.6,-1.8205,-0.3487,139.5,97.1,0.518
1.62,31979.0,34963.1,-0.3487,-0.4507,139.5,97.1,0.518
1.64,31966.6,34890.2,-0.5594,-1.3302,139.5,97.1,0.518
1.66,31962.5,34958.2,-0.6292,-0.5095,139.5,97.1,0.518
1.68,31938.1,34844.2,-1.0414,-1.8857,139.5,97.1,0.518
1.7,32004.8,35010.8,0.0878,0.1248,139.5,97.1,0.518
1.72,32004.8,35038.0,0.0885,0.4524,139.5,97.1,0.518
1.74,32057.3,35084.1,0.9769,1.0088,139.5,97.1,0.518
1.76,32016.7,35099.0,0.2893,1.1885,139.5,97.1,0.518
1.78,32120.4,35105.3,2.0471,1.2655,139.5,97.1,0.518
1.8,32075.8,35085.9,1.2913,1.0305,139.5,97.1,0.518
1.82,31982.5,35036.4,-0.29,0.4337,139.5,97.1,0.518
1.84,32021.5,35026.5,0.3713,0.3137,139.5,97.1,0.518
1.86,31970.7,35111.6,-0.4894,1.3411,139.5,97.1,0.518
1.88,32033.7,34980.3,0.5774,-0.2436,139.5,97.1,0.518
1.9,31967.6,35064.1,-0.5416,0.7681,139.5,97.1,0.518
1.92,32049.5,34958.0,0.8449,-0.5121,139.5,97.1,0.518
1.94,31958.5,34957.0,-0.6965,-0.5241,139.5,97.1,0.518
1.96,31904.6,34974.8,-1.6095,-0.3099,139.5,97.1,0.518
1.98,31926.6,34905.0,-1.237,-1.1515,139.5,97.1,0.518
2.0,31932.5,34958.3,-1.1367,-0.5083,139.5,97.1,0.518
2.02,31964.3,34968.8,-0.5984,-0.3823,139.5,97.1,0.518
2.04,32010.0,34938.5,0.1755,-0.7477,139.5,97.1,0.518
2.06,31964.8,35037.9,-0.5886,0.4521,139.5,97.1,0.518
2.08,31878.3,34906.2,-2.0542,-1.1373,139.5,97.1,0.518
2.1,31910.3,34823.1,-1.5126,-2.1402,139.5,97.1,0.518
2.12,31999.9,34951.0,0.0045,-0.5967,139.5,97.1,0.518
2.14,31989.9,35033.5,-0.1636,0.3989,139.5,97.1,0.518
2.16,31969.7,35056.4,-0.5071,0.6751,139.5,97.1,0.518
2.18,32090.6,35166.0,1.5415,1.9973,139.5,97.1,0.518
2.2,32080.6,35183.5,1.3724,2.2089,139.5,97.1,0.518
2.22,32050.4,35154.7,0.8601,1.8614,139.5,97.1,0.518
2.24,32020.7,35009.3,0.3574,0.1062,139.5,97.1,0.518
2.26,32048.1,35018.3,0.8225,0.2148,139.5,97.1,0.518
2.28,31988.4,35041.2,-0.1897,0.4914,139.5,97.1,0.518
2.3,32043.6,35040.6,0.7451,0.4842,139.5,97.1,0.518
2.32,31929.7,35065.7,-1.1846,0.7875,139.5,97.1,0.518
2.34,31953.6,35033.8,-0.7791,0.4021,139.5,97.1,0.518
2.36,31984.9,35006.3,-0.2489,0.071,139.5,97.1,0.518
2.38,32055.1,34935.5,0.9395,-0.7844,139.5,97.1,0.518
2.4,31939.1,34987.9,-1.0248,-0.1516,139.5,97.1,0.518
2.42,31996.1,34928.9,-0.0587,-0.8629,139.5,97.1,0.518
2.44,31930.9,34932.1,-1.1629,-0.8244,139.5,97.1,0.518
2.46,31985.0,34971.9,-0.2472,-0.3444,139.5,97.1,0.518
2.48,31928.8,34953.8,-1.1994,-0.5624,139.5,97.1,0.518
2.5,31969.3,34915.6,-0.5128,-1.0234,139.5,97.1,0.518
2.52,31979.7,34986.0,-0.3368,-0.1748,139.5,97.1,0.518
2.54,31989.4,34960.4,-0.1719,-0.4839,139.5,97.1,0.518
2.56,31932.1,34995.2,-1.1426,-0.0636,139.5,97.1,0.518
2.58,31956.1,35050.1,-0.7363,0.5985,139.5,97.1,0.518
2.6,32063.1,35109.0,1.0754,1.3091,139.5,97.1,0.518
2.62,32072.9,35123.0,1.2417,1.478,139.5,97.1,0.518
2.64,32062.7,35136.0,1.0683,1.6357,139.5,97.1,0.518
2.66,32005.7,35092.4,0.104,1.1098,139.5,97.1,0.518
2.68,31944.0,35017.1,-0.9414,0.2007,139.5,97.1,0.518
2.7,32016.7,35047.1,0.2901,0.5627,139.5,97.1,0.518
2.72,31996.9,35075.6,-0.0448,0.9063,139.5,97.1,0.518
2.74,32026.2,35085.0,0.4512,1.0194,139.5,97.1,0.518
2.76,32064.3,35043.0,1.0955,0.5136,139.5,97.1,0.518
2.78,31936.8,34977.6,-1.0641,-0.2757,139.5,97.1,0.518
2.8,32000.7,35023.8,0.0181,0.2813,139.5,97.1,0.518
2.82,32061.0,34872.5,1.0403,-1.5442,139.5,97.1,0.518
2.84,31990.2,34964.3,-0.1597,-0.4358,139.5,97.1,0.518
2.86,32059.6,34931.2,1.0161,-0.8356,139.5,97.1,0.518
2.88,31954.0,34918.7,-0.7729,-0.986,139.5,97.1,0.518
2.9,31965.1,34895.2,-0.5849,-1.2701,139.5,97.1,0.518
2.92,31928.7,34841.7,-1.2006,-1.9154,139.5,97.1,0.518
2.94,32016.6,34857.7,0.2875,-1.722,139.5,97.1,0.518
2.96,31897.6,35021.9,-1.7278,0.2587,139.5,97.1,0.518
2.98,31963.0,34852.7,-0.6205,-1.7827,139.5,97.1,0.518
3.0,31965.3,34969.3,-0.581,-0.3765,139.5,97.1,0.518
3.02,32022.4,35043.9,0.3857,0.5246,139.5,97.1,0.518
3.04,32055.8,35159.1,0.9526,1.9142,139.5,97.1,0.518
3.06,32099.3,35131.3,1.6896,1.579,139.5,97.1,0.518
3.08,32000.5,35133.9,0.0155,1.6095,139.5,97.1,0.518
3.1,32050.8,35106.8,0.8674,1.2836,139.5,97.1,0.518
3.12,32078.2,35063.8,1.3315,0.7641,139.5,97.1,0.518
3.14,32018.7,35082.1,0.3237,0.9854,139.5,97.1,0.518
3.16,32116.8,35021.5,1.9855,0.2542,139.5,97.1,0.518
3.18,32014.4,34993.8,0.2505,-0.0803,139.5,97.1,0.518
3.2,31986.2,35084.2,-0.2271,1.0109,139.5,97.1,0.518
3.22,31952.4,35014.0,-0.7987,0.1635,139.5,97.1,0.518
3.24,32018.5,34966.2,0.3195,-0.4129,139.5,97.1,0.518
3.26,31949.7,35041.4,-0.8447,0.4936,139.5,97.1,0.518
3.28,31979.1,35012.5,-0.3466,0.1458,139.5,97.1,0.518
3.3,31953.0,35012.3,-0.7898,0.143,139.5,97.1,0.518
3.32,32123.1,34954.1,2.0924,-0.5594,139.5,97.1,0.518
3.34,31948.9,34887.4,-0.8581,-1.3644,139.5,97.1,0.518
3.36,31967.5,34869.2,-0.5434,-1.5835,139.5,97.1,0.518
3.38,31958.1,34946.9,-0.7026,-0.6465,139.5,97.1,0.518
3.4,31924.1,34899.9,-1.2794,-1.2138,139.5,97.1,0.518
3.42,32079.6,34919.0,1.356,-0.9833,139.5,97.1,0.518
3.44,32067.0,35026.1,1.142,0.3094,139.5,97.1,0.518
3.46,32002.1,35075.7,0.0431,0.9073,139.5,97.1,0.518
3.48,32070.9,35112.7,1.2082,1.3543,139.5,97.1,0.518
3.5,32122.0,35143.1,2.0739,1.7216,139.5,97.1,0.518
3.52,32074.1,35104.6,1.2614,1.2566,139.5,97.1,0.518
3.54,32032.3,35118.3,0.5547,1.4214,139.5,97.1,0.518
3.56,32001.1,35075.4,0.0257,0.9046,139.5,97.1,0.518
3.58,32044.8,35113.6,0.766,1.3653,139.5,97.1,0.518
3.6,31943.5,35073.2,-0.9505,0.8771,139.5,97.1,0.518
3.62,32004.8,35020.4,0.0875,0.2412,139.5,97.1,0.518
3.64,31986.1,35032.3,-0.228,0.384,139.5,97.1,0.518
3.66,32019.5,34942.1,0.3363,-0.7039,139.5,97.1,0.518
3.68,31944.8,35016.6,-0.9286,0.1949,139.5,97.1,0.518
3.7,31952.5,34990.6,-0.7978,-0.1188,139.5,97.1,0.518
3.72,31903.5,34957.2,-1.6285,-0.5222,139.5,97.1,0.518
3.74,31964.8,34874.7,-0.5891,-1.5176,139.5,97.1,0.518
3.76,31933.4,34966.2,-1.1216,-0.4135,139.5,97.1,0.518
3.78,31915.5,34934.4,-1.4238,-0.797,139.5,97.1,0.518
3.8,31946.8,35014.3,-0.8937,0.1669,139.5,97.1,0.518
3.82,31975.8,34840.6,-0.4033,-1.9293,139.5,97.1,0.518
3.84,31900.2,34956.0,-1.6834,-0.537,139.5,97.1,0.518
3.86,31977.6,34918.3,-0.3733,-0.9908,139.5,97.1,0.518
3.88,32052.1,35065.8,0.8891,0.7886,139.5,97.1,0.518
3.9,32041.5,35039.9,0.7091,0.4759,139.5,97.1,0.518
3.92,31975.6,35183.9,-0.4071,2.2134,139.5,97.1,0.518
3.94,31982.2,35115.7,-0.294,1.3902,139.5,97.1,0.518
3.96,32074.3,35099.8,1.2657,1.1986,139.5,97.1,0.518
3.98,32051.1,35126.7,0.8718,1.5226,139.5,97.1,0.518
4.0,31966.0,35044.3,-0.5691,0.5291,139.5,97.1,0.518
4.02,31930.4,35103.4,-1.1713,1.2417,139.5,97.1,0.518
4.04,31971.3,35014.8,-0.4785,0.1733,139.5,97.1,0.518
4.06,31959.5,35106.6,-0.6793,1.2802,139.5,97.1,0.518
4.08,32057.4,34998.7,0.9794,-0.0207,139.5,97.1,0.518
4.1,32028.0,34998.3,0.4813,-0.0261,139.5,97.1,0.518
4.12,31995.0,34949.1,-0.0771,-0.6198,139.5,97.1,0.518
4.14,31957.9,34995.6,-0.7067,-0.0581,139.5,97.1,0.518
4.16,31867.2,34913.5,-2.2423,-1.0491,139.5,97.1,0.518
4.18,32029.3,35004.2,0.504,0.0455,139.5,97.1,0.518
4.2,31958.2,34906.6,-0.7011,-1.1327,139.5,97.1,0.518
4.22,31913.9,34984.9,-1.4512,-0.1877,139.5,97.1,0.518
4.24,31947.1,34891.6,-0.89,-1.3135,139.5,97.1,0.518
4.26,31900.2,34956.8,-1.6833,-0.5266,139.5,97.1,0.518
4.28,31955.6,34966.4,-0.7461,-0.4106,139.5,97.1,0.518
4.3,31955.9,35063.0,-0.7397,0.7542,139.5,97.1,0.518
4.32,32057.1,35047.8,0.9743,0.5717,139.5,97.1,0.518
4.34,32007.1,35133.3,0.1275,1.6022,139.5,97.1,0.518
4.36,32083.2,35139.8,1.4169,1.6812,139.5,97.1,0.518
4.38,31921.8,35091.8,-1.3173,1.1018,139.5,97.1,0.518
4.4,31988.0,35064.4,-0.1959,0.7712,139.5,97.1,0.518
4.42,32045.4,35038.6,0.7767,0.46,139.5,97.1,0.518
4.44,32051.3,35032.4,0.8764,0.3851,139.5,97.1,0.518
4.46,31939.6,34975.5,-1.0162,-0.3016,139.5,97.1,0.518
4.48,32016.0,34966.6,0.2786,-0.408,139.5,97.1,0.518
4.5,31979.6,35016.9,-0.3388,0.1987,139.5,97.1,0.518
4.52,31956.4,34925.7,-0.7319,-0.9015,139.5,97.1,0.518
4.54,32010.8,34894.9,0.1897,-1.2734,139.5,97.1,0.518
4.56,32018.7,34948.7,0.324,-0.6251,139.5,97.1,0.518
4.58,31921.7,34914.2,-1.3201,-1.0409,139.5,97.1,0.518
4.6,31998.5,34980.7,-0.0187,-0.2381,139.5,97.1,0.518
4.62,31917.0,34924.7,-1.3987,-0.9143,139.5,97.1,0.518
4.64,31897.5,34810.7,-1.7295,-2.2898,139.5,97.1,0.518
4.66,31972.0,34851.5,-0.4673,-1.7972,139.5,97.1,0.518
4.68,31799.9,34913.1,-3.3834,-1.0545,139.5,97.1,0.518
4.7,31897.7,34947.4,-1.7269,-0.6406,139.5,97.1,0.518
4.72,32018.1,35017.4,0.3134,0.2042,139.5,97.1,0.518
4.74,31915.1,34999.7,-1.4321,-0.0092,139.5,97.1,0.518
4.76,32053.8,35089.7,0.9186,1.0767,139.5,97.1,0.518
4.78,32036.0,35027.1,0.6169,0.3209,139.5,97.1,0.518
4.8,32042.1,35175.4,0.7208,2.1106,139.5,97.1,0.518
4.82,32019.9,35085.9,0.3437,1.0312,139.5,97.1,0.518
4.84,31988.7,35021.3,-0.185,0.2516,139.5,97.1,0.518
4.86,31994.9,34996.4,-0.0797,-0.0496,139.5,97.1,0.518
4.88,32035.2,34988.1,0.603,-0.1497,139.5,97.1,0.518
4.9,32125.2,34968.5,2.1274,-0.3855,139.5,97.1,0.518
4.92,31892.2,35000.7,-1.8199,0.0031,139.5,97.1,0.518
4.94,31943.0,34938.4,-0.9592,-0.7492,139.5,97.1,0.518
4.96,31935.4,34933.7,-1.0874,-0.8056,139.5,97.1,0.518
4.98,32028.8,34936.5,0.4949,-0.7723,139.5,97.1,0.518
5.0,32005.1,34979.7,0.0925,-0.2504,139.5,97.1,0.518
5.02,31962.0,34968.8,-0.6373,-0.3817,139.5,97.1,0.518
5.04,31935.9,34929.9,-1.0789,-0.852,139.5,97.1,0.518
5.06,31924.3,34908.3,-1.2753,-1.1122,139.5,97.1,0.518
5.08,31882.5,34874.7,-1.9832,-1.5174,139.5,97.1,0.518
5.1,31898.0,34930.9,-1.7214,-0.8394,139.5,97.1,0.518
5.12,31929.3,35008.5,-1.1911,0.0974,139.5,97.1,0.518
5.14,31965.7,35069.0,-0.5746,0.8266,139.5,97.1,0.518
5.16,32003.5,34942.8,0.0665,-0.6962,139.5,97.1,0.518
5.18,32039.6,34988.6,0.6776,-0.1432,139.5,97.1,0.518
5.2,32092.3,35082.6,1.5706,0.9913,139.5,97.1,0.518
5.22,32066.4,35079.3,1.1319,0.9512,139.5,97.1,0.518
5.24,32064.9,35050.2,1.1064,0.5999,139.5,97.1,0.518
5.26,32022.8,35066.3,0.3929,0.7946,139.5,97.1,0.518
5.28,31981.8,35122.4,-0.3007,1.471,139.5,97.1,0.518
5.3,31989.0,35002.7,-0.1792,0.0272,139.5,97.1,0.518
5.32,32007.3,34874.7,0.1299,-1.5172,139.5,97.1,0.518
5.34,32040.4,35021.5,0.692,0.2533,139.5,97.1,0.518
5.36,31971.3,35062.3,-0.48,0.7457,139.5,97.1,0.518
5.38,31923.1,35005.0,-1.2961,0.0548,139.5,97.1,0.518
5.4,31939.6,35001.9,-1.0171,0.0179,139.5,97.1,0.518
5.42,31956.3,34959.6,-0.7342,-0.4927,139.5,97.1,0.518
5.44,31938.7,34867.3,-1.0323,-1.6068,139.5,97.1,0.518
5.46,31980.9,34930.8,-0.3159,-0.8402,139.5,97.1,0.518
5.48,31960.4,34987.0,-0.6635,-0.1629,139.5,97.1,0.518
5.5,31983.2,34808.4,-0.2769,-2.3169,139.5,97.1,0.518
5.52,32037.8,34895.3,0.6466,-1.2694,139.5,97.1,0.518
5.54,31981.3,34970.0,-0.3102,-0.3671,139.5,97.1,0.518
5.56,31917.8,35003.9,-1.386,0.0409,139.5,97.1,0.518
5.58,32024.9,34911.7,0.4295,-1.0713,139.5,97.1,0.518
5.6,32046.1,35045.4,0.7879,0.542,139.5,97.1,0.518
5.62,32095.4,35089.4,1.6223,1.0734,139.5,97.1,0.518
5.64,32140.5,35124.8,2.3871,1.5007,139.5,97.1,0.518
5.66,32018.2,35158.8,0.3148,1.9102,139.5,97.1,0.518
5.68,32058.3,35051.5,0.9947,0.6156,139.5,97.1,0.518
5.7,31952.0,35167.8,-0.8061,2.0185,139.5,97.1,0.518
5.72,32020.2,35037.4,0.3494,0.4457,139.5,97.1,0.518
5.74,32053.4,35074.7,0.9121,0.896,139.5,97.1,0.518
5.76,32082.3,34952.6,1.4009,-0.5777,139.5,97.1,0.518
5.78,31937.5,35046.1,-1.0521,0.5512,139.5,97.1,0.518
5.8,31966.0,34952.7,-0.5685,-0.5767,139.5,97.1,0.518
5.82,31987.2,34973.1,-0.2094,-0.3306,139.5,97.1,0.518
5.84,31964.2,35011.6,-0.5997,0.1343,139.5,97.1,0.518
5.86,32033.0,34882.2,0.5653,-1.4266,139.5,97.1,0.518
5.88,31900.6,34983.0,-1.6764,-0.2109,139.5,97.1,0.518
5.9,31906.7,34908.5,-1.5733,-1.1097,139.5,97.1,0.518
5.92,31963.7,34958.1,-0.6081,-0.5114,139.5,97.1,0.518
5.94,31865.0,34830.7,-2.2792,-2.0477,139.5,97.1,0.518
5.96,32011.4,35002.3,0.2001,0.022,139.5,97.1,0.518
5.98,31973.2,34911.9,-0.4476,-1.0684,139.5,97.1,0.518
6.0,31980.3,34962.5,-0.3264,-0.4578,139.5,97.1,0.518
6.02,32000.7,34900.6,0.0182,-1.2053,139.5,97.1,0.518
6.04,32053.3,35140.7,0.9096,1.6924,139.5,97.1,0.518
6.06,32099.2,35113.7,1.6873,1.3664,139.5,97.1,0.518
6.08,32076.4,35149.1,1.3019,1.794,139.5,97.1,0.518
6.1,32044.8,35065.4,0.7656,0.7833,139.5,97.1,0.518
6.12,32024.8,35033.6,0.4263,0.3999,139.5,97.1,0.518
6.14,31951.1,35079.6,-0.8223,0.9551,139.5,97.1,0.518
6.16,32003.4,35064.7,0.0647,0.7749,139.5,97.1,0.518
6.18,31998.9,35031.2,-0.0118,0.3711,139.5,97.1,0.518
6.2,32033.4,35016.7,0.5728,0.1961,139.5,97.1,0.518
6.22,31931.3,35012.9,-1.1572,0.1502,139.5,97.1,0.518
6.24,31962.0,34897.4,-0.6365,-1.2432,139.5,97.1,0.518
6.26,31930.5,34961.2,-1.1704,-0.4731,139.5,97.1,0.518
6.28,31985.6,35031.6,-0.2364,0.3758,139.5,97.1,0.518
6.3,31992.6,35015.7,-0.1179,0.1845,139.5,97.1,0.518
6.32,32052.1,34976.2,0.8893,-0.2927,139.5,97.1,0.518
6.34,32052.3,34895.7,0.8936,-1.2641,139.5,97.1,0.518
6.36,31956.4,34944.4,-0.7314,-0.676,139.5,97.1,0.518
6.38,31862.7,34921.1,-2.3192,-0.9582,139.5,97.1,0.518
6.4,31961.6,34943.1,-0.6442,-0.6921,139.5,97.1,0.518
6.42,32031.5,34972.5,0.5412,-0.3377,139.5,97.1,0.518
6.44,31973.8,34981.0,-0.4363,-0.2343,139.5,97.1,0.518
6.46,32002.5,35144.2,0.0498,1.7349,139.5,97.1,0.518
6.48,32003.4,35173.0,0.0644,2.0823,139.5,97.1,0.518
6.5,32056.7,35020.2,0.9671,0.2386,139.5,97.1,0.518
6.52,32086.2,34999.6,1.4671,-0.0108,139.5,97.1,0.518
6.54,32074.0,35048.5,1.2603,0.5793,139.5,97.1,0.518
6.56,32160.2,35118.5,2.7206,1.4241,139.5,97.1,0.518
6.58,31929.6,34999.4,-1.1856,-0.0127,139.5,97.1,0.518
6.6,31934.2,35039.1,-1.107,0.4665,139.5,97.1,0.518
6.62,31999.6,35047.8,0.0001,0.5707,139.5,97.1,0.518
6.64,31944.2,35044.5,-0.9391,0.5308,139.5,97.1,0.518
6.66,31941.7,35003.5,-0.981,0.0368,139.5,97.1,0.518
6.68,31945.6,34884.3,-0.9153,-1.4012,139.5,97.1,0.518
6.7,32021.0,34907.9,0.3627,-1.1168,139.5,97.1,0.518
6.72,31943.8,34922.4,-0.9459,-0.9423,139.5,97.1,0.518
6.74,31976.7,34930.6,-0.3871,-0.8425,139.5,97.1,0.518
6.76,31969.8,35006.8,-0.5046,0.0762,139.5,97.1,0.518
6.78,32006.8,34904.5,0.1227,-1.1584,139.5,97.1,0.518
6.8,31883.4,34907.6,-1.9678,-1.1203,139.5,97.1,0.518
6.82,31887.1,34839.3,-1.9055,-1.9448,139.5,97.1,0.518
6.84,31895.5,34900.4,-1.764,-1.2072,139.5,97.1,0.518
6.86,31908.7,34935.3,-1.5405,-0.7861,139.5,97.1,0.518
6.88,32073.6,35025.4,1.2537,0.3015,139.5,97.1,0.518
6.9,32038.2,35050.7,0.6546,0.6066,139.5,97.1,0.518
6.92,32135.2,35119.1,2.2975,1.431,139.5,97.1,0.518
6.94,31968.1,35050.8,-0.5332,0.6073,139.5,97.1,0.518
6.96,32017.9,35061.2,0.3109,0.7326,139.5,97.1,0.518
6.98,32020.9,35032.5,0.3609,0.3871,139.5,97.1,0.518
7.0,32011.7,34985.0,0.2052,-0.1872,139.5,97.1,0.518
7.02,32000.2,35060.7,0.0106,0.7262,139.5,97.1,0.518
7.04,32021.5,35067.4,0.3717,0.8078,139.5,97.1,0.518
7.06,32011.1,34976.8,0.1943,-0.2853,139.5,97.1,0.518
7.08,31961.6,35007.5,-0.6443,0.0846,139.5,97.1,0.518
7.1,31963.7,35040.9,-0.6074,0.4877,139.5,97.1,0.518
7.12,31929.1,34953.8,-1.1947,-0.5627,139.5,97.1,0.518
7.14,32054.8,34907.3,0.935,-1.1245,139.5,97.1,0.518
7.16,31883.8,34975.9,-1.9607,-0.2959,139.5,97.1,0.518
7.18,31937.3,34945.4,-1.0549,-0.6642,139.5,97.1,0.518
7.2,31955.1,34970.7,-0.7545,-0.3589,139.5,97.1,0.518
7.22,31992.5,34931.8,-0.1206,-0.8286,139.5,97.1,0.518
7.24,31934.5,34991.7,-1.1025,-0.1061,139.5,97.1,0.518
7.26,31977.2,34961.5,-0.3791,-0.4703,139.5,97.1,0.518
7.28,32060.9,34933.8,1.0386,-0.8038,139.5,97.1,0.518
7.3,32081.0,34927.5,1.3781,-0.8798,139.5,97.1,0.518
7.32,31936.2,35106.2,-1.0736,1.2762,139.5,97.1,0.518
7.34,32066.5,35127.1,1.1331,1.5284,139.5,97.1,0.518
7.36,32057.9,35172.7,0.9883,2.0786,139.5,97.1,0.518
7.38,32067.9,35134.3,1.1577,1.6151,139.5,97.1,0.518
7.4,32019.3,35129.6,0.333,1.5586,139.5,97.1,0.518
7.42,32096.7,35081.4,1.6449,0.9764,139.5,97.1,0.518
7.44,32062.9,35099.5,1.0723,1.1952,139.5,97.1,0.518
7.46,31925.5,35115.8,-1.2557,1.392,139.5,97.1,0.518
7.48,32009.6,35085.7,0.1703,1.0284,139.5,97.1,0.518
7.5,31963.6,35018.8,-0.6098,0.2215,139.5,97.1,0.518
7.52,31993.5,35049.9,-0.1027,0.5969,139.5,97.1,0.518
7.54,31966.1,34903.7,-0.5675,-1.1672,139.5,97.1,0.518
7.56,31957.3,34915.3,-0.7159,-1.0271,139.5,97.1,0.518
7.58,32027.9,34987.2,0.4802,-0.1604,139.5,97.1,0.518
7.6,31997.0,34932.5,-0.0445,-0.8203,139.5,97.1,0.518
7.62,32027.2,35004.2,0.4682,0.0456,139.5,97.1,0.518
7.64,31983.3,34902.5,-0.2757,-1.1819,139.5,97.1,0.518
7.66,31901.9,34851.9,-1.6549,-1.792,139.5,97.1,0.518
7.68,32019.9,34822.7,0.3434,-2.1443,139.5,97.1,0.518
7.7,31873.4,34983.6,-2.1369,-0.2032,139.5,97.1,0.518
7.72,31967.3,35004.2,-0.5469,0.0454,139.5,97.1,0.518
7.74,32064.9,35062.8,1.1056,0.752,139.5,97.1,0.518
7.76,32058.7,35120.0,1.0009,1.4422,139.5,97.1,0.518
7.78,32058.7,35265.7,1.0018,3.2008,139.5,97.1,0.518
7.8,32083.8,35111.3,1.4265,1.337,139.5,97.1,0.518
7.82,32055.3,35120.1,0.9437,1.444,139.5,97.1,0.518
7.84,32034.7,35081.4,0.5953,0.9763,139.5,97.1,0.518
7.86,32018.8,35048.9,0.3258,0.5845,139.5,97.1,0.518
7.88,31907.6,35066.3,-1.5576,0.7949,139.5,97.1,0.518
7.9,31997.7,35035.3,-0.0327,0.42,139.5,97.1,0.518
7.92,31994.4,35019.3,-0.0887,0.2277,139.5,97.1,0.518
7.94,32074.6,35001.5,1.2702,0.0123,139.5,97.1,0.518
7.96,31968.8,34912.0,-0.5212,-1.0675,139.5,97.1,0.518
7.98,32007.1,34999.0,0.127,-0.0181,139.5,97.1,0.518
8.0,32011.9,34848.0,0.2079,-1.8401,139.5,97.1,0.518
8.02,31953.6,34953.6,-0.779,-0.5658,139.5,97.1,0.518
8.04,31864.1,34999.5,-2.2949,-0.0122,139.5,97.1,0.518
8.06,31887.4,34943.4,-1.8999,-0.6881,139.5,97.1,0.518
8.08,31952.2,34955.9,-0.8024,-0.5375,139.5,97.1,0.518
8.1,31946.6,34956.8,-0.8974,-0.5274,139.5,97.1,0.518
8.12,31966.3,34951.8,-0.5639,-0.5874,139.5,97.1,0.518
8.14,31956.6,35049.6,-0.7291,0.5926,139.5,97.1,0.518
8.16,31955.8,35037.3,-0.7426,0.4451,139.5,97.1,0.518
8.18,32021.9,34997.9,0.3779,-0.0312,139.5,97.1,0.518
8.2,32055.9,35108.5,0.9536,1.304,139.5,97.1,0.518
8.22,32084.2,35115.2,1.434,1.3841,139.5,97.1,0.518
8.24,32052.1,35118.5,0.8891,1.4243,139.5,97.1,0.518
8.26,31942.3,35044.0,-0.9708,0.5258,139.5,97.1,0.518
8.28,31983.3,35088.5,-0.2756,1.0623,139.5,97.1,0.518
8.3,32035.5,35018.9,0.6088,0.2231,139.5,97.1,0.518
8.32,31978.1,35072.1,-0.3641,0.8639,139.5,97.1,0.518
8.34,31949.4,34976.5,-0.8505,-0.2889,139.5,97.1,0.518
8.36,32008.8,34993.2,0.1566,-0.0871,139.5,97.1,0.518
8.38,31914.6,34939.4,-1.4402,-0.7365,139.5,97.1,0.518
8.4,31947.1,35035.0,-0.8891,0.4164,139.5,97.1,0.518
8.42,31952.1,34866.4,-0.8051,-1.617,139.5,97.1,0.518
8.44,31925.9,34865.9,-1.2487,-1.6231,139.5,97.1,0.518
8.46,31986.3,34984.5,-0.2253,-0.1925,139.5,97.1,0.518
8.48,31945.1,34958.0,-0.9232,-0.5128,139.5,97.1,0.518
8.5,32006.2,34961.1,0.1118,-0.4754,139.5,97.1,0.518
8.52,31929.3,34896.6,-1.1912,-1.2532,139.5,97.1,0.518
8.54,31996.6,34882.6,-0.0516,-1.4225,139.5,97.1,0.518
8.56,31944.4,34924.7,-0.9357,-0.9137,139.5,97.1,0.518
8.58,31956.0,34938.5,-0.7382,-0.748,139.5,97.1,0.518
8.6,31975.7,34993.0,-0.4051,-0.0899,139.5,97.1,0.518
8.62,32061.8,35120.0,1.0538,1.4428,139.5,97.1,0.518
8.64,32034.2,35100.5,0.5867,1.2076,139.5,97.1,0.518
8.66,32045.9,35123.6,0.7851,1.4852,139.5,97.1,0.518
8.68,32108.7,35068.5,1.8486,0.8204,139.5,97.1,0.518
8.7,32128.8,35031.5,2.1894,0.3749,139.5,97.1,0.518
8.72,31987.1,35026.2,-0.2109,0.3108,139.5,97.1,0.518
8.74,31925.3,34978.2,-1.2587,-0.2686,139.5,97.1,0.518
8.76,31938.2,35017.1,-1.0397,0.2008,139.5,97.1,0.518
8.78,32065.3,34880.4,1.1139,-1.4492,139.5,97.1,0.518
8.8,31978.0,35005.7,-0.3665,0.0631,139.5,97.1,0.518
8.82,31946.2,35063.1,-0.9042,0.7553,139.5,97.1,0.518
8.84,31941.4,34894.0,-0.9851,-1.285,139.5,97.1,0.518
8.86,31978.4,34903.7,-0.3586,-1.167,139.5,97.1,0.518
8.88,31944.8,34988.3,-0.9282,-0.1471,139.5,97.1,0.518
8.9,31966.9,34975.8,-0.5542,-0.2975,139.5,97.1,0.518
8.92,31817.1,34890.7,-3.091,-1.3246,139.5,97.1,0.518
8.94,31993.3,34987.9,-0.1074,-0.1512,139.5,97.1,0.518
8.96,31908.2,34937.9,-1.549,-0.7549,139.5,97.1,0.518
8.98,31811.4,34832.6,-3.1887,-2.0259,139.5,97.1,0.518
9.0,31986.1,35004.8,-0.2288,0.0521,139.5,97.1,0.518
9.02,32002.0,35043.5,0.041,0.5191,139.5,97.1,0.518
9.04,32003.0,35105.8,0.0573,1.2708,139.5,97.1,0.518
9.06,32083.5,35207.6,1.4206,2.4992,139.5,97.1,0.518
9.08,31986.4,35159.7,-0.2235,1.9211,139.5,97.1,0.518
9.1,32128.2,35064.6,2.1777,0.774,139.5,97.1,0.518
9.12,32131.6,35013.0,2.2362,0.1513,139.5,97.1,0.518
9.14,31997.2,34989.3,-0.0404,-0.1346,139.5,97.1,0.518
9.16,31993.7,35034.7,-0.0995,0.4129,139.5,97.1,0.518
9.18,31987.6,34987.4,-0.2023,-0.1573,139.5,97.1,0.518
9.2,32029.1,35005.9,0.4998,0.066,139.5,97.1,0.518
9.22,32062.7,34973.0,1.0692,-0.3308,139.5,97.1,0.518
9.24,31931.7,34991.1,-1.1502,-0.1129,139.5,97.1,0.518
9.26,31912.1,34931.4,-1.4819,-0.8336,139.5,97.1,0.518
9.28,32047.6,34925.4,0.8129,-0.906,139.5,97.1,0.518
9.3,31918.4,34992.4,-1.3755,-0.0973,139.5,97.1,0.518
9.32,31962.0,34972.2,-0.6367,-0.3414,139.5,97.1,0.518
9.34,31931.4,35009.1,-1.1557,0.1043,139.5,97.1,0.518
9.36,32071.8,35016.9,1.2229,0.1979,139.5,97.1,0.518
9.38,31921.2,34946.6,-1.3284,-0.6501,139.5,97.1,0.518
9.4,31940.8,34904.4,-0.9968,-1.1593,139.5,97.1,0.518
9.42,31922.8,34950.9,-1.3016,-0.598,139.5,97.1,0.518
9.44,31985.4,34914.6,-0.2407,-1.0358,139.5,97.1,0.518
9.46,31970.7,34981.2,-0.4891,-0.2321,139.5,97.1,0.518
9.48,31971.7,35132.2,-0.4725,1.5894,139.5,97.1,0.518
9.5,32045.9,35104.2,0.7843,1.2519,139.5,97.1,0.518
9.52,32115.3,35093.7,1.9607,1.1255,139.5,97.1,0.518
9.54,31996.5,35140.9,-0.0522,1.6947,139.5,97.1,0.518
9.56,31962.1,35042.6,-0.6355,0.508,139.5,97.1,0.518
9.58,32085.3,34961.4,1.4511,-0.4715,139.5,97.1,0.518
9.6,31989.0,35017.4,-0.18,0.2049,139.5,97.1,0.518
9.62,32043.9,35004.4,0.751,0.0471,139.5,97.1,0.518
9.64,32091.1,35035.6,1.5509,0.4242,139.5,97.1,0.518
9.66,31929.0,34936.8,-1.1952,-0.768,139.5,97.1,0.518
9.68,31959.2,34931.7,-0.6837,-0.83,139.5,97.1,0.518
9.7,31910.9,34970.4,-1.5027,-0.3622,139.5,97.1,0.518
9.72,31990.4,34931.2,-0.1551,-0.8351,139.5,97.1,0.518
9.74,31965.8,34980.3,-0.5729,-0.2437,139.5,97.1,0.518
9.76,31999.0,34912.9,-0.0099,-1.0566,139.5,97.1,0.518
9.78,32042.7,35056.5,0.7308,0.6763,139.5,97.1,0.518
9.8,31908.3,34893.4,-1.5468,-1.2913,139.5,97.1,0.518
9.82,31973.9,34871.0,-0.436,-1.5621,139.5,97.1,0.518
9.84,31887.9,34944.1,-1.8913,-0.6805,139.5,97.1,0.518
9.86,31931.6,34936.2,-1.1523,-0.7755,139.5,97.1,0.518
9.88,32001.5,35020.1,0.0321,0.2365,139.5,97.1,0.518
9.9,31989.5,35097.7,-0.1709,1.173,139.5,97.1,0.518
9.92,32021.6,35098.2,0.3729,1.1789,139.5,97.1,0.518
9.94,32026.9,35071.7,0.4626,0.8591,139.5,97.1,0.518
9.96,32063.0,35111.5,1.0735,1.3399,139.5,97.1,0.518
9.98,32020.4,35167.8,0.3519,2.0194,139.5,97.1,0.518
10.0,32058.9,35133.5,1.0044,1.6055,139.5,97.1,0.518
10.02,32049.7,35049.9,0.8483,0.5961,139.5,97.1,0.518
10.04,32003.9,35019.1,0.0733,0.2254,139.5,97.1,0.518
10.06,32036.6,35051.5,0.6265,0.616,139.5,97.1,0.518
10.08,32008.1,35090.7,0.1443,1.0884,139.5,97.1,0.518
10.1,31995.5,35030.6,-0.0691,0.3634,139.5,97.1,0.518
10.12,31951.6,35039.7,-0.8135,0.4737,139.5,97.1,0.518
10.14,31957.8,34870.2,-0.7084,-1.5716,139.5,97.1,0.518
10.16,31958.2,34961.7,-0.702,-0.4676,139.5,97.1,0.518
10.18,31976.4,34951.8,-0.3927,-0.587,139.5,97.1,0.518
10.2,31980.8,34940.4,-0.3191,-0.725,139.5,97.1,0.518
10.22,32006.7,34923.6,0.1209,-0.927,139.5,97.1,0.518
10.24,31943.3,34874.4,-0.9529,-1.5213,139.5,97.1,0.518
10.26,31890.0,34977.0,-1.8571,-0.2832,139.5,97.1,0.518
10.28,31917.0,34847.0,-1.3988,-1.8516,139.5,97.1,0.518
10.3,32014.8,34889.0,0.2579,-1.3449,139.5,97.1,0.518
10.32,31930.4,35157.2,-1.1719,1.8912,139.5,97.1,0.518
10.34,31981.2,35115.3,-0.3109,1.3862,139.5,97.1,0.518
10.36,31993.2,35170.3,-0.1086,2.0496,139.5,97.1,0.518
10.38,32044.6,35152.1,0.7619,1.8294,139.5,97.1,0.518
10.4,32043.7,35051.7,0.7468,0.6182,139.5,97.1,0.518
10.42,31933.8,35109.2,-1.1137,1.3126,139.5,97.1,0.518
10.44,31987.8,35103.5,-0.2002,1.2428,139.5,97.1,0.518
10.46,31994.7,34980.5,-0.0829,-0.2409,139.5,97.1,0.518
10.48,31961.5,35039.2,-0.6461,0.4678,139.5,97.1,0.518
10.5,32025.7,34982.2,0.4424,-0.2205,139.5,97.1,0.518
10.52,31966.7,34940.1,-0.5579,-0.7283,139.5,97.1,0.518
10.54,31966.5,34990.3,-0.5604,-0.1229,139.5,97.1,0.518
10.56,32003.4,35038.1,0.0641,0.4542,139.5,97.1,0.518
10.58,31987.9,34954.1,-0.1981,-0.5589,139.5,97.1,0.518
10.6,31944.6,35026.0,-0.9323,0.3079,139.5,97.1,0.518
10.62,32030.9,34895.1,0.5309,-1.2712,139.5,97.1,0.518
10.64,31896.1,34961.8,-1.7534,-0.4664,139.5,97.1,0.518
10.66,31935.2,34936.5,-1.0907,-0.7718,139.5,97.1,0.518
10.68,31977.0,34873.5,-0.3831,-1.532,139.5,97.1,0.518
10.7,31979.4,34833.8,-0.3413,-2.0106,139.5,97.1,0.518
10.72,31976.2,34973.3,-0.3971,-0.3279,139.5,97.1,0.518
10.74,32073.4,35019.3,1.2495,0.2267,139.5,97.1,0.518
10.76,32000.3,35040.0,0.012,0.4765,139.5,97.1,0.518
10.78,32055.3,35155.0,0.9437,1.8647,139.5,97.1,0.518
10.8,32008.7,35182.6,0.154,2.1979,139.5,97.1,0.518
10.82,32016.4,35042.7,0.2845,0.5092,139.5,97.1,0.518
10.84,31964.5,35132.6,-0.5951,1.5949,139.5,97.1,0.518
10.86,32012.9,35101.6,0.2257,1.2207,139.5,97.1,0.518
10.88,32045.2,35081.7,0.7725,0.9805,139.5,97.1,0.518
10.9,31968.4,34973.5,-0.5284,-0.3254,139.5,97.1,0.518
10.92,31972.2,35032.0,-0.464,0.38,139.5,97.1,0.518
10.94,31991.1,34950.6,-0.1431,-0.6019,139.5,97.1,0.518
10.96,32002.1,34993.6,0.0424,-0.0828,139.5,97.1,0.518
10.98,31940.1,34941.1,-1.0081,-0.7161,139.5,97.1,0.518
11.0,31992.1,34981.9,-0.1269,-0.2234,139.5,97.1,0.518
11.02,32028.5,34897.8,0.49,-1.2387,139.5,97.1,0.518
11.04,31978.3,34879.7,-0.3609,-1.4576,139.5,97.1,0.518
11.06,31899.3,34933.7,-1.6984,-0.805,139.5,97.1,0.518
11.08,31883.2,34916.4,-1.971,-1.0147,139.5,97.1,0.518
11.1,32047.7,34976.2,0.8144,-0.2931,139.5,97.1,0.518
11.12,32015.4,34923.0,0.2673,-0.9346,139.5,97.1,0.518
11.14,31988.5,34906.8,-0.1879,-1.1306,139.5,97.1,0.518
11.16,32026.3,34907.5,0.452,-1.1222,139.5,97.1,0.518
11.18,31926.0,35084.2,-1.2473,1.0106,139.5,97.1,0.518
11.2,32091.2,35049.0,1.5518,0.5852,139.5,97.1,0.518
11.22,32028.3,35160.3,0.4869,1.9281,139.5,97.1,0.518
11.24,32047.6,35070.0,0.813,0.8386,139.5,97.1,0.518
11.26,32056.9,35162.5,0.9708,1.955,139.5,97.1,0.518
11.28,31990.4,35090.2,-0.1564,1.0824,139.5,97.1,0.518
11.3,32062.3,35018.5,1.0621,0.2182,139.5,97.1,0.518
11.32,31974.8,34979.1,-0.4207,-0.2577,139.5,97.1,0.518
11.34,31949.9,35084.4,-0.8423,1.0133,139.5,97.1,0.518
11.36,31984.7,35016.4,-0.2516,0.192,139.5,97.1,0.518
11.38,32016.2,35059.6,0.2821,0.714,139.5,97.1,0.518
11.4,32022.4,34989.8,0.3857,-0.1288,139.5,97.1,0.518
11.42,31925.6,34998.4,-1.2534,-0.025,139.5,97.1,0.518
11.44,31953.0,34951.1,-0.7885,-0.5956,139.5,97.1,0.518
11.46,31958.8,34983.9,-0.6917,-0.1993,139.5,97.1,0.518
11.48,31949.3,34915.0,-0.8521,-1.0306,139.5,97.1,0.518
11.5,31937.8,34984.6,-1.0475,-0.1916,139.5,97.1,0.518
11.52,32044.1,34988.5,0.7547,-0.1445,139.5,97.1,0.518
11.54,32006.2,34916.4,0.1116,-1.0139,139.5,97.1,0.518
11.56,32027.4,34977.0,0.471,-0.2836,139.5,97.1,0.518
11.58,31983.2,34962.7,-0.278,-0.4554,139.5,97.1,0.518
11.6,32036.5,35008.5,0.625,0.0972,139.5,97.1,0.518
11.62,31958.1,35001.7,-0.7027,0.0151,139.5,97.1,0.518
11.64,32088.4,35106.8,1.5045,1.2834,139.5,97.1,0.518
11.66,32020.0,35121.2,0.3458,1.4568,139.5,97.1,0.518
11.68,32049.7,35123.3,0.8488,1.4819,139.5,97.1,0.518
11.7,32076.1,35005.7,1.2966,0.0627,139.5,97.1,0.518
11.72,32045.3,35019.7,0.7739,0.2315,139.5,97.1,0.518
11.74,32054.9,35015.4,0.9363,0.18,139.5,97.1,0.518
11.76,31952.9,35046.5,-0.7913,0.5554,139.5,97.1,0.518
11.78,31998.6,34968.7,-0.0166,-0.3829,139.5,97.1,0.518
11.8,32076.5,34965.6,1.3029,-0.4201,139.5,97.1,0.518
11.82,31995.8,34988.2,-0.0642,-0.1483,139.5,97.1,0.518
11.84,31918.2,34984.0,-1.3787,-0.199,139.5,97.1,0.518
11.86,31970.0,34978.5,-0.5008,-0.2646,139.5,97.1,0.518
11.88,31978.8,35001.9,-0.3522,0.0176,139.5,97.1,0.518
11.9,31979.4,34964.8,-0.3424,-0.4305,139.5,97.1,0.518
11.92,31989.3,35000.7,-0.1745,0.0029,139.5,97.1,0.518
11.94,32024.0,34975.2,0.4127,-0.3053,139.5,97.1,0.518
11.96,31978.1,34890.9,-0.3648,-1.3223,139.5,97.1,0.518
11.98,31974.4,34900.0,-0.4269,-1.2121,139.5,97.1,0.518
12.0,32009.5,34962.1,0.1682,-0.4625,139.5,97.1,0.518
12.02,31929.9,35025.7,-1.1804,0.3044,139.5,97.1,0.518
12.04,31978.9,35007.3,-0.3513,0.082,139.5,97.1,0.518
12.06,31985.8,35086.2,-0.2342,1.0342,139.5,97.1,0.518
12.08,32003.0,35127.0,0.0576,1.5266,139.5,97.1,0.518
12.1,31926.3,35091.2,-1.2424,1.0943,139.5,97.1,0.518
12.12,32023.4,35105.7,0.4032,1.2702,139.5,97.1,0.518
12.14,31985.0,35103.5,-0.2467,1.2427,139.5,97.1,0.518
12.16,31993.5,34999.0,-0.1031,-0.018,139.5,97.1,0.518
12.18,31957.8,35033.4,-0.7088,0.3978,139.5,97.1,0.518
12.2,31939.8,34999.8,-1.0128,-0.008,139.5,97.1,0.518
12.22,31952.4,35083.2,-0.7989,0.9989,139.5,97.1,0.518
12.24,32023.2,35002.9,0.3998,0.0298,139.5,97.1,0.518
12.26,31960.9,34999.4,-0.6563,-0.0131,139.5,97.1,0.518
12.28,32023.0,34933.9,0.3962,-0.803,139.5,97.1,0.518
12.3,31929.8,34953.8,-1.1817,-0.5633,139.5,97.1,0.518
12.32,31993.0,34952.7,-0.1111,-0.5766,139.5,97.1,0.518
12.34,32038.4,35011.1,0.6568,0.1285,139.5,97.1,0.518
12.36,31965.1,35015.6,-0.5841,0.1825,139.5,97.1,0.518
12.38,31972.6,34855.7,-0.4574,-1.7472,139.5,97.1,0.518
12.4,31919.7,34945.6,-1.3541,-0.6616,139.5,97.1,0.518
12.42,31987.9,34930.2,-0.1988,-0.8478,139.5,97.1,0.518
12.44,31976.3,34969.2,-0.3954,-0.3777,139.5,97.1,0.518
12.46,31958.7,35097.8,-0.6924,1.1747,139.5,97.1,0.518
12.48,32077.0,35090.1,1.3113,1.0821,139.5,97.1,0.518
12.5,32111.6,35132.6,1.8976,1.5943,139.5,97.1,0.518
12.52,32126.8,35182.0,2.1552,2.1904,139.5,97.1,0.518
12.54,32037.5,35016.0,0.6418,0.1872,139.5,97.1,0.518
12.56,32079.9,35040.6,1.3597,0.4842,139.5,97.1,0.518
12.58,32015.6,35066.2,0.2718,0.793,139.5,97.1,0.518
12.6,32001.6,35153.9,0.0346,1.8519,139.5,97.1,0.518
12.62,32062.1,34985.6,1.0587,-0.1789,139.5,97.1,0.518
12.64,32019.8,35029.3,0.3418,0.3483,139.5,97.1,0.518
12.66,32000.4,34994.1,0.0134,-0.0771,139.5,97.1,0.518
12.68,31981.5,34999.2,-0.3073,-0.0153,139.5,97.1,0.518
12.7,31932.7,34842.4,-1.133,-1.9076,139.5,97.1,0.518
12.72,31982.7,34848.7,-0.2855,-1.8305,139.5,97.1,0.518
12.74,31998.4,34932.7,-0.0197,-0.8181,139.5,97.1,0.518
12.76,31998.3,34932.4,-0.0227,-0.8208,139.5,97.1,0.518
12.78,31977.2,34952.9,-0.3794,-0.5737,139.5,97.1,0.518
12.8,31916.1,34892.2,-1.4148,-1.3068,139.5,97.1,0.518
12.82,31945.2,34999.3,-0.9212,-0.0137,139.5,97.1,0.518
12.84,32090.9,34896.0,1.5472,-1.26,139.5,97.1,0.518
12.86,31867.6,34954.5,-2.2365,-0.554,139.5,97.1,0.518
12.88,31918.9,34891.9,-1.3671,-1.3097,139.5,97.1,0.518
12.9,31982.4,35044.5,-0.2912,0.531,139.5,97.1,0.518
12.92,32012.3,35106.2,0.2159,1.2762,139.5,97.1,0.518
12.94,32065.9,35112.2,1.1239,1.3486,139.5,97.1,0.518
12.96,32003.6,35197.6,0.0679,2.3789,139.5,97.1,0.518
12.98,32098.2,35036.7,1.6711,0.4374,139.5,97.1,0.518
13.0,32163.3,35078.4,2.7725,0.9407,139.5,97.1,0.518
13.02,32054.3,35146.8,0.9273,1.7656,139.5,97.1,0.518
13.04,31976.1,34971.7,-0.3987,-0.3474,139.5,97.1,0.518
13.06,32022.6,34942.2,0.3902,-0.7028,139.5,97.1,0.518
13.08,32014.9,34970.2,0.2593,-0.3655,139.5,97.1,0.518
13.1,31999.8,34950.9,0.0039,-0.5978,139.5,97.1,0.518
13.12,32021.7,34998.4,0.3743,-0.0245,139.5,97.1,0.518
13.14,31951.9,34982.6,-0.8084,-0.2151,139.5,97.1,0.518
13.16,31994.1,34979.5,-0.0926,-0.2527,139.5,97.1,0.518
13.18,32001.1,34994.6,0.025,-0.0713,139.5,97.1,0.518
13.2,32064.4,34976.3,1.098,-0.291,139.5,97.1,0.518
13.22,32060.5,34988.2,1.0323,-0.1477,139.5,97.1,0.518
13.24,31906.9,34981.5,-1.5699,-0.2287,139.5,97.1,0.518
13.26,31911.8,34950.7,-1.4871,-0.6007,139.5,97.1,0.518
13.28,31945.1,34904.9,-0.9228,-1.1528,139.5,97.1,0.518
13.3,31962.7,34970.3,-0.6243,-0.3636,139.5,97.1,0.518
13.32,32060.5,34965.8,1.0314,-0.4178,139.5,97.1,0.518
13.34,31960.9,35066.9,-0.6547,0.8017,139.5,97.1,0.518
13.36,32080.1,35099.3,1.363,1.1927,139.5,97.1,0.518
13.38,32066.3,35140.8,1.1305,1.6936,139.5,97.1,0.518
13.4,31962.8,35101.7,-0.6231,1.222,139.5,97.1,0.518
13.42,32087.6,35005.5,1.4905,0.0611,139.5,97.1,0.518
13.44,32071.7,34999.8,1.2213,-0.0082,139.5,97.1,0.518
13.46,32057.6,35104.6,0.9826,1.2562,139.5,97.1,0.518
13.48,31939.3,35024.5,-1.0216,0.2904,139.5,97.1,0.518
13.5,32010.7,35038.3,0.1877,0.4563,139.5,97.1,0.518
13.52,32036.6,35003.3,0.6274,0.0339,139.5,97.1,0.518
13.54,31948.1,35004.3,-0.8723,0.0459,139.5,97.1,0.518
13.56,31949.6,34970.0,-0.8468,-0.3678,139.5,97.1,0.518
13.58,31972.2,34931.3,-0.4646,-0.8349,139.5,97.1,0.518
13.6,31920.0,34917.7,-1.348,-0.9982,139.5,97.1,0.518
13.62,31996.6,34941.6,-0.0514,-0.7103,139.5,97.1,0.518
13.64,31984.0,34939.1,-0.2636,-0.7408,139.5,97.1,0.518
13.66,31985.8,34856.9,-0.2333,-1.7319,139.5,97.1,0.518
13.68,31988.4,35058.9,-0.1896,0.7047,139.5,97.1,0.518
13.7,32005.0,34989.4,0.0921,-0.1331,139.5,97.1,0.518
13.72,31928.1,34995.7,-1.2106,-0.0574,139.5,97.1,0.518
13.74,31922.2,34905.5,-1.3104,-1.1458,139.5,97.1,0.518
13.76,32112.1,35067.9,1.9056,0.8139,139.5,97.1,0.518
13.78,32046.5,35134.9,0.7943,1.6215,139.5,97.1,0.518
13.8,32000.1,35135.5,0.0092,1.6291,139.5,97.1,0.518
13.82,31991.0,35188.8,-0.1458,2.2727,139.5,97.1,0.518
13.84,32016.1,35001.1,0.2792,0.0074,139.5,97.1,0.518
13.86,32047.5,35074.0,0.8115,0.8871,139.5,97.1,0.518
13.88,32103.4,35019.1,1.7583,0.2253,139.5,97.1,0.518
13.9,32105.3,34906.1,1.7915,-1.1381,139.5,97.1,0.518
13.92,32079.2,35018.6,1.3493,0.2187,139.5,97.1,0.518
13.94,32010.0,35006.1,0.1762,0.0676,139.5,97.1,0.518
13.96,31966.5,35093.5,-0.5611,1.1231,139.5,97.1,0.518
13.98,31928.8,34967.7,-1.1994,-0.3956,139.5,97.1,0.518
14.0,31996.9,35003.0,-0.046,0.0308,139.5,97.1,0.518
14.02,32000.9,34943.3,0.0221,-0.6893,139.5,97.1,0.518
14.04,32016.2,35011.7,0.282,0.1357,139.5,97.1,0.518
14.06,31976.7,34913.9,-0.3871,-1.0438,139.5,97.1,0.518
14.08,32012.0,34884.1,0.21,-1.4036,139.5,97.1,0.518
14.1,31992.3,34970.4,-0.1229,-0.3633,139.5,97.1,0.518
14.12,31972.8,34929.4,-0.4542,-0.8575,139.5,97.1,0.518
14.14,32019.4,34901.5,0.3356,-1.1942,139.5,97.1,0.518
14.16,31974.4,35005.8,-0.4262,0.0649,139.5,97.1,0.518
14.18,32038.6,34994.1,0.6608,-0.0768,139.5,97.1,0.518
14.2,32088.7,35060.6,1.5091,0.726,139.5,97.1,0.518
14.22,32077.6,35065.5,1.3214,0.7845,139.5,97.1,0.518
14.24,32035.1,35139.6,0.6009,1.6784,139.5,97.1,0.518
14.26,32008.8,35121.1,0.1566,1.4554,139.5,97.1,0.518
14.28,32068.2,35029.6,1.1619,0.3514,139.5,97.1,0.518
14.3,32025.8,34986.6,0.4442,-0.1674,139.5,97.1,0.518
14.32,31996.1,35048.7,-0.0592,0.5821,139.5,97.1,0.518
14.34,31965.9,35019.7,-0.5701,0.2317,139.5,97.1,0.518
14.36,31961.2,35049.7,-0.6512,0.594,139.5,97.1,0.518
14.38,32029.7,34980.4,0.5104,-0.2421,139.5,97.1,0.518
14.4,32036.1,34975.2,0.6183,-0.3043,139.5,97.1,0.518
14.42,31948.6,35087.5,-0.8641,1.0499,139.5,97.1,0.518
14.44,31858.9,35065.9,-2.384,0.79,139.5,97.1,0.518
14.46,31894.3,34924.2,-1.7845,-0.9205,139.5,97.1,0.518
14.48,31990.2,34931.1,-0.1598,-0.8368,139.5,97.1,0.518
14.5,31951.3,34946.1,-0.8177,-0.6559,139.5,97.1,0.518
14.52,31926.5,34875.6,-1.2374,-1.5064,139.5,97.1,0.518
14.54,31979.6,34827.4,-0.3394,-2.0884,139.5,97.1,0.518
14.56,31988.8,34893.5,-0.1821,-1.29,139.5,97.1,0.518
14.58,31964.0,34864.4,-0.6028,-1.6414,139.5,97.1,0.518
14.6,32060.7,34974.7,1.0345,-0.3107,139.5,97.1,0.518
14.62,32041.7,35032.3,0.7137,0.3839,139.5,97.1,0.518
14.64,32061.4,35053.2,1.0469,0.6363,139.5,97.1,0.518
14.66,32016.6,35072.7,0.2884,0.8719,139.5,97.1,0.518
14.68,32058.7,35079.2,1.002,0.9506,139.5,97.1,0.518
14.7,32073.4,35102.5,1.2501,1.2312,139.5,97.1,0.518
14.72,31960.0,35044.6,-0.6714,0.5331,139.5,97.1,0.518
14.74,32001.0,34996.9,0.0233,-0.0433,139.5,97.1,0.518
14.76,32072.8,35071.8,1.2406,0.8607,139.5,97.1,0.518
14.78,32014.4,34989.8,0.2506,-0.1288,139.5,97.1,0.518
14.8,32000.5,34946.9,0.0153,-0.6461,139.5,97.1,0.518
14.82,31996.7,35037.4,-0.0498,0.4452,139.5,97.1,0.518
14.84,31981.4,34920.6,-0.3083,-0.964,139.5,97.1,0.518
14.86,31932.9,34859.7,-1.1299,-1.6985,139.5,97.1,0.518
14.88,32004.9,34989.1,0.0901,-0.1375,139.5,97.1,0.518
14.9,32031.6,34862.5,0.5416,-1.6644,139.5,97.1,0.518
14.92,32013.7,34823.4,0.2388,-2.1366,139.5,97.1,0.518
14.94,32026.6,34964.1,0.4582,-0.4388,139.5,97.1,0.518
14.96,32012.2,34924.5,0.2131,-0.9169,139.5,97.1,0.518
14.98,31896.6,34868.6,-1.7451,-1.5908,139.5,97.1,0.518
15.0,32004.6,34885.1,0.0847,-1.3915,139.5,97.1,0.518
15.02,32009.4,34970.5,0.1669,-0.3618,139.5,97.1,0.518
15.04,32045.5,34929.6,0.7775,-0.8556,139.5,97.1,0.518
15.06,31844.9,34995.9,-2.6205,-0.0552,139.5,97.1,0.518
15.08,32076.9,35133.4,1.3088,1.6042,139.5,97.1,0.518
15.1,32100.2,35087.0,1.7038,1.0445,139.5,97.1,0.518
15.12,32121.7,35128.5,2.069,1.5449,139.5,97.1,0.518
15.14,32001.8,35065.7,0.0374,0.7866,139.5,97.1,0.518
15.16,31942.5,35116.8,-0.9679,1.4041,139.5,97.1,0.518
15.18,31986.0,34967.9,-0.2303,-0.3925,139.5,97.1,0.518
15.2,32075.8,34970.3,1.2917,-0.3638,139.5,97.1,0.518
15.22,31990.6,34933.1,-0.1527,-0.8127,139.5,97.1,0.518
15.24,32053.7,34983.9,0.9166,-0.1994,139.5,97.1,0.518
15.26,31957.4,35013.5,-0.7143,0.1579,139.5,97.1,0.518
15.28,32035.7,34963.4,0.6116,-0.4469,139.5,97.1,0.518
15.3,31951.7,35029.4,-0.8106,0.3487,139.5,97.1,0.518
15.32,32008.0,34878.6,0.1427,-1.4709,139.5,97.1,0.518
15.34,31999.8,34934.4,0.0032,-0.7967,139.5,97.1,0.518
15.36,31854.7,34837.6,-2.4553,-1.9648,139.5,97.1,0.518
15.38,31961.4,34932.0,-0.6469,-0.8256,139.5,97.1,0.518
15.4,31947.6,35026.6,-0.88,0.3156,139.5,97.1,0.518
15.42,31951.5,34915.8,-0.8147,-1.021,139.5,97.1,0.518
15.44,31982.5,34969.9,-0.29,-0.369,139.5,97.1,0.518
15.46,31940.8,34957.1,-0.9954,-0.5232,139.5,97.1,0.518
15.48,32050.0,35092.4,0.8537,1.1091,139.5,97.1,0.518
15.5,31988.5,35090.4,-0.1873,1.0849,139.5,97.1,0.518
15.52,32009.0,34997.3,0.1596,-0.0379,139.5,97.1,0.518
15.54,32082.6,35133.0,1.4056,1.5992,139.5,97.1,0.518
15.56,32127.8,35016.2,2.1723,0.1894,139.5,97.1,0.518
15.58,31968.8,35046.1,-0.5211,0.5511,139.5,97.1,0.518
15.6,32027.4,35052.9,0.4711,0.6333,139.5,97.1,0.518
15.62,31977.8,35082.3,-0.3698,0.9871,139.5,97.1,0.518
15.64,31993.2,34981.2,-0.1089,-0.2323,139.5,97.1,0.518
15.66,32030.1,35008.7,0.5172,0.0993,139.5,97.1,0.518
15.68,31993.4,34970.4,-0.1053,-0.3633,139.5,97.1,0.518
15.7,31900.9,34993.2,-1.6724,-0.0875,139.5,97.1,0.518
15.72,31913.1,34882.9,-1.4647,-1.4189,139.5,97.1,0.518
15.74,31944.3,34841.4,-0.9364,-1.9194,139.5,97.1,0.518
15.76,31924.6,34899.2,-1.2696,-1.2213,139.5,97.1,0.518
15.78,31964.1,34907.1,-0.6012,-1.1266,139.5,97.1,0.518
15.8,32060.6,34929.2,1.0328,-0.8598,139.5,97.1,0.518
15.82,31990.1,34945.4,-0.1613,-0.6645,139.5,97.1,0.518
15.84,31969.4,34917.5,-0.5123,-1.0009,139.5,97.1,0.518
15.86,32042.6,34904.5,0.7279,-1.1579,139.5,97.1,0.518
15.88,32040.0,34899.3,0.6838,-1.2211,139.5,97.1,0.518
15.9,31972.3,34973.9,-0.462,-0.32,139.5,97.1,0.518
15.92,32059.3,34988.9,1.0107,-0.139,139.5,97.1,0.518
15.94,32078.1,35077.0,1.33,0.923,139.5,97.1,0.518
15.96,32006.9,35101.5,0.123,1.2186,139.5,97.1,0.518
15.98,32046.1,35065.9,0.7879,0.7899,139.5,97.1,0.518
16.0,32051.0,35021.1,0.871,0.2488,139.5,97.1,0.518
16.02,31951.3,35058.0,-0.8183,0.6946,139.5,97.1,0.518
16.04,31995.5,34955.7,-0.069,-0.5399,139.5,97.1,0.518
16.06,31921.1,34911.2,-1.3288,-1.0774,139.5,97.1,0.518
16.08,32017.7,35069.9,0.3075,0.8379,139.5,97.1,0.518
16.1,32069.9,34959.0,1.1904,-0.4998,139.5,97.1,0.518
16.12,32066.3,35026.9,1.1301,0.3191,139.5,97.1,0.518
16.14,31963.4,34971.4,-0.6136,-0.3505,139.5,97.1,0.518
16.16,32025.2,34928.2,0.4339,-0.8716,139.5,97.1,0.518
16.18,31966.1,34918.9,-0.568,-0.9845,139.5,97.1,0.518
16.2,31933.2,34911.3,-1.1251,-1.0753,139.5,97.1,0.518
16.22,31957.2,34920.8,-0.7187,-0.9609,139.5,97.1,0.518
16.24,31970.0,34956.4,-0.502,-0.5315,139.5,97.1,0.518
16.26,31945.4,34906.0,-0.9177,-1.1403,139.5,97.1,0.518
16.28,31890.6,34961.9,-1.847,-0.4647,139.5,97.1,0.518
16.3,31875.4,34862.4,-2.1039,-1.6663,139.5,97.1,0.518
16.32,31954.4,35020.7,-0.7662,0.2437,139.5,97.1,0.518
16.34,31995.0,35003.2,-0.0776,0.0328,139.5,97.1,0.518
16.36,32072.8,35084.2,1.2398,1.0101,139.5,97.1,0.518
16.38,32125.2,35071.4,2.1271,0.8565,139.5,97.1,0.518
16.4,32082.2,35196.3,1.3996,2.3626,139.5,97.1,0.518
16.42,32034.2,35148.2,0.586,1.7826,139.5,97.1,0.518
16.44,32011.4,35056.1,0.1992,0.6716,139.5,97.1,0.518
16.46,32069.3,35078.0,1.1808,0.9362,139.5,97.1,0.518
16.48,32039.2,34974.7,0.6706,-0.3103,139.5,97.1,0.518
16.5,31981.2,35002.3,-0.3114,0.0221,139.5,97.1,0.518
16.52,32038.8,34968.3,0.6634,-0.3884,139.5,97.1,0.518
16.54,31968.6,34959.0,-0.5254,-0.5007,139.5,97.1,0.518
16.56,32073.8,34923.6,1.2571,-0.9279,139.5,97.1,0.518
16.58,31817.6,34965.4,-3.0835,-0.4231,139.5,97.1,0.518
16.6,31914.9,34997.0,-1.4355,-0.0413,139.5,97.1,0.518
16.62,31960.6,34941.3,-0.6604,-0.7134,139.5,97.1,0.518
16.64,31969.1,35002.8,-0.5167,0.0281,139.5,97.1,0.518
16.66,32021.3,35022.8,0.3684,0.2695,139.5,97.1,0.518
16.68,32009.8,34889.3,0.1722,-1.3413,139.5,97.1,0.518
16.7,31954.0,34904.2,-0.7717,-1.1609,139.5,97.1,0.518
16.72,31998.5,34915.8,-0.0187,-1.0214,139.5,97.1,0.518
16.74,31930.9,34929.4,-1.1634,-0.8574,139.5,97.1,0.518
16.76,31933.5,34967.7,-1.1197,-0.3948,139.5,97.1,0.518
16.78,32025.5,35028.8,0.4394,0.3417,139.5,97.1,0.518
16.8,32062.7,35106.9,1.0683,1.2845,139.5,97.1,0.518
16.82,31993.6,35011.0,-0.1018,0.1274,139.5,97.1,0.518
16.84,31988.6,35190.7,-0.1868,2.2958,139.5,97.1,0.518
16.86,32087.0,35150.5,1.4807,1.8104,139.5,97.1,0.518
16.88,31991.0,35104.7,-0.1456,1.2583,139.5,97.1,0.518
16.9,31956.3,34986.1,-0.7329,-0.1731,139.5,97.1,0.518
16.92,32127.8,35033.5,2.171,0.3983,139.5,97.1,0.518
16.94,31989.7,35049.7,-0.1673,0.5944,139.5,97.1,0.518
16.96,31946.0,34984.6,-0.9081,-0.1912,139.5,97.1,0.518
16.98,31950.9,34978.4,-0.8245,-0.2665,139.5,97.1,0.518
17.0,31992.4,34989.8,-0.1213,-0.1282,139.5,97.1,0.518
17.02,32072.3,34955.7,1.2314,-0.5395,139.5,97.1,0.518
17.04,32017.3,34898.1,0.2999,-1.2346,139.5,97.1,0.518
17.06,31940.8,34944.1,-0.9956,-0.6795,139.5,97.1,0.518
17.08,31917.5,34986.2,-1.3902,-0.1719,139.5,97.1,0.518
17.1,32051.5,34990.2,0.8796,-0.1243,139.5,97.1,0.518
17.12,31937.6,34925.7,-1.0509,-0.9022,139.5,97.1,0.518
17.14,31983.5,34906.3,-0.273,-1.1356,139.5,97.1,0.518
17.16,32007.8,34931.9,0.1384,-0.8277,139.5,97.1,0.518
17.18,31912.0,34964.2,-1.4836,-0.4378,139.5,97.1,0.518
17.2,32077.2,35038.2,1.3144,0.4558,139.5,97.1,0.518
17.22,32018.1,34986.6,0.313,-0.1667,139.5,97.1,0.518
17.24,32045.3,35045.4,0.7746,0.5426,139.5,97.1,0.518
17.26,32027.9,35092.6,0.4803,1.1122,139.5,97.1,0.518
17.28,32015.1,35014.9,0.2618,0.1738,139.5,97.1,0.518
17.3,32126.9,35050.7,2.1558,0.6066,139.5,97.1,0.518
17.32,31918.4,35097.7,-1.3749,1.1737,139.5,97.1,0.518
17.34,32048.5,34965.2,0.8277,-0.4258,139.5,97.1,0.518
17.36,32058.8,35020.6,1.0025,0.2434,139.5,97.1,0.518
17.38,31944.9,34988.4,-0.9272,-0.1458,139.5,97.1,0.518
17.4,31959.7,35067.9,-0.6751,0.8135,139.5,97.1,0.518
17.42,32051.2,34980.5,0.8749,-0.2404,139.5,97.1,0.518
17.44,32043.7,34925.7,0.7468,-0.9022,139.5,97.1,0.518
17.46,32014.4,34894.4,0.2507,-1.28,139.5,97.1,0.518
17.48,32018.5,34975.5,0.3205,-0.3016,139.5,97.1,0.518
17.5,31987.3,34898.9,-0.2082,-1.2259,139.5,97.1,0.518
17.52,32017.9,34997.9,0.3096,-0.0303,139.5,97.1,0.518
17.54,31923.7,34900.7,-1.285,-1.2037,139.5,97.1,0.518
17.56,31909.8,34942.7,-1.5217,-0.6969,139.5,97.1,0.518
17.58,31897.1,34896.3,-1.7367,-1.2562,139.5,97.1,0.518
17.6,32000.7,34918.8,0.0189,-0.9859,139.5,97.1,0.518
17.62,31974.4,35036.5,-0.4262,0.4349,139.5,97.1,0.518
17.64,31967.9,35092.2,-0.5374,1.1071,139.5,97.1,0.518
17.66,32056.3,35082.1,0.9604,0.985,139.5,97.1,0.518
17.68,32061.7,35195.4,1.0517,2.3526,139.5,97.1,0.518
17.7,32079.9,35191.8,1.3607,2.3086,139.5,97.1,0.518
17.72,32080.7,35053.6,1.3735,0.6412,139.5,97.1,0.518
17.74,31987.7,35068.2,-0.2015,0.8176,139.5,97.1,0.518
17.76,31981.0,35044.2,-0.315,0.5272,139.5,97.1,0.518
17.78,32050.4,35005.7,0.8614,0.0636,139.5,97.1,0.518
17.8,32092.9,34964.6,1.581,-0.4327,139.5,97.1,0.518
17.82,31956.1,35036.6,-0.736,0.4366,139.5,97.1,0.518
17.84,31922.8,34976.1,-1.3011,-0.294,139.5,97.1,0.518
17.86,32024.2,34981.1,0.4162,-0.2342,139.5,97.1,0.518
17.88,32042.6,34893.8,0.7286,-1.2866,139.5,97.1,0.518
17.9,31949.6,34915.9,-0.8464,-1.0209,139.5,97.1,0.518
17.92,31993.0,34968.1,-0.112,-0.391,139.5,97.1,0.518
17.94,31838.4,34881.0,-2.7309,-1.4409,139.5,97.1,0.518
17.96,32016.7,34858.2,0.2896,-1.7162,139.5,97.1,0.518
17.98,31996.3,34935.4,-0.0558,-0.7845,139.5,97.1,0.518
18.0,32004.6,34924.7,0.0856,-0.9144,139.5,97.1,0.518
18.02,31948.7,34934.9,-0.8617,-0.791,139.5,97.1,0.518
18.04,31996.1,34964.1,-0.0592,-0.4389,139.5,97.1,0.518
18.06,32050.6,34990.3,0.8636,-0.1227,139.5,97.1,0.518
18.08,31935.4,35138.6,-1.0881,1.6667,139.5,97.1,0.518
18.1,32075.6,35095.5,1.2882,1.1468,139.5,97.1,0.518
18.12,32037.9,35083.6,0.6485,1.0036,139.5,97.1,0.518
18.14,32046.8,35153.0,0.7989,1.8399,139.5,97.1,0.518
18.16,31989.2,35022.6,-0.1762,0.2667,139.5,97.1,0.518
18.18,32027.3,35046.2,0.4693,0.5517,139.5,97.1,0.518
18.2,31995.1,35003.5,-0.0763,0.0362,139.5,97.1,0.518
18.22,31999.0,35097.4,-0.0097,1.1698,139.5,97.1,0.518
18.24,32016.5,35010.6,0.2864,0.1223,139.5,97.1,0.518
18.26,31944.9,34930.9,-0.9271,-0.8395,139.5,97.1,0.518
18.28,31943.9,34991.7,-0.943,-0.1062,139.5,97.1,0.518
18.3,31952.1,34869.8,-0.8049,-1.5768,139.5,97.1,0.518
18.32,32043.7,34904.8,0.7467,-1.1543,139.5,97.1,0.518
18.34,31922.6,34912.8,-1.3047,-1.0581,139.5,97.1,0.518
18.36,31987.4,34958.6,-0.2063,-0.5053,139.5,97.1,0.518
18.38,31985.4,34891.0,-0.2397,-1.3206,139.5,97.1,0.518
18.4,32041.8,34992.1,0.7157,-0.101,139.5,97.1,0.518
18.42,31995.5,34905.1,-0.0695,-1.1504,139.5,97.1,0.518
18.44,31959.6,35004.4,-0.6779,0.0479,139.5,97.1,0.518
18.46,31907.4,34959.2,-1.5616,-0.4974,139.5,97.1,0.518
18.48,31938.7,34934.0,-1.032,-0.8025,139.5,97.1,0.518
18.5,32084.5,34972.8,1.4381,-0.3335,139.5,97.1,0.518
18.52,32077.6,35178.7,1.3218,2.1503,139.5,97.1,0.518
18.54,32011.8,35111.6,0.2074,1.3408,139.5,97.1,0.518
18.56,32058.5,35090.5,0.997,1.0859,139.5,97.1,0.518
18.58,32051.6,35020.0,0.8803,0.2355,139.5,97.1,0.518
18.6,32027.7,35013.4,0.476,0.1564,139.5,97.1,0.518
18.62,32115.6,35033.6,1.9646,0.4001,139.5,97.1,0.518
18.64,31982.4,34984.3,-0.2915,-0.1953,139.5,97.1,0.518
18.66,31988.9,35086.3,-0.1815,1.0352,139.5,97.1,0.518
18.68,32019.4,34963.8,0.335,-0.442,139.5,97.1,0.518
18.7,31962.4,35024.0,-0.6295,0.2844,139.5,97.1,0.518
18.72,32020.9,34965.7,0.3604,-0.4188,139.5,97.1,0.518
18.74,31990.9,34864.8,-0.1468,-1.6363,139.5,97.1,0.518
18.76,31983.0,34954.5,-0.2806,-0.5549,139.5,97.1,0.518
18.78,31971.1,34942.5,-0.4825,-0.699,139.5,97.1,0.518
18.8,31977.9,34994.5,-0.367,-0.0724,139.5,97.1,0.518
18.82,31997.6,34909.8,-0.0337,-1.0935,139.5,97.1,0.518
18.84,32027.5,34905.9,0.4719,-1.1409,139.5,97.1,0.518
18.86,32008.0,34909.2,0.1427,-1.101,139.5,97.1,0.518
18.88,31941.4,34910.1,-0.9852,-1.0905,139.5,97.1,0.518
18.9,31952.9,34926.2,-0.7909,-0.8963,139.5,97.1,0.518
18.92,32012.4,34960.2,0.2162,-0.4852,139.5,97.1,0.518
18.94,32056.9,35062.2,0.9713,0.7452,139.5,97.1,0.518
18.96,32052.8,35076.1,0.9019,0.9132,139.5,97.1,0.518
18.98,32016.9,35077.9,0.2938,0.9344,139.5,97.1,0.518
19.0,32080.0,35090.2,1.3626,1.0827,139.5,97.1,0.518
19.02,32071.3,35030.4,1.2149,0.3611,139.5,97.1,0.518
19.04,31988.9,35031.2,-0.1815,0.3708,139.5,97.1,0.518
19.06,31992.8,34985.0,-0.1153,-0.1865,139.5,97.1,0.518
19.08,32021.8,35003.7,0.3768,0.0385,139.5,97.1,0.518
19.1,32112.0,34983.0,1.9043,-0.211,139.5,97.1,0.518
19.12,31978.6,35050.4,-0.3554,0.603,139.5,97.1,0.518
19.14,32018.7,34912.9,0.3239,-1.0569,139.5,97.1,0.518
19.16,31985.3,34964.0,-0.2422,-0.4404,139.5,97.1,0.518
19.18,31965.0,34993.2,-0.5863,-0.0875,139.5,97.1,0.518
19.2,31990.6,34947.5,-0.1523,-0.639,139.5,97.1,0.518
19.22,31940.7,34936.5,-0.9982,-0.7719,139.5,97.1,0.518
19.24,31952.9,34947.5,-0.7906,-0.6387,139.5,97.1,0.518
19.26,32003.7,34848.6,0.07,-1.8324,139.5,97.1,0.518
19.28,31930.6,34854.8,-1.1691,-1.7575,139.5,97.1,0.518
19.3,31974.3,34920.1,-0.4286,-0.9692,139.5,97.1,0.518
19.32,31939.2,34947.2,-1.0238,-0.6425,139.5,97.1,0.518
19.34,32023.9,34969.1,0.4113,-0.3786,139.5,97.1,0.518
19.36,31957.7,35075.8,-0.7097,0.9093,139.5,97.1,0.518
19.38,32045.6,35159.2,0.7793,1.9148,139.5,97.1,0.518
19.4,32110.0,35092.0,1.8701,1.1039,139.5,97.1,0.518
19.42,32044.3,35094.9,0.757,1.1391,139.5,97.1,0.518
19.44,31998.9,35067.4,-0.0114,0.8077,139.5,97.1,0.518
19.46,31950.8,35106.1,-0.8266,1.274,139.5,97.1,0.518
19.48,32051.0,34980.0,0.8704,-0.2464,139.5,97.1,0.518
19.5,31971.5,34983.1,-0.4765,-0.2095,139.5,97.1,0.518
19.52,31994.2,34995.0,-0.0916,-0.0663,139.5,97.1,0.518
19.54,31983.8,34952.8,-0.2669,-0.5751,139.5,97.1,0.518
19.56,31902.9,35036.9,-1.6381,0.4392,139.5,97.1,0.518
19.58,31982.7,35016.0,-0.2856,0.1878,139.5,97.1,0.518
19.6,31949.9,34918.8,-0.8412,-0.9856,139.5,97.1,0.518
19.62,31990.1,34965.9,-0.1603,-0.4171,139.5,97.1,0.518
19.64,31958.9,34953.0,-0.6902,-0.5728,139.5,97.1,0.518
19.66,31923.5,34899.3,-1.2897,-1.2209,139.5,97.1,0.518
19.68,31986.2,34926.4,-0.2266,-0.8931,139.5,97.1,0.518
19.7,31937.3,34938.5,-1.0552,-0.7482,139.5,97.1,0.518
19.72,31878.4,34837.7,-2.0528,-1.9633,139.5,97.1,0.518
19.74,31933.1,34957.0,-1.1261,-0.524,139.5,97.1,0.518
19.76,32009.1,35057.3,0.1616,0.6853,139.5,97.1,0.518
19.78,31958.4,34974.3,-0.6983,-0.3153,139.5,97.1,0.518
19.8,32110.5,35025.0,1.8787,0.2962,139.5,97.1,0.518
19.82,32084.1,35073.7,1.4317,0.8836,139.5,97.1,0.518
19.84,32101.6,35151.9,1.7279,1.8274,139.5,97.1,0.518
19.86,32042.7,35085.5,0.7294,1.0265,139.5,97.1,0.518
19.88,32054.2,35068.8,0.9253,0.8248,139.5,97.1,0.518
19.9,32037.4,34990.0,0.6399,-0.126,139.5,97.1,0.518
19.92,31957.0,34928.6,-0.7221,-0.8668,139.5,97.1,0.518
19.94,31886.2,35038.1,-1.9213,0.4536,139.5,97.1,0.518
19.96,31985.7,35077.6,-0.2361,0.9313,139.5,97.1,0.518
19.98,31960.5,35034.2,-0.6626,0.4075,139.5,97.1,0.518
20.0,32020.3,35012.3,0.3504,0.1426,139.5,97.1,0.518
20.02,32050.8,35012.7,0.8669,0.1482,139.5,97.1,0.518
20.04,31857.1,35082.3,-2.4143,0.9873,139.5,97.1,0.518
20.06,32055.1,34903.0,0.9406,-1.1758,139.5,97.1,0.518
20.08,31916.1,35014.8,-1.4144,0.173,139.5,97.1,0.518
20.1,31956.8,34940.6,-0.7252,-0.7218,139.5,97.1,0.518
20.12,31956.0,34991.7,-0.7387,-0.1057,139.5,97.1,0.518
20.14,32026.4,34939.4,0.4534,-0.7366,139.5,97.1,0.518
20.16,31982.6,34890.9,-0.2881,-1.3222,139.5,97.1,0.518
20.18,31901.7,34902.2,-1.659,-1.1862,139.5,97.1,0.518
20.2,31950.6,34966.2,-0.8307,-0.4139,139.5,97.1,0.518
20.22,32149.6,35016.1,2.541,0.1884,139.5,97.1,0.518
20.24,32074.5,35118.2,1.2681,1.4202,139.5,97.1,0.518
20.26,32042.6,35174.1,0.7288,2.0956,139.5,97.1,0.518
20.28,32147.5,35170.3,2.5061,2.049,139.5,97.1,0.518
20.3,31961.1,35101.0,-0.6513,1.2131,139.5,97.1,0.518
20.32,32001.8,35001.6,0.0374,0.0135,139.5,97.1,0.518
20.34,32094.3,35045.7,1.6045,0.5463,139.5,97.1,0.518
20.36,31994.4,34951.9,-0.0885,-0.5865,139.5,97.1,0.518
20.38,32072.1,35044.6,1.2278,0.5322,139.5,97.1,0.518
20.4,32012.1,34980.2,0.2115,-0.2447,139.5,97.1,0.518
20.42,31967.5,34973.5,-0.5432,-0.3252,139.5,97.1,0.518
20.44,31964.2,34928.6,-0.5994,-0.8675,139.5,97.1,0.518
20.46,31981.5,34900.7,-0.3069,-1.204,139.5,97.1,0.518
20.48,31881.1,34949.4,-2.007,-0.6166,139.5,97.1,0.518
20.5,31944.5,34870.6,-0.9333,-1.567,139.5,97.1,0.518
20.52,32037.6,34936.7,0.6431,-0.7695,139.5,97.1,0.518
20.54,31942.6,34953.0,-0.966,-0.5724,139.5,97.1,0.518
20.56,32050.2,34887.6,0.857,-1.3622,139.5,97.1,0.518
20.58,31946.9,34854.1,-0.8926,-1.7662,139.5,97.1,0.518
20.6,31864.7,34873.6,-2.2858,-1.5301,139.5,97.1,0.518
20.62,31983.7,34996.0,-0.269,-0.0538,139.5,97.1,0.518
20.64,32057.9,35054.3,0.9869,0.6493,139.5,97.1,0.518
20.66,32045.9,35113.3,0.7848,1.3611,139.5,97.1,0.518
20.68,32115.7,35058.1,1.9667,0.6959,139.5,97.1,0.518
20.7,32067.7,35167.5,1.1529,2.0156,139.5,97.1,0.518
20.72,32054.1,35105.3,0.9234,1.2649,139.5,97.1,0.518
20.74,32044.1,35073.2,0.7535,0.8775,139.5,97.1,0.518
20.76,32045.1,35062.4,0.7701,0.7478,139.5,97.1,0.518
20.78,31915.0,35005.3,-1.4329,0.0589,139.5,97.1,0.518
20.8,32047.4,35109.6,0.8098,1.3171,139.5,97.1,0.518
20.82,32030.3,34925.1,0.5205,-0.9098,139.5,97.1,0.518
20.84,32068.7,35017.3,1.17,0.2031,139.5,97.1,0.518
20.86,31998.7,34996.0,-0.0147,-0.0542,139.5,97.1,0.518
20.88,31999.6,34991.2,0.0008,-0.1121,139.5,97.1,0.518
20.9,31919.7,34924.1,-1.3535,-0.9218,139.5,97.1,0.518
20.92,32032.5,34899.2,0.5568,-1.2222,139.5,97.1,0.518
20.94,31942.7,34981.0,-0.9636,-0.2345,139.5,97.1,0.518
20.96,31963.0,34886.5,-0.6195,-1.3756,139.5,97.1,0.518
20.98,32067.7,35007.1,1.154,0.0803,139.5,97.1,0.518
21.0,32019.9,34840.8,0.344,-1.926,139.5,97.1,0.518
21.02,31959.3,34873.1,-0.6827,-1.537,139.5,97.1,0.518
21.04,31979.2,35019.2,-0.3459,0.2257,139.5,97.1,0.518
21.06,32032.8,35050.7,0.5618,0.6063,139.5,97.1,0.518
21.08,31988.7,35017.8,-0.1838,0.2097,139.5,97.1,0.518
21.1,32064.2,35065.5,1.0951,0.7842,139.5,97.1,0.518
21.12,32053.0,35186.3,0.9041,2.2426,139.5,97.1,0.518
21.14,32021.2,35063.4,0.3661,0.7597,139.5,97.1,0.518
21.16,32077.2,35049.7,1.3146,0.5936,139.5,97.1,0.518
21.18,32033.3,34990.8,0.5704,-0.1164,139.5,97.1,0.518
21.2,31994.9,34991.9,-0.0794,-0.103,139.5,97.1,0.518
21.22,31961.1,35134.3,-0.6523,1.6147,139.5,97.1,0.518
21.24,32026.1,35061.0,0.4485,0.731,139.5,97.1,0.518
21.26,32067.7,35032.7,1.1535,0.3895,139.5,97.1,0.518
21.28,31955.1,34986.2,-0.7544,-0.1724,139.5,97.1,0.518
21.3,31966.9,34947.9,-0.5542,-0.6346,139.5,97.1,0.518
21.32,31996.6,34960.2,-0.0506,-0.4857,139.5,97.1,0.518
21.34,32005.8,34887.2,0.105,-1.367,139.5,97.1,0.518
21.36,31926.6,35001.3,-1.2365,0.0104,139.5,97.1,0.518
21.38,31937.0,35015.8,-1.0595,0.1856,139.5,97.1,0.518
21.4,31940.3,34900.0,-1.0045,-1.2121,139.5,97.1,0.518
21.42,32068.0,34943.7,1.1585,-0.6854,139.5,97.1,0.518
21.44,31894.5,34927.8,-1.7799,-0.8763,139.5,97.1,0.518
21.46,32030.8,34901.8,0.5285,-1.191,139.5,97.1,0.518
21.48,31923.5,35075.9,-1.2882,0.9103,139.5,97.1,0.518
21.5,32104.0,35041.0,1.7683,0.4892,139.5,97.1,0.518
21.52,32110.8,35080.9,1.8837,0.9703,139.5,97.1,0.518
21.54,32082.0,35095.5,1.3961,1.1471,139.5,97.1,0.518
21.56,32017.3,35131.7,0.2996,1.5833,139.5,97.1,0.518
21.58,32067.3,35056.0,1.1473,0.6704,139.5,97.1,0.518
21.6,31956.4,35093.4,-0.7309,1.1213,139.5,97.1,0.518
21.62,32132.3,35053.1,2.2476,0.6346,139.5,97.1,0.518
21.64,31988.1,35086.7,-0.1952,1.0406,139.5,97.1,0.518
21.66,32051.8,34984.3,0.8849,-0.1947,139.5,97.1,0.518
21.68,32044.5,34926.3,0.761,-0.8952,139.5,97.1,0.518
21.7,32014.7,34995.8,0.2551,-0.0569,139.5,97.1,0.518
21.72,32020.5,35000.3,0.3546,-0.002,139.5,97.1,0.518
21.74,32007.3,35029.7,0.131,0.3531,139.5,97.1,0.518
21.76,31992.9,34994.4,-0.1141,-0.073,139.5,97.1,0.518
21.78,31939.6,34995.4,-1.0166,-0.0606,139.5,97.1,0.518
21.8,32039.8,34924.3,0.6812,-0.919,139.5,97.1,0.518
21.82,31913.3,34961.1,-1.4612,-0.4744,139.5,97.1,0.518
21.84,32007.6,34978.8,0.1358,-0.2609,139.5,97.1,0.518
21.86,32019.2,34883.1,0.3325,-1.4155,139.5,97.1,0.518
21.88,31977.2,34898.2,-0.3801,-1.2344,139.5,97.1,0.518
21.9,31994.8,35012.1,-0.081,0.1405,139.5,97.1,0.518
21.92,32130.2,34966.9,2.2121,-0.4048,139.5,97.1,0.518
21.94,31977.8,35111.9,-0.3692,1.3448,139.5,97.1,0.518
21.96,32083.0,35129.2,1.4131,1.5528,139.5,97.1,0.518
21.98,32047.7,35138.3,0.8157,1.6629,139.5,97.1,0.518
22.0,32110.2,35037.2,1.8731,0.4434,139.5,97.1,0.518
22.02,32009.4,35055.3,0.1661,0.6622,139.5,97.1,0.518
22.04,32114.1,35061.2,1.939,0.7327,139.5,97.1,0.518
22.06,32057.3,35037.1,0.9768,0.4418,139.5,97.1,0.518
22.08,31970.9,35018.3,-0.4866,0.215,139.5,97.1,0.518
22.1,32049.6,34979.5,0.8468,-0.2532,139.5,97.1,0.518
22.12,31955.0,34981.4,-0.7558,-0.2302,139.5,97.1,0.518
22.14,32054.2,34923.4,0.9257,-0.9298,139.5,97.1,0.518
22.16,31949.8,34929.0,-0.8436,-0.8621,139.5,97.1,0.518
22.18,31871.8,34923.1,-2.1649,-0.9334,139.5,97.1,0.518
22.2,31959.7,34886.2,-0.676,-1.3787,139.5,97.1,0.518
22.22,32008.1,34978.5,0.1441,-0.265,139.5,97.1,0.518
22.24,31980.0,34927.1,-0.3324,-0.8856,139.5,97.1,0.518
22.26,31996.4,34951.4,-0.0547,-0.5919,139.5,97.1,0.518
22.28,31879.2,34888.3,-2.0392,-1.3532,139.5,97.1,0.518
22.3,31920.3,34960.8,-1.3426,-0.4789,139.5,97.1,0.518
22.32,31924.7,34927.3,-1.2694,-0.8826,139.5,97.1,0.518
22.34,32027.6,35031.6,0.4739,0.376,139.5,97.1,0.518
22.36,32080.6,34970.3,1.3724,-0.3641,139.5,97.1,0.518
22.38,32039.0,35081.3,0.668,0.9748,139.5,97.1,0.518
22.4,32050.2,35170.2,0.8575,2.0481,139.5,97.1,0.518
22.42,32066.9,35148.3,1.1407,1.7838,139.5,97.1,0.518
22.44,32109.6,35095.6,1.8629,1.1478,139.5,97.1,0.518
22.46,31988.2,35068.0,-0.1925,0.8146,139.5,97.1,0.518
22.48,32088.5,34981.4,1.5063,-0.2298,139.5,97.1,0.518
22.5,32010.9,35018.2,0.1923,0.2141,139.5,97.1,0.518
22.52,32090.2,35028.8,1.5346,0.342,139.5,97.1,0.518
22.54,31987.9,35042.9,-0.1989,0.5118,139.5,97.1,0.518
22.56,31941.7,34995.0,-0.98,-0.0664,139.5,97.1,0.518
22.58,32031.8,34903.3,0.5452,-1.1721,139.5,97.1,0.518
22.6,31930.9,34952.9,-1.1636,-0.5744,139.5,97.1,0.518
22.62,32025.0,35019.0,0.4306,0.2234,139.5,97.1,0.518
22.64,31916.1,34886.7,-1.4152,-1.373,139.5,97.1,0.518
22.66,31968.5,35001.2,-0.5264,0.0084,139.5,97.1,0.518
22.68,31954.5,34970.3,-0.7632,-0.3643,139.5,97.1,0.518
22.7,31976.5,34806.0,-0.3914,-2.3458,139.5,97.1,0.518
22.72,31933.6,34958.4,-1.1177,-0.5081,139.5,97.1,0.518
22.74,32001.0,34917.9,0.0239,-0.9964,139.5,97.1,0.518
22.76,32013.2,34930.5,0.2304,-0.844,139.5,97.1,0.518
22.78,32016.5,35014.3,0.2856,0.1666,139.5,97.1,0.518
22.8,32009.5,34992.6,0.1683,-0.0954,139.5,97.1,0.518
22.82,32101.8,35134.3,1.7313,1.6153,139.5,97.1,0.518
22.84,32003.2,35075.3,0.0611,0.9027,139.5,97.1,0.518
22.86,31949.5,35175.0,-0.8491,2.1064,139.5,97.1,0.518
22.88,31941.6,35104.1,-0.982,1.251,139.5,97.1,0.518
22.9,32118.5,35085.5,2.0147,1.0266,139.5,97.1,0.518
22.92,31985.0,35024.8,-0.2481,0.2937,139.5,97.1,0.518
22.94,32017.9,35044.4,0.3098,0.5298,139.5,97.1,0.518
22.96,32041.2,35062.4,0.7052,0.7471,139.5,97.1,0.518
22.98,31960.4,34975.3,-0.664,-0.3031,139.5,97.1,0.518
23.0,32027.6,34982.2,0.4742,-0.2209,139.5,97.1,0.518
23.02,31968.9,34970.7,-0.5206,-0.3595,139.5,97.1,0.518
23.04,31990.1,34939.7,-0.1606,-0.7332,139.5,97.1,0.518
23.06,31984.9,34906.2,-0.2495,-1.1373,139.5,97.1,0.518
23.08,31953.7,35015.9,-0.7769,0.1868,139.5,97.1,0.518
23.1,31927.8,34910.9,-1.2154,-1.0803,139.5,97.1,0.518
23.12,31956.0,34910.3,-0.7381,-1.0881,139.5,97.1,0.518
23.14,31960.1,34892.7,-0.6687,-1.3,139.5,97.1,0.518
23.16,32005.3,34909.2,0.0964,-1.1014,139.5,97.1,0.518
23.18,31935.7,34935.9,-1.0823,-0.7791,139.5,97.1,0.518
23.2,31986.4,35016.1,-0.224,0.1884,139.5,97.1,0.518
23.22,32019.8,35055.5,0.342,0.6644,139.5,97.1,0.518
23.24,32083.1,35011.6,1.4142,0.1348,139.5,97.1,0.518
23.26,32030.4,35059.2,0.522,0.7089,139.5,97.1,0.518
23.28,32084.8,35147.4,1.4434,1.7727,139.5,97.1,0.518
23.3,32025.5,35151.4,0.4381,1.8214,139.5,97.1,0.518
23.32,32108.2,34990.1,1.8392,-0.1254,139.5,97.1,0.518
23.34,31988.8,35094.0,-0.1829,1.1289,139.5,97.1,0.518
23.36,31957.8,35048.1,-0.7072,0.5753,139.5,97.1,0.518
23.38,32072.0,35065.5,1.2266,0.785,139.5,97.1,0.518
23.4,32062.9,35025.4,1.0726,0.3013,139.5,97.1,0.518
23.42,32002.4,35011.3,0.0469,0.1308,139.5,97.1,0.518
23.44,32005.2,34973.5,0.0951,-0.3252,139.5,97.1,0.518
23.46,32015.7,34968.8,0.2728,-0.3818,139.5,97.1,0.518
23.48,31890.9,34834.3,-1.8418,-2.0046,139.5,97.1,0.518
23.5,32012.2,34974.1,0.2129,-0.3176,139.5,97.1,0.518
23.52,31885.8,34948.9,-1.9275,-0.6223,139.5,97.1,0.518
23.54,31932.3,34857.0,-1.1398,-1.7307,139.5,97.1,0.518
23.56,31967.6,34854.7,-0.5427,-1.7593,139.5,97.1,0.518
23.58,32015.7,34876.6,0.2722,-1.4945,139.5,97.1,0.518
23.6,32061.7,34893.9,1.0519,-1.2859,139.5,97.1,0.518
23.62,31962.1,34979.2,-0.6349,-0.256,139.5,97.1,0.518
23.64,31987.1,35033.1,-0.2116,0.3937,139.5,97.1,0.518
23.66,32027.2,35006.7,0.4677,0.0754,139.5,97.1,0.518
23.68,32034.0,35182.3,0.5834,2.1939,139.5,97.1,0.518
23.7,32012.3,35101.8,0.2155,1.2224,139.5,97.1,0.518
23.72,32017.8,35174.8,0.3087,2.104,139.5,97.1,0.518
23.74,31977.0,35019.5,-0.3822,0.2303,139.5,97.1,0.518
23.76,32103.0,35101.6,1.7519,1.2202,139.5,97.1,0.518
23.78,32115.2,34963.7,1.9577,-0.4431,139.5,97.1,0.518
23.8,31978.7,35101.8,-0.354,1.2226,139.5,97.1,0.518
23.82,32053.2,34999.0,0.9077,-0.0181,139.5,97.1,0.518
23.84,32061.1,34964.5,1.0424,-0.4341,139.5,97.1,0.518
23.86,32082.3,34979.2,1.4014,-0.2569,139.5,97.1,0.518
23.88,31981.7,34971.1,-0.3032,-0.3544,139.5,97.1,0.518
23.9,31941.7,34897.5,-0.9811,-1.2425,139.5,97.1,0.518
23.92,32029.6,34978.2,0.5077,-0.2686,139.5,97.1,0.518
23.94,31965.3,34944.3,-0.5807,-0.6772,139.5,97.1,0.518
23.96,32007.5,34994.9,0.1339,-0.067,139.5,97.1,0.518
23.98,31985.2,34971.6,-0.2443,-0.3484,139.5,97.1,0.518
24.0,31977.8,34954.4,-0.3699,-0.5559,139.5,97.1,0.518
24.02,31961.2,34853.9,-0.6506,-1.7685,139.5,97.1,0.518
24.04,31919.3,34969.2,-1.3602,-0.3768,139.5,97.1,0.518
24.06,31992.2,34977.6,-0.1253,-0.2757,139.5,97.1,0.518
24.08,31997.0,34899.5,-0.0438,-1.2182,139.5,97.1,0.518
24.1,32031.8,35137.9,0.5453,1.6578,139.5,97.1,0.518
24.12,32000.3,35034.8,0.0119,0.4142,139.5,97.1,0.518
24.14,32075.7,35083.6,1.2891,1.0026,139.5,97.1,0.518
24.16,31981.2,35077.0,-0.3116,0.924,139.5,97.1,0.518
24.18,31985.0,35107.8,-0.248,1.2948,139.5,97.1,0.518
24.2,32052.3,35107.4,0.8932,1.2901,139.5,97.1,0.518
24.22,32085.4,35028.5,1.4536,0.3388,139.5,97.1,0.518
24.24,31971.1,35012.2,-0.482,0.1417,139.5,97.1,0.518
24.26,32036.0,35019.9,0.6174,0.2347,139.5,97.1,0.518
24.28,31994.2,35008.3,-0.0906,0.0946,139.5,97.1,0.518
24.3,31937.8,34968.3,-1.0461,-0.388,139.5,97.1,0.518
24.32,32013.8,34985.5,0.2412,-0.1803,139.5,97.1,0.518
24.34,32070.6,34979.1,1.2027,-0.2576,139.5,97.1,0.518
24.36,32004.8,34917.2,0.0889,-1.0047,139.5,97.1,0.518
24.38,31957.1,35033.7,-0.7205,0.4008,139.5,97.1,0.518
24.4,31953.2,34857.8,-0.7853,-1.7208,139.5,97.1,0.518
24.42,31973.0,34955.7,-0.4509,-0.5401,139.5,97.1,0.518
24.44,31969.1,35026.7,-0.5167,0.3167,139.5,97.1,0.518
24.46,31965.8,34875.8,-0.5725,-1.5037,139.5,97.1,0.518
24.48,31905.5,34886.4,-1.5933,-1.3765,139.5,97.1,0.518
24.5,32060.5,34970.1,1.031,-0.3666,139.5,97.1,0.518
24.52,32063.5,35046.1,1.0821,0.5503,139.5,97.1,0.518
24.54,32150.0,35088.3,2.5474,1.0594,139.5,97.1,0.518
24.56,32093.0,35121.1,1.5816,1.4555,139.5,97.1,0.518
24.58,32098.9,35115.6,1.6821,1.3898,139.5,97.1,0.518
24.6,31936.4,35111.9,-1.0701,1.3447,139.5,97.1,0.518
24.62,32063.8,35085.3,1.0882,1.0239,139.5,97.1,0.518
24.64,32034.6,35018.7,0.5924,0.2197,139.5,97.1,0.518
24.66,31959.0,34999.3,-0.6881,-0.0145,139.5,97.1,0.518
24.68,31954.7,34991.3,-0.7611,-0.1101,139.5,97.1,0.518
24.7,31970.7,35017.6,-0.4893,0.2073,139.5,97.1,0.518
24.72,32051.5,34937.8,0.8799,-0.7559,139.5,97.1,0.518
24.74,32033.6,34872.3,0.576,-1.5468,139.5,97.1,0.518
24.76,31913.3,34978.0,-1.4619,-0.2711,139.5,97.1,0.518
24.78,31943.0,34929.8,-0.9595,-0.8531,139.5,97.1,0.518
24.8,31989.2,34953.4,-0.1768,-0.5682,139.5,97.1,0.518
24.82,31938.1,34950.2,-1.0414,-0.607,139.5,97.1,0.518
24.84,31977.2,34907.1,-0.3795,-1.1261,139.5,97.1,0.518
24.86,31825.7,34990.8,-2.9465,-0.1163,139.5,97.1,0.518
24.88,31917.2,34931.5,-1.3965,-0.8316,139.5,97.1,0.518
24.9,31957.3,34859.1,-0.7172,-1.7053,139.5,97.1,0.518
24.92,31926.3,35028.5,-1.2413,0.3383,139.5,97.1,0.518
24.94,32027.9,35071.8,0.4792,0.8608,139.5,97.1,0.518
24.96,31985.8,35106.4,-0.2329,1.2785,139.5,97.1,0.518
24.98,32060.5,35215.2,1.0314,2.5906,139.5,97.1,0.518
25.0,32000.1,35117.5,0.0083,1.4122,139.5,97.1,0.518
25.02,32061.5,35166.7,1.0486,2.0054,139.5,97.1,0.518
25.04,32030.9,35025.2,0.5305,0.2981,139.5,97.1,0.518
25.06,32058.6,35044.0,0.999,0.5252,139.5,97.1,0.518
25.08,32020.8,35045.6,0.3587,0.545,139.5,97.1,0.518
25.1,32046.5,35056.7,0.7941,0.6791,139.5,97.1,0.518
25.12,31943.8,35008.1,-0.946,0.0922,139.5,97.1,0.518
25.14,32004.5,35040.5,0.0827,0.4836,139.5,97.1,0.518
25.16,32035.7,34936.9,0.612,-0.7667,139.5,97.1,0.518
25.18,31987.5,34939.6,-0.2044,-0.7345,139.5,97.1,0.518
25.2,31955.6,35013.3,-0.746,0.1551,139.5,97.1,0.518
25.22,31826.2,34914.4,-2.9365,-1.0378,139.5,97.1,0.518
25.24,31867.2,34993.8,-2.2425,-0.0808,139.5,97.1,0.518
25.26,31932.4,34929.1,-1.1377,-0.8614,139.5,97.1,0.518
25.28,31894.7,34925.0,-1.7769,-0.9109,139.5,97.1,0.518
25.3,32133.2,34878.5,2.2638,-1.4713,139.5,97.1,0.518
25.32,32024.8,34962.8,0.427,-0.4548,139.5,97.1,0.518
25.34,32036.7,34908.1,0.6286,-1.1147,139.5,97.1,0.518
25.36,31908.5,34986.9,-1.5436,-0.1632,139.5,97.1,0.518
25.38,31960.7,34988.4,-0.6585,-0.1454,139.5,97.1,0.518
25.4,31956.9,35077.9,-0.7228,0.9349,139.5,97.1,0.518
25.42,32067.8,35133.7,1.1561,1.6073,139.5,97.1,0.518
25.44,32024.4,35050.1,0.4198,0.5993,139.5,97.1,0.518
25.46,32084.0,35074.0,1.429,0.8867,139.5,97.1,0.518
25.48,32021.5,35085.6,0.3716,1.0273,139.5,97.1,0.518
25.5,32021.7,35082.8,0.3739,0.9939,139.5,97.1,0.518
25.52,32051.3,34993.4,0.876,-0.085,139.5,97.1,0.518
25.54,32050.1,34959.6,0.8548,-0.4931,139.5,97.1,0.518
25.56,32080.0,34970.1,1.362,-0.3666,139.5,97.1,0.518
25.58,31987.9,35035.9,-0.1978,0.4271,139.5,97.1,0.518
25.6,32029.8,34886.4,0.5109,-1.3762,139.5,97.1,0.518
25.62,31924.1,34914.0,-1.2787,-1.0427,139.5,97.1,0.518
25.64,31962.4,34864.2,-0.6293,-1.6437,139.5,97.1,0.518
25.66,31964.2,34958.6,-0.5998,-0.5057,139.5,97.1,0.518
25.68,31914.5,34911.0,-1.4417,-1.08,139.5,97.1,0.518
25.7,31958.0,34897.8,-0.7042,-1.2392,139.5,97.1,0.518
25.72,31959.3,34894.5,-0.6828,-1.278,139.5,97.1,0.518
25.74,32064.4,34885.3,1.0977,-1.3895,139.5,97.1,0.518
25.76,31943.4,34933.4,-0.9522,-0.8094,139.5,97.1,0.518
25.78,32034.0,35016.0,0.5821,0.1873,139.5,97.1,0.518
25.8,31949.2,35046.0,-0.8532,0.549,139.5,97.1,0.518
25.82,32037.3,35071.2,0.6392,0.8536,139.5,97.1,0.518
25.84,31975.5,35137.8,-0.4084,1.6573,139.5,97.1,0.518
25.86,32033.9,35126.7,0.5815,1.5236,139.5,97.1,0.518
25.88,32058.1,35079.9,0.9909,0.9586,139.5,97.1,0.518
25.9,32098.7,35046.9,1.6796,0.5601,139.5,97.1,0.518
25.92,32052.4,35016.2,0.8953,0.1894,139.5,97.1,0.518
25.94,32060.1,34924.4,1.0246,-0.9181,139.5,97.1,0.518
25.96,31950.8,35025.0,-0.8269,0.2955,139.5,97.1,0.518
25.98,31923.8,35044.2,-1.2846,0.5282,139.5,97.1,0.518
26.0,31932.9,34946.0,-1.1291,-0.6571,139.5,97.1,0.518
26.02,31936.9,35064.7,-1.0612,0.7756,139.5,97.1,0.518
26.04,32037.4,35012.0,0.6402,0.1395,139.5,97.1,0.518
26.06,32032.0,34995.7,0.5488,-0.0569,139.5,97.1,0.518
26.08,32017.2,34899.0,0.2986,-1.2244,139.5,97.1,0.518
26.1,31931.6,34981.9,-1.1527,-0.2236,139.5,97.1,0.518
26.12,31992.7,34948.2,-0.1165,-0.6303,139.5,97.1,0.518
26.14,31939.2,34920.6,-1.0234,-0.9639,139.5,97.1,0.518
26.16,31943.3,34838.4,-0.9539,-1.9557,139.5,97.1,0.518
26.18,31998.3,34819.6,-0.0213,-2.1825,139.5,97.1,0.518
26.2,32002.5,34960.9,0.05,-0.4768,139.5,97.1,0.518
26.22,32024.5,35015.2,0.4224,0.178,139.5,97.1,0.518
26.24,31932.8,34967.4,-1.1323,-0.3993,139.5,97.1,0.518
26.26,32028.8,35137.5,0.4941,1.6538,139.5,97.1,0.518
26.28,31979.7,35067.1,-0.3377,0.8046,139.5,97.1,0.518
26.3,31966.1,35076.4,-0.5682,0.9161,139.5,97.1,0.518
26.32,32006.4,35015.3,0.1149,0.1789,139.5,97.1,0.518
26.34,31955.2,35168.8,-0.7525,2.0312,139.5,97.1,0.518
26.36,32057.5,35130.9,0.9806,1.5738,139.5,97.1,0.518
26.38,32036.6,35093.1,0.627,1.1183,139.5,97.1,0.518
26.4,32039.1,35067.2,0.6689,0.8058,139.5,97.1,0.518
26.42,31968.2,35053.0,-0.5315,0.6343,139.5,97.1,0.518
26.44,32027.0,34959.2,0.4649,-0.4977,139.5,97.1,0.518
26.46,31952.4,34961.0,-0.7998,-0.4761,139.5,97.1,0.518
26.48,31979.0,34966.7,-0.3481,-0.4072,139.5,97.1,0.518
26.5,32017.4,34948.4,0.3011,-0.6286,139.5,97.1,0.518
26.52,31994.7,34896.4,-0.0824,-1.2551,139.5,97.1,0.518
26.54,31997.8,34920.4,-0.0304,-0.9658,139.5,97.1,0.518
26.56,31888.1,34895.2,-1.8893,-1.2706,139.5,97.1,0.518
26.58,31999.5,34941.8,-0.0018,-0.7073,139.5,97.1,0.518
26.6,31976.5,34867.6,-0.3913,-1.6031,139.5,97.1,0.518
26.62,31979.3,34891.6,-0.3443,-1.314,139.5,97.1,0.518
26.64,32011.2,34973.3,0.1969,-0.3275,139.5,97.1,0.518
26.66,31966.6,35038.2,-0.5589,0.4559,139.5,97.1,0.518
26.68,32017.1,35126.9,0.2964,1.5254,139.5,97.1,0.518
26.7,32070.1,35088.9,1.1937,1.0671,139.5,97.1,0.518
26.72,32092.8,35079.6,1.5781,0.955,139.5,97.1,0.518
26.74,32065.4,35042.6,1.1144,0.5083,139.5,97.1,0.518
26.76,32117.2,35127.0,1.9916,1.5265,139.5,97.1,0.518
26.78,31993.7,34913.8,-0.0997,-1.046,139.5,97.1,0.518
26.8,31981.3,35035.9,-0.3091,0.4278,139.5,97.1,0.518
26.82,31907.3,34986.9,-1.5627,-0.1633,139.5,97.1,0.518
26.84,32006.9,34928.1,0.1243,-0.8726,139.5,97.1,0.518
26.86,32057.5,34999.2,0.9802,-0.0155,139.5,97.1,0.518
26.88,31954.5,35103.0,-0.7646,1.2376,139.5,97.1,0.518
26.9,32015.4,35016.1,0.2683,0.1891,139.5,97.1,0.518
26.92,31985.7,35004.7,-0.2349,0.0508,139.5,97.1,0.518
26.94,31992.0,34957.5,-0.1283,-0.5185,139.5,97.1,0.518
26.96,32000.8,34917.0,0.0209,-1.0074,139.5,97.1,0.518
26.98,32006.0,34968.5,0.109,-0.3857,139.5,97.1,0.518
27.0,31927.0,34983.2,-1.2304,-0.208,139.5,97.1,0.518
27.02,31967.8,34929.9,-0.5378,-0.852,139.5,97.1,0.518
27.04,31958.7,34862.3,-0.6927,-1.6665,139.5,97.1,0.518
27.06,31941.1,34993.4,-0.9904,-0.0856,139.5,97.1,0.518
27.08,32013.5,35034.0,0.2348,0.4044,139.5,97.1,0.518
27.1,32024.4,35003.6,0.42,0.0376,139.5,97.1,0.518
27.12,31978.3,35082.8,-0.36,0.9941,139.5,97.1,0.518
27.14,32083.8,35142.0,1.427,1.7077,139.5,97.1,0.518
27.16,32004.0,35055.9,0.0745,0.6684,139.5,97.1,0.518
27.18,31887.8,35020.9,-1.8932,0.2465,139.5,97.1,0.518
27.2,31973.9,35035.7,-0.4345,0.4254,139.5,97.1,0.518
27.22,31981.8,35059.9,-0.3013,0.7174,139.5,97.1,0.518
27.24,32060.0,35012.7,1.0227,0.1471,139.5,97.1,0.518
27.26,31939.2,35028.5,-1.0238,0.3378,139.5,97.1,0.518
27.28,32034.8,35012.0,0.5967,0.1396,139.5,97.1,0.518
27.3,31928.9,34945.2,-1.198,-0.6665,139.5,97.1,0.518
27.32,31962.2,34916.5,-0.6338,-1.0128,139.5,97.1,0.518
27.34,31960.2,35067.5,-0.6677,0.8094,139.5,97.1,0.518
27.36,31938.0,34838.8,-1.0427,-1.9503,139.5,97.1,0.518
27.38,31908.7,34922.6,-1.5404,-0.9396,139.5,97.1,0.518
27.4,32036.8,34829.0,0.6297,-2.0694,139.5,97.1,0.518
27.42,31941.4,34925.2,-0.9852,-0.9079,139.5,97.1,0.518
27.44,31950.5,34915.7,-0.8313,-1.0224,139.5,97.1,0.518
27.46,31894.2,34975.9,-1.7861,-0.2964,139.5,97.1,0.518
27.48,31974.7,34908.4,-0.4216,-1.1111,139.5,97.1,0.518
27.5,31980.1,35055.7,-0.3296,0.667,139.5,97.1,0.518
27.52,32086.5,35110.1,1.472,1.3234,139.5,97.1,0.518
27.54,32074.5,35068.0,1.2693,0.8146,139.5,97.1,0.518
27.56,32033.1,35125.0,0.5676,1.5027,139.5,97.1,0.518
27.58,32034.0,35118.2,0.5827,1.4206,139.5,97.1,0.518
27.6,32099.7,35092.0,1.6963,1.1044,139.5,97.1,0.518
27.62,32077.9,35073.6,1.3272,0.8822,139.5,97.1,0.518
27.64,31956.0,35063.6,-0.7377,0.7617,139.5,97.1,0.518
27.66,31983.2,35047.2,-0.278,0.5638,139.5,97.1,0.518
27.68,32024.3,35042.8,0.4177,0.5107,139.5,97.1,0.518
27.7,31976.4,35080.9,-0.3932,0.9705,139.5,97.1,0.518
27.72,31969.8,34956.2,-0.5043,-0.5345,139.5,97.1,0.518
27.74,32013.7,34965.8,0.2381,-0.4177,139.5,97.1,0.518
27.76,31980.2,34936.5,-0.3283,-0.7721,139.5,97.1,0.518
27.78,31968.7,35051.8,-0.5232,0.6195,139.5,97.1,0.518
27.8,32012.7,34989.4,0.2215,-0.134,139.5,97.1,0.518
27.82,31970.9,34922.6,-0.486,-0.9389,139.5,97.1,0.518
27.84,32027.4,34936.5,0.4707,-0.7717,139.5,97.1,0.518
27.86,31995.8,34947.7,-0.0646,-0.6361,139.5,97.1,0.518
27.88,31983.6,35019.4,-0.2703,0.2288,139.5,97.1,0.518
27.9,31902.1,34887.7,-1.6512,-1.361,139.5,97.1,0.518
27.92,31928.3,34993.2,-1.2081,-0.0874,139.5,97.1,0.518
27.94,32002.7,34997.1,0.0524,-0.04,139.5,97.1,0.518
27.96,31930.8,34964.7,-1.1654,-0.4313,139.5,97.1,0.518
27.98,32071.8,35144.5,1.2236,1.7381,139.5,97.1,0.518
28.0,32059.4,35126.3,1.0135,1.5179,139.5,97.1,0.518
28.02,32108.9,35231.4,1.8515,2.787,139.5,97.1,0.518
28.04,32019.0,35077.9,0.328,0.9344,139.5,97.1,0.518
28.06,32020.8,35081.8,0.3586,0.9815,139.5,97.1,0.518
28.08,32049.8,35075.2,0.8507,0.9023,139.5,97.1,0.518
28.1,31969.3,34987.9,-0.513,-0.1521,139.5,97.1,0.518
28.12,31978.8,34944.6,-0.3521,-0.6738,139.5,97.1,0.518
28.14,32023.2,34902.2,0.4003,-1.1859,139.5,97.1,0.518
28.16,31959.0,34997.2,-0.687,-0.0392,139.5,97.1,0.518
28.18,31973.0,34908.1,-0.4501,-1.1141,139.5,97.1,0.518
28.2,31852.8,35002.9,-2.486,0.0294,139.5,97.1,0.518
28.22,31944.2,34863.0,-0.9382,-1.6588,139.5,97.1,0.518
28.24,31954.8,34954.9,-0.7589,-0.5494,139.5,97.1,0.518
28.26,31973.9,34953.3,-0.4351,-0.5688,139.5,97.1,0.518
28.28,31869.1,34856.2,-2.2112,-1.7403,139.5,97.1,0.518
28.3,31950.8,34953.9,-0.8273,-0.5615,139.5,97.1,0.518
28.32,32041.9,34960.6,0.7164,-0.4813,139.5,97.1,0.518
28.34,31999.2,35019.0,-0.0063,0.2242,139.5,97.1,0.518
28.36,32032.0,34996.5,0.5486,-0.0483,139.5,97.1,0.518
28.38,31970.3,35047.6,-0.496,0.5693,139.5,97.1,0.518
28.4,32043.3,35045.2,0.7401,0.5397,139.5,97.1,0.518
28.42,32070.4,35056.3,1.2002,0.6741,139.5,97.1,0.518
28.44,32093.1,35004.5,1.5838,0.0489,139.5,97.1,0.518
28.46,32059.4,35188.8,1.0126,2.2727,139.5,97.1,0.518
28.48,31987.8,35070.4,-0.1996,0.8433,139.5,97.1,0.518
28.5,32096.5,35040.5,1.6411,0.4834,139.5,97.1,0.518
28.52,32014.2,35025.8,0.2472,0.3051,139.5,97.1,0.518
28.54,31981.2,35008.9,-0.311,0.1019,139.5,97.1,0.518
28.56,32018.5,35022.8,0.3198,0.2701,139.5,97.1,0.518
28.58,31929.2,34986.8,-1.1931,-0.1647,139.5,97.1,0.518
28.6,31980.4,34961.9,-0.3253,-0.4652,139.5,97.1,0.518
28.62,32002.9,34872.4,0.0568,-1.5447,139.5,97.1,0.518
28.64,31947.3,35009.4,-0.8852,0.108,139.5,97.1,0.518
28.66,32035.0,35096.8,0.6006,1.1628,139.5,97.1,0.518
28.68,32066.3,34932.7,1.1303,-0.8171,139.5,97.1,0.518
28.7,32009.3,34916.2,0.1636,-1.0172,139.5,97.1,0.518
28.72,31874.1,34921.7,-2.1265,-0.9507,139.5,97.1,0.518
28.74,32030.3,34863.4,0.5197,-1.6539,139.5,97.1,0.518
28.76,32007.0,34957.9,0.1249,-0.5131,139.5,97.1,0.518
28.78,32034.5,34866.1,0.5908,-1.6211,139.5,97.1,0.518
28.8,32032.5,35076.5,0.5567,0.9176,139.5,97.1,0.518
28.82,31985.0,35044.1,-0.2478,0.5262,139.5,97.1,0.518
28.84,32071.4,35127.9,1.2159,1.5378,139.5,97.1,0.518
28.86,32135.8,35081.8,2.3067,0.9818,139.5,97.1,0.518
28.88,32010.6,35117.6,0.1872,1.4138,139.5,97.1,0.518
28.9,32066.9,35186.7,1.1409,2.2465,139.5,97.1,0.518
28.92,31907.5,35080.0,-1.5602,0.9595,139.5,97.1,0.518
28.94,32058.6,35067.4,0.9994,0.8081,139.5,97.1,0.518
28.96,32089.6,34970.8,1.5249,-0.3579,139.5,97.1,0.518
28.98,32105.4,34984.3,1.7921,-0.1947,139.5,97.1,0.518
29.0,32001.0,35033.2,0.0236,0.3956,139.5,97.1,0.518
29.02,31916.1,34960.1,-1.414,-0.4872,139.5,97.1,0.518
29.04,31892.0,34884.8,-1.8226,-1.3954,139.5,97.1,0.518
29.06,31963.6,34966.9,-0.6104,-0.4046,139.5,97.1,0.518
29.08,31944.5,34922.4,-0.9329,-0.9424,139.5,97.1,0.518
29.1,31974.2,34955.8,-0.4309,-0.5391,139.5,97.1,0.518
29.12,32026.8,34928.6,0.4604,-0.867,139.5,97.1,0.518
29.14,31908.7,34986.6,-1.5397,-0.1676,139.5,97.1,0.518
29.16,31924.2,34855.8,-1.2764,-1.7455,139.5,97.1,0.518
29.18,32018.0,34907.0,0.3116,-1.1278,139.5,97.1,0.518
29.2,32006.4,35003.4,0.1155,0.0351,139.5,97.1,0.518
29.22,31960.2,34996.7,-0.668,-0.0453,139.5,97.1,0.518
29.24,31977.6,35052.5,-0.3723,0.628,139.5,97.1,0.518
29.26,32016.8,35068.3,0.2922,0.8187,139.5,97.1,0.518
29.28,32081.6,35157.0,1.3899,1.8888,139.5,97.1,0.518
29.3,32032.5,35182.6,0.5566,2.1981,139.5,97.1,0.518
29.32,32010.2,35164.3,0.1798,1.9764,139.5,97.1,0.518
29.34,31978.1,35102.0,-0.3633,1.2247,139.5,97.1,0.518
29.36,32046.1,35082.4,0.7883,0.9889,139.5,97.1,0.518
29.38,32043.5,35050.5,0.7431,0.6035,139.5,97.1,0.518
29.4,31971.6,34970.6,-0.4745,-0.3605,139.5,97.1,0.518
29.42,31996.8,35012.1,-0.0472,0.1406,139.5,97.1,0.518
29.44,32101.5,34989.9,1.7258,-0.128,139.5,97.1,0.518
29.46,32004.6,35019.4,0.0849,0.2281,139.5,97.1,0.518
29.48,32105.0,34944.1,1.7864,-0.6806,139.5,97.1,0.518
29.5,31918.4,34836.0,-1.3747,-1.984,139.5,97.1,0.518
29.52,31977.4,35010.6,-0.3763,0.1222,139.5,97.1,0.518
29.54,31966.9,34859.1,-0.554,-1.7051,139.5,97.1,0.518
29.56,32015.3,35037.9,0.2654,0.4514,139.5,97.1,0.518
29.58,32009.8,35034.2,0.1729,0.4069,139.5,97.1,0.518
29.6,32052.4,34830.6,0.8943,-2.05,139.5,97.1,0.518
29.62,31996.7,34931.5,-0.0485,-0.8317,139.5,97.1,0.518
29.64,32063.8,34868.9,1.088,-1.5877,139.5,97.1,0.518
29.66,32060.9,34966.8,1.0383,-0.4057,139.5,97.1,0.518
29.68,32062.0,35091.5,1.0568,1.0982,139.5,97.1,0.518
29.7,31973.9,35110.6,-0.4358,1.3293,139.5,97.1,0.518
29.72,32056.6,35205.3,0.9653,2.4715,139.5,97.1,0.518
29.74,31987.1,35151.3,-0.211,1.8196,139.5,97.1,0.518
29.76,31925.5,35136.5,-1.2544,1.6408,139.5,97.1,0.518
29.78,31947.1,35067.2,-0.8889,0.8049,139.5,97.1,0.518
29.8,32085.2,35058.5,1.4497,0.6998,139.5,97.1,0.518
29.82,31980.3,35025.9,-0.3267,0.3064,139.5,97.1,0.518
29.84,32033.0,35004.2,0.5654,0.0448,139.5,97.1,0.518
29.86,31972.5,34940.0,-0.4584,-0.7295,139.5,97.1,0.518
29.88,31988.6,35015.4,-0.1855,0.1802,139.5,97.1,0.518
29.9,31917.1,35050.0,-1.398,0.5976,139.5,97.1,0.518
29.92,31915.7,34936.0,-1.4209,-0.7772,139.5,97.1,0.518
29.94,31925.6,35019.5,-1.2533,0.2295,139.5,97.1,0.518
29.96,31878.5,35016.3,-2.0506,0.1914,139.5,97.1,0.518
29.98,31908.9,35033.9,-1.5366,0.4032,139.5,97.1,0.518
30.0,31965.4,34830.4,-0.5791,-2.0524,139.5,97.1,0.518
30.02,31901.7,34960.3,-1.6586,-0.4847,139.5,97.1,0.518
30.04,31919.0,34907.4,-1.3653,-1.1228,139.5,97.1,0.518
30.06,32038.3,34966.0,0.6555,-0.416,139.5,97.1,0.518
30.08,31981.5,34986.6,-0.3065,-0.1674,139.5,97.1,0.518
30.1,32003.3,35109.8,0.0634,1.3194,139.5,97.1,0.518
30.12,31991.5,35099.6,-0.1376,1.1957,139.5,97.1,0.518
30.14,32069.3,35074.9,1.1812,0.8981,139.5,97.1,0.518
30.16,32047.3,35055.8,0.8077,0.6674,139.5,97.1,0.518
30.18,32051.7,35091.1,0.8822,1.0941,139.5,97.1,0.518
30.2,32030.3,35077.6,0.5196,0.9311,139.5,97.1,0.518
30.22,32029.9,35061.9,0.5128,0.7414,139.5,97.1,0.518
30.24,32040.9,35092.5,0.6997,1.1111,139.5,97.1,0.518
30.26,32064.7,34995.8,1.1037,-0.0564,139.5,97.1,0.518
30.28,32033.3,34971.7,0.5714,-0.3468,139.5,97.1,0.518
30.3,31875.6,35041.2,-2.1001,0.4913,139.5,97.1,0.518
30.32,31983.9,34934.0,-0.2666,-0.8014,139.5,97.1,0.518
30.34,32022.5,34940.3,0.3878,-0.7254,139.5,97.1,0.518
30.36,31976.7,34885.1,-0.3875,-1.3924,139.5,97.1,0.518
30.38,31929.8,35006.0,-1.1824,0.0665,139.5,97.1,0.518
30.4,31937.5,34960.7,-1.0519,-0.48,139.5,97.1,0.518
30.42,32049.7,34931.6,0.8484,-0.8315,139.5,97.1,0.518
30.44,31991.3,34933.9,-0.1412,-0.8028,139.5,97.1,0.518
30.46,31978.1,34901.9,-0.3646,-1.1887,139.5,97.1,0.518
30.48,31941.9,34922.4,-0.978,-0.9413,139.5,97.1,0.518
30.5,32006.6,35016.0,0.1185,0.1878,139.5,97.1,0.518
30.52,31971.0,35020.8,-0.4846,0.2458,139.5,97.1,0.518
30.54,32118.4,35025.0,2.0119,0.2959,139.5,97.1,0.518
30.56,32041.2,35079.4,0.7053,0.9523,139.5,97.1,0.518
30.58,32115.7,35126.5,1.9661,1.521,139.5,97.1,0.518
30.6,32083.1,35087.4,1.4138,1.0495,139.5,97.1,0.518
30.62,31978.0,35122.4,-0.3651,1.4708,139.5,97.1,0.518
30.64,32063.2,35180.6,1.0766,2.1738,139.5,97.1,0.518
30.66,32087.4,35048.7,1.4871,0.5825,139.5,97.1,0.518
30.68,32039.6,35000.5,0.6783,-0.0001,139.5,97.1,0.518
30.7,31936.0,35013.4,-1.0774,0.1559,139.5,97.1,0.518
30.72,31994.8,35021.9,-0.0812,0.2591,139.5,97.1,0.518
30.74,32015.8,34999.5,0.2751,-0.0116,139.5,97.1,0.518
30.76,31991.8,34966.6,-0.1326,-0.408,139.5,97.1,0.518
30.78,31963.2,34926.9,-0.6163,-0.8875,139.5,97.1,0.518
30.8,31923.2,34939.4,-1.2941,-0.7362,139.5,97.1,0.518
30.82,31960.1,34966.2,-0.6683,-0.4134,139.5,97.1,0.518
30.84,32060.4,34939.5,1.0305,-0.7352,139.5,97.1,0.518
30.86,31928.2,34994.6,-1.2096,-0.0705,139.5,97.1,0.518
30.88,31989.2,34804.6,-0.1769,-2.3628,139.5,97.1,0.518
30.9,31914.0,34987.3,-1.4496,-0.1593,139.5,97.1,0.518
30.92,31946.3,34996.7,-0.9033,-0.0456,139.5,97.1,0.518
30.94,32009.6,34981.4,0.1693,-0.2303,139.5,97.1,0.518
30.96,32027.9,35015.3,0.4796,0.179,139.5,97.1,0.518
30.98,32025.1,35090.1,0.4321,1.0821,139.5,97.1,0.518
31.0,32106.1,35140.6,1.8045,1.6914,139.5,97.1,0.518
31.02,31986.3,35245.5,-0.2252,2.9567,139.5,97.1,0.518
31.04,32043.0,35058.1,0.7353,0.6951,139.5,97.1,0.518
31.06,31963.8,35000.3,-0.6065,-0.0015,139.5,97.1,0.518
31.08,31976.1,35064.8,-0.3977,0.7757,139.5,97.1,0.518
31.1,32047.8,35070.0,0.8161,0.8386,139.5,97.1,0.518
31.12,31980.7,35078.1,-0.3208,0.9365,139.5,97.1,0.518
31.14,31948.7,35020.5,-0.8628,0.242,139.5,97.1,0.518
31.16,32055.9,35039.9,0.9545,0.476,139.5,97.1,0.518
31.18,31905.4,35040.5,-1.595,0.4827,139.5,97.1,0.518
31.2,31979.9,34924.4,-0.3338,-0.9174,139.5,97.1,0.518
31.22,31948.6,35047.3,-0.8633,0.5657,139.5,97.1,0.518
31.24,31937.3,34992.6,-1.0547,-0.0945,139.5,97.1,0.518
31.26,31973.3,34968.9,-0.4462,-0.3813,139.5,97.1,0.518
31.28,32011.1,34944.5,0.195,-0.6755,139.5,97.1,0.518
31.3,31927.2,34881.1,-1.2267,-1.4403,139.5,97.1,0.518
31.32,31942.8,34927.8,-0.9615,-0.8773,139.5,97.1,0.518
31.34,32048.0,34899.4,0.8204,-1.2195,139.5,97.1,0.518
31.36,31969.0,34887.6,-0.519,-1.3617,139.5,97.1,0.518
31.38,32044.5,35002.2,0.7609,0.0212,139.5,97.1,0.518
31.4,32085.1,35071.4,1.4476,0.8565,139.5,97.1,0.518
31.42,32021.2,35120.9,0.3666,1.4534,139.5,97.1,0.518
31.44,32125.3,35075.6,2.1296,0.9062,139.5,97.1,0.518
31.46,32057.9,35035.3,0.987,0.4199,139.5,97.1,0.518
31.48,31991.5,35045.0,-0.1374,0.5375,139.5,97.1,0.518
31.5,31986.6,35026.4,-0.2201,0.3128,139.5,97.1,0.518
31.52,32038.9,34985.9,0.665,-0.1754,139.5,97.1,0.518
31.54,31990.9,34972.2,-0.1474,-0.3415,139.5,97.1,0.518
31.56,31963.4,34990.9,-0.6136,-0.1159,139.5,97.1,0.518
31.58,31978.1,35006.3,-0.3637,0.071,139.5,97.1,0.518
31.6,31939.9,34976.4,-1.0105,-0.2904,139.5,97.1,0.518
31.62,31918.7,34988.1,-1.3708,-0.1488,139.5,97.1,0.518
31.64,31911.5,34940.2,-1.4928,-0.7266,139.5,97.1,0.518
31.66,31928.0,35000.6,-1.2129,0.0022,139.5,97.1,0.518
31.68,31978.0,34897.8,-0.3652,-1.2389,139.5,97.1,0.518
31.7,31974.9,34979.7,-0.4182,-0.2502,139.5,97.1,0.518
31.72,32063.7,34928.3,1.0853,-0.8702,139.5,97.1,0.518
31.74,32012.8,34863.3,0.2237,-1.655,139.5,97.1,0.518
31.76,31912.8,34942.2,-1.4696,-0.703,139.5,97.1,0.518
31.78,31999.4,34952.6,-0.0028,-0.5778,139.5,97.1,0.518
31.8,31912.5,35011.4,-1.4758,0.1323,139.5,97.1,0.518
31.82,31952.5,35022.4,-0.7985,0.2643,139.5,97.1,0.518
31.84,32112.8,35096.5,1.9181,1.1588,139.5,97.1,0.518
31.86,32070.1,35141.5,1.1949,1.7018,139.5,97.1,0.518
31.88,32140.0,34959.7,2.3781,-0.4923,139.5,97.1,0.518
31.9,32067.9,35122.6,1.1572,1.4739,139.5,97.1,0.518
31.92,32098.5,35151.7,1.6761,1.8247,139.5,97.1,0.518
31.94,32042.5,35058.8,0.7263,0.704,139.5,97.1,0.518
31.96,32041.7,35022.2,0.7127,0.2618,139.5,97.1,0.518
31.98,32004.5,35012.2,0.0833,0.1418,139.5,97.1,0.518
32.0,32015.0,34999.0,0.261,-0.0182,139.5,97.1,0.518
32.02,32006.8,35004.0,0.1221,0.0431,139.5,97.1,0.518
32.04,31890.7,34845.8,-1.8453,-1.8666,139.5,97.1,0.518
32.06,31903.7,34898.1,-1.625,-1.2352,139.5,97.1,0.518
32.08,32041.6,34848.1,0.7113,-1.8384,139.5,97.1,0.518
32.1,31985.9,34927.7,-0.2323,-0.8783,139.5,97.1,0.518
32.12,32031.4,34933.3,0.539,-0.8102,139.5,97.1,0.518
32.14,31867.6,34950.8,-2.2368,-0.5995,139.5,97.1,0.518
32.16,31988.5,34892.2,-0.1885,-1.3069,139.5,97.1,0.518
32.18,31837.2,34867.3,-2.7516,-1.6062,139.5,97.1,0.518
32.2,32021.6,34877.5,0.3726,-1.4831,139.5,97.1,0.518
32.22,31917.9,34989.8,-1.384,-0.1286,139.5,97.1,0.518
32.24,31901.0,34955.4,-1.6694,-0.5437,139.5,97.1,0.518
32.26,32065.3,35131.0,1.1134,1.5746,139.5,97.1,0.518
32.28,32066.1,35110.9,1.1269,1.3326,139.5,97.1,0.518
32.3,32041.0,35074.2,0.7006,0.8897,139.5,97.1,0.518
32.32,32062.5,35122.9,1.0651,1.4774,139.5,97.1,0.518
32.34,32078.8,35034.1,1.3412,0.4053,139.5,97.1,0.518
32.36,32028.4,35030.5,0.4886,0.3627,139.5,97.1,0.518
32.38,31952.6,35036.8,-0.7954,0.4386,139.5,97.1,0.518
32.4,32062.7,35036.8,1.0698,0.4384,139.5,97.1,0.518
32.42,32035.9,35018.9,0.6155,0.222,139.5,97.1,0.518
32.44,32049.8,34985.3,0.8509,-0.1828,139.5,97.1,0.518
32.46,31919.9,35070.8,-1.3494,0.8481,139.5,97.1,0.518
32.48,32112.1,34969.4,1.9057,-0.3743,139.5,97.1,0.518
32.5,32087.4,35088.6,1.4872,1.064,139.5,97.1,0.518
32.52,31947.7,34963.1,-0.8784,-0.4512,139.5,97.1,0.518
32.54,32027.1,34964.4,0.4653,-0.4356,139.5,97.1,0.518
32.56,31951.1,34928.8,-0.8217,-0.8649,139.5,97.1,0.518
32.58,31966.9,34854.0,-0.5545,-1.7669,139.5,97.1,0.518
32.6,32090.5,34868.8,1.5402,-1.5888,139.5,97.1,0.518
32.62,31900.7,34921.2,-1.6752,-0.956,139.5,97.1,0.518
32.64,32009.9,35028.8,0.1745,0.3419,139.5,97.1,0.518
32.66,32026.9,34923.4,0.4623,-0.93,139.5,97.1,0.518
32.68,32023.1,35032.3,0.3977,0.3847,139.5,97.1,0.518
32.7,32071.3,35110.6,1.2142,1.3293,139.5,97.1,0.518
32.72,32076.5,35125.2,1.3025,1.5045,139.5,97.1,0.518
32.74,31991.9,35083.3,-0.1297,0.9997,139.5,97.1,0.518
32.76,32069.1,35095.7,1.1773,1.1485,139.5,97.1,0.518
32.78,32068.0,35037.9,1.1587,0.452,139.5,97.1,0.518
32.8,32010.2,35105.7,0.1798,1.2696,139.5,97.1,0.518
32.82,32038.9,34996.1,0.6656,-0.053,139.5,97.1,0.518
32.84,32053.6,34984.1,0.9157,-0.197,139.5,97.1,0.518
32.86,31974.2,35059.9,-0.4301,0.7178,139.5,97.1,0.518
32.88,32030.7,34987.6,0.5277,-0.1547,139.5,97.1,0.518
32.9,31985.8,34923.1,-0.2337,-0.9333,139.5,97.1,0.518
32.92,31983.5,34943.8,-0.2721,-0.6833,139.5,97.1,0.518
32.94,32061.0,34912.9,1.0399,-1.0571,139.5,97.1,0.518
32.96,32075.5,34862.8,1.2862,-1.6613,139.5,97.1,0.518
32.98,31968.9,34988.5,-0.5195,-0.1438,139.5,97.1,0.518
33.0,31973.5,34914.2,-0.4416,-1.0414,139.5,97.1,0.518
33.02,31946.1,34951.5,-0.9055,-0.5908,139.5,97.1,0.518
33.04,31952.6,34997.6,-0.7957,-0.035,139.5,97.1,0.518
33.06,31965.8,34881.3,-0.5728,-1.4379,139.5,97.1,0.518
33.08,32012.5,34873.5,0.2181,-1.532,139.5,97.1,0.518
33.1,31983.7,34934.2,-0.2687,-0.7997,139.5,97.1,0.518
33.12,31953.7,35088.3,-0.7773,1.0597,139.5,97.1,0.518
33.14,32125.1,35050.6,2.1268,0.6054,139.5,97.1,0.518
33.16,32017.3,35207.8,0.2997,2.5013,139.5,97.1,0.518
33.18,32021.7,35056.5,0.3739,0.6763,139.5,97.1,0.518
33.2,32024.9,35147.1,0.4285,1.7698,139.5,97.1,0.518
33.22,32063.6,35033.2,1.0848,0.3952,139.5,97.1,0.518
33.24,31960.9,34984.1,-0.6556,-0.1976,139.5,97.1,0.518
33.26,32034.1,35020.3,0.5842,0.2399,139.5,97.1,0.518
33.28,32078.6,35135.9,1.3375,1.6344,139.5,97.1,0.518
33.3,31971.8,35058.1,-0.471,0.6956,139.5,97.1,0.518
33.32,32043.6,35009.9,0.746,0.1133,139.5,97.1,0.518
33.34,32071.0,35012.4,1.2089,0.1436,139.5,97.1,0.518
33.36,31980.1,34997.2,-0.3299,-0.0393,139.5,97.1,0.518
33.38,31846.7,34939.9,-2.5895,-0.7305,139.5,97.1,0.518
33.4,31965.1,34965.9,-0.5837,-0.4176,139.5,97.1,0.518
33.42,31923.8,34960.3,-1.2835,-0.4847,139.5,97.1,0.518
33.44,31974.8,34914.0,-0.42,-1.0437,139.5,97.1,0.518
33.46,31838.3,34990.7,-2.732,-0.1172,139.5,97.1,0.518
33.48,31974.1,34940.2,-0.4316,-0.7276,139.5,97.1,0.518
33.5,32047.7,34925.1,0.8145,-0.9092,139.5,97.1,0.518
33.52,31926.0,34995.6,-1.247,-0.0592,139.5,97.1,0.518
33.54,31960.8,35052.1,-0.6577,0.6226,139.5,97.1,0.518
33.56,32036.6,35144.4,0.6269,1.7364,139.5,97.1,0.518
33.58,32076.2,35149.4,1.2975,1.7967,139.5,97.1,0.518
33.6,32001.5,35144.9,0.0315,1.7432,139.5,97.1,0.518
33.62,32034.1,35125.1,0.5849,1.5045,139.5,97.1,0.518
33.64,31995.7,35106.7,-0.0658,1.2818,139.5,97.1,0.518
33.66,32073.0,35105.8,1.2442,1.2715,139.5,97.1,0.518
33.68,31948.0,34989.3,-0.8743,-0.1341,139.5,97.1,0.518
33.7,32019.9,35050.7,0.3431,0.6056,139.5,97.1,0.518
33.72,31915.0,35091.8,-1.4335,1.1021,139.5,97.1,0.518
33.74,32081.8,35016.5,1.393,0.193,139.5,97.1,0.518
33.76,31960.2,34987.8,-0.6674,-0.1525,139.5,97.1,0.518
33.78,31985.6,34943.8,-0.2376,-0.6842,139.5,97.1,0.518
33.8,31891.5,34912.0,-1.8303,-1.0671,139.5,97.1,0.518
33.82,31904.2,35003.8,-1.6166,0.0406,139.5,97.1,0.518
33.84,31824.2,34941.0,-2.9716,-0.7171,139.5,97.1,0.518
33.86,32054.5,34972.8,0.9298,-0.3332,139.5,97.1,0.518
33.88,31967.0,34923.4,-0.5518,-0.9294,139.5,97.1,0.518
33.9,32040.9,34829.7,0.6995,-2.06,139.5,97.1,0.518
33.92,31881.3,34960.1,-2.0045,-0.4872,139.5,97.1,0.518
33.94,31963.4,34906.2,-0.6132,-1.1371,139.5,97.1,0.518
33.96,32068.3,34951.7,1.1633,-0.5879,139.5,97.1,0.518
33.98,32018.1,35133.2,0.3139,1.602,139.5,97.1,0.518
34.0,32013.4,35115.6,0.2345,1.3891,139.5,97.1,0.518
34.02,32097.6,35081.6,1.6607,0.9788,139.5,97.1,0.518
34.04,32111.5,35088.7,1.8949,1.0645,139.5,97.1,0.518
34.06,32098.7,35117.9,1.6782,1.4165,139.5,97.1,0.518
34.08,32124.6,35043.0,2.1178,0.5131,139.5,97.1,0.518
34.1,32008.9,35101.5,0.1576,1.2194,139.5,97.1,0.518
34.12,31960.8,34969.2,-0.6578,-0.3771,139.5,97.1,0.518
34.14,32044.1,35088.4,0.7541,1.0604,139.5,97.1,0.518
34.16,31950.0,34994.7,-0.8396,-0.07,139.5,97.1,0.518
34.18,31955.3,34964.7,-0.7507,-0.4319,139.5,97.1,0.518
34.2,32010.1,34972.1,0.1775,-0.3425,139.5,97.1,0.518
34.22,32016.8,34910.0,0.2917,-1.0915,139.5,97.1,0.518
34.24,32004.7,34920.2,0.0873,-0.9682,139.5,97.1,0.518
34.26,31989.0,34933.2,-0.1803,-0.8113,139.5,97.1,0.518
34.28,31922.8,34860.4,-1.3014,-1.6901,139.5,97.1,0.518
34.3,31991.1,34971.2,-0.1433,-0.353,139.5,97.1,0.518
34.32,32076.1,34892.4,1.2968,-1.3033,139.5,97.1,0.518
34.34,31959.7,35014.6,-0.6764,0.171,139.5,97.1,0.518
34.36,31942.3,34920.8,-0.97,-0.9614,139.5,97.1,0.518
34.38,31927.8,34949.2,-1.2155,-0.6191,139.5,97.1,0.518
34.4,32038.8,34931.5,0.6648,-0.8321,139.5,97.1,0.518
34.42,32072.0,35069.4,1.226,0.8316,139.5,97.1,0.518
34.44,32125.6,35234.9,2.1352,2.8284,139.5,97.1,0.518
34.46,32136.3,35138.7,2.3165,1.6678,139.5,97.1,0.518
34.48,32041.9,35097.5,0.7173,1.1707,139.5,97.1,0.518
34.5,32054.6,34975.9,0.931,-0.2961,139.5,97.1,0.518
34.52,31940.7,35012.0,-0.9983,0.1387,139.5,97.1,0.518
34.54,32007.5,35015.1,0.1338,0.177,139.5,97.1,0.518
34.56,32057.9,35018.4,0.9873,0.2168,139.5,97.1,0.518
34.58,31964.7,34931.8,-0.5908,-0.829,139.5,97.1,0.518
34.6,31941.3,34954.3,-0.9868,-0.5574,139.5,97.1,0.518
34.62,31996.3,35013.0,-0.055,0.1508,139.5,97.1,0.518
34.64,32024.6,34995.9,0.4241,-0.055,139.5,97.1,0.518
34.66,31995.3,35030.4,-0.0735,0.3607,139.5,97.1,0.518
34.68,31955.7,34976.0,-0.743,-0.2957,139.5,97.1,0.518
34.7,31990.4,34945.8,-0.1549,-0.6598,139.5,97.1,0.518
34.72,31944.6,34915.2,-0.932,-1.0287,139.5,97.1,0.518
34.74,31938.2,34874.7,-1.0396,-1.5179,139.5,97.1,0.518
34.76,31970.7,34858.7,-0.4896,-1.7103,139.5,97.1,0.518
34.78,32025.9,34956.7,0.4452,-0.5282,139.5,97.1,0.518
34.8,32003.6,34962.2,0.0672,-0.4616,139.5,97.1,0.518
34.82,31951.1,35011.8,-0.8219,0.1372,139.5,97.1,0.518
34.84,31952.0,35057.7,-0.8067,0.6909,139.5,97.1,0.518
34.86,32032.4,35086.3,0.5556,1.0352,139.5,97.1,0.518
34.88,32040.9,35148.3,0.6993,1.7836,139.5,97.1,0.518
34.9,32084.0,35069.6,1.43,0.8345,139.5,97.1,0.518
34.92,32065.7,35142.2,1.1203,1.7101,139.5,97.1,0.518
34.94,32082.9,35013.1,1.4109,0.1524,139.5,97.1,0.518
34.96,31918.3,35051.1,-1.3777,0.6116,139.5,97.1,0.518
34.98,32065.4,35001.1,1.114,0.0076,139.5,97.1,0.518
35.0,31960.5,34994.4,-0.6617,-0.0729,139.5,97.1,0.518
35.02,31946.7,34998.2,-0.8966,-0.0268,139.5,97.1,0.518
35.04,32061.6,34918.0,1.0505,-0.9947,139.5,97.1,0.518
35.06,31957.7,34997.1,-0.7103,-0.0403,139.5,97.1,0.518
35.08,31877.5,35097.8,-2.0683,1.1741,139.5,97.1,0.518
35.1,31992.8,34974.7,-0.1143,-0.3108,139.5,97.1,0.518
35.12,31996.5,34993.8,-0.0531,-0.08,139.5,97.1,0.518
35.14,31973.3,34866.0,-0.4458,-1.6227,139.5,97.1,0.518
35.16,31904.3,35056.3,-1.615,0.6736,139.5,97.1,0.518
35.18,31919.7,34955.2,-1.3537,-0.5457,139.5,97.1,0.518
35.2,32042.7,35006.6,0.7295,0.0739,139.5,97.1,0.518
35.22,31898.8,34963.7,-1.7081,-0.4436,139.5,97.1,0.518
35.24,32036.9,34984.7,0.6313,-0.1908,139.5,97.1,0.518
35.26,32028.7,35057.0,0.4936,0.6828,139.5,97.1,0.518
35.28,31943.8,35102.0,-0.9454,1.2255,139.5,97.1,0.518
35.3,32025.3,35075.6,0.4347,0.9071,139.5,97.1,0.518
35.32,32076.4,35144.7,1.3014,1.74,139.5,97.1,0.518
35.34,31993.4,35151.5,-0.1056,1.8227,139.5,97.1,0.518
35.36,32051.0,35067.6,0.8714,0.8096,139.5,97.1,0.518
35.38,32016.3,35006.5,0.2834,0.0727,139.5,97.1,0.518
35.4,32003.6,35088.9,0.0674,1.0671,139.5,97.1,0.518
35.42,31968.4,35028.7,-0.5287,0.3405,139.5,97.1,0.518
35.44,32017.4,35047.4,0.3021,0.5659,139.5,97.1,0.518
35.46,32018.2,35138.0,0.3156,1.6591,139.5,97.1,0.518
35.48,31945.6,35007.1,-0.9144,0.0805,139.5,97.1,0.518
35.5,32025.1,35038.9,0.4318,0.4641,139.5,97.1,0.518
35.52,31943.6,34989.2,-0.9489,-0.136,139.5,97.1,0.518
35.54,31918.2,34910.3,-1.3788,-1.0882,139.5,97.1,0.518
35.56,31931.2,34912.6,-1.1593,-1.0603,139.5,97.1,0.518
35.58,32002.1,34900.2,0.0433,-1.2102,139.5,97.1,0.518
35.6,32006.8,34995.9,0.1229,-0.0551,139.5,97.1,0.518
35.62,31940.5,34898.4,-1.0003,-1.2314,139.5,97.1,0.518
35.64,31976.2,35004.8,-0.3971,0.0519,139.5,97.1,0.518
35.66,31906.3,34958.6,-1.5805,-0.5045,139.5,97.1,0.518
35.68,32015.8,35022.2,0.2751,0.2623,139.5,97.1,0.518
35.7,31997.5,35025.6,-0.036,0.3036,139.5,97.1,0.518
35.72,32059.7,35028.9,1.0176,0.343,139.5,97.1,0.518
35.74,32065.8,35068.3,1.1214,0.8184,139.5,97.1,0.518
35.76,32070.7,35070.4,1.2037,0.8437,139.5,97.1,0.518
35.78,31979.2,35010.8,-0.346,0.1246,139.5,97.1,0.518
35.8,32002.9,35050.9,0.0555,0.6086,139.5,97.1,0.518
35.82,32061.3,35000.3,1.0458,-0.0017,139.5,97.1,0.518
35.84,31997.3,34974.3,-0.0396,-0.3154,139.5,97.1,0.518
35.86,32011.1,35079.9,0.1948,0.9591,139.5,97.1,0.518
35.88,32003.4,35013.5,0.0651,0.1578,139.5,97.1,0.518
35.9,32035.9,35018.4,0.6143,0.2159,139.5,97.1,0.518
35.92,31966.4,35041.4,-0.5615,0.4942,139.5,97.1,0.518
35.94,32030.5,34933.7,0.5237,-0.8057,139.5,97.1,0.518
35.96,31979.7,34937.1,-0.3374,-0.7641,139.5,97.1,0.518
35.98,31955.9,35012.6,-0.7403,0.1459,139.5,97.1,0.518
36.0,32064.0,34902.8,1.0907,-1.1786,139.5,97.1,0.518
36.02,31923.9,34864.0,-1.283,-1.647,139.5,97.1,0.518
36.04,31946.3,34880.6,-0.9036,-1.4457,139.5,97.1,0.518
36.06,31951.0,34938.0,-0.8225,-0.7531,139.5,97.1,0.518
36.08,31960.4,34999.1,-0.6643,-0.0164,139.5,97.1,0.518
36.1,31984.7,34964.9,-0.252,-0.4292,139.5,97.1,0.518
36.12,32059.3,35073.0,1.0108,0.8753,139.5,97.1,0.518
36.14,32046.2,35129.0,0.7899,1.5511,139.5,97.1,0.518
36.16,32054.9,35096.4,0.9374,1.1576,139.5,97.1,0.518
36.18,32064.5,35201.1,1.0991,2.4214,139.5,97.1,0.518
36.2,31946.9,35090.4,-0.8922,1.0856,139.5,97.1,0.518
36.22,32018.2,35045.9,0.3147,0.5477,139.5,97.1,0.518
36.24,31945.3,35057.0,-0.9197,0.6824,139.5,97.1,0.518
36.26,31985.2,35182.1,-0.2443,2.1918,139.5,97.1,0.518
36.28,32047.5,34962.7,0.8108,-0.4552,139.5,97.1,0.518
36.3,31947.2,34977.7,-0.8874,-0.2746,139.5,97.1,0.518
36.32,31984.3,34969.1,-0.2588,-0.3782,139.5,97.1,0.518
36.34,31985.4,34939.1,-0.2412,-0.7408,139.5,97.1,0.518
36.36,32003.6,35001.2,0.0673,0.0087,139.5,97.1,0.518
36.38,32017.2,34967.8,0.2974,-0.3942,139.5,97.1,0.518
36.4,32104.4,34987.4,1.7751,-0.1574,139.5,97.1,0.518
36.42,31891.1,34905.1,-1.8384,-1.1507,139.5,97.1,0.518
36.44,31970.1,34897.0,-0.4997,-1.2488,139.5,97.1,0.518
36.46,31931.4,34928.5,-1.1546,-0.8687,139.5,97.1,0.518
36.48,31912.9,34834.5,-1.4692,-2.0021,139.5,97.1,0.518
36.5,31948.7,34899.8,-0.8615,-1.2145,139.5,97.1,0.518
36.52,31959.3,34923.8,-0.6823,-0.925,139.5,97.1,0.518
36.54,31993.2,34986.8,-0.109,-0.1645,139.5,97.1,0.518
36.56,32135.1,35099.1,2.2953,1.1907,139.5,97.1,0.518
36.58,32077.8,35201.9,1.3254,2.4309,139.5,97.1,0.518
36.6,32032.2,35160.6,0.5517,1.9326,139.5,97.1,0.518
36.62,32092.6,35106.6,1.5755,1.2809,139.5,97.1,0.518
36.64,31985.3,35089.2,-0.2415,1.0711,139.5,97.1,0.518
36.66,32025.2,35056.6,0.4339,0.6775,139.5,97.1,0.518
36.68,32016.2,35061.6,0.2804,0.7381,139.5,97.1,0.518
36.7,32130.5,35044.2,2.2167,0.5283,139.5,97.1,0.518
36.72,32005.2,34996.7,0.0943,-0.0452,139.5,97.1,0.518
36.74,32039.3,34999.5,0.6722,-0.0121,139.5,97.1,0.518
36.76,31968.9,35031.8,-0.5198,0.3776,139.5,97.1,0.518
36.78,31961.3,34922.7,-0.6493,-0.9377,139.5,97.1,0.518
36.8,31964.4,34928.7,-0.5967,-0.8653,139.5,97.1,0.518
36.82,31918.0,34905.3,-1.3821,-1.1477,139.5,97.1,0.518
36.84,31936.6,34909.1,-1.0672,-1.1026,139.5,97.1,0.518
36.86,32023.0,34955.9,0.3967,-0.5382,139.5,97.1,0.518
36.88,31992.4,34957.8,-0.1218,-0.5153,139.5,97.1,0.518
36.9,32009.8,34837.9,0.1729,-1.9614,139.5,97.1,0.518
36.92,31957.4,35041.0,-0.715,0.4897,139.5,97.1,0.518
36.94,31849.2,34873.1,-2.5471,-1.5369,139.5,97.1,0.518
36.96,31962.4,35029.2,-0.6308,0.3465,139.5,97.1,0.518
36.98,32025.2,35041.9,0.4334,0.5005,139.5,97.1,0.518
37.0,32082.6,35099.2,1.4064,1.1919,139.5,97.1,0.518
37.02,32075.8,35128.3,1.2903,1.5426,139.5,97.1,0.518
37.04,31936.8,35096.7,-1.0633,1.1617,139.5,97.1,0.518
37.06,31961.2,35156.3,-0.6505,1.8803,139.5,97.1,0.518
37.08,32044.5,35055.2,0.7612,0.661,139.5,97.1,0.518
37.1,31938.0,35031.0,-1.043,0.3683,139.5,97.1,0.518
37.12,32028.5,34978.0,0.4899,-0.2706,139.5,97.1,0.518
37.14,32075.5,34985.9,1.285,-0.176,139.5,97.1,0.518
37.16,31928.7,35038.8,-1.2012,0.4629,139.5,97.1,0.518
37.18,32022.1,34955.1,0.3814,-0.5476,139.5,97.1,0.518
37.2,31988.5,34935.8,-0.1873,-0.7803,139.5,97.1,0.518
37.22,32029.5,34902.6,0.5067,-1.1805,139.5,97.1,0.518
37.24,32010.7,34955.7,0.1879,-0.5406,139.5,97.1,0.518
37.26,31939.7,34960.3,-1.0143,-0.4851,139.5,97.1,0.518
37.28,32005.9,34989.1,0.1069,-0.1376,139.5,97.1,0.518
37.3,32010.9,34936.8,0.1917,-0.768,139.5,97.1,0.518
37.32,31884.4,34943.6,-1.9513,-0.6863,139.5,97.1,0.518
37.34,31953.6,34883.1,-0.7793,-1.4166,139.5,97.1,0.518
37.36,31937.0,34886.9,-1.0607,-1.37,139.5,97.1,0.518
37.38,32022.1,34962.0,0.3812,-0.4641,139.5,97.1,0.518
37.4,31909.9,34978.4,-1.5191,-0.2661,139.5,97.1,0.518
37.42,31959.9,35037.2,-0.6721,0.4432,139.5,97.1,0.518
37.44,32078.2,35118.9,1.3313,1.4295,139.5,97.1,0.518
37.46,32077.7,35050.9,1.323,0.6084,139.5,97.1,0.518
37.48,32118.7,35045.8,2.0183,0.5467,139.5,97.1,0.518
37.5,31965.2,35085.2,-0.5824,1.023,139.5,97.1,0.518
37.52,32002.4,35077.7,0.0474,0.9321,139.5,97.1,0.518
37.54,32026.0,35035.5,0.4465,0.423,139.5,97.1,0.518
37.56,32033.1,35093.6,0.5683,1.1242,139.5,97.1,0.518
37.58,32075.7,34969.3,1.2891,-0.3761,139.5,97.1,0.518
37.6,31989.0,34951.3,-0.1796,-0.5931,139.5,97.1,0.518
37.62,31915.7,34918.7,-1.4218,-0.9862,139.5,97.1,0.518
37.64,31986.7,34957.4,-0.2189,-0.5198,139.5,97.1,0.518
37.66,32014.1,34900.1,0.2453,-1.2114,139.5,97.1,0.518
37.68,31901.4,34910.5,-1.663,-1.0856,139.5,97.1,0.518
37.7,32004.4,34920.1,0.0818,-0.9693,139.5,97.1,0.518
37.72,31969.4,34926.1,-0.5107,-0.897,139.5,97.1,0.518
37.74,31938.3,34990.0,-1.0386,-0.1258,139.5,97.1,0.518
37.76,31939.9,34862.1,-1.0119,-1.6689,139.5,97.1,0.518
37.78,31971.8,34852.2,-0.4708,-1.7884,139.5,97.1,0.518
37.8,32022.9,34942.4,0.3951,-0.7005,139.5,97.1,0.518
37.82,31967.8,35027.2,-0.5379,0.3222,139.5,97.1,0.518
37.84,32086.9,34933.9,1.4794,-0.8026,139.5,97.1,0.518
37.86,32004.6,35117.9,0.0849,1.4175,139.5,97.1,0.518
37.88,32139.1,35062.4,2.3632,0.747,139.5,97.1,0.518
37.9,32094.6,35116.9,1.6094,1.4052,139.5,97.1,0.518
37.92,32049.1,35066.0,0.838,0.7912,139.5,97.1,0.518
37.94,31966.3,35060.0,-0.5633,0.7183,139.5,97.1,0.518
37.96,32039.3,34967.6,0.6727,-0.3963,139.5,97.1,0.518
37.98,32030.9,35072.4,0.5306,0.8685,139.5,97.1,0.518
38.0,31894.7,35039.4,-1.7765,0.4692,139.5,97.1,0.518
38.02,31928.8,35053.0,-1.1992,0.6338,139.5,97.1,0.518
38.04,31969.9,35057.8,-0.5037,0.6924,139.5,97.1,0.518
38.06,32033.5,34886.6,0.575,-1.3744,139.5,97.1,0.518
38.08,32038.3,35006.1,0.6549,0.0681,139.5,97.1,0.518
38.1,31937.8,34941.3,-1.0472,-0.7141,139.5,97.1,0.518
38.12,31958.3,34931.5,-0.7001,-0.8325,139.5,97.1,0.518
38.14,31927.7,34891.9,-1.2183,-1.31,139.5,97.1,0.518
38.16,32029.7,34921.4,0.5105,-0.9537,139.5,97.1,0.518
38.18,31995.2,34892.8,-0.0742,-1.2989,139.5,97.1,0.518
38.2,32007.2,34941.1,0.1289,-0.7166,139.5,97.1,0.518
38.22,31893.2,35013.1,-1.8029,0.1531,139.5,97.1,0.518
38.24,31992.8,34967.0,-0.1155,-0.4032,139.5,97.1,0.518
38.26,32047.3,35041.8,0.8088,0.4991,139.5,97.1,0.518
38.28,31942.5,35019.4,-0.9679,0.2286,139.5,97.1,0.518
38.3,32111.4,35099.2,1.8944,1.1908,139.5,97.1,0.518
38.32,32030.4,35095.3,0.5226,1.1446,139.5,97.1,0.518
38.34,32195.0,35062.6,3.3096,0.7495,139.5,97.1,0.518
38.36,32035.4,35062.6,0.6074,0.7499,139.5,97.1,0.518
38.38,31979.4,35083.0,-0.3422,0.9964,139.5,97.1,0.518
38.4,31994.0,35028.7,-0.0948,0.3412,139.5,97.1,0.518
38.42,32070.7,35085.9,1.2038,1.0307,139.5,97.1,0.518
38.44,32010.3,35030.7,0.1808,0.3649,139.5,97.1,0.518
38.46,32030.1,34963.1,0.5169,-0.451,139.5,97.1,0.518
38.48,31882.1,34994.5,-1.9899,-0.0723,139.5,97.1,0.518
38.5,31964.7,34956.3,-0.5913,-0.5331,139.5,97.1,0.518
38.52,31954.7,34910.0,-0.7599,-1.0909,139.5,97.1,0.518
38.54,32032.7,34914.7,0.5613,-1.0348,139.5,97.1,0.518
38.56,31905.8,34891.9,-1.5886,-1.3102,139.5,97.1,0.518
38.58,31839.0,34938.7,-2.7201,-0.7452,139.5,97.1,0.518
38.6,32069.1,34978.5,1.1781,-0.2646,139.5,97.1,0.518
38.62,31906.3,34892.5,-1.5808,-1.3022,139.5,97.1,0.518
38.64,31994.0,34855.7,-0.0944,-1.7463,139.5,97.1,0.518
38.66,31904.0,34919.9,-1.6188,-0.972,139.5,97.1,0.518
38.68,31968.0,34978.1,-0.5345,-0.2704,139.5,97.1,0.518
38.7,32101.2,35099.2,1.7209,1.1913,139.5,97.1,0.518
38.72,32034.3,35039.4,0.5887,0.4694,139.5,97.1,0.518
38.74,31986.4,35125.7,-0.2234,1.5115,139.5,97.1,0.518
38.76,32092.7,35189.2,1.578,2.2768,139.5,97.1,0.518
38.78,32143.7,35081.8,2.4405,0.9818,139.5,97.1,0.518
38.8,31942.5,35076.6,-0.9664,0.9185,139.5,97.1,0.518
38.82,32009.3,35078.5,0.1638,0.9419,139.5,97.1,0.518
38.84,32034.3,35037.4,0.5873,0.4454,139.5,97.1,0.518
38.86,32041.8,34986.1,0.7151,-0.173,139.5,97.1,0.518
38.88,31948.1,35019.0,-0.8723,0.224,139.5,97.1,0.518
38.9,31949.1,35035.8,-0.8558,0.4269,139.5,97.1,0.518
38.92,31962.0,34889.6,-0.6375,-1.3376,139.5,97.1,0.518
38.94,32010.6,34996.6,0.1861,-0.0468,139.5,97.1,0.518
38.96,31971.9,34948.6,-0.4693,-0.6253,139.5,97.1,0.518
38.98,31951.1,35011.2,-0.8218,0.1299,139.5,97.1,0.518
39.0,31984.0,34929.1,-0.2645,-0.8616,139.5,97.1,0.518
39.02,32000.2,35049.5,0.0097,0.5918,139.5,97.1,0.518
39.04,31985.4,34883.3,-0.2413,-1.4134,139.5,97.1,0.518
39.06,31953.0,34887.0,-0.7892,-1.3692,139.5,97.1,0.518
39.08,31922.7,34917.5,-1.302,-1.001,139.5,97.1,0.518
39.1,31999.7,35008.7,0.0019,0.0998,139.5,97.1,0.518
39.12,32023.3,35041.9,0.4008,0.5002,139.5,97.1,0.518
39.14,32094.9,35103.8,1.6137,1.2472,139.5,97.1,0.518
39.16,32016.1,35107.2,0.2788,1.2875,139.5,97.1,0.518
39.18,32125.0,35156.0,2.1244,1.8762,139.5,97.1,0.518
39.2,32134.4,35065.1,2.2829,0.7799,139.5,97.1,0.518
39.22,32097.3,35109.7,1.6549,1.3175,139.5,97.1,0.518
39.24,32097.8,35128.6,1.6628,1.5462,139.5,97.1,0.518
39.26,31997.3,35053.8,-0.0389,0.6438,139.5,97.1,0.518
39.28,32057.1,35028.9,0.9749,0.3432,139.5,97.1,0.518
39.3,32078.7,35001.4,1.3404,0.0116,139.5,97.1,0.518
39.32,32010.6,35019.7,0.1863,0.2322,139.5,97.1,0.518
39.34,31919.0,34985.1,-1.3645,-0.1854,139.5,97.1,0.518
39.36,32005.5,35009.5,0.1006,0.1091,139.5,97.1,0.518
39.38,31983.9,34955.1,-0.2653,-0.5469,139.5,97.1,0.518
39.4,31920.6,35014.0,-1.3375,0.1629,139.5,97.1,0.518
39.42,31932.5,34991.6,-1.1372,-0.1064,139.5,97.1,0.518
39.44,31975.1,34825.3,-0.4156,-2.1129,139.5,97.1,0.518
39.46,31921.5,35006.5,-1.323,0.0734,139.5,97.1,0.518
39.48,31968.2,34938.0,-0.5316,-0.7536,139.5,97.1,0.518
39.5,31969.2,35006.3,-0.5153,0.0701,139.5,97.1,0.518
39.52,32020.8,34998.3,0.3587,-0.0267,139.5,97.1,0.518
39.54,32017.6,35051.9,0.3043,0.6201,139.5,97.1,0.518
39.56,32003.5,34878.3,0.0661,-1.4734,139.5,97.1,0.518
39.58,32032.3,35040.0,0.5543,0.4768,139.5,97.1,0.518
39.6,32063.9,35033.5,1.0899,0.3984,139.5,97.1,0.518
39.62,32046.1,35169.4,0.7877,2.0387,139.5,97.1,0.518
39.64,32065.7,35113.0,1.1205,1.3583,139.5,97.1,0.518
39.66,32052.5,35024.0,0.8967,0.2844,139.5,97.1,0.518
39.68,31987.6,35048.2,-0.2036,0.5764,139.5,97.1,0.518
39.7,32010.5,34976.5,0.1852,-0.2892,139.5,97.1,0.518
39.72,32022.0,35003.5,0.3794,0.0366,139.5,97.1,0.518
39.74,31956.0,35023.6,-0.7377,0.2794,139.5,97.1,0.518
39.76,31985.2,34958.3,-0.2439,-0.5084,139.5,97.1,0.518
39.78,31962.5,35012.9,-0.6288,0.1505,139.5,97.1,0.518
39.8,31929.7,34990.8,-1.1838,-0.1171,139.5,97.1,0.518
39.82,31923.8,35041.4,-1.2837,0.4936,139.5,97.1,0.518
39.84,31960.6,34881.3,-0.6608,-1.4372,139.5,97.1,0.518
39.86,31978.6,34930.3,-0.3553,-0.8471,139.5,97.1,0.518
39.88,31968.7,34924.1,-0.524,-0.9211,139.5,97.1,0.518
39.9,31941.7,34899.5,-0.9805,-1.2186,139.5,97.1,0.518
39.92,32020.7,34861.2,0.3579,-1.6798,139.5,97.1,0.518
39.94,32010.5,35005.8,0.1844,0.0643,139.5,97.1,0.518
39.96,32010.8,34967.1,0.1893,-0.402,139.5,97.1,0.518
39.98,32056.5,35049.7,0.9632,0.5947,139.5,97.1,0.518
40.0,31990.2,35092.8,-0.1588,1.1135,139.5,97.1,0.518
40.02,32108.0,35100.2,1.8369,1.204,139.5,97.1,0.518
40.04,32064.9,35123.4,1.1063,1.4831,139.5,97.1,0.518
40.06,32026.5,35050.2,0.456,0.6004,139.5,97.1,0.518
40.08,32036.1,35129.3,0.6177,1.555,139.5,97.1,0.518
40.1,32063.4,35074.4,1.0806,0.8926,139.5,97.1,0.518
40.12,32019.8,35056.6,0.3423,0.6778,139.5,97.1,0.518
40.14,32027.0,34900.0,0.4636,-1.2124,139.5,97.1,0.518
40.16,31983.4,35079.8,-0.2751,0.9574,139.5,97.1,0.518
40.18,32021.8,34938.9,0.3755,-0.7424,139.5,97.1,0.518
40.2,32038.6,34939.9,0.6605,-0.7304,139.5,97.1,0.518
40.22,31960.5,34986.9,-0.6619,-0.1636,139.5,97.1,0.518
40.24,31933.7,34935.5,-1.1155,-0.7835,139.5,97.1,0.518
40.26,31921.7,34920.5,-1.319,-0.9652,139.5,97.1,0.518
40.28,32010.9,34954.1,0.1923,-0.5594,139.5,97.1,0.518
40.3,31925.4,34949.4,-1.2568,-0.6163,139.5,97.1,0.518
40.32,32016.0,34906.5,0.2775,-1.1342,139.5,97.1,0.518
40.34,31999.7,34762.4,0.0012,-2.8722,139.5,97.1,0.518
40.36,31920.7,34891.3,-1.3364,-1.3167,139.5,97.1,0.518
40.38,31959.0,34868.8,-0.6871,-1.588,139.5,97.1,0.518
40.4,31941.9,35015.9,-0.9781,0.1857,139.5,97.1,0.518
40.42,32063.7,35050.8,1.0863,0.6076,139.5,97.1,0.518
40.44,32044.6,35083.5,0.7625,1.0015,139.5,97.1,0.518
40.46,32133.3,35151.2,2.2643,1.8193,139.5,97.1,0.518
40.48,32131.6,35171.1,2.2364,2.0592,139.5,97.1,0.518
40.5,32180.1,35074.6,3.058,0.8943,139.5,97.1,0.518
40.52,32001.7,35088.5,0.0358,1.0618,139.5,97.1,0.518
40.54,31945.9,35086.2,-0.9094,1.035,139.5,97.1,0.518
40.56,31996.1,35029.8,-0.0586,0.3536,139.5,97.1,0.518
40.58,31906.2,35017.8,-1.5823,0.2093,139.5,97.1,0.518
40.6,32028.1,34938.8,0.4833,-0.7434,139.5,97.1,0.518
40.62,31962.6,34892.8,-0.6274,-1.2985,139.5,97.1,0.518
40.64,32038.1,34943.2,0.6515,-0.6909,139.5,97.1,0.518
40.66,31977.6,35002.2,-0.3724,0.021,139.5,97.1,0.518
40.68,31974.1,34996.4,-0.4319,-0.049,139.5,97.1,0.518
40.7,32001.2,34957.2,0.027,-0.5216,139.5,97.1,0.518
40.72,31995.1,34911.8,-0.0764,-1.0697,139.5,97.1,0.518
40.74,31933.5,34925.3,-1.1202,-0.9065,139.5,97.1,0.518
40.76,31970.2,34830.6,-0.4973,-2.049,139.5,97.1,0.518
40.78,31896.9,34892.5,-1.7389,-1.3022,139.5,97.1,0.518
40.8,31934.8,34922.6,-1.0981,-0.9398,139.5,97.1,0.518
40.82,31914.3,34939.7,-1.445,-0.7329,139.5,97.1,0.518
40.84,32029.5,34937.4,0.506,-0.7607,139.5,97.1,0.518
40.86,32057.3,35157.9,0.9775,1.8995,139.5,97.1,0.518
40.88,32020.1,35125.2,0.3478,1.5049,139.5,97.1,0.518
40.9,32007.6,35114.3,0.136,1.3733,139.5,97.1,0.518
40.92,32035.9,35118.8,0.6154,1.4277,139.5,97.1,0.518
40.94,32082.0,35054.3,1.396,0.6498,139.5,97.1,0.518
40.96,32028.5,34989.4,0.4903,-0.133,139.5,97.1,0.518
40.98,32057.9,35002.4,0.987,0.0233,139.5,97.1,0.518
41.0,32052.5,35007.4,0.8961,0.0835,139.5,97.1,0.518
41.02,32029.3,34993.0,0.5028,-0.0906,139.5,97.1,0.518
41.04,31996.5,34909.4,-0.0531,-1.0983,139.5,97.1,0.518
41.06,32059.9,34957.4,1.0214,-0.5196,139.5,97.1,0.518
41.08,32028.3,34955.3,0.4871,-0.545,139.5,97.1,0.518
41.1,31999.4,34984.3,-0.0041,-0.1956,139.5,97.1,0.518
41.12,31889.2,34953.0,-1.8706,-0.5722,139.5,97.1,0.518
41.14,31962.8,35020.1,-0.6238,0.2367,139.5,97.1,0.518
41.16,31961.7,34969.0,-0.6422,-0.3797,139.5,97.1,0.518
41.18,32038.5,34960.6,0.6592,-0.4815,139.5,97.1,0.518
41.2,31914.0,34854.9,-1.4498,-1.756,139.5,97.1,0.518
41.22,31966.8,34897.3,-0.556,-1.2444,139.5,97.1,0.518
41.24,31919.1,34884.0,-1.3633,-1.4047,139.5,97.1,0.518
41.26,31941.0,34972.2,-0.9921,-0.3404,139.5,97.1,0.518
41.28,32037.8,35056.2,0.6478,0.6726,139.5,97.1,0.518
41.3,32069.9,35107.4,1.1905,1.2903,139.5,97.1,0.518
41.32,32161.0,35119.9,2.7349,1.4409,139.5,97.1,0.518
41.34,32084.9,35131.2,1.4449,1.5778,139.5,97.1,0.518
41.36,32025.2,35133.2,0.4342,1.6019,139.5,97.1,0.518
41.38,31979.9,35103.5,-0.3341,1.2429,139.5,97.1,0.518
41.4,31972.7,35039.6,-0.455,0.4727,139.5,97.1,0.518
41.42,32095.1,35063.1,1.6177,0.7563,139.5,97.1,0.518
41.44,32048.9,34948.1,0.8349,-0.6321,139.5,97.1,0.518
41.46,31966.5,34949.8,-0.5605,-0.6108,139.5,97.1,0.518
41.48,31986.8,34978.3,-0.2165,-0.2672,139.5,97.1,0.518
41.5,31983.5,35077.6,-0.2726,0.9307,139.5,97.1,0.518
41.52,32052.8,34985.5,0.9015,-0.1809,139.5,97.1,0.518
41.54,31973.5,34960.7,-0.4419,-0.4794,139.5,97.1,0.518
41.56,31953.8,34951.9,-0.7758,-0.5859,139.5,97.1,0.518
41.58,31969.7,34850.0,-0.5064,-1.8149,139.5,97.1,0.518
41.6,32034.6,34887.1,0.5922,-1.3676,139.5,97.1,0.518
41.62,31925.3,34968.6,-1.2581,-0.3849,139.5,97.1,0.518
41.64,31891.9,34932.8,-1.8243,-0.8167,139.5,97.1,0.518
41.66,32024.2,34875.8,0.4171,-1.5037,139.5,97.1,0.518
41.68,31998.2,34942.3,-0.0234,-0.7019,139.5,97.1,0.518
41.7,32038.9,35092.9,0.665,1.1148,139.5,97.1,0.518
41.72,32057.8,35168.2,0.9854,2.0243,139.5,97.1,0.518
41.74,32071.8,35074.3,1.2232,0.8904,139.5,97.1,0.518
41.76,32059.4,35050.4,1.0125,0.6024,139.5,97.1,0.518
41.78,32040.6,35198.5,0.694,2.3897,139.5,97.1,0.518
41.8,31975.8,35158.1,-0.4025,1.9017,139.5,97.1,0.518
41.82,32017.8,35062.7,0.3079,0.7505,139.5,97.1,0.518
41.84,31994.9,35077.3,-0.0788,0.9269,139.5,97.1,0.518
41.86,32039.1,35066.7,0.6691,0.799,139.5,97.1,0.518
41.88,32026.6,35008.0,0.4571,0.0915,139.5,97.1,0.518
41.9,31974.0,35125.6,-0.433,1.5103,139.5,97.1,0.518
41.92,31999.6,35039.2,-0.0004,0.4671,139.5,97.1,0.518
41.94,32054.8,35030.6,0.9353,0.3635,139.5,97.1,0.518
41.96,31923.9,34990.3,-1.2826,-0.1229,139.5,97.1,0.518
41.98,31973.8,35007.6,-0.4363,0.0858,139.5,97.1,0.518
42.0,31926.0,34906.1,-1.2461,-1.138,139.5,97.1,0.518
42.02,31963.3,34842.2,-0.6149,-1.9095,139.5,97.1,0.518
42.04,32024.8,34823.9,0.4268,-2.1305,139.5,97.1,0.518
42.06,32000.5,34881.4,0.015,-1.4361,139.5,97.1,0.518
42.08,31991.6,34912.6,-0.1351,-1.0597,139.5,97.1,0.518
42.1,31956.5,34937.8,-0.73,-0.7561,139.5,97.1,0.518
42.12,32012.4,35008.4,0.2162,0.0964,139.5,97.1,0.518
42.14,32037.1,34888.7,0.636,-1.3486,139.5,97.1,0.518
42.16,32150.0,35080.2,2.5471,0.962,139.5,97.1,0.518
42.18,32040.7,35067.7,0.6971,0.8118,139.5,97.1,0.518
42.2,32084.3,35119.7,1.435,1.4391,139.5,97.1,0.518
42.22,32079.1,35130.1,1.3464,1.5643,139.5,97.1,0.518
42.24,31948.0,35028.3,-0.8747,0.3354,139.5,97.1,0.518
42.26,32059.3,35046.3,1.0122,0.5527,139.5,97.1,0.518
42.28,32095.4,35024.1,1.623,0.2854,139.5,97.1,0.518
42.3,32075.7,35004.8,1.2894,0.0521,139.5,97.1,0.518
42.32,32027.0,35050.1,0.4643,0.5991,139.5,97.1,0.518
42.34,31883.0,34923.0,-1.9756,-0.9341,139.5,97.1,0.518
42.36,32126.3,34952.0,2.1458,-0.5848,139.5,97.1,0.518
42.38,32006.8,35042.7,0.1219,0.5092,139.5,97.1,0.518
42.4,32063.7,34987.9,1.0863,-0.1519,139.5,97.1,0.518
42.42,31966.5,34909.9,-0.5606,-1.0922,139.5,97.1,0.518
42.44,32000.1,34975.8,0.0083,-0.2972,139.5,97.1,0.518
42.46,32016.4,34988.5,0.2855,-0.1448,139.5,97.1,0.518
42.48,32051.2,35024.3,0.8737,0.2874,139.5,97.1,0.518
42.5,31931.8,34966.1,-1.1479,-0.4146,139.5,97.1,0.518
42.52,31982.4,34926.9,-0.2915,-0.8879,139.5,97.1,0.518
42.54,31936.4,35061.4,-1.0701,0.7351,139.5,97.1,0.518
42.56,31924.8,34971.6,-1.2665,-0.3483,139.5,97.1,0.518
42.58,31973.5,34979.2,-0.4414,-0.2563,139.5,97.1,0.518
42.6,32101.0,35006.8,1.7177,0.0764,139.5,97.1,0.518
42.62,32000.5,35212.7,0.0151,2.5613,139.5,97.1,0.518
42.64,32029.4,35158.3,0.5051,1.9045,139.5,97.1,0.518
42.66,32059.3,35201.8,1.0121,2.4291,139.5,97.1,0.518
42.68,32031.8,35061.0,0.5451,0.7301,139.5,97.1,0.518
42.7,32093.6,35069.1,1.5919,0.8284,139.5,97.1,0.518
42.72,32061.1,35096.3,1.0423,1.1563,139.5,97.1,0.518
42.74,31976.2,35006.6,-0.3966,0.0737,139.5,97.1,0.518
42.76,31983.5,34930.3,-0.2723,-0.8465,139.5,97.1,0.518
42.78,31985.2,34965.6,-0.2437,-0.4207,139.5,97.1,0.518
42.8,31995.9,34958.8,-0.062,-0.5024,139.5,97.1,0.518
42.82,31942.4,34963.8,-0.9684,-0.4427,139.5,97.1,0.518
42.84,31958.1,34955.7,-0.7036,-0.5404,139.5,97.1,0.518
42.86,31950.8,34872.2,-0.8258,-1.5471,139.5,97.1,0.518
42.88,31958.9,34934.3,-0.6897,-0.7978,139.5,97.1,0.518
42.9,31977.1,34909.6,-0.3809,-1.0961,139.5,97.1,0.518
42.92,31862.7,34909.0,-2.3191,-1.104,139.5,97.1,0.518
42.94,31924.5,34887.7,-1.2719,-1.3601,139.5,97.1,0.518
42.96,31963.1,34959.8,-0.6185,-0.4905,139.5,97.1,0.518
42.98,31996.0,35021.7,-0.0602,0.2564,139.5,97.1,0.518
43.0,32042.3,35022.3,0.7232,0.2631,139.5,97.1,0.518
43.02,32097.3,35107.2,1.6544,1.2878,139.5,97.1,0.518
43.04,32104.5,35088.4,1.7765,1.0614,139.5,97.1,0.518
43.06,32038.5,35100.5,0.6591,1.2069,139.5,97.1,0.518
43.08,32054.1,35102.2,0.9234,1.2281,139.5,97.1,0.518
43.1,31985.2,35011.1,-0.2444,0.1285,139.5,97.1,0.518
43.12,31991.4,35102.7,-0.1384,1.2336,139.5,97.1,0.518
43.14,31946.8,35015.5,-0.8936,0.1812,139.5,97.1,0.518
43.16,31978.1,34972.0,-0.364,-0.344,139.5,97.1,0.518
43.18,32003.9,35068.1,0.0731,0.8157,139.5,97.1,0.518
43.2,31995.5,34947.8,-0.0695,-0.635,139.5,97.1,0.518
43.22,31951.8,34984.2,-0.8098,-0.1962,139.5,97.1,0.518
43.24,31948.5,35059.5,-0.8653,0.7119,139.5,97.1,0.518
43.26,31950.1,35006.3,-0.8378,0.0701,139.5,97.1,0.518
43.28,32012.2,34908.0,0.2139,-1.1159,139.5,97.1,0.518
43.3,31867.3,35001.2,-2.2413,0.009,139.5,97.1,0.518
43.32,31877.2,34840.5,-2.0735,-1.9297,139.5,97.1,0.518
43.34,32003.6,34960.7,0.0676,-0.4793,139.5,97.1,0.518
43.36,31984.7,34899.3,-0.2523,-1.2203,139.5,97.1,0.518
43.38,32017.6,34920.7,0.3051,-0.9624,139.5,97.1,0.518
43.4,31957.7,35004.0,-0.7091,0.0424,139.5,97.1,0.518
43.42,32015.8,35000.9,0.2747,0.005,139.5,97.1,0.518
43.44,32034.9,35059.4,0.5983,0.7107,139.5,97.1,0.518
43.46,32017.2,35164.5,0.298,1.979,139.5,97.1,0.518
43.48,32140.8,35200.6,2.3914,2.4152,139.5,97.1,0.518
43.5,32031.0,35139.6,0.5314,1.6787,139.5,97.1,0.518
43.52,31991.3,35086.8,-0.1408,1.0422,139.5,97.1,0.518
43.54,32038.0,35093.3,0.6502,1.1203,139.5,97.1,0.518
43.56,32046.1,35092.2,0.7875,1.1074,139.5,97.1,0.518
43.58,32023.3,35062.7,0.4017,0.7509,139.5,97.1,0.518
43.6,32000.9,34952.2,0.0228,-0.5822,139.5,97.1,0.518
43.62,31948.6,34985.0,-0.863,-0.1861,139.5,97.1,0.518
43.64,32005.6,35092.7,0.1025,1.1128,139.5,97.1,0.518
43.66,31996.9,34960.8,-0.0449,-0.4785,139.5,97.1,0.518
43.68,32012.0,34972.2,0.2108,-0.3407,139.5,97.1,0.518
43.7,32052.5,34978.7,0.8961,-0.263,139.5,97.1,0.518
43.72,31991.8,34939.1,-0.1325,-0.7405,139.5,97.1,0.518
43.74,32015.8,34981.6,0.2742,-0.2275,139.5,97.1,0.518
43.76,31957.6,34903.9,-0.7116,-1.1655,139.5,97.1,0.518
43.78,32029.3,34865.0,0.504,-1.635,139.5,97.1,0.518
43.8,31968.4,34980.0,-0.5279,-0.2472,139.5,97.1,0.518
43.82,31978.0,34910.3,-0.3659,-1.0883,139.5,97.1,0.518
43.84,31988.3,34899.0,-0.1914,-1.2236,139.5,97.1,0.518
43.86,32109.9,34936.3,1.8688,-0.7739,139.5,97.1,0.518
43.88,31999.7,35069.4,0.0018,0.8313,139.5,97.1,0.518
43.9,32020.1,35107.7,0.3468,1.294,139.5,97.1,0.518
43.92,32063.5,35099.5,1.0828,1.1944,139.5,97.1,0.518
43.94,31971.4,35196.1,-0.4773,2.3603,139.5,97.1,0.518
43.96,32072.9,35014.2,1.241,0.1663,139.5,97.1,0.518
43.98,31914.5,35085.3,-1.4423,1.0232,139.5,97.1,0.518
44.0,32019.5,35019.7,0.3377,0.2323,139.5,97.1,0.518
44.02,31906.6,35076.0,-1.5761,0.9113,139.5,97.1,0.518
44.04,31931.7,34957.7,-1.1508,-0.516,139.5,97.1,0.518
44.06,32110.1,35004.1,1.8723,0.0441,139.5,97.1,0.518
44.08,31906.4,34944.5,-1.5785,-0.6753,139.5,97.1,0.518
44.1,32017.0,35012.0,0.2941,0.1397,139.5,97.1,0.518
44.12,31946.0,34957.9,-0.908,-0.5139,139.5,97.1,0.518
44.14,31918.3,34960.0,-1.3769,-0.4888,139.5,97.1,0.518
44.16,31980.5,34894.8,-0.3238,-1.2747,139.5,97.1,0.518
44.18,32015.2,35016.6,0.2646,0.1947,139.5,97.1,0.518
44.2,32043.0,34886.8,0.7345,-1.3717,139.5,97.1,0.518
44.22,31981.0,34868.7,-0.3158,-1.5898,139.5,97.1,0.518
44.24,31989.2,34929.8,-0.1761,-0.8525,139.5,97.1,0.518
44.26,31945.4,34958.8,-0.9179,-0.5022,139.5,97.1,0.518
44.28,32046.1,35120.8,0.7877,1.4518,139.5,97.1,0.518
44.3,31947.9,35041.0,-0.8765,0.4893,139.5,97.1,0.518
44.32,32083.8,35070.6,1.4259,0.8462,139.5,97.1,0.518
44.34,32053.4,35069.0,0.9106,0.8265,139.5,97.1,0.518
44.36,32140.1,35103.9,2.3805,1.2477,139.5,97.1,0.518
44.38,32037.7,35134.9,0.645,1.6224,139.5,97.1,0.518
44.4,31982.9,34947.4,-0.2827,-0.6405,139.5,97.1,0.518
44.42,31921.4,35093.5,-1.3253,1.1227,139.5,97.1,0.518
44.44,32026.6,35038.2,0.4571,0.4557,139.5,97.1,0.518
44.46,32060.8,34990.4,1.0376,-0.1218,139.5,97.1,0.518
44.48,31992.8,34951.4,-0.1144,-0.5926,139.5,97.1,0.518
44.5,32003.1,34989.7,0.0602,-0.13,139.5,97.1,0.518
44.52,31937.4,34984.3,-1.0534,-0.1955,139.5,97.1,0.518
44.54,31999.7,35038.1,0.001,0.4547,139.5,97.1,0.518
44.56,31848.0,34991.6,-2.5674,-0.1071,139.5,97.1,0.518
44.58,31883.7,34952.3,-1.9631,-0.5808,139.5,97.1,0.518
44.6,31984.9,35000.9,-0.2493,0.0056,139.5,97.1,0.518
44.62,31908.4,34927.3,-1.5456,-0.8829,139.5,97.1,0.518
44.64,31996.3,34941.6,-0.0552,-0.7104,139.5,97.1,0.518
44.66,31960.5,34839.9,-0.6627,-1.9379,139.5,97.1,0.518
44.68,31883.0,35002.6,-1.975,0.0252,139.5,97.1,0.518
44.7,32059.5,34983.6,1.0155,-0.2029,139.5,97.1,0.518
44.72,32000.5,35033.6,0.0159,0.3998,139.5,97.1,0.518
44.74,32035.7,35055.9,0.6119,0.6685,139.5,97.1,0.518
44.76,32011.5,35147.8,0.2011,1.7778,139.5,97.1,0.518
44.78,32023.4,35112.3,0.4027,1.3494,139.5,97.1,0.518
44.8,32053.0,35126.8,0.9051,1.5239,139.5,97.1,0.518
44.82,31992.1,35022.6,-0.127,0.2673,139.5,97.1,0.518
44.84,32091.1,34969.4,1.5505,-0.3745,139.5,97.1,0.518
44.86,32084.6,34879.8,1.4403,-1.4563,139.5,97.1,0.518
44.88,32050.6,35025.6,0.8632,0.3031,139.5,97.1,0.518
