timestamp,raw_red,raw_ir,filtered_red,filtered_ir,heart_rate,spo2,ac_dc_ratio
0.0,32118.7,35163.7,0.5127,0.4041,149.5,96.9,0.526
0.02,32296.6,35598.3,1.2862,1.4741,149.5,96.9,0.526
0.04,32318.6,35803.2,1.3819,1.9785,149.5,96.9,0.526
0.06,32310.0,35610.3,1.3445,1.5036,149.5,96.9,0.526
0.08,32274.0,35447.8,1.1877,1.1036,149.5,96.9,0.526
0.1,32257.3,35363.7,1.1152,0.8965,149.5,96.9,0.526
0.12,32062.2,35192.6,0.2674,0.4751,149.5,96.9,0.526
0.14,32056.3,35096.3,0.2415,0.238,149.5,96.9,0.526
0.16,32002.8,35026.5,0.0092,0.0662,149.5,96.9,0.526
0.18,32087.8,34976.8,0.3784,-0.056,149.5,96.9,0.526
0.2,31985.9,34857.7,-0.0643,-0.3492,149.5,96.9,0.526
0.22,31923.3,34874.9,-0.3364,-0.307,149.5,96.9,0.526
0.24,31847.9,34641.4,-0.6639,-0.8819,149.5,96.9,0.526
0.26,31853.2,34696.5,-0.6409,-0.7462,149.5,96.9,0.526
0.28,31909.3,34683.9,-0.3973,-0.7772,149.5,96.9,0.526
0.3,31791.1,34486.8,-0.9107,-1.2625,149.5,96.9,0.526
0.32,31792.1,34575.8,-0.9065,-1.0435,149.5,96.9,0.526
0.34,31766.2,34336.4,-1.019,-1.6328,149.5,96.9,0.526
0.36,31751.6,34537.8,-1.0825,-1.1369,149.5,96.9,0.526
0.38,31939.9,34760.8,-0.2641,-0.588,149.5,96.9,0.526
0.4,32046.1,35167.4,0.1975,0.4131,149.5,96.9,0.526
0.42,32243.8,35519.1,1.0566,1.2792,149.5,96.9,0.526
0.44,32369.2,35640.6,1.6017,1.5783,149.5,96.9,0.526
0.46,32479.7,35677.0,2.0819,1.6677,149.5,96.9,0.526
0.48,32340.7,35658.1,1.4775,1.6214,149.5,96.9,0.526
0.5,32153.9,35312.5,0.6659,0.7705,149.5,96.9,0.526
0.52,32018.9,35208.1,0.0791,0.5134,149.5,96.9,0.526
0.54,32097.7,35142.9,0.4218,0.353,149.5,96.9,0.526
0.56,32091.6,35119.2,0.3953,0.2945,149.5,96.9,0.526
0.58,31950.7,34955.4,-0.2174,-0.1088,149.5,96.9,0.526
0.6,31940.2,34941.9,-0.2627,-0.1421,149.5,96.9,0.526
0.62,31930.6,34759.6,-0.3045,-0.5907,149.5,96.9,0.526
0.64,31862.3,34581.5,-0.6017,-1.0294,149.5,96.9,0.526
0.66,31883.3,34694.3,-0.5102,-0.7517,149.5,96.9,0.526
0.68,31825.7,34725.3,-0.7603,-0.6753,149.5,96.9,0.526
0.7,31826.8,34600.2,-0.7559,-0.9832,149.5,96.9,0.526
0.72,31759.7,34528.7,-1.0475,-1.1592,149.5,96.9,0.526
0.74,31862.1,34448.4,-0.6024,-1.357,149.5,96.9,0.526
0.76,31894.6,34449.1,-0.4613,-1.3552,149.5,96.9,0.526
0.78,31846.4,34734.1,-0.6703,-0.6536,149.5,96.9,0.526
0.8,32089.2,35143.6,0.3848,0.3545,149.5,96.9,0.526
0.82,32279.6,35486.9,1.2124,1.1999,149.5,96.9,0.526
0.84,32353.8,35724.3,1.5348,1.7844,149.5,96.9,0.526
0.86,32375.2,35803.5,1.6276,1.9792,149.5,96.9,0.526
0.88,32246.3,35525.6,1.0674,1.295,149.5,96.9,0.526
0.9,32105.5,35396.2,0.4556,0.9764,149.5,96.9,0.526
0.92,32049.1,35241.2,0.2103,0.5949,149.5,96.9,0.526
0.94,32055.8,35199.5,0.2393,0.4922,149.5,96.9,0.526
0.96,32047.2,35042.0,0.2022,0.1044,149.5,96.9,0.526
0.98,31967.1,35116.1,-0.1461,0.2868,149.5,96.9,0.526
1.0,31981.7,34844.8,-0.0827,-0.381,149.5,96.9,0.526
1.02,31872.8,34745.8,-0.5556,-0.6248,149.5,96.9,0.526
1.04,31790.9,34697.2,-0.9116,-0.7444,149.5,96.9,0.526
1.06,31794.9,34614.5,-0.8945,-0.948,149.5,96.9,0.526
1.08,31850.3,34657.6,-0.6538,-0.8421,149.5,96.9,0.526
1.1,31895.0,34530.5,-0.4592,-1.1549,149.5,96.9,0.526
1.12,31743.5,34445.3,-1.1176,-1.3646,149.5,96.9,0.526
1.14,31812.5,34477.7,-0.8178,-1.285,149.5,96.9,0.526
1.16,31766.2,34588.5,-1.0189,-1.012,149.5,96.9,0.526
1.18,31858.8,34777.3,-0.6165,-0.5473,149.5,96.9,0.526
1.2,32075.8,35157.3,0.3265,0.3883,149.5,96.9,0.526
1.22,32170.3,35401.1,0.7373,0.9886,149.5,96.9,0.526
1.24,32419.8,35741.5,1.8217,1.8266,149.5,96.9,0.526
1.26,32337.0,35739.5,1.4615,1.8218,149.5,96.9,0.526
1.28,32256.3,35521.8,1.1111,1.2857,149.5,96.9,0.526
1.3,32215.4,35433.1,0.9333,1.0672,149.5,96.9,0.526
1.32,32105.6,35177.6,0.4561,0.4382,149.5,96.9,0.526
1.34,32019.2,35134.5,0.0803,0.3322,149.5,96.9,0.526
1.36,32060.3,35036.6,0.2589,0.0912,149.5,96.9,0.526
1.38,31999.9,34913.6,-0.0034,-0.2118,149.5,96.9,0.526
1.4,31966.8,34900.6,-0.1471,-0.2437,149.5,96.9,0.526
1.42,31847.3,34799.5,-0.6666,-0.4925,149.5,96.9,0.526
1.44,31769.5,34668.6,-1.0048,-0.815,149.5,96.9,0.526
1.46,31820.9,34696.1,-0.7815,-0.7472,149.5,96.9,0.526
1.48,31867.3,34618.7,-0.5796,-0.9378,149.5,96.9,0.526
1.5,31902.0,34556.8,-0.429,-1.0902,149.5,96.9,0.526
1.52,31790.3,34490.7,-0.9142,-1.2529,149.5,96.9,0.526
1.54,31751.6,34490.6,-1.0826,-1.2532,149.5,96.9,0.526
1.56,31800.0,34549.2,-0.872,-1.1088,149.5,96.9,0.526
1.58,31830.6,34679.7,-0.7393,-0.7875,149.5,96.9,0.526
1.6,31985.9,35098.9,-0.0644,0.2445,149.5,96.9,0.526
1.62,32246.5,35466.2,1.0681,1.1489,149.5,96.9,0.526
1.64,32345.5,35731.9,1.4985,1.8031,149.5,96.9,0.526
1.66,32351.9,35822.7,1.5265,2.0266,149.5,96.9,0.526
1.68,32267.8,35674.2,1.1608,1.661,149.5,96.9,0.526
1.7,32177.9,35384.2,0.77,0.947,149.5,96.9,0.526
1.72,32135.7,35217.6,0.5867,0.5368,149.5,96.9,0.526
1.74,32084.6,35119.5,0.3648,0.2952,149.5,96.9,0.526
1.76,32003.9,35090.8,0.0139,0.2247,149.5,96.9,0.526
1.78,31951.6,35120.4,-0.2134,0.2974,149.5,96.9,0.526
1.8,31975.5,34899.0,-0.1096,-0.2476,149.5,96.9,0.526
1.82,31911.9,34708.4,-0.3859,-0.7169,149.5,96.9,0.526
1.84,31870.2,34615.5,-0.5673,-0.9456,149.5,96.9,0.526
1.86,31912.6,34650.4,-0.3828,-0.8596,149.5,96.9,0.526
1.88,31968.1,34715.4,-0.1415,-0.6997,149.5,96.9,0.526
1.9,31739.5,34698.7,-1.1353,-0.7407,149.5,96.9,0.526
1.92,31812.6,34530.1,-0.8174,-1.1559,149.5,96.9,0.526
1.94,31711.3,34415.6,-1.2575,-1.4378,149.5,96.9,0.526
1.96,31764.9,34496.7,-1.0247,-1.2382,149.5,96.9,0.526
1.98,31876.8,34695.9,-0.5383,-0.7478,149.5,96.9,0.526
2.0,32027.3,34872.9,0.1155,-0.3118,149.5,96.9,0.526
2.02,32276.5,35482.7,1.1988,1.1894,149.5,96.9,0.526
2.04,32310.6,35719.5,1.3467,1.7725,149.5,96.9,0.526
2.06,32300.4,35762.9,1.3026,1.8793,149.5,96.9,0.526
2.08,32323.8,35525.3,1.4041,1.2942,149.5,96.9,0.526
2.1,32148.9,35412.5,0.6443,1.0166,149.5,96.9,0.526
2.12,32163.4,35269.2,0.707,0.6638,149.5,96.9,0.526
2.14,31970.5,35197.6,-0.1314,0.4875,149.5,96.9,0.526
2.16,32094.4,35014.5,0.4072,0.0368,149.5,96.9,0.526
2.18,32031.5,35024.2,0.1339,0.0607,149.5,96.9,0.526
2.2,31930.7,34927.6,-0.3042,-0.1772,149.5,96.9,0.526
2.22,31860.8,34874.7,-0.6079,-0.3075,149.5,96.9,0.526
2.24,31877.0,34743.7,-0.5377,-0.6301,149.5,96.9,0.526
2.26,31835.7,34699.4,-0.7173,-0.7391,149.5,96.9,0.526
2.28,31834.7,34588.9,-0.7216,-1.011,149.5,96.9,0.526
2.3,31817.0,34655.4,-0.7984,-0.8475,149.5,96.9,0.526
2.32,31748.0,34488.1,-1.0982,-1.2592,149.5,96.9,0.526
2.34,31741.3,34493.7,-1.1272,-1.2456,149.5,96.9,0.526
2.36,31846.9,34581.7,-0.6682,-1.0287,149.5,96.9,0.526
2.38,31913.1,34657.6,-0.3805,-0.842,149.5,96.9,0.526
2.4,32059.3,35022.3,0.2546,0.056,149.5,96.9,0.526
2.42,32149.0,35463.1,0.6444,1.1412,149.5,96.9,0.526
2.44,32323.3,35605.6,1.4021,1.492,149.5,96.9,0.526
2.46,32464.4,35735.6,2.0152,1.8121,149.5,96.9,0.526
2.48,32302.6,35679.2,1.3122,1.6734,149.5,96.9,0.526
2.5,32231.4,35399.1,1.0026,0.9837,149.5,96.9,0.526
2.52,32189.9,35261.7,0.8225,0.6454,149.5,96.9,0.526
2.54,32085.5,35109.6,0.3687,0.271,149.5,96.9,0.526
2.56,32026.4,35047.4,0.1119,0.1178,149.5,96.9,0.526
2.58,32025.0,34999.5,0.1058,-0.0002,149.5,96.9,0.526
2.6,32000.8,34914.7,0.0004,-0.209,149.5,96.9,0.526
2.62,31951.5,34822.7,-0.2136,-0.4354,149.5,96.9,0.526
2.64,31846.3,34729.8,-0.671,-0.6643,149.5,96.9,0.526
2.66,31844.3,34715.3,-0.6797,-0.6998,149.5,96.9,0.526
2.68,31906.7,34709.3,-0.4086,-0.7147,149.5,96.9,0.526
2.7,31904.2,34666.3,-0.4195,-0.8206,149.5,96.9,0.526
2.72,31831.3,34572.9,-0.736,-1.0504,149.5,96.9,0.526
2.74,31747.0,34498.1,-1.1027,-1.2345,149.5,96.9,0.526
2.76,31661.6,34450.6,-1.4737,-1.3516,149.5,96.9,0.526
2.78,31865.3,34673.5,-0.5883,-0.8028,149.5,96.9,0.526
2.8,31998.2,35100.5,-0.011,0.2485,149.5,96.9,0.526
2.82,32263.3,35368.7,1.1414,0.9089,149.5,96.9,0.526
2.84,32247.4,35680.8,1.0724,1.6771,149.5,96.9,0.526
2.86,32404.3,35861.1,1.7543,2.121,149.5,96.9,0.526
2.88,32324.7,35646.8,1.408,1.5935,149.5,96.9,0.526
2.9,32171.6,35429.6,0.7427,1.0587,149.5,96.9,0.526
2.92,32016.8,35259.4,0.0701,0.6396,149.5,96.9,0.526
2.94,32198.2,35175.7,0.8585,0.4337,149.5,96.9,0.526
2.96,32079.5,35096.3,0.3424,0.2382,149.5,96.9,0.526
2.98,31972.9,35005.9,-0.1206,0.0157,149.5,96.9,0.526
3.0,32026.7,35009.4,0.1129,0.0241,149.5,96.9,0.526
3.02,31947.1,34787.6,-0.2331,-0.5218,149.5,96.9,0.526
3.04,31953.8,34777.3,-0.2039,-0.5474,149.5,96.9,0.526
3.06,31871.8,34696.9,-0.5603,-0.7453,149.5,96.9,0.526
3.08,31808.9,34629.7,-0.8333,-0.9107,149.5,96.9,0.526
3.1,31820.9,34629.3,-0.7812,-0.9116,149.5,96.9,0.526
3.12,31725.6,34460.3,-1.1957,-1.3278,149.5,96.9,0.526
3.14,31782.1,34416.5,-0.9502,-1.4356,149.5,96.9,0.526
3.16,31730.9,34479.1,-1.1724,-1.2815,149.5,96.9,0.526
3.18,31836.8,34633.4,-0.7121,-0.9016,149.5,96.9,0.526
3.2,31957.0,35030.1,-0.1899,0.0751,149.5,96.9,0.526
3.22,32134.9,35343.6,0.5831,0.8471,149.5,96.9,0.526
3.24,32272.9,35669.1,1.1829,1.6483,149.5,96.9,0.526
3.26,32285.5,35700.4,1.2379,1.7255,149.5,96.9,0.526
3.28,32352.3,35598.2,1.5283,1.4738,149.5,96.9,0.526
3.3,32243.6,35530.2,1.0557,1.3064,149.5,96.9,0.526
3.32,32108.1,35235.4,0.4669,0.5806,149.5,96.9,0.526
3.34,32030.4,35004.1,0.1291,0.011,149.5,96.9,0.526
3.36,32063.3,35197.3,0.2719,0.4868,149.5,96.9,0.526
3.38,31965.2,35050.8,-0.1541,0.1261,149.5,96.9,0.526
3.4,31986.5,34944.9,-0.0616,-0.1347,149.5,96.9,0.526
3.42,31899.4,34828.5,-0.4402,-0.4211,149.5,96.9,0.526
3.44,31884.4,34688.8,-0.5056,-0.7652,149.5,96.9,0.526
3.46,31916.2,34700.3,-0.3671,-0.7368,149.5,96.9,0.526
3.48,31862.2,34691.4,-0.6018,-0.7589,149.5,96.9,0.526
3.5,31935.0,34479.7,-0.2853,-1.2798,149.5,96.9,0.526
3.52,31838.8,34521.3,-0.7035,-1.1775,149.5,96.9,0.526
3.54,31719.0,34522.6,-1.2241,-1.1744,149.5,96.9,0.526
3.56,31751.1,34490.8,-1.0849,-1.2526,149.5,96.9,0.526
3.58,31896.9,34636.0,-0.4509,-0.8951,149.5,96.9,0.526
3.6,31986.5,34896.1,-0.0618,-0.2548,149.5,96.9,0.526
3.62,32214.2,35213.3,0.9281,0.5262,149.5,96.9,0.526
3.64,32291.5,35580.0,1.2638,1.4289,149.5,96.9,0.526
3.66,32329.5,35793.6,1.4289,1.9549,149.5,96.9,0.526
3.68,32241.4,35613.6,1.0463,1.5119,149.5,96.9,0.526
3.7,32237.3,35594.8,1.0285,1.4654,149.5,96.9,0.526
3.72,32114.5,35231.6,0.4945,0.5711,149.5,96.9,0.526
3.74,32045.4,35194.1,0.1944,0.479,149.5,96.9,0.526
3.76,32035.5,35108.3,0.1512,0.2676,149.5,96.9,0.526
3.78,32056.0,35146.3,0.2403,0.3613,149.5,96.9,0.526
3.8,31967.8,34983.0,-0.1429,-0.0408,149.5,96.9,0.526
3.82,31954.5,34846.4,-0.2007,-0.377,149.5,96.9,0.526
3.84,31790.2,34802.6,-0.9147,-0.485,149.5,96.9,0.526
3.86,31860.5,34689.8,-0.6094,-0.7627,149.5,96.9,0.526
3.88,31867.1,34701.8,-0.5805,-0.7332,149.5,96.9,0.526
3.9,31935.5,34580.9,-0.2832,-1.0307,149.5,96.9,0.526
3.92,31786.0,34544.5,-0.9328,-1.1204,149.5,96.9,0.526
3.94,31688.3,34470.1,-1.3577,-1.3036,149.5,96.9,0.526
3.96,31713.0,34406.3,-1.2505,-1.4606,149.5,96.9,0.526
3.98,31795.4,34605.1,-0.892,-0.9713,149.5,96.9,0.526
4.0,31904.2,34976.0,-0.4193,-0.0581,149.5,96.9,0.526
4.02,32159.9,35257.4,0.6919,0.6347,149.5,96.9,0.526
4.04,32249.5,35615.1,1.0813,1.5153,149.5,96.9,0.526
4.06,32352.6,35762.6,1.5295,1.8785,149.5,96.9,0.526
4.08,32264.0,35718.5,1.1442,1.77,149.5,96.9,0.526
4.1,32261.7,35559.9,1.1346,1.3795,149.5,96.9,0.526
4.12,32155.8,35355.4,0.6741,0.8759,149.5,96.9,0.526
4.14,32103.7,35223.5,0.4478,0.5514,149.5,96.9,0.526
4.16,32023.5,35026.6,0.0992,0.0666,149.5,96.9,0.526
4.18,32093.8,34978.6,0.4047,-0.0516,149.5,96.9,0.526
4.2,31937.9,34959.2,-0.2728,-0.0994,149.5,96.9,0.526
4.22,31911.0,34891.6,-0.3897,-0.2659,149.5,96.9,0.526
4.24,31881.4,34722.8,-0.5184,-0.6815,149.5,96.9,0.526
4.26,31842.3,34672.1,-0.6882,-0.8062,149.5,96.9,0.526
4.28,31957.3,34660.1,-0.1887,-0.8358,149.5,96.9,0.526
4.3,31761.6,34615.1,-1.039,-0.9465,149.5,96.9,0.526
4.32,31753.1,34581.7,-1.0758,-1.0287,149.5,96.9,0.526
4.34,31737.7,34568.8,-1.1431,-1.0606,149.5,96.9,0.526
4.36,31822.4,34440.6,-0.775,-1.3761,149.5,96.9,0.526
4.38,31853.9,34533.5,-0.638,-1.1474,149.5,96.9,0.526
4.4,31894.5,34876.2,-0.4614,-0.3038,149.5,96.9,0.526
4.42,32166.4,35243.4,0.72,0.6004,149.5,96.9,0.526
4.44,32359.9,35584.2,1.5612,1.4393,149.5,96.9,0.526
4.46,32261.1,35735.5,1.1318,1.8118,149.5,96.9,0.526
4.48,32380.4,35691.8,1.6505,1.7042,149.5,96.9,0.526
4.5,32213.9,35496.8,0.9267,1.2241,149.5,96.9,0.526
4.52,32188.4,35305.2,0.8159,0.7525,149.5,96.9,0.526
4.54,32048.7,35187.8,0.2087,0.4635,149.5,96.9,0.526
4.56,32109.0,35205.8,0.4709,0.5078,149.5,96.9,0.526
4.58,32082.6,34968.4,0.356,-0.0767,149.5,96.9,0.526
4.6,31982.3,34927.9,-0.0797,-0.1764,149.5,96.9,0.526
4.62,31797.7,34809.5,-0.8822,-0.4679,149.5,96.9,0.526
4.64,31840.2,34839.0,-0.6975,-0.3953,149.5,96.9,0.526
4.66,31808.5,34613.9,-0.8352,-0.9497,149.5,96.9,0.526
4.68,31911.5,34635.1,-0.3876,-0.8975,149.5,96.9,0.526
4.7,31799.2,34664.6,-0.8755,-0.8248,149.5,96.9,0.526
4.72,31748.9,34557.1,-1.0942,-1.0893,149.5,96.9,0.526
4.74,31715.8,34477.0,-1.238,-1.2866,149.5,96.9,0.526
4.76,31814.8,34543.7,-0.808,-1.1223,149.5,96.9,0.526
4.78,31750.3,34487.9,-1.0884,-1.2597,149.5,96.9,0.526
4.8,31949.6,34767.8,-0.2221,-0.5707,149.5,96.9,0.526
4.82,32123.8,35244.1,0.5352,0.6021,149.5,96.9,0.526
4.84,32206.3,35583.8,0.8935,1.4383,149.5,96.9,0.526
4.86,32391.7,35763.2,1.6993,1.88,149.5,96.9,0.526
4.88,32266.8,35720.4,1.1566,1.7747,149.5,96.9,0.526
4.9,32267.5,35462.6,1.1598,1.1399,149.5,96.9,0.526
4.92,32168.0,35320.3,0.727,0.7895,149.5,96.9,0.526
4.94,31991.7,35195.8,-0.0392,0.483,149.5,96.9,0.526
4.96,32079.4,35066.1,0.3419,0.1638,149.5,96.9,0.526
4.98,31989.6,35003.8,-0.0482,0.0104,149.5,96.9,0.526
5.0,31931.1,34994.7,-0.3025,-0.0119,149.5,96.9,0.526
5.02,31954.4,34781.1,-0.2013,-0.5379,149.5,96.9,0.526
5.04,31857.7,34825.9,-0.6216,-0.4276,149.5,96.9,0.526
5.06,31825.0,34674.5,-0.7635,-0.8003,149.5,96.9,0.526
5.08,31859.6,34684.0,-0.6132,-0.777,149.5,96.9,0.526
5.1,31904.0,34632.8,-0.4203,-0.903,149.5,96.9,0.526
5.12,31783.4,34586.9,-0.9442,-1.0161,149.5,96.9,0.526
5.14,31665.7,34448.1,-1.4557,-1.3577,149.5,96.9,0.526
5.16,31751.7,34430.0,-1.0821,-1.4023,149.5,96.9,0.526
5.18,31832.8,34629.1,-0.7297,-0.912,149.5,96.9,0.526
5.2,32054.5,34879.1,0.234,-0.2966,149.5,96.9,0.526
5.22,32057.7,35166.3,0.248,0.4106,149.5,96.9,0.526
5.24,32279.8,35568.1,1.2132,1.3998,149.5,96.9,0.526
5.26,32367.8,35775.1,1.5954,1.9094,149.5,96.9,0.526
5.28,32323.6,35733.3,1.4036,1.8066,149.5,96.9,0.526
5.3,32277.7,35508.4,1.2038,1.2527,149.5,96.9,0.526
5.32,32188.0,35251.3,0.8142,0.6199,149.5,96.9,0.526
5.34,32108.6,35192.9,0.4688,0.4759,149.5,96.9,0.526
5.36,32032.2,35148.6,0.1367,0.367,149.5,96.9,0.526
5.38,32095.4,35066.4,0.4115,0.1646,149.5,96.9,0.526
5.4,32026.6,35021.8,0.1126,0.0546,149.5,96.9,0.526
5.42,31886.5,34798.8,-0.4962,-0.4944,149.5,96.9,0.526
5.44,31892.5,34732.5,-0.4704,-0.6574,149.5,96.9,0.526
5.46,31771.4,34621.7,-0.9964,-0.9303,149.5,96.9,0.526
5.48,31820.8,34734.4,-0.7818,-0.6528,149.5,96.9,0.526
5.5,31827.7,34741.3,-0.7516,-0.6359,149.5,96.9,0.526
5.52,31701.9,34587.7,-1.2986,-1.0141,149.5,96.9,0.526
5.54,31826.7,34477.7,-0.756,-1.2848,149.5,96.9,0.526
5.56,31845.3,34534.9,-0.6752,-1.144,149.5,96.9,0.526
5.58,31854.0,34495.1,-0.6374,-1.242,149.5,96.9,0.526
5.6,31938.1,34881.2,-0.272,-0.2915,149.5,96.9,0.526
5.62,32025.9,35146.5,0.1095,0.3618,149.5,96.9,0.526
5.64,32304.8,35592.9,1.3217,1.4607,149.5,96.9,0.526
5.66,32375.4,35856.4,1.6286,2.1094,149.5,96.9,0.526
5.68,32350.5,35751.3,1.5203,1.8508,149.5,96.9,0.526
5.7,32198.3,35482.3,0.8589,1.1884,149.5,96.9,0.526
5.72,32158.6,35365.5,0.6863,0.901,149.5,96.9,0.526
5.74,31933.6,35168.4,-0.2916,0.4156,149.5,96.9,0.526
5.76,32026.0,35165.0,0.1101,0.4072,149.5,96.9,0.526
5.78,32065.7,35099.7,0.2823,0.2465,149.5,96.9,0.526
5.8,31934.8,34992.9,-0.2865,-0.0164,149.5,96.9,0.526
5.82,31948.8,34826.4,-0.2254,-0.4263,149.5,96.9,0.526
5.84,31894.8,34765.7,-0.46,-0.5758,149.5,96.9,0.526
5.86,31839.0,34763.7,-0.7028,-0.5809,149.5,96.9,0.526
5.88,31868.0,34728.4,-0.5769,-0.6676,149.5,96.9,0.526
5.9,31769.2,34817.4,-1.0059,-0.4486,149.5,96.9,0.526
5.92,31824.7,34558.5,-0.7648,-1.0859,149.5,96.9,0.526
5.94,31779.3,34535.4,-0.9621,-1.1428,149.5,96.9,0.526
5.96,31799.0,34423.8,-0.8766,-1.4175,149.5,96.9,0.526
5.98,31793.1,34524.9,-0.9024,-1.1686,149.5,96.9,0.526
6.0,31869.8,34824.5,-0.5687,-0.431,149.5,96.9,0.526
6.02,32055.0,35198.9,0.236,0.4907,149.5,96.9,0.526
6.04,32256.1,35579.1,1.11,1.4268,149.5,96.9,0.526
6.06,32341.8,35773.1,1.4824,1.9044,149.5,96.9,0.526
6.08,32310.2,35763.2,1.3454,1.88,149.5,96.9,0.526
6.1,32237.5,35455.8,1.029,1.1231,149.5,96.9,0.526
6.12,32158.2,35264.7,0.6846,0.6528,149.5,96.9,0.526
6.14,32085.6,35140.8,0.3692,0.3477,149.5,96.9,0.526
6.16,31975.7,35154.0,-0.1085,0.3801,149.5,96.9,0.526
6.18,32021.9,35055.0,0.0922,0.1365,149.5,96.9,0.526
6.2,31997.4,34946.3,-0.0142,-0.1313,149.5,96.9,0.526
6.22,31957.7,34824.7,-0.1868,-0.4305,149.5,96.9,0.526
6.24,31961.0,34781.7,-0.1725,-0.5363,149.5,96.9,0.526
6.26,31839.8,34666.9,-0.6992,-0.819,149.5,96.9,0.526
6.28,31883.5,34642.2,-0.5092,-0.88,149.5,96.9,0.526
6.3,31825.2,34583.9,-0.7627,-1.0233,149.5,96.9,0.526
6.32,31775.5,34602.0,-0.9789,-0.9789,149.5,96.9,0.526
6.34,31734.2,34492.9,-1.158,-1.2475,149.5,96.9,0.526
6.36,31806.2,34388.8,-0.8453,-1.5039,149.5,96.9,0.526
6.38,31844.7,34623.5,-0.6781,-0.9259,149.5,96.9,0.526
6.4,31867.9,34765.6,-0.5772,-0.576,149.5,96.9,0.526
6.42,32003.7,35222.8,0.0131,0.5495,149.5,96.9,0.526
6.44,32293.3,35576.0,1.2718,1.4191,149.5,96.9,0.526
6.46,32335.4,35776.7,1.4547,1.9134,149.5,96.9,0.526
6.48,32373.3,35828.9,1.6192,2.0419,149.5,96.9,0.526
6.5,32265.1,35581.5,1.1491,1.4328,149.5,96.9,0.526
6.52,32171.9,35331.0,0.7441,0.8159,149.5,96.9,0.526
6.54,32091.6,35174.2,0.3951,0.4299,149.5,96.9,0.526
6.56,31986.0,35139.2,-0.0637,0.3436,149.5,96.9,0.526
6.58,32049.2,34976.0,0.2108,-0.0581,149.5,96.9,0.526
6.6,32006.8,35050.6,0.0266,0.1257,149.5,96.9,0.526
6.62,32078.5,34839.3,0.3381,-0.3947,149.5,96.9,0.526
6.64,31891.8,34805.5,-0.4733,-0.478,149.5,96.9,0.526
6.66,31818.6,34635.8,-0.7915,-0.8957,149.5,96.9,0.526
6.68,31853.3,34720.4,-0.6404,-0.6874,149.5,96.9,0.526
6.7,31825.3,34633.3,-0.7622,-0.9018,149.5,96.9,0.526
6.72,31659.4,34578.1,-1.4834,-1.0378,149.5,96.9,0.526
6.74,31728.2,34522.9,-1.1841,-1.1736,149.5,96.9,0.526
6.76,31820.1,34389.7,-0.7847,-1.5015,149.5,96.9,0.526
6.78,31762.7,34538.7,-1.0343,-1.1346,149.5,96.9,0.526
6.8,31849.5,34807.8,-0.6569,-0.4721,149.5,96.9,0.526
6.82,32084.8,35131.2,0.3658,0.3241,149.5,96.9,0.526
6.84,32224.1,35566.1,0.9709,1.3949,149.5,96.9,0.526
6.86,32331.6,35590.9,1.4382,1.4559,149.5,96.9,0.526
6.88,32394.6,35697.9,1.712,1.7193,149.5,96.9,0.526
6.9,32256.6,35530.4,1.1124,1.3069,149.5,96.9,0.526
6.92,32267.8,35416.3,1.1608,1.0259,149.5,96.9,0.526
6.94,32042.7,35182.5,0.1827,0.4504,149.5,96.9,0.526
6.96,32094.7,35114.8,0.4084,0.2836,149.5,96.9,0.526
6.98,31995.4,35044.3,-0.0231,0.11,149.5,96.9,0.526
7.0,31971.6,34952.4,-0.1266,-0.1162,149.5,96.9,0.526
7.02,32101.4,34761.2,0.4376,-0.5868,149.5,96.9,0.526
7.04,31926.9,34719.8,-0.3209,-0.6889,149.5,96.9,0.526
7.06,31830.8,34721.0,-0.7383,-0.6859,149.5,96.9,0.526
7.08,31872.3,34626.9,-0.558,-0.9176,149.5,96.9,0.526
7.1,31828.7,34671.7,-0.7473,-0.8073,149.5,96.9,0.526
7.12,31904.3,34609.7,-0.4187,-0.96,149.5,96.9,0.526
7.14,31842.9,34493.2,-0.6858,-1.2468,149.5,96.9,0.526
7.16,31782.3,34353.0,-0.9491,-1.5919,149.5,96.9,0.526
7.18,31719.2,34527.1,-1.2232,-1.1632,149.5,96.9,0.526
7.2,31845.9,34771.2,-0.6728,-0.5624,149.5,96.9,0.526
7.22,32059.9,35139.3,0.2573,0.344,149.5,96.9,0.526
7.24,32257.9,35550.1,1.118,1.3554,149.5,96.9,0.526
7.26,32328.2,35673.7,1.4234,1.6598,149.5,96.9,0.526
7.28,32360.4,35801.5,1.5635,1.9744,149.5,96.9,0.526
7.3,32226.5,35568.9,0.9813,1.4018,149.5,96.9,0.526
7.32,32127.0,35521.4,0.5491,1.2846,149.5,96.9,0.526
7.34,32014.1,35163.4,0.0584,0.4034,149.5,96.9,0.526
7.36,32025.6,35260.8,0.1085,0.6431,149.5,96.9,0.526
7.38,32161.4,35046.7,0.6985,0.116,149.5,96.9,0.526
7.4,31956.5,35037.8,-0.192,0.0941,149.5,96.9,0.526
7.42,31939.3,34959.5,-0.267,-0.0986,149.5,96.9,0.526
7.44,31876.1,34762.1,-0.5415,-0.5846,149.5,96.9,0.526
7.46,31772.7,34709.9,-0.9907,-0.7132,149.5,96.9,0.526
7.48,31861.1,34635.8,-0.6065,-0.8957,149.5,96.9,0.526
7.5,31799.1,34660.5,-0.8759,-0.8349,149.5,96.9,0.526
7.52,31803.3,34526.4,-0.8577,-1.1649,149.5,96.9,0.526
7.54,31763.1,34550.8,-1.0324,-1.105,149.5,96.9,0.526
7.56,31700.4,34372.4,-1.305,-1.5442,149.5,96.9,0.526
7.58,31698.3,34526.2,-1.3144,-1.1656,149.5,96.9,0.526
7.6,31780.9,34754.8,-0.9551,-0.6027,149.5,96.9,0.526
7.62,31941.1,35125.7,-0.2588,0.3106,149.5,96.9,0.526
7.64,32297.5,35470.8,1.2902,1.16,149.5,96.9,0.526
7.66,32330.2,35618.5,1.432,1.5239,149.5,96.9,0.526
7.68,32442.1,35832.3,1.9186,2.0503,149.5,96.9,0.526
7.7,32319.3,35592.5,1.3849,1.4597,149.5,96.9,0.526
7.72,32167.0,35441.6,0.7226,1.0884,149.5,96.9,0.526
7.74,32157.9,35154.3,0.6832,0.381,149.5,96.9,0.526
7.76,32077.2,35150.8,0.3326,0.3724,149.5,96.9,0.526
7.78,31956.9,35055.2,-0.1902,0.1371,149.5,96.9,0.526
7.8,32048.8,35010.6,0.2093,0.0271,149.5,96.9,0.526
7.82,31929.5,34905.6,-0.3096,-0.2314,149.5,96.9,0.526
7.84,31899.7,34692.6,-0.4391,-0.7558,149.5,96.9,0.526
7.86,31896.0,34753.1,-0.4548,-0.6069,149.5,96.9,0.526
7.88,31797.3,34644.3,-0.884,-0.8746,149.5,96.9,0.526
7.9,31829.5,34687.0,-0.7438,-0.7695,149.5,96.9,0.526
7.92,31830.8,34666.5,-0.7385,-0.82,149.5,96.9,0.526
7.94,31721.4,34453.6,-1.2137,-1.3443,149.5,96.9,0.526
7.96,31731.3,34467.7,-1.1709,-1.3094,149.5,96.9,0.526
7.98,31688.3,34499.9,-1.3575,-1.2303,149.5,96.9,0.526
8.0,31872.1,34803.9,-0.5588,-0.4817,149.5,96.9,0.526
8.02,31988.1,35070.6,-0.0548,0.175,149.5,96.9,0.526
8.04,32302.4,35433.7,1.3111,1.0687,149.5,96.9,0.526
8.06,32276.1,35740.2,1.197,1.8234,149.5,96.9,0.526
8.08,32290.1,35761.1,1.2576,1.8749,149.5,96.9,0.526
8.1,32335.2,35622.2,1.454,1.533,149.5,96.9,0.526
8.12,32172.0,35307.9,0.7443,0.7591,149.5,96.9,0.526
8.14,32086.1,35328.4,0.3711,0.8096,149.5,96.9,0.526
8.16,32050.9,35083.1,0.2183,0.2056,149.5,96.9,0.526
8.18,32039.9,35069.7,0.1705,0.1726,149.5,96.9,0.526
8.2,31995.6,34993.5,-0.0222,-0.0149,149.5,96.9,0.526
8.22,32122.3,34904.9,0.5283,-0.2331,149.5,96.9,0.526
8.24,31902.6,34758.8,-0.4263,-0.5929,149.5,96.9,0.526
8.26,31926.6,34648.6,-0.322,-0.8641,149.5,96.9,0.526
8.28,31817.9,34632.3,-0.7944,-0.9042,149.5,96.9,0.526
8.3,31857.3,34623.5,-0.623,-0.9259,149.5,96.9,0.526
8.32,31819.8,34607.0,-0.786,-0.9665,149.5,96.9,0.526
8.34,31829.5,34522.6,-0.744,-1.1743,149.5,96.9,0.526
8.36,31652.4,34487.2,-1.5137,-1.2616,149.5,96.9,0.526
8.38,31742.0,34434.3,-1.1245,-1.3918,149.5,96.9,0.526
8.4,31773.8,34664.2,-0.9862,-0.8257,149.5,96.9,0.526
8.42,32106.2,35007.1,0.4587,0.0184,149.5,96.9,0.526
8.44,32089.2,35479.7,0.3848,1.182,149.5,96.9,0.526
8.46,32328.9,35707.9,1.4264,1.7438,149.5,96.9,0.526
8.48,32305.5,35706.7,1.3249,1.7409,149.5,96.9,0.526
8.5,32321.0,35612.7,1.3922,1.5094,149.5,96.9,0.526
8.52,32165.3,35436.0,0.7153,1.0744,149.5,96.9,0.526
8.54,32173.1,35260.9,0.7493,0.6434,149.5,96.9,0.526
8.56,32002.9,35095.8,0.0098,0.237,149.5,96.9,0.526
8.58,32030.6,35069.4,0.1302,0.172,149.5,96.9,0.526
8.6,32065.0,35055.1,0.2795,0.1367,149.5,96.9,0.526
8.62,31827.0,34918.0,-0.7548,-0.2009,149.5,96.9,0.526
8.64,31923.6,34769.9,-0.3349,-0.5655,149.5,96.9,0.526
8.66,31889.4,34765.4,-0.4837,-0.5766,149.5,96.9,0.526
8.68,31861.4,34702.0,-0.6052,-0.7327,149.5,96.9,0.526
8.7,31853.7,34649.6,-0.6389,-0.8616,149.5,96.9,0.526
8.72,31822.0,34678.9,-0.7764,-0.7896,149.5,96.9,0.526
8.74,31870.0,34573.0,-0.5681,-1.0502,149.5,96.9,0.526
8.76,31812.9,34443.7,-0.8162,-1.3687,149.5,96.9,0.526
8.78,31790.2,34476.4,-0.9148,-1.2881,149.5,96.9,0.526
8.8,31825.0,34603.9,-0.7635,-0.9742,149.5,96.9,0.526
8.82,31970.5,35067.4,-0.1311,0.1669,149.5,96.9,0.526
8.84,32202.4,35380.2,0.8765,0.9372,149.5,96.9,0.526
8.86,32215.5,35633.9,0.9335,1.5617,149.5,96.9,0.526
8.88,32300.8,35671.1,1.3044,1.6534,149.5,96.9,0.526
8.9,32399.7,35565.7,1.7339,1.3939,149.5,96.9,0.526
8.92,32264.1,35497.2,1.1447,1.2252,149.5,96.9,0.526
8.94,32153.3,35256.8,0.6633,0.6333,149.5,96.9,0.526
8.96,32134.2,35242.6,0.5802,0.5983,149.5,96.9,0.526
8.98,32038.8,35038.4,0.1657,0.0955,149.5,96.9,0.526
9.0,32009.8,35053.3,0.0396,0.1323,149.5,96.9,0.526
9.02,31929.9,35015.2,-0.3078,0.0384,149.5,96.9,0.526
9.04,31913.9,34865.2,-0.3771,-0.3308,149.5,96.9,0.526
9.06,31835.4,34670.6,-0.7184,-0.8099,149.5,96.9,0.526
9.08,31828.8,34701.9,-0.747,-0.7328,149.5,96.9,0.526
9.1,31819.8,34693.0,-0.7864,-0.7547,149.5,96.9,0.526
9.12,31758.4,34590.8,-1.053,-1.0064,149.5,96.9,0.526
9.14,31806.2,34496.0,-0.8453,-1.2397,149.5,96.9,0.526
9.16,31762.4,34494.7,-1.0358,-1.2431,149.5,96.9,0.526
9.18,31867.4,34448.7,-0.5791,-1.3564,149.5,96.9,0.526
9.2,31732.0,34518.9,-1.1678,-1.1834,149.5,96.9,0.526
9.22,31943.4,34954.3,-0.2491,-0.1114,149.5,96.9,0.526
9.24,32169.1,35494.4,0.7318,1.2182,149.5,96.9,0.526
9.26,32429.5,35716.3,1.8638,1.7645,149.5,96.9,0.526
9.28,32304.0,35819.3,1.3183,2.0181,149.5,96.9,0.526
9.3,32344.6,35627.2,1.4947,1.5452,149.5,96.9,0.526
9.32,32204.5,35416.0,0.886,1.0253,149.5,96.9,0.526
9.34,32041.5,35312.2,0.1776,0.7696,149.5,96.9,0.526
9.36,31897.4,35135.4,-0.4489,0.3343,149.5,96.9,0.526
9.38,32030.1,35066.1,0.128,0.1638,149.5,96.9,0.526
9.4,31994.6,35120.8,-0.0266,0.2984,149.5,96.9,0.526
9.42,31947.7,34836.1,-0.2305,-0.4026,149.5,96.9,0.526
9.44,31884.8,34885.8,-0.5038,-0.2802,149.5,96.9,0.526
9.46,31871.5,34735.3,-0.5613,-0.6505,149.5,96.9,0.526
9.48,31804.6,34653.0,-0.8524,-0.8534,149.5,96.9,0.526
9.5,31827.2,34676.7,-0.7542,-0.7949,149.5,96.9,0.526
9.52,31833.9,34668.4,-0.725,-0.8155,149.5,96.9,0.526
9.54,31795.4,34590.1,-0.8924,-1.0082,149.5,96.9,0.526
9.56,31642.7,34442.5,-1.556,-1.3716,149.5,96.9,0.526
9.58,31724.5,34523.1,-1.2005,-1.1732,149.5,96.9,0.526
9.6,31797.3,34669.8,-0.8841,-0.812,149.5,96.9,0.526
9.62,31986.5,34932.6,-0.0618,-0.1649,149.5,96.9,0.526
9.64,32178.8,35305.0,0.7742,0.7519,149.5,96.9,0.526
9.66,32316.0,35736.2,1.3706,1.8136,149.5,96.9,0.526
9.68,32359.0,35726.9,1.5571,1.7907,149.5,96.9,0.526
9.7,32364.3,35605.3,1.5801,1.4914,149.5,96.9,0.526
9.72,32137.4,35471.8,0.5942,1.1625,149.5,96.9,0.526
9.74,32154.6,35248.7,0.6691,0.6134,149.5,96.9,0.526
9.76,32136.1,35268.7,0.5887,0.6626,149.5,96.9,0.526
9.78,31989.1,35118.4,-0.0503,0.2926,149.5,96.9,0.526
9.8,32021.3,35007.7,0.0896,0.02,149.5,96.9,0.526
9.82,32125.6,34893.1,0.5428,-0.2622,149.5,96.9,0.526
9.84,31822.2,34877.4,-0.7758,-0.3009,149.5,96.9,0.526
9.86,31761.0,34747.4,-1.0417,-0.6208,149.5,96.9,0.526
9.88,31975.9,34633.3,-0.1079,-0.9017,149.5,96.9,0.526
9.9,31732.1,34703.8,-1.1675,-0.7281,149.5,96.9,0.526
9.92,31840.1,34611.9,-0.698,-0.9545,149.5,96.9,0.526
9.94,31744.3,34593.9,-1.1145,-0.9988,149.5,96.9,0.526
9.96,31732.7,34547.5,-1.1647,-1.113,149.5,96.9,0.526
9.98,31692.7,34443.5,-1.3387,-1.3692,149.5,96.9,0.526
10.0,31762.5,34588.1,-1.0353,-1.0131,149.5,96.9,0.526
10.02,32004.3,35001.1,0.0156,0.0037,149.5,96.9,0.526
10.04,32189.9,35308.2,0.8225,0.7598,149.5,96.9,0.526
10.06,32389.1,35664.9,1.6881,1.6379,149.5,96.9,0.526
10.08,32283.5,35713.1,1.2291,1.7566,149.5,96.9,0.526
10.1,32345.3,35604.2,1.4978,1.4886,149.5,96.9,0.526
10.12,32190.0,35494.8,0.8229,1.2193,149.5,96.9,0.526
10.14,32121.4,35347.5,0.5248,0.8566,149.5,96.9,0.526
10.16,32136.8,35225.4,0.5916,0.556,149.5,96.9,0.526
10.18,32025.4,35059.3,0.1072,0.1469,149.5,96.9,0.526
10.2,31977.6,34968.3,-0.1005,-0.0769,149.5,96.9,0.526
10.22,32062.7,34860.5,0.2694,-0.3424,149.5,96.9,0.526
10.24,31862.9,34810.8,-0.5989,-0.4648,149.5,96.9,0.526
10.26,31894.5,34665.5,-0.4616,-0.8226,149.5,96.9,0.526
10.28,31804.9,34700.8,-0.8511,-0.7356,149.5,96.9,0.526
10.3,31756.6,34717.2,-1.0607,-0.6953,149.5,96.9,0.526
10.32,31823.5,34594.9,-0.7702,-0.9962,149.5,96.9,0.526
10.34,31738.6,34590.1,-1.1389,-1.0082,149.5,96.9,0.526
10.36,31696.1,34526.7,-1.3237,-1.1642,149.5,96.9,0.526
10.38,31745.7,34394.3,-1.1084,-1.4903,149.5,96.9,0.526
10.4,31842.1,34568.7,-0.6891,-1.0609,149.5,96.9,0.526
10.42,31918.7,34864.5,-0.3565,-0.3325,149.5,96.9,0.526
10.44,32212.5,35231.5,0.9207,0.5711,149.5,96.9,0.526
10.46,32186.4,35607.5,0.8073,1.4966,149.5,96.9,0.526
10.48,32292.3,35758.1,1.2672,1.8675,149.5,96.9,0.526
10.5,32342.7,35634.3,1.4863,1.5626,149.5,96.9,0.526
10.52,32324.1,35502.9,1.4055,1.2393,149.5,96.9,0.526
10.54,32203.7,35318.8,0.8821,0.786,149.5,96.9,0.526
10.56,32200.0,35097.4,0.866,0.2407,149.5,96.9,0.526
10.58,31989.4,35098.4,-0.0492,0.2433,149.5,96.9,0.526
10.6,32055.0,35053.6,0.2362,0.1329,149.5,96.9,0.526
10.62,31967.8,34918.7,-0.1428,-0.199,149.5,96.9,0.526
10.64,31900.5,34787.0,-0.4353,-0.5235,149.5,96.9,0.526
10.66,31845.1,34725.8,-0.6762,-0.6741,149.5,96.9,0.526
10.68,31779.0,34728.3,-0.9633,-0.6678,149.5,96.9,0.526
10.7,31840.0,34718.4,-0.6984,-0.6923,149.5,96.9,0.526
10.72,31791.0,34652.8,-0.9114,-0.8537,149.5,96.9,0.526
10.74,31816.6,34566.8,-0.8002,-1.0656,149.5,96.9,0.526
10.76,31667.4,34500.2,-1.4486,-1.2294,149.5,96.9,0.526
10.78,31759.1,34396.4,-1.0499,-1.4851,149.5,96.9,0.526
10.8,31796.1,34560.5,-0.8892,-1.0809,149.5,96.9,0.526
10.82,31998.2,34857.1,-0.0108,-0.3508,149.5,96.9,0.526
10.84,32085.3,35184.1,0.3677,0.4543,149.5,96.9,0.526
10.86,32352.0,35695.4,1.5269,1.7131,149.5,96.9,0.526
10.88,32366.7,35740.6,1.5909,1.8245,149.5,96.9,0.526
10.9,32349.8,35681.4,1.5171,1.6786,149.5,96.9,0.526
10.92,32197.0,35566.1,0.8532,1.3949,149.5,96.9,0.526
10.94,32084.3,35347.0,0.3636,0.8553,149.5,96.9,0.526
10.96,32033.3,35185.0,0.1419,0.4565,149.5,96.9,0.526
10.98,32060.3,35126.1,0.259,0.3115,149.5,96.9,0.526
11.0,32007.1,35021.0,0.0277,0.0526,149.5,96.9,0.526
11.02,31964.4,34949.3,-0.1575,-0.1238,149.5,96.9,0.526
11.04,31938.4,34853.1,-0.2708,-0.3606,149.5,96.9,0.526
11.06,31902.2,34739.1,-0.428,-0.6414,149.5,96.9,0.526
11.08,31794.5,34734.7,-0.8959,-0.652,149.5,96.9,0.526
11.1,31762.7,34607.5,-1.0345,-0.9653,149.5,96.9,0.526
11.12,31823.1,34628.1,-0.7717,-0.9145,149.5,96.9,0.526
11.14,31735.4,34531.5,-1.1532,-1.1525,149.5,96.9,0.526
11.16,31836.1,34491.3,-0.7152,-1.2515,149.5,96.9,0.526
11.18,31719.3,34495.5,-1.223,-1.241,149.5,96.9,0.526
11.2,31807.4,34508.3,-0.8401,-1.2095,149.5,96.9,0.526
11.22,31883.3,34870.4,-0.5101,-0.3182,149.5,96.9,0.526
11.24,32151.4,35347.0,0.6548,0.8554,149.5,96.9,0.526
11.26,32216.8,35627.8,0.9394,1.5468,149.5,96.9,0.526
11.28,32348.3,35690.8,1.5108,1.7017,149.5,96.9,0.526
11.3,32320.6,35751.3,1.3903,1.8509,149.5,96.9,0.526
11.32,32222.3,35519.8,0.9633,1.2807,149.5,96.9,0.526
11.34,32240.1,35396.9,1.0404,0.9783,149.5,96.9,0.526
11.36,32030.7,35167.2,0.1304,0.4126,149.5,96.9,0.526
11.38,32059.0,35065.5,0.2536,0.1622,149.5,96.9,0.526
11.4,32039.3,35125.8,0.1678,0.3107,149.5,96.9,0.526
11.42,31933.5,35018.6,-0.2919,0.0468,149.5,96.9,0.526
11.44,31928.3,34883.4,-0.3144,-0.2859,149.5,96.9,0.526
11.46,31898.5,34745.7,-0.444,-0.6252,149.5,96.9,0.526
11.48,31818.8,34707.9,-0.7906,-0.7182,149.5,96.9,0.526
11.5,31804.0,34610.5,-0.855,-0.958,149.5,96.9,0.526
11.52,31817.7,34646.6,-0.7951,-0.869,149.5,96.9,0.526
11.54,31807.6,34582.0,-0.8393,-1.0282,149.5,96.9,0.526
11.56,31839.2,34517.3,-0.702,-1.1873,149.5,96.9,0.526
11.58,31672.0,34548.8,-1.4285,-1.1099,149.5,96.9,0.526
11.6,31890.5,34562.3,-0.4789,-1.0766,149.5,96.9,0.526
11.62,31851.3,34738.4,-0.6491,-0.6429,149.5,96.9,0.526
11.64,32081.8,35203.5,0.3527,0.502,149.5,96.9,0.526
11.66,32255.5,35589.6,1.1072,1.4527,149.5,96.9,0.526
11.68,32393.2,35696.0,1.7058,1.7147,149.5,96.9,0.526
11.7,32321.1,35715.6,1.3926,1.7629,149.5,96.9,0.526
11.72,32310.6,35540.5,1.347,1.3319,149.5,96.9,0.526
11.74,32207.2,35394.1,0.8976,0.9713,149.5,96.9,0.526
11.76,32063.8,35156.1,0.2745,0.3853,149.5,96.9,0.526
11.78,32063.7,35091.7,0.274,0.2269,149.5,96.9,0.526
11.8,31971.5,35195.3,-0.127,0.4818,149.5,96.9,0.526
11.82,31990.8,35067.8,-0.0428,0.1678,149.5,96.9,0.526
11.84,31888.6,34887.1,-0.4872,-0.2769,149.5,96.9,0.526
11.86,31897.4,34739.5,-0.4488,-0.6403,149.5,96.9,0.526
11.88,31842.1,34635.3,-0.6893,-0.8969,149.5,96.9,0.526
11.9,31873.9,34617.5,-0.5511,-0.9406,149.5,96.9,0.526
11.92,31709.0,34666.4,-1.2677,-0.8203,149.5,96.9,0.526
11.94,31716.7,34553.0,-1.2343,-1.0996,149.5,96.9,0.526
11.96,31808.9,34446.8,-0.8336,-1.3609,149.5,96.9,0.526
11.98,31695.3,34426.8,-1.3272,-1.4102,149.5,96.9,0.526
12.0,31848.9,34531.6,-0.6597,-1.1521,149.5,96.9,0.526
12.02,31906.3,34808.8,-0.4104,-0.4698,149.5,96.9,0.526
12.04,32074.2,35108.8,0.3194,0.2689,149.5,96.9,0.526
12.06,32262.7,35581.6,1.1388,1.4329,149.5,96.9,0.526
12.08,32319.3,35722.8,1.3847,1.7806,149.5,96.9,0.526
12.1,32338.7,35656.2,1.4689,1.6167,149.5,96.9,0.526
12.12,32290.6,35644.5,1.2599,1.5877,149.5,96.9,0.526
12.14,32118.7,35316.0,0.5129,0.7791,149.5,96.9,0.526
12.16,32011.4,35200.4,0.0465,0.4943,149.5,96.9,0.526
12.18,32121.1,35131.6,0.5235,0.3251,149.5,96.9,0.526
12.2,32049.3,34993.8,0.2111,-0.0142,149.5,96.9,0.526
12.22,32029.0,34985.1,0.1232,-0.0358,149.5,96.9,0.526
12.24,31864.4,34871.8,-0.5923,-0.3145,149.5,96.9,0.526
12.26,31813.5,34724.6,-0.8136,-0.6771,149.5,96.9,0.526
12.28,31809.0,34660.5,-0.833,-0.8349,149.5,96.9,0.526
12.3,31885.0,34642.3,-0.5028,-0.8797,149.5,96.9,0.526
12.32,31850.8,34668.7,-0.6514,-0.8147,149.5,96.9,0.526
12.34,31763.7,34623.9,-1.0299,-0.9249,149.5,96.9,0.526
12.36,31724.8,34534.9,-1.1988,-1.144,149.5,96.9,0.526
12.38,31683.1,34512.4,-1.3804,-1.1996,149.5,96.9,0.526
12.4,31841.8,34412.1,-0.6905,-1.4465,149.5,96.9,0.526
12.42,32023.8,34809.8,0.1005,-0.4673,149.5,96.9,0.526
12.44,32030.8,35200.3,0.131,0.4941,149.5,96.9,0.526
12.46,32301.3,35515.1,1.3064,1.2691,149.5,96.9,0.526
12.48,32416.2,35782.4,1.8057,1.9273,149.5,96.9,0.526
12.5,32395.8,35649.9,1.7173,1.601,149.5,96.9,0.526
12.52,32241.2,35533.7,1.0454,1.3149,149.5,96.9,0.526
12.54,32194.1,35318.7,0.8407,0.7858,149.5,96.9,0.526
12.56,32063.7,35157.4,0.2737,0.3886,149.5,96.9,0.526
12.58,32034.7,35151.6,0.1479,0.3742,149.5,96.9,0.526
12.6,32035.5,35089.4,0.1514,0.2211,149.5,96.9,0.526
12.62,31940.4,35002.4,-0.262,0.007,149.5,96.9,0.526
12.64,31943.6,34933.8,-0.2479,-0.1621,149.5,96.9,0.526
12.66,31845.7,34861.0,-0.6734,-0.3413,149.5,96.9,0.526
12.68,31784.6,34658.1,-0.9391,-0.8407,149.5,96.9,0.526
12.7,31866.0,34575.7,-0.5856,-1.0436,149.5,96.9,0.526
12.72,31818.7,34647.9,-0.7911,-0.8657,149.5,96.9,0.526
12.74,31737.1,34571.7,-1.1458,-1.0536,149.5,96.9,0.526
12.76,31795.9,34449.0,-0.8898,-1.3554,149.5,96.9,0.526
12.78,31637.3,34463.8,-1.5791,-1.3192,149.5,96.9,0.526
12.8,31755.5,34521.7,-1.0655,-1.1764,149.5,96.9,0.526
12.82,31956.3,34822.8,-0.1931,-0.4352,149.5,96.9,0.526
12.84,32167.0,35108.2,0.7229,0.2673,149.5,96.9,0.526
12.86,32286.3,35457.2,1.2414,1.1266,149.5,96.9,0.526
12.88,32312.5,35629.5,1.3551,1.551,149.5,96.9,0.526
12.9,32355.0,35806.8,1.5401,1.9875,149.5,96.9,0.526
12.92,32330.5,35539.3,1.4336,1.3287,149.5,96.9,0.526
12.94,32093.1,35416.2,0.4017,1.0258,149.5,96.9,0.526
12.96,32106.6,35160.2,0.4601,0.3953,149.5,96.9,0.526
12.98,32028.3,35142.3,0.1201,0.3515,149.5,96.9,0.526
13.0,32100.2,35137.9,0.4324,0.3405,149.5,96.9,0.526
13.02,32013.7,34923.8,0.0564,-0.1865,149.5,96.9,0.526
13.04,31967.7,34735.9,-0.1433,-0.6491,149.5,96.9,0.526
13.06,31837.1,34752.0,-0.7111,-0.6095,149.5,96.9,0.526
13.08,31873.4,34693.0,-0.5531,-0.7547,149.5,96.9,0.526
13.1,31865.2,34712.1,-0.5889,-0.7078,149.5,96.9,0.526
13.12,31853.0,34651.4,-0.6418,-0.8573,149.5,96.9,0.526
13.14,31751.6,34616.3,-1.0824,-0.9436,149.5,96.9,0.526
13.16,31818.1,34513.7,-0.7934,-1.1963,149.5,96.9,0.526
13.18,31675.2,34422.8,-1.4145,-1.42,149.5,96.9,0.526
13.2,31787.2,34593.1,-0.928,-1.0008,149.5,96.9,0.526
13.22,31817.7,34766.0,-0.7952,-0.5751,149.5,96.9,0.526
13.24,32168.1,35181.8,0.7277,0.4487,149.5,96.9,0.526
13.26,32300.0,35481.5,1.301,1.1865,149.5,96.9,0.526
13.28,32340.9,35718.3,1.4787,1.7696,149.5,96.9,0.526
13.3,32357.0,35671.7,1.5488,1.6547,149.5,96.9,0.526
13.32,32277.8,35588.8,1.2044,1.4508,149.5,96.9,0.526
13.34,32138.6,35411.3,0.5996,1.0137,149.5,96.9,0.526
13.36,32194.2,35195.7,0.8408,0.4828,149.5,96.9,0.526
13.38,32116.2,35082.6,0.502,0.2044,149.5,96.9,0.526
13.4,32019.2,35016.2,0.0804,0.041,149.5,96.9,0.526
13.42,32018.5,35035.2,0.0775,0.0876,149.5,96.9,0.526
13.44,32102.7,34878.2,0.4432,-0.2988,149.5,96.9,0.526
13.46,31905.0,34703.8,-0.4158,-0.7282,149.5,96.9,0.526
13.48,31837.9,34762.4,-0.7073,-0.5839,149.5,96.9,0.526
13.5,31900.2,34699.0,-0.4368,-0.74,149.5,96.9,0.526
13.52,31809.8,34700.4,-0.8294,-0.7366,149.5,96.9,0.526
13.54,31807.3,34651.9,-0.8404,-0.8559,149.5,96.9,0.526
13.56,31768.9,34517.3,-1.0072,-1.1874,149.5,96.9,0.526
13.58,31727.9,34397.1,-1.1854,-1.4834,149.5,96.9,0.526
13.6,31762.6,34494.5,-1.0348,-1.2435,149.5,96.9,0.526
13.62,31867.0,34783.1,-0.5809,-0.5329,149.5,96.9,0.526
13.64,32020.3,35070.2,0.0854,0.1739,149.5,96.9,0.526
13.66,32256.4,35609.8,1.1114,1.5025,149.5,96.9,0.526
13.68,32386.4,35829.0,1.6762,2.0422,149.5,96.9,0.526
13.7,32305.1,35687.2,1.323,1.6929,149.5,96.9,0.526
13.72,32338.9,35630.6,1.47,1.5535,149.5,96.9,0.526
13.74,32218.3,35394.8,0.9456,0.9731,149.5,96.9,0.526
13.76,32141.6,35285.9,0.6124,0.705,149.5,96.9,0.526
13.78,32055.0,35157.7,0.236,0.3892,149.5,96.9,0.526
13.8,32120.1,35074.0,0.5191,0.1832,149.5,96.9,0.526
13.82,31999.4,35161.0,-0.0056,0.3973,149.5,96.9,0.526
13.84,32033.9,34961.5,0.1441,-0.0936,149.5,96.9,0.526
13.86,31903.4,34771.2,-0.423,-0.5623,149.5,96.9,0.526
13.88,31861.2,34721.8,-0.6064,-0.6839,149.5,96.9,0.526
13.9,31869.5,34752.7,-0.5703,-0.6079,149.5,96.9,0.526
13.92,31701.2,34592.8,-1.3016,-1.0015,149.5,96.9,0.526
13.94,31847.4,34582.6,-0.6662,-1.0267,149.5,96.9,0.526
13.96,31769.6,34558.8,-1.0045,-1.0853,149.5,96.9,0.526
13.98,31693.7,34470.6,-1.3343,-1.3023,149.5,96.9,0.526
14.0,31822.9,34549.2,-0.7727,-1.1089,149.5,96.9,0.526
14.02,31900.7,34643.7,-0.4347,-0.8761,149.5,96.9,0.526
14.04,32080.5,35131.2,0.3469,0.3242,149.5,96.9,0.526
14.06,32261.4,35430.0,1.1332,1.0597,149.5,96.9,0.526
14.08,32250.1,35614.7,1.0839,1.5146,149.5,96.9,0.526
14.1,32297.7,35789.8,1.2907,1.9454,149.5,96.9,0.526
14.12,32284.5,35670.9,1.2333,1.6528,149.5,96.9,0.526
14.14,32128.0,35430.6,0.5532,1.0612,149.5,96.9,0.526
14.16,32012.7,35198.0,0.0521,0.4884,149.5,96.9,0.526
14.18,31965.8,35153.4,-0.1518,0.3788,149.5,96.9,0.526
14.2,32081.5,35090.7,0.351,0.2244,149.5,96.9,0.526
14.22,31981.7,35089.5,-0.0825,0.2214,149.5,96.9,0.526
14.24,31884.4,34908.5,-0.5055,-0.2241,149.5,96.9,0.526
14.26,31944.7,34798.1,-0.2432,-0.4962,149.5,96.9,0.526
14.28,31835.4,34766.0,-0.7183,-0.5751,149.5,96.9,0.526
14.3,31774.4,34664.4,-0.9834,-0.8252,149.5,96.9,0.526
14.32,31868.5,34717.5,-0.5745,-0.6944,149.5,96.9,0.526
14.34,31799.3,34579.4,-0.8752,-1.0345,149.5,96.9,0.526
14.36,31812.5,34567.9,-0.8178,-1.0627,149.5,96.9,0.526
14.38,31723.3,34426.2,-1.2057,-1.4116,149.5,96.9,0.526
14.4,31779.0,34535.8,-0.9633,-1.1418,149.5,96.9,0.526
14.42,31873.2,34644.6,-0.5542,-0.874,149.5,96.9,0.526
14.44,31939.8,35039.4,-0.2647,0.098,149.5,96.9,0.526
14.46,32233.1,35440.9,1.01,1.0867,149.5,96.9,0.526
14.48,32316.9,35722.8,1.3742,1.7807,149.5,96.9,0.526
14.5,32278.6,35739.5,1.2079,1.8216,149.5,96.9,0.526
14.52,32196.7,35624.0,0.8517,1.5373,149.5,96.9,0.526
14.54,32162.4,35362.0,0.7028,0.8924,149.5,96.9,0.526
14.56,32163.2,35328.6,0.7062,0.8102,149.5,96.9,0.526
14.58,32105.9,35139.1,0.4572,0.3436,149.5,96.9,0.526
14.6,32069.7,35131.6,0.3001,0.325,149.5,96.9,0.526
14.62,32013.1,35021.6,0.0538,0.0542,149.5,96.9,0.526
14.64,31945.7,34914.2,-0.2391,-0.2103,149.5,96.9,0.526
14.66,31939.2,34865.2,-0.2672,-0.331,149.5,96.9,0.526
14.68,31843.3,34681.0,-0.6841,-0.7844,149.5,96.9,0.526
14.7,31886.1,34697.1,-0.498,-0.7448,149.5,96.9,0.526
14.72,31930.9,34658.5,-0.3032,-0.8398,149.5,96.9,0.526
14.74,31829.8,34684.9,-0.7425,-0.7747,149.5,96.9,0.526
14.76,31771.1,34497.4,-0.9977,-1.2363,149.5,96.9,0.526
14.78,31777.0,34500.5,-0.9721,-1.2287,149.5,96.9,0.526
14.8,31692.8,34513.4,-1.3383,-1.1969,149.5,96.9,0.526
14.82,31887.8,34676.2,-0.4906,-0.7962,149.5,96.9,0.526
14.84,31966.1,34990.1,-0.1502,-0.0234,149.5,96.9,0.526
14.86,32172.6,35458.8,0.747,1.1307,149.5,96.9,0.526
14.88,32322.6,35657.6,1.3991,1.6201,149.5,96.9,0.526
14.9,32435.4,35759.6,1.8892,1.8712,149.5,96.9,0.526
14.92,32265.9,35677.9,1.1526,1.6701,149.5,96.9,0.526
14.94,32255.4,35419.9,1.107,1.0349,149.5,96.9,0.526
14.96,32147.7,35247.2,0.6388,0.6096,149.5,96.9,0.526
14.98,32094.4,35108.6,0.4074,0.2683,149.5,96.9,0.526
15.0,31965.6,35130.4,-0.1523,0.3221,149.5,96.9,0.526
15.02,31973.6,35030.2,-0.1176,0.0755,149.5,96.9,0.526
15.04,31901.9,34899.3,-0.4292,-0.247,149.5,96.9,0.526
15.06,31962.1,34761.0,-0.1678,-0.5873,149.5,96.9,0.526
15.08,31829.5,34591.3,-0.744,-1.0052,149.5,96.9,0.526
15.1,31881.1,34653.5,-0.52,-0.852,149.5,96.9,0.526
15.12,31849.0,34646.8,-0.6592,-0.8685,149.5,96.9,0.526
15.14,31757.0,34582.0,-1.0589,-1.0281,149.5,96.9,0.526
15.16,31831.0,34523.9,-0.7373,-1.1712,149.5,96.9,0.526
15.18,31723.4,34434.3,-1.2052,-1.3918,149.5,96.9,0.526
15.2,31798.7,34474.6,-0.8776,-1.2926,149.5,96.9,0.526
15.22,31804.5,34696.1,-0.8529,-0.7472,149.5,96.9,0.526
15.24,31911.8,35006.1,-0.3865,0.0161,149.5,96.9,0.526
15.26,32180.4,35385.4,0.7811,0.9499,149.5,96.9,0.526
15.28,32395.7,35746.3,1.7167,1.8385,149.5,96.9,0.526
15.3,32359.0,35733.4,1.5572,1.8067,149.5,96.9,0.526
15.32,32225.7,35648.4,0.9781,1.5974,149.5,96.9,0.526
15.34,32237.7,35501.8,1.0302,1.2366,149.5,96.9,0.526
15.36,32097.1,35264.3,0.419,0.6518,149.5,96.9,0.526
15.38,32078.2,35167.2,0.3369,0.4128,149.5,96.9,0.526
15.4,32078.8,35095.8,0.3393,0.2369,149.5,96.9,0.526
15.42,32095.3,34980.3,0.4113,-0.0475,149.5,96.9,0.526
15.44,31967.7,35076.8,-0.1434,0.1902,149.5,96.9,0.526
15.46,31971.1,34835.4,-0.1288,-0.4042,149.5,96.9,0.526
15.48,31904.3,34668.1,-0.4189,-0.8161,149.5,96.9,0.526
15.5,31900.5,34682.9,-0.4353,-0.7796,149.5,96.9,0.526
15.52,31816.6,34672.9,-0.8002,-0.8043,149.5,96.9,0.526
15.54,31841.8,34641.4,-0.6905,-0.8818,149.5,96.9,0.526
15.56,31752.6,34506.5,-1.0782,-1.2139,149.5,96.9,0.526
15.58,31704.0,34440.8,-1.2893,-1.3757,149.5,96.9,0.526
15.6,31745.7,34434.3,-1.1084,-1.3918,149.5,96.9,0.526
15.62,31907.6,34638.0,-0.4045,-0.8903,149.5,96.9,0.526
15.64,31948.6,34999.7,-0.2265,0.0003,149.5,96.9,0.526
15.66,32117.8,35331.1,0.5089,0.8162,149.5,96.9,0.526
15.68,32284.9,35668.1,1.2351,1.6458,149.5,96.9,0.526
15.7,32335.2,35713.1,1.4538,1.7567,149.5,96.9,0.526
15.72,32380.3,35667.7,1.65,1.645,149.5,96.9,0.526
15.74,32149.8,35584.9,0.648,1.441,149.5,96.9,0.526
15.76,32270.7,35094.6,1.1733,0.234,149.5,96.9,0.526
15.78,32071.4,35122.6,0.3072,0.3028,149.5,96.9,0.526
15.8,32092.0,35014.2,0.3967,0.036,149.5,96.9,0.526
15.82,32054.5,34994.5,0.2339,-0.0124,149.5,96.9,0.526
15.84,32001.1,34962.2,0.002,-0.0921,149.5,96.9,0.526
15.86,31861.5,34829.1,-0.6049,-0.4198,149.5,96.9,0.526
15.88,31837.8,34718.2,-0.7078,-0.6927,149.5,96.9,0.526
15.9,31762.1,34684.5,-1.0369,-0.7758,149.5,96.9,0.526
15.92,31828.5,34648.8,-0.7482,-0.8635,149.5,96.9,0.526
15.94,31875.8,34637.0,-0.5427,-0.8926,149.5,96.9,0.526
15.96,31695.8,34514.0,-1.325,-1.1955,149.5,96.9,0.526
15.98,31718.9,34477.0,-1.2245,-1.2865,149.5,96.9,0.526
16.0,31714.0,34397.1,-1.2459,-1.4834,149.5,96.9,0.526
16.02,31902.4,34593.7,-0.427,-0.9994,149.5,96.9,0.526
16.04,31998.8,35021.1,-0.0083,0.0529,149.5,96.9,0.526
16.06,32180.0,35307.3,0.7791,0.7577,149.5,96.9,0.526
16.08,32232.4,35616.0,1.0069,1.5177,149.5,96.9,0.526
16.1,32323.2,35757.2,1.4018,1.8652,149.5,96.9,0.526
16.12,32358.1,35670.5,1.5535,1.6518,149.5,96.9,0.526
16.14,32231.7,35413.9,1.0041,1.0201,149.5,96.9,0.526
16.16,31992.5,35263.6,-0.0355,0.6501,149.5,96.9,0.526
16.18,31993.8,35152.2,-0.03,0.3758,149.5,96.9,0.526
16.2,32118.4,35081.9,0.5117,0.2026,149.5,96.9,0.526
16.22,32040.9,35070.3,0.1749,0.1741,149.5,96.9,0.526
16.24,31900.9,34982.3,-0.4335,-0.0426,149.5,96.9,0.526
16.26,31902.5,34801.6,-0.4268,-0.4875,149.5,96.9,0.526
16.28,31871.7,34776.2,-0.5608,-0.5501,149.5,96.9,0.526
16.3,31806.4,34731.1,-0.8443,-0.6611,149.5,96.9,0.526
16.32,31851.1,34631.0,-0.65,-0.9075,149.5,96.9,0.526
16.34,31750.4,34681.4,-1.0877,-0.7834,149.5,96.9,0.526
16.36,31725.3,34603.0,-1.1968,-0.9763,149.5,96.9,0.526
16.38,31722.1,34456.2,-1.2107,-1.3378,149.5,96.9,0.526
16.4,31778.6,34431.3,-0.9652,-1.3991,149.5,96.9,0.526
16.42,31741.2,34740.7,-1.1278,-0.6375,149.5,96.9,0.526
16.44,32004.9,35021.2,0.0184,0.0533,149.5,96.9,0.526
16.46,32183.7,35367.7,0.7956,0.9063,149.5,96.9,0.526
16.48,32179.0,35627.3,0.7751,1.5455,149.5,96.9,0.526
16.5,32359.1,35725.1,1.5576,1.7863,149.5,96.9,0.526
16.52,32337.8,35717.1,1.4651,1.7665,149.5,96.9,0.526
16.54,32170.2,35484.1,0.7369,1.1929,149.5,96.9,0.526
16.56,32046.3,35260.1,0.1981,0.6415,149.5,96.9,0.526
16.58,32079.0,35107.6,0.3405,0.2659,149.5,96.9,0.526
16.6,32048.1,35081.4,0.206,0.2014,149.5,96.9,0.526
16.62,32071.0,34994.3,0.3057,-0.013,149.5,96.9,0.526
16.64,31914.6,34925.2,-0.3744,-0.1831,149.5,96.9,0.526
16.66,31860.9,34847.7,-0.6077,-0.3739,149.5,96.9,0.526
16.68,31832.7,34781.7,-0.7299,-0.5365,149.5,96.9,0.526
16.7,31797.7,34750.7,-0.8822,-0.6129,149.5,96.9,0.526
16.72,31815.9,34661.2,-0.8032,-0.8331,149.5,96.9,0.526
16.74,31843.1,34658.9,-0.6849,-0.8389,149.5,96.9,0.526
16.76,31832.8,34591.6,-0.7297,-1.0044,149.5,96.9,0.526
16.78,31761.6,34528.9,-1.039,-1.1588,149.5,96.9,0.526
16.8,31735.8,34476.5,-1.1513,-1.2879,149.5,96.9,0.526
16.82,31785.7,34578.2,-0.9345,-1.0375,149.5,96.9,0.526
16.84,31963.6,34892.0,-0.1613,-0.2648,149.5,96.9,0.526
16.86,32117.5,35287.3,0.5077,0.7085,149.5,96.9,0.526
16.88,32264.5,35688.6,1.1464,1.6965,149.5,96.9,0.526
16.9,32330.5,35730.2,1.4333,1.7987,149.5,96.9,0.526
16.92,32303.9,35709.1,1.318,1.7468,149.5,96.9,0.526
16.94,32200.5,35447.8,0.8686,1.1036,149.5,96.9,0.526
16.96,32169.2,35295.8,0.7324,0.7294,149.5,96.9,0.526
16.98,32090.6,35151.6,0.3906,0.3742,149.5,96.9,0.526
17.0,32037.8,35089.6,0.1612,0.2216,149.5,96.9,0.526
17.02,31938.2,35081.0,-0.2718,0.2006,149.5,96.9,0.526
17.04,31981.5,34876.4,-0.0834,-0.3032,149.5,96.9,0.526
17.06,32008.4,34745.4,0.0334,-0.6258,149.5,96.9,0.526
17.08,31940.7,34726.2,-0.2605,-0.6731,149.5,96.9,0.526
17.1,31884.6,34654.9,-0.5045,-0.8487,149.5,96.9,0.526
17.12,31757.0,34580.8,-1.0591,-1.0311,149.5,96.9,0.526
17.14,31779.8,34590.2,-0.9602,-1.0078,149.5,96.9,0.526
17.16,31775.0,34613.6,-0.981,-0.9504,149.5,96.9,0.526
17.18,31744.1,34449.6,-1.1151,-1.3542,149.5,96.9,0.526
17.2,31803.8,34454.0,-0.8558,-1.3432,149.5,96.9,0.526
17.22,31788.8,34554.0,-0.9211,-1.0971,149.5,96.9,0.526
17.24,32016.1,34880.6,0.067,-0.2929,149.5,96.9,0.526
17.26,32178.9,35265.3,0.7743,0.6543,149.5,96.9,0.526
17.28,32273.7,35675.6,1.1867,1.6644,149.5,96.9,0.526
17.3,32357.9,35711.5,1.5523,1.7527,149.5,96.9,0.526
17.32,32284.9,35691.6,1.2352,1.7039,149.5,96.9,0.526
17.34,32227.0,35524.6,0.9835,1.2927,149.5,96.9,0.526
17.36,32162.5,35258.8,0.7031,0.6383,149.5,96.9,0.526
17.38,32000.5,35170.5,-0.0007,0.4208,149.5,96.9,0.526
17.4,32097.0,35092.4,0.4184,0.2286,149.5,96.9,0.526
17.42,32076.3,35117.5,0.3288,0.2904,149.5,96.9,0.526
17.44,31949.6,34959.1,-0.2218,-0.0998,149.5,96.9,0.526
17.46,31971.7,34821.4,-0.1259,-0.4387,149.5,96.9,0.526
17.48,31889.1,34705.2,-0.4849,-0.7247,149.5,96.9,0.526
17.5,31908.7,34667.2,-0.3998,-0.8184,149.5,96.9,0.526
17.52,31824.8,34643.8,-0.7642,-0.876,149.5,96.9,0.526
17.54,31815.6,34657.5,-0.8045,-0.8422,149.5,96.9,0.526
17.56,31778.0,34515.8,-0.9676,-1.1912,149.5,96.9,0.526
17.58,31741.2,34357.4,-1.1276,-1.5812,149.5,96.9,0.526
17.6,31760.8,34458.0,-1.0424,-1.3335,149.5,96.9,0.526
17.62,31806.6,34612.5,-0.8437,-0.9529,149.5,96.9,0.526
17.64,31955.1,34940.6,-0.1981,-0.1453,149.5,96.9,0.526
17.66,32178.7,35266.7,0.7738,0.6576,149.5,96.9,0.526
17.68,32288.3,35613.6,1.2499,1.5117,149.5,96.9,0.526
17.7,32325.9,35800.4,1.4133,1.9716,149.5,96.9,0.526
17.72,32371.2,35690.9,1.6104,1.7022,149.5,96.9,0.526
17.74,32248.5,35472.7,1.0771,1.165,149.5,96.9,0.526
17.76,32191.7,35341.8,0.83,0.8425,149.5,96.9,0.526
17.78,32092.9,35265.7,0.4006,0.6552,149.5,96.9,0.526
17.8,32070.8,35101.5,0.3045,0.251,149.5,96.9,0.526
17.82,31979.5,35117.2,-0.0919,0.2895,149.5,96.9,0.526
17.84,31973.4,34981.2,-0.1187,-0.0453,149.5,96.9,0.526
17.86,31960.0,34877.1,-0.1769,-0.3016,149.5,96.9,0.526
17.88,31927.9,34707.6,-0.3165,-0.7188,149.5,96.9,0.526
17.9,31851.0,34712.5,-0.6506,-0.7067,149.5,96.9,0.526
17.92,31865.6,34695.0,-0.5872,-0.7499,149.5,96.9,0.526
17.94,31858.2,34515.1,-0.6191,-1.1929,149.5,96.9,0.526
17.96,31831.8,34556.0,-0.734,-1.0921,149.5,96.9,0.526
17.98,31764.3,34533.5,-1.0273,-1.1476,149.5,96.9,0.526
18.0,31805.9,34507.4,-0.8467,-1.2118,149.5,96.9,0.526
18.02,31687.0,34554.3,-1.3633,-1.0963,149.5,96.9,0.526
18.04,31931.5,34839.8,-0.3008,-0.3933,149.5,96.9,0.526
18.06,32227.0,35166.6,0.9835,0.4113,149.5,96.9,0.526
18.08,32300.4,35555.8,1.3027,1.3694,149.5,96.9,0.526
18.1,32385.9,35828.2,1.674,2.0401,149.5,96.9,0.526
18.12,32438.9,35686.5,1.9046,1.6913,149.5,96.9,0.526
18.14,32273.1,35520.2,1.184,1.2819,149.5,96.9,0.526
18.16,32091.4,35419.6,0.3944,1.0341,149.5,96.9,0.526
18.18,32104.9,35251.7,0.4528,0.6207,149.5,96.9,0.526
18.2,32033.1,35113.3,0.141,0.28,149.5,96.9,0.526
18.22,31960.0,35057.2,-0.1767,0.1418,149.5,96.9,0.526
18.24,32042.4,35008.2,0.1812,0.0213,149.5,96.9,0.526
18.26,31801.9,34920.4,-0.864,-0.1951,149.5,96.9,0.526
18.28,31876.0,34754.6,-0.5418,-0.6033,149.5,96.9,0.526
18.3,31798.3,34793.4,-0.8795,-0.5077,149.5,96.9,0.526
18.32,31779.9,34665.4,-0.9595,-0.8228,149.5,96.9,0.526
18.34,31772.9,34674.4,-0.99,-0.8005,149.5,96.9,0.526
18.36,31801.3,34535.8,-0.8667,-1.1418,149.5,96.9,0.526
18.38,31748.3,34464.9,-1.0968,-1.3165,149.5,96.9,0.526
18.4,31704.1,34379.7,-1.289,-1.5261,149.5,96.9,0.526
18.42,31826.8,34524.9,-0.7558,-1.1688,149.5,96.9,0.526
18.44,31857.4,34761.5,-0.623,-0.5863,149.5,96.9,0.526
18.46,32237.4,35186.4,1.029,0.46,149.5,96.9,0.526
18.48,32247.1,35623.2,1.0707,1.5353,149.5,96.9,0.526
18.5,32338.5,35718.6,1.4681,1.7701,149.5,96.9,0.526
18.52,32429.4,35706.8,1.8631,1.7411,149.5,96.9,0.526
18.54,32258.1,35532.4,1.1187,1.3119,149.5,96.9,0.526
18.56,32167.3,35284.8,0.7243,0.7023,149.5,96.9,0.526
18.58,32182.7,35173.0,0.7912,0.427,149.5,96.9,0.526
18.6,32063.7,35122.3,0.2741,0.302,149.5,96.9,0.526
18.62,32037.1,35163.6,0.1581,0.4039,149.5,96.9,0.526
18.64,31983.2,35052.6,-0.0759,0.1306,149.5,96.9,0.526
18.66,31924.4,34887.9,-0.3316,-0.2749,149.5,96.9,0.526
18.68,31920.0,34827.1,-0.3506,-0.4247,149.5,96.9,0.526
18.7,31809.9,34617.1,-0.829,-0.9417,149.5,96.9,0.526
18.72,31861.7,34617.7,-0.6042,-0.9402,149.5,96.9,0.526
18.74,31863.4,34628.2,-0.5969,-0.9143,149.5,96.9,0.526
18.76,31768.0,34529.5,-1.0114,-1.1573,149.5,96.9,0.526
18.78,31691.6,34536.3,-1.3432,-1.1407,149.5,96.9,0.526
18.8,31786.8,34447.1,-0.9296,-1.3603,149.5,96.9,0.526
18.82,31724.6,34533.8,-1.1997,-1.1468,149.5,96.9,0.526
18.84,31788.8,34685.3,-0.921,-0.7737,149.5,96.9,0.526
18.86,32059.9,35102.1,0.2575,0.2524,149.5,96.9,0.526
18.88,32161.9,35577.4,0.7007,1.4226,149.5,96.9,0.526
18.9,32361.4,35736.8,1.5675,1.8151,149.5,96.9,0.526
18.92,32334.9,35774.5,1.4524,1.908,149.5,96.9,0.526
18.94,32201.9,35477.9,0.8743,1.1775,149.5,96.9,0.526
18.96,32199.4,35321.1,0.8638,0.7916,149.5,96.9,0.526
18.98,32082.9,35165.6,0.3572,0.4088,149.5,96.9,0.526
19.0,32092.6,35124.1,0.3994,0.3066,149.5,96.9,0.526
19.02,32094.8,35077.0,0.4089,0.1905,149.5,96.9,0.526
19.04,32002.9,34947.3,0.0097,-0.1287,149.5,96.9,0.526
19.06,31900.9,34870.2,-0.4339,-0.3186,149.5,96.9,0.526
19.08,31943.8,34804.1,-0.2474,-0.4813,149.5,96.9,0.526
19.1,31818.9,34815.0,-0.79,-0.4545,149.5,96.9,0.526
19.12,31820.1,34671.3,-0.7848,-0.8083,149.5,96.9,0.526
19.14,31861.2,34606.7,-0.6061,-0.9672,149.5,96.9,0.526
19.16,31787.5,34532.2,-0.9266,-1.1506,149.5,96.9,0.526
19.18,31735.7,34397.1,-1.1517,-1.4833,149.5,96.9,0.526
19.2,31685.9,34343.5,-1.368,-1.6154,149.5,96.9,0.526
19.22,31837.2,34509.3,-0.7107,-1.2071,149.5,96.9,0.526
19.24,31925.8,34749.4,-0.3256,-0.6159,149.5,96.9,0.526
19.26,32040.2,35102.0,0.1718,0.2521,149.5,96.9,0.526
19.28,32241.7,35482.2,1.0476,1.1881,149.5,96.9,0.526
19.3,32400.0,35788.5,1.7356,1.9423,149.5,96.9,0.526
19.32,32284.7,35769.9,1.2343,1.8967,149.5,96.9,0.526
19.34,32280.6,35501.3,1.2164,1.2352,149.5,96.9,0.526
19.36,32122.7,35388.6,0.5301,0.9578,149.5,96.9,0.526
19.38,32167.9,35191.4,0.7267,0.4723,149.5,96.9,0.526
19.4,32110.4,35060.9,0.4769,0.1509,149.5,96.9,0.526
19.42,32129.8,35100.2,0.561,0.2477,149.5,96.9,0.526
19.44,31978.1,35050.6,-0.0981,0.1257,149.5,96.9,0.526
19.46,31933.9,34899.9,-0.2904,-0.2455,149.5,96.9,0.526
19.48,31940.5,34700.2,-0.2618,-0.7371,149.5,96.9,0.526
19.5,31937.7,34752.6,-0.2736,-0.6081,149.5,96.9,0.526
19.52,31842.5,34640.4,-0.6876,-0.8844,149.5,96.9,0.526
19.54,31878.9,34724.2,-0.5294,-0.678,149.5,96.9,0.526
19.56,31850.4,34483.4,-0.6533,-1.2709,149.5,96.9,0.526
19.58,31721.5,34485.0,-1.2136,-1.267,149.5,96.9,0.526
19.6,31764.6,34425.3,-1.0263,-1.414,149.5,96.9,0.526
19.62,31763.2,34495.8,-1.0321,-1.2402,149.5,96.9,0.526
19.64,31902.5,34794.6,-0.4266,-0.5046,149.5,96.9,0.526
19.66,32025.6,35145.0,0.1081,0.3581,149.5,96.9,0.526
19.68,32184.7,35560.1,0.7997,1.38,149.5,96.9,0.526
19.7,32340.0,35680.1,1.4748,1.6754,149.5,96.9,0.526
19.72,32339.4,35742.8,1.4722,1.8299,149.5,96.9,0.526
19.74,32325.5,35578.6,1.4116,1.4257,149.5,96.9,0.526
19.76,32171.7,35450.5,0.743,1.1101,149.5,96.9,0.526
19.78,32118.2,35055.0,0.5105,0.1366,149.5,96.9,0.526
19.8,32035.7,35124.4,0.152,0.3072,149.5,96.9,0.526
19.82,32060.9,35054.1,0.2617,0.1342,149.5,96.9,0.526
19.84,32037.9,35022.8,0.1618,0.0572,149.5,96.9,0.526
19.86,31935.7,34852.4,-0.2825,-0.3623,149.5,96.9,0.526
19.88,31887.2,34769.5,-0.4933,-0.5664,149.5,96.9,0.526
19.9,31779.0,34665.5,-0.9635,-0.8225,149.5,96.9,0.526
19.92,31823.8,34674.2,-0.7686,-0.8011,149.5,96.9,0.526
19.94,31840.9,34729.6,-0.6943,-0.6646,149.5,96.9,0.526
19.96,31750.1,34602.4,-1.089,-0.9779,149.5,96.9,0.526
19.98,31649.7,34466.6,-1.5256,-1.3122,149.5,96.9,0.526
20.0,31742.5,34432.0,-1.1223,-1.3974,149.5,96.9,0.526
20.02,31709.0,34560.5,-1.2678,-1.0811,149.5,96.9,0.526
20.04,31871.8,34707.7,-0.56,-0.7186,149.5,96.9,0.526
20.06,32071.1,35114.7,0.3061,0.2834,149.5,96.9,0.526
20.08,32201.1,35543.3,0.871,1.3387,149.5,96.9,0.526
20.1,32382.9,35751.2,1.6612,1.8504,149.5,96.9,0.526
20.12,32319.0,35708.7,1.3836,1.746,149.5,96.9,0.526
20.14,32259.3,35530.0,1.1239,1.3058,149.5,96.9,0.526
20.16,32188.7,35359.0,0.8171,0.8848,149.5,96.9,0.526
20.18,32128.9,35201.0,0.5572,0.4959,149.5,96.9,0.526
20.2,32094.7,35050.6,0.4087,0.1256,149.5,96.9,0.526
20.22,32008.2,35005.6,0.0328,0.0148,149.5,96.9,0.526
20.24,32075.4,34975.3,0.3247,-0.0599,149.5,96.9,0.526
20.26,31984.9,34864.1,-0.0686,-0.3336,149.5,96.9,0.526
20.28,31803.7,34748.5,-0.8559,-0.6183,149.5,96.9,0.526
20.3,31892.0,34764.6,-0.4725,-0.5785,149.5,96.9,0.526
20.32,31750.3,34681.0,-1.0883,-0.7843,149.5,96.9,0.526
20.34,31843.3,34677.7,-0.6839,-0.7925,149.5,96.9,0.526
20.36,31768.4,34605.9,-1.0098,-0.9691,149.5,96.9,0.526
20.38,31706.1,34446.9,-1.2802,-1.3608,149.5,96.9,0.526
20.4,31723.6,34536.2,-1.2044,-1.141,149.5,96.9,0.526
20.42,31735.7,34411.2,-1.1516,-1.4487,149.5,96.9,0.526
20.44,31851.4,34702.2,-0.6487,-0.7321,149.5,96.9,0.526
20.46,32053.6,35098.7,0.2301,0.2439,149.5,96.9,0.526
20.48,32217.5,35442.8,0.9423,1.0911,149.5,96.9,0.526
20.5,32293.2,35702.9,1.2712,1.7316,149.5,96.9,0.526
20.52,32349.0,35719.8,1.5139,1.7732,149.5,96.9,0.526
20.54,32374.9,35604.9,1.6262,1.4902,149.5,96.9,0.526
20.56,32148.9,35335.0,0.6442,0.8259,149.5,96.9,0.526
20.58,32140.4,35248.3,0.6072,0.6125,149.5,96.9,0.526
20.6,32077.5,35071.2,0.3339,0.1764,149.5,96.9,0.526
20.62,32075.5,35105.8,0.3253,0.2614,149.5,96.9,0.526
20.64,32048.2,35019.0,0.2063,0.0479,149.5,96.9,0.526
20.66,31982.3,34954.1,-0.0799,-0.1119,149.5,96.9,0.526
20.68,31883.3,34766.6,-0.5103,-0.5737,149.5,96.9,0.526
20.7,31943.4,34693.1,-0.2489,-0.7546,149.5,96.9,0.526
20.72,31864.5,34662.5,-0.592,-0.83,149.5,96.9,0.526
20.74,31827.9,34664.7,-0.751,-0.8244,149.5,96.9,0.526
20.76,31763.8,34640.1,-1.0296,-0.8849,149.5,96.9,0.526
20.78,31844.2,34501.0,-0.6803,-1.2274,149.5,96.9,0.526
20.8,31650.8,34456.9,-1.5205,-1.3361,149.5,96.9,0.526
20.82,31780.3,34452.3,-0.9579,-1.3475,149.5,96.9,0.526
20.84,31893.0,34630.4,-0.4681,-0.9088,149.5,96.9,0.526
20.86,32009.7,35081.5,0.0391,0.2016,149.5,96.9,0.526
20.88,32264.9,35423.0,1.1483,1.0425,149.5,96.9,0.526
20.9,32237.8,35647.6,1.0305,1.5953,149.5,96.9,0.526
20.92,32336.7,35741.6,1.4605,1.8269,149.5,96.9,0.526
20.94,32361.5,35576.7,1.568,1.4209,149.5,96.9,0.526
20.96,32195.5,35387.9,0.8468,0.9562,149.5,96.9,0.526
20.98,32156.0,35224.1,0.6752,0.5528,149.5,96.9,0.526
21.0,32140.6,35119.0,0.6081,0.294,149.5,96.9,0.526
21.02,32041.9,35050.4,0.1791,0.1251,149.5,96.9,0.526
21.04,32075.6,35026.9,0.3254,0.0673,149.5,96.9,0.526
21.06,31883.6,34957.8,-0.5091,-0.1028,149.5,96.9,0.526
21.08,31940.1,34857.8,-0.2635,-0.3492,149.5,96.9,0.526
21.1,31873.4,34641.4,-0.5534,-0.8818,149.5,96.9,0.526
21.12,31854.9,34688.5,-0.6337,-0.766,149.5,96.9,0.526
21.14,31897.7,34625.2,-0.4477,-0.9218,149.5,96.9,0.526
21.16,31768.9,34611.2,-1.0076,-0.9563,149.5,96.9,0.526
21.18,31863.8,34509.6,-0.5948,-1.2064,149.5,96.9,0.526
21.2,31703.8,34386.4,-1.2903,-1.5097,149.5,96.9,0.526
21.22,31794.4,34528.5,-0.8967,-1.1598,149.5,96.9,0.526
21.24,31943.8,34651.0,-0.2472,-0.8583,149.5,96.9,0.526
21.26,32014.2,35042.7,0.0587,0.1062,149.5,96.9,0.526
21.28,32273.1,35387.5,1.184,0.955,149.5,96.9,0.526
21.3,32401.7,35668.7,1.7427,1.6474,149.5,96.9,0.526
21.32,32364.9,35840.7,1.5831,2.0708,149.5,96.9,0.526
21.34,32307.8,35615.5,1.3346,1.5163,149.5,96.9,0.526
21.36,32225.2,35446.6,0.9756,1.1006,149.5,96.9,0.526
21.38,32213.1,35273.6,0.9231,0.6747,149.5,96.9,0.526
21.4,32016.9,35157.6,0.0704,0.3892,149.5,96.9,0.526
21.42,32104.9,35076.3,0.4528,0.1888,149.5,96.9,0.526
21.44,31902.3,35053.4,-0.4277,0.1324,149.5,96.9,0.526
21.46,31950.2,34939.0,-0.2194,-0.1491,149.5,96.9,0.526
21.48,31898.1,34798.8,-0.4457,-0.4943,149.5,96.9,0.526
21.5,31863.7,34725.1,-0.5952,-0.6758,149.5,96.9,0.526
21.52,31832.0,34624.5,-0.7331,-0.9236,149.5,96.9,0.526
21.54,31810.1,34643.9,-0.8282,-0.8757,149.5,96.9,0.526
21.56,31827.2,34677.5,-0.754,-0.793,149.5,96.9,0.526
21.58,31798.4,34529.5,-0.8792,-1.1573,149.5,96.9,0.526
21.6,31801.7,34557.5,-0.8648,-1.0884,149.5,96.9,0.526
21.62,31786.2,34429.5,-0.9322,-1.4035,149.5,96.9,0.526
21.64,31801.6,34738.6,-0.8652,-0.6425,149.5,96.9,0.526
21.66,32038.8,34981.1,0.1658,-0.0454,149.5,96.9,0.526
21.68,32233.0,35411.4,1.0098,1.014,149.5,96.9,0.526
21.7,32309.3,35671.5,1.3413,1.6543,149.5,96.9,0.526
21.72,32368.9,35777.5,1.6004,1.9153,149.5,96.9,0.526
21.74,32319.8,35662.0,1.3869,1.6309,149.5,96.9,0.526
21.76,32251.5,35438.6,1.0903,1.0809,149.5,96.9,0.526
21.78,32109.4,35316.2,0.4724,0.7796,149.5,96.9,0.526
21.8,32069.0,35094.5,0.2969,0.2337,149.5,96.9,0.526
21.82,32025.2,35115.0,0.1063,0.2841,149.5,96.9,0.526
21.84,31989.4,35020.1,-0.049,0.0506,149.5,96.9,0.526
21.86,31952.5,34938.9,-0.2092,-0.1494,149.5,96.9,0.526
21.88,31915.1,34900.9,-0.372,-0.243,149.5,96.9,0.526
21.9,31874.4,34660.1,-0.5487,-0.8358,149.5,96.9,0.526
21.92,31829.1,34698.6,-0.7456,-0.7411,149.5,96.9,0.526
21.94,31711.2,34786.1,-1.258,-0.5256,149.5,96.9,0.526
21.96,31790.6,34555.4,-0.9132,-1.0937,149.5,96.9,0.526
21.98,31779.8,34455.3,-0.96,-1.3399,149.5,96.9,0.526
22.0,31617.2,34399.7,-1.6669,-1.4769,149.5,96.9,0.526
22.02,31724.3,34536.3,-1.2013,-1.1407,149.5,96.9,0.526
22.04,31796.1,34705.6,-0.8893,-0.7238,149.5,96.9,0.526
22.06,31988.5,34894.2,-0.0532,-0.2595,149.5,96.9,0.526
22.08,32130.2,35347.7,0.5628,0.8571,149.5,96.9,0.526
22.1,32260.9,35755.1,1.1307,1.86,149.5,96.9,0.526
22.12,32298.0,35660.4,1.292,1.627,149.5,96.9,0.526
22.14,32338.0,35696.4,1.4662,1.7156,149.5,96.9,0.526
22.16,32187.8,35373.7,0.8131,0.921,149.5,96.9,0.526
22.18,32185.2,35238.0,0.8017,0.5869,149.5,96.9,0.526
22.2,32056.5,35038.0,0.2427,0.0946,149.5,96.9,0.526
22.22,32050.6,35124.7,0.2169,0.3081,149.5,96.9,0.526
22.24,32031.0,35074.3,0.1316,0.1839,149.5,96.9,0.526
22.26,31974.9,34883.9,-0.112,-0.2848,149.5,96.9,0.526
22.28,31898.9,34847.2,-0.4424,-0.3753,149.5,96.9,0.526
22.3,31839.5,34709.9,-0.7006,-0.7132,149.5,96.9,0.526
22.32,31766.8,34663.8,-1.0165,-0.8268,149.5,96.9,0.526
22.34,31817.8,34709.6,-0.7949,-0.714,149.5,96.9,0.526
22.36,31782.9,34621.1,-0.9465,-0.9318,149.5,96.9,0.526
22.38,31736.5,34515.2,-1.1481,-1.1925,149.5,96.9,0.526
22.4,31732.4,34488.1,-1.1659,-1.2592,149.5,96.9,0.526
22.42,31719.9,34573.8,-1.2201,-1.0483,149.5,96.9,0.526
22.44,31793.0,34565.6,-0.9027,-1.0686,149.5,96.9,0.526
22.46,31952.1,35005.0,-0.2114,0.0133,149.5,96.9,0.526
22.48,32027.6,35275.4,0.117,0.679,149.5,96.9,0.526
22.5,32393.8,35689.1,1.7085,1.6977,149.5,96.9,0.526
22.52,32343.6,35801.1,1.4904,1.9734,149.5,96.9,0.526
22.54,32353.1,35658.5,1.5315,1.6222,149.5,96.9,0.526
22.56,32239.9,35443.2,1.0398,1.0923,149.5,96.9,0.526
22.58,32132.8,35262.7,0.5743,0.6478,149.5,96.9,0.526
22.6,32115.7,35108.3,0.4998,0.2678,149.5,96.9,0.526
22.62,32035.2,35074.7,0.15,0.1848,149.5,96.9,0.526
22.64,32091.1,35046.2,0.3931,0.1148,149.5,96.9,0.526
22.66,31942.7,34905.9,-0.2521,-0.2307,149.5,96.9,0.526
22.68,31914.8,34789.7,-0.3732,-0.5166,149.5,96.9,0.526
22.7,31853.1,34733.5,-0.6415,-0.6551,149.5,96.9,0.526
22.72,31799.7,34682.2,-0.8736,-0.7814,149.5,96.9,0.526
22.74,31786.1,34708.3,-0.9327,-0.717,149.5,96.9,0.526
22.76,31844.6,34515.4,-0.6783,-1.192,149.5,96.9,0.526
22.78,31881.5,34561.3,-0.5181,-1.079,149.5,96.9,0.526
22.8,31747.4,34462.3,-1.1009,-1.3228,149.5,96.9,0.526
22.82,31743.1,34575.2,-1.1197,-1.0447,149.5,96.9,0.526
22.84,31934.3,34714.6,-0.2885,-0.7017,149.5,96.9,0.526
22.86,31947.5,34896.1,-0.2311,-0.2548,149.5,96.9,0.526
22.88,32084.8,35366.0,0.3654,0.9022,149.5,96.9,0.526
22.9,32448.1,35716.6,1.9444,1.7654,149.5,96.9,0.526
22.92,32346.0,35787.7,1.5006,1.9405,149.5,96.9,0.526
22.94,32331.3,35647.4,1.4368,1.5949,149.5,96.9,0.526
22.96,32286.9,35500.0,1.2439,1.2321,149.5,96.9,0.526
22.98,32125.0,35244.6,0.5402,0.6033,149.5,96.9,0.526
23.0,32163.5,35157.9,0.7077,0.3898,149.5,96.9,0.526
23.02,32058.1,35119.3,0.2497,0.2948,149.5,96.9,0.526
23.04,32001.5,35029.4,0.0037,0.0734,149.5,96.9,0.526
23.06,31972.3,34952.1,-0.1234,-0.1169,149.5,96.9,0.526
23.08,31911.1,34881.4,-0.3895,-0.2911,149.5,96.9,0.526
23.1,31928.7,34758.3,-0.313,-0.594,149.5,96.9,0.526
23.12,31887.5,34693.3,-0.4921,-0.754,149.5,96.9,0.526
23.14,31861.8,34741.9,-0.6037,-0.6344,149.5,96.9,0.526
23.16,31828.2,34657.7,-0.7497,-0.8418,149.5,96.9,0.526
23.18,31759.9,34507.4,-1.0467,-1.2117,149.5,96.9,0.526
23.2,31721.8,34505.3,-1.212,-1.217,149.5,96.9,0.526
23.22,31709.5,34449.3,-1.2654,-1.3549,149.5,96.9,0.526
23.24,31767.5,34603.2,-1.0135,-0.9759,149.5,96.9,0.526
23.26,32005.1,34882.1,0.0192,-0.2892,149.5,96.9,0.526
23.28,32161.1,35249.8,0.6973,0.6161,149.5,96.9,0.526
23.3,32306.0,35642.5,1.3271,1.583,149.5,96.9,0.526
23.32,32289.5,35718.8,1.2552,1.7707,149.5,96.9,0.526
23.34,32435.6,35622.1,1.89,1.5327,149.5,96.9,0.526
23.36,32222.8,35543.5,0.9655,1.3392,149.5,96.9,0.526
23.38,32029.5,35319.3,0.1253,0.7871,149.5,96.9,0.526
23.4,32102.9,35145.1,0.4443,0.3583,149.5,96.9,0.526
23.42,31984.0,35044.1,-0.0726,0.1097,149.5,96.9,0.526
23.44,32006.7,34994.2,0.0263,-0.0132,149.5,96.9,0.526
23.46,32009.9,35009.1,0.0401,0.0234,149.5,96.9,0.526
23.48,31907.5,34862.7,-0.405,-0.3369,149.5,96.9,0.526
23.5,31962.3,34695.4,-0.1667,-0.7489,149.5,96.9,0.526
23.52,31854.1,34686.7,-0.6371,-0.7702,149.5,96.9,0.526
23.54,31805.8,34694.4,-0.847,-0.7513,149.5,96.9,0.526
23.56,31773.5,34669.6,-0.9875,-0.8124,149.5,96.9,0.526
23.58,31816.5,34612.5,-0.8004,-0.9531,149.5,96.9,0.526
23.6,31761.8,34456.6,-1.0381,-1.3369,149.5,96.9,0.526
23.62,31688.9,34561.8,-1.355,-1.0779,149.5,96.9,0.526
23.64,31740.1,34475.2,-1.1324,-1.291,149.5,96.9,0.526
23.66,31921.7,34898.4,-0.3433,-0.249,149.5,96.9,0.526
23.68,32089.8,35218.6,0.3872,0.5392,149.5,96.9,0.526
23.7,32289.0,35653.5,1.2532,1.61,149.5,96.9,0.526
23.72,32332.6,35761.5,1.4425,1.8759,149.5,96.9,0.526
23.74,32419.7,35661.0,1.8209,1.6284,149.5,96.9,0.526
23.76,32251.9,35524.0,1.0916,1.2912,149.5,96.9,0.526
23.78,32077.4,35338.6,0.3335,0.8347,149.5,96.9,0.526
23.8,32077.8,35252.2,0.335,0.622,149.5,96.9,0.526
23.82,32079.2,35129.7,0.3411,0.3203,149.5,96.9,0.526
23.84,32062.7,35064.5,0.2697,0.1599,149.5,96.9,0.526
23.86,31923.6,34913.6,-0.3349,-0.2118,149.5,96.9,0.526
23.88,31962.7,34869.5,-0.165,-0.3203,149.5,96.9,0.526
23.9,31898.1,34743.8,-0.4459,-0.6297,149.5,96.9,0.526
23.92,31895.3,34695.0,-0.4582,-0.75,149.5,96.9,0.526
23.94,31789.2,34679.8,-0.9193,-0.7873,149.5,96.9,0.526
23.96,31790.9,34685.7,-0.9119,-0.7728,149.5,96.9,0.526
23.98,31773.3,34571.3,-0.9881,-1.0544,149.5,96.9,0.526
24.0,31751.9,34519.6,-1.0813,-1.1816,149.5,96.9,0.526
24.02,31752.8,34472.3,-1.0775,-1.2981,149.5,96.9,0.526
24.04,31793.7,34633.8,-0.8995,-0.9005,149.5,96.9,0.526
24.06,31915.1,34810.3,-0.372,-0.4659,149.5,96.9,0.526
24.08,32160.3,35251.1,0.6937,0.6192,149.5,96.9,0.526
24.1,32250.3,35620.8,1.0846,1.5294,149.5,96.9,0.526
24.12,32324.3,35789.3,1.4063,1.9442,149.5,96.9,0.526
24.14,32362.5,35692.7,1.5726,1.7065,149.5,96.9,0.526
24.16,32246.4,35498.9,1.0679,1.2292,149.5,96.9,0.526
24.18,32242.6,35344.1,1.0515,0.8482,149.5,96.9,0.526
24.2,32047.4,35252.3,0.2031,0.6222,149.5,96.9,0.526
24.22,32034.5,35131.1,0.1469,0.3238,149.5,96.9,0.526
24.24,31983.6,35036.1,-0.0741,0.0899,149.5,96.9,0.526
24.26,31969.5,34959.2,-0.1357,-0.0993,149.5,96.9,0.526
24.28,31915.0,34867.0,-0.3725,-0.3264,149.5,96.9,0.526
24.3,31871.3,34731.0,-0.5623,-0.6612,149.5,96.9,0.526
24.32,31870.7,34782.4,-0.5651,-0.5348,149.5,96.9,0.526
24.34,31813.3,34653.3,-0.8143,-0.8526,149.5,96.9,0.526
24.36,31810.2,34608.3,-0.8277,-0.9634,149.5,96.9,0.526
24.38,31804.8,34580.5,-0.8512,-1.0318,149.5,96.9,0.526
24.4,31794.9,34409.5,-0.8946,-1.4528,149.5,96.9,0.526
24.42,31819.2,34405.8,-0.7888,-1.4619,149.5,96.9,0.526
24.44,31777.1,34557.1,-0.9718,-1.0893,149.5,96.9,0.526
24.46,31924.8,34780.6,-0.3297,-0.5391,149.5,96.9,0.526
24.48,32155.5,35244.4,0.6728,0.6027,149.5,96.9,0.526
24.5,32213.7,35528.7,0.9259,1.3028,149.5,96.9,0.526
24.52,32346.2,35686.4,1.5017,1.691,149.5,96.9,0.526
24.54,32379.6,35743.9,1.6466,1.8325,149.5,96.9,0.526
24.56,32292.8,35546.7,1.2696,1.3471,149.5,96.9,0.526
24.58,32201.1,35338.3,0.8711,0.8339,149.5,96.9,0.526
24.6,32099.9,35220.2,0.4312,0.5432,149.5,96.9,0.526
24.62,32095.9,35057.3,0.4137,0.1421,149.5,96.9,0.526
24.64,32047.8,35117.3,0.2047,0.2898,149.5,96.9,0.526
24.66,31941.4,34933.8,-0.2575,-0.1618,149.5,96.9,0.526
24.68,31970.5,34860.0,-0.1314,-0.3437,149.5,96.9,0.526
24.7,31839.6,34874.5,-0.6999,-0.3079,149.5,96.9,0.526
24.72,31837.8,34663.5,-0.7081,-0.8274,149.5,96.9,0.526
24.74,31875.4,34653.3,-0.5446,-0.8526,149.5,96.9,0.526
24.76,31881.4,34721.3,-0.5183,-0.6853,149.5,96.9,0.526
24.78,31803.9,34554.6,-0.8552,-1.0957,149.5,96.9,0.526
24.8,31713.8,34536.3,-1.2469,-1.1405,149.5,96.9,0.526
24.82,31822.9,34495.7,-0.7729,-1.2406,149.5,96.9,0.526
24.84,31713.4,34541.1,-1.2487,-1.1289,149.5,96.9,0.526
24.86,31798.2,34871.8,-0.8798,-0.3145,149.5,96.9,0.526
24.88,32035.9,35154.2,0.1531,0.3806,149.5,96.9,0.526
24.9,32267.2,35611.3,1.1581,1.5062,149.5,96.9,0.526
24.92,32354.3,35715.8,1.537,1.7633,149.5,96.9,0.526
24.94,32372.1,35601.7,1.6141,1.4824,149.5,96.9,0.526
24.96,32305.9,35596.0,1.3264,1.4685,149.5,96.9,0.526
24.98,32099.3,35309.8,0.4287,0.7637,149.5,96.9,0.526
25.0,32074.6,35289.0,0.3214,0.7126,149.5,96.9,0.526
25.02,32148.8,35073.9,0.6435,0.183,149.5,96.9,0.526
25.04,31997.1,35151.3,-0.0158,0.3735,149.5,96.9,0.526
25.06,31894.4,34999.1,-0.4619,-0.0013,149.5,96.9,0.526
25.08,31881.9,34867.0,-0.5165,-0.3264,149.5,96.9,0.526
25.1,31983.3,34680.8,-0.0756,-0.7848,149.5,96.9,0.526
25.12,31908.6,34629.8,-0.4001,-0.9104,149.5,96.9,0.526
25.14,31829.3,34679.6,-0.7447,-0.7878,149.5,96.9,0.526
25.16,31872.1,34681.9,-0.5589,-0.7822,149.5,96.9,0.526
25.18,31784.3,34600.8,-0.9403,-0.9818,149.5,96.9,0.526
25.2,31785.2,34561.8,-0.9367,-1.0778,149.5,96.9,0.526
25.22,31737.1,34436.6,-1.1456,-1.3862,149.5,96.9,0.526
25.24,31730.9,34480.5,-1.1725,-1.2781,149.5,96.9,0.526
25.26,31917.8,34785.5,-0.3605,-0.527,149.5,96.9,0.526
25.28,32073.2,35177.8,0.3153,0.4387,149.5,96.9,0.526
25.3,32341.2,35565.6,1.48,1.3936,149.5,96.9,0.526
25.32,32330.2,35759.5,1.4323,1.8709,149.5,96.9,0.526
25.34,32366.8,35726.5,1.591,1.7897,149.5,96.9,0.526
25.36,32356.9,35682.7,1.5482,1.682,149.5,96.9,0.526
25.38,32150.0,35353.8,0.649,0.872,149.5,96.9,0.526
25.4,32170.0,35267.7,0.736,0.6601,149.5,96.9,0.526
25.42,32058.7,35135.1,0.2521,0.3338,149.5,96.9,0.526
25.44,32033.5,35015.0,0.1424,0.038,149.5,96.9,0.526
25.46,31954.2,35050.7,-0.2022,0.1258,149.5,96.9,0.526
25.48,31941.3,34926.3,-0.2581,-0.1805,149.5,96.9,0.526
25.5,31866.8,34700.8,-0.5819,-0.7357,149.5,96.9,0.526
25.52,31877.1,34621.4,-0.5371,-0.931,149.5,96.9,0.526
25.54,31917.2,34655.9,-0.3631,-0.846,149.5,96.9,0.526
25.56,31792.8,34680.9,-0.9034,-0.7846,149.5,96.9,0.526
25.58,31802.4,34675.1,-0.8617,-0.7989,149.5,96.9,0.526
25.6,31754.2,34541.7,-1.0713,-1.1273,149.5,96.9,0.526
25.62,31717.0,34463.6,-1.2328,-1.3195,149.5,96.9,0.526
25.64,31758.6,34591.4,-1.0522,-1.0049,149.5,96.9,0.526
25.66,31953.4,34710.8,-0.2056,-0.7109,149.5,96.9,0.526
25.68,32033.3,35163.5,0.1417,0.4035,149.5,96.9,0.526
25.7,32225.9,35572.1,0.9788,1.4095,149.5,96.9,0.526
25.72,32434.2,35799.4,1.8842,1.9692,149.5,96.9,0.526
25.74,32333.1,35668.3,1.4446,1.6464,149.5,96.9,0.526
25.76,32292.2,35630.6,1.2669,1.5536,149.5,96.9,0.526
25.78,32183.2,35399.5,0.7933,0.9846,149.5,96.9,0.526
25.8,32170.9,35262.9,0.74,0.6482,149.5,96.9,0.526
25.82,32096.5,35158.8,0.4164,0.3921,149.5,96.9,0.526
25.84,32120.0,35055.6,0.5185,0.138,149.5,96.9,0.526
25.86,31962.3,34958.3,-0.1671,-0.1017,149.5,96.9,0.526
25.88,31930.3,34918.1,-0.3059,-0.2005,149.5,96.9,0.526
25.9,31885.0,34761.7,-0.5026,-0.5857,149.5,96.9,0.526
25.92,31932.5,34729.0,-0.2963,-0.6661,149.5,96.9,0.526
25.94,31879.3,34702.6,-0.5276,-0.7312,149.5,96.9,0.526
25.96,31817.0,34689.4,-0.7985,-0.7637,149.5,96.9,0.526
25.98,31887.4,34577.9,-0.4923,-1.0382,149.5,96.9,0.526
26.0,31714.5,34529.8,-1.2438,-1.1567,149.5,96.9,0.526
26.02,31774.8,34539.7,-0.9818,-1.1322,149.5,96.9,0.526
26.04,31760.8,34502.8,-1.0425,-1.223,149.5,96.9,0.526
26.06,31774.9,34675.1,-0.9814,-0.7988,149.5,96.9,0.526
26.08,32150.2,35114.1,0.6498,0.2819,149.5,96.9,0.526
26.1,32300.5,35559.3,1.3028,1.3782,149.5,96.9,0.526
26.12,32344.4,35731.6,1.4937,1.8024,149.5,96.9,0.526
26.14,32356.5,35782.2,1.5465,1.9268,149.5,96.9,0.526
26.16,32238.9,35558.2,1.0351,1.3754,149.5,96.9,0.526
26.18,32178.7,35311.9,0.7737,0.7688,149.5,96.9,0.526
26.2,32055.5,35215.0,0.2381,0.5303,149.5,96.9,0.526
26.22,32014.7,35090.2,0.0607,0.2231,149.5,96.9,0.526
26.24,31988.7,35103.4,-0.052,0.2555,149.5,96.9,0.526
26.26,31930.2,35054.7,-0.3063,0.1358,149.5,96.9,0.526
26.28,31907.3,34960.5,-0.4058,-0.0961,149.5,96.9,0.526
26.3,31934.0,34812.1,-0.2898,-0.4616,149.5,96.9,0.526
26.32,31829.6,34769.0,-0.7437,-0.5676,149.5,96.9,0.526
26.34,31876.3,34686.7,-0.5404,-0.7702,149.5,96.9,0.526
26.36,31897.8,34766.5,-0.4473,-0.5737,149.5,96.9,0.526
26.38,31736.4,34568.1,-1.1486,-1.0622,149.5,96.9,0.526
26.4,31775.8,34528.6,-0.9772,-1.1597,149.5,96.9,0.526
26.42,31670.4,34451.5,-1.4353,-1.3493,149.5,96.9,0.526
26.44,31760.1,34505.8,-1.0455,-1.2158,149.5,96.9,0.526
26.46,31871.8,34667.7,-0.5602,-0.8172,149.5,96.9,0.526
26.48,32155.6,35092.1,0.6735,0.2278,149.5,96.9,0.526
26.5,32243.8,35484.0,1.0566,1.1926,149.5,96.9,0.526
26.52,32355.4,35612.6,1.5414,1.5093,149.5,96.9,0.526
26.54,32367.8,35818.4,1.5957,2.0159,149.5,96.9,0.526
26.56,32249.7,35652.9,1.0821,1.6085,149.5,96.9,0.526
26.58,32261.0,35450.3,1.1316,1.1097,149.5,96.9,0.526
26.6,32019.8,35088.3,0.0831,0.2184,149.5,96.9,0.526
26.62,32026.1,35069.8,0.1106,0.1729,149.5,96.9,0.526
26.64,32018.3,35029.9,0.0767,0.0747,149.5,96.9,0.526
26.66,31986.0,35020.6,-0.0639,0.0516,149.5,96.9,0.526
26.68,31987.7,34915.2,-0.0565,-0.2078,149.5,96.9,0.526
26.7,31947.3,34808.0,-0.232,-0.4716,149.5,96.9,0.526
26.72,31871.6,34766.0,-0.5608,-0.5751,149.5,96.9,0.526
26.74,31893.5,34684.6,-0.4658,-0.7756,149.5,96.9,0.526
26.76,31830.4,34598.8,-0.7402,-0.9867,149.5,96.9,0.526
26.78,31832.1,34616.7,-0.7326,-0.9426,149.5,96.9,0.526
26.8,31731.8,34528.3,-1.1687,-1.1604,149.5,96.9,0.526
26.82,31766.0,34471.7,-1.0198,-1.2997,149.5,96.9,0.526
26.84,31724.0,34479.2,-1.2024,-1.2813,149.5,96.9,0.526
26.86,31853.4,34739.5,-0.6401,-0.6404,149.5,96.9,0.526
26.88,32048.2,35132.0,0.2063,0.3259,149.5,96.9,0.526
26.9,32211.0,35496.1,0.9138,1.2225,149.5,96.9,0.526
26.92,32249.7,35707.8,1.0822,1.7438,149.5,96.9,0.526
26.94,32290.5,35765.9,1.2597,1.8867,149.5,96.9,0.526
26.96,32358.5,35587.0,1.5552,1.4464,149.5,96.9,0.526
26.98,32187.9,35347.3,0.8138,0.8561,149.5,96.9,0.526
27.0,32082.3,35202.2,0.3547,0.4987,149.5,96.9,0.526
27.02,32069.3,35137.7,0.298,0.3402,149.5,96.9,0.526
27.04,32017.5,35055.8,0.0731,0.1385,149.5,96.9,0.526
27.06,32104.7,35032.1,0.4521,0.0801,149.5,96.9,0.526
27.08,31924.4,34963.9,-0.3317,-0.088,149.5,96.9,0.526
27.1,31855.9,34790.3,-0.6291,-0.5152,149.5,96.9,0.526
27.12,31862.0,34636.1,-0.6028,-0.8948,149.5,96.9,0.526
27.14,31875.0,34717.8,-0.5462,-0.6937,149.5,96.9,0.526
27.16,31878.1,34630.3,-0.5327,-0.9091,149.5,96.9,0.526
27.18,31898.8,34727.1,-0.4428,-0.6709,149.5,96.9,0.526
27.2,31674.1,34568.6,-1.4195,-1.0611,149.5,96.9,0.526
27.22,31705.6,34438.5,-1.2825,-1.3815,149.5,96.9,0.526
27.24,31764.4,34459.9,-1.0269,-1.3287,149.5,96.9,0.526
27.26,31861.9,34658.2,-0.6031,-0.8406,149.5,96.9,0.526
27.28,32014.0,35064.7,0.0579,0.1604,149.5,96.9,0.526
27.3,32239.3,35399.9,1.0369,0.9856,149.5,96.9,0.526
27.32,32348.2,35762.9,1.5101,1.8792,149.5,96.9,0.526
27.34,32405.3,35748.2,1.7585,1.8431,149.5,96.9,0.526
27.36,32355.3,35670.0,1.5413,1.6507,149.5,96.9,0.526
27.38,32169.0,35380.5,0.7314,0.9378,149.5,96.9,0.526
27.4,32168.0,35255.8,0.7273,0.6309,149.5,96.9,0.526
27.42,32124.5,35208.9,0.5381,0.5154,149.5,96.9,0.526
27.44,32076.9,35104.7,0.3311,0.2587,149.5,96.9,0.526
27.46,32064.6,35052.9,0.2777,0.1314,149.5,96.9,0.526
27.48,31979.3,34899.9,-0.0929,-0.2454,149.5,96.9,0.526
27.5,31873.3,34750.8,-0.5535,-0.6126,149.5,96.9,0.526
27.52,31861.8,34740.5,-0.6037,-0.6379,149.5,96.9,0.526
27.54,32007.7,34783.9,0.0306,-0.531,149.5,96.9,0.526
27.56,31861.9,34696.2,-0.6034,-0.7468,149.5,96.9,0.526
27.58,31839.5,34594.1,-0.7006,-0.9983,149.5,96.9,0.526
27.6,31712.2,34553.4,-1.2538,-1.0986,149.5,96.9,0.526
27.62,31680.8,34489.2,-1.3902,-1.2566,149.5,96.9,0.526
27.64,31729.7,34544.1,-1.1778,-1.1214,149.5,96.9,0.526
27.66,31920.6,34723.9,-0.3481,-0.6788,149.5,96.9,0.526
27.68,32037.2,34981.5,0.1585,-0.0444,149.5,96.9,0.526
27.7,32242.1,35416.4,1.0492,1.0263,149.5,96.9,0.526
27.72,32257.5,35771.5,1.1161,1.9004,149.5,96.9,0.526
27.74,32361.2,35772.2,1.5667,1.9022,149.5,96.9,0.526
27.76,32333.2,35636.6,1.445,1.5683,149.5,96.9,0.526
27.78,32100.0,35349.9,0.4318,0.8624,149.5,96.9,0.526
27.8,32153.3,35214.3,0.6634,0.5287,149.5,96.9,0.526
27.82,32087.6,35189.9,0.3778,0.4687,149.5,96.9,0.526
27.84,31909.3,35154.7,-0.397,0.382,149.5,96.9,0.526
27.86,32020.6,34964.2,0.0866,-0.0871,149.5,96.9,0.526
27.88,31943.0,34948.3,-0.2506,-0.1262,149.5,96.9,0.526
27.9,31902.9,34845.3,-0.425,-0.3797,149.5,96.9,0.526
27.92,31821.4,34730.0,-0.7794,-0.6637,149.5,96.9,0.526
27.94,31768.1,34750.6,-1.0108,-0.6129,149.5,96.9,0.526
27.96,31869.0,34644.5,-0.5723,-0.8743,149.5,96.9,0.526
27.98,31946.1,34606.5,-0.2372,-0.9677,149.5,96.9,0.526
28.0,31812.7,34617.7,-0.817,-0.9403,149.5,96.9,0.526
28.02,31823.7,34425.4,-0.7691,-1.4136,149.5,96.9,0.526
28.04,31701.1,34504.6,-1.3019,-1.2186,149.5,96.9,0.526
28.06,31814.5,34630.7,-0.8094,-0.9082,149.5,96.9,0.526
28.08,32051.7,34966.8,0.2216,-0.0807,149.5,96.9,0.526
28.1,32239.8,35325.1,1.0394,0.8015,149.5,96.9,0.526
28.12,32295.1,35661.0,1.2797,1.6285,149.5,96.9,0.526
28.14,32332.0,35831.1,1.4399,2.0472,149.5,96.9,0.526
28.16,32337.9,35643.3,1.4655,1.5848,149.5,96.9,0.526
28.18,32289.9,35437.2,1.2567,1.0774,149.5,96.9,0.526
28.2,32089.1,35252.7,0.3842,0.6233,149.5,96.9,0.526
28.22,32054.5,35065.6,0.234,0.1626,149.5,96.9,0.526
28.24,32019.2,35014.8,0.0806,0.0374,149.5,96.9,0.526
28.26,32016.3,35033.0,0.068,0.0823,149.5,96.9,0.526
28.28,31991.3,34975.9,-0.0406,-0.0583,149.5,96.9,0.526
28.3,31874.3,34799.3,-0.5494,-0.493,149.5,96.9,0.526
28.32,31970.3,34792.0,-0.1322,-0.511,149.5,96.9,0.526
28.34,31934.9,34658.6,-0.2857,-0.8395,149.5,96.9,0.526
28.36,31779.4,34685.1,-0.9616,-0.7742,149.5,96.9,0.526
28.38,31894.6,34638.9,-0.461,-0.8881,149.5,96.9,0.526
28.4,31772.3,34521.2,-0.9928,-1.1777,149.5,96.9,0.526
28.42,31808.4,34411.1,-0.8358,-1.449,149.5,96.9,0.526
28.44,31800.3,34430.4,-0.8708,-1.4012,149.5,96.9,0.526
28.46,31971.9,34696.4,-0.1253,-0.7464,149.5,96.9,0.526
28.48,31961.1,34985.8,-0.1719,-0.0339,149.5,96.9,0.526
28.5,32150.1,35434.2,0.6496,1.07,149.5,96.9,0.526
28.52,32392.2,35639.4,1.7016,1.5751,149.5,96.9,0.526
28.54,32356.1,35757.7,1.5445,1.8665,149.5,96.9,0.526
28.56,32337.5,35714.0,1.4637,1.7589,149.5,96.9,0.526
28.58,32245.2,35514.3,1.0625,1.2672,149.5,96.9,0.526
28.6,32190.7,35306.7,0.8258,0.7562,149.5,96.9,0.526
28.62,32048.7,35135.2,0.2087,0.3339,149.5,96.9,0.526
28.64,32011.7,35048.4,0.0477,0.1202,149.5,96.9,0.526
28.66,31979.8,35006.8,-0.0908,0.0177,149.5,96.9,0.526
28.68,32013.5,34898.4,0.0555,-0.249,149.5,96.9,0.526
28.7,31932.6,34763.7,-0.296,-0.5808,149.5,96.9,0.526
28.72,31821.5,34689.6,-0.7788,-0.7631,149.5,96.9,0.526
28.74,31734.3,34674.5,-1.1578,-0.8005,149.5,96.9,0.526
28.76,31892.5,34641.4,-0.4702,-0.8819,149.5,96.9,0.526
28.78,31811.8,34666.5,-0.8211,-0.8199,149.5,96.9,0.526
28.8,31772.3,34575.1,-0.9927,-1.0451,149.5,96.9,0.526
28.82,31758.8,34488.5,-1.0515,-1.2583,149.5,96.9,0.526
28.84,31700.1,34463.5,-1.3062,-1.3197,149.5,96.9,0.526
28.86,31843.8,34643.7,-0.6818,-0.8763,149.5,96.9,0.526
28.88,31949.8,34925.0,-0.221,-0.1837,149.5,96.9,0.526
28.9,32120.3,35354.7,0.5197,0.8744,149.5,96.9,0.526
28.92,32312.2,35654.1,1.354,1.6115,149.5,96.9,0.526
28.94,32348.8,35822.6,1.5127,2.0262,149.5,96.9,0.526
28.96,32363.7,35683.3,1.5775,1.6834,149.5,96.9,0.526
28.98,32173.9,35394.2,0.7529,0.9714,149.5,96.9,0.526
29.0,32154.9,35300.4,0.67,0.7407,149.5,96.9,0.526
29.02,32025.5,35079.7,0.1077,0.1972,149.5,96.9,0.526
29.04,32070.6,35067.5,0.3039,0.1672,149.5,96.9,0.526
29.06,31992.8,35088.6,-0.0344,0.2193,149.5,96.9,0.526
29.08,32025.4,34959.2,0.1072,-0.0995,149.5,96.9,0.526
29.1,31889.2,34885.5,-0.4847,-0.281,149.5,96.9,0.526
29.12,31879.0,34808.3,-0.5287,-0.471,149.5,96.9,0.526
29.14,31787.1,34731.6,-0.9283,-0.6599,149.5,96.9,0.526
29.16,31827.8,34590.0,-0.7516,-1.0083,149.5,96.9,0.526
29.18,31828.0,34641.5,-0.7507,-0.8816,149.5,96.9,0.526
29.2,31769.4,34609.6,-1.0054,-0.9602,149.5,96.9,0.526
29.22,31726.1,34478.0,-1.1935,-1.2843,149.5,96.9,0.526
29.24,31685.8,34489.8,-1.3686,-1.2551,149.5,96.9,0.526
29.26,31737.3,34589.7,-1.1449,-1.009,149.5,96.9,0.526
29.28,31999.8,34880.3,-0.0037,-0.2937,149.5,96.9,0.526
29.3,32075.3,35218.8,0.3244,0.5398,149.5,96.9,0.526
29.32,32282.1,35641.2,1.2231,1.5797,149.5,96.9,0.526
29.34,32367.2,35649.1,1.593,1.5993,149.5,96.9,0.526
29.36,32372.3,35793.1,1.6152,1.9536,149.5,96.9,0.526
29.38,32257.6,35524.2,1.1165,1.2916,149.5,96.9,0.526
29.4,32151.5,35221.2,0.6557,0.5456,149.5,96.9,0.526
29.42,32115.3,35190.1,0.4981,0.469,149.5,96.9,0.526
29.44,31946.5,35113.4,-0.2357,0.2803,149.5,96.9,0.526
29.46,31996.7,34993.7,-0.0173,-0.0144,149.5,96.9,0.526
29.48,32013.4,35027.2,0.0554,0.0681,149.5,96.9,0.526
29.5,31895.9,34832.8,-0.4556,-0.4106,149.5,96.9,0.526
29.52,31902.1,34769.7,-0.4285,-0.5661,149.5,96.9,0.526
29.54,31884.3,34712.8,-0.5059,-0.706,149.5,96.9,0.526
29.56,31765.9,34643.6,-1.0205,-0.8763,149.5,96.9,0.526
29.58,31842.6,34653.5,-0.6871,-0.852,149.5,96.9,0.526
29.6,31771.1,34551.2,-0.998,-1.104,149.5,96.9,0.526
29.62,31678.7,34487.8,-1.3994,-1.2601,149.5,96.9,0.526
29.64,31779.2,34398.7,-0.9628,-1.4793,149.5,96.9,0.526
29.66,31719.9,34526.1,-1.2204,-1.1657,149.5,96.9,0.526
29.68,31929.9,34875.1,-0.3075,-0.3065,149.5,96.9,0.526
29.7,32182.4,35220.7,0.7897,0.5444,149.5,96.9,0.526
29.72,32335.0,35668.4,1.453,1.6468,149.5,96.9,0.526
29.74,32388.6,35781.0,1.6858,1.9238,149.5,96.9,0.526
29.76,32305.9,35695.7,1.3267,1.7138,149.5,96.9,0.526
29.78,32308.6,35512.2,1.338,1.262,149.5,96.9,0.526
29.8,32212.4,35328.6,0.9199,0.8102,149.5,96.9,0.526
29.82,32107.6,35170.6,0.4647,0.421,149.5,96.9,0.526
29.84,32033.9,35061.8,0.1442,0.1533,149.5,96.9,0.526
29.86,31934.6,35001.2,-0.2874,0.0039,149.5,96.9,0.526
29.88,32116.7,34925.6,0.504,-0.1822,149.5,96.9,0.526
29.9,31871.4,34869.2,-0.562,-0.3211,149.5,96.9,0.526
29.92,31897.1,34757.2,-0.4503,-0.5968,149.5,96.9,0.526
29.94,31762.7,34656.9,-1.0342,-0.8438,149.5,96.9,0.526
29.96,31828.4,34707.4,-0.7488,-0.7192,149.5,96.9,0.526
29.98,31789.3,34618.6,-0.9187,-0.938,149.5,96.9,0.526
30.0,31833.6,34606.1,-0.7263,-0.9687,149.5,96.9,0.526
30.02,31769.0,34561.5,-1.0069,-1.0786,149.5,96.9,0.526
30.04,31683.0,34452.1,-1.3805,-1.3479,149.5,96.9,0.526
30.06,31814.7,34614.9,-0.8085,-0.9471,149.5,96.9,0.526
30.08,31904.1,34921.3,-0.4196,-0.1927,149.5,96.9,0.526
30.1,32106.9,35290.0,0.4616,0.7151,149.5,96.9,0.526
30.12,32287.5,35621.1,1.2464,1.5303,149.5,96.9,0.526
30.14,32413.6,35868.4,1.7945,2.139,149.5,96.9,0.526
30.16,32391.0,35650.1,1.6965,1.6016,149.5,96.9,0.526
30.18,32237.5,35528.9,1.0291,1.3033,149.5,96.9,0.526
30.2,32093.9,35274.8,0.4053,0.6777,149.5,96.9,0.526
30.22,32067.6,35077.0,0.2909,0.1906,149.5,96.9,0.526
30.24,31992.2,35034.3,-0.0371,0.0855,149.5,96.9,0.526
30.26,32063.2,35078.6,0.2715,0.1945,149.5,96.9,0.526
30.28,31921.1,34989.0,-0.3458,-0.0261,149.5,96.9,0.526
30.3,31920.4,34921.8,-0.3491,-0.1915,149.5,96.9,0.526
30.32,31929.9,34747.7,-0.3078,-0.6202,149.5,96.9,0.526
30.34,31818.2,34681.4,-0.7931,-0.7834,149.5,96.9,0.526
30.36,31796.5,34691.2,-0.8873,-0.7592,149.5,96.9,0.526
30.38,31849.1,34613.7,-0.6586,-0.95,149.5,96.9,0.526
30.4,31825.7,34603.3,-0.7604,-0.9756,149.5,96.9,0.526
30.42,31776.4,34499.3,-0.9747,-1.2317,149.5,96.9,0.526
30.44,31778.2,34535.2,-0.9668,-1.1432,149.5,96.9,0.526
30.46,31783.6,34495.6,-0.9433,-1.2408,149.5,96.9,0.526
30.48,31963.8,34832.8,-0.1605,-0.4107,149.5,96.9,0.526
30.5,32055.1,35264.8,0.2366,0.6531,149.5,96.9,0.526
30.52,32265.6,35582.2,1.1513,1.4344,149.5,96.9,0.526
30.54,32358.7,35724.6,1.556,1.7851,149.5,96.9,0.526
30.56,32274.6,35744.4,1.1903,1.8337,149.5,96.9,0.526
30.58,32193.9,35489.6,0.8398,1.2063,149.5,96.9,0.526
30.6,32149.0,35340.8,0.6445,0.84,149.5,96.9,0.526
30.62,32221.2,35186.2,0.9584,0.4593,149.5,96.9,0.526
30.64,32055.8,35115.5,0.2396,0.2855,149.5,96.9,0.526
30.66,32069.9,35094.4,0.3007,0.2334,149.5,96.9,0.526
30.68,31968.2,35037.1,-0.1413,0.0925,149.5,96.9,0.526
30.7,31915.1,34812.3,-0.3718,-0.461,149.5,96.9,0.526
30.72,31804.9,34823.0,-0.8509,-0.4348,149.5,96.9,0.526
30.74,31854.6,34658.4,-0.6349,-0.84,149.5,96.9,0.526
30.76,31832.7,34749.3,-0.73,-0.6162,149.5,96.9,0.526
30.78,31757.7,34684.5,-1.0559,-0.7758,149.5,96.9,0.526
30.8,31838.8,34521.1,-0.7034,-1.1779,149.5,96.9,0.526
30.82,31661.5,34521.3,-1.4743,-1.1776,149.5,96.9,0.526
30.84,31673.6,34383.3,-1.4214,-1.5172,149.5,96.9,0.526
30.86,31852.9,34616.1,-0.6422,-0.9441,149.5,96.9,0.526
30.88,31917.7,34849.0,-0.3607,-0.3706,149.5,96.9,0.526
30.9,32104.4,35182.3,0.4508,0.45,149.5,96.9,0.526
30.92,32309.5,35531.6,1.342,1.3098,149.5,96.9,0.526
30.94,32366.6,35785.7,1.5903,1.9354,149.5,96.9,0.526
30.96,32381.1,35710.7,1.6535,1.7507,149.5,96.9,0.526
30.98,32221.6,35501.0,0.9601,1.2346,149.5,96.9,0.526
31.0,32177.6,35330.4,0.7689,0.8146,149.5,96.9,0.526
31.02,32094.8,35168.4,0.4091,0.4156,149.5,96.9,0.526
31.04,32013.4,35111.6,0.0554,0.2758,149.5,96.9,0.526
31.06,32080.4,35053.6,0.3464,0.1331,149.5,96.9,0.526
31.08,32027.0,35051.9,0.1146,0.1289,149.5,96.9,0.526
31.1,31847.8,34815.4,-0.6646,-0.4535,149.5,96.9,0.526
31.12,31859.5,34845.7,-0.6138,-0.379,149.5,96.9,0.526
31.14,31860.8,34739.6,-0.6079,-0.6401,149.5,96.9,0.526
31.16,31772.5,34665.0,-0.9918,-0.8236,149.5,96.9,0.526
31.18,31813.8,34657.0,-0.8121,-0.8434,149.5,96.9,0.526
31.2,31840.8,34561.3,-0.6949,-1.0791,149.5,96.9,0.526
31.22,31692.4,34470.8,-1.3399,-1.3018,149.5,96.9,0.526
31.24,31727.5,34565.2,-1.1874,-1.0695,149.5,96.9,0.526
31.26,31865.2,34505.2,-0.5888,-1.2171,149.5,96.9,0.526
31.28,31811.2,34792.6,-0.8234,-0.5095,149.5,96.9,0.526
31.3,32110.0,35168.5,0.4751,0.4159,149.5,96.9,0.526
31.32,32204.6,35556.6,0.8863,1.3713,149.5,96.9,0.526
31.34,32346.1,35639.3,1.5013,1.5751,149.5,96.9,0.526
31.36,32317.6,35727.3,1.3772,1.7917,149.5,96.9,0.526
31.38,32371.5,35583.4,1.6117,1.4374,149.5,96.9,0.526
31.4,32185.5,35233.7,0.8034,0.5765,149.5,96.9,0.526
31.42,32087.2,35271.4,0.376,0.6692,149.5,96.9,0.526
31.44,32063.8,35079.1,0.2745,0.1958,149.5,96.9,0.526
31.46,32099.7,35065.2,0.4303,0.1616,149.5,96.9,0.526
31.48,31851.2,34923.9,-0.6496,-0.1864,149.5,96.9,0.526
31.5,31804.9,34868.0,-0.8508,-0.3239,149.5,96.9,0.526
31.52,31894.0,34600.4,-0.4637,-0.9828,149.5,96.9,0.526
31.54,31902.4,34644.1,-0.4271,-0.8753,149.5,96.9,0.526
31.56,31929.2,34677.1,-0.3108,-0.7939,149.5,96.9,0.526
31.58,31792.3,34689.2,-0.9055,-0.7641,149.5,96.9,0.526
31.6,31780.8,34692.7,-0.9557,-0.7554,149.5,96.9,0.526
31.62,31762.3,34491.8,-1.0359,-1.2502,149.5,96.9,0.526
31.64,31698.8,34367.7,-1.3122,-1.5556,149.5,96.9,0.526
31.66,31779.6,34601.2,-0.9607,-0.9808,149.5,96.9,0.526
31.68,31883.1,34693.9,-0.5111,-0.7527,149.5,96.9,0.526
31.7,32018.3,35076.3,0.0763,0.1889,149.5,96.9,0.526
31.72,32270.1,35466.4,1.1708,1.1494,149.5,96.9,0.526
31.74,32337.0,35812.8,1.4615,2.0023,149.5,96.9,0.526
31.76,32353.7,35746.4,1.5342,1.8386,149.5,96.9,0.526
31.78,32246.5,35502.5,1.0683,1.2382,149.5,96.9,0.526
31.8,32051.6,35400.9,0.2211,0.988,149.5,96.9,0.526
31.82,32143.6,35277.6,0.6211,0.6845,149.5,96.9,0.526
31.84,32143.5,35088.1,0.6208,0.218,149.5,96.9,0.526
31.86,32005.1,34997.6,0.0193,-0.0048,149.5,96.9,0.526
31.88,31948.7,35099.7,-0.2261,0.2465,149.5,96.9,0.526
31.9,31989.0,34790.3,-0.0508,-0.5152,149.5,96.9,0.526
31.92,31811.7,34793.9,-0.8216,-0.5064,149.5,96.9,0.526
31.94,31885.0,34754.5,-0.5027,-0.6034,149.5,96.9,0.526
31.96,31889.4,34783.8,-0.4836,-0.5312,149.5,96.9,0.526
31.98,31795.0,34674.9,-0.8938,-0.7994,149.5,96.9,0.526
32.0,31729.8,34554.0,-1.1774,-1.0971,149.5,96.9,0.526
32.02,31752.5,34562.3,-1.0785,-1.0765,149.5,96.9,0.526
32.04,31704.6,34444.9,-1.287,-1.3656,149.5,96.9,0.526
32.06,31821.5,34438.6,-0.7788,-1.3812,149.5,96.9,0.526
32.08,31900.8,34741.7,-0.4341,-0.635,149.5,96.9,0.526
32.1,31974.0,35178.2,-0.1158,0.4398,149.5,96.9,0.526
32.12,32222.0,35469.3,0.9617,1.1564,149.5,96.9,0.526
32.14,32352.2,35745.6,1.5276,1.8368,149.5,96.9,0.526
32.16,32313.1,35680.1,1.3579,1.6754,149.5,96.9,0.526
32.18,32396.3,35578.4,1.7192,1.4251,149.5,96.9,0.526
32.2,32229.4,35396.1,0.994,0.9762,149.5,96.9,0.526
32.22,31989.2,35247.6,-0.0501,0.6107,149.5,96.9,0.526
32.24,32085.8,35106.9,0.37,0.2643,149.5,96.9,0.526
32.26,32038.5,35115.7,0.1642,0.2858,149.5,96.9,0.526
32.28,31979.8,35044.0,-0.091,0.1093,149.5,96.9,0.526
32.3,32055.5,34969.7,0.2382,-0.0736,149.5,96.9,0.526
32.32,31865.2,34777.9,-0.589,-0.5458,149.5,96.9,0.526
32.34,31891.9,34677.1,-0.4728,-0.7939,149.5,96.9,0.526
32.36,31822.8,34632.9,-0.7731,-0.9029,149.5,96.9,0.526
32.38,31827.0,34661.2,-0.7547,-0.8332,149.5,96.9,0.526
32.4,31787.9,34587.3,-0.9246,-1.0151,149.5,96.9,0.526
32.42,31760.5,34567.9,-1.0438,-1.0628,149.5,96.9,0.526
32.44,31744.5,34423.9,-1.1133,-1.4173,149.5,96.9,0.526
32.46,31714.1,34431.1,-1.2456,-1.3996,149.5,96.9,0.526
32.48,31906.7,34694.7,-0.4085,-0.7505,149.5,96.9,0.526
32.5,32020.9,34980.4,0.0877,-0.0473,149.5,96.9,0.526
32.52,32282.4,35401.3,1.2243,0.989,149.5,96.9,0.526
32.54,32278.4,35709.4,1.2068,1.7477,149.5,96.9,0.526
32.56,32324.2,35687.5,1.4061,1.6937,149.5,96.9,0.526
32.58,32260.6,35574.8,1.1298,1.4163,149.5,96.9,0.526
32.6,32250.8,35424.9,1.087,1.0471,149.5,96.9,0.526
32.62,32109.6,35226.2,0.4735,0.558,149.5,96.9,0.526
32.64,32190.4,35194.0,0.8244,0.4786,149.5,96.9,0.526
32.66,32033.4,35008.9,0.1423,0.0229,149.5,96.9,0.526
32.68,31987.3,34945.3,-0.0583,-0.1336,149.5,96.9,0.526
32.7,31859.7,34912.2,-0.6126,-0.215,149.5,96.9,0.526
32.72,31774.2,34893.6,-0.9845,-0.261,149.5,96.9,0.526
32.74,31913.3,34683.6,-0.3796,-0.7779,149.5,96.9,0.526
32.76,31831.4,34622.0,-0.7356,-0.9297,149.5,96.9,0.526
32.78,31849.4,34699.0,-0.6577,-0.74,149.5,96.9,0.526
32.8,31864.5,34620.3,-0.5918,-0.9339,149.5,96.9,0.526
32.82,31677.1,34455.0,-1.4062,-1.3409,149.5,96.9,0.526
32.84,31696.1,34466.7,-1.3239,-1.3119,149.5,96.9,0.526
32.86,31696.0,34514.2,-1.3244,-1.195,149.5,96.9,0.526
32.88,31839.4,34784.8,-0.701,-0.5288,149.5,96.9,0.526
32.9,32050.7,35177.7,0.2176,0.4386,149.5,96.9,0.526
32.92,32244.2,35467.8,1.0584,1.1527,149.5,96.9,0.526
32.94,32358.3,35720.0,1.5541,1.7738,149.5,96.9,0.526
32.96,32327.6,35817.0,1.4208,2.0126,149.5,96.9,0.526
32.98,32319.4,35553.2,1.385,1.3631,149.5,96.9,0.526
33.0,32180.3,35478.1,0.7808,1.1781,149.5,96.9,0.526
33.02,32145.1,35293.7,0.6275,0.7241,149.5,96.9,0.526
33.04,32145.6,35102.5,0.6299,0.2534,149.5,96.9,0.526
33.06,32003.8,35070.0,0.0135,0.1733,149.5,96.9,0.526
33.08,32103.5,34946.8,0.4468,-0.1299,149.5,96.9,0.526
33.1,31930.9,34865.3,-0.3031,-0.3305,149.5,96.9,0.526
33.12,31925.4,34759.4,-0.3273,-0.5913,149.5,96.9,0.526
33.14,31891.5,34702.0,-0.4747,-0.7327,149.5,96.9,0.526
33.16,31895.0,34707.8,-0.4592,-0.7183,149.5,96.9,0.526
33.18,31834.8,34615.8,-0.7208,-0.9449,149.5,96.9,0.526
33.2,31813.1,34587.3,-0.8153,-1.015,149.5,96.9,0.526
33.22,31674.2,34466.6,-1.419,-1.3122,149.5,96.9,0.526
33.24,31774.2,34462.7,-0.9841,-1.3218,149.5,96.9,0.526
33.26,31723.4,34421.8,-1.2052,-1.4224,149.5,96.9,0.526
33.28,31876.8,34694.7,-0.5386,-0.7507,149.5,96.9,0.526
33.3,32016.2,35098.7,0.0674,0.244,149.5,96.9,0.526
33.32,32121.2,35465.7,0.524,1.1475,149.5,96.9,0.526
33.34,32330.7,35653.8,1.4344,1.6107,149.5,96.9,0.526
33.36,32305.7,35682.9,1.3254,1.6824,149.5,96.9,0.526
33.38,32279.6,35687.2,1.2123,1.6928,149.5,96.9,0.526
33.4,32263.0,35434.9,1.1399,1.0718,149.5,96.9,0.526
33.42,32204.3,35274.6,0.8847,0.6771,149.5,96.9,0.526
33.44,32149.1,35211.0,0.6449,0.5206,149.5,96.9,0.526
33.46,31982.9,35096.2,-0.0775,0.2378,149.5,96.9,0.526
33.48,32042.2,34931.1,0.1805,-0.1685,149.5,96.9,0.526
33.5,31943.5,34908.0,-0.2484,-0.2256,149.5,96.9,0.526
33.52,31909.8,34871.2,-0.3952,-0.3161,149.5,96.9,0.526
33.54,31790.0,34704.0,-0.9158,-0.7278,149.5,96.9,0.526
33.56,31803.6,34750.5,-0.8566,-0.6133,149.5,96.9,0.526
33.58,31835.6,34745.4,-0.7174,-0.6257,149.5,96.9,0.526
33.6,31783.5,34601.1,-0.9439,-0.9812,149.5,96.9,0.526
33.62,31851.7,34479.4,-0.6475,-1.2806,149.5,96.9,0.526
33.64,31736.1,34463.6,-1.1499,-1.3195,149.5,96.9,0.526
33.66,31722.3,34489.2,-1.2099,-1.2566,149.5,96.9,0.526
33.68,31817.3,34574.5,-0.797,-1.0467,149.5,96.9,0.526
33.7,32063.6,35070.4,0.2733,0.1743,149.5,96.9,0.526
33.72,32092.1,35322.7,0.3974,0.7956,149.5,96.9,0.526
33.74,32263.4,35651.3,1.1417,1.6044,149.5,96.9,0.526
33.76,32386.7,35650.9,1.6775,1.6036,149.5,96.9,0.526
33.78,32393.5,35541.8,1.7071,1.3349,149.5,96.9,0.526
33.8,32223.0,35439.4,0.9664,1.0829,149.5,96.9,0.526
33.82,32109.3,35285.1,0.4719,0.7031,149.5,96.9,0.526
33.84,31955.6,35208.0,-0.1958,0.5132,149.5,96.9,0.526
33.86,32019.4,35039.6,0.0812,0.0986,149.5,96.9,0.526
33.88,31930.7,35018.8,-0.3041,0.0473,149.5,96.9,0.526
33.9,31997.1,34960.0,-0.0154,-0.0975,149.5,96.9,0.526
33.92,31990.5,34886.7,-0.0443,-0.2779,149.5,96.9,0.526
33.94,31885.7,34715.7,-0.4999,-0.699,149.5,96.9,0.526
33.96,31792.0,34733.1,-0.9069,-0.6561,149.5,96.9,0.526
33.98,31773.6,34718.3,-0.9871,-0.6925,149.5,96.9,0.526
34.0,31846.4,34547.7,-0.6705,-1.1125,149.5,96.9,0.526
34.02,31815.5,34502.6,-0.8049,-1.2236,149.5,96.9,0.526
34.04,31806.8,34494.6,-0.8427,-1.2433,149.5,96.9,0.526
34.06,31769.3,34437.4,-1.0059,-1.3841,149.5,96.9,0.526
34.08,31891.2,34697.3,-0.4761,-0.7442,149.5,96.9,0.526
34.1,31965.2,34941.6,-0.1542,-0.1427,149.5,96.9,0.526
34.12,32136.5,35383.9,0.5904,0.9462,149.5,96.9,0.526
34.14,32310.5,35614.7,1.3467,1.5145,149.5,96.9,0.526
34.16,32352.6,35729.5,1.5292,1.797,149.5,96.9,0.526
34.18,32321.6,35715.0,1.3948,1.7614,149.5,96.9,0.526
34.2,32134.4,35402.3,0.5809,0.9916,149.5,96.9,0.526
34.22,32076.3,35333.8,0.3288,0.8229,149.5,96.9,0.526
34.24,31957.4,35184.0,-0.1881,0.4542,149.5,96.9,0.526
34.26,32050.8,35101.6,0.2177,0.2513,149.5,96.9,0.526
34.28,32124.1,34922.2,0.5362,-0.1904,149.5,96.9,0.526
34.3,31919.6,34932.6,-0.3524,-0.165,149.5,96.9,0.526
34.32,31901.1,34882.9,-0.4326,-0.2873,149.5,96.9,0.526
34.34,31952.9,34720.8,-0.2077,-0.6865,149.5,96.9,0.526
34.36,31871.4,34658.8,-0.5617,-0.8389,149.5,96.9,0.526
34.38,31880.7,34616.0,-0.5216,-0.9444,149.5,96.9,0.526
34.4,31851.8,34615.8,-0.647,-0.9448,149.5,96.9,0.526
34.42,31802.7,34557.3,-0.8604,-1.0889,149.5,96.9,0.526
34.44,31673.9,34563.4,-1.4204,-1.0738,149.5,96.9,0.526
34.46,31883.6,34524.9,-0.5087,-1.1687,149.5,96.9,0.526
34.48,31907.6,34603.8,-0.4046,-0.9745,149.5,96.9,0.526
34.5,31941.2,34955.5,-0.2586,-0.1086,149.5,96.9,0.526
34.52,32212.6,35384.5,0.921,0.9478,149.5,96.9,0.526
34.54,32355.2,35629.2,1.5406,1.5502,149.5,96.9,0.526
34.56,32367.4,35806.8,1.5937,1.9875,149.5,96.9,0.526
34.58,32391.7,35713.2,1.6996,1.7569,149.5,96.9,0.526
34.6,32320.8,35483.3,1.3912,1.1909,149.5,96.9,0.526
34.62,32102.0,35298.8,0.4403,0.7368,149.5,96.9,0.526
34.64,32050.4,35212.2,0.2159,0.5234,149.5,96.9,0.526
34.66,32145.2,35083.6,0.6283,0.2069,149.5,96.9,0.526
34.68,32020.0,35046.6,0.0841,0.1158,149.5,96.9,0.526
34.7,31972.6,34885.1,-0.122,-0.2818,149.5,96.9,0.526
34.72,31950.6,34710.3,-0.2177,-0.7122,149.5,96.9,0.526
34.74,31987.5,34651.5,-0.0575,-0.8571,149.5,96.9,0.526
34.76,31880.7,34577.6,-0.5213,-1.0389,149.5,96.9,0.526
34.78,31837.4,34624.8,-0.7097,-0.9227,149.5,96.9,0.526
34.8,31814.0,34607.5,-0.8115,-0.9652,149.5,96.9,0.526
34.82,31765.2,34466.8,-1.0233,-1.3118,149.5,96.9,0.526
34.84,31731.3,34414.8,-1.1707,-1.4397,149.5,96.9,0.526
34.86,31771.2,34390.0,-0.9973,-1.5009,149.5,96.9,0.526
34.88,31841.2,34606.2,-0.6931,-0.9685,149.5,96.9,0.526
34.9,32056.9,34984.9,0.2441,-0.0361,149.5,96.9,0.526
34.92,32245.7,35337.4,1.0649,0.8318,149.5,96.9,0.526
34.94,32293.8,35671.9,1.2739,1.6552,149.5,96.9,0.526
34.96,32445.2,35710.4,1.9321,1.7502,149.5,96.9,0.526
34.98,32383.1,35662.3,1.6622,1.6316,149.5,96.9,0.526
35.0,32165.8,35429.0,0.7175,1.0574,149.5,96.9,0.526
35.02,32123.4,35240.8,0.5335,0.5939,149.5,96.9,0.526
35.04,32059.7,35068.3,0.2563,0.1692,149.5,96.9,0.526
35.06,31999.2,35118.7,-0.0065,0.2932,149.5,96.9,0.526
35.08,31997.2,35044.2,-0.0152,0.11,149.5,96.9,0.526
35.1,31936.8,34977.7,-0.2779,-0.054,149.5,96.9,0.526
35.12,31892.0,34877.9,-0.4722,-0.2995,149.5,96.9,0.526
35.14,31831.7,34737.1,-0.7342,-0.6463,149.5,96.9,0.526
35.16,31795.1,34717.8,-0.8936,-0.6937,149.5,96.9,0.526
35.18,31851.7,34709.0,-0.6477,-0.7154,149.5,96.9,0.526
35.2,31820.5,34592.2,-0.7831,-1.0029,149.5,96.9,0.526
35.22,31830.3,34560.6,-0.7407,-1.0808,149.5,96.9,0.526
35.24,31757.0,34593.6,-1.0591,-0.9995,149.5,96.9,0.526
35.26,31760.8,34450.1,-1.0426,-1.3527,149.5,96.9,0.526
35.28,31840.7,34586.7,-0.6953,-1.0166,149.5,96.9,0.526
35.3,31918.0,34979.2,-0.3596,-0.0502,149.5,96.9,0.526
35.32,32192.8,35359.1,0.835,0.8853,149.5,96.9,0.526
35.34,32396.0,35678.9,1.7182,1.6724,149.5,96.9,0.526
35.36,32474.0,35763.8,2.0572,1.8815,149.5,96.9,0.526
35.38,32372.3,35619.8,1.6151,1.5269,149.5,96.9,0.526
35.4,32262.0,35562.3,1.1356,1.3854,149.5,96.9,0.526
35.42,32187.0,35280.1,0.8098,0.6905,149.5,96.9,0.526
35.44,32078.7,35057.8,0.3393,0.1433,149.5,96.9,0.526
35.46,32038.0,35104.3,0.1622,0.2578,149.5,96.9,0.526
35.48,32020.9,35048.4,0.088,0.1202,149.5,96.9,0.526
35.5,32069.5,34935.8,0.2992,-0.1571,149.5,96.9,0.526
35.52,31845.6,34771.0,-0.6741,-0.5628,149.5,96.9,0.526
35.54,31932.5,34827.4,-0.2965,-0.4238,149.5,96.9,0.526
35.56,31938.8,34691.5,-0.2691,-0.7584,149.5,96.9,0.526
35.58,31830.2,34673.6,-0.7408,-0.8026,149.5,96.9,0.526
35.6,31769.5,34539.0,-1.0046,-1.1339,149.5,96.9,0.526
35.62,31815.1,34582.3,-0.8068,-1.0273,149.5,96.9,0.526
35.64,31756.1,34464.0,-1.0631,-1.3187,149.5,96.9,0.526
35.66,31771.3,34444.7,-0.997,-1.3662,149.5,96.9,0.526
35.68,31765.6,34600.9,-1.0218,-0.9815,149.5,96.9,0.526
35.7,31944.8,34890.8,-0.243,-0.2679,149.5,96.9,0.526
35.72,32190.8,35314.8,0.8261,0.776,149.5,96.9,0.526
35.74,32361.4,35707.8,1.5678,1.7436,149.5,96.9,0.526
35.76,32401.6,35796.3,1.7423,1.9615,149.5,96.9,0.526
35.78,32350.2,35745.7,1.519,1.837,149.5,96.9,0.526
35.8,32260.4,35534.1,1.1286,1.316,149.5,96.9,0.526
35.82,32109.6,35287.4,0.4732,0.7086,149.5,96.9,0.526
35.84,32062.5,35240.4,0.2688,0.5929,149.5,96.9,0.526
35.86,32057.7,35135.9,0.248,0.3357,149.5,96.9,0.526
35.88,32075.5,35095.2,0.3253,0.2355,149.5,96.9,0.526
35.9,31986.1,34853.8,-0.0632,-0.3589,149.5,96.9,0.526
35.92,31858.7,34855.3,-0.6171,-0.3552,149.5,96.9,0.526
35.94,31894.8,34667.9,-0.4604,-0.8167,149.5,96.9,0.526
35.96,31915.3,34656.3,-0.3711,-0.8451,149.5,96.9,0.526
35.98,31877.3,34690.0,-0.5362,-0.7623,149.5,96.9,0.526
36.0,31781.9,34685.9,-0.9507,-0.7724,149.5,96.9,0.526
36.02,31898.4,34564.1,-0.4447,-1.0722,149.5,96.9,0.526
36.04,31779.7,34463.6,-0.9605,-1.3196,149.5,96.9,0.526
36.06,31726.4,34482.4,-1.1923,-1.2733,149.5,96.9,0.526
36.08,31849.0,34556.4,-0.6592,-1.0912,149.5,96.9,0.526
36.1,31980.2,34948.4,-0.0891,-0.126,149.5,96.9,0.526
36.12,32186.5,35186.5,0.8075,0.4602,149.5,96.9,0.526
36.14,32209.4,35631.5,0.9069,1.5558,149.5,96.9,0.526
36.16,32344.9,35731.8,1.4961,1.8027,149.5,96.9,0.526
36.18,32304.3,35748.2,1.3196,1.843,149.5,96.9,0.526
36.2,32253.5,35553.4,1.0989,1.3635,149.5,96.9,0.526
36.22,32146.0,35151.0,0.6313,0.3728,149.5,96.9,0.526
36.24,32076.8,35194.0,0.331,0.4787,149.5,96.9,0.526
36.26,31949.9,35100.0,-0.2207,0.2472,149.5,96.9,0.526
36.28,32026.2,35091.6,0.111,0.2267,149.5,96.9,0.526
36.3,31978.9,34907.0,-0.0948,-0.2279,149.5,96.9,0.526
36.32,31984.9,34988.0,-0.0688,-0.0284,149.5,96.9,0.526
36.34,31874.9,34779.7,-0.5466,-0.5413,149.5,96.9,0.526
36.36,31907.2,34659.9,-0.4062,-0.8362,149.5,96.9,0.526
36.38,31890.2,34658.4,-0.4804,-0.8401,149.5,96.9,0.526
36.4,31848.8,34629.4,-0.6603,-0.9113,149.5,96.9,0.526
36.42,31794.3,34613.6,-0.8969,-0.9502,149.5,96.9,0.526
36.44,31713.3,34453.2,-1.249,-1.3452,149.5,96.9,0.526
36.46,31739.1,34395.4,-1.1368,-1.4874,149.5,96.9,0.526
36.48,31801.1,34688.4,-0.8672,-0.7662,149.5,96.9,0.526
36.5,31901.5,34971.1,-0.431,-0.0702,149.5,96.9,0.526
36.52,32169.3,35280.8,0.733,0.6923,149.5,96.9,0.526
36.54,32285.1,35599.3,1.2361,1.4765,149.5,96.9,0.526
36.56,32306.9,35725.3,1.3307,1.7869,149.5,96.9,0.526
36.58,32377.3,35665.2,1.637,1.6387,149.5,96.9,0.526
36.6,32263.2,35504.3,1.1409,1.2426,149.5,96.9,0.526
36.62,32177.9,35325.7,0.7701,0.8029,149.5,96.9,0.526
36.64,32124.0,35187.0,0.5358,0.4615,149.5,96.9,0.526
36.66,32046.8,35052.6,0.2003,0.1304,149.5,96.9,0.526
36.68,32033.1,35137.1,0.141,0.3385,149.5,96.9,0.526
36.7,31996.2,35032.8,-0.0196,0.0817,149.5,96.9,0.526
36.72,31959.5,34929.0,-0.1788,-0.1738,149.5,96.9,0.526
36.74,31800.1,34743.9,-0.8718,-0.6296,149.5,96.9,0.526
36.76,31819.6,34704.0,-0.7869,-0.7278,149.5,96.9,0.526
36.78,31873.0,34727.4,-0.555,-0.6701,149.5,96.9,0.526
36.8,31806.9,34712.4,-0.8424,-0.7071,149.5,96.9,0.526
36.82,31795.0,34498.9,-0.8938,-1.2328,149.5,96.9,0.526
36.84,31777.3,34407.7,-0.9708,-1.4571,149.5,96.9,0.526
36.86,31750.1,34522.4,-1.0892,-1.1749,149.5,96.9,0.526
36.88,31775.0,34571.2,-0.981,-1.0546,149.5,96.9,0.526
36.9,31886.7,34906.6,-0.4956,-0.2288,149.5,96.9,0.526
36.92,32181.4,35190.2,0.7853,0.4694,149.5,96.9,0.526
36.94,32241.2,35477.9,1.0452,1.1776,149.5,96.9,0.526
36.96,32261.0,35747.0,1.1314,1.8402,149.5,96.9,0.526
36.98,32422.9,35691.5,1.8348,1.7035,149.5,96.9,0.526
37.0,32219.1,35572.8,0.9491,1.4112,149.5,96.9,0.526
37.02,32014.5,35391.8,0.0599,0.9657,149.5,96.9,0.526
37.04,32124.3,35203.8,0.5373,0.5029,149.5,96.9,0.526
37.06,32035.1,35208.6,0.1494,0.5147,149.5,96.9,0.526
37.08,31999.7,35056.8,-0.0045,0.141,149.5,96.9,0.526
37.1,31826.9,34971.8,-0.7552,-0.0683,149.5,96.9,0.526
37.12,31934.3,34843.4,-0.2884,-0.3844,149.5,96.9,0.526
37.14,32056.1,34695.6,0.2409,-0.7483,149.5,96.9,0.526
37.16,31833.4,34599.5,-0.7272,-0.9851,149.5,96.9,0.526
37.18,31821.1,34703.0,-0.7805,-0.7301,149.5,96.9,0.526
37.2,31827.9,34676.7,-0.7507,-0.795,149.5,96.9,0.526
37.22,31820.3,34544.7,-0.7842,-1.12,149.5,96.9,0.526
37.24,31763.2,34398.5,-1.0322,-1.4799,149.5,96.9,0.526
37.26,31718.3,34509.9,-1.2274,-1.2055,149.5,96.9,0.526
37.28,31770.0,34559.5,-1.0027,-1.0836,149.5,96.9,0.526
37.3,31918.8,34807.6,-0.3557,-0.4726,149.5,96.9,0.526
37.32,32100.3,35194.7,0.4328,0.4805,149.5,96.9,0.526
37.34,32373.7,35588.8,1.6214,1.4507,149.5,96.9,0.526
37.36,32329.4,35638.7,1.4288,1.5734,149.5,96.9,0.526
37.38,32307.8,35741.4,1.3347,1.8263,149.5,96.9,0.526
37.4,32321.1,35583.7,1.3926,1.4382,149.5,96.9,0.526
37.42,32170.6,35292.9,0.7383,0.7222,149.5,96.9,0.526
37.44,32036.7,35236.3,0.1563,0.5828,149.5,96.9,0.526
37.46,32090.3,35091.0,0.3894,0.2251,149.5,96.9,0.526
37.48,32129.9,35079.8,0.5615,0.1974,149.5,96.9,0.526
37.5,32019.4,34995.8,0.0815,-0.0092,149.5,96.9,0.526
37.52,31894.2,34876.1,-0.4629,-0.3041,149.5,96.9,0.526
37.54,31897.3,34784.3,-0.4495,-0.53,149.5,96.9,0.526
37.56,31835.8,34711.6,-0.7164,-0.7091,149.5,96.9,0.526
37.58,31865.2,34654.5,-0.589,-0.8497,149.5,96.9,0.526
37.6,31792.8,34642.9,-0.9036,-0.8782,149.5,96.9,0.526
37.62,31848.2,34579.6,-0.6628,-1.034,149.5,96.9,0.526
37.64,31673.8,34386.1,-1.4208,-1.5105,149.5,96.9,0.526
37.66,31726.4,34431.1,-1.192,-1.3995,149.5,96.9,0.526
37.68,31680.6,34627.9,-1.3911,-0.9151,149.5,96.9,0.526
37.7,31823.7,34852.5,-0.7693,-0.3621,149.5,96.9,0.526
37.72,32063.0,35155.0,0.2709,0.3826,149.5,96.9,0.526
37.74,32253.7,35537.1,1.0996,1.3235,149.5,96.9,0.526
37.76,32323.1,35788.6,1.4014,1.9427,149.5,96.9,0.526
37.78,32353.5,35787.0,1.5336,1.9387,149.5,96.9,0.526
37.8,32212.0,35592.9,0.9185,1.4608,149.5,96.9,0.526
37.82,32113.5,35325.0,0.4904,0.8013,149.5,96.9,0.526
37.84,32072.2,35213.2,0.3108,0.5259,149.5,96.9,0.526
37.86,32117.9,35137.4,0.5096,0.3393,149.5,96.9,0.526
37.88,31955.1,35056.1,-0.1982,0.1391,149.5,96.9,0.526
37.9,31952.5,34977.0,-0.2094,-0.0555,149.5,96.9,0.526
37.92,31958.0,34869.0,-0.1855,-0.3214,149.5,96.9,0.526
37.94,31749.5,34786.3,-1.0916,-0.5251,149.5,96.9,0.526
37.96,31852.3,34653.0,-0.6448,-0.8533,149.5,96.9,0.526
37.98,31852.8,34689.8,-0.6425,-0.7628,149.5,96.9,0.526
38.0,31820.6,34618.3,-0.7826,-0.9388,149.5,96.9,0.526
38.02,31775.8,34454.0,-0.9773,-1.3432,149.5,96.9,0.526
38.04,31703.3,34513.1,-1.2925,-1.1977,149.5,96.9,0.526
38.06,31762.2,34316.6,-1.0366,-1.6814,149.5,96.9,0.526
38.08,31848.3,34535.7,-0.6623,-1.142,149.5,96.9,0.526
38.1,31906.3,34823.5,-0.4104,-0.4334,149.5,96.9,0.526
38.12,32111.2,35156.9,0.4803,0.3873,149.5,96.9,0.526
38.14,32184.3,35526.7,0.7982,1.2977,149.5,96.9,0.526
38.16,32352.3,35761.1,1.5283,1.8749,149.5,96.9,0.526
38.18,32326.1,35692.2,1.4145,1.7052,149.5,96.9,0.526
38.2,32348.4,35599.4,1.5111,1.4769,149.5,96.9,0.526
38.22,32152.8,35339.7,0.661,0.8375,149.5,96.9,0.526
38.24,31989.9,35123.6,-0.0471,0.3054,149.5,96.9,0.526
38.26,32012.7,35172.3,0.0523,0.4253,149.5,96.9,0.526
38.28,32000.3,34982.1,-0.0015,-0.043,149.5,96.9,0.526
38.3,31890.2,34968.9,-0.4802,-0.0754,149.5,96.9,0.526
38.32,31951.5,34886.0,-0.2139,-0.2796,149.5,96.9,0.526
38.34,31913.8,34745.7,-0.3776,-0.625,149.5,96.9,0.526
38.36,31825.8,34794.3,-0.76,-0.5054,149.5,96.9,0.526
38.38,31902.0,34741.9,-0.429,-0.6343,149.5,96.9,0.526
38.4,31808.8,34696.6,-0.8341,-0.7459,149.5,96.9,0.526
38.42,31803.5,34661.5,-0.8568,-0.8325,149.5,96.9,0.526
38.44,31828.7,34516.1,-0.7477,-1.1904,149.5,96.9,0.526
38.46,31707.2,34395.6,-1.2754,-1.4871,149.5,96.9,0.526
38.48,31779.9,34522.5,-0.9596,-1.1746,149.5,96.9,0.526
38.5,31886.9,34776.0,-0.4943,-0.5505,149.5,96.9,0.526
38.52,32108.1,35224.8,0.4667,0.5545,149.5,96.9,0.526
38.54,32229.1,35507.5,0.9929,1.2505,149.5,96.9,0.526
38.56,32360.3,35746.6,1.5628,1.8393,149.5,96.9,0.526
38.58,32391.3,35662.9,1.6975,1.6331,149.5,96.9,0.526
38.6,32281.8,35553.2,1.2219,1.3631,149.5,96.9,0.526
38.62,32112.9,35344.5,0.4879,0.8492,149.5,96.9,0.526
38.64,32122.1,35136.2,0.5278,0.3363,149.5,96.9,0.526
38.66,32132.4,35123.7,0.5725,0.3055,149.5,96.9,0.526
38.68,32038.5,35043.6,0.1644,0.1083,149.5,96.9,0.526
38.7,32022.0,34949.4,0.0927,-0.1235,149.5,96.9,0.526
38.72,32058.9,34920.0,0.253,-0.196,149.5,96.9,0.526
38.74,31946.2,34715.4,-0.2368,-0.6997,149.5,96.9,0.526
38.76,31910.8,34578.3,-0.3906,-1.0373,149.5,96.9,0.526
38.78,31829.3,34658.7,-0.7449,-0.8393,149.5,96.9,0.526
38.8,31880.6,34686.1,-0.5219,-0.7718,149.5,96.9,0.526
38.82,31842.0,34705.7,-0.6897,-0.7235,149.5,96.9,0.526
38.84,31813.5,34532.1,-0.8136,-1.1509,149.5,96.9,0.526
38.86,31850.5,34428.0,-0.6527,-1.4072,149.5,96.9,0.526
38.88,31667.8,34509.1,-1.4468,-1.2076,149.5,96.9,0.526
38.9,31854.4,34745.0,-0.6359,-0.6268,149.5,96.9,0.526
38.92,32044.8,35089.1,0.1919,0.2204,149.5,96.9,0.526
38.94,32226.7,35545.5,0.9824,1.344,149.5,96.9,0.526
38.96,32268.1,35657.1,1.1623,1.6188,149.5,96.9,0.526
38.98,32338.6,35760.0,1.4684,1.8722,149.5,96.9,0.526
39.0,32381.0,35513.6,1.6528,1.2655,149.5,96.9,0.526
39.02,32222.0,35405.8,0.962,1.0,149.5,96.9,0.526
39.04,32207.7,35173.1,0.8997,0.4271,149.5,96.9,0.526
39.06,32055.7,35099.6,0.239,0.2463,149.5,96.9,0.526
39.08,31984.5,35119.6,-0.0703,0.2955,149.5,96.9,0.526
39.1,32030.2,35043.8,0.1283,0.1088,149.5,96.9,0.526
39.12,31876.3,34878.4,-0.5404,-0.2984,149.5,96.9,0.526
39.14,31915.9,34775.2,-0.3684,-0.5523,149.5,96.9,0.526
39.16,31835.0,34674.5,-0.7202,-0.8003,149.5,96.9,0.526
39.18,31942.0,34661.2,-0.2552,-0.8331,149.5,96.9,0.526
39.2,31879.5,34657.7,-0.5266,-0.8417,149.5,96.9,0.526
39.22,31832.4,34616.8,-0.7314,-0.9425,149.5,96.9,0.526
39.24,31774.4,34630.1,-0.9836,-0.9097,149.5,96.9,0.526
39.26,31694.9,34510.8,-1.329,-1.2034,149.5,96.9,0.526
39.28,31796.6,34665.9,-0.887,-0.8215,149.5,96.9,0.526
39.3,31883.2,34734.8,-0.5108,-0.6519,149.5,96.9,0.526
39.32,31973.9,35120.4,-0.1163,0.2976,149.5,96.9,0.526
39.34,32099.8,35438.7,0.4306,1.0811,149.5,96.9,0.526
39.36,32327.8,35719.7,1.4219,1.773,149.5,96.9,0.526
39.38,32340.5,35805.8,1.4769,1.9848,149.5,96.9,0.526
39.4,32272.8,35611.2,1.1827,1.5059,149.5,96.9,0.526
39.42,32238.8,35377.4,1.0347,0.9302,149.5,96.9,0.526
39.44,32031.1,35343.1,0.132,0.8456,149.5,96.9,0.526
39.46,32071.5,34973.0,0.3076,-0.0653,149.5,96.9,0.526
39.48,32049.5,35071.1,0.2123,0.176,149.5,96.9,0.526
39.5,32024.1,34969.8,0.1018,-0.0733,149.5,96.9,0.526
39.52,31893.5,34882.4,-0.4657,-0.2885,149.5,96.9,0.526
39.54,31825.4,34793.6,-0.7617,-0.507,149.5,96.9,0.526
39.56,31851.2,34687.6,-0.6496,-0.7682,149.5,96.9,0.526
39.58,31930.4,34727.0,-0.3054,-0.6711,149.5,96.9,0.526
39.6,31718.8,34640.3,-1.2251,-0.8846,149.5,96.9,0.526
39.62,31823.2,34648.5,-0.7715,-0.8644,149.5,96.9,0.526
39.64,31790.2,34616.7,-0.9147,-0.9427,149.5,96.9,0.526
39.66,31782.2,34368.5,-0.9497,-1.5537,149.5,96.9,0.526
39.68,31703.9,34439.2,-1.2897,-1.3798,149.5,96.9,0.526
39.7,31857.1,34664.8,-0.624,-0.8241,149.5,96.9,0.526
39.72,32022.8,35085.6,0.0962,0.2119,149.5,96.9,0.526
39.74,32244.1,35399.4,1.0577,0.9844,149.5,96.9,0.526
39.76,32328.8,35725.5,1.4262,1.7871,149.5,96.9,0.526
39.78,32493.0,35796.6,2.1398,1.9622,149.5,96.9,0.526
39.8,32275.2,35699.0,1.1931,1.7219,149.5,96.9,0.526
39.82,32104.2,35575.7,0.4497,1.4184,149.5,96.9,0.526
39.84,32115.8,35347.6,0.5004,0.8569,149.5,96.9,0.526
39.86,32179.9,35132.1,0.779,0.3262,149.5,96.9,0.526
39.88,32010.2,35038.9,0.0412,0.0969,149.5,96.9,0.526
39.9,31962.7,34993.7,-0.1652,-0.0145,149.5,96.9,0.526
39.92,32032.4,34985.2,0.138,-0.0355,149.5,96.9,0.526
39.94,31946.2,34689.3,-0.237,-0.7638,149.5,96.9,0.526
39.96,31827.6,34729.6,-0.7521,-0.6646,149.5,96.9,0.526
39.98,31755.1,34744.5,-1.0672,-0.6281,149.5,96.9,0.526
40.0,31895.8,34661.2,-0.4561,-0.8332,149.5,96.9,0.526
40.02,31740.8,34545.6,-1.1293,-1.1177,149.5,96.9,0.526
40.04,31775.7,34496.4,-0.9778,-1.2388,149.5,96.9,0.526
40.06,31851.1,34432.2,-0.6499,-1.397,149.5,96.9,0.526
40.08,31835.5,34428.0,-0.718,-1.4073,149.5,96.9,0.526
40.1,31817.6,34712.2,-0.7959,-0.7076,149.5,96.9,0.526
40.12,32071.7,35067.1,0.3084,0.1661,149.5,96.9,0.526
40.14,32167.4,35414.7,0.7245,1.022,149.5,96.9,0.526
40.16,32326.4,35685.3,1.4156,1.6882,149.5,96.9,0.526
40.18,32347.5,35796.0,1.5072,1.9608,149.5,96.9,0.526
40.2,32343.5,35618.7,1.4901,1.5244,149.5,96.9,0.526
40.22,32294.5,35381.6,1.2768,0.9406,149.5,96.9,0.526
40.24,32072.3,35263.9,0.3112,0.6506,149.5,96.9,0.526
40.26,32088.5,35188.5,0.3817,0.4652,149.5,96.9,0.526
40.28,32055.1,35116.3,0.2365,0.2874,149.5,96.9,0.526
40.3,32051.0,35005.8,0.2187,0.0153,149.5,96.9,0.526
40.32,31890.5,34884.4,-0.4788,-0.2835,149.5,96.9,0.526
40.34,31876.9,34739.4,-0.538,-0.6405,149.5,96.9,0.526
40.36,31898.2,34756.9,-0.4453,-0.5976,149.5,96.9,0.526
40.38,31855.0,34692.7,-0.6333,-0.7555,149.5,96.9,0.526
40.4,31834.0,34653.6,-0.7245,-0.8518,149.5,96.9,0.526
40.42,31830.8,34602.2,-0.7384,-0.9783,149.5,96.9,0.526
40.44,31817.7,34624.6,-0.7952,-0.9232,149.5,96.9,0.526
40.46,31760.8,34400.9,-1.0427,-1.4739,149.5,96.9,0.526
40.48,31760.3,34526.1,-1.0447,-1.1658,149.5,96.9,0.526
40.5,31805.0,34625.8,-0.8507,-0.9203,149.5,96.9,0.526
40.52,32075.3,34975.8,0.3242,-0.0585,149.5,96.9,0.526
40.54,32215.4,35455.0,0.9332,1.1213,149.5,96.9,0.526
40.56,32306.8,35647.7,1.3306,1.5957,149.5,96.9,0.526
40.58,32347.0,35753.7,1.5052,1.8567,149.5,96.9,0.526
40.6,32313.3,35623.5,1.3585,1.5361,149.5,96.9,0.526
40.62,32262.9,35403.0,1.1394,0.9932,149.5,96.9,0.526
40.64,32169.1,35259.4,0.7319,0.6397,149.5,96.9,0.526
40.66,32097.2,35089.0,0.4194,0.2202,149.5,96.9,0.526
40.68,32021.7,35109.5,0.0911,0.2706,149.5,96.9,0.526
40.7,32005.1,34930.4,0.019,-0.1703,149.5,96.9,0.526
40.72,31955.1,34812.5,-0.1983,-0.4607,149.5,96.9,0.526
40.74,31846.7,34859.0,-0.6693,-0.3462,149.5,96.9,0.526
40.76,31836.6,34750.7,-0.7132,-0.6128,149.5,96.9,0.526
40.78,31801.7,34613.4,-0.8647,-0.9507,149.5,96.9,0.526
40.8,31828.1,34671.3,-0.75,-0.8083,149.5,96.9,0.526
40.82,31905.7,34628.5,-0.4127,-0.9137,149.5,96.9,0.526
40.84,31802.1,34524.1,-0.8631,-1.1707,149.5,96.9,0.526
40.86,31766.1,34455.1,-1.0196,-1.3406,149.5,96.9,0.526
40.88,31723.3,34497.1,-1.2055,-1.2371,149.5,96.9,0.526
40.9,31849.4,34653.9,-0.6577,-0.8511,149.5,96.9,0.526
40.92,31953.3,34975.1,-0.2061,-0.0602,149.5,96.9,0.526
40.94,32090.9,35275.7,0.3921,0.6798,149.5,96.9,0.526
40.96,32261.4,35549.0,1.1332,1.3526,149.5,96.9,0.526
40.98,32367.1,35747.9,1.5925,1.8425,149.5,96.9,0.526
41.0,32333.8,35594.2,1.4479,1.464,149.5,96.9,0.526
41.02,32196.4,35377.1,0.8504,0.9294,149.5,96.9,0.526
41.04,32109.9,35276.3,0.4746,0.6812,149.5,96.9,0.526
41.06,32084.3,35117.5,0.3636,0.2904,149.5,96.9,0.526
41.08,31983.2,35198.5,-0.0761,0.4897,149.5,96.9,0.526
41.1,32027.6,34988.2,0.1171,-0.028,149.5,96.9,0.526
41.12,31979.4,34898.1,-0.0927,-0.2499,149.5,96.9,0.526
41.14,31917.6,34839.0,-0.3612,-0.3952,149.5,96.9,0.526
41.16,31876.5,34807.9,-0.5399,-0.472,149.5,96.9,0.526
41.18,31839.9,34722.8,-0.6986,-0.6814,149.5,96.9,0.526
41.2,31734.3,34679.5,-1.1576,-0.7881,149.5,96.9,0.526
41.22,31833.0,34686.4,-0.7287,-0.771,149.5,96.9,0.526
41.24,31894.4,34548.7,-0.4618,-1.1101,149.5,96.9,0.526
41.26,31750.1,34520.7,-1.0893,-1.179,149.5,96.9,0.526
41.28,31754.6,34450.1,-1.0695,-1.3528,149.5,96.9,0.526
41.3,31783.4,34693.4,-0.9443,-0.7538,149.5,96.9,0.526
41.32,31972.1,35045.1,-0.1242,0.112,149.5,96.9,0.526
41.34,32181.8,35398.8,0.7873,0.9829,149.5,96.9,0.526
41.36,32438.7,35586.8,1.9036,1.4457,149.5,96.9,0.526
41.38,32420.5,35775.3,1.8245,1.9098,149.5,96.9,0.526
41.4,32328.5,35757.4,1.4247,1.8659,149.5,96.9,0.526
41.42,32239.6,35531.3,1.0384,1.3091,149.5,96.9,0.526
41.44,32133.3,35220.2,0.5763,0.5431,149.5,96.9,0.526
41.46,32081.5,35068.9,0.3512,0.1707,149.5,96.9,0.526
41.48,32029.8,35089.9,0.1263,0.2224,149.5,96.9,0.526
41.5,32076.1,34948.1,0.3275,-0.1269,149.5,96.9,0.526
41.52,31913.0,34956.2,-0.3812,-0.1068,149.5,96.9,0.526
41.54,32010.2,34797.5,0.0414,-0.4975,149.5,96.9,0.526
41.56,31873.7,34746.7,-0.5521,-0.6225,149.5,96.9,0.526
41.58,31904.1,34750.3,-0.4198,-0.6137,149.5,96.9,0.526
41.6,31787.5,34599.8,-0.9267,-0.9842,149.5,96.9,0.526
41.62,31768.3,34658.2,-1.0101,-0.8406,149.5,96.9,0.526
41.64,31787.9,34649.1,-0.9247,-0.8629,149.5,96.9,0.526
41.66,31733.1,34390.6,-1.163,-1.4994,149.5,96.9,0.526
41.68,31806.2,34472.3,-0.8454,-1.2983,149.5,96.9,0.526
41.7,31786.2,34596.3,-0.9323,-0.9929,149.5,96.9,0.526
41.72,31879.3,34914.6,-0.5275,-0.2092,149.5,96.9,0.526
41.74,32066.0,35357.8,0.284,0.8818,149.5,96.9,0.526
41.76,32315.3,35648.7,1.3674,1.5981,149.5,96.9,0.526
41.78,32456.8,35816.4,1.9823,2.011,149.5,96.9,0.526
41.8,32379.8,35654.2,1.6475,1.6117,149.5,96.9,0.526
41.82,32198.6,35479.8,0.8601,1.1823,149.5,96.9,0.526
41.84,32098.0,35333.5,0.4231,0.8222,149.5,96.9,0.526
41.86,32073.6,35104.8,0.3169,0.2592,149.5,96.9,0.526
41.88,32059.7,35090.6,0.2566,0.2242,149.5,96.9,0.526
41.9,31970.6,35087.2,-0.1306,0.2156,149.5,96.9,0.526
41.92,31979.7,35085.8,-0.0912,0.2123,149.5,96.9,0.526
41.94,31969.2,34869.7,-0.1369,-0.3199,149.5,96.9,0.526
41.96,31884.1,34813.0,-0.5068,-0.4595,149.5,96.9,0.526
41.98,31915.5,34686.5,-0.3704,-0.7707,149.5,96.9,0.526
42.0,31833.8,34681.4,-0.7254,-0.7834,149.5,96.9,0.526
42.02,31792.2,34642.7,-0.9063,-0.8787,149.5,96.9,0.526
42.04,31824.0,34535.5,-0.7678,-1.1426,149.5,96.9,0.526
42.06,31818.5,34525.0,-0.7917,-1.1685,149.5,96.9,0.526
42.08,31803.5,34344.3,-0.8568,-1.6134,149.5,96.9,0.526
42.1,31855.3,34585.3,-0.632,-1.02,149.5,96.9,0.526
42.12,31993.2,34895.5,-0.0326,-0.2562,149.5,96.9,0.526
42.14,32117.0,35215.2,0.5053,0.5308,149.5,96.9,0.526
42.16,32339.7,35634.3,1.4733,1.5626,149.5,96.9,0.526
42.18,32343.6,35832.3,1.4905,2.0503,149.5,96.9,0.526
42.2,32351.2,35812.7,1.5232,2.002,149.5,96.9,0.526
42.22,32216.9,35559.5,0.9396,1.3785,149.5,96.9,0.526
42.24,32138.3,35311.0,0.5979,0.7668,149.5,96.9,0.526
42.26,32168.2,35171.3,0.7279,0.4229,149.5,96.9,0.526
42.28,31964.9,35048.0,-0.1557,0.1191,149.5,96.9,0.526
42.3,31950.3,34995.4,-0.2191,-0.0102,149.5,96.9,0.526
42.32,32006.2,34987.7,0.0239,-0.0292,149.5,96.9,0.526
42.34,31897.9,34870.0,-0.4469,-0.3191,149.5,96.9,0.526
42.36,31951.5,34709.0,-0.2137,-0.7155,149.5,96.9,0.526
42.38,31811.9,34775.1,-0.8204,-0.5528,149.5,96.9,0.526
42.4,31847.0,34639.6,-0.6678,-0.8862,149.5,96.9,0.526
42.42,31790.7,34588.5,-0.9128,-1.012,149.5,96.9,0.526
42.44,31739.0,34686.4,-1.1371,-0.7712,149.5,96.9,0.526
42.46,31831.6,34437.5,-0.7347,-1.3839,149.5,96.9,0.526
42.48,31718.4,34383.3,-1.2269,-1.5173,149.5,96.9,0.526
42.5,31790.9,34628.5,-0.9117,-0.9136,149.5,96.9,0.526
42.52,31943.9,34933.3,-0.247,-0.1632,149.5,96.9,0.526
42.54,32155.5,35194.9,0.6729,0.481,149.5,96.9,0.526
42.56,32295.8,35557.0,1.2826,1.3724,149.5,96.9,0.526
42.58,32398.7,35729.1,1.7299,1.7962,149.5,96.9,0.526
42.6,32301.5,35778.7,1.3072,1.9181,149.5,96.9,0.526
42.62,32202.7,35586.3,0.878,1.4446,149.5,96.9,0.526
42.64,32225.7,35333.9,0.978,0.8231,149.5,96.9,0.526
42.66,32024.9,35086.4,0.1052,0.2137,149.5,96.9,0.526
42.68,32067.7,35158.7,0.2911,0.3918,149.5,96.9,0.526
42.7,32053.8,34999.6,0.2306,0.0,149.5,96.9,0.526
42.72,32020.8,34949.1,0.0875,-0.1243,149.5,96.9,0.526
42.74,31927.6,34840.9,-0.3178,-0.3908,149.5,96.9,0.526
42.76,31946.9,34752.5,-0.2339,-0.6084,149.5,96.9,0.526
42.78,31876.7,34643.1,-0.5391,-0.8776,149.5,96.9,0.526
42.8,31865.8,34670.8,-0.5864,-0.8094,149.5,96.9,0.526
42.82,31821.1,34600.5,-0.7804,-0.9827,149.5,96.9,0.526
42.84,31779.2,34633.3,-0.9627,-0.9017,149.5,96.9,0.526
42.86,31811.3,34543.5,-0.8231,-1.1228,149.5,96.9,0.526
42.88,31783.2,34457.7,-0.9453,-1.3342,149.5,96.9,0.526
42.9,31759.1,34600.5,-1.0499,-0.9825,149.5,96.9,0.526
42.92,31866.9,34779.0,-0.5814,-0.543,149.5,96.9,0.526
42.94,32193.5,35204.9,0.8379,0.5055,149.5,96.9,0.526
42.96,32413.8,35571.4,1.7954,1.4078,149.5,96.9,0.526
42.98,32336.2,35759.5,1.4583,1.871,149.5,96.9,0.526
43.0,32294.5,35688.1,1.2768,1.6953,149.5,96.9,0.526
43.02,32296.5,35498.0,1.2858,1.227,149.5,96.9,0.526
43.04,32156.5,35335.7,0.6771,0.8274,149.5,96.9,0.526
43.06,32039.4,35245.9,0.1681,0.6065,149.5,96.9,0.526
43.08,32052.3,35135.3,0.2243,0.3341,149.5,96.9,0.526
43.1,32051.4,35084.2,0.2204,0.2083,149.5,96.9,0.526
43.12,31945.4,34981.8,-0.2403,-0.0438,149.5,96.9,0.526
43.14,31979.8,34833.1,-0.0908,-0.4098,149.5,96.9,0.526
43.16,31902.4,34826.6,-0.4272,-0.4259,149.5,96.9,0.526
43.18,31829.6,34658.6,-0.7435,-0.8395,149.5,96.9,0.526
43.2,31954.4,34583.6,-0.201,-1.0242,149.5,96.9,0.526
43.22,31865.0,34731.8,-0.5897,-0.6594,149.5,96.9,0.526
43.24,31792.5,34571.3,-0.9047,-1.0544,149.5,96.9,0.526
43.26,31795.3,34584.1,-0.8926,-1.0229,149.5,96.9,0.526
43.28,31706.9,34487.8,-1.2768,-1.2599,149.5,96.9,0.526
43.3,31770.2,34458.2,-1.0016,-1.333,149.5,96.9,0.526
43.32,31964.9,34763.3,-0.1555,-0.5818,149.5,96.9,0.526
43.34,32171.7,35238.5,0.7432,0.5882,149.5,96.9,0.526
43.36,32295.2,35528.2,1.2798,1.3014,149.5,96.9,0.526
43.38,32388.3,35792.0,1.6845,1.9511,149.5,96.9,0.526
43.4,32370.6,35754.3,1.6076,1.8581,149.5,96.9,0.526
43.42,32276.1,35495.8,1.1968,1.2216,149.5,96.9,0.526
43.44,32140.7,35315.0,0.6086,0.7767,149.5,96.9,0.526
43.46,31939.0,35155.0,-0.2679,0.3827,149.5,96.9,0.526
43.48,32038.6,35037.2,0.165,0.0927,149.5,96.9,0.526
43.5,32011.2,35002.9,0.0458,0.0081,149.5,96.9,0.526
43.52,31983.7,35009.8,-0.0737,0.0253,149.5,96.9,0.526
43.54,31944.2,34871.6,-0.2454,-0.3151,149.5,96.9,0.526
43.56,31960.6,34695.0,-0.1742,-0.7499,149.5,96.9,0.526
43.58,31752.3,34649.3,-1.0796,-0.8623,149.5,96.9,0.526
43.6,31776.3,34703.9,-0.9753,-0.7281,149.5,96.9,0.526
43.62,31874.0,34688.1,-0.5504,-0.7668,149.5,96.9,0.526
43.64,31866.3,34581.5,-0.5841,-1.0294,149.5,96.9,0.526
43.66,31701.1,34526.8,-1.3022,-1.1641,149.5,96.9,0.526
43.68,31707.4,34504.9,-1.2747,-1.2179,149.5,96.9,0.526
43.7,31763.6,34622.8,-1.0303,-0.9276,149.5,96.9,0.526
43.72,31945.7,34842.0,-0.2392,-0.3879,149.5,96.9,0.526
43.74,32143.4,35288.4,0.6201,0.7112,149.5,96.9,0.526
43.76,32247.6,35535.4,1.0732,1.3192,149.5,96.9,0.526
43.78,32356.1,35789.2,1.5447,1.944,149.5,96.9,0.526
43.8,32315.9,35738.7,1.3699,1.8198,149.5,96.9,0.526
43.82,32260.4,35506.1,1.1285,1.247,149.5,96.9,0.526
43.84,32301.5,35357.8,1.3074,0.882,149.5,96.9,0.526
43.86,31978.1,35197.2,-0.0981,0.4866,149.5,96.9,0.526
43.88,32041.6,35079.8,0.1778,0.1975,149.5,96.9,0.526
43.9,32034.8,35042.3,0.1485,0.1052,149.5,96.9,0.526
43.92,32101.3,35015.2,0.4373,0.0385,149.5,96.9,0.526
43.94,31964.6,34971.1,-0.1569,-0.0702,149.5,96.9,0.526
43.96,31900.9,34827.6,-0.4337,-0.4234,149.5,96.9,0.526
43.98,31850.9,34703.9,-0.6511,-0.7281,149.5,96.9,0.526
44.0,31835.2,34682.6,-0.719,-0.7804,149.5,96.9,0.526
44.02,31861.8,34660.8,-0.6035,-0.834,149.5,96.9,0.526
44.04,31775.7,34651.2,-0.978,-0.8577,149.5,96.9,0.526
44.06,31729.5,34507.2,-1.1785,-1.2122,149.5,96.9,0.526
44.08,31705.1,34540.4,-1.2846,-1.1306,149.5,96.9,0.526
44.1,31658.9,34585.3,-1.4855,-1.02,149.5,96.9,0.526
44.12,31866.4,34754.1,-0.5837,-0.6044,149.5,96.9,0.526
44.14,32018.5,35125.4,0.0775,0.3098,149.5,96.9,0.526
44.16,32266.4,35477.3,1.1547,1.1761,149.5,96.9,0.526
44.18,32309.1,35712.4,1.3403,1.755,149.5,96.9,0.526
44.2,32345.7,35837.8,1.4993,2.0638,149.5,96.9,0.526
44.22,32197.5,35582.7,0.8553,1.4356,149.5,96.9,0.526
44.24,32136.1,35393.8,0.5884,0.9707,149.5,96.9,0.526
44.26,31987.8,35139.5,-0.056,0.3446,149.5,96.9,0.526
44.28,32039.5,35038.7,0.1687,0.0963,149.5,96.9,0.526
44.3,32024.9,35082.5,0.1051,0.2042,149.5,96.9,0.526
44.32,32002.7,35074.8,0.0088,0.1852,149.5,96.9,0.526
44.34,32030.2,34863.8,0.1281,-0.3343,149.5,96.9,0.526
44.36,31929.2,34773.8,-0.3107,-0.5558,149.5,96.9,0.526
44.38,31834.4,34652.0,-0.7227,-0.8558,149.5,96.9,0.526
44.4,31808.3,34704.0,-0.8362,-0.7277,149.5,96.9,0.526
44.42,31877.7,34693.6,-0.5346,-0.7534,149.5,96.9,0.526
44.44,31784.0,34644.8,-0.9417,-0.8735,149.5,96.9,0.526
44.46,31803.2,34485.7,-0.8584,-1.2652,149.5,96.9,0.526
44.48,31759.4,34502.3,-1.0487,-1.2243,149.5,96.9,0.526
44.5,31745.5,34463.9,-1.109,-1.319,149.5,96.9,0.526
44.52,31842.2,34686.9,-0.689,-0.7699,149.5,96.9,0.526
44.54,32078.6,35104.8,0.3386,0.2592,149.5,96.9,0.526
44.56,32157.7,35564.1,0.6825,1.3899,149.5,96.9,0.526
44.58,32326.7,35690.5,1.4167,1.7012,149.5,96.9,0.526
44.6,32410.3,35658.8,1.7801,1.6231,149.5,96.9,0.526
44.62,32324.9,35586.0,1.4092,1.4439,149.5,96.9,0.526
44.64,32292.1,35326.1,1.2665,0.8039,149.5,96.9,0.526
44.66,32128.5,35209.1,0.5554,0.5159,149.5,96.9,0.526
44.68,32111.0,35098.5,0.4792,0.2436,149.5,96.9,0.526
44.7,32051.5,34901.9,0.221,-0.2405,149.5,96.9,0.526
44.72,32013.6,35032.1,0.0561,0.0802,149.5,96.9,0.526
44.74,31879.6,34936.0,-0.5264,-0.1565,149.5,96.9,0.526
44.76,31804.7,34750.4,-0.8516,-0.6134,149.5,96.9,0.526
44.78,31948.6,34652.2,-0.2265,-0.8553,149.5,96.9,0.526
44.8,31843.3,34594.5,-0.6841,-0.9973,149.5,96.9,0.526
44.82,31894.5,34736.1,-0.4614,-0.6486,149.5,96.9,0.526
44.84,31820.0,34595.3,-0.7853,-0.9953,149.5,96.9,0.526
44.86,31887.6,34427.9,-0.4916,-1.4074,149.5,96.9,0.526
