timestamp,raw_red,raw_ir,filtered_red,filtered_ir,heart_rate,spo2,ac_dc_ratio
0.0,32017.6,35120.6,1.1843,1.1899,144.8,96.2,0.553
0.02,32190.8,35527.2,1.1953,1.2135,144.8,96.2,0.553
0.04,32440.7,35721.5,1.2111,1.2248,144.8,96.2,0.553
0.06,32378.0,35731.9,1.2071,1.2254,144.8,96.2,0.553
0.08,32233.9,35600.1,1.198,1.2177,144.8,96.2,0.553
0.1,32221.0,35466.7,1.1972,1.21,144.8,96.2,0.553
0.12,32174.0,35369.5,1.1942,1.2044,144.8,96.2,0.553
0.14,32019.5,35077.6,1.1844,1.1875,144.8,96.2,0.553
0.16,32016.6,35075.3,1.1842,1.1873,144.8,96.2,0.553
0.18,32024.7,35019.4,1.1847,1.1841,144.8,96.2,0.553
0.2,31944.9,34904.5,1.1797,1.1774,144.8,96.2,0.553
0.22,31976.3,34770.4,1.1817,1.1697,144.8,96.2,0.553
0.24,31846.8,34718.9,1.1734,1.1667,144.8,96.2,0.553
0.26,31849.8,34743.1,1.1736,1.1681,144.8,96.2,0.553
0.28,31781.1,34656.6,1.1693,1.1631,144.8,96.2,0.553
0.3,31732.3,34650.7,1.1662,1.1627,144.8,96.2,0.553
0.32,31825.5,34596.4,1.1721,1.1596,144.8,96.2,0.553
0.34,31762.6,34505.2,1.1681,1.1543,144.8,96.2,0.553
0.36,31727.7,34373.9,1.1659,1.1467,144.8,96.2,0.553
0.38,31832.1,34568.1,1.1725,1.1579,144.8,96.2,0.553
0.4,32008.7,34958.5,1.1837,1.1806,144.8,96.2,0.553
0.42,32113.9,35308.2,1.1904,1.2008,144.8,96.2,0.553
0.44,32346.6,35602.9,1.2051,1.2179,144.8,96.2,0.553
0.46,32426.7,35724.4,1.2102,1.2249,144.8,96.2,0.553
0.48,32314.9,35657.2,1.2031,1.221,144.8,96.2,0.553
0.5,32408.6,35544.9,1.2091,1.2145,144.8,96.2,0.553
0.52,32048.6,35252.4,1.1862,1.1976,144.8,96.2,0.553
0.54,32044.7,35208.6,1.186,1.195,144.8,96.2,0.553
0.56,32020.7,35108.1,1.1845,1.1892,144.8,96.2,0.553
0.58,32044.4,34990.9,1.186,1.1824,144.8,96.2,0.553
0.6,31970.4,35018.1,1.1813,1.184,144.8,96.2,0.553
0.62,31900.9,34812.8,1.1769,1.1721,144.8,96.2,0.553
0.64,31854.6,34774.7,1.1739,1.1699,144.8,96.2,0.553
0.66,31846.5,34777.8,1.1734,1.1701,144.8,96.2,0.553
0.68,31801.7,34675.8,1.1706,1.1642,144.8,96.2,0.553
0.7,31924.2,34586.5,1.1784,1.159,144.8,96.2,0.553
0.72,31835.6,34558.6,1.1727,1.1574,144.8,96.2,0.553
0.74,31714.2,34650.6,1.165,1.1627,144.8,96.2,0.553
0.76,31745.9,34345.4,1.1671,1.145,144.8,96.2,0.553
0.78,31650.6,34452.8,1.161,1.1513,144.8,96.2,0.553
0.8,31851.0,34681.3,1.1737,1.1645,144.8,96.2,0.553
0.82,32048.0,35055.2,1.1862,1.1862,144.8,96.2,0.553
0.84,32098.5,35443.1,1.1894,1.2086,144.8,96.2,0.553
0.86,32381.2,35626.5,1.2073,1.2193,144.8,96.2,0.553
0.88,32363.8,35715.6,1.2062,1.2244,144.8,96.2,0.553
0.9,32312.3,35700.7,1.203,1.2236,144.8,96.2,0.553
0.92,32263.9,35533.8,1.1999,1.2139,144.8,96.2,0.553
0.94,32189.4,35318.2,1.1952,1.2014,144.8,96.2,0.553
0.96,32111.3,35226.2,1.1902,1.1961,144.8,96.2,0.553
0.98,32013.7,35092.1,1.184,1.1883,144.8,96.2,0.553
1.0,31992.5,35114.9,1.1827,1.1896,144.8,96.2,0.553
1.02,31973.1,34992.7,1.1815,1.1825,144.8,96.2,0.553
1.04,31840.8,34917.3,1.1731,1.1782,144.8,96.2,0.553
1.06,31954.2,34813.7,1.1803,1.1722,144.8,96.2,0.553
1.08,31795.9,34775.2,1.1702,1.1699,144.8,96.2,0.553
1.1,31842.2,34736.5,1.1732,1.1677,144.8,96.2,0.553
1.12,31860.9,34649.9,1.1743,1.1627,144.8,96.2,0.553
1.14,31804.3,34624.6,1.1708,1.1612,144.8,96.2,0.553
1.16,31722.9,34449.8,1.1656,1.1511,144.8,96.2,0.553
1.18,31737.5,34449.4,1.1665,1.1511,144.8,96.2,0.553
1.2,31767.5,34535.4,1.1684,1.156,144.8,96.2,0.553
1.22,31816.6,34687.5,1.1715,1.1649,144.8,96.2,0.553
1.24,32123.5,35121.9,1.191,1.19,144.8,96.2,0.553
1.26,32237.0,35473.4,1.1982,1.2104,144.8,96.2,0.553
1.28,32383.5,35788.9,1.2075,1.2287,144.8,96.2,0.553
1.3,32496.7,35693.9,1.2146,1.2232,144.8,96.2,0.553
1.32,32322.9,35549.2,1.2036,1.2148,144.8,96.2,0.553
1.34,32267.6,35405.8,1.2001,1.2065,144.8,96.2,0.553
1.36,32129.4,35200.8,1.1914,1.1946,144.8,96.2,0.553
1.38,32116.0,35082.3,1.1905,1.1877,144.8,96.2,0.553
1.4,31960.9,35030.0,1.1807,1.1847,144.8,96.2,0.553
1.42,32035.9,35025.6,1.1854,1.1844,144.8,96.2,0.553
1.44,32013.6,34977.1,1.184,1.1816,144.8,96.2,0.553
1.46,31896.9,34762.3,1.1766,1.1692,144.8,96.2,0.553
1.48,31883.2,34704.3,1.1758,1.1658,144.8,96.2,0.553
1.5,31823.5,34604.9,1.172,1.1601,144.8,96.2,0.553
1.52,31868.2,34700.8,1.1748,1.1656,144.8,96.2,0.553
1.54,31778.0,34611.1,1.1691,1.1604,144.8,96.2,0.553
1.56,31880.3,34532.5,1.1756,1.1559,144.8,96.2,0.553
1.58,31715.0,34544.3,1.1651,1.1566,144.8,96.2,0.553
1.6,31783.2,34418.8,1.1694,1.1493,144.8,96.2,0.553
1.62,31770.0,34618.2,1.1686,1.1608,144.8,96.2,0.553
1.64,31894.2,34758.0,1.1765,1.1689,144.8,96.2,0.553
1.66,32086.6,35277.2,1.1886,1.199,144.8,96.2,0.553
1.68,32243.0,35526.8,1.1986,1.2135,144.8,96.2,0.553
1.7,32308.1,35707.3,1.2027,1.2239,144.8,96.2,0.553
1.72,32323.6,35700.1,1.2037,1.2235,144.8,96.2,0.553
1.74,32290.2,35518.8,1.2016,1.213,144.8,96.2,0.553
1.76,32183.9,35230.6,1.1948,1.1963,144.8,96.2,0.553
1.78,32182.2,35241.5,1.1947,1.197,144.8,96.2,0.553
1.8,32088.4,35156.9,1.1888,1.1921,144.8,96.2,0.553
1.82,32066.0,35079.5,1.1873,1.1876,144.8,96.2,0.553
1.84,32065.6,34958.5,1.1873,1.1806,144.8,96.2,0.553
1.86,31971.6,34859.7,1.1814,1.1748,144.8,96.2,0.553
1.88,31982.3,34731.4,1.182,1.1674,144.8,96.2,0.553
1.9,31809.0,34718.8,1.1711,1.1667,144.8,96.2,0.553
1.92,31875.9,34643.6,1.1753,1.1623,144.8,96.2,0.553
1.94,31854.0,34625.8,1.1739,1.1613,144.8,96.2,0.553
1.96,31824.1,34613.7,1.172,1.1606,144.8,96.2,0.553
1.98,31775.2,34587.6,1.1689,1.1591,144.8,96.2,0.553
2.0,31776.8,34485.6,1.169,1.1532,144.8,96.2,0.553
2.02,31717.9,34581.9,1.1653,1.1587,144.8,96.2,0.553
2.04,31824.9,34574.9,1.1721,1.1583,144.8,96.2,0.553
2.06,32013.8,34931.5,1.184,1.179,144.8,96.2,0.553
2.08,32110.1,35333.9,1.1901,1.2023,144.8,96.2,0.553
2.1,32339.0,35646.8,1.2046,1.2204,144.8,96.2,0.553
2.12,32424.8,35708.5,1.2101,1.224,144.8,96.2,0.553
2.14,32201.9,35657.7,1.196,1.2211,144.8,96.2,0.553
2.16,32160.1,35549.8,1.1933,1.2148,144.8,96.2,0.553
2.18,32185.5,35309.0,1.1949,1.2009,144.8,96.2,0.553
2.2,32053.0,35184.5,1.1865,1.1937,144.8,96.2,0.553
2.22,32054.1,35149.5,1.1866,1.1916,144.8,96.2,0.553
2.24,31990.4,34976.2,1.1826,1.1816,144.8,96.2,0.553
2.26,32052.6,35072.6,1.1865,1.1872,144.8,96.2,0.553
2.28,32026.7,34769.0,1.1849,1.1696,144.8,96.2,0.553
2.3,31939.9,34795.9,1.1793,1.1711,144.8,96.2,0.553
2.32,31830.5,34730.2,1.1724,1.1673,144.8,96.2,0.553
2.34,31764.8,34687.8,1.1683,1.1649,144.8,96.2,0.553
2.36,31928.2,34603.6,1.1786,1.16,144.8,96.2,0.553
2.38,31795.4,34695.5,1.1702,1.1653,144.8,96.2,0.553
2.4,31745.7,34549.1,1.167,1.1568,144.8,96.2,0.553
2.42,31723.5,34373.7,1.1656,1.1467,144.8,96.2,0.553
2.44,31838.6,34484.4,1.1729,1.1531,144.8,96.2,0.553
2.46,31895.1,34767.7,1.1765,1.1695,144.8,96.2,0.553
2.48,32066.4,35048.9,1.1874,1.1858,144.8,96.2,0.553
2.5,32327.9,35374.6,1.2039,1.2047,144.8,96.2,0.553
2.52,32320.4,35700.1,1.2035,1.2235,144.8,96.2,0.553
2.54,32377.0,35701.8,1.2071,1.2236,144.8,96.2,0.553
2.56,32279.9,35632.4,1.2009,1.2196,144.8,96.2,0.553
2.58,32228.3,35488.0,1.1976,1.2112,144.8,96.2,0.553
2.6,32148.6,35317.7,1.1926,1.2014,144.8,96.2,0.553
2.62,32109.4,35120.8,1.1901,1.19,144.8,96.2,0.553
2.64,32133.5,35055.5,1.1916,1.1862,144.8,96.2,0.553
2.66,32005.9,35088.4,1.1835,1.1881,144.8,96.2,0.553
2.68,31872.2,34972.3,1.1751,1.1814,144.8,96.2,0.553
2.7,31954.4,34861.7,1.1803,1.1749,144.8,96.2,0.553
2.72,31819.5,34762.8,1.1717,1.1692,144.8,96.2,0.553
2.74,31869.3,34742.4,1.1749,1.168,144.8,96.2,0.553
2.76,31781.5,34729.2,1.1693,1.1673,144.8,96.2,0.553
2.78,31782.1,34599.7,1.1693,1.1598,144.8,96.2,0.553
2.8,31761.5,34652.8,1.168,1.1628,144.8,96.2,0.553
2.82,31816.4,34499.2,1.1715,1.1539,144.8,96.2,0.553
2.84,31801.4,34516.4,1.1706,1.1549,144.8,96.2,0.553
2.86,31815.6,34541.4,1.1715,1.1564,144.8,96.2,0.553
2.88,31881.6,34810.8,1.1757,1.172,144.8,96.2,0.553
2.9,32037.9,35084.2,1.1856,1.1878,144.8,96.2,0.553
2.92,32240.0,35451.5,1.1984,1.2091,144.8,96.2,0.553
2.94,32424.2,35754.7,1.21,1.2267,144.8,96.2,0.553
2.96,32371.1,35736.5,1.2067,1.2256,144.8,96.2,0.553
2.98,32250.0,35608.9,1.199,1.2182,144.8,96.2,0.553
3.0,32288.4,35339.1,1.2014,1.2026,144.8,96.2,0.553
3.02,32110.3,35160.4,1.1902,1.1923,144.8,96.2,0.553
3.04,32074.4,35113.8,1.1879,1.1896,144.8,96.2,0.553
3.06,32057.3,35074.2,1.1868,1.1873,144.8,96.2,0.553
3.08,32029.8,35019.0,1.185,1.1841,144.8,96.2,0.553
3.1,31924.8,34908.7,1.1784,1.1777,144.8,96.2,0.553
3.12,31891.4,34809.8,1.1763,1.1719,144.8,96.2,0.553
3.14,31860.3,34754.1,1.1743,1.1687,144.8,96.2,0.553
3.16,31756.0,34720.5,1.1677,1.1668,144.8,96.2,0.553
3.18,31840.9,34730.5,1.1731,1.1673,144.8,96.2,0.553
3.2,31819.7,34618.2,1.1717,1.1608,144.8,96.2,0.553
3.22,31795.0,34514.5,1.1702,1.1548,144.8,96.2,0.553
3.24,31723.1,34479.0,1.1656,1.1528,144.8,96.2,0.553
3.26,31653.4,34488.1,1.1612,1.1533,144.8,96.2,0.553
3.28,31716.9,34514.0,1.1652,1.1548,144.8,96.2,0.553
3.3,31988.4,34891.3,1.1824,1.1767,144.8,96.2,0.553
3.32,32189.3,35196.3,1.1952,1.1943,144.8,96.2,0.553
3.34,32345.6,35601.5,1.2051,1.2178,144.8,96.2,0.553
3.36,32423.0,35777.5,1.21,1.228,144.8,96.2,0.553
3.38,32417.8,35656.9,1.2096,1.221,144.8,96.2,0.553
3.4,32348.1,35548.8,1.2052,1.2148,144.8,96.2,0.553
3.42,32192.3,35339.5,1.1954,1.2026,144.8,96.2,0.553
3.44,32067.5,35277.0,1.1874,1.199,144.8,96.2,0.553
3.46,31959.2,35151.7,1.1806,1.1917,144.8,96.2,0.553
3.48,32012.7,35071.8,1.184,1.1871,144.8,96.2,0.553
3.5,32012.0,35008.8,1.1839,1.1835,144.8,96.2,0.553
3.52,31951.4,34954.9,1.1801,1.1803,144.8,96.2,0.553
3.54,31852.3,34809.3,1.1738,1.1719,144.8,96.2,0.553
3.56,31857.5,34717.7,1.1741,1.1666,144.8,96.2,0.553
3.58,31846.5,34727.7,1.1734,1.1672,144.8,96.2,0.553
3.6,31736.3,34765.8,1.1664,1.1694,144.8,96.2,0.553
3.62,31822.3,34617.2,1.1719,1.1608,144.8,96.2,0.553
3.64,31728.2,34496.2,1.1659,1.1538,144.8,96.2,0.553
3.66,31721.0,34463.7,1.1655,1.1519,144.8,96.2,0.553
3.68,31676.9,34457.6,1.1627,1.1515,144.8,96.2,0.553
3.7,31864.6,34709.3,1.1746,1.1661,144.8,96.2,0.553
3.72,32015.7,35030.5,1.1842,1.1847,144.8,96.2,0.553
3.74,32241.0,35453.0,1.1984,1.2092,144.8,96.2,0.553
3.76,32380.6,35630.6,1.2073,1.2195,144.8,96.2,0.553
3.78,32431.1,35791.1,1.2105,1.2288,144.8,96.2,0.553
3.8,32360.8,35653.2,1.206,1.2208,144.8,96.2,0.553
3.82,32218.1,35480.1,1.197,1.2108,144.8,96.2,0.553
3.84,32130.7,35341.3,1.1914,1.2027,144.8,96.2,0.553
3.86,32114.4,35195.1,1.1904,1.1943,144.8,96.2,0.553
3.88,32082.3,35173.8,1.1884,1.193,144.8,96.2,0.553
3.9,31978.4,35100.7,1.1818,1.1888,144.8,96.2,0.553
3.92,32071.6,34991.9,1.1877,1.1825,144.8,96.2,0.553
3.94,31873.4,34904.9,1.1751,1.1774,144.8,96.2,0.553
3.96,31879.7,34742.1,1.1755,1.168,144.8,96.2,0.553
3.98,31842.8,34690.9,1.1732,1.165,144.8,96.2,0.553
4.0,31790.3,34713.0,1.1699,1.1663,144.8,96.2,0.553
4.02,31795.9,34625.8,1.1702,1.1613,144.8,96.2,0.553
4.04,31722.3,34590.4,1.1656,1.1592,144.8,96.2,0.553
4.06,31776.8,34536.9,1.169,1.1561,144.8,96.2,0.553
4.08,31637.3,34371.6,1.1602,1.1465,144.8,96.2,0.553
4.1,31846.4,34567.9,1.1734,1.1579,144.8,96.2,0.553
4.12,31829.8,34789.9,1.1724,1.1708,144.8,96.2,0.553
4.14,32016.2,35102.4,1.1842,1.1889,144.8,96.2,0.553
4.16,32245.6,35495.7,1.1987,1.2117,144.8,96.2,0.553
4.18,32290.8,35692.8,1.2016,1.2231,144.8,96.2,0.553
4.2,32281.2,35801.6,1.201,1.2294,144.8,96.2,0.553
4.22,32318.4,35629.7,1.2033,1.2194,144.8,96.2,0.553
4.24,32232.8,35340.5,1.1979,1.2027,144.8,96.2,0.553
4.26,32231.3,35265.5,1.1978,1.1983,144.8,96.2,0.553
4.28,32045.5,35095.5,1.186,1.1885,144.8,96.2,0.553
4.3,32106.1,35040.3,1.1899,1.1853,144.8,96.2,0.553
4.32,31943.9,34999.9,1.1796,1.183,144.8,96.2,0.553
4.34,31943.7,34913.6,1.1796,1.178,144.8,96.2,0.553
4.36,31943.2,34747.7,1.1796,1.1683,144.8,96.2,0.553
4.38,31920.9,34673.2,1.1781,1.164,144.8,96.2,0.553
4.4,31894.6,34715.4,1.1765,1.1665,144.8,96.2,0.553
4.42,31887.0,34645.9,1.176,1.1624,144.8,96.2,0.553
4.44,31788.0,34710.9,1.1697,1.1662,144.8,96.2,0.553
4.46,31789.7,34533.7,1.1698,1.1559,144.8,96.2,0.553
4.48,31679.9,34376.9,1.1629,1.1469,144.8,96.2,0.553
4.5,31808.7,34521.7,1.171,1.1552,144.8,96.2,0.553
4.52,31726.8,34545.8,1.1658,1.1566,144.8,96.2,0.553
4.54,31890.7,34793.9,1.1762,1.171,144.8,96.2,0.553
4.56,32140.4,35152.0,1.1921,1.1918,144.8,96.2,0.553
4.58,32234.3,35561.7,1.198,1.2155,144.8,96.2,0.553
4.6,32455.0,35726.8,1.212,1.2251,144.8,96.2,0.553
4.62,32345.3,35713.6,1.205,1.2243,144.8,96.2,0.553
4.64,32264.5,35576.1,1.1999,1.2163,144.8,96.2,0.553
4.66,32169.1,35400.1,1.1939,1.2061,144.8,96.2,0.553
4.68,32175.0,35197.3,1.1943,1.1944,144.8,96.2,0.553
4.7,32054.3,35138.7,1.1866,1.191,144.8,96.2,0.553
4.72,32003.5,35039.0,1.1834,1.1852,144.8,96.2,0.553
4.74,31967.2,34968.3,1.1811,1.1811,144.8,96.2,0.553
4.76,31951.1,34913.9,1.1801,1.178,144.8,96.2,0.553
4.78,31837.2,34855.1,1.1728,1.1746,144.8,96.2,0.553
4.8,31858.4,34660.5,1.1742,1.1633,144.8,96.2,0.553
4.82,31736.3,34709.1,1.1664,1.1661,144.8,96.2,0.553
4.84,31762.2,34646.9,1.1681,1.1625,144.8,96.2,0.553
4.86,31856.6,34508.8,1.1741,1.1545,144.8,96.2,0.553
4.88,31801.4,34528.2,1.1706,1.1556,144.8,96.2,0.553
4.9,31779.0,34502.8,1.1692,1.1542,144.8,96.2,0.553
4.92,31722.1,34439.4,1.1655,1.1505,144.8,96.2,0.553
4.94,31722.1,34581.8,1.1655,1.1587,144.8,96.2,0.553
4.96,31946.7,34965.1,1.1798,1.1809,144.8,96.2,0.553
4.98,32131.0,35321.4,1.1915,1.2016,144.8,96.2,0.553
5.0,32292.7,35621.7,1.2017,1.219,144.8,96.2,0.553
5.02,32456.3,35788.9,1.2121,1.2287,144.8,96.2,0.553
5.04,32356.3,35695.2,1.2057,1.2232,144.8,96.2,0.553
5.06,32199.1,35590.1,1.1958,1.2172,144.8,96.2,0.553
5.08,32113.3,35331.0,1.1903,1.2021,144.8,96.2,0.553
5.1,32049.1,35283.2,1.1863,1.1994,144.8,96.2,0.553
5.12,32093.3,35119.0,1.1891,1.1899,144.8,96.2,0.553
5.14,31992.2,35029.5,1.1827,1.1847,144.8,96.2,0.553
5.16,32073.8,34993.0,1.1878,1.1826,144.8,96.2,0.553
5.18,31943.2,34791.9,1.1796,1.1709,144.8,96.2,0.553
5.2,31960.6,34716.0,1.1807,1.1665,144.8,96.2,0.553
5.22,31955.5,34718.0,1.1803,1.1666,144.8,96.2,0.553
5.24,31798.9,34681.1,1.1704,1.1645,144.8,96.2,0.553
5.26,31937.4,34634.9,1.1792,1.1618,144.8,96.2,0.553
5.28,31815.9,34649.3,1.1715,1.1626,144.8,96.2,0.553
5.3,31766.3,34552.2,1.1683,1.157,144.8,96.2,0.553
5.32,31759.5,34534.0,1.1679,1.156,144.8,96.2,0.553
5.34,31828.7,34492.5,1.1723,1.1536,144.8,96.2,0.553
5.36,31823.7,34782.6,1.172,1.1704,144.8,96.2,0.553
5.38,32035.5,35070.6,1.1854,1.187,144.8,96.2,0.553
5.4,32283.3,35420.9,1.2011,1.2073,144.8,96.2,0.553
5.42,32332.4,35652.5,1.2042,1.2208,144.8,96.2,0.553
5.44,32410.4,35740.5,1.2092,1.2259,144.8,96.2,0.553
5.46,32308.8,35699.1,1.2027,1.2235,144.8,96.2,0.553
5.48,32238.3,35391.8,1.1983,1.2057,144.8,96.2,0.553
5.5,32175.7,35303.7,1.1943,1.2006,144.8,96.2,0.553
5.52,32064.1,35242.2,1.1872,1.197,144.8,96.2,0.553
5.54,32054.7,35155.3,1.1866,1.192,144.8,96.2,0.553
5.56,31932.1,35054.7,1.1789,1.1861,144.8,96.2,0.553
5.58,32040.7,35019.3,1.1857,1.1841,144.8,96.2,0.553
5.6,31918.1,34882.0,1.178,1.1761,144.8,96.2,0.553
5.62,31944.3,34728.4,1.1796,1.1672,144.8,96.2,0.553
5.64,31883.5,34737.1,1.1758,1.1677,144.8,96.2,0.553
5.66,31823.8,34714.4,1.172,1.1664,144.8,96.2,0.553
5.68,31899.7,34685.8,1.1768,1.1648,144.8,96.2,0.553
5.7,31823.0,34563.2,1.1719,1.1576,144.8,96.2,0.553
5.72,31752.0,34539.0,1.1674,1.1562,144.8,96.2,0.553
5.74,31757.1,34494.7,1.1678,1.1537,144.8,96.2,0.553
5.76,31735.7,34526.9,1.1664,1.1555,144.8,96.2,0.553
5.78,31786.8,34759.6,1.1696,1.169,144.8,96.2,0.553
5.8,32046.2,35171.9,1.1861,1.1929,144.8,96.2,0.553
5.82,32222.4,35508.5,1.1973,1.2124,144.8,96.2,0.553
5.84,32343.3,35801.9,1.2049,1.2294,144.8,96.2,0.553
5.86,32332.8,35747.4,1.2043,1.2263,144.8,96.2,0.553
5.88,32288.0,35664.9,1.2014,1.2215,144.8,96.2,0.553
5.9,32191.9,35316.2,1.1953,1.2013,144.8,96.2,0.553
5.92,32115.0,35220.8,1.1904,1.1958,144.8,96.2,0.553
5.94,32085.8,35118.4,1.1886,1.1898,144.8,96.2,0.553
5.96,31991.5,35151.7,1.1826,1.1918,144.8,96.2,0.553
5.98,31962.0,34992.7,1.1808,1.1825,144.8,96.2,0.553
6.0,32022.3,34825.5,1.1846,1.1728,144.8,96.2,0.553
6.02,32000.2,34840.0,1.1832,1.1737,144.8,96.2,0.553
6.04,31843.0,34832.0,1.1732,1.1732,144.8,96.2,0.553
6.06,31816.4,34695.3,1.1715,1.1653,144.8,96.2,0.553
6.08,31827.9,34697.7,1.1722,1.1654,144.8,96.2,0.553
6.1,31803.0,34628.9,1.1707,1.1615,144.8,96.2,0.553
6.12,31814.1,34585.3,1.1714,1.1589,144.8,96.2,0.553
6.14,31770.0,34531.7,1.1686,1.1558,144.8,96.2,0.553
6.16,31733.4,34494.6,1.1663,1.1537,144.8,96.2,0.553
6.18,31772.8,34512.2,1.1688,1.1547,144.8,96.2,0.553
6.2,31924.0,34804.0,1.1783,1.1716,144.8,96.2,0.553
6.22,32135.4,35242.3,1.1917,1.197,144.8,96.2,0.553
6.24,32347.1,35589.6,1.2052,1.2171,144.8,96.2,0.553
6.26,32359.5,35761.5,1.2059,1.2271,144.8,96.2,0.553
6.28,32320.5,35634.0,1.2035,1.2197,144.8,96.2,0.553
6.3,32219.4,35572.6,1.1971,1.2161,144.8,96.2,0.553
6.32,32185.3,35316.6,1.1949,1.2013,144.8,96.2,0.553
6.34,32093.6,35261.7,1.1891,1.1981,144.8,96.2,0.553
6.36,31997.7,35094.3,1.183,1.1884,144.8,96.2,0.553
6.38,32031.5,35048.0,1.1852,1.1857,144.8,96.2,0.553
6.4,31960.4,35000.6,1.1807,1.183,144.8,96.2,0.553
6.42,31992.8,34877.9,1.1827,1.1759,144.8,96.2,0.553
6.44,31877.6,34768.8,1.1754,1.1696,144.8,96.2,0.553
6.46,31917.8,34696.4,1.178,1.1654,144.8,96.2,0.553
6.48,31714.9,34712.8,1.1651,1.1663,144.8,96.2,0.553
6.5,31871.4,34667.4,1.175,1.1637,144.8,96.2,0.553
6.52,31917.3,34573.1,1.1779,1.1582,144.8,96.2,0.553
6.54,31798.8,34535.0,1.1704,1.156,144.8,96.2,0.553
6.56,31772.3,34529.5,1.1687,1.1557,144.8,96.2,0.553
6.58,31661.6,34434.1,1.1617,1.1502,144.8,96.2,0.553
6.6,31801.4,34730.5,1.1706,1.1673,144.8,96.2,0.553
6.62,31929.5,34961.4,1.1787,1.1807,144.8,96.2,0.553
6.64,32206.2,35355.6,1.1962,1.2036,144.8,96.2,0.553
6.66,32349.7,35651.4,1.2053,1.2207,144.8,96.2,0.553
6.68,32412.0,35730.3,1.2093,1.2253,144.8,96.2,0.553
6.7,32225.9,35713.3,1.1975,1.2243,144.8,96.2,0.553
6.72,32243.8,35478.1,1.1986,1.2107,144.8,96.2,0.553
6.74,32205.7,35287.9,1.1962,1.1996,144.8,96.2,0.553
6.76,32086.2,35161.4,1.1886,1.1923,144.8,96.2,0.553
6.78,32057.5,35104.7,1.1868,1.189,144.8,96.2,0.553
6.8,31965.8,35035.9,1.181,1.185,144.8,96.2,0.553
6.82,31975.4,34921.7,1.1816,1.1784,144.8,96.2,0.553
6.84,31858.9,34881.5,1.1742,1.1761,144.8,96.2,0.553
6.86,31873.1,34748.3,1.1751,1.1684,144.8,96.2,0.553
6.88,31801.0,34715.2,1.1705,1.1665,144.8,96.2,0.553
6.9,31696.6,34617.6,1.1639,1.1608,144.8,96.2,0.553
6.92,31830.3,34654.5,1.1724,1.1629,144.8,96.2,0.553
6.94,31783.8,34540.5,1.1695,1.1563,144.8,96.2,0.553
6.96,31770.9,34509.7,1.1686,1.1545,144.8,96.2,0.553
6.98,31727.1,34495.4,1.1659,1.1537,144.8,96.2,0.553
7.0,31814.0,34603.0,1.1714,1.16,144.8,96.2,0.553
7.02,31953.7,34676.4,1.1802,1.1642,144.8,96.2,0.553
7.04,32099.4,35076.2,1.1895,1.1874,144.8,96.2,0.553
7.06,32257.8,35454.1,1.1995,1.2093,144.8,96.2,0.553
7.08,32339.9,35713.6,1.2047,1.2243,144.8,96.2,0.553
7.1,32418.9,35763.2,1.2097,1.2272,144.8,96.2,0.553
7.12,32253.3,35679.6,1.1992,1.2223,144.8,96.2,0.553
7.14,32226.5,35444.5,1.1975,1.2087,144.8,96.2,0.553
7.16,32030.3,35249.4,1.1851,1.1974,144.8,96.2,0.553
7.18,32170.1,35109.0,1.1939,1.1893,144.8,96.2,0.553
7.2,32030.2,35153.8,1.1851,1.1919,144.8,96.2,0.553
7.22,32001.6,35078.2,1.1833,1.1875,144.8,96.2,0.553
7.24,32030.6,34885.5,1.1851,1.1763,144.8,96.2,0.553
7.26,31928.7,34773.5,1.1786,1.1698,144.8,96.2,0.553
7.28,31832.4,34804.4,1.1725,1.1716,144.8,96.2,0.553
7.3,31856.0,34640.6,1.174,1.1621,144.8,96.2,0.553
7.32,31815.2,34611.7,1.1714,1.1605,144.8,96.2,0.553
7.34,31879.0,34605.3,1.1755,1.1601,144.8,96.2,0.553
7.36,31760.6,34599.7,1.168,1.1598,144.8,96.2,0.553
7.38,31751.7,34464.0,1.1674,1.1519,144.8,96.2,0.553
7.4,31572.4,34450.5,1.1561,1.1511,144.8,96.2,0.553
7.42,31744.5,34563.7,1.167,1.1577,144.8,96.2,0.553
7.44,31877.0,34849.5,1.1754,1.1742,144.8,96.2,0.553
7.46,32155.5,35168.4,1.193,1.1927,144.8,96.2,0.553
7.48,32260.8,35602.0,1.1997,1.2178,144.8,96.2,0.553
7.5,32355.0,35766.2,1.2057,1.2274,144.8,96.2,0.553
7.52,32405.7,35768.1,1.2089,1.2275,144.8,96.2,0.553
7.54,32296.8,35595.8,1.202,1.2175,144.8,96.2,0.553
7.56,32135.7,35420.0,1.1918,1.2073,144.8,96.2,0.553
7.58,32066.6,35194.1,1.1874,1.1942,144.8,96.2,0.553
7.6,32141.9,35082.0,1.1922,1.1877,144.8,96.2,0.553
7.62,31958.2,35064.7,1.1805,1.1867,144.8,96.2,0.553
7.64,31988.5,34955.5,1.1824,1.1804,144.8,96.2,0.553
7.66,31957.2,34955.6,1.1804,1.1804,144.8,96.2,0.553
7.68,31946.1,34768.9,1.1797,1.1696,144.8,96.2,0.553
7.7,31891.1,34703.3,1.1763,1.1658,144.8,96.2,0.553
7.72,31925.3,34587.4,1.1784,1.159,144.8,96.2,0.553
7.74,31753.0,34614.0,1.1675,1.1606,144.8,96.2,0.553
7.76,31821.4,34656.5,1.1718,1.1631,144.8,96.2,0.553
7.78,31795.9,34560.7,1.1702,1.1575,144.8,96.2,0.553
7.8,31740.1,34424.8,1.1667,1.1496,144.8,96.2,0.553
7.82,31721.5,34550.0,1.1655,1.1569,144.8,96.2,0.553
7.84,31844.3,34652.4,1.1733,1.1628,144.8,96.2,0.553
7.86,31961.8,34924.2,1.1807,1.1786,144.8,96.2,0.553
7.88,32156.5,35379.2,1.1931,1.2049,144.8,96.2,0.553
7.9,32294.4,35568.8,1.2018,1.2159,144.8,96.2,0.553
7.92,32489.3,35794.5,1.2142,1.229,144.8,96.2,0.553
7.94,32336.0,35743.1,1.2045,1.226,144.8,96.2,0.553
7.96,32191.2,35499.4,1.1953,1.2119,144.8,96.2,0.553
7.98,32179.8,35329.9,1.1946,1.2021,144.8,96.2,0.553
8.0,32054.7,35163.6,1.1866,1.1924,144.8,96.2,0.553
8.02,32003.4,35183.8,1.1834,1.1936,144.8,96.2,0.553
8.04,32089.2,34979.7,1.1888,1.1818,144.8,96.2,0.553
8.06,32042.8,35001.2,1.1859,1.183,144.8,96.2,0.553
8.08,31938.4,34922.0,1.1793,1.1784,144.8,96.2,0.553
8.1,31907.1,34853.1,1.1773,1.1744,144.8,96.2,0.553
8.12,31769.8,34756.1,1.1686,1.1688,144.8,96.2,0.553
8.14,31828.5,34680.1,1.1723,1.1644,144.8,96.2,0.553
8.16,31830.5,34714.1,1.1724,1.1664,144.8,96.2,0.553
8.18,31762.2,34576.1,1.1681,1.1584,144.8,96.2,0.553
8.2,31840.4,34558.3,1.173,1.1574,144.8,96.2,0.553
8.22,31697.1,34381.9,1.164,1.1471,144.8,96.2,0.553
8.24,31766.6,34428.3,1.1684,1.1498,144.8,96.2,0.553
8.26,31815.4,34686.7,1.1715,1.1648,144.8,96.2,0.553
8.28,32041.0,34985.0,1.1858,1.1821,144.8,96.2,0.553
8.3,32230.8,35441.9,1.1978,1.2086,144.8,96.2,0.553
8.32,32372.7,35688.0,1.2068,1.2228,144.8,96.2,0.553
8.34,32360.9,35823.0,1.206,1.2306,144.8,96.2,0.553
8.36,32249.2,35628.1,1.199,1.2194,144.8,96.2,0.553
8.38,32239.7,35336.2,1.1984,1.2024,144.8,96.2,0.553
8.4,32073.9,35331.8,1.1878,1.2022,144.8,96.2,0.553
8.42,32131.7,35238.7,1.1915,1.1968,144.8,96.2,0.553
8.44,32023.4,35106.9,1.1846,1.1892,144.8,96.2,0.553
8.46,32072.9,35128.2,1.1878,1.1904,144.8,96.2,0.553
8.48,31921.7,34965.9,1.1782,1.181,144.8,96.2,0.553
8.5,31968.2,34869.8,1.1811,1.1754,144.8,96.2,0.553
8.52,31854.3,34662.9,1.1739,1.1634,144.8,96.2,0.553
8.54,31819.1,34660.9,1.1717,1.1633,144.8,96.2,0.553
8.56,31907.7,34647.0,1.1773,1.1625,144.8,96.2,0.553
8.58,31833.3,34600.0,1.1726,1.1598,144.8,96.2,0.553
8.6,31831.4,34627.0,1.1725,1.1613,144.8,96.2,0.553
8.62,31720.3,34395.2,1.1654,1.1479,144.8,96.2,0.553
8.64,31722.9,34412.7,1.1656,1.1489,144.8,96.2,0.553
8.66,31883.9,34493.3,1.1758,1.1536,144.8,96.2,0.553
8.68,31907.9,34831.5,1.1773,1.1732,144.8,96.2,0.553
8.7,32049.2,35143.2,1.1863,1.1913,144.8,96.2,0.553
8.72,32250.3,35502.8,1.199,1.2121,144.8,96.2,0.553
8.74,32291.8,35724.0,1.2017,1.2249,144.8,96.2,0.553
8.76,32402.8,35744.2,1.2087,1.2261,144.8,96.2,0.553
8.78,32251.1,35507.7,1.1991,1.2124,144.8,96.2,0.553
8.8,32230.5,35324.8,1.1978,1.2018,144.8,96.2,0.553
8.82,32126.1,35188.7,1.1912,1.1939,144.8,96.2,0.553
8.84,32019.6,35157.4,1.1844,1.1921,144.8,96.2,0.553
8.86,32038.8,35084.8,1.1856,1.1879,144.8,96.2,0.553
8.88,32088.7,34991.8,1.1888,1.1825,144.8,96.2,0.553
8.9,32037.9,34946.3,1.1856,1.1798,144.8,96.2,0.553
8.92,31967.6,34855.2,1.1811,1.1746,144.8,96.2,0.553
8.94,31806.4,34807.7,1.1709,1.1718,144.8,96.2,0.553
8.96,31742.5,34647.4,1.1668,1.1625,144.8,96.2,0.553
8.98,31816.5,34730.7,1.1715,1.1674,144.8,96.2,0.553
9.0,31899.5,34628.4,1.1768,1.1614,144.8,96.2,0.553
9.02,31772.9,34504.4,1.1688,1.1542,144.8,96.2,0.553
9.04,31648.6,34487.6,1.1609,1.1533,144.8,96.2,0.553
9.06,31692.8,34482.2,1.1637,1.153,144.8,96.2,0.553
9.08,31713.2,34586.4,1.165,1.159,144.8,96.2,0.553
9.1,31940.3,34881.4,1.1794,1.1761,144.8,96.2,0.553
9.12,32135.6,35262.6,1.1918,1.1982,144.8,96.2,0.553
9.14,32333.1,35529.2,1.2043,1.2136,144.8,96.2,0.553
9.16,32419.6,35787.3,1.2098,1.2286,144.8,96.2,0.553
9.18,32307.0,35781.0,1.2026,1.2282,144.8,96.2,0.553
9.2,32279.4,35515.0,1.2009,1.2128,144.8,96.2,0.553
9.22,32145.5,35357.3,1.1924,1.2037,144.8,96.2,0.553
9.24,32150.1,35246.5,1.1927,1.1972,144.8,96.2,0.553
9.26,32033.7,35108.8,1.1853,1.1893,144.8,96.2,0.553
9.28,31924.9,35144.6,1.1784,1.1913,144.8,96.2,0.553
9.3,32002.3,35003.1,1.1833,1.1831,144.8,96.2,0.553
9.32,31935.4,34899.5,1.1791,1.1771,144.8,96.2,0.553
9.34,31881.6,34768.9,1.1757,1.1696,144.8,96.2,0.553
9.36,31889.5,34730.2,1.1762,1.1673,144.8,96.2,0.553
9.38,31823.5,34611.8,1.172,1.1605,144.8,96.2,0.553
9.4,31831.4,34663.3,1.1725,1.1634,144.8,96.2,0.553
9.42,31741.1,34547.7,1.1667,1.1567,144.8,96.2,0.553
9.44,31787.0,34496.6,1.1697,1.1538,144.8,96.2,0.553
9.46,31678.6,34455.9,1.1628,1.1514,144.8,96.2,0.553
9.48,31719.9,34476.0,1.1654,1.1526,144.8,96.2,0.553
9.5,31845.2,34738.9,1.1733,1.1678,144.8,96.2,0.553
9.52,31986.9,34951.1,1.1823,1.1801,144.8,96.2,0.553
9.54,32173.9,35419.2,1.1942,1.2072,144.8,96.2,0.553
9.56,32239.1,35673.1,1.1983,1.222,144.8,96.2,0.553
9.58,32401.9,35721.3,1.2086,1.2248,144.8,96.2,0.553
9.6,32326.7,35675.7,1.2039,1.2221,144.8,96.2,0.553
9.62,32289.9,35523.4,1.2015,1.2133,144.8,96.2,0.553
9.64,32140.4,35289.3,1.1921,1.1997,144.8,96.2,0.553
9.66,32066.6,35168.7,1.1874,1.1927,144.8,96.2,0.553
9.68,32054.9,35046.1,1.1866,1.1856,144.8,96.2,0.553
9.7,32039.4,35113.5,1.1857,1.1895,144.8,96.2,0.553
9.72,32119.7,35016.3,1.1907,1.1839,144.8,96.2,0.553
9.74,31893.6,34810.2,1.1764,1.172,144.8,96.2,0.553
9.76,31874.2,34689.6,1.1752,1.165,144.8,96.2,0.553
9.78,31805.6,34677.4,1.1708,1.1643,144.8,96.2,0.553
9.8,31845.7,34628.9,1.1734,1.1615,144.8,96.2,0.553
9.82,31870.7,34648.7,1.175,1.1626,144.8,96.2,0.553
9.84,31843.5,34594.6,1.1732,1.1595,144.8,96.2,0.553
9.86,31719.8,34540.1,1.1654,1.1563,144.8,96.2,0.553
9.88,31718.5,34435.9,1.1653,1.1503,144.8,96.2,0.553
9.9,31802.0,34507.8,1.1706,1.1544,144.8,96.2,0.553
9.92,32015.8,34629.6,1.1842,1.1615,144.8,96.2,0.553
9.94,32143.4,35098.0,1.1922,1.1886,144.8,96.2,0.553
9.96,32188.5,35377.3,1.1951,1.2048,144.8,96.2,0.553
9.98,32304.0,35811.6,1.2024,1.23,144.8,96.2,0.553
10.0,32336.7,35783.5,1.2045,1.2284,144.8,96.2,0.553
10.02,32316.9,35723.9,1.2032,1.2249,144.8,96.2,0.553
10.04,32226.9,35329.9,1.1975,1.2021,144.8,96.2,0.553
10.06,32244.9,35215.3,1.1987,1.1954,144.8,96.2,0.553
10.08,32022.8,35177.7,1.1846,1.1933,144.8,96.2,0.553
10.1,32013.7,35057.2,1.184,1.1863,144.8,96.2,0.553
10.12,32067.8,35041.2,1.1875,1.1853,144.8,96.2,0.553
10.14,31991.7,34969.1,1.1826,1.1812,144.8,96.2,0.553
10.16,31841.3,34812.5,1.1731,1.1721,144.8,96.2,0.553
10.18,31924.7,34714.8,1.1784,1.1664,144.8,96.2,0.553
10.2,31826.6,34607.4,1.1722,1.1602,144.8,96.2,0.553
10.22,31802.1,34634.9,1.1706,1.1618,144.8,96.2,0.553
10.24,31851.2,34626.0,1.1737,1.1613,144.8,96.2,0.553
10.26,31746.8,34510.9,1.1671,1.1546,144.8,96.2,0.553
10.28,31630.1,34455.7,1.1597,1.1514,144.8,96.2,0.553
10.3,31693.8,34358.1,1.1638,1.1458,144.8,96.2,0.553
10.32,31738.6,34483.4,1.1666,1.153,144.8,96.2,0.553
10.34,31909.4,34811.2,1.1774,1.172,144.8,96.2,0.553
10.36,32012.6,35291.7,1.184,1.1999,144.8,96.2,0.553
10.38,32295.9,35552.1,1.2019,1.2149,144.8,96.2,0.553
10.4,32404.1,35721.6,1.2088,1.2248,144.8,96.2,0.553
10.42,32388.8,35701.1,1.2078,1.2236,144.8,96.2,0.553
10.44,32175.0,35589.3,1.1943,1.2171,144.8,96.2,0.553
10.46,32142.3,35388.1,1.1922,1.2054,144.8,96.2,0.553
10.48,32025.3,35290.0,1.1848,1.1998,144.8,96.2,0.553
10.5,32109.0,35161.4,1.1901,1.1923,144.8,96.2,0.553
10.52,32033.4,35062.4,1.1853,1.1866,144.8,96.2,0.553
10.54,32035.4,35097.5,1.1854,1.1886,144.8,96.2,0.553
10.56,32018.0,34887.5,1.1843,1.1764,144.8,96.2,0.553
10.58,31778.2,34784.6,1.1691,1.1705,144.8,96.2,0.553
10.6,31849.6,34803.0,1.1736,1.1715,144.8,96.2,0.553
10.62,31809.1,34752.2,1.1711,1.1686,144.8,96.2,0.553
10.64,31874.9,34709.7,1.1752,1.1661,144.8,96.2,0.553
10.66,31789.0,34677.8,1.1698,1.1643,144.8,96.2,0.553
10.68,31813.9,34640.9,1.1714,1.1621,144.8,96.2,0.553
10.7,31677.5,34453.2,1.1627,1.1513,144.8,96.2,0.553
10.72,31689.3,34487.5,1.1635,1.1533,144.8,96.2,0.553
10.74,31857.2,34596.8,1.1741,1.1596,144.8,96.2,0.553
10.76,31977.3,34888.4,1.1817,1.1765,144.8,96.2,0.553
10.78,32136.8,35204.8,1.1918,1.1948,144.8,96.2,0.553
10.8,32258.4,35640.7,1.1995,1.2201,144.8,96.2,0.553
10.82,32362.8,35826.3,1.2062,1.2308,144.8,96.2,0.553
10.84,32402.5,35701.1,1.2087,1.2236,144.8,96.2,0.553
10.86,32130.5,35480.5,1.1914,1.2108,144.8,96.2,0.553
10.88,32157.2,35333.2,1.1931,1.2023,144.8,96.2,0.553
10.9,32084.9,35222.9,1.1885,1.1959,144.8,96.2,0.553
10.92,32041.2,35133.3,1.1858,1.1907,144.8,96.2,0.553
10.94,32075.8,34999.1,1.188,1.1829,144.8,96.2,0.553
10.96,31935.1,34870.9,1.179,1.1755,144.8,96.2,0.553
10.98,31958.2,34862.6,1.1805,1.175,144.8,96.2,0.553
11.0,31801.7,34819.2,1.1706,1.1725,144.8,96.2,0.553
11.02,31864.1,34684.3,1.1745,1.1647,144.8,96.2,0.553
11.04,31852.5,34621.2,1.1738,1.161,144.8,96.2,0.553
11.06,31786.0,34618.6,1.1696,1.1609,144.8,96.2,0.553
11.08,31871.4,34677.2,1.175,1.1643,144.8,96.2,0.553
11.1,31755.4,34490.3,1.1677,1.1534,144.8,96.2,0.553
11.12,31747.9,34413.2,1.1672,1.149,144.8,96.2,0.553
11.14,31764.1,34392.4,1.1682,1.1478,144.8,96.2,0.553
11.16,31754.9,34649.0,1.1676,1.1626,144.8,96.2,0.553
11.18,32080.7,35184.1,1.1883,1.1936,144.8,96.2,0.553
11.2,32221.1,35398.4,1.1972,1.206,144.8,96.2,0.553
11.22,32343.9,35674.7,1.205,1.2221,144.8,96.2,0.553
11.24,32404.0,35742.7,1.2088,1.226,144.8,96.2,0.553
11.26,32342.9,35629.4,1.2049,1.2194,144.8,96.2,0.553
11.28,32294.7,35529.0,1.2018,1.2136,144.8,96.2,0.553
11.3,32091.0,35221.0,1.1889,1.1958,144.8,96.2,0.553
11.32,32075.1,35171.7,1.1879,1.1929,144.8,96.2,0.553
11.34,32085.5,35053.9,1.1886,1.1861,144.8,96.2,0.553
11.36,31962.5,35071.3,1.1808,1.1871,144.8,96.2,0.553
11.38,32006.6,34882.3,1.1836,1.1761,144.8,96.2,0.553
11.4,31969.2,34879.3,1.1812,1.176,144.8,96.2,0.553
11.42,31843.0,34798.1,1.1732,1.1713,144.8,96.2,0.553
11.44,31940.3,34712.0,1.1794,1.1663,144.8,96.2,0.553
11.46,31807.9,34650.2,1.171,1.1627,144.8,96.2,0.553
11.48,31875.4,34584.8,1.1753,1.1589,144.8,96.2,0.553
11.5,31769.1,34607.5,1.1685,1.1602,144.8,96.2,0.553
11.52,31790.1,34436.4,1.1699,1.1503,144.8,96.2,0.553
11.54,31842.0,34437.4,1.1731,1.1504,144.8,96.2,0.553
11.56,31778.5,34598.1,1.1691,1.1597,144.8,96.2,0.553
11.58,31895.5,34820.0,1.1765,1.1725,144.8,96.2,0.553
11.6,32044.7,35132.9,1.186,1.1907,144.8,96.2,0.553
11.62,32218.3,35606.6,1.197,1.2181,144.8,96.2,0.553
11.64,32415.4,35682.0,1.2095,1.2225,144.8,96.2,0.553
11.66,32419.0,35762.7,1.2097,1.2272,144.8,96.2,0.553
11.68,32267.1,35614.0,1.2001,1.2185,144.8,96.2,0.553
11.7,32144.2,35347.7,1.1923,1.2031,144.8,96.2,0.553
11.72,32112.4,35105.8,1.1903,1.1891,144.8,96.2,0.553
11.74,32046.5,35161.0,1.1861,1.1923,144.8,96.2,0.553
11.76,32002.2,35024.2,1.1833,1.1844,144.8,96.2,0.553
11.78,32014.9,35105.4,1.1841,1.1891,144.8,96.2,0.553
11.8,31940.2,34881.3,1.1794,1.1761,144.8,96.2,0.553
11.82,31940.9,34864.6,1.1794,1.1751,144.8,96.2,0.553
11.84,31876.1,34739.8,1.1753,1.1679,144.8,96.2,0.553
11.86,31802.7,34666.9,1.1707,1.1637,144.8,96.2,0.553
11.88,31765.6,34617.9,1.1683,1.1608,144.8,96.2,0.553
11.9,31798.9,34642.5,1.1704,1.1622,144.8,96.2,0.553
11.92,31824.0,34543.5,1.172,1.1565,144.8,96.2,0.553
11.94,31700.2,34501.6,1.1642,1.1541,144.8,96.2,0.553
11.96,31718.4,34475.6,1.1653,1.1526,144.8,96.2,0.553
11.98,31898.7,34547.4,1.1767,1.1567,144.8,96.2,0.553
12.0,31953.0,34835.3,1.1802,1.1734,144.8,96.2,0.553
12.02,32039.9,35197.0,1.1857,1.1944,144.8,96.2,0.553
12.04,32303.0,35603.2,1.2024,1.2179,144.8,96.2,0.553
12.06,32376.9,35737.7,1.207,1.2257,144.8,96.2,0.553
12.08,32360.2,35718.0,1.206,1.2246,144.8,96.2,0.553
12.1,32374.3,35572.6,1.2069,1.2161,144.8,96.2,0.553
12.12,32202.4,35440.2,1.196,1.2085,144.8,96.2,0.553
12.14,32093.8,35267.8,1.1891,1.1985,144.8,96.2,0.553
12.16,31936.2,35130.5,1.1791,1.1905,144.8,96.2,0.553
12.18,31986.4,35054.6,1.1823,1.1861,144.8,96.2,0.553
12.2,31977.6,34933.4,1.1817,1.1791,144.8,96.2,0.553
12.22,31914.5,34920.6,1.1777,1.1784,144.8,96.2,0.553
12.24,32035.2,34821.5,1.1854,1.1726,144.8,96.2,0.553
12.26,31725.3,34848.4,1.1657,1.1742,144.8,96.2,0.553
12.28,31767.5,34683.6,1.1684,1.1646,144.8,96.2,0.553
12.3,31839.0,34655.4,1.173,1.163,144.8,96.2,0.553
12.32,31738.2,34635.1,1.1666,1.1618,144.8,96.2,0.553
12.34,31716.7,34517.8,1.1652,1.155,144.8,96.2,0.553
12.36,31774.4,34506.6,1.1689,1.1544,144.8,96.2,0.553
12.38,31769.2,34486.7,1.1685,1.1532,144.8,96.2,0.553
12.4,31868.4,34718.9,1.1748,1.1667,144.8,96.2,0.553
12.42,32036.3,35024.0,1.1855,1.1843,144.8,96.2,0.553
12.44,32200.8,35461.6,1.1959,1.2097,144.8,96.2,0.553
12.46,32312.4,35656.8,1.203,1.221,144.8,96.2,0.553
12.48,32329.5,35786.0,1.204,1.2285,144.8,96.2,0.553
12.5,32339.5,35742.7,1.2047,1.226,144.8,96.2,0.553
12.52,32303.2,35471.3,1.2024,1.2103,144.8,96.2,0.553
12.54,32193.0,35292.7,1.1954,1.1999,144.8,96.2,0.553
12.56,32014.6,35119.6,1.1841,1.1899,144.8,96.2,0.553
12.58,31975.5,35107.0,1.1816,1.1892,144.8,96.2,0.553
12.6,32002.8,35009.5,1.1833,1.1835,144.8,96.2,0.553
12.62,31949.8,34897.7,1.18,1.177,144.8,96.2,0.553
12.64,31871.9,34904.8,1.175,1.1774,144.8,96.2,0.553
12.66,31883.3,34831.6,1.1758,1.1732,144.8,96.2,0.553
12.68,31835.3,34689.7,1.1727,1.165,144.8,96.2,0.553
12.7,31731.4,34662.0,1.1661,1.1634,144.8,96.2,0.553
12.72,31765.9,34598.8,1.1683,1.1597,144.8,96.2,0.553
12.74,31744.6,34512.6,1.167,1.1547,144.8,96.2,0.553
12.76,31782.3,34482.3,1.1694,1.153,144.8,96.2,0.553
12.78,31639.7,34513.4,1.1603,1.1548,144.8,96.2,0.553
12.8,31790.5,34534.9,1.1699,1.156,144.8,96.2,0.553
12.82,31799.3,34757.8,1.1704,1.1689,144.8,96.2,0.553
12.84,32204.8,35030.3,1.1961,1.1847,144.8,96.2,0.553
12.86,32227.1,35367.5,1.1976,1.2043,144.8,96.2,0.553
12.88,32373.9,35795.0,1.2069,1.229,144.8,96.2,0.553
12.9,32421.9,35746.0,1.2099,1.2262,144.8,96.2,0.553
12.92,32392.0,35639.4,1.208,1.22,144.8,96.2,0.553
12.94,32183.1,35509.6,1.1948,1.2125,144.8,96.2,0.553
12.96,32152.6,35310.8,1.1928,1.201,144.8,96.2,0.553
12.98,32041.8,35198.0,1.1858,1.1944,144.8,96.2,0.553
13.0,32096.1,35084.7,1.1892,1.1879,144.8,96.2,0.553
13.02,31981.9,35030.6,1.182,1.1847,144.8,96.2,0.553
13.04,31968.1,34908.1,1.1811,1.1776,144.8,96.2,0.553
13.06,31962.5,34804.7,1.1808,1.1716,144.8,96.2,0.553
13.08,31790.6,34667.0,1.1699,1.1637,144.8,96.2,0.553
13.1,31786.2,34732.7,1.1696,1.1675,144.8,96.2,0.553
13.12,31818.4,34714.2,1.1717,1.1664,144.8,96.2,0.553
13.14,31823.6,34655.5,1.172,1.163,144.8,96.2,0.553
13.16,31771.1,34497.8,1.1687,1.1539,144.8,96.2,0.553
13.18,31682.8,34536.2,1.1631,1.1561,144.8,96.2,0.553
13.2,31781.6,34395.8,1.1693,1.1479,144.8,96.2,0.553
13.22,31678.9,34564.3,1.1628,1.1577,144.8,96.2,0.553
13.24,31909.8,34829.5,1.1774,1.1731,144.8,96.2,0.553
13.26,32166.0,35223.5,1.1937,1.1959,144.8,96.2,0.553
13.28,32261.1,35585.5,1.1997,1.2169,144.8,96.2,0.553
13.3,32422.1,35696.3,1.2099,1.2233,144.8,96.2,0.553
13.32,32376.4,35626.0,1.207,1.2192,144.8,96.2,0.553
13.34,32236.1,35545.8,1.1981,1.2146,144.8,96.2,0.553
13.36,32112.9,35319.8,1.1903,1.2015,144.8,96.2,0.553
13.38,32185.7,35225.0,1.1949,1.196,144.8,96.2,0.553
13.4,32001.5,35038.1,1.1833,1.1852,144.8,96.2,0.553
13.42,32039.7,35125.6,1.1857,1.1902,144.8,96.2,0.553
13.44,32002.2,34989.9,1.1833,1.1824,144.8,96.2,0.553
13.46,31878.4,34897.7,1.1755,1.177,144.8,96.2,0.553
13.48,31884.2,34787.7,1.1758,1.1707,144.8,96.2,0.553
13.5,31843.5,34753.5,1.1732,1.1687,144.8,96.2,0.553
13.52,31845.9,34615.5,1.1734,1.1607,144.8,96.2,0.553
13.54,31802.7,34594.5,1.1707,1.1595,144.8,96.2,0.553
13.56,31775.1,34672.1,1.1689,1.164,144.8,96.2,0.553
13.58,31802.4,34496.5,1.1706,1.1538,144.8,96.2,0.553
13.6,31753.7,34458.2,1.1676,1.1516,144.8,96.2,0.553
13.62,31774.4,34460.2,1.1689,1.1517,144.8,96.2,0.553
13.64,31860.2,34637.3,1.1743,1.1619,144.8,96.2,0.553
13.66,31987.9,34872.7,1.1824,1.1756,144.8,96.2,0.553
13.68,32168.6,35258.6,1.1938,1.1979,144.8,96.2,0.553
13.7,32273.4,35518.5,1.2005,1.213,144.8,96.2,0.553
13.72,32441.8,35758.3,1.2112,1.2269,144.8,96.2,0.553
13.74,32342.9,35677.9,1.2049,1.2222,144.8,96.2,0.553
13.76,32271.7,35589.8,1.2004,1.2171,144.8,96.2,0.553
13.78,32201.2,35319.3,1.1959,1.2015,144.8,96.2,0.553
13.8,32100.9,35179.1,1.1896,1.1933,144.8,96.2,0.553
13.82,32094.3,35170.3,1.1891,1.1928,144.8,96.2,0.553
13.84,32075.5,35100.4,1.1879,1.1888,144.8,96.2,0.553
13.86,31971.2,34963.4,1.1813,1.1808,144.8,96.2,0.553
13.88,31961.5,34910.7,1.1807,1.1778,144.8,96.2,0.553
13.9,31886.7,34800.2,1.176,1.1714,144.8,96.2,0.553
13.92,31863.7,34669.8,1.1745,1.1638,144.8,96.2,0.553
13.94,31847.6,34690.7,1.1735,1.165,144.8,96.2,0.553
13.96,31847.1,34711.4,1.1735,1.1662,144.8,96.2,0.553
13.98,31818.1,34603.5,1.1716,1.16,144.8,96.2,0.553
14.0,31792.1,34569.0,1.17,1.158,144.8,96.2,0.553
14.02,31687.2,34422.9,1.1633,1.1495,144.8,96.2,0.553
14.04,31799.0,34422.6,1.1704,1.1495,144.8,96.2,0.553
14.06,31918.9,34662.3,1.178,1.1634,144.8,96.2,0.553
14.08,31966.3,35017.8,1.181,1.184,144.8,96.2,0.553
14.1,32181.2,35325.3,1.1946,1.2018,144.8,96.2,0.553
14.12,32309.1,35681.9,1.2028,1.2225,144.8,96.2,0.553
14.14,32405.4,35798.4,1.2089,1.2292,144.8,96.2,0.553
14.16,32300.3,35641.6,1.2022,1.2201,144.8,96.2,0.553
14.18,32231.2,35471.9,1.1978,1.2103,144.8,96.2,0.553
14.2,32065.2,35287.8,1.1873,1.1996,144.8,96.2,0.553
14.22,32110.8,35186.5,1.1902,1.1938,144.8,96.2,0.553
14.24,31986.0,35062.7,1.1823,1.1866,144.8,96.2,0.553
14.26,31970.3,35093.1,1.1813,1.1884,144.8,96.2,0.553
14.28,32027.1,34995.0,1.1849,1.1827,144.8,96.2,0.553
14.3,31970.9,34839.2,1.1813,1.1736,144.8,96.2,0.553
14.32,31866.7,34796.9,1.1747,1.1712,144.8,96.2,0.553
14.34,31825.6,34696.2,1.1721,1.1654,144.8,96.2,0.553
14.36,31812.0,34740.0,1.1712,1.1679,144.8,96.2,0.553
14.38,31887.8,34721.2,1.1761,1.1668,144.8,96.2,0.553
14.4,31793.0,34633.7,1.17,1.1617,144.8,96.2,0.553
14.42,31688.5,34515.7,1.1634,1.1549,144.8,96.2,0.553
14.44,31719.6,34486.5,1.1654,1.1532,144.8,96.2,0.553
14.46,31776.3,34464.6,1.169,1.1519,144.8,96.2,0.553
14.48,31953.1,34740.9,1.1802,1.1679,144.8,96.2,0.553
14.5,32143.5,35078.6,1.1923,1.1875,144.8,96.2,0.553
14.52,32240.2,35400.8,1.1984,1.2062,144.8,96.2,0.553
14.54,32402.7,35704.1,1.2087,1.2238,144.8,96.2,0.553
14.56,32332.5,35768.5,1.2042,1.2275,144.8,96.2,0.553
14.58,32292.5,35620.1,1.2017,1.2189,144.8,96.2,0.553
14.6,32257.6,35494.8,1.1995,1.2116,144.8,96.2,0.553
14.62,32169.1,35242.7,1.1939,1.197,144.8,96.2,0.553
14.64,32080.2,35145.2,1.1882,1.1914,144.8,96.2,0.553
14.66,32060.5,35070.0,1.187,1.187,144.8,96.2,0.553
14.68,32000.2,35001.9,1.1832,1.1831,144.8,96.2,0.553
14.7,31989.6,34974.4,1.1825,1.1815,144.8,96.2,0.553
14.72,31926.5,34892.8,1.1785,1.1767,144.8,96.2,0.553
14.74,31778.6,34688.3,1.1691,1.1649,144.8,96.2,0.553
14.76,31887.5,34690.6,1.176,1.165,144.8,96.2,0.553
14.78,31855.0,34667.5,1.174,1.1637,144.8,96.2,0.553
14.8,31845.8,34653.8,1.1734,1.1629,144.8,96.2,0.553
14.82,31777.4,34545.5,1.1691,1.1566,144.8,96.2,0.553
14.84,31790.1,34455.5,1.1699,1.1514,144.8,96.2,0.553
14.86,31684.6,34477.3,1.1632,1.1527,144.8,96.2,0.553
14.88,31781.9,34542.5,1.1693,1.1565,144.8,96.2,0.553
14.9,31951.6,34843.8,1.1801,1.1739,144.8,96.2,0.553
14.92,32064.5,35290.1,1.1872,1.1998,144.8,96.2,0.553
14.94,32253.3,35626.1,1.1992,1.2192,144.8,96.2,0.553
14.96,32368.1,35734.6,1.2065,1.2255,144.8,96.2,0.553
14.98,32320.2,35764.1,1.2035,1.2272,144.8,96.2,0.553
15.0,32319.7,35662.2,1.2034,1.2213,144.8,96.2,0.553
15.02,32121.4,35434.6,1.1909,1.2081,144.8,96.2,0.553
15.04,32208.4,35231.6,1.1964,1.1964,144.8,96.2,0.553
15.06,32116.1,35115.0,1.1905,1.1896,144.8,96.2,0.553
15.08,32101.4,35078.3,1.1896,1.1875,144.8,96.2,0.553
15.1,32002.2,34933.1,1.1833,1.1791,144.8,96.2,0.553
15.12,31875.7,34807.9,1.1753,1.1718,144.8,96.2,0.553
15.14,31935.5,34797.0,1.1791,1.1712,144.8,96.2,0.553
15.16,31776.2,34648.9,1.169,1.1626,144.8,96.2,0.553
15.18,31925.5,34670.3,1.1784,1.1639,144.8,96.2,0.553
15.2,31755.5,34711.2,1.1677,1.1662,144.8,96.2,0.553
15.22,31815.5,34589.9,1.1715,1.1592,144.8,96.2,0.553
15.24,31741.8,34475.7,1.1668,1.1526,144.8,96.2,0.553
15.26,31733.1,34528.6,1.1662,1.1556,144.8,96.2,0.553
15.28,31854.3,34489.3,1.1739,1.1534,144.8,96.2,0.553
15.3,31814.7,34645.4,1.1714,1.1624,144.8,96.2,0.553
15.32,31988.9,34931.0,1.1825,1.179,144.8,96.2,0.553
15.34,32162.9,35387.5,1.1935,1.2054,144.8,96.2,0.553
15.36,32225.2,35683.7,1.1974,1.2226,144.8,96.2,0.553
15.38,32360.5,35765.4,1.206,1.2273,144.8,96.2,0.553
15.4,32293.4,35585.8,1.2018,1.2169,144.8,96.2,0.553
15.42,32246.5,35515.0,1.1988,1.2128,144.8,96.2,0.553
15.44,32188.0,35342.7,1.1951,1.2028,144.8,96.2,0.553
15.46,32108.7,35153.9,1.19,1.1919,144.8,96.2,0.553
15.48,32111.2,35113.9,1.1902,1.1896,144.8,96.2,0.553
15.5,32113.4,35072.2,1.1903,1.1871,144.8,96.2,0.553
15.52,32023.9,35012.9,1.1847,1.1837,144.8,96.2,0.553
15.54,31979.5,34902.8,1.1819,1.1773,144.8,96.2,0.553
15.56,31906.3,34725.2,1.1772,1.167,144.8,96.2,0.553
15.58,31810.1,34710.6,1.1711,1.1662,144.8,96.2,0.553
15.6,31823.9,34583.3,1.172,1.1588,144.8,96.2,0.553
15.62,31857.9,34685.1,1.1742,1.1647,144.8,96.2,0.553
15.64,31726.0,34633.1,1.1658,1.1617,144.8,96.2,0.553
15.66,31759.3,34419.1,1.1679,1.1493,144.8,96.2,0.553
15.68,31682.8,34374.7,1.1631,1.1467,144.8,96.2,0.553
15.7,31657.6,34622.7,1.1615,1.1611,144.8,96.2,0.553
15.72,31906.1,34700.1,1.1772,1.1656,144.8,96.2,0.553
15.74,32132.6,35084.2,1.1916,1.1878,144.8,96.2,0.553
15.76,32297.9,35515.0,1.202,1.2128,144.8,96.2,0.553
15.78,32317.0,35626.9,1.2033,1.2193,144.8,96.2,0.553
15.8,32381.1,35700.9,1.2073,1.2236,144.8,96.2,0.553
15.82,32432.6,35566.6,1.2106,1.2158,144.8,96.2,0.553
15.84,32347.8,35371.0,1.2052,1.2045,144.8,96.2,0.553
15.86,32183.4,35226.5,1.1948,1.1961,144.8,96.2,0.553
15.88,32088.2,35103.7,1.1887,1.189,144.8,96.2,0.553
15.9,32061.5,35128.7,1.1871,1.1904,144.8,96.2,0.553
15.92,32068.7,35051.7,1.1875,1.186,144.8,96.2,0.553
15.94,31887.8,34946.2,1.176,1.1798,144.8,96.2,0.553
15.96,32011.8,34761.7,1.1839,1.1692,144.8,96.2,0.553
15.98,31897.3,34591.8,1.1767,1.1593,144.8,96.2,0.553
16.0,31827.3,34673.6,1.1722,1.164,144.8,96.2,0.553
16.02,31834.7,34640.2,1.1727,1.1621,144.8,96.2,0.553
16.04,31844.6,34682.7,1.1733,1.1646,144.8,96.2,0.553
16.06,31849.6,34544.5,1.1736,1.1566,144.8,96.2,0.553
16.08,31727.7,34562.9,1.1659,1.1576,144.8,96.2,0.553
16.1,31742.8,34436.8,1.1669,1.1503,144.8,96.2,0.553
16.12,31758.3,34561.0,1.1678,1.1575,144.8,96.2,0.553
16.14,31921.5,34820.7,1.1782,1.1726,144.8,96.2,0.553
16.16,32167.4,35265.1,1.1938,1.1983,144.8,96.2,0.553
16.18,32280.5,35520.4,1.2009,1.2131,144.8,96.2,0.553
16.2,32303.9,35718.3,1.2024,1.2246,144.8,96.2,0.553
16.22,32499.9,35730.6,1.2148,1.2253,144.8,96.2,0.553
16.24,32271.2,35576.4,1.2003,1.2164,144.8,96.2,0.553
16.26,32112.0,35452.5,1.1903,1.2092,144.8,96.2,0.553
16.28,32101.0,35202.7,1.1896,1.1947,144.8,96.2,0.553
16.3,32048.0,35081.7,1.1862,1.1877,144.8,96.2,0.553
16.32,32063.8,34883.4,1.1872,1.1762,144.8,96.2,0.553
16.34,31935.4,35046.0,1.1791,1.1856,144.8,96.2,0.553
16.36,31839.7,34972.1,1.173,1.1813,144.8,96.2,0.553
16.38,31866.4,34707.2,1.1747,1.166,144.8,96.2,0.553
16.4,31854.7,34710.4,1.1739,1.1662,144.8,96.2,0.553
16.42,31864.9,34691.3,1.1746,1.1651,144.8,96.2,0.553
16.44,31862.0,34641.9,1.1744,1.1622,144.8,96.2,0.553
16.46,31917.9,34550.6,1.178,1.1569,144.8,96.2,0.553
16.48,31681.6,34605.0,1.163,1.1601,144.8,96.2,0.553
16.5,31693.6,34580.2,1.1637,1.1586,144.8,96.2,0.553
16.52,31750.9,34523.4,1.1674,1.1553,144.8,96.2,0.553
16.54,31823.3,34605.5,1.172,1.1601,144.8,96.2,0.553
16.56,31958.9,34924.8,1.1806,1.1786,144.8,96.2,0.553
16.58,32186.1,35377.5,1.195,1.2048,144.8,96.2,0.553
16.6,32272.1,35587.7,1.2004,1.217,144.8,96.2,0.553
16.62,32273.6,35783.6,1.2005,1.2284,144.8,96.2,0.553
16.64,32374.7,35647.3,1.2069,1.2205,144.8,96.2,0.553
16.66,32171.0,35526.5,1.194,1.2135,144.8,96.2,0.553
16.68,32110.2,35402.6,1.1901,1.2063,144.8,96.2,0.553
16.7,32101.0,35291.4,1.1896,1.1998,144.8,96.2,0.553
16.72,32162.9,35060.1,1.1935,1.1864,144.8,96.2,0.553
16.74,32062.5,35070.5,1.1871,1.187,144.8,96.2,0.553
16.76,31878.3,34951.2,1.1754,1.1801,144.8,96.2,0.553
16.78,31937.0,34910.0,1.1792,1.1777,144.8,96.2,0.553
16.8,31973.6,34758.8,1.1815,1.169,144.8,96.2,0.553
16.82,31837.2,34703.8,1.1728,1.1658,144.8,96.2,0.553
16.84,31861.1,34676.8,1.1744,1.1642,144.8,96.2,0.553
16.86,31809.1,34599.8,1.1711,1.1598,144.8,96.2,0.553
16.88,31730.7,34592.2,1.1661,1.1593,144.8,96.2,0.553
16.9,31702.9,34585.6,1.1643,1.1589,144.8,96.2,0.553
16.92,31812.8,34389.5,1.1713,1.1476,144.8,96.2,0.553
16.94,31749.1,34488.0,1.1673,1.1533,144.8,96.2,0.553
16.96,31904.4,34698.7,1.1771,1.1655,144.8,96.2,0.553
16.98,31915.3,35024.6,1.1778,1.1844,144.8,96.2,0.553
17.0,32229.8,35438.5,1.1977,1.2084,144.8,96.2,0.553
17.02,32350.3,35709.5,1.2054,1.2241,144.8,96.2,0.553
17.04,32409.1,35766.1,1.2091,1.2274,144.8,96.2,0.553
17.06,32371.2,35622.9,1.2067,1.2191,144.8,96.2,0.553
17.08,32298.3,35554.2,1.2021,1.2151,144.8,96.2,0.553
17.1,32137.5,35319.0,1.1919,1.2014,144.8,96.2,0.553
17.12,32140.9,35243.7,1.1921,1.1971,144.8,96.2,0.553
17.14,32026.2,35044.6,1.1848,1.1855,144.8,96.2,0.553
17.16,32051.9,35032.4,1.1864,1.1848,144.8,96.2,0.553
17.18,31939.4,34971.7,1.1793,1.1813,144.8,96.2,0.553
17.2,31857.0,34925.3,1.1741,1.1786,144.8,96.2,0.553
17.22,31852.4,34652.2,1.1738,1.1628,144.8,96.2,0.553
17.24,31888.3,34631.6,1.1761,1.1616,144.8,96.2,0.553
17.26,31817.0,34648.7,1.1716,1.1626,144.8,96.2,0.553
17.28,31838.0,34719.8,1.1729,1.1667,144.8,96.2,0.553
17.3,31840.4,34597.5,1.173,1.1596,144.8,96.2,0.553
17.32,31724.0,34525.6,1.1657,1.1555,144.8,96.2,0.553
17.34,31738.3,34427.3,1.1666,1.1498,144.8,96.2,0.553
17.36,31739.3,34572.4,1.1666,1.1582,144.8,96.2,0.553
17.38,31924.4,34735.9,1.1784,1.1677,144.8,96.2,0.553
17.4,32070.9,35099.5,1.1877,1.1887,144.8,96.2,0.553
17.42,32238.8,35404.2,1.1983,1.2064,144.8,96.2,0.553
17.44,32430.7,35728.4,1.2105,1.2252,144.8,96.2,0.553
17.46,32433.1,35879.5,1.2106,1.2339,144.8,96.2,0.553
17.48,32298.1,35602.8,1.2021,1.2179,144.8,96.2,0.553
17.5,32126.4,35446.8,1.1912,1.2088,144.8,96.2,0.553
17.52,32152.2,35294.4,1.1928,1.2,144.8,96.2,0.553
17.54,32078.2,35128.1,1.1881,1.1904,144.8,96.2,0.553
17.56,31954.2,35074.2,1.1803,1.1873,144.8,96.2,0.553
17.58,31997.1,34946.1,1.183,1.1798,144.8,96.2,0.553
17.6,31885.1,35017.3,1.1759,1.184,144.8,96.2,0.553
17.62,31842.1,34925.2,1.1731,1.1786,144.8,96.2,0.553
17.64,31830.2,34663.0,1.1724,1.1634,144.8,96.2,0.553
17.66,31886.1,34653.4,1.1759,1.1629,144.8,96.2,0.553
17.68,31914.6,34725.3,1.1777,1.167,144.8,96.2,0.553
17.7,31820.7,34642.3,1.1718,1.1622,144.8,96.2,0.553
17.72,31693.7,34582.9,1.1637,1.1588,144.8,96.2,0.553
17.74,31683.3,34520.2,1.1631,1.1552,144.8,96.2,0.553
17.76,31716.3,34430.2,1.1652,1.1499,144.8,96.2,0.553
17.78,31815.4,34563.5,1.1715,1.1577,144.8,96.2,0.553
17.8,31886.3,34877.6,1.176,1.1759,144.8,96.2,0.553
17.82,32140.7,35227.2,1.1921,1.1961,144.8,96.2,0.553
17.84,32343.9,35649.9,1.205,1.2206,144.8,96.2,0.553
17.86,32333.6,35763.9,1.2043,1.2272,144.8,96.2,0.553
17.88,32350.7,35671.5,1.2054,1.2219,144.8,96.2,0.553
17.9,32321.4,35621.0,1.2035,1.2189,144.8,96.2,0.553
17.92,32245.8,35377.9,1.1987,1.2049,144.8,96.2,0.553
17.94,32185.6,35218.2,1.1949,1.1956,144.8,96.2,0.553
17.96,32063.4,35043.0,1.1872,1.1855,144.8,96.2,0.553
17.98,32004.1,35028.8,1.1834,1.1846,144.8,96.2,0.553
18.0,32020.2,34949.8,1.1844,1.1801,144.8,96.2,0.553
18.02,31904.2,34886.9,1.1771,1.1764,144.8,96.2,0.553
18.04,31864.7,34753.3,1.1746,1.1687,144.8,96.2,0.553
18.06,31815.4,34674.2,1.1715,1.1641,144.8,96.2,0.553
18.08,31825.6,34676.5,1.1721,1.1642,144.8,96.2,0.553
18.1,31886.7,34627.5,1.176,1.1614,144.8,96.2,0.553
18.12,31825.7,34653.8,1.1721,1.1629,144.8,96.2,0.553
18.14,31828.4,34499.7,1.1723,1.154,144.8,96.2,0.553
18.16,31683.4,34398.3,1.1631,1.1481,144.8,96.2,0.553
18.18,31715.5,34496.7,1.1651,1.1538,144.8,96.2,0.553
18.2,31854.8,34666.9,1.174,1.1637,144.8,96.2,0.553
18.22,31887.1,34886.9,1.176,1.1764,144.8,96.2,0.553
18.24,32181.9,35325.9,1.1947,1.2018,144.8,96.2,0.553
18.26,32308.6,35605.8,1.2027,1.2181,144.8,96.2,0.553
18.28,32452.2,35728.3,1.2118,1.2252,144.8,96.2,0.553
18.3,32255.5,35671.2,1.1994,1.2219,144.8,96.2,0.553
18.32,32269.9,35510.5,1.2003,1.2125,144.8,96.2,0.553
18.34,32150.6,35239.9,1.1927,1.1969,144.8,96.2,0.553
18.36,32128.9,35345.8,1.1913,1.203,144.8,96.2,0.553
18.38,32006.1,35064.5,1.1835,1.1867,144.8,96.2,0.553
18.4,32007.5,35040.0,1.1836,1.1853,144.8,96.2,0.553
18.42,31992.6,34978.8,1.1827,1.1817,144.8,96.2,0.553
18.44,31968.8,34915.3,1.1812,1.178,144.8,96.2,0.553
18.46,31909.6,34868.6,1.1774,1.1753,144.8,96.2,0.553
18.48,31791.7,34669.0,1.17,1.1638,144.8,96.2,0.553
18.5,31867.8,34663.8,1.1748,1.1635,144.8,96.2,0.553
18.52,31814.9,34760.5,1.1714,1.1691,144.8,96.2,0.553
18.54,31802.3,34564.3,1.1706,1.1577,144.8,96.2,0.553
18.56,31785.6,34478.0,1.1696,1.1527,144.8,96.2,0.553
18.58,31800.1,34522.5,1.1705,1.1553,144.8,96.2,0.553
18.6,31745.4,34570.2,1.167,1.1581,144.8,96.2,0.553
18.62,31887.4,34723.5,1.176,1.1669,144.8,96.2,0.553
18.64,31958.8,35097.9,1.1805,1.1886,144.8,96.2,0.553
18.66,32212.1,35422.2,1.1966,1.2074,144.8,96.2,0.553
18.68,32321.2,35635.9,1.2035,1.2198,144.8,96.2,0.553
18.7,32326.3,35763.7,1.2038,1.2272,144.8,96.2,0.553
18.72,32313.7,35548.4,1.203,1.2147,144.8,96.2,0.553
18.74,32099.8,35416.7,1.1895,1.2071,144.8,96.2,0.553
18.76,32143.4,35208.7,1.1923,1.195,144.8,96.2,0.553
18.78,32071.1,35117.4,1.1877,1.1898,144.8,96.2,0.553
18.8,32011.2,35077.0,1.1839,1.1874,144.8,96.2,0.553
18.82,31999.7,35069.0,1.1831,1.187,144.8,96.2,0.553
18.84,32005.7,34914.1,1.1835,1.178,144.8,96.2,0.553
18.86,31989.1,34859.9,1.1825,1.1748,144.8,96.2,0.553
18.88,31848.6,34722.4,1.1736,1.1669,144.8,96.2,0.553
18.9,31859.9,34720.3,1.1743,1.1668,144.8,96.2,0.553
18.92,31869.5,34626.0,1.1749,1.1613,144.8,96.2,0.553
18.94,31838.7,34653.2,1.1729,1.1629,144.8,96.2,0.553
18.96,31804.6,34582.5,1.1708,1.1588,144.8,96.2,0.553
18.98,31758.7,34413.5,1.1679,1.149,144.8,96.2,0.553
19.0,31681.5,34516.8,1.163,1.155,144.8,96.2,0.553
19.02,31825.1,34553.1,1.1721,1.1571,144.8,96.2,0.553
19.04,31908.3,34817.0,1.1773,1.1724,144.8,96.2,0.553
19.06,32103.9,35101.3,1.1897,1.1888,144.8,96.2,0.553
19.08,32203.2,35585.8,1.196,1.2169,144.8,96.2,0.553
19.1,32367.0,35736.4,1.2064,1.2256,144.8,96.2,0.553
19.12,32299.8,35732.6,1.2022,1.2254,144.8,96.2,0.553
19.14,32278.9,35605.7,1.2008,1.2181,144.8,96.2,0.553
19.16,32178.6,35327.9,1.1945,1.202,144.8,96.2,0.553
19.18,32062.4,35249.7,1.1871,1.1974,144.8,96.2,0.553
19.2,32035.5,35041.3,1.1854,1.1854,144.8,96.2,0.553
19.22,32130.1,35095.8,1.1914,1.1885,144.8,96.2,0.553
19.24,31956.4,34958.7,1.1804,1.1806,144.8,96.2,0.553
19.26,31999.9,34877.7,1.1832,1.1759,144.8,96.2,0.553
19.28,31919.6,34704.7,1.1781,1.1659,144.8,96.2,0.553
19.3,31868.2,34813.5,1.1748,1.1722,144.8,96.2,0.553
19.32,31875.5,34661.0,1.1753,1.1633,144.8,96.2,0.553
19.34,31831.1,34651.0,1.1725,1.1627,144.8,96.2,0.553
19.36,31844.0,34656.7,1.1733,1.1631,144.8,96.2,0.553
19.38,31766.2,34565.6,1.1683,1.1578,144.8,96.2,0.553
19.4,31734.1,34540.4,1.1663,1.1563,144.8,96.2,0.553
19.42,31674.1,34518.8,1.1625,1.1551,144.8,96.2,0.553
19.44,31821.8,34654.8,1.1719,1.163,144.8,96.2,0.553
19.46,32049.4,34856.2,1.1863,1.1746,144.8,96.2,0.553
19.48,32207.0,35341.5,1.1963,1.2027,144.8,96.2,0.553
19.5,32263.3,35661.3,1.1999,1.2213,144.8,96.2,0.553
19.52,32471.9,35734.0,1.2131,1.2255,144.8,96.2,0.553
19.54,32317.4,35710.4,1.2033,1.2241,144.8,96.2,0.553
19.56,32380.8,35481.9,1.2073,1.2109,144.8,96.2,0.553
19.58,32215.6,35324.1,1.1968,1.2017,144.8,96.2,0.553
19.6,32159.8,35119.5,1.1933,1.1899,144.8,96.2,0.553
19.62,32039.1,35093.1,1.1856,1.1884,144.8,96.2,0.553
19.64,31982.9,35118.0,1.1821,1.1898,144.8,96.2,0.553
19.66,31951.6,35007.9,1.1801,1.1834,144.8,96.2,0.553
19.68,31837.8,34967.0,1.1729,1.181,144.8,96.2,0.553
19.7,31891.3,34708.3,1.1763,1.1661,144.8,96.2,0.553
19.72,31793.3,34826.6,1.1701,1.1729,144.8,96.2,0.553
19.74,31870.6,34721.2,1.175,1.1668,144.8,96.2,0.553
19.76,31901.1,34600.7,1.1769,1.1598,144.8,96.2,0.553
19.78,31817.1,34716.9,1.1716,1.1666,144.8,96.2,0.553
19.8,31753.3,34451.4,1.1675,1.1512,144.8,96.2,0.553
19.82,31738.1,34403.6,1.1666,1.1484,144.8,96.2,0.553
19.84,31777.6,34476.1,1.1691,1.1526,144.8,96.2,0.553
19.86,31834.1,34629.8,1.1726,1.1615,144.8,96.2,0.553
19.88,32026.4,34968.0,1.1848,1.1811,144.8,96.2,0.553
19.9,32275.5,35388.2,1.2006,1.2055,144.8,96.2,0.553
19.92,32410.5,35698.6,1.2092,1.2234,144.8,96.2,0.553
19.94,32366.7,35721.0,1.2064,1.2247,144.8,96.2,0.553
19.96,32218.5,35547.1,1.197,1.2147,144.8,96.2,0.553
19.98,32245.7,35456.2,1.1987,1.2094,144.8,96.2,0.553
20.0,32137.3,35342.2,1.1919,1.2028,144.8,96.2,0.553
20.02,32046.3,35130.8,1.1861,1.1905,144.8,96.2,0.553
20.04,32024.9,35114.9,1.1847,1.1896,144.8,96.2,0.553
20.06,32053.8,34962.8,1.1866,1.1808,144.8,96.2,0.553
20.08,31961.3,34956.6,1.1807,1.1804,144.8,96.2,0.553
20.1,31996.6,34895.7,1.1829,1.1769,144.8,96.2,0.553
20.12,31801.4,34725.0,1.1706,1.167,144.8,96.2,0.553
20.14,31873.4,34635.6,1.1751,1.1618,144.8,96.2,0.553
20.16,31806.5,34626.9,1.1709,1.1613,144.8,96.2,0.553
20.18,31796.1,34651.9,1.1702,1.1628,144.8,96.2,0.553
20.2,31791.8,34578.2,1.17,1.1585,144.8,96.2,0.553
20.22,31690.5,34530.0,1.1635,1.1557,144.8,96.2,0.553
20.24,31751.7,34519.6,1.1674,1.1551,144.8,96.2,0.553
20.26,31804.6,34545.1,1.1708,1.1566,144.8,96.2,0.553
20.28,31910.0,34737.8,1.1775,1.1678,144.8,96.2,0.553
20.3,32087.9,35153.3,1.1887,1.1918,144.8,96.2,0.553
20.32,32214.4,35482.7,1.1967,1.2109,144.8,96.2,0.553
20.34,32378.0,35705.2,1.2071,1.2238,144.8,96.2,0.553
20.36,32298.2,35817.3,1.2021,1.2303,144.8,96.2,0.553
20.38,32242.3,35630.4,1.1985,1.2195,144.8,96.2,0.553
20.4,32249.1,35406.7,1.1989,1.2065,144.8,96.2,0.553
20.42,32026.6,35298.6,1.1848,1.2003,144.8,96.2,0.553
20.44,32058.2,35117.9,1.1869,1.1898,144.8,96.2,0.553
20.46,32066.6,35132.3,1.1874,1.1906,144.8,96.2,0.553
20.48,31978.4,34903.8,1.1818,1.1774,144.8,96.2,0.553
20.5,31925.8,34918.7,1.1785,1.1782,144.8,96.2,0.553
20.52,31996.2,34852.0,1.1829,1.1744,144.8,96.2,0.553
20.54,31865.2,34706.5,1.1746,1.166,144.8,96.2,0.553
20.56,31855.9,34791.0,1.174,1.1709,144.8,96.2,0.553
20.58,31880.7,34686.7,1.1756,1.1648,144.8,96.2,0.553
20.6,31849.9,34662.0,1.1736,1.1634,144.8,96.2,0.553
20.62,31802.8,34523.2,1.1707,1.1553,144.8,96.2,0.553
20.64,31757.9,34500.9,1.1678,1.154,144.8,96.2,0.553
20.66,31634.9,34485.6,1.16,1.1532,144.8,96.2,0.553
20.68,31652.4,34487.9,1.1611,1.1533,144.8,96.2,0.553
20.7,31980.7,34864.7,1.1819,1.1751,144.8,96.2,0.553
20.72,32167.6,35204.0,1.1938,1.1948,144.8,96.2,0.553
20.74,32357.6,35522.3,1.2058,1.2132,144.8,96.2,0.553
20.76,32403.6,35797.4,1.2087,1.2292,144.8,96.2,0.553
20.78,32280.4,35764.8,1.2009,1.2273,144.8,96.2,0.553
20.8,32237.3,35554.6,1.1982,1.2151,144.8,96.2,0.553
20.82,32213.5,35411.4,1.1967,1.2068,144.8,96.2,0.553
20.84,32064.1,35271.4,1.1872,1.1987,144.8,96.2,0.553
20.86,32052.9,35211.3,1.1865,1.1952,144.8,96.2,0.553
20.88,32053.0,35107.5,1.1865,1.1892,144.8,96.2,0.553
20.9,32027.5,34904.5,1.1849,1.1774,144.8,96.2,0.553
20.92,32055.2,34928.7,1.1867,1.1788,144.8,96.2,0.553
20.94,31897.2,34816.8,1.1766,1.1723,144.8,96.2,0.553
20.96,31823.1,34702.0,1.1719,1.1657,144.8,96.2,0.553
20.98,31868.4,34643.1,1.1748,1.1623,144.8,96.2,0.553
21.0,31836.5,34679.3,1.1728,1.1644,144.8,96.2,0.553
21.02,31857.8,34673.5,1.1741,1.164,144.8,96.2,0.553
21.04,31786.5,34542.4,1.1696,1.1564,144.8,96.2,0.553
21.06,31644.4,34431.6,1.1606,1.15,144.8,96.2,0.553
21.08,31688.1,34482.2,1.1634,1.153,144.8,96.2,0.553
21.1,31762.3,34745.0,1.1681,1.1682,144.8,96.2,0.553
21.12,31966.9,34867.7,1.1811,1.1753,144.8,96.2,0.553
21.14,32131.5,35369.0,1.1915,1.2043,144.8,96.2,0.553
21.16,32277.8,35576.0,1.2008,1.2163,144.8,96.2,0.553
21.18,32442.6,35815.7,1.2112,1.2302,144.8,96.2,0.553
21.2,32351.9,35642.4,1.2055,1.2202,144.8,96.2,0.553
21.22,32148.4,35462.5,1.1926,1.2098,144.8,96.2,0.553
21.24,32139.1,35352.8,1.192,1.2034,144.8,96.2,0.553
21.26,32070.8,35257.5,1.1876,1.1979,144.8,96.2,0.553
21.28,31963.4,35039.5,1.1808,1.1852,144.8,96.2,0.553
21.3,32148.8,35128.7,1.1926,1.1904,144.8,96.2,0.553
21.32,31988.7,35008.3,1.1824,1.1834,144.8,96.2,0.553
21.34,31948.6,34859.8,1.1799,1.1748,144.8,96.2,0.553
21.36,31968.6,34738.3,1.1812,1.1678,144.8,96.2,0.553
21.38,31793.1,34681.2,1.17,1.1645,144.8,96.2,0.553
21.4,31854.0,34611.7,1.1739,1.1605,144.8,96.2,0.553
21.42,31787.6,34646.0,1.1697,1.1624,144.8,96.2,0.553
21.44,31827.6,34611.8,1.1722,1.1605,144.8,96.2,0.553
21.46,31775.8,34422.4,1.1689,1.1495,144.8,96.2,0.553
21.48,31777.4,34446.9,1.169,1.1509,144.8,96.2,0.553
21.5,31689.8,34477.7,1.1635,1.1527,144.8,96.2,0.553
21.52,31838.0,34753.0,1.1729,1.1686,144.8,96.2,0.553
21.54,32115.7,35096.2,1.1905,1.1885,144.8,96.2,0.553
21.56,32260.9,35384.3,1.1997,1.2052,144.8,96.2,0.553
21.58,32328.2,35632.9,1.204,1.2196,144.8,96.2,0.553
21.6,32412.1,35815.5,1.2093,1.2302,144.8,96.2,0.553
21.62,32435.3,35614.1,1.2108,1.2185,144.8,96.2,0.553
21.64,32256.1,35426.2,1.1994,1.2077,144.8,96.2,0.553
21.66,32128.6,35324.9,1.1913,1.2018,144.8,96.2,0.553
21.68,31981.7,35172.4,1.182,1.1929,144.8,96.2,0.553
21.7,32122.3,35157.9,1.1909,1.1921,144.8,96.2,0.553
21.72,32018.5,35041.3,1.1843,1.1854,144.8,96.2,0.553
21.74,31902.6,35010.4,1.177,1.1836,144.8,96.2,0.553
21.76,31977.8,34794.0,1.1818,1.171,144.8,96.2,0.553
21.78,31808.0,34723.3,1.171,1.1669,144.8,96.2,0.553
21.8,31873.2,34673.8,1.1751,1.1641,144.8,96.2,0.553
21.82,31799.9,34653.9,1.1705,1.1629,144.8,96.2,0.553
21.84,31809.2,34652.4,1.1711,1.1628,144.8,96.2,0.553
21.86,31803.5,34618.7,1.1707,1.1609,144.8,96.2,0.553
21.88,31754.8,34510.3,1.1676,1.1546,144.8,96.2,0.553
21.9,31731.7,34433.8,1.1662,1.1501,144.8,96.2,0.553
21.92,31770.8,34572.1,1.1686,1.1582,144.8,96.2,0.553
21.94,31943.6,34727.6,1.1796,1.1672,144.8,96.2,0.553
21.96,32026.0,35084.6,1.1848,1.1879,144.8,96.2,0.553
21.98,32287.6,35548.0,1.2014,1.2147,144.8,96.2,0.553
22.0,32457.3,35775.0,1.2121,1.2279,144.8,96.2,0.553
22.02,32374.5,35707.6,1.2069,1.224,144.8,96.2,0.553
22.04,32341.0,35591.7,1.2048,1.2172,144.8,96.2,0.553
22.06,32143.7,35398.6,1.1923,1.2061,144.8,96.2,0.553
22.08,32071.7,35175.3,1.1877,1.1931,144.8,96.2,0.553
22.1,31983.5,35126.5,1.1821,1.1903,144.8,96.2,0.553
22.12,32044.5,35166.4,1.186,1.1926,144.8,96.2,0.553
22.14,32079.0,34964.3,1.1882,1.1809,144.8,96.2,0.553
22.16,31963.6,34962.1,1.1809,1.1808,144.8,96.2,0.553
22.18,31885.6,34795.0,1.1759,1.1711,144.8,96.2,0.553
22.2,31867.5,34778.1,1.1748,1.1701,144.8,96.2,0.553
22.22,31889.8,34659.2,1.1762,1.1632,144.8,96.2,0.553
22.24,31862.2,34687.2,1.1744,1.1648,144.8,96.2,0.553
22.26,31850.6,34644.2,1.1737,1.1623,144.8,96.2,0.553
22.28,31789.1,34575.0,1.1698,1.1583,144.8,96.2,0.553
22.3,31726.7,34441.8,1.1658,1.1506,144.8,96.2,0.553
22.32,31775.4,34534.1,1.1689,1.156,144.8,96.2,0.553
22.34,31700.6,34626.6,1.1642,1.1613,144.8,96.2,0.553
22.36,31935.9,34916.7,1.1791,1.1781,144.8,96.2,0.553
22.38,32088.6,35259.4,1.1888,1.198,144.8,96.2,0.553
22.4,32345.9,35658.4,1.2051,1.2211,144.8,96.2,0.553
22.42,32399.7,35685.7,1.2085,1.2227,144.8,96.2,0.553
22.44,32320.0,35643.5,1.2034,1.2202,144.8,96.2,0.553
22.46,32269.5,35527.2,1.2002,1.2135,144.8,96.2,0.553
22.48,32158.0,35346.5,1.1932,1.203,144.8,96.2,0.553
22.5,32069.2,35083.4,1.1875,1.1878,144.8,96.2,0.553
22.52,32102.8,35094.8,1.1897,1.1885,144.8,96.2,0.553
22.54,32034.5,35124.7,1.1853,1.1902,144.8,96.2,0.553
22.56,32044.8,35006.8,1.186,1.1834,144.8,96.2,0.553
22.58,32009.0,34929.8,1.1837,1.1789,144.8,96.2,0.553
22.6,31833.8,34768.0,1.1726,1.1695,144.8,96.2,0.553
22.62,31845.8,34728.7,1.1734,1.1672,144.8,96.2,0.553
22.64,31825.6,34680.3,1.1721,1.1644,144.8,96.2,0.553
22.66,31889.2,34642.5,1.1761,1.1622,144.8,96.2,0.553
22.68,31675.4,34633.8,1.1626,1.1617,144.8,96.2,0.553
22.7,31714.3,34509.5,1.1651,1.1545,144.8,96.2,0.553
22.72,31683.8,34486.0,1.1631,1.1532,144.8,96.2,0.553
22.74,31809.9,34392.6,1.1711,1.1478,144.8,96.2,0.553
22.76,31830.3,34654.0,1.1724,1.1629,144.8,96.2,0.553
22.78,31989.2,35002.9,1.1825,1.1831,144.8,96.2,0.553
22.8,32177.3,35387.7,1.1944,1.2054,144.8,96.2,0.553
22.82,32342.7,35727.5,1.2049,1.2251,144.8,96.2,0.553
22.84,32325.1,35738.5,1.2038,1.2257,144.8,96.2,0.553
22.86,32367.7,35762.8,1.2065,1.2272,144.8,96.2,0.553
22.88,32143.4,35473.2,1.1922,1.2104,144.8,96.2,0.553
22.9,32102.7,35173.8,1.1897,1.193,144.8,96.2,0.553
22.92,32077.5,35174.4,1.1881,1.1931,144.8,96.2,0.553
22.94,32066.0,35170.8,1.1873,1.1929,144.8,96.2,0.553
22.96,31980.1,35109.8,1.1819,1.1893,144.8,96.2,0.553
22.98,32049.4,34983.0,1.1863,1.182,144.8,96.2,0.553
23.0,31883.1,34893.4,1.1758,1.1768,144.8,96.2,0.553
23.02,31822.8,34766.9,1.1719,1.1695,144.8,96.2,0.553
23.04,31883.9,34751.9,1.1758,1.1686,144.8,96.2,0.553
23.06,31940.6,34714.9,1.1794,1.1664,144.8,96.2,0.553
23.08,31767.2,34767.0,1.1684,1.1695,144.8,96.2,0.553
23.1,31852.9,34562.6,1.1738,1.1576,144.8,96.2,0.553
23.12,31730.3,34450.9,1.1661,1.1511,144.8,96.2,0.553
23.14,31671.9,34507.4,1.1624,1.1544,144.8,96.2,0.553
23.16,31601.4,34529.6,1.1579,1.1557,144.8,96.2,0.553
23.18,31859.8,34729.9,1.1743,1.1673,144.8,96.2,0.553
23.2,32076.2,35139.3,1.188,1.191,144.8,96.2,0.553
23.22,32241.5,35467.6,1.1985,1.2101,144.8,96.2,0.553
23.24,32371.1,35661.6,1.2067,1.2213,144.8,96.2,0.553
23.26,32423.7,35701.7,1.21,1.2236,144.8,96.2,0.553
23.28,32394.4,35633.2,1.2082,1.2196,144.8,96.2,0.553
23.3,32224.9,35450.1,1.1974,1.209,144.8,96.2,0.553
23.32,32102.0,35208.2,1.1896,1.195,144.8,96.2,0.553
23.34,32067.0,35126.7,1.1874,1.1903,144.8,96.2,0.553
23.36,31953.1,35130.1,1.1802,1.1905,144.8,96.2,0.553
23.38,31979.3,35089.2,1.1818,1.1881,144.8,96.2,0.553
23.4,31997.3,34934.8,1.183,1.1792,144.8,96.2,0.553
23.42,31952.8,34812.0,1.1802,1.1721,144.8,96.2,0.553
23.44,31820.3,34746.1,1.1718,1.1682,144.8,96.2,0.553
23.46,31804.5,34667.1,1.1708,1.1637,144.8,96.2,0.553
23.48,31862.0,34649.3,1.1744,1.1626,144.8,96.2,0.553
23.5,31812.1,34638.5,1.1712,1.162,144.8,96.2,0.553
23.52,31810.5,34541.7,1.1711,1.1564,144.8,96.2,0.553
23.54,31735.1,34470.1,1.1664,1.1523,144.8,96.2,0.553
23.56,31626.7,34477.1,1.1595,1.1527,144.8,96.2,0.553
23.58,31765.6,34560.1,1.1683,1.1575,144.8,96.2,0.553
23.6,31870.7,34880.2,1.175,1.176,144.8,96.2,0.553
23.62,32116.5,35191.1,1.1905,1.194,144.8,96.2,0.553
23.64,32247.2,35639.6,1.1988,1.22,144.8,96.2,0.553
23.66,32376.4,35739.8,1.207,1.2258,144.8,96.2,0.553
23.68,32387.8,35678.7,1.2077,1.2223,144.8,96.2,0.553
23.7,32438.8,35512.6,1.211,1.2127,144.8,96.2,0.553
23.72,32140.3,35422.9,1.1921,1.2075,144.8,96.2,0.553
23.74,32127.2,35189.7,1.1912,1.1939,144.8,96.2,0.553
23.76,32055.0,35060.4,1.1866,1.1865,144.8,96.2,0.553
23.78,32049.4,35062.0,1.1863,1.1866,144.8,96.2,0.553
23.8,32065.6,34965.4,1.1873,1.181,144.8,96.2,0.553
23.82,31991.7,34868.5,1.1826,1.1753,144.8,96.2,0.553
23.84,31892.7,34659.6,1.1764,1.1632,144.8,96.2,0.553
23.86,31888.5,34634.7,1.1761,1.1618,144.8,96.2,0.553
23.88,31819.4,34656.8,1.1717,1.1631,144.8,96.2,0.553
23.9,31793.7,34619.3,1.1701,1.1609,144.8,96.2,0.553
23.92,31886.6,34703.5,1.176,1.1658,144.8,96.2,0.553
23.94,31728.3,34599.4,1.1659,1.1597,144.8,96.2,0.553
23.96,31737.1,34473.3,1.1665,1.1524,144.8,96.2,0.553
23.98,31704.5,34509.3,1.1644,1.1545,144.8,96.2,0.553
24.0,31855.5,34618.4,1.174,1.1608,144.8,96.2,0.553
24.02,31999.1,34970.3,1.1831,1.1812,144.8,96.2,0.553
24.04,32114.3,35293.5,1.1904,1.2,144.8,96.2,0.553
24.06,32385.5,35621.5,1.2076,1.219,144.8,96.2,0.553
24.08,32449.2,35791.9,1.2116,1.2288,144.8,96.2,0.553
24.1,32301.6,35642.8,1.2023,1.2202,144.8,96.2,0.553
24.12,32202.7,35586.0,1.196,1.2169,144.8,96.2,0.553
24.14,32235.4,35401.8,1.1981,1.2062,144.8,96.2,0.553
24.16,32089.7,35202.4,1.1888,1.1947,144.8,96.2,0.553
24.18,32061.7,35106.4,1.1871,1.1891,144.8,96.2,0.553
24.2,31944.5,35081.5,1.1796,1.1877,144.8,96.2,0.553
24.22,31977.3,34989.8,1.1817,1.1824,144.8,96.2,0.553
24.24,31895.1,34887.1,1.1765,1.1764,144.8,96.2,0.553
24.26,31883.6,34780.1,1.1758,1.1702,144.8,96.2,0.553
24.28,31752.5,34796.0,1.1675,1.1711,144.8,96.2,0.553
24.3,31826.7,34617.4,1.1722,1.1608,144.8,96.2,0.553
24.32,31800.1,34616.0,1.1705,1.1607,144.8,96.2,0.553
24.34,31759.6,34595.8,1.1679,1.1595,144.8,96.2,0.553
24.36,31775.2,34488.1,1.1689,1.1533,144.8,96.2,0.553
24.38,31755.0,34485.7,1.1676,1.1532,144.8,96.2,0.553
24.4,31700.5,34513.1,1.1642,1.1547,144.8,96.2,0.553
24.42,31859.9,34659.5,1.1743,1.1632,144.8,96.2,0.553
24.44,32083.1,35116.5,1.1884,1.1897,144.8,96.2,0.553
24.46,32153.7,35395.7,1.1929,1.2059,144.8,96.2,0.553
24.48,32410.5,35670.4,1.2092,1.2218,144.8,96.2,0.553
24.5,32397.8,35834.8,1.2084,1.2313,144.8,96.2,0.553
24.52,32319.7,35657.6,1.2034,1.2211,144.8,96.2,0.553
24.54,32217.4,35528.3,1.1969,1.2136,144.8,96.2,0.553
24.56,32112.2,35247.6,1.1903,1.1973,144.8,96.2,0.553
24.58,32126.4,35120.1,1.1912,1.1899,144.8,96.2,0.553
24.6,31992.0,35112.8,1.1827,1.1895,144.8,96.2,0.553
24.62,32059.3,35057.9,1.1869,1.1863,144.8,96.2,0.553
24.64,31933.4,34981.6,1.1789,1.1819,144.8,96.2,0.553
24.66,31884.0,34871.7,1.1758,1.1755,144.8,96.2,0.553
24.68,31879.4,34706.1,1.1755,1.1659,144.8,96.2,0.553
24.7,31926.2,34647.9,1.1785,1.1626,144.8,96.2,0.553
24.72,31778.9,34651.6,1.1691,1.1628,144.8,96.2,0.553
24.74,31831.0,34630.4,1.1724,1.1615,144.8,96.2,0.553
24.76,31680.1,34598.3,1.1629,1.1597,144.8,96.2,0.553
24.78,31693.7,34533.0,1.1637,1.1559,144.8,96.2,0.553
24.8,31776.2,34496.5,1.169,1.1538,144.8,96.2,0.553
24.82,31816.3,34575.1,1.1715,1.1583,144.8,96.2,0.553
24.84,31872.9,34840.6,1.1751,1.1737,144.8,96.2,0.553
24.86,32065.8,35191.2,1.1873,1.194,144.8,96.2,0.553
24.88,32250.3,35568.2,1.199,1.2159,144.8,96.2,0.553
24.9,32329.0,35835.4,1.204,1.2314,144.8,96.2,0.553
24.92,32435.3,35853.7,1.2107,1.2324,144.8,96.2,0.553
24.94,32249.7,35565.5,1.199,1.2157,144.8,96.2,0.553
24.96,32203.2,35328.8,1.196,1.202,144.8,96.2,0.553
24.98,32101.8,35254.3,1.1896,1.1977,144.8,96.2,0.553
25.0,32248.3,35120.3,1.1989,1.1899,144.8,96.2,0.553
25.02,32041.3,35086.4,1.1858,1.188,144.8,96.2,0.553
25.04,32069.4,34932.1,1.1876,1.179,144.8,96.2,0.553
25.06,31922.9,34896.0,1.1783,1.1769,144.8,96.2,0.553
25.08,31884.5,34919.4,1.1758,1.1783,144.8,96.2,0.553
25.1,31762.6,34708.9,1.1681,1.1661,144.8,96.2,0.553
25.12,31862.0,34656.0,1.1744,1.163,144.8,96.2,0.553
25.14,31859.2,34616.6,1.1742,1.1607,144.8,96.2,0.553
25.16,31856.6,34702.9,1.1741,1.1657,144.8,96.2,0.553
25.18,31682.9,34547.5,1.1631,1.1567,144.8,96.2,0.553
25.2,31696.6,34423.0,1.1639,1.1495,144.8,96.2,0.553
25.22,31689.3,34516.0,1.1635,1.1549,144.8,96.2,0.553
25.24,31771.6,34517.4,1.1687,1.155,144.8,96.2,0.553
25.26,31966.9,34823.7,1.1811,1.1727,144.8,96.2,0.553
25.28,32040.1,35302.3,1.1857,1.2005,144.8,96.2,0.553
25.3,32316.6,35560.4,1.2032,1.2154,144.8,96.2,0.553
25.32,32408.9,35747.9,1.2091,1.2263,144.8,96.2,0.553
25.34,32359.4,35691.2,1.2059,1.223,144.8,96.2,0.553
25.36,32206.8,35599.5,1.1963,1.2177,144.8,96.2,0.553
25.38,32167.9,35304.4,1.1938,1.2006,144.8,96.2,0.553
25.4,32149.8,35207.1,1.1927,1.195,144.8,96.2,0.553
25.42,32119.9,35139.2,1.1908,1.191,144.8,96.2,0.553
25.44,31956.5,35061.6,1.1804,1.1865,144.8,96.2,0.553
25.46,31975.7,35009.5,1.1816,1.1835,144.8,96.2,0.553
25.48,31949.5,34893.6,1.18,1.1768,144.8,96.2,0.553
25.5,31827.3,34825.2,1.1722,1.1728,144.8,96.2,0.553
25.52,31907.1,34819.3,1.1773,1.1725,144.8,96.2,0.553
25.54,31778.4,34695.7,1.1691,1.1653,144.8,96.2,0.553
25.56,31901.2,34712.8,1.1769,1.1663,144.8,96.2,0.553
25.58,31792.6,34649.2,1.17,1.1626,144.8,96.2,0.553
25.6,31711.9,34578.9,1.1649,1.1586,144.8,96.2,0.553
25.62,31699.0,34430.2,1.1641,1.1499,144.8,96.2,0.553
25.64,31776.9,34476.2,1.169,1.1526,144.8,96.2,0.553
25.66,31863.5,34587.8,1.1745,1.1591,144.8,96.2,0.553
25.68,31970.5,34987.9,1.1813,1.1823,144.8,96.2,0.553
25.7,32248.5,35391.4,1.1989,1.2056,144.8,96.2,0.553
25.72,32251.3,35552.9,1.1991,1.215,144.8,96.2,0.553
25.74,32309.9,35831.7,1.2028,1.2312,144.8,96.2,0.553
25.76,32317.7,35593.7,1.2033,1.2174,144.8,96.2,0.553
25.78,32196.2,35459.7,1.1956,1.2096,144.8,96.2,0.553
25.8,32205.0,35236.6,1.1962,1.1967,144.8,96.2,0.553
25.82,32045.7,35106.1,1.1861,1.1891,144.8,96.2,0.553
25.84,32051.5,35094.0,1.1864,1.1884,144.8,96.2,0.553
25.86,32077.8,35077.1,1.1881,1.1874,144.8,96.2,0.553
25.88,32012.8,35011.0,1.184,1.1836,144.8,96.2,0.553
25.9,31923.5,34728.1,1.1783,1.1672,144.8,96.2,0.553
25.92,31941.3,34676.4,1.1794,1.1642,144.8,96.2,0.553
25.94,31844.8,34640.0,1.1733,1.1621,144.8,96.2,0.553
25.96,31858.6,34620.3,1.1742,1.161,144.8,96.2,0.553
25.98,31765.8,34635.1,1.1683,1.1618,144.8,96.2,0.553
26.0,31820.5,34487.3,1.1718,1.1532,144.8,96.2,0.553
26.02,31711.2,34426.3,1.1649,1.1497,144.8,96.2,0.553
26.04,31632.9,34474.2,1.1599,1.1525,144.8,96.2,0.553
26.06,31800.2,34537.5,1.1705,1.1562,144.8,96.2,0.553
26.08,31808.1,34853.4,1.171,1.1745,144.8,96.2,0.553
26.1,32052.9,35073.9,1.1865,1.1872,144.8,96.2,0.553
26.12,32245.9,35419.9,1.1987,1.2073,144.8,96.2,0.553
26.14,32322.0,35672.4,1.2036,1.2219,144.8,96.2,0.553
26.16,32350.1,35662.0,1.2054,1.2213,144.8,96.2,0.553
26.18,32333.4,35686.7,1.2043,1.2227,144.8,96.2,0.553
26.2,32182.2,35387.7,1.1947,1.2054,144.8,96.2,0.553
26.22,32062.5,35268.1,1.1871,1.1985,144.8,96.2,0.553
26.24,32002.8,35244.7,1.1833,1.1971,144.8,96.2,0.553
26.26,32035.7,35070.8,1.1854,1.1871,144.8,96.2,0.553
26.28,32102.7,35035.3,1.1897,1.185,144.8,96.2,0.553
26.3,31970.4,34948.0,1.1813,1.1799,144.8,96.2,0.553
26.32,31892.8,34806.6,1.1764,1.1718,144.8,96.2,0.553
26.34,31834.4,34647.2,1.1727,1.1625,144.8,96.2,0.553
26.36,31866.3,34689.1,1.1747,1.1649,144.8,96.2,0.553
26.38,31788.2,34667.3,1.1697,1.1637,144.8,96.2,0.553
26.4,31757.5,34663.7,1.1678,1.1635,144.8,96.2,0.553
26.42,31815.9,34570.3,1.1715,1.1581,144.8,96.2,0.553
26.44,31725.6,34475.2,1.1658,1.1526,144.8,96.2,0.553
26.46,31770.8,34528.0,1.1686,1.1556,144.8,96.2,0.553
26.48,31725.7,34524.7,1.1658,1.1554,144.8,96.2,0.553
26.5,31923.2,34853.1,1.1783,1.1744,144.8,96.2,0.553
26.52,32134.2,35292.6,1.1917,1.1999,144.8,96.2,0.553
26.54,32315.2,35437.6,1.2031,1.2083,144.8,96.2,0.553
26.56,32357.6,35768.0,1.2058,1.2275,144.8,96.2,0.553
26.58,32322.8,35705.3,1.2036,1.2238,144.8,96.2,0.553
26.6,32216.8,35561.0,1.1969,1.2155,144.8,96.2,0.553
26.62,32184.0,35427.6,1.1948,1.2077,144.8,96.2,0.553
26.64,32145.4,35208.3,1.1924,1.195,144.8,96.2,0.553
26.66,32046.8,35110.7,1.1861,1.1894,144.8,96.2,0.553
26.68,32046.1,35079.4,1.1861,1.1876,144.8,96.2,0.553
26.7,31964.3,35029.7,1.1809,1.1847,144.8,96.2,0.553
26.72,31940.5,34936.7,1.1794,1.1793,144.8,96.2,0.553
26.74,31913.2,34837.1,1.1777,1.1735,144.8,96.2,0.553
26.76,31736.1,34710.2,1.1664,1.1662,144.8,96.2,0.553
26.78,31804.7,34780.8,1.1708,1.1703,144.8,96.2,0.553
26.8,31843.5,34600.3,1.1732,1.1598,144.8,96.2,0.553
26.82,31759.3,34620.6,1.1679,1.161,144.8,96.2,0.553
26.84,31778.9,34494.4,1.1691,1.1537,144.8,96.2,0.553
26.86,31764.4,34460.3,1.1682,1.1517,144.8,96.2,0.553
26.88,31603.5,34480.9,1.158,1.1529,144.8,96.2,0.553
26.9,31953.1,34750.3,1.1802,1.1685,144.8,96.2,0.553
26.92,31979.6,34965.0,1.1819,1.1809,144.8,96.2,0.553
26.94,32207.9,35380.5,1.1963,1.205,144.8,96.2,0.553
26.96,32263.8,35528.0,1.1999,1.2136,144.8,96.2,0.553
26.98,32393.3,35703.1,1.2081,1.2237,144.8,96.2,0.553
27.0,32396.1,35697.2,1.2083,1.2234,144.8,96.2,0.553
27.02,32365.8,35542.7,1.2063,1.2144,144.8,96.2,0.553
27.04,32091.3,35273.9,1.1889,1.1988,144.8,96.2,0.553
27.06,32152.2,35175.1,1.1928,1.1931,144.8,96.2,0.553
27.08,32035.8,35056.8,1.1854,1.1863,144.8,96.2,0.553
27.1,32016.0,35058.6,1.1842,1.1864,144.8,96.2,0.553
27.12,31995.8,34948.5,1.1829,1.18,144.8,96.2,0.553
27.14,31917.0,34944.1,1.1779,1.1797,144.8,96.2,0.553
27.16,31931.1,34742.5,1.1788,1.168,144.8,96.2,0.553
27.18,31896.0,34748.7,1.1766,1.1684,144.8,96.2,0.553
27.2,31799.2,34651.6,1.1704,1.1628,144.8,96.2,0.553
27.22,31861.7,34604.9,1.1744,1.1601,144.8,96.2,0.553
27.24,31744.2,34629.3,1.1669,1.1615,144.8,96.2,0.553
27.26,31725.7,34463.4,1.1658,1.1519,144.8,96.2,0.553
27.28,31686.5,34454.8,1.1633,1.1514,144.8,96.2,0.553
27.3,31756.5,34470.2,1.1677,1.1523,144.8,96.2,0.553
27.32,31855.6,34662.1,1.174,1.1634,144.8,96.2,0.553
27.34,31985.9,35114.6,1.1823,1.1896,144.8,96.2,0.553
27.36,32222.7,35430.6,1.1973,1.2079,144.8,96.2,0.553
27.38,32437.8,35634.3,1.2109,1.2197,144.8,96.2,0.553
27.4,32322.7,35793.3,1.2036,1.2289,144.8,96.2,0.553
27.42,32421.8,35579.0,1.2099,1.2165,144.8,96.2,0.553
27.44,32312.1,35344.3,1.2029,1.2029,144.8,96.2,0.553
27.46,32109.7,35295.0,1.1901,1.2,144.8,96.2,0.553
27.48,32152.1,35170.2,1.1928,1.1928,144.8,96.2,0.553
27.5,31989.2,35136.2,1.1825,1.1908,144.8,96.2,0.553
27.52,32111.7,35023.5,1.1902,1.1843,144.8,96.2,0.553
27.54,31917.3,34955.2,1.1779,1.1804,144.8,96.2,0.553
27.56,31950.1,34958.8,1.18,1.1806,144.8,96.2,0.553
27.58,31800.8,34781.6,1.1705,1.1703,144.8,96.2,0.553
27.6,31836.8,34616.4,1.1728,1.1607,144.8,96.2,0.553
27.62,31931.6,34727.6,1.1788,1.1672,144.8,96.2,0.553
27.64,31760.5,34609.6,1.168,1.1603,144.8,96.2,0.553
27.66,31828.2,34563.2,1.1723,1.1576,144.8,96.2,0.553
27.68,31799.7,34438.5,1.1705,1.1504,144.8,96.2,0.553
27.7,31766.5,34535.4,1.1684,1.156,144.8,96.2,0.553
27.72,31770.8,34589.2,1.1686,1.1592,144.8,96.2,0.553
27.74,31988.9,34758.5,1.1825,1.169,144.8,96.2,0.553
27.76,32128.9,35195.4,1.1913,1.1943,144.8,96.2,0.553
27.78,32233.4,35497.2,1.198,1.2118,144.8,96.2,0.553
27.8,32451.3,35772.2,1.2118,1.2277,144.8,96.2,0.553
27.82,32444.7,35749.3,1.2113,1.2264,144.8,96.2,0.553
27.84,32273.5,35621.1,1.2005,1.2189,144.8,96.2,0.553
27.86,32252.4,35348.6,1.1992,1.2032,144.8,96.2,0.553
27.88,32045.6,35275.5,1.1861,1.1989,144.8,96.2,0.553
27.9,32037.2,35053.5,1.1855,1.1861,144.8,96.2,0.553
27.92,32063.4,35068.7,1.1872,1.1869,144.8,96.2,0.553
27.94,32077.0,35081.6,1.188,1.1877,144.8,96.2,0.553
27.96,31984.8,34885.0,1.1822,1.1763,144.8,96.2,0.553
27.98,31991.0,34819.2,1.1826,1.1725,144.8,96.2,0.553
28.0,31910.5,34705.8,1.1775,1.1659,144.8,96.2,0.553
28.02,31885.6,34736.9,1.1759,1.1677,144.8,96.2,0.553
28.04,31770.4,34696.1,1.1686,1.1654,144.8,96.2,0.553
28.06,31830.7,34597.1,1.1724,1.1596,144.8,96.2,0.553
28.08,31826.3,34565.3,1.1722,1.1578,144.8,96.2,0.553
28.1,31655.2,34536.4,1.1613,1.1561,144.8,96.2,0.553
28.12,31803.8,34426.8,1.1707,1.1497,144.8,96.2,0.553
28.14,31825.1,34658.4,1.1721,1.1632,144.8,96.2,0.553
28.16,31912.6,34820.3,1.1776,1.1725,144.8,96.2,0.553
28.18,32183.2,35272.2,1.1948,1.1987,144.8,96.2,0.553
28.2,32370.5,35674.2,1.2066,1.222,144.8,96.2,0.553
28.22,32251.2,35751.7,1.1991,1.2265,144.8,96.2,0.553
28.24,32409.8,35681.7,1.2091,1.2225,144.8,96.2,0.553
28.26,32285.4,35616.4,1.2012,1.2187,144.8,96.2,0.553
28.28,32151.6,35321.8,1.1928,1.2016,144.8,96.2,0.553
28.3,32052.3,35155.8,1.1865,1.192,144.8,96.2,0.553
28.32,32118.3,35134.0,1.1907,1.1907,144.8,96.2,0.553
28.34,32028.4,35059.3,1.185,1.1864,144.8,96.2,0.553
28.36,32106.7,35017.0,1.1899,1.1839,144.8,96.2,0.553
28.38,31896.4,34871.7,1.1766,1.1755,144.8,96.2,0.553
28.4,31890.9,34762.9,1.1762,1.1692,144.8,96.2,0.553
28.42,31872.6,34734.0,1.1751,1.1675,144.8,96.2,0.553
28.44,31876.1,34687.1,1.1753,1.1648,144.8,96.2,0.553
28.46,31872.4,34609.3,1.1751,1.1603,144.8,96.2,0.553
28.48,31823.5,34716.9,1.172,1.1666,144.8,96.2,0.553
28.5,31769.6,34513.2,1.1686,1.1547,144.8,96.2,0.553
28.52,31749.0,34496.7,1.1672,1.1538,144.8,96.2,0.553
28.54,31692.9,34468.6,1.1637,1.1522,144.8,96.2,0.553
28.56,31869.0,34739.5,1.1749,1.1679,144.8,96.2,0.553
28.58,32046.5,34985.8,1.1861,1.1821,144.8,96.2,0.553
28.6,32157.9,35402.4,1.1932,1.2063,144.8,96.2,0.553
28.62,32405.9,35713.7,1.2089,1.2243,144.8,96.2,0.553
28.64,32437.5,35677.6,1.2109,1.2222,144.8,96.2,0.553
28.66,32413.7,35657.5,1.2094,1.2211,144.8,96.2,0.553
28.68,32201.7,35523.6,1.1959,1.2133,144.8,96.2,0.553
28.7,32115.1,35287.1,1.1905,1.1996,144.8,96.2,0.553
28.72,32040.8,35175.8,1.1857,1.1931,144.8,96.2,0.553
28.74,32029.0,35111.8,1.185,1.1894,144.8,96.2,0.553
28.76,32000.7,35016.9,1.1832,1.1839,144.8,96.2,0.553
28.78,32008.3,34991.0,1.1837,1.1824,144.8,96.2,0.553
28.8,31933.1,34746.9,1.1789,1.1683,144.8,96.2,0.553
28.82,31871.4,34755.1,1.175,1.1688,144.8,96.2,0.553
28.84,31827.3,34708.1,1.1722,1.166,144.8,96.2,0.553
28.86,31892.5,34699.9,1.1763,1.1656,144.8,96.2,0.553
28.88,31880.1,34564.4,1.1756,1.1577,144.8,96.2,0.553
28.9,31847.1,34502.7,1.1735,1.1541,144.8,96.2,0.553
28.92,31705.8,34491.8,1.1645,1.1535,144.8,96.2,0.553
28.94,31756.7,34567.4,1.1677,1.1579,144.8,96.2,0.553
28.96,31745.5,34492.2,1.167,1.1535,144.8,96.2,0.553
28.98,31886.3,34777.9,1.176,1.1701,144.8,96.2,0.553
29.0,32102.8,35113.2,1.1897,1.1895,144.8,96.2,0.553
29.02,32289.4,35480.6,1.2015,1.2108,144.8,96.2,0.553
29.04,32350.3,35730.5,1.2054,1.2253,144.8,96.2,0.553
29.06,32436.2,35785.2,1.2108,1.2285,144.8,96.2,0.553
29.08,32267.0,35564.5,1.2001,1.2157,144.8,96.2,0.553
29.1,32180.1,35444.3,1.1946,1.2087,144.8,96.2,0.553
29.12,32106.6,35316.1,1.1899,1.2013,144.8,96.2,0.553
29.14,32106.2,35171.4,1.1899,1.1929,144.8,96.2,0.553
29.16,32063.6,35075.0,1.1872,1.1873,144.8,96.2,0.553
29.18,32012.7,35018.1,1.184,1.184,144.8,96.2,0.553
29.2,32019.9,34898.2,1.1844,1.1771,144.8,96.2,0.553
29.22,31909.0,34843.4,1.1774,1.1739,144.8,96.2,0.553
29.24,31918.6,34694.7,1.178,1.1653,144.8,96.2,0.553
29.26,31811.9,34684.0,1.1712,1.1646,144.8,96.2,0.553
29.28,31832.5,34726.2,1.1725,1.1671,144.8,96.2,0.553
29.3,31751.0,34652.3,1.1674,1.1628,144.8,96.2,0.553
29.32,31734.4,34618.4,1.1663,1.1608,144.8,96.2,0.553
29.34,31722.4,34549.4,1.1656,1.1568,144.8,96.2,0.553
29.36,31670.5,34475.5,1.1623,1.1526,144.8,96.2,0.553
29.38,31727.7,34448.7,1.1659,1.151,144.8,96.2,0.553
29.4,31932.1,34777.1,1.1789,1.17,144.8,96.2,0.553
29.42,32142.9,35278.0,1.1922,1.1991,144.8,96.2,0.553
29.44,32211.3,35531.6,1.1966,1.2138,144.8,96.2,0.553
29.46,32373.4,35699.3,1.2068,1.2235,144.8,96.2,0.553
29.48,32383.8,35801.8,1.2075,1.2294,144.8,96.2,0.553
29.5,32304.2,35587.6,1.2024,1.217,144.8,96.2,0.553
29.52,32200.1,35400.0,1.1958,1.2061,144.8,96.2,0.553
29.54,32163.5,35299.8,1.1935,1.2003,144.8,96.2,0.553
29.56,32105.4,35044.6,1.1898,1.1855,144.8,96.2,0.553
29.58,32014.8,35095.7,1.1841,1.1885,144.8,96.2,0.553
29.6,31954.8,34991.3,1.1803,1.1825,144.8,96.2,0.553
29.62,31973.8,34898.9,1.1815,1.1771,144.8,96.2,0.553
29.64,31937.4,34848.3,1.1792,1.1742,144.8,96.2,0.553
29.66,31818.1,34822.5,1.1716,1.1727,144.8,96.2,0.553
29.68,31882.3,34635.9,1.1757,1.1619,144.8,96.2,0.553
29.7,31914.9,34689.3,1.1778,1.165,144.8,96.2,0.553
29.72,31786.6,34582.9,1.1696,1.1588,144.8,96.2,0.553
29.74,31850.3,34601.6,1.1737,1.1599,144.8,96.2,0.553
29.76,31686.1,34437.9,1.1633,1.1504,144.8,96.2,0.553
29.78,31711.0,34560.5,1.1648,1.1575,144.8,96.2,0.553
29.8,31831.7,34594.7,1.1725,1.1595,144.8,96.2,0.553
29.82,31967.3,34971.9,1.1811,1.1813,144.8,96.2,0.553
29.84,32082.1,35229.0,1.1884,1.1962,144.8,96.2,0.553
29.86,32291.1,35573.9,1.2016,1.2162,144.8,96.2,0.553
29.88,32335.3,35711.7,1.2044,1.2242,144.8,96.2,0.553
29.9,32326.2,35716.6,1.2038,1.2245,144.8,96.2,0.553
29.92,32326.7,35508.2,1.2039,1.2124,144.8,96.2,0.553
29.94,32183.6,35332.5,1.1948,1.2022,144.8,96.2,0.553
29.96,32107.2,35241.3,1.19,1.1969,144.8,96.2,0.553
29.98,32035.5,35133.1,1.1854,1.1907,144.8,96.2,0.553
30.0,31996.5,35120.0,1.1829,1.1899,144.8,96.2,0.553
30.02,32001.0,34911.6,1.1832,1.1778,144.8,96.2,0.553
30.04,31955.3,34941.3,1.1803,1.1796,144.8,96.2,0.553
30.06,31815.2,34801.0,1.1714,1.1714,144.8,96.2,0.553
30.08,31811.3,34599.7,1.1712,1.1598,144.8,96.2,0.553
30.1,31805.8,34802.0,1.1708,1.1715,144.8,96.2,0.553
30.12,31962.9,34669.2,1.1808,1.1638,144.8,96.2,0.553
30.14,31799.4,34604.6,1.1704,1.16,144.8,96.2,0.553
30.16,31790.8,34504.9,1.1699,1.1543,144.8,96.2,0.553
30.18,31745.0,34433.7,1.167,1.1501,144.8,96.2,0.553
30.2,31676.6,34474.7,1.1627,1.1525,144.8,96.2,0.553
30.22,31882.3,34662.5,1.1757,1.1634,144.8,96.2,0.553
30.24,31993.3,35009.8,1.1827,1.1835,144.8,96.2,0.553
30.26,32114.1,35429.6,1.1904,1.2078,144.8,96.2,0.553
30.28,32304.1,35684.5,1.2024,1.2226,144.8,96.2,0.553
30.3,32419.6,35709.1,1.2098,1.224,144.8,96.2,0.553
30.32,32344.3,35659.9,1.205,1.2212,144.8,96.2,0.553
30.34,32250.8,35454.9,1.1991,1.2093,144.8,96.2,0.553
30.36,32175.1,35297.4,1.1943,1.2002,144.8,96.2,0.553
30.38,32045.3,35171.9,1.186,1.1929,144.8,96.2,0.553
30.4,32035.3,34978.2,1.1854,1.1817,144.8,96.2,0.553
30.42,32011.9,35106.2,1.1839,1.1891,144.8,96.2,0.553
30.44,31988.8,34961.9,1.1824,1.1808,144.8,96.2,0.553
30.46,31899.8,34867.2,1.1768,1.1753,144.8,96.2,0.553
30.48,31863.9,34792.4,1.1745,1.1709,144.8,96.2,0.553
30.5,31820.5,34770.2,1.1718,1.1696,144.8,96.2,0.553
30.52,31789.2,34623.7,1.1698,1.1612,144.8,96.2,0.553
30.54,31897.2,34686.3,1.1766,1.1648,144.8,96.2,0.553
30.56,31755.9,34643.6,1.1677,1.1623,144.8,96.2,0.553
30.58,31838.8,34547.1,1.1729,1.1567,144.8,96.2,0.553
30.6,31805.1,34541.5,1.1708,1.1564,144.8,96.2,0.553
30.62,31721.5,34547.4,1.1655,1.1567,144.8,96.2,0.553
30.64,31837.5,34731.5,1.1729,1.1674,144.8,96.2,0.553
30.66,32051.1,35208.1,1.1864,1.195,144.8,96.2,0.553
30.68,32285.9,35535.7,1.2013,1.214,144.8,96.2,0.553
30.7,32268.8,35774.5,1.2002,1.2278,144.8,96.2,0.553
30.72,32368.6,35720.8,1.2065,1.2247,144.8,96.2,0.553
30.74,32204.3,35604.2,1.1961,1.218,144.8,96.2,0.553
30.76,32204.1,35398.6,1.1961,1.2061,144.8,96.2,0.553
30.78,32128.5,35294.3,1.1913,1.2,144.8,96.2,0.553
30.8,32024.8,35125.6,1.1847,1.1902,144.8,96.2,0.553
30.82,31971.5,35017.8,1.1814,1.184,144.8,96.2,0.553
30.84,32087.7,35003.6,1.1887,1.1832,144.8,96.2,0.553
30.86,32030.0,34855.2,1.1851,1.1746,144.8,96.2,0.553
30.88,31923.9,34850.1,1.1783,1.1743,144.8,96.2,0.553
30.9,31839.0,34663.5,1.173,1.1635,144.8,96.2,0.553
30.92,31760.0,34668.0,1.1679,1.1637,144.8,96.2,0.553
30.94,31895.2,34823.6,1.1765,1.1727,144.8,96.2,0.553
30.96,31864.2,34651.1,1.1746,1.1627,144.8,96.2,0.553
30.98,31743.2,34609.2,1.1669,1.1603,144.8,96.2,0.553
31.0,31753.2,34499.8,1.1675,1.154,144.8,96.2,0.553
31.02,31760.9,34401.1,1.168,1.1483,144.8,96.2,0.553
31.04,31782.1,34537.0,1.1693,1.1561,144.8,96.2,0.553
31.06,31951.0,34878.0,1.1801,1.1759,144.8,96.2,0.553
31.08,32206.0,35263.3,1.1962,1.1982,144.8,96.2,0.553
31.1,32273.6,35650.8,1.2005,1.2207,144.8,96.2,0.553
31.12,32404.1,35669.4,1.2088,1.2217,144.8,96.2,0.553
31.14,32367.1,35761.0,1.2064,1.2271,144.8,96.2,0.553
31.16,32248.9,35564.0,1.1989,1.2156,144.8,96.2,0.553
31.18,32224.2,35361.0,1.1974,1.2039,144.8,96.2,0.553
31.2,32030.0,35175.1,1.1851,1.1931,144.8,96.2,0.553
31.22,32051.6,35167.5,1.1864,1.1927,144.8,96.2,0.553
31.24,31989.5,35096.5,1.1825,1.1885,144.8,96.2,0.553
31.26,31999.6,35040.1,1.1831,1.1853,144.8,96.2,0.553
31.28,31936.3,34886.9,1.1791,1.1764,144.8,96.2,0.553
31.3,31940.1,34814.0,1.1794,1.1722,144.8,96.2,0.553
31.32,31864.9,34610.2,1.1746,1.1604,144.8,96.2,0.553
31.34,31808.9,34715.6,1.171,1.1665,144.8,96.2,0.553
31.36,31817.4,34612.5,1.1716,1.1605,144.8,96.2,0.553
31.38,31828.2,34643.9,1.1723,1.1623,144.8,96.2,0.553
31.4,31780.0,34614.8,1.1692,1.1606,144.8,96.2,0.553
31.42,31694.6,34472.9,1.1638,1.1524,144.8,96.2,0.553
31.44,31706.9,34566.7,1.1646,1.1578,144.8,96.2,0.553
31.46,31791.6,34657.5,1.1699,1.1631,144.8,96.2,0.553
31.48,31989.7,34986.1,1.1825,1.1822,144.8,96.2,0.553
31.5,32220.2,35401.0,1.1971,1.2062,144.8,96.2,0.553
31.52,32340.7,35577.0,1.2048,1.2164,144.8,96.2,0.553
31.54,32374.3,35693.4,1.2069,1.2231,144.8,96.2,0.553
31.56,32216.2,35801.8,1.1969,1.2294,144.8,96.2,0.553
31.58,32250.9,35467.4,1.1991,1.21,144.8,96.2,0.553
31.6,32186.8,35261.2,1.195,1.1981,144.8,96.2,0.553
31.62,32027.0,35150.9,1.1849,1.1917,144.8,96.2,0.553
31.64,31993.7,35073.0,1.1828,1.1872,144.8,96.2,0.553
31.66,31949.6,35021.8,1.18,1.1842,144.8,96.2,0.553
31.68,31919.5,34946.8,1.1781,1.1799,144.8,96.2,0.553
31.7,31905.6,34846.3,1.1772,1.174,144.8,96.2,0.553
31.72,31894.6,34684.9,1.1765,1.1647,144.8,96.2,0.553
31.74,31872.7,34740.1,1.1751,1.1679,144.8,96.2,0.553
31.76,31764.8,34648.6,1.1682,1.1626,144.8,96.2,0.553
31.78,31801.0,34595.2,1.1705,1.1595,144.8,96.2,0.553
31.8,31755.7,34575.3,1.1677,1.1584,144.8,96.2,0.553
31.82,31724.2,34468.4,1.1657,1.1522,144.8,96.2,0.553
31.84,31720.0,34506.1,1.1654,1.1543,144.8,96.2,0.553
31.86,31796.9,34497.7,1.1703,1.1539,144.8,96.2,0.553
31.88,31912.9,34726.2,1.1776,1.1671,144.8,96.2,0.553
31.9,32056.0,35099.4,1.1867,1.1887,144.8,96.2,0.553
31.92,32161.7,35510.9,1.1934,1.2126,144.8,96.2,0.553
31.94,32325.1,35711.2,1.2038,1.2242,144.8,96.2,0.553
31.96,32336.2,35777.4,1.2045,1.228,144.8,96.2,0.553
31.98,32330.8,35740.2,1.2041,1.2258,144.8,96.2,0.553
32.0,32185.5,35390.9,1.1949,1.2056,144.8,96.2,0.553
32.02,32159.8,35284.1,1.1933,1.1994,144.8,96.2,0.553
32.04,32059.7,35191.8,1.1869,1.1941,144.8,96.2,0.553
32.06,32088.8,35182.1,1.1888,1.1935,144.8,96.2,0.553
32.08,32071.5,35003.5,1.1877,1.1832,144.8,96.2,0.553
32.1,31984.5,34897.2,1.1822,1.177,144.8,96.2,0.553
32.12,31949.5,34843.5,1.18,1.1739,144.8,96.2,0.553
32.14,31805.8,34769.6,1.1709,1.1696,144.8,96.2,0.553
32.16,31816.8,34683.9,1.1715,1.1646,144.8,96.2,0.553
32.18,31854.9,34664.2,1.174,1.1635,144.8,96.2,0.553
32.2,31811.5,34662.5,1.1712,1.1634,144.8,96.2,0.553
32.22,31781.9,34533.2,1.1693,1.1559,144.8,96.2,0.553
32.24,31818.8,34555.5,1.1717,1.1572,144.8,96.2,0.553
32.26,31659.3,34389.9,1.1616,1.1476,144.8,96.2,0.553
32.28,31759.3,34568.0,1.1679,1.1579,144.8,96.2,0.553
32.3,31928.7,34786.0,1.1786,1.1706,144.8,96.2,0.553
32.32,32054.0,35158.9,1.1866,1.1922,144.8,96.2,0.553
32.34,32402.7,35514.2,1.2087,1.2128,144.8,96.2,0.553
32.36,32328.9,35771.8,1.204,1.2277,144.8,96.2,0.553
32.38,32237.5,35721.8,1.1982,1.2248,144.8,96.2,0.553
32.4,32353.5,35543.9,1.2056,1.2145,144.8,96.2,0.553
32.42,32092.4,35350.3,1.189,1.2033,144.8,96.2,0.553
32.44,32133.2,35231.4,1.1916,1.1964,144.8,96.2,0.553
32.46,32026.3,35132.7,1.1848,1.1906,144.8,96.2,0.553
32.48,31973.1,35034.2,1.1815,1.1849,144.8,96.2,0.553
32.5,31957.0,35075.6,1.1804,1.1873,144.8,96.2,0.553
32.52,31943.2,34969.7,1.1796,1.1812,144.8,96.2,0.553
32.54,31843.5,34838.6,1.1732,1.1736,144.8,96.2,0.553
32.56,31796.4,34606.0,1.1703,1.1601,144.8,96.2,0.553
32.58,31921.8,34660.8,1.1782,1.1633,144.8,96.2,0.553
32.6,31797.3,34625.4,1.1703,1.1613,144.8,96.2,0.553
32.62,31774.9,34687.3,1.1689,1.1648,144.8,96.2,0.553
32.64,31738.7,34465.2,1.1666,1.152,144.8,96.2,0.553
32.66,31613.9,34409.2,1.1587,1.1487,144.8,96.2,0.553
32.68,31780.9,34390.4,1.1693,1.1476,144.8,96.2,0.553
32.7,31828.5,34551.7,1.1723,1.157,144.8,96.2,0.553
32.72,31976.5,35007.9,1.1817,1.1834,144.8,96.2,0.553
32.74,32165.9,35325.4,1.1937,1.2018,144.8,96.2,0.553
32.76,32377.9,35653.3,1.2071,1.2208,144.8,96.2,0.553
32.78,32369.9,35775.4,1.2066,1.2279,144.8,96.2,0.553
32.8,32393.5,35656.5,1.2081,1.221,144.8,96.2,0.553
32.82,32248.7,35546.2,1.1989,1.2146,144.8,96.2,0.553
32.84,32123.7,35306.8,1.191,1.2007,144.8,96.2,0.553
32.86,32110.0,35218.0,1.1901,1.1956,144.8,96.2,0.553
32.88,32072.4,35090.0,1.1878,1.1882,144.8,96.2,0.553
32.9,32062.3,35104.7,1.1871,1.189,144.8,96.2,0.553
32.92,32001.8,34955.2,1.1833,1.1804,144.8,96.2,0.553
32.94,31946.6,34894.4,1.1798,1.1768,144.8,96.2,0.553
32.96,31903.6,34784.0,1.1771,1.1704,144.8,96.2,0.553
32.98,31797.4,34744.9,1.1703,1.1682,144.8,96.2,0.553
33.0,31776.4,34610.5,1.169,1.1604,144.8,96.2,0.553
33.02,31805.1,34603.8,1.1708,1.16,144.8,96.2,0.553
33.04,31799.0,34533.1,1.1704,1.1559,144.8,96.2,0.553
33.06,31783.9,34552.5,1.1695,1.157,144.8,96.2,0.553
33.08,31747.8,34429.3,1.1672,1.1499,144.8,96.2,0.553
33.1,31804.3,34571.2,1.1708,1.1581,144.8,96.2,0.553
33.12,31791.8,34527.3,1.17,1.1556,144.8,96.2,0.553
33.14,32061.3,35055.2,1.187,1.1862,144.8,96.2,0.553
33.16,32148.9,35431.0,1.1926,1.2079,144.8,96.2,0.553
33.18,32220.6,35722.2,1.1971,1.2248,144.8,96.2,0.553
33.2,32438.0,35767.4,1.2109,1.2274,144.8,96.2,0.553
33.22,32393.8,35699.9,1.2081,1.2235,144.8,96.2,0.553
33.24,32247.1,35467.5,1.1988,1.21,144.8,96.2,0.553
33.26,32121.7,35299.6,1.1909,1.2003,144.8,96.2,0.553
33.28,31997.5,35187.8,1.183,1.1938,144.8,96.2,0.553
33.3,32047.5,35075.3,1.1862,1.1873,144.8,96.2,0.553
33.32,32073.7,34996.9,1.1878,1.1828,144.8,96.2,0.553
33.34,31942.1,35000.6,1.1795,1.183,144.8,96.2,0.553
33.36,31916.2,34840.3,1.1778,1.1737,144.8,96.2,0.553
33.38,31877.3,34795.9,1.1754,1.1711,144.8,96.2,0.553
33.4,31832.3,34608.4,1.1725,1.1603,144.8,96.2,0.553
33.42,31901.7,34753.0,1.1769,1.1686,144.8,96.2,0.553
33.44,31835.1,34649.6,1.1727,1.1627,144.8,96.2,0.553
33.46,31796.1,34533.9,1.1702,1.1559,144.8,96.2,0.553
33.48,31841.4,34549.5,1.1731,1.1569,144.8,96.2,0.553
33.5,31682.2,34433.0,1.163,1.1501,144.8,96.2,0.553
33.52,31730.4,34580.9,1.1661,1.1587,144.8,96.2,0.553
33.54,31909.5,34684.9,1.1774,1.1647,144.8,96.2,0.553
33.56,32076.8,35186.8,1.188,1.1938,144.8,96.2,0.553
33.58,32256.3,35477.5,1.1994,1.2106,144.8,96.2,0.553
33.6,32330.8,35710.5,1.2041,1.2241,144.8,96.2,0.553
33.62,32294.3,35784.9,1.2018,1.2284,144.8,96.2,0.553
33.64,32212.7,35567.6,1.1966,1.2158,144.8,96.2,0.553
33.66,32145.7,35346.4,1.1924,1.203,144.8,96.2,0.553
33.68,32031.2,35265.9,1.1851,1.1984,144.8,96.2,0.553
33.7,32105.5,35170.9,1.1898,1.1929,144.8,96.2,0.553
33.72,31990.3,35076.8,1.1825,1.1874,144.8,96.2,0.553
33.74,32000.1,34975.7,1.1832,1.1816,144.8,96.2,0.553
33.76,31947.8,34929.5,1.1798,1.1789,144.8,96.2,0.553
33.78,31970.1,34727.7,1.1813,1.1672,144.8,96.2,0.553
33.8,31861.6,34689.8,1.1744,1.165,144.8,96.2,0.553
33.82,31795.7,34627.6,1.1702,1.1614,144.8,96.2,0.553
33.84,31834.2,34646.7,1.1727,1.1625,144.8,96.2,0.553
33.86,31763.4,34623.9,1.1682,1.1612,144.8,96.2,0.553
33.88,31737.6,34533.6,1.1665,1.1559,144.8,96.2,0.553
33.9,31747.1,34508.0,1.1671,1.1544,144.8,96.2,0.553
33.92,31678.1,34427.7,1.1628,1.1498,144.8,96.2,0.553
33.94,31865.2,34658.4,1.1746,1.1632,144.8,96.2,0.553
33.96,31980.2,34777.2,1.1819,1.1701,144.8,96.2,0.553
33.98,32216.7,35275.0,1.1969,1.1989,144.8,96.2,0.553
34.0,32253.5,35541.8,1.1992,1.2144,144.8,96.2,0.553
34.02,32411.4,35772.6,1.2092,1.2277,144.8,96.2,0.553
34.04,32414.4,35728.0,1.2094,1.2251,144.8,96.2,0.553
34.06,32321.1,35509.0,1.2035,1.2125,144.8,96.2,0.553
34.08,32231.9,35385.3,1.1979,1.2053,144.8,96.2,0.553
34.1,32077.2,35294.6,1.1881,1.2,144.8,96.2,0.553
34.12,32083.6,35085.3,1.1885,1.1879,144.8,96.2,0.553
34.14,32075.9,35049.8,1.188,1.1858,144.8,96.2,0.553
34.16,32056.9,34987.5,1.1868,1.1822,144.8,96.2,0.553
34.18,32009.6,34945.2,1.1838,1.1798,144.8,96.2,0.553
34.2,31899.7,34848.1,1.1768,1.1742,144.8,96.2,0.553
34.22,31839.2,34686.0,1.173,1.1648,144.8,96.2,0.553
34.24,31820.4,34690.1,1.1718,1.165,144.8,96.2,0.553
34.26,31870.0,34674.9,1.1749,1.1641,144.8,96.2,0.553
34.28,31823.5,34637.0,1.172,1.1619,144.8,96.2,0.553
34.3,31763.4,34446.8,1.1682,1.1509,144.8,96.2,0.553
34.32,31720.0,34428.1,1.1654,1.1498,144.8,96.2,0.553
34.34,31784.9,34432.3,1.1695,1.1501,144.8,96.2,0.553
34.36,31857.7,34698.6,1.1741,1.1655,144.8,96.2,0.553
34.38,32008.0,35072.5,1.1837,1.1872,144.8,96.2,0.553
34.4,32218.4,35331.6,1.197,1.2022,144.8,96.2,0.553
34.42,32344.1,35626.2,1.205,1.2192,144.8,96.2,0.553
34.44,32350.7,35747.6,1.2054,1.2263,144.8,96.2,0.553
34.46,32299.9,35626.8,1.2022,1.2193,144.8,96.2,0.553
34.48,32217.6,35472.7,1.197,1.2103,144.8,96.2,0.553
34.5,32230.8,35299.7,1.1978,1.2003,144.8,96.2,0.553
34.52,32043.8,35199.2,1.1859,1.1945,144.8,96.2,0.553
34.54,32171.1,35138.8,1.194,1.191,144.8,96.2,0.553
34.56,32055.8,34971.0,1.1867,1.1813,144.8,96.2,0.553
34.58,31971.4,34933.1,1.1813,1.1791,144.8,96.2,0.553
34.6,31894.4,34798.2,1.1765,1.1713,144.8,96.2,0.553
34.62,31818.6,34792.4,1.1717,1.1709,144.8,96.2,0.553
34.64,31794.4,34836.5,1.1701,1.1735,144.8,96.2,0.553
34.66,31830.9,34640.6,1.1724,1.1621,144.8,96.2,0.553
34.68,31847.5,34633.7,1.1735,1.1617,144.8,96.2,0.553
34.7,31755.8,34650.1,1.1677,1.1627,144.8,96.2,0.553
34.72,31695.8,34508.0,1.1639,1.1545,144.8,96.2,0.553
34.74,31742.1,34454.2,1.1668,1.1513,144.8,96.2,0.553
34.76,31760.1,34507.3,1.168,1.1544,144.8,96.2,0.553
34.78,31790.6,34857.1,1.1699,1.1747,144.8,96.2,0.553
34.8,32087.8,35080.0,1.1887,1.1876,144.8,96.2,0.553
34.82,32229.6,35516.3,1.1977,1.2129,144.8,96.2,0.553
34.84,32305.6,35644.3,1.2025,1.2203,144.8,96.2,0.553
34.86,32384.3,35807.8,1.2075,1.2298,144.8,96.2,0.553
34.88,32196.0,35640.8,1.1956,1.2201,144.8,96.2,0.553
34.9,32264.9,35460.8,1.1999,1.2097,144.8,96.2,0.553
34.92,32052.6,35397.3,1.1865,1.206,144.8,96.2,0.553
34.94,32076.2,35162.9,1.188,1.1924,144.8,96.2,0.553
34.96,32081.9,35049.8,1.1883,1.1858,144.8,96.2,0.553
34.98,32083.4,34979.5,1.1884,1.1818,144.8,96.2,0.553
35.0,31955.1,34920.6,1.1803,1.1784,144.8,96.2,0.553
35.02,31952.4,34895.0,1.1801,1.1769,144.8,96.2,0.553
35.04,31935.0,34812.6,1.179,1.1721,144.8,96.2,0.553
35.06,31816.8,34684.0,1.1715,1.1646,144.8,96.2,0.553
35.08,31766.3,34734.4,1.1683,1.1676,144.8,96.2,0.553
35.1,31802.6,34599.4,1.1706,1.1597,144.8,96.2,0.553
35.12,31765.9,34529.1,1.1683,1.1557,144.8,96.2,0.553
35.14,31691.4,34483.9,1.1636,1.1531,144.8,96.2,0.553
35.16,31780.8,34439.7,1.1693,1.1505,144.8,96.2,0.553
35.18,31757.3,34481.1,1.1678,1.1529,144.8,96.2,0.553
35.2,31860.9,34878.6,1.1743,1.1759,144.8,96.2,0.553
35.22,32111.2,35178.6,1.1902,1.1933,144.8,96.2,0.553
35.24,32275.5,35507.4,1.2006,1.2124,144.8,96.2,0.553
35.26,32429.5,35816.3,1.2104,1.2303,144.8,96.2,0.553
35.28,32392.1,35713.7,1.208,1.2243,144.8,96.2,0.553
35.3,32326.7,35553.6,1.2039,1.215,144.8,96.2,0.553
35.32,32213.8,35457.0,1.1967,1.2094,144.8,96.2,0.553
35.34,32150.4,35193.7,1.1927,1.1942,144.8,96.2,0.553
35.36,32135.9,35104.3,1.1918,1.189,144.8,96.2,0.553
35.38,32031.1,35157.6,1.1851,1.1921,144.8,96.2,0.553
35.4,31993.4,35018.2,1.1827,1.184,144.8,96.2,0.553
35.42,31963.7,34947.2,1.1809,1.1799,144.8,96.2,0.553
35.44,31971.0,34764.0,1.1813,1.1693,144.8,96.2,0.553
35.46,31845.2,34642.4,1.1733,1.1622,144.8,96.2,0.553
35.48,31814.5,34668.9,1.1714,1.1638,144.8,96.2,0.553
35.5,31851.8,34622.9,1.1738,1.1611,144.8,96.2,0.553
35.52,31774.1,34636.6,1.1688,1.1619,144.8,96.2,0.553
35.54,31777.3,34605.3,1.169,1.1601,144.8,96.2,0.553
35.56,31857.4,34483.9,1.1741,1.1531,144.8,96.2,0.553
35.58,31765.4,34456.3,1.1683,1.1515,144.8,96.2,0.553
35.6,31820.6,34706.3,1.1718,1.1659,144.8,96.2,0.553
35.62,31897.3,34914.0,1.1767,1.178,144.8,96.2,0.553
35.64,32108.3,35333.1,1.19,1.2023,144.8,96.2,0.553
35.66,32242.2,35588.3,1.1985,1.217,144.8,96.2,0.553
35.68,32383.9,35661.3,1.2075,1.2213,144.8,96.2,0.553
35.7,32415.2,35644.1,1.2095,1.2203,144.8,96.2,0.553
35.72,32199.7,35575.6,1.1958,1.2163,144.8,96.2,0.553
35.74,32075.2,35302.6,1.1879,1.2005,144.8,96.2,0.553
35.76,32053.1,35163.6,1.1865,1.1924,144.8,96.2,0.553
35.78,32149.1,35096.0,1.1926,1.1885,144.8,96.2,0.553
35.8,31995.3,35059.2,1.1829,1.1864,144.8,96.2,0.553
35.82,32013.6,35041.3,1.184,1.1854,144.8,96.2,0.553
35.84,31984.8,34817.5,1.1822,1.1724,144.8,96.2,0.553
35.86,31857.3,34806.9,1.1741,1.1718,144.8,96.2,0.553
35.88,31833.8,34750.4,1.1726,1.1685,144.8,96.2,0.553
35.9,31834.6,34675.1,1.1727,1.1641,144.8,96.2,0.553
35.92,31781.7,34646.8,1.1693,1.1625,144.8,96.2,0.553
35.94,31826.0,34651.5,1.1721,1.1628,144.8,96.2,0.553
35.96,31779.6,34507.0,1.1692,1.1544,144.8,96.2,0.553
35.98,31821.5,34491.7,1.1718,1.1535,144.8,96.2,0.553
36.0,31629.8,34505.1,1.1597,1.1543,144.8,96.2,0.553
36.02,31879.7,34651.3,1.1755,1.1628,144.8,96.2,0.553
36.04,31993.5,35018.4,1.1827,1.184,144.8,96.2,0.553
36.06,32206.8,35409.9,1.1963,1.2067,144.8,96.2,0.553
36.08,32377.4,35678.9,1.2071,1.2223,144.8,96.2,0.553
36.1,32442.4,35764.9,1.2112,1.2273,144.8,96.2,0.553
36.12,32340.6,35732.9,1.2047,1.2254,144.8,96.2,0.553
36.14,32228.8,35515.9,1.1977,1.2129,144.8,96.2,0.553
36.16,32169.3,35317.9,1.1939,1.2014,144.8,96.2,0.553
36.18,31998.1,35141.7,1.183,1.1912,144.8,96.2,0.553
36.2,32018.5,35079.3,1.1843,1.1876,144.8,96.2,0.553
36.22,31964.9,34990.4,1.1809,1.1824,144.8,96.2,0.553
36.24,31970.9,34980.1,1.1813,1.1818,144.8,96.2,0.553
36.26,31941.9,34904.4,1.1795,1.1774,144.8,96.2,0.553
36.28,31846.4,34690.9,1.1734,1.165,144.8,96.2,0.553
36.3,31914.9,34737.3,1.1778,1.1677,144.8,96.2,0.553
36.32,31928.3,34688.9,1.1786,1.1649,144.8,96.2,0.553
36.34,31772.9,34610.3,1.1688,1.1604,144.8,96.2,0.553
36.36,31775.6,34511.6,1.1689,1.1547,144.8,96.2,0.553
36.38,31787.8,34556.0,1.1697,1.1572,144.8,96.2,0.553
36.4,31740.3,34471.0,1.1667,1.1523,144.8,96.2,0.553
36.42,31709.4,34596.6,1.1647,1.1596,144.8,96.2,0.553
36.44,31872.1,34761.3,1.1751,1.1691,144.8,96.2,0.553
36.46,32130.4,35176.3,1.1914,1.1932,144.8,96.2,0.553
36.48,32320.0,35549.5,1.2034,1.2148,144.8,96.2,0.553
36.5,32321.7,35634.9,1.2035,1.2197,144.8,96.2,0.553
36.52,32391.2,35752.0,1.208,1.2265,144.8,96.2,0.553
36.54,32282.7,35563.7,1.2011,1.2156,144.8,96.2,0.553
36.56,32257.0,35459.5,1.1994,1.2096,144.8,96.2,0.553
36.58,32152.9,35231.8,1.1929,1.1964,144.8,96.2,0.553
36.6,32067.0,35137.1,1.1874,1.1909,144.8,96.2,0.553
36.62,31992.1,35007.9,1.1827,1.1834,144.8,96.2,0.553
36.64,32038.2,34999.3,1.1856,1.1829,144.8,96.2,0.553
36.66,31988.9,34938.0,1.1825,1.1794,144.8,96.2,0.553
36.68,31931.3,34736.0,1.1788,1.1677,144.8,96.2,0.553
36.7,31892.7,34818.8,1.1764,1.1725,144.8,96.2,0.553
36.72,31821.0,34681.4,1.1718,1.1645,144.8,96.2,0.553
36.74,31868.3,34674.3,1.1748,1.1641,144.8,96.2,0.553
36.76,31819.4,34591.1,1.1717,1.1593,144.8,96.2,0.553
36.78,31704.6,34604.6,1.1644,1.16,144.8,96.2,0.553
36.8,31735.5,34378.2,1.1664,1.1469,144.8,96.2,0.553
36.82,31748.9,34448.4,1.1672,1.151,144.8,96.2,0.553
36.84,31725.6,34548.3,1.1658,1.1568,144.8,96.2,0.553
36.86,31831.4,34795.0,1.1725,1.1711,144.8,96.2,0.553
36.88,32101.4,35231.2,1.1896,1.1964,144.8,96.2,0.553
36.9,32362.7,35559.6,1.2061,1.2154,144.8,96.2,0.553
36.92,32407.9,35728.7,1.209,1.2252,144.8,96.2,0.553
36.94,32368.3,35717.8,1.2065,1.2245,144.8,96.2,0.553
36.96,32375.1,35566.1,1.2069,1.2158,144.8,96.2,0.553
36.98,32171.4,35285.7,1.194,1.1995,144.8,96.2,0.553
37.0,32155.0,35282.0,1.193,1.1993,144.8,96.2,0.553
37.02,32080.6,35051.8,1.1883,1.186,144.8,96.2,0.553
37.04,32061.1,35010.6,1.187,1.1836,144.8,96.2,0.553
37.06,31930.4,35058.3,1.1787,1.1863,144.8,96.2,0.553
37.08,32031.9,34929.3,1.1852,1.1789,144.8,96.2,0.553
37.1,31958.1,34785.8,1.1805,1.1705,144.8,96.2,0.553
37.12,31890.2,34771.2,1.1762,1.1697,144.8,96.2,0.553
37.14,31749.5,34715.8,1.1673,1.1665,144.8,96.2,0.553
37.16,31745.1,34669.9,1.167,1.1638,144.8,96.2,0.553
37.18,31828.7,34687.1,1.1723,1.1648,144.8,96.2,0.553
37.2,31689.0,34494.7,1.1634,1.1537,144.8,96.2,0.553
37.22,31851.6,34368.8,1.1738,1.1464,144.8,96.2,0.553
37.24,31678.9,34414.9,1.1628,1.1491,144.8,96.2,0.553
37.26,31812.1,34543.5,1.1712,1.1565,144.8,96.2,0.553
37.28,31952.9,34918.0,1.1802,1.1782,144.8,96.2,0.553
37.3,32234.1,35412.3,1.198,1.2069,144.8,96.2,0.553
37.32,32336.0,35608.5,1.2045,1.2182,144.8,96.2,0.553
37.34,32361.1,35739.2,1.206,1.2258,144.8,96.2,0.553
37.36,32355.8,35791.1,1.2057,1.2288,144.8,96.2,0.553
37.38,32265.8,35479.8,1.2,1.2108,144.8,96.2,0.553
37.4,32131.6,35261.5,1.1915,1.1981,144.8,96.2,0.553
37.42,32010.6,35212.7,1.1838,1.1953,144.8,96.2,0.553
37.44,32110.4,35126.5,1.1902,1.1903,144.8,96.2,0.553
37.46,32052.9,34991.7,1.1865,1.1825,144.8,96.2,0.553
37.48,32000.2,34934.1,1.1832,1.1791,144.8,96.2,0.553
37.5,31920.3,34780.1,1.1781,1.1702,144.8,96.2,0.553
37.52,31859.8,34685.5,1.1743,1.1647,144.8,96.2,0.553
37.54,31857.8,34745.6,1.1741,1.1682,144.8,96.2,0.553
37.56,31734.7,34668.0,1.1663,1.1637,144.8,96.2,0.553
37.58,31827.4,34691.3,1.1722,1.1651,144.8,96.2,0.553
37.6,31829.7,34557.4,1.1724,1.1573,144.8,96.2,0.553
37.62,31653.6,34547.8,1.1612,1.1568,144.8,96.2,0.553
37.64,31688.5,34476.4,1.1634,1.1526,144.8,96.2,0.553
37.66,31767.0,34518.2,1.1684,1.155,144.8,96.2,0.553
37.68,31871.3,34735.4,1.175,1.1676,144.8,96.2,0.553
37.7,32032.0,35158.2,1.1852,1.1921,144.8,96.2,0.553
37.72,32199.2,35414.4,1.1958,1.207,144.8,96.2,0.553
37.74,32343.8,35682.2,1.2049,1.2225,144.8,96.2,0.553
37.76,32453.0,35731.2,1.2119,1.2253,144.8,96.2,0.553
37.78,32276.1,35667.3,1.2007,1.2216,144.8,96.2,0.553
37.8,32287.8,35479.1,1.2014,1.2107,144.8,96.2,0.553
37.82,32157.3,35222.5,1.1931,1.1958,144.8,96.2,0.553
37.84,32065.6,35155.3,1.1873,1.192,144.8,96.2,0.553
37.86,32061.8,35044.4,1.1871,1.1855,144.8,96.2,0.553
37.88,32097.4,35044.1,1.1893,1.1855,144.8,96.2,0.553
37.9,31951.4,34992.0,1.1801,1.1825,144.8,96.2,0.553
37.92,31967.5,34891.6,1.1811,1.1767,144.8,96.2,0.553
37.94,31850.1,34734.2,1.1737,1.1676,144.8,96.2,0.553
37.96,31865.2,34687.3,1.1746,1.1648,144.8,96.2,0.553
37.98,31813.2,34619.0,1.1713,1.1609,144.8,96.2,0.553
38.0,31917.3,34630.0,1.1779,1.1615,144.8,96.2,0.553
38.02,31683.8,34555.1,1.1631,1.1572,144.8,96.2,0.553
38.04,31756.3,34483.3,1.1677,1.153,144.8,96.2,0.553
38.06,31682.9,34409.2,1.1631,1.1487,144.8,96.2,0.553
38.08,31709.9,34647.9,1.1648,1.1626,144.8,96.2,0.553
38.1,31820.6,34848.5,1.1718,1.1742,144.8,96.2,0.553
38.12,32122.5,35213.4,1.1909,1.1953,144.8,96.2,0.553
38.14,32200.5,35444.1,1.1959,1.2087,144.8,96.2,0.553
38.16,32380.7,35720.9,1.2073,1.2247,144.8,96.2,0.553
38.18,32297.1,35779.5,1.202,1.2281,144.8,96.2,0.553
38.2,32278.5,35639.3,1.2008,1.22,144.8,96.2,0.553
38.22,32223.4,35403.0,1.1973,1.2063,144.8,96.2,0.553
38.24,32088.7,35282.7,1.1888,1.1993,144.8,96.2,0.553
38.26,32046.3,35215.8,1.1861,1.1955,144.8,96.2,0.553
38.28,32073.7,35134.8,1.1878,1.1908,144.8,96.2,0.553
38.3,31898.6,35017.3,1.1767,1.184,144.8,96.2,0.553
38.32,32029.9,34954.1,1.1851,1.1803,144.8,96.2,0.553
38.34,31925.0,34832.7,1.1784,1.1733,144.8,96.2,0.553
38.36,31855.5,34785.1,1.174,1.1705,144.8,96.2,0.553
38.38,31793.0,34708.3,1.17,1.1661,144.8,96.2,0.553
38.4,31888.6,34696.0,1.1761,1.1653,144.8,96.2,0.553
38.42,31776.4,34702.9,1.169,1.1657,144.8,96.2,0.553
38.44,31729.2,34575.5,1.166,1.1584,144.8,96.2,0.553
38.46,31629.8,34513.1,1.1597,1.1547,144.8,96.2,0.553
38.48,31820.6,34381.0,1.1718,1.1471,144.8,96.2,0.553
38.5,31786.2,34651.4,1.1696,1.1628,144.8,96.2,0.553
38.52,31984.5,34885.6,1.1822,1.1763,144.8,96.2,0.553
38.54,32100.6,35312.5,1.1895,1.2011,144.8,96.2,0.553
38.56,32465.9,35659.7,1.2127,1.2212,144.8,96.2,0.553
38.58,32322.6,35798.7,1.2036,1.2292,144.8,96.2,0.553
38.6,32330.4,35621.2,1.2041,1.219,144.8,96.2,0.553
38.62,32199.0,35473.8,1.1958,1.2104,144.8,96.2,0.553
38.64,32152.0,35428.3,1.1928,1.2078,144.8,96.2,0.553
38.66,32080.9,35111.4,1.1883,1.1894,144.8,96.2,0.553
38.68,32091.6,35101.9,1.189,1.1889,144.8,96.2,0.553
38.7,32152.7,34981.0,1.1928,1.1819,144.8,96.2,0.553
38.72,31971.4,35030.6,1.1813,1.1847,144.8,96.2,0.553
38.74,31926.9,34818.0,1.1785,1.1724,144.8,96.2,0.553
38.76,31813.5,34823.7,1.1713,1.1727,144.8,96.2,0.553
38.78,31836.0,34680.2,1.1728,1.1644,144.8,96.2,0.553
38.8,31793.1,34622.1,1.17,1.1611,144.8,96.2,0.553
38.82,31808.6,34633.8,1.171,1.1617,144.8,96.2,0.553
38.84,31826.7,34616.1,1.1722,1.1607,144.8,96.2,0.553
38.86,31792.3,34559.8,1.17,1.1575,144.8,96.2,0.553
38.88,31750.9,34451.6,1.1674,1.1512,144.8,96.2,0.553
38.9,31710.9,34515.4,1.1648,1.1549,144.8,96.2,0.553
38.92,31805.2,34644.7,1.1708,1.1624,144.8,96.2,0.553
38.94,31984.9,34992.6,1.1822,1.1825,144.8,96.2,0.553
38.96,32167.0,35470.9,1.1937,1.2102,144.8,96.2,0.553
38.98,32298.4,35776.9,1.2021,1.228,144.8,96.2,0.553
39.0,32404.1,35689.6,1.2088,1.2229,144.8,96.2,0.553
39.02,32369.2,35634.4,1.2066,1.2197,144.8,96.2,0.553
39.04,32273.4,35451.2,1.2005,1.2091,144.8,96.2,0.553
39.06,32224.4,35362.4,1.1974,1.204,144.8,96.2,0.553
39.08,32094.0,35204.7,1.1891,1.1948,144.8,96.2,0.553
39.1,32121.9,35027.5,1.1909,1.1846,144.8,96.2,0.553
39.12,31956.9,35067.1,1.1804,1.1868,144.8,96.2,0.553
39.14,32006.8,34919.9,1.1836,1.1783,144.8,96.2,0.553
39.16,31837.1,34848.3,1.1728,1.1742,144.8,96.2,0.553
39.18,31895.2,34699.4,1.1765,1.1655,144.8,96.2,0.553
39.2,31923.6,34715.9,1.1783,1.1665,144.8,96.2,0.553
39.22,31776.8,34597.5,1.169,1.1596,144.8,96.2,0.553
39.24,31881.6,34641.8,1.1757,1.1622,144.8,96.2,0.553
39.26,31770.8,34526.8,1.1686,1.1555,144.8,96.2,0.553
39.28,31760.6,34634.3,1.168,1.1618,144.8,96.2,0.553
39.3,31726.2,34425.3,1.1658,1.1497,144.8,96.2,0.553
39.32,31770.0,34548.7,1.1686,1.1568,144.8,96.2,0.553
39.34,31838.4,34722.5,1.1729,1.1669,144.8,96.2,0.553
39.36,32092.9,35094.9,1.189,1.1885,144.8,96.2,0.553
39.38,32267.5,35527.0,1.2001,1.2135,144.8,96.2,0.553
39.4,32373.7,35718.9,1.2068,1.2246,144.8,96.2,0.553
39.42,32427.9,35665.1,1.2103,1.2215,144.8,96.2,0.553
39.44,32297.8,35664.5,1.202,1.2215,144.8,96.2,0.553
39.46,32199.5,35427.1,1.1958,1.2077,144.8,96.2,0.553
39.48,32076.4,35254.7,1.188,1.1977,144.8,96.2,0.553
39.5,32082.6,35191.8,1.1884,1.1941,144.8,96.2,0.553
39.52,32076.9,35052.6,1.188,1.186,144.8,96.2,0.553
39.54,32044.4,34983.0,1.186,1.182,144.8,96.2,0.553
39.56,32035.0,34962.9,1.1854,1.1808,144.8,96.2,0.553
39.58,31912.0,34857.5,1.1776,1.1747,144.8,96.2,0.553
39.6,31898.0,34789.7,1.1767,1.1708,144.8,96.2,0.553
39.62,31834.6,34733.5,1.1727,1.1675,144.8,96.2,0.553
39.64,31758.4,34676.8,1.1678,1.1642,144.8,96.2,0.553
39.66,31783.7,34701.3,1.1695,1.1657,144.8,96.2,0.553
39.68,31803.2,34559.3,1.1707,1.1574,144.8,96.2,0.553
39.7,31713.6,34559.4,1.165,1.1574,144.8,96.2,0.553
39.72,31681.2,34396.0,1.163,1.148,144.8,96.2,0.553
39.74,31818.0,34745.2,1.1716,1.1682,144.8,96.2,0.553
39.76,31946.9,34897.7,1.1798,1.177,144.8,96.2,0.553
39.78,32161.6,35166.0,1.1934,1.1926,144.8,96.2,0.553
39.8,32269.4,35608.4,1.2002,1.2182,144.8,96.2,0.553
39.82,32408.2,35838.3,1.209,1.2315,144.8,96.2,0.553
39.84,32325.8,35703.1,1.2038,1.2237,144.8,96.2,0.553
39.86,32265.2,35496.4,1.2,1.2117,144.8,96.2,0.553
39.88,32184.9,35272.6,1.1949,1.1988,144.8,96.2,0.553
39.9,32138.9,35144.3,1.192,1.1913,144.8,96.2,0.553
39.92,32004.5,35250.6,1.1834,1.1975,144.8,96.2,0.553
39.94,32018.7,35028.6,1.1843,1.1846,144.8,96.2,0.553
39.96,31980.3,34997.2,1.1819,1.1828,144.8,96.2,0.553
39.98,31939.5,34915.9,1.1793,1.1781,144.8,96.2,0.553
40.0,31896.7,34743.0,1.1766,1.1681,144.8,96.2,0.553
40.02,31818.2,34748.2,1.1716,1.1684,144.8,96.2,0.553
40.04,31869.8,34639.5,1.1749,1.1621,144.8,96.2,0.553
40.06,31836.7,34708.5,1.1728,1.1661,144.8,96.2,0.553
40.08,31773.7,34652.5,1.1688,1.1628,144.8,96.2,0.553
40.1,31702.0,34547.9,1.1643,1.1568,144.8,96.2,0.553
40.12,31698.9,34491.5,1.1641,1.1535,144.8,96.2,0.553
40.14,31735.2,34405.2,1.1664,1.1485,144.8,96.2,0.553
40.16,31805.8,34651.7,1.1709,1.1628,144.8,96.2,0.553
40.18,31883.2,34979.6,1.1758,1.1818,144.8,96.2,0.553
40.2,32152.6,35309.4,1.1928,1.2009,144.8,96.2,0.553
40.22,32360.2,35573.1,1.206,1.2162,144.8,96.2,0.553
40.24,32427.5,35817.8,1.2103,1.2303,144.8,96.2,0.553
40.26,32398.7,35787.1,1.2084,1.2286,144.8,96.2,0.553
40.28,32190.9,35491.7,1.1953,1.2114,144.8,96.2,0.553
40.3,32111.0,35259.8,1.1902,1.198,144.8,96.2,0.553
40.32,32084.2,35192.1,1.1885,1.1941,144.8,96.2,0.553
40.34,31985.6,35121.5,1.1822,1.19,144.8,96.2,0.553
40.36,31974.5,35136.8,1.1815,1.1909,144.8,96.2,0.553
40.38,32112.4,34919.3,1.1903,1.1783,144.8,96.2,0.553
40.4,31902.5,34856.3,1.177,1.1746,144.8,96.2,0.553
40.42,31811.5,34705.8,1.1712,1.1659,144.8,96.2,0.553
40.44,31842.0,34634.6,1.1731,1.1618,144.8,96.2,0.553
40.46,31934.0,34790.5,1.179,1.1708,144.8,96.2,0.553
40.48,31938.6,34637.0,1.1793,1.1619,144.8,96.2,0.553
40.5,31783.1,34655.8,1.1694,1.163,144.8,96.2,0.553
40.52,31711.4,34528.0,1.1649,1.1556,144.8,96.2,0.553
40.54,31694.1,34433.0,1.1638,1.1501,144.8,96.2,0.553
40.56,31721.3,34534.6,1.1655,1.156,144.8,96.2,0.553
40.58,31947.9,34686.8,1.1799,1.1648,144.8,96.2,0.553
40.6,32045.8,35015.7,1.1861,1.1839,144.8,96.2,0.553
40.62,32183.8,35504.2,1.1948,1.2122,144.8,96.2,0.553
40.64,32483.1,35688.3,1.2138,1.2228,144.8,96.2,0.553
40.66,32358.2,35786.6,1.2059,1.2285,144.8,96.2,0.553
40.68,32326.6,35643.0,1.2039,1.2202,144.8,96.2,0.553
40.7,32250.3,35397.6,1.199,1.206,144.8,96.2,0.553
40.72,32089.4,35255.1,1.1888,1.1977,144.8,96.2,0.553
40.74,32093.9,35120.5,1.1891,1.1899,144.8,96.2,0.553
40.76,32045.9,35125.7,1.1861,1.1902,144.8,96.2,0.553
40.78,32017.8,35103.9,1.1843,1.189,144.8,96.2,0.553
40.8,31934.0,34979.6,1.179,1.1818,144.8,96.2,0.553
40.82,31922.0,34783.2,1.1782,1.1704,144.8,96.2,0.553
40.84,31874.6,34706.3,1.1752,1.1659,144.8,96.2,0.553
40.86,31860.4,34729.3,1.1743,1.1673,144.8,96.2,0.553
40.88,31886.8,34601.7,1.176,1.1599,144.8,96.2,0.553
40.9,31853.9,34665.8,1.1739,1.1636,144.8,96.2,0.553
40.92,31762.4,34522.2,1.1681,1.1553,144.8,96.2,0.553
40.94,31681.7,34441.0,1.163,1.1506,144.8,96.2,0.553
40.96,31781.1,34407.2,1.1693,1.1486,144.8,96.2,0.553
40.98,31813.0,34460.5,1.1713,1.1517,144.8,96.2,0.553
41.0,31890.9,34879.1,1.1762,1.176,144.8,96.2,0.553
41.02,32074.5,35018.9,1.1879,1.1841,144.8,96.2,0.553
41.04,32364.9,35511.3,1.2063,1.2126,144.8,96.2,0.553
41.06,32427.4,35662.1,1.2102,1.2213,144.8,96.2,0.553
41.08,32391.9,35660.8,1.208,1.2212,144.8,96.2,0.553
41.1,32301.9,35661.0,1.2023,1.2213,144.8,96.2,0.553
41.12,32231.5,35393.2,1.1978,1.2057,144.8,96.2,0.553
41.14,32082.7,35269.8,1.1884,1.1986,144.8,96.2,0.553
41.16,32149.6,35237.7,1.1926,1.1967,144.8,96.2,0.553
41.18,32031.3,35076.2,1.1851,1.1874,144.8,96.2,0.553
41.2,31933.9,35007.3,1.179,1.1834,144.8,96.2,0.553
41.22,31966.2,34915.1,1.181,1.178,144.8,96.2,0.553
41.24,31869.2,34758.6,1.1749,1.169,144.8,96.2,0.553
41.26,31858.7,34748.2,1.1742,1.1684,144.8,96.2,0.553
41.28,31832.3,34695.7,1.1725,1.1653,144.8,96.2,0.553
41.3,31883.0,34725.4,1.1757,1.167,144.8,96.2,0.553
41.32,31851.7,34622.2,1.1738,1.1611,144.8,96.2,0.553
41.34,31779.8,34535.5,1.1692,1.156,144.8,96.2,0.553
41.36,31670.9,34473.5,1.1623,1.1524,144.8,96.2,0.553
41.38,31757.4,34492.0,1.1678,1.1535,144.8,96.2,0.553
41.4,31754.8,34707.3,1.1676,1.166,144.8,96.2,0.553
41.42,32006.7,34936.4,1.1836,1.1793,144.8,96.2,0.553
41.44,32146.6,35284.4,1.1925,1.1994,144.8,96.2,0.553
41.46,32339.1,35620.8,1.2047,1.2189,144.8,96.2,0.553
41.48,32426.0,35710.8,1.2102,1.2241,144.8,96.2,0.553
41.5,32354.7,35673.5,1.2056,1.222,144.8,96.2,0.553
41.52,32278.0,35546.4,1.2008,1.2146,144.8,96.2,0.553
41.54,32146.9,35331.0,1.1925,1.2021,144.8,96.2,0.553
41.56,32080.4,35131.6,1.1883,1.1906,144.8,96.2,0.553
41.58,32014.1,35027.7,1.1841,1.1846,144.8,96.2,0.553
41.6,32030.2,35033.6,1.1851,1.1849,144.8,96.2,0.553
41.62,31989.4,34961.1,1.1825,1.1807,144.8,96.2,0.553
41.64,32002.4,34806.5,1.1833,1.1717,144.8,96.2,0.553
41.66,31858.0,34837.9,1.1742,1.1736,144.8,96.2,0.553
41.68,31778.9,34641.7,1.1691,1.1622,144.8,96.2,0.553
41.7,31791.8,34667.6,1.17,1.1637,144.8,96.2,0.553
41.72,31823.9,34669.2,1.172,1.1638,144.8,96.2,0.553
41.74,31842.4,34701.7,1.1732,1.1657,144.8,96.2,0.553
41.76,31823.1,34500.7,1.1719,1.154,144.8,96.2,0.553
41.78,31654.6,34458.1,1.1613,1.1516,144.8,96.2,0.553
41.8,31733.9,34493.4,1.1663,1.1536,144.8,96.2,0.553
41.82,31819.6,34677.1,1.1717,1.1642,144.8,96.2,0.553
41.84,32039.5,34968.0,1.1857,1.1811,144.8,96.2,0.553
41.86,32297.7,35444.9,1.202,1.2087,144.8,96.2,0.553
41.88,32317.6,35708.4,1.2033,1.224,144.8,96.2,0.553
41.9,32363.2,35763.9,1.2062,1.2272,144.8,96.2,0.553
41.92,32319.8,35672.3,1.2034,1.2219,144.8,96.2,0.553
41.94,32246.1,35470.6,1.1988,1.2102,144.8,96.2,0.553
41.96,32102.1,35341.5,1.1896,1.2027,144.8,96.2,0.553
41.98,32093.1,35255.7,1.1891,1.1978,144.8,96.2,0.553
42.0,32113.9,35046.0,1.1904,1.1856,144.8,96.2,0.553
42.02,31926.8,35040.0,1.1785,1.1853,144.8,96.2,0.553
42.04,31896.1,35000.4,1.1766,1.183,144.8,96.2,0.553
42.06,31940.8,34789.6,1.1794,1.1708,144.8,96.2,0.553
42.08,31858.3,34733.7,1.1742,1.1675,144.8,96.2,0.553
42.1,31890.9,34675.8,1.1762,1.1642,144.8,96.2,0.553
42.12,31839.2,34639.9,1.173,1.1621,144.8,96.2,0.553
42.14,31744.3,34639.9,1.167,1.1621,144.8,96.2,0.553
42.16,31682.3,34594.8,1.163,1.1595,144.8,96.2,0.553
42.18,31639.9,34560.4,1.1603,1.1575,144.8,96.2,0.553
42.2,31776.0,34420.5,1.169,1.1494,144.8,96.2,0.553
42.22,31757.2,34557.7,1.1678,1.1573,144.8,96.2,0.553
42.24,31972.2,34733.8,1.1814,1.1675,144.8,96.2,0.553
42.26,32132.8,35098.3,1.1916,1.1887,144.8,96.2,0.553
42.28,32291.3,35527.1,1.2016,1.2135,144.8,96.2,0.553
42.3,32356.2,35672.3,1.2057,1.2219,144.8,96.2,0.553
42.32,32388.8,35634.8,1.2078,1.2197,144.8,96.2,0.553
42.34,32355.1,35604.5,1.2057,1.218,144.8,96.2,0.553
42.36,32202.4,35393.6,1.196,1.2058,144.8,96.2,0.553
42.38,32270.2,35264.3,1.2003,1.1983,144.8,96.2,0.553
42.4,32122.0,35082.3,1.1909,1.1877,144.8,96.2,0.553
42.42,32009.4,35049.6,1.1838,1.1858,144.8,96.2,0.553
42.44,31969.5,35065.7,1.1812,1.1868,144.8,96.2,0.553
42.46,31900.2,34888.1,1.1768,1.1765,144.8,96.2,0.553
42.48,31851.9,34866.8,1.1738,1.1752,144.8,96.2,0.553
42.5,31784.7,34700.3,1.1695,1.1656,144.8,96.2,0.553
42.52,31848.1,34623.6,1.1735,1.1612,144.8,96.2,0.553
42.54,31835.2,34606.1,1.1727,1.1601,144.8,96.2,0.553
42.56,31770.7,34597.8,1.1686,1.1597,144.8,96.2,0.553
42.58,31676.8,34521.1,1.1627,1.1552,144.8,96.2,0.553
42.6,31725.1,34500.6,1.1657,1.154,144.8,96.2,0.553
42.62,31742.5,34379.0,1.1668,1.147,144.8,96.2,0.553
42.64,31787.7,34533.9,1.1697,1.1559,144.8,96.2,0.553
42.66,31929.5,34884.7,1.1787,1.1763,144.8,96.2,0.553
42.68,32079.9,35210.0,1.1882,1.1951,144.8,96.2,0.553
42.7,32234.4,35587.5,1.198,1.217,144.8,96.2,0.553
42.72,32446.0,35718.8,1.2114,1.2246,144.8,96.2,0.553
42.74,32356.8,35651.3,1.2058,1.2207,144.8,96.2,0.553
42.76,32305.3,35516.9,1.2025,1.2129,144.8,96.2,0.553
42.78,32201.6,35361.2,1.1959,1.2039,144.8,96.2,0.553
42.8,32132.0,35239.4,1.1915,1.1968,144.8,96.2,0.553
42.82,32037.4,35171.1,1.1855,1.1929,144.8,96.2,0.553
42.84,32093.8,35038.5,1.1891,1.1852,144.8,96.2,0.553
42.86,31996.8,35085.7,1.183,1.1879,144.8,96.2,0.553
42.88,31986.1,34975.4,1.1823,1.1815,144.8,96.2,0.553
42.9,31863.5,34749.6,1.1745,1.1684,144.8,96.2,0.553
42.92,31884.9,34748.5,1.1759,1.1684,144.8,96.2,0.553
42.94,31856.3,34655.4,1.1741,1.163,144.8,96.2,0.553
42.96,31769.4,34655.5,1.1685,1.163,144.8,96.2,0.553
42.98,31774.8,34653.1,1.1689,1.1629,144.8,96.2,0.553
43.0,31748.4,34455.7,1.1672,1.1514,144.8,96.2,0.553
43.02,31743.1,34494.4,1.1669,1.1537,144.8,96.2,0.553
43.04,31672.1,34493.0,1.1624,1.1536,144.8,96.2,0.553
43.06,31820.0,34692.3,1.1718,1.1651,144.8,96.2,0.553
43.08,31938.8,34990.5,1.1793,1.1824,144.8,96.2,0.553
43.1,32137.1,35325.2,1.1919,1.2018,144.8,96.2,0.553
43.12,32262.8,35664.0,1.1998,1.2214,144.8,96.2,0.553
43.14,32355.3,35828.5,1.2057,1.231,144.8,96.2,0.553
43.16,32350.1,35675.2,1.2053,1.2221,144.8,96.2,0.553
43.18,32249.3,35506.7,1.199,1.2123,144.8,96.2,0.553
43.2,32216.7,35360.5,1.1969,1.2038,144.8,96.2,0.553
43.22,32109.7,35140.3,1.1901,1.1911,144.8,96.2,0.553
43.24,32162.4,35117.7,1.1935,1.1898,144.8,96.2,0.553
43.26,31969.5,35076.7,1.1812,1.1874,144.8,96.2,0.553
43.28,31982.7,34888.8,1.1821,1.1765,144.8,96.2,0.553
43.3,31892.9,34867.8,1.1764,1.1753,144.8,96.2,0.553
43.32,31873.5,34702.6,1.1751,1.1657,144.8,96.2,0.553
43.34,31768.5,34701.4,1.1685,1.1657,144.8,96.2,0.553
43.36,31862.5,34685.7,1.1744,1.1647,144.8,96.2,0.553
43.38,31874.4,34721.3,1.1752,1.1668,144.8,96.2,0.553
43.4,31750.7,34588.1,1.1674,1.1591,144.8,96.2,0.553
43.42,31705.2,34454.7,1.1645,1.1514,144.8,96.2,0.553
43.44,31756.4,34395.1,1.1677,1.1479,144.8,96.2,0.553
43.46,31730.6,34572.3,1.1661,1.1582,144.8,96.2,0.553
43.48,31959.8,34743.0,1.1806,1.1681,144.8,96.2,0.553
43.5,32068.2,35158.1,1.1875,1.1921,144.8,96.2,0.553
43.52,32271.8,35469.5,1.2004,1.2102,144.8,96.2,0.553
43.54,32348.7,35634.8,1.2053,1.2197,144.8,96.2,0.553
43.56,32481.4,35732.1,1.2137,1.2254,144.8,96.2,0.553
43.58,32300.9,35610.8,1.2022,1.2184,144.8,96.2,0.553
43.6,32175.0,35387.9,1.1942,1.2054,144.8,96.2,0.553
43.62,32126.2,35264.6,1.1912,1.1983,144.8,96.2,0.553
43.64,32130.4,35132.7,1.1914,1.1907,144.8,96.2,0.553
43.66,32111.3,35139.6,1.1902,1.191,144.8,96.2,0.553
43.68,32169.4,34997.0,1.1939,1.1828,144.8,96.2,0.553
43.7,31891.6,34917.6,1.1763,1.1782,144.8,96.2,0.553
43.72,31942.9,34922.1,1.1795,1.1784,144.8,96.2,0.553
43.74,31932.7,34717.2,1.1789,1.1666,144.8,96.2,0.553
43.76,31796.6,34658.0,1.1703,1.1631,144.8,96.2,0.553
43.78,31721.4,34665.4,1.1655,1.1636,144.8,96.2,0.553
43.8,31843.8,34741.9,1.1733,1.168,144.8,96.2,0.553
43.82,31801.3,34587.4,1.1706,1.159,144.8,96.2,0.553
43.84,31745.4,34475.7,1.167,1.1526,144.8,96.2,0.553
43.86,31797.2,34469.4,1.1703,1.1522,144.8,96.2,0.553
43.88,31778.5,34517.5,1.1691,1.155,144.8,96.2,0.553
43.9,31942.3,34854.6,1.1795,1.1745,144.8,96.2,0.553
43.92,31992.3,35034.0,1.1827,1.1849,144.8,96.2,0.553
43.94,32261.7,35541.9,1.1997,1.2144,144.8,96.2,0.553
43.96,32377.3,35852.0,1.2071,1.2323,144.8,96.2,0.553
43.98,32343.1,35737.1,1.2049,1.2257,144.8,96.2,0.553
44.0,32309.0,35581.1,1.2027,1.2166,144.8,96.2,0.553
44.02,32214.4,35414.2,1.1967,1.207,144.8,96.2,0.553
44.04,32124.4,35196.2,1.191,1.1943,144.8,96.2,0.553
44.06,32043.5,35094.2,1.1859,1.1884,144.8,96.2,0.553
44.08,32022.5,35081.2,1.1846,1.1877,144.8,96.2,0.553
44.1,31918.8,34972.2,1.178,1.1813,144.8,96.2,0.553
44.12,31996.0,35048.3,1.1829,1.1858,144.8,96.2,0.553
44.14,31850.6,34857.1,1.1737,1.1747,144.8,96.2,0.553
44.16,31979.1,34730.6,1.1818,1.1674,144.8,96.2,0.553
44.18,31795.2,34712.0,1.1702,1.1663,144.8,96.2,0.553
44.2,31815.1,34596.5,1.1714,1.1596,144.8,96.2,0.553
44.22,31826.4,34622.9,1.1722,1.1611,144.8,96.2,0.553
44.24,31734.1,34595.1,1.1663,1.1595,144.8,96.2,0.553
44.26,31749.8,34492.8,1.1673,1.1536,144.8,96.2,0.553
44.28,31742.1,34446.6,1.1668,1.1509,144.8,96.2,0.553
44.3,31751.7,34653.7,1.1674,1.1629,144.8,96.2,0.553
44.32,31852.2,34915.8,1.1738,1.1781,144.8,96.2,0.553
44.34,32033.7,35320.6,1.1853,1.2015,144.8,96.2,0.553
44.36,32322.5,35473.8,1.2036,1.2104,144.8,96.2,0.553
44.38,32374.1,35779.9,1.2069,1.2281,144.8,96.2,0.553
44.4,32393.6,35689.0,1.2081,1.2229,144.8,96.2,0.553
44.42,32166.6,35524.9,1.1937,1.2134,144.8,96.2,0.553
44.44,32229.6,35348.9,1.1977,1.2032,144.8,96.2,0.553
44.46,32106.6,35282.3,1.1899,1.1993,144.8,96.2,0.553
44.48,32011.6,35117.3,1.1839,1.1898,144.8,96.2,0.553
44.5,32033.0,35095.6,1.1852,1.1885,144.8,96.2,0.553
44.52,31931.3,35025.7,1.1788,1.1844,144.8,96.2,0.553
44.54,31892.4,34929.3,1.1763,1.1789,144.8,96.2,0.553
44.56,31931.3,34726.1,1.1788,1.1671,144.8,96.2,0.553
44.58,31858.3,34675.8,1.1742,1.1642,144.8,96.2,0.553
44.6,31907.0,34677.5,1.1773,1.1643,144.8,96.2,0.553
44.62,31894.1,34691.9,1.1764,1.1651,144.8,96.2,0.553
44.64,31860.5,34559.1,1.1743,1.1574,144.8,96.2,0.553
44.66,31709.2,34470.0,1.1647,1.1523,144.8,96.2,0.553
44.68,31786.7,34511.0,1.1696,1.1546,144.8,96.2,0.553
44.7,31696.7,34529.5,1.1639,1.1557,144.8,96.2,0.553
44.72,31840.2,34754.4,1.173,1.1687,144.8,96.2,0.553
44.74,31972.5,35003.0,1.1814,1.1831,144.8,96.2,0.553
44.76,32183.2,35325.2,1.1948,1.2018,144.8,96.2,0.553
44.78,32287.9,35672.2,1.2014,1.2219,144.8,96.2,0.553
44.8,32385.6,35819.8,1.2076,1.2305,144.8,96.2,0.553
44.82,32354.6,35671.2,1.2056,1.2219,144.8,96.2,0.553
44.84,32200.3,35464.2,1.1959,1.2099,144.8,96.2,0.553
44.86,32079.2,35346.5,1.1882,1.203,144.8,96.2,0.553
44.88,32059.0,35170.8,1.1869,1.1929,144.8,96.2,0.553
44.9,31971.3,35119.0,1.1813,1.1899,144.8,96.2,0.553
44.92,31981.6,35038.4,1.182,1.1852,144.8,96.2,0.553
44.94,31960.5,34943.1,1.1807,1.1797,144.8,96.2,0.553
44.96,31966.0,34876.5,1.181,1.1758,144.8,96.2,0.553
44.98,31869.9,34686.2,1.1749,1.1648,144.8,96.2,0.553
45.0,31973.9,34613.2,1.1815,1.1605,144.8,96.2,0.553
45.02,31900.3,34649.4,1.1768,1.1626,144.8,96.2,0.553
45.04,31836.4,34751.0,1.1728,1.1685,144.8,96.2,0.553
45.06,31696.8,34553.8,1.1639,1.1571,144.8,96.2,0.553
45.08,31727.4,34472.4,1.1659,1.1524,144.8,96.2,0.553
45.1,31664.6,34444.4,1.1619,1.1508,144.8,96.2,0.553
45.12,31835.0,34557.4,1.1727,1.1573,144.8,96.2,0.553
45.14,31898.1,34702.1,1.1767,1.1657,144.8,96.2,0.553
45.16,32154.6,35094.0,1.193,1.1884,144.8,96.2,0.553
45.18,32198.8,35418.9,1.1958,1.2072,144.8,96.2,0.553
45.2,32392.9,35710.5,1.2081,1.2241,144.8,96.2,0.553
45.22,32427.0,35733.9,1.2102,1.2255,144.8,96.2,0.553
45.24,32341.9,35570.1,1.2048,1.216,144.8,96.2,0.553
45.26,32186.2,35414.0,1.195,1.2069,144.8,96.2,0.553
45.28,32177.2,35119.0,1.1944,1.1899,144.8,96.2,0.553
45.3,32034.9,35123.2,1.1854,1.1901,144.8,96.2,0.553
45.32,32052.5,35052.2,1.1865,1.186,144.8,96.2,0.553
45.34,32096.0,35036.8,1.1892,1.1851,144.8,96.2,0.553
45.36,32025.7,34889.3,1.1848,1.1765,144.8,96.2,0.553
45.38,31844.2,34890.0,1.1733,1.1766,144.8,96.2,0.553
45.4,31952.0,34733.7,1.1801,1.1675,144.8,96.2,0.553
45.42,31911.0,34769.0,1.1775,1.1696,144.8,96.2,0.553
45.44,31797.7,34653.4,1.1703,1.1629,144.8,96.2,0.553
45.46,31892.4,34619.7,1.1763,1.1609,144.8,96.2,0.553
45.48,31706.3,34554.0,1.1645,1.1571,144.8,96.2,0.553
45.5,31764.1,34458.5,1.1682,1.1516,144.8,96.2,0.553
45.52,31702.3,34495.7,1.1643,1.1537,144.8,96.2,0.553
45.54,31731.3,34501.2,1.1661,1.1541,144.8,96.2,0.553
45.56,31925.6,34941.6,1.1784,1.1796,144.8,96.2,0.553
45.58,32063.2,35202.9,1.1872,1.1947,144.8,96.2,0.553
45.6,32200.4,35585.1,1.1959,1.2169,144.8,96.2,0.553
45.62,32345.3,35688.6,1.205,1.2229,144.8,96.2,0.553
45.64,32333.3,35778.8,1.2043,1.2281,144.8,96.2,0.553
45.66,32323.8,35523.1,1.2037,1.2133,144.8,96.2,0.553
45.68,32144.5,35448.0,1.1923,1.2089,144.8,96.2,0.553
45.7,31995.9,35216.2,1.1829,1.1955,144.8,96.2,0.553
45.72,31998.9,35152.2,1.1831,1.1918,144.8,96.2,0.553
45.74,32043.7,35006.3,1.1859,1.1833,144.8,96.2,0.553
45.76,31948.1,34952.6,1.1799,1.1802,144.8,96.2,0.553
45.78,31942.8,34877.0,1.1795,1.1758,144.8,96.2,0.553
45.8,31954.3,34810.5,1.1803,1.172,144.8,96.2,0.553
