timestamp,raw_red,raw_ir,filtered_red,filtered_ir,heart_rate,spo2,ac_dc_ratio
0.0,31972.8,35085.4,-0.1133,0.2092,137.8,97.7,0.492
0.02,32268.1,35602.3,1.065,1.4772,137.8,97.7,0.492
0.04,32452.2,35725.5,1.7998,1.7794,137.8,97.7,0.492
0.06,32363.6,35678.8,1.4463,1.665,137.8,97.7,0.492
0.08,32247.4,35706.0,0.9825,1.7315,137.8,97.7,0.492
0.1,32208.7,35514.5,0.8279,1.2618,137.8,97.7,0.492
0.12,32159.2,35223.7,0.6303,0.5484,137.8,97.7,0.492
0.14,32017.1,35118.3,0.0633,0.29,137.8,97.7,0.492
0.16,32024.9,35068.5,0.0945,0.1679,137.8,97.7,0.492
0.18,32000.6,35046.9,-0.0024,0.1148,137.8,97.7,0.492
0.2,31982.8,35042.7,-0.0736,0.1045,137.8,97.7,0.492
0.22,31932.3,34869.2,-0.275,-0.3211,137.8,97.7,0.492
0.24,31941.5,34827.5,-0.2385,-0.4235,137.8,97.7,0.492
0.26,31952.8,34615.8,-0.1934,-0.9428,137.8,97.7,0.492
0.28,31853.1,34717.2,-0.5913,-0.694,137.8,97.7,0.492
0.3,31880.3,34621.4,-0.4828,-0.929,137.8,97.7,0.492
0.32,31844.1,34617.0,-0.6269,-0.9396,137.8,97.7,0.492
0.34,31759.4,34513.9,-0.9651,-1.1926,137.8,97.7,0.492
0.36,31813.8,34502.5,-0.748,-1.2206,137.8,97.7,0.492
0.38,31790.4,34465.2,-0.8414,-1.312,137.8,97.7,0.492
0.4,31834.1,34561.8,-0.6671,-1.0752,137.8,97.7,0.492
0.42,31911.9,34896.5,-0.3565,-0.2542,137.8,97.7,0.492
0.44,32137.6,35229.0,0.5441,0.5614,137.8,97.7,0.492
0.46,32311.7,35515.6,1.2389,1.2646,137.8,97.7,0.492
0.48,32376.4,35698.1,1.4972,1.7123,137.8,97.7,0.492
0.5,32275.2,35725.6,1.0932,1.7796,137.8,97.7,0.492
0.52,32280.4,35594.7,1.114,1.4586,137.8,97.7,0.492
0.54,32153.5,35385.9,0.6075,0.9464,137.8,97.7,0.492
0.56,32138.9,35261.9,0.5495,0.6422,137.8,97.7,0.492
0.58,32039.0,35129.3,0.1509,0.317,137.8,97.7,0.492
0.6,32060.0,35092.0,0.2346,0.2255,137.8,97.7,0.492
0.62,32039.2,34987.0,0.1516,-0.0322,137.8,97.7,0.492
0.64,31940.6,34933.2,-0.2419,-0.1641,137.8,97.7,0.492
0.66,31877.2,34894.5,-0.4952,-0.259,137.8,97.7,0.492
0.68,31860.0,34817.6,-0.5636,-0.4476,137.8,97.7,0.492
0.7,31803.8,34718.9,-0.7877,-0.6897,137.8,97.7,0.492
0.72,31831.6,34733.3,-0.677,-0.6546,137.8,97.7,0.492
0.74,31755.0,34693.7,-0.9826,-0.7517,137.8,97.7,0.492
0.76,31749.2,34675.0,-1.006,-0.7975,137.8,97.7,0.492
0.78,31730.0,34570.4,-1.0823,-1.0541,137.8,97.7,0.492
0.8,31800.5,34520.5,-0.8012,-1.1765,137.8,97.7,0.492
0.82,31709.3,34468.4,-1.1649,-1.3044,137.8,97.7,0.492
0.84,31880.1,34645.6,-0.4833,-0.8696,137.8,97.7,0.492
0.86,32000.9,34944.7,-0.0012,-0.1359,137.8,97.7,0.492
0.88,32140.8,35397.5,0.5572,0.9748,137.8,97.7,0.492
0.9,32261.7,35545.3,1.0393,1.3373,137.8,97.7,0.492
0.92,32283.3,35720.6,1.1256,1.7673,137.8,97.7,0.492
0.94,32276.1,35686.8,1.0969,1.6846,137.8,97.7,0.492
0.96,32228.2,35533.3,0.9057,1.308,137.8,97.7,0.492
0.98,32191.4,35373.5,0.7588,0.916,137.8,97.7,0.492
1.0,32029.2,35259.4,0.1116,0.6362,137.8,97.7,0.492
1.02,31975.4,35081.9,-0.1033,0.2007,137.8,97.7,0.492
1.04,32050.7,35109.0,0.1975,0.267,137.8,97.7,0.492
1.06,32087.2,35070.2,0.3432,0.172,137.8,97.7,0.492
1.08,31950.5,34928.5,-0.2024,-0.1756,137.8,97.7,0.492
1.1,31901.1,34844.7,-0.3997,-0.3812,137.8,97.7,0.492
1.12,31874.2,34834.4,-0.507,-0.4064,137.8,97.7,0.492
1.14,31857.1,34725.8,-0.5751,-0.6728,137.8,97.7,0.492
1.16,31840.4,34574.0,-0.6418,-1.0451,137.8,97.7,0.492
1.18,31768.9,34588.1,-0.9271,-1.0107,137.8,97.7,0.492
1.2,31883.7,34553.8,-0.4692,-1.0947,137.8,97.7,0.492
1.22,31716.7,34588.3,-1.1356,-1.0102,137.8,97.7,0.492
1.24,31808.9,34461.8,-0.7677,-1.3204,137.8,97.7,0.492
1.26,31792.4,34482.1,-0.8334,-1.2706,137.8,97.7,0.492
1.28,31818.3,34674.1,-0.7302,-0.7998,137.8,97.7,0.492
1.3,31960.4,35104.6,-0.1629,0.2563,137.8,97.7,0.492
1.32,32076.3,35378.2,0.2995,0.9276,137.8,97.7,0.492
1.34,32311.0,35613.9,1.2362,1.5056,137.8,97.7,0.492
1.36,32334.2,35811.5,1.3289,1.9903,137.8,97.7,0.492
1.38,32293.6,35680.8,1.1669,1.6699,137.8,97.7,0.492
1.4,32211.8,35539.7,0.8405,1.3236,137.8,97.7,0.492
1.42,32094.6,35257.6,0.3728,0.6316,137.8,97.7,0.492
1.44,32018.9,35071.5,0.0705,0.1752,137.8,97.7,0.492
1.46,32054.5,35032.2,0.2127,0.0789,137.8,97.7,0.492
1.48,32041.5,35105.7,0.1606,0.259,137.8,97.7,0.492
1.5,31978.9,34966.6,-0.0891,-0.0821,137.8,97.7,0.492
1.52,31982.7,34864.9,-0.0738,-0.3317,137.8,97.7,0.492
1.54,31925.9,34793.2,-0.3008,-0.5074,137.8,97.7,0.492
1.56,31825.7,34640.6,-0.7007,-0.8818,137.8,97.7,0.492
1.58,31899.5,34662.8,-0.4059,-0.8275,137.8,97.7,0.492
1.6,31941.5,34693.7,-0.2382,-0.7515,137.8,97.7,0.492
1.62,31878.9,34649.5,-0.4882,-0.86,137.8,97.7,0.492
1.64,31821.1,34492.2,-0.7187,-1.2459,137.8,97.7,0.492
1.66,31752.6,34451.2,-0.9924,-1.3465,137.8,97.7,0.492
1.68,31768.4,34421.6,-0.9293,-1.4191,137.8,97.7,0.492
1.7,31876.4,34498.4,-0.4983,-1.2307,137.8,97.7,0.492
1.72,31886.2,34760.8,-0.4591,-0.5871,137.8,97.7,0.492
1.74,32088.9,35143.9,0.3499,0.3528,137.8,97.7,0.492
1.76,32266.1,35530.0,1.0571,1.2997,137.8,97.7,0.492
1.78,32394.3,35735.1,1.5688,1.8031,137.8,97.7,0.492
1.8,32328.7,35760.0,1.307,1.8642,137.8,97.7,0.492
1.82,32244.5,35628.5,0.9708,1.5416,137.8,97.7,0.492
1.84,32294.0,35452.2,1.1683,1.109,137.8,97.7,0.492
1.86,32023.9,35274.7,0.0904,0.6736,137.8,97.7,0.492
1.88,32054.1,35297.0,0.2109,0.7284,137.8,97.7,0.492
1.9,32059.7,35056.5,0.2335,0.1384,137.8,97.7,0.492
1.92,32000.1,35047.6,-0.0045,0.1166,137.8,97.7,0.492
1.94,32048.2,34923.5,0.1876,-0.1879,137.8,97.7,0.492
1.96,31986.9,34838.6,-0.0573,-0.3962,137.8,97.7,0.492
1.98,31919.8,34741.1,-0.3251,-0.6352,137.8,97.7,0.492
2.0,31870.6,34763.9,-0.5213,-0.5795,137.8,97.7,0.492
2.02,31877.5,34628.9,-0.4938,-0.9104,137.8,97.7,0.492
2.04,31811.9,34594.6,-0.7555,-0.9947,137.8,97.7,0.492
2.06,31770.3,34633.9,-0.9216,-0.8983,137.8,97.7,0.492
2.08,31795.3,34602.8,-0.8218,-0.9747,137.8,97.7,0.492
2.1,31682.9,34435.1,-1.2704,-1.3859,137.8,97.7,0.492
2.12,31743.6,34499.9,-1.028,-1.227,137.8,97.7,0.492
2.14,31804.1,34528.9,-0.7865,-1.1558,137.8,97.7,0.492
2.16,31965.8,34893.4,-0.1413,-0.2618,137.8,97.7,0.492
2.18,32079.8,35216.0,0.3137,0.5296,137.8,97.7,0.492
2.2,32294.2,35429.0,1.1692,1.0522,137.8,97.7,0.492
2.22,32329.4,35738.4,1.3097,1.8112,137.8,97.7,0.492
2.24,32300.2,35725.5,1.1931,1.7794,137.8,97.7,0.492
2.26,32283.2,35641.9,1.1251,1.5743,137.8,97.7,0.492
2.28,32168.1,35343.0,0.6658,0.8413,137.8,97.7,0.492
2.3,32046.7,35242.1,0.1813,0.5936,137.8,97.7,0.492
2.32,32064.3,35121.3,0.2515,0.2973,137.8,97.7,0.492
2.34,31934.8,35131.9,-0.2651,0.3233,137.8,97.7,0.492
2.36,31973.2,35157.0,-0.1119,0.3849,137.8,97.7,0.492
2.38,31957.7,34988.1,-0.1739,-0.0294,137.8,97.7,0.492
2.4,31942.4,34784.9,-0.2347,-0.5279,137.8,97.7,0.492
2.42,31947.3,34772.8,-0.2151,-0.5576,137.8,97.7,0.492
2.44,31908.7,34604.2,-0.3694,-0.9712,137.8,97.7,0.492
2.46,31896.4,34723.0,-0.4183,-0.6798,137.8,97.7,0.492
2.48,31809.7,34662.0,-0.7643,-0.8295,137.8,97.7,0.492
2.5,31777.2,34525.9,-0.8942,-1.1633,137.8,97.7,0.492
2.52,31741.4,34488.4,-1.0369,-1.2551,137.8,97.7,0.492
2.54,31878.7,34452.0,-0.4891,-1.3444,137.8,97.7,0.492
2.56,31749.5,34537.4,-1.0048,-1.1351,137.8,97.7,0.492
2.58,31865.2,34668.3,-0.5431,-0.814,137.8,97.7,0.492
2.6,32081.7,34820.9,0.321,-0.4395,137.8,97.7,0.492
2.62,32189.4,35325.6,0.751,0.7984,137.8,97.7,0.492
2.64,32198.5,35596.1,0.7872,1.4619,137.8,97.7,0.492
2.66,32409.9,35781.1,1.6311,1.9159,137.8,97.7,0.492
2.68,32360.0,35769.8,1.4318,1.8882,137.8,97.7,0.492
2.7,32237.5,35581.9,0.9428,1.4273,137.8,97.7,0.492
2.72,32217.4,35394.9,0.8626,0.9685,137.8,97.7,0.492
2.74,32075.8,35280.9,0.2976,0.6887,137.8,97.7,0.492
2.76,32170.8,35170.4,0.6767,0.4178,137.8,97.7,0.492
2.78,32052.8,35139.6,0.2058,0.3422,137.8,97.7,0.492
2.8,32047.9,35006.5,0.1864,0.0157,137.8,97.7,0.492
2.82,31997.0,34985.1,-0.0169,-0.0368,137.8,97.7,0.492
2.84,31939.5,34867.4,-0.2462,-0.3255,137.8,97.7,0.492
2.86,31830.4,34690.6,-0.6819,-0.7593,137.8,97.7,0.492
2.88,31789.5,34656.2,-0.8449,-0.8435,137.8,97.7,0.492
2.9,31907.8,34626.9,-0.3727,-0.9155,137.8,97.7,0.492
2.92,31851.9,34679.0,-0.596,-0.7876,137.8,97.7,0.492
2.94,31902.9,34555.4,-0.3926,-1.091,137.8,97.7,0.492
2.96,31839.5,34585.3,-0.6453,-1.0174,137.8,97.7,0.492
2.98,31773.7,34451.6,-0.9081,-1.3455,137.8,97.7,0.492
3.0,31766.8,34434.0,-0.9356,-1.3887,137.8,97.7,0.492
3.02,31900.6,34698.0,-0.4018,-0.7412,137.8,97.7,0.492
3.04,31926.6,34990.1,-0.298,-0.0246,137.8,97.7,0.492
3.06,32150.5,35234.7,0.5955,0.5754,137.8,97.7,0.492
3.08,32309.1,35697.2,1.2285,1.7101,137.8,97.7,0.492
3.1,32336.6,35724.7,1.3384,1.7776,137.8,97.7,0.492
3.12,32287.7,35765.5,1.1434,1.8776,137.8,97.7,0.492
3.14,32205.1,35617.4,0.8135,1.5143,137.8,97.7,0.492
3.16,32129.0,35357.7,0.5099,0.8772,137.8,97.7,0.492
3.18,32044.6,35147.8,0.173,0.3623,137.8,97.7,0.492
3.2,32069.8,35281.5,0.2737,0.6903,137.8,97.7,0.492
3.22,32069.6,35025.2,0.2728,0.0615,137.8,97.7,0.492
3.24,32085.0,35048.9,0.3344,0.1198,137.8,97.7,0.492
3.26,31871.3,34940.7,-0.5185,-0.1456,137.8,97.7,0.492
3.28,31929.7,34701.5,-0.2856,-0.7325,137.8,97.7,0.492
3.3,31907.3,34689.3,-0.3748,-0.7624,137.8,97.7,0.492
3.32,31909.3,34638.5,-0.3669,-0.8871,137.8,97.7,0.492
3.34,31884.1,34728.4,-0.4676,-0.6666,137.8,97.7,0.492
3.36,31803.5,34655.7,-0.7892,-0.8448,137.8,97.7,0.492
3.38,31802.1,34553.5,-0.7946,-1.0954,137.8,97.7,0.492
3.4,31810.4,34539.1,-0.7615,-1.1309,137.8,97.7,0.492
3.42,31730.8,34396.4,-1.0791,-1.481,137.8,97.7,0.492
3.44,31756.3,34578.1,-0.9774,-1.0352,137.8,97.7,0.492
3.46,31865.7,34793.4,-0.541,-0.507,137.8,97.7,0.492
3.48,32009.1,35134.1,0.0314,0.3288,137.8,97.7,0.492
3.5,32133.8,35391.0,0.529,0.9589,137.8,97.7,0.492
3.52,32207.1,35622.2,0.8214,1.5261,137.8,97.7,0.492
3.54,32292.6,35722.7,1.1628,1.7726,137.8,97.7,0.492
3.56,32203.9,35668.8,0.8089,1.6404,137.8,97.7,0.492
3.58,32182.2,35420.4,0.7221,1.0311,137.8,97.7,0.492
3.6,32159.9,35304.9,0.6331,0.7477,137.8,97.7,0.492
3.62,32090.8,35115.6,0.3574,0.2834,137.8,97.7,0.492
3.64,32006.3,35122.6,0.0203,0.3004,137.8,97.7,0.492
3.66,32043.7,35010.4,0.1696,0.0252,137.8,97.7,0.492
3.68,31981.6,34974.2,-0.0783,-0.0635,137.8,97.7,0.492
3.7,31997.0,34841.0,-0.0168,-0.3903,137.8,97.7,0.492
3.72,31954.5,34765.3,-0.1863,-0.5759,137.8,97.7,0.492
3.74,31837.2,34690.5,-0.6545,-0.7595,137.8,97.7,0.492
3.76,31856.0,34643.5,-0.5797,-0.8749,137.8,97.7,0.492
3.78,31789.4,34649.8,-0.8453,-0.8592,137.8,97.7,0.492
3.8,31758.6,34646.4,-0.9682,-0.8676,137.8,97.7,0.492
3.82,31831.5,34709.3,-0.6775,-0.7134,137.8,97.7,0.492
3.84,31762.9,34509.0,-0.9511,-1.2046,137.8,97.7,0.492
3.86,31726.9,34429.7,-1.0948,-1.3991,137.8,97.7,0.492
3.88,31842.9,34550.0,-0.6317,-1.1042,137.8,97.7,0.492
3.9,31955.2,34811.3,-0.1836,-0.4632,137.8,97.7,0.492
3.92,32094.1,35176.7,0.3707,0.4332,137.8,97.7,0.492
3.94,32178.4,35480.4,0.707,1.1781,137.8,97.7,0.492
3.96,32263.9,35676.8,1.0484,1.6599,137.8,97.7,0.492
3.98,32312.7,35853.7,1.2431,2.0939,137.8,97.7,0.492
4.0,32277.9,35614.1,1.1043,1.5061,137.8,97.7,0.492
4.02,32123.9,35491.6,0.4894,1.2058,137.8,97.7,0.492
4.04,32093.9,35245.9,0.3698,0.603,137.8,97.7,0.492
4.06,32158.0,35242.4,0.6257,0.5944,137.8,97.7,0.492
4.08,32086.7,35090.7,0.341,0.2222,137.8,97.7,0.492
4.1,32103.1,35016.1,0.4066,0.0394,137.8,97.7,0.492
4.12,32064.0,34956.4,0.2505,-0.1072,137.8,97.7,0.492
4.14,31991.6,34805.7,-0.0385,-0.477,137.8,97.7,0.492
4.16,31898.8,34788.1,-0.4087,-0.52,137.8,97.7,0.492
4.18,31850.7,34765.3,-0.6008,-0.5759,137.8,97.7,0.492
4.2,31815.6,34803.7,-0.7408,-0.4817,137.8,97.7,0.492
4.22,31838.9,34679.3,-0.6477,-0.7868,137.8,97.7,0.492
4.24,31788.9,34584.0,-0.8475,-1.0207,137.8,97.7,0.492
4.26,31789.3,34535.1,-0.8456,-1.1408,137.8,97.7,0.492
4.28,31814.4,34464.5,-0.7456,-1.3137,137.8,97.7,0.492
4.3,31788.2,34541.3,-0.85,-1.1253,137.8,97.7,0.492
4.32,31825.5,34615.7,-0.7015,-0.943,137.8,97.7,0.492
4.34,31965.5,34903.6,-0.1424,-0.2366,137.8,97.7,0.492
4.36,32048.9,35232.7,0.1902,0.5707,137.8,97.7,0.492
4.38,32250.5,35590.7,0.9947,1.4488,137.8,97.7,0.492
4.4,32347.2,35800.6,1.3807,1.9636,137.8,97.7,0.492
4.42,32286.1,35670.8,1.137,1.6452,137.8,97.7,0.492
4.44,32280.4,35628.6,1.1143,1.5416,137.8,97.7,0.492
4.46,32121.8,35427.1,0.4811,1.0475,137.8,97.7,0.492
4.48,32068.0,35250.4,0.2663,0.6141,137.8,97.7,0.492
4.5,31978.5,35097.0,-0.0907,0.2378,137.8,97.7,0.492
4.52,32055.9,35110.0,0.2181,0.2697,137.8,97.7,0.492
4.54,31968.1,35040.3,-0.1322,0.0985,137.8,97.7,0.492
4.56,31866.1,34908.7,-0.5392,-0.2242,137.8,97.7,0.492
4.58,31937.0,34882.1,-0.2563,-0.2894,137.8,97.7,0.492
4.6,31910.8,34735.5,-0.361,-0.649,137.8,97.7,0.492
4.62,31866.7,34593.2,-0.537,-0.9982,137.8,97.7,0.492
4.64,31905.3,34600.6,-0.3828,-0.9799,137.8,97.7,0.492
4.66,31762.7,34675.3,-0.9518,-0.7967,137.8,97.7,0.492
4.68,31794.3,34571.9,-0.8259,-1.0503,137.8,97.7,0.492
4.7,31768.3,34622.3,-0.9294,-0.9268,137.8,97.7,0.492
4.72,31778.7,34380.1,-0.888,-1.5208,137.8,97.7,0.492
4.74,31749.9,34512.5,-1.0028,-1.196,137.8,97.7,0.492
4.76,31830.6,34650.4,-0.6809,-0.8578,137.8,97.7,0.492
4.78,32080.2,34835.5,0.3153,-0.4038,137.8,97.7,0.492
4.8,32168.2,35278.0,0.6665,0.6817,137.8,97.7,0.492
4.82,32332.0,35579.6,1.32,1.4215,137.8,97.7,0.492
4.84,32363.4,35753.9,1.4455,1.8491,137.8,97.7,0.492
4.86,32303.3,35654.5,1.2055,1.6054,137.8,97.7,0.492
4.88,32249.1,35507.3,0.9892,1.2442,137.8,97.7,0.492
4.9,32199.0,35404.5,0.7893,0.992,137.8,97.7,0.492
4.92,32114.7,35262.8,0.453,0.6444,137.8,97.7,0.492
4.94,32118.7,35159.7,0.4688,0.3915,137.8,97.7,0.492
4.96,31941.8,35023.9,-0.237,0.0584,137.8,97.7,0.492
4.98,32029.1,35070.9,0.1112,0.1736,137.8,97.7,0.492
5.0,31903.2,35006.8,-0.3913,0.0164,137.8,97.7,0.492
5.02,31904.8,34807.3,-0.3849,-0.473,137.8,97.7,0.492
5.04,31923.1,34686.4,-0.3119,-0.7695,137.8,97.7,0.492
5.06,31845.6,34740.4,-0.621,-0.637,137.8,97.7,0.492
5.08,31818.4,34790.9,-0.7297,-0.5132,137.8,97.7,0.492
5.1,31873.3,34595.9,-0.5104,-0.9916,137.8,97.7,0.492
5.12,31786.0,34532.7,-0.8588,-1.1466,137.8,97.7,0.492
5.14,31728.1,34587.8,-1.09,-1.0114,137.8,97.7,0.492
5.16,31710.1,34364.1,-1.162,-1.5602,137.8,97.7,0.492
5.18,31778.8,34493.9,-0.8877,-1.2416,137.8,97.7,0.492
5.2,31799.4,34618.5,-0.8055,-0.936,137.8,97.7,0.492
5.22,31994.6,35061.0,-0.0266,0.1494,137.8,97.7,0.492
5.24,32131.7,35407.9,0.5205,1.0003,137.8,97.7,0.492
5.26,32318.4,35651.8,1.2656,1.5987,137.8,97.7,0.492
5.28,32314.1,35789.6,1.2485,1.9367,137.8,97.7,0.492
5.3,32353.9,35769.1,1.4076,1.8864,137.8,97.7,0.492
5.32,32259.8,35529.2,1.0317,1.298,137.8,97.7,0.492
5.34,32039.3,35247.1,0.1518,0.6058,137.8,97.7,0.492
5.36,32105.8,35153.1,0.4174,0.3753,137.8,97.7,0.492
5.38,32038.5,35120.9,0.1487,0.2963,137.8,97.7,0.492
5.4,32072.4,35065.7,0.2841,0.161,137.8,97.7,0.492
5.42,31994.8,35026.3,-0.0258,0.0643,137.8,97.7,0.492
5.44,31865.2,34939.5,-0.5428,-0.1487,137.8,97.7,0.492
5.46,31972.3,34710.2,-0.1154,-0.7112,137.8,97.7,0.492
5.48,31907.2,34700.8,-0.3752,-0.7343,137.8,97.7,0.492
5.5,31951.9,34647.8,-0.1969,-0.8643,137.8,97.7,0.492
5.52,31895.1,34754.7,-0.4237,-0.6018,137.8,97.7,0.492
5.54,31701.7,34536.0,-1.1953,-1.1383,137.8,97.7,0.492
5.56,31763.1,34559.1,-0.9503,-1.0819,137.8,97.7,0.492
5.58,31750.4,34476.9,-1.001,-1.2835,137.8,97.7,0.492
5.6,31761.8,34567.3,-0.9557,-1.0616,137.8,97.7,0.492
5.62,31784.9,34592.6,-0.8635,-0.9995,137.8,97.7,0.492
5.64,31828.3,34723.9,-0.6901,-0.6776,137.8,97.7,0.492
5.66,32088.2,35105.0,0.347,0.2573,137.8,97.7,0.492
5.68,32222.4,35573.4,0.8826,1.4063,137.8,97.7,0.492
5.7,32327.3,35728.7,1.3014,1.7873,137.8,97.7,0.492
5.72,32341.9,35775.9,1.3595,1.9031,137.8,97.7,0.492
5.74,32242.2,35670.0,0.9617,1.6434,137.8,97.7,0.492
5.76,32204.0,35464.0,0.8093,1.1381,137.8,97.7,0.492
5.78,32103.2,35246.9,0.4069,0.6054,137.8,97.7,0.492
5.8,32151.7,35192.1,0.6005,0.471,137.8,97.7,0.492
5.82,32052.8,35085.3,0.2059,0.209,137.8,97.7,0.492
5.84,31974.2,35056.0,-0.108,0.1371,137.8,97.7,0.492
5.86,32047.8,34974.3,0.1858,-0.0633,137.8,97.7,0.492
5.88,31986.6,34938.7,-0.0585,-0.1506,137.8,97.7,0.492
5.9,31941.4,34761.7,-0.2387,-0.5848,137.8,97.7,0.492
5.92,31902.7,34712.1,-0.3933,-0.7064,137.8,97.7,0.492
5.94,31968.1,34621.5,-0.1322,-0.9288,137.8,97.7,0.492
5.96,31852.1,34741.3,-0.5953,-0.635,137.8,97.7,0.492
5.98,31869.8,34672.8,-0.5245,-0.8028,137.8,97.7,0.492
6.0,31869.2,34618.2,-0.5271,-0.9367,137.8,97.7,0.492
6.02,31731.7,34536.5,-1.0755,-1.1372,137.8,97.7,0.492
6.04,31712.5,34483.8,-1.1522,-1.2664,137.8,97.7,0.492
6.06,31797.6,34610.2,-0.8127,-0.9564,137.8,97.7,0.492
6.08,31919.3,34909.0,-0.3269,-0.2236,137.8,97.7,0.492
6.1,32086.2,35213.0,0.3391,0.5221,137.8,97.7,0.492
6.12,32230.2,35470.7,0.9139,1.1545,137.8,97.7,0.492
6.14,32233.9,35717.4,0.9285,1.7595,137.8,97.7,0.492
6.16,32324.9,35719.1,1.2917,1.7638,137.8,97.7,0.492
6.18,32251.2,35758.3,0.9976,1.8599,137.8,97.7,0.492
6.2,32154.2,35396.9,0.6103,0.9733,137.8,97.7,0.492
6.22,32198.5,35263.4,0.7874,0.646,137.8,97.7,0.492
6.24,32073.1,35109.0,0.287,0.267,137.8,97.7,0.492
6.26,32045.5,35066.2,0.1769,0.162,137.8,97.7,0.492
6.28,31984.6,34996.4,-0.0664,-0.009,137.8,97.7,0.492
6.3,31988.0,35003.1,-0.053,0.0073,137.8,97.7,0.492
6.32,31957.3,34872.6,-0.1754,-0.3128,137.8,97.7,0.492
6.34,31910.9,34813.1,-0.3603,-0.4587,137.8,97.7,0.492
6.36,31913.9,34692.0,-0.3486,-0.7558,137.8,97.7,0.492
6.38,31817.2,34702.2,-0.7343,-0.7307,137.8,97.7,0.492
6.4,31915.1,34715.9,-0.3436,-0.6971,137.8,97.7,0.492
6.42,31730.2,34496.0,-1.0815,-1.2365,137.8,97.7,0.492
6.44,31750.7,34485.3,-0.9999,-1.2628,137.8,97.7,0.492
6.46,31785.1,34478.3,-0.8626,-1.28,137.8,97.7,0.492
6.48,31752.7,34421.4,-0.9917,-1.4195,137.8,97.7,0.492
6.5,31881.5,34580.8,-0.478,-1.0285,137.8,97.7,0.492
6.52,32021.9,34922.4,0.0825,-0.1906,137.8,97.7,0.492
6.54,32151.4,35244.1,0.5992,0.5986,137.8,97.7,0.492
6.56,32245.6,35497.8,0.9753,1.2209,137.8,97.7,0.492
6.58,32371.7,35811.5,1.4786,1.9905,137.8,97.7,0.492
6.6,32340.3,35678.2,1.353,1.6635,137.8,97.7,0.492
6.62,32379.3,35633.9,1.5088,1.5548,137.8,97.7,0.492
6.64,32221.9,35452.8,0.8806,1.1106,137.8,97.7,0.492
6.66,32078.6,35238.5,0.3087,0.5849,137.8,97.7,0.492
6.68,31990.4,35110.5,-0.0431,0.2709,137.8,97.7,0.492
6.7,32083.2,35007.3,0.3273,0.0176,137.8,97.7,0.492
6.72,31980.5,35013.4,-0.0826,0.0326,137.8,97.7,0.492
6.74,32080.8,34891.4,0.3177,-0.2666,137.8,97.7,0.492
6.76,31942.9,34847.6,-0.2327,-0.374,137.8,97.7,0.492
6.78,31882.8,34664.5,-0.4728,-0.8233,137.8,97.7,0.492
6.8,31832.0,34625.2,-0.6756,-0.9196,137.8,97.7,0.492
6.82,31892.2,34668.9,-0.4353,-0.8123,137.8,97.7,0.492
6.84,31831.6,34602.1,-0.677,-0.9763,137.8,97.7,0.492
6.86,31910.5,34536.6,-0.362,-1.137,137.8,97.7,0.492
6.88,31814.5,34615.4,-0.7453,-0.9437,137.8,97.7,0.492
6.9,31718.8,34485.5,-1.127,-1.2623,137.8,97.7,0.492
6.92,31829.4,34362.1,-0.6856,-1.5649,137.8,97.7,0.492
6.94,31797.7,34672.9,-0.8121,-0.8026,137.8,97.7,0.492
6.96,31825.5,34956.4,-0.7012,-0.1073,137.8,97.7,0.492
6.98,32197.3,35439.4,0.7825,1.0777,137.8,97.7,0.492
7.0,32250.0,35559.3,0.9929,1.3718,137.8,97.7,0.492
7.02,32286.2,35746.5,1.1374,1.831,137.8,97.7,0.492
7.04,32316.7,35686.4,1.259,1.6835,137.8,97.7,0.492
7.06,32266.5,35475.0,1.0588,1.1649,137.8,97.7,0.492
7.08,32123.3,35207.4,0.4872,0.5084,137.8,97.7,0.492
7.1,31981.5,35159.5,-0.0786,0.3911,137.8,97.7,0.492
7.12,32005.4,35195.8,0.0166,0.4801,137.8,97.7,0.492
7.14,32051.7,35068.3,0.2014,0.1674,137.8,97.7,0.492
7.16,32039.7,35023.1,0.1535,0.0564,137.8,97.7,0.492
7.18,32023.1,34943.7,0.0873,-0.1382,137.8,97.7,0.492
7.2,31872.7,34690.6,-0.5131,-0.7591,137.8,97.7,0.492
7.22,31904.5,34651.9,-0.3862,-0.8542,137.8,97.7,0.492
7.24,31885.6,34737.3,-0.4614,-0.6445,137.8,97.7,0.492
7.26,31810.6,34675.1,-0.7608,-0.7972,137.8,97.7,0.492
7.28,31768.1,34643.7,-0.9304,-0.8742,137.8,97.7,0.492
7.3,31912.7,34504.9,-0.3534,-1.2146,137.8,97.7,0.492
7.32,31739.3,34478.6,-1.0454,-1.2791,137.8,97.7,0.492
7.34,31748.0,34439.0,-1.0106,-1.3763,137.8,97.7,0.492
7.36,31744.8,34501.3,-1.0235,-1.2236,137.8,97.7,0.492
7.38,31916.4,34787.8,-0.3386,-0.5208,137.8,97.7,0.492
7.4,32051.0,35061.5,0.1986,0.1507,137.8,97.7,0.492
7.42,32204.6,35505.7,0.8115,1.2403,137.8,97.7,0.492
7.44,32264.9,35718.1,1.0522,1.7613,137.8,97.7,0.492
7.46,32342.3,35816.8,1.3613,2.0034,137.8,97.7,0.492
7.48,32268.7,35693.3,1.0675,1.7005,137.8,97.7,0.492
7.5,32249.6,35518.1,0.9911,1.2707,137.8,97.7,0.492
7.52,32137.0,35248.7,0.542,0.6098,137.8,97.7,0.492
7.54,32144.6,35306.5,0.5723,0.7516,137.8,97.7,0.492
7.56,32011.9,35149.7,0.0424,0.367,137.8,97.7,0.492
7.58,32033.2,35001.4,0.1278,0.0032,137.8,97.7,0.492
7.6,32004.9,34863.2,0.0145,-0.3359,137.8,97.7,0.492
7.62,31985.9,34809.4,-0.0612,-0.4677,137.8,97.7,0.492
7.64,31904.3,34842.9,-0.387,-0.3857,137.8,97.7,0.492
7.66,31919.7,34764.9,-0.3255,-0.5768,137.8,97.7,0.492
7.68,31901.6,34580.8,-0.3975,-1.0286,137.8,97.7,0.492
7.7,31863.6,34682.0,-0.5495,-0.7803,137.8,97.7,0.492
7.72,31942.7,34707.5,-0.2334,-0.7179,137.8,97.7,0.492
7.74,31754.2,34615.8,-0.9859,-0.9426,137.8,97.7,0.492
7.76,31773.9,34522.1,-0.9073,-1.1725,137.8,97.7,0.492
7.78,31786.7,34461.7,-0.8563,-1.3208,137.8,97.7,0.492
7.8,31772.7,34554.4,-0.9119,-1.0934,137.8,97.7,0.492
7.82,31870.7,34780.3,-0.5208,-0.5392,137.8,97.7,0.492
7.84,32140.3,35134.9,0.5549,0.3307,137.8,97.7,0.492
7.86,32117.6,35438.1,0.4643,1.0745,137.8,97.7,0.492
7.88,32298.8,35799.9,1.1874,1.9619,137.8,97.7,0.492
7.9,32312.7,35706.7,1.2431,1.7334,137.8,97.7,0.492
7.92,32293.6,35591.1,1.1669,1.4497,137.8,97.7,0.492
7.94,32135.2,35335.6,0.5347,0.823,137.8,97.7,0.492
7.96,32193.4,35263.3,0.7668,0.6456,137.8,97.7,0.492
7.98,32033.5,35129.1,0.1289,0.3165,137.8,97.7,0.492
8.0,32012.9,35091.8,0.0466,0.2249,137.8,97.7,0.492
8.02,32009.5,35060.2,0.033,0.1474,137.8,97.7,0.492
8.04,32016.2,34919.7,0.0597,-0.1972,137.8,97.7,0.492
8.06,31970.6,34863.0,-0.1221,-0.3362,137.8,97.7,0.492
8.08,31883.9,34735.4,-0.4683,-0.6494,137.8,97.7,0.492
8.1,31981.4,34726.0,-0.0791,-0.6723,137.8,97.7,0.492
8.12,31802.1,34829.3,-0.7948,-0.419,137.8,97.7,0.492
8.14,31846.7,34707.2,-0.6168,-0.7186,137.8,97.7,0.492
8.16,31794.7,34694.7,-0.8241,-0.7492,137.8,97.7,0.492
8.18,31780.9,34536.1,-0.8793,-1.1381,137.8,97.7,0.492
8.2,31777.0,34394.9,-0.8949,-1.4846,137.8,97.7,0.492
8.22,31761.2,34500.4,-0.9578,-1.2258,137.8,97.7,0.492
8.24,31810.0,34658.1,-0.763,-0.839,137.8,97.7,0.492
8.26,31996.5,34851.8,-0.0188,-0.3638,137.8,97.7,0.492
8.28,32140.3,35196.8,0.5551,0.4824,137.8,97.7,0.492
8.3,32277.9,35514.0,1.1041,1.2606,137.8,97.7,0.492
8.32,32318.2,35803.7,1.2649,1.9713,137.8,97.7,0.492
8.34,32409.6,35749.3,1.6298,1.8378,137.8,97.7,0.492
8.36,32279.7,35536.9,1.1115,1.3169,137.8,97.7,0.492
8.38,32084.6,35373.7,0.3325,0.9164,137.8,97.7,0.492
8.4,32086.1,35154.7,0.3388,0.3794,137.8,97.7,0.492
8.42,32023.0,35184.5,0.0869,0.4524,137.8,97.7,0.492
8.44,32102.8,35036.9,0.4054,0.0903,137.8,97.7,0.492
8.46,31996.6,34961.4,-0.0187,-0.0948,137.8,97.7,0.492
8.48,32008.1,35071.5,0.0275,0.1751,137.8,97.7,0.492
8.5,32035.7,34770.3,0.1376,-0.5638,137.8,97.7,0.492
8.52,31996.4,34723.4,-0.0192,-0.6787,137.8,97.7,0.492
8.54,31852.4,34672.4,-0.5941,-0.8038,137.8,97.7,0.492
8.56,31883.8,34688.7,-0.4686,-0.7638,137.8,97.7,0.492
8.58,31822.3,34611.3,-0.7142,-0.9538,137.8,97.7,0.492
8.6,31801.5,34630.8,-0.797,-0.906,137.8,97.7,0.492
8.62,31708.6,34593.2,-1.1678,-0.9982,137.8,97.7,0.492
8.64,31727.3,34466.8,-1.0931,-1.3081,137.8,97.7,0.492
8.66,31708.0,34580.3,-1.1701,-1.0297,137.8,97.7,0.492
8.68,31831.2,34612.2,-0.6786,-0.9516,137.8,97.7,0.492
8.7,31862.7,35031.7,-0.553,0.0776,137.8,97.7,0.492
8.72,32222.1,35259.7,0.8815,0.6368,137.8,97.7,0.492
8.74,32412.4,35650.8,1.6407,1.5962,137.8,97.7,0.492
8.76,32411.4,35864.1,1.6368,2.1193,137.8,97.7,0.492
8.78,32185.9,35670.9,0.7372,1.6455,137.8,97.7,0.492
8.8,32341.8,35607.6,1.3591,1.4901,137.8,97.7,0.492
8.82,32193.7,35373.1,0.7681,0.915,137.8,97.7,0.492
8.84,32077.4,35206.7,0.3041,0.5068,137.8,97.7,0.492
8.86,32142.2,35040.3,0.5625,0.0985,137.8,97.7,0.492
8.88,32151.4,35025.5,0.5994,0.0622,137.8,97.7,0.492
8.9,32039.1,35004.8,0.1512,0.0115,137.8,97.7,0.492
8.92,32000.2,34884.5,-0.0042,-0.2835,137.8,97.7,0.492
8.94,31962.6,34915.0,-0.1541,-0.2088,137.8,97.7,0.492
8.96,31908.6,34765.9,-0.3695,-0.5744,137.8,97.7,0.492
8.98,31917.8,34637.9,-0.3329,-0.8886,137.8,97.7,0.492
9.0,31832.2,34654.3,-0.6746,-0.8483,137.8,97.7,0.492
9.02,31922.5,34583.1,-0.3141,-1.0228,137.8,97.7,0.492
9.04,31758.2,34623.1,-0.9697,-0.9247,137.8,97.7,0.492
9.06,31854.7,34557.5,-0.5848,-1.0858,137.8,97.7,0.492
9.08,31765.9,34351.2,-0.9391,-1.5918,137.8,97.7,0.492
9.1,31692.2,34446.3,-1.2333,-1.3585,137.8,97.7,0.492
9.12,31840.9,34722.9,-0.64,-0.6799,137.8,97.7,0.492
9.14,32024.5,35021.8,0.0929,0.0532,137.8,97.7,0.492
9.16,32137.9,35401.5,0.5452,0.9847,137.8,97.7,0.492
9.18,32233.7,35698.9,0.9277,1.7143,137.8,97.7,0.492
9.2,32268.5,35799.9,1.0666,1.962,137.8,97.7,0.492
9.22,32378.8,35629.1,1.5067,1.543,137.8,97.7,0.492
9.24,32230.4,35501.0,0.9146,1.2286,137.8,97.7,0.492
9.26,32135.2,35293.2,0.5346,0.7189,137.8,97.7,0.492
9.28,32096.2,35186.3,0.3789,0.4568,137.8,97.7,0.492
9.3,32123.8,35136.1,0.489,0.3335,137.8,97.7,0.492
9.32,32056.8,34989.2,0.2218,-0.0267,137.8,97.7,0.492
9.34,31918.3,35015.9,-0.3308,0.0389,137.8,97.7,0.492
9.36,31966.3,34940.8,-0.1392,-0.1454,137.8,97.7,0.492
9.38,31931.4,34888.1,-0.2788,-0.2748,137.8,97.7,0.492
9.4,31910.7,34611.8,-0.3612,-0.9525,137.8,97.7,0.492
9.42,32010.0,34722.9,0.0351,-0.6799,137.8,97.7,0.492
9.44,31823.6,34571.7,-0.7088,-1.0508,137.8,97.7,0.492
9.46,31845.1,34656.6,-0.6231,-0.8427,137.8,97.7,0.492
9.48,31773.9,34591.3,-0.9074,-1.0028,137.8,97.7,0.492
9.5,31825.7,34506.4,-0.7003,-1.2111,137.8,97.7,0.492
9.52,31720.5,34503.2,-1.1202,-1.2189,137.8,97.7,0.492
9.54,31743.2,34566.8,-1.0297,-1.063,137.8,97.7,0.492
9.56,31863.5,34731.5,-0.5497,-0.659,137.8,97.7,0.492
9.58,32124.6,35007.7,0.4925,0.0187,137.8,97.7,0.492
9.6,32195.2,35437.7,0.7742,1.0734,137.8,97.7,0.492
9.62,32353.3,35814.7,1.405,1.9983,137.8,97.7,0.492
9.64,32307.1,35737.4,1.2206,1.8086,137.8,97.7,0.492
9.66,32250.3,35640.2,0.9941,1.5701,137.8,97.7,0.492
9.68,32196.8,35462.5,0.7806,1.1342,137.8,97.7,0.492
9.7,32079.3,35261.6,0.3117,0.6416,137.8,97.7,0.492
9.72,32044.3,35271.4,0.172,0.6656,137.8,97.7,0.492
9.74,32082.9,35058.9,0.3261,0.1443,137.8,97.7,0.492
9.76,32010.8,35029.2,0.0382,0.0714,137.8,97.7,0.492
9.78,32015.9,35038.5,0.0586,0.0943,137.8,97.7,0.492
9.8,32023.6,34855.0,0.0893,-0.3559,137.8,97.7,0.492
9.82,31898.8,34799.0,-0.4086,-0.4933,137.8,97.7,0.492
9.84,31831.1,34741.5,-0.6789,-0.6343,137.8,97.7,0.492
9.86,31895.5,34686.7,-0.422,-0.7687,137.8,97.7,0.492
9.88,31917.5,34609.9,-0.334,-0.9572,137.8,97.7,0.492
9.9,31861.7,34685.7,-0.5569,-0.7712,137.8,97.7,0.492
9.92,31711.5,34532.6,-1.1563,-1.1468,137.8,97.7,0.492
9.94,31718.1,34454.9,-1.13,-1.3373,137.8,97.7,0.492
9.96,31769.4,34471.9,-0.9253,-1.2958,137.8,97.7,0.492
9.98,31816.8,34597.5,-0.7359,-0.9877,137.8,97.7,0.492
10.0,31983.6,34845.7,-0.0704,-0.3788,137.8,97.7,0.492
10.02,32060.0,35199.8,0.2347,0.4898,137.8,97.7,0.492
10.04,32248.7,35417.1,0.9876,1.023,137.8,97.7,0.492
10.06,32252.3,35680.6,1.0021,1.6693,137.8,97.7,0.492
10.08,32453.2,35696.5,1.8037,1.7083,137.8,97.7,0.492
10.1,32255.5,35711.8,1.0146,1.7457,137.8,97.7,0.492
10.12,32208.1,35498.9,0.8254,1.2236,137.8,97.7,0.492
10.14,32091.4,35300.8,0.36,0.7377,137.8,97.7,0.492
10.16,32079.8,35067.9,0.3135,0.1664,137.8,97.7,0.492
10.18,32087.8,35062.8,0.3455,0.1537,137.8,97.7,0.492
10.2,32060.8,35034.0,0.2377,0.0832,137.8,97.7,0.492
10.22,31985.6,34964.0,-0.0625,-0.0884,137.8,97.7,0.492
10.24,31924.9,34794.7,-0.3045,-0.5038,137.8,97.7,0.492
10.26,31903.1,34693.4,-0.3917,-0.7523,137.8,97.7,0.492
10.28,31884.4,34746.9,-0.4664,-0.6212,137.8,97.7,0.492
10.3,31843.4,34617.9,-0.63,-0.9375,137.8,97.7,0.492
10.32,31835.4,34656.2,-0.6618,-0.8435,137.8,97.7,0.492
10.34,31863.4,34679.8,-0.5501,-0.7857,137.8,97.7,0.492
10.36,31786.9,34595.1,-0.8555,-0.9935,137.8,97.7,0.492
10.38,31755.0,34472.1,-0.9827,-1.2952,137.8,97.7,0.492
10.4,31809.2,34464.5,-0.7662,-1.3139,137.8,97.7,0.492
10.42,31805.5,34642.8,-0.7812,-0.8765,137.8,97.7,0.492
10.44,31954.5,35015.7,-0.1866,0.0383,137.8,97.7,0.492
10.46,32083.1,35356.4,0.3267,0.874,137.8,97.7,0.492
10.48,32308.1,35578.1,1.2247,1.418,137.8,97.7,0.492
10.5,32217.5,35726.7,0.8629,1.7825,137.8,97.7,0.492
10.52,32311.4,35800.6,1.2377,1.9637,137.8,97.7,0.492
10.54,32261.8,35507.3,1.0398,1.2442,137.8,97.7,0.492
10.56,32172.8,35351.1,0.6847,0.8611,137.8,97.7,0.492
10.58,32092.4,35111.8,0.3637,0.2741,137.8,97.7,0.492
10.6,32062.9,35030.0,0.2462,0.0734,137.8,97.7,0.492
10.62,32051.4,34975.7,0.2003,-0.0599,137.8,97.7,0.492
10.64,32005.0,35036.1,0.0151,0.0883,137.8,97.7,0.492
10.66,31960.5,34943.9,-0.1626,-0.1378,137.8,97.7,0.492
10.68,31892.8,34824.3,-0.4327,-0.4312,137.8,97.7,0.492
10.7,31871.7,34770.5,-0.517,-0.5632,137.8,97.7,0.492
10.72,31926.5,34656.0,-0.2981,-0.8442,137.8,97.7,0.492
10.74,31851.7,34761.7,-0.5969,-0.5849,137.8,97.7,0.492
10.76,31957.9,34701.6,-0.1729,-0.7323,137.8,97.7,0.492
10.78,31809.4,34634.8,-0.7656,-0.8962,137.8,97.7,0.492
10.8,31774.1,34483.3,-0.9066,-1.2678,137.8,97.7,0.492
10.82,31796.2,34481.7,-0.8181,-1.2716,137.8,97.7,0.492
10.84,31789.3,34519.3,-0.8459,-1.1793,137.8,97.7,0.492
10.86,31866.2,34670.5,-0.5389,-0.8085,137.8,97.7,0.492
10.88,31953.3,34968.5,-0.1915,-0.0774,137.8,97.7,0.492
10.9,32209.5,35344.3,0.831,0.8443,137.8,97.7,0.492
10.92,32371.2,35668.1,1.4764,1.6387,137.8,97.7,0.492
10.94,32301.9,35755.3,1.2,1.8525,137.8,97.7,0.492
10.96,32299.4,35672.2,1.1898,1.6486,137.8,97.7,0.492
10.98,32196.0,35562.3,0.7772,1.379,137.8,97.7,0.492
11.0,32025.6,35293.0,0.0971,0.7186,137.8,97.7,0.492
11.02,31995.1,35180.8,-0.0244,0.4433,137.8,97.7,0.492
11.04,31996.4,35114.6,-0.0192,0.281,137.8,97.7,0.492
11.06,32119.6,35163.0,0.4725,0.3997,137.8,97.7,0.492
11.08,32014.4,35022.5,0.0526,0.055,137.8,97.7,0.492
11.1,31877.4,34892.9,-0.494,-0.2629,137.8,97.7,0.492
11.12,31830.9,34868.0,-0.6799,-0.324,137.8,97.7,0.492
11.14,31910.5,34771.9,-0.362,-0.5598,137.8,97.7,0.492
11.16,31886.3,34674.3,-0.4588,-0.7991,137.8,97.7,0.492
11.18,31796.8,34576.4,-0.8157,-1.0394,137.8,97.7,0.492
11.2,31823.1,34632.1,-0.7108,-0.9027,137.8,97.7,0.492
11.22,31799.2,34607.4,-0.8064,-0.9634,137.8,97.7,0.492
11.24,31793.9,34394.6,-0.8273,-1.4853,137.8,97.7,0.492
11.26,31724.7,34461.0,-1.1038,-1.3223,137.8,97.7,0.492
11.28,31785.2,34599.1,-0.862,-0.9836,137.8,97.7,0.492
11.3,31884.3,34685.7,-0.4667,-0.7712,137.8,97.7,0.492
11.32,32025.2,35002.2,0.0955,0.0051,137.8,97.7,0.492
11.34,32213.8,35415.6,0.8482,1.0192,137.8,97.7,0.492
11.36,32279.5,35741.6,1.1104,1.8189,137.8,97.7,0.492
11.38,32295.2,35806.8,1.1732,1.9789,137.8,97.7,0.492
11.4,32297.0,35658.7,1.1802,1.6156,137.8,97.7,0.492
11.42,32156.8,35472.3,0.6209,1.1584,137.8,97.7,0.492
11.44,32158.5,35314.5,0.6275,0.7712,137.8,97.7,0.492
11.46,32133.7,35116.8,0.5287,0.2862,137.8,97.7,0.492
11.48,32091.8,35092.7,0.3615,0.2271,137.8,97.7,0.492
11.5,32107.6,35052.2,0.4243,0.1279,137.8,97.7,0.492
11.52,31894.1,34940.2,-0.4277,-0.1469,137.8,97.7,0.492
11.54,31995.0,34916.7,-0.025,-0.2046,137.8,97.7,0.492
11.56,31846.5,34807.5,-0.6175,-0.4725,137.8,97.7,0.492
11.58,31897.0,34703.4,-0.4159,-0.7277,137.8,97.7,0.492
11.6,31865.7,34651.1,-0.5407,-0.856,137.8,97.7,0.492
11.62,31818.3,34673.7,-0.7301,-0.8008,137.8,97.7,0.492
11.64,31896.8,34673.3,-0.417,-0.8015,137.8,97.7,0.492
11.66,31716.6,34547.7,-1.1359,-1.1098,137.8,97.7,0.492
11.68,31660.5,34481.0,-1.3597,-1.2735,137.8,97.7,0.492
11.7,31828.5,34416.1,-0.6892,-1.4326,137.8,97.7,0.492
11.72,31757.6,34585.6,-0.9725,-1.0169,137.8,97.7,0.492
11.74,32010.2,34795.9,0.0358,-0.501,137.8,97.7,0.492
11.76,32101.2,35127.6,0.3989,0.3128,137.8,97.7,0.492
11.78,32144.9,35399.6,0.5732,0.9799,137.8,97.7,0.492
11.8,32268.4,35643.0,1.0663,1.577,137.8,97.7,0.492
11.82,32333.6,35788.8,1.3265,1.9346,137.8,97.7,0.492
11.84,32262.9,35601.8,1.0445,1.4761,137.8,97.7,0.492
11.86,32216.5,35432.0,0.8592,1.0594,137.8,97.7,0.492
11.88,32090.0,35281.7,0.3544,0.6908,137.8,97.7,0.492
11.9,32096.0,35159.0,0.3784,0.3898,137.8,97.7,0.492
11.92,31935.8,35035.4,-0.261,0.0866,137.8,97.7,0.492
11.94,32101.5,35079.7,0.4003,0.1952,137.8,97.7,0.492
11.96,31937.1,34908.5,-0.2561,-0.2246,137.8,97.7,0.492
11.98,31832.1,34881.6,-0.675,-0.2906,137.8,97.7,0.492
12.0,31872.5,34786.3,-0.5139,-0.5245,137.8,97.7,0.492
12.02,31863.4,34685.3,-0.5502,-0.7722,137.8,97.7,0.492
12.04,31773.4,34673.9,-0.9093,-0.8001,137.8,97.7,0.492
12.06,31746.0,34574.3,-1.0186,-1.0444,137.8,97.7,0.492
12.08,31896.4,34577.4,-0.4184,-1.037,137.8,97.7,0.492
12.1,31767.7,34526.0,-0.9318,-1.1629,137.8,97.7,0.492
12.12,31721.6,34502.6,-1.1158,-1.2203,137.8,97.7,0.492
12.14,31802.8,34431.5,-0.792,-1.3948,137.8,97.7,0.492
12.16,31805.3,34562.0,-0.7818,-1.0746,137.8,97.7,0.492
12.18,32039.2,34929.0,0.1516,-0.1745,137.8,97.7,0.492
12.2,32145.3,35233.4,0.575,0.5724,137.8,97.7,0.492
12.22,32233.1,35610.0,0.9252,1.496,137.8,97.7,0.492
12.24,32343.2,35686.2,1.3646,1.6831,137.8,97.7,0.492
12.26,32319.5,35746.7,1.27,1.8314,137.8,97.7,0.492
12.28,32327.3,35672.6,1.3012,1.6496,137.8,97.7,0.492
12.3,32181.0,35509.4,0.7173,1.2493,137.8,97.7,0.492
12.32,32093.3,35232.2,0.3673,0.5695,137.8,97.7,0.492
12.34,32060.4,35120.5,0.2361,0.2955,137.8,97.7,0.492
12.36,32025.5,35107.4,0.0969,0.2631,137.8,97.7,0.492
12.38,32034.8,35071.8,0.1341,0.1758,137.8,97.7,0.492
12.4,31969.9,34888.9,-0.1251,-0.2727,137.8,97.7,0.492
12.42,31924.1,34891.0,-0.3079,-0.2677,137.8,97.7,0.492
12.44,31844.9,34739.0,-0.6239,-0.6405,137.8,97.7,0.492
12.46,31833.9,34694.3,-0.6677,-0.7501,137.8,97.7,0.492
12.48,31867.7,34601.9,-0.5329,-0.9767,137.8,97.7,0.492
12.5,31817.6,34694.7,-0.7326,-0.7492,137.8,97.7,0.492
12.52,31796.5,34650.7,-0.817,-0.857,137.8,97.7,0.492
12.54,31767.1,34464.9,-0.9345,-1.3129,137.8,97.7,0.492
12.56,31691.0,34470.1,-1.2379,-1.3001,137.8,97.7,0.492
12.58,31723.7,34470.4,-1.1077,-1.2993,137.8,97.7,0.492
12.6,31796.4,34681.9,-0.8174,-0.7804,137.8,97.7,0.492
12.62,31962.7,34878.3,-0.1536,-0.2989,137.8,97.7,0.492
12.64,32127.6,35336.8,0.5043,0.826,137.8,97.7,0.492
12.66,32217.8,35576.5,0.8644,1.4138,137.8,97.7,0.492
12.68,32298.2,35766.8,1.1851,1.8808,137.8,97.7,0.492
12.7,32372.8,35731.0,1.4829,1.793,137.8,97.7,0.492
12.72,32216.8,35562.2,0.8604,1.3788,137.8,97.7,0.492
12.74,32145.4,35237.4,0.5754,0.5821,137.8,97.7,0.492
12.76,31982.7,35225.8,-0.0739,0.5537,137.8,97.7,0.492
12.78,32006.1,35140.4,0.0194,0.3442,137.8,97.7,0.492
12.8,32060.6,35026.4,0.2368,0.0644,137.8,97.7,0.492
12.82,31992.2,35037.4,-0.0361,0.0916,137.8,97.7,0.492
12.84,31965.3,34942.5,-0.1433,-0.1413,137.8,97.7,0.492
12.86,31930.5,34798.3,-0.2822,-0.495,137.8,97.7,0.492
12.88,31872.5,34682.6,-0.5137,-0.7789,137.8,97.7,0.492
12.9,31849.0,34679.7,-0.6077,-0.786,137.8,97.7,0.492
12.92,31792.1,34630.5,-0.8346,-0.9067,137.8,97.7,0.492
12.94,31782.8,34598.2,-0.8718,-0.9859,137.8,97.7,0.492
12.96,31798.5,34518.5,-0.8091,-1.1814,137.8,97.7,0.492
12.98,31835.2,34524.2,-0.6626,-1.1673,137.8,97.7,0.492
13.0,31736.7,34522.6,-1.0557,-1.1713,137.8,97.7,0.492
13.02,31798.5,34592.9,-0.809,-0.9988,137.8,97.7,0.492
13.04,31830.1,34741.1,-0.683,-0.6352,137.8,97.7,0.492
13.06,32009.5,35073.0,0.0332,0.179,137.8,97.7,0.492
13.08,32132.0,35462.7,0.5219,1.1347,137.8,97.7,0.492
13.1,32338.8,35674.7,1.3473,1.6549,137.8,97.7,0.492
13.12,32343.5,35761.3,1.3659,1.8671,137.8,97.7,0.492
13.14,32301.1,35702.1,1.1966,1.7221,137.8,97.7,0.492
13.16,32289.9,35551.8,1.1522,1.3534,137.8,97.7,0.492
13.18,32070.7,35376.7,0.2772,0.9238,137.8,97.7,0.492
13.2,32026.5,35162.3,0.1008,0.3978,137.8,97.7,0.492
13.22,32094.3,35165.0,0.3714,0.4046,137.8,97.7,0.492
13.24,31963.8,35055.9,-0.1492,0.137,137.8,97.7,0.492
13.26,31963.4,34926.8,-0.1509,-0.1797,137.8,97.7,0.492
13.28,32045.8,34909.1,0.1777,-0.2233,137.8,97.7,0.492
13.3,31838.5,34875.8,-0.6496,-0.305,137.8,97.7,0.492
13.32,31860.1,34700.3,-0.5633,-0.7355,137.8,97.7,0.492
13.34,31971.0,34664.2,-0.1208,-0.8239,137.8,97.7,0.492
13.36,31779.0,34620.5,-0.8869,-0.931,137.8,97.7,0.492
13.38,31758.5,34728.5,-0.9688,-0.6662,137.8,97.7,0.492
13.4,31779.3,34475.7,-0.8857,-1.2863,137.8,97.7,0.492
13.42,31730.2,34443.8,-1.0817,-1.3645,137.8,97.7,0.492
13.44,31780.4,34430.9,-0.8812,-1.3963,137.8,97.7,0.492
13.46,31807.5,34557.4,-0.7733,-1.0859,137.8,97.7,0.492
13.48,31815.8,34860.4,-0.7401,-0.3427,137.8,97.7,0.492
13.5,32030.0,35204.0,0.1148,0.5002,137.8,97.7,0.492
13.52,32193.0,35527.4,0.7652,1.2936,137.8,97.7,0.492
13.54,32287.0,35709.3,1.1403,1.7397,137.8,97.7,0.492
13.56,32400.8,35749.9,1.5946,1.8392,137.8,97.7,0.492
13.58,32344.7,35700.8,1.3708,1.7187,137.8,97.7,0.492
13.6,32251.2,35487.3,0.9975,1.1952,137.8,97.7,0.492
13.62,32075.2,35353.1,0.2953,0.8659,137.8,97.7,0.492
13.64,32098.9,35288.2,0.3898,0.7067,137.8,97.7,0.492
13.66,32072.9,35177.9,0.2861,0.4361,137.8,97.7,0.492
13.68,31999.9,35137.4,-0.0054,0.3367,137.8,97.7,0.492
13.7,31971.5,34947.6,-0.1186,-0.1287,137.8,97.7,0.492
13.72,31924.6,34915.3,-0.3056,-0.2079,137.8,97.7,0.492
13.74,31878.6,34716.4,-0.4893,-0.6959,137.8,97.7,0.492
13.76,31912.6,34688.3,-0.3537,-0.7649,137.8,97.7,0.492
13.78,31891.6,34700.4,-0.4374,-0.7352,137.8,97.7,0.492
13.8,31872.7,34614.4,-0.5131,-0.9462,137.8,97.7,0.492
13.82,31772.3,34593.9,-0.9137,-0.9964,137.8,97.7,0.492
13.84,31767.5,34592.7,-0.9328,-0.9993,137.8,97.7,0.492
13.86,31738.7,34426.8,-1.0478,-1.4062,137.8,97.7,0.492
13.88,31737.5,34402.0,-1.0523,-1.4671,137.8,97.7,0.492
13.9,31838.9,34633.2,-0.6478,-0.9001,137.8,97.7,0.492
13.92,31874.6,34854.8,-0.5052,-0.3564,137.8,97.7,0.492
13.94,32166.2,35113.9,0.6584,0.2792,137.8,97.7,0.492
13.96,32249.3,35543.5,0.9899,1.333,137.8,97.7,0.492
13.98,32290.0,35709.1,1.1525,1.7393,137.8,97.7,0.492
14.0,32393.5,35748.1,1.5656,1.8349,137.8,97.7,0.492
14.02,32302.5,35586.9,1.2024,1.4395,137.8,97.7,0.492
14.04,32188.2,35461.7,0.7463,1.1322,137.8,97.7,0.492
14.06,32082.4,35290.1,0.3239,0.7115,137.8,97.7,0.492
14.08,32191.6,35171.8,0.7597,0.4213,137.8,97.7,0.492
14.1,31934.6,35132.4,-0.2657,0.3245,137.8,97.7,0.492
14.12,31951.6,35006.8,-0.1979,0.0165,137.8,97.7,0.492
14.14,32008.7,34976.5,0.0298,-0.0579,137.8,97.7,0.492
14.16,31991.5,34806.7,-0.0388,-0.4743,137.8,97.7,0.492
14.18,31896.3,34738.3,-0.4189,-0.6421,137.8,97.7,0.492
14.2,31888.0,34638.6,-0.4521,-0.8868,137.8,97.7,0.492
14.22,31871.6,34668.8,-0.5172,-0.8126,137.8,97.7,0.492
14.24,31895.5,34611.8,-0.4218,-0.9526,137.8,97.7,0.492
14.26,31793.8,34571.9,-0.8277,-1.0504,137.8,97.7,0.492
14.28,31811.8,34557.0,-0.756,-1.087,137.8,97.7,0.492
14.3,31817.8,34423.4,-0.7319,-1.4146,137.8,97.7,0.492
14.32,31840.7,34519.4,-0.6407,-1.1792,137.8,97.7,0.492
14.34,31938.1,34659.9,-0.2521,-0.8345,137.8,97.7,0.492
14.36,31932.9,34927.9,-0.2727,-0.1771,137.8,97.7,0.492
14.38,32125.5,35218.9,0.496,0.5367,137.8,97.7,0.492
14.4,32400.6,35624.4,1.5937,1.5315,137.8,97.7,0.492
14.42,32309.3,35707.7,1.2293,1.7358,137.8,97.7,0.492
14.44,32243.5,35717.7,0.9668,1.7604,137.8,97.7,0.492
14.46,32209.4,35582.6,0.8308,1.429,137.8,97.7,0.492
14.48,32133.3,35353.5,0.527,0.8669,137.8,97.7,0.492
14.5,32134.9,35153.9,0.5333,0.3772,137.8,97.7,0.492
14.52,32052.0,35151.1,0.2027,0.3703,137.8,97.7,0.492
14.54,32008.5,35036.7,0.029,0.0897,137.8,97.7,0.492
14.56,31925.5,35045.8,-0.3024,0.1122,137.8,97.7,0.492
14.58,32034.2,34893.1,0.1316,-0.2625,137.8,97.7,0.492
14.6,31940.2,34865.3,-0.2437,-0.3306,137.8,97.7,0.492
14.62,31912.5,34674.7,-0.3539,-0.7982,137.8,97.7,0.492
14.64,31768.4,34764.3,-0.9291,-0.5785,137.8,97.7,0.492
14.66,31879.2,34635.0,-0.4871,-0.8955,137.8,97.7,0.492
14.68,31771.8,34598.8,-0.9157,-0.9844,137.8,97.7,0.492
14.7,31893.0,34551.0,-0.4321,-1.1017,137.8,97.7,0.492
14.72,31738.3,34473.4,-1.0493,-1.2919,137.8,97.7,0.492
14.74,31834.9,34486.2,-0.664,-1.2605,137.8,97.7,0.492
14.76,31759.9,34513.2,-0.9632,-1.1945,137.8,97.7,0.492
14.78,31863.2,34571.4,-0.5509,-1.0515,137.8,97.7,0.492
14.8,31992.4,34932.9,-0.0353,-0.1648,137.8,97.7,0.492
14.82,32168.9,35310.0,0.669,0.7602,137.8,97.7,0.492
14.84,32349.8,35701.2,1.3913,1.7199,137.8,97.7,0.492
14.86,32416.4,35787.6,1.6569,1.9318,137.8,97.7,0.492
14.88,32273.8,35750.9,1.0877,1.8419,137.8,97.7,0.492
14.9,32313.6,35573.7,1.2468,1.4072,137.8,97.7,0.492
14.92,32151.1,35329.0,0.598,0.8069,137.8,97.7,0.492
14.94,32142.4,35191.9,0.5634,0.4705,137.8,97.7,0.492
14.96,31981.1,35118.1,-0.0803,0.2895,137.8,97.7,0.492
14.98,31929.7,35048.6,-0.2856,0.1191,137.8,97.7,0.492
15.0,31966.3,35072.0,-0.1396,0.1764,137.8,97.7,0.492
15.02,31975.6,34944.7,-0.1022,-0.1359,137.8,97.7,0.492
15.04,31880.7,34776.9,-0.4808,-0.5475,137.8,97.7,0.492
15.06,31821.2,34707.2,-0.7185,-0.7184,137.8,97.7,0.492
15.08,31889.1,34710.1,-0.4475,-0.7114,137.8,97.7,0.492
15.1,31788.8,34645.7,-0.848,-0.8695,137.8,97.7,0.492
15.12,31911.7,34658.1,-0.3572,-0.8389,137.8,97.7,0.492
15.14,31813.7,34537.5,-0.7483,-1.1347,137.8,97.7,0.492
15.16,31705.4,34408.2,-1.1808,-1.452,137.8,97.7,0.492
15.18,31849.6,34413.4,-0.6053,-1.4392,137.8,97.7,0.492
15.2,31850.7,34552.3,-0.6009,-1.0984,137.8,97.7,0.492
15.22,31958.6,34717.3,-0.1701,-0.6938,137.8,97.7,0.492
15.24,32080.7,35061.8,0.3171,0.1513,137.8,97.7,0.492
15.26,32211.6,35432.3,0.8397,1.0602,137.8,97.7,0.492
15.28,32317.7,35712.7,1.263,1.7481,137.8,97.7,0.492
15.3,32266.7,35783.8,1.0596,1.9225,137.8,97.7,0.492
15.32,32246.9,35751.4,0.9805,1.843,137.8,97.7,0.492
15.34,32270.1,35565.1,1.0728,1.386,137.8,97.7,0.492
15.36,32107.3,35320.8,0.4231,0.7868,137.8,97.7,0.492
15.38,32019.7,35143.4,0.0737,0.3516,137.8,97.7,0.492
15.4,32010.3,35188.2,0.0362,0.4613,137.8,97.7,0.492
15.42,32014.9,35097.5,0.0547,0.2391,137.8,97.7,0.492
15.44,32019.2,34937.6,0.0718,-0.1534,137.8,97.7,0.492
15.46,32029.2,34901.5,0.1114,-0.242,137.8,97.7,0.492
15.48,31911.7,34837.5,-0.3572,-0.399,137.8,97.7,0.492
15.5,31852.2,34696.5,-0.5948,-0.7447,137.8,97.7,0.492
15.52,31935.7,34617.5,-0.2614,-0.9386,137.8,97.7,0.492
15.54,31836.4,34587.9,-0.6578,-1.0111,137.8,97.7,0.492
15.56,31850.0,34721.7,-0.6034,-0.6829,137.8,97.7,0.492
15.58,31914.2,34570.2,-0.3473,-1.0546,137.8,97.7,0.492
15.6,31707.8,34475.9,-1.171,-1.2858,137.8,97.7,0.492
15.62,31815.5,34429.7,-0.7412,-1.3992,137.8,97.7,0.492
15.64,31801.8,34678.6,-0.7959,-0.7887,137.8,97.7,0.492
15.66,31891.5,34792.2,-0.4378,-0.51,137.8,97.7,0.492
15.68,32083.1,35081.3,0.3269,0.1991,137.8,97.7,0.492
15.7,32300.9,35536.6,1.1959,1.3159,137.8,97.7,0.492
15.72,32350.6,35688.7,1.3944,1.6893,137.8,97.7,0.492
15.74,32328.3,35742.5,1.3054,1.8212,137.8,97.7,0.492
15.76,32260.4,35542.8,1.0341,1.3314,137.8,97.7,0.492
15.78,32229.2,35471.1,0.9099,1.1554,137.8,97.7,0.492
15.8,32129.7,35221.0,0.5126,0.5418,137.8,97.7,0.492
15.82,32034.7,35122.3,0.1337,0.2999,137.8,97.7,0.492
15.84,32032.1,35153.5,0.1232,0.3763,137.8,97.7,0.492
15.86,32122.6,35073.4,0.4845,0.1799,137.8,97.7,0.492
15.88,31968.7,34993.1,-0.1297,-0.0173,137.8,97.7,0.492
15.9,31823.1,34865.9,-0.7108,-0.3291,137.8,97.7,0.492
15.92,31945.4,34747.7,-0.2228,-0.6191,137.8,97.7,0.492
15.94,31872.1,34735.9,-0.5153,-0.6481,137.8,97.7,0.492
15.96,31989.5,34673.6,-0.0467,-0.8009,137.8,97.7,0.492
15.98,31872.3,34698.0,-0.5144,-0.7411,137.8,97.7,0.492
16.0,31818.0,34551.5,-0.7313,-1.1003,137.8,97.7,0.492
16.02,31779.2,34522.4,-0.8859,-1.1717,137.8,97.7,0.492
16.04,31736.4,34479.9,-1.057,-1.2759,137.8,97.7,0.492
16.06,31748.4,34423.8,-1.009,-1.4137,137.8,97.7,0.492
16.08,31744.8,34715.7,-1.0235,-0.6976,137.8,97.7,0.492
16.1,31951.9,34918.3,-0.1967,-0.2007,137.8,97.7,0.492
16.12,32115.9,35221.7,0.4576,0.5436,137.8,97.7,0.492
16.14,32201.0,35509.3,0.7971,1.2492,137.8,97.7,0.492
16.16,32304.4,35747.3,1.2098,1.8329,137.8,97.7,0.492
16.18,32398.0,35771.0,1.5833,1.8911,137.8,97.7,0.492
16.2,32190.2,35709.7,0.7543,1.7407,137.8,97.7,0.492
16.22,32181.1,35373.1,0.7177,0.915,137.8,97.7,0.492
16.24,32184.3,35331.9,0.7307,0.8138,137.8,97.7,0.492
16.26,32078.8,35228.0,0.3095,0.5592,137.8,97.7,0.492
16.28,31987.1,35132.4,-0.0563,0.3246,137.8,97.7,0.492
16.3,32055.9,35026.8,0.2181,0.0656,137.8,97.7,0.492
16.32,31919.1,35037.2,-0.3278,0.0911,137.8,97.7,0.492
16.34,31907.6,34840.0,-0.3736,-0.3926,137.8,97.7,0.492
16.36,31920.4,34585.9,-0.3224,-1.0159,137.8,97.7,0.492
16.38,31890.8,34724.4,-0.4407,-0.6763,137.8,97.7,0.492
16.4,31832.6,34675.6,-0.673,-0.7961,137.8,97.7,0.492
16.42,31795.7,34622.4,-0.8203,-0.9265,137.8,97.7,0.492
16.44,31836.1,34582.2,-0.6591,-1.0252,137.8,97.7,0.492
16.46,31803.2,34520.7,-0.7903,-1.1759,137.8,97.7,0.492
16.48,31826.3,34541.7,-0.6983,-1.1245,137.8,97.7,0.492
16.5,31729.3,34477.8,-1.0854,-1.2812,137.8,97.7,0.492
16.52,31825.6,34688.7,-0.7008,-0.7639,137.8,97.7,0.492
16.54,31941.3,34945.7,-0.2392,-0.1333,137.8,97.7,0.492
16.56,32129.7,35258.2,0.5126,0.6332,137.8,97.7,0.492
16.58,32371.6,35616.9,1.4782,1.5131,137.8,97.7,0.492
16.6,32302.3,35730.1,1.2014,1.7907,137.8,97.7,0.492
16.62,32345.7,35685.9,1.3747,1.6822,137.8,97.7,0.492
16.64,32261.9,35555.4,1.0401,1.3621,137.8,97.7,0.492
16.66,32171.5,35366.4,0.6794,0.8985,137.8,97.7,0.492
16.68,32129.6,35301.6,0.5124,0.7395,137.8,97.7,0.492
16.7,32089.5,35189.3,0.3522,0.4642,137.8,97.7,0.492
16.72,32064.7,35068.2,0.2535,0.1671,137.8,97.7,0.492
16.74,31952.1,35046.9,-0.196,0.1148,137.8,97.7,0.492
16.76,31962.7,34968.0,-0.1536,-0.0787,137.8,97.7,0.492
16.78,31912.9,34833.5,-0.3524,-0.4087,137.8,97.7,0.492
16.8,31785.0,34730.9,-0.8629,-0.6603,137.8,97.7,0.492
16.82,31851.2,34555.8,-0.5989,-1.0899,137.8,97.7,0.492
16.84,31844.0,34596.6,-0.6275,-0.9899,137.8,97.7,0.492
16.86,31866.5,34632.5,-0.5376,-0.9017,137.8,97.7,0.492
16.88,31766.4,34573.6,-0.9371,-1.0461,137.8,97.7,0.492
16.9,31816.9,34477.4,-0.7355,-1.2822,137.8,97.7,0.492
16.92,31877.9,34475.4,-0.4921,-1.2872,137.8,97.7,0.492
16.94,31819.8,34561.2,-0.7239,-1.0765,137.8,97.7,0.492
16.96,31847.0,34707.8,-0.6156,-0.7171,137.8,97.7,0.492
16.98,31939.7,34921.9,-0.2455,-0.1918,137.8,97.7,0.492
17.0,32117.2,35429.3,0.4629,1.0527,137.8,97.7,0.492
17.02,32319.7,35699.1,1.271,1.7147,137.8,97.7,0.492
17.04,32353.8,35701.8,1.4071,1.7213,137.8,97.7,0.492
17.06,32291.9,35618.1,1.16,1.5161,137.8,97.7,0.492
17.08,32329.8,35519.9,1.3112,1.275,137.8,97.7,0.492
17.1,32162.8,35315.9,0.6448,0.7748,137.8,97.7,0.492
17.12,32075.4,35148.8,0.2961,0.3649,137.8,97.7,0.492
17.14,32105.9,35076.7,0.4177,0.1879,137.8,97.7,0.492
17.16,31940.2,35097.3,-0.2437,0.2383,137.8,97.7,0.492
17.18,32057.3,34987.1,0.2238,-0.0318,137.8,97.7,0.492
17.2,31983.6,34848.2,-0.0704,-0.3726,137.8,97.7,0.492
17.22,31908.7,34690.7,-0.3693,-0.759,137.8,97.7,0.492
17.24,31888.4,34793.9,-0.4505,-0.5059,137.8,97.7,0.492
17.26,31858.9,34674.9,-0.5682,-0.7976,137.8,97.7,0.492
17.28,31827.8,34635.0,-0.6923,-0.8957,137.8,97.7,0.492
17.3,31766.0,34630.3,-0.9387,-0.9072,137.8,97.7,0.492
17.32,31747.1,34550.4,-1.0142,-1.1032,137.8,97.7,0.492
17.34,31750.6,34458.7,-1.0002,-1.3281,137.8,97.7,0.492
17.36,31805.3,34374.6,-0.7818,-1.5342,137.8,97.7,0.492
17.38,31719.3,34559.5,-1.1252,-1.0808,137.8,97.7,0.492
17.4,31962.2,34855.3,-0.1557,-0.3552,137.8,97.7,0.492
17.42,31979.8,35171.7,-0.0854,0.421,137.8,97.7,0.492
17.44,32290.7,35455.6,1.1551,1.1173,137.8,97.7,0.492
17.46,32240.7,35748.7,0.9558,1.8364,137.8,97.7,0.492
17.48,32328.3,35805.1,1.3052,1.9747,137.8,97.7,0.492
17.5,32316.1,35613.9,1.2565,1.5057,137.8,97.7,0.492
17.52,32280.0,35443.1,1.1126,1.0868,137.8,97.7,0.492
17.54,32137.7,35288.3,0.5445,0.707,137.8,97.7,0.492
17.56,32048.6,35153.6,0.1891,0.3766,137.8,97.7,0.492
17.58,32166.6,35078.9,0.6598,0.1933,137.8,97.7,0.492
17.6,32103.3,35038.2,0.4073,0.0934,137.8,97.7,0.492
17.62,32021.2,35032.6,0.0798,0.0796,137.8,97.7,0.492
17.64,31938.1,34840.5,-0.2518,-0.3916,137.8,97.7,0.492
17.66,31959.5,34765.8,-0.1667,-0.5748,137.8,97.7,0.492
17.68,31878.6,34750.0,-0.4894,-0.6134,137.8,97.7,0.492
17.7,31891.7,34589.7,-0.4369,-1.0068,137.8,97.7,0.492
17.72,31882.5,34598.9,-0.4737,-0.9842,137.8,97.7,0.492
17.74,31839.1,34562.2,-0.647,-1.0742,137.8,97.7,0.492
17.76,31783.0,34546.9,-0.8711,-1.1117,137.8,97.7,0.492
17.78,31773.6,34485.0,-0.9085,-1.2635,137.8,97.7,0.492
17.8,31843.4,34429.8,-0.6298,-1.399,137.8,97.7,0.492
17.82,31837.7,34528.4,-0.6528,-1.1572,137.8,97.7,0.492
17.84,31998.2,34809.4,-0.0122,-0.4678,137.8,97.7,0.492
17.86,32194.7,35271.5,0.7723,0.6658,137.8,97.7,0.492
17.88,32319.7,35482.8,1.2709,1.1841,137.8,97.7,0.492
17.9,32356.7,35803.3,1.4187,1.9702,137.8,97.7,0.492
17.92,32292.7,35743.4,1.1632,1.8233,137.8,97.7,0.492
17.94,32324.1,35639.9,1.2886,1.5696,137.8,97.7,0.492
17.96,32176.7,35356.6,0.7004,0.8745,137.8,97.7,0.492
17.98,32092.5,35349.2,0.3644,0.8564,137.8,97.7,0.492
18.0,32012.4,35184.2,0.0445,0.4517,137.8,97.7,0.492
18.02,32161.9,35213.5,0.6412,0.5236,137.8,97.7,0.492
18.04,31987.3,35026.7,-0.0557,0.0653,137.8,97.7,0.492
18.06,32020.6,35046.8,0.0771,0.1146,137.8,97.7,0.492
18.08,31991.4,34871.8,-0.0391,-0.3148,137.8,97.7,0.492
18.1,31964.0,34673.1,-0.1487,-0.8021,137.8,97.7,0.492
18.12,31876.9,34629.6,-0.4961,-0.9089,137.8,97.7,0.492
18.14,31916.0,34607.2,-0.3399,-0.9637,137.8,97.7,0.492
18.16,31835.5,34558.3,-0.6615,-1.0837,137.8,97.7,0.492
18.18,31864.7,34623.4,-0.5447,-0.9241,137.8,97.7,0.492
18.2,31831.5,34553.6,-0.6775,-1.0952,137.8,97.7,0.492
18.22,31801.8,34437.3,-0.7959,-1.3807,137.8,97.7,0.492
18.24,31756.6,34543.8,-0.9763,-1.1194,137.8,97.7,0.492
18.26,31813.8,34623.9,-0.7481,-0.9227,137.8,97.7,0.492
18.28,31918.3,34874.2,-0.3311,-0.3089,137.8,97.7,0.492
18.3,32128.9,35254.7,0.5097,0.6246,137.8,97.7,0.492
18.32,32327.6,35547.0,1.3024,1.3415,137.8,97.7,0.492
18.34,32372.1,35839.6,1.4799,2.0593,137.8,97.7,0.492
18.36,32371.7,35710.5,1.4785,1.7426,137.8,97.7,0.492
18.38,32310.4,35627.3,1.2339,1.5386,137.8,97.7,0.492
18.4,32192.8,35400.7,0.7647,0.9827,137.8,97.7,0.492
18.42,32162.7,35209.8,0.6445,0.5144,137.8,97.7,0.492
18.44,32046.6,35130.1,0.1811,0.3188,137.8,97.7,0.492
18.46,32087.8,35013.9,0.3457,0.0337,137.8,97.7,0.492
18.48,31992.1,35082.9,-0.0366,0.2031,137.8,97.7,0.492
18.5,31965.2,34921.7,-0.1438,-0.1924,137.8,97.7,0.492
18.52,31933.5,34800.7,-0.2703,-0.489,137.8,97.7,0.492
18.54,31909.2,34708.0,-0.3674,-0.7166,137.8,97.7,0.492
18.56,31886.7,34696.6,-0.4569,-0.7444,137.8,97.7,0.492
18.58,31886.6,34661.3,-0.4575,-0.831,137.8,97.7,0.492
18.6,31916.2,34673.5,-0.3393,-0.8011,137.8,97.7,0.492
18.62,31866.0,34557.6,-0.5399,-1.0853,137.8,97.7,0.492
18.64,31827.6,34567.4,-0.693,-1.0614,137.8,97.7,0.492
18.66,31765.1,34472.8,-0.9422,-1.2935,137.8,97.7,0.492
18.68,31788.6,34450.1,-0.8488,-1.3491,137.8,97.7,0.492
18.7,31858.8,34703.2,-0.5684,-0.7283,137.8,97.7,0.492
18.72,32051.6,35039.2,0.2011,0.096,137.8,97.7,0.492
18.74,32158.6,35404.6,0.628,0.9923,137.8,97.7,0.492
18.76,32283.3,35597.3,1.1256,1.465,137.8,97.7,0.492
18.78,32374.4,35814.8,1.4893,1.9985,137.8,97.7,0.492
18.8,32273.4,35705.1,1.0863,1.7294,137.8,97.7,0.492
18.82,32223.5,35565.8,0.8871,1.3877,137.8,97.7,0.492
18.84,32233.2,35424.2,0.9257,1.0404,137.8,97.7,0.492
18.86,32036.5,35140.3,0.1406,0.3438,137.8,97.7,0.492
18.88,32097.6,35131.2,0.3847,0.3215,137.8,97.7,0.492
18.9,31937.7,35040.2,-0.2534,0.0983,137.8,97.7,0.492
18.92,32110.5,35004.8,0.436,0.0115,137.8,97.7,0.492
18.94,32043.3,34906.3,0.1678,-0.23,137.8,97.7,0.492
18.96,31920.0,34846.3,-0.3243,-0.3771,137.8,97.7,0.492
18.98,31884.6,34739.9,-0.4653,-0.6383,137.8,97.7,0.492
19.0,31849.5,34605.9,-0.6056,-0.9669,137.8,97.7,0.492
19.02,31877.6,34588.1,-0.4934,-1.0106,137.8,97.7,0.492
19.04,31816.8,34607.5,-0.7359,-0.963,137.8,97.7,0.492
19.06,31821.6,34532.5,-0.7167,-1.147,137.8,97.7,0.492
19.08,31708.4,34492.9,-1.1688,-1.2442,137.8,97.7,0.492
19.1,31678.9,34445.3,-1.2862,-1.3609,137.8,97.7,0.492
19.12,31644.7,34552.3,-1.4229,-1.0984,137.8,97.7,0.492
19.14,31822.8,34733.3,-0.7121,-0.6543,137.8,97.7,0.492
19.16,32081.6,34984.1,0.3206,-0.0393,137.8,97.7,0.492
19.18,32148.3,35415.1,0.5868,1.0181,137.8,97.7,0.492
19.2,32340.2,35632.9,1.3526,1.5523,137.8,97.7,0.492
19.22,32372.8,35743.6,1.4828,1.8237,137.8,97.7,0.492
19.24,32308.3,35659.2,1.2256,1.6169,137.8,97.7,0.492
19.26,32220.5,35572.8,0.875,1.4048,137.8,97.7,0.492
19.28,32155.9,35285.6,0.6174,0.7003,137.8,97.7,0.492
19.3,32023.5,35158.3,0.0887,0.3881,137.8,97.7,0.492
19.32,32145.9,35114.3,0.5774,0.2801,137.8,97.7,0.492
19.34,31988.7,35084.0,-0.0498,0.2058,137.8,97.7,0.492
19.36,32099.4,35049.1,0.3916,0.1203,137.8,97.7,0.492
19.38,31890.4,34888.1,-0.4424,-0.2746,137.8,97.7,0.492
19.4,31877.7,34832.5,-0.493,-0.411,137.8,97.7,0.492
19.42,31842.0,34719.3,-0.6353,-0.6889,137.8,97.7,0.492
19.44,31830.4,34718.6,-0.6817,-0.6904,137.8,97.7,0.492
19.46,31852.3,34714.0,-0.5945,-0.7019,137.8,97.7,0.492
19.48,31908.3,34701.7,-0.3708,-0.7319,137.8,97.7,0.492
19.5,31785.8,34502.0,-0.8598,-1.2217,137.8,97.7,0.492
19.52,31687.8,34476.8,-1.2509,-1.2838,137.8,97.7,0.492
19.54,31769.6,34497.8,-0.9244,-1.2322,137.8,97.7,0.492
19.56,31758.4,34579.0,-0.9689,-1.033,137.8,97.7,0.492
19.58,31947.2,34869.8,-0.2156,-0.3197,137.8,97.7,0.492
19.6,32145.6,35196.1,0.5761,0.4809,137.8,97.7,0.492
19.62,32233.7,35582.5,0.9276,1.4286,137.8,97.7,0.492
19.64,32337.2,35724.2,1.3409,1.7762,137.8,97.7,0.492
19.66,32296.8,35821.6,1.1794,2.0151,137.8,97.7,0.492
19.68,32223.6,35713.4,0.8873,1.7497,137.8,97.7,0.492
19.7,32206.0,35449.8,0.8172,1.1032,137.8,97.7,0.492
19.72,32111.8,35214.7,0.4412,0.5264,137.8,97.7,0.492
19.74,32161.1,35103.8,0.6382,0.2543,137.8,97.7,0.492
19.76,32043.1,35208.6,0.1669,0.5114,137.8,97.7,0.492
19.78,32091.7,35049.5,0.3612,0.1211,137.8,97.7,0.492
19.8,31969.9,34952.6,-0.1251,-0.1164,137.8,97.7,0.492
19.82,31987.1,34887.1,-0.0564,-0.2772,137.8,97.7,0.492
19.84,31893.3,34778.1,-0.4306,-0.5447,137.8,97.7,0.492
19.86,31808.5,34779.9,-0.7692,-0.5402,137.8,97.7,0.492
19.88,31818.0,34665.6,-0.7312,-0.8204,137.8,97.7,0.492
19.9,31828.3,34743.7,-0.6903,-0.629,137.8,97.7,0.492
19.92,31825.7,34613.9,-0.7007,-0.9473,137.8,97.7,0.492
19.94,31846.6,34590.6,-0.6171,-1.0046,137.8,97.7,0.492
19.96,31752.8,34385.7,-0.9913,-1.507,137.8,97.7,0.492
19.98,31741.3,34458.7,-1.0373,-1.3281,137.8,97.7,0.492
20.0,31824.1,34644.6,-0.707,-0.8721,137.8,97.7,0.492
20.02,31941.6,34872.7,-0.2381,-0.3125,137.8,97.7,0.492
20.04,32050.3,35242.3,0.1956,0.5942,137.8,97.7,0.492
20.06,32188.9,35517.3,0.7491,1.2688,137.8,97.7,0.492
20.08,32238.7,35688.9,0.9478,1.6897,137.8,97.7,0.492
20.1,32350.0,35766.1,1.3919,1.879,137.8,97.7,0.492
20.12,32282.6,35595.1,1.1228,1.4597,137.8,97.7,0.492
20.14,32193.8,35394.5,0.7686,0.9675,137.8,97.7,0.492
20.16,32030.6,35259.4,0.1174,0.636,137.8,97.7,0.492
20.18,32084.0,35137.4,0.3305,0.3368,137.8,97.7,0.492
20.2,32005.2,35077.4,0.016,0.1896,137.8,97.7,0.492
20.22,32061.3,35039.6,0.2398,0.0968,137.8,97.7,0.492
20.24,31985.8,35003.1,-0.0616,0.0074,137.8,97.7,0.492
20.26,31958.1,34800.0,-0.1719,-0.4909,137.8,97.7,0.492
20.28,31873.2,34809.9,-0.511,-0.4665,137.8,97.7,0.492
20.3,31835.5,34651.4,-0.6614,-0.8553,137.8,97.7,0.492
20.32,31855.6,34676.4,-0.5811,-0.7939,137.8,97.7,0.492
20.34,31899.6,34719.0,-0.4056,-0.6895,137.8,97.7,0.492
20.36,31786.4,34632.2,-0.8575,-0.9024,137.8,97.7,0.492
20.38,31702.9,34441.6,-1.1906,-1.3699,137.8,97.7,0.492
20.4,31804.7,34360.4,-0.7843,-1.5693,137.8,97.7,0.492
20.42,31762.1,34473.1,-0.9544,-1.2927,137.8,97.7,0.492
20.44,31813.9,34596.6,-0.7475,-0.9899,137.8,97.7,0.492
20.46,32092.4,34948.6,0.3638,-0.1263,137.8,97.7,0.492
20.48,32070.8,35344.8,0.2778,0.8456,137.8,97.7,0.492
20.5,32268.0,35618.3,1.0648,1.5164,137.8,97.7,0.492
20.52,32423.3,35675.5,1.6846,1.6567,137.8,97.7,0.492
20.54,32284.8,35743.3,1.1316,1.8232,137.8,97.7,0.492
20.56,32221.6,35513.8,0.8794,1.2601,137.8,97.7,0.492
20.58,32073.6,35382.8,0.2887,0.9389,137.8,97.7,0.492
20.6,32107.9,35205.9,0.4258,0.5049,137.8,97.7,0.492
20.62,32010.1,35170.7,0.0352,0.4186,137.8,97.7,0.492
20.64,31926.3,35021.4,-0.299,0.0522,137.8,97.7,0.492
20.66,31994.2,34987.6,-0.0279,-0.0307,137.8,97.7,0.492
20.68,31875.2,34979.1,-0.5029,-0.0516,137.8,97.7,0.492
20.7,31971.4,34868.0,-0.119,-0.3239,137.8,97.7,0.492
20.72,31907.7,34742.7,-0.3734,-0.6313,137.8,97.7,0.492
20.74,31852.0,34655.8,-0.5957,-0.8445,137.8,97.7,0.492
20.76,31897.9,34719.5,-0.4124,-0.6884,137.8,97.7,0.492
20.78,31840.9,34625.1,-0.6399,-0.9199,137.8,97.7,0.492
20.8,31796.5,34563.4,-0.817,-1.0711,137.8,97.7,0.492
20.82,31821.1,34564.7,-0.7191,-1.0681,137.8,97.7,0.492
20.84,31781.1,34416.3,-0.8787,-1.4321,137.8,97.7,0.492
20.86,31729.0,34569.2,-1.0862,-1.057,137.8,97.7,0.492
20.88,31888.1,34722.7,-0.4514,-0.6805,137.8,97.7,0.492
20.9,32063.6,35047.0,0.2491,0.115,137.8,97.7,0.492
20.92,32183.1,35464.4,0.7257,1.139,137.8,97.7,0.492
20.94,32302.5,35693.2,1.2022,1.7002,137.8,97.7,0.492
20.96,32385.0,35770.0,1.5316,1.8886,137.8,97.7,0.492
20.98,32305.9,35744.8,1.2157,1.8268,137.8,97.7,0.492
21.0,32264.2,35478.5,1.0496,1.1734,137.8,97.7,0.492
21.02,32140.6,35214.2,0.5561,0.5252,137.8,97.7,0.492
21.04,32121.3,35164.7,0.4792,0.4037,137.8,97.7,0.492
21.06,31951.6,34985.5,-0.1979,-0.0358,137.8,97.7,0.492
21.08,32019.9,34952.1,0.0745,-0.1177,137.8,97.7,0.492
21.1,31979.3,34935.2,-0.0877,-0.1591,137.8,97.7,0.492
21.12,31980.8,34872.8,-0.0815,-0.3123,137.8,97.7,0.492
21.14,31956.6,34800.1,-0.1782,-0.4905,137.8,97.7,0.492
21.16,31809.3,34715.4,-0.7661,-0.6985,137.8,97.7,0.492
21.18,31883.1,34690.1,-0.4714,-0.7605,137.8,97.7,0.492
21.2,31929.3,34713.5,-0.2872,-0.7029,137.8,97.7,0.492
21.22,31890.6,34639.3,-0.4414,-0.8851,137.8,97.7,0.492
21.24,31766.0,34558.5,-0.9389,-1.0831,137.8,97.7,0.492
21.26,31777.6,34487.2,-0.8923,-1.2582,137.8,97.7,0.492
21.28,31779.7,34460.4,-0.8839,-1.3239,137.8,97.7,0.492
21.3,31858.6,34610.8,-0.5691,-0.9549,137.8,97.7,0.492
21.32,31948.2,34753.5,-0.2116,-0.6049,137.8,97.7,0.492
21.34,32131.0,35069.4,0.5178,0.17,137.8,97.7,0.492
21.36,32231.2,35456.8,0.9177,1.1202,137.8,97.7,0.492
21.38,32313.3,35744.2,1.2455,1.8253,137.8,97.7,0.492
21.4,32288.3,35789.0,1.1455,1.9351,137.8,97.7,0.492
21.42,32257.0,35625.9,1.0206,1.5351,137.8,97.7,0.492
21.44,32114.7,35503.3,0.453,1.2344,137.8,97.7,0.492
21.46,32177.4,35309.2,0.7029,0.7582,137.8,97.7,0.492
21.48,32049.0,35220.4,0.1905,0.5405,137.8,97.7,0.492
21.5,32163.1,35133.6,0.6461,0.3274,137.8,97.7,0.492
21.52,31967.9,35066.0,-0.1332,0.1616,137.8,97.7,0.492
21.54,32007.6,35040.5,0.0252,0.0991,137.8,97.7,0.492
21.56,31989.7,34825.8,-0.0459,-0.4275,137.8,97.7,0.492
21.58,31806.0,34759.4,-0.7791,-0.5904,137.8,97.7,0.492
21.6,31861.6,34635.8,-0.5572,-0.8937,137.8,97.7,0.492
21.62,31806.9,34720.2,-0.7755,-0.6866,137.8,97.7,0.492
21.64,31892.9,34739.0,-0.4323,-0.6404,137.8,97.7,0.492
21.66,31860.2,34642.1,-0.5629,-0.8781,137.8,97.7,0.492
21.68,31717.9,34565.7,-1.1305,-1.0655,137.8,97.7,0.492
21.7,31777.1,34502.2,-0.8945,-1.2213,137.8,97.7,0.492
21.72,31752.9,34475.6,-0.991,-1.2866,137.8,97.7,0.492
21.74,31807.7,34544.9,-0.7723,-1.1167,137.8,97.7,0.492
21.76,31983.8,34828.1,-0.0696,-0.4219,137.8,97.7,0.492
21.78,32099.0,35192.6,0.3903,0.4722,137.8,97.7,0.492
21.8,32228.2,35567.0,0.9056,1.3907,137.8,97.7,0.492
21.82,32242.9,35759.7,0.9644,1.8633,137.8,97.7,0.492
21.84,32364.1,35817.5,1.4483,2.0051,137.8,97.7,0.492
21.86,32231.1,35563.7,0.9174,1.3826,137.8,97.7,0.492
21.88,32180.6,35450.4,0.7158,1.1045,137.8,97.7,0.492
21.9,32103.6,35259.3,0.4086,0.6358,137.8,97.7,0.492
21.92,32093.3,35211.8,0.3675,0.5193,137.8,97.7,0.492
21.94,32015.1,35141.9,0.0552,0.3479,137.8,97.7,0.492
21.96,32061.4,34970.1,0.2403,-0.0735,137.8,97.7,0.492
21.98,32018.5,34978.5,0.0688,-0.0529,137.8,97.7,0.492
22.0,31888.6,34786.3,-0.4494,-0.5245,137.8,97.7,0.492
22.02,31910.3,34669.6,-0.3628,-0.8108,137.8,97.7,0.492
22.04,31905.5,34622.3,-0.382,-0.9268,137.8,97.7,0.492
22.06,31897.6,34625.9,-0.4137,-0.918,137.8,97.7,0.492
22.08,31854.9,34672.4,-0.5838,-0.8039,137.8,97.7,0.492
22.1,31806.2,34660.9,-0.7782,-0.8321,137.8,97.7,0.492
22.12,31747.3,34472.5,-1.0133,-1.2941,137.8,97.7,0.492
22.14,31695.8,34440.5,-1.219,-1.3726,137.8,97.7,0.492
22.16,31823.2,34412.3,-0.7105,-1.4419,137.8,97.7,0.492
22.18,31895.7,34643.3,-0.4211,-0.8751,137.8,97.7,0.492
22.2,32054.9,34950.1,0.2142,-0.1227,137.8,97.7,0.492
22.22,32164.5,35285.7,0.6516,0.7007,137.8,97.7,0.492
22.24,32329.4,35589.5,1.3098,1.4458,137.8,97.7,0.492
22.26,32345.1,35730.3,1.3721,1.7911,137.8,97.7,0.492
22.28,32327.0,35628.9,1.3002,1.5424,137.8,97.7,0.492
22.3,32364.7,35545.4,1.4505,1.3376,137.8,97.7,0.492
22.32,32045.7,35349.0,0.1776,0.8558,137.8,97.7,0.492
22.34,32053.0,35252.6,0.2064,0.6194,137.8,97.7,0.492
22.36,32056.2,35160.2,0.2195,0.3927,137.8,97.7,0.492
22.38,32033.8,35125.3,0.1299,0.3072,137.8,97.7,0.492
22.4,31947.6,35026.8,-0.2141,0.0654,137.8,97.7,0.492
22.42,31987.9,34957.1,-0.0531,-0.1055,137.8,97.7,0.492
22.44,31959.8,34847.2,-0.1652,-0.3751,137.8,97.7,0.492
22.46,31841.3,34733.3,-0.6382,-0.6544,137.8,97.7,0.492
22.48,31884.7,34724.8,-0.4649,-0.6753,137.8,97.7,0.492
22.5,31865.9,34732.5,-0.5402,-0.6565,137.8,97.7,0.492
22.52,31779.8,34647.4,-0.8837,-0.8652,137.8,97.7,0.492
22.54,31754.3,34571.7,-0.9853,-1.051,137.8,97.7,0.492
22.56,31805.9,34526.7,-0.7796,-1.1612,137.8,97.7,0.492
22.58,31791.7,34457.5,-0.8362,-1.3309,137.8,97.7,0.492
22.6,31784.6,34511.2,-0.8647,-1.1993,137.8,97.7,0.492
22.62,31871.0,34693.4,-0.5199,-0.7523,137.8,97.7,0.492
22.64,31893.5,34975.0,-0.43,-0.0616,137.8,97.7,0.492
22.66,32124.8,35287.4,0.4933,0.7049,137.8,97.7,0.492
22.68,32357.8,35692.1,1.4228,1.6976,137.8,97.7,0.492
22.7,32226.1,35904.8,0.8976,2.2192,137.8,97.7,0.492
22.72,32326.2,35743.1,1.2968,1.8226,137.8,97.7,0.492
22.74,32253.4,35504.9,1.0064,1.2383,137.8,97.7,0.492
22.76,32259.3,35354.4,1.03,0.8692,137.8,97.7,0.492
22.78,32155.2,35164.1,0.6147,0.4022,137.8,97.7,0.492
22.8,32000.4,35054.7,-0.0034,0.134,137.8,97.7,0.492
22.82,31998.2,35078.1,-0.0121,0.1914,137.8,97.7,0.492
22.84,31926.8,34917.5,-0.297,-0.2026,137.8,97.7,0.492
22.86,31971.7,34978.3,-0.1177,-0.0534,137.8,97.7,0.492
22.88,32014.9,34756.2,0.0545,-0.5983,137.8,97.7,0.492
22.9,31854.9,34856.5,-0.584,-0.3524,137.8,97.7,0.492
22.92,31901.8,34744.9,-0.397,-0.626,137.8,97.7,0.492
22.94,31807.4,34641.7,-0.7734,-0.8792,137.8,97.7,0.492
22.96,31876.8,34623.7,-0.4967,-0.9234,137.8,97.7,0.492
22.98,31799.8,34511.6,-0.8038,-1.1982,137.8,97.7,0.492
23.0,31741.3,34545.2,-1.0371,-1.1159,137.8,97.7,0.492
23.02,31706.8,34391.0,-1.1749,-1.4942,137.8,97.7,0.492
23.04,31906.3,34435.2,-0.3789,-1.3857,137.8,97.7,0.492
23.06,31873.9,34788.7,-0.5083,-0.5186,137.8,97.7,0.492
23.08,32035.3,35134.6,0.1358,0.3299,137.8,97.7,0.492
23.1,32211.9,35517.9,0.8409,1.2702,137.8,97.7,0.492
23.12,32292.7,35721.7,1.1633,1.7702,137.8,97.7,0.492
23.14,32401.2,35705.6,1.5962,1.7306,137.8,97.7,0.492
23.16,32249.5,35699.3,0.9908,1.7151,137.8,97.7,0.492
23.18,32229.2,35480.5,0.9096,1.1784,137.8,97.7,0.492
23.2,32117.8,35301.5,0.4651,0.7392,137.8,97.7,0.492
23.22,32074.4,35166.8,0.2919,0.4088,137.8,97.7,0.492
23.24,31997.3,35156.6,-0.0158,0.3839,137.8,97.7,0.492
23.26,31990.3,35003.3,-0.0437,0.0079,137.8,97.7,0.492
23.28,31974.8,34998.5,-0.1054,-0.004,137.8,97.7,0.492
23.3,32023.6,34892.8,0.0892,-0.2632,137.8,97.7,0.492
23.32,31888.3,34824.6,-0.4507,-0.4304,137.8,97.7,0.492
23.34,31881.8,34743.3,-0.4767,-0.6299,137.8,97.7,0.492
23.36,31848.7,34652.2,-0.6087,-0.8535,137.8,97.7,0.492
23.38,31903.6,34606.7,-0.3897,-0.965,137.8,97.7,0.492
23.4,31883.1,34624.9,-0.4714,-0.9204,137.8,97.7,0.492
23.42,31716.7,34626.3,-1.1355,-0.917,137.8,97.7,0.492
23.44,31682.0,34544.8,-1.2739,-1.117,137.8,97.7,0.492
23.46,31758.5,34415.5,-0.9686,-1.4339,137.8,97.7,0.492
23.48,31840.4,34467.9,-0.6419,-1.3055,137.8,97.7,0.492
23.5,31922.3,34775.4,-0.3151,-0.5513,137.8,97.7,0.492
23.52,32050.3,35188.9,0.1957,0.463,137.8,97.7,0.492
23.54,32196.0,35431.5,0.7774,1.0582,137.8,97.7,0.492
23.56,32397.3,35649.1,1.5808,1.5921,137.8,97.7,0.492
23.58,32283.4,35693.9,1.1261,1.7018,137.8,97.7,0.492
23.6,32259.1,35600.2,1.029,1.472,137.8,97.7,0.492
23.62,32233.8,35471.2,0.9282,1.1557,137.8,97.7,0.492
23.64,32095.3,35259.2,0.3755,0.6355,137.8,97.7,0.492
23.66,32150.4,35199.3,0.5953,0.4887,137.8,97.7,0.492
23.68,31999.4,35101.8,-0.0075,0.2495,137.8,97.7,0.492
23.7,32040.2,35024.3,0.1554,0.0594,137.8,97.7,0.492
23.72,32005.9,34926.9,0.0186,-0.1795,137.8,97.7,0.492
23.74,31925.2,34884.9,-0.3035,-0.2826,137.8,97.7,0.492
23.76,31884.0,34740.1,-0.4678,-0.6377,137.8,97.7,0.492
23.78,31886.1,34600.8,-0.4594,-0.9795,137.8,97.7,0.492
23.8,31921.6,34751.5,-0.3178,-0.6098,137.8,97.7,0.492
23.82,31853.3,34651.4,-0.5903,-0.8553,137.8,97.7,0.492
23.84,31805.5,34567.0,-0.7811,-1.0624,137.8,97.7,0.492
23.86,31828.4,34492.8,-0.6899,-1.2444,137.8,97.7,0.492
23.88,31659.7,34372.8,-1.3631,-1.5387,137.8,97.7,0.492
23.9,31696.1,34372.8,-1.2176,-1.5388,137.8,97.7,0.492
23.92,31865.9,34531.7,-0.5401,-1.149,137.8,97.7,0.492
23.94,32075.1,34888.5,0.2947,-0.2737,137.8,97.7,0.492
23.96,31989.6,35276.3,-0.0464,0.6775,137.8,97.7,0.492
23.98,32323.3,35592.3,1.2853,1.4526,137.8,97.7,0.492
24.0,32397.6,35781.6,1.582,1.9171,137.8,97.7,0.492
24.02,32416.9,35704.2,1.6587,1.7272,137.8,97.7,0.492
24.04,32165.5,35482.0,0.6556,1.1822,137.8,97.7,0.492
24.06,32204.7,35360.8,0.8121,0.8848,137.8,97.7,0.492
24.08,32131.9,35230.1,0.5216,0.5642,137.8,97.7,0.492
24.1,32005.5,35157.9,0.017,0.387,137.8,97.7,0.492
24.12,32004.7,35097.8,0.0137,0.2397,137.8,97.7,0.492
24.14,32048.6,35044.7,0.189,0.1094,137.8,97.7,0.492
24.16,31970.3,34910.6,-0.1236,-0.2196,137.8,97.7,0.492
24.18,31875.7,34826.9,-0.501,-0.4249,137.8,97.7,0.492
24.2,31895.9,34769.8,-0.4205,-0.565,137.8,97.7,0.492
24.22,31869.7,34694.0,-0.525,-0.7509,137.8,97.7,0.492
24.24,31802.5,34662.9,-0.7929,-0.827,137.8,97.7,0.492
24.26,31842.1,34740.5,-0.6352,-0.6369,137.8,97.7,0.492
24.28,31763.9,34632.6,-0.9473,-0.9015,137.8,97.7,0.492
24.3,31852.7,34532.4,-0.5929,-1.1474,137.8,97.7,0.492
24.32,31797.8,34514.3,-0.8117,-1.1916,137.8,97.7,0.492
24.34,31791.2,34492.7,-0.8383,-1.2446,137.8,97.7,0.492
24.36,31857.1,34711.9,-0.5753,-0.7069,137.8,97.7,0.492
24.38,31995.8,34951.3,-0.0217,-0.1198,137.8,97.7,0.492
24.4,32202.0,35324.8,0.8011,0.7964,137.8,97.7,0.492
24.42,32301.1,35654.7,1.1969,1.6056,137.8,97.7,0.492
24.44,32319.4,35777.4,1.2696,1.9066,137.8,97.7,0.492
24.46,32263.6,35730.3,1.0469,1.7913,137.8,97.7,0.492
24.48,32247.6,35525.7,0.9834,1.2893,137.8,97.7,0.492
24.5,32168.5,35341.7,0.6674,0.838,137.8,97.7,0.492
24.52,32124.4,35265.7,0.4915,0.6515,137.8,97.7,0.492
24.54,32007.8,35082.5,0.0261,0.2021,137.8,97.7,0.492
24.56,32007.9,35121.7,0.0266,0.2983,137.8,97.7,0.492
24.58,31944.6,35049.2,-0.2259,0.1204,137.8,97.7,0.492
24.6,31978.3,34903.8,-0.0914,-0.2362,137.8,97.7,0.492
24.62,31914.6,34847.6,-0.3455,-0.374,137.8,97.7,0.492
24.64,31881.9,34788.2,-0.4763,-0.5199,137.8,97.7,0.492
24.66,31945.1,34723.0,-0.224,-0.6796,137.8,97.7,0.492
24.68,31921.9,34676.1,-0.3165,-0.7947,137.8,97.7,0.492
24.7,31834.0,34676.3,-0.6676,-0.7943,137.8,97.7,0.492
24.72,31778.7,34533.3,-0.888,-1.1452,137.8,97.7,0.492
24.74,31745.7,34498.4,-1.0197,-1.2306,137.8,97.7,0.492
24.76,31785.8,34383.3,-0.8599,-1.513,137.8,97.7,0.492
24.78,31772.6,34482.8,-0.9126,-1.2689,137.8,97.7,0.492
24.8,31840.7,34751.5,-0.6405,-0.6099,137.8,97.7,0.492
24.82,32061.9,35092.4,0.2422,0.2263,137.8,97.7,0.492
24.84,32110.2,35320.6,0.4347,0.7862,137.8,97.7,0.492
24.86,32241.1,35592.5,0.9572,1.4532,137.8,97.7,0.492
24.88,32241.3,35785.1,0.9581,1.9257,137.8,97.7,0.492
24.9,32274.7,35617.4,1.0913,1.5143,137.8,97.7,0.492
24.92,32255.7,35531.3,1.0157,1.303,137.8,97.7,0.492
24.94,32179.2,35308.3,0.7102,0.756,137.8,97.7,0.492
24.96,32002.3,35180.7,0.0044,0.4431,137.8,97.7,0.492
24.98,32097.6,35137.5,0.3844,0.337,137.8,97.7,0.492
25.0,31952.7,35067.0,-0.1936,0.164,137.8,97.7,0.492
25.02,31965.6,35136.1,-0.1423,0.3336,137.8,97.7,0.492
25.04,31951.2,34859.9,-0.1998,-0.3439,137.8,97.7,0.492
25.06,31969.0,34805.6,-0.1286,-0.4771,137.8,97.7,0.492
25.08,31884.1,34775.4,-0.4673,-0.5513,137.8,97.7,0.492
25.1,31911.6,34664.7,-0.3576,-0.8227,137.8,97.7,0.492
25.12,31838.3,34652.0,-0.6501,-0.8539,137.8,97.7,0.492
25.14,31825.9,34631.4,-0.6998,-0.9045,137.8,97.7,0.492
25.16,31754.3,34560.3,-0.9854,-1.0788,137.8,97.7,0.492
25.18,31846.1,34481.6,-0.6193,-1.2719,137.8,97.7,0.492
25.2,31767.6,34428.8,-0.9325,-1.4014,137.8,97.7,0.492
25.22,31800.1,34503.9,-0.8028,-1.2173,137.8,97.7,0.492
25.24,31851.6,34789.3,-0.597,-0.5172,137.8,97.7,0.492
25.26,31965.5,35202.8,-0.1426,0.4973,137.8,97.7,0.492
25.28,32181.1,35482.1,0.718,1.1823,137.8,97.7,0.492
25.3,32300.9,35701.9,1.196,1.7215,137.8,97.7,0.492
25.32,32369.1,35769.0,1.4682,1.8862,137.8,97.7,0.492
25.34,32327.9,35589.6,1.3038,1.4462,137.8,97.7,0.492
25.36,32339.3,35496.6,1.3492,1.2179,137.8,97.7,0.492
25.38,32108.4,35332.0,0.4278,0.8141,137.8,97.7,0.492
25.4,32054.8,35106.3,0.2138,0.2605,137.8,97.7,0.492
25.42,32007.0,35131.6,0.0229,0.3226,137.8,97.7,0.492
25.44,31985.3,35029.9,-0.0635,0.073,137.8,97.7,0.492
25.46,32070.0,35022.7,0.2744,0.0553,137.8,97.7,0.492
25.48,31982.3,34982.2,-0.0754,-0.0439,137.8,97.7,0.492
25.5,31915.4,34838.0,-0.3426,-0.3977,137.8,97.7,0.492
25.52,31927.0,34653.9,-0.2961,-0.8493,137.8,97.7,0.492
25.54,31863.1,34677.9,-0.5512,-0.7902,137.8,97.7,0.492
25.56,31858.2,34763.8,-0.5708,-0.5796,137.8,97.7,0.492
25.58,31824.0,34559.8,-0.7073,-1.0801,137.8,97.7,0.492
25.6,31814.4,34610.4,-0.7457,-0.9559,137.8,97.7,0.492
25.62,31749.3,34522.9,-1.0055,-1.1706,137.8,97.7,0.492
25.64,31738.9,34429.4,-1.047,-1.4,137.8,97.7,0.492
25.66,31824.3,34541.2,-0.706,-1.1257,137.8,97.7,0.492
25.68,31939.0,34757.8,-0.2485,-0.5943,137.8,97.7,0.492
25.7,32122.5,35223.7,0.4838,0.5486,137.8,97.7,0.492
25.72,32277.8,35537.8,1.1038,1.3191,137.8,97.7,0.492
25.74,32314.5,35652.4,1.2503,1.6002,137.8,97.7,0.492
25.76,32323.2,35756.5,1.2848,1.8555,137.8,97.7,0.492
25.78,32226.6,35590.1,0.8993,1.4473,137.8,97.7,0.492
25.8,32144.6,35288.3,0.572,0.7071,137.8,97.7,0.492
25.82,32148.0,35252.6,0.5858,0.6194,137.8,97.7,0.492
25.84,32072.3,35187.3,0.2835,0.4592,137.8,97.7,0.492
25.86,32041.1,35123.4,0.1592,0.3024,137.8,97.7,0.492
25.88,32023.5,35023.2,0.0888,0.0568,137.8,97.7,0.492
25.9,32001.4,35004.7,0.0007,0.0114,137.8,97.7,0.492
25.92,31908.7,34908.3,-0.3694,-0.2251,137.8,97.7,0.492
25.94,31861.6,34741.7,-0.5574,-0.6338,137.8,97.7,0.492
25.96,31848.3,34690.6,-0.6102,-0.7592,137.8,97.7,0.492
25.98,31808.7,34719.6,-0.7684,-0.6882,137.8,97.7,0.492
26.0,31781.2,34702.9,-0.8783,-0.7291,137.8,97.7,0.492
26.02,31760.2,34671.2,-0.9617,-0.8069,137.8,97.7,0.492
26.04,31721.4,34585.5,-1.1167,-1.0171,137.8,97.7,0.492
26.06,31768.4,34455.4,-0.9292,-1.3363,137.8,97.7,0.492
26.08,31792.2,34438.0,-0.8342,-1.3787,137.8,97.7,0.492
26.1,31824.7,34679.0,-0.7045,-0.7876,137.8,97.7,0.492
26.12,31874.6,35001.9,-0.5054,0.0045,137.8,97.7,0.492
26.14,32102.6,35316.2,0.4045,0.7754,137.8,97.7,0.492
26.16,32253.5,35577.9,1.0067,1.4174,137.8,97.7,0.492
26.18,32343.3,35932.8,1.3653,2.2879,137.8,97.7,0.492
26.2,32352.6,35774.0,1.4023,1.8985,137.8,97.7,0.492
26.22,32278.4,35437.7,1.1061,1.0734,137.8,97.7,0.492
26.24,32151.7,35344.5,0.6004,0.8449,137.8,97.7,0.492
26.26,32116.2,35183.7,0.4588,0.4503,137.8,97.7,0.492
26.28,32052.9,35208.5,0.206,0.5112,137.8,97.7,0.492
26.3,32003.9,35037.7,0.0105,0.0922,137.8,97.7,0.492
26.32,32005.5,34921.5,0.0169,-0.1929,137.8,97.7,0.492
26.34,32083.0,34883.8,0.3262,-0.2853,137.8,97.7,0.492
26.36,31864.4,34785.0,-0.5459,-0.5276,137.8,97.7,0.492
26.38,31891.1,34700.8,-0.4395,-0.7341,137.8,97.7,0.492
26.4,31795.3,34772.8,-0.822,-0.5575,137.8,97.7,0.492
26.42,31827.9,34662.7,-0.6919,-0.8277,137.8,97.7,0.492
26.44,31916.2,34651.4,-0.3394,-0.8553,137.8,97.7,0.492
26.46,31739.3,34611.4,-1.0454,-0.9534,137.8,97.7,0.492
26.48,31794.9,34543.0,-0.8233,-1.1213,137.8,97.7,0.492
26.5,31731.3,34448.1,-1.0774,-1.354,137.8,97.7,0.492
26.52,31857.1,34497.4,-0.5752,-1.2332,137.8,97.7,0.492
26.54,31799.0,34604.2,-0.8071,-0.9711,137.8,97.7,0.492
26.56,31942.6,34982.9,-0.2341,-0.0421,137.8,97.7,0.492
26.58,32133.1,35264.3,0.5262,0.6481,137.8,97.7,0.492
26.6,32334.9,35696.3,1.3315,1.7078,137.8,97.7,0.492
26.62,32293.8,35804.0,1.1676,1.9719,137.8,97.7,0.492
26.64,32240.8,35583.7,0.9563,1.4316,137.8,97.7,0.492
26.66,32184.7,35516.2,0.7321,1.2661,137.8,97.7,0.492
26.68,32038.2,35346.2,0.1475,0.849,137.8,97.7,0.492
26.7,32065.0,35216.1,0.2547,0.5297,137.8,97.7,0.492
26.72,32173.1,35045.3,0.6857,0.1108,137.8,97.7,0.492
26.74,32078.6,35022.2,0.3089,0.0542,137.8,97.7,0.492
26.76,32008.0,35045.8,0.027,0.1121,137.8,97.7,0.492
26.78,31989.7,34879.1,-0.0459,-0.2968,137.8,97.7,0.492
26.8,31868.8,34799.5,-0.5283,-0.492,137.8,97.7,0.492
26.82,31871.1,34679.4,-0.5195,-0.7868,137.8,97.7,0.492
26.84,31787.4,34680.2,-0.8532,-0.7847,137.8,97.7,0.492
26.86,31800.9,34680.1,-0.7995,-0.7849,137.8,97.7,0.492
26.88,31839.6,34591.0,-0.6449,-1.0034,137.8,97.7,0.492
26.9,31842.3,34588.5,-0.6343,-1.0097,137.8,97.7,0.492
26.92,31765.3,34479.2,-0.9416,-1.2778,137.8,97.7,0.492
26.94,31743.0,34395.2,-1.0305,-1.4838,137.8,97.7,0.492
26.96,31864.4,34566.7,-0.5459,-1.0631,137.8,97.7,0.492
26.98,31937.3,34749.4,-0.2553,-0.6151,137.8,97.7,0.492
27.0,31964.7,35084.0,-0.1457,0.2059,137.8,97.7,0.492
27.02,32192.4,35452.4,0.7631,1.1095,137.8,97.7,0.492
27.04,32222.4,35753.4,0.8825,1.8479,137.8,97.7,0.492
27.06,32453.8,35746.9,1.8062,1.832,137.8,97.7,0.492
27.08,32332.2,35730.5,1.3209,1.7918,137.8,97.7,0.492
27.1,32199.3,35488.5,0.7906,1.198,137.8,97.7,0.492
27.12,32104.5,35307.6,0.4121,0.7543,137.8,97.7,0.492
27.14,32048.2,35179.5,0.1874,0.4402,137.8,97.7,0.492
27.16,31944.1,35163.2,-0.2278,0.4001,137.8,97.7,0.492
27.18,32048.9,35031.1,0.1902,0.076,137.8,97.7,0.492
27.2,32008.3,34975.8,0.028,-0.0597,137.8,97.7,0.492
27.22,32030.5,34884.1,0.117,-0.2845,137.8,97.7,0.492
27.24,31869.8,34704.0,-0.5247,-0.7264,137.8,97.7,0.492
27.26,31920.5,34659.3,-0.3221,-0.8361,137.8,97.7,0.492
27.28,31849.9,34665.2,-0.6038,-0.8215,137.8,97.7,0.492
27.3,31783.2,34685.8,-0.8702,-0.771,137.8,97.7,0.492
27.32,31974.8,34686.1,-0.1053,-0.7701,137.8,97.7,0.492
27.34,31787.8,34545.7,-0.8517,-1.1148,137.8,97.7,0.492
27.36,31756.7,34473.3,-0.9761,-1.2922,137.8,97.7,0.492
27.38,31779.0,34441.4,-0.8869,-1.3704,137.8,97.7,0.492
27.4,31793.4,34583.4,-0.8294,-1.0221,137.8,97.7,0.492
27.42,32016.5,34843.9,0.0611,-0.3832,137.8,97.7,0.492
27.44,32109.7,35203.8,0.4331,0.4998,137.8,97.7,0.492
27.46,32253.9,35598.5,1.0085,1.4679,137.8,97.7,0.492
27.48,32354.4,35746.8,1.4093,1.8316,137.8,97.7,0.492
27.5,32386.1,35779.1,1.536,1.9108,137.8,97.7,0.492
27.52,32289.4,35623.9,1.1499,1.5302,137.8,97.7,0.492
27.54,32204.7,35381.4,0.8119,0.9353,137.8,97.7,0.492
27.56,32139.4,35181.3,0.5512,0.4444,137.8,97.7,0.492
27.58,32085.7,35104.3,0.3372,0.2557,137.8,97.7,0.492
27.6,31957.6,35086.1,-0.1741,0.2109,137.8,97.7,0.492
27.62,32014.5,35052.4,0.053,0.1284,137.8,97.7,0.492
27.64,32048.8,34970.7,0.1898,-0.072,137.8,97.7,0.492
27.66,31966.8,34969.2,-0.1375,-0.0757,137.8,97.7,0.492
27.68,31851.7,34770.0,-0.5967,-0.5645,137.8,97.7,0.492
27.7,31783.5,34657.1,-0.869,-0.8415,137.8,97.7,0.492
27.72,31856.2,34588.3,-0.5786,-1.0102,137.8,97.7,0.492
27.74,31874.6,34629.2,-0.5052,-0.9098,137.8,97.7,0.492
27.76,31864.3,34623.5,-0.5464,-0.9239,137.8,97.7,0.492
27.78,31871.0,34529.0,-0.5198,-1.1557,137.8,97.7,0.492
27.8,31717.1,34520.2,-1.1339,-1.1772,137.8,97.7,0.492
27.82,31756.4,34525.7,-0.9773,-1.1636,137.8,97.7,0.492
27.84,31912.1,34578.5,-0.3556,-1.0342,137.8,97.7,0.492
27.86,31874.8,34915.7,-0.5045,-0.2071,137.8,97.7,0.492
27.88,32171.5,35244.7,0.6795,0.6,137.8,97.7,0.492
27.9,32346.5,35595.3,1.3779,1.4601,137.8,97.7,0.492
27.92,32288.7,35769.5,1.1473,1.8875,137.8,97.7,0.492
27.94,32309.1,35736.9,1.2286,1.8074,137.8,97.7,0.492
27.96,32260.3,35534.7,1.0339,1.3114,137.8,97.7,0.492
27.98,32144.5,35311.6,0.5718,0.7642,137.8,97.7,0.492
28.0,32140.1,35212.7,0.5544,0.5214,137.8,97.7,0.492
28.02,32095.5,35110.2,0.3762,0.27,137.8,97.7,0.492
28.04,32066.5,34980.4,0.2604,-0.0483,137.8,97.7,0.492
28.06,32092.0,35087.9,0.3622,0.2153,137.8,97.7,0.492
28.08,31989.0,34979.6,-0.0489,-0.0503,137.8,97.7,0.492
28.1,31825.4,34839.3,-0.7016,-0.3945,137.8,97.7,0.492
28.12,31860.1,34742.5,-0.5631,-0.632,137.8,97.7,0.492
28.14,31794.9,34674.0,-0.8233,-0.8,137.8,97.7,0.492
28.16,31941.5,34642.2,-0.2385,-0.878,137.8,97.7,0.492
28.18,31850.6,34679.5,-0.6012,-0.7864,137.8,97.7,0.492
28.2,31828.2,34488.9,-0.6906,-1.2539,137.8,97.7,0.492
28.22,31845.8,34546.4,-0.6204,-1.113,137.8,97.7,0.492
28.24,31789.8,34511.7,-0.8438,-1.1979,137.8,97.7,0.492
28.26,31783.1,34589.1,-0.8706,-1.0082,137.8,97.7,0.492
28.28,31838.9,34687.9,-0.648,-0.7659,137.8,97.7,0.492
28.3,31926.0,34999.8,-0.3003,-0.0008,137.8,97.7,0.492
28.32,32259.1,35332.7,1.029,0.8158,137.8,97.7,0.492
28.34,32339.7,35707.8,1.3506,1.736,137.8,97.7,0.492
28.36,32293.7,35714.8,1.1672,1.7532,137.8,97.7,0.492
28.38,32364.0,35659.3,1.4478,1.6171,137.8,97.7,0.492
28.4,32317.0,35512.3,1.2604,1.2564,137.8,97.7,0.492
28.42,32117.8,35311.4,0.4652,0.7636,137.8,97.7,0.492
28.44,32112.6,35295.5,0.4444,0.7245,137.8,97.7,0.492
28.46,32053.9,35203.2,0.2101,0.4982,137.8,97.7,0.492
28.48,31943.4,35112.9,-0.2306,0.2768,137.8,97.7,0.492
28.5,32074.1,35081.1,0.2908,0.1988,137.8,97.7,0.492
28.52,31848.3,34973.1,-0.6102,-0.0662,137.8,97.7,0.492
28.54,31946.3,34804.1,-0.2192,-0.4807,137.8,97.7,0.492
28.56,31853.3,34698.5,-0.5904,-0.7399,137.8,97.7,0.492
28.58,31750.0,34584.6,-1.0026,-1.0192,137.8,97.7,0.492
28.6,31874.3,34632.2,-0.5067,-0.9023,137.8,97.7,0.492
28.62,31837.9,34602.1,-0.6516,-0.9763,137.8,97.7,0.492
28.64,31780.0,34648.6,-0.8828,-0.8622,137.8,97.7,0.492
28.66,31753.6,34562.5,-0.9882,-1.0735,137.8,97.7,0.492
28.68,31723.3,34513.1,-1.1093,-1.1946,137.8,97.7,0.492
28.7,31831.1,34493.5,-0.6788,-1.2428,137.8,97.7,0.492
28.72,31895.5,34692.3,-0.4219,-0.7551,137.8,97.7,0.492
28.74,31989.2,35095.2,-0.0479,0.2334,137.8,97.7,0.492
28.76,32136.1,35451.7,0.5384,1.1077,137.8,97.7,0.492
28.78,32311.6,35645.0,1.2387,1.582,137.8,97.7,0.492
28.8,32324.9,35720.4,1.2917,1.7668,137.8,97.7,0.492
28.82,32357.9,35820.8,1.4233,2.0132,137.8,97.7,0.492
28.84,32282.8,35573.3,1.1239,1.406,137.8,97.7,0.492
28.86,32162.4,35354.1,0.6431,0.8684,137.8,97.7,0.492
28.88,32073.2,35217.8,0.2873,0.534,137.8,97.7,0.492
28.9,32082.9,35029.6,0.3258,0.0723,137.8,97.7,0.492
28.92,31992.1,35082.3,-0.0365,0.2015,137.8,97.7,0.492
28.94,31955.6,34993.8,-0.1821,-0.0155,137.8,97.7,0.492
28.96,31972.1,34933.7,-0.1162,-0.1629,137.8,97.7,0.492
28.98,31950.6,34819.6,-0.202,-0.4429,137.8,97.7,0.492
29.0,31848.4,34761.1,-0.6099,-0.5863,137.8,97.7,0.492
29.02,31842.4,34708.3,-0.634,-0.7159,137.8,97.7,0.492
29.04,31796.3,34660.1,-0.8178,-0.8339,137.8,97.7,0.492
29.06,31911.0,34566.2,-0.3601,-1.0644,137.8,97.7,0.492
29.08,31844.5,34578.3,-0.6255,-1.0346,137.8,97.7,0.492
29.1,31805.1,34517.6,-0.7826,-1.1836,137.8,97.7,0.492
29.12,31710.1,34429.6,-1.1619,-1.3993,137.8,97.7,0.492
29.14,31761.6,34516.6,-0.9563,-1.1859,137.8,97.7,0.492
29.16,31991.5,34710.6,-0.039,-0.71,137.8,97.7,0.492
29.18,32016.8,35131.7,0.0623,0.3229,137.8,97.7,0.492
29.2,32201.2,35575.3,0.7979,1.4109,137.8,97.7,0.492
29.22,32299.5,35714.4,1.1904,1.7523,137.8,97.7,0.492
29.24,32410.5,35745.0,1.6332,1.8274,137.8,97.7,0.492
29.26,32273.0,35528.0,1.0845,1.2951,137.8,97.7,0.492
29.28,32195.4,35443.8,0.775,1.0885,137.8,97.7,0.492
29.3,32083.1,35213.1,0.3269,0.5224,137.8,97.7,0.492
29.32,32061.0,35132.0,0.2386,0.3237,137.8,97.7,0.492
29.34,32085.7,35145.9,0.3369,0.3576,137.8,97.7,0.492
29.36,31995.2,35012.6,-0.024,0.0307,137.8,97.7,0.492
29.38,32020.3,34946.0,0.0761,-0.1326,137.8,97.7,0.492
29.4,31869.5,34877.1,-0.5258,-0.3018,137.8,97.7,0.492
29.42,31835.5,34759.5,-0.6615,-0.5901,137.8,97.7,0.492
29.44,31880.1,34746.9,-0.4835,-0.621,137.8,97.7,0.492
29.46,31878.5,34672.7,-0.4898,-0.8031,137.8,97.7,0.492
29.48,31947.5,34689.7,-0.2144,-0.7614,137.8,97.7,0.492
29.5,31837.7,34582.8,-0.6527,-1.0236,137.8,97.7,0.492
29.52,31733.9,34467.0,-1.0669,-1.3078,137.8,97.7,0.492
29.54,31743.0,34376.6,-1.0305,-1.5295,137.8,97.7,0.492
29.56,31776.0,34466.3,-0.8989,-1.3093,137.8,97.7,0.492
29.58,31758.2,34628.4,-0.9697,-0.9117,137.8,97.7,0.492
29.6,32036.8,34957.1,0.1419,-0.1055,137.8,97.7,0.492
29.62,32053.3,35209.6,0.2076,0.5139,137.8,97.7,0.492
29.64,32199.9,35500.9,0.7927,1.2285,137.8,97.7,0.492
29.66,32287.9,35733.8,1.1439,1.7997,137.8,97.7,0.492
29.68,32377.3,35746.0,1.501,1.8297,137.8,97.7,0.492
29.7,32360.1,35674.1,1.4322,1.6534,137.8,97.7,0.492
29.72,32240.7,35420.2,0.9555,1.0305,137.8,97.7,0.492
29.74,32118.9,35238.8,0.4695,0.5856,137.8,97.7,0.492
29.76,32112.0,35109.8,0.4421,0.2692,137.8,97.7,0.492
29.78,32060.7,35153.7,0.2375,0.3769,137.8,97.7,0.492
29.8,31957.5,35056.0,-0.1746,0.1372,137.8,97.7,0.492
29.82,32063.3,35003.6,0.2477,0.0086,137.8,97.7,0.492
29.84,31798.4,34818.0,-0.8096,-0.4466,137.8,97.7,0.492
29.86,31903.7,34751.7,-0.3891,-0.6094,137.8,97.7,0.492
29.88,31912.6,34673.9,-0.3536,-0.8003,137.8,97.7,0.492
29.9,31876.8,34711.2,-0.4966,-0.7086,137.8,97.7,0.492
29.92,31854.1,34658.5,-0.5872,-0.8379,137.8,97.7,0.492
29.94,31901.7,34621.0,-0.3972,-0.9299,137.8,97.7,0.492
29.96,31840.1,34481.6,-0.6431,-1.272,137.8,97.7,0.492
29.98,31762.0,34491.1,-0.9546,-1.2485,137.8,97.7,0.492
30.0,31823.6,34473.3,-0.7091,-1.2922,137.8,97.7,0.492
30.02,31776.7,34666.4,-0.8961,-0.8186,137.8,97.7,0.492
30.04,31965.8,34974.9,-0.1412,-0.0618,137.8,97.7,0.492
30.06,32120.6,35317.2,0.4763,0.7779,137.8,97.7,0.492
30.08,32332.8,35570.4,1.3233,1.3991,137.8,97.7,0.492
30.1,32342.9,35685.4,1.3637,1.681,137.8,97.7,0.492
30.12,32285.6,35741.3,1.1349,1.8182,137.8,97.7,0.492
30.14,32264.1,35587.4,1.0492,1.4406,137.8,97.7,0.492
30.16,32236.6,35423.0,0.9395,1.0374,137.8,97.7,0.492
30.18,32135.5,35216.6,0.536,0.531,137.8,97.7,0.492
30.2,32058.7,35101.0,0.2293,0.2476,137.8,97.7,0.492
30.22,32025.2,35086.1,0.0958,0.2109,137.8,97.7,0.492
30.24,32084.8,34991.4,0.3336,-0.0213,137.8,97.7,0.492
30.26,31886.3,34942.9,-0.4588,-0.1402,137.8,97.7,0.492
30.28,31986.6,34857.0,-0.0582,-0.3509,137.8,97.7,0.492
30.3,31890.8,34637.5,-0.4408,-0.8894,137.8,97.7,0.492
30.32,31870.2,34700.1,-0.5229,-0.7359,137.8,97.7,0.492
30.34,31845.7,34611.0,-0.6208,-0.9544,137.8,97.7,0.492
30.36,31890.6,34631.1,-0.4415,-0.905,137.8,97.7,0.492
30.38,31843.5,34615.7,-0.6296,-0.9429,137.8,97.7,0.492
30.4,31812.0,34497.1,-0.7554,-1.2338,137.8,97.7,0.492
30.42,31656.4,34486.4,-1.376,-1.2602,137.8,97.7,0.492
30.44,31795.3,34510.7,-0.8217,-1.2005,137.8,97.7,0.492
30.46,31875.5,34642.7,-0.5016,-0.8767,137.8,97.7,0.492
30.48,32046.5,35062.1,0.1806,0.1521,137.8,97.7,0.492
30.5,32207.3,35361.8,0.8226,0.8872,137.8,97.7,0.492
30.52,32353.4,35643.9,1.4054,1.5792,137.8,97.7,0.492
30.54,32243.7,35635.5,0.9675,1.5587,137.8,97.7,0.492
30.56,32395.8,35629.8,1.5745,1.5446,137.8,97.7,0.492
30.58,32201.1,35412.4,0.7977,1.0115,137.8,97.7,0.492
30.6,32113.6,35296.9,0.4486,0.7281,137.8,97.7,0.492
30.62,31996.0,35134.9,-0.021,0.3306,137.8,97.7,0.492
30.64,32087.6,35144.4,0.3447,0.3539,137.8,97.7,0.492
30.66,32047.7,35140.4,0.1854,0.3441,137.8,97.7,0.492
30.68,32010.6,35068.8,0.0374,0.1686,137.8,97.7,0.492
30.7,31944.2,34956.5,-0.2275,-0.107,137.8,97.7,0.492
30.72,31959.9,34859.1,-0.165,-0.346,137.8,97.7,0.492
30.74,31869.9,34713.5,-0.5243,-0.703,137.8,97.7,0.492
30.76,31753.3,34691.4,-0.9894,-0.7572,137.8,97.7,0.492
30.78,31870.3,34612.0,-0.5226,-0.9521,137.8,97.7,0.492
30.8,31841.9,34580.1,-0.6357,-1.0303,137.8,97.7,0.492
30.82,31774.9,34614.9,-0.9032,-0.9449,137.8,97.7,0.492
30.84,31821.7,34494.8,-0.7163,-1.2396,137.8,97.7,0.492
30.86,31769.9,34484.7,-0.9234,-1.2643,137.8,97.7,0.492
30.88,31771.5,34542.2,-0.9169,-1.1233,137.8,97.7,0.492
30.9,31905.2,34826.4,-0.3834,-0.4261,137.8,97.7,0.492
30.92,31999.7,35194.4,-0.0063,0.4767,137.8,97.7,0.492
30.94,32257.6,35445.3,1.023,1.0922,137.8,97.7,0.492
30.96,32257.3,35694.2,1.0221,1.7026,137.8,97.7,0.492
30.98,32377.1,35849.2,1.5,2.0829,137.8,97.7,0.492
31.0,32462.4,35647.9,1.8405,1.5891,137.8,97.7,0.492
31.02,32117.4,35539.2,0.4635,1.3223,137.8,97.7,0.492
31.04,32210.1,35320.9,0.8335,0.787,137.8,97.7,0.492
31.06,32087.0,35116.5,0.3423,0.2856,137.8,97.7,0.492
31.08,32115.1,35128.6,0.4544,0.3153,137.8,97.7,0.492
31.1,31990.8,35064.9,-0.0415,0.159,137.8,97.7,0.492
31.12,32057.4,34947.4,0.224,-0.1293,137.8,97.7,0.492
31.14,31901.4,34866.2,-0.3985,-0.3284,137.8,97.7,0.492
31.16,31947.5,34798.4,-0.2144,-0.4947,137.8,97.7,0.492
31.18,31886.6,34800.0,-0.4575,-0.4907,137.8,97.7,0.492
31.2,31842.7,34665.3,-0.6325,-0.8212,137.8,97.7,0.492
31.22,31933.7,34697.5,-0.2696,-0.7423,137.8,97.7,0.492
31.24,31784.3,34596.8,-0.8659,-0.9893,137.8,97.7,0.492
31.26,31845.2,34507.6,-0.6229,-1.208,137.8,97.7,0.492
31.28,31825.5,34515.1,-0.7012,-1.1898,137.8,97.7,0.492
31.3,31863.2,34516.3,-0.551,-1.1868,137.8,97.7,0.492
31.32,31857.4,34586.9,-0.5741,-1.0135,137.8,97.7,0.492
31.34,31964.5,34807.2,-0.1464,-0.4731,137.8,97.7,0.492
31.36,31985.3,35213.8,-0.0634,0.5243,137.8,97.7,0.492
31.38,32283.3,35522.1,1.1257,1.2806,137.8,97.7,0.492
31.4,32327.0,35663.9,1.3003,1.6283,137.8,97.7,0.492
31.42,32390.4,35708.9,1.553,1.7387,137.8,97.7,0.492
31.44,32236.1,35603.5,0.9371,1.4802,137.8,97.7,0.492
31.46,32308.3,35420.6,1.2255,1.0315,137.8,97.7,0.492
31.48,32179.3,35279.2,0.7106,0.6847,137.8,97.7,0.492
31.5,32079.8,35179.5,0.3135,0.4401,137.8,97.7,0.492
31.52,32032.8,35063.6,0.1262,0.1557,137.8,97.7,0.492
31.54,32060.1,34985.5,0.2349,-0.0358,137.8,97.7,0.492
31.56,32051.5,34945.3,0.2007,-0.1344,137.8,97.7,0.492
31.58,31978.3,34876.2,-0.0914,-0.304,137.8,97.7,0.492
31.6,31960.4,34842.6,-0.163,-0.3864,137.8,97.7,0.492
31.62,31837.9,34616.4,-0.652,-0.9412,137.8,97.7,0.492
31.64,31779.4,34629.9,-0.8853,-0.9081,137.8,97.7,0.492
31.66,31883.6,34664.6,-0.4694,-0.8229,137.8,97.7,0.492
31.68,31766.0,34571.7,-0.9387,-1.0509,137.8,97.7,0.492
31.7,31863.1,34550.8,-0.5512,-1.102,137.8,97.7,0.492
31.72,31757.7,34444.1,-0.9719,-1.3638,137.8,97.7,0.492
31.74,31753.6,34453.6,-0.9881,-1.3405,137.8,97.7,0.492
31.76,31879.9,34675.9,-0.4842,-0.7952,137.8,97.7,0.492
31.78,31963.5,34929.6,-0.1505,-0.1729,137.8,97.7,0.492
31.8,32077.5,35224.9,0.3045,0.5513,137.8,97.7,0.492
31.82,32197.7,35596.4,0.7841,1.4628,137.8,97.7,0.492
31.84,32314.9,35793.0,1.2516,1.9451,137.8,97.7,0.492
31.86,32400.9,35688.2,1.595,1.688,137.8,97.7,0.492
31.88,32223.0,35610.6,0.8851,1.4975,137.8,97.7,0.492
31.9,32213.7,35437.2,0.848,1.0723,137.8,97.7,0.492
31.92,32139.1,35266.3,0.55,0.6531,137.8,97.7,0.492
31.94,32080.7,35105.0,0.3171,0.2574,137.8,97.7,0.492
31.96,32005.3,35169.9,0.0163,0.4166,137.8,97.7,0.492
31.98,32093.4,35004.5,0.3679,0.0107,137.8,97.7,0.492
32.0,32041.0,34917.8,0.1586,-0.202,137.8,97.7,0.492
32.02,31935.5,34869.8,-0.2622,-0.3196,137.8,97.7,0.492
32.04,31862.2,34781.0,-0.5549,-0.5376,137.8,97.7,0.492
32.06,31843.2,34642.5,-0.6308,-0.8771,137.8,97.7,0.492
32.08,31856.2,34792.7,-0.5789,-0.5087,137.8,97.7,0.492
32.1,31766.9,34656.1,-0.9351,-0.8438,137.8,97.7,0.492
32.12,31815.2,34651.8,-0.7425,-0.8543,137.8,97.7,0.492
32.14,31722.3,34568.2,-1.1132,-1.0595,137.8,97.7,0.492
32.16,31748.3,34493.8,-1.0092,-1.242,137.8,97.7,0.492
32.18,31760.5,34469.0,-0.9605,-1.3027,137.8,97.7,0.492
32.2,31888.9,34571.3,-0.4483,-1.0518,137.8,97.7,0.492
32.22,32060.8,34918.2,0.2377,-0.2009,137.8,97.7,0.492
32.24,32202.5,35219.9,0.8033,0.5391,137.8,97.7,0.492
32.26,32323.1,35579.4,1.2844,1.4211,137.8,97.7,0.492
32.28,32354.4,35764.7,1.4094,1.8756,137.8,97.7,0.492
32.3,32336.8,35769.4,1.339,1.8872,137.8,97.7,0.492
32.32,32181.2,35599.6,0.7181,1.4707,137.8,97.7,0.492
32.34,32193.5,35373.8,0.7671,0.9167,137.8,97.7,0.492
32.36,32132.6,35295.3,0.5244,0.7241,137.8,97.7,0.492
32.38,32141.7,35138.5,0.5605,0.3396,137.8,97.7,0.492
32.4,31999.8,35064.5,-0.0058,0.1581,137.8,97.7,0.492
32.42,32062.3,34999.7,0.2436,-0.001,137.8,97.7,0.492
32.44,31912.1,34946.0,-0.3557,-0.1326,137.8,97.7,0.492
32.46,31878.8,34893.7,-0.4887,-0.261,137.8,97.7,0.492
32.48,31893.2,34768.6,-0.431,-0.5679,137.8,97.7,0.492
32.5,31916.4,34624.8,-0.3387,-0.9205,137.8,97.7,0.492
32.52,31816.3,34684.1,-0.7382,-0.7752,137.8,97.7,0.492
32.54,31806.0,34570.4,-0.7792,-1.054,137.8,97.7,0.492
32.56,31795.0,34520.6,-0.823,-1.1762,137.8,97.7,0.492
32.58,31784.4,34459.2,-0.8655,-1.3269,137.8,97.7,0.492
32.6,31673.6,34405.6,-1.3076,-1.4583,137.8,97.7,0.492
32.62,31838.9,34499.2,-0.6476,-1.2288,137.8,97.7,0.492
32.64,31890.4,34616.7,-0.4423,-0.9405,137.8,97.7,0.492
32.66,31943.3,35061.7,-0.2312,0.151,137.8,97.7,0.492
32.68,32195.0,35463.3,0.7733,1.1362,137.8,97.7,0.492
32.7,32300.7,35584.0,1.195,1.4323,137.8,97.7,0.492
32.72,32382.0,35845.4,1.5196,2.0736,137.8,97.7,0.492
32.74,32288.4,35737.2,1.1459,1.8081,137.8,97.7,0.492
32.76,32279.5,35535.5,1.1106,1.3133,137.8,97.7,0.492
32.78,32150.4,35311.5,0.5952,0.7639,137.8,97.7,0.492
32.8,32032.3,35220.7,0.1241,0.5411,137.8,97.7,0.492
32.82,32021.6,35080.6,0.0812,0.1974,137.8,97.7,0.492
32.84,32043.0,35123.5,0.1667,0.3027,137.8,97.7,0.492
32.86,32022.8,34994.2,0.086,-0.0144,137.8,97.7,0.492
32.88,31929.8,34864.0,-0.2849,-0.3338,137.8,97.7,0.492
32.9,31925.2,34716.6,-0.3033,-0.6954,137.8,97.7,0.492
32.92,31862.8,34714.0,-0.5526,-0.7017,137.8,97.7,0.492
32.94,31842.0,34617.2,-0.6355,-0.9394,137.8,97.7,0.492
32.96,31858.1,34597.2,-0.5713,-0.9884,137.8,97.7,0.492
32.98,31865.2,34690.6,-0.5429,-0.7593,137.8,97.7,0.492
33.0,31838.4,34554.9,-0.6499,-1.092,137.8,97.7,0.492
33.02,31759.0,34491.3,-0.9666,-1.248,137.8,97.7,0.492
33.04,31787.8,34458.7,-0.8518,-1.3281,137.8,97.7,0.492
33.06,31835.4,34605.2,-0.6617,-0.9686,137.8,97.7,0.492
33.08,31985.1,34849.0,-0.0645,-0.3708,137.8,97.7,0.492
33.1,32053.5,35135.9,0.2085,0.333,137.8,97.7,0.492
33.12,32227.5,35402.7,0.903,0.9875,137.8,97.7,0.492
33.14,32372.1,35752.2,1.4799,1.8448,137.8,97.7,0.492
33.16,32446.7,35755.8,1.7776,1.8539,137.8,97.7,0.492
33.18,32398.4,35556.8,1.5849,1.3656,137.8,97.7,0.492
33.2,32288.0,35436.1,1.1443,1.0696,137.8,97.7,0.492
33.22,32087.8,35307.4,0.3457,0.7539,137.8,97.7,0.492
33.24,32092.9,35178.8,0.3659,0.4384,137.8,97.7,0.492
33.26,32068.4,35061.5,0.2679,0.1506,137.8,97.7,0.492
33.28,32054.4,35042.6,0.212,0.1042,137.8,97.7,0.492
33.3,31916.4,34916.1,-0.3386,-0.206,137.8,97.7,0.492
33.32,31957.7,34798.1,-0.1739,-0.4955,137.8,97.7,0.492
33.34,31941.8,34768.7,-0.2374,-0.5676,137.8,97.7,0.492
33.36,31832.5,34665.7,-0.6735,-0.8202,137.8,97.7,0.492
33.38,31829.6,34693.6,-0.6848,-0.7519,137.8,97.7,0.492
33.4,31938.5,34672.2,-0.2504,-0.8044,137.8,97.7,0.492
33.42,31828.3,34683.2,-0.6899,-0.7774,137.8,97.7,0.492
33.44,31784.2,34605.9,-0.8663,-0.9671,137.8,97.7,0.492
33.46,31829.4,34460.3,-0.6857,-1.3242,137.8,97.7,0.492
33.48,31773.3,34437.9,-0.9096,-1.3791,137.8,97.7,0.492
33.5,31804.2,34577.7,-0.7863,-1.036,137.8,97.7,0.492
33.52,31998.7,34847.6,-0.0102,-0.374,137.8,97.7,0.492
33.54,32070.7,35279.9,0.2772,0.6864,137.8,97.7,0.492
33.56,32222.0,35557.1,0.881,1.3663,137.8,97.7,0.492
33.58,32307.1,35745.2,1.2206,1.8278,137.8,97.7,0.492
33.6,32340.6,35780.7,1.3542,1.9148,137.8,97.7,0.492
33.62,32218.2,35637.6,0.8658,1.5638,137.8,97.7,0.492
33.64,32148.2,35386.1,0.5865,0.9468,137.8,97.7,0.492
33.66,32069.1,35235.2,0.2707,0.5767,137.8,97.7,0.492
33.68,32098.0,35165.9,0.3862,0.4067,137.8,97.7,0.492
33.7,32037.3,35047.0,0.1438,0.1152,137.8,97.7,0.492
33.72,32051.1,35010.3,0.1989,0.0251,137.8,97.7,0.492
33.74,32053.6,35007.8,0.2091,0.019,137.8,97.7,0.492
33.76,31940.9,34906.2,-0.2409,-0.2303,137.8,97.7,0.492
33.78,31863.6,34734.9,-0.5492,-0.6506,137.8,97.7,0.492
33.8,31856.3,34678.8,-0.5785,-0.7882,137.8,97.7,0.492
33.82,31856.8,34646.0,-0.5765,-0.8687,137.8,97.7,0.492
33.84,31894.8,34669.9,-0.4248,-0.81,137.8,97.7,0.492
33.86,31874.2,34627.2,-0.5068,-0.9147,137.8,97.7,0.492
33.88,31803.3,34521.4,-0.79,-1.1742,137.8,97.7,0.492
33.9,31724.4,34425.6,-1.1047,-1.4092,137.8,97.7,0.492
33.92,31719.9,34480.7,-1.1228,-1.274,137.8,97.7,0.492
33.94,31803.1,34621.6,-0.7909,-0.9284,137.8,97.7,0.492
33.96,31903.7,34973.7,-0.3892,-0.0646,137.8,97.7,0.492
33.98,32154.9,35269.1,0.6132,0.66,137.8,97.7,0.492
34.0,32285.9,35459.8,1.1362,1.1276,137.8,97.7,0.492
34.02,32332.3,35803.8,1.3213,1.9715,137.8,97.7,0.492
34.04,32311.0,35689.3,1.2362,1.6907,137.8,97.7,0.492
34.06,32289.4,35486.7,1.1501,1.1936,137.8,97.7,0.492
34.08,32096.9,35427.2,0.382,1.0478,137.8,97.7,0.492
34.1,32073.1,35139.2,0.287,0.3411,137.8,97.7,0.492
34.12,32045.2,35149.0,0.1756,0.3653,137.8,97.7,0.492
34.14,32037.1,35030.5,0.1432,0.0747,137.8,97.7,0.492
34.16,32037.0,35018.5,0.1427,0.0451,137.8,97.7,0.492
34.18,31999.1,35067.4,-0.0085,0.165,137.8,97.7,0.492
34.2,31951.5,34862.2,-0.1986,-0.3383,137.8,97.7,0.492
34.22,31855.6,34792.7,-0.5811,-0.5088,137.8,97.7,0.492
34.24,31855.4,34569.6,-0.582,-1.0561,137.8,97.7,0.492
34.26,31869.6,34727.3,-0.5252,-0.6691,137.8,97.7,0.492
34.28,31811.3,34720.9,-0.7581,-0.6849,137.8,97.7,0.492
34.3,31789.9,34598.6,-0.8434,-0.9848,137.8,97.7,0.492
34.32,31697.9,34521.4,-1.2104,-1.1742,137.8,97.7,0.492
34.34,31683.6,34444.1,-1.2674,-1.3638,137.8,97.7,0.492
34.36,31802.5,34497.5,-0.7932,-1.2328,137.8,97.7,0.492
34.38,31856.9,34704.0,-0.5761,-0.7264,137.8,97.7,0.492
34.4,31973.6,35002.7,-0.1104,0.0064,137.8,97.7,0.492
34.42,32204.1,35360.8,0.8095,0.8847,137.8,97.7,0.492
34.44,32341.9,35679.4,1.3597,1.6665,137.8,97.7,0.492
34.46,32255.7,35810.9,1.0157,1.989,137.8,97.7,0.492
34.48,32367.6,35719.4,1.4622,1.7646,137.8,97.7,0.492
34.5,32226.6,35530.0,0.8992,1.3,137.8,97.7,0.492
34.52,32174.7,35262.5,0.6923,0.6436,137.8,97.7,0.492
34.54,32107.6,35212.6,0.4246,0.5212,137.8,97.7,0.492
34.56,32028.4,35139.8,0.1085,0.3427,137.8,97.7,0.492
34.58,32003.4,35122.2,0.0088,0.2994,137.8,97.7,0.492
34.6,31993.7,34970.6,-0.0299,-0.0723,137.8,97.7,0.492
34.62,31933.5,34840.6,-0.2703,-0.3912,137.8,97.7,0.492
34.64,31917.1,34826.5,-0.3359,-0.4259,137.8,97.7,0.492
34.66,31855.3,34704.5,-0.5824,-0.7251,137.8,97.7,0.492
34.68,31785.5,34700.8,-0.8608,-0.7343,137.8,97.7,0.492
34.7,31744.8,34663.6,-1.0235,-0.8255,137.8,97.7,0.492
34.72,31868.9,34639.5,-0.5282,-0.8845,137.8,97.7,0.492
34.74,31881.3,34640.7,-0.4786,-0.8815,137.8,97.7,0.492
34.76,31724.9,34529.3,-1.1026,-1.1549,137.8,97.7,0.492
34.78,31759.9,34494.6,-0.9632,-1.24,137.8,97.7,0.492
34.8,31833.0,34629.3,-0.6715,-0.9095,137.8,97.7,0.492
34.82,31945.1,34760.7,-0.2239,-0.5873,137.8,97.7,0.492
34.84,31994.0,35116.5,-0.0289,0.2857,137.8,97.7,0.492
34.86,32256.0,35396.0,1.0169,0.9711,137.8,97.7,0.492
34.88,32221.2,35667.7,0.878,1.6377,137.8,97.7,0.492
34.9,32350.2,35797.6,1.3925,1.9563,137.8,97.7,0.492
34.92,32302.8,35693.0,1.2033,1.6998,137.8,97.7,0.492
34.94,32269.6,35508.0,1.0708,1.2458,137.8,97.7,0.492
34.96,32103.2,35239.0,0.407,0.5861,137.8,97.7,0.492
34.98,32039.4,35142.5,0.1525,0.3493,137.8,97.7,0.492
35.0,32020.2,35172.1,0.0757,0.4219,137.8,97.7,0.492
35.02,32032.8,35107.5,0.126,0.2635,137.8,97.7,0.492
35.04,31991.4,35076.5,-0.0393,0.1875,137.8,97.7,0.492
35.06,31946.7,34924.8,-0.2178,-0.1846,137.8,97.7,0.492
35.08,31887.4,34895.6,-0.4542,-0.2564,137.8,97.7,0.492
35.1,31897.7,34731.3,-0.4134,-0.6594,137.8,97.7,0.492
35.12,31868.6,34619.1,-0.5295,-0.9347,137.8,97.7,0.492
35.14,31860.5,34691.1,-0.5615,-0.758,137.8,97.7,0.492
35.16,31783.2,34672.5,-0.8702,-0.8035,137.8,97.7,0.492
35.18,31837.2,34625.4,-0.6548,-0.9192,137.8,97.7,0.492
35.2,31898.9,34517.9,-0.4083,-1.1827,137.8,97.7,0.492
35.22,31680.2,34485.6,-1.2812,-1.2622,137.8,97.7,0.492
35.24,31726.6,34606.6,-1.0961,-0.9654,137.8,97.7,0.492
35.26,31842.2,34764.4,-0.6345,-0.5782,137.8,97.7,0.492
35.28,32119.0,35155.6,0.47,0.3814,137.8,97.7,0.492
35.3,32259.6,35403.7,1.0313,0.9899,137.8,97.7,0.492
35.32,32325.3,35623.6,1.2932,1.5294,137.8,97.7,0.492
35.34,32340.4,35767.3,1.3534,1.882,137.8,97.7,0.492
35.36,32285.9,35593.1,1.136,1.4546,137.8,97.7,0.492
35.38,32115.8,35408.4,0.4574,1.0016,137.8,97.7,0.492
35.4,32192.1,35253.9,0.7616,0.6226,137.8,97.7,0.492
35.42,32062.5,35155.4,0.2443,0.3809,137.8,97.7,0.492
35.44,32028.8,35088.4,0.11,0.2166,137.8,97.7,0.492
35.46,31994.5,34993.3,-0.027,-0.0166,137.8,97.7,0.492
35.48,31968.3,34957.1,-0.1316,-0.1054,137.8,97.7,0.492
35.5,31949.1,34879.9,-0.2079,-0.2949,137.8,97.7,0.492
35.52,31839.5,34791.0,-0.6455,-0.513,137.8,97.7,0.492
35.54,31857.2,34754.2,-0.5748,-0.6032,137.8,97.7,0.492
35.56,31745.5,34750.2,-1.0207,-0.613,137.8,97.7,0.492
35.58,31881.0,34713.7,-0.4797,-0.7025,137.8,97.7,0.492
35.6,31799.3,34632.7,-0.8058,-0.9013,137.8,97.7,0.492
35.62,31692.3,34554.8,-1.2328,-1.0923,137.8,97.7,0.492
35.64,31782.4,34508.4,-0.8732,-1.2062,137.8,97.7,0.492
35.66,31729.2,34476.9,-1.0858,-1.2834,137.8,97.7,0.492
35.68,31860.8,34564.3,-0.5604,-1.0689,137.8,97.7,0.492
35.7,31902.2,34898.8,-0.3951,-0.2485,137.8,97.7,0.492
35.72,32168.0,35308.8,0.6655,0.7573,137.8,97.7,0.492
35.74,32305.3,35640.8,1.2136,1.5717,137.8,97.7,0.492
35.76,32318.6,35762.1,1.2665,1.8692,137.8,97.7,0.492
35.78,32343.8,35693.3,1.367,1.7005,137.8,97.7,0.492
35.8,32215.3,35569.3,0.8544,1.3962,137.8,97.7,0.492
35.82,32200.1,35426.9,0.7938,1.0469,137.8,97.7,0.492
35.84,32142.4,35241.3,0.5633,0.5917,137.8,97.7,0.492
35.86,32044.6,35261.4,0.1732,0.641,137.8,97.7,0.492
35.88,32005.7,35146.5,0.018,0.3592,137.8,97.7,0.492
35.9,31999.7,35023.8,-0.0061,0.0581,137.8,97.7,0.492
35.92,31905.3,34959.2,-0.3828,-0.1004,137.8,97.7,0.492
35.94,31950.0,34843.2,-0.2043,-0.3849,137.8,97.7,0.492
35.96,31882.8,34712.2,-0.4725,-0.7062,137.8,97.7,0.492
35.98,31801.3,34659.0,-0.7977,-0.8366,137.8,97.7,0.492
36.0,31845.0,34683.4,-0.6235,-0.7769,137.8,97.7,0.492
36.02,31768.6,34660.1,-0.9286,-0.8339,137.8,97.7,0.492
36.04,31800.3,34616.8,-0.8021,-0.9403,137.8,97.7,0.492
36.06,31778.6,34532.3,-0.8883,-1.1475,137.8,97.7,0.492
36.08,31846.1,34473.4,-0.6192,-1.292,137.8,97.7,0.492
36.1,31672.3,34523.5,-1.3126,-1.1691,137.8,97.7,0.492
36.12,31822.5,34627.1,-0.7132,-0.915,137.8,97.7,0.492
36.14,32011.4,34997.1,0.0405,-0.0073,137.8,97.7,0.492
36.16,32197.0,35301.0,0.7812,0.7381,137.8,97.7,0.492
36.18,32195.3,35637.4,0.7745,1.5632,137.8,97.7,0.492
36.2,32363.3,35732.9,1.4448,1.7975,137.8,97.7,0.492
36.22,32347.6,35656.7,1.3825,1.6106,137.8,97.7,0.492
36.24,32339.7,35446.2,1.3506,1.0944,137.8,97.7,0.492
36.26,32139.9,35281.3,0.5535,0.6897,137.8,97.7,0.492
36.28,32110.8,35205.4,0.4374,0.5036,137.8,97.7,0.492
36.3,32041.5,35113.2,0.1606,0.2775,137.8,97.7,0.492
36.32,31999.7,35076.6,-0.006,0.1876,137.8,97.7,0.492
36.34,32038.2,35010.0,0.1475,0.0243,137.8,97.7,0.492
36.36,31861.9,34931.1,-0.556,-0.1692,137.8,97.7,0.492
36.38,31916.0,34805.3,-0.34,-0.4779,137.8,97.7,0.492
36.4,31890.7,34815.1,-0.441,-0.4539,137.8,97.7,0.492
36.42,31685.8,34651.0,-1.2587,-0.8562,137.8,97.7,0.492
36.44,31870.6,34636.4,-0.5213,-0.8922,137.8,97.7,0.492
36.46,31897.5,34612.8,-0.4141,-0.95,137.8,97.7,0.492
36.48,31832.0,34561.7,-0.6754,-1.0754,137.8,97.7,0.492
36.5,31739.4,34618.4,-1.045,-0.9364,137.8,97.7,0.492
36.52,31782.6,34571.1,-0.8726,-1.0522,137.8,97.7,0.492
36.54,31714.3,34507.9,-1.1449,-1.2075,137.8,97.7,0.492
36.56,32020.4,34698.7,0.0764,-0.7394,137.8,97.7,0.492
36.58,31935.1,35058.8,-0.2639,0.144,137.8,97.7,0.492
36.6,32180.7,35490.0,0.7161,1.2018,137.8,97.7,0.492
36.62,32256.8,35645.7,1.02,1.5837,137.8,97.7,0.492
36.64,32336.4,35725.9,1.3374,1.7804,137.8,97.7,0.492
36.66,32351.0,35685.9,1.3958,1.6823,137.8,97.7,0.492
36.68,32254.6,35581.0,1.011,1.425,137.8,97.7,0.492
36.7,32180.7,35294.2,0.7163,0.7215,137.8,97.7,0.492
36.72,32109.4,35141.1,0.4317,0.3458,137.8,97.7,0.492
36.74,32053.3,35111.2,0.2079,0.2725,137.8,97.7,0.492
36.76,32041.9,35040.2,0.1623,0.0983,137.8,97.7,0.492
36.78,31875.7,35101.3,-0.501,0.2483,137.8,97.7,0.492
36.8,31897.0,34962.3,-0.4158,-0.0927,137.8,97.7,0.492
36.82,31899.4,34822.0,-0.4064,-0.4369,137.8,97.7,0.492
36.84,31884.1,34677.3,-0.4675,-0.7917,137.8,97.7,0.492
36.86,31839.2,34622.0,-0.6467,-0.9275,137.8,97.7,0.492
36.88,31861.2,34605.9,-0.5587,-0.9671,137.8,97.7,0.492
36.9,31802.2,34588.7,-0.7943,-1.0092,137.8,97.7,0.492
36.92,31829.3,34633.2,-0.6863,-0.9,137.8,97.7,0.492
36.94,31745.6,34549.8,-1.0203,-1.1045,137.8,97.7,0.492
36.96,31777.2,34474.5,-0.894,-1.2893,137.8,97.7,0.492
36.98,31862.0,34561.8,-0.5557,-1.0752,137.8,97.7,0.492
37.0,31856.4,34822.4,-0.578,-0.436,137.8,97.7,0.492
37.02,32052.7,35198.2,0.2052,0.4859,137.8,97.7,0.492
37.04,32201.8,35417.5,0.8003,1.0239,137.8,97.7,0.492
37.06,32244.3,35729.4,0.9701,1.7889,137.8,97.7,0.492
37.08,32325.2,35703.5,1.2929,1.7254,137.8,97.7,0.492
37.1,32366.9,35603.7,1.4593,1.4807,137.8,97.7,0.492
37.12,32203.2,35442.2,0.8061,1.0845,137.8,97.7,0.492
37.14,32117.4,35236.2,0.4634,0.5792,137.8,97.7,0.492
37.16,32074.9,35200.2,0.2939,0.491,137.8,97.7,0.492
37.18,32062.5,35082.9,0.2444,0.2031,137.8,97.7,0.492
37.2,32041.6,35053.3,0.1611,0.1304,137.8,97.7,0.492
37.22,32015.0,34940.2,0.0551,-0.1468,137.8,97.7,0.492
37.24,31974.6,34834.7,-0.1064,-0.4057,137.8,97.7,0.492
37.26,31928.4,34735.9,-0.2907,-0.6481,137.8,97.7,0.492
37.28,31911.0,34700.4,-0.3601,-0.7351,137.8,97.7,0.492
37.3,31885.8,34604.9,-0.4609,-0.9693,137.8,97.7,0.492
37.32,31868.0,34620.4,-0.5315,-0.9315,137.8,97.7,0.492
37.34,31837.4,34651.2,-0.654,-0.8557,137.8,97.7,0.492
37.36,31845.3,34495.0,-0.6221,-1.239,137.8,97.7,0.492
37.38,31703.6,34536.3,-1.1879,-1.1376,137.8,97.7,0.492
37.4,31907.8,34536.9,-0.3728,-1.1363,137.8,97.7,0.492
37.42,31894.9,34652.4,-0.4243,-0.8528,137.8,97.7,0.492
37.44,31969.9,34889.8,-0.1252,-0.2705,137.8,97.7,0.492
37.46,32175.3,35236.3,0.6947,0.5794,137.8,97.7,0.492
37.48,32285.8,35482.4,1.1355,1.1831,137.8,97.7,0.492
37.5,32295.9,35689.4,1.1759,1.6909,137.8,97.7,0.492
37.52,32400.9,35716.9,1.595,1.7584,137.8,97.7,0.492
37.54,32264.4,35578.1,1.0504,1.4177,137.8,97.7,0.492
37.56,32190.0,35398.4,0.7533,0.9771,137.8,97.7,0.492
37.58,32081.0,35218.0,0.3184,0.5344,137.8,97.7,0.492
37.6,32038.6,35088.9,0.1493,0.2179,137.8,97.7,0.492
37.62,32023.0,35072.6,0.087,0.178,137.8,97.7,0.492
37.64,31975.3,35035.3,-0.1035,0.0863,137.8,97.7,0.492
37.66,31971.7,34987.6,-0.1178,-0.0306,137.8,97.7,0.492
37.68,31968.0,34793.7,-0.1324,-0.5062,137.8,97.7,0.492
37.7,31906.2,34806.2,-0.3792,-0.4756,137.8,97.7,0.492
37.72,31916.6,34698.4,-0.3376,-0.7399,137.8,97.7,0.492
37.74,31883.4,34639.0,-0.4702,-0.8857,137.8,97.7,0.492
37.76,31895.1,34706.5,-0.4234,-0.7203,137.8,97.7,0.492
37.78,31879.0,34588.5,-0.4879,-1.0095,137.8,97.7,0.492
37.8,31727.3,34663.9,-1.093,-0.8248,137.8,97.7,0.492
37.82,31649.1,34431.7,-1.4054,-1.3943,137.8,97.7,0.492
37.84,31792.4,34495.3,-0.8335,-1.2382,137.8,97.7,0.492
37.86,31872.1,34655.4,-0.5153,-0.8455,137.8,97.7,0.492
37.88,31962.7,34903.2,-0.1539,-0.2377,137.8,97.7,0.492
37.9,32132.6,35250.6,0.5242,0.6144,137.8,97.7,0.492
37.92,32268.9,35580.5,1.0684,1.4238,137.8,97.7,0.492
37.94,32285.6,35772.7,1.1349,1.8951,137.8,97.7,0.492
37.96,32303.9,35783.3,1.2077,1.9212,137.8,97.7,0.492
37.98,32303.1,35567.1,1.2048,1.391,137.8,97.7,0.492
38.0,32167.8,35336.5,0.6649,0.8253,137.8,97.7,0.492
38.02,32118.1,35157.5,0.4666,0.3862,137.8,97.7,0.492
38.04,32037.3,35171.1,0.1439,0.4194,137.8,97.7,0.492
38.06,32054.9,35131.3,0.2143,0.3218,137.8,97.7,0.492
38.08,32065.6,35090.3,0.2568,0.2213,137.8,97.7,0.492
38.1,31899.8,34964.7,-0.4047,-0.0869,137.8,97.7,0.492
38.12,31927.7,34807.1,-0.2934,-0.4735,137.8,97.7,0.492
38.14,31943.2,34639.1,-0.2314,-0.8856,137.8,97.7,0.492
38.16,31848.0,34750.4,-0.6117,-0.6126,137.8,97.7,0.492
38.18,31863.4,34713.1,-0.5499,-0.7039,137.8,97.7,0.492
38.2,31783.9,34647.1,-0.8674,-0.8659,137.8,97.7,0.492
38.22,31820.5,34641.6,-0.7214,-0.8793,137.8,97.7,0.492
38.24,31761.5,34549.4,-0.9566,-1.1056,137.8,97.7,0.492
38.26,31725.0,34435.0,-1.1022,-1.3861,137.8,97.7,0.492
38.28,31793.6,34564.8,-0.8286,-1.0679,137.8,97.7,0.492
38.3,31868.9,34727.4,-0.528,-0.669,137.8,97.7,0.492
38.32,32045.9,35021.7,0.1783,0.053,137.8,97.7,0.492
38.34,32131.6,35436.9,0.5202,1.0715,137.8,97.7,0.492
38.36,32287.8,35687.1,1.1436,1.6852,137.8,97.7,0.492
38.38,32255.4,35828.7,1.0143,2.0327,137.8,97.7,0.492
38.4,32274.0,35680.4,1.0888,1.6688,137.8,97.7,0.492
38.42,32221.0,35439.3,0.8771,1.0774,137.8,97.7,0.492
38.44,32083.2,35345.6,0.3273,0.8474,137.8,97.7,0.492
38.46,32119.4,35226.0,0.4715,0.5541,137.8,97.7,0.492
38.48,31972.6,35031.7,-0.1143,0.0775,137.8,97.7,0.492
38.5,31979.4,35104.6,-0.0869,0.2564,137.8,97.7,0.492
38.52,32057.5,34968.1,0.2246,-0.0785,137.8,97.7,0.492
38.54,32028.5,34975.0,0.1088,-0.0615,137.8,97.7,0.492
38.56,31895.5,34789.3,-0.422,-0.517,137.8,97.7,0.492
38.58,31825.8,34756.1,-0.7002,-0.5986,137.8,97.7,0.492
38.6,31926.0,34731.4,-0.3002,-0.6591,137.8,97.7,0.492
38.62,31890.9,34620.3,-0.4405,-0.9317,137.8,97.7,0.492
38.64,31833.5,34539.9,-0.6695,-1.1287,137.8,97.7,0.492
38.66,31826.6,34536.2,-0.6969,-1.1378,137.8,97.7,0.492
38.68,31760.3,34500.2,-0.9614,-1.2262,137.8,97.7,0.492
38.7,31708.7,34429.6,-1.1676,-1.3994,137.8,97.7,0.492
38.72,31922.5,34456.3,-0.3142,-1.334,137.8,97.7,0.492
38.74,31928.9,34769.0,-0.2887,-0.5669,137.8,97.7,0.492
38.76,31993.1,35094.9,-0.0325,0.2326,137.8,97.7,0.492
38.78,32246.1,35406.0,0.9772,0.9958,137.8,97.7,0.492
38.8,32364.9,35680.7,1.4513,1.6695,137.8,97.7,0.492
38.82,32368.3,35728.5,1.4647,1.7867,137.8,97.7,0.492
38.84,32342.3,35650.4,1.3613,1.5951,137.8,97.7,0.492
38.86,32257.3,35395.8,1.0221,0.9706,137.8,97.7,0.492
38.88,31999.1,35402.7,-0.0084,0.9876,137.8,97.7,0.492
38.9,32088.1,35220.3,0.3468,0.5401,137.8,97.7,0.492
38.92,32078.9,35113.9,0.3101,0.2792,137.8,97.7,0.492
38.94,31967.8,35070.7,-0.1334,0.1732,137.8,97.7,0.492
38.96,32044.9,34943.8,0.1743,-0.1381,137.8,97.7,0.492
38.98,31877.4,34970.3,-0.4943,-0.0731,137.8,97.7,0.492
39.0,31930.9,34812.1,-0.2808,-0.4612,137.8,97.7,0.492
39.02,31866.0,34604.9,-0.5397,-0.9694,137.8,97.7,0.492
39.04,31876.2,34700.7,-0.4989,-0.7344,137.8,97.7,0.492
39.06,31844.0,34672.6,-0.6277,-0.8034,137.8,97.7,0.492
39.08,31815.1,34557.4,-0.7428,-1.0859,137.8,97.7,0.492
39.1,31779.8,34591.6,-0.8836,-1.002,137.8,97.7,0.492
39.12,31725.5,34504.9,-1.1004,-1.2147,137.8,97.7,0.492
39.14,31792.0,34350.2,-0.835,-1.5942,137.8,97.7,0.492
39.16,31845.8,34658.8,-0.6205,-0.8371,137.8,97.7,0.492
39.18,31992.6,34872.4,-0.0345,-0.3133,137.8,97.7,0.492
39.2,32060.2,35188.1,0.2353,0.4612,137.8,97.7,0.492
39.22,32185.1,35596.5,0.7339,1.4629,137.8,97.7,0.492
39.24,32249.6,35650.5,0.9913,1.5955,137.8,97.7,0.492
39.26,32318.3,35718.2,1.2654,1.7616,137.8,97.7,0.492
39.28,32184.8,35671.8,0.7328,1.6477,137.8,97.7,0.492
39.3,32233.3,35557.6,0.926,1.3675,137.8,97.7,0.492
39.32,32111.7,35314.2,0.441,0.7704,137.8,97.7,0.492
39.34,32027.9,35108.0,0.1063,0.2646,137.8,97.7,0.492
39.36,31980.0,35148.2,-0.0849,0.3633,137.8,97.7,0.492
39.38,31934.0,35170.9,-0.2682,0.419,137.8,97.7,0.492
39.4,32023.2,34897.5,0.0878,-0.2517,137.8,97.7,0.492
39.42,31947.1,34819.4,-0.216,-0.4433,137.8,97.7,0.492
39.44,31915.3,34716.4,-0.343,-0.6958,137.8,97.7,0.492
39.46,31872.5,34647.9,-0.5135,-0.8639,137.8,97.7,0.492
39.48,31934.7,34535.1,-0.2654,-1.1408,137.8,97.7,0.492
39.5,31862.5,34692.0,-0.5537,-0.7557,137.8,97.7,0.492
39.52,31792.1,34643.3,-0.8347,-0.8753,137.8,97.7,0.492
39.54,31814.2,34488.6,-0.7464,-1.2548,137.8,97.7,0.492
39.56,31717.9,34548.8,-1.1309,-1.107,137.8,97.7,0.492
39.58,31756.3,34500.5,-0.9777,-1.2256,137.8,97.7,0.492
39.6,31758.8,34559.3,-0.9674,-1.0812,137.8,97.7,0.492
39.62,31883.9,34875.4,-0.4684,-0.3059,137.8,97.7,0.492
39.64,32073.2,35231.0,0.2874,0.5663,137.8,97.7,0.492
39.66,32193.5,35550.2,0.7672,1.3494,137.8,97.7,0.492
39.68,32281.9,35697.3,1.1201,1.7103,137.8,97.7,0.492
39.7,32251.6,35625.8,0.9992,1.5349,137.8,97.7,0.492
39.72,32264.7,35592.3,1.0516,1.4528,137.8,97.7,0.492
39.74,32095.4,35455.9,0.3758,1.1181,137.8,97.7,0.492
39.76,32174.5,35246.1,0.6913,0.6035,137.8,97.7,0.492
39.78,32048.7,35097.1,0.1894,0.2378,137.8,97.7,0.492
39.8,32049.8,35061.0,0.1939,0.1493,137.8,97.7,0.492
39.82,32004.8,35078.6,0.0141,0.1925,137.8,97.7,0.492
39.84,31939.4,34900.5,-0.2467,-0.2443,137.8,97.7,0.492
39.86,31993.9,34884.9,-0.0292,-0.2825,137.8,97.7,0.492
39.88,31849.3,34725.1,-0.6064,-0.6745,137.8,97.7,0.492
39.9,31780.1,34734.3,-0.8824,-0.6521,137.8,97.7,0.492
39.92,31859.9,34692.2,-0.5642,-0.7552,137.8,97.7,0.492
39.94,31892.4,34579.1,-0.4345,-1.0328,137.8,97.7,0.492
39.96,31853.4,34578.6,-0.5898,-1.0339,137.8,97.7,0.492
39.98,31880.9,34545.0,-0.4802,-1.1163,137.8,97.7,0.492
40.0,31779.2,34419.1,-0.8861,-1.4253,137.8,97.7,0.492
40.02,31789.4,34560.8,-0.8454,-1.0775,137.8,97.7,0.492
40.04,31871.3,34730.4,-0.5186,-0.6617,137.8,97.7,0.492
40.06,31980.9,35017.8,-0.081,0.0433,137.8,97.7,0.492
40.08,32092.6,35292.0,0.3648,0.7161,137.8,97.7,0.492
40.1,32179.4,35595.2,0.7111,1.4599,137.8,97.7,0.492
40.12,32296.3,35720.1,1.1777,1.7662,137.8,97.7,0.492
40.14,32287.9,35615.4,1.144,1.5094,137.8,97.7,0.492
40.16,32320.1,35598.5,1.2728,1.468,137.8,97.7,0.492
40.18,32121.4,35387.0,0.4794,0.949,137.8,97.7,0.492
40.2,32117.6,35091.9,0.4644,0.2253,137.8,97.7,0.492
40.22,32022.5,35088.1,0.0847,0.2159,137.8,97.7,0.492
40.24,32086.0,34993.1,0.3383,-0.017,137.8,97.7,0.492
40.26,32071.6,35073.5,0.2807,0.1799,137.8,97.7,0.492
40.28,31934.9,34949.8,-0.2647,-0.1234,137.8,97.7,0.492
40.3,31928.6,34790.9,-0.2897,-0.5131,137.8,97.7,0.492
40.32,31961.7,34735.9,-0.1579,-0.648,137.8,97.7,0.492
40.34,31791.0,34652.3,-0.839,-0.8533,137.8,97.7,0.492
40.36,31833.5,34753.5,-0.6695,-0.6049,137.8,97.7,0.492
40.38,31868.9,34609.1,-0.5281,-0.9591,137.8,97.7,0.492
40.4,31842.4,34664.4,-0.634,-0.8234,137.8,97.7,0.492
40.42,31768.5,34490.5,-0.9289,-1.25,137.8,97.7,0.492
40.44,31745.9,34443.6,-1.0189,-1.365,137.8,97.7,0.492
40.46,31786.2,34496.5,-0.8582,-1.2352,137.8,97.7,0.492
40.48,31966.4,34652.5,-0.1391,-0.8527,137.8,97.7,0.492
40.5,32029.0,35056.9,0.1108,0.1393,137.8,97.7,0.492
40.52,32132.1,35412.0,0.5221,1.0104,137.8,97.7,0.492
40.54,32284.4,35640.8,1.1299,1.5716,137.8,97.7,0.492
40.56,32348.7,35754.9,1.3866,1.8516,137.8,97.7,0.492
40.58,32195.2,35663.2,0.7741,1.6265,137.8,97.7,0.492
40.6,32170.6,35501.3,0.676,1.2295,137.8,97.7,0.492
40.62,32181.1,35336.5,0.718,0.8251,137.8,97.7,0.492
40.64,32069.6,35195.2,0.2727,0.4785,137.8,97.7,0.492
40.66,32078.9,35105.7,0.31,0.2589,137.8,97.7,0.492
40.68,31989.3,35005.8,-0.0475,0.014,137.8,97.7,0.492
40.7,32037.7,34967.6,0.1456,-0.0796,137.8,97.7,0.492
40.72,31960.7,34831.7,-0.1619,-0.4132,137.8,97.7,0.492
40.74,31967.4,34773.5,-0.135,-0.556,137.8,97.7,0.492
40.76,31841.6,34711.9,-0.6371,-0.7069,137.8,97.7,0.492
40.78,31829.2,34700.8,-0.6864,-0.7342,137.8,97.7,0.492
40.8,31882.2,34691.3,-0.4749,-0.7574,137.8,97.7,0.492
40.82,31834.1,34648.3,-0.6671,-0.8628,137.8,97.7,0.492
40.84,31915.8,34574.1,-0.3411,-1.045,137.8,97.7,0.492
40.86,31843.0,34491.5,-0.6313,-1.2475,137.8,97.7,0.492
40.88,31749.3,34521.4,-1.0053,-1.1743,137.8,97.7,0.492
40.9,31744.0,34649.2,-1.0266,-0.8609,137.8,97.7,0.492
40.92,31852.3,34740.6,-0.5943,-0.6365,137.8,97.7,0.492
40.94,32042.6,35110.5,0.165,0.2709,137.8,97.7,0.492
40.96,32182.0,35471.3,0.7214,1.1558,137.8,97.7,0.492
40.98,32329.6,35672.4,1.3105,1.6493,137.8,97.7,0.492
41.0,32325.0,35830.0,1.2922,2.0359,137.8,97.7,0.492
41.02,32281.0,35671.4,1.1163,1.6467,137.8,97.7,0.492
41.04,32202.8,35439.4,0.8045,1.0777,137.8,97.7,0.492
41.06,32182.3,35249.8,0.7224,0.6126,137.8,97.7,0.492
41.08,32097.9,35139.7,0.3859,0.3425,137.8,97.7,0.492
41.1,31932.8,35187.1,-0.273,0.4588,137.8,97.7,0.492
41.12,32063.7,35073.1,0.2495,0.1791,137.8,97.7,0.492
41.14,32030.9,34933.3,0.1186,-0.1638,137.8,97.7,0.492
41.16,31961.9,34924.4,-0.157,-0.1858,137.8,97.7,0.492
41.18,32016.2,34826.7,0.0597,-0.4253,137.8,97.7,0.492
41.2,31786.0,34757.1,-0.8588,-0.5961,137.8,97.7,0.492
41.22,31823.7,34662.2,-0.7087,-0.8288,137.8,97.7,0.492
41.24,31836.9,34702.2,-0.6557,-0.7307,137.8,97.7,0.492
41.26,31763.2,34566.4,-0.9501,-1.0639,137.8,97.7,0.492
41.28,31801.0,34577.4,-0.7991,-1.0369,137.8,97.7,0.492
41.3,31786.5,34427.6,-0.857,-1.4043,137.8,97.7,0.492
41.32,31736.5,34446.3,-1.0564,-1.3584,137.8,97.7,0.492
41.34,31822.9,34563.8,-0.7119,-1.0701,137.8,97.7,0.492
41.36,32000.6,34893.4,-0.0025,-0.2616,137.8,97.7,0.492
41.38,32006.8,35165.5,0.0221,0.4059,137.8,97.7,0.492
41.4,32187.4,35456.4,0.7431,1.1193,137.8,97.7,0.492
41.42,32287.5,35820.5,1.1425,2.0124,137.8,97.7,0.492
41.44,32320.0,35725.1,1.2722,1.7785,137.8,97.7,0.492
41.46,32287.7,35643.9,1.1431,1.5792,137.8,97.7,0.492
41.48,32236.2,35347.7,0.9378,0.8526,137.8,97.7,0.492
41.5,32107.7,35241.8,0.4248,0.5928,137.8,97.7,0.492
41.52,32070.8,35146.2,0.2776,0.3584,137.8,97.7,0.492
41.54,32082.8,35045.4,0.3256,0.1111,137.8,97.7,0.492
41.56,32016.5,35004.8,0.061,0.0116,137.8,97.7,0.492
41.58,31939.7,34993.0,-0.2456,-0.0174,137.8,97.7,0.492
41.6,31897.6,34810.6,-0.4136,-0.4648,137.8,97.7,0.492
41.62,31883.2,34714.6,-0.4712,-0.7003,137.8,97.7,0.492
41.64,31951.6,34581.1,-0.198,-1.0278,137.8,97.7,0.492
41.66,31855.8,34804.3,-0.5804,-0.4803,137.8,97.7,0.492
41.68,31734.0,34722.0,-1.0664,-0.6823,137.8,97.7,0.492
41.7,31815.8,34579.1,-0.7399,-1.0328,137.8,97.7,0.492
41.72,31751.7,34525.6,-0.9959,-1.164,137.8,97.7,0.492
41.74,31757.1,34505.3,-0.9741,-1.2138,137.8,97.7,0.492
41.76,31796.1,34394.5,-0.8187,-1.4855,137.8,97.7,0.492
41.78,31849.4,34729.5,-0.606,-0.6638,137.8,97.7,0.492
41.8,32011.6,34870.7,0.0416,-0.3174,137.8,97.7,0.492
41.82,32124.1,35296.2,0.4905,0.7263,137.8,97.7,0.492
41.84,32266.5,35558.0,1.0587,1.3687,137.8,97.7,0.492
41.86,32342.7,35682.6,1.3628,1.6743,137.8,97.7,0.492
41.88,32319.5,35698.4,1.27,1.713,137.8,97.7,0.492
41.9,32286.3,35463.2,1.1378,1.136,137.8,97.7,0.492
41.92,32166.0,35366.4,0.6576,0.8985,137.8,97.7,0.492
41.94,32156.5,35153.1,0.6198,0.3753,137.8,97.7,0.492
41.96,32074.8,35090.6,0.2937,0.222,137.8,97.7,0.492
41.98,32102.0,35056.4,0.4022,0.1382,137.8,97.7,0.492
42.0,32050.0,35039.0,0.1947,0.0954,137.8,97.7,0.492
42.02,32018.4,34904.2,0.0685,-0.2353,137.8,97.7,0.492
42.04,31944.0,34812.9,-0.2284,-0.4592,137.8,97.7,0.492
42.06,31877.6,34780.8,-0.4932,-0.5379,137.8,97.7,0.492
42.08,31861.4,34658.9,-0.5581,-0.8369,137.8,97.7,0.492
42.1,31872.9,34661.3,-0.5122,-0.8311,137.8,97.7,0.492
42.12,31838.3,34674.9,-0.6501,-0.7976,137.8,97.7,0.492
42.14,31792.8,34504.3,-0.832,-1.2162,137.8,97.7,0.492
42.16,31817.9,34425.9,-0.7316,-1.4085,137.8,97.7,0.492
42.18,31796.1,34439.2,-0.8187,-1.3759,137.8,97.7,0.492
42.2,31801.9,34455.6,-0.7953,-1.3357,137.8,97.7,0.492
42.22,31882.1,34601.6,-0.4753,-0.9774,137.8,97.7,0.492
42.24,32003.4,35024.0,0.0085,0.0585,137.8,97.7,0.492
42.26,32215.6,35376.0,0.8554,0.9222,137.8,97.7,0.492
42.28,32231.5,35655.4,0.9189,1.6074,137.8,97.7,0.492
42.3,32371.4,35761.2,1.4772,1.867,137.8,97.7,0.492
42.32,32292.2,35683.8,1.1612,1.6771,137.8,97.7,0.492
42.34,32231.0,35618.7,0.917,1.5175,137.8,97.7,0.492
42.36,32055.1,35330.0,0.2149,0.8092,137.8,97.7,0.492
42.38,32113.0,35147.0,0.4461,0.3603,137.8,97.7,0.492
42.4,32128.5,35169.6,0.5079,0.4159,137.8,97.7,0.492
42.42,32050.0,35018.4,0.1945,0.0449,137.8,97.7,0.492
42.44,32069.5,34939.0,0.2723,-0.1499,137.8,97.7,0.492
42.46,31953.2,34987.7,-0.1916,-0.0304,137.8,97.7,0.492
42.48,31930.4,34759.2,-0.2828,-0.5909,137.8,97.7,0.492
42.5,31870.2,34660.8,-0.5228,-0.8323,137.8,97.7,0.492
42.52,31887.0,34717.2,-0.4557,-0.6939,137.8,97.7,0.492
42.54,31886.4,34723.0,-0.4585,-0.6797,137.8,97.7,0.492
42.56,31841.3,34621.0,-0.6383,-0.9299,137.8,97.7,0.492
42.58,31879.3,34553.1,-0.4865,-1.0965,137.8,97.7,0.492
42.6,31696.9,34487.9,-1.2146,-1.2565,137.8,97.7,0.492
42.62,31788.2,34437.3,-0.8503,-1.3806,137.8,97.7,0.492
42.64,31797.1,34516.1,-0.8148,-1.1873,137.8,97.7,0.492
42.66,31896.5,34796.0,-0.4178,-0.5006,137.8,97.7,0.492
42.68,32002.6,35099.9,0.0055,0.2449,137.8,97.7,0.492
42.7,32119.1,35512.8,0.4705,1.2576,137.8,97.7,0.492
42.72,32286.4,35671.2,1.1379,1.6462,137.8,97.7,0.492
42.74,32341.5,35767.2,1.358,1.8818,137.8,97.7,0.492
42.76,32290.0,35713.2,1.1523,1.7493,137.8,97.7,0.492
42.78,32228.2,35482.5,0.9058,1.1833,137.8,97.7,0.492
42.8,32088.6,35308.3,0.3485,0.756,137.8,97.7,0.492
42.82,32129.4,35120.8,0.5114,0.2961,137.8,97.7,0.492
42.84,32096.5,35065.5,0.3803,0.1603,137.8,97.7,0.492
42.86,32047.3,35120.3,0.184,0.2947,137.8,97.7,0.492
42.88,32015.3,34947.3,0.0561,-0.1296,137.8,97.7,0.492
42.9,31988.5,34910.1,-0.0507,-0.2209,137.8,97.7,0.492
42.92,31957.0,34720.8,-0.1765,-0.685,137.8,97.7,0.492
42.94,31896.2,34637.3,-0.4193,-0.89,137.8,97.7,0.492
42.96,31832.5,34608.5,-0.6735,-0.9607,137.8,97.7,0.492
42.98,31889.4,34727.6,-0.4464,-0.6685,137.8,97.7,0.492
43.0,31968.1,34641.5,-0.1321,-0.8797,137.8,97.7,0.492
43.02,31843.8,34649.1,-0.6281,-0.861,137.8,97.7,0.492
43.04,31818.8,34480.3,-0.7279,-1.2751,137.8,97.7,0.492
43.06,31862.9,34420.5,-0.5519,-1.4218,137.8,97.7,0.492
43.08,31826.1,34582.8,-0.6988,-1.0235,137.8,97.7,0.492
43.1,31982.2,34826.0,-0.0758,-0.4272,137.8,97.7,0.492
43.12,32084.3,35082.9,0.3316,0.203,137.8,97.7,0.492
43.14,32273.0,35553.8,1.0845,1.3583,137.8,97.7,0.492
43.16,32348.1,35770.2,1.3843,1.889,137.8,97.7,0.492
43.18,32295.6,35753.7,1.1747,1.8486,137.8,97.7,0.492
43.2,32275.9,35553.1,1.0962,1.3566,137.8,97.7,0.492
43.22,32252.4,35375.8,1.0025,0.9217,137.8,97.7,0.492
43.24,32121.8,35316.3,0.481,0.7756,137.8,97.7,0.492
43.26,31975.6,35146.5,-0.1024,0.3591,137.8,97.7,0.492
43.28,32058.0,35052.6,0.2267,0.1287,137.8,97.7,0.492
43.3,32072.7,35050.1,0.2851,0.1227,137.8,97.7,0.492
43.32,32022.0,35023.7,0.083,0.058,137.8,97.7,0.492
43.34,31845.6,34838.8,-0.6211,-0.3957,137.8,97.7,0.492
43.36,31930.3,34777.8,-0.283,-0.5452,137.8,97.7,0.492
43.38,31854.1,34742.6,-0.5871,-0.6317,137.8,97.7,0.492
43.4,31843.7,34613.9,-0.6285,-0.9473,137.8,97.7,0.492
43.42,31748.6,34532.3,-1.0081,-1.1475,137.8,97.7,0.492
43.44,31822.0,34640.6,-0.7153,-0.8818,137.8,97.7,0.492
43.46,31858.0,34630.6,-0.5715,-0.9064,137.8,97.7,0.492
43.48,31826.8,34463.6,-0.6961,-1.316,137.8,97.7,0.492
43.5,31699.8,34419.7,-1.2029,-1.4237,137.8,97.7,0.492
43.52,31846.7,34596.7,-0.6167,-0.9897,137.8,97.7,0.492
43.54,31967.5,34971.0,-0.1347,-0.0713,137.8,97.7,0.492
43.56,32174.6,35263.6,0.6918,0.6464,137.8,97.7,0.492
43.58,32277.3,35594.1,1.1019,1.457,137.8,97.7,0.492
43.6,32349.8,35719.6,1.3909,1.7649,137.8,97.7,0.492
43.62,32431.1,35726.0,1.7156,1.7808,137.8,97.7,0.492
43.64,32277.6,35663.3,1.1029,1.6267,137.8,97.7,0.492
43.66,32215.2,35422.9,0.8538,1.0371,137.8,97.7,0.492
43.68,32075.8,35195.6,0.2975,0.4795,137.8,97.7,0.492
43.7,31992.0,35084.4,-0.037,0.2068,137.8,97.7,0.492
43.72,32063.0,35160.5,0.2466,0.3935,137.8,97.7,0.492
43.74,32045.0,34982.1,0.1747,-0.0441,137.8,97.7,0.492
43.76,31950.8,35007.3,-0.2014,0.0176,137.8,97.7,0.492
43.78,31867.2,34918.5,-0.5348,-0.2002,137.8,97.7,0.492
43.8,31928.2,34752.1,-0.2915,-0.6084,137.8,97.7,0.492
43.82,31800.6,34709.3,-0.8008,-0.7132,137.8,97.7,0.492
43.84,31773.5,34596.5,-0.9089,-0.99,137.8,97.7,0.492
43.86,31840.1,34707.8,-0.6431,-0.7169,137.8,97.7,0.492
43.88,31771.5,34563.7,-0.9166,-1.0704,137.8,97.7,0.492
43.9,31768.5,34520.4,-0.929,-1.1768,137.8,97.7,0.492
43.92,31698.8,34499.7,-1.2071,-1.2274,137.8,97.7,0.492
43.94,31739.4,34459.2,-1.0449,-1.3267,137.8,97.7,0.492
43.96,31848.3,34702.8,-0.6104,-0.7292,137.8,97.7,0.492
43.98,31967.8,35036.7,-0.1335,0.0897,137.8,97.7,0.492
44.0,32214.3,35376.5,0.8503,0.9234,137.8,97.7,0.492
44.02,32326.2,35537.3,1.297,1.3179,137.8,97.7,0.492
44.04,32320.4,35758.0,1.2739,1.8592,137.8,97.7,0.492
44.06,32257.5,35708.2,1.0226,1.7369,137.8,97.7,0.492
44.08,32367.9,35527.9,1.4632,1.2947,137.8,97.7,0.492
44.1,32143.0,35421.5,0.5656,1.0338,137.8,97.7,0.492
44.12,32117.0,35124.6,0.4622,0.3053,137.8,97.7,0.492
44.14,32053.5,35158.9,0.2085,0.3895,137.8,97.7,0.492
44.16,31996.0,35067.8,-0.0207,0.1662,137.8,97.7,0.492
44.18,31981.8,34976.7,-0.0775,-0.0574,137.8,97.7,0.492
44.2,31907.6,34813.1,-0.3735,-0.4587,137.8,97.7,0.492
44.22,31962.5,34745.1,-0.1544,-0.6255,137.8,97.7,0.492
44.24,31931.3,34724.5,-0.2793,-0.676,137.8,97.7,0.492
44.26,31771.5,34785.4,-0.9168,-0.5266,137.8,97.7,0.492
44.28,31817.9,34725.4,-0.7316,-0.6739,137.8,97.7,0.492
44.3,31860.5,34614.7,-0.5616,-0.9453,137.8,97.7,0.492
44.32,31777.4,34564.2,-0.8932,-1.0692,137.8,97.7,0.492
44.34,31842.9,34600.3,-0.6318,-0.9808,137.8,97.7,0.492
44.36,31701.2,34439.2,-1.1973,-1.376,137.8,97.7,0.492
44.38,31794.3,34505.3,-0.8257,-1.2139,137.8,97.7,0.492
44.4,31853.0,34789.6,-0.5915,-0.5163,137.8,97.7,0.492
44.42,32021.5,35023.8,0.081,0.0582,137.8,97.7,0.492
44.44,32274.7,35361.5,1.0915,0.8866,137.8,97.7,0.492
44.46,32283.3,35660.5,1.1256,1.6199,137.8,97.7,0.492
44.48,32352.1,35803.0,1.4003,1.9695,137.8,97.7,0.492
44.5,32396.1,35678.4,1.5759,1.664,137.8,97.7,0.492
44.52,32236.0,35485.7,0.9368,1.1912,137.8,97.7,0.492
44.54,32110.5,35244.4,0.4361,0.5993,137.8,97.7,0.492
44.56,32058.0,35097.6,0.2265,0.2391,137.8,97.7,0.492
44.58,31990.8,35058.3,-0.0416,0.1428,137.8,97.7,0.492
44.6,31952.1,34988.7,-0.1959,-0.028,137.8,97.7,0.492
44.62,31953.0,35001.5,-0.1923,0.0035,137.8,97.7,0.492
44.64,31879.0,34914.2,-0.4878,-0.2107,137.8,97.7,0.492
44.66,31992.0,34761.4,-0.0369,-0.5854,137.8,97.7,0.492
44.68,31863.6,34767.5,-0.5493,-0.5707,137.8,97.7,0.492
44.7,31867.2,34723.5,-0.5348,-0.6785,137.8,97.7,0.492
44.72,31840.9,34627.8,-0.64,-0.9134,137.8,97.7,0.492
44.74,31862.2,34642.6,-0.5548,-0.8769,137.8,97.7,0.492
44.76,31817.3,34569.4,-0.7339,-1.0565,137.8,97.7,0.492
44.78,31838.9,34521.4,-0.6477,-1.1743,137.8,97.7,0.492
44.8,31757.1,34439.9,-0.9742,-1.3742,137.8,97.7,0.492
44.82,31834.0,34552.2,-0.6672,-1.0988,137.8,97.7,0.492
44.84,31943.3,34892.1,-0.2313,-0.2649,137.8,97.7,0.492
44.86,32012.5,35193.9,0.0449,0.4753,137.8,97.7,0.492
