timestamp,raw_red,raw_ir,filtered_red,filtered_ir,heart_rate,spo2,ac_dc_ratio
0.0,31986.1,35222.3,-0.082,0.5503,148.3,98.3,0.468
0.02,32222.7,35589.3,1.238,1.4562,148.3,98.3,0.468
0.04,32246.9,35785.3,1.3727,1.9399,148.3,98.3,0.468
0.06,32275.9,35813.0,1.5347,2.0083,148.3,98.3,0.468
0.08,32254.6,35612.0,1.4155,1.5122,148.3,98.3,0.468
0.1,32051.8,35455.7,0.2848,1.1265,148.3,98.3,0.468
0.12,32082.5,35140.1,0.4556,0.3474,148.3,98.3,0.468
0.14,32086.7,35145.3,0.4791,0.3601,148.3,98.3,0.468
0.16,32024.8,35047.9,0.1342,0.1198,148.3,98.3,0.468
0.18,31989.9,34998.4,-0.0609,-0.0024,148.3,98.3,0.468
0.2,31938.8,34864.0,-0.3458,-0.3341,148.3,98.3,0.468
0.22,31823.9,34776.5,-0.9863,-0.55,148.3,98.3,0.468
0.24,31735.2,34739.7,-1.4811,-0.6409,148.3,98.3,0.468
0.26,31787.3,34651.7,-1.1909,-0.8581,148.3,98.3,0.468
0.28,31816.5,34609.3,-1.0279,-0.9627,148.3,98.3,0.468
0.3,31777.3,34587.1,-1.2464,-1.0174,148.3,98.3,0.468
0.32,31775.2,34608.9,-1.2581,-0.9637,148.3,98.3,0.468
0.34,31753.4,34497.7,-1.3796,-1.2381,148.3,98.3,0.468
0.36,31719.4,34463.6,-1.5693,-1.3224,148.3,98.3,0.468
0.38,31883.6,34699.7,-0.6534,-0.7397,148.3,98.3,0.468
0.4,32056.8,35151.4,0.3127,0.3753,148.3,98.3,0.468
0.42,32189.9,35429.2,1.0548,1.061,148.3,98.3,0.468
0.44,32290.5,35779.2,1.6161,1.9248,148.3,98.3,0.468
0.46,32402.8,35735.1,2.2426,1.8159,148.3,98.3,0.468
0.48,32241.9,35680.1,1.345,1.6802,148.3,98.3,0.468
0.5,32216.2,35409.4,1.2014,1.0121,148.3,98.3,0.468
0.52,31990.7,35295.4,-0.0564,0.7307,148.3,98.3,0.468
0.54,32121.8,35198.1,0.6753,0.4905,148.3,98.3,0.468
0.56,32056.8,35127.1,0.3126,0.3152,148.3,98.3,0.468
0.58,32032.4,35030.1,0.1761,0.0759,148.3,98.3,0.468
0.6,31949.6,34863.7,-0.2852,-0.3349,148.3,98.3,0.468
0.62,31874.1,34917.2,-0.7067,-0.2027,148.3,98.3,0.468
0.64,31823.3,34763.6,-0.9899,-0.5819,148.3,98.3,0.468
0.66,31949.1,34671.0,-0.288,-0.8105,148.3,98.3,0.468
0.68,31908.1,34723.7,-0.5168,-0.6803,148.3,98.3,0.468
0.7,31792.9,34622.1,-1.1593,-0.9311,148.3,98.3,0.468
0.72,31798.1,34567.9,-1.1307,-1.0648,148.3,98.3,0.468
0.74,31729.2,34425.5,-1.515,-1.4165,148.3,98.3,0.468
0.76,31748.7,34475.5,-1.4058,-1.2929,148.3,98.3,0.468
0.78,31891.8,34641.0,-0.6078,-0.8846,148.3,98.3,0.468
0.8,32097.4,34942.9,0.5389,-0.1393,148.3,98.3,0.468
0.82,32136.8,35378.4,0.7587,0.9355,148.3,98.3,0.468
0.84,32296.2,35689.7,1.6477,1.7039,148.3,98.3,0.468
0.86,32251.3,35800.2,1.3974,1.9767,148.3,98.3,0.468
0.88,32274.6,35578.9,1.5271,1.4305,148.3,98.3,0.468
0.9,32188.0,35487.0,1.044,1.2036,148.3,98.3,0.468
0.92,32125.7,35275.4,0.6967,0.6813,148.3,98.3,0.468
0.94,32081.1,35137.2,0.4481,0.3402,148.3,98.3,0.468
0.96,32010.0,35157.1,0.0515,0.3893,148.3,98.3,0.468
0.98,32093.7,35045.2,0.5183,0.1131,148.3,98.3,0.468
1.0,32013.4,34932.1,0.0703,-0.1661,148.3,98.3,0.468
1.02,31999.8,34803.9,-0.0053,-0.4824,148.3,98.3,0.468
1.04,31904.1,34652.5,-0.5393,-0.856,148.3,98.3,0.468
1.06,31855.8,34587.7,-0.8088,-1.016,148.3,98.3,0.468
1.08,31878.9,34634.3,-0.6795,-0.901,148.3,98.3,0.468
1.1,31802.2,34590.8,-1.1073,-1.0085,148.3,98.3,0.468
1.12,31785.6,34592.2,-1.2004,-1.0049,148.3,98.3,0.468
1.14,31731.7,34464.7,-1.5007,-1.3196,148.3,98.3,0.468
1.16,31712.9,34510.9,-1.6054,-1.2055,148.3,98.3,0.468
1.18,31841.4,34603.5,-0.8889,-0.9769,148.3,98.3,0.468
1.2,31969.6,34805.8,-0.1738,-0.4776,148.3,98.3,0.468
1.22,32102.9,35274.6,0.5694,0.6794,148.3,98.3,0.468
1.24,32233.5,35565.3,1.2982,1.3969,148.3,98.3,0.468
1.26,32295.6,35749.7,1.6444,1.852,148.3,98.3,0.468
1.28,32293.6,35648.7,1.6332,1.6028,148.3,98.3,0.468
1.3,32170.3,35502.7,0.9456,1.2424,148.3,98.3,0.468
1.32,32198.2,35342.3,1.1013,0.8464,148.3,98.3,0.468
1.34,32017.7,35240.6,0.0943,0.5953,148.3,98.3,0.468
1.36,31985.2,35088.5,-0.0868,0.2202,148.3,98.3,0.468
1.38,32061.1,35028.2,0.3365,0.0713,148.3,98.3,0.468
1.4,31979.2,34985.7,-0.1201,-0.0337,148.3,98.3,0.468
1.42,31996.1,34867.6,-0.0259,-0.3252,148.3,98.3,0.468
1.44,31867.7,34773.1,-0.7425,-0.5585,148.3,98.3,0.468
1.46,31972.9,34621.0,-0.1553,-0.9338,148.3,98.3,0.468
1.48,31845.1,34675.2,-0.8685,-0.8,148.3,98.3,0.468
1.5,31849.4,34617.8,-0.8442,-0.9416,148.3,98.3,0.468
1.52,31778.5,34602.4,-1.2399,-0.9797,148.3,98.3,0.468
1.54,31768.0,34466.8,-1.2984,-1.3144,148.3,98.3,0.468
1.56,31712.1,34527.2,-1.6098,-1.1653,148.3,98.3,0.468
1.58,31846.6,34630.6,-0.86,-0.9101,148.3,98.3,0.468
1.6,31942.3,34861.7,-0.3259,-0.3397,148.3,98.3,0.468
1.62,32132.6,35273.6,0.7351,0.6768,148.3,98.3,0.468
1.64,32284.9,35485.0,1.5847,1.1987,148.3,98.3,0.468
1.66,32265.1,35722.0,1.474,1.7837,148.3,98.3,0.468
1.68,32378.0,35754.8,2.1042,1.8646,148.3,98.3,0.468
1.7,32330.1,35556.1,1.8369,1.3743,148.3,98.3,0.468
1.72,32100.4,35432.9,0.5559,1.07,148.3,98.3,0.468
1.74,32113.3,35250.2,0.6279,0.6192,148.3,98.3,0.468
1.76,32024.3,35094.5,0.1311,0.2349,148.3,98.3,0.468
1.78,32047.7,35029.6,0.262,0.0747,148.3,98.3,0.468
1.8,32041.8,35005.7,0.2288,0.0157,148.3,98.3,0.468
1.82,31972.0,34940.9,-0.1606,-0.1442,148.3,98.3,0.468
1.84,31938.9,34708.3,-0.3452,-0.7185,148.3,98.3,0.468
1.86,31932.0,34673.7,-0.3837,-0.8038,148.3,98.3,0.468
1.88,31789.8,34612.0,-1.177,-0.9562,148.3,98.3,0.468
1.9,31918.4,34733.4,-0.4597,-0.6564,148.3,98.3,0.468
1.92,31737.8,34593.4,-1.4665,-1.0019,148.3,98.3,0.468
1.94,31804.2,34595.2,-1.0967,-0.9975,148.3,98.3,0.468
1.96,31861.0,34462.5,-0.7799,-1.3252,148.3,98.3,0.468
1.98,31840.7,34475.5,-0.893,-1.2929,148.3,98.3,0.468
2.0,31893.2,34675.6,-0.6001,-0.799,148.3,98.3,0.468
2.02,32156.7,35159.7,0.8696,0.3959,148.3,98.3,0.468
2.04,32172.8,35473.1,0.9597,1.1693,148.3,98.3,0.468
2.06,32224.1,35805.4,1.2458,1.9895,148.3,98.3,0.468
2.08,32421.5,35708.4,2.3465,1.75,148.3,98.3,0.468
2.1,32157.5,35669.9,0.8742,1.6549,148.3,98.3,0.468
2.12,32198.4,35365.5,1.1022,0.9038,148.3,98.3,0.468
2.14,32048.2,35259.0,0.2647,0.6408,148.3,98.3,0.468
2.16,32061.5,35179.3,0.3385,0.4441,148.3,98.3,0.468
2.18,32057.4,35097.7,0.3156,0.2427,148.3,98.3,0.468
2.2,32026.9,34925.8,0.1458,-0.1815,148.3,98.3,0.468
2.22,31986.6,34886.0,-0.079,-0.2799,148.3,98.3,0.468
2.24,31859.5,34879.9,-0.7881,-0.2948,148.3,98.3,0.468
2.26,31844.7,34663.7,-0.8705,-0.8284,148.3,98.3,0.468
2.28,31823.0,34674.8,-0.9913,-0.8011,148.3,98.3,0.468
2.3,31774.1,34636.3,-1.2643,-0.8962,148.3,98.3,0.468
2.32,31894.9,34657.8,-0.5904,-0.8431,148.3,98.3,0.468
2.34,31850.4,34505.1,-0.8389,-1.2199,148.3,98.3,0.468
2.36,31804.2,34372.1,-1.0966,-1.5481,148.3,98.3,0.468
2.38,31822.2,34451.2,-0.9963,-1.3529,148.3,98.3,0.468
2.4,31869.1,34668.3,-0.7344,-0.8171,148.3,98.3,0.468
2.42,32030.2,34917.3,0.1642,-0.2024,148.3,98.3,0.468
2.44,32150.1,35358.5,0.833,0.8863,148.3,98.3,0.468
2.46,32408.5,35687.8,2.2742,1.6992,148.3,98.3,0.468
2.48,32260.7,35718.0,1.4496,1.7738,148.3,98.3,0.468
2.5,32296.3,35673.0,1.6485,1.6627,148.3,98.3,0.468
2.52,32243.0,35361.1,1.3512,0.8928,148.3,98.3,0.468
2.54,32086.8,35262.0,0.4797,0.6482,148.3,98.3,0.468
2.56,32024.9,35050.8,0.1344,0.127,148.3,98.3,0.468
2.58,32061.4,35059.6,0.3382,0.1486,148.3,98.3,0.468
2.6,32055.7,35040.2,0.3061,0.1009,148.3,98.3,0.468
2.62,31938.8,34943.1,-0.3459,-0.1388,148.3,98.3,0.468
2.64,31918.4,34750.2,-0.4595,-0.6149,148.3,98.3,0.468
2.66,31879.9,34645.9,-0.6744,-0.8725,148.3,98.3,0.468
2.68,31788.4,34714.3,-1.1847,-0.7036,148.3,98.3,0.468
2.7,31851.0,34664.9,-0.8355,-0.8255,148.3,98.3,0.468
2.72,31816.7,34620.8,-1.0269,-0.9344,148.3,98.3,0.468
2.74,31835.1,34538.5,-0.9242,-1.1374,148.3,98.3,0.468
2.76,31798.1,34414.8,-1.1303,-1.4428,148.3,98.3,0.468
2.78,31756.8,34466.1,-1.3608,-1.3161,148.3,98.3,0.468
2.8,31853.5,34682.4,-0.8216,-0.7823,148.3,98.3,0.468
2.82,31958.1,34889.2,-0.2379,-0.2718,148.3,98.3,0.468
2.84,32196.6,35325.1,1.0922,0.8039,148.3,98.3,0.468
2.86,32302.4,35682.3,1.6825,1.6857,148.3,98.3,0.468
2.88,32366.4,35902.0,2.0394,2.2279,148.3,98.3,0.468
2.9,32275.8,35710.7,1.5341,1.7557,148.3,98.3,0.468
2.92,32161.3,35561.4,0.8952,1.3873,148.3,98.3,0.468
2.94,32052.1,35379.0,0.2861,0.9369,148.3,98.3,0.468
2.96,32040.2,35104.3,0.2197,0.2592,148.3,98.3,0.468
2.98,32058.9,35081.4,0.324,0.2025,148.3,98.3,0.468
3.0,32079.0,35041.4,0.4365,0.1037,148.3,98.3,0.468
3.02,31948.0,34993.7,-0.2943,-0.014,148.3,98.3,0.468
3.04,31959.2,34813.3,-0.232,-0.4592,148.3,98.3,0.468
3.06,31928.6,34750.9,-0.4024,-0.6133,148.3,98.3,0.468
3.08,31931.0,34720.8,-0.3891,-0.6875,148.3,98.3,0.468
3.1,31864.2,34644.6,-0.7615,-0.8755,148.3,98.3,0.468
3.12,31922.9,34653.0,-0.4345,-0.8548,148.3,98.3,0.468
3.14,31769.3,34573.5,-1.2909,-1.051,148.3,98.3,0.468
3.16,31750.2,34406.5,-1.3975,-1.4632,148.3,98.3,0.468
3.18,31623.9,34445.2,-2.1019,-1.3678,148.3,98.3,0.468
3.2,31623.8,34601.3,-2.1028,-0.9825,148.3,98.3,0.468
3.22,31938.3,34825.9,-0.3483,-0.4281,148.3,98.3,0.468
3.24,32100.0,35241.4,0.5533,0.5976,148.3,98.3,0.468
3.26,32145.1,35607.8,0.8049,1.5019,148.3,98.3,0.468
3.28,32287.4,35744.8,1.5986,1.8399,148.3,98.3,0.468
3.3,32342.2,35717.5,1.9043,1.7726,148.3,98.3,0.468
3.32,32278.3,35577.3,1.5481,1.4264,148.3,98.3,0.468
3.34,32104.1,35372.0,0.5761,0.9198,148.3,98.3,0.468
3.36,32069.1,35157.8,0.3809,0.3912,148.3,98.3,0.468
3.38,32001.2,35141.2,0.0021,0.3502,148.3,98.3,0.468
3.4,32045.6,35085.5,0.2498,0.2125,148.3,98.3,0.468
3.42,32036.0,35026.1,0.1964,0.0661,148.3,98.3,0.468
3.44,32058.3,35008.1,0.3208,0.0216,148.3,98.3,0.468
3.46,31949.7,34824.6,-0.2848,-0.4312,148.3,98.3,0.468
3.48,31981.7,34796.0,-0.1064,-0.502,148.3,98.3,0.468
3.5,31884.5,34658.7,-0.6483,-0.8409,148.3,98.3,0.468
3.52,31827.9,34640.1,-0.9643,-0.8866,148.3,98.3,0.468
3.54,31890.9,34649.8,-0.6126,-0.8628,148.3,98.3,0.468
3.56,31756.8,34522.1,-1.3607,-1.178,148.3,98.3,0.468
3.58,31803.8,34433.1,-1.0988,-1.3976,148.3,98.3,0.468
3.6,31825.0,34572.8,-0.9805,-1.0529,148.3,98.3,0.468
3.62,31916.1,34780.2,-0.472,-0.5408,148.3,98.3,0.468
3.64,32136.1,35081.6,0.7545,0.2031,148.3,98.3,0.468
3.66,32242.7,35466.8,1.3496,1.1538,148.3,98.3,0.468
3.68,32282.7,35680.1,1.5726,1.6803,148.3,98.3,0.468
3.7,32339.9,35673.6,1.8917,1.6643,148.3,98.3,0.468
3.72,32272.3,35527.2,1.5142,1.3028,148.3,98.3,0.468
3.74,32105.2,35301.2,0.5823,0.745,148.3,98.3,0.468
3.76,32062.2,35235.2,0.3426,0.5821,148.3,98.3,0.468
3.78,32094.5,35105.4,0.5225,0.2618,148.3,98.3,0.468
3.8,32047.0,35078.7,0.258,0.1957,148.3,98.3,0.468
3.82,31961.4,35028.7,-0.2194,0.0724,148.3,98.3,0.468
3.84,31981.6,34927.9,-0.1069,-0.1764,148.3,98.3,0.468
3.86,32009.1,34871.9,0.0463,-0.3147,148.3,98.3,0.468
3.88,31879.5,34603.5,-0.6767,-0.9771,148.3,98.3,0.468
3.9,31858.4,34733.7,-0.7942,-0.6557,148.3,98.3,0.468
3.92,31835.2,34626.2,-0.9235,-0.9211,148.3,98.3,0.468
3.94,31876.1,34651.5,-0.6955,-0.8586,148.3,98.3,0.468
3.96,31826.7,34491.8,-0.9711,-1.2528,148.3,98.3,0.468
3.98,31789.9,34477.6,-1.1762,-1.2877,148.3,98.3,0.468
4.0,31831.7,34393.7,-0.9428,-1.495,148.3,98.3,0.468
4.02,31934.5,34775.6,-0.3696,-0.5523,148.3,98.3,0.468
4.04,32028.9,35114.1,0.1568,0.2832,148.3,98.3,0.468
4.06,32255.7,35473.4,1.4219,1.1702,148.3,98.3,0.468
4.08,32308.4,35707.2,1.716,1.747,148.3,98.3,0.468
4.1,32375.8,35709.2,2.0916,1.7519,148.3,98.3,0.468
4.12,32304.8,35625.3,1.6956,1.545,148.3,98.3,0.468
4.14,32184.5,35422.7,1.0249,1.0449,148.3,98.3,0.468
4.16,32225.3,35155.6,1.2522,0.3857,148.3,98.3,0.468
4.18,32085.5,35140.1,0.4727,0.3473,148.3,98.3,0.468
4.2,32062.0,35055.6,0.3413,0.1389,148.3,98.3,0.468
4.22,32016.5,35099.3,0.0877,0.2468,148.3,98.3,0.468
4.24,31987.8,34906.5,-0.0721,-0.2291,148.3,98.3,0.468
4.26,31902.3,34819.9,-0.5493,-0.443,148.3,98.3,0.468
4.28,31929.0,34724.0,-0.4006,-0.6795,148.3,98.3,0.468
4.3,31727.6,34693.0,-1.5235,-0.756,148.3,98.3,0.468
4.32,31849.1,34658.8,-0.846,-0.8406,148.3,98.3,0.468
4.34,31790.6,34613.1,-1.1725,-0.9534,148.3,98.3,0.468
4.36,31866.4,34500.7,-0.7496,-1.2308,148.3,98.3,0.468
4.38,31827.7,34391.6,-0.9652,-1.5,148.3,98.3,0.468
4.4,31788.3,34439.4,-1.1853,-1.382,148.3,98.3,0.468
4.42,31859.6,34593.8,-0.7874,-1.0009,148.3,98.3,0.468
4.44,31923.0,34949.9,-0.4338,-0.1221,148.3,98.3,0.468
4.46,32162.0,35275.2,0.8993,0.6808,148.3,98.3,0.468
4.48,32301.4,35728.0,1.6768,1.7986,148.3,98.3,0.468
4.5,32392.7,35787.9,2.1859,1.9464,148.3,98.3,0.468
4.52,32329.5,35690.2,1.8336,1.7052,148.3,98.3,0.468
4.54,32139.8,35351.6,0.7755,0.8695,148.3,98.3,0.468
4.56,32153.7,35274.6,0.8532,0.6795,148.3,98.3,0.468
4.58,32051.1,35187.3,0.2809,0.4639,148.3,98.3,0.468
4.6,32068.9,35084.4,0.3798,0.2098,148.3,98.3,0.468
4.62,32079.3,35101.1,0.4378,0.251,148.3,98.3,0.468
4.64,31906.5,34978.7,-0.526,-0.0509,148.3,98.3,0.468
4.66,31939.7,34910.8,-0.3406,-0.2186,148.3,98.3,0.468
4.68,31912.1,34701.9,-0.4947,-0.7341,148.3,98.3,0.468
4.7,31868.6,34779.4,-0.7373,-0.5428,148.3,98.3,0.468
4.72,31880.9,34682.8,-0.6687,-0.7812,148.3,98.3,0.468
4.74,31917.3,34584.3,-0.4656,-1.0243,148.3,98.3,0.468
4.76,31809.3,34436.6,-1.0682,-1.389,148.3,98.3,0.468
4.78,31801.5,34462.8,-1.1114,-1.3243,148.3,98.3,0.468
4.8,31792.8,34523.8,-1.1597,-1.1738,148.3,98.3,0.468
4.82,31859.6,34513.4,-0.7875,-1.1995,148.3,98.3,0.468
4.84,31861.1,34925.5,-0.7788,-0.1824,148.3,98.3,0.468
4.86,32090.7,35383.7,0.5016,0.9486,148.3,98.3,0.468
4.88,32254.9,35638.0,1.4173,1.5763,148.3,98.3,0.468
4.9,32405.7,35791.9,2.2585,1.9561,148.3,98.3,0.468
4.92,32303.2,35725.2,1.6867,1.7917,148.3,98.3,0.468
4.94,32196.5,35600.0,1.0918,1.4825,148.3,98.3,0.468
4.96,32106.1,35358.4,0.5873,0.8862,148.3,98.3,0.468
4.98,32016.5,35205.3,0.0878,0.5084,148.3,98.3,0.468
5.0,32020.3,35110.0,0.1091,0.273,148.3,98.3,0.468
5.02,32037.4,35033.7,0.2043,0.0847,148.3,98.3,0.468
5.04,32016.9,34982.7,0.0898,-0.041,148.3,98.3,0.468
5.06,31887.9,34909.1,-0.6297,-0.2228,148.3,98.3,0.468
5.08,31854.1,34725.3,-0.8182,-0.6765,148.3,98.3,0.468
5.1,31876.3,34644.3,-0.6945,-0.8764,148.3,98.3,0.468
5.12,31891.5,34662.3,-0.6094,-0.8319,148.3,98.3,0.468
5.14,31850.3,34637.1,-0.8395,-0.8942,148.3,98.3,0.468
5.16,31705.9,34627.7,-1.6444,-0.9173,148.3,98.3,0.468
5.18,31818.0,34479.2,-1.0193,-1.2838,148.3,98.3,0.468
5.2,31843.8,34478.3,-0.8756,-1.2861,148.3,98.3,0.468
5.22,31767.4,34512.2,-1.3019,-1.2024,148.3,98.3,0.468
5.24,31954.0,34840.4,-0.2608,-0.3923,148.3,98.3,0.468
5.26,32086.2,35168.1,0.4766,0.4164,148.3,98.3,0.468
5.28,32236.2,35604.2,1.3128,1.493,148.3,98.3,0.468
5.3,32293.5,35735.2,1.6328,1.8163,148.3,98.3,0.468
5.32,32253.6,35668.8,1.4101,1.6524,148.3,98.3,0.468
5.34,32263.9,35608.1,1.4676,1.5024,148.3,98.3,0.468
5.36,32155.7,35351.6,0.8642,0.8694,148.3,98.3,0.468
5.38,32090.2,35135.3,0.4987,0.3357,148.3,98.3,0.468
5.4,32122.6,35082.7,0.6793,0.2057,148.3,98.3,0.468
5.42,32044.7,34994.0,0.245,-0.0133,148.3,98.3,0.468
5.44,31928.1,34998.5,-0.4051,-0.0022,148.3,98.3,0.468
5.46,31951.6,34821.8,-0.2743,-0.4381,148.3,98.3,0.468
5.48,31978.3,34797.1,-0.1252,-0.4991,148.3,98.3,0.468
5.5,31863.9,34704.7,-0.7634,-0.7273,148.3,98.3,0.468
5.52,31845.9,34618.2,-0.8636,-0.9408,148.3,98.3,0.468
5.54,31774.2,34611.4,-1.2638,-0.9576,148.3,98.3,0.468
5.56,31811.0,34600.1,-1.0582,-0.9855,148.3,98.3,0.468
5.58,31844.3,34627.3,-0.8728,-0.9183,148.3,98.3,0.468
5.6,31793.8,34514.7,-1.1543,-1.1961,148.3,98.3,0.468
5.62,31798.3,34546.6,-1.1295,-1.1175,148.3,98.3,0.468
5.64,31896.5,34679.6,-0.5818,-0.7892,148.3,98.3,0.468
5.66,32066.2,35097.8,0.3648,0.243,148.3,98.3,0.468
5.68,32215.7,35456.1,1.1987,1.1274,148.3,98.3,0.468
5.7,32305.1,35746.8,1.6976,1.8448,148.3,98.3,0.468
5.72,32227.4,35793.0,1.2643,1.9588,148.3,98.3,0.468
5.74,32214.6,35505.4,1.1925,1.2491,148.3,98.3,0.468
5.76,32133.9,35357.2,0.7424,0.8833,148.3,98.3,0.468
5.78,32047.0,35297.1,0.2576,0.7349,148.3,98.3,0.468
5.8,32021.4,35140.0,0.1153,0.3472,148.3,98.3,0.468
5.82,32071.6,35024.6,0.3953,0.0623,148.3,98.3,0.468
5.84,31980.3,34954.3,-0.1144,-0.1113,148.3,98.3,0.468
5.86,31994.7,34937.6,-0.0341,-0.1525,148.3,98.3,0.468
5.88,31928.1,34726.5,-0.4056,-0.6735,148.3,98.3,0.468
5.9,31870.2,34712.4,-0.7281,-0.7081,148.3,98.3,0.468
5.92,31823.8,34619.1,-0.9873,-0.9386,148.3,98.3,0.468
5.94,31900.7,34701.0,-0.5581,-0.7365,148.3,98.3,0.468
5.96,31887.6,34621.3,-0.6312,-0.9332,148.3,98.3,0.468
5.98,31804.2,34493.1,-1.0961,-1.2495,148.3,98.3,0.468
6.0,31844.6,34543.0,-0.8712,-1.1263,148.3,98.3,0.468
6.02,31870.1,34471.4,-0.7287,-1.3031,148.3,98.3,0.468
6.04,31833.5,34634.7,-0.9328,-0.9001,148.3,98.3,0.468
6.06,32008.7,34996.0,0.0442,-0.0083,148.3,98.3,0.468
6.08,32134.8,35399.3,0.7477,0.9872,148.3,98.3,0.468
6.1,32278.0,35657.8,1.5462,1.6251,148.3,98.3,0.468
6.12,32284.7,35775.6,1.5837,1.916,148.3,98.3,0.468
6.14,32249.8,35594.7,1.3887,1.4695,148.3,98.3,0.468
6.16,32201.9,35408.0,1.1215,1.0086,148.3,98.3,0.468
6.18,32131.7,35252.1,0.7305,0.6239,148.3,98.3,0.468
6.2,32012.7,35158.3,0.0667,0.3923,148.3,98.3,0.468
6.22,32035.1,35026.4,0.1916,0.0667,148.3,98.3,0.468
6.24,31973.9,35047.3,-0.15,0.1185,148.3,98.3,0.468
6.26,32063.3,34884.9,0.3486,-0.2826,148.3,98.3,0.468
6.28,31907.5,34793.5,-0.5203,-0.508,148.3,98.3,0.468
6.3,31837.7,34739.1,-0.9098,-0.6424,148.3,98.3,0.468
6.32,31807.3,34618.4,-1.0793,-0.9403,148.3,98.3,0.468
6.34,31864.2,34691.9,-0.762,-0.7588,148.3,98.3,0.468
6.36,31875.1,34546.2,-0.7007,-1.1185,148.3,98.3,0.468
6.38,31789.9,34548.2,-1.176,-1.1135,148.3,98.3,0.468
6.4,31879.6,34410.4,-0.6758,-1.4535,148.3,98.3,0.468
6.42,31720.1,34423.3,-1.5656,-1.4218,148.3,98.3,0.468
6.44,31821.9,34632.9,-0.9977,-0.9044,148.3,98.3,0.468
6.46,31978.4,34870.8,-0.1248,-0.3173,148.3,98.3,0.468
6.48,32040.0,35186.4,0.2185,0.4617,148.3,98.3,0.468
6.5,32298.7,35700.6,1.6617,1.731,148.3,98.3,0.468
6.52,32266.0,35718.5,1.4792,1.7751,148.3,98.3,0.468
6.54,32357.6,35678.1,1.9903,1.6753,148.3,98.3,0.468
6.56,32145.7,35518.8,0.808,1.2821,148.3,98.3,0.468
6.58,32118.4,35288.2,0.6558,0.7129,148.3,98.3,0.468
6.6,32070.1,35210.4,0.3867,0.5209,148.3,98.3,0.468
6.62,32028.8,35099.9,0.1564,0.2483,148.3,98.3,0.468
6.64,31996.5,35022.9,-0.024,0.0581,148.3,98.3,0.468
6.66,32022.1,34901.3,0.1189,-0.242,148.3,98.3,0.468
6.68,31946.0,34837.3,-0.3057,-0.4,148.3,98.3,0.468
6.7,31884.4,34665.1,-0.6493,-0.825,148.3,98.3,0.468
6.72,31827.3,34686.0,-0.9678,-0.7734,148.3,98.3,0.468
6.74,31974.2,34737.6,-0.1482,-0.6461,148.3,98.3,0.468
6.76,31842.8,34718.3,-0.8812,-0.6937,148.3,98.3,0.468
6.78,31817.3,34619.6,-1.0236,-0.9372,148.3,98.3,0.468
6.8,31807.1,34471.2,-1.0801,-1.3035,148.3,98.3,0.468
6.82,31787.1,34457.0,-1.192,-1.3387,148.3,98.3,0.468
6.84,31793.7,34584.7,-1.155,-1.0234,148.3,98.3,0.468
6.86,31999.4,34826.1,-0.0076,-0.4276,148.3,98.3,0.468
6.88,32032.4,35173.1,0.1761,0.4288,148.3,98.3,0.468
6.9,32272.4,35533.8,1.5148,1.3192,148.3,98.3,0.468
6.92,32272.9,35697.8,1.5177,1.7239,148.3,98.3,0.468
6.94,32299.6,35790.7,1.6666,1.9533,148.3,98.3,0.468
6.96,32177.3,35498.7,0.9843,1.2324,148.3,98.3,0.468
6.98,32175.7,35261.4,0.9756,0.6469,148.3,98.3,0.468
7.0,32069.0,35251.3,0.3805,0.6219,148.3,98.3,0.468
7.02,32024.8,35172.7,0.1337,0.4278,148.3,98.3,0.468
7.04,32030.5,35093.1,0.1656,0.2314,148.3,98.3,0.468
7.06,32007.9,34960.7,0.0395,-0.0954,148.3,98.3,0.468
7.08,32017.1,34900.5,0.0912,-0.244,148.3,98.3,0.468
7.1,31872.0,34795.2,-0.7182,-0.504,148.3,98.3,0.468
7.12,31831.0,34605.4,-0.947,-0.9723,148.3,98.3,0.468
7.14,31854.8,34695.0,-0.8141,-0.7512,148.3,98.3,0.468
7.16,31842.7,34612.7,-0.8819,-0.9543,148.3,98.3,0.468
7.18,31813.8,34495.9,-1.0428,-1.2426,148.3,98.3,0.468
7.2,31860.9,34492.8,-0.7801,-1.2502,148.3,98.3,0.468
7.22,31775.8,34462.2,-1.2547,-1.3259,148.3,98.3,0.468
7.24,31771.5,34613.0,-1.2789,-0.9535,148.3,98.3,0.468
7.26,31971.6,34777.7,-0.163,-0.547,148.3,98.3,0.468
7.28,32113.4,35133.9,0.628,0.3322,148.3,98.3,0.468
7.3,32198.1,35475.1,1.1006,1.1743,148.3,98.3,0.468
7.32,32338.8,35630.4,1.8855,1.5577,148.3,98.3,0.468
7.34,32391.1,35625.5,2.1769,1.5455,148.3,98.3,0.468
7.36,32162.3,35525.6,0.9008,1.2989,148.3,98.3,0.468
7.38,32231.4,35428.2,1.2865,1.0586,148.3,98.3,0.468
7.4,32188.0,35123.7,1.0442,0.3069,148.3,98.3,0.468
7.42,32070.9,35127.1,0.391,0.3153,148.3,98.3,0.468
7.44,32018.5,35069.0,0.0986,0.1718,148.3,98.3,0.468
7.46,32001.5,34922.5,0.0041,-0.1896,148.3,98.3,0.468
7.48,31888.8,34830.5,-0.6245,-0.4167,148.3,98.3,0.468
7.5,31833.2,34798.5,-0.9349,-0.4957,148.3,98.3,0.468
7.52,31919.7,34664.3,-0.4522,-0.8268,148.3,98.3,0.468
7.54,31759.0,34653.0,-1.3485,-0.8547,148.3,98.3,0.468
7.56,31810.6,34657.8,-1.0605,-0.8431,148.3,98.3,0.468
7.58,31815.6,34557.9,-1.0328,-1.0897,148.3,98.3,0.468
7.6,31829.2,34513.4,-0.9571,-1.1994,148.3,98.3,0.468
7.62,31812.8,34450.7,-1.0485,-1.3542,148.3,98.3,0.468
7.64,31698.0,34564.6,-1.6886,-1.0732,148.3,98.3,0.468
7.66,31937.2,34631.2,-0.3548,-0.9086,148.3,98.3,0.468
7.68,32085.1,34965.3,0.4704,-0.0839,148.3,98.3,0.468
7.7,32217.7,35487.6,1.2097,1.2051,148.3,98.3,0.468
7.72,32241.5,35632.0,1.3428,1.5616,148.3,98.3,0.468
7.74,32281.9,35682.4,1.568,1.686,148.3,98.3,0.468
7.76,32256.9,35571.6,1.4283,1.4124,148.3,98.3,0.468
7.78,32216.3,35422.9,1.2022,1.0454,148.3,98.3,0.468
7.8,32105.6,35210.9,0.5847,0.5221,148.3,98.3,0.468
7.82,32097.8,35142.3,0.5412,0.3529,148.3,98.3,0.468
7.84,32032.3,35114.8,0.1757,0.2851,148.3,98.3,0.468
7.86,31977.1,35057.5,-0.1322,0.1435,148.3,98.3,0.468
7.88,31907.5,34980.1,-0.5204,-0.0475,148.3,98.3,0.468
7.9,31877.8,34841.4,-0.6861,-0.3898,148.3,98.3,0.468
7.92,31890.2,34754.8,-0.6168,-0.6036,148.3,98.3,0.468
7.94,31868.1,34704.1,-0.7401,-0.7287,148.3,98.3,0.468
7.96,31758.2,34751.9,-1.353,-0.6107,148.3,98.3,0.468
7.98,31768.1,34672.7,-1.2978,-0.8062,148.3,98.3,0.468
8.0,31726.5,34463.3,-1.5299,-1.3231,148.3,98.3,0.468
8.02,31706.6,34492.3,-1.6406,-1.2515,148.3,98.3,0.468
8.04,31783.3,34535.6,-1.2132,-1.1446,148.3,98.3,0.468
8.06,31851.1,34607.1,-0.835,-0.9682,148.3,98.3,0.468
8.08,31991.4,34952.9,-0.0523,-0.1146,148.3,98.3,0.468
8.1,32098.9,35331.3,0.5475,0.8192,148.3,98.3,0.468
8.12,32287.6,35595.6,1.5995,1.4716,148.3,98.3,0.468
8.14,32335.6,35785.3,1.8672,1.94,148.3,98.3,0.468
8.16,32347.3,35600.5,1.9326,1.4837,148.3,98.3,0.468
8.18,32181.4,35500.6,1.0076,1.2372,148.3,98.3,0.468
8.2,32135.6,35246.6,0.7519,0.6102,148.3,98.3,0.468
8.22,32123.9,35148.3,0.6869,0.3675,148.3,98.3,0.468
8.24,32007.9,35040.8,0.0399,0.1022,148.3,98.3,0.468
8.26,31966.4,35066.9,-0.1918,0.1667,148.3,98.3,0.468
8.28,31934.3,34960.9,-0.3707,-0.0948,148.3,98.3,0.468
8.3,31939.8,34825.3,-0.3403,-0.4296,148.3,98.3,0.468
8.32,31941.3,34711.1,-0.3315,-0.7115,148.3,98.3,0.468
8.34,31977.7,34722.0,-0.1289,-0.6844,148.3,98.3,0.468
8.36,31878.0,34593.2,-0.6846,-1.0025,148.3,98.3,0.468
8.38,31885.5,34676.0,-0.643,-0.798,148.3,98.3,0.468
8.4,31686.1,34564.2,-1.7549,-1.074,148.3,98.3,0.468
8.42,31783.3,34481.4,-1.2129,-1.2784,148.3,98.3,0.468
8.44,31694.8,34484.5,-1.7068,-1.2706,148.3,98.3,0.468
8.46,31833.0,34565.8,-0.9357,-1.0702,148.3,98.3,0.468
8.48,31914.1,34848.9,-0.4835,-0.3712,148.3,98.3,0.468
8.5,32103.4,35212.1,0.5724,0.5252,148.3,98.3,0.468
8.52,32181.9,35547.0,1.0105,1.3516,148.3,98.3,0.468
8.54,32384.1,35756.3,2.1378,1.8684,148.3,98.3,0.468
8.56,32297.8,35675.4,1.6565,1.6687,148.3,98.3,0.468
8.58,32138.5,35548.3,0.7684,1.3549,148.3,98.3,0.468
8.6,32126.5,35373.6,0.7012,0.9238,148.3,98.3,0.468
8.62,31946.3,35135.4,-0.3037,0.3358,148.3,98.3,0.468
8.64,32083.5,35078.8,0.4612,0.1961,148.3,98.3,0.468
8.66,31988.0,35047.0,-0.0714,0.1175,148.3,98.3,0.468
8.68,32032.1,34987.0,0.1745,-0.0304,148.3,98.3,0.468
8.7,31925.1,34902.6,-0.422,-0.2388,148.3,98.3,0.468
8.72,31832.8,34676.7,-0.9368,-0.7962,148.3,98.3,0.468
8.74,31785.1,34726.7,-1.2027,-0.6729,148.3,98.3,0.468
8.76,31818.1,34616.5,-1.019,-0.945,148.3,98.3,0.468
8.78,31865.4,34611.9,-0.755,-0.9563,148.3,98.3,0.468
8.8,31854.9,34522.6,-0.8137,-1.1768,148.3,98.3,0.468
8.82,31696.5,34512.6,-1.6971,-1.2015,148.3,98.3,0.468
8.84,31721.2,34474.9,-1.5595,-1.2945,148.3,98.3,0.468
8.86,31718.4,34561.3,-1.5748,-1.0811,148.3,98.3,0.468
8.88,31872.3,34796.6,-0.7164,-0.5004,148.3,98.3,0.468
8.9,32072.5,35333.6,0.4001,0.8251,148.3,98.3,0.468
8.92,32160.8,35577.7,0.8926,1.4274,148.3,98.3,0.468
8.94,32292.5,35788.7,1.6271,1.9483,148.3,98.3,0.468
8.96,32257.7,35728.2,1.4331,1.7989,148.3,98.3,0.468
8.98,32262.1,35630.1,1.4578,1.5568,148.3,98.3,0.468
9.0,32129.1,35386.1,0.7156,0.9547,148.3,98.3,0.468
9.02,32107.4,35190.2,0.5944,0.4709,148.3,98.3,0.468
9.04,32108.8,35035.9,0.6024,0.0901,148.3,98.3,0.468
9.06,31926.8,35067.1,-0.4127,0.1672,148.3,98.3,0.468
9.08,32012.7,34995.8,0.0664,-0.0087,148.3,98.3,0.468
9.1,31905.3,34966.8,-0.5325,-0.0803,148.3,98.3,0.468
9.12,31867.7,34811.4,-0.7422,-0.4639,148.3,98.3,0.468
9.14,31867.1,34643.0,-0.7458,-0.8796,148.3,98.3,0.468
9.16,31831.2,34719.3,-0.9457,-0.6911,148.3,98.3,0.468
9.18,31801.9,34602.0,-1.1092,-0.9807,148.3,98.3,0.468
9.2,31771.5,34614.8,-1.2787,-0.949,148.3,98.3,0.468
9.22,31749.0,34545.9,-1.4045,-1.1191,148.3,98.3,0.468
9.24,31688.2,34483.6,-1.7432,-1.2729,148.3,98.3,0.468
9.26,31741.5,34449.6,-1.4459,-1.357,148.3,98.3,0.468
9.28,31839.1,34700.5,-0.9018,-0.7376,148.3,98.3,0.468
9.3,32093.6,35135.8,0.5178,0.3367,148.3,98.3,0.468
9.32,32161.4,35437.4,0.8961,1.0811,148.3,98.3,0.468
9.34,32322.4,35686.3,1.7937,1.6955,148.3,98.3,0.468
9.36,32323.1,35821.2,1.7978,2.0286,148.3,98.3,0.468
9.38,32148.8,35629.7,0.8257,1.5557,148.3,98.3,0.468
9.4,32175.3,35423.7,0.9736,1.0474,148.3,98.3,0.468
9.42,32153.7,35211.0,0.8532,0.5223,148.3,98.3,0.468
9.44,32084.3,35088.0,0.466,0.2187,148.3,98.3,0.468
9.46,32080.9,35084.5,0.4469,0.2101,148.3,98.3,0.468
9.48,32064.2,34938.8,0.3539,-0.1495,148.3,98.3,0.468
9.5,31888.1,34943.7,-0.6284,-0.1373,148.3,98.3,0.468
9.52,31779.3,34911.9,-1.2354,-0.2157,148.3,98.3,0.468
9.54,31825.4,34740.4,-0.9779,-0.6391,148.3,98.3,0.468
9.56,31896.7,34780.7,-0.5804,-0.5398,148.3,98.3,0.468
9.58,31935.7,34680.2,-0.3627,-0.7876,148.3,98.3,0.468
9.6,31811.4,34609.7,-1.0562,-0.9618,148.3,98.3,0.468
9.62,31736.7,34549.0,-1.4728,-1.1115,148.3,98.3,0.468
9.64,31786.4,34485.3,-1.1958,-1.2687,148.3,98.3,0.468
9.66,31749.1,34444.0,-1.4039,-1.3708,148.3,98.3,0.468
9.68,31865.2,34646.3,-0.756,-0.8715,148.3,98.3,0.468
9.7,31971.6,35098.8,-0.1627,0.2454,148.3,98.3,0.468
9.72,32277.3,35388.8,1.5421,0.9611,148.3,98.3,0.468
9.74,32260.5,35737.7,1.4486,1.8224,148.3,98.3,0.468
9.76,32287.3,35740.5,1.598,1.8293,148.3,98.3,0.468
9.78,32252.7,35661.3,1.405,1.6338,148.3,98.3,0.468
9.8,32261.3,35456.9,1.453,1.1293,148.3,98.3,0.468
9.82,32180.0,35222.6,0.9997,0.551,148.3,98.3,0.468
9.84,32082.2,35058.7,0.4543,0.1465,148.3,98.3,0.468
9.86,32085.7,35201.4,0.4738,0.4987,148.3,98.3,0.468
9.88,31939.7,35034.6,-0.3408,0.087,148.3,98.3,0.468
9.9,32063.8,34910.0,0.3515,-0.2205,148.3,98.3,0.468
9.92,31854.7,34778.2,-0.8145,-0.5458,148.3,98.3,0.468
9.94,31865.6,34701.9,-0.754,-0.7341,148.3,98.3,0.468
9.96,31848.2,34572.7,-0.8507,-1.0531,148.3,98.3,0.468
9.98,31890.2,34657.3,-0.6168,-0.8441,148.3,98.3,0.468
10.0,31881.7,34630.8,-0.6644,-0.9096,148.3,98.3,0.468
10.02,31825.8,34553.5,-0.9758,-1.1006,148.3,98.3,0.468
10.04,31751.5,34475.0,-1.3906,-1.2941,148.3,98.3,0.468
10.06,31786.1,34464.2,-1.1975,-1.3208,148.3,98.3,0.468
10.08,31822.2,34603.3,-0.9961,-0.9775,148.3,98.3,0.468
10.1,32034.3,34911.7,0.187,-0.2162,148.3,98.3,0.468
10.12,32075.1,35278.8,0.4145,0.6896,148.3,98.3,0.468
10.14,32241.2,35589.5,1.3407,1.4566,148.3,98.3,0.468
10.16,32301.8,35768.0,1.6788,1.8972,148.3,98.3,0.468
10.18,32365.4,35643.4,2.0335,1.5897,148.3,98.3,0.468
10.2,32190.0,35375.4,1.0556,0.9281,148.3,98.3,0.468
10.22,32141.7,35273.4,0.786,0.6764,148.3,98.3,0.468
10.24,32065.1,35137.7,0.3588,0.3416,148.3,98.3,0.468
10.26,32013.3,35068.0,0.0701,0.1694,148.3,98.3,0.468
10.28,32045.3,35137.2,0.2484,0.3404,148.3,98.3,0.468
10.3,31911.8,34894.4,-0.496,-0.259,148.3,98.3,0.468
10.32,31967.3,34810.3,-0.1865,-0.4666,148.3,98.3,0.468
10.34,31931.2,34728.7,-0.3881,-0.6681,148.3,98.3,0.468
10.36,31732.4,34780.7,-1.4966,-0.5397,148.3,98.3,0.468
10.38,31828.6,34698.1,-0.9602,-0.7435,148.3,98.3,0.468
10.4,31825.5,34623.1,-0.9777,-0.9287,148.3,98.3,0.468
10.42,31819.8,34530.6,-1.0094,-1.1571,148.3,98.3,0.468
10.44,31689.6,34432.0,-1.7359,-1.4004,148.3,98.3,0.468
10.46,31854.3,34481.0,-0.8168,-1.2795,148.3,98.3,0.468
10.48,31777.7,34614.4,-1.2441,-0.9502,148.3,98.3,0.468
10.5,31879.5,34773.5,-0.6765,-0.5573,148.3,98.3,0.468
10.52,32068.2,35134.4,0.3759,0.3335,148.3,98.3,0.468
10.54,32273.8,35439.2,1.5225,1.0857,148.3,98.3,0.468
10.56,32346.6,35702.1,1.9286,1.7345,148.3,98.3,0.468
10.58,32271.0,35708.7,1.507,1.7508,148.3,98.3,0.468
10.6,32277.5,35441.2,1.5433,1.0907,148.3,98.3,0.468
10.62,32231.5,35348.8,1.2869,0.8626,148.3,98.3,0.468
10.64,32079.0,35236.2,0.436,0.5847,148.3,98.3,0.468
10.66,31996.6,35046.8,-0.0234,0.1172,148.3,98.3,0.468
10.68,32094.7,35087.2,0.5236,0.2168,148.3,98.3,0.468
10.7,31973.5,35060.6,-0.1519,0.1513,148.3,98.3,0.468
10.72,31924.6,34889.8,-0.4248,-0.2705,148.3,98.3,0.468
10.74,31851.1,34809.2,-0.8349,-0.4694,148.3,98.3,0.468
10.76,31837.4,34654.8,-0.9114,-0.8505,148.3,98.3,0.468
10.78,31863.6,34670.1,-0.7649,-0.8128,148.3,98.3,0.468
10.8,31838.4,34647.7,-0.9057,-0.8678,148.3,98.3,0.468
10.82,31917.9,34676.9,-0.4623,-0.7959,148.3,98.3,0.468
10.84,31800.1,34521.9,-1.1193,-1.1784,148.3,98.3,0.468
10.86,31805.4,34522.1,-1.0896,-1.1779,148.3,98.3,0.468
10.88,31774.8,34553.6,-1.2604,-1.1001,148.3,98.3,0.468
10.9,31903.0,34742.4,-0.5456,-0.6343,148.3,98.3,0.468
10.92,32037.3,35129.9,0.2036,0.3223,148.3,98.3,0.468
10.94,32080.9,35434.8,0.4467,1.0747,148.3,98.3,0.468
10.96,32329.2,35627.6,1.8318,1.5506,148.3,98.3,0.468
10.98,32356.9,35690.6,1.9862,1.7062,148.3,98.3,0.468
11.0,32269.8,35613.5,1.5007,1.516,148.3,98.3,0.468
11.02,32142.8,35425.2,0.7921,1.0511,148.3,98.3,0.468
11.04,32104.5,35243.0,0.5788,0.6013,148.3,98.3,0.468
11.06,32039.3,35085.5,0.2146,0.2127,148.3,98.3,0.468
11.08,32062.1,35056.2,0.3423,0.1404,148.3,98.3,0.468
11.1,31956.0,34975.7,-0.2495,-0.0584,148.3,98.3,0.468
11.12,31901.9,34927.3,-0.5517,-0.1779,148.3,98.3,0.468
11.14,32058.5,34839.2,0.3217,-0.3952,148.3,98.3,0.468
11.16,31840.8,34651.2,-0.8924,-0.8593,148.3,98.3,0.468
11.18,31861.1,34683.9,-0.7791,-0.7785,148.3,98.3,0.468
11.2,31814.2,34685.3,-1.0406,-0.775,148.3,98.3,0.468
11.22,31783.2,34591.6,-1.2134,-1.0065,148.3,98.3,0.468
11.24,31858.2,34552.3,-0.795,-1.1034,148.3,98.3,0.468
11.26,31722.9,34466.4,-1.55,-1.3153,148.3,98.3,0.468
11.28,31761.3,34450.0,-1.3355,-1.3559,148.3,98.3,0.468
11.3,31865.9,34749.0,-0.7521,-0.618,148.3,98.3,0.468
11.32,32076.2,35082.6,0.4206,0.2054,148.3,98.3,0.468
11.34,32180.7,35446.9,1.0035,1.1046,148.3,98.3,0.468
11.36,32377.7,35682.3,2.1025,1.6857,148.3,98.3,0.468
11.38,32301.0,35769.6,1.6744,1.9012,148.3,98.3,0.468
11.4,32253.6,35636.2,1.4104,1.5718,148.3,98.3,0.468
11.42,32137.7,35419.2,0.7635,1.0363,148.3,98.3,0.468
11.44,32096.2,35285.1,0.5322,0.7053,148.3,98.3,0.468
11.46,32072.0,35212.9,0.3975,0.527,148.3,98.3,0.468
11.48,32010.1,35059.7,0.0521,0.1489,148.3,98.3,0.468
11.5,32047.3,34959.1,0.2594,-0.0994,148.3,98.3,0.468
11.52,32003.1,34934.6,0.013,-0.1597,148.3,98.3,0.468
11.54,31929.2,34852.3,-0.3995,-0.3629,148.3,98.3,0.468
11.56,31887.4,34778.7,-0.6323,-0.5445,148.3,98.3,0.468
11.58,31963.3,34669.1,-0.2091,-0.8152,148.3,98.3,0.468
11.6,31822.0,34582.9,-0.9973,-1.0278,148.3,98.3,0.468
11.62,31816.4,34671.6,-1.0283,-0.8089,148.3,98.3,0.468
11.64,31891.2,34620.0,-0.6111,-0.9363,148.3,98.3,0.468
11.66,31872.9,34497.1,-0.7135,-1.2396,148.3,98.3,0.468
11.68,31787.3,34485.6,-1.1908,-1.268,148.3,98.3,0.468
11.7,31821.2,34612.2,-1.0018,-0.9555,148.3,98.3,0.468
11.72,31953.4,35014.4,-0.264,0.0371,148.3,98.3,0.468
11.74,32106.5,35308.4,0.5897,0.7629,148.3,98.3,0.468
11.76,32299.4,35587.0,1.6656,1.4505,148.3,98.3,0.468
11.78,32239.1,35743.8,1.3294,1.8374,148.3,98.3,0.468
11.8,32290.6,35700.5,1.6163,1.7307,148.3,98.3,0.468
11.82,32206.9,35507.2,1.1497,1.2535,148.3,98.3,0.468
11.84,32042.9,35272.1,0.235,0.6732,148.3,98.3,0.468
11.86,32160.3,35180.8,0.89,0.4478,148.3,98.3,0.468
11.88,32060.1,35064.6,0.3311,0.1611,148.3,98.3,0.468
11.9,32047.0,35141.0,0.258,0.3496,148.3,98.3,0.468
11.92,31978.6,34934.8,-0.1235,-0.1594,148.3,98.3,0.468
11.94,31980.5,34914.5,-0.1128,-0.2095,148.3,98.3,0.468
11.96,31900.5,34691.8,-0.5593,-0.7591,148.3,98.3,0.468
11.98,31934.9,34683.6,-0.3677,-0.7794,148.3,98.3,0.468
12.0,31826.1,34670.1,-0.974,-0.8126,148.3,98.3,0.468
12.02,31836.4,34659.2,-0.917,-0.8396,148.3,98.3,0.468
12.04,31818.2,34626.9,-1.0182,-0.9193,148.3,98.3,0.468
12.06,31783.9,34571.7,-1.2095,-1.0556,148.3,98.3,0.468
12.08,31781.6,34406.0,-1.2223,-1.4646,148.3,98.3,0.468
12.1,31857.7,34616.8,-0.798,-0.9443,148.3,98.3,0.468
12.12,31964.0,34865.3,-0.2049,-0.3309,148.3,98.3,0.468
12.14,32158.5,35219.3,0.8795,0.543,148.3,98.3,0.468
12.16,32198.4,35623.9,1.1023,1.5415,148.3,98.3,0.468
12.18,32273.1,35739.7,1.5186,1.8273,148.3,98.3,0.468
12.2,32274.3,35732.0,1.5255,1.8084,148.3,98.3,0.468
12.22,32233.0,35568.9,1.295,1.4057,148.3,98.3,0.468
12.24,32201.8,35357.7,1.1214,0.8846,148.3,98.3,0.468
12.26,32094.2,35171.4,0.5208,0.4246,148.3,98.3,0.468
12.28,32063.7,35082.4,0.3511,0.205,148.3,98.3,0.468
12.3,32113.9,35037.2,0.6311,0.0934,148.3,98.3,0.468
12.32,32040.3,34939.2,0.2206,-0.1485,148.3,98.3,0.468
12.34,31955.3,34873.8,-0.2536,-0.31,148.3,98.3,0.468
12.36,31884.0,34760.7,-0.6512,-0.5891,148.3,98.3,0.468
12.38,31901.7,34696.8,-0.5525,-0.7467,148.3,98.3,0.468
12.4,31928.7,34677.5,-0.4021,-0.7944,148.3,98.3,0.468
12.42,31905.1,34680.6,-0.5334,-0.7868,148.3,98.3,0.468
12.44,31867.0,34561.3,-0.7459,-1.0813,148.3,98.3,0.468
12.46,31709.8,34546.6,-1.6228,-1.1175,148.3,98.3,0.468
12.48,31771.2,34503.8,-1.2807,-1.223,148.3,98.3,0.468
12.5,31845.0,34511.0,-0.8691,-1.2054,148.3,98.3,0.468
12.52,31933.2,34843.1,-0.3768,-0.3857,148.3,98.3,0.468
12.54,32140.6,35200.9,0.7797,0.4975,148.3,98.3,0.468
12.56,32222.1,35474.1,1.2345,1.1718,148.3,98.3,0.468
12.58,32375.3,35737.7,2.0887,1.8225,148.3,98.3,0.468
12.6,32378.8,35765.9,2.1086,1.892,148.3,98.3,0.468
12.62,32348.5,35515.3,1.9394,1.2734,148.3,98.3,0.468
12.64,32162.0,35465.7,0.8992,1.1509,148.3,98.3,0.468
12.66,32155.1,35099.6,0.8606,0.2475,148.3,98.3,0.468
12.68,32060.7,35146.9,0.334,0.3642,148.3,98.3,0.468
12.7,32014.7,35118.9,0.0774,0.2951,148.3,98.3,0.468
12.72,32005.4,35002.7,0.0257,0.0084,148.3,98.3,0.468
12.74,32005.0,34873.7,0.0237,-0.3101,148.3,98.3,0.468
12.76,31921.1,34802.1,-0.4446,-0.4869,148.3,98.3,0.468
12.78,31897.1,34730.0,-0.5782,-0.6649,148.3,98.3,0.468
12.8,31896.4,34706.4,-0.5822,-0.723,148.3,98.3,0.468
12.82,31849.8,34659.0,-0.8418,-0.8401,148.3,98.3,0.468
12.84,31860.4,34555.1,-0.7831,-1.0965,148.3,98.3,0.468
12.86,31793.3,34505.1,-1.1574,-1.22,148.3,98.3,0.468
12.88,31781.8,34494.6,-1.2211,-1.2459,148.3,98.3,0.468
12.9,31831.5,34473.2,-0.9441,-1.2985,148.3,98.3,0.468
12.92,31898.4,34743.5,-0.5708,-0.6315,148.3,98.3,0.468
12.94,32066.3,34927.1,0.3657,-0.1783,148.3,98.3,0.468
12.96,32255.4,35456.2,1.42,1.1276,148.3,98.3,0.468
12.98,32241.5,35784.0,1.3427,1.9367,148.3,98.3,0.468
13.0,32318.1,35814.3,1.7701,2.0115,148.3,98.3,0.468
13.02,32282.1,35614.2,1.5692,1.5176,148.3,98.3,0.468
13.04,32115.9,35438.8,0.642,1.0847,148.3,98.3,0.468
13.06,32133.8,35218.5,0.7419,0.5409,148.3,98.3,0.468
13.08,32088.0,35076.6,0.4868,0.1906,148.3,98.3,0.468
13.1,32057.3,35081.7,0.3152,0.2033,148.3,98.3,0.468
13.12,32076.0,35022.0,0.4194,0.0559,148.3,98.3,0.468
13.14,31892.3,34934.8,-0.6049,-0.1592,148.3,98.3,0.468
13.16,31910.6,34798.6,-0.5032,-0.4955,148.3,98.3,0.468
13.18,31926.8,34741.0,-0.4128,-0.6376,148.3,98.3,0.468
13.2,31928.2,34626.2,-0.4048,-0.921,148.3,98.3,0.468
13.22,31885.3,34674.5,-0.6443,-0.8017,148.3,98.3,0.468
13.24,31816.9,34577.9,-1.0253,-1.0403,148.3,98.3,0.468
13.26,31826.7,34541.1,-0.9711,-1.131,148.3,98.3,0.468
13.28,31821.6,34357.1,-0.9993,-1.5852,148.3,98.3,0.468
13.3,31725.2,34509.1,-1.537,-1.21,148.3,98.3,0.468
13.32,31864.8,34667.8,-0.7582,-0.8182,148.3,98.3,0.468
13.34,31951.4,34948.0,-0.2752,-0.1267,148.3,98.3,0.468
13.36,32160.2,35294.6,0.8889,0.7288,148.3,98.3,0.468
13.38,32309.2,35674.3,1.7202,1.6658,148.3,98.3,0.468
13.4,32301.3,35722.8,1.6764,1.7856,148.3,98.3,0.468
13.42,32241.7,35627.6,1.3435,1.5506,148.3,98.3,0.468
13.44,32171.1,35506.2,0.95,1.251,148.3,98.3,0.468
13.46,32099.3,35277.8,0.5495,0.6872,148.3,98.3,0.468
13.48,32014.8,35199.4,0.0783,0.4937,148.3,98.3,0.468
13.5,32000.7,35127.9,-0.0003,0.3174,148.3,98.3,0.468
13.52,31985.5,35048.0,-0.0853,0.12,148.3,98.3,0.468
13.54,32027.3,34995.8,0.148,-0.0088,148.3,98.3,0.468
13.56,31950.8,34912.9,-0.2787,-0.2134,148.3,98.3,0.468
13.58,31957.3,34797.4,-0.2424,-0.4985,148.3,98.3,0.468
13.6,31950.6,34675.4,-0.2801,-0.7994,148.3,98.3,0.468
13.62,31920.3,34667.4,-0.4488,-0.8194,148.3,98.3,0.468
13.64,31891.4,34696.5,-0.6099,-0.7475,148.3,98.3,0.468
13.66,31791.2,34561.4,-1.1686,-1.0809,148.3,98.3,0.468
13.68,31708.4,34474.2,-1.6306,-1.2963,148.3,98.3,0.468
13.7,31811.1,34476.8,-1.058,-1.2897,148.3,98.3,0.468
13.72,31851.8,34564.2,-0.8311,-1.0741,148.3,98.3,0.468
13.74,32015.6,34931.6,0.0825,-0.1672,148.3,98.3,0.468
13.76,32064.6,35328.8,0.3559,0.8132,148.3,98.3,0.468
13.78,32252.7,35532.1,1.4053,1.315,148.3,98.3,0.468
13.8,32299.0,35757.2,1.6632,1.8706,148.3,98.3,0.468
13.82,32321.3,35657.7,1.7876,1.6249,148.3,98.3,0.468
13.84,32206.0,35557.3,1.1444,1.3771,148.3,98.3,0.468
13.86,32148.7,35343.6,0.8252,0.8497,148.3,98.3,0.468
13.88,32052.9,35088.7,0.2909,0.2204,148.3,98.3,0.468
13.9,32135.9,35066.4,0.7534,0.1655,148.3,98.3,0.468
13.92,32057.0,35075.0,0.3134,0.1867,148.3,98.3,0.468
13.94,32034.6,35032.0,0.1885,0.0806,148.3,98.3,0.468
13.96,31923.4,34824.4,-0.4315,-0.4318,148.3,98.3,0.468
13.98,31942.5,34817.3,-0.3252,-0.4494,148.3,98.3,0.468
14.0,31896.5,34679.6,-0.5818,-0.7892,148.3,98.3,0.468
14.02,31870.1,34604.8,-0.7286,-0.9739,148.3,98.3,0.468
14.04,31894.7,34674.8,-0.5918,-0.8011,148.3,98.3,0.468
14.06,31887.3,34675.9,-0.6331,-0.7984,148.3,98.3,0.468
14.08,31902.4,34531.3,-0.5489,-1.1553,148.3,98.3,0.468
14.1,31791.6,34510.5,-1.1669,-1.2065,148.3,98.3,0.468
14.12,31823.2,34628.7,-0.9902,-0.9149,148.3,98.3,0.468
14.14,31937.3,34837.6,-0.3539,-0.3993,148.3,98.3,0.468
14.16,32060.1,35135.0,0.3307,0.3349,148.3,98.3,0.468
14.18,32179.3,35537.5,0.9955,1.3282,148.3,98.3,0.468
14.2,32338.0,35764.2,1.8808,1.8879,148.3,98.3,0.468
14.22,32284.2,35698.9,1.5807,1.7265,148.3,98.3,0.468
14.24,32204.3,35577.9,1.1353,1.428,148.3,98.3,0.468
14.26,32201.8,35282.2,1.1214,0.698,148.3,98.3,0.468
14.28,32053.1,35245.9,0.2919,0.6085,148.3,98.3,0.468
14.3,32071.4,35084.9,0.3937,0.2112,148.3,98.3,0.468
14.32,32028.7,35033.8,0.1557,0.085,148.3,98.3,0.468
14.34,32012.5,35057.5,0.0656,0.1436,148.3,98.3,0.468
14.36,31886.0,34903.4,-0.6399,-0.2368,148.3,98.3,0.468
14.38,31870.3,34834.1,-0.7277,-0.4079,148.3,98.3,0.468
14.4,31912.4,34825.7,-0.4928,-0.4285,148.3,98.3,0.468
14.42,31890.5,34625.4,-0.6153,-0.9229,148.3,98.3,0.468
14.44,31780.4,34683.9,-1.2291,-0.7787,148.3,98.3,0.468
14.46,31755.1,34643.9,-1.3702,-0.8774,148.3,98.3,0.468
14.48,31741.7,34483.1,-1.445,-1.2741,148.3,98.3,0.468
14.5,31824.6,34444.3,-0.9826,-1.3699,148.3,98.3,0.468
14.52,31785.6,34459.1,-1.2003,-1.3334,148.3,98.3,0.468
14.54,31978.0,34784.4,-0.127,-0.5306,148.3,98.3,0.468
14.56,32001.7,35172.9,0.005,0.4283,148.3,98.3,0.468
14.58,32187.7,35326.4,1.0427,0.8073,148.3,98.3,0.468
14.6,32241.6,35738.6,1.3431,1.8246,148.3,98.3,0.468
14.62,32272.1,35647.3,1.5134,1.5994,148.3,98.3,0.468
14.64,32269.1,35614.4,1.4965,1.5181,148.3,98.3,0.468
14.66,32139.4,35341.1,0.7732,0.8435,148.3,98.3,0.468
14.68,32097.5,35282.2,0.5392,0.6981,148.3,98.3,0.468
14.7,32076.5,35100.8,0.4221,0.2504,148.3,98.3,0.468
14.72,32029.0,35030.9,0.1576,0.0778,148.3,98.3,0.468
14.74,32046.0,35032.1,0.2521,0.0809,148.3,98.3,0.468
14.76,31994.6,34974.6,-0.0344,-0.0612,148.3,98.3,0.468
14.78,31862.4,34756.2,-0.772,-0.6,148.3,98.3,0.468
14.8,31847.0,34731.8,-0.8577,-0.6604,148.3,98.3,0.468
14.82,31781.9,34736.5,-1.2208,-0.6488,148.3,98.3,0.468
14.84,31789.4,34706.8,-1.179,-0.7222,148.3,98.3,0.468
14.86,31849.2,34584.2,-0.8453,-1.0248,148.3,98.3,0.468
14.88,31789.1,34535.8,-1.1804,-1.1442,148.3,98.3,0.468
14.9,31752.5,34394.0,-1.3846,-1.4942,148.3,98.3,0.468
14.92,31715.0,34418.9,-1.5938,-1.4326,148.3,98.3,0.468
14.94,31895.3,34659.1,-0.5885,-0.8397,148.3,98.3,0.468
14.96,31942.0,34989.4,-0.328,-0.0246,148.3,98.3,0.468
14.98,32108.3,35410.0,0.5998,1.0136,148.3,98.3,0.468
15.0,32169.7,35637.9,0.9421,1.5762,148.3,98.3,0.468
15.02,32352.5,35770.4,1.9617,1.9032,148.3,98.3,0.468
15.04,32197.8,35641.6,1.0986,1.5852,148.3,98.3,0.468
15.06,32193.3,35544.5,1.0739,1.3455,148.3,98.3,0.468
15.08,32129.0,35235.0,0.7154,0.5815,148.3,98.3,0.468
15.1,32082.3,35095.2,0.4545,0.2366,148.3,98.3,0.468
15.12,32148.4,35187.0,0.8235,0.4631,148.3,98.3,0.468
15.14,31944.3,35013.6,-0.3147,0.0352,148.3,98.3,0.468
15.16,32005.1,34920.5,0.0243,-0.1946,148.3,98.3,0.468
15.18,31912.8,34876.2,-0.4905,-0.3039,148.3,98.3,0.468
15.2,31804.1,34604.7,-1.0969,-0.9741,148.3,98.3,0.468
15.22,31871.3,34709.2,-0.722,-0.7162,148.3,98.3,0.468
15.24,31818.8,34650.3,-1.0148,-0.8614,148.3,98.3,0.468
15.26,31851.5,34622.4,-0.8326,-0.9303,148.3,98.3,0.468
15.28,31778.1,34571.4,-1.2418,-1.0563,148.3,98.3,0.468
15.3,31890.2,34467.5,-0.6167,-1.3126,148.3,98.3,0.468
15.32,31781.9,34486.7,-1.2206,-1.2652,148.3,98.3,0.468
15.34,31848.9,34691.4,-0.8468,-0.76,148.3,98.3,0.468
15.36,32005.7,34941.9,0.0275,-0.1419,148.3,98.3,0.468
15.38,32161.2,35166.8,0.8945,0.4134,148.3,98.3,0.468
15.4,32241.3,35610.7,1.3417,1.5089,148.3,98.3,0.468
15.42,32330.1,35704.7,1.837,1.7409,148.3,98.3,0.468
15.44,32258.4,35682.7,1.4366,1.6868,148.3,98.3,0.468
15.46,32264.0,35539.0,1.468,1.3321,148.3,98.3,0.468
15.48,32189.6,35332.3,1.0532,0.8217,148.3,98.3,0.468
15.5,32164.8,35170.6,0.9147,0.4227,148.3,98.3,0.468
15.52,32019.5,35098.1,0.1043,0.2437,148.3,98.3,0.468
15.54,32063.2,34981.4,0.3483,-0.0442,148.3,98.3,0.468
15.56,31942.2,35015.0,-0.3265,0.0386,148.3,98.3,0.468
15.58,31924.2,34769.4,-0.4269,-0.5675,148.3,98.3,0.468
15.6,31870.2,34771.5,-0.728,-0.5624,148.3,98.3,0.468
15.62,31913.9,34675.5,-0.4845,-0.7993,148.3,98.3,0.468
15.64,31834.3,34648.2,-0.9283,-0.8666,148.3,98.3,0.468
15.66,31911.8,34671.7,-0.4961,-0.8086,148.3,98.3,0.468
15.68,31851.0,34560.6,-0.8353,-1.0828,148.3,98.3,0.468
15.7,31733.7,34408.4,-1.4896,-1.4585,148.3,98.3,0.468
15.72,31704.5,34520.2,-1.6522,-1.1827,148.3,98.3,0.468
15.74,31879.3,34556.3,-0.6775,-1.0936,148.3,98.3,0.468
15.76,31938.3,34814.1,-0.3486,-0.4572,148.3,98.3,0.468
15.78,32056.2,35266.3,0.3091,0.6588,148.3,98.3,0.468
15.8,32286.9,35600.7,1.5957,1.4843,148.3,98.3,0.468
15.82,32353.8,35782.3,1.9693,1.9324,148.3,98.3,0.468
15.84,32347.9,35703.3,1.9362,1.7374,148.3,98.3,0.468
15.86,32212.2,35490.6,1.1794,1.2124,148.3,98.3,0.468
15.88,32180.9,35430.2,1.0044,1.0634,148.3,98.3,0.468
15.9,32073.9,35226.9,0.4076,0.5616,148.3,98.3,0.468
15.92,31989.0,35128.0,-0.0657,0.3174,148.3,98.3,0.468
15.94,32049.6,35175.8,0.2721,0.4356,148.3,98.3,0.468
15.96,32015.8,34990.9,0.0836,-0.0208,148.3,98.3,0.468
15.98,31910.4,34845.5,-0.5043,-0.3797,148.3,98.3,0.468
16.0,31854.3,34753.1,-0.8169,-0.6078,148.3,98.3,0.468
16.02,31788.9,34669.4,-1.1817,-0.8145,148.3,98.3,0.468
16.04,31844.0,34682.3,-0.8744,-0.7825,148.3,98.3,0.468
16.06,31879.5,34575.3,-0.6762,-1.0466,148.3,98.3,0.468
16.08,31872.7,34576.1,-0.7143,-1.0446,148.3,98.3,0.468
16.1,31746.8,34497.5,-1.4165,-1.2386,148.3,98.3,0.468
16.12,31821.3,34394.0,-1.0012,-1.4942,148.3,98.3,0.468
16.14,31883.2,34559.6,-0.6557,-1.0853,148.3,98.3,0.468
16.16,31897.1,34783.3,-0.5781,-0.5332,148.3,98.3,0.468
16.18,32040.1,35077.6,0.2193,0.1931,148.3,98.3,0.468
16.2,32277.7,35440.7,1.5444,1.0893,148.3,98.3,0.468
16.22,32347.9,35737.5,1.9362,1.8219,148.3,98.3,0.468
16.24,32287.4,35661.7,1.5989,1.6348,148.3,98.3,0.468
16.26,32227.0,35585.8,1.2618,1.4476,148.3,98.3,0.468
16.28,32112.9,35414.1,0.6253,1.0237,148.3,98.3,0.468
16.3,32054.1,35134.9,0.2972,0.3345,148.3,98.3,0.468
16.32,31977.2,35113.9,-0.1315,0.2828,148.3,98.3,0.468
16.34,32046.9,35065.7,0.2573,0.1637,148.3,98.3,0.468
16.36,31972.1,34930.6,-0.1602,-0.1696,148.3,98.3,0.468
16.38,31969.4,34952.7,-0.1747,-0.1152,148.3,98.3,0.468
16.4,31909.5,34819.1,-0.509,-0.445,148.3,98.3,0.468
16.42,31888.2,34774.9,-0.6281,-0.5539,148.3,98.3,0.468
16.44,31857.8,34756.1,-0.7974,-0.6005,148.3,98.3,0.468
16.46,31900.6,34682.6,-0.5589,-0.7817,148.3,98.3,0.468
16.48,31785.1,34653.9,-1.203,-0.8527,148.3,98.3,0.468
16.5,31822.0,34480.8,-0.9968,-1.2799,148.3,98.3,0.468
16.52,31807.2,34501.0,-1.0794,-1.23,148.3,98.3,0.468
16.54,31845.0,34411.7,-0.8689,-1.4505,148.3,98.3,0.468
16.56,31942.6,34614.4,-0.3244,-0.9501,148.3,98.3,0.468
16.58,31995.5,34977.3,-0.0292,-0.0544,148.3,98.3,0.468
16.6,32194.7,35420.9,1.0814,1.0404,148.3,98.3,0.468
16.62,32307.3,35678.8,1.7097,1.6771,148.3,98.3,0.468
16.64,32331.9,35683.3,1.847,1.6882,148.3,98.3,0.468
16.66,32252.6,35653.7,1.4046,1.615,148.3,98.3,0.468
16.68,32180.5,35354.8,1.0023,0.8774,148.3,98.3,0.468
16.7,32117.1,35328.8,0.6487,0.8131,148.3,98.3,0.468
16.72,32023.0,35147.0,0.1239,0.3645,148.3,98.3,0.468
16.74,32013.0,35067.4,0.0683,0.168,148.3,98.3,0.468
16.76,32094.4,35046.3,0.5222,0.1159,148.3,98.3,0.468
16.78,31951.2,34892.2,-0.2767,-0.2645,148.3,98.3,0.468
16.8,31945.0,34802.6,-0.3113,-0.4855,148.3,98.3,0.468
16.82,31831.3,34701.4,-0.945,-0.7353,148.3,98.3,0.468
16.84,31914.6,34668.9,-0.4808,-0.8155,148.3,98.3,0.468
16.86,31801.2,34628.0,-1.1132,-0.9165,148.3,98.3,0.468
16.88,31788.9,34712.6,-1.1817,-0.7078,148.3,98.3,0.468
16.9,31811.3,34501.5,-1.0566,-1.2287,148.3,98.3,0.468
16.92,31822.3,34501.9,-0.9955,-1.2279,148.3,98.3,0.468
16.94,31842.6,34423.7,-0.8824,-1.4208,148.3,98.3,0.468
16.96,31856.4,34639.4,-0.8053,-0.8885,148.3,98.3,0.468
16.98,31958.2,34936.6,-0.2377,-0.1548,148.3,98.3,0.468
17.0,32089.2,35330.6,0.493,0.8175,148.3,98.3,0.468
17.02,32254.9,35600.0,1.4173,1.4826,148.3,98.3,0.468
17.04,32261.8,35735.1,1.4556,1.816,148.3,98.3,0.468
17.06,32306.5,35717.0,1.705,1.7713,148.3,98.3,0.468
17.08,32132.7,35505.9,0.7359,1.2502,148.3,98.3,0.468
17.1,32133.0,35315.2,0.7373,0.7795,148.3,98.3,0.468
17.12,32089.0,35169.1,0.4923,0.419,148.3,98.3,0.468
17.14,32030.8,35046.1,0.1675,0.1155,148.3,98.3,0.468
17.16,32040.8,35065.9,0.2231,0.1643,148.3,98.3,0.468
17.18,31982.6,34952.6,-0.1015,-0.1153,148.3,98.3,0.468
17.2,31926.4,34818.7,-0.4148,-0.4458,148.3,98.3,0.468
17.22,31913.7,34704.3,-0.4857,-0.7283,148.3,98.3,0.468
17.24,31848.7,34657.1,-0.8482,-0.8447,148.3,98.3,0.468
17.26,31831.2,34661.9,-0.9461,-0.833,148.3,98.3,0.468
17.28,31829.4,34572.4,-0.9557,-1.0539,148.3,98.3,0.468
17.3,31773.8,34541.3,-1.2659,-1.1306,148.3,98.3,0.468
17.32,31766.6,34464.9,-1.3061,-1.3192,148.3,98.3,0.468
17.34,31790.4,34468.4,-1.1733,-1.3104,148.3,98.3,0.468
17.36,31870.0,34589.4,-0.7295,-1.0117,148.3,98.3,0.468
17.38,31953.1,34843.0,-0.2659,-0.386,148.3,98.3,0.468
17.4,32199.9,35174.6,1.1106,0.4325,148.3,98.3,0.468
17.42,32230.2,35474.4,1.2795,1.1724,148.3,98.3,0.468
17.44,32245.3,35735.2,1.3641,1.8162,148.3,98.3,0.468
17.46,32271.6,35719.6,1.5104,1.7777,148.3,98.3,0.468
17.48,32243.9,35406.1,1.3559,1.0039,148.3,98.3,0.468
17.5,32073.7,35236.5,0.4068,0.5854,148.3,98.3,0.468
17.52,32096.0,35142.9,0.5309,0.3542,148.3,98.3,0.468
17.54,32044.8,35119.6,0.2457,0.2969,148.3,98.3,0.468
17.56,31962.0,35101.3,-0.2164,0.2517,148.3,98.3,0.468
17.58,31964.6,34952.4,-0.2019,-0.116,148.3,98.3,0.468
17.6,31919.0,34933.6,-0.4561,-0.1622,148.3,98.3,0.468
17.62,31927.1,34749.1,-0.4111,-0.6178,148.3,98.3,0.468
17.64,31870.0,34653.9,-0.7297,-0.8527,148.3,98.3,0.468
17.66,31881.9,34661.1,-0.6629,-0.8349,148.3,98.3,0.468
17.68,31943.3,34622.6,-0.3205,-0.93,148.3,98.3,0.468
17.7,31789.1,34615.9,-1.1806,-0.9465,148.3,98.3,0.468
17.72,31741.8,34526.8,-1.4445,-1.1663,148.3,98.3,0.468
17.74,31839.7,34450.3,-0.8981,-1.3553,148.3,98.3,0.468
17.76,31783.4,34562.3,-1.2122,-1.0787,148.3,98.3,0.468
17.78,31841.5,34760.6,-0.8885,-0.5893,148.3,98.3,0.468
17.8,32072.2,35263.1,0.3985,0.651,148.3,98.3,0.468
17.82,32278.1,35556.1,1.5467,1.3741,148.3,98.3,0.468
17.84,32400.6,35789.7,2.2301,1.9507,148.3,98.3,0.468
17.86,32268.0,35726.0,1.4905,1.7936,148.3,98.3,0.468
17.88,32309.1,35622.4,1.7198,1.5377,148.3,98.3,0.468
17.9,32074.7,35338.3,0.4125,0.8365,148.3,98.3,0.468
17.92,32048.1,35200.9,0.2639,0.4975,148.3,98.3,0.468
17.94,32016.3,35122.2,0.0866,0.3031,148.3,98.3,0.468
17.96,32142.7,35068.4,0.7917,0.1704,148.3,98.3,0.468
17.98,31898.4,34942.3,-0.5709,-0.1408,148.3,98.3,0.468
18.0,31895.4,34951.9,-0.5877,-0.1171,148.3,98.3,0.468
18.02,31823.8,34766.8,-0.9873,-0.5739,148.3,98.3,0.468
18.04,31848.2,34668.6,-0.8511,-0.8164,148.3,98.3,0.468
18.06,31883.7,34629.9,-0.6533,-0.9118,148.3,98.3,0.468
18.08,31899.4,34633.7,-0.5657,-0.9026,148.3,98.3,0.468
18.1,31827.2,34610.8,-0.968,-0.9591,148.3,98.3,0.468
18.12,31710.5,34426.8,-1.6189,-1.4132,148.3,98.3,0.468
18.14,31824.2,34390.7,-0.9847,-1.5022,148.3,98.3,0.468
18.16,31768.5,34526.6,-1.2952,-1.1669,148.3,98.3,0.468
18.18,31996.7,34800.5,-0.0225,-0.4907,148.3,98.3,0.468
18.2,32061.0,35140.9,0.3359,0.3494,148.3,98.3,0.468
18.22,32305.2,35513.7,1.6981,1.2695,148.3,98.3,0.468
18.24,32281.7,35726.3,1.567,1.7942,148.3,98.3,0.468
18.26,32306.8,35818.0,1.7068,2.0206,148.3,98.3,0.468
18.28,32300.7,35614.6,1.6729,1.5187,148.3,98.3,0.468
18.3,32145.8,35466.0,0.8089,1.1517,148.3,98.3,0.468
18.32,32099.0,35154.0,0.5479,0.3818,148.3,98.3,0.468
18.34,31999.6,35084.8,-0.0067,0.211,148.3,98.3,0.468
18.36,32070.1,34989.9,0.3866,-0.0234,148.3,98.3,0.468
18.38,31957.4,34990.8,-0.2421,-0.0212,148.3,98.3,0.468
18.4,31978.1,34955.9,-0.1264,-0.1073,148.3,98.3,0.468
18.42,31985.0,34772.8,-0.0882,-0.5592,148.3,98.3,0.468
18.44,31803.8,34662.5,-1.0988,-0.8314,148.3,98.3,0.468
18.46,31817.3,34625.1,-1.0234,-0.9237,148.3,98.3,0.468
18.48,31871.2,34622.0,-0.7227,-0.9314,148.3,98.3,0.468
18.5,31801.7,34721.7,-1.1105,-0.6853,148.3,98.3,0.468
18.52,31833.9,34532.5,-0.9306,-1.1523,148.3,98.3,0.468
18.54,31653.2,34434.9,-1.9386,-1.3932,148.3,98.3,0.468
18.56,31881.1,34432.3,-0.6677,-1.3996,148.3,98.3,0.468
18.58,31873.8,34604.1,-0.7079,-0.9755,148.3,98.3,0.468
18.6,31908.6,35129.9,-0.514,0.3222,148.3,98.3,0.468
18.62,32200.1,35401.3,1.112,0.9921,148.3,98.3,0.468
18.64,32190.8,35676.6,1.06,1.6715,148.3,98.3,0.468
18.66,32251.9,35759.5,1.4004,1.8763,148.3,98.3,0.468
18.68,32255.9,35661.6,1.4227,1.6346,148.3,98.3,0.468
18.7,32154.7,35505.5,0.8585,1.2492,148.3,98.3,0.468
18.72,31990.9,35242.8,-0.0549,0.6009,148.3,98.3,0.468
18.74,32093.8,35200.4,0.5186,0.4961,148.3,98.3,0.468
18.76,32033.1,35040.5,0.1801,0.1017,148.3,98.3,0.468
18.78,31978.7,34978.3,-0.1231,-0.0518,148.3,98.3,0.468
18.8,32015.5,34902.2,0.0823,-0.2398,148.3,98.3,0.468
18.82,31927.3,34821.8,-0.4098,-0.4382,148.3,98.3,0.468
18.84,31955.8,34816.2,-0.251,-0.452,148.3,98.3,0.468
18.86,31902.9,34740.7,-0.5461,-0.6384,148.3,98.3,0.468
18.88,31805.7,34721.0,-1.0879,-0.6869,148.3,98.3,0.468
18.9,31768.1,34701.4,-1.2978,-0.7355,148.3,98.3,0.468
18.92,31905.1,34633.5,-0.5339,-0.9029,148.3,98.3,0.468
18.94,31801.9,34494.8,-1.1093,-1.2452,148.3,98.3,0.468
18.96,31769.2,34497.6,-1.2916,-1.2384,148.3,98.3,0.468
18.98,31948.4,34522.6,-0.2922,-1.1767,148.3,98.3,0.468
19.0,32071.7,34944.9,0.3954,-0.1343,148.3,98.3,0.468
19.02,32089.1,35280.7,0.4928,0.6945,148.3,98.3,0.468
19.04,32226.1,35625.3,1.257,1.5449,148.3,98.3,0.468
19.06,32351.1,35719.2,1.9541,1.7768,148.3,98.3,0.468
19.08,32298.6,35685.8,1.6612,1.6944,148.3,98.3,0.468
19.1,32153.5,35539.9,0.8517,1.3342,148.3,98.3,0.468
19.12,32176.6,35346.9,0.9807,0.8579,148.3,98.3,0.468
19.14,32099.4,35147.3,0.55,0.3652,148.3,98.3,0.468
19.16,31934.6,35014.3,-0.3688,0.037,148.3,98.3,0.468
19.18,32065.2,35018.3,0.3592,0.0467,148.3,98.3,0.468
19.2,32021.6,34930.0,0.1163,-0.1712,148.3,98.3,0.468
19.22,31879.9,34831.3,-0.6741,-0.4147,148.3,98.3,0.468
19.24,31854.9,34813.9,-0.8138,-0.4577,148.3,98.3,0.468
19.26,31846.8,34697.2,-0.8589,-0.7458,148.3,98.3,0.468
19.28,31834.0,34639.4,-0.9303,-0.8885,148.3,98.3,0.468
19.3,31890.5,34649.8,-0.6149,-0.8628,148.3,98.3,0.468
19.32,31866.3,34615.4,-0.7501,-0.9477,148.3,98.3,0.468
19.34,31756.6,34438.8,-1.3621,-1.3836,148.3,98.3,0.468
19.36,31753.4,34400.7,-1.3795,-1.4777,148.3,98.3,0.468
19.38,31698.9,34593.1,-1.6837,-1.0027,148.3,98.3,0.468
19.4,31950.1,34873.2,-0.2827,-0.3114,148.3,98.3,0.468
19.42,32052.2,35139.2,0.287,0.3451,148.3,98.3,0.468
19.44,32297.6,35454.0,1.6553,1.1222,148.3,98.3,0.468
19.46,32297.2,35787.9,1.6536,1.9464,148.3,98.3,0.468
19.48,32293.5,35742.7,1.6325,1.8348,148.3,98.3,0.468
19.5,32169.0,35622.6,0.9382,1.5383,148.3,98.3,0.468
19.52,32184.4,35296.0,1.024,0.7323,148.3,98.3,0.468
19.54,32004.7,35214.1,0.0216,0.5301,148.3,98.3,0.468
19.56,32071.7,35133.3,0.3957,0.3307,148.3,98.3,0.468
19.58,31969.8,35093.4,-0.173,0.2322,148.3,98.3,0.468
19.6,32024.8,34947.1,0.134,-0.129,148.3,98.3,0.468
19.62,31924.3,34914.5,-0.4265,-0.2093,148.3,98.3,0.468
19.64,31860.1,34810.3,-0.7844,-0.4666,148.3,98.3,0.468
19.66,31790.3,34663.2,-1.1741,-0.8297,148.3,98.3,0.468
19.68,31941.1,34701.0,-0.3328,-0.7364,148.3,98.3,0.468
19.7,31884.2,34639.8,-0.6502,-0.8874,148.3,98.3,0.468
19.72,31861.5,34629.0,-0.7769,-0.9141,148.3,98.3,0.468
19.74,31848.3,34596.7,-0.8506,-0.9939,148.3,98.3,0.468
19.76,31811.9,34414.0,-1.0537,-1.4448,148.3,98.3,0.468
19.78,31748.0,34641.4,-1.4098,-0.8836,148.3,98.3,0.468
19.8,31895.1,34762.7,-0.5892,-0.584,148.3,98.3,0.468
19.82,32134.5,35117.7,0.746,0.292,148.3,98.3,0.468
19.84,32227.9,35400.3,1.2669,0.9896,148.3,98.3,0.468
19.86,32304.5,35723.0,1.6942,1.7862,148.3,98.3,0.468
19.88,32340.3,35774.4,1.8935,1.9131,148.3,98.3,0.468
19.9,32200.4,35610.6,1.1137,1.5087,148.3,98.3,0.468
19.92,32164.1,35364.8,0.9109,0.9019,148.3,98.3,0.468
19.94,32062.4,35301.9,0.3438,0.7468,148.3,98.3,0.468
19.96,32047.0,35204.8,0.2577,0.5072,148.3,98.3,0.468
19.98,31941.4,35100.5,-0.3311,0.2495,148.3,98.3,0.468
20.0,32004.6,34984.9,0.0211,-0.0357,148.3,98.3,0.468
20.02,31956.9,34953.4,-0.2446,-0.1134,148.3,98.3,0.468
20.04,31965.5,34728.0,-0.1965,-0.6697,148.3,98.3,0.468
20.06,31884.4,34702.7,-0.6493,-0.7322,148.3,98.3,0.468
20.08,31765.8,34640.8,-1.3105,-0.885,148.3,98.3,0.468
20.1,31800.4,34609.1,-1.1176,-0.9631,148.3,98.3,0.468
20.12,31776.6,34610.5,-1.2501,-0.9597,148.3,98.3,0.468
20.14,31779.2,34555.0,-1.2357,-1.0967,148.3,98.3,0.468
20.16,31838.8,34509.4,-0.9033,-1.2093,148.3,98.3,0.468
20.18,31818.9,34517.5,-1.0144,-1.1892,148.3,98.3,0.468
20.2,31874.4,34718.8,-0.7048,-0.6924,148.3,98.3,0.468
20.22,32014.7,34990.9,0.0778,-0.0208,148.3,98.3,0.468
20.24,32171.4,35318.3,0.9514,0.7873,148.3,98.3,0.468
20.26,32284.8,35611.2,1.5844,1.5101,148.3,98.3,0.468
20.28,32288.9,35688.5,1.6068,1.7009,148.3,98.3,0.468
20.3,32210.9,35657.6,1.1719,1.6247,148.3,98.3,0.468
20.32,32263.2,35425.9,1.4634,1.0529,148.3,98.3,0.468
20.34,32086.1,35208.6,0.4758,0.5166,148.3,98.3,0.468
20.36,32055.2,35211.9,0.3033,0.5245,148.3,98.3,0.468
20.38,31942.2,35121.9,-0.3268,0.3025,148.3,98.3,0.468
20.4,32006.3,35051.5,0.0308,0.1286,148.3,98.3,0.468
20.42,31979.2,34927.8,-0.1202,-0.1767,148.3,98.3,0.468
20.44,31949.4,34775.8,-0.2867,-0.5519,148.3,98.3,0.468
20.46,31778.1,34660.8,-1.2419,-0.8356,148.3,98.3,0.468
20.48,31916.5,34733.0,-0.4701,-0.6574,148.3,98.3,0.468
20.5,31849.2,34720.0,-0.8456,-0.6894,148.3,98.3,0.468
20.52,31884.8,34570.9,-0.6469,-1.0575,148.3,98.3,0.468
20.54,31817.8,34601.3,-1.0203,-0.9826,148.3,98.3,0.468
20.56,31836.4,34440.5,-0.917,-1.3795,148.3,98.3,0.468
20.58,31676.6,34510.0,-1.8078,-1.2078,148.3,98.3,0.468
20.6,31896.2,34610.9,-0.583,-0.9587,148.3,98.3,0.468
20.62,31866.0,34966.5,-0.7516,-0.0811,148.3,98.3,0.468
20.64,32084.8,35343.8,0.4689,0.8502,148.3,98.3,0.468
20.66,32265.5,35604.6,1.4763,1.494,148.3,98.3,0.468
20.68,32416.8,35705.4,2.3205,1.7427,148.3,98.3,0.468
20.7,32305.5,35695.5,1.6999,1.7183,148.3,98.3,0.468
20.72,32287.2,35524.5,1.5975,1.2962,148.3,98.3,0.468
20.74,32032.1,35303.1,0.1749,0.7498,148.3,98.3,0.468
20.76,32167.1,35147.0,0.9276,0.3644,148.3,98.3,0.468
20.78,32119.0,35179.4,0.6592,0.4445,148.3,98.3,0.468
20.8,32047.9,35070.3,0.2631,0.1751,148.3,98.3,0.468
20.82,32011.3,34953.8,0.0586,-0.1125,148.3,98.3,0.468
20.84,31923.8,34798.5,-0.4293,-0.4958,148.3,98.3,0.468
20.86,31881.8,34682.7,-0.6636,-0.7814,148.3,98.3,0.468
20.88,31836.0,34637.0,-0.9192,-0.8943,148.3,98.3,0.468
20.9,31931.2,34660.7,-0.3881,-0.8359,148.3,98.3,0.468
20.92,31735.9,34561.3,-1.4775,-1.0813,148.3,98.3,0.468
20.94,31800.3,34601.2,-1.1181,-0.9827,148.3,98.3,0.468
20.96,31715.0,34437.2,-1.5941,-1.3876,148.3,98.3,0.468
20.98,31720.1,34491.8,-1.5655,-1.2527,148.3,98.3,0.468
21.0,31826.0,34599.2,-0.9748,-0.9877,148.3,98.3,0.468
21.02,31913.8,34848.6,-0.4852,-0.372,148.3,98.3,0.468
21.04,32086.2,35183.1,0.4764,0.4535,148.3,98.3,0.468
21.06,32228.3,35626.4,1.2691,1.5476,148.3,98.3,0.468
21.08,32357.4,35768.8,1.9893,1.8992,148.3,98.3,0.468
21.1,32347.6,35785.1,1.9342,1.9394,148.3,98.3,0.468
21.12,32203.3,35541.5,1.1294,1.3382,148.3,98.3,0.468
21.14,32169.7,35328.6,0.942,0.8128,148.3,98.3,0.468
21.16,32052.3,35229.4,0.2871,0.5677,148.3,98.3,0.468
21.18,32072.4,35138.5,0.3996,0.3435,148.3,98.3,0.468
21.2,32041.4,35096.2,0.2267,0.2391,148.3,98.3,0.468
21.22,31979.4,34961.7,-0.119,-0.093,148.3,98.3,0.468
21.24,31922.4,34944.0,-0.4371,-0.1367,148.3,98.3,0.468
21.26,31871.8,34831.7,-0.7192,-0.4138,148.3,98.3,0.468
21.28,31894.5,34643.4,-0.5927,-0.8785,148.3,98.3,0.468
21.3,31834.4,34689.6,-0.9281,-0.7645,148.3,98.3,0.468
21.32,31772.6,34629.1,-1.2729,-0.9139,148.3,98.3,0.468
21.34,31882.7,34602.6,-0.6585,-0.9794,148.3,98.3,0.468
21.36,31830.0,34574.0,-0.9526,-1.05,148.3,98.3,0.468
21.38,31868.4,34342.1,-0.7383,-1.6222,148.3,98.3,0.468
21.4,31808.3,34539.8,-1.0734,-1.1343,148.3,98.3,0.468
21.42,31908.6,34765.2,-0.5139,-0.578,148.3,98.3,0.468
21.44,32012.5,35064.0,0.0651,0.1597,148.3,98.3,0.468
21.46,32172.9,35539.9,0.9601,1.3343,148.3,98.3,0.468
21.48,32324.8,35791.0,1.807,1.9539,148.3,98.3,0.468
21.5,32329.0,35818.0,1.8308,2.0205,148.3,98.3,0.468
21.52,32215.2,35614.5,1.1962,1.5183,148.3,98.3,0.468
21.54,32171.3,35442.9,0.9513,1.0949,148.3,98.3,0.468
21.56,32174.0,35170.7,0.9659,0.4229,148.3,98.3,0.468
21.58,32036.9,35094.4,0.2015,0.2346,148.3,98.3,0.468
21.6,31990.0,35144.1,-0.0603,0.3574,148.3,98.3,0.468
21.62,32005.5,34966.1,0.0262,-0.082,148.3,98.3,0.468
21.64,31972.1,34965.9,-0.1602,-0.0825,148.3,98.3,0.468
21.66,31927.7,34790.8,-0.4076,-0.5147,148.3,98.3,0.468
21.68,31919.1,34634.7,-0.4554,-0.9,148.3,98.3,0.468
21.7,31880.1,34599.0,-0.6731,-0.9881,148.3,98.3,0.468
21.72,31785.0,34595.7,-1.2034,-0.9963,148.3,98.3,0.468
21.74,31882.8,34648.8,-0.658,-0.8652,148.3,98.3,0.468
21.76,31819.5,34566.0,-1.0111,-1.0695,148.3,98.3,0.468
21.78,31784.4,34525.6,-1.2066,-1.1692,148.3,98.3,0.468
21.8,31785.1,34473.8,-1.2029,-1.2973,148.3,98.3,0.468
21.82,32019.9,34716.2,0.1065,-0.699,148.3,98.3,0.468
21.84,32099.8,35006.3,0.5522,0.0171,148.3,98.3,0.468
21.86,32112.9,35359.4,0.6254,0.8886,148.3,98.3,0.468
21.88,32302.5,35605.0,1.6831,1.4948,148.3,98.3,0.468
21.9,32310.5,35728.1,1.7276,1.7987,148.3,98.3,0.468
21.92,32229.4,35645.9,1.2749,1.5957,148.3,98.3,0.468
21.94,32182.6,35388.2,1.0143,0.9599,148.3,98.3,0.468
21.96,31970.2,35245.8,-0.1708,0.6083,148.3,98.3,0.468
21.98,32052.3,35218.5,0.2875,0.541,148.3,98.3,0.468
22.0,32090.0,35112.0,0.4976,0.2781,148.3,98.3,0.468
22.02,32024.2,35051.7,0.1308,0.1292,148.3,98.3,0.468
22.04,32024.0,34998.8,0.1297,-0.0014,148.3,98.3,0.468
22.06,31860.8,34784.9,-0.7805,-0.5292,148.3,98.3,0.468
22.08,31866.2,34698.2,-0.7506,-0.7432,148.3,98.3,0.468
22.1,31868.4,34679.6,-0.7385,-0.7893,148.3,98.3,0.468
22.12,31854.3,34670.8,-0.8172,-0.811,148.3,98.3,0.468
22.14,31770.0,34682.1,-1.2872,-0.783,148.3,98.3,0.468
22.16,31853.3,34573.2,-0.8224,-1.0518,148.3,98.3,0.468
22.18,31778.6,34456.6,-1.2393,-1.3397,148.3,98.3,0.468
22.2,31847.6,34450.0,-0.8546,-1.356,148.3,98.3,0.468
22.22,31855.0,34642.8,-0.8128,-0.88,148.3,98.3,0.468
22.24,32021.6,34912.5,0.1162,-0.2142,148.3,98.3,0.468
22.26,32223.9,35363.6,1.2444,0.899,148.3,98.3,0.468
22.28,32297.4,35667.9,1.6546,1.65,148.3,98.3,0.468
22.3,32278.3,35717.8,1.5481,1.7734,148.3,98.3,0.468
22.32,32253.2,35751.3,1.4078,1.8559,148.3,98.3,0.468
22.34,32174.8,35476.6,0.9704,1.1779,148.3,98.3,0.468
22.36,32066.3,35273.2,0.3655,0.6759,148.3,98.3,0.468
22.38,32046.3,35186.6,0.254,0.4621,148.3,98.3,0.468
22.4,32000.4,35045.7,-0.0022,0.1144,148.3,98.3,0.468
22.42,32020.2,35071.8,0.1084,0.1788,148.3,98.3,0.468
22.44,31992.9,35022.5,-0.0441,0.0572,148.3,98.3,0.468
22.46,31980.5,34851.8,-0.1129,-0.3641,148.3,98.3,0.468
22.48,31921.7,34690.7,-0.441,-0.7619,148.3,98.3,0.468
22.5,31888.2,34650.0,-0.6277,-0.8622,148.3,98.3,0.468
22.52,31824.9,34546.3,-0.9809,-1.1183,148.3,98.3,0.468
22.54,31855.1,34561.3,-0.8122,-1.0812,148.3,98.3,0.468
22.56,31851.1,34584.6,-0.8346,-1.0237,148.3,98.3,0.468
22.58,31657.5,34447.4,-1.9146,-1.3624,148.3,98.3,0.468
22.6,31700.2,34438.5,-1.6762,-1.3844,148.3,98.3,0.468
22.62,31802.3,34628.1,-1.1068,-0.9163,148.3,98.3,0.468
22.64,32003.9,34846.4,0.0175,-0.3774,148.3,98.3,0.468
22.66,32147.8,35257.0,0.82,0.636,148.3,98.3,0.468
22.68,32326.7,35630.2,1.8177,1.557,148.3,98.3,0.468
22.7,32313.4,35776.2,1.7436,1.9175,148.3,98.3,0.468
22.72,32359.8,35674.9,2.0025,1.6675,148.3,98.3,0.468
22.74,32117.7,35445.9,0.652,1.1021,148.3,98.3,0.468
22.76,32119.5,35345.1,0.662,0.8533,148.3,98.3,0.468
22.78,32053.9,35107.3,0.2964,0.2664,148.3,98.3,0.468
22.8,32077.1,35090.8,0.4255,0.2258,148.3,98.3,0.468
22.82,31984.3,35124.9,-0.0916,0.3099,148.3,98.3,0.468
22.84,32023.4,35053.1,0.1261,0.1328,148.3,98.3,0.468
22.86,31936.6,34917.7,-0.3577,-0.2015,148.3,98.3,0.468
22.88,31851.0,34606.9,-0.8354,-0.9686,148.3,98.3,0.468
22.9,31871.7,34692.3,-0.7199,-0.758,148.3,98.3,0.468
22.92,31874.8,34689.6,-0.7029,-0.7646,148.3,98.3,0.468
22.94,31847.8,34616.9,-0.8531,-0.9441,148.3,98.3,0.468
22.96,31822.7,34525.9,-0.993,-1.1685,148.3,98.3,0.468
22.98,31705.4,34484.1,-1.6476,-1.2718,148.3,98.3,0.468
23.0,31783.3,34491.4,-1.2132,-1.2537,148.3,98.3,0.468
23.02,31784.1,34635.5,-1.2087,-0.8981,148.3,98.3,0.468
23.04,31938.4,34776.5,-0.3479,-0.5499,148.3,98.3,0.468
23.06,32167.6,35207.8,0.9302,0.5145,148.3,98.3,0.468
23.08,32192.1,35486.2,1.067,1.2016,148.3,98.3,0.468
23.1,32363.7,35633.2,2.0241,1.5645,148.3,98.3,0.468
23.12,32254.9,35753.7,1.4172,1.862,148.3,98.3,0.468
23.14,32275.0,35544.4,1.5293,1.3454,148.3,98.3,0.468
23.16,32255.0,35280.3,1.4181,0.6934,148.3,98.3,0.468
23.18,32073.8,35207.4,0.4075,0.5136,148.3,98.3,0.468
23.2,32004.6,35177.6,0.0213,0.4399,148.3,98.3,0.468
23.22,32034.9,35078.6,0.1903,0.1957,148.3,98.3,0.468
23.24,31963.8,35005.8,-0.206,0.016,148.3,98.3,0.468
23.26,31936.3,34933.4,-0.3598,-0.1627,148.3,98.3,0.468
23.28,31965.6,34753.0,-0.196,-0.6081,148.3,98.3,0.468
23.3,31973.4,34689.5,-0.1528,-0.7649,148.3,98.3,0.468
23.32,31833.5,34687.8,-0.9332,-0.7689,148.3,98.3,0.468
23.34,31793.1,34653.5,-1.1584,-0.8537,148.3,98.3,0.468
23.36,31886.2,34577.5,-0.6392,-1.0412,148.3,98.3,0.468
23.38,31796.9,34456.5,-1.1372,-1.34,148.3,98.3,0.468
23.4,31801.6,34367.9,-1.1109,-1.5585,148.3,98.3,0.468
23.42,31787.0,34461.0,-1.1922,-1.3287,148.3,98.3,0.468
23.44,31832.4,34702.5,-0.9391,-0.7328,148.3,98.3,0.468
23.46,32160.8,35135.1,0.8926,0.3351,148.3,98.3,0.468
23.48,32166.1,35409.7,0.9224,1.0128,148.3,98.3,0.468
23.5,32356.5,35719.1,1.9838,1.7765,148.3,98.3,0.468
23.52,32300.3,35832.5,1.6709,2.0563,148.3,98.3,0.468
23.54,32235.4,35624.8,1.3085,1.5439,148.3,98.3,0.468
23.56,32195.8,35335.4,1.0878,0.8295,148.3,98.3,0.468
23.58,32149.1,35323.7,0.8271,0.8005,148.3,98.3,0.468
23.6,32153.4,35209.4,0.8514,0.5184,148.3,98.3,0.468
23.62,31974.5,35051.9,-0.1467,0.1297,148.3,98.3,0.468
23.64,32066.8,35006.5,0.3682,0.0178,148.3,98.3,0.468
23.66,31863.6,34798.9,-0.7649,-0.4946,148.3,98.3,0.468
23.68,31929.7,34834.1,-0.3963,-0.4078,148.3,98.3,0.468
23.7,31903.5,34680.1,-0.5427,-0.7879,148.3,98.3,0.468
23.72,31869.2,34691.8,-0.7338,-0.7592,148.3,98.3,0.468
23.74,31739.5,34654.3,-1.4572,-0.8516,148.3,98.3,0.468
23.76,31827.0,34648.5,-0.9695,-0.8659,148.3,98.3,0.468
23.78,31815.4,34578.3,-1.0341,-1.0393,148.3,98.3,0.468
23.8,31775.0,34503.6,-1.2591,-1.2236,148.3,98.3,0.468
23.82,31847.4,34485.6,-0.8557,-1.2681,148.3,98.3,0.468
23.84,31854.1,34755.5,-0.8179,-0.6019,148.3,98.3,0.468
23.86,32018.7,35018.7,0.0998,0.0477,148.3,98.3,0.468
23.88,32147.5,35369.3,0.8181,0.9132,148.3,98.3,0.468
23.9,32258.7,35648.3,1.4388,1.6017,148.3,98.3,0.468
23.92,32418.8,35762.9,2.3318,1.8845,148.3,98.3,0.468
23.94,32255.8,35671.0,1.4222,1.6578,148.3,98.3,0.468
23.96,32124.9,35370.7,0.6923,0.9167,148.3,98.3,0.468
23.98,32071.4,35216.1,0.394,0.5351,148.3,98.3,0.468
24.0,32101.5,35192.2,0.5616,0.476,148.3,98.3,0.468
24.02,32002.9,35034.5,0.0117,0.0867,148.3,98.3,0.468
24.04,32011.3,35087.7,0.0587,0.218,148.3,98.3,0.468
24.06,31919.2,34873.2,-0.455,-0.3113,148.3,98.3,0.468
24.08,31871.4,34709.4,-0.7215,-0.7157,148.3,98.3,0.468
24.1,31870.7,34723.6,-0.7256,-0.6805,148.3,98.3,0.468
24.12,31939.2,34660.0,-0.3434,-0.8376,148.3,98.3,0.468
24.14,31815.3,34599.5,-1.0345,-0.9869,148.3,98.3,0.468
24.16,31848.8,34641.8,-0.8478,-0.8824,148.3,98.3,0.468
24.18,31777.7,34471.3,-1.2443,-1.3034,148.3,98.3,0.468
24.2,31736.9,34450.5,-1.4717,-1.3546,148.3,98.3,0.468
24.22,31679.5,34530.8,-1.7919,-1.1564,148.3,98.3,0.468
24.24,31859.8,34583.4,-0.7864,-1.0266,148.3,98.3,0.468
24.26,32003.3,34887.4,0.014,-0.2762,148.3,98.3,0.468
24.28,32031.4,35310.3,0.1709,0.7675,148.3,98.3,0.468
24.3,32252.1,35672.2,1.4017,1.6608,148.3,98.3,0.468
24.32,32288.2,35759.5,1.6031,1.8762,148.3,98.3,0.468
24.34,32272.0,35741.5,1.5129,1.8319,148.3,98.3,0.468
24.36,32209.8,35481.9,1.1658,1.1911,148.3,98.3,0.468
24.38,32162.0,35309.5,0.8994,0.7654,148.3,98.3,0.468
24.4,32012.0,35051.2,0.0625,0.1279,148.3,98.3,0.468
24.42,32054.4,35090.3,0.2991,0.2244,148.3,98.3,0.468
24.44,32092.8,35024.4,0.5131,0.0618,148.3,98.3,0.468
24.46,32013.1,34969.6,0.069,-0.0733,148.3,98.3,0.468
24.48,31953.3,34852.2,-0.2647,-0.3633,148.3,98.3,0.468
24.5,31850.0,34724.5,-0.8409,-0.6784,148.3,98.3,0.468
24.52,31906.9,34746.3,-0.5236,-0.6247,148.3,98.3,0.468
24.54,31819.4,34696.4,-1.0114,-0.7478,148.3,98.3,0.468
24.56,31802.0,34684.4,-1.1085,-0.7774,148.3,98.3,0.468
24.58,31810.0,34565.3,-1.064,-1.0714,148.3,98.3,0.468
24.6,31766.2,34505.2,-1.3083,-1.2195,148.3,98.3,0.468
24.62,31778.7,34453.2,-1.2388,-1.3479,148.3,98.3,0.468
24.64,31772.0,34570.5,-1.2758,-1.0585,148.3,98.3,0.468
24.66,31960.6,34865.7,-0.2238,-0.33,148.3,98.3,0.468
24.68,32151.7,35315.3,0.8415,0.7799,148.3,98.3,0.468
24.7,32258.9,35453.0,1.4399,1.1196,148.3,98.3,0.468
24.72,32344.5,35858.8,1.9173,2.1213,148.3,98.3,0.468
24.74,32292.9,35779.6,1.6294,1.9258,148.3,98.3,0.468
24.76,32132.6,35568.2,0.7351,1.404,148.3,98.3,0.468
24.78,32219.9,35345.7,1.2223,0.8548,148.3,98.3,0.468
24.8,32108.4,35199.8,0.6002,0.4948,148.3,98.3,0.468
24.82,32108.7,35077.7,0.6019,0.1934,148.3,98.3,0.468
24.84,32065.0,35028.5,0.358,0.072,148.3,98.3,0.468
24.86,32022.1,34933.7,0.1189,-0.162,148.3,98.3,0.468
24.88,31957.4,34905.6,-0.2418,-0.2314,148.3,98.3,0.468
24.9,31844.2,34684.5,-0.8731,-0.7772,148.3,98.3,0.468
24.92,31880.8,34661.4,-0.6693,-0.8342,148.3,98.3,0.468
24.94,31918.4,34620.9,-0.4594,-0.934,148.3,98.3,0.468
24.96,31748.4,34573.0,-1.4077,-1.0522,148.3,98.3,0.468
24.98,31868.0,34575.9,-0.7404,-1.0453,148.3,98.3,0.468
25.0,31923.2,34482.6,-0.4327,-1.2755,148.3,98.3,0.468
25.02,31679.1,34440.6,-1.7939,-1.3791,148.3,98.3,0.468
25.04,31804.8,34525.7,-1.093,-1.1691,148.3,98.3,0.468
25.06,31871.2,34757.7,-0.7228,-0.5965,148.3,98.3,0.468
25.08,32059.0,35092.2,0.3249,0.2291,148.3,98.3,0.468
25.1,32226.5,35601.4,1.2589,1.4859,148.3,98.3,0.468
25.12,32257.0,35702.0,1.4291,1.7344,148.3,98.3,0.468
25.14,32258.5,35625.2,1.4377,1.5447,148.3,98.3,0.468
25.16,32211.0,35598.1,1.1727,1.4778,148.3,98.3,0.468
25.18,32196.3,35460.7,1.0903,1.1387,148.3,98.3,0.468
25.2,32212.1,35248.0,1.1787,0.6137,148.3,98.3,0.468
25.22,31994.1,35113.5,-0.0375,0.2818,148.3,98.3,0.468
25.24,31982.9,35156.4,-0.0994,0.3877,148.3,98.3,0.468
25.26,32011.9,34918.2,0.0619,-0.2003,148.3,98.3,0.468
25.28,31995.5,34840.9,-0.0296,-0.3911,148.3,98.3,0.468
25.3,31974.9,34790.6,-0.1445,-0.5152,148.3,98.3,0.468
25.32,31915.3,34655.8,-0.4769,-0.8479,148.3,98.3,0.468
25.34,31796.8,34663.6,-1.1375,-0.8286,148.3,98.3,0.468
25.36,31887.8,34697.5,-0.6302,-0.7449,148.3,98.3,0.468
25.38,31825.8,34604.6,-0.9759,-0.9744,148.3,98.3,0.468
25.4,31791.6,34502.9,-1.1668,-1.2253,148.3,98.3,0.468
25.42,31824.8,34439.4,-0.9815,-1.3819,148.3,98.3,0.468
25.44,31757.0,34533.8,-1.3599,-1.1491,148.3,98.3,0.468
25.46,31861.5,34705.4,-0.777,-0.7256,148.3,98.3,0.468
25.48,32054.1,35100.4,0.2973,0.2495,148.3,98.3,0.468
25.5,32194.6,35355.2,1.081,0.8783,148.3,98.3,0.468
25.52,32266.4,35647.2,1.4815,1.5991,148.3,98.3,0.468
25.54,32279.2,35758.1,1.553,1.8727,148.3,98.3,0.468
25.56,32266.7,35674.7,1.483,1.6669,148.3,98.3,0.468
25.58,32183.1,35420.8,1.0171,1.0403,148.3,98.3,0.468
25.6,32073.3,35260.5,0.4044,0.6446,148.3,98.3,0.468
25.62,32083.7,35138.4,0.4624,0.3432,148.3,98.3,0.468
25.64,32024.3,35178.1,0.131,0.4413,148.3,98.3,0.468
25.66,31981.7,35015.3,-0.1065,0.0394,148.3,98.3,0.468
25.68,32033.6,34959.7,0.1829,-0.0978,148.3,98.3,0.468
25.7,31954.9,34799.3,-0.2561,-0.4939,148.3,98.3,0.468
25.72,31881.5,34661.8,-0.6655,-0.8331,148.3,98.3,0.468
25.74,31852.1,34622.5,-0.829,-0.9301,148.3,98.3,0.468
25.76,31900.5,34708.7,-0.5594,-0.7173,148.3,98.3,0.468
25.78,31915.9,34609.9,-0.4734,-0.9614,148.3,98.3,0.468
25.8,31923.3,34578.2,-0.4322,-1.0395,148.3,98.3,0.468
25.82,31795.0,34512.2,-1.1478,-1.2023,148.3,98.3,0.468
25.84,31867.7,34449.3,-0.7424,-1.3575,148.3,98.3,0.468
25.86,31777.7,34583.1,-1.244,-1.0274,148.3,98.3,0.468
25.88,31977.6,34936.1,-0.1293,-0.1561,148.3,98.3,0.468
25.9,32222.1,35358.6,1.2344,0.8867,148.3,98.3,0.468
25.92,32292.9,35580.4,1.6296,1.4343,148.3,98.3,0.468
25.94,32322.2,35712.4,1.7929,1.76,148.3,98.3,0.468
25.96,32339.5,35681.2,1.8892,1.6829,148.3,98.3,0.468
25.98,32122.8,35471.7,0.6805,1.1658,148.3,98.3,0.468
26.0,32100.6,35249.8,0.5571,0.6183,148.3,98.3,0.468
26.02,31993.5,35161.3,-0.0406,0.3998,148.3,98.3,0.468
26.04,32042.9,35092.9,0.2352,0.2309,148.3,98.3,0.468
26.06,32052.9,35003.7,0.2909,0.0107,148.3,98.3,0.468
26.08,31919.4,34932.6,-0.4537,-0.1649,148.3,98.3,0.468
26.1,32033.8,34775.0,0.1843,-0.5537,148.3,98.3,0.468
26.12,31874.9,34770.9,-0.7018,-0.564,148.3,98.3,0.468
26.14,31869.6,34668.3,-0.7317,-0.8171,148.3,98.3,0.468
26.16,31861.5,34721.9,-0.7767,-0.6847,148.3,98.3,0.468
26.18,31761.9,34680.7,-1.3325,-0.7865,148.3,98.3,0.468
26.2,31882.6,34546.1,-0.6591,-1.1188,148.3,98.3,0.468
26.22,31776.1,34396.7,-1.2532,-1.4874,148.3,98.3,0.468
26.24,31707.3,34486.1,-1.6369,-1.2668,148.3,98.3,0.468
26.26,31921.8,34615.9,-0.4407,-0.9464,148.3,98.3,0.468
26.28,31956.3,34918.6,-0.248,-0.1994,148.3,98.3,0.468
26.3,32150.2,35176.2,0.8336,0.4364,148.3,98.3,0.468
26.32,32170.3,35492.1,0.9453,1.2162,148.3,98.3,0.468
26.34,32318.8,35772.2,1.7737,1.9076,148.3,98.3,0.468
26.36,32284.3,35799.9,1.5814,1.9759,148.3,98.3,0.468
26.38,32168.2,35597.0,0.934,1.4751,148.3,98.3,0.468
26.4,32107.8,35418.8,0.5971,1.0352,148.3,98.3,0.468
26.42,32094.2,35176.9,0.5212,0.4383,148.3,98.3,0.468
26.44,32121.3,35029.0,0.6722,0.0731,148.3,98.3,0.468
26.46,32070.1,35123.2,0.3867,0.3057,148.3,98.3,0.468
26.48,31955.0,35072.9,-0.2551,0.1816,148.3,98.3,0.468
26.5,31865.3,34794.1,-0.7558,-0.5065,148.3,98.3,0.468
26.52,31872.5,34774.8,-0.7154,-0.5544,148.3,98.3,0.468
26.54,31901.3,34710.9,-0.555,-0.7118,148.3,98.3,0.468
26.56,31762.4,34574.9,-1.3297,-1.0476,148.3,98.3,0.468
26.58,31737.8,34594.5,-1.4666,-0.9992,148.3,98.3,0.468
26.6,31812.8,34555.7,-1.0487,-1.0949,148.3,98.3,0.468
26.62,31774.9,34551.4,-1.2596,-1.1055,148.3,98.3,0.468
26.64,31713.5,34431.9,-1.6025,-1.4005,148.3,98.3,0.468
26.66,31786.4,34519.1,-1.1955,-1.1853,148.3,98.3,0.468
26.68,31970.2,34814.2,-0.1707,-0.457,148.3,98.3,0.468
26.7,32078.8,35117.2,0.4354,0.2908,148.3,98.3,0.468
26.72,32207.9,35465.4,1.1555,1.1503,148.3,98.3,0.468
26.74,32247.7,35697.3,1.3774,1.7227,148.3,98.3,0.468
26.76,32360.0,35589.2,2.0036,1.4559,148.3,98.3,0.468
26.78,32208.8,35613.6,1.1603,1.5162,148.3,98.3,0.468
26.8,32131.2,35395.6,0.7277,0.9779,148.3,98.3,0.468
26.82,32042.0,35179.8,0.2302,0.4454,148.3,98.3,0.468
26.84,32046.8,35075.0,0.2565,0.1867,148.3,98.3,0.468
26.86,31940.2,34993.3,-0.3376,-0.0149,148.3,98.3,0.468
26.88,32062.3,35024.1,0.3431,0.061,148.3,98.3,0.468
26.9,32027.2,34936.6,0.1472,-0.1549,148.3,98.3,0.468
26.92,32004.5,34750.5,0.0208,-0.6141,148.3,98.3,0.468
26.94,31818.6,34633.7,-1.0159,-0.9024,148.3,98.3,0.468
26.96,31872.9,34668.9,-0.7132,-0.8155,148.3,98.3,0.468
26.98,31811.9,34632.2,-1.0532,-0.9062,148.3,98.3,0.468
27.0,31769.4,34583.2,-1.2904,-1.0272,148.3,98.3,0.468
27.02,31804.0,34466.4,-1.0973,-1.3153,148.3,98.3,0.468
27.04,31819.6,34404.5,-1.0106,-1.4681,148.3,98.3,0.468
27.06,31779.6,34462.4,-1.2334,-1.3253,148.3,98.3,0.468
27.08,31843.9,34701.4,-0.8747,-0.7353,148.3,98.3,0.468
27.1,31962.9,35038.8,-0.2112,0.0973,148.3,98.3,0.468
27.12,32097.9,35502.9,0.5419,1.2429,148.3,98.3,0.468
27.14,32250.6,35730.6,1.3935,1.8049,148.3,98.3,0.468
27.16,32328.1,35804.7,1.8256,1.9879,148.3,98.3,0.468
27.18,32276.3,35620.9,1.5368,1.5342,148.3,98.3,0.468
27.2,32170.7,35391.2,0.9475,0.9672,148.3,98.3,0.468
27.22,32068.0,35293.6,0.375,0.7262,148.3,98.3,0.468
27.24,32084.3,35137.1,0.4658,0.3401,148.3,98.3,0.468
27.26,32047.3,35112.6,0.2595,0.2796,148.3,98.3,0.468
27.28,32033.6,35045.9,0.1829,0.1149,148.3,98.3,0.468
27.3,31889.9,34937.1,-0.6186,-0.1535,148.3,98.3,0.468
27.32,31887.0,34813.7,-0.6344,-0.4582,148.3,98.3,0.468
27.34,31859.3,34745.2,-0.7892,-0.6272,148.3,98.3,0.468
27.36,31745.7,34690.1,-1.4225,-0.7633,148.3,98.3,0.468
27.38,31894.3,34673.2,-0.594,-0.8049,148.3,98.3,0.468
27.4,31895.0,34716.7,-0.5897,-0.6976,148.3,98.3,0.468
27.42,31785.3,34546.7,-1.2021,-1.1172,148.3,98.3,0.468
27.44,31704.8,34516.6,-1.6508,-1.1916,148.3,98.3,0.468
27.46,31820.5,34428.1,-1.0054,-1.41,148.3,98.3,0.468
27.48,31844.1,34652.1,-0.8738,-0.8572,148.3,98.3,0.468
27.5,32074.7,34915.0,0.4122,-0.2081,148.3,98.3,0.468
27.52,32132.0,35267.2,0.7321,0.6612,148.3,98.3,0.468
27.54,32217.3,35768.0,1.2076,1.8972,148.3,98.3,0.468
27.56,32386.2,35750.4,2.1496,1.8536,148.3,98.3,0.468
27.58,32275.8,35686.0,1.5342,1.6947,148.3,98.3,0.468
27.6,32141.4,35447.4,0.7841,1.1059,148.3,98.3,0.468
27.62,32141.4,35324.9,0.7842,0.8034,148.3,98.3,0.468
27.64,32029.5,35134.1,0.1599,0.3325,148.3,98.3,0.468
27.66,32055.5,35113.2,0.3051,0.2811,148.3,98.3,0.468
27.68,32046.7,35073.0,0.256,0.1818,148.3,98.3,0.468
27.7,31999.0,34921.6,-0.0096,-0.1918,148.3,98.3,0.468
27.72,31821.3,34856.6,-1.0008,-0.3524,148.3,98.3,0.468
27.74,31876.6,34736.8,-0.6926,-0.6479,148.3,98.3,0.468
27.76,31794.5,34702.6,-1.1508,-0.7325,148.3,98.3,0.468
27.78,31830.3,34672.5,-0.9509,-0.8067,148.3,98.3,0.468
27.8,31812.7,34673.1,-1.0491,-0.8052,148.3,98.3,0.468
27.82,31805.9,34595.4,-1.087,-0.9971,148.3,98.3,0.468
27.84,31739.9,34450.5,-1.4553,-1.3546,148.3,98.3,0.468
27.86,31786.9,34445.5,-1.193,-1.367,148.3,98.3,0.468
27.88,31715.7,34599.2,-1.59,-0.9876,148.3,98.3,0.468
27.9,31979.3,34929.9,-0.1198,-0.1714,148.3,98.3,0.468
27.92,32189.3,35219.2,1.0517,0.5427,148.3,98.3,0.468
27.94,32170.3,35751.5,0.9458,1.8564,148.3,98.3,0.468
27.96,32397.8,35772.4,2.2144,1.9081,148.3,98.3,0.468
27.98,32309.7,35662.7,1.7229,1.6373,148.3,98.3,0.468
28.0,32227.0,35438.2,1.2616,1.0833,148.3,98.3,0.468
28.02,32102.5,35301.0,0.5675,0.7446,148.3,98.3,0.468
28.04,32115.0,35176.1,0.6371,0.4364,148.3,98.3,0.468
28.06,32056.3,35084.3,0.3098,0.2096,148.3,98.3,0.468
28.08,32045.2,35081.3,0.2479,0.2022,148.3,98.3,0.468
28.1,32015.8,34949.1,0.0838,-0.124,148.3,98.3,0.468
28.12,31943.0,34931.4,-0.3223,-0.1676,148.3,98.3,0.468
28.14,31853.7,34737.5,-0.82,-0.6462,148.3,98.3,0.468
28.16,31807.5,34639.1,-1.078,-0.8892,148.3,98.3,0.468
28.18,31891.2,34677.6,-0.6112,-0.7942,148.3,98.3,0.468
28.2,31913.1,34712.8,-0.4889,-0.7073,148.3,98.3,0.468
28.22,31865.8,34543.1,-0.7531,-1.126,148.3,98.3,0.468
28.24,31692.9,34458.5,-1.7169,-1.3348,148.3,98.3,0.468
28.26,31763.6,34389.3,-1.3229,-1.5058,148.3,98.3,0.468
28.28,31773.3,34594.3,-1.2689,-0.9996,148.3,98.3,0.468
28.3,31869.0,34765.9,-0.7351,-0.5762,148.3,98.3,0.468
28.32,32084.0,35246.6,0.4639,0.6103,148.3,98.3,0.468
28.34,32232.6,35600.1,1.2931,1.4827,148.3,98.3,0.468
28.36,32384.6,35818.8,2.1407,2.0225,148.3,98.3,0.468
28.38,32304.2,35800.2,1.6922,1.9766,148.3,98.3,0.468
28.4,32298.7,35448.6,1.6618,1.1088,148.3,98.3,0.468
28.42,32122.0,35377.4,0.676,0.9331,148.3,98.3,0.468
28.44,32121.1,35124.2,0.6711,0.3083,148.3,98.3,0.468
28.46,32082.1,35082.6,0.4537,0.2055,148.3,98.3,0.468
28.48,32025.8,35064.7,0.1397,0.1612,148.3,98.3,0.468
28.5,32062.2,35007.6,0.3423,0.0204,148.3,98.3,0.468
28.52,31982.2,35015.2,-0.1039,0.0391,148.3,98.3,0.468
28.54,31993.7,34831.2,-0.0396,-0.4151,148.3,98.3,0.468
28.56,31925.5,34688.5,-0.4197,-0.7673,148.3,98.3,0.468
28.58,31904.7,34659.3,-0.5357,-0.8393,148.3,98.3,0.468
28.6,31875.7,34617.9,-0.6976,-0.9415,148.3,98.3,0.468
28.62,31853.4,34514.4,-0.822,-1.1969,148.3,98.3,0.468
28.64,31777.6,34499.3,-1.245,-1.2343,148.3,98.3,0.468
28.66,31839.9,34480.0,-0.8972,-1.2818,148.3,98.3,0.468
28.68,31730.4,34488.4,-1.5081,-1.2611,148.3,98.3,0.468
28.7,31935.5,34754.9,-0.364,-0.6032,148.3,98.3,0.468
28.72,31995.7,35084.7,-0.0285,0.2107,148.3,98.3,0.468
28.74,32239.8,35487.0,1.3332,1.2035,148.3,98.3,0.468
28.76,32330.4,35657.2,1.8385,1.6237,148.3,98.3,0.468
28.78,32327.2,35769.8,1.8208,1.9016,148.3,98.3,0.468
28.8,32220.4,35567.0,1.2247,1.4011,148.3,98.3,0.468
28.82,32233.3,35357.5,1.2971,0.8839,148.3,98.3,0.468
28.84,32019.9,35216.3,0.1068,0.5355,148.3,98.3,0.468
28.86,32090.2,35155.8,0.499,0.3861,148.3,98.3,0.468
28.88,32047.3,35008.7,0.2595,0.0232,148.3,98.3,0.468
28.9,32029.0,35010.8,0.1574,0.0282,148.3,98.3,0.468
28.92,32012.5,34796.0,0.0656,-0.5018,148.3,98.3,0.468
28.94,31986.8,34763.5,-0.078,-0.5821,148.3,98.3,0.468
28.96,31955.1,34712.5,-0.2545,-0.708,148.3,98.3,0.468
28.98,31845.8,34686.6,-0.8646,-0.7719,148.3,98.3,0.468
29.0,31819.2,34556.5,-1.0128,-1.0931,148.3,98.3,0.468
29.02,31767.5,34641.0,-1.3013,-0.8844,148.3,98.3,0.468
29.04,31758.1,34599.5,-1.3534,-0.9868,148.3,98.3,0.468
29.06,31793.6,34457.9,-1.1558,-1.3364,148.3,98.3,0.468
29.08,31793.7,34454.3,-1.1551,-1.3453,148.3,98.3,0.468
29.1,31820.7,34621.2,-1.0041,-0.9334,148.3,98.3,0.468
29.12,31989.6,35009.3,-0.0623,0.0246,148.3,98.3,0.468
29.14,32208.8,35415.3,1.1603,1.0267,148.3,98.3,0.468
29.16,32314.9,35615.4,1.7519,1.5206,148.3,98.3,0.468
29.18,32321.2,35803.3,1.7869,1.9843,148.3,98.3,0.468
29.2,32251.4,35531.4,1.3981,1.3133,148.3,98.3,0.468
29.22,32252.0,35405.9,1.4011,1.0036,148.3,98.3,0.468
29.24,32005.9,35241.8,0.0288,0.5983,148.3,98.3,0.468
29.26,31972.6,35140.2,-0.1573,0.3476,148.3,98.3,0.468
29.28,32014.8,35112.9,0.0785,0.2804,148.3,98.3,0.468
29.3,32055.6,35079.1,0.3059,0.1967,148.3,98.3,0.468
29.32,31965.7,35030.5,-0.1954,0.0769,148.3,98.3,0.468
29.34,31877.8,34918.1,-0.6859,-0.2006,148.3,98.3,0.468
29.36,31883.2,34761.2,-0.656,-0.5877,148.3,98.3,0.468
29.38,31888.1,34722.2,-0.6284,-0.6841,148.3,98.3,0.468
29.4,31914.9,34773.9,-0.4791,-0.5564,148.3,98.3,0.468
29.42,31829.9,34567.4,-0.9528,-1.0661,148.3,98.3,0.468
29.44,31803.0,34599.0,-1.1032,-0.9882,148.3,98.3,0.468
29.46,31877.0,34420.6,-0.6904,-1.4285,148.3,98.3,0.468
29.48,31769.5,34490.4,-1.2899,-1.2563,148.3,98.3,0.468
29.5,31862.5,34568.9,-0.7712,-1.0625,148.3,98.3,0.468
29.52,31952.1,34936.9,-0.2713,-0.154,148.3,98.3,0.468
29.54,32175.6,35235.2,0.9749,0.5821,148.3,98.3,0.468
29.56,32351.3,35598.5,1.9551,1.4788,148.3,98.3,0.468
29.58,32290.8,35761.1,1.6178,1.8802,148.3,98.3,0.468
29.6,32325.5,35643.7,1.8113,1.5903,148.3,98.3,0.468
29.62,32228.8,35433.1,1.272,1.0705,148.3,98.3,0.468
29.64,32125.8,35255.5,0.6972,0.6321,148.3,98.3,0.468
29.66,31978.0,35164.0,-0.1271,0.4064,148.3,98.3,0.468
29.68,31973.3,35203.9,-0.1534,0.5049,148.3,98.3,0.468
29.7,31981.8,34974.2,-0.1056,-0.0621,148.3,98.3,0.468
29.72,31928.4,34837.1,-0.4039,-0.4006,148.3,98.3,0.468
29.74,31976.0,34895.2,-0.138,-0.2571,148.3,98.3,0.468
29.76,31950.8,34649.7,-0.2788,-0.863,148.3,98.3,0.468
29.78,31935.0,34714.9,-0.3668,-0.7022,148.3,98.3,0.468
29.8,31877.3,34714.7,-0.6884,-0.7025,148.3,98.3,0.468
29.82,31774.7,34549.5,-1.2608,-1.1104,148.3,98.3,0.468
29.84,31825.4,34516.2,-0.9781,-1.1924,148.3,98.3,0.468
29.86,31708.1,34534.3,-1.6326,-1.1478,148.3,98.3,0.468
29.88,31775.5,34374.7,-1.2566,-1.5418,148.3,98.3,0.468
29.9,31828.5,34544.0,-0.9606,-1.124,148.3,98.3,0.468
29.92,31917.5,35005.1,-0.4647,0.0141,148.3,98.3,0.468
29.94,32127.1,35306.6,0.7046,0.7583,148.3,98.3,0.468
29.96,32260.8,35571.6,1.4503,1.4124,148.3,98.3,0.468
29.98,32390.8,35695.4,2.1751,1.7179,148.3,98.3,0.468
30.0,32276.7,35690.5,1.5389,1.706,148.3,98.3,0.468
30.02,32151.2,35516.5,0.8389,1.2763,148.3,98.3,0.468
30.04,32159.1,35324.7,0.8833,0.803,148.3,98.3,0.468
30.06,32049.5,35143.2,0.2717,0.3551,148.3,98.3,0.468
30.08,32054.8,35127.8,0.3016,0.317,148.3,98.3,0.468
30.1,31986.4,35020.0,-0.0804,0.051,148.3,98.3,0.468
30.12,31980.2,34969.5,-0.1145,-0.0738,148.3,98.3,0.468
30.14,31966.9,34832.0,-0.1891,-0.4131,148.3,98.3,0.468
30.16,31878.6,34783.2,-0.6812,-0.5334,148.3,98.3,0.468
30.18,31839.8,34818.5,-0.8978,-0.4464,148.3,98.3,0.468
30.2,31855.9,34643.8,-0.8078,-0.8775,148.3,98.3,0.468
30.22,31848.3,34686.0,-0.8505,-0.7733,148.3,98.3,0.468
30.24,31743.7,34651.6,-1.434,-0.8583,148.3,98.3,0.468
30.26,31852.9,34629.3,-0.825,-0.9134,148.3,98.3,0.468
30.28,31721.3,34392.8,-1.559,-1.497,148.3,98.3,0.468
30.3,31808.8,34418.9,-1.0709,-1.4325,148.3,98.3,0.468
30.32,31963.0,34832.2,-0.2107,-0.4126,148.3,98.3,0.468
30.34,32005.8,35126.6,0.028,0.3141,148.3,98.3,0.468
30.36,32255.7,35545.6,1.4221,1.3482,148.3,98.3,0.468
30.38,32378.5,35722.2,2.1065,1.7842,148.3,98.3,0.468
30.4,32324.4,35720.0,1.8049,1.7786,148.3,98.3,0.468
30.42,32215.7,35605.1,1.1988,1.495,148.3,98.3,0.468
30.44,32133.3,35433.2,0.7393,1.0708,148.3,98.3,0.468
30.46,32091.7,35167.5,0.5071,0.415,148.3,98.3,0.468
30.48,32145.0,35107.6,0.8042,0.2672,148.3,98.3,0.468
30.5,31933.8,35010.2,-0.3736,0.0267,148.3,98.3,0.468
30.52,31986.6,35006.0,-0.079,0.0164,148.3,98.3,0.468
30.54,31949.7,34840.3,-0.2846,-0.3925,148.3,98.3,0.468
30.56,31846.6,34760.3,-0.8596,-0.5901,148.3,98.3,0.468
30.58,31794.4,34624.7,-1.1511,-0.9247,148.3,98.3,0.468
30.6,31978.6,34646.6,-0.1235,-0.8707,148.3,98.3,0.468
30.62,31859.2,34645.9,-0.7894,-0.8723,148.3,98.3,0.468
30.64,31795.5,34548.0,-1.145,-1.1141,148.3,98.3,0.468
30.66,31702.7,34504.1,-1.6623,-1.2224,148.3,98.3,0.468
30.68,31819.7,34510.6,-1.0098,-1.2062,148.3,98.3,0.468
30.7,31707.9,34464.6,-1.6335,-1.32,148.3,98.3,0.468
30.72,31905.1,34667.3,-0.5337,-0.8196,148.3,98.3,0.468
30.74,32065.2,35031.5,0.3593,0.0794,148.3,98.3,0.468
30.76,32193.6,35528.5,1.0754,1.3061,148.3,98.3,0.468
30.78,32335.7,35748.7,1.8679,1.8495,148.3,98.3,0.468
30.8,32324.5,35841.5,1.8054,2.0786,148.3,98.3,0.468
30.82,32277.7,35630.8,1.5446,1.5586,148.3,98.3,0.468
30.84,32184.8,35399.7,1.0266,0.9883,148.3,98.3,0.468
30.86,32172.6,35215.4,0.9583,0.5332,148.3,98.3,0.468
30.88,32111.6,35125.4,0.6179,0.3112,148.3,98.3,0.468
30.9,32004.3,35119.7,0.0196,0.297,148.3,98.3,0.468
30.92,32015.4,34973.2,0.0815,-0.0647,148.3,98.3,0.468
30.94,31965.9,34953.8,-0.1943,-0.1124,148.3,98.3,0.468
30.96,31890.3,34863.1,-0.6159,-0.3364,148.3,98.3,0.468
30.98,31942.5,34780.8,-0.3249,-0.5394,148.3,98.3,0.468
31.0,31885.2,34662.9,-0.6448,-0.8305,148.3,98.3,0.468
31.02,31903.8,34682.6,-0.5408,-0.7819,148.3,98.3,0.468
31.04,31839.0,34601.6,-0.9025,-0.9818,148.3,98.3,0.468
31.06,31869.8,34494.9,-0.7307,-1.2452,148.3,98.3,0.468
31.08,31846.0,34481.8,-0.863,-1.2774,148.3,98.3,0.468
31.1,31777.4,34491.1,-1.2459,-1.2545,148.3,98.3,0.468
31.12,31838.0,34649.3,-0.9081,-0.8639,148.3,98.3,0.468
31.14,31995.9,34960.9,-0.0273,-0.095,148.3,98.3,0.468
31.16,32168.6,35383.1,0.9359,0.9471,148.3,98.3,0.468
31.18,32311.2,35686.4,1.7317,1.6958,148.3,98.3,0.468
31.2,32294.2,35718.1,1.6366,1.7741,148.3,98.3,0.468
31.22,32261.9,35600.7,1.4566,1.4843,148.3,98.3,0.468
31.24,32116.6,35459.9,0.6459,1.1367,148.3,98.3,0.468
31.26,32167.2,35293.0,0.9282,0.7248,148.3,98.3,0.468
31.28,32124.6,35142.2,0.6909,0.3527,148.3,98.3,0.468
31.3,31951.3,35095.6,-0.2759,0.2375,148.3,98.3,0.468
31.32,32023.0,34999.7,0.1241,0.0008,148.3,98.3,0.468
31.34,32005.5,34885.3,0.0262,-0.2816,148.3,98.3,0.468
31.36,31874.3,34765.4,-0.7056,-0.5774,148.3,98.3,0.468
31.38,31929.9,34740.0,-0.3953,-0.6401,148.3,98.3,0.468
31.4,31919.9,34615.0,-0.4508,-0.9486,148.3,98.3,0.468
31.42,31861.2,34663.0,-0.7783,-0.8301,148.3,98.3,0.468
31.44,31854.4,34673.1,-0.8166,-0.8051,148.3,98.3,0.468
31.46,31803.7,34556.3,-1.0992,-1.0936,148.3,98.3,0.468
31.48,31726.2,34510.4,-1.5314,-1.2069,148.3,98.3,0.468
31.5,31752.7,34445.5,-1.3835,-1.3671,148.3,98.3,0.468
31.52,31897.6,34601.3,-0.5756,-0.9825,148.3,98.3,0.468
31.54,31846.1,34927.6,-0.8629,-0.1771,148.3,98.3,0.468
31.56,32090.5,35254.8,0.5007,0.6305,148.3,98.3,0.468
31.58,32302.9,35607.1,1.6851,1.5002,148.3,98.3,0.468
31.6,32368.4,35749.5,2.0507,1.8515,148.3,98.3,0.468
31.62,32318.1,35647.9,1.7697,1.6008,148.3,98.3,0.468
31.64,32234.8,35491.8,1.3055,1.2155,148.3,98.3,0.468
31.66,32149.5,35377.0,0.8298,0.9321,148.3,98.3,0.468
31.68,32126.1,35250.8,0.6988,0.6207,148.3,98.3,0.468
31.7,32114.6,35059.0,0.6347,0.1472,148.3,98.3,0.468
31.72,32045.7,34970.0,0.2507,-0.0723,148.3,98.3,0.468
31.74,31981.5,34982.3,-0.1077,-0.0421,148.3,98.3,0.468
31.76,31907.7,34785.2,-0.5189,-0.5287,148.3,98.3,0.468
31.78,31929.1,34712.6,-0.3997,-0.7078,148.3,98.3,0.468
31.8,31835.8,34701.3,-0.9204,-0.7356,148.3,98.3,0.468
31.82,31928.5,34702.6,-0.4034,-0.7323,148.3,98.3,0.468
31.84,31840.8,34587.6,-0.8922,-1.0163,148.3,98.3,0.468
31.86,31783.5,34566.0,-1.2116,-1.0697,148.3,98.3,0.468
31.88,31801.4,34482.8,-1.1119,-1.2749,148.3,98.3,0.468
31.9,31755.7,34503.9,-1.3672,-1.2229,148.3,98.3,0.468
31.92,31787.4,34510.8,-1.1898,-1.206,148.3,98.3,0.468
31.94,31849.9,34764.3,-0.8415,-0.5802,148.3,98.3,0.468
31.96,32031.6,35145.5,0.1717,0.3608,148.3,98.3,0.468
31.98,32264.4,35473.5,1.4704,1.1702,148.3,98.3,0.468
32.0,32346.8,35779.5,1.9302,1.9256,148.3,98.3,0.468
32.02,32277.1,35752.7,1.5412,1.8595,148.3,98.3,0.468
32.04,32228.7,35479.2,1.2714,1.1844,148.3,98.3,0.468
32.06,32193.5,35395.0,1.075,0.9766,148.3,98.3,0.468
32.08,32137.5,35230.9,0.7628,0.5714,148.3,98.3,0.468
32.1,32018.1,35173.9,0.0968,0.4308,148.3,98.3,0.468
32.12,32026.9,35108.7,0.1459,0.2698,148.3,98.3,0.468
32.14,32038.2,34903.4,0.2087,-0.2367,148.3,98.3,0.468
32.16,31954.0,34928.5,-0.2606,-0.1748,148.3,98.3,0.468
32.18,31946.1,34816.7,-0.3049,-0.4508,148.3,98.3,0.468
32.2,31808.7,34608.9,-1.0711,-0.9638,148.3,98.3,0.468
32.22,31787.8,34665.4,-1.1879,-0.8242,148.3,98.3,0.468
32.24,31850.1,34676.5,-0.8401,-0.7969,148.3,98.3,0.468
32.26,31827.5,34615.0,-0.9666,-0.9486,148.3,98.3,0.468
32.28,31805.1,34510.4,-1.0912,-1.2068,148.3,98.3,0.468
32.3,31755.7,34468.5,-1.3668,-1.3104,148.3,98.3,0.468
32.32,31806.5,34472.6,-1.0836,-1.3002,148.3,98.3,0.468
32.34,31881.3,34763.6,-0.6666,-0.5819,148.3,98.3,0.468
32.36,31960.1,35113.4,-0.2271,0.2815,148.3,98.3,0.468
32.38,32122.0,35441.1,0.6761,1.0904,148.3,98.3,0.468
32.4,32344.7,35709.9,1.9183,1.7537,148.3,98.3,0.468
32.42,32332.1,35753.5,1.8479,1.8614,148.3,98.3,0.468
32.44,32193.4,35475.1,1.0744,1.1744,148.3,98.3,0.468
32.46,32166.7,35431.3,0.9256,1.0662,148.3,98.3,0.468
32.48,32064.1,35272.6,0.3531,0.6745,148.3,98.3,0.468
32.5,32034.3,35140.1,0.1868,0.3475,148.3,98.3,0.468
32.52,32041.9,35071.5,0.2292,0.1781,148.3,98.3,0.468
32.54,31981.9,35044.1,-0.1052,0.1105,148.3,98.3,0.468
32.56,31917.6,34886.4,-0.4642,-0.2787,148.3,98.3,0.468
32.58,31959.5,34809.7,-0.2302,-0.468,148.3,98.3,0.468
32.6,31839.2,34693.0,-0.9012,-0.756,148.3,98.3,0.468
32.62,31864.9,34672.2,-0.758,-0.8074,148.3,98.3,0.468
32.64,31948.3,34659.4,-0.2925,-0.8392,148.3,98.3,0.468
32.66,31880.9,34594.9,-0.6688,-0.9982,148.3,98.3,0.468
32.68,31865.1,34494.1,-0.7566,-1.247,148.3,98.3,0.468
32.7,31814.8,34405.1,-1.0372,-1.4667,148.3,98.3,0.468
32.72,31801.5,34576.7,-1.1116,-1.0431,148.3,98.3,0.468
32.74,31817.9,34664.0,-1.0198,-0.8276,148.3,98.3,0.468
32.76,32025.4,35051.8,0.1375,0.1294,148.3,98.3,0.468
32.78,32201.1,35386.1,1.1175,0.9547,148.3,98.3,0.468
32.8,32257.0,35618.3,1.4292,1.5276,148.3,98.3,0.468
32.82,32261.4,35758.7,1.4534,1.8742,148.3,98.3,0.468
32.84,32299.4,35573.8,1.6657,1.4179,148.3,98.3,0.468
32.86,32190.3,35470.2,1.0572,1.1622,148.3,98.3,0.468
32.88,31993.2,35243.2,-0.0425,0.6019,148.3,98.3,0.468
32.9,32147.3,35131.7,0.8172,0.3266,148.3,98.3,0.468
32.92,32043.6,35053.0,0.2388,0.1325,148.3,98.3,0.468
32.94,31973.6,35018.9,-0.1513,0.0482,148.3,98.3,0.468
32.96,31973.4,34895.7,-0.1525,-0.2557,148.3,98.3,0.468
32.98,31915.5,34864.3,-0.4754,-0.3333,148.3,98.3,0.468
33.0,31884.3,34784.6,-0.6497,-0.53,148.3,98.3,0.468
33.02,31831.7,34714.3,-0.9428,-0.7036,148.3,98.3,0.468
33.04,31843.9,34559.6,-0.875,-1.0853,148.3,98.3,0.468
33.06,31839.6,34638.7,-0.8989,-0.8901,148.3,98.3,0.468
33.08,31872.6,34499.6,-0.7151,-1.2335,148.3,98.3,0.468
33.1,31780.9,34461.7,-1.2265,-1.327,148.3,98.3,0.468
33.12,31754.5,34454.8,-1.3734,-1.3441,148.3,98.3,0.468
33.14,31901.4,34667.5,-0.554,-0.819,148.3,98.3,0.468
33.16,31946.4,34896.2,-0.3032,-0.2546,148.3,98.3,0.468
33.18,32113.9,35320.1,0.6308,0.7916,148.3,98.3,0.468
33.2,32262.4,35573.3,1.4594,1.4166,148.3,98.3,0.468
33.22,32304.8,35710.1,1.6958,1.7542,148.3,98.3,0.468
33.24,32301.1,35620.3,1.6749,1.5326,148.3,98.3,0.468
33.26,32201.7,35457.9,1.1206,1.1319,148.3,98.3,0.468
33.28,32160.8,35349.1,0.8926,0.8632,148.3,98.3,0.468
33.3,32082.1,35212.3,0.4533,0.5257,148.3,98.3,0.468
33.32,32051.7,35104.2,0.2839,0.2588,148.3,98.3,0.468
33.34,32064.7,35046.0,0.3563,0.1152,148.3,98.3,0.468
33.36,32008.4,35005.3,0.0425,0.0147,148.3,98.3,0.468
33.38,31891.4,34795.8,-0.6101,-0.5023,148.3,98.3,0.468
33.4,31926.5,34789.7,-0.4145,-0.5174,148.3,98.3,0.468
33.42,31893.2,34734.6,-0.6002,-0.6534,148.3,98.3,0.468
33.44,31771.1,34764.9,-1.2809,-0.5787,148.3,98.3,0.468
33.46,31832.3,34720.3,-0.9396,-0.6887,148.3,98.3,0.468
33.48,31810.2,34532.2,-1.0631,-1.1531,148.3,98.3,0.468
33.5,31837.8,34598.3,-0.9088,-0.99,148.3,98.3,0.468
33.52,31842.9,34465.6,-0.8808,-1.3174,148.3,98.3,0.468
33.54,31811.4,34600.0,-1.0562,-0.9858,148.3,98.3,0.468
33.56,31941.1,34836.0,-0.3331,-0.4031,148.3,98.3,0.468
33.58,32139.5,35157.6,0.7737,0.3906,148.3,98.3,0.468
33.6,32164.4,35572.6,0.9129,1.415,148.3,98.3,0.468
33.62,32266.4,35704.1,1.4814,1.7395,148.3,98.3,0.468
33.64,32344.8,35712.7,1.9186,1.7607,148.3,98.3,0.468
33.66,32281.8,35573.7,1.5674,1.4175,148.3,98.3,0.468
33.68,32093.0,35316.8,0.5145,0.7835,148.3,98.3,0.468
33.7,31956.1,35177.7,-0.2493,0.4402,148.3,98.3,0.468
33.72,32035.2,35085.1,0.1923,0.2116,148.3,98.3,0.468
33.74,32078.3,35085.2,0.4326,0.2119,148.3,98.3,0.468
33.76,32105.5,34900.1,0.584,-0.2448,148.3,98.3,0.468
33.78,31921.1,34861.8,-0.4445,-0.3394,148.3,98.3,0.468
33.8,31892.1,34833.9,-0.6061,-0.4084,148.3,98.3,0.468
33.82,31840.9,34627.3,-0.8916,-0.9182,148.3,98.3,0.468
33.84,31878.7,34694.9,-0.6809,-0.7514,148.3,98.3,0.468
33.86,31790.0,34665.1,-1.1754,-0.825,148.3,98.3,0.468
33.88,31779.7,34589.9,-1.2328,-1.0105,148.3,98.3,0.468
33.9,31776.3,34545.0,-1.2519,-1.1215,148.3,98.3,0.468
33.92,31772.6,34389.2,-1.2727,-1.5061,148.3,98.3,0.468
33.94,31760.2,34473.6,-1.3418,-1.2978,148.3,98.3,0.468
33.96,31870.1,34680.6,-0.7287,-0.7868,148.3,98.3,0.468
33.98,32035.8,35207.7,0.1953,0.5143,148.3,98.3,0.468
34.0,32202.4,35523.6,1.1248,1.294,148.3,98.3,0.468
34.02,32296.9,35724.4,1.6518,1.7897,148.3,98.3,0.468
34.04,32360.5,35738.5,2.0064,1.8243,148.3,98.3,0.468
34.06,32297.6,35662.9,1.6555,1.6378,148.3,98.3,0.468
34.08,32109.5,35351.8,0.6064,0.8699,148.3,98.3,0.468
34.1,32069.9,35187.2,0.3856,0.4637,148.3,98.3,0.468
34.12,32113.8,35210.8,0.6302,0.522,148.3,98.3,0.468
34.14,32006.9,35104.9,0.0344,0.2605,148.3,98.3,0.468
34.16,32062.5,35007.2,0.344,0.0194,148.3,98.3,0.468
34.18,31979.5,34820.7,-0.1185,-0.4409,148.3,98.3,0.468
34.2,31926.5,34802.7,-0.4141,-0.4855,148.3,98.3,0.468
34.22,31874.2,34717.0,-0.706,-0.6968,148.3,98.3,0.468
34.24,31867.9,34674.0,-0.7412,-0.8031,148.3,98.3,0.468
34.26,31908.5,34760.8,-0.5147,-0.5887,148.3,98.3,0.468
34.28,31767.9,34550.7,-1.2991,-1.1073,148.3,98.3,0.468
34.3,31803.5,34554.5,-1.1002,-1.098,148.3,98.3,0.468
34.32,31820.2,34412.3,-1.0073,-1.449,148.3,98.3,0.468
34.34,31807.6,34571.5,-1.0775,-1.0559,148.3,98.3,0.468
34.36,31876.3,34726.1,-0.6942,-0.6745,148.3,98.3,0.468
34.38,32042.3,35013.9,0.2318,0.036,148.3,98.3,0.468
34.4,32190.3,35452.5,1.0571,1.1184,148.3,98.3,0.468
34.42,32269.7,35615.0,1.4999,1.5196,148.3,98.3,0.468
34.44,32360.4,35723.6,2.0056,1.7875,148.3,98.3,0.468
34.46,32247.5,35716.5,1.3762,1.77,148.3,98.3,0.468
34.48,32121.9,35434.0,0.6756,1.0729,148.3,98.3,0.468
34.5,32071.0,35175.8,0.3915,0.4354,148.3,98.3,0.468
34.52,31992.7,35126.1,-0.0452,0.3128,148.3,98.3,0.468
34.54,32029.5,35174.1,0.1604,0.4314,148.3,98.3,0.468
34.56,31960.2,34980.7,-0.2261,-0.046,148.3,98.3,0.468
34.58,31824.6,34887.3,-0.9824,-0.2765,148.3,98.3,0.468
34.6,31918.2,34757.6,-0.4604,-0.5966,148.3,98.3,0.468
34.62,31800.9,34647.9,-1.1148,-0.8675,148.3,98.3,0.468
34.64,31948.0,34697.3,-0.2943,-0.7455,148.3,98.3,0.468
34.66,31950.2,34683.9,-0.2823,-0.7786,148.3,98.3,0.468
34.68,31748.0,34585.1,-1.4096,-1.0226,148.3,98.3,0.468
34.7,31744.9,34592.3,-1.427,-1.0048,148.3,98.3,0.468
34.72,31763.4,34513.9,-1.3237,-1.1982,148.3,98.3,0.468
34.74,31725.3,34516.5,-1.5366,-1.1919,148.3,98.3,0.468
34.76,31826.1,34558.0,-0.9742,-1.0894,148.3,98.3,0.468
34.78,31973.4,34978.6,-0.1529,-0.0512,148.3,98.3,0.468
34.8,32126.8,35318.6,0.703,0.7879,148.3,98.3,0.468
34.82,32315.3,35596.9,1.7542,1.475,148.3,98.3,0.468
34.84,32312.5,35763.6,1.7384,1.8864,148.3,98.3,0.468
34.86,32331.9,35642.6,1.8468,1.5878,148.3,98.3,0.468
34.88,32166.5,35554.6,0.9244,1.3705,148.3,98.3,0.468
34.9,32170.0,35294.4,0.9436,0.7283,148.3,98.3,0.468
34.92,32070.3,35180.6,0.3877,0.4475,148.3,98.3,0.468
34.94,32041.1,35079.7,0.2252,0.1983,148.3,98.3,0.468
34.96,31975.6,35034.7,-0.1405,0.0872,148.3,98.3,0.468
34.98,31901.8,34847.9,-0.5521,-0.3737,148.3,98.3,0.468
35.0,31846.3,34822.6,-0.8618,-0.4363,148.3,98.3,0.468
35.02,31831.4,34725.8,-0.9444,-0.6752,148.3,98.3,0.468
35.04,31869.1,34743.8,-0.7345,-0.6308,148.3,98.3,0.468
35.06,31893.6,34680.7,-0.5975,-0.7864,148.3,98.3,0.468
35.08,31820.7,34642.3,-1.0043,-0.8812,148.3,98.3,0.468
35.1,31817.8,34555.9,-1.0207,-1.0945,148.3,98.3,0.468
35.12,31853.2,34467.3,-0.8233,-1.3133,148.3,98.3,0.468
35.14,31813.6,34441.5,-1.044,-1.377,148.3,98.3,0.468
35.16,31815.1,34578.1,-1.0356,-1.0397,148.3,98.3,0.468
35.18,31985.0,34896.7,-0.0878,-0.2533,148.3,98.3,0.468
35.2,32030.6,35167.6,0.1666,0.4154,148.3,98.3,0.468
35.22,32313.9,35618.2,1.7465,1.5274,148.3,98.3,0.468
35.24,32312.2,35745.4,1.737,1.8414,148.3,98.3,0.468
35.26,32384.5,35697.3,2.1403,1.7226,148.3,98.3,0.468
35.28,32246.2,35524.1,1.3689,1.2951,148.3,98.3,0.468
35.3,32075.7,35274.6,0.4177,0.6794,148.3,98.3,0.468
35.32,32213.0,35159.2,1.1836,0.3945,148.3,98.3,0.468
35.34,32054.0,35135.3,0.2968,0.3356,148.3,98.3,0.468
35.36,32009.8,35084.1,0.0501,0.2091,148.3,98.3,0.468
35.38,32002.4,35053.5,0.0092,0.1336,148.3,98.3,0.468
35.4,31972.7,34768.1,-0.1563,-0.5707,148.3,98.3,0.468
35.42,31883.2,34778.3,-0.6556,-0.5457,148.3,98.3,0.468
35.44,31863.3,34682.7,-0.7666,-0.7815,148.3,98.3,0.468
35.46,31806.6,34662.2,-1.0832,-0.8322,148.3,98.3,0.468
35.48,31831.1,34596.4,-0.9464,-0.9946,148.3,98.3,0.468
35.5,31770.5,34555.6,-1.2844,-1.0952,148.3,98.3,0.468
35.52,31809.4,34467.3,-1.0674,-1.3133,148.3,98.3,0.468
35.54,31876.9,34414.9,-0.6911,-1.4425,148.3,98.3,0.468
35.56,31785.1,34447.0,-1.2028,-1.3633,148.3,98.3,0.468
35.58,31938.8,34832.6,-0.3454,-0.4115,148.3,98.3,0.468
35.6,32141.6,35143.1,0.7855,0.3548,148.3,98.3,0.468
35.62,32274.6,35563.0,1.527,1.3911,148.3,98.3,0.468
35.64,32349.1,35739.8,1.9426,1.8275,148.3,98.3,0.468
35.66,32298.2,35702.2,1.6591,1.7348,148.3,98.3,0.468
35.68,32238.7,35584.0,1.3272,1.4431,148.3,98.3,0.468
35.7,32164.3,35351.5,0.9122,0.8692,148.3,98.3,0.468
35.72,32186.6,35254.3,1.0366,0.6293,148.3,98.3,0.468
35.74,32018.4,35145.1,0.0984,0.3597,148.3,98.3,0.468
35.76,32044.2,35039.8,0.2421,0.0998,148.3,98.3,0.468
35.78,31945.8,34990.3,-0.3066,-0.0224,148.3,98.3,0.468
35.8,31959.7,34863.9,-0.229,-0.3343,148.3,98.3,0.468
35.82,31907.5,34815.3,-0.5205,-0.4543,148.3,98.3,0.468
35.84,31885.3,34798.6,-0.6443,-0.4954,148.3,98.3,0.468
35.86,31817.2,34707.1,-1.024,-0.7212,148.3,98.3,0.468
35.88,31879.7,34687.3,-0.6751,-0.7701,148.3,98.3,0.468
35.9,31752.3,34696.0,-1.386,-0.7488,148.3,98.3,0.468
35.92,31795.8,34548.8,-1.1432,-1.112,148.3,98.3,0.468
35.94,31795.4,34466.1,-1.1455,-1.3162,148.3,98.3,0.468
35.96,31846.8,34490.7,-0.8589,-1.2554,148.3,98.3,0.468
35.98,31917.4,34814.1,-0.4648,-0.4573,148.3,98.3,0.468
36.0,32014.9,35041.7,0.0789,0.1046,148.3,98.3,0.468
36.02,32184.8,35490.2,1.0266,1.2114,148.3,98.3,0.468
36.04,32225.5,35777.1,1.2531,1.9196,148.3,98.3,0.468
36.06,32381.0,35746.6,2.1209,1.8445,148.3,98.3,0.468
36.08,32250.6,35595.9,1.3931,1.4723,148.3,98.3,0.468
36.1,32246.6,35423.7,1.3713,1.0473,148.3,98.3,0.468
36.12,32049.6,35183.4,0.2722,0.4544,148.3,98.3,0.468
36.14,32080.2,35135.2,0.4429,0.3353,148.3,98.3,0.468
36.16,32094.9,35075.2,0.525,0.1871,148.3,98.3,0.468
36.18,32041.3,35006.6,0.2259,0.018,148.3,98.3,0.468
36.2,31994.5,34943.8,-0.0352,-0.1372,148.3,98.3,0.468
36.22,31920.8,34806.7,-0.4459,-0.4754,148.3,98.3,0.468
36.24,31944.6,34716.3,-0.3134,-0.6987,148.3,98.3,0.468
36.26,31857.7,34701.5,-0.7978,-0.7353,148.3,98.3,0.468
36.28,31903.5,34721.1,-0.5424,-0.6867,148.3,98.3,0.468
36.3,31890.2,34730.8,-0.6168,-0.6629,148.3,98.3,0.468
36.32,31782.3,34463.0,-1.2188,-1.3239,148.3,98.3,0.468
36.34,31748.1,34461.2,-1.4094,-1.3284,148.3,98.3,0.468
36.36,31780.1,34533.3,-1.231,-1.1502,148.3,98.3,0.468
36.38,31819.1,34569.8,-1.0133,-1.0601,148.3,98.3,0.468
36.4,31873.6,34968.6,-0.7093,-0.0758,148.3,98.3,0.468
36.42,32129.0,35365.1,0.7151,0.9028,148.3,98.3,0.468
36.44,32292.6,35692.5,1.6276,1.7109,148.3,98.3,0.468
36.46,32223.4,35756.7,1.2418,1.8694,148.3,98.3,0.468
36.48,32309.9,35690.4,1.7244,1.7055,148.3,98.3,0.468
36.5,32205.1,35452.3,1.1398,1.1179,148.3,98.3,0.468
36.52,32097.5,35229.3,0.5396,0.5676,148.3,98.3,0.468
36.54,32076.8,35091.4,0.4239,0.2273,148.3,98.3,0.468
36.56,31991.4,35118.2,-0.0521,0.2934,148.3,98.3,0.468
36.58,32019.4,35112.5,0.1039,0.2793,148.3,98.3,0.468
36.6,32001.1,34850.9,0.0017,-0.3664,148.3,98.3,0.468
36.62,31991.2,34878.2,-0.0535,-0.299,148.3,98.3,0.468
36.64,31856.0,34765.1,-0.8074,-0.5782,148.3,98.3,0.468
36.66,31824.4,34622.6,-0.9839,-0.9299,148.3,98.3,0.468
36.68,31770.8,34762.4,-1.2827,-0.5849,148.3,98.3,0.468
36.7,31844.3,34601.4,-0.8726,-0.9823,148.3,98.3,0.468
36.72,31780.6,34585.4,-1.2282,-1.0218,148.3,98.3,0.468
36.74,31672.8,34411.2,-1.829,-1.4517,148.3,98.3,0.468
36.76,31756.3,34496.9,-1.3633,-1.2402,148.3,98.3,0.468
36.78,31808.7,34635.9,-1.0715,-0.8969,148.3,98.3,0.468
36.8,32032.8,34961.9,0.1789,-0.0925,148.3,98.3,0.468
36.82,32122.5,35334.3,0.6787,0.8267,148.3,98.3,0.468
36.84,32274.8,35652.8,1.5283,1.6128,148.3,98.3,0.468
36.86,32328.3,35709.4,1.8266,1.7525,148.3,98.3,0.468
36.88,32322.6,35703.2,1.7949,1.7373,148.3,98.3,0.468
36.9,32291.8,35515.2,1.6234,1.2733,148.3,98.3,0.468
36.92,32208.6,35324.5,1.1589,0.8025,148.3,98.3,0.468
36.94,32108.5,35202.0,0.6007,0.5001,148.3,98.3,0.468
36.96,32018.4,35098.1,0.0985,0.2438,148.3,98.3,0.468
36.98,32083.4,34930.0,0.4609,-0.1712,148.3,98.3,0.468
37.0,31976.8,34923.0,-0.1338,-0.1883,148.3,98.3,0.468
37.02,31964.9,34886.8,-0.2,-0.2778,148.3,98.3,0.468
37.04,31886.7,34716.6,-0.6362,-0.698,148.3,98.3,0.468
37.06,31850.8,34645.9,-0.8367,-0.8724,148.3,98.3,0.468
37.08,31836.7,34676.0,-0.9152,-0.7982,148.3,98.3,0.468
37.1,31925.0,34640.0,-0.4227,-0.887,148.3,98.3,0.468
37.12,31831.1,34592.4,-0.9461,-1.0044,148.3,98.3,0.468
37.14,31778.2,34501.9,-1.2412,-1.2277,148.3,98.3,0.468
37.16,31794.6,34435.2,-1.1502,-1.3923,148.3,98.3,0.468
37.18,31695.7,34577.4,-1.7013,-1.0414,148.3,98.3,0.468
37.2,32036.1,34843.3,0.1968,-0.3852,148.3,98.3,0.468
37.22,32050.3,35186.1,0.276,0.4609,148.3,98.3,0.468
37.24,32190.6,35645.0,1.0588,1.5936,148.3,98.3,0.468
37.26,32421.6,35662.0,2.347,1.6357,148.3,98.3,0.468
37.28,32332.1,35754.6,1.8481,1.8642,148.3,98.3,0.468
37.3,32184.1,35542.5,1.0223,1.3407,148.3,98.3,0.468
37.32,32187.9,35378.5,1.0438,0.9358,148.3,98.3,0.468
37.34,32060.1,35221.0,0.3307,0.5472,148.3,98.3,0.468
37.36,31983.3,35021.7,-0.0977,0.0551,148.3,98.3,0.468
37.38,32013.8,35077.8,0.0728,0.1937,148.3,98.3,0.468
37.4,31938.1,34984.4,-0.3498,-0.0369,148.3,98.3,0.468
37.42,32031.9,34838.4,0.1737,-0.3972,148.3,98.3,0.468
37.44,31901.1,34863.4,-0.5557,-0.3356,148.3,98.3,0.468
37.46,31866.7,34613.2,-0.7477,-0.9531,148.3,98.3,0.468
37.48,31922.6,34611.6,-0.4362,-0.9571,148.3,98.3,0.468
37.5,31878.1,34671.3,-0.6842,-0.8096,148.3,98.3,0.468
37.52,31844.5,34625.7,-0.8717,-0.9223,148.3,98.3,0.468
37.54,31797.9,34565.2,-1.1317,-1.0717,148.3,98.3,0.468
37.56,31709.4,34339.6,-1.6254,-1.6284,148.3,98.3,0.468
37.58,31810.0,34537.9,-1.064,-1.1389,148.3,98.3,0.468
37.6,31903.9,34734.6,-0.5406,-0.6534,148.3,98.3,0.468
37.62,32101.9,35121.6,0.5638,0.3017,148.3,98.3,0.468
37.64,32167.5,35442.9,0.9301,1.0947,148.3,98.3,0.468
37.66,32305.3,35702.9,1.6988,1.7366,148.3,98.3,0.468
37.68,32343.8,35624.6,1.9134,1.5433,148.3,98.3,0.468
37.7,32227.7,35535.8,1.2655,1.3241,148.3,98.3,0.468
37.72,32204.4,35368.3,1.1356,0.9106,148.3,98.3,0.468
37.74,32059.9,35159.4,0.3298,0.395,148.3,98.3,0.468
37.76,32050.4,35153.9,0.2767,0.3815,148.3,98.3,0.468
37.78,31951.4,35071.2,-0.2753,0.1773,148.3,98.3,0.468
37.8,32007.8,35007.4,0.0394,0.0199,148.3,98.3,0.468
37.82,31934.9,34877.8,-0.3675,-0.3,148.3,98.3,0.468
37.84,31841.1,34831.5,-0.8907,-0.4143,148.3,98.3,0.468
37.86,31928.7,34708.6,-0.4021,-0.7177,148.3,98.3,0.468
37.88,31849.8,34700.8,-0.8423,-0.7369,148.3,98.3,0.468
37.9,31834.9,34610.8,-0.925,-0.9591,148.3,98.3,0.468
37.92,31843.0,34711.5,-0.8799,-0.7105,148.3,98.3,0.468
37.94,31780.8,34424.9,-1.227,-1.4178,148.3,98.3,0.468
37.96,31721.2,34404.8,-1.5595,-1.4675,148.3,98.3,0.468
37.98,31789.3,34460.8,-1.1795,-1.3293,148.3,98.3,0.468
38.0,31833.3,34676.4,-0.934,-0.7972,148.3,98.3,0.468
38.02,31956.6,35025.5,-0.2466,0.0646,148.3,98.3,0.468
38.04,32054.3,35364.4,0.2983,0.9011,148.3,98.3,0.468
38.06,32317.0,35692.1,1.7639,1.7099,148.3,98.3,0.468
38.08,32347.7,35729.2,1.9351,1.8014,148.3,98.3,0.468
38.1,32288.8,35612.6,1.6064,1.5136,148.3,98.3,0.468
38.12,32177.4,35457.2,0.9853,1.1302,148.3,98.3,0.468
38.14,32083.1,35197.8,0.4589,0.4898,148.3,98.3,0.468
38.16,32090.1,35146.7,0.4982,0.3637,148.3,98.3,0.468
38.18,32074.9,34936.7,0.4134,-0.1546,148.3,98.3,0.468
38.2,32018.8,35062.5,0.1004,0.1558,148.3,98.3,0.468
38.22,31927.8,34992.0,-0.4068,-0.0181,148.3,98.3,0.468
38.24,31806.6,34749.9,-1.0831,-0.6157,148.3,98.3,0.468
38.26,31979.5,34732.6,-0.1186,-0.6583,148.3,98.3,0.468
38.28,31889.4,34707.0,-0.621,-0.7215,148.3,98.3,0.468
38.3,31913.0,34629.7,-0.4894,-0.9124,148.3,98.3,0.468
38.32,31807.1,34682.8,-1.0805,-0.7812,148.3,98.3,0.468
38.34,31737.3,34544.7,-1.4693,-1.1222,148.3,98.3,0.468
38.36,31816.7,34378.1,-1.0268,-1.5334,148.3,98.3,0.468
38.38,31790.9,34494.7,-1.1704,-1.2457,148.3,98.3,0.468
38.4,31851.6,34640.9,-0.832,-0.8847,148.3,98.3,0.468
38.42,32008.7,34889.2,0.044,-0.2718,148.3,98.3,0.468
38.44,32130.0,35249.2,0.7208,0.6167,148.3,98.3,0.468
38.46,32272.4,35625.2,1.5153,1.5447,148.3,98.3,0.468
38.48,32177.4,35793.7,0.9852,1.9607,148.3,98.3,0.468
38.5,32286.7,35686.9,1.5947,1.697,148.3,98.3,0.468
38.52,32161.3,35509.1,0.8954,1.2581,148.3,98.3,0.468
38.54,32024.5,35403.7,0.1325,0.998,148.3,98.3,0.468
38.56,32017.4,35184.6,0.0926,0.4574,148.3,98.3,0.468
38.58,32121.4,34963.3,0.6726,-0.089,148.3,98.3,0.468
38.6,32039.9,34979.3,0.2183,-0.0495,148.3,98.3,0.468
38.62,31994.0,35010.2,-0.0378,0.0268,148.3,98.3,0.468
38.64,31973.7,34878.5,-0.151,-0.2982,148.3,98.3,0.468
38.66,31912.8,34864.8,-0.4909,-0.3321,148.3,98.3,0.468
38.68,31829.7,34577.8,-0.9541,-1.0404,148.3,98.3,0.468
38.7,31900.3,34668.1,-0.5607,-0.8177,148.3,98.3,0.468
38.72,31838.1,34577.0,-0.9071,-1.0425,148.3,98.3,0.468
38.74,31736.9,34576.2,-1.4718,-1.0444,148.3,98.3,0.468
38.76,31819.9,34476.5,-1.009,-1.2905,148.3,98.3,0.468
38.78,31763.4,34519.9,-1.3241,-1.1833,148.3,98.3,0.468
38.8,31756.4,34602.4,-1.3631,-0.9797,148.3,98.3,0.468
38.82,31883.8,34861.6,-0.6527,-0.34,148.3,98.3,0.468
38.84,32141.9,35291.0,0.7873,0.7199,148.3,98.3,0.468
38.86,32364.9,35603.8,2.0308,1.4919,148.3,98.3,0.468
38.88,32290.6,35801.1,1.6167,1.9788,148.3,98.3,0.468
38.9,32335.6,35708.9,1.8676,1.7514,148.3,98.3,0.468
38.92,32263.6,35544.8,1.466,1.3463,148.3,98.3,0.468
38.94,32090.1,35364.1,0.4984,0.9002,148.3,98.3,0.468
38.96,32029.8,35179.0,0.162,0.4435,148.3,98.3,0.468
38.98,32017.2,35267.8,0.0915,0.6627,148.3,98.3,0.468
39.0,31956.4,35004.7,-0.2474,0.0133,148.3,98.3,0.468
39.02,31943.5,35014.3,-0.3195,0.0368,148.3,98.3,0.468
39.04,31891.5,34961.4,-0.6096,-0.0936,148.3,98.3,0.468
39.06,31906.3,34767.9,-0.5267,-0.5713,148.3,98.3,0.468
39.08,31918.7,34589.7,-0.4575,-1.0112,148.3,98.3,0.468
39.1,31812.8,34673.1,-1.0485,-0.8052,148.3,98.3,0.468
39.12,31859.8,34625.1,-0.7863,-0.9236,148.3,98.3,0.468
39.14,31836.2,34620.5,-0.9179,-0.9352,148.3,98.3,0.468
39.16,31795.0,34531.5,-1.1477,-1.1547,148.3,98.3,0.468
39.18,31833.6,34387.9,-0.9327,-1.5092,148.3,98.3,0.468
39.2,31774.7,34487.0,-1.2609,-1.2647,148.3,98.3,0.468
39.22,31873.5,34678.2,-0.7098,-0.7927,148.3,98.3,0.468
39.24,31987.9,35170.9,-0.0716,0.4233,148.3,98.3,0.468
39.26,32197.8,35481.6,1.0989,1.1903,148.3,98.3,0.468
39.28,32246.7,35822.8,1.3718,2.0324,148.3,98.3,0.468
39.3,32308.1,35709.7,1.7144,1.7532,148.3,98.3,0.468
39.32,32244.6,35648.8,1.3599,1.6029,148.3,98.3,0.468
39.34,32189.1,35330.4,1.0501,0.817,148.3,98.3,0.468
39.36,32140.3,35201.4,0.7782,0.4986,148.3,98.3,0.468
39.38,32121.8,35143.6,0.6751,0.356,148.3,98.3,0.468
39.4,31979.8,35133.5,-0.1172,0.331,148.3,98.3,0.468
39.42,31968.7,34958.3,-0.1791,-0.1013,148.3,98.3,0.468
39.44,31875.2,34825.9,-0.7005,-0.4282,148.3,98.3,0.468
39.46,31952.8,34762.2,-0.2677,-0.5853,148.3,98.3,0.468
39.48,31780.8,34639.3,-1.2272,-0.8887,148.3,98.3,0.468
39.5,31834.0,34553.7,-0.9302,-1.1,148.3,98.3,0.468
39.52,31864.1,34635.5,-0.7624,-0.8982,148.3,98.3,0.468
39.54,31841.1,34565.8,-0.8903,-1.0702,148.3,98.3,0.468
39.56,31795.1,34519.7,-1.1472,-1.184,148.3,98.3,0.468
39.58,31706.9,34420.3,-1.6393,-1.4291,148.3,98.3,0.468
39.6,31760.0,34528.1,-1.3429,-1.1633,148.3,98.3,0.468
39.62,31843.0,34718.8,-0.8799,-0.6925,148.3,98.3,0.468
39.64,31998.7,35117.4,-0.0114,0.2914,148.3,98.3,0.468
39.66,32180.2,35548.7,1.0008,1.3559,148.3,98.3,0.468
39.68,32407.8,35592.5,2.2702,1.464,148.3,98.3,0.468
39.7,32265.5,35817.1,1.4765,2.0183,148.3,98.3,0.468
39.72,32260.7,35613.2,1.4499,1.5151,148.3,98.3,0.468
39.74,32237.3,35390.9,1.3193,0.9665,148.3,98.3,0.468
39.76,32090.0,35190.4,0.4979,0.4715,148.3,98.3,0.468
39.78,32037.5,35155.1,0.2049,0.3844,148.3,98.3,0.468
39.8,32016.1,35019.6,0.0854,0.0499,148.3,98.3,0.468
39.82,31963.1,34974.7,-0.2103,-0.061,148.3,98.3,0.468
39.84,31979.2,34835.9,-0.1204,-0.4034,148.3,98.3,0.468
39.86,31900.9,34775.4,-0.5572,-0.5528,148.3,98.3,0.468
39.88,31905.1,34705.6,-0.5339,-0.7251,148.3,98.3,0.468
39.9,31859.4,34676.7,-0.7887,-0.7964,148.3,98.3,0.468
39.92,31897.6,34684.5,-0.5754,-0.7772,148.3,98.3,0.468
39.94,31797.7,34711.4,-1.1328,-0.7106,148.3,98.3,0.468
39.96,31820.5,34596.5,-1.0053,-0.9943,148.3,98.3,0.468
39.98,31797.5,34562.5,-1.1335,-1.0783,148.3,98.3,0.468
40.0,31837.5,34491.0,-0.9107,-1.2548,148.3,98.3,0.468
40.02,31888.0,34592.7,-0.629,-1.0038,148.3,98.3,0.468
40.04,32025.9,34950.9,0.1403,-0.1195,148.3,98.3,0.468
40.06,32159.3,35381.7,0.884,0.9438,148.3,98.3,0.468
40.08,32332.7,35579.3,1.8514,1.4315,148.3,98.3,0.468
40.1,32375.9,35840.9,2.0921,2.0771,148.3,98.3,0.468
40.12,32271.9,35667.9,1.5124,1.6501,148.3,98.3,0.468
40.14,32306.7,35488.2,1.7065,1.2066,148.3,98.3,0.468
40.16,32122.9,35295.3,0.6814,0.7305,148.3,98.3,0.468
40.18,32048.0,35194.1,0.2634,0.4808,148.3,98.3,0.468
40.2,32117.5,35036.8,0.6508,0.0925,148.3,98.3,0.468
40.22,31991.3,35066.5,-0.0531,0.1657,148.3,98.3,0.468
40.24,31948.1,35010.2,-0.2937,0.0268,148.3,98.3,0.468
40.26,31916.2,34754.9,-0.4717,-0.6032,148.3,98.3,0.468
40.28,31912.8,34743.5,-0.4906,-0.6315,148.3,98.3,0.468
40.3,31891.9,34668.0,-0.6073,-0.8177,148.3,98.3,0.468
40.32,31820.8,34675.1,-1.0038,-0.8004,148.3,98.3,0.468
40.34,31890.5,34637.1,-0.6152,-0.8941,148.3,98.3,0.468
40.36,31867.8,34528.4,-0.7418,-1.1623,148.3,98.3,0.468
40.38,31784.4,34492.1,-1.207,-1.2521,148.3,98.3,0.468
40.4,31771.0,34429.4,-1.2817,-1.4068,148.3,98.3,0.468
40.42,31793.2,34491.4,-1.1575,-1.2538,148.3,98.3,0.468
40.44,31912.7,34925.8,-0.491,-0.1816,148.3,98.3,0.468
40.46,32133.6,35222.4,0.741,0.5506,148.3,98.3,0.468
40.48,32238.0,35597.8,1.3232,1.4772,148.3,98.3,0.468
40.5,32218.4,35750.9,1.2139,1.8549,148.3,98.3,0.468
40.52,32326.8,35758.2,1.8182,1.873,148.3,98.3,0.468
40.54,32218.1,35508.0,1.2122,1.2555,148.3,98.3,0.468
40.56,32185.1,35302.0,1.028,0.7469,148.3,98.3,0.468
40.58,32101.7,35188.9,0.5631,0.4678,148.3,98.3,0.468
40.6,32059.5,35082.0,0.3278,0.204,148.3,98.3,0.468
40.62,32078.4,35064.5,0.4331,0.1608,148.3,98.3,0.468
40.64,32005.1,34925.1,0.0239,-0.1832,148.3,98.3,0.468
40.66,32060.4,34807.7,0.3325,-0.4731,148.3,98.3,0.468
40.68,31921.9,34782.3,-0.4398,-0.5358,148.3,98.3,0.468
40.7,31847.3,34720.6,-0.8562,-0.6879,148.3,98.3,0.468
40.72,31871.7,34671.9,-0.7199,-0.8082,148.3,98.3,0.468
40.74,31905.8,34704.0,-0.5298,-0.7289,148.3,98.3,0.468
40.76,31854.7,34614.1,-0.8147,-0.9508,148.3,98.3,0.468
40.78,31718.3,34538.1,-1.5756,-1.1385,148.3,98.3,0.468
40.8,31740.7,34437.6,-1.4507,-1.3864,148.3,98.3,0.468
40.82,31831.2,34532.7,-0.9458,-1.1517,148.3,98.3,0.468
40.84,31923.7,34809.5,-0.4299,-0.4686,148.3,98.3,0.468
40.86,31954.9,35135.0,-0.2557,0.3349,148.3,98.3,0.468
40.88,32235.5,35597.6,1.3093,1.4765,148.3,98.3,0.468
40.9,32330.1,35787.9,1.8366,1.9463,148.3,98.3,0.468
40.92,32320.7,35674.6,1.7846,1.6665,148.3,98.3,0.468
40.94,32269.6,35529.1,1.4993,1.3075,148.3,98.3,0.468
40.96,32092.8,35342.6,0.5132,0.8472,148.3,98.3,0.468
40.98,32122.7,35201.5,0.6801,0.499,148.3,98.3,0.468
41.0,32022.9,35164.9,0.1236,0.4086,148.3,98.3,0.468
41.02,32102.0,35114.8,0.5644,0.2851,148.3,98.3,0.468
41.04,32032.8,34953.5,0.1786,-0.1131,148.3,98.3,0.468
41.06,31980.3,34885.2,-0.114,-0.2818,148.3,98.3,0.468
41.08,31992.4,34755.8,-0.047,-0.6011,148.3,98.3,0.468
41.1,31877.2,34655.6,-0.689,-0.8485,148.3,98.3,0.468
41.12,31886.6,34711.8,-0.637,-0.7098,148.3,98.3,0.468
41.14,31898.4,34608.3,-0.5712,-0.9651,148.3,98.3,0.468
41.16,31888.3,34554.3,-0.6276,-1.0984,148.3,98.3,0.468
41.18,31775.6,34559.8,-1.2559,-1.085,148.3,98.3,0.468
41.2,31786.4,34436.9,-1.1956,-1.3881,148.3,98.3,0.468
41.22,31758.6,34589.9,-1.3508,-1.0106,148.3,98.3,0.468
41.24,31812.0,34654.7,-1.0531,-0.8507,148.3,98.3,0.468
41.26,31971.1,35122.3,-0.1655,0.3034,148.3,98.3,0.468
41.28,32239.5,35479.7,1.3313,1.1855,148.3,98.3,0.468
41.3,32335.4,35766.2,1.8663,1.8929,148.3,98.3,0.468
41.32,32284.4,35736.1,1.5821,1.8184,148.3,98.3,0.468
41.34,32232.5,35614.3,1.2922,1.5179,148.3,98.3,0.468
41.36,32171.9,35473.4,0.9547,1.17,148.3,98.3,0.468
41.38,32094.2,35274.5,0.5213,0.6791,148.3,98.3,0.468
41.4,31967.9,35093.2,-0.1835,0.2316,148.3,98.3,0.468
41.42,32035.8,34935.6,0.1951,-0.1573,148.3,98.3,0.468
41.44,32027.2,34964.3,0.1474,-0.0865,148.3,98.3,0.468
41.46,31978.5,34991.8,-0.124,-0.0185,148.3,98.3,0.468
41.48,32014.0,34764.8,0.0738,-0.5789,148.3,98.3,0.468
41.5,31965.9,34732.3,-0.1947,-0.6591,148.3,98.3,0.468
41.52,31879.5,34640.4,-0.6766,-0.886,148.3,98.3,0.468
41.54,31866.6,34618.1,-0.7484,-0.9411,148.3,98.3,0.468
41.56,31878.9,34620.7,-0.6796,-0.9346,148.3,98.3,0.468
41.58,31734.7,34493.8,-1.4842,-1.2479,148.3,98.3,0.468
41.6,31814.9,34442.7,-1.0365,-1.3738,148.3,98.3,0.468
41.62,31852.7,34467.8,-0.8258,-1.3119,148.3,98.3,0.468
41.64,31868.3,34663.6,-0.7389,-0.8286,148.3,98.3,0.468
41.66,31998.8,35115.0,-0.0108,0.2855,148.3,98.3,0.468
41.68,32127.9,35421.8,0.709,1.0426,148.3,98.3,0.468
41.7,32267.7,35637.5,1.489,1.5751,148.3,98.3,0.468
41.72,32341.9,35787.5,1.9026,1.9454,148.3,98.3,0.468
41.74,32292.3,35688.8,1.6261,1.7016,148.3,98.3,0.468
41.76,32224.2,35501.2,1.246,1.2387,148.3,98.3,0.468
41.78,32136.4,35286.2,0.7565,0.7079,148.3,98.3,0.468
41.8,32043.1,35243.5,0.2358,0.6025,148.3,98.3,0.468
41.82,32028.6,35092.5,0.1551,0.23,148.3,98.3,0.468
41.84,32072.0,34985.3,0.3974,-0.0347,148.3,98.3,0.468
41.86,31971.1,34981.2,-0.1656,-0.0447,148.3,98.3,0.468
41.88,31874.6,34869.0,-0.7037,-0.3218,148.3,98.3,0.468
41.9,31919.4,34755.7,-0.4536,-0.6013,148.3,98.3,0.468
41.92,31815.0,34711.9,-1.036,-0.7095,148.3,98.3,0.468
41.94,31910.3,34707.5,-0.5046,-0.7204,148.3,98.3,0.468
41.96,31845.5,34560.1,-0.8659,-1.0843,148.3,98.3,0.468
41.98,31853.8,34631.6,-0.8195,-0.9076,148.3,98.3,0.468
42.0,31809.2,34451.6,-1.0685,-1.3519,148.3,98.3,0.468
42.02,31787.8,34504.6,-1.188,-1.2212,148.3,98.3,0.468
42.04,31882.5,34642.5,-0.6597,-0.8808,148.3,98.3,0.468
42.06,32007.0,34821.1,0.0345,-0.4399,148.3,98.3,0.468
42.08,32140.8,35245.8,0.7813,0.6083,148.3,98.3,0.468
42.1,32147.5,35656.7,0.8182,1.6224,148.3,98.3,0.468
42.12,32338.2,35801.9,1.8822,1.9808,148.3,98.3,0.468
42.14,32321.0,35697.4,1.7859,1.7228,148.3,98.3,0.468
42.16,32213.1,35475.4,1.184,1.175,148.3,98.3,0.468
42.18,32186.2,35320.1,1.0343,0.7917,148.3,98.3,0.468
42.2,32195.8,35127.3,1.0879,0.3158,148.3,98.3,0.468
42.22,31970.5,35043.5,-0.1689,0.1089,148.3,98.3,0.468
42.24,32038.7,35013.9,0.2113,0.0359,148.3,98.3,0.468
42.26,32042.4,35016.6,0.2322,0.0427,148.3,98.3,0.468
42.28,31943.3,34803.7,-0.3204,-0.4828,148.3,98.3,0.468
42.3,31892.1,34828.0,-0.6062,-0.4229,148.3,98.3,0.468
42.32,31926.8,34762.0,-0.4129,-0.5858,148.3,98.3,0.468
42.34,31826.0,34633.1,-0.975,-0.9039,148.3,98.3,0.468
42.36,31907.0,34632.7,-0.5232,-0.9049,148.3,98.3,0.468
42.38,31773.5,34644.1,-1.2677,-0.8768,148.3,98.3,0.468
42.4,31809.2,34529.0,-1.0688,-1.161,148.3,98.3,0.468
42.42,31758.1,34385.0,-1.3534,-1.5164,148.3,98.3,0.468
42.44,31855.7,34511.0,-0.8093,-1.2054,148.3,98.3,0.468
42.46,31866.8,34821.3,-0.7474,-0.4393,148.3,98.3,0.468
42.48,32113.7,35208.9,0.63,0.5172,148.3,98.3,0.468
42.5,32187.3,35516.2,1.0403,1.2756,148.3,98.3,0.468
42.52,32312.5,35758.9,1.7389,1.8747,148.3,98.3,0.468
42.54,32346.6,35688.2,1.9288,1.7003,148.3,98.3,0.468
42.56,32293.8,35551.1,1.6341,1.3618,148.3,98.3,0.468
42.58,32167.4,35355.8,0.9295,0.8797,148.3,98.3,0.468
42.6,32156.9,35186.9,0.8711,0.463,148.3,98.3,0.468
42.62,31973.0,35068.4,-0.1548,0.1703,148.3,98.3,0.468
42.64,32067.1,35057.3,0.3701,0.143,148.3,98.3,0.468
42.66,31925.0,35003.2,-0.4225,0.0096,148.3,98.3,0.468
42.68,31848.9,34918.6,-0.8472,-0.1994,148.3,98.3,0.468
42.7,31947.6,34823.9,-0.2966,-0.433,148.3,98.3,0.468
42.72,31877.2,34670.5,-0.6894,-0.8116,148.3,98.3,0.468
42.74,31966.2,34562.9,-0.1928,-1.0773,148.3,98.3,0.468
42.76,31886.3,34608.2,-0.6382,-0.9653,148.3,98.3,0.468
42.78,31821.5,34570.4,-0.9998,-1.0587,148.3,98.3,0.468
42.8,31822.8,34587.9,-0.9926,-1.0155,148.3,98.3,0.468
42.82,31751.7,34320.1,-1.3894,-1.6765,148.3,98.3,0.468
42.84,31807.7,34578.9,-1.0769,-1.0378,148.3,98.3,0.468
42.86,31863.3,34750.2,-0.767,-0.615,148.3,98.3,0.468
42.88,32095.1,35072.9,0.5259,0.1816,148.3,98.3,0.468
42.9,32187.7,35389.9,1.0427,0.9639,148.3,98.3,0.468
42.92,32281.5,35737.7,1.5659,1.8223,148.3,98.3,0.468
42.94,32284.3,35681.4,1.5814,1.6835,148.3,98.3,0.468
42.96,32276.6,35608.8,1.5383,1.5041,148.3,98.3,0.468
42.98,32193.9,35383.7,1.0769,0.9486,148.3,98.3,0.468
43.0,32178.0,35272.4,0.9885,0.6739,148.3,98.3,0.468
43.02,32061.3,35133.3,0.3376,0.3306,148.3,98.3,0.468
43.04,32044.9,35089.2,0.2459,0.2217,148.3,98.3,0.468
43.06,32102.3,34968.8,0.5664,-0.0754,148.3,98.3,0.468
43.08,32012.2,34921.0,0.0635,-0.1934,148.3,98.3,0.468
43.1,31940.6,34859.0,-0.3356,-0.3464,148.3,98.3,0.468
43.12,31841.5,34732.7,-0.8882,-0.6581,148.3,98.3,0.468
43.14,31886.8,34681.2,-0.6359,-0.7853,148.3,98.3,0.468
43.16,31816.0,34691.4,-1.0305,-0.7602,148.3,98.3,0.468
43.18,31776.4,34609.1,-1.2512,-0.9632,148.3,98.3,0.468
43.2,31831.8,34500.6,-0.9425,-1.2309,148.3,98.3,0.468
43.22,31827.7,34395.0,-0.9651,-1.4916,148.3,98.3,0.468
43.24,31886.9,34526.6,-0.6351,-1.1669,148.3,98.3,0.468
43.26,31776.6,34700.7,-1.2501,-0.7372,148.3,98.3,0.468
43.28,32001.8,35083.2,0.0058,0.2071,148.3,98.3,0.468
43.3,32227.3,35412.3,1.2633,1.0191,148.3,98.3,0.468
43.32,32287.8,35715.7,1.6011,1.7682,148.3,98.3,0.468
43.34,32303.5,35800.1,1.6887,1.9764,148.3,98.3,0.468
43.36,32282.9,35622.1,1.5735,1.537,148.3,98.3,0.468
43.38,32231.9,35470.6,1.2889,1.1631,148.3,98.3,0.468
43.4,32093.6,35218.3,0.5177,0.5404,148.3,98.3,0.468
43.42,32160.7,35053.2,0.8922,0.133,148.3,98.3,0.468
43.44,31999.5,35053.2,-0.0072,0.133,148.3,98.3,0.468
43.46,32032.0,35010.9,0.174,0.0285,148.3,98.3,0.468
43.48,31883.1,34953.1,-0.6563,-0.1142,148.3,98.3,0.468
43.5,31872.1,34794.2,-0.7178,-0.5063,148.3,98.3,0.468
43.52,31863.7,34708.2,-0.7644,-0.7186,148.3,98.3,0.468
43.54,31923.0,34686.7,-0.4337,-0.7717,148.3,98.3,0.468
43.56,31896.1,34661.4,-0.5839,-0.8341,148.3,98.3,0.468
43.58,31852.3,34680.6,-0.8281,-0.7867,148.3,98.3,0.468
43.6,31813.2,34625.4,-1.0462,-0.9231,148.3,98.3,0.468
43.62,31720.8,34436.1,-1.5618,-1.3901,148.3,98.3,0.468
43.64,31793.2,34443.3,-1.1578,-1.3725,148.3,98.3,0.468
43.66,31781.4,34567.6,-1.2235,-1.0655,148.3,98.3,0.468
43.68,31990.7,34912.0,-0.0564,-0.2156,148.3,98.3,0.468
43.7,32108.1,35411.7,0.5983,1.0177,148.3,98.3,0.468
43.72,32246.0,35713.5,1.3678,1.7627,148.3,98.3,0.468
43.74,32357.2,35712.1,1.988,1.7592,148.3,98.3,0.468
43.76,32273.9,35678.9,1.5236,1.6772,148.3,98.3,0.468
43.78,32252.9,35509.9,1.4061,1.2602,148.3,98.3,0.468
43.8,32186.6,35275.0,1.0364,0.6803,148.3,98.3,0.468
43.82,32107.7,35201.2,0.5965,0.4983,148.3,98.3,0.468
43.84,32051.3,35109.5,0.2821,0.2718,148.3,98.3,0.468
43.86,32063.2,34988.9,0.3482,-0.0258,148.3,98.3,0.468
43.88,31932.4,34890.1,-0.3816,-0.2697,148.3,98.3,0.468
43.9,31963.1,34805.1,-0.21,-0.4794,148.3,98.3,0.468
43.92,31943.2,34730.1,-0.3212,-0.6645,148.3,98.3,0.468
43.94,31801.6,34590.7,-1.1109,-1.0085,148.3,98.3,0.468
43.96,31911.0,34632.8,-0.5006,-0.9047,148.3,98.3,0.468
43.98,31799.6,34689.6,-1.1223,-0.7646,148.3,98.3,0.468
44.0,31758.2,34472.6,-1.3531,-1.3002,148.3,98.3,0.468
44.02,31754.8,34464.9,-1.372,-1.3192,148.3,98.3,0.468
44.04,31800.6,34483.4,-1.1165,-1.2733,148.3,98.3,0.468
44.06,31774.6,34555.6,-1.2613,-1.0952,148.3,98.3,0.468
44.08,31966.0,34843.3,-0.1941,-0.3851,148.3,98.3,0.468
44.1,32099.4,35235.0,0.5499,0.5816,148.3,98.3,0.468
44.12,32218.0,35511.6,1.2115,1.2644,148.3,98.3,0.468
44.14,32350.0,35717.9,1.9475,1.7736,148.3,98.3,0.468
44.16,32347.6,35773.5,1.9344,1.9108,148.3,98.3,0.468
44.18,32243.1,35593.1,1.3518,1.4654,148.3,98.3,0.468
44.2,32177.9,35248.7,0.9877,0.6155,148.3,98.3,0.468
44.22,32071.4,35185.0,0.3938,0.4583,148.3,98.3,0.468
44.24,32069.8,35042.4,0.3851,0.1062,148.3,98.3,0.468
44.26,32027.9,35085.5,0.151,0.2125,148.3,98.3,0.468
44.28,32002.4,35002.8,0.0091,0.0085,148.3,98.3,0.468
44.3,32009.6,34821.6,0.0493,-0.4386,148.3,98.3,0.468
44.32,31894.2,34761.8,-0.5943,-0.5863,148.3,98.3,0.468
44.34,31778.2,34691.6,-1.2414,-0.7595,148.3,98.3,0.468
44.36,31830.3,34768.4,-0.9508,-0.57,148.3,98.3,0.468
44.38,31858.1,34616.5,-0.7958,-0.9451,148.3,98.3,0.468
44.4,31855.6,34664.0,-0.81,-0.8277,148.3,98.3,0.468
44.42,31780.9,34504.8,-1.2262,-1.2207,148.3,98.3,0.468
44.44,31667.1,34550.0,-1.8609,-1.1091,148.3,98.3,0.468
44.46,31680.9,34408.0,-1.7843,-1.4596,148.3,98.3,0.468
44.48,31910.2,34784.8,-0.5051,-0.5295,148.3,98.3,0.468
44.5,32027.1,35257.9,0.147,0.6381,148.3,98.3,0.468
44.52,32278.4,35575.1,1.5486,1.421,148.3,98.3,0.468
44.54,32429.5,35743.6,2.3911,1.8369,148.3,98.3,0.468
44.56,32267.9,35688.7,1.4897,1.7015,148.3,98.3,0.468
44.58,32248.6,35541.2,1.3823,1.3375,148.3,98.3,0.468
44.6,32129.1,35334.6,0.7157,0.8275,148.3,98.3,0.468
44.62,32057.7,35223.5,0.3175,0.5533,148.3,98.3,0.468
44.64,32061.6,35059.0,0.3392,0.1473,148.3,98.3,0.468
44.66,32030.0,35030.1,0.1628,0.0758,148.3,98.3,0.468
44.68,31985.8,35005.8,-0.0834,0.0158,148.3,98.3,0.468
44.7,31989.4,34878.8,-0.0633,-0.2976,148.3,98.3,0.468
44.72,31840.8,34704.8,-0.8923,-0.7269,148.3,98.3,0.468
44.74,31858.3,34736.3,-0.7944,-0.6492,148.3,98.3,0.468
44.76,31834.5,34645.5,-0.9271,-0.8734,148.3,98.3,0.468
44.78,31803.0,34739.2,-1.1029,-0.6422,148.3,98.3,0.468
44.8,31859.6,34637.9,-0.7874,-0.892,148.3,98.3,0.468
44.82,31811.6,34458.2,-1.0551,-1.3357,148.3,98.3,0.468
44.84,31798.3,34442.5,-1.1292,-1.3744,148.3,98.3,0.468
