timestamp,raw_red,raw_ir,filtered_red,filtered_ir,heart_rate,spo2,ac_dc_ratio
0.0,32097.1,35134.2,0.376,0.3299,142.2,96.1,0.557
0.02,32268.7,35452.7,1.043,1.1145,142.2,96.1,0.557
0.04,32195.7,35724.7,0.7595,1.7844,142.2,96.1,0.557
0.06,32348.6,35691.2,1.3534,1.7017,142.2,96.1,0.557
0.08,32328.6,35665.8,1.2757,1.6393,142.2,96.1,0.557
0.1,32236.2,35442.2,0.9167,1.0885,142.2,96.1,0.557
0.12,32137.3,35214.0,0.5324,0.5264,142.2,96.1,0.557
0.14,32088.8,35248.7,0.3436,0.612,142.2,96.1,0.557
0.16,32031.4,35086.9,0.1206,0.2135,142.2,96.1,0.557
0.18,31974.2,35106.8,-0.1018,0.2624,142.2,96.1,0.557
0.2,31945.5,34983.2,-0.2132,-0.042,142.2,96.1,0.557
0.22,31997.7,34715.2,-0.0105,-0.7023,142.2,96.1,0.557
0.24,31957.7,34715.2,-0.1657,-0.7023,142.2,96.1,0.557
0.26,31876.6,34681.7,-0.481,-0.7848,142.2,96.1,0.557
0.28,31825.4,34612.6,-0.68,-0.955,142.2,96.1,0.557
0.3,31767.4,34605.7,-0.9053,-0.972,142.2,96.1,0.557
0.32,31907.1,34523.0,-0.3624,-1.1755,142.2,96.1,0.557
0.34,31754.1,34401.2,-0.9571,-1.4757,142.2,96.1,0.557
0.36,31711.9,34391.6,-1.1211,-1.4992,142.2,96.1,0.557
0.38,31748.1,34525.1,-0.9804,-1.1705,142.2,96.1,0.557
0.4,31829.5,34837.3,-0.6641,-0.4014,142.2,96.1,0.557
0.42,32039.7,35064.3,0.1529,0.1578,142.2,96.1,0.557
0.44,32245.4,35486.7,0.9523,1.1982,142.2,96.1,0.557
0.46,32387.6,35730.9,1.5052,1.7995,142.2,96.1,0.557
0.48,32414.0,35740.2,1.6076,1.8225,142.2,96.1,0.557
0.5,32357.8,35585.8,1.3891,1.4422,142.2,96.1,0.557
0.52,32212.8,35505.4,0.8259,1.2441,142.2,96.1,0.557
0.54,32140.4,35239.0,0.5444,0.5881,142.2,96.1,0.557
0.56,32000.6,35213.7,0.0009,0.5256,142.2,96.1,0.557
0.58,32084.9,35007.5,0.3285,0.0179,142.2,96.1,0.557
0.6,32039.2,34959.9,0.1508,-0.0995,142.2,96.1,0.557
0.62,32046.9,35063.6,0.1808,0.1559,142.2,96.1,0.557
0.64,31935.0,34862.8,-0.2539,-0.3387,142.2,96.1,0.557
0.66,31887.1,34732.4,-0.4403,-0.6599,142.2,96.1,0.557
0.68,31885.5,34684.7,-0.4463,-0.7772,142.2,96.1,0.557
0.7,31844.8,34714.0,-0.6047,-0.7051,142.2,96.1,0.557
0.72,31885.6,34732.8,-0.446,-0.6588,142.2,96.1,0.557
0.74,31826.3,34516.4,-0.6764,-1.1919,142.2,96.1,0.557
0.76,31758.2,34512.1,-0.9414,-1.2024,142.2,96.1,0.557
0.78,31736.3,34461.4,-1.0264,-1.3274,142.2,96.1,0.557
0.8,31690.3,34550.9,-1.2051,-1.1069,142.2,96.1,0.557
0.82,31909.8,34749.5,-0.3519,-0.6177,142.2,96.1,0.557
0.84,31987.1,35038.7,-0.0514,0.0946,142.2,96.1,0.557
0.86,32273.8,35532.1,1.0629,1.31,142.2,96.1,0.557
0.88,32452.2,35658.0,1.7562,1.6201,142.2,96.1,0.557
0.9,32359.0,35760.3,1.3939,1.872,142.2,96.1,0.557
0.92,32264.1,35638.3,1.0253,1.5716,142.2,96.1,0.557
0.94,32284.6,35322.2,1.1046,0.793,142.2,96.1,0.557
0.96,32030.9,35243.8,0.1185,0.5998,142.2,96.1,0.557
0.98,32058.5,35221.1,0.2262,0.5439,142.2,96.1,0.557
1.0,32027.2,35081.5,0.1041,0.2,142.2,96.1,0.557
1.02,32076.4,35074.8,0.2956,0.1837,142.2,96.1,0.557
1.04,31975.0,34981.2,-0.0987,-0.047,142.2,96.1,0.557
1.06,31907.8,34923.7,-0.3596,-0.1887,142.2,96.1,0.557
1.08,31867.3,34741.4,-0.5173,-0.6378,142.2,96.1,0.557
1.1,31790.5,34606.7,-0.8156,-0.9696,142.2,96.1,0.557
1.12,31825.1,34625.3,-0.6812,-0.9235,142.2,96.1,0.557
1.14,31739.5,34646.9,-1.0138,-0.8705,142.2,96.1,0.557
1.16,31858.1,34634.5,-0.553,-0.901,142.2,96.1,0.557
1.18,31754.5,34399.5,-0.9558,-1.4798,142.2,96.1,0.557
1.2,31764.0,34477.4,-0.9188,-1.288,142.2,96.1,0.557
1.22,31691.0,34491.0,-1.2023,-1.2545,142.2,96.1,0.557
1.24,31834.5,34671.8,-0.6448,-0.809,142.2,96.1,0.557
1.26,32050.5,35059.2,0.1949,0.1451,142.2,96.1,0.557
1.28,32231.3,35443.4,0.8977,1.0914,142.2,96.1,0.557
1.3,32359.9,35675.6,1.3973,1.6634,142.2,96.1,0.557
1.32,32337.2,35702.1,1.3091,1.7287,142.2,96.1,0.557
1.34,32323.2,35701.9,1.2548,1.7282,142.2,96.1,0.557
1.36,32257.3,35518.9,0.9987,1.2773,142.2,96.1,0.557
1.38,32110.1,35295.6,0.4264,0.7274,142.2,96.1,0.557
1.4,32059.1,35178.4,0.2283,0.4387,142.2,96.1,0.557
1.42,32038.1,35177.1,0.1465,0.4355,142.2,96.1,0.557
1.44,32086.8,35013.3,0.336,0.0321,142.2,96.1,0.557
1.46,31956.6,34896.9,-0.1703,-0.2547,142.2,96.1,0.557
1.48,31914.3,34946.7,-0.3344,-0.1319,142.2,96.1,0.557
1.5,31862.7,34801.5,-0.5352,-0.4897,142.2,96.1,0.557
1.52,31886.6,34741.9,-0.442,-0.6365,142.2,96.1,0.557
1.54,31762.4,34619.2,-0.9249,-0.9385,142.2,96.1,0.557
1.56,31805.0,34626.7,-0.7592,-0.9203,142.2,96.1,0.557
1.58,31868.7,34709.1,-0.5116,-0.7171,142.2,96.1,0.557
1.6,31854.7,34516.5,-0.5662,-1.1916,142.2,96.1,0.557
1.62,31736.0,34477.8,-1.0274,-1.287,142.2,96.1,0.557
1.64,31748.5,34492.1,-0.979,-1.2518,142.2,96.1,0.557
1.66,31785.5,34743.1,-0.8351,-0.6335,142.2,96.1,0.557
1.68,31968.3,35077.9,-0.1247,0.1911,142.2,96.1,0.557
1.7,32263.1,35395.1,1.0212,0.9724,142.2,96.1,0.557
1.72,32394.7,35710.1,1.5326,1.7485,142.2,96.1,0.557
1.74,32458.5,35813.6,1.7806,2.0034,142.2,96.1,0.557
1.76,32361.6,35661.6,1.404,1.6291,142.2,96.1,0.557
1.78,32298.8,35578.6,1.16,1.4245,142.2,96.1,0.557
1.8,32115.9,35334.2,0.449,0.8225,142.2,96.1,0.557
1.82,32040.4,35094.1,0.1557,0.231,142.2,96.1,0.557
1.84,32066.2,35217.0,0.256,0.5338,142.2,96.1,0.557
1.86,31981.9,35069.9,-0.0716,0.1716,142.2,96.1,0.557
1.88,32064.2,35009.1,0.248,0.0217,142.2,96.1,0.557
1.9,31975.9,34847.8,-0.0949,-0.3756,142.2,96.1,0.557
1.92,31872.6,34747.8,-0.4965,-0.6218,142.2,96.1,0.557
1.94,31779.7,34718.4,-0.8579,-0.6943,142.2,96.1,0.557
1.96,31821.6,34743.6,-0.6947,-0.6323,142.2,96.1,0.557
1.98,31784.5,34529.4,-0.8389,-1.1599,142.2,96.1,0.557
2.0,31854.9,34629.2,-0.5654,-0.914,142.2,96.1,0.557
2.02,31786.6,34508.6,-0.8309,-1.211,142.2,96.1,0.557
2.04,31696.1,34510.1,-1.1825,-1.2075,142.2,96.1,0.557
2.06,31793.4,34468.5,-0.8046,-1.3097,142.2,96.1,0.557
2.08,31854.1,34736.0,-0.5685,-0.6509,142.2,96.1,0.557
2.1,31966.2,35003.9,-0.1327,0.009,142.2,96.1,0.557
2.12,32084.8,35310.7,0.328,0.7645,142.2,96.1,0.557
2.14,32349.1,35650.7,1.3557,1.6021,142.2,96.1,0.557
2.16,32386.1,35800.4,1.4995,1.9709,142.2,96.1,0.557
2.18,32427.3,35725.7,1.6596,1.787,142.2,96.1,0.557
2.2,32257.2,35575.4,0.9983,1.4165,142.2,96.1,0.557
2.22,32178.7,35435.9,0.693,1.0731,142.2,96.1,0.557
2.24,32140.4,35190.4,0.5444,0.4682,142.2,96.1,0.557
2.26,32069.8,35081.4,0.27,0.1998,142.2,96.1,0.557
2.28,31999.7,35070.1,-0.0026,0.1719,142.2,96.1,0.557
2.3,32072.4,34981.8,0.28,-0.0455,142.2,96.1,0.557
2.32,31914.6,34840.1,-0.3334,-0.3945,142.2,96.1,0.557
2.34,31835.6,34851.0,-0.6403,-0.3678,142.2,96.1,0.557
2.36,31878.8,34670.9,-0.4724,-0.8112,142.2,96.1,0.557
2.38,31817.3,34646.5,-0.7117,-0.8714,142.2,96.1,0.557
2.4,31822.4,34754.3,-0.6916,-0.6059,142.2,96.1,0.557
2.42,31785.9,34637.3,-0.8336,-0.894,142.2,96.1,0.557
2.44,31717.7,34615.2,-1.0987,-0.9485,142.2,96.1,0.557
2.46,31703.4,34540.8,-1.1542,-1.1317,142.2,96.1,0.557
2.48,31603.6,34506.2,-1.5422,-1.217,142.2,96.1,0.557
2.5,31816.3,34720.6,-0.7153,-0.689,142.2,96.1,0.557
2.52,31893.1,35049.7,-0.4169,0.1217,142.2,96.1,0.557
2.54,32115.3,35217.7,0.4469,0.5355,142.2,96.1,0.557
2.56,32277.5,35654.0,1.0772,1.6101,142.2,96.1,0.557
2.58,32360.1,35669.7,1.3982,1.649,142.2,96.1,0.557
2.6,32389.9,35711.6,1.5141,1.7522,142.2,96.1,0.557
2.62,32218.6,35598.0,0.8482,1.4722,142.2,96.1,0.557
2.64,32145.1,35418.8,0.5627,1.0309,142.2,96.1,0.557
2.66,32189.5,35093.1,0.735,0.2286,142.2,96.1,0.557
2.68,31997.9,35265.8,-0.0094,0.6541,142.2,96.1,0.557
2.7,32054.4,35041.1,0.21,0.1005,142.2,96.1,0.557
2.72,31870.4,35008.5,-0.5051,0.0203,142.2,96.1,0.557
2.74,31944.5,34922.2,-0.2171,-0.1924,142.2,96.1,0.557
2.76,32006.7,34798.4,0.0246,-0.4972,142.2,96.1,0.557
2.78,31875.3,34659.8,-0.486,-0.8388,142.2,96.1,0.557
2.8,31787.2,34643.8,-0.8287,-0.8782,142.2,96.1,0.557
2.82,31826.6,34731.7,-0.6754,-0.6616,142.2,96.1,0.557
2.84,31744.4,34613.6,-0.9947,-0.9526,142.2,96.1,0.557
2.86,31794.7,34512.6,-0.7992,-1.2012,142.2,96.1,0.557
2.88,31750.6,34515.1,-0.9709,-1.1952,142.2,96.1,0.557
2.9,31758.7,34459.7,-0.9393,-1.3315,142.2,96.1,0.557
2.92,31823.6,34676.9,-0.6872,-0.7964,142.2,96.1,0.557
2.94,31962.7,34982.4,-0.1465,-0.0441,142.2,96.1,0.557
2.96,32171.2,35351.2,0.6642,0.8644,142.2,96.1,0.557
2.98,32232.3,35622.1,0.9015,1.5316,142.2,96.1,0.557
3.0,32260.9,35660.4,1.0126,1.6261,142.2,96.1,0.557
3.02,32431.3,35817.5,1.6752,2.0129,142.2,96.1,0.557
3.04,32301.6,35603.1,1.1708,1.4847,142.2,96.1,0.557
3.06,32180.8,35288.2,0.7014,0.7092,142.2,96.1,0.557
3.08,32109.6,35168.5,0.4246,0.4143,142.2,96.1,0.557
3.1,32100.6,35123.2,0.3896,0.3028,142.2,96.1,0.557
3.12,31999.1,35076.3,-0.0048,0.1873,142.2,96.1,0.557
3.14,31924.9,35034.4,-0.2931,0.0842,142.2,96.1,0.557
3.16,31973.2,34957.8,-0.1057,-0.1046,142.2,96.1,0.557
3.18,31999.9,34770.3,-0.0018,-0.5666,142.2,96.1,0.557
3.2,31900.9,34675.8,-0.3867,-0.7992,142.2,96.1,0.557
3.22,31874.4,34808.8,-0.4896,-0.4716,142.2,96.1,0.557
3.24,31893.3,34608.3,-0.4161,-0.9655,142.2,96.1,0.557
3.26,31788.7,34608.2,-0.8228,-0.9658,142.2,96.1,0.557
3.28,31777.9,34560.6,-0.8649,-1.0831,142.2,96.1,0.557
3.3,31783.5,34466.1,-0.8427,-1.3158,142.2,96.1,0.557
3.32,31743.1,34525.9,-0.9999,-1.1686,142.2,96.1,0.557
3.34,31844.5,34625.1,-0.6057,-0.9242,142.2,96.1,0.557
3.36,31957.9,34898.8,-0.165,-0.25,142.2,96.1,0.557
3.38,32123.8,35206.1,0.4798,0.5069,142.2,96.1,0.557
3.4,32274.6,35575.6,1.0661,1.4171,142.2,96.1,0.557
3.42,32427.9,35677.2,1.6617,1.6675,142.2,96.1,0.557
3.44,32392.9,35603.1,1.5259,1.4848,142.2,96.1,0.557
3.46,32355.0,35597.1,1.3785,1.4702,142.2,96.1,0.557
3.48,32067.9,35381.0,0.2624,0.9378,142.2,96.1,0.557
3.5,32102.7,35256.6,0.3977,0.6313,142.2,96.1,0.557
3.52,32091.2,35165.4,0.3531,0.4067,142.2,96.1,0.557
3.54,31985.6,35090.6,-0.0573,0.2224,142.2,96.1,0.557
3.56,32009.8,35115.4,0.0366,0.2835,142.2,96.1,0.557
3.58,31955.4,34905.0,-0.1749,-0.2348,142.2,96.1,0.557
3.6,31822.4,34708.6,-0.6915,-0.7185,142.2,96.1,0.557
3.62,31925.9,34774.8,-0.2893,-0.5554,142.2,96.1,0.557
3.64,31795.8,34615.6,-0.7951,-0.9476,142.2,96.1,0.557
3.66,31855.0,34657.6,-0.5649,-0.844,142.2,96.1,0.557
3.68,31759.5,34670.4,-0.9361,-0.8127,142.2,96.1,0.557
3.7,31814.9,34525.4,-0.721,-1.1697,142.2,96.1,0.557
3.72,31671.9,34521.6,-1.2768,-1.1791,142.2,96.1,0.557
3.74,31696.0,34445.6,-1.183,-1.3662,142.2,96.1,0.557
3.76,31755.0,34568.1,-0.9536,-1.0645,142.2,96.1,0.557
3.78,31978.4,34843.2,-0.0852,-0.3868,142.2,96.1,0.557
3.8,32084.0,35105.8,0.3252,0.2598,142.2,96.1,0.557
3.82,32279.3,35580.2,1.0842,1.4284,142.2,96.1,0.557
3.84,32454.7,35782.7,1.7659,1.9272,142.2,96.1,0.557
3.86,32375.8,35747.0,1.4594,1.8394,142.2,96.1,0.557
3.88,32244.5,35517.0,0.9489,1.2728,142.2,96.1,0.557
3.9,32210.5,35386.2,0.8166,0.9507,142.2,96.1,0.557
3.92,32150.3,35217.5,0.583,0.535,142.2,96.1,0.557
3.94,32016.7,35177.2,0.0636,0.4357,142.2,96.1,0.557
3.96,32029.1,35037.1,0.1117,0.0907,142.2,96.1,0.557
3.98,32004.9,35037.0,0.0176,0.0904,142.2,96.1,0.557
4.0,31982.9,34963.6,-0.068,-0.0904,142.2,96.1,0.557
4.02,31905.1,34929.1,-0.3703,-0.1754,142.2,96.1,0.557
4.04,31893.2,34690.3,-0.4166,-0.7634,142.2,96.1,0.557
4.06,31890.7,34721.9,-0.4264,-0.6857,142.2,96.1,0.557
4.08,31893.3,34741.4,-0.4161,-0.6377,142.2,96.1,0.557
4.1,31804.0,34677.0,-0.7631,-0.7964,142.2,96.1,0.557
4.12,31814.1,34597.2,-0.7239,-0.9927,142.2,96.1,0.557
4.14,31764.1,34434.5,-0.9184,-1.3936,142.2,96.1,0.557
4.16,31802.0,34427.4,-0.771,-1.4111,142.2,96.1,0.557
4.18,31639.2,34461.1,-1.4039,-1.328,142.2,96.1,0.557
4.2,31920.3,34813.2,-0.3113,-0.4607,142.2,96.1,0.557
4.22,32178.6,35200.3,0.6928,0.4926,142.2,96.1,0.557
4.24,32314.6,35501.2,1.2216,1.2338,142.2,96.1,0.557
4.26,32399.9,35818.4,1.5531,2.0152,142.2,96.1,0.557
4.28,32401.3,35644.9,1.5583,1.5878,142.2,96.1,0.557
4.3,32225.1,35580.6,0.8736,1.4293,142.2,96.1,0.557
4.32,32192.9,35434.8,0.7483,1.0703,142.2,96.1,0.557
4.34,32168.5,35194.7,0.6534,0.479,142.2,96.1,0.557
4.36,32069.6,35133.9,0.2691,0.3291,142.2,96.1,0.557
4.38,31997.4,35124.2,-0.0115,0.3053,142.2,96.1,0.557
4.4,31985.6,35016.2,-0.0575,0.0393,142.2,96.1,0.557
4.42,31916.4,34944.7,-0.3264,-0.1369,142.2,96.1,0.557
4.44,31915.5,34710.0,-0.33,-0.7149,142.2,96.1,0.557
4.46,32028.6,34787.5,0.1098,-0.5242,142.2,96.1,0.557
4.48,31748.9,34699.3,-0.9776,-0.7412,142.2,96.1,0.557
4.5,31899.3,34716.5,-0.3928,-0.6989,142.2,96.1,0.557
4.52,31831.2,34728.4,-0.6577,-0.6698,142.2,96.1,0.557
4.54,31816.5,34608.9,-0.7145,-0.9641,142.2,96.1,0.557
4.56,31754.9,34460.8,-0.954,-1.3287,142.2,96.1,0.557
4.58,31718.5,34472.5,-1.0954,-1.2999,142.2,96.1,0.557
4.6,31759.4,34445.4,-0.9368,-1.3667,142.2,96.1,0.557
4.62,31789.8,34721.5,-0.8183,-0.6867,142.2,96.1,0.557
4.64,32052.7,35103.4,0.2034,0.2539,142.2,96.1,0.557
4.66,32218.1,35479.3,0.8465,1.1799,142.2,96.1,0.557
4.68,32353.4,35761.5,1.3724,1.8751,142.2,96.1,0.557
4.7,32316.4,35717.0,1.2284,1.7654,142.2,96.1,0.557
4.72,32335.7,35662.3,1.3035,1.6307,142.2,96.1,0.557
4.74,32106.3,35511.0,0.4119,1.2581,142.2,96.1,0.557
4.76,32176.0,35249.7,0.6827,0.6143,142.2,96.1,0.557
4.78,31991.1,35149.0,-0.0361,0.3663,142.2,96.1,0.557
4.8,32028.5,35061.9,0.1094,0.1517,142.2,96.1,0.557
4.82,32022.8,34992.7,0.0873,-0.0187,142.2,96.1,0.557
4.84,31907.4,34883.0,-0.3614,-0.2889,142.2,96.1,0.557
4.86,31925.2,34772.3,-0.2923,-0.5615,142.2,96.1,0.557
4.88,31849.3,34684.6,-0.5871,-0.7776,142.2,96.1,0.557
4.9,31815.1,34608.2,-0.7201,-0.9657,142.2,96.1,0.557
4.92,31832.8,34618.2,-0.6514,-0.9411,142.2,96.1,0.557
4.94,31844.4,34642.9,-0.6064,-0.8803,142.2,96.1,0.557
4.96,31841.6,34601.6,-0.6169,-0.982,142.2,96.1,0.557
4.98,31704.8,34538.3,-1.1489,-1.1379,142.2,96.1,0.557
5.0,31738.2,34477.3,-1.0191,-1.2881,142.2,96.1,0.557
5.02,31744.3,34570.7,-0.9954,-1.0582,142.2,96.1,0.557
5.04,31847.9,34719.1,-0.5926,-0.6927,142.2,96.1,0.557
5.06,31990.0,35102.5,-0.0402,0.2517,142.2,96.1,0.557
5.08,32245.0,35465.0,0.9508,1.1448,142.2,96.1,0.557
5.1,32307.6,35750.3,1.194,1.8475,142.2,96.1,0.557
5.12,32305.0,35742.5,1.1841,1.8283,142.2,96.1,0.557
5.14,32302.6,35742.9,1.1748,1.8293,142.2,96.1,0.557
5.16,32177.7,35393.2,0.6895,0.9678,142.2,96.1,0.557
5.18,32137.8,35250.2,0.5341,0.6156,142.2,96.1,0.557
5.2,32138.5,35117.6,0.5371,0.2889,142.2,96.1,0.557
5.22,32072.7,35071.5,0.281,0.1755,142.2,96.1,0.557
5.24,32087.3,35104.2,0.338,0.2561,142.2,96.1,0.557
5.26,31918.7,34996.2,-0.3175,-0.0101,142.2,96.1,0.557
5.28,31892.1,34842.3,-0.4207,-0.3892,142.2,96.1,0.557
5.3,31831.1,34742.9,-0.6578,-0.6341,142.2,96.1,0.557
5.32,31844.9,34652.9,-0.6042,-0.8557,142.2,96.1,0.557
5.34,31834.3,34671.9,-0.6455,-0.8089,142.2,96.1,0.557
5.36,31837.1,34666.0,-0.6346,-0.8233,142.2,96.1,0.557
5.38,31742.3,34710.1,-1.0031,-0.7147,142.2,96.1,0.557
5.4,31778.8,34491.8,-0.8612,-1.2524,142.2,96.1,0.557
5.42,31757.7,34435.2,-0.9433,-1.3918,142.2,96.1,0.557
5.44,31752.4,34546.3,-0.9638,-1.1181,142.2,96.1,0.557
5.46,31836.8,34760.9,-0.6358,-0.5897,142.2,96.1,0.557
5.48,32040.6,35061.3,0.1563,0.1504,142.2,96.1,0.557
5.5,32234.9,35429.4,0.9116,1.057,142.2,96.1,0.557
5.52,32419.6,35738.0,1.6295,1.8172,142.2,96.1,0.557
5.54,32334.1,35775.3,1.2971,1.9091,142.2,96.1,0.557
5.56,32301.1,35693.9,1.1691,1.7085,142.2,96.1,0.557
5.58,32259.6,35448.2,1.0077,1.1034,142.2,96.1,0.557
5.6,32218.7,35284.8,0.8488,0.701,142.2,96.1,0.557
5.62,32056.8,35190.4,0.2194,0.4683,142.2,96.1,0.557
5.64,32054.5,35032.1,0.2103,0.0783,142.2,96.1,0.557
5.66,32092.7,35016.3,0.3589,0.0396,142.2,96.1,0.557
5.68,32102.9,34990.7,0.3987,-0.0236,142.2,96.1,0.557
5.7,31842.3,34762.2,-0.6145,-0.5865,142.2,96.1,0.557
5.72,31886.3,34664.3,-0.4435,-0.8275,142.2,96.1,0.557
5.74,31895.7,34773.5,-0.4067,-0.5587,142.2,96.1,0.557
5.76,31854.4,34764.6,-0.5674,-0.5804,142.2,96.1,0.557
5.78,31866.5,34635.3,-0.5202,-0.8989,142.2,96.1,0.557
5.8,31784.8,34522.2,-0.8379,-1.1777,142.2,96.1,0.557
5.82,31734.2,34490.4,-1.0347,-1.2559,142.2,96.1,0.557
5.84,31735.6,34482.9,-1.0293,-1.2744,142.2,96.1,0.557
5.86,31795.1,34463.3,-0.7976,-1.3227,142.2,96.1,0.557
5.88,31809.7,34710.9,-0.741,-0.7127,142.2,96.1,0.557
5.9,32010.2,35000.4,0.0384,0.0003,142.2,96.1,0.557
5.92,32174.0,35342.8,0.675,0.8436,142.2,96.1,0.557
5.94,32338.1,35713.0,1.3129,1.7556,142.2,96.1,0.557
5.96,32508.0,35692.4,1.9732,1.7049,142.2,96.1,0.557
5.98,32412.8,35646.7,1.6032,1.5922,142.2,96.1,0.557
6.0,32244.1,35523.1,0.9473,1.2878,142.2,96.1,0.557
6.02,32115.5,35310.1,0.4475,0.7631,142.2,96.1,0.557
6.04,32001.5,35217.7,0.0043,0.5356,142.2,96.1,0.557
6.06,32113.7,35014.1,0.4405,0.0341,142.2,96.1,0.557
6.08,31964.4,35081.1,-0.1398,0.1991,142.2,96.1,0.557
6.1,31951.9,35071.4,-0.1882,0.1751,142.2,96.1,0.557
6.12,31897.8,34812.3,-0.3986,-0.463,142.2,96.1,0.557
6.14,31831.4,34795.2,-0.6566,-0.5052,142.2,96.1,0.557
6.16,31884.6,34668.8,-0.4499,-0.8165,142.2,96.1,0.557
6.18,31765.5,34657.8,-0.9128,-0.8436,142.2,96.1,0.557
6.2,31844.6,34629.9,-0.6055,-0.9122,142.2,96.1,0.557
6.22,31850.4,34603.0,-0.5829,-0.9786,142.2,96.1,0.557
6.24,31754.4,34531.5,-0.9562,-1.1548,142.2,96.1,0.557
6.26,31794.9,34469.1,-0.7987,-1.3084,142.2,96.1,0.557
6.28,31804.3,34493.7,-0.7621,-1.2477,142.2,96.1,0.557
6.3,31804.0,34714.1,-0.7631,-0.7049,142.2,96.1,0.557
6.32,31993.3,34981.9,-0.0276,-0.0453,142.2,96.1,0.557
6.34,32231.1,35385.3,0.8967,0.9484,142.2,96.1,0.557
6.36,32345.8,35637.7,1.3427,1.5701,142.2,96.1,0.557
6.38,32379.1,35840.7,1.472,2.0702,142.2,96.1,0.557
6.4,32396.1,35618.6,1.5383,1.523,142.2,96.1,0.557
6.42,32376.2,35469.0,1.4607,1.1546,142.2,96.1,0.557
6.44,32142.4,35346.3,0.5522,0.8523,142.2,96.1,0.557
6.46,32099.2,35075.7,0.3841,0.1857,142.2,96.1,0.557
6.48,32044.2,35057.3,0.1705,0.1405,142.2,96.1,0.557
6.5,32102.1,35066.5,0.3954,0.163,142.2,96.1,0.557
6.52,31948.4,34893.1,-0.2019,-0.264,142.2,96.1,0.557
6.54,31940.9,34931.9,-0.2311,-0.1685,142.2,96.1,0.557
6.56,31930.6,34738.8,-0.271,-0.644,142.2,96.1,0.557
6.58,31905.0,34665.1,-0.3707,-0.8256,142.2,96.1,0.557
6.6,31792.4,34725.5,-0.8083,-0.6768,142.2,96.1,0.557
6.62,31830.1,34635.5,-0.6619,-0.8984,142.2,96.1,0.557
6.64,31767.3,34637.3,-0.9059,-0.8942,142.2,96.1,0.557
6.66,31836.3,34568.2,-0.6377,-1.0643,142.2,96.1,0.557
6.68,31727.7,34502.9,-1.0597,-1.2251,142.2,96.1,0.557
6.7,31668.9,34565.4,-1.2885,-1.0713,142.2,96.1,0.557
6.72,31765.3,34580.4,-0.9138,-1.0342,142.2,96.1,0.557
6.74,31956.5,34975.4,-0.1703,-0.0613,142.2,96.1,0.557
6.76,32209.4,35284.2,0.8126,0.6993,142.2,96.1,0.557
6.78,32273.8,35580.7,1.0629,1.4297,142.2,96.1,0.557
6.8,32442.3,35777.2,1.7176,1.9137,142.2,96.1,0.557
6.82,32401.1,35684.9,1.5575,1.6864,142.2,96.1,0.557
6.84,32237.0,35477.5,0.9197,1.1756,142.2,96.1,0.557
6.86,32116.9,35456.3,0.4528,1.1234,142.2,96.1,0.557
6.88,32070.8,35285.7,0.2736,0.703,142.2,96.1,0.557
6.9,32118.0,35144.3,0.4573,0.3547,142.2,96.1,0.557
6.92,32030.8,35104.1,0.1183,0.2557,142.2,96.1,0.557
6.94,31914.5,34959.2,-0.3339,-0.1011,142.2,96.1,0.557
6.96,31876.6,34917.7,-0.481,-0.2035,142.2,96.1,0.557
6.98,31836.3,34840.5,-0.6376,-0.3936,142.2,96.1,0.557
7.0,31866.6,34709.6,-0.52,-0.7159,142.2,96.1,0.557
7.02,31762.0,34640.5,-0.9264,-0.8862,142.2,96.1,0.557
7.04,31823.8,34645.9,-0.6864,-0.8728,142.2,96.1,0.557
7.06,31756.3,34623.4,-0.9488,-0.9282,142.2,96.1,0.557
7.08,31818.6,34540.1,-0.7067,-1.1335,142.2,96.1,0.557
7.1,31759.9,34443.7,-0.9346,-1.371,142.2,96.1,0.557
7.12,31744.9,34462.2,-0.9931,-1.3254,142.2,96.1,0.557
7.14,31841.4,34622.7,-0.618,-0.93,142.2,96.1,0.557
7.16,31899.2,34919.9,-0.3933,-0.198,142.2,96.1,0.557
7.18,32088.6,35233.7,0.3431,0.575,142.2,96.1,0.557
7.2,32400.5,35627.5,1.5554,1.545,142.2,96.1,0.557
7.22,32359.3,35746.4,1.3952,1.8377,142.2,96.1,0.557
7.24,32408.9,35770.9,1.588,1.8983,142.2,96.1,0.557
7.26,32221.4,35537.0,0.8592,1.3222,142.2,96.1,0.557
7.28,32135.8,35399.7,0.5264,0.9837,142.2,96.1,0.557
7.3,31999.3,35182.8,-0.0041,0.4495,142.2,96.1,0.557
7.32,32071.4,35133.3,0.2763,0.3277,142.2,96.1,0.557
7.34,32020.3,35175.1,0.0776,0.4307,142.2,96.1,0.557
7.36,32070.5,35016.3,0.2727,0.0394,142.2,96.1,0.557
7.38,31936.7,34951.8,-0.2473,-0.1194,142.2,96.1,0.557
7.4,31771.5,34793.2,-0.8894,-0.51,142.2,96.1,0.557
7.42,31867.1,34784.5,-0.5181,-0.5315,142.2,96.1,0.557
7.44,31840.2,34654.4,-0.6225,-0.8518,142.2,96.1,0.557
7.46,31782.1,34757.9,-0.8483,-0.5969,142.2,96.1,0.557
7.48,31866.6,34576.9,-0.5198,-1.0428,142.2,96.1,0.557
7.5,31860.9,34452.4,-0.5422,-1.3494,142.2,96.1,0.557
7.52,31740.8,34492.5,-1.0087,-1.2508,142.2,96.1,0.557
7.54,31694.1,34381.4,-1.1903,-1.5243,142.2,96.1,0.557
7.56,31819.6,34592.0,-0.7026,-1.0057,142.2,96.1,0.557
7.58,31926.3,34862.1,-0.2879,-0.3403,142.2,96.1,0.557
7.6,32137.1,35224.8,0.5315,0.553,142.2,96.1,0.557
7.62,32230.6,35563.9,0.895,1.3882,142.2,96.1,0.557
7.64,32369.8,35757.5,1.4359,1.8652,142.2,96.1,0.557
7.66,32337.3,35721.2,1.3098,1.7758,142.2,96.1,0.557
7.68,32263.9,35547.2,1.0243,1.3472,142.2,96.1,0.557
7.7,32164.9,35406.7,0.6396,1.001,142.2,96.1,0.557
7.72,32145.2,35181.5,0.5631,0.4464,142.2,96.1,0.557
7.74,32078.0,35173.7,0.3016,0.4271,142.2,96.1,0.557
7.76,32082.4,35125.6,0.3187,0.3086,142.2,96.1,0.557
7.78,31975.1,35002.3,-0.098,0.005,142.2,96.1,0.557
7.8,32031.9,34931.8,0.1224,-0.1685,142.2,96.1,0.557
7.82,31908.3,34867.2,-0.3577,-0.3278,142.2,96.1,0.557
7.84,31812.6,34726.0,-0.7298,-0.6756,142.2,96.1,0.557
7.86,31818.1,34593.9,-0.7084,-1.001,142.2,96.1,0.557
7.88,31805.3,34608.4,-0.7581,-0.9652,142.2,96.1,0.557
7.9,31778.8,34526.6,-0.8611,-1.1668,142.2,96.1,0.557
7.92,31737.3,34517.4,-1.0225,-1.1894,142.2,96.1,0.557
7.94,31717.6,34493.4,-1.0991,-1.2485,142.2,96.1,0.557
7.96,31767.9,34330.3,-0.9036,-1.6503,142.2,96.1,0.557
7.98,31695.8,34578.1,-1.1838,-1.0399,142.2,96.1,0.557
8.0,31898.6,34805.9,-0.3957,-0.4788,142.2,96.1,0.557
8.02,32161.5,35256.0,0.6263,0.6299,142.2,96.1,0.557
8.04,32202.6,35463.4,0.786,1.1407,142.2,96.1,0.557
8.06,32388.9,35813.4,1.5101,2.0029,142.2,96.1,0.557
8.08,32338.2,35719.7,1.3133,1.7722,142.2,96.1,0.557
8.1,32263.3,35554.1,1.0218,1.3641,142.2,96.1,0.557
8.12,32152.9,35443.0,0.5928,1.0906,142.2,96.1,0.557
8.14,32097.1,35247.7,0.3759,0.6095,142.2,96.1,0.557
8.16,32053.2,35157.7,0.2053,0.3877,142.2,96.1,0.557
8.18,32067.4,35254.7,0.2605,0.6268,142.2,96.1,0.557
8.2,31999.9,35050.7,-0.0019,0.1243,142.2,96.1,0.557
8.22,31913.9,34885.1,-0.3361,-0.2836,142.2,96.1,0.557
8.24,31945.6,34915.3,-0.2129,-0.2094,142.2,96.1,0.557
8.26,31805.9,34757.0,-0.7559,-0.5991,142.2,96.1,0.557
8.28,31884.4,34731.6,-0.4509,-0.6617,142.2,96.1,0.557
8.3,31924.7,34643.4,-0.294,-0.879,142.2,96.1,0.557
8.32,31789.8,34630.8,-0.8184,-0.91,142.2,96.1,0.557
8.34,31784.5,34558.7,-0.8392,-1.0877,142.2,96.1,0.557
8.36,31739.0,34537.8,-1.016,-1.1392,142.2,96.1,0.557
8.38,31721.5,34470.1,-1.084,-1.3059,142.2,96.1,0.557
8.4,31734.5,34552.6,-1.0335,-1.1026,142.2,96.1,0.557
8.42,31956.7,34812.7,-0.1697,-0.4619,142.2,96.1,0.557
8.44,32040.7,35092.4,0.1569,0.2268,142.2,96.1,0.557
8.46,32300.7,35515.4,1.1674,1.2688,142.2,96.1,0.557
8.48,32332.0,35731.9,1.2892,1.8021,142.2,96.1,0.557
8.5,32406.0,35707.6,1.5767,1.7423,142.2,96.1,0.557
8.52,32283.6,35675.3,1.1008,1.6627,142.2,96.1,0.557
8.54,32187.0,35454.1,0.7256,1.1178,142.2,96.1,0.557
8.56,32208.1,35250.6,0.8073,0.6165,142.2,96.1,0.557
8.58,32023.5,35242.6,0.0899,0.5969,142.2,96.1,0.557
8.6,32072.0,35081.2,0.2785,0.1992,142.2,96.1,0.557
8.62,31975.0,34934.6,-0.0985,-0.1619,142.2,96.1,0.557
8.64,31938.6,34961.7,-0.2401,-0.095,142.2,96.1,0.557
8.66,31993.3,34869.6,-0.0274,-0.322,142.2,96.1,0.557
8.68,31902.0,34775.6,-0.3823,-0.5533,142.2,96.1,0.557
8.7,31896.1,34730.2,-0.4051,-0.6653,142.2,96.1,0.557
8.72,31709.0,34690.9,-1.1323,-0.762,142.2,96.1,0.557
8.74,31941.8,34733.1,-0.2275,-0.6582,142.2,96.1,0.557
8.76,31744.2,34612.8,-0.9955,-0.9543,142.2,96.1,0.557
8.78,31756.4,34395.3,-0.9482,-1.4902,142.2,96.1,0.557
8.8,31829.3,34574.2,-0.6648,-1.0496,142.2,96.1,0.557
8.82,31877.2,34506.1,-0.4786,-1.2173,142.2,96.1,0.557
8.84,31911.1,34811.9,-0.3471,-0.464,142.2,96.1,0.557
8.86,31986.2,35155.4,-0.0552,0.3821,142.2,96.1,0.557
8.88,32254.6,35432.0,0.9883,1.0635,142.2,96.1,0.557
8.9,32373.5,35712.6,1.4505,1.7546,142.2,96.1,0.557
8.92,32395.5,35788.4,1.5357,1.9412,142.2,96.1,0.557
8.94,32312.1,35623.5,1.2118,1.535,142.2,96.1,0.557
8.96,32246.1,35487.5,0.9553,1.2001,142.2,96.1,0.557
8.98,32138.1,35355.4,0.5352,0.8747,142.2,96.1,0.557
9.0,32102.5,35126.1,0.3972,0.3098,142.2,96.1,0.557
9.02,32011.3,35118.3,0.0424,0.2907,142.2,96.1,0.557
9.04,32017.8,34977.4,0.0679,-0.0563,142.2,96.1,0.557
9.06,32040.2,34915.5,0.1547,-0.2088,142.2,96.1,0.557
9.08,31858.0,34820.0,-0.5535,-0.4442,142.2,96.1,0.557
9.1,31905.0,34695.9,-0.3706,-0.7498,142.2,96.1,0.557
9.12,31834.9,34664.7,-0.643,-0.8265,142.2,96.1,0.557
9.14,31794.1,34665.2,-0.8018,-0.8253,142.2,96.1,0.557
9.16,31829.7,34652.2,-0.6634,-0.8575,142.2,96.1,0.557
9.18,31864.3,34542.6,-0.5288,-1.1273,142.2,96.1,0.557
9.2,31694.2,34418.7,-1.19,-1.4325,142.2,96.1,0.557
9.22,31643.5,34489.2,-1.3871,-1.2589,142.2,96.1,0.557
9.24,31835.1,34587.7,-0.6425,-1.0163,142.2,96.1,0.557
9.26,31865.0,34782.9,-0.526,-0.5353,142.2,96.1,0.557
9.28,31999.3,35121.2,-0.0041,0.2978,142.2,96.1,0.557
9.3,32283.5,35400.6,1.1004,0.9861,142.2,96.1,0.557
9.32,32373.7,35757.2,1.4511,1.8645,142.2,96.1,0.557
9.34,32417.4,35727.3,1.6209,1.7907,142.2,96.1,0.557
9.36,32309.0,35593.7,1.1998,1.4618,142.2,96.1,0.557
9.38,32223.1,35394.8,0.8656,0.9718,142.2,96.1,0.557
9.4,32170.5,35338.3,0.6613,0.8326,142.2,96.1,0.557
9.42,32165.1,35245.2,0.6405,0.6034,142.2,96.1,0.557
9.44,32043.2,35092.2,0.1664,0.2265,142.2,96.1,0.557
9.46,32053.6,35120.7,0.2071,0.2965,142.2,96.1,0.557
9.48,31926.2,34957.1,-0.2882,-0.1064,142.2,96.1,0.557
9.5,31992.8,34783.6,-0.0294,-0.5337,142.2,96.1,0.557
9.52,31881.2,34721.5,-0.463,-0.6868,142.2,96.1,0.557
9.54,31808.3,34671.6,-0.7463,-0.8095,142.2,96.1,0.557
9.56,31865.6,34672.1,-0.5238,-0.8083,142.2,96.1,0.557
9.58,31792.4,34654.0,-0.8083,-0.8529,142.2,96.1,0.557
9.6,31782.1,34659.0,-0.8482,-0.8407,142.2,96.1,0.557
9.62,31751.1,34581.6,-0.969,-1.0312,142.2,96.1,0.557
9.64,31632.7,34467.7,-1.4289,-1.3119,142.2,96.1,0.557
9.66,31753.2,34573.5,-0.9608,-1.0512,142.2,96.1,0.557
9.68,31888.1,34730.0,-0.4362,-0.6658,142.2,96.1,0.557
9.7,32027.6,35171.0,0.1058,0.4205,142.2,96.1,0.557
9.72,32186.2,35411.9,0.7223,1.0139,142.2,96.1,0.557
9.74,32331.4,35640.5,1.2865,1.5769,142.2,96.1,0.557
9.76,32311.5,35713.5,1.2093,1.7567,142.2,96.1,0.557
9.78,32337.6,35698.7,1.3109,1.7204,142.2,96.1,0.557
9.8,32242.2,35387.4,0.9398,0.9535,142.2,96.1,0.557
9.82,32187.1,35239.8,0.7258,0.5901,142.2,96.1,0.557
9.84,32118.1,35073.0,0.4575,0.1792,142.2,96.1,0.557
9.86,32064.4,35040.3,0.2488,0.0987,142.2,96.1,0.557
9.88,32000.6,35107.1,0.0008,0.2631,142.2,96.1,0.557
9.9,31931.7,34917.9,-0.2669,-0.2029,142.2,96.1,0.557
9.92,31951.1,34858.3,-0.1917,-0.3496,142.2,96.1,0.557
9.94,31924.2,34773.5,-0.296,-0.5586,142.2,96.1,0.557
9.96,31852.7,34646.0,-0.5741,-0.8727,142.2,96.1,0.557
9.98,31795.6,34779.0,-0.7959,-0.545,142.2,96.1,0.557
10.0,31799.7,34604.4,-0.7801,-0.9751,142.2,96.1,0.557
10.02,31814.6,34621.9,-0.722,-0.9319,142.2,96.1,0.557
10.04,31752.8,34574.1,-0.9623,-1.0497,142.2,96.1,0.557
10.06,31760.1,34454.6,-0.9339,-1.3441,142.2,96.1,0.557
10.08,31654.1,34457.4,-1.3458,-1.3371,142.2,96.1,0.557
10.1,31962.2,34620.5,-0.1483,-0.9355,142.2,96.1,0.557
10.12,31981.8,35054.7,-0.072,0.1341,142.2,96.1,0.557
10.14,32182.4,35431.4,0.7074,1.062,142.2,96.1,0.557
10.16,32317.8,35657.1,1.234,1.6178,142.2,96.1,0.557
10.18,32440.0,35804.6,1.7088,1.9812,142.2,96.1,0.557
10.2,32296.1,35708.2,1.1494,1.7439,142.2,96.1,0.557
10.22,32276.6,35386.7,1.0736,0.9518,142.2,96.1,0.557
10.24,32100.7,35226.8,0.39,0.5581,142.2,96.1,0.557
10.26,32098.2,35160.9,0.3803,0.3956,142.2,96.1,0.557
10.28,32050.7,35168.8,0.1956,0.4151,142.2,96.1,0.557
10.3,32001.5,34984.3,0.0045,-0.0392,142.2,96.1,0.557
10.32,31929.0,34938.6,-0.2772,-0.1519,142.2,96.1,0.557
10.34,31947.8,34831.6,-0.2044,-0.4154,142.2,96.1,0.557
10.36,31837.7,34743.5,-0.6324,-0.6324,142.2,96.1,0.557
10.38,31828.0,34736.2,-0.6699,-0.6504,142.2,96.1,0.557
10.4,31807.2,34608.3,-0.7508,-0.9655,142.2,96.1,0.557
10.42,31781.8,34687.3,-0.8495,-0.771,142.2,96.1,0.557
10.44,31817.9,34713.2,-0.7092,-0.7072,142.2,96.1,0.557
10.46,31729.5,34474.2,-1.0528,-1.2958,142.2,96.1,0.557
10.48,31769.7,34536.7,-0.8966,-1.1419,142.2,96.1,0.557
10.5,31763.1,34526.7,-0.9224,-1.1665,142.2,96.1,0.557
10.52,31871.1,34707.0,-0.5023,-0.7224,142.2,96.1,0.557
10.54,31987.6,34968.5,-0.0494,-0.0783,142.2,96.1,0.557
10.56,32232.6,35353.7,0.9025,0.8706,142.2,96.1,0.557
10.58,32389.7,35732.9,1.5134,1.8046,142.2,96.1,0.557
10.6,32399.6,35781.0,1.5518,1.923,142.2,96.1,0.557
10.62,32364.5,35722.0,1.4153,1.7778,142.2,96.1,0.557
10.64,32250.3,35504.6,0.9715,1.2422,142.2,96.1,0.557
10.66,32141.5,35271.4,0.5487,0.6679,142.2,96.1,0.557
10.68,32036.5,35114.2,0.1405,0.2805,142.2,96.1,0.557
10.7,32106.6,35115.5,0.413,0.2839,142.2,96.1,0.557
10.72,32038.4,35051.4,0.1479,0.1258,142.2,96.1,0.557
10.74,32083.0,34926.6,0.3214,-0.1816,142.2,96.1,0.557
10.76,31996.0,34846.1,-0.017,-0.3799,142.2,96.1,0.557
10.78,31813.0,34722.1,-0.7281,-0.6852,142.2,96.1,0.557
10.8,31938.6,34705.3,-0.24,-0.7267,142.2,96.1,0.557
10.82,31801.3,34740.0,-0.7738,-0.6411,142.2,96.1,0.557
10.84,31780.3,34701.3,-0.8555,-0.7364,142.2,96.1,0.557
10.86,31777.1,34684.5,-0.8679,-0.7779,142.2,96.1,0.557
10.88,31810.0,34466.5,-0.74,-1.3148,142.2,96.1,0.557
10.9,31741.0,34441.9,-1.008,-1.3753,142.2,96.1,0.557
10.92,31748.3,34435.6,-0.9798,-1.3908,142.2,96.1,0.557
10.94,31914.0,34592.0,-0.3356,-1.0056,142.2,96.1,0.557
10.96,31983.0,34864.3,-0.0676,-0.335,142.2,96.1,0.557
10.98,32292.9,35298.9,1.137,0.7357,142.2,96.1,0.557
11.0,32358.7,35605.8,1.3928,1.4916,142.2,96.1,0.557
11.02,32354.8,35714.0,1.3778,1.758,142.2,96.1,0.557
11.04,32354.0,35819.7,1.3745,2.0185,142.2,96.1,0.557
11.06,32326.2,35527.5,1.2665,1.2987,142.2,96.1,0.557
11.08,32133.5,35288.6,0.5176,0.7102,142.2,96.1,0.557
11.1,32055.9,35216.6,0.2159,0.5328,142.2,96.1,0.557
11.12,32068.3,35122.5,0.2642,0.301,142.2,96.1,0.557
11.14,32046.4,35072.3,0.1788,0.1775,142.2,96.1,0.557
11.16,31974.4,35012.3,-0.1009,0.0297,142.2,96.1,0.557
11.18,31966.5,34860.9,-0.1316,-0.3434,142.2,96.1,0.557
11.2,31922.9,34831.7,-0.3009,-0.4153,142.2,96.1,0.557
11.22,31838.4,34796.4,-0.6295,-0.5022,142.2,96.1,0.557
11.24,31866.6,34602.0,-0.5198,-0.9809,142.2,96.1,0.557
11.26,31794.2,34698.6,-0.8015,-0.7432,142.2,96.1,0.557
11.28,31785.8,34566.0,-0.834,-1.0697,142.2,96.1,0.557
11.3,31763.0,34545.4,-0.9225,-1.1204,142.2,96.1,0.557
11.32,31672.0,34486.2,-1.2765,-1.2662,142.2,96.1,0.557
11.34,31707.2,34492.8,-1.1396,-1.2499,142.2,96.1,0.557
11.36,31923.3,34635.7,-0.2996,-0.8979,142.2,96.1,0.557
11.38,31962.1,34883.3,-0.1488,-0.2882,142.2,96.1,0.557
11.4,32087.8,35186.9,0.3398,0.4597,142.2,96.1,0.557
11.42,32207.6,35657.4,0.8057,1.6186,142.2,96.1,0.557
11.44,32411.0,35750.8,1.5961,1.8486,142.2,96.1,0.557
11.46,32337.7,35696.8,1.3111,1.7157,142.2,96.1,0.557
11.48,32270.2,35571.5,1.049,1.4071,142.2,96.1,0.557
11.5,32202.2,35223.5,0.7847,0.5498,142.2,96.1,0.557
11.52,32105.6,35252.7,0.4089,0.6219,142.2,96.1,0.557
11.54,32141.5,35101.0,0.5487,0.2482,142.2,96.1,0.557
11.56,32059.5,35125.5,0.2299,0.3085,142.2,96.1,0.557
11.58,32082.9,34965.5,0.321,-0.0858,142.2,96.1,0.557
11.6,32020.0,34832.8,0.0762,-0.4125,142.2,96.1,0.557
11.62,31889.4,34743.5,-0.4312,-0.6326,142.2,96.1,0.557
11.64,31920.6,34698.4,-0.31,-0.7435,142.2,96.1,0.557
11.66,31787.3,34776.3,-0.8282,-0.5517,142.2,96.1,0.557
11.68,31850.3,34723.1,-0.5831,-0.6827,142.2,96.1,0.557
11.7,31802.6,34534.2,-0.7686,-1.1481,142.2,96.1,0.557
11.72,31746.5,34594.2,-0.9867,-1.0002,142.2,96.1,0.557
11.74,31724.0,34425.8,-1.0741,-1.415,142.2,96.1,0.557
11.76,31694.9,34367.8,-1.1874,-1.558,142.2,96.1,0.557
11.78,31770.9,34565.7,-0.892,-1.0704,142.2,96.1,0.557
11.8,31934.8,34824.1,-0.2547,-0.4341,142.2,96.1,0.557
11.82,32185.6,35225.0,0.72,0.5536,142.2,96.1,0.557
11.84,32340.9,35579.5,1.3238,1.4266,142.2,96.1,0.557
11.86,32413.2,35745.6,1.6047,1.8359,142.2,96.1,0.557
11.88,32403.3,35724.5,1.5663,1.7839,142.2,96.1,0.557
11.9,32178.5,35588.9,0.6923,1.4498,142.2,96.1,0.557
11.92,32111.6,35403.7,0.4322,0.9937,142.2,96.1,0.557
11.94,32143.3,35256.2,0.5554,0.6304,142.2,96.1,0.557
11.96,32090.8,35077.7,0.3516,0.1907,142.2,96.1,0.557
11.98,32081.5,35082.1,0.3154,0.2014,142.2,96.1,0.557
12.0,31957.0,34940.6,-0.1687,-0.1469,142.2,96.1,0.557
12.02,31929.5,34828.1,-0.2753,-0.4241,142.2,96.1,0.557
12.04,31816.4,34783.7,-0.715,-0.5335,142.2,96.1,0.557
12.06,31843.8,34707.4,-0.6086,-0.7213,142.2,96.1,0.557
12.08,31896.4,34706.6,-0.4043,-0.7234,142.2,96.1,0.557
12.1,31864.0,34626.9,-0.53,-0.9197,142.2,96.1,0.557
12.12,31713.0,34574.2,-1.117,-1.0495,142.2,96.1,0.557
12.14,31815.8,34593.1,-0.7174,-1.0029,142.2,96.1,0.557
12.16,31766.2,34516.3,-0.9103,-1.1921,142.2,96.1,0.557
12.18,31784.3,34444.4,-0.84,-1.3691,142.2,96.1,0.557
12.2,31772.2,34557.4,-0.8868,-1.091,142.2,96.1,0.557
12.22,31893.4,34810.7,-0.4158,-0.467,142.2,96.1,0.557
12.24,32182.6,35300.6,0.7082,0.7396,142.2,96.1,0.557
12.26,32196.6,35536.0,0.7628,1.3196,142.2,96.1,0.557
12.28,32362.6,35698.1,1.4078,1.7189,142.2,96.1,0.557
12.3,32338.9,35769.0,1.3159,1.8934,142.2,96.1,0.557
12.32,32314.5,35511.3,1.221,1.2586,142.2,96.1,0.557
12.34,32203.8,35351.2,0.7908,0.8645,142.2,96.1,0.557
12.36,32100.1,35210.9,0.3876,0.5189,142.2,96.1,0.557
12.38,32072.7,35195.6,0.2811,0.4811,142.2,96.1,0.557
12.4,32036.7,35084.8,0.1413,0.2081,142.2,96.1,0.557
12.42,31933.0,35016.0,-0.2617,0.0387,142.2,96.1,0.557
12.44,32004.4,34968.9,0.0159,-0.0773,142.2,96.1,0.557
12.46,31940.0,34794.9,-0.2344,-0.5058,142.2,96.1,0.557
12.48,31849.0,34682.5,-0.5883,-0.7828,142.2,96.1,0.557
12.5,31882.6,34683.2,-0.4575,-0.7809,142.2,96.1,0.557
12.52,31862.5,34631.7,-0.536,-0.9078,142.2,96.1,0.557
12.54,31865.5,34706.5,-0.5243,-0.7236,142.2,96.1,0.557
12.56,31855.0,34520.1,-0.5651,-1.1827,142.2,96.1,0.557
12.58,31761.7,34448.7,-0.9276,-1.3587,142.2,96.1,0.557
12.6,31683.6,34517.2,-1.231,-1.1899,142.2,96.1,0.557
12.62,31710.0,34556.2,-1.1284,-1.0937,142.2,96.1,0.557
12.64,31893.5,34884.4,-0.4154,-0.2854,142.2,96.1,0.557
12.66,32128.0,35201.9,0.4962,0.4965,142.2,96.1,0.557
12.68,32251.0,35515.2,0.9743,1.2683,142.2,96.1,0.557
12.7,32312.7,35674.2,1.2139,1.66,142.2,96.1,0.557
12.72,32337.0,35719.8,1.3085,1.7724,142.2,96.1,0.557
12.74,32384.9,35530.1,1.4947,1.3051,142.2,96.1,0.557
12.76,32246.3,35328.6,0.9559,0.8087,142.2,96.1,0.557
12.78,32139.5,35340.8,0.541,0.8388,142.2,96.1,0.557
12.8,32151.1,35131.0,0.5858,0.3221,142.2,96.1,0.557
12.82,32033.8,35037.7,0.1299,0.0923,142.2,96.1,0.557
12.84,32021.9,34977.5,0.0837,-0.0562,142.2,96.1,0.557
12.86,32017.6,34988.0,0.0671,-0.0303,142.2,96.1,0.557
12.88,31934.5,34827.0,-0.2562,-0.4267,142.2,96.1,0.557
12.9,31839.7,34805.4,-0.6243,-0.48,142.2,96.1,0.557
12.92,31818.8,34704.7,-0.7056,-0.7281,142.2,96.1,0.557
12.94,31886.5,34681.6,-0.4425,-0.785,142.2,96.1,0.557
12.96,31860.8,34608.8,-0.5426,-0.9642,142.2,96.1,0.557
12.98,31834.7,34573.6,-0.6439,-1.051,142.2,96.1,0.557
13.0,31704.6,34434.8,-1.1495,-1.3929,142.2,96.1,0.557
13.02,31732.8,34417.9,-1.0399,-1.4344,142.2,96.1,0.557
13.04,31752.2,34540.5,-0.9647,-1.1324,142.2,96.1,0.557
13.06,31909.1,34782.0,-0.3546,-0.5377,142.2,96.1,0.557
13.08,31999.1,35148.6,-0.0049,0.3653,142.2,96.1,0.557
13.1,32158.4,35411.5,0.6145,1.0128,142.2,96.1,0.557
13.12,32333.9,35715.2,1.2966,1.7609,142.2,96.1,0.557
13.14,32340.8,35723.8,1.3231,1.7821,142.2,96.1,0.557
13.16,32266.9,35649.6,1.036,1.5994,142.2,96.1,0.557
13.18,32230.7,35409.1,0.8953,1.0069,142.2,96.1,0.557
13.2,32081.3,35278.8,0.3148,0.6861,142.2,96.1,0.557
13.22,32022.7,35171.5,0.0869,0.4217,142.2,96.1,0.557
13.24,32009.6,35097.3,0.0359,0.2389,142.2,96.1,0.557
13.26,31967.6,35007.8,-0.1274,0.0186,142.2,96.1,0.557
13.28,32042.6,34939.4,0.1641,-0.1498,142.2,96.1,0.557
13.3,31905.3,34838.5,-0.3696,-0.3984,142.2,96.1,0.557
13.32,31864.4,34798.5,-0.5285,-0.497,142.2,96.1,0.557
13.34,31827.0,34687.0,-0.6739,-0.7717,142.2,96.1,0.557
13.36,31840.2,34708.0,-0.6224,-0.7199,142.2,96.1,0.557
13.38,31908.7,34624.1,-0.3562,-0.9265,142.2,96.1,0.557
13.4,31773.2,34522.8,-0.8831,-1.1761,142.2,96.1,0.557
13.42,31713.2,34538.9,-1.1162,-1.1364,142.2,96.1,0.557
13.44,31747.4,34474.0,-0.9833,-1.2964,142.2,96.1,0.557
13.46,31768.6,34660.9,-0.901,-0.8359,142.2,96.1,0.557
13.48,31853.5,34669.1,-0.5708,-0.8157,142.2,96.1,0.557
13.5,32171.6,35067.2,0.6655,0.1649,142.2,96.1,0.557
13.52,32254.2,35444.1,0.9868,1.0933,142.2,96.1,0.557
13.54,32363.7,35696.0,1.4123,1.7136,142.2,96.1,0.557
13.56,32353.4,35880.9,1.3724,2.1692,142.2,96.1,0.557
13.58,32242.7,35579.4,0.9419,1.4264,142.2,96.1,0.557
13.6,32288.2,35378.1,1.1189,0.9307,142.2,96.1,0.557
13.62,32139.2,35316.2,0.5397,0.7781,142.2,96.1,0.557
13.64,32133.6,35248.1,0.5179,0.6104,142.2,96.1,0.557
13.66,32055.2,35103.4,0.2131,0.2541,142.2,96.1,0.557
13.68,32054.9,35010.4,0.2122,0.0251,142.2,96.1,0.557
13.7,31989.7,34967.1,-0.0414,-0.0818,142.2,96.1,0.557
13.72,31897.6,34803.7,-0.3994,-0.4841,142.2,96.1,0.557
13.74,31875.5,34722.3,-0.4854,-0.6847,142.2,96.1,0.557
13.76,31920.5,34732.6,-0.3105,-0.6592,142.2,96.1,0.557
13.78,31833.0,34693.9,-0.6504,-0.7547,142.2,96.1,0.557
13.8,31818.0,34594.8,-0.7088,-0.9987,142.2,96.1,0.557
13.82,31704.2,34550.6,-1.1512,-1.1075,142.2,96.1,0.557
13.84,31809.4,34451.8,-0.7424,-1.351,142.2,96.1,0.557
13.86,31732.8,34496.7,-1.0401,-1.2404,142.2,96.1,0.557
13.88,31715.7,34481.0,-1.1064,-1.279,142.2,96.1,0.557
13.9,31847.9,34739.9,-0.5926,-0.6413,142.2,96.1,0.557
13.92,32003.8,35019.7,0.0134,0.0479,142.2,96.1,0.557
13.94,32204.9,35571.7,0.7951,1.4076,142.2,96.1,0.557
13.96,32414.9,35667.0,1.6113,1.6423,142.2,96.1,0.557
13.98,32302.1,35748.5,1.1728,1.8429,142.2,96.1,0.557
14.0,32337.7,35659.8,1.3112,1.6246,142.2,96.1,0.557
14.02,32158.1,35490.9,0.6132,1.2086,142.2,96.1,0.557
14.04,32247.2,35313.2,0.9596,0.7708,142.2,96.1,0.557
14.06,31992.3,35145.4,-0.0313,0.3574,142.2,96.1,0.557
14.08,32041.5,35090.3,0.1597,0.2217,142.2,96.1,0.557
14.1,32014.7,35073.4,0.0557,0.1801,142.2,96.1,0.557
14.12,31918.9,35003.0,-0.3166,0.0067,142.2,96.1,0.557
14.14,31891.7,34963.4,-0.4222,-0.0907,142.2,96.1,0.557
14.16,31852.4,34748.9,-0.5752,-0.6192,142.2,96.1,0.557
14.18,31847.7,34709.6,-0.5934,-0.7159,142.2,96.1,0.557
14.2,31834.7,34780.2,-0.6438,-0.5421,142.2,96.1,0.557
14.22,31785.5,34695.6,-0.8352,-0.7504,142.2,96.1,0.557
14.24,31825.5,34566.5,-0.6798,-1.0686,142.2,96.1,0.557
14.26,31718.9,34514.1,-1.0939,-1.1976,142.2,96.1,0.557
14.28,31756.3,34471.9,-0.9485,-1.3014,142.2,96.1,0.557
14.3,31755.5,34510.8,-0.9518,-1.2057,142.2,96.1,0.557
14.32,31814.0,34764.8,-0.7243,-0.5801,142.2,96.1,0.557
14.34,32108.8,35075.3,0.4213,0.1848,142.2,96.1,0.557
14.36,32285.1,35400.2,1.1069,0.9851,142.2,96.1,0.557
14.38,32370.0,35649.6,1.4366,1.5995,142.2,96.1,0.557
14.4,32370.4,35712.4,1.4383,1.7542,142.2,96.1,0.557
14.42,32255.8,35569.5,0.9928,1.402,142.2,96.1,0.557
14.44,32187.7,35439.9,0.7282,1.0829,142.2,96.1,0.557
14.46,32217.8,35136.4,0.845,0.3353,142.2,96.1,0.557
14.48,32062.0,35076.8,0.2397,0.1885,142.2,96.1,0.557
14.5,32040.4,35084.7,0.1557,0.2078,142.2,96.1,0.557
14.52,31957.9,34961.2,-0.165,-0.0962,142.2,96.1,0.557
14.54,31928.3,34993.7,-0.2802,-0.0162,142.2,96.1,0.557
14.56,31868.7,34770.4,-0.5119,-0.5662,142.2,96.1,0.557
14.58,31872.3,34758.0,-0.4976,-0.5967,142.2,96.1,0.557
14.6,31820.3,34615.6,-0.6998,-0.9474,142.2,96.1,0.557
14.62,31786.1,34697.3,-0.8328,-0.7462,142.2,96.1,0.557
14.64,31795.6,34632.3,-0.796,-0.9064,142.2,96.1,0.557
14.66,31929.1,34664.4,-0.2771,-0.8274,142.2,96.1,0.557
14.68,31683.2,34626.8,-1.2327,-0.9199,142.2,96.1,0.557
14.7,31772.3,34402.7,-0.8866,-1.472,142.2,96.1,0.557
14.72,31677.8,34430.1,-1.2536,-1.4045,142.2,96.1,0.557
14.74,31860.1,34640.6,-0.5451,-0.8859,142.2,96.1,0.557
14.76,32026.4,35101.6,0.1011,0.2496,142.2,96.1,0.557
14.78,32268.9,35322.3,1.0437,0.7933,142.2,96.1,0.557
14.8,32385.5,35617.7,1.4971,1.5209,142.2,96.1,0.557
14.82,32326.6,35732.3,1.2682,1.803,142.2,96.1,0.557
14.84,32365.3,35653.9,1.4184,1.6099,142.2,96.1,0.557
14.86,32229.1,35473.1,0.8889,1.1647,142.2,96.1,0.557
14.88,32228.3,35330.9,0.886,0.8144,142.2,96.1,0.557
14.9,32089.8,35116.7,0.3475,0.2868,142.2,96.1,0.557
14.92,31979.1,35049.2,-0.0827,0.1205,142.2,96.1,0.557
14.94,32099.0,35129.1,0.3835,0.3174,142.2,96.1,0.557
14.96,31983.7,34995.2,-0.0649,-0.0125,142.2,96.1,0.557
14.98,31946.2,34889.5,-0.2107,-0.2727,142.2,96.1,0.557
15.0,31858.0,34750.7,-0.5532,-0.6147,142.2,96.1,0.557
15.02,31883.5,34727.4,-0.4541,-0.672,142.2,96.1,0.557
15.04,31803.6,34681.0,-0.7649,-0.7865,142.2,96.1,0.557
15.06,31820.0,34586.6,-0.7012,-1.0189,142.2,96.1,0.557
15.08,31803.1,34570.4,-0.7666,-1.0588,142.2,96.1,0.557
15.1,31835.5,34575.4,-0.6408,-1.0464,142.2,96.1,0.557
15.12,31695.9,34393.0,-1.1834,-1.4957,142.2,96.1,0.557
15.14,31747.4,34394.6,-0.9831,-1.4918,142.2,96.1,0.557
15.16,31898.5,34613.8,-0.3961,-0.9519,142.2,96.1,0.557
15.18,32025.5,34923.6,0.0975,-0.1888,142.2,96.1,0.557
15.2,32185.2,35246.6,0.7184,0.6068,142.2,96.1,0.557
15.22,32320.2,35709.6,1.2431,1.7473,142.2,96.1,0.557
15.24,32378.5,35741.1,1.4699,1.8249,142.2,96.1,0.557
15.26,32365.2,35785.3,1.4181,1.9336,142.2,96.1,0.557
15.28,32291.0,35453.2,1.1298,1.1156,142.2,96.1,0.557
15.3,32202.8,35348.0,0.7869,0.8565,142.2,96.1,0.557
15.32,32010.3,35208.5,0.0388,0.513,142.2,96.1,0.557
15.34,31967.2,35048.2,-0.1289,0.1182,142.2,96.1,0.557
15.36,31941.9,35030.1,-0.2273,0.0734,142.2,96.1,0.557
15.38,31919.3,35009.1,-0.3149,0.0217,142.2,96.1,0.557
15.4,31988.3,34831.1,-0.0468,-0.4168,142.2,96.1,0.557
15.42,31844.5,34848.5,-0.6057,-0.3739,142.2,96.1,0.557
15.44,31842.9,34741.7,-0.6121,-0.637,142.2,96.1,0.557
15.46,31843.0,34684.1,-0.6116,-0.7788,142.2,96.1,0.557
15.48,31920.7,34508.7,-0.3096,-1.2108,142.2,96.1,0.557
15.5,31824.6,34693.0,-0.6832,-0.7569,142.2,96.1,0.557
15.52,31787.2,34518.4,-0.8284,-1.1869,142.2,96.1,0.557
15.54,31741.1,34502.4,-1.0079,-1.2263,142.2,96.1,0.557
15.56,31717.5,34474.7,-1.0994,-1.2946,142.2,96.1,0.557
15.58,31900.2,34760.3,-0.3892,-0.5912,142.2,96.1,0.557
15.6,32008.0,34967.0,0.0297,-0.0819,142.2,96.1,0.557
15.62,32158.8,35256.3,0.6159,0.6306,142.2,96.1,0.557
15.64,32271.0,35607.6,1.0518,1.4959,142.2,96.1,0.557
15.66,32358.3,35702.4,1.3911,1.7295,142.2,96.1,0.557
15.68,32291.1,35750.7,1.1299,1.8485,142.2,96.1,0.557
15.7,32206.4,35470.6,0.8007,1.1585,142.2,96.1,0.557
15.72,32132.1,35274.7,0.5122,0.6761,142.2,96.1,0.557
15.74,32122.0,35274.2,0.4728,0.6747,142.2,96.1,0.557
15.76,32089.6,35106.8,0.3467,0.2624,142.2,96.1,0.557
15.78,31956.1,35048.3,-0.172,0.1183,142.2,96.1,0.557
15.8,32075.5,35018.5,0.2919,0.0449,142.2,96.1,0.557
15.82,31960.6,34894.9,-0.1546,-0.2595,142.2,96.1,0.557
15.84,31878.1,34818.3,-0.475,-0.4482,142.2,96.1,0.557
15.86,31791.9,34673.3,-0.8104,-0.8055,142.2,96.1,0.557
15.88,31772.9,34593.0,-0.8841,-1.0032,142.2,96.1,0.557
15.9,31804.5,34697.5,-0.7613,-0.7459,142.2,96.1,0.557
15.92,31877.8,34629.2,-0.4764,-0.9139,142.2,96.1,0.557
15.94,31693.4,34581.6,-1.1931,-1.0313,142.2,96.1,0.557
15.96,31698.4,34583.7,-1.1738,-1.0262,142.2,96.1,0.557
15.98,31747.3,34479.8,-0.9838,-1.282,142.2,96.1,0.557
16.0,31742.3,34580.4,-1.003,-1.0342,142.2,96.1,0.557
16.02,31902.5,34832.7,-0.3804,-0.4126,142.2,96.1,0.557
16.04,32242.0,35275.3,0.9394,0.6773,142.2,96.1,0.557
16.06,32248.5,35555.2,0.9645,1.3668,142.2,96.1,0.557
16.08,32352.6,35777.1,1.3689,1.9134,142.2,96.1,0.557
16.1,32331.2,35776.2,1.2859,1.9113,142.2,96.1,0.557
16.12,32167.9,35504.1,0.651,1.2411,142.2,96.1,0.557
16.14,32131.2,35366.1,0.5084,0.9011,142.2,96.1,0.557
16.16,32152.7,35143.1,0.592,0.3518,142.2,96.1,0.557
16.18,32024.9,35075.4,0.0952,0.1851,142.2,96.1,0.557
16.2,32066.8,35080.6,0.2581,0.198,142.2,96.1,0.557
16.22,32073.9,34999.5,0.2859,-0.0018,142.2,96.1,0.557
16.24,31969.6,34858.6,-0.1198,-0.3489,142.2,96.1,0.557
16.26,31914.1,34820.4,-0.3353,-0.4431,142.2,96.1,0.557
16.28,31785.2,34792.2,-0.8361,-0.5126,142.2,96.1,0.557
16.3,31788.5,34721.5,-0.8237,-0.6866,142.2,96.1,0.557
16.32,31860.1,34656.1,-0.5453,-0.8477,142.2,96.1,0.557
16.34,31725.2,34625.5,-1.0696,-0.9232,142.2,96.1,0.557
16.36,31803.9,34467.0,-0.7635,-1.3135,142.2,96.1,0.557
16.38,31632.8,34508.5,-1.4287,-1.2112,142.2,96.1,0.557
16.4,31732.5,34467.6,-1.0413,-1.312,142.2,96.1,0.557
16.42,31766.1,34630.6,-0.9104,-0.9106,142.2,96.1,0.557
16.44,31960.2,34896.8,-0.1559,-0.2549,142.2,96.1,0.557
16.46,32058.6,35236.3,0.2262,0.5814,142.2,96.1,0.557
16.48,32255.1,35638.7,0.9903,1.5725,142.2,96.1,0.557
16.5,32421.7,35838.1,1.6378,2.0638,142.2,96.1,0.557
16.52,32337.0,35729.1,1.3084,1.7952,142.2,96.1,0.557
16.54,32259.9,35622.9,1.0087,1.5336,142.2,96.1,0.557
16.56,32220.5,35389.6,0.8558,0.959,142.2,96.1,0.557
16.58,32110.4,35147.7,0.4276,0.3631,142.2,96.1,0.557
16.6,32105.3,35154.7,0.408,0.3804,142.2,96.1,0.557
16.62,32012.8,35023.6,0.0483,0.0575,142.2,96.1,0.557
16.64,31980.5,35073.1,-0.0771,0.1793,142.2,96.1,0.557
16.66,31975.7,34903.5,-0.096,-0.2385,142.2,96.1,0.557
16.68,31865.6,34770.5,-0.5237,-0.5661,142.2,96.1,0.557
16.7,31941.4,34751.2,-0.229,-0.6134,142.2,96.1,0.557
16.72,31851.6,34596.0,-0.5782,-0.9957,142.2,96.1,0.557
16.74,31816.2,34646.9,-0.7158,-0.8705,142.2,96.1,0.557
16.76,31850.2,34628.5,-0.5837,-0.9158,142.2,96.1,0.557
16.78,31825.5,34559.4,-0.6795,-1.0859,142.2,96.1,0.557
16.8,31660.1,34509.7,-1.3224,-1.2084,142.2,96.1,0.557
16.82,31753.4,34429.6,-0.9599,-1.4056,142.2,96.1,0.557
16.84,31676.2,34513.1,-1.2599,-1.2001,142.2,96.1,0.557
16.86,31896.3,34788.7,-0.4043,-0.5212,142.2,96.1,0.557
16.88,32081.9,35246.3,0.3169,0.6059,142.2,96.1,0.557
16.9,32279.8,35578.9,1.0863,1.4252,142.2,96.1,0.557
16.92,32298.3,35656.3,1.158,1.6159,142.2,96.1,0.557
16.94,32358.8,35710.7,1.3934,1.7499,142.2,96.1,0.557
16.96,32293.1,35586.8,1.138,1.4447,142.2,96.1,0.557
16.98,32168.8,35337.0,0.6547,0.8294,142.2,96.1,0.557
17.0,32126.9,35132.1,0.4918,0.3248,142.2,96.1,0.557
17.02,32032.7,35047.1,0.1255,0.1153,142.2,96.1,0.557
17.04,32058.6,35109.7,0.2262,0.2695,142.2,96.1,0.557
17.06,32136.0,35113.4,0.5271,0.2787,142.2,96.1,0.557
17.08,31907.1,34863.2,-0.3626,-0.3376,142.2,96.1,0.557
17.1,31946.0,34846.9,-0.2114,-0.3778,142.2,96.1,0.557
17.12,31812.9,34796.6,-0.7288,-0.5017,142.2,96.1,0.557
17.14,31895.6,34706.5,-0.4071,-0.7236,142.2,96.1,0.557
17.16,31811.4,34675.0,-0.7346,-0.8011,142.2,96.1,0.557
17.18,31740.1,34640.6,-1.0115,-0.8859,142.2,96.1,0.557
17.2,31795.9,34533.8,-0.7947,-1.1491,142.2,96.1,0.557
17.22,31802.4,34459.2,-0.7694,-1.3328,142.2,96.1,0.557
17.24,31732.8,34541.7,-1.04,-1.1294,142.2,96.1,0.557
17.26,31834.5,34547.7,-0.6446,-1.1148,142.2,96.1,0.557
17.28,31959.0,34842.6,-0.1607,-0.3884,142.2,96.1,0.557
17.3,32015.9,35214.5,0.0603,0.5277,142.2,96.1,0.557
17.32,32319.3,35551.0,1.2398,1.3566,142.2,96.1,0.557
17.34,32343.2,35710.2,1.3326,1.7487,142.2,96.1,0.557
17.36,32380.3,35673.9,1.4766,1.6593,142.2,96.1,0.557
17.38,32291.9,35606.4,1.133,1.4931,142.2,96.1,0.557
17.4,32173.0,35468.8,0.6711,1.1539,142.2,96.1,0.557
17.42,32016.1,35253.5,0.0612,0.6238,142.2,96.1,0.557
17.44,32060.1,35137.1,0.2321,0.337,142.2,96.1,0.557
17.46,32121.3,35088.5,0.47,0.2174,142.2,96.1,0.557
17.48,32027.2,35038.1,0.1042,0.0932,142.2,96.1,0.557
17.5,31974.2,34897.6,-0.1018,-0.253,142.2,96.1,0.557
17.52,31955.7,34839.2,-0.1736,-0.3967,142.2,96.1,0.557
17.54,31862.2,34775.8,-0.5369,-0.5529,142.2,96.1,0.557
17.56,31819.0,34712.7,-0.7049,-0.7085,142.2,96.1,0.557
17.58,31804.4,34561.0,-0.7619,-1.0821,142.2,96.1,0.557
17.6,31791.8,34606.3,-0.8108,-0.9703,142.2,96.1,0.557
17.62,31780.4,34617.5,-0.855,-0.9427,142.2,96.1,0.557
17.64,31727.1,34549.5,-1.062,-1.1104,142.2,96.1,0.557
17.66,31695.9,34505.4,-1.1834,-1.2189,142.2,96.1,0.557
17.68,31776.6,34544.8,-0.8696,-1.122,142.2,96.1,0.557
17.7,31877.6,34751.2,-0.4773,-0.6134,142.2,96.1,0.557
17.72,32072.0,35088.6,0.2785,0.2176,142.2,96.1,0.557
17.74,32207.5,35455.2,0.8049,1.1204,142.2,96.1,0.557
17.76,32377.8,35721.3,1.467,1.7761,142.2,96.1,0.557
17.78,32360.9,35736.8,1.4015,1.8143,142.2,96.1,0.557
17.8,32272.2,35692.0,1.0568,1.7038,142.2,96.1,0.557
17.82,32051.0,35571.0,0.1967,1.4058,142.2,96.1,0.557
17.84,32143.7,35286.8,0.557,0.7057,142.2,96.1,0.557
17.86,32056.8,35104.7,0.2195,0.2573,142.2,96.1,0.557
17.88,31957.0,35093.4,-0.1685,0.2294,142.2,96.1,0.557
17.9,32049.2,35108.4,0.1898,0.2664,142.2,96.1,0.557
17.92,31889.5,34894.0,-0.4311,-0.2618,142.2,96.1,0.557
17.94,31832.9,34795.8,-0.6508,-0.5037,142.2,96.1,0.557
17.96,31896.3,34789.3,-0.4046,-0.5196,142.2,96.1,0.557
17.98,31920.1,34734.0,-0.3119,-0.6559,142.2,96.1,0.557
18.0,31894.6,34655.7,-0.4112,-0.8486,142.2,96.1,0.557
18.02,31807.4,34705.9,-0.7499,-0.725,142.2,96.1,0.557
18.04,31834.2,34556.9,-0.6459,-1.0922,142.2,96.1,0.557
18.06,31730.5,34481.9,-1.049,-1.2769,142.2,96.1,0.557
18.08,31768.0,34443.4,-0.9032,-1.3717,142.2,96.1,0.557
18.1,31763.0,34529.3,-0.9226,-1.1601,142.2,96.1,0.557
18.12,31904.6,34823.5,-0.3721,-0.4355,142.2,96.1,0.557
18.14,31991.6,35083.6,-0.034,0.2052,142.2,96.1,0.557
18.16,32133.5,35394.8,0.5177,0.9718,142.2,96.1,0.557
18.18,32286.7,35617.5,1.1129,1.5203,142.2,96.1,0.557
18.2,32405.3,35801.9,1.574,1.9745,142.2,96.1,0.557
18.22,32336.2,35673.1,1.3055,1.6572,142.2,96.1,0.557
18.24,32291.0,35407.3,1.1298,1.0027,142.2,96.1,0.557
18.26,32133.8,35283.1,0.5186,0.6966,142.2,96.1,0.557
18.28,32145.9,35152.8,0.5658,0.3758,142.2,96.1,0.557
18.3,32008.1,35103.1,0.03,0.2533,142.2,96.1,0.557
18.32,31950.0,35114.0,-0.1959,0.2802,142.2,96.1,0.557
18.34,31973.7,34965.1,-0.1037,-0.0866,142.2,96.1,0.557
18.36,31933.9,34853.9,-0.2585,-0.3605,142.2,96.1,0.557
18.38,31912.4,34828.6,-0.3421,-0.4228,142.2,96.1,0.557
18.4,31759.3,34733.5,-0.937,-0.6571,142.2,96.1,0.557
18.42,31796.9,34639.3,-0.7908,-0.889,142.2,96.1,0.557
18.44,31860.9,34620.2,-0.5419,-0.9362,142.2,96.1,0.557
18.46,31776.7,34581.5,-0.8695,-1.0315,142.2,96.1,0.557
18.48,31809.4,34521.4,-0.7423,-1.1795,142.2,96.1,0.557
18.5,31835.1,34464.2,-0.6425,-1.3204,142.2,96.1,0.557
18.52,31683.4,34452.2,-1.2321,-1.3499,142.2,96.1,0.557
18.54,31806.9,34725.8,-0.7518,-0.6761,142.2,96.1,0.557
18.56,32023.4,35040.7,0.0897,0.0996,142.2,96.1,0.557
18.58,32185.8,35401.1,0.7209,0.9874,142.2,96.1,0.557
18.6,32462.1,35619.0,1.7948,1.5239,142.2,96.1,0.557
18.62,32425.9,35675.0,1.6539,1.662,142.2,96.1,0.557
18.64,32223.2,35653.5,0.8663,1.609,142.2,96.1,0.557
18.66,32205.8,35492.7,0.7986,1.213,142.2,96.1,0.557
18.68,32186.9,35229.7,0.725,0.5652,142.2,96.1,0.557
18.7,32139.8,35160.9,0.5421,0.3956,142.2,96.1,0.557
18.72,32034.0,35059.2,0.1306,0.1452,142.2,96.1,0.557
18.74,32054.5,35060.1,0.2106,0.1474,142.2,96.1,0.557
18.76,32013.0,34899.1,0.0492,-0.2493,142.2,96.1,0.557
18.78,31851.4,34881.5,-0.5791,-0.2927,142.2,96.1,0.557
18.8,31846.9,34717.5,-0.5966,-0.6966,142.2,96.1,0.557
18.82,31859.3,34669.2,-0.5482,-0.8154,142.2,96.1,0.557
18.84,31841.9,34614.4,-0.6161,-0.9504,142.2,96.1,0.557
18.86,31822.5,34529.1,-0.6915,-1.1606,142.2,96.1,0.557
18.88,31771.6,34558.8,-0.8891,-1.0874,142.2,96.1,0.557
18.9,31806.2,34566.8,-0.7545,-1.0677,142.2,96.1,0.557
18.92,31697.1,34508.3,-1.1787,-1.2117,142.2,96.1,0.557
18.94,31684.5,34539.3,-1.2277,-1.1355,142.2,96.1,0.557
18.96,31910.2,34650.7,-0.3505,-0.8611,142.2,96.1,0.557
18.98,31942.2,35008.2,-0.2261,0.0195,142.2,96.1,0.557
19.0,32187.1,35432.4,0.726,1.0643,142.2,96.1,0.557
19.02,32340.0,35679.1,1.3202,1.672,142.2,96.1,0.557
19.04,32341.3,35697.0,1.3251,1.7161,142.2,96.1,0.557
19.06,32337.5,35635.1,1.3103,1.5637,142.2,96.1,0.557
19.08,32160.7,35503.7,0.6231,1.24,142.2,96.1,0.557
19.1,32187.4,35335.4,0.7268,0.8254,142.2,96.1,0.557
19.12,31983.1,35274.4,-0.0673,0.6752,142.2,96.1,0.557
19.14,32059.2,35151.9,0.2287,0.3734,142.2,96.1,0.557
19.16,32059.9,35042.5,0.2312,0.104,142.2,96.1,0.557
19.18,32026.2,34962.9,0.1002,-0.0922,142.2,96.1,0.557
19.2,31956.9,34920.1,-0.1687,-0.1974,142.2,96.1,0.557
19.22,31933.5,34781.2,-0.2598,-0.5396,142.2,96.1,0.557
19.24,31894.0,34725.3,-0.4132,-0.6774,142.2,96.1,0.557
19.26,31833.0,34660.8,-0.6507,-0.8362,142.2,96.1,0.557
19.28,31839.4,34552.4,-0.6257,-1.1031,142.2,96.1,0.557
19.3,31739.9,34666.3,-1.0122,-0.8225,142.2,96.1,0.557
19.32,31694.5,34433.5,-1.1888,-1.3962,142.2,96.1,0.557
19.34,31738.7,34440.6,-1.0171,-1.3786,142.2,96.1,0.557
19.36,31736.9,34518.8,-1.024,-1.186,142.2,96.1,0.557
19.38,31793.7,34639.1,-0.8032,-0.8895,142.2,96.1,0.557
19.4,31962.0,34959.3,-0.149,-0.1009,142.2,96.1,0.557
19.42,32145.0,35362.9,0.5621,0.8932,142.2,96.1,0.557
19.44,32339.9,35605.3,1.3197,1.4902,142.2,96.1,0.557
19.46,32294.9,35700.1,1.145,1.7239,142.2,96.1,0.557
19.48,32319.4,35689.7,1.2399,1.6982,142.2,96.1,0.557
19.5,32236.4,35537.9,0.9174,1.3242,142.2,96.1,0.557
19.52,32151.2,35311.8,0.5861,0.7674,142.2,96.1,0.557
19.54,32018.0,35183.7,0.0685,0.4519,142.2,96.1,0.557
19.56,32015.2,35155.3,0.0579,0.3818,142.2,96.1,0.557
19.58,32033.8,35062.7,0.1298,0.1538,142.2,96.1,0.557
19.6,32038.9,35003.1,0.1496,0.0069,142.2,96.1,0.557
19.62,32023.4,34839.7,0.0894,-0.3955,142.2,96.1,0.557
19.64,31904.4,34835.8,-0.373,-0.4052,142.2,96.1,0.557
19.66,31855.0,34726.6,-0.5652,-0.674,142.2,96.1,0.557
19.68,31814.9,34716.4,-0.7211,-0.6993,142.2,96.1,0.557
19.7,31779.7,34633.8,-0.8577,-0.9027,142.2,96.1,0.557
19.72,31724.7,34607.9,-1.0713,-0.9664,142.2,96.1,0.557
19.74,31697.5,34462.3,-1.1773,-1.3252,142.2,96.1,0.557
19.76,31652.0,34420.0,-1.3539,-1.4294,142.2,96.1,0.557
19.78,31760.3,34474.4,-0.9332,-1.2954,142.2,96.1,0.557
19.8,31794.5,34573.1,-0.8001,-1.0521,142.2,96.1,0.557
19.82,31952.8,34977.6,-0.1849,-0.0559,142.2,96.1,0.557
19.84,32152.6,35347.1,0.5918,0.8543,142.2,96.1,0.557
19.86,32345.9,35675.8,1.3431,1.664,142.2,96.1,0.557
19.88,32375.1,35693.4,1.4566,1.7073,142.2,96.1,0.557
19.9,32315.8,35664.1,1.226,1.6352,142.2,96.1,0.557
19.92,32265.4,35516.1,1.0302,1.2706,142.2,96.1,0.557
19.94,32210.5,35397.8,0.8166,0.9791,142.2,96.1,0.557
19.96,32079.0,35145.5,0.3056,0.3578,142.2,96.1,0.557
19.98,32108.5,35062.0,0.4202,0.1521,142.2,96.1,0.557
20.0,32047.7,35053.5,0.184,0.1311,142.2,96.1,0.557
20.02,32037.8,34965.6,0.1456,-0.0854,142.2,96.1,0.557
20.04,31927.5,34933.4,-0.2831,-0.1647,142.2,96.1,0.557
20.06,31880.4,34839.5,-0.4661,-0.3961,142.2,96.1,0.557
20.08,31920.7,34715.5,-0.3095,-0.7016,142.2,96.1,0.557
20.1,31839.0,34709.9,-0.6272,-0.7152,142.2,96.1,0.557
20.12,31836.7,34739.5,-0.636,-0.6424,142.2,96.1,0.557
20.14,31739.0,34700.9,-1.016,-0.7374,142.2,96.1,0.557
20.16,31767.5,34532.7,-0.905,-1.1517,142.2,96.1,0.557
20.18,31732.7,34481.5,-1.0405,-1.2778,142.2,96.1,0.557
20.2,31701.2,34520.1,-1.1628,-1.1828,142.2,96.1,0.557
20.22,31841.9,34655.9,-0.616,-0.8482,142.2,96.1,0.557
20.24,31947.1,34909.2,-0.2071,-0.2244,142.2,96.1,0.557
20.26,32114.3,35287.3,0.443,0.7071,142.2,96.1,0.557
20.28,32302.0,35481.7,1.1725,1.1857,142.2,96.1,0.557
20.3,32314.1,35756.9,1.2196,1.8636,142.2,96.1,0.557
20.32,32272.9,35702.5,1.0593,1.7297,142.2,96.1,0.557
20.34,32287.1,35606.5,1.1146,1.4932,142.2,96.1,0.557
20.36,32125.7,35345.0,0.4873,0.8491,142.2,96.1,0.557
20.38,32156.9,35218.6,0.6085,0.5379,142.2,96.1,0.557
20.4,32148.9,35107.3,0.5773,0.2637,142.2,96.1,0.557
20.42,31960.3,35073.0,-0.1558,0.1792,142.2,96.1,0.557
20.44,32039.1,34982.7,0.1506,-0.0433,142.2,96.1,0.557
20.46,31996.9,34955.8,-0.0133,-0.1095,142.2,96.1,0.557
20.48,31903.9,34850.7,-0.3749,-0.3684,142.2,96.1,0.557
20.5,31873.5,34765.1,-0.4933,-0.5792,142.2,96.1,0.557
20.52,31861.4,34700.8,-0.5402,-0.7378,142.2,96.1,0.557
20.54,31881.1,34639.9,-0.4635,-0.8878,142.2,96.1,0.557
20.56,31721.7,34693.1,-1.083,-0.7567,142.2,96.1,0.557
20.58,31811.2,34554.2,-0.7351,-1.0986,142.2,96.1,0.557
20.6,31717.9,34477.3,-1.098,-1.2882,142.2,96.1,0.557
20.62,31751.4,34511.1,-0.9676,-1.205,142.2,96.1,0.557
20.64,31890.4,34570.3,-0.4275,-1.0592,142.2,96.1,0.557
20.66,31918.1,34875.2,-0.3196,-0.3081,142.2,96.1,0.557
20.68,32157.0,35367.9,0.6089,0.9055,142.2,96.1,0.557
20.7,32273.4,35586.1,1.0612,1.4429,142.2,96.1,0.557
20.72,32376.5,35848.9,1.4621,2.0903,142.2,96.1,0.557
20.74,32309.2,35789.9,1.2003,1.945,142.2,96.1,0.557
20.76,32221.3,35650.0,0.8587,1.6004,142.2,96.1,0.557
20.78,32300.2,35246.6,1.1655,0.6067,142.2,96.1,0.557
20.8,32097.5,35230.6,0.3776,0.5674,142.2,96.1,0.557
20.82,31963.2,35046.7,-0.1446,0.1144,142.2,96.1,0.557
20.84,32043.9,35098.4,0.1692,0.2417,142.2,96.1,0.557
20.86,32073.7,34987.6,0.285,-0.0311,142.2,96.1,0.557
20.88,32025.3,34946.3,0.0969,-0.133,142.2,96.1,0.557
20.9,31883.3,34735.4,-0.455,-0.6523,142.2,96.1,0.557
20.92,31900.2,34698.1,-0.3893,-0.7443,142.2,96.1,0.557
20.94,31840.4,34650.7,-0.6217,-0.8609,142.2,96.1,0.557
20.96,31819.4,34705.6,-0.7034,-0.7258,142.2,96.1,0.557
20.98,31788.8,34639.3,-0.8225,-0.8892,142.2,96.1,0.557
21.0,31776.7,34659.4,-0.8694,-0.8396,142.2,96.1,0.557
21.02,31771.5,34429.8,-0.8897,-1.4052,142.2,96.1,0.557
21.04,31689.4,34421.1,-1.2085,-1.4265,142.2,96.1,0.557
21.06,31836.6,34562.9,-0.6366,-1.0773,142.2,96.1,0.557
21.08,31971.9,34769.4,-0.1105,-0.5687,142.2,96.1,0.557
21.1,32111.7,35178.9,0.4327,0.44,142.2,96.1,0.557
21.12,32315.0,35517.0,1.223,1.2728,142.2,96.1,0.557
21.14,32328.2,35612.1,1.2745,1.5069,142.2,96.1,0.557
21.16,32411.0,35719.8,1.5963,1.7724,142.2,96.1,0.557
21.18,32282.1,35641.0,1.0952,1.5781,142.2,96.1,0.557
21.2,32137.9,35358.7,0.5344,0.883,142.2,96.1,0.557
21.22,32154.0,35187.1,0.5971,0.4602,142.2,96.1,0.557
21.24,32114.7,35096.0,0.4444,0.2359,142.2,96.1,0.557
21.26,32057.5,35167.5,0.2221,0.412,142.2,96.1,0.557
21.28,31978.5,35020.0,-0.085,0.0487,142.2,96.1,0.557
21.3,31948.7,34897.6,-0.2006,-0.253,142.2,96.1,0.557
21.32,31930.0,34730.1,-0.2736,-0.6654,142.2,96.1,0.557
21.34,31855.6,34733.6,-0.5628,-0.6569,142.2,96.1,0.557
21.36,31848.1,34563.8,-0.5917,-1.0751,142.2,96.1,0.557
21.38,31919.5,34734.2,-0.3143,-0.6555,142.2,96.1,0.557
21.4,31818.3,34663.5,-0.7078,-0.8296,142.2,96.1,0.557
21.42,31745.6,34594.4,-0.9901,-0.9998,142.2,96.1,0.557
21.44,31726.8,34446.7,-1.0632,-1.3637,142.2,96.1,0.557
21.46,31708.2,34509.6,-1.1356,-1.2085,142.2,96.1,0.557
21.48,31730.4,34518.9,-1.0494,-1.1858,142.2,96.1,0.557
21.5,31843.6,34864.2,-0.6094,-0.3351,142.2,96.1,0.557
21.52,32085.9,35129.0,0.3323,0.3171,142.2,96.1,0.557
21.54,32287.6,35559.1,1.1165,1.3764,142.2,96.1,0.557
21.56,32347.4,35745.2,1.3488,1.8348,142.2,96.1,0.557
21.58,32460.2,35675.8,1.7872,1.664,142.2,96.1,0.557
21.6,32260.4,35625.3,1.0106,1.5396,142.2,96.1,0.557
21.62,32218.7,35491.7,0.8487,1.2106,142.2,96.1,0.557
21.64,32126.4,35250.2,0.4899,0.6156,142.2,96.1,0.557
21.66,32092.0,35146.6,0.3562,0.3605,142.2,96.1,0.557
21.68,32102.0,35119.8,0.395,0.2945,142.2,96.1,0.557
21.7,31952.7,34963.4,-0.1853,-0.0908,142.2,96.1,0.557
21.72,31972.3,34968.2,-0.1091,-0.0791,142.2,96.1,0.557
21.74,31919.8,34911.3,-0.3132,-0.2192,142.2,96.1,0.557
21.76,31835.6,34787.7,-0.6406,-0.5236,142.2,96.1,0.557
21.78,31766.2,34668.9,-0.9102,-0.8162,142.2,96.1,0.557
21.8,31806.3,34591.3,-0.7543,-1.0073,142.2,96.1,0.557
21.82,31759.5,34574.0,-0.9363,-1.05,142.2,96.1,0.557
21.84,31824.5,34572.2,-0.6835,-1.0544,142.2,96.1,0.557
21.86,31819.0,34491.6,-0.705,-1.253,142.2,96.1,0.557
21.88,31805.2,34455.6,-0.7584,-1.3416,142.2,96.1,0.557
21.9,31714.9,34487.1,-1.1096,-1.2641,142.2,96.1,0.557
21.92,31889.3,34761.0,-0.4316,-0.5895,142.2,96.1,0.557
21.94,32039.2,35140.4,0.1508,0.3451,142.2,96.1,0.557
21.96,32279.2,35499.3,1.0838,1.2291,142.2,96.1,0.557
21.98,32239.8,35736.1,0.9306,1.8125,142.2,96.1,0.557
22.0,32431.1,35827.7,1.6743,2.0381,142.2,96.1,0.557
22.02,32269.1,35678.5,1.0447,1.6706,142.2,96.1,0.557
22.04,32202.3,35379.4,0.7849,0.9338,142.2,96.1,0.557
22.06,32199.5,35240.9,0.7739,0.5926,142.2,96.1,0.557
22.08,32089.1,35118.9,0.3448,0.2922,142.2,96.1,0.557
22.1,32060.5,35065.5,0.2336,0.1607,142.2,96.1,0.557
22.12,32033.8,35048.0,0.1301,0.1175,142.2,96.1,0.557
22.14,31910.9,34983.1,-0.3478,-0.0423,142.2,96.1,0.557
22.16,32025.4,34808.3,0.0974,-0.4729,142.2,96.1,0.557
22.18,31981.2,34796.4,-0.0744,-0.5022,142.2,96.1,0.557
22.2,31874.9,34604.6,-0.4875,-0.9747,142.2,96.1,0.557
22.22,31799.9,34612.0,-0.7791,-0.9563,142.2,96.1,0.557
22.24,31819.0,34656.7,-0.705,-0.8463,142.2,96.1,0.557
22.26,31907.4,34617.1,-0.3615,-0.9438,142.2,96.1,0.557
22.28,31689.4,34542.2,-1.2088,-1.1283,142.2,96.1,0.557
22.3,31728.0,34398.0,-1.0587,-1.4836,142.2,96.1,0.557
22.32,31694.5,34542.3,-1.1888,-1.128,142.2,96.1,0.557
22.34,31941.1,34669.5,-0.2305,-0.8149,142.2,96.1,0.557
22.36,32031.4,35021.4,0.1206,0.0521,142.2,96.1,0.557
22.38,32229.6,35432.4,0.8911,1.0643,142.2,96.1,0.557
22.4,32432.6,35735.7,1.6802,1.8114,142.2,96.1,0.557
22.42,32357.7,35725.8,1.3888,1.7872,142.2,96.1,0.557
22.44,32340.3,35675.5,1.3213,1.6632,142.2,96.1,0.557
22.46,32171.3,35471.6,0.6644,1.161,142.2,96.1,0.557
22.48,32052.1,35292.6,0.201,0.7202,142.2,96.1,0.557
22.5,32180.6,35195.0,0.7007,0.4797,142.2,96.1,0.557
22.52,32085.1,35069.7,0.3296,0.171,142.2,96.1,0.557
22.54,31998.9,35015.2,-0.0056,0.0367,142.2,96.1,0.557
22.56,31879.9,34996.7,-0.4682,-0.0087,142.2,96.1,0.557
22.58,31969.3,34901.4,-0.1209,-0.2436,142.2,96.1,0.557
22.6,31824.2,34736.6,-0.6848,-0.6495,142.2,96.1,0.557
22.62,31803.6,34697.9,-0.7649,-0.7449,142.2,96.1,0.557
22.64,31767.2,34698.3,-0.9065,-0.7439,142.2,96.1,0.557
22.66,31834.3,34685.5,-0.6453,-0.7754,142.2,96.1,0.557
22.68,31766.6,34584.5,-0.9085,-1.024,142.2,96.1,0.557
22.7,31622.9,34421.4,-1.4673,-1.4259,142.2,96.1,0.557
22.72,31733.3,34383.2,-1.0381,-1.5198,142.2,96.1,0.557
22.74,31739.5,34521.2,-1.0141,-1.1801,142.2,96.1,0.557
22.76,31771.0,34756.4,-0.8916,-0.6006,142.2,96.1,0.557
22.78,32047.0,35081.3,0.1815,0.1997,142.2,96.1,0.557
22.8,32259.8,35401.6,1.0082,0.9884,142.2,96.1,0.557
22.82,32398.8,35605.7,1.5486,1.4913,142.2,96.1,0.557
22.84,32327.2,35807.1,1.2705,1.9873,142.2,96.1,0.557
22.86,32298.0,35617.3,1.157,1.5198,142.2,96.1,0.557
22.88,32244.6,35484.1,0.9491,1.1918,142.2,96.1,0.557
22.9,32083.4,35302.5,0.3228,0.7444,142.2,96.1,0.557
22.92,32096.6,35069.2,0.3739,0.1698,142.2,96.1,0.557
22.94,32082.0,35014.1,0.3173,0.0341,142.2,96.1,0.557
22.96,32095.1,35042.1,0.3681,0.1029,142.2,96.1,0.557
22.98,31915.3,34974.9,-0.3307,-0.0626,142.2,96.1,0.557
23.0,31902.1,34761.2,-0.3819,-0.5888,142.2,96.1,0.557
23.02,31993.0,34794.6,-0.0285,-0.5066,142.2,96.1,0.557
23.04,31833.2,34714.9,-0.6498,-0.7028,142.2,96.1,0.557
23.06,31874.8,34709.1,-0.4882,-0.7172,142.2,96.1,0.557
23.08,31732.9,34607.8,-1.0396,-0.9668,142.2,96.1,0.557
23.1,31752.2,34574.8,-0.9645,-1.0481,142.2,96.1,0.557
23.12,31754.1,34576.0,-0.9573,-1.0451,142.2,96.1,0.557
23.14,31676.0,34605.6,-1.2609,-0.9723,142.2,96.1,0.557
23.16,31772.0,34566.0,-0.8878,-1.0697,142.2,96.1,0.557
23.18,31813.8,34734.9,-0.725,-0.6537,142.2,96.1,0.557
23.2,31991.1,35064.0,-0.0359,0.1569,142.2,96.1,0.557
23.22,32183.8,35392.1,0.7129,0.9652,142.2,96.1,0.557
23.24,32395.6,35624.6,1.5362,1.5379,142.2,96.1,0.557
23.26,32350.0,35739.6,1.3591,1.8211,142.2,96.1,0.557
23.28,32262.1,35638.1,1.0175,1.5712,142.2,96.1,0.557
23.3,32344.3,35554.6,1.3369,1.3654,142.2,96.1,0.557
23.32,32198.5,35325.1,0.7701,0.8001,142.2,96.1,0.557
23.34,32061.0,35260.9,0.2355,0.642,142.2,96.1,0.557
23.36,32037.1,35136.9,0.1429,0.3364,142.2,96.1,0.557
23.38,32069.8,35015.0,0.2697,0.0361,142.2,96.1,0.557
23.4,32018.4,34969.6,0.0702,-0.0755,142.2,96.1,0.557
23.42,31950.5,34896.6,-0.1937,-0.2554,142.2,96.1,0.557
23.44,31903.1,34758.7,-0.3781,-0.595,142.2,96.1,0.557
23.46,31818.2,34696.1,-0.7082,-0.7491,142.2,96.1,0.557
23.48,31808.5,34625.9,-0.7456,-0.9222,142.2,96.1,0.557
23.5,31808.8,34656.2,-0.7446,-0.8474,142.2,96.1,0.557
23.52,31836.2,34584.0,-0.638,-1.0253,142.2,96.1,0.557
23.54,31791.5,34557.9,-0.8117,-1.0896,142.2,96.1,0.557
23.56,31751.8,34502.2,-0.9663,-1.2269,142.2,96.1,0.557
23.58,31739.0,34474.6,-1.0158,-1.2947,142.2,96.1,0.557
23.6,31884.0,34616.9,-0.4522,-0.9442,142.2,96.1,0.557
23.62,32026.7,34991.8,0.1023,-0.021,142.2,96.1,0.557
23.64,32278.1,35389.1,1.0797,0.9577,142.2,96.1,0.557
23.66,32412.2,35638.6,1.6009,1.5723,142.2,96.1,0.557
23.68,32317.4,35791.8,1.2323,1.9496,142.2,96.1,0.557
23.7,32263.1,35707.6,1.0213,1.7423,142.2,96.1,0.557
23.72,32326.2,35553.3,1.2666,1.3622,142.2,96.1,0.557
23.74,32128.8,35342.2,0.4993,0.8423,142.2,96.1,0.557
23.76,32136.9,35316.5,0.5305,0.779,142.2,96.1,0.557
23.78,32070.1,35108.7,0.2709,0.267,142.2,96.1,0.557
23.8,32004.6,35078.2,0.0163,0.192,142.2,96.1,0.557
23.82,32043.0,34952.8,0.1656,-0.1171,142.2,96.1,0.557
23.84,31911.6,34835.7,-0.3451,-0.4053,142.2,96.1,0.557
23.86,31961.4,34751.7,-0.1515,-0.6122,142.2,96.1,0.557
23.88,31922.5,34616.9,-0.3026,-0.9443,142.2,96.1,0.557
23.9,31849.2,34631.9,-0.5874,-0.9074,142.2,96.1,0.557
23.92,31878.9,34598.0,-0.4722,-0.991,142.2,96.1,0.557
23.94,31729.3,34655.1,-1.0535,-0.8503,142.2,96.1,0.557
23.96,31660.4,34563.1,-1.3213,-1.0769,142.2,96.1,0.557
23.98,31700.5,34516.4,-1.1656,-1.1919,142.2,96.1,0.557
24.0,31689.2,34447.2,-1.2093,-1.3623,142.2,96.1,0.557
24.02,31799.3,34708.8,-0.7816,-0.7181,142.2,96.1,0.557
24.04,32010.3,34914.2,0.0387,-0.2121,142.2,96.1,0.557
24.06,32128.0,35444.8,0.496,1.095,142.2,96.1,0.557
24.08,32358.0,35711.1,1.3901,1.7508,142.2,96.1,0.557
24.1,32384.9,35666.6,1.4946,1.6413,142.2,96.1,0.557
24.12,32380.3,35701.4,1.4767,1.727,142.2,96.1,0.557
24.14,32300.2,35500.2,1.1655,1.2315,142.2,96.1,0.557
24.16,32203.6,35313.4,0.7898,0.7714,142.2,96.1,0.557
24.18,32173.4,35110.8,0.6727,0.2723,142.2,96.1,0.557
24.2,32106.5,35075.9,0.4125,0.1863,142.2,96.1,0.557
24.22,32083.7,35087.8,0.3241,0.2157,142.2,96.1,0.557
24.24,32052.7,34925.5,0.2034,-0.1841,142.2,96.1,0.557
24.26,31862.5,34916.7,-0.5357,-0.206,142.2,96.1,0.557
24.28,31952.1,34745.4,-0.1874,-0.6278,142.2,96.1,0.557
24.3,31814.4,34682.4,-0.7226,-0.783,142.2,96.1,0.557
24.32,31858.4,34613.2,-0.5519,-0.9534,142.2,96.1,0.557
24.34,31853.3,34683.7,-0.5715,-0.7799,142.2,96.1,0.557
24.36,31787.2,34613.9,-0.8287,-0.9516,142.2,96.1,0.557
24.38,31728.8,34501.2,-1.0556,-1.2293,142.2,96.1,0.557
24.4,31703.3,34430.4,-1.1548,-1.4037,142.2,96.1,0.557
24.42,31716.3,34489.3,-1.1039,-1.2585,142.2,96.1,0.557
24.44,31794.5,34695.6,-0.8,-0.7505,142.2,96.1,0.557
24.46,31918.3,34951.8,-0.319,-0.1194,142.2,96.1,0.557
24.48,32129.6,35220.3,0.5023,0.5419,142.2,96.1,0.557
24.5,32241.9,35563.7,0.9388,1.3878,142.2,96.1,0.557
24.52,32344.0,35753.5,1.3355,1.8552,142.2,96.1,0.557
24.54,32453.8,35719.5,1.7626,1.7715,142.2,96.1,0.557
24.56,32311.3,35492.2,1.2086,1.2117,142.2,96.1,0.557
24.58,32224.8,35314.0,0.8723,0.7728,142.2,96.1,0.557
24.6,32159.2,35166.8,0.6176,0.4102,142.2,96.1,0.557
24.62,32155.1,35166.3,0.6016,0.409,142.2,96.1,0.557
24.64,31982.4,34988.9,-0.0699,-0.0281,142.2,96.1,0.557
24.66,32068.2,34944.2,0.2639,-0.1382,142.2,96.1,0.557
24.68,31873.3,34936.2,-0.494,-0.1579,142.2,96.1,0.557
24.7,31868.4,34768.7,-0.5131,-0.5705,142.2,96.1,0.557
24.72,31875.7,34622.7,-0.4845,-0.93,142.2,96.1,0.557
24.74,31858.2,34695.2,-0.5524,-0.7516,142.2,96.1,0.557
24.76,31856.2,34686.3,-0.5604,-0.7734,142.2,96.1,0.557
24.78,31843.1,34690.7,-0.6112,-0.7625,142.2,96.1,0.557
24.8,31854.9,34594.2,-0.5656,-1.0002,142.2,96.1,0.557
24.82,31811.7,34450.9,-0.7335,-1.3532,142.2,96.1,0.557
24.84,31806.3,34514.0,-0.7542,-1.1978,142.2,96.1,0.557
24.86,31853.2,34609.5,-0.572,-0.9626,142.2,96.1,0.557
24.88,31951.5,34831.9,-0.1901,-0.4147,142.2,96.1,0.557
24.9,32179.2,35241.7,0.6951,0.5947,142.2,96.1,0.557
24.92,32286.0,35603.4,1.1104,1.4855,142.2,96.1,0.557
24.94,32355.1,35747.3,1.379,1.8401,142.2,96.1,0.557
24.96,32353.7,35786.4,1.3733,1.9362,142.2,96.1,0.557
24.98,32277.5,35651.0,1.077,1.6027,142.2,96.1,0.557
25.0,32173.2,35365.8,0.6719,0.9003,142.2,96.1,0.557
25.02,32061.2,35230.4,0.2364,0.5668,142.2,96.1,0.557
25.04,32038.7,35022.2,0.149,0.054,142.2,96.1,0.557
25.06,31988.7,35074.4,-0.0452,0.1825,142.2,96.1,0.557
25.08,32005.1,35066.0,0.0184,0.1618,142.2,96.1,0.557
25.1,31911.2,34881.1,-0.3466,-0.2937,142.2,96.1,0.557
25.12,32000.7,34853.7,0.0013,-0.361,142.2,96.1,0.557
25.14,31831.2,34652.4,-0.6575,-0.8568,142.2,96.1,0.557
25.16,31912.3,34633.1,-0.3422,-0.9045,142.2,96.1,0.557
25.18,31828.8,34761.3,-0.6669,-0.5886,142.2,96.1,0.557
25.2,31794.8,34605.8,-0.7991,-0.9716,142.2,96.1,0.557
25.22,31802.6,34566.3,-0.7688,-1.0689,142.2,96.1,0.557
25.24,31647.9,34429.6,-1.37,-1.4058,142.2,96.1,0.557
25.26,31751.5,34473.0,-0.9674,-1.2988,142.2,96.1,0.557
25.28,31755.9,34644.0,-0.9502,-0.8775,142.2,96.1,0.557
25.3,31903.9,34788.6,-0.3748,-0.5213,142.2,96.1,0.557
25.32,32146.7,35185.9,0.5688,0.4572,142.2,96.1,0.557
25.34,32429.1,35588.3,1.6663,1.4483,142.2,96.1,0.557
25.36,32369.3,35715.7,1.434,1.7621,142.2,96.1,0.557
25.38,32375.2,35668.1,1.4571,1.645,142.2,96.1,0.557
25.4,32368.3,35638.2,1.4303,1.5714,142.2,96.1,0.557
25.42,32208.1,35491.3,0.8074,1.2095,142.2,96.1,0.557
25.44,32088.5,35186.7,0.3424,0.4591,142.2,96.1,0.557
25.46,32101.1,35142.0,0.3916,0.3491,142.2,96.1,0.557
25.48,31954.6,35168.0,-0.1779,0.4131,142.2,96.1,0.557
25.5,31979.3,35009.0,-0.0819,0.0214,142.2,96.1,0.557
25.52,31913.1,34883.6,-0.3391,-0.2875,142.2,96.1,0.557
25.54,31933.7,34803.6,-0.2592,-0.4844,142.2,96.1,0.557
25.56,31763.3,34792.8,-0.9214,-0.511,142.2,96.1,0.557
25.58,31744.3,34698.0,-0.9953,-0.7446,142.2,96.1,0.557
25.6,31902.0,34708.7,-0.3824,-0.7182,142.2,96.1,0.557
25.62,31765.5,34624.9,-0.9129,-0.9247,142.2,96.1,0.557
25.64,31784.5,34674.3,-0.8391,-0.8029,142.2,96.1,0.557
25.66,31744.5,34547.1,-0.9945,-1.1161,142.2,96.1,0.557
25.68,31764.6,34470.4,-0.9165,-1.3052,142.2,96.1,0.557
25.7,31787.4,34561.1,-0.8277,-1.0818,142.2,96.1,0.557
25.72,31868.5,34729.8,-0.5125,-0.6663,142.2,96.1,0.557
25.74,32145.1,35104.4,0.5627,0.2566,142.2,96.1,0.557
25.76,32284.1,35345.5,1.103,0.8503,142.2,96.1,0.557
25.78,32330.2,35664.9,1.2821,1.637,142.2,96.1,0.557
25.8,32399.7,35674.8,1.552,1.6615,142.2,96.1,0.557
25.82,32358.5,35758.3,1.3921,1.8671,142.2,96.1,0.557
25.84,32256.5,35345.2,0.9957,0.8496,142.2,96.1,0.557
25.86,32065.3,35322.8,0.2523,0.7945,142.2,96.1,0.557
25.88,32012.4,35204.9,0.0466,0.5039,142.2,96.1,0.557
25.9,31999.5,35138.8,-0.0034,0.3412,142.2,96.1,0.557
25.92,32064.3,35076.5,0.2485,0.1879,142.2,96.1,0.557
25.94,31937.7,34869.5,-0.2435,-0.3222,142.2,96.1,0.557
25.96,31886.5,34806.8,-0.4426,-0.4766,142.2,96.1,0.557
25.98,31941.6,34752.6,-0.2283,-0.61,142.2,96.1,0.557
26.0,31843.6,34694.1,-0.6094,-0.7542,142.2,96.1,0.557
26.02,31822.5,34731.4,-0.6912,-0.6623,142.2,96.1,0.557
26.04,31801.4,34702.2,-0.7735,-0.7343,142.2,96.1,0.557
26.06,31766.8,34532.9,-0.9078,-1.1512,142.2,96.1,0.557
26.08,31768.8,34551.8,-0.9002,-1.1046,142.2,96.1,0.557
26.1,31769.2,34527.1,-0.8987,-1.1654,142.2,96.1,0.557
26.12,31806.3,34525.1,-0.7545,-1.1705,142.2,96.1,0.557
26.14,31858.6,34787.2,-0.5509,-0.5248,142.2,96.1,0.557
26.16,32075.0,35122.7,0.29,0.3016,142.2,96.1,0.557
26.18,32181.0,35558.9,0.7023,1.376,142.2,96.1,0.557
26.2,32435.8,35693.4,1.6924,1.7072,142.2,96.1,0.557
26.22,32427.3,35674.6,1.6593,1.6611,142.2,96.1,0.557
26.24,32203.6,35601.0,0.7898,1.4797,142.2,96.1,0.557
26.26,32182.5,35444.3,0.7081,1.0936,142.2,96.1,0.557
26.28,32174.1,35248.7,0.6754,0.6118,142.2,96.1,0.557
26.3,32098.1,35064.6,0.38,0.1586,142.2,96.1,0.557
26.32,32012.7,35080.3,0.0481,0.1971,142.2,96.1,0.557
26.34,32003.3,35066.2,0.0112,0.1624,142.2,96.1,0.557
26.36,31919.2,34937.8,-0.3155,-0.1539,142.2,96.1,0.557
26.38,31892.7,34828.0,-0.4185,-0.4242,142.2,96.1,0.557
26.4,31800.6,34734.9,-0.7766,-0.6536,142.2,96.1,0.557
26.42,31771.3,34679.7,-0.8903,-0.7896,142.2,96.1,0.557
26.44,31844.9,34679.8,-0.6044,-0.7894,142.2,96.1,0.557
26.46,31873.4,34740.9,-0.4934,-0.6389,142.2,96.1,0.557
26.48,31776.0,34590.4,-0.8722,-1.0095,142.2,96.1,0.557
26.5,31714.7,34481.5,-1.1103,-1.2778,142.2,96.1,0.557
26.52,31672.2,34509.2,-1.2756,-1.2095,142.2,96.1,0.557
26.54,31781.4,34536.1,-0.851,-1.1433,142.2,96.1,0.557
26.56,31860.7,34748.4,-0.5428,-0.6205,142.2,96.1,0.557
26.58,32074.6,35141.8,0.2885,0.3486,142.2,96.1,0.557
26.6,32160.4,35377.5,0.6221,0.9291,142.2,96.1,0.557
26.62,32375.1,35654.0,1.4566,1.6102,142.2,96.1,0.557
26.64,32441.9,35674.1,1.7164,1.6598,142.2,96.1,0.557
26.66,32303.6,35661.9,1.1786,1.6297,142.2,96.1,0.557
26.68,32302.8,35445.6,1.1755,1.0968,142.2,96.1,0.557
26.7,32111.1,35283.9,0.4304,0.6987,142.2,96.1,0.557
26.72,32085.3,35121.1,0.33,0.2977,142.2,96.1,0.557
26.74,32065.3,35027.2,0.2525,0.0663,142.2,96.1,0.557
26.76,31970.7,35101.2,-0.1154,0.2487,142.2,96.1,0.557
26.78,31982.4,34986.9,-0.0697,-0.0329,142.2,96.1,0.557
26.8,31942.5,34856.5,-0.225,-0.3541,142.2,96.1,0.557
26.82,31905.1,34800.2,-0.3702,-0.4929,142.2,96.1,0.557
26.84,31834.8,34753.4,-0.6437,-0.6082,142.2,96.1,0.557
26.86,31834.5,34735.8,-0.6447,-0.6515,142.2,96.1,0.557
26.88,31813.6,34692.3,-0.7258,-0.7585,142.2,96.1,0.557
26.9,31765.2,34637.6,-0.914,-0.8933,142.2,96.1,0.557
26.92,31820.4,34517.3,-0.6994,-1.1896,142.2,96.1,0.557
26.94,31748.1,34424.2,-0.9804,-1.419,142.2,96.1,0.557
26.96,31686.5,34483.8,-1.2198,-1.2721,142.2,96.1,0.557
26.98,31793.4,34750.0,-0.8045,-0.6166,142.2,96.1,0.557
27.0,31982.6,35078.4,-0.0691,0.1923,142.2,96.1,0.557
27.02,32251.5,35426.1,0.9763,1.0488,142.2,96.1,0.557
27.04,32369.0,35708.5,1.4327,1.7446,142.2,96.1,0.557
27.06,32254.6,35804.6,0.9881,1.9812,142.2,96.1,0.557
27.08,32301.5,35674.8,1.1705,1.6616,142.2,96.1,0.557
27.1,32305.9,35478.6,1.1876,1.1782,142.2,96.1,0.557
27.12,32100.7,35291.5,0.3899,0.7173,142.2,96.1,0.557
27.14,32089.1,35142.5,0.3448,0.3503,142.2,96.1,0.557
27.16,32083.4,34980.8,0.3227,-0.0479,142.2,96.1,0.557
27.18,32101.9,35056.2,0.3947,0.1379,142.2,96.1,0.557
27.2,32000.9,34939.8,0.0022,-0.149,142.2,96.1,0.557
27.22,31879.1,34956.6,-0.4713,-0.1075,142.2,96.1,0.557
27.24,31890.5,34805.3,-0.4268,-0.4804,142.2,96.1,0.557
27.26,31851.0,34637.2,-0.5804,-0.8944,142.2,96.1,0.557
27.28,31899.5,34666.4,-0.3919,-0.8223,142.2,96.1,0.557
27.3,31881.3,34705.2,-0.4627,-0.7268,142.2,96.1,0.557
27.32,31827.0,34671.4,-0.6738,-0.81,142.2,96.1,0.557
27.34,31738.1,34607.5,-1.0192,-0.9674,142.2,96.1,0.557
27.36,31662.5,34521.3,-1.3132,-1.1798,142.2,96.1,0.557
27.38,31706.5,34579.0,-1.1423,-1.0376,142.2,96.1,0.557
27.4,31840.7,34718.2,-0.6208,-0.6948,142.2,96.1,0.557
27.42,32020.9,35028.5,0.0799,0.0695,142.2,96.1,0.557
27.44,32227.3,35355.5,0.8822,0.875,142.2,96.1,0.557
27.46,32327.1,35655.4,1.2702,1.6138,142.2,96.1,0.557
27.48,32392.5,35785.4,1.524,1.9339,142.2,96.1,0.557
27.5,32253.3,35730.6,0.9831,1.7988,142.2,96.1,0.557
27.52,32191.8,35507.3,0.7442,1.249,142.2,96.1,0.557
27.54,32201.1,35274.9,0.7804,0.6765,142.2,96.1,0.557
27.56,32102.0,35087.2,0.3949,0.2141,142.2,96.1,0.557
27.58,31970.3,35043.6,-0.117,0.1068,142.2,96.1,0.557
27.6,32060.9,35114.2,0.2354,0.2806,142.2,96.1,0.557
27.62,32009.3,35026.1,0.0348,0.0636,142.2,96.1,0.557
27.64,31925.8,34870.3,-0.2898,-0.3201,142.2,96.1,0.557
27.66,31962.4,34834.8,-0.1477,-0.4077,142.2,96.1,0.557
27.68,31931.7,34678.8,-0.2671,-0.7919,142.2,96.1,0.557
27.7,31794.8,34594.5,-0.799,-0.9996,142.2,96.1,0.557
27.72,31742.3,34641.2,-1.003,-0.8844,142.2,96.1,0.557
27.74,31735.6,34606.8,-1.0291,-0.9693,142.2,96.1,0.557
27.76,31770.1,34468.0,-0.8951,-1.3111,142.2,96.1,0.557
27.78,31725.6,34442.1,-1.0681,-1.375,142.2,96.1,0.557
27.8,31686.8,34458.0,-1.2186,-1.3358,142.2,96.1,0.557
27.82,31769.9,34705.5,-0.8958,-0.7261,142.2,96.1,0.557
27.84,31985.2,35078.2,-0.0588,0.192,142.2,96.1,0.557
27.86,32184.7,35385.0,0.7165,0.9477,142.2,96.1,0.557
27.88,32226.4,35649.3,0.8788,1.5987,142.2,96.1,0.557
27.9,32343.9,35783.5,1.3351,1.9292,142.2,96.1,0.557
27.92,32271.9,35739.2,1.0553,1.82,142.2,96.1,0.557
27.94,32299.6,35553.0,1.1632,1.3614,142.2,96.1,0.557
27.96,32164.3,35306.1,0.6374,0.7532,142.2,96.1,0.557
27.98,32141.8,35109.6,0.5498,0.2694,142.2,96.1,0.557
28.0,32011.1,35199.0,0.0416,0.4894,142.2,96.1,0.557
28.02,32135.2,34965.7,0.5243,-0.0853,142.2,96.1,0.557
28.04,32023.6,34972.1,0.0903,-0.0694,142.2,96.1,0.557
28.06,31962.6,34916.9,-0.1467,-0.2055,142.2,96.1,0.557
28.08,31843.5,34699.5,-0.6096,-0.741,142.2,96.1,0.557
28.1,31841.5,34737.8,-0.6175,-0.6466,142.2,96.1,0.557
28.12,31858.8,34666.7,-0.5501,-0.8216,142.2,96.1,0.557
28.14,31937.2,34600.5,-0.2454,-0.9847,142.2,96.1,0.557
28.16,31777.6,34537.7,-0.8657,-1.1395,142.2,96.1,0.557
28.18,31792.8,34548.6,-0.8069,-1.1126,142.2,96.1,0.557
28.2,31769.2,34438.2,-0.8984,-1.3845,142.2,96.1,0.557
28.22,31798.6,34475.7,-0.7843,-1.292,142.2,96.1,0.557
28.24,31807.2,34643.9,-0.751,-0.8778,142.2,96.1,0.557
28.26,32053.7,34927.4,0.2075,-0.1796,142.2,96.1,0.557
28.28,32201.5,35295.7,0.7817,0.7278,142.2,96.1,0.557
28.3,32285.9,35604.8,1.11,1.4891,142.2,96.1,0.557
28.32,32401.7,35762.9,1.5598,1.8784,142.2,96.1,0.557
28.34,32283.7,35766.1,1.1012,1.8865,142.2,96.1,0.557
28.36,32359.3,35432.4,1.3951,1.0643,142.2,96.1,0.557
28.38,32211.0,35270.5,0.8186,0.6657,142.2,96.1,0.557
28.4,32069.3,35244.3,0.2681,0.601,142.2,96.1,0.557
28.42,32022.3,35102.7,0.0855,0.2522,142.2,96.1,0.557
28.44,32099.6,35060.1,0.3856,0.1473,142.2,96.1,0.557
28.46,31917.8,34945.5,-0.3209,-0.1348,142.2,96.1,0.557
28.48,32013.4,34947.0,0.0505,-0.1311,142.2,96.1,0.557
28.5,31765.9,34690.5,-0.9114,-0.7631,142.2,96.1,0.557
28.52,31886.8,34637.6,-0.4415,-0.8933,142.2,96.1,0.557
28.54,31770.1,34766.2,-0.8949,-0.5766,142.2,96.1,0.557
28.56,31783.9,34679.9,-0.8412,-0.7892,142.2,96.1,0.557
28.58,31807.2,34663.7,-0.7507,-0.8291,142.2,96.1,0.557
28.6,31796.1,34474.2,-0.794,-1.2957,142.2,96.1,0.557
28.62,31678.0,34388.3,-1.2531,-1.5075,142.2,96.1,0.557
28.64,31833.3,34361.2,-0.6495,-1.5743,142.2,96.1,0.557
28.66,31774.5,34654.9,-0.8779,-0.8508,142.2,96.1,0.557
28.68,31962.1,34938.9,-0.1487,-0.1512,142.2,96.1,0.557
28.7,32158.3,35234.6,0.6139,0.5771,142.2,96.1,0.557
28.72,32216.8,35568.4,0.8415,1.3994,142.2,96.1,0.557
28.74,32300.7,35771.2,1.1673,1.8989,142.2,96.1,0.557
28.76,32379.5,35672.7,1.4735,1.6563,142.2,96.1,0.557
28.78,32279.0,35432.8,1.0829,1.0653,142.2,96.1,0.557
28.8,32141.3,35427.9,0.5479,1.0533,142.2,96.1,0.557
28.82,32073.9,35223.3,0.286,0.5494,142.2,96.1,0.557
28.84,32014.0,34998.8,0.0531,-0.0035,142.2,96.1,0.557
28.86,32139.3,35080.9,0.5402,0.1986,142.2,96.1,0.557
28.88,32009.1,34977.1,0.0338,-0.0571,142.2,96.1,0.557
28.9,31877.3,34862.4,-0.4781,-0.3396,142.2,96.1,0.557
28.92,31841.1,34806.2,-0.6191,-0.478,142.2,96.1,0.557
28.94,31792.9,34720.4,-0.8062,-0.6894,142.2,96.1,0.557
28.96,31897.2,34677.0,-0.4009,-0.7962,142.2,96.1,0.557
28.98,31819.7,34750.7,-0.7022,-0.6146,142.2,96.1,0.557
29.0,31763.7,34605.4,-0.92,-0.9727,142.2,96.1,0.557
29.02,31836.0,34530.4,-0.6388,-1.1573,142.2,96.1,0.557
29.04,31763.1,34450.6,-0.9224,-1.3541,142.2,96.1,0.557
29.06,31835.8,34480.8,-0.6398,-1.2795,142.2,96.1,0.557
29.08,31764.0,34570.3,-0.9186,-1.0592,142.2,96.1,0.557
29.1,31986.1,34901.8,-0.0555,-0.2426,142.2,96.1,0.557
29.12,32102.1,35309.0,0.3954,0.7604,142.2,96.1,0.557
29.14,32243.8,35521.2,0.9463,1.2832,142.2,96.1,0.557
29.16,32399.0,35730.3,1.5495,1.7982,142.2,96.1,0.557
29.18,32409.4,35724.2,1.59,1.7832,142.2,96.1,0.557
29.2,32175.6,35556.7,0.6812,1.3706,142.2,96.1,0.557
29.22,32195.4,35413.1,0.7579,1.0169,142.2,96.1,0.557
29.24,32117.1,35219.9,0.4538,0.5411,142.2,96.1,0.557
29.26,31998.8,35138.9,-0.0061,0.3415,142.2,96.1,0.557
29.28,31982.4,35033.5,-0.0699,0.0818,142.2,96.1,0.557
29.3,32020.9,35077.0,0.0799,0.1889,142.2,96.1,0.557
29.32,31933.5,34930.5,-0.26,-0.1718,142.2,96.1,0.557
29.34,31914.5,34782.0,-0.3338,-0.5377,142.2,96.1,0.557
29.36,31816.7,34760.2,-0.7139,-0.5913,142.2,96.1,0.557
29.38,31854.8,34667.7,-0.5659,-0.8192,142.2,96.1,0.557
29.4,31844.4,34684.8,-0.6063,-0.7771,142.2,96.1,0.557
29.42,31784.9,34680.0,-0.8373,-0.7888,142.2,96.1,0.557
29.44,31715.5,34587.0,-1.1071,-1.0181,142.2,96.1,0.557
29.46,31711.6,34569.1,-1.1224,-1.0622,142.2,96.1,0.557
29.48,31653.4,34437.8,-1.3487,-1.3855,142.2,96.1,0.557
29.5,31779.1,34611.6,-0.8599,-0.9575,142.2,96.1,0.557
29.52,31906.4,34819.1,-0.3652,-0.4462,142.2,96.1,0.557
29.54,32082.7,35338.8,0.3199,0.8337,142.2,96.1,0.557
29.56,32387.6,35536.5,1.5051,1.3207,142.2,96.1,0.557
29.58,32337.7,35828.1,1.3113,2.0391,142.2,96.1,0.557
29.6,32367.9,35783.7,1.4284,1.9298,142.2,96.1,0.557
29.62,32378.1,35642.5,1.4683,1.582,142.2,96.1,0.557
29.64,32168.0,35460.2,0.6518,1.1329,142.2,96.1,0.557
29.66,32197.7,35215.0,0.7671,0.5289,142.2,96.1,0.557
29.68,32061.4,35185.4,0.2373,0.456,142.2,96.1,0.557
29.7,32012.3,35032.9,0.0464,0.0803,142.2,96.1,0.557
29.72,31915.6,35183.1,-0.3293,0.4504,142.2,96.1,0.557
29.74,32043.7,34970.8,0.1683,-0.0727,142.2,96.1,0.557
29.76,31845.6,34652.6,-0.6016,-0.8565,142.2,96.1,0.557
29.78,31816.5,34590.5,-0.7146,-1.0093,142.2,96.1,0.557
29.8,31792.6,34640.2,-0.8076,-0.8869,142.2,96.1,0.557
29.82,31851.8,34637.8,-0.5773,-0.8928,142.2,96.1,0.557
29.84,31816.6,34602.1,-0.7144,-0.9809,142.2,96.1,0.557
29.86,31777.0,34583.4,-0.8681,-1.0267,142.2,96.1,0.557
29.88,31757.3,34403.6,-0.9447,-1.4697,142.2,96.1,0.557
29.9,31786.4,34438.3,-0.8317,-1.3843,142.2,96.1,0.557
29.92,31757.3,34535.1,-0.9448,-1.1459,142.2,96.1,0.557
29.94,31929.1,34776.9,-0.2768,-0.5501,142.2,96.1,0.557
29.96,32064.0,35158.8,0.2475,0.3904,142.2,96.1,0.557
29.98,32275.9,35554.0,1.0709,1.3638,142.2,96.1,0.557
30.0,32408.5,35778.0,1.5866,1.9158,142.2,96.1,0.557
30.02,32362.9,35818.1,1.4093,2.0145,142.2,96.1,0.557
30.04,32252.7,35642.9,0.9808,1.5828,142.2,96.1,0.557
30.06,32205.1,35453.5,0.7957,1.1163,142.2,96.1,0.557
30.08,32132.8,35301.6,0.5147,0.7423,142.2,96.1,0.557
30.1,32086.4,35120.9,0.3344,0.2972,142.2,96.1,0.557
30.12,32069.7,35069.9,0.2694,0.1714,142.2,96.1,0.557
30.14,32006.2,34981.3,0.0226,-0.0468,142.2,96.1,0.557
30.16,31996.1,34873.2,-0.0166,-0.313,142.2,96.1,0.557
30.18,31908.9,34838.9,-0.3554,-0.3975,142.2,96.1,0.557
30.2,31814.5,34761.9,-0.7225,-0.5871,142.2,96.1,0.557
30.22,31915.3,34649.2,-0.3308,-0.8649,142.2,96.1,0.557
30.24,31823.6,34656.1,-0.6869,-0.8478,142.2,96.1,0.557
30.26,31853.2,34596.6,-0.5721,-0.9942,142.2,96.1,0.557
30.28,31754.9,34521.9,-0.9541,-1.1784,142.2,96.1,0.557
30.3,31776.1,34485.5,-0.8716,-1.2679,142.2,96.1,0.557
30.32,31742.1,34471.7,-1.0038,-1.3021,142.2,96.1,0.557
30.34,31734.1,34483.1,-1.0348,-1.274,142.2,96.1,0.557
30.36,31862.8,34800.0,-0.5347,-0.4932,142.2,96.1,0.557
30.38,32081.3,35135.4,0.3147,0.3328,142.2,96.1,0.557
30.4,32217.1,35484.7,0.8425,1.1933,142.2,96.1,0.557
30.42,32376.2,35743.7,1.4608,1.8312,142.2,96.1,0.557
30.44,32445.1,35806.9,1.7286,1.9869,142.2,96.1,0.557
30.46,32329.3,35560.6,1.2784,1.3802,142.2,96.1,0.557
30.48,32236.1,35360.1,0.9162,0.8862,142.2,96.1,0.557
30.5,32215.6,35162.9,0.8365,0.4005,142.2,96.1,0.557
30.52,32033.0,35087.0,0.1269,0.2135,142.2,96.1,0.557
30.54,32050.9,35162.8,0.1965,0.4003,142.2,96.1,0.557
30.56,32053.9,35028.0,0.208,0.0683,142.2,96.1,0.557
30.58,31983.2,34937.8,-0.0668,-0.1539,142.2,96.1,0.557
30.6,31907.7,34832.6,-0.36,-0.4129,142.2,96.1,0.557
30.62,31943.0,34734.9,-0.2228,-0.6536,142.2,96.1,0.557
30.64,31788.6,34673.4,-0.823,-0.8051,142.2,96.1,0.557
30.66,31845.2,34693.0,-0.6032,-0.757,142.2,96.1,0.557
30.68,31854.2,34639.8,-0.5683,-0.8879,142.2,96.1,0.557
30.7,31859.1,34587.1,-0.549,-1.0176,142.2,96.1,0.557
30.72,31714.7,34442.5,-1.1102,-1.374,142.2,96.1,0.557
30.74,31682.1,34504.1,-1.2369,-1.2221,142.2,96.1,0.557
30.76,31716.9,34520.9,-1.1018,-1.1808,142.2,96.1,0.557
30.78,31855.2,34736.3,-0.5644,-0.6501,142.2,96.1,0.557
30.8,31994.6,35102.2,-0.0226,0.251,142.2,96.1,0.557
30.82,32290.6,35487.0,1.1282,1.1989,142.2,96.1,0.557
30.84,32382.6,35713.7,1.4856,1.7572,142.2,96.1,0.557
30.86,32465.0,35798.0,1.8061,1.965,142.2,96.1,0.557
30.88,32410.2,35587.3,1.5931,1.4458,142.2,96.1,0.557
30.9,32195.6,35395.3,0.7591,0.9729,142.2,96.1,0.557
30.92,32174.9,35213.5,0.6786,0.5253,142.2,96.1,0.557
30.94,32124.3,35220.0,0.4816,0.5413,142.2,96.1,0.557
30.96,32111.0,34989.5,0.4302,-0.0264,142.2,96.1,0.557
30.98,32002.9,35025.3,0.0098,0.0617,142.2,96.1,0.557
31.0,32036.7,34928.3,0.1414,-0.1773,142.2,96.1,0.557
31.02,31954.0,34822.4,-0.1801,-0.4382,142.2,96.1,0.557
31.04,31843.2,34682.2,-0.611,-0.7835,142.2,96.1,0.557
31.06,31784.9,34667.7,-0.8374,-0.8191,142.2,96.1,0.557
31.08,31858.6,34628.5,-0.5508,-0.9157,142.2,96.1,0.557
31.1,31875.8,34664.7,-0.4843,-0.8265,142.2,96.1,0.557
31.12,31744.3,34667.6,-0.9953,-0.8194,142.2,96.1,0.557
31.14,31768.6,34438.9,-0.9008,-1.3828,142.2,96.1,0.557
31.16,31760.1,34419.0,-0.934,-1.4317,142.2,96.1,0.557
31.18,31826.1,34481.8,-0.6772,-1.2772,142.2,96.1,0.557
31.2,31901.5,34803.4,-0.3843,-0.485,142.2,96.1,0.557
31.22,32152.5,35033.3,0.5913,0.0814,142.2,96.1,0.557
31.24,32280.3,35484.3,1.0881,1.1923,142.2,96.1,0.557
31.26,32387.4,35692.6,1.5045,1.7053,142.2,96.1,0.557
31.28,32363.2,35834.8,1.4104,2.0556,142.2,96.1,0.557
31.3,32393.1,35685.7,1.5265,1.6884,142.2,96.1,0.557
31.32,32184.2,35422.1,0.7147,1.0391,142.2,96.1,0.557
31.34,32147.0,35247.1,0.57,0.6081,142.2,96.1,0.557
31.36,32164.5,35180.5,0.638,0.4438,142.2,96.1,0.557
31.38,32098.7,35108.0,0.3822,0.2654,142.2,96.1,0.557
31.4,32124.4,35031.3,0.482,0.0765,142.2,96.1,0.557
31.42,31939.0,34948.3,-0.2387,-0.1281,142.2,96.1,0.557
31.44,31911.2,34790.4,-0.3467,-0.5171,142.2,96.1,0.557
31.46,31896.8,34814.9,-0.4024,-0.4565,142.2,96.1,0.557
31.48,31855.3,34765.8,-0.5636,-0.5776,142.2,96.1,0.557
31.5,31759.6,34635.2,-0.9357,-0.8993,142.2,96.1,0.557
31.52,31837.4,34720.8,-0.6333,-0.6884,142.2,96.1,0.557
31.54,31712.0,34764.4,-1.1207,-0.5811,142.2,96.1,0.557
31.56,31787.5,34548.4,-0.8272,-1.1131,142.2,96.1,0.557
31.58,31730.1,34466.7,-1.0504,-1.3143,142.2,96.1,0.557
31.6,31697.5,34456.6,-1.1771,-1.3393,142.2,96.1,0.557
31.62,31782.4,34707.9,-0.8471,-0.7201,142.2,96.1,0.557
31.64,32023.5,35083.0,0.0901,0.2038,142.2,96.1,0.557
31.66,32219.9,35390.2,0.8532,0.9604,142.2,96.1,0.557
31.68,32344.0,35558.2,1.3356,1.3743,142.2,96.1,0.557
31.7,32430.7,35758.8,1.6726,1.8685,142.2,96.1,0.557
31.72,32357.4,35644.1,1.3877,1.5858,142.2,96.1,0.557
31.74,32234.8,35452.3,0.9114,1.1133,142.2,96.1,0.557
31.76,32236.4,35331.3,0.9174,0.8153,142.2,96.1,0.557
31.78,32011.9,35125.9,0.0449,0.3095,142.2,96.1,0.557
31.8,31896.7,35196.4,-0.4031,0.4832,142.2,96.1,0.557
31.82,32096.0,35102.7,0.3716,0.2524,142.2,96.1,0.557
31.84,31980.0,34984.2,-0.079,-0.0396,142.2,96.1,0.557
31.86,31925.9,34907.8,-0.2893,-0.2279,142.2,96.1,0.557
31.88,31860.8,34703.3,-0.5423,-0.7314,142.2,96.1,0.557
31.9,31825.5,34766.2,-0.6797,-0.5766,142.2,96.1,0.557
31.92,31774.5,34721.4,-0.8778,-0.687,142.2,96.1,0.557
31.94,31787.8,34709.7,-0.8261,-0.7158,142.2,96.1,0.557
31.96,31837.3,34585.9,-0.6336,-1.0206,142.2,96.1,0.557
31.98,31863.2,34579.7,-0.5333,-1.036,142.2,96.1,0.557
32.0,31652.3,34565.5,-1.3529,-1.071,142.2,96.1,0.557
32.02,31731.4,34528.4,-1.0453,-1.1624,142.2,96.1,0.557
32.04,31864.1,34662.6,-0.5297,-0.8317,142.2,96.1,0.557
32.06,31956.4,34954.4,-0.1707,-0.1129,142.2,96.1,0.557
32.08,32067.9,35493.4,0.2625,1.2147,142.2,96.1,0.557
32.1,32302.4,35702.8,1.1741,1.7303,142.2,96.1,0.557
32.12,32396.6,35767.2,1.5403,1.889,142.2,96.1,0.557
32.14,32417.0,35760.1,1.6195,1.8717,142.2,96.1,0.557
32.16,32248.8,35489.7,0.9657,1.2057,142.2,96.1,0.557
32.18,32224.4,35345.8,0.8708,0.8512,142.2,96.1,0.557
32.2,32101.9,35274.6,0.3948,0.6756,142.2,96.1,0.557
32.22,32083.3,35095.6,0.3225,0.2349,142.2,96.1,0.557
32.24,31973.5,35056.8,-0.1044,0.1392,142.2,96.1,0.557
32.26,31980.9,34969.8,-0.0756,-0.075,142.2,96.1,0.557
32.28,31889.4,34886.0,-0.4315,-0.2814,142.2,96.1,0.557
32.3,31846.1,34833.5,-0.5995,-0.4108,142.2,96.1,0.557
32.32,31826.6,34694.3,-0.6755,-0.7537,142.2,96.1,0.557
32.34,31844.1,34657.8,-0.6074,-0.8435,142.2,96.1,0.557
32.36,31815.5,34653.1,-0.7185,-0.8552,142.2,96.1,0.557
32.38,31802.9,34614.1,-0.7676,-0.9513,142.2,96.1,0.557
32.4,31787.2,34552.9,-0.8284,-1.102,142.2,96.1,0.557
32.42,31638.1,34498.2,-1.408,-1.2366,142.2,96.1,0.557
32.44,31701.6,34476.7,-1.1614,-1.2896,142.2,96.1,0.557
32.46,31814.5,34602.1,-0.7223,-0.9808,142.2,96.1,0.557
32.48,32013.2,34993.9,0.0497,-0.0157,142.2,96.1,0.557
32.5,32154.2,35289.2,0.598,0.7117,142.2,96.1,0.557
32.52,32308.4,35731.2,1.1973,1.8003,142.2,96.1,0.557
32.54,32463.4,35809.7,1.7998,1.9937,142.2,96.1,0.557
32.56,32315.4,35630.1,1.2245,1.5513,142.2,96.1,0.557
32.58,32278.9,35531.2,1.0826,1.3078,142.2,96.1,0.557
32.6,32270.5,35342.9,1.05,0.8439,142.2,96.1,0.557
32.62,32083.8,35150.6,0.3243,0.3704,142.2,96.1,0.557
32.64,32072.5,35104.8,0.2806,0.2576,142.2,96.1,0.557
32.66,32091.9,35032.8,0.3559,0.0801,142.2,96.1,0.557
32.68,31963.6,35018.3,-0.1429,0.0443,142.2,96.1,0.557
32.7,31926.4,34842.4,-0.2877,-0.3888,142.2,96.1,0.557
32.72,31877.2,34721.1,-0.4788,-0.6877,142.2,96.1,0.557
32.74,31859.3,34620.3,-0.5482,-0.936,142.2,96.1,0.557
32.76,31787.3,34625.2,-0.8281,-0.924,142.2,96.1,0.557
32.78,31856.7,34702.2,-0.5586,-0.7342,142.2,96.1,0.557
32.8,31832.3,34626.3,-0.6533,-0.9213,142.2,96.1,0.557
32.82,31697.5,34571.3,-1.1773,-1.0567,142.2,96.1,0.557
32.84,31753.2,34501.1,-0.9607,-1.2295,142.2,96.1,0.557
32.86,31819.2,34534.8,-0.7041,-1.1465,142.2,96.1,0.557
32.88,31774.5,34603.3,-0.878,-0.9778,142.2,96.1,0.557
32.9,31954.0,34888.6,-0.1802,-0.2751,142.2,96.1,0.557
32.92,32156.8,35351.1,0.608,0.864,142.2,96.1,0.557
32.94,32391.7,35559.4,1.5209,1.3772,142.2,96.1,0.557
32.96,32354.6,35759.8,1.3771,1.8709,142.2,96.1,0.557
32.98,32293.5,35724.4,1.1393,1.7836,142.2,96.1,0.557
33.0,32233.3,35601.2,0.9053,1.4801,142.2,96.1,0.557
33.02,32153.6,35410.2,0.5958,1.0098,142.2,96.1,0.557
33.04,32107.2,35173.0,0.4153,0.4254,142.2,96.1,0.557
33.06,32099.6,35104.7,0.3857,0.2572,142.2,96.1,0.557
33.08,32055.6,35014.0,0.2148,0.0339,142.2,96.1,0.557
33.1,32074.6,35032.1,0.2884,0.0785,142.2,96.1,0.557
33.12,31974.3,34929.3,-0.1014,-0.1749,142.2,96.1,0.557
33.14,31901.8,34803.6,-0.3833,-0.4844,142.2,96.1,0.557
33.16,31777.2,34670.6,-0.8673,-0.812,142.2,96.1,0.557
33.18,31825.9,34697.1,-0.6779,-0.7467,142.2,96.1,0.557
33.2,31861.7,34802.2,-0.5388,-0.4878,142.2,96.1,0.557
33.22,31764.2,34611.8,-0.918,-0.9569,142.2,96.1,0.557
33.24,31847.3,34575.0,-0.5948,-1.0474,142.2,96.1,0.557
33.26,31747.2,34442.8,-0.9842,-1.3732,142.2,96.1,0.557
33.28,31660.4,34402.2,-1.3213,-1.4731,142.2,96.1,0.557
33.3,31712.3,34577.5,-1.1197,-1.0414,142.2,96.1,0.557
33.32,31960.1,34880.2,-0.1564,-0.2957,142.2,96.1,0.557
33.34,32073.7,35240.7,0.2852,0.5923,142.2,96.1,0.557
33.36,32286.6,35529.3,1.1128,1.3031,142.2,96.1,0.557
33.38,32368.4,35791.8,1.4306,1.9497,142.2,96.1,0.557
33.4,32293.2,35670.3,1.1384,1.6505,142.2,96.1,0.557
33.42,32218.9,35543.9,0.8495,1.339,142.2,96.1,0.557
33.44,32154.0,35439.7,0.5973,1.0823,142.2,96.1,0.557
33.46,32156.0,35223.5,0.6048,0.5499,142.2,96.1,0.557
33.48,32027.4,35084.6,0.1051,0.2077,142.2,96.1,0.557
33.5,32040.1,35120.7,0.1546,0.2967,142.2,96.1,0.557
33.52,31934.7,34966.3,-0.2553,-0.0838,142.2,96.1,0.557
33.54,31975.1,34891.1,-0.0981,-0.269,142.2,96.1,0.557
33.56,31943.9,34778.7,-0.2195,-0.5459,142.2,96.1,0.557
33.58,31945.1,34826.9,-0.2148,-0.427,142.2,96.1,0.557
33.6,31855.9,34632.8,-0.5614,-0.9052,142.2,96.1,0.557
33.62,31859.2,34549.8,-0.5486,-1.1096,142.2,96.1,0.557
33.64,31850.1,34644.2,-0.5841,-0.877,142.2,96.1,0.557
33.66,31763.7,34628.8,-0.9201,-0.9151,142.2,96.1,0.557
33.68,31734.7,34469.2,-1.0326,-1.3082,142.2,96.1,0.557
33.7,31658.5,34457.2,-1.3288,-1.3376,142.2,96.1,0.557
33.72,31776.9,34555.3,-0.8687,-1.0961,142.2,96.1,0.557
33.74,31873.5,34892.7,-0.4933,-0.2649,142.2,96.1,0.557
33.76,32092.3,35306.9,0.3573,0.7552,142.2,96.1,0.557
33.78,32249.5,35620.8,0.9685,1.5284,142.2,96.1,0.557
33.8,32379.2,35808.1,1.4726,1.9897,142.2,96.1,0.557
33.82,32300.2,35671.1,1.1656,1.6524,142.2,96.1,0.557
33.84,32299.6,35562.3,1.1632,1.3844,142.2,96.1,0.557
33.86,32181.8,35335.0,0.705,0.8246,142.2,96.1,0.557
33.88,32127.5,35299.7,0.4942,0.7375,142.2,96.1,0.557
33.9,32048.8,35187.0,0.1883,0.4599,142.2,96.1,0.557
33.92,32024.1,35195.3,0.0924,0.4804,142.2,96.1,0.557
33.94,32007.9,35095.3,0.0293,0.234,142.2,96.1,0.557
33.96,31949.2,34952.3,-0.1988,-0.1182,142.2,96.1,0.557
33.98,31895.8,34785.7,-0.4066,-0.5284,142.2,96.1,0.557
34.0,31739.1,34737.9,-1.0156,-0.6462,142.2,96.1,0.557
34.02,31824.6,34665.1,-0.6833,-0.8257,142.2,96.1,0.557
34.04,31834.0,34576.9,-0.6467,-1.0429,142.2,96.1,0.557
34.06,31780.1,34662.7,-0.8561,-0.8315,142.2,96.1,0.557
34.08,31789.8,34659.6,-0.8182,-0.8392,142.2,96.1,0.557
34.1,31686.1,34503.7,-1.2214,-1.2231,142.2,96.1,0.557
34.12,31765.3,34419.1,-0.9139,-1.4315,142.2,96.1,0.557
34.14,31687.6,34521.7,-1.2157,-1.1789,142.2,96.1,0.557
34.16,31964.4,34829.2,-0.1397,-0.4213,142.2,96.1,0.557
34.18,32180.6,35256.0,0.7005,0.6298,142.2,96.1,0.557
34.2,32359.5,35538.2,1.396,1.325,142.2,96.1,0.557
34.22,32456.0,35786.3,1.7709,1.9362,142.2,96.1,0.557
34.24,32410.1,35761.9,1.5926,1.876,142.2,96.1,0.557
34.26,32251.6,35557.6,0.9766,1.3729,142.2,96.1,0.557
34.28,32245.5,35334.7,0.9528,0.8237,142.2,96.1,0.557
34.3,32125.3,35288.1,0.4855,0.709,142.2,96.1,0.557
34.32,32115.3,35180.7,0.4467,0.4445,142.2,96.1,0.557
34.34,32091.5,35190.8,0.3541,0.4692,142.2,96.1,0.557
34.36,31983.6,35096.7,-0.0653,0.2375,142.2,96.1,0.557
34.38,31946.7,34996.1,-0.2085,-0.0104,142.2,96.1,0.557
34.4,31926.1,34831.3,-0.2888,-0.4161,142.2,96.1,0.557
34.42,31692.1,34774.3,-1.1984,-0.5566,142.2,96.1,0.557
34.44,31868.3,34643.1,-0.5135,-0.8799,142.2,96.1,0.557
34.46,31819.7,34624.8,-0.7021,-0.9248,142.2,96.1,0.557
34.48,31781.2,34571.0,-0.8519,-1.0573,142.2,96.1,0.557
34.5,31821.9,34598.8,-0.6937,-0.9889,142.2,96.1,0.557
34.52,31749.6,34415.3,-0.9746,-1.441,142.2,96.1,0.557
34.54,31714.0,34448.2,-1.1132,-1.3599,142.2,96.1,0.557
34.56,31790.4,34551.2,-0.8161,-1.1062,142.2,96.1,0.557
34.58,31822.5,34869.5,-0.6912,-0.3221,142.2,96.1,0.557
34.6,32055.1,35205.5,0.2129,0.5055,142.2,96.1,0.557
34.62,32272.9,35541.2,1.0592,1.3323,142.2,96.1,0.557
34.64,32313.2,35680.9,1.2161,1.6765,142.2,96.1,0.557
34.66,32367.0,35689.2,1.4249,1.697,142.2,96.1,0.557
34.68,32332.4,35623.1,1.2908,1.5341,142.2,96.1,0.557
34.7,32235.5,35456.9,0.9138,1.1248,142.2,96.1,0.557
34.72,32094.7,35231.7,0.3669,0.5701,142.2,96.1,0.557
34.74,32069.3,35144.4,0.2679,0.355,142.2,96.1,0.557
34.76,32042.6,35092.3,0.1642,0.2267,142.2,96.1,0.557
34.78,32079.6,35041.5,0.3082,0.1016,142.2,96.1,0.557
34.8,31928.2,34941.7,-0.2805,-0.1443,142.2,96.1,0.557
34.82,31900.9,34782.4,-0.3866,-0.5368,142.2,96.1,0.557
34.84,31832.5,34768.4,-0.6525,-0.571,142.2,96.1,0.557
34.86,31779.6,34649.2,-0.858,-0.8648,142.2,96.1,0.557
34.88,31836.7,34647.3,-0.6361,-0.8695,142.2,96.1,0.557
34.9,31825.6,34583.6,-0.6792,-1.0263,142.2,96.1,0.557
34.92,31825.9,34708.2,-0.678,-0.7193,142.2,96.1,0.557
34.94,31744.2,34453.0,-0.9957,-1.3479,142.2,96.1,0.557
34.96,31766.3,34376.3,-0.9096,-1.5369,142.2,96.1,0.557
34.98,31701.4,34524.6,-1.1619,-1.1717,142.2,96.1,0.557
35.0,31993.1,34762.4,-0.0283,-0.5859,142.2,96.1,0.557
35.02,31984.0,35179.5,-0.0637,0.4415,142.2,96.1,0.557
35.04,32143.0,35493.4,0.5542,1.2146,142.2,96.1,0.557
35.06,32309.1,35687.8,1.2001,1.6935,142.2,96.1,0.557
35.08,32389.8,35750.0,1.5135,1.8468,142.2,96.1,0.557
35.1,32310.3,35625.7,1.2047,1.5406,142.2,96.1,0.557
35.12,32333.3,35421.8,1.2943,1.0382,142.2,96.1,0.557
35.14,32212.2,35207.9,0.8234,0.5114,142.2,96.1,0.557
35.16,32041.3,35074.5,0.1591,0.1828,142.2,96.1,0.557
35.18,32074.9,35040.7,0.2898,0.0995,142.2,96.1,0.557
35.2,32035.3,35122.7,0.1359,0.3015,142.2,96.1,0.557
35.22,32050.3,34986.4,0.1942,-0.0341,142.2,96.1,0.557
35.24,31955.6,34862.1,-0.1739,-0.3404,142.2,96.1,0.557
35.26,31854.1,34746.9,-0.5684,-0.6242,142.2,96.1,0.557
35.28,31818.7,34742.4,-0.7062,-0.6352,142.2,96.1,0.557
35.3,31808.9,34633.0,-0.744,-0.9046,142.2,96.1,0.557
35.32,31900.0,34618.7,-0.3901,-0.9398,142.2,96.1,0.557
35.34,31761.5,34558.7,-0.9286,-1.0877,142.2,96.1,0.557
35.36,31710.1,34409.0,-1.1284,-1.4564,142.2,96.1,0.557
35.38,31776.6,34448.4,-0.8696,-1.3593,142.2,96.1,0.557
35.4,31826.7,34628.2,-0.675,-0.9165,142.2,96.1,0.557
35.42,31886.4,34699.6,-0.4429,-0.7407,142.2,96.1,0.557
35.44,32154.4,35070.8,0.5989,0.1736,142.2,96.1,0.557
35.46,32205.5,35422.6,0.7975,1.0402,142.2,96.1,0.557
35.48,32285.6,35666.5,1.1086,1.6411,142.2,96.1,0.557
35.5,32335.1,35729.6,1.301,1.7966,142.2,96.1,0.557
35.52,32372.3,35707.3,1.4457,1.7416,142.2,96.1,0.557
35.54,32277.3,35377.7,1.0766,0.9298,142.2,96.1,0.557
35.56,32065.6,35335.4,0.2537,0.8255,142.2,96.1,0.557
35.58,31941.7,35182.9,-0.2282,0.4499,142.2,96.1,0.557
35.6,32057.3,35059.1,0.2214,0.1449,142.2,96.1,0.557
35.62,32058.0,35027.0,0.224,0.0658,142.2,96.1,0.557
35.64,31841.5,35006.9,-0.6176,0.0163,142.2,96.1,0.557
35.66,31928.1,34907.2,-0.2809,-0.2294,142.2,96.1,0.557
35.68,31947.3,34827.0,-0.2062,-0.4267,142.2,96.1,0.557
35.7,31796.7,34663.2,-0.7917,-0.8302,142.2,96.1,0.557
35.72,31873.2,34681.8,-0.4943,-0.7846,142.2,96.1,0.557
35.74,31805.6,34732.2,-0.7572,-0.6602,142.2,96.1,0.557
35.76,31770.8,34626.4,-0.8925,-0.921,142.2,96.1,0.557
35.78,31653.9,34467.4,-1.3468,-1.3126,142.2,96.1,0.557
35.8,31626.0,34425.3,-1.455,-1.4162,142.2,96.1,0.557
35.82,31782.9,34572.7,-0.8454,-1.0533,142.2,96.1,0.557
35.84,31785.4,34688.1,-0.8355,-0.7689,142.2,96.1,0.557
35.86,32046.9,35037.9,0.1809,0.0926,142.2,96.1,0.557
35.88,32178.3,35418.2,0.6918,1.0295,142.2,96.1,0.557
35.9,32323.9,35692.4,1.2575,1.7048,142.2,96.1,0.557
35.92,32235.1,35799.6,0.9125,1.9689,142.2,96.1,0.557
35.94,32303.1,35678.3,1.1767,1.67,142.2,96.1,0.557
35.96,32247.2,35454.6,0.9594,1.1191,142.2,96.1,0.557
35.98,32194.9,35280.0,0.7561,0.689,142.2,96.1,0.557
36.0,32135.9,35237.1,0.5269,0.5834,142.2,96.1,0.557
36.02,32039.9,35083.5,0.1538,0.2051,142.2,96.1,0.557
36.04,31981.8,34974.3,-0.0722,-0.0641,142.2,96.1,0.557
36.06,31952.2,34928.4,-0.1874,-0.1769,142.2,96.1,0.557
36.08,31943.1,34888.3,-0.2225,-0.2759,142.2,96.1,0.557
36.1,31937.6,34722.6,-0.244,-0.684,142.2,96.1,0.557
36.12,31834.2,34640.7,-0.6458,-0.8856,142.2,96.1,0.557
36.14,31753.1,34764.6,-0.961,-0.5806,142.2,96.1,0.557
36.16,31858.4,34691.9,-0.5519,-0.7595,142.2,96.1,0.557
36.18,31877.6,34639.0,-0.477,-0.89,142.2,96.1,0.557
36.2,31766.9,34457.2,-0.9076,-1.3376,142.2,96.1,0.557
36.22,31756.4,34495.4,-0.9481,-1.2436,142.2,96.1,0.557
36.24,31721.4,34547.3,-1.0843,-1.1156,142.2,96.1,0.557
36.26,31811.3,34639.1,-0.735,-0.8895,142.2,96.1,0.557
36.28,31967.1,34992.5,-0.1294,-0.0191,142.2,96.1,0.557
36.3,32265.5,35412.6,1.0306,1.0157,142.2,96.1,0.557
36.32,32328.6,35662.5,1.2757,1.6312,142.2,96.1,0.557
36.34,32379.1,35793.4,1.4722,1.9537,142.2,96.1,0.557
36.36,32415.2,35599.2,1.6123,1.4754,142.2,96.1,0.557
36.38,32231.3,35528.3,0.8977,1.3006,142.2,96.1,0.557
36.4,32048.0,35268.7,0.1851,0.6612,142.2,96.1,0.557
36.42,32118.6,35198.9,0.4597,0.4893,142.2,96.1,0.557
36.44,31987.6,35067.9,-0.0495,0.1666,142.2,96.1,0.557
36.46,32035.3,34980.6,0.1358,-0.0485,142.2,96.1,0.557
36.48,32033.5,35009.0,0.1289,0.0216,142.2,96.1,0.557
36.5,31989.7,34953.2,-0.0413,-0.1159,142.2,96.1,0.557
36.52,31870.0,34726.9,-0.5066,-0.6733,142.2,96.1,0.557
36.54,31862.6,34750.2,-0.5356,-0.6159,142.2,96.1,0.557
36.56,31897.3,34753.2,-0.4004,-0.6087,142.2,96.1,0.557
36.58,31937.5,34655.3,-0.2442,-0.8498,142.2,96.1,0.557
36.6,31804.3,34633.8,-0.762,-0.9026,142.2,96.1,0.557
36.62,31761.4,34513.5,-0.9287,-1.1989,142.2,96.1,0.557
36.64,31635.2,34387.3,-1.4194,-1.5099,142.2,96.1,0.557
36.66,31716.3,34461.8,-1.1039,-1.3265,142.2,96.1,0.557
36.68,31901.4,34587.0,-0.3846,-1.0179,142.2,96.1,0.557
36.7,31932.7,34958.0,-0.2631,-0.1041,142.2,96.1,0.557
36.72,32137.1,35330.1,0.5314,0.8124,142.2,96.1,0.557
36.74,32302.0,35584.0,1.1725,1.4377,142.2,96.1,0.557
36.76,32430.3,35760.3,1.6712,1.8721,142.2,96.1,0.557
36.78,32332.3,35656.8,1.2904,1.617,142.2,96.1,0.557
36.8,32169.4,35501.5,0.657,1.2346,142.2,96.1,0.557
36.82,32132.4,35346.3,0.5134,0.8524,142.2,96.1,0.557
36.84,32102.6,35227.0,0.3975,0.5586,142.2,96.1,0.557
36.86,32075.8,35058.3,0.2931,0.1428,142.2,96.1,0.557
36.88,31997.8,35026.9,-0.0098,0.0657,142.2,96.1,0.557
36.9,32045.2,34927.4,0.1743,-0.1794,142.2,96.1,0.557
36.92,31937.0,34930.1,-0.2461,-0.1728,142.2,96.1,0.557
36.94,31933.9,34757.3,-0.2584,-0.5986,142.2,96.1,0.557
36.96,31802.4,34650.0,-0.7695,-0.8627,142.2,96.1,0.557
36.98,31897.3,34654.2,-0.4007,-0.8524,142.2,96.1,0.557
37.0,31788.4,34771.6,-0.824,-0.5633,142.2,96.1,0.557
37.02,31794.1,34660.5,-0.8017,-0.8369,142.2,96.1,0.557
37.04,31813.9,34583.0,-0.7248,-1.0278,142.2,96.1,0.557
37.06,31664.5,34405.2,-1.3053,-1.4659,142.2,96.1,0.557
37.08,31815.3,34507.3,-0.7194,-1.2143,142.2,96.1,0.557
37.1,31756.1,34563.9,-0.9493,-1.0749,142.2,96.1,0.557
37.12,31903.9,35021.9,-0.3751,0.0533,142.2,96.1,0.557
37.14,32144.8,35255.8,0.5614,0.6294,142.2,96.1,0.557
37.16,32213.0,35597.6,0.8265,1.4713,142.2,96.1,0.557
37.18,32328.8,35831.1,1.2768,2.0465,142.2,96.1,0.557
37.2,32332.7,35687.5,1.2918,1.6928,142.2,96.1,0.557
37.22,32298.4,35558.3,1.1585,1.3746,142.2,96.1,0.557
37.24,32147.7,35310.4,0.5728,0.7639,142.2,96.1,0.557
37.26,32144.7,35190.0,0.561,0.4673,142.2,96.1,0.557
37.28,32010.5,35107.1,0.0394,0.2631,142.2,96.1,0.557
37.3,32084.8,35034.6,0.3283,0.0846,142.2,96.1,0.557
37.32,31942.5,34997.4,-0.225,-0.0072,142.2,96.1,0.557
37.34,31941.0,34866.6,-0.2309,-0.3293,142.2,96.1,0.557
37.36,31852.3,34671.1,-0.5757,-0.8107,142.2,96.1,0.557
37.38,31828.1,34748.2,-0.6694,-0.6209,142.2,96.1,0.557
37.4,31925.1,34702.1,-0.2926,-0.7344,142.2,96.1,0.557
37.42,31849.5,34683.4,-0.5865,-0.7805,142.2,96.1,0.557
37.44,31808.7,34619.4,-0.7449,-0.9381,142.2,96.1,0.557
37.46,31737.7,34582.8,-1.021,-1.0283,142.2,96.1,0.557
37.48,31725.1,34462.7,-1.0699,-1.3241,142.2,96.1,0.557
37.5,31765.2,34518.7,-0.914,-1.1863,142.2,96.1,0.557
37.52,31772.6,34675.8,-0.8855,-0.7993,142.2,96.1,0.557
37.54,31926.6,34973.9,-0.2868,-0.0651,142.2,96.1,0.557
37.56,32176.7,35250.9,0.6853,0.6174,142.2,96.1,0.557
37.58,32290.6,35565.3,1.1282,1.3917,142.2,96.1,0.557
37.6,32293.9,35794.4,1.1408,1.956,142.2,96.1,0.557
37.62,32323.2,35683.3,1.2548,1.6824,142.2,96.1,0.557
37.64,32276.5,35590.2,1.0734,1.4531,142.2,96.1,0.557
37.66,32178.5,35374.8,0.6922,0.9226,142.2,96.1,0.557
37.68,32056.6,35245.9,0.2188,0.605,142.2,96.1,0.557
37.7,32094.9,35109.9,0.3675,0.27,142.2,96.1,0.557
37.72,32042.6,34975.3,0.1644,-0.0615,142.2,96.1,0.557
37.74,32031.4,34967.7,0.1206,-0.0802,142.2,96.1,0.557
37.76,31967.7,34943.4,-0.127,-0.14,142.2,96.1,0.557
37.78,31869.6,34773.5,-0.5083,-0.5585,142.2,96.1,0.557
37.8,31894.0,34636.5,-0.4134,-0.896,142.2,96.1,0.557
37.82,31850.2,34653.4,-0.5835,-0.8544,142.2,96.1,0.557
37.84,31800.7,34721.6,-0.776,-0.6865,142.2,96.1,0.557
37.86,31715.9,34657.2,-1.1057,-0.8451,142.2,96.1,0.557
37.88,31766.5,34579.5,-0.9092,-1.0364,142.2,96.1,0.557
37.9,31692.6,34501.1,-1.1961,-1.2296,142.2,96.1,0.557
37.92,31774.7,34428.0,-0.877,-1.4095,142.2,96.1,0.557
37.94,31796.9,34532.2,-0.7908,-1.1529,142.2,96.1,0.557
37.96,32065.3,34953.4,0.2525,-0.1155,142.2,96.1,0.557
37.98,32096.8,35148.7,0.3749,0.3656,142.2,96.1,0.557
38.0,32312.9,35598.0,1.2149,1.4723,142.2,96.1,0.557
38.02,32391.3,35730.8,1.5195,1.7995,142.2,96.1,0.557
38.04,32408.3,35761.9,1.5854,1.876,142.2,96.1,0.557
38.06,32283.8,35559.3,1.1019,1.3771,142.2,96.1,0.557
38.08,32194.7,35288.4,0.7553,0.7097,142.2,96.1,0.557
38.1,32084.6,35206.3,0.3273,0.5076,142.2,96.1,0.557
38.12,32077.9,35183.1,0.3014,0.4503,142.2,96.1,0.557
38.14,31990.3,35010.9,-0.0391,0.0262,142.2,96.1,0.557
38.16,32028.9,35059.1,0.1109,0.145,142.2,96.1,0.557
38.18,31864.1,34850.5,-0.5296,-0.3689,142.2,96.1,0.557
38.2,31856.3,34872.8,-0.56,-0.3141,142.2,96.1,0.557
38.22,31863.8,34753.8,-0.5306,-0.6071,142.2,96.1,0.557
38.24,31911.4,34712.3,-0.3459,-0.7093,142.2,96.1,0.557
38.26,31815.8,34774.9,-0.7173,-0.5551,142.2,96.1,0.557
38.28,31795.5,34629.0,-0.7965,-0.9146,142.2,96.1,0.557
38.3,31781.3,34547.5,-0.8515,-1.1154,142.2,96.1,0.557
38.32,31747.5,34496.2,-0.9827,-1.2417,142.2,96.1,0.557
38.34,31771.1,34458.7,-0.8911,-1.3339,142.2,96.1,0.557
38.36,31891.9,34634.7,-0.4216,-0.9004,142.2,96.1,0.557
38.38,31895.9,34822.1,-0.4061,-0.4389,142.2,96.1,0.557
38.4,32098.1,35195.5,0.38,0.481,142.2,96.1,0.557
38.42,32315.1,35483.9,1.2232,1.1913,142.2,96.1,0.557
38.44,32357.3,35776.4,1.3875,1.9118,142.2,96.1,0.557
38.46,32438.9,35761.0,1.7046,1.8737,142.2,96.1,0.557
38.48,32284.3,35558.4,1.1038,1.3747,142.2,96.1,0.557
38.5,32174.8,35393.5,0.6779,0.9687,142.2,96.1,0.557
38.52,32119.8,35179.3,0.4643,0.4411,142.2,96.1,0.557
38.54,32105.3,35121.8,0.408,0.2993,142.2,96.1,0.557
38.56,32074.2,35084.4,0.2869,0.2073,142.2,96.1,0.557
38.58,31959.9,35115.5,-0.1572,0.2838,142.2,96.1,0.557
38.6,31974.7,34925.4,-0.0998,-0.1844,142.2,96.1,0.557
38.62,31866.3,34851.0,-0.5212,-0.3678,142.2,96.1,0.557
38.64,31848.8,34766.8,-0.5893,-0.575,142.2,96.1,0.557
38.66,31668.1,34681.3,-1.2915,-0.7857,142.2,96.1,0.557
38.68,31899.1,34564.5,-0.3936,-1.0734,142.2,96.1,0.557
38.7,31835.4,34570.2,-0.641,-1.0594,142.2,96.1,0.557
38.72,31731.7,34549.0,-1.0443,-1.1116,142.2,96.1,0.557
38.74,31747.0,34427.1,-0.9846,-1.4118,142.2,96.1,0.557
38.76,31700.5,34454.3,-1.1656,-1.3448,142.2,96.1,0.557
38.78,31748.4,34564.0,-0.9795,-1.0747,142.2,96.1,0.557
38.8,31884.0,34755.7,-0.4522,-0.6024,142.2,96.1,0.557
38.82,32047.3,35202.6,0.1824,0.4983,142.2,96.1,0.557
38.84,32239.5,35582.0,0.9295,1.433,142.2,96.1,0.557
38.86,32342.7,35713.2,1.3305,1.7561,142.2,96.1,0.557
38.88,32419.1,35658.1,1.6276,1.6203,142.2,96.1,0.557
38.9,32369.9,35594.9,1.4362,1.4646,142.2,96.1,0.557
38.92,32235.8,35447.9,0.915,1.1027,142.2,96.1,0.557
38.94,32047.4,35186.0,0.183,0.4574,142.2,96.1,0.557
38.96,32011.6,35178.1,0.0437,0.4381,142.2,96.1,0.557
38.98,32123.2,35133.1,0.4773,0.3273,142.2,96.1,0.557
39.0,31998.4,35002.4,-0.0077,0.0052,142.2,96.1,0.557
39.02,32009.9,34922.4,0.0372,-0.1917,142.2,96.1,0.557
39.04,31985.7,34779.7,-0.0572,-0.5434,142.2,96.1,0.557
39.06,31897.2,34736.5,-0.401,-0.6497,142.2,96.1,0.557
39.08,31845.6,34659.8,-0.6014,-0.8387,142.2,96.1,0.557
39.1,31795.0,34564.3,-0.7981,-1.074,142.2,96.1,0.557
39.12,31782.0,34631.7,-0.8487,-0.908,142.2,96.1,0.557
39.14,31827.9,34615.7,-0.6702,-0.9474,142.2,96.1,0.557
39.16,31810.1,34551.7,-0.7394,-1.1048,142.2,96.1,0.557
39.18,31723.4,34416.6,-1.0765,-1.4377,142.2,96.1,0.557
39.2,31775.1,34464.0,-0.8755,-1.321,142.2,96.1,0.557
39.22,31903.6,34818.0,-0.3761,-0.449,142.2,96.1,0.557
39.24,32041.2,35143.8,0.1587,0.3535,142.2,96.1,0.557
39.26,32331.9,35489.0,1.2886,1.2038,142.2,96.1,0.557
39.28,32311.6,35719.7,1.2098,1.772,142.2,96.1,0.557
39.3,32338.4,35739.5,1.3141,1.8208,142.2,96.1,0.557
39.32,32378.3,35682.1,1.469,1.6794,142.2,96.1,0.557
39.34,32220.1,35392.6,0.8541,0.9664,142.2,96.1,0.557
39.36,32179.2,35265.0,0.6951,0.6519,142.2,96.1,0.557
39.38,32129.8,35242.7,0.5029,0.597,142.2,96.1,0.557
39.4,32093.5,35114.8,0.3619,0.2822,142.2,96.1,0.557
39.42,32039.1,35099.9,0.1507,0.2454,142.2,96.1,0.557
39.44,31956.2,34954.5,-0.1717,-0.1128,142.2,96.1,0.557
39.46,31837.2,34791.0,-0.6343,-0.5155,142.2,96.1,0.557
39.48,31944.8,34697.0,-0.2161,-0.7469,142.2,96.1,0.557
39.5,31843.6,34716.7,-0.6091,-0.6984,142.2,96.1,0.557
39.52,31883.6,34701.9,-0.454,-0.7349,142.2,96.1,0.557
39.54,31892.1,34605.3,-0.4209,-0.9729,142.2,96.1,0.557
39.56,31761.5,34625.7,-0.9283,-0.9226,142.2,96.1,0.557
39.58,31763.1,34510.4,-0.9221,-1.2066,142.2,96.1,0.557
39.6,31723.9,34468.0,-1.0745,-1.311,142.2,96.1,0.557
39.62,31788.0,34492.8,-0.8256,-1.25,142.2,96.1,0.557
39.64,31903.4,34717.5,-0.3768,-0.6964,142.2,96.1,0.557
39.66,32024.2,35105.8,0.0925,0.26,142.2,96.1,0.557
39.68,32223.8,35554.9,0.8686,1.3661,142.2,96.1,0.557
39.7,32372.7,35669.3,1.4471,1.648,142.2,96.1,0.557
39.72,32358.6,35763.1,1.3923,1.8791,142.2,96.1,0.557
39.74,32286.1,35606.6,1.1108,1.4934,142.2,96.1,0.557
39.76,32234.3,35467.0,0.9094,1.1496,142.2,96.1,0.557
39.78,32178.3,35352.3,0.6916,0.8672,142.2,96.1,0.557
39.8,32118.8,35249.5,0.4605,0.614,142.2,96.1,0.557
39.82,32073.9,35139.1,0.2859,0.3419,142.2,96.1,0.557
39.84,32086.7,35009.8,0.3355,0.0235,142.2,96.1,0.557
39.86,31934.5,34988.3,-0.256,-0.0296,142.2,96.1,0.557
39.88,31896.5,34831.7,-0.4036,-0.4153,142.2,96.1,0.557
39.9,31889.9,34786.9,-0.4294,-0.5257,142.2,96.1,0.557
39.92,31880.7,34688.8,-0.4652,-0.7671,142.2,96.1,0.557
39.94,31851.5,34666.4,-0.5788,-0.8223,142.2,96.1,0.557
39.96,31874.1,34734.6,-0.4907,-0.6544,142.2,96.1,0.557
39.98,31869.4,34609.9,-0.5092,-0.9616,142.2,96.1,0.557
40.0,31777.5,34481.1,-0.8663,-1.2787,142.2,96.1,0.557
40.02,31801.9,34467.1,-0.7712,-1.3132,142.2,96.1,0.557
40.04,31783.5,34528.0,-0.8428,-1.1633,142.2,96.1,0.558
40.06,31854.9,34664.1,-0.5653,-0.8282,142.1,96.0,0.558
40.08,32002.2,35126.9,0.0073,0.3118,142.1,96.0,0.559
40.1,32123.2,35344.0,0.4773,0.8467,142.1,96.0,0.559
40.12,32339.4,35635.9,1.3178,1.5656,142.1,96.0,0.56
40.14,32362.4,35747.0,1.4073,1.8393,142.1,96.0,0.56
40.16,32386.3,35647.1,1.5002,1.5933,142.0,96.0,0.561
40.18,32302.8,35516.3,1.1755,1.271,142.0,96.0,0.561
40.2,32139.3,35288.3,0.54,0.7094,142.0,96.0,0.562
40.22,32031.3,35048.7,0.1201,0.1194,142.0,95.9,0.562
40.24,32140.3,35164.9,0.5441,0.4056,142.0,95.9,0.563
40.26,32069.5,35034.9,0.2685,0.0853,141.9,95.9,0.563
40.28,31868.8,34955.9,-0.5114,-0.1093,141.9,95.9,0.564
40.3,31984.1,34815.3,-0.0634,-0.4557,141.9,95.9,0.564
40.32,31947.2,34768.3,-0.2067,-0.5714,141.9,95.9,0.565
40.34,31861.7,34739.2,-0.5391,-0.6431,141.9,95.9,0.565
40.36,31855.4,34730.0,-0.5635,-0.6657,141.8,95.9,0.566
40.38,31847.5,34672.4,-0.5943,-0.8076,141.8,95.8,0.566
40.4,31879.6,34572.7,-0.4693,-1.0532,141.8,95.8,0.567
40.42,31826.5,34471.7,-0.6759,-1.3021,141.8,95.8,0.567
40.44,31799.3,34393.4,-0.7814,-1.4947,141.8,95.8,0.568
40.46,31744.7,34411.8,-0.9938,-1.4494,141.7,95.8,0.568
40.48,31855.9,34725.8,-0.5616,-0.676,141.7,95.8,0.569
40.5,31983.6,35027.0,-0.0652,0.0657,141.7,95.8,0.569
40.52,32185.1,35385.3,0.7182,0.9483,141.7,95.8,0.57
40.54,32392.9,35752.0,1.5256,1.8517,141.7,95.7,0.57
40.56,32374.7,35735.5,1.4549,1.811,141.6,95.7,0.571
40.58,32313.3,35706.4,1.2164,1.7393,141.6,95.7,0.571
40.6,32256.7,35522.5,0.9965,1.2863,141.6,95.7,0.572
40.62,32162.5,35361.9,0.6303,0.8907,141.6,95.7,0.572
40.64,32082.9,35216.8,0.3207,0.5335,141.6,95.7,0.573
40.66,32069.3,35153.1,0.2681,0.3763,141.5,95.7,0.573
40.68,32103.2,35084.1,0.3999,0.2066,141.5,95.7,0.574
40.7,31973.9,35042.0,-0.1028,0.1029,141.5,95.6,0.574
40.72,31962.1,34936.4,-0.1487,-0.1573,141.5,95.6,0.575
40.74,31926.8,34710.0,-0.2858,-0.7151,141.5,95.6,0.576
40.76,31820.1,34681.3,-0.7005,-0.7858,141.4,95.6,0.576
40.78,31729.6,34713.2,-1.0525,-0.707,141.4,95.6,0.577
40.8,31892.9,34719.7,-0.4178,-0.691,141.4,95.6,0.577
40.82,31762.9,34622.9,-0.923,-0.9296,141.4,95.6,0.578
40.84,31737.1,34504.2,-1.0234,-1.222,141.4,95.5,0.578
40.86,31629.0,34481.7,-1.4436,-1.2774,141.3,95.5,0.579
40.88,31767.5,34412.2,-0.9051,-1.4485,141.3,95.5,0.579
40.9,31855.2,34584.3,-0.5644,-1.0246,141.3,95.5,0.58
40.92,31982.4,34947.1,-0.0698,-0.1309,141.3,95.5,0.58
40.94,32192.2,35411.9,0.7458,1.014,141.3,95.5,0.581
40.96,32310.9,35744.3,1.2071,1.8327,141.2,95.5,0.581
40.98,32438.4,35681.9,1.7026,1.679,141.2,95.5,0.582
41.0,32352.3,35824.2,1.368,2.0296,141.2,95.4,0.582
41.02,32274.2,35641.8,1.0645,1.5802,141.2,95.4,0.583
41.04,32192.0,35348.2,0.745,0.857,141.2,95.4,0.583
41.06,32037.2,35228.4,0.1431,0.562,141.1,95.4,0.584
41.08,32076.6,35110.3,0.2964,0.2711,141.1,95.4,0.584
41.1,32062.0,35078.8,0.2395,0.1935,141.1,95.4,0.585
41.12,31979.7,35025.4,-0.0803,0.0618,141.1,95.4,0.585
41.14,31917.7,34905.2,-0.3215,-0.2342,141.1,95.4,0.586
41.16,31978.4,34759.9,-0.0855,-0.5921,141.0,95.3,0.586
41.18,31941.4,34737.1,-0.2293,-0.6482,141.0,95.3,0.587
41.2,31932.2,34598.8,-0.2651,-0.989,141.0,95.3,0.587
41.22,31844.7,34638.6,-0.6051,-0.8909,141.0,95.3,0.588
41.24,31707.6,34691.2,-1.138,-0.7612,141.0,95.3,0.588
41.26,31750.2,34501.2,-0.9725,-1.2294,140.9,95.3,0.589
41.28,31767.0,34535.1,-0.907,-1.1459,140.9,95.3,0.589
41.3,31688.7,34495.5,-1.2115,-1.2434,140.9,95.3,0.59
41.32,31772.0,34590.9,-0.8876,-1.0084,140.9,95.2,0.59
41.34,31985.8,34766.2,-0.0568,-0.5767,140.9,95.2,0.591
41.36,32081.2,35254.3,0.3142,0.6257,140.8,95.2,0.591
41.38,32328.4,35600.9,1.2752,1.4794,140.8,95.2,0.592
41.4,32356.1,35692.8,1.3828,1.7059,140.8,95.2,0.592
41.42,32500.5,35693.8,1.9439,1.7082,140.8,95.2,0.593
41.44,32287.1,35551.1,1.1146,1.3568,140.8,95.2,0.593
41.46,32153.6,35384.3,0.5958,0.946,140.7,95.2,0.594
41.48,32120.8,35212.0,0.4681,0.5216,140.7,95.1,0.594
41.5,32055.2,35153.6,0.2132,0.3776,140.7,95.1,0.595
41.52,32067.0,35112.8,0.2591,0.2771,140.7,95.1,0.595
41.54,31982.1,34926.6,-0.0708,-0.1815,140.7,95.1,0.596
41.56,31900.7,34889.1,-0.3876,-0.2739,140.6,95.1,0.596
41.58,31829.3,34793.7,-0.6649,-0.5088,140.6,95.1,0.597
41.6,31881.3,34777.4,-0.4626,-0.549,140.6,95.1,0.597
41.62,31853.8,34648.0,-0.5696,-0.8678,140.6,95.1,0.598
41.64,31868.1,34684.8,-0.514,-0.777,140.6,95.0,0.598
41.66,31761.6,34597.1,-0.9279,-0.9932,140.5,95.0,0.599
41.68,31784.2,34566.3,-0.8401,-1.069,140.5,95.0,0.599
41.7,31698.8,34444.2,-1.1723,-1.3698,140.5,95.0,0.6
41.72,31674.5,34457.4,-1.2668,-1.3372,140.5,95.0,0.6
41.74,31794.3,34512.5,-0.8009,-1.2014,140.5,95.0,0.601
41.76,31870.7,34715.6,-0.5039,-0.7012,140.4,95.0,0.601
41.78,32085.4,34973.0,0.3305,-0.0673,140.4,95.0,0.602
41.8,32220.6,35401.5,0.8562,0.9884,140.4,94.9,0.602
41.82,32357.3,35648.2,1.3875,1.596,140.4,94.9,0.603
41.84,32453.1,35802.6,1.7599,1.9762,140.4,94.9,0.604
41.86,32240.6,35639.8,0.9338,1.5753,140.3,94.9,0.604
41.88,32260.6,35465.5,1.0116,1.1458,140.3,94.9,0.605
41.9,32152.9,35225.5,0.5929,0.5547,140.3,94.9,0.605
41.92,32132.2,35153.1,0.5126,0.3764,140.3,94.9,0.606
41.94,31998.9,35221.2,-0.0057,0.5442,140.3,94.8,0.606
41.96,31973.8,35007.1,-0.1032,0.0168,140.2,94.8,0.607
41.98,31932.2,35067.1,-0.265,0.1646,140.2,94.8,0.607
42.0,32013.1,34904.8,0.0493,-0.2353,140.2,94.8,0.608
42.02,31872.1,34793.1,-0.4984,-0.5102,140.2,94.8,0.608
42.04,31894.8,34713.5,-0.4104,-0.7063,140.2,94.8,0.609
42.06,31748.8,34595.0,-0.9778,-0.9983,140.1,94.8,0.609
42.08,31788.7,34683.0,-0.8228,-0.7815,140.1,94.8,0.61
42.1,31819.1,34654.4,-0.7044,-0.8518,140.1,94.7,0.61
42.12,31783.3,34466.4,-0.8437,-1.3151,140.1,94.7,0.611
42.14,31666.3,34526.4,-1.2986,-1.1671,140.1,94.7,0.611
42.16,31655.9,34437.5,-1.3387,-1.3863,140.0,94.7,0.612
42.18,31865.5,34681.7,-0.5242,-0.7847,140.0,94.7,0.612
42.2,31969.3,34924.4,-0.1209,-0.1869,140.0,94.7,0.613
42.22,32109.6,35304.7,0.4248,0.7499,140.0,94.7,0.613
42.24,32401.7,35638.3,1.5598,1.5715,140.0,94.7,0.614
42.26,32418.9,35766.2,1.6266,1.8867,139.9,94.6,0.614
42.28,32454.9,35724.2,1.7668,1.7831,139.9,94.6,0.615
42.3,32280.8,35533.7,1.0899,1.3139,139.9,94.6,0.615
42.32,32141.8,35359.4,0.5499,0.8845,139.9,94.6,0.616
42.34,32028.7,35231.4,0.1102,0.5693,139.9,94.6,0.616
42.36,32196.7,35151.4,0.7633,0.3722,139.8,94.6,0.617
42.38,32090.1,35061.5,0.3487,0.1509,139.8,94.6,0.617
42.4,32039.5,34984.8,0.1521,-0.0381,139.8,94.6,0.618
42.42,31938.7,34961.6,-0.2397,-0.0953,139.8,94.5,0.618
42.44,31903.0,34810.0,-0.3783,-0.4686,139.8,94.5,0.619
42.46,31751.8,34644.2,-0.966,-0.877,139.7,94.5,0.619
42.48,31741.8,34667.5,-1.005,-0.8197,139.7,94.5,0.62
42.5,31793.3,34742.3,-0.8048,-0.6354,139.7,94.5,0.62
42.52,31727.7,34653.9,-1.0596,-0.8532,139.7,94.5,0.621
42.54,31743.8,34655.2,-0.9973,-0.85,139.7,94.5,0.621
42.56,31739.2,34495.0,-1.0152,-1.2446,139.6,94.5,0.622
42.58,31740.6,34414.7,-1.0099,-1.4425,139.6,94.4,0.622
42.6,31736.6,34423.8,-1.0253,-1.42,139.6,94.4,0.623
42.62,31852.5,34689.2,-0.5747,-0.7662,139.6,94.4,0.623
42.64,32072.3,35146.8,0.2795,0.361,139.6,94.4,0.624
42.66,32311.6,35401.7,1.2097,0.9889,139.5,94.4,0.624
42.68,32377.0,35737.2,1.4638,1.8152,139.5,94.4,0.625
42.7,32480.6,35804.1,1.8667,1.9799,139.5,94.4,0.625
42.72,32341.9,35605.0,1.3274,1.4895,139.5,94.4,0.626
42.74,32331.8,35463.4,1.2881,1.1407,139.5,94.3,0.626
42.76,32200.2,35336.2,0.7766,0.8274,139.4,94.3,0.627
42.78,32092.7,35150.0,0.3591,0.3687,139.4,94.3,0.627
42.8,32025.6,35128.6,0.0982,0.316,139.4,94.3,0.628
42.82,32045.8,35088.6,0.1766,0.2176,139.4,94.3,0.628
42.84,31954.6,34938.1,-0.1777,-0.1532,139.4,94.3,0.629
42.86,32020.4,34898.2,0.0779,-0.2513,139.3,94.3,0.629
42.88,31796.3,34800.8,-0.7932,-0.4914,139.3,94.3,0.63
42.9,31827.5,34666.9,-0.6719,-0.8212,139.3,94.2,0.63
42.92,31858.1,34714.1,-0.553,-0.7049,139.3,94.2,0.631
42.94,31837.7,34660.5,-0.6324,-0.837,139.3,94.2,0.632
42.96,31778.9,34628.1,-0.8607,-0.9168,139.2,94.2,0.632
42.98,31765.5,34592.3,-0.9127,-1.0048,139.2,94.2,0.633
43.0,31666.0,34475.4,-1.2997,-1.2929,139.2,94.2,0.633
43.02,31743.8,34412.3,-0.9972,-1.4482,139.2,94.2,0.634
43.04,31744.9,34713.8,-0.9931,-0.7057,139.2,94.1,0.634
43.06,31939.0,34840.6,-0.2384,-0.3933,139.1,94.1,0.635
43.08,32245.5,35268.0,0.9529,0.6595,139.1,94.1,0.635
43.1,32232.0,35621.8,0.9005,1.531,139.1,94.1,0.636
43.12,32451.3,35683.5,1.7528,1.683,139.1,94.1,0.636
43.14,32454.9,35710.4,1.7667,1.7492,139.1,94.1,0.637
43.16,32304.0,35606.5,1.1804,1.4933,139.0,94.1,0.637
43.18,32164.8,35475.1,0.6391,1.1697,139.0,94.1,0.638
43.2,32137.8,35195.5,0.5343,0.481,139.0,94.0,0.638
43.22,32070.5,35170.8,0.2726,0.4201,139.0,94.0,0.639
43.24,32027.1,35124.9,0.1041,0.307,139.0,94.0,0.639
43.26,32003.2,35068.2,0.0112,0.1674,138.9,94.0,0.64
43.28,31926.9,34963.0,-0.2854,-0.0918,138.9,94.0,0.64
43.3,31804.0,34701.6,-0.7631,-0.7356,138.9,94.0,0.641
43.32,31852.7,34668.4,-0.5738,-0.8176,138.9,94.0,0.641
43.34,31767.8,34676.3,-0.9039,-0.7979,138.9,94.0,0.642
43.36,31879.9,34764.3,-0.4681,-0.5812,138.8,93.9,0.642
43.38,31832.3,34631.6,-0.6531,-0.908,138.8,93.9,0.643
43.4,31805.0,34596.9,-0.7595,-0.9935,138.8,93.9,0.643
43.42,31731.3,34442.5,-1.0457,-1.3739,138.8,93.9,0.644
43.44,31673.3,34468.6,-1.2713,-1.3095,138.8,93.9,0.644
43.46,31672.3,34551.6,-1.2752,-1.1052,138.7,93.9,0.645
43.48,31930.5,34790.7,-0.2717,-0.5162,138.7,93.9,0.645
43.5,32099.2,35048.2,0.3843,0.1181,138.7,93.9,0.646
43.52,32295.7,35445.1,1.1478,1.0957,138.7,93.8,0.646
43.54,32404.7,35677.2,1.5716,1.6673,138.7,93.8,0.647
43.56,32488.3,35737.9,1.8967,1.8169,138.6,93.8,0.647
43.58,32323.3,35706.6,1.2552,1.7397,138.6,93.8,0.648
43.6,32287.5,35535.3,1.1161,1.3177,138.6,93.8,0.648
43.62,32218.7,35358.6,0.8486,0.8825,138.6,93.8,0.649
43.64,32087.0,35220.3,0.3368,0.5419,138.6,93.8,0.649
43.66,31995.0,35062.7,-0.0209,0.1538,138.5,93.8,0.65
43.68,31993.4,34998.5,-0.027,-0.0043,138.5,93.7,0.65
43.7,31944.4,35000.0,-0.2176,-0.0008,138.5,93.7,0.651
43.72,31912.1,35003.3,-0.3431,0.0074,138.5,93.7,0.651
43.74,31917.4,34729.0,-0.3226,-0.6681,138.5,93.7,0.652
43.76,31802.9,34723.8,-0.7675,-0.6811,138.4,93.7,0.652
43.78,31813.8,34723.3,-0.7252,-0.6822,138.4,93.7,0.653
43.8,31873.9,34514.5,-0.4914,-1.1965,138.4,93.7,0.653
43.82,31741.5,34617.3,-1.0064,-0.9434,138.4,93.7,0.654
43.84,31738.0,34491.8,-1.0199,-1.2525,138.4,93.6,0.654
43.86,31673.2,34510.4,-1.2715,-1.2066,138.3,93.6,0.655
43.88,31707.8,34481.7,-1.1371,-1.2774,138.3,93.6,0.655
43.9,31728.4,34613.8,-1.0569,-0.952,138.3,93.6,0.656
43.92,31869.6,34929.6,-0.5083,-0.1742,138.3,93.6,0.656
43.94,32104.2,35199.0,0.4035,0.4896,138.3,93.6,0.657
43.96,32305.3,35556.2,1.1853,1.3694,138.2,93.6,0.657
43.98,32434.5,35611.8,1.6873,1.5063,138.2,93.6,0.658
44.0,32455.7,35713.9,1.7697,1.7578,138.2,93.5,0.658
44.02,32353.3,35669.0,1.372,1.6473,138.2,93.5,0.659
44.04,32270.1,35390.4,1.0486,0.961,138.2,93.5,0.66
44.06,32099.4,35262.3,0.3849,0.6454,138.1,93.5,0.66
44.08,32108.7,35117.5,0.4212,0.2887,138.1,93.5,0.661
44.1,31975.8,35033.4,-0.0953,0.0817,138.1,93.5,0.661
44.12,32175.0,35066.0,0.6788,0.1619,138.1,93.5,0.662
44.14,31894.7,34952.3,-0.4109,-0.1181,138.1,93.4,0.662
44.16,31866.8,34882.2,-0.5191,-0.2909,138.0,93.4,0.663
44.18,31836.1,34764.4,-0.6385,-0.5811,138.0,93.4,0.663
44.2,31795.8,34719.9,-0.7951,-0.6905,138.0,93.4,0.664
44.22,31753.4,34721.2,-0.9599,-0.6874,138.0,93.4,0.664
44.24,31758.7,34624.8,-0.9394,-0.9248,138.0,93.4,0.665
44.26,31705.5,34476.9,-1.146,-1.2891,137.9,93.4,0.665
44.28,31678.2,34495.7,-1.2522,-1.2428,137.9,93.4,0.666
44.3,31592.5,34512.8,-1.5853,-1.2008,137.9,93.3,0.666
44.32,31717.9,34494.8,-1.0979,-1.245,137.9,93.3,0.667
44.34,31741.7,34657.5,-1.0054,-0.8442,137.9,93.3,0.667
44.36,31932.0,34978.1,-0.2656,-0.0547,137.8,93.3,0.668
44.38,32180.8,35246.5,0.7013,0.6064,137.8,93.3,0.668
44.4,32374.0,35571.3,1.4523,1.4065,137.8,93.3,0.669
44.42,32455.4,35783.1,1.7686,1.9281,137.8,93.3,0.669
44.44,32468.3,35741.8,1.8189,1.8264,137.8,93.3,0.67
44.46,32307.5,35597.2,1.1936,1.4704,137.7,93.2,0.67
44.48,32249.3,35275.5,0.9675,0.6779,137.7,93.2,0.671
44.5,32110.3,35283.2,0.4274,0.6968,137.7,93.2,0.671
44.52,32129.5,35062.7,0.5018,0.1538,137.7,93.2,0.672
44.54,32034.1,35070.8,0.131,0.1738,137.7,93.2,0.672
44.56,32021.3,34967.0,0.0813,-0.0821,137.6,93.2,0.673
44.58,31858.7,34974.9,-0.5507,-0.0625,137.6,93.2,0.673
44.6,31818.7,34829.6,-0.7059,-0.4204,137.6,93.2,0.674
44.62,31828.0,34736.4,-0.6699,-0.65,137.6,93.1,0.674
44.64,31745.3,34769.2,-0.9912,-0.5692,137.6,93.1,0.675
44.66,31745.8,34721.1,-0.9894,-0.6876,137.5,93.1,0.675
44.68,31813.6,34696.8,-0.7258,-0.7476,137.5,93.1,0.676
44.7,31776.6,34553.9,-0.8698,-1.0994,137.5,93.1,0.676
44.72,31701.8,34531.7,-1.1603,-1.1541,137.5,93.1,0.677
44.74,31652.6,34400.1,-1.3517,-1.4783,137.5,93.1,0.677
44.76,31728.1,34530.0,-1.0583,-1.1584,137.4,93.1,0.678
44.78,31855.8,34688.8,-0.562,-0.7671,137.4,93.0,0.678
44.8,32042.3,34998.6,0.1631,-0.004,137.4,93.0,0.679
44.82,32281.1,35327.2,1.0913,0.8054,137.4,93.0,0.679
44.84,32485.1,35634.4,1.8841,1.5619,137.4,93.0,0.68
44.86,32530.8,35836.4,2.0618,2.0596,137.3,93.0,0.68
