timestamp,raw_red,raw_ir,filtered_red,filtered_ir,heart_rate,spo2,ac_dc_ratio
0.0,32005.1,35086.2,0.0124,0.1162,137.5,98.5,0.46
0.02,32201.1,35518.1,0.2762,0.6493,137.5,98.5,0.46
0.04,32312.0,35828.2,0.4254,1.0321,137.5,98.5,0.46
0.06,32319.3,35691.0,0.4351,0.8628,137.5,98.5,0.46
0.08,32280.2,35711.3,0.3826,0.8879,137.5,98.5,0.46
0.1,32174.9,35374.4,0.2408,0.472,137.5,98.5,0.46
0.12,32187.8,35330.2,0.2582,0.4174,137.5,98.5,0.46
0.14,32125.2,35105.4,0.174,0.1399,137.5,98.5,0.46
0.16,32050.8,35106.7,0.0738,0.1415,137.5,98.5,0.46
0.18,32010.6,35082.7,0.0197,0.1118,137.5,98.5,0.46
0.2,32075.5,35024.5,0.107,0.0399,137.5,98.5,0.46
0.22,32030.5,34875.4,0.0465,-0.1441,137.5,98.5,0.46
0.24,31890.8,34816.6,-0.1415,-0.2167,137.5,98.5,0.46
0.26,31815.4,34702.7,-0.243,-0.3573,137.5,98.5,0.46
0.28,31837.8,34721.5,-0.2128,-0.3341,137.5,98.5,0.46
0.3,31834.6,34720.3,-0.2171,-0.3356,137.5,98.5,0.46
0.32,31917.5,34645.9,-0.1056,-0.4275,137.5,98.5,0.46
0.34,31679.5,34544.1,-0.4259,-0.5532,137.5,98.5,0.46
0.36,31753.0,34462.6,-0.3269,-0.6537,137.5,98.5,0.46
0.38,31806.2,34401.9,-0.2553,-0.7287,137.5,98.5,0.46
0.4,31917.4,34588.9,-0.1056,-0.4978,137.5,98.5,0.46
0.42,32019.6,34909.1,0.0319,-0.1025,137.5,98.5,0.46
0.44,32165.8,35182.4,0.2287,0.2349,137.5,98.5,0.46
0.46,32228.5,35596.5,0.3129,0.7461,137.5,98.5,0.46
0.48,32345.3,35815.0,0.4702,1.0158,137.5,98.5,0.46
0.5,32424.0,35689.3,0.576,0.8606,137.5,98.5,0.46
0.52,32228.9,35572.0,0.3135,0.7158,137.5,98.5,0.46
0.54,32137.5,35521.0,0.1905,0.6529,137.5,98.5,0.46
0.56,32151.1,35171.1,0.2088,0.2209,137.5,98.5,0.46
0.58,32009.3,35172.3,0.018,0.2224,137.5,98.5,0.46
0.6,32033.6,35042.4,0.0507,0.0621,137.5,98.5,0.46
0.62,32023.0,35042.6,0.0365,0.0623,137.5,98.5,0.46
0.64,31974.3,34916.1,-0.029,-0.0939,137.5,98.5,0.46
0.66,31911.4,34857.5,-0.1138,-0.1662,137.5,98.5,0.46
0.68,32005.8,34718.7,0.0134,-0.3376,137.5,98.5,0.46
0.7,31861.7,34718.3,-0.1807,-0.3381,137.5,98.5,0.46
0.72,31827.4,34679.9,-0.2268,-0.3855,137.5,98.5,0.46
0.74,31849.4,34711.1,-0.1971,-0.347,137.5,98.5,0.46
0.76,31878.2,34675.5,-0.1585,-0.3909,137.5,98.5,0.46
0.78,31739.2,34505.2,-0.3454,-0.6012,137.5,98.5,0.46
0.8,31753.8,34425.4,-0.3258,-0.6997,137.5,98.5,0.46
0.82,31822.3,34439.7,-0.2336,-0.682,137.5,98.5,0.46
0.84,31869.1,34644.1,-0.1706,-0.4297,137.5,98.5,0.46
0.86,31886.3,34935.3,-0.1475,-0.0701,137.5,98.5,0.46
0.88,32055.9,35361.2,0.0808,0.4556,137.5,98.5,0.46
0.9,32205.5,35588.1,0.282,0.7358,137.5,98.5,0.46
0.92,32408.7,35813.2,0.5555,1.0137,137.5,98.5,0.46
0.94,32308.1,35693.3,0.4201,0.8656,137.5,98.5,0.46
0.96,32161.4,35560.1,0.2227,0.7012,137.5,98.5,0.46
0.98,32108.8,35433.7,0.1519,0.5451,137.5,98.5,0.46
1.0,32113.0,35302.7,0.1575,0.3834,137.5,98.5,0.46
1.02,32068.3,35133.7,0.0974,0.1747,137.5,98.5,0.46
1.04,32061.6,35080.6,0.0884,0.1092,137.5,98.5,0.46
1.06,31998.9,34991.2,0.004,-0.0011,137.5,98.5,0.46
1.08,31930.9,34893.7,-0.0875,-0.1215,137.5,98.5,0.46
1.1,31926.9,34884.2,-0.0928,-0.1332,137.5,98.5,0.46
1.12,31904.4,34715.1,-0.1231,-0.3419,137.5,98.5,0.46
1.14,31811.8,34684.0,-0.2478,-0.3804,137.5,98.5,0.46
1.16,31758.6,34659.9,-0.3194,-0.4101,137.5,98.5,0.46
1.18,31955.0,34607.2,-0.0551,-0.4752,137.5,98.5,0.46
1.2,31870.3,34628.1,-0.169,-0.4494,137.5,98.5,0.46
1.22,31844.4,34534.2,-0.2039,-0.5653,137.5,98.5,0.46
1.24,31840.9,34444.6,-0.2086,-0.676,137.5,98.5,0.46
1.26,31906.7,34446.3,-0.12,-0.6739,137.5,98.5,0.46
1.28,31833.2,34675.8,-0.219,-0.3905,137.5,98.5,0.46
1.3,32036.7,35069.8,0.0549,0.0959,137.5,98.5,0.46
1.32,32096.4,35356.8,0.1352,0.4502,137.5,98.5,0.46
1.34,32337.8,35613.8,0.4601,0.7674,137.5,98.5,0.46
1.36,32360.7,35713.9,0.4909,0.891,137.5,98.5,0.46
1.38,32376.3,35730.8,0.5119,0.9119,137.5,98.5,0.46
1.4,32261.2,35609.4,0.357,0.7621,137.5,98.5,0.46
1.42,32122.5,35325.7,0.1704,0.4118,137.5,98.5,0.46
1.44,32124.6,35247.8,0.1731,0.3156,137.5,98.5,0.46
1.46,32068.0,35133.8,0.0971,0.1749,137.5,98.5,0.46
1.48,31991.4,35081.0,-0.006,0.1097,137.5,98.5,0.46
1.5,32079.1,35014.9,0.112,0.0281,137.5,98.5,0.46
1.52,31913.2,34939.4,-0.1113,-0.0652,137.5,98.5,0.46
1.54,31935.4,34855.7,-0.0815,-0.1684,137.5,98.5,0.46
1.56,31824.9,34663.2,-0.2302,-0.4061,137.5,98.5,0.46
1.58,31864.7,34713.1,-0.1765,-0.3444,137.5,98.5,0.46
1.6,31892.1,34660.5,-0.1397,-0.4095,137.5,98.5,0.46
1.62,31815.4,34686.9,-0.2429,-0.3768,137.5,98.5,0.46
1.64,31859.5,34675.7,-0.1836,-0.3907,137.5,98.5,0.46
1.66,31743.8,34428.9,-0.3393,-0.6953,137.5,98.5,0.46
1.68,31829.9,34460.3,-0.2234,-0.6565,137.5,98.5,0.46
1.7,31851.8,34495.1,-0.1939,-0.6137,137.5,98.5,0.46
1.72,31874.1,34652.7,-0.1639,-0.419,137.5,98.5,0.46
1.74,32048.7,35095.8,0.071,0.1279,137.5,98.5,0.46
1.76,32131.9,35313.1,0.183,0.3962,137.5,98.5,0.46
1.78,32293.9,35679.2,0.4011,0.8481,137.5,98.5,0.46
1.8,32340.4,35720.0,0.4636,0.8986,137.5,98.5,0.46
1.82,32360.9,35691.1,0.4912,0.8629,137.5,98.5,0.46
1.84,32180.7,35444.7,0.2487,0.5587,137.5,98.5,0.46
1.86,32108.9,35394.6,0.1521,0.4968,137.5,98.5,0.46
1.88,32138.4,35274.9,0.1918,0.349,137.5,98.5,0.46
1.9,31921.5,35116.1,-0.1001,0.1531,137.5,98.5,0.46
1.92,31990.8,35106.3,-0.0068,0.141,137.5,98.5,0.46
1.94,32023.0,34979.3,0.0364,-0.0159,137.5,98.5,0.46
1.96,31938.3,34820.1,-0.0775,-0.2124,137.5,98.5,0.46
1.98,31878.0,34799.2,-0.1587,-0.2382,137.5,98.5,0.46
2.0,31823.7,34722.7,-0.2317,-0.3326,137.5,98.5,0.46
2.02,31943.4,34751.0,-0.0707,-0.2976,137.5,98.5,0.46
2.04,31914.4,34713.2,-0.1096,-0.3443,137.5,98.5,0.46
2.06,31845.7,34583.2,-0.2022,-0.5048,137.5,98.5,0.46
2.08,31835.4,34454.5,-0.216,-0.6637,137.5,98.5,0.46
2.1,31787.5,34521.2,-0.2804,-0.5814,137.5,98.5,0.46
2.12,31771.3,34426.3,-0.3022,-0.6985,137.5,98.5,0.46
2.14,31761.4,34542.4,-0.3156,-0.5552,137.5,98.5,0.46
2.16,31912.7,34759.4,-0.112,-0.2874,137.5,98.5,0.46
2.18,32106.1,35074.4,0.1482,0.1016,137.5,98.5,0.46
2.2,32239.2,35404.6,0.3274,0.5092,137.5,98.5,0.46
2.22,32328.1,35732.1,0.4471,0.9136,137.5,98.5,0.46
2.24,32373.5,35892.3,0.5082,1.1113,137.5,98.5,0.46
2.26,32260.9,35617.6,0.3566,0.7721,137.5,98.5,0.46
2.28,32159.9,35399.4,0.2206,0.5028,137.5,98.5,0.46
2.3,32205.4,35295.0,0.2819,0.3739,137.5,98.5,0.46
2.32,32041.2,35180.5,0.0609,0.2325,137.5,98.5,0.46
2.34,31978.6,35131.1,-0.0233,0.1716,137.5,98.5,0.46
2.36,32004.1,35055.5,0.0111,0.0782,137.5,98.5,0.46
2.38,32134.0,35006.5,0.1858,0.0177,137.5,98.5,0.46
2.4,31985.5,34796.9,-0.014,-0.241,137.5,98.5,0.46
2.42,31915.6,34783.8,-0.108,-0.2572,137.5,98.5,0.46
2.44,31961.4,34629.7,-0.0465,-0.4474,137.5,98.5,0.46
2.46,31873.8,34571.9,-0.1644,-0.5187,137.5,98.5,0.46
2.48,31893.8,34631.2,-0.1375,-0.4456,137.5,98.5,0.46
2.5,31836.9,34663.9,-0.214,-0.4052,137.5,98.5,0.46
2.52,31869.7,34521.8,-0.1699,-0.5806,137.5,98.5,0.46
2.54,31747.6,34457.7,-0.3342,-0.6598,137.5,98.5,0.46
2.56,31683.3,34480.5,-0.4207,-0.6316,137.5,98.5,0.46
2.58,31894.3,34544.7,-0.1367,-0.5524,137.5,98.5,0.46
2.6,31950.1,34829.7,-0.0616,-0.2005,137.5,98.5,0.46
2.62,31992.6,35257.9,-0.0045,0.3281,137.5,98.5,0.46
2.64,32208.2,35550.2,0.2857,0.6889,137.5,98.5,0.46
2.66,32314.9,35708.6,0.4293,0.8844,137.5,98.5,0.46
2.68,32319.6,35663.8,0.4356,0.8292,137.5,98.5,0.46
2.7,32240.8,35610.2,0.3296,0.7631,137.5,98.5,0.46
2.72,32127.6,35344.7,0.1772,0.4352,137.5,98.5,0.46
2.74,32191.5,35280.5,0.2632,0.3559,137.5,98.5,0.46
2.76,32150.1,35240.3,0.2075,0.3063,137.5,98.5,0.46
2.78,32025.0,35159.2,0.0392,0.2062,137.5,98.5,0.46
2.8,31999.5,35112.1,0.0048,0.1481,137.5,98.5,0.46
2.82,32065.3,34970.2,0.0934,-0.0271,137.5,98.5,0.46
2.84,31926.9,34893.5,-0.0929,-0.1217,137.5,98.5,0.46
2.86,31808.0,34716.5,-0.2528,-0.3403,137.5,98.5,0.46
2.88,31899.9,34661.4,-0.1292,-0.4084,137.5,98.5,0.46
2.9,31898.3,34561.9,-0.1313,-0.5312,137.5,98.5,0.46
2.92,31926.4,34647.4,-0.0935,-0.4255,137.5,98.5,0.46
2.94,31767.8,34613.6,-0.3069,-0.4673,137.5,98.5,0.46
2.96,31837.4,34511.1,-0.2134,-0.5939,137.5,98.5,0.46
2.98,31758.8,34417.5,-0.3191,-0.7094,137.5,98.5,0.46
3.0,31764.9,34350.3,-0.3109,-0.7923,137.5,98.5,0.46
3.02,31860.8,34506.7,-0.1819,-0.5993,137.5,98.5,0.46
3.04,31992.5,34862.9,-0.0046,-0.1596,137.5,98.5,0.46
3.06,32098.9,35226.3,0.1386,0.2891,137.5,98.5,0.46
3.08,32316.1,35582.0,0.4309,0.7282,137.5,98.5,0.46
3.1,32312.4,35685.8,0.4259,0.8563,137.5,98.5,0.46
3.12,32407.6,35795.4,0.554,0.9916,137.5,98.5,0.46
3.14,32290.8,35588.5,0.3969,0.7363,137.5,98.5,0.46
3.16,32108.2,35360.8,0.1511,0.4552,137.5,98.5,0.46
3.18,32061.7,35253.3,0.0886,0.3224,137.5,98.5,0.46
3.2,32014.4,35113.3,0.0248,0.1496,137.5,98.5,0.46
3.22,32080.5,35099.6,0.1138,0.1326,137.5,98.5,0.46
3.24,31939.2,35024.6,-0.0764,0.0401,137.5,98.5,0.46
3.26,31916.8,34838.0,-0.1064,-0.1902,137.5,98.5,0.46
3.28,31966.2,34846.0,-0.04,-0.1805,137.5,98.5,0.46
3.3,31881.0,34739.6,-0.1547,-0.3118,137.5,98.5,0.46
3.32,31874.0,34664.2,-0.1641,-0.4049,137.5,98.5,0.46
3.34,31863.0,34620.3,-0.1788,-0.459,137.5,98.5,0.46
3.36,31827.4,34656.4,-0.2268,-0.4145,137.5,98.5,0.46
3.38,31823.8,34601.3,-0.2317,-0.4825,137.5,98.5,0.46
3.4,31820.8,34496.1,-0.2356,-0.6123,137.5,98.5,0.46
3.42,31765.0,34449.0,-0.3108,-0.6705,137.5,98.5,0.46
3.44,31714.6,34445.9,-0.3786,-0.6743,137.5,98.5,0.46
3.46,31840.0,34636.4,-0.2099,-0.4391,137.5,98.5,0.46
3.48,31868.6,34931.5,-0.1714,-0.0748,137.5,98.5,0.46
3.5,32177.7,35221.6,0.2446,0.2833,137.5,98.5,0.46
3.52,32208.5,35605.9,0.2861,0.7577,137.5,98.5,0.46
3.54,32286.1,35728.6,0.3905,0.9092,137.5,98.5,0.46
3.56,32370.2,35645.3,0.5037,0.8063,137.5,98.5,0.46
3.58,32173.6,35592.5,0.2391,0.7412,137.5,98.5,0.46
3.6,32241.4,35480.3,0.3304,0.6026,137.5,98.5,0.46
3.62,32125.4,35180.3,0.1743,0.2323,137.5,98.5,0.46
3.64,32092.7,35097.1,0.1302,0.1296,137.5,98.5,0.46
3.66,32013.8,35101.8,0.0241,0.1353,137.5,98.5,0.46
3.68,32043.6,34988.5,0.0641,-0.0045,137.5,98.5,0.46
3.7,31994.6,34960.0,-0.0018,-0.0397,137.5,98.5,0.46
3.72,31882.0,34795.8,-0.1533,-0.2424,137.5,98.5,0.46
3.74,31894.2,34727.9,-0.1369,-0.3262,137.5,98.5,0.46
3.76,31798.2,34610.2,-0.2661,-0.4715,137.5,98.5,0.46
3.78,31858.8,34708.1,-0.1845,-0.3506,137.5,98.5,0.46
3.8,31913.2,34702.5,-0.1113,-0.3575,137.5,98.5,0.46
3.82,31818.2,34639.5,-0.2391,-0.4353,137.5,98.5,0.46
3.84,31841.4,34498.8,-0.2079,-0.6091,137.5,98.5,0.46
3.86,31699.8,34357.7,-0.3985,-0.7833,137.5,98.5,0.46
3.88,31837.2,34510.0,-0.2136,-0.5952,137.5,98.5,0.46
3.9,31928.0,34657.9,-0.0914,-0.4126,137.5,98.5,0.46
3.92,32049.6,35010.3,0.0723,0.0225,137.5,98.5,0.46
3.94,32192.9,35369.1,0.2651,0.4653,137.5,98.5,0.46
3.96,32287.3,35652.0,0.3922,0.8147,137.5,98.5,0.46
3.98,32228.7,35801.7,0.3133,0.9994,137.5,98.5,0.46
4.0,32340.2,35680.3,0.4633,0.8495,137.5,98.5,0.46
4.02,32181.3,35565.5,0.2495,0.7079,137.5,98.5,0.46
4.04,32188.8,35294.2,0.2596,0.3729,137.5,98.5,0.46
4.06,32044.3,35180.2,0.065,0.2322,137.5,98.5,0.46
4.08,32053.0,35094.2,0.0768,0.1261,137.5,98.5,0.46
4.1,31966.8,35042.2,-0.0392,0.0618,137.5,98.5,0.46
4.12,31991.0,34993.6,-0.0066,0.0018,137.5,98.5,0.46
4.14,31895.7,35020.4,-0.1349,0.0348,137.5,98.5,0.46
4.16,31963.0,34804.4,-0.0443,-0.2317,137.5,98.5,0.46
4.18,31921.0,34751.3,-0.1008,-0.2973,137.5,98.5,0.46
4.2,31787.8,34652.8,-0.2801,-0.4189,137.5,98.5,0.46
4.22,31904.5,34706.3,-0.123,-0.3528,137.5,98.5,0.46
4.24,31850.8,34633.9,-0.1953,-0.4422,137.5,98.5,0.46
4.26,31862.2,34566.1,-0.18,-0.5259,137.5,98.5,0.46
4.28,31783.2,34551.2,-0.2863,-0.5443,137.5,98.5,0.46
4.3,31817.4,34408.1,-0.2402,-0.721,137.5,98.5,0.46
4.32,31787.6,34530.2,-0.2803,-0.5703,137.5,98.5,0.46
4.34,31790.8,34709.9,-0.276,-0.3484,137.5,98.5,0.46
4.36,32085.5,35083.2,0.1206,0.1124,137.5,98.5,0.46
4.38,32194.8,35533.4,0.2676,0.6682,137.5,98.5,0.46
4.4,32244.3,35650.3,0.3342,0.8126,137.5,98.5,0.46
4.42,32335.3,35802.6,0.4568,1.0006,137.5,98.5,0.46
4.44,32272.3,35741.1,0.3719,0.9247,137.5,98.5,0.46
4.46,32194.0,35490.8,0.2665,0.6156,137.5,98.5,0.46
4.48,32175.1,35323.0,0.2411,0.4085,137.5,98.5,0.46
4.5,32083.4,35149.4,0.1177,0.1942,137.5,98.5,0.46
4.52,32156.8,35108.5,0.2165,0.1437,137.5,98.5,0.46
4.54,32066.5,35146.7,0.0949,0.1908,137.5,98.5,0.46
4.56,31968.4,35029.0,-0.0371,0.0455,137.5,98.5,0.46
4.58,32039.1,34889.1,0.0581,-0.1272,137.5,98.5,0.46
4.6,31923.1,34838.5,-0.0979,-0.1897,137.5,98.5,0.46
4.62,31968.9,34641.4,-0.0364,-0.433,137.5,98.5,0.46
4.64,31856.9,34589.0,-0.1871,-0.4977,137.5,98.5,0.46
4.66,31811.4,34685.9,-0.2484,-0.3781,137.5,98.5,0.46
4.68,31828.7,34707.7,-0.225,-0.3511,137.5,98.5,0.46
4.7,31990.7,34583.6,-0.007,-0.5043,137.5,98.5,0.46
4.72,31737.0,34504.1,-0.3485,-0.6025,137.5,98.5,0.46
4.74,31747.9,34477.4,-0.3337,-0.6355,137.5,98.5,0.46
4.76,31856.6,34532.2,-0.1875,-0.5678,137.5,98.5,0.46
4.78,31868.2,34922.2,-0.1719,-0.0863,137.5,98.5,0.46
4.8,32022.0,35141.2,0.0351,0.1841,137.5,98.5,0.46
4.82,32271.3,35414.0,0.3706,0.5208,137.5,98.5,0.46
4.84,32341.9,35793.1,0.4656,0.9888,137.5,98.5,0.46
4.86,32303.1,35744.5,0.4134,0.9288,137.5,98.5,0.46
4.88,32200.5,35658.6,0.2753,0.8228,137.5,98.5,0.46
4.9,32158.3,35379.4,0.2185,0.4781,137.5,98.5,0.46
4.92,32150.5,35355.2,0.208,0.4482,137.5,98.5,0.46
4.94,32065.6,35161.4,0.0938,0.209,137.5,98.5,0.46
4.96,31963.7,35142.9,-0.0433,0.1861,137.5,98.5,0.46
4.98,31980.7,34972.7,-0.0205,-0.024,137.5,98.5,0.46
5.0,32013.5,34986.5,0.0237,-0.007,137.5,98.5,0.46
5.02,31908.3,34915.9,-0.1179,-0.0941,137.5,98.5,0.46
5.04,31894.9,34779.2,-0.1359,-0.2629,137.5,98.5,0.46
5.06,31946.9,34609.1,-0.066,-0.4729,137.5,98.5,0.46
5.08,31855.5,34724.2,-0.189,-0.3308,137.5,98.5,0.46
5.1,31818.5,34728.2,-0.2388,-0.3258,137.5,98.5,0.46
5.12,31782.4,34742.4,-0.2874,-0.3083,137.5,98.5,0.46
5.14,31823.3,34512.2,-0.2322,-0.5925,137.5,98.5,0.46
5.16,31693.9,34443.7,-0.4064,-0.6771,137.5,98.5,0.46
5.18,31757.7,34422.2,-0.3205,-0.7036,137.5,98.5,0.46
5.2,31840.3,34633.4,-0.2095,-0.4429,137.5,98.5,0.46
5.22,31978.2,34815.1,-0.0238,-0.2185,137.5,98.5,0.46
5.24,32030.6,35106.7,0.0467,0.1415,137.5,98.5,0.46
5.26,32219.6,35523.8,0.301,0.6564,137.5,98.5,0.46
5.28,32317.1,35719.8,0.4322,0.8984,137.5,98.5,0.46
5.3,32297.7,35741.9,0.4062,0.9256,137.5,98.5,0.46
5.32,32256.7,35558.8,0.3509,0.6995,137.5,98.5,0.46
5.34,32126.8,35398.9,0.1762,0.5022,137.5,98.5,0.46
5.36,32001.4,35269.1,0.0074,0.3419,137.5,98.5,0.46
5.38,32039.5,35083.8,0.0586,0.1132,137.5,98.5,0.46
5.4,32056.5,35078.3,0.0815,0.1064,137.5,98.5,0.46
5.42,32034.2,35054.1,0.0515,0.0765,137.5,98.5,0.46
5.44,31944.5,35065.7,-0.0692,0.0908,137.5,98.5,0.46
5.46,31886.2,34888.0,-0.1476,-0.1285,137.5,98.5,0.46
5.48,31908.9,34801.4,-0.1171,-0.2355,137.5,98.5,0.46
5.5,31818.2,34737.0,-0.2391,-0.315,137.5,98.5,0.46
5.52,31799.4,34654.4,-0.2645,-0.417,137.5,98.5,0.46
5.54,31826.3,34637.3,-0.2283,-0.438,137.5,98.5,0.46
5.56,31896.5,34650.4,-0.1338,-0.4219,137.5,98.5,0.46
5.58,31845.7,34530.7,-0.2021,-0.5697,137.5,98.5,0.46
5.6,31755.5,34486.1,-0.3235,-0.6247,137.5,98.5,0.46
5.62,31806.5,34459.7,-0.2548,-0.6573,137.5,98.5,0.46
5.64,31899.1,34679.8,-0.1303,-0.3855,137.5,98.5,0.46
5.66,31999.9,34913.0,0.0054,-0.0976,137.5,98.5,0.46
5.68,32141.9,35278.4,0.1965,0.3534,137.5,98.5,0.46
5.7,32274.2,35589.5,0.3745,0.7375,137.5,98.5,0.46
5.72,32232.6,35711.6,0.3186,0.8881,137.5,98.5,0.46
5.74,32360.6,35715.9,0.4907,0.8935,137.5,98.5,0.46
5.76,32126.7,35547.5,0.176,0.6857,137.5,98.5,0.46
5.78,32113.5,35422.9,0.1582,0.5318,137.5,98.5,0.46
5.8,32082.6,35189.4,0.1166,0.2435,137.5,98.5,0.46
5.82,32123.8,35138.1,0.1721,0.1803,137.5,98.5,0.46
5.84,32068.1,35051.0,0.0971,0.0727,137.5,98.5,0.46
5.86,31974.1,34982.3,-0.0293,-0.0121,137.5,98.5,0.46
5.88,31956.1,34909.5,-0.0536,-0.1021,137.5,98.5,0.46
5.9,32002.8,34858.9,0.0093,-0.1645,137.5,98.5,0.46
5.92,31889.0,34818.1,-0.1439,-0.2149,137.5,98.5,0.46
5.94,31845.6,34689.3,-0.2022,-0.3738,137.5,98.5,0.46
5.96,31869.0,34707.4,-0.1708,-0.3515,137.5,98.5,0.46
5.98,31862.0,34622.0,-0.1803,-0.4569,137.5,98.5,0.46
6.0,31764.8,34611.5,-0.3111,-0.4699,137.5,98.5,0.46
6.02,31862.1,34568.5,-0.18,-0.523,137.5,98.5,0.46
6.04,31791.5,34420.3,-0.2751,-0.7059,137.5,98.5,0.46
6.06,31793.6,34525.9,-0.2723,-0.5756,137.5,98.5,0.46
6.08,31985.6,34674.4,-0.0138,-0.3923,137.5,98.5,0.46
6.1,31993.4,34984.6,-0.0033,-0.0093,137.5,98.5,0.46
6.12,32165.5,35349.7,0.2283,0.4414,137.5,98.5,0.46
6.14,32178.5,35582.0,0.2457,0.7282,137.5,98.5,0.46
6.16,32316.6,35784.6,0.4315,0.9784,137.5,98.5,0.46
6.18,32315.0,35728.9,0.4294,0.9095,137.5,98.5,0.46
6.2,32185.2,35584.1,0.2547,0.7308,137.5,98.5,0.46
6.22,32148.9,35271.5,0.2059,0.3448,137.5,98.5,0.46
6.24,32124.2,35168.8,0.1726,0.2181,137.5,98.5,0.46
6.26,32105.6,35115.9,0.1477,0.1528,137.5,98.5,0.46
6.28,32067.3,35106.6,0.0961,0.1413,137.5,98.5,0.46
6.3,32010.6,35067.7,0.0198,0.0933,137.5,98.5,0.46
6.32,31955.6,34913.4,-0.0542,-0.0972,137.5,98.5,0.46
6.34,31892.7,34808.4,-0.139,-0.2268,137.5,98.5,0.46
6.36,31833.0,34761.4,-0.2193,-0.2848,137.5,98.5,0.46
6.38,31842.7,34624.8,-0.2062,-0.4534,137.5,98.5,0.46
6.4,31930.0,34606.5,-0.0887,-0.4761,137.5,98.5,0.46
6.42,31872.4,34597.4,-0.1662,-0.4873,137.5,98.5,0.46
6.44,31850.4,34608.7,-0.1958,-0.4734,137.5,98.5,0.46
6.46,31854.0,34485.7,-0.1909,-0.6252,137.5,98.5,0.46
6.48,31750.1,34427.8,-0.3308,-0.6966,137.5,98.5,0.46
6.5,31706.6,34533.1,-0.3894,-0.5667,137.5,98.5,0.46
6.52,31796.2,34707.0,-0.2688,-0.352,137.5,98.5,0.46
6.54,31908.9,35065.2,-0.1171,0.0903,137.5,98.5,0.46
6.56,32215.9,35373.6,0.296,0.4709,137.5,98.5,0.46
6.58,32218.7,35609.2,0.2999,0.7617,137.5,98.5,0.46
6.6,32307.4,35720.1,0.4192,0.8987,137.5,98.5,0.46
6.62,32227.6,35733.3,0.3118,0.915,137.5,98.5,0.46
6.64,32207.5,35433.5,0.2847,0.5449,137.5,98.5,0.46
6.66,32159.7,35244.3,0.2204,0.3113,137.5,98.5,0.46
6.68,32086.3,35186.6,0.1216,0.24,137.5,98.5,0.46
6.7,32032.9,35109.3,0.0497,0.1446,137.5,98.5,0.46
6.72,32061.0,35057.7,0.0875,0.0809,137.5,98.5,0.46
6.74,31957.1,34993.5,-0.0523,0.0017,137.5,98.5,0.46
6.76,31937.0,34822.9,-0.0793,-0.209,137.5,98.5,0.46
6.78,31817.1,34803.7,-0.2406,-0.2327,137.5,98.5,0.46
6.8,31799.2,34744.3,-0.2647,-0.3059,137.5,98.5,0.46
6.82,31764.1,34749.5,-0.312,-0.2995,137.5,98.5,0.46
6.84,31901.4,34683.2,-0.1272,-0.3814,137.5,98.5,0.46
6.86,31884.1,34649.6,-0.1504,-0.4229,137.5,98.5,0.46
6.88,31769.4,34538.9,-0.3049,-0.5595,137.5,98.5,0.46
6.9,31792.9,34552.1,-0.2732,-0.5432,137.5,98.5,0.46
6.92,31805.1,34413.2,-0.2568,-0.7148,137.5,98.5,0.46
6.94,31799.1,34525.2,-0.2649,-0.5765,137.5,98.5,0.46
6.96,31941.3,34740.6,-0.0735,-0.3106,137.5,98.5,0.46
6.98,32088.1,35063.3,0.124,0.0878,137.5,98.5,0.46
7.0,32109.3,35516.8,0.1526,0.6478,137.5,98.5,0.46
7.02,32314.5,35673.4,0.4287,0.8411,137.5,98.5,0.46
7.04,32342.9,35844.1,0.4669,1.0517,137.5,98.5,0.46
7.06,32292.0,35737.4,0.3984,0.92,137.5,98.5,0.46
7.08,32187.2,35503.8,0.2575,0.6317,137.5,98.5,0.46
7.1,32023.2,35236.9,0.0367,0.3022,137.5,98.5,0.46
7.12,32120.3,35203.3,0.1674,0.2606,137.5,98.5,0.46
7.14,31887.0,35172.6,-0.1466,0.2228,137.5,98.5,0.46
7.16,32018.2,35123.4,0.03,0.1621,137.5,98.5,0.46
7.18,31913.4,35032.4,-0.1111,0.0497,137.5,98.5,0.46
7.2,32024.6,34916.5,0.0386,-0.0933,137.5,98.5,0.46
7.22,32049.9,34848.5,0.0726,-0.1774,137.5,98.5,0.46
7.24,31962.1,34735.6,-0.0455,-0.3167,137.5,98.5,0.46
7.26,31802.4,34686.6,-0.2604,-0.3772,137.5,98.5,0.46
7.28,31850.3,34745.5,-0.196,-0.3045,137.5,98.5,0.46
7.3,31861.5,34628.3,-0.1809,-0.4492,137.5,98.5,0.46
7.32,31811.6,34580.7,-0.248,-0.508,137.5,98.5,0.46
7.34,31770.3,34500.4,-0.3036,-0.6071,137.5,98.5,0.46
7.36,31801.3,34499.0,-0.2618,-0.6088,137.5,98.5,0.46
7.38,31785.2,34574.0,-0.2836,-0.5161,137.5,98.5,0.46
7.4,31904.6,34885.7,-0.1229,-0.1314,137.5,98.5,0.46
7.42,32031.1,35232.2,0.0473,0.2964,137.5,98.5,0.46
7.44,32212.4,35494.6,0.2913,0.6203,137.5,98.5,0.46
7.46,32230.3,35689.2,0.3154,0.8605,137.5,98.5,0.46
7.48,32297.3,35726.3,0.4056,0.9063,137.5,98.5,0.46
7.5,32312.8,35701.6,0.4265,0.8758,137.5,98.5,0.46
7.52,32275.0,35421.1,0.3756,0.5296,137.5,98.5,0.46
7.54,32118.1,35339.2,0.1644,0.4284,137.5,98.5,0.46
7.56,32029.6,35200.4,0.0453,0.2571,137.5,98.5,0.46
7.58,31933.1,34991.4,-0.0845,-0.0009,137.5,98.5,0.46
7.6,32035.5,35057.4,0.0532,0.0806,137.5,98.5,0.46
7.62,32009.7,34967.8,0.0185,-0.03,137.5,98.5,0.46
7.64,31920.9,34987.8,-0.1009,-0.0054,137.5,98.5,0.46
7.66,31843.8,34843.0,-0.2047,-0.1841,137.5,98.5,0.46
7.68,31830.6,34706.0,-0.2225,-0.3533,137.5,98.5,0.46
7.7,31855.5,34740.4,-0.189,-0.3107,137.5,98.5,0.46
7.72,31887.3,34715.5,-0.1462,-0.3415,137.5,98.5,0.46
7.74,31846.7,34581.3,-0.2008,-0.5072,137.5,98.5,0.46
7.76,31765.4,34597.8,-0.3102,-0.4868,137.5,98.5,0.46
7.78,31785.5,34488.1,-0.2832,-0.6222,137.5,98.5,0.46
7.8,31794.7,34443.2,-0.2708,-0.6777,137.5,98.5,0.46
7.82,31806.3,34639.6,-0.2552,-0.4352,137.5,98.5,0.46
7.84,31902.9,34835.6,-0.1252,-0.1933,137.5,98.5,0.46
7.86,32028.5,35215.2,0.0439,0.2754,137.5,98.5,0.46
7.88,32219.1,35538.3,0.3003,0.6742,137.5,98.5,0.46
7.9,32235.3,35756.5,0.3221,0.9437,137.5,98.5,0.46
7.92,32311.6,35706.1,0.4248,0.8814,137.5,98.5,0.46
7.94,32276.5,35535.2,0.3775,0.6704,137.5,98.5,0.46
7.96,32144.7,35321.5,0.2002,0.4066,137.5,98.5,0.46
7.98,32107.7,35153.8,0.1505,0.1996,137.5,98.5,0.46
8.0,32074.5,35109.4,0.1058,0.1448,137.5,98.5,0.46
8.02,31968.9,35076.0,-0.0364,0.1035,137.5,98.5,0.46
8.04,31955.3,35022.0,-0.0547,0.0368,137.5,98.5,0.46
8.06,32005.0,34986.0,0.0122,-0.0076,137.5,98.5,0.46
8.08,31931.4,34708.1,-0.0868,-0.3506,137.5,98.5,0.46
8.1,31944.8,34836.9,-0.0688,-0.1916,137.5,98.5,0.46
8.12,31841.1,34708.1,-0.2083,-0.3507,137.5,98.5,0.46
8.14,31787.9,34649.4,-0.28,-0.4231,137.5,98.5,0.46
8.16,31842.9,34644.9,-0.2059,-0.4286,137.5,98.5,0.46
8.18,31858.3,34614.4,-0.1852,-0.4664,137.5,98.5,0.46
8.2,31861.5,34513.6,-0.1808,-0.5908,137.5,98.5,0.46
8.22,31894.6,34388.0,-0.1364,-0.7458,137.5,98.5,0.46
8.24,31758.9,34378.6,-0.3189,-0.7574,137.5,98.5,0.46
8.26,31886.2,34684.0,-0.1476,-0.3804,137.5,98.5,0.46
8.28,31927.4,34997.5,-0.0922,0.0067,137.5,98.5,0.46
8.3,32173.3,35299.3,0.2387,0.3792,137.5,98.5,0.46
8.32,32261.6,35635.4,0.3575,0.7941,137.5,98.5,0.46
8.34,32366.2,35849.7,0.4983,1.0587,137.5,98.5,0.46
8.36,32343.4,35709.1,0.4676,0.8851,137.5,98.5,0.46
8.38,32247.9,35455.2,0.3391,0.5717,137.5,98.5,0.46
8.4,32145.3,35342.8,0.2011,0.4329,137.5,98.5,0.46
8.42,31987.8,35205.9,-0.0109,0.264,137.5,98.5,0.46
8.44,31965.2,35177.5,-0.0413,0.2289,137.5,98.5,0.46
8.46,32051.0,35075.6,0.0741,0.103,137.5,98.5,0.46
8.48,31938.3,35110.6,-0.0775,0.1462,137.5,98.5,0.46
8.5,32057.4,34915.0,0.0828,-0.0953,137.5,98.5,0.46
8.52,31974.1,34826.2,-0.0294,-0.2048,137.5,98.5,0.46
8.54,31918.2,34769.2,-0.1046,-0.2753,137.5,98.5,0.46
8.56,31949.4,34741.1,-0.0627,-0.3099,137.5,98.5,0.46
8.58,31859.6,34610.7,-0.1835,-0.4709,137.5,98.5,0.46
8.6,31822.9,34592.6,-0.2329,-0.4932,137.5,98.5,0.46
8.62,31926.9,34655.9,-0.0929,-0.415,137.5,98.5,0.46
8.64,31739.7,34531.7,-0.3447,-0.5684,137.5,98.5,0.46
8.66,31770.7,34408.1,-0.303,-0.721,137.5,98.5,0.46
8.68,31888.8,34505.6,-0.1442,-0.6006,137.5,98.5,0.46
8.7,31882.2,34625.5,-0.153,-0.4527,137.5,98.5,0.46
8.72,32011.4,34999.6,0.0208,0.0092,137.5,98.5,0.46
8.74,32063.2,35335.7,0.0906,0.4242,137.5,98.5,0.46
8.76,32279.9,35648.3,0.3821,0.8101,137.5,98.5,0.46
8.78,32289.9,35768.3,0.3956,0.9583,137.5,98.5,0.46
8.8,32260.6,35631.9,0.3562,0.7898,137.5,98.5,0.46
8.82,32181.9,35580.2,0.2503,0.726,137.5,98.5,0.46
8.84,32123.0,35344.8,0.171,0.4353,137.5,98.5,0.46
8.86,32173.1,35244.9,0.2385,0.3121,137.5,98.5,0.46
8.88,32054.6,35097.5,0.0789,0.1301,137.5,98.5,0.46
8.9,31933.7,35038.6,-0.0837,0.0574,137.5,98.5,0.46
8.92,31960.0,34974.1,-0.0483,-0.0223,137.5,98.5,0.46
8.94,31994.8,34921.0,-0.0015,-0.0878,137.5,98.5,0.46
8.96,31914.9,34737.8,-0.109,-0.314,137.5,98.5,0.46
8.98,31893.7,34745.8,-0.1376,-0.304,137.5,98.5,0.46
9.0,31887.3,34613.5,-0.1462,-0.4675,137.5,98.5,0.46
9.02,31783.7,34610.4,-0.2857,-0.4713,137.5,98.5,0.46
9.04,31857.1,34678.5,-0.1869,-0.3872,137.5,98.5,0.46
9.06,31818.6,34567.0,-0.2386,-0.5248,137.5,98.5,0.46
9.08,31712.5,34405.8,-0.3814,-0.7238,137.5,98.5,0.46
9.1,31795.1,34405.8,-0.2703,-0.7239,137.5,98.5,0.46
9.12,31736.5,34579.6,-0.349,-0.5093,137.5,98.5,0.46
9.14,31942.2,34734.6,-0.0723,-0.3179,137.5,98.5,0.46
9.16,32022.5,35030.3,0.0358,0.0471,137.5,98.5,0.46
9.18,32317.9,35447.1,0.4333,0.5617,137.5,98.5,0.46
9.2,32306.1,35722.9,0.4174,0.9022,137.5,98.5,0.46
9.22,32317.3,35689.3,0.4325,0.8607,137.5,98.5,0.46
9.24,32226.4,35688.5,0.3102,0.8597,137.5,98.5,0.46
9.26,32192.4,35511.7,0.2644,0.6414,137.5,98.5,0.46
9.28,32078.5,35363.5,0.1111,0.4584,137.5,98.5,0.46
9.3,31995.0,35205.5,-0.0013,0.2634,137.5,98.5,0.46
9.32,32029.7,35064.0,0.0454,0.0887,137.5,98.5,0.46
9.34,32016.5,35043.7,0.0277,0.0637,137.5,98.5,0.46
9.36,32025.7,34975.1,0.0401,-0.0211,137.5,98.5,0.46
9.38,31934.9,34935.9,-0.0821,-0.0695,137.5,98.5,0.46
9.4,31964.3,34816.0,-0.0426,-0.2175,137.5,98.5,0.46
9.42,31848.1,34733.2,-0.1989,-0.3197,137.5,98.5,0.46
9.44,31832.5,34645.2,-0.22,-0.4283,137.5,98.5,0.46
9.46,31866.7,34702.1,-0.1739,-0.358,137.5,98.5,0.46
9.48,31880.0,34681.0,-0.1559,-0.3841,137.5,98.5,0.46
9.5,31756.6,34531.9,-0.322,-0.5681,137.5,98.5,0.46
9.52,31802.9,34400.5,-0.2597,-0.7304,137.5,98.5,0.46
9.54,31761.2,34383.1,-0.3159,-0.7519,137.5,98.5,0.46
9.56,31803.0,34544.4,-0.2596,-0.5528,137.5,98.5,0.46
9.58,31859.1,34865.0,-0.1841,-0.157,137.5,98.5,0.46
9.6,32005.6,35107.6,0.0131,0.1426,137.5,98.5,0.46
9.62,32183.5,35534.6,0.2525,0.6696,137.5,98.5,0.46
9.64,32288.4,35722.9,0.3936,0.9021,137.5,98.5,0.46
9.66,32397.1,35810.3,0.5399,1.01,137.5,98.5,0.46
9.68,32340.5,35619.5,0.4637,0.7745,137.5,98.5,0.46
9.7,32174.2,35397.3,0.2399,0.5002,137.5,98.5,0.46
9.72,32160.4,35305.5,0.2213,0.3869,137.5,98.5,0.46
9.74,31984.3,35159.5,-0.0156,0.2066,137.5,98.5,0.46
9.76,32018.3,35089.3,0.0301,0.1199,137.5,98.5,0.46
9.78,31984.7,35111.0,-0.0151,0.1468,137.5,98.5,0.46
9.8,31991.6,34877.1,-0.0058,-0.1421,137.5,98.5,0.46
9.82,31929.2,34934.8,-0.0899,-0.0707,137.5,98.5,0.46
9.84,31881.5,34797.9,-0.154,-0.2397,137.5,98.5,0.46
9.86,31845.9,34859.8,-0.2019,-0.1633,137.5,98.5,0.46
9.88,31825.6,34666.6,-0.2291,-0.4019,137.5,98.5,0.46
9.9,31837.2,34596.7,-0.2136,-0.4881,137.5,98.5,0.46
9.92,31836.2,34655.8,-0.215,-0.4152,137.5,98.5,0.46
9.94,31878.9,34608.1,-0.1574,-0.4741,137.5,98.5,0.46
9.96,31719.1,34467.2,-0.3725,-0.648,137.5,98.5,0.46
9.98,31720.5,34516.7,-0.3706,-0.5869,137.5,98.5,0.46
10.0,31676.5,34558.1,-0.4299,-0.5358,137.5,98.5,0.46
10.02,31999.2,34912.5,0.0044,-0.0983,137.5,98.5,0.46
10.04,32058.0,35243.4,0.0836,0.3101,137.5,98.5,0.46
10.06,32192.7,35586.4,0.2649,0.7337,137.5,98.5,0.46
10.08,32413.1,35752.9,0.5614,0.9392,137.5,98.5,0.46
10.1,32325.1,35743.3,0.443,0.9273,137.5,98.5,0.46
10.12,32227.9,35747.9,0.3122,0.933,137.5,98.5,0.46
10.14,32219.2,35381.4,0.3005,0.4806,137.5,98.5,0.46
10.16,32121.8,35230.9,0.1694,0.2947,137.5,98.5,0.46
10.18,32138.1,35126.9,0.1914,0.1664,137.5,98.5,0.46
10.2,32047.2,35116.7,0.069,0.1537,137.5,98.5,0.46
10.22,32058.9,35035.3,0.0848,0.0534,137.5,98.5,0.46
10.24,31932.8,34954.9,-0.085,-0.0459,137.5,98.5,0.46
10.26,31976.0,34789.7,-0.0268,-0.2499,137.5,98.5,0.46
10.28,31845.5,34753.8,-0.2024,-0.2942,137.5,98.5,0.46
10.3,31949.9,34730.5,-0.062,-0.323,137.5,98.5,0.46
10.32,31912.0,34738.8,-0.113,-0.3127,137.5,98.5,0.46
10.34,31935.2,34663.9,-0.0817,-0.4052,137.5,98.5,0.46
10.36,31793.7,34637.0,-0.2721,-0.4384,137.5,98.5,0.46
10.38,31785.4,34575.2,-0.2833,-0.5148,137.5,98.5,0.46
10.4,31836.5,34487.3,-0.2145,-0.6233,137.5,98.5,0.46
10.42,31730.8,34538.2,-0.3567,-0.5604,137.5,98.5,0.46
10.44,31742.8,34704.9,-0.3407,-0.3546,137.5,98.5,0.46
10.46,32029.7,34909.3,0.0455,-0.1022,137.5,98.5,0.46
10.48,32102.9,35308.5,0.144,0.3906,137.5,98.5,0.46
10.5,32228.2,35542.7,0.3125,0.6796,137.5,98.5,0.46
10.52,32349.8,35739.3,0.4763,0.9224,137.5,98.5,0.46
10.54,32305.5,35840.3,0.4166,1.0471,137.5,98.5,0.46
10.56,32246.8,35606.5,0.3376,0.7584,137.5,98.5,0.46
10.58,32219.7,35378.0,0.3011,0.4764,137.5,98.5,0.46
10.6,32152.9,35190.3,0.2112,0.2446,137.5,98.5,0.46
10.62,31908.6,35165.5,-0.1176,0.2141,137.5,98.5,0.46
10.64,32076.0,35078.6,0.1077,0.1068,137.5,98.5,0.46
10.66,32044.8,35044.9,0.0658,0.0652,137.5,98.5,0.46
10.68,31824.4,35042.3,-0.2308,0.0619,137.5,98.5,0.46
10.7,31986.5,34829.9,-0.0126,-0.2003,137.5,98.5,0.46
10.72,31948.3,34758.7,-0.0641,-0.2881,137.5,98.5,0.46
10.74,31911.5,34644.5,-0.1136,-0.4291,137.5,98.5,0.46
10.76,31846.5,34754.0,-0.2011,-0.294,137.5,98.5,0.46
10.78,31837.5,34585.5,-0.2131,-0.502,137.5,98.5,0.46
10.8,31897.4,34696.0,-0.1326,-0.3656,137.5,98.5,0.46
10.82,31851.2,34559.6,-0.1947,-0.534,137.5,98.5,0.46
10.84,31750.5,34393.7,-0.3302,-0.7388,137.5,98.5,0.46
10.86,31781.4,34474.8,-0.2887,-0.6387,137.5,98.5,0.46
10.88,31911.3,34803.7,-0.1139,-0.2326,137.5,98.5,0.46
10.9,31984.7,34898.4,-0.0151,-0.1158,137.5,98.5,0.46
10.92,32084.8,35230.6,0.1195,0.2944,137.5,98.5,0.46
10.94,32303.3,35695.3,0.4137,0.8681,137.5,98.5,0.46
10.96,32345.5,35780.7,0.4704,0.9736,137.5,98.5,0.46
10.98,32241.9,35720.2,0.3311,0.8988,137.5,98.5,0.46
11.0,32235.8,35554.4,0.3229,0.6942,137.5,98.5,0.46
11.02,32093.2,35380.8,0.1309,0.4798,137.5,98.5,0.46
11.04,32080.3,35292.0,0.1136,0.3702,137.5,98.5,0.46
11.06,32055.1,35129.9,0.0796,0.17,137.5,98.5,0.46
11.08,32193.7,35158.0,0.2662,0.2048,137.5,98.5,0.46
11.1,32035.1,34982.5,0.0527,-0.0119,137.5,98.5,0.46
11.12,31966.0,34898.1,-0.0403,-0.1161,137.5,98.5,0.46
11.14,31959.6,34829.7,-0.0489,-0.2006,137.5,98.5,0.46
11.16,31883.3,34763.3,-0.1515,-0.2825,137.5,98.5,0.46
11.18,31909.4,34738.9,-0.1164,-0.3126,137.5,98.5,0.46
11.2,31861.8,34746.6,-0.1805,-0.3031,137.5,98.5,0.46
11.22,31864.2,34695.4,-0.1772,-0.3663,137.5,98.5,0.46
11.24,31859.0,34585.4,-0.1843,-0.5021,137.5,98.5,0.46
11.26,31817.7,34500.9,-0.2398,-0.6064,137.5,98.5,0.46
11.28,31784.5,34356.5,-0.2845,-0.7848,137.5,98.5,0.46
11.3,31792.6,34470.0,-0.2737,-0.6446,137.5,98.5,0.46
11.32,31941.6,34669.9,-0.0731,-0.3978,137.5,98.5,0.46
11.34,32080.8,35068.7,0.1142,0.0945,137.5,98.5,0.46
11.36,32134.4,35424.2,0.1864,0.5334,137.5,98.5,0.46
11.38,32241.7,35747.1,0.3307,0.932,137.5,98.5,0.46
11.4,32338.2,35805.2,0.4606,1.0037,137.5,98.5,0.46
11.42,32212.0,35678.7,0.2908,0.8476,137.5,98.5,0.46
11.44,32191.5,35536.1,0.2632,0.6715,137.5,98.5,0.46
11.46,32067.9,35357.8,0.0969,0.4514,137.5,98.5,0.46
11.48,32117.1,35262.6,0.1631,0.3339,137.5,98.5,0.46
11.5,32021.6,35206.8,0.0346,0.265,137.5,98.5,0.46
11.52,32048.6,34986.0,0.0709,-0.0076,137.5,98.5,0.46
11.54,31966.7,35002.3,-0.0393,0.0125,137.5,98.5,0.46
11.56,31892.3,34953.2,-0.1395,-0.0481,137.5,98.5,0.46
11.58,31937.7,34827.3,-0.0783,-0.2035,137.5,98.5,0.46
11.6,31844.3,34763.4,-0.2041,-0.2824,137.5,98.5,0.46
11.62,31891.0,34651.3,-0.1412,-0.4208,137.5,98.5,0.46
11.64,31857.8,34718.9,-0.1858,-0.3373,137.5,98.5,0.46
11.66,31856.6,34596.3,-0.1874,-0.4886,137.5,98.5,0.46
11.68,31832.1,34484.0,-0.2205,-0.6273,137.5,98.5,0.46
11.7,31896.2,34456.7,-0.1341,-0.661,137.5,98.5,0.46
11.72,31775.2,34506.7,-0.297,-0.5993,137.5,98.5,0.46
11.74,31873.6,34482.4,-0.1646,-0.6292,137.5,98.5,0.46
11.76,31978.0,34788.5,-0.0241,-0.2514,137.5,98.5,0.46
11.78,31986.9,35041.0,-0.0121,0.0603,137.5,98.5,0.46
11.8,32196.8,35375.2,0.2703,0.473,137.5,98.5,0.46
11.82,32277.5,35644.8,0.3789,0.8057,137.5,98.5,0.46
11.84,32315.4,35777.3,0.43,0.9693,137.5,98.5,0.46
11.86,32307.4,35714.0,0.4192,0.8911,137.5,98.5,0.46
11.88,32132.7,35512.1,0.1841,0.6419,137.5,98.5,0.46
11.9,32084.9,35233.4,0.1197,0.2978,137.5,98.5,0.46
11.92,32102.2,35117.8,0.143,0.1552,137.5,98.5,0.46
11.94,31943.9,35168.0,-0.07,0.2171,137.5,98.5,0.46
11.96,31984.7,35096.8,-0.0151,0.1292,137.5,98.5,0.46
11.98,31966.9,34965.1,-0.039,-0.0334,137.5,98.5,0.46
12.0,32001.6,34933.1,0.0076,-0.0728,137.5,98.5,0.46
12.02,31922.0,34830.2,-0.0994,-0.1999,137.5,98.5,0.46
12.04,31824.1,34657.1,-0.2312,-0.4136,137.5,98.5,0.46
12.06,31869.2,34658.8,-0.1705,-0.4115,137.5,98.5,0.46
12.08,31882.9,34644.5,-0.1521,-0.4291,137.5,98.5,0.46
12.1,31837.7,34587.5,-0.2129,-0.4995,137.5,98.5,0.46
12.12,31737.3,34529.1,-0.348,-0.5716,137.5,98.5,0.46
12.14,31742.8,34486.2,-0.3406,-0.6245,137.5,98.5,0.46
12.16,31831.6,34510.9,-0.2211,-0.5941,137.5,98.5,0.46
12.18,31814.9,34578.4,-0.2436,-0.5108,137.5,98.5,0.46
12.2,31941.0,34798.0,-0.0739,-0.2397,137.5,98.5,0.46
12.22,32085.6,35112.6,0.1207,0.1487,137.5,98.5,0.46
12.24,32178.8,35494.4,0.2461,0.6201,137.5,98.5,0.46
12.26,32312.6,35783.0,0.4262,0.9763,137.5,98.5,0.46
12.28,32365.0,35776.1,0.4967,0.9678,137.5,98.5,0.46
12.3,32298.6,35670.6,0.4074,0.8376,137.5,98.5,0.46
12.32,32176.6,35422.5,0.2431,0.5313,137.5,98.5,0.46
12.34,32120.3,35261.3,0.1674,0.3323,137.5,98.5,0.46
12.36,32046.8,35272.9,0.0685,0.3466,137.5,98.5,0.46
12.38,32102.0,35098.7,0.1427,0.1316,137.5,98.5,0.46
12.4,32042.0,35092.3,0.062,0.1236,137.5,98.5,0.46
12.42,31999.5,34992.0,0.0048,-0.0001,137.5,98.5,0.46
12.44,31972.5,34856.6,-0.0315,-0.1673,137.5,98.5,0.46
12.46,31920.6,34785.4,-0.1014,-0.2552,137.5,98.5,0.46
12.48,31784.2,34706.9,-0.2849,-0.3521,137.5,98.5,0.46
12.5,31847.4,34647.4,-0.1999,-0.4256,137.5,98.5,0.46
12.52,31770.3,34739.5,-0.3037,-0.3119,137.5,98.5,0.46
12.54,31853.2,34595.6,-0.192,-0.4895,137.5,98.5,0.46
12.56,31690.5,34641.2,-0.4111,-0.4333,137.5,98.5,0.46
12.58,31903.3,34470.3,-0.1246,-0.6442,137.5,98.5,0.46
12.6,31832.8,34515.6,-0.2195,-0.5882,137.5,98.5,0.46
12.62,31774.0,34568.5,-0.2986,-0.5229,137.5,98.5,0.46
12.64,31947.3,34821.9,-0.0654,-0.2101,137.5,98.5,0.46
12.66,32180.9,35205.3,0.2489,0.2632,137.5,98.5,0.46
12.68,32199.9,35534.0,0.2746,0.6689,137.5,98.5,0.46
12.7,32347.8,35717.9,0.4735,0.896,137.5,98.5,0.46
12.72,32306.2,35749.3,0.4175,0.9348,137.5,98.5,0.46
12.74,32210.9,35572.1,0.2893,0.716,137.5,98.5,0.46
12.76,32144.7,35480.2,0.2002,0.6026,137.5,98.5,0.46
12.78,32115.6,35238.7,0.1611,0.3044,137.5,98.5,0.46
12.8,32067.1,35066.9,0.0958,0.0923,137.5,98.5,0.46
12.82,32128.9,35085.7,0.1789,0.1155,137.5,98.5,0.46
12.84,32000.6,35128.4,0.0063,0.1682,137.5,98.5,0.46
12.86,31960.3,34937.6,-0.048,-0.0673,137.5,98.5,0.46
12.88,32004.2,34906.0,0.0112,-0.1063,137.5,98.5,0.46
12.9,31915.4,34741.5,-0.1084,-0.3095,137.5,98.5,0.46
12.92,31863.5,34722.3,-0.1782,-0.3332,137.5,98.5,0.46
12.94,31907.7,34695.3,-0.1188,-0.3665,137.5,98.5,0.46
12.96,31817.3,34654.0,-0.2404,-0.4174,137.5,98.5,0.46
12.98,31886.2,34625.0,-0.1476,-0.4532,137.5,98.5,0.46
13.0,31766.9,34501.1,-0.3082,-0.6061,137.5,98.5,0.46
13.02,31822.4,34485.3,-0.2335,-0.6257,137.5,98.5,0.46
13.04,31668.0,34467.8,-0.4413,-0.6473,137.5,98.5,0.46
13.06,31846.0,34678.0,-0.2017,-0.3878,137.5,98.5,0.46
13.08,32071.7,34899.8,0.102,-0.114,137.5,98.5,0.46
13.1,32130.5,35279.2,0.1811,0.3544,137.5,98.5,0.46
13.12,32227.9,35537.1,0.3122,0.6727,137.5,98.5,0.46
13.14,32294.6,35652.0,0.402,0.8146,137.5,98.5,0.46
13.16,32391.2,35776.6,0.5319,0.9685,137.5,98.5,0.46
13.18,32213.6,35577.5,0.2929,0.7226,137.5,98.5,0.46
13.2,32172.8,35445.8,0.2381,0.56,137.5,98.5,0.46
13.22,32202.6,35186.6,0.2781,0.2401,137.5,98.5,0.46
13.24,32046.4,35096.8,0.0679,0.1293,137.5,98.5,0.46
13.26,32122.8,35028.9,0.1707,0.0453,137.5,98.5,0.46
13.28,32076.3,35072.7,0.1082,0.0994,137.5,98.5,0.46
13.3,32011.2,34961.6,0.0205,-0.0377,137.5,98.5,0.46
13.32,31948.3,34738.3,-0.0641,-0.3134,137.5,98.5,0.46
13.34,31823.0,34767.5,-0.2327,-0.2774,137.5,98.5,0.46
13.36,31839.5,34684.2,-0.2105,-0.3801,137.5,98.5,0.46
13.38,31769.2,34665.3,-0.3051,-0.4035,137.5,98.5,0.46
13.4,31785.9,34576.6,-0.2827,-0.5129,137.5,98.5,0.46
13.42,31856.4,34555.6,-0.1878,-0.5389,137.5,98.5,0.46
13.44,31865.9,34513.2,-0.1749,-0.5912,137.5,98.5,0.46
13.46,31813.5,34377.2,-0.2456,-0.7591,137.5,98.5,0.46
13.48,31831.1,34478.1,-0.2218,-0.6345,137.5,98.5,0.46
13.5,31802.4,34644.3,-0.2604,-0.4294,137.5,98.5,0.46
13.52,32033.8,34992.0,0.051,-0.0001,137.5,98.5,0.46
13.54,32197.1,35331.0,0.2707,0.4184,137.5,98.5,0.46
13.56,32263.0,35628.6,0.3594,0.7857,137.5,98.5,0.46
13.58,32338.1,35750.9,0.4605,0.9367,137.5,98.5,0.46
13.6,32241.5,35691.4,0.3305,0.8633,137.5,98.5,0.46
13.62,32246.3,35582.9,0.3369,0.7294,137.5,98.5,0.46
13.64,32193.5,35272.0,0.2659,0.3455,137.5,98.5,0.46
13.66,32016.2,35303.3,0.0273,0.3841,137.5,98.5,0.46
13.68,32001.2,35119.0,0.0071,0.1566,137.5,98.5,0.46
13.7,31949.8,35073.7,-0.062,0.1007,137.5,98.5,0.46
13.72,31975.9,34961.6,-0.0269,-0.0377,137.5,98.5,0.46
13.74,32005.6,34892.5,0.0131,-0.123,137.5,98.5,0.46
13.76,31920.2,34841.3,-0.1019,-0.1862,137.5,98.5,0.46
13.78,31907.6,34708.4,-0.1189,-0.3502,137.5,98.5,0.46
13.8,32055.0,34718.0,0.0794,-0.3384,137.5,98.5,0.46
13.82,31817.6,34706.8,-0.2399,-0.3523,137.5,98.5,0.46
13.84,31839.6,34597.4,-0.2104,-0.4873,137.5,98.5,0.46
13.86,31810.1,34576.0,-0.25,-0.5137,137.5,98.5,0.46
13.88,31835.5,34543.6,-0.2159,-0.5537,137.5,98.5,0.46
13.9,31785.6,34464.4,-0.283,-0.6515,137.5,98.5,0.46
13.92,31765.2,34522.6,-0.3105,-0.5797,137.5,98.5,0.46
13.94,31878.4,34723.4,-0.1582,-0.3317,137.5,98.5,0.46
13.96,32000.1,35026.8,0.0057,0.0428,137.5,98.5,0.46
13.98,32193.3,35427.6,0.2656,0.5376,137.5,98.5,0.46
14.0,32203.5,35738.1,0.2793,0.921,137.5,98.5,0.46
14.02,32342.3,35766.6,0.4661,0.9561,137.5,98.5,0.46
14.04,32280.9,35738.8,0.3835,0.9218,137.5,98.5,0.46
14.06,32144.8,35440.2,0.2004,0.5531,137.5,98.5,0.46
14.08,32073.1,35268.4,0.1039,0.3411,137.5,98.5,0.46
14.1,32018.1,35170.0,0.0298,0.2196,137.5,98.5,0.46
14.12,32106.2,35128.2,0.1484,0.168,137.5,98.5,0.46
14.14,31987.2,35030.5,-0.0118,0.0474,137.5,98.5,0.46
14.16,31986.8,34974.7,-0.0123,-0.0215,137.5,98.5,0.46
14.18,32026.1,34891.2,0.0406,-0.1246,137.5,98.5,0.46
14.2,31890.1,34800.3,-0.1424,-0.2368,137.5,98.5,0.46
14.22,31972.3,34706.9,-0.0318,-0.3522,137.5,98.5,0.46
14.24,31849.9,34690.8,-0.1965,-0.372,137.5,98.5,0.46
14.26,31803.0,34653.0,-0.2596,-0.4187,137.5,98.5,0.46
14.28,31867.2,34622.5,-0.1732,-0.4563,137.5,98.5,0.46
14.3,31939.9,34593.1,-0.0754,-0.4926,137.5,98.5,0.46
14.32,31794.3,34552.4,-0.2713,-0.5428,137.5,98.5,0.46
14.34,31835.9,34392.9,-0.2153,-0.7398,137.5,98.5,0.46
14.36,31888.7,34596.8,-0.1443,-0.488,137.5,98.5,0.46
14.38,31929.9,34817.6,-0.0889,-0.2154,137.5,98.5,0.46
14.4,32020.4,35194.3,0.033,0.2495,137.5,98.5,0.46
14.42,32188.5,35486.5,0.2592,0.6103,137.5,98.5,0.46
14.44,32271.8,35660.8,0.3712,0.8254,137.5,98.5,0.46
14.46,32291.6,35639.2,0.3979,0.7988,137.5,98.5,0.46
14.48,32281.3,35616.2,0.384,0.7704,137.5,98.5,0.46
14.5,32191.5,35472.4,0.2632,0.5929,137.5,98.5,0.46
14.52,32122.6,35272.5,0.1704,0.3461,137.5,98.5,0.46
14.54,32122.4,35197.1,0.1703,0.253,137.5,98.5,0.46
14.56,32067.1,35158.0,0.0958,0.2048,137.5,98.5,0.46
14.58,31981.4,35010.7,-0.0195,0.0229,137.5,98.5,0.46
14.6,31909.3,34960.4,-0.1166,-0.0391,137.5,98.5,0.46
14.62,31914.4,34845.1,-0.1096,-0.1815,137.5,98.5,0.46
14.64,31858.1,34780.6,-0.1855,-0.2611,137.5,98.5,0.46
14.66,31858.5,34599.9,-0.185,-0.4842,137.5,98.5,0.46
14.68,31920.6,34613.0,-0.1014,-0.468,137.5,98.5,0.46
14.7,31824.4,34687.7,-0.2309,-0.3758,137.5,98.5,0.46
14.72,31852.2,34691.1,-0.1934,-0.3717,137.5,98.5,0.46
14.74,31827.9,34500.3,-0.2261,-0.6071,137.5,98.5,0.46
14.76,31772.7,34471.3,-0.3003,-0.643,137.5,98.5,0.46
14.78,31751.5,34496.0,-0.3289,-0.6125,137.5,98.5,0.46
14.8,31772.0,34632.4,-0.3013,-0.4441,137.5,98.5,0.46
14.82,31913.5,34837.4,-0.1109,-0.191,137.5,98.5,0.46
14.84,32033.2,35232.4,0.0502,0.2966,137.5,98.5,0.46
14.86,32147.0,35597.6,0.2034,0.7475,137.5,98.5,0.46
14.88,32288.3,35718.8,0.3935,0.8971,137.5,98.5,0.46
14.9,32306.2,35731.1,0.4175,0.9123,137.5,98.5,0.46
14.92,32239.6,35643.3,0.328,0.8039,137.5,98.5,0.46
14.94,32151.3,35447.1,0.2091,0.5617,137.5,98.5,0.46
14.96,32005.9,35327.0,0.0134,0.4133,137.5,98.5,0.46
14.98,31956.8,35183.0,-0.0526,0.2357,137.5,98.5,0.46
15.0,32085.4,35135.5,0.1204,0.177,137.5,98.5,0.46
15.02,32058.5,35018.9,0.0842,0.0331,137.5,98.5,0.46
15.04,31984.5,34924.4,-0.0153,-0.0836,137.5,98.5,0.46
15.06,31922.0,34811.6,-0.0995,-0.2228,137.5,98.5,0.46
15.08,31966.3,34787.0,-0.0399,-0.2533,137.5,98.5,0.46
15.1,31969.2,34767.5,-0.036,-0.2773,137.5,98.5,0.46
15.12,31834.7,34641.6,-0.217,-0.4327,137.5,98.5,0.46
15.14,31830.3,34646.9,-0.2229,-0.4262,137.5,98.5,0.46
15.16,31777.7,34587.3,-0.2936,-0.4997,137.5,98.5,0.46
15.18,31817.3,34524.6,-0.2403,-0.5771,137.5,98.5,0.46
15.2,31705.3,34393.4,-0.3912,-0.7392,137.5,98.5,0.46
15.22,31782.6,34441.2,-0.287,-0.6801,137.5,98.5,0.46
15.24,31863.5,34687.7,-0.1782,-0.3758,137.5,98.5,0.46
15.26,31943.0,34876.4,-0.0712,-0.1429,137.5,98.5,0.46
15.28,32031.5,35279.7,0.0479,0.355,137.5,98.5,0.46
15.3,32266.2,35535.9,0.3637,0.6713,137.5,98.5,0.46
15.32,32279.5,35726.0,0.3816,0.906,137.5,98.5,0.46
15.34,32305.2,35703.7,0.4162,0.8784,137.5,98.5,0.46
15.36,32320.7,35537.7,0.4371,0.6735,137.5,98.5,0.46
15.38,32095.7,35373.9,0.1343,0.4713,137.5,98.5,0.46
15.4,32148.2,35176.8,0.2049,0.2279,137.5,98.5,0.46
15.42,32020.3,35139.7,0.0328,0.1821,137.5,98.5,0.46
15.44,32047.8,35053.3,0.0698,0.0755,137.5,98.5,0.46
15.46,32059.6,35050.3,0.0856,0.0718,137.5,98.5,0.46
15.48,31956.8,34890.7,-0.0526,-0.1252,137.5,98.5,0.46
15.5,31931.1,34887.8,-0.0872,-0.1288,137.5,98.5,0.46
15.52,31902.3,34741.8,-0.126,-0.3091,137.5,98.5,0.46
15.54,31932.6,34709.6,-0.0851,-0.3488,137.5,98.5,0.46
15.56,31932.2,34648.6,-0.0857,-0.424,137.5,98.5,0.46
15.58,31805.0,34723.4,-0.2569,-0.3318,137.5,98.5,0.46
15.6,31885.9,34623.0,-0.1481,-0.4557,137.5,98.5,0.46
15.62,31888.1,34580.5,-0.145,-0.5082,137.5,98.5,0.46
15.64,31752.6,34460.0,-0.3274,-0.657,137.5,98.5,0.46
15.66,31642.2,34492.4,-0.4761,-0.6169,137.5,98.5,0.46
15.68,31771.5,34692.3,-0.302,-0.3702,137.5,98.5,0.46
15.7,31917.7,35026.8,-0.1052,0.0428,137.5,98.5,0.46
15.72,32106.8,35285.6,0.1492,0.3623,137.5,98.5,0.46
15.74,32266.2,35712.7,0.3637,0.8896,137.5,98.5,0.46
15.76,32333.4,35818.5,0.4541,1.0201,137.5,98.5,0.46
15.78,32257.0,35794.4,0.3513,0.9904,137.5,98.5,0.46
15.8,32147.8,35620.2,0.2044,0.7754,137.5,98.5,0.46
15.82,32139.7,35428.3,0.1935,0.5384,137.5,98.5,0.46
15.84,32113.1,35116.7,0.1577,0.1537,137.5,98.5,0.46
15.86,32096.8,35051.5,0.1358,0.0732,137.5,98.5,0.46
15.88,32070.6,35054.0,0.1005,0.0763,137.5,98.5,0.46
15.9,31915.8,35004.7,-0.1078,0.0155,137.5,98.5,0.46
15.92,31968.3,34999.1,-0.0371,0.0086,137.5,98.5,0.46
15.94,31937.7,34852.5,-0.0783,-0.1724,137.5,98.5,0.46
15.96,31893.8,34827.8,-0.1375,-0.2028,137.5,98.5,0.46
15.98,31805.5,34728.5,-0.2563,-0.3255,137.5,98.5,0.46
16.0,31889.7,34690.5,-0.1429,-0.3724,137.5,98.5,0.46
16.02,32009.2,34648.5,0.0179,-0.4242,137.5,98.5,0.46
16.04,31889.9,34536.0,-0.1426,-0.5631,137.5,98.5,0.46
16.06,31822.2,34419.9,-0.2338,-0.7065,137.5,98.5,0.46
16.08,31810.7,34482.5,-0.2493,-0.6291,137.5,98.5,0.46
16.1,31770.8,34594.4,-0.3029,-0.4911,137.5,98.5,0.46
16.12,31925.5,34682.4,-0.0947,-0.3824,137.5,98.5,0.46
16.14,31985.5,35018.4,-0.0141,0.0324,137.5,98.5,0.46
16.16,32136.7,35384.6,0.1894,0.4845,137.5,98.5,0.46
16.18,32321.3,35616.0,0.4378,0.7702,137.5,98.5,0.46
16.2,32217.6,35740.1,0.2983,0.9234,137.5,98.5,0.46
16.22,32281.1,35755.4,0.3838,0.9423,137.5,98.5,0.46
16.24,32154.5,35545.6,0.2134,0.6833,137.5,98.5,0.46
16.26,32012.9,35193.9,0.0228,0.249,137.5,98.5,0.46
16.28,31997.4,35189.1,0.002,0.2432,137.5,98.5,0.46
16.3,32045.9,35134.7,0.0672,0.176,137.5,98.5,0.46
16.32,32042.3,35073.3,0.0624,0.1003,137.5,98.5,0.46
16.34,32024.3,34995.7,0.0382,0.0044,137.5,98.5,0.46
16.36,32038.0,34946.8,0.0566,-0.056,137.5,98.5,0.46
16.38,31966.3,34781.1,-0.0398,-0.2605,137.5,98.5,0.46
16.4,31763.1,34703.6,-0.3133,-0.3562,137.5,98.5,0.46
16.42,31869.7,34645.4,-0.1698,-0.4281,137.5,98.5,0.46
16.44,31972.8,34727.9,-0.0312,-0.3263,137.5,98.5,0.46
16.46,31786.1,34725.5,-0.2824,-0.3292,137.5,98.5,0.46
16.48,31802.0,34447.7,-0.261,-0.6721,137.5,98.5,0.46
16.5,31734.9,34411.1,-0.3512,-0.7174,137.5,98.5,0.46
16.52,31752.3,34393.4,-0.3279,-0.7392,137.5,98.5,0.46
16.54,31804.2,34457.2,-0.258,-0.6604,137.5,98.5,0.46
16.56,31839.3,34712.4,-0.2108,-0.3453,137.5,98.5,0.46
16.58,31999.0,35021.1,0.0041,0.0358,137.5,98.5,0.46
16.6,32206.3,35499.4,0.2831,0.6263,137.5,98.5,0.46
16.62,32311.5,35663.6,0.4247,0.829,137.5,98.5,0.46
16.64,32261.4,35772.5,0.3572,0.9633,137.5,98.5,0.46
16.66,32333.6,35623.8,0.4545,0.7798,137.5,98.5,0.46
16.68,32209.9,35454.7,0.288,0.571,137.5,98.5,0.46
16.7,32191.2,35309.6,0.2628,0.3919,137.5,98.5,0.46
16.72,32013.5,35197.1,0.0237,0.2531,137.5,98.5,0.46
16.74,32048.4,35066.1,0.0707,0.0913,137.5,98.5,0.46
16.76,31984.9,35039.5,-0.0148,0.0585,137.5,98.5,0.46
16.78,31983.7,35112.6,-0.0164,0.1487,137.5,98.5,0.46
16.8,32074.1,34855.8,0.1052,-0.1683,137.5,98.5,0.46
16.82,31933.2,34811.8,-0.0845,-0.2226,137.5,98.5,0.46
16.84,31909.2,34764.3,-0.1167,-0.2812,137.5,98.5,0.46
16.86,31880.7,34665.1,-0.155,-0.4037,137.5,98.5,0.46
16.88,31791.0,34569.9,-0.2758,-0.5212,137.5,98.5,0.46
16.9,31813.4,34556.6,-0.2457,-0.5377,137.5,98.5,0.46
16.92,31761.6,34521.4,-0.3153,-0.5811,137.5,98.5,0.46
16.94,31715.6,34432.8,-0.3773,-0.6905,137.5,98.5,0.46
16.96,31611.0,34394.6,-0.518,-0.7377,137.5,98.5,0.46
16.98,31887.7,34599.7,-0.1457,-0.4844,137.5,98.5,0.46
17.0,31919.6,34793.6,-0.1027,-0.2451,137.5,98.5,0.46
17.02,31971.3,35158.3,-0.0332,0.2051,137.5,98.5,0.46
17.04,32233.7,35596.6,0.32,0.7463,137.5,98.5,0.46
17.06,32276.9,35778.2,0.3782,0.9705,137.5,98.5,0.46
17.08,32265.3,35806.4,0.3625,1.0053,137.5,98.5,0.46
17.1,32187.2,35577.3,0.2574,0.7224,137.5,98.5,0.46
17.12,32095.1,35434.6,0.1335,0.5462,137.5,98.5,0.46
17.14,32064.8,35191.2,0.0927,0.2457,137.5,98.5,0.46
17.16,32059.4,35175.5,0.0854,0.2263,137.5,98.5,0.46
17.18,32044.4,35137.7,0.0653,0.1797,137.5,98.5,0.46
17.2,32027.4,35088.9,0.0423,0.1194,137.5,98.5,0.46
17.22,31955.1,34995.3,-0.0549,0.0039,137.5,98.5,0.46
17.24,31904.2,34799.9,-0.1234,-0.2373,137.5,98.5,0.46
17.26,31933.4,34724.1,-0.0841,-0.3308,137.5,98.5,0.46
17.28,31873.3,34692.4,-0.165,-0.37,137.5,98.5,0.46
17.3,31913.2,34666.4,-0.1113,-0.4021,137.5,98.5,0.46
17.32,31856.4,34693.9,-0.1877,-0.3682,137.5,98.5,0.46
17.34,31736.7,34637.2,-0.3488,-0.4382,137.5,98.5,0.46
17.36,31868.0,34588.7,-0.1721,-0.4981,137.5,98.5,0.46
17.38,31814.8,34391.4,-0.2438,-0.7416,137.5,98.5,0.46
17.4,31717.0,34466.7,-0.3754,-0.6487,137.5,98.5,0.46
17.42,31790.4,34620.0,-0.2765,-0.4593,137.5,98.5,0.46
17.44,31966.1,34894.0,-0.0401,-0.1212,137.5,98.5,0.46
17.46,32152.2,35196.6,0.2103,0.2524,137.5,98.5,0.46
17.48,32270.1,35592.1,0.369,0.7407,137.5,98.5,0.46
17.5,32388.8,35664.5,0.5287,0.8301,137.5,98.5,0.46
17.52,32240.4,35796.1,0.3291,0.9925,137.5,98.5,0.46
17.54,32281.8,35559.9,0.3847,0.7009,137.5,98.5,0.46
17.56,32078.5,35459.6,0.1111,0.5771,137.5,98.5,0.46
17.58,32050.1,35243.5,0.073,0.3103,137.5,98.5,0.46
17.6,32053.4,35040.2,0.0773,0.0594,137.5,98.5,0.46
17.62,32058.2,35105.8,0.0838,0.1403,137.5,98.5,0.46
17.64,32005.9,35027.7,0.0134,0.0439,137.5,98.5,0.46
17.66,31964.6,34999.9,-0.0421,0.0096,137.5,98.5,0.46
17.68,31997.4,34830.7,0.002,-0.1993,137.5,98.5,0.46
17.7,31965.0,34778.2,-0.0416,-0.2641,137.5,98.5,0.46
17.72,31834.5,34744.7,-0.2172,-0.3055,137.5,98.5,0.46
17.74,31952.4,34677.8,-0.0585,-0.388,137.5,98.5,0.46
17.76,31843.4,34691.2,-0.2053,-0.3715,137.5,98.5,0.46
17.78,31910.8,34640.5,-0.1146,-0.4342,137.5,98.5,0.46
17.8,31785.1,34588.1,-0.2837,-0.4988,137.5,98.5,0.46
17.82,31811.1,34570.1,-0.2487,-0.521,137.5,98.5,0.46
17.84,31833.0,34425.8,-0.2192,-0.6992,137.5,98.5,0.46
17.86,31951.9,34639.0,-0.0592,-0.4359,137.5,98.5,0.46
17.88,32050.2,34930.3,0.073,-0.0764,137.5,98.5,0.46
17.9,32146.5,35285.3,0.2026,0.362,137.5,98.5,0.46
17.92,32169.6,35534.5,0.2337,0.6695,137.5,98.5,0.46
17.94,32287.7,35673.0,0.3926,0.8405,137.5,98.5,0.46
17.96,32417.6,35673.0,0.5675,0.8405,137.5,98.5,0.46
17.98,32218.9,35484.5,0.3001,0.6079,137.5,98.5,0.46
18.0,32152.3,35399.6,0.2104,0.5031,137.5,98.5,0.46
18.02,32166.1,35245.9,0.229,0.3133,137.5,98.5,0.46
18.04,32080.6,35124.9,0.114,0.1639,137.5,98.5,0.46
18.06,31971.4,35067.6,-0.033,0.0932,137.5,98.5,0.46
18.08,32008.0,35118.7,0.0162,0.1562,137.5,98.5,0.46
18.1,32028.2,34924.3,0.0435,-0.0837,137.5,98.5,0.46
18.12,31973.0,34872.3,-0.0309,-0.1479,137.5,98.5,0.46
18.14,31887.8,34626.7,-0.1455,-0.4512,137.5,98.5,0.46
18.16,31867.2,34724.0,-0.1732,-0.331,137.5,98.5,0.46
18.18,31835.4,34579.8,-0.2161,-0.5091,137.5,98.5,0.46
18.2,31873.3,34699.8,-0.165,-0.3609,137.5,98.5,0.46
18.22,31850.5,34530.3,-0.1957,-0.5701,137.5,98.5,0.46
18.24,31795.3,34455.7,-0.27,-0.6623,137.5,98.5,0.46
18.26,31789.7,34459.1,-0.2776,-0.658,137.5,98.5,0.46
18.28,31807.2,34522.1,-0.254,-0.5803,137.5,98.5,0.46
18.3,31840.0,34746.0,-0.2098,-0.3038,137.5,98.5,0.46
18.32,31974.4,35055.8,-0.029,0.0786,137.5,98.5,0.46
18.34,32094.3,35379.9,0.1324,0.4787,137.5,98.5,0.46
18.36,32234.7,35649.2,0.3213,0.8112,137.5,98.5,0.46
18.38,32268.9,35718.4,0.3673,0.8966,137.5,98.5,0.46
18.4,32244.8,35754.8,0.3349,0.9415,137.5,98.5,0.46
18.42,32258.6,35580.0,0.3535,0.7258,137.5,98.5,0.46
18.44,32100.4,35320.7,0.1406,0.4057,137.5,98.5,0.46
18.46,32007.5,35106.8,0.0156,0.1416,137.5,98.5,0.46
18.48,32122.8,35108.6,0.1707,0.1438,137.5,98.5,0.46
18.5,32101.5,35097.3,0.1421,0.1298,137.5,98.5,0.46
18.52,32025.0,35006.2,0.0392,0.0173,137.5,98.5,0.46
18.54,31920.9,35014.1,-0.101,0.0271,137.5,98.5,0.46
18.56,31899.6,34768.8,-0.1296,-0.2757,137.5,98.5,0.46
18.58,31858.3,34751.0,-0.1851,-0.2977,137.5,98.5,0.46
18.6,31880.0,34722.4,-0.156,-0.333,137.5,98.5,0.46
18.62,31834.3,34689.0,-0.2175,-0.3742,137.5,98.5,0.46
18.64,31856.3,34679.3,-0.1879,-0.3862,137.5,98.5,0.46
18.66,31685.3,34533.4,-0.418,-0.5663,137.5,98.5,0.46
18.68,31812.8,34418.5,-0.2464,-0.7082,137.5,98.5,0.46
18.7,31707.9,34430.4,-0.3876,-0.6935,137.5,98.5,0.46
18.72,31821.5,34504.8,-0.2347,-0.6017,137.5,98.5,0.46
18.74,31850.7,34778.7,-0.1954,-0.2635,137.5,98.5,0.46
18.76,31958.9,35193.6,-0.0498,0.2488,137.5,98.5,0.46
18.78,32149.6,35435.6,0.2068,0.5475,137.5,98.5,0.46
18.8,32372.1,35666.7,0.5062,0.8327,137.5,98.5,0.46
18.82,32353.5,35792.7,0.4813,0.9883,137.5,98.5,0.46
18.84,32282.3,35662.2,0.3855,0.8272,137.5,98.5,0.46
18.86,32239.7,35445.2,0.3281,0.5593,137.5,98.5,0.46
18.88,32177.7,35367.8,0.2447,0.4637,137.5,98.5,0.46
18.9,32047.1,35169.8,0.0688,0.2194,137.5,98.5,0.46
18.92,32034.2,35043.9,0.0516,0.064,137.5,98.5,0.46
18.94,32041.6,35082.4,0.0615,0.1114,137.5,98.5,0.46
18.96,31925.0,35061.4,-0.0955,0.0856,137.5,98.5,0.46
18.98,31962.4,34965.9,-0.0451,-0.0324,137.5,98.5,0.46
19.0,31855.4,34847.6,-0.1891,-0.1784,137.5,98.5,0.46
19.02,31913.2,34701.7,-0.1114,-0.3586,137.5,98.5,0.46
19.04,31820.8,34603.1,-0.2357,-0.4803,137.5,98.5,0.46
19.06,31908.0,34624.8,-0.1183,-0.4535,137.5,98.5,0.46
19.08,31891.9,34657.0,-0.1399,-0.4138,137.5,98.5,0.46
19.1,31811.6,34508.0,-0.248,-0.5976,137.5,98.5,0.46
19.12,31850.2,34492.6,-0.1961,-0.6167,137.5,98.5,0.46
19.14,31668.8,34434.1,-0.4402,-0.6889,137.5,98.5,0.46
19.16,31856.2,34577.3,-0.188,-0.5122,137.5,98.5,0.46
19.18,31959.6,34782.8,-0.0488,-0.2585,137.5,98.5,0.46
19.2,31963.1,35167.0,-0.0441,0.2159,137.5,98.5,0.46
19.22,32221.3,35522.8,0.3033,0.6551,137.5,98.5,0.46
19.24,32333.0,35867.1,0.4536,1.0802,137.5,98.5,0.46
19.26,32335.2,35638.6,0.4566,0.798,137.5,98.5,0.46
19.28,32286.0,35646.7,0.3903,0.8081,137.5,98.5,0.46
19.3,32218.0,35471.2,0.2989,0.5914,137.5,98.5,0.46
19.32,32041.2,35229.5,0.061,0.293,137.5,98.5,0.46
19.34,32052.1,35165.0,0.0756,0.2134,137.5,98.5,0.46
19.36,32049.3,35166.5,0.0719,0.2152,137.5,98.5,0.46
19.38,32004.4,34940.8,0.0114,-0.0634,137.5,98.5,0.46
19.4,32045.3,35043.0,0.0665,0.0628,137.5,98.5,0.46
19.42,31861.2,34915.2,-0.1813,-0.095,137.5,98.5,0.46
19.44,31930.5,34739.1,-0.088,-0.3123,137.5,98.5,0.46
19.46,31825.0,34698.0,-0.23,-0.3631,137.5,98.5,0.46
19.48,31838.2,34601.6,-0.2122,-0.4822,137.5,98.5,0.46
19.5,31932.7,34671.6,-0.085,-0.3957,137.5,98.5,0.46
19.52,31825.4,34655.3,-0.2294,-0.4158,137.5,98.5,0.46
19.54,31837.6,34479.2,-0.213,-0.6333,137.5,98.5,0.46
19.56,31654.2,34515.2,-0.4598,-0.5888,137.5,98.5,0.46
19.58,31785.6,34523.6,-0.2831,-0.5784,137.5,98.5,0.46
19.6,31802.8,34608.6,-0.2599,-0.4735,137.5,98.5,0.46
19.62,31872.3,34806.6,-0.1663,-0.2291,137.5,98.5,0.46
19.64,32136.9,35244.0,0.1897,0.311,137.5,98.5,0.46
19.66,32232.8,35596.8,0.3187,0.7464,137.5,98.5,0.46
19.68,32302.1,35653.3,0.412,0.8163,137.5,98.5,0.46
19.7,32320.1,35785.8,0.4363,0.9798,137.5,98.5,0.46
19.72,32321.7,35625.9,0.4384,0.7823,137.5,98.5,0.46
19.74,32163.7,35430.1,0.2258,0.5407,137.5,98.5,0.46
19.76,32118.4,35255.3,0.1648,0.3249,137.5,98.5,0.46
19.78,32031.3,35255.9,0.0477,0.3256,137.5,98.5,0.46
19.8,32068.3,35129.6,0.0974,0.1697,137.5,98.5,0.46
19.82,31992.3,34937.0,-0.0049,-0.0681,137.5,98.5,0.46
19.84,31937.0,34964.7,-0.0793,-0.0338,137.5,98.5,0.46
19.86,31906.4,34770.8,-0.1205,-0.2733,137.5,98.5,0.46
19.88,31880.3,34740.6,-0.1556,-0.3105,137.5,98.5,0.46
19.9,31909.2,34707.1,-0.1167,-0.3519,137.5,98.5,0.46
19.92,31842.5,34594.6,-0.2064,-0.4908,137.5,98.5,0.46
19.94,31796.7,34719.7,-0.2682,-0.3363,137.5,98.5,0.46
19.96,31763.2,34663.5,-0.3131,-0.4057,137.5,98.5,0.46
19.98,31833.8,34507.5,-0.2181,-0.5983,137.5,98.5,0.46
20.0,31766.8,34430.4,-0.3083,-0.6935,137.5,98.5,0.46
20.02,31720.1,34547.3,-0.3711,-0.5492,137.5,98.5,0.46
20.04,31837.6,34592.9,-0.213,-0.4928,137.5,98.5,0.46
20.06,31879.6,34902.2,-0.1566,-0.111,137.5,98.5,0.46
20.08,32064.4,35262.2,0.0921,0.3334,137.5,98.5,0.46
20.1,32216.1,35703.4,0.2963,0.8781,137.5,98.5,0.46
20.12,32306.9,35706.1,0.4184,0.8814,137.5,98.5,0.46
20.14,32285.9,35740.9,0.3903,0.9244,137.5,98.5,0.46
20.16,32231.2,35556.9,0.3166,0.6972,137.5,98.5,0.46
20.18,32280.3,35428.4,0.3827,0.5386,137.5,98.5,0.46
20.2,32030.0,35196.5,0.0459,0.2523,137.5,98.5,0.46
20.22,32007.8,35079.7,0.016,0.1081,137.5,98.5,0.46
20.24,32008.5,35022.9,0.0169,0.038,137.5,98.5,0.46
20.26,31990.1,34897.7,-0.0078,-0.1166,137.5,98.5,0.46
20.28,31991.7,34901.3,-0.0057,-0.1121,137.5,98.5,0.46
20.3,31910.8,34872.3,-0.1146,-0.1479,137.5,98.5,0.46
20.32,31891.7,34688.8,-0.1403,-0.3745,137.5,98.5,0.46
20.34,31830.0,34689.6,-0.2233,-0.3735,137.5,98.5,0.46
20.36,31812.6,34652.5,-0.2467,-0.4193,137.5,98.5,0.46
20.38,31835.7,34639.7,-0.2156,-0.435,137.5,98.5,0.46
20.4,31866.1,34647.9,-0.1747,-0.425,137.5,98.5,0.46
20.42,31797.7,34579.0,-0.2668,-0.51,137.5,98.5,0.46
20.44,31811.0,34409.0,-0.2488,-0.7199,137.5,98.5,0.46
20.46,31669.3,34493.1,-0.4396,-0.6161,137.5,98.5,0.46
20.48,31891.9,34654.3,-0.14,-0.417,137.5,98.5,0.46
20.5,31997.6,34951.6,0.0023,-0.0501,137.5,98.5,0.46
20.52,32113.4,35287.5,0.1582,0.3646,137.5,98.5,0.46
20.54,32283.2,35553.8,0.3866,0.6934,137.5,98.5,0.46
20.56,32316.4,35759.4,0.4312,0.9472,137.5,98.5,0.46
20.58,32321.4,35679.5,0.438,0.8486,137.5,98.5,0.46
20.6,32209.4,35634.0,0.2873,0.7924,137.5,98.5,0.46
20.62,32193.2,35454.0,0.2654,0.5702,137.5,98.5,0.46
20.64,32062.7,35145.8,0.0898,0.1897,137.5,98.5,0.46
20.66,31981.6,35122.5,-0.0193,0.161,137.5,98.5,0.46
20.68,32034.3,35079.9,0.0517,0.1084,137.5,98.5,0.46
20.7,31916.5,34972.7,-0.1069,-0.024,137.5,98.5,0.46
20.72,32019.4,34919.5,0.0316,-0.0897,137.5,98.5,0.46
20.74,31943.5,34883.1,-0.0706,-0.1346,137.5,98.5,0.46
20.76,31932.6,34744.8,-0.0852,-0.3054,137.5,98.5,0.46
20.78,31926.5,34618.8,-0.0934,-0.4609,137.5,98.5,0.46
20.8,31901.8,34604.7,-0.1267,-0.4783,137.5,98.5,0.46
20.82,31806.4,34718.5,-0.255,-0.3379,137.5,98.5,0.46
20.84,31715.5,34598.1,-0.3773,-0.4865,137.5,98.5,0.46
20.86,31801.3,34397.8,-0.2619,-0.7338,137.5,98.5,0.46
20.88,31752.7,34513.8,-0.3273,-0.5905,137.5,98.5,0.46
20.9,31773.2,34428.9,-0.2997,-0.6953,137.5,98.5,0.46
20.92,31925.8,34699.7,-0.0943,-0.361,137.5,98.5,0.46
20.94,32072.3,35049.4,0.1029,0.0707,137.5,98.5,0.46
20.96,32205.1,35436.9,0.2815,0.5491,137.5,98.5,0.46
20.98,32353.8,35720.3,0.4816,0.8989,137.5,98.5,0.46
21.0,32380.0,35794.6,0.5169,0.9907,137.5,98.5,0.46
21.02,32207.4,35769.2,0.2846,0.9593,137.5,98.5,0.46
21.04,32200.3,35538.0,0.2751,0.6739,137.5,98.5,0.46
21.06,32106.4,35281.3,0.1486,0.3569,137.5,98.5,0.46
21.08,32175.3,35223.3,0.2413,0.2854,137.5,98.5,0.46
21.1,32057.6,35041.4,0.083,0.0608,137.5,98.5,0.46
21.12,32048.5,35144.4,0.0708,0.188,137.5,98.5,0.46
21.14,32042.2,34968.0,0.0622,-0.0298,137.5,98.5,0.46
21.16,31956.9,34831.6,-0.0525,-0.1982,137.5,98.5,0.46
21.18,31917.5,34870.9,-0.1055,-0.1496,137.5,98.5,0.46
21.2,31924.2,34741.6,-0.0965,-0.3092,137.5,98.5,0.46
21.22,31883.6,34628.0,-0.1511,-0.4495,137.5,98.5,0.46
21.24,31905.6,34672.8,-0.1215,-0.3942,137.5,98.5,0.46
21.26,31840.3,34645.8,-0.2094,-0.4276,137.5,98.5,0.46
21.28,31726.7,34560.8,-0.3622,-0.5325,137.5,98.5,0.46
21.3,31703.7,34557.6,-0.3933,-0.5364,137.5,98.5,0.46
21.32,31689.5,34557.6,-0.4123,-0.5364,137.5,98.5,0.46
21.34,31776.3,34512.1,-0.2955,-0.5927,137.5,98.5,0.46
21.36,31890.6,34843.6,-0.1418,-0.1833,137.5,98.5,0.46
21.38,31993.7,35156.4,-0.0029,0.2028,137.5,98.5,0.46
21.4,32187.5,35447.2,0.2578,0.5618,137.5,98.5,0.46
21.42,32290.2,35684.8,0.3961,0.8551,137.5,98.5,0.46
21.44,32267.4,35811.2,0.3654,1.0111,137.5,98.5,0.46
21.46,32349.5,35694.0,0.4758,0.8665,137.5,98.5,0.46
21.48,32217.3,35517.0,0.298,0.648,137.5,98.5,0.46
21.5,32136.3,35296.2,0.189,0.3753,137.5,98.5,0.46
21.52,32013.4,35082.8,0.0236,0.1119,137.5,98.5,0.46
21.54,32042.3,35074.7,0.0624,0.1019,137.5,98.5,0.46
21.56,32040.1,35091.7,0.0595,0.1229,137.5,98.5,0.46
21.58,32004.3,34913.8,0.0113,-0.0967,137.5,98.5,0.46
21.6,31927.9,34892.7,-0.0916,-0.1227,137.5,98.5,0.46
21.62,31877.6,34780.5,-0.1593,-0.2613,137.5,98.5,0.46
21.64,31821.9,34681.2,-0.2342,-0.3839,137.5,98.5,0.46
21.66,31937.4,34649.3,-0.0787,-0.4232,137.5,98.5,0.46
21.68,31872.3,34675.2,-0.1664,-0.3913,137.5,98.5,0.46
21.7,31874.8,34574.8,-0.163,-0.5152,137.5,98.5,0.46
21.72,31888.2,34580.6,-0.145,-0.508,137.5,98.5,0.46
21.74,31827.5,34480.0,-0.2266,-0.6322,137.5,98.5,0.46
21.76,31752.8,34438.9,-0.3272,-0.683,137.5,98.5,0.46
21.78,31861.6,34633.6,-0.1807,-0.4426,137.5,98.5,0.46
21.8,31976.3,34882.7,-0.0264,-0.1351,137.5,98.5,0.46
21.82,32138.2,35267.7,0.1915,0.3401,137.5,98.5,0.46
21.84,32282.5,35489.7,0.3856,0.6143,137.5,98.5,0.46
21.86,32297.0,35702.7,0.4052,0.8772,137.5,98.5,0.46
21.88,32374.7,35799.8,0.5097,0.9971,137.5,98.5,0.46
21.9,32299.7,35620.8,0.4088,0.7762,137.5,98.5,0.46
21.92,32199.5,35349.4,0.274,0.441,137.5,98.5,0.46
21.94,32161.0,35207.7,0.2221,0.2662,137.5,98.5,0.46
21.96,32039.6,35105.9,0.0588,0.1404,137.5,98.5,0.46
21.98,32014.0,35133.6,0.0244,0.1746,137.5,98.5,0.46
22.0,31960.9,35060.9,-0.0472,0.0849,137.5,98.5,0.46
22.02,31972.9,35003.9,-0.0309,0.0146,137.5,98.5,0.46
22.04,31899.3,34831.3,-0.13,-0.1986,137.5,98.5,0.46
22.06,31867.6,34747.8,-0.1727,-0.3017,137.5,98.5,0.46
22.08,31923.4,34739.0,-0.0976,-0.3125,137.5,98.5,0.46
22.1,31971.2,34703.6,-0.0332,-0.3562,137.5,98.5,0.46
22.12,31881.1,34680.9,-0.1545,-0.3842,137.5,98.5,0.46
22.14,31848.1,34566.6,-0.1989,-0.5253,137.5,98.5,0.46
22.16,31768.8,34534.8,-0.3056,-0.5646,137.5,98.5,0.46
22.18,31816.7,34477.2,-0.2412,-0.6357,137.5,98.5,0.46
22.2,31817.8,34495.7,-0.2397,-0.6129,137.5,98.5,0.46
22.22,31916.9,34602.1,-0.1063,-0.4815,137.5,98.5,0.46
22.24,31983.8,34772.9,-0.0163,-0.2707,137.5,98.5,0.46
22.26,32071.4,35242.8,0.1016,0.3095,137.5,98.5,0.46
22.28,32202.1,35622.5,0.2774,0.7782,137.5,98.5,0.46
22.3,32373.5,35736.2,0.5081,0.9185,137.5,98.5,0.46
22.32,32286.8,35874.4,0.3914,1.0892,137.5,98.5,0.46
22.34,32281.9,35578.9,0.3848,0.7244,137.5,98.5,0.46
22.36,32117.8,35479.7,0.1641,0.6019,137.5,98.5,0.46
22.38,32080.9,35162.7,0.1144,0.2106,137.5,98.5,0.46
22.4,32102.1,35176.4,0.1428,0.2275,137.5,98.5,0.46
22.42,31990.2,35060.5,-0.0077,0.0844,137.5,98.5,0.46
22.44,32000.7,35108.2,0.0064,0.1433,137.5,98.5,0.46
22.46,32028.9,34957.6,0.0444,-0.0426,137.5,98.5,0.46
22.48,31864.3,34898.5,-0.1772,-0.1156,137.5,98.5,0.46
22.5,31843.7,34781.7,-0.2049,-0.2598,137.5,98.5,0.46
22.52,31868.9,34694.7,-0.1709,-0.3672,137.5,98.5,0.46
22.54,31891.4,34602.4,-0.1407,-0.4812,137.5,98.5,0.46
22.56,31805.6,34695.7,-0.2561,-0.366,137.5,98.5,0.46
22.58,31801.1,34548.8,-0.2622,-0.5474,137.5,98.5,0.46
22.6,31787.2,34524.9,-0.2808,-0.5768,137.5,98.5,0.46
22.62,31755.6,34430.8,-0.3234,-0.6929,137.5,98.5,0.46
22.64,31796.8,34479.9,-0.268,-0.6323,137.5,98.5,0.46
22.66,31801.5,34566.7,-0.2616,-0.5252,137.5,98.5,0.46
22.68,31992.7,34901.9,-0.0044,-0.1114,137.5,98.5,0.46
22.7,32170.1,35301.1,0.2344,0.3814,137.5,98.5,0.46
22.72,32374.0,35570.6,0.5088,0.7142,137.5,98.5,0.46
22.74,32287.6,35749.9,0.3925,0.9354,137.5,98.5,0.46
22.76,32286.1,35790.5,0.3905,0.9857,137.5,98.5,0.46
22.78,32333.7,35523.8,0.4546,0.6564,137.5,98.5,0.46
22.8,32141.3,35332.3,0.1956,0.42,137.5,98.5,0.46
22.82,32069.7,35306.8,0.0994,0.3884,137.5,98.5,0.46
22.84,31996.2,35149.8,0.0004,0.1946,137.5,98.5,0.46
22.86,32057.2,35057.7,0.0825,0.081,137.5,98.5,0.46
22.88,32097.2,34938.1,0.1363,-0.0667,137.5,98.5,0.46
22.9,32006.0,34936.6,0.0136,-0.0686,137.5,98.5,0.46
22.92,31972.5,34848.2,-0.0315,-0.1777,137.5,98.5,0.46
22.94,31819.6,34756.5,-0.2372,-0.2909,137.5,98.5,0.46
22.96,31889.6,34653.9,-0.1431,-0.4176,137.5,98.5,0.46
22.98,31842.1,34634.1,-0.207,-0.442,137.5,98.5,0.46
23.0,31859.3,34623.1,-0.1839,-0.4555,137.5,98.5,0.46
23.02,31771.5,34553.0,-0.302,-0.5421,137.5,98.5,0.46
23.04,31783.4,34454.9,-0.286,-0.6632,137.5,98.5,0.46
23.06,31759.8,34407.4,-0.3177,-0.7219,137.5,98.5,0.46
23.08,31745.1,34461.8,-0.3375,-0.6547,137.5,98.5,0.46
23.1,31866.9,34671.8,-0.1737,-0.3955,137.5,98.5,0.46
23.12,32006.5,35051.5,0.0143,0.0733,137.5,98.5,0.46
23.14,32163.0,35318.5,0.2248,0.4029,137.5,98.5,0.46
23.16,32285.1,35561.3,0.3892,0.7027,137.5,98.5,0.46
23.18,32353.1,35852.7,0.4807,1.0623,137.5,98.5,0.46
23.2,32304.9,35779.8,0.4158,0.9724,137.5,98.5,0.46
23.22,32197.3,35571.0,0.2711,0.7146,137.5,98.5,0.46
23.24,32114.9,35299.1,0.1601,0.379,137.5,98.5,0.46
23.26,32088.4,35237.3,0.1244,0.3027,137.5,98.5,0.46
23.28,32085.5,35080.0,0.1205,0.1085,137.5,98.5,0.46
23.3,31991.1,35121.9,-0.0065,0.1602,137.5,98.5,0.46
23.32,32001.0,35001.4,0.0069,0.0115,137.5,98.5,0.46
23.34,31973.4,34921.1,-0.0302,-0.0877,137.5,98.5,0.46
23.36,31958.1,34772.0,-0.0509,-0.2718,137.5,98.5,0.46
23.38,31896.2,34707.0,-0.1342,-0.352,137.5,98.5,0.46
23.4,31855.0,34717.4,-0.1896,-0.3392,137.5,98.5,0.46
23.42,31901.7,34654.2,-0.1269,-0.4172,137.5,98.5,0.46
23.44,31830.3,34558.9,-0.2229,-0.5349,137.5,98.5,0.46
23.46,31768.5,34588.3,-0.306,-0.4986,137.5,98.5,0.46
23.48,31703.1,34446.8,-0.3941,-0.6733,137.5,98.5,0.46
23.5,31793.5,34413.3,-0.2724,-0.7146,137.5,98.5,0.46
23.52,31865.6,34505.1,-0.1754,-0.6013,137.5,98.5,0.46
23.54,31785.2,34743.8,-0.2836,-0.3066,137.5,98.5,0.46
23.56,32044.9,35002.6,0.0659,0.0129,137.5,98.5,0.46
23.58,32198.3,35449.8,0.2724,0.565,137.5,98.5,0.46
23.6,32354.8,35635.3,0.483,0.7939,137.5,98.5,0.46
23.62,32267.2,35815.4,0.3651,1.0164,137.5,98.5,0.46
23.64,32231.3,35757.4,0.3168,0.9447,137.5,98.5,0.46
23.66,32221.0,35479.3,0.3029,0.6014,137.5,98.5,0.46
23.68,32108.1,35277.3,0.151,0.3521,137.5,98.5,0.46
23.7,32042.9,35241.3,0.0632,0.3076,137.5,98.5,0.46
23.72,32061.6,35049.3,0.0884,0.0705,137.5,98.5,0.46
23.74,32109.8,34961.9,0.1532,-0.0373,137.5,98.5,0.46
23.76,32004.3,34951.6,0.0113,-0.05,137.5,98.5,0.46
23.78,31895.8,34888.6,-0.1347,-0.1278,137.5,98.5,0.46
23.8,31907.7,34781.9,-0.1187,-0.2596,137.5,98.5,0.46
23.82,31813.8,34621.0,-0.245,-0.4582,137.5,98.5,0.46
23.84,31894.1,34679.2,-0.137,-0.3863,137.5,98.5,0.46
23.86,31862.9,34715.9,-0.1791,-0.341,137.5,98.5,0.46
23.88,31815.4,34620.9,-0.2429,-0.4583,137.5,98.5,0.46
23.9,31802.2,34531.2,-0.2608,-0.569,137.5,98.5,0.46
23.92,31786.3,34474.2,-0.2821,-0.6394,137.5,98.5,0.46
23.94,31805.0,34448.5,-0.2569,-0.6712,137.5,98.5,0.46
23.96,31872.7,34570.6,-0.1659,-0.5204,137.5,98.5,0.46
23.98,31856.8,34837.2,-0.1872,-0.1913,137.5,98.5,0.46
24.0,32125.1,35188.2,0.1738,0.242,137.5,98.5,0.46
24.02,32233.3,35430.7,0.3194,0.5414,137.5,98.5,0.46
24.04,32354.0,35711.0,0.4818,0.8874,137.5,98.5,0.46
24.06,32252.9,35769.7,0.3458,0.9599,137.5,98.5,0.46
24.08,32215.5,35658.3,0.2955,0.8224,137.5,98.5,0.46
24.1,32309.1,35396.5,0.4214,0.4993,137.5,98.5,0.46
24.12,32210.5,35300.5,0.2887,0.3807,137.5,98.5,0.46
24.14,32009.7,35154.8,0.0185,0.2008,137.5,98.5,0.46
24.16,32091.7,35061.7,0.1289,0.0859,137.5,98.5,0.46
24.18,32021.4,35095.7,0.0342,0.1278,137.5,98.5,0.46
24.2,32019.6,35123.9,0.0318,0.1627,137.5,98.5,0.46
24.22,31864.2,34877.0,-0.1772,-0.1422,137.5,98.5,0.46
24.24,31898.0,34804.4,-0.1318,-0.2318,137.5,98.5,0.46
24.26,31874.9,34641.4,-0.1629,-0.433,137.5,98.5,0.46
24.28,31760.7,34647.7,-0.3165,-0.4252,137.5,98.5,0.46
24.3,31894.1,34623.9,-0.1371,-0.4545,137.5,98.5,0.46
24.32,31846.2,34607.7,-0.2014,-0.4746,137.5,98.5,0.46
24.34,31843.0,34526.2,-0.2058,-0.5752,137.5,98.5,0.46
24.36,31750.8,34414.7,-0.3298,-0.7128,137.5,98.5,0.46
24.38,31724.0,34518.5,-0.3659,-0.5847,137.5,98.5,0.46
24.4,31922.6,34576.3,-0.0987,-0.5134,137.5,98.5,0.46
24.42,31925.4,34823.0,-0.095,-0.2088,137.5,98.5,0.46
24.44,32157.5,35151.2,0.2174,0.1964,137.5,98.5,0.46
24.46,32141.2,35572.6,0.1955,0.7165,137.5,98.5,0.46
24.48,32334.1,35726.7,0.4551,0.9069,137.5,98.5,0.46
24.5,32313.4,35749.5,0.4272,0.935,137.5,98.5,0.46
24.52,32305.0,35715.6,0.4159,0.8932,137.5,98.5,0.46
24.54,32176.0,35448.7,0.2424,0.5636,137.5,98.5,0.46
24.56,32157.5,35322.7,0.2174,0.4081,137.5,98.5,0.46
24.58,32004.9,35203.1,0.0121,0.2605,137.5,98.5,0.46
24.6,32069.7,35088.3,0.0993,0.1187,137.5,98.5,0.46
24.62,31994.6,35076.1,-0.0018,0.1036,137.5,98.5,0.46
24.64,31969.4,35018.7,-0.0356,0.0329,137.5,98.5,0.46
24.66,32015.9,34800.8,0.0269,-0.2363,137.5,98.5,0.46
24.68,31948.1,34820.0,-0.0643,-0.2125,137.5,98.5,0.46
24.7,31819.9,34611.8,-0.2369,-0.4696,137.5,98.5,0.46
24.72,31816.7,34757.9,-0.2411,-0.2891,137.5,98.5,0.46
24.74,31897.5,34539.8,-0.1324,-0.5585,137.5,98.5,0.46
24.76,31805.9,34617.8,-0.2557,-0.4622,137.5,98.5,0.46
24.78,31828.9,34471.9,-0.2248,-0.6422,137.5,98.5,0.46
24.8,31748.2,34402.1,-0.3333,-0.7285,137.5,98.5,0.46
24.82,31749.5,34578.0,-0.3316,-0.5113,137.5,98.5,0.46
24.84,31852.6,34631.1,-0.1929,-0.4458,137.5,98.5,0.46
24.86,31999.5,34920.9,0.0049,-0.0879,137.5,98.5,0.46
24.88,32029.0,35286.4,0.0445,0.3633,137.5,98.5,0.46
24.9,32192.6,35577.9,0.2647,0.7231,137.5,98.5,0.46
24.92,32207.2,35706.8,0.2844,0.8822,137.5,98.5,0.46
24.94,32251.3,35686.5,0.3437,0.8572,137.5,98.5,0.46
24.96,32316.8,35564.6,0.4319,0.7067,137.5,98.5,0.46
24.98,32155.5,35395.7,0.2148,0.4982,137.5,98.5,0.46
25.0,32040.5,35261.1,0.06,0.332,137.5,98.5,0.46
25.02,32025.5,35160.7,0.0399,0.2081,137.5,98.5,0.46
25.04,32053.6,35154.7,0.0776,0.2007,137.5,98.5,0.46
25.06,31923.0,35150.9,-0.0981,0.196,137.5,98.5,0.46
25.08,32009.4,34997.2,0.0181,0.0063,137.5,98.5,0.46
25.1,31921.1,34878.2,-0.1006,-0.1406,137.5,98.5,0.46
25.12,31878.2,34759.3,-0.1584,-0.2875,137.5,98.5,0.46
25.14,31920.9,34718.0,-0.101,-0.3384,137.5,98.5,0.46
25.16,31744.5,34636.4,-0.3384,-0.4392,137.5,98.5,0.46
25.18,31894.8,34654.7,-0.1361,-0.4166,137.5,98.5,0.46
25.2,31818.9,34605.3,-0.2382,-0.4776,137.5,98.5,0.46
25.22,31776.2,34512.1,-0.2957,-0.5926,137.5,98.5,0.46
25.24,31788.8,34435.1,-0.2787,-0.6876,137.5,98.5,0.46
25.26,31787.7,34479.9,-0.2802,-0.6324,137.5,98.5,0.46
25.28,31791.2,34701.7,-0.2754,-0.3586,137.5,98.5,0.46
25.3,31974.0,35059.8,-0.0296,0.0835,137.5,98.5,0.46
25.32,32141.6,35362.4,0.1961,0.4571,137.5,98.5,0.46
25.34,32281.5,35585.3,0.3844,0.7323,137.5,98.5,0.46
25.36,32250.4,35699.8,0.3424,0.8736,137.5,98.5,0.46
25.38,32239.4,35782.5,0.3276,0.9758,137.5,98.5,0.46
25.4,32294.3,35495.5,0.4016,0.6214,137.5,98.5,0.46
25.42,32221.2,35363.0,0.3032,0.4579,137.5,98.5,0.46
25.44,32062.3,35364.1,0.0894,0.4592,137.5,98.5,0.46
25.46,32015.3,35079.1,0.026,0.1074,137.5,98.5,0.46
25.48,31969.0,35126.4,-0.0363,0.1657,137.5,98.5,0.46
25.5,32038.5,35004.5,0.0574,0.0152,137.5,98.5,0.46
25.52,31987.7,34955.6,-0.0111,-0.0451,137.5,98.5,0.46
25.54,31940.7,34763.3,-0.0744,-0.2826,137.5,98.5,0.46
25.56,31963.4,34754.1,-0.0438,-0.2939,137.5,98.5,0.46
25.58,31827.0,34599.5,-0.2273,-0.4847,137.5,98.5,0.46
25.6,31767.2,34684.8,-0.3078,-0.3794,137.5,98.5,0.46
25.62,31884.9,34710.1,-0.1494,-0.3482,137.5,98.5,0.46
25.64,31818.8,34521.3,-0.2383,-0.5812,137.5,98.5,0.46
25.66,31813.0,34477.0,-0.2461,-0.636,137.5,98.5,0.46
25.68,31937.2,34493.5,-0.0791,-0.6156,137.5,98.5,0.46
25.7,31861.1,34479.6,-0.1814,-0.6327,137.5,98.5,0.46
25.72,31926.3,34696.9,-0.0936,-0.3645,137.5,98.5,0.46
25.74,31984.2,35059.6,-0.0157,0.0833,137.5,98.5,0.46
25.76,32102.2,35339.3,0.1431,0.4286,137.5,98.5,0.46
25.78,32283.1,35659.2,0.3864,0.8235,137.5,98.5,0.46
25.8,32356.4,35759.6,0.4852,0.9474,137.5,98.5,0.46
25.82,32233.1,35780.9,0.3192,0.9737,137.5,98.5,0.46
25.84,32167.5,35648.1,0.2309,0.8099,137.5,98.5,0.46
25.86,32079.5,35350.0,0.1125,0.4417,137.5,98.5,0.46
25.88,32026.7,35198.2,0.0415,0.2544,137.5,98.5,0.46
25.9,32019.3,35063.6,0.0314,0.0882,137.5,98.5,0.46
25.92,31965.5,35084.6,-0.041,0.1142,137.5,98.5,0.46
25.94,31989.7,34944.9,-0.0084,-0.0583,137.5,98.5,0.46
25.96,31925.8,34994.4,-0.0944,0.0028,137.5,98.5,0.46
25.98,31903.7,34843.1,-0.124,-0.1839,137.5,98.5,0.46
26.0,31903.5,34763.5,-0.1244,-0.2823,137.5,98.5,0.46
26.02,31903.9,34703.3,-0.1239,-0.3565,137.5,98.5,0.46
26.04,31952.9,34619.9,-0.058,-0.4595,137.5,98.5,0.46
26.06,31784.3,34600.1,-0.2848,-0.484,137.5,98.5,0.46
26.08,31842.6,34595.7,-0.2064,-0.4894,137.5,98.5,0.46
26.1,31762.8,34490.3,-0.3137,-0.6195,137.5,98.5,0.46
26.12,31796.4,34397.8,-0.2685,-0.7337,137.5,98.5,0.46
26.14,31773.1,34527.7,-0.2998,-0.5733,137.5,98.5,0.46
26.16,32009.1,34748.3,0.0177,-0.301,137.5,98.5,0.46
26.18,31985.4,35099.7,-0.0142,0.1327,137.5,98.5,0.46
26.2,32209.8,35523.5,0.2879,0.656,137.5,98.5,0.46
26.22,32313.2,35743.7,0.4269,0.9279,137.5,98.5,0.46
26.24,32375.4,35779.8,0.5107,0.9724,137.5,98.5,0.46
26.26,32274.3,35608.7,0.3746,0.7612,137.5,98.5,0.46
26.28,32215.7,35447.3,0.2958,0.562,137.5,98.5,0.46
26.3,32165.0,35272.2,0.2276,0.3457,137.5,98.5,0.46
26.32,32143.2,35158.1,0.1982,0.2049,137.5,98.5,0.46
26.34,32057.0,35073.1,0.0823,0.1,137.5,98.5,0.46
26.36,32065.4,35163.7,0.0934,0.2118,137.5,98.5,0.46
26.38,32126.7,34986.4,0.176,-0.0071,137.5,98.5,0.46
26.4,32011.8,34850.1,0.0213,-0.1754,137.5,98.5,0.46
26.42,31835.1,34760.5,-0.2164,-0.286,137.5,98.5,0.46
26.44,31927.2,34707.6,-0.0925,-0.3512,137.5,98.5,0.46
26.46,31897.4,34697.2,-0.1326,-0.3641,137.5,98.5,0.46
26.48,31870.8,34671.7,-0.1683,-0.3956,137.5,98.5,0.46
26.5,31749.3,34698.3,-0.3319,-0.3628,137.5,98.5,0.46
26.52,31806.6,34581.4,-0.2548,-0.5071,137.5,98.5,0.46
26.54,31728.0,34577.5,-0.3605,-0.5119,137.5,98.5,0.46
26.56,31737.1,34331.2,-0.3482,-0.8159,137.5,98.5,0.46
26.58,31829.4,34585.0,-0.2241,-0.5026,137.5,98.5,0.46
26.6,31927.8,34872.1,-0.0917,-0.1482,137.5,98.5,0.46
26.62,32075.3,35188.2,0.1068,0.2421,137.5,98.5,0.46
26.64,32251.5,35496.3,0.344,0.6224,137.5,98.5,0.46
26.66,32319.9,35680.6,0.4359,0.8499,137.5,98.5,0.46
26.68,32297.0,35794.1,0.4052,0.9901,137.5,98.5,0.46
26.7,32292.4,35532.1,0.399,0.6666,137.5,98.5,0.46
26.72,32074.2,35397.2,0.1053,0.5001,137.5,98.5,0.46
26.74,32095.6,35286.4,0.1342,0.3633,137.5,98.5,0.46
26.76,31951.5,35192.7,-0.0598,0.2476,137.5,98.5,0.46
26.78,32082.5,35116.8,0.1166,0.1539,137.5,98.5,0.46
26.8,32015.7,35018.0,0.0266,0.0319,137.5,98.5,0.46
26.82,31982.3,35058.9,-0.0184,0.0825,137.5,98.5,0.46
26.84,31932.4,34889.2,-0.0855,-0.127,137.5,98.5,0.46
26.86,31860.8,34736.4,-0.1819,-0.3157,137.5,98.5,0.46
26.88,31906.7,34733.1,-0.12,-0.3198,137.5,98.5,0.46
26.9,31782.8,34712.3,-0.2867,-0.3455,137.5,98.5,0.46
26.92,31946.0,34641.8,-0.0672,-0.4325,137.5,98.5,0.46
26.94,31856.4,34577.1,-0.1877,-0.5124,137.5,98.5,0.46
26.96,31792.4,34580.0,-0.2739,-0.5088,137.5,98.5,0.46
26.98,31843.2,34430.1,-0.2055,-0.6938,137.5,98.5,0.46
27.0,31755.7,34402.7,-0.3233,-0.7277,137.5,98.5,0.46
27.02,31774.8,34590.1,-0.2976,-0.4963,137.5,98.5,0.46
27.04,31974.6,34902.3,-0.0287,-0.1108,137.5,98.5,0.46
27.06,32092.3,35258.7,0.1297,0.3291,137.5,98.5,0.46
27.08,32276.1,35519.0,0.3771,0.6504,137.5,98.5,0.46
27.1,32315.5,35818.5,0.4301,1.0202,137.5,98.5,0.46
27.12,32394.2,35717.9,0.536,0.8959,137.5,98.5,0.46
27.14,32341.3,35589.1,0.4647,0.737,137.5,98.5,0.46
27.16,32164.0,35445.7,0.2262,0.56,137.5,98.5,0.46
27.18,32050.0,35229.1,0.0728,0.2925,137.5,98.5,0.46
27.2,31991.9,35109.4,-0.0054,0.1448,137.5,98.5,0.46
27.22,32071.8,35188.3,0.1021,0.2421,137.5,98.5,0.46
27.24,32039.7,35026.1,0.0589,0.0419,137.5,98.5,0.46
27.26,32025.8,34963.8,0.0403,-0.035,137.5,98.5,0.46
27.28,31862.1,34819.4,-0.1801,-0.2133,137.5,98.5,0.46
27.3,31864.7,34743.7,-0.1766,-0.3067,137.5,98.5,0.46
27.32,31866.9,34699.0,-0.1737,-0.3619,137.5,98.5,0.46
27.34,31897.0,34741.1,-0.1331,-0.3099,137.5,98.5,0.46
27.36,31805.9,34685.7,-0.2558,-0.3783,137.5,98.5,0.46
27.38,31863.0,34611.6,-0.1788,-0.4697,137.5,98.5,0.46
27.4,31816.4,34444.3,-0.2416,-0.6763,137.5,98.5,0.46
27.42,31774.3,34446.3,-0.2983,-0.6739,137.5,98.5,0.46
27.44,31684.3,34493.8,-0.4194,-0.6152,137.5,98.5,0.46
27.46,31785.2,34755.4,-0.2836,-0.2922,137.5,98.5,0.46
27.48,32025.7,34982.9,0.0401,-0.0113,137.5,98.5,0.46
27.5,32076.4,35293.5,0.1083,0.3721,137.5,98.5,0.46
27.52,32300.5,35611.7,0.4098,0.7649,137.5,98.5,0.46
27.54,32256.5,35731.5,0.3507,0.9127,137.5,98.5,0.46
27.56,32282.0,35715.2,0.385,0.8927,137.5,98.5,0.46
27.58,32234.5,35563.0,0.3211,0.7048,137.5,98.5,0.46
27.6,32211.0,35389.5,0.2894,0.4905,137.5,98.5,0.46
27.62,32080.5,35260.7,0.1138,0.3315,137.5,98.5,0.46
27.64,31986.5,35141.6,-0.0127,0.1845,137.5,98.5,0.46
27.66,32106.6,35127.0,0.149,0.1665,137.5,98.5,0.46
27.68,32034.6,35108.3,0.0521,0.1434,137.5,98.5,0.46
27.7,31968.0,34943.3,-0.0375,-0.0602,137.5,98.5,0.46
27.72,31990.4,34782.4,-0.0074,-0.259,137.5,98.5,0.46
27.74,31868.6,34707.3,-0.1714,-0.3517,137.5,98.5,0.46
27.76,31906.9,34665.5,-0.1199,-0.4032,137.5,98.5,0.46
27.78,31849.4,34692.1,-0.1972,-0.3704,137.5,98.5,0.46
27.8,31826.8,34695.0,-0.2276,-0.3668,137.5,98.5,0.46
27.82,31795.8,34545.9,-0.2693,-0.5509,137.5,98.5,0.46
27.84,31800.9,34489.6,-0.2625,-0.6204,137.5,98.5,0.46
27.86,31751.8,34493.1,-0.3285,-0.6161,137.5,98.5,0.46
27.88,31726.4,34424.6,-0.3627,-0.7006,137.5,98.5,0.46
27.9,31840.2,34718.7,-0.2096,-0.3375,137.5,98.5,0.46
27.92,31918.4,35110.6,-0.1044,0.1462,137.5,98.5,0.46
27.94,32091.4,35344.2,0.1285,0.4346,137.5,98.5,0.46
27.96,32238.9,35704.8,0.327,0.8798,137.5,98.5,0.46
27.98,32291.9,35803.5,0.3983,1.0016,137.5,98.5,0.46
28.0,32227.2,35669.8,0.3112,0.8366,137.5,98.5,0.46
28.02,32261.5,35545.6,0.3574,0.6832,137.5,98.5,0.46
28.04,32178.0,35427.1,0.245,0.537,137.5,98.5,0.46
28.06,32135.4,35239.5,0.1877,0.3053,137.5,98.5,0.46
28.08,32081.3,35079.4,0.1149,0.1077,137.5,98.5,0.46
28.1,31971.7,35093.0,-0.0326,0.1245,137.5,98.5,0.46
28.12,32023.6,35035.7,0.0372,0.0538,137.5,98.5,0.46
28.14,31925.4,34814.0,-0.0949,-0.2199,137.5,98.5,0.46
28.16,31941.4,34793.2,-0.0734,-0.2455,137.5,98.5,0.46
28.18,31875.4,34753.8,-0.1622,-0.2942,137.5,98.5,0.46
28.2,31772.5,34712.9,-0.3007,-0.3447,137.5,98.5,0.46
28.22,31862.3,34681.0,-0.1798,-0.3841,137.5,98.5,0.46
28.24,31938.2,34639.5,-0.0777,-0.4354,137.5,98.5,0.46
28.26,31855.1,34547.9,-0.1895,-0.5484,137.5,98.5,0.46
28.28,31772.2,34435.3,-0.301,-0.6875,137.5,98.5,0.46
28.3,31813.3,34379.7,-0.2457,-0.7561,137.5,98.5,0.46
28.32,31763.1,34521.9,-0.3133,-0.5806,137.5,98.5,0.46
28.34,31932.7,34652.2,-0.0851,-0.4197,137.5,98.5,0.46
28.36,32103.9,35075.6,0.1454,0.103,137.5,98.5,0.46
28.38,32111.1,35419.8,0.155,0.5279,137.5,98.5,0.46
28.4,32239.3,35628.0,0.3275,0.785,137.5,98.5,0.46
28.42,32364.3,35707.2,0.4958,0.8828,137.5,98.5,0.46
28.44,32234.1,35610.2,0.3205,0.7631,137.5,98.5,0.46
28.46,32198.9,35477.8,0.2732,0.5995,137.5,98.5,0.46
28.48,32137.7,35280.3,0.1908,0.3557,137.5,98.5,0.46
28.5,32051.6,35156.2,0.0749,0.2025,137.5,98.5,0.46
28.52,32033.1,35118.8,0.05,0.1563,137.5,98.5,0.46
28.54,31984.2,35057.5,-0.0158,0.0807,137.5,98.5,0.46
28.56,32024.5,34936.0,0.0385,-0.0693,137.5,98.5,0.46
28.58,32016.6,34831.9,0.0278,-0.1979,137.5,98.5,0.46
28.6,31927.5,34864.4,-0.0921,-0.1577,137.5,98.5,0.46
28.62,31932.6,34673.2,-0.0853,-0.3938,137.5,98.5,0.46
28.64,31843.1,34607.2,-0.2057,-0.4753,137.5,98.5,0.46
28.66,31839.9,34597.6,-0.2099,-0.4871,137.5,98.5,0.46
28.68,31901.5,34632.2,-0.1271,-0.4443,137.5,98.5,0.46
28.7,31747.4,34585.6,-0.3344,-0.5018,137.5,98.5,0.46
28.72,31897.3,34489.9,-0.1327,-0.62,137.5,98.5,0.46
28.74,31760.0,34445.4,-0.3175,-0.675,137.5,98.5,0.46
28.76,31765.2,34573.9,-0.3106,-0.5163,137.5,98.5,0.46
28.78,31869.7,34765.0,-0.1698,-0.2804,137.5,98.5,0.46
28.8,32090.8,35176.1,0.1277,0.2271,137.5,98.5,0.46
28.82,32193.0,35519.1,0.2652,0.6505,137.5,98.5,0.46
28.84,32214.1,35617.0,0.2936,0.7715,137.5,98.5,0.46
28.86,32199.1,35810.6,0.2734,1.0105,137.5,98.5,0.46
28.88,32349.3,35585.4,0.4755,0.7324,137.5,98.5,0.46
28.9,32138.2,35466.5,0.1915,0.5856,137.5,98.5,0.46
28.92,32144.6,35314.7,0.2001,0.3983,137.5,98.5,0.46
28.94,32074.8,35197.8,0.1062,0.2539,137.5,98.5,0.46
28.96,32043.6,35015.4,0.0641,0.0287,137.5,98.5,0.46
28.98,32035.0,35074.3,0.0527,0.1014,137.5,98.5,0.46
29.0,31972.1,35058.5,-0.032,0.0819,137.5,98.5,0.46
29.02,31876.5,34842.1,-0.1607,-0.1852,137.5,98.5,0.46
29.04,31862.0,34833.3,-0.1802,-0.196,137.5,98.5,0.46
29.06,31920.1,34684.6,-0.1021,-0.3796,137.5,98.5,0.46
29.08,31926.0,34660.3,-0.0941,-0.4097,137.5,98.5,0.46
29.1,31856.0,34715.1,-0.1883,-0.342,137.5,98.5,0.46
29.12,31815.5,34682.8,-0.2428,-0.3819,137.5,98.5,0.46
29.14,31823.3,34670.4,-0.2324,-0.3972,137.5,98.5,0.46
29.16,31726.6,34445.3,-0.3624,-0.675,137.5,98.5,0.46
29.18,31758.9,34568.9,-0.3189,-0.5225,137.5,98.5,0.46
29.2,31875.8,34480.2,-0.1616,-0.6319,137.5,98.5,0.46
29.22,31926.5,34832.8,-0.0935,-0.1967,137.5,98.5,0.46
29.24,32132.2,35104.4,0.1834,0.1387,137.5,98.5,0.46
29.26,32233.8,35496.9,0.3201,0.6231,137.5,98.5,0.46
29.28,32391.7,35689.7,0.5327,0.8611,137.5,98.5,0.46
29.3,32319.4,35725.9,0.4354,0.9058,137.5,98.5,0.46
29.32,32158.8,35696.1,0.2192,0.869,137.5,98.5,0.46
29.34,32168.9,35402.0,0.2329,0.506,137.5,98.5,0.46
29.36,32053.3,35153.6,0.0773,0.1993,137.5,98.5,0.46
29.38,32035.8,35088.6,0.0536,0.1191,137.5,98.5,0.46
29.4,32013.9,35081.2,0.0242,0.11,137.5,98.5,0.46
29.42,32018.3,34974.1,0.0301,-0.0222,137.5,98.5,0.46
29.44,31998.3,34949.8,0.0032,-0.0522,137.5,98.5,0.46
29.46,31986.5,34839.3,-0.0127,-0.1887,137.5,98.5,0.46
29.48,31846.6,34675.4,-0.2009,-0.391,137.5,98.5,0.46
29.5,31884.6,34713.3,-0.1497,-0.3442,137.5,98.5,0.46
29.52,31858.5,34640.7,-0.1849,-0.4339,137.5,98.5,0.46
29.54,31828.0,34685.5,-0.2259,-0.3785,137.5,98.5,0.46
29.56,31848.2,34715.8,-0.1988,-0.3412,137.5,98.5,0.46
29.58,31826.5,34598.7,-0.228,-0.4857,137.5,98.5,0.46
29.6,31752.9,34443.4,-0.3271,-0.6774,137.5,98.5,0.46
29.62,31813.3,34421.5,-0.2457,-0.7044,137.5,98.5,0.46
29.64,31857.9,34622.3,-0.1857,-0.4566,137.5,98.5,0.46
29.66,31961.6,34924.4,-0.0463,-0.0837,137.5,98.5,0.46
29.68,32077.8,35265.2,0.1102,0.3371,137.5,98.5,0.46
29.7,32334.7,35540.1,0.4559,0.6764,137.5,98.5,0.46
29.72,32371.5,35730.0,0.5054,0.9109,137.5,98.5,0.46
29.74,32350.9,35786.0,0.4777,0.9801,137.5,98.5,0.46
29.76,32179.9,35696.9,0.2476,0.87,137.5,98.5,0.46
29.78,32197.7,35331.3,0.2715,0.4188,137.5,98.5,0.46
29.8,32079.7,35264.8,0.1127,0.3367,137.5,98.5,0.46
29.82,32085.9,35068.5,0.121,0.0942,137.5,98.5,0.46
29.84,31932.1,35195.5,-0.0859,0.251,137.5,98.5,0.46
29.86,31923.7,34955.7,-0.0971,-0.045,137.5,98.5,0.46
29.88,31889.7,34879.0,-0.1429,-0.1396,137.5,98.5,0.46
29.9,31956.4,34821.8,-0.0531,-0.2103,137.5,98.5,0.46
29.92,31900.0,34683.9,-0.129,-0.3805,137.5,98.5,0.46
29.94,31818.3,34743.0,-0.239,-0.3076,137.5,98.5,0.46
29.96,31849.0,34749.8,-0.1977,-0.2991,137.5,98.5,0.46
29.98,31890.2,34658.8,-0.1422,-0.4115,137.5,98.5,0.46
30.0,31782.1,34094.8,-0.2877,-1.1078,137.5,98.5,0.46
30.02,32279.7,37792.5,0.3819,3.4571,137.5,98.5,0.46
30.04,34385.2,33736.6,3.2154,-1.55,137.5,98.5,0.46
30.06,33081.2,32973.1,1.4605,-2.4925,137.5,98.5,0.46
30.08,28211.9,35580.5,-5.0923,0.7264,137.5,98.5,0.46
30.1,31582.6,32816.6,-0.5562,-2.6857,137.5,98.5,0.46
30.12,28986.4,34394.0,-4.0501,-0.7384,137.5,98.5,0.46
30.14,31561.5,33121.0,-0.5847,-2.31,137.5,98.5,0.46
30.16,32282.6,38960.3,0.3858,4.8988,137.5,98.5,0.46
30.18,31215.1,28801.8,-1.0508,-7.6421,137.5,98.5,0.46
30.2,37441.2,34421.3,7.3279,-0.7046,137.5,98.5,0.46
30.22,33239.1,34634.2,1.673,-0.4419,137.5,98.5,0.46
30.24,32419.3,34502.0,0.5697,-0.6051,137.5,98.5,0.46
30.26,31917.0,36000.6,-0.1062,1.245,137.5,98.5,0.46
30.28,32335.7,33816.0,0.4573,-1.452,137.5,98.5,0.46
30.3,31046.1,34730.7,-1.2783,-0.3227,137.5,98.5,0.46
30.32,35333.6,32818.6,4.4917,-2.6832,137.5,98.5,0.46
30.34,32813.5,36769.6,1.1002,2.1943,137.5,98.5,0.46
30.36,32074.2,33695.2,0.1053,-1.6011,137.5,98.5,0.46
30.38,33839.4,36456.6,2.4808,1.8079,137.5,98.5,0.46
30.4,32792.4,34656.0,1.0718,-0.415,137.5,98.5,0.46
30.42,33344.3,32882.1,1.8146,-2.6049,137.5,98.5,0.46
30.44,30066.1,36532.7,-2.597,1.9018,137.5,98.5,0.46
30.46,30941.5,32561.1,-1.419,-3.0012,137.5,98.5,0.46
30.48,30729.1,32461.1,-1.7048,-3.1247,137.5,98.5,0.46
30.5,31784.8,34580.4,-0.2842,-0.5083,137.5,98.5,0.46
30.52,31458.9,33625.5,-0.7226,-1.6872,137.5,98.5,0.46
30.54,31046.3,39560.3,-1.278,5.6395,137.5,98.5,0.46
30.56,32137.6,37039.2,0.1906,2.5271,137.5,98.5,0.46
30.58,32325.8,35507.0,0.4439,0.6356,137.5,98.5,0.46
30.6,33769.4,35793.0,2.3867,0.9887,137.5,98.5,0.46
30.62,33980.2,35092.6,2.6703,0.1241,137.5,98.5,0.46
30.64,30419.4,40094.3,-2.1216,6.2988,137.5,98.5,0.46
30.66,33021.1,34027.1,1.3796,-1.1914,137.5,98.5,0.46
30.68,29971.1,31301.3,-2.7249,-4.5564,137.5,98.5,0.46
30.7,33312.2,35373.7,1.7713,0.471,137.5,98.5,0.46
30.72,33451.3,36515.4,1.9586,1.8805,137.5,98.5,0.46
30.74,31526.0,33783.8,-0.6324,-1.4917,137.5,98.5,0.46
30.76,31701.7,33672.9,-0.3959,-1.6286,137.5,98.5,0.46
30.78,32778.4,31282.7,1.053,-4.5793,137.5,98.5,0.46
30.8,32505.0,37220.4,0.685,2.7509,137.5,98.5,0.46
30.82,33839.8,36573.3,2.4814,1.952,137.5,98.5,0.46
30.84,33735.9,34600.8,2.3416,-0.4831,137.5,98.5,0.46
30.86,29483.7,35259.6,-3.3808,0.3302,137.5,98.5,0.46
30.88,34067.6,34932.7,2.7879,-0.0734,137.5,98.5,0.46
30.9,34248.6,31409.6,3.0315,-4.4227,137.5,98.5,0.46
30.92,33087.0,31333.4,1.4683,-4.5167,137.5,98.5,0.46
30.94,29981.9,39019.4,-2.7103,4.9718,137.5,98.5,0.46
30.96,30852.2,37435.2,-1.5392,3.016,137.5,98.5,0.46
30.98,32348.2,32584.2,0.4741,-2.9726,137.5,98.5,0.46
31.0,32403.2,34447.7,0.5481,-0.6721,137.5,98.5,0.46
31.02,32387.2,34975.1,0.5266,-0.021,137.5,98.5,0.46
31.04,33326.6,37443.7,1.7907,3.0265,137.5,98.5,0.46
31.06,30625.2,37436.8,-1.8446,3.018,137.5,98.5,0.46
31.08,31841.4,34767.5,-0.2079,-0.2773,137.5,98.5,0.46
31.1,31504.1,34865.8,-0.6618,-0.1559,137.5,98.5,0.46
31.12,27564.6,35481.4,-5.9633,0.604,137.5,98.5,0.46
31.14,31447.3,41325.7,-0.7383,7.8189,137.5,98.5,0.46
31.16,35144.1,38175.4,4.2366,3.9299,137.5,98.5,0.46
31.18,31329.6,33915.6,-0.8968,-1.329,137.5,98.5,0.46
31.2,29540.7,34147.6,-3.3041,-1.0426,137.5,98.5,0.46
31.22,29926.8,34955.3,-2.7845,-0.0455,137.5,98.5,0.46
31.24,29696.7,31408.6,-3.0942,-4.4239,137.5,98.5,0.46
31.26,30409.5,35276.1,-2.1349,0.3505,137.5,98.5,0.46
31.28,31415.8,37073.7,-0.7806,2.5697,137.5,98.5,0.46
31.3,28288.9,33129.9,-4.9886,-2.299,137.5,98.5,0.46
31.32,31604.5,36545.1,-0.5268,1.9172,137.5,98.5,0.46
31.34,30952.1,32829.1,-1.4046,-2.6703,137.5,98.5,0.46
31.36,30968.1,35775.0,-1.3832,0.9665,137.5,98.5,0.46
31.38,29591.0,35433.0,-3.2364,0.5442,137.5,98.5,0.46
31.4,31054.9,37173.8,-1.2664,2.6934,137.5,98.5,0.46
31.42,32028.8,33921.2,0.0442,-1.3221,137.5,98.5,0.46
31.44,37878.1,36897.7,7.9158,2.3524,137.5,98.5,0.46
31.46,33355.6,39454.3,1.8297,5.5087,137.5,98.5,0.46
31.48,34284.5,33936.7,3.0799,-1.303,137.5,98.5,0.46
31.5,33335.5,30956.0,1.8027,-4.9827,137.5,98.5,0.46
31.52,30556.5,37237.3,-1.9371,2.7717,137.5,98.5,0.46
31.54,32921.7,33349.6,1.2458,-2.0278,137.5,98.5,0.46
31.56,33831.2,36722.6,2.4697,2.1363,137.5,98.5,0.46
31.58,31720.6,35522.9,-0.3705,0.6553,137.5,98.5,0.46
31.6,28159.8,32751.0,-5.1624,-2.7667,137.5,98.5,0.46
31.62,31826.4,31057.6,-0.2282,-4.8572,137.5,98.5,0.46
31.64,33760.2,31543.1,2.3743,-4.2579,137.5,98.5,0.46
31.66,30660.4,36739.7,-1.7972,2.1574,137.5,98.5,0.46
31.68,31590.6,35124.0,-0.5455,0.1628,137.5,98.5,0.46
31.7,28875.6,32788.1,-4.1991,-2.7209,137.5,98.5,0.46
31.72,31415.0,33978.4,-0.7818,-1.2515,137.5,98.5,0.46
31.74,33387.6,40018.0,1.8729,6.2045,137.5,98.5,0.46
31.76,33091.5,36859.4,1.4744,2.3052,137.5,98.5,0.46
31.78,31826.8,37676.7,-0.2276,3.3141,137.5,98.5,0.46
31.8,32535.7,34370.9,0.7265,-0.7669,137.5,98.5,0.46
31.82,29810.1,33819.9,-2.9416,-1.4472,137.5,98.5,0.46
31.84,27155.6,33539.1,-6.5138,-1.7938,137.5,98.5,0.46
31.86,34629.8,33603.9,3.5446,-1.7138,137.5,98.5,0.46
31.88,32754.2,35553.3,1.0204,0.6928,137.5,98.5,0.46
31.9,32615.0,35000.5,0.8331,0.0103,137.5,98.5,0.46
31.92,28075.7,36478.1,-5.2756,1.8345,137.5,98.5,0.46
31.94,30960.0,38335.9,-1.3941,4.128,137.5,98.5,0.46
31.96,30446.4,34525.3,-2.0852,-0.5763,137.5,98.5,0.46
31.98,31298.7,34544.6,-0.9382,-0.5525,137.5,98.5,0.46
32.0,31761.9,36826.5,-0.3149,2.2646,137.5,98.5,0.46
32.02,30111.7,33412.2,-2.5356,-1.9505,137.5,98.5,0.46
32.04,29058.9,35576.5,-3.9525,0.7214,137.5,98.5,0.46
32.06,29161.8,32065.7,-3.814,-3.6128,137.5,98.5,0.46
32.08,28107.0,31969.9,-5.2335,-3.731,137.5,98.5,0.46
32.1,32668.2,35834.8,0.9047,1.0403,137.5,98.5,0.46
32.12,33674.9,34168.5,2.2594,-1.0169,137.5,98.5,0.46
32.14,29296.9,35797.7,-3.6321,0.9945,137.5,98.5,0.46
32.16,29935.5,33538.0,-2.7727,-1.7951,137.5,98.5,0.46
32.18,33600.3,33662.0,2.1591,-1.642,137.5,98.5,0.46
32.2,32142.6,33922.4,0.1973,-1.3206,137.5,98.5,0.46
32.22,29710.6,34249.5,-3.0755,-0.9168,137.5,98.5,0.46
32.24,32495.3,34290.3,0.672,-0.8665,137.5,98.5,0.46
32.26,31540.5,35397.4,-0.6128,0.5003,137.5,98.5,0.46
32.28,31273.6,36854.6,-0.972,2.2993,137.5,98.5,0.46
32.3,29267.3,30883.1,-3.6719,-5.0727,137.5,98.5,0.46
32.32,30270.7,34606.7,-2.3217,-0.4758,137.5,98.5,0.46
32.34,30887.3,31944.5,-1.492,-3.7624,137.5,98.5,0.46
32.36,31618.3,37177.2,-0.5082,2.6975,137.5,98.5,0.46
32.38,30984.3,37142.7,-1.3613,2.6549,137.5,98.5,0.46
32.4,33954.1,34378.0,2.6351,-0.7581,137.5,98.5,0.46
32.42,34704.4,34031.4,3.6449,-1.1861,137.5,98.5,0.46
32.44,31762.9,39398.3,-0.3136,5.4396,137.5,98.5,0.46
32.46,34315.3,34461.0,3.1213,-0.6556,137.5,98.5,0.46
32.48,31108.6,35219.4,-1.1941,0.2805,137.5,98.5,0.46
32.5,30202.8,37686.1,-2.413,3.3258,137.5,98.5,0.46
32.52,31151.3,35816.2,-1.1366,1.0173,137.5,98.5,0.46
32.54,32090.4,33162.1,0.1272,-2.2593,137.5,98.5,0.46
32.56,34285.3,34929.9,3.0809,-0.0769,137.5,98.5,0.46
32.58,33772.2,33249.0,2.3903,-2.1519,137.5,98.5,0.46
32.6,29311.2,31448.8,-3.6129,-4.3744,137.5,98.5,0.46
32.62,34336.1,31806.4,3.1492,-3.9329,137.5,98.5,0.46
32.64,30827.9,32788.1,-1.5718,-2.721,137.5,98.5,0.46
32.66,33989.4,33795.7,2.6826,-1.477,137.5,98.5,0.46
32.68,29974.5,35315.1,-2.7203,0.3988,137.5,98.5,0.46
32.7,34570.4,33600.8,3.4646,-1.7177,137.5,98.5,0.46
32.72,31696.8,32897.0,-0.4026,-2.5865,137.5,98.5,0.46
32.74,36832.3,39562.9,6.5085,5.6427,137.5,98.5,0.46
32.76,31264.5,35977.9,-0.9843,1.217,137.5,98.5,0.46
32.78,33559.0,37794.3,2.1035,3.4593,137.5,98.5,0.46
32.8,31309.9,38537.6,-0.9232,4.377,137.5,98.5,0.46
32.82,30953.1,35138.7,-1.4034,0.1809,137.5,98.5,0.46
32.84,29449.7,33425.1,-3.4266,-1.9345,137.5,98.5,0.46
32.86,31062.0,35139.7,-1.2568,0.1822,137.5,98.5,0.46
32.88,31193.3,33717.6,-1.0801,-1.5735,137.5,98.5,0.46
32.9,29530.3,38981.8,-3.318,4.9253,137.5,98.5,0.46
32.92,33609.7,36014.6,2.1717,1.2622,137.5,98.5,0.46
32.94,27326.7,34622.3,-6.2836,-0.4565,137.5,98.5,0.46
32.96,33644.8,34173.5,2.219,-1.0106,137.5,98.5,0.46
32.98,34073.4,35784.6,2.7957,0.9783,137.5,98.5,0.46
33.0,34182.3,34989.1,2.9423,-0.0037,137.5,98.5,0.46
33.02,34085.3,34386.8,2.8117,-0.7473,137.5,98.5,0.46
33.04,30823.0,36374.5,-1.5785,1.7066,137.5,98.5,0.46
33.06,32049.3,36597.4,0.0719,1.9817,137.5,98.5,0.46
33.08,32710.4,31741.7,0.9615,-4.0128,137.5,98.5,0.46
33.1,33677.4,31799.8,2.2628,-3.941,137.5,98.5,0.46
33.12,27994.3,33273.4,-5.3851,-2.1218,137.5,98.5,0.46
33.14,26790.1,36059.3,-7.0057,1.3175,137.5,98.5,0.46
33.16,35104.5,34734.1,4.1833,-0.3185,137.5,98.5,0.46
33.18,31143.3,34242.2,-1.1474,-0.9259,137.5,98.5,0.46
33.2,32986.6,34451.5,1.3332,-0.6674,137.5,98.5,0.46
33.22,32943.1,33598.4,1.2747,-1.7206,137.5,98.5,0.46
33.24,31327.3,34652.4,-0.8998,-0.4194,137.5,98.5,0.46
33.26,30672.3,38246.4,-1.7812,4.0175,137.5,98.5,0.46
33.28,32464.7,34114.9,0.6309,-1.083,137.5,98.5,0.46
33.3,34911.7,35664.0,3.9239,0.8294,137.5,98.5,0.46
33.32,30773.7,35307.1,-1.6448,0.3889,137.5,98.5,0.46
33.34,34913.1,33945.1,3.9258,-1.2926,137.5,98.5,0.46
33.36,30957.8,36678.2,-1.3971,2.0815,137.5,98.5,0.46
33.38,32429.2,34744.0,0.5831,-0.3063,137.5,98.5,0.46
33.4,30904.3,35391.9,-1.469,0.4936,137.5,98.5,0.46
33.42,35542.3,33902.7,4.7724,-1.3449,137.5,98.5,0.46
33.44,30091.8,36254.0,-2.5625,1.5578,137.5,98.5,0.46
33.46,32447.8,32783.3,0.6082,-2.7269,137.5,98.5,0.46
33.48,31217.9,33924.9,-1.047,-1.3175,137.5,98.5,0.46
33.5,34068.5,34544.1,2.7892,-0.5531,137.5,98.5,0.46
33.52,30904.1,31486.2,-1.4693,-4.3282,137.5,98.5,0.46
33.54,31543.9,33669.4,-0.6082,-1.633,137.5,98.5,0.46
33.56,33302.6,35071.1,1.7584,0.0975,137.5,98.5,0.46
33.58,34819.4,32476.4,3.7997,-3.1057,137.5,98.5,0.46
33.6,30479.9,32554.9,-2.0402,-3.0088,137.5,98.5,0.46
33.62,32316.0,33593.4,0.4307,-1.7268,137.5,98.5,0.46
33.64,34398.1,36485.9,3.2327,1.8441,137.5,98.5,0.46
33.66,32694.3,37325.5,0.9398,2.8806,137.5,98.5,0.46
33.68,29994.8,38793.5,-2.6929,4.6928,137.5,98.5,0.46
33.7,33448.8,37276.6,1.9551,2.8202,137.5,98.5,0.46
33.72,30255.7,36051.8,-2.3419,1.3082,137.5,98.5,0.46
33.74,32481.1,33216.6,0.6529,-2.192,137.5,98.5,0.46
33.76,31399.1,35688.7,-0.8031,0.86,137.5,98.5,0.46
33.78,31097.6,32397.0,-1.2089,-3.2038,137.5,98.5,0.46
33.8,31417.8,37767.6,-0.7779,3.4264,137.5,98.5,0.46
33.82,29861.8,34447.0,-2.872,-0.673,137.5,98.5,0.46
33.84,35379.7,36809.1,4.5537,2.2431,137.5,98.5,0.46
33.86,31742.6,34549.3,-0.3409,-0.5467,137.5,98.5,0.46
33.88,33335.7,32181.5,1.803,-3.4698,137.5,98.5,0.46
33.9,33999.3,34487.0,2.696,-0.6236,137.5,98.5,0.46
33.92,29334.0,33500.7,-3.5822,-1.8412,137.5,98.5,0.46
33.94,31125.6,32938.7,-1.1712,-2.5351,137.5,98.5,0.46
33.96,33500.7,34533.8,2.025,-0.5659,137.5,98.5,0.46
33.98,29466.1,32356.1,-3.4044,-3.2543,137.5,98.5,0.46
34.0,30585.9,35272.2,-1.8976,0.3457,137.5,98.5,0.46
34.02,28606.8,35181.4,-4.5608,0.2337,137.5,98.5,0.46
34.04,29312.4,34205.3,-3.6113,-0.9713,137.5,98.5,0.46
34.06,32342.8,35366.0,0.4668,0.4616,137.5,98.5,0.46
34.08,32067.8,32982.6,0.0968,-2.4808,137.5,98.5,0.46
34.1,31911.0,32212.0,-0.1143,-3.4322,137.5,98.5,0.46
34.12,32557.7,37881.2,0.756,3.5667,137.5,98.5,0.46
34.14,28168.4,37232.4,-5.1508,2.7656,137.5,98.5,0.46
34.16,28866.3,30676.7,-4.2116,-5.3276,137.5,98.5,0.46
34.18,29166.7,34324.7,-3.8074,-0.824,137.5,98.5,0.46
34.2,27083.1,37597.1,-6.6114,3.2159,137.5,98.5,0.46
34.22,30040.9,36079.8,-2.6309,1.3427,137.5,98.5,0.46
34.24,32501.8,32464.1,0.6807,-3.1209,137.5,98.5,0.46
34.26,26814.9,33624.4,-6.9723,-1.6885,137.5,98.5,0.46
34.28,34087.2,36872.1,2.8143,2.3208,137.5,98.5,0.46
34.3,28344.3,36399.6,-4.914,1.7376,137.5,98.5,0.46
34.32,31445.7,32284.1,-0.7405,-3.3431,137.5,98.5,0.46
34.34,35120.1,35154.5,4.2043,0.2005,137.5,98.5,0.46
34.36,30708.9,33513.7,-1.732,-1.8251,137.5,98.5,0.46
34.38,29945.4,33858.6,-2.7594,-1.3994,137.5,98.5,0.46
34.4,34507.3,34758.9,3.3797,-0.2879,137.5,98.5,0.46
34.42,31941.9,28999.2,-0.0727,-7.3984,137.5,98.5,0.46
34.44,31774.0,36176.4,-0.2987,1.4619,137.5,98.5,0.46
34.46,30522.4,39124.6,-1.983,5.1016,137.5,98.5,0.46
34.48,34435.8,34707.8,3.2834,-0.351,137.5,98.5,0.46
34.5,33191.8,37927.6,1.6093,3.6239,137.5,98.5,0.46
34.52,32762.4,39039.7,1.0315,4.9968,137.5,98.5,0.46
34.54,31405.7,36358.4,-0.7943,1.6867,137.5,98.5,0.46
34.56,33454.2,33822.1,1.9625,-1.4444,137.5,98.5,0.46
34.58,32127.5,38269.3,0.1771,4.0458,137.5,98.5,0.46
34.6,31977.6,35645.1,-0.0246,0.806,137.5,98.5,0.46
34.62,36444.5,32025.8,5.9866,-3.662,137.5,98.5,0.46
34.64,31649.2,36095.0,-0.4665,1.3615,137.5,98.5,0.46
34.66,26425.8,35274.5,-7.496,0.3485,137.5,98.5,0.46
34.68,31748.3,33871.7,-0.3332,-1.3832,137.5,98.5,0.46
34.7,33534.9,34904.0,2.0711,-0.1088,137.5,98.5,0.46
34.72,30078.7,33921.4,-2.5801,-1.3219,137.5,98.5,0.46
34.74,31493.3,32906.9,-0.6764,-2.5742,137.5,98.5,0.46
34.76,31218.7,34777.6,-1.0459,-0.2648,137.5,98.5,0.46
34.78,27867.4,33626.6,-5.5559,-1.6858,137.5,98.5,0.46
34.8,32323.0,31953.5,0.4401,-3.7513,137.5,98.5,0.46
34.82,28765.4,35510.5,-4.3474,0.6399,137.5,98.5,0.46
34.84,30517.7,35140.5,-1.9893,0.1832,137.5,98.5,0.46
34.86,30296.4,37735.9,-2.2871,3.3872,137.5,98.5,0.46
34.88,27129.6,33878.3,-6.5488,-1.375,137.5,98.5,0.46
34.9,32279.3,31894.6,0.3814,-3.8239,137.5,98.5,0.46
34.92,32111.3,36839.5,0.1553,2.2807,137.5,98.5,0.46
34.94,30318.3,37009.8,-2.2577,2.4908,137.5,98.5,0.46
34.96,27593.4,36273.7,-5.9246,1.5821,137.5,98.5,0.46
34.98,30795.5,36580.6,-1.6154,1.961,137.5,98.5,0.46
35.0,31343.4,36473.2,-0.8781,1.8284,137.5,98.5,0.46
35.02,29472.1,35545.1,-3.3964,0.6827,137.5,98.5,0.46
35.04,31776.2,33313.0,-0.2957,-2.0729,137.5,98.5,0.46
35.06,35983.6,36228.5,5.3664,1.5263,137.5,98.5,0.46
35.08,30391.1,35131.5,-2.1597,0.1721,137.5,98.5,0.46
35.1,30342.0,32690.3,-2.2257,-2.8416,137.5,98.5,0.46
35.12,32016.7,34774.5,0.028,-0.2686,137.5,98.5,0.46
35.14,33224.3,34338.4,1.653,-0.8071,137.5,98.5,0.46
35.16,27519.9,35208.4,-6.0235,0.267,137.5,98.5,0.46
35.18,32746.7,31652.6,1.0104,-4.1228,137.5,98.5,0.46
35.2,28500.6,34172.9,-4.7038,-1.0114,137.5,98.5,0.46
35.22,32084.3,32515.3,0.119,-3.0576,137.5,98.5,0.46
35.24,29287.6,35274.4,-3.6447,0.3484,137.5,98.5,0.46
35.26,35186.2,36609.0,4.2933,1.9961,137.5,98.5,0.46
35.28,32208.4,32083.0,0.286,-3.5914,137.5,98.5,0.46
35.3,30252.4,32561.3,-2.3463,-3.001,137.5,98.5,0.46
35.32,32691.8,31621.2,0.9365,-4.1615,137.5,98.5,0.46
35.34,31359.2,31490.0,-0.8569,-4.3235,137.5,98.5,0.46
35.36,33660.1,36119.2,2.2396,1.3913,137.5,98.5,0.46
35.38,31065.0,34227.8,-1.2528,-0.9436,137.5,98.5,0.46
35.4,31636.6,34766.7,-0.4836,-0.2783,137.5,98.5,0.46
35.42,33830.0,36571.1,2.4681,1.9492,137.5,98.5,0.46
35.44,33895.7,38324.9,2.5566,4.1144,137.5,98.5,0.46
35.46,32886.6,35487.3,1.1986,0.6113,137.5,98.5,0.46
35.48,32644.6,34659.3,0.873,-0.4109,137.5,98.5,0.46
35.5,33761.7,35635.5,2.3762,0.7942,137.5,98.5,0.46
35.52,31816.5,35253.6,-0.2414,0.3228,137.5,98.5,0.46
35.54,30818.5,36491.9,-1.5845,1.8515,137.5,98.5,0.46
35.56,29153.0,35480.5,-3.8259,0.603,137.5,98.5,0.46
35.58,27352.5,33693.3,-6.2488,-1.6034,137.5,98.5,0.46
35.6,31781.6,37939.4,-0.2884,3.6385,137.5,98.5,0.46
35.62,33076.3,38855.3,1.4539,4.7691,137.5,98.5,0.46
35.64,35942.8,35097.9,5.3115,0.1306,137.5,98.5,0.46
35.66,26811.2,35064.3,-6.9772,0.0891,137.5,98.5,0.46
35.68,33327.2,36476.1,1.7916,1.832,137.5,98.5,0.46
35.7,33969.5,32990.3,2.6559,-2.4713,137.5,98.5,0.46
35.72,30570.2,33382.9,-1.9187,-1.9867,137.5,98.5,0.46
35.74,30286.2,33973.3,-2.3008,-1.2578,137.5,98.5,0.46
35.76,28920.5,35006.0,-4.1387,0.0172,137.5,98.5,0.46
35.78,30399.5,36149.6,-2.1484,1.4289,137.5,98.5,0.46
35.8,29482.3,36345.6,-3.3827,1.6709,137.5,98.5,0.46
35.82,31799.7,35251.5,-0.264,0.3202,137.5,98.5,0.46
35.84,32023.4,36094.1,0.037,1.3603,137.5,98.5,0.46
35.86,35656.5,36809.9,4.9262,2.2441,137.5,98.5,0.46
35.88,30521.2,37186.5,-1.9846,2.709,137.5,98.5,0.46
35.9,30156.8,37389.6,-2.4749,2.9597,137.5,98.5,0.46
35.92,31530.3,36702.4,-0.6267,2.1114,137.5,98.5,0.46
35.94,35489.6,33811.6,4.7016,-1.4574,137.5,98.5,0.46
35.96,30974.5,38994.0,-1.3746,4.9404,137.5,98.5,0.46
35.98,34947.6,33597.4,3.9722,-1.7218,137.5,98.5,0.46
36.0,35302.1,37307.1,4.4493,2.8579,137.5,98.5,0.46
36.02,30223.9,30637.2,-2.3847,-5.3763,137.5,98.5,0.46
36.04,33013.1,29977.4,1.3688,-6.1908,137.5,98.5,0.46
36.06,30740.3,33054.3,-1.6898,-2.3923,137.5,98.5,0.46
36.08,28849.8,34838.0,-4.2338,-0.1903,137.5,98.5,0.46
36.1,31921.2,33804.7,-0.1005,-1.4659,137.5,98.5,0.46
36.12,30389.4,34140.1,-2.1619,-1.0519,137.5,98.5,0.46
36.14,31676.5,31922.2,-0.4298,-3.7899,137.5,98.5,0.46
36.16,33557.1,34235.0,2.1009,-0.9347,137.5,98.5,0.46
36.18,34312.5,34215.5,3.1175,-0.9588,137.5,98.5,0.46
36.2,30296.4,36615.7,-2.2871,2.0043,137.5,98.5,0.46
36.22,28995.7,38413.1,-4.0375,4.2232,137.5,98.5,0.46
36.24,30624.7,35218.4,-1.8453,0.2793,137.5,98.5,0.46
36.26,35049.2,36254.3,4.1089,1.5582,137.5,98.5,0.46
36.28,32126.6,34296.4,0.1758,-0.8589,137.5,98.5,0.46
36.3,31480.4,39038.2,-0.6938,4.995,137.5,98.5,0.46
36.32,35947.8,36678.0,5.3182,2.0813,137.5,98.5,0.46
36.34,29138.7,36637.7,-3.8451,2.0315,137.5,98.5,0.46
36.36,32031.9,34975.1,0.0484,-0.021,137.5,98.5,0.46
36.38,30737.1,33588.2,-1.6941,-1.7332,137.5,98.5,0.46
36.4,35413.6,36760.8,4.5993,2.1835,137.5,98.5,0.46
36.42,33044.4,36054.1,1.4109,1.311,137.5,98.5,0.46
36.44,34962.8,32459.1,3.9926,-3.1271,137.5,98.5,0.46
36.46,32037.9,35792.3,0.0565,0.9878,137.5,98.5,0.46
36.48,30716.9,34001.3,-1.7213,-1.2232,137.5,98.5,0.46
36.5,33658.4,33450.2,2.2372,-1.9035,137.5,98.5,0.46
36.52,30501.2,35277.1,-2.0114,0.3518,137.5,98.5,0.46
36.54,29247.5,34092.5,-3.6986,-1.1106,137.5,98.5,0.46
36.56,32657.2,32950.3,0.89,-2.5206,137.5,98.5,0.46
36.58,27989.4,34023.3,-5.3918,-1.1961,137.5,98.5,0.46
36.6,34455.0,37038.6,3.3093,2.5264,137.5,98.5,0.46
36.62,31762.3,37012.8,-0.3144,2.4945,137.5,98.5,0.46
36.64,31705.1,36511.4,-0.3914,1.8756,137.5,98.5,0.46
36.66,32182.2,33240.5,0.2507,-2.1624,137.5,98.5,0.46
36.68,34826.1,34193.8,3.8086,-0.9856,137.5,98.5,0.46
36.7,31704.2,33863.8,-0.3926,-1.3929,137.5,98.5,0.46
36.72,29976.4,40351.5,-2.7177,6.6162,137.5,98.5,0.46
36.74,33085.5,35261.4,1.4663,0.3324,137.5,98.5,0.46
36.76,33152.8,35879.1,1.5568,1.095,137.5,98.5,0.46
36.78,33322.5,37325.9,1.7852,2.8811,137.5,98.5,0.46
36.8,34805.6,37765.9,3.781,3.4242,137.5,98.5,0.46
36.82,31763.4,30984.3,-0.3129,-4.9478,137.5,98.5,0.46
36.84,33549.2,35441.9,2.0903,0.5553,137.5,98.5,0.46
36.86,31005.4,33924.7,-1.333,-1.3177,137.5,98.5,0.46
36.88,32658.1,35861.2,0.8912,1.0729,137.5,98.5,0.46
36.9,31193.8,34803.3,-1.0794,-0.2331,137.5,98.5,0.46
36.92,33557.4,31830.7,2.1013,-3.9029,137.5,98.5,0.46
36.94,33623.4,34464.9,2.1901,-0.6509,137.5,98.5,0.46
36.96,31379.3,35148.7,-0.8298,0.1933,137.5,98.5,0.46
36.98,34192.4,32624.1,2.9559,-2.9234,137.5,98.5,0.46
37.0,33269.9,35044.9,1.7144,0.0652,137.5,98.5,0.46
37.02,31461.5,34312.8,-0.7192,-0.8386,137.5,98.5,0.46
37.04,31476.2,33308.4,-0.6994,-2.0786,137.5,98.5,0.46
37.06,31791.0,37415.9,-0.2758,2.9922,137.5,98.5,0.46
37.08,33566.4,34680.0,2.1134,-0.3853,137.5,98.5,0.46
37.1,35941.7,32654.5,5.31,-2.8858,137.5,98.5,0.46
37.12,29732.7,34701.9,-3.0456,-0.3583,137.5,98.5,0.46
37.14,32975.5,38833.2,1.3182,4.7419,137.5,98.5,0.46
37.16,32268.3,36039.8,0.3666,1.2934,137.5,98.5,0.46
37.18,34250.1,35710.9,3.0335,0.8873,137.5,98.5,0.46
37.2,32247.8,36444.1,0.3389,1.7925,137.5,98.5,0.46
37.22,34064.8,35534.9,2.7842,0.67,137.5,98.5,0.46
37.24,29884.8,33843.5,-2.841,-1.418,137.5,98.5,0.46
37.26,34457.8,36223.5,3.313,1.5202,137.5,98.5,0.46
37.28,32679.9,31856.5,0.9205,-3.871,137.5,98.5,0.46
37.3,31195.8,33413.3,-1.0768,-1.9491,137.5,98.5,0.46
37.32,32824.2,33903.0,1.1147,-1.3446,137.5,98.5,0.46
37.34,29353.2,30177.6,-3.5564,-5.9436,137.5,98.5,0.46
37.36,31884.4,33313.1,-0.1501,-2.0728,137.5,98.5,0.46
37.38,31224.4,39346.0,-1.0383,5.3749,137.5,98.5,0.46
37.4,27933.5,33277.6,-5.467,-2.1167,137.5,98.5,0.46
37.42,33786.4,36512.5,2.4095,1.8769,137.5,98.5,0.46
37.44,29017.2,38819.4,-4.0085,4.7249,137.5,98.5,0.46
37.46,30780.0,31653.5,-1.6363,-4.1216,137.5,98.5,0.46
37.48,31158.8,34649.2,-1.1266,-0.4233,137.5,98.5,0.46
37.5,30130.5,34092.5,-2.5103,-1.1106,137.5,98.5,0.46
37.52,31288.4,34429.6,-0.9521,-0.6944,137.5,98.5,0.46
37.54,36182.6,37341.1,5.6342,2.8999,137.5,98.5,0.46
37.56,33741.4,32109.8,2.3489,-3.5583,137.5,98.5,0.46
37.58,31115.4,34143.2,-1.1849,-1.048,137.5,98.5,0.46
37.6,32688.9,35879.6,0.9326,1.0956,137.5,98.5,0.46
37.62,28451.0,35630.1,-4.7705,0.7876,137.5,98.5,0.46
37.64,29276.4,35394.7,-3.6597,0.4969,137.5,98.5,0.46
37.66,30831.3,35361.8,-1.5673,0.4564,137.5,98.5,0.46
37.68,31675.8,38001.2,-0.4308,3.7147,137.5,98.5,0.46
37.7,33013.1,34907.2,1.3689,-0.1048,137.5,98.5,0.46
37.72,32548.8,31953.9,0.744,-3.7508,137.5,98.5,0.46
37.74,30908.8,35334.9,-1.463,0.4231,137.5,98.5,0.46
37.76,31403.4,33958.5,-0.7974,-1.2761,137.5,98.5,0.46
37.78,32277.0,32628.1,0.3782,-2.9184,137.5,98.5,0.46
37.8,33321.8,33856.7,1.7843,-1.4018,137.5,98.5,0.46
37.82,33358.2,34116.3,1.8332,-1.0812,137.5,98.5,0.46
37.84,31774.4,37120.3,-0.298,2.6273,137.5,98.5,0.46
37.86,34939.4,35060.3,3.9611,0.0841,137.5,98.5,0.46
37.88,27814.2,33325.4,-5.6274,-2.0576,137.5,98.5,0.46
37.9,27731.2,36193.6,-5.7392,1.4833,137.5,98.5,0.46
37.92,33847.2,34610.1,2.4914,-0.4716,137.5,98.5,0.46
37.94,31547.4,35642.8,-0.6036,0.8033,137.5,98.5,0.46
37.96,29275.7,35138.8,-3.6608,0.1811,137.5,98.5,0.46
37.98,31728.4,35788.2,-0.36,0.9828,137.5,98.5,0.46
38.0,32211.2,34078.8,0.2897,-1.1276,137.5,98.5,0.46
38.02,32745.9,32407.6,1.0093,-3.1906,137.5,98.5,0.46
38.04,34283.2,38985.6,3.0781,4.93,137.5,98.5,0.46
38.06,33805.0,31826.8,2.4346,-3.9077,137.5,98.5,0.46
38.08,32688.6,34986.7,0.9322,-0.0067,137.5,98.5,0.46
38.1,33235.4,33190.2,1.668,-2.2246,137.5,98.5,0.46
38.12,31973.3,36516.3,-0.0304,1.8816,137.5,98.5,0.46
38.14,31661.2,36313.0,-0.4505,1.6307,137.5,98.5,0.46
38.16,31236.3,35965.6,-1.0223,1.2018,137.5,98.5,0.46
38.18,32291.6,34009.6,0.398,-1.213,137.5,98.5,0.46
38.2,29483.7,35625.5,-3.3808,0.7819,137.5,98.5,0.46
38.22,32048.6,32807.8,0.0709,-2.6966,137.5,98.5,0.46
38.24,36115.7,36341.4,5.5441,1.6657,137.5,98.5,0.46
38.26,32663.8,35458.5,0.8987,0.5758,137.5,98.5,0.46
38.28,31179.9,37093.8,-1.0982,2.5946,137.5,98.5,0.46
38.3,31444.7,38273.6,-0.7418,4.051,137.5,98.5,0.46
38.32,33597.0,32339.6,2.1547,-3.2746,137.5,98.5,0.46
38.34,30731.2,34414.9,-1.702,-0.7126,137.5,98.5,0.46
38.36,33259.9,32854.9,1.701,-2.6384,137.5,98.5,0.46
38.38,33646.2,34502.0,2.2208,-0.6051,137.5,98.5,0.46
38.4,31853.0,32722.0,-0.1924,-2.8025,137.5,98.5,0.46
38.42,33115.9,32407.9,1.5072,-3.1903,137.5,98.5,0.46
38.44,30750.9,32142.3,-1.6755,-3.5182,137.5,98.5,0.46
38.46,37027.6,36757.5,6.7713,2.1794,137.5,98.5,0.46
38.48,31813.9,36674.2,-0.2449,2.0765,137.5,98.5,0.46
38.5,31333.4,37812.5,-0.8916,3.4819,137.5,98.5,0.46
38.52,33636.9,33918.9,2.2083,-1.3249,137.5,98.5,0.46
38.54,33043.8,33678.3,1.4102,-1.6219,137.5,98.5,0.46
38.56,33878.9,36026.0,2.534,1.2763,137.5,98.5,0.46
38.58,34823.0,34294.9,3.8045,-0.8608,137.5,98.5,0.46
38.6,32357.4,34642.6,0.4865,-0.4315,137.5,98.5,0.46
38.62,33114.1,33927.3,1.5047,-1.3146,137.5,98.5,0.46
38.64,32382.1,34436.2,0.5196,-0.6864,137.5,98.5,0.46
38.66,35071.5,33518.1,4.1389,-1.8197,137.5,98.5,0.46
38.68,32705.4,31993.7,0.9548,-3.7016,137.5,98.5,0.46
38.7,33209.1,32510.7,1.6326,-3.0634,137.5,98.5,0.46
38.72,27336.8,36518.0,-6.2699,1.8837,137.5,98.5,0.46
38.74,31220.7,34425.1,-1.0432,-0.7,137.5,98.5,0.46
38.76,36315.3,33795.3,5.8127,-1.4775,137.5,98.5,0.46
38.78,34098.4,32863.8,2.8293,-2.6274,137.5,98.5,0.46
38.8,33221.9,32615.1,1.6499,-2.9345,137.5,98.5,0.46
38.82,30899.6,33772.5,-1.4754,-1.5057,137.5,98.5,0.46
38.84,29965.1,32888.1,-2.733,-2.5975,137.5,98.5,0.46
38.86,34364.1,35015.5,3.1869,0.0288,137.5,98.5,0.46
38.88,31263.0,37482.1,-0.9863,3.0739,137.5,98.5,0.46
38.9,30798.2,36153.7,-1.6119,1.434,137.5,98.5,0.46
38.92,32850.1,36909.4,1.1495,2.3669,137.5,98.5,0.46
38.94,32686.2,35856.2,0.9289,1.0668,137.5,98.5,0.46
38.96,33555.0,35473.5,2.0981,0.5942,137.5,98.5,0.46
38.98,32778.0,35652.7,1.0524,0.8155,137.5,98.5,0.46
39.0,31888.1,35345.3,-0.1451,0.436,137.5,98.5,0.46
39.02,32318.7,36880.8,0.4343,2.3316,137.5,98.5,0.46
39.04,32687.3,36188.9,0.9304,1.4774,137.5,98.5,0.46
39.06,34372.3,34529.0,3.198,-0.5717,137.5,98.5,0.46
39.08,32555.0,37457.0,0.7524,3.043,137.5,98.5,0.46
39.1,29999.1,34886.7,-2.6872,-0.1301,137.5,98.5,0.46
39.12,30441.4,32035.2,-2.092,-3.6504,137.5,98.5,0.46
39.14,33472.0,35378.8,1.9864,0.4773,137.5,98.5,0.46
39.16,31959.5,32220.4,-0.049,-3.4218,137.5,98.5,0.46
39.18,27354.5,33861.9,-6.2461,-1.3953,137.5,98.5,0.46
39.2,31160.8,39198.7,-1.1238,5.1931,137.5,98.5,0.46
39.22,34398.2,31815.8,3.2329,-3.9212,137.5,98.5,0.46
39.24,32838.5,35332.0,1.1339,0.4195,137.5,98.5,0.46
39.26,33099.7,35069.0,1.4854,0.095,137.5,98.5,0.46
39.28,33527.3,35998.4,2.0609,1.2422,137.5,98.5,0.46
39.3,37262.9,35624.7,7.088,0.781,137.5,98.5,0.46
39.32,31538.5,38319.4,-0.6156,4.1076,137.5,98.5,0.46
39.34,35560.9,33747.5,4.7976,-1.5366,137.5,98.5,0.46
39.36,32419.3,35640.3,0.5698,0.8001,137.5,98.5,0.46
39.38,34550.5,36734.8,3.4378,2.1513,137.5,98.5,0.46
39.4,30850.7,36598.4,-1.5411,1.9829,137.5,98.5,0.46
39.42,33571.4,30617.2,2.1202,-5.4009,137.5,98.5,0.46
39.44,34537.2,35679.3,3.42,0.8484,137.5,98.5,0.46
39.46,34123.0,35159.8,2.8625,0.2069,137.5,98.5,0.46
39.48,28443.5,36808.4,-4.7806,2.2423,137.5,98.5,0.46
39.5,30523.2,35323.0,-1.9819,0.4084,137.5,98.5,0.46
39.52,30599.7,36765.3,-1.879,2.189,137.5,98.5,0.46
39.54,31719.2,34159.1,-0.3723,-1.0284,137.5,98.5,0.46
39.56,26227.0,35583.3,-7.7634,0.7298,137.5,98.5,0.46
39.58,37436.4,38132.5,7.3215,3.8768,137.5,98.5,0.46
39.6,32284.7,35474.2,0.3886,0.5951,137.5,98.5,0.46
39.62,32276.0,33130.9,0.3769,-2.2977,137.5,98.5,0.46
39.64,31653.4,32512.1,-0.461,-3.0617,137.5,98.5,0.46
39.66,35371.5,32944.9,4.5427,-2.5274,137.5,98.5,0.46
39.68,34805.0,35191.5,3.7803,0.2461,137.5,98.5,0.46
39.7,34583.7,35983.1,3.4824,1.2234,137.5,98.5,0.46
39.72,31633.7,35289.5,-0.4874,0.3671,137.5,98.5,0.46
39.74,31908.7,35962.7,-0.1174,1.1981,137.5,98.5,0.46
39.76,27814.0,37498.1,-5.6278,3.0937,137.5,98.5,0.46
39.78,32179.1,35117.7,0.2465,0.155,137.5,98.5,0.46
39.8,35124.6,35057.9,4.2104,0.0812,137.5,98.5,0.46
39.82,30340.1,37005.4,-2.2283,2.4854,137.5,98.5,0.46
39.84,30373.9,34974.1,-2.1828,-0.0223,137.5,98.5,0.46
39.86,30083.9,35738.5,-2.573,0.9214,137.5,98.5,0.46
39.88,34231.1,33094.3,3.008,-2.3429,137.5,98.5,0.46
39.9,30720.9,37241.7,-1.7159,2.7772,137.5,98.5,0.46
39.92,30299.5,33957.7,-2.283,-1.2771,137.5,98.5,0.46
39.94,31374.2,35036.4,-0.8366,0.0546,137.5,98.5,0.46
39.96,30774.2,37229.4,-1.6442,2.7619,137.5,98.5,0.46
39.98,31352.7,34378.4,-0.8657,-0.7576,137.5,98.5,0.46
40.0,29962.0,35090.1,-2.7371,0.1209,137.5,98.5,0.46
40.02,33489.8,36705.6,2.0104,2.1153,137.5,98.5,0.46
40.04,34216.4,35434.1,2.9882,0.5456,137.5,98.5,0.46
40.06,27058.7,34871.6,-6.6442,-0.1488,137.5,98.5,0.46
40.08,33061.0,36484.3,1.4333,1.8421,137.5,98.5,0.46
40.1,31700.1,32882.8,-0.398,-2.604,137.5,98.5,0.46
40.12,35922.0,34327.6,5.2835,-0.8204,137.5,98.5,0.46
40.14,32189.2,37573.4,0.26,3.1866,137.5,98.5,0.46
40.16,32997.0,34489.8,1.3472,-0.6201,137.5,98.5,0.46
40.18,31664.7,37585.2,-0.4458,3.2012,137.5,98.5,0.46
40.2,29572.0,36278.2,-3.2619,1.5877,137.5,98.5,0.46
40.22,30944.6,36091.6,-1.4148,1.3574,137.5,98.5,0.46
40.24,32833.9,36386.7,1.1278,1.7217,137.5,98.5,0.46
40.26,31541.7,36189.5,-0.6113,1.4782,137.5,98.5,0.46
40.28,30720.8,35109.8,-1.716,0.1453,137.5,98.5,0.46
40.3,28382.7,34519.3,-4.8624,-0.5837,137.5,98.5,0.46
40.32,30062.4,37242.6,-2.6021,2.7783,137.5,98.5,0.46
40.34,32721.6,34584.0,0.9766,-0.5039,137.5,98.5,0.46
40.36,32314.1,31433.1,0.4282,-4.3937,137.5,98.5,0.46
40.38,33978.8,34095.2,2.6684,-1.1073,137.5,98.5,0.46
40.4,31530.6,37934.3,-0.6262,3.6321,137.5,98.5,0.46
40.42,33503.1,32676.6,2.0283,-2.8586,137.5,98.5,0.46
40.44,33307.9,36131.2,1.7656,1.4062,137.5,98.5,0.46
40.46,29325.9,35183.6,-3.5931,0.2363,137.5,98.5,0.46
40.48,33394.7,36120.1,1.8823,1.3925,137.5,98.5,0.46
40.5,30561.3,35001.2,-1.9307,0.0112,137.5,98.5,0.46
40.52,34699.5,33123.4,3.6383,-2.307,137.5,98.5,0.46
40.54,28432.8,35466.6,-4.795,0.5857,137.5,98.5,0.46
40.56,33377.8,32817.0,1.8596,-2.6853,137.5,98.5,0.46
40.58,31027.8,35902.0,-1.3029,1.1232,137.5,98.5,0.46
40.6,34102.2,33130.9,2.8345,-2.2978,137.5,98.5,0.46
40.62,31018.0,36634.7,-1.316,2.0278,137.5,98.5,0.46
40.64,33997.2,37979.8,2.6932,3.6884,137.5,98.5,0.46
40.66,31549.0,36898.5,-0.6014,2.3535,137.5,98.5,0.46
40.68,33204.2,33269.4,1.626,-2.1268,137.5,98.5,0.46
40.7,34116.3,30925.7,2.8535,-5.0201,137.5,98.5,0.46
40.72,31391.1,35562.8,-0.814,0.7045,137.5,98.5,0.46
40.74,29513.6,32584.6,-3.3406,-2.9722,137.5,98.5,0.46
40.76,33742.5,29069.7,2.3505,-7.3114,137.5,98.5,0.46
40.78,32308.5,32759.4,0.4206,-2.7564,137.5,98.5,0.46
40.8,34433.7,35413.1,3.2806,0.5197,137.5,98.5,0.46
40.82,31674.1,35844.7,-0.4331,1.0525,137.5,98.5,0.46
40.84,31371.1,36953.5,-0.8409,2.4213,137.5,98.5,0.46
40.86,30615.2,38390.2,-1.8581,4.195,137.5,98.5,0.46
40.88,32546.0,35295.0,0.7402,0.3739,137.5,98.5,0.46
40.9,27988.3,33360.1,-5.3932,-2.0148,137.5,98.5,0.46
40.92,31123.5,37965.4,-1.1741,3.6706,137.5,98.5,0.46
40.94,31462.6,35942.9,-0.7177,1.1738,137.5,98.5,0.46
40.96,32103.0,34205.6,0.1441,-0.971,137.5,98.5,0.46
40.98,30754.7,35802.6,-1.6703,1.0006,137.5,98.5,0.46
41.0,33443.6,38014.5,1.9482,3.7312,137.5,98.5,0.46
41.02,29878.2,34052.3,-2.8499,-1.1602,137.5,98.5,0.46
41.04,35180.3,37121.7,4.2854,2.629,137.5,98.5,0.46
41.06,32146.9,38205.7,0.2032,3.9672,137.5,98.5,0.46
41.08,33201.6,36340.8,1.6226,1.665,137.5,98.5,0.46
41.1,28908.2,37960.3,-4.1552,3.6643,137.5,98.5,0.46
41.12,30406.5,36238.7,-2.139,1.539,137.5,98.5,0.46
41.14,33999.7,33563.7,2.6966,-1.7634,137.5,98.5,0.46
41.16,32730.9,35879.8,0.989,1.0958,137.5,98.5,0.46
41.18,31902.2,36647.6,-0.1261,2.0438,137.5,98.5,0.46
41.2,34955.7,38901.2,3.9831,4.8258,137.5,98.5,0.46
41.22,35663.1,36296.7,4.935,1.6105,137.5,98.5,0.46
41.24,30860.7,36821.1,-1.5277,2.2579,137.5,98.5,0.46
41.26,33851.6,35416.9,2.4972,0.5244,137.5,98.5,0.46
41.28,33514.7,35249.4,2.0439,0.3176,137.5,98.5,0.46
41.3,32466.3,30433.6,0.6331,-5.6276,137.5,98.5,0.46
41.32,33640.7,35904.9,2.2135,1.1268,137.5,98.5,0.46
41.34,30413.2,33318.5,-2.1299,-2.0661,137.5,98.5,0.46
41.36,32227.5,35859.5,0.3116,1.0708,137.5,98.5,0.46
41.38,35661.9,35645.9,4.9334,0.8071,137.5,98.5,0.46
41.4,32633.6,34437.9,0.8581,-0.6842,137.5,98.5,0.46
41.42,35097.3,34180.0,4.1736,-1.0027,137.5,98.5,0.46
41.44,34074.9,30597.8,2.7978,-5.425,137.5,98.5,0.46
41.46,33909.3,36060.9,2.5749,1.3194,137.5,98.5,0.46
41.48,31129.9,35228.3,-1.1655,0.2915,137.5,98.5,0.46
41.5,32469.0,36516.6,0.6366,1.8819,137.5,98.5,0.46
41.52,31425.8,29343.5,-0.7672,-6.9734,137.5,98.5,0.46
41.54,38793.4,35916.9,9.1476,1.1417,137.5,98.5,0.46
41.56,31517.8,40212.9,-0.6434,6.4451,137.5,98.5,0.46
41.58,31284.7,32064.2,-0.9571,-3.6146,137.5,98.5,0.46
41.6,31436.8,33285.4,-0.7525,-2.107,137.5,98.5,0.46
41.62,31237.6,34245.8,-1.0205,-0.9214,137.5,98.5,0.46
41.64,30571.2,37014.3,-1.9172,2.4964,137.5,98.5,0.46
41.66,36555.7,32918.1,6.1362,-2.5604,137.5,98.5,0.46
41.68,29230.8,33703.2,-3.7212,-1.5913,137.5,98.5,0.46
41.7,34234.7,30821.9,3.0128,-5.1482,137.5,98.5,0.46
41.72,31660.6,32830.1,-0.4512,-2.6691,137.5,98.5,0.46
41.74,29814.8,36032.4,-2.9352,1.2842,137.5,98.5,0.46
41.76,27836.5,32950.2,-5.5975,-2.5208,137.5,98.5,0.46
41.78,32229.4,30796.8,0.3143,-5.1792,137.5,98.5,0.46
41.8,31078.7,35049.3,-1.2343,0.0706,137.5,98.5,0.46
41.82,31546.5,36697.8,-0.6047,2.1057,137.5,98.5,0.46
41.84,31708.9,35188.7,-0.3863,0.2427,137.5,98.5,0.46
41.86,33330.2,32629.8,1.7956,-2.9163,137.5,98.5,0.46
41.88,31851.5,35853.9,-0.1943,1.0638,137.5,98.5,0.46
41.9,33388.7,39369.2,1.8744,5.4035,137.5,98.5,0.46
41.92,31666.4,31102.4,-0.4435,-4.802,137.5,98.5,0.46
41.94,32438.2,39231.5,0.5952,5.2336,137.5,98.5,0.46
41.96,32432.7,33837.3,0.5877,-1.4257,137.5,98.5,0.46
41.98,30456.3,34101.6,-2.0719,-1.0994,137.5,98.5,0.46
42.0,31793.8,34079.9,-0.2719,-1.1262,137.5,98.5,0.46
42.02,31124.6,36322.0,-1.1725,1.6418,137.5,98.5,0.46
42.04,32562.0,37375.4,0.7617,2.9422,137.5,98.5,0.46
42.06,29407.5,32396.8,-3.4834,-3.204,137.5,98.5,0.46
42.08,34190.3,32253.4,2.9531,-3.381,137.5,98.5,0.46
42.1,30222.1,36231.9,-2.3871,1.5305,137.5,98.5,0.46
42.12,31938.4,33428.1,-0.0774,-1.9308,137.5,98.5,0.46
42.14,31506.1,34081.3,-0.6592,-1.1245,137.5,98.5,0.46
42.16,31053.1,34586.2,-1.2688,-0.5011,137.5,98.5,0.46
42.18,33395.6,37104.0,1.8836,2.6072,137.5,98.5,0.46
42.2,32537.0,36429.5,0.7282,1.7745,137.5,98.5,0.46
42.22,31405.8,37416.5,-0.7942,2.9929,137.5,98.5,0.46
42.24,32605.2,31332.4,0.82,-4.5181,137.5,98.5,0.46
42.26,30918.0,31705.0,-1.4506,-4.058,137.5,98.5,0.46
42.28,29394.8,34077.6,-3.5004,-1.129,137.5,98.5,0.46
42.3,32163.0,35855.7,0.2248,1.0661,137.5,98.5,0.46
42.32,32591.0,40184.4,0.8008,6.41,137.5,98.5,0.46
42.34,30934.4,36120.7,-1.4286,1.3933,137.5,98.5,0.46
42.36,31199.3,35039.1,-1.0721,0.058,137.5,98.5,0.46
42.38,30200.5,35893.6,-2.4161,1.1129,137.5,98.5,0.46
42.4,31506.8,38441.1,-0.6582,4.2578,137.5,98.5,0.46
42.42,35710.8,37104.7,4.9993,2.608,137.5,98.5,0.46
42.44,32702.8,34533.3,0.9513,-0.5665,137.5,98.5,0.46
42.46,33652.1,33855.5,2.2288,-1.4032,137.5,98.5,0.46
42.48,29789.2,36225.5,-2.9696,1.5226,137.5,98.5,0.46
42.5,33599.1,34965.0,2.1574,-0.0335,137.5,98.5,0.46
42.52,35746.7,35625.0,5.0476,0.7812,137.5,98.5,0.46
42.54,33445.9,36111.1,1.9513,1.3813,137.5,98.5,0.46
42.56,29424.1,34172.4,-3.4609,-1.012,137.5,98.5,0.46
42.58,28665.5,35879.1,-4.4818,1.095,137.5,98.5,0.46
42.6,34087.4,34682.9,2.8146,-0.3818,137.5,98.5,0.46
42.62,32933.1,34164.5,1.2612,-1.0217,137.5,98.5,0.46
42.64,31566.6,34578.5,-0.5778,-0.5106,137.5,98.5,0.46
42.66,31889.6,35533.4,-0.143,0.6683,137.5,98.5,0.46
42.68,28301.0,33351.8,-4.9724,-2.025,137.5,98.5,0.46
42.7,30937.6,34153.2,-1.4242,-1.0356,137.5,98.5,0.46
42.72,31898.3,35941.3,-0.1314,1.1718,137.5,98.5,0.46
42.74,31800.7,32889.6,-0.2627,-2.5956,137.5,98.5,0.46
42.76,32008.5,37079.5,0.017,2.5769,137.5,98.5,0.46
42.78,32983.4,38293.5,1.3289,4.0756,137.5,98.5,0.46
42.8,29423.0,32930.0,-3.4625,-2.5457,137.5,98.5,0.46
42.82,31085.3,35827.7,-1.2255,1.0316,137.5,98.5,0.46
42.84,34536.7,36289.0,3.4192,1.601,137.5,98.5,0.46
42.86,32087.6,35652.8,0.1233,0.8156,137.5,98.5,0.46
42.88,29789.1,32554.8,-2.9697,-3.009,137.5,98.5,0.46
42.9,30329.3,34829.9,-2.2428,-0.2003,137.5,98.5,0.46
42.92,31746.6,37659.4,-0.3355,3.2928,137.5,98.5,0.46
42.94,33034.3,32686.3,1.3974,-2.8466,137.5,98.5,0.46
42.96,31446.6,31731.2,-0.7393,-4.0256,137.5,98.5,0.46
42.98,28915.3,34720.4,-4.1457,-0.3355,137.5,98.5,0.46
43.0,32032.0,36253.0,0.0486,1.5566,137.5,98.5,0.46
43.02,29383.1,33931.7,-3.5161,-1.3092,137.5,98.5,0.46
43.04,33589.3,34929.8,2.1443,-0.0769,137.5,98.5,0.46
43.06,28557.7,36435.9,-4.6269,1.7823,137.5,98.5,0.46
43.08,32015.8,39109.8,0.0268,5.0833,137.5,98.5,0.46
43.1,33593.7,32845.6,2.1502,-2.6499,137.5,98.5,0.46
43.12,33831.4,33910.9,2.4701,-1.3348,137.5,98.5,0.46
43.14,33344.9,35031.2,1.8154,0.0483,137.5,98.5,0.46
43.16,32650.4,35866.6,0.8808,1.0796,137.5,98.5,0.46
43.18,30721.3,34411.9,-1.7153,-0.7163,137.5,98.5,0.46
43.2,32031.0,35487.5,0.0472,0.6115,137.5,98.5,0.46
43.22,36359.8,34516.1,5.8726,-0.5877,137.5,98.5,0.46
43.24,33742.8,38215.1,2.3508,3.9788,137.5,98.5,0.46
43.26,30730.8,34627.4,-1.7025,-0.4503,137.5,98.5,0.46
43.28,36543.3,36848.5,6.1196,2.2917,137.5,98.5,0.46
43.3,30413.7,34117.1,-2.1292,-1.0803,137.5,98.5,0.46
43.32,34402.0,31290.8,3.238,-4.5694,137.5,98.5,0.46
43.34,32563.9,33148.3,0.7643,-2.2763,137.5,98.5,0.46
43.36,27408.7,32927.4,-6.1732,-2.5489,137.5,98.5,0.46
43.38,32106.0,36419.0,0.1482,1.7615,137.5,98.5,0.46
43.4,28546.1,32437.0,-4.6425,-3.1543,137.5,98.5,0.46
43.42,35991.4,34922.1,5.3769,-0.0864,137.5,98.5,0.46
43.44,32494.6,34686.0,0.6711,-0.3779,137.5,98.5,0.46
43.46,32003.4,29948.8,0.01,-6.2261,137.5,98.5,0.46
43.48,31507.6,34423.4,-0.6572,-0.7021,137.5,98.5,0.46
43.5,30819.8,32841.1,-1.5827,-2.6555,137.5,98.5,0.46
43.52,35847.2,34321.2,5.1828,-0.8283,137.5,98.5,0.46
43.54,31753.1,36933.8,-0.3267,2.3971,137.5,98.5,0.46
43.56,31083.1,35312.0,-1.2284,0.3949,137.5,98.5,0.46
43.58,34664.3,31408.7,3.5909,-4.4239,137.5,98.5,0.46
43.6,32258.1,33345.9,0.3528,-2.0323,137.5,98.5,0.46
43.62,32746.5,35029.2,1.01,0.0458,137.5,98.5,0.46
43.64,31668.0,36451.8,-0.4413,1.8021,137.5,98.5,0.46
43.66,33048.5,36345.8,1.4165,1.6711,137.5,98.5,0.46
43.68,30592.2,32458.9,-1.8891,-3.1274,137.5,98.5,0.46
43.7,31792.2,37370.6,-0.2742,2.9363,137.5,98.5,0.46
43.72,31501.5,32133.7,-0.6653,-3.5288,137.5,98.5,0.46
43.74,36311.7,34215.0,5.8079,-0.9594,137.5,98.5,0.46
43.76,33888.8,36690.5,2.5473,2.0967,137.5,98.5,0.46
43.78,30973.4,33991.1,-1.3761,-1.2358,137.5,98.5,0.46
43.8,33751.9,32900.5,2.3631,-2.5822,137.5,98.5,0.46
43.82,29024.2,34353.3,-3.9991,-0.7887,137.5,98.5,0.46
43.84,32103.3,31552.2,0.1445,-4.2467,137.5,98.5,0.46
43.86,32958.0,35542.7,1.2946,0.6797,137.5,98.5,0.46
43.88,29325.5,31675.0,-3.5937,-4.0951,137.5,98.5,0.46
43.9,30230.2,33034.6,-2.3763,-2.4166,137.5,98.5,0.46
43.92,34461.6,34440.9,3.3181,-0.6805,137.5,98.5,0.46
43.94,34172.5,33129.5,2.9291,-2.2994,137.5,98.5,0.46
43.96,32608.4,32030.5,0.8242,-3.6563,137.5,98.5,0.46
43.98,30837.7,31952.8,-1.5586,-3.7521,137.5,98.5,0.46
44.0,29739.4,34285.9,-3.0367,-0.8718,137.5,98.5,0.46
44.02,28109.2,35404.3,-5.2305,0.5088,137.5,98.5,0.46
44.04,31070.1,33980.5,-1.2458,-1.2488,137.5,98.5,0.46
44.06,34530.4,34596.3,3.4107,-0.4887,137.5,98.5,0.46
44.08,34857.4,33993.3,3.8508,-1.2331,137.5,98.5,0.46
44.1,29995.6,35267.8,-2.692,0.3403,137.5,98.5,0.46
44.12,31142.8,37657.8,-1.1481,3.2909,137.5,98.5,0.46
44.14,35229.8,36998.5,4.3519,2.4769,137.5,98.5,0.46
44.16,34703.4,34275.9,3.6435,-0.8842,137.5,98.5,0.46
44.18,33117.2,38588.4,1.509,4.4397,137.5,98.5,0.46
44.2,32965.0,36722.4,1.3042,2.1361,137.5,98.5,0.46
44.22,34065.4,32352.7,2.7849,-3.2585,137.5,98.5,0.46
44.24,31803.4,35338.1,-0.2591,0.4271,137.5,98.5,0.46
44.26,32368.9,39038.6,0.502,4.9955,137.5,98.5,0.46
44.28,32652.4,32327.7,0.8835,-3.2893,137.5,98.5,0.46
44.3,31186.1,34428.9,-1.0898,-0.6953,137.5,98.5,0.46
44.32,29687.8,36079.8,-3.1061,1.3428,137.5,98.5,0.46
44.34,31419.6,36035.4,-0.7755,1.2879,137.5,98.5,0.46
44.36,31958.2,36108.6,-0.0508,1.3783,137.5,98.5,0.46
44.38,32072.2,37389.6,0.1026,2.9597,137.5,98.5,0.46
44.4,33840.0,31774.8,2.4816,-3.9719,137.5,98.5,0.46
44.42,30391.1,33990.6,-2.1597,-1.2364,137.5,98.5,0.46
44.44,32288.4,32407.5,0.3936,-3.1908,137.5,98.5,0.46
44.46,33492.3,35427.3,2.0137,0.5373,137.5,98.5,0.46
44.48,31865.2,33099.3,-0.1759,-2.3367,137.5,98.5,0.46
44.5,32327.0,33036.5,0.4455,-2.4142,137.5,98.5,0.46
44.52,29132.2,38850.2,-3.8538,4.7629,137.5,98.5,0.46
44.54,32973.0,34255.3,1.3149,-0.9096,137.5,98.5,0.46
44.56,37091.6,37290.4,6.8574,2.8372,137.5,98.5,0.46
44.58,27281.1,37203.6,-6.345,2.7301,137.5,98.5,0.46
44.6,34079.9,35552.1,2.8045,0.6912,137.5,98.5,0.46
44.62,28353.2,36750.5,-4.9022,2.1707,137.5,98.5,0.46
44.64,32486.1,38615.6,0.6596,4.4733,137.5,98.5,0.46
44.66,32475.6,34644.5,0.6455,-0.4291,137.5,98.5,0.46
44.68,37391.5,33179.1,7.2611,-2.2382,137.5,98.5,0.46
44.7,29381.0,32294.5,-3.519,-3.3303,137.5,98.5,0.46
44.72,32984.4,36760.1,1.3302,2.1826,137.5,98.5,0.46
44.74,28152.5,36383.1,-5.1722,1.7172,137.5,98.5,0.46
44.76,35311.8,32763.1,4.4623,-2.7518,137.5,98.5,0.46
44.78,33294.5,30482.2,1.7476,-5.5676,137.5,98.5,0.46
44.8,31388.6,37090.3,-0.8173,2.5902,137.5,98.5,0.46
44.82,32471.6,34443.3,0.6402,-0.6775,137.5,98.5,0.46
44.84,28433.1,34801.8,-4.7946,-0.235,137.5,98.5,0.46
44.86,30937.6,35229.3,-1.4242,0.2928,137.5,98.5,0.46
44.88,31265.4,35122.7,-0.983,0.1612,137.5,98.5,0.46
44.9,28283.1,34861.7,-4.9965,-0.161,137.5,98.5,0.46
44.92,34223.0,36881.4,2.9971,2.3323,137.5,98.5,0.46
44.94,36154.1,34571.1,5.5958,-0.5197,137.5,98.5,0.46
44.96,34614.1,37167.9,3.5233,2.686,137.5,98.5,0.46
44.98,27119.6,37343.9,-6.5622,2.9033,137.5,98.5,0.46
45.0,32395.9,35817.4,0.5383,1.0189,137.5,98.5,0.46
45.02,32398.6,35684.7,0.5419,0.855,137.5,98.5,0.46
45.04,32243.4,35472.7,0.333,0.5932,137.5,98.5,0.46
45.06,32120.2,35278.2,0.1673,0.3531,137.5,98.5,0.46
45.08,32188.1,35319.6,0.2587,0.4043,137.5,98.5,0.46
45.1,32088.2,35179.6,0.1242,0.2314,137.5,98.5,0.46
45.12,32144.7,35045.1,0.2002,0.0654,137.5,98.5,0.46
45.14,32045.9,34977.8,0.0673,-0.0177,137.5,98.5,0.46
45.16,31918.6,34878.7,-0.1041,-0.14,137.5,98.5,0.46
45.18,31940.3,34790.0,-0.0749,-0.2496,137.5,98.5,0.46
45.2,31840.3,34774.4,-0.2094,-0.2688,137.5,98.5,0.46
45.22,31921.5,34641.9,-0.1001,-0.4324,137.5,98.5,0.46
45.24,31879.7,34706.2,-0.1563,-0.353,137.5,98.5,0.46
45.26,31826.7,34631.9,-0.2277,-0.4447,137.5,98.5,0.46
45.28,31840.2,34550.9,-0.2095,-0.5447,137.5,98.5,0.46
45.3,31798.7,34512.1,-0.2654,-0.5926,137.5,98.5,0.46
45.32,31796.4,34540.6,-0.2685,-0.5575,137.5,98.5,0.46
45.34,31812.2,34528.2,-0.2472,-0.5727,137.5,98.5,0.46
45.36,31930.5,34678.5,-0.088,-0.3872,137.5,98.5,0.46
45.38,32089.2,35143.5,0.1255,0.1869,137.5,98.5,0.46
45.4,32161.1,35439.7,0.2223,0.5526,137.5,98.5,0.46
45.42,32378.7,35720.9,0.5151,0.8997,137.5,98.5,0.46
45.44,32230.7,35724.8,0.316,0.9045,137.5,98.5,0.46
45.46,32249.8,35585.8,0.3417,0.7329,137.5,98.5,0.46
45.48,32242.5,35432.0,0.3318,0.5431,137.5,98.5,0.46
45.5,32040.8,35251.0,0.0604,0.3195,137.5,98.5,0.46
45.52,32159.1,35174.6,0.2197,0.2253,137.5,98.5,0.46
45.54,32037.5,35064.4,0.056,0.0892,137.5,98.5,0.46
45.56,32071.0,34992.2,0.101,0.0001,137.5,98.5,0.46
45.58,32062.0,34997.1,0.0889,0.0061,137.5,98.5,0.46
45.6,31927.9,34854.8,-0.0915,-0.1695,137.5,98.5,0.46
45.62,31876.8,34729.7,-0.1603,-0.3239,137.5,98.5,0.46
45.64,31946.7,34679.4,-0.0663,-0.386,137.5,98.5,0.46
45.66,31923.7,34759.0,-0.0972,-0.2878,137.5,98.5,0.46
45.68,31721.6,34643.3,-0.3692,-0.4306,137.5,98.5,0.46
45.7,31888.0,34587.8,-0.1452,-0.4992,137.5,98.5,0.46
45.72,31705.3,34501.2,-0.3912,-0.6061,137.5,98.5,0.46
45.74,31780.8,34398.6,-0.2896,-0.7327,137.5,98.5,0.46
