timestamp,raw_red,raw_ir,filtered_red,filtered_ir,heart_rate,spo2,ac_dc_ratio
0.0,32079.1,35137.1,0.3478,0.3334,149.6,97.0,0.519
0.02,32230.4,35484.3,1.0128,1.1865,149.6,97.0,0.519
0.04,32392.1,35732.1,1.7239,1.7953,149.6,97.0,0.519
0.06,32311.4,35761.6,1.3692,1.8679,149.6,97.0,0.519
0.08,32184.4,35600.1,0.8106,1.471,149.6,97.0,0.519
0.1,32141.6,35391.7,0.6225,0.9589,149.6,97.0,0.519
0.12,32040.9,35194.4,0.1797,0.4742,149.6,97.0,0.519
0.14,31997.2,35141.8,-0.0123,0.345,149.6,97.0,0.519
0.16,31909.0,34979.2,-0.4001,-0.0547,149.6,97.0,0.519
0.18,32064.6,34981.2,0.2839,-0.0496,149.6,97.0,0.519
0.2,31951.4,34871.3,-0.2137,-0.3197,149.6,97.0,0.519
0.22,31814.1,34736.0,-0.8171,-0.6522,149.6,97.0,0.519
0.24,31852.1,34650.6,-0.6501,-0.862,149.6,97.0,0.519
0.26,31857.5,34667.7,-0.6264,-0.82,149.6,97.0,0.519
0.28,31782.4,34595.4,-0.9565,-0.9977,149.6,97.0,0.519
0.3,31789.2,34586.0,-0.9267,-1.0206,149.6,97.0,0.519
0.32,31699.1,34457.1,-1.3229,-1.3374,149.6,97.0,0.519
0.34,31785.8,34390.8,-0.9417,-1.5002,149.6,97.0,0.519
0.36,31799.4,34597.5,-0.8818,-0.9923,149.6,97.0,0.519
0.38,31909.0,34746.2,-0.3999,-0.6271,149.6,97.0,0.519
0.4,32108.5,35139.6,0.4769,0.3395,149.6,97.0,0.519
0.42,32184.4,35507.7,0.8107,1.244,149.6,97.0,0.519
0.44,32367.3,35732.2,1.6146,1.7955,149.6,97.0,0.519
0.46,32324.0,35799.2,1.4246,1.9602,149.6,97.0,0.519
0.48,32281.6,35567.5,1.2379,1.3909,149.6,97.0,0.519
0.5,32129.3,35434.1,0.5683,1.063,149.6,97.0,0.519
0.52,32069.9,35335.7,0.3073,0.8214,149.6,97.0,0.519
0.54,31971.9,35128.6,-0.1233,0.3126,149.6,97.0,0.519
0.56,32026.7,35158.4,0.1175,0.3857,149.6,97.0,0.519
0.58,32021.7,35017.4,0.0955,0.0393,149.6,97.0,0.519
0.6,31933.9,34820.5,-0.2906,-0.4446,149.6,97.0,0.519
0.62,31907.4,34781.8,-0.4072,-0.5395,149.6,97.0,0.519
0.64,31879.9,34710.5,-0.5278,-0.7148,149.6,97.0,0.519
0.66,31894.4,34746.2,-0.4644,-0.6269,149.6,97.0,0.519
0.68,31948.8,34715.1,-0.2251,-0.7036,149.6,97.0,0.519
0.7,31788.8,34494.4,-0.9283,-1.2457,149.6,97.0,0.519
0.72,31707.5,34476.4,-1.2857,-1.2899,149.6,97.0,0.519
0.74,31735.2,34395.8,-1.1642,-1.488,149.6,97.0,0.519
0.76,31754.4,34535.6,-1.0797,-1.1445,149.6,97.0,0.519
0.78,31796.7,34773.7,-0.8936,-0.5596,149.6,97.0,0.519
0.8,32133.9,35135.1,0.5888,0.3285,149.6,97.0,0.519
0.82,32301.8,35558.3,1.3268,1.3683,149.6,97.0,0.519
0.84,32377.4,35733.7,1.659,1.7992,149.6,97.0,0.519
0.86,32434.1,35824.9,1.9087,2.0233,149.6,97.0,0.519
0.88,32185.4,35506.4,0.8151,1.2407,149.6,97.0,0.519
0.9,32242.5,35391.4,1.0663,0.9581,149.6,97.0,0.519
0.92,32094.5,35222.0,0.4157,0.542,149.6,97.0,0.519
0.94,32082.8,35169.5,0.3642,0.4129,149.6,97.0,0.519
0.96,32031.1,35057.9,0.1368,0.1388,149.6,97.0,0.519
0.98,32072.6,35093.4,0.3194,0.2261,149.6,97.0,0.519
1.0,31991.3,34927.1,-0.0381,-0.1826,149.6,97.0,0.519
1.02,31900.0,34788.2,-0.4396,-0.5238,149.6,97.0,0.519
1.04,31817.9,34750.2,-0.8003,-0.6173,149.6,97.0,0.519
1.06,31809.1,34621.3,-0.8394,-0.934,149.6,97.0,0.519
1.08,31873.8,34746.8,-0.5547,-0.6257,149.6,97.0,0.519
1.1,31724.7,34595.9,-1.2103,-0.9963,149.6,97.0,0.519
1.12,31762.7,34435.6,-1.0433,-1.3903,149.6,97.0,0.519
1.14,31758.5,34340.4,-1.0616,-1.624,149.6,97.0,0.519
1.16,31762.8,34542.5,-1.0426,-1.1276,149.6,97.0,0.519
1.18,31818.0,34742.4,-0.8,-0.6363,149.6,97.0,0.519
1.2,32143.3,35134.6,0.6299,0.3274,149.6,97.0,0.519
1.22,32279.9,35438.2,1.2305,1.0731,149.6,97.0,0.519
1.24,32389.3,35686.9,1.7117,1.6844,149.6,97.0,0.519
1.26,32450.7,35698.1,1.9816,1.7117,149.6,97.0,0.519
1.28,32321.7,35618.6,1.4143,1.5165,149.6,97.0,0.519
1.3,32195.6,35420.4,0.8598,1.0294,149.6,97.0,0.519
1.32,32121.4,35247.0,0.5336,0.6035,149.6,97.0,0.519
1.34,32119.2,35157.7,0.5241,0.384,149.6,97.0,0.519
1.36,31966.7,35146.6,-0.1461,0.3568,149.6,97.0,0.519
1.38,31911.9,35039.7,-0.3871,0.094,149.6,97.0,0.519
1.4,31955.3,34842.1,-0.1963,-0.3914,149.6,97.0,0.519
1.42,31950.9,34796.7,-0.2158,-0.5031,149.6,97.0,0.519
1.44,31801.0,34711.2,-0.8747,-0.7132,149.6,97.0,0.519
1.46,31837.6,34678.2,-0.714,-0.7941,149.6,97.0,0.519
1.48,31815.4,34691.1,-0.8117,-0.7625,149.6,97.0,0.519
1.5,31830.2,34530.3,-0.7463,-1.1575,149.6,97.0,0.519
1.52,31742.0,34529.9,-1.1342,-1.1586,149.6,97.0,0.519
1.54,31677.0,34410.7,-1.4202,-1.4514,149.6,97.0,0.519
1.56,31711.6,34474.6,-1.2678,-1.2944,149.6,97.0,0.519
1.58,31842.4,34749.8,-0.693,-0.6182,149.6,97.0,0.519
1.6,32115.2,35109.1,0.5064,0.2645,149.6,97.0,0.519
1.62,32197.0,35401.9,0.866,0.9839,149.6,97.0,0.519
1.64,32440.2,35678.4,1.9354,1.6635,149.6,97.0,0.519
1.66,32434.7,35755.0,1.9111,1.8517,149.6,97.0,0.519
1.68,32227.0,35586.3,0.998,1.4371,149.6,97.0,0.519
1.7,32212.6,35444.9,0.9346,1.0897,149.6,97.0,0.519
1.72,32072.4,35313.2,0.3183,0.7661,149.6,97.0,0.519
1.74,32104.5,35057.5,0.4597,0.1378,149.6,97.0,0.519
1.76,32012.8,35001.0,0.0565,-0.0009,149.6,97.0,0.519
1.78,31957.5,34985.2,-0.1867,-0.0398,149.6,97.0,0.519
1.8,31930.7,34893.9,-0.3048,-0.2642,149.6,97.0,0.519
1.82,31901.5,34815.6,-0.4331,-0.4564,149.6,97.0,0.519
1.84,31811.9,34603.2,-0.8268,-0.9784,149.6,97.0,0.519
1.86,31819.7,34769.6,-0.7927,-0.5695,149.6,97.0,0.519
1.88,31853.6,34653.9,-0.6435,-0.8539,149.6,97.0,0.519
1.9,31748.9,34672.7,-1.1037,-0.8077,149.6,97.0,0.519
1.92,31838.4,34516.4,-0.7102,-1.1916,149.6,97.0,0.519
1.94,31742.2,34473.2,-1.1331,-1.2978,149.6,97.0,0.519
1.96,31694.5,34470.5,-1.3428,-1.3045,149.6,97.0,0.519
1.98,31877.3,34809.9,-0.5392,-0.4705,149.6,97.0,0.519
2.0,32038.0,35108.8,0.1673,0.2638,149.6,97.0,0.519
2.02,32265.9,35435.8,1.1691,1.0674,149.6,97.0,0.519
2.04,32379.3,35618.7,1.6678,1.5167,149.6,97.0,0.519
2.06,32376.8,35792.3,1.6565,1.9433,149.6,97.0,0.519
2.08,32333.7,35580.5,1.4672,1.4227,149.6,97.0,0.519
2.1,32176.5,35364.5,0.7762,0.892,149.6,97.0,0.519
2.12,32086.9,35228.3,0.3821,0.5574,149.6,97.0,0.519
2.14,32065.0,35064.1,0.286,0.154,149.6,97.0,0.519
2.16,32038.6,35155.5,0.17,0.3787,149.6,97.0,0.519
2.18,31981.6,34991.6,-0.081,-0.024,149.6,97.0,0.519
2.2,32002.7,34861.1,0.0119,-0.3447,149.6,97.0,0.519
2.22,31857.5,34814.1,-0.6263,-0.4601,149.6,97.0,0.519
2.24,31806.1,34706.3,-0.8523,-0.725,149.6,97.0,0.519
2.26,31851.4,34665.6,-0.6533,-0.8252,149.6,97.0,0.519
2.28,31798.0,34633.3,-0.8881,-0.9044,149.6,97.0,0.519
2.3,31829.8,34641.0,-0.7481,-0.8856,149.6,97.0,0.519
2.32,31758.8,34577.0,-1.0602,-1.0429,149.6,97.0,0.519
2.34,31725.1,34442.9,-1.2085,-1.3724,149.6,97.0,0.519
2.36,31712.4,34440.3,-1.2645,-1.3786,149.6,97.0,0.519
2.38,31785.0,34686.8,-0.9452,-0.7729,149.6,97.0,0.519
2.4,31937.1,35025.1,-0.2764,0.0581,149.6,97.0,0.519
2.42,32245.4,35381.5,1.0788,0.9339,149.6,97.0,0.519
2.44,32377.8,35789.5,1.6609,1.9364,149.6,97.0,0.519
2.46,32411.1,35886.8,1.8072,2.1754,149.6,97.0,0.519
2.48,32353.3,35623.7,1.5534,1.5289,149.6,97.0,0.519
2.5,32196.7,35421.6,0.8649,1.0324,149.6,97.0,0.519
2.52,32146.7,35190.9,0.6451,0.4656,149.6,97.0,0.519
2.54,31994.1,35112.2,-0.0257,0.2721,149.6,97.0,0.519
2.56,32033.9,35022.4,0.1489,0.0517,149.6,97.0,0.519
2.58,31972.9,34999.5,-0.1192,-0.0048,149.6,97.0,0.519
2.6,32009.1,34900.1,0.0402,-0.249,149.6,97.0,0.519
2.62,31899.3,34854.6,-0.4426,-0.3608,149.6,97.0,0.519
2.64,31894.1,34609.2,-0.4654,-0.9637,149.6,97.0,0.519
2.66,31770.6,34701.8,-1.0085,-0.7361,149.6,97.0,0.519
2.68,31860.8,34682.4,-0.612,-0.7839,149.6,97.0,0.519
2.7,31869.6,34728.3,-0.573,-0.6712,149.6,97.0,0.519
2.72,31772.1,34545.5,-1.0018,-1.1201,149.6,97.0,0.519
2.74,31681.2,34462.6,-1.4013,-1.3238,149.6,97.0,0.519
2.76,31660.9,34529.1,-1.4908,-1.1605,149.6,97.0,0.519
2.78,31815.3,34700.8,-0.8118,-0.7387,149.6,97.0,0.519
2.8,32066.0,35021.9,0.29,0.0504,149.6,97.0,0.519
2.82,32218.4,35360.4,0.9604,0.882,149.6,97.0,0.519
2.84,32304.1,35693.8,1.3372,1.7013,149.6,97.0,0.519
2.86,32335.9,35839.6,1.4767,2.0594,149.6,97.0,0.519
2.88,32280.7,35663.0,1.2342,1.6256,149.6,97.0,0.519
2.9,32292.6,35414.0,1.2866,1.0137,149.6,97.0,0.519
2.92,32070.7,35222.7,0.3109,0.5438,149.6,97.0,0.519
2.94,32108.3,35149.8,0.4761,0.3645,149.6,97.0,0.519
2.96,32068.7,35179.3,0.3022,0.4371,149.6,97.0,0.519
2.98,32013.1,35070.7,0.0576,0.1704,149.6,97.0,0.519
3.0,32017.2,34902.8,0.0757,-0.2423,149.6,97.0,0.519
3.02,31806.9,34784.5,-0.8488,-0.533,149.6,97.0,0.519
3.04,31845.0,34722.5,-0.6815,-0.6852,149.6,97.0,0.519
3.06,31873.9,34675.7,-0.5544,-0.8002,149.6,97.0,0.519
3.08,31854.4,34596.1,-0.6402,-0.9959,149.6,97.0,0.519
3.1,31882.6,34617.7,-0.5161,-0.9428,149.6,97.0,0.519
3.12,31742.1,34533.4,-1.1338,-1.15,149.6,97.0,0.519
3.14,31737.7,34492.4,-1.1531,-1.2506,149.6,97.0,0.519
3.16,31736.4,34433.1,-1.1587,-1.3964,149.6,97.0,0.519
3.18,31809.7,34674.0,-0.8367,-0.8046,149.6,97.0,0.519
3.2,32046.0,35010.8,0.2024,0.0231,149.6,97.0,0.519
3.22,32137.7,35369.7,0.6054,0.9048,149.6,97.0,0.519
3.24,32209.0,35725.1,0.919,1.7782,149.6,97.0,0.519
3.26,32268.8,35857.5,1.1818,2.1033,149.6,97.0,0.519
3.28,32359.5,35630.3,1.5805,1.5453,149.6,97.0,0.519
3.3,32331.0,35447.1,1.4551,1.0951,149.6,97.0,0.519
3.32,32145.4,35290.4,0.6392,0.71,149.6,97.0,0.519
3.34,32071.1,35086.9,0.3128,0.21,149.6,97.0,0.519
3.36,32023.2,35062.6,0.102,0.1505,149.6,97.0,0.519
3.38,32071.7,35002.8,0.3152,0.0034,149.6,97.0,0.519
3.4,32005.4,34931.8,0.0237,-0.171,149.6,97.0,0.519
3.42,31957.8,34847.5,-0.1853,-0.3781,149.6,97.0,0.519
3.44,31836.4,34751.9,-0.7191,-0.6132,149.6,97.0,0.519
3.46,31773.6,34722.7,-0.9954,-0.6848,149.6,97.0,0.519
3.48,31857.1,34680.0,-0.6282,-0.7896,149.6,97.0,0.519
3.5,31835.4,34574.5,-0.7237,-1.049,149.6,97.0,0.519
3.52,31830.2,34490.9,-0.7462,-1.2545,149.6,97.0,0.519
3.54,31669.7,34491.9,-1.452,-1.2518,149.6,97.0,0.519
3.56,31749.7,34504.8,-1.1004,-1.2202,149.6,97.0,0.519
3.58,31755.5,34651.3,-1.0749,-0.8601,149.6,97.0,0.519
3.6,31928.6,34908.6,-0.314,-0.2281,149.6,97.0,0.519
3.62,32124.6,35339.8,0.5476,0.8314,149.6,97.0,0.519
3.64,32327.6,35672.0,1.4405,1.6478,149.6,97.0,0.519
3.66,32326.5,35780.9,1.4355,1.9153,149.6,97.0,0.519
3.68,32365.4,35635.2,1.6063,1.5573,149.6,97.0,0.519
3.7,32208.2,35468.8,0.9155,1.1484,149.6,97.0,0.519
3.72,32199.4,35358.7,0.8769,0.8779,149.6,97.0,0.519
3.74,32121.6,35105.1,0.5348,0.2547,149.6,97.0,0.519
3.76,32041.7,35121.5,0.1835,0.2951,149.6,97.0,0.519
3.78,32054.4,35021.7,0.2393,0.05,149.6,97.0,0.519
3.8,31984.3,35064.4,-0.0688,0.1548,149.6,97.0,0.519
3.82,31895.7,34913.5,-0.4586,-0.216,149.6,97.0,0.519
3.84,31832.3,34746.8,-0.737,-0.6256,149.6,97.0,0.519
3.86,31939.8,34564.5,-0.2644,-1.0735,149.6,97.0,0.519
3.88,31875.2,34673.5,-0.5486,-0.8056,149.6,97.0,0.519
3.9,31788.4,34669.5,-0.93,-0.8155,149.6,97.0,0.519
3.92,31780.1,34586.8,-0.9669,-1.0188,149.6,97.0,0.519
3.94,31765.6,34463.9,-1.0303,-1.3207,149.6,97.0,0.519
3.96,31811.4,34447.8,-0.8292,-1.3603,149.6,97.0,0.519
3.98,31834.1,34653.4,-0.7293,-0.8551,149.6,97.0,0.519
4.0,31982.3,34940.3,-0.0777,-0.1501,149.6,97.0,0.519
4.02,32145.5,35350.2,0.6398,0.8571,149.6,97.0,0.519
4.04,32304.9,35665.7,1.3406,1.6322,149.6,97.0,0.519
4.06,32373.4,35847.0,1.6417,2.0777,149.6,97.0,0.519
4.08,32256.8,35665.9,1.129,1.6328,149.6,97.0,0.519
4.1,32208.8,35469.1,0.918,1.149,149.6,97.0,0.519
4.12,32152.5,35311.8,0.6705,0.7626,149.6,97.0,0.519
4.14,32187.4,35187.2,0.8238,0.4565,149.6,97.0,0.519
4.16,32090.9,35144.4,0.3998,0.3514,149.6,97.0,0.519
4.18,31978.3,34934.2,-0.0955,-0.1651,149.6,97.0,0.519
4.2,31872.6,34878.9,-0.5601,-0.3009,149.6,97.0,0.519
4.22,31921.0,34747.3,-0.3472,-0.6245,149.6,97.0,0.519
4.24,31830.4,34709.2,-0.7454,-0.718,149.6,97.0,0.519
4.26,31828.0,34645.7,-0.7562,-0.8739,149.6,97.0,0.519
4.28,31851.3,34690.0,-0.6536,-0.7652,149.6,97.0,0.519
4.3,31816.3,34653.2,-0.8075,-0.8556,149.6,97.0,0.519
4.32,31810.8,34563.2,-0.8316,-1.0767,149.6,97.0,0.519
4.34,31829.3,34429.9,-0.7505,-1.4041,149.6,97.0,0.519
4.36,31723.0,34438.0,-1.2177,-1.3844,149.6,97.0,0.519
4.38,31755.0,34643.6,-1.077,-0.8791,149.6,97.0,0.519
4.4,31940.4,34891.1,-0.2619,-0.2711,149.6,97.0,0.519
4.42,32091.7,35293.8,0.4031,0.7184,149.6,97.0,0.519
4.44,32306.7,35709.4,1.3482,1.7394,149.6,97.0,0.519
4.46,32399.8,35774.3,1.7579,1.8991,149.6,97.0,0.519
4.48,32345.2,35661.5,1.5179,1.6218,149.6,97.0,0.519
4.5,32214.5,35485.4,0.943,1.1891,149.6,97.0,0.519
4.52,32095.7,35407.2,0.4207,0.9969,149.6,97.0,0.519
4.54,32102.7,35280.8,0.4515,0.6864,149.6,97.0,0.519
4.56,32005.2,35164.7,0.0228,0.4013,149.6,97.0,0.519
4.58,31977.6,35112.3,-0.0985,0.2725,149.6,97.0,0.519
4.6,31973.0,35033.6,-0.1185,0.0792,149.6,97.0,0.519
4.62,31885.7,34936.5,-0.5022,-0.1595,149.6,97.0,0.519
4.64,31919.0,34735.6,-0.3558,-0.653,149.6,97.0,0.519
4.66,31749.2,34753.0,-1.1027,-0.6104,149.6,97.0,0.519
4.68,31826.8,34676.3,-0.7614,-0.7988,149.6,97.0,0.519
4.7,31888.2,34586.1,-0.4913,-1.0205,149.6,97.0,0.519
4.72,31801.7,34474.3,-0.8717,-1.2951,149.6,97.0,0.519
4.74,31832.5,34462.6,-0.7363,-1.3239,149.6,97.0,0.519
4.76,31794.4,34461.5,-0.9036,-1.3266,149.6,97.0,0.519
4.78,31695.2,34558.5,-1.34,-1.0882,149.6,97.0,0.519
4.8,31879.2,34911.9,-0.5311,-0.2198,149.6,97.0,0.519
4.82,32120.1,35356.4,0.5281,0.8722,149.6,97.0,0.519
4.84,32344.7,35706.1,1.5154,1.7315,149.6,97.0,0.519
4.86,32312.1,35743.4,1.372,1.8231,149.6,97.0,0.519
4.88,32358.7,35701.7,1.577,1.7207,149.6,97.0,0.519
4.9,32181.0,35415.2,0.7959,1.0167,149.6,97.0,0.519
4.92,32197.1,35366.2,0.8667,0.8963,149.6,97.0,0.519
4.94,32099.1,35113.2,0.4358,0.2748,149.6,97.0,0.519
4.96,32098.3,35155.3,0.4323,0.3782,149.6,97.0,0.519
4.98,31940.8,35002.2,-0.2601,0.0019,149.6,97.0,0.519
5.0,32009.1,34966.1,0.0402,-0.0868,149.6,97.0,0.519
5.02,31867.3,34911.0,-0.5833,-0.2221,149.6,97.0,0.519
5.04,31940.8,34694.0,-0.2601,-0.7554,149.6,97.0,0.519
5.06,31845.2,34657.1,-0.6807,-0.8461,149.6,97.0,0.519
5.08,31904.8,34821.4,-0.4183,-0.4423,149.6,97.0,0.519
5.1,31846.1,34647.0,-0.6765,-0.8709,149.6,97.0,0.519
5.12,31795.9,34542.7,-0.8972,-1.1272,149.6,97.0,0.519
5.14,31814.3,34553.2,-0.8164,-1.1013,149.6,97.0,0.519
5.16,31774.0,34418.1,-0.9937,-1.4333,149.6,97.0,0.519
5.18,31776.8,34598.8,-0.981,-0.9893,149.6,97.0,0.519
5.2,31898.6,34892.7,-0.4457,-0.2671,149.6,97.0,0.519
5.22,32150.5,35288.2,0.6616,0.7047,149.6,97.0,0.519
5.24,32346.6,35626.7,1.5237,1.5362,149.6,97.0,0.519
5.26,32358.5,35796.3,1.5762,1.9532,149.6,97.0,0.519
5.28,32371.5,35636.4,1.6331,1.5601,149.6,97.0,0.519
5.3,32246.7,35520.5,1.0847,1.2755,149.6,97.0,0.519
5.32,32123.6,35382.3,0.5433,0.9358,149.6,97.0,0.519
5.34,32093.6,35180.9,0.4115,0.4411,149.6,97.0,0.519
5.36,32098.4,35067.1,0.4325,0.1614,149.6,97.0,0.519
5.38,32032.8,35049.7,0.1441,0.1186,149.6,97.0,0.519
5.4,31940.8,34990.5,-0.2601,-0.0268,149.6,97.0,0.519
5.42,31896.3,34866.0,-0.4556,-0.3327,149.6,97.0,0.519
5.44,31871.7,34699.8,-0.5641,-0.7411,149.6,97.0,0.519
5.46,31922.4,34779.0,-0.341,-0.5466,149.6,97.0,0.519
5.48,31883.6,34667.8,-0.5116,-0.8198,149.6,97.0,0.519
5.5,31831.9,34673.9,-0.7388,-0.8046,149.6,97.0,0.519
5.52,31792.7,34597.0,-0.9114,-0.9937,149.6,97.0,0.519
5.54,31758.3,34412.6,-1.0624,-1.4467,149.6,97.0,0.519
5.56,31745.9,34402.1,-1.1172,-1.4725,149.6,97.0,0.519
5.58,31788.4,34502.1,-0.93,-1.2268,149.6,97.0,0.519
5.6,31980.6,34916.2,-0.085,-0.2093,149.6,97.0,0.519
5.62,31981.5,35232.0,-0.0812,0.5667,149.6,97.0,0.519
5.64,32254.4,35516.6,1.1183,1.2659,149.6,97.0,0.519
5.66,32328.6,35722.0,1.4449,1.7706,149.6,97.0,0.519
5.68,32357.6,35704.8,1.5724,1.7283,149.6,97.0,0.519
5.7,32323.5,35487.1,1.4221,1.1933,149.6,97.0,0.519
5.72,32180.4,35353.4,0.793,0.8648,149.6,97.0,0.519
5.74,32182.8,35169.1,0.8039,0.4119,149.6,97.0,0.519
5.76,31987.1,35040.1,-0.0568,0.0951,149.6,97.0,0.519
5.78,31949.9,35053.9,-0.2201,0.1288,149.6,97.0,0.519
5.8,31972.8,34992.6,-0.1195,-0.0217,149.6,97.0,0.519
5.82,31893.6,34870.1,-0.4678,-0.3227,149.6,97.0,0.519
5.84,31904.6,34805.2,-0.4192,-0.482,149.6,97.0,0.519
5.86,31892.0,34704.6,-0.4746,-0.7293,149.6,97.0,0.519
5.88,31853.0,34609.7,-0.6464,-0.9623,149.6,97.0,0.519
5.9,31765.4,34675.8,-1.0314,-0.7999,149.6,97.0,0.519
5.92,31787.1,34655.0,-0.936,-0.8512,149.6,97.0,0.519
5.94,31721.6,34571.5,-1.2241,-1.0563,149.6,97.0,0.519
5.96,31712.7,34501.1,-1.263,-1.2293,149.6,97.0,0.519
5.98,31772.0,34527.9,-1.0024,-1.1635,149.6,97.0,0.519
6.0,31912.7,34958.9,-0.3837,-0.1044,149.6,97.0,0.519
6.02,32104.0,35193.4,0.4572,0.4718,149.6,97.0,0.519
6.04,32290.3,35587.4,1.2762,1.4398,149.6,97.0,0.519
6.06,32426.9,35764.6,1.8769,1.8751,149.6,97.0,0.519
6.08,32360.5,35685.9,1.5851,1.6819,149.6,97.0,0.519
6.1,32211.4,35639.3,0.9294,1.5674,149.6,97.0,0.519
6.12,32026.8,35257.1,0.1179,0.6283,149.6,97.0,0.519
6.14,32079.7,35210.5,0.3503,0.5138,149.6,97.0,0.519
6.16,32124.2,35158.9,0.5459,0.387,149.6,97.0,0.519
6.18,32074.6,34928.0,0.3282,-0.1803,149.6,97.0,0.519
6.2,31974.0,35002.0,-0.1141,0.0015,149.6,97.0,0.519
6.22,31986.8,34961.0,-0.058,-0.0994,149.6,97.0,0.519
6.24,31909.8,34748.0,-0.3964,-0.6227,149.6,97.0,0.519
6.26,31890.3,34676.3,-0.4821,-0.7989,149.6,97.0,0.519
6.28,31755.1,34599.4,-1.0764,-0.9879,149.6,97.0,0.519
6.3,31838.5,34727.7,-0.71,-0.6725,149.6,97.0,0.519
6.32,31805.3,34519.7,-0.8558,-1.1835,149.6,97.0,0.519
6.34,31701.4,34497.1,-1.3125,-1.2391,149.6,97.0,0.519
6.36,31851.9,34424.7,-0.6512,-1.417,149.6,97.0,0.519
6.38,31855.9,34542.0,-0.6334,-1.1287,149.6,97.0,0.519
6.4,31936.1,34877.7,-0.2808,-0.3041,149.6,97.0,0.519
6.42,32033.5,35262.8,0.1472,0.6422,149.6,97.0,0.519
6.44,32301.1,35436.2,1.3237,1.0683,149.6,97.0,0.519
6.46,32385.6,35700.6,1.6953,1.7179,149.6,97.0,0.519
6.48,32358.9,35654.4,1.5778,1.6044,149.6,97.0,0.519
6.5,32357.8,35543.7,1.573,1.3324,149.6,97.0,0.519
6.52,32182.1,35312.1,0.8004,0.7634,149.6,97.0,0.519
6.54,32045.7,35157.3,0.2011,0.3829,149.6,97.0,0.519
6.56,32226.2,35110.8,0.9947,0.2689,149.6,97.0,0.519
6.58,32087.8,35099.0,0.3862,0.2398,149.6,97.0,0.519
6.6,32008.7,34988.6,0.0385,-0.0314,149.6,97.0,0.519
6.62,31858.1,34781.7,-0.6239,-0.5399,149.6,97.0,0.519
6.64,31873.0,34779.8,-0.5581,-0.5445,149.6,97.0,0.519
6.66,31908.6,34723.3,-0.4015,-0.6834,149.6,97.0,0.519
6.68,31817.8,34706.8,-0.801,-0.7239,149.6,97.0,0.519
6.7,31789.7,34637.0,-0.9246,-0.8953,149.6,97.0,0.519
6.72,31783.6,34557.2,-0.9512,-1.0915,149.6,97.0,0.519
6.74,31826.0,34448.8,-0.7648,-1.3578,149.6,97.0,0.519
6.76,31747.1,34406.2,-1.1118,-1.4624,149.6,97.0,0.519
6.78,31795.4,34495.4,-0.8993,-1.2433,149.6,97.0,0.519
6.8,31936.8,34847.5,-0.2778,-0.3781,149.6,97.0,0.519
6.82,32139.4,35217.0,0.6128,0.5297,149.6,97.0,0.519
6.84,32301.7,35476.2,1.3264,1.1665,149.6,97.0,0.519
6.86,32275.2,35758.4,1.2098,1.8601,149.6,97.0,0.519
6.88,32354.2,35700.9,1.5572,1.7186,149.6,97.0,0.519
6.9,32291.5,35512.2,1.2815,1.255,149.6,97.0,0.519
6.92,32134.9,35337.2,0.5932,0.825,149.6,97.0,0.519
6.94,32253.1,35242.1,1.1128,0.5913,149.6,97.0,0.519
6.96,32003.3,34983.2,0.0144,-0.0448,149.6,97.0,0.519
6.98,31973.1,35092.5,-0.118,0.2237,149.6,97.0,0.519
7.0,31990.2,34912.7,-0.0432,-0.2179,149.6,97.0,0.519
7.02,32065.9,34991.3,0.2899,-0.0248,149.6,97.0,0.519
7.04,31892.8,34757.6,-0.4711,-0.599,149.6,97.0,0.519
7.06,31891.4,34684.4,-0.4775,-0.7788,149.6,97.0,0.519
7.08,31856.3,34634.5,-0.6316,-0.9014,149.6,97.0,0.519
7.1,31814.7,34691.8,-0.8145,-0.7608,149.6,97.0,0.519
7.12,31746.1,34484.3,-1.1161,-1.2705,149.6,97.0,0.519
7.14,31820.0,34544.0,-0.7914,-1.1238,149.6,97.0,0.519
7.16,31773.1,34429.7,-0.9975,-1.4047,149.6,97.0,0.519
7.18,31784.0,34573.7,-0.9495,-1.051,149.6,97.0,0.519
7.2,31954.9,34884.8,-0.1981,-0.2865,149.6,97.0,0.519
7.22,32006.0,35150.1,0.0264,0.3653,149.6,97.0,0.519
7.24,32265.9,35471.7,1.169,1.1554,149.6,97.0,0.519
7.26,32307.4,35726.8,1.3516,1.7823,149.6,97.0,0.519
7.28,32389.0,35753.0,1.7101,1.8466,149.6,97.0,0.519
7.3,32258.3,35668.4,1.1357,1.6389,149.6,97.0,0.519
7.32,32152.7,35239.0,0.6713,0.5838,149.6,97.0,0.519
7.34,32021.0,35157.9,0.0925,0.3844,149.6,97.0,0.519
7.36,31986.5,35184.5,-0.0592,0.4499,149.6,97.0,0.519
7.38,32092.2,35070.6,0.4053,0.1699,149.6,97.0,0.519
7.4,31920.9,34990.6,-0.3476,-0.0265,149.6,97.0,0.519
7.42,31982.2,34859.5,-0.078,-0.3487,149.6,97.0,0.519
7.44,31838.0,34670.2,-0.7123,-0.8138,149.6,97.0,0.519
7.46,31776.5,34777.6,-0.9824,-0.5499,149.6,97.0,0.519
7.48,31826.0,34598.5,-0.7651,-0.99,149.6,97.0,0.519
7.5,31945.4,34632.1,-0.24,-0.9075,149.6,97.0,0.519
7.52,31771.6,34578.8,-1.0043,-1.0383,149.6,97.0,0.519
7.54,31811.4,34622.8,-0.8289,-0.9302,149.6,97.0,0.519
7.56,31638.2,34388.9,-1.5907,-1.5049,149.6,97.0,0.519
7.58,31851.9,34565.2,-0.6508,-1.0719,149.6,97.0,0.519
7.6,31919.6,34797.8,-0.3536,-0.5003,149.6,97.0,0.519
7.62,32070.1,35183.6,0.3084,0.4476,149.6,97.0,0.519
7.64,32277.4,35499.6,1.2196,1.224,149.6,97.0,0.519
7.66,32367.9,35779.0,1.6175,1.9107,149.6,97.0,0.519
7.68,32447.4,35762.7,1.9672,1.8705,149.6,97.0,0.519
7.7,32229.8,35618.2,1.0103,1.5155,149.6,97.0,0.519
7.72,32118.2,35440.7,0.5199,1.0794,149.6,97.0,0.519
7.74,32065.7,35151.8,0.2888,0.3694,149.6,97.0,0.519
7.76,31969.1,35132.7,-0.136,0.3225,149.6,97.0,0.519
7.78,32009.4,35049.4,0.0415,0.1178,149.6,97.0,0.519
7.8,32011.7,34951.7,0.0517,-0.1221,149.6,97.0,0.519
7.82,31882.6,34907.3,-0.5161,-0.2313,149.6,97.0,0.519
7.84,31830.1,34735.2,-0.7468,-0.6541,149.6,97.0,0.519
7.86,32004.2,34718.4,0.0186,-0.6955,149.6,97.0,0.519
7.88,31817.7,34715.1,-0.8014,-0.7036,149.6,97.0,0.519
7.9,31815.2,34713.1,-0.8122,-0.7083,149.6,97.0,0.519
7.92,31869.5,34603.8,-0.5738,-0.977,149.6,97.0,0.519
7.94,31828.6,34555.6,-0.7535,-1.0954,149.6,97.0,0.519
7.96,31655.7,34479.2,-1.5134,-1.2832,149.6,97.0,0.519
7.98,31824.5,34508.1,-0.7715,-1.212,149.6,97.0,0.519
8.0,31853.8,34725.5,-0.6428,-0.6778,149.6,97.0,0.519
8.02,32095.6,35185.1,0.4202,0.4514,149.6,97.0,0.519
8.04,32296.4,35521.3,1.3032,1.2775,149.6,97.0,0.519
8.06,32366.1,35718.2,1.6096,1.7611,149.6,97.0,0.519
8.08,32301.0,35805.4,1.3232,1.9753,149.6,97.0,0.519
8.1,32196.0,35585.8,0.8616,1.4358,149.6,97.0,0.519
8.12,32194.0,35392.9,0.853,0.962,149.6,97.0,0.519
8.14,32073.4,35140.0,0.3226,0.3404,149.6,97.0,0.519
8.16,31911.5,35148.9,-0.3889,0.3624,149.6,97.0,0.519
8.18,32048.5,35110.5,0.2131,0.268,149.6,97.0,0.519
8.2,32060.7,35045.1,0.2669,0.1073,149.6,97.0,0.519
8.22,31920.6,34845.6,-0.3488,-0.3829,149.6,97.0,0.519
8.24,31916.7,34752.3,-0.3662,-0.612,149.6,97.0,0.519
8.26,31930.2,34670.6,-0.307,-0.8128,149.6,97.0,0.519
8.28,31855.8,34658.7,-0.6337,-0.842,149.6,97.0,0.519
8.3,31872.5,34709.3,-0.5603,-0.7176,149.6,97.0,0.519
8.32,31726.4,34680.5,-1.2027,-0.7885,149.6,97.0,0.519
8.34,31792.4,34551.4,-0.9127,-1.1056,149.6,97.0,0.519
8.36,31845.8,34468.2,-0.678,-1.3102,149.6,97.0,0.519
8.38,31719.1,34459.2,-1.2347,-1.3322,149.6,97.0,0.519
8.4,31884.0,34797.1,-0.51,-0.5019,149.6,97.0,0.519
8.42,32131.5,35070.4,0.5782,0.1696,149.6,97.0,0.519
8.44,32243.4,35449.8,1.0703,1.1017,149.6,97.0,0.519
8.46,32251.4,35685.0,1.1052,1.6797,149.6,97.0,0.519
8.48,32343.6,35674.9,1.5108,1.6549,149.6,97.0,0.519
8.5,32311.8,35591.2,1.3706,1.449,149.6,97.0,0.519
8.52,32127.9,35310.2,0.5625,0.7588,149.6,97.0,0.519
8.54,32040.8,35163.5,0.1795,0.3982,149.6,97.0,0.519
8.56,32056.9,35066.9,0.2503,0.161,149.6,97.0,0.519
8.58,31967.1,35058.8,-0.1444,0.1409,149.6,97.0,0.519
8.6,32043.7,34993.8,0.1923,-0.0186,149.6,97.0,0.519
8.62,31968.8,34926.3,-0.1369,-0.1846,149.6,97.0,0.519
8.64,31821.5,34729.6,-0.7848,-0.6679,149.6,97.0,0.519
8.66,31799.8,34726.9,-0.8801,-0.6745,149.6,97.0,0.519
8.68,31863.0,34732.3,-0.6023,-0.6612,149.6,97.0,0.519
8.7,31836.9,34629.5,-0.7168,-0.9137,149.6,97.0,0.519
8.72,31860.3,34555.4,-0.6143,-1.0958,149.6,97.0,0.519
8.74,31773.1,34511.2,-0.9976,-1.2044,149.6,97.0,0.519
8.76,31631.6,34511.0,-1.6195,-1.2049,149.6,97.0,0.519
8.78,31771.3,34629.8,-1.0053,-0.9132,149.6,97.0,0.519
8.8,31842.3,34687.3,-0.6933,-0.7717,149.6,97.0,0.519
8.82,32039.6,35054.0,0.1741,0.1293,149.6,97.0,0.519
8.84,32254.6,35515.6,1.1193,1.2633,149.6,97.0,0.519
8.86,32407.6,35736.6,1.792,1.8064,149.6,97.0,0.519
8.88,32319.3,35682.8,1.4037,1.6741,149.6,97.0,0.519
8.9,32405.6,35610.0,1.7831,1.4954,149.6,97.0,0.519
8.92,32233.5,35376.3,1.0265,0.9211,149.6,97.0,0.519
8.94,32125.9,35191.7,0.5535,0.4674,149.6,97.0,0.519
8.96,32085.0,35156.1,0.3736,0.3801,149.6,97.0,0.519
8.98,32055.5,35171.7,0.244,0.4183,149.6,97.0,0.519
9.0,31938.1,34929.5,-0.2722,-0.1766,149.6,97.0,0.519
9.02,31970.9,34917.2,-0.1277,-0.2068,149.6,97.0,0.519
9.04,31913.2,34801.5,-0.3815,-0.4913,149.6,97.0,0.519
9.06,31856.6,34604.5,-0.6305,-0.9752,149.6,97.0,0.519
9.08,31821.5,34649.2,-0.7846,-0.8654,149.6,97.0,0.519
9.1,31853.1,34677.4,-0.6456,-0.7962,149.6,97.0,0.519
9.12,31854.2,34564.0,-0.6411,-1.0748,149.6,97.0,0.519
9.14,31732.8,34565.2,-1.1745,-1.0717,149.6,97.0,0.519
9.16,31758.5,34493.6,-1.0615,-1.2478,149.6,97.0,0.519
9.18,31805.4,34492.9,-0.8555,-1.2495,149.6,97.0,0.519
9.2,31853.4,34735.9,-0.6445,-0.6523,149.6,97.0,0.519
9.22,32011.5,35103.0,0.0507,0.2496,149.6,97.0,0.519
9.24,32249.5,35384.5,1.0971,0.9414,149.6,97.0,0.519
9.26,32368.6,35700.1,1.6204,1.7167,149.6,97.0,0.519
9.28,32333.8,35683.4,1.4676,1.6756,149.6,97.0,0.519
9.3,32343.7,35663.9,1.5113,1.6278,149.6,97.0,0.519
9.32,32180.3,35446.3,0.7929,1.0931,149.6,97.0,0.519
9.34,32089.7,35228.8,0.3944,0.5587,149.6,97.0,0.519
9.36,32025.5,35143.3,0.1123,0.3487,149.6,97.0,0.519
9.38,32060.8,35059.9,0.2675,0.1438,149.6,97.0,0.519
9.4,32047.6,35059.5,0.2093,0.1428,149.6,97.0,0.519
9.42,31944.1,34880.2,-0.2455,-0.2977,149.6,97.0,0.519
9.44,31944.2,34778.2,-0.2452,-0.5484,149.6,97.0,0.519
9.46,31940.3,34747.8,-0.2623,-0.6232,149.6,97.0,0.519
9.48,31833.0,34666.7,-0.734,-0.8225,149.6,97.0,0.519
9.5,31778.7,34725.1,-0.9726,-0.6789,149.6,97.0,0.519
9.52,31792.9,34670.6,-0.9104,-0.8127,149.6,97.0,0.519
9.54,31779.7,34501.8,-0.9684,-1.2274,149.6,97.0,0.519
9.56,31751.0,34416.3,-1.0947,-1.4377,149.6,97.0,0.519
9.58,31802.1,34457.0,-0.8698,-1.3377,149.6,97.0,0.519
9.6,31924.0,34742.5,-0.3342,-0.6362,149.6,97.0,0.519
9.62,31962.1,34975.3,-0.1666,-0.0642,149.6,97.0,0.519
9.64,32168.5,35528.2,0.741,1.2944,149.6,97.0,0.519
9.66,32447.4,35624.3,1.967,1.5304,149.6,97.0,0.519
9.68,32356.7,35603.2,1.5682,1.4786,149.6,97.0,0.519
9.7,32358.5,35631.3,1.576,1.5475,149.6,97.0,0.519
9.72,32276.8,35460.1,1.2169,1.1271,149.6,97.0,0.519
9.74,32099.1,35211.0,0.4359,0.515,149.6,97.0,0.519
9.76,32062.9,35171.8,0.2766,0.4187,149.6,97.0,0.519
9.78,32004.9,35039.9,0.0214,0.0946,149.6,97.0,0.519
9.8,31972.3,35030.8,-0.1217,0.0723,149.6,97.0,0.519
9.82,32009.5,34926.1,0.0418,-0.1851,149.6,97.0,0.519
9.84,31879.7,34797.8,-0.5289,-0.5004,149.6,97.0,0.519
9.86,31819.9,34710.0,-0.7917,-0.716,149.6,97.0,0.519
9.88,31882.9,34668.5,-0.5147,-0.8179,149.6,97.0,0.519
9.9,31802.1,34692.9,-0.8698,-0.7581,149.6,97.0,0.519
9.92,31767.1,34717.8,-1.0238,-0.6968,149.6,97.0,0.519
9.94,31735.3,34570.8,-1.1638,-1.058,149.6,97.0,0.519
9.96,31671.0,34490.9,-1.4464,-1.2544,149.6,97.0,0.519
9.98,31748.7,34548.2,-1.1049,-1.1136,149.6,97.0,0.519
10.0,31867.1,34667.5,-0.5841,-0.8204,149.6,97.0,0.519
10.02,32024.3,34932.6,0.107,-0.1692,149.6,97.0,0.519
10.04,32252.2,35437.6,1.109,1.0717,149.6,97.0,0.519
10.06,32299.2,35657.3,1.3154,1.6115,149.6,97.0,0.519
10.08,32393.4,35719.5,1.7297,1.7643,149.6,97.0,0.519
10.1,32318.8,35638.4,1.4015,1.5651,149.6,97.0,0.519
10.12,32197.9,35473.4,0.8701,1.1597,149.6,97.0,0.519
10.14,32049.3,35254.7,0.2168,0.6224,149.6,97.0,0.519
10.16,32061.0,35197.4,0.2682,0.4815,149.6,97.0,0.519
10.18,32112.6,35178.8,0.495,0.4359,149.6,97.0,0.519
10.2,32033.6,34957.0,0.1477,-0.1092,149.6,97.0,0.519
10.22,31896.7,34915.7,-0.454,-0.2106,149.6,97.0,0.519
10.24,31935.3,34806.7,-0.2845,-0.4784,149.6,97.0,0.519
10.26,31930.9,34701.3,-0.3038,-0.7373,149.6,97.0,0.519
10.28,31905.0,34674.5,-0.4174,-0.8032,149.6,97.0,0.519
10.3,31891.9,34656.1,-0.4752,-0.8483,149.6,97.0,0.519
10.32,31692.8,34637.0,-1.3505,-0.8955,149.6,97.0,0.519
10.34,31821.2,34590.3,-0.786,-1.0102,149.6,97.0,0.519
10.36,31675.5,34528.8,-1.4265,-1.1611,149.6,97.0,0.519
10.38,31781.8,34393.9,-0.9593,-1.4927,149.6,97.0,0.519
10.4,31817.9,34705.1,-0.8006,-0.728,149.6,97.0,0.519
10.42,32098.4,34997.1,0.4325,-0.0106,149.6,97.0,0.519
10.44,32207.4,35344.7,0.9119,0.8434,149.6,97.0,0.519
10.46,32252.0,35660.1,1.1078,1.6184,149.6,97.0,0.519
10.48,32335.6,35788.8,1.4756,1.9345,149.6,97.0,0.519
10.5,32399.9,35642.1,1.7581,1.5741,149.6,97.0,0.519
10.52,32217.9,35368.9,0.9579,0.903,149.6,97.0,0.519
10.54,32139.8,35242.6,0.6145,0.5927,149.6,97.0,0.519
10.56,32060.6,35155.9,0.2664,0.3796,149.6,97.0,0.519
10.58,32018.0,35104.5,0.0793,0.2533,149.6,97.0,0.519
10.6,32091.9,34957.3,0.4043,-0.1083,149.6,97.0,0.519
10.62,31967.2,34882.7,-0.144,-0.2918,149.6,97.0,0.519
10.64,31860.8,34783.6,-0.6118,-0.5352,149.6,97.0,0.519
10.66,31801.0,34770.1,-0.8746,-0.5684,149.6,97.0,0.519
10.68,31881.9,34664.1,-0.5192,-0.8287,149.6,97.0,0.519
10.7,31927.8,34650.8,-0.3172,-0.8615,149.6,97.0,0.519
10.72,31781.2,34611.3,-0.9619,-0.9584,149.6,97.0,0.519
10.74,31823.3,34548.3,-0.7766,-1.1134,149.6,97.0,0.519
10.76,31709.6,34548.7,-1.2765,-1.1124,149.6,97.0,0.519
10.78,31715.3,34455.0,-1.2514,-1.3424,149.6,97.0,0.519
10.8,31872.9,34626.7,-0.5585,-0.9206,149.6,97.0,0.519
10.82,32000.3,34994.3,0.0015,-0.0175,149.6,97.0,0.519
10.84,32178.5,35386.8,0.785,0.947,149.6,97.0,0.519
10.86,32291.7,35700.9,1.2823,1.7187,149.6,97.0,0.519
10.88,32421.0,35846.4,1.8508,2.0762,149.6,97.0,0.519
10.9,32322.3,35676.8,1.4168,1.6595,149.6,97.0,0.519
10.92,32235.6,35424.0,1.036,1.0383,149.6,97.0,0.519
10.94,32148.4,35246.4,0.6523,0.6021,149.6,97.0,0.519
10.96,32068.0,35151.2,0.2991,0.368,149.6,97.0,0.519
10.98,32042.8,35041.8,0.1881,0.0993,149.6,97.0,0.519
11.0,32036.1,34976.0,0.1587,-0.0624,149.6,97.0,0.519
11.02,31945.6,35080.5,-0.239,0.1944,149.6,97.0,0.519
11.04,31861.5,34844.3,-0.609,-0.3861,149.6,97.0,0.519
11.06,31837.9,34650.5,-0.7125,-0.8622,149.6,97.0,0.519
11.08,31849.5,34637.5,-0.6616,-0.8942,149.6,97.0,0.519
11.1,31918.3,34652.0,-0.3591,-0.8586,149.6,97.0,0.519
11.12,31851.3,34596.4,-0.6538,-0.9952,149.6,97.0,0.519
11.14,31730.4,34582.7,-1.1853,-1.0289,149.6,97.0,0.519
11.16,31746.9,34483.2,-1.1128,-1.2732,149.6,97.0,0.519
11.18,31768.9,34543.0,-1.0157,-1.1262,149.6,97.0,0.519
11.2,31816.2,34562.3,-0.8079,-1.0789,149.6,97.0,0.519
11.22,32001.3,34930.7,0.006,-0.1738,149.6,97.0,0.519
11.24,32148.7,35391.2,0.6539,0.9578,149.6,97.0,0.519
11.26,32326.9,35658.3,1.4374,1.614,149.6,97.0,0.519
11.28,32356.4,35668.0,1.5668,1.6378,149.6,97.0,0.519
11.3,32367.6,35680.4,1.616,1.6682,149.6,97.0,0.519
11.32,32189.1,35439.6,0.8313,1.0766,149.6,97.0,0.519
11.34,32076.0,35327.0,0.3341,0.7999,149.6,97.0,0.519
11.36,31969.0,35078.6,-0.1364,0.1896,149.6,97.0,0.519
11.38,32020.2,35042.2,0.089,0.1001,149.6,97.0,0.519
11.4,32039.9,34934.7,0.1754,-0.1639,149.6,97.0,0.519
11.42,31977.7,34969.3,-0.098,-0.0788,149.6,97.0,0.519
11.44,31858.3,34735.8,-0.6229,-0.6525,149.6,97.0,0.519
11.46,31891.9,34679.7,-0.475,-0.7903,149.6,97.0,0.519
11.48,31853.6,34772.3,-0.6434,-0.5629,149.6,97.0,0.519
11.5,31796.8,34621.9,-0.8934,-0.9324,149.6,97.0,0.519
11.52,31846.1,34678.4,-0.6767,-0.7937,149.6,97.0,0.519
11.54,31740.3,34569.6,-1.1417,-1.061,149.6,97.0,0.519
11.56,31790.3,34478.7,-0.9218,-1.2842,149.6,97.0,0.519
11.58,31714.9,34592.5,-1.2532,-1.0048,149.6,97.0,0.519
11.6,31823.8,34635.1,-0.7746,-0.9001,149.6,97.0,0.519
11.62,31858.8,34973.7,-0.6207,-0.0681,149.6,97.0,0.519
11.64,32161.1,35350.9,0.7084,0.8586,149.6,97.0,0.519
11.66,32349.9,35642.8,1.5384,1.5759,149.6,97.0,0.519
11.68,32423.9,35809.2,1.8635,1.9848,149.6,97.0,0.519
11.7,32233.7,35714.3,1.0276,1.7516,149.6,97.0,0.519
11.72,32243.2,35459.3,1.0695,1.1249,149.6,97.0,0.519
11.74,32094.6,35367.4,0.416,0.8993,149.6,97.0,0.519
11.76,32140.8,35210.3,0.6192,0.5134,149.6,97.0,0.519
11.78,32032.6,35136.9,0.1434,0.3328,149.6,97.0,0.519
11.8,32149.2,35056.4,0.6559,0.135,149.6,97.0,0.519
11.82,31945.8,34982.7,-0.2383,-0.046,149.6,97.0,0.519
11.84,31970.4,34820.8,-0.1299,-0.4438,149.6,97.0,0.519
11.86,31898.1,34731.0,-0.4478,-0.6644,149.6,97.0,0.519
11.88,31829.1,34706.5,-0.7514,-0.7246,149.6,97.0,0.519
11.9,31879.0,34703.1,-0.5318,-0.7329,149.6,97.0,0.519
11.92,31803.0,34632.2,-0.866,-0.9071,149.6,97.0,0.519
11.94,31823.3,34585.1,-0.7769,-1.0228,149.6,97.0,0.519
11.96,31789.6,34411.9,-0.9249,-1.4484,149.6,97.0,0.519
11.98,31696.8,34419.7,-1.3329,-1.4293,149.6,97.0,0.519
12.0,31885.0,34672.6,-0.5055,-0.808,149.6,97.0,0.519
12.02,31959.8,34917.9,-0.1767,-0.2051,149.6,97.0,0.519
12.04,32114.2,35326.4,0.502,0.7985,149.6,97.0,0.519
12.06,32276.8,35676.2,1.2169,1.6579,149.6,97.0,0.519
12.08,32304.2,35814.8,1.3373,1.9986,149.6,97.0,0.519
12.1,32287.6,35774.2,1.2646,1.8986,149.6,97.0,0.519
12.12,32278.9,35399.1,1.2261,0.9772,149.6,97.0,0.519
12.14,32162.7,35327.1,0.7154,0.8001,149.6,97.0,0.519
12.16,32068.8,35080.5,0.3026,0.1943,149.6,97.0,0.519
12.18,32067.8,35122.4,0.2982,0.2972,149.6,97.0,0.519
12.2,32107.8,35125.8,0.474,0.3057,149.6,97.0,0.519
12.22,32100.3,34912.9,0.4411,-0.2175,149.6,97.0,0.519
12.24,31969.7,34875.5,-0.1333,-0.3094,149.6,97.0,0.519
12.26,31939.4,34711.6,-0.2663,-0.7121,149.6,97.0,0.519
12.28,31865.1,34709.8,-0.5929,-0.7166,149.6,97.0,0.519
12.3,31824.6,34662.6,-0.771,-0.8325,149.6,97.0,0.519
12.32,31812.1,34634.9,-0.8258,-0.9005,149.6,97.0,0.519
12.34,31771.2,34557.8,-1.0058,-1.0899,149.6,97.0,0.519
12.36,31803.8,34503.6,-0.8624,-1.2231,149.6,97.0,0.519
12.38,31825.4,34464.6,-0.7677,-1.3191,149.6,97.0,0.519
12.4,31913.8,34708.7,-0.3789,-0.7191,149.6,97.0,0.519
12.42,31946.3,34889.0,-0.2361,-0.2761,149.6,97.0,0.519
12.44,32098.9,35291.7,0.435,0.7132,149.6,97.0,0.519
12.46,32247.3,35602.5,1.0873,1.4768,149.6,97.0,0.519
12.48,32315.5,35701.7,1.3869,1.7207,149.6,97.0,0.519
12.5,32347.8,35767.9,1.5291,1.8833,149.6,97.0,0.519
12.52,32219.9,35509.6,0.967,1.2486,149.6,97.0,0.519
12.54,32189.1,35375.3,0.8313,0.9188,149.6,97.0,0.519
12.56,32068.0,35098.6,0.299,0.2388,149.6,97.0,0.519
12.58,31999.0,35001.5,-0.0043,0.0003,149.6,97.0,0.519
12.6,32049.1,35076.4,0.2157,0.1843,149.6,97.0,0.519
12.62,32077.7,34928.4,0.3417,-0.1794,149.6,97.0,0.519
12.64,31968.3,34928.9,-0.1391,-0.1781,149.6,97.0,0.519
12.66,31837.4,34724.5,-0.7146,-0.6804,149.6,97.0,0.519
12.68,31809.0,34702.3,-0.8395,-0.735,149.6,97.0,0.519
12.7,31765.6,34648.3,-1.0303,-0.8677,149.6,97.0,0.519
12.72,31799.6,34608.3,-0.8811,-0.9659,149.6,97.0,0.519
12.74,31878.4,34684.3,-0.5347,-0.7792,149.6,97.0,0.519
12.76,31848.0,34491.7,-0.668,-1.2523,149.6,97.0,0.519
12.78,31807.9,34440.9,-0.8447,-1.3771,149.6,97.0,0.519
12.8,31835.1,34592.5,-0.7249,-1.0047,149.6,97.0,0.519
12.82,31889.9,34919.9,-0.4839,-0.2002,149.6,97.0,0.519
12.84,32104.5,35225.4,0.4593,0.5503,149.6,97.0,0.519
12.86,32357.9,35727.4,1.5733,1.7837,149.6,97.0,0.519
12.88,32341.8,35813.2,1.5026,1.9945,149.6,97.0,0.519
12.9,32421.3,35807.6,1.8521,1.9808,149.6,97.0,0.519
12.92,32224.5,35401.9,0.9873,0.984,149.6,97.0,0.519
12.94,32206.6,35326.4,0.9086,0.7984,149.6,97.0,0.519
12.96,32074.0,35215.1,0.3254,0.5251,149.6,97.0,0.519
12.98,32010.0,35134.4,0.044,0.3267,149.6,97.0,0.519
13.0,32051.2,35065.9,0.2254,0.1584,149.6,97.0,0.519
13.02,32005.6,34942.2,0.0248,-0.1456,149.6,97.0,0.519
13.04,31994.5,34838.7,-0.0243,-0.3997,149.6,97.0,0.519
13.06,31847.0,34742.7,-0.6725,-0.6356,149.6,97.0,0.519
13.08,31896.9,34736.2,-0.453,-0.6517,149.6,97.0,0.519
13.1,31895.1,34655.6,-0.4611,-0.8498,149.6,97.0,0.519
13.12,31797.0,34587.0,-0.8925,-1.0183,149.6,97.0,0.519
13.14,31780.3,34584.8,-0.9656,-1.0236,149.6,97.0,0.519
13.16,31826.7,34480.1,-0.7617,-1.281,149.6,97.0,0.519
13.18,31759.5,34471.3,-1.0572,-1.3024,149.6,97.0,0.519
13.2,31779.7,34571.5,-0.9686,-1.0564,149.6,97.0,0.519
13.22,31951.4,34784.0,-0.2135,-0.5341,149.6,97.0,0.519
13.24,32190.6,35279.7,0.8382,0.6838,149.6,97.0,0.519
13.26,32263.2,35588.6,1.157,1.4426,149.6,97.0,0.519
13.28,32358.2,35735.0,1.5747,1.8025,149.6,97.0,0.519
13.3,32326.6,35734.2,1.4361,1.8004,149.6,97.0,0.519
13.32,32212.7,35630.9,0.9351,1.5467,149.6,97.0,0.519
13.34,32123.3,35418.7,0.5422,1.0252,149.6,97.0,0.519
13.36,32092.4,35201.8,0.4063,0.4923,149.6,97.0,0.519
13.38,32047.4,35064.7,0.2086,0.1556,149.6,97.0,0.519
13.4,32136.3,35071.9,0.5995,0.1733,149.6,97.0,0.519
13.42,31927.5,35004.1,-0.3188,0.0067,149.6,97.0,0.519
13.44,31928.7,34857.8,-0.3136,-0.3529,149.6,97.0,0.519
13.46,31906.0,34753.5,-0.4131,-0.609,149.6,97.0,0.519
13.48,31855.8,34690.1,-0.6339,-0.7649,149.6,97.0,0.519
13.5,31801.3,34716.5,-0.8735,-0.6999,149.6,97.0,0.519
13.52,31810.4,34582.6,-0.8337,-1.029,149.6,97.0,0.519
13.54,31880.9,34596.2,-0.5237,-0.9955,149.6,97.0,0.519
13.56,31683.5,34466.1,-1.3915,-1.3152,149.6,97.0,0.519
13.58,31823.4,34433.1,-0.7763,-1.3963,149.6,97.0,0.519
13.6,31758.5,34601.8,-1.0616,-0.9818,149.6,97.0,0.519
13.62,31887.1,34812.7,-0.4962,-0.4637,149.6,97.0,0.519
13.64,32150.7,35230.7,0.6626,0.5634,149.6,97.0,0.519
13.66,32273.9,35545.6,1.2041,1.3372,149.6,97.0,0.519
13.68,32474.9,35786.1,2.0877,1.928,149.6,97.0,0.519
13.7,32274.0,35733.5,1.2045,1.7988,149.6,97.0,0.519
13.72,32268.1,35520.6,1.1788,1.2757,149.6,97.0,0.519
13.74,32137.9,35355.8,0.6064,0.8707,149.6,97.0,0.519
13.76,32026.1,35163.7,0.115,0.3987,149.6,97.0,0.519
13.78,32105.7,35173.6,0.4649,0.423,149.6,97.0,0.519
13.8,32107.0,35067.2,0.4705,0.1616,149.6,97.0,0.519
13.82,31995.6,34921.4,-0.0191,-0.1966,149.6,97.0,0.519
13.84,31973.9,34914.3,-0.1146,-0.2139,149.6,97.0,0.519
13.86,31988.3,34794.6,-0.0512,-0.5081,149.6,97.0,0.519
13.88,31786.0,34778.8,-0.9408,-0.547,149.6,97.0,0.519
13.9,31877.8,34664.0,-0.5372,-0.829,149.6,97.0,0.519
13.92,31733.7,34619.1,-1.1706,-0.9395,149.6,97.0,0.519
13.94,31883.0,34544.2,-0.5145,-1.1234,149.6,97.0,0.519
13.96,31711.7,34550.0,-1.2674,-1.1091,149.6,97.0,0.519
13.98,31772.4,34402.6,-1.0007,-1.4712,149.6,97.0,0.519
14.0,31874.8,34544.2,-0.5503,-1.1233,149.6,97.0,0.519
14.02,31906.4,34772.4,-0.4116,-0.5626,149.6,97.0,0.519
14.04,32085.1,35123.6,0.3741,0.3002,149.6,97.0,0.519
14.06,32263.7,35642.8,1.1592,1.576,149.6,97.0,0.519
14.08,32373.0,35728.8,1.6398,1.7872,149.6,97.0,0.519
14.1,32324.0,35674.9,1.4244,1.6549,149.6,97.0,0.519
14.12,32188.0,35565.7,0.8265,1.3865,149.6,97.0,0.519
14.14,32139.9,35358.8,0.6152,0.8781,149.6,97.0,0.519
14.16,32222.9,35209.1,0.9799,0.5104,149.6,97.0,0.519
14.18,32068.1,35063.2,0.2996,0.1519,149.6,97.0,0.519
14.2,31895.5,35077.8,-0.4594,0.1877,149.6,97.0,0.519
14.22,31972.9,35004.0,-0.1192,0.0063,149.6,97.0,0.519
14.24,31901.4,34951.6,-0.4336,-0.1223,149.6,97.0,0.519
14.26,31884.2,34830.8,-0.5089,-0.4193,149.6,97.0,0.519
14.28,31916.6,34651.0,-0.3665,-0.861,149.6,97.0,0.519
14.3,31818.1,34625.0,-0.7997,-0.9247,149.6,97.0,0.519
14.32,31796.6,34777.9,-0.8941,-0.5493,149.6,97.0,0.519
14.34,31779.9,34659.7,-0.9677,-0.8397,149.6,97.0,0.519
14.36,31772.6,34527.6,-0.9996,-1.1643,149.6,97.0,0.519
14.38,31774.9,34283.6,-0.9895,-1.7636,149.6,97.0,0.519
14.4,31698.0,34551.7,-1.3276,-1.105,149.6,97.0,0.519
14.42,31893.4,34787.1,-0.4687,-0.5266,149.6,97.0,0.519
14.44,32145.1,35131.0,0.638,0.3184,149.6,97.0,0.519
14.46,32268.2,35532.6,1.1792,1.3052,149.6,97.0,0.519
14.48,32417.5,35723.6,1.8356,1.7744,149.6,97.0,0.519
14.5,32307.0,35816.4,1.3499,2.0024,149.6,97.0,0.519
14.52,32281.9,35447.1,1.2394,1.0951,149.6,97.0,0.519
14.54,32103.4,35318.8,0.4549,0.7799,149.6,97.0,0.519
14.56,32068.2,35247.3,0.2997,0.6041,149.6,97.0,0.519
14.58,32067.4,35166.6,0.2964,0.4058,149.6,97.0,0.519
14.6,31967.0,35063.9,-0.1451,0.1536,149.6,97.0,0.519
14.62,32025.6,34977.0,0.1128,-0.0599,149.6,97.0,0.519
14.64,31921.1,34829.9,-0.3466,-0.4213,149.6,97.0,0.519
14.66,31868.3,34773.0,-0.5789,-0.5612,149.6,97.0,0.519
14.68,31785.7,34739.8,-0.9421,-0.6428,149.6,97.0,0.519
14.7,31846.0,34719.6,-0.677,-0.6925,149.6,97.0,0.519
14.72,31833.4,34615.9,-0.7325,-0.9472,149.6,97.0,0.519
14.74,31835.2,34585.7,-0.7244,-1.0214,149.6,97.0,0.519
14.76,31760.9,34479.0,-1.0511,-1.2835,149.6,97.0,0.519
14.78,31755.1,34474.0,-1.0768,-1.2959,149.6,97.0,0.519
14.8,31746.7,34554.0,-1.1135,-1.0993,149.6,97.0,0.519
14.82,31864.0,34742.7,-0.5977,-0.6356,149.6,97.0,0.519
14.84,32077.9,35200.7,0.3426,0.4897,149.6,97.0,0.519
14.86,32247.9,35651.1,1.09,1.5962,149.6,97.0,0.519
14.88,32353.5,35705.4,1.5543,1.7298,149.6,97.0,0.519
14.9,32349.4,35743.8,1.5361,1.8242,149.6,97.0,0.519
14.92,32312.9,35557.4,1.3755,1.366,149.6,97.0,0.519
14.94,32102.7,35267.0,0.4517,0.6525,149.6,97.0,0.519
14.96,32123.6,35324.8,0.5434,0.7946,149.6,97.0,0.519
14.98,31989.6,35126.2,-0.0456,0.3066,149.6,97.0,0.519
15.0,31984.2,35059.9,-0.0694,0.1436,149.6,97.0,0.519
15.02,31936.4,34974.5,-0.2794,-0.066,149.6,97.0,0.519
15.04,31955.5,34867.8,-0.1955,-0.3282,149.6,97.0,0.519
15.06,31966.9,34736.7,-0.1456,-0.6505,149.6,97.0,0.519
15.08,31836.2,34754.6,-0.7199,-0.6064,149.6,97.0,0.519
15.1,31814.3,34753.6,-0.8163,-0.6088,149.6,97.0,0.519
15.12,31767.3,34623.0,-1.0228,-0.9299,149.6,97.0,0.519
15.14,31901.1,34577.8,-0.4347,-1.0407,149.6,97.0,0.519
15.16,31797.0,34493.7,-0.8922,-1.2474,149.6,97.0,0.519
15.18,31640.5,34354.2,-1.5805,-1.5903,149.6,97.0,0.519
15.2,31823.5,34603.6,-0.7758,-0.9773,149.6,97.0,0.519
15.22,31905.9,34789.2,-0.4134,-0.5213,149.6,97.0,0.519
15.24,31997.3,35216.2,-0.0118,0.5278,149.6,97.0,0.519
15.26,32192.5,35499.2,0.8465,1.223,149.6,97.0,0.519
15.28,32313.3,35758.1,1.3776,1.8592,149.6,97.0,0.519
15.3,32427.6,35677.2,1.8799,1.6604,149.6,97.0,0.519
15.32,32262.7,35576.9,1.155,1.4139,149.6,97.0,0.519
15.34,32243.0,35345.3,1.0682,0.845,149.6,97.0,0.519
15.36,32072.2,35221.3,0.3176,0.5404,149.6,97.0,0.519
15.38,32064.1,35157.9,0.2821,0.3845,149.6,97.0,0.519
15.4,32056.9,35139.7,0.25,0.3397,149.6,97.0,0.519
15.42,32001.6,34930.3,0.0072,-0.1747,149.6,97.0,0.519
15.44,31902.5,34915.8,-0.4284,-0.2104,149.6,97.0,0.519
15.46,31898.0,34785.4,-0.4486,-0.5307,149.6,97.0,0.519
15.48,31849.3,34669.3,-0.6626,-0.8161,149.6,97.0,0.519
15.5,31851.4,34670.9,-0.6533,-0.8121,149.6,97.0,0.519
15.52,31792.8,34615.0,-0.9106,-0.9494,149.6,97.0,0.519
15.54,31815.7,34596.4,-0.81,-0.9951,149.6,97.0,0.519
15.56,31782.8,34491.5,-0.9549,-1.2528,149.6,97.0,0.519
15.58,31695.5,34408.4,-1.3386,-1.4571,149.6,97.0,0.519
15.6,31785.5,34519.4,-0.9431,-1.1842,149.6,97.0,0.519
15.62,31855.6,34772.2,-0.6348,-0.5631,149.6,97.0,0.519
15.64,32086.2,35159.5,0.3791,0.3883,149.6,97.0,0.519
15.66,32350.7,35609.9,1.5419,1.495,149.6,97.0,0.519
15.68,32322.9,35851.0,1.4197,2.0875,149.6,97.0,0.519
15.7,32408.1,35716.2,1.7941,1.7562,149.6,97.0,0.519
15.72,32299.5,35596.0,1.3166,1.461,149.6,97.0,0.519
15.74,32205.2,35317.0,0.9023,0.7754,149.6,97.0,0.519
15.76,32169.6,35163.1,0.7455,0.3973,149.6,97.0,0.519
15.78,32032.7,35113.7,0.1438,0.2759,149.6,97.0,0.519
15.8,32047.4,35044.6,0.2087,0.106,149.6,97.0,0.519
15.82,31959.0,34883.6,-0.1801,-0.2894,149.6,97.0,0.519
15.84,31964.7,34955.8,-0.1551,-0.112,149.6,97.0,0.519
15.86,31895.6,34841.6,-0.459,-0.3926,149.6,97.0,0.519
15.88,31996.8,34743.7,-0.0142,-0.6332,149.6,97.0,0.519
15.9,31841.5,34676.9,-0.6967,-0.7975,149.6,97.0,0.519
15.92,31965.0,34663.4,-0.1537,-0.8304,149.6,97.0,0.519
15.94,31782.3,34613.1,-0.957,-0.954,149.6,97.0,0.519
15.96,31745.1,34517.8,-1.1205,-1.1881,149.6,97.0,0.519
15.98,31724.5,34413.9,-1.2113,-1.4436,149.6,97.0,0.519
16.0,31725.5,34495.9,-1.2066,-1.2421,149.6,97.0,0.519
16.02,31776.8,34719.6,-0.981,-0.6923,149.6,97.0,0.519
16.04,32061.8,35169.6,0.2717,0.4133,149.6,97.0,0.519
16.06,32233.7,35555.5,1.0273,1.3615,149.6,97.0,0.519
16.08,32362.8,35775.8,1.5951,1.9027,149.6,97.0,0.519
16.1,32384.5,35765.6,1.6906,1.8776,149.6,97.0,0.519
16.12,32254.9,35677.9,1.1207,1.6622,149.6,97.0,0.519
16.14,32126.7,35415.9,0.5571,1.0185,149.6,97.0,0.519
16.16,32145.0,35184.6,0.6378,0.4501,149.6,97.0,0.519
16.18,32129.8,35100.1,0.5706,0.2425,149.6,97.0,0.519
16.2,31986.8,35006.6,-0.0578,0.0128,149.6,97.0,0.519
16.22,32002.9,35028.8,0.0129,0.0672,149.6,97.0,0.519
16.24,31873.4,34894.1,-0.5564,-0.2638,149.6,97.0,0.519
16.26,31907.7,34788.6,-0.4057,-0.5228,149.6,97.0,0.519
16.28,31859.4,34664.0,-0.6181,-0.8289,149.6,97.0,0.519
16.3,31780.5,34721.9,-0.9648,-0.6867,149.6,97.0,0.519
16.32,31862.2,34658.4,-0.6057,-0.8429,149.6,97.0,0.519
16.34,31769.6,34540.3,-1.0128,-1.1329,149.6,97.0,0.519
16.36,31777.7,34507.8,-0.9773,-1.2127,149.6,97.0,0.519
16.38,31783.5,34412.2,-0.9516,-1.4477,149.6,97.0,0.519
16.4,31832.3,34554.7,-0.7372,-1.0975,149.6,97.0,0.519
16.42,31816.3,34812.2,-0.8077,-0.4649,149.6,97.0,0.519
16.44,32002.6,34998.6,0.0117,-0.0068,149.6,97.0,0.519
16.46,32175.7,35465.8,0.7723,1.1411,149.6,97.0,0.519
16.48,32290.0,35650.9,1.275,1.5958,149.6,97.0,0.519
16.5,32324.0,35751.9,1.4245,1.8441,149.6,97.0,0.519
16.52,32347.5,35643.4,1.5278,1.5773,149.6,97.0,0.519
16.54,32218.7,35360.5,0.9615,0.8823,149.6,97.0,0.519
16.56,32137.3,35241.7,0.6038,0.5904,149.6,97.0,0.519
16.58,31950.3,35092.0,-0.2182,0.2227,149.6,97.0,0.519
16.6,32097.7,35149.5,0.4294,0.3639,149.6,97.0,0.519
16.62,32015.1,35093.4,0.0666,0.2259,149.6,97.0,0.519
16.64,31960.3,34896.6,-0.1746,-0.2576,149.6,97.0,0.519
16.66,31963.2,34814.1,-0.1617,-0.4602,149.6,97.0,0.519
16.68,31938.5,34681.4,-0.2704,-0.7862,149.6,97.0,0.519
16.7,31795.3,34724.5,-0.8998,-0.6803,149.6,97.0,0.519
16.72,31771.6,34717.8,-1.0041,-0.6967,149.6,97.0,0.519
16.74,31834.7,34587.0,-0.7265,-1.0183,149.6,97.0,0.519
16.76,31785.5,34528.3,-0.9428,-1.1624,149.6,97.0,0.519
16.78,31742.7,34469.7,-1.131,-1.3064,149.6,97.0,0.519
16.8,31666.2,34533.8,-1.4675,-1.1488,149.6,97.0,0.519
16.82,31877.3,34723.0,-0.5396,-0.6841,149.6,97.0,0.519
16.84,32012.5,35014.5,0.0552,0.0321,149.6,97.0,0.519
16.86,32299.8,35478.3,1.3182,1.1717,149.6,97.0,0.519
16.88,32352.0,35709.0,1.5475,1.7386,149.6,97.0,0.519
16.9,32365.9,35817.2,1.6089,2.0043,149.6,97.0,0.519
16.92,32298.7,35656.5,1.3132,1.6095,149.6,97.0,0.519
16.94,32129.9,35440.1,0.5709,1.0779,149.6,97.0,0.519
16.96,32042.0,35178.4,0.1846,0.4348,149.6,97.0,0.519
16.98,31995.8,35165.4,-0.0184,0.4028,149.6,97.0,0.519
17.0,32095.5,35109.5,0.4197,0.2655,149.6,97.0,0.519
17.02,31994.3,35067.4,-0.0251,0.1621,149.6,97.0,0.519
17.04,31951.2,34951.7,-0.2144,-0.122,149.6,97.0,0.519
17.06,31831.6,34792.2,-0.7405,-0.5141,149.6,97.0,0.519
17.08,31842.9,34683.2,-0.6907,-0.7817,149.6,97.0,0.519
17.1,31802.8,34723.0,-0.8668,-0.6841,149.6,97.0,0.519
17.12,31883.0,34579.6,-0.5145,-1.0363,149.6,97.0,0.519
17.14,31761.3,34642.5,-1.0495,-0.8818,149.6,97.0,0.519
17.16,31723.6,34500.9,-1.2152,-1.2298,149.6,97.0,0.519
17.18,31804.5,34398.4,-0.8593,-1.4817,149.6,97.0,0.519
17.2,31699.8,34555.2,-1.3199,-1.0964,149.6,97.0,0.519
17.22,31848.9,34619.7,-0.6641,-0.938,149.6,97.0,0.519
17.24,31991.2,35009.8,-0.0387,0.0207,149.6,97.0,0.519
17.26,32124.6,35381.8,0.548,0.9347,149.6,97.0,0.519
17.28,32299.5,35699.5,1.317,1.7152,149.6,97.0,0.519
17.3,32346.8,35721.2,1.5246,1.7686,149.6,97.0,0.519
17.32,32286.4,35718.7,1.2592,1.7625,149.6,97.0,0.519
17.34,32169.8,35445.5,0.7464,1.0912,149.6,97.0,0.519
17.36,32114.7,35176.5,0.5042,0.4302,149.6,97.0,0.519
17.38,32059.0,35094.4,0.2597,0.2286,149.6,97.0,0.519
17.4,32073.9,35104.4,0.3252,0.253,149.6,97.0,0.519
17.42,32003.8,34974.7,0.0168,-0.0657,149.6,97.0,0.519
17.44,32035.4,34920.8,0.1558,-0.1979,149.6,97.0,0.519
17.46,31959.2,34772.0,-0.1792,-0.5636,149.6,97.0,0.519
17.48,31832.8,34670.9,-0.7349,-0.812,149.6,97.0,0.519
17.5,31925.4,34718.7,-0.3278,-0.6946,149.6,97.0,0.519
17.52,31867.7,34666.5,-0.5817,-0.8228,149.6,97.0,0.519
17.54,31859.2,34591.8,-0.6191,-1.0065,149.6,97.0,0.519
17.56,31766.0,34550.5,-1.0286,-1.1078,149.6,97.0,0.519
17.58,31627.2,34447.2,-1.6388,-1.3617,149.6,97.0,0.519
17.6,31708.2,34516.3,-1.2829,-1.1918,149.6,97.0,0.519
17.62,31899.2,34677.7,-0.443,-0.7953,149.6,97.0,0.519
17.64,31962.7,35085.0,-0.1638,0.2053,149.6,97.0,0.519
17.66,32149.6,35453.0,0.6576,1.1097,149.6,97.0,0.519
17.68,32335.2,35711.6,1.4735,1.745,149.6,97.0,0.519
17.7,32379.7,35690.6,1.6692,1.6933,149.6,97.0,0.519
17.72,32323.9,35633.7,1.4242,1.5536,149.6,97.0,0.519
17.74,32224.4,35460.4,0.9868,1.1279,149.6,97.0,0.519
17.76,32091.3,35181.7,0.4015,0.443,149.6,97.0,0.519
17.78,32057.6,35145.9,0.2533,0.355,149.6,97.0,0.519
17.8,32012.5,35109.3,0.0548,0.2652,149.6,97.0,0.519
17.82,32054.1,35066.2,0.2381,0.1592,149.6,97.0,0.519
17.84,32015.4,34867.5,0.068,-0.329,149.6,97.0,0.519
17.86,31942.6,34727.9,-0.2523,-0.672,149.6,97.0,0.519
17.88,31838.4,34779.6,-0.7104,-0.545,149.6,97.0,0.519
17.9,31810.6,34656.0,-0.8324,-0.8488,149.6,97.0,0.519
17.92,31867.9,34660.6,-0.5807,-0.8375,149.6,97.0,0.519
17.94,31837.3,34616.9,-0.7151,-0.9448,149.6,97.0,0.519
17.96,31778.7,34520.7,-0.9727,-1.1812,149.6,97.0,0.519
17.98,31767.4,34545.8,-1.0227,-1.1195,149.6,97.0,0.519
18.0,31715.9,34518.8,-1.2491,-1.1858,149.6,97.0,0.519
18.02,31859.5,34641.0,-0.6178,-0.8856,149.6,97.0,0.519
18.04,32047.3,34973.6,0.2079,-0.0683,149.6,97.0,0.519
18.06,32202.0,35454.4,0.8882,1.113,149.6,97.0,0.519
18.08,32334.5,35678.2,1.4706,1.663,149.6,97.0,0.519
18.1,32369.5,35745.5,1.6244,1.8282,149.6,97.0,0.519
18.12,32357.4,35589.1,1.5714,1.4439,149.6,97.0,0.519
18.14,32263.6,35451.7,1.1588,1.1063,149.6,97.0,0.519
18.16,32279.6,35285.6,1.2294,0.6983,149.6,97.0,0.519
18.18,32024.2,35185.8,0.1066,0.4529,149.6,97.0,0.519
18.2,32045.9,35103.6,0.2021,0.251,149.6,97.0,0.519
18.22,32067.2,35024.8,0.2957,0.0575,149.6,97.0,0.519
18.24,31948.5,34936.8,-0.2262,-0.1589,149.6,97.0,0.519
18.26,31836.2,34780.3,-0.7202,-0.5432,149.6,97.0,0.519
18.28,31869.3,34759.4,-0.5744,-0.5945,149.6,97.0,0.519
18.3,31810.8,34737.0,-0.8319,-0.6497,149.6,97.0,0.519
18.32,31752.4,34751.8,-1.0883,-0.6133,149.6,97.0,0.519
18.34,31755.3,34695.6,-1.0756,-0.7513,149.6,97.0,0.519
18.36,31830.3,34578.1,-0.7462,-1.0401,149.6,97.0,0.519
18.38,31685.1,34474.8,-1.3843,-1.2938,149.6,97.0,0.519
18.4,31797.3,34507.6,-0.8909,-1.2134,149.6,97.0,0.519
18.42,31870.5,34717.0,-0.5694,-0.6988,149.6,97.0,0.519
18.44,31958.0,34894.0,-0.1847,-0.2639,149.6,97.0,0.519
18.46,32193.7,35342.6,0.8516,0.8383,149.6,97.0,0.519
18.48,32233.2,35620.1,1.0254,1.5202,149.6,97.0,0.519
18.5,32334.6,35756.9,1.4711,1.8562,149.6,97.0,0.519
18.52,32300.0,35650.7,1.3188,1.5953,149.6,97.0,0.519
18.54,32140.1,35362.7,0.6161,0.8877,149.6,97.0,0.519
18.56,32118.5,35253.6,0.5211,0.6197,149.6,97.0,0.519
18.58,32048.4,35153.9,0.2129,0.3747,149.6,97.0,0.519
18.6,32025.2,35068.8,0.1108,0.1655,149.6,97.0,0.519
18.62,32042.6,35160.8,0.1875,0.3916,149.6,97.0,0.519
18.64,31928.1,35014.5,-0.3159,0.0321,149.6,97.0,0.519
18.66,31893.3,34856.8,-0.4692,-0.3552,149.6,97.0,0.519
18.68,31827.9,34777.1,-0.7564,-0.5511,149.6,97.0,0.519
18.7,31872.0,34643.9,-0.5627,-0.8784,149.6,97.0,0.519
18.72,31876.9,34585.3,-0.541,-1.0224,149.6,97.0,0.519
18.74,31882.6,34652.5,-0.5159,-0.8573,149.6,97.0,0.519
18.76,31783.0,34528.5,-0.9538,-1.1619,149.6,97.0,0.519
18.78,31758.8,34468.7,-1.0604,-1.309,149.6,97.0,0.519
18.8,31817.6,34529.2,-0.8017,-1.1601,149.6,97.0,0.519
18.82,31713.0,34680.9,-1.2618,-0.7876,149.6,97.0,0.519
18.84,31906.5,34914.0,-0.411,-0.2148,149.6,97.0,0.519
18.86,32150.8,35378.2,0.6631,0.9257,149.6,97.0,0.519
18.88,32298.5,35635.8,1.3124,1.5586,149.6,97.0,0.519
18.9,32322.5,35726.4,1.4179,1.7813,149.6,97.0,0.519
18.92,32284.8,35627.3,1.2521,1.5378,149.6,97.0,0.519
18.94,32257.8,35538.0,1.1335,1.3184,149.6,97.0,0.519
18.96,32133.9,35245.2,0.5887,0.599,149.6,97.0,0.519
18.98,32159.9,35183.3,0.7029,0.447,149.6,97.0,0.519
19.0,32009.3,35153.8,0.0409,0.3745,149.6,97.0,0.519
19.02,31986.5,34972.9,-0.0595,-0.07,149.6,97.0,0.519
19.04,31944.8,34987.0,-0.2427,-0.0355,149.6,97.0,0.519
19.06,31889.6,34765.8,-0.4851,-0.5789,149.6,97.0,0.519
19.08,31858.9,34742.8,-0.6201,-0.6353,149.6,97.0,0.519
19.1,31772.2,34729.0,-1.0013,-0.6693,149.6,97.0,0.519
19.12,31835.1,34702.4,-0.7247,-0.7346,149.6,97.0,0.519
19.14,31843.6,34640.6,-0.6875,-0.8866,149.6,97.0,0.519
19.16,31723.9,34468.3,-1.2137,-1.3099,149.6,97.0,0.519
19.18,31754.8,34501.7,-1.0778,-1.2279,149.6,97.0,0.519
19.2,31696.6,34410.4,-1.334,-1.4522,149.6,97.0,0.519
19.22,31741.0,34592.8,-1.1384,-1.0039,149.6,97.0,0.519
19.24,31980.3,34929.2,-0.0866,-0.1775,149.6,97.0,0.519
19.26,32098.8,35295.0,0.4343,0.7214,149.6,97.0,0.519
19.28,32248.0,35592.7,1.0905,1.4529,149.6,97.0,0.519
19.3,32426.8,35739.1,1.8765,1.8126,149.6,97.0,0.519
19.32,32325.7,35734.6,1.4319,1.8014,149.6,97.0,0.519
19.34,32291.4,35427.2,1.2814,1.0461,149.6,97.0,0.519
19.36,32140.6,35221.3,0.6182,0.5403,149.6,97.0,0.519
19.38,32079.4,35090.2,0.3489,0.2181,149.6,97.0,0.519
19.4,32003.6,35077.0,0.0157,0.1856,149.6,97.0,0.519
19.42,32053.2,35049.8,0.234,0.1188,149.6,97.0,0.519
19.44,31983.4,34845.4,-0.0727,-0.3834,149.6,97.0,0.519
19.46,31821.7,34981.4,-0.7839,-0.0492,149.6,97.0,0.519
19.48,31898.3,34800.0,-0.447,-0.4949,149.6,97.0,0.519
19.5,31850.0,34704.8,-0.6593,-0.7287,149.6,97.0,0.519
19.52,31877.2,34599.7,-0.5397,-0.987,149.6,97.0,0.519
19.54,31796.4,34585.8,-0.8948,-1.0213,149.6,97.0,0.519
19.56,31750.3,34587.9,-1.0979,-1.016,149.6,97.0,0.519
19.58,31758.5,34500.0,-1.0618,-1.232,149.6,97.0,0.519
19.6,31756.0,34535.1,-1.0728,-1.1458,149.6,97.0,0.519
19.62,31816.7,34607.2,-0.8059,-0.9686,149.6,97.0,0.519
19.64,31955.9,34892.5,-0.1937,-0.2677,149.6,97.0,0.519
19.66,32157.0,35255.1,0.6903,0.6233,149.6,97.0,0.519
19.68,32240.5,35582.4,1.0572,1.4275,149.6,97.0,0.519
19.7,32304.4,35767.6,1.3381,1.8825,149.6,97.0,0.519
19.72,32293.5,35728.1,1.2904,1.7856,149.6,97.0,0.519
19.74,32221.4,35476.2,0.9734,1.1666,149.6,97.0,0.519
19.76,32245.8,35249.9,1.0809,0.6104,149.6,97.0,0.519
19.78,32066.1,35201.5,0.2909,0.4915,149.6,97.0,0.519
19.8,32059.2,35184.6,0.2604,0.45,149.6,97.0,0.519
19.82,32003.7,35133.7,0.0165,0.3251,149.6,97.0,0.519
19.84,31958.9,35007.7,-0.1805,0.0153,149.6,97.0,0.519
19.86,31994.3,34830.8,-0.0249,-0.4193,149.6,97.0,0.519
19.88,31762.0,34765.0,-1.0461,-0.5808,149.6,97.0,0.519
19.9,31891.8,34698.7,-0.4758,-0.7437,149.6,97.0,0.519
19.92,31837.2,34642.6,-0.7155,-0.8815,149.6,97.0,0.519
19.94,31848.5,34606.0,-0.6662,-0.9716,149.6,97.0,0.519
19.96,31747.6,34598.7,-1.1098,-0.9895,149.6,97.0,0.519
19.98,31768.1,34478.7,-1.0193,-1.2844,149.6,97.0,0.519
20.0,31648.8,34475.7,-1.5438,-1.2916,149.6,97.0,0.519
20.02,31846.9,34586.4,-0.6731,-1.0197,149.6,97.0,0.519
20.04,31939.8,34889.4,-0.2645,-0.2753,149.6,97.0,0.519
20.06,32165.7,35253.1,0.7286,0.6185,149.6,97.0,0.519
20.08,32311.7,35673.6,1.3702,1.6516,149.6,97.0,0.519
20.1,32316.1,35756.1,1.3897,1.8542,149.6,97.0,0.519
20.12,32327.3,35709.1,1.4391,1.7388,149.6,97.0,0.519
20.14,32300.5,35423.4,1.3213,1.0369,149.6,97.0,0.519
20.16,32071.4,35354.7,0.3141,0.868,149.6,97.0,0.519
20.18,32125.4,35133.3,0.5513,0.3239,149.6,97.0,0.519
20.2,32018.9,35086.2,0.083,0.2084,149.6,97.0,0.519
20.22,32127.9,35078.7,0.5624,0.1899,149.6,97.0,0.519
20.24,31957.1,34972.1,-0.1883,-0.072,149.6,97.0,0.519
20.26,31995.2,34842.7,-0.0209,-0.3899,149.6,97.0,0.519
20.28,31930.0,34782.7,-0.3077,-0.5373,149.6,97.0,0.519
20.3,31855.0,34775.8,-0.6373,-0.5543,149.6,97.0,0.519
20.32,31878.0,34659.8,-0.5363,-0.8393,149.6,97.0,0.519
20.34,31816.2,34607.2,-0.8079,-0.9685,149.6,97.0,0.519
20.36,31782.3,34573.7,-0.957,-1.051,149.6,97.0,0.519
20.38,31863.5,34449.0,-0.6001,-1.3573,149.6,97.0,0.519
20.4,31755.8,34433.5,-1.0733,-1.3955,149.6,97.0,0.519
20.42,31777.6,34540.8,-0.9778,-1.1318,149.6,97.0,0.519
20.44,31895.9,34834.1,-0.4577,-0.4112,149.6,97.0,0.519
20.46,32074.4,35321.1,0.3271,0.7854,149.6,97.0,0.519
20.48,32343.4,35589.4,1.5096,1.4448,149.6,97.0,0.519
20.5,32376.5,35819.9,1.6553,2.0111,149.6,97.0,0.519
20.52,32336.7,35645.7,1.4804,1.5831,149.6,97.0,0.519
20.54,32312.7,35547.6,1.375,1.3421,149.6,97.0,0.519
20.56,32222.5,35303.2,0.9784,0.7415,149.6,97.0,0.519
20.58,32130.9,35197.5,0.5755,0.4818,149.6,97.0,0.519
20.6,32031.6,35017.9,0.1389,0.0406,149.6,97.0,0.519
20.62,31993.4,35111.6,-0.029,0.2707,149.6,97.0,0.519
20.64,32036.9,34929.6,0.1624,-0.1765,149.6,97.0,0.519
20.66,31963.5,34913.3,-0.1602,-0.2164,149.6,97.0,0.519
20.68,31836.0,34720.2,-0.721,-0.691,149.6,97.0,0.519
20.7,31859.4,34703.6,-0.6182,-0.7317,149.6,97.0,0.519
20.72,31863.7,34629.7,-0.5993,-0.9133,149.6,97.0,0.519
20.74,31936.3,34684.3,-0.2799,-0.7791,149.6,97.0,0.519
20.76,31799.8,34600.1,-0.8799,-0.986,149.6,97.0,0.519
20.78,31662.9,34484.9,-1.4819,-1.2691,149.6,97.0,0.519
20.8,31767.2,34458.4,-1.0232,-1.3342,149.6,97.0,0.519
20.82,31752.6,34514.7,-1.0877,-1.1958,149.6,97.0,0.519
20.84,31864.5,34808.5,-0.5956,-0.4739,149.6,97.0,0.519
20.86,32115.2,35227.7,0.5064,0.556,149.6,97.0,0.519
20.88,32189.1,35622.1,0.8314,1.5251,149.6,97.0,0.519
20.9,32348.0,35873.9,1.5301,2.1438,149.6,97.0,0.519
20.92,32337.8,35767.5,1.485,1.8823,149.6,97.0,0.519
20.94,32188.1,35458.9,0.827,1.1241,149.6,97.0,0.519
20.96,32132.9,35348.3,0.5842,0.8522,149.6,97.0,0.519
20.98,32073.5,35203.6,0.3233,0.4969,149.6,97.0,0.519
21.0,32079.4,35016.0,0.3491,0.0359,149.6,97.0,0.519
21.02,32133.4,35012.7,0.5864,0.0278,149.6,97.0,0.519
21.04,31903.3,35008.2,-0.425,0.0168,149.6,97.0,0.519
21.06,31978.1,34894.6,-0.0963,-0.2624,149.6,97.0,0.519
21.08,31839.3,34741.6,-0.7062,-0.6384,149.6,97.0,0.519
21.1,31890.1,34671.3,-0.4831,-0.8112,149.6,97.0,0.519
21.12,31858.2,34692.5,-0.6235,-0.7591,149.6,97.0,0.519
21.14,31787.4,34693.2,-0.9346,-0.7573,149.6,97.0,0.519
21.16,31843.8,34474.5,-0.6867,-1.2947,149.6,97.0,0.519
21.18,31688.1,34425.8,-1.3713,-1.4143,149.6,97.0,0.519
21.2,31779.4,34485.7,-0.9699,-1.2671,149.6,97.0,0.519
21.22,31783.2,34570.2,-0.9529,-1.0596,149.6,97.0,0.519
21.24,31928.2,34818.3,-0.3155,-0.45,149.6,97.0,0.519
21.26,32094.3,35223.5,0.4147,0.5456,149.6,97.0,0.519
21.28,32367.3,35638.9,1.6147,1.5663,149.6,97.0,0.519
21.3,32392.7,35845.8,1.7266,2.0747,149.6,97.0,0.519
21.32,32341.2,35807.6,1.5002,1.9808,149.6,97.0,0.519
21.34,32272.7,35544.1,1.1991,1.3335,149.6,97.0,0.519
21.36,32161.7,35279.7,0.7111,0.6838,149.6,97.0,0.519
21.38,32114.2,35180.8,0.5023,0.4407,149.6,97.0,0.519
21.4,32013.8,35110.5,0.0608,0.2679,149.6,97.0,0.519
21.42,32060.4,35020.5,0.2656,0.0468,149.6,97.0,0.519
21.44,32057.0,34903.4,0.2507,-0.2409,149.6,97.0,0.519
21.46,31867.3,34881.4,-0.5832,-0.2948,149.6,97.0,0.519
21.48,31902.7,34750.6,-0.4276,-0.6162,149.6,97.0,0.519
21.5,31933.9,34670.5,-0.2905,-0.813,149.6,97.0,0.519
21.52,31864.3,34655.0,-0.5966,-0.8512,149.6,97.0,0.519
21.54,31832.1,34606.7,-0.7379,-0.9698,149.6,97.0,0.519
21.56,31803.0,34589.1,-0.866,-1.013,149.6,97.0,0.519
21.58,31843.1,34413.9,-0.6898,-1.4434,149.6,97.0,0.519
21.6,31736.8,34411.8,-1.1569,-1.4486,149.6,97.0,0.519
21.62,31719.3,34457.1,-1.2338,-1.3373,149.6,97.0,0.519
21.64,31908.5,34818.3,-0.4021,-0.4498,149.6,97.0,0.519
21.66,32092.7,35179.2,0.4077,0.4368,149.6,97.0,0.519
21.68,32252.0,35567.4,1.1079,1.3906,149.6,97.0,0.519
21.7,32338.6,35763.3,1.4887,1.872,149.6,97.0,0.519
21.72,32353.1,35748.7,1.5525,1.8362,149.6,97.0,0.519
21.74,32263.3,35594.7,1.1574,1.4578,149.6,97.0,0.519
21.76,32185.9,35317.0,0.8173,0.7754,149.6,97.0,0.519
21.78,32026.5,35207.4,0.1165,0.5062,149.6,97.0,0.519
21.8,31979.9,35095.8,-0.0883,0.232,149.6,97.0,0.519
21.82,31987.5,35094.7,-0.0551,0.2293,149.6,97.0,0.519
21.84,32089.6,34975.3,0.3938,-0.0641,149.6,97.0,0.519
21.86,32021.7,34898.7,0.0956,-0.2524,149.6,97.0,0.519
21.88,31969.2,34772.9,-0.1352,-0.5615,149.6,97.0,0.519
21.9,31950.1,34720.8,-0.2193,-0.6895,149.6,97.0,0.519
21.92,31849.1,34689.2,-0.6633,-0.7671,149.6,97.0,0.519
21.94,31823.3,34688.7,-0.7766,-0.7684,149.6,97.0,0.519
21.96,31777.2,34477.4,-0.9793,-1.2875,149.6,97.0,0.519
21.98,31803.9,34526.7,-0.8621,-1.1663,149.6,97.0,0.519
22.0,31725.6,34383.3,-1.2064,-1.5188,149.6,97.0,0.519
22.02,31758.1,34543.8,-1.0633,-1.1244,149.6,97.0,0.519
22.04,31902.7,34761.0,-0.4279,-0.5908,149.6,97.0,0.519
22.06,32006.8,35189.9,0.0298,0.4631,149.6,97.0,0.519
22.08,32244.8,35483.9,1.0762,1.1854,149.6,97.0,0.519
22.1,32383.6,35732.6,1.6864,1.7965,149.6,97.0,0.519
22.12,32393.3,35719.9,1.7293,1.7655,149.6,97.0,0.519
22.14,32205.6,35554.7,0.9039,1.3595,149.6,97.0,0.519
22.16,32178.4,35438.3,0.7842,1.0734,149.6,97.0,0.519
22.18,32169.1,35236.9,0.7435,0.5786,149.6,97.0,0.519
22.2,32055.5,35122.7,0.2439,0.298,149.6,97.0,0.519
22.22,32021.7,35024.5,0.0953,0.0568,149.6,97.0,0.519
22.24,31997.2,34945.0,-0.0121,-0.1385,149.6,97.0,0.519
22.26,31966.7,34903.9,-0.1465,-0.2396,149.6,97.0,0.519
22.28,31903.8,34866.6,-0.4229,-0.3313,149.6,97.0,0.519
22.3,31783.5,34714.2,-0.9518,-0.7058,149.6,97.0,0.519
22.32,31783.7,34636.3,-0.951,-0.8972,149.6,97.0,0.519
22.34,31875.0,34752.8,-0.5494,-0.6108,149.6,97.0,0.519
22.36,31670.6,34631.2,-1.4482,-0.9096,149.6,97.0,0.519
22.38,31699.5,34536.4,-1.3211,-1.1425,149.6,97.0,0.519
22.4,31739.5,34469.2,-1.145,-1.3076,149.6,97.0,0.519
22.42,31775.5,34601.0,-0.987,-0.9839,149.6,97.0,0.519
22.44,31840.2,34692.8,-0.7026,-0.7582,149.6,97.0,0.519
22.46,32127.2,35127.0,0.5593,0.3085,149.6,97.0,0.519
22.48,32272.1,35495.5,1.1963,1.2141,149.6,97.0,0.519
22.5,32404.0,35727.8,1.7762,1.7847,149.6,97.0,0.519
22.52,32396.0,35780.0,1.741,1.9131,149.6,97.0,0.519
22.54,32282.2,35659.0,1.2409,1.6158,149.6,97.0,0.519
22.56,32127.2,35345.1,0.5592,0.8445,149.6,97.0,0.519
22.58,32062.2,35225.8,0.2737,0.5513,149.6,97.0,0.519
22.6,32054.1,35114.8,0.2381,0.2786,149.6,97.0,0.519
22.62,31960.4,35105.2,-0.1738,0.255,149.6,97.0,0.519
22.64,31968.7,34973.9,-0.1376,-0.0677,149.6,97.0,0.519
22.66,31834.6,34922.1,-0.727,-0.1949,149.6,97.0,0.519
22.68,31896.8,34783.1,-0.4538,-0.5364,149.6,97.0,0.519
22.7,31866.7,34708.4,-0.5859,-0.72,149.6,97.0,0.519
22.72,31801.4,34707.2,-0.8732,-0.7229,149.6,97.0,0.519
22.74,31867.6,34599.6,-0.5818,-0.9873,149.6,97.0,0.519
22.76,31836.8,34565.3,-0.7176,-1.0716,149.6,97.0,0.519
22.78,31749.0,34476.8,-1.1036,-1.2889,149.6,97.0,0.519
22.8,31671.0,34465.8,-1.4464,-1.316,149.6,97.0,0.519
22.82,31702.8,34501.0,-1.3064,-1.2294,149.6,97.0,0.519
22.84,31873.0,34797.8,-0.5583,-0.5002,149.6,97.0,0.519
22.86,32004.9,35141.1,0.0215,0.3432,149.6,97.0,0.519
22.88,32221.7,35525.4,0.9747,1.2876,149.6,97.0,0.519
22.9,32354.6,35735.3,1.559,1.8031,149.6,97.0,0.519
22.92,32269.7,35756.4,1.1858,1.8551,149.6,97.0,0.519
22.94,32220.3,35533.1,0.9686,1.3064,149.6,97.0,0.519
22.96,32162.1,35347.8,0.7126,0.8512,149.6,97.0,0.519
22.98,32147.5,35141.6,0.6486,0.3445,149.6,97.0,0.519
23.0,32002.8,35155.5,0.0124,0.3785,149.6,97.0,0.519
23.02,32116.4,35086.3,0.5117,0.2085,149.6,97.0,0.519
23.04,32002.7,34946.5,0.0121,-0.1349,149.6,97.0,0.519
23.06,31954.4,34868.4,-0.2003,-0.3269,149.6,97.0,0.519
23.08,31926.4,34797.3,-0.3237,-0.5015,149.6,97.0,0.519
23.1,31815.2,34617.4,-0.8125,-0.9436,149.6,97.0,0.519
23.12,31811.5,34782.4,-0.8288,-0.5382,149.6,97.0,0.519
23.14,31907.8,34619.3,-0.4052,-0.9388,149.6,97.0,0.519
23.16,31872.5,34538.4,-0.5604,-1.1377,149.6,97.0,0.519
23.18,31739.7,34524.8,-1.1444,-1.171,149.6,97.0,0.519
23.2,31725.2,34429.9,-1.2078,-1.4042,149.6,97.0,0.519
23.22,31785.1,34475.8,-0.9447,-1.2915,149.6,97.0,0.519
23.24,31935.6,34716.9,-0.2832,-0.699,149.6,97.0,0.519
23.26,31990.1,35148.3,-0.0436,0.3608,149.6,97.0,0.519
23.28,32271.6,35450.1,1.1941,1.1025,149.6,97.0,0.519
23.3,32276.4,35741.7,1.2153,1.8189,149.6,97.0,0.519
23.32,32311.5,35741.0,1.3696,1.8171,149.6,97.0,0.519
23.34,32314.0,35637.6,1.3803,1.563,149.6,97.0,0.519
23.36,32239.8,35298.4,1.0541,0.7296,149.6,97.0,0.519
23.38,32124.1,35254.3,0.5455,0.6213,149.6,97.0,0.519
23.4,32095.8,35169.1,0.4214,0.412,149.6,97.0,0.519
23.42,31986.5,35097.3,-0.0592,0.2356,149.6,97.0,0.519
23.44,32035.8,34884.5,0.1574,-0.2873,149.6,97.0,0.519
23.46,31992.7,34903.2,-0.032,-0.2413,149.6,97.0,0.519
23.48,31880.2,34789.5,-0.5267,-0.5208,149.6,97.0,0.519
23.5,31931.0,34657.2,-0.3033,-0.8458,149.6,97.0,0.519
23.52,31835.2,34715.4,-0.7245,-0.7026,149.6,97.0,0.519
23.54,31859.9,34704.6,-0.6159,-0.7292,149.6,97.0,0.519
23.56,31916.7,34578.9,-0.3664,-1.0381,149.6,97.0,0.519
23.58,31700.0,34464.1,-1.3188,-1.3202,149.6,97.0,0.519
23.6,31714.5,34535.5,-1.2553,-1.1447,149.6,97.0,0.519
23.62,31778.3,34387.5,-0.9746,-1.5083,149.6,97.0,0.519
23.64,31874.6,34742.4,-0.5512,-0.6365,149.6,97.0,0.519
23.66,32057.3,35112.5,0.252,0.273,149.6,97.0,0.519
23.68,32157.6,35490.1,0.6931,1.2008,149.6,97.0,0.519
23.7,32240.4,35670.1,1.0569,1.6429,149.6,97.0,0.519
23.72,32445.0,35734.9,1.9567,1.8021,149.6,97.0,0.519
23.74,32281.7,35588.1,1.2383,1.4415,149.6,97.0,0.519
23.76,32217.9,35375.0,0.9579,0.9179,149.6,97.0,0.519
23.78,32122.8,35255.1,0.5401,0.6232,149.6,97.0,0.519
23.8,32131.6,35139.6,0.5784,0.3395,149.6,97.0,0.519
23.82,32053.9,35047.0,0.2369,0.112,149.6,97.0,0.519
23.84,31891.2,34977.9,-0.4783,-0.0578,149.6,97.0,0.519
23.86,32004.6,34888.6,0.0203,-0.2773,149.6,97.0,0.519
23.88,31928.3,34692.6,-0.3151,-0.7588,149.6,97.0,0.519
23.9,31860.8,34781.2,-0.612,-0.5412,149.6,97.0,0.519
23.92,31807.1,34631.7,-0.848,-0.9085,149.6,97.0,0.519
23.94,31944.1,34670.7,-0.2457,-0.8127,149.6,97.0,0.519
23.96,31892.0,34564.5,-0.4745,-1.0735,149.6,97.0,0.519
23.98,31838.9,34541.1,-0.7083,-1.1311,149.6,97.0,0.519
24.0,31801.3,34438.5,-0.8734,-1.383,149.6,97.0,0.519
24.02,31792.7,34407.8,-0.9113,-1.4586,149.6,97.0,0.519
24.04,31922.4,34694.1,-0.3411,-0.755,149.6,97.0,0.519
24.06,31964.8,35011.6,-0.1548,0.025,149.6,97.0,0.519
24.08,32194.3,35396.5,0.8543,0.9708,149.6,97.0,0.519
24.1,32285.7,35676.1,1.2563,1.6578,149.6,97.0,0.519
24.12,32315.0,35726.3,1.3849,1.781,149.6,97.0,0.519
24.14,32203.6,35657.2,0.8953,1.6112,149.6,97.0,0.519
24.16,32199.4,35352.7,0.8767,0.863,149.6,97.0,0.519
24.18,32156.0,35286.6,0.6858,0.7007,149.6,97.0,0.519
24.2,32138.5,35078.3,0.609,0.189,149.6,97.0,0.519
24.22,32088.1,35059.1,0.3872,0.1419,149.6,97.0,0.519
24.24,32078.7,35043.3,0.3462,0.1028,149.6,97.0,0.519
24.26,31944.6,34861.8,-0.2436,-0.343,149.6,97.0,0.519
24.28,31867.7,34846.9,-0.5818,-0.3797,149.6,97.0,0.519
24.3,31814.2,34813.4,-0.8169,-0.462,149.6,97.0,0.519
24.32,31846.3,34695.2,-0.6755,-0.7524,149.6,97.0,0.519
24.34,31805.8,34643.1,-0.8536,-0.8803,149.6,97.0,0.519
24.36,31795.1,34659.7,-0.9008,-0.8396,149.6,97.0,0.519
24.38,31885.5,34608.0,-0.5034,-0.9666,149.6,97.0,0.519
24.4,31736.7,34540.5,-1.1573,-1.1325,149.6,97.0,0.519
24.42,31755.1,34475.2,-1.0764,-1.2929,149.6,97.0,0.519
24.44,31755.2,34666.9,-1.076,-0.8219,149.6,97.0,0.519
24.46,31985.6,35062.9,-0.0634,0.1512,149.6,97.0,0.519
24.48,32197.6,35433.4,0.8687,1.0614,149.6,97.0,0.519
24.5,32334.8,35711.6,1.4718,1.7449,149.6,97.0,0.519
24.52,32406.0,35722.8,1.785,1.7725,149.6,97.0,0.519
24.54,32336.2,35685.9,1.4781,1.6818,149.6,97.0,0.519
24.56,32207.3,35398.2,0.9114,0.9749,149.6,97.0,0.519
24.58,32026.6,35290.1,0.1168,0.7093,149.6,97.0,0.519
24.6,32150.0,35115.0,0.6595,0.2791,149.6,97.0,0.519
24.62,32069.4,35084.5,0.3053,0.2042,149.6,97.0,0.519
24.64,32100.7,35015.5,0.4429,0.0346,149.6,97.0,0.519
24.66,31879.8,34941.1,-0.5284,-0.1482,149.6,97.0,0.519
24.68,31988.4,34795.3,-0.0511,-0.5065,149.6,97.0,0.519
24.7,31912.0,34739.8,-0.3869,-0.6427,149.6,97.0,0.519
24.72,31830.2,34748.0,-0.7463,-0.6227,149.6,97.0,0.519
24.74,31934.0,34722.4,-0.2903,-0.6855,149.6,97.0,0.519
24.76,31733.0,34620.7,-1.1735,-0.9354,149.6,97.0,0.519
24.78,31868.9,34470.6,-0.5762,-1.3043,149.6,97.0,0.519
24.8,31801.2,34572.3,-0.8739,-1.0544,149.6,97.0,0.519
24.82,31797.5,34479.0,-0.8904,-1.2835,149.6,97.0,0.519
24.84,31804.5,34634.3,-0.8593,-0.902,149.6,97.0,0.519
24.86,31976.1,34950.1,-0.105,-0.1261,149.6,97.0,0.519
24.88,32151.1,35365.4,0.6641,0.8943,149.6,97.0,0.519
24.9,32302.8,35672.0,1.3314,1.6477,149.6,97.0,0.519
24.92,32384.5,35666.9,1.6904,1.6352,149.6,97.0,0.519
24.94,32247.8,35650.2,1.0893,1.5942,149.6,97.0,0.519
24.96,32125.6,35416.8,0.5524,1.0207,149.6,97.0,0.519
24.98,32218.4,35224.4,0.9603,0.5479,149.6,97.0,0.519
25.0,32069.3,35246.4,0.3049,0.6021,149.6,97.0,0.519
25.02,32049.3,35098.7,0.2169,0.239,149.6,97.0,0.519
25.04,31995.8,35084.9,-0.0183,0.2052,149.6,97.0,0.519
25.06,32002.3,34977.8,0.0104,-0.0579,149.6,97.0,0.519
25.08,31869.1,34795.4,-0.5753,-0.5061,149.6,97.0,0.519
25.1,31845.5,34735.9,-0.6794,-0.6523,149.6,97.0,0.519
25.12,31800.2,34628.4,-0.8781,-0.9166,149.6,97.0,0.519
25.14,31790.3,34705.3,-0.922,-0.7274,149.6,97.0,0.519
25.16,31869.2,34663.4,-0.575,-0.8305,149.6,97.0,0.519
25.18,31833.3,34454.3,-0.7329,-1.3442,149.6,97.0,0.519
25.2,31769.1,34440.3,-1.0151,-1.3786,149.6,97.0,0.519
25.22,31854.2,34515.9,-0.6411,-1.193,149.6,97.0,0.519
25.24,31789.5,34659.3,-0.9252,-0.8406,149.6,97.0,0.519
25.26,31980.8,34993.7,-0.0845,-0.0189,149.6,97.0,0.519
25.28,32101.1,35330.6,0.4444,0.8088,149.6,97.0,0.519
25.3,32382.6,35692.2,1.6821,1.6974,149.6,97.0,0.519
25.32,32335.2,35706.2,1.4738,1.7318,149.6,97.0,0.519
25.34,32319.8,35678.9,1.4061,1.6647,149.6,97.0,0.519
25.36,32243.8,35411.1,1.0718,1.0067,149.6,97.0,0.519
25.38,32217.2,35239.5,0.955,0.585,149.6,97.0,0.519
25.4,32061.3,35131.2,0.2697,0.3188,149.6,97.0,0.519
25.42,31996.6,35110.7,-0.0148,0.2684,149.6,97.0,0.519
25.44,31980.4,35100.4,-0.086,0.2432,149.6,97.0,0.519
25.46,31971.0,34857.7,-0.1274,-0.3532,149.6,97.0,0.519
25.48,31975.1,34846.5,-0.1093,-0.3805,149.6,97.0,0.519
25.5,31983.6,34750.7,-0.0719,-0.616,149.6,97.0,0.519
25.52,31831.0,34689.4,-0.7431,-0.7665,149.6,97.0,0.519
25.54,31842.1,34643.6,-0.6939,-0.8791,149.6,97.0,0.519
25.56,31901.7,34569.0,-0.4319,-1.0625,149.6,97.0,0.519
25.58,31807.8,34458.0,-0.8451,-1.3351,149.6,97.0,0.519
25.6,31781.1,34506.5,-0.9624,-1.2161,149.6,97.0,0.519
25.62,31801.0,34486.9,-0.8746,-1.2642,149.6,97.0,0.519
25.64,31873.8,34638.3,-0.5547,-0.8922,149.6,97.0,0.519
25.66,31950.9,34966.2,-0.2157,-0.0865,149.6,97.0,0.519
25.68,32175.7,35399.1,0.7725,0.9772,149.6,97.0,0.519
25.7,32340.9,35680.1,1.4988,1.6675,149.6,97.0,0.519
25.72,32336.8,35819.1,1.4808,2.0091,149.6,97.0,0.519
25.74,32278.9,35655.4,1.2261,1.6068,149.6,97.0,0.519
25.76,32159.0,35466.6,0.6992,1.143,149.6,97.0,0.519
25.78,32132.8,35204.4,0.584,0.4988,149.6,97.0,0.519
25.8,32101.8,35060.7,0.4475,0.1456,149.6,97.0,0.519
25.82,32047.2,35122.1,0.2074,0.2965,149.6,97.0,0.519
25.84,31970.3,35043.2,-0.1303,0.1027,149.6,97.0,0.519
25.86,31918.3,34958.4,-0.3591,-0.1056,149.6,97.0,0.519
25.88,31950.1,34864.3,-0.2191,-0.337,149.6,97.0,0.519
25.9,31808.6,34721.6,-0.8412,-0.6875,149.6,97.0,0.519
25.92,31817.1,34717.6,-0.8042,-0.6973,149.6,97.0,0.519
25.94,31851.1,34687.1,-0.6546,-0.7724,149.6,97.0,0.519
25.96,31825.9,34696.9,-0.7654,-0.7483,149.6,97.0,0.519
25.98,31776.5,34543.0,-0.9823,-1.1263,149.6,97.0,0.519
26.0,31742.1,34418.2,-1.1337,-1.4329,149.6,97.0,0.519
26.02,31715.3,34469.2,-1.2516,-1.3076,149.6,97.0,0.519
26.04,31846.1,34600.9,-0.6767,-0.984,149.6,97.0,0.519
26.06,31969.3,34932.0,-0.1349,-0.1706,149.6,97.0,0.519
26.08,32164.7,35363.1,0.7243,0.8886,149.6,97.0,0.519
26.1,32354.8,35712.6,1.56,1.7473,149.6,97.0,0.519
26.12,32330.0,35719.5,1.4508,1.7643,149.6,97.0,0.519
26.14,32399.4,35669.4,1.7559,1.6412,149.6,97.0,0.519
26.16,32273.0,35434.5,1.2003,1.0641,149.6,97.0,0.519
26.18,32134.2,35341.4,0.59,0.8353,149.6,97.0,0.519
26.2,32095.6,35181.8,0.4203,0.4432,149.6,97.0,0.519
26.22,32055.2,35261.0,0.2428,0.6378,149.6,97.0,0.519
26.24,32009.6,35096.5,0.0423,0.2337,149.6,97.0,0.519
26.26,31879.4,34989.0,-0.53,-0.0306,149.6,97.0,0.519
26.28,31882.8,34765.1,-0.515,-0.5807,149.6,97.0,0.519
26.3,31954.7,34831.2,-0.1991,-0.4183,149.6,97.0,0.519
26.32,31873.4,34698.1,-0.5566,-0.7452,149.6,97.0,0.519
26.34,31831.2,34674.0,-0.7418,-0.8044,149.6,97.0,0.519
26.36,31896.7,34694.5,-0.4541,-0.754,149.6,97.0,0.519
26.38,31782.6,34505.3,-0.9559,-1.219,149.6,97.0,0.519
26.4,31720.2,34495.3,-1.2298,-1.2436,149.6,97.0,0.519
26.42,31734.7,34449.5,-1.1663,-1.3561,149.6,97.0,0.519
26.44,31827.9,34568.4,-0.7564,-1.064,149.6,97.0,0.519
26.46,31951.3,34923.2,-0.2141,-0.1922,149.6,97.0,0.519
26.48,32198.5,35305.7,0.8728,0.7476,149.6,97.0,0.519
26.5,32397.1,35604.3,1.746,1.4813,149.6,97.0,0.519
26.52,32356.8,35716.7,1.5689,1.7576,149.6,97.0,0.519
26.54,32346.4,35692.9,1.5228,1.699,149.6,97.0,0.519
26.56,32231.8,35566.4,1.0191,1.3881,149.6,97.0,0.519
26.58,32218.2,35192.3,0.9591,0.4689,149.6,97.0,0.519
26.6,32042.9,35075.3,0.1889,0.1816,149.6,97.0,0.519
26.62,32116.5,35001.1,0.5123,-0.0008,149.6,97.0,0.519
26.64,32005.9,35122.2,0.026,0.2969,149.6,97.0,0.519
26.66,32014.8,34978.4,0.0653,-0.0565,149.6,97.0,0.519
26.68,31926.8,34864.0,-0.3219,-0.3377,149.6,97.0,0.519
26.7,31941.2,34770.3,-0.2585,-0.5678,149.6,97.0,0.519
26.72,31856.3,34658.3,-0.6317,-0.8431,149.6,97.0,0.519
26.74,31773.3,34608.8,-0.9967,-0.9648,149.6,97.0,0.519
26.76,31847.4,34652.8,-0.6709,-0.8565,149.6,97.0,0.519
26.78,31830.8,34620.1,-0.7437,-0.9368,149.6,97.0,0.519
26.8,31676.7,34491.3,-1.4212,-1.2535,149.6,97.0,0.519
26.82,31751.2,34369.2,-1.094,-1.5533,149.6,97.0,0.519
26.84,31745.9,34598.5,-1.1172,-0.99,149.6,97.0,0.519
26.86,31963.7,34919.5,-0.1595,-0.2013,149.6,97.0,0.519
26.88,32131.9,35319.0,0.5798,0.7803,149.6,97.0,0.519
26.9,32235.2,35680.7,1.0343,1.6691,149.6,97.0,0.519
26.92,32326.9,35729.5,1.4371,1.789,149.6,97.0,0.519
26.94,32346.5,35789.8,1.5235,1.937,149.6,97.0,0.519
26.96,32307.1,35446.7,1.3501,1.0942,149.6,97.0,0.519
26.98,32036.4,35335.4,0.1603,0.8205,149.6,97.0,0.519
27.0,32024.7,35189.4,0.1087,0.462,149.6,97.0,0.519
27.02,32010.7,35011.1,0.0472,0.0237,149.6,97.0,0.519
27.04,32092.2,35005.9,0.4055,0.0111,149.6,97.0,0.519
27.06,31895.0,34882.0,-0.4616,-0.2933,149.6,97.0,0.519
27.08,31882.8,34832.4,-0.5152,-0.4152,149.6,97.0,0.519
27.1,31941.9,34701.3,-0.2554,-0.7374,149.6,97.0,0.519
27.12,31808.3,34756.4,-0.8427,-0.6019,149.6,97.0,0.519
27.14,31802.0,34669.4,-0.8704,-0.8159,149.6,97.0,0.519
27.16,31890.9,34695.3,-0.4796,-0.7521,149.6,97.0,0.519
27.18,31899.4,34597.8,-0.4421,-0.9917,149.6,97.0,0.519
27.2,31695.9,34499.0,-1.337,-1.2345,149.6,97.0,0.519
27.22,31681.2,34465.9,-1.4013,-1.3158,149.6,97.0,0.519
27.24,31840.7,34595.1,-0.7004,-0.9983,149.6,97.0,0.519
27.26,31975.7,34847.9,-0.1067,-0.3773,149.6,97.0,0.519
27.28,32162.2,35321.7,0.7131,0.787,149.6,97.0,0.519
27.3,32222.8,35628.2,0.9796,1.54,149.6,97.0,0.519
27.32,32326.1,35692.5,1.4337,1.6981,149.6,97.0,0.519
27.34,32394.7,35780.1,1.7352,1.9132,149.6,97.0,0.519
27.36,32282.9,35449.3,1.2436,1.1005,149.6,97.0,0.519
27.38,32176.4,35363.4,0.7755,0.8895,149.6,97.0,0.519
27.4,32061.3,35216.1,0.2697,0.5274,149.6,97.0,0.519
27.42,31971.5,35154.1,-0.1254,0.3753,149.6,97.0,0.519
27.44,32052.7,35064.5,0.2318,0.1549,149.6,97.0,0.519
27.46,31991.7,34949.2,-0.0363,-0.1283,149.6,97.0,0.519
27.48,31924.7,34843.9,-0.3309,-0.387,149.6,97.0,0.519
27.5,31842.7,34690.8,-0.6913,-0.7632,149.6,97.0,0.519
27.52,31903.7,34679.4,-0.4232,-0.7913,149.6,97.0,0.519
27.54,31860.5,34653.1,-0.6133,-0.8558,149.6,97.0,0.519
27.56,31852.5,34568.2,-0.6486,-1.0643,149.6,97.0,0.519
27.58,31737.5,34565.2,-1.1539,-1.0717,149.6,97.0,0.519
27.6,31704.9,34510.1,-1.2973,-1.2072,149.6,97.0,0.519
27.62,31772.1,34436.3,-1.0019,-1.3885,149.6,97.0,0.519
27.64,31846.1,34600.8,-0.6767,-0.9844,149.6,97.0,0.519
27.66,31949.5,34912.6,-0.222,-0.2181,149.6,97.0,0.519
27.68,32247.7,35365.6,1.089,0.8949,149.6,97.0,0.519
27.7,32278.6,35502.9,1.2247,1.2322,149.6,97.0,0.519
27.72,32387.8,35770.1,1.7051,1.8888,149.6,97.0,0.519
27.74,32323.3,35709.7,1.4213,1.7404,149.6,97.0,0.519
27.76,32273.7,35489.9,1.2035,1.2002,149.6,97.0,0.519
27.78,32110.3,35313.6,0.4848,0.7672,149.6,97.0,0.519
27.8,32064.9,35181.0,0.2855,0.4412,149.6,97.0,0.519
27.82,32039.3,35137.3,0.173,0.334,149.6,97.0,0.519
27.84,32039.4,35022.5,0.1732,0.0518,149.6,97.0,0.519
27.86,31881.4,34906.1,-0.5211,-0.2342,149.6,97.0,0.519
27.88,31893.3,34877.2,-0.4691,-0.3052,149.6,97.0,0.519
27.9,32040.2,34720.9,0.1767,-0.6892,149.6,97.0,0.519
27.92,31872.6,34633.9,-0.5599,-0.9029,149.6,97.0,0.519
27.94,31863.7,34614.6,-0.5993,-0.9505,149.6,97.0,0.519
27.96,31909.5,34676.7,-0.398,-0.7979,149.6,97.0,0.519
27.98,31749.7,34517.1,-1.1004,-1.1899,149.6,97.0,0.519
28.0,31722.8,34525.4,-1.2186,-1.1696,149.6,97.0,0.519
28.02,31701.1,34323.0,-1.3141,-1.6668,149.6,97.0,0.519
28.04,31847.7,34632.4,-0.6693,-0.9066,149.6,97.0,0.519
28.06,31894.4,34898.8,-0.4644,-0.252,149.6,97.0,0.519
28.08,32084.6,35250.7,0.3722,0.6124,149.6,97.0,0.519
28.1,32246.2,35544.7,1.0826,1.3348,149.6,97.0,0.519
28.12,32481.8,35799.0,2.118,1.9596,149.6,97.0,0.519
28.14,32275.4,35760.2,1.211,1.8644,149.6,97.0,0.519
28.16,32232.9,35474.7,1.0238,1.163,149.6,97.0,0.519
28.18,32152.2,35345.9,0.6692,0.8465,149.6,97.0,0.519
28.2,32019.1,35195.4,0.084,0.4766,149.6,97.0,0.519
28.22,32094.2,35175.3,0.4144,0.4272,149.6,97.0,0.519
28.24,32152.9,34953.6,0.6724,-0.1174,149.6,97.0,0.519
28.26,32034.8,34993.5,0.1531,-0.0195,149.6,97.0,0.519
28.28,31978.0,34917.5,-0.0966,-0.2062,149.6,97.0,0.519
28.3,31886.2,34798.8,-0.5003,-0.4978,149.6,97.0,0.519
28.32,31875.5,34713.1,-0.5473,-0.7084,149.6,97.0,0.519
28.34,31781.2,34657.4,-0.9618,-0.8453,149.6,97.0,0.519
28.36,31887.3,34698.0,-0.4954,-0.7456,149.6,97.0,0.519
28.38,31888.3,34586.9,-0.4911,-1.0186,149.6,97.0,0.519
28.4,31758.0,34481.5,-1.0637,-1.2775,149.6,97.0,0.519
28.42,31760.0,34496.9,-1.0551,-1.2396,149.6,97.0,0.519
28.44,31850.8,34517.6,-0.6557,-1.1888,149.6,97.0,0.519
28.46,31948.8,34902.1,-0.2251,-0.244,149.6,97.0,0.519
28.48,32102.9,35258.2,0.4525,0.631,149.6,97.0,0.519
28.5,32285.7,35508.2,1.2563,1.2451,149.6,97.0,0.519
28.52,32325.4,35840.1,1.4306,2.0607,149.6,97.0,0.519
28.54,32475.5,35739.1,2.0907,1.8126,149.6,97.0,0.519
28.56,32253.4,35579.1,1.1143,1.4195,149.6,97.0,0.519
28.58,32105.0,35319.9,0.4616,0.7827,149.6,97.0,0.519
28.6,32072.9,35196.6,0.3207,0.4796,149.6,97.0,0.519
28.62,31993.2,35155.3,-0.0297,0.378,149.6,97.0,0.519
28.64,31932.9,35076.3,-0.2947,0.1841,149.6,97.0,0.519
28.66,32024.2,35075.5,0.1066,0.1821,149.6,97.0,0.519
28.68,31886.5,34847.8,-0.499,-0.3774,149.6,97.0,0.519
28.7,31955.1,34702.1,-0.1972,-0.7354,149.6,97.0,0.519
28.72,31836.7,34697.7,-0.7177,-0.7462,149.6,97.0,0.519
28.74,31764.3,34712.6,-1.036,-0.7096,149.6,97.0,0.519
28.76,31813.9,34728.1,-0.8179,-0.6716,149.6,97.0,0.519
28.78,31890.9,34611.3,-0.4795,-0.9584,149.6,97.0,0.519
28.8,31786.2,34494.7,-0.9398,-1.245,149.6,97.0,0.519
28.82,31771.7,34479.8,-1.0035,-1.2817,149.6,97.0,0.519
28.84,31825.5,34572.2,-0.7671,-1.0546,149.6,97.0,0.519
28.86,31940.1,34818.7,-0.2631,-0.4488,149.6,97.0,0.519
28.88,32022.8,35165.8,0.1003,0.4039,149.6,97.0,0.519
28.9,32257.5,35461.3,1.1322,1.1299,149.6,97.0,0.519
28.92,32353.8,35774.2,1.5556,1.8989,149.6,97.0,0.519
28.94,32288.8,35710.7,1.2699,1.7428,149.6,97.0,0.519
28.96,32202.8,35609.7,0.8915,1.4946,149.6,97.0,0.519
28.98,32138.5,35343.9,0.6092,0.8415,149.6,97.0,0.519
29.0,32048.2,35169.7,0.2122,0.4136,149.6,97.0,0.519
29.02,32139.7,35222.7,0.6144,0.5438,149.6,97.0,0.519
29.04,31988.9,35011.3,-0.0487,0.0242,149.6,97.0,0.519
29.06,31982.8,34896.1,-0.0754,-0.2588,149.6,97.0,0.519
29.08,31861.1,34854.7,-0.6106,-0.3604,149.6,97.0,0.519
29.1,31904.3,34777.6,-0.4208,-0.5499,149.6,97.0,0.519
29.12,31945.5,34619.6,-0.2395,-0.9381,149.6,97.0,0.519
29.14,31805.6,34700.4,-0.8547,-0.7395,149.6,97.0,0.519
29.16,31854.7,34658.0,-0.6388,-0.8438,149.6,97.0,0.519
29.18,31849.4,34488.5,-0.6621,-1.2603,149.6,97.0,0.519
29.2,31690.8,34523.6,-1.3591,-1.174,149.6,97.0,0.519
29.22,31760.1,34435.7,-1.0547,-1.39,149.6,97.0,0.519
29.24,31780.7,34624.7,-0.9642,-0.9256,149.6,97.0,0.519
29.26,31852.1,34759.0,-0.6499,-0.5956,149.6,97.0,0.519
29.28,32014.2,35166.7,0.0625,0.4061,149.6,97.0,0.519
29.3,32267.9,35555.9,1.1777,1.3623,149.6,97.0,0.519
29.32,32382.3,35762.9,1.6807,1.8711,149.6,97.0,0.519
29.34,32318.2,35692.4,1.399,1.6978,149.6,97.0,0.519
29.36,32219.9,35616.4,0.9668,1.511,149.6,97.0,0.519
29.38,32180.7,35369.9,0.7946,0.9054,149.6,97.0,0.519
29.4,32097.9,35242.2,0.4303,0.5915,149.6,97.0,0.519
29.42,32122.3,35100.5,0.5376,0.2435,149.6,97.0,0.519
29.44,32052.2,35065.7,0.2296,0.158,149.6,97.0,0.519
29.46,31914.3,34987.2,-0.3766,-0.0348,149.6,97.0,0.519
29.48,31980.3,34899.9,-0.0867,-0.2494,149.6,97.0,0.519
29.5,31935.9,34803.2,-0.2817,-0.487,149.6,97.0,0.519
29.52,31860.3,34736.9,-0.6142,-0.65,149.6,97.0,0.519
29.54,31779.7,34737.2,-0.9687,-0.6491,149.6,97.0,0.519
29.56,31783.0,34630.6,-0.954,-0.9112,149.6,97.0,0.519
29.58,31770.8,34643.8,-1.0074,-0.8787,149.6,97.0,0.519
29.6,31743.3,34513.1,-1.1285,-1.1998,149.6,97.0,0.519
29.62,31761.3,34364.5,-1.0491,-1.5648,149.6,97.0,0.519
29.64,31821.5,34535.7,-0.7848,-1.1443,149.6,97.0,0.519
29.66,31926.7,34735.1,-0.322,-0.6543,149.6,97.0,0.519
29.68,32080.0,35086.9,0.3517,0.21,149.6,97.0,0.519
29.7,32249.2,35524.1,1.0958,1.2841,149.6,97.0,0.519
29.72,32365.5,35722.4,1.6071,1.7716,149.6,97.0,0.519
29.74,32305.1,35705.4,1.3412,1.7298,149.6,97.0,0.519
29.76,32286.1,35613.1,1.2579,1.503,149.6,97.0,0.519
29.78,32155.0,35360.6,0.6817,0.8826,149.6,97.0,0.519
29.8,32050.8,35257.3,0.2233,0.6287,149.6,97.0,0.519
29.82,32061.4,35128.9,0.2701,0.3132,149.6,97.0,0.519
29.84,31984.1,35168.1,-0.0698,0.4096,149.6,97.0,0.519
29.86,32004.2,34974.0,0.0184,-0.0672,149.6,97.0,0.519
29.88,31871.4,34899.1,-0.5652,-0.2514,149.6,97.0,0.519
29.9,31804.3,34781.2,-0.8605,-0.541,149.6,97.0,0.519
29.92,31840.9,34671.8,-0.6993,-0.8099,149.6,97.0,0.519
29.94,31937.6,34679.9,-0.2742,-0.79,149.6,97.0,0.519
29.96,31905.0,34703.8,-0.4174,-0.7313,149.6,97.0,0.519
29.98,31784.5,34529.4,-0.9472,-1.1596,149.6,97.0,0.519
30.0,31771.2,34479.6,-1.0056,-1.282,149.6,97.0,0.519
30.02,31850.1,34406.8,-0.6592,-1.461,149.6,97.0,0.519
30.04,31716.4,34412.2,-1.2469,-1.4477,149.6,97.0,0.519
30.06,31839.5,34782.4,-0.7057,-0.5381,149.6,97.0,0.519
30.08,32066.2,35164.9,0.2909,0.4017,149.6,97.0,0.519
30.1,32196.2,35470.8,0.8626,1.1532,149.6,97.0,0.519
30.12,32311.6,35628.2,1.3698,1.54,149.6,97.0,0.519
30.14,32397.6,35753.9,1.748,1.8488,149.6,97.0,0.519
30.16,32286.9,35570.1,1.2614,1.3972,149.6,97.0,0.519
30.18,32165.1,35385.3,0.7261,0.9432,149.6,97.0,0.519
30.2,32167.7,35169.6,0.7375,0.4133,149.6,97.0,0.519
30.22,32017.7,35144.1,0.0777,0.3506,149.6,97.0,0.519
30.24,31944.1,35088.7,-0.2457,0.2144,149.6,97.0,0.519
30.26,32055.9,34998.3,0.2459,-0.0076,149.6,97.0,0.519
30.28,31843.1,34923.5,-0.6899,-0.1914,149.6,97.0,0.519
30.3,31946.3,34817.3,-0.2361,-0.4525,149.6,97.0,0.519
30.32,31821.4,34715.8,-0.785,-0.7018,149.6,97.0,0.519
30.34,31846.8,34668.9,-0.6737,-0.817,149.6,97.0,0.519
30.36,31859.1,34634.5,-0.6194,-0.9015,149.6,97.0,0.519
30.38,31742.7,34638.4,-1.131,-0.892,149.6,97.0,0.519
30.4,31723.5,34516.5,-1.2154,-1.1913,149.6,97.0,0.519
30.42,31754.7,34490.0,-1.0782,-1.2566,149.6,97.0,0.519
30.44,31792.6,34487.4,-0.9117,-1.263,149.6,97.0,0.519
30.46,31884.9,34801.2,-0.5058,-0.4919,149.6,97.0,0.519
30.48,32105.6,35084.8,0.4644,0.2049,149.6,97.0,0.519
30.5,32153.6,35502.5,0.6752,1.2313,149.6,97.0,0.519
30.52,32292.0,35738.5,1.2837,1.811,149.6,97.0,0.519
30.54,32302.6,35730.4,1.3304,1.7912,149.6,97.0,0.519
30.56,32301.8,35643.4,1.3268,1.5773,149.6,97.0,0.519
30.58,32157.1,35317.2,0.6906,0.7758,149.6,97.0,0.519
30.6,32065.3,35180.7,0.2872,0.4405,149.6,97.0,0.519
30.62,32141.4,35169.4,0.6218,0.4126,149.6,97.0,0.519
30.64,32118.0,35098.5,0.5189,0.2385,149.6,97.0,0.519
30.66,31980.9,34977.5,-0.0839,-0.0587,149.6,97.0,0.519
30.68,31942.8,34947.6,-0.2515,-0.1323,149.6,97.0,0.519
30.7,31948.6,34798.6,-0.2258,-0.4982,149.6,97.0,0.519
30.72,31859.3,34662.6,-0.6186,-0.8324,149.6,97.0,0.519
30.74,32051.7,34710.4,0.2274,-0.715,149.6,97.0,0.519
30.76,31844.2,34732.9,-0.685,-0.6597,149.6,97.0,0.519
30.78,31829.2,34610.4,-0.7509,-0.9607,149.6,97.0,0.519
30.8,31787.0,34580.3,-0.9363,-1.0348,149.6,97.0,0.519
30.82,31682.6,34447.9,-1.3955,-1.36,149.6,97.0,0.519
30.84,31732.4,34527.1,-1.1765,-1.1653,149.6,97.0,0.519
30.86,31880.0,34669.3,-0.5275,-0.8161,149.6,97.0,0.519
30.88,31910.9,35110.7,-0.3916,0.2684,149.6,97.0,0.519
30.9,32231.9,35433.2,1.0198,1.061,149.6,97.0,0.519
30.92,32246.9,35675.7,1.0853,1.6567,149.6,97.0,0.519
30.94,32358.0,35762.9,1.574,1.871,149.6,97.0,0.519
30.96,32312.3,35641.8,1.373,1.5735,149.6,97.0,0.519
30.98,32121.8,35448.7,0.5355,1.099,149.6,97.0,0.519
31.0,32032.7,35321.3,0.1437,0.786,149.6,97.0,0.519
31.02,32038.6,35158.6,0.1698,0.3862,149.6,97.0,0.519
31.04,31968.2,35032.8,-0.1395,0.077,149.6,97.0,0.519
31.06,32022.7,35038.4,0.1,0.0909,149.6,97.0,0.519
31.08,31973.7,34850.3,-0.1157,-0.3712,149.6,97.0,0.519
31.1,31957.5,34781.7,-0.1869,-0.5399,149.6,97.0,0.519
31.12,31836.0,34798.1,-0.7211,-0.4995,149.6,97.0,0.519
31.14,31852.5,34701.3,-0.6483,-0.7373,149.6,97.0,0.519
31.16,31707.5,34695.8,-1.286,-0.751,149.6,97.0,0.519
31.18,31832.3,34612.8,-0.7374,-0.9549,149.6,97.0,0.519
31.2,31789.9,34541.7,-0.9235,-1.1296,149.6,97.0,0.519
31.22,31737.9,34433.2,-1.1522,-1.396,149.6,97.0,0.519
31.24,31743.2,34554.0,-1.129,-1.0994,149.6,97.0,0.519
31.26,31920.2,34630.1,-0.3506,-0.9124,149.6,97.0,0.519
31.28,31909.3,35050.6,-0.3986,0.1207,149.6,97.0,0.519
31.3,32212.8,35433.2,0.9356,1.061,149.6,97.0,0.519
31.32,32264.4,35745.5,1.1623,1.8283,149.6,97.0,0.519
31.34,32390.1,35799.9,1.7151,1.9619,149.6,97.0,0.519
31.36,32227.8,35520.2,1.0015,1.2748,149.6,97.0,0.519
31.38,32131.6,35446.3,0.5785,1.0931,149.6,97.0,0.519
31.4,32108.3,35248.8,0.4761,0.6079,149.6,97.0,0.519
31.42,32024.2,35124.5,0.1063,0.3023,149.6,97.0,0.519
31.44,32079.1,35078.3,0.348,0.1889,149.6,97.0,0.519
31.46,32040.5,34977.9,0.1781,-0.0576,149.6,97.0,0.519
31.48,32010.8,34840.3,0.0478,-0.3959,149.6,97.0,0.519
31.5,31888.0,34722.8,-0.4922,-0.6845,149.6,97.0,0.519
31.52,31955.8,34713.8,-0.1941,-0.7066,149.6,97.0,0.519
31.54,31758.9,34755.9,-1.06,-0.6031,149.6,97.0,0.519
31.56,31771.5,34570.4,-1.0047,-1.059,149.6,97.0,0.519
31.58,31839.7,34560.2,-0.7044,-1.0841,149.6,97.0,0.519
31.6,31868.0,34469.2,-0.5802,-1.3077,149.6,97.0,0.519
31.62,31756.8,34489.0,-1.0693,-1.2591,149.6,97.0,0.519
31.64,31687.0,34466.1,-1.3762,-1.3152,149.6,97.0,0.519
31.66,31847.7,34579.2,-0.6695,-1.0373,149.6,97.0,0.519
31.68,32064.0,35079.3,0.2815,0.1914,149.6,97.0,0.519
31.7,32258.4,35411.5,1.1361,1.0076,149.6,97.0,0.519
31.72,32295.1,35723.2,1.2975,1.7735,149.6,97.0,0.519
31.74,32329.3,35684.4,1.4476,1.6782,149.6,97.0,0.519
31.76,32334.2,35662.7,1.4694,1.6247,149.6,97.0,0.519
31.78,32187.5,35518.7,0.8242,1.271,149.6,97.0,0.519
31.8,32146.0,35254.3,0.6417,0.6212,149.6,97.0,0.519
31.82,32008.2,35133.2,0.0363,0.3239,149.6,97.0,0.519
31.84,32053.0,35058.9,0.233,0.1412,149.6,97.0,0.519
31.86,32019.7,35045.7,0.0866,0.1089,149.6,97.0,0.519
31.88,31967.3,34918.0,-0.1439,-0.2048,149.6,97.0,0.519
31.9,31895.4,34751.4,-0.46,-0.6142,149.6,97.0,0.519
31.92,31893.6,34747.6,-0.4676,-0.6236,149.6,97.0,0.519
31.94,31944.2,34804.9,-0.2455,-0.4829,149.6,97.0,0.519
31.96,31856.3,34544.5,-0.6318,-1.1227,149.6,97.0,0.519
31.98,31786.8,34576.2,-0.9372,-1.0447,149.6,97.0,0.519
32.0,31765.2,34532.3,-1.032,-1.1526,149.6,97.0,0.519
32.02,31778.1,34512.1,-0.9753,-1.2023,149.6,97.0,0.519
32.04,31758.9,34430.5,-1.06,-1.4027,149.6,97.0,0.519
32.06,31790.1,34688.6,-0.9227,-0.7686,149.6,97.0,0.519
32.08,32007.6,35067.8,0.0336,0.1632,149.6,97.0,0.519
32.1,32164.1,35373.4,0.7215,0.9139,149.6,97.0,0.519
32.12,32304.3,35626.9,1.3377,1.5368,149.6,97.0,0.519
32.14,32360.4,35761.5,1.5845,1.8676,149.6,97.0,0.519
32.16,32309.1,35667.5,1.3589,1.6366,149.6,97.0,0.519
32.18,32268.5,35502.2,1.1805,1.2305,149.6,97.0,0.519
32.2,32159.4,35236.1,0.701,0.5766,149.6,97.0,0.519
32.22,32017.7,35187.3,0.0779,0.4567,149.6,97.0,0.519
32.24,31975.6,35106.8,-0.1071,0.2589,149.6,97.0,0.519
32.26,31934.7,35047.0,-0.2871,0.112,149.6,97.0,0.519
32.28,31971.1,35008.9,-0.1272,0.0184,149.6,97.0,0.519
32.3,31873.8,34793.8,-0.5546,-0.5101,149.6,97.0,0.519
32.32,31865.6,34765.7,-0.5907,-0.5792,149.6,97.0,0.519
32.34,31829.0,34642.3,-0.7519,-0.8823,149.6,97.0,0.519
32.36,31850.0,34684.2,-0.6592,-0.7795,149.6,97.0,0.519
32.38,31802.5,34600.9,-0.8682,-0.984,149.6,97.0,0.519
32.4,31821.1,34565.9,-0.7864,-1.07,149.6,97.0,0.519
32.42,31762.4,34486.2,-1.0447,-1.2658,149.6,97.0,0.519
32.44,31697.4,34468.3,-1.3304,-1.31,149.6,97.0,0.519
32.46,31788.2,34713.1,-0.9313,-0.7084,149.6,97.0,0.519
32.48,32035.8,34924.9,0.1573,-0.188,149.6,97.0,0.519
32.5,32199.8,35431.4,0.8785,1.0566,149.6,97.0,0.519
32.52,32294.6,35686.5,1.2952,1.6832,149.6,97.0,0.519
32.54,32410.3,35773.6,1.8041,1.8974,149.6,97.0,0.519
32.56,32312.9,35669.3,1.3758,1.6411,149.6,97.0,0.519
32.58,32290.9,35428.0,1.2789,1.0482,149.6,97.0,0.519
32.6,32101.9,35260.4,0.448,0.6364,149.6,97.0,0.519
32.62,32003.9,35217.0,0.0174,0.5297,149.6,97.0,0.519
32.64,32004.0,35071.8,0.0178,0.173,149.6,97.0,0.519
32.66,31960.5,35032.4,-0.1736,0.076,149.6,97.0,0.519
32.68,31963.2,34924.4,-0.1618,-0.1892,149.6,97.0,0.519
32.7,31947.1,34769.0,-0.2325,-0.5711,149.6,97.0,0.519
32.72,31819.9,34716.4,-0.7917,-0.7004,149.6,97.0,0.519
32.74,31859.4,34707.4,-0.6181,-0.7224,149.6,97.0,0.519
32.76,31896.5,34658.3,-0.4548,-0.843,149.6,97.0,0.519
32.78,31833.8,34649.4,-0.7307,-0.8649,149.6,97.0,0.519
32.8,31739.7,34537.9,-1.1441,-1.1388,149.6,97.0,0.519
32.82,31682.9,34478.0,-1.3941,-1.2861,149.6,97.0,0.519
32.84,31730.3,34446.9,-1.1858,-1.3625,149.6,97.0,0.519
32.86,31826.3,34565.1,-0.7635,-1.0719,149.6,97.0,0.519
32.88,31916.8,34958.5,-0.3657,-0.1055,149.6,97.0,0.519
32.9,32248.5,35335.3,1.0926,0.8203,149.6,97.0,0.519
32.92,32352.4,35718.5,1.5493,1.762,149.6,97.0,0.519
32.94,32350.9,35834.2,1.5429,2.0461,149.6,97.0,0.519
32.96,32308.4,35697.8,1.3559,1.7111,149.6,97.0,0.519
32.98,32246.3,35525.8,1.0831,1.2884,149.6,97.0,0.519
33.0,32179.6,35290.8,0.7899,0.711,149.6,97.0,0.519
33.02,32148.7,35199.4,0.6538,0.4865,149.6,97.0,0.519
33.04,32116.5,35179.7,0.5122,0.438,149.6,97.0,0.519
33.06,32098.3,35066.0,0.4323,0.1587,149.6,97.0,0.519
33.08,31977.1,34990.0,-0.1006,-0.0281,149.6,97.0,0.519
33.1,31983.1,34891.9,-0.0743,-0.2691,149.6,97.0,0.519
33.12,31909.1,34685.8,-0.3997,-0.7754,149.6,97.0,0.519
33.14,31771.7,34744.1,-1.0037,-0.6323,149.6,97.0,0.519
33.16,31854.2,34653.5,-0.641,-0.8547,149.6,97.0,0.519
33.18,31784.3,34603.0,-0.9481,-0.979,149.6,97.0,0.519
33.2,31782.1,34475.4,-0.9579,-1.2925,149.6,97.0,0.519
33.22,31736.6,34486.7,-1.1579,-1.2646,149.6,97.0,0.519
33.24,31706.4,34408.2,-1.2907,-1.4576,149.6,97.0,0.519
33.26,31787.1,34735.1,-0.9359,-0.6544,149.6,97.0,0.519
33.28,31962.6,34887.5,-0.1644,-0.2798,149.6,97.0,0.519
33.3,32140.0,35398.6,0.6154,0.9759,149.6,97.0,0.519
33.32,32411.7,35670.3,1.8098,1.6435,149.6,97.0,0.519
33.34,32365.1,35702.4,1.6053,1.7225,149.6,97.0,0.519
33.36,32393.4,35651.4,1.7298,1.597,149.6,97.0,0.519
33.38,32213.4,35455.8,0.9382,1.1166,149.6,97.0,0.519
33.4,32085.4,35341.2,0.3756,0.8349,149.6,97.0,0.519
33.42,32052.8,35132.1,0.2321,0.321,149.6,97.0,0.519
33.44,32072.9,34975.1,0.3206,-0.0647,149.6,97.0,0.519
33.46,32040.4,34995.1,0.1775,-0.0154,149.6,97.0,0.519
33.48,32049.8,34809.5,0.2189,-0.4715,149.6,97.0,0.519
33.5,31906.0,34895.2,-0.4132,-0.2609,149.6,97.0,0.519
33.52,31889.2,34670.7,-0.4872,-0.8126,149.6,97.0,0.519
33.54,31868.3,34698.3,-0.5788,-0.7449,149.6,97.0,0.519
33.56,31811.9,34658.2,-0.8271,-0.8434,149.6,97.0,0.519
33.58,31855.0,34655.9,-0.6374,-0.8488,149.6,97.0,0.519
33.6,31754.9,34586.3,-1.0777,-1.0199,149.6,97.0,0.519
33.62,31725.1,34514.3,-1.2086,-1.1969,149.6,97.0,0.519
33.64,31653.1,34464.1,-1.5251,-1.3201,149.6,97.0,0.519
33.66,31757.0,34680.0,-1.0683,-0.7896,149.6,97.0,0.519
33.68,32030.4,34925.6,0.1336,-0.1863,149.6,97.0,0.519
33.7,32226.2,35409.9,0.9947,1.0036,149.6,97.0,0.519
33.72,32295.9,35600.9,1.301,1.4729,149.6,97.0,0.519
33.74,32399.4,35826.6,1.756,2.0276,149.6,97.0,0.519
33.76,32318.2,35660.6,1.3992,1.6196,149.6,97.0,0.519
33.78,32315.0,35380.1,1.385,0.9305,149.6,97.0,0.519
33.8,32092.7,35241.7,0.4077,0.5903,149.6,97.0,0.519
33.82,32128.9,35229.9,0.567,0.5614,149.6,97.0,0.519
33.84,32019.7,35048.9,0.0866,0.1166,149.6,97.0,0.519
33.86,31954.5,34963.0,-0.2,-0.0943,149.6,97.0,0.519
33.88,31961.2,34949.0,-0.1706,-0.1288,149.6,97.0,0.519
33.9,31896.4,34849.6,-0.4552,-0.3729,149.6,97.0,0.519
33.92,31882.0,34743.0,-0.5187,-0.635,149.6,97.0,0.519
33.94,31985.1,34686.5,-0.0656,-0.7738,149.6,97.0,0.519
33.96,31827.1,34653.9,-0.7601,-0.8538,149.6,97.0,0.519
33.98,31743.9,34697.5,-1.1259,-0.7466,149.6,97.0,0.519
34.0,31762.9,34552.9,-1.0422,-1.1021,149.6,97.0,0.519
34.02,31705.4,34454.4,-1.2952,-1.3441,149.6,97.0,0.519
34.04,31715.6,34539.0,-1.2501,-1.136,149.6,97.0,0.519
34.06,31820.5,34628.3,-0.7891,-0.9167,149.6,97.0,0.519
34.08,31893.9,34887.0,-0.4665,-0.2812,149.6,97.0,0.519
34.1,32246.1,35289.4,1.082,0.7075,149.6,97.0,0.519
34.12,32286.8,35661.5,1.2607,1.6218,149.6,97.0,0.519
34.14,32333.7,35813.3,1.467,1.9949,149.6,97.0,0.519
34.16,32318.3,35638.6,1.3993,1.5655,149.6,97.0,0.519
34.18,32206.2,35495.5,0.9067,1.214,149.6,97.0,0.519
34.2,32073.1,35237.0,0.3215,0.5789,149.6,97.0,0.519
34.22,32022.7,35175.9,0.0998,0.4288,149.6,97.0,0.519
34.24,32027.6,35144.2,0.1213,0.3509,149.6,97.0,0.519
34.26,32066.0,35036.2,0.2903,0.0856,149.6,97.0,0.519
34.28,31934.6,34896.9,-0.2873,-0.2567,149.6,97.0,0.519
34.3,31877.4,34786.2,-0.5389,-0.5289,149.6,97.0,0.519
34.32,31782.8,34670.7,-0.9549,-0.8127,149.6,97.0,0.519
34.34,31801.6,34653.1,-0.8722,-0.8558,149.6,97.0,0.519
34.36,31775.6,34656.5,-0.9863,-0.8473,149.6,97.0,0.519
34.38,31831.9,34639.8,-0.7391,-0.8886,149.6,97.0,0.519
34.4,31735.8,34506.2,-1.1615,-1.2168,149.6,97.0,0.519
34.42,31794.2,34543.0,-0.9046,-1.1262,149.6,97.0,0.519
34.44,31780.3,34440.0,-0.9657,-1.3793,149.6,97.0,0.519
34.46,31803.8,34578.1,-0.8626,-1.0402,149.6,97.0,0.519
34.48,31898.3,34849.3,-0.447,-0.3739,149.6,97.0,0.519
34.5,32129.6,35288.8,0.5698,0.7061,149.6,97.0,0.519
34.52,32287.8,35620.5,1.2654,1.5211,149.6,97.0,0.519
34.54,32387.8,35742.2,1.705,1.8202,149.6,97.0,0.519
34.56,32271.6,35729.9,1.1942,1.79,149.6,97.0,0.519
34.58,32195.5,35537.8,0.8594,1.3178,149.6,97.0,0.519
34.6,32090.4,35263.0,0.3976,0.6427,149.6,97.0,0.519
34.62,32158.5,35113.5,0.6969,0.2753,149.6,97.0,0.519
34.64,32056.9,35044.5,0.2503,0.106,149.6,97.0,0.519
34.66,31955.6,35081.1,-0.1953,0.1957,149.6,97.0,0.519
34.68,31917.9,35029.3,-0.361,0.0686,149.6,97.0,0.519
34.7,31904.0,34928.1,-0.4218,-0.1802,149.6,97.0,0.519
34.72,31822.1,34750.6,-0.7821,-0.6161,149.6,97.0,0.519
34.74,31828.7,34695.5,-0.7532,-0.7516,149.6,97.0,0.519
34.76,31829.3,34679.2,-0.7502,-0.7917,149.6,97.0,0.519
34.78,31859.8,34656.6,-0.6161,-0.8473,149.6,97.0,0.519
34.8,31789.0,34547.3,-0.9275,-1.1158,149.6,97.0,0.519
34.82,31745.1,34501.8,-1.1204,-1.2275,149.6,97.0,0.519
34.84,31658.3,34330.7,-1.5021,-1.648,149.6,97.0,0.519
34.86,31773.8,34708.1,-0.9945,-0.7206,149.6,97.0,0.519
34.88,31916.4,34795.1,-0.3675,-0.5069,149.6,97.0,0.519
34.9,32039.3,35267.6,0.1731,0.6541,149.6,97.0,0.519
34.92,32369.5,35621.6,1.6244,1.5238,149.6,97.0,0.519
34.94,32399.6,35762.7,1.7571,1.8705,149.6,97.0,0.519
34.96,32348.1,35641.5,1.5305,1.5727,149.6,97.0,0.519
34.98,32215.3,35556.2,0.9467,1.3631,149.6,97.0,0.519
35.0,32111.2,35244.1,0.4891,0.5963,149.6,97.0,0.519
35.02,31970.6,35146.8,-0.1291,0.3573,149.6,97.0,0.519
35.04,32080.1,35138.1,0.3523,0.3358,149.6,97.0,0.519
35.06,32040.9,34995.3,0.1799,-0.015,149.6,97.0,0.519
35.08,31953.9,34864.3,-0.2026,-0.337,149.6,97.0,0.519
35.1,31920.0,34898.1,-0.3515,-0.2538,149.6,97.0,0.519
35.12,31853.7,34674.7,-0.6431,-0.8027,149.6,97.0,0.519
35.14,31903.0,34729.2,-0.4266,-0.6687,149.6,97.0,0.519
35.16,31846.1,34696.4,-0.6764,-0.7493,149.6,97.0,0.519
35.18,31815.1,34720.9,-0.8127,-0.6892,149.6,97.0,0.519
35.2,31811.7,34563.3,-0.8278,-1.0764,149.6,97.0,0.519
35.22,31856.9,34526.3,-0.629,-1.1673,149.6,97.0,0.519
35.24,31705.2,34508.4,-1.2958,-1.2114,149.6,97.0,0.519
35.26,31712.5,34573.7,-1.2638,-1.0508,149.6,97.0,0.519
35.28,31969.7,34925.3,-0.1332,-0.1871,149.6,97.0,0.519
35.3,32195.5,35146.1,0.8595,0.3555,149.6,97.0,0.519
35.32,32339.9,35573.4,1.4946,1.4054,149.6,97.0,0.519
35.34,32463.7,35817.4,2.0385,2.005,149.6,97.0,0.519
35.36,32366.0,35714.3,1.6092,1.7516,149.6,97.0,0.519
35.38,32244.2,35505.9,1.0738,1.2396,149.6,97.0,0.519
35.4,32210.4,35303.7,0.9251,0.7427,149.6,97.0,0.519
35.42,32128.8,35188.7,0.5665,0.4602,149.6,97.0,0.519
35.44,32072.2,35083.6,0.3174,0.2018,149.6,97.0,0.519
35.46,32042.2,35065.7,0.1856,0.158,149.6,97.0,0.519
35.48,31946.1,35058.8,-0.2368,0.141,149.6,97.0,0.519
35.5,31941.9,34858.9,-0.2553,-0.3501,149.6,97.0,0.519
35.52,31850.8,34793.8,-0.656,-0.51,149.6,97.0,0.519
35.54,31852.9,34756.9,-0.6468,-0.6007,149.6,97.0,0.519
35.56,31684.1,34672.5,-1.3887,-0.808,149.6,97.0,0.519
35.58,31868.8,34593.2,-0.5766,-1.0031,149.6,97.0,0.519
35.6,31771.8,34666.5,-1.0032,-0.8228,149.6,97.0,0.519
35.62,31813.5,34501.6,-0.8196,-1.2281,149.6,97.0,0.519
35.64,31720.9,34407.6,-1.2268,-1.4591,149.6,97.0,0.519
35.66,31805.7,34534.2,-0.8543,-1.1479,149.6,97.0,0.519
35.68,31875.4,34825.5,-0.5476,-0.4323,149.6,97.0,0.519
35.7,32129.1,35230.9,0.5676,0.5639,149.6,97.0,0.519
35.72,32264.3,35608.4,1.162,1.4915,149.6,97.0,0.519
35.74,32371.8,35720.9,1.6347,1.7678,149.6,97.0,0.519
35.76,32421.7,35663.2,1.854,1.626,149.6,97.0,0.519
35.78,32266.2,35589.9,1.1705,1.4459,149.6,97.0,0.519
35.8,32121.0,35369.7,0.5319,0.9049,149.6,97.0,0.519
35.82,32073.5,35196.7,0.3233,0.4798,149.6,97.0,0.519
35.84,31904.3,35204.7,-0.4205,0.4994,149.6,97.0,0.519
35.86,31974.5,35171.0,-0.1118,0.4167,149.6,97.0,0.519
35.88,31947.4,34986.4,-0.2314,-0.037,149.6,97.0,0.519
35.9,31971.3,34806.0,-0.1262,-0.4801,149.6,97.0,0.519
35.92,31890.8,34806.3,-0.4802,-0.4794,149.6,97.0,0.519
35.94,31832.2,34669.3,-0.7374,-0.8159,149.6,97.0,0.519
35.96,31834.8,34687.4,-0.7262,-0.7716,149.6,97.0,0.519
35.98,31860.3,34669.6,-0.6141,-0.8153,149.6,97.0,0.519
36.0,31834.1,34581.0,-0.7294,-1.0329,149.6,97.0,0.519
36.02,31768.0,34526.7,-1.02,-1.1663,149.6,97.0,0.519
36.04,31677.3,34488.6,-1.4187,-1.26,149.6,97.0,0.519
36.06,31750.4,34525.0,-1.0972,-1.1706,149.6,97.0,0.519
36.08,31999.0,34770.4,-0.0042,-0.5675,149.6,97.0,0.519
36.1,32074.8,35264.7,0.3289,0.6468,149.6,97.0,0.519
36.12,32353.6,35551.7,1.5546,1.352,149.6,97.0,0.519
36.14,32295.9,35730.4,1.3011,1.7912,149.6,97.0,0.519
36.16,32353.2,35707.7,1.5528,1.7355,149.6,97.0,0.519
36.18,32362.2,35536.3,1.5925,1.3143,149.6,97.0,0.519
36.2,32149.2,35374.4,0.6559,0.9165,149.6,97.0,0.519
36.22,32110.3,35198.8,0.4851,0.4849,149.6,97.0,0.519
36.24,32009.9,35067.1,0.0436,0.1614,149.6,97.0,0.519
36.26,32005.6,35078.7,0.0247,0.1899,149.6,97.0,0.519
36.28,31941.4,34885.1,-0.2576,-0.2857,149.6,97.0,0.519
36.3,31958.0,34871.1,-0.1845,-0.3201,149.6,97.0,0.519
36.32,31933.8,34769.9,-0.2908,-0.5689,149.6,97.0,0.519
36.34,31842.7,34665.1,-0.6914,-0.8264,149.6,97.0,0.519
36.36,31757.2,34692.8,-1.0675,-0.7582,149.6,97.0,0.519
36.38,31759.3,34579.5,-1.0582,-1.0366,149.6,97.0,0.519
36.4,31816.5,34548.9,-0.8066,-1.112,149.6,97.0,0.519
36.42,31823.8,34543.6,-0.7746,-1.125,149.6,97.0,0.519
36.44,31775.8,34410.7,-0.9857,-1.4514,149.6,97.0,0.519
36.46,31705.9,34487.8,-1.2931,-1.2618,149.6,97.0,0.519
36.48,31919.5,34730.4,-0.3538,-0.6659,149.6,97.0,0.519
36.5,32065.9,35229.4,0.2896,0.5601,149.6,97.0,0.519
36.52,32237.5,35473.6,1.044,1.1601,149.6,97.0,0.519
36.54,32424.0,35820.8,1.8643,2.0133,149.6,97.0,0.519
36.56,32370.2,35776.4,1.6276,1.9041,149.6,97.0,0.519
36.58,32238.0,35638.7,1.0462,1.5658,149.6,97.0,0.519
36.6,32222.2,35303.1,0.9768,0.7413,149.6,97.0,0.519
36.62,32109.4,35168.0,0.4811,0.4093,149.6,97.0,0.519
36.64,32112.3,35125.0,0.4938,0.3037,149.6,97.0,0.519
36.66,31980.8,35064.6,-0.0845,0.1554,149.6,97.0,0.519
36.68,31997.2,34926.9,-0.0123,-0.183,149.6,97.0,0.519
36.7,32100.1,34889.1,0.4402,-0.2758,149.6,97.0,0.519
36.72,31888.5,34799.3,-0.4902,-0.4967,149.6,97.0,0.519
36.74,31828.4,34708.8,-0.7545,-0.719,149.6,97.0,0.519
36.76,31719.0,34774.3,-1.2355,-0.5581,149.6,97.0,0.519
36.78,31928.0,34558.8,-0.3164,-1.0874,149.6,97.0,0.519
36.8,31853.4,34554.0,-0.6446,-1.0993,149.6,97.0,0.519
36.82,31669.0,34470.5,-1.4553,-1.3044,149.6,97.0,0.519
36.84,31756.0,34457.2,-1.0727,-1.3372,149.6,97.0,0.519
36.86,31828.5,34508.6,-0.7541,-1.2107,149.6,97.0,0.519
36.88,31989.5,34791.5,-0.046,-0.5158,149.6,97.0,0.519
36.9,32094.2,35161.8,0.4141,0.3942,149.6,97.0,0.519
36.92,32226.6,35546.0,0.9965,1.338,149.6,97.0,0.519
36.94,32405.7,35643.1,1.7837,1.5767,149.6,97.0,0.519
36.96,32325.1,35701.8,1.4295,1.721,149.6,97.0,0.519
36.98,32342.0,35553.3,1.5037,1.3561,149.6,97.0,0.519
37.0,32134.4,35361.6,0.5908,0.8851,149.6,97.0,0.519
37.02,32052.6,35260.2,0.2312,0.6358,149.6,97.0,0.519
37.04,32113.1,35097.8,0.4973,0.2369,149.6,97.0,0.519
37.06,32079.6,35150.3,0.3499,0.3658,149.6,97.0,0.519
37.08,31962.3,35062.1,-0.1657,0.1491,149.6,97.0,0.519
37.1,31960.3,34987.4,-0.1743,-0.0344,149.6,97.0,0.519
37.12,31943.7,34833.0,-0.2475,-0.4138,149.6,97.0,0.519
37.14,31778.0,34626.1,-0.976,-0.9221,149.6,97.0,0.519
37.16,31815.2,34628.8,-0.8123,-0.9155,149.6,97.0,0.519
37.18,31800.3,34630.7,-0.8778,-0.9108,149.6,97.0,0.519
37.2,31844.8,34531.8,-0.6822,-1.154,149.6,97.0,0.519
37.22,31820.5,34563.9,-0.7892,-1.0751,149.6,97.0,0.519
37.24,31710.8,34501.1,-1.2714,-1.2294,149.6,97.0,0.519
37.26,31710.9,34535.7,-1.2708,-1.1442,149.6,97.0,0.519
37.28,31874.2,34731.7,-0.5531,-0.6626,149.6,97.0,0.519
37.3,32008.6,35101.1,0.0378,0.245,149.6,97.0,0.519
37.32,32195.2,35449.5,0.8582,1.1011,149.6,97.0,0.519
37.34,32198.4,35696.5,0.8722,1.708,149.6,97.0,0.519
37.36,32364.2,35760.7,1.6013,1.8656,149.6,97.0,0.519
37.38,32335.2,35623.6,1.4735,1.5288,149.6,97.0,0.519
37.4,32155.1,35378.4,0.6821,0.9262,149.6,97.0,0.519
37.42,32072.4,35192.6,0.3182,0.4699,149.6,97.0,0.519
37.44,32063.3,35150.7,0.2784,0.3668,149.6,97.0,0.519
37.46,32094.8,35116.7,0.4167,0.2833,149.6,97.0,0.519
37.48,31933.7,34993.3,-0.2914,-0.0199,149.6,97.0,0.519
37.5,31904.2,34872.2,-0.4213,-0.3175,149.6,97.0,0.519
37.52,31799.5,34781.2,-0.8813,-0.5411,149.6,97.0,0.519
37.54,31840.1,34683.8,-0.7028,-0.7805,149.6,97.0,0.519
37.56,31775.7,34695.6,-0.9861,-0.7513,149.6,97.0,0.519
37.58,31867.6,34713.2,-0.5821,-0.7082,149.6,97.0,0.519
37.6,31827.2,34669.7,-0.7597,-0.8149,149.6,97.0,0.519
37.62,31784.4,34503.0,-0.9479,-1.2246,149.6,97.0,0.519
37.64,31740.0,34405.3,-1.143,-1.4645,149.6,97.0,0.519
37.66,31802.9,34488.9,-0.8664,-1.2594,149.6,97.0,0.519
37.68,31862.4,34749.2,-0.605,-0.6197,149.6,97.0,0.519
37.7,31915.5,35109.2,-0.3714,0.2647,149.6,97.0,0.519
37.72,32269.9,35500.0,1.1868,1.225,149.6,97.0,0.519
37.74,32404.0,35685.6,1.7763,1.6812,149.6,97.0,0.519
37.76,32294.3,35721.4,1.2938,1.7691,149.6,97.0,0.519
37.78,32265.3,35696.9,1.1664,1.7088,149.6,97.0,0.519
37.8,32167.0,35325.9,0.7341,0.7974,149.6,97.0,0.519
37.82,32041.5,35238.5,0.1826,0.5826,149.6,97.0,0.519
37.84,32080.7,35149.6,0.355,0.3642,149.6,97.0,0.519
37.86,32015.7,35080.4,0.0693,0.1941,149.6,97.0,0.519
37.88,32071.4,34998.3,0.3139,-0.0076,149.6,97.0,0.519
37.9,31937.0,34899.2,-0.277,-0.2512,149.6,97.0,0.519
37.92,31923.8,34691.5,-0.3348,-0.7614,149.6,97.0,0.519
37.94,31967.4,34707.7,-0.1434,-0.7217,149.6,97.0,0.519
37.96,31755.8,34667.9,-1.0736,-0.8195,149.6,97.0,0.519
37.98,31796.9,34612.2,-0.8928,-0.9562,149.6,97.0,0.519
38.0,31856.8,34680.2,-0.6297,-0.7893,149.6,97.0,0.519
38.02,31678.4,34451.0,-1.4139,-1.3525,149.6,97.0,0.519
38.04,31759.5,34511.4,-1.0572,-1.2041,149.6,97.0,0.519
38.06,31797.9,34514.9,-0.8882,-1.1953,149.6,97.0,0.519
38.08,31896.9,34727.3,-0.4534,-0.6735,149.6,97.0,0.519
38.1,31980.1,35081.2,-0.0874,0.196,149.6,97.0,0.519
38.12,32285.4,35444.2,1.2547,1.0878,149.6,97.0,0.519
38.14,32357.8,35676.3,1.573,1.6583,149.6,97.0,0.519
38.16,32394.4,35785.3,1.734,1.9261,149.6,97.0,0.519
38.18,32297.8,35600.2,1.3095,1.4712,149.6,97.0,0.519
38.2,32091.6,35299.4,0.4029,0.7322,149.6,97.0,0.519
38.22,32181.2,35136.5,0.7966,0.3319,149.6,97.0,0.519
38.24,32024.5,35089.7,0.108,0.2169,149.6,97.0,0.519
38.26,32025.1,35124.6,0.1105,0.3027,149.6,97.0,0.519
38.28,32044.5,34963.0,0.1956,-0.0944,149.6,97.0,0.519
38.3,31911.4,34965.5,-0.3894,-0.0882,149.6,97.0,0.519
38.32,31801.0,34818.1,-0.875,-0.4503,149.6,97.0,0.519
38.34,31846.8,34619.3,-0.6734,-0.939,149.6,97.0,0.519
38.36,31815.4,34657.6,-0.8115,-0.8448,149.6,97.0,0.519
38.38,31800.7,34725.1,-0.8762,-0.679,149.6,97.0,0.519
38.4,31786.2,34644.4,-0.94,-0.8772,149.6,97.0,0.519
38.42,31787.1,34486.0,-0.9359,-1.2663,149.6,97.0,0.519
38.44,31705.1,34456.8,-1.2963,-1.3381,149.6,97.0,0.519
38.46,31675.7,34519.3,-1.4258,-1.1845,149.6,97.0,0.519
38.48,31886.9,34651.7,-0.4972,-0.8591,149.6,97.0,0.519
38.5,32111.4,35103.5,0.4898,0.2508,149.6,97.0,0.519
38.52,32181.9,35394.1,0.7997,0.9648,149.6,97.0,0.519
38.54,32359.5,35743.1,1.5806,1.8222,149.6,97.0,0.519
38.56,32309.4,35798.0,1.3601,1.9572,149.6,97.0,0.519
38.58,32363.9,35557.4,1.5999,1.366,149.6,97.0,0.519
38.6,32168.9,35380.1,0.7428,0.9304,149.6,97.0,0.519
38.62,32138.8,35168.5,0.6103,0.4104,149.6,97.0,0.519
38.64,32009.5,35109.2,0.0416,0.2649,149.6,97.0,0.519
38.66,32052.1,35046.5,0.2289,0.1109,149.6,97.0,0.519
38.68,32057.6,34984.1,0.2534,-0.0425,149.6,97.0,0.519
38.7,32019.3,34876.0,0.085,-0.3081,149.6,97.0,0.519
38.72,31936.0,34856.0,-0.2813,-0.3573,149.6,97.0,0.519
38.74,31842.9,34658.1,-0.6907,-0.8436,149.6,97.0,0.519
38.76,31815.3,34585.0,-0.8118,-1.0231,149.6,97.0,0.519
38.78,31853.0,34656.7,-0.646,-0.8469,149.6,97.0,0.519
38.8,31792.2,34534.1,-0.9135,-1.1483,149.6,97.0,0.519
38.82,31780.2,34467.9,-0.9662,-1.3108,149.6,97.0,0.519
38.84,31670.5,34480.9,-1.4484,-1.279,149.6,97.0,0.519
38.86,31733.1,34474.1,-1.1732,-1.2957,149.6,97.0,0.519
38.88,31881.4,34648.6,-0.5214,-0.8668,149.6,97.0,0.519
38.9,32060.7,35122.5,0.2669,0.2975,149.6,97.0,0.519
38.92,32165.5,35416.6,0.7276,1.02,149.6,97.0,0.519
38.94,32253.9,35755.7,1.1161,1.8533,149.6,97.0,0.519
38.96,32351.4,35741.2,1.545,1.8178,149.6,97.0,0.519
38.98,32334.5,35729.7,1.4706,1.7895,149.6,97.0,0.519
39.0,32227.0,35434.1,0.9982,1.0631,149.6,97.0,0.519
39.02,32168.0,35310.1,0.7385,0.7585,149.6,97.0,0.519
39.04,32046.9,35167.5,0.206,0.4081,149.6,97.0,0.519
39.06,32052.8,35078.9,0.2321,0.1903,149.6,97.0,0.519
39.08,31965.5,34986.3,-0.1518,-0.0371,149.6,97.0,0.519
39.1,31936.8,34958.0,-0.2778,-0.1066,149.6,97.0,0.519
39.12,31899.6,34738.7,-0.4415,-0.6455,149.6,97.0,0.519
39.14,31991.7,34699.4,-0.0363,-0.7419,149.6,97.0,0.519
39.16,31917.1,34721.0,-0.3644,-0.6889,149.6,97.0,0.519
39.18,31802.4,34627.2,-0.8686,-0.9195,149.6,97.0,0.519
39.2,31782.4,34635.0,-0.9565,-0.9002,149.6,97.0,0.519
39.22,31694.1,34481.5,-1.3448,-1.2775,149.6,97.0,0.519
39.24,31703.3,34468.5,-1.3041,-1.3093,149.6,97.0,0.519
39.26,31779.9,34469.6,-0.9676,-1.3066,149.6,97.0,0.519
39.28,31766.9,34734.8,-1.0248,-0.655,149.6,97.0,0.519
39.3,32020.4,35027.0,0.0897,0.063,149.6,97.0,0.519
39.32,32172.5,35435.4,0.7586,1.0664,149.6,97.0,0.519
39.34,32290.2,35715.9,1.276,1.7554,149.6,97.0,0.519
39.36,32337.8,35730.8,1.4852,1.7922,149.6,97.0,0.519
39.38,32395.0,35598.2,1.7366,1.4664,149.6,97.0,0.519
39.4,32277.2,35443.8,1.2186,1.0869,149.6,97.0,0.519
39.42,32090.4,35296.7,0.3974,0.7255,149.6,97.0,0.519
39.44,32035.6,35169.1,0.1564,0.412,149.6,97.0,0.519
39.46,32016.8,35076.2,0.0738,0.1839,149.6,97.0,0.519
39.48,31990.2,35040.8,-0.0429,0.0968,149.6,97.0,0.519
39.5,31888.2,34931.7,-0.4915,-0.1713,149.6,97.0,0.519
39.52,31865.9,34834.5,-0.5893,-0.41,149.6,97.0,0.519
39.54,31800.4,34795.9,-0.8776,-0.5049,149.6,97.0,0.519
39.56,31869.3,34623.7,-0.5746,-0.9281,149.6,97.0,0.519
39.58,31790.4,34793.1,-0.9214,-0.5118,149.6,97.0,0.519
39.6,31817.5,34549.0,-0.8023,-1.1116,149.6,97.0,0.519
39.62,31724.9,34496.6,-1.2096,-1.2403,149.6,97.0,0.519
39.64,31811.7,34328.8,-0.8276,-1.6526,149.6,97.0,0.519
39.66,31773.6,34456.4,-0.9954,-1.3391,149.6,97.0,0.519
39.68,31783.5,34628.1,-0.9515,-0.9171,149.6,97.0,0.519
39.7,32034.6,35101.5,0.1522,0.2458,149.6,97.0,0.519
39.72,32221.8,35438.8,0.975,1.0747,149.6,97.0,0.519
39.74,32383.3,35674.6,1.6851,1.654,149.6,97.0,0.519
39.76,32356.9,35771.3,1.5691,1.8916,149.6,97.0,0.519
39.78,32277.7,35604.3,1.221,1.4814,149.6,97.0,0.519
39.8,32191.3,35467.8,0.8409,1.146,149.6,97.0,0.519
39.82,32133.5,35275.7,0.5871,0.674,149.6,97.0,0.519
39.84,32065.5,35147.2,0.2882,0.3583,149.6,97.0,0.519
39.86,32071.0,35076.0,0.3124,0.1832,149.6,97.0,0.519
39.88,31952.7,35054.6,-0.2078,0.1308,149.6,97.0,0.519
39.9,32084.9,34949.7,0.3731,-0.1272,149.6,97.0,0.519
39.92,31928.4,34786.6,-0.3146,-0.5277,149.6,97.0,0.519
39.94,31796.7,34735.5,-0.8935,-0.6533,149.6,97.0,0.519
39.96,31870.0,34658.6,-0.5714,-0.8423,149.6,97.0,0.519
39.98,31947.1,34696.8,-0.2327,-0.7485,149.6,97.0,0.519
40.0,31763.6,34680.4,-1.0391,-0.7888,149.6,97.0,0.519
40.02,31763.9,34567.2,-1.0379,-1.0669,149.6,97.0,0.519
40.04,31702.6,34512.1,-1.3075,-1.2023,149.6,97.0,0.519
40.06,31634.4,34438.7,-1.6073,-1.3827,149.6,97.0,0.519
40.08,31818.7,34632.1,-0.7971,-0.9074,149.6,97.0,0.519
40.1,31990.9,34953.5,-0.04,-0.1178,149.6,97.0,0.519
40.12,32181.1,35393.8,0.7964,0.9642,149.6,97.0,0.519
40.14,32385.0,35659.2,1.6927,1.6162,149.6,97.0,0.519
40.16,32297.5,35846.0,1.308,2.0751,149.6,97.0,0.519
40.18,32273.8,35712.0,1.2037,1.7459,149.6,97.0,0.519
40.2,32264.1,35499.5,1.1613,1.2238,149.6,97.0,0.519
40.22,32102.5,35259.3,0.4507,0.6337,149.6,97.0,0.519
40.24,32120.3,35122.4,0.529,0.2972,149.6,97.0,0.519
40.26,31995.1,35112.8,-0.0213,0.2737,149.6,97.0,0.519
40.28,32018.5,35128.3,0.0813,0.3118,149.6,97.0,0.519
40.3,32023.2,34922.3,0.102,-0.1944,149.6,97.0,0.519
40.32,31911.7,34800.3,-0.388,-0.4942,149.6,97.0,0.519
40.34,31890.2,34699.6,-0.4825,-0.7417,149.6,97.0,0.519
40.36,31851.6,34707.1,-0.6526,-0.7232,149.6,97.0,0.519
40.38,31867.6,34694.0,-0.582,-0.7552,149.6,97.0,0.519
40.4,31834.7,34690.9,-0.7267,-0.7629,149.6,97.0,0.519
40.42,31791.4,34557.4,-0.9168,-1.0909,149.6,97.0,0.519
40.44,31743.7,34422.5,-1.1266,-1.4224,149.6,97.0,0.519
40.46,31734.8,34483.5,-1.1658,-1.2725,149.6,97.0,0.519
40.48,31815.0,34671.3,-0.8132,-0.8111,149.6,97.0,0.519
40.5,31972.7,34931.0,-0.1198,-0.173,149.6,97.0,0.519
40.52,32157.0,35347.2,0.6904,0.8496,149.6,97.0,0.519
40.54,32253.0,35621.3,1.1123,1.523,149.6,97.0,0.519
40.56,32429.0,35844.0,1.8859,2.0703,149.6,97.0,0.519
40.58,32276.6,35700.4,1.216,1.7174,149.6,97.0,0.519
40.6,32234.4,35475.7,1.0305,1.1654,149.6,97.0,0.519
40.62,32211.5,35352.2,0.9299,0.862,149.6,97.0,0.519
40.64,32035.2,35165.4,0.1547,0.4028,149.6,97.0,0.519
40.66,32033.6,35074.3,0.1477,0.1792,149.6,97.0,0.519
40.68,31950.5,34919.0,-0.2178,-0.2025,149.6,97.0,0.519
40.7,31845.8,34936.7,-0.6778,-0.159,149.6,97.0,0.519
40.72,32002.4,34741.4,0.0104,-0.6388,149.6,97.0,0.519
40.74,31797.2,34647.8,-0.8915,-0.8688,149.6,97.0,0.519
40.76,31816.5,34712.2,-0.8065,-0.7105,149.6,97.0,0.519
40.78,31882.4,34661.5,-0.5172,-0.8351,149.6,97.0,0.519
40.8,31847.8,34562.8,-0.6691,-1.0776,149.6,97.0,0.519
40.82,31808.8,34554.0,-0.8404,-1.0993,149.6,97.0,0.519
40.84,31749.3,34533.3,-1.1021,-1.1502,149.6,97.0,0.519
40.86,31741.5,34352.5,-1.1362,-1.5945,149.6,97.0,0.519
40.88,31842.9,34690.0,-0.6907,-0.7651,149.6,97.0,0.519
40.9,32004.8,34935.5,0.0213,-0.1618,149.6,97.0,0.519
40.92,32060.5,35323.2,0.2659,0.7906,149.6,97.0,0.519
40.94,32233.6,35638.1,1.0271,1.5644,149.6,97.0,0.519
40.96,32368.5,35728.1,1.6199,1.7856,149.6,97.0,0.519
40.98,32330.0,35679.2,1.4509,1.6654,149.6,97.0,0.519
41.0,32242.8,35459.7,1.0674,1.126,149.6,97.0,0.519
41.02,32178.4,35277.0,0.7842,0.6771,149.6,97.0,0.519
41.04,31998.7,35223.9,-0.0057,0.5467,149.6,97.0,0.519
41.06,32024.4,35061.5,0.1075,0.1476,149.6,97.0,0.519
41.08,31955.0,35007.1,-0.1979,0.0141,149.6,97.0,0.519
41.1,31936.3,34951.6,-0.2798,-0.1225,149.6,97.0,0.519
41.12,31816.9,34746.7,-0.8049,-0.6258,149.6,97.0,0.519
41.14,31894.4,34779.1,-0.4643,-0.5461,149.6,97.0,0.519
41.16,31775.5,34711.5,-0.9871,-0.7122,149.6,97.0,0.519
41.18,31917.4,34683.4,-0.3632,-0.7814,149.6,97.0,0.519
41.2,31739.9,34721.6,-1.1434,-0.6875,149.6,97.0,0.519
41.22,31838.7,34524.8,-0.7092,-1.171,149.6,97.0,0.519
41.24,31732.6,34478.7,-1.1756,-1.2843,149.6,97.0,0.519
41.26,31736.4,34395.0,-1.1588,-1.4899,149.6,97.0,0.519
41.28,31752.9,34553.4,-1.0863,-1.1007,149.6,97.0,0.519
41.3,31940.9,34817.5,-0.2597,-0.4518,149.6,97.0,0.519
41.32,32086.0,35272.8,0.378,0.6669,149.6,97.0,0.519
41.34,32249.5,35644.0,1.0967,1.5788,149.6,97.0,0.519
41.36,32419.5,35775.4,1.8443,1.9018,149.6,97.0,0.519
41.38,32334.6,35702.9,1.4712,1.7236,149.6,97.0,0.519
41.4,32226.5,35460.8,0.996,1.1288,149.6,97.0,0.519
41.42,32244.8,35265.2,1.0763,0.6481,149.6,97.0,0.519
41.44,32027.6,35199.3,0.1215,0.4862,149.6,97.0,0.519
41.46,31998.5,35042.4,-0.0063,0.1008,149.6,97.0,0.519
41.48,31989.3,34942.9,-0.0471,-0.1438,149.6,97.0,0.519
41.5,31971.4,34984.2,-0.1256,-0.0422,149.6,97.0,0.519
41.52,32020.4,34837.8,0.0896,-0.4019,149.6,97.0,0.519
41.54,31968.2,34730.4,-0.1399,-0.6658,149.6,97.0,0.519
41.56,31880.6,34718.9,-0.5249,-0.6941,149.6,97.0,0.519
41.58,31865.0,34680.6,-0.5934,-0.7882,149.6,97.0,0.519
41.6,31818.0,34677.8,-0.8,-0.7952,149.6,97.0,0.519
41.62,31750.6,34591.2,-1.0965,-1.008,149.6,97.0,0.519
41.64,31768.6,34445.9,-1.0174,-1.3649,149.6,97.0,0.519
41.66,31675.9,34475.8,-1.4247,-1.2914,149.6,97.0,0.519
41.68,31830.7,34595.4,-0.7443,-0.9975,149.6,97.0,0.519
41.7,32026.0,34803.1,0.1143,-0.4874,149.6,97.0,0.519
41.72,32102.1,35373.2,0.4489,0.9136,149.6,97.0,0.519
41.74,32281.6,35668.0,1.2381,1.6377,149.6,97.0,0.519
41.76,32301.3,35810.4,1.3245,1.9877,149.6,97.0,0.519
41.78,32325.1,35735.8,1.4292,1.8044,149.6,97.0,0.519
41.8,32301.6,35501.4,1.326,1.2286,149.6,97.0,0.519
41.82,32174.2,35331.4,0.7659,0.8107,149.6,97.0,0.519
41.84,32135.6,35221.2,0.5962,0.5401,149.6,97.0,0.519
41.86,32089.7,35125.6,0.3944,0.3051,149.6,97.0,0.519
41.88,32044.0,35075.2,0.1934,0.1813,149.6,97.0,0.519
41.9,31983.9,35013.8,-0.0707,0.0304,149.6,97.0,0.519
41.92,32004.5,34835.1,0.0198,-0.4086,149.6,97.0,0.519
41.94,31916.2,34772.7,-0.3685,-0.562,149.6,97.0,0.519
41.96,31898.0,34647.4,-0.4483,-0.8698,149.6,97.0,0.519
41.98,31789.7,34693.2,-0.9243,-0.7573,149.6,97.0,0.519
42.0,31857.3,34610.0,-0.6275,-0.9617,149.6,97.0,0.519
42.02,31794.3,34638.3,-0.9042,-0.8923,149.6,97.0,0.519
42.04,31854.7,34552.1,-0.6388,-1.1041,149.6,97.0,0.519
42.06,31656.1,34408.4,-1.5118,-1.4571,149.6,97.0,0.519
42.08,31748.5,34506.7,-1.1058,-1.2155,149.6,97.0,0.519
42.1,31976.4,34917.8,-0.1037,-0.2055,149.6,97.0,0.519
42.12,32131.4,35294.8,0.5778,0.721,149.6,97.0,0.519
42.14,32319.6,35575.4,1.4049,1.4103,149.6,97.0,0.519
42.16,32342.1,35703.5,1.504,1.7251,149.6,97.0,0.519
42.18,32388.0,35634.4,1.7058,1.5553,149.6,97.0,0.519
42.2,32228.1,35572.5,1.003,1.4033,149.6,97.0,0.519
42.22,32222.8,35342.1,0.9798,0.8371,149.6,97.0,0.519
42.24,32180.0,35188.2,0.7913,0.459,149.6,97.0,0.519
42.26,32102.2,35156.8,0.4492,0.3818,149.6,97.0,0.519
42.28,31979.1,35086.6,-0.0918,0.2094,149.6,97.0,0.519
42.3,31930.0,34973.9,-0.3078,-0.0677,149.6,97.0,0.519
42.32,31962.6,34803.8,-0.1644,-0.4855,149.6,97.0,0.519
42.34,31893.5,34714.3,-0.468,-0.7054,149.6,97.0,0.519
42.36,31846.1,34704.8,-0.6765,-0.7289,149.6,97.0,0.519
42.38,31860.1,34663.5,-0.615,-0.8303,149.6,97.0,0.519
42.4,31758.2,34648.1,-1.063,-0.8682,149.6,97.0,0.519
42.42,31851.0,34494.7,-0.655,-1.2449,149.6,97.0,0.519
42.44,31730.7,34520.1,-1.1837,-1.1827,149.6,97.0,0.519
42.46,31601.1,34443.3,-1.7534,-1.3712,149.6,97.0,0.519
42.48,31746.5,34537.4,-1.1145,-1.1402,149.6,97.0,0.519
42.5,31854.5,34785.5,-0.6396,-0.5305,149.6,97.0,0.519
42.52,32002.7,35318.7,0.0118,0.7797,149.6,97.0,0.519
42.54,32240.8,35597.4,1.0586,1.4643,149.6,97.0,0.519
42.56,32333.6,35743.1,1.4667,1.8223,149.6,97.0,0.519
42.58,32442.3,35726.8,1.9446,1.7824,149.6,97.0,0.519
42.6,32251.3,35508.4,1.1047,1.2458,149.6,97.0,0.519
42.62,32199.9,35522.6,0.8789,1.2806,149.6,97.0,0.519
42.64,32142.4,35185.3,0.6261,0.4519,149.6,97.0,0.519
42.66,32078.4,35090.4,0.3446,0.2185,149.6,97.0,0.519
42.68,32023.9,35148.1,0.105,0.3605,149.6,97.0,0.519
42.7,31949.3,34941.5,-0.2229,-0.1472,149.6,97.0,0.519
42.72,31856.1,34945.0,-0.6327,-0.1387,149.6,97.0,0.519
42.74,31956.3,34660.7,-0.1919,-0.8371,149.6,97.0,0.519
42.76,31833.8,34711.0,-0.7306,-0.7136,149.6,97.0,0.519
42.78,31772.2,34679.6,-1.0014,-0.7906,149.6,97.0,0.519
42.8,31784.5,34614.7,-0.9474,-0.9501,149.6,97.0,0.519
42.82,31778.6,34552.1,-0.9731,-1.104,149.6,97.0,0.519
42.84,31759.8,34437.7,-1.0561,-1.385,149.6,97.0,0.519
42.86,31756.8,34417.9,-1.0689,-1.4338,149.6,97.0,0.519
42.88,31809.3,34457.2,-0.8384,-1.3371,149.6,97.0,0.519
42.9,31935.8,34876.5,-0.2824,-0.3069,149.6,97.0,0.519
42.92,32117.0,35169.1,0.5146,0.4119,149.6,97.0,0.519
42.94,32263.3,35617.6,1.1575,1.5139,149.6,97.0,0.519
42.96,32362.9,35709.0,1.5953,1.7386,149.6,97.0,0.519
42.98,32379.4,35812.8,1.6681,1.9936,149.6,97.0,0.519
43.0,32290.3,35583.5,1.2765,1.4302,149.6,97.0,0.519
43.02,32148.3,35349.4,0.652,0.8551,149.6,97.0,0.519
43.04,32120.2,35167.1,0.5284,0.407,149.6,97.0,0.519
43.06,32025.7,35092.1,0.1133,0.2229,149.6,97.0,0.519
43.08,32087.6,35126.9,0.3854,0.3083,149.6,97.0,0.519
43.1,31966.4,34941.8,-0.1475,-0.1465,149.6,97.0,0.519
43.12,31974.2,34902.4,-0.1135,-0.2433,149.6,97.0,0.519
43.14,31880.0,34813.7,-0.5277,-0.4612,149.6,97.0,0.519
43.16,31897.8,34669.6,-0.4492,-0.8154,149.6,97.0,0.519
43.18,31887.0,34636.3,-0.4966,-0.897,149.6,97.0,0.519
43.2,31837.6,34726.6,-0.714,-0.6753,149.6,97.0,0.519
43.22,31805.3,34614.8,-0.856,-0.9499,149.6,97.0,0.519
43.24,31784.0,34456.1,-0.9497,-1.3398,149.6,97.0,0.519
43.26,31782.4,34415.1,-0.9567,-1.4407,149.6,97.0,0.519
43.28,31764.0,34517.5,-1.0374,-1.1889,149.6,97.0,0.519
43.3,31899.3,34836.4,-0.4427,-0.4054,149.6,97.0,0.519
43.32,32115.1,35138.6,0.5059,0.3371,149.6,97.0,0.519
43.34,32224.0,35531.5,0.9847,1.3025,149.6,97.0,0.519
43.36,32387.1,35785.4,1.7018,1.9263,149.6,97.0,0.519
43.38,32354.2,35706.4,1.5573,1.7321,149.6,97.0,0.519
43.4,32220.0,35509.9,0.9673,1.2495,149.6,97.0,0.519
43.42,32141.3,35376.6,0.6215,0.9219,149.6,97.0,0.519
43.44,32078.6,35107.4,0.3455,0.2604,149.6,97.0,0.519
43.46,32117.6,35021.8,0.5172,0.0502,149.6,97.0,0.519
43.48,32101.7,35012.5,0.4472,0.0272,149.6,97.0,0.519
43.5,32036.5,34979.6,0.1605,-0.0537,149.6,97.0,0.519
43.52,31895.5,34896.6,-0.4594,-0.2576,149.6,97.0,0.519
43.54,31918.4,34848.4,-0.3587,-0.3759,149.6,97.0,0.519
43.56,31839.6,34732.8,-0.705,-0.6601,149.6,97.0,0.519
43.58,31812.1,34672.4,-0.8261,-0.8083,149.6,97.0,0.519
43.6,31784.6,34608.4,-0.9467,-0.9655,149.6,97.0,0.519
43.62,31810.6,34659.3,-0.8324,-0.8407,149.6,97.0,0.519
43.64,31764.7,34570.5,-1.0346,-1.0588,149.6,97.0,0.519
43.66,31692.8,34447.5,-1.3504,-1.361,149.6,97.0,0.519
43.68,31833.5,34506.7,-0.7321,-1.2154,149.6,97.0,0.519
43.7,32027.2,34836.6,0.1196,-0.405,149.6,97.0,0.519
43.72,32101.6,35131.6,0.4466,0.3198,149.6,97.0,0.519
43.74,32369.3,35545.5,1.6235,1.3368,149.6,97.0,0.519
43.76,32406.6,35713.6,1.7875,1.7499,149.6,97.0,0.519
43.78,32335.2,35704.9,1.4738,1.7285,149.6,97.0,0.519
43.8,32215.8,35578.3,0.949,1.4174,149.6,97.0,0.519
43.82,32182.3,35297.1,0.8017,0.7265,149.6,97.0,0.519
43.84,32064.1,35087.2,0.2817,0.2109,149.6,97.0,0.519
43.86,32075.7,35086.2,0.333,0.2083,149.6,97.0,0.519
43.88,32133.8,35087.9,0.5884,0.2125,149.6,97.0,0.519
43.9,31946.3,34952.0,-0.2361,-0.1214,149.6,97.0,0.519
43.92,31865.9,34858.7,-0.5896,-0.3506,149.6,97.0,0.519
43.94,31993.6,34850.3,-0.0281,-0.3713,149.6,97.0,0.519
43.96,31849.3,34634.0,-0.6626,-0.9028,149.6,97.0,0.519
43.98,31896.4,34618.8,-0.4553,-0.94,149.6,97.0,0.519
44.0,31853.1,34599.4,-0.6456,-0.9878,149.6,97.0,0.519
44.02,31822.5,34619.9,-0.7802,-0.9375,149.6,97.0,0.519
44.04,31752.8,34504.3,-1.0869,-1.2213,149.6,97.0,0.519
44.06,31725.8,34438.7,-1.2053,-1.3827,149.6,97.0,0.519
44.08,31800.2,34568.5,-0.8783,-1.0637,149.6,97.0,0.519
44.1,31947.3,34704.2,-0.2318,-0.7303,149.6,97.0,0.519
44.12,32045.4,35211.9,0.1995,0.5172,149.6,97.0,0.519
44.14,32254.0,35558.5,1.1168,1.3687,149.6,97.0,0.519
44.16,32336.5,35809.1,1.4794,1.9846,149.6,97.0,0.519
44.18,32299.2,35775.4,1.3156,1.9018,149.6,97.0,0.519
44.2,32299.9,35609.3,1.3184,1.4935,149.6,97.0,0.519
44.22,32177.7,35398.6,0.7815,0.9759,149.6,97.0,0.519
44.24,32200.9,35229.3,0.8831,0.5599,149.6,97.0,0.519
44.26,32109.1,35160.2,0.4798,0.3901,149.6,97.0,0.519
44.28,32089.1,35149.8,0.3916,0.3645,149.6,97.0,0.519
44.3,31928.3,34988.6,-0.3152,-0.0314,149.6,97.0,0.519
44.32,31942.9,34843.5,-0.2508,-0.388,149.6,97.0,0.519
44.34,31913.8,34769.1,-0.3789,-0.5707,149.6,97.0,0.519
44.36,31855.3,34769.4,-0.6361,-0.57,149.6,97.0,0.519
44.38,31814.7,34707.8,-0.8147,-0.7214,149.6,97.0,0.519
44.4,31864.1,34676.8,-0.5976,-0.7975,149.6,97.0,0.519
44.42,31799.7,34583.5,-0.8803,-1.0268,149.6,97.0,0.519
44.44,31709.3,34587.4,-1.2779,-1.0171,149.6,97.0,0.519
44.46,31743.0,34460.7,-1.1296,-1.3285,149.6,97.0,0.519
44.48,31847.9,34463.5,-0.6684,-1.3218,149.6,97.0,0.519
44.5,31979.5,34823.4,-0.09,-0.4374,149.6,97.0,0.519
44.52,31966.7,35136.4,-0.1465,0.3318,149.6,97.0,0.519
44.54,32268.7,35458.1,1.1815,1.1221,149.6,97.0,0.519
44.56,32338.6,35718.2,1.4887,1.7613,149.6,97.0,0.519
44.58,32288.7,35787.2,1.2695,1.9308,149.6,97.0,0.519
44.6,32256.7,35537.8,1.1288,1.318,149.6,97.0,0.519
44.62,32155.5,35475.5,0.6838,1.1649,149.6,97.0,0.519
44.64,32028.8,35166.3,0.1268,0.4052,149.6,97.0,0.519
44.66,32070.9,35129.6,0.312,0.315,149.6,97.0,0.519
44.68,32028.8,35042.1,0.1265,0.1,149.6,97.0,0.519
44.7,31995.0,34937.0,-0.022,-0.1581,149.6,97.0,0.519
44.72,31923.8,34850.6,-0.335,-0.3707,149.6,97.0,0.519
44.74,31786.0,34792.1,-0.9408,-0.5144,149.6,97.0,0.519
44.76,31792.0,34739.5,-0.9143,-0.6435,149.6,97.0,0.519
44.78,31795.5,34611.7,-0.8992,-0.9576,149.6,97.0,0.519
44.8,31866.5,34707.2,-0.5869,-0.723,149.6,97.0,0.519
44.82,31813.4,34644.7,-0.8204,-0.8764,149.6,97.0,0.519
44.84,31754.1,34581.2,-1.0812,-1.0324,149.6,97.0,0.519
44.86,31691.2,34541.1,-1.3576,-1.131,149.6,97.0,0.519
