timestamp,raw_red,raw_ir,filtered_red,filtered_ir,heart_rate,spo2,ac_dc_ratio
0.0,32082.4,35161.1,0.3176,0.3907,149.2,97.2,0.51
0.02,32306.6,35513.3,1.1885,1.2564,149.2,97.2,0.51
0.04,32329.4,35746.4,1.277,1.8291,149.2,97.2,0.51
0.06,32307.1,35733.8,1.1903,1.7983,149.2,97.2,0.51
0.08,32154.5,35544.9,0.5976,1.3341,149.2,97.2,0.51
0.1,32161.4,35411.7,0.6246,1.0067,149.2,97.2,0.51
0.12,32045.3,35222.9,0.1735,0.5428,149.2,97.2,0.51
0.14,32085.3,35156.8,0.3288,0.3802,149.2,97.2,0.51
0.16,32029.4,35042.4,0.1117,0.0992,149.2,97.2,0.51
0.18,31928.5,35030.6,-0.2802,0.0701,149.2,97.2,0.51
0.2,32010.0,34913.4,0.0365,-0.2179,149.2,97.2,0.51
0.22,31863.7,34803.0,-0.5319,-0.4891,149.2,97.2,0.51
0.24,31904.0,34719.3,-0.3751,-0.6948,149.2,97.2,0.51
0.26,31818.5,34699.3,-0.7073,-0.744,149.2,97.2,0.51
0.28,31843.1,34570.6,-0.612,-1.0603,149.2,97.2,0.51
0.3,31614.2,34639.7,-1.5011,-0.8905,149.2,97.2,0.51
0.32,31712.1,34561.3,-1.1206,-1.0832,149.2,97.2,0.51
0.34,31800.3,34449.6,-0.7782,-1.3576,149.2,97.2,0.51
0.36,31762.1,34530.7,-0.9265,-1.1584,149.2,97.2,0.51
0.38,31889.1,34815.7,-0.4331,-0.4579,149.2,97.2,0.51
0.4,32088.1,35111.5,0.3396,0.2689,149.2,97.2,0.51
0.42,32111.4,35465.8,0.4303,1.1396,149.2,97.2,0.51
0.44,32383.2,35657.4,1.486,1.6104,149.2,97.2,0.51
0.46,32275.7,35748.4,1.0683,1.8342,149.2,97.2,0.51
0.48,32291.4,35695.4,1.1293,1.7037,149.2,97.2,0.51
0.5,32062.3,35322.8,0.2394,0.7882,149.2,97.2,0.51
0.52,32080.0,35158.1,0.3082,0.3834,149.2,97.2,0.51
0.54,32081.9,35143.7,0.3156,0.3481,149.2,97.2,0.51
0.56,32071.2,34988.4,0.2742,-0.0335,149.2,97.2,0.51
0.58,32028.2,34983.4,0.1072,-0.0458,149.2,97.2,0.51
0.6,31966.9,34850.7,-0.131,-0.3718,149.2,97.2,0.51
0.62,31762.5,34698.7,-0.925,-0.7455,149.2,97.2,0.51
0.64,31901.4,34739.0,-0.3856,-0.6465,149.2,97.2,0.51
0.66,31950.0,34660.0,-0.1966,-0.8406,149.2,97.2,0.51
0.68,31782.7,34775.0,-0.8465,-0.5581,149.2,97.2,0.51
0.7,31765.2,34605.5,-0.9145,-0.9744,149.2,97.2,0.51
0.72,31740.9,34549.2,-1.0086,-1.1129,149.2,97.2,0.51
0.74,31715.5,34386.0,-1.1074,-1.5139,149.2,97.2,0.51
0.76,31855.3,34564.3,-0.5645,-1.0757,149.2,97.2,0.51
0.78,31828.5,34739.6,-0.6685,-0.6449,149.2,97.2,0.51
0.8,32066.4,35092.4,0.2553,0.2221,149.2,97.2,0.51
0.82,32211.6,35540.5,0.8193,1.3231,149.2,97.2,0.51
0.84,32312.9,35823.5,1.213,2.0186,149.2,97.2,0.51
0.86,32239.9,35767.8,0.9292,1.8818,149.2,97.2,0.51
0.88,32294.7,35575.6,1.1421,1.4094,149.2,97.2,0.51
0.9,32201.4,35450.7,0.7796,1.1026,149.2,97.2,0.51
0.92,32118.2,35184.2,0.4568,0.4476,149.2,97.2,0.51
0.94,32004.6,35214.6,0.0156,0.5224,149.2,97.2,0.51
0.96,31958.3,35032.4,-0.1645,0.0745,149.2,97.2,0.51
0.98,32083.1,34906.7,0.3205,-0.2343,149.2,97.2,0.51
1.0,32077.3,34971.0,0.2977,-0.0763,149.2,97.2,0.51
1.02,31935.5,34732.9,-0.2528,-0.6614,149.2,97.2,0.51
1.04,31835.0,34702.6,-0.6434,-0.7358,149.2,97.2,0.51
1.06,31849.9,34648.5,-0.5854,-0.8689,149.2,97.2,0.51
1.08,31836.6,34776.3,-0.6371,-0.5549,149.2,97.2,0.51
1.1,31866.7,34658.3,-0.5201,-0.8447,149.2,97.2,0.51
1.12,31809.7,34528.4,-0.7415,-1.164,149.2,97.2,0.51
1.14,31793.8,34428.2,-0.8034,-1.4103,149.2,97.2,0.51
1.16,31715.0,34521.7,-1.1093,-1.1804,149.2,97.2,0.51
1.18,31854.4,34771.8,-0.5678,-0.5658,149.2,97.2,0.51
1.2,31967.8,35059.3,-0.1277,0.1407,149.2,97.2,0.51
1.22,32199.9,35530.5,0.7741,1.2986,149.2,97.2,0.51
1.24,32289.4,35737.6,1.1215,1.8076,149.2,97.2,0.51
1.26,32364.1,35695.7,1.4118,1.7046,149.2,97.2,0.51
1.28,32280.1,35602.4,1.0855,1.4754,149.2,97.2,0.51
1.3,32234.8,35375.4,0.9096,0.9176,149.2,97.2,0.51
1.32,32169.5,35231.8,0.656,0.5645,149.2,97.2,0.51
1.34,31975.7,35099.0,-0.0968,0.2382,149.2,97.2,0.51
1.36,32023.4,35053.8,0.0885,0.1273,149.2,97.2,0.51
1.38,31961.1,35026.8,-0.1534,0.0609,149.2,97.2,0.51
1.4,31931.1,34936.4,-0.27,-0.1614,149.2,97.2,0.51
1.42,31939.8,34775.7,-0.2363,-0.5562,149.2,97.2,0.51
1.44,31896.8,34700.0,-0.4031,-0.7423,149.2,97.2,0.51
1.46,31880.7,34640.6,-0.466,-0.8882,149.2,97.2,0.51
1.48,31762.5,34632.3,-0.9248,-0.9086,149.2,97.2,0.51
1.5,31872.7,34673.1,-0.4969,-0.8084,149.2,97.2,0.51
1.52,31744.2,34559.7,-0.9958,-1.0871,149.2,97.2,0.51
1.54,31761.9,34489.4,-0.9274,-1.2599,149.2,97.2,0.51
1.56,31712.2,34415.5,-1.1203,-1.4415,149.2,97.2,0.51
1.58,31895.3,34593.0,-0.4089,-1.0053,149.2,97.2,0.51
1.6,32015.8,35074.8,0.0588,0.1787,149.2,97.2,0.51
1.62,32184.6,35351.6,0.7147,0.859,149.2,97.2,0.51
1.64,32317.9,35682.3,1.2321,1.6716,149.2,97.2,0.51
1.66,32318.6,35766.0,1.2352,1.8774,149.2,97.2,0.51
1.68,32376.8,35590.5,1.4611,1.446,149.2,97.2,0.51
1.7,32198.2,35383.1,0.7672,0.9365,149.2,97.2,0.51
1.72,32164.5,35234.8,0.6363,0.5718,149.2,97.2,0.51
1.74,32068.4,35105.8,0.2633,0.255,149.2,97.2,0.51
1.76,32109.1,35025.9,0.4215,0.0586,149.2,97.2,0.51
1.78,31992.6,34930.4,-0.0313,-0.1762,149.2,97.2,0.51
1.8,32022.0,34996.2,0.0831,-0.0143,149.2,97.2,0.51
1.82,31938.4,34874.9,-0.2417,-0.3124,149.2,97.2,0.51
1.84,31830.1,34765.8,-0.6624,-0.5806,149.2,97.2,0.51
1.86,31798.4,34665.8,-0.7856,-0.8263,149.2,97.2,0.51
1.88,31874.3,34621.8,-0.4908,-0.9344,149.2,97.2,0.51
1.9,31840.5,34607.8,-0.622,-0.9688,149.2,97.2,0.51
1.92,31779.6,34555.2,-0.8583,-1.0981,149.2,97.2,0.51
1.94,31717.9,34542.4,-1.0981,-1.1296,149.2,97.2,0.51
1.96,31822.2,34524.7,-0.6931,-1.173,149.2,97.2,0.51
1.98,31831.1,34619.2,-0.6584,-0.941,149.2,97.2,0.51
2.0,32054.5,34991.4,0.209,-0.0262,149.2,97.2,0.51
2.02,32163.5,35464.3,0.6324,1.136,149.2,97.2,0.51
2.04,32236.4,35657.6,0.9157,1.611,149.2,97.2,0.51
2.06,32365.8,35701.3,1.4184,1.7184,149.2,97.2,0.51
2.08,32390.6,35658.1,1.5145,1.6121,149.2,97.2,0.51
2.1,32248.8,35481.7,0.9638,1.1787,149.2,97.2,0.51
2.12,32082.9,35319.2,0.3194,0.7793,149.2,97.2,0.51
2.14,32098.0,35087.4,0.3782,0.2096,149.2,97.2,0.51
2.16,32161.4,35110.7,0.6243,0.267,149.2,97.2,0.51
2.18,32017.5,35014.5,0.0654,0.0305,149.2,97.2,0.51
2.2,31947.5,34928.1,-0.2063,-0.1818,149.2,97.2,0.51
2.22,31912.8,34878.8,-0.341,-0.3028,149.2,97.2,0.51
2.24,31876.6,34726.7,-0.4818,-0.6767,149.2,97.2,0.51
2.26,31814.8,34710.9,-0.7218,-0.7154,149.2,97.2,0.51
2.28,31880.5,34714.6,-0.4664,-0.7065,149.2,97.2,0.51
2.3,31863.5,34573.6,-0.5328,-1.053,149.2,97.2,0.51
2.32,31811.0,34523.1,-0.7364,-1.1769,149.2,97.2,0.51
2.34,31759.3,34415.5,-0.9375,-1.4415,149.2,97.2,0.51
2.36,31701.7,34512.3,-1.161,-1.2034,149.2,97.2,0.51
2.38,31806.2,34614.3,-0.7552,-0.953,149.2,97.2,0.51
2.4,31965.0,34901.8,-0.1386,-0.2464,149.2,97.2,0.51
2.42,32201.3,35326.7,0.7794,0.7978,149.2,97.2,0.51
2.44,32344.3,35582.8,1.335,1.4271,149.2,97.2,0.51
2.46,32365.4,35713.5,1.417,1.7484,149.2,97.2,0.51
2.48,32308.9,35730.4,1.1972,1.7899,149.2,97.2,0.51
2.5,32217.3,35551.5,0.8417,1.3503,149.2,97.2,0.51
2.52,32161.8,35251.7,0.6262,0.6135,149.2,97.2,0.51
2.54,32025.9,35224.2,0.0982,0.546,149.2,97.2,0.51
2.56,32110.8,35011.8,0.4281,0.0239,149.2,97.2,0.51
2.58,31993.2,35096.4,-0.0287,0.2317,149.2,97.2,0.51
2.6,31987.1,35016.6,-0.0524,0.0357,149.2,97.2,0.51
2.62,32010.1,34797.9,0.0368,-0.5017,149.2,97.2,0.51
2.64,31836.1,34759.3,-0.6391,-0.5966,149.2,97.2,0.51
2.66,31856.2,34600.2,-0.561,-0.9875,149.2,97.2,0.51
2.68,31905.7,34602.1,-0.3688,-0.9828,149.2,97.2,0.51
2.7,31846.8,34641.2,-0.5976,-0.8867,149.2,97.2,0.51
2.72,31719.4,34631.1,-1.0923,-0.9117,149.2,97.2,0.51
2.74,31670.3,34449.8,-1.2831,-1.3571,149.2,97.2,0.51
2.76,31755.1,34428.9,-0.9538,-1.4084,149.2,97.2,0.51
2.78,31790.8,34647.4,-0.8151,-0.8717,149.2,97.2,0.51
2.8,31987.7,34873.2,-0.0501,-0.3167,149.2,97.2,0.51
2.82,32071.4,35329.3,0.2749,0.8041,149.2,97.2,0.51
2.84,32231.3,35604.5,0.896,1.4804,149.2,97.2,0.51
2.86,32295.1,35735.1,1.1436,1.8013,149.2,97.2,0.51
2.88,32306.5,35664.8,1.1882,1.6287,149.2,97.2,0.51
2.9,32293.1,35537.2,1.136,1.315,149.2,97.2,0.51
2.92,32151.0,35332.6,0.5842,0.8124,149.2,97.2,0.51
2.94,32065.9,35239.4,0.2533,0.5833,149.2,97.2,0.51
2.96,32051.1,35102.5,0.196,0.2468,149.2,97.2,0.51
2.98,31996.4,35067.0,-0.0165,0.1595,149.2,97.2,0.51
3.0,31954.1,34864.9,-0.1806,-0.3372,149.2,97.2,0.51
3.02,31914.5,34902.9,-0.3345,-0.2438,149.2,97.2,0.51
3.04,31856.5,34730.1,-0.5599,-0.6683,149.2,97.2,0.51
3.06,31858.4,34744.4,-0.5525,-0.6332,149.2,97.2,0.51
3.08,31844.7,34635.9,-0.6055,-0.8998,149.2,97.2,0.51
3.1,31803.7,34618.3,-0.7649,-0.9431,149.2,97.2,0.51
3.12,31781.9,34564.3,-0.8497,-1.0759,149.2,97.2,0.51
3.14,31827.1,34489.4,-0.6739,-1.2598,149.2,97.2,0.51
3.16,31774.6,34491.7,-0.878,-1.2542,149.2,97.2,0.51
3.18,31782.7,34552.6,-0.8466,-1.1044,149.2,97.2,0.51
3.2,31911.3,34908.9,-0.3469,-0.2289,149.2,97.2,0.51
3.22,32108.2,35315.8,0.418,0.7711,149.2,97.2,0.51
3.24,32326.5,35594.2,1.2657,1.4552,149.2,97.2,0.51
3.26,32448.9,35761.2,1.7409,1.8656,149.2,97.2,0.51
3.28,32323.9,35782.5,1.2557,1.918,149.2,97.2,0.51
3.3,32294.0,35623.6,1.1394,1.5275,149.2,97.2,0.51
3.32,32091.5,35321.8,0.353,0.7856,149.2,97.2,0.51
3.34,32166.7,35202.6,0.6452,0.4928,149.2,97.2,0.51
3.36,32165.8,35087.4,0.6414,0.2096,149.2,97.2,0.51
3.38,32039.6,35052.6,0.1513,0.1243,149.2,97.2,0.51
3.4,31980.7,34940.9,-0.0776,-0.1502,149.2,97.2,0.51
3.42,31944.0,34817.3,-0.22,-0.4541,149.2,97.2,0.51
3.44,31879.0,34684.9,-0.4726,-0.7793,149.2,97.2,0.51
3.46,31870.6,34658.2,-0.5051,-0.8451,149.2,97.2,0.51
3.48,31811.7,34601.4,-0.7337,-0.9847,149.2,97.2,0.51
3.5,31836.1,34604.3,-0.639,-0.9774,149.2,97.2,0.51
3.52,31741.9,34610.9,-1.0051,-0.9612,149.2,97.2,0.51
3.54,31785.6,34482.7,-0.8354,-1.2762,149.2,97.2,0.51
3.56,31713.3,34472.7,-1.116,-1.3008,149.2,97.2,0.51
3.58,31817.4,34557.5,-0.7116,-1.0924,149.2,97.2,0.51
3.6,31851.2,34840.5,-0.5804,-0.397,149.2,97.2,0.51
3.62,32152.3,35111.1,0.5891,0.268,149.2,97.2,0.51
3.64,32313.8,35534.5,1.2165,1.3085,149.2,97.2,0.51
3.66,32422.2,35746.9,1.6374,1.8304,149.2,97.2,0.51
3.68,32423.3,35744.0,1.6415,1.8232,149.2,97.2,0.51
3.7,32175.1,35589.1,0.6777,1.4426,149.2,97.2,0.51
3.72,32299.5,35353.6,1.161,0.8639,149.2,97.2,0.51
3.74,32118.0,35193.6,0.4561,0.4706,149.2,97.2,0.51
3.76,32051.9,35054.4,0.1992,0.1286,149.2,97.2,0.51
3.78,32000.0,35053.3,-0.0025,0.1259,149.2,97.2,0.51
3.8,32049.1,35029.5,0.1881,0.0674,149.2,97.2,0.51
3.82,31910.7,34947.7,-0.3493,-0.1337,149.2,97.2,0.51
3.84,31867.3,34684.4,-0.5178,-0.7806,149.2,97.2,0.51
3.86,31884.7,34775.1,-0.4503,-0.5577,149.2,97.2,0.51
3.88,31867.5,34736.5,-0.5173,-0.6525,149.2,97.2,0.51
3.9,31875.0,34594.8,-0.4881,-1.0007,149.2,97.2,0.51
3.92,31780.2,34631.6,-0.8561,-0.9104,149.2,97.2,0.51
3.94,31774.4,34505.5,-0.8788,-1.2203,149.2,97.2,0.51
3.96,31739.7,34496.6,-1.0134,-1.242,149.2,97.2,0.51
3.98,31830.2,34580.8,-0.6618,-1.0353,149.2,97.2,0.51
4.0,31955.4,34871.5,-0.1757,-0.3208,149.2,97.2,0.51
4.02,32111.3,35224.4,0.4298,0.5465,149.2,97.2,0.51
4.04,32246.4,35521.4,0.9546,1.2762,149.2,97.2,0.51
4.06,32295.2,35734.7,1.1442,1.8005,149.2,97.2,0.51
4.08,32304.8,35811.6,1.1814,1.9894,149.2,97.2,0.51
4.1,32237.2,35574.5,0.9187,1.4067,149.2,97.2,0.51
4.12,32322.3,35357.3,1.2493,0.8729,149.2,97.2,0.51
4.14,32220.8,35246.6,0.8551,0.601,149.2,97.2,0.51
4.16,32114.3,35069.5,0.4414,0.1656,149.2,97.2,0.51
4.18,32106.9,35044.8,0.4129,0.1051,149.2,97.2,0.51
4.2,32002.4,34948.9,0.0068,-0.1307,149.2,97.2,0.51
4.22,31928.6,35012.2,-0.2799,0.0249,149.2,97.2,0.51
4.24,31927.4,34716.3,-0.2845,-0.7024,149.2,97.2,0.51
4.26,31944.4,34759.8,-0.2182,-0.5954,149.2,97.2,0.51
4.28,31850.8,34692.6,-0.5818,-0.7604,149.2,97.2,0.51
4.3,31894.8,34562.7,-0.4111,-1.0798,149.2,97.2,0.51
4.32,31815.2,34622.2,-0.7203,-0.9334,149.2,97.2,0.51
4.34,31775.7,34493.8,-0.8735,-1.249,149.2,97.2,0.51
4.36,31767.5,34479.5,-0.9054,-1.2842,149.2,97.2,0.51
4.38,31781.4,34503.9,-0.8514,-1.2241,149.2,97.2,0.51
4.4,31843.0,34719.4,-0.6123,-0.6946,149.2,97.2,0.51
4.42,32017.9,35091.8,0.067,0.2205,149.2,97.2,0.51
4.44,32220.8,35486.0,0.8552,1.1893,149.2,97.2,0.51
4.46,32335.0,35724.4,1.2986,1.7751,149.2,97.2,0.51
4.48,32330.7,35729.3,1.2821,1.7873,149.2,97.2,0.51
4.5,32306.7,35581.7,1.1887,1.4245,149.2,97.2,0.51
4.52,32192.2,35353.5,0.744,0.8637,149.2,97.2,0.51
4.54,32084.5,35217.7,0.3258,0.5299,149.2,97.2,0.51
4.56,32000.4,35023.8,-0.001,0.0534,149.2,97.2,0.51
4.58,32071.2,35057.4,0.2743,0.136,149.2,97.2,0.51
4.6,31972.3,34941.9,-0.1101,-0.1479,149.2,97.2,0.51
4.62,31972.7,34911.3,-0.1087,-0.2229,149.2,97.2,0.51
4.64,31930.1,34716.0,-0.2741,-0.7029,149.2,97.2,0.51
4.66,31839.7,34628.3,-0.6251,-0.9185,149.2,97.2,0.51
4.68,31776.4,34736.5,-0.8709,-0.6526,149.2,97.2,0.51
4.7,31833.3,34678.7,-0.6498,-0.7947,149.2,97.2,0.51
4.72,31851.3,34701.8,-0.5801,-0.7378,149.2,97.2,0.51
4.74,31726.1,34471.3,-1.0664,-1.3044,149.2,97.2,0.51
4.76,31703.7,34454.0,-1.1531,-1.3469,149.2,97.2,0.51
4.78,31682.5,34468.1,-1.2356,-1.3122,149.2,97.2,0.51
4.8,31886.5,34758.9,-0.4433,-0.5975,149.2,97.2,0.51
4.82,32028.8,35016.0,0.1093,0.0342,149.2,97.2,0.51
4.84,32121.4,35516.1,0.4693,1.2631,149.2,97.2,0.51
4.86,32291.4,35670.2,1.1294,1.642,149.2,97.2,0.51
4.88,32384.4,35776.2,1.4905,1.9024,149.2,97.2,0.51
4.9,32269.6,35650.5,1.0449,1.5936,149.2,97.2,0.51
4.92,32187.3,35436.6,0.7252,1.0679,149.2,97.2,0.51
4.94,32100.6,35275.9,0.3885,0.6729,149.2,97.2,0.51
4.96,32072.5,35182.8,0.2793,0.4442,149.2,97.2,0.51
4.98,32074.2,35036.7,0.2856,0.085,149.2,97.2,0.51
5.0,32036.3,35064.5,0.1385,0.1534,149.2,97.2,0.51
5.02,31951.8,34933.3,-0.1897,-0.1691,149.2,97.2,0.51
5.04,31875.5,34772.4,-0.4858,-0.5644,149.2,97.2,0.51
5.06,31689.8,34702.4,-1.2074,-0.7364,149.2,97.2,0.51
5.08,31845.7,34709.0,-0.6016,-0.7202,149.2,97.2,0.51
5.1,31917.4,34594.7,-0.3231,-1.0011,149.2,97.2,0.51
5.12,31935.2,34629.0,-0.2541,-0.9167,149.2,97.2,0.51
5.14,31896.5,34529.3,-0.4043,-1.1618,149.2,97.2,0.51
5.16,31709.9,34457.9,-1.1293,-1.3372,149.2,97.2,0.51
5.18,31756.6,34458.3,-0.948,-1.3364,149.2,97.2,0.51
5.2,31800.8,34617.6,-0.7762,-0.9447,149.2,97.2,0.51
5.22,32079.4,35072.4,0.3058,0.1728,149.2,97.2,0.51
5.24,32188.5,35485.9,0.7296,1.1889,149.2,97.2,0.51
5.26,32459.5,35637.4,1.7824,1.5614,149.2,97.2,0.51
5.28,32352.2,35746.1,1.3657,1.8285,149.2,97.2,0.51
5.3,32215.5,35514.0,0.8346,1.258,149.2,97.2,0.51
5.32,32180.5,35400.8,0.6986,0.9799,149.2,97.2,0.51
5.34,32034.8,35294.0,0.1326,0.7174,149.2,97.2,0.51
5.36,32105.1,35170.8,0.4059,0.4146,149.2,97.2,0.51
5.38,31991.6,35081.7,-0.0349,0.1956,149.2,97.2,0.51
5.4,32010.5,35037.4,0.0382,0.0869,149.2,97.2,0.51
5.42,31950.6,34915.5,-0.1942,-0.2128,149.2,97.2,0.51
5.44,31874.0,34735.7,-0.4917,-0.6545,149.2,97.2,0.51
5.46,31886.6,34686.9,-0.443,-0.7745,149.2,97.2,0.51
5.48,31849.3,34573.4,-0.5877,-1.0535,149.2,97.2,0.51
5.5,31886.6,34596.9,-0.443,-0.9956,149.2,97.2,0.51
5.52,31805.0,34643.2,-0.7598,-0.882,149.2,97.2,0.51
5.54,31779.0,34519.0,-0.8608,-1.1871,149.2,97.2,0.51
5.56,31707.3,34425.6,-1.1393,-1.4167,149.2,97.2,0.51
5.58,31831.9,34582.2,-0.6552,-1.0319,149.2,97.2,0.51
5.6,31854.4,34556.0,-0.5681,-1.0961,149.2,97.2,0.51
5.62,31962.0,34922.3,-0.1502,-0.196,149.2,97.2,0.51
5.64,32133.9,35453.8,0.5176,1.1101,149.2,97.2,0.51
5.66,32282.7,35654.1,1.0956,1.6024,149.2,97.2,0.51
5.68,32384.4,35718.4,1.4908,1.7604,149.2,97.2,0.51
5.7,32299.8,35650.3,1.1619,1.593,149.2,97.2,0.51
5.72,32153.8,35464.2,0.595,1.1357,149.2,97.2,0.51
5.74,32064.3,35407.0,0.2472,0.9951,149.2,97.2,0.51
5.76,32055.8,35092.2,0.2142,0.2215,149.2,97.2,0.51
5.78,32150.6,35129.1,0.5825,0.3121,149.2,97.2,0.51
5.8,32031.8,35002.6,0.1212,0.0013,149.2,97.2,0.51
5.82,32014.5,34969.7,0.054,-0.0794,149.2,97.2,0.51
5.84,31941.1,34905.1,-0.2314,-0.2383,149.2,97.2,0.51
5.86,31839.9,34811.6,-0.6243,-0.468,149.2,97.2,0.51
5.88,31839.5,34737.1,-0.6257,-0.6512,149.2,97.2,0.51
5.9,31897.2,34676.1,-0.4019,-0.801,149.2,97.2,0.51
5.92,31779.7,34680.9,-0.8581,-0.7893,149.2,97.2,0.51
5.94,31802.4,34481.7,-0.7699,-1.2788,149.2,97.2,0.51
5.96,31766.5,34450.4,-0.9094,-1.3556,149.2,97.2,0.51
5.98,31786.5,34551.4,-0.8315,-1.1074,149.2,97.2,0.51
6.0,31813.0,34695.5,-0.7288,-0.7534,149.2,97.2,0.51
6.02,32031.3,34986.5,0.1192,-0.0383,149.2,97.2,0.51
6.04,32159.6,35283.3,0.6175,0.691,149.2,97.2,0.51
6.06,32326.0,35591.6,1.2639,1.4488,149.2,97.2,0.51
6.08,32339.3,35787.6,1.3153,1.9305,149.2,97.2,0.51
6.1,32299.9,35656.1,1.1625,1.6073,149.2,97.2,0.51
6.12,32248.9,35493.7,0.9643,1.2081,149.2,97.2,0.51
6.14,32207.7,35272.0,0.8041,0.6633,149.2,97.2,0.51
6.16,32145.1,35151.9,0.5611,0.3683,149.2,97.2,0.51
6.18,32002.4,35126.4,0.0068,0.3054,149.2,97.2,0.51
6.2,32051.3,35031.0,0.1967,0.0712,149.2,97.2,0.51
6.22,32008.7,35070.5,0.0314,0.1681,149.2,97.2,0.51
6.24,31988.7,34818.0,-0.0465,-0.4522,149.2,97.2,0.51
6.26,31817.7,34709.1,-0.7103,-0.7199,149.2,97.2,0.51
6.28,31736.5,34655.2,-1.0261,-0.8523,149.2,97.2,0.51
6.3,31792.0,34629.1,-0.8102,-0.9165,149.2,97.2,0.51
6.32,31933.2,34675.5,-0.2618,-0.8025,149.2,97.2,0.51
6.34,31750.2,34660.4,-0.9728,-0.8395,149.2,97.2,0.51
6.36,31826.8,34444.2,-0.6752,-1.3709,149.2,97.2,0.51
6.38,31838.5,34506.4,-0.6297,-1.2182,149.2,97.2,0.51
6.4,31880.3,34592.2,-0.4673,-1.0072,149.2,97.2,0.51
6.42,32014.6,34934.9,0.0543,-0.1652,149.2,97.2,0.51
6.44,32101.1,35304.5,0.3904,0.7431,149.2,97.2,0.51
6.46,32315.0,35541.0,1.2209,1.3245,149.2,97.2,0.51
6.48,32312.0,35723.2,1.2095,1.7722,149.2,97.2,0.51
6.5,32342.3,35739.3,1.3271,1.8117,149.2,97.2,0.51
6.52,32178.6,35542.6,0.6914,1.3285,149.2,97.2,0.51
6.54,32105.4,35265.2,0.407,0.6467,149.2,97.2,0.51
6.56,32085.8,35151.5,0.3307,0.3672,149.2,97.2,0.51
6.58,32022.6,35151.2,0.0854,0.3665,149.2,97.2,0.51
6.6,32044.3,34983.9,0.1696,-0.0447,149.2,97.2,0.51
6.62,31988.2,35031.7,-0.0482,0.0729,149.2,97.2,0.51
6.64,31939.4,34875.1,-0.2377,-0.312,149.2,97.2,0.51
6.66,31863.2,34695.1,-0.5337,-0.7544,149.2,97.2,0.51
6.68,31797.8,34577.1,-0.788,-1.0444,149.2,97.2,0.51
6.7,31870.0,34692.3,-0.5075,-0.7611,149.2,97.2,0.51
6.72,31957.4,34609.2,-0.1681,-0.9653,149.2,97.2,0.51
6.74,31791.8,34505.9,-0.8112,-1.2194,149.2,97.2,0.51
6.76,31777.8,34591.5,-0.8654,-1.0089,149.2,97.2,0.51
6.78,31727.3,34513.8,-1.0616,-1.1999,149.2,97.2,0.51
6.8,31762.1,34604.0,-0.9264,-0.9781,149.2,97.2,0.51
6.82,31916.3,34806.5,-0.3277,-0.4807,149.2,97.2,0.51
6.84,32014.6,35302.8,0.0544,0.739,149.2,97.2,0.51
6.86,32244.8,35646.2,0.9486,1.5831,149.2,97.2,0.51
6.88,32303.2,35812.3,1.1754,1.9912,149.2,97.2,0.51
6.9,32352.5,35711.7,1.3668,1.744,149.2,97.2,0.51
6.92,32181.0,35523.1,0.7006,1.2805,149.2,97.2,0.51
6.94,32153.7,35328.3,0.5945,0.8017,149.2,97.2,0.51
6.96,32067.8,35235.1,0.2608,0.5728,149.2,97.2,0.51
6.98,32080.8,35121.5,0.3114,0.2934,149.2,97.2,0.51
7.0,32092.2,35052.5,0.3556,0.124,149.2,97.2,0.51
7.02,31987.4,34940.1,-0.0514,-0.1524,149.2,97.2,0.51
7.04,31937.2,34927.3,-0.2465,-0.1837,149.2,97.2,0.51
7.06,31840.8,34842.0,-0.6208,-0.3932,149.2,97.2,0.51
7.08,31850.6,34656.4,-0.5828,-0.8494,149.2,97.2,0.51
7.1,31848.2,34737.3,-0.592,-0.6506,149.2,97.2,0.51
7.12,31750.1,34599.0,-0.9729,-0.9906,149.2,97.2,0.51
7.14,31825.1,34512.6,-0.6819,-1.2029,149.2,97.2,0.51
7.16,31754.0,34384.1,-0.9579,-1.5186,149.2,97.2,0.51
7.18,31682.0,34477.4,-1.2376,-1.2894,149.2,97.2,0.51
7.2,31907.1,34599.5,-0.3634,-0.9892,149.2,97.2,0.51
7.22,31878.1,34889.6,-0.4758,-0.2764,149.2,97.2,0.51
7.24,32161.9,35227.6,0.6262,0.5542,149.2,97.2,0.51
7.26,32257.0,35643.7,0.9956,1.5767,149.2,97.2,0.51
7.28,32367.6,35783.5,1.4252,1.9204,149.2,97.2,0.51
7.3,32357.1,35813.8,1.3844,1.9948,149.2,97.2,0.51
7.32,32226.9,35524.7,0.8788,1.2844,149.2,97.2,0.51
7.34,32098.3,35328.6,0.3794,0.8024,149.2,97.2,0.51
7.36,32129.3,35219.5,0.4998,0.5344,149.2,97.2,0.51
7.38,32079.7,35046.7,0.307,0.1098,149.2,97.2,0.51
7.4,32044.0,35085.8,0.1684,0.2057,149.2,97.2,0.51
7.42,31990.0,35022.6,-0.0415,0.0504,149.2,97.2,0.51
7.44,31983.7,34787.1,-0.0658,-0.5283,149.2,97.2,0.51
7.46,31833.9,34795.5,-0.6478,-0.5076,149.2,97.2,0.51
7.48,31805.6,34706.3,-0.7575,-0.7268,149.2,97.2,0.51
7.5,31964.4,34686.6,-0.1406,-0.7751,149.2,97.2,0.51
7.52,31911.3,34620.0,-0.3469,-0.9388,149.2,97.2,0.51
7.54,31906.0,34574.4,-0.3674,-1.0509,149.2,97.2,0.51
7.56,31898.4,34596.9,-0.3971,-0.9957,149.2,97.2,0.51
7.58,31747.1,34524.5,-0.9847,-1.1737,149.2,97.2,0.51
7.6,31760.5,34573.9,-0.9327,-1.0521,149.2,97.2,0.51
7.62,31876.9,34829.6,-0.4804,-0.4238,149.2,97.2,0.51
7.64,32128.2,35264.3,0.4955,0.6445,149.2,97.2,0.51
7.66,32259.9,35452.1,1.0071,1.1059,149.2,97.2,0.51
7.68,32322.2,35701.6,1.249,1.7192,149.2,97.2,0.51
7.7,32350.0,35749.0,1.3568,1.8355,149.2,97.2,0.51
7.72,32267.5,35552.0,1.0365,1.3514,149.2,97.2,0.51
7.74,32236.7,35392.9,0.917,0.9604,149.2,97.2,0.51
7.76,32156.1,35210.7,0.6037,0.5126,149.2,97.2,0.51
7.78,32000.8,35074.7,0.0005,0.1785,149.2,97.2,0.51
7.8,31979.6,35011.8,-0.0817,0.0241,149.2,97.2,0.51
7.82,31917.4,34920.0,-0.3233,-0.2018,149.2,97.2,0.51
7.84,31981.1,34935.8,-0.0757,-0.1627,149.2,97.2,0.51
7.86,31821.7,34836.5,-0.695,-0.4069,149.2,97.2,0.51
7.88,31869.8,34578.2,-0.5081,-1.0417,149.2,97.2,0.51
7.9,31871.2,34695.6,-0.5028,-0.7531,149.2,97.2,0.51
7.92,31853.9,34665.3,-0.5699,-0.8275,149.2,97.2,0.51
7.94,31767.4,34616.4,-0.9058,-0.9478,149.2,97.2,0.51
7.96,31804.1,34557.9,-0.7634,-1.0916,149.2,97.2,0.51
7.98,31754.7,34453.0,-0.9552,-1.3493,149.2,97.2,0.51
8.0,31817.1,34465.0,-0.7127,-1.3199,149.2,97.2,0.51
8.02,31860.5,34858.2,-0.5444,-0.3534,149.2,97.2,0.51
8.04,32110.6,35130.9,0.4271,0.3166,149.2,97.2,0.51
8.06,32249.7,35524.1,0.9672,1.2829,149.2,97.2,0.51
8.08,32221.1,35702.4,0.8561,1.721,149.2,97.2,0.51
8.1,32385.0,35827.2,1.493,2.0278,149.2,97.2,0.51
8.12,32310.3,35651.3,1.2029,1.5954,149.2,97.2,0.51
8.14,32157.9,35423.7,0.6108,1.0361,149.2,97.2,0.51
8.16,32049.5,35165.3,0.1897,0.4011,149.2,97.2,0.51
8.18,32089.8,35122.8,0.3463,0.2967,149.2,97.2,0.51
8.2,32090.5,35055.6,0.3492,0.1315,149.2,97.2,0.51
8.22,31922.3,34960.0,-0.3043,-0.1035,149.2,97.2,0.51
8.24,31875.6,34905.0,-0.4858,-0.2385,149.2,97.2,0.51
8.26,31896.6,34761.5,-0.4041,-0.5911,149.2,97.2,0.51
8.28,31886.8,34724.2,-0.4422,-0.6829,149.2,97.2,0.51
8.3,31835.1,34679.2,-0.643,-0.7934,149.2,97.2,0.51
8.32,31833.2,34635.4,-0.6504,-0.9011,149.2,97.2,0.51
8.34,31884.6,34518.7,-0.4508,-1.1878,149.2,97.2,0.51
8.36,31775.0,34527.9,-0.8763,-1.1651,149.2,97.2,0.51
8.38,31782.7,34402.0,-0.8466,-1.4747,149.2,97.2,0.51
8.4,31668.3,34526.7,-1.2908,-1.1681,149.2,97.2,0.51
8.42,31853.8,34718.6,-0.5702,-0.6965,149.2,97.2,0.51
8.44,31996.4,35115.1,-0.0165,0.2777,149.2,97.2,0.51
8.46,32120.8,35499.1,0.4668,1.2215,149.2,97.2,0.51
8.48,32333.4,35700.2,1.2926,1.7157,149.2,97.2,0.51
8.5,32292.7,35765.8,1.1345,1.8768,149.2,97.2,0.51
8.52,32297.1,35589.6,1.1517,1.4439,149.2,97.2,0.51
8.54,32197.9,35369.7,0.7663,0.9034,149.2,97.2,0.51
8.56,32099.5,35277.7,0.3838,0.6775,149.2,97.2,0.51
8.58,32028.3,35193.9,0.1076,0.4714,149.2,97.2,0.51
8.6,32031.3,35158.7,0.1192,0.3851,149.2,97.2,0.51
8.62,32014.3,35015.0,0.053,0.0317,149.2,97.2,0.51
8.64,31947.8,34891.4,-0.2052,-0.2721,149.2,97.2,0.51
8.66,31785.7,34642.7,-0.8349,-0.883,149.2,97.2,0.51
8.68,31823.2,34710.5,-0.6893,-0.7165,149.2,97.2,0.51
8.7,31874.6,34670.7,-0.4897,-0.8143,149.2,97.2,0.51
8.72,31912.7,34630.9,-0.3417,-0.912,149.2,97.2,0.51
8.74,31822.6,34658.4,-0.6916,-0.8446,149.2,97.2,0.51
8.76,31840.0,34447.8,-0.6239,-1.3621,149.2,97.2,0.51
8.78,31743.7,34429.5,-0.998,-1.4071,149.2,97.2,0.51
8.8,31791.8,34587.8,-0.8111,-1.0181,149.2,97.2,0.51
8.82,31899.4,34718.9,-0.3933,-0.6959,149.2,97.2,0.51
8.84,32026.4,35047.2,0.1001,0.111,149.2,97.2,0.51
8.86,32193.6,35506.3,0.7495,1.2392,149.2,97.2,0.51
8.88,32344.7,35767.6,1.3362,1.8814,149.2,97.2,0.51
8.9,32238.6,35752.8,0.9242,1.845,149.2,97.2,0.51
8.92,32311.9,35641.0,1.209,1.5703,149.2,97.2,0.51
8.94,32251.5,35397.0,0.9744,0.9706,149.2,97.2,0.51
8.96,32203.3,35285.6,0.7872,0.6967,149.2,97.2,0.51
8.98,32027.5,35080.1,0.1044,0.1917,149.2,97.2,0.51
9.0,32059.1,35026.6,0.2271,0.0602,149.2,97.2,0.51
9.02,32043.8,35117.0,0.1677,0.2824,149.2,97.2,0.51
9.04,31995.1,34908.9,-0.0216,-0.229,149.2,97.2,0.51
9.06,31979.9,34827.0,-0.0804,-0.4302,149.2,97.2,0.51
9.08,31959.3,34762.4,-0.1607,-0.5889,149.2,97.2,0.51
9.1,31924.0,34723.4,-0.2977,-0.6849,149.2,97.2,0.51
9.12,31855.1,34662.4,-0.5651,-0.8348,149.2,97.2,0.51
9.14,31780.6,34595.6,-0.8548,-0.9988,149.2,97.2,0.51
9.16,31751.5,34565.3,-0.9677,-1.0733,149.2,97.2,0.51
9.18,31790.1,34361.0,-0.8177,-1.5753,149.2,97.2,0.51
9.2,31807.1,34615.5,-0.7518,-0.95,149.2,97.2,0.51
9.22,31834.8,34698.4,-0.644,-0.7463,149.2,97.2,0.51
9.24,32020.7,35043.0,0.078,0.1006,149.2,97.2,0.51
9.26,32130.1,35380.6,0.5027,0.9303,149.2,97.2,0.51
9.28,32289.3,35645.6,1.1214,1.5815,149.2,97.2,0.51
9.3,32205.8,35733.7,0.7969,1.798,149.2,97.2,0.51
9.32,32296.7,35667.0,1.1498,1.634,149.2,97.2,0.51
9.34,32181.7,35400.0,0.7033,0.9778,149.2,97.2,0.51
9.36,32165.8,35195.1,0.6417,0.4743,149.2,97.2,0.51
9.38,32091.9,35185.9,0.3546,0.4517,149.2,97.2,0.51
9.4,32111.7,35132.4,0.4313,0.3203,149.2,97.2,0.51
9.42,31951.8,35070.2,-0.1897,0.1675,149.2,97.2,0.51
9.44,31989.7,34858.0,-0.0424,-0.354,149.2,97.2,0.51
9.46,31904.2,34889.7,-0.3744,-0.2762,149.2,97.2,0.51
9.48,31827.5,34709.9,-0.6724,-0.7181,149.2,97.2,0.51
9.5,31891.7,34729.3,-0.423,-0.6703,149.2,97.2,0.51
9.52,31861.7,34654.5,-0.5398,-0.8541,149.2,97.2,0.51
9.54,31885.3,34579.6,-0.4478,-1.0381,149.2,97.2,0.51
9.56,31743.2,34628.9,-1.0,-0.917,149.2,97.2,0.51
9.58,31793.2,34477.2,-0.8055,-1.2898,149.2,97.2,0.51
9.6,31692.0,34459.8,-1.1989,-1.3327,149.2,97.2,0.51
9.62,31837.1,34609.4,-0.635,-0.9648,149.2,97.2,0.51
9.64,31965.6,34859.7,-0.1361,-0.3499,149.2,97.2,0.51
9.66,32065.2,35314.3,0.2506,0.7672,149.2,97.2,0.51
9.68,32344.5,35628.2,1.3355,1.5387,149.2,97.2,0.51
9.7,32376.9,35794.8,1.4616,1.9482,149.2,97.2,0.51
9.72,32372.5,35649.9,1.4442,1.592,149.2,97.2,0.51
9.74,32237.7,35444.0,0.9209,1.0861,149.2,97.2,0.51
9.76,32203.1,35210.5,0.7863,0.5123,149.2,97.2,0.51
9.78,32005.8,35129.8,0.0199,0.3139,149.2,97.2,0.51
9.8,32023.1,35169.4,0.0873,0.4112,149.2,97.2,0.51
9.82,32024.4,35029.5,0.0925,0.0673,149.2,97.2,0.51
9.84,31996.4,34978.4,-0.0163,-0.0582,149.2,97.2,0.51
9.86,31857.9,34771.9,-0.5544,-0.5656,149.2,97.2,0.51
9.88,31889.6,34792.0,-0.4313,-0.5163,149.2,97.2,0.51
9.9,31852.7,34713.0,-0.5747,-0.7103,149.2,97.2,0.51
9.92,31756.2,34663.5,-0.9496,-0.8319,149.2,97.2,0.51
9.94,31772.5,34644.5,-0.8859,-0.8788,149.2,97.2,0.51
9.96,31884.0,34599.8,-0.4531,-0.9885,149.2,97.2,0.51
9.98,31785.9,34457.5,-0.8339,-1.3382,149.2,97.2,0.51
10.0,31737.2,34435.9,-1.0233,-1.3912,149.2,97.2,0.51
10.02,31911.4,34637.3,-0.3466,-0.8964,149.2,97.2,0.51
10.04,32017.1,34924.5,0.0641,-0.1907,149.2,97.2,0.51
10.06,32128.1,35405.6,0.4952,0.9918,149.2,97.2,0.51
10.08,32341.0,35600.9,1.3219,1.4717,149.2,97.2,0.51
10.1,32259.1,35756.9,1.0038,1.855,149.2,97.2,0.51
10.12,32368.6,35651.2,1.4292,1.5951,149.2,97.2,0.51
10.14,32310.6,35528.2,1.204,1.2931,149.2,97.2,0.51
10.16,32094.8,35270.5,0.3658,0.6597,149.2,97.2,0.51
10.18,32117.3,35135.1,0.4531,0.3269,149.2,97.2,0.51
10.2,32087.7,35146.8,0.3381,0.3556,149.2,97.2,0.51
10.22,32116.6,35051.3,0.4504,0.1209,149.2,97.2,0.51
10.24,32052.1,34966.3,0.2001,-0.0878,149.2,97.2,0.51
10.26,32005.8,34827.5,0.0202,-0.4289,149.2,97.2,0.51
10.28,31889.2,34737.0,-0.4329,-0.6514,149.2,97.2,0.51
10.3,31912.9,34720.4,-0.3409,-0.6921,149.2,97.2,0.51
10.32,31831.3,34605.6,-0.6579,-0.9743,149.2,97.2,0.51
10.34,31880.1,34689.1,-0.4683,-0.7692,149.2,97.2,0.51
10.36,31743.7,34634.4,-0.9978,-0.9036,149.2,97.2,0.51
10.38,31787.0,34442.6,-0.8296,-1.3749,149.2,97.2,0.51
10.4,31677.8,34351.7,-1.254,-1.5982,149.2,97.2,0.51
10.42,31904.2,34511.6,-0.3747,-1.2052,149.2,97.2,0.51
10.44,32023.1,34826.9,0.0872,-0.4304,149.2,97.2,0.51
10.46,32112.7,35273.0,0.4352,0.6657,149.2,97.2,0.51
10.48,32283.0,35539.6,1.0966,1.321,149.2,97.2,0.51
10.5,32377.7,35766.9,1.4646,1.8795,149.2,97.2,0.51
10.52,32334.8,35701.0,1.2979,1.7176,149.2,97.2,0.51
10.54,32135.2,35575.5,0.5228,1.4093,149.2,97.2,0.51
10.56,32095.2,35269.6,0.3674,0.6576,149.2,97.2,0.51
10.58,32062.1,35164.7,0.2389,0.3997,149.2,97.2,0.51
10.6,32077.2,35073.3,0.2973,0.1752,149.2,97.2,0.51
10.62,32068.5,35005.7,0.2638,0.009,149.2,97.2,0.51
10.64,31995.5,34959.8,-0.0197,-0.1039,149.2,97.2,0.51
10.66,31959.2,34892.1,-0.1609,-0.2702,149.2,97.2,0.51
10.68,31862.7,34733.7,-0.5358,-0.6596,149.2,97.2,0.51
10.7,31810.8,34716.0,-0.7372,-0.7029,149.2,97.2,0.51
10.72,31822.4,34651.1,-0.6924,-0.8624,149.2,97.2,0.51
10.74,31939.2,34628.4,-0.2387,-0.9183,149.2,97.2,0.51
10.76,31749.1,34588.2,-0.9771,-1.017,149.2,97.2,0.51
10.78,31753.4,34518.4,-0.9604,-1.1886,149.2,97.2,0.51
10.8,31730.5,34456.2,-1.0491,-1.3414,149.2,97.2,0.51
10.82,31790.0,34588.6,-0.8181,-1.016,149.2,97.2,0.51
10.84,31882.1,34941.0,-0.4604,-0.15,149.2,97.2,0.51
10.86,32161.6,35239.9,0.6252,0.5845,149.2,97.2,0.51
10.88,32259.9,35573.5,1.0069,1.4043,149.2,97.2,0.51
10.9,32352.3,35814.9,1.3661,1.9976,149.2,97.2,0.51
10.92,32374.8,35697.1,1.4532,1.7081,149.2,97.2,0.51
10.94,32281.4,35515.0,1.0906,1.2604,149.2,97.2,0.51
10.96,32107.8,35346.4,0.4162,0.8462,149.2,97.2,0.51
10.98,32104.5,35192.7,0.4036,0.4684,149.2,97.2,0.51
11.0,31996.1,35060.6,-0.0177,0.1439,149.2,97.2,0.51
11.02,32093.4,35073.1,0.3605,0.1746,149.2,97.2,0.51
11.04,31964.9,34963.2,-0.1386,-0.0955,149.2,97.2,0.51
11.06,31904.1,34897.3,-0.3748,-0.2574,149.2,97.2,0.51
11.08,31843.6,34723.8,-0.6099,-0.6837,149.2,97.2,0.51
11.1,31821.2,34733.4,-0.6969,-0.6603,149.2,97.2,0.51
11.12,31834.3,34567.4,-0.646,-1.0682,149.2,97.2,0.51
11.14,31786.1,34629.9,-0.8332,-0.9145,149.2,97.2,0.51
11.16,31883.9,34614.2,-0.4536,-0.953,149.2,97.2,0.51
11.18,31770.2,34447.1,-0.895,-1.3639,149.2,97.2,0.51
11.2,31781.7,34506.6,-0.8505,-1.2175,149.2,97.2,0.51
11.22,31872.0,34496.9,-0.4996,-1.2414,149.2,97.2,0.51
11.24,31925.8,34814.9,-0.2905,-0.46,149.2,97.2,0.51
11.26,32015.4,35133.1,0.0572,0.322,149.2,97.2,0.51
11.28,32266.8,35592.1,1.034,1.45,149.2,97.2,0.51
11.3,32392.6,35793.0,1.5226,1.9436,149.2,97.2,0.51
11.32,32381.7,35746.9,1.4802,1.8304,149.2,97.2,0.51
11.34,32324.1,35503.8,1.2566,1.233,149.2,97.2,0.51
11.36,32149.3,35359.4,0.5775,0.878,149.2,97.2,0.51
11.38,31991.2,35226.4,-0.0365,0.5514,149.2,97.2,0.51
11.4,32045.3,35070.7,0.1733,0.1687,149.2,97.2,0.51
11.42,32029.3,35047.3,0.1114,0.1111,149.2,97.2,0.51
11.44,31966.4,34950.5,-0.1331,-0.1268,149.2,97.2,0.51
11.46,31896.6,34805.3,-0.4042,-0.4836,149.2,97.2,0.51
11.48,31924.6,34789.5,-0.2953,-0.5223,149.2,97.2,0.51
11.5,31809.9,34712.8,-0.7408,-0.7108,149.2,97.2,0.51
11.52,31901.6,34658.9,-0.3845,-0.8434,149.2,97.2,0.51
11.54,31858.2,34583.8,-0.5533,-1.0279,149.2,97.2,0.51
11.56,31828.7,34576.2,-0.6678,-1.0465,149.2,97.2,0.51
11.58,31771.5,34545.4,-0.8899,-1.1223,149.2,97.2,0.51
11.6,31673.8,34417.7,-1.2694,-1.436,149.2,97.2,0.51
11.62,31765.7,34590.4,-0.9124,-1.0115,149.2,97.2,0.51
11.64,31881.0,34757.6,-0.4645,-0.6008,149.2,97.2,0.51
11.66,32054.0,35299.7,0.2072,0.7314,149.2,97.2,0.51
11.68,32172.9,35651.9,0.669,1.5971,149.2,97.2,0.51
11.7,32377.0,35838.2,1.4618,2.0547,149.2,97.2,0.51
11.72,32390.6,35664.7,1.5148,1.6283,149.2,97.2,0.51
11.74,32327.9,35595.1,1.2711,1.4574,149.2,97.2,0.51
11.76,32139.3,35378.6,0.5385,0.9254,149.2,97.2,0.51
11.78,32108.6,35202.8,0.4194,0.4933,149.2,97.2,0.51
11.8,32055.5,35144.2,0.2132,0.3493,149.2,97.2,0.51
11.82,32043.6,35009.0,0.1668,0.0172,149.2,97.2,0.51
11.84,32035.5,35032.1,0.1353,0.0737,149.2,97.2,0.51
11.86,31987.2,34889.3,-0.0521,-0.2771,149.2,97.2,0.51
11.88,31819.2,34865.8,-0.7045,-0.3349,149.2,97.2,0.51
11.9,31833.9,34709.5,-0.6476,-0.7189,149.2,97.2,0.51
11.92,31846.9,34611.7,-0.5971,-0.9592,149.2,97.2,0.51
11.94,31850.3,34730.5,-0.584,-0.6674,149.2,97.2,0.51
11.96,31821.7,34566.6,-0.6951,-1.0701,149.2,97.2,0.51
11.98,31798.5,34509.8,-0.7851,-1.2097,149.2,97.2,0.51
12.0,31765.5,34439.5,-0.9133,-1.3824,149.2,97.2,0.51
12.02,31688.0,34547.7,-1.2141,-1.1166,149.2,97.2,0.51
12.04,31909.4,34760.1,-0.3543,-0.5947,149.2,97.2,0.51
12.06,32122.3,35085.2,0.4725,0.2042,149.2,97.2,0.51
12.08,32187.9,35501.0,0.7275,1.2262,149.2,97.2,0.51
12.1,32340.7,35689.7,1.3208,1.6898,149.2,97.2,0.51
12.12,32302.0,35750.4,1.1706,1.8391,149.2,97.2,0.51
12.14,32228.2,35595.5,0.884,1.4583,149.2,97.2,0.51
12.16,32122.8,35451.0,0.4747,1.1031,149.2,97.2,0.51
12.18,32036.6,35252.0,0.1396,0.6142,149.2,97.2,0.51
12.2,32122.2,35211.1,0.4723,0.5137,149.2,97.2,0.51
12.22,32057.3,35100.6,0.2201,0.2421,149.2,97.2,0.51
12.24,32007.9,35061.7,0.0281,0.1466,149.2,97.2,0.51
12.26,31959.9,34935.1,-0.1581,-0.1646,149.2,97.2,0.51
12.28,31904.6,34718.5,-0.373,-0.6967,149.2,97.2,0.51
12.3,31959.8,34679.9,-0.1585,-0.7917,149.2,97.2,0.51
12.32,31926.9,34715.3,-0.2865,-0.7048,149.2,97.2,0.51
12.34,31823.8,34628.1,-0.6867,-0.919,149.2,97.2,0.51
12.36,31848.1,34548.0,-0.5925,-1.1158,149.2,97.2,0.51
12.38,31707.6,34483.4,-1.1383,-1.2747,149.2,97.2,0.51
12.4,31677.2,34438.7,-1.2562,-1.3845,149.2,97.2,0.51
12.42,31826.4,34533.3,-0.6767,-1.1519,149.2,97.2,0.51
12.44,31857.8,34726.8,-0.5548,-0.6765,149.2,97.2,0.51
12.46,32140.2,35027.4,0.5419,0.0623,149.2,97.2,0.51
12.48,32175.5,35445.8,0.6793,1.0905,149.2,97.2,0.51
12.5,32222.4,35739.6,0.8615,1.8125,149.2,97.2,0.51
12.52,32297.9,35733.5,1.1548,1.7975,149.2,97.2,0.51
12.54,32305.4,35626.8,1.1839,1.5353,149.2,97.2,0.51
12.56,32141.2,35423.3,0.5458,1.0353,149.2,97.2,0.51
12.58,32119.0,35289.3,0.4599,0.7058,149.2,97.2,0.51
12.6,32022.8,35097.3,0.0861,0.2341,149.2,97.2,0.51
12.62,32048.1,35175.7,0.1845,0.4266,149.2,97.2,0.51
12.64,31945.9,35027.6,-0.2124,0.0627,149.2,97.2,0.51
12.66,31960.1,34902.9,-0.1574,-0.2438,149.2,97.2,0.51
12.68,31904.0,34741.3,-0.3753,-0.6409,149.2,97.2,0.51
12.7,31797.3,34757.8,-0.7896,-0.6004,149.2,97.2,0.51
12.72,31778.6,34724.5,-0.8623,-0.6822,149.2,97.2,0.51
12.74,31818.8,34664.5,-0.7064,-0.8296,149.2,97.2,0.51
12.76,31815.5,34603.9,-0.7192,-0.9784,149.2,97.2,0.51
12.78,31747.2,34517.1,-0.9843,-1.1917,149.2,97.2,0.51
12.8,31747.2,34472.3,-0.9842,-1.3019,149.2,97.2,0.51
12.82,31734.6,34517.7,-1.0332,-1.1903,149.2,97.2,0.51
12.84,31861.5,34701.1,-0.5403,-0.7395,149.2,97.2,0.51
12.86,31922.1,35027.1,-0.305,0.0615,149.2,97.2,0.51
12.88,32207.9,35356.4,0.805,0.8709,149.2,97.2,0.51
12.9,32423.1,35623.2,1.6411,1.5265,149.2,97.2,0.51
12.92,32326.9,35723.6,1.2672,1.7732,149.2,97.2,0.51
12.94,32352.1,35580.9,1.3652,1.4224,149.2,97.2,0.51
12.96,32264.6,35486.7,1.0253,1.191,149.2,97.2,0.51
12.98,32055.6,35242.0,0.2134,0.5896,149.2,97.2,0.51
13.0,32018.1,35166.4,0.068,0.4039,149.2,97.2,0.51
13.02,32069.7,35054.0,0.2682,0.1276,149.2,97.2,0.51
13.04,32055.7,34972.1,0.2137,-0.0737,149.2,97.2,0.51
13.06,32000.9,34933.9,0.0012,-0.1676,149.2,97.2,0.51
13.08,31895.5,34703.7,-0.4082,-0.7333,149.2,97.2,0.51
13.1,31809.7,34696.4,-0.7415,-0.7513,149.2,97.2,0.51
13.12,31909.5,34692.8,-0.3538,-0.76,149.2,97.2,0.51
13.14,31829.8,34648.1,-0.6635,-0.8698,149.2,97.2,0.51
13.16,31810.7,34701.1,-0.7377,-0.7396,149.2,97.2,0.51
13.18,31780.8,34547.7,-0.8539,-1.1165,149.2,97.2,0.51
13.2,31836.2,34368.4,-0.6386,-1.5571,149.2,97.2,0.51
13.22,31797.8,34423.9,-0.7879,-1.4209,149.2,97.2,0.51
13.24,31852.1,34705.7,-0.5771,-0.7284,149.2,97.2,0.51
13.26,31931.7,34924.8,-0.2676,-0.1898,149.2,97.2,0.51
13.28,32224.3,35428.4,0.8686,1.0478,149.2,97.2,0.51
13.3,32239.2,35702.3,0.9267,1.7209,149.2,97.2,0.51
13.32,32388.8,35738.6,1.5078,1.81,149.2,97.2,0.51
13.34,32242.5,35714.7,0.9394,1.7513,149.2,97.2,0.51
13.36,32235.6,35465.6,0.9127,1.139,149.2,97.2,0.51
13.38,32182.9,35273.5,0.7078,0.6672,149.2,97.2,0.51
13.4,32066.0,35135.2,0.254,0.3272,149.2,97.2,0.51
13.42,32188.7,35024.3,0.7306,0.0547,149.2,97.2,0.51
13.44,31961.6,35073.8,-0.1517,0.1763,149.2,97.2,0.51
13.46,31992.0,34997.1,-0.0335,-0.0121,149.2,97.2,0.51
13.48,31848.7,34783.2,-0.5901,-0.5379,149.2,97.2,0.51
13.5,31934.9,34755.2,-0.2553,-0.6068,149.2,97.2,0.51
13.52,31874.0,34628.8,-0.4917,-0.9172,149.2,97.2,0.51
13.54,31800.8,34577.8,-0.7763,-1.0426,149.2,97.2,0.51
13.56,31886.3,34584.0,-0.4439,-1.0272,149.2,97.2,0.51
13.58,31818.7,34506.4,-0.7066,-1.2182,149.2,97.2,0.51
13.6,31745.3,34399.8,-0.9917,-1.48,149.2,97.2,0.51
13.62,31810.0,34477.8,-0.7406,-1.2885,149.2,97.2,0.51
13.64,31850.5,34569.0,-0.5831,-1.0642,149.2,97.2,0.51
13.66,32049.6,34884.0,0.1902,-0.2902,149.2,97.2,0.51
13.68,32166.7,35276.4,0.6449,0.6742,149.2,97.2,0.51
13.7,32275.9,35629.1,1.0692,1.5409,149.2,97.2,0.51
13.72,32348.0,35737.4,1.3491,1.8071,149.2,97.2,0.51
13.74,32213.0,35668.7,0.8247,1.6383,149.2,97.2,0.51
13.76,32193.3,35469.5,0.7485,1.1486,149.2,97.2,0.51
13.78,32125.1,35228.5,0.4835,0.5566,149.2,97.2,0.51
13.8,32122.7,35148.8,0.4743,0.3606,149.2,97.2,0.51
13.82,32075.7,35011.0,0.2915,0.0219,149.2,97.2,0.51
13.84,31972.6,35110.8,-0.1089,0.2673,149.2,97.2,0.51
13.86,31900.7,34995.0,-0.3881,-0.0174,149.2,97.2,0.51
13.88,31998.8,34834.2,-0.0073,-0.4125,149.2,97.2,0.51
13.9,31868.7,34792.1,-0.5126,-0.516,149.2,97.2,0.51
13.92,31890.7,34657.2,-0.4268,-0.8474,149.2,97.2,0.51
13.94,31849.7,34577.9,-0.5864,-1.0424,149.2,97.2,0.51
13.96,31899.6,34580.3,-0.3923,-1.0365,149.2,97.2,0.51
13.98,31760.2,34603.5,-0.934,-0.9794,149.2,97.2,0.51
14.0,31825.9,34480.7,-0.6787,-1.2813,149.2,97.2,0.51
14.02,31822.0,34489.0,-0.694,-1.2609,149.2,97.2,0.51
14.04,31732.1,34535.1,-1.0429,-1.1475,149.2,97.2,0.51
14.06,31987.5,34916.0,-0.0511,-0.2116,149.2,97.2,0.51
14.08,32145.1,35260.7,0.5613,0.6357,149.2,97.2,0.51
14.1,32304.1,35542.6,1.1788,1.3283,149.2,97.2,0.51
14.12,32351.3,35719.9,1.362,1.764,149.2,97.2,0.51
14.14,32335.2,35738.7,1.2993,1.8102,149.2,97.2,0.51
14.16,32254.9,35558.2,0.9878,1.3666,149.2,97.2,0.51
14.18,32166.8,35311.4,0.6456,0.7603,149.2,97.2,0.51
14.2,32002.4,35150.6,0.0067,0.365,149.2,97.2,0.51
14.22,32058.0,35094.6,0.2229,0.2275,149.2,97.2,0.51
14.24,32038.0,35071.7,0.1451,0.1711,149.2,97.2,0.51
14.26,31903.8,35008.2,-0.3761,0.015,149.2,97.2,0.51
14.28,31805.2,34907.4,-0.7591,-0.2326,149.2,97.2,0.51
14.3,31782.3,34779.8,-0.8479,-0.5462,149.2,97.2,0.51
14.32,31816.6,34631.8,-0.7149,-0.91,149.2,97.2,0.51
14.34,31790.3,34721.8,-0.8167,-0.6886,149.2,97.2,0.51
14.36,31852.3,34704.6,-0.5761,-0.731,149.2,97.2,0.51
14.38,31844.2,34559.5,-0.6076,-1.0875,149.2,97.2,0.51
14.4,31760.7,34473.0,-0.9319,-1.3002,149.2,97.2,0.51
14.42,31836.6,34402.5,-0.6371,-1.4733,149.2,97.2,0.51
14.44,31811.5,34689.5,-0.7348,-0.7681,149.2,97.2,0.51
14.46,31973.4,34774.1,-0.1058,-0.5603,149.2,97.2,0.51
14.48,32101.7,35230.3,0.3927,0.5609,149.2,97.2,0.51
14.5,32228.1,35518.1,0.8837,1.2681,149.2,97.2,0.51
14.52,32265.5,35712.5,1.0288,1.7459,149.2,97.2,0.51
14.54,32300.2,35748.2,1.1637,1.8337,149.2,97.2,0.51
14.56,32198.5,35515.4,0.7686,1.2615,149.2,97.2,0.51
14.58,32215.9,35368.4,0.8362,0.9003,149.2,97.2,0.51
14.6,32112.1,35230.1,0.4329,0.5603,149.2,97.2,0.51
14.62,32044.3,35134.6,0.1695,0.3257,149.2,97.2,0.51
14.64,32091.7,35154.3,0.3537,0.3741,149.2,97.2,0.51
14.66,32071.7,35048.0,0.2761,0.1129,149.2,97.2,0.51
14.68,31874.8,34940.2,-0.4886,-0.152,149.2,97.2,0.51
14.7,31877.9,34743.7,-0.4765,-0.6348,149.2,97.2,0.51
14.72,31818.1,34688.8,-0.7091,-0.7698,149.2,97.2,0.51
14.74,31872.4,34635.2,-0.498,-0.9015,149.2,97.2,0.51
14.76,31899.4,34633.5,-0.393,-0.9057,149.2,97.2,0.51
14.78,31737.2,34612.5,-1.0233,-0.9572,149.2,97.2,0.51
14.8,31706.2,34482.5,-1.1436,-1.2769,149.2,97.2,0.51
14.82,31725.8,34471.5,-1.0676,-1.3039,149.2,97.2,0.51
14.84,31796.6,34503.9,-0.7926,-1.2241,149.2,97.2,0.51
14.86,31952.4,34813.4,-0.1872,-0.4637,149.2,97.2,0.51
14.88,32115.9,35194.8,0.4478,0.4737,149.2,97.2,0.51
14.9,32285.7,35569.2,1.1072,1.3937,149.2,97.2,0.51
14.92,32373.6,35747.2,1.4486,1.8313,149.2,97.2,0.51
14.94,32323.5,35709.1,1.2539,1.7376,149.2,97.2,0.51
14.96,32307.0,35451.8,1.1902,1.1051,149.2,97.2,0.51
14.98,32174.0,35290.6,0.6733,0.709,149.2,97.2,0.51
15.0,32112.3,35237.0,0.4336,0.5775,149.2,97.2,0.51
15.02,32033.9,35048.4,0.1293,0.114,149.2,97.2,0.51
15.04,32039.5,35030.3,0.1511,0.0693,149.2,97.2,0.51
15.06,31960.2,34888.8,-0.157,-0.2784,149.2,97.2,0.51
15.08,31903.1,34888.2,-0.3789,-0.2797,149.2,97.2,0.51
15.1,31840.7,34739.4,-0.6212,-0.6456,149.2,97.2,0.51
15.12,31881.9,34650.2,-0.4613,-0.8648,149.2,97.2,0.51
15.14,31836.7,34639.3,-0.6369,-0.8914,149.2,97.2,0.51
15.16,31824.8,34662.7,-0.683,-0.8339,149.2,97.2,0.51
15.18,31799.8,34599.0,-0.7802,-0.9906,149.2,97.2,0.51
15.2,31727.4,34559.3,-1.0614,-1.088,149.2,97.2,0.51
15.22,31768.3,34485.1,-0.9026,-1.2704,149.2,97.2,0.51
15.24,31759.8,34567.9,-0.9356,-1.0669,149.2,97.2,0.51
15.26,31858.4,34844.3,-0.5526,-0.3877,149.2,97.2,0.51
15.28,32109.0,35295.1,0.4207,0.7202,149.2,97.2,0.51
15.3,32214.6,35545.5,0.8309,1.3354,149.2,97.2,0.51
15.32,32359.0,35674.7,1.3919,1.6529,149.2,97.2,0.51
15.34,32326.6,35727.5,1.266,1.7828,149.2,97.2,0.51
15.36,32258.4,35470.4,1.0013,1.1508,149.2,97.2,0.51
15.38,32272.2,35455.8,1.0546,1.1151,149.2,97.2,0.51
15.4,32038.1,35187.3,0.1457,0.4551,149.2,97.2,0.51
15.42,32031.5,35126.6,0.1199,0.306,149.2,97.2,0.51
15.44,31982.4,34946.8,-0.0707,-0.1358,149.2,97.2,0.51
15.46,32105.6,35006.6,0.4076,0.0112,149.2,97.2,0.51
15.48,31891.6,34953.6,-0.4235,-0.1191,149.2,97.2,0.51
15.5,31920.8,34825.0,-0.3099,-0.435,149.2,97.2,0.51
15.52,31835.1,34672.9,-0.643,-0.8088,149.2,97.2,0.51
15.54,31899.7,34702.3,-0.3918,-0.7366,149.2,97.2,0.51
15.56,31856.4,34721.8,-0.5602,-0.6888,149.2,97.2,0.51
15.58,31801.7,34676.9,-0.7726,-0.799,149.2,97.2,0.51
15.6,31764.6,34615.6,-0.9166,-0.9496,149.2,97.2,0.51
15.62,31803.7,34418.6,-0.765,-1.4339,149.2,97.2,0.51
15.64,31713.4,34562.0,-1.1155,-1.0814,149.2,97.2,0.51
15.66,31989.3,34806.6,-0.044,-0.4802,149.2,97.2,0.51
15.68,32048.7,35063.1,0.1869,0.1499,149.2,97.2,0.51
15.7,32291.5,35387.7,1.1297,0.9477,149.2,97.2,0.51
15.72,32354.4,35733.4,1.3743,1.7973,149.2,97.2,0.51
15.74,32344.9,35739.7,1.337,1.8126,149.2,97.2,0.51
15.76,32322.2,35736.5,1.2488,1.8049,149.2,97.2,0.51
15.78,32140.2,35350.6,0.5421,0.8565,149.2,97.2,0.51
15.8,32161.7,35265.2,0.6254,0.6466,149.2,97.2,0.51
15.82,32110.3,35139.8,0.426,0.3386,149.2,97.2,0.51
15.84,32037.1,35133.6,0.1415,0.3232,149.2,97.2,0.51
15.86,31939.7,35012.5,-0.2367,0.0258,149.2,97.2,0.51
15.88,31943.3,34871.2,-0.2228,-0.3215,149.2,97.2,0.51
15.9,31918.6,34766.7,-0.3185,-0.5784,149.2,97.2,0.51
15.92,31911.1,34791.0,-0.3478,-0.5187,149.2,97.2,0.51
15.94,31829.8,34711.5,-0.6636,-0.7141,149.2,97.2,0.51
15.96,31876.6,34567.7,-0.4817,-1.0675,149.2,97.2,0.51
15.98,31875.1,34576.3,-0.4874,-1.0463,149.2,97.2,0.51
16.0,31790.0,34546.8,-0.8181,-1.1188,149.2,97.2,0.51
16.02,31763.4,34423.7,-0.9214,-1.4214,149.2,97.2,0.51
16.04,31872.1,34448.2,-0.4991,-1.3611,149.2,97.2,0.51
16.06,31999.1,34711.1,-0.0059,-0.715,149.2,97.2,0.51
16.08,32138.1,35151.2,0.5341,0.3665,149.2,97.2,0.51
16.1,32260.0,35445.9,1.0073,1.0908,149.2,97.2,0.51
16.12,32330.5,35736.2,1.2811,1.8042,149.2,97.2,0.51
16.14,32404.4,35766.1,1.5683,1.8776,149.2,97.2,0.51
16.16,32405.7,35601.1,1.5734,1.4721,149.2,97.2,0.51
16.18,32191.6,35440.6,0.7418,1.0777,149.2,97.2,0.51
16.2,32131.2,35325.3,0.5071,0.7943,149.2,97.2,0.51
16.22,32089.2,35056.4,0.3441,0.1335,149.2,97.2,0.51
16.24,31931.0,35130.1,-0.2706,0.3145,149.2,97.2,0.51
16.26,32002.1,35029.8,0.0059,0.0681,149.2,97.2,0.51
16.28,32015.9,34807.4,0.0592,-0.4783,149.2,97.2,0.51
16.3,31977.0,34782.9,-0.0917,-0.5385,149.2,97.2,0.51
16.32,31802.0,34660.0,-0.7716,-0.8406,149.2,97.2,0.51
16.34,31789.9,34664.2,-0.8186,-0.8303,149.2,97.2,0.51
16.36,31810.6,34667.7,-0.7381,-0.8218,149.2,97.2,0.51
16.38,31757.1,34594.3,-0.9458,-1.0021,149.2,97.2,0.51
16.4,31744.4,34557.3,-0.9952,-1.0929,149.2,97.2,0.51
16.42,31771.6,34497.3,-0.8896,-1.2405,149.2,97.2,0.51
16.44,31760.7,34481.6,-0.932,-1.279,149.2,97.2,0.51
16.46,31805.7,34641.5,-0.7569,-0.8862,149.2,97.2,0.51
16.48,32000.7,35023.2,0.0001,0.0521,149.2,97.2,0.51
16.5,32235.9,35447.2,0.914,1.0939,149.2,97.2,0.51
16.52,32343.8,35804.8,1.3327,1.9727,149.2,97.2,0.51
16.54,32312.6,35690.5,1.2117,1.6919,149.2,97.2,0.51
16.56,32251.2,35618.6,0.9734,1.5152,149.2,97.2,0.51
16.58,32174.6,35391.6,0.6756,0.9572,149.2,97.2,0.51
16.6,32064.6,35179.4,0.2484,0.4358,149.2,97.2,0.51
16.62,32211.8,35174.0,0.8204,0.4225,149.2,97.2,0.51
16.64,32005.3,35180.9,0.0182,0.4394,149.2,97.2,0.51
16.66,32161.0,35025.7,0.6229,0.0581,149.2,97.2,0.51
16.68,31920.8,34906.4,-0.3102,-0.235,149.2,97.2,0.51
16.7,31910.4,34789.7,-0.3503,-0.5218,149.2,97.2,0.51
16.72,31882.5,34628.9,-0.4586,-0.917,149.2,97.2,0.51
16.74,31910.8,34672.4,-0.3489,-0.8101,149.2,97.2,0.51
16.76,31827.4,34660.9,-0.673,-0.8384,149.2,97.2,0.51
16.78,31782.2,34531.7,-0.8483,-1.1559,149.2,97.2,0.51
16.8,31827.9,34545.4,-0.6708,-1.1222,149.2,97.2,0.51
16.82,31730.9,34581.9,-1.0477,-1.0324,149.2,97.2,0.51
16.84,31787.3,34442.7,-0.8288,-1.3746,149.2,97.2,0.51
16.86,31759.4,34676.7,-0.9368,-0.7995,149.2,97.2,0.51
16.88,32099.9,35052.7,0.3855,0.1246,149.2,97.2,0.51
16.9,32197.1,35317.5,0.7631,0.7753,149.2,97.2,0.51
16.92,32376.7,35642.3,1.4608,1.5735,149.2,97.2,0.51
16.94,32351.3,35781.4,1.3621,1.9153,149.2,97.2,0.51
16.96,32306.3,35619.7,1.1873,1.5179,149.2,97.2,0.51
16.98,32334.9,35462.1,1.2983,1.1306,149.2,97.2,0.51
17.0,32119.8,35198.4,0.4627,0.4825,149.2,97.2,0.51
17.02,32061.4,35082.3,0.2361,0.1971,149.2,97.2,0.51
17.04,31978.2,35100.0,-0.087,0.2408,149.2,97.2,0.51
17.06,31975.6,34992.1,-0.0971,-0.0244,149.2,97.2,0.51
17.08,31860.2,35010.3,-0.5455,0.0202,149.2,97.2,0.51
17.1,31973.9,34852.6,-0.104,-0.3672,149.2,97.2,0.51
17.12,31850.2,34849.9,-0.5844,-0.374,149.2,97.2,0.51
17.14,31829.8,34694.6,-0.6636,-0.7555,149.2,97.2,0.51
17.16,31810.3,34602.7,-0.7394,-0.9813,149.2,97.2,0.51
17.18,31831.7,34608.7,-0.656,-0.9666,149.2,97.2,0.51
17.2,31799.0,34499.6,-0.783,-1.2348,149.2,97.2,0.51
17.22,31771.9,34417.7,-0.8885,-1.436,149.2,97.2,0.51
17.24,31747.4,34437.6,-0.9834,-1.387,149.2,97.2,0.51
17.26,31839.1,34634.2,-0.6273,-0.9041,149.2,97.2,0.51
17.28,31962.6,34977.1,-0.1477,-0.0613,149.2,97.2,0.51
17.3,32229.6,35381.1,0.8893,0.9315,149.2,97.2,0.51
17.32,32377.1,35722.3,1.4623,1.7701,149.2,97.2,0.51
17.34,32473.4,35780.2,1.8364,1.9123,149.2,97.2,0.51
17.36,32284.3,35637.9,1.1016,1.5627,149.2,97.2,0.51
17.38,32259.3,35450.6,1.0049,1.1023,149.2,97.2,0.51
17.4,32121.7,35317.3,0.4702,0.7747,149.2,97.2,0.51
17.42,32041.8,35200.1,0.1601,0.4866,149.2,97.2,0.51
17.44,32020.0,35163.9,0.0753,0.3976,149.2,97.2,0.51
17.46,32025.4,35026.7,0.0961,0.0605,149.2,97.2,0.51
17.48,31999.0,34920.6,-0.0064,-0.2001,149.2,97.2,0.51
17.5,31913.1,34798.6,-0.34,-0.4999,149.2,97.2,0.51
17.52,31910.2,34639.2,-0.3512,-0.8917,149.2,97.2,0.51
17.54,31846.7,34701.5,-0.5981,-0.7386,149.2,97.2,0.51
17.56,31900.5,34646.6,-0.3889,-0.8735,149.2,97.2,0.51
17.58,31807.5,34662.8,-0.7501,-0.8338,149.2,97.2,0.51
17.6,31847.6,34545.9,-0.5945,-1.1209,149.2,97.2,0.51
17.62,31774.6,34420.8,-0.878,-1.4283,149.2,97.2,0.51
17.64,31825.6,34515.4,-0.6797,-1.1959,149.2,97.2,0.51
17.66,31863.7,34619.4,-0.532,-0.9405,149.2,97.2,0.51
17.68,32024.3,34908.9,0.0919,-0.2289,149.2,97.2,0.51
17.7,32147.1,35403.8,0.5688,0.9873,149.2,97.2,0.51
17.72,32271.8,35586.9,1.0533,1.4372,149.2,97.2,0.51
17.74,32265.3,35703.5,1.0279,1.7237,149.2,97.2,0.51
17.76,32236.9,35650.9,0.9176,1.5946,149.2,97.2,0.51
17.78,32212.3,35455.7,0.8223,1.1148,149.2,97.2,0.51
17.8,32194.8,35300.7,0.7543,0.734,149.2,97.2,0.51
17.82,31975.3,35178.8,-0.0982,0.4344,149.2,97.2,0.51
17.84,32122.9,35042.2,0.4748,0.0986,149.2,97.2,0.51
17.86,32094.4,35097.3,0.3642,0.2341,149.2,97.2,0.51
17.88,31898.0,34855.3,-0.3988,-0.3607,149.2,97.2,0.51
17.9,31928.1,34882.5,-0.2815,-0.2937,149.2,97.2,0.51
17.92,31904.4,34786.4,-0.3737,-0.5301,149.2,97.2,0.51
17.94,31811.4,34687.1,-0.7349,-0.7739,149.2,97.2,0.51
17.96,31846.2,34692.5,-0.6,-0.7607,149.2,97.2,0.51
17.98,31813.1,34585.1,-0.7284,-1.0247,149.2,97.2,0.51
18.0,31826.4,34643.8,-0.6766,-0.8804,149.2,97.2,0.51
18.02,31685.7,34460.3,-1.2233,-1.3314,149.2,97.2,0.51
18.04,31771.0,34457.1,-0.8919,-1.3392,149.2,97.2,0.51
18.06,31827.1,34582.9,-0.6742,-1.0301,149.2,97.2,0.51
18.08,31935.0,34818.8,-0.2547,-0.4503,149.2,97.2,0.51
18.1,32114.1,35305.5,0.4407,0.7456,149.2,97.2,0.51
18.12,32234.8,35622.7,0.9095,1.5253,149.2,97.2,0.51
18.14,32331.4,35729.8,1.2848,1.7884,149.2,97.2,0.51
18.16,32337.6,35713.1,1.309,1.7474,149.2,97.2,0.51
18.18,32180.0,35474.9,0.6966,1.162,149.2,97.2,0.51
18.2,32146.8,35266.9,0.5679,0.6509,149.2,97.2,0.51
18.22,32086.3,35213.9,0.3327,0.5207,149.2,97.2,0.51
18.24,32029.4,35071.4,0.1119,0.1703,149.2,97.2,0.51
18.26,31988.7,35067.7,-0.0464,0.1613,149.2,97.2,0.51
18.28,31972.8,35009.3,-0.1082,0.0179,149.2,97.2,0.51
18.3,31904.5,34886.3,-0.3733,-0.2844,149.2,97.2,0.51
18.32,31871.8,34769.7,-0.5003,-0.571,149.2,97.2,0.51
18.34,31892.7,34654.0,-0.4191,-0.8553,149.2,97.2,0.51
18.36,31879.3,34693.0,-0.4714,-0.7596,149.2,97.2,0.51
18.38,31790.8,34738.3,-0.815,-0.6482,149.2,97.2,0.51
18.4,31776.4,34621.8,-0.8709,-0.9344,149.2,97.2,0.51
18.42,31740.1,34575.0,-1.0118,-1.0494,149.2,97.2,0.51
18.44,31725.5,34420.4,-1.0685,-1.4294,149.2,97.2,0.51
18.46,31814.1,34576.5,-0.7243,-1.0457,149.2,97.2,0.51
18.48,31963.2,34977.6,-0.1455,-0.06,149.2,97.2,0.51
18.5,32075.5,35254.1,0.2906,0.6195,149.2,97.2,0.51
18.52,32319.9,35517.0,1.24,1.2654,149.2,97.2,0.51
18.54,32389.9,35679.1,1.5118,1.6637,149.2,97.2,0.51
18.56,32313.0,35777.6,1.2132,1.9058,149.2,97.2,0.51
18.58,32148.1,35544.4,0.5729,1.3327,149.2,97.2,0.51
18.6,32195.0,35329.6,0.7549,0.8048,149.2,97.2,0.51
18.62,32049.8,35174.4,0.191,0.4234,149.2,97.2,0.51
18.64,32109.3,35099.1,0.4222,0.2385,149.2,97.2,0.51
18.66,32010.9,35053.3,0.0401,0.1259,149.2,97.2,0.51
18.68,31986.1,35033.6,-0.0564,0.0774,149.2,97.2,0.51
18.7,31963.1,34914.1,-0.1458,-0.2162,149.2,97.2,0.51
18.72,31814.1,34818.9,-0.7244,-0.4501,149.2,97.2,0.51
18.74,31852.8,34776.4,-0.5742,-0.5546,149.2,97.2,0.51
18.76,31751.3,34727.9,-0.9683,-0.6738,149.2,97.2,0.51
18.78,31811.9,34714.1,-0.7331,-0.7077,149.2,97.2,0.51
18.8,31803.9,34540.2,-0.7642,-1.135,149.2,97.2,0.51
18.82,31833.4,34480.6,-0.6496,-1.2816,149.2,97.2,0.51
18.84,31784.4,34501.5,-0.84,-1.2301,149.2,97.2,0.51
18.86,31849.8,34502.2,-0.5857,-1.2285,149.2,97.2,0.51
18.88,31911.6,34897.1,-0.3456,-0.2579,149.2,97.2,0.51
18.9,32096.8,35166.2,0.3737,0.4034,149.2,97.2,0.51
18.92,32234.0,35581.7,0.9062,1.4244,149.2,97.2,0.51
18.94,32343.0,35753.7,1.3297,1.8471,149.2,97.2,0.51
18.96,32249.7,35693.8,0.9675,1.7,149.2,97.2,0.51
18.98,32264.6,35497.2,1.0253,1.2168,149.2,97.2,0.51
19.0,32142.0,35274.9,0.5491,0.6704,149.2,97.2,0.51
19.02,31993.3,35157.4,-0.0286,0.3818,149.2,97.2,0.51
19.04,31975.0,35064.6,-0.0997,0.1537,149.2,97.2,0.51
19.06,31964.3,35225.4,-0.1413,0.5489,149.2,97.2,0.51
19.08,31970.9,34990.7,-0.1155,-0.0279,149.2,97.2,0.51
19.1,31961.6,34852.6,-0.1518,-0.3673,149.2,97.2,0.51
19.12,31853.7,34747.5,-0.5707,-0.6255,149.2,97.2,0.51
19.14,31799.7,34748.2,-0.7803,-0.6239,149.2,97.2,0.51
19.16,31844.1,34610.6,-0.608,-0.962,149.2,97.2,0.51
19.18,31825.8,34653.9,-0.6792,-0.8555,149.2,97.2,0.51
19.2,31801.1,34596.0,-0.775,-0.9979,149.2,97.2,0.51
19.22,31766.7,34406.5,-0.9085,-1.4635,149.2,97.2,0.51
19.24,31692.8,34491.7,-1.1956,-1.2542,149.2,97.2,0.51
19.26,31790.2,34547.3,-0.8172,-1.1175,149.2,97.2,0.51
19.28,31915.4,34789.1,-0.3311,-0.5233,149.2,97.2,0.51
19.3,32065.1,35196.7,0.2506,0.4784,149.2,97.2,0.51
19.32,32288.6,35520.6,1.1186,1.2743,149.2,97.2,0.51
19.34,32350.4,35795.6,1.3585,1.95,149.2,97.2,0.51
19.36,32284.1,35749.2,1.101,1.836,149.2,97.2,0.51
19.38,32286.4,35591.5,1.11,1.4484,149.2,97.2,0.51
19.4,32185.1,35390.1,0.7164,0.9536,149.2,97.2,0.51
19.42,32052.6,35193.5,0.2019,0.4703,149.2,97.2,0.51
19.44,32077.6,35139.1,0.299,0.3368,149.2,97.2,0.51
19.46,31960.1,35034.4,-0.1574,0.0796,149.2,97.2,0.51
19.48,32000.4,34893.3,-0.0007,-0.2673,149.2,97.2,0.51
19.5,31955.9,34928.9,-0.1736,-0.1797,149.2,97.2,0.51
19.52,31790.6,34894.3,-0.8157,-0.2647,149.2,97.2,0.51
19.54,31881.1,34782.0,-0.4641,-0.5407,149.2,97.2,0.51
19.56,31850.1,34704.9,-0.5847,-0.7301,149.2,97.2,0.51
19.58,31848.7,34628.6,-0.5901,-0.9178,149.2,97.2,0.51
19.6,31783.6,34632.4,-0.8428,-0.9084,149.2,97.2,0.51
19.62,31809.4,34435.6,-0.7427,-1.392,149.2,97.2,0.51
19.64,31823.5,34436.0,-0.6881,-1.3912,149.2,97.2,0.51
19.66,31755.5,34467.4,-0.9521,-1.314,149.2,97.2,0.51
19.68,31970.0,34774.8,-0.1191,-0.5584,149.2,97.2,0.51
19.7,32043.2,35101.6,0.1654,0.2445,149.2,97.2,0.51
19.72,32102.3,35528.1,0.3947,1.2926,149.2,97.2,0.51
19.74,32309.4,35807.9,1.1992,1.9803,149.2,97.2,0.51
19.76,32390.9,35695.2,1.5157,1.7033,149.2,97.2,0.51
19.78,32292.6,35542.5,1.1341,1.3282,149.2,97.2,0.51
19.8,32251.9,35200.5,0.9758,0.4875,149.2,97.2,0.51
19.82,32096.4,35308.5,0.372,0.7532,149.2,97.2,0.51
19.84,31967.1,35047.7,-0.1303,0.1121,149.2,97.2,0.51
19.86,31986.5,35114.4,-0.0547,0.276,149.2,97.2,0.51
19.88,32015.8,35051.7,0.059,0.122,149.2,97.2,0.51
19.9,31953.4,34944.7,-0.1835,-0.1409,149.2,97.2,0.51
19.92,31870.7,34735.3,-0.5045,-0.6555,149.2,97.2,0.51
19.94,31873.7,34716.5,-0.493,-0.7018,149.2,97.2,0.51
19.96,31832.9,34747.8,-0.6515,-0.625,149.2,97.2,0.51
19.98,31796.1,34721.8,-0.7945,-0.6887,149.2,97.2,0.51
20.0,31799.6,34505.9,-0.781,-1.2194,149.2,97.2,0.51
20.02,31808.1,34584.4,-0.7476,-1.0264,149.2,97.2,0.51
20.04,31881.4,34545.7,-0.4633,-1.1215,149.2,97.2,0.51
20.06,31736.8,34493.0,-1.0248,-1.2511,149.2,97.2,0.51
20.08,31905.9,34680.5,-0.368,-0.7902,149.2,97.2,0.51
20.1,32004.1,35111.8,0.0133,0.2698,149.2,97.2,0.51
20.12,32228.2,35456.2,0.8837,1.1159,149.2,97.2,0.51
20.14,32288.4,35709.0,1.1176,1.7372,149.2,97.2,0.51
20.16,32314.7,35775.0,1.2198,1.8994,149.2,97.2,0.51
20.18,32205.3,35611.7,0.7948,1.4982,149.2,97.2,0.51
20.2,32173.1,35341.1,0.6701,0.8331,149.2,97.2,0.51
20.22,32077.7,35270.7,0.2994,0.6601,149.2,97.2,0.51
20.24,32009.1,35136.0,0.0328,0.3292,149.2,97.2,0.51
20.26,32015.4,35109.6,0.0573,0.2642,149.2,97.2,0.51
20.28,32093.4,35082.6,0.3602,0.198,149.2,97.2,0.51
20.3,31987.0,34918.3,-0.0529,-0.2057,149.2,97.2,0.51
20.32,31917.7,34831.5,-0.322,-0.4192,149.2,97.2,0.51
20.34,31825.6,34689.9,-0.6798,-0.7671,149.2,97.2,0.51
20.36,31856.0,34701.0,-0.5618,-0.7399,149.2,97.2,0.51
20.38,31849.9,34632.3,-0.5856,-0.9087,149.2,97.2,0.51
20.4,31777.2,34706.8,-0.8677,-0.7255,149.2,97.2,0.51
20.42,31736.4,34508.5,-1.0262,-1.213,149.2,97.2,0.51
20.44,31702.4,34455.5,-1.1584,-1.3432,149.2,97.2,0.51
20.46,31750.9,34488.6,-0.97,-1.2618,149.2,97.2,0.51
20.48,31861.3,34773.6,-0.5412,-0.5614,149.2,97.2,0.51
20.5,32007.1,35030.3,0.0252,0.0694,149.2,97.2,0.51
20.52,32153.6,35459.2,0.5941,1.1234,149.2,97.2,0.51
20.54,32387.3,35638.7,1.5018,1.5644,149.2,97.2,0.51
20.56,32351.4,35723.8,1.3624,1.7738,149.2,97.2,0.51
20.58,32274.3,35580.9,1.0628,1.4224,149.2,97.2,0.51
20.6,32205.4,35481.8,0.7955,1.179,149.2,97.2,0.51
20.62,32097.9,35272.9,0.3777,0.6657,149.2,97.2,0.51
20.64,32060.8,35054.1,0.2337,0.1279,149.2,97.2,0.51
20.66,32068.6,35124.8,0.2641,0.3015,149.2,97.2,0.51
20.68,32048.8,35026.7,0.1873,0.0605,149.2,97.2,0.51
20.7,31927.5,35006.9,-0.2841,0.012,149.2,97.2,0.51
20.72,31915.6,34734.8,-0.3303,-0.6567,149.2,97.2,0.51
20.74,31816.0,34687.6,-0.7173,-0.7728,149.2,97.2,0.51
20.76,31843.4,34682.5,-0.6108,-0.7852,149.2,97.2,0.51
20.78,31922.6,34651.5,-0.303,-0.8615,149.2,97.2,0.51
20.8,31825.0,34652.9,-0.682,-0.858,149.2,97.2,0.51
20.82,31820.2,34456.0,-0.7007,-1.342,149.2,97.2,0.51
20.84,31831.1,34382.4,-0.6585,-1.5227,149.2,97.2,0.51
20.86,31846.1,34461.8,-0.6003,-1.3277,149.2,97.2,0.51
20.88,31860.7,34628.4,-0.5436,-0.9181,149.2,97.2,0.51
20.9,32044.6,34979.1,0.1708,-0.0565,149.2,97.2,0.51
20.92,32204.9,35430.9,0.7933,1.0539,149.2,97.2,0.51
20.94,32326.9,35664.3,1.2674,1.6275,149.2,97.2,0.51
20.96,32322.3,35807.0,1.2495,1.9781,149.2,97.2,0.51
20.98,32246.5,35641.1,0.9549,1.5703,149.2,97.2,0.51
21.0,32232.9,35431.4,0.9022,1.0551,149.2,97.2,0.51
21.02,32100.5,35294.5,0.388,0.7186,149.2,97.2,0.51
21.04,32093.7,35138.1,0.3616,0.3343,149.2,97.2,0.51
21.06,32022.9,35080.8,0.0867,0.1935,149.2,97.2,0.51
21.08,32015.5,35018.4,0.0578,0.0402,149.2,97.2,0.51
21.1,32027.1,34910.8,0.1029,-0.2243,149.2,97.2,0.51
21.12,31805.9,34765.8,-0.7563,-0.5807,149.2,97.2,0.51
21.14,31957.9,34666.4,-0.1659,-0.8249,149.2,97.2,0.51
21.16,31897.7,34748.9,-0.3996,-0.6221,149.2,97.2,0.51
21.18,31750.4,34721.1,-0.972,-0.6903,149.2,97.2,0.51
21.2,31894.3,34591.2,-0.4128,-1.0097,149.2,97.2,0.51
21.22,31838.3,34634.9,-0.6304,-0.9022,149.2,97.2,0.51
21.24,31797.2,34518.9,-0.7903,-1.1874,149.2,97.2,0.51
21.26,31712.3,34423.2,-1.1199,-1.4226,149.2,97.2,0.51
21.28,31863.6,34668.3,-0.5323,-0.8203,149.2,97.2,0.51
21.3,31996.9,34970.2,-0.0146,-0.0784,149.2,97.2,0.51
21.32,32167.5,35343.9,0.648,0.8401,149.2,97.2,0.51
21.34,32274.1,35640.1,1.0623,1.5679,149.2,97.2,0.51
21.36,32379.6,35806.8,1.4721,1.9777,149.2,97.2,0.51
21.38,32315.6,35725.2,1.2233,1.7771,149.2,97.2,0.51
21.4,32165.5,35494.7,0.6404,1.2107,149.2,97.2,0.51
21.42,32266.7,35402.8,1.0333,0.9848,149.2,97.2,0.51
21.44,32047.3,35117.2,0.1812,0.2829,149.2,97.2,0.51
21.46,32016.8,35050.6,0.0628,0.1193,149.2,97.2,0.51
21.48,31965.5,34975.2,-0.1364,-0.0659,149.2,97.2,0.51
21.5,31943.1,34966.6,-0.2233,-0.0871,149.2,97.2,0.51
21.52,31951.7,34916.7,-0.19,-0.2097,149.2,97.2,0.51
21.54,31905.5,34755.6,-0.3696,-0.6058,149.2,97.2,0.51
21.56,31885.6,34554.9,-0.4468,-1.0988,149.2,97.2,0.51
21.58,31800.7,34582.6,-0.7764,-1.0308,149.2,97.2,0.51
21.6,31912.2,34678.8,-0.3434,-0.7943,149.2,97.2,0.51
21.62,31827.9,34672.6,-0.6709,-0.8097,149.2,97.2,0.51
21.64,31759.1,34469.5,-0.9381,-1.3087,149.2,97.2,0.51
21.66,31738.3,34417.4,-1.0189,-1.4367,149.2,97.2,0.51
21.68,31826.8,34530.0,-0.6752,-1.16,149.2,97.2,0.51
21.7,31977.0,34886.5,-0.0916,-0.284,149.2,97.2,0.51
21.72,32109.8,35280.9,0.4239,0.6852,149.2,97.2,0.51
21.74,32232.0,35678.2,0.8985,1.6616,149.2,97.2,0.51
21.76,32306.9,35744.9,1.1896,1.8255,149.2,97.2,0.51
21.78,32394.8,35722.8,1.5312,1.7712,149.2,97.2,0.51
21.8,32156.9,35541.0,0.6068,1.3243,149.2,97.2,0.51
21.82,32116.9,35303.2,0.4516,0.7401,149.2,97.2,0.51
21.84,32135.9,35234.6,0.5253,0.5715,149.2,97.2,0.51
21.86,32029.4,35077.4,0.1118,0.1852,149.2,97.2,0.51
21.88,32062.8,35101.4,0.2414,0.2442,149.2,97.2,0.51
21.9,31975.6,34982.1,-0.0974,-0.0491,149.2,97.2,0.51
21.92,31932.2,34796.3,-0.2658,-0.5056,149.2,97.2,0.51
21.94,31778.4,34796.2,-0.8633,-0.5059,149.2,97.2,0.51
21.96,31878.7,34715.8,-0.4738,-0.7035,149.2,97.2,0.51
21.98,31942.0,34681.6,-0.2277,-0.7876,149.2,97.2,0.51
22.0,31834.8,34642.1,-0.644,-0.8846,149.2,97.2,0.51
22.02,31794.6,34637.5,-0.8003,-0.896,149.2,97.2,0.51
22.04,31742.9,34512.5,-1.0011,-1.2031,149.2,97.2,0.51
22.06,31847.5,34518.0,-0.5948,-1.1894,149.2,97.2,0.51
22.08,31806.2,34619.0,-0.7553,-0.9413,149.2,97.2,0.51
22.1,31918.7,34889.1,-0.3182,-0.2777,149.2,97.2,0.51
22.12,32099.5,35234.7,0.384,0.5716,149.2,97.2,0.51
22.14,32328.8,35642.7,1.2744,1.5744,149.2,97.2,0.51
22.16,32353.9,35761.8,1.3722,1.867,149.2,97.2,0.51
22.18,32328.9,35716.4,1.275,1.7554,149.2,97.2,0.51
22.2,32291.4,35571.0,1.1292,1.398,149.2,97.2,0.51
22.22,32129.6,35370.0,0.5008,0.9043,149.2,97.2,0.51
22.24,32076.6,35221.4,0.295,0.5391,149.2,97.2,0.51
22.26,32053.7,35080.5,0.2059,0.1927,149.2,97.2,0.51
22.28,31947.6,35159.8,-0.2059,0.3875,149.2,97.2,0.51
22.3,31969.0,34922.7,-0.123,-0.1951,149.2,97.2,0.51
22.32,31993.1,34846.7,-0.0294,-0.3817,149.2,97.2,0.51
22.34,31912.7,34710.2,-0.3415,-0.7172,149.2,97.2,0.51
22.36,31803.8,34700.9,-0.7645,-0.7401,149.2,97.2,0.51
22.38,31843.1,34722.2,-0.612,-0.6879,149.2,97.2,0.51
22.4,31812.6,34578.9,-0.7303,-1.0398,149.2,97.2,0.51
22.42,31838.8,34629.2,-0.6284,-0.9162,149.2,97.2,0.51
22.44,31771.7,34477.9,-0.889,-1.2881,149.2,97.2,0.51
22.46,31778.0,34365.7,-0.8646,-1.5638,149.2,97.2,0.51
22.48,31743.4,34623.2,-0.9992,-0.9311,149.2,97.2,0.51
22.5,31918.4,34846.5,-0.3194,-0.3824,149.2,97.2,0.51
22.52,32133.8,35189.9,0.5173,0.4616,149.2,97.2,0.51
22.54,32288.6,35607.9,1.1185,1.4887,149.2,97.2,0.51
22.56,32303.6,35758.2,1.1769,1.8583,149.2,97.2,0.51
22.58,32275.5,35669.0,1.0677,1.639,149.2,97.2,0.51
22.6,32169.2,35499.0,0.6548,1.2213,149.2,97.2,0.51
22.62,32201.4,35393.8,0.7799,0.9626,149.2,97.2,0.51
22.64,32119.2,35194.4,0.4605,0.4727,149.2,97.2,0.51
22.66,32048.1,35123.5,0.1845,0.2984,149.2,97.2,0.51
22.68,32022.7,35043.6,0.0857,0.1021,149.2,97.2,0.51
22.7,31928.7,34925.4,-0.2792,-0.1884,149.2,97.2,0.51
22.72,31967.3,34942.0,-0.1294,-0.1475,149.2,97.2,0.51
22.74,31809.6,34685.7,-0.7421,-0.7774,149.2,97.2,0.51
22.76,31897.3,34798.6,-0.4012,-0.5,149.2,97.2,0.51
22.78,31831.0,34744.5,-0.659,-0.6329,149.2,97.2,0.51
22.8,31768.6,34666.6,-0.9013,-0.8245,149.2,97.2,0.51
22.82,31785.7,34645.9,-0.8349,-0.8753,149.2,97.2,0.51
22.84,31778.1,34510.2,-0.8642,-1.2088,149.2,97.2,0.51
22.86,31620.5,34427.4,-1.4764,-1.4123,149.2,97.2,0.51
22.88,31734.9,34497.0,-1.0322,-1.2411,149.2,97.2,0.51
22.9,31863.4,34805.8,-0.5329,-0.4823,149.2,97.2,0.51
22.92,32098.2,35195.3,0.3788,0.4749,149.2,97.2,0.51
22.94,32315.4,35514.3,1.2226,1.2588,149.2,97.2,0.51
22.96,32353.0,35739.0,1.3687,1.8109,149.2,97.2,0.51
22.98,32317.7,35610.6,1.2315,1.4955,149.2,97.2,0.51
23.0,32228.4,35599.0,0.8848,1.4669,149.2,97.2,0.51
23.02,32123.2,35381.0,0.4762,0.9312,149.2,97.2,0.51
23.04,32183.7,35247.4,0.7112,0.6029,149.2,97.2,0.51
23.06,32031.0,35093.2,0.118,0.224,149.2,97.2,0.51
23.08,31993.2,35121.0,-0.0288,0.2922,149.2,97.2,0.51
23.1,31924.2,35092.2,-0.2969,0.2216,149.2,97.2,0.51
23.12,31972.1,34823.4,-0.1108,-0.4391,149.2,97.2,0.51
23.14,31897.6,34760.4,-0.4001,-0.594,149.2,97.2,0.51
23.16,31853.3,34698.2,-0.5724,-0.7468,149.2,97.2,0.51
23.18,31817.0,34684.9,-0.7132,-0.7793,149.2,97.2,0.51
23.2,31861.2,34568.9,-0.5416,-1.0644,149.2,97.2,0.51
23.22,31774.7,34570.4,-0.8774,-1.0608,149.2,97.2,0.51
23.24,31738.2,34505.2,-1.0192,-1.2209,149.2,97.2,0.51
23.26,31755.0,34498.7,-0.954,-1.2369,149.2,97.2,0.51
23.28,31875.6,34523.5,-0.4857,-1.1761,149.2,97.2,0.51
23.3,31931.0,34839.1,-0.2706,-0.4005,149.2,97.2,0.51
23.32,32067.9,35094.8,0.2614,0.228,149.2,97.2,0.51
23.34,32278.9,35535.2,1.0808,1.3102,149.2,97.2,0.51
23.36,32339.4,35684.8,1.3156,1.6777,149.2,97.2,0.51
23.38,32356.1,35714.8,1.3805,1.7515,149.2,97.2,0.51
23.4,32233.4,35615.0,0.9041,1.5063,149.2,97.2,0.51
23.42,32178.7,35375.9,0.6916,0.9187,149.2,97.2,0.51
23.44,32095.0,35166.9,0.3664,0.405,149.2,97.2,0.51
23.46,32096.5,35096.2,0.3722,0.2313,149.2,97.2,0.51
23.48,32045.4,35141.4,0.174,0.3425,149.2,97.2,0.51
23.5,32068.8,35073.5,0.2646,0.1755,149.2,97.2,0.51
23.52,31892.6,34771.8,-0.4194,-0.5659,149.2,97.2,0.51
23.54,31931.2,34792.7,-0.2696,-0.5145,149.2,97.2,0.51
23.56,31904.2,34669.6,-0.3747,-0.8171,149.2,97.2,0.51
23.58,31856.3,34619.6,-0.5605,-0.9399,149.2,97.2,0.51
23.6,31798.6,34581.0,-0.7845,-1.0348,149.2,97.2,0.51
23.62,31849.0,34493.2,-0.5889,-1.2505,149.2,97.2,0.51
23.64,31738.1,34501.5,-1.0196,-1.23,149.2,97.2,0.51
23.66,31764.5,34460.5,-0.9171,-1.3309,149.2,97.2,0.51
23.68,31642.1,34514.2,-1.3926,-1.1989,149.2,97.2,0.51
23.7,31846.0,34787.7,-0.6006,-0.5267,149.2,97.2,0.51
23.72,31927.1,35049.4,-0.2857,0.1164,149.2,97.2,0.51
23.74,32137.8,35437.5,0.5326,1.0701,149.2,97.2,0.51
23.76,32326.8,35672.1,1.2669,1.6465,149.2,97.2,0.51
23.78,32356.0,35783.5,1.3802,1.9203,149.2,97.2,0.51
23.8,32285.4,35569.5,1.106,1.3945,149.2,97.2,0.51
23.82,32286.8,35480.0,1.1116,1.1746,149.2,97.2,0.51
23.84,32087.7,35182.0,0.3383,0.4422,149.2,97.2,0.51
23.86,32126.2,35046.9,0.4878,0.1103,149.2,97.2,0.51
23.88,31943.8,35114.1,-0.2206,0.2754,149.2,97.2,0.51
23.9,31939.8,34994.6,-0.2363,-0.0184,149.2,97.2,0.51
23.92,31914.1,34900.8,-0.3359,-0.2488,149.2,97.2,0.51
23.94,31932.5,34818.4,-0.2644,-0.4513,149.2,97.2,0.51
23.96,31863.4,34697.6,-0.5329,-0.7482,149.2,97.2,0.51
23.98,31810.7,34736.0,-0.7378,-0.6539,149.2,97.2,0.51
24.0,31869.1,34650.7,-0.5108,-0.8635,149.2,97.2,0.51
24.02,31875.6,34661.0,-0.4856,-0.8383,149.2,97.2,0.51
24.04,31792.8,34594.2,-0.8073,-1.0023,149.2,97.2,0.51
24.06,31731.4,34505.4,-1.0455,-1.2204,149.2,97.2,0.51
24.08,31804.1,34496.0,-0.7631,-1.2437,149.2,97.2,0.51
24.1,31875.2,34717.1,-0.4871,-0.7002,149.2,97.2,0.51
24.12,31962.3,35053.8,-0.1487,0.1271,149.2,97.2,0.51
24.14,32252.0,35519.0,0.9765,1.2704,149.2,97.2,0.51
24.16,32285.8,35704.9,1.1075,1.7273,149.2,97.2,0.51
24.18,32231.4,35808.2,0.8963,1.981,149.2,97.2,0.51
24.2,32302.8,35653.2,1.1735,1.6002,149.2,97.2,0.51
24.22,32097.9,35418.4,0.3778,1.0231,149.2,97.2,0.51
24.24,32161.3,35319.2,0.6242,0.7794,149.2,97.2,0.51
24.26,32018.8,35186.4,0.0705,0.4529,149.2,97.2,0.51
24.28,32040.9,35201.2,0.1563,0.4894,149.2,97.2,0.51
24.3,32065.6,35006.4,0.2525,0.0106,149.2,97.2,0.51
24.32,31856.0,34987.1,-0.5618,-0.0367,149.2,97.2,0.51
24.34,31959.3,34749.2,-0.1604,-0.6215,149.2,97.2,0.51
24.36,31818.0,34744.2,-0.7094,-0.6336,149.2,97.2,0.51
24.38,31773.1,34689.5,-0.8836,-0.7682,149.2,97.2,0.51
24.4,31834.9,34696.0,-0.6439,-0.7521,149.2,97.2,0.51
24.42,31843.9,34708.4,-0.6086,-0.7216,149.2,97.2,0.51
24.44,31768.2,34551.5,-0.9027,-1.1071,149.2,97.2,0.51
24.46,31806.9,34475.0,-0.7524,-1.2952,149.2,97.2,0.51
24.48,31753.5,34455.6,-0.9597,-1.3429,149.2,97.2,0.51
24.5,31932.7,34674.0,-0.2638,-0.8061,149.2,97.2,0.51
24.52,32018.9,35012.7,0.0708,0.0262,149.2,97.2,0.51
24.54,32182.2,35444.3,0.7054,1.0869,149.2,97.2,0.51
24.56,32342.5,35646.2,1.3278,1.583,149.2,97.2,0.51
24.58,32320.0,35754.2,1.2403,1.8483,149.2,97.2,0.51
24.6,32179.2,35645.0,0.6937,1.58,149.2,97.2,0.51
24.62,32160.1,35432.0,0.6192,1.0565,149.2,97.2,0.51
24.64,32183.3,35251.6,0.7094,0.6132,149.2,97.2,0.51
24.66,31995.7,35032.7,-0.0191,0.0754,149.2,97.2,0.51
24.68,32014.4,34942.2,0.0535,-0.147,149.2,97.2,0.51
24.7,32073.1,35107.9,0.2815,0.2601,149.2,97.2,0.51
24.72,31895.5,34844.6,-0.4085,-0.387,149.2,97.2,0.51
24.74,31922.6,34835.8,-0.3031,-0.4087,149.2,97.2,0.51
24.76,31834.9,34719.3,-0.6436,-0.695,149.2,97.2,0.51
24.78,31826.7,34663.6,-0.6756,-0.8317,149.2,97.2,0.51
24.8,31828.4,34635.3,-0.6688,-0.9012,149.2,97.2,0.51
24.82,31881.2,34714.2,-0.4638,-0.7074,149.2,97.2,0.51
24.84,31814.5,34544.6,-0.723,-1.1241,149.2,97.2,0.51
24.86,31810.8,34442.9,-0.7374,-1.374,149.2,97.2,0.51
24.88,31712.2,34485.4,-1.1202,-1.2696,149.2,97.2,0.51
24.9,31788.4,34623.7,-0.8241,-0.9298,149.2,97.2,0.51
24.92,32011.4,34978.7,0.0419,-0.0573,149.2,97.2,0.51
24.94,32127.8,35372.5,0.4941,0.9104,149.2,97.2,0.51
24.96,32313.0,35658.5,1.2133,1.6133,149.2,97.2,0.51
24.98,32379.2,35814.9,1.4703,1.9975,149.2,97.2,0.51
25.0,32286.4,35686.5,1.11,1.6819,149.2,97.2,0.51
25.02,32282.1,35540.1,1.0933,1.3223,149.2,97.2,0.51
25.04,32106.7,35226.3,0.4119,0.5511,149.2,97.2,0.51
25.06,32108.4,35189.7,0.4185,0.4611,149.2,97.2,0.51
25.08,32030.6,35105.7,0.1165,0.2546,149.2,97.2,0.51
25.1,32090.9,35083.2,0.3505,0.1994,149.2,97.2,0.51
25.12,31890.6,34896.2,-0.4275,-0.2602,149.2,97.2,0.51
25.14,31940.7,34835.9,-0.2326,-0.4083,149.2,97.2,0.51
25.16,31803.6,34642.3,-0.7653,-0.884,149.2,97.2,0.51
25.18,31713.1,34656.5,-1.1168,-0.8493,149.2,97.2,0.51
25.2,31867.6,34621.6,-0.5168,-0.9349,149.2,97.2,0.51
25.22,31796.6,34705.7,-0.7924,-0.7284,149.2,97.2,0.51
25.24,31789.8,34496.0,-0.8189,-1.2436,149.2,97.2,0.51
25.26,31703.7,34501.5,-1.1532,-1.2302,149.2,97.2,0.51
25.28,31769.0,34548.6,-0.8995,-1.1145,149.2,97.2,0.51
25.3,31807.9,34554.7,-0.7485,-1.0993,149.2,97.2,0.51
25.32,31932.4,34890.8,-0.2649,-0.2734,149.2,97.2,0.51
25.34,32139.8,35367.4,0.5405,0.8979,149.2,97.2,0.51
25.36,32338.4,35579.9,1.3119,1.4199,149.2,97.2,0.51
25.38,32418.3,35757.6,1.6222,1.8568,149.2,97.2,0.51
25.4,32378.6,35607.6,1.4682,1.4881,149.2,97.2,0.51
25.42,32266.9,35553.8,1.0342,1.3559,149.2,97.2,0.51
25.44,32129.3,35283.2,0.4999,0.6909,149.2,97.2,0.51
25.46,32059.4,35176.0,0.2282,0.4275,149.2,97.2,0.51
25.48,32145.8,35118.5,0.5637,0.2861,149.2,97.2,0.51
25.5,32063.3,34984.2,0.2434,-0.0439,149.2,97.2,0.51
25.52,32047.4,34954.1,0.1815,-0.1178,149.2,97.2,0.51
25.54,31925.9,34819.4,-0.2901,-0.4489,149.2,97.2,0.51
25.56,31942.9,34754.0,-0.2242,-0.6096,149.2,97.2,0.51
25.58,31818.3,34650.3,-0.7082,-0.8644,149.2,97.2,0.51
25.6,31791.9,34647.7,-0.8107,-0.8709,149.2,97.2,0.51
25.62,31772.2,34661.5,-0.8874,-0.8369,149.2,97.2,0.51
25.64,31728.8,34565.7,-1.0558,-1.0724,149.2,97.2,0.51
25.66,31719.7,34534.9,-1.0911,-1.1481,149.2,97.2,0.51
25.68,31669.4,34503.2,-1.2866,-1.226,149.2,97.2,0.51
25.7,31844.6,34640.8,-0.606,-0.8877,149.2,97.2,0.51
25.72,31967.1,34800.8,-0.1302,-0.4946,149.2,97.2,0.51
25.74,32132.9,35319.6,0.5136,0.7804,149.2,97.2,0.51
25.76,32288.6,35584.1,1.1184,1.4304,149.2,97.2,0.51
25.78,32320.5,35691.8,1.2424,1.695,149.2,97.2,0.51
25.8,32260.9,35705.4,1.0109,1.7284,149.2,97.2,0.51
25.82,32281.4,35558.5,1.0907,1.3673,149.2,97.2,0.51
25.84,32167.9,35366.5,0.6498,0.8957,149.2,97.2,0.51
25.86,32063.5,35141.0,0.2441,0.3415,149.2,97.2,0.51
25.88,32006.3,35157.1,0.022,0.381,149.2,97.2,0.51
25.9,31926.2,35113.3,-0.289,0.2733,149.2,97.2,0.51
25.92,32009.6,34958.7,0.0347,-0.1065,149.2,97.2,0.51
25.94,31929.7,34889.5,-0.2754,-0.2766,149.2,97.2,0.51
25.96,31880.8,34730.7,-0.4654,-0.6668,149.2,97.2,0.51
25.98,31877.4,34719.6,-0.4786,-0.6941,149.2,97.2,0.51
26.0,31817.1,34638.4,-0.713,-0.8936,149.2,97.2,0.51
26.02,31830.8,34648.2,-0.6596,-0.8696,149.2,97.2,0.51
26.04,31860.0,34578.7,-0.5463,-1.0403,149.2,97.2,0.51
26.06,31796.6,34505.9,-0.7926,-1.2194,149.2,97.2,0.51
26.08,31696.2,34400.1,-1.1825,-1.4792,149.2,97.2,0.51
26.1,31795.9,34496.6,-0.7951,-1.2422,149.2,97.2,0.51
26.12,31902.8,34843.6,-0.38,-0.3895,149.2,97.2,0.51
26.14,32021.4,35310.5,0.0806,0.758,149.2,97.2,0.51
26.16,32223.4,35661.9,0.8652,1.6215,149.2,97.2,0.51
26.18,32254.2,35832.0,0.9848,2.0396,149.2,97.2,0.51
26.2,32337.8,35741.6,1.3098,1.8173,149.2,97.2,0.51
26.22,32211.6,35560.1,0.8194,1.3713,149.2,97.2,0.51
26.24,32158.8,35344.2,0.6143,0.8408,149.2,97.2,0.51
26.26,32109.3,35227.3,0.4222,0.5534,149.2,97.2,0.51
26.28,32183.8,35002.8,0.7114,0.0017,149.2,97.2,0.51
26.3,32012.1,35058.1,0.0445,0.1376,149.2,97.2,0.51
26.32,32001.6,35006.9,0.0037,0.0119,149.2,97.2,0.51
26.34,31859.0,34808.7,-0.5503,-0.4752,149.2,97.2,0.51
26.36,31865.9,34805.3,-0.5232,-0.4836,149.2,97.2,0.51
26.38,31906.9,34727.5,-0.3639,-0.6748,149.2,97.2,0.51
26.4,31913.5,34662.3,-0.3383,-0.835,149.2,97.2,0.51
26.42,31810.2,34675.2,-0.7396,-0.8032,149.2,97.2,0.51
26.44,31844.8,34649.4,-0.6053,-0.8666,149.2,97.2,0.51
26.46,31793.0,34430.2,-0.8063,-1.4054,149.2,97.2,0.51
26.48,31789.0,34477.9,-0.8218,-1.2881,149.2,97.2,0.51
26.5,31709.3,34541.3,-1.1316,-1.1324,149.2,97.2,0.51
26.52,31918.2,34834.2,-0.32,-0.4125,149.2,97.2,0.51
26.54,32139.4,35201.1,0.539,0.4891,149.2,97.2,0.51
26.56,32306.3,35511.5,1.1873,1.2519,149.2,97.2,0.51
26.58,32302.6,35782.4,1.1728,1.9177,149.2,97.2,0.51
26.6,32296.1,35722.2,1.1476,1.7698,149.2,97.2,0.51
26.62,32289.7,35646.6,1.1229,1.584,149.2,97.2,0.51
26.64,32187.8,35313.6,0.7271,0.7656,149.2,97.2,0.51
26.66,32082.8,35293.9,0.3192,0.7172,149.2,97.2,0.51
26.68,32139.8,35076.5,0.5405,0.183,149.2,97.2,0.51
26.7,32138.9,35090.1,0.5372,0.2163,149.2,97.2,0.51
26.72,31957.7,35010.4,-0.1666,0.0205,149.2,97.2,0.51
26.74,31861.7,34895.8,-0.5395,-0.2611,149.2,97.2,0.51
26.76,31869.5,34708.8,-0.5092,-0.7206,149.2,97.2,0.51
26.78,31860.8,34660.3,-0.5432,-0.8399,149.2,97.2,0.51
26.8,31872.2,34740.3,-0.4988,-0.6432,149.2,97.2,0.51
26.82,31818.3,34615.3,-0.7081,-0.9504,149.2,97.2,0.51
26.84,31899.7,34580.5,-0.3921,-1.0359,149.2,97.2,0.51
26.86,31810.5,34509.1,-0.7385,-1.2114,149.2,97.2,0.51
26.88,31677.5,34472.8,-1.2552,-1.3007,149.2,97.2,0.51
26.9,31761.1,34442.6,-0.9304,-1.3747,149.2,97.2,0.51
26.92,31898.0,34809.3,-0.3986,-0.4736,149.2,97.2,0.51
26.94,32012.7,35168.9,0.047,0.41,149.2,97.2,0.51
26.96,32307.5,35523.3,1.192,1.2809,149.2,97.2,0.51
26.98,32326.9,35680.4,1.2674,1.6669,149.2,97.2,0.51
27.0,32367.1,35675.1,1.4234,1.6539,149.2,97.2,0.51
27.02,32276.7,35568.6,1.0724,1.3922,149.2,97.2,0.51
27.04,32231.1,35413.7,0.8951,1.0116,149.2,97.2,0.51
27.06,32145.6,35135.2,0.5629,0.3272,149.2,97.2,0.51
27.08,32042.2,35019.1,0.1615,0.0418,149.2,97.2,0.51
27.1,31994.3,35128.0,-0.0245,0.3095,149.2,97.2,0.51
27.12,31996.6,34987.6,-0.0158,-0.0355,149.2,97.2,0.51
27.14,31900.8,34952.2,-0.3878,-0.1225,149.2,97.2,0.51
27.16,31936.3,34762.2,-0.2498,-0.5895,149.2,97.2,0.51
27.18,31927.8,34705.0,-0.2829,-0.7301,149.2,97.2,0.51
27.2,31804.4,34627.2,-0.7623,-0.9211,149.2,97.2,0.51
27.22,31735.4,34757.8,-1.03,-0.6003,149.2,97.2,0.51
27.24,31731.7,34639.2,-1.0445,-0.8918,149.2,97.2,0.51
27.26,31688.5,34517.7,-1.2122,-1.1902,149.2,97.2,0.51
27.28,31708.3,34488.9,-1.1353,-1.261,149.2,97.2,0.51
27.3,31850.3,34562.8,-0.5837,-1.0795,149.2,97.2,0.51
27.32,31916.5,34762.2,-0.3269,-0.5894,149.2,97.2,0.51
27.34,32050.1,35150.8,0.1921,0.3655,149.2,97.2,0.51
27.36,32206.3,35477.5,0.7988,1.1684,149.2,97.2,0.51
27.38,32343.7,35698.9,1.3325,1.7124,149.2,97.2,0.51
27.4,32328.1,35776.6,1.272,1.9034,149.2,97.2,0.51
27.42,32315.3,35632.7,1.2223,1.5498,149.2,97.2,0.51
27.44,32206.1,35303.4,0.7981,0.7405,149.2,97.2,0.51
27.46,32107.7,35130.5,0.4157,0.3157,149.2,97.2,0.51
27.48,32123.2,35129.3,0.4762,0.3127,149.2,97.2,0.51
27.5,32040.1,35115.0,0.1534,0.2776,149.2,97.2,0.51
27.52,32011.4,35053.7,0.042,0.127,149.2,97.2,0.51
27.54,31953.7,34943.2,-0.1821,-0.1447,149.2,97.2,0.51
27.56,31978.1,34835.9,-0.0877,-0.4084,149.2,97.2,0.51
27.58,31967.0,34768.6,-0.1307,-0.5736,149.2,97.2,0.51
27.6,31895.4,34674.1,-0.4088,-0.806,149.2,97.2,0.51
27.62,31834.2,34644.3,-0.6466,-0.8792,149.2,97.2,0.51
27.64,31870.9,34600.8,-0.5039,-0.986,149.2,97.2,0.51
27.66,31799.3,34510.0,-0.782,-1.2092,149.2,97.2,0.51
27.68,31784.9,34435.5,-0.838,-1.3923,149.2,97.2,0.51
27.7,31760.3,34564.7,-0.9336,-1.0749,149.2,97.2,0.51
27.72,31862.4,34739.2,-0.5368,-0.646,149.2,97.2,0.51
27.74,31956.4,35036.4,-0.1719,0.0844,149.2,97.2,0.51
27.76,32255.5,35433.5,0.9898,1.0602,149.2,97.2,0.51
27.78,32360.9,35629.7,1.3992,1.5424,149.2,97.2,0.51
27.8,32396.2,35781.5,1.5364,1.9154,149.2,97.2,0.51
27.82,32304.4,35599.6,1.1797,1.4685,149.2,97.2,0.51
27.84,32241.7,35411.9,0.9365,1.0073,149.2,97.2,0.51
27.86,32192.9,35268.4,0.747,0.6546,149.2,97.2,0.51
27.88,32125.2,35122.9,0.4838,0.297,149.2,97.2,0.51
27.9,32103.5,35068.7,0.3995,0.1638,149.2,97.2,0.51
27.92,32077.4,34978.8,0.298,-0.057,149.2,97.2,0.51
27.94,32012.8,34912.9,0.0474,-0.2192,149.2,97.2,0.51
27.96,31922.6,34809.3,-0.303,-0.4737,149.2,97.2,0.51
27.98,31894.5,34664.7,-0.4122,-0.8291,149.2,97.2,0.51
28.0,31871.6,34645.5,-0.5011,-0.8762,149.2,97.2,0.51
28.02,31884.4,34623.4,-0.4516,-0.9304,149.2,97.2,0.51
28.04,31849.4,34575.8,-0.5873,-1.0475,149.2,97.2,0.51
28.06,31811.8,34585.9,-0.7333,-1.0228,149.2,97.2,0.51
28.08,31758.2,34442.5,-0.9415,-1.3751,149.2,97.2,0.51
28.1,31714.7,34403.7,-1.1106,-1.4705,149.2,97.2,0.51
28.12,31944.2,34702.6,-0.219,-0.736,149.2,97.2,0.51
28.14,32010.7,35065.7,0.039,0.1565,149.2,97.2,0.51
28.16,32269.1,35382.0,1.0426,0.9337,149.2,97.2,0.51
28.18,32379.2,35670.0,1.4702,1.6413,149.2,97.2,0.51
28.2,32311.3,35757.8,1.2067,1.8571,149.2,97.2,0.51
28.22,32260.8,35721.0,1.0105,1.7667,149.2,97.2,0.51
28.24,32182.9,35469.8,0.7079,1.1495,149.2,97.2,0.51
28.26,32090.0,35278.1,0.3472,0.6783,149.2,97.2,0.51
28.28,32035.9,35129.1,0.137,0.3122,149.2,97.2,0.51
28.3,32031.1,35074.0,0.1184,0.1768,149.2,97.2,0.51
28.32,32047.7,35040.5,0.1829,0.0946,149.2,97.2,0.51
28.34,31891.0,34964.4,-0.4258,-0.0925,149.2,97.2,0.51
28.36,31791.7,34866.8,-0.8116,-0.3325,149.2,97.2,0.51
28.38,31847.9,34742.6,-0.5932,-0.6376,149.2,97.2,0.51
28.4,31870.8,34725.8,-0.5043,-0.6789,149.2,97.2,0.51
28.42,31889.6,34611.9,-0.4314,-0.9588,149.2,97.2,0.51
28.44,31795.1,34676.7,-0.7982,-0.7996,149.2,97.2,0.51
28.46,31839.7,34558.9,-0.6251,-1.0891,149.2,97.2,0.51
28.48,31791.3,34482.6,-0.8131,-1.2765,149.2,97.2,0.51
28.5,31772.8,34535.6,-0.8849,-1.1462,149.2,97.2,0.51
28.52,31840.1,34601.1,-0.6235,-0.9853,149.2,97.2,0.51
28.54,32097.1,34978.4,0.3746,-0.0581,149.2,97.2,0.51
28.56,32143.0,35421.4,0.553,1.0304,149.2,97.2,0.51
28.58,32312.6,35647.6,1.2118,1.5863,149.2,97.2,0.51
28.6,32330.4,35752.9,1.2808,1.8452,149.2,97.2,0.51
28.62,32313.2,35572.5,1.2142,1.4017,149.2,97.2,0.51
28.64,32226.5,35536.5,0.8772,1.3134,149.2,97.2,0.51
28.66,32060.2,35279.9,0.2315,0.6828,149.2,97.2,0.51
28.68,32106.9,35157.7,0.4126,0.3826,149.2,97.2,0.51
28.7,32097.8,35020.4,0.3774,0.0452,149.2,97.2,0.51
28.72,32057.3,35073.2,0.2199,0.1748,149.2,97.2,0.51
28.74,31895.2,34999.9,-0.4096,-0.0053,149.2,97.2,0.51
28.76,31932.7,34753.6,-0.2637,-0.6107,149.2,97.2,0.51
28.78,31856.8,34735.7,-0.5585,-0.6546,149.2,97.2,0.51
28.8,31819.8,34831.2,-0.7024,-0.4198,149.2,97.2,0.51
28.82,31960.3,34685.5,-0.1566,-0.7779,149.2,97.2,0.51
28.84,31891.0,34635.1,-0.4257,-0.9019,149.2,97.2,0.51
28.86,31749.0,34536.7,-0.9774,-1.1436,149.2,97.2,0.51
28.88,31818.2,34478.3,-0.7087,-1.2871,149.2,97.2,0.51
28.9,31718.4,34448.2,-1.0964,-1.361,149.2,97.2,0.51
28.92,31829.6,34659.7,-0.6643,-0.8414,149.2,97.2,0.51
28.94,31913.5,34960.9,-0.3385,-0.1012,149.2,97.2,0.51
28.96,32097.7,35322.1,0.3772,0.7864,149.2,97.2,0.51
28.98,32266.5,35611.6,1.0327,1.498,149.2,97.2,0.51
29.0,32326.4,35668.2,1.2653,1.6371,149.2,97.2,0.51
29.02,32375.1,35640.5,1.4544,1.5688,149.2,97.2,0.51
29.04,32313.9,35531.4,1.2166,1.3008,149.2,97.2,0.51
29.06,32118.4,35230.3,0.4574,0.561,149.2,97.2,0.51
29.08,32071.9,35164.6,0.277,0.3994,149.2,97.2,0.51
29.1,32012.4,35200.3,0.0459,0.4871,149.2,97.2,0.51
29.12,32013.8,35091.7,0.0513,0.2204,149.2,97.2,0.51
29.14,31930.3,35005.7,-0.2733,0.009,149.2,97.2,0.51
29.16,31965.9,34769.6,-0.135,-0.5713,149.2,97.2,0.51
29.18,31889.3,34779.4,-0.4324,-0.5472,149.2,97.2,0.51
29.2,31784.5,34656.7,-0.8395,-0.8487,149.2,97.2,0.51
29.22,31858.2,34619.8,-0.5533,-0.9394,149.2,97.2,0.51
29.24,31743.9,34654.5,-0.9973,-0.8541,149.2,97.2,0.51
29.26,31701.5,34588.5,-1.162,-1.0163,149.2,97.2,0.51
29.28,31707.3,34452.2,-1.1392,-1.3512,149.2,97.2,0.51
29.3,31759.5,34483.1,-0.9368,-1.2753,149.2,97.2,0.51
29.32,31807.1,34636.4,-0.7518,-0.8987,149.2,97.2,0.51
29.34,32037.8,34871.3,0.1444,-0.3212,149.2,97.2,0.51
29.36,32018.1,35372.8,0.0677,0.911,149.2,97.2,0.51
29.38,32259.5,35579.5,1.0053,1.419,149.2,97.2,0.51
29.4,32252.2,35778.6,0.9773,1.9083,149.2,97.2,0.51
29.42,32232.8,35735.4,0.9017,1.8021,149.2,97.2,0.51
29.44,32257.0,35449.5,0.9956,1.0995,149.2,97.2,0.51
29.46,32183.8,35331.7,0.7115,0.81,149.2,97.2,0.51
29.48,32146.7,35156.7,0.5672,0.3801,149.2,97.2,0.51
29.5,32065.8,35141.9,0.2531,0.3437,149.2,97.2,0.51
29.52,32073.8,35044.7,0.2841,0.1049,149.2,97.2,0.51
29.54,32011.1,34975.7,0.0405,-0.0648,149.2,97.2,0.51
29.56,31936.6,34846.6,-0.2485,-0.382,149.2,97.2,0.51
29.58,31819.6,34799.1,-0.7032,-0.4987,149.2,97.2,0.51
29.6,31848.2,34685.9,-0.5921,-0.7769,149.2,97.2,0.51
29.62,31789.0,34687.4,-0.822,-0.7733,149.2,97.2,0.51
29.64,31857.5,34609.3,-0.5561,-0.9651,149.2,97.2,0.51
29.66,31838.6,34606.8,-0.6295,-0.9712,149.2,97.2,0.51
29.68,31756.2,34504.9,-0.9495,-1.2216,149.2,97.2,0.51
29.7,31704.4,34497.0,-1.1507,-1.2412,149.2,97.2,0.51
29.72,31880.9,34657.9,-0.4652,-0.8458,149.2,97.2,0.51
29.74,31955.4,34848.0,-0.1755,-0.3785,149.2,97.2,0.51
29.76,32035.6,35227.6,0.1358,0.5543,149.2,97.2,0.51
29.78,32255.8,35547.5,0.9911,1.3403,149.2,97.2,0.51
29.8,32282.0,35717.9,1.0929,1.7591,149.2,97.2,0.51
29.82,32294.0,35727.1,1.1396,1.7818,149.2,97.2,0.51
29.84,32254.3,35563.8,0.9852,1.3806,149.2,97.2,0.51
29.86,32134.8,35295.8,0.521,0.7218,149.2,97.2,0.51
29.88,32011.8,35174.8,0.0432,0.4246,149.2,97.2,0.51
29.9,32096.0,35062.2,0.3705,0.1479,149.2,97.2,0.51
29.92,32022.3,35017.3,0.0841,0.0374,149.2,97.2,0.51
29.94,32082.0,34961.4,0.3162,-0.0998,149.2,97.2,0.51
29.96,31956.1,34808.4,-0.173,-0.476,149.2,97.2,0.51
29.98,31925.7,34669.9,-0.2911,-0.8163,149.2,97.2,0.51
30.0,31816.7,34653.7,-0.7142,-0.856,149.2,97.2,0.51
30.02,31912.3,34613.4,-0.3431,-0.9551,149.2,97.2,0.51
30.04,31911.4,34551.3,-0.3466,-1.1078,149.2,97.2,0.51
30.06,31799.4,34469.4,-0.7815,-1.309,149.2,97.2,0.51
30.08,31690.6,34495.9,-1.2042,-1.2438,149.2,97.2,0.51
30.1,31740.0,34430.6,-1.0122,-1.4043,149.2,97.2,0.51
30.12,31836.1,34643.9,-0.6392,-0.8801,149.2,97.2,0.51
30.14,31972.2,34881.7,-0.1103,-0.2958,149.2,97.2,0.51
30.16,32188.4,35279.2,0.7292,0.6811,149.2,97.2,0.51
30.18,32324.3,35537.8,1.2572,1.3165,149.2,97.2,0.51
30.2,32318.9,35676.9,1.2363,1.6585,149.2,97.2,0.51
30.22,32356.3,35690.1,1.3815,1.6909,149.2,97.2,0.51
30.24,32243.0,35521.4,0.9415,1.2762,149.2,97.2,0.51
30.26,32090.0,35342.5,0.3471,0.8367,149.2,97.2,0.51
30.28,32066.5,35167.4,0.2557,0.4062,149.2,97.2,0.51
30.3,32075.1,35117.0,0.2892,0.2823,149.2,97.2,0.51
30.32,32094.3,35116.6,0.3639,0.2814,149.2,97.2,0.51
30.34,31864.8,35123.0,-0.5277,0.2971,149.2,97.2,0.51
30.36,31923.7,34853.5,-0.299,-0.3651,149.2,97.2,0.51
30.38,31866.1,34718.7,-0.5224,-0.6964,149.2,97.2,0.51
30.4,31800.6,34655.7,-0.777,-0.8511,149.2,97.2,0.51
30.42,31775.0,34653.1,-0.8763,-0.8576,149.2,97.2,0.51
30.44,31957.1,34584.4,-0.169,-1.0265,149.2,97.2,0.51
30.46,31877.6,34598.3,-0.478,-0.9922,149.2,97.2,0.51
30.48,31745.1,34577.6,-0.9926,-1.043,149.2,97.2,0.51
30.5,31698.3,34431.1,-1.1744,-1.4032,149.2,97.2,0.51
30.52,31748.0,34503.6,-0.9812,-1.2249,149.2,97.2,0.51
30.54,31906.0,34825.6,-0.3675,-0.4337,149.2,97.2,0.51
30.56,32050.8,35210.0,0.1948,0.5109,149.2,97.2,0.51
30.58,32229.4,35610.2,0.8884,1.4946,149.2,97.2,0.51
30.6,32422.4,35828.4,1.6381,2.0308,149.2,97.2,0.51
30.62,32340.3,35652.9,1.3195,1.5995,149.2,97.2,0.51
30.64,32207.3,35620.1,0.8028,1.5187,149.2,97.2,0.51
30.66,32183.0,35419.5,0.7084,1.0257,149.2,97.2,0.51
30.68,32191.0,35178.0,0.7393,0.4324,149.2,97.2,0.51
30.7,32038.1,35061.1,0.1455,0.1451,149.2,97.2,0.51
30.72,32037.0,35029.8,0.1412,0.0681,149.2,97.2,0.51
30.74,31998.6,34977.0,-0.0078,-0.0617,149.2,97.2,0.51
30.76,31934.5,34898.7,-0.2567,-0.2541,149.2,97.2,0.51
30.78,31941.8,34781.2,-0.2285,-0.5428,149.2,97.2,0.51
30.8,31857.1,34689.9,-0.5576,-0.7672,149.2,97.2,0.51
30.82,31889.7,34650.4,-0.4309,-0.8643,149.2,97.2,0.51
30.84,31837.3,34729.8,-0.6342,-0.6691,149.2,97.2,0.51
30.86,31826.8,34599.3,-0.6751,-0.9898,149.2,97.2,0.51
30.88,31830.8,34470.7,-0.6596,-1.3058,149.2,97.2,0.51
30.9,31665.2,34448.0,-1.3028,-1.3616,149.2,97.2,0.51
30.92,31754.8,34482.6,-0.9548,-1.2765,149.2,97.2,0.51
30.94,31808.9,34775.5,-0.7448,-0.5566,149.2,97.2,0.51
30.96,31992.7,35119.7,-0.0309,0.289,149.2,97.2,0.51
30.98,32232.6,35580.7,0.9009,1.4221,149.2,97.2,0.51
31.0,32333.4,35616.6,1.2923,1.5101,149.2,97.2,0.51
31.02,32237.5,35691.4,0.92,1.6939,149.2,97.2,0.51
31.04,32292.9,35605.9,1.1353,1.4839,149.2,97.2,0.51
31.06,32158.1,35423.0,0.6118,1.0345,149.2,97.2,0.51
31.08,32082.7,35197.4,0.3186,0.48,149.2,97.2,0.51
31.1,32060.2,35165.4,0.2313,0.4014,149.2,97.2,0.51
31.12,32053.8,35110.0,0.2064,0.2653,149.2,97.2,0.51
31.14,31896.7,35066.9,-0.4035,0.1593,149.2,97.2,0.51
31.16,31933.7,34870.3,-0.26,-0.3237,149.2,97.2,0.51
31.18,31889.4,34798.1,-0.4322,-0.5012,149.2,97.2,0.51
31.2,31811.7,34637.2,-0.7337,-0.8966,149.2,97.2,0.51
31.22,31889.2,34642.5,-0.4329,-0.8836,149.2,97.2,0.51
31.24,31756.7,34741.7,-0.9473,-0.6399,149.2,97.2,0.51
31.26,31829.9,34593.0,-0.6631,-1.0054,149.2,97.2,0.51
31.28,31789.5,34413.9,-0.8201,-1.4455,149.2,97.2,0.51
31.3,31757.3,34437.9,-0.9453,-1.3864,149.2,97.2,0.51
31.32,31717.5,34600.5,-1.0997,-0.9867,149.2,97.2,0.51
31.34,31873.1,34724.2,-0.4954,-0.6827,149.2,97.2,0.51
31.36,32113.7,35022.9,0.439,0.0513,149.2,97.2,0.51
31.38,32261.0,35476.3,1.0113,1.1655,149.2,97.2,0.51
31.4,32332.5,35724.2,1.2891,1.7746,149.2,97.2,0.51
31.42,32393.2,35721.3,1.5248,1.7675,149.2,97.2,0.51
31.44,32233.8,35608.1,0.9056,1.4893,149.2,97.2,0.51
31.46,32187.7,35357.5,0.7267,0.8736,149.2,97.2,0.51
31.48,32160.6,35204.0,0.6214,0.4962,149.2,97.2,0.51
31.5,32062.6,35153.8,0.2406,0.3729,149.2,97.2,0.51
31.52,32047.6,35062.7,0.1826,0.1491,149.2,97.2,0.51
31.54,32014.5,34935.2,0.0538,-0.1642,149.2,97.2,0.51
31.56,31998.4,34969.9,-0.0086,-0.079,149.2,97.2,0.51
31.58,31927.3,34853.2,-0.2849,-0.3657,149.2,97.2,0.51
31.6,31775.3,34844.7,-0.8754,-0.3868,149.2,97.2,0.51
31.62,31814.1,34758.3,-0.7245,-0.599,149.2,97.2,0.51
31.64,31878.9,34675.7,-0.4727,-0.8021,149.2,97.2,0.51
31.66,31887.1,34569.0,-0.441,-1.0642,149.2,97.2,0.51
31.68,31682.1,34525.8,-1.237,-1.1703,149.2,97.2,0.51
31.7,31786.5,34522.7,-0.8318,-1.178,149.2,97.2,0.51
31.72,31684.6,34505.8,-1.2274,-1.2195,149.2,97.2,0.51
31.74,31825.4,34667.1,-0.6806,-0.8231,149.2,97.2,0.51
31.76,32015.5,35036.2,0.0578,0.0839,149.2,97.2,0.51
31.78,32230.8,35467.7,0.8941,1.1442,149.2,97.2,0.51
31.8,32314.9,35618.2,1.2207,1.5142,149.2,97.2,0.51
31.82,32344.3,35826.3,1.3349,2.0255,149.2,97.2,0.51
31.84,32335.3,35521.8,1.3001,1.2773,149.2,97.2,0.51
31.86,32117.5,35459.9,0.4538,1.125,149.2,97.2,0.51
31.88,32086.7,35175.1,0.3342,0.4252,149.2,97.2,0.51
31.9,32094.4,35198.0,0.3641,0.4816,149.2,97.2,0.51
31.92,32121.5,35135.3,0.4694,0.3275,149.2,97.2,0.51
31.94,31984.0,35000.3,-0.0646,-0.0044,149.2,97.2,0.51
31.96,32019.4,34910.2,0.073,-0.2257,149.2,97.2,0.51
31.98,31899.7,34832.9,-0.3919,-0.4156,149.2,97.2,0.51
32.0,31725.7,34784.8,-1.0679,-0.534,149.2,97.2,0.51
32.02,31834.3,34624.1,-0.646,-0.9288,149.2,97.2,0.51
32.04,31861.4,34640.0,-0.541,-0.8898,149.2,97.2,0.51
32.06,31903.3,34640.1,-0.3781,-0.8894,149.2,97.2,0.51
32.08,31865.5,34511.3,-0.525,-1.2061,149.2,97.2,0.51
32.1,31722.3,34432.3,-1.0811,-1.4002,149.2,97.2,0.51
32.12,31800.4,34415.2,-0.7776,-1.4421,149.2,97.2,0.51
32.14,31861.1,34598.6,-0.542,-0.9916,149.2,97.2,0.51
32.16,31955.8,35138.6,-0.174,0.3356,149.2,97.2,0.51
32.18,32232.0,35430.5,0.8985,1.0528,149.2,97.2,0.51
32.2,32373.2,35606.4,1.4472,1.4851,149.2,97.2,0.51
32.22,32351.3,35804.5,1.3619,1.9719,149.2,97.2,0.51
32.24,32256.9,35676.9,0.9953,1.6583,149.2,97.2,0.51
32.26,32201.9,35471.8,0.7816,1.1544,149.2,97.2,0.51
32.28,32086.4,35267.4,0.3333,0.6522,149.2,97.2,0.51
32.3,32113.3,35155.9,0.4375,0.3781,149.2,97.2,0.51
32.32,32115.5,35165.7,0.4462,0.402,149.2,97.2,0.51
32.34,32000.8,35012.4,0.0005,0.0253,149.2,97.2,0.51
32.36,31973.8,34904.5,-0.1042,-0.2398,149.2,97.2,0.51
32.38,31957.5,34782.8,-0.1676,-0.5388,149.2,97.2,0.51
32.4,31907.6,34709.8,-0.3613,-0.7181,149.2,97.2,0.51
32.42,31846.7,34730.8,-0.598,-0.6665,149.2,97.2,0.51
32.44,31860.2,34679.7,-0.5453,-0.7921,149.2,97.2,0.51
32.46,31862.2,34673.1,-0.5379,-0.8084,149.2,97.2,0.51
32.48,31901.5,34602.3,-0.3849,-0.9825,149.2,97.2,0.51
32.5,31772.0,34505.0,-0.8878,-1.2216,149.2,97.2,0.51
32.52,31736.3,34416.2,-1.0267,-1.4397,149.2,97.2,0.51
32.54,31817.8,34596.7,-0.7102,-0.9961,149.2,97.2,0.51
32.56,32066.2,34923.5,0.2547,-0.1932,149.2,97.2,0.51
32.58,32153.4,35380.0,0.5934,0.9287,149.2,97.2,0.51
32.6,32284.5,35732.2,1.1024,1.7943,149.2,97.2,0.51
32.62,32387.9,35750.4,1.504,1.839,149.2,97.2,0.51
32.64,32349.8,35597.4,1.3563,1.463,149.2,97.2,0.51
32.66,32217.6,35441.2,0.8426,1.0793,149.2,97.2,0.51
32.68,32195.8,35307.1,0.7581,0.7497,149.2,97.2,0.51
32.7,32048.2,35105.5,0.1849,0.2542,149.2,97.2,0.51
32.72,32011.8,35050.7,0.0435,0.1195,149.2,97.2,0.51
32.74,32005.0,35069.6,0.0171,0.1659,149.2,97.2,0.51
32.76,31998.3,35055.8,-0.0092,0.1321,149.2,97.2,0.51
32.78,31923.2,34850.3,-0.3006,-0.3729,149.2,97.2,0.51
32.8,31859.2,34750.4,-0.5495,-0.6185,149.2,97.2,0.51
32.82,31810.3,34682.0,-0.7392,-0.7865,149.2,97.2,0.51
32.84,31887.6,34636.6,-0.439,-0.898,149.2,97.2,0.51
32.86,31825.2,34570.6,-0.6813,-1.0603,149.2,97.2,0.51
32.88,31723.1,34566.5,-1.0781,-1.0703,149.2,97.2,0.51
32.9,31759.4,34480.4,-0.937,-1.282,149.2,97.2,0.51
32.92,31685.6,34459.6,-1.2235,-1.333,149.2,97.2,0.51
32.94,31823.3,34627.0,-0.689,-0.9217,149.2,97.2,0.51
32.96,32002.9,34983.5,0.0087,-0.0457,149.2,97.2,0.51
32.98,32130.4,35237.0,0.5041,0.5773,149.2,97.2,0.51
33.0,32256.6,35639.7,0.9943,1.5671,149.2,97.2,0.51
33.02,32240.8,35772.6,0.9329,1.8935,149.2,97.2,0.51
33.04,32332.8,35671.9,1.2903,1.646,149.2,97.2,0.51
33.06,32226.8,35542.2,0.8786,1.3274,149.2,97.2,0.51
33.08,32071.4,35194.8,0.275,0.4737,149.2,97.2,0.51
33.1,32077.4,35201.9,0.2982,0.4912,149.2,97.2,0.51
33.12,32116.5,35066.1,0.4501,0.1573,149.2,97.2,0.51
33.14,31962.5,35073.3,-0.148,0.175,149.2,97.2,0.51
33.16,31980.3,34998.2,-0.0791,-0.0096,149.2,97.2,0.51
33.18,31934.5,34924.7,-0.2567,-0.1901,149.2,97.2,0.51
33.2,31824.6,34728.4,-0.6838,-0.6726,149.2,97.2,0.51
33.22,31894.8,34624.5,-0.411,-0.9279,149.2,97.2,0.51
33.24,31882.2,34712.0,-0.4602,-0.7127,149.2,97.2,0.51
33.26,31729.4,34570.0,-1.0534,-1.0617,149.2,97.2,0.51
33.28,31840.9,34646.6,-0.6204,-0.8736,149.2,97.2,0.51
33.3,31795.4,34437.7,-0.797,-1.3868,149.2,97.2,0.51
33.32,31697.0,34499.5,-1.1795,-1.2351,149.2,97.2,0.51
33.34,31706.4,34639.8,-1.1428,-0.8902,149.2,97.2,0.51
33.36,32005.8,34880.7,0.0203,-0.2984,149.2,97.2,0.51
33.38,32218.9,35258.5,0.8476,0.6302,149.2,97.2,0.51
33.4,32260.3,35678.5,1.0085,1.6624,149.2,97.2,0.51
33.42,32270.8,35781.7,1.0493,1.9158,149.2,97.2,0.51
33.44,32380.5,35725.6,1.4756,1.778,149.2,97.2,0.51
33.46,32255.2,35569.8,0.9888,1.3952,149.2,97.2,0.51
33.48,32126.4,35350.0,0.4886,0.855,149.2,97.2,0.51
33.5,32122.9,35156.9,0.4749,0.3805,149.2,97.2,0.51
33.52,32094.4,35181.3,0.3642,0.4406,149.2,97.2,0.51
33.54,32011.5,34956.3,0.0422,-0.1125,149.2,97.2,0.51
33.56,32064.2,34938.5,0.247,-0.1563,149.2,97.2,0.51
33.58,31879.8,34877.0,-0.4693,-0.3074,149.2,97.2,0.51
33.6,31821.9,34770.0,-0.6942,-0.5702,149.2,97.2,0.51
33.62,31832.7,34647.1,-0.6522,-0.8722,149.2,97.2,0.51
33.64,31829.0,34678.5,-0.6667,-0.795,149.2,97.2,0.51
33.66,31804.8,34612.5,-0.7605,-0.9573,149.2,97.2,0.51
33.68,31765.6,34626.7,-0.9129,-0.9225,149.2,97.2,0.51
33.7,31820.6,34450.0,-0.6993,-1.3565,149.2,97.2,0.51
33.72,31743.4,34425.1,-0.999,-1.4178,149.2,97.2,0.51
33.74,31753.9,34537.4,-0.9582,-1.1418,149.2,97.2,0.51
33.76,32004.8,34907.6,0.016,-0.2321,149.2,97.2,0.51
33.78,32056.3,35269.7,0.2162,0.6576,149.2,97.2,0.51
33.8,32302.1,35652.4,1.1708,1.5982,149.2,97.2,0.51
33.82,32299.2,35730.6,1.1597,1.7904,149.2,97.2,0.51
33.84,32333.2,35673.7,1.2918,1.6506,149.2,97.2,0.51
33.86,32261.4,35550.3,1.0128,1.3472,149.2,97.2,0.51
33.88,32088.8,35387.8,0.3424,0.9478,149.2,97.2,0.51
33.9,32082.3,35204.8,0.3173,0.4982,149.2,97.2,0.51
33.92,32078.9,35162.2,0.3041,0.3936,149.2,97.2,0.51
33.94,31973.1,35016.8,-0.1071,0.0363,149.2,97.2,0.51
33.96,31983.1,34952.8,-0.068,-0.121,149.2,97.2,0.51
33.98,32061.4,34830.2,0.2361,-0.4224,149.2,97.2,0.51
34.0,31902.3,34753.4,-0.3819,-0.6111,149.2,97.2,0.51
34.02,31867.9,34704.5,-0.5154,-0.7312,149.2,97.2,0.51
34.04,31810.0,34678.9,-0.7406,-0.7942,149.2,97.2,0.51
34.06,31839.7,34585.5,-0.625,-1.0236,149.2,97.2,0.51
34.08,31773.7,34590.9,-0.8815,-1.0105,149.2,97.2,0.51
34.1,31822.3,34482.8,-0.6928,-1.276,149.2,97.2,0.51
34.12,31750.5,34497.3,-0.9714,-1.2405,149.2,97.2,0.51
34.14,31805.6,34492.6,-0.7574,-1.252,149.2,97.2,0.51
34.16,31966.8,34817.0,-0.1314,-0.4548,149.2,97.2,0.51
34.18,32137.4,35170.1,0.5313,0.4131,149.2,97.2,0.51
34.2,32257.9,35595.2,0.9993,1.4577,149.2,97.2,0.51
34.22,32252.0,35719.6,0.9762,1.7633,149.2,97.2,0.51
34.24,32487.6,35769.8,1.8913,1.8866,149.2,97.2,0.51
34.26,32339.8,35561.3,1.3173,1.3742,149.2,97.2,0.51
34.28,32121.5,35293.8,0.4696,0.717,149.2,97.2,0.51
34.3,32039.8,35072.7,0.1523,0.1736,149.2,97.2,0.51
34.32,32056.6,35052.0,0.2175,0.1228,149.2,97.2,0.51
34.34,32009.6,35040.7,0.0348,0.0949,149.2,97.2,0.51
34.36,32039.3,35051.5,0.1502,0.1216,149.2,97.2,0.51
34.38,31959.9,34894.1,-0.1582,-0.2652,149.2,97.2,0.51
34.4,31956.2,34782.9,-0.1727,-0.5385,149.2,97.2,0.51
34.42,31854.9,34662.2,-0.5658,-0.8351,149.2,97.2,0.51
34.44,31814.7,34658.7,-0.7221,-0.8438,149.2,97.2,0.51
34.46,31895.6,34601.9,-0.4078,-0.9833,149.2,97.2,0.51
34.48,31771.0,34486.6,-0.8917,-1.2668,149.2,97.2,0.51
34.5,31867.3,34535.7,-0.5178,-1.146,149.2,97.2,0.51
34.52,31663.3,34462.3,-1.3102,-1.3265,149.2,97.2,0.51
34.54,31794.7,34430.3,-0.8,-1.4052,149.2,97.2,0.51
34.56,31838.1,34854.6,-0.6314,-0.3623,149.2,97.2,0.51
34.58,32072.9,35249.1,0.2807,0.6071,149.2,97.2,0.51
34.6,32276.5,35621.7,1.0713,1.5227,149.2,97.2,0.51
34.62,32391.2,35899.5,1.5172,2.2055,149.2,97.2,0.51
34.64,32360.2,35743.4,1.3966,1.8218,149.2,97.2,0.51
34.66,32377.9,35505.8,1.4653,1.238,149.2,97.2,0.51
34.68,32206.8,35383.0,0.8008,0.9362,149.2,97.2,0.51
34.7,32053.7,35170.4,0.2062,0.4137,149.2,97.2,0.51
34.72,32029.0,35189.8,0.1102,0.4613,149.2,97.2,0.51
34.74,31989.9,35108.2,-0.0418,0.2609,149.2,97.2,0.51
34.76,32008.0,34984.9,0.0285,-0.0423,149.2,97.2,0.51
34.78,32028.9,34937.5,0.1097,-0.1586,149.2,97.2,0.51
34.8,31859.7,34825.8,-0.5472,-0.4331,149.2,97.2,0.51
34.82,31902.2,34659.6,-0.3823,-0.8415,149.2,97.2,0.51
34.84,31885.7,34651.1,-0.4464,-0.8624,149.2,97.2,0.51
34.86,31845.9,34673.8,-0.6009,-0.8066,149.2,97.2,0.51
34.88,31775.2,34509.9,-0.8754,-1.2095,149.2,97.2,0.51
34.9,31720.1,34514.4,-1.0896,-1.1984,149.2,97.2,0.51
34.92,31732.4,34469.2,-1.042,-1.3094,149.2,97.2,0.51
34.94,31803.3,34494.6,-0.7665,-1.2471,149.2,97.2,0.51
34.96,31918.5,34825.1,-0.3192,-0.4348,149.2,97.2,0.51
34.98,31999.6,35002.2,-0.0038,0.0003,149.2,97.2,0.51
35.0,32280.9,35465.5,1.0887,1.1389,149.2,97.2,0.51
35.02,32272.9,35764.7,1.0575,1.8741,149.2,97.2,0.51
35.04,32338.0,35756.7,1.3105,1.8545,149.2,97.2,0.51
35.06,32241.9,35616.9,0.9372,1.5109,149.2,97.2,0.51
35.08,32323.1,35419.3,1.2525,1.0255,149.2,97.2,0.51
35.1,32073.6,35175.5,0.2833,0.4261,149.2,97.2,0.51
35.12,32074.5,35129.3,0.2869,0.3127,149.2,97.2,0.51
35.14,31979.8,35054.8,-0.0808,0.1296,149.2,97.2,0.51
35.16,32052.8,35002.2,0.2025,0.0005,149.2,97.2,0.51
35.18,31954.4,34889.3,-0.1794,-0.277,149.2,97.2,0.51
35.2,31997.0,34756.0,-0.0142,-0.6048,149.2,97.2,0.51
35.22,31829.3,34726.9,-0.6653,-0.6762,149.2,97.2,0.51
35.24,31873.9,34700.3,-0.4921,-0.7416,149.2,97.2,0.51
35.26,31865.5,34679.0,-0.5249,-0.794,149.2,97.2,0.51
35.28,31815.9,34657.8,-0.7176,-0.8459,149.2,97.2,0.51
35.3,31835.3,34607.9,-0.642,-0.9686,149.2,97.2,0.51
35.32,31825.5,34464.3,-0.6802,-1.3215,149.2,97.2,0.51
35.34,31720.6,34566.2,-1.0876,-1.0712,149.2,97.2,0.51
35.36,31901.0,34700.7,-0.387,-0.7407,149.2,97.2,0.51
35.38,32046.4,35031.0,0.1778,0.0712,149.2,97.2,0.51
35.4,32246.5,35412.1,0.9551,1.0077,149.2,97.2,0.51
35.42,32265.0,35802.0,1.027,1.9658,149.2,97.2,0.51
35.44,32323.8,35765.6,1.2551,1.8765,149.2,97.2,0.51
35.46,32249.4,35614.9,0.9661,1.506,149.2,97.2,0.51
35.48,32172.7,35477.3,0.6683,1.1679,149.2,97.2,0.51
35.5,32042.2,35233.5,0.1615,0.5689,149.2,97.2,0.51
35.52,31988.4,35186.5,-0.0474,0.4533,149.2,97.2,0.51
35.54,32039.4,35134.5,0.1505,0.3254,149.2,97.2,0.51
35.56,32112.5,34989.0,0.4344,-0.0321,149.2,97.2,0.51
35.58,31878.8,34805.4,-0.4734,-0.4832,149.2,97.2,0.51
35.6,31863.9,34799.2,-0.531,-0.4986,149.2,97.2,0.51
35.62,31914.9,34756.6,-0.3329,-0.6032,149.2,97.2,0.51
35.64,31843.2,34696.8,-0.6115,-0.7502,149.2,97.2,0.51
35.66,31787.0,34546.1,-0.8299,-1.1206,149.2,97.2,0.51
35.68,31869.4,34610.9,-0.5099,-0.9613,149.2,97.2,0.51
35.7,31743.4,34417.9,-0.9991,-1.4355,149.2,97.2,0.51
35.72,31618.3,34470.8,-1.4848,-1.3056,149.2,97.2,0.51
35.74,31735.0,34531.3,-1.0318,-1.1569,149.2,97.2,0.51
35.76,31821.4,34699.8,-0.696,-0.7428,149.2,97.2,0.51
35.78,31979.1,34986.9,-0.0835,-0.0374,149.2,97.2,0.51
35.8,32240.1,35350.7,0.93,0.8567,149.2,97.2,0.51
35.82,32377.1,35687.5,1.4622,1.6843,149.2,97.2,0.51
35.84,32320.5,35732.1,1.2422,1.794,149.2,97.2,0.51
35.86,32335.4,35627.8,1.3004,1.5378,149.2,97.2,0.51
35.88,32269.3,35464.0,1.0437,1.1353,149.2,97.2,0.51
35.9,32121.7,35226.4,0.4704,0.5513,149.2,97.2,0.51
35.92,32077.8,35132.2,0.2997,0.3198,149.2,97.2,0.51
35.94,32039.9,35068.8,0.1525,0.1641,149.2,97.2,0.51
35.96,32044.2,35044.2,0.1692,0.1036,149.2,97.2,0.51
35.98,31911.7,34815.8,-0.3456,-0.4577,149.2,97.2,0.51
36.0,31899.2,34806.2,-0.3939,-0.4814,149.2,97.2,0.51
36.02,31873.6,34725.7,-0.4933,-0.6793,149.2,97.2,0.51
36.04,31863.7,34715.7,-0.532,-0.7038,149.2,97.2,0.51
36.06,31835.4,34618.0,-0.6418,-0.9437,149.2,97.2,0.51
36.08,31828.0,34622.6,-0.6704,-0.9325,149.2,97.2,0.51
36.1,31757.5,34503.3,-0.9444,-1.2256,149.2,97.2,0.51
36.12,31732.7,34452.3,-1.0406,-1.3511,149.2,97.2,0.51
36.14,31737.4,34413.0,-1.0224,-1.4477,149.2,97.2,0.51
36.16,31842.8,34648.6,-0.6129,-0.8686,149.2,97.2,0.51
36.18,31922.3,34953.6,-0.3041,-0.1191,149.2,97.2,0.51
36.2,32133.8,35453.2,0.5171,1.1088,149.2,97.2,0.51
36.22,32435.5,35672.4,1.6889,1.6473,149.2,97.2,0.51
36.24,32351.0,35730.9,1.361,1.791,149.2,97.2,0.51
36.26,32433.0,35608.5,1.6792,1.4904,149.2,97.2,0.51
36.28,32189.3,35467.3,0.7327,1.1433,149.2,97.2,0.51
36.3,32110.4,35227.3,0.4262,0.5536,149.2,97.2,0.51
36.32,31980.6,35172.9,-0.0777,0.4199,149.2,97.2,0.51
36.34,32104.2,35107.2,0.4024,0.2584,149.2,97.2,0.51
36.36,32019.8,34908.0,0.0746,-0.2312,149.2,97.2,0.51
36.38,31991.3,34983.4,-0.0361,-0.0459,149.2,97.2,0.51
36.4,31878.9,34769.9,-0.4728,-0.5705,149.2,97.2,0.51
36.42,31865.6,34761.4,-0.5246,-0.5914,149.2,97.2,0.51
36.44,31893.7,34735.1,-0.4152,-0.6561,149.2,97.2,0.51
36.46,31872.3,34645.3,-0.4986,-0.8766,149.2,97.2,0.51
36.48,31790.0,34609.0,-0.8183,-0.9658,149.2,97.2,0.51
36.5,31798.1,34488.0,-0.7868,-1.2634,149.2,97.2,0.51
36.52,31714.8,34493.5,-1.1101,-1.2499,149.2,97.2,0.51
36.54,31773.1,34405.6,-0.8839,-1.4658,149.2,97.2,0.51
36.56,31808.4,34677.9,-0.7467,-0.7967,149.2,97.2,0.51
36.58,31988.1,35105.8,-0.0488,0.2548,149.2,97.2,0.51
36.6,32203.1,35375.4,0.7865,0.9174,149.2,97.2,0.51
36.62,32361.5,35605.0,1.4018,1.4816,149.2,97.2,0.51
36.64,32354.2,35799.6,1.3731,1.96,149.2,97.2,0.51
36.66,32300.2,35710.5,1.1634,1.7411,149.2,97.2,0.51
36.68,32169.9,35431.4,0.6576,1.0552,149.2,97.2,0.51
36.7,32088.3,35242.7,0.3403,0.5913,149.2,97.2,0.51
36.72,32024.3,35200.1,0.0919,0.4867,149.2,97.2,0.51
36.74,31950.2,35136.4,-0.196,0.3301,149.2,97.2,0.51
36.76,32014.8,35040.9,0.0549,0.0954,149.2,97.2,0.51
36.78,31986.1,34909.8,-0.0564,-0.2267,149.2,97.2,0.51
36.8,31934.6,34818.5,-0.2566,-0.4511,149.2,97.2,0.51
36.82,31890.0,34746.4,-0.4297,-0.6282,149.2,97.2,0.51
36.84,31766.0,34698.8,-0.9115,-0.7453,149.2,97.2,0.51
36.86,31826.5,34613.3,-0.6765,-0.9553,149.2,97.2,0.51
36.88,31849.6,34640.9,-0.5865,-0.8874,149.2,97.2,0.51
36.9,31862.6,34503.1,-0.5361,-1.2263,149.2,97.2,0.51
36.92,31775.2,34402.0,-0.8754,-1.4747,149.2,97.2,0.51
36.94,31753.1,34438.8,-0.9614,-1.3843,149.2,97.2,0.51
36.96,31800.6,34613.5,-0.7768,-0.955,149.2,97.2,0.51
36.98,31964.8,34948.2,-0.139,-0.1323,149.2,97.2,0.51
37.0,32230.6,35317.9,0.893,0.7762,149.2,97.2,0.51
37.02,32265.6,35603.3,1.029,1.4775,149.2,97.2,0.51
37.04,32356.4,35809.1,1.3819,1.9834,149.2,97.2,0.51
37.06,32321.8,35614.1,1.2474,1.5041,149.2,97.2,0.51
37.08,32206.8,35569.1,0.8008,1.3935,149.2,97.2,0.51
37.1,32141.2,35333.5,0.546,0.8146,149.2,97.2,0.51
37.12,32032.9,35100.5,0.1253,0.2419,149.2,97.2,0.51
37.14,32053.2,35068.3,0.2042,0.1627,149.2,97.2,0.51
37.16,32083.7,35106.1,0.3225,0.2556,149.2,97.2,0.51
37.18,31989.1,35090.2,-0.0447,0.2165,149.2,97.2,0.51
37.2,31986.9,34842.4,-0.0531,-0.3923,149.2,97.2,0.51
37.22,31934.6,34802.6,-0.2563,-0.4902,149.2,97.2,0.51
37.24,31867.6,34644.7,-0.5167,-0.8783,149.2,97.2,0.51
37.26,31791.2,34713.4,-0.8133,-0.7093,149.2,97.2,0.51
37.28,31896.4,34676.0,-0.4048,-0.8012,149.2,97.2,0.51
37.3,31727.6,34590.8,-1.0606,-1.0106,149.2,97.2,0.51
37.32,31703.3,34467.8,-1.1549,-1.3129,149.2,97.2,0.51
37.34,31837.6,34420.5,-0.6331,-1.4292,149.2,97.2,0.51
37.36,31850.2,34578.1,-0.5842,-1.0419,149.2,97.2,0.51
37.38,31900.9,34797.2,-0.3873,-0.5034,149.2,97.2,0.51
37.4,32152.7,35250.1,0.5907,0.6096,149.2,97.2,0.51
37.42,32322.8,35538.5,1.2514,1.3183,149.2,97.2,0.51
37.44,32360.0,35711.5,1.3959,1.7435,149.2,97.2,0.51
37.46,32264.7,35677.8,1.0258,1.6606,149.2,97.2,0.51
37.48,32212.9,35554.0,0.8243,1.3564,149.2,97.2,0.51
37.5,32127.0,35318.4,0.4908,0.7774,149.2,97.2,0.51
37.52,32043.6,35248.9,0.167,0.6065,149.2,97.2,0.51
37.54,32023.5,35091.7,0.0888,0.2203,149.2,97.2,0.51
37.56,31994.7,35023.4,-0.0229,0.0523,149.2,97.2,0.51
37.58,32003.2,35000.1,0.0099,-0.0047,149.2,97.2,0.51
37.6,31939.5,34843.3,-0.2374,-0.39,149.2,97.2,0.51
37.62,31813.6,34718.4,-0.7266,-0.6971,149.2,97.2,0.51
37.64,31842.0,34681.6,-0.6162,-0.7876,149.2,97.2,0.51
37.66,31816.0,34659.8,-0.7171,-0.8412,149.2,97.2,0.51
37.68,31830.0,34643.8,-0.6626,-0.8803,149.2,97.2,0.51
37.7,31725.6,34574.3,-1.0682,-1.0511,149.2,97.2,0.51
37.72,31762.9,34489.3,-0.9235,-1.26,149.2,97.2,0.51
37.74,31578.8,34412.9,-1.6382,-1.4479,149.2,97.2,0.51
37.76,31844.2,34590.0,-0.6077,-1.0127,149.2,97.2,0.51
37.78,31906.2,34812.5,-0.3669,-0.4659,149.2,97.2,0.51
37.8,32049.9,35216.6,0.1915,0.5273,149.2,97.2,0.51
37.82,32256.4,35592.8,0.9933,1.4516,149.2,97.2,0.51
37.84,32442.5,35747.1,1.7162,1.8308,149.2,97.2,0.51
37.86,32302.4,35648.1,1.1722,1.5876,149.2,97.2,0.51
37.88,32228.6,35688.1,0.8856,1.6858,149.2,97.2,0.51
37.9,32146.2,35304.4,0.5653,0.743,149.2,97.2,0.51
37.92,32042.3,35261.7,0.162,0.6381,149.2,97.2,0.51
37.94,31975.8,35094.5,-0.0966,0.2272,149.2,97.2,0.51
37.96,32013.9,35108.7,0.0514,0.262,149.2,97.2,0.51
37.98,32069.8,34989.7,0.2687,-0.0305,149.2,97.2,0.51
38.0,31979.9,34859.1,-0.0806,-0.3513,149.2,97.2,0.51
38.02,31895.6,34819.8,-0.4079,-0.4479,149.2,97.2,0.51
38.04,31841.6,34654.1,-0.6177,-0.8551,149.2,97.2,0.51
38.06,31879.2,34684.5,-0.4718,-0.7803,149.2,97.2,0.51
38.08,31840.6,34588.2,-0.6216,-1.0171,149.2,97.2,0.51
38.1,31807.3,34585.5,-0.7508,-1.0238,149.2,97.2,0.51
38.12,31848.8,34483.1,-0.5896,-1.2754,149.2,97.2,0.51
38.14,31720.5,34489.9,-1.088,-1.2586,149.2,97.2,0.51
38.16,31813.2,34591.8,-0.728,-1.0082,149.2,97.2,0.51
38.18,31953.0,34822.1,-0.1851,-0.4424,149.2,97.2,0.51
38.2,32048.7,35225.0,0.1866,0.5479,149.2,97.2,0.51
38.22,32248.3,35515.1,0.9618,1.2607,149.2,97.2,0.51
38.24,32423.8,35746.1,1.6436,1.8283,149.2,97.2,0.51
38.26,32308.5,35703.3,1.1957,1.7233,149.2,97.2,0.51
38.28,32259.2,35537.6,1.0042,1.3161,149.2,97.2,0.51
38.3,32050.5,35364.9,0.1938,0.8917,149.2,97.2,0.51
38.32,32053.7,35179.9,0.2061,0.437,149.2,97.2,0.51
38.34,32014.2,35061.4,0.0527,0.1459,149.2,97.2,0.51
38.36,32111.0,35019.3,0.4288,0.0424,149.2,97.2,0.51
38.38,31899.1,34959.4,-0.3945,-0.1047,149.2,97.2,0.51
38.4,31937.5,35013.1,-0.2452,0.0271,149.2,97.2,0.51
38.42,31937.6,34797.4,-0.245,-0.503,149.2,97.2,0.51
38.44,31834.2,34712.8,-0.6464,-0.7109,149.2,97.2,0.51
38.46,31799.0,34625.3,-0.7831,-0.9258,149.2,97.2,0.51
38.48,31832.1,34567.5,-0.6545,-1.0678,149.2,97.2,0.51
38.5,31814.3,34631.1,-0.7238,-0.9115,149.2,97.2,0.51
38.52,31737.2,34532.8,-1.0232,-1.1532,149.2,97.2,0.51
38.54,31677.5,34499.4,-1.2549,-1.2353,149.2,97.2,0.51
38.56,31743.5,34538.4,-0.9987,-1.1393,149.2,97.2,0.51
38.58,31846.5,34828.3,-0.5986,-0.427,149.2,97.2,0.51
38.6,32130.4,35091.5,0.5042,0.2197,149.2,97.2,0.51
38.62,32252.2,35554.8,0.9771,1.3584,149.2,97.2,0.51
38.64,32241.2,35759.1,0.9345,1.8604,149.2,97.2,0.51
38.66,32290.7,35749.5,1.1266,1.8368,149.2,97.2,0.51
38.68,32266.5,35622.7,1.0327,1.5252,149.2,97.2,0.51
38.7,32214.9,35347.9,0.8321,0.8499,149.2,97.2,0.51
38.72,32096.2,35158.6,0.3712,0.3846,149.2,97.2,0.51
38.74,32048.2,35145.4,0.1849,0.3523,149.2,97.2,0.51
38.76,31969.0,35125.4,-0.123,0.3031,149.2,97.2,0.51
38.78,31953.4,35066.8,-0.1836,0.159,149.2,97.2,0.51
38.8,31937.1,34811.2,-0.2466,-0.4691,149.2,97.2,0.51
38.82,31848.2,34852.3,-0.5919,-0.368,149.2,97.2,0.51
38.84,31941.5,34740.2,-0.2295,-0.6435,149.2,97.2,0.51
38.86,31890.4,34706.5,-0.428,-0.7263,149.2,97.2,0.51
38.88,31856.6,34599.9,-0.5595,-0.9883,149.2,97.2,0.51
38.9,31881.3,34540.0,-0.4635,-1.1355,149.2,97.2,0.51
38.92,31804.8,34518.2,-0.7605,-1.1891,149.2,97.2,0.51
38.94,31722.3,34424.6,-1.0812,-1.419,149.2,97.2,0.51
38.96,31775.6,34491.0,-0.8739,-1.256,149.2,97.2,0.51
38.98,31851.6,34701.8,-0.5789,-0.7379,149.2,97.2,0.51
39.0,32078.2,35124.0,0.3012,0.2996,149.2,97.2,0.51
39.02,32243.6,35428.8,0.9437,1.0487,149.2,97.2,0.51
39.04,32251.7,35713.7,0.975,1.7488,149.2,97.2,0.51
39.06,32350.5,35674.9,1.3591,1.6535,149.2,97.2,0.51
39.08,32297.5,35641.3,1.1532,1.5709,149.2,97.2,0.51
39.1,32206.8,35358.0,0.8006,0.8746,149.2,97.2,0.51
39.12,32116.8,35170.9,0.4511,0.4149,149.2,97.2,0.51
39.14,32109.8,35107.2,0.424,0.2584,149.2,97.2,0.51
39.16,32006.3,35072.9,0.0221,0.1742,149.2,97.2,0.51
39.18,32063.9,34957.9,0.2457,-0.1086,149.2,97.2,0.51
39.2,32047.0,34894.2,0.18,-0.2652,149.2,97.2,0.51
39.22,32018.6,34788.2,0.07,-0.5255,149.2,97.2,0.51
39.24,31848.9,34691.6,-0.5893,-0.7629,149.2,97.2,0.51
39.26,31759.8,34651.3,-0.9352,-0.8621,149.2,97.2,0.51
39.28,31900.7,34679.5,-0.388,-0.7928,149.2,97.2,0.51
39.3,31842.6,34554.9,-0.6137,-1.0988,149.2,97.2,0.51
39.32,31781.0,34615.3,-0.8529,-0.9504,149.2,97.2,0.51
39.34,31636.6,34460.7,-1.4139,-1.3303,149.2,97.2,0.51
39.36,31773.9,34511.9,-0.8807,-1.2045,149.2,97.2,0.51
39.38,31829.0,34673.5,-0.6664,-0.8074,149.2,97.2,0.51
39.4,32047.6,35075.3,0.1825,0.1801,149.2,97.2,0.51
39.42,32213.4,35345.7,0.8264,0.8446,149.2,97.2,0.51
39.44,32376.1,35563.3,1.4582,1.3791,149.2,97.2,0.51
39.46,32390.1,35736.8,1.5129,1.8057,149.2,97.2,0.51
39.48,32292.1,35661.3,1.1321,1.62,149.2,97.2,0.51
39.5,32278.1,35333.8,1.0777,0.8153,149.2,97.2,0.51
39.52,32145.0,35248.9,0.5607,0.6066,149.2,97.2,0.51
39.54,32055.3,35156.3,0.2123,0.3791,149.2,97.2,0.51
39.56,32093.5,35091.3,0.3609,0.2194,149.2,97.2,0.51
39.58,32115.0,35009.0,0.4441,0.017,149.2,97.2,0.51
39.6,31977.3,34952.2,-0.0904,-0.1224,149.2,97.2,0.51
39.62,31927.1,34781.6,-0.2854,-0.5418,149.2,97.2,0.51
39.64,31800.6,34679.0,-0.7769,-0.7939,149.2,97.2,0.51
39.66,31853.8,34744.1,-0.5704,-0.6339,149.2,97.2,0.51
39.68,31927.3,34684.2,-0.2848,-0.7811,149.2,97.2,0.51
39.7,31820.2,34680.8,-0.7008,-0.7896,149.2,97.2,0.51
39.72,31702.4,34553.5,-1.1583,-1.1023,149.2,97.2,0.51
39.74,31662.7,34442.3,-1.3124,-1.3757,149.2,97.2,0.51
39.76,31715.1,34483.5,-1.1092,-1.2743,149.2,97.2,0.51
39.78,31785.9,34776.9,-0.834,-0.5533,149.2,97.2,0.51
39.8,32004.4,35001.7,0.0145,-0.0008,149.2,97.2,0.51
39.82,32309.9,35425.7,1.2011,1.041,149.2,97.2,0.51
39.84,32242.2,35713.8,0.9385,1.7492,149.2,97.2,0.51
39.86,32322.0,35704.0,1.2481,1.7251,149.2,97.2,0.51
39.88,32291.4,35695.7,1.1295,1.7045,149.2,97.2,0.51
39.9,32141.1,35416.1,0.5457,1.0176,149.2,97.2,0.51
39.92,32162.6,35281.0,0.629,0.6854,149.2,97.2,0.51
39.94,32065.8,35207.9,0.2533,0.5057,149.2,97.2,0.51
39.96,32028.4,35152.0,0.108,0.3685,149.2,97.2,0.51
39.98,31934.0,34955.8,-0.2586,-0.1138,149.2,97.2,0.51
40.0,31915.8,34853.0,-0.3294,-0.3662,149.2,97.2,0.51
40.02,31993.4,34823.5,-0.028,-0.4389,149.2,97.2,0.51
40.04,31744.1,34757.6,-0.9965,-0.6006,149.2,97.2,0.51
40.06,31944.9,34663.9,-0.2165,-0.8311,149.2,97.2,0.51
40.08,31837.3,34645.8,-0.6342,-0.8755,149.2,97.2,0.51
40.1,31829.5,34588.2,-0.6649,-1.0171,149.2,97.2,0.51
40.12,31721.7,34648.5,-1.0832,-0.8689,149.2,97.2,0.51
40.14,31778.9,34351.9,-0.8613,-1.5977,149.2,97.2,0.51
40.16,31781.0,34424.2,-0.853,-1.42,149.2,97.2,0.51
40.18,31842.1,34611.9,-0.6159,-0.9588,149.2,97.2,0.51
40.2,31998.0,34898.1,-0.0102,-0.2554,149.2,97.2,0.51
40.22,32120.7,35389.3,0.4662,0.9517,149.2,97.2,0.51
40.24,32347.7,35675.8,1.3481,1.6558,149.2,97.2,0.51
40.26,32323.4,35719.9,1.2538,1.764,149.2,97.2,0.51
40.28,32350.9,35711.0,1.3603,1.7421,149.2,97.2,0.51
40.3,32241.3,35524.3,0.9349,1.2833,149.2,97.2,0.51
40.32,32161.4,35310.7,0.6245,0.7584,149.2,97.2,0.51
40.34,32085.7,35076.6,0.3304,0.1832,149.2,97.2,0.51
40.36,32087.0,35127.7,0.3354,0.3087,149.2,97.2,0.51
40.38,31982.5,35047.1,-0.0704,0.1107,149.2,97.2,0.51
40.4,32076.4,34954.1,0.2944,-0.1179,149.2,97.2,0.51
40.42,31849.0,34886.1,-0.5888,-0.285,149.2,97.2,0.51
40.44,31868.9,34690.7,-0.5118,-0.7651,149.2,97.2,0.51
40.46,31866.5,34653.5,-0.521,-0.8565,149.2,97.2,0.51
40.48,31809.0,34586.6,-0.7443,-1.021,149.2,97.2,0.51
40.5,31794.4,34625.7,-0.8009,-0.9249,149.2,97.2,0.51
40.52,31787.3,34554.8,-0.8286,-1.0992,149.2,97.2,0.51
40.54,31783.1,34515.9,-0.845,-1.1947,149.2,97.2,0.51
40.56,31859.0,34493.4,-0.5502,-1.25,149.2,97.2,0.51
40.58,31852.1,34651.1,-0.5769,-0.8625,149.2,97.2,0.51
40.6,32023.9,34936.8,0.0906,-0.1604,149.2,97.2,0.51
40.62,32173.4,35319.8,0.671,0.7809,149.2,97.2,0.51
40.64,32356.2,35666.7,1.3812,1.6333,149.2,97.2,0.51
40.66,32333.1,35766.6,1.2914,1.8788,149.2,97.2,0.51
40.68,32234.5,35763.9,0.9085,1.8722,149.2,97.2,0.51
40.7,32175.5,35524.0,0.6793,1.2827,149.2,97.2,0.51
40.72,32198.9,35258.1,0.77,0.6293,149.2,97.2,0.51
40.74,32101.0,35222.2,0.39,0.5411,149.2,97.2,0.51
40.76,31966.1,35053.0,-0.1341,0.1253,149.2,97.2,0.51
40.78,32082.9,35038.0,0.3195,0.0883,149.2,97.2,0.51
40.8,31897.4,34907.9,-0.4008,-0.2313,149.2,97.2,0.51
40.82,31897.9,34875.3,-0.3988,-0.3115,149.2,97.2,0.51
40.84,31888.0,34694.1,-0.4375,-0.7567,149.2,97.2,0.51
40.86,31860.4,34728.8,-0.5448,-0.6716,149.2,97.2,0.51
40.88,31815.0,34650.2,-0.7211,-0.8647,149.2,97.2,0.51
40.9,31862.6,34680.7,-0.536,-0.7898,149.2,97.2,0.51
40.92,31817.6,34596.3,-0.7109,-0.9971,149.2,97.2,0.51
40.94,31705.9,34498.7,-1.1447,-1.2371,149.2,97.2,0.51
40.96,31718.8,34489.1,-1.0945,-1.2605,149.2,97.2,0.51
40.98,31820.2,34606.0,-0.701,-0.9732,149.2,97.2,0.51
41.0,32030.5,34955.5,0.116,-0.1145,149.2,97.2,0.51
41.02,32131.9,35269.4,0.5098,0.6571,149.2,97.2,0.51
41.04,32297.3,35582.0,1.1524,1.4252,149.2,97.2,0.51
41.06,32337.0,35824.2,1.3064,2.0204,149.2,97.2,0.51
41.08,32323.8,35664.3,1.2551,1.6275,149.2,97.2,0.51
41.1,32249.4,35507.9,0.9663,1.243,149.2,97.2,0.51
41.12,32141.9,35182.9,0.5485,0.4444,149.2,97.2,0.51
41.14,32047.6,35101.2,0.1825,0.2437,149.2,97.2,0.51
41.16,32121.4,35103.3,0.4692,0.2488,149.2,97.2,0.51
41.18,32018.3,35105.7,0.0686,0.2546,149.2,97.2,0.51
41.2,31984.3,34929.2,-0.0634,-0.179,149.2,97.2,0.51
41.22,31924.6,34959.4,-0.2952,-0.1048,149.2,97.2,0.51
41.24,31806.2,34823.2,-0.7551,-0.4395,149.2,97.2,0.51
41.26,31783.4,34640.1,-0.8436,-0.8894,149.2,97.2,0.51
41.28,31852.2,34691.4,-0.5764,-0.7634,149.2,97.2,0.51
41.3,31788.7,34618.2,-0.8232,-0.9434,149.2,97.2,0.51
41.32,31748.5,34562.6,-0.9792,-1.0799,149.2,97.2,0.51
41.34,31675.1,34452.6,-1.2643,-1.3502,149.2,97.2,0.51
41.36,31788.5,34444.8,-0.8239,-1.3694,149.2,97.2,0.51
41.38,31725.0,34633.3,-1.0706,-0.9061,149.2,97.2,0.51
41.4,32009.0,34799.2,0.0323,-0.4985,149.2,97.2,0.51
41.42,32124.7,35246.3,0.4819,0.6002,149.2,97.2,0.51
41.44,32257.7,35513.5,0.9985,1.2567,149.2,97.2,0.51
41.46,32386.4,35728.8,1.4985,1.7859,149.2,97.2,0.51
41.48,32376.3,35664.5,1.4591,1.6279,149.2,97.2,0.51
41.5,32232.7,35612.1,0.9014,1.4992,149.2,97.2,0.51
41.52,32138.8,35243.2,0.5366,0.5925,149.2,97.2,0.51
41.54,32172.1,35137.2,0.6658,0.3321,149.2,97.2,0.51
41.56,32019.4,35144.6,0.0727,0.3504,149.2,97.2,0.51
41.58,32032.8,35039.1,0.1249,0.091,149.2,97.2,0.51
41.6,31994.4,35026.8,-0.0241,0.0607,149.2,97.2,0.51
41.62,31832.9,34802.7,-0.6516,-0.4899,149.2,97.2,0.51
41.64,31776.6,34747.8,-0.87,-0.6249,149.2,97.2,0.51
41.66,31952.5,34718.4,-0.187,-0.697,149.2,97.2,0.51
41.68,31906.7,34714.9,-0.3647,-0.7056,149.2,97.2,0.51
41.7,31898.6,34585.1,-0.3963,-1.0247,149.2,97.2,0.51
41.72,31802.4,34742.4,-0.7701,-0.638,149.2,97.2,0.51
41.74,31714.0,34481.8,-1.1131,-1.2785,149.2,97.2,0.51
41.76,31789.9,34532.3,-0.8186,-1.1543,149.2,97.2,0.51
41.78,31837.2,34512.1,-0.6346,-1.2042,149.2,97.2,0.51
41.8,31970.9,34819.5,-0.1156,-0.4487,149.2,97.2,0.51
41.82,32108.9,35246.3,0.4205,0.6002,149.2,97.2,0.51
41.84,32262.7,35551.7,1.018,1.3508,149.2,97.2,0.51
41.86,32370.8,35771.5,1.4379,1.891,149.2,97.2,0.51
41.88,32316.0,35695.6,1.2249,1.7043,149.2,97.2,0.51
41.9,32270.7,35516.1,1.0491,1.2631,149.2,97.2,0.51
41.92,32096.8,35353.6,0.3735,0.8639,149.2,97.2,0.51
41.94,32139.9,35175.1,0.5411,0.4253,149.2,97.2,0.51
41.96,32023.5,35043.2,0.0889,0.101,149.2,97.2,0.51
41.98,32063.7,35113.9,0.2451,0.2747,149.2,97.2,0.51
42.0,31860.8,34983.5,-0.5433,-0.0457,149.2,97.2,0.51
42.02,31965.0,35014.9,-0.1384,0.0316,149.2,97.2,0.51
42.04,31909.3,34763.4,-0.3549,-0.5864,149.2,97.2,0.51
42.06,31863.3,34740.5,-0.5335,-0.6427,149.2,97.2,0.51
42.08,31846.7,34667.0,-0.5981,-0.8235,149.2,97.2,0.51
42.1,31770.2,34725.2,-0.8949,-0.6805,149.2,97.2,0.51
42.12,31834.5,34601.0,-0.6452,-0.9857,149.2,97.2,0.51
42.14,31706.6,34486.5,-1.1421,-1.267,149.2,97.2,0.51
42.16,31725.5,34419.5,-1.0685,-1.4315,149.2,97.2,0.51
42.18,31689.8,34424.9,-1.2075,-1.4182,149.2,97.2,0.51
42.2,31862.6,34848.9,-0.536,-0.3763,149.2,97.2,0.51
42.22,32011.1,35180.7,0.0407,0.4389,149.2,97.2,0.51
42.24,32197.2,35536.5,0.7635,1.3134,149.2,97.2,0.51
42.26,32316.1,35706.1,1.2251,1.7302,149.2,97.2,0.51
42.28,32349.1,35765.3,1.3535,1.8756,149.2,97.2,0.51
42.3,32249.5,35678.4,0.9668,1.662,149.2,97.2,0.51
42.32,32165.5,35366.2,0.6404,0.8948,149.2,97.2,0.51
42.34,32038.4,35109.9,0.1468,0.265,149.2,97.2,0.51
42.36,32107.2,34997.4,0.414,-0.0114,149.2,97.2,0.51
42.38,32061.5,35043.6,0.2363,0.102,149.2,97.2,0.51
42.4,31978.0,35014.9,-0.088,0.0316,149.2,97.2,0.51
42.42,31919.5,34857.4,-0.3151,-0.3556,149.2,97.2,0.51
42.44,31822.9,34819.2,-0.6905,-0.4493,149.2,97.2,0.51
42.46,31946.0,34790.1,-0.2123,-0.521,149.2,97.2,0.51
42.48,31856.5,34661.1,-0.5599,-0.8379,149.2,97.2,0.51
42.5,31818.1,34662.9,-0.709,-0.8334,149.2,97.2,0.51
42.52,31733.7,34561.4,-1.0368,-1.0829,149.2,97.2,0.51
42.54,31782.8,34513.6,-0.8462,-1.2004,149.2,97.2,0.51
42.56,31744.4,34487.7,-0.9952,-1.264,149.2,97.2,0.51
42.58,31763.5,34464.7,-0.9212,-1.3204,149.2,97.2,0.51
42.6,31880.6,34772.0,-0.4664,-0.5653,149.2,97.2,0.51
42.62,32039.9,35084.5,0.1526,0.2025,149.2,97.2,0.51
42.64,32224.2,35513.1,0.8684,1.2558,149.2,97.2,0.51
42.66,32303.7,35711.2,1.1772,1.7428,149.2,97.2,0.51
42.68,32211.9,35716.9,0.8208,1.7567,149.2,97.2,0.51
42.7,32303.4,35577.1,1.176,1.4131,149.2,97.2,0.51
42.72,32125.3,35454.1,0.4843,1.1108,149.2,97.2,0.51
42.74,32101.8,35231.1,0.3931,0.5628,149.2,97.2,0.51
42.76,32053.4,35231.4,0.2051,0.5635,149.2,97.2,0.51
42.78,32061.9,35006.8,0.238,0.0116,149.2,97.2,0.51
42.8,31984.8,35001.8,-0.0615,-0.0007,149.2,97.2,0.51
42.82,31981.7,34928.2,-0.0734,-0.1814,149.2,97.2,0.51
42.84,31908.2,34792.2,-0.3592,-0.5156,149.2,97.2,0.51
42.86,31935.5,34727.9,-0.2529,-0.6736,149.2,97.2,0.51
42.88,31751.0,34540.9,-0.9695,-1.1334,149.2,97.2,0.51
42.9,31816.8,34639.0,-0.7141,-0.8921,149.2,97.2,0.51
42.92,31911.2,34622.5,-0.3472,-0.9328,149.2,97.2,0.51
42.94,31776.5,34560.3,-0.8707,-1.0856,149.2,97.2,0.51
42.96,31742.9,34450.7,-1.0009,-1.3549,149.2,97.2,0.51
42.98,31837.0,34442.6,-0.6354,-1.3748,149.2,97.2,0.51
43.0,31940.4,34698.5,-0.2338,-0.7461,149.2,97.2,0.51
43.02,31928.3,35098.6,-0.2807,0.2372,149.2,97.2,0.51
43.04,32242.9,35412.9,0.9408,1.0095,149.2,97.2,0.51
43.06,32315.9,35689.9,1.2244,1.6903,149.2,97.2,0.51
43.08,32355.6,35811.9,1.3785,1.9902,149.2,97.2,0.51
43.1,32259.7,35673.0,1.0064,1.6488,149.2,97.2,0.51
43.12,32100.2,35462.0,0.3868,1.1304,149.2,97.2,0.51
43.14,32069.3,35220.3,0.2666,0.5363,149.2,97.2,0.51
43.16,32032.6,35142.3,0.1242,0.3447,149.2,97.2,0.51
43.18,32093.3,34996.3,0.3601,-0.014,149.2,97.2,0.51
43.2,31937.6,34959.2,-0.2448,-0.1054,149.2,97.2,0.51
43.22,31982.2,34881.1,-0.0715,-0.2973,149.2,97.2,0.51
43.24,31958.0,34822.0,-0.1656,-0.4425,149.2,97.2,0.51
43.26,31859.0,34715.2,-0.55,-0.7048,149.2,97.2,0.51
43.28,31801.6,34603.5,-0.7731,-0.9794,149.2,97.2,0.51
43.3,31819.1,34722.0,-0.7051,-0.6881,149.2,97.2,0.51
43.32,31810.5,34615.3,-0.7385,-0.9503,149.2,97.2,0.51
43.34,31816.6,34591.6,-0.7148,-1.0087,149.2,97.2,0.51
43.36,31756.0,34437.2,-0.9502,-1.3882,149.2,97.2,0.51
43.38,31773.3,34485.3,-0.8829,-1.27,149.2,97.2,0.51
43.4,31903.5,34702.8,-0.3773,-0.7355,149.2,97.2,0.51
43.42,32033.9,34989.7,0.1293,-0.0305,149.2,97.2,0.51
43.44,32158.7,35428.7,0.6141,1.0485,149.2,97.2,0.51
43.46,32322.5,35753.7,1.2501,1.8472,149.2,97.2,0.51
43.48,32404.0,35815.9,1.5667,1.9999,149.2,97.2,0.51
43.5,32321.6,35691.6,1.2466,1.6946,149.2,97.2,0.51
43.52,32185.6,35409.0,0.7183,1.0,149.2,97.2,0.51
43.54,32224.8,35281.5,0.8707,0.6868,149.2,97.2,0.51
43.56,32026.4,35192.0,0.1003,0.4668,149.2,97.2,0.51
43.58,32042.1,35130.9,0.1612,0.3166,149.2,97.2,0.51
43.6,32091.7,34958.3,0.3538,-0.1075,149.2,97.2,0.51
43.62,31918.0,34832.1,-0.3211,-0.4178,149.2,97.2,0.51
43.64,31870.3,34769.0,-0.5061,-0.5728,149.2,97.2,0.51
43.66,31837.6,34744.4,-0.6334,-0.6332,149.2,97.2,0.51
43.68,31886.8,34721.3,-0.442,-0.6899,149.2,97.2,0.51
43.7,31814.7,34678.8,-0.7224,-0.7944,149.2,97.2,0.51
43.72,31820.3,34551.9,-0.7002,-1.1062,149.2,97.2,0.51
43.74,31908.5,34554.0,-0.358,-1.1011,149.2,97.2,0.51
43.76,31726.9,34464.6,-1.0632,-1.3207,149.2,97.2,0.51
43.78,31734.5,34509.1,-1.0336,-1.2113,149.2,97.2,0.51
43.8,31810.4,34684.9,-0.7389,-0.7795,149.2,97.2,0.51
43.82,32036.4,34981.5,0.1388,-0.0505,149.2,97.2,0.51
43.84,32159.6,35357.4,0.6174,0.8731,149.2,97.2,0.51
43.86,32331.5,35572.1,1.285,1.4007,149.2,97.2,0.51
43.88,32410.7,35831.8,1.5926,2.039,149.2,97.2,0.51
43.9,32255.6,35662.4,0.9902,1.6228,149.2,97.2,0.51
43.92,32223.0,35451.8,0.8636,1.1053,149.2,97.2,0.51
43.94,32118.9,35264.1,0.4593,0.644,149.2,97.2,0.51
43.96,32068.7,35131.3,0.2643,0.3175,149.2,97.2,0.51
43.98,32053.5,35120.0,0.2054,0.2899,149.2,97.2,0.51
44.0,32040.9,35060.9,0.1563,0.1445,149.2,97.2,0.51
44.02,31999.1,34903.2,-0.0059,-0.243,149.2,97.2,0.51
44.04,31960.7,34866.9,-0.1553,-0.3321,149.2,97.2,0.51
44.06,31812.6,34709.4,-0.7303,-0.7191,149.2,97.2,0.51
44.08,31844.8,34652.3,-0.6052,-0.8595,149.2,97.2,0.51
44.1,31765.9,34606.1,-0.9117,-0.9731,149.2,97.2,0.51
44.12,31820.0,34659.2,-0.7016,-0.8425,149.2,97.2,0.51
44.14,31792.4,34589.0,-0.8088,-1.0151,149.2,97.2,0.51
44.16,31751.2,34436.7,-0.9689,-1.3894,149.2,97.2,0.51
44.18,31793.5,34483.8,-0.8044,-1.2737,149.2,97.2,0.51
44.2,31922.8,34546.4,-0.3022,-1.1196,149.2,97.2,0.51
44.22,32006.4,34936.2,0.0226,-0.162,149.2,97.2,0.51
44.24,32188.5,35355.8,0.7296,0.8694,149.2,97.2,0.51
44.26,32283.4,35594.1,1.0982,1.4548,149.2,97.2,0.51
44.28,32467.2,35730.2,1.8121,1.7893,149.2,97.2,0.51
44.3,32336.0,35676.3,1.3026,1.6569,149.2,97.2,0.51
44.32,32321.3,35556.7,1.2455,1.3629,149.2,97.2,0.51
44.34,32180.7,35236.3,0.6996,0.5757,149.2,97.2,0.51
44.36,32087.1,35107.9,0.3359,0.2602,149.2,97.2,0.51
44.38,32105.6,35063.7,0.4077,0.1515,149.2,97.2,0.51
44.4,32038.9,35008.1,0.1485,0.0148,149.2,97.2,0.51
44.42,31975.3,34923.7,-0.0985,-0.1927,149.2,97.2,0.51
44.44,31917.6,34852.5,-0.3226,-0.3675,149.2,97.2,0.51
44.46,31879.9,34725.7,-0.4688,-0.6791,149.2,97.2,0.51
44.48,31920.8,34738.8,-0.3099,-0.6469,149.2,97.2,0.51
44.5,31929.3,34702.6,-0.2771,-0.736,149.2,97.2,0.51
44.52,31882.1,34618.7,-0.4604,-0.9421,149.2,97.2,0.51
44.54,31791.1,34565.3,-0.8136,-1.0732,149.2,97.2,0.51
44.56,31733.4,34472.0,-1.0378,-1.3026,149.2,97.2,0.51
44.58,31801.6,34431.0,-0.7732,-1.4034,149.2,97.2,0.51
44.6,31844.5,34478.3,-0.6066,-1.2871,149.2,97.2,0.51
44.62,32019.0,34956.5,0.0713,-0.112,149.2,97.2,0.51
44.64,32170.9,35298.9,0.6612,0.7294,149.2,97.2,0.51
44.66,32270.2,35682.1,1.0471,1.6711,149.2,97.2,0.51
44.68,32254.2,35751.3,0.9847,1.8413,149.2,97.2,0.51
44.7,32347.1,35650.4,1.3459,1.5933,149.2,97.2,0.51
44.72,32197.7,35432.4,0.7653,1.0575,149.2,97.2,0.51
44.74,32139.1,35309.5,0.5378,0.7555,149.2,97.2,0.51
44.76,32120.5,35197.2,0.4654,0.4795,149.2,97.2,0.51
44.78,32113.7,35073.3,0.4391,0.1751,149.2,97.2,0.51
44.8,31958.7,35041.0,-0.1629,0.0957,149.2,97.2,0.51
44.82,31986.1,34953.8,-0.0565,-0.1186,149.2,97.2,0.51
44.84,31936.0,34735.9,-0.2511,-0.654,149.2,97.2,0.51
44.86,31799.6,34677.7,-0.7807,-0.797,149.2,97.2,0.51
44.88,31826.8,34539.3,-0.6752,-1.1373,149.2,97.2,0.51
44.9,31843.6,34653.0,-0.6098,-0.8579,149.2,97.2,0.51
44.92,31837.5,34696.7,-0.6337,-0.7504,149.2,97.2,0.51
44.94,31816.5,34530.9,-0.7151,-1.1577,149.2,97.2,0.51
44.96,31710.1,34521.5,-1.1283,-1.181,149.2,97.2,0.51
44.98,31726.4,34447.9,-1.0651,-1.3619,149.2,97.2,0.51
45.0,31829.5,34592.1,-0.6645,-1.0075,149.2,97.2,0.51
45.02,31914.9,34935.5,-0.3331,-0.1635,149.2,97.2,0.51
45.04,32154.2,35291.1,0.5964,0.7103,149.2,97.2,0.51
45.06,32197.2,35474.4,0.7636,1.1606,149.2,97.2,0.51
45.08,32335.1,35702.0,1.299,1.7201,149.2,97.2,0.51
45.1,32378.5,35699.6,1.4678,1.7143,149.2,97.2,0.51
45.12,32208.4,35620.4,0.8069,1.5195,149.2,97.2,0.51
45.14,32069.5,35327.1,0.2674,0.7989,149.2,97.2,0.51
45.16,32091.5,35164.9,0.3529,0.4001,149.2,97.2,0.51
45.18,32059.2,35104.2,0.2277,0.251,149.2,97.2,0.51
45.2,32032.9,34953.2,0.1254,-0.1201,149.2,97.2,0.51
45.22,31990.3,34941.0,-0.04,-0.15,149.2,97.2,0.51
45.24,31907.8,34865.8,-0.3605,-0.335,149.2,97.2,0.51
45.26,31878.7,34825.9,-0.4737,-0.4328,149.2,97.2,0.51
45.28,31803.5,34684.1,-0.7657,-0.7813,149.2,97.2,0.51
45.3,31858.0,34615.1,-0.5538,-0.9508,149.2,97.2,0.51
45.32,31884.5,34579.0,-0.4512,-1.0396,149.2,97.2,0.51
45.34,31932.9,34556.5,-0.2632,-1.0949,149.2,97.2,0.51
45.36,31791.7,34534.0,-0.8117,-1.1503,149.2,97.2,0.51
45.38,31823.2,34473.7,-0.689,-1.2984,149.2,97.2,0.51
45.4,31744.5,34525.0,-0.9948,-1.1724,149.2,97.2,0.51
45.42,31909.2,34846.6,-0.3551,-0.382,149.2,97.2,0.51
45.44,32115.0,35246.3,0.4442,0.6002,149.2,97.2,0.51
45.46,32350.5,35502.1,1.3589,1.2288,149.2,97.2,0.51
45.48,32334.7,35776.8,1.2974,1.904,149.2,97.2,0.51
45.5,32374.9,35674.5,1.4538,1.6526,149.2,97.2,0.51
45.52,32252.5,35593.5,0.9783,1.4535,149.2,97.2,0.51
45.54,32108.1,35387.6,0.4174,0.9474,149.2,97.2,0.51
45.56,32057.6,35189.3,0.2211,0.4601,149.2,97.2,0.51
45.58,32070.4,35074.1,0.2712,0.177,149.2,97.2,0.51
45.6,31995.8,35057.4,-0.0188,0.1361,149.2,97.2,0.51
45.62,31956.7,34912.9,-0.1706,-0.2191,149.2,97.2,0.51
45.64,31931.1,34909.2,-0.27,-0.2282,149.2,97.2,0.51
45.66,31810.3,34745.2,-0.7393,-0.6313,149.2,97.2,0.51
45.68,31846.4,34671.0,-0.5989,-0.8136,149.2,97.2,0.51
45.7,31801.6,34683.2,-0.7732,-0.7836,149.2,97.2,0.51
45.72,31825.7,34648.0,-0.6796,-0.87,149.2,97.2,0.51
