timestamp,raw_red,raw_ir,filtered_red,filtered_ir,heart_rate,spo2,ac_dc_ratio
0.0,32101.5,35152.6,0.4046,0.374,138.7,96.9,0.525
0.02,32198.3,35457.8,0.7929,1.1227,138.7,96.9,0.525
0.04,32316.5,35763.5,1.2672,1.8727,138.7,96.9,0.525
0.06,32253.9,35753.4,1.0159,1.848,138.7,96.9,0.525
0.08,32367.4,35650.7,1.471,1.5958,138.7,96.9,0.525
0.1,32138.2,35419.0,0.5518,1.0275,138.7,96.9,0.525
0.12,32126.4,35368.3,0.5046,0.9031,138.7,96.9,0.525
0.14,32154.8,35177.2,0.6184,0.4342,138.7,96.9,0.525
0.16,32174.7,35041.7,0.6982,0.1017,138.7,96.9,0.525
0.18,31953.2,35056.9,-0.1902,0.1391,138.7,96.9,0.525
0.2,31960.4,34985.5,-0.1615,-0.036,138.7,96.9,0.525
0.22,31859.1,34961.1,-0.5676,-0.0958,138.7,96.9,0.525
0.24,31807.1,34692.3,-0.7761,-0.7555,138.7,96.9,0.525
0.26,31811.9,34729.7,-0.757,-0.6638,138.7,96.9,0.525
0.28,31821.1,34662.2,-0.7202,-0.8294,138.7,96.9,0.525
0.3,31882.4,34715.8,-0.474,-0.6979,138.7,96.9,0.525
0.32,31906.6,34604.1,-0.3771,-0.9718,138.7,96.9,0.525
0.34,31707.9,34627.6,-1.1744,-0.9143,138.7,96.9,0.525
0.36,31720.9,34470.7,-1.122,-1.2992,138.7,96.9,0.525
0.38,31811.8,34519.5,-0.7575,-1.1793,138.7,96.9,0.525
0.4,31758.1,34720.9,-0.9728,-0.6852,138.7,96.9,0.525
0.42,32014.4,34913.8,0.0551,-0.212,138.7,96.9,0.525
0.44,32208.5,35230.8,0.834,0.5658,138.7,96.9,0.525
0.46,32296.9,35634.9,1.1883,1.5571,138.7,96.9,0.525
0.48,32323.1,35772.4,1.2935,1.8946,138.7,96.9,0.525
0.5,32389.2,35775.1,1.5588,1.9011,138.7,96.9,0.525
0.52,32240.0,35474.1,0.9603,1.1627,138.7,96.9,0.525
0.54,32121.9,35331.2,0.4863,0.8121,138.7,96.9,0.525
0.56,32073.7,35222.5,0.2932,0.5454,138.7,96.9,0.525
0.58,32074.1,35169.1,0.2945,0.4143,138.7,96.9,0.525
0.6,31983.7,35080.5,-0.0679,0.197,138.7,96.9,0.525
0.62,31993.7,34961.6,-0.0278,-0.0948,138.7,96.9,0.525
0.64,31980.8,34920.3,-0.0796,-0.196,138.7,96.9,0.525
0.66,31972.2,34757.9,-0.1141,-0.5946,138.7,96.9,0.525
0.68,31852.9,34709.9,-0.5926,-0.7123,138.7,96.9,0.525
0.7,31885.0,34722.6,-0.464,-0.6811,138.7,96.9,0.525
0.72,31941.7,34635.6,-0.2365,-0.8945,138.7,96.9,0.525
0.74,31870.4,34676.1,-0.5225,-0.7952,138.7,96.9,0.525
0.76,31741.5,34582.5,-1.0394,-1.0249,138.7,96.9,0.525
0.78,31708.9,34516.1,-1.1702,-1.1877,138.7,96.9,0.525
0.8,31724.5,34472.4,-1.1074,-1.2949,138.7,96.9,0.525
0.82,31756.2,34444.5,-0.9806,-1.3634,138.7,96.9,0.525
0.84,31919.9,34709.5,-0.3238,-0.7133,138.7,96.9,0.525
0.86,31972.0,35099.8,-0.1147,0.2444,138.7,96.9,0.525
0.88,32202.2,35311.3,0.8086,0.7634,138.7,96.9,0.525
0.9,32277.2,35632.1,1.1093,1.5504,138.7,96.9,0.525
0.92,32342.5,35826.1,1.3715,2.0262,138.7,96.9,0.525
0.94,32282.8,35629.4,1.1317,1.5437,138.7,96.9,0.525
0.96,32199.7,35592.8,0.7985,1.454,138.7,96.9,0.525
0.98,32205.3,35416.3,0.8208,1.0209,138.7,96.9,0.525
1.0,32179.3,35165.1,0.7166,0.4046,138.7,96.9,0.525
1.02,32043.6,35116.7,0.1723,0.2858,138.7,96.9,0.525
1.04,32059.0,35106.3,0.2343,0.2602,138.7,96.9,0.525
1.06,31957.1,34941.3,-0.1746,-0.1445,138.7,96.9,0.525
1.08,32007.3,34870.4,0.0267,-0.3184,138.7,96.9,0.525
1.1,31890.8,34729.7,-0.4405,-0.6637,138.7,96.9,0.525
1.12,31850.6,34641.7,-0.6016,-0.8796,138.7,96.9,0.525
1.14,31830.0,34788.6,-0.6844,-0.5191,138.7,96.9,0.525
1.16,31906.1,34672.8,-0.3791,-0.8033,138.7,96.9,0.525
1.18,31849.6,34559.2,-0.6057,-1.082,138.7,96.9,0.525
1.2,31765.2,34618.3,-0.9442,-0.9371,138.7,96.9,0.525
1.22,31669.5,34407.1,-1.3283,-1.4553,138.7,96.9,0.525
1.24,31715.7,34467.6,-1.1429,-1.3069,138.7,96.9,0.525
1.26,31870.1,34557.7,-0.5234,-1.0856,138.7,96.9,0.525
1.28,31900.9,34842.6,-0.4002,-0.3866,138.7,96.9,0.525
1.3,32120.3,35178.8,0.48,0.4382,138.7,96.9,0.525
1.32,32263.6,35533.1,1.0547,1.3075,138.7,96.9,0.525
1.34,32385.1,35698.1,1.5421,1.7124,138.7,96.9,0.525
1.36,32360.6,35730.0,1.4439,1.7904,138.7,96.9,0.525
1.38,32258.3,35628.2,1.0336,1.5408,138.7,96.9,0.525
1.4,32252.3,35427.7,1.0094,1.0489,138.7,96.9,0.525
1.42,32018.5,35335.8,0.0716,0.8233,138.7,96.9,0.525
1.44,32015.3,35096.0,0.0587,0.2351,138.7,96.9,0.525
1.46,32082.7,35075.5,0.3291,0.1848,138.7,96.9,0.525
1.48,32040.1,35069.9,0.1584,0.171,138.7,96.9,0.525
1.5,31923.7,34898.8,-0.3086,-0.2489,138.7,96.9,0.525
1.52,31999.6,34879.9,-0.004,-0.2952,138.7,96.9,0.525
1.54,31884.1,34716.4,-0.4675,-0.6963,138.7,96.9,0.525
1.56,31840.6,34681.7,-0.6419,-0.7815,138.7,96.9,0.525
1.58,31878.0,34686.3,-0.4917,-0.7702,138.7,96.9,0.525
1.6,31809.5,34732.0,-0.7667,-0.6581,138.7,96.9,0.525
1.62,31759.3,34596.5,-0.9681,-0.9904,138.7,96.9,0.525
1.64,31819.2,34476.7,-0.7276,-1.2844,138.7,96.9,0.525
1.66,31764.9,34404.9,-0.9455,-1.4606,138.7,96.9,0.525
1.68,31849.6,34383.2,-0.6058,-1.5138,138.7,96.9,0.525
1.7,31840.9,34728.8,-0.6407,-0.666,138.7,96.9,0.525
1.72,32023.0,34931.0,0.0898,-0.1698,138.7,96.9,0.525
1.74,32096.6,35410.1,0.385,1.0057,138.7,96.9,0.525
1.76,32280.3,35625.2,1.1218,1.5334,138.7,96.9,0.525
1.78,32320.7,35836.8,1.2837,2.0526,138.7,96.9,0.525
1.8,32314.1,35685.8,1.2576,1.682,138.7,96.9,0.525
1.82,32318.0,35556.2,1.273,1.364,138.7,96.9,0.525
1.84,32203.6,35377.2,0.8142,0.9249,138.7,96.9,0.525
1.86,32082.4,35186.5,0.3279,0.457,138.7,96.9,0.525
1.88,32057.4,35133.3,0.2276,0.3265,138.7,96.9,0.525
1.9,32010.2,35072.4,0.0382,0.177,138.7,96.9,0.525
1.92,32063.5,35040.2,0.2521,0.0982,138.7,96.9,0.525
1.94,32068.4,34943.4,0.2719,-0.1393,138.7,96.9,0.525
1.96,31902.3,34882.6,-0.3944,-0.2885,138.7,96.9,0.525
1.98,31871.3,34701.0,-0.5187,-0.734,138.7,96.9,0.525
2.0,31881.5,34625.0,-0.478,-0.9206,138.7,96.9,0.525
2.02,31800.5,34615.6,-0.8027,-0.9435,138.7,96.9,0.525
2.04,31834.2,34695.8,-0.6674,-0.7469,138.7,96.9,0.525
2.06,31751.9,34576.4,-0.9977,-1.0399,138.7,96.9,0.525
2.08,31772.4,34533.8,-0.9154,-1.1443,138.7,96.9,0.525
2.1,31639.2,34478.7,-1.4496,-1.2796,138.7,96.9,0.525
2.12,31683.0,34505.8,-1.2738,-1.2131,138.7,96.9,0.525
2.14,31887.4,34773.3,-0.4541,-0.5566,138.7,96.9,0.525
2.16,32010.8,35041.5,0.0408,0.1013,138.7,96.9,0.525
2.18,32217.4,35420.3,0.8693,1.0307,138.7,96.9,0.525
2.2,32382.5,35741.6,1.5316,1.819,138.7,96.9,0.525
2.22,32441.6,35839.1,1.7688,2.0582,138.7,96.9,0.525
2.24,32259.2,35715.5,1.0371,1.755,138.7,96.9,0.525
2.26,32224.3,35426.2,0.8972,1.0453,138.7,96.9,0.525
2.28,32201.1,35249.0,0.804,0.6105,138.7,96.9,0.525
2.3,32022.3,35161.8,0.087,0.3964,138.7,96.9,0.525
2.32,31996.7,35061.0,-0.0156,0.1491,138.7,96.9,0.525
2.34,31982.4,35063.6,-0.0729,0.1556,138.7,96.9,0.525
2.36,31986.2,34972.4,-0.058,-0.0683,138.7,96.9,0.525
2.38,31932.6,34867.5,-0.2729,-0.3257,138.7,96.9,0.525
2.4,31864.2,34788.5,-0.5474,-0.5193,138.7,96.9,0.525
2.42,31933.4,34579.8,-0.2695,-1.0314,138.7,96.9,0.525
2.44,31797.4,34693.8,-0.8152,-0.7517,138.7,96.9,0.525
2.46,31892.8,34724.9,-0.4326,-0.6755,138.7,96.9,0.525
2.48,31719.7,34609.4,-1.127,-0.9589,138.7,96.9,0.525
2.5,31875.0,34562.3,-0.5038,-1.0744,138.7,96.9,0.525
2.52,31752.6,34437.5,-0.9949,-1.3807,138.7,96.9,0.525
2.54,31716.1,34487.6,-1.1413,-1.2577,138.7,96.9,0.525
2.56,31794.3,34624.2,-0.8274,-0.9225,138.7,96.9,0.525
2.58,31921.2,34904.4,-0.3185,-0.2352,138.7,96.9,0.525
2.6,32065.2,35224.6,0.2591,0.5506,138.7,96.9,0.525
2.62,32319.6,35540.1,1.2794,1.3247,138.7,96.9,0.525
2.64,32351.6,35677.3,1.4077,1.6613,138.7,96.9,0.525
2.66,32385.6,35754.4,1.5442,1.8504,138.7,96.9,0.525
2.68,32370.3,35610.4,1.483,1.4972,138.7,96.9,0.525
2.7,32238.2,35378.2,0.9528,0.9274,138.7,96.9,0.525
2.72,32125.8,35262.7,0.5019,0.644,138.7,96.9,0.525
2.74,32134.0,35122.3,0.5349,0.2995,138.7,96.9,0.525
2.76,32052.3,35073.9,0.2073,0.1808,138.7,96.9,0.525
2.78,32114.6,35069.2,0.4572,0.1692,138.7,96.9,0.525
2.8,31957.2,34981.7,-0.1742,-0.0455,138.7,96.9,0.525
2.82,31910.1,34899.3,-0.3629,-0.2475,138.7,96.9,0.525
2.84,31895.3,34781.6,-0.4225,-0.5364,138.7,96.9,0.525
2.86,31824.2,34659.5,-0.7077,-0.8359,138.7,96.9,0.525
2.88,31815.5,34659.6,-0.7427,-0.8356,138.7,96.9,0.525
2.9,31826.2,34657.6,-0.6995,-0.8406,138.7,96.9,0.525
2.92,31771.5,34543.5,-0.919,-1.1206,138.7,96.9,0.525
2.94,31805.1,34478.4,-0.7844,-1.2802,138.7,96.9,0.525
2.96,31749.0,34425.8,-1.0091,-1.4094,138.7,96.9,0.525
2.98,31843.3,34438.2,-0.6309,-1.3788,138.7,96.9,0.525
3.0,31764.2,34682.3,-0.9483,-0.78,138.7,96.9,0.525
3.02,31921.0,35044.0,-0.3192,0.1074,138.7,96.9,0.525
3.04,32187.9,35468.2,0.7512,1.1481,138.7,96.9,0.525
3.06,32306.5,35636.3,1.2268,1.5606,138.7,96.9,0.525
3.08,32346.1,35777.1,1.3858,1.9062,138.7,96.9,0.525
3.1,32409.7,35698.5,1.6407,1.7133,138.7,96.9,0.525
3.12,32202.2,35542.6,0.8085,1.3308,138.7,96.9,0.525
3.14,32148.9,35354.1,0.5946,0.8683,138.7,96.9,0.525
3.16,32045.0,35227.1,0.1781,0.5566,138.7,96.9,0.525
3.18,32103.4,35107.5,0.4121,0.2632,138.7,96.9,0.525
3.2,32068.2,35122.1,0.2712,0.2991,138.7,96.9,0.525
3.22,32036.4,34820.0,0.1433,-0.4422,138.7,96.9,0.525
3.24,31945.5,34958.7,-0.2211,-0.1018,138.7,96.9,0.525
3.26,31856.4,34805.5,-0.5785,-0.4777,138.7,96.9,0.525
3.28,31886.3,34776.2,-0.4585,-0.5495,138.7,96.9,0.525
3.3,31877.4,34698.5,-0.4942,-0.7402,138.7,96.9,0.525
3.32,31831.1,34679.2,-0.6799,-0.7877,138.7,96.9,0.525
3.34,31911.5,34702.5,-0.3576,-0.7305,138.7,96.9,0.525
3.36,31795.1,34620.9,-0.8243,-0.9306,138.7,96.9,0.525
3.38,31837.8,34535.5,-0.6533,-1.1403,138.7,96.9,0.525
3.4,31841.8,34460.0,-0.6371,-1.3253,138.7,96.9,0.525
3.42,31777.9,34521.3,-0.8936,-1.1749,138.7,96.9,0.525
3.44,31963.7,34751.3,-0.148,-0.6107,138.7,96.9,0.525
3.46,32065.4,35160.9,0.2597,0.3941,138.7,96.9,0.525
3.48,32118.4,35549.0,0.4725,1.3464,138.7,96.9,0.525
3.5,32348.8,35786.4,1.3964,1.9288,138.7,96.9,0.525
3.52,32359.7,35699.8,1.4402,1.7164,138.7,96.9,0.525
3.54,32284.9,35640.1,1.1404,1.5698,138.7,96.9,0.525
3.56,32067.8,35418.9,0.2693,1.0273,138.7,96.9,0.525
3.58,32076.1,35231.3,0.3028,0.5671,138.7,96.9,0.525
3.6,32076.8,35173.2,0.3054,0.4245,138.7,96.9,0.525
3.62,32027.6,35032.7,0.1081,0.0796,138.7,96.9,0.525
3.64,31938.8,35106.6,-0.2478,0.2611,138.7,96.9,0.525
3.66,31875.4,34929.7,-0.5024,-0.1731,138.7,96.9,0.525
3.68,31956.0,34883.0,-0.179,-0.2876,138.7,96.9,0.525
3.7,31917.5,34746.4,-0.3333,-0.6227,138.7,96.9,0.525
3.72,31799.8,34771.7,-0.8054,-0.5605,138.7,96.9,0.525
3.74,31814.2,34644.3,-0.7478,-0.8733,138.7,96.9,0.525
3.76,31863.0,34587.3,-0.552,-1.0131,138.7,96.9,0.525
3.78,31899.7,34669.8,-0.4047,-0.8106,138.7,96.9,0.525
3.8,31740.4,34620.5,-1.0437,-0.9316,138.7,96.9,0.525
3.82,31709.0,34412.6,-1.1699,-1.4416,138.7,96.9,0.525
3.84,31716.5,34431.0,-1.1398,-1.3966,138.7,96.9,0.525
3.86,31726.2,34646.3,-1.1008,-0.8682,138.7,96.9,0.525
3.88,31942.8,34890.6,-0.232,-0.269,138.7,96.9,0.525
3.9,32074.3,35315.6,0.2954,0.7739,138.7,96.9,0.525
3.92,32307.6,35528.7,1.2312,1.2967,138.7,96.9,0.525
3.94,32351.9,35854.8,1.4091,2.0968,138.7,96.9,0.525
3.96,32401.0,35797.7,1.6058,1.9565,138.7,96.9,0.525
3.98,32238.9,35585.4,0.9556,1.4358,138.7,96.9,0.525
4.0,32284.2,35334.2,1.1375,0.8195,138.7,96.9,0.525
4.02,32120.2,35245.4,0.4794,0.6016,138.7,96.9,0.525
4.04,32081.3,35153.8,0.3237,0.3769,138.7,96.9,0.525
4.06,31981.3,35115.3,-0.0774,0.2825,138.7,96.9,0.525
4.08,32060.7,35028.9,0.2411,0.0703,138.7,96.9,0.525
4.1,32000.5,34961.1,-0.0006,-0.096,138.7,96.9,0.525
4.12,32009.6,34856.6,0.036,-0.3523,138.7,96.9,0.525
4.14,31907.4,34751.0,-0.3739,-0.6115,138.7,96.9,0.525
4.16,31849.1,34750.0,-0.6078,-0.614,138.7,96.9,0.525
4.18,31919.6,34707.7,-0.3249,-0.7178,138.7,96.9,0.525
4.2,31875.8,34612.0,-0.5007,-0.9524,138.7,96.9,0.525
4.22,31776.2,34582.7,-0.9002,-1.0245,138.7,96.9,0.525
4.24,31822.0,34511.9,-0.7166,-1.198,138.7,96.9,0.525
4.26,31733.6,34459.0,-1.0709,-1.3277,138.7,96.9,0.525
4.28,31681.5,34490.2,-1.28,-1.2513,138.7,96.9,0.525
4.3,31893.1,34654.1,-0.4311,-0.8491,138.7,96.9,0.525
4.32,32042.0,35018.5,0.1658,0.0448,138.7,96.9,0.525
4.34,32231.3,35308.6,0.9252,0.7566,138.7,96.9,0.525
4.36,32277.1,35737.4,1.1089,1.8086,138.7,96.9,0.525
4.38,32328.0,35724.3,1.3133,1.7766,138.7,96.9,0.525
4.4,32281.0,35688.7,1.1245,1.6892,138.7,96.9,0.525
4.42,32259.6,35477.9,1.0387,1.1719,138.7,96.9,0.525
4.44,32203.4,35307.1,0.8135,0.7528,138.7,96.9,0.525
4.46,32084.6,35278.7,0.3367,0.6833,138.7,96.9,0.525
4.48,32053.8,34986.8,0.2132,-0.033,138.7,96.9,0.525
4.5,31951.8,35135.4,-0.1958,0.3316,138.7,96.9,0.525
4.52,32122.5,35061.2,0.4891,0.1496,138.7,96.9,0.525
4.54,32021.0,34926.7,0.0816,-0.1803,138.7,96.9,0.525
4.56,31825.7,34780.4,-0.7018,-0.5392,138.7,96.9,0.525
4.58,31898.7,34732.4,-0.4088,-0.6571,138.7,96.9,0.525
4.6,31868.0,34746.7,-0.5318,-0.6221,138.7,96.9,0.525
4.62,31808.5,34549.0,-0.7704,-1.107,138.7,96.9,0.525
4.64,31856.7,34727.4,-0.5772,-0.6694,138.7,96.9,0.525
4.66,31820.0,34598.1,-0.7243,-0.9865,138.7,96.9,0.525
4.68,31786.5,34486.3,-0.859,-1.2609,138.7,96.9,0.525
4.7,31679.3,34454.7,-1.289,-1.3383,138.7,96.9,0.525
4.72,31777.3,34559.7,-0.8957,-1.0807,138.7,96.9,0.525
4.74,31883.7,34794.7,-0.4689,-0.5042,138.7,96.9,0.525
4.76,32048.3,35217.0,0.1914,0.5319,138.7,96.9,0.525
4.78,32163.4,35484.5,0.6527,1.1883,138.7,96.9,0.525
4.8,32420.8,35710.1,1.6853,1.7417,138.7,96.9,0.525
4.82,32357.6,35718.8,1.4319,1.7631,138.7,96.9,0.525
4.84,32243.1,35668.7,0.9725,1.6402,138.7,96.9,0.525
4.86,32179.4,35464.3,0.7171,1.1386,138.7,96.9,0.525
4.88,32110.0,35210.9,0.4387,0.5169,138.7,96.9,0.525
4.9,32104.6,35117.7,0.4172,0.2883,138.7,96.9,0.525
4.92,32001.8,35077.8,0.0047,0.1903,138.7,96.9,0.525
4.94,32005.2,35037.5,0.0183,0.0916,138.7,96.9,0.525
4.96,31985.7,34940.7,-0.0599,-0.146,138.7,96.9,0.525
4.98,31944.2,34792.3,-0.2262,-0.5101,138.7,96.9,0.525
5.0,31823.3,34678.4,-0.7111,-0.7897,138.7,96.9,0.525
5.02,31790.2,34621.6,-0.8441,-0.9288,138.7,96.9,0.525
5.04,31913.4,34789.4,-0.35,-0.5172,138.7,96.9,0.525
5.06,31856.9,34655.3,-0.5766,-0.8463,138.7,96.9,0.525
5.08,31768.1,34693.3,-0.9328,-0.7529,138.7,96.9,0.525
5.1,31699.7,34479.8,-1.2071,-1.2769,138.7,96.9,0.525
5.12,31667.2,34482.9,-1.3373,-1.2692,138.7,96.9,0.525
5.14,31764.5,34413.9,-0.947,-1.4384,138.7,96.9,0.525
5.16,31892.0,34597.7,-0.4356,-0.9876,138.7,96.9,0.525
5.18,31947.9,34865.6,-0.2113,-0.3304,138.7,96.9,0.525
5.2,32070.5,35211.1,0.2803,0.5174,138.7,96.9,0.525
5.22,32316.5,35570.9,1.267,1.4001,138.7,96.9,0.525
5.24,32318.1,35845.8,1.2733,2.0746,138.7,96.9,0.525
5.26,32324.1,35708.4,1.2977,1.7376,138.7,96.9,0.525
5.28,32282.2,35565.9,1.1295,1.388,138.7,96.9,0.525
5.3,32137.4,35403.7,0.5488,0.99,138.7,96.9,0.525
5.32,32027.3,35153.1,0.1071,0.375,138.7,96.9,0.525
5.34,32078.9,34998.2,0.314,-0.0048,138.7,96.9,0.525
5.36,32016.1,35051.7,0.0622,0.1264,138.7,96.9,0.525
5.38,32058.5,35032.4,0.2322,0.079,138.7,96.9,0.525
5.4,31935.0,34910.1,-0.2631,-0.2211,138.7,96.9,0.525
5.42,31857.6,34843.7,-0.5738,-0.384,138.7,96.9,0.525
5.44,31814.9,34772.5,-0.7449,-0.5588,138.7,96.9,0.525
5.46,31828.3,34735.9,-0.6914,-0.6485,138.7,96.9,0.525
5.48,31848.1,34614.6,-0.6117,-0.9462,138.7,96.9,0.525
5.5,31762.2,34679.7,-0.9562,-0.7863,138.7,96.9,0.525
5.52,31792.8,34537.2,-0.8336,-1.136,138.7,96.9,0.525
5.54,31787.3,34478.1,-0.8556,-1.2811,138.7,96.9,0.525
5.56,31771.7,34469.8,-0.9184,-1.3014,138.7,96.9,0.525
5.58,31703.1,34512.4,-1.1933,-1.1969,138.7,96.9,0.525
5.6,31857.3,34703.1,-0.575,-0.729,138.7,96.9,0.525
5.62,32060.7,35041.7,0.241,0.1019,138.7,96.9,0.525
5.64,32174.0,35377.5,0.6955,0.9258,138.7,96.9,0.525
5.66,32278.8,35703.7,1.1159,1.7261,138.7,96.9,0.525
5.68,32298.8,35745.1,1.1961,1.8275,138.7,96.9,0.525
5.7,32306.4,35711.3,1.2263,1.7446,138.7,96.9,0.525
5.72,32250.7,35508.4,1.0029,1.2468,138.7,96.9,0.525
5.74,32172.0,35287.6,0.6875,0.7051,138.7,96.9,0.525
5.76,32123.5,35168.5,0.4928,0.4129,138.7,96.9,0.525
5.78,32090.1,35069.5,0.3587,0.17,138.7,96.9,0.525
5.8,32049.3,35141.0,0.1953,0.3453,138.7,96.9,0.525
5.82,31977.7,35050.9,-0.092,0.1245,138.7,96.9,0.525
5.84,32003.6,34837.7,0.0118,-0.3986,138.7,96.9,0.525
5.86,31924.5,34750.4,-0.3053,-0.6128,138.7,96.9,0.525
5.88,31920.7,34792.6,-0.3205,-0.5095,138.7,96.9,0.525
5.9,31850.1,34711.5,-0.6037,-0.7084,138.7,96.9,0.525
5.92,31813.4,34628.7,-0.7509,-0.9115,138.7,96.9,0.525
5.94,31789.3,34596.1,-0.8478,-0.9916,138.7,96.9,0.525
5.96,31790.7,34535.0,-0.8419,-1.1414,138.7,96.9,0.525
5.98,31724.7,34440.8,-1.1068,-1.3724,138.7,96.9,0.525
6.0,31744.3,34441.4,-1.0283,-1.3711,138.7,96.9,0.525
6.02,31816.5,34498.6,-0.7385,-1.2307,138.7,96.9,0.525
6.04,31946.4,34882.7,-0.2176,-0.2883,138.7,96.9,0.525
6.06,32114.1,35181.5,0.4553,0.4448,138.7,96.9,0.525
6.08,32245.1,35599.7,0.9807,1.4709,138.7,96.9,0.525
6.1,32341.6,35771.0,1.3676,1.891,138.7,96.9,0.525
6.12,32356.2,35811.7,1.4262,1.9909,138.7,96.9,0.525
6.14,32248.0,35661.5,0.9924,1.6225,138.7,96.9,0.525
6.16,32211.2,35448.9,0.8445,1.1008,138.7,96.9,0.525
6.18,32074.9,35242.1,0.298,0.5936,138.7,96.9,0.525
6.2,32027.2,35221.1,0.1066,0.542,138.7,96.9,0.525
6.22,32047.1,35095.7,0.1865,0.2342,138.7,96.9,0.525
6.24,32026.4,34983.9,0.1036,-0.0401,138.7,96.9,0.525
6.26,31960.7,35021.8,-0.16,0.0531,138.7,96.9,0.525
6.28,31911.5,34835.2,-0.3574,-0.405,138.7,96.9,0.525
6.3,31877.2,34731.9,-0.4949,-0.6583,138.7,96.9,0.525
6.32,31921.8,34760.3,-0.3161,-0.5886,138.7,96.9,0.525
6.34,31802.0,34529.5,-0.7966,-1.1549,138.7,96.9,0.525
6.36,31771.4,34697.1,-0.9193,-0.7436,138.7,96.9,0.525
6.38,31750.9,34580.2,-1.0016,-1.0306,138.7,96.9,0.525
6.4,31784.0,34446.1,-0.8688,-1.3594,138.7,96.9,0.525
6.42,31819.2,34409.7,-0.7276,-1.4487,138.7,96.9,0.525
6.44,31744.0,34472.2,-1.0295,-1.2955,138.7,96.9,0.525
6.46,31791.4,34650.3,-0.8394,-0.8586,138.7,96.9,0.525
6.48,31949.1,34923.3,-0.2068,-0.1887,138.7,96.9,0.525
6.5,32230.7,35373.0,0.9227,0.9146,138.7,96.9,0.525
6.52,32295.4,35609.4,1.1823,1.4946,138.7,96.9,0.525
6.54,32338.4,35770.1,1.3548,1.8889,138.7,96.9,0.525
6.56,32261.9,35702.0,1.0479,1.7218,138.7,96.9,0.525
6.58,32317.3,35617.8,1.2702,1.5151,138.7,96.9,0.525
6.6,32146.2,35304.0,0.5839,0.7453,138.7,96.9,0.525
6.62,32045.9,35194.4,0.1817,0.4765,138.7,96.9,0.525
6.64,32027.8,35134.8,0.109,0.3302,138.7,96.9,0.525
6.66,32028.4,35136.1,0.1113,0.3334,138.7,96.9,0.525
6.68,32070.7,35021.4,0.2811,0.052,138.7,96.9,0.525
6.7,31978.0,34914.3,-0.0906,-0.2108,138.7,96.9,0.525
6.72,31883.7,34798.0,-0.4689,-0.4961,138.7,96.9,0.525
6.74,31894.4,34699.6,-0.4261,-0.7375,138.7,96.9,0.525
6.76,31786.3,34796.3,-0.8596,-0.5003,138.7,96.9,0.525
6.78,31820.5,34593.7,-0.7227,-0.9972,138.7,96.9,0.525
6.8,31785.2,34654.5,-0.8639,-0.8482,138.7,96.9,0.525
6.82,31804.5,34510.6,-0.7868,-1.2012,138.7,96.9,0.525
6.84,31830.6,34468.6,-0.6819,-1.3042,138.7,96.9,0.525
6.86,31713.0,34454.1,-1.1536,-1.3398,138.7,96.9,0.525
6.88,31809.8,34492.8,-0.7654,-1.245,138.7,96.9,0.525
6.9,31974.8,34728.3,-0.1034,-0.6671,138.7,96.9,0.525
6.92,32068.4,35115.7,0.2717,0.2835,138.7,96.9,0.525
6.94,32322.4,35431.2,1.2909,1.0574,138.7,96.9,0.525
6.96,32232.2,35712.7,0.929,1.748,138.7,96.9,0.525
6.98,32377.4,35733.2,1.5112,1.7983,138.7,96.9,0.525
7.0,32312.0,35645.0,1.249,1.582,138.7,96.9,0.525
7.02,32151.2,35437.8,0.6039,1.0736,138.7,96.9,0.525
7.04,32092.1,35277.4,0.3671,0.68,138.7,96.9,0.525
7.06,32094.2,35220.5,0.3752,0.5405,138.7,96.9,0.525
7.08,32045.9,35026.3,0.1817,0.0641,138.7,96.9,0.525
7.1,32044.3,35125.1,0.1752,0.3065,138.7,96.9,0.525
7.12,31895.5,35003.7,-0.4217,0.0087,138.7,96.9,0.525
7.14,31856.6,34860.8,-0.5776,-0.342,138.7,96.9,0.525
7.16,31820.6,34706.5,-0.722,-0.7207,138.7,96.9,0.525
7.18,31796.7,34729.4,-0.8182,-0.6643,138.7,96.9,0.525
7.2,31877.9,34623.4,-0.4924,-0.9244,138.7,96.9,0.525
7.22,31747.4,34607.3,-1.0157,-0.9641,138.7,96.9,0.525
7.24,31786.9,34584.5,-0.8573,-1.0199,138.7,96.9,0.525
7.26,31809.6,34496.5,-0.7662,-1.2359,138.7,96.9,0.525
7.28,31771.0,34497.4,-0.9209,-1.2337,138.7,96.9,0.525
7.3,31743.6,34471.8,-1.0308,-1.2966,138.7,96.9,0.525
7.32,31780.4,34573.0,-0.8834,-1.0481,138.7,96.9,0.525
7.34,31917.3,34853.3,-0.3341,-0.3605,138.7,96.9,0.525
7.36,32157.0,35281.9,0.6273,0.691,138.7,96.9,0.525
7.38,32209.5,35524.2,0.8377,1.2855,138.7,96.9,0.525
7.4,32368.5,35783.1,1.4756,1.9207,138.7,96.9,0.525
7.42,32336.2,35716.9,1.3461,1.7583,138.7,96.9,0.525
7.44,32324.5,35565.0,1.2992,1.3856,138.7,96.9,0.525
7.46,32259.9,35338.1,1.0398,0.8291,138.7,96.9,0.525
7.48,32075.2,35353.2,0.2992,0.8659,138.7,96.9,0.525
7.5,32095.8,35152.7,0.3818,0.3741,138.7,96.9,0.525
7.52,32019.7,35116.6,0.0766,0.2855,138.7,96.9,0.525
7.54,32001.3,34951.0,0.0027,-0.1209,138.7,96.9,0.525
7.56,32108.8,34994.3,0.4339,-0.0144,138.7,96.9,0.525
7.58,31884.7,34879.8,-0.4648,-0.2953,138.7,96.9,0.525
7.6,31862.1,34651.7,-0.5558,-0.8551,138.7,96.9,0.525
7.62,31860.6,34730.6,-0.5618,-0.6614,138.7,96.9,0.525
7.64,31857.6,34642.9,-0.5735,-0.8767,138.7,96.9,0.525
7.66,31837.2,34717.9,-0.6555,-0.6927,138.7,96.9,0.525
7.68,31819.5,34637.1,-0.7267,-0.891,138.7,96.9,0.525
7.7,31710.8,34509.4,-1.1627,-1.2042,138.7,96.9,0.525
7.72,31769.7,34391.0,-0.9263,-1.4948,138.7,96.9,0.525
7.74,31736.4,34502.0,-1.0599,-1.2223,138.7,96.9,0.525
7.76,31866.8,34688.9,-0.5369,-0.7638,138.7,96.9,0.525
7.78,32047.7,34947.5,0.1889,-0.1293,138.7,96.9,0.525
7.8,32287.5,35339.5,1.1506,0.8325,138.7,96.9,0.525
7.82,32339.6,35679.5,1.3595,1.6667,138.7,96.9,0.525
7.84,32373.9,35684.6,1.4974,1.6792,138.7,96.9,0.525
7.86,32310.8,35753.1,1.244,1.8472,138.7,96.9,0.525
7.88,32214.2,35511.8,0.8565,1.2553,138.7,96.9,0.525
7.9,32144.4,35324.5,0.5766,0.7955,138.7,96.9,0.525
7.92,32061.8,35174.1,0.2453,0.4267,138.7,96.9,0.525
7.94,32114.0,35083.6,0.4549,0.2045,138.7,96.9,0.525
7.96,32066.3,35064.4,0.2635,0.1576,138.7,96.9,0.525
7.98,32008.2,35019.8,0.0306,0.048,138.7,96.9,0.525
8.0,31904.1,34812.7,-0.3873,-0.4599,138.7,96.9,0.525
8.02,31893.1,34812.0,-0.4315,-0.4618,138.7,96.9,0.525
8.04,31875.2,34708.2,-0.503,-0.7165,138.7,96.9,0.525
8.06,31816.0,34703.4,-0.7406,-0.7282,138.7,96.9,0.525
8.08,31867.4,34628.6,-0.5346,-0.9117,138.7,96.9,0.525
8.1,31749.8,34598.5,-1.0061,-0.9855,138.7,96.9,0.525
8.12,31806.0,34518.0,-0.7805,-1.183,138.7,96.9,0.525
8.14,31838.8,34395.9,-0.6491,-1.4827,138.7,96.9,0.525
8.16,31720.2,34398.7,-1.1248,-1.4759,138.7,96.9,0.525
8.18,31729.3,34473.0,-1.0884,-1.2936,138.7,96.9,0.525
8.2,31780.2,34775.3,-0.884,-0.5518,138.7,96.9,0.525
8.22,31963.1,35176.3,-0.1505,0.432,138.7,96.9,0.525
8.24,32208.6,35397.9,0.8344,0.9758,138.7,96.9,0.525
8.26,32319.2,35768.6,1.2777,1.8852,138.7,96.9,0.525
8.28,32420.5,35762.4,1.684,1.87,138.7,96.9,0.525
8.3,32293.6,35547.5,1.1752,1.3429,138.7,96.9,0.525
8.32,32257.1,35379.9,1.0288,0.9315,138.7,96.9,0.525
8.34,32190.2,35348.2,0.7605,0.8537,138.7,96.9,0.525
8.36,32053.6,35155.5,0.2123,0.381,138.7,96.9,0.525
8.38,32029.7,35097.7,0.1165,0.2393,138.7,96.9,0.525
8.4,31966.0,35041.1,-0.139,0.1002,138.7,96.9,0.525
8.42,31959.8,34913.9,-0.1637,-0.2117,138.7,96.9,0.525
8.44,31858.0,34814.2,-0.5722,-0.4564,138.7,96.9,0.525
8.46,31888.0,34814.5,-0.4516,-0.4557,138.7,96.9,0.525
8.48,31847.5,34729.5,-0.6143,-0.6643,138.7,96.9,0.525
8.5,31888.9,34731.4,-0.4481,-0.6595,138.7,96.9,0.525
8.52,31760.1,34666.6,-0.9647,-0.8185,138.7,96.9,0.525
8.54,31854.3,34648.0,-0.5868,-0.8642,138.7,96.9,0.525
8.56,31793.3,34560.6,-0.8315,-1.0786,138.7,96.9,0.525
8.58,31814.5,34495.1,-0.7464,-1.2392,138.7,96.9,0.525
8.6,31683.1,34595.9,-1.2738,-0.9919,138.7,96.9,0.525
8.62,31832.8,34495.1,-0.6732,-1.2393,138.7,96.9,0.525
8.64,31936.6,34904.0,-0.2569,-0.236,138.7,96.9,0.525
8.66,31985.1,35269.2,-0.0621,0.66,138.7,96.9,0.525
8.68,32257.9,35560.4,1.0318,1.3744,138.7,96.9,0.525
8.7,32383.4,35836.7,1.5355,2.0523,138.7,96.9,0.525
8.72,32330.3,35733.7,1.3222,1.7997,138.7,96.9,0.525
8.74,32280.2,35568.7,1.1213,1.3947,138.7,96.9,0.525
8.76,32224.3,35336.7,0.8971,0.8255,138.7,96.9,0.525
8.78,32048.5,35291.8,0.192,0.7154,138.7,96.9,0.525
8.8,32043.6,35147.5,0.1724,0.3613,138.7,96.9,0.525
8.82,32002.1,35049.4,0.0058,0.1206,138.7,96.9,0.525
8.84,32027.0,35002.5,0.1057,0.0057,138.7,96.9,0.525
8.86,31916.0,35002.5,-0.3396,0.0056,138.7,96.9,0.525
8.88,31855.6,34902.8,-0.5816,-0.2389,138.7,96.9,0.525
8.9,31837.0,34779.3,-0.6561,-0.5421,138.7,96.9,0.525
8.92,31841.5,34688.4,-0.6381,-0.765,138.7,96.9,0.525
8.94,31829.8,34666.5,-0.6853,-0.8186,138.7,96.9,0.525
8.96,31810.9,34563.4,-0.761,-1.0718,138.7,96.9,0.525
8.98,31800.2,34526.2,-0.804,-1.1629,138.7,96.9,0.525
9.0,31692.3,34474.2,-1.2368,-1.2905,138.7,96.9,0.525
9.02,31754.8,34532.4,-0.9861,-1.1479,138.7,96.9,0.525
9.04,31734.2,34579.8,-1.0686,-1.0314,138.7,96.9,0.525
9.06,31794.6,34713.7,-0.8264,-0.7029,138.7,96.9,0.525
9.08,31949.2,35095.1,-0.2063,0.2328,138.7,96.9,0.525
9.1,32209.7,35429.3,0.8386,1.0527,138.7,96.9,0.525
9.12,32247.4,35672.4,0.9897,1.6492,138.7,96.9,0.525
9.14,32304.0,35752.4,1.2169,1.8454,138.7,96.9,0.525
9.16,32311.4,35700.9,1.2464,1.7192,138.7,96.9,0.525
9.18,32258.8,35533.2,1.0356,1.3076,138.7,96.9,0.525
9.2,32156.6,35288.1,0.6256,0.7063,138.7,96.9,0.525
9.22,32040.6,35170.7,0.1605,0.4183,138.7,96.9,0.525
9.24,32056.8,35156.6,0.2252,0.3837,138.7,96.9,0.525
9.26,32004.1,35066.1,0.0139,0.1617,138.7,96.9,0.525
9.28,32073.2,34941.4,0.2911,-0.1443,138.7,96.9,0.525
9.3,31928.2,34927.1,-0.2904,-0.1794,138.7,96.9,0.525
9.32,31940.1,34822.1,-0.2429,-0.4369,138.7,96.9,0.525
9.34,31846.2,34756.2,-0.6192,-0.5987,138.7,96.9,0.525
9.36,31865.2,34638.3,-0.5432,-0.888,138.7,96.9,0.525
9.38,31801.6,34651.9,-0.7984,-0.8545,138.7,96.9,0.525
9.4,31790.2,34580.6,-0.8442,-1.0295,138.7,96.9,0.525
9.42,31750.0,34585.7,-1.0053,-1.017,138.7,96.9,0.525
9.44,31678.8,34425.0,-1.2909,-1.4112,138.7,96.9,0.525
9.46,31819.0,34537.2,-0.7285,-1.136,138.7,96.9,0.525
9.48,31872.7,34580.7,-0.5131,-1.0294,138.7,96.9,0.525
9.5,31912.8,34799.4,-0.3522,-0.4928,138.7,96.9,0.525
9.52,32077.8,35222.1,0.3095,0.5443,138.7,96.9,0.525
9.54,32227.8,35532.6,0.9114,1.3061,138.7,96.9,0.525
9.56,32356.5,35698.6,1.4275,1.7136,138.7,96.9,0.525
9.58,32323.7,35768.4,1.2957,1.8848,138.7,96.9,0.525
9.6,32284.6,35664.2,1.1392,1.629,138.7,96.9,0.525
9.62,32291.6,35424.4,1.1672,1.0408,138.7,96.9,0.525
9.64,32130.9,35243.6,0.5224,0.5971,138.7,96.9,0.525
9.66,31994.6,35167.5,-0.0243,0.4104,138.7,96.9,0.525
9.68,32045.0,35058.7,0.1779,0.1436,138.7,96.9,0.525
9.7,32006.5,34925.9,0.0236,-0.1824,138.7,96.9,0.525
9.72,31947.0,34910.2,-0.2151,-0.2209,138.7,96.9,0.525
9.74,32024.8,34910.4,0.097,-0.2204,138.7,96.9,0.525
9.76,31849.5,34742.7,-0.6061,-0.6319,138.7,96.9,0.525
9.78,31848.5,34811.6,-0.6102,-0.4628,138.7,96.9,0.525
9.8,31844.5,34695.1,-0.6262,-0.7486,138.7,96.9,0.525
9.82,31893.0,34703.2,-0.4318,-0.7288,138.7,96.9,0.525
9.84,31788.3,34666.0,-0.8515,-0.8199,138.7,96.9,0.525
9.86,31746.1,34468.7,-1.0209,-1.3041,138.7,96.9,0.525
9.88,31798.1,34397.5,-0.8125,-1.4787,138.7,96.9,0.525
9.9,31736.1,34524.3,-1.0611,-1.1675,138.7,96.9,0.525
9.92,31769.2,34666.4,-0.9284,-0.8191,138.7,96.9,0.525
9.94,32039.1,34953.6,0.1543,-0.1143,138.7,96.9,0.525
9.96,32205.7,35250.9,0.8226,0.6151,138.7,96.9,0.525
9.98,32328.1,35570.9,1.3137,1.4001,138.7,96.9,0.525
10.0,32358.3,35690.2,1.4348,1.693,138.7,96.9,0.525
10.02,32272.5,35730.1,1.0904,1.7907,138.7,96.9,0.525
10.04,32291.2,35587.7,1.1656,1.4414,138.7,96.9,0.525
10.06,32265.8,35333.6,1.0637,0.8179,138.7,96.9,0.525
10.08,32096.2,35288.1,0.3834,0.7062,138.7,96.9,0.525
10.1,32073.8,35071.6,0.2937,0.1751,138.7,96.9,0.525
10.12,32133.4,35025.6,0.5327,0.0622,138.7,96.9,0.525
10.14,31985.3,35041.8,-0.0617,0.1021,138.7,96.9,0.525
10.16,31963.5,34839.6,-0.149,-0.3941,138.7,96.9,0.525
10.18,31875.9,34848.9,-0.5002,-0.3713,138.7,96.9,0.525
10.2,31821.5,34773.0,-0.7186,-0.5576,138.7,96.9,0.525
10.22,31917.1,34642.6,-0.335,-0.8773,138.7,96.9,0.525
10.24,31767.0,34756.0,-0.937,-0.5993,138.7,96.9,0.525
10.26,31816.9,34653.7,-0.7371,-0.8501,138.7,96.9,0.525
10.28,31754.7,34476.8,-0.9863,-1.2841,138.7,96.9,0.525
10.3,31742.5,34500.7,-1.0355,-1.2255,138.7,96.9,0.525
10.32,31711.2,34403.7,-1.161,-1.4635,138.7,96.9,0.525
10.34,31767.1,34420.1,-0.9368,-1.4233,138.7,96.9,0.525
10.36,31859.2,34802.0,-0.5672,-0.4863,138.7,96.9,0.525
10.38,32159.8,35081.8,0.6383,0.2002,138.7,96.9,0.525
10.4,32218.1,35283.5,0.8725,0.6951,138.7,96.9,0.525
10.42,32262.6,35688.8,1.051,1.6893,138.7,96.9,0.525
10.44,32405.5,35835.7,1.6239,2.0498,138.7,96.9,0.525
10.46,32398.8,35768.8,1.5972,1.8857,138.7,96.9,0.525
10.48,32327.4,35527.5,1.3107,1.2938,138.7,96.9,0.525
10.5,32195.1,35357.6,0.7801,0.8769,138.7,96.9,0.525
10.52,32094.0,35177.1,0.3746,0.4339,138.7,96.9,0.525
10.54,32039.9,35058.9,0.1577,0.1439,138.7,96.9,0.525
10.56,32056.8,35049.7,0.2251,0.1213,138.7,96.9,0.525
10.58,32140.1,35018.4,0.5596,0.0445,138.7,96.9,0.525
10.6,32060.6,34926.0,0.2408,-0.182,138.7,96.9,0.525
10.62,31970.6,34855.4,-0.1205,-0.3552,138.7,96.9,0.525
10.64,31831.5,34734.5,-0.6783,-0.6519,138.7,96.9,0.525
10.66,31842.2,34667.7,-0.6356,-0.8158,138.7,96.9,0.525
10.68,31785.7,34646.6,-0.8621,-0.8676,138.7,96.9,0.525
10.7,31766.7,34583.3,-0.9385,-1.023,138.7,96.9,0.525
10.72,31774.5,34552.7,-0.907,-1.098,138.7,96.9,0.525
10.74,31763.2,34476.2,-0.9524,-1.2856,138.7,96.9,0.525
10.76,31695.7,34499.3,-1.223,-1.2289,138.7,96.9,0.525
10.78,31803.5,34589.2,-0.7908,-1.0085,138.7,96.9,0.525
10.8,31908.1,34797.9,-0.3712,-0.4965,138.7,96.9,0.525
10.82,32125.7,35120.4,0.5019,0.2949,138.7,96.9,0.525
10.84,32249.1,35554.2,0.9965,1.3591,138.7,96.9,0.525
10.86,32318.2,35755.9,1.2737,1.8541,138.7,96.9,0.525
10.88,32281.1,35752.5,1.125,1.8457,138.7,96.9,0.525
10.9,32284.6,35604.8,1.1391,1.4834,138.7,96.9,0.525
10.92,32267.6,35380.9,1.0707,0.9339,138.7,96.9,0.525
10.94,32132.7,35204.7,0.5298,0.5016,138.7,96.9,0.525
10.96,32074.3,35125.4,0.2957,0.3072,138.7,96.9,0.525
10.98,32085.5,35070.4,0.3403,0.1723,138.7,96.9,0.525
11.0,32066.7,35091.0,0.2649,0.2228,138.7,96.9,0.525
11.02,32007.8,34910.6,0.0288,-0.2198,138.7,96.9,0.525
11.04,31911.8,34851.9,-0.3562,-0.3638,138.7,96.9,0.525
11.06,31862.8,34707.0,-0.5529,-0.7193,138.7,96.9,0.525
11.08,31847.3,34714.3,-0.6148,-0.7014,138.7,96.9,0.525
11.1,31785.0,34687.2,-0.8648,-0.7679,138.7,96.9,0.525
11.12,31889.8,34666.0,-0.4446,-0.82,138.7,96.9,0.525
11.14,31870.1,34649.7,-0.5234,-0.8598,138.7,96.9,0.525
11.16,31737.8,34491.1,-1.0542,-1.249,138.7,96.9,0.525
11.18,31665.1,34480.3,-1.3458,-1.2756,138.7,96.9,0.525
11.2,31831.4,34425.2,-0.6786,-1.4108,138.7,96.9,0.525
11.22,31873.8,34738.6,-0.5087,-0.6419,138.7,96.9,0.525
11.24,32041.4,34978.6,0.1636,-0.053,138.7,96.9,0.525
11.26,32169.1,35318.6,0.6757,0.7811,138.7,96.9,0.525
11.28,32277.2,35643.1,1.1094,1.5773,138.7,96.9,0.525
11.3,32334.3,35785.6,1.3382,1.9271,138.7,96.9,0.525
11.32,32409.6,35725.3,1.6406,1.779,138.7,96.9,0.525
11.34,32242.6,35490.3,0.9707,1.2024,138.7,96.9,0.525
11.36,32230.8,35311.3,0.9231,0.7633,138.7,96.9,0.525
11.38,32044.6,35260.3,0.1764,0.6382,138.7,96.9,0.525
11.4,32037.6,35102.7,0.1482,0.2514,138.7,96.9,0.525
11.42,32023.2,34985.3,0.0907,-0.0366,138.7,96.9,0.525
11.44,32026.1,35107.4,0.1024,0.263,138.7,96.9,0.525
11.46,31960.2,34950.3,-0.162,-0.1223,138.7,96.9,0.525
11.48,31907.2,34800.1,-0.3746,-0.4909,138.7,96.9,0.525
11.5,31876.9,34734.9,-0.4963,-0.6509,138.7,96.9,0.525
11.52,31849.7,34672.1,-0.6055,-0.805,138.7,96.9,0.525
11.54,31850.1,34722.0,-0.6036,-0.6827,138.7,96.9,0.525
11.56,31875.6,34629.9,-0.5014,-0.9085,138.7,96.9,0.525
11.58,31785.7,34613.1,-0.862,-0.9498,138.7,96.9,0.525
11.6,31809.1,34473.3,-0.7683,-1.2929,138.7,96.9,0.525
11.62,31744.6,34484.7,-1.0271,-1.2648,138.7,96.9,0.525
11.64,31721.8,34529.8,-1.1183,-1.1542,138.7,96.9,0.525
11.66,31884.0,34811.1,-0.4676,-0.4641,138.7,96.9,0.525
11.68,32004.0,35153.1,0.0134,0.3751,138.7,96.9,0.525
11.7,32182.2,35449.9,0.7282,1.1034,138.7,96.9,0.525
11.72,32405.1,35724.9,1.6222,1.7781,138.7,96.9,0.525
11.74,32347.3,35776.1,1.3904,1.9037,138.7,96.9,0.525
11.76,32311.5,35665.0,1.2471,1.631,138.7,96.9,0.525
11.78,32192.0,35524.0,0.7676,1.285,138.7,96.9,0.525
11.8,32054.8,35216.0,0.2173,0.5295,138.7,96.9,0.525
11.82,32130.7,35140.7,0.5219,0.3446,138.7,96.9,0.525
11.84,32085.5,35110.0,0.3403,0.2694,138.7,96.9,0.525
11.86,31975.7,35055.5,-0.0999,0.1356,138.7,96.9,0.525
11.88,31976.2,34916.1,-0.0981,-0.2064,138.7,96.9,0.525
11.9,31898.4,34927.3,-0.4099,-0.179,138.7,96.9,0.525
11.92,31839.6,34767.4,-0.646,-0.5711,138.7,96.9,0.525
11.94,31798.4,34727.4,-0.811,-0.6693,138.7,96.9,0.525
11.96,31831.4,34602.2,-0.6788,-0.9765,138.7,96.9,0.525
11.98,31844.8,34603.1,-0.6248,-0.9742,138.7,96.9,0.525
12.0,31825.3,34655.4,-0.7033,-0.846,138.7,96.9,0.525
12.02,31684.2,34529.5,-1.2691,-1.1549,138.7,96.9,0.525
12.04,31735.5,34470.7,-1.0634,-1.299,138.7,96.9,0.525
12.06,31718.0,34523.3,-1.1335,-1.1701,138.7,96.9,0.525
12.08,31774.5,34614.2,-0.9069,-0.947,138.7,96.9,0.525
12.1,31910.0,34896.6,-0.3636,-0.2541,138.7,96.9,0.525
12.12,32132.7,35231.8,0.5296,0.5683,138.7,96.9,0.525
12.14,32289.0,35591.3,1.1566,1.4503,138.7,96.9,0.525
12.16,32379.5,35776.5,1.5197,1.9047,138.7,96.9,0.525
12.18,32300.0,35721.7,1.2007,1.7702,138.7,96.9,0.525
12.2,32262.1,35589.9,1.0489,1.4467,138.7,96.9,0.525
12.22,32177.4,35431.6,0.7089,1.0583,138.7,96.9,0.525
12.24,32098.5,35246.1,0.3926,0.6033,138.7,96.9,0.525
12.26,32011.7,35102.3,0.0442,0.2504,138.7,96.9,0.525
12.28,32022.1,35006.9,0.0861,0.0163,138.7,96.9,0.525
12.3,32017.6,35106.2,0.068,0.2601,138.7,96.9,0.525
12.32,32028.6,34916.6,0.1123,-0.2053,138.7,96.9,0.525
12.34,31925.1,34734.5,-0.3031,-0.652,138.7,96.9,0.525
12.36,31936.8,34775.8,-0.2559,-0.5506,138.7,96.9,0.525
12.38,31861.8,34716.3,-0.5567,-0.6965,138.7,96.9,0.525
12.4,31864.7,34806.1,-0.5453,-0.4762,138.7,96.9,0.525
12.42,31805.0,34602.3,-0.7848,-0.9763,138.7,96.9,0.525
12.44,31754.4,34505.1,-0.9877,-1.2147,138.7,96.9,0.525
12.46,31726.1,34488.0,-1.101,-1.2566,138.7,96.9,0.525
12.48,31736.7,34395.9,-1.0587,-1.4828,138.7,96.9,0.525
12.5,31851.8,34504.7,-0.5971,-1.2158,138.7,96.9,0.525
12.52,31892.7,34734.5,-0.433,-0.6518,138.7,96.9,0.525
12.54,32000.2,34957.0,-0.0016,-0.1061,138.7,96.9,0.525
12.56,32169.8,35435.0,0.6785,1.0666,138.7,96.9,0.525
12.58,32350.9,35575.3,1.4051,1.411,138.7,96.9,0.525
12.6,32338.3,35692.2,1.3543,1.6978,138.7,96.9,0.525
12.62,32296.5,35731.3,1.1867,1.7936,138.7,96.9,0.525
12.64,32217.4,35476.8,0.8694,1.1692,138.7,96.9,0.525
12.66,32187.0,35265.7,0.7475,0.6513,138.7,96.9,0.525
12.68,32109.6,35218.6,0.437,0.5359,138.7,96.9,0.525
12.7,32154.5,35068.7,0.6173,0.168,138.7,96.9,0.525
12.72,32036.6,35124.9,0.1441,0.306,138.7,96.9,0.525
12.74,31981.0,35040.0,-0.0789,0.0975,138.7,96.9,0.525
12.76,31943.1,34952.1,-0.2309,-0.1181,138.7,96.9,0.525
12.78,31920.6,34721.6,-0.321,-0.6835,138.7,96.9,0.525
12.8,31877.5,34686.8,-0.4937,-0.769,138.7,96.9,0.525
12.82,31830.9,34690.6,-0.6806,-0.7596,138.7,96.9,0.525
12.84,31896.9,34629.4,-0.4162,-0.9097,138.7,96.9,0.525
12.86,31769.5,34668.0,-0.927,-0.815,138.7,96.9,0.525
12.88,31765.2,34486.5,-0.9442,-1.2603,138.7,96.9,0.525
12.9,31795.9,34488.5,-0.8212,-1.2554,138.7,96.9,0.525
12.92,31768.3,34478.2,-0.9317,-1.2808,138.7,96.9,0.525
12.94,31828.6,34522.3,-0.6901,-1.1726,138.7,96.9,0.525
12.96,31940.5,34828.8,-0.2411,-0.4205,138.7,96.9,0.525
12.98,32098.7,35168.0,0.3933,0.4117,138.7,96.9,0.525
13.0,32232.7,35534.1,0.931,1.3099,138.7,96.9,0.525
13.02,32350.9,35786.5,1.4049,1.9292,138.7,96.9,0.525
13.04,32357.2,35689.0,1.4304,1.6899,138.7,96.9,0.525
13.06,32187.2,35612.8,0.7482,1.5029,138.7,96.9,0.525
13.08,32207.2,35430.0,0.8286,1.0544,138.7,96.9,0.525
13.1,32080.9,35382.0,0.3221,0.9368,138.7,96.9,0.525
13.12,32112.4,35212.2,0.4483,0.52,138.7,96.9,0.525
13.14,32138.9,35184.0,0.5547,0.4508,138.7,96.9,0.525
13.16,32007.4,34910.7,0.0271,-0.2196,138.7,96.9,0.525
13.18,31910.6,34970.7,-0.3609,-0.0724,138.7,96.9,0.525
13.2,31890.7,34890.5,-0.4408,-0.2691,138.7,96.9,0.525
13.22,31844.0,34791.7,-0.6284,-0.5116,138.7,96.9,0.525
13.24,31825.7,34755.9,-0.7017,-0.5994,138.7,96.9,0.525
13.26,31815.9,34651.5,-0.7409,-0.8554,138.7,96.9,0.525
13.28,31808.5,34667.7,-0.7707,-0.8158,138.7,96.9,0.525
13.3,31951.4,34565.6,-0.1976,-1.0663,138.7,96.9,0.525
13.32,31822.4,34524.9,-0.715,-1.1662,138.7,96.9,0.525
13.34,31798.8,34512.9,-0.8097,-1.1956,138.7,96.9,0.525
13.36,31744.2,34544.6,-1.0286,-1.1178,138.7,96.9,0.525
13.38,31821.7,34572.4,-0.7175,-1.0497,138.7,96.9,0.525
13.4,31925.4,34914.7,-0.3016,-0.2098,138.7,96.9,0.525
13.42,32103.3,35229.0,0.4119,0.5614,138.7,96.9,0.525
13.44,32359.1,35667.6,1.438,1.6373,138.7,96.9,0.525
13.46,32355.9,35714.7,1.4249,1.753,138.7,96.9,0.525
13.48,32317.9,35732.8,1.2725,1.7973,138.7,96.9,0.525
13.5,32291.1,35590.1,1.1652,1.4473,138.7,96.9,0.525
13.52,32193.6,35405.9,0.7739,0.9954,138.7,96.9,0.525
13.54,32107.2,35217.4,0.4274,0.5329,138.7,96.9,0.525
13.56,32082.0,35144.8,0.3264,0.3548,138.7,96.9,0.525
13.58,32088.5,35027.5,0.3524,0.067,138.7,96.9,0.525
13.6,31938.7,35049.6,-0.2484,0.1212,138.7,96.9,0.525
13.62,31969.5,34905.5,-0.125,-0.2324,138.7,96.9,0.525
13.64,31962.6,34770.3,-0.1525,-0.5642,138.7,96.9,0.525
13.66,31899.2,34676.6,-0.407,-0.794,138.7,96.9,0.525
13.68,31756.1,34696.0,-0.9806,-0.7463,138.7,96.9,0.525
13.7,31707.1,34609.5,-1.1774,-0.9586,138.7,96.9,0.525
13.72,31802.4,34668.2,-0.7951,-0.8145,138.7,96.9,0.525
13.74,31808.3,34636.4,-0.7713,-0.8926,138.7,96.9,0.525
13.76,31756.3,34490.1,-0.9798,-1.2515,138.7,96.9,0.525
13.78,31781.9,34494.3,-0.8772,-1.2411,138.7,96.9,0.525
13.8,31728.5,34495.1,-1.0917,-1.2394,138.7,96.9,0.525
13.82,31931.1,34678.4,-0.2788,-0.7895,138.7,96.9,0.525
13.84,32011.6,35023.5,0.0441,0.0571,138.7,96.9,0.525
13.86,32244.7,35368.4,0.9788,0.9033,138.7,96.9,0.525
13.88,32316.2,35691.5,1.2659,1.6961,138.7,96.9,0.525
13.9,32280.8,35701.6,1.1239,1.7209,138.7,96.9,0.525
13.92,32311.8,35614.6,1.2483,1.5073,138.7,96.9,0.525
13.94,32214.5,35472.9,0.8578,1.1598,138.7,96.9,0.525
13.96,32096.4,35339.9,0.3842,0.8335,138.7,96.9,0.525
13.98,32163.4,35176.0,0.653,0.4312,138.7,96.9,0.525
14.0,32060.5,35126.9,0.2402,0.3108,138.7,96.9,0.525
14.02,31998.8,35084.3,-0.0071,0.2064,138.7,96.9,0.525
14.04,32001.4,35011.1,0.003,0.0267,138.7,96.9,0.525
14.06,31882.2,34981.5,-0.475,-0.046,138.7,96.9,0.525
14.08,31893.6,34762.9,-0.4293,-0.5822,138.7,96.9,0.525
14.1,31937.0,34681.2,-0.2551,-0.7828,138.7,96.9,0.525
14.12,31796.5,34667.3,-0.8187,-0.8169,138.7,96.9,0.525
14.14,31901.8,34688.8,-0.3966,-0.7641,138.7,96.9,0.525
14.16,31856.7,34635.4,-0.5773,-0.8951,138.7,96.9,0.525
14.18,31802.0,34522.4,-0.7968,-1.1724,138.7,96.9,0.525
14.2,31743.2,34580.4,-1.0325,-1.03,138.7,96.9,0.525
14.22,31743.4,34427.4,-1.0317,-1.4055,138.7,96.9,0.525
14.24,31824.3,34562.1,-0.7072,-1.0748,138.7,96.9,0.525
14.26,31923.0,34879.0,-0.3112,-0.2975,138.7,96.9,0.525
14.28,32000.1,35187.6,-0.002,0.4598,138.7,96.9,0.525
14.3,32245.4,35502.4,0.9817,1.2321,138.7,96.9,0.525
14.32,32286.4,35752.6,1.1465,1.8459,138.7,96.9,0.525
14.34,32378.0,35858.7,1.5138,2.1064,138.7,96.9,0.525
14.36,32286.2,35593.1,1.1453,1.4547,138.7,96.9,0.525
14.38,32205.5,35496.9,0.8217,1.2187,138.7,96.9,0.525
14.4,32128.9,35262.1,0.5147,0.6425,138.7,96.9,0.525
14.42,32052.8,35062.5,0.2094,0.1528,138.7,96.9,0.525
14.44,32070.1,35150.2,0.2787,0.3681,138.7,96.9,0.525
14.46,32016.3,34969.8,0.0629,-0.0747,138.7,96.9,0.525
14.48,32057.7,34902.5,0.2291,-0.2398,138.7,96.9,0.525
14.5,31975.0,34923.9,-0.1028,-0.1873,138.7,96.9,0.525
14.52,31934.2,34680.4,-0.2664,-0.7846,138.7,96.9,0.525
14.54,31863.7,34701.9,-0.5492,-0.7318,138.7,96.9,0.525
14.56,31874.0,34690.0,-0.508,-0.761,138.7,96.9,0.525
14.58,31810.7,34806.9,-0.7619,-0.4742,138.7,96.9,0.525
14.6,31762.3,34649.1,-0.956,-0.8613,138.7,96.9,0.525
14.62,31759.0,34459.9,-0.9691,-1.3258,138.7,96.9,0.525
14.64,31702.7,34429.0,-1.1949,-1.4015,138.7,96.9,0.525
14.66,31746.3,34393.2,-1.0201,-1.4894,138.7,96.9,0.525
14.68,31824.5,34718.8,-0.7066,-0.6904,138.7,96.9,0.525
14.7,31950.7,35017.4,-0.2004,0.0422,138.7,96.9,0.525
14.72,32020.0,35323.0,0.0779,0.792,138.7,96.9,0.525
14.74,32312.3,35559.9,1.2503,1.3731,138.7,96.9,0.525
14.76,32333.0,35900.5,1.333,2.2088,138.7,96.9,0.525
14.78,32330.9,35783.5,1.3248,1.9219,138.7,96.9,0.525
14.8,32236.2,35604.8,0.9449,1.4833,138.7,96.9,0.525
14.82,32197.3,35439.2,0.789,1.077,138.7,96.9,0.525
14.84,32200.3,35242.9,0.8009,0.5954,138.7,96.9,0.525
14.86,32117.2,35085.2,0.4677,0.2085,138.7,96.9,0.525
14.88,32031.6,35043.1,0.1242,0.1052,138.7,96.9,0.525
14.9,31997.0,35023.9,-0.0146,0.058,138.7,96.9,0.525
14.92,31915.2,34869.6,-0.3426,-0.3204,138.7,96.9,0.525
14.94,31960.3,34853.5,-0.1618,-0.36,138.7,96.9,0.525
14.96,31888.3,34735.1,-0.4506,-0.6504,138.7,96.9,0.525
14.98,31866.2,34706.5,-0.5391,-0.7205,138.7,96.9,0.525
15.0,31911.4,34663.5,-0.3578,-0.8261,138.7,96.9,0.525
15.02,31884.7,34717.9,-0.465,-0.6927,138.7,96.9,0.525
15.04,31731.5,34589.8,-1.0793,-1.0069,138.7,96.9,0.525
15.06,31749.8,34453.3,-1.0063,-1.3418,138.7,96.9,0.525
15.08,31760.8,34421.5,-0.9621,-1.4198,138.7,96.9,0.525
15.1,31621.8,34528.8,-1.5195,-1.1565,138.7,96.9,0.525
15.12,31921.7,34673.3,-0.3167,-0.802,138.7,96.9,0.525
15.14,31999.5,35121.4,-0.0046,0.2973,138.7,96.9,0.525
15.16,32243.0,35463.7,0.9724,1.1371,138.7,96.9,0.525
15.18,32392.1,35667.8,1.5704,1.6378,138.7,96.9,0.525
15.2,32497.8,35795.4,1.9942,1.9509,138.7,96.9,0.525
15.22,32277.3,35638.9,1.1099,1.5671,138.7,96.9,0.525
15.24,32206.9,35523.6,0.8276,1.2841,138.7,96.9,0.525
15.26,32109.5,35272.2,0.4369,0.6674,138.7,96.9,0.525
15.28,32136.5,35134.4,0.545,0.3293,138.7,96.9,0.525
15.3,32049.4,35030.4,0.1956,0.0742,138.7,96.9,0.525
15.32,31958.6,35056.6,-0.1686,0.1384,138.7,96.9,0.525
15.34,32003.6,34973.0,0.0118,-0.0669,138.7,96.9,0.525
15.36,31857.4,34887.1,-0.5747,-0.2775,138.7,96.9,0.525
15.38,31924.0,34812.7,-0.3073,-0.4601,138.7,96.9,0.525
15.4,31892.5,34801.6,-0.4339,-0.4872,138.7,96.9,0.525
15.42,31877.9,34686.5,-0.4924,-0.7697,138.7,96.9,0.525
15.44,31902.3,34617.6,-0.3945,-0.9387,138.7,96.9,0.525
15.46,31895.6,34685.7,-0.4212,-0.7716,138.7,96.9,0.525
15.48,31767.1,34548.9,-0.9368,-1.1072,138.7,96.9,0.525
15.5,31788.0,34486.4,-0.853,-1.2606,138.7,96.9,0.525
15.52,31725.6,34522.2,-1.103,-1.1728,138.7,96.9,0.525
15.54,31778.0,34633.5,-0.8929,-0.8998,138.7,96.9,0.525
15.56,31943.8,34896.0,-0.2279,-0.2557,138.7,96.9,0.525
15.58,32113.0,35201.8,0.4508,0.4945,138.7,96.9,0.525
15.6,32205.1,35559.2,0.8201,1.3715,138.7,96.9,0.525
15.62,32364.3,35751.0,1.4587,1.842,138.7,96.9,0.525
15.64,32360.5,35650.1,1.4433,1.5946,138.7,96.9,0.525
15.66,32251.3,35629.7,1.0054,1.5445,138.7,96.9,0.525
15.68,32176.8,35439.7,0.7066,1.0782,138.7,96.9,0.525
15.7,32178.8,35186.7,0.7147,0.4575,138.7,96.9,0.525
15.72,32134.1,35238.1,0.5354,0.5836,138.7,96.9,0.525
15.74,32004.1,35120.8,0.014,0.2959,138.7,96.9,0.525
15.76,32021.1,34976.5,0.0821,-0.0581,138.7,96.9,0.525
15.78,31929.5,34917.4,-0.2853,-0.2032,138.7,96.9,0.525
15.8,31962.1,34907.0,-0.1545,-0.2286,138.7,96.9,0.525
15.82,31890.0,34799.1,-0.4436,-0.4935,138.7,96.9,0.525
15.84,31918.6,34630.0,-0.3291,-0.9082,138.7,96.9,0.525
15.86,31837.2,34626.1,-0.6554,-0.9179,138.7,96.9,0.525
15.88,31886.0,34662.7,-0.4598,-0.8282,138.7,96.9,0.525
15.9,31886.9,34634.1,-0.456,-0.8982,138.7,96.9,0.525
15.92,31842.5,34519.6,-0.6344,-1.1791,138.7,96.9,0.525
15.94,31724.1,34474.0,-1.1094,-1.2912,138.7,96.9,0.525
15.96,31736.5,34551.3,-1.0593,-1.1015,138.7,96.9,0.525
15.98,31800.7,34747.8,-0.802,-0.6193,138.7,96.9,0.525
16.0,31999.8,34954.6,-0.0032,-0.1118,138.7,96.9,0.525
16.02,32033.0,35374.9,0.13,0.9192,138.7,96.9,0.525
16.04,32314.1,35655.3,1.2576,1.6072,138.7,96.9,0.525
16.06,32484.6,35701.9,1.9411,1.7215,138.7,96.9,0.525
16.08,32398.0,35671.6,1.594,1.6473,138.7,96.9,0.525
16.1,32237.3,35456.2,0.9494,1.1187,138.7,96.9,0.525
16.12,32124.2,35331.4,0.4956,0.8127,138.7,96.9,0.525
16.14,32083.3,35201.0,0.3317,0.4925,138.7,96.9,0.525
16.16,32091.7,35177.8,0.3655,0.4357,138.7,96.9,0.525
16.18,32061.0,35017.4,0.2423,0.0421,138.7,96.9,0.525
16.2,32029.9,35056.2,0.1175,0.1373,138.7,96.9,0.525
16.22,31941.8,34950.9,-0.2361,-0.1211,138.7,96.9,0.525
16.24,31943.0,34709.9,-0.2312,-0.7123,138.7,96.9,0.525
16.26,31819.0,34754.0,-0.7285,-0.604,138.7,96.9,0.525
16.28,31891.5,34625.5,-0.4376,-0.9193,138.7,96.9,0.525
16.3,31873.7,34725.3,-0.5093,-0.6746,138.7,96.9,0.525
16.32,31794.4,34647.4,-0.8271,-0.8656,138.7,96.9,0.525
16.34,31840.3,34595.8,-0.6432,-0.9922,138.7,96.9,0.525
16.36,31701.4,34436.5,-1.2003,-1.3829,138.7,96.9,0.525
16.38,31770.4,34512.3,-0.9236,-1.197,138.7,96.9,0.525
16.4,31811.3,34529.1,-0.7592,-1.1559,138.7,96.9,0.525
16.42,31822.3,34789.6,-0.7155,-0.5166,138.7,96.9,0.525
16.44,32139.2,35158.8,0.5557,0.3892,138.7,96.9,0.525
16.46,32255.7,35542.8,1.023,1.3313,138.7,96.9,0.525
16.48,32319.3,35593.1,1.2782,1.4547,138.7,96.9,0.525
16.5,32348.0,35744.2,1.3932,1.8253,138.7,96.9,0.525
16.52,32320.2,35628.6,1.282,1.5417,138.7,96.9,0.525
16.54,32270.9,35467.3,1.0842,1.1459,138.7,96.9,0.525
16.56,32197.3,35262.9,0.789,0.6446,138.7,96.9,0.525
16.58,32077.0,35100.8,0.3065,0.2469,138.7,96.9,0.525
16.6,32014.2,35145.5,0.0544,0.3565,138.7,96.9,0.525
16.62,31949.6,35009.1,-0.2048,0.0219,138.7,96.9,0.525
16.64,31893.8,35028.2,-0.4283,0.0687,138.7,96.9,0.525
16.66,31816.6,34991.9,-0.7383,-0.0203,138.7,96.9,0.525
16.68,31882.9,34773.3,-0.472,-0.5567,138.7,96.9,0.525
16.7,31933.7,34675.7,-0.2684,-0.7963,138.7,96.9,0.525
16.72,31878.9,34655.8,-0.4882,-0.8449,138.7,96.9,0.525
16.74,31770.9,34631.5,-0.9213,-0.9046,138.7,96.9,0.525
16.76,31867.4,34662.3,-0.5343,-0.8289,138.7,96.9,0.525
16.78,31760.8,34553.2,-0.9619,-1.0967,138.7,96.9,0.525
16.8,31783.5,34504.0,-0.871,-1.2173,138.7,96.9,0.525
16.82,31737.0,34466.7,-1.0575,-1.3089,138.7,96.9,0.525
16.84,31789.1,34620.8,-0.8485,-0.9308,138.7,96.9,0.525
16.86,32050.4,34721.0,0.1996,-0.685,138.7,96.9,0.525
16.88,32070.5,35288.2,0.2804,0.7066,138.7,96.9,0.525
16.9,32284.6,35615.1,1.139,1.5086,138.7,96.9,0.525
16.92,32293.3,35753.5,1.1738,1.8481,138.7,96.9,0.525
16.94,32342.7,35772.3,1.3722,1.8943,138.7,96.9,0.525
16.96,32359.3,35616.3,1.4387,1.5116,138.7,96.9,0.525
16.98,32115.2,35326.1,0.4597,0.7996,138.7,96.9,0.525
17.0,32080.5,35273.2,0.3205,0.6697,138.7,96.9,0.525
17.02,31943.9,35155.3,-0.2275,0.3805,138.7,96.9,0.525
17.04,32040.5,35060.4,0.1598,0.1476,138.7,96.9,0.525
17.06,32029.0,35005.9,0.1138,0.0139,138.7,96.9,0.525
17.08,31994.6,34902.8,-0.0242,-0.2389,138.7,96.9,0.525
17.1,31913.8,34829.2,-0.3484,-0.4197,138.7,96.9,0.525
17.12,31869.4,34742.9,-0.5265,-0.6313,138.7,96.9,0.525
17.14,31883.0,34734.1,-0.4719,-0.6528,138.7,96.9,0.525
17.16,31798.4,34544.1,-0.8112,-1.1191,138.7,96.9,0.525
17.18,31770.0,34659.9,-0.9249,-0.835,138.7,96.9,0.525
17.2,31759.5,34573.2,-0.9672,-1.0476,138.7,96.9,0.525
17.22,31795.8,34529.6,-0.8215,-1.1547,138.7,96.9,0.525
17.24,31752.2,34430.8,-0.9966,-1.3971,138.7,96.9,0.525
17.26,31706.9,34465.6,-1.1783,-1.3117,138.7,96.9,0.525
17.28,31870.0,34725.3,-0.5238,-0.6744,138.7,96.9,0.525
17.3,32039.7,35039.2,0.1567,0.0956,138.7,96.9,0.525
17.32,32171.3,35432.6,0.6847,1.0609,138.7,96.9,0.525
17.34,32296.1,35657.9,1.1853,1.6137,138.7,96.9,0.525
17.36,32434.3,35794.9,1.7397,1.9498,138.7,96.9,0.525
17.38,32245.1,35698.9,0.9805,1.7142,138.7,96.9,0.525
17.4,32287.2,35505.2,1.1494,1.2391,138.7,96.9,0.525
17.42,32148.7,35288.8,0.5937,0.7082,138.7,96.9,0.525
17.44,32039.9,35150.6,0.1575,0.3689,138.7,96.9,0.525
17.46,32009.5,35113.1,0.0357,0.2771,138.7,96.9,0.525
17.48,31986.8,34973.5,-0.0556,-0.0655,138.7,96.9,0.525
17.5,31931.0,34994.0,-0.2792,-0.0151,138.7,96.9,0.525
17.52,31857.5,34859.4,-0.5739,-0.3455,138.7,96.9,0.525
17.54,31934.7,34794.7,-0.2643,-0.5041,138.7,96.9,0.525
17.56,31903.7,34687.2,-0.3889,-0.7679,138.7,96.9,0.525
17.58,31815.4,34687.6,-0.7428,-0.7671,138.7,96.9,0.525
17.6,31866.7,34669.1,-0.5374,-0.8124,138.7,96.9,0.525
17.62,31865.0,34583.0,-0.5439,-1.0237,138.7,96.9,0.525
17.64,31779.4,34580.3,-0.8873,-1.0303,138.7,96.9,0.525
17.66,31768.4,34541.0,-0.9315,-1.1266,138.7,96.9,0.525
17.68,31764.2,34438.5,-0.9481,-1.378,138.7,96.9,0.525
17.7,31744.1,34626.0,-1.0292,-0.9182,138.7,96.9,0.525
17.72,31917.3,34773.9,-0.3343,-0.5553,138.7,96.9,0.525
17.74,32043.4,35126.1,0.1717,0.3088,138.7,96.9,0.525
17.76,32290.4,35516.4,1.1625,1.2665,138.7,96.9,0.525
17.78,32338.5,35746.0,1.3552,1.8299,138.7,96.9,0.525
17.8,32242.3,35743.4,0.9694,1.8234,138.7,96.9,0.525
17.82,32420.3,35713.4,1.6834,1.7497,138.7,96.9,0.525
17.84,32327.5,35429.9,1.3113,1.0542,138.7,96.9,0.525
17.86,32146.2,35373.7,0.5839,0.9163,138.7,96.9,0.525
17.88,32057.9,35073.1,0.2298,0.1788,138.7,96.9,0.525
17.9,32054.1,35147.3,0.2143,0.3609,138.7,96.9,0.525
17.92,32052.4,35028.8,0.2076,0.0702,138.7,96.9,0.525
17.94,31959.1,35045.1,-0.1665,0.1101,138.7,96.9,0.525
17.96,31998.2,34840.9,-0.0099,-0.3909,138.7,96.9,0.525
17.98,31930.2,34774.3,-0.2825,-0.5542,138.7,96.9,0.525
18.0,31786.5,34700.8,-0.8589,-0.7346,138.7,96.9,0.525
18.02,31851.1,34715.7,-0.5996,-0.6979,138.7,96.9,0.525
18.04,31819.5,34732.4,-0.7267,-0.657,138.7,96.9,0.525
18.06,31894.3,34602.7,-0.4263,-0.9753,138.7,96.9,0.525
18.08,31767.7,34461.9,-0.9342,-1.3208,138.7,96.9,0.525
18.1,31804.6,34428.1,-0.7864,-1.4036,138.7,96.9,0.525
18.12,31750.7,34461.7,-1.0026,-1.3212,138.7,96.9,0.525
18.14,31831.8,34636.1,-0.6774,-0.8933,138.7,96.9,0.525
18.16,31913.2,34918.3,-0.3509,-0.2009,138.7,96.9,0.525
18.18,32091.9,35396.6,0.3659,0.9726,138.7,96.9,0.525
18.2,32369.7,35567.6,1.4806,1.392,138.7,96.9,0.525
18.22,32418.3,35824.6,1.6753,2.0226,138.7,96.9,0.525
18.24,32338.0,35757.8,1.3532,1.8587,138.7,96.9,0.525
18.26,32380.9,35606.3,1.5253,1.4869,138.7,96.9,0.525
18.28,32216.4,35387.3,0.8653,0.9496,138.7,96.9,0.525
18.3,32102.1,35243.5,0.4071,0.5969,138.7,96.9,0.525
18.32,32036.5,35192.7,0.1437,0.4722,138.7,96.9,0.525
18.34,32093.8,35072.0,0.3738,0.1761,138.7,96.9,0.525
18.36,32019.5,34936.4,0.0759,-0.1566,138.7,96.9,0.525
18.38,31966.2,34905.0,-0.1382,-0.2336,138.7,96.9,0.525
18.4,31882.4,34839.4,-0.4744,-0.3946,138.7,96.9,0.525
18.42,31953.6,34729.5,-0.1886,-0.6641,138.7,96.9,0.525
18.44,31806.8,34572.9,-0.7774,-1.0485,138.7,96.9,0.525
18.46,31816.1,34674.6,-0.74,-0.799,138.7,96.9,0.525
18.48,31848.3,34683.8,-0.6108,-0.7763,138.7,96.9,0.525
18.5,31808.3,34578.5,-0.7712,-1.0346,138.7,96.9,0.525
18.52,31786.2,34509.5,-0.8599,-1.2038,138.7,96.9,0.525
18.54,31707.9,34446.1,-1.1743,-1.3594,138.7,96.9,0.525
18.56,31720.9,34481.9,-1.1222,-1.2717,138.7,96.9,0.525
18.58,31970.1,34764.6,-0.1224,-0.5781,138.7,96.9,0.525
18.6,32059.4,35083.4,0.2356,0.2041,138.7,96.9,0.525
18.62,32208.1,35388.8,0.8322,0.9534,138.7,96.9,0.525
18.64,32320.2,35664.4,1.2821,1.6295,138.7,96.9,0.525
18.66,32385.8,35641.1,1.5451,1.5723,138.7,96.9,0.525
18.68,32328.3,35695.0,1.3143,1.7047,138.7,96.9,0.525
18.7,32299.9,35412.8,1.2006,1.0124,138.7,96.9,0.525
18.72,32116.5,35282.2,0.4647,0.6918,138.7,96.9,0.525
18.74,32078.6,35226.3,0.3127,0.5548,138.7,96.9,0.525
18.76,32076.0,35192.3,0.3022,0.4714,138.7,96.9,0.525
18.78,31976.2,35033.2,-0.0979,0.0808,138.7,96.9,0.525
18.8,31997.0,35008.5,-0.0145,0.0204,138.7,96.9,0.525
18.82,31969.6,34901.3,-0.1246,-0.2427,138.7,96.9,0.525
18.84,31945.9,34802.6,-0.2194,-0.4849,138.7,96.9,0.525
18.86,31826.0,34747.5,-0.7006,-0.6201,138.7,96.9,0.525
18.88,31884.1,34688.8,-0.4673,-0.764,138.7,96.9,0.525
18.9,31954.1,34630.0,-0.1866,-0.9082,138.7,96.9,0.525
18.92,31815.2,34581.1,-0.7438,-1.0283,138.7,96.9,0.525
18.94,31856.2,34615.5,-0.5795,-0.9438,138.7,96.9,0.525
18.96,31759.8,34522.3,-0.9661,-1.1726,138.7,96.9,0.525
18.98,31706.0,34511.9,-1.1817,-1.198,138.7,96.9,0.525
19.0,31838.9,34619.4,-0.6489,-0.9343,138.7,96.9,0.525
19.02,31998.1,34914.2,-0.0101,-0.2111,138.7,96.9,0.525
19.04,32089.8,35207.9,0.3579,0.5095,138.7,96.9,0.525
19.06,32327.4,35503.4,1.3107,1.2345,138.7,96.9,0.525
19.08,32263.5,35812.0,1.0544,1.9918,138.7,96.9,0.525
19.1,32332.3,35779.7,1.3303,1.9124,138.7,96.9,0.525
19.12,32310.7,35614.0,1.2437,1.506,138.7,96.9,0.525
19.14,32165.2,35518.0,0.6603,1.2704,138.7,96.9,0.525
19.16,32112.7,35175.9,0.4494,0.431,138.7,96.9,0.525
19.18,32142.2,35168.9,0.5678,0.4138,138.7,96.9,0.525
19.2,32080.1,35104.6,0.3188,0.2561,138.7,96.9,0.525
19.22,32050.8,34990.6,0.2011,-0.0235,138.7,96.9,0.525
19.24,32036.6,34973.5,0.1444,-0.0655,138.7,96.9,0.525
19.26,31945.0,34852.3,-0.2231,-0.363,138.7,96.9,0.525
19.28,31901.9,34855.1,-0.3961,-0.356,138.7,96.9,0.525
19.3,31843.8,34650.6,-0.6292,-0.8577,138.7,96.9,0.525
19.32,31828.7,34579.7,-0.6898,-1.0317,138.7,96.9,0.525
19.34,31850.2,34600.4,-0.6035,-0.9808,138.7,96.9,0.525
19.36,31780.7,34594.0,-0.882,-0.9967,138.7,96.9,0.525
19.38,31754.3,34526.8,-0.9881,-1.1614,138.7,96.9,0.525
19.4,31687.7,34410.1,-1.2552,-1.4479,138.7,96.9,0.525
19.42,31777.4,34499.6,-0.8953,-1.2282,138.7,96.9,0.525
19.44,31822.5,34660.7,-0.7144,-0.8331,138.7,96.9,0.525
19.46,32012.3,34950.1,0.0467,-0.123,138.7,96.9,0.525
19.48,32139.1,35348.4,0.5552,0.8542,138.7,96.9,0.525
19.5,32337.4,35574.7,1.3508,1.4094,138.7,96.9,0.525
19.52,32367.5,35796.7,1.4718,1.9542,138.7,96.9,0.525
19.54,32410.8,35670.8,1.6452,1.6454,138.7,96.9,0.525
19.56,32284.9,35605.5,1.1405,1.4851,138.7,96.9,0.525
19.58,32144.1,35267.1,0.5756,0.6548,138.7,96.9,0.525
19.6,32156.9,35234.0,0.6269,0.5736,138.7,96.9,0.525
19.62,32043.4,35102.1,0.1716,0.2499,138.7,96.9,0.525
19.64,32022.2,35019.3,0.0863,0.0467,138.7,96.9,0.525
19.66,32089.6,34990.3,0.3568,-0.0243,138.7,96.9,0.525
19.68,31920.1,34897.5,-0.3231,-0.252,138.7,96.9,0.525
19.7,31932.0,34778.9,-0.2752,-0.5431,138.7,96.9,0.525
19.72,31884.7,34762.8,-0.465,-0.5826,138.7,96.9,0.525
19.74,31825.4,34699.4,-0.7028,-0.738,138.7,96.9,0.525
19.76,31820.9,34638.4,-0.721,-0.8878,138.7,96.9,0.525
19.78,31854.4,34665.4,-0.5867,-0.8214,138.7,96.9,0.525
19.8,31826.4,34553.8,-0.6986,-1.0952,138.7,96.9,0.525
19.82,31711.1,34463.6,-1.1612,-1.3165,138.7,96.9,0.525
19.84,31805.6,34465.6,-0.7824,-1.3117,138.7,96.9,0.525
19.86,31704.9,34491.3,-1.186,-1.2486,138.7,96.9,0.525
19.88,31896.5,34791.1,-0.4177,-0.5131,138.7,96.9,0.525
19.9,32097.5,35049.4,0.3885,0.1207,138.7,96.9,0.525
19.92,32228.7,35477.1,0.915,1.1701,138.7,96.9,0.525
19.94,32406.6,35731.6,1.6282,1.7944,138.7,96.9,0.525
19.96,32341.6,35763.1,1.3676,1.8717,138.7,96.9,0.525
19.98,32368.4,35678.2,1.4754,1.6634,138.7,96.9,0.525
20.0,32243.0,35453.4,0.9721,1.112,138.7,96.9,0.525
20.02,32098.0,35306.3,0.3906,0.751,138.7,96.9,0.525
20.04,32024.9,35169.9,0.0973,0.4163,138.7,96.9,0.525
20.06,31990.9,35152.5,-0.039,0.3737,138.7,96.9,0.525
20.08,32061.1,35051.5,0.2425,0.1259,138.7,96.9,0.525
20.1,32054.6,35048.2,0.2165,0.1177,138.7,96.9,0.525
20.12,31961.7,34834.2,-0.156,-0.4074,138.7,96.9,0.525
20.14,31823.2,34778.7,-0.7117,-0.5436,138.7,96.9,0.525
20.16,31892.6,34771.2,-0.4332,-0.5618,138.7,96.9,0.525
20.18,31862.8,34624.1,-0.5526,-0.9228,138.7,96.9,0.525
20.2,31881.1,34672.4,-0.4795,-0.8043,138.7,96.9,0.525
20.22,31824.3,34675.4,-0.7073,-0.7969,138.7,96.9,0.525
20.24,31799.9,34529.3,-0.8052,-1.1555,138.7,96.9,0.525
20.26,31739.7,34488.7,-1.0468,-1.2551,138.7,96.9,0.525
20.28,31732.0,34536.3,-1.0773,-1.1382,138.7,96.9,0.525
20.3,31925.2,34616.0,-0.3027,-0.9427,138.7,96.9,0.525
20.32,31943.5,34836.9,-0.2292,-0.4007,138.7,96.9,0.525
20.34,32145.9,35295.1,0.5826,0.7235,138.7,96.9,0.525
20.36,32171.6,35553.3,0.6858,1.357,138.7,96.9,0.525
20.38,32412.8,35704.6,1.6532,1.7283,138.7,96.9,0.525
20.4,32283.3,35649.9,1.134,1.594,138.7,96.9,0.525
20.42,32230.1,35518.1,0.9204,1.2707,138.7,96.9,0.525
20.44,32164.9,35370.2,0.6589,0.9077,138.7,96.9,0.525
20.46,32092.4,35276.5,0.3683,0.6777,138.7,96.9,0.525
20.48,32133.3,35120.2,0.5321,0.2944,138.7,96.9,0.525
20.5,32048.9,34968.8,0.1936,-0.077,138.7,96.9,0.525
20.52,32032.2,35041.4,0.1265,0.1011,138.7,96.9,0.525
20.54,32045.9,34861.6,0.1815,-0.34,138.7,96.9,0.525
20.56,31907.7,34755.1,-0.3729,-0.6013,138.7,96.9,0.525
20.58,31825.3,34690.9,-0.7035,-0.7588,138.7,96.9,0.525
20.6,31863.5,34712.5,-0.5499,-0.7058,138.7,96.9,0.525
20.62,31796.0,34645.2,-0.8207,-0.8711,138.7,96.9,0.525
20.64,31857.2,34609.5,-0.5754,-0.9586,138.7,96.9,0.525
20.66,31690.6,34607.9,-1.2434,-0.9625,138.7,96.9,0.525
20.68,31734.9,34515.0,-1.066,-1.1906,138.7,96.9,0.525
20.7,31757.5,34430.8,-0.9753,-1.397,138.7,96.9,0.525
20.72,31817.6,34425.4,-0.7342,-1.4104,138.7,96.9,0.525
20.74,31875.8,34710.0,-0.5006,-0.712,138.7,96.9,0.525
20.76,32052.1,34988.0,0.2065,-0.03,138.7,96.9,0.525
20.78,32192.7,35397.5,0.7705,0.9747,138.7,96.9,0.525
20.8,32333.0,35655.1,1.3333,1.6069,138.7,96.9,0.525
20.82,32383.2,35695.6,1.5344,1.7062,138.7,96.9,0.525
20.84,32426.1,35752.1,1.7067,1.8447,138.7,96.9,0.525
20.86,32231.1,35515.2,0.9245,1.2635,138.7,96.9,0.525
20.88,32150.6,35339.3,0.6016,0.8319,138.7,96.9,0.525
20.9,32003.5,35097.6,0.0116,0.2388,138.7,96.9,0.525
20.92,32124.2,35144.1,0.4957,0.3531,138.7,96.9,0.525
20.94,32031.1,35046.3,0.1222,0.1131,138.7,96.9,0.525
20.96,31946.5,34964.9,-0.2172,-0.0867,138.7,96.9,0.525
20.98,31982.8,34800.5,-0.0713,-0.49,138.7,96.9,0.525
21.0,31865.4,34644.4,-0.5425,-0.873,138.7,96.9,0.525
21.02,31834.3,34721.5,-0.6671,-0.6839,138.7,96.9,0.525
21.04,31880.1,34680.1,-0.4835,-0.7855,138.7,96.9,0.525
21.06,31966.9,34681.8,-0.1351,-0.7812,138.7,96.9,0.525
21.08,31844.0,34668.6,-0.6282,-0.8136,138.7,96.9,0.525
21.1,31810.0,34517.9,-0.7645,-1.1833,138.7,96.9,0.525
21.12,31636.1,34484.2,-1.4621,-1.2659,138.7,96.9,0.525
21.14,31774.2,34384.9,-0.9081,-1.5096,138.7,96.9,0.525
21.16,31698.7,34564.2,-1.2111,-1.0697,138.7,96.9,0.525
21.18,31931.4,34716.2,-0.2776,-0.6968,138.7,96.9,0.525
21.2,32099.0,35135.9,0.3945,0.333,138.7,96.9,0.525
21.22,32247.8,35482.8,0.9915,1.1839,138.7,96.9,0.525
21.24,32404.2,35623.1,1.6186,1.5283,138.7,96.9,0.525
21.26,32295.2,35784.3,1.1817,1.9238,138.7,96.9,0.525
21.28,32327.4,35649.2,1.3106,1.5922,138.7,96.9,0.525
21.3,32186.6,35431.1,0.7461,1.0571,138.7,96.9,0.525
21.32,32174.5,35302.1,0.6976,0.7407,138.7,96.9,0.525
21.34,32123.8,35128.5,0.4941,0.3148,138.7,96.9,0.525
21.36,32106.5,35163.2,0.4247,0.3999,138.7,96.9,0.525
21.38,32076.3,35123.1,0.3034,0.3015,138.7,96.9,0.525
21.4,31864.3,34935.2,-0.5468,-0.1594,138.7,96.9,0.525
21.42,31904.9,34828.4,-0.3841,-0.4215,138.7,96.9,0.525
21.44,31809.0,34777.9,-0.7687,-0.5454,138.7,96.9,0.525
21.46,31863.5,34720.9,-0.5502,-0.6854,138.7,96.9,0.525
21.48,31856.1,34772.7,-0.5796,-0.5582,138.7,96.9,0.525
21.5,31806.7,34610.1,-0.778,-0.957,138.7,96.9,0.525
21.52,31827.6,34694.1,-0.6942,-0.751,138.7,96.9,0.525
21.54,31805.0,34466.9,-0.7846,-1.3084,138.7,96.9,0.525
21.56,31712.7,34472.0,-1.155,-1.296,138.7,96.9,0.525
21.58,31706.7,34477.9,-1.179,-1.2815,138.7,96.9,0.525
21.6,31791.8,34621.8,-0.8375,-0.9285,138.7,96.9,0.525
21.62,32028.6,34896.4,0.1123,-0.2547,138.7,96.9,0.525
21.64,32213.8,35199.5,0.8549,0.4889,138.7,96.9,0.525
21.66,32265.6,35513.1,1.063,1.2585,138.7,96.9,0.525
21.68,32344.9,35701.9,1.3809,1.7216,138.7,96.9,0.525
21.7,32365.8,35683.5,1.4648,1.6765,138.7,96.9,0.525
21.72,32292.2,35645.6,1.1695,1.5833,138.7,96.9,0.525
21.74,32178.7,35408.8,0.7144,1.0025,138.7,96.9,0.525
21.76,32110.7,35214.2,0.4414,0.525,138.7,96.9,0.525
21.78,32138.0,35165.7,0.5509,0.4061,138.7,96.9,0.525
21.8,32027.5,35127.6,0.1079,0.3124,138.7,96.9,0.525
21.82,32002.0,34988.6,0.0055,-0.0286,138.7,96.9,0.525
21.84,31998.9,34956.0,-0.007,-0.1084,138.7,96.9,0.525
21.86,31861.9,34879.2,-0.5564,-0.2969,138.7,96.9,0.525
21.88,31808.8,34796.4,-0.7696,-0.4999,138.7,96.9,0.525
21.9,31891.4,34661.9,-0.4382,-0.8299,138.7,96.9,0.525
21.92,31792.7,34660.2,-0.8342,-0.8343,138.7,96.9,0.525
21.94,31843.0,34683.6,-0.6322,-0.7767,138.7,96.9,0.525
21.96,31765.1,34542.6,-0.9446,-1.1228,138.7,96.9,0.525
21.98,31818.0,34547.6,-0.7327,-1.1104,138.7,96.9,0.525
22.0,31721.9,34397.7,-1.1182,-1.4782,138.7,96.9,0.525
22.02,31718.0,34438.8,-1.1337,-1.3774,138.7,96.9,0.525
22.04,31859.9,34665.4,-0.5644,-0.8213,138.7,96.9,0.525
22.06,32019.3,35072.5,0.0748,0.1773,138.7,96.9,0.525
22.08,32219.7,35391.8,0.8786,0.9608,138.7,96.9,0.525
22.1,32387.6,35698.0,1.5523,1.7121,138.7,96.9,0.525
22.12,32273.4,35742.6,1.0939,1.8215,138.7,96.9,0.525
22.14,32246.1,35607.3,0.9848,1.4895,138.7,96.9,0.525
22.16,32245.4,35476.1,0.9819,1.1677,138.7,96.9,0.525
22.18,32147.6,35298.1,0.5895,0.7308,138.7,96.9,0.525
22.2,32048.0,35128.5,0.1899,0.3147,138.7,96.9,0.525
22.22,32103.0,35135.4,0.4108,0.3317,138.7,96.9,0.525
22.24,32062.3,34998.3,0.2475,-0.0046,138.7,96.9,0.525
22.26,32072.9,35099.3,0.2898,0.2431,138.7,96.9,0.525
22.28,31955.5,34842.0,-0.1812,-0.3882,138.7,96.9,0.525
22.3,31948.0,34770.7,-0.2111,-0.5631,138.7,96.9,0.525
22.32,31815.8,34777.3,-0.7415,-0.547,138.7,96.9,0.525
22.34,31830.2,34640.9,-0.6838,-0.8817,138.7,96.9,0.525
22.36,31950.5,34590.8,-0.2012,-1.0046,138.7,96.9,0.525
22.38,31775.8,34599.6,-0.9018,-0.9828,138.7,96.9,0.525
22.4,31848.7,34464.1,-0.6096,-1.3153,138.7,96.9,0.525
22.42,31867.9,34430.5,-0.5324,-1.3978,138.7,96.9,0.525
22.44,31759.6,34436.3,-0.9667,-1.3836,138.7,96.9,0.525
22.46,31639.8,34501.8,-1.4475,-1.2229,138.7,96.9,0.525
22.48,31957.1,34887.0,-0.1744,-0.2779,138.7,96.9,0.525
22.5,32094.9,35139.1,0.3781,0.3407,138.7,96.9,0.525
22.52,32225.1,35435.4,0.9003,1.0677,138.7,96.9,0.525
22.54,32340.2,35763.3,1.362,1.8723,138.7,96.9,0.525
22.56,32364.8,35751.3,1.4607,1.8429,138.7,96.9,0.525
22.58,32286.1,35637.9,1.1449,1.5646,138.7,96.9,0.525
22.6,32248.7,35394.0,0.9949,0.9661,138.7,96.9,0.525
22.62,32207.8,35274.4,0.8311,0.6728,138.7,96.9,0.525
22.64,32093.3,35091.1,0.3717,0.2229,138.7,96.9,0.525
22.66,32097.6,35057.8,0.3889,0.1412,138.7,96.9,0.525
22.68,32001.0,35150.3,0.0013,0.3682,138.7,96.9,0.525
22.7,31997.8,34996.3,-0.0115,-0.0095,138.7,96.9,0.525
22.72,31852.5,34864.2,-0.5943,-0.3338,138.7,96.9,0.525
22.74,31841.9,34773.4,-0.6366,-0.5565,138.7,96.9,0.525
22.76,31837.7,34647.1,-0.6535,-0.8663,138.7,96.9,0.525
22.78,31881.2,34754.1,-0.479,-0.6038,138.7,96.9,0.525
22.8,31803.0,34679.4,-0.7927,-0.7871,138.7,96.9,0.525
22.82,31866.3,34664.6,-0.5388,-0.8233,138.7,96.9,0.525
22.84,31782.9,34481.4,-0.8732,-1.2729,138.7,96.9,0.525
22.86,31709.0,34469.0,-1.1696,-1.3033,138.7,96.9,0.525
22.88,31810.9,34423.1,-0.7609,-1.4159,138.7,96.9,0.525
22.9,31754.2,34615.0,-0.9886,-0.9451,138.7,96.9,0.525
22.92,31980.8,34895.2,-0.0794,-0.2576,138.7,96.9,0.525
22.94,32172.1,35248.7,0.6878,0.6097,138.7,96.9,0.525
22.96,32222.4,35604.2,0.8894,1.4818,138.7,96.9,0.525
22.98,32332.4,35904.9,1.3307,2.2197,138.7,96.9,0.525
23.0,32345.0,35668.4,1.3812,1.6394,138.7,96.9,0.525
23.02,32215.3,35556.9,0.8612,1.3658,138.7,96.9,0.525
23.04,32271.7,35346.7,1.0872,0.85,138.7,96.9,0.525
23.06,32015.2,35294.9,0.0583,0.7231,138.7,96.9,0.525
23.08,32146.4,35068.0,0.5847,0.1664,138.7,96.9,0.525
23.1,32102.5,35083.4,0.4085,0.204,138.7,96.9,0.525
23.12,32027.7,35062.4,0.1085,0.1525,138.7,96.9,0.525
23.14,31980.6,34946.2,-0.0805,-0.1324,138.7,96.9,0.525
23.16,31906.6,34810.1,-0.3771,-0.4663,138.7,96.9,0.525
23.18,31891.4,34695.5,-0.4381,-0.7477,138.7,96.9,0.525
23.2,31834.8,34697.3,-0.6652,-0.7431,138.7,96.9,0.525
23.22,31796.2,34641.9,-0.8201,-0.8792,138.7,96.9,0.525
23.24,31849.8,34743.9,-0.6052,-0.6288,138.7,96.9,0.525
23.26,31817.8,34574.6,-0.7334,-1.0441,138.7,96.9,0.525
23.28,31846.2,34384.3,-0.6195,-1.5112,138.7,96.9,0.525
23.3,31713.6,34426.5,-1.1512,-1.4076,138.7,96.9,0.525
23.32,31747.9,34476.6,-1.0138,-1.2847,138.7,96.9,0.525
23.34,31918.2,34740.9,-0.3305,-0.6363,138.7,96.9,0.525
23.36,32009.0,35015.3,0.0334,0.037,138.7,96.9,0.525
23.38,32146.7,35443.4,0.5859,1.0873,138.7,96.9,0.525
23.4,32276.8,35699.3,1.1077,1.7153,138.7,96.9,0.525
23.42,32413.6,35746.3,1.6564,1.8306,138.7,96.9,0.525
23.44,32287.4,35669.6,1.1502,1.6424,138.7,96.9,0.525
23.46,32232.4,35476.6,0.9297,1.1688,138.7,96.9,0.525
23.48,32038.9,35348.4,0.1537,0.8542,138.7,96.9,0.525
23.5,32086.9,35111.7,0.346,0.2736,138.7,96.9,0.525
23.52,32023.8,35076.1,0.0928,0.1861,138.7,96.9,0.525
23.54,32012.5,35066.0,0.0477,0.1614,138.7,96.9,0.525
23.56,31998.5,35108.3,-0.0085,0.2651,138.7,96.9,0.525
23.58,32072.5,34834.0,0.2883,-0.4078,138.7,96.9,0.525
23.6,31922.1,34673.6,-0.3148,-0.8013,138.7,96.9,0.525
23.62,31884.4,34693.6,-0.4664,-0.7522,138.7,96.9,0.525
23.64,31814.2,34686.6,-0.7477,-0.7694,138.7,96.9,0.525
23.66,31760.7,34646.1,-0.9623,-0.8688,138.7,96.9,0.525
23.68,31730.0,34616.0,-1.0855,-0.9427,138.7,96.9,0.525
23.7,31744.8,34657.7,-1.0261,-0.8403,138.7,96.9,0.525
23.72,31769.7,34491.3,-0.9261,-1.2485,138.7,96.9,0.525
23.74,31692.5,34466.8,-1.236,-1.3086,138.7,96.9,0.525
23.76,31847.4,34664.5,-0.6147,-0.8237,138.7,96.9,0.525
23.78,31888.8,34840.8,-0.4485,-0.3911,138.7,96.9,0.525
23.8,32134.8,35192.7,0.5382,0.4722,138.7,96.9,0.525
23.82,32249.4,35538.0,0.9979,1.3195,138.7,96.9,0.525
23.84,32345.7,35767.4,1.3843,1.8822,138.7,96.9,0.525
23.86,32455.3,35597.6,1.8239,1.4657,138.7,96.9,0.525
23.88,32296.6,35636.7,1.1872,1.5616,138.7,96.9,0.525
23.9,32253.7,35415.8,1.0153,1.0197,138.7,96.9,0.525
23.92,32142.5,35204.0,0.5692,0.5001,138.7,96.9,0.525
23.94,32131.2,35125.1,0.5236,0.3063,138.7,96.9,0.525
23.96,32062.4,35081.3,0.2477,0.1989,138.7,96.9,0.525
23.98,31993.6,35044.8,-0.0282,0.1094,138.7,96.9,0.525
24.0,31960.1,34945.3,-0.1627,-0.1348,138.7,96.9,0.525
24.02,31999.4,34822.5,-0.0049,-0.4361,138.7,96.9,0.525
24.04,31747.0,34718.4,-1.0172,-0.6914,138.7,96.9,0.525
24.06,31894.4,34641.1,-0.426,-0.881,138.7,96.9,0.525
24.08,31833.3,34687.5,-0.6711,-0.7672,138.7,96.9,0.525
24.1,31894.3,34647.5,-0.4266,-0.8653,138.7,96.9,0.525
24.12,31828.8,34581.6,-0.6894,-1.0271,138.7,96.9,0.525
24.14,31871.9,34490.9,-0.5162,-1.2495,138.7,96.9,0.525
24.16,31766.4,34430.2,-0.9396,-1.3985,138.7,96.9,0.525
24.18,31675.5,34524.2,-1.3041,-1.1679,138.7,96.9,0.525
24.2,31908.6,34614.7,-0.3691,-0.9459,138.7,96.9,0.525
24.22,31941.1,34991.9,-0.239,-0.0204,138.7,96.9,0.525
24.24,32127.2,35441.4,0.5076,1.0825,138.7,96.9,0.525
24.26,32280.5,35598.1,1.1224,1.4669,138.7,96.9,0.525
24.28,32373.8,35768.1,1.497,1.884,138.7,96.9,0.525
24.3,32297.7,35763.2,1.1916,1.8719,138.7,96.9,0.525
24.32,32196.2,35501.1,0.7846,1.2289,138.7,96.9,0.525
24.34,32196.7,35274.0,0.7864,0.6716,138.7,96.9,0.525
24.36,32079.5,35313.1,0.3162,0.7677,138.7,96.9,0.525
24.38,32055.1,35225.6,0.2185,0.553,138.7,96.9,0.525
24.4,32033.0,35009.9,0.1297,0.0239,138.7,96.9,0.525
24.42,31995.7,34983.3,-0.0197,-0.0414,138.7,96.9,0.525
24.44,31888.2,34889.4,-0.451,-0.2719,138.7,96.9,0.525
24.46,31804.5,34813.2,-0.7866,-0.4587,138.7,96.9,0.525
24.48,31774.9,34807.5,-0.9056,-0.4729,138.7,96.9,0.525
24.5,31733.8,34624.9,-1.0703,-0.9208,138.7,96.9,0.525
24.52,31760.9,34638.3,-0.9615,-0.888,138.7,96.9,0.525
24.54,31832.5,34634.0,-0.6745,-0.8985,138.7,96.9,0.525
24.56,31755.7,34609.0,-0.9824,-0.9599,138.7,96.9,0.525
24.58,31770.2,34576.6,-0.9242,-1.0393,138.7,96.9,0.525
24.6,31734.4,34444.0,-1.0678,-1.3645,138.7,96.9,0.525
24.62,31787.9,34458.0,-0.8534,-1.3303,138.7,96.9,0.525
24.64,31849.6,34785.0,-0.6057,-0.5281,138.7,96.9,0.525
24.66,31990.1,35231.2,-0.042,0.5668,138.7,96.9,0.525
24.68,32198.3,35512.4,0.7928,1.2566,138.7,96.9,0.525
24.7,32300.2,35746.9,1.2016,1.8319,138.7,96.9,0.525
24.72,32431.4,35735.0,1.7277,1.8028,138.7,96.9,0.525
24.74,32394.0,35598.2,1.578,1.4671,138.7,96.9,0.525
24.76,32280.6,35454.7,1.1229,1.1151,138.7,96.9,0.525
24.78,32232.9,35246.1,0.9317,0.6032,138.7,96.9,0.525
24.8,32068.8,35149.7,0.2733,0.3667,138.7,96.9,0.525
24.82,32068.4,35174.2,0.272,0.4268,138.7,96.9,0.525
24.84,32048.0,35027.4,0.19,0.0668,138.7,96.9,0.525
24.86,32000.0,34938.7,-0.0024,-0.151,138.7,96.9,0.525
24.88,31972.7,34806.9,-0.1121,-0.4743,138.7,96.9,0.525
24.9,31969.2,34761.9,-0.1259,-0.5848,138.7,96.9,0.525
24.92,31943.5,34685.5,-0.2291,-0.7721,138.7,96.9,0.525
24.94,31872.8,34694.1,-0.5125,-0.7511,138.7,96.9,0.525
24.96,31911.5,34582.3,-0.3575,-1.0253,138.7,96.9,0.525
24.98,31847.0,34614.4,-0.6161,-0.9467,138.7,96.9,0.525
25.0,31854.2,34593.4,-0.5873,-0.998,138.7,96.9,0.525
25.02,31801.0,34511.9,-0.8006,-1.1981,138.7,96.9,0.525
25.04,31741.9,34483.8,-1.0379,-1.2669,138.7,96.9,0.525
25.06,31816.0,34636.6,-0.7407,-0.8921,138.7,96.9,0.525
25.08,31993.2,34871.4,-0.0296,-0.3161,138.7,96.9,0.525
25.1,32045.8,35294.9,0.1813,0.7231,138.7,96.9,0.525
25.12,32310.3,35636.9,1.2423,1.562,138.7,96.9,0.525
25.14,32416.4,35753.3,1.6676,1.8476,138.7,96.9,0.525
25.16,32412.4,35817.7,1.6518,2.0057,138.7,96.9,0.525
25.18,32344.0,35601.3,1.3775,1.4747,138.7,96.9,0.525
25.2,32174.1,35438.7,0.6958,1.0759,138.7,96.9,0.525
25.22,32092.2,35218.3,0.3672,0.5351,138.7,96.9,0.525
25.24,32068.4,35113.8,0.2718,0.2787,138.7,96.9,0.525
25.26,32105.8,35150.3,0.4217,0.3682,138.7,96.9,0.525
25.28,31963.6,34987.2,-0.1487,-0.0319,138.7,96.9,0.525
25.3,31853.2,34950.1,-0.5913,-0.1228,138.7,96.9,0.525
25.32,31998.3,34830.5,-0.0093,-0.4164,138.7,96.9,0.525
25.34,31864.8,34720.8,-0.5447,-0.6855,138.7,96.9,0.525
25.36,31834.3,34593.9,-0.667,-0.9968,138.7,96.9,0.525
25.38,31900.6,34681.5,-0.4014,-0.782,138.7,96.9,0.525
25.4,31797.3,34580.2,-0.8156,-1.0306,138.7,96.9,0.525
25.42,31821.5,34671.6,-0.7186,-0.8062,138.7,96.9,0.525
25.44,31713.1,34461.9,-1.1534,-1.3208,138.7,96.9,0.525
25.46,31746.2,34480.6,-1.0206,-1.2749,138.7,96.9,0.525
25.48,31825.9,34492.2,-0.7011,-1.2463,138.7,96.9,0.525
25.5,31891.9,34728.6,-0.4361,-0.6664,138.7,96.9,0.525
25.52,32003.8,34955.9,0.0129,-0.1087,138.7,96.9,0.525
25.54,32124.7,35422.0,0.4975,1.0348,138.7,96.9,0.525
25.56,32236.8,35740.3,0.9473,1.8158,138.7,96.9,0.525
25.58,32396.3,35796.4,1.587,1.9535,138.7,96.9,0.525
25.6,32326.6,35694.8,1.3075,1.7042,138.7,96.9,0.525
25.62,32302.2,35440.7,1.2098,1.0806,138.7,96.9,0.525
25.64,32208.6,35282.1,0.8343,0.6915,138.7,96.9,0.525
25.66,32066.5,35285.7,0.2644,0.7003,138.7,96.9,0.525
25.68,31977.7,35085.0,-0.092,0.2081,138.7,96.9,0.525
25.7,32012.3,35005.9,0.0469,0.0139,138.7,96.9,0.525
25.72,32000.4,35041.7,-0.0011,0.1018,138.7,96.9,0.525
25.74,31932.6,34830.1,-0.2728,-0.4174,138.7,96.9,0.525
25.76,31924.5,34774.7,-0.3052,-0.5534,138.7,96.9,0.525
25.78,31856.4,34695.5,-0.5784,-0.7476,138.7,96.9,0.525
25.8,31767.0,34738.5,-0.9369,-0.642,138.7,96.9,0.525
25.82,31809.4,34727.8,-0.7669,-0.6684,138.7,96.9,0.525
25.84,31827.2,34624.1,-0.6956,-0.9229,138.7,96.9,0.525
25.86,31874.4,34480.0,-0.5062,-1.2763,138.7,96.9,0.525
25.88,31730.4,34585.5,-1.0839,-1.0176,138.7,96.9,0.525
25.9,31706.5,34432.5,-1.1799,-1.3929,138.7,96.9,0.525
25.92,31794.9,34677.2,-0.8254,-0.7924,138.7,96.9,0.525
25.94,31871.6,34793.8,-0.5175,-0.5064,138.7,96.9,0.525
25.96,32087.7,35076.2,0.3493,0.1865,138.7,96.9,0.525
25.98,32278.7,35525.9,1.1153,1.2899,138.7,96.9,0.525
26.0,32257.3,35714.0,1.0294,1.7512,138.7,96.9,0.525
26.02,32381.3,35761.5,1.527,1.8678,138.7,96.9,0.525
26.04,32335.6,35670.1,1.3436,1.6435,138.7,96.9,0.525
26.06,32214.8,35501.5,0.859,1.2298,138.7,96.9,0.525
26.08,32100.3,35328.1,0.3999,0.8046,138.7,96.9,0.525
26.1,32137.5,35209.0,0.5491,0.5123,138.7,96.9,0.525
26.12,32019.6,35037.4,0.0761,0.0912,138.7,96.9,0.525
26.14,32031.2,34934.8,0.1225,-0.1606,138.7,96.9,0.525
26.16,32002.2,34980.3,0.0063,-0.0488,138.7,96.9,0.525
26.18,31934.3,34884.5,-0.266,-0.284,138.7,96.9,0.525
26.2,31951.3,34790.8,-0.198,-0.5138,138.7,96.9,0.525
26.22,31813.4,34663.8,-0.751,-0.8254,138.7,96.9,0.525
26.24,31742.6,34648.0,-1.0348,-0.8641,138.7,96.9,0.525
26.26,31897.3,34690.1,-0.4143,-0.7607,138.7,96.9,0.525
26.28,31793.2,34582.8,-0.8322,-1.0242,138.7,96.9,0.525
26.3,31775.5,34589.6,-0.9028,-1.0074,138.7,96.9,0.525
26.32,31753.3,34586.2,-0.9919,-1.0159,138.7,96.9,0.525
26.34,31792.5,34295.6,-0.8347,-1.7288,138.7,96.9,0.525
26.36,31827.3,34564.8,-0.6953,-1.0682,138.7,96.9,0.525
26.38,31952.6,34881.8,-0.1925,-0.2906,138.7,96.9,0.525
26.4,32149.0,35262.6,0.5953,0.6436,138.7,96.9,0.525
26.42,32189.0,35629.6,0.7556,1.5442,138.7,96.9,0.525
26.44,32337.8,35738.3,1.3523,1.8108,138.7,96.9,0.525
26.46,32389.8,35673.2,1.561,1.6512,138.7,96.9,0.525
26.48,32370.6,35546.9,1.4841,1.3412,138.7,96.9,0.525
26.5,32232.9,35302.9,0.9315,0.7427,138.7,96.9,0.525
26.52,32112.4,35266.9,0.4484,0.6542,138.7,96.9,0.525
26.54,32026.4,35125.3,0.1033,0.307,138.7,96.9,0.525
26.56,32037.8,35083.1,0.149,0.2033,138.7,96.9,0.525
26.58,32002.4,34917.9,0.007,-0.2018,138.7,96.9,0.525
26.6,31987.6,34862.8,-0.0523,-0.3371,138.7,96.9,0.525
26.62,31986.1,34878.5,-0.0581,-0.2985,138.7,96.9,0.525
26.64,31892.8,34714.1,-0.4325,-0.702,138.7,96.9,0.525
26.66,31831.8,34640.8,-0.6771,-0.8818,138.7,96.9,0.525
26.68,31839.2,34686.3,-0.6474,-0.7702,138.7,96.9,0.525
26.7,31805.9,34608.9,-0.781,-0.9602,138.7,96.9,0.525
26.72,31836.8,34604.4,-0.6571,-0.9712,138.7,96.9,0.525
26.74,31805.1,34657.2,-0.7844,-0.8416,138.7,96.9,0.525
26.76,31701.9,34413.8,-1.1984,-1.4387,138.7,96.9,0.525
26.78,31807.1,34478.4,-0.7763,-1.2803,138.7,96.9,0.525
26.8,31801.5,34746.0,-0.7986,-0.6236,138.7,96.9,0.525
26.82,32050.4,35116.9,0.1997,0.2862,138.7,96.9,0.525
26.84,32264.9,35429.7,1.0602,1.0537,138.7,96.9,0.525
26.86,32257.7,35730.2,1.0312,1.791,138.7,96.9,0.525
26.88,32411.7,35732.6,1.6488,1.7969,138.7,96.9,0.525
26.9,32448.3,35697.5,1.7958,1.7109,138.7,96.9,0.525
26.92,32250.6,35558.3,1.0028,1.3694,138.7,96.9,0.525
26.94,32155.8,35231.0,0.6226,0.5662,138.7,96.9,0.525
26.96,32027.7,35178.4,0.1084,0.4372,138.7,96.9,0.525
26.98,32126.8,35057.5,0.506,0.1405,138.7,96.9,0.525
27.0,32085.7,35065.6,0.3413,0.1605,138.7,96.9,0.525
27.02,32052.4,34978.3,0.2077,-0.0537,138.7,96.9,0.525
27.04,32044.1,34856.9,0.1744,-0.3516,138.7,96.9,0.525
27.06,31919.3,34848.9,-0.3262,-0.3711,138.7,96.9,0.525
27.08,31874.2,34719.6,-0.507,-0.6884,138.7,96.9,0.525
27.1,31819.2,34727.5,-0.7278,-0.6692,138.7,96.9,0.525
27.12,31873.1,34640.9,-0.5116,-0.8815,138.7,96.9,0.525
27.14,31873.2,34629.5,-0.511,-0.9095,138.7,96.9,0.525
27.16,31762.3,34487.0,-0.9559,-1.2591,138.7,96.9,0.525
27.18,31754.6,34399.5,-0.9867,-1.4739,138.7,96.9,0.525
27.2,31755.9,34518.5,-0.9817,-1.182,138.7,96.9,0.525
27.22,31882.0,34640.3,-0.4758,-0.883,138.7,96.9,0.525
27.24,31915.6,34844.4,-0.341,-0.3822,138.7,96.9,0.525
27.26,32184.9,35133.5,0.7392,0.3271,138.7,96.9,0.525
27.28,32254.0,35480.5,1.0162,1.1783,138.7,96.9,0.525
27.3,32398.3,35736.2,1.5951,1.8058,138.7,96.9,0.525
27.32,32370.8,35798.7,1.485,1.959,138.7,96.9,0.525
27.34,32331.1,35611.1,1.3257,1.4988,138.7,96.9,0.525
27.36,32171.5,35482.6,0.6856,1.1836,138.7,96.9,0.525
27.38,32192.0,35208.9,0.7676,0.512,138.7,96.9,0.525
27.4,32053.0,35124.9,0.2101,0.3058,138.7,96.9,0.525
27.42,32002.9,35058.0,0.0091,0.1419,138.7,96.9,0.525
27.44,31933.2,35061.5,-0.2706,0.1504,138.7,96.9,0.525
27.46,32010.2,34969.9,0.0383,-0.0744,138.7,96.9,0.525
27.48,31960.5,34859.9,-0.161,-0.3444,138.7,96.9,0.525
27.5,31943.5,34772.6,-0.2292,-0.5584,138.7,96.9,0.525
27.52,31877.5,34580.4,-0.4939,-1.03,138.7,96.9,0.525
27.54,31848.6,34727.5,-0.6099,-0.669,138.7,96.9,0.525
27.56,31820.8,34563.2,-0.7212,-1.0722,138.7,96.9,0.525
27.58,31860.6,34616.8,-0.5616,-0.9406,138.7,96.9,0.525
27.6,31725.2,34513.6,-1.1049,-1.194,138.7,96.9,0.525
27.62,31852.0,34474.6,-0.5961,-1.2897,138.7,96.9,0.525
27.64,31777.1,34457.9,-0.8965,-1.3305,138.7,96.9,0.525
27.66,31838.7,34746.4,-0.6493,-0.6226,138.7,96.9,0.525
27.68,31970.9,34898.3,-0.1194,-0.25,138.7,96.9,0.525
27.7,32223.5,35342.7,0.894,0.8403,138.7,96.9,0.525
27.72,32238.3,35572.4,0.9532,1.4039,138.7,96.9,0.525
27.74,32433.9,35817.3,1.738,2.0048,138.7,96.9,0.525
27.76,32445.3,35685.2,1.7837,1.6805,138.7,96.9,0.525
27.78,32219.6,35497.5,0.8782,1.22,138.7,96.9,0.525
27.8,32153.9,35349.3,0.6149,0.8566,138.7,96.9,0.525
27.82,32064.2,35196.6,0.255,0.482,138.7,96.9,0.525
27.84,31980.5,35147.4,-0.0808,0.3612,138.7,96.9,0.525
27.86,32029.5,35087.6,0.1157,0.2143,138.7,96.9,0.525
27.88,31972.1,34955.4,-0.1146,-0.11,138.7,96.9,0.525
27.9,31864.9,34834.3,-0.5445,-0.4071,138.7,96.9,0.525
27.92,31854.6,34850.9,-0.5856,-0.3663,138.7,96.9,0.525
27.94,31839.8,34698.5,-0.6451,-0.7401,138.7,96.9,0.525
27.96,31835.5,34625.4,-0.6625,-0.9197,138.7,96.9,0.525
27.98,31914.1,34552.7,-0.347,-1.0979,138.7,96.9,0.525
28.0,31846.9,34622.7,-0.6164,-0.9263,138.7,96.9,0.525
28.02,31793.8,34594.4,-0.8296,-0.9956,138.7,96.9,0.525
28.04,31780.5,34381.3,-0.8828,-1.5185,138.7,96.9,0.525
28.06,31724.2,34429.9,-1.1088,-1.3993,138.7,96.9,0.525
28.08,31751.8,34571.3,-0.998,-1.0523,138.7,96.9,0.525
28.1,31754.9,34723.3,-0.9857,-0.6794,138.7,96.9,0.525
28.12,32057.8,35172.0,0.2292,0.4216,138.7,96.9,0.525
28.14,32305.5,35379.0,1.223,0.9293,138.7,96.9,0.525
28.16,32383.5,35673.1,1.5359,1.6508,138.7,96.9,0.525
28.18,32395.3,35687.2,1.5833,1.6856,138.7,96.9,0.525
28.2,32306.0,35655.8,1.2249,1.6084,138.7,96.9,0.525
28.22,32184.1,35587.2,0.7361,1.4401,138.7,96.9,0.525
28.24,32137.6,35362.8,0.5495,0.8897,138.7,96.9,0.525
28.26,32092.2,35153.7,0.3674,0.3766,138.7,96.9,0.525
28.28,32034.1,35005.5,0.1341,0.013,138.7,96.9,0.525
28.3,32074.5,35044.8,0.2961,0.1094,138.7,96.9,0.525
28.32,32016.9,35081.7,0.0652,0.1999,138.7,96.9,0.525
28.34,31926.4,34936.0,-0.2976,-0.1576,138.7,96.9,0.525
28.36,31948.6,34727.2,-0.2085,-0.6699,138.7,96.9,0.525
28.38,31720.4,34681.8,-1.1238,-0.7812,138.7,96.9,0.525
28.4,31818.8,34687.5,-0.7295,-0.7672,138.7,96.9,0.525
28.42,31848.8,34710.2,-0.609,-0.7116,138.7,96.9,0.525
28.44,31833.3,34636.2,-0.671,-0.8932,138.7,96.9,0.525
28.46,31776.2,34569.7,-0.9,-1.0563,138.7,96.9,0.525
28.48,31761.2,34429.6,-0.9605,-1.4001,138.7,96.9,0.525
28.5,31782.6,34458.1,-0.8744,-1.3299,138.7,96.9,0.525
28.52,31798.7,34627.8,-0.8098,-0.9138,138.7,96.9,0.525
28.54,32036.6,34893.8,0.1442,-0.2611,138.7,96.9,0.525
28.56,32158.9,35235.8,0.6348,0.5779,138.7,96.9,0.525
28.58,32275.9,35534.2,1.1042,1.3101,138.7,96.9,0.525
28.6,32493.8,35634.7,1.9784,1.5566,138.7,96.9,0.525
28.62,32330.1,35790.7,1.3216,1.9394,138.7,96.9,0.525
28.64,32151.5,35538.5,0.6051,1.3207,138.7,96.9,0.525
28.66,32122.8,35534.5,0.4902,1.3109,138.7,96.9,0.525
28.68,32186.3,35257.4,0.7449,0.6311,138.7,96.9,0.525
28.7,31988.6,35142.0,-0.048,0.3479,138.7,96.9,0.525
28.72,32064.6,35004.9,0.2568,0.0116,138.7,96.9,0.525
28.74,31948.7,35142.9,-0.2084,0.3502,138.7,96.9,0.525
28.76,31991.4,34953.3,-0.037,-0.1151,138.7,96.9,0.525
28.78,31939.3,34903.3,-0.2462,-0.2377,138.7,96.9,0.525
28.8,31939.9,34706.6,-0.2434,-0.7203,138.7,96.9,0.525
28.82,31925.2,34656.2,-0.3026,-0.844,138.7,96.9,0.525
28.84,31872.2,34606.5,-0.515,-0.9659,138.7,96.9,0.525
28.86,31692.5,34603.2,-1.2357,-0.974,138.7,96.9,0.525
28.88,31789.9,34664.4,-0.8451,-0.824,138.7,96.9,0.525
28.9,31769.3,34492.3,-0.9279,-1.2462,138.7,96.9,0.525
28.92,31710.4,34488.7,-1.1643,-1.2549,138.7,96.9,0.525
28.94,31748.4,34397.6,-1.0118,-1.4784,138.7,96.9,0.525
28.96,31710.3,34667.5,-1.1646,-0.8163,138.7,96.9,0.525
28.98,32047.9,35089.6,0.1895,0.2193,138.7,96.9,0.525
29.0,32201.7,35422.5,0.8065,1.0361,138.7,96.9,0.525
29.02,32350.5,35665.4,1.4035,1.632,138.7,96.9,0.525
29.04,32315.0,35727.0,1.2608,1.7832,138.7,96.9,0.525
29.06,32321.9,35651.0,1.2887,1.5967,138.7,96.9,0.525
29.08,32310.2,35647.6,1.2419,1.5883,138.7,96.9,0.525
29.1,32142.7,35351.2,0.57,0.8611,138.7,96.9,0.525
29.12,32036.0,35245.9,0.1417,0.6028,138.7,96.9,0.525
29.14,32049.6,35109.4,0.1965,0.2678,138.7,96.9,0.525
29.16,32060.1,35035.2,0.2386,0.0858,138.7,96.9,0.525
29.18,32096.6,34970.9,0.3849,-0.072,138.7,96.9,0.525
29.2,31985.0,34941.0,-0.0628,-0.1453,138.7,96.9,0.525
29.22,31963.5,34814.9,-0.1488,-0.4547,138.7,96.9,0.525
29.24,31889.9,34668.2,-0.4442,-0.8145,138.7,96.9,0.525
29.26,31825.2,34715.0,-0.7037,-0.6998,138.7,96.9,0.525
29.28,31927.7,34676.7,-0.2926,-0.7938,138.7,96.9,0.525
29.3,31724.9,34665.3,-1.1059,-0.8218,138.7,96.9,0.525
29.32,31817.0,34578.8,-0.7365,-1.0339,138.7,96.9,0.525
29.34,31689.8,34462.0,-1.2469,-1.3204,138.7,96.9,0.525
29.36,31750.3,34493.4,-1.0042,-1.2435,138.7,96.9,0.525
29.38,31750.5,34546.6,-1.0034,-1.113,138.7,96.9,0.525
29.4,31954.4,34842.1,-0.1854,-0.388,138.7,96.9,0.525
29.42,32018.4,35151.1,0.0714,0.3701,138.7,96.9,0.525
29.44,32243.3,35432.5,0.9736,1.0607,138.7,96.9,0.525
29.46,32316.2,35614.1,1.2656,1.5062,138.7,96.9,0.525
29.48,32359.4,35754.8,1.4389,1.8512,138.7,96.9,0.525
29.5,32368.1,35579.5,1.474,1.4213,138.7,96.9,0.525
29.52,32104.7,35411.8,0.4174,1.0097,138.7,96.9,0.525
29.54,32154.4,35262.6,0.6169,0.6439,138.7,96.9,0.525
29.56,32013.6,35184.4,0.0521,0.4519,138.7,96.9,0.525
29.58,32043.1,35095.5,0.1703,0.2338,138.7,96.9,0.525
29.6,31984.8,35035.5,-0.0634,0.0866,138.7,96.9,0.525
29.62,31894.4,34988.8,-0.4261,-0.028,138.7,96.9,0.525
29.64,32025.8,34917.2,0.1011,-0.2037,138.7,96.9,0.525
29.66,31877.6,34690.0,-0.4933,-0.761,138.7,96.9,0.525
29.68,31918.8,34705.5,-0.3283,-0.723,138.7,96.9,0.525
29.7,31881.2,34638.0,-0.4792,-0.8886,138.7,96.9,0.525
29.72,31791.6,34622.6,-0.8383,-0.9265,138.7,96.9,0.525
29.74,31773.4,34524.5,-0.9116,-1.1671,138.7,96.9,0.525
29.76,31794.0,34513.5,-0.8288,-1.1942,138.7,96.9,0.525
29.78,31750.7,34423.9,-1.0026,-1.414,138.7,96.9,0.525
29.8,31755.9,34475.0,-0.9814,-1.2885,138.7,96.9,0.525
29.82,31824.2,34636.2,-0.7075,-0.893,138.7,96.9,0.525
29.84,32012.9,34927.5,0.0493,-0.1784,138.7,96.9,0.525
29.86,32122.9,35248.7,0.4906,0.6097,138.7,96.9,0.525
29.88,32325.8,35515.2,1.3044,1.2635,138.7,96.9,0.525
29.9,32420.0,35758.8,1.6821,1.8613,138.7,96.9,0.525
29.92,32348.2,35625.0,1.3943,1.533,138.7,96.9,0.525
29.94,32319.9,35526.1,1.2808,1.2903,138.7,96.9,0.525
29.96,32228.8,35417.6,0.9153,1.0241,138.7,96.9,0.525
29.98,32176.3,35189.5,0.7047,0.4645,138.7,96.9,0.525
30.0,32007.8,35095.3,0.0287,0.2332,138.7,96.9,0.525
30.02,31962.9,35113.6,-0.1513,0.2782,138.7,96.9,0.525
30.04,32065.8,35009.7,0.2614,0.0234,138.7,96.9,0.525
30.06,31938.2,34959.1,-0.2502,-0.1009,138.7,96.9,0.525
30.08,31950.2,34872.5,-0.2023,-0.3134,138.7,96.9,0.525
30.1,31963.1,34744.2,-0.1506,-0.6281,138.7,96.9,0.525
30.12,31808.5,34684.0,-0.7708,-0.7759,138.7,96.9,0.525
30.14,31905.0,34617.6,-0.3834,-0.9387,138.7,96.9,0.525
30.16,31776.0,34614.3,-0.901,-0.9467,138.7,96.9,0.525
30.18,31835.3,34602.5,-0.663,-0.9758,138.7,96.9,0.525
30.2,31870.3,34461.3,-0.5229,-1.3222,138.7,96.9,0.525
30.22,31723.2,34446.3,-1.1127,-1.3589,138.7,96.9,0.525
30.24,31685.7,34458.7,-1.2633,-1.3286,138.7,96.9,0.525
30.26,31921.0,34730.5,-0.3192,-0.6617,138.7,96.9,0.525
30.28,32149.5,35039.8,0.5972,0.0971,138.7,96.9,0.525
30.3,32018.3,35439.3,0.071,1.0772,138.7,96.9,0.525
30.32,32334.7,35594.8,1.34,1.4588,138.7,96.9,0.525
30.34,32400.8,35711.3,1.6053,1.7447,138.7,96.9,0.525
30.36,32356.9,35647.9,1.4289,1.589,138.7,96.9,0.525
30.38,32313.4,35536.3,1.2546,1.3154,138.7,96.9,0.525
30.4,32066.7,35392.1,0.2652,0.9616,138.7,96.9,0.525
30.42,32129.5,35060.4,0.5171,0.1477,138.7,96.9,0.525
30.44,31976.1,35057.8,-0.0983,0.1413,138.7,96.9,0.525
30.46,31995.1,35010.5,-0.022,0.0253,138.7,96.9,0.525
30.48,31978.8,34999.6,-0.0874,-0.0015,138.7,96.9,0.525
30.5,31985.2,34846.1,-0.062,-0.3782,138.7,96.9,0.525
30.52,31995.9,34836.6,-0.019,-0.4014,138.7,96.9,0.525
30.54,31833.9,34703.7,-0.6688,-0.7275,138.7,96.9,0.525
30.56,31803.6,34646.6,-0.7905,-0.8675,138.7,96.9,0.525
30.58,31885.6,34683.4,-0.4614,-0.7773,138.7,96.9,0.525
30.6,31789.7,34554.8,-0.8459,-1.0929,138.7,96.9,0.525
30.62,31792.8,34531.7,-0.8335,-1.1495,138.7,96.9,0.525
30.64,31743.3,34440.0,-1.032,-1.3744,138.7,96.9,0.525
30.66,31686.7,34510.1,-1.2591,-1.2025,138.7,96.9,0.525
30.68,31727.4,34488.7,-1.0958,-1.255,138.7,96.9,0.525
30.7,31897.4,34865.6,-0.4142,-0.3303,138.7,96.9,0.525
30.72,32045.3,35157.9,0.1792,0.3868,138.7,96.9,0.525
30.74,32284.4,35555.9,1.1382,1.3633,138.7,96.9,0.525
30.76,32459.3,35755.6,1.8398,1.8534,138.7,96.9,0.525
30.78,32317.4,35770.5,1.2707,1.8899,138.7,96.9,0.525
30.8,32294.4,35623.8,1.1784,1.5299,138.7,96.9,0.525
30.82,32121.7,35487.5,0.4856,1.1955,138.7,96.9,0.525
30.84,32116.6,35177.9,0.4654,0.4359,138.7,96.9,0.525
30.86,32021.3,35188.8,0.0831,0.4627,138.7,96.9,0.525
30.88,32060.9,35198.1,0.2417,0.4856,138.7,96.9,0.525
30.9,31969.2,35046.6,-0.1262,0.1138,138.7,96.9,0.525
30.92,32063.7,34973.1,0.2531,-0.0665,138.7,96.9,0.525
30.94,31941.8,34920.0,-0.2358,-0.1968,138.7,96.9,0.525
30.96,31872.0,34717.2,-0.516,-0.6944,138.7,96.9,0.525
30.98,31890.7,34674.4,-0.441,-0.7994,138.7,96.9,0.525
31.0,31826.3,34593.3,-0.6994,-0.9985,138.7,96.9,0.525
31.02,31851.8,34670.3,-0.5972,-0.8093,138.7,96.9,0.525
31.04,31842.5,34526.3,-0.6344,-1.1628,138.7,96.9,0.525
31.06,31824.8,34565.6,-0.7051,-1.0663,138.7,96.9,0.525
31.08,31735.8,34524.3,-1.0622,-1.1677,138.7,96.9,0.525
31.1,31801.5,34502.6,-0.7987,-1.2208,138.7,96.9,0.525
31.12,31785.8,34605.5,-0.8616,-0.9685,138.7,96.9,0.525
31.14,31999.7,34898.0,-0.0037,-0.2508,138.7,96.9,0.525
31.16,32120.0,35169.3,0.4788,0.4149,138.7,96.9,0.525
31.18,32274.5,35608.3,1.0984,1.4919,138.7,96.9,0.525
31.2,32296.7,35695.5,1.1877,1.7059,138.7,96.9,0.525
31.22,32494.8,35674.5,1.9822,1.6543,138.7,96.9,0.525
31.24,32321.5,35504.6,1.287,1.2375,138.7,96.9,0.525
31.26,32137.2,35351.7,0.5478,0.8623,138.7,96.9,0.525
31.28,32008.3,35273.8,0.0307,0.6711,138.7,96.9,0.525
31.3,32043.9,35212.9,0.1736,0.5218,138.7,96.9,0.525
31.32,32151.6,35168.7,0.6054,0.4133,138.7,96.9,0.525
31.34,32006.7,34988.3,0.0242,-0.0293,138.7,96.9,0.525
31.36,31998.1,34951.5,-0.0102,-0.1194,138.7,96.9,0.525
31.38,31879.4,34883.9,-0.4862,-0.2853,138.7,96.9,0.525
31.4,31812.4,34675.5,-0.7551,-0.7966,138.7,96.9,0.525
31.42,31854.4,34715.1,-0.5866,-0.6994,138.7,96.9,0.525
31.44,31901.9,34646.6,-0.3962,-0.8677,138.7,96.9,0.525
31.46,31826.2,34547.0,-0.6996,-1.1119,138.7,96.9,0.525
31.48,31839.5,34554.5,-0.6463,-1.0936,138.7,96.9,0.525
31.5,31799.5,34513.7,-0.8067,-1.1935,138.7,96.9,0.525
31.52,31674.9,34449.5,-1.3064,-1.3513,138.7,96.9,0.525
31.54,31800.3,34516.4,-0.8034,-1.187,138.7,96.9,0.525
31.56,31731.4,34734.6,-1.0799,-0.6516,138.7,96.9,0.525
31.58,31974.4,35091.8,-0.1052,0.2248,138.7,96.9,0.525
31.6,32124.5,35419.3,0.4969,1.0282,138.7,96.9,0.525
31.62,32276.5,35689.5,1.1067,1.6912,138.7,96.9,0.525
31.64,32331.9,35807.0,1.3286,1.9795,138.7,96.9,0.525
31.66,32305.4,35706.1,1.2227,1.7319,138.7,96.9,0.525
31.68,32313.9,35457.3,1.2567,1.1215,138.7,96.9,0.525
31.7,32152.1,35300.6,0.6074,0.7369,138.7,96.9,0.525
31.72,32087.7,35147.6,0.3493,0.3616,138.7,96.9,0.525
31.74,32072.5,35091.0,0.2885,0.2229,138.7,96.9,0.525
31.76,31997.7,35112.6,-0.0117,0.2757,138.7,96.9,0.525
31.78,32025.5,34967.5,0.0999,-0.0803,138.7,96.9,0.525
31.8,31991.3,34948.5,-0.0375,-0.1269,138.7,96.9,0.525
31.82,31904.0,34728.1,-0.3876,-0.6676,138.7,96.9,0.525
31.84,31955.2,34686.9,-0.1823,-0.7687,138.7,96.9,0.525
31.86,31785.6,34688.1,-0.8626,-0.7658,138.7,96.9,0.525
31.88,31835.8,34697.1,-0.6612,-0.7436,138.7,96.9,0.525
31.9,31924.8,34697.2,-0.304,-0.7435,138.7,96.9,0.525
31.92,31769.6,34546.7,-0.9267,-1.1126,138.7,96.9,0.525
31.94,31709.4,34498.6,-1.1683,-1.2306,138.7,96.9,0.525
31.96,31696.5,34418.5,-1.2199,-1.4271,138.7,96.9,0.525
31.98,31729.3,34564.2,-1.0885,-1.0697,138.7,96.9,0.525
32.0,31921.8,34888.8,-0.3161,-0.2735,138.7,96.9,0.525
32.02,32170.3,35146.4,0.6804,0.3587,138.7,96.9,0.525
32.04,32183.7,35619.2,0.7344,1.5187,138.7,96.9,0.525
32.06,32396.7,35694.9,1.5886,1.7043,138.7,96.9,0.525
32.08,32337.6,35680.5,1.3516,1.6692,138.7,96.9,0.525
32.1,32346.6,35665.2,1.3877,1.6314,138.7,96.9,0.525
32.12,32163.2,35298.7,0.6521,0.7323,138.7,96.9,0.525
32.14,32084.6,35300.4,0.3368,0.7366,138.7,96.9,0.525
32.16,32091.2,35104.8,0.3634,0.2565,138.7,96.9,0.525
32.18,32096.5,35062.8,0.3847,0.1536,138.7,96.9,0.525
32.2,32003.5,35106.1,0.0117,0.2597,138.7,96.9,0.525
32.22,31961.9,34872.4,-0.1555,-0.3135,138.7,96.9,0.525
32.24,31954.0,34989.6,-0.1871,-0.026,138.7,96.9,0.525
32.26,31919.3,34786.2,-0.3263,-0.525,138.7,96.9,0.525
32.28,31878.8,34688.3,-0.4887,-0.7652,138.7,96.9,0.525
32.3,31814.7,34667.2,-0.7458,-0.817,138.7,96.9,0.525
32.32,31783.2,34677.5,-0.872,-0.7917,138.7,96.9,0.525
32.34,31777.5,34565.9,-0.8949,-1.0655,138.7,96.9,0.525
32.36,31889.3,34477.0,-0.4467,-1.2837,138.7,96.9,0.525
32.38,31785.1,34460.3,-0.8646,-1.3247,138.7,96.9,0.525
32.4,31726.0,34542.5,-1.1015,-1.123,138.7,96.9,0.525
32.42,31782.1,34682.5,-0.8764,-0.7795,138.7,96.9,0.525
32.44,31966.7,34943.4,-0.136,-0.1394,138.7,96.9,0.525
32.46,32183.4,35386.7,0.7333,0.9484,138.7,96.9,0.525
32.48,32320.4,35617.9,1.2826,1.5155,138.7,96.9,0.525
32.5,32475.8,35731.9,1.906,1.7951,138.7,96.9,0.525
32.52,32406.0,35757.0,1.6258,1.8568,138.7,96.9,0.525
32.54,32337.1,35510.1,1.3497,1.2511,138.7,96.9,0.525
32.56,32099.3,35432.4,0.3958,1.0604,138.7,96.9,0.525
32.58,32110.6,35175.9,0.4412,0.4311,138.7,96.9,0.525
32.6,32068.8,35189.8,0.2733,0.4652,138.7,96.9,0.525
32.62,31972.9,35064.3,-0.1112,0.1573,138.7,96.9,0.525
32.64,32029.0,35079.6,0.1136,0.1949,138.7,96.9,0.525
32.66,31900.7,34854.9,-0.401,-0.3566,138.7,96.9,0.525
32.68,31927.3,34879.5,-0.2942,-0.2961,138.7,96.9,0.525
32.7,31814.2,34694.9,-0.748,-0.749,138.7,96.9,0.525
32.72,31805.8,34767.7,-0.7816,-0.5704,138.7,96.9,0.525
32.74,31770.4,34537.9,-0.9235,-1.1343,138.7,96.9,0.525
32.76,31716.5,34672.8,-1.1395,-0.8032,138.7,96.9,0.525
32.78,31774.0,34524.8,-0.909,-1.1663,138.7,96.9,0.525
32.8,31746.1,34551.1,-1.021,-1.102,138.7,96.9,0.525
32.82,31794.7,34517.8,-0.8261,-1.1835,138.7,96.9,0.525
32.84,31710.8,34526.7,-1.1627,-1.1618,138.7,96.9,0.525
32.86,31802.5,34755.9,-0.7948,-0.5995,138.7,96.9,0.525
32.88,31957.9,35076.9,-0.1712,0.1881,138.7,96.9,0.525
32.9,32217.9,35437.1,0.8715,1.0719,138.7,96.9,0.525
32.92,32339.4,35720.6,1.3589,1.7675,138.7,96.9,0.525
32.94,32304.0,35778.5,1.2168,1.9096,138.7,96.9,0.525
32.96,32287.6,35639.1,1.1513,1.5674,138.7,96.9,0.525
32.98,32250.6,35451.5,1.0027,1.1073,138.7,96.9,0.525
33.0,32088.1,35280.0,0.351,0.6864,138.7,96.9,0.525
33.02,32037.6,35094.6,0.1483,0.2317,138.7,96.9,0.525
33.04,32055.2,35064.9,0.2189,0.1586,138.7,96.9,0.525
33.06,32026.2,35013.9,0.1028,0.0337,138.7,96.9,0.525
33.08,31964.2,35054.0,-0.1462,0.132,138.7,96.9,0.525
33.1,31858.8,34899.9,-0.5691,-0.2461,138.7,96.9,0.525
33.12,31829.2,34702.0,-0.6875,-0.7316,138.7,96.9,0.525
33.14,31727.9,34651.3,-1.0939,-0.8559,138.7,96.9,0.525
33.16,31923.3,34784.1,-0.3101,-0.5303,138.7,96.9,0.525
33.18,31858.3,34704.0,-0.5709,-0.7268,138.7,96.9,0.525
33.2,31865.7,34625.7,-0.5413,-0.9189,138.7,96.9,0.525
33.22,31810.2,34489.6,-0.7636,-1.2529,138.7,96.9,0.525
33.24,31807.1,34446.5,-0.7764,-1.3585,138.7,96.9,0.525
33.26,31704.2,34543.3,-1.189,-1.121,138.7,96.9,0.525
33.28,31769.2,34569.2,-0.9285,-1.0575,138.7,96.9,0.525
33.3,31971.6,34827.1,-0.1164,-0.4246,138.7,96.9,0.525
33.32,32167.6,35251.9,0.6697,0.6174,138.7,96.9,0.525
33.34,32279.7,35588.5,1.1194,1.4435,138.7,96.9,0.525
33.36,32278.9,35708.4,1.1163,1.7375,138.7,96.9,0.525
33.38,32294.6,35763.3,1.1793,1.8721,138.7,96.9,0.525
33.4,32374.1,35685.3,1.4979,1.6808,138.7,96.9,0.525
33.42,32250.4,35426.8,1.0017,1.0467,138.7,96.9,0.525
33.44,32092.8,35256.3,0.3698,0.6282,138.7,96.9,0.525
33.46,32113.7,35161.9,0.4537,0.3967,138.7,96.9,0.525
33.48,31974.4,35086.1,-0.1053,0.2108,138.7,96.9,0.525
33.5,32056.6,35048.9,0.2244,0.1196,138.7,96.9,0.525
33.52,32013.9,35043.3,0.0534,0.1058,138.7,96.9,0.525
33.54,32015.6,34922.7,0.0601,-0.1903,138.7,96.9,0.525
33.56,31867.9,34749.9,-0.5323,-0.6142,138.7,96.9,0.525
33.58,31782.8,34630.7,-0.8737,-0.9066,138.7,96.9,0.525
33.6,31864.6,34702.3,-0.5457,-0.7308,138.7,96.9,0.525
33.62,31912.1,34776.9,-0.3552,-0.548,138.7,96.9,0.525
33.64,31811.5,34634.4,-0.7585,-0.8976,138.7,96.9,0.525
33.66,31882.3,34552.0,-0.4746,-1.0997,138.7,96.9,0.525
33.68,31702.6,34393.8,-1.1953,-1.4878,138.7,96.9,0.525
33.7,31659.1,34407.2,-1.3697,-1.455,138.7,96.9,0.525
33.72,31743.4,34648.3,-1.0318,-0.8634,138.7,96.9,0.525
33.74,32013.5,35076.6,0.0516,0.1875,138.7,96.9,0.525
33.76,32171.8,35401.7,0.6865,0.985,138.7,96.9,0.525
33.78,32345.3,35751.1,1.3825,1.8422,138.7,96.9,0.525
33.8,32301.8,35822.3,1.2079,2.0169,138.7,96.9,0.525
33.82,32362.8,35679.0,1.4528,1.6655,138.7,96.9,0.525
33.84,32319.2,35568.1,1.2776,1.3934,138.7,96.9,0.525
33.86,32153.1,35332.7,0.6116,0.8156,138.7,96.9,0.525
33.88,32112.4,35266.4,0.4484,0.6531,138.7,96.9,0.525
33.9,32042.0,35164.0,0.166,0.4018,138.7,96.9,0.525
33.92,32048.9,35083.9,0.1938,0.2053,138.7,96.9,0.525
33.94,32076.3,35034.5,0.3037,0.0841,138.7,96.9,0.525
33.96,31935.8,34943.1,-0.2601,-0.1402,138.7,96.9,0.525
33.98,31863.7,34755.2,-0.5493,-0.6011,138.7,96.9,0.525
34.0,31810.4,34756.4,-0.7631,-0.5982,138.7,96.9,0.525
34.02,31803.8,34669.8,-0.7894,-0.8106,138.7,96.9,0.525
34.04,31873.8,34680.2,-0.5088,-0.7851,138.7,96.9,0.525
34.06,31857.7,34705.1,-0.5733,-0.724,138.7,96.9,0.525
34.08,31832.2,34490.1,-0.6758,-1.2515,138.7,96.9,0.525
34.1,31725.5,34496.1,-1.1034,-1.2368,138.7,96.9,0.525
34.12,31730.5,34481.3,-1.0835,-1.2731,138.7,96.9,0.525
34.14,31821.6,34606.2,-0.7183,-0.9668,138.7,96.9,0.525
34.16,31797.7,34673.7,-0.8141,-0.8011,138.7,96.9,0.525
34.18,32078.5,35057.9,0.3125,0.1416,138.7,96.9,0.525
34.2,32201.7,35459.0,0.8067,1.1255,138.7,96.9,0.525
34.22,32396.2,35779.5,1.5867,1.912,138.7,96.9,0.525
34.24,32359.6,35745.9,1.4397,1.8295,138.7,96.9,0.525
34.26,32297.6,35609.3,1.1913,1.4944,138.7,96.9,0.525
34.28,32256.6,35433.1,1.0268,1.062,138.7,96.9,0.525
34.3,32133.7,35270.9,0.5338,0.6641,138.7,96.9,0.525
34.32,32023.4,35082.8,0.0912,0.2027,138.7,96.9,0.525
34.34,32045.6,35029.5,0.1804,0.072,138.7,96.9,0.525
34.36,32026.1,35095.1,0.1023,0.2329,138.7,96.9,0.525
34.38,32004.7,34975.3,0.0165,-0.0611,138.7,96.9,0.525
34.4,31975.2,34882.2,-0.1018,-0.2894,138.7,96.9,0.525
34.42,31814.4,34830.2,-0.7471,-0.4171,138.7,96.9,0.525
34.44,31831.0,34635.4,-0.6803,-0.8952,138.7,96.9,0.525
34.46,31853.0,34671.7,-0.5921,-0.8059,138.7,96.9,0.525
34.48,31922.4,34601.5,-0.3138,-0.9782,138.7,96.9,0.525
34.5,31883.5,34694.5,-0.4699,-0.75,138.7,96.9,0.525
34.52,31754.6,34539.6,-0.9868,-1.1302,138.7,96.9,0.525
34.54,31792.8,34462.7,-0.8335,-1.3188,138.7,96.9,0.525
34.56,31782.5,34450.7,-0.8749,-1.3481,138.7,96.9,0.525
34.58,31930.6,34609.4,-0.2809,-0.9589,138.7,96.9,0.525
34.6,31988.8,34877.6,-0.0473,-0.3009,138.7,96.9,0.525
34.62,32033.9,35318.0,0.1335,0.7797,138.7,96.9,0.525
34.64,32280.9,35511.3,1.1244,1.2539,138.7,96.9,0.525
34.66,32315.9,35736.1,1.2645,1.8056,138.7,96.9,0.525
34.68,32391.8,35732.2,1.569,1.796,138.7,96.9,0.525
34.7,32282.8,35615.6,1.1317,1.5099,138.7,96.9,0.525
34.72,32295.0,35434.9,1.1809,1.0664,138.7,96.9,0.525
34.74,32136.2,35243.0,0.5439,0.5958,138.7,96.9,0.525
34.76,32064.6,35078.5,0.2566,0.1921,138.7,96.9,0.525
34.78,31950.1,35092.3,-0.2025,0.2259,138.7,96.9,0.525
34.8,32055.6,35002.9,0.2203,0.0066,138.7,96.9,0.525
34.82,31943.1,34982.8,-0.2307,-0.0427,138.7,96.9,0.525
34.84,31975.6,34842.0,-0.1002,-0.3882,138.7,96.9,0.525
34.86,31857.0,34722.7,-0.5759,-0.6808,138.7,96.9,0.525
34.88,31851.1,34647.7,-0.5998,-0.865,138.7,96.9,0.525
34.9,31863.9,34665.6,-0.5486,-0.8209,138.7,96.9,0.525
34.92,31797.2,34629.4,-0.8162,-0.9098,138.7,96.9,0.525
34.94,31668.5,34458.1,-1.3323,-1.3299,138.7,96.9,0.525
34.96,31742.5,34523.3,-1.0352,-1.1701,138.7,96.9,0.525
34.98,31737.7,34506.2,-1.0547,-1.212,138.7,96.9,0.525
35.0,31790.7,34542.2,-0.8422,-1.1238,138.7,96.9,0.525
35.02,31805.4,34641.3,-0.7831,-0.8806,138.7,96.9,0.525
35.04,31961.3,35085.7,-0.1577,0.2097,138.7,96.9,0.525
35.06,32144.6,35357.1,0.5776,0.8756,138.7,96.9,0.525
35.08,32309.1,35740.0,1.2375,1.8149,138.7,96.9,0.525
35.1,32341.6,35703.3,1.3676,1.7251,138.7,96.9,0.525
35.12,32267.0,35688.9,1.0687,1.6897,138.7,96.9,0.525
35.14,32225.6,35515.4,0.9023,1.264,138.7,96.9,0.525
35.16,32200.8,35346.6,0.8031,0.8498,138.7,96.9,0.525
35.18,32059.1,35106.6,0.2344,0.2611,138.7,96.9,0.525
35.2,32060.8,35173.7,0.2415,0.4255,138.7,96.9,0.525
35.22,32051.3,35073.7,0.2031,0.1804,138.7,96.9,0.525
35.24,32103.5,34996.2,0.4125,-0.0099,138.7,96.9,0.525
35.26,31932.1,34864.0,-0.275,-0.3343,138.7,96.9,0.525
35.28,31865.6,34809.0,-0.5417,-0.4691,138.7,96.9,0.525
35.3,31871.7,34705.7,-0.5173,-0.7225,138.7,96.9,0.525
35.32,31855.7,34732.4,-0.5813,-0.657,138.7,96.9,0.525
35.34,31778.7,34671.2,-0.89,-0.8073,138.7,96.9,0.525
35.36,31800.5,34617.2,-0.8028,-0.9398,138.7,96.9,0.525
35.38,31701.0,34539.2,-1.2017,-1.1312,138.7,96.9,0.525
35.4,31739.8,34538.2,-1.0461,-1.1335,138.7,96.9,0.525
35.42,31705.5,34431.6,-1.1836,-1.3951,138.7,96.9,0.525
35.44,31732.8,34531.6,-1.0744,-1.1497,138.7,96.9,0.525
35.46,31935.5,34671.9,-0.2611,-0.8055,138.7,96.9,0.525
35.48,32105.9,35214.9,0.4223,0.5268,138.7,96.9,0.525
35.5,32248.6,35514.8,0.9947,1.2625,138.7,96.9,0.525
35.52,32432.4,35753.2,1.7319,1.8475,138.7,96.9,0.525
35.54,32339.9,35820.4,1.3609,2.0123,138.7,96.9,0.525
35.56,32223.7,35629.3,0.8947,1.5434,138.7,96.9,0.525
35.58,32246.1,35447.6,0.9845,1.0978,138.7,96.9,0.525
35.6,32021.5,35187.3,0.0838,0.459,138.7,96.9,0.525
35.62,32113.1,35101.5,0.4511,0.2486,138.7,96.9,0.525
35.64,32017.3,35111.1,0.0669,0.2722,138.7,96.9,0.525
35.66,32116.6,34998.6,0.4652,-0.0038,138.7,96.9,0.525
35.68,32040.3,34902.5,0.1592,-0.2398,138.7,96.9,0.525
35.7,31948.4,34957.1,-0.2095,-0.1058,138.7,96.9,0.525
35.72,31946.2,34776.5,-0.2183,-0.5489,138.7,96.9,0.525
35.74,31877.2,34744.9,-0.4949,-0.6263,138.7,96.9,0.525
35.76,31824.7,34734.5,-0.7056,-0.6518,138.7,96.9,0.525
35.78,31885.8,34707.7,-0.4608,-0.7176,138.7,96.9,0.525
35.8,31822.3,34597.0,-0.7153,-0.9893,138.7,96.9,0.525
35.82,31810.8,34471.3,-0.7613,-1.2977,138.7,96.9,0.525
35.84,31769.0,34576.1,-0.9292,-1.0407,138.7,96.9,0.525
35.86,31724.0,34570.2,-1.1097,-1.055,138.7,96.9,0.525
35.88,31795.2,34657.7,-0.8242,-0.8403,138.7,96.9,0.525
35.9,31943.6,34964.6,-0.2286,-0.0875,138.7,96.9,0.525
35.92,32121.7,35283.6,0.4856,0.6952,138.7,96.9,0.525
35.94,32276.4,35625.9,1.1062,1.5351,138.7,96.9,0.525
35.96,32352.1,35731.2,1.4099,1.7934,138.7,96.9,0.525
35.98,32373.4,35716.3,1.4954,1.7568,138.7,96.9,0.525
36.0,32253.9,35468.4,1.0158,1.1487,138.7,96.9,0.525
36.02,32203.2,35387.2,0.8125,0.9495,138.7,96.9,0.525
36.04,32134.7,35191.7,0.5376,0.4699,138.7,96.9,0.525
36.06,32001.9,35185.8,0.005,0.4553,138.7,96.9,0.525
36.08,32146.7,35111.3,0.5858,0.2727,138.7,96.9,0.525
36.1,31899.1,35053.8,-0.4072,0.1315,138.7,96.9,0.525
36.12,31998.0,34878.3,-0.0106,-0.2992,138.7,96.9,0.525
36.14,31930.3,34853.1,-0.2822,-0.3609,138.7,96.9,0.525
36.16,31820.4,34785.5,-0.7229,-0.5267,138.7,96.9,0.525
36.18,31813.7,34734.7,-0.7499,-0.6515,138.7,96.9,0.525
36.2,31859.4,34640.4,-0.5667,-0.8828,138.7,96.9,0.525
36.22,31804.8,34626.1,-0.7857,-0.9179,138.7,96.9,0.525
36.24,31791.3,34572.6,-0.8395,-1.0491,138.7,96.9,0.525
36.26,31741.6,34521.7,-1.0389,-1.1739,138.7,96.9,0.525
36.28,31695.7,34410.2,-1.2233,-1.4476,138.7,96.9,0.525
36.3,31796.9,34480.3,-0.8172,-1.2757,138.7,96.9,0.525
36.32,31914.6,34790.2,-0.3452,-0.5151,138.7,96.9,0.525
36.34,32061.2,35016.9,0.2429,0.0409,138.7,96.9,0.525
36.36,32182.2,35302.7,0.7283,0.7421,138.7,96.9,0.525
36.38,32391.4,35652.7,1.5675,1.6008,138.7,96.9,0.525
36.4,32371.5,35740.4,1.4875,1.8161,138.7,96.9,0.525
36.42,32398.8,35705.3,1.597,1.73,138.7,96.9,0.525
36.44,32223.8,35457.9,0.895,1.123,138.7,96.9,0.525
36.46,32113.9,35416.1,0.4544,1.0203,138.7,96.9,0.525
36.48,32095.1,35223.4,0.3789,0.5476,138.7,96.9,0.525
36.5,32155.7,35011.6,0.622,0.028,138.7,96.9,0.525
36.52,32091.2,35036.5,0.3634,0.0892,138.7,96.9,0.525
36.54,31965.2,35010.2,-0.1419,0.0246,138.7,96.9,0.525
36.56,31940.1,34983.8,-0.2427,-0.0404,138.7,96.9,0.525
36.58,31931.3,34805.2,-0.278,-0.4784,138.7,96.9,0.525
36.6,31787.0,34686.1,-0.8568,-0.7708,138.7,96.9,0.525
36.62,31879.3,34699.0,-0.4866,-0.739,138.7,96.9,0.525
36.64,31835.0,34629.0,-0.6644,-0.9108,138.7,96.9,0.525
36.66,31803.0,34625.8,-0.7927,-0.9186,138.7,96.9,0.525
36.68,31710.7,34571.0,-1.163,-1.0531,138.7,96.9,0.525
36.7,31750.3,34494.7,-1.0041,-1.2403,138.7,96.9,0.525
36.72,31774.9,34452.9,-0.9053,-1.3428,138.7,96.9,0.525
36.74,31844.9,34536.7,-0.6248,-1.1373,138.7,96.9,0.525
36.76,31912.1,34921.9,-0.3553,-0.1922,138.7,96.9,0.525
36.78,32099.9,35183.9,0.3981,0.4506,138.7,96.9,0.525
36.8,32232.8,35523.3,0.9313,1.2834,138.7,96.9,0.525
36.82,32392.5,35699.6,1.5719,1.716,138.7,96.9,0.525
36.84,32412.0,35778.2,1.6502,1.9089,138.7,96.9,0.525
36.86,32213.2,35575.7,0.8528,1.412,138.7,96.9,0.525
36.88,32153.2,35395.0,0.6121,0.9685,138.7,96.9,0.525
36.9,32034.3,35274.0,0.1351,0.6718,138.7,96.9,0.525
36.92,31986.7,35150.3,-0.0558,0.3682,138.7,96.9,0.525
36.94,32098.7,35103.0,0.3935,0.2523,138.7,96.9,0.525
36.96,31962.5,35047.0,-0.1531,0.1149,138.7,96.9,0.525
36.98,31915.7,35036.7,-0.3408,0.0896,138.7,96.9,0.525
37.0,31976.3,34820.8,-0.0977,-0.4402,138.7,96.9,0.525
37.02,31883.1,34723.8,-0.4713,-0.6782,138.7,96.9,0.525
37.04,31836.3,34701.7,-0.6591,-0.7325,138.7,96.9,0.525
37.06,31856.6,34697.0,-0.5778,-0.744,138.7,96.9,0.525
37.08,31779.6,34687.0,-0.8865,-0.7684,138.7,96.9,0.525
37.1,31804.8,34593.2,-0.7855,-0.9986,138.7,96.9,0.525
37.12,31708.0,34548.4,-1.1736,-1.1086,138.7,96.9,0.525
37.14,31754.1,34467.9,-0.9887,-1.3061,138.7,96.9,0.525
37.16,31849.3,34457.8,-0.6071,-1.3308,138.7,96.9,0.525
37.18,31794.2,34695.9,-0.8278,-0.7467,138.7,96.9,0.525
37.2,32028.3,34925.4,0.1112,-0.1834,138.7,96.9,0.525
37.22,32152.3,35401.5,0.6083,0.9846,138.7,96.9,0.525
37.24,32337.7,35653.6,1.3522,1.6031,138.7,96.9,0.525
37.26,32418.4,35698.9,1.6756,1.7141,138.7,96.9,0.525
37.28,32337.9,35739.6,1.3527,1.814,138.7,96.9,0.525
37.3,32262.7,35536.2,1.051,1.3151,138.7,96.9,0.525
37.32,32225.0,35313.1,0.9001,0.7677,138.7,96.9,0.525
37.34,32122.2,35078.6,0.4876,0.1923,138.7,96.9,0.525
37.36,32103.0,35089.6,0.4108,0.2192,138.7,96.9,0.525
37.38,32016.8,34997.0,0.0649,-0.0078,138.7,96.9,0.525
37.4,32031.9,34971.9,0.1256,-0.0695,138.7,96.9,0.525
37.42,31863.8,34893.7,-0.5489,-0.2613,138.7,96.9,0.525
37.44,31878.8,34902.4,-0.4885,-0.2399,138.7,96.9,0.525
37.46,31855.0,34686.6,-0.5839,-0.7695,138.7,96.9,0.525
37.48,31791.5,34712.3,-0.8388,-0.7063,138.7,96.9,0.525
37.5,31835.3,34646.9,-0.6633,-0.8669,138.7,96.9,0.525
37.52,31741.6,34753.8,-1.0389,-0.6046,138.7,96.9,0.525
37.54,31737.5,34636.1,-1.0556,-0.8932,138.7,96.9,0.525
37.56,31760.6,34437.6,-0.963,-1.3803,138.7,96.9,0.525
37.58,31683.6,34557.9,-1.2716,-1.0851,138.7,96.9,0.525
37.6,31854.7,34509.1,-0.5853,-1.2049,138.7,96.9,0.525
37.62,31870.6,34797.0,-0.5214,-0.4985,138.7,96.9,0.525
37.64,32000.2,35059.4,-0.0019,0.1452,138.7,96.9,0.525
37.66,32284.0,35355.8,1.1365,0.8724,138.7,96.9,0.525
37.68,32259.1,35743.1,1.0366,1.8226,138.7,96.9,0.525
37.7,32332.5,35752.7,1.3313,1.8463,138.7,96.9,0.525
37.72,32269.9,35646.0,1.08,1.5844,138.7,96.9,0.525
37.74,32207.9,35423.5,0.8314,1.0385,138.7,96.9,0.525
37.76,32205.6,35206.2,0.8222,0.5055,138.7,96.9,0.525
37.78,32104.7,35172.1,0.4176,0.4218,138.7,96.9,0.525
37.8,32068.1,35015.9,0.2706,0.0385,138.7,96.9,0.525
37.82,32148.5,35098.0,0.5933,0.24,138.7,96.9,0.525
37.84,31931.5,35027.8,-0.2774,0.0677,138.7,96.9,0.525
37.86,31988.9,34910.2,-0.0471,-0.221,138.7,96.9,0.525
37.88,31909.5,34833.6,-0.3656,-0.4087,138.7,96.9,0.525
37.9,31807.5,34791.2,-0.7748,-0.5129,138.7,96.9,0.525
37.92,31840.6,34739.3,-0.6418,-0.6402,138.7,96.9,0.525
37.94,31773.9,34671.1,-0.9096,-0.8075,138.7,96.9,0.525
37.96,31828.3,34612.8,-0.6912,-0.9504,138.7,96.9,0.525
37.98,31692.7,34572.1,-1.235,-1.0503,138.7,96.9,0.525
38.0,31645.6,34470.1,-1.424,-1.3007,138.7,96.9,0.525
38.02,31662.3,34457.5,-1.357,-1.3314,138.7,96.9,0.525
38.04,31843.6,34610.0,-0.6298,-0.9574,138.7,96.9,0.525
38.06,31884.7,34840.1,-0.4651,-0.3929,138.7,96.9,0.525
38.08,32120.7,35273.1,0.4815,0.6696,138.7,96.9,0.525
38.1,32275.6,35434.5,1.1031,1.0655,138.7,96.9,0.525
38.12,32336.7,35694.0,1.3479,1.7023,138.7,96.9,0.525
38.14,32299.2,35786.1,1.1977,1.9283,138.7,96.9,0.525
38.16,32360.5,35629.4,1.4435,1.5438,138.7,96.9,0.525
38.18,32164.4,35476.5,0.6569,1.1687,138.7,96.9,0.525
38.2,32076.6,35310.4,0.3046,0.7609,138.7,96.9,0.525
38.22,31991.9,35120.0,-0.0352,0.2939,138.7,96.9,0.525
38.24,32175.2,35068.4,0.7002,0.1672,138.7,96.9,0.525
38.26,32044.6,34957.3,0.1765,-0.1054,138.7,96.9,0.525
38.28,32023.5,35002.5,0.0916,0.0055,138.7,96.9,0.525
38.3,31990.1,34840.7,-0.0422,-0.3913,138.7,96.9,0.525
38.32,31873.5,34785.3,-0.5099,-0.5272,138.7,96.9,0.525
38.34,31961.0,34694.3,-0.1591,-0.7506,138.7,96.9,0.525
38.36,31794.9,34759.2,-0.8253,-0.5914,138.7,96.9,0.525
38.38,31834.1,34666.7,-0.6679,-0.8183,138.7,96.9,0.525
38.4,31822.5,34568.5,-0.7146,-1.0591,138.7,96.9,0.525
38.42,31742.3,34450.3,-1.0364,-1.3492,138.7,96.9,0.525
38.44,31760.2,34503.4,-0.9643,-1.2189,138.7,96.9,0.525
38.46,31731.2,34416.7,-1.0807,-1.4316,138.7,96.9,0.525
38.48,31813.8,34699.0,-0.7493,-0.7389,138.7,96.9,0.525
38.5,31974.0,35015.5,-0.107,0.0375,138.7,96.9,0.525
38.52,32202.5,35367.5,0.8097,0.9011,138.7,96.9,0.525
38.54,32320.2,35758.7,1.2818,1.861,138.7,96.9,0.525
38.56,32425.3,35776.4,1.7035,1.9044,138.7,96.9,0.525
38.58,32383.0,35743.8,1.5338,1.8245,138.7,96.9,0.525
38.6,32326.7,35514.8,1.308,1.2626,138.7,96.9,0.525
38.62,32130.3,35434.5,0.52,1.0656,138.7,96.9,0.525
38.64,32094.5,35172.4,0.3767,0.4224,138.7,96.9,0.525
38.66,31938.0,35111.5,-0.2514,0.2731,138.7,96.9,0.525
38.68,32042.0,35068.6,0.1661,0.1679,138.7,96.9,0.525
38.7,32016.2,35046.4,0.0626,0.1134,138.7,96.9,0.525
38.72,31948.9,34950.1,-0.2074,-0.1229,138.7,96.9,0.525
38.74,31935.0,34718.7,-0.2633,-0.6906,138.7,96.9,0.525
38.76,31831.4,34768.3,-0.6788,-0.5689,138.7,96.9,0.525
38.78,31819.9,34676.7,-0.725,-0.7937,138.7,96.9,0.525
38.8,31831.8,34614.9,-0.677,-0.9453,138.7,96.9,0.525
38.82,31881.0,34612.3,-0.4797,-0.9517,138.7,96.9,0.525
38.84,31810.0,34579.9,-0.7647,-1.0311,138.7,96.9,0.525
38.86,31666.3,34496.4,-1.3411,-1.2361,138.7,96.9,0.525
38.88,31753.8,34495.7,-0.99,-1.2377,138.7,96.9,0.525
38.9,31775.4,34527.0,-0.9035,-1.161,138.7,96.9,0.525
38.92,31844.6,34831.8,-0.6259,-0.4132,138.7,96.9,0.525
38.94,32152.5,35137.0,0.6092,0.3357,138.7,96.9,0.525
38.96,32219.6,35511.6,0.8783,1.2547,138.7,96.9,0.525
38.98,32334.8,35713.0,1.3402,1.7489,138.7,96.9,0.525
39.0,32364.6,35798.4,1.4598,1.9583,138.7,96.9,0.525
39.02,32259.9,35686.2,1.0401,1.6832,138.7,96.9,0.525
39.04,32262.8,35537.9,1.0515,1.3192,138.7,96.9,0.525
39.06,32202.4,35223.4,0.8092,0.5475,138.7,96.9,0.525
39.08,32144.4,35216.1,0.5766,0.5296,138.7,96.9,0.525
39.1,32050.5,35097.0,0.2002,0.2375,138.7,96.9,0.525
39.12,32007.0,34992.5,0.0256,-0.0189,138.7,96.9,0.525
39.14,31952.0,34948.3,-0.1949,-0.1273,138.7,96.9,0.525
39.16,31896.7,34814.7,-0.417,-0.4551,138.7,96.9,0.525
39.18,31948.9,34692.5,-0.2076,-0.7549,138.7,96.9,0.525
39.2,31849.9,34639.5,-0.6046,-0.885,138.7,96.9,0.525
39.22,31771.6,34607.5,-0.9188,-0.9636,138.7,96.9,0.525
39.24,31759.3,34636.0,-0.9678,-0.8936,138.7,96.9,0.525
39.26,31729.3,34639.0,-1.0885,-0.8861,138.7,96.9,0.525
39.28,31768.4,34547.8,-0.9317,-1.1099,138.7,96.9,0.525
39.3,31723.4,34490.3,-1.1121,-1.2511,138.7,96.9,0.525
39.32,31724.2,34382.6,-1.1088,-1.5153,138.7,96.9,0.525
39.34,31843.6,34598.4,-0.6299,-0.9858,138.7,96.9,0.525
39.36,32074.2,34943.4,0.2952,-0.1393,138.7,96.9,0.525
39.38,32125.5,35448.2,0.5008,1.0991,138.7,96.9,0.525
39.4,32270.5,35612.6,1.0827,1.5024,138.7,96.9,0.525
39.42,32276.7,35649.1,1.1074,1.5921,138.7,96.9,0.525
39.44,32331.6,35685.4,1.3275,1.681,138.7,96.9,0.525
39.46,32243.0,35497.2,0.9722,1.2194,138.7,96.9,0.525
39.48,32132.9,35329.4,0.5305,0.8076,138.7,96.9,0.525
39.5,32077.2,35307.1,0.3069,0.7531,138.7,96.9,0.525
39.52,31930.0,35135.8,-0.2832,0.3326,138.7,96.9,0.525
39.54,31962.7,35069.1,-0.1521,0.169,138.7,96.9,0.525
39.56,31940.5,34993.9,-0.2413,-0.0155,138.7,96.9,0.525
39.58,31816.8,34924.4,-0.7372,-0.1859,138.7,96.9,0.525
39.6,31898.9,34755.8,-0.4082,-0.5996,138.7,96.9,0.525
39.62,31839.7,34774.2,-0.6454,-0.5546,138.7,96.9,0.525
39.64,31849.3,34599.5,-0.6071,-0.9832,138.7,96.9,0.525
39.66,31865.9,34684.1,-0.5404,-0.7756,138.7,96.9,0.525
39.68,31787.4,34599.7,-0.8553,-0.9826,138.7,96.9,0.525
39.7,31808.7,34575.8,-0.7698,-1.0413,138.7,96.9,0.525
39.72,31779.5,34381.6,-0.887,-1.5178,138.7,96.9,0.525
39.74,31755.3,34434.1,-0.9842,-1.389,138.7,96.9,0.525
39.76,31746.8,34527.2,-1.0181,-1.1605,138.7,96.9,0.525
39.78,31864.4,34707.4,-0.5464,-0.7185,138.7,96.9,0.525
39.8,32024.6,35074.5,0.096,0.1823,138.7,96.9,0.525
39.82,32223.7,35337.9,0.8947,0.8285,138.7,96.9,0.525
39.84,32371.4,35641.4,1.4872,1.5733,138.7,96.9,0.525
39.86,32365.7,35884.3,1.4643,2.1691,138.7,96.9,0.525
39.88,32320.4,35748.8,1.2825,1.8366,138.7,96.9,0.525
39.9,32158.5,35451.0,0.6333,1.1061,138.7,96.9,0.525
39.92,32046.2,35294.5,0.1826,0.722,138.7,96.9,0.525
39.94,32117.0,35168.1,0.4669,0.4119,138.7,96.9,0.525
39.96,32107.0,35090.6,0.4266,0.2218,138.7,96.9,0.525
39.98,31986.4,35076.8,-0.0569,0.1878,138.7,96.9,0.525
40.0,31972.9,34978.8,-0.1111,-0.0526,138.7,96.9,0.525
40.02,32018.2,34891.9,0.0705,-0.2657,138.7,96.9,0.526
40.04,31869.0,34748.4,-0.5279,-0.6178,138.6,96.8,0.526
40.06,31877.6,34680.3,-0.4934,-0.7849,138.6,96.8,0.527
40.08,31898.6,34675.2,-0.4093,-0.7975,138.6,96.8,0.528
40.1,31796.3,34584.4,-0.8195,-1.0201,138.6,96.8,0.528
40.12,31836.5,34649.2,-0.6584,-0.8611,138.6,96.8,0.529
40.14,31722.1,34579.9,-1.1172,-1.0312,138.5,96.8,0.529
40.16,31732.4,34555.4,-1.0758,-1.0912,138.5,96.8,0.53
40.18,31619.6,34543.3,-1.5285,-1.1209,138.5,96.7,0.53
40.2,31730.3,34635.8,-1.0844,-0.8941,138.5,96.7,0.531
40.22,31867.5,34855.1,-0.534,-0.356,138.5,96.7,0.531
40.24,32084.4,35151.5,0.3362,0.3711,138.4,96.7,0.532
40.26,32272.2,35568.1,1.0892,1.3933,138.4,96.7,0.532
40.28,32375.5,35697.9,1.5038,1.7117,138.4,96.7,0.533
40.3,32416.3,35780.2,1.6674,1.9137,138.4,96.7,0.533
40.32,32379.7,35645.7,1.5205,1.5838,138.4,96.7,0.534
40.34,32177.6,35529.5,0.7098,1.2986,138.3,96.6,0.534
40.36,32139.4,35254.1,0.5567,0.6229,138.3,96.6,0.535
40.38,32130.5,35134.0,0.5211,0.3283,138.3,96.6,0.535
40.4,32033.8,35011.1,0.133,0.0266,138.3,96.6,0.536
40.42,32068.5,34926.4,0.2722,-0.1812,138.3,96.6,0.536
40.44,31936.3,35038.6,-0.2581,0.0943,138.2,96.6,0.537
40.46,31992.7,34871.0,-0.0318,-0.3171,138.2,96.6,0.537
40.48,31835.6,34801.1,-0.6619,-0.4884,138.2,96.6,0.538
40.5,31924.1,34754.0,-0.3068,-0.6041,138.2,96.5,0.538
40.52,31817.6,34650.7,-0.734,-0.8575,138.2,96.5,0.539
40.54,31889.0,34640.4,-0.4478,-0.8829,138.1,96.5,0.539
40.56,31700.6,34638.8,-1.2034,-0.8868,138.1,96.5,0.54
40.58,31829.5,34396.5,-0.6862,-1.4813,138.1,96.5,0.54
40.6,31729.5,34443.4,-1.0876,-1.3661,138.1,96.5,0.541
40.62,31802.3,34379.3,-0.7957,-1.5235,138.1,96.5,0.541
40.64,31835.8,34685.8,-0.661,-0.7715,138.0,96.5,0.542
40.66,32006.4,34948.6,0.0231,-0.1266,138.0,96.4,0.542
40.68,32093.9,35245.2,0.3741,0.601,138.0,96.4,0.543
40.7,32257.2,35541.0,1.029,1.3268,138.0,96.4,0.543
40.72,32371.3,35771.3,1.487,1.8919,138.0,96.4,0.544
40.74,32420.2,35730.0,1.6831,1.7906,137.9,96.4,0.544
40.76,32276.1,35578.8,1.1051,1.4195,137.9,96.4,0.545
40.78,32240.6,35378.7,0.9626,0.9286,137.9,96.4,0.545
40.8,32151.7,35258.3,0.6059,0.6333,137.9,96.4,0.546
40.82,31970.4,35130.8,-0.1214,0.3205,137.9,96.3,0.546
40.84,32046.8,35140.4,0.1853,0.344,137.8,96.3,0.547
40.86,32014.5,34976.2,0.0557,-0.0589,137.8,96.3,0.547
40.88,32016.1,34960.9,0.062,-0.0964,137.8,96.3,0.548
40.9,31910.2,34745.8,-0.3626,-0.6242,137.8,96.3,0.548
40.92,31818.2,34630.9,-0.7318,-0.9062,137.8,96.3,0.549
40.94,31859.7,34696.0,-0.5652,-0.7463,137.7,96.3,0.549
40.96,31813.1,34757.6,-0.7521,-0.5952,137.7,96.3,0.55
40.98,31830.4,34617.4,-0.6829,-0.9392,137.7,96.2,0.55
41.0,31779.8,34546.0,-0.8857,-1.1144,137.7,96.2,0.551
41.02,31676.8,34467.5,-1.2988,-1.307,137.7,96.2,0.551
41.04,31697.2,34375.8,-1.2171,-1.532,137.6,96.2,0.552
41.06,31706.6,34474.7,-1.1793,-1.2893,137.6,96.2,0.552
41.08,31803.7,34750.2,-0.7897,-0.6134,137.6,96.2,0.553
41.1,31968.8,35044.1,-0.1275,0.1077,137.6,96.2,0.553
41.12,32197.7,35323.6,0.7904,0.7935,137.6,96.2,0.554
41.14,32353.2,35712.1,1.4141,1.7466,137.5,96.1,0.554
41.16,32383.9,35768.0,1.5376,1.8838,137.5,96.1,0.555
41.18,32359.5,35688.7,1.4396,1.6892,137.5,96.1,0.556
41.2,32298.3,35566.3,1.194,1.389,137.5,96.1,0.556
41.22,32228.8,35324.3,0.9152,0.7951,137.5,96.1,0.557
41.24,32102.5,35194.2,0.4088,0.4758,137.4,96.1,0.557
41.26,32082.9,35143.7,0.3301,0.3521,137.4,96.1,0.558
41.28,32104.0,34976.4,0.4146,-0.0584,137.4,96.0,0.558
41.3,31940.8,35046.4,-0.2398,0.1133,137.4,96.0,0.559
41.32,31900.0,35022.7,-0.4038,0.0551,137.4,96.0,0.559
41.34,31897.9,34782.5,-0.4121,-0.5341,137.3,96.0,0.56
41.36,31863.1,34689.4,-0.5518,-0.7627,137.3,96.0,0.56
41.38,31809.4,34573.1,-0.7669,-1.048,137.3,96.0,0.561
41.4,31798.1,34668.7,-0.8125,-0.8133,137.3,96.0,0.561
41.42,31850.0,34657.1,-0.6043,-0.8418,137.3,96.0,0.562
41.44,31763.0,34589.8,-0.9533,-1.007,137.2,95.9,0.562
41.46,31738.3,34516.9,-1.0521,-1.1857,137.2,95.9,0.563
41.48,31692.0,34496.7,-1.2379,-1.2353,137.2,95.9,0.563
41.5,31797.6,34512.4,-0.8143,-1.197,137.2,95.9,0.564
41.52,31906.5,34752.4,-0.3774,-0.6081,137.2,95.9,0.564
41.54,32035.6,35045.3,0.1401,0.1105,137.1,95.9,0.565
41.56,32244.9,35432.3,0.9797,1.06,137.1,95.9,0.565
41.58,32337.3,35602.6,1.3503,1.478,137.1,95.9,0.566
41.6,32315.8,35762.2,1.264,1.8694,137.1,95.8,0.566
41.62,32341.4,35642.6,1.3669,1.5761,137.1,95.8,0.567
41.64,32275.5,35521.2,1.1024,1.2783,137.0,95.8,0.567
41.66,32232.2,35254.0,0.9288,0.6227,137.0,95.8,0.568
41.68,32071.5,35165.9,0.2844,0.4064,137.0,95.8,0.568
41.7,32074.2,35145.4,0.2952,0.3562,137.0,95.8,0.569
41.72,32066.3,35081.4,0.2634,0.1993,137.0,95.8,0.569
41.74,31926.6,35025.6,-0.2967,0.0624,136.9,95.8,0.57
41.76,31925.5,34936.3,-0.3012,-0.1567,136.9,95.7,0.57
41.78,31910.2,34798.8,-0.3629,-0.4942,136.9,95.7,0.571
41.8,31866.5,34694.7,-0.5382,-0.7496,136.9,95.7,0.571
41.82,31821.2,34644.1,-0.7199,-0.8738,136.9,95.7,0.572
41.84,31784.3,34689.2,-0.8675,-0.7631,136.8,95.7,0.572
41.86,31859.8,34750.2,-0.5648,-0.6133,136.8,95.7,0.573
41.88,31837.6,34558.6,-0.6539,-1.0834,136.8,95.7,0.573
41.9,31812.5,34503.1,-0.7547,-1.2197,136.8,95.7,0.574
41.92,31730.9,34462.0,-1.0818,-1.3205,136.8,95.6,0.574
41.94,31731.4,34532.2,-1.0798,-1.1483,136.7,95.6,0.575
41.96,31887.8,34781.8,-0.4528,-0.5358,136.7,95.6,0.575
41.98,32035.5,35071.0,0.1399,0.1736,136.7,95.6,0.576
42.0,32178.3,35457.7,0.7125,1.1224,136.7,95.6,0.576
42.02,32294.6,35679.1,1.1793,1.6657,136.7,95.6,0.577
42.04,32342.7,35807.2,1.3721,1.98,136.6,95.6,0.577
42.06,32366.3,35724.7,1.4668,1.7776,136.6,95.6,0.578
42.08,32291.7,35486.5,1.1674,1.1932,136.6,95.5,0.578
42.1,32194.0,35267.3,0.7755,0.6552,136.6,95.5,0.579
42.12,32111.6,35134.9,0.4452,0.3304,136.6,95.5,0.579
42.14,32039.1,35149.5,0.1544,0.3663,136.5,95.5,0.58
42.16,31998.1,35122.5,-0.0102,0.2999,136.5,95.5,0.58
42.18,32072.8,34998.3,0.2896,-0.0046,136.5,95.5,0.581
42.2,31891.9,34838.5,-0.4361,-0.3968,136.5,95.5,0.581
42.22,31935.3,34902.1,-0.2621,-0.2408,136.5,95.5,0.582
42.24,31822.7,34752.9,-0.7139,-0.6069,136.4,95.4,0.582
42.26,31791.9,34630.7,-0.8374,-0.9066,136.4,95.4,0.583
42.28,31793.0,34639.0,-0.8328,-0.8863,136.4,95.4,0.584
42.3,31777.6,34661.8,-0.8945,-0.8304,136.4,95.4,0.584
42.32,31680.7,34542.0,-1.2833,-1.1243,136.4,95.4,0.585
42.34,31669.7,34378.7,-1.3275,-1.5249,136.3,95.4,0.585
42.36,31700.0,34414.5,-1.2058,-1.437,136.3,95.4,0.586
42.38,31605.7,34536.0,-1.5842,-1.139,136.3,95.3,0.586
42.4,31808.4,34776.5,-0.7711,-0.5489,136.3,95.3,0.587
42.42,32124.4,35080.8,0.4963,0.1978,136.3,95.3,0.587
42.44,32232.8,35511.5,0.9313,1.2545,136.2,95.3,0.588
42.46,32394.7,35722.1,1.5806,1.771,136.2,95.3,0.588
42.48,32405.8,35769.0,1.6253,1.8863,136.2,95.3,0.589
42.5,32427.0,35681.2,1.7101,1.6709,136.2,95.3,0.589
42.52,32309.5,35465.3,1.239,1.1411,136.2,95.3,0.59
42.54,32088.1,35330.0,0.3507,0.8091,136.1,95.2,0.59
42.56,32047.6,35155.2,0.1883,0.3804,136.1,95.2,0.591
42.58,32027.6,35186.3,0.1084,0.4565,136.1,95.2,0.591
42.6,32157.4,35169.3,0.6287,0.4148,136.1,95.2,0.592
42.62,31986.2,35002.0,-0.0577,0.0044,136.1,95.2,0.592
42.64,31938.9,34951.3,-0.2474,-0.1199,136.0,95.2,0.593
42.66,31935.0,34796.6,-0.2634,-0.4995,136.0,95.2,0.593
42.68,31871.0,34615.8,-0.5198,-0.9432,136.0,95.2,0.594
42.7,31797.4,34739.1,-0.815,-0.6407,136.0,95.1,0.594
42.72,31845.7,34650.4,-0.6214,-0.8583,136.0,95.1,0.595
42.74,31716.7,34607.9,-1.1389,-0.9626,135.9,95.1,0.595
42.76,31780.5,34454.5,-0.883,-1.3388,135.9,95.1,0.596
42.78,31806.3,34505.1,-0.7795,-1.2147,135.9,95.1,0.596
42.8,31797.8,34391.1,-0.8137,-1.4945,135.9,95.1,0.597
42.82,31777.2,34463.1,-0.8962,-1.3179,135.9,95.1,0.597
42.84,31891.3,34740.0,-0.4386,-0.6384,135.8,95.1,0.598
42.86,32010.5,35081.2,0.0396,0.1987,135.8,95.0,0.598
42.88,32158.2,35398.4,0.632,0.9769,135.8,95.0,0.599
42.9,32293.4,35658.9,1.1744,1.6161,135.8,95.0,0.599
42.92,32396.1,35792.7,1.5864,1.9444,135.8,95.0,0.6
42.94,32384.4,35673.2,1.5395,1.6511,135.7,95.0,0.6
42.96,32241.3,35566.8,0.9653,1.3901,135.7,95.0,0.601
42.98,32191.8,35341.5,0.7667,0.8374,135.7,95.0,0.601
43.0,32132.9,35151.6,0.5305,0.3713,135.7,95.0,0.602
43.02,32020.2,35230.1,0.0785,0.564,135.7,94.9,0.602
43.04,31978.4,34988.5,-0.0892,-0.0287,135.6,94.9,0.603
43.06,31931.1,35075.1,-0.2789,0.1838,135.6,94.9,0.603
43.08,31916.9,34944.2,-0.3358,-0.1374,135.6,94.9,0.604
43.1,31934.7,34774.5,-0.2645,-0.5537,135.6,94.9,0.604
43.12,31886.2,34658.7,-0.4591,-0.8379,135.6,94.9,0.605
43.14,31784.2,34671.0,-0.8679,-0.8076,135.5,94.9,0.605
43.16,31827.8,34637.5,-0.6934,-0.89,135.5,94.9,0.606
43.18,31801.5,34640.6,-0.7989,-0.8824,135.5,94.8,0.606
43.2,31827.5,34593.0,-0.6944,-0.999,135.5,94.8,0.607
43.22,31718.6,34480.2,-1.1311,-1.2758,135.5,94.8,0.607
43.24,31741.6,34519.6,-1.0391,-1.1793,135.4,94.8,0.608
43.26,31743.1,34439.1,-1.0331,-1.3766,135.4,94.8,0.608
43.28,31841.7,34825.9,-0.6376,-0.4277,135.4,94.8,0.609
43.3,31967.5,35017.2,-0.133,0.0417,135.4,94.8,0.609
43.32,32291.6,35462.3,1.1671,1.1338,135.4,94.8,0.61
43.34,32334.3,35692.8,1.3385,1.6994,135.3,94.7,0.61
43.36,32404.8,35820.3,1.621,2.012,135.3,94.7,0.611
43.38,32393.4,35779.8,1.5755,1.9126,135.3,94.7,0.612
43.4,32272.5,35503.0,1.0907,1.2336,135.3,94.7,0.612
43.42,32226.8,35389.9,0.9071,0.9561,135.3,94.7,0.613
43.44,32142.7,35196.8,0.5697,0.4824,135.2,94.7,0.613
43.46,32182.0,35144.8,0.7276,0.3548,135.2,94.7,0.614
43.48,31937.6,34972.6,-0.2526,-0.0676,135.2,94.6,0.614
43.5,31948.7,34993.2,-0.2081,-0.0172,135.2,94.6,0.615
43.52,31966.4,34957.1,-0.1372,-0.1058,135.2,94.6,0.615
43.54,31891.7,34886.2,-0.4368,-0.2797,135.1,94.6,0.616
43.56,31838.5,34680.0,-0.6505,-0.7856,135.1,94.6,0.616
43.58,31776.2,34688.7,-0.9002,-0.7643,135.1,94.6,0.617
43.6,31800.7,34695.8,-0.802,-0.7468,135.1,94.6,0.617
43.62,31775.9,34671.3,-0.9013,-0.8069,135.1,94.6,0.618
43.64,31800.1,34648.9,-0.8044,-0.862,135.0,94.5,0.618
43.66,31697.7,34606.5,-1.2152,-0.9659,135.0,94.5,0.619
43.68,31714.9,34516.1,-1.146,-1.1878,135.0,94.5,0.619
43.7,31803.4,34459.9,-0.791,-1.3257,135.0,94.5,0.62
43.72,31754.3,34697.9,-0.988,-0.7418,135.0,94.5,0.62
43.74,31987.9,34877.8,-0.0512,-0.3002,134.9,94.5,0.621
43.76,32175.5,35455.3,0.7013,1.1166,134.9,94.5,0.621
43.78,32330.2,35573.6,1.3219,1.4068,134.9,94.5,0.622
43.8,32380.1,35820.9,1.522,2.0135,134.9,94.4,0.622
43.82,32493.1,35727.1,1.9752,1.7835,134.9,94.4,0.623
43.84,32346.2,35506.7,1.3862,1.2427,134.8,94.4,0.623
43.86,32297.5,35408.8,1.1908,1.0025,134.8,94.4,0.624
43.88,32163.7,35304.0,0.654,0.7453,134.8,94.4,0.624
43.9,32101.4,35191.9,0.4042,0.4704,134.8,94.4,0.625
43.92,32003.2,35057.6,0.0104,0.1407,134.8,94.4,0.625
43.94,31940.5,34958.7,-0.2411,-0.1019,134.7,94.4,0.626
43.96,31959.9,34957.2,-0.1633,-0.1055,134.7,94.3,0.626
43.98,31919.8,34814.4,-0.3242,-0.456,134.7,94.3,0.627
44.0,31870.2,34746.8,-0.523,-0.6219,134.7,94.3,0.627
44.02,31781.1,34628.3,-0.8807,-0.9125,134.7,94.3,0.628
44.04,31883.2,34662.4,-0.4712,-0.8288,134.6,94.3,0.628
44.06,31833.2,34674.3,-0.6714,-0.7996,134.6,94.3,0.629
44.08,31950.8,34697.4,-0.1998,-0.7429,134.6,94.3,0.629
44.1,31746.7,34635.8,-1.0187,-0.894,134.6,94.3,0.63
44.12,31642.8,34471.0,-1.4353,-1.2985,134.6,94.2,0.63
44.14,31629.9,34459.1,-1.4871,-1.3275,134.5,94.2,0.631
44.16,31718.7,34578.4,-1.1307,-1.035,134.5,94.2,0.631
44.18,31876.0,34929.1,-0.4999,-0.1745,134.5,94.2,0.632
44.2,32145.4,35233.9,0.5806,0.5734,134.5,94.2,0.632
44.22,32285.2,35535.3,1.1415,1.3128,134.5,94.2,0.633
44.24,32500.6,35738.5,2.0056,1.8114,134.4,94.2,0.633
44.26,32384.7,35708.0,1.5407,1.7365,134.4,94.2,0.634
44.28,32319.4,35703.7,1.2785,1.726,134.4,94.1,0.634
44.3,32261.6,35428.5,1.0468,1.0508,134.4,94.1,0.635
44.32,32209.0,35288.9,0.8359,0.7083,134.4,94.1,0.635
44.34,32087.3,35215.6,0.3476,0.5284,134.3,94.1,0.636
44.36,32017.2,35121.2,0.0664,0.2969,134.3,94.1,0.636
44.38,32089.8,35111.8,0.3575,0.2737,134.3,94.1,0.637
44.4,32059.9,34977.0,0.2378,-0.0569,134.3,94.1,0.637
44.42,31995.3,34923.3,-0.0215,-0.1887,134.3,94.1,0.638
44.44,31925.8,34841.0,-0.3002,-0.3906,134.2,94.0,0.638
44.46,31804.3,34667.6,-0.7874,-0.816,134.2,94.0,0.639
44.48,31832.6,34596.0,-0.674,-0.9918,134.2,94.0,0.64
44.5,31751.2,34615.7,-1.0003,-0.9434,134.2,94.0,0.64
44.52,31885.3,34614.7,-0.4625,-0.9459,134.2,94.0,0.641
44.54,31689.3,34595.3,-1.2487,-0.9935,134.1,94.0,0.641
44.56,31736.0,34493.5,-1.0614,-1.2431,134.1,94.0,0.642
44.58,31659.7,34428.2,-1.3676,-1.4034,134.1,93.9,0.642
44.6,31768.6,34484.9,-0.9308,-1.2643,134.1,93.9,0.643
44.62,31927.3,34776.7,-0.2941,-0.5485,134.1,93.9,0.643
44.64,32107.9,35050.0,0.4303,0.1222,134.0,93.9,0.644
44.66,32283.1,35484.8,1.1331,1.189,134.0,93.9,0.644
44.68,32498.9,35698.3,1.9986,1.7127,134.0,93.9,0.645
44.7,32431.7,35651.7,1.7292,1.5985,134.0,93.9,0.645
44.72,32396.9,35671.6,1.5897,1.6473,134.0,93.9,0.646
44.74,32276.3,35522.9,1.1057,1.2824,133.9,93.8,0.646
44.76,32177.0,35361.0,0.7073,0.8853,133.9,93.8,0.647
44.78,32136.1,35117.0,0.5436,0.2865,133.9,93.8,0.647
44.8,32119.2,35013.8,0.4755,0.0334,133.9,93.8,0.648
44.82,32078.9,35086.6,0.3139,0.212,133.9,93.8,0.648
44.84,32013.8,35044.8,0.0528,0.1093,133.8,93.8,0.649
44.86,31941.8,34919.7,-0.2361,-0.1976,133.8,93.8,0.649
