timestamp,raw_red,raw_ir,filtered_red,filtered_ir,heart_rate,spo2,ac_dc_ratio
0.0,32099.3,35180.0,0.4015,0.4427,142.5,98.1,0.478
0.02,32326.3,35469.5,1.3164,1.1547,142.5,98.1,0.478
0.04,32304.8,35636.3,1.2298,1.5648,142.5,98.1,0.478
0.06,32320.9,35752.9,1.2948,1.8514,142.5,98.1,0.478
0.08,32320.4,35584.1,1.2926,1.4365,142.5,98.1,0.478
0.1,32214.5,35342.6,0.8658,0.8425,142.5,98.1,0.478
0.12,32069.6,35249.3,0.2817,0.6132,142.5,98.1,0.478
0.14,32056.3,35099.5,0.2283,0.2448,142.5,98.1,0.478
0.16,31997.8,35083.3,-0.0075,0.2049,142.5,98.1,0.478
0.18,32066.4,35056.8,0.2687,0.1399,142.5,98.1,0.478
0.2,31985.2,34930.0,-0.0586,-0.1721,142.5,98.1,0.478
0.22,31977.6,34798.2,-0.0892,-0.4961,142.5,98.1,0.478
0.24,31860.6,34771.7,-0.5607,-0.5614,142.5,98.1,0.478
0.26,31856.9,34644.1,-0.5755,-0.8751,142.5,98.1,0.478
0.28,31914.2,34638.1,-0.3448,-0.8897,142.5,98.1,0.478
0.3,31976.1,34696.9,-0.0951,-0.7451,142.5,98.1,0.478
0.32,31859.1,34636.0,-0.5667,-0.8949,142.5,98.1,0.478
0.34,31646.3,34430.1,-1.4246,-1.4013,142.5,98.1,0.478
0.36,31862.3,34383.2,-0.5539,-1.5165,142.5,98.1,0.478
0.38,31815.0,34487.8,-0.7447,-1.2594,142.5,98.1,0.478
0.4,31901.2,34758.9,-0.3971,-0.5927,142.5,98.1,0.478
0.42,32061.5,35183.6,0.249,0.4516,142.5,98.1,0.478
0.44,32262.6,35509.1,1.0598,1.2521,142.5,98.1,0.478
0.46,32286.0,35659.6,1.1541,1.622,142.5,98.1,0.478
0.48,32313.5,35722.3,1.265,1.7763,142.5,98.1,0.478
0.5,32293.7,35606.8,1.1849,1.4922,142.5,98.1,0.478
0.52,32121.5,35429.4,0.4909,1.0559,142.5,98.1,0.478
0.54,32174.0,35223.5,0.7026,0.5497,142.5,98.1,0.478
0.56,32121.6,35137.7,0.4915,0.3387,142.5,98.1,0.478
0.58,32078.5,34951.5,0.3176,-0.1191,142.5,98.1,0.478
0.6,32093.6,35023.8,0.3786,0.0586,142.5,98.1,0.478
0.62,31977.7,35015.0,-0.0887,0.037,142.5,98.1,0.478
0.64,31939.2,34917.2,-0.244,-0.2036,142.5,98.1,0.478
0.66,31948.6,34677.0,-0.2062,-0.7941,142.5,98.1,0.478
0.68,31882.1,34613.0,-0.4741,-0.9516,142.5,98.1,0.478
0.7,31903.1,34663.3,-0.3893,-0.8278,142.5,98.1,0.478
0.72,31914.7,34630.1,-0.3428,-0.9096,142.5,98.1,0.478
0.74,31812.5,34500.1,-0.7549,-1.2291,142.5,98.1,0.478
0.76,31790.5,34540.1,-0.8433,-1.1307,142.5,98.1,0.478
0.78,31801.4,34472.2,-0.7996,-1.2977,142.5,98.1,0.478
0.8,31769.7,34567.0,-0.9271,-1.0646,142.5,98.1,0.478
0.82,31872.6,34858.0,-0.5125,-0.349,142.5,98.1,0.478
0.84,32089.1,35030.1,0.3605,0.0742,142.5,98.1,0.478
0.86,32134.7,35458.5,0.544,1.1276,142.5,98.1,0.478
0.88,32370.7,35724.7,1.4955,1.7822,142.5,98.1,0.478
0.9,32308.2,35821.8,1.2434,2.0209,142.5,98.1,0.478
0.92,32212.1,35659.9,0.856,1.6229,142.5,98.1,0.478
0.94,32230.0,35415.8,0.9284,1.0226,142.5,98.1,0.478
0.96,32081.5,35248.2,0.3298,0.6105,142.5,98.1,0.478
0.98,32058.8,35130.6,0.2382,0.3212,142.5,98.1,0.478
1.0,31980.5,35155.1,-0.0774,0.3814,142.5,98.1,0.478
1.02,32009.0,35007.1,0.0373,0.0175,142.5,98.1,0.478
1.04,32001.6,34912.0,0.0076,-0.2162,142.5,98.1,0.478
1.06,31876.3,34752.2,-0.4976,-0.6093,142.5,98.1,0.478
1.08,31907.8,34698.7,-0.3705,-0.7408,142.5,98.1,0.478
1.1,31822.6,34704.5,-0.7142,-0.7265,142.5,98.1,0.478
1.12,31884.2,34740.3,-0.4658,-0.6385,142.5,98.1,0.478
1.14,31935.5,34464.4,-0.2589,-1.317,142.5,98.1,0.478
1.16,31802.6,34604.8,-0.7947,-0.9716,142.5,98.1,0.478
1.18,31867.9,34491.3,-0.5313,-1.2508,142.5,98.1,0.478
1.2,31744.8,34410.2,-1.0276,-1.4502,142.5,98.1,0.478
1.22,31823.9,34466.9,-0.7086,-1.3107,142.5,98.1,0.478
1.24,31922.7,34703.4,-0.3106,-0.7293,142.5,98.1,0.478
1.26,32085.4,35171.8,0.3453,0.4226,142.5,98.1,0.478
1.28,32228.2,35500.1,0.9211,1.2297,142.5,98.1,0.478
1.3,32248.6,35709.4,1.0031,1.7445,142.5,98.1,0.478
1.32,32352.2,35797.4,1.421,1.9608,142.5,98.1,0.478
1.34,32215.4,35635.8,0.8696,1.5635,142.5,98.1,0.478
1.36,32172.4,35407.5,0.6963,1.0021,142.5,98.1,0.478
1.38,32023.5,35248.0,0.0957,0.6099,142.5,98.1,0.478
1.4,32124.0,35205.8,0.5009,0.5063,142.5,98.1,0.478
1.42,32098.5,35064.9,0.3984,0.1598,142.5,98.1,0.478
1.44,32021.6,34955.9,0.0883,-0.1084,142.5,98.1,0.478
1.46,31933.4,34978.4,-0.2675,-0.0531,142.5,98.1,0.478
1.48,31879.3,34838.1,-0.4856,-0.398,142.5,98.1,0.478
1.5,31924.3,34715.6,-0.3039,-0.6992,142.5,98.1,0.478
1.52,31848.0,34641.4,-0.6116,-0.8817,142.5,98.1,0.478
1.54,31718.9,34675.9,-1.1319,-0.7967,142.5,98.1,0.478
1.56,31890.2,34720.8,-0.4416,-0.6865,142.5,98.1,0.478
1.58,31880.9,34573.2,-0.479,-1.0494,142.5,98.1,0.478
1.6,31719.0,34484.7,-1.1317,-1.2669,142.5,98.1,0.478
1.62,31745.9,34414.7,-1.0231,-1.4392,142.5,98.1,0.478
1.64,31758.6,34586.1,-0.9721,-1.0176,142.5,98.1,0.478
1.66,31787.9,34648.9,-0.854,-0.8633,142.5,98.1,0.478
1.68,32020.2,35133.8,0.0827,0.329,142.5,98.1,0.478
1.7,32186.6,35420.4,0.7534,1.0338,142.5,98.1,0.478
1.72,32344.5,35601.6,1.39,1.4795,142.5,98.1,0.478
1.74,32225.1,35769.0,0.9087,1.8912,142.5,98.1,0.478
1.76,32218.1,35640.2,0.8802,1.5744,142.5,98.1,0.478
1.78,32221.3,35540.7,0.8931,1.3297,142.5,98.1,0.478
1.8,32125.6,35183.6,0.5076,0.4515,142.5,98.1,0.478
1.82,32126.0,35125.1,0.509,0.3077,142.5,98.1,0.478
1.84,31991.0,35081.1,-0.0351,0.1995,142.5,98.1,0.478
1.86,32059.6,35135.3,0.2415,0.3329,142.5,98.1,0.478
1.88,31979.1,34964.8,-0.0829,-0.0865,142.5,98.1,0.478
1.9,31961.4,34737.3,-0.1544,-0.6458,142.5,98.1,0.478
1.92,31904.3,34742.8,-0.3845,-0.6322,142.5,98.1,0.478
1.94,31822.7,34717.4,-0.7135,-0.6948,142.5,98.1,0.478
1.96,31840.5,34645.8,-0.6419,-0.8709,142.5,98.1,0.478
1.98,31847.3,34751.2,-0.6145,-0.6118,142.5,98.1,0.478
2.0,31729.9,34531.2,-1.0875,-1.1526,142.5,98.1,0.478
2.02,31781.0,34522.5,-0.8815,-1.174,142.5,98.1,0.478
2.04,31755.8,34500.4,-0.9831,-1.2283,142.5,98.1,0.478
2.06,31790.1,34543.3,-0.8452,-1.1229,142.5,98.1,0.478
2.08,31861.0,34740.7,-0.559,-0.6374,142.5,98.1,0.478
2.1,31997.0,35033.0,-0.0109,0.0812,142.5,98.1,0.478
2.12,32222.2,35482.5,0.8971,1.1865,142.5,98.1,0.478
2.14,32304.3,35610.5,1.228,1.5014,142.5,98.1,0.478
2.16,32354.8,35701.0,1.4314,1.7238,142.5,98.1,0.478
2.18,32194.9,35680.2,0.7866,1.6728,142.5,98.1,0.478
2.2,32242.5,35377.5,0.9787,0.9283,142.5,98.1,0.478
2.22,32168.0,35297.3,0.6786,0.7311,142.5,98.1,0.478
2.24,32045.9,35145.8,0.186,0.3587,142.5,98.1,0.478
2.26,32059.4,35079.3,0.2406,0.195,142.5,98.1,0.478
2.28,32037.7,35054.1,0.1532,0.1331,142.5,98.1,0.478
2.3,31961.5,34929.3,-0.154,-0.1738,142.5,98.1,0.478
2.32,31881.0,34853.5,-0.4787,-0.3602,142.5,98.1,0.478
2.34,31891.5,34754.7,-0.4364,-0.603,142.5,98.1,0.478
2.36,31822.9,34658.3,-0.7129,-0.84,142.5,98.1,0.478
2.38,31851.7,34651.7,-0.5966,-0.8563,142.5,98.1,0.478
2.4,31887.6,34693.9,-0.452,-0.7526,142.5,98.1,0.478
2.42,31746.3,34612.5,-1.0215,-0.9527,142.5,98.1,0.478
2.44,31751.7,34576.3,-0.9999,-1.0417,142.5,98.1,0.478
2.46,31759.1,34536.4,-0.9701,-1.14,142.5,98.1,0.478
2.48,31780.5,34475.3,-0.8836,-1.2901,142.5,98.1,0.478
2.5,31892.8,34737.1,-0.4308,-0.6463,142.5,98.1,0.478
2.52,31922.0,34982.7,-0.3134,-0.0423,142.5,98.1,0.478
2.54,32245.8,35359.7,0.9918,0.8845,142.5,98.1,0.478
2.56,32342.6,35636.5,1.3824,1.5653,142.5,98.1,0.478
2.58,32314.7,35822.3,1.2698,2.0221,142.5,98.1,0.478
2.6,32348.6,35710.9,1.4063,1.7483,142.5,98.1,0.478
2.62,32083.9,35487.9,0.3395,1.1998,142.5,98.1,0.478
2.64,32119.5,35368.4,0.4828,0.9061,142.5,98.1,0.478
2.66,31950.9,35176.9,-0.1966,0.435,142.5,98.1,0.478
2.68,32053.2,35098.4,0.2155,0.2421,142.5,98.1,0.478
2.7,32023.0,35046.7,0.0937,0.1149,142.5,98.1,0.478
2.72,31982.5,35001.4,-0.0692,0.0036,142.5,98.1,0.478
2.74,31956.1,34767.6,-0.1757,-0.5714,142.5,98.1,0.478
2.76,31900.9,34686.0,-0.3983,-0.772,142.5,98.1,0.478
2.78,31866.1,34644.5,-0.5385,-0.8739,142.5,98.1,0.478
2.8,31804.6,34611.0,-0.7864,-0.9564,142.5,98.1,0.478
2.82,31780.5,34674.6,-0.8837,-0.8,142.5,98.1,0.478
2.84,31818.3,34637.6,-0.7313,-0.8911,142.5,98.1,0.478
2.86,31784.5,34619.8,-0.8678,-0.9347,142.5,98.1,0.478
2.88,31805.0,34434.9,-0.7848,-1.3894,142.5,98.1,0.478
2.9,31777.0,34566.2,-0.898,-1.0666,142.5,98.1,0.478
2.92,31873.2,34591.0,-0.5099,-1.0055,142.5,98.1,0.478
2.94,32021.8,34921.2,0.0891,-0.1936,142.5,98.1,0.478
2.96,32177.4,35397.2,0.7164,0.9767,142.5,98.1,0.478
2.98,32265.4,35649.9,1.071,1.5983,142.5,98.1,0.478
3.0,32268.7,35744.4,1.0843,1.8305,142.5,98.1,0.478
3.02,32310.6,35606.6,1.2531,1.4917,142.5,98.1,0.478
3.04,32243.2,35520.0,0.9814,1.2788,142.5,98.1,0.478
3.06,32197.3,35206.6,0.7965,0.5081,142.5,98.1,0.478
3.08,31954.4,35221.7,-0.1825,0.5453,142.5,98.1,0.478
3.1,32023.2,35133.1,0.0948,0.3275,142.5,98.1,0.478
3.12,32016.6,34958.9,0.0681,-0.101,142.5,98.1,0.478
3.14,31990.2,34988.1,-0.0384,-0.029,142.5,98.1,0.478
3.16,32013.2,34784.3,0.0544,-0.5304,142.5,98.1,0.478
3.18,31930.2,34787.9,-0.2802,-0.5214,142.5,98.1,0.478
3.2,31936.1,34747.3,-0.2562,-0.6213,142.5,98.1,0.478
3.22,31898.4,34636.3,-0.4082,-0.8942,142.5,98.1,0.478
3.24,31817.2,34676.0,-0.7359,-0.7966,142.5,98.1,0.478
3.26,31805.6,34589.0,-0.7826,-1.0105,142.5,98.1,0.478
3.28,31837.1,34563.4,-0.6555,-1.0735,142.5,98.1,0.478
3.3,31759.4,34346.6,-0.9686,-1.6066,142.5,98.1,0.478
3.32,31810.0,34568.2,-0.7649,-1.0617,142.5,98.1,0.478
3.34,31851.6,34648.7,-0.5969,-0.8636,142.5,98.1,0.478
3.36,31941.0,34990.9,-0.2366,-0.0223,142.5,98.1,0.478
3.38,32214.5,35370.6,0.866,0.9114,142.5,98.1,0.478
3.4,32304.5,35577.3,1.2285,1.4196,142.5,98.1,0.478
3.42,32283.7,35714.2,1.1447,1.7564,142.5,98.1,0.478
3.44,32406.9,35688.5,1.6416,1.6931,142.5,98.1,0.478
3.46,32218.6,35574.1,0.8825,1.4118,142.5,98.1,0.478
3.48,32041.9,35256.8,0.17,0.6316,142.5,98.1,0.478
3.5,32105.8,35228.0,0.4278,0.5608,142.5,98.1,0.478
3.52,32057.7,35176.8,0.2338,0.4349,142.5,98.1,0.478
3.54,32078.0,35124.6,0.3157,0.3065,142.5,98.1,0.478
3.56,31966.5,35014.7,-0.134,0.0363,142.5,98.1,0.478
3.58,31987.7,34826.1,-0.0485,-0.4275,142.5,98.1,0.478
3.6,31926.6,34758.8,-0.2946,-0.593,142.5,98.1,0.478
3.62,31784.1,34717.4,-0.869,-0.6948,142.5,98.1,0.478
3.64,31842.3,34646.3,-0.6346,-0.8696,142.5,98.1,0.478
3.66,31815.6,34739.3,-0.7422,-0.6411,142.5,98.1,0.478
3.68,31703.7,34504.2,-1.1933,-1.2189,142.5,98.1,0.478
3.7,31654.8,34573.0,-1.3905,-1.0498,142.5,98.1,0.478
3.72,31748.1,34496.8,-1.0142,-1.2372,142.5,98.1,0.478
3.74,31835.5,34469.8,-0.6619,-1.3037,142.5,98.1,0.478
3.76,31854.7,34572.1,-0.5846,-1.0522,142.5,98.1,0.478
3.78,32033.2,34955.5,0.135,-0.1093,142.5,98.1,0.478
3.8,32117.6,35369.2,0.4754,0.908,142.5,98.1,0.478
3.82,32300.1,35616.2,1.2109,1.5153,142.5,98.1,0.478
3.84,32461.5,35752.8,1.8617,1.8513,142.5,98.1,0.478
3.86,32232.1,35721.4,0.9367,1.774,142.5,98.1,0.478
3.88,32185.5,35473.1,0.749,1.1633,142.5,98.1,0.478
3.9,32157.5,35318.3,0.6362,0.7827,142.5,98.1,0.478
3.92,32139.3,35177.6,0.5627,0.4369,142.5,98.1,0.478
3.94,32033.4,35097.4,0.1358,0.2396,142.5,98.1,0.478
3.96,32104.3,35097.3,0.4218,0.2393,142.5,98.1,0.478
3.98,32028.8,34959.3,0.1174,-0.0999,142.5,98.1,0.478
4.0,31978.0,34940.3,-0.0874,-0.1467,142.5,98.1,0.478
4.02,31943.0,34694.3,-0.2288,-0.7516,142.5,98.1,0.478
4.04,31930.1,34636.3,-0.2808,-0.8943,142.5,98.1,0.478
4.06,31936.9,34731.7,-0.2531,-0.6597,142.5,98.1,0.478
4.08,31831.8,34612.8,-0.6767,-0.9521,142.5,98.1,0.478
4.1,31849.7,34627.1,-0.6046,-0.9169,142.5,98.1,0.478
4.12,31638.9,34536.5,-1.4543,-1.1396,142.5,98.1,0.478
4.14,31652.8,34508.0,-1.3984,-1.2098,142.5,98.1,0.478
4.16,31728.4,34500.3,-1.0939,-1.2286,142.5,98.1,0.478
4.18,31843.4,34653.8,-0.63,-0.8513,142.5,98.1,0.478
4.2,32008.6,34925.8,0.0359,-0.1823,142.5,98.1,0.478
4.22,32205.7,35305.8,0.8302,0.7521,142.5,98.1,0.478
4.24,32234.2,35626.0,0.9453,1.5394,142.5,98.1,0.478
4.26,32288.7,35751.8,1.1648,1.8488,142.5,98.1,0.478
4.28,32262.3,35732.4,1.0587,1.8011,142.5,98.1,0.478
4.3,32266.6,35470.8,1.076,1.1577,142.5,98.1,0.478
4.32,32135.9,35257.8,0.5489,0.6341,142.5,98.1,0.478
4.34,32192.8,35198.3,0.7783,0.4877,142.5,98.1,0.478
4.36,32077.6,35113.9,0.3138,0.2802,142.5,98.1,0.478
4.38,32044.2,35078.4,0.1795,0.193,142.5,98.1,0.478
4.4,31910.6,34966.2,-0.3592,-0.0831,142.5,98.1,0.478
4.42,31869.4,34950.2,-0.5253,-0.1225,142.5,98.1,0.478
4.44,31920.5,34703.7,-0.3193,-0.7286,142.5,98.1,0.478
4.46,31771.7,34646.2,-0.9193,-0.8698,142.5,98.1,0.478
4.48,31801.0,34639.9,-0.8012,-0.8854,142.5,98.1,0.478
4.5,31805.9,34565.2,-0.7814,-1.069,142.5,98.1,0.478
4.52,31762.4,34453.7,-0.9567,-1.3434,142.5,98.1,0.478
4.54,31770.3,34514.4,-0.925,-1.194,142.5,98.1,0.478
4.56,31770.5,34492.8,-0.924,-1.247,142.5,98.1,0.478
4.58,31726.3,34399.4,-1.1021,-1.4768,142.5,98.1,0.478
4.6,31858.6,34639.0,-0.569,-0.8875,142.5,98.1,0.478
4.62,31936.1,35030.3,-0.2563,0.0747,142.5,98.1,0.478
4.64,32122.1,35324.0,0.4935,0.7968,142.5,98.1,0.478
4.66,32287.1,35650.8,1.1585,1.6005,142.5,98.1,0.478
4.68,32296.8,35671.4,1.1975,1.6511,142.5,98.1,0.478
4.7,32273.4,35718.4,1.1031,1.7665,142.5,98.1,0.478
4.72,32313.9,35612.4,1.2664,1.506,142.5,98.1,0.478
4.74,32216.7,35317.5,0.8746,0.7808,142.5,98.1,0.478
4.76,32117.8,35198.1,0.4759,0.4873,142.5,98.1,0.478
4.78,31992.9,35105.7,-0.0275,0.2601,142.5,98.1,0.478
4.8,32059.4,34996.1,0.2408,-0.0094,142.5,98.1,0.478
4.82,31955.2,35011.6,-0.1795,0.0287,142.5,98.1,0.478
4.84,31943.8,34921.8,-0.2255,-0.1921,142.5,98.1,0.478
4.86,31860.7,34764.8,-0.5606,-0.5783,142.5,98.1,0.478
4.88,31958.5,34657.6,-0.166,-0.8418,142.5,98.1,0.478
4.9,31871.9,34733.6,-0.5153,-0.655,142.5,98.1,0.478
4.92,31917.7,34647.7,-0.3306,-0.8661,142.5,98.1,0.478
4.94,31870.9,34642.2,-0.5191,-0.8797,142.5,98.1,0.478
4.96,31781.5,34578.5,-0.8796,-1.0362,142.5,98.1,0.478
4.98,31772.8,34505.7,-0.9148,-1.2153,142.5,98.1,0.478
5.0,31767.2,34490.9,-0.9372,-1.2517,142.5,98.1,0.478
5.02,31854.2,34620.9,-0.5867,-0.932,142.5,98.1,0.478
5.04,32023.1,34879.2,0.0944,-0.2968,142.5,98.1,0.478
5.06,32121.7,35293.4,0.4919,0.7216,142.5,98.1,0.478
5.08,32339.3,35684.3,1.3691,1.6828,142.5,98.1,0.478
5.1,32320.2,35649.3,1.292,1.5967,142.5,98.1,0.478
5.12,32396.4,35770.7,1.5991,1.8951,142.5,98.1,0.478
5.14,32281.0,35535.1,1.1341,1.316,142.5,98.1,0.478
5.16,32126.1,35316.7,0.5093,0.7788,142.5,98.1,0.478
5.18,32072.8,35188.8,0.2945,0.4644,142.5,98.1,0.478
5.2,32070.3,35087.5,0.2846,0.2153,142.5,98.1,0.478
5.22,32088.5,35148.4,0.358,0.3651,142.5,98.1,0.478
5.24,32021.6,35010.9,0.0882,0.0268,142.5,98.1,0.478
5.26,31919.4,34959.3,-0.3237,-0.1001,142.5,98.1,0.478
5.28,31931.5,34722.6,-0.2749,-0.682,142.5,98.1,0.478
5.3,31838.3,34768.5,-0.6506,-0.5691,142.5,98.1,0.478
5.32,31827.1,34667.8,-0.6959,-0.8167,142.5,98.1,0.478
5.34,31889.8,34614.3,-0.4429,-0.9484,142.5,98.1,0.478
5.36,31783.7,34588.4,-0.8708,-1.0121,142.5,98.1,0.478
5.38,31845.6,34527.9,-0.6211,-1.1609,142.5,98.1,0.478
5.4,31717.8,34552.0,-1.1366,-1.1014,142.5,98.1,0.478
5.42,31725.6,34564.9,-1.1052,-1.0699,142.5,98.1,0.478
5.44,31790.7,34650.2,-0.8424,-0.8601,142.5,98.1,0.478
5.46,31998.1,35025.9,-0.0065,0.0638,142.5,98.1,0.478
5.48,32130.4,35325.2,0.5268,0.7998,142.5,98.1,0.478
5.5,32324.3,35662.1,1.3086,1.6283,142.5,98.1,0.478
5.52,32338.0,35755.3,1.3636,1.8573,142.5,98.1,0.478
5.54,32254.5,35624.5,1.0269,1.5358,142.5,98.1,0.478
5.56,32254.3,35528.7,1.0262,1.3001,142.5,98.1,0.478
5.58,32090.3,35358.9,0.365,0.8826,142.5,98.1,0.478
5.6,32038.0,35178.0,0.1543,0.4378,142.5,98.1,0.478
5.62,31991.8,35100.1,-0.0321,0.2463,142.5,98.1,0.478
5.64,31909.5,35083.7,-0.3636,0.2058,142.5,98.1,0.478
5.66,32007.9,34930.2,0.0331,-0.1715,142.5,98.1,0.478
5.68,31905.8,34873.0,-0.3784,-0.3123,142.5,98.1,0.478
5.7,31896.1,34786.1,-0.4178,-0.5258,142.5,98.1,0.478
5.72,31852.5,34735.2,-0.5933,-0.6511,142.5,98.1,0.478
5.74,31854.7,34715.4,-0.5845,-0.6998,142.5,98.1,0.478
5.76,31820.6,34788.6,-0.7219,-0.5197,142.5,98.1,0.478
5.78,31757.0,34629.2,-0.9784,-0.9118,142.5,98.1,0.478
5.8,31826.2,34589.8,-0.6994,-1.0086,142.5,98.1,0.478
5.82,31752.0,34448.7,-0.9988,-1.3556,142.5,98.1,0.478
5.84,31768.3,34420.0,-0.9328,-1.426,142.5,98.1,0.478
5.86,31786.9,34573.9,-0.8578,-1.0478,142.5,98.1,0.478
5.88,31983.9,34971.6,-0.0637,-0.0698,142.5,98.1,0.478
5.9,32170.1,35195.7,0.6869,0.4813,142.5,98.1,0.478
5.92,32348.2,35586.5,1.4046,1.4424,142.5,98.1,0.478
5.94,32272.9,35817.8,1.1014,2.011,142.5,98.1,0.478
5.96,32399.8,35755.0,1.6127,1.8566,142.5,98.1,0.478
5.98,32217.9,35506.1,0.8796,1.2447,142.5,98.1,0.478
6.0,32124.8,35327.0,0.5041,0.8043,142.5,98.1,0.478
6.02,32013.9,35186.2,0.0572,0.458,142.5,98.1,0.478
6.04,32003.2,35056.9,0.0141,0.1399,142.5,98.1,0.478
6.06,32011.0,35038.8,0.0454,0.0956,142.5,98.1,0.478
6.08,31987.9,35012.0,-0.0475,0.0295,142.5,98.1,0.478
6.1,32099.5,34921.7,0.4024,-0.1925,142.5,98.1,0.478
6.12,31967.7,34806.7,-0.1292,-0.4752,142.5,98.1,0.478
6.14,31804.3,34714.4,-0.7879,-0.7022,142.5,98.1,0.478
6.16,31857.7,34729.3,-0.5725,-0.6657,142.5,98.1,0.478
6.18,31877.3,34677.5,-0.4937,-0.793,142.5,98.1,0.478
6.2,31871.2,34661.9,-0.5181,-0.8312,142.5,98.1,0.478
6.22,31844.7,34499.5,-0.6251,-1.2307,142.5,98.1,0.478
6.24,31710.4,34431.3,-1.1663,-1.3984,142.5,98.1,0.478
6.26,31727.0,34429.9,-1.0993,-1.4019,142.5,98.1,0.478
6.28,31793.3,34594.7,-0.8319,-0.9966,142.5,98.1,0.478
6.3,32007.4,34850.8,0.0311,-0.3668,142.5,98.1,0.478
6.32,32058.7,35250.6,0.2377,0.6162,142.5,98.1,0.478
6.34,32241.1,35607.3,0.9732,1.4935,142.5,98.1,0.478
6.36,32360.0,35726.2,1.4522,1.7858,142.5,98.1,0.478
6.38,32309.9,35710.6,1.2504,1.7474,142.5,98.1,0.478
6.4,32227.4,35573.6,0.9177,1.4106,142.5,98.1,0.478
6.42,32231.7,35410.7,0.9351,1.0101,142.5,98.1,0.478
6.44,32129.3,35268.4,0.5224,0.6602,142.5,98.1,0.478
6.46,32132.1,35096.4,0.5337,0.2371,142.5,98.1,0.478
6.48,31971.6,35006.5,-0.1133,0.016,142.5,98.1,0.478
6.5,31919.8,35021.8,-0.3222,0.0537,142.5,98.1,0.478
6.52,31945.7,34955.5,-0.2178,-0.1094,142.5,98.1,0.478
6.54,31892.7,34718.9,-0.4315,-0.6911,142.5,98.1,0.478
6.56,31872.3,34678.0,-0.5136,-0.7916,142.5,98.1,0.478
6.58,31809.8,34672.8,-0.7657,-0.8045,142.5,98.1,0.478
6.6,31806.4,34658.7,-0.7791,-0.8392,142.5,98.1,0.478
6.62,31834.1,34659.3,-0.6676,-0.8377,142.5,98.1,0.478
6.64,31793.6,34582.6,-0.831,-1.0263,142.5,98.1,0.478
6.66,31828.8,34500.0,-0.6892,-1.2295,142.5,98.1,0.478
6.68,31766.3,34454.2,-0.9411,-1.3421,142.5,98.1,0.478
6.7,31848.2,34502.8,-0.6108,-1.2226,142.5,98.1,0.478
6.72,31896.5,34895.5,-0.4159,-0.2568,142.5,98.1,0.478
6.74,32117.7,35254.9,0.4756,0.6268,142.5,98.1,0.478
6.76,32293.9,35552.3,1.1858,1.3582,142.5,98.1,0.478
6.78,32333.5,35671.8,1.3456,1.652,142.5,98.1,0.478
6.8,32254.4,35732.2,1.0266,1.8005,142.5,98.1,0.478
6.82,32273.6,35555.6,1.104,1.3663,142.5,98.1,0.478
6.84,32182.7,35244.4,0.7376,0.601,142.5,98.1,0.478
6.86,32030.8,35213.0,0.1254,0.5239,142.5,98.1,0.478
6.88,32026.1,35167.5,0.1063,0.412,142.5,98.1,0.478
6.9,32042.3,35061.6,0.1719,0.1517,142.5,98.1,0.478
6.92,32025.8,34972.9,0.1051,-0.0664,142.5,98.1,0.478
6.94,31931.0,34902.3,-0.2771,-0.2401,142.5,98.1,0.478
6.96,31972.0,34740.4,-0.1119,-0.6383,142.5,98.1,0.478
6.98,31980.0,34740.1,-0.0796,-0.6391,142.5,98.1,0.478
7.0,31852.7,34653.0,-0.5927,-0.8531,142.5,98.1,0.478
7.02,31858.5,34658.6,-0.5691,-0.8393,142.5,98.1,0.478
7.04,31931.4,34646.1,-0.2755,-0.8702,142.5,98.1,0.478
7.06,31866.6,34596.1,-0.5368,-0.9932,142.5,98.1,0.478
7.08,31764.9,34512.9,-0.9466,-1.1976,142.5,98.1,0.478
7.1,31658.5,34388.4,-1.3753,-1.5039,142.5,98.1,0.478
7.12,31754.8,34631.6,-0.9871,-0.9058,142.5,98.1,0.478
7.14,31883.3,34898.7,-0.4691,-0.2491,142.5,98.1,0.478
7.16,32125.4,35216.0,0.5068,0.5314,142.5,98.1,0.478
7.18,32204.0,35635.7,0.8234,1.5634,142.5,98.1,0.478
7.2,32317.2,35724.5,1.28,1.7817,142.5,98.1,0.478
7.22,32441.4,35702.8,1.7804,1.7283,142.5,98.1,0.478
7.24,32382.8,35653.2,1.5442,1.6063,142.5,98.1,0.478
7.26,32162.1,35423.3,0.6547,1.0411,142.5,98.1,0.478
7.28,32067.4,35210.8,0.273,0.5186,142.5,98.1,0.478
7.3,31955.7,35064.2,-0.1776,0.158,142.5,98.1,0.478
7.32,32032.3,34971.4,0.1314,-0.0703,142.5,98.1,0.478
7.34,31992.0,35051.9,-0.0311,0.1278,142.5,98.1,0.478
7.36,31961.4,34866.7,-0.1546,-0.3276,142.5,98.1,0.478
7.38,31993.9,34792.4,-0.0234,-0.5105,142.5,98.1,0.478
7.4,31918.0,34736.0,-0.3295,-0.6491,142.5,98.1,0.478
7.42,31935.3,34695.6,-0.2595,-0.7485,142.5,98.1,0.478
7.44,31834.7,34679.5,-0.6653,-0.7881,142.5,98.1,0.478
7.46,31804.7,34643.0,-0.7862,-0.8776,142.5,98.1,0.478
7.48,31796.0,34541.6,-0.8213,-1.127,142.5,98.1,0.478
7.5,31704.6,34462.7,-1.1897,-1.3211,142.5,98.1,0.478
7.52,31714.8,34418.6,-1.1485,-1.4295,142.5,98.1,0.478
7.54,31829.9,34603.5,-0.6845,-0.9748,142.5,98.1,0.478
7.56,31935.4,34935.6,-0.2592,-0.1583,142.5,98.1,0.478
7.58,32016.0,35148.8,0.0656,0.366,142.5,98.1,0.478
7.6,32228.1,35557.6,0.9205,1.3712,142.5,98.1,0.478
7.62,32303.6,35777.0,1.2249,1.9106,142.5,98.1,0.478
7.64,32315.6,35764.2,1.2732,1.8792,142.5,98.1,0.478
7.66,32196.5,35670.3,0.7935,1.6483,142.5,98.1,0.478
7.68,32221.5,35408.9,0.894,1.0056,142.5,98.1,0.478
7.7,32020.0,35219.8,0.0819,0.5405,142.5,98.1,0.478
7.72,31968.0,35094.9,-0.1279,0.2334,142.5,98.1,0.478
7.74,32029.0,35100.7,0.1179,0.2477,142.5,98.1,0.478
7.76,32068.0,35031.8,0.2751,0.0783,142.5,98.1,0.478
7.78,32049.2,34980.2,0.1994,-0.0487,142.5,98.1,0.478
7.8,31839.7,34838.0,-0.645,-0.3982,142.5,98.1,0.478
7.82,31820.4,34724.6,-0.7229,-0.677,142.5,98.1,0.478
7.84,31877.5,34736.7,-0.4928,-0.6474,142.5,98.1,0.478
7.86,31895.6,34620.6,-0.4197,-0.9329,142.5,98.1,0.478
7.88,31742.2,34637.2,-1.0381,-0.892,142.5,98.1,0.478
7.9,31814.7,34556.4,-0.746,-1.0907,142.5,98.1,0.478
7.92,31809.7,34520.9,-0.7658,-1.1779,142.5,98.1,0.478
7.94,31664.4,34522.0,-1.3517,-1.1753,142.5,98.1,0.478
7.96,31786.7,34594.4,-0.8587,-0.9973,142.5,98.1,0.478
7.98,31837.4,34852.9,-0.6544,-0.3616,142.5,98.1,0.478
8.0,32084.5,35174.2,0.3416,0.4285,142.5,98.1,0.478
8.02,32254.8,35616.0,1.0285,1.5147,142.5,98.1,0.478
8.04,32243.9,35713.3,0.9845,1.7541,142.5,98.1,0.478
8.06,32282.6,35825.5,1.1403,2.0299,142.5,98.1,0.478
8.08,32286.5,35701.3,1.1559,1.7247,142.5,98.1,0.478
8.1,32207.7,35354.2,0.8383,0.8712,142.5,98.1,0.478
8.12,32097.6,35247.2,0.3945,0.6079,142.5,98.1,0.478
8.14,32034.8,35134.7,0.1415,0.3313,142.5,98.1,0.478
8.16,32154.0,35124.7,0.6218,0.3066,142.5,98.1,0.478
8.18,32029.4,35076.9,0.1195,0.1892,142.5,98.1,0.478
8.2,31955.7,34906.5,-0.1774,-0.2297,142.5,98.1,0.478
8.22,31882.1,34924.8,-0.474,-0.1848,142.5,98.1,0.478
8.24,31888.3,34707.7,-0.449,-0.7186,142.5,98.1,0.478
8.26,31883.3,34663.9,-0.4694,-0.8263,142.5,98.1,0.478
8.28,31877.1,34658.6,-0.4941,-0.8394,142.5,98.1,0.478
8.3,31893.9,34605.7,-0.4266,-0.9695,142.5,98.1,0.478
8.32,31782.3,34538.9,-0.8764,-1.1338,142.5,98.1,0.478
8.34,31822.0,34564.3,-0.7163,-1.0713,142.5,98.1,0.478
8.36,31706.0,34434.1,-1.1841,-1.3916,142.5,98.1,0.478
8.38,31834.6,34508.7,-0.6656,-1.2081,142.5,98.1,0.478
8.4,31931.5,34777.8,-0.2751,-0.5462,142.5,98.1,0.478
8.42,32086.7,35207.4,0.3505,0.5102,142.5,98.1,0.478
8.44,32284.7,35547.2,1.1489,1.3456,142.5,98.1,0.478
8.46,32326.1,35637.8,1.3155,1.5685,142.5,98.1,0.478
8.48,32298.9,35785.4,1.2059,1.9315,142.5,98.1,0.478
8.5,32367.8,35673.2,1.4838,1.6555,142.5,98.1,0.478
8.52,32216.3,35457.7,0.8732,1.1256,142.5,98.1,0.478
8.54,32047.9,35213.6,0.194,0.5253,142.5,98.1,0.478
8.56,32057.4,35099.1,0.2325,0.2437,142.5,98.1,0.478
8.58,32092.8,34999.5,0.3753,-0.0012,142.5,98.1,0.478
8.6,32073.8,35078.5,0.2985,0.1932,142.5,98.1,0.478
8.62,31957.1,34944.4,-0.1719,-0.1367,142.5,98.1,0.478
8.64,31909.5,34838.4,-0.3639,-0.3973,142.5,98.1,0.478
8.66,31899.3,34744.9,-0.4049,-0.6271,142.5,98.1,0.478
8.68,31933.8,34614.7,-0.2658,-0.9474,142.5,98.1,0.478
8.7,31817.4,34673.5,-0.735,-0.8027,142.5,98.1,0.478
8.72,31884.4,34712.3,-0.4649,-0.7073,142.5,98.1,0.478
8.74,31924.2,34581.5,-0.3042,-1.0289,142.5,98.1,0.478
8.76,31771.0,34520.4,-0.9219,-1.1793,142.5,98.1,0.478
8.78,31709.3,34370.8,-1.1708,-1.5471,142.5,98.1,0.478
8.8,31849.5,34564.3,-0.6057,-1.0714,142.5,98.1,0.478
8.82,32007.9,34788.5,0.0331,-0.5199,142.5,98.1,0.478
8.84,32069.0,35086.0,0.2792,0.2115,142.5,98.1,0.478
8.86,32244.6,35484.6,0.987,1.1917,142.5,98.1,0.478
8.88,32268.6,35760.0,1.084,1.869,142.5,98.1,0.478
8.9,32322.6,35776.4,1.3018,1.9093,142.5,98.1,0.478
8.92,32275.3,35595.3,1.111,1.464,142.5,98.1,0.478
8.94,32216.1,35397.9,0.8722,0.9784,142.5,98.1,0.478
8.96,32080.6,35220.6,0.3259,0.5426,142.5,98.1,0.478
8.98,32063.7,35185.8,0.2581,0.457,142.5,98.1,0.478
9.0,32050.9,35138.8,0.2065,0.3413,142.5,98.1,0.478
9.02,32020.2,34952.1,0.0828,-0.1176,142.5,98.1,0.478
9.04,32063.6,34911.0,0.2574,-0.2188,142.5,98.1,0.478
9.06,31888.4,34793.9,-0.4489,-0.5067,142.5,98.1,0.478
9.08,31911.1,34802.9,-0.3572,-0.4846,142.5,98.1,0.478
9.1,31743.5,34653.7,-1.0328,-0.8515,142.5,98.1,0.478
9.12,31895.9,34519.8,-0.4184,-1.1808,142.5,98.1,0.478
9.14,31839.0,34579.4,-0.6479,-1.0342,142.5,98.1,0.478
9.16,31718.9,34654.8,-1.1322,-0.8487,142.5,98.1,0.478
9.18,31764.8,34471.2,-0.9471,-1.3002,142.5,98.1,0.478
9.2,31715.9,34437.7,-1.1442,-1.3825,142.5,98.1,0.478
9.22,31728.8,34476.6,-1.092,-1.287,142.5,98.1,0.478
9.24,31886.6,34858.7,-0.4559,-0.3474,142.5,98.1,0.478
9.26,32078.3,35221.6,0.3166,0.545,142.5,98.1,0.478
9.28,32068.2,35519.4,0.2762,1.2773,142.5,98.1,0.478
9.3,32290.9,35706.1,1.174,1.7363,142.5,98.1,0.478
9.32,32250.7,35690.6,1.0118,1.6984,142.5,98.1,0.478
9.34,32361.2,35631.3,1.4574,1.5526,142.5,98.1,0.478
9.36,32193.9,35335.4,0.7826,0.8247,142.5,98.1,0.478
9.38,32157.1,35224.6,0.6343,0.5524,142.5,98.1,0.478
9.4,32108.9,35094.9,0.4401,0.2334,142.5,98.1,0.478
9.42,32074.9,35050.6,0.3029,0.1245,142.5,98.1,0.478
9.44,31980.3,35120.7,-0.0784,0.2968,142.5,98.1,0.478
9.46,31996.1,34864.5,-0.0145,-0.3331,142.5,98.1,0.478
9.48,31903.2,34847.9,-0.3893,-0.374,142.5,98.1,0.478
9.5,31766.8,34769.5,-0.939,-0.5667,142.5,98.1,0.478
9.52,31810.2,34639.5,-0.7639,-0.8864,142.5,98.1,0.478
9.54,31864.9,34672.6,-0.5435,-0.8049,142.5,98.1,0.478
9.56,31822.2,34684.1,-0.7157,-0.7767,142.5,98.1,0.478
9.58,31871.3,34509.2,-0.5176,-1.2068,142.5,98.1,0.478
9.6,31780.9,34563.9,-0.8821,-1.0723,142.5,98.1,0.478
9.62,31811.9,34431.7,-0.7572,-1.3972,142.5,98.1,0.478
9.64,31781.5,34506.6,-0.8797,-1.2133,142.5,98.1,0.478
9.66,31871.0,34744.4,-0.5188,-0.6285,142.5,98.1,0.478
9.68,31993.3,35132.2,-0.0259,0.3252,142.5,98.1,0.478
9.7,32182.6,35444.9,0.7372,1.0942,142.5,98.1,0.478
9.72,32272.9,35722.7,1.1012,1.7771,142.5,98.1,0.478
9.74,32247.0,35780.1,0.9968,1.9184,142.5,98.1,0.478
9.76,32256.9,35578.2,1.0366,1.4219,142.5,98.1,0.478
9.78,32205.6,35389.3,0.8298,0.9574,142.5,98.1,0.478
9.8,32158.8,35205.0,0.6415,0.5043,142.5,98.1,0.478
9.82,31997.6,35125.1,-0.0087,0.3077,142.5,98.1,0.478
9.84,32009.4,35087.5,0.0391,0.2153,142.5,98.1,0.478
9.86,31931.3,35050.6,-0.2759,0.1245,142.5,98.1,0.478
9.88,32004.5,34950.9,0.0193,-0.1205,142.5,98.1,0.478
9.9,31890.8,34861.2,-0.4389,-0.3412,142.5,98.1,0.478
9.92,31895.4,34742.9,-0.4204,-0.6321,142.5,98.1,0.478
9.94,31968.3,34785.5,-0.1268,-0.5274,142.5,98.1,0.478
9.96,31911.9,34690.5,-0.3541,-0.761,142.5,98.1,0.478
9.98,31865.5,34644.2,-0.5412,-0.8749,142.5,98.1,0.478
10.0,31912.4,34592.3,-0.3519,-1.0025,142.5,98.1,0.478
10.02,31759.6,34534.2,-0.9678,-1.1452,142.5,98.1,0.478
10.04,31819.2,34411.0,-0.7278,-1.4481,142.5,98.1,0.478
10.06,31828.8,34478.2,-0.6891,-1.2831,142.5,98.1,0.478
10.08,31877.0,34732.5,-0.4948,-0.6577,142.5,98.1,0.478
10.1,32034.8,35131.8,0.1416,0.3242,142.5,98.1,0.478
10.12,32139.6,35411.2,0.5637,1.0113,142.5,98.1,0.478
10.14,32287.5,35726.1,1.1601,1.7855,142.5,98.1,0.478
10.16,32385.3,35719.3,1.5544,1.769,142.5,98.1,0.478
10.18,32367.3,35679.1,1.482,1.67,142.5,98.1,0.478
10.2,32240.9,35408.5,0.9722,1.0047,142.5,98.1,0.478
10.22,32058.1,35298.9,0.2353,0.7351,142.5,98.1,0.478
10.24,32135.4,35133.9,0.5471,0.3293,142.5,98.1,0.478
10.26,32056.4,35070.3,0.2284,0.1729,142.5,98.1,0.478
10.28,32015.3,35066.0,0.0629,0.1624,142.5,98.1,0.478
10.3,31942.8,34894.3,-0.2294,-0.2599,142.5,98.1,0.478
10.32,31989.2,34751.2,-0.0425,-0.6118,142.5,98.1,0.478
10.34,31852.2,34772.7,-0.5946,-0.5588,142.5,98.1,0.478
10.36,31945.8,34682.7,-0.2172,-0.7801,142.5,98.1,0.478
10.38,31949.8,34655.7,-0.2011,-0.8465,142.5,98.1,0.478
10.4,31826.0,34585.6,-0.7002,-1.019,142.5,98.1,0.478
10.42,31843.9,34563.0,-0.6283,-1.0745,142.5,98.1,0.478
10.44,31644.0,34501.5,-1.434,-1.2257,142.5,98.1,0.478
10.46,31773.8,34374.6,-0.9105,-1.5378,142.5,98.1,0.478
10.48,31812.9,34503.8,-0.7529,-1.22,142.5,98.1,0.478
10.5,31990.4,34747.4,-0.0377,-0.621,142.5,98.1,0.478
10.52,31997.0,35087.1,-0.0109,0.2143,142.5,98.1,0.478
10.54,32186.8,35466.9,0.754,1.1482,142.5,98.1,0.478
10.56,32377.2,35689.6,1.5217,1.6959,142.5,98.1,0.478
10.58,32331.1,35707.0,1.3358,1.7387,142.5,98.1,0.478
10.6,32225.7,35706.4,0.9111,1.737,142.5,98.1,0.478
10.62,32154.8,35454.7,0.6254,1.1182,142.5,98.1,0.478
10.64,32010.1,35184.1,0.0418,0.4527,142.5,98.1,0.478
10.66,32146.9,35286.1,0.5933,0.7036,142.5,98.1,0.478
10.68,32027.6,35091.9,0.1123,0.2261,142.5,98.1,0.478
10.7,31915.8,35013.1,-0.3381,0.0324,142.5,98.1,0.478
10.72,32017.2,35024.8,0.0703,0.0611,142.5,98.1,0.478
10.74,31958.0,34800.7,-0.168,-0.4901,142.5,98.1,0.478
10.76,31898.7,34691.3,-0.4072,-0.759,142.5,98.1,0.478
10.78,31843.4,34670.6,-0.63,-0.8099,142.5,98.1,0.478
10.8,31921.3,34553.4,-0.3163,-1.0981,142.5,98.1,0.478
10.82,31865.4,34691.5,-0.5416,-0.7584,142.5,98.1,0.478
10.84,31863.8,34546.4,-0.5477,-1.1152,142.5,98.1,0.478
10.86,31818.3,34461.3,-0.7312,-1.3245,142.5,98.1,0.478
10.88,31755.3,34513.6,-0.9852,-1.1959,142.5,98.1,0.478
10.9,31763.2,34462.2,-0.9534,-1.3225,142.5,98.1,0.478
10.92,31813.0,34817.0,-0.7527,-0.4498,142.5,98.1,0.478
10.94,31962.0,35103.7,-0.1519,0.2551,142.5,98.1,0.478
10.96,32178.3,35496.0,0.7201,1.2199,142.5,98.1,0.478
10.98,32243.0,35658.4,0.9805,1.6191,142.5,98.1,0.478
11.0,32389.8,35802.4,1.5727,1.9732,142.5,98.1,0.478
11.02,32179.1,35715.9,0.7232,1.7606,142.5,98.1,0.478
11.04,32169.4,35585.0,0.6838,1.4386,142.5,98.1,0.478
11.06,32139.8,35268.7,0.5647,0.6608,142.5,98.1,0.478
11.08,32056.6,35246.8,0.2292,0.607,142.5,98.1,0.478
11.1,32001.4,35159.3,0.0069,0.3918,142.5,98.1,0.478
11.12,32004.7,35113.0,0.0202,0.2781,142.5,98.1,0.478
11.14,31908.4,34926.0,-0.3682,-0.1819,142.5,98.1,0.478
11.16,31995.2,34869.5,-0.0183,-0.3207,142.5,98.1,0.478
11.18,31856.4,34747.2,-0.5777,-0.6215,142.5,98.1,0.478
11.2,31867.8,34589.1,-0.5317,-1.0102,142.5,98.1,0.478
11.22,31822.5,34636.3,-0.7142,-0.8941,142.5,98.1,0.478
11.24,31822.9,34707.4,-0.7129,-0.7195,142.5,98.1,0.478
11.26,31803.6,34660.7,-0.7904,-0.8342,142.5,98.1,0.478
11.28,31715.8,34537.1,-1.1445,-1.1382,142.5,98.1,0.478
11.3,31718.0,34459.9,-1.1358,-1.3279,142.5,98.1,0.478
11.32,31826.3,34416.0,-0.6991,-1.436,142.5,98.1,0.478
11.34,31843.0,34637.3,-0.6316,-0.8918,142.5,98.1,0.478
11.36,31939.3,35054.9,-0.2435,0.1351,142.5,98.1,0.478
11.38,32257.2,35415.6,1.0379,1.0221,142.5,98.1,0.478
11.4,32331.0,35730.9,1.3353,1.7973,142.5,98.1,0.478
11.42,32290.2,35718.9,1.1708,1.7678,142.5,98.1,0.478
11.44,32331.8,35715.8,1.3388,1.7603,142.5,98.1,0.478
11.46,32241.4,35445.1,0.9744,1.0945,142.5,98.1,0.478
11.48,32185.3,35258.8,0.7482,0.6365,142.5,98.1,0.478
11.5,32060.0,35120.0,0.2431,0.2951,142.5,98.1,0.478
11.52,32076.5,35059.8,0.3095,0.1472,142.5,98.1,0.478
11.54,32069.3,35021.3,0.2804,0.0525,142.5,98.1,0.478
11.56,31925.8,35047.5,-0.2981,0.117,142.5,98.1,0.478
11.58,31893.1,34852.8,-0.4298,-0.3618,142.5,98.1,0.478
11.6,31885.4,34701.4,-0.4607,-0.7342,142.5,98.1,0.478
11.62,31847.1,34747.6,-0.6152,-0.6205,142.5,98.1,0.478
11.64,31885.4,34618.1,-0.4608,-0.939,142.5,98.1,0.478
11.66,31934.1,34659.6,-0.2644,-0.837,142.5,98.1,0.478
11.68,31819.3,34586.0,-0.7273,-1.0179,142.5,98.1,0.478
11.7,31826.2,34502.7,-0.6994,-1.2227,142.5,98.1,0.478
11.72,31686.7,34410.4,-1.2617,-1.4497,142.5,98.1,0.478
11.74,31801.6,34515.5,-0.7985,-1.1913,142.5,98.1,0.478
11.76,31898.2,34659.3,-0.4091,-0.8378,142.5,98.1,0.478
11.78,32048.7,35120.3,0.1975,0.2959,142.5,98.1,0.478
11.8,32100.6,35373.1,0.4068,0.9176,142.5,98.1,0.478
11.82,32327.9,35601.6,1.3229,1.4794,142.5,98.1,0.478
11.84,32358.6,35777.7,1.4467,1.9126,142.5,98.1,0.478
11.86,32297.7,35666.5,1.2011,1.639,142.5,98.1,0.478
11.88,32153.5,35506.9,0.62,1.2466,142.5,98.1,0.478
11.9,32168.3,35305.1,0.6798,0.7504,142.5,98.1,0.478
11.92,32039.8,35117.4,0.1615,0.2887,142.5,98.1,0.478
11.94,32091.5,35107.3,0.3699,0.2639,142.5,98.1,0.478
11.96,32002.0,34970.4,0.0094,-0.0726,142.5,98.1,0.478
11.98,31987.5,35027.0,-0.0493,0.0665,142.5,98.1,0.478
12.0,31955.3,34917.4,-0.1789,-0.203,142.5,98.1,0.478
12.02,31883.6,34792.7,-0.4681,-0.5096,142.5,98.1,0.478
12.04,31961.9,34735.7,-0.1524,-0.6498,142.5,98.1,0.478
12.06,31852.1,34786.8,-0.5951,-0.5242,142.5,98.1,0.478
12.08,31853.4,34612.2,-0.5898,-0.9535,142.5,98.1,0.478
12.1,31734.1,34577.4,-1.0705,-1.0392,142.5,98.1,0.478
12.12,31853.4,34559.0,-0.59,-1.0844,142.5,98.1,0.478
12.14,31805.8,34522.3,-0.7816,-1.1746,142.5,98.1,0.478
12.16,31764.1,34471.5,-0.9497,-1.2995,142.5,98.1,0.478
12.18,31916.3,34753.8,-0.3362,-0.6054,142.5,98.1,0.478
12.2,32095.2,35044.6,0.385,0.1098,142.5,98.1,0.478
12.22,32244.7,35405.2,0.9875,0.9964,142.5,98.1,0.478
12.24,32275.5,35652.2,1.1116,1.6039,142.5,98.1,0.478
12.26,32416.7,35810.1,1.6809,1.992,142.5,98.1,0.478
12.28,32318.7,35708.1,1.2857,1.7413,142.5,98.1,0.478
12.3,32131.1,35412.3,0.5296,1.0139,142.5,98.1,0.478
12.32,32082.1,35274.7,0.3319,0.6755,142.5,98.1,0.478
12.34,32066.5,35235.2,0.2691,0.5784,142.5,98.1,0.478
12.36,32078.1,35108.2,0.316,0.2663,142.5,98.1,0.478
12.38,31985.1,35109.0,-0.0588,0.268,142.5,98.1,0.478
12.4,32015.2,34946.8,0.0624,-0.1308,142.5,98.1,0.478
12.42,31942.6,34906.7,-0.2301,-0.2294,142.5,98.1,0.478
12.44,31912.3,34824.0,-0.3524,-0.4326,142.5,98.1,0.478
12.46,31831.1,34632.1,-0.6796,-0.9047,142.5,98.1,0.478
12.48,31740.4,34587.6,-1.0454,-1.0141,142.5,98.1,0.478
12.5,31915.1,34631.6,-0.3409,-0.9057,142.5,98.1,0.478
12.52,31820.6,34671.7,-0.7219,-0.8071,142.5,98.1,0.478
12.54,31816.7,34545.0,-0.7379,-1.1187,142.5,98.1,0.478
12.56,31804.0,34534.1,-0.7891,-1.1456,142.5,98.1,0.478
12.58,31751.4,34518.1,-1.001,-1.1848,142.5,98.1,0.478
12.6,31809.6,34613.7,-0.7664,-0.9499,142.5,98.1,0.478
12.62,32057.6,34998.8,0.2335,-0.0027,142.5,98.1,0.478
12.64,32156.9,35371.3,0.6338,0.9132,142.5,98.1,0.478
12.66,32253.8,35657.5,1.0242,1.617,142.5,98.1,0.478
12.68,32320.2,35660.9,1.2919,1.6253,142.5,98.1,0.478
12.7,32327.2,35706.8,1.3203,1.7381,142.5,98.1,0.478
12.72,32117.1,35485.4,0.4731,1.1937,142.5,98.1,0.478
12.74,32104.8,35367.7,0.4237,0.9044,142.5,98.1,0.478
12.76,32040.9,35154.7,0.1662,0.3805,142.5,98.1,0.478
12.78,32013.5,35130.3,0.0555,0.3205,142.5,98.1,0.478
12.8,31959.3,35142.7,-0.163,0.351,142.5,98.1,0.478
12.82,32058.1,34917.0,0.2352,-0.204,142.5,98.1,0.478
12.84,31876.1,34910.1,-0.4982,-0.2209,142.5,98.1,0.478
12.86,31926.6,34823.4,-0.2948,-0.4341,142.5,98.1,0.478
12.88,31877.4,34646.3,-0.4931,-0.8695,142.5,98.1,0.478
12.9,31865.2,34789.2,-0.5423,-0.5181,142.5,98.1,0.478
12.92,31897.8,34692.1,-0.4108,-0.757,142.5,98.1,0.478
12.94,31868.7,34678.8,-0.5283,-0.7898,142.5,98.1,0.478
12.96,31817.9,34582.3,-0.7329,-1.0269,142.5,98.1,0.478
12.98,31703.6,34485.4,-1.1935,-1.2653,142.5,98.1,0.478
13.0,31697.0,34575.0,-1.2203,-1.045,142.5,98.1,0.478
13.02,31936.5,34735.3,-0.2547,-0.6507,142.5,98.1,0.478
13.04,31935.6,34976.3,-0.2585,-0.058,142.5,98.1,0.478
13.06,32105.5,35450.6,0.4263,1.1081,142.5,98.1,0.478
13.08,32293.5,35594.7,1.1843,1.4624,142.5,98.1,0.478
13.1,32358.6,35889.0,1.4468,2.1862,142.5,98.1,0.478
13.12,32297.3,35784.3,1.1998,1.9287,142.5,98.1,0.478
13.14,32223.0,35594.9,0.9002,1.4629,142.5,98.1,0.478
13.16,32170.9,35271.5,0.6902,0.6677,142.5,98.1,0.478
13.18,32036.2,35210.0,0.1473,0.5166,142.5,98.1,0.478
13.2,32109.9,35123.1,0.4441,0.3028,142.5,98.1,0.478
13.22,31956.8,34997.3,-0.1728,-0.0064,142.5,98.1,0.478
13.24,32003.6,34922.1,0.0156,-0.1914,142.5,98.1,0.478
13.26,31926.5,34939.6,-0.2953,-0.1484,142.5,98.1,0.478
13.28,31928.6,34677.9,-0.2868,-0.7919,142.5,98.1,0.478
13.3,31863.8,34779.9,-0.5479,-0.5411,142.5,98.1,0.478
13.32,31849.7,34696.6,-0.6048,-0.7458,142.5,98.1,0.478
13.34,31785.2,34664.1,-0.8647,-0.8258,142.5,98.1,0.478
13.36,31843.2,34592.5,-0.6311,-1.002,142.5,98.1,0.478
13.38,31867.3,34565.3,-0.5339,-1.0689,142.5,98.1,0.478
13.4,31668.4,34351.2,-1.3357,-1.5953,142.5,98.1,0.478
13.42,31779.4,34546.3,-0.8881,-1.1155,142.5,98.1,0.478
13.44,31817.1,34589.1,-0.7362,-1.0102,142.5,98.1,0.478
13.46,32001.0,34936.4,0.0052,-0.1562,142.5,98.1,0.478
13.48,32179.9,35287.9,0.7265,0.7082,142.5,98.1,0.478
13.5,32295.3,35630.3,1.1916,1.55,142.5,98.1,0.478
13.52,32350.2,35703.5,1.413,1.7299,142.5,98.1,0.478
13.54,32372.0,35708.5,1.5007,1.7424,142.5,98.1,0.478
13.56,32225.4,35644.4,0.9099,1.5846,142.5,98.1,0.478
13.58,32132.7,35337.1,0.5363,0.8292,142.5,98.1,0.478
13.6,32024.2,35233.1,0.0988,0.5732,142.5,98.1,0.478
13.62,32090.6,35078.2,0.3662,0.1924,142.5,98.1,0.478
13.64,31986.5,35036.7,-0.0533,0.0904,142.5,98.1,0.478
13.66,32056.0,34942.2,0.2268,-0.142,142.5,98.1,0.478
13.68,31905.7,34894.0,-0.3792,-0.2606,142.5,98.1,0.478
13.7,31858.9,34713.9,-0.5677,-0.7035,142.5,98.1,0.478
13.72,31913.8,34620.3,-0.3465,-0.9335,142.5,98.1,0.478
13.74,31885.3,34639.8,-0.4612,-0.8857,142.5,98.1,0.478
13.76,31878.6,34603.4,-0.4881,-0.9752,142.5,98.1,0.478
13.78,31799.4,34612.5,-0.8077,-0.9527,142.5,98.1,0.478
13.8,31789.3,34487.1,-0.8481,-1.2612,142.5,98.1,0.478
13.82,31810.9,34451.3,-0.761,-1.3491,142.5,98.1,0.478
13.84,31821.1,34529.3,-0.7199,-1.1574,142.5,98.1,0.478
13.86,31858.6,34732.6,-0.569,-0.6575,142.5,98.1,0.478
13.88,31988.5,34882.1,-0.0453,-0.2897,142.5,98.1,0.478
13.9,32165.0,35324.3,0.6664,0.7977,142.5,98.1,0.478
13.92,32284.4,35556.9,1.1477,1.3694,142.5,98.1,0.478
13.94,32406.9,35827.3,1.6413,2.0344,142.5,98.1,0.478
13.96,32315.5,35707.7,1.2732,1.7404,142.5,98.1,0.478
13.98,32244.2,35561.0,0.9856,1.3795,142.5,98.1,0.478
14.0,32106.0,35430.1,0.4286,1.0576,142.5,98.1,0.478
14.02,32200.0,35197.8,0.8073,0.4866,142.5,98.1,0.478
14.04,32196.2,35102.1,0.7922,0.2513,142.5,98.1,0.478
14.06,31966.8,35150.9,-0.1325,0.3712,142.5,98.1,0.478
14.08,32009.9,35030.4,0.0411,0.0748,142.5,98.1,0.478
14.1,31980.4,34891.0,-0.078,-0.2679,142.5,98.1,0.478
14.12,31957.8,34767.2,-0.169,-0.5724,142.5,98.1,0.478
14.14,31853.4,34678.6,-0.5898,-0.7903,142.5,98.1,0.478
14.16,31834.5,34687.7,-0.6661,-0.7677,142.5,98.1,0.478
14.18,31888.9,34665.2,-0.4467,-0.8233,142.5,98.1,0.478
14.2,31868.0,34589.5,-0.5312,-1.0094,142.5,98.1,0.478
14.22,31718.7,34624.2,-1.1327,-0.924,142.5,98.1,0.478
14.24,31753.3,34523.8,-0.9934,-1.1709,142.5,98.1,0.478
14.26,31656.4,34453.1,-1.3838,-1.3447,142.5,98.1,0.478
14.28,31810.0,34615.6,-0.7648,-0.9452,142.5,98.1,0.478
14.3,32073.7,34962.4,0.2983,-0.0925,142.5,98.1,0.478
14.32,32073.7,35283.2,0.2984,0.6964,142.5,98.1,0.478
14.34,32267.6,35590.2,1.0797,1.4515,142.5,98.1,0.478
14.36,32290.7,35788.6,1.1732,1.9393,142.5,98.1,0.478
14.38,32313.7,35671.9,1.2657,1.6522,142.5,98.1,0.478
14.4,32357.2,35596.1,1.4411,1.4659,142.5,98.1,0.478
14.42,32124.4,35366.3,0.5027,0.9008,142.5,98.1,0.478
14.44,32127.6,35267.7,0.5155,0.6583,142.5,98.1,0.478
14.46,32120.8,35153.2,0.488,0.3768,142.5,98.1,0.478
14.48,32038.4,35071.9,0.156,0.1768,142.5,98.1,0.478
14.5,31960.7,35013.4,-0.1572,0.0331,142.5,98.1,0.478
14.52,31994.6,34868.7,-0.0208,-0.3227,142.5,98.1,0.478
14.54,31891.8,34803.7,-0.435,-0.4825,142.5,98.1,0.478
14.56,31927.3,34678.6,-0.2917,-0.7902,142.5,98.1,0.478
14.58,31889.2,34710.7,-0.4453,-0.7113,142.5,98.1,0.478
14.6,31876.9,34683.4,-0.4951,-0.7785,142.5,98.1,0.478
14.62,31841.1,34658.4,-0.6393,-0.8399,142.5,98.1,0.478
14.64,31838.6,34514.2,-0.6495,-1.1945,142.5,98.1,0.478
14.66,31769.5,34404.0,-0.9279,-1.4656,142.5,98.1,0.478
14.68,31744.9,34500.9,-1.0271,-1.2273,142.5,98.1,0.478
14.7,31834.4,34641.9,-0.6664,-0.8803,142.5,98.1,0.478
14.72,31935.0,34868.1,-0.2607,-0.3242,142.5,98.1,0.478
14.74,32154.3,35322.0,0.6232,0.7918,142.5,98.1,0.478
14.76,32220.9,35611.5,0.8918,1.5038,142.5,98.1,0.478
14.78,32358.9,35865.0,1.4477,2.1272,142.5,98.1,0.478
14.8,32385.0,35654.7,1.5533,1.6101,142.5,98.1,0.478
14.82,32271.2,35625.8,1.0946,1.539,142.5,98.1,0.478
14.84,32064.0,35361.2,0.2593,0.8884,142.5,98.1,0.478
14.86,32075.6,35308.8,0.3061,0.7593,142.5,98.1,0.478
14.88,32022.0,35141.5,0.0899,0.3481,142.5,98.1,0.478
14.9,31953.9,35078.4,-0.1846,0.1929,142.5,98.1,0.478
14.92,31989.1,35032.4,-0.0427,0.0797,142.5,98.1,0.478
14.94,32035.3,34978.0,0.1436,-0.0541,142.5,98.1,0.478
14.96,31853.1,34807.2,-0.5911,-0.4739,142.5,98.1,0.478
14.98,31860.4,34661.8,-0.5614,-0.8315,142.5,98.1,0.478
15.0,31827.2,34681.4,-0.6956,-0.7834,142.5,98.1,0.478
15.02,31835.9,34691.8,-0.6605,-0.7577,142.5,98.1,0.478
15.04,31794.9,34706.2,-0.8256,-0.7224,142.5,98.1,0.478
15.06,31836.7,34526.8,-0.6571,-1.1636,142.5,98.1,0.478
15.08,31806.3,34497.5,-0.7796,-1.2355,142.5,98.1,0.478
15.1,31783.6,34440.5,-0.8712,-1.3757,142.5,98.1,0.478
15.12,31826.8,34573.9,-0.6971,-1.0477,142.5,98.1,0.478
15.14,32026.6,34821.7,0.1084,-0.4383,142.5,98.1,0.478
15.16,32060.8,35195.4,0.2464,0.4806,142.5,98.1,0.478
15.18,32308.5,35539.4,1.2447,1.3264,142.5,98.1,0.478
15.2,32367.5,35657.2,1.4828,1.6161,142.5,98.1,0.478
15.22,32292.6,35764.9,1.1808,1.8809,142.5,98.1,0.478
15.24,32189.9,35525.4,0.7666,1.2922,142.5,98.1,0.478
15.26,32169.5,35422.4,0.6845,1.0388,142.5,98.1,0.478
15.28,32058.6,35059.1,0.2374,0.1455,142.5,98.1,0.478
15.3,32057.5,35135.1,0.2328,0.3324,142.5,98.1,0.478
15.32,31981.4,35118.8,-0.0736,0.2922,142.5,98.1,0.478
15.34,32066.7,35007.0,0.2701,0.0174,142.5,98.1,0.478
15.36,31935.8,34970.6,-0.2577,-0.0722,142.5,98.1,0.478
15.38,31882.1,34808.8,-0.474,-0.4702,142.5,98.1,0.478
15.4,31922.4,34716.2,-0.3115,-0.6979,142.5,98.1,0.478
15.42,31815.2,34748.8,-0.7436,-0.6176,142.5,98.1,0.478
15.44,31749.1,34591.7,-1.0104,-1.004,142.5,98.1,0.478
15.46,31859.8,34547.2,-0.5639,-1.1133,142.5,98.1,0.478
15.48,31789.0,34539.7,-0.8495,-1.1317,142.5,98.1,0.478
15.5,31766.4,34490.1,-0.9407,-1.2538,142.5,98.1,0.478
15.52,31812.5,34406.8,-0.7547,-1.4585,142.5,98.1,0.478
15.54,31843.2,34617.5,-0.6311,-0.9405,142.5,98.1,0.478
15.56,31872.1,34842.5,-0.5143,-0.3873,142.5,98.1,0.478
15.58,32034.3,35316.9,0.1394,0.7793,142.5,98.1,0.478
15.6,32227.9,35505.9,0.9198,1.2442,142.5,98.1,0.478
15.62,32380.1,35767.0,1.5336,1.8861,142.5,98.1,0.478
15.64,32299.5,35775.3,1.2083,1.9066,142.5,98.1,0.478
15.66,32275.7,35584.7,1.1125,1.438,142.5,98.1,0.478
15.68,32265.6,35366.4,1.0717,0.901,142.5,98.1,0.478
15.7,32018.9,35287.4,0.0773,0.7069,142.5,98.1,0.478
15.72,31962.3,35113.6,-0.1508,0.2794,142.5,98.1,0.478
15.74,32004.8,35073.2,0.0207,0.1801,142.5,98.1,0.478
15.76,32068.1,35004.6,0.2758,0.0115,142.5,98.1,0.478
15.78,32038.4,34925.5,0.1561,-0.1831,142.5,98.1,0.478
15.8,31856.3,34794.4,-0.5783,-0.5054,142.5,98.1,0.478
15.82,31799.2,34747.1,-0.8083,-0.6218,142.5,98.1,0.478
15.84,31850.0,34697.1,-0.6036,-0.7448,142.5,98.1,0.478
15.86,31851.0,34651.2,-0.5997,-0.8577,142.5,98.1,0.478
15.88,31809.1,34572.3,-0.7682,-1.0515,142.5,98.1,0.478
15.9,31694.5,34534.4,-1.2304,-1.1447,142.5,98.1,0.478
15.92,31707.2,34556.3,-1.1791,-1.0909,142.5,98.1,0.478
15.94,31734.2,34439.7,-1.0702,-1.3777,142.5,98.1,0.478
15.96,31868.2,34638.1,-0.5302,-0.8898,142.5,98.1,0.478
15.98,31815.5,34806.0,-0.7426,-0.477,142.5,98.1,0.478
16.0,32107.4,35104.2,0.434,0.2563,142.5,98.1,0.478
16.02,32223.0,35580.3,0.9003,1.4271,142.5,98.1,0.478
16.04,32345.2,35754.5,1.3929,1.8555,142.5,98.1,0.478
16.06,32374.1,35668.1,1.509,1.6428,142.5,98.1,0.478
16.08,32246.4,35636.7,0.9946,1.5657,142.5,98.1,0.478
16.1,32234.7,35552.2,0.9473,1.358,142.5,98.1,0.478
16.12,32151.3,35206.3,0.6112,0.5075,142.5,98.1,0.478
16.14,32099.4,35084.8,0.4017,0.2086,142.5,98.1,0.478
16.16,31938.6,35097.7,-0.2465,0.2403,142.5,98.1,0.478
16.18,31987.8,34959.3,-0.048,-0.1,142.5,98.1,0.478
16.2,31920.8,34871.5,-0.3182,-0.3159,142.5,98.1,0.478
16.22,31911.6,34881.4,-0.3554,-0.2915,142.5,98.1,0.478
16.24,31862.7,34730.8,-0.5522,-0.6619,142.5,98.1,0.478
16.26,31820.5,34694.2,-0.7224,-0.7517,142.5,98.1,0.478
16.28,31897.2,34723.8,-0.4131,-0.6792,142.5,98.1,0.478
16.3,31865.9,34597.2,-0.5396,-0.9904,142.5,98.1,0.478
16.32,31816.4,34480.9,-0.7389,-1.2763,142.5,98.1,0.478
16.34,31728.0,34589.0,-1.0952,-1.0105,142.5,98.1,0.478
16.36,31807.9,34370.5,-0.7732,-1.5477,142.5,98.1,0.478
16.38,31840.8,34502.0,-0.6404,-1.2245,142.5,98.1,0.478
16.4,31912.1,34804.1,-0.3533,-0.4817,142.5,98.1,0.478
16.42,32047.0,35299.4,0.1905,0.7363,142.5,98.1,0.478
16.44,32260.7,35473.2,1.052,1.1637,142.5,98.1,0.478
16.46,32355.4,35778.7,1.4337,1.915,142.5,98.1,0.478
16.48,32273.1,35693.5,1.1019,1.7054,142.5,98.1,0.478
16.5,32305.3,35654.3,1.2318,1.6089,142.5,98.1,0.478
16.52,32118.1,35341.8,0.4773,0.8406,142.5,98.1,0.478
16.54,32105.7,35296.6,0.4273,0.7295,142.5,98.1,0.478
16.56,32148.8,35099.8,0.6008,0.2455,142.5,98.1,0.478
16.58,32152.0,35069.0,0.6137,0.1697,142.5,98.1,0.478
16.6,31998.6,34971.8,-0.0045,-0.0691,142.5,98.1,0.478
16.62,32043.9,34912.9,0.178,-0.2141,142.5,98.1,0.478
16.64,31876.3,34757.3,-0.4976,-0.5968,142.5,98.1,0.478
16.66,31961.9,34793.8,-0.1523,-0.507,142.5,98.1,0.478
16.68,31830.8,34671.0,-0.681,-0.809,142.5,98.1,0.478
16.7,31895.8,34681.2,-0.4189,-0.7838,142.5,98.1,0.478
16.72,31768.9,34598.7,-0.9304,-0.9868,142.5,98.1,0.478
16.74,31905.2,34435.1,-0.3808,-1.389,142.5,98.1,0.478
16.76,31690.2,34530.9,-1.2475,-1.1533,142.5,98.1,0.478
16.78,31700.6,34386.0,-1.2058,-1.5097,142.5,98.1,0.478
16.8,31789.3,34610.1,-0.8482,-0.9586,142.5,98.1,0.478
16.82,31856.9,34701.3,-0.5757,-0.7343,142.5,98.1,0.478
16.84,32169.1,35188.0,0.6829,0.4625,142.5,98.1,0.478
16.86,32256.5,35541.8,1.035,1.3323,142.5,98.1,0.478
16.88,32327.7,35686.1,1.3222,1.6872,142.5,98.1,0.478
16.9,32370.5,35686.0,1.4947,1.687,142.5,98.1,0.478
16.92,32249.9,35658.3,1.0086,1.6188,142.5,98.1,0.478
16.94,32184.9,35358.2,0.7465,0.8808,142.5,98.1,0.478
16.96,32068.8,35254.8,0.2786,0.6267,142.5,98.1,0.478
16.98,32046.3,35155.5,0.1877,0.3825,142.5,98.1,0.478
17.0,31985.0,35073.9,-0.0595,0.1819,142.5,98.1,0.478
17.02,32015.6,34964.6,0.0641,-0.087,142.5,98.1,0.478
17.04,31983.2,34876.8,-0.0665,-0.3027,142.5,98.1,0.478
17.06,31895.3,34822.2,-0.421,-0.4371,142.5,98.1,0.478
17.08,31921.8,34775.7,-0.3142,-0.5515,142.5,98.1,0.478
17.1,31816.0,34715.5,-0.7406,-0.6995,142.5,98.1,0.478
17.12,31840.4,34706.0,-0.6424,-0.7229,142.5,98.1,0.478
17.14,31851.6,34632.7,-0.5972,-0.903,142.5,98.1,0.478
17.16,31777.8,34587.2,-0.8944,-1.0149,142.5,98.1,0.478
17.18,31789.7,34451.8,-0.8466,-1.348,142.5,98.1,0.478
17.2,31750.2,34389.4,-1.0059,-1.5014,142.5,98.1,0.478
17.22,31803.7,34471.3,-0.79,-1.2999,142.5,98.1,0.478
17.24,31875.0,34851.6,-0.5026,-0.3648,142.5,98.1,0.478
17.26,32099.5,35182.6,0.4022,0.4492,142.5,98.1,0.478
17.28,32365.6,35486.9,1.4752,1.1974,142.5,98.1,0.478
17.3,32328.2,35650.0,1.3242,1.5984,142.5,98.1,0.478
17.32,32361.0,35611.7,1.4566,1.5042,142.5,98.1,0.478
17.34,32329.0,35614.6,1.3276,1.5113,142.5,98.1,0.478
17.36,32247.9,35425.1,1.0007,1.0453,142.5,98.1,0.478
17.38,32092.4,35238.2,0.3737,0.5858,142.5,98.1,0.478
17.4,32102.5,35140.4,0.4144,0.3454,142.5,98.1,0.478
17.42,32154.8,34982.0,0.6252,-0.0441,142.5,98.1,0.478
17.44,31995.6,34953.9,-0.0167,-0.1133,142.5,98.1,0.478
17.46,31960.8,34875.7,-0.1567,-0.3057,142.5,98.1,0.478
17.48,31849.1,34832.5,-0.6073,-0.4117,142.5,98.1,0.478
17.5,31851.1,34758.2,-0.5991,-0.5946,142.5,98.1,0.478
17.52,31847.2,34650.4,-0.6147,-0.8595,142.5,98.1,0.478
17.54,31861.9,34595.4,-0.5556,-0.9949,142.5,98.1,0.478
17.56,31770.4,34681.8,-0.9243,-0.7822,142.5,98.1,0.478
17.58,31877.8,34531.6,-0.4914,-1.1518,142.5,98.1,0.478
17.6,31733.3,34507.2,-1.0738,-1.2116,142.5,98.1,0.478
17.62,31733.0,34415.3,-1.0751,-1.4376,142.5,98.1,0.478
17.64,31831.3,34690.2,-0.6788,-0.7617,142.5,98.1,0.478
17.66,31937.5,34816.6,-0.2509,-0.4508,142.5,98.1,0.478
17.68,31998.2,35194.1,-0.0061,0.4775,142.5,98.1,0.478
17.7,32223.2,35484.1,0.9008,1.1905,142.5,98.1,0.478
17.72,32305.4,35677.5,1.2324,1.6661,142.5,98.1,0.478
17.74,32344.3,35776.7,1.389,1.9101,142.5,98.1,0.478
17.76,32206.9,35616.1,0.8353,1.515,142.5,98.1,0.478
17.78,32130.4,35382.8,0.5269,0.9413,142.5,98.1,0.478
17.8,32026.3,35274.1,0.107,0.6741,142.5,98.1,0.478
17.82,32120.6,35108.7,0.4875,0.2674,142.5,98.1,0.478
17.84,31951.4,35104.0,-0.1947,0.2558,142.5,98.1,0.478
17.86,32064.6,34997.1,0.2617,-0.007,142.5,98.1,0.478
17.88,32089.0,34891.2,0.3599,-0.2675,142.5,98.1,0.478
17.9,31869.6,34853.7,-0.5245,-0.3597,142.5,98.1,0.478
17.92,31857.6,34726.2,-0.5731,-0.6731,142.5,98.1,0.478
17.94,31897.6,34607.9,-0.4115,-0.9642,142.5,98.1,0.478
17.96,31861.6,34637.4,-0.5568,-0.8915,142.5,98.1,0.478
17.98,31806.1,34668.7,-0.7807,-0.8147,142.5,98.1,0.478
18.0,31757.5,34644.8,-0.9764,-0.8734,142.5,98.1,0.478
18.02,31722.8,34620.1,-1.1165,-0.9341,142.5,98.1,0.478
18.04,31709.2,34473.5,-1.1709,-1.2946,142.5,98.1,0.478
18.06,31750.9,34432.2,-1.0031,-1.3961,142.5,98.1,0.478
18.08,31828.6,34772.6,-0.6899,-0.559,142.5,98.1,0.478
18.1,32073.1,35122.9,0.296,0.3024,142.5,98.1,0.478
18.12,32179.8,35505.0,0.726,1.2419,142.5,98.1,0.478
18.14,32361.4,35751.8,1.458,1.8487,142.5,98.1,0.478
18.16,32296.9,35770.4,1.1978,1.8946,142.5,98.1,0.478
18.18,32167.5,35705.2,0.6765,1.7342,142.5,98.1,0.478
18.2,32165.5,35433.7,0.6683,1.0666,142.5,98.1,0.478
18.22,32079.0,35310.0,0.3197,0.7624,142.5,98.1,0.478
18.24,31983.8,35041.4,-0.0641,0.1019,142.5,98.1,0.478
18.26,31994.2,35039.2,-0.0221,0.0965,142.5,98.1,0.478
18.28,31920.7,35016.5,-0.3185,0.0408,142.5,98.1,0.478
18.3,32032.5,34891.0,0.132,-0.268,142.5,98.1,0.478
18.32,31909.6,34983.3,-0.3634,-0.0409,142.5,98.1,0.478
18.34,31913.3,34781.2,-0.3483,-0.5379,142.5,98.1,0.478
18.36,31886.2,34674.3,-0.4576,-0.8007,142.5,98.1,0.478
18.38,31901.2,34663.3,-0.3972,-0.8278,142.5,98.1,0.478
18.4,31895.0,34557.3,-0.422,-1.0885,142.5,98.1,0.478
18.42,31851.1,34529.1,-0.5992,-1.1578,142.5,98.1,0.478
18.44,31804.5,34440.7,-0.7869,-1.3752,142.5,98.1,0.478
18.46,31775.6,34475.7,-0.9035,-1.2892,142.5,98.1,0.478
18.48,31778.4,34416.0,-0.8923,-1.4359,142.5,98.1,0.478
18.5,31850.6,34709.5,-0.601,-0.7142,142.5,98.1,0.478
18.52,32074.8,35084.4,0.3028,0.2076,142.5,98.1,0.478
18.54,32152.6,35471.9,0.6165,1.1604,142.5,98.1,0.478
18.56,32342.2,35718.4,1.3805,1.7666,142.5,98.1,0.478
18.58,32352.0,35804.0,1.4202,1.9771,142.5,98.1,0.478
18.6,32221.1,35616.0,0.8925,1.5149,142.5,98.1,0.478
18.62,32182.4,35418.4,0.7364,1.0289,142.5,98.1,0.478
18.64,32154.1,35223.8,0.6222,0.5505,142.5,98.1,0.478
18.66,31972.2,35124.6,-0.1109,0.3064,142.5,98.1,0.478
18.68,32042.0,35100.9,0.1704,0.2483,142.5,98.1,0.478
18.7,32059.5,34974.2,0.241,-0.0633,142.5,98.1,0.478
18.72,31967.6,34921.0,-0.1293,-0.1941,142.5,98.1,0.478
18.74,31925.4,34863.1,-0.2995,-0.3366,142.5,98.1,0.478
18.76,31986.1,34771.2,-0.0547,-0.5626,142.5,98.1,0.478
18.78,31890.7,34645.3,-0.4394,-0.872,142.5,98.1,0.478
18.8,31757.8,34692.7,-0.9751,-0.7554,142.5,98.1,0.478
18.82,31869.9,34669.9,-0.5232,-0.8115,142.5,98.1,0.478
18.84,31916.0,34564.7,-0.3374,-1.0703,142.5,98.1,0.478
18.86,31783.4,34405.6,-0.872,-1.4616,142.5,98.1,0.478
18.88,31811.1,34555.7,-0.7602,-1.0925,142.5,98.1,0.478
18.9,31747.0,34587.4,-1.0186,-1.0145,142.5,98.1,0.478
18.92,31883.7,34780.8,-0.4676,-0.5388,142.5,98.1,0.478
18.94,31916.8,35024.6,-0.3342,0.0605,142.5,98.1,0.478
18.96,32177.3,35521.6,0.7157,1.2828,142.5,98.1,0.478
18.98,32235.6,35648.2,0.951,1.5941,142.5,98.1,0.478
19.0,32308.5,35731.0,1.2449,1.7977,142.5,98.1,0.478
19.02,32291.3,35627.1,1.1753,1.5422,142.5,98.1,0.478
19.04,32181.8,35329.2,0.7338,0.8096,142.5,98.1,0.478
19.06,32102.9,35319.1,0.416,0.7847,142.5,98.1,0.478
19.08,32056.5,35187.1,0.2291,0.4601,142.5,98.1,0.478
19.1,32016.5,35109.9,0.0676,0.2703,142.5,98.1,0.478
19.12,32022.0,35110.3,0.0898,0.2714,142.5,98.1,0.478
19.14,31935.0,35043.8,-0.2607,0.1078,142.5,98.1,0.478
19.16,31895.4,34904.2,-0.4207,-0.2356,142.5,98.1,0.478
19.18,31915.5,34656.4,-0.3394,-0.8447,142.5,98.1,0.478
19.2,31814.6,34720.7,-0.7462,-0.6866,142.5,98.1,0.478
19.22,31907.9,34711.6,-0.37,-0.7091,142.5,98.1,0.478
19.24,31804.1,34639.4,-0.7886,-0.8866,142.5,98.1,0.478
19.26,31808.7,34676.2,-0.7702,-0.7961,142.5,98.1,0.478
19.28,31761.5,34494.3,-0.9603,-1.2435,142.5,98.1,0.478
19.3,31824.7,34556.6,-0.7055,-1.0901,142.5,98.1,0.478
19.32,31875.9,34436.3,-0.4993,-1.3861,142.5,98.1,0.478
19.34,31950.5,34715.8,-0.1986,-0.6988,142.5,98.1,0.478
19.36,31988.1,35117.3,-0.0469,0.2886,142.5,98.1,0.478
19.38,32205.4,35432.1,0.8292,1.0627,142.5,98.1,0.478
19.4,32326.6,35690.2,1.3177,1.6974,142.5,98.1,0.478
19.42,32349.6,35737.2,1.4103,1.813,142.5,98.1,0.478
19.44,32234.8,35630.6,0.9476,1.5507,142.5,98.1,0.478
19.46,32166.5,35468.9,0.6724,1.1532,142.5,98.1,0.478
19.48,32181.6,35392.6,0.7332,0.9656,142.5,98.1,0.478
19.5,32122.0,35146.9,0.493,0.3613,142.5,98.1,0.478
19.52,32020.8,35016.8,0.085,0.0414,142.5,98.1,0.478
19.54,32033.8,35097.3,0.1374,0.2393,142.5,98.1,0.478
19.56,31906.1,34960.8,-0.3774,-0.0963,142.5,98.1,0.478
19.58,31946.6,34813.7,-0.214,-0.458,142.5,98.1,0.478
19.6,31963.9,34770.9,-0.1444,-0.5632,142.5,98.1,0.478
19.62,31861.6,34566.5,-0.5568,-1.0658,142.5,98.1,0.478
19.64,31811.3,34605.1,-0.7596,-0.9708,142.5,98.1,0.478
19.66,31932.1,34736.0,-0.2728,-0.6491,142.5,98.1,0.478
19.68,31837.0,34575.0,-0.656,-1.0449,142.5,98.1,0.478
19.7,31842.5,34465.0,-0.6337,-1.3154,142.5,98.1,0.478
19.72,31830.1,34489.6,-0.6839,-1.2549,142.5,98.1,0.478
19.74,31852.8,34424.9,-0.5921,-1.4142,142.5,98.1,0.478
19.76,31870.1,34751.4,-0.5226,-0.6113,142.5,98.1,0.478
19.78,32035.2,35042.4,0.1431,0.1043,142.5,98.1,0.478
19.8,32151.0,35486.0,0.6099,1.1951,142.5,98.1,0.478
19.82,32363.4,35694.0,1.4659,1.7067,142.5,98.1,0.478
19.84,32398.5,35786.2,1.6076,1.9334,142.5,98.1,0.478
19.86,32330.8,35788.6,1.3348,1.9392,142.5,98.1,0.478
19.88,32168.7,35509.9,0.6812,1.2539,142.5,98.1,0.478
19.9,32128.5,35316.5,0.5194,0.7784,142.5,98.1,0.478
19.92,32078.2,35093.7,0.3164,0.2304,142.5,98.1,0.478
19.94,31973.8,34998.8,-0.1044,-0.0028,142.5,98.1,0.478
19.96,31944.4,34978.5,-0.2229,-0.0528,142.5,98.1,0.478
19.98,31891.3,34923.7,-0.4372,-0.1876,142.5,98.1,0.478
20.0,31862.8,34813.7,-0.552,-0.4579,142.5,98.1,0.478
20.02,31917.0,34830.0,-0.3334,-0.418,142.5,98.1,0.478
20.04,31830.8,34651.7,-0.6808,-0.8565,142.5,98.1,0.478
20.06,31794.2,34605.7,-0.8285,-0.9694,142.5,98.1,0.478
20.08,31835.2,34637.7,-0.6631,-0.8909,142.5,98.1,0.478
20.1,31868.6,34581.1,-0.5284,-1.03,142.5,98.1,0.478
20.12,31746.4,34527.2,-1.0213,-1.1624,142.5,98.1,0.478
20.14,31717.7,34490.2,-1.1367,-1.2534,142.5,98.1,0.478
20.16,31767.7,34490.1,-0.9354,-1.2537,142.5,98.1,0.478
20.18,31869.9,34692.9,-0.5231,-0.755,142.5,98.1,0.478
20.2,32022.0,35001.2,0.09,0.0031,142.5,98.1,0.478
20.22,32191.3,35316.3,0.7722,0.7779,142.5,98.1,0.478
20.24,32225.6,35584.3,0.9104,1.4369,142.5,98.1,0.478
20.26,32358.6,35772.9,1.4466,1.9006,142.5,98.1,0.478
20.28,32253.9,35661.3,1.0247,1.6263,142.5,98.1,0.478
20.3,32189.0,35439.1,0.7632,1.0799,142.5,98.1,0.478
20.32,32102.0,35247.2,0.4122,0.6081,142.5,98.1,0.478
20.34,32110.3,35109.5,0.446,0.2695,142.5,98.1,0.478
20.36,32013.0,35140.5,0.0536,0.3455,142.5,98.1,0.478
20.38,31914.8,35099.7,-0.3424,0.2453,142.5,98.1,0.478
20.4,32114.4,34940.6,0.4625,-0.146,142.5,98.1,0.478
20.42,31944.5,34869.4,-0.2227,-0.321,142.5,98.1,0.478
20.44,31941.0,34793.3,-0.2366,-0.5081,142.5,98.1,0.478
20.46,31814.2,34720.6,-0.748,-0.687,142.5,98.1,0.478
20.48,31884.8,34660.7,-0.4632,-0.8343,142.5,98.1,0.478
20.5,31791.4,34622.0,-0.8397,-0.9293,142.5,98.1,0.478
20.52,31828.9,34609.6,-0.6887,-0.96,142.5,98.1,0.478
20.54,31708.4,34545.6,-1.1743,-1.1172,142.5,98.1,0.478
20.56,31635.4,34479.6,-1.4685,-1.2796,142.5,98.1,0.478
20.58,31719.0,34523.7,-1.1316,-1.1711,142.5,98.1,0.478
20.6,31866.6,34646.8,-0.5365,-0.8683,142.5,98.1,0.478
20.62,32052.9,34974.8,0.2143,-0.0619,142.5,98.1,0.478
20.64,32175.7,35380.1,0.7094,0.9348,142.5,98.1,0.478
20.66,32284.1,35632.1,1.1462,1.5545,142.5,98.1,0.478
20.68,32258.9,35818.6,1.0448,2.0129,142.5,98.1,0.478
20.7,32394.7,35775.3,1.5923,1.9067,142.5,98.1,0.478
20.72,32196.7,35451.3,0.7939,1.1098,142.5,98.1,0.478
20.74,32175.6,35331.8,0.7091,0.8161,142.5,98.1,0.478
20.76,32050.0,35154.1,0.2025,0.379,142.5,98.1,0.478
20.78,31983.6,35247.9,-0.0651,0.6098,142.5,98.1,0.478
20.8,32069.4,35039.6,0.2811,0.0976,142.5,98.1,0.478
20.82,31935.5,34945.0,-0.2587,-0.1351,142.5,98.1,0.478
20.84,31882.7,34917.3,-0.4717,-0.2032,142.5,98.1,0.478
20.86,31868.8,34786.4,-0.5277,-0.5251,142.5,98.1,0.478
20.88,31887.2,34689.1,-0.4534,-0.7645,142.5,98.1,0.478
20.9,31896.1,34634.1,-0.4177,-0.8997,142.5,98.1,0.478
20.92,31760.7,34629.4,-0.9637,-0.9112,142.5,98.1,0.478
20.94,31786.7,34623.7,-0.8589,-0.9251,142.5,98.1,0.478
20.96,31781.1,34451.6,-0.8811,-1.3485,142.5,98.1,0.478
20.98,31740.4,34465.8,-1.0452,-1.3136,142.5,98.1,0.478
21.0,31814.1,34480.9,-0.7482,-1.2764,142.5,98.1,0.478
21.02,31797.0,34690.8,-0.8173,-0.7601,142.5,98.1,0.478
21.04,32055.4,34951.3,0.2243,-0.1196,142.5,98.1,0.478
21.06,32126.6,35283.2,0.5113,0.6966,142.5,98.1,0.478
21.08,32269.5,35608.8,1.0876,1.497,142.5,98.1,0.478
21.1,32290.2,35838.5,1.1709,2.0619,142.5,98.1,0.478
21.12,32343.5,35683.2,1.3858,1.6801,142.5,98.1,0.478
21.14,32193.5,35469.2,0.7813,1.1538,142.5,98.1,0.478
21.16,32168.6,35260.4,0.681,0.6404,142.5,98.1,0.478
21.18,32075.0,35131.8,0.3037,0.3241,142.5,98.1,0.478
21.2,32078.8,35125.0,0.3189,0.3076,142.5,98.1,0.478
21.22,32033.9,35033.3,0.1378,0.0819,142.5,98.1,0.478
21.24,32012.5,34968.4,0.0516,-0.0776,142.5,98.1,0.478
21.26,31922.3,34849.5,-0.312,-0.37,142.5,98.1,0.478
21.28,31853.2,34784.8,-0.5904,-0.5289,142.5,98.1,0.478
21.3,31806.7,34792.7,-0.7782,-0.5097,142.5,98.1,0.478
21.32,31897.9,34687.6,-0.4104,-0.7681,142.5,98.1,0.478
21.34,31831.7,34658.8,-0.6772,-0.839,142.5,98.1,0.478
21.36,31786.5,34553.6,-0.8596,-1.0975,142.5,98.1,0.478
21.38,31810.9,34540.5,-0.7613,-1.1299,142.5,98.1,0.478
21.4,31809.6,34434.5,-0.7663,-1.3904,142.5,98.1,0.478
21.42,31836.1,34615.0,-0.6597,-0.9465,142.5,98.1,0.478
21.44,31833.7,34640.7,-0.6694,-0.8835,142.5,98.1,0.478
21.46,31987.1,34930.9,-0.0507,-0.1698,142.5,98.1,0.478
21.48,32152.6,35408.9,0.6163,1.0057,142.5,98.1,0.478
21.5,32291.0,35675.6,1.1741,1.6614,142.5,98.1,0.478
21.52,32278.0,35751.8,1.1218,1.8488,142.5,98.1,0.478
21.54,32235.9,35698.7,0.9523,1.7182,142.5,98.1,0.478
21.56,32242.4,35407.8,0.9783,1.0028,142.5,98.1,0.478
21.58,32169.5,35259.4,0.6845,0.638,142.5,98.1,0.478
21.6,32077.5,35217.2,0.3135,0.5342,142.5,98.1,0.478
21.62,31985.5,35095.3,-0.0573,0.2344,142.5,98.1,0.478
21.64,31988.9,35096.9,-0.0435,0.2385,142.5,98.1,0.478
21.66,31928.2,34979.2,-0.2884,-0.0509,142.5,98.1,0.478
21.68,32041.5,34914.7,0.1685,-0.2097,142.5,98.1,0.478
21.7,31884.9,34763.2,-0.4629,-0.5822,142.5,98.1,0.478
21.72,31932.1,34659.3,-0.2726,-0.8376,142.5,98.1,0.478
21.74,31870.4,34686.8,-0.5214,-0.7699,142.5,98.1,0.478
21.76,31918.5,34589.3,-0.3274,-1.0098,142.5,98.1,0.478
21.78,31819.6,34654.7,-0.7261,-0.8489,142.5,98.1,0.478
21.8,31843.2,34597.8,-0.6308,-0.9889,142.5,98.1,0.478
21.82,31793.1,34458.3,-0.8331,-1.3318,142.5,98.1,0.478
21.84,31841.0,34455.0,-0.6397,-1.3402,142.5,98.1,0.478
21.86,31812.6,34651.2,-0.7544,-0.8577,142.5,98.1,0.478
21.88,31948.0,34900.1,-0.2086,-0.2456,142.5,98.1,0.478
21.9,32083.3,35283.4,0.3369,0.6971,142.5,98.1,0.478
21.92,32230.5,35667.4,0.9304,1.6413,142.5,98.1,0.478
21.94,32383.7,35783.2,1.5481,1.9259,142.5,98.1,0.478
21.96,32267.3,35685.6,1.0789,1.686,142.5,98.1,0.478
21.98,32212.6,35601.4,0.8583,1.4789,142.5,98.1,0.478
22.0,32021.6,35322.0,0.0881,0.7919,142.5,98.1,0.478
22.02,32062.9,35110.2,0.2546,0.2711,142.5,98.1,0.478
22.04,32056.0,35151.3,0.2267,0.3722,142.5,98.1,0.478
22.06,32001.8,35026.3,0.0086,0.0649,142.5,98.1,0.478
22.08,31984.5,34954.8,-0.0614,-0.1109,142.5,98.1,0.478
22.1,31863.1,34940.4,-0.5505,-0.1464,142.5,98.1,0.478
22.12,31901.3,34773.1,-0.3966,-0.5578,142.5,98.1,0.478
22.14,31935.7,34730.1,-0.2581,-0.6636,142.5,98.1,0.478
22.16,31862.8,34680.4,-0.5518,-0.7857,142.5,98.1,0.478
22.18,31922.1,34587.3,-0.313,-1.0148,142.5,98.1,0.478
22.2,31805.4,34653.7,-0.7832,-0.8514,142.5,98.1,0.478
22.22,31801.5,34486.5,-0.7989,-1.2626,142.5,98.1,0.478
22.24,31836.2,34426.7,-0.6591,-1.4097,142.5,98.1,0.478
22.26,31775.3,34554.3,-0.9049,-1.0958,142.5,98.1,0.478
22.28,31848.7,34641.7,-0.6086,-0.8808,142.5,98.1,0.478
22.3,32102.6,34833.3,0.4147,-0.4098,142.5,98.1,0.478
22.32,32179.2,35224.6,0.7236,0.5525,142.5,98.1,0.478
22.34,32379.5,35650.2,1.5312,1.5988,142.5,98.1,0.478
22.36,32302.5,35757.5,1.2205,1.8629,142.5,98.1,0.478
22.38,32232.7,35743.4,0.9392,1.8282,142.5,98.1,0.478
22.4,32275.5,35525.9,1.1119,1.2933,142.5,98.1,0.478
22.42,32219.1,35408.2,0.8843,1.0038,142.5,98.1,0.478
22.44,32086.3,35182.1,0.3491,0.4479,142.5,98.1,0.478
22.46,32007.0,35115.9,0.0292,0.2852,142.5,98.1,0.478
22.48,32029.3,35039.0,0.1193,0.0959,142.5,98.1,0.478
22.5,31964.7,34977.2,-0.1413,-0.056,142.5,98.1,0.478
22.52,31936.9,34864.0,-0.2531,-0.3344,142.5,98.1,0.478
22.54,31957.7,34772.9,-0.1694,-0.5584,142.5,98.1,0.478
22.56,31912.5,34677.2,-0.3515,-0.7937,142.5,98.1,0.478
22.58,31832.3,34583.0,-0.6747,-1.0254,142.5,98.1,0.478
22.6,31839.0,34597.6,-0.6481,-0.9894,142.5,98.1,0.478
22.62,31759.0,34509.0,-0.9703,-1.2073,142.5,98.1,0.478
22.64,31776.3,34525.1,-0.9006,-1.1677,142.5,98.1,0.478
22.66,31844.0,34452.7,-0.6277,-1.3456,142.5,98.1,0.478
22.68,31796.9,34478.4,-0.8177,-1.2826,142.5,98.1,0.478
22.7,31820.2,34615.4,-0.7236,-0.9456,142.5,98.1,0.478
22.72,31997.4,34950.7,-0.0094,-0.1211,142.5,98.1,0.478
22.74,32201.0,35316.8,0.8116,0.7792,142.5,98.1,0.478
22.76,32283.5,35531.6,1.1439,1.3074,142.5,98.1,0.478
22.78,32326.8,35780.7,1.3187,1.9199,142.5,98.1,0.478
22.8,32333.0,35786.0,1.3435,1.9328,142.5,98.1,0.478
22.82,32252.0,35449.6,1.0169,1.1056,142.5,98.1,0.478
22.84,32218.6,35390.4,0.8825,0.9601,142.5,98.1,0.478
22.86,32091.7,35259.7,0.3709,0.6387,142.5,98.1,0.478
22.88,32069.5,35162.2,0.2814,0.3989,142.5,98.1,0.478
22.9,32015.7,35170.8,0.0645,0.4202,142.5,98.1,0.478
22.92,32004.3,34997.0,0.0184,-0.0072,142.5,98.1,0.478
22.94,32012.8,34967.8,0.0529,-0.0791,142.5,98.1,0.478
22.96,31930.2,34874.4,-0.2804,-0.3087,142.5,98.1,0.478
22.98,31767.4,34670.0,-0.9365,-0.8113,142.5,98.1,0.478
23.0,31918.1,34669.9,-0.329,-0.8117,142.5,98.1,0.478
23.02,31764.1,34741.6,-0.95,-0.6352,142.5,98.1,0.478
23.04,31830.0,34567.6,-0.6843,-1.0632,142.5,98.1,0.478
23.06,31785.3,34483.7,-0.8643,-1.2694,142.5,98.1,0.478
23.08,31844.3,34534.8,-0.6266,-1.1439,142.5,98.1,0.478
23.1,31772.7,34501.1,-0.9151,-1.2268,142.5,98.1,0.478
23.12,31889.3,34638.3,-0.4453,-0.8892,142.5,98.1,0.478
23.14,31893.3,34902.7,-0.429,-0.2391,142.5,98.1,0.478
23.16,32066.6,35237.1,0.2696,0.5833,142.5,98.1,0.478
23.18,32293.6,35598.3,1.1848,1.4713,142.5,98.1,0.478
23.2,32256.4,35749.2,1.0346,1.8425,142.5,98.1,0.478
23.22,32304.2,35636.6,1.2276,1.5656,142.5,98.1,0.478
23.24,32270.3,35535.4,1.091,1.3168,142.5,98.1,0.478
23.26,32156.0,35344.5,0.63,0.8473,142.5,98.1,0.478
23.28,32047.0,35119.4,0.1905,0.2938,142.5,98.1,0.478
23.3,32097.5,35039.9,0.3942,0.0982,142.5,98.1,0.478
23.32,32098.6,35146.3,0.3985,0.3598,142.5,98.1,0.478
23.34,32053.2,34958.8,0.2157,-0.1013,142.5,98.1,0.478
23.36,31945.1,34875.3,-0.2203,-0.3066,142.5,98.1,0.478
23.38,31906.4,34830.8,-0.3763,-0.4159,142.5,98.1,0.478
23.4,31911.4,34682.9,-0.3558,-0.7796,142.5,98.1,0.478
23.42,31803.1,34619.0,-0.7927,-0.9367,142.5,98.1,0.478
23.44,31779.8,34681.1,-0.8866,-0.7841,142.5,98.1,0.478
23.46,31838.4,34616.9,-0.6502,-0.9419,142.5,98.1,0.478
23.48,31764.8,34565.7,-0.947,-1.0678,142.5,98.1,0.478
23.5,31788.7,34510.0,-0.8508,-1.2047,142.5,98.1,0.478
23.52,31843.5,34417.8,-0.6296,-1.4314,142.5,98.1,0.478
23.54,31764.0,34574.3,-0.9501,-1.0467,142.5,98.1,0.478
23.56,31941.6,34909.4,-0.2341,-0.2227,142.5,98.1,0.478
23.58,32032.6,35255.7,0.1324,0.6288,142.5,98.1,0.478
23.6,32164.3,35545.3,0.6633,1.3411,142.5,98.1,0.478
23.62,32262.1,35779.8,1.0578,1.9177,142.5,98.1,0.478
23.64,32235.3,35756.4,0.9498,1.86,142.5,98.1,0.478
23.66,32158.9,35590.0,0.6418,1.4508,142.5,98.1,0.478
23.68,32133.2,35286.4,0.5382,0.7045,142.5,98.1,0.478
23.7,32077.0,35254.0,0.3114,0.6246,142.5,98.1,0.478
23.72,31981.5,35104.1,-0.0735,0.2562,142.5,98.1,0.478
23.74,31982.7,35095.9,-0.0687,0.236,142.5,98.1,0.478
23.76,31977.3,34945.6,-0.0902,-0.1337,142.5,98.1,0.478
23.78,31930.3,34970.1,-0.2799,-0.0733,142.5,98.1,0.478
23.8,31932.0,34841.8,-0.2728,-0.389,142.5,98.1,0.478
23.82,31908.9,34788.2,-0.366,-0.5207,142.5,98.1,0.478
23.84,31879.7,34669.8,-0.484,-0.8118,142.5,98.1,0.478
23.86,31793.0,34732.7,-0.8333,-0.6571,142.5,98.1,0.478
23.88,31745.6,34685.6,-1.0246,-0.7729,142.5,98.1,0.478
23.9,31829.7,34597.3,-0.6852,-0.99,142.5,98.1,0.478
23.92,31791.0,34522.3,-0.8414,-1.1745,142.5,98.1,0.478
23.94,31744.9,34466.9,-1.027,-1.3108,142.5,98.1,0.478
23.96,31820.1,34546.9,-0.7242,-1.1141,142.5,98.1,0.478
23.98,31882.8,34921.9,-0.4713,-0.192,142.5,98.1,0.478
24.0,32116.6,35203.3,0.4713,0.5001,142.5,98.1,0.478
24.02,32358.8,35633.1,1.4475,1.5568,142.5,98.1,0.478
24.04,32380.6,35758.2,1.5353,1.8646,142.5,98.1,0.478
24.06,32227.1,35772.1,0.9168,1.8988,142.5,98.1,0.478
24.08,32365.4,35594.7,1.4742,1.4624,142.5,98.1,0.478
24.1,32226.0,35380.0,0.9124,0.9345,142.5,98.1,0.478
24.12,32093.0,35258.1,0.3759,0.6348,142.5,98.1,0.478
24.14,32010.9,35095.8,0.0453,0.2357,142.5,98.1,0.478
24.16,32002.6,35098.1,0.0115,0.2415,142.5,98.1,0.478
24.18,32019.5,35018.9,0.0796,0.0466,142.5,98.1,0.478
24.2,31930.9,34919.1,-0.2775,-0.1989,142.5,98.1,0.478
24.22,32009.7,34827.7,0.0403,-0.4235,142.5,98.1,0.478
24.24,31853.9,34716.6,-0.5877,-0.6968,142.5,98.1,0.478
24.26,31925.3,34791.4,-0.3002,-0.5128,142.5,98.1,0.478
24.28,31834.4,34738.1,-0.6664,-0.644,142.5,98.1,0.478
24.3,31760.2,34678.1,-0.9654,-0.7915,142.5,98.1,0.478
24.32,31828.2,34494.5,-0.6916,-1.243,142.5,98.1,0.478
24.34,31805.9,34473.3,-0.7812,-1.295,142.5,98.1,0.478
24.36,31750.1,34456.9,-1.0061,-1.3353,142.5,98.1,0.478
24.38,31831.8,34485.3,-0.6768,-1.2656,142.5,98.1,0.478
24.4,31806.1,34874.9,-0.7806,-0.3075,142.5,98.1,0.478
24.42,32063.4,35184.4,0.2568,0.4535,142.5,98.1,0.478
24.44,32337.5,35574.5,1.3617,1.4129,142.5,98.1,0.478
24.46,32310.3,35756.3,1.252,1.8597,142.5,98.1,0.478
24.48,32267.2,35634.9,1.0784,1.5613,142.5,98.1,0.478
24.5,32335.6,35565.0,1.3542,1.3895,142.5,98.1,0.478
24.52,32169.2,35471.3,0.6833,1.159,142.5,98.1,0.478
24.54,32017.4,35210.7,0.0715,0.5182,142.5,98.1,0.478
24.56,32056.6,35011.9,0.2293,0.0294,142.5,98.1,0.478
24.58,32093.0,35120.8,0.3763,0.2971,142.5,98.1,0.478
24.6,32062.6,35085.3,0.2535,0.21,142.5,98.1,0.478
24.62,31822.2,34902.9,-0.7157,-0.2386,142.5,98.1,0.478
24.64,31921.5,34824.5,-0.3152,-0.4315,142.5,98.1,0.478
24.66,31885.3,34612.5,-0.4613,-0.9526,142.5,98.1,0.478
24.68,31840.1,34650.0,-0.6436,-0.8605,142.5,98.1,0.478
24.7,31810.5,34726.5,-0.7629,-0.6724,142.5,98.1,0.478
24.72,31880.8,34651.6,-0.4795,-0.8567,142.5,98.1,0.478
24.74,31879.3,34494.5,-0.4854,-1.243,142.5,98.1,0.478
24.76,31741.1,34515.6,-1.0424,-1.191,142.5,98.1,0.478
24.78,31809.3,34439.5,-0.7675,-1.3783,142.5,98.1,0.478
24.8,31787.7,34504.4,-0.8546,-1.2186,142.5,98.1,0.478
24.82,31846.0,34780.1,-0.6197,-0.5407,142.5,98.1,0.478
24.84,32110.8,35231.4,0.4479,0.5691,142.5,98.1,0.478
24.86,32260.0,35560.5,1.0492,1.3784,142.5,98.1,0.478
24.88,32356.1,35707.9,1.4368,1.7409,142.5,98.1,0.478
24.9,32333.0,35778.1,1.3434,1.9136,142.5,98.1,0.478
24.92,32339.0,35603.1,1.3678,1.4832,142.5,98.1,0.478
24.94,32245.3,35333.4,0.99,0.8199,142.5,98.1,0.478
24.96,31980.8,35257.2,-0.0762,0.6325,142.5,98.1,0.478
24.98,32107.2,35205.1,0.4334,0.5046,142.5,98.1,0.478
25.0,32019.9,35056.2,0.0814,0.1382,142.5,98.1,0.478
25.02,32025.0,35094.5,0.1019,0.2326,142.5,98.1,0.478
25.04,31880.3,34890.0,-0.4815,-0.2704,142.5,98.1,0.478
25.06,31964.2,34778.4,-0.1431,-0.5448,142.5,98.1,0.478
25.08,31863.9,34731.9,-0.5473,-0.6592,142.5,98.1,0.478
25.1,31852.2,34671.3,-0.5947,-0.8082,142.5,98.1,0.478
25.12,31890.2,34640.1,-0.4415,-0.8849,142.5,98.1,0.478
25.14,31771.6,34532.9,-0.9197,-1.1485,142.5,98.1,0.478
25.16,31761.6,34622.3,-0.9599,-0.9288,142.5,98.1,0.478
25.18,31738.3,34519.8,-1.0536,-1.1806,142.5,98.1,0.478
25.2,31746.3,34308.1,-1.0217,-1.7013,142.5,98.1,0.478
25.22,31813.6,34537.0,-0.7504,-1.1383,142.5,98.1,0.478
25.24,31938.5,34893.2,-0.2466,-0.2626,142.5,98.1,0.478
25.26,32152.6,35207.8,0.6164,0.5112,142.5,98.1,0.478
25.28,32261.9,35534.9,1.0567,1.3154,142.5,98.1,0.478
25.3,32374.0,35763.9,1.5089,1.8787,142.5,98.1,0.478
25.32,32310.5,35758.6,1.2528,1.8655,142.5,98.1,0.478
25.34,32241.8,35552.4,0.9758,1.3584,142.5,98.1,0.478
25.36,32166.2,35375.6,0.6711,0.9237,142.5,98.1,0.478
25.38,32169.7,35275.7,0.6853,0.678,142.5,98.1,0.478
25.4,32066.2,35051.7,0.2682,0.1271,142.5,98.1,0.478
25.42,32046.0,35110.7,0.1865,0.2722,142.5,98.1,0.478
25.44,32047.0,35037.2,0.1905,0.0917,142.5,98.1,0.478
25.46,32009.4,34948.6,0.0392,-0.1264,142.5,98.1,0.478
25.48,31957.1,34778.1,-0.1716,-0.5455,142.5,98.1,0.478
25.5,31899.7,34722.7,-0.4032,-0.6817,142.5,98.1,0.478
25.52,31967.0,34722.3,-0.1319,-0.6827,142.5,98.1,0.478
25.54,31947.8,34642.5,-0.2092,-0.879,142.5,98.1,0.478
25.56,31868.1,34659.7,-0.5305,-0.8368,142.5,98.1,0.478
25.58,31809.5,34621.9,-0.7666,-0.9296,142.5,98.1,0.478
25.6,31835.5,34492.2,-0.6619,-1.2485,142.5,98.1,0.478
25.62,31711.7,34490.4,-1.161,-1.2529,142.5,98.1,0.478
25.64,31790.8,34618.7,-0.8421,-0.9376,142.5,98.1,0.478
25.66,31864.3,34808.3,-0.5461,-0.4713,142.5,98.1,0.478
25.68,31955.1,35271.3,-0.1799,0.6673,142.5,98.1,0.478
25.7,32248.9,35507.9,1.0046,1.2491,142.5,98.1,0.478
25.72,32300.9,35766.6,1.2142,1.8851,142.5,98.1,0.478
25.74,32337.3,35727.0,1.361,1.7879,142.5,98.1,0.478
25.76,32352.9,35566.9,1.4239,1.3942,142.5,98.1,0.478
25.78,32224.9,35404.6,0.9078,0.9949,142.5,98.1,0.478
25.8,32144.1,35287.6,0.5819,0.7074,142.5,98.1,0.478
25.82,32006.3,35106.6,0.0267,0.2622,142.5,98.1,0.478
25.84,32099.2,35105.0,0.4012,0.2582,142.5,98.1,0.478
25.86,31959.7,35095.4,-0.1615,0.2348,142.5,98.1,0.478
25.88,31958.9,34904.3,-0.1647,-0.2351,142.5,98.1,0.478
25.9,31825.9,34796.1,-0.7006,-0.5013,142.5,98.1,0.478
25.92,31867.7,34747.0,-0.5322,-0.622,142.5,98.1,0.478
25.94,31814.4,34648.3,-0.747,-0.8647,142.5,98.1,0.478
25.96,31828.8,34661.9,-0.6891,-0.8314,142.5,98.1,0.478
25.98,31874.0,34662.2,-0.5067,-0.8306,142.5,98.1,0.478
26.0,31759.2,34604.6,-0.9696,-0.9722,142.5,98.1,0.478
26.02,31838.3,34469.5,-0.6507,-1.3044,142.5,98.1,0.478
26.04,31681.4,34553.0,-1.2832,-1.0991,142.5,98.1,0.478
26.06,31831.8,34543.8,-0.6767,-1.1217,142.5,98.1,0.478
26.08,31960.1,34852.3,-0.1598,-0.3632,142.5,98.1,0.478
26.1,32071.5,35180.6,0.2892,0.4442,142.5,98.1,0.478
26.12,32264.2,35501.2,1.0662,1.2326,142.5,98.1,0.478
26.14,32259.0,35713.9,1.0453,1.7556,142.5,98.1,0.478
26.16,32350.3,35749.8,1.4134,1.8439,142.5,98.1,0.478
26.18,32260.2,35566.1,1.0499,1.3921,142.5,98.1,0.478
26.2,32233.6,35377.9,0.9428,0.9294,142.5,98.1,0.478
26.22,32053.9,35243.9,0.2186,0.5998,142.5,98.1,0.478
26.24,32114.5,35115.3,0.4626,0.2837,142.5,98.1,0.478
26.26,32085.1,35047.9,0.3442,0.1178,142.5,98.1,0.478
26.28,32032.9,34986.8,0.1339,-0.0323,142.5,98.1,0.478
26.3,31936.8,34952.8,-0.2537,-0.1159,142.5,98.1,0.478
26.32,31851.1,34799.6,-0.5992,-0.4927,142.5,98.1,0.478
26.34,31894.7,34834.9,-0.4232,-0.4059,142.5,98.1,0.478
26.36,31866.5,34628.8,-0.537,-0.9127,142.5,98.1,0.478
26.38,31869.9,34649.1,-0.5231,-0.8627,142.5,98.1,0.478
26.4,31788.1,34636.8,-0.8531,-0.8931,142.5,98.1,0.478
26.42,31864.1,34529.6,-0.5467,-1.1566,142.5,98.1,0.478
26.44,31829.8,34466.0,-0.6848,-1.3131,142.5,98.1,0.478
26.46,31730.7,34452.4,-1.0843,-1.3464,142.5,98.1,0.478
26.48,31803.4,34550.6,-0.7912,-1.1051,142.5,98.1,0.478
26.5,32005.2,34855.4,0.0222,-0.3555,142.5,98.1,0.478
26.52,32099.6,35142.0,0.4029,0.3493,142.5,98.1,0.478
26.54,32212.0,35552.0,0.8559,1.3575,142.5,98.1,0.478
26.56,32251.5,35808.0,1.0148,1.987,142.5,98.1,0.478
26.58,32322.5,35804.1,1.3013,1.9774,142.5,98.1,0.478
26.6,32338.1,35671.0,1.3639,1.6501,142.5,98.1,0.478
26.62,32193.5,35349.2,0.781,0.8587,142.5,98.1,0.478
26.64,32135.2,35298.3,0.5463,0.7337,142.5,98.1,0.478
26.66,32132.8,35099.0,0.5365,0.2435,142.5,98.1,0.478
26.68,32084.8,35096.8,0.343,0.2381,142.5,98.1,0.478
26.7,31936.4,35030.5,-0.2552,0.0751,142.5,98.1,0.478
26.72,31959.9,34899.1,-0.1605,-0.2479,142.5,98.1,0.478
26.74,31997.9,34809.0,-0.0074,-0.4695,142.5,98.1,0.478
26.76,31863.9,34752.5,-0.5474,-0.6085,142.5,98.1,0.478
26.78,31895.3,34652.3,-0.4211,-0.8548,142.5,98.1,0.478
26.8,31792.8,34693.2,-0.8342,-0.7544,142.5,98.1,0.478
26.82,31938.0,34673.9,-0.2489,-0.8017,142.5,98.1,0.478
26.84,31826.3,34549.6,-0.6989,-1.1074,142.5,98.1,0.478
26.86,31799.6,34467.1,-0.8067,-1.3104,142.5,98.1,0.478
26.88,31830.6,34482.9,-0.6819,-1.2713,142.5,98.1,0.478
26.9,31769.5,34538.1,-0.928,-1.1358,142.5,98.1,0.478
26.92,31855.2,34850.5,-0.5825,-0.3675,142.5,98.1,0.478
26.94,32059.4,35102.6,0.2407,0.2524,142.5,98.1,0.478
26.96,32187.5,35523.6,0.7569,1.2876,142.5,98.1,0.478
26.98,32296.4,35759.4,1.1961,1.8675,142.5,98.1,0.478
27.0,32451.6,35777.9,1.8217,1.913,142.5,98.1,0.478
27.02,32331.8,35711.2,1.3387,1.7488,142.5,98.1,0.478
27.04,32205.5,35437.4,0.8296,1.0757,142.5,98.1,0.478
27.06,32042.6,35276.5,0.1729,0.6799,142.5,98.1,0.478
27.08,31963.5,35144.5,-0.1461,0.3555,142.5,98.1,0.478
27.1,31998.8,34975.1,-0.0036,-0.0611,142.5,98.1,0.478
27.12,32057.7,35032.6,0.2336,0.0802,142.5,98.1,0.478
27.14,32007.9,35004.4,0.0332,0.011,142.5,98.1,0.478
27.16,31918.6,34860.1,-0.3269,-0.344,142.5,98.1,0.478
27.18,31857.4,34794.7,-0.5738,-0.5048,142.5,98.1,0.478
27.2,31852.8,34634.0,-0.5922,-0.8999,142.5,98.1,0.478
27.22,31834.0,34697.7,-0.6682,-0.7433,142.5,98.1,0.478
27.24,31787.7,34580.3,-0.8545,-1.032,142.5,98.1,0.478
27.26,31814.6,34586.4,-0.7462,-1.0168,142.5,98.1,0.478
27.28,31658.5,34513.8,-1.3753,-1.1956,142.5,98.1,0.478
27.3,31804.4,34482.7,-0.7872,-1.272,142.5,98.1,0.478
27.32,31685.7,34517.1,-1.2658,-1.1874,142.5,98.1,0.478
27.34,31876.3,34745.7,-0.4975,-0.6252,142.5,98.1,0.478
27.36,32061.4,35225.9,0.2488,0.5556,142.5,98.1,0.478
27.38,32131.8,35508.3,0.5326,1.2501,142.5,98.1,0.478
27.4,32295.0,35692.9,1.1902,1.7039,142.5,98.1,0.478
27.42,32351.8,35584.8,1.4194,1.4381,142.5,98.1,0.478
27.44,32281.9,35520.7,1.1376,1.2806,142.5,98.1,0.478
27.46,32196.5,35455.4,0.7931,1.1199,142.5,98.1,0.478
27.48,32198.3,35257.5,0.8006,0.6334,142.5,98.1,0.478
27.5,32049.2,35248.5,0.1995,0.6111,142.5,98.1,0.478
27.52,32014.0,35051.1,0.0577,0.1256,142.5,98.1,0.478
27.54,32032.0,35066.9,0.1303,0.1645,142.5,98.1,0.478
27.56,32001.4,34934.5,0.007,-0.161,142.5,98.1,0.478
27.58,32028.1,34797.5,0.1142,-0.4978,142.5,98.1,0.478
27.6,31845.2,34816.5,-0.6228,-0.4512,142.5,98.1,0.478
27.62,31917.1,34780.2,-0.3331,-0.5403,142.5,98.1,0.478
27.64,31776.2,34702.6,-0.9011,-0.7311,142.5,98.1,0.478
27.66,31743.1,34591.1,-1.0345,-1.0053,142.5,98.1,0.478
27.68,31837.4,34648.1,-0.6544,-0.8652,142.5,98.1,0.478
27.7,31762.6,34578.9,-0.9559,-1.0353,142.5,98.1,0.478
27.72,31804.1,34429.8,-0.7886,-1.4019,142.5,98.1,0.478
27.74,31731.7,34538.2,-1.0804,-1.1353,142.5,98.1,0.478
27.76,31864.5,34675.5,-0.545,-0.7978,142.5,98.1,0.478
27.78,32032.3,34949.1,0.1315,-0.1252,142.5,98.1,0.478
27.8,32234.7,35481.6,0.9471,1.1844,142.5,98.1,0.478
27.82,32285.7,35694.7,1.1528,1.7083,142.5,98.1,0.478
27.84,32464.1,35787.4,1.8721,1.9364,142.5,98.1,0.478
27.86,32322.9,35598.2,1.303,1.4712,142.5,98.1,0.478
27.88,32202.5,35435.4,0.8173,1.0709,142.5,98.1,0.478
27.9,32133.7,35206.8,0.5401,0.5086,142.5,98.1,0.478
27.92,32087.8,35048.7,0.355,0.1197,142.5,98.1,0.478
27.94,32119.2,35197.8,0.4818,0.4864,142.5,98.1,0.478
27.96,31986.7,35089.5,-0.0525,0.2203,142.5,98.1,0.478
27.98,32012.4,34998.5,0.051,-0.0036,142.5,98.1,0.478
28.0,31905.9,34862.2,-0.378,-0.3388,142.5,98.1,0.478
28.02,31947.4,34769.8,-0.211,-0.566,142.5,98.1,0.478
28.04,31742.5,34628.6,-1.0371,-0.9132,142.5,98.1,0.478
28.06,31842.7,34591.2,-0.633,-1.0052,142.5,98.1,0.478
28.08,31940.1,34652.6,-0.2405,-0.854,142.5,98.1,0.478
28.1,31840.5,34623.2,-0.6418,-0.9263,142.5,98.1,0.478
28.12,31763.7,34503.0,-0.9514,-1.222,142.5,98.1,0.478
28.14,31764.1,34341.9,-0.9497,-1.618,142.5,98.1,0.478
28.16,31826.6,34493.1,-0.6979,-1.2463,142.5,98.1,0.478
28.18,31958.6,34707.5,-0.1658,-0.7191,142.5,98.1,0.478
28.2,31995.8,35067.1,-0.0158,0.1651,142.5,98.1,0.478
28.22,32164.9,35456.3,0.6657,1.1222,142.5,98.1,0.478
28.24,32292.3,35597.1,1.1794,1.4683,142.5,98.1,0.478
28.26,32272.4,35794.7,1.0993,1.9543,142.5,98.1,0.478
28.28,32236.2,35573.1,0.9532,1.4093,142.5,98.1,0.478
28.3,32188.6,35488.1,0.7613,1.2002,142.5,98.1,0.478
28.32,32099.0,35330.5,0.4002,0.8127,142.5,98.1,0.478
28.34,32143.3,35164.2,0.5788,0.4039,142.5,98.1,0.478
28.36,32079.7,35199.2,0.3225,0.4901,142.5,98.1,0.478
28.38,32085.3,35069.3,0.3451,0.1705,142.5,98.1,0.478
28.4,31982.5,34951.1,-0.0696,-0.1201,142.5,98.1,0.478
28.42,31877.4,34748.6,-0.493,-0.6182,142.5,98.1,0.478
28.44,31917.3,34760.6,-0.332,-0.5886,142.5,98.1,0.478
28.46,31822.3,34759.5,-0.7153,-0.5914,142.5,98.1,0.478
28.48,31826.0,34656.5,-0.7005,-0.8445,142.5,98.1,0.478
28.5,31930.3,34612.7,-0.2797,-0.9522,142.5,98.1,0.478
28.52,31872.8,34566.7,-0.5116,-1.0654,142.5,98.1,0.478
28.54,31841.4,34535.7,-0.6381,-1.1417,142.5,98.1,0.478
28.56,31793.7,34477.4,-0.8305,-1.2849,142.5,98.1,0.478
28.58,31766.3,34526.8,-0.941,-1.1635,142.5,98.1,0.478
28.6,31848.9,34677.4,-0.608,-0.7932,142.5,98.1,0.478
28.62,31984.0,35033.1,-0.0634,0.0816,142.5,98.1,0.478
28.64,32256.4,35367.9,1.0346,0.9047,142.5,98.1,0.478
28.66,32313.9,35648.0,1.2667,1.5936,142.5,98.1,0.478
28.68,32325.1,35698.7,1.3118,1.7182,142.5,98.1,0.478
28.7,32326.8,35619.3,1.3186,1.523,142.5,98.1,0.478
28.72,32249.1,35566.6,1.0054,1.3934,142.5,98.1,0.478
28.74,32061.3,35241.4,0.2481,0.5936,142.5,98.1,0.478
28.76,31970.5,35165.2,-0.1176,0.4064,142.5,98.1,0.478
28.78,32047.2,35081.7,0.1912,0.201,142.5,98.1,0.478
28.8,32071.8,35099.5,0.2908,0.2447,142.5,98.1,0.478
28.82,32071.2,35051.9,0.2882,0.1278,142.5,98.1,0.478
28.84,31967.7,34894.9,-0.1292,-0.2583,142.5,98.1,0.478
28.86,31839.7,34836.8,-0.6448,-0.4013,142.5,98.1,0.478
28.88,31861.1,34726.6,-0.5586,-0.6722,142.5,98.1,0.478
28.9,31878.5,34700.2,-0.4888,-0.7371,142.5,98.1,0.478
28.92,31835.8,34668.0,-0.6606,-0.8164,142.5,98.1,0.478
28.94,31770.6,34557.2,-0.9235,-1.0887,142.5,98.1,0.478
28.96,31882.9,34535.3,-0.4708,-1.1425,142.5,98.1,0.478
28.98,31857.4,34466.0,-0.5737,-1.313,142.5,98.1,0.478
29.0,31790.2,34466.1,-0.8447,-1.3128,142.5,98.1,0.478
29.02,31912.0,34694.0,-0.3537,-0.7522,142.5,98.1,0.478
29.04,31967.4,35031.1,-0.1302,0.0767,142.5,98.1,0.478
29.06,32131.9,35395.1,0.5328,0.9716,142.5,98.1,0.478
29.08,32358.2,35735.0,1.4452,1.8075,142.5,98.1,0.478
29.1,32346.8,35749.9,1.3993,1.844,142.5,98.1,0.478
29.12,32391.7,35666.2,1.5802,1.6384,142.5,98.1,0.478
29.14,32188.7,35533.3,0.762,1.3115,142.5,98.1,0.478
29.16,32139.9,35256.6,0.5652,0.631,142.5,98.1,0.478
29.18,32119.3,35147.6,0.4821,0.3631,142.5,98.1,0.478
29.2,32154.4,35038.6,0.6235,0.0949,142.5,98.1,0.478
29.22,32021.9,35014.3,0.0894,0.0353,142.5,98.1,0.478
29.24,32000.0,34987.0,0.0012,-0.0317,142.5,98.1,0.478
29.26,31880.1,34915.5,-0.4822,-0.2078,142.5,98.1,0.478
29.28,31858.0,34761.5,-0.5712,-0.5865,142.5,98.1,0.478
29.3,31843.2,34716.8,-0.631,-0.6963,142.5,98.1,0.478
29.32,31790.9,34630.3,-0.8419,-0.9089,142.5,98.1,0.478
29.34,31779.7,34665.0,-0.8869,-0.8237,142.5,98.1,0.478
29.36,31653.6,34641.6,-1.3953,-0.8811,142.5,98.1,0.478
29.38,31850.2,34483.4,-0.6027,-1.2702,142.5,98.1,0.478
29.4,31732.4,34542.3,-1.0777,-1.1255,142.5,98.1,0.478
29.42,31807.8,34538.6,-0.7738,-1.1346,142.5,98.1,0.478
29.44,31911.7,34688.2,-0.355,-0.7667,142.5,98.1,0.478
29.46,32070.4,34946.8,0.2851,-0.1307,142.5,98.1,0.478
29.48,32154.0,35446.4,0.6218,1.0979,142.5,98.1,0.478
29.5,32198.6,35710.3,0.8019,1.7468,142.5,98.1,0.478
29.52,32339.6,35798.8,1.3703,1.9643,142.5,98.1,0.478
29.54,32245.8,35616.5,0.9921,1.516,142.5,98.1,0.478
29.56,32170.8,35485.2,0.6897,1.1932,142.5,98.1,0.478
29.58,32132.5,35381.9,0.5354,0.9391,142.5,98.1,0.478
29.6,32092.5,35176.6,0.3741,0.4343,142.5,98.1,0.478
29.62,32018.7,35011.2,0.0767,0.0276,142.5,98.1,0.478
29.64,31997.4,35024.8,-0.0094,0.0612,142.5,98.1,0.478
29.66,31952.1,35011.5,-0.192,0.0284,142.5,98.1,0.478
29.68,32033.6,34847.6,0.1367,-0.3746,142.5,98.1,0.478
29.7,31951.9,34728.2,-0.1928,-0.6683,142.5,98.1,0.478
29.72,31898.8,34689.3,-0.407,-0.7639,142.5,98.1,0.478
29.74,31872.7,34707.9,-0.5121,-0.7181,142.5,98.1,0.478
29.76,31932.3,34637.5,-0.2716,-0.8913,142.5,98.1,0.478
29.78,31815.0,34658.8,-0.7447,-0.8389,142.5,98.1,0.478
29.8,31833.1,34430.7,-0.6717,-1.3997,142.5,98.1,0.478
29.82,31704.5,34465.4,-1.19,-1.3144,142.5,98.1,0.478
29.84,31851.6,34507.6,-0.597,-1.2107,142.5,98.1,0.478
29.86,31859.5,34560.0,-0.5651,-1.0819,142.5,98.1,0.478
29.88,32065.4,34998.9,0.2648,-0.0025,142.5,98.1,0.478
29.9,32132.6,35334.1,0.5356,0.8217,142.5,98.1,0.478
29.92,32401.6,35535.4,1.6201,1.3167,142.5,98.1,0.478
29.94,32223.6,35835.2,0.9024,2.0539,142.5,98.1,0.478
29.96,32346.4,35621.5,1.3974,1.5284,142.5,98.1,0.478
29.98,32183.2,35459.2,0.7396,1.1294,142.5,98.1,0.478
30.0,32167.5,35306.8,0.6762,0.7544,142.5,98.1,0.478
30.02,32097.5,35141.2,0.3942,0.3474,142.5,98.1,0.478
30.04,32061.2,35163.4,0.2477,0.402,142.5,98.1,0.478
30.06,32054.5,35063.6,0.221,0.1566,142.5,98.1,0.478
30.08,31987.4,34990.8,-0.0496,-0.0226,142.5,98.1,0.478
30.1,31972.9,34797.8,-0.108,-0.4971,142.5,98.1,0.478
30.12,31860.2,34853.5,-0.5624,-0.3601,142.5,98.1,0.478
30.14,31815.9,34727.8,-0.741,-0.6692,142.5,98.1,0.478
30.16,31847.1,34641.3,-0.6151,-0.8819,142.5,98.1,0.478
30.18,31844.6,34678.7,-0.6253,-0.79,142.5,98.1,0.478
30.2,31762.6,34631.2,-0.9557,-0.9068,142.5,98.1,0.478
30.22,31879.2,34575.7,-0.486,-1.0432,142.5,98.1,0.478
30.24,31801.4,34494.4,-0.7993,-1.2431,142.5,98.1,0.478
30.26,31800.6,34529.4,-0.8026,-1.157,142.5,98.1,0.478
30.28,31816.8,34622.4,-0.7375,-0.9284,142.5,98.1,0.478
30.3,32027.4,34911.6,0.1115,-0.2173,142.5,98.1,0.478
30.32,32137.8,35330.4,0.5566,0.8126,142.5,98.1,0.478
30.34,32281.9,35708.5,1.1376,1.7422,142.5,98.1,0.478
30.36,32337.6,35763.8,1.362,1.8782,142.5,98.1,0.478
30.38,32350.1,35610.4,1.4126,1.5011,142.5,98.1,0.478
30.4,32300.2,35393.0,1.2115,0.9664,142.5,98.1,0.478
30.42,32166.6,35326.4,0.6727,0.8027,142.5,98.1,0.478
30.44,32101.4,35244.1,0.4098,0.6004,142.5,98.1,0.478
30.46,32123.5,35123.9,0.4991,0.3049,142.5,98.1,0.478
30.48,32070.1,35113.1,0.2838,0.2782,142.5,98.1,0.478
30.5,31939.9,34961.2,-0.2412,-0.0953,142.5,98.1,0.478
30.52,31944.4,34772.0,-0.2231,-0.5605,142.5,98.1,0.478
30.54,31845.9,34772.4,-0.62,-0.5597,142.5,98.1,0.478
30.56,31850.5,34687.4,-0.6014,-0.7685,142.5,98.1,0.478
30.58,31828.6,34659.9,-0.6899,-0.8362,142.5,98.1,0.478
30.6,31850.1,34633.9,-0.6031,-0.9001,142.5,98.1,0.478
30.62,31827.4,34594.4,-0.6946,-0.9972,142.5,98.1,0.478
30.64,31806.0,34633.9,-0.7808,-0.9002,142.5,98.1,0.478
30.66,31823.7,34508.1,-0.7097,-1.2094,142.5,98.1,0.478
30.68,31746.4,34512.3,-1.021,-1.1992,142.5,98.1,0.478
30.7,31886.6,34613.5,-0.4559,-0.9504,142.5,98.1,0.478
30.72,32041.9,34973.4,0.1699,-0.0654,142.5,98.1,0.478
30.74,32121.6,35214.6,0.4913,0.5278,142.5,98.1,0.478
30.76,32207.0,35636.7,0.8358,1.5658,142.5,98.1,0.478
30.78,32331.7,35848.2,1.3382,2.0857,142.5,98.1,0.478
30.8,32347.3,35648.7,1.4012,1.5953,142.5,98.1,0.478
30.82,32277.4,35508.0,1.1193,1.2492,142.5,98.1,0.478
30.84,32111.7,35268.7,0.4513,0.6609,142.5,98.1,0.478
30.86,32133.1,35157.3,0.5375,0.3868,142.5,98.1,0.478
30.88,31998.3,35103.7,-0.0057,0.255,142.5,98.1,0.478
30.9,32008.4,35129.2,0.0348,0.3179,142.5,98.1,0.478
30.92,31983.3,34931.5,-0.0661,-0.1683,142.5,98.1,0.478
30.94,32030.7,34842.3,0.125,-0.3876,142.5,98.1,0.478
30.96,31937.3,34659.3,-0.2514,-0.8377,142.5,98.1,0.478
30.98,31826.2,34599.0,-0.6994,-0.9861,142.5,98.1,0.478
31.0,31821.8,34736.1,-0.7171,-0.6488,142.5,98.1,0.478
31.02,31862.8,34681.8,-0.5517,-0.7824,142.5,98.1,0.478
31.04,31774.4,34640.2,-0.9082,-0.8845,142.5,98.1,0.478
31.06,31728.8,34514.8,-1.0921,-1.1931,142.5,98.1,0.478
31.08,31774.1,34409.9,-0.9096,-1.4509,142.5,98.1,0.478
31.1,31797.3,34460.1,-0.8158,-1.3274,142.5,98.1,0.478
31.12,31702.1,34614.2,-1.1997,-0.9486,142.5,98.1,0.478
31.14,32024.7,35009.8,0.1009,0.0243,142.5,98.1,0.478
31.16,32127.2,35243.6,0.514,0.5991,142.5,98.1,0.478
31.18,32242.9,35661.6,0.9804,1.6269,142.5,98.1,0.478
31.2,32285.9,35758.2,1.1536,1.8646,142.5,98.1,0.478
31.22,32205.5,35817.4,0.8295,2.01,142.5,98.1,0.478
31.24,32103.5,35535.6,0.4182,1.3171,142.5,98.1,0.478
31.26,32260.5,35352.7,1.0513,0.8675,142.5,98.1,0.478
31.28,32053.2,35169.5,0.2155,0.417,142.5,98.1,0.478
31.3,31977.0,35078.0,-0.0917,0.1919,142.5,98.1,0.478
31.32,32021.8,35102.6,0.0892,0.2524,142.5,98.1,0.478
31.34,31983.7,34934.4,-0.0647,-0.1612,142.5,98.1,0.478
31.36,31956.9,34893.6,-0.1726,-0.2616,142.5,98.1,0.478
31.38,31991.0,34744.1,-0.0351,-0.6292,142.5,98.1,0.478
31.4,31938.0,34712.2,-0.2487,-0.7076,142.5,98.1,0.478
31.42,31957.7,34690.2,-0.1695,-0.7618,142.5,98.1,0.478
31.44,31886.6,34579.1,-0.4558,-1.0349,142.5,98.1,0.478
31.46,31883.6,34596.7,-0.4682,-0.9916,142.5,98.1,0.478
31.48,31708.2,34545.4,-1.175,-1.1177,142.5,98.1,0.478
31.5,31789.3,34457.9,-0.8482,-1.333,142.5,98.1,0.478
31.52,31861.8,34489.2,-0.5559,-1.2559,142.5,98.1,0.478
31.54,31874.3,34649.2,-0.5054,-0.8626,142.5,98.1,0.478
31.56,31994.4,34897.7,-0.0214,-0.2514,142.5,98.1,0.478
31.58,32157.2,35260.7,0.6349,0.6412,142.5,98.1,0.478
31.6,32246.9,35597.2,0.9966,1.4687,142.5,98.1,0.478
31.62,32299.3,35765.2,1.2077,1.8818,142.5,98.1,0.478
31.64,32289.3,35716.4,1.1675,1.7618,142.5,98.1,0.478
31.66,32254.4,35499.6,1.0268,1.2287,142.5,98.1,0.478
31.68,32191.0,35372.9,0.7709,0.917,142.5,98.1,0.478
31.7,32186.7,35181.6,0.7538,0.4466,142.5,98.1,0.478
31.72,32104.7,35043.9,0.4231,0.108,142.5,98.1,0.478
31.74,32059.2,35096.7,0.2397,0.238,142.5,98.1,0.478
31.76,31999.3,35023.1,-0.0018,0.0569,142.5,98.1,0.478
31.78,31963.6,34900.6,-0.1457,-0.2443,142.5,98.1,0.478
31.8,31978.5,34948.4,-0.0856,-0.1268,142.5,98.1,0.478
31.82,31798.8,34697.6,-0.8099,-0.7434,142.5,98.1,0.478
31.84,31875.7,34708.5,-0.4999,-0.7168,142.5,98.1,0.478
31.86,31911.2,34673.6,-0.3568,-0.8025,142.5,98.1,0.478
31.88,31782.7,34596.5,-0.8749,-0.9921,142.5,98.1,0.478
31.9,31779.0,34554.3,-0.8899,-1.096,142.5,98.1,0.478
31.92,31765.3,34470.1,-0.945,-1.3028,142.5,98.1,0.478
31.94,31825.4,34515.5,-0.7028,-1.1913,142.5,98.1,0.478
31.96,31710.1,34632.2,-1.1674,-0.9043,142.5,98.1,0.478
31.98,32027.9,34969.9,0.1136,-0.0738,142.5,98.1,0.478
32.0,32171.2,35415.9,0.6913,1.0228,142.5,98.1,0.478
32.02,32323.3,35604.6,1.3046,1.4869,142.5,98.1,0.478
32.04,32332.2,35697.7,1.3404,1.7157,142.5,98.1,0.478
32.06,32287.3,35665.3,1.1592,1.6362,142.5,98.1,0.478
32.08,32161.0,35609.0,0.65,1.4976,142.5,98.1,0.478
32.1,32210.9,35333.7,0.8512,0.8207,142.5,98.1,0.478
32.12,32026.9,35221.2,0.1096,0.5441,142.5,98.1,0.478
32.14,32006.0,35075.1,0.0252,0.1847,142.5,98.1,0.478
32.16,32025.9,35080.8,0.1057,0.1989,142.5,98.1,0.478
32.18,32032.9,35002.0,0.1338,0.0049,142.5,98.1,0.478
32.2,31869.5,34953.8,-0.5247,-0.1135,142.5,98.1,0.478
32.22,31954.5,34822.3,-0.1824,-0.437,142.5,98.1,0.478
32.24,31906.8,34731.0,-0.3745,-0.6614,142.5,98.1,0.478
32.26,31879.2,34875.2,-0.4857,-0.3069,142.5,98.1,0.478
32.28,31849.6,34646.8,-0.6053,-0.8683,142.5,98.1,0.478
32.3,31844.9,34714.8,-0.6243,-0.7011,142.5,98.1,0.478
32.32,31885.0,34550.4,-0.4625,-1.1054,142.5,98.1,0.478
32.34,31773.6,34572.8,-0.9113,-1.0504,142.5,98.1,0.478
32.36,31854.7,34479.5,-0.5845,-1.2799,142.5,98.1,0.478
32.38,31820.6,34666.5,-0.7221,-0.8199,142.5,98.1,0.478
32.4,31936.2,34880.0,-0.2559,-0.295,142.5,98.1,0.478
32.42,32175.7,35309.1,0.7095,0.7601,142.5,98.1,0.478
32.44,32345.6,35695.0,1.3943,1.7092,142.5,98.1,0.478
32.46,32290.6,35708.4,1.1725,1.7421,142.5,98.1,0.478
32.48,32279.6,35662.0,1.1284,1.628,142.5,98.1,0.478
32.5,32217.3,35541.1,0.8772,1.3306,142.5,98.1,0.478
32.52,32152.0,35380.4,0.6139,0.9355,142.5,98.1,0.478
32.54,32094.2,35145.3,0.3811,0.3573,142.5,98.1,0.478
32.56,32025.9,35132.1,0.1055,0.3249,142.5,98.1,0.478
32.58,32057.7,35077.4,0.2339,0.1904,142.5,98.1,0.478
32.6,31995.9,35068.9,-0.0155,0.1695,142.5,98.1,0.478
32.62,32056.8,34876.0,0.2302,-0.3047,142.5,98.1,0.478
32.64,31960.7,34743.1,-0.1573,-0.6315,142.5,98.1,0.478
32.66,31838.6,34614.8,-0.6494,-0.947,142.5,98.1,0.478
32.68,31922.7,34733.4,-0.3106,-0.6555,142.5,98.1,0.478
32.7,31790.3,34685.8,-0.8442,-0.7725,142.5,98.1,0.478
32.72,31814.0,34598.6,-0.7485,-0.9869,142.5,98.1,0.478
32.74,31899.9,34508.0,-0.4024,-1.2097,142.5,98.1,0.478
32.76,31732.5,34503.0,-1.0771,-1.222,142.5,98.1,0.478
32.78,31685.2,34518.6,-1.2678,-1.1836,142.5,98.1,0.478
32.8,31840.5,34555.8,-0.642,-1.0921,142.5,98.1,0.478
32.82,31973.7,34859.2,-0.1047,-0.3461,142.5,98.1,0.478
32.84,32102.9,35212.0,0.4162,0.5215,142.5,98.1,0.478
32.86,32154.8,35520.6,0.6253,1.2803,142.5,98.1,0.478
32.88,32296.3,35763.6,1.1957,1.8777,142.5,98.1,0.478
32.9,32323.3,35754.7,1.3045,1.856,142.5,98.1,0.478
32.92,32223.4,35589.2,0.9019,1.449,142.5,98.1,0.478
32.94,32125.3,35336.4,0.5064,0.8272,142.5,98.1,0.478
32.96,32072.5,35210.9,0.2934,0.5187,142.5,98.1,0.478
32.98,32020.9,35075.3,0.0856,0.1853,142.5,98.1,0.478
33.0,32041.2,35105.1,0.1674,0.2585,142.5,98.1,0.478
33.02,31985.3,35016.8,-0.0582,0.0415,142.5,98.1,0.478
33.04,32027.4,34842.1,0.1117,-0.3882,142.5,98.1,0.478
33.06,31951.5,34839.5,-0.1942,-0.3945,142.5,98.1,0.478
33.08,31927.4,34714.9,-0.2914,-0.7011,142.5,98.1,0.478
33.1,31828.6,34640.7,-0.6896,-0.8833,142.5,98.1,0.478
33.12,31921.3,34654.1,-0.316,-0.8505,142.5,98.1,0.478
33.14,31846.0,34648.6,-0.6197,-0.864,142.5,98.1,0.478
33.16,31673.6,34545.3,-1.3146,-1.118,142.5,98.1,0.478
33.18,31697.0,34488.1,-1.2202,-1.2587,142.5,98.1,0.478
33.2,31740.8,34447.0,-1.0437,-1.3596,142.5,98.1,0.478
33.22,31756.9,34626.9,-0.9787,-0.9173,142.5,98.1,0.478
33.24,31865.4,34910.7,-0.5416,-0.2194,142.5,98.1,0.478
33.26,32025.6,35150.7,0.1044,0.3707,142.5,98.1,0.478
33.28,32297.1,35439.7,1.1989,1.0812,142.5,98.1,0.478
33.3,32222.3,35739.7,0.8973,1.819,142.5,98.1,0.478
33.32,32269.8,35680.2,1.089,1.6728,142.5,98.1,0.478
33.34,32218.4,35620.0,0.8817,1.5246,142.5,98.1,0.478
33.36,32182.6,35465.1,0.7372,1.1439,142.5,98.1,0.478
33.38,32091.9,35258.6,0.3716,0.6359,142.5,98.1,0.478
33.4,32096.4,35111.8,0.3899,0.2751,142.5,98.1,0.478
33.42,32006.7,35018.5,0.028,0.0456,142.5,98.1,0.478
33.44,32029.0,35075.6,0.1183,0.1861,142.5,98.1,0.478
33.46,31983.7,34942.6,-0.0644,-0.141,142.5,98.1,0.478
33.48,31878.3,34819.2,-0.4895,-0.4444,142.5,98.1,0.478
33.5,31862.2,34813.6,-0.5545,-0.4582,142.5,98.1,0.478
33.52,31798.0,34755.4,-0.8131,-0.6013,142.5,98.1,0.478
33.54,31750.1,34560.9,-1.0064,-1.0798,142.5,98.1,0.478
33.56,31905.1,34744.2,-0.3814,-0.6289,142.5,98.1,0.478
33.58,31864.1,34553.8,-0.5466,-1.0971,142.5,98.1,0.478
33.6,31775.3,34477.5,-0.9046,-1.2848,142.5,98.1,0.478
33.62,31752.5,34531.0,-0.9966,-1.1533,142.5,98.1,0.478
33.64,31783.9,34613.2,-0.8698,-0.9509,142.5,98.1,0.478
33.66,31847.5,34823.8,-0.6136,-0.4331,142.5,98.1,0.478
33.68,32014.2,35199.3,0.0586,0.4902,142.5,98.1,0.478
33.7,32294.5,35432.3,1.1883,1.0632,142.5,98.1,0.478
33.72,32340.1,35683.0,1.3723,1.6797,142.5,98.1,0.478
33.74,32291.0,35668.2,1.1741,1.6431,142.5,98.1,0.478
33.76,32328.5,35643.9,1.3253,1.5834,142.5,98.1,0.478
33.78,32110.6,35361.0,0.4468,0.8878,142.5,98.1,0.478
33.8,32113.4,35327.8,0.4584,0.806,142.5,98.1,0.478
33.82,32036.7,35045.1,0.1493,0.1111,142.5,98.1,0.478
33.84,32027.8,35027.9,0.1132,0.0687,142.5,98.1,0.478
33.86,31939.6,35104.5,-0.2423,0.2572,142.5,98.1,0.478
33.88,31903.5,34849.9,-0.3877,-0.3689,142.5,98.1,0.478
33.9,31937.4,34838.4,-0.251,-0.3973,142.5,98.1,0.478
33.92,31844.4,34709.9,-0.6263,-0.7132,142.5,98.1,0.478
33.94,31837.8,34627.7,-0.6526,-0.9154,142.5,98.1,0.478
33.96,31787.4,34679.5,-0.856,-0.7879,142.5,98.1,0.478
33.98,31789.6,34594.9,-0.8471,-0.9961,142.5,98.1,0.478
34.0,31767.1,34532.5,-0.9377,-1.1496,142.5,98.1,0.478
34.02,31810.5,34453.3,-0.7628,-1.3441,142.5,98.1,0.478
34.04,31706.6,34500.8,-1.1818,-1.2275,142.5,98.1,0.478
34.06,31822.6,34600.7,-0.7142,-0.9818,142.5,98.1,0.478
34.08,31962.6,34796.1,-0.1494,-0.5012,142.5,98.1,0.478
34.1,32122.8,35166.1,0.4962,0.4085,142.5,98.1,0.478
34.12,32277.1,35534.5,1.1181,1.3145,142.5,98.1,0.478
34.14,32438.7,35687.2,1.7696,1.6898,142.5,98.1,0.478
34.16,32361.3,35734.2,1.4577,1.8054,142.5,98.1,0.478
34.18,32213.8,35589.2,0.8628,1.4488,142.5,98.1,0.478
34.2,32071.7,35307.2,0.29,0.7554,142.5,98.1,0.478
34.22,32101.9,35193.1,0.4119,0.4751,142.5,98.1,0.478
34.24,32150.9,35124.0,0.6096,0.3049,142.5,98.1,0.478
34.26,32007.0,35058.9,0.0292,0.145,142.5,98.1,0.478
34.28,31971.5,35065.6,-0.1136,0.1614,142.5,98.1,0.478
34.3,31935.7,34860.7,-0.2579,-0.3424,142.5,98.1,0.478
34.32,31956.5,34859.6,-0.1741,-0.3451,142.5,98.1,0.478
34.34,31934.4,34716.0,-0.2631,-0.6982,142.5,98.1,0.478
34.36,31808.6,34651.4,-0.7706,-0.857,142.5,98.1,0.478
34.38,31878.9,34665.3,-0.487,-0.8229,142.5,98.1,0.478
34.4,31906.0,34579.3,-0.3776,-1.0344,142.5,98.1,0.478
34.42,31808.8,34546.2,-0.7698,-1.1158,142.5,98.1,0.478
34.44,31805.4,34430.9,-0.7834,-1.3994,142.5,98.1,0.478
34.46,31765.6,34514.3,-0.9437,-1.1942,142.5,98.1,0.478
34.48,31735.9,34516.0,-1.0634,-1.1901,142.5,98.1,0.478
34.5,31853.7,34812.2,-0.5888,-0.4618,142.5,98.1,0.478
34.52,32110.6,35158.0,0.447,0.3886,142.5,98.1,0.478
34.54,32240.3,35498.8,0.9698,1.2266,142.5,98.1,0.478
34.56,32363.1,35718.5,1.4651,1.7669,142.5,98.1,0.478
34.58,32310.2,35732.7,1.2517,1.8019,142.5,98.1,0.478
34.6,32236.9,35630.0,0.9561,1.5493,142.5,98.1,0.478
34.62,32178.3,35443.1,0.7197,1.0897,142.5,98.1,0.478
34.64,32133.2,35287.4,0.5381,0.7068,142.5,98.1,0.478
34.66,32078.6,35136.4,0.318,0.3356,142.5,98.1,0.478
34.68,31982.4,35067.2,-0.0698,0.1654,142.5,98.1,0.478
34.7,31954.6,35016.2,-0.1817,0.04,142.5,98.1,0.478
34.72,31966.0,34960.4,-0.136,-0.0973,142.5,98.1,0.478
34.74,31923.1,34904.7,-0.3089,-0.2343,142.5,98.1,0.478
34.76,31815.3,34745.6,-0.7436,-0.6255,142.5,98.1,0.478
34.78,31774.0,34649.2,-0.9101,-0.8624,142.5,98.1,0.478
34.8,31819.8,34653.1,-0.7252,-0.853,142.5,98.1,0.478
34.82,31808.7,34650.2,-0.7699,-0.86,142.5,98.1,0.478
34.84,31722.6,34594.0,-1.117,-0.9983,142.5,98.1,0.478
34.86,31830.5,34473.0,-0.6821,-1.2957,142.5,98.1,0.478
34.88,31776.3,34382.6,-0.9005,-1.5181,142.5,98.1,0.478
34.9,31898.3,34553.1,-0.409,-1.0988,142.5,98.1,0.478
34.92,31872.5,34785.5,-0.5129,-0.5274,142.5,98.1,0.478
34.94,32080.3,35105.2,0.3249,0.2588,142.5,98.1,0.478
34.96,32223.0,35504.9,0.9003,1.2415,142.5,98.1,0.478
34.98,32293.9,35675.4,1.1857,1.6608,142.5,98.1,0.478
35.0,32218.2,35597.3,0.8808,1.4688,142.5,98.1,0.478
35.02,32237.8,35539.1,0.9597,1.3258,142.5,98.1,0.478
35.04,32178.5,35425.6,0.7206,1.0467,142.5,98.1,0.478
35.06,32102.4,35187.5,0.4139,0.4612,142.5,98.1,0.478
35.08,31969.2,35170.4,-0.123,0.4191,142.5,98.1,0.478
35.1,31970.9,35025.8,-0.1161,0.0635,142.5,98.1,0.478
35.12,32059.3,34965.3,0.2401,-0.0852,142.5,98.1,0.478
35.14,31997.5,34950.2,-0.009,-0.1223,142.5,98.1,0.478
35.16,31892.0,34790.7,-0.4344,-0.5146,142.5,98.1,0.478
35.18,31894.3,34723.8,-0.4251,-0.679,142.5,98.1,0.478
35.2,31918.5,34700.8,-0.3273,-0.7357,142.5,98.1,0.478
35.22,31819.8,34701.1,-0.7254,-0.735,142.5,98.1,0.478
35.24,31875.4,34705.1,-0.5013,-0.7249,142.5,98.1,0.478
35.26,31815.8,34536.0,-0.7415,-1.1408,142.5,98.1,0.478
35.28,31811.7,34532.8,-0.758,-1.1487,142.5,98.1,0.478
35.3,31732.6,34461.9,-1.0766,-1.3231,142.5,98.1,0.478
35.32,31813.9,34437.3,-0.7491,-1.3836,142.5,98.1,0.478
35.34,31891.5,34798.6,-0.4363,-0.4952,142.5,98.1,0.478
35.36,31988.2,35096.5,-0.0462,0.2373,142.5,98.1,0.478
35.38,32221.3,35521.3,0.8934,1.282,142.5,98.1,0.478
35.4,32366.6,35808.1,1.4789,1.9872,142.5,98.1,0.478
35.42,32331.7,35805.1,1.3383,1.98,142.5,98.1,0.478
35.44,32264.1,35701.1,1.066,1.724,142.5,98.1,0.478
35.46,32134.0,35451.7,0.5414,1.1109,142.5,98.1,0.478
35.48,32104.1,35262.3,0.421,0.6451,142.5,98.1,0.478
35.5,32049.4,35078.1,0.2005,0.1923,142.5,98.1,0.478
35.52,32053.5,35025.8,0.2168,0.0636,142.5,98.1,0.478
35.54,32088.0,35095.2,0.3559,0.2342,142.5,98.1,0.478
35.56,32009.6,34831.5,0.0398,-0.4142,142.5,98.1,0.478
35.58,32001.0,34839.6,0.005,-0.3944,142.5,98.1,0.478
35.6,31987.1,34674.4,-0.0507,-0.8006,142.5,98.1,0.478
35.62,31902.0,34704.5,-0.3941,-0.7265,142.5,98.1,0.478
35.64,31870.5,34713.5,-0.521,-0.7043,142.5,98.1,0.478
35.66,31848.4,34683.1,-0.6099,-0.7792,142.5,98.1,0.478
35.68,31827.1,34676.2,-0.6959,-0.7961,142.5,98.1,0.478
35.7,31778.4,34512.6,-0.8923,-1.1984,142.5,98.1,0.478
35.72,31751.6,34390.1,-1.0001,-1.4997,142.5,98.1,0.478
35.74,31786.1,34531.8,-0.8612,-1.1512,142.5,98.1,0.478
35.76,31912.2,34774.8,-0.3527,-0.5538,142.5,98.1,0.478
35.78,32050.8,35149.5,0.2058,0.3677,142.5,98.1,0.478
35.8,32274.6,35452.2,1.108,1.1119,142.5,98.1,0.478
35.82,32322.5,35720.3,1.3011,1.7713,142.5,98.1,0.478
35.84,32341.3,35708.0,1.3769,1.741,142.5,98.1,0.478
35.86,32285.8,35638.5,1.1534,1.5703,142.5,98.1,0.478
35.88,32166.1,35407.9,0.6709,1.0032,142.5,98.1,0.478
35.9,32040.4,35201.0,0.1639,0.4945,142.5,98.1,0.478
35.92,32141.2,35175.5,0.5705,0.4316,142.5,98.1,0.478
35.94,31997.5,35098.1,-0.0089,0.2412,142.5,98.1,0.478
35.96,31992.5,34957.6,-0.0292,-0.1042,142.5,98.1,0.478
35.98,31929.4,34934.4,-0.2835,-0.1612,142.5,98.1,0.478
36.0,31983.4,34911.6,-0.066,-0.2172,142.5,98.1,0.478
36.02,31909.4,34761.6,-0.3639,-0.586,142.5,98.1,0.478
36.04,31908.8,34636.2,-0.3666,-0.8945,142.5,98.1,0.478
36.06,31955.7,34619.9,-0.1775,-0.9345,142.5,98.1,0.478
36.08,31832.8,34650.5,-0.6728,-0.8594,142.5,98.1,0.478
36.1,31783.5,34538.9,-0.8715,-1.1336,142.5,98.1,0.478
36.12,31730.9,34438.8,-1.0836,-1.3799,142.5,98.1,0.478
36.14,31664.1,34376.4,-1.3528,-1.5334,142.5,98.1,0.478
36.16,31741.9,34503.1,-1.0392,-1.2219,142.5,98.1,0.478
36.18,31878.5,34709.7,-0.4887,-0.7138,142.5,98.1,0.478
36.2,32054.6,35105.5,0.2212,0.2595,142.5,98.1,0.478
36.22,32077.3,35462.5,0.3128,1.1373,142.5,98.1,0.478
36.24,32351.4,35795.2,1.4175,1.9556,142.5,98.1,0.478
36.26,32307.7,35747.0,1.2414,1.8371,142.5,98.1,0.478
36.28,32285.0,35647.0,1.15,1.591,142.5,98.1,0.478
36.3,32203.5,35331.3,0.8217,0.8149,142.5,98.1,0.478
36.32,32111.1,35297.9,0.4489,0.7326,142.5,98.1,0.478
36.34,32090.9,35161.8,0.3675,0.3979,142.5,98.1,0.478
36.36,32095.0,35033.2,0.3841,0.0818,142.5,98.1,0.478
36.38,32105.6,34996.3,0.4268,-0.0091,142.5,98.1,0.478
36.4,32035.1,34890.5,0.1426,-0.2693,142.5,98.1,0.478
36.42,32030.2,34887.6,0.123,-0.2764,142.5,98.1,0.478
36.44,31939.1,34698.5,-0.2443,-0.7413,142.5,98.1,0.478
36.46,31855.1,34688.1,-0.583,-0.7668,142.5,98.1,0.478
36.48,31777.8,34748.7,-0.8946,-0.6178,142.5,98.1,0.478
36.5,31875.2,34659.2,-0.5021,-0.838,142.5,98.1,0.478
36.52,31781.7,34671.7,-0.8787,-0.8071,142.5,98.1,0.478
36.54,31875.7,34483.7,-0.4999,-1.2696,142.5,98.1,0.478
36.56,31844.4,34441.0,-0.6261,-1.3744,142.5,98.1,0.478
36.58,31771.6,34576.0,-0.9195,-1.0424,142.5,98.1,0.478
36.6,31953.6,34694.7,-0.186,-0.7507,142.5,98.1,0.478
36.62,32015.4,35113.0,0.0634,0.278,142.5,98.1,0.478
36.64,32283.9,35404.8,1.1458,0.9954,142.5,98.1,0.478
36.66,32316.1,35683.4,1.2753,1.6805,142.5,98.1,0.478
36.68,32371.9,35838.4,1.5003,2.0617,142.5,98.1,0.478
36.7,32339.6,35590.1,1.37,1.4512,142.5,98.1,0.478
36.72,32242.3,35442.6,0.9781,1.0884,142.5,98.1,0.478
36.74,32105.8,35376.2,0.4277,0.9252,142.5,98.1,0.478
36.76,32054.2,35220.2,0.2198,0.5415,142.5,98.1,0.478
36.78,32105.9,35137.9,0.4281,0.3393,142.5,98.1,0.478
36.8,32023.9,34990.0,0.0974,-0.0245,142.5,98.1,0.478
36.82,31960.8,34971.5,-0.157,-0.07,142.5,98.1,0.478
36.84,32023.3,34871.5,0.0951,-0.3159,142.5,98.1,0.478
36.86,31923.0,34746.1,-0.3091,-0.6243,142.5,98.1,0.478
36.88,31931.0,34731.0,-0.277,-0.6613,142.5,98.1,0.478
36.9,31859.4,34687.0,-0.5657,-0.7695,142.5,98.1,0.478
36.92,31840.2,34627.1,-0.643,-0.917,142.5,98.1,0.478
36.94,31771.9,34627.3,-0.9185,-0.9165,142.5,98.1,0.478
36.96,31762.5,34497.2,-0.9561,-1.2362,142.5,98.1,0.478
36.98,31822.7,34473.9,-0.7134,-1.2936,142.5,98.1,0.478
37.0,31810.8,34384.2,-0.7616,-1.514,142.5,98.1,0.478
37.02,31905.1,34757.6,-0.3814,-0.5959,142.5,98.1,0.478
37.04,32018.6,35064.5,0.0762,0.1586,142.5,98.1,0.478
37.06,32113.5,35376.2,0.4588,0.9251,142.5,98.1,0.478
37.08,32281.9,35781.8,1.1376,1.9225,142.5,98.1,0.478
37.1,32348.5,35838.9,1.4058,2.0631,142.5,98.1,0.478
37.12,32265.8,35573.2,1.0725,1.4096,142.5,98.1,0.478
37.14,32194.5,35460.7,0.7854,1.1329,142.5,98.1,0.478
37.16,32129.5,35331.2,0.5231,0.8145,142.5,98.1,0.478
37.18,31978.5,35202.2,-0.0855,0.4973,142.5,98.1,0.478
37.2,32027.8,35081.7,0.1131,0.2009,142.5,98.1,0.478
37.22,31983.0,34978.4,-0.0674,-0.053,142.5,98.1,0.478
37.24,31859.8,34911.7,-0.5641,-0.217,142.5,98.1,0.478
37.26,31950.9,34800.0,-0.197,-0.4917,142.5,98.1,0.478
37.28,31872.1,34676.5,-0.5145,-0.7953,142.5,98.1,0.478
37.3,31780.4,34736.0,-0.8842,-0.6491,142.5,98.1,0.478
37.32,31780.5,34657.8,-0.8836,-0.8415,142.5,98.1,0.478
37.34,31885.2,34650.6,-0.4616,-0.859,142.5,98.1,0.478
37.36,31732.4,34473.6,-1.0776,-1.2944,142.5,98.1,0.478
37.38,31782.6,34520.4,-0.875,-1.1792,142.5,98.1,0.478
37.4,31669.6,34473.4,-1.3306,-1.2949,142.5,98.1,0.478
37.42,31771.5,34419.6,-0.9198,-1.4271,142.5,98.1,0.478
37.44,31894.6,34793.9,-0.4238,-0.5068,142.5,98.1,0.478
37.46,32000.6,35023.6,0.0035,0.058,142.5,98.1,0.478
37.48,32133.3,35370.7,0.5385,0.9116,142.5,98.1,0.478
37.5,32312.2,35726.6,1.2598,1.7868,142.5,98.1,0.478
37.52,32363.8,35703.9,1.4677,1.731,142.5,98.1,0.478
37.54,32263.8,35513.6,1.0647,1.2631,142.5,98.1,0.478
37.56,32197.2,35439.8,0.7962,1.0817,142.5,98.1,0.478
37.58,32137.3,35220.2,0.5546,0.5415,142.5,98.1,0.478
37.6,32076.8,35197.7,0.3108,0.4862,142.5,98.1,0.478
37.62,32025.9,35059.5,0.1054,0.1465,142.5,98.1,0.478
37.64,32009.2,35112.9,0.0382,0.2778,142.5,98.1,0.478
37.66,31921.3,34921.7,-0.3162,-0.1925,142.5,98.1,0.478
37.68,32003.1,34907.8,0.0136,-0.2265,142.5,98.1,0.478
37.7,31907.9,34761.3,-0.3701,-0.5869,142.5,98.1,0.478
37.72,31886.0,34634.1,-0.4582,-0.8997,142.5,98.1,0.478
37.74,31815.7,34690.1,-0.7419,-0.7618,142.5,98.1,0.478
37.76,31888.5,34616.0,-0.4484,-0.9442,142.5,98.1,0.478
37.78,31794.9,34613.4,-0.8255,-0.9506,142.5,98.1,0.478
37.8,31742.2,34499.7,-1.0383,-1.2302,142.5,98.1,0.478
37.82,31775.4,34409.5,-0.9044,-1.4518,142.5,98.1,0.478
37.84,31763.5,34568.1,-0.952,-1.062,142.5,98.1,0.478
37.86,31852.4,34630.8,-0.5939,-0.9078,142.5,98.1,0.478
37.88,32061.0,34967.2,0.2472,-0.0806,142.5,98.1,0.478
37.9,32217.0,35395.8,0.876,0.9734,142.5,98.1,0.478
37.92,32298.8,35653.3,1.2058,1.6067,142.5,98.1,0.478
37.94,32280.0,35769.7,1.13,1.8929,142.5,98.1,0.478
37.96,32263.5,35735.9,1.0632,1.8097,142.5,98.1,0.478
37.98,32143.8,35514.4,0.5809,1.2649,142.5,98.1,0.478
38.0,32154.8,35222.0,0.6251,0.5461,142.5,98.1,0.478
38.02,32044.9,35068.7,0.1821,0.1692,142.5,98.1,0.478
38.04,32044.6,35172.7,0.1809,0.4248,142.5,98.1,0.478
38.06,31967.8,34997.5,-0.1284,-0.006,142.5,98.1,0.478
38.08,31971.2,34902.0,-0.1148,-0.2408,142.5,98.1,0.478
38.1,31981.9,34819.2,-0.0717,-0.4445,142.5,98.1,0.478
38.12,31817.9,34760.7,-0.7328,-0.5883,142.5,98.1,0.478
38.14,31938.5,34691.9,-0.2469,-0.7574,142.5,98.1,0.478
38.16,31790.6,34662.1,-0.8429,-0.8308,142.5,98.1,0.478
38.18,31742.9,34694.6,-1.0352,-0.7508,142.5,98.1,0.478
38.2,31752.7,34614.3,-0.9958,-0.9483,142.5,98.1,0.478
38.22,31767.0,34581.2,-0.9382,-1.0297,142.5,98.1,0.478
38.24,31714.7,34463.2,-1.1491,-1.32,142.5,98.1,0.478
38.26,31918.0,34435.2,-0.3294,-1.3888,142.5,98.1,0.478
38.28,31816.8,34625.2,-0.7374,-0.9215,142.5,98.1,0.478
38.3,32025.8,34972.0,0.1051,-0.0687,142.5,98.1,0.478
38.32,32144.6,35343.5,0.5842,0.8447,142.5,98.1,0.478
38.34,32264.4,35639.7,1.0669,1.5731,142.5,98.1,0.478
38.36,32399.4,35748.2,1.6112,1.8399,142.5,98.1,0.478
38.38,32271.3,35658.9,1.0949,1.6204,142.5,98.1,0.478
38.4,32258.8,35517.0,1.0444,1.2715,142.5,98.1,0.478
38.42,32059.4,35287.4,0.2404,0.7067,142.5,98.1,0.478
38.44,31905.0,35236.9,-0.3817,0.5826,142.5,98.1,0.478
38.46,32049.6,34988.9,0.2011,-0.0271,142.5,98.1,0.478
38.48,31937.4,35137.1,-0.2511,0.3372,142.5,98.1,0.478
38.5,32033.1,35028.7,0.1345,0.0708,142.5,98.1,0.478
38.52,31895.5,34963.6,-0.42,-0.0895,142.5,98.1,0.478
38.54,31872.1,34723.1,-0.5144,-0.6809,142.5,98.1,0.478
38.56,31838.0,34613.9,-0.6519,-0.9494,142.5,98.1,0.478
38.58,31859.0,34625.7,-0.567,-0.9202,142.5,98.1,0.478
38.6,31937.0,34578.8,-0.2528,-1.0355,142.5,98.1,0.478
38.62,31888.1,34616.9,-0.45,-0.9418,142.5,98.1,0.478
38.64,31825.0,34533.3,-0.7041,-1.1475,142.5,98.1,0.478
38.66,31724.7,34425.0,-1.1085,-1.4137,142.5,98.1,0.478
38.68,31805.7,34430.6,-0.7822,-1.4,142.5,98.1,0.478
38.7,31760.6,34644.6,-0.9638,-0.8738,142.5,98.1,0.478
38.72,32011.4,34985.7,0.0473,-0.0352,142.5,98.1,0.478
38.74,32176.2,35417.4,0.7115,1.0264,142.5,98.1,0.478
38.76,32342.9,35670.7,1.3834,1.6494,142.5,98.1,0.478
38.78,32373.2,35728.8,1.5054,1.7922,142.5,98.1,0.478
38.8,32309.0,35657.2,1.2467,1.6162,142.5,98.1,0.478
38.82,32127.8,35482.5,0.5164,1.1865,142.5,98.1,0.478
38.84,32180.1,35283.1,0.7272,0.6963,142.5,98.1,0.478
38.86,32082.3,35165.3,0.3328,0.4065,142.5,98.1,0.478
38.88,32054.0,35063.7,0.2189,0.1568,142.5,98.1,0.478
38.9,32124.0,35059.1,0.5009,0.1455,142.5,98.1,0.478
38.92,31987.8,34948.7,-0.0481,-0.1261,142.5,98.1,0.478
38.94,31980.8,34861.1,-0.0764,-0.3414,142.5,98.1,0.478
38.96,31926.5,34798.7,-0.2952,-0.4948,142.5,98.1,0.478
38.98,31834.0,34611.8,-0.6679,-0.9544,142.5,98.1,0.478
39.0,31705.5,34588.9,-1.1861,-1.0107,142.5,98.1,0.478
39.02,31852.2,34637.8,-0.5946,-0.8906,142.5,98.1,0.478
39.04,31744.6,34622.5,-1.0283,-0.9281,142.5,98.1,0.478
39.06,31787.2,34526.3,-0.8566,-1.1647,142.5,98.1,0.478
39.08,31745.3,34437.0,-1.0255,-1.3844,142.5,98.1,0.478
39.1,31771.4,34439.8,-0.9205,-1.3773,142.5,98.1,0.478
39.12,31836.1,34688.3,-0.6596,-0.7663,142.5,98.1,0.478
39.14,31978.2,34980.6,-0.0868,-0.0476,142.5,98.1,0.478
39.16,32164.8,35360.1,0.6655,0.8857,142.5,98.1,0.478
39.18,32249.1,35638.7,1.0052,1.5707,142.5,98.1,0.478
39.2,32387.1,35701.7,1.5614,1.7256,142.5,98.1,0.478
39.22,32306.1,35681.7,1.2352,1.6764,142.5,98.1,0.478
39.24,32190.2,35558.4,0.7679,1.3732,142.5,98.1,0.478
39.26,32188.7,35369.5,0.7618,0.9088,142.5,98.1,0.478
39.28,31957.8,35171.9,-0.1691,0.4229,142.5,98.1,0.478
39.3,32092.4,35180.7,0.3737,0.4443,142.5,98.1,0.478
39.32,32015.6,35117.0,0.0642,0.2878,142.5,98.1,0.478
39.34,32047.7,35033.7,0.1936,0.083,142.5,98.1,0.478
39.36,31925.0,34868.7,-0.3011,-0.3228,142.5,98.1,0.478
39.38,31826.1,34713.8,-0.6998,-0.7037,142.5,98.1,0.478
39.4,31906.3,34703.5,-0.3764,-0.729,142.5,98.1,0.478
39.42,31916.2,34677.2,-0.3368,-0.7936,142.5,98.1,0.478
39.44,31864.7,34605.2,-0.5442,-0.9707,142.5,98.1,0.478
39.46,31861.7,34542.5,-0.5564,-1.125,142.5,98.1,0.478
39.48,31758.3,34527.3,-0.973,-1.1622,142.5,98.1,0.478
39.5,31819.9,34433.8,-0.7247,-1.3922,142.5,98.1,0.478
39.52,31729.5,34469.8,-1.0894,-1.3037,142.5,98.1,0.478
39.54,31804.2,34598.8,-0.788,-0.9865,142.5,98.1,0.478
39.56,31939.4,35055.4,-0.243,0.1363,142.5,98.1,0.478
39.58,32116.9,35256.0,0.4726,0.6296,142.5,98.1,0.478
39.6,32224.7,35576.1,0.9071,1.4167,142.5,98.1,0.478
39.62,32269.1,35732.8,1.0858,1.802,142.5,98.1,0.478
39.64,32253.1,35606.3,1.0216,1.4909,142.5,98.1,0.478
39.66,32235.2,35526.0,0.9493,1.2934,142.5,98.1,0.478
39.68,32086.3,35383.4,0.3492,0.9429,142.5,98.1,0.478
39.7,32034.0,35241.3,0.1383,0.5935,142.5,98.1,0.478
39.72,32112.8,35202.7,0.4557,0.4987,142.5,98.1,0.478
39.74,32156.0,35107.5,0.6301,0.2645,142.5,98.1,0.478
39.76,31987.8,35052.0,-0.0478,0.1279,142.5,98.1,0.478
39.78,32042.9,34829.7,0.1739,-0.4188,142.5,98.1,0.478
39.8,31939.0,34805.6,-0.2449,-0.478,142.5,98.1,0.478
39.82,31868.3,34640.6,-0.5299,-0.8836,142.5,98.1,0.478
39.84,31851.7,34716.1,-0.5967,-0.698,142.5,98.1,0.478
39.86,31748.2,34633.4,-1.0138,-0.9013,142.5,98.1,0.478
39.88,31951.4,34579.2,-0.1947,-1.0346,142.5,98.1,0.478
39.9,31811.8,34548.2,-0.7575,-1.1109,142.5,98.1,0.478
39.92,31758.0,34439.4,-0.9743,-1.3783,142.5,98.1,0.478
39.94,31762.5,34460.2,-0.9564,-1.3271,142.5,98.1,0.478
39.96,31836.5,34619.0,-0.658,-0.9367,142.5,98.1,0.478
39.98,31981.3,34937.1,-0.0744,-0.1546,142.5,98.1,0.478
40.0,32140.6,35290.1,0.568,0.7135,142.5,98.1,0.478
40.02,32346.4,35597.4,1.3975,1.4692,142.5,98.1,0.478
40.04,32320.9,35812.7,1.2947,1.9986,142.5,98.1,0.478
40.06,32334.0,35817.7,1.3476,2.0107,142.5,98.1,0.478
40.08,32316.6,35465.7,1.2773,1.1454,142.5,98.1,0.478
40.1,32140.7,35364.1,0.5682,0.8955,142.5,98.1,0.478
40.12,32087.0,35204.7,0.3518,0.5034,142.5,98.1,0.478
40.14,32162.2,35148.1,0.6551,0.3642,142.5,98.1,0.478
40.16,32070.4,34991.6,0.285,-0.0206,142.5,98.1,0.478
40.18,32056.3,34983.1,0.2282,-0.0413,142.5,98.1,0.478
40.2,31968.5,34948.7,-0.1257,-0.1261,142.5,98.1,0.478
40.22,31904.0,34851.1,-0.3859,-0.3661,142.5,98.1,0.478
40.24,31831.4,34765.9,-0.6785,-0.5756,142.5,98.1,0.478
40.26,31835.5,34664.4,-0.6621,-0.8251,142.5,98.1,0.478
40.28,31796.3,34618.0,-0.8198,-0.9393,142.5,98.1,0.478
40.3,31768.2,34659.0,-0.9333,-0.8383,142.5,98.1,0.478
40.32,31774.1,34577.9,-0.9094,-1.0378,142.5,98.1,0.478
40.34,31778.7,34439.5,-0.8908,-1.3783,142.5,98.1,0.478
40.36,31781.3,34392.0,-0.8803,-1.4949,142.5,98.1,0.478
40.38,31918.5,34584.3,-0.3272,-1.022,142.5,98.1,0.478
40.4,32066.2,34955.0,0.2679,-0.1105,142.5,98.1,0.478
40.42,32203.6,35256.8,0.8219,0.6315,142.5,98.1,0.478
40.44,32236.2,35580.9,0.9535,1.4285,142.5,98.1,0.478
40.46,32345.7,35767.9,1.3945,1.8883,142.5,98.1,0.478
40.48,32320.8,35634.9,1.2943,1.5613,142.5,98.1,0.478
40.5,32296.0,35641.3,1.1943,1.577,142.5,98.1,0.478
40.52,32129.5,35392.0,0.5231,0.9641,142.5,98.1,0.478
40.54,32114.1,35198.4,0.461,0.488,142.5,98.1,0.478
40.56,31978.1,35095.3,-0.0872,0.2344,142.5,98.1,0.478
40.58,32078.3,35078.9,0.3168,0.1942,142.5,98.1,0.478
40.6,31980.7,34919.8,-0.0768,-0.1972,142.5,98.1,0.478
40.62,31991.0,34874.9,-0.0353,-0.3076,142.5,98.1,0.478
40.64,31987.9,34801.5,-0.0478,-0.488,142.5,98.1,0.478
40.66,31786.0,34719.4,-0.8614,-0.69,142.5,98.1,0.478
40.68,31873.5,34699.4,-0.5087,-0.739,142.5,98.1,0.478
40.7,31774.6,34655.5,-0.9075,-0.8469,142.5,98.1,0.478
40.72,31861.3,34660.6,-0.558,-0.8345,142.5,98.1,0.478
40.74,31758.2,34558.1,-0.9736,-1.0865,142.5,98.1,0.478
40.76,31725.1,34461.7,-1.107,-1.3235,142.5,98.1,0.478
40.78,31733.6,34427.8,-1.0729,-1.407,142.5,98.1,0.478
40.8,31828.4,34660.5,-0.6905,-0.8348,142.5,98.1,0.478
40.82,31997.7,34953.9,-0.0081,-0.1132,142.5,98.1,0.478
40.84,32170.8,35289.0,0.6895,0.7108,142.5,98.1,0.478
40.86,32196.2,35580.7,0.7923,1.428,142.5,98.1,0.478
40.88,32326.3,35780.8,1.3164,1.9202,142.5,98.1,0.478
40.9,32352.2,35702.8,1.4207,1.7282,142.5,98.1,0.478
40.92,32346.2,35529.4,1.3967,1.3019,142.5,98.1,0.478
40.94,32110.3,35354.2,0.4459,0.8711,142.5,98.1,0.478
40.96,32070.6,35233.2,0.2856,0.5736,142.5,98.1,0.478
40.98,32026.6,35049.9,0.1085,0.1228,142.5,98.1,0.478
41.0,31997.9,35131.1,-0.0073,0.3224,142.5,98.1,0.478
41.02,31963.1,35000.7,-0.1474,0.0018,142.5,98.1,0.478
41.04,31909.1,34989.2,-0.3655,-0.0264,142.5,98.1,0.478
41.06,31890.1,34804.5,-0.4418,-0.4806,142.5,98.1,0.478
41.08,31860.2,34700.8,-0.5626,-0.7356,142.5,98.1,0.478
41.1,31859.8,34678.7,-0.564,-0.79,142.5,98.1,0.478
41.12,31920.4,34678.0,-0.3196,-0.7917,142.5,98.1,0.478
41.14,31869.4,34685.3,-0.5254,-0.7737,142.5,98.1,0.478
41.16,31821.8,34581.0,-0.7172,-1.0303,142.5,98.1,0.478
41.18,31745.3,34634.7,-1.0255,-0.8981,142.5,98.1,0.478
41.2,31841.2,34473.2,-0.6389,-1.2953,142.5,98.1,0.478
41.22,31839.8,34635.3,-0.6445,-0.8966,142.5,98.1,0.478
41.24,31944.7,34949.2,-0.2219,-0.1249,142.5,98.1,0.478
41.26,32151.4,35198.1,0.6114,0.4874,142.5,98.1,0.478
41.28,32341.2,35608.7,1.3767,1.497,142.5,98.1,0.478
41.3,32383.8,35706.9,1.5484,1.7384,142.5,98.1,0.478
41.32,32299.5,35743.9,1.2084,1.8295,142.5,98.1,0.478
41.34,32281.3,35607.2,1.1351,1.4933,142.5,98.1,0.478
41.36,32186.1,35362.4,0.7514,0.8913,142.5,98.1,0.478
41.38,32154.8,35227.3,0.625,0.559,142.5,98.1,0.478
41.4,32060.0,35107.5,0.243,0.2644,142.5,98.1,0.478
41.42,32017.1,34956.0,0.0702,-0.108,142.5,98.1,0.478
41.44,32044.4,34945.1,0.1801,-0.1348,142.5,98.1,0.478
41.46,31847.4,34894.6,-0.6139,-0.2591,142.5,98.1,0.478
41.48,31932.4,34780.4,-0.2715,-0.5399,142.5,98.1,0.478
41.5,31833.0,34720.5,-0.6721,-0.6872,142.5,98.1,0.478
41.52,31896.9,34593.6,-0.4143,-0.9992,142.5,98.1,0.478
41.54,31867.6,34652.8,-0.5324,-0.8537,142.5,98.1,0.478
41.56,31791.3,34638.7,-0.8402,-0.8883,142.5,98.1,0.478
41.58,31766.2,34501.2,-0.9414,-1.2264,142.5,98.1,0.478
41.6,31729.0,34440.5,-1.0912,-1.3757,142.5,98.1,0.478
41.62,31827.4,34370.0,-0.6945,-1.549,142.5,98.1,0.478
41.64,31818.7,34554.7,-0.7299,-1.0949,142.5,98.1,0.478
41.66,31910.9,34918.7,-0.3581,-0.1998,142.5,98.1,0.478
41.68,32084.3,35180.3,0.3409,0.4435,142.5,98.1,0.478
41.7,32312.4,35592.4,1.2603,1.4569,142.5,98.1,0.478
41.72,32312.9,35630.9,1.2624,1.5515,142.5,98.1,0.478
41.74,32265.9,35702.5,1.0732,1.7274,142.5,98.1,0.478
41.76,32314.0,35550.5,1.2668,1.3538,142.5,98.1,0.478
41.78,32145.4,35340.3,0.5871,0.8368,142.5,98.1,0.478
41.8,32117.7,35239.5,0.4756,0.589,142.5,98.1,0.478
41.82,32094.8,35090.3,0.3833,0.2221,142.5,98.1,0.478
41.84,32038.5,35080.0,0.1565,0.1967,142.5,98.1,0.478
41.86,32093.5,34985.2,0.3782,-0.0364,142.5,98.1,0.478
41.88,31964.5,34861.5,-0.1419,-0.3405,142.5,98.1,0.478
41.9,32041.8,34764.5,0.1695,-0.579,142.5,98.1,0.478
41.92,31888.6,34748.1,-0.4478,-0.6193,142.5,98.1,0.478
41.94,31841.6,34759.5,-0.6372,-0.5912,142.5,98.1,0.478
41.96,31922.5,34684.6,-0.3114,-0.7756,142.5,98.1,0.478
41.98,31787.5,34602.9,-0.8556,-0.9764,142.5,98.1,0.478
42.0,31798.0,34504.8,-0.8132,-1.2175,142.5,98.1,0.478
42.02,31823.7,34480.9,-0.7097,-1.2763,142.5,98.1,0.478
42.04,31786.4,34555.7,-0.86,-1.0925,142.5,98.1,0.478
42.06,31823.4,34635.1,-0.7108,-0.8971,142.5,98.1,0.478
42.08,31952.0,34816.1,-0.1925,-0.4521,142.5,98.1,0.478
42.1,32059.0,35225.5,0.239,0.5545,142.5,98.1,0.478
42.12,32264.9,35569.7,1.0692,1.401,142.5,98.1,0.478
42.14,32331.2,35712.4,1.3364,1.7519,142.5,98.1,0.478
42.16,32324.3,35711.6,1.3085,1.7498,142.5,98.1,0.478
42.18,32315.2,35556.3,1.2719,1.368,142.5,98.1,0.478
42.2,32107.9,35392.5,0.436,0.9653,142.5,98.1,0.478
42.22,32106.5,35200.5,0.4303,0.4932,142.5,98.1,0.478
42.24,32008.9,35169.2,0.0368,0.4161,142.5,98.1,0.478
42.26,32106.0,35081.3,0.4286,0.2001,142.5,98.1,0.478
42.28,31976.0,35072.6,-0.0958,0.1787,142.5,98.1,0.478
42.3,31993.6,34885.9,-0.0245,-0.2804,142.5,98.1,0.478
42.32,31890.2,34765.4,-0.4417,-0.5767,142.5,98.1,0.478
42.34,31921.1,34723.9,-0.317,-0.6787,142.5,98.1,0.478
42.36,31821.8,34669.3,-0.7173,-0.8131,142.5,98.1,0.478
42.38,31848.7,34655.8,-0.6089,-0.8462,142.5,98.1,0.478
42.4,31728.4,34672.1,-1.0939,-0.8062,142.5,98.1,0.478
42.42,31899.7,34598.7,-0.4033,-0.9867,142.5,98.1,0.478
42.44,31791.4,34472.6,-0.8398,-1.2967,142.5,98.1,0.478
42.46,31778.8,34472.8,-0.8905,-1.2963,142.5,98.1,0.478
42.48,31748.9,34523.5,-1.0111,-1.1716,142.5,98.1,0.478
42.5,31882.3,34795.2,-0.4734,-0.5035,142.5,98.1,0.478
42.52,32161.5,35235.0,0.6521,0.5779,142.5,98.1,0.478
42.54,32308.3,35507.5,1.244,1.248,142.5,98.1,0.478
42.56,32270.9,35661.9,1.0931,1.6278,142.5,98.1,0.478
42.58,32266.7,35744.1,1.0761,1.8299,142.5,98.1,0.478
42.6,32272.9,35725.0,1.1011,1.7829,142.5,98.1,0.478
42.62,32224.0,35419.8,0.9039,1.0323,142.5,98.1,0.478
42.64,32141.3,35232.1,0.5708,0.5708,142.5,98.1,0.478
42.66,32091.4,35032.8,0.3696,0.0806,142.5,98.1,0.478
42.68,31996.9,35135.7,-0.0112,0.3337,142.5,98.1,0.478
42.7,31943.1,34979.8,-0.2282,-0.0494,142.5,98.1,0.478
42.72,32004.0,34916.3,0.0173,-0.2057,142.5,98.1,0.478
42.74,31947.9,34796.5,-0.2088,-0.5004,142.5,98.1,0.478
42.76,31866.8,34697.0,-0.5359,-0.7451,142.5,98.1,0.478
42.78,31859.7,34770.2,-0.5642,-0.5651,142.5,98.1,0.478
42.8,31827.5,34659.8,-0.6942,-0.8365,142.5,98.1,0.478
42.82,31809.4,34710.1,-0.7671,-0.7128,142.5,98.1,0.478
42.84,31881.2,34653.0,-0.4778,-0.8533,142.5,98.1,0.478
42.86,31733.9,34499.9,-1.0713,-1.2296,142.5,98.1,0.478
42.88,31781.1,34355.1,-0.8811,-1.5857,142.5,98.1,0.478
42.9,31797.8,34552.1,-0.8141,-1.1012,142.5,98.1,0.478
42.92,31872.3,34847.6,-0.5135,-0.3746,142.5,98.1,0.478
42.94,32046.8,35160.6,0.1899,0.395,142.5,98.1,0.478
42.96,32334.5,35478.2,1.3495,1.176,142.5,98.1,0.478
42.98,32298.2,35663.3,1.2033,1.6311,142.5,98.1,0.478
43.0,32307.0,35718.3,1.2388,1.7665,142.5,98.1,0.478
43.02,32219.0,35739.7,0.8842,1.8191,142.5,98.1,0.478
43.04,32090.7,35350.2,0.367,0.8612,142.5,98.1,0.478
43.06,32051.0,35195.6,0.2067,0.481,142.5,98.1,0.478
43.08,32008.2,35107.6,0.0344,0.2646,142.5,98.1,0.478
43.1,31971.3,35051.0,-0.1146,0.1255,142.5,98.1,0.478
43.12,32034.5,34949.9,0.1403,-0.123,142.5,98.1,0.478
43.14,32082.0,34934.1,0.3316,-0.1618,142.5,98.1,0.478
43.16,31908.4,34857.9,-0.3681,-0.3494,142.5,98.1,0.478
43.18,31968.9,34815.5,-0.1243,-0.4537,142.5,98.1,0.478
43.2,31934.3,34710.3,-0.2639,-0.7122,142.5,98.1,0.478
43.22,31865.4,34725.9,-0.5415,-0.674,142.5,98.1,0.478
43.24,31895.6,34724.9,-0.4195,-0.6764,142.5,98.1,0.478
43.26,31788.2,34543.0,-0.8526,-1.1236,142.5,98.1,0.478
43.28,31808.4,34475.0,-0.7711,-1.2908,142.5,98.1,0.478
43.3,31751.3,34346.2,-1.0013,-1.6076,142.5,98.1,0.478
43.32,31788.8,34515.2,-0.8504,-1.1919,142.5,98.1,0.478
43.34,31807.0,34827.7,-0.7768,-0.4236,142.5,98.1,0.478
43.36,32085.6,35214.9,0.3463,0.5285,142.5,98.1,0.478
43.38,32266.0,35624.9,1.0734,1.5369,142.5,98.1,0.478
43.4,32337.2,35731.9,1.3605,1.7998,142.5,98.1,0.478
43.42,32368.0,35719.3,1.4846,1.7689,142.5,98.1,0.478
43.44,32308.7,35557.6,1.2456,1.3712,142.5,98.1,0.478
43.46,32177.7,35435.2,0.7177,1.0702,142.5,98.1,0.478
43.48,32141.4,35202.9,0.5712,0.4991,142.5,98.1,0.478
43.5,32057.1,35117.6,0.2313,0.2893,142.5,98.1,0.478
43.52,32044.9,35100.2,0.1821,0.2466,142.5,98.1,0.478
43.54,32092.9,34976.4,0.3756,-0.058,142.5,98.1,0.478
43.56,31954.0,34897.5,-0.1843,-0.2518,142.5,98.1,0.478
43.58,31934.0,34793.6,-0.2647,-0.5075,142.5,98.1,0.478
43.6,31897.3,34680.6,-0.4127,-0.7854,142.5,98.1,0.478
43.62,31873.7,34606.6,-0.5078,-0.9674,142.5,98.1,0.478
43.64,31772.4,34596.0,-0.9165,-0.9932,142.5,98.1,0.478
43.66,31877.0,34594.3,-0.4945,-0.9976,142.5,98.1,0.478
43.68,31790.3,34595.7,-0.844,-0.9941,142.5,98.1,0.478
43.7,31700.5,34414.2,-1.206,-1.4404,142.5,98.1,0.478
43.72,31771.8,34451.4,-0.9189,-1.3488,142.5,98.1,0.478
43.74,31803.6,34565.4,-0.7904,-1.0686,142.5,98.1,0.478
43.76,31898.0,34783.7,-0.4102,-0.5318,142.5,98.1,0.478
43.78,32134.3,35180.2,0.5423,0.4432,142.5,98.1,0.478
43.8,32150.0,35456.5,0.6059,1.1226,142.5,98.1,0.478
43.82,32361.5,35762.3,1.4583,1.8746,142.5,98.1,0.478
43.84,32280.4,35742.9,1.1317,1.827,142.5,98.1,0.478
43.86,32387.3,35698.6,1.5623,1.7179,142.5,98.1,0.478
43.88,32140.3,35440.9,0.5666,1.0844,142.5,98.1,0.478
43.9,32066.0,35215.0,0.2674,0.5287,142.5,98.1,0.478
43.92,32131.3,35108.4,0.5306,0.2667,142.5,98.1,0.478
43.94,31981.5,35055.6,-0.0735,0.1369,142.5,98.1,0.478
43.96,32057.7,34992.5,0.2338,-0.0182,142.5,98.1,0.478
43.98,31983.8,34894.5,-0.0641,-0.2592,142.5,98.1,0.478
44.0,31888.1,34823.3,-0.4499,-0.4345,142.5,98.1,0.478
44.02,31880.2,34731.1,-0.4817,-0.6611,142.5,98.1,0.478
44.04,31837.5,34610.1,-0.6541,-0.9586,142.5,98.1,0.478
44.06,31806.0,34715.3,-0.7809,-0.6999,142.5,98.1,0.478
44.08,31777.0,34522.1,-0.8977,-1.1751,142.5,98.1,0.478
44.1,31822.2,34605.2,-0.7155,-0.9708,142.5,98.1,0.478
44.12,31773.1,34525.4,-0.9137,-1.1671,142.5,98.1,0.478
44.14,31717.7,34450.1,-1.137,-1.3522,142.5,98.1,0.478
44.16,31811.9,34561.8,-0.7572,-1.0774,142.5,98.1,0.478
44.18,31897.1,34780.4,-0.4137,-0.5399,142.5,98.1,0.478
44.2,32059.5,35092.8,0.2411,0.2282,142.5,98.1,0.478
44.22,32150.3,35499.7,0.607,1.2288,142.5,98.1,0.478
44.24,32330.5,35688.8,1.3333,1.6939,142.5,98.1,0.478
44.26,32333.9,35828.7,1.3473,2.0379,142.5,98.1,0.478
44.28,32170.6,35639.9,0.689,1.5736,142.5,98.1,0.478
44.3,32177.2,35394.0,0.7153,0.9691,142.5,98.1,0.478
44.32,32147.7,35250.2,0.5964,0.6154,142.5,98.1,0.478
44.34,32085.3,35134.1,0.345,0.3299,142.5,98.1,0.478
44.36,31983.0,35165.9,-0.0675,0.4081,142.5,98.1,0.478
44.38,32099.6,35021.5,0.4025,0.0529,142.5,98.1,0.478
44.4,32102.0,34902.7,0.4124,-0.2392,142.5,98.1,0.478
44.42,32013.4,34795.5,0.0551,-0.5028,142.5,98.1,0.478
44.44,31931.5,34814.6,-0.2751,-0.4558,142.5,98.1,0.478
44.46,31753.3,34700.5,-0.9933,-0.7363,142.5,98.1,0.478
44.48,31913.5,34654.4,-0.3474,-0.8496,142.5,98.1,0.478
44.5,31803.5,34661.9,-0.7908,-0.8313,142.5,98.1,0.478
44.52,31810.3,34511.8,-0.7636,-1.2004,142.5,98.1,0.478
44.54,31746.3,34470.9,-1.0217,-1.301,142.5,98.1,0.478
44.56,31783.0,34447.9,-0.8737,-1.3575,142.5,98.1,0.478
44.58,31833.8,34556.0,-0.6686,-1.0916,142.5,98.1,0.478
44.6,31889.4,34716.7,-0.4445,-0.6965,142.5,98.1,0.478
44.62,32044.7,35193.3,0.1815,0.4755,142.5,98.1,0.478
44.64,32250.0,35526.1,1.0089,1.2938,142.5,98.1,0.478
44.66,32294.9,35674.1,1.1899,1.6576,142.5,98.1,0.478
44.68,32269.3,35796.6,1.0868,1.959,142.5,98.1,0.478
44.7,32322.8,35668.5,1.3024,1.644,142.5,98.1,0.478
44.72,32274.5,35422.7,1.1076,1.0395,142.5,98.1,0.478
44.74,32071.9,35245.1,0.2909,0.6028,142.5,98.1,0.478
44.76,31973.8,35120.8,-0.1044,0.2972,142.5,98.1,0.478
44.78,32062.7,35090.8,0.2538,0.2234,142.5,98.1,0.478
44.8,31995.1,34995.7,-0.0186,-0.0106,142.5,98.1,0.478
44.82,32031.0,34999.8,0.1263,-0.0004,142.5,98.1,0.478
44.84,31970.7,34796.7,-0.1171,-0.4998,142.5,98.1,0.478
