timestamp,raw_red,raw_ir,filtered_red,filtered_ir,heart_rate,spo2,ac_dc_ratio
0.0,32083.9,35146.8,0.1209,0.1879,138.0,98.3,0.468
0.02,32282.5,35504.1,0.3995,0.6269,138.0,98.3,0.468
0.04,32261.9,35642.3,0.3707,0.7967,138.0,98.3,0.468
0.06,32304.0,35742.3,0.4297,0.9196,138.0,98.3,0.468
0.08,32190.5,35619.3,0.2704,0.7685,138.0,98.3,0.468
0.1,32201.7,35438.8,0.2862,0.5467,138.0,98.3,0.468
0.12,32130.9,35238.2,0.1869,0.3001,138.0,98.3,0.468
0.14,32028.7,35181.5,0.0435,0.2305,138.0,98.3,0.468
0.16,32027.8,35084.6,0.0422,0.1115,138.0,98.3,0.468
0.18,32001.4,34958.3,0.0052,-0.0438,138.0,98.3,0.468
0.2,31888.7,35058.9,-0.153,0.0799,138.0,98.3,0.468
0.22,31897.3,34868.9,-0.1408,-0.1536,138.0,98.3,0.468
0.24,31904.9,34755.3,-0.1302,-0.2931,138.0,98.3,0.468
0.26,31866.8,34741.4,-0.1837,-0.3103,138.0,98.3,0.468
0.28,31949.3,34710.6,-0.0679,-0.3481,138.0,98.3,0.468
0.3,31877.5,34773.2,-0.1686,-0.2711,138.0,98.3,0.468
0.32,31824.1,34630.0,-0.2435,-0.4471,138.0,98.3,0.468
0.34,31800.4,34552.3,-0.2768,-0.5426,138.0,98.3,0.468
0.36,31802.7,34456.4,-0.2736,-0.6605,138.0,98.3,0.468
0.38,31702.2,34405.1,-0.4145,-0.7235,138.0,98.3,0.468
0.4,31827.8,34604.7,-0.2383,-0.4783,138.0,98.3,0.468
0.42,31945.1,34865.9,-0.0738,-0.1573,138.0,98.3,0.468
0.44,32111.4,35253.2,0.1595,0.3186,138.0,98.3,0.468
0.46,32161.0,35554.8,0.2291,0.6892,138.0,98.3,0.468
0.48,32324.6,35602.2,0.4586,0.7475,138.0,98.3,0.468
0.5,32250.2,35759.4,0.3542,0.9406,138.0,98.3,0.468
0.52,32282.2,35681.7,0.3991,0.8451,138.0,98.3,0.468
0.54,32124.9,35444.2,0.1785,0.5532,138.0,98.3,0.468
0.56,32138.2,35164.9,0.1971,0.2102,138.0,98.3,0.468
0.58,32014.8,35070.0,0.024,0.0935,138.0,98.3,0.468
0.6,32127.5,35087.7,0.1821,0.1153,138.0,98.3,0.468
0.62,32007.2,35068.6,0.0133,0.0918,138.0,98.3,0.468
0.64,32006.9,34924.5,0.0128,-0.0853,138.0,98.3,0.468
0.66,31934.6,34875.6,-0.0885,-0.1453,138.0,98.3,0.468
0.68,31915.7,34814.3,-0.115,-0.2207,138.0,98.3,0.468
0.7,31907.8,34693.3,-0.1262,-0.3693,138.0,98.3,0.468
0.72,31830.0,34645.6,-0.2353,-0.4279,138.0,98.3,0.468
0.74,31794.3,34619.8,-0.2854,-0.4597,138.0,98.3,0.468
0.76,31806.8,34614.6,-0.2678,-0.4661,138.0,98.3,0.468
0.78,31768.8,34639.6,-0.3211,-0.4354,138.0,98.3,0.468
0.8,31770.1,34365.5,-0.3193,-0.7722,138.0,98.3,0.468
0.82,31705.4,34472.7,-0.4101,-0.6404,138.0,98.3,0.468
0.84,31872.7,34603.8,-0.1753,-0.4794,138.0,98.3,0.468
0.86,31998.0,34914.5,0.0004,-0.0976,138.0,98.3,0.468
0.88,32102.6,35334.0,0.1472,0.4179,138.0,98.3,0.468
0.9,32307.2,35606.1,0.4342,0.7523,138.0,98.3,0.468
0.92,32259.2,35860.6,0.3668,1.065,138.0,98.3,0.468
0.94,32287.3,35719.2,0.4062,0.8912,138.0,98.3,0.468
0.96,32186.0,35613.0,0.2641,0.7607,138.0,98.3,0.468
0.98,32155.9,35358.9,0.2219,0.4485,138.0,98.3,0.468
1.0,32070.2,35245.3,0.1017,0.309,138.0,98.3,0.468
1.02,32062.0,35122.5,0.0901,0.158,138.0,98.3,0.468
1.04,32064.3,35084.8,0.0935,0.1117,138.0,98.3,0.468
1.06,32057.7,34951.6,0.0842,-0.052,138.0,98.3,0.468
1.08,31941.9,34942.4,-0.0784,-0.0633,138.0,98.3,0.468
1.1,31932.6,34859.2,-0.0913,-0.1656,138.0,98.3,0.468
1.12,32011.6,34631.3,0.0195,-0.4455,138.0,98.3,0.468
1.14,31830.3,34725.8,-0.2348,-0.3295,138.0,98.3,0.468
1.16,31786.1,34743.1,-0.2968,-0.3082,138.0,98.3,0.468
1.18,31798.6,34577.1,-0.2793,-0.5122,138.0,98.3,0.468
1.2,31777.6,34633.5,-0.3088,-0.4428,138.0,98.3,0.468
1.22,31816.4,34469.4,-0.2543,-0.6445,138.0,98.3,0.468
1.24,31711.6,34451.0,-0.4014,-0.6672,138.0,98.3,0.468
1.26,31772.0,34529.0,-0.3167,-0.5713,138.0,98.3,0.468
1.28,31833.5,34767.5,-0.2303,-0.2782,138.0,98.3,0.468
1.3,32045.4,34923.7,0.0669,-0.0863,138.0,98.3,0.468
1.32,32138.8,35419.9,0.1979,0.5234,138.0,98.3,0.468
1.34,32225.0,35704.2,0.3189,0.8728,138.0,98.3,0.468
1.36,32286.4,35771.1,0.4049,0.955,138.0,98.3,0.468
1.38,32380.8,35610.4,0.5375,0.7575,138.0,98.3,0.468
1.4,32234.0,35495.4,0.3315,0.6163,138.0,98.3,0.468
1.42,32066.8,35365.6,0.0969,0.4567,138.0,98.3,0.468
1.44,32033.3,35162.3,0.0499,0.2069,138.0,98.3,0.468
1.46,32050.5,35131.0,0.0741,0.1684,138.0,98.3,0.468
1.48,32001.5,35056.9,0.0052,0.0774,138.0,98.3,0.468
1.5,31993.7,34918.6,-0.0056,-0.0925,138.0,98.3,0.468
1.52,31979.1,34869.5,-0.0261,-0.1529,138.0,98.3,0.468
1.54,31787.9,34866.4,-0.2943,-0.1566,138.0,98.3,0.468
1.56,31876.2,34722.6,-0.1705,-0.3333,138.0,98.3,0.468
1.58,31813.6,34670.1,-0.2582,-0.3979,138.0,98.3,0.468
1.6,31828.1,34704.3,-0.238,-0.3559,138.0,98.3,0.468
1.62,31849.8,34617.2,-0.2075,-0.4628,138.0,98.3,0.468
1.64,31849.3,34542.6,-0.2082,-0.5545,138.0,98.3,0.468
1.66,31785.3,34485.7,-0.2981,-0.6244,138.0,98.3,0.468
1.68,31805.6,34435.4,-0.2695,-0.6863,138.0,98.3,0.468
1.7,31869.2,34514.5,-0.1803,-0.589,138.0,98.3,0.468
1.72,31906.3,34882.9,-0.1282,-0.1364,138.0,98.3,0.468
1.74,32016.9,35231.2,0.027,0.2916,138.0,98.3,0.468
1.76,32190.1,35531.3,0.2698,0.6603,138.0,98.3,0.468
1.78,32332.8,35766.8,0.4701,0.9497,138.0,98.3,0.468
1.8,32421.1,35838.6,0.594,1.0379,138.0,98.3,0.468
1.82,32245.1,35644.2,0.3471,0.7991,138.0,98.3,0.468
1.84,32250.7,35445.1,0.355,0.5544,138.0,98.3,0.468
1.86,32118.6,35257.3,0.1696,0.3237,138.0,98.3,0.468
1.88,32023.3,35196.0,0.0358,0.2483,138.0,98.3,0.468
1.9,32123.7,35161.0,0.1767,0.2053,138.0,98.3,0.468
1.92,32046.3,35078.8,0.0682,0.1043,138.0,98.3,0.468
1.94,31999.9,34976.3,0.003,-0.0217,138.0,98.3,0.468
1.96,31904.5,34931.7,-0.1308,-0.0765,138.0,98.3,0.468
1.98,31905.9,34711.8,-0.1288,-0.3466,138.0,98.3,0.468
2.0,31940.4,34761.7,-0.0804,-0.2853,138.0,98.3,0.468
2.02,31829.1,34573.9,-0.2365,-0.516,138.0,98.3,0.468
2.04,31802.4,34657.2,-0.2741,-0.4137,138.0,98.3,0.468
2.06,31832.4,34600.4,-0.2319,-0.4836,138.0,98.3,0.468
2.08,31829.4,34519.7,-0.2361,-0.5827,138.0,98.3,0.468
2.1,31812.4,34502.1,-0.2599,-0.6044,138.0,98.3,0.468
2.12,31836.0,34444.0,-0.2268,-0.6757,138.0,98.3,0.468
2.14,31877.3,34599.2,-0.1689,-0.485,138.0,98.3,0.468
2.16,31945.8,34877.7,-0.0728,-0.1428,138.0,98.3,0.468
2.18,32173.4,35309.9,0.2464,0.3882,138.0,98.3,0.468
2.2,32205.6,35528.7,0.2916,0.6571,138.0,98.3,0.468
2.22,32277.0,35726.3,0.3918,0.8999,138.0,98.3,0.468
2.24,32316.0,35779.1,0.4465,0.9648,138.0,98.3,0.468
2.26,32258.7,35569.0,0.3662,0.7066,138.0,98.3,0.468
2.28,32154.6,35377.8,0.2201,0.4717,138.0,98.3,0.468
2.3,32096.5,35192.2,0.1386,0.2437,138.0,98.3,0.468
2.32,32077.4,35112.4,0.1117,0.1455,138.0,98.3,0.468
2.34,32002.9,35014.5,0.0073,0.0253,138.0,98.3,0.468
2.36,31990.0,35100.6,-0.0108,0.1311,138.0,98.3,0.468
2.38,31941.6,34971.8,-0.0788,-0.0271,138.0,98.3,0.468
2.4,31972.6,34832.9,-0.0352,-0.1978,138.0,98.3,0.468
2.42,31865.7,34712.3,-0.1851,-0.3461,138.0,98.3,0.468
2.44,31944.8,34689.9,-0.0742,-0.3736,138.0,98.3,0.468
2.46,31970.9,34641.0,-0.0377,-0.4337,138.0,98.3,0.468
2.48,31773.6,34564.2,-0.3144,-0.528,138.0,98.3,0.468
2.5,31783.8,34564.3,-0.3001,-0.5278,138.0,98.3,0.468
2.52,31894.2,34495.3,-0.1452,-0.6127,138.0,98.3,0.468
2.54,31791.5,34441.2,-0.2893,-0.6791,138.0,98.3,0.468
2.56,31820.6,34441.1,-0.2484,-0.6793,138.0,98.3,0.468
2.58,31857.1,34731.7,-0.1973,-0.3222,138.0,98.3,0.468
2.6,31997.0,34960.2,-0.001,-0.0414,138.0,98.3,0.468
2.62,32233.1,35424.4,0.3302,0.529,138.0,98.3,0.468
2.64,32278.1,35602.6,0.3934,0.7479,138.0,98.3,0.468
2.66,32358.0,35742.0,0.5054,0.9192,138.0,98.3,0.468
2.68,32362.1,35731.3,0.5112,0.9061,138.0,98.3,0.468
2.7,32089.4,35522.7,0.1286,0.6497,138.0,98.3,0.468
2.72,32176.6,35437.2,0.251,0.5447,138.0,98.3,0.468
2.74,32086.4,35231.5,0.1244,0.2919,138.0,98.3,0.468
2.76,32050.5,35023.9,0.0741,0.0369,138.0,98.3,0.468
2.78,32051.5,35047.2,0.0754,0.0655,138.0,98.3,0.468
2.8,31992.0,35025.5,-0.0081,0.0389,138.0,98.3,0.468
2.82,31994.0,34923.3,-0.0052,-0.0868,138.0,98.3,0.468
2.84,31954.8,34842.5,-0.0603,-0.1861,138.0,98.3,0.468
2.86,31852.3,34670.4,-0.2041,-0.3976,138.0,98.3,0.468
2.88,31829.6,34665.9,-0.2358,-0.403,138.0,98.3,0.468
2.9,31727.6,34576.6,-0.379,-0.5128,138.0,98.3,0.468
2.92,31925.1,34699.6,-0.1019,-0.3616,138.0,98.3,0.468
2.94,31781.8,34572.2,-0.3029,-0.5182,138.0,98.3,0.468
2.96,31780.8,34524.8,-0.3043,-0.5765,138.0,98.3,0.468
2.98,31735.6,34511.4,-0.3677,-0.5929,138.0,98.3,0.468
3.0,31817.8,34542.2,-0.2524,-0.555,138.0,98.3,0.468
3.02,31846.9,34761.3,-0.2116,-0.2858,138.0,98.3,0.468
3.04,31987.2,35078.6,-0.0147,0.1041,138.0,98.3,0.468
3.06,32227.2,35442.0,0.3219,0.5506,138.0,98.3,0.468
3.08,32345.4,35668.6,0.4878,0.829,138.0,98.3,0.468
3.1,32295.2,35723.7,0.4173,0.8967,138.0,98.3,0.468
3.12,32262.4,35640.9,0.3713,0.795,138.0,98.3,0.468
3.14,32115.6,35471.0,0.1653,0.5863,138.0,98.3,0.468
3.16,32172.5,35406.8,0.2452,0.5074,138.0,98.3,0.468
3.18,32148.7,35198.2,0.2118,0.251,138.0,98.3,0.468
3.2,32084.0,35039.2,0.1211,0.0557,138.0,98.3,0.468
3.22,31983.2,35030.3,-0.0203,0.0447,138.0,98.3,0.468
3.24,31948.2,34998.5,-0.0694,0.0056,138.0,98.3,0.468
3.26,31890.1,34886.2,-0.151,-0.1323,138.0,98.3,0.468
3.28,31891.2,34822.4,-0.1494,-0.2107,138.0,98.3,0.468
3.3,31923.7,34807.2,-0.1039,-0.2294,138.0,98.3,0.468
3.32,31896.4,34723.9,-0.1422,-0.3317,138.0,98.3,0.468
3.34,31866.4,34679.9,-0.1842,-0.3859,138.0,98.3,0.468
3.36,31749.2,34621.2,-0.3487,-0.458,138.0,98.3,0.468
3.38,31715.1,34574.0,-0.3965,-0.516,138.0,98.3,0.468
3.4,31790.0,34414.9,-0.2915,-0.7115,138.0,98.3,0.468
3.42,31762.0,34436.7,-0.3307,-0.6847,138.0,98.3,0.468
3.44,31825.9,34511.3,-0.241,-0.593,138.0,98.3,0.468
3.46,31935.9,34871.9,-0.0867,-0.15,138.0,98.3,0.468
3.48,32122.9,35190.3,0.1756,0.2413,138.0,98.3,0.468
3.5,32226.3,35480.4,0.3206,0.5978,138.0,98.3,0.468
3.52,32343.8,35672.0,0.4855,0.8332,138.0,98.3,0.468
3.54,32329.9,35768.3,0.466,0.9515,138.0,98.3,0.468
3.56,32360.9,35659.0,0.5096,0.8172,138.0,98.3,0.468
3.58,32056.0,35484.8,0.0817,0.6032,138.0,98.3,0.468
3.6,32105.4,35265.3,0.1511,0.3334,138.0,98.3,0.468
3.62,32068.8,35124.1,0.0997,0.16,138.0,98.3,0.468
3.64,32006.0,35036.4,0.0116,0.0522,138.0,98.3,0.468
3.66,32048.0,35075.6,0.0706,0.1004,138.0,98.3,0.468
3.68,32041.8,34983.0,0.0618,-0.0135,138.0,98.3,0.468
3.7,32009.8,34941.3,0.0169,-0.0646,138.0,98.3,0.468
3.72,31908.5,34711.7,-0.1252,-0.3468,138.0,98.3,0.468
3.74,31902.4,34678.6,-0.1337,-0.3874,138.0,98.3,0.468
3.76,31925.7,34641.1,-0.1011,-0.4335,138.0,98.3,0.468
3.78,31899.0,34716.4,-0.1385,-0.341,138.0,98.3,0.468
3.8,31793.1,34671.7,-0.2871,-0.3959,138.0,98.3,0.468
3.82,31774.4,34454.1,-0.3132,-0.6633,138.0,98.3,0.468
3.84,31765.2,34474.3,-0.3262,-0.6385,138.0,98.3,0.468
3.86,31733.0,34500.7,-0.3713,-0.6061,138.0,98.3,0.468
3.88,31732.1,34622.9,-0.3727,-0.4559,138.0,98.3,0.468
3.9,31864.1,34905.0,-0.1874,-0.1092,138.0,98.3,0.468
3.92,32145.2,35350.5,0.2069,0.4382,138.0,98.3,0.468
3.94,32330.2,35552.7,0.4665,0.6867,138.0,98.3,0.468
3.96,32282.6,35752.2,0.3996,0.9318,138.0,98.3,0.468
3.98,32332.5,35708.5,0.4697,0.878,138.0,98.3,0.468
4.0,32227.1,35549.4,0.3217,0.6825,138.0,98.3,0.468
4.02,32123.8,35397.2,0.1768,0.4956,138.0,98.3,0.468
4.04,32184.4,35117.7,0.2619,0.1521,138.0,98.3,0.468
4.06,32117.6,35230.9,0.1681,0.2912,138.0,98.3,0.468
4.08,31984.9,35135.5,-0.0179,0.174,138.0,98.3,0.468
4.1,31986.3,35030.7,-0.016,0.0452,138.0,98.3,0.468
4.12,32014.8,34950.6,0.024,-0.0532,138.0,98.3,0.468
4.14,31890.7,34879.9,-0.1501,-0.1401,138.0,98.3,0.468
4.16,31936.7,34786.3,-0.0855,-0.2552,138.0,98.3,0.468
4.18,31817.1,34635.4,-0.2533,-0.4405,138.0,98.3,0.468
4.2,31818.0,34637.5,-0.2521,-0.438,138.0,98.3,0.468
4.22,31902.7,34597.5,-0.1332,-0.4871,138.0,98.3,0.468
4.24,31894.3,34561.3,-0.1451,-0.5315,138.0,98.3,0.468
4.26,31801.8,34534.3,-0.2749,-0.5647,138.0,98.3,0.468
4.28,31792.4,34523.8,-0.288,-0.5777,138.0,98.3,0.468
4.3,31824.2,34484.8,-0.2434,-0.6255,138.0,98.3,0.468
4.32,31826.8,34677.2,-0.2397,-0.3892,138.0,98.3,0.468
4.34,32092.9,34955.7,0.1336,-0.047,138.0,98.3,0.468
4.36,32213.3,35400.1,0.3025,0.4992,138.0,98.3,0.468
4.38,32311.9,35672.1,0.4408,0.8333,138.0,98.3,0.468
4.4,32347.3,35797.7,0.4904,0.9877,138.0,98.3,0.468
4.42,32371.1,35639.1,0.5239,0.7928,138.0,98.3,0.468
4.44,32259.1,35590.4,0.3668,0.7329,138.0,98.3,0.468
4.46,32096.9,35241.8,0.1391,0.3046,138.0,98.3,0.468
4.48,32046.4,35184.9,0.0683,0.2346,138.0,98.3,0.468
4.5,31989.3,35151.0,-0.0119,0.1931,138.0,98.3,0.468
4.52,32062.4,35085.1,0.0908,0.112,138.0,98.3,0.468
4.54,31929.0,35020.9,-0.0964,0.0332,138.0,98.3,0.468
4.56,31911.5,35005.4,-0.1209,0.0142,138.0,98.3,0.468
4.58,31803.1,34828.1,-0.2731,-0.2037,138.0,98.3,0.468
4.6,31873.1,34735.4,-0.1749,-0.3177,138.0,98.3,0.468
4.62,31859.9,34672.5,-0.1933,-0.3949,138.0,98.3,0.468
4.64,31863.4,34663.6,-0.1885,-0.4058,138.0,98.3,0.468
4.66,31803.4,34588.4,-0.2726,-0.4982,138.0,98.3,0.468
4.68,31910.5,34602.6,-0.1224,-0.4809,138.0,98.3,0.468
4.7,31749.1,34446.9,-0.3487,-0.6721,138.0,98.3,0.468
4.72,31752.5,34491.9,-0.344,-0.6169,138.0,98.3,0.468
4.74,31830.1,34556.0,-0.2351,-0.5381,138.0,98.3,0.468
4.76,31832.0,34830.6,-0.2324,-0.2007,138.0,98.3,0.468
4.78,32047.3,35105.4,0.0695,0.137,138.0,98.3,0.468
4.8,32220.6,35407.8,0.3127,0.5086,138.0,98.3,0.468
4.82,32395.1,35679.2,0.5575,0.842,138.0,98.3,0.468
4.84,32320.1,35779.6,0.4523,0.9654,138.0,98.3,0.468
4.86,32264.1,35677.2,0.3737,0.8396,138.0,98.3,0.468
4.88,32158.4,35525.3,0.2255,0.6529,138.0,98.3,0.468
4.9,32147.3,35231.6,0.2099,0.2921,138.0,98.3,0.468
4.92,32029.0,35136.0,0.0439,0.1746,138.0,98.3,0.468
4.94,32057.2,35194.4,0.0834,0.2464,138.0,98.3,0.468
4.96,32005.0,35002.0,0.0103,0.0099,138.0,98.3,0.468
4.98,32007.6,34975.9,0.0139,-0.0222,138.0,98.3,0.468
5.0,31994.2,34901.7,-0.0049,-0.1132,138.0,98.3,0.468
5.02,31988.7,34794.4,-0.0126,-0.2451,138.0,98.3,0.468
5.04,31773.2,34679.7,-0.315,-0.3861,138.0,98.3,0.468
5.06,31849.8,34677.3,-0.2075,-0.389,138.0,98.3,0.468
5.08,31841.9,34609.6,-0.2185,-0.4723,138.0,98.3,0.468
5.1,31802.0,34696.1,-0.2745,-0.3659,138.0,98.3,0.468
5.12,31843.5,34527.4,-0.2164,-0.5732,138.0,98.3,0.468
5.14,31782.3,34459.7,-0.3022,-0.6564,138.0,98.3,0.468
5.16,31757.7,34406.7,-0.3367,-0.7216,138.0,98.3,0.468
5.18,31800.4,34542.0,-0.2769,-0.5553,138.0,98.3,0.468
5.2,31889.4,34901.5,-0.1519,-0.1136,138.0,98.3,0.468
5.22,32093.3,35197.8,0.1341,0.2506,138.0,98.3,0.468
5.24,32223.7,35516.7,0.317,0.6424,138.0,98.3,0.468
5.26,32227.8,35588.8,0.3228,0.7309,138.0,98.3,0.468
5.28,32335.7,35873.6,0.4741,1.081,138.0,98.3,0.468
5.3,32344.9,35612.8,0.487,0.7605,138.0,98.3,0.468
5.32,32247.1,35410.1,0.3498,0.5114,138.0,98.3,0.468
5.34,32080.2,35241.4,0.1157,0.3041,138.0,98.3,0.468
5.36,31992.5,35098.5,-0.0073,0.1285,138.0,98.3,0.468
5.38,32118.5,35052.2,0.1694,0.0716,138.0,98.3,0.468
5.4,32030.1,35028.1,0.0454,0.0421,138.0,98.3,0.468
5.42,32068.8,35021.7,0.0998,0.0341,138.0,98.3,0.468
5.44,31939.8,34883.0,-0.0812,-0.1363,138.0,98.3,0.468
5.46,31963.2,34726.3,-0.0484,-0.3288,138.0,98.3,0.468
5.48,31813.7,34746.4,-0.2582,-0.3041,138.0,98.3,0.468
5.5,31904.2,34603.4,-0.1313,-0.4799,138.0,98.3,0.468
5.52,31803.8,34701.1,-0.2721,-0.3598,138.0,98.3,0.468
5.54,31749.2,34614.6,-0.3486,-0.4661,138.0,98.3,0.468
5.56,31813.0,34556.5,-0.2592,-0.5374,138.0,98.3,0.468
5.58,31827.7,34523.9,-0.2385,-0.5775,138.0,98.3,0.468
5.6,31689.9,34518.7,-0.4318,-0.5839,138.0,98.3,0.468
5.62,31911.9,34645.2,-0.1204,-0.4284,138.0,98.3,0.468
5.64,31943.7,34859.0,-0.0758,-0.1658,138.0,98.3,0.468
5.66,32196.0,35302.3,0.2782,0.3789,138.0,98.3,0.468
5.68,32228.4,35632.1,0.3236,0.7842,138.0,98.3,0.468
5.7,32352.1,35683.7,0.4972,0.8476,138.0,98.3,0.468
5.72,32435.9,35697.9,0.6147,0.865,138.0,98.3,0.468
5.74,32277.2,35658.2,0.3922,0.8163,138.0,98.3,0.468
5.76,32190.4,35429.5,0.2703,0.5352,138.0,98.3,0.468
5.78,32085.7,35327.9,0.1234,0.4104,138.0,98.3,0.468
5.8,31961.0,35176.1,-0.0516,0.2239,138.0,98.3,0.468
5.82,32069.1,35090.9,0.1002,0.1192,138.0,98.3,0.468
5.84,32057.0,35003.6,0.0832,0.0119,138.0,98.3,0.468
5.86,31939.7,34963.8,-0.0814,-0.037,138.0,98.3,0.468
5.88,31890.2,34872.1,-0.1508,-0.1497,138.0,98.3,0.468
5.9,32035.2,34732.3,0.0526,-0.3214,138.0,98.3,0.468
5.92,31963.6,34727.1,-0.0479,-0.3278,138.0,98.3,0.468
5.94,31882.5,34607.8,-0.1616,-0.4744,138.0,98.3,0.468
5.96,31799.6,34609.5,-0.278,-0.4724,138.0,98.3,0.468
5.98,31816.7,34674.6,-0.254,-0.3923,138.0,98.3,0.468
6.0,31855.4,34506.2,-0.1996,-0.5993,138.0,98.3,0.468
6.02,31764.6,34373.5,-0.327,-0.7623,138.0,98.3,0.468
6.04,31790.0,34404.9,-0.2914,-0.7238,138.0,98.3,0.468
6.06,31794.7,34705.1,-0.2848,-0.3549,138.0,98.3,0.468
6.08,32012.9,34999.3,0.0213,0.0066,138.0,98.3,0.468
6.1,32222.1,35340.1,0.3147,0.4254,138.0,98.3,0.468
6.12,32359.5,35618.4,0.5076,0.7673,138.0,98.3,0.468
6.14,32340.7,35771.9,0.4812,0.9559,138.0,98.3,0.468
6.16,32294.9,35735.3,0.4169,0.911,138.0,98.3,0.468
6.18,32365.1,35477.7,0.5154,0.5945,138.0,98.3,0.468
6.2,32098.1,35267.1,0.1409,0.3357,138.0,98.3,0.468
6.22,32131.3,35188.3,0.1875,0.2388,138.0,98.3,0.468
6.24,32018.2,35030.7,0.0288,0.0452,138.0,98.3,0.468
6.26,32005.4,35088.5,0.0108,0.1163,138.0,98.3,0.468
6.28,32019.3,34978.0,0.0303,-0.0195,138.0,98.3,0.468
6.3,31984.4,34950.3,-0.0187,-0.0536,138.0,98.3,0.468
6.32,31925.6,34812.0,-0.1012,-0.2236,138.0,98.3,0.468
6.34,31912.4,34722.0,-0.1197,-0.3341,138.0,98.3,0.468
6.36,31846.2,34611.4,-0.2125,-0.47,138.0,98.3,0.468
6.38,31877.3,34609.2,-0.169,-0.4727,138.0,98.3,0.468
6.4,31820.4,34683.3,-0.2488,-0.3816,138.0,98.3,0.468
6.42,31780.2,34630.8,-0.3052,-0.4462,138.0,98.3,0.468
6.44,31794.4,34498.9,-0.2853,-0.6082,138.0,98.3,0.468
6.46,31757.4,34473.8,-0.3372,-0.6391,138.0,98.3,0.468
6.48,31795.9,34479.5,-0.2831,-0.6321,138.0,98.3,0.468
6.5,31930.9,34768.9,-0.0937,-0.2765,138.0,98.3,0.468
6.52,32057.1,35094.9,0.0833,0.1241,138.0,98.3,0.468
6.54,32188.1,35545.0,0.2671,0.6772,138.0,98.3,0.468
6.56,32316.2,35722.4,0.4469,0.8952,138.0,98.3,0.468
6.58,32321.7,35771.5,0.4545,0.9554,138.0,98.3,0.468
6.6,32307.7,35659.1,0.4349,0.8173,138.0,98.3,0.468
6.62,32220.7,35534.6,0.3129,0.6643,138.0,98.3,0.468
6.64,32134.6,35299.7,0.1921,0.3758,138.0,98.3,0.468
6.66,32113.3,35112.0,0.1621,0.1451,138.0,98.3,0.468
6.68,32058.3,35038.7,0.085,0.055,138.0,98.3,0.468
6.7,32029.3,35054.2,0.0443,0.0741,138.0,98.3,0.468
6.72,31931.3,35017.5,-0.0932,0.0289,138.0,98.3,0.468
6.74,31958.9,34845.1,-0.0545,-0.1828,138.0,98.3,0.468
6.76,31895.0,34734.3,-0.1441,-0.3189,138.0,98.3,0.468
6.78,31882.8,34678.9,-0.1613,-0.3871,138.0,98.3,0.468
6.8,31903.6,34549.2,-0.1321,-0.5464,138.0,98.3,0.468
6.82,31863.0,34698.8,-0.1889,-0.3626,138.0,98.3,0.468
6.84,31840.4,34672.8,-0.2207,-0.3946,138.0,98.3,0.468
6.86,31861.8,34521.0,-0.1907,-0.5811,138.0,98.3,0.468
6.88,31681.0,34433.7,-0.4443,-0.6884,138.0,98.3,0.468
6.9,31807.3,34517.6,-0.2671,-0.5852,138.0,98.3,0.468
6.92,31805.7,34583.7,-0.2693,-0.504,138.0,98.3,0.468
6.94,31927.4,34834.3,-0.0986,-0.1961,138.0,98.3,0.468
6.96,32038.4,35183.5,0.0571,0.2329,138.0,98.3,0.468
6.98,32274.9,35566.7,0.3888,0.7038,138.0,98.3,0.468
7.0,32292.7,35771.5,0.4139,0.9555,138.0,98.3,0.468
7.02,32331.4,35810.4,0.4682,1.0033,138.0,98.3,0.468
7.04,32297.1,35633.6,0.4199,0.786,138.0,98.3,0.468
7.06,32242.2,35494.6,0.343,0.6152,138.0,98.3,0.468
7.08,32031.3,35214.5,0.0471,0.271,138.0,98.3,0.468
7.1,32167.6,35066.0,0.2383,0.0886,138.0,98.3,0.468
7.12,32092.8,35100.3,0.1334,0.1307,138.0,98.3,0.468
7.14,32015.0,35005.8,0.0242,0.0146,138.0,98.3,0.468
7.16,32007.0,34925.8,0.0131,-0.0837,138.0,98.3,0.468
7.18,31895.8,34799.6,-0.143,-0.2387,138.0,98.3,0.468
7.2,31919.5,34740.3,-0.1097,-0.3116,138.0,98.3,0.468
7.22,31898.7,34647.1,-0.1389,-0.4261,138.0,98.3,0.468
7.24,31838.8,34692.6,-0.2229,-0.3703,138.0,98.3,0.468
7.26,31843.8,34678.8,-0.2159,-0.3873,138.0,98.3,0.468
7.28,31919.3,34499.7,-0.11,-0.6072,138.0,98.3,0.468
7.3,31851.4,34499.8,-0.2052,-0.6072,138.0,98.3,0.468
7.32,31777.7,34540.0,-0.3086,-0.5577,138.0,98.3,0.468
7.34,31758.4,34486.7,-0.3358,-0.6233,138.0,98.3,0.468
7.36,31816.8,34697.4,-0.2538,-0.3643,138.0,98.3,0.468
7.38,31888.4,35006.9,-0.1534,0.0159,138.0,98.3,0.468
7.4,32176.7,35376.5,0.2511,0.4701,138.0,98.3,0.468
7.42,32139.3,35645.0,0.1987,0.8001,138.0,98.3,0.468
7.44,32253.4,35752.6,0.3587,0.9322,138.0,98.3,0.468
7.46,32389.5,35752.3,0.5497,0.9319,138.0,98.3,0.468
7.48,32160.1,35509.9,0.2278,0.6341,138.0,98.3,0.468
7.5,32219.9,35319.2,0.3116,0.3997,138.0,98.3,0.468
7.52,32107.3,35222.6,0.1537,0.2809,138.0,98.3,0.468
7.54,32047.0,35163.0,0.0691,0.2078,138.0,98.3,0.468
7.56,32040.6,35152.8,0.0601,0.1952,138.0,98.3,0.468
7.58,32095.6,35071.8,0.1373,0.0957,138.0,98.3,0.468
7.6,31950.7,34882.8,-0.0659,-0.1366,138.0,98.3,0.468
7.62,31904.8,34886.7,-0.1304,-0.1318,138.0,98.3,0.468
7.64,31903.4,34727.4,-0.1323,-0.3275,138.0,98.3,0.468
7.66,31858.5,34685.3,-0.1953,-0.3792,138.0,98.3,0.468
7.68,31807.5,34715.4,-0.2669,-0.3422,138.0,98.3,0.468
7.7,31829.0,34659.5,-0.2367,-0.4109,138.0,98.3,0.468
7.72,31743.8,34495.8,-0.3562,-0.612,138.0,98.3,0.468
7.74,31797.2,34436.4,-0.2812,-0.685,138.0,98.3,0.468
7.76,31798.9,34538.2,-0.2789,-0.5599,138.0,98.3,0.468
7.78,31826.3,34527.1,-0.2405,-0.5736,138.0,98.3,0.468
7.8,31812.9,34709.7,-0.2593,-0.3492,138.0,98.3,0.468
7.82,31939.0,35075.7,-0.0824,0.1005,138.0,98.3,0.468
7.84,32211.3,35416.3,0.2997,0.519,138.0,98.3,0.468
7.86,32260.8,35653.1,0.369,0.81,138.0,98.3,0.468
7.88,32303.8,35783.7,0.4294,0.9705,138.0,98.3,0.468
7.9,32316.7,35697.9,0.4475,0.865,138.0,98.3,0.468
7.92,32100.7,35565.3,0.1445,0.702,138.0,98.3,0.468
7.94,32098.5,35310.5,0.1413,0.3891,138.0,98.3,0.468
7.96,32106.3,35224.5,0.1524,0.2833,138.0,98.3,0.468
7.98,31925.1,35104.2,-0.1019,0.1356,138.0,98.3,0.468
8.0,32076.9,35136.1,0.1111,0.1747,138.0,98.3,0.468
8.02,31942.0,34997.1,-0.0781,0.0039,138.0,98.3,0.468
8.04,31906.9,34998.6,-0.1274,0.0058,138.0,98.3,0.468
8.06,31948.2,34776.4,-0.0695,-0.2672,138.0,98.3,0.468
8.08,31890.7,34710.3,-0.1502,-0.3485,138.0,98.3,0.468
8.1,31797.9,34668.7,-0.2803,-0.3996,138.0,98.3,0.468
8.12,31859.3,34647.5,-0.1942,-0.4257,138.0,98.3,0.468
8.14,31887.6,34632.9,-0.1545,-0.4436,138.0,98.3,0.468
8.16,31795.8,34535.4,-0.2832,-0.5634,138.0,98.3,0.468
8.18,31759.7,34374.6,-0.3339,-0.761,138.0,98.3,0.468
8.2,31713.9,34448.7,-0.3982,-0.6699,138.0,98.3,0.468
8.22,31869.2,34500.9,-0.1803,-0.6057,138.0,98.3,0.468
8.24,31886.1,34765.2,-0.1566,-0.281,138.0,98.3,0.468
8.26,32074.8,35035.0,0.1081,0.0505,138.0,98.3,0.468
8.28,32191.7,35433.1,0.2722,0.5397,138.0,98.3,0.468
8.3,32294.6,35742.2,0.4165,0.9194,138.0,98.3,0.468
8.32,32300.1,35709.7,0.4242,0.8795,138.0,98.3,0.468
8.34,32371.9,35745.2,0.525,0.9232,138.0,98.3,0.468
8.36,32199.3,35431.3,0.2828,0.5375,138.0,98.3,0.468
8.38,32086.0,35311.5,0.1238,0.3902,138.0,98.3,0.468
8.4,32143.0,35210.9,0.2038,0.2666,138.0,98.3,0.468
8.42,32087.3,35026.0,0.1257,0.0395,138.0,98.3,0.468
8.44,32016.7,35009.0,0.0266,0.0186,138.0,98.3,0.468
8.46,32008.0,35001.8,0.0144,0.0097,138.0,98.3,0.468
8.48,31915.3,34787.9,-0.1157,-0.2531,138.0,98.3,0.468
8.5,31876.6,34757.3,-0.17,-0.2908,138.0,98.3,0.468
8.52,31847.1,34685.1,-0.2113,-0.3794,138.0,98.3,0.468
8.54,31902.4,34707.8,-0.1337,-0.3516,138.0,98.3,0.468
8.56,31902.6,34620.6,-0.1334,-0.4587,138.0,98.3,0.468
8.58,31956.5,34559.1,-0.0578,-0.5342,138.0,98.3,0.468
8.6,31726.2,34550.4,-0.3809,-0.545,138.0,98.3,0.468
8.62,31739.6,34503.9,-0.362,-0.6021,138.0,98.3,0.468
8.64,31857.2,34504.9,-0.1971,-0.6009,138.0,98.3,0.468
8.66,31839.1,34609.5,-0.2225,-0.4724,138.0,98.3,0.468
8.68,31861.6,34820.4,-0.1909,-0.2132,138.0,98.3,0.468
8.7,32146.8,35077.5,0.2092,0.1028,138.0,98.3,0.468
8.72,32200.8,35536.6,0.285,0.6668,138.0,98.3,0.468
8.74,32274.7,35730.1,0.3886,0.9046,138.0,98.3,0.468
8.76,32334.4,35746.6,0.4724,0.9249,138.0,98.3,0.468
8.78,32173.2,35656.1,0.2461,0.8137,138.0,98.3,0.468
8.8,32172.4,35326.8,0.2451,0.409,138.0,98.3,0.468
8.82,32136.8,35241.2,0.1951,0.3039,138.0,98.3,0.468
8.84,32082.6,35039.1,0.1191,0.0555,138.0,98.3,0.468
8.86,31969.9,35059.4,-0.039,0.0805,138.0,98.3,0.468
8.88,31983.2,35035.1,-0.0204,0.0507,138.0,98.3,0.468
8.9,32043.8,34918.8,0.0647,-0.0922,138.0,98.3,0.468
8.92,31884.9,34792.0,-0.1583,-0.2481,138.0,98.3,0.468
8.94,31932.0,34704.4,-0.0922,-0.3557,138.0,98.3,0.468
8.96,31843.3,34706.4,-0.2166,-0.3533,138.0,98.3,0.468
8.98,31978.3,34742.0,-0.0273,-0.3095,138.0,98.3,0.468
9.0,31774.0,34729.1,-0.3139,-0.3254,138.0,98.3,0.468
9.02,31887.6,34555.6,-0.1544,-0.5386,138.0,98.3,0.468
9.04,31734.2,34578.2,-0.3697,-0.5108,138.0,98.3,0.468
9.06,31728.0,34460.7,-0.3784,-0.6552,138.0,98.3,0.468
9.08,31841.7,34453.4,-0.2188,-0.6642,138.0,98.3,0.468
9.1,31842.3,34609.5,-0.218,-0.4723,138.0,98.3,0.468
9.12,31899.2,34892.4,-0.1382,-0.1248,138.0,98.3,0.468
9.14,32143.4,35226.6,0.2044,0.2859,138.0,98.3,0.468
9.16,32277.4,35617.2,0.3924,0.7659,138.0,98.3,0.468
9.18,32334.4,35740.2,0.4723,0.9171,138.0,98.3,0.468
9.2,32322.5,35681.2,0.4557,0.8445,138.0,98.3,0.468
9.22,32161.6,35541.0,0.2299,0.6723,138.0,98.3,0.468
9.24,32208.1,35400.5,0.2951,0.4996,138.0,98.3,0.468
9.26,32066.3,35228.0,0.0962,0.2877,138.0,98.3,0.468
9.28,32032.5,35231.4,0.0488,0.2918,138.0,98.3,0.468
9.3,31983.7,35101.8,-0.0197,0.1325,138.0,98.3,0.468
9.32,32052.8,35115.2,0.0773,0.1491,138.0,98.3,0.468
9.34,32020.9,34861.3,0.0325,-0.163,138.0,98.3,0.468
9.36,31900.9,34819.1,-0.1358,-0.2148,138.0,98.3,0.468
9.38,31944.2,34731.0,-0.075,-0.323,138.0,98.3,0.468
9.4,31834.9,34608.6,-0.2284,-0.4735,138.0,98.3,0.468
9.42,31914.4,34647.5,-0.1169,-0.4256,138.0,98.3,0.468
9.44,31791.9,34649.4,-0.2888,-0.4234,138.0,98.3,0.468
9.46,31798.6,34621.5,-0.2794,-0.4575,138.0,98.3,0.468
9.48,31755.4,34490.6,-0.3399,-0.6184,138.0,98.3,0.468
9.5,31755.4,34450.9,-0.3399,-0.6672,138.0,98.3,0.468
9.52,31697.1,34512.7,-0.4218,-0.5912,138.0,98.3,0.468
9.54,31840.1,34794.5,-0.2211,-0.245,138.0,98.3,0.468
9.56,31995.7,35022.7,-0.0028,0.0354,138.0,98.3,0.468
9.58,32114.1,35293.7,0.1632,0.3683,138.0,98.3,0.468
9.6,32307.1,35628.5,0.4341,0.7797,138.0,98.3,0.468
9.62,32359.6,35778.0,0.5077,0.9635,138.0,98.3,0.468
9.64,32272.0,35733.9,0.3848,0.9093,138.0,98.3,0.468
9.66,32189.4,35487.3,0.2689,0.6062,138.0,98.3,0.468
9.68,32169.5,35291.6,0.241,0.3657,138.0,98.3,0.468
9.7,32080.6,35257.1,0.1163,0.3234,138.0,98.3,0.468
9.72,32022.7,35103.7,0.035,0.1349,138.0,98.3,0.468
9.74,32099.4,35021.2,0.1427,0.0335,138.0,98.3,0.468
9.76,31947.3,35040.8,-0.0707,0.0577,138.0,98.3,0.468
9.78,31988.2,34912.9,-0.0133,-0.0995,138.0,98.3,0.468
9.8,31881.8,34809.2,-0.1626,-0.2269,138.0,98.3,0.468
9.82,31918.5,34614.3,-0.1111,-0.4664,138.0,98.3,0.468
9.84,31888.7,34816.2,-0.153,-0.2184,138.0,98.3,0.468
9.86,31949.8,34625.3,-0.0672,-0.4529,138.0,98.3,0.468
9.88,31849.9,34563.3,-0.2073,-0.5291,138.0,98.3,0.468
9.9,31831.7,34633.4,-0.233,-0.443,138.0,98.3,0.468
9.92,31777.8,34480.1,-0.3086,-0.6313,138.0,98.3,0.468
9.94,31806.4,34503.5,-0.2684,-0.6026,138.0,98.3,0.468
9.96,31870.8,34486.5,-0.178,-0.6235,138.0,98.3,0.468
9.98,31931.5,34721.0,-0.0929,-0.3354,138.0,98.3,0.468
10.0,32101.9,35140.8,0.1462,0.1805,138.0,98.3,0.468
10.02,32239.4,35402.8,0.3391,0.5025,138.0,98.3,0.468
10.04,32398.6,35719.6,0.5624,0.8917,138.0,98.3,0.468
10.06,32265.7,35708.3,0.3759,0.8778,138.0,98.3,0.468
10.08,32257.6,35614.2,0.3646,0.7622,138.0,98.3,0.468
10.1,32242.7,35412.2,0.3436,0.514,138.0,98.3,0.468
10.12,32105.5,35267.4,0.1511,0.3361,138.0,98.3,0.468
10.14,32130.2,35135.2,0.1859,0.1737,138.0,98.3,0.468
10.16,31992.4,35090.0,-0.0074,0.118,138.0,98.3,0.468
10.18,31998.2,35062.7,0.0007,0.0845,138.0,98.3,0.468
10.2,31991.7,34996.8,-0.0084,0.0035,138.0,98.3,0.468
10.22,31970.5,34971.5,-0.0382,-0.0276,138.0,98.3,0.468
10.24,31984.8,34755.7,-0.0181,-0.2928,138.0,98.3,0.468
10.26,31953.3,34769.7,-0.0623,-0.2755,138.0,98.3,0.468
10.28,31880.8,34684.3,-0.1641,-0.3804,138.0,98.3,0.468
10.3,31798.0,34618.2,-0.2802,-0.4617,138.0,98.3,0.468
10.32,31847.0,34643.5,-0.2114,-0.4306,138.0,98.3,0.468
10.34,31817.2,34640.7,-0.2533,-0.434,138.0,98.3,0.468
10.36,31803.5,34395.0,-0.2725,-0.7359,138.0,98.3,0.468
10.38,31750.9,34521.1,-0.3463,-0.581,138.0,98.3,0.468
10.4,31737.9,34595.1,-0.3645,-0.4901,138.0,98.3,0.468
10.42,31945.2,34840.9,-0.0737,-0.188,138.0,98.3,0.468
10.44,32037.8,35258.3,0.0562,0.3248,138.0,98.3,0.468
10.46,32217.5,35601.3,0.3084,0.7463,138.0,98.3,0.468
10.48,32271.4,35782.9,0.384,0.9695,138.0,98.3,0.468
10.5,32336.5,35837.8,0.4752,1.037,138.0,98.3,0.468
10.52,32270.1,35697.4,0.3821,0.8644,138.0,98.3,0.468
10.54,32143.7,35483.4,0.2048,0.6015,138.0,98.3,0.468
10.56,32048.9,35240.7,0.0718,0.3033,138.0,98.3,0.468
10.58,32046.9,35120.4,0.069,0.1554,138.0,98.3,0.468
10.6,32005.2,35097.3,0.0105,0.1271,138.0,98.3,0.468
10.62,32030.4,35068.5,0.0458,0.0917,138.0,98.3,0.468
10.64,32010.8,34915.4,0.0184,-0.0965,138.0,98.3,0.468
10.66,31954.1,34878.1,-0.0612,-0.1423,138.0,98.3,0.468
10.68,31827.6,34813.5,-0.2387,-0.2217,138.0,98.3,0.468
10.7,31860.7,34759.5,-0.1923,-0.288,138.0,98.3,0.468
10.72,31924.8,34704.1,-0.1023,-0.3561,138.0,98.3,0.468
10.74,31846.0,34653.7,-0.2129,-0.418,138.0,98.3,0.468
10.76,31880.9,34656.0,-0.1639,-0.4152,138.0,98.3,0.468
10.78,31821.7,34603.5,-0.2469,-0.4798,138.0,98.3,0.468
10.8,31798.1,34430.6,-0.28,-0.6922,138.0,98.3,0.468
10.82,31847.9,34458.1,-0.2102,-0.6584,138.0,98.3,0.468
10.84,31722.7,34665.2,-0.3859,-0.4039,138.0,98.3,0.468
10.86,31900.9,34883.4,-0.1359,-0.1357,138.0,98.3,0.468
10.88,32139.0,35363.9,0.1981,0.4547,138.0,98.3,0.468
10.9,32252.1,35598.5,0.3569,0.7429,138.0,98.3,0.468
10.92,32311.4,35746.7,0.4401,0.925,138.0,98.3,0.468
10.94,32367.0,35646.0,0.518,0.8012,138.0,98.3,0.468
10.96,32150.9,35593.3,0.2149,0.7365,138.0,98.3,0.468
10.98,32223.0,35317.4,0.316,0.3975,138.0,98.3,0.468
11.0,32148.2,35181.4,0.2111,0.2304,138.0,98.3,0.468
11.02,32084.0,35141.3,0.1211,0.1811,138.0,98.3,0.468
11.04,32047.7,35136.1,0.0701,0.1748,138.0,98.3,0.468
11.06,32011.9,35058.1,0.0199,0.0788,138.0,98.3,0.468
11.08,32026.0,34926.8,0.0397,-0.0824,138.0,98.3,0.468
11.1,31927.9,34805.4,-0.0979,-0.2317,138.0,98.3,0.468
11.12,31811.2,34700.4,-0.2617,-0.3607,138.0,98.3,0.468
11.14,31851.9,34702.5,-0.2046,-0.3581,138.0,98.3,0.468
11.16,31817.2,34623.3,-0.2533,-0.4554,138.0,98.3,0.468
11.18,31860.5,34703.0,-0.1925,-0.3574,138.0,98.3,0.468
11.2,31734.7,34602.4,-0.3689,-0.4811,138.0,98.3,0.468
11.22,31814.8,34435.3,-0.2566,-0.6864,138.0,98.3,0.468
11.24,31815.3,34468.2,-0.256,-0.6459,138.0,98.3,0.468
11.26,31732.5,34510.9,-0.3721,-0.5935,138.0,98.3,0.468
11.28,31900.2,34659.5,-0.1368,-0.4109,138.0,98.3,0.468
11.3,32111.8,35049.0,0.1601,0.0677,138.0,98.3,0.468
11.32,32257.3,35468.6,0.3642,0.5833,138.0,98.3,0.468
11.34,32328.7,35650.8,0.4643,0.8072,138.0,98.3,0.468
11.36,32331.1,35752.2,0.4677,0.9317,138.0,98.3,0.468
11.38,32218.0,35614.8,0.309,0.7629,138.0,98.3,0.468
11.4,32169.9,35536.1,0.2416,0.6662,138.0,98.3,0.468
11.42,32154.1,35385.5,0.2195,0.4812,138.0,98.3,0.468
11.44,31996.2,35174.8,-0.0022,0.2223,138.0,98.3,0.468
11.46,32060.9,35142.9,0.0886,0.1831,138.0,98.3,0.468
11.48,31858.3,35112.1,-0.1956,0.1453,138.0,98.3,0.468
11.5,31978.5,35082.4,-0.027,0.1088,138.0,98.3,0.468
11.52,32029.3,34917.2,0.0443,-0.0942,138.0,98.3,0.468
11.54,32006.3,34824.2,0.012,-0.2086,138.0,98.3,0.468
11.56,31835.8,34682.2,-0.2271,-0.383,138.0,98.3,0.468
11.58,31849.5,34646.0,-0.208,-0.4275,138.0,98.3,0.468
11.6,31800.0,34698.5,-0.2774,-0.363,138.0,98.3,0.468
11.62,31838.7,34606.8,-0.2231,-0.4756,138.0,98.3,0.468
11.64,31750.0,34690.4,-0.3475,-0.3729,138.0,98.3,0.468
11.66,31787.1,34424.8,-0.2955,-0.6993,138.0,98.3,0.468
11.68,31915.1,34509.5,-0.1159,-0.5953,138.0,98.3,0.468
11.7,31786.9,34543.1,-0.2958,-0.5539,138.0,98.3,0.468
11.72,31893.9,34829.4,-0.1456,-0.2022,138.0,98.3,0.468
11.74,32119.8,35196.1,0.1713,0.2485,138.0,98.3,0.468
11.76,32311.1,35533.5,0.4397,0.6631,138.0,98.3,0.468
11.78,32329.6,35755.2,0.4655,0.9355,138.0,98.3,0.468
11.8,32338.7,35769.9,0.4784,0.9535,138.0,98.3,0.468
11.82,32235.3,35634.2,0.3333,0.7868,138.0,98.3,0.468
11.84,32198.1,35443.0,0.2811,0.5518,138.0,98.3,0.468
11.86,32053.5,35268.0,0.0783,0.3367,138.0,98.3,0.468
11.88,32003.8,35137.8,0.0086,0.1768,138.0,98.3,0.468
11.9,32132.6,35047.0,0.1893,0.0652,138.0,98.3,0.468
11.92,32001.1,35070.5,0.0047,0.0941,138.0,98.3,0.468
11.94,32005.1,35026.4,0.0103,0.04,138.0,98.3,0.468
11.96,31943.1,34869.1,-0.0767,-0.1533,138.0,98.3,0.468
11.98,31856.2,34768.5,-0.1985,-0.277,138.0,98.3,0.468
12.0,31832.1,34712.5,-0.2324,-0.3458,138.0,98.3,0.468
12.02,31882.3,34732.7,-0.1619,-0.321,138.0,98.3,0.468
12.04,31829.3,34629.5,-0.2362,-0.4477,138.0,98.3,0.468
12.06,31912.2,34580.9,-0.12,-0.5075,138.0,98.3,0.468
12.08,31802.2,34543.3,-0.2743,-0.5537,138.0,98.3,0.468
12.1,31783.8,34519.6,-0.3001,-0.5828,138.0,98.3,0.468
12.12,31760.3,34446.7,-0.3331,-0.6724,138.0,98.3,0.468
12.14,31709.9,34655.0,-0.4038,-0.4165,138.0,98.3,0.468
12.16,31931.6,34804.8,-0.0927,-0.2323,138.0,98.3,0.468
12.18,32112.8,35277.3,0.1615,0.3483,138.0,98.3,0.468
12.2,32260.1,35558.3,0.3682,0.6934,138.0,98.3,0.468
12.22,32348.8,35777.6,0.4925,0.9629,138.0,98.3,0.468
12.24,32386.4,35706.8,0.5452,0.8759,138.0,98.3,0.468
12.26,32312.7,35591.9,0.4419,0.7348,138.0,98.3,0.468
12.28,32207.5,35429.8,0.2943,0.5356,138.0,98.3,0.468
12.3,32156.3,35272.6,0.2225,0.3425,138.0,98.3,0.468
12.32,32095.9,35191.1,0.1378,0.2423,138.0,98.3,0.468
12.34,32081.5,35030.5,0.1175,0.045,138.0,98.3,0.468
12.36,31979.1,35000.3,-0.0262,0.0079,138.0,98.3,0.468
12.38,31924.1,34945.3,-0.1033,-0.0598,138.0,98.3,0.468
12.4,31906.4,34945.0,-0.1281,-0.0601,138.0,98.3,0.468
12.42,31869.7,34696.6,-0.1796,-0.3654,138.0,98.3,0.468
12.44,31699.4,34730.6,-0.4185,-0.3235,138.0,98.3,0.468
12.46,31918.4,34669.0,-0.1113,-0.3992,138.0,98.3,0.468
12.48,31855.0,34587.5,-0.2002,-0.4994,138.0,98.3,0.468
12.5,31853.7,34665.2,-0.2021,-0.4039,138.0,98.3,0.468
12.52,31749.9,34530.7,-0.3477,-0.5692,138.0,98.3,0.468
12.54,31755.6,34439.3,-0.3397,-0.6815,138.0,98.3,0.468
12.56,31699.2,34569.4,-0.4188,-0.5216,138.0,98.3,0.468
12.58,31904.2,34736.8,-0.1312,-0.316,138.0,98.3,0.468
12.6,31973.3,34937.1,-0.0342,-0.0698,138.0,98.3,0.468
12.62,32154.4,35301.7,0.2198,0.3782,138.0,98.3,0.468
12.64,32292.9,35575.9,0.4141,0.7151,138.0,98.3,0.468
12.66,32310.9,35703.4,0.4394,0.8718,138.0,98.3,0.468
12.68,32313.3,35701.2,0.4427,0.8691,138.0,98.3,0.468
12.7,32250.4,35482.0,0.3545,0.5997,138.0,98.3,0.468
12.72,32171.2,35336.2,0.2434,0.4207,138.0,98.3,0.468
12.74,32059.4,35195.4,0.0865,0.2476,138.0,98.3,0.468
12.76,32011.7,35122.4,0.0196,0.1579,138.0,98.3,0.468
12.78,32040.2,35118.4,0.0596,0.153,138.0,98.3,0.468
12.8,32031.4,35054.6,0.0473,0.0746,138.0,98.3,0.468
12.82,32005.9,34922.5,0.0115,-0.0877,138.0,98.3,0.468
12.84,32030.9,34781.7,0.0466,-0.2608,138.0,98.3,0.468
12.86,31936.9,34733.7,-0.0853,-0.3197,138.0,98.3,0.468
12.88,31898.7,34778.5,-0.1389,-0.2647,138.0,98.3,0.468
12.9,31921.9,34568.4,-0.1064,-0.5229,138.0,98.3,0.468
12.92,31956.3,34669.4,-0.0581,-0.3987,138.0,98.3,0.468
12.94,31811.4,34528.8,-0.2614,-0.5715,138.0,98.3,0.468
12.96,31766.6,34497.4,-0.3242,-0.61,138.0,98.3,0.468
12.98,31721.1,34412.9,-0.3881,-0.7139,138.0,98.3,0.468
13.0,31831.0,34536.9,-0.2339,-0.5616,138.0,98.3,0.468
13.02,31961.1,34842.2,-0.0514,-0.1865,138.0,98.3,0.468
13.04,32064.7,35087.3,0.0939,0.1147,138.0,98.3,0.468
13.06,32160.8,35351.6,0.2288,0.4395,138.0,98.3,0.468
13.08,32270.5,35652.6,0.3826,0.8094,138.0,98.3,0.468
13.1,32399.9,35784.9,0.5643,0.972,138.0,98.3,0.468
13.12,32275.7,35715.7,0.39,0.8869,138.0,98.3,0.468
13.14,32213.9,35417.9,0.3032,0.521,138.0,98.3,0.468
13.16,32143.7,35205.5,0.2048,0.26,138.0,98.3,0.468
13.18,32096.0,35162.7,0.1378,0.2074,138.0,98.3,0.468
13.2,32084.1,35031.6,0.1212,0.0464,138.0,98.3,0.468
13.22,32114.3,35063.9,0.1635,0.086,138.0,98.3,0.468
13.24,32015.4,35042.9,0.0248,0.0602,138.0,98.3,0.468
13.26,31987.4,34961.3,-0.0145,-0.0401,138.0,98.3,0.468
13.28,31857.4,34839.9,-0.1968,-0.1893,138.0,98.3,0.468
13.3,31775.8,34629.9,-0.3113,-0.4472,138.0,98.3,0.468
13.32,31884.3,34715.2,-0.1591,-0.3425,138.0,98.3,0.468
13.34,31816.5,34698.4,-0.2542,-0.3631,138.0,98.3,0.468
13.36,31903.7,34661.1,-0.1318,-0.409,138.0,98.3,0.468
13.38,31747.1,34580.8,-0.3516,-0.5076,138.0,98.3,0.468
13.4,31856.9,34515.8,-0.1975,-0.5874,138.0,98.3,0.468
13.42,31674.5,34401.2,-0.4534,-0.7282,138.0,98.3,0.468
13.44,31777.0,34626.5,-0.3096,-0.4514,138.0,98.3,0.468
13.46,31958.0,34762.9,-0.0557,-0.2838,138.0,98.3,0.468
13.48,32092.7,35177.7,0.1333,0.2258,138.0,98.3,0.468
13.5,32223.0,35440.0,0.316,0.5481,138.0,98.3,0.468
13.52,32303.2,35698.7,0.4286,0.866,138.0,98.3,0.468
13.54,32286.5,35744.4,0.4052,0.9222,138.0,98.3,0.468
13.56,32274.5,35463.9,0.3883,0.5775,138.0,98.3,0.468
13.58,32078.6,35422.2,0.1135,0.5263,138.0,98.3,0.468
13.6,32094.0,35246.6,0.135,0.3104,138.0,98.3,0.468
13.62,32108.3,35159.7,0.1551,0.2037,138.0,98.3,0.468
13.64,32030.8,35131.9,0.0464,0.1696,138.0,98.3,0.468
13.66,31939.8,35043.9,-0.0812,0.0614,138.0,98.3,0.468
13.68,32049.0,34932.2,0.0719,-0.0759,138.0,98.3,0.468
13.7,31921.7,34815.7,-0.1067,-0.219,138.0,98.3,0.468
13.72,31924.1,34672.8,-0.1033,-0.3946,138.0,98.3,0.468
13.74,31916.5,34701.6,-0.1139,-0.3592,138.0,98.3,0.468
13.76,31837.7,34685.4,-0.2245,-0.3791,138.0,98.3,0.468
13.78,31848.5,34642.0,-0.2094,-0.4325,138.0,98.3,0.468
13.8,31926.6,34604.3,-0.0997,-0.4787,138.0,98.3,0.468
13.82,31762.7,34465.7,-0.3297,-0.649,138.0,98.3,0.468
13.84,31757.3,34414.0,-0.3372,-0.7126,138.0,98.3,0.468
13.86,31700.9,34451.5,-0.4164,-0.6664,138.0,98.3,0.468
13.88,31774.2,34526.2,-0.3136,-0.5747,138.0,98.3,0.468
13.9,31963.4,34841.3,-0.0482,-0.1875,138.0,98.3,0.468
13.92,32004.7,35211.6,0.0098,0.2675,138.0,98.3,0.468
13.94,32245.4,35578.8,0.3474,0.7186,138.0,98.3,0.468
13.96,32292.7,35717.1,0.4138,0.8886,138.0,98.3,0.468
13.98,32244.4,35706.3,0.3461,0.8754,138.0,98.3,0.468
14.0,32218.0,35558.8,0.3091,0.6941,138.0,98.3,0.468
14.02,32087.9,35383.3,0.1266,0.4784,138.0,98.3,0.468
14.04,32053.7,35200.1,0.0785,0.2533,138.0,98.3,0.468
14.06,32071.7,35103.6,0.1038,0.1348,138.0,98.3,0.468
14.08,32056.2,35052.8,0.082,0.0723,138.0,98.3,0.468
14.1,32021.5,35024.5,0.0333,0.0375,138.0,98.3,0.468
14.12,31931.1,35017.4,-0.0935,0.0288,138.0,98.3,0.468
14.14,31911.8,34811.1,-0.1205,-0.2246,138.0,98.3,0.468
14.16,31913.8,34747.8,-0.1177,-0.3024,138.0,98.3,0.468
14.18,31854.2,34657.6,-0.2013,-0.4132,138.0,98.3,0.468
14.2,31901.5,34704.9,-0.135,-0.3552,138.0,98.3,0.468
14.22,31950.6,34664.8,-0.0661,-0.4044,138.0,98.3,0.468
14.24,31897.2,34601.6,-0.1411,-0.482,138.0,98.3,0.468
14.26,31851.3,34544.5,-0.2055,-0.5523,138.0,98.3,0.468
14.28,31732.9,34362.7,-0.3715,-0.7756,138.0,98.3,0.468
14.3,31642.3,34538.2,-0.4986,-0.5599,138.0,98.3,0.468
14.32,31817.7,34619.7,-0.2525,-0.4598,138.0,98.3,0.468
14.34,32004.7,34974.8,0.0097,-0.0235,138.0,98.3,0.468
14.36,32049.1,35365.7,0.0721,0.4568,138.0,98.3,0.468
14.38,32256.1,35648.0,0.3626,0.8037,138.0,98.3,0.468
14.4,32371.0,35706.2,0.5236,0.8752,138.0,98.3,0.468
14.42,32272.2,35698.0,0.3851,0.8651,138.0,98.3,0.468
14.44,32262.6,35482.3,0.3716,0.6001,138.0,98.3,0.468
14.46,32084.0,35345.0,0.121,0.4314,138.0,98.3,0.468
14.48,32135.7,35194.9,0.1936,0.247,138.0,98.3,0.468
14.5,32105.6,35155.1,0.1514,0.1981,138.0,98.3,0.468
14.52,32037.8,35020.4,0.0562,0.0325,138.0,98.3,0.468
14.54,32030.3,34882.1,0.0457,-0.1374,138.0,98.3,0.468
14.56,31973.3,34904.2,-0.0342,-0.1103,138.0,98.3,0.468
14.58,31914.0,34908.1,-0.1174,-0.1054,138.0,98.3,0.468
14.6,31875.9,34810.4,-0.171,-0.2255,138.0,98.3,0.468
14.62,31889.1,34694.4,-0.1524,-0.368,138.0,98.3,0.468
14.64,31737.9,34711.3,-0.3644,-0.3472,138.0,98.3,0.468
14.66,31781.5,34592.1,-0.3034,-0.4938,138.0,98.3,0.468
14.68,31776.3,34544.3,-0.3107,-0.5525,138.0,98.3,0.468
14.7,31723.0,34502.2,-0.3854,-0.6041,138.0,98.3,0.468
14.72,31864.6,34410.0,-0.1867,-0.7175,138.0,98.3,0.468
14.74,31899.6,34551.0,-0.1376,-0.5442,138.0,98.3,0.468
14.76,31854.2,34676.8,-0.2014,-0.3896,138.0,98.3,0.468
14.78,32020.9,35158.0,0.0325,0.2016,138.0,98.3,0.468
14.8,32153.1,35454.7,0.218,0.5662,138.0,98.3,0.468
14.82,32295.7,35719.4,0.4181,0.8914,138.0,98.3,0.468
14.84,32352.3,35758.8,0.4974,0.9398,138.0,98.3,0.468
14.86,32400.1,35661.2,0.5646,0.8199,138.0,98.3,0.468
14.88,32306.7,35404.1,0.4334,0.504,138.0,98.3,0.468
14.9,32144.3,35295.8,0.2056,0.371,138.0,98.3,0.468
14.92,32131.0,35250.5,0.187,0.3153,138.0,98.3,0.468
14.94,32121.6,35126.8,0.1738,0.1632,138.0,98.3,0.468
14.96,32007.7,35139.4,0.014,0.1788,138.0,98.3,0.468
14.98,32027.2,34987.7,0.0413,-0.0076,138.0,98.3,0.468
15.0,31981.9,34843.6,-0.0222,-0.1847,138.0,98.3,0.468
15.02,31827.4,34722.0,-0.2389,-0.3341,138.0,98.3,0.468
15.04,31918.3,34740.2,-0.1115,-0.3118,138.0,98.3,0.468
15.06,31809.7,34669.1,-0.2638,-0.3991,138.0,98.3,0.468
15.08,31970.7,34718.6,-0.0379,-0.3382,138.0,98.3,0.468
15.1,31841.4,34697.3,-0.2193,-0.3644,138.0,98.3,0.468
15.12,31771.4,34541.1,-0.3175,-0.5564,138.0,98.3,0.468
15.14,31782.6,34523.4,-0.3018,-0.5781,138.0,98.3,0.468
15.16,31773.7,34411.0,-0.3143,-0.7162,138.0,98.3,0.468
15.18,31776.4,34536.0,-0.3105,-0.5627,138.0,98.3,0.468
15.2,31969.9,34777.6,-0.0391,-0.2657,138.0,98.3,0.468
15.22,32056.3,35167.5,0.0822,0.2133,138.0,98.3,0.468
15.24,32242.7,35511.2,0.3437,0.6357,138.0,98.3,0.468
15.26,32309.2,35744.0,0.437,0.9216,138.0,98.3,0.468
15.28,32300.8,35802.0,0.4252,0.993,138.0,98.3,0.468
15.3,32246.7,35641.7,0.3493,0.796,138.0,98.3,0.468
15.32,32266.7,35503.7,0.3774,0.6264,138.0,98.3,0.468
15.34,32024.5,35308.7,0.0376,0.3868,138.0,98.3,0.468
15.36,32080.1,35076.6,0.1156,0.1017,138.0,98.3,0.468
15.38,32010.8,34998.4,0.0183,0.0056,138.0,98.3,0.468
15.4,32099.9,35060.6,0.1434,0.0819,138.0,98.3,0.468
15.42,32017.4,34972.3,0.0277,-0.0266,138.0,98.3,0.468
15.44,31983.6,34896.3,-0.0198,-0.12,138.0,98.3,0.468
15.46,31833.8,34713.8,-0.23,-0.3441,138.0,98.3,0.468
15.48,31915.7,34662.4,-0.115,-0.4074,138.0,98.3,0.468
15.5,31852.5,34843.0,-0.2037,-0.1855,138.0,98.3,0.468
15.52,31819.2,34656.7,-0.2505,-0.4144,138.0,98.3,0.468
15.54,31786.8,34569.2,-0.2959,-0.5219,138.0,98.3,0.468
15.56,31792.7,34606.2,-0.2876,-0.4764,138.0,98.3,0.468
15.58,31771.6,34438.8,-0.3172,-0.6821,138.0,98.3,0.468
15.6,31739.7,34434.6,-0.3619,-0.6873,138.0,98.3,0.468
15.62,31885.9,34549.2,-0.1569,-0.5464,138.0,98.3,0.468
15.64,32008.9,34893.6,0.0157,-0.1232,138.0,98.3,0.468
15.66,32079.3,35269.0,0.1145,0.338,138.0,98.3,0.468
15.68,32199.4,35687.0,0.2829,0.8517,138.0,98.3,0.468
15.7,32216.5,35745.8,0.3069,0.9239,138.0,98.3,0.468
15.72,32339.4,35686.3,0.4794,0.8508,138.0,98.3,0.468
15.74,32270.2,35605.6,0.3823,0.7517,138.0,98.3,0.468
15.76,32148.2,35349.9,0.211,0.4374,138.0,98.3,0.468
15.78,32054.6,35240.0,0.0797,0.3024,138.0,98.3,0.468
15.8,31980.8,35103.1,-0.0238,0.1342,138.0,98.3,0.468
15.82,32026.9,35081.7,0.041,0.1079,138.0,98.3,0.468
15.84,32012.2,35138.9,0.0203,0.1782,138.0,98.3,0.468
15.86,31909.0,35008.2,-0.1245,0.0175,138.0,98.3,0.468
15.88,31892.3,34828.0,-0.1479,-0.2038,138.0,98.3,0.468
15.9,31861.6,34682.5,-0.1909,-0.3827,138.0,98.3,0.468
15.92,31832.6,34739.3,-0.2316,-0.3128,138.0,98.3,0.468
15.94,31741.3,34718.2,-0.3598,-0.3388,138.0,98.3,0.468
15.96,31864.9,34665.6,-0.1863,-0.4034,138.0,98.3,0.468
15.98,31803.0,34670.8,-0.2732,-0.3971,138.0,98.3,0.468
16.0,31786.2,34561.2,-0.2967,-0.5317,138.0,98.3,0.468
16.02,31717.5,34419.9,-0.3931,-0.7053,138.0,98.3,0.468
16.04,31844.2,34426.5,-0.2153,-0.6972,138.0,98.3,0.468
16.06,31824.1,34722.9,-0.2436,-0.333,138.0,98.3,0.468
16.08,32072.3,35028.6,0.1047,0.0426,138.0,98.3,0.468
16.1,32120.2,35336.6,0.1718,0.4211,138.0,98.3,0.468
16.12,32278.4,35631.0,0.3937,0.7828,138.0,98.3,0.468
16.14,32352.9,35700.6,0.4983,0.8684,138.0,98.3,0.468
16.16,32253.4,35711.7,0.3586,0.8819,138.0,98.3,0.468
16.18,32316.3,35521.2,0.4469,0.6479,138.0,98.3,0.468
16.2,32154.9,35305.6,0.2205,0.3829,138.0,98.3,0.468
16.22,32134.4,35144.7,0.1918,0.1852,138.0,98.3,0.468
16.24,32116.0,35071.5,0.166,0.0953,138.0,98.3,0.468
16.26,32081.9,34982.1,0.1181,-0.0145,138.0,98.3,0.468
16.28,31985.9,35039.8,-0.0166,0.0564,138.0,98.3,0.468
16.3,31887.0,34986.6,-0.1553,-0.009,138.0,98.3,0.468
16.32,31885.7,34765.5,-0.1571,-0.2807,138.0,98.3,0.468
16.34,31863.2,34739.4,-0.1887,-0.3127,138.0,98.3,0.468
16.36,31882.6,34678.1,-0.1615,-0.388,138.0,98.3,0.468
16.38,31769.3,34682.1,-0.3205,-0.3831,138.0,98.3,0.468
16.4,31893.7,34628.8,-0.1459,-0.4487,138.0,98.3,0.468
16.42,31841.8,34573.5,-0.2188,-0.5165,138.0,98.3,0.468
16.44,31754.3,34512.9,-0.3415,-0.5911,138.0,98.3,0.468
16.46,31828.1,34570.5,-0.238,-0.5202,138.0,98.3,0.468
16.48,31761.6,34402.2,-0.3312,-0.7271,138.0,98.3,0.468
16.5,31920.2,34657.2,-0.1087,-0.4138,138.0,98.3,0.468
16.52,32027.6,35113.0,0.0419,0.1464,138.0,98.3,0.468
16.54,32129.9,35424.3,0.1855,0.5289,138.0,98.3,0.468
16.56,32335.6,35673.2,0.474,0.8347,138.0,98.3,0.468
16.58,32416.7,35745.4,0.5879,0.9234,138.0,98.3,0.468
16.6,32311.7,35620.5,0.4405,0.7699,138.0,98.3,0.468
16.62,32255.5,35467.6,0.3616,0.5821,138.0,98.3,0.468
16.64,32054.0,35333.3,0.079,0.4171,138.0,98.3,0.468
16.66,32160.8,35148.6,0.2288,0.1901,138.0,98.3,0.468
16.68,32075.6,35140.6,0.1092,0.1802,138.0,98.3,0.468
16.7,32031.7,35038.2,0.0476,0.0544,138.0,98.3,0.468
16.72,31992.8,35030.4,-0.0068,0.0448,138.0,98.3,0.468
16.74,31916.8,34905.3,-0.1135,-0.1089,138.0,98.3,0.468
16.76,31956.7,34740.9,-0.0576,-0.3109,138.0,98.3,0.468
16.78,31855.4,34692.8,-0.1997,-0.37,138.0,98.3,0.468
16.8,31791.0,34636.8,-0.29,-0.4387,138.0,98.3,0.468
16.82,31805.6,34649.4,-0.2696,-0.4233,138.0,98.3,0.468
16.84,31918.4,34619.5,-0.1113,-0.4601,138.0,98.3,0.468
16.86,31835.5,34550.0,-0.2275,-0.5454,138.0,98.3,0.468
16.88,31846.2,34474.5,-0.2125,-0.6382,138.0,98.3,0.468
16.9,31813.2,34476.3,-0.2589,-0.6361,138.0,98.3,0.468
16.92,31790.1,34579.4,-0.2912,-0.5093,138.0,98.3,0.468
16.94,31872.8,34733.9,-0.1753,-0.3194,138.0,98.3,0.468
16.96,32095.2,35238.2,0.1368,0.3002,138.0,98.3,0.468
16.98,32154.9,35606.8,0.2205,0.7531,138.0,98.3,0.468
17.0,32307.9,35744.2,0.4351,0.9219,138.0,98.3,0.468
17.02,32388.7,35693.2,0.5485,0.8593,138.0,98.3,0.468
17.04,32278.1,35734.6,0.3933,0.9101,138.0,98.3,0.468
17.06,32218.4,35451.9,0.3096,0.5627,138.0,98.3,0.468
17.08,32106.6,35219.1,0.1528,0.2767,138.0,98.3,0.468
17.1,32070.1,35120.5,0.1015,0.1556,138.0,98.3,0.468
17.12,32087.4,35094.7,0.1258,0.1238,138.0,98.3,0.468
17.14,31986.2,35063.9,-0.0161,0.086,138.0,98.3,0.468
17.16,32087.7,34907.4,0.1262,-0.1063,138.0,98.3,0.468
17.18,31912.4,34815.1,-0.1196,-0.2197,138.0,98.3,0.468
17.2,31871.5,34820.4,-0.1771,-0.2132,138.0,98.3,0.468
17.22,31844.9,34761.4,-0.2144,-0.2856,138.0,98.3,0.468
17.24,31792.1,34682.8,-0.2885,-0.3822,138.0,98.3,0.468
17.26,31845.0,34668.8,-0.2143,-0.3995,138.0,98.3,0.468
17.28,31801.3,34618.0,-0.2755,-0.4619,138.0,98.3,0.468
17.3,31888.8,34488.5,-0.1529,-0.621,138.0,98.3,0.468
17.32,31779.1,34449.8,-0.3068,-0.6686,138.0,98.3,0.468
17.34,31693.2,34452.7,-0.4272,-0.665,138.0,98.3,0.468
17.36,31827.3,34595.9,-0.2391,-0.4891,138.0,98.3,0.468
17.38,31958.8,34896.6,-0.0546,-0.1195,138.0,98.3,0.468
17.4,32137.0,35272.1,0.1954,0.3418,138.0,98.3,0.468
17.42,32279.2,35570.2,0.3949,0.7082,138.0,98.3,0.468
17.44,32324.2,35719.6,0.458,0.8917,138.0,98.3,0.468
17.46,32274.1,35891.7,0.3877,1.1031,138.0,98.3,0.468
17.48,32166.7,35608.9,0.237,0.7557,138.0,98.3,0.468
17.5,32177.4,35230.3,0.2521,0.2904,138.0,98.3,0.468
17.52,32122.2,35182.8,0.1746,0.2321,138.0,98.3,0.468
17.54,32055.8,35069.0,0.0815,0.0923,138.0,98.3,0.468
17.56,32013.7,35080.1,0.0224,0.106,138.0,98.3,0.468
17.58,32024.6,34908.9,0.0377,-0.1044,138.0,98.3,0.468
17.6,31957.2,34914.2,-0.0568,-0.098,138.0,98.3,0.468
17.62,31932.7,34850.0,-0.0912,-0.1768,138.0,98.3,0.468
17.64,31875.8,34847.6,-0.1711,-0.1798,138.0,98.3,0.468
17.66,31895.2,34794.9,-0.1438,-0.2445,138.0,98.3,0.468
17.68,31887.9,34667.0,-0.154,-0.4017,138.0,98.3,0.468
17.7,31869.7,34685.8,-0.1796,-0.3786,138.0,98.3,0.468
17.72,31791.3,34646.0,-0.2896,-0.4275,138.0,98.3,0.468
17.74,31740.7,34447.7,-0.3606,-0.6712,138.0,98.3,0.468
17.76,31723.6,34485.9,-0.3845,-0.6242,138.0,98.3,0.468
17.78,31819.2,34583.4,-0.2504,-0.5044,138.0,98.3,0.468
17.8,31990.6,34627.5,-0.01,-0.4502,138.0,98.3,0.468
17.82,32095.8,35023.8,0.1375,0.0367,138.0,98.3,0.468
17.84,32118.3,35336.2,0.1691,0.4206,138.0,98.3,0.468
17.86,32370.7,35671.3,0.5232,0.8324,138.0,98.3,0.468
17.88,32299.1,35744.6,0.4228,0.9224,138.0,98.3,0.468
17.9,32324.5,35751.8,0.4584,0.9312,138.0,98.3,0.468
17.92,32140.0,35529.0,0.1997,0.6575,138.0,98.3,0.468
17.94,32221.6,35453.0,0.314,0.5641,138.0,98.3,0.468
17.96,32149.9,35171.8,0.2134,0.2186,138.0,98.3,0.468
17.98,32106.2,35178.6,0.1522,0.2269,138.0,98.3,0.468
18.0,32049.7,35048.1,0.073,0.0665,138.0,98.3,0.468
18.02,32036.1,35080.9,0.0538,0.1069,138.0,98.3,0.468
18.04,31888.8,34944.0,-0.1529,-0.0613,138.0,98.3,0.468
18.06,31895.6,34720.8,-0.1432,-0.3356,138.0,98.3,0.468
18.08,31921.4,34724.0,-0.107,-0.3316,138.0,98.3,0.468
18.1,31898.8,34660.7,-0.1387,-0.4095,138.0,98.3,0.468
18.12,31893.8,34680.7,-0.1457,-0.3848,138.0,98.3,0.468
18.14,31838.1,34652.6,-0.2239,-0.4194,138.0,98.3,0.468
18.16,31795.7,34585.2,-0.2834,-0.5022,138.0,98.3,0.468
18.18,31782.4,34462.6,-0.3021,-0.6528,138.0,98.3,0.468
18.2,31756.3,34403.4,-0.3387,-0.7256,138.0,98.3,0.468
18.22,31795.0,34524.6,-0.2844,-0.5767,138.0,98.3,0.468
18.24,31890.9,34710.9,-0.1498,-0.3477,138.0,98.3,0.468
18.26,31996.4,35146.2,-0.0018,0.1872,138.0,98.3,0.468
18.28,32164.4,35433.9,0.2339,0.5406,138.0,98.3,0.468
18.3,32373.2,35671.0,0.5268,0.832,138.0,98.3,0.468
18.32,32338.8,35792.1,0.4785,0.9807,138.0,98.3,0.468
18.34,32268.1,35657.9,0.3794,0.8159,138.0,98.3,0.468
18.36,32155.2,35483.4,0.221,0.6015,138.0,98.3,0.468
18.38,32161.5,35275.0,0.2298,0.3454,138.0,98.3,0.468
18.4,32040.5,35163.8,0.06,0.2088,138.0,98.3,0.468
18.42,31996.4,35175.7,-0.0019,0.2234,138.0,98.3,0.468
18.44,31999.0,34977.2,0.0017,-0.0205,138.0,98.3,0.468
18.46,31950.8,34976.6,-0.0658,-0.0213,138.0,98.3,0.468
18.48,32013.0,34800.3,0.0214,-0.2379,138.0,98.3,0.468
18.5,31958.5,34750.2,-0.055,-0.2994,138.0,98.3,0.468
18.52,31954.5,34671.7,-0.0607,-0.3959,138.0,98.3,0.468
18.54,31876.8,34605.5,-0.1696,-0.4773,138.0,98.3,0.468
18.56,31854.2,34708.8,-0.2013,-0.3503,138.0,98.3,0.468
18.58,31755.9,34611.9,-0.3392,-0.4694,138.0,98.3,0.468
18.6,31732.6,34594.4,-0.3719,-0.491,138.0,98.3,0.468
18.62,31769.0,34504.4,-0.3209,-0.6015,138.0,98.3,0.468
18.64,31865.1,34486.5,-0.186,-0.6234,138.0,98.3,0.468
18.66,31664.7,34584.1,-0.4672,-0.5035,138.0,98.3,0.468
18.68,32016.1,34787.1,0.0258,-0.2541,138.0,98.3,0.468
18.7,31993.8,35235.4,-0.0055,0.2967,138.0,98.3,0.468
18.72,32293.6,35513.4,0.4151,0.6383,138.0,98.3,0.468
18.74,32340.8,35748.3,0.4814,0.927,138.0,98.3,0.468
18.76,32295.8,35801.4,0.4181,0.9922,138.0,98.3,0.468
18.78,32303.7,35560.0,0.4292,0.6956,138.0,98.3,0.468
18.8,32100.0,35378.1,0.1435,0.4721,138.0,98.3,0.468
18.82,32028.7,35212.7,0.0434,0.2689,138.0,98.3,0.468
18.84,32008.8,35171.8,0.0156,0.2186,138.0,98.3,0.468
18.86,32016.8,35090.8,0.0268,0.1191,138.0,98.3,0.468
18.88,31913.6,34949.8,-0.118,-0.0542,138.0,98.3,0.468
18.9,31926.5,34907.4,-0.1,-0.1064,138.0,98.3,0.468
18.92,32011.8,34832.9,0.0198,-0.1979,138.0,98.3,0.468
18.94,31910.7,34880.1,-0.1221,-0.1398,138.0,98.3,0.468
18.96,31824.7,34695.2,-0.2428,-0.3671,138.0,98.3,0.468
18.98,31874.1,34621.2,-0.1734,-0.458,138.0,98.3,0.468
19.0,31745.6,34655.8,-0.3537,-0.4155,138.0,98.3,0.468
19.02,31904.4,34650.9,-0.1309,-0.4214,138.0,98.3,0.468
19.04,31845.9,34520.9,-0.213,-0.5812,138.0,98.3,0.468
19.06,31795.1,34442.9,-0.2842,-0.6771,138.0,98.3,0.468
19.08,31794.8,34493.6,-0.2846,-0.6147,138.0,98.3,0.468
19.1,31818.4,34641.7,-0.2516,-0.4327,138.0,98.3,0.468
19.12,31863.9,34897.7,-0.1877,-0.1182,138.0,98.3,0.468
19.14,32159.7,35295.7,0.2272,0.3709,138.0,98.3,0.468
19.16,32332.8,35579.9,0.47,0.7201,138.0,98.3,0.468
19.18,32301.3,35733.2,0.4259,0.9084,138.0,98.3,0.468
19.2,32268.7,35855.2,0.3802,1.0583,138.0,98.3,0.468
19.22,32256.8,35624.4,0.3634,0.7747,138.0,98.3,0.468
19.24,32184.3,35442.3,0.2617,0.5509,138.0,98.3,0.468
19.26,32091.1,35216.8,0.131,0.2738,138.0,98.3,0.468
19.28,32071.0,35201.4,0.1029,0.2549,138.0,98.3,0.468
19.3,32141.7,35167.4,0.202,0.2132,138.0,98.3,0.468
19.32,32029.4,34958.3,0.0444,-0.0437,138.0,98.3,0.468
19.34,32004.2,34893.0,0.009,-0.124,138.0,98.3,0.468
19.36,31967.3,34857.3,-0.0426,-0.1678,138.0,98.3,0.468
19.38,31840.2,34777.4,-0.2209,-0.2661,138.0,98.3,0.468
19.4,31936.3,34652.3,-0.0862,-0.4197,138.0,98.3,0.468
19.42,31836.1,34706.9,-0.2267,-0.3526,138.0,98.3,0.468
19.44,31801.4,34576.2,-0.2755,-0.5132,138.0,98.3,0.468
19.46,31819.1,34604.7,-0.2505,-0.4782,138.0,98.3,0.468
19.48,31771.4,34542.6,-0.3175,-0.5545,138.0,98.3,0.468
19.5,31797.5,34396.4,-0.2809,-0.7342,138.0,98.3,0.468
19.52,31791.6,34485.0,-0.2892,-0.6253,138.0,98.3,0.468
19.54,31820.5,34684.8,-0.2486,-0.3798,138.0,98.3,0.468
19.56,32003.7,35008.8,0.0084,0.0182,138.0,98.3,0.468
19.58,32126.4,35380.5,0.1805,0.4751,138.0,98.3,0.468
19.6,32271.9,35701.7,0.3846,0.8697,138.0,98.3,0.468
19.62,32386.9,35868.2,0.546,1.0743,138.0,98.3,0.468
19.64,32270.6,35711.5,0.3828,0.8818,138.0,98.3,0.468
19.66,32229.9,35473.0,0.3257,0.5887,138.0,98.3,0.468
19.68,32185.0,35341.1,0.2628,0.4266,138.0,98.3,0.468
19.7,32019.6,35222.8,0.0306,0.2812,138.0,98.3,0.468
19.72,32023.9,35061.1,0.0367,0.0825,138.0,98.3,0.468
19.74,32030.5,35060.6,0.046,0.082,138.0,98.3,0.468
19.76,32038.0,35058.4,0.0564,0.0793,138.0,98.3,0.468
19.78,31958.8,34819.5,-0.0545,-0.2143,138.0,98.3,0.468
19.8,31924.1,34838.4,-0.1033,-0.1911,138.0,98.3,0.468
19.82,31895.2,34709.1,-0.1438,-0.35,138.0,98.3,0.468
19.84,31880.7,34699.4,-0.1642,-0.3619,138.0,98.3,0.468
19.86,31833.5,34559.2,-0.2304,-0.5342,138.0,98.3,0.468
19.88,31800.8,34606.4,-0.2763,-0.4761,138.0,98.3,0.468
19.9,31821.7,34619.0,-0.2469,-0.4606,138.0,98.3,0.468
19.92,31785.7,34391.4,-0.2974,-0.7404,138.0,98.3,0.468
19.94,31795.5,34412.0,-0.2837,-0.715,138.0,98.3,0.468
19.96,31801.6,34555.0,-0.2752,-0.5393,138.0,98.3,0.468
19.98,31836.9,34731.9,-0.2256,-0.3219,138.0,98.3,0.468
20.0,32076.3,35118.7,0.1103,0.1534,138.0,98.3,0.468
20.02,32190.5,35499.3,0.2705,0.621,138.0,98.3,0.468
20.04,32278.8,35657.6,0.3943,0.8155,138.0,98.3,0.468
20.06,32329.6,35724.9,0.4657,0.8982,138.0,98.3,0.468
20.08,32246.3,35670.8,0.3487,0.8317,138.0,98.3,0.468
20.1,32234.0,35435.6,0.3315,0.5428,138.0,98.3,0.468
20.12,32091.8,35261.3,0.132,0.3286,138.0,98.3,0.468
20.14,32095.1,35130.1,0.1366,0.1673,138.0,98.3,0.468
20.16,31993.7,35110.1,-0.0056,0.1427,138.0,98.3,0.468
20.18,32000.6,35061.4,0.0041,0.0829,138.0,98.3,0.468
20.2,32017.5,34900.8,0.0278,-0.1145,138.0,98.3,0.468
20.22,31919.3,34840.2,-0.11,-0.1889,138.0,98.3,0.468
20.24,31981.7,34855.7,-0.0224,-0.1698,138.0,98.3,0.468
20.26,31952.7,34715.0,-0.0632,-0.3427,138.0,98.3,0.468
20.28,31884.3,34621.2,-0.1591,-0.4579,138.0,98.3,0.468
20.3,31774.7,34717.5,-0.3129,-0.3396,138.0,98.3,0.468
20.32,31826.9,34688.8,-0.2396,-0.3749,138.0,98.3,0.468
20.34,31713.8,34435.1,-0.3983,-0.6867,138.0,98.3,0.468
20.36,31883.6,34446.1,-0.1601,-0.6731,138.0,98.3,0.468
20.38,31875.8,34416.5,-0.171,-0.7094,138.0,98.3,0.468
20.4,31850.2,34583.1,-0.207,-0.5047,138.0,98.3,0.468
20.42,31941.7,34965.1,-0.0786,-0.0355,138.0,98.3,0.468
20.44,32047.7,35184.2,0.0701,0.2339,138.0,98.3,0.468
20.46,32224.9,35520.3,0.3187,0.6468,138.0,98.3,0.468
20.48,32370.3,35663.8,0.5226,0.8232,138.0,98.3,0.468
20.5,32319.7,35811.8,0.4518,1.0049,138.0,98.3,0.468
20.52,32209.5,35566.3,0.2972,0.7034,138.0,98.3,0.468
20.54,32202.2,35494.8,0.2869,0.6154,138.0,98.3,0.468
20.56,32070.3,35196.5,0.1019,0.2489,138.0,98.3,0.468
20.58,31971.0,35183.0,-0.0374,0.2324,138.0,98.3,0.468
20.6,32054.3,35050.4,0.0793,0.0694,138.0,98.3,0.468
20.62,32066.0,35056.5,0.0958,0.0769,138.0,98.3,0.468
20.64,32101.5,34925.4,0.1456,-0.0841,138.0,98.3,0.468
20.66,31940.6,34882.5,-0.0801,-0.1369,138.0,98.3,0.468
20.68,31833.1,34821.2,-0.2309,-0.2122,138.0,98.3,0.468
20.7,31821.5,34597.1,-0.2472,-0.4876,138.0,98.3,0.468
20.72,31847.8,34784.8,-0.2104,-0.2569,138.0,98.3,0.468
20.74,31915.9,34605.6,-0.1147,-0.4771,138.0,98.3,0.468
20.76,31829.5,34544.7,-0.2361,-0.5519,138.0,98.3,0.468
20.78,31790.1,34540.5,-0.2913,-0.5571,138.0,98.3,0.468
20.8,31847.3,34444.9,-0.211,-0.6746,138.0,98.3,0.468
20.82,31710.8,34491.1,-0.4025,-0.6178,138.0,98.3,0.468
20.84,31722.5,34667.2,-0.3861,-0.4014,138.0,98.3,0.468
20.86,32005.7,34867.7,0.0112,-0.1551,138.0,98.3,0.468
20.88,32083.9,35250.8,0.1209,0.3157,138.0,98.3,0.468
20.9,32267.6,35609.3,0.3786,0.7561,138.0,98.3,0.468
20.92,32258.2,35732.1,0.3655,0.9071,138.0,98.3,0.468
20.94,32334.0,35690.3,0.4718,0.8558,138.0,98.3,0.468
20.96,32276.9,35611.4,0.3916,0.7587,138.0,98.3,0.468
20.98,32160.3,35419.1,0.2281,0.5225,138.0,98.3,0.468
21.0,32046.1,35221.5,0.0679,0.2796,138.0,98.3,0.468
21.02,31991.5,35105.9,-0.0088,0.1376,138.0,98.3,0.468
21.04,32154.4,34994.3,0.2199,0.0005,138.0,98.3,0.468
21.06,31971.6,35016.2,-0.0367,0.0274,138.0,98.3,0.468
21.08,31990.3,34907.0,-0.0103,-0.1068,138.0,98.3,0.468
21.1,31921.2,34795.4,-0.1073,-0.244,138.0,98.3,0.468
21.12,31858.2,34712.1,-0.1957,-0.3463,138.0,98.3,0.468
21.14,31956.0,34646.3,-0.0585,-0.4271,138.0,98.3,0.468
21.16,31878.3,34648.1,-0.1676,-0.425,138.0,98.3,0.468
21.18,31817.1,34669.4,-0.2534,-0.3988,138.0,98.3,0.468
21.2,31812.2,34658.4,-0.2603,-0.4123,138.0,98.3,0.468
21.22,31712.4,34552.1,-0.4002,-0.5429,138.0,98.3,0.468
21.24,31782.3,34484.3,-0.3022,-0.6262,138.0,98.3,0.468
21.26,31844.9,34607.2,-0.2144,-0.4752,138.0,98.3,0.468
21.28,31848.3,34723.4,-0.2096,-0.3324,138.0,98.3,0.468
21.3,32035.6,35045.0,0.0532,0.0628,138.0,98.3,0.468
21.32,32158.7,35353.2,0.2258,0.4415,138.0,98.3,0.468
21.34,32300.1,35633.1,0.4242,0.7854,138.0,98.3,0.468
21.36,32277.4,35747.7,0.3924,0.9262,138.0,98.3,0.468
21.38,32398.3,35704.8,0.5619,0.8735,138.0,98.3,0.468
21.4,32205.7,35427.4,0.2918,0.5327,138.0,98.3,0.468
21.42,32153.3,35266.1,0.2183,0.3344,138.0,98.3,0.468
21.44,32038.2,35261.7,0.0568,0.329,138.0,98.3,0.468
21.46,32087.8,35095.8,0.1264,0.1252,138.0,98.3,0.468
21.48,32071.6,35047.7,0.1036,0.0661,138.0,98.3,0.468
21.5,31912.2,34976.4,-0.1199,-0.0215,138.0,98.3,0.468
21.52,31960.0,34900.5,-0.0529,-0.1148,138.0,98.3,0.468
21.54,31875.0,34767.1,-0.1722,-0.2787,138.0,98.3,0.468
21.56,31916.9,34784.0,-0.1134,-0.2579,138.0,98.3,0.468
21.58,31753.2,34684.2,-0.343,-0.3805,138.0,98.3,0.468
21.6,31940.4,34597.8,-0.0804,-0.4867,138.0,98.3,0.468
21.62,31787.7,34685.0,-0.2947,-0.3796,138.0,98.3,0.468
21.64,31795.4,34541.3,-0.2839,-0.5562,138.0,98.3,0.468
21.66,31724.8,34532.5,-0.3829,-0.567,138.0,98.3,0.468
21.68,31777.5,34406.2,-0.3089,-0.7222,138.0,98.3,0.468
21.7,31825.7,34495.1,-0.2413,-0.6129,138.0,98.3,0.468
21.72,31902.2,34753.4,-0.134,-0.2956,138.0,98.3,0.468
21.74,32059.9,35092.2,0.0873,0.1207,138.0,98.3,0.468
21.76,32135.6,35492.8,0.1934,0.613,138.0,98.3,0.468
21.78,32307.2,35799.3,0.4341,0.9896,138.0,98.3,0.468
21.8,32351.6,35769.2,0.4964,0.9526,138.0,98.3,0.468
21.82,32333.0,35664.2,0.4704,0.8236,138.0,98.3,0.468
21.84,32180.7,35456.2,0.2568,0.568,138.0,98.3,0.468
21.86,32177.7,35293.3,0.2525,0.3678,138.0,98.3,0.468
21.88,32002.9,35135.1,0.0073,0.1735,138.0,98.3,0.468
21.9,31977.9,35125.8,-0.0278,0.1621,138.0,98.3,0.468
21.92,32007.4,35028.1,0.0136,0.0421,138.0,98.3,0.468
21.94,32019.0,34968.2,0.0299,-0.0316,138.0,98.3,0.468
21.96,31981.1,34841.0,-0.0233,-0.1879,138.0,98.3,0.468
21.98,31884.1,34878.5,-0.1594,-0.1418,138.0,98.3,0.468
22.0,31943.1,34735.2,-0.0767,-0.3179,138.0,98.3,0.468
22.02,31851.1,34664.1,-0.2057,-0.4052,138.0,98.3,0.468
22.04,31740.8,34563.0,-0.3604,-0.5295,138.0,98.3,0.468
22.06,31824.8,34605.3,-0.2426,-0.4775,138.0,98.3,0.468
22.08,31698.6,34506.2,-0.4197,-0.5993,138.0,98.3,0.468
22.1,31700.9,34385.5,-0.4165,-0.7475,138.0,98.3,0.468
22.12,31738.2,34410.2,-0.3641,-0.7173,138.0,98.3,0.468
22.14,31848.2,34500.5,-0.2097,-0.6062,138.0,98.3,0.468
22.16,31931.4,34734.5,-0.093,-0.3187,138.0,98.3,0.468
22.18,32081.2,35152.4,0.1171,0.1948,138.0,98.3,0.468
22.2,32259.2,35486.1,0.3669,0.6047,138.0,98.3,0.468
22.22,32364.2,35708.6,0.5141,0.8781,138.0,98.3,0.468
22.24,32450.6,35814.4,0.6354,1.0082,138.0,98.3,0.468
22.26,32286.8,35546.6,0.4055,0.6791,138.0,98.3,0.468
22.28,32141.9,35377.3,0.2023,0.471,138.0,98.3,0.468
22.3,32066.0,35305.4,0.0958,0.3828,138.0,98.3,0.468
22.32,32188.8,35122.1,0.268,0.1575,138.0,98.3,0.468
22.34,32089.3,35078.9,0.1285,0.1045,138.0,98.3,0.468
22.36,32109.8,35168.5,0.1572,0.2145,138.0,98.3,0.468
22.38,32089.9,34938.2,0.1293,-0.0685,138.0,98.3,0.468
22.4,31893.5,34833.4,-0.1463,-0.1972,138.0,98.3,0.468
22.42,31856.4,34772.1,-0.1982,-0.2725,138.0,98.3,0.468
22.44,31844.2,34740.4,-0.2154,-0.3115,138.0,98.3,0.468
22.46,31841.0,34668.7,-0.2199,-0.3996,138.0,98.3,0.468
22.48,31858.6,34589.0,-0.1952,-0.4976,138.0,98.3,0.468
22.5,31892.9,34625.4,-0.147,-0.4528,138.0,98.3,0.468
22.52,31827.9,34430.3,-0.2383,-0.6925,138.0,98.3,0.468
22.54,31755.1,34546.4,-0.3403,-0.5499,138.0,98.3,0.468
22.56,31732.4,34497.0,-0.3723,-0.6106,138.0,98.3,0.468
22.58,31932.7,34614.5,-0.0912,-0.4662,138.0,98.3,0.468
22.6,31954.1,34961.8,-0.0612,-0.0394,138.0,98.3,0.468
22.62,32180.4,35269.2,0.2563,0.3382,138.0,98.3,0.468
22.64,32271.6,35576.6,0.3843,0.716,138.0,98.3,0.468
22.66,32291.3,35778.9,0.4118,0.9646,138.0,98.3,0.468
22.68,32287.4,35713.3,0.4064,0.884,138.0,98.3,0.468
22.7,32143.4,35426.5,0.2044,0.5315,138.0,98.3,0.468
22.72,32284.3,35367.9,0.4021,0.4595,138.0,98.3,0.468
22.74,32132.6,35244.2,0.1892,0.3076,138.0,98.3,0.468
22.76,32131.0,35140.0,0.187,0.1796,138.0,98.3,0.468
22.78,32044.4,35091.8,0.0655,0.1203,138.0,98.3,0.468
22.8,32005.2,34989.6,0.0105,-0.0054,138.0,98.3,0.468
22.82,31942.8,34874.7,-0.077,-0.1464,138.0,98.3,0.468
22.84,31872.7,34809.0,-0.1754,-0.2273,138.0,98.3,0.468
22.86,31917.2,34764.5,-0.113,-0.2818,138.0,98.3,0.468
22.88,31957.0,34680.9,-0.0571,-0.3846,138.0,98.3,0.468
22.9,31846.8,34722.6,-0.2117,-0.3334,138.0,98.3,0.468
22.92,31708.0,34716.6,-0.4064,-0.3407,138.0,98.3,0.468
22.94,31800.5,34576.3,-0.2766,-0.5132,138.0,98.3,0.468
22.96,31815.4,34390.3,-0.2558,-0.7417,138.0,98.3,0.468
22.98,31809.3,34345.3,-0.2644,-0.7969,138.0,98.3,0.468
23.0,31806.3,34596.7,-0.2686,-0.4881,138.0,98.3,0.468
23.02,31890.5,34735.5,-0.1504,-0.3176,138.0,98.3,0.468
23.04,32025.6,35014.7,0.039,0.0256,138.0,98.3,0.468
23.06,32167.1,35409.4,0.2376,0.5105,138.0,98.3,0.468
23.08,32294.9,35636.5,0.417,0.7896,138.0,98.3,0.468
23.1,32333.9,35739.4,0.4717,0.916,138.0,98.3,0.468
23.12,32288.7,35705.4,0.4082,0.8743,138.0,98.3,0.468
23.14,32265.4,35538.9,0.3756,0.6697,138.0,98.3,0.468
23.16,32165.8,35346.5,0.2357,0.4333,138.0,98.3,0.468
23.18,31959.0,35134.0,-0.0543,0.1722,138.0,98.3,0.468
23.2,32083.7,35067.3,0.1206,0.0901,138.0,98.3,0.468
23.22,31983.8,35012.5,-0.0195,0.0228,138.0,98.3,0.468
23.24,31945.0,34948.3,-0.074,-0.0561,138.0,98.3,0.468
23.26,31955.1,34897.1,-0.0598,-0.1189,138.0,98.3,0.468
23.28,31877.0,34760.6,-0.1694,-0.2866,138.0,98.3,0.468
23.3,31812.3,34713.9,-0.2601,-0.3441,138.0,98.3,0.468
23.32,31856.1,34711.7,-0.1987,-0.3467,138.0,98.3,0.468
23.34,31849.2,34747.7,-0.2083,-0.3026,138.0,98.3,0.468
23.36,31892.1,34671.3,-0.1482,-0.3964,138.0,98.3,0.468
23.38,31737.8,34594.4,-0.3647,-0.4909,138.0,98.3,0.468
23.4,31784.4,34485.7,-0.2992,-0.6244,138.0,98.3,0.468
23.42,31711.5,34413.5,-0.4015,-0.7131,138.0,98.3,0.468
23.44,31908.0,34578.7,-0.1259,-0.5102,138.0,98.3,0.468
23.46,31891.6,34877.1,-0.1489,-0.1435,138.0,98.3,0.468
23.48,32040.5,35184.8,0.06,0.2346,138.0,98.3,0.468
23.5,32160.7,35520.2,0.2286,0.6467,138.0,98.3,0.468
23.52,32310.7,35699.1,0.4391,0.8665,138.0,98.3,0.468
23.54,32352.9,35717.9,0.4983,0.8897,138.0,98.3,0.468
23.56,32278.4,35596.2,0.3938,0.7401,138.0,98.3,0.468
23.58,32156.6,35447.1,0.2229,0.5569,138.0,98.3,0.468
23.6,32094.2,35262.3,0.1354,0.3297,138.0,98.3,0.468
23.62,32044.8,35155.4,0.066,0.1985,138.0,98.3,0.468
23.64,32036.7,35145.0,0.0547,0.1857,138.0,98.3,0.468
23.66,31999.7,35007.4,0.0028,0.0166,138.0,98.3,0.468
23.68,32018.5,34973.3,0.0292,-0.0254,138.0,98.3,0.468
23.7,31846.6,34946.1,-0.212,-0.0587,138.0,98.3,0.468
23.72,31944.2,34700.7,-0.0751,-0.3602,138.0,98.3,0.468
23.74,31779.2,34677.9,-0.3066,-0.3883,138.0,98.3,0.468
23.76,31959.4,34573.2,-0.0538,-0.517,138.0,98.3,0.468
23.78,31874.9,34630.6,-0.1723,-0.4464,138.0,98.3,0.468
23.8,31828.5,34629.4,-0.2375,-0.4479,138.0,98.3,0.468
23.82,31806.4,34541.6,-0.2684,-0.5558,138.0,98.3,0.468
23.84,31771.8,34570.1,-0.317,-0.5208,138.0,98.3,0.468
23.86,31775.9,34347.1,-0.3113,-0.7948,138.0,98.3,0.468
23.88,31849.0,34532.9,-0.2087,-0.5665,138.0,98.3,0.468
23.9,31936.0,34866.1,-0.0866,-0.1571,138.0,98.3,0.468
23.92,32060.0,35222.1,0.0874,0.2804,138.0,98.3,0.468
23.94,32249.9,35558.0,0.3538,0.6931,138.0,98.3,0.468
23.96,32306.9,35688.8,0.4337,0.8539,138.0,98.3,0.468
23.98,32297.1,35723.0,0.42,0.8959,138.0,98.3,0.468
24.0,32210.4,35633.6,0.2984,0.786,138.0,98.3,0.468
24.02,32143.5,35451.6,0.2045,0.5624,138.0,98.3,0.468
24.04,32159.4,35282.9,0.2268,0.3552,138.0,98.3,0.468
24.06,32066.9,35108.0,0.097,0.1402,138.0,98.3,0.468
24.08,32051.2,35206.7,0.075,0.2614,138.0,98.3,0.468
24.1,32045.4,35129.5,0.0669,0.1666,138.0,98.3,0.468
24.12,32055.2,34979.1,0.0807,-0.0182,138.0,98.3,0.468
24.14,31930.3,34852.3,-0.0946,-0.1739,138.0,98.3,0.468
24.16,31885.9,34727.2,-0.1569,-0.3277,138.0,98.3,0.468
24.18,31889.8,34628.0,-0.1514,-0.4496,138.0,98.3,0.468
24.2,31919.1,34684.0,-0.1103,-0.3808,138.0,98.3,0.468
24.22,31761.3,34644.0,-0.3316,-0.43,138.0,98.3,0.468
24.24,31822.5,34736.9,-0.2458,-0.3157,138.0,98.3,0.468
24.26,31807.6,34549.1,-0.2667,-0.5465,138.0,98.3,0.468
24.28,31813.8,34490.3,-0.258,-0.6188,138.0,98.3,0.468
24.3,31777.3,34473.6,-0.3093,-0.6393,138.0,98.3,0.468
24.32,31841.8,34647.9,-0.2187,-0.4251,138.0,98.3,0.468
24.34,32025.2,35009.8,0.0386,0.0195,138.0,98.3,0.468
24.36,32117.3,35359.6,0.1678,0.4493,138.0,98.3,0.468
24.38,32273.2,35677.7,0.3865,0.8402,138.0,98.3,0.468
24.4,32227.4,35726.4,0.3223,0.9,138.0,98.3,0.468
24.42,32352.5,35748.3,0.4977,0.9269,138.0,98.3,0.468
24.44,32297.4,35533.8,0.4204,0.6634,138.0,98.3,0.468
24.46,32207.1,35402.2,0.2937,0.5017,138.0,98.3,0.468
24.48,32086.2,35260.4,0.1241,0.3275,138.0,98.3,0.468
24.5,32041.3,35189.2,0.0611,0.24,138.0,98.3,0.468
24.52,32053.6,35107.4,0.0784,0.1394,138.0,98.3,0.468
24.54,32057.1,34992.0,0.0833,-0.0024,138.0,98.3,0.468
24.56,32007.9,34946.4,0.0142,-0.0584,138.0,98.3,0.468
24.58,31892.8,34820.7,-0.1471,-0.2128,138.0,98.3,0.468
24.6,31831.8,34683.3,-0.2327,-0.3817,138.0,98.3,0.468
24.62,31883.8,34611.7,-0.1599,-0.4696,138.0,98.3,0.468
24.64,31816.8,34651.2,-0.2539,-0.4211,138.0,98.3,0.468
24.66,31835.1,34668.3,-0.2281,-0.4001,138.0,98.3,0.468
24.68,31819.6,34532.5,-0.2499,-0.567,138.0,98.3,0.468
24.7,31842.2,34324.8,-0.2182,-0.8222,138.0,98.3,0.468
24.72,31873.7,34398.2,-0.174,-0.7319,138.0,98.3,0.468
24.74,31857.6,34517.8,-0.1966,-0.5851,138.0,98.3,0.468
24.76,31903.8,34701.8,-0.1317,-0.3589,138.0,98.3,0.468
24.78,32052.4,35028.1,0.0767,0.042,138.0,98.3,0.468
24.8,32159.7,35419.3,0.2273,0.5228,138.0,98.3,0.468
24.82,32238.6,35788.9,0.3379,0.9769,138.0,98.3,0.468
24.84,32362.5,35817.9,0.5118,1.0125,138.0,98.3,0.468
24.86,32264.3,35679.8,0.374,0.8428,138.0,98.3,0.468
24.88,32179.1,35484.6,0.2545,0.603,138.0,98.3,0.468
24.9,32165.2,35248.1,0.235,0.3123,138.0,98.3,0.468
24.92,32128.3,35145.3,0.1833,0.186,138.0,98.3,0.468
24.94,32098.0,35102.6,0.1406,0.1336,138.0,98.3,0.468
24.96,32043.8,35081.1,0.0647,0.1071,138.0,98.3,0.468
24.98,31994.7,35023.6,-0.0042,0.0365,138.0,98.3,0.468
25.0,31901.5,34964.7,-0.135,-0.0359,138.0,98.3,0.468
25.02,31908.9,34729.9,-0.1247,-0.3244,138.0,98.3,0.468
25.04,31805.0,34701.3,-0.2704,-0.3595,138.0,98.3,0.468
25.06,31896.7,34662.1,-0.1417,-0.4077,138.0,98.3,0.468
25.08,31839.2,34706.0,-0.2224,-0.3538,138.0,98.3,0.468
25.1,31885.0,34599.5,-0.1581,-0.4847,138.0,98.3,0.468
25.12,31890.7,34540.4,-0.1501,-0.5573,138.0,98.3,0.468
25.14,31862.1,34503.6,-0.1902,-0.6025,138.0,98.3,0.468
25.16,31832.7,34405.5,-0.2315,-0.723,138.0,98.3,0.468
25.18,31758.6,34569.6,-0.3355,-0.5213,138.0,98.3,0.468
25.2,31866.5,34813.1,-0.1841,-0.2221,138.0,98.3,0.468
25.22,32098.5,35112.0,0.1415,0.1451,138.0,98.3,0.468
25.24,32198.5,35517.0,0.2816,0.6427,138.0,98.3,0.468
25.26,32265.3,35827.3,0.3754,1.024,138.0,98.3,0.468
25.28,32267.1,35781.7,0.3779,0.968,138.0,98.3,0.468
25.3,32338.0,35743.4,0.4774,0.921,138.0,98.3,0.468
25.32,32144.6,35504.9,0.2061,0.6279,138.0,98.3,0.468
25.34,32163.9,35241.9,0.2332,0.3047,138.0,98.3,0.468
25.36,32146.5,35199.6,0.2087,0.2527,138.0,98.3,0.468
25.38,32026.6,35091.0,0.0405,0.1193,138.0,98.3,0.468
25.4,31975.3,34934.4,-0.0314,-0.0732,138.0,98.3,0.468
25.42,32029.1,34951.9,0.0441,-0.0516,138.0,98.3,0.468
25.44,31908.5,34862.0,-0.1251,-0.1621,138.0,98.3,0.468
25.46,31859.9,34805.4,-0.1934,-0.2316,138.0,98.3,0.468
25.48,31857.1,34705.2,-0.1973,-0.3547,138.0,98.3,0.468
25.5,31922.9,34661.3,-0.1049,-0.4087,138.0,98.3,0.468
25.52,31842.7,34597.3,-0.2175,-0.4873,138.0,98.3,0.468
25.54,31773.2,34670.0,-0.315,-0.398,138.0,98.3,0.468
25.56,31750.2,34542.2,-0.3473,-0.5551,138.0,98.3,0.468
25.58,31730.9,34430.4,-0.3743,-0.6924,138.0,98.3,0.468
25.6,31804.3,34465.8,-0.2713,-0.6489,138.0,98.3,0.468
25.62,31867.9,34657.1,-0.1821,-0.4139,138.0,98.3,0.468
25.64,31882.8,34888.4,-0.1612,-0.1296,138.0,98.3,0.468
25.66,32104.7,35204.8,0.1501,0.2591,138.0,98.3,0.468
25.68,32230.8,35560.2,0.327,0.6958,138.0,98.3,0.468
25.7,32216.6,35760.0,0.307,0.9413,138.0,98.3,0.468
25.72,32308.9,35771.6,0.4366,0.9556,138.0,98.3,0.468
25.74,32254.9,35619.3,0.3609,0.7685,138.0,98.3,0.468
25.76,32125.4,35343.1,0.1792,0.4291,138.0,98.3,0.468
25.78,32054.6,35226.5,0.0798,0.2858,138.0,98.3,0.468
25.8,32053.6,35120.0,0.0785,0.155,138.0,98.3,0.468
25.82,32026.2,35134.3,0.04,0.1725,138.0,98.3,0.468
25.84,32039.3,34966.9,0.0583,-0.0332,138.0,98.3,0.468
25.86,31951.0,34924.1,-0.0656,-0.0858,138.0,98.3,0.468
25.88,31921.8,34728.4,-0.1065,-0.3263,138.0,98.3,0.468
25.9,31877.4,34687.0,-0.1688,-0.3771,138.0,98.3,0.468
25.92,31950.3,34632.1,-0.0665,-0.4446,138.0,98.3,0.468
25.94,31919.0,34680.3,-0.1104,-0.3853,138.0,98.3,0.468
25.96,31774.7,34613.6,-0.3129,-0.4673,138.0,98.3,0.468
25.98,31886.9,34569.5,-0.1555,-0.5215,138.0,98.3,0.468
26.0,31768.3,34537.0,-0.3219,-0.5615,138.0,98.3,0.468
26.02,31713.3,34515.3,-0.399,-0.5881,138.0,98.3,0.468
26.04,31783.4,34462.7,-0.3006,-0.6528,138.0,98.3,0.468
26.06,31845.2,34766.0,-0.2139,-0.2801,138.0,98.3,0.468
26.08,31966.6,34909.8,-0.0437,-0.1034,138.0,98.3,0.468
26.1,32129.2,35425.8,0.1844,0.5307,138.0,98.3,0.468
26.12,32280.2,35633.6,0.3963,0.7861,138.0,98.3,0.468
26.14,32287.6,35766.3,0.4067,0.9491,138.0,98.3,0.468
26.16,32345.5,35723.7,0.4879,0.8968,138.0,98.3,0.468
26.18,32226.6,35491.3,0.321,0.6112,138.0,98.3,0.468
26.2,32211.5,35319.6,0.2999,0.4002,138.0,98.3,0.468
26.22,32074.0,35160.1,0.107,0.2042,138.0,98.3,0.468
26.24,31958.6,35133.3,-0.0549,0.1713,138.0,98.3,0.468
26.26,32100.8,35083.4,0.1446,0.11,138.0,98.3,0.468
26.28,32001.9,34897.4,0.0058,-0.1186,138.0,98.3,0.468
26.3,31963.2,34989.8,-0.0484,-0.005,138.0,98.3,0.468
26.32,31938.4,34825.8,-0.0832,-0.2065,138.0,98.3,0.468
26.34,31902.8,34738.1,-0.1331,-0.3143,138.0,98.3,0.468
26.36,31835.1,34710.5,-0.2281,-0.3483,138.0,98.3,0.468
26.38,31816.6,34697.2,-0.2542,-0.3646,138.0,98.3,0.468
26.4,31795.4,34708.0,-0.2838,-0.3513,138.0,98.3,0.468
26.42,31784.0,34538.0,-0.2998,-0.5601,138.0,98.3,0.468
26.44,31784.1,34535.7,-0.2996,-0.563,138.0,98.3,0.468
26.46,31720.7,34457.9,-0.3887,-0.6586,138.0,98.3,0.468
26.48,31824.3,34554.2,-0.2433,-0.5402,138.0,98.3,0.468
26.5,31952.6,34763.3,-0.0633,-0.2834,138.0,98.3,0.468
26.52,32006.9,35079.5,0.0129,0.1052,138.0,98.3,0.468
26.54,32155.7,35358.7,0.2216,0.4482,138.0,98.3,0.468
26.56,32192.5,35763.0,0.2733,0.945,138.0,98.3,0.468
26.58,32281.2,35669.0,0.3977,0.8296,138.0,98.3,0.468
26.6,32327.4,35676.5,0.4625,0.8387,138.0,98.3,0.468
26.62,32230.3,35439.5,0.3263,0.5475,138.0,98.3,0.468
26.64,32069.5,35332.5,0.1006,0.4161,138.0,98.3,0.468
26.66,32165.9,35205.2,0.236,0.2596,138.0,98.3,0.468
26.68,32090.5,35020.1,0.1302,0.0322,138.0,98.3,0.468
26.7,31998.1,34992.4,0.0006,-0.0019,138.0,98.3,0.468
26.72,31997.3,34989.4,-0.0006,-0.0056,138.0,98.3,0.468
26.74,31902.5,34874.6,-0.1336,-0.1466,138.0,98.3,0.468
26.76,31892.1,34726.7,-0.1482,-0.3284,138.0,98.3,0.468
26.78,32003.8,34671.5,0.0085,-0.3962,138.0,98.3,0.468
26.8,31879.9,34583.8,-0.1653,-0.5039,138.0,98.3,0.468
26.82,31863.3,34657.3,-0.1886,-0.4136,138.0,98.3,0.468
26.84,31854.8,34673.6,-0.2004,-0.3936,138.0,98.3,0.468
26.86,31794.2,34525.5,-0.2856,-0.5756,138.0,98.3,0.468
26.88,31796.4,34462.4,-0.2824,-0.6531,138.0,98.3,0.468
26.9,31693.1,34415.7,-0.4274,-0.7105,138.0,98.3,0.468
26.92,31880.0,34565.5,-0.1651,-0.5264,138.0,98.3,0.468
26.94,31991.4,34770.7,-0.0089,-0.2743,138.0,98.3,0.468
26.96,31955.3,35268.7,-0.0595,0.3376,138.0,98.3,0.468
26.98,32218.0,35536.3,0.3091,0.6664,138.0,98.3,0.468
27.0,32348.5,35727.8,0.4922,0.9017,138.0,98.3,0.468
27.02,32386.6,35847.2,0.5456,1.0485,138.0,98.3,0.468
27.04,32258.3,35572.0,0.3656,0.7104,138.0,98.3,0.468
27.06,32259.7,35423.6,0.3676,0.528,138.0,98.3,0.468
27.08,32075.3,35315.2,0.1089,0.3948,138.0,98.3,0.468
27.1,32106.5,35106.8,0.1526,0.1388,138.0,98.3,0.468
27.12,32065.8,35141.6,0.0956,0.1815,138.0,98.3,0.468
27.14,31975.5,34955.6,-0.0311,-0.0471,138.0,98.3,0.468
27.16,31878.0,34973.4,-0.1679,-0.0251,138.0,98.3,0.468
27.18,31830.3,34864.9,-0.2349,-0.1585,138.0,98.3,0.468
27.2,31895.0,34749.2,-0.1441,-0.3007,138.0,98.3,0.468
27.22,31885.2,34748.9,-0.1579,-0.301,138.0,98.3,0.468
27.24,31991.5,34732.6,-0.0087,-0.3211,138.0,98.3,0.468
27.26,31936.9,34629.5,-0.0853,-0.4478,138.0,98.3,0.468
27.28,31725.2,34538.4,-0.3824,-0.5597,138.0,98.3,0.468
27.3,31891.2,34586.1,-0.1494,-0.5011,138.0,98.3,0.468
27.32,31746.9,34418.4,-0.3519,-0.7072,138.0,98.3,0.468
27.34,31796.3,34461.4,-0.2826,-0.6544,138.0,98.3,0.468
27.36,31833.5,34517.1,-0.2304,-0.5859,138.0,98.3,0.468
27.38,31939.3,34892.9,-0.082,-0.1242,138.0,98.3,0.468
27.4,31982.6,35208.5,-0.0211,0.2637,138.0,98.3,0.468
27.42,32320.6,35490.7,0.4529,0.6104,138.0,98.3,0.468
27.44,32333.5,35768.8,0.4711,0.9522,138.0,98.3,0.468
27.46,32249.1,35768.5,0.3526,0.9518,138.0,98.3,0.468
27.48,32256.2,35595.1,0.3626,0.7387,138.0,98.3,0.468
27.5,32169.2,35373.4,0.2405,0.4663,138.0,98.3,0.468
27.52,32161.6,35189.1,0.2299,0.2398,138.0,98.3,0.468
27.54,32058.7,35088.5,0.0856,0.1163,138.0,98.3,0.468
27.56,32007.0,35137.6,0.013,0.1766,138.0,98.3,0.468
27.58,31997.4,35098.6,-0.0004,0.1286,138.0,98.3,0.468
27.6,31992.1,34967.0,-0.0079,-0.033,138.0,98.3,0.468
27.62,31966.0,34846.8,-0.0445,-0.1807,138.0,98.3,0.468
27.64,31812.0,34688.8,-0.2605,-0.3749,138.0,98.3,0.468
27.66,31854.3,34763.0,-0.2013,-0.2837,138.0,98.3,0.468
27.68,31829.1,34683.7,-0.2366,-0.3812,138.0,98.3,0.468
27.7,31906.5,34668.9,-0.128,-0.3994,138.0,98.3,0.468
27.72,31832.9,34630.6,-0.2312,-0.4464,138.0,98.3,0.468
27.74,31843.4,34528.3,-0.2166,-0.5721,138.0,98.3,0.468
27.76,31679.1,34478.3,-0.447,-0.6335,138.0,98.3,0.468
27.78,31733.4,34441.1,-0.3708,-0.6792,138.0,98.3,0.468
27.8,31788.6,34639.0,-0.2934,-0.4361,138.0,98.3,0.468
27.82,32010.5,34952.3,0.018,-0.0512,138.0,98.3,0.468
27.84,32166.8,35288.7,0.2372,0.3622,138.0,98.3,0.468
27.86,32267.6,35707.1,0.3787,0.8763,138.0,98.3,0.468
27.88,32258.0,35776.1,0.3651,0.9611,138.0,98.3,0.468
27.9,32339.9,35784.5,0.4801,0.9715,138.0,98.3,0.468
27.92,32188.5,35462.2,0.2676,0.5754,138.0,98.3,0.468
27.94,32071.9,35278.1,0.104,0.3491,138.0,98.3,0.468
27.96,32103.8,35255.7,0.1488,0.3217,138.0,98.3,0.468
27.98,32071.7,35078.9,0.1038,0.1045,138.0,98.3,0.468
28.0,31923.7,35175.5,-0.1038,0.2232,138.0,98.3,0.468
28.02,32006.7,35030.7,0.0126,0.0452,138.0,98.3,0.468
28.04,31925.2,34995.4,-0.1018,0.0018,138.0,98.3,0.468
28.06,31987.4,34810.3,-0.0144,-0.2256,138.0,98.3,0.468
28.08,31845.6,34694.0,-0.2134,-0.3686,138.0,98.3,0.468
28.1,31844.8,34694.5,-0.2146,-0.3679,138.0,98.3,0.468
28.12,31810.3,34728.0,-0.263,-0.3267,138.0,98.3,0.468
28.14,31852.2,34677.2,-0.2041,-0.3892,138.0,98.3,0.468
28.16,31797.1,34629.5,-0.2814,-0.4477,138.0,98.3,0.468
28.18,31715.2,34528.3,-0.3964,-0.5721,138.0,98.3,0.468
28.2,31675.7,34510.0,-0.4518,-0.5946,138.0,98.3,0.468
28.22,31845.3,34464.8,-0.2138,-0.6501,138.0,98.3,0.468
28.24,31900.0,34754.8,-0.1371,-0.2938,138.0,98.3,0.468
28.26,32009.4,35135.4,0.0164,0.1738,138.0,98.3,0.468
28.28,32270.0,35401.2,0.3819,0.5005,138.0,98.3,0.468
28.3,32300.3,35800.7,0.4244,0.9913,138.0,98.3,0.468
28.32,32312.3,35691.5,0.4414,0.8572,138.0,98.3,0.468
28.34,32216.8,35723.4,0.3074,0.8964,138.0,98.3,0.468
28.36,32133.2,35463.3,0.19,0.5768,138.0,98.3,0.468
28.38,32196.4,35200.0,0.2788,0.2532,138.0,98.3,0.468
28.4,32058.4,35117.9,0.0851,0.1523,138.0,98.3,0.468
28.42,32018.1,35189.6,0.0286,0.2404,138.0,98.3,0.468
28.44,32025.8,35044.1,0.0393,0.0616,138.0,98.3,0.468
28.46,31996.7,35041.6,-0.0014,0.0586,138.0,98.3,0.468
28.48,31926.1,34834.6,-0.1005,-0.1958,138.0,98.3,0.468
28.5,31933.1,34853.1,-0.0906,-0.173,138.0,98.3,0.468
28.52,31862.1,34713.0,-0.1902,-0.3451,138.0,98.3,0.468
28.54,31818.7,34645.0,-0.2512,-0.4287,138.0,98.3,0.468
28.56,31907.7,34671.2,-0.1263,-0.3965,138.0,98.3,0.468
28.58,31739.1,34651.0,-0.3628,-0.4213,138.0,98.3,0.468
28.6,31870.2,34573.4,-0.1789,-0.5167,138.0,98.3,0.468
28.62,31773.2,34537.2,-0.315,-0.5612,138.0,98.3,0.468
28.64,31773.0,34532.9,-0.3152,-0.5665,138.0,98.3,0.468
28.66,31813.8,34703.5,-0.258,-0.3568,138.0,98.3,0.468
28.68,31889.6,34833.8,-0.1517,-0.1967,138.0,98.3,0.468
28.7,31992.6,35208.0,-0.0072,0.263,138.0,98.3,0.468
28.72,32254.7,35505.1,0.3605,0.6282,138.0,98.3,0.468
28.74,32313.9,35749.4,0.4435,0.9284,138.0,98.3,0.468
28.76,32272.6,35778.4,0.3856,0.9639,138.0,98.3,0.468
28.78,32266.8,35561.9,0.3775,0.6979,138.0,98.3,0.468
28.8,32077.1,35384.2,0.1114,0.4796,138.0,98.3,0.468
28.82,32053.3,35215.3,0.078,0.272,138.0,98.3,0.468
28.84,32035.1,35094.5,0.0525,0.1236,138.0,98.3,0.468
28.86,31944.8,35061.6,-0.0743,0.0832,138.0,98.3,0.468
28.88,32117.0,35069.5,0.1673,0.0929,138.0,98.3,0.468
28.9,31919.6,34953.4,-0.1095,-0.0498,138.0,98.3,0.468
28.92,32008.2,34865.5,0.0148,-0.1578,138.0,98.3,0.468
28.94,31815.4,34827.1,-0.2557,-0.205,138.0,98.3,0.468
28.96,31904.5,34740.4,-0.1307,-0.3114,138.0,98.3,0.468
28.98,31803.2,34703.5,-0.2729,-0.3569,138.0,98.3,0.468
29.0,31904.8,34623.9,-0.1303,-0.4547,138.0,98.3,0.468
29.02,31804.3,34619.4,-0.2713,-0.4601,138.0,98.3,0.468
29.04,31790.2,34572.8,-0.2911,-0.5175,138.0,98.3,0.468
29.06,31780.6,34477.2,-0.3046,-0.6349,138.0,98.3,0.468
29.08,31768.1,34436.3,-0.3221,-0.6852,138.0,98.3,0.468
29.1,31937.5,34584.8,-0.0844,-0.5027,138.0,98.3,0.468
29.12,32059.4,34846.4,0.0865,-0.1813,138.0,98.3,0.468
29.14,32128.1,35164.8,0.1829,0.21,138.0,98.3,0.468
29.16,32253.8,35684.2,0.3593,0.8482,138.0,98.3,0.468
29.18,32330.6,35755.7,0.4671,0.936,138.0,98.3,0.468
29.2,32276.7,35723.9,0.3914,0.897,138.0,98.3,0.468
29.22,32241.0,35528.2,0.3413,0.6566,138.0,98.3,0.468
29.24,32126.9,35444.7,0.1813,0.5539,138.0,98.3,0.468
29.26,32108.9,35244.4,0.156,0.3078,138.0,98.3,0.468
29.28,32021.5,35195.6,0.0334,0.2478,138.0,98.3,0.468
29.3,31972.3,35047.1,-0.0356,0.0654,138.0,98.3,0.468
29.32,31969.3,35116.9,-0.0399,0.1511,138.0,98.3,0.468
29.34,31985.8,34920.2,-0.0167,-0.0905,138.0,98.3,0.468
29.36,31956.2,34791.6,-0.0583,-0.2486,138.0,98.3,0.468
29.38,31890.9,34726.6,-0.1498,-0.3285,138.0,98.3,0.468
29.4,31898.7,34647.5,-0.1389,-0.4257,138.0,98.3,0.468
29.42,31837.3,34705.0,-0.2251,-0.355,138.0,98.3,0.468
29.44,31883.4,34603.5,-0.1603,-0.4797,138.0,98.3,0.468
29.46,31882.2,34640.1,-0.162,-0.4348,138.0,98.3,0.468
29.48,31794.5,34483.8,-0.2851,-0.6268,138.0,98.3,0.468
29.5,31749.3,34486.9,-0.3485,-0.623,138.0,98.3,0.468
29.52,31806.3,34488.4,-0.2686,-0.6212,138.0,98.3,0.468
29.54,31841.5,34690.4,-0.2191,-0.3729,138.0,98.3,0.468
29.56,31989.2,35079.3,-0.012,0.105,138.0,98.3,0.468
29.58,32097.4,35273.7,0.1399,0.3438,138.0,98.3,0.468
29.6,32289.7,35659.9,0.4096,0.8184,138.0,98.3,0.468
29.62,32250.7,35691.2,0.3549,0.8568,138.0,98.3,0.468
29.64,32280.2,35682.1,0.3964,0.8456,138.0,98.3,0.468
29.66,32183.3,35535.9,0.2603,0.6659,138.0,98.3,0.468
29.68,32141.1,35316.3,0.2011,0.3962,138.0,98.3,0.468
29.7,32109.2,35185.4,0.1563,0.2352,138.0,98.3,0.468
29.72,32019.9,35019.2,0.0311,0.0311,138.0,98.3,0.468
29.74,31949.4,35167.2,-0.0677,0.2129,138.0,98.3,0.468
29.76,31948.8,35086.7,-0.0687,0.114,138.0,98.3,0.468
29.78,31969.8,34891.2,-0.0392,-0.1262,138.0,98.3,0.468
29.8,32013.7,34781.8,0.0224,-0.2606,138.0,98.3,0.468
29.82,31910.0,34722.0,-0.1231,-0.3341,138.0,98.3,0.468
29.84,31965.0,34635.6,-0.0459,-0.4402,138.0,98.3,0.468
29.86,31858.7,34691.6,-0.195,-0.3715,138.0,98.3,0.468
29.88,31862.1,34737.0,-0.1902,-0.3156,138.0,98.3,0.468
29.9,31778.5,34552.9,-0.3075,-0.5419,138.0,98.3,0.468
29.92,31784.5,34461.6,-0.2991,-0.654,138.0,98.3,0.468
29.94,31772.2,34426.1,-0.3164,-0.6977,138.0,98.3,0.468
29.96,31861.0,34634.7,-0.1919,-0.4414,138.0,98.3,0.468
29.98,31918.1,34710.3,-0.1117,-0.3485,138.0,98.3,0.468
30.0,31290.0,38092.6,-0.9928,3.8076,138.0,98.3,0.468
30.02,33568.9,33927.9,2.2042,-1.3098,138.0,98.3,0.468
30.04,27418.9,38480.1,-6.4237,4.2837,138.0,98.3,0.468
30.06,33261.4,36217.3,1.7728,1.5032,138.0,98.3,0.468
30.08,32793.3,37501.5,1.1161,3.0813,138.0,98.3,0.468
30.1,31292.8,35286.3,-0.989,0.3593,138.0,98.3,0.468
30.12,32731.6,34133.9,1.0295,-1.0567,138.0,98.3,0.468
30.14,28231.0,34437.2,-5.2844,-0.684,138.0,98.3,0.468
30.16,29661.1,35792.3,-3.278,0.9811,138.0,98.3,0.468
30.18,35208.8,35536.5,4.5049,0.6667,138.0,98.3,0.468
30.2,28758.6,36768.5,-4.5442,2.1805,138.0,98.3,0.468
30.22,32196.6,33255.9,0.2791,-2.1356,138.0,98.3,0.468
30.24,32806.3,31776.0,1.1343,-3.954,138.0,98.3,0.468
30.26,31822.9,35477.0,-0.2452,0.5936,138.0,98.3,0.468
30.28,33722.7,34794.4,2.42,-0.2452,138.0,98.3,0.468
30.3,31974.3,35757.2,-0.0329,0.9379,138.0,98.3,0.468
30.32,29948.1,37377.3,-2.8754,2.9287,138.0,98.3,0.468
30.34,32969.1,29886.2,1.3627,-6.2761,138.0,98.3,0.468
30.36,31690.3,34651.1,-0.4313,-0.4212,138.0,98.3,0.468
30.38,28435.6,35267.0,-4.9973,0.3356,138.0,98.3,0.468
30.4,33469.9,36466.9,2.0653,1.81,138.0,98.3,0.468
30.42,30484.4,36739.3,-2.1231,2.1447,138.0,98.3,0.468
30.44,30665.7,36707.5,-1.8687,2.1056,138.0,98.3,0.468
30.46,36508.5,33346.9,6.3282,-2.0238,138.0,98.3,0.468
30.48,33328.1,34472.3,1.8664,-0.641,138.0,98.3,0.468
30.5,31123.5,34906.3,-1.2264,-0.1077,138.0,98.3,0.468
30.52,32515.7,35372.5,0.7267,0.4652,138.0,98.3,0.468
30.54,31973.3,37911.8,-0.0342,3.5855,138.0,98.3,0.468
30.56,31540.6,34555.6,-0.6414,-0.5386,138.0,98.3,0.468
30.58,35426.7,33391.1,4.8106,-1.9694,138.0,98.3,0.468
30.6,31074.6,31116.8,-1.2951,-4.7641,138.0,98.3,0.468
30.62,31243.9,35275.6,-1.0575,0.3461,138.0,98.3,0.468
30.64,32010.5,34561.5,0.018,-0.5313,138.0,98.3,0.468
30.66,34303.3,33918.1,3.2346,-1.3219,138.0,98.3,0.468
30.68,33144.8,31990.9,1.6093,-3.69,138.0,98.3,0.468
30.7,34051.4,33894.6,2.8811,-1.3508,138.0,98.3,0.468
30.72,31177.5,33543.4,-1.1506,-1.7823,138.0,98.3,0.468
30.74,32701.4,40331.2,0.9873,6.5583,138.0,98.3,0.468
30.76,30295.1,33500.8,-2.3886,-1.8347,138.0,98.3,0.468
30.78,30641.5,35665.0,-1.9026,0.8246,138.0,98.3,0.468
30.8,31185.2,30795.6,-1.1398,-5.1588,138.0,98.3,0.468
30.82,33099.6,36276.1,1.5458,1.5755,138.0,98.3,0.468
30.84,30419.9,33362.8,-2.2136,-2.0043,138.0,98.3,0.468
30.86,37054.1,33384.1,7.0937,-1.9781,138.0,98.3,0.468
30.88,31032.3,36347.8,-1.3544,1.6636,138.0,98.3,0.468
30.9,34763.6,35080.5,3.8803,0.1065,138.0,98.3,0.468
30.92,31820.6,30608.2,-0.2485,-5.389,138.0,98.3,0.468
30.94,31943.6,33707.0,-0.0759,-1.5813,138.0,98.3,0.468
30.96,31093.0,36036.5,-1.2693,1.281,138.0,98.3,0.468
30.98,29428.6,32089.4,-3.6042,-3.5689,138.0,98.3,0.468
31.0,30449.1,37493.1,-2.1726,3.0709,138.0,98.3,0.468
31.02,33441.9,35083.2,2.0261,0.1097,138.0,98.3,0.468
31.04,32362.0,36705.7,0.511,2.1034,138.0,98.3,0.468
31.06,31235.4,36718.0,-1.0694,2.1186,138.0,98.3,0.468
31.08,33679.6,32993.3,2.3595,-2.4582,138.0,98.3,0.468
31.1,31008.1,35553.5,-1.3883,0.6877,138.0,98.3,0.468
31.12,30306.9,34933.6,-2.372,-0.0741,138.0,98.3,0.468
31.14,33118.7,35185.8,1.5727,0.2358,138.0,98.3,0.468
31.16,34963.2,38760.3,4.1603,4.6279,138.0,98.3,0.468
31.18,37787.2,35408.5,8.1222,0.5094,138.0,98.3,0.468
31.2,32270.1,36193.9,0.3821,1.4745,138.0,98.3,0.468
31.22,33503.5,34407.7,2.1125,-0.7203,138.0,98.3,0.468
31.24,31354.3,34882.5,-0.9027,-0.1369,138.0,98.3,0.468
31.26,33847.9,34241.4,2.5956,-0.9247,138.0,98.3,0.468
31.28,28745.4,33672.4,-4.5627,-1.6238,138.0,98.3,0.468
31.3,35780.9,34412.3,5.3074,-0.7146,138.0,98.3,0.468
31.32,30298.9,28403.0,-2.3833,-8.0986,138.0,98.3,0.468
31.34,31546.7,33696.9,-0.6327,-1.5937,138.0,98.3,0.468
31.36,32516.8,31910.6,0.7282,-3.7886,138.0,98.3,0.468
31.38,31278.7,37114.6,-1.0087,2.6059,138.0,98.3,0.468
31.4,30298.7,37246.9,-2.3836,2.7684,138.0,98.3,0.468
31.42,31754.8,30299.9,-0.3408,-5.7678,138.0,98.3,0.468
31.44,29963.6,33108.3,-2.8537,-2.3169,138.0,98.3,0.468
31.46,30972.2,36180.9,-1.4387,1.4585,138.0,98.3,0.468
31.48,31223.0,33197.9,-1.0868,-2.2068,138.0,98.3,0.468
31.5,34106.4,34431.8,2.9583,-0.6907,138.0,98.3,0.468
31.52,32739.8,36052.5,1.0411,1.3008,138.0,98.3,0.468
31.54,33209.1,35130.6,1.6995,0.1679,138.0,98.3,0.468
31.56,31860.5,35643.7,-0.1926,0.7985,138.0,98.3,0.468
31.58,33844.2,34038.1,2.5904,-1.1745,138.0,98.3,0.468
31.6,33399.3,34122.4,1.9663,-1.0709,138.0,98.3,0.468
31.62,28830.3,35589.4,-4.4436,0.7317,138.0,98.3,0.468
31.64,31155.6,33196.8,-1.1814,-2.2082,138.0,98.3,0.468
31.66,32854.6,33825.0,1.2022,-1.4362,138.0,98.3,0.468
31.68,28898.0,33262.0,-4.3487,-2.1281,138.0,98.3,0.468
31.7,29763.0,31883.6,-3.1351,-3.8218,138.0,98.3,0.468
31.72,33177.4,35001.3,1.655,0.0091,138.0,98.3,0.468
31.74,29276.3,38808.3,-3.8179,4.687,138.0,98.3,0.468
31.76,29489.6,33267.7,-3.5186,-2.1211,138.0,98.3,0.468
31.78,30431.1,33091.1,-2.1979,-2.3381,138.0,98.3,0.468
31.8,32283.5,38568.4,0.4009,4.3922,138.0,98.3,0.468
31.82,30646.0,38852.1,-1.8964,4.7408,138.0,98.3,0.468
31.84,33372.9,33246.9,1.9292,-2.1466,138.0,98.3,0.468
31.86,36381.7,38175.5,6.1503,3.9094,138.0,98.3,0.468
31.88,30278.8,34842.4,-2.4115,-0.1862,138.0,98.3,0.468
31.9,29862.0,32657.7,-2.9962,-2.8706,138.0,98.3,0.468
31.92,28862.8,38177.0,-4.398,3.9113,138.0,98.3,0.468
31.94,32528.6,32174.4,0.7448,-3.4645,138.0,98.3,0.468
31.96,36924.8,31966.6,6.9123,-3.7198,138.0,98.3,0.468
31.98,29682.6,34234.3,-3.248,-0.9333,138.0,98.3,0.468
32.0,31615.8,32282.0,-0.5358,-3.3323,138.0,98.3,0.468
32.02,31971.8,37494.4,-0.0363,3.0726,138.0,98.3,0.468
32.04,30522.2,34534.9,-2.07,-0.564,138.0,98.3,0.468
32.06,29251.3,36631.6,-3.853,2.0124,138.0,98.3,0.468
32.08,33943.6,33393.3,2.7299,-1.9668,138.0,98.3,0.468
32.1,27745.7,33335.4,-5.9652,-2.0379,138.0,98.3,0.468
32.12,32402.3,33015.4,0.5676,-2.4311,138.0,98.3,0.468
32.14,32061.0,36188.5,0.0888,1.4679,138.0,98.3,0.468
32.16,34745.8,35885.0,3.8552,1.0949,138.0,98.3,0.468
32.18,32440.7,38652.4,0.6214,4.4955,138.0,98.3,0.468
32.2,34622.5,37030.2,3.6823,2.5022,138.0,98.3,0.468
32.22,29853.5,34679.1,-3.0081,-0.3868,138.0,98.3,0.468
32.24,30852.4,38199.7,-1.6067,3.9391,138.0,98.3,0.468
32.26,34360.5,33640.5,3.3148,-1.663,138.0,98.3,0.468
32.28,29151.5,35394.5,-3.993,0.4922,138.0,98.3,0.468
32.3,29683.6,37398.6,-3.2465,2.9548,138.0,98.3,0.468
32.32,30660.2,35726.9,-1.8765,0.9007,138.0,98.3,0.468
32.34,30293.6,31418.9,-2.3908,-4.3928,138.0,98.3,0.468
32.36,31776.3,36171.5,-0.3106,1.4469,138.0,98.3,0.468
32.38,28954.6,36461.2,-4.2692,1.8029,138.0,98.3,0.468
32.4,28706.2,36208.4,-4.6177,1.4924,138.0,98.3,0.468
32.42,33003.9,34916.9,1.4115,-0.0946,138.0,98.3,0.468
32.44,33656.3,38330.2,2.3269,4.0995,138.0,98.3,0.468
32.46,32676.2,31935.9,0.9519,-3.7576,138.0,98.3,0.468
32.48,32851.8,35027.0,1.1982,0.0407,138.0,98.3,0.468
32.5,34524.5,36407.7,3.5448,1.7372,138.0,98.3,0.468
32.52,33439.6,36794.8,2.0228,2.2128,138.0,98.3,0.468
32.54,30890.5,35731.9,-1.5533,0.9069,138.0,98.3,0.468
32.56,28916.7,37681.2,-4.3223,3.302,138.0,98.3,0.468
32.58,31002.7,33815.1,-1.3959,-1.4485,138.0,98.3,0.468
32.6,32369.8,34030.1,0.5219,-1.1843,138.0,98.3,0.468
32.62,29485.9,36727.5,-3.5239,2.1301,138.0,98.3,0.468
32.64,33073.9,32735.2,1.5098,-2.7754,138.0,98.3,0.468
32.66,30793.6,37322.6,-1.6893,2.8614,138.0,98.3,0.468
32.68,32123.1,37173.0,0.176,2.6776,138.0,98.3,0.468
32.7,31859.2,38079.8,-0.1943,3.7918,138.0,98.3,0.468
32.72,31178.3,34074.6,-1.1496,-1.1296,138.0,98.3,0.468
32.74,32932.6,37455.3,1.3116,3.0244,138.0,98.3,0.468
32.76,31909.3,37280.8,-0.1241,2.81,138.0,98.3,0.468
32.78,32786.1,33168.4,1.106,-2.2431,138.0,98.3,0.468
32.8,32609.2,31611.4,0.8578,-4.1563,138.0,98.3,0.468
32.82,34269.9,35003.2,3.1877,0.0114,138.0,98.3,0.468
32.84,31237.6,33385.4,-1.0664,-1.9765,138.0,98.3,0.468
32.86,31169.2,33405.3,-1.1624,-1.952,138.0,98.3,0.468
32.88,31213.8,35206.1,-1.0997,0.2608,138.0,98.3,0.468
32.9,30216.4,32800.3,-2.499,-2.6955,138.0,98.3,0.468
32.92,33334.2,32991.9,1.875,-2.46,138.0,98.3,0.468
32.94,31857.8,35950.7,-0.1963,1.1757,138.0,98.3,0.468
32.96,35157.4,36862.3,4.4328,2.2958,138.0,98.3,0.468
32.98,29519.3,36062.2,-3.477,1.3126,138.0,98.3,0.468
33.0,33885.3,28955.4,2.6481,-7.4199,138.0,98.3,0.468
33.02,31099.7,33110.6,-1.2598,-2.3141,138.0,98.3,0.468
33.04,31395.4,32527.6,-0.845,-3.0305,138.0,98.3,0.468
33.06,30501.2,34326.0,-2.0995,-0.8207,138.0,98.3,0.468
33.08,32853.7,31662.9,1.2009,-4.093,138.0,98.3,0.468
33.1,34598.5,37322.0,3.6487,2.8606,138.0,98.3,0.468
33.12,34651.6,34121.8,3.7232,-1.0716,138.0,98.3,0.468
33.14,30253.7,35927.7,-2.4468,1.1475,138.0,98.3,0.468
33.16,31774.2,38079.3,-0.3136,3.7912,138.0,98.3,0.468
33.18,32464.8,30983.6,0.6553,-4.9277,138.0,98.3,0.468
33.2,32356.4,38087.8,0.5033,3.8017,138.0,98.3,0.468
33.22,29110.4,36025.6,-4.0507,1.2678,138.0,98.3,0.468
33.24,29844.5,32214.6,-3.0208,-3.4151,138.0,98.3,0.468
33.26,30146.2,38192.0,-2.5976,3.9297,138.0,98.3,0.468
33.28,33559.8,33355.6,2.1914,-2.0131,138.0,98.3,0.468
33.3,30852.8,36218.1,-1.6061,1.5043,138.0,98.3,0.468
33.32,31272.0,33223.2,-1.0181,-2.1758,138.0,98.3,0.468
33.34,34796.7,35020.6,3.9267,0.0328,138.0,98.3,0.468
33.36,31885.1,36170.9,-0.1581,1.4463,138.0,98.3,0.468
33.38,32947.2,34232.3,1.332,-0.9359,138.0,98.3,0.468
33.4,33689.2,36902.4,2.373,2.3451,138.0,98.3,0.468
33.42,31149.8,32816.1,-1.1895,-2.676,138.0,98.3,0.468
33.44,33887.5,36779.4,2.6512,2.194,138.0,98.3,0.468
33.46,33128.6,36433.2,1.5865,1.7685,138.0,98.3,0.468
33.48,32581.8,37742.5,0.8194,3.3773,138.0,98.3,0.468
33.5,30941.3,35203.1,-1.482,0.2571,138.0,98.3,0.468
33.52,33249.9,36627.3,1.7567,2.0071,138.0,98.3,0.468
33.54,32054.8,35124.9,0.0801,0.161,138.0,98.3,0.468
33.56,31528.6,37970.2,-0.6582,3.6571,138.0,98.3,0.468
33.58,31015.2,34830.2,-1.3784,-0.2011,138.0,98.3,0.468
33.6,29478.9,35316.3,-3.5337,0.3961,138.0,98.3,0.468
33.62,33935.3,37590.6,2.7183,3.1907,138.0,98.3,0.468
33.64,32532.6,36248.9,0.7504,1.5421,138.0,98.3,0.468
33.66,32725.9,32326.4,1.0215,-3.2777,138.0,98.3,0.468
33.68,27532.3,35333.4,-6.2645,0.4171,138.0,98.3,0.468
33.7,30922.3,35435.4,-1.5087,0.5425,138.0,98.3,0.468
33.72,33848.2,32501.3,2.5961,-3.0628,138.0,98.3,0.468
33.74,28406.3,31457.2,-5.0384,-4.3457,138.0,98.3,0.468
33.76,33053.3,34534.6,1.4809,-0.5644,138.0,98.3,0.468
33.78,28688.1,37381.9,-4.643,2.9343,138.0,98.3,0.468
33.8,31961.0,31709.6,-0.0515,-4.0356,138.0,98.3,0.468
33.82,34725.1,35234.1,3.8263,0.2951,138.0,98.3,0.468
33.84,34421.5,28894.5,3.4003,-7.4947,138.0,98.3,0.468
33.86,32530.5,33651.7,0.7474,-1.6493,138.0,98.3,0.468
33.88,31385.0,37648.2,-0.8596,3.2615,138.0,98.3,0.468
33.9,32387.2,33249.7,0.5465,-2.1432,138.0,98.3,0.468
33.92,31587.3,36859.1,-0.5757,2.2918,138.0,98.3,0.468
33.94,31646.1,34090.5,-0.4932,-1.1101,138.0,98.3,0.468
33.96,30823.6,36449.0,-1.6472,1.788,138.0,98.3,0.468
33.98,32472.1,34884.8,0.6655,-0.1341,138.0,98.3,0.468
34.0,33760.1,34813.7,2.4725,-0.2214,138.0,98.3,0.468
34.02,32276.8,35518.3,0.3916,0.6444,138.0,98.3,0.468
34.04,33774.4,35080.6,2.4925,0.1065,138.0,98.3,0.468
34.06,32928.4,34705.6,1.3057,-0.3543,138.0,98.3,0.468
34.08,30578.0,32393.4,-1.9917,-3.1954,138.0,98.3,0.468
34.1,36930.3,35657.2,6.92,0.8151,138.0,98.3,0.468
34.12,33320.0,31997.9,1.8551,-3.6813,138.0,98.3,0.468
34.14,36881.0,34197.6,6.8508,-0.9785,138.0,98.3,0.468
34.16,30819.6,36506.3,-1.6528,1.8583,138.0,98.3,0.468
34.18,33715.1,37482.0,2.4093,3.0572,138.0,98.3,0.468
34.2,32283.7,33811.9,0.4012,-1.4524,138.0,98.3,0.468
34.22,30016.4,36552.0,-2.7795,1.9146,138.0,98.3,0.468
34.24,34264.7,34826.3,3.1803,-0.2059,138.0,98.3,0.468
34.26,33988.4,33362.1,2.7928,-2.0051,138.0,98.3,0.468
34.28,33645.1,35712.7,2.3111,0.8832,138.0,98.3,0.468
34.3,33265.4,34352.5,1.7784,-0.7881,138.0,98.3,0.468
34.32,31814.9,36699.8,-0.2565,2.0961,138.0,98.3,0.468
34.34,31027.0,36195.7,-1.3618,1.4767,138.0,98.3,0.468
34.36,34837.6,37959.8,3.984,3.6444,138.0,98.3,0.468
34.38,35069.9,37895.0,4.3099,3.5647,138.0,98.3,0.468
34.4,29794.0,36372.1,-3.0916,1.6935,138.0,98.3,0.468
34.42,31039.1,37478.6,-1.3449,3.0531,138.0,98.3,0.468
34.44,28521.2,35330.7,-4.8773,0.4138,138.0,98.3,0.468
34.46,33356.9,33091.3,1.9068,-2.3379,138.0,98.3,0.468
34.48,31543.2,36746.7,-0.6377,2.1537,138.0,98.3,0.468
34.5,32838.2,36837.4,1.1791,2.2652,138.0,98.3,0.468
34.52,36524.7,31541.0,6.351,-4.2428,138.0,98.3,0.468
34.54,30828.9,34023.1,-1.6397,-1.1928,138.0,98.3,0.468
34.56,32127.3,35018.1,0.1818,0.0297,138.0,98.3,0.468
34.58,34019.2,34894.4,2.836,-0.1223,138.0,98.3,0.468
34.6,34077.6,33329.1,2.9178,-2.0457,138.0,98.3,0.468
34.62,33020.5,32413.2,1.4349,-3.1711,138.0,98.3,0.468
34.64,31096.6,33582.4,-1.2642,-1.7344,138.0,98.3,0.468
34.66,33886.2,34135.0,2.6493,-1.0554,138.0,98.3,0.468
34.68,30895.1,33306.3,-1.5469,-2.0737,138.0,98.3,0.468
34.7,33478.7,36540.0,2.0777,1.8997,138.0,98.3,0.468
34.72,31078.3,36001.5,-1.2899,1.238,138.0,98.3,0.468
34.74,33417.1,36759.6,1.9913,2.1696,138.0,98.3,0.468
34.76,33508.9,34930.9,2.1201,-0.0774,138.0,98.3,0.468
34.78,30585.7,34728.3,-1.981,-0.3264,138.0,98.3,0.468
34.8,33750.2,33707.8,2.4586,-1.5803,138.0,98.3,0.468
34.82,31581.2,36372.3,-0.5844,1.6937,138.0,98.3,0.468
34.84,28157.2,36834.1,-5.3878,2.2611,138.0,98.3,0.468
34.86,32022.1,36514.0,0.0342,1.8678,138.0,98.3,0.468
34.88,33533.5,36305.7,2.1545,1.6119,138.0,98.3,0.468
34.9,32540.4,32866.8,0.7614,-2.6138,138.0,98.3,0.468
34.92,30026.4,34615.3,-2.7656,-0.4653,138.0,98.3,0.468
34.94,34894.8,32246.7,4.0644,-3.3756,138.0,98.3,0.468
34.96,33053.0,36102.8,1.4804,1.3626,138.0,98.3,0.468
34.98,30361.3,35958.3,-2.2958,1.185,138.0,98.3,0.468
35.0,34728.3,36100.4,3.8308,1.3597,138.0,98.3,0.468
35.02,30603.2,35173.0,-1.9564,0.2201,138.0,98.3,0.468
35.04,32047.5,34750.4,0.0699,-0.2993,138.0,98.3,0.468
35.06,28149.2,30570.5,-5.3991,-5.4353,138.0,98.3,0.468
35.08,28285.1,36222.8,-5.2085,1.51,138.0,98.3,0.468
35.1,28740.4,29681.6,-4.5697,-6.5276,138.0,98.3,0.468
35.12,32942.8,33083.3,1.3259,-2.3477,138.0,98.3,0.468
35.14,33315.6,35525.3,1.8489,0.653,138.0,98.3,0.468
35.16,30076.8,32959.0,-2.6949,-2.5004,138.0,98.3,0.468
35.18,26905.3,31159.0,-7.1442,-4.7122,138.0,98.3,0.468
35.2,29971.4,32561.7,-2.8428,-2.9886,138.0,98.3,0.468
35.22,30296.6,38121.9,-2.3866,3.8435,138.0,98.3,0.468
35.24,32107.9,35470.8,0.1546,0.5859,138.0,98.3,0.468
35.26,34056.9,34490.5,2.8888,-0.6186,138.0,98.3,0.468
35.28,31613.8,35340.5,-0.5386,0.4259,138.0,98.3,0.468
35.3,31211.5,32930.1,-1.1029,-2.5359,138.0,98.3,0.468
35.32,32977.5,36193.2,1.3746,1.4736,138.0,98.3,0.468
35.34,32922.8,38074.3,1.2977,3.7851,138.0,98.3,0.468
35.36,30574.6,36015.9,-1.9965,1.2558,138.0,98.3,0.468
35.38,30911.1,35122.4,-1.5245,0.1579,138.0,98.3,0.468
35.4,34778.7,37313.8,3.9014,2.8505,138.0,98.3,0.468
35.42,31638.3,35948.2,-0.5043,1.1725,138.0,98.3,0.468
35.44,34119.2,33932.5,2.9763,-1.3042,138.0,98.3,0.468
35.46,35324.4,32247.1,4.667,-3.3752,138.0,98.3,0.468
35.48,33464.9,37069.5,2.0583,2.5504,138.0,98.3,0.468
35.5,33195.6,35352.3,1.6805,0.4403,138.0,98.3,0.468
35.52,33961.4,36494.0,2.7549,1.8433,138.0,98.3,0.468
35.54,29792.5,37787.5,-3.0937,3.4326,138.0,98.3,0.468
35.56,32419.0,30489.5,0.591,-5.5348,138.0,98.3,0.468
35.58,28561.4,37715.0,-4.8209,3.3435,138.0,98.3,0.468
35.6,33984.9,32775.1,2.7878,-2.7264,138.0,98.3,0.468
35.62,33298.9,34108.6,1.8254,-1.0878,138.0,98.3,0.468
35.64,33049.6,34247.1,1.4757,-0.9176,138.0,98.3,0.468
35.66,36047.4,34607.2,5.6813,-0.4752,138.0,98.3,0.468
35.68,32223.1,37110.3,0.3162,2.6006,138.0,98.3,0.468
35.7,33127.5,35501.3,1.585,0.6234,138.0,98.3,0.468
35.72,31129.9,33627.1,-1.2175,-1.6795,138.0,98.3,0.468
35.74,31087.0,35300.4,-1.2776,0.3766,138.0,98.3,0.468
35.76,34043.1,38637.2,2.8694,4.4767,138.0,98.3,0.468
35.78,32121.3,31809.6,0.1734,-3.9128,138.0,98.3,0.468
35.8,30748.5,32006.5,-1.7525,-3.6708,138.0,98.3,0.468
35.82,31993.0,32414.3,-0.0066,-3.1697,138.0,98.3,0.468
35.84,34189.0,31197.6,3.0742,-4.6648,138.0,98.3,0.468
35.86,30736.4,31044.5,-1.7694,-4.8529,138.0,98.3,0.468
35.88,27474.4,34933.0,-6.3458,-0.0749,138.0,98.3,0.468
35.9,34782.1,33346.1,3.9062,-2.0247,138.0,98.3,0.468
35.92,33740.5,30605.8,2.4449,-5.392,138.0,98.3,0.468
35.94,31837.1,30032.2,-0.2253,-6.0967,138.0,98.3,0.468
35.96,28949.8,36463.3,-4.276,1.8055,138.0,98.3,0.468
35.98,31555.3,35509.5,-0.6207,0.6336,138.0,98.3,0.468
36.0,31902.8,36353.4,-0.1332,1.6705,138.0,98.3,0.468
36.02,32002.6,33378.7,0.0069,-1.9847,138.0,98.3,0.468
36.04,29768.7,32609.7,-3.1271,-2.9297,138.0,98.3,0.468
36.06,29626.7,33882.3,-3.3263,-1.3658,138.0,98.3,0.468
36.08,31880.7,32899.3,-0.1642,-2.5738,138.0,98.3,0.468
36.1,31269.4,33627.2,-1.0218,-1.6794,138.0,98.3,0.468
36.12,32430.7,34963.4,0.6075,-0.0375,138.0,98.3,0.468
36.14,30253.1,34913.4,-2.4475,-0.099,138.0,98.3,0.468
36.16,29480.8,34305.3,-3.5311,-0.8461,138.0,98.3,0.468
36.18,33234.4,33455.2,1.735,-1.8907,138.0,98.3,0.468
36.2,32137.3,33880.2,0.1958,-1.3685,138.0,98.3,0.468
36.22,31050.2,34567.9,-1.3293,-0.5234,138.0,98.3,0.468
36.24,30392.5,35215.1,-2.252,0.2718,138.0,98.3,0.468
36.26,31765.5,33058.3,-0.3257,-2.3784,138.0,98.3,0.468
36.28,34250.1,38026.3,3.1599,3.7261,138.0,98.3,0.468
36.3,31217.0,35907.8,-1.0953,1.1229,138.0,98.3,0.468
36.32,35303.9,37485.8,4.6382,3.062,138.0,98.3,0.468
36.34,33174.5,34046.9,1.6509,-1.1637,138.0,98.3,0.468
36.36,31568.5,35558.4,-0.6022,0.6936,138.0,98.3,0.468
36.38,28408.6,35707.9,-5.0352,0.8774,138.0,98.3,0.468
36.4,31671.8,34315.0,-0.4572,-0.8342,138.0,98.3,0.468
36.42,35041.5,34714.2,4.2701,-0.3437,138.0,98.3,0.468
36.44,32299.8,34314.1,0.4238,-0.8353,138.0,98.3,0.468
36.46,32369.3,38071.5,0.5213,3.7816,138.0,98.3,0.468
36.48,29736.1,34055.1,-3.1728,-1.1536,138.0,98.3,0.468
36.5,31114.8,36421.1,-1.2387,1.7537,138.0,98.3,0.468
36.52,32019.7,34950.4,0.0309,-0.0534,138.0,98.3,0.468
36.54,30853.6,34564.5,-1.605,-0.5277,138.0,98.3,0.468
36.56,30779.4,33590.0,-1.7091,-1.725,138.0,98.3,0.468
36.58,34042.7,35137.5,2.8689,0.1764,138.0,98.3,0.468
36.6,31067.9,36004.6,-1.3044,1.2419,138.0,98.3,0.468
36.62,32215.4,36927.4,0.3054,2.3758,138.0,98.3,0.468
36.64,33541.6,38519.9,2.1659,4.3326,138.0,98.3,0.468
36.66,34666.9,34226.1,3.7446,-0.9434,138.0,98.3,0.468
36.68,28007.0,32573.5,-5.5986,-2.9741,138.0,98.3,0.468
36.7,30570.8,34391.5,-2.0018,-0.7402,138.0,98.3,0.468
36.72,34562.7,37101.9,3.5984,2.5902,138.0,98.3,0.468
36.74,33430.5,37084.4,2.0101,2.5688,138.0,98.3,0.468
36.76,31388.7,30915.9,-0.8545,-5.0109,138.0,98.3,0.468
36.78,31326.2,33290.1,-0.942,-2.0935,138.0,98.3,0.468
36.8,31532.8,38703.2,-0.6522,4.5579,138.0,98.3,0.468
36.82,31009.0,33965.2,-1.3871,-1.264,138.0,98.3,0.468
36.84,32241.1,33348.2,0.3415,-2.0222,138.0,98.3,0.468
36.86,32271.3,37000.4,0.3838,2.4655,138.0,98.3,0.468
36.88,33521.3,35514.8,2.1375,0.64,138.0,98.3,0.468
36.9,30761.8,33935.4,-1.7338,-1.3006,138.0,98.3,0.468
36.92,32120.3,34999.4,0.1719,0.0067,138.0,98.3,0.468
36.94,26368.3,38934.3,-7.8975,4.8418,138.0,98.3,0.468
36.96,34907.3,35316.7,4.0819,0.3967,138.0,98.3,0.468
36.98,28729.9,34832.4,-4.5844,-0.1984,138.0,98.3,0.468
37.0,32532.0,36163.8,0.7496,1.4375,138.0,98.3,0.468
37.02,32092.2,35852.1,0.1325,1.0545,138.0,98.3,0.468
37.04,30802.9,36580.8,-1.6762,1.9499,138.0,98.3,0.468
37.06,30767.0,33822.3,-1.7266,-1.4396,138.0,98.3,0.468
37.08,33679.1,35668.8,2.3589,0.8293,138.0,98.3,0.468
37.1,33624.7,36711.6,2.2826,2.1106,138.0,98.3,0.468
37.12,32714.1,36789.2,1.0051,2.206,138.0,98.3,0.468
37.14,32211.2,35786.1,0.2996,0.9734,138.0,98.3,0.468
37.16,30723.8,35174.4,-1.7872,0.2218,138.0,98.3,0.468
37.18,33749.4,34290.4,2.4575,-0.8644,138.0,98.3,0.468
37.2,34296.1,32219.9,3.2244,-3.4086,138.0,98.3,0.468
37.22,30122.0,34262.5,-2.6314,-0.8988,138.0,98.3,0.468
37.24,30366.5,33446.2,-2.2885,-1.9017,138.0,98.3,0.468
37.26,35494.8,34909.0,4.906,-0.1043,138.0,98.3,0.468
37.28,30881.9,32464.2,-1.5654,-3.1084,138.0,98.3,0.468
37.3,32451.0,36770.3,0.6359,2.1828,138.0,98.3,0.468
37.32,32166.7,37509.2,0.2371,3.0907,138.0,98.3,0.468
37.34,34723.4,39617.0,3.8238,5.6807,138.0,98.3,0.468
37.36,31902.8,34381.9,-0.1332,-0.752,138.0,98.3,0.468
37.38,31907.4,33309.0,-0.1267,-2.0704,138.0,98.3,0.468
37.4,32704.2,38620.9,0.9912,4.4567,138.0,98.3,0.468
37.42,27875.4,36918.7,-5.7833,2.3651,138.0,98.3,0.468
37.44,35390.3,36444.2,4.7594,1.782,138.0,98.3,0.468
37.46,28405.3,34381.5,-5.0398,-0.7525,138.0,98.3,0.468
37.48,33423.8,36711.1,2.0006,2.11,138.0,98.3,0.468
37.5,32470.2,34422.9,0.6629,-0.7016,138.0,98.3,0.468
37.52,33509.3,37205.2,2.1206,2.7171,138.0,98.3,0.468
37.54,34217.1,34831.4,3.1136,-0.1997,138.0,98.3,0.468
37.56,32138.0,37360.5,0.1969,2.908,138.0,98.3,0.468
37.58,31289.6,32289.3,-0.9935,-3.3233,138.0,98.3,0.468
37.6,34036.5,36915.6,2.8602,2.3613,138.0,98.3,0.468
37.62,31782.3,36080.9,-0.3022,1.3357,138.0,98.3,0.468
37.64,32711.4,36165.4,1.0012,1.4395,138.0,98.3,0.468
37.66,33204.9,36380.3,1.6935,1.7035,138.0,98.3,0.468
37.68,27625.3,35148.1,-6.134,0.1895,138.0,98.3,0.468
37.7,31992.4,32216.3,-0.0075,-3.413,138.0,98.3,0.468
37.72,32456.2,34062.0,0.6432,-1.1451,138.0,98.3,0.468
37.74,31639.9,33850.3,-0.502,-1.4053,138.0,98.3,0.468
37.76,28985.7,35903.8,-4.2256,1.118,138.0,98.3,0.468
37.78,34659.1,32484.4,3.7337,-3.0836,138.0,98.3,0.468
37.8,32076.8,35525.4,0.111,0.6531,138.0,98.3,0.468
37.82,33313.7,36006.1,1.8462,1.2438,138.0,98.3,0.468
37.84,34764.6,33380.8,3.8817,-1.9821,138.0,98.3,0.468
37.86,33025.9,35173.4,1.4424,0.2206,138.0,98.3,0.468
37.88,34369.6,38274.6,3.3275,4.0312,138.0,98.3,0.468
37.9,33499.8,33668.3,2.1073,-1.6289,138.0,98.3,0.468
37.92,34372.3,37002.2,3.3314,2.4677,138.0,98.3,0.468
37.94,35129.6,36033.5,4.3938,1.2774,138.0,98.3,0.468
37.96,31260.4,36071.2,-1.0343,1.3237,138.0,98.3,0.468
37.98,30402.8,34278.4,-2.2375,-0.8792,138.0,98.3,0.468
38.0,33951.5,33170.3,2.741,-2.2407,138.0,98.3,0.468
38.02,31648.5,34910.1,-0.4899,-0.103,138.0,98.3,0.468
38.04,28800.2,34606.5,-4.4857,-0.4761,138.0,98.3,0.468
38.06,32600.2,33845.9,0.8453,-1.4107,138.0,98.3,0.468
38.08,33561.5,33228.2,2.1939,-2.1696,138.0,98.3,0.468
38.1,31204.7,33781.2,-1.1125,-1.4901,138.0,98.3,0.468
38.12,28071.1,38595.9,-5.5087,4.426,138.0,98.3,0.468
38.14,31176.0,32599.4,-1.1528,-2.9422,138.0,98.3,0.468
38.16,31235.2,35411.2,-1.0697,0.5128,138.0,98.3,0.468
38.18,34554.6,36046.0,3.587,1.2928,138.0,98.3,0.468
38.2,34619.7,33785.4,3.6784,-1.4849,138.0,98.3,0.468
38.22,31340.5,34280.4,-0.922,-0.8767,138.0,98.3,0.468
38.24,32300.8,34837.8,0.4252,-0.1919,138.0,98.3,0.468
38.26,34352.6,32618.6,3.3037,-2.9187,138.0,98.3,0.468
38.28,35813.7,35540.9,5.3534,0.6721,138.0,98.3,0.468
38.3,33061.0,37750.4,1.4917,3.3871,138.0,98.3,0.468
38.32,30724.9,34052.9,-1.7856,-1.1563,138.0,98.3,0.468
38.34,27524.9,37753.6,-6.275,3.391,138.0,98.3,0.468
38.36,32927.6,35916.0,1.3046,1.133,138.0,98.3,0.468
38.38,29588.5,37842.1,-3.3799,3.4997,138.0,98.3,0.468
38.4,33301.4,33755.6,1.8289,-1.5216,138.0,98.3,0.468
38.42,33831.1,33575.2,2.5721,-1.7433,138.0,98.3,0.468
38.44,27031.5,31640.4,-6.9672,-4.1207,138.0,98.3,0.468
38.46,32389.8,35894.0,0.5501,1.106,138.0,98.3,0.468
38.48,33152.5,29451.6,1.6201,-6.8102,138.0,98.3,0.468
38.5,32489.0,36994.8,0.6892,2.4586,138.0,98.3,0.468
38.52,31235.0,34447.2,-1.07,-0.6718,138.0,98.3,0.468
38.54,31835.3,35481.6,-0.2278,0.5992,138.0,98.3,0.468
38.56,29528.0,36064.0,-3.4648,1.3149,138.0,98.3,0.468
38.58,35786.3,38135.7,5.3151,3.8605,138.0,98.3,0.468
38.6,31384.9,33589.7,-0.8597,-1.7255,138.0,98.3,0.468
38.62,31005.7,33493.0,-1.3916,-1.8442,138.0,98.3,0.468
38.64,28732.9,32606.8,-4.5802,-2.9332,138.0,98.3,0.468
38.66,30969.9,34505.5,-1.4419,-0.6001,138.0,98.3,0.468
38.68,33183.7,35043.4,1.6639,0.0608,138.0,98.3,0.468
38.7,31954.5,35857.7,-0.0607,1.0614,138.0,98.3,0.468
38.72,31911.7,38685.7,-0.1207,4.5363,138.0,98.3,0.468
38.74,31878.7,36514.6,-0.1669,1.8685,138.0,98.3,0.468
38.76,33180.7,33597.0,1.6596,-1.7164,138.0,98.3,0.468
38.78,29144.1,33679.3,-4.0033,-1.6154,138.0,98.3,0.468
38.8,33678.0,37552.1,2.3572,3.1434,138.0,98.3,0.468
38.82,31193.1,36410.6,-1.1288,1.7408,138.0,98.3,0.468
38.84,30993.5,33847.0,-1.4089,-1.4093,138.0,98.3,0.468
38.86,32351.5,35868.5,0.4964,1.0746,138.0,98.3,0.468
38.88,31837.6,39442.1,-0.2246,5.4657,138.0,98.3,0.468
38.9,32152.0,33198.1,0.2164,-2.2066,138.0,98.3,0.468
38.92,33673.4,31034.2,2.3508,-4.8655,138.0,98.3,0.468
38.94,30477.4,30812.8,-2.1329,-5.1375,138.0,98.3,0.468
38.96,30142.3,32776.8,-2.6029,-2.7243,138.0,98.3,0.468
38.98,34934.5,34109.7,4.1201,-1.0864,138.0,98.3,0.468
39.0,33552.1,32232.1,2.1806,-3.3936,138.0,98.3,0.468
39.02,31960.9,33356.2,-0.0517,-2.0124,138.0,98.3,0.468
39.04,33526.1,34160.9,2.1441,-1.0236,138.0,98.3,0.468
39.06,30772.8,39386.7,-1.7184,5.3977,138.0,98.3,0.468
39.08,34133.6,33475.3,2.9965,-1.866,138.0,98.3,0.468
39.1,29336.3,37640.3,-3.7337,3.2517,138.0,98.3,0.468
39.12,32730.2,36354.0,1.0276,1.6712,138.0,98.3,0.468
39.14,30984.9,33519.2,-1.4209,-1.812,138.0,98.3,0.468
39.16,29021.2,38563.7,-4.1757,4.3864,138.0,98.3,0.468
39.18,31761.1,34389.7,-0.332,-0.7424,138.0,98.3,0.468
39.2,33279.8,37767.7,1.7987,3.4083,138.0,98.3,0.468
39.22,34536.6,35231.7,3.5618,0.2922,138.0,98.3,0.468
39.24,31947.3,36982.2,-0.0707,2.4431,138.0,98.3,0.468
39.26,32313.9,32754.2,0.4436,-2.7521,138.0,98.3,0.468
39.28,30388.9,33681.5,-2.257,-1.6127,138.0,98.3,0.468
39.3,30765.3,37156.0,-1.7289,2.6566,138.0,98.3,0.468
39.32,33396.5,34719.6,1.9624,-0.337,138.0,98.3,0.468
39.34,34909.7,37678.3,4.0853,3.2985,138.0,98.3,0.468
39.36,34913.4,37669.7,4.0904,3.2879,138.0,98.3,0.468
39.38,29844.3,33254.1,-3.0211,-2.1378,138.0,98.3,0.468
39.4,30975.3,38641.4,-1.4344,4.4818,138.0,98.3,0.468
39.42,33164.5,35415.5,1.6368,0.5181,138.0,98.3,0.468
39.44,31532.5,31570.5,-0.6526,-4.2065,138.0,98.3,0.468
39.46,30648.9,35602.3,-1.8923,0.7475,138.0,98.3,0.468
39.48,33058.6,33087.4,1.4883,-2.3427,138.0,98.3,0.468
39.5,32267.1,38570.2,0.3779,4.3944,138.0,98.3,0.468
39.52,30562.3,35086.2,-2.0138,0.1134,138.0,98.3,0.468
39.54,31409.2,38684.6,-0.8256,4.5349,138.0,98.3,0.468
39.56,31952.8,36134.6,-0.0629,1.4016,138.0,98.3,0.468
39.58,27979.1,35450.0,-5.6378,0.5604,138.0,98.3,0.468
39.6,31904.7,35773.7,-0.1306,0.9582,138.0,98.3,0.468
39.62,31184.1,33678.2,-1.1414,-1.6167,138.0,98.3,0.468
39.64,29108.9,35832.1,-4.0527,1.0299,138.0,98.3,0.468
39.66,29437.4,36961.9,-3.5919,2.4182,138.0,98.3,0.468
39.68,36802.5,36945.2,6.7406,2.3977,138.0,98.3,0.468
39.7,30419.7,36421.7,-2.2139,1.7544,138.0,98.3,0.468
39.72,30997.4,34982.2,-1.4034,-0.0144,138.0,98.3,0.468
39.74,29162.4,36638.0,-3.9777,2.0201,138.0,98.3,0.468
39.76,29851.1,35177.1,-3.0115,0.2252,138.0,98.3,0.468
39.78,31909.4,35466.0,-0.124,0.58,138.0,98.3,0.468
39.8,31090.6,35722.6,-1.2726,0.8953,138.0,98.3,0.468
39.82,28725.7,32097.1,-4.5904,-3.5594,138.0,98.3,0.468
39.84,29510.4,35092.9,-3.4895,0.1217,138.0,98.3,0.468
39.86,30463.0,32432.7,-2.1531,-3.1471,138.0,98.3,0.468
39.88,30504.0,33812.1,-2.0956,-1.4521,138.0,98.3,0.468
39.9,29992.8,35321.3,-2.8127,0.4023,138.0,98.3,0.468
39.92,33865.7,34685.3,2.6207,-0.3792,138.0,98.3,0.468
39.94,29757.2,32123.6,-3.1433,-3.5269,138.0,98.3,0.468
39.96,30213.7,34193.1,-2.5028,-0.984,138.0,98.3,0.468
39.98,32398.6,34717.8,0.5624,-0.3393,138.0,98.3,0.468
40.0,28418.5,35693.3,-5.0213,0.8593,138.0,98.3,0.468
40.02,30840.4,36635.6,-1.6236,2.0172,138.0,98.3,0.468
40.04,29414.4,37174.6,-3.6242,2.6795,138.0,98.3,0.468
40.06,33839.3,32646.7,2.5836,-2.8841,138.0,98.3,0.468
40.08,27474.7,34811.8,-6.3453,-0.2238,138.0,98.3,0.468
40.1,31768.1,33437.7,-0.3221,-1.9122,138.0,98.3,0.468
40.12,38075.6,38681.9,8.5267,4.5317,138.0,98.3,0.468
40.14,31501.5,32717.2,-0.6962,-2.7975,138.0,98.3,0.468
40.16,33844.7,34939.1,2.5911,-0.0674,138.0,98.3,0.468
40.18,30923.4,37281.3,-1.5072,2.8107,138.0,98.3,0.468
40.2,31046.8,38789.7,-1.3341,4.6641,138.0,98.3,0.468
40.22,31407.3,36514.6,-0.8283,1.8686,138.0,98.3,0.468
40.24,31417.2,32965.3,-0.8145,-2.4927,138.0,98.3,0.468
40.26,33850.3,36521.1,2.599,1.8766,138.0,98.3,0.468
40.28,32080.0,34579.4,0.1154,-0.5093,138.0,98.3,0.468
40.3,32101.7,38186.6,0.1459,3.923,138.0,98.3,0.468
40.32,34967.8,31780.8,4.1667,-3.9482,138.0,98.3,0.468
40.34,30450.8,30505.8,-2.1701,-5.5149,138.0,98.3,0.468
40.36,35099.7,35561.5,4.3517,0.6975,138.0,98.3,0.468
40.38,31393.3,32618.7,-0.848,-2.9186,138.0,98.3,0.468
40.4,31936.5,32337.5,-0.0858,-3.264,138.0,98.3,0.468
40.42,35804.3,32856.2,5.3403,-2.6268,138.0,98.3,0.468
40.44,32913.1,33436.6,1.2842,-1.9135,138.0,98.3,0.468
40.46,30342.4,35720.0,-2.3223,0.8922,138.0,98.3,0.468
40.48,31925.4,38111.7,-0.1015,3.831,138.0,98.3,0.468
40.5,30669.8,36396.2,-1.8629,1.7231,138.0,98.3,0.468
40.52,33906.9,37198.5,2.6785,2.7089,138.0,98.3,0.468
40.54,30578.4,30627.3,-1.9912,-5.3655,138.0,98.3,0.468
40.56,31526.0,34708.5,-0.6617,-0.3507,138.0,98.3,0.468
40.58,31383.7,34741.6,-0.8615,-0.31,138.0,98.3,0.468
40.6,32323.6,36235.6,0.4572,1.5257,138.0,98.3,0.468
40.62,28851.4,36777.9,-4.414,2.1921,138.0,98.3,0.468
40.64,32967.4,34422.6,1.3603,-0.702,138.0,98.3,0.468
40.66,35186.2,33963.5,4.4731,-1.2662,138.0,98.3,0.468
40.68,33013.8,35837.5,1.4255,1.0365,138.0,98.3,0.468
40.7,35770.3,35395.8,5.2926,0.4939,138.0,98.3,0.468
40.72,31242.0,35073.3,-1.0602,0.0976,138.0,98.3,0.468
40.74,33171.6,34451.0,1.6468,-0.6671,138.0,98.3,0.468
40.76,33807.1,34676.2,2.5385,-0.3904,138.0,98.3,0.468
40.78,31277.7,32010.1,-1.0101,-3.6664,138.0,98.3,0.468
40.8,36182.1,34578.0,5.8703,-0.511,138.0,98.3,0.468
40.82,31061.4,32060.7,-1.3136,-3.6042,138.0,98.3,0.468
40.84,30653.0,35395.3,-1.8865,0.4932,138.0,98.3,0.468
40.86,31434.2,32520.2,-0.7906,-3.0396,138.0,98.3,0.468
40.88,32296.0,32225.2,0.4185,-3.4021,138.0,98.3,0.468
40.9,31853.7,35440.5,-0.2021,0.5488,138.0,98.3,0.468
40.92,28923.2,37983.6,-4.3133,3.6736,138.0,98.3,0.468
40.94,29680.7,39384.3,-3.2506,5.3947,138.0,98.3,0.468
40.96,33192.4,36787.4,1.676,2.2038,138.0,98.3,0.468
40.98,31015.8,35085.0,-1.3775,0.1119,138.0,98.3,0.468
41.0,33147.2,36101.4,1.6126,1.3608,138.0,98.3,0.468
41.02,28053.9,35613.2,-5.5328,0.7609,138.0,98.3,0.468
41.04,31392.4,33087.5,-0.8491,-2.3425,138.0,98.3,0.468
41.06,29970.1,33972.8,-2.8445,-1.2547,138.0,98.3,0.468
41.08,36447.9,35212.7,6.2432,0.2689,138.0,98.3,0.468
41.1,27209.1,38068.9,-6.7179,3.7785,138.0,98.3,0.468
41.12,31175.3,37818.7,-1.1537,3.471,138.0,98.3,0.468
41.14,28788.2,35794.6,-4.5026,0.9839,138.0,98.3,0.468
41.16,36472.8,37474.5,6.2781,3.048,138.0,98.3,0.468
41.18,30884.2,34796.2,-1.5621,-0.2429,138.0,98.3,0.468
41.2,31094.3,33076.8,-1.2675,-2.3557,138.0,98.3,0.468
41.22,33062.7,35417.3,1.4941,0.5202,138.0,98.3,0.468
41.24,33381.0,34743.7,1.9406,-0.3074,138.0,98.3,0.468
41.26,29984.6,35695.1,-2.8242,0.8616,138.0,98.3,0.468
41.28,32089.5,35966.9,0.1287,1.1955,138.0,98.3,0.468
41.3,32897.4,35264.1,1.2621,0.332,138.0,98.3,0.468
41.32,29736.9,35349.9,-3.1717,0.4374,138.0,98.3,0.468
41.34,33815.6,32820.5,2.5503,-2.6706,138.0,98.3,0.468
41.36,27990.6,32771.3,-5.6216,-2.7311,138.0,98.3,0.468
41.38,30452.2,35505.2,-2.1682,0.6282,138.0,98.3,0.468
41.4,29572.2,35770.2,-3.4027,0.9539,138.0,98.3,0.468
41.42,32202.1,32315.7,0.2868,-3.2909,138.0,98.3,0.468
41.44,28163.2,38990.3,-5.3795,4.9107,138.0,98.3,0.468
41.46,29640.6,34277.0,-3.3068,-0.8809,138.0,98.3,0.468
41.48,33953.0,34677.9,2.7431,-0.3884,138.0,98.3,0.468
41.5,35204.1,36352.2,4.4983,1.669,138.0,98.3,0.468
41.52,31526.7,36212.9,-0.6607,1.4979,138.0,98.3,0.468
41.54,32178.5,34955.5,0.2536,-0.0471,138.0,98.3,0.468
41.56,32872.9,35242.5,1.2277,0.3054,138.0,98.3,0.468
41.58,32064.7,35944.0,0.094,1.1674,138.0,98.3,0.468
41.6,31601.9,35986.3,-0.5553,1.2194,138.0,98.3,0.468
41.62,32391.3,32391.4,0.5521,-3.1979,138.0,98.3,0.468
41.64,32555.4,37862.6,0.7824,3.5249,138.0,98.3,0.468
41.66,32936.2,31743.8,1.3166,-3.9936,138.0,98.3,0.468
41.68,33982.6,34400.9,2.7846,-0.7287,138.0,98.3,0.468
41.7,31240.9,32419.4,-1.0618,-3.1634,138.0,98.3,0.468
41.72,33154.1,33334.0,1.6223,-2.0396,138.0,98.3,0.468
41.74,31899.7,37948.6,-0.1374,3.6306,138.0,98.3,0.468
41.76,31150.9,34591.2,-1.188,-0.4948,138.0,98.3,0.468
41.78,31838.4,36981.0,-0.2235,2.4416,138.0,98.3,0.468
41.8,34178.1,37320.0,3.0589,2.8582,138.0,98.3,0.468
41.82,30674.2,34671.0,-1.8568,-0.3968,138.0,98.3,0.468
41.84,30287.1,34719.7,-2.3998,-0.3369,138.0,98.3,0.468
41.86,33438.2,35420.9,2.0208,0.5246,138.0,98.3,0.468
41.88,31567.4,34092.6,-0.6037,-1.1075,138.0,98.3,0.468
41.9,32692.3,36408.7,0.9744,1.7384,138.0,98.3,0.468
41.92,32616.4,35472.5,0.868,0.588,138.0,98.3,0.468
41.94,30975.9,35212.6,-1.4335,0.2687,138.0,98.3,0.468
41.96,31994.8,36959.2,-0.004,2.4148,138.0,98.3,0.468
41.98,27576.9,32737.8,-6.202,-2.7722,138.0,98.3,0.468
42.0,32496.4,32301.7,0.6996,-3.3081,138.0,98.3,0.468
42.02,35662.4,33984.9,5.1412,-1.2399,138.0,98.3,0.468
42.04,32083.2,33217.5,0.1199,-2.1828,138.0,98.3,0.468
42.06,32186.1,35147.5,0.2643,0.1887,138.0,98.3,0.468
42.08,36676.4,34866.5,6.5638,-0.1565,138.0,98.3,0.468
42.1,32264.1,36897.0,0.3738,2.3384,138.0,98.3,0.468
42.12,32693.9,35555.2,0.9767,0.6897,138.0,98.3,0.468
42.14,32975.5,30865.3,1.3717,-5.0731,138.0,98.3,0.468
42.16,27850.6,40067.9,-5.818,6.2347,138.0,98.3,0.468
42.18,31972.7,36512.1,-0.035,1.8655,138.0,98.3,0.468
42.2,33080.9,38819.3,1.5196,4.7005,138.0,98.3,0.468
42.22,34115.1,32959.6,2.9705,-2.4996,138.0,98.3,0.468
42.24,34955.1,31043.7,4.1489,-4.8538,138.0,98.3,0.468
42.26,35183.9,35287.6,4.4698,0.3608,138.0,98.3,0.468
42.28,36269.7,35990.9,5.9931,1.2251,138.0,98.3,0.468
42.3,32651.6,36298.9,0.9173,1.6035,138.0,98.3,0.468
42.32,34269.4,35065.6,3.187,0.0881,138.0,98.3,0.468
42.34,31609.6,36541.2,-0.5445,1.9013,138.0,98.3,0.468
42.36,29421.2,31936.3,-3.6146,-3.757,138.0,98.3,0.468
42.38,33951.1,32768.8,2.7405,-2.7341,138.0,98.3,0.468
42.4,35805.4,33060.8,5.3419,-2.3753,138.0,98.3,0.468
42.42,31535.1,34909.7,-0.649,-0.1034,138.0,98.3,0.468
42.44,31987.5,33057.6,-0.0144,-2.3792,138.0,98.3,0.468
42.46,35075.5,34631.2,4.3179,-0.4457,138.0,98.3,0.468
42.48,30331.3,38103.1,-2.3378,3.8204,138.0,98.3,0.468
42.5,27439.4,35735.4,-6.3949,0.9112,138.0,98.3,0.468
42.52,32664.3,35307.5,0.9351,0.3854,138.0,98.3,0.468
42.54,29340.2,34342.2,-3.7282,-0.8007,138.0,98.3,0.468
42.56,32834.8,32568.1,1.1744,-2.9807,138.0,98.3,0.468
42.58,32205.2,33127.8,0.2911,-2.293,138.0,98.3,0.468
42.6,29470.0,34617.3,-3.5461,-0.4628,138.0,98.3,0.468
42.62,31844.2,36112.8,-0.2153,1.3748,138.0,98.3,0.468
42.64,29826.7,29441.8,-3.0457,-6.8222,138.0,98.3,0.468
42.66,30135.2,37569.8,-2.613,3.1652,138.0,98.3,0.468
42.68,33422.9,35667.8,1.9994,0.8281,138.0,98.3,0.468
42.7,33307.8,33485.4,1.8379,-1.8536,138.0,98.3,0.468
42.72,30033.4,30898.2,-2.7558,-5.0326,138.0,98.3,0.468
42.74,31894.4,36837.4,-0.145,2.2652,138.0,98.3,0.468
42.76,34276.2,39035.6,3.1965,4.9663,138.0,98.3,0.468
42.78,32076.7,34524.4,0.1108,-0.5769,138.0,98.3,0.468
42.8,33746.4,34367.6,2.4532,-0.7695,138.0,98.3,0.468
42.82,26971.4,34328.1,-7.0514,-0.8182,138.0,98.3,0.468
42.84,29770.3,34246.1,-3.1249,-0.9188,138.0,98.3,0.468
42.86,30962.1,36379.4,-1.4529,1.7024,138.0,98.3,0.468
42.88,29761.4,39136.5,-3.1373,5.0903,138.0,98.3,0.468
42.9,29509.7,34964.3,-3.4904,-0.0364,138.0,98.3,0.468
42.92,32947.9,31702.6,1.333,-4.0442,138.0,98.3,0.468
42.94,32468.8,33413.1,0.6609,-1.9424,138.0,98.3,0.468
42.96,32327.7,31486.0,0.463,-4.3104,138.0,98.3,0.468
42.98,30446.2,33142.0,-2.1767,-2.2756,138.0,98.3,0.468
43.0,30560.4,33263.0,-2.0165,-2.1269,138.0,98.3,0.468
43.02,31675.7,35077.5,-0.4518,0.1027,138.0,98.3,0.468
43.04,31504.8,33880.0,-0.6916,-1.3687,138.0,98.3,0.468
43.06,32581.6,36886.9,0.8191,2.326,138.0,98.3,0.468
43.08,34833.4,35454.8,3.9782,0.5663,138.0,98.3,0.468
43.1,30453.6,31979.0,-2.1663,-3.7046,138.0,98.3,0.468
43.12,34387.4,34963.8,3.3525,-0.037,138.0,98.3,0.468
43.14,34851.0,33574.9,4.0028,-1.7436,138.0,98.3,0.468
43.16,31690.1,35480.9,-0.4316,0.5984,138.0,98.3,0.468
43.18,37634.1,36334.8,7.9074,1.6476,138.0,98.3,0.468
43.2,32389.5,35206.5,0.5497,0.2612,138.0,98.3,0.468
43.22,33464.4,35230.9,2.0577,0.2912,138.0,98.3,0.468
43.24,31458.2,32548.6,-0.7569,-3.0046,138.0,98.3,0.468
43.26,33055.8,33034.6,1.4844,-2.4075,138.0,98.3,0.468
43.28,30955.3,36271.1,-1.4624,1.5693,138.0,98.3,0.468
43.3,31369.2,36269.8,-0.8818,1.5678,138.0,98.3,0.468
43.32,30183.2,32476.3,-2.5457,-3.0936,138.0,98.3,0.468
43.34,33581.5,36913.1,2.2219,2.3582,138.0,98.3,0.468
43.36,32515.2,36926.0,0.7259,2.3741,138.0,98.3,0.468
43.38,33668.3,38131.6,2.3437,3.8555,138.0,98.3,0.468
43.4,30643.4,35504.8,-1.9,0.6278,138.0,98.3,0.468
43.42,33415.4,35734.8,1.9888,0.9104,138.0,98.3,0.468
43.44,32630.6,35115.3,0.8879,0.1492,138.0,98.3,0.468
43.46,31315.6,33776.8,-0.957,-1.4955,138.0,98.3,0.468
43.48,32657.0,33840.0,0.9249,-1.4178,138.0,98.3,0.468
43.5,32884.9,35768.9,1.2446,0.9523,138.0,98.3,0.468
43.52,31576.1,32606.4,-0.5915,-2.9337,138.0,98.3,0.468
43.54,30208.2,33418.7,-2.5105,-1.9356,138.0,98.3,0.468
43.56,33740.0,38386.8,2.4443,4.1691,138.0,98.3,0.468
43.58,34278.1,33901.1,3.1992,-1.3428,138.0,98.3,0.468
43.6,32181.1,38538.8,0.2573,4.3559,138.0,98.3,0.468
43.62,30781.0,37124.0,-1.7069,2.6173,138.0,98.3,0.468
43.64,28346.2,35878.2,-5.1228,1.0865,138.0,98.3,0.468
43.66,30904.3,33438.5,-1.5339,-1.9112,138.0,98.3,0.468
43.68,30550.4,35810.7,-2.0304,1.0037,138.0,98.3,0.468
43.7,32081.6,36180.0,0.1176,1.4575,138.0,98.3,0.468
43.72,32643.5,35365.5,0.906,0.4565,138.0,98.3,0.468
43.74,32005.5,35287.5,0.0109,0.3608,138.0,98.3,0.468
43.76,31593.7,36401.7,-0.5667,1.7298,138.0,98.3,0.468
43.78,32937.6,32790.0,1.3186,-2.7081,138.0,98.3,0.468
43.8,30707.4,34748.5,-1.8102,-0.3015,138.0,98.3,0.468
43.82,32123.8,36145.8,0.1769,1.4154,138.0,98.3,0.468
43.84,31884.6,31451.9,-0.1587,-4.3523,138.0,98.3,0.468
43.86,28195.0,31185.9,-5.3349,-4.6791,138.0,98.3,0.468
43.88,34569.3,37511.7,3.6076,3.0937,138.0,98.3,0.468
43.9,32367.0,34473.3,0.5181,-0.6397,138.0,98.3,0.468
43.92,33976.3,33802.8,2.7758,-1.4636,138.0,98.3,0.468
43.94,32323.1,33585.8,0.4565,-1.7302,138.0,98.3,0.468
43.96,32590.6,37191.8,0.8318,2.7007,138.0,98.3,0.468
43.98,32260.1,34970.6,0.3682,-0.0287,138.0,98.3,0.468
44.0,29413.1,40394.2,-3.626,6.6357,138.0,98.3,0.468
44.02,32177.7,35592.4,0.2526,0.7354,138.0,98.3,0.468
44.04,32519.7,37661.9,0.7323,3.2783,138.0,98.3,0.468
44.06,31557.2,30662.3,-0.618,-5.3226,138.0,98.3,0.468
44.08,30791.6,33520.9,-1.692,-1.81,138.0,98.3,0.468
44.1,33908.5,37241.6,2.6806,2.7619,138.0,98.3,0.468
44.12,31365.6,35875.9,-0.8869,1.0838,138.0,98.3,0.468
44.14,35282.1,32018.5,4.6076,-3.656,138.0,98.3,0.468
44.16,29142.0,33492.4,-4.0062,-1.8449,138.0,98.3,0.468
44.18,31258.9,35231.6,-1.0365,0.2921,138.0,98.3,0.468
44.2,31080.0,34640.3,-1.2875,-0.4344,138.0,98.3,0.468
44.22,32163.4,32597.8,0.2324,-2.9443,138.0,98.3,0.468
44.24,33785.6,33710.1,2.5082,-1.5775,138.0,98.3,0.468
44.26,33046.6,32274.1,1.4715,-3.342,138.0,98.3,0.468
44.28,28071.7,33184.4,-5.5078,-2.2234,138.0,98.3,0.468
44.3,32459.5,36330.1,0.6479,1.6419,138.0,98.3,0.468
44.32,32210.3,33996.4,0.2982,-1.2257,138.0,98.3,0.468
44.34,31532.7,37917.6,-0.6523,3.5925,138.0,98.3,0.468
44.36,32216.4,33847.4,0.3068,-1.4087,138.0,98.3,0.468
44.38,30926.0,36142.9,-1.5035,1.4118,138.0,98.3,0.468
44.4,29105.1,33521.1,-4.0581,-1.8098,138.0,98.3,0.468
44.42,31131.7,32249.6,-1.2149,-3.3721,138.0,98.3,0.468
44.44,32453.5,37278.3,0.6394,2.807,138.0,98.3,0.468
44.46,32699.3,33485.8,0.9843,-1.8531,138.0,98.3,0.468
44.48,32806.2,36410.2,1.1342,1.7403,138.0,98.3,0.468
44.5,30693.0,37172.3,-1.8304,2.6767,138.0,98.3,0.468
44.52,31864.2,32289.2,-0.1873,-3.3234,138.0,98.3,0.468
44.54,30132.6,33686.5,-2.6166,-1.6064,138.0,98.3,0.468
44.56,31675.1,34819.9,-0.4526,-0.2138,138.0,98.3,0.468
44.58,30067.4,31587.4,-2.7081,-4.1858,138.0,98.3,0.468
44.6,33417.1,36399.2,1.9913,1.7268,138.0,98.3,0.468
44.62,34028.0,34286.8,2.8483,-0.8688,138.0,98.3,0.468
44.64,35703.6,37101.6,5.199,2.5898,138.0,98.3,0.468
44.66,33283.2,35288.7,1.8034,0.3623,138.0,98.3,0.468
44.68,32219.0,34221.9,0.3104,-0.9486,138.0,98.3,0.468
44.7,31108.7,33802.0,-1.2472,-1.4646,138.0,98.3,0.468
44.72,31974.6,31621.2,-0.0325,-4.1443,138.0,98.3,0.468
44.74,30563.4,33422.1,-2.0122,-1.9313,138.0,98.3,0.468
44.76,31099.9,33348.6,-1.2596,-2.0216,138.0,98.3,0.468
44.78,29847.9,35378.2,-3.016,0.4722,138.0,98.3,0.468
44.8,31653.7,37379.0,-0.4826,2.9307,138.0,98.3,0.468
44.82,34943.0,34564.1,4.132,-0.5281,138.0,98.3,0.468
44.84,33576.5,35823.8,2.2149,1.0198,138.0,98.3,0.468
44.86,29049.0,34034.6,-4.1368,-1.1787,138.0,98.3,0.468
44.88,31702.2,34863.7,-0.4146,-0.1599,138.0,98.3,0.468
