timestamp,raw_red,raw_ir,filtered_red,filtered_ir,heart_rate,spo2,ac_dc_ratio
0.0,32022.5,35043.8,0.369,0.5333,137.1,96.6,0.538
0.02,32059.4,35032.1,0.9781,0.3928,137.1,96.6,0.538
0.04,32072.6,35129.9,1.1963,1.5689,137.1,96.6,0.538
0.06,32113.5,35195.4,1.8733,2.3568,137.1,96.6,0.538
0.08,32064.9,35086.3,1.0701,1.0442,137.1,96.6,0.538
0.1,32125.3,35032.5,2.0684,0.3977,137.1,96.6,0.538
0.12,31980.2,35034.3,-0.3307,0.4194,137.1,96.6,0.538
0.14,32045.1,34903.3,0.7419,-1.1547,137.1,96.6,0.538
0.16,32077.6,35012.1,1.2795,0.1532,137.1,96.6,0.538
0.18,32044.4,34981.3,0.7307,-0.2173,137.1,96.6,0.538
0.2,31957.8,34988.7,-0.7025,-0.1284,137.1,96.6,0.538
0.22,31993.7,35050.1,-0.1088,0.609,137.1,96.6,0.538
0.24,31992.1,34925.9,-0.1341,-0.8835,137.1,96.6,0.538
0.26,31981.5,34846.3,-0.3091,-1.8408,137.1,96.6,0.538
0.28,31944.3,34888.7,-0.9247,-1.3303,137.1,96.6,0.538
0.3,32028.3,34911.7,0.4646,-1.0549,137.1,96.6,0.538
0.32,31928.2,35018.2,-1.1921,0.2263,137.1,96.6,0.538
0.34,31992.4,34921.5,-0.1289,-0.9364,137.1,96.6,0.538
0.36,31995.2,34963.4,-0.084,-0.4331,137.1,96.6,0.538
0.38,32018.5,34911.9,0.3015,-1.0525,137.1,96.6,0.538
0.4,31954.7,35007.7,-0.7536,0.0994,137.1,96.6,0.538
0.42,32014.2,34834.7,0.2306,-1.9804,137.1,96.6,0.538
0.44,31988.6,34966.5,-0.1918,-0.3958,137.1,96.6,0.538
0.46,32044.4,35045.8,0.7308,0.5584,137.1,96.6,0.538
0.48,32023.5,35052.8,0.3852,0.6417,137.1,96.6,0.538
0.5,32079.2,35096.9,1.306,1.1721,137.1,96.6,0.538
0.52,32063.4,35061.7,1.0454,0.7494,137.1,96.6,0.538
0.54,31922.5,35031.5,-1.2864,0.3854,137.1,96.6,0.538
0.56,31864.4,35112.0,-2.2461,1.3534,137.1,96.6,0.538
0.58,31937.8,34988.5,-1.0321,-0.1304,137.1,96.6,0.538
0.6,32019.8,35110.0,0.3229,1.3293,137.1,96.6,0.538
0.62,32088.4,35004.7,1.4585,0.0643,137.1,96.6,0.538
0.64,32023.4,34910.0,0.3826,-1.0743,137.1,96.6,0.538
0.66,31953.9,35000.4,-0.766,0.0117,137.1,96.6,0.538
0.68,31906.9,35043.4,-1.543,0.5286,137.1,96.6,0.538
0.7,31960.7,34928.2,-0.6544,-0.8557,137.1,96.6,0.538
0.72,31895.0,34980.9,-1.7409,-0.2225,137.1,96.6,0.538
0.74,31951.9,34889.9,-0.7999,-1.3167,137.1,96.6,0.538
0.76,32029.2,34988.2,0.4797,-0.1347,137.1,96.6,0.538
0.78,31992.6,34883.5,-0.1255,-1.3939,137.1,96.6,0.538
0.8,31894.8,34862.3,-1.7435,-1.6484,137.1,96.6,0.538
0.82,32022.4,34928.8,0.3674,-0.8486,137.1,96.6,0.538
0.84,31949.3,34971.9,-0.8423,-0.3303,137.1,96.6,0.538
0.86,31994.5,34987.9,-0.0948,-0.1387,137.1,96.6,0.538
0.88,31992.6,34950.9,-0.127,-0.5836,137.1,96.6,0.538
0.9,32060.5,34977.0,0.9973,-0.2692,137.1,96.6,0.538
0.92,32112.5,35186.4,1.8567,2.2485,137.1,96.6,0.538
0.94,32074.2,35044.2,1.2234,0.5391,137.1,96.6,0.538
0.96,32008.3,35140.2,0.1343,1.6928,137.1,96.6,0.538
0.98,31880.0,35043.2,-1.9884,0.5268,137.1,96.6,0.538
1.0,32033.2,35023.1,0.5446,0.2847,137.1,96.6,0.538
1.02,31961.2,35026.1,-0.646,0.321,137.1,96.6,0.538
1.04,31920.2,35023.0,-1.323,0.2837,137.1,96.6,0.538
1.06,31999.0,35010.2,-0.0203,0.1302,137.1,96.6,0.538
1.08,31890.5,34978.6,-1.8156,-0.2505,137.1,96.6,0.538
1.1,31917.8,34972.9,-1.3642,-0.3184,137.1,96.6,0.538
1.12,31965.8,35056.8,-0.57,0.6902,137.1,96.6,0.538
1.14,31891.0,34949.4,-1.8071,-0.6012,137.1,96.6,0.538
1.16,31986.7,34942.1,-0.2243,-0.6893,137.1,96.6,0.538
1.18,31942.0,34969.9,-0.964,-0.3543,137.1,96.6,0.538
1.2,31949.2,34959.1,-0.844,-0.4841,137.1,96.6,0.538
1.22,31916.3,34993.3,-1.3884,-0.0728,137.1,96.6,0.538
1.24,31924.2,34974.5,-1.2581,-0.2998,137.1,96.6,0.538
1.26,31894.8,34866.0,-1.7438,-1.6041,137.1,96.6,0.538
1.28,31942.5,34977.5,-0.9545,-0.2634,137.1,96.6,0.538
1.3,32083.9,34957.6,1.3845,-0.5029,137.1,96.6,0.538
1.32,32024.1,35044.4,0.3952,0.5413,137.1,96.6,0.538
1.34,32019.7,35129.9,0.3222,1.5691,137.1,96.6,0.538
1.36,31987.4,35159.4,-0.212,1.9236,137.1,96.6,0.538
1.38,32090.6,35096.9,1.4943,1.1727,137.1,96.6,0.538
1.4,32024.3,35054.2,0.3973,0.6586,137.1,96.6,0.538
1.42,32056.6,35129.5,0.9317,1.5647,137.1,96.6,0.538
1.44,31952.3,35007.9,-0.7933,0.1025,137.1,96.6,0.538
1.46,32083.0,35020.4,1.3689,0.2525,137.1,96.6,0.538
1.48,31991.5,35057.7,-0.1445,0.7008,137.1,96.6,0.538
1.5,31939.5,35005.1,-1.0052,0.0689,137.1,96.6,0.538
1.52,31963.5,35057.0,-0.6077,0.6926,137.1,96.6,0.538
1.54,31942.6,34904.3,-0.9525,-1.1438,137.1,96.6,0.538
1.56,31972.3,34857.8,-0.462,-1.7026,137.1,96.6,0.538
1.58,31910.1,34902.5,-1.4913,-1.1646,137.1,96.6,0.538
1.6,31921.8,35014.6,-1.2978,0.1833,137.1,96.6,0.538
1.62,31946.9,34926.4,-0.8827,-0.8779,137.1,96.6,0.538
1.64,32029.5,34917.4,0.4838,-0.9852,137.1,96.6,0.538
1.66,32081.9,34836.0,1.3505,-1.9642,137.1,96.6,0.538
1.68,31962.8,34905.6,-0.6192,-1.1277,137.1,96.6,0.538
1.7,31923.7,34996.3,-1.2661,-0.0373,137.1,96.6,0.538
1.72,32016.9,34973.8,0.2758,-0.3081,137.1,96.6,0.538
1.74,32000.0,34981.2,-0.0039,-0.2189,137.1,96.6,0.538
1.76,32017.1,35040.4,0.279,0.4931,137.1,96.6,0.538
1.78,32075.7,35111.6,1.2486,1.3489,137.1,96.6,0.538
1.8,32019.0,35087.9,0.3105,1.0643,137.1,96.6,0.538
1.82,32132.9,35069.3,2.1952,0.84,137.1,96.6,0.538
1.84,32101.5,35216.8,1.6755,2.6135,137.1,96.6,0.538
1.86,31973.9,35139.6,-0.4353,1.686,137.1,96.6,0.538
1.88,32011.3,35018.6,0.1826,0.2312,137.1,96.6,0.538
1.9,31994.5,34998.4,-0.0943,-0.0115,137.1,96.6,0.538
1.92,31970.2,35012.5,-0.4964,0.1579,137.1,96.6,0.538
1.94,32011.4,34952.7,0.1856,-0.5616,137.1,96.6,0.538
1.96,32009.1,35021.0,0.147,0.2599,137.1,96.6,0.538
1.98,31995.7,34907.6,-0.0751,-1.1039,137.1,96.6,0.538
2.0,31929.3,35069.9,-1.1726,0.848,137.1,96.6,0.538
2.02,32012.8,35028.9,0.2074,0.3544,137.1,96.6,0.538
2.04,31985.2,34942.9,-0.2488,-0.6796,137.1,96.6,0.538
2.06,31979.0,34957.4,-0.3507,-0.5047,137.1,96.6,0.538
2.08,32061.0,34925.6,1.0059,-0.8867,137.1,96.6,0.538
2.1,31949.4,34927.8,-0.8406,-0.8602,137.1,96.6,0.538
2.12,31956.3,34863.0,-0.7261,-1.6397,137.1,96.6,0.538
2.14,31975.0,34944.0,-0.4169,-0.6655,137.1,96.6,0.538
2.16,32028.9,34847.5,0.4741,-1.8267,137.1,96.6,0.538
2.18,31997.3,34975.5,-0.0492,-0.2871,137.1,96.6,0.538
2.2,31983.7,34974.6,-0.2734,-0.2983,137.1,96.6,0.538
2.22,32051.9,35184.6,0.8554,2.2265,137.1,96.6,0.538
2.24,32032.8,35139.4,0.5385,1.6836,137.1,96.6,0.538
2.26,32035.6,35059.5,0.5848,0.7222,137.1,96.6,0.538
2.28,32016.7,35042.5,0.272,0.5179,137.1,96.6,0.538
2.3,32047.2,35104.3,0.7766,1.2617,137.1,96.6,0.538
2.32,31949.9,35019.3,-0.8331,0.2393,137.1,96.6,0.538
2.34,31960.9,35028.1,-0.6511,0.3448,137.1,96.6,0.538
2.36,31992.9,35047.3,-0.122,0.5757,137.1,96.6,0.538
2.38,32057.1,34924.7,0.9408,-0.8984,137.1,96.6,0.538
2.4,31964.4,34914.0,-0.5925,-1.0264,137.1,96.6,0.538
2.42,31927.1,35007.3,-1.2099,0.095,137.1,96.6,0.538
2.44,32011.5,34943.2,0.1863,-0.6756,137.1,96.6,0.538
2.46,31949.9,34995.5,-0.8326,-0.0471,137.1,96.6,0.538
2.48,31958.5,34937.2,-0.6897,-0.7481,137.1,96.6,0.538
2.5,31952.7,34903.7,-0.7856,-1.1508,137.1,96.6,0.538
2.52,32033.1,34955.4,0.5437,-0.5284,137.1,96.6,0.538
2.54,31825.2,34876.7,-2.8944,-1.4752,137.1,96.6,0.538
2.56,31981.5,34913.9,-0.31,-1.0279,137.1,96.6,0.538
2.58,31952.2,34946.3,-0.7938,-0.6387,137.1,96.6,0.538
2.6,32006.8,34897.8,0.108,-1.2215,137.1,96.6,0.538
2.62,32014.3,34920.2,0.2327,-0.9522,137.1,96.6,0.538
2.64,31998.1,35082.7,-0.0358,1.001,137.1,96.6,0.538
2.66,32007.8,35126.0,0.1255,1.5224,137.1,96.6,0.538
2.68,32107.5,35139.0,1.7744,1.6789,137.1,96.6,0.538
2.7,32139.0,35088.7,2.2956,1.0741,137.1,96.6,0.538
2.72,32046.3,35030.5,0.7618,0.3746,137.1,96.6,0.538
2.74,32046.5,35059.5,0.7658,0.7228,137.1,96.6,0.538
2.76,32111.0,35154.5,1.8317,1.865,137.1,96.6,0.538
2.78,31997.2,35051.3,-0.0506,0.6239,137.1,96.6,0.538
2.8,31975.1,35107.2,-0.4152,1.2966,137.1,96.6,0.538
2.82,32064.7,34940.3,1.0668,-0.7101,137.1,96.6,0.538
2.84,32011.6,34979.9,0.188,-0.2341,137.1,96.6,0.538
2.86,32016.4,35013.3,0.2677,0.1671,137.1,96.6,0.538
2.88,32015.5,34969.3,0.2534,-0.3617,137.1,96.6,0.538
2.9,31923.2,34904.5,-1.2733,-1.1404,137.1,96.6,0.538
2.92,32021.9,34985.6,0.3585,-0.1653,137.1,96.6,0.538
2.94,31905.3,34963.4,-1.5698,-0.4329,137.1,96.6,0.538
2.96,31917.3,34940.7,-1.3709,-0.7058,137.1,96.6,0.538
2.98,31969.9,34884.1,-0.5016,-1.3858,137.1,96.6,0.538
3.0,31974.0,34894.9,-0.4339,-1.2563,137.1,96.6,0.538
3.02,32021.5,34977.0,0.3518,-0.2687,137.1,96.6,0.538
3.04,32064.2,34899.1,1.0576,-1.2056,137.1,96.6,0.538
3.06,32063.0,34970.6,1.0375,-0.3467,137.1,96.6,0.538
3.08,32140.2,35154.5,2.3159,1.8647,137.1,96.6,0.538
3.1,32085.3,35090.0,1.4069,1.0893,137.1,96.6,0.538
3.12,32053.6,35099.3,0.882,1.2012,137.1,96.6,0.538
3.14,32087.0,35142.0,1.4358,1.7141,137.1,96.6,0.538
3.16,32041.5,35141.6,0.6829,1.7093,137.1,96.6,0.538
3.18,32011.1,35070.1,0.1804,0.8504,137.1,96.6,0.538
3.2,32084.8,34987.9,1.3996,-0.1377,137.1,96.6,0.538
3.22,31993.0,34974.4,-0.1196,-0.3004,137.1,96.6,0.538
3.24,31998.6,34956.4,-0.0262,-0.5171,137.1,96.6,0.538
3.26,31980.0,35034.7,-0.3344,0.4242,137.1,96.6,0.538
3.28,31960.5,35018.9,-0.658,0.2343,137.1,96.6,0.538
3.3,31941.1,34967.6,-0.9775,-0.3828,137.1,96.6,0.538
3.32,31970.8,34986.4,-0.4871,-0.1568,137.1,96.6,0.538
3.34,32005.7,34978.9,0.0899,-0.2459,137.1,96.6,0.538
3.36,31970.9,34937.6,-0.4854,-0.7432,137.1,96.6,0.538
3.38,31965.4,34918.9,-0.5754,-0.9682,137.1,96.6,0.538
3.4,31867.1,34932.8,-2.2025,-0.8011,137.1,96.6,0.538
3.42,31930.8,34947.4,-1.1489,-0.6252,137.1,96.6,0.538
3.44,31997.9,34898.6,-0.0378,-1.2112,137.1,96.6,0.538
3.46,31833.9,34924.5,-2.7508,-0.9004,137.1,96.6,0.538
3.48,32031.0,34959.9,0.5092,-0.4749,137.1,96.6,0.538
3.5,32038.6,35017.1,0.6348,0.2128,137.1,96.6,0.538
3.52,32011.9,35156.8,0.1927,1.8929,137.1,96.6,0.538
3.54,32031.8,35130.8,0.5221,1.5804,137.1,96.6,0.538
3.56,32105.9,35121.0,1.7475,1.4615,137.1,96.6,0.538
3.58,32046.5,35140.9,0.7653,1.7012,137.1,96.6,0.538
3.6,31971.3,35071.4,-0.478,0.866,137.1,96.6,0.538
3.62,32032.3,35120.3,0.5305,1.453,137.1,96.6,0.538
3.64,32105.9,35063.0,1.7473,0.7643,137.1,96.6,0.538
3.66,32088.8,35029.5,1.4655,0.3617,137.1,96.6,0.538
3.68,32025.0,35011.5,0.4095,0.1453,137.1,96.6,0.538
3.7,31974.4,35066.3,-0.4278,0.8048,137.1,96.6,0.538
3.72,31979.8,34900.9,-0.3378,-1.1839,137.1,96.6,0.538
3.74,31945.8,34906.9,-0.9003,-1.1121,137.1,96.6,0.538
3.76,31910.9,34809.8,-1.4772,-2.28,137.1,96.6,0.538
3.78,32004.8,34893.2,0.0753,-1.2766,137.1,96.6,0.538
3.8,32011.2,34868.6,0.1823,-1.5722,137.1,96.6,0.538
3.82,32045.5,34862.6,0.7491,-1.645,137.1,96.6,0.538
3.84,31958.6,34885.7,-0.688,-1.3674,137.1,96.6,0.538
3.86,32042.5,34938.9,0.6993,-0.7278,137.1,96.6,0.538
3.88,31963.1,34977.7,-0.6144,-0.2609,137.1,96.6,0.538
3.9,31947.1,34993.2,-0.8784,-0.0743,137.1,96.6,0.538
3.92,31994.0,34932.8,-0.1025,-0.8005,137.1,96.6,0.538
3.94,32023.5,35034.5,0.3854,0.4223,137.1,96.6,0.538
3.96,32121.5,35121.7,2.0062,1.4706,137.1,96.6,0.538
3.98,31990.1,35084.2,-0.1677,1.0195,137.1,96.6,0.538
4.0,32050.0,35107.9,0.8233,1.3049,137.1,96.6,0.538
4.02,32076.4,35113.7,1.2604,1.3741,137.1,96.6,0.538
4.04,32116.6,35009.2,1.9251,0.1173,137.1,96.6,0.538
4.06,31975.6,34948.6,-0.407,-0.6103,137.1,96.6,0.538
4.08,31946.8,35143.3,-0.8844,1.7297,137.1,96.6,0.538
4.1,31994.4,34991.7,-0.0962,-0.0927,137.1,96.6,0.538
4.12,31927.1,34990.7,-1.2098,-0.1043,137.1,96.6,0.538
4.14,31948.8,34938.2,-0.8504,-0.736,137.1,96.6,0.538
4.16,32032.3,34912.2,0.5311,-1.0483,137.1,96.6,0.538
4.18,31959.6,34921.8,-0.672,-0.933,137.1,96.6,0.538
4.2,32114.5,34913.7,1.8896,-1.0303,137.1,96.6,0.538
4.22,32015.6,34928.7,0.2535,-0.8497,137.1,96.6,0.538
4.24,31923.7,34931.5,-1.2652,-0.8168,137.1,96.6,0.538
4.26,31941.8,34849.8,-0.9661,-1.7981,137.1,96.6,0.538
4.28,31931.2,34953.3,-1.1418,-0.5543,137.1,96.6,0.538
4.3,31879.8,34946.0,-1.9912,-0.6418,137.1,96.6,0.538
4.32,31911.9,34996.4,-1.4608,-0.036,137.1,96.6,0.538
4.34,31940.2,34924.9,-0.9931,-0.8954,137.1,96.6,0.538
4.36,32001.4,35012.8,0.0198,0.1608,137.1,96.6,0.538
4.38,31948.7,34991.3,-0.8528,-0.0978,137.1,96.6,0.538
4.4,31953.6,35050.7,-0.7711,0.6167,137.1,96.6,0.538
4.42,32000.0,35151.2,-0.0041,1.8254,137.1,96.6,0.538
4.44,32065.0,35113.5,1.0715,1.3718,137.1,96.6,0.538
4.46,32090.5,35107.8,1.4936,1.3031,137.1,96.6,0.538
4.48,32051.1,35079.2,0.8409,0.9591,137.1,96.6,0.538
4.5,31965.3,35039.0,-0.5779,0.476,137.1,96.6,0.538
4.52,32061.9,35012.3,1.0207,0.155,137.1,96.6,0.538
4.54,31988.4,35095.5,-0.1963,1.1554,137.1,96.6,0.538
4.56,32072.8,35020.6,1.2009,0.255,137.1,96.6,0.538
4.58,31943.3,34988.6,-0.9422,-0.1302,137.1,96.6,0.538
4.6,32079.0,35008.3,1.3022,0.1069,137.1,96.6,0.538
4.62,32025.2,35009.9,0.4131,0.1267,137.1,96.6,0.538
4.64,31974.4,34979.8,-0.4271,-0.2351,137.1,96.6,0.538
4.66,31922.5,34854.5,-1.2858,-1.742,137.1,96.6,0.538
4.68,31975.9,35049.1,-0.4017,0.5974,137.1,96.6,0.538
4.7,31944.6,34915.2,-0.9208,-1.0121,137.1,96.6,0.538
4.72,31908.7,34918.9,-1.514,-0.9672,137.1,96.6,0.538
4.74,31950.1,34953.8,-0.83,-0.5485,137.1,96.6,0.538
4.76,31918.9,34782.3,-1.3453,-2.6101,137.1,96.6,0.538
4.78,32062.3,35042.9,1.0262,0.5233,137.1,96.6,0.538
4.8,32031.0,34982.8,0.5092,-0.1996,137.1,96.6,0.538
4.82,32098.0,35076.0,1.6171,0.9211,137.1,96.6,0.538
4.84,32070.1,35134.7,1.1554,1.627,137.1,96.6,0.538
4.86,32131.7,35135.0,2.1744,1.6308,137.1,96.6,0.538
4.88,32107.0,35039.9,1.7654,0.4865,137.1,96.6,0.538
4.9,32157.0,35001.1,2.5922,0.0202,137.1,96.6,0.538
4.92,31983.6,35031.6,-0.2749,0.387,137.1,96.6,0.538
4.94,32035.0,34973.4,0.5753,-0.313,137.1,96.6,0.538
4.96,31986.8,35007.6,-0.2214,0.0987,137.1,96.6,0.538
4.98,31973.0,34947.1,-0.4504,-0.6289,137.1,96.6,0.538
5.0,31975.5,35041.0,-0.4096,0.5005,137.1,96.6,0.538
5.02,31998.6,35044.0,-0.0267,0.5361,137.1,96.6,0.538
5.04,31947.8,35024.2,-0.8665,0.2981,137.1,96.6,0.538
5.06,31958.5,34946.3,-0.6909,-0.6379,137.1,96.6,0.538
5.08,32030.4,34994.0,0.4996,-0.065,137.1,96.6,0.538
5.1,31953.5,34873.0,-0.7737,-1.5201,137.1,96.6,0.538
5.12,32003.1,34963.6,0.0466,-0.4307,137.1,96.6,0.538
5.14,32035.7,34870.6,0.5859,-1.5483,137.1,96.6,0.538
5.16,31939.4,34945.7,-1.006,-0.6458,137.1,96.6,0.538
5.18,32001.0,34931.4,0.0123,-0.817,137.1,96.6,0.538
5.2,32042.7,34929.5,0.7028,-0.8405,137.1,96.6,0.538
5.22,32020.2,34945.3,0.3303,-0.6508,137.1,96.6,0.538
5.24,32026.4,35032.9,0.433,0.4029,137.1,96.6,0.538
5.26,32094.4,35033.4,1.5578,0.4088,137.1,96.6,0.538
5.28,31968.5,35057.8,-0.5246,0.702,137.1,96.6,0.538
5.3,32035.0,35152.5,0.5746,1.841,137.1,96.6,0.538
5.32,32072.0,35067.4,1.1867,0.8171,137.1,96.6,0.538
5.34,31982.3,35123.6,-0.2962,1.4935,137.1,96.6,0.538
5.36,32003.2,35095.0,0.0487,1.1492,137.1,96.6,0.538
5.38,32014.8,34994.7,0.2406,-0.0559,137.1,96.6,0.538
5.4,31901.3,35082.0,-1.6363,0.9929,137.1,96.6,0.538
5.42,31910.1,34974.2,-1.4901,-0.3032,137.1,96.6,0.538
5.44,31988.1,34877.4,-0.2005,-1.4668,137.1,96.6,0.538
5.46,32019.6,35002.1,0.3204,0.0323,137.1,96.6,0.538
5.48,31996.3,34900.5,-0.0648,-1.1893,137.1,96.6,0.538
5.5,31915.0,34867.3,-1.4099,-1.5879,137.1,96.6,0.538
5.52,31974.0,35009.0,-0.4339,0.116,137.1,96.6,0.538
5.54,32009.4,34929.2,0.1517,-0.8445,137.1,96.6,0.538
5.56,31968.0,34892.5,-0.5324,-1.2846,137.1,96.6,0.538
5.58,31945.9,34945.1,-0.8992,-0.6531,137.1,96.6,0.538
5.6,31875.5,34938.9,-2.0629,-0.7277,137.1,96.6,0.538
5.62,31953.5,34952.2,-0.7737,-0.5678,137.1,96.6,0.538
5.64,31939.0,34981.2,-1.0136,-0.2183,137.1,96.6,0.538
5.66,31943.1,34929.3,-0.9454,-0.843,137.1,96.6,0.538
5.68,31987.1,34956.8,-0.218,-0.5121,137.1,96.6,0.538
5.7,32087.3,35083.1,1.4408,1.0063,137.1,96.6,0.538
5.72,32054.4,35057.9,0.8967,0.7032,137.1,96.6,0.538
5.74,32057.1,35034.6,0.941,0.4229,137.1,96.6,0.538
5.76,32062.3,35117.3,1.0266,1.4174,137.1,96.6,0.538
5.78,31949.9,35073.9,-0.8322,0.8957,137.1,96.6,0.538
5.8,31993.9,35098.5,-0.1046,1.1916,137.1,96.6,0.538
5.82,32029.3,35084.6,0.4805,1.0249,137.1,96.6,0.538
5.84,32099.6,34877.7,1.6435,-1.4627,137.1,96.6,0.538
5.86,32078.8,34971.2,1.2994,-0.3393,137.1,96.6,0.538
5.88,32050.8,35001.8,0.8366,0.0289,137.1,96.6,0.538
5.9,31949.9,35081.5,-0.8328,0.9868,137.1,96.6,0.538
5.92,31998.8,34900.9,-0.0238,-1.1842,137.1,96.6,0.538
5.94,31990.1,34921.1,-0.1678,-0.9415,137.1,96.6,0.538
5.96,31945.8,35075.1,-0.9004,0.9101,137.1,96.6,0.538
5.98,31941.0,34955.7,-0.9791,-0.5255,137.1,96.6,0.538
6.0,31992.3,34853.4,-0.1319,-1.7554,137.1,96.6,0.538
6.02,31966.7,34905.6,-0.555,-1.1276,137.1,96.6,0.538
6.04,31881.8,34847.0,-1.9591,-1.8326,137.1,96.6,0.538
6.06,32008.9,34941.9,0.1429,-0.6914,137.1,96.6,0.538
6.08,32039.3,34923.2,0.6457,-0.9159,137.1,96.6,0.538
6.1,31995.7,35061.2,-0.0743,0.7427,137.1,96.6,0.538
6.12,31941.2,34993.5,-0.9767,-0.0705,137.1,96.6,0.538
6.14,32004.0,35061.0,0.0629,0.7407,137.1,96.6,0.538
6.16,32057.3,35044.3,0.9434,0.5403,137.1,96.6,0.538
6.18,32014.4,35076.2,0.2348,0.9235,137.1,96.6,0.538
6.2,31993.8,35079.9,-0.106,0.9679,137.1,96.6,0.538
6.22,32014.3,35072.1,0.2332,0.8735,137.1,96.6,0.538
6.24,32039.7,34989.0,0.6521,-0.1251,137.1,96.6,0.538
6.26,32082.6,35110.4,1.3625,1.3346,137.1,96.6,0.538
6.28,32040.6,35029.4,0.6675,0.3606,137.1,96.6,0.538
6.3,32047.5,34930.5,0.7819,-0.8278,137.1,96.6,0.538
6.32,31957.1,35039.7,-0.7137,0.4848,137.1,96.6,0.538
6.34,32046.2,35038.7,0.7598,0.473,137.1,96.6,0.538
6.36,31957.1,35020.4,-0.714,0.2523,137.1,96.6,0.538
6.38,31925.5,34938.9,-1.2356,-0.7279,137.1,96.6,0.538
6.4,31950.5,34989.7,-0.8225,-0.1162,137.1,96.6,0.538
6.42,31903.8,34986.3,-1.5951,-0.1575,137.1,96.6,0.538
6.44,31932.9,34923.4,-1.1141,-0.9132,137.1,96.6,0.538
6.46,31902.1,34795.4,-1.6224,-2.4519,137.1,96.6,0.538
6.48,31875.3,35009.5,-2.0672,0.1217,137.1,96.6,0.538
6.5,31865.3,34850.8,-2.2315,-1.7869,137.1,96.6,0.538
6.52,31934.5,34921.1,-1.0865,-0.9419,137.1,96.6,0.538
6.54,31891.3,34902.4,-1.801,-1.1659,137.1,96.6,0.538
6.56,31954.8,35023.7,-0.7513,0.2919,137.1,96.6,0.538
6.58,32039.7,35171.1,0.6533,2.0645,137.1,96.6,0.538
6.6,32045.5,35129.8,0.7491,1.5674,137.1,96.6,0.538
6.62,32133.6,35121.9,2.2057,1.4723,137.1,96.6,0.538
6.64,32024.6,35088.2,0.4038,1.0673,137.1,96.6,0.538
6.66,32047.6,35041.7,0.7839,0.5089,137.1,96.6,0.538
6.68,32014.0,35064.9,0.2278,0.7871,137.1,96.6,0.538
6.7,31981.8,35052.2,-0.3053,0.6346,137.1,96.6,0.538
6.72,31973.7,35073.4,-0.4386,0.89,137.1,96.6,0.538
6.74,32045.5,35025.2,0.748,0.3101,137.1,96.6,0.538
6.76,32023.0,35060.6,0.3764,0.7355,137.1,96.6,0.538
6.78,31902.9,34996.4,-1.6103,-0.0356,137.1,96.6,0.538
6.8,32014.1,34887.1,0.229,-1.3504,137.1,96.6,0.538
6.82,31939.1,34932.3,-1.0106,-0.8064,137.1,96.6,0.538
6.84,31924.4,34975.6,-1.2542,-0.2864,137.1,96.6,0.538
6.86,31925.3,34937.1,-1.2395,-0.7492,137.1,96.6,0.538
6.88,32043.5,34882.7,0.716,-1.4031,137.1,96.6,0.538
6.9,31994.1,34852.2,-0.1017,-1.7698,137.1,96.6,0.538
6.92,31962.0,34929.2,-0.6327,-0.8434,137.1,96.6,0.538
6.94,32002.6,34855.7,0.0394,-1.7274,137.1,96.6,0.538
6.96,31923.7,34906.5,-1.265,-1.1163,137.1,96.6,0.538
6.98,31963.0,34988.4,-0.6165,-0.1318,137.1,96.6,0.538
7.0,32007.2,35068.4,0.1157,0.8295,137.1,96.6,0.538
7.02,31992.0,35073.0,-0.136,0.8851,137.1,96.6,0.538
7.04,32069.8,35166.8,1.1515,2.0128,137.1,96.6,0.538
7.06,32091.5,35088.7,1.5091,1.0741,137.1,96.6,0.538
7.08,32046.4,35074.0,0.764,0.8965,137.1,96.6,0.538
7.1,32023.8,35069.7,0.3899,0.8452,137.1,96.6,0.538
7.12,32091.6,35082.3,1.5107,0.9973,137.1,96.6,0.538
7.14,32061.4,35068.0,1.0124,0.8251,137.1,96.6,0.538
7.16,31965.3,35044.9,-0.5773,0.5466,137.1,96.6,0.538
7.18,31888.5,35034.6,-1.8488,0.4234,137.1,96.6,0.538
7.2,31972.0,34890.0,-0.4665,-1.3153,137.1,96.6,0.538
7.22,31989.5,35002.0,-0.1772,0.0319,137.1,96.6,0.538
7.24,31981.6,35008.4,-0.3081,0.1085,137.1,96.6,0.538
7.26,32049.4,34896.7,0.8138,-1.2347,137.1,96.6,0.538
7.28,31884.2,34879.8,-1.9188,-1.4384,137.1,96.6,0.538
7.3,32017.8,34945.4,0.2906,-0.6487,137.1,96.6,0.538
7.32,31996.8,34973.0,-0.0563,-0.3168,137.1,96.6,0.538
7.34,31999.9,34892.7,-0.0052,-1.2826,137.1,96.6,0.538
7.36,31957.7,34903.7,-0.704,-1.151,137.1,96.6,0.538
7.38,31985.3,34922.2,-0.247,-0.9283,137.1,96.6,0.538
7.4,31986.8,34924.7,-0.2225,-0.8985,137.1,96.6,0.538
7.42,32019.8,34992.6,0.3238,-0.0821,137.1,96.6,0.538
7.44,32043.3,35042.0,0.7122,0.5122,137.1,96.6,0.538
7.46,32144.0,35211.3,2.3785,2.5474,137.1,96.6,0.538
7.48,32029.7,35076.7,0.4867,0.9293,137.1,96.6,0.538
7.5,32084.2,35069.5,1.3896,0.8427,137.1,96.6,0.538
7.52,32074.8,35101.9,1.2332,1.2325,137.1,96.6,0.538
7.54,32079.8,35111.2,1.3158,1.3445,137.1,96.6,0.538
7.56,32037.5,35127.2,0.6161,1.5369,137.1,96.6,0.538
7.58,32021.3,35043.6,0.3479,0.531,137.1,96.6,0.538
7.6,32010.4,34972.6,0.1683,-0.3217,137.1,96.6,0.538
7.62,32031.5,34962.3,0.5171,-0.4464,137.1,96.6,0.538
7.64,31882.8,34944.2,-1.9419,-0.6635,137.1,96.6,0.538
7.66,31898.6,34951.2,-1.6814,-0.5794,137.1,96.6,0.538
7.68,31984.6,34944.4,-0.2588,-0.6608,137.1,96.6,0.538
7.7,32058.9,34954.1,0.9696,-0.5444,137.1,96.6,0.538
7.72,31910.1,34976.0,-1.4916,-0.2809,137.1,96.6,0.538
7.74,32036.2,34936.7,0.5947,-0.754,137.1,96.6,0.538
7.76,31999.9,34925.2,-0.0059,-0.8916,137.1,96.6,0.538
7.78,32014.8,34968.6,0.2415,-0.3701,137.1,96.6,0.538
7.8,31943.4,34950.5,-0.94,-0.5877,137.1,96.6,0.538
7.82,31947.8,34914.8,-0.8674,-1.017,137.1,96.6,0.538
7.84,31904.5,34980.4,-1.5834,-0.2287,137.1,96.6,0.538
7.86,32069.8,34926.4,1.1509,-0.8777,137.1,96.6,0.538
7.88,32087.2,35127.6,1.4378,1.5408,137.1,96.6,0.538
7.9,32043.8,35008.1,0.7211,0.105,137.1,96.6,0.538
7.92,31991.4,35092.1,-0.1462,1.1149,137.1,96.6,0.538
7.94,32058.9,35107.9,0.9699,1.3049,137.1,96.6,0.538
7.96,32046.4,35083.5,0.7634,1.0116,137.1,96.6,0.538
7.98,32005.8,35096.6,0.0925,1.1681,137.1,96.6,0.538
8.0,32003.3,34960.2,0.0501,-0.4715,137.1,96.6,0.538
8.02,31993.9,34959.5,-0.1042,-0.4793,137.1,96.6,0.538
8.04,32090.9,35066.5,1.4998,0.8066,137.1,96.6,0.538
8.06,31896.9,35028.5,-1.7086,0.3494,137.1,96.6,0.538
8.08,32032.7,35051.0,0.5376,0.6199,137.1,96.6,0.538
8.1,32012.3,34936.8,0.199,-0.7524,137.1,96.6,0.538
8.12,31968.0,34924.9,-0.5328,-0.896,137.1,96.6,0.538
8.14,31956.0,34955.8,-0.7315,-0.5236,137.1,96.6,0.538
8.16,32013.2,34951.0,0.2152,-0.5817,137.1,96.6,0.538
8.18,31973.2,34903.8,-0.4467,-1.149,137.1,96.6,0.538
8.2,31942.5,35011.6,-0.9546,0.1468,137.1,96.6,0.538
8.22,31919.3,34925.1,-1.3385,-0.8926,137.1,96.6,0.538
8.24,31958.0,34785.4,-0.6992,-2.5731,137.1,96.6,0.538
8.26,31909.4,34911.5,-1.5031,-1.0564,137.1,96.6,0.538
8.28,31983.2,35065.0,-0.2821,0.7885,137.1,96.6,0.538
8.3,31908.6,34991.9,-1.5156,-0.0903,137.1,96.6,0.538
8.32,32085.9,35023.6,1.4163,0.2915,137.1,96.6,0.538
8.34,32053.9,35148.0,0.8878,1.7869,137.1,96.6,0.538
8.36,32014.8,35138.5,0.2412,1.6719,137.1,96.6,0.538
8.38,32002.9,35203.8,0.0441,2.4577,137.1,96.6,0.538
8.4,31981.8,35059.6,-0.3043,0.7243,137.1,96.6,0.538
8.42,32019.3,35037.1,0.3148,0.4533,137.1,96.6,0.538
8.44,32028.5,35128.2,0.4671,1.5487,137.1,96.6,0.538
8.46,31997.5,35042.2,-0.0447,0.5149,137.1,96.6,0.538
8.48,32127.3,34965.4,2.1023,-0.4084,137.1,96.6,0.538
8.5,31940.1,35001.7,-0.9942,0.0283,137.1,96.6,0.538
8.52,32016.6,35107.5,0.2715,1.3001,137.1,96.6,0.538
8.54,32050.8,34997.0,0.8371,-0.0286,137.1,96.6,0.538
8.56,31935.3,34899.7,-1.0733,-1.1986,137.1,96.6,0.538
8.58,31931.8,34877.8,-1.1323,-1.4614,137.1,96.6,0.538
8.6,32013.2,34868.7,0.2151,-1.5719,137.1,96.6,0.538
8.62,32013.5,34933.1,0.2201,-0.797,137.1,96.6,0.538
8.64,31936.8,34887.8,-1.0499,-1.3414,137.1,96.6,0.538
8.66,31970.3,35015.7,-0.4953,0.1965,137.1,96.6,0.538
8.68,31952.4,34843.5,-0.7917,-1.8742,137.1,96.6,0.538
8.7,31972.1,34868.9,-0.4657,-1.5686,137.1,96.6,0.538
8.72,31956.0,35000.8,-0.7315,0.0165,137.1,96.6,0.538
8.74,32049.7,34961.1,0.8179,-0.4602,137.1,96.6,0.538
8.76,32071.1,34943.4,1.173,-0.673,137.1,96.6,0.538
8.78,32067.7,35133.0,1.1154,1.6066,137.1,96.6,0.538
8.8,32098.0,35146.0,1.6177,1.7623,137.1,96.6,0.538
8.82,32075.0,35156.8,1.2368,1.8925,137.1,96.6,0.538
8.84,32103.5,35074.1,1.7076,0.8977,137.1,96.6,0.538
8.86,31962.7,35070.7,-0.6203,0.8573,137.1,96.6,0.538
8.88,31918.4,35043.3,-1.3534,0.5282,137.1,96.6,0.538
8.9,31933.0,35006.2,-1.112,0.082,137.1,96.6,0.538
8.92,31980.9,35010.0,-0.3195,0.1281,137.1,96.6,0.538
8.94,31944.6,34971.9,-0.9197,-0.331,137.1,96.6,0.538
8.96,31943.1,35000.3,-0.9454,0.0115,137.1,96.6,0.538
8.98,32008.7,34910.3,0.1396,-1.071,137.1,96.6,0.538
9.0,31973.5,34901.2,-0.4429,-1.1805,137.1,96.6,0.538
9.02,32042.7,34906.7,0.7026,-1.1143,137.1,96.6,0.538
9.04,31988.2,34926.5,-0.1988,-0.8765,137.1,96.6,0.538
9.06,32047.2,34958.0,0.7769,-0.4977,137.1,96.6,0.538
9.08,31871.0,34909.4,-2.1379,-1.0825,137.1,96.6,0.538
9.1,31870.4,34866.1,-2.1468,-1.6023,137.1,96.6,0.538
9.12,31941.5,34896.5,-0.9722,-1.2369,137.1,96.6,0.538
9.14,31962.3,34914.7,-0.6282,-1.0184,137.1,96.6,0.538
9.16,31942.8,34930.6,-0.95,-0.8269,137.1,96.6,0.538
9.18,31952.0,34977.5,-0.7983,-0.2634,137.1,96.6,0.538
9.2,32036.4,35049.2,0.5977,0.599,137.1,96.6,0.538
9.22,32032.6,35172.8,0.5351,2.0853,137.1,96.6,0.538
9.24,32109.4,35112.0,1.8062,1.3539,137.1,96.6,0.538
9.26,32043.4,35088.8,0.7146,1.0744,137.1,96.6,0.538
9.28,32011.7,35100.3,0.1896,1.2127,137.1,96.6,0.538
9.3,32041.1,35109.3,0.6755,1.3208,137.1,96.6,0.538
9.32,31957.8,34997.7,-0.7016,-0.0198,137.1,96.6,0.538
9.34,31991.9,35007.0,-0.1377,0.0914,137.1,96.6,0.538
9.36,31987.6,35006.3,-0.2083,0.0833,137.1,96.6,0.538
9.38,32059.6,34979.6,0.9812,-0.2378,137.1,96.6,0.538
9.4,31918.0,35036.4,-1.3598,0.445,137.1,96.6,0.538
9.42,31964.5,35056.6,-0.5908,0.6875,137.1,96.6,0.538
9.44,32009.9,34953.4,0.1595,-0.5536,137.1,96.6,0.538
9.46,32007.2,34972.7,0.1155,-0.3206,137.1,96.6,0.538
9.48,31899.7,35042.1,-1.6635,0.5133,137.1,96.6,0.538
9.5,31951.0,34900.7,-0.8145,-1.1868,137.1,96.6,0.538
9.52,31968.4,34878.7,-0.5265,-1.4504,137.1,96.6,0.538
9.54,31943.5,34991.5,-0.9391,-0.0952,137.1,96.6,0.538
9.56,31969.0,34936.3,-0.5171,-0.7583,137.1,96.6,0.538
9.58,32028.8,34978.9,0.4731,-0.2466,137.1,96.6,0.538
9.6,32005.1,34890.2,0.0803,-1.3133,137.1,96.6,0.538
9.62,31996.6,35024.5,-0.0593,0.3024,137.1,96.6,0.538
9.64,32104.6,35069.5,1.7267,0.8434,137.1,96.6,0.538
9.66,32073.6,35025.1,1.2141,0.3095,137.1,96.6,0.538
9.68,32099.9,35045.4,1.6491,0.5529,137.1,96.6,0.538
9.7,32021.6,35100.5,0.3535,1.2158,137.1,96.6,0.538
9.72,32084.0,35031.4,1.3857,0.3853,137.1,96.6,0.538
9.74,32070.3,35128.9,1.1593,1.5568,137.1,96.6,0.538
9.76,31979.9,35010.9,-0.3356,0.1384,137.1,96.6,0.538
9.78,32024.5,35036.4,0.4009,0.445,137.1,96.6,0.538
9.8,32052.4,35048.1,0.8632,0.5857,137.1,96.6,0.538
9.82,31957.9,34998.9,-0.7009,-0.0065,137.1,96.6,0.538
9.84,31976.7,35002.8,-0.389,0.0413,137.1,96.6,0.538
9.86,31925.4,34976.6,-1.2371,-0.2735,137.1,96.6,0.538
9.88,31937.7,34938.9,-1.0336,-0.7274,137.1,96.6,0.538
9.9,31950.9,34944.2,-0.8161,-0.6633,137.1,96.6,0.538
9.92,32023.5,34981.6,0.3857,-0.2139,137.1,96.6,0.538
9.94,31931.5,34922.2,-1.1369,-0.9286,137.1,96.6,0.538
9.96,32019.4,34904.6,0.3169,-1.1392,137.1,96.6,0.538
9.98,31915.5,35003.7,-1.4009,0.0519,137.1,96.6,0.538
10.0,31954.6,34886.7,-0.7553,-1.3546,137.1,96.6,0.538
10.02,31935.3,34971.8,-1.0743,-0.3317,137.1,96.6,0.538
10.04,31943.4,34830.4,-0.9396,-2.0313,137.1,96.6,0.538
10.06,32031.7,35107.6,0.5203,1.3006,137.1,96.6,0.538
10.08,31976.4,35050.3,-0.3941,0.6115,137.1,96.6,0.538
10.1,32004.9,35172.4,0.0773,2.08,137.1,96.6,0.538
10.12,32111.1,35208.6,1.8338,2.5149,137.1,96.6,0.538
10.14,32011.6,35120.0,0.1873,1.45,137.1,96.6,0.538
10.16,32017.1,35155.5,0.2798,1.8773,137.1,96.6,0.538
10.18,31974.0,35043.6,-0.4344,0.5311,137.1,96.6,0.538
10.2,32086.5,34989.3,1.427,-0.1216,137.1,96.6,0.538
10.22,32078.7,35041.5,1.2986,0.5062,137.1,96.6,0.538
10.24,32011.4,35021.2,0.1847,0.2627,137.1,96.6,0.538
10.26,31931.5,34928.5,-1.1372,-0.8527,137.1,96.6,0.538
10.28,32031.4,35044.9,0.5161,0.5473,137.1,96.6,0.538
10.3,32034.8,34906.4,0.5715,-1.1184,137.1,96.6,0.538
10.32,31897.3,34897.1,-1.7017,-1.2299,137.1,96.6,0.538
10.34,31948.7,34904.7,-0.8518,-1.1389,137.1,96.6,0.538
10.36,32006.0,35003.8,0.0959,0.0535,137.1,96.6,0.538
10.38,31943.6,34993.0,-0.9374,-0.0771,137.1,96.6,0.538
10.4,32013.4,34931.9,0.218,-0.8113,137.1,96.6,0.538
10.42,31897.1,34897.5,-1.7064,-1.2256,137.1,96.6,0.538
10.44,31986.6,34829.3,-0.2247,-2.0445,137.1,96.6,0.538
10.46,32022.5,34905.6,0.3688,-1.1272,137.1,96.6,0.538
10.48,32050.6,35001.9,0.8329,0.0305,137.1,96.6,0.538
10.5,32036.1,35084.3,0.5938,1.0213,137.1,96.6,0.538
10.52,32033.7,35052.7,0.5541,0.6407,137.1,96.6,0.538
10.54,31985.5,35103.3,-0.2434,1.2494,137.1,96.6,0.538
10.56,32103.7,35196.9,1.711,2.3743,137.1,96.6,0.538
10.58,32063.8,35034.5,1.0515,0.4224,137.1,96.6,0.538
10.6,32003.6,35119.4,0.0564,1.4425,137.1,96.6,0.538
10.62,31928.0,34925.0,-1.195,-0.8949,137.1,96.6,0.538
10.64,32069.9,35115.6,1.1531,1.3974,137.1,96.6,0.538
10.66,32009.3,35044.5,0.1507,0.5422,137.1,96.6,0.538
10.68,31954.9,35024.5,-0.7498,0.3023,137.1,96.6,0.538
10.7,31902.6,34939.2,-1.6155,-0.7242,137.1,96.6,0.538
10.72,32146.1,34984.9,2.4126,-0.1748,137.1,96.6,0.538
10.74,31910.7,34965.5,-1.4812,-0.4073,137.1,96.6,0.538
10.76,31914.6,34962.5,-1.4164,-0.443,137.1,96.6,0.538
10.78,32025.0,34931.6,0.41,-0.8152,137.1,96.6,0.538
10.8,32011.0,34985.6,0.1778,-0.1656,137.1,96.6,0.538
10.82,31913.7,34941.4,-1.4307,-0.6968,137.1,96.6,0.538
10.84,31940.8,34976.0,-0.9824,-0.2812,137.1,96.6,0.538
10.86,31903.1,34903.7,-1.607,-1.1506,137.1,96.6,0.538
10.88,31973.2,34911.5,-0.4463,-1.0571,137.1,96.6,0.538
10.9,31991.2,34923.1,-0.1486,-0.9172,137.1,96.6,0.538
10.92,31989.1,34898.7,-0.184,-1.2109,137.1,96.6,0.538
10.94,32006.6,34977.5,0.1051,-0.2631,137.1,96.6,0.538
10.96,32049.7,35124.4,0.818,1.5027,137.1,96.6,0.538
10.98,32027.3,35119.0,0.4472,1.4384,137.1,96.6,0.538
11.0,32034.7,35145.8,0.5707,1.7607,137.1,96.6,0.538
11.02,32091.2,35077.4,1.5051,0.9377,137.1,96.6,0.538
11.04,31956.7,35049.4,-0.7199,0.6016,137.1,96.6,0.538
11.06,32054.8,35092.7,0.9024,1.1218,137.1,96.6,0.538
11.08,32072.8,34959.5,1.1996,-0.4797,137.1,96.6,0.538
11.1,31982.6,34981.9,-0.2914,-0.2109,137.1,96.6,0.538
11.12,32004.7,34977.3,0.0746,-0.2659,137.1,96.6,0.538
11.14,31992.7,35026.5,-0.1248,0.3257,137.1,96.6,0.538
11.16,32034.0,35014.1,0.5583,0.1764,137.1,96.6,0.538
11.18,31917.1,35066.8,-1.3747,0.8109,137.1,96.6,0.538
11.2,31960.7,35011.4,-0.6544,0.1442,137.1,96.6,0.538
11.22,31965.7,34937.7,-0.571,-0.7421,137.1,96.6,0.538
11.24,31945.9,34941.6,-0.8993,-0.6952,137.1,96.6,0.538
11.26,31868.2,34954.4,-2.1843,-0.5415,137.1,96.6,0.538
11.28,31964.5,34917.2,-0.5917,-0.988,137.1,96.6,0.538
11.3,31887.8,34869.2,-1.8604,-1.5647,137.1,96.6,0.538
11.32,31890.7,34892.4,-1.8118,-1.2866,137.1,96.6,0.538
11.34,31998.8,34958.3,-0.0235,-0.4935,137.1,96.6,0.538
11.36,31957.0,34926.4,-0.715,-0.877,137.1,96.6,0.538
11.38,31948.8,35107.6,-0.8509,1.3012,137.1,96.6,0.538
11.4,32118.9,35185.4,1.9625,2.2361,137.1,96.6,0.538
11.42,32063.6,35079.8,1.0488,0.9672,137.1,96.6,0.538
11.44,32149.0,35108.7,2.4601,1.3144,137.1,96.6,0.538
11.46,32083.1,35173.5,1.3703,2.0932,137.1,96.6,0.538
11.48,31993.7,35047.8,-0.1078,0.5824,137.1,96.6,0.538
11.5,31997.8,34988.1,-0.0399,-0.1363,137.1,96.6,0.538
11.52,31961.4,34957.5,-0.6429,-0.5031,137.1,96.6,0.538
11.54,32034.0,34982.3,0.5585,-0.2053,137.1,96.6,0.538
11.56,31985.7,34930.7,-0.2404,-0.8259,137.1,96.6,0.538
11.58,31945.9,34918.8,-0.8993,-0.9689,137.1,96.6,0.538
11.6,32107.2,34986.3,1.7687,-0.1568,137.1,96.6,0.538
11.62,32002.4,34935.1,0.0364,-0.7731,137.1,96.6,0.538
11.64,31915.2,34940.0,-1.4069,-0.7141,137.1,96.6,0.538
11.66,31948.8,35004.5,-0.8509,0.061,137.1,96.6,0.538
11.68,31979.9,34948.6,-0.337,-0.6112,137.1,96.6,0.538
11.7,31979.3,34920.9,-0.3458,-0.9443,137.1,96.6,0.538
11.72,31952.6,34944.5,-0.7876,-0.6595,137.1,96.6,0.538
11.74,31864.5,35009.6,-2.2456,0.1224,137.1,96.6,0.538
11.76,31914.5,34876.4,-1.4186,-1.4786,137.1,96.6,0.538
11.78,31827.3,34999.7,-2.8602,0.0039,137.1,96.6,0.538
11.8,32012.8,34985.2,0.2077,-0.1709,137.1,96.6,0.538
11.82,32048.3,35096.7,0.7951,1.1696,137.1,96.6,0.538
11.84,31988.5,35124.4,-0.1939,1.5034,137.1,96.6,0.538
11.86,32020.3,35165.7,0.3314,1.9988,137.1,96.6,0.538
11.88,32123.7,35167.4,2.0419,2.0198,137.1,96.6,0.538
11.9,32041.5,35131.0,0.6825,1.5825,137.1,96.6,0.538
11.92,32030.8,35030.2,0.5061,0.3707,137.1,96.6,0.538
11.94,32028.8,35041.5,0.4733,0.5064,137.1,96.6,0.538
11.96,32001.2,35021.7,0.0156,0.2686,137.1,96.6,0.538
11.98,31867.9,35018.8,-2.1893,0.2332,137.1,96.6,0.538
12.0,32006.7,35026.8,0.107,0.33,137.1,96.6,0.538
12.02,32040.3,34911.3,0.6631,-1.0592,137.1,96.6,0.538
12.04,31969.8,34901.7,-0.5027,-1.1748,137.1,96.6,0.538
12.06,32047.8,35034.9,0.7867,0.4268,137.1,96.6,0.538
12.08,31893.2,34949.6,-1.771,-0.5986,137.1,96.6,0.538
12.1,31982.6,34875.4,-0.291,-1.4912,137.1,96.6,0.538
12.12,32008.0,34956.4,0.1285,-0.5168,137.1,96.6,0.538
12.14,31856.2,34908.5,-2.3823,-1.0934,137.1,96.6,0.538
12.16,31950.5,34961.8,-0.8232,-0.4515,137.1,96.6,0.538
12.18,31876.4,34940.4,-2.0482,-0.7098,137.1,96.6,0.538
12.2,31944.0,34870.3,-0.9303,-1.5524,137.1,96.6,0.538
12.22,32029.4,34914.4,0.4823,-1.0219,137.1,96.6,0.538
12.24,31954.5,35023.7,-0.7571,0.2922,137.1,96.6,0.538
12.26,31913.9,34973.4,-1.428,-0.3126,137.1,96.6,0.538
12.28,32037.1,35112.5,0.6105,1.3596,137.1,96.6,0.538
12.3,32055.5,35119.8,0.9149,1.447,137.1,96.6,0.538
12.32,32046.8,35132.0,0.7696,1.5939,137.1,96.6,0.538
12.34,32025.1,35074.9,0.4121,0.9083,137.1,96.6,0.538
12.36,32044.0,35150.2,0.7245,1.8127,137.1,96.6,0.538
12.38,31977.4,35059.7,-0.3771,0.7244,137.1,96.6,0.538
12.4,32058.0,34972.0,0.9557,-0.3292,137.1,96.6,0.538
12.42,31932.0,34947.0,-1.1288,-0.63,137.1,96.6,0.538
12.44,32024.4,35009.7,0.3995,0.1235,137.1,96.6,0.538
12.46,32020.2,35057.5,0.3299,0.6982,137.1,96.6,0.538
12.48,32012.7,34940.3,0.207,-0.7105,137.1,96.6,0.538
12.5,31966.7,34934.0,-0.554,-0.7867,137.1,96.6,0.538
12.52,31971.9,34907.1,-0.4686,-1.1093,137.1,96.6,0.538
12.54,31917.2,34884.9,-1.3733,-1.3759,137.1,96.6,0.538
12.56,31951.1,34931.7,-0.8129,-0.8137,137.1,96.6,0.538
12.58,31974.0,34810.1,-0.4339,-2.2763,137.1,96.6,0.538
12.6,31914.8,34939.0,-1.4137,-0.7258,137.1,96.6,0.538
12.62,31974.7,34921.3,-0.4221,-0.9393,137.1,96.6,0.538
12.64,31951.3,35024.7,-0.8087,0.3038,137.1,96.6,0.538
12.66,32033.8,34981.1,0.5552,-0.2201,137.1,96.6,0.538
12.68,31991.2,34981.0,-0.1486,-0.2212,137.1,96.6,0.538
12.7,31988.1,35011.3,-0.2013,0.1428,137.1,96.6,0.538
12.72,32050.9,35178.7,0.8388,2.1552,137.1,96.6,0.538
12.74,32159.9,35156.8,2.6411,1.892,137.1,96.6,0.538
12.76,32061.1,35044.7,1.006,0.5442,137.1,96.6,0.538
12.78,31949.1,35059.0,-0.8451,0.7161,137.1,96.6,0.538
12.8,32033.0,35044.4,0.5428,0.5409,137.1,96.6,0.538
12.82,32035.1,34914.4,0.5767,-1.0217,137.1,96.6,0.538
12.84,31995.1,35088.3,-0.0854,1.0689,137.1,96.6,0.538
12.86,31921.3,35010.1,-1.3053,0.1289,137.1,96.6,0.538
12.88,31995.7,35045.5,-0.0746,0.5547,137.1,96.6,0.538
12.9,31934.1,34901.5,-1.0937,-1.177,137.1,96.6,0.538
12.92,31958.9,35036.2,-0.6832,0.4424,137.1,96.6,0.538
12.94,32026.1,35028.5,0.4279,0.3504,137.1,96.6,0.538
12.96,31938.1,35057.5,-1.0283,0.6987,137.1,96.6,0.538
12.98,32043.6,34879.4,0.7166,-1.4425,137.1,96.6,0.538
13.0,31955.6,34964.8,-0.738,-0.4161,137.1,96.6,0.538
13.02,31919.4,34941.9,-1.3375,-0.6917,137.1,96.6,0.538
13.04,32034.5,34898.5,0.5663,-1.2129,137.1,96.6,0.538
13.06,31941.4,34804.2,-0.9738,-2.3471,137.1,96.6,0.538
13.08,31925.6,34852.7,-1.2339,-1.7634,137.1,96.6,0.538
13.1,32045.9,34953.4,0.7557,-0.5528,137.1,96.6,0.538
13.12,31983.2,35098.9,-0.2823,1.1959,137.1,96.6,0.538
13.14,32057.4,35135.2,0.9461,1.6322,137.1,96.6,0.538
13.16,32055.2,35128.4,0.9095,1.5505,137.1,96.6,0.538
13.18,32099.1,35067.4,1.6357,0.8177,137.1,96.6,0.538
13.2,32053.9,35171.1,0.8871,2.0646,137.1,96.6,0.538
13.22,32113.2,35025.0,1.8689,0.3082,137.1,96.6,0.538
13.24,32056.8,35000.9,0.9361,0.0184,137.1,96.6,0.538
13.26,31994.4,35090.7,-0.0965,1.0981,137.1,96.6,0.538
13.28,31999.0,34915.6,-0.0199,-1.0074,137.1,96.6,0.538
13.3,32045.3,35084.1,0.7458,1.018,137.1,96.6,0.538
13.32,31984.1,35079.4,-0.2662,0.9613,137.1,96.6,0.538
13.34,32004.9,34976.4,0.0776,-0.2759,137.1,96.6,0.538
13.36,31942.2,34962.1,-0.9593,-0.4481,137.1,96.6,0.538
13.38,31995.6,34964.1,-0.0771,-0.4237,137.1,96.6,0.538
13.4,31948.1,34905.5,-0.8617,-1.1292,137.1,96.6,0.538
13.42,31902.2,34878.0,-1.6222,-1.4595,137.1,96.6,0.538
13.44,31989.6,34925.8,-0.1763,-0.8854,137.1,96.6,0.538
13.46,32037.7,34911.7,0.6199,-1.0541,137.1,96.6,0.538
13.48,31932.8,34888.4,-1.1145,-1.3348,137.1,96.6,0.538
13.5,31915.9,34898.4,-1.3951,-1.2139,137.1,96.6,0.538
13.52,31880.7,34873.2,-1.9779,-1.517,137.1,96.6,0.538
13.54,32027.9,34983.1,0.4572,-0.1956,137.1,96.6,0.538
13.56,32016.6,35045.1,0.2713,0.55,137.1,96.6,0.538
13.58,32102.0,35015.8,1.6831,0.1974,137.1,96.6,0.538
13.6,32106.8,35104.0,1.7634,1.2581,137.1,96.6,0.538
13.62,32003.2,35127.2,0.0483,1.5364,137.1,96.6,0.538
13.64,32062.7,35141.8,1.0339,1.7118,137.1,96.6,0.538
13.66,31991.0,35176.4,-0.153,2.1283,137.1,96.6,0.538
13.68,31995.7,34986.0,-0.075,-0.1612,137.1,96.6,0.538
13.7,31980.2,35021.4,-0.3313,0.2644,137.1,96.6,0.538
13.72,32126.1,34994.6,2.0827,-0.0571,137.1,96.6,0.538
13.74,32005.5,34950.3,0.0869,-0.5901,137.1,96.6,0.538
13.76,32017.6,35041.0,0.2868,0.5003,137.1,96.6,0.538
13.78,31959.8,34972.9,-0.668,-0.3181,137.1,96.6,0.538
13.8,32033.8,34891.6,0.5557,-1.2961,137.1,96.6,0.538
13.82,31920.1,34985.4,-1.326,-0.1682,137.1,96.6,0.538
13.84,31946.4,35032.4,-0.8905,0.3966,137.1,96.6,0.538
13.86,31944.7,34923.3,-0.9189,-0.9148,137.1,96.6,0.538
13.88,31996.1,34821.7,-0.0675,-2.1357,137.1,96.6,0.538
13.9,31938.3,34908.7,-1.0239,-1.0899,137.1,96.6,0.538
13.92,31890.7,34924.6,-1.8111,-0.8993,137.1,96.6,0.538
13.94,31967.6,34854.9,-0.5396,-1.7374,137.1,96.6,0.538
13.96,31915.5,34903.4,-1.402,-1.1538,137.1,96.6,0.538
13.98,31880.3,35019.9,-1.9835,0.246,137.1,96.6,0.538
14.0,32094.5,34952.1,1.5595,-0.5688,137.1,96.6,0.538
14.02,31935.7,35028.9,-1.0669,0.3553,137.1,96.6,0.538
14.04,32004.1,35138.5,0.0643,1.6724,137.1,96.6,0.538
14.06,32117.6,35141.0,1.9409,1.7022,137.1,96.6,0.538
14.08,32117.1,35087.3,1.9331,1.0571,137.1,96.6,0.538
14.1,31972.0,35120.0,-0.4668,1.4505,137.1,96.6,0.538
14.12,31929.0,35062.8,-1.1777,0.7625,137.1,96.6,0.538
14.14,32018.7,35101.1,0.3056,1.2227,137.1,96.6,0.538
14.16,32010.6,34999.8,0.1709,0.0051,137.1,96.6,0.538
14.18,32093.9,35080.6,1.5501,0.9766,137.1,96.6,0.538
14.2,32020.1,35022.7,0.3294,0.2801,137.1,96.6,0.538
14.22,31938.2,35027.3,-1.0256,0.3355,137.1,96.6,0.538
14.24,31938.0,34994.0,-1.0285,-0.0645,137.1,96.6,0.538
14.26,32029.0,34939.8,0.4763,-0.716,137.1,96.6,0.538
14.28,31940.8,35001.8,-0.9825,0.0291,137.1,96.6,0.538
14.3,31948.2,34880.0,-0.861,-1.4357,137.1,96.6,0.538
14.32,32023.0,34895.2,0.3765,-1.2521,137.1,96.6,0.538
14.34,31866.3,34883.7,-2.2158,-1.3909,137.1,96.6,0.538
14.36,31984.1,34940.5,-0.2676,-0.7082,137.1,96.6,0.538
14.38,31962.4,34843.4,-0.6253,-1.8759,137.1,96.6,0.538
14.4,31932.1,34932.1,-1.1261,-0.8092,137.1,96.6,0.538
14.42,31970.6,35055.0,-0.4904,0.6681,137.1,96.6,0.538
14.44,31973.0,35077.1,-0.4509,0.9345,137.1,96.6,0.538
14.46,32020.6,35099.3,0.3367,1.2014,137.1,96.6,0.538
14.48,32049.5,35121.9,0.8148,1.4725,137.1,96.6,0.538
14.5,32069.2,35237.6,1.1412,2.8635,137.1,96.6,0.538
14.52,32139.3,35077.1,2.2999,0.9345,137.1,96.6,0.538
14.54,32081.7,35073.0,1.3473,0.8853,137.1,96.6,0.538
14.56,31932.7,35009.4,-1.1173,0.12,137.1,96.6,0.538
14.58,31994.8,35075.3,-0.0901,0.9121,137.1,96.6,0.538
14.6,31997.1,35044.7,-0.0511,0.5446,137.1,96.6,0.538
14.62,32034.0,35021.6,0.5592,0.2669,137.1,96.6,0.538
14.64,31973.6,35048.1,-0.4398,0.5859,137.1,96.6,0.538
14.66,31998.5,34969.0,-0.0293,-0.3651,137.1,96.6,0.538
14.68,31999.7,34977.5,-0.0093,-0.2631,137.1,96.6,0.538
14.7,31943.6,34954.7,-0.9366,-0.5379,137.1,96.6,0.538
14.72,31988.3,34972.0,-0.1968,-0.3295,137.1,96.6,0.538
14.74,32026.1,34923.1,0.4276,-0.9167,137.1,96.6,0.538
14.76,31980.4,34975.4,-0.3284,-0.2886,137.1,96.6,0.538
14.78,32063.4,34853.4,1.0444,-1.7553,137.1,96.6,0.538
14.8,31973.9,34948.0,-0.436,-0.6178,137.1,96.6,0.538
14.82,31956.4,34934.4,-0.7245,-0.782,137.1,96.6,0.538
14.84,32036.0,34903.2,0.5916,-1.156,137.1,96.6,0.538
14.86,32003.6,35007.4,0.0549,0.0968,137.1,96.6,0.538
14.88,32048.6,35027.8,0.7996,0.3419,137.1,96.6,0.538
14.9,31993.8,35061.3,-0.1061,0.7438,137.1,96.6,0.538
14.92,32013.2,35113.5,0.215,1.372,137.1,96.6,0.538
14.94,32101.4,35125.8,1.6734,1.5199,137.1,96.6,0.538
14.96,31993.7,35060.8,-0.1074,0.7385,137.1,96.6,0.538
14.98,32057.3,35042.4,0.9444,0.5174,137.1,96.6,0.538
15.0,32069.8,35021.3,1.1511,0.263,137.1,96.6,0.538
15.02,32018.8,34948.6,0.3064,-0.611,137.1,96.6,0.538
15.04,32135.5,34996.6,2.237,-0.0332,137.1,96.6,0.538
15.06,32054.4,34999.2,0.8952,-0.002,137.1,96.6,0.538
15.08,31949.2,34975.9,-0.8446,-0.2823,137.1,96.6,0.538
15.1,31998.0,35021.3,-0.0363,0.2638,137.1,96.6,0.538
15.12,31957.2,34896.7,-0.7114,-1.2348,137.1,96.6,0.538
15.14,31928.8,34975.5,-1.181,-0.2869,137.1,96.6,0.538
15.16,31907.5,34999.9,-1.5333,0.0062,137.1,96.6,0.538
15.18,31962.1,34985.6,-0.6302,-0.1656,137.1,96.6,0.538
15.2,31854.1,34970.0,-2.4164,-0.3531,137.1,96.6,0.538
15.22,31952.5,34888.1,-0.7898,-1.3384,137.1,96.6,0.538
15.24,31966.0,34936.3,-0.5659,-0.7585,137.1,96.6,0.538
15.26,31981.9,34992.6,-0.303,-0.0817,137.1,96.6,0.538
15.28,31893.7,34908.6,-1.7623,-1.0917,137.1,96.6,0.538
15.3,32040.5,35038.7,0.6664,0.4727,137.1,96.6,0.538
15.32,32064.6,35035.7,1.0642,0.4363,137.1,96.6,0.538
15.34,32142.7,35054.4,2.3566,0.6608,137.1,96.6,0.538
15.36,32041.4,35218.6,0.6802,2.6357,137.1,96.6,0.538
15.38,32058.2,35066.3,0.9594,0.8044,137.1,96.6,0.538
15.4,31989.3,35118.4,-0.1813,1.4305,137.1,96.6,0.538
15.42,32055.9,35118.3,0.92,1.4297,137.1,96.6,0.538
15.44,32120.9,35073.2,1.9966,0.8872,137.1,96.6,0.538
15.46,31976.9,35148.1,-0.3857,1.7883,137.1,96.6,0.538
15.48,32020.7,35116.4,0.339,1.4064,137.1,96.6,0.538
15.5,32008.0,35013.8,0.1283,0.1736,137.1,96.6,0.538
15.52,32009.1,34986.1,0.146,-0.1601,137.1,96.6,0.538
15.54,31980.4,34911.5,-0.3272,-1.0567,137.1,96.6,0.538
15.56,31935.9,34971.4,-1.0635,-0.3366,137.1,96.6,0.538
15.58,31998.6,34912.4,-0.0266,-1.0457,137.1,96.6,0.538
15.6,31924.9,34904.8,-1.2454,-1.1374,137.1,96.6,0.538
15.62,31910.5,34897.3,-1.4838,-1.2274,137.1,96.6,0.538
15.64,31917.4,34868.1,-1.3705,-1.5789,137.1,96.6,0.538
15.66,32039.9,34958.8,0.6568,-0.4884,137.1,96.6,0.538
15.68,32029.0,34866.0,0.4765,-1.6039,137.1,96.6,0.538
15.7,31962.7,34941.7,-0.6205,-0.6941,137.1,96.6,0.538
15.72,31920.7,34875.4,-1.3151,-1.4909,137.1,96.6,0.538
15.74,31984.9,34957.0,-0.2537,-0.5094,137.1,96.6,0.538
15.76,32051.2,35034.9,0.8433,0.4274,137.1,96.6,0.538
15.78,31977.7,35094.7,-0.3734,1.1457,137.1,96.6,0.538
15.8,31928.2,35161.5,-1.1917,1.9491,137.1,96.6,0.538
15.82,32132.4,35164.0,2.1865,1.9792,137.1,96.6,0.538
15.84,32022.7,35157.9,0.3723,1.9058,137.1,96.6,0.538
15.86,31940.1,35025.0,-0.9949,0.308,137.1,96.6,0.538
15.88,32036.7,35084.6,0.6037,1.0245,137.1,96.6,0.538
15.9,32114.3,35023.6,1.8861,0.2913,137.1,96.6,0.538
15.92,31966.0,34987.4,-0.5658,-0.1437,137.1,96.6,0.538
15.94,31957.6,34977.8,-0.7043,-0.2602,137.1,96.6,0.538
15.96,32065.0,35014.0,1.0715,0.1751,137.1,96.6,0.538
15.98,32058.2,34977.4,0.9587,-0.2643,137.1,96.6,0.538
16.0,31981.4,34976.3,-0.3121,-0.2781,137.1,96.6,0.538
16.02,31935.1,34984.5,-1.0776,-0.1788,137.1,96.6,0.538
16.04,31988.5,34888.9,-0.1935,-1.329,137.1,96.6,0.538
16.06,31936.2,34929.5,-1.0587,-0.8398,137.1,96.6,0.538
16.08,32008.8,34895.7,0.141,-1.2462,137.1,96.6,0.538
16.1,32058.4,34925.1,0.9617,-0.8935,137.1,96.6,0.538
16.12,31950.6,34910.9,-0.8206,-1.0639,137.1,96.6,0.538
16.14,31931.8,34946.5,-1.1326,-0.6355,137.1,96.6,0.538
16.16,32013.8,34974.3,0.2239,-0.3023,137.1,96.6,0.538
16.18,31854.8,34976.7,-2.4053,-0.2731,137.1,96.6,0.538
16.2,31961.5,35038.1,-0.6403,0.465,137.1,96.6,0.538
16.22,32115.2,35148.4,1.9012,1.7909,137.1,96.6,0.538
16.24,32126.1,35059.8,2.0817,0.7261,137.1,96.6,0.538
16.26,32029.4,35098.2,0.4826,1.1874,137.1,96.6,0.538
16.28,32042.5,35052.8,0.6986,0.6415,137.1,96.6,0.538
16.3,32041.9,35016.6,0.6893,0.2066,137.1,96.6,0.538
16.32,31975.0,35093.9,-0.4182,1.1367,137.1,96.6,0.538
16.34,31990.4,35056.4,-0.1623,0.6852,137.1,96.6,0.538
16.36,32042.2,35049.7,0.694,0.6046,137.1,96.6,0.538
16.38,32002.6,35013.4,0.0389,0.1679,137.1,96.6,0.538
16.4,31986.0,35005.2,-0.2349,0.0698,137.1,96.6,0.538
16.42,32030.7,35004.0,0.5042,0.0555,137.1,96.6,0.538
16.44,31977.7,34932.4,-0.3725,-0.8048,137.1,96.6,0.538
16.46,32001.8,34867.6,0.0259,-1.5849,137.1,96.6,0.538
16.48,32128.0,34923.3,2.1133,-0.9153,137.1,96.6,0.538
16.5,31908.0,35067.2,-1.5253,0.815,137.1,96.6,0.538
16.52,31942.4,34938.0,-0.9558,-0.7382,137.1,96.6,0.538
16.54,31933.5,34989.1,-1.1033,-0.1233,137.1,96.6,0.538
16.56,31941.1,34901.8,-0.9786,-1.1738,137.1,96.6,0.538
16.58,31993.1,34897.5,-0.1175,-1.2247,137.1,96.6,0.538
16.6,31959.0,34978.9,-0.6826,-0.2461,137.1,96.6,0.538
16.62,32012.4,35052.3,0.2009,0.6358,137.1,96.6,0.538
16.64,32023.3,35036.3,0.3822,0.4437,137.1,96.6,0.538
16.66,32160.3,35173.8,2.6479,2.0972,137.1,96.6,0.538
16.68,32070.9,35159.9,1.1685,1.9291,137.1,96.6,0.538
16.7,32062.3,35140.4,1.026,1.6954,137.1,96.6,0.538
16.72,32128.6,35141.2,2.1231,1.7045,137.1,96.6,0.538
16.74,31995.8,35040.8,-0.0728,0.4979,137.1,96.6,0.538
16.76,31986.1,35017.5,-0.233,0.2181,137.1,96.6,0.538
16.78,32086.6,35044.1,1.4281,0.5379,137.1,96.6,0.538
16.8,32114.4,35113.3,1.8884,1.3698,137.1,96.6,0.538
16.82,31977.7,35014.2,-0.3735,0.1779,137.1,96.6,0.538
16.84,32083.9,34920.5,1.3844,-0.9485,137.1,96.6,0.538
16.86,31977.5,34984.1,-0.3754,-0.1834,137.1,96.6,0.538
16.88,31923.4,34936.9,-1.2703,-0.7516,137.1,96.6,0.538
16.9,31986.1,34983.5,-0.2333,-0.1914,137.1,96.6,0.538
16.92,32085.0,34968.2,1.4014,-0.3748,137.1,96.6,0.538
16.94,32040.0,34981.6,0.6585,-0.214,137.1,96.6,0.538
16.96,31999.5,34931.4,-0.0115,-0.8179,137.1,96.6,0.538
16.98,31889.3,34899.2,-1.8342,-1.2051,137.1,96.6,0.538
17.0,31969.9,34911.0,-0.5018,-1.0632,137.1,96.6,0.538
17.02,32010.8,34943.3,0.1755,-0.6741,137.1,96.6,0.538
17.04,32039.1,34930.3,0.6434,-0.831,137.1,96.6,0.538
17.06,32009.2,35031.7,0.1487,0.3881,137.1,96.6,0.538
17.08,32047.2,35060.5,0.7771,0.735,137.1,96.6,0.538
17.1,31961.1,35074.0,-0.6464,0.8971,137.1,96.6,0.538
17.12,32026.7,35161.8,0.4378,1.953,137.1,96.6,0.538
17.14,32141.7,35119.3,2.3405,1.4419,137.1,96.6,0.538
17.16,32038.1,35070.3,0.6272,0.8524,137.1,96.6,0.538
17.18,32022.2,35061.3,0.3635,0.7438,137.1,96.6,0.538
17.2,32042.9,34995.3,0.7052,-0.0496,137.1,96.6,0.538
17.22,32030.2,34970.7,0.4962,-0.3447,137.1,96.6,0.538
17.24,32007.8,34975.9,0.126,-0.2822,137.1,96.6,0.538
17.26,32043.8,34968.9,0.7211,-0.3668,137.1,96.6,0.538
17.28,32037.5,34967.7,0.616,-0.381,137.1,96.6,0.538
17.3,31948.3,35015.0,-0.8583,0.1873,137.1,96.6,0.538
17.32,31923.7,34971.7,-1.2666,-0.3334,137.1,96.6,0.538
17.34,32028.7,35025.7,0.4701,0.3164,137.1,96.6,0.538
17.36,31986.6,35000.1,-0.2251,0.0083,137.1,96.6,0.538
17.38,31891.2,35001.8,-1.803,0.0284,137.1,96.6,0.538
17.4,32049.3,34957.3,0.8124,-0.506,137.1,96.6,0.538
17.42,31960.7,34962.2,-0.6534,-0.447,137.1,96.6,0.538
17.44,31997.1,34926.0,-0.052,-0.8822,137.1,96.6,0.538
17.46,31992.3,34946.7,-0.1309,-0.634,137.1,96.6,0.538
17.48,31966.9,34979.5,-0.5515,-0.239,137.1,96.6,0.538
17.5,31962.7,35023.9,-0.6216,0.2942,137.1,96.6,0.538
17.52,32099.6,35008.0,1.6435,0.1031,137.1,96.6,0.538
17.54,32034.5,35099.1,0.5675,1.1989,137.1,96.6,0.538
17.56,31979.8,35076.2,-0.3384,0.9236,137.1,96.6,0.538
17.58,32084.4,35167.8,1.3923,2.0241,137.1,96.6,0.538
17.6,31980.5,35085.8,-0.3271,1.0392,137.1,96.6,0.538
17.62,32040.8,34936.5,0.6716,-0.7558,137.1,96.6,0.538
17.64,32099.0,35025.8,1.6339,0.3178,137.1,96.6,0.538
17.66,31991.5,34988.7,-0.1437,-0.1283,137.1,96.6,0.538
17.68,32054.4,35066.7,0.8959,0.8094,137.1,96.6,0.538
17.7,32073.4,34979.1,1.21,-0.2445,137.1,96.6,0.538
17.72,31967.8,34906.5,-0.5367,-1.1174,137.1,96.6,0.538
17.74,31981.7,34974.3,-0.3059,-0.3011,137.1,96.6,0.538
17.76,31989.6,34908.8,-0.1761,-1.0896,137.1,96.6,0.538
17.78,31927.2,34899.9,-1.2073,-1.1959,137.1,96.6,0.538
17.8,32031.6,34894.2,0.5184,-1.2643,137.1,96.6,0.538
17.82,32004.9,34880.6,0.0773,-1.428,137.1,96.6,0.538
17.84,31930.6,34971.1,-1.152,-0.3396,137.1,96.6,0.538
17.86,32069.6,34945.5,1.1466,-0.6485,137.1,96.6,0.538
17.88,31904.9,34848.2,-1.5772,-1.8176,137.1,96.6,0.538
17.9,31969.7,34918.0,-0.5042,-0.978,137.1,96.6,0.538
17.92,31988.4,34929.2,-0.1954,-0.8441,137.1,96.6,0.538
17.94,32055.9,35042.4,0.9213,0.5166,137.1,96.6,0.538
17.96,32082.6,35108.6,1.3624,1.3126,137.1,96.6,0.538
17.98,32083.3,35042.0,1.3747,0.5117,137.1,96.6,0.538
18.0,32043.9,35123.3,0.7228,1.4902,137.1,96.6,0.538
18.02,32056.1,35104.5,0.9242,1.2631,137.1,96.6,0.538
18.04,32039.7,35058.9,0.6531,0.7152,137.1,96.6,0.538
18.06,32067.6,35048.9,1.1135,0.595,137.1,96.6,0.538
18.08,32068.4,35072.1,1.1281,0.8739,137.1,96.6,0.538
18.1,32099.7,35115.3,1.6453,1.3936,137.1,96.6,0.538
18.12,31934.3,35021.8,-1.0907,0.2696,137.1,96.6,0.538
18.14,32058.9,34910.7,0.9697,-1.0661,137.1,96.6,0.538
18.16,32032.6,35007.0,0.5354,0.0914,137.1,96.6,0.538
18.18,32069.3,34989.4,1.1431,-0.1207,137.1,96.6,0.538
18.2,31928.7,34988.8,-1.1837,-0.1269,137.1,96.6,0.538
18.22,32081.4,34941.6,1.3427,-0.6948,137.1,96.6,0.538
18.24,31933.0,34941.5,-1.1126,-0.6959,137.1,96.6,0.538
18.26,31939.3,34900.9,-1.0083,-1.1838,137.1,96.6,0.538
18.28,31858.8,34948.9,-2.3386,-0.6069,137.1,96.6,0.538
18.3,31977.5,34934.5,-0.3763,-0.7796,137.1,96.6,0.538
18.32,32013.0,34982.3,0.2119,-0.2056,137.1,96.6,0.538
18.34,31976.8,34936.1,-0.3875,-0.7606,137.1,96.6,0.538
18.36,31947.2,34929.0,-0.8767,-0.846,137.1,96.6,0.538
18.38,32103.5,35003.7,1.7073,0.0522,137.1,96.6,0.538
18.4,32057.3,35089.2,0.9444,1.0792,137.1,96.6,0.538
18.42,31958.6,35079.5,-0.688,0.9635,137.1,96.6,0.538
18.44,32059.9,35122.6,0.987,1.4818,137.1,96.6,0.538
18.46,32102.1,35164.4,1.6844,1.9835,137.1,96.6,0.538
18.48,32019.4,35026.8,0.3174,0.3296,137.1,96.6,0.538
18.5,32007.9,35113.2,0.1274,1.3686,137.1,96.6,0.538
18.52,31979.3,35030.8,-0.3455,0.378,137.1,96.6,0.538
18.54,31978.8,34964.6,-0.355,-0.4179,137.1,96.6,0.538
18.56,31996.0,35003.9,-0.0697,0.0547,137.1,96.6,0.538
18.58,32017.4,34959.9,0.2833,-0.4743,137.1,96.6,0.538
18.6,32011.7,35038.6,0.1904,0.4717,137.1,96.6,0.538
18.62,32034.8,34924.7,0.571,-0.8981,137.1,96.6,0.538
18.64,32014.3,34906.1,0.2329,-1.1219,137.1,96.6,0.538
18.66,31916.2,34947.5,-1.3904,-0.6244,137.1,96.6,0.538
18.68,31957.5,34929.5,-0.7064,-0.8403,137.1,96.6,0.538
18.7,31964.5,34947.1,-0.5908,-0.6287,137.1,96.6,0.538
18.72,31906.7,34926.9,-1.5464,-0.8717,137.1,96.6,0.538
18.74,31920.7,34877.2,-1.3156,-1.469,137.1,96.6,0.538
18.76,31944.1,34958.0,-0.9281,-0.4971,137.1,96.6,0.538
18.78,31990.0,34858.0,-0.1691,-1.7003,137.1,96.6,0.538
18.8,32008.4,35060.4,0.1359,0.7333,137.1,96.6,0.538
18.82,32060.5,35085.5,0.9974,1.0353,137.1,96.6,0.538
18.84,32012.7,35107.3,0.207,1.297,137.1,96.6,0.538
18.86,32078.3,35119.1,1.2919,1.4397,137.1,96.6,0.538
18.88,32039.6,35179.8,0.6512,2.1694,137.1,96.6,0.538
18.9,32043.2,35105.7,0.7103,1.2776,137.1,96.6,0.538
18.92,31924.8,35085.9,-1.2477,1.0398,137.1,96.6,0.538
18.94,32095.9,35078.9,1.5817,0.9559,137.1,96.6,0.538
18.96,32009.7,34976.9,0.1569,-0.2703,137.1,96.6,0.538
18.98,32069.5,35073.9,1.146,0.8963,137.1,96.6,0.538
19.0,31925.9,34985.3,-1.23,-0.1695,137.1,96.6,0.538
19.02,31939.1,34959.1,-1.0106,-0.4841,137.1,96.6,0.538
19.04,31979.8,34971.1,-0.3382,-0.3401,137.1,96.6,0.538
19.06,31987.0,34915.8,-0.2183,-1.005,137.1,96.6,0.538
19.08,31942.3,34924.1,-0.9589,-0.9055,137.1,96.6,0.538
19.1,31955.1,34975.4,-0.7465,-0.288,137.1,96.6,0.538
19.12,31899.5,34957.6,-1.6668,-0.5027,137.1,96.6,0.538
19.14,31962.3,34984.1,-0.6281,-0.1841,137.1,96.6,0.538
19.16,31949.6,35002.3,-0.8379,0.0343,137.1,96.6,0.538
19.18,32001.5,35036.1,0.0214,0.4415,137.1,96.6,0.538
19.2,31837.7,34919.3,-2.6887,-0.9629,137.1,96.6,0.538
19.22,31885.8,34947.4,-1.892,-0.6254,137.1,96.6,0.538
19.24,31930.6,34978.5,-1.1512,-0.2507,137.1,96.6,0.538
19.26,32083.8,35038.2,1.3815,0.467,137.1,96.6,0.538
19.28,32140.0,35092.7,2.3114,1.1218,137.1,96.6,0.538
19.3,32072.4,35120.9,1.1938,1.4611,137.1,96.6,0.538
19.32,32063.9,35146.0,1.0532,1.7628,137.1,96.6,0.538
19.34,32093.0,35022.2,1.5341,0.2744,137.1,96.6,0.538
19.36,32089.6,35044.5,1.4782,0.5421,137.1,96.6,0.538
19.38,32051.4,35019.3,0.8468,0.2397,137.1,96.6,0.538
19.4,32107.3,34964.3,1.7714,-0.4221,137.1,96.6,0.538
19.42,32088.1,35031.0,1.4537,0.3799,137.1,96.6,0.538
19.44,32015.2,35122.4,0.247,1.4784,137.1,96.6,0.538
19.46,32085.1,34992.8,1.403,-0.0789,137.1,96.6,0.538
19.48,32043.1,35043.1,0.7096,0.526,137.1,96.6,0.538
19.5,32011.7,34916.2,0.1904,-1.0006,137.1,96.6,0.538
19.52,32068.9,34959.7,1.1354,-0.4776,137.1,96.6,0.538
19.54,32007.4,34918.9,0.1188,-0.9675,137.1,96.6,0.538
19.56,31910.9,34940.2,-1.4783,-0.7117,137.1,96.6,0.538
19.58,31988.0,34871.4,-0.202,-1.5393,137.1,96.6,0.538
19.6,32007.0,34896.0,0.1127,-1.2436,137.1,96.6,0.538
19.62,31909.3,34910.8,-1.5044,-1.0651,137.1,96.6,0.538
19.64,31926.5,34979.6,-1.2196,-0.2378,137.1,96.6,0.538
19.66,31949.3,34952.8,-0.8429,-0.5596,137.1,96.6,0.538
19.68,32030.2,35047.8,0.4955,0.5815,137.1,96.6,0.538
19.7,31904.8,35038.7,-1.5784,0.4721,137.1,96.6,0.538
19.72,32014.5,35150.2,0.2362,1.8134,137.1,96.6,0.538
19.74,32101.6,35093.1,1.6761,1.1267,137.1,96.6,0.538
19.76,32069.3,35113.5,1.1418,1.3716,137.1,96.6,0.538
19.78,32053.2,34999.3,0.8764,-0.0005,137.1,96.6,0.538
19.8,32139.2,35081.0,2.2986,0.9812,137.1,96.6,0.538
19.82,31970.1,35016.2,-0.4981,0.2024,137.1,96.6,0.538
19.84,32081.7,35014.9,1.3476,0.1863,137.1,96.6,0.538
19.86,32033.8,35066.9,0.5545,0.8112,137.1,96.6,0.538
19.88,31997.5,35043.9,-0.0449,0.5354,137.1,96.6,0.538
19.9,31953.6,34908.4,-0.772,-1.0934,137.1,96.6,0.538
19.92,32025.6,34901.4,0.4199,-1.1782,137.1,96.6,0.538
19.94,31998.5,34828.0,-0.0291,-2.061,137.1,96.6,0.538
19.96,31983.3,34926.0,-0.2806,-0.8819,137.1,96.6,0.538
19.98,32008.3,35067.8,0.1343,0.8225,137.1,96.6,0.538
20.0,32006.2,34964.0,0.098,-0.4259,137.1,96.6,0.538
20.02,31892.1,34829.7,-1.7888,-2.0403,137.1,96.6,0.538
20.04,31968.5,34885.5,-0.5246,-1.3697,137.1,96.6,0.538
20.06,31975.3,34903.1,-0.4126,-1.1579,137.1,96.6,0.538
20.08,31965.2,34925.3,-0.5797,-0.8908,137.1,96.6,0.538
20.1,31985.0,34941.4,-0.2517,-0.6976,137.1,96.6,0.538
20.12,32040.8,35055.8,0.6713,0.6786,137.1,96.6,0.538
20.14,32117.3,35057.9,1.9359,0.7029,137.1,96.6,0.538
20.16,32155.9,35127.7,2.5748,1.5431,137.1,96.6,0.538
20.18,32097.3,35199.2,1.6052,2.4016,137.1,96.6,0.538
20.2,32018.2,35197.2,0.2966,2.3784,137.1,96.6,0.538
20.22,32052.6,35105.1,0.8655,1.2708,137.1,96.6,0.538
20.24,32057.5,34963.8,0.9467,-0.4283,137.1,96.6,0.538
20.26,31976.4,35057.1,-0.3942,0.6941,137.1,96.6,0.538
20.28,32032.8,35082.6,0.5385,0.9997,137.1,96.6,0.538
20.3,32076.0,34939.1,1.2535,-0.7249,137.1,96.6,0.538
20.32,32047.7,35000.6,0.7844,0.014,137.1,96.6,0.538
20.34,32000.0,34946.1,-0.0046,-0.6406,137.1,96.6,0.538
20.36,31953.6,35061.6,-0.7713,0.7479,137.1,96.6,0.538
20.38,32032.2,34898.0,0.5284,-1.2186,137.1,96.6,0.538
20.4,31950.6,35030.0,-0.8204,0.3684,137.1,96.6,0.538
20.42,31998.3,34937.3,-0.0312,-0.7465,137.1,96.6,0.538
20.44,31985.7,34975.9,-0.24,-0.2824,137.1,96.6,0.538
20.46,31971.2,34981.1,-0.4797,-0.2205,137.1,96.6,0.538
20.48,31955.7,34971.0,-0.736,-0.3417,137.1,96.6,0.538
20.5,31912.5,34901.5,-1.4513,-1.1768,137.1,96.6,0.538
20.52,31973.1,34868.6,-0.4485,-1.5726,137.1,96.6,0.538
20.54,31976.2,34964.0,-0.3967,-0.426,137.1,96.6,0.538
20.56,32024.7,35003.7,0.4052,0.0521,137.1,96.6,0.538
20.58,31943.4,35050.9,-0.9402,0.619,137.1,96.6,0.538
20.6,32047.9,35193.2,0.7881,2.3296,137.1,96.6,0.538
20.62,32046.2,35232.4,0.7604,2.8016,137.1,96.6,0.538
20.64,32084.8,35156.0,1.3982,1.8831,137.1,96.6,0.538
20.66,32129.8,35097.1,2.1427,1.1748,137.1,96.6,0.538
20.68,32007.0,35090.6,0.1122,1.0962,137.1,96.6,0.538
20.7,32027.4,35056.2,0.4491,0.6824,137.1,96.6,0.538
20.72,32003.8,35024.6,0.0583,0.3032,137.1,96.6,0.538
20.74,31999.9,35053.7,-0.0061,0.6523,137.1,96.6,0.538
20.76,32046.3,35047.6,0.7627,0.5797,137.1,96.6,0.538
20.78,31975.9,34984.4,-0.4025,-0.1798,137.1,96.6,0.538
20.8,31960.0,34966.9,-0.6658,-0.3908,137.1,96.6,0.538
20.82,31958.9,34972.9,-0.6841,-0.3187,137.1,96.6,0.538
20.84,31941.8,34927.9,-0.9662,-0.8595,137.1,96.6,0.538
20.86,32028.9,34916.1,0.4737,-1.001,137.1,96.6,0.538
20.88,31890.9,35004.0,-1.8081,0.0553,137.1,96.6,0.538
20.9,31843.9,35032.5,-2.585,0.3981,137.1,96.6,0.538
20.92,31951.8,34875.2,-0.8004,-1.4931,137.1,96.6,0.538
20.94,31983.6,34909.8,-0.2744,-1.0771,137.1,96.6,0.538
20.96,31965.1,34925.2,-0.5812,-0.892,137.1,96.6,0.538
20.98,32058.9,34909.6,0.9703,-1.0798,137.1,96.6,0.538
21.0,31973.9,35031.4,-0.4354,0.3844,137.1,96.6,0.538
21.02,32124.8,35131.5,2.0605,1.5887,137.1,96.6,0.538
21.04,32120.9,35083.6,1.9965,1.0128,137.1,96.6,0.538
21.06,32036.9,35106.9,0.6057,1.2922,137.1,96.6,0.538
21.08,31999.7,35107.3,-0.0083,1.2968,137.1,96.6,0.538
21.1,32080.0,34996.8,1.3186,-0.0308,137.1,96.6,0.538
21.12,32081.4,35082.5,1.342,0.999,137.1,96.6,0.538
21.14,32093.5,35020.6,1.542,0.2544,137.1,96.6,0.538
21.16,31902.0,35087.0,-1.6246,1.0537,137.1,96.6,0.538
21.18,32069.4,35048.7,1.1439,0.5925,137.1,96.6,0.538
21.2,31984.9,34927.9,-0.2539,-0.8597,137.1,96.6,0.538
21.22,32016.6,34995.3,0.2701,-0.049,137.1,96.6,0.538
21.24,31990.9,34956.8,-0.1536,-0.512,137.1,96.6,0.538
21.26,32009.0,34970.3,0.1454,-0.3501,137.1,96.6,0.538
21.28,31981.4,34911.7,-0.3107,-1.0543,137.1,96.6,0.538
21.3,31986.0,34998.8,-0.2355,-0.0074,137.1,96.6,0.538
21.32,31986.9,34924.3,-0.2202,-0.9025,137.1,96.6,0.538
21.34,32043.8,34867.8,0.7203,-1.5818,137.1,96.6,0.538
21.36,32013.4,34919.1,0.2176,-0.965,137.1,96.6,0.538
21.38,31976.0,34832.2,-0.4015,-2.0104,137.1,96.6,0.538
21.4,31965.3,34903.5,-0.5781,-1.1528,137.1,96.6,0.538
21.42,31969.8,34949.6,-0.5039,-0.5983,137.1,96.6,0.538
21.44,32006.1,35016.3,0.0963,0.2034,137.1,96.6,0.538
21.46,32085.2,35071.7,1.4059,0.8689,137.1,96.6,0.538
21.48,32067.1,35142.9,1.1059,1.7249,137.1,96.6,0.538
21.5,32030.9,35247.2,0.5079,2.9788,137.1,96.6,0.538
21.52,32149.5,35193.5,2.469,2.3337,137.1,96.6,0.538
21.54,32006.5,35069.8,0.1043,0.8462,137.1,96.6,0.538
21.56,31988.5,35074.1,-0.1948,0.8979,137.1,96.6,0.538
21.58,32048.3,35118.7,0.7954,1.4339,137.1,96.6,0.538
21.6,31998.7,34959.9,-0.026,-0.4753,137.1,96.6,0.538
21.62,32012.2,35074.4,0.198,0.9023,137.1,96.6,0.538
21.64,32077.4,34975.0,1.2762,-0.2929,137.1,96.6,0.538
21.66,32051.0,35000.7,0.8405,0.0156,137.1,96.6,0.538
21.68,31996.5,34872.8,-0.0618,-1.5219,137.1,96.6,0.538
21.7,31993.4,34920.6,-0.1135,-0.9478,137.1,96.6,0.538
21.72,31964.0,34914.3,-0.5991,-1.0227,137.1,96.6,0.538
21.74,31939.6,34928.9,-1.0022,-0.8478,137.1,96.6,0.538
21.76,32047.4,34938.8,0.781,-0.7291,137.1,96.6,0.538
21.78,31944.0,34986.8,-0.9307,-0.1516,137.1,96.6,0.538
21.8,31891.7,34938.9,-1.7955,-0.7276,137.1,96.6,0.538
21.82,31964.6,34865.4,-0.5885,-1.6112,137.1,96.6,0.538
21.84,31961.9,34957.1,-0.6338,-0.509,137.1,96.6,0.538
21.86,31977.4,34918.4,-0.3774,-0.9736,137.1,96.6,0.538
21.88,32058.3,35044.6,0.9598,0.5436,137.1,96.6,0.538
21.9,32102.4,35151.6,1.6901,1.83,137.1,96.6,0.538
21.92,32088.6,35134.3,1.4615,1.6225,137.1,96.6,0.538
21.94,32118.6,35067.5,1.9579,0.8189,137.1,96.6,0.538
21.96,32077.1,34973.3,1.2713,-0.314,137.1,96.6,0.538
21.98,32040.1,35044.4,0.66,0.5407,137.1,96.6,0.538
22.0,32138.6,34961.8,2.2882,-0.4526,137.1,96.6,0.538
22.02,32086.6,35009.6,1.4291,0.1228,137.1,96.6,0.538
22.04,32023.0,35017.1,0.3759,0.2133,137.1,96.6,0.538
22.06,31984.1,34990.1,-0.2672,-0.1115,137.1,96.6,0.538
22.08,31995.8,35016.9,-0.0727,0.2105,137.1,96.6,0.538
22.1,31973.5,34924.3,-0.4416,-0.9024,137.1,96.6,0.538
22.12,31948.8,34981.1,-0.8509,-0.2201,137.1,96.6,0.538
22.14,32046.6,35016.6,0.7663,0.2063,137.1,96.6,0.538
22.16,31962.0,34990.1,-0.633,-0.1113,137.1,96.6,0.538
22.18,31867.7,34888.4,-2.1915,-1.3343,137.1,96.6,0.538
22.2,31996.4,34922.5,-0.0635,-0.9239,137.1,96.6,0.538
22.22,32035.6,35005.2,0.5849,0.0697,137.1,96.6,0.538
22.24,31958.7,34978.3,-0.6869,-0.2538,137.1,96.6,0.538
22.26,31970.9,34968.9,-0.4844,-0.367,137.1,96.6,0.538
22.28,32017.3,34945.1,0.2816,-0.6527,137.1,96.6,0.538
22.3,31949.1,35089.4,-0.8453,1.0818,137.1,96.6,0.538
22.32,31930.9,35040.0,-1.1465,0.4882,137.1,96.6,0.538
22.34,32069.9,35080.1,1.1519,0.9702,137.1,96.6,0.538
22.36,32029.5,35135.8,0.4834,1.6397,137.1,96.6,0.538
22.38,32069.5,35088.4,1.1453,1.0706,137.1,96.6,0.538
22.4,32098.8,35078.8,1.6306,0.9541,137.1,96.6,0.538
22.42,32059.4,35041.3,0.9786,0.5036,137.1,96.6,0.538
22.44,32173.8,35005.2,2.8712,0.0695,137.1,96.6,0.538
22.46,31991.2,34995.8,-0.1498,-0.0438,137.1,96.6,0.538
22.48,31920.9,35050.4,-1.3119,0.6128,137.1,96.6,0.538
22.5,31985.1,35130.0,-0.2508,1.5701,137.1,96.6,0.538
22.52,31940.7,35047.2,-0.9852,0.5745,137.1,96.6,0.538
22.54,32015.1,34951.5,0.2464,-0.5753,137.1,96.6,0.538
22.56,31936.2,35046.5,-1.0592,0.5668,137.1,96.6,0.538
22.58,31909.0,34927.0,-1.5086,-0.87,137.1,96.6,0.538
22.6,31959.0,35000.9,-0.6827,0.018,137.1,96.6,0.538
22.62,31982.2,34918.3,-0.2986,-0.9749,137.1,96.6,0.538
22.64,31943.0,34922.7,-0.9465,-0.9218,137.1,96.6,0.538
22.66,31977.3,34925.9,-0.3792,-0.8834,137.1,96.6,0.538
22.68,31945.8,35011.2,-0.8995,0.1419,137.1,96.6,0.538
22.7,31902.1,34849.0,-1.6235,-1.808,137.1,96.6,0.538
22.72,31952.5,34961.1,-0.7901,-0.4609,137.1,96.6,0.538
22.74,31991.0,34929.7,-0.1532,-0.838,137.1,96.6,0.538
22.76,32082.0,34956.7,1.353,-0.5137,137.1,96.6,0.538
22.78,32087.1,35069.8,1.4371,0.8464,137.1,96.6,0.538
22.8,32084.6,35199.9,1.3947,2.41,137.1,96.6,0.538
22.82,32154.6,35096.9,2.5536,1.1717,137.1,96.6,0.538
22.84,31957.5,35101.8,-0.707,1.231,137.1,96.6,0.538
22.86,32031.9,35084.3,0.5235,1.0204,137.1,96.6,0.538
22.88,31960.5,35111.0,-0.6579,1.3417,137.1,96.6,0.538
22.9,32009.2,35070.0,0.1479,0.8489,137.1,96.6,0.538
22.92,31955.0,35024.0,-0.7478,0.2953,137.1,96.6,0.538
22.94,31988.7,35132.2,-0.1902,1.5968,137.1,96.6,0.538
22.96,31975.2,35039.3,-0.4142,0.4803,137.1,96.6,0.538
22.98,31973.8,34886.6,-0.4371,-1.3563,137.1,96.6,0.538
23.0,31992.6,34981.4,-0.1258,-0.2161,137.1,96.6,0.538
23.02,31973.7,34961.6,-0.4397,-0.4539,137.1,96.6,0.538
23.04,32017.2,34958.3,0.2811,-0.4946,137.1,96.6,0.538
23.06,31952.0,35000.3,-0.7973,0.0114,137.1,96.6,0.538
23.08,31973.1,34957.2,-0.4483,-0.5072,137.1,96.6,0.538
23.1,31989.4,34898.9,-0.1792,-1.2087,137.1,96.6,0.538
23.12,31961.3,34953.8,-0.6433,-0.548,137.1,96.6,0.538
23.14,31898.6,34889.7,-1.681,-1.3183,137.1,96.6,0.538
23.16,32003.2,34972.8,0.0498,-0.3195,137.1,96.6,0.538
23.18,31938.5,34941.6,-1.0215,-0.6943,137.1,96.6,0.538
23.2,32013.9,35188.8,0.2254,2.2766,137.1,96.6,0.538
23.22,31988.1,35087.4,-0.2007,1.0582,137.1,96.6,0.538
23.24,32151.0,35167.9,2.494,2.0255,137.1,96.6,0.538
23.26,32061.9,35111.6,1.02,1.3491,137.1,96.6,0.538
23.28,32121.0,35090.5,1.9973,1.0952,137.1,96.6,0.538
23.3,32058.2,35077.6,0.9581,0.9397,137.1,96.6,0.538
23.32,32058.9,34979.7,0.9707,-0.2366,137.1,96.6,0.538
23.34,32118.3,35030.0,1.9522,0.368,137.1,96.6,0.538
23.36,32028.8,34980.6,0.4721,-0.2258,137.1,96.6,0.538
23.38,32026.5,35092.4,0.435,1.1182,137.1,96.6,0.538
23.4,31965.1,34999.5,-0.5805,0.0016,137.1,96.6,0.538
23.42,31977.3,34995.8,-0.3794,-0.0434,137.1,96.6,0.538
23.44,31990.2,34922.1,-0.1653,-0.9296,137.1,96.6,0.538
23.46,32010.1,34944.2,0.1633,-0.663,137.1,96.6,0.538
23.48,31961.2,34986.6,-0.6458,-0.1544,137.1,96.6,0.538
23.5,32008.7,34977.4,0.1404,-0.2642,137.1,96.6,0.538
23.52,31975.9,34836.9,-0.4022,-1.9538,137.1,96.6,0.538
23.54,31955.9,34893.1,-0.7325,-1.2782,137.1,96.6,0.538
23.56,31993.1,35000.1,-0.1186,0.0083,137.1,96.6,0.538
23.58,32005.4,34978.2,0.0862,-0.2549,137.1,96.6,0.538
23.6,32008.6,34904.6,0.1384,-1.1395,137.1,96.6,0.538
23.62,31892.9,35099.3,-1.7747,1.2011,137.1,96.6,0.538
23.64,31964.2,35043.4,-0.5963,0.5294,137.1,96.6,0.538
23.66,32106.8,35111.1,1.7631,1.3429,137.1,96.6,0.538
23.68,32000.0,35167.0,-0.0036,2.0152,137.1,96.6,0.538
23.7,32059.5,35016.1,0.9796,0.2008,137.1,96.6,0.538
23.72,32087.6,35125.0,1.4448,1.5103,137.1,96.6,0.538
23.74,31998.7,35043.7,-0.025,0.5329,137.1,96.6,0.538
23.76,31919.9,35056.0,-1.329,0.6802,137.1,96.6,0.538
23.78,32007.9,35071.5,0.1268,0.8673,137.1,96.6,0.538
23.8,32047.2,35007.2,0.7775,0.0939,137.1,96.6,0.538
23.82,31953.5,34961.2,-0.7722,-0.4594,137.1,96.6,0.538
23.84,31985.8,34992.3,-0.2394,-0.0855,137.1,96.6,0.538
23.86,31979.1,34938.5,-0.3496,-0.7315,137.1,96.6,0.538
23.88,31980.7,34920.2,-0.3227,-0.9521,137.1,96.6,0.538
23.9,31988.5,34995.7,-0.1935,-0.045,137.1,96.6,0.538
23.92,31984.9,34956.6,-0.2532,-0.515,137.1,96.6,0.538
23.94,31856.9,35007.6,-2.3707,0.0981,137.1,96.6,0.538
23.96,31975.4,34857.5,-0.41,-1.7061,137.1,96.6,0.538
23.98,31918.7,34886.0,-1.3492,-1.363,137.1,96.6,0.538
24.0,32004.0,34966.7,0.0631,-0.3931,137.1,96.6,0.538
24.02,31954.8,34921.1,-0.7514,-0.9414,137.1,96.6,0.538
24.04,31946.8,35056.6,-0.883,0.6879,137.1,96.6,0.538
24.06,31958.4,35054.2,-0.6927,0.6589,137.1,96.6,0.538
24.08,31983.7,35099.5,-0.2732,1.2039,137.1,96.6,0.538
24.1,32173.0,35087.7,2.8569,1.0621,137.1,96.6,0.538
24.12,32077.7,35066.6,1.2821,0.808,137.1,96.6,0.538
24.14,32003.3,35096.7,0.0515,1.17,137.1,96.6,0.538
24.16,32072.5,35004.7,1.1946,0.064,137.1,96.6,0.538
24.18,32105.9,35085.6,1.748,1.0367,137.1,96.6,0.538
24.2,32011.0,35035.2,0.1785,0.4301,137.1,96.6,0.538
24.22,32094.3,35049.6,1.5558,0.6031,137.1,96.6,0.538
24.24,32037.6,35099.9,0.6187,1.2089,137.1,96.6,0.538
24.26,31953.9,34997.4,-0.7671,-0.0235,137.1,96.6,0.538
24.28,32007.3,35008.8,0.117,0.113,137.1,96.6,0.538
24.3,31954.6,34894.2,-0.7542,-1.2641,137.1,96.6,0.538
24.32,31982.9,34911.5,-0.2859,-1.0568,137.1,96.6,0.538
24.34,32006.5,34918.0,0.1034,-0.9782,137.1,96.6,0.538
24.36,31945.4,34984.8,-0.9071,-0.1759,137.1,96.6,0.538
24.38,31990.2,34971.3,-0.1661,-0.3375,137.1,96.6,0.538
24.4,31982.8,34976.9,-0.2886,-0.2708,137.1,96.6,0.538
24.42,31937.6,34794.1,-1.0354,-2.4682,137.1,96.6,0.538
24.44,32036.2,34919.4,0.5943,-0.9615,137.1,96.6,0.538
24.46,31993.7,34897.3,-0.1077,-1.2271,137.1,96.6,0.538
24.48,31985.8,35000.7,-0.2392,0.016,137.1,96.6,0.538
24.5,31942.2,35061.3,-0.9606,0.7445,137.1,96.6,0.538
24.52,32087.2,35044.2,1.4387,0.5389,137.1,96.6,0.538
24.54,32101.5,35112.5,1.6746,1.3593,137.1,96.6,0.538
24.56,32065.0,35035.7,1.0721,0.4364,137.1,96.6,0.538
24.58,32121.5,35069.9,2.006,0.848,137.1,96.6,0.538
24.6,31985.4,34942.9,-0.2459,-0.6789,137.1,96.6,0.538
24.62,32040.0,35020.4,0.6574,0.2521,137.1,96.6,0.538
24.64,32063.3,35040.3,1.043,0.4921,137.1,96.6,0.538
24.66,31977.4,35035.8,-0.3777,0.4378,137.1,96.6,0.538
24.68,32033.0,35053.2,0.5415,0.6469,137.1,96.6,0.538
24.7,31955.3,35064.7,-0.7438,0.7846,137.1,96.6,0.538
24.72,31974.3,34968.6,-0.4283,-0.3699,137.1,96.6,0.538
24.74,31940.7,35041.7,-0.9853,0.5082,137.1,96.6,0.538
24.76,31955.2,34965.5,-0.7451,-0.4079,137.1,96.6,0.538
24.78,31958.2,34968.6,-0.6953,-0.3708,137.1,96.6,0.538
24.8,31917.6,34905.1,-1.3664,-1.1336,137.1,96.6,0.538
24.82,31994.1,34950.8,-0.1011,-0.5841,137.1,96.6,0.538
24.84,32045.9,34911.3,0.7551,-1.0588,137.1,96.6,0.538
24.86,31965.7,34957.5,-0.5712,-0.5041,137.1,96.6,0.538
24.88,31932.6,34971.6,-1.1191,-0.3343,137.1,96.6,0.538
24.9,31958.7,34900.6,-0.6868,-1.1875,137.1,96.6,0.538
24.92,32000.8,35018.0,0.0096,0.2242,137.1,96.6,0.538
24.94,31914.3,35021.7,-1.4212,0.2686,137.1,96.6,0.538
24.96,32040.8,35104.6,0.6706,1.2646,137.1,96.6,0.538
24.98,32097.6,35119.1,1.6108,1.439,137.1,96.6,0.538
25.0,32133.3,35104.5,2.2007,1.2637,137.1,96.6,0.538
25.02,32025.3,35058.3,0.414,0.7083,137.1,96.6,0.538
25.04,31924.3,35090.1,-1.2556,1.0905,137.1,96.6,0.538
25.06,32181.4,35007.5,2.9968,0.0974,137.1,96.6,0.538
25.08,31991.7,34962.3,-0.141,-0.4458,137.1,96.6,0.538
25.1,32069.9,34947.9,1.1524,-0.6188,137.1,96.6,0.538
25.12,32025.8,34958.6,0.423,-0.4905,137.1,96.6,0.538
25.14,32052.4,35037.9,0.8634,0.4635,137.1,96.6,0.538
25.16,31993.1,34977.0,-0.1172,-0.2696,137.1,96.6,0.538
25.18,32001.0,34969.4,0.0119,-0.3611,137.1,96.6,0.538
25.2,31938.8,34901.0,-1.0155,-1.1835,137.1,96.6,0.538
25.22,31913.0,35043.7,-1.4421,0.5329,137.1,96.6,0.538
25.24,31934.7,34998.4,-1.0843,-0.0118,137.1,96.6,0.538
25.26,31986.9,34897.1,-0.2209,-1.2296,137.1,96.6,0.538
25.28,31955.8,34915.7,-0.7355,-1.0063,137.1,96.6,0.538
25.3,31815.6,34915.8,-3.0539,-1.0044,137.1,96.6,0.538
25.32,31931.3,34876.3,-1.1409,-1.4801,137.1,96.6,0.538
25.34,31974.5,34910.5,-0.4258,-1.0691,137.1,96.6,0.538
25.36,32014.1,35077.3,0.2289,0.9366,137.1,96.6,0.538
25.38,32096.6,35038.2,1.5941,0.4664,137.1,96.6,0.538
25.4,32113.0,35154.3,1.8645,1.8622,137.1,96.6,0.538
25.42,32108.5,35058.2,1.7915,0.7065,137.1,96.6,0.538
25.44,32039.8,35115.4,0.6546,1.3952,137.1,96.6,0.538
25.46,32058.1,35124.4,0.9569,1.5025,137.1,96.6,0.538
25.48,32015.4,35083.7,0.2505,1.0137,137.1,96.6,0.538
25.5,32018.4,35068.4,0.2999,0.8299,137.1,96.6,0.538
25.52,31918.7,34999.6,-1.3479,0.0025,137.1,96.6,0.538
25.54,31975.9,35022.6,-0.4019,0.2786,137.1,96.6,0.538
25.56,31943.8,35123.8,-0.9333,1.4956,137.1,96.6,0.538
25.58,31950.3,35061.5,-0.8267,0.7464,137.1,96.6,0.538
25.6,32012.1,35016.5,0.1958,0.2061,137.1,96.6,0.538
25.62,32014.4,34961.9,0.2349,-0.4507,137.1,96.6,0.538
25.64,32016.0,34914.9,0.2602,-1.0155,137.1,96.6,0.538
25.66,31954.7,34942.1,-0.7528,-0.6884,137.1,96.6,0.538
25.68,31931.8,34938.3,-1.1312,-0.735,137.1,96.6,0.538
25.7,31914.8,35024.0,-1.4132,0.2952,137.1,96.6,0.538
25.72,31922.2,34903.9,-1.2906,-1.1478,137.1,96.6,0.538
25.74,32079.2,34906.2,1.3057,-1.1202,137.1,96.6,0.538
25.76,31932.6,34917.4,-1.1182,-0.9863,137.1,96.6,0.538
25.78,31975.1,34934.4,-0.4155,-0.7819,137.1,96.6,0.538
25.8,31982.1,35021.8,-0.3004,0.2698,137.1,96.6,0.538
25.82,31894.3,35039.9,-1.752,0.4866,137.1,96.6,0.538
25.84,32036.8,35047.6,0.6052,0.5797,137.1,96.6,0.538
25.86,32082.6,35093.9,1.3626,1.1359,137.1,96.6,0.538
25.88,32103.2,35157.8,1.7027,1.9046,137.1,96.6,0.538
25.9,32024.0,35055.7,0.3931,0.6768,137.1,96.6,0.538
25.92,32120.7,35157.5,1.9922,1.9004,137.1,96.6,0.538
25.94,32050.8,35047.5,0.8368,0.5785,137.1,96.6,0.538
25.96,31975.5,35032.3,-0.4086,0.3961,137.1,96.6,0.538
25.98,32111.5,35089.6,1.8397,1.0849,137.1,96.6,0.538
26.0,32002.9,34958.6,0.0443,-0.4902,137.1,96.6,0.538
26.02,31974.4,35065.8,-0.4276,0.7989,137.1,96.6,0.538
26.04,31973.9,35046.1,-0.4362,0.5618,137.1,96.6,0.538
26.06,31985.2,34981.1,-0.248,-0.2202,137.1,96.6,0.538
26.08,32023.5,34922.3,0.3853,-0.9265,137.1,96.6,0.538
26.1,31960.8,34957.2,-0.6526,-0.5073,137.1,96.6,0.538
26.12,31901.9,34949.5,-1.6257,-0.5994,137.1,96.6,0.538
26.14,31932.4,34927.9,-1.1222,-0.859,137.1,96.6,0.538
26.16,31861.7,34961.7,-2.2917,-0.4532,137.1,96.6,0.538
26.18,31955.5,34943.2,-0.7406,-0.6753,137.1,96.6,0.538
26.2,32072.0,35021.2,1.1866,0.2623,137.1,96.6,0.538
26.22,31901.7,34929.6,-1.6298,-0.8385,137.1,96.6,0.538
26.24,32030.8,34993.2,0.5053,-0.0747,137.1,96.6,0.538
26.26,31958.3,35081.9,-0.6936,0.9925,137.1,96.6,0.538
26.28,31985.1,35087.7,-0.2508,1.0613,137.1,96.6,0.538
26.3,32075.1,35178.4,1.2377,2.152,137.1,96.6,0.538
26.32,32086.5,35123.1,1.427,1.4876,137.1,96.6,0.538
26.34,32026.1,35141.1,0.4274,1.7037,137.1,96.6,0.538
26.36,32112.3,35001.7,1.8531,0.028,137.1,96.6,0.538
26.38,32006.7,35044.5,0.1075,0.5427,137.1,96.6,0.538
26.4,32031.7,34983.8,0.5206,-0.1878,137.1,96.6,0.538
26.42,31991.1,35051.5,-0.1506,0.6267,137.1,96.6,0.538
26.44,31951.7,34871.5,-0.8033,-1.538,137.1,96.6,0.538
26.46,31980.7,34963.5,-0.3236,-0.432,137.1,96.6,0.538
26.48,32024.7,34971.4,0.4052,-0.3369,137.1,96.6,0.538
26.5,31909.2,34918.9,-1.5057,-0.9679,137.1,96.6,0.538
26.52,32037.1,34998.5,0.6099,-0.0113,137.1,96.6,0.538
26.54,31895.1,34910.9,-1.7384,-1.0635,137.1,96.6,0.538
26.56,32028.4,34907.4,0.4655,-1.1065,137.1,96.6,0.538
26.58,31854.9,34940.7,-2.4034,-0.7056,137.1,96.6,0.538
26.6,31906.9,34949.1,-1.5431,-0.6045,137.1,96.6,0.538
26.62,31929.1,34934.1,-1.1757,-0.7854,137.1,96.6,0.538
26.64,31946.5,34924.2,-0.8892,-0.904,137.1,96.6,0.538
26.66,31918.8,34904.5,-1.3475,-1.1404,137.1,96.6,0.538
26.68,31922.3,35029.4,-1.2897,0.3606,137.1,96.6,0.538
26.7,32012.4,35048.3,0.2012,0.5877,137.1,96.6,0.538
26.72,32032.1,35142.2,0.5279,1.7165,137.1,96.6,0.538
26.74,32024.0,35137.2,0.3931,1.6571,137.1,96.6,0.538
26.76,31982.5,35102.3,-0.2938,1.2366,137.1,96.6,0.538
26.78,32032.4,35119.6,0.5324,1.4456,137.1,96.6,0.538
26.8,32123.7,35034.6,2.042,0.4238,137.1,96.6,0.538
26.82,32020.8,35050.6,0.341,0.615,137.1,96.6,0.538
26.84,32039.3,35056.2,0.6464,0.683,137.1,96.6,0.538
26.86,32036.9,35001.8,0.6069,0.0293,137.1,96.6,0.538
26.88,31926.1,34892.5,-1.2261,-1.2855,137.1,96.6,0.538
26.9,31968.1,35037.5,-0.5308,0.458,137.1,96.6,0.538
26.92,31926.3,34972.6,-1.2226,-0.3226,137.1,96.6,0.538
26.94,31955.0,34994.0,-0.7482,-0.0643,137.1,96.6,0.538
26.96,31996.4,34900.4,-0.0634,-1.1907,137.1,96.6,0.538
26.98,31886.4,34974.9,-1.8821,-0.2948,137.1,96.6,0.538
27.0,31970.6,34900.6,-0.4903,-1.1883,137.1,96.6,0.538
27.02,31922.3,34914.9,-1.2892,-1.0163,137.1,96.6,0.538
27.04,31939.3,34953.2,-1.0073,-0.5551,137.1,96.6,0.538
27.06,31984.9,34811.3,-0.2538,-2.2609,137.1,96.6,0.538
27.08,31989.9,34814.8,-0.1716,-2.2187,137.1,96.6,0.538
27.1,32038.9,34946.0,0.6403,-0.6417,137.1,96.6,0.538
27.12,32068.2,35006.6,1.1243,0.0863,137.1,96.6,0.538
27.14,32038.0,34980.0,0.6239,-0.2334,137.1,96.6,0.538
27.16,31953.5,35166.3,-0.7725,2.0064,137.1,96.6,0.538
27.18,31977.8,35152.7,-0.3705,1.8435,137.1,96.6,0.538
27.2,32001.3,35091.6,0.018,1.1079,137.1,96.6,0.538
27.22,32073.9,35048.4,1.2189,0.5889,137.1,96.6,0.538
27.24,31961.7,35091.3,-0.6369,1.1045,137.1,96.6,0.538
27.26,32096.9,34977.3,1.5996,-0.266,137.1,96.6,0.538
27.28,31956.8,35051.5,-0.7179,0.627,137.1,96.6,0.538
27.3,32004.8,35102.4,0.0762,1.2389,137.1,96.6,0.538
27.32,32014.0,35007.3,0.2272,0.0952,137.1,96.6,0.538
27.34,31958.6,34943.8,-0.689,-0.6682,137.1,96.6,0.538
27.36,31951.2,34924.0,-0.8106,-0.9058,137.1,96.6,0.538
27.38,31947.5,35010.9,-0.8714,0.1386,137.1,96.6,0.538
27.4,32047.8,34913.7,0.7875,-1.0298,137.1,96.6,0.538
27.42,32002.4,35003.9,0.0359,0.0543,137.1,96.6,0.538
27.44,31962.9,34966.6,-0.6168,-0.3945,137.1,96.6,0.538
27.46,31992.4,35010.2,-0.1302,0.1302,137.1,96.6,0.538
27.48,31955.1,34955.4,-0.7467,-0.5293,137.1,96.6,0.538
27.5,31979.1,34863.3,-0.3487,-1.6362,137.1,96.6,0.538
27.52,31939.6,35029.7,-1.0029,0.3645,137.1,96.6,0.538
27.54,31976.9,34907.9,-0.3858,-1.0996,137.1,96.6,0.538
27.56,31988.5,35003.1,-0.1948,0.0446,137.1,96.6,0.538
27.58,32176.9,35052.4,2.9214,0.6368,137.1,96.6,0.538
27.6,32104.6,35122.3,1.7256,1.4774,137.1,96.6,0.538
27.62,32081.3,35049.2,1.3401,0.5989,137.1,96.6,0.538
27.64,32064.4,35141.4,1.0607,1.707,137.1,96.6,0.538
27.66,32098.7,35034.0,1.6292,0.4159,137.1,96.6,0.538
27.68,32086.5,34957.3,1.427,-0.5063,137.1,96.6,0.538
27.7,32075.9,34984.1,1.2521,-0.1836,137.1,96.6,0.538
27.72,31970.8,35017.8,-0.487,0.2213,137.1,96.6,0.538
27.74,31978.3,35035.4,-0.3621,0.4335,137.1,96.6,0.538
27.76,31970.9,35064.3,-0.4844,0.7799,137.1,96.6,0.538
27.78,31983.6,34893.9,-0.2743,-1.2677,137.1,96.6,0.538
27.8,32013.4,34936.7,0.2171,-0.7543,137.1,96.6,0.538
27.82,32052.6,35014.5,0.8662,0.1817,137.1,96.6,0.538
27.84,31977.8,34919.8,-0.3706,-0.9567,137.1,96.6,0.538
27.86,31904.6,34931.0,-1.5825,-0.8225,137.1,96.6,0.538
27.88,31937.1,34966.4,-1.0448,-0.3964,137.1,96.6,0.538
27.9,31918.5,34979.1,-1.3512,-0.2439,137.1,96.6,0.538
27.92,31979.5,34906.8,-0.3435,-1.1135,137.1,96.6,0.538
27.94,31999.5,34862.1,-0.0125,-1.6505,137.1,96.6,0.538
27.96,32008.1,34990.7,0.1295,-0.1044,137.1,96.6,0.538
27.98,31897.3,35020.1,-1.7024,0.2493,137.1,96.6,0.538
28.0,31955.0,35080.2,-0.7486,0.971,137.1,96.6,0.538
28.02,31983.8,35147.0,-0.2724,1.7751,137.1,96.6,0.538
28.04,32080.0,35096.1,1.3189,1.1631,137.1,96.6,0.538
28.06,32066.5,35113.5,1.0957,1.3717,137.1,96.6,0.538
28.08,31959.4,35118.3,-0.6748,1.4296,137.1,96.6,0.538
28.1,32028.8,35098.3,0.4725,1.1893,137.1,96.6,0.538
28.12,32118.8,34965.8,1.961,-0.4033,137.1,96.6,0.538
28.14,32067.9,34977.4,1.119,-0.2643,137.1,96.6,0.538
28.16,31969.8,35010.5,-0.503,0.1337,137.1,96.6,0.538
28.18,31975.9,35024.3,-0.4021,0.2989,137.1,96.6,0.538
28.2,32008.3,35026.8,0.1332,0.33,137.1,96.6,0.538
28.22,31896.2,35033.1,-1.7208,0.4056,137.1,96.6,0.538
28.24,31911.5,34943.8,-1.467,-0.6688,137.1,96.6,0.538
28.26,31986.5,35012.7,-0.2264,0.1604,137.1,96.6,0.538
28.28,31971.9,34964.5,-0.4679,-0.4197,137.1,96.6,0.538
28.3,31997.2,34896.2,-0.0503,-1.2404,137.1,96.6,0.538
28.32,31975.2,34939.3,-0.4136,-0.7221,137.1,96.6,0.538
28.34,31991.8,34951.9,-0.1389,-0.5713,137.1,96.6,0.538
28.36,31973.4,34896.3,-0.4443,-1.2397,137.1,96.6,0.538
28.38,31949.5,34796.0,-0.8393,-2.4451,137.1,96.6,0.538
28.4,32018.7,34906.7,0.3053,-1.1147,137.1,96.6,0.538
28.42,31998.6,34936.5,-0.0278,-0.7564,137.1,96.6,0.538
28.44,32032.2,35068.3,0.5281,0.8289,137.1,96.6,0.538
28.46,31987.0,35099.8,-0.2188,1.2065,137.1,96.6,0.538
28.48,32160.0,35091.6,2.6422,1.1086,137.1,96.6,0.538
28.5,32122.1,35164.8,2.0161,1.989,137.1,96.6,0.538
28.52,32099.1,35090.4,1.6355,1.0941,137.1,96.6,0.538
28.54,32046.3,35041.6,0.7613,0.5068,137.1,96.6,0.538
28.56,32033.2,35096.4,0.5446,1.166,137.1,96.6,0.538
28.58,32092.5,35101.5,1.526,1.2281,137.1,96.6,0.538
28.6,32006.5,35065.5,0.1037,0.7951,137.1,96.6,0.538
28.62,32036.7,35018.6,0.6026,0.2311,137.1,96.6,0.538
28.64,32091.6,34936.5,1.5106,-0.7564,137.1,96.6,0.538
28.66,31950.9,35005.5,-0.8165,0.0734,137.1,96.6,0.538
28.68,32046.3,34863.7,0.7617,-1.6319,137.1,96.6,0.538
28.7,32069.4,34878.7,1.144,-1.4511,137.1,96.6,0.538
28.72,32036.8,34944.0,0.6041,-0.6658,137.1,96.6,0.538
28.74,31936.3,34932.2,-1.0571,-0.8081,137.1,96.6,0.538
28.76,31926.2,35030.6,-1.2248,0.3749,137.1,96.6,0.538
28.78,31906.5,34947.6,-1.55,-0.6229,137.1,96.6,0.538
28.8,31951.6,34851.7,-0.8047,-1.776,137.1,96.6,0.538
28.82,31985.9,34959.3,-0.2372,-0.4818,137.1,96.6,0.538
28.84,32032.4,34916.7,0.5322,-0.9946,137.1,96.6,0.538
28.86,31978.2,35015.6,-0.365,0.1952,137.1,96.6,0.538
28.88,32072.2,34986.8,1.1901,-0.1515,137.1,96.6,0.538
28.9,32002.2,35086.5,0.0328,1.0475,137.1,96.6,0.538
28.92,31996.2,35102.9,-0.0666,1.2439,137.1,96.6,0.538
28.94,32122.5,35109.7,2.022,1.3256,137.1,96.6,0.538
28.96,32037.3,34994.3,0.6132,-0.0614,137.1,96.6,0.538
28.98,32035.0,35121.8,0.5749,1.4721,137.1,96.6,0.538
29.0,32008.1,35064.6,0.1302,0.7845,137.1,96.6,0.538
29.02,32028.1,35024.5,0.4614,0.3018,137.1,96.6,0.538
29.04,31996.8,34957.3,-0.057,-0.5057,137.1,96.6,0.538
29.06,31982.7,35006.1,-0.2893,0.0806,137.1,96.6,0.538
29.08,31933.8,34943.1,-1.0981,-0.6763,137.1,96.6,0.538
29.1,31977.0,35099.3,-0.3848,1.2012,137.1,96.6,0.538
29.12,32057.9,34934.4,0.9538,-0.7814,137.1,96.6,0.538
29.14,31982.9,34892.5,-0.2872,-1.2852,137.1,96.6,0.538
29.16,31930.4,34963.1,-1.1555,-0.4358,137.1,96.6,0.538
29.18,31999.5,34921.0,-0.0118,-0.9422,137.1,96.6,0.538
29.2,31943.8,34996.1,-0.9333,-0.0401,137.1,96.6,0.538
29.22,31961.2,34939.4,-0.6463,-0.7214,137.1,96.6,0.538
29.24,31846.4,34936.1,-2.5437,-0.7611,137.1,96.6,0.538
29.26,31989.3,35034.1,-0.1816,0.4171,137.1,96.6,0.538
29.28,31977.1,34921.6,-0.3825,-0.9356,137.1,96.6,0.538
29.3,31936.4,34999.3,-1.0559,-0.0015,137.1,96.6,0.538
29.32,32071.0,35102.2,1.1714,1.2358,137.1,96.6,0.538
29.34,32063.6,35089.9,1.0484,1.0879,137.1,96.6,0.538
29.36,32068.7,35136.3,1.133,1.6457,137.1,96.6,0.538
29.38,32102.9,35153.7,1.6987,1.8552,137.1,96.6,0.538
29.4,32056.2,35176.5,0.9254,2.1289,137.1,96.6,0.538
29.42,32090.5,35082.2,1.4931,0.9954,137.1,96.6,0.538
29.44,31991.2,35092.2,-0.1486,1.1152,137.1,96.6,0.538
29.46,31915.3,34974.2,-1.4044,-0.3031,137.1,96.6,0.538
29.48,31943.2,35015.5,-0.9426,0.1938,137.1,96.6,0.538
29.5,31977.1,35031.6,-0.3829,0.3869,137.1,96.6,0.538
29.52,32016.9,35045.8,0.276,0.558,137.1,96.6,0.538
29.54,31924.6,34940.7,-1.2502,-0.7058,137.1,96.6,0.538
29.56,31867.0,34972.9,-2.2043,-0.3185,137.1,96.6,0.538
29.58,31970.0,34819.3,-0.4997,-2.1646,137.1,96.6,0.538
29.6,31972.9,34940.5,-0.4517,-0.7086,137.1,96.6,0.538
29.62,31951.7,35020.9,-0.8035,0.2585,137.1,96.6,0.538
29.64,31937.0,34947.8,-1.0455,-0.6199,137.1,96.6,0.538
29.66,31959.3,34918.6,-0.677,-0.9719,137.1,96.6,0.538
29.68,32014.5,34905.9,0.2358,-1.124,137.1,96.6,0.538
29.7,31845.9,34883.5,-2.5524,-1.3934,137.1,96.6,0.538
29.72,31889.4,34920.4,-1.8331,-0.9492,137.1,96.6,0.538
29.74,32008.1,35074.5,0.1301,0.9032,137.1,96.6,0.538
29.76,32072.4,35039.3,1.1936,0.4804,137.1,96.6,0.538
29.78,31972.2,35148.9,-0.464,1.7976,137.1,96.6,0.538
29.8,32013.5,35143.6,0.2198,1.734,137.1,96.6,0.538
29.82,32055.3,35108.2,0.9115,1.308,137.1,96.6,0.538
29.84,32066.3,35084.5,1.0929,1.0233,137.1,96.6,0.538
29.86,32029.8,35101.3,0.4897,1.225,137.1,96.6,0.538
29.88,32104.7,35038.4,1.7273,0.4688,137.1,96.6,0.538
29.9,32032.4,35120.7,0.5323,1.4582,137.1,96.6,0.538
29.92,31967.4,34999.2,-0.5435,-0.0029,137.1,96.6,0.538
29.94,31977.6,34958.5,-0.3739,-0.4912,137.1,96.6,0.538
29.96,32067.8,34986.7,1.1176,-0.1527,137.1,96.6,0.538
29.98,31957.5,34937.6,-0.7075,-0.7431,137.1,96.6,0.538
30.0,31850.6,34907.2,-2.4751,-1.1083,137.1,96.6,0.538
30.02,31899.5,34901.7,-1.6662,-1.1745,137.1,96.6,0.538
30.04,31952.0,35022.4,-0.7983,0.2761,137.1,96.6,0.538
30.06,32008.9,34959.2,0.1434,-0.4838,137.1,96.6,0.538
30.08,32012.2,34943.2,0.1987,-0.6761,137.1,96.6,0.538
30.1,31904.5,34962.7,-1.5835,-0.4416,137.1,96.6,0.538
30.12,31902.8,34979.8,-1.6109,-0.2359,137.1,96.6,0.538
30.14,31955.7,34893.4,-0.7367,-1.2743,137.1,96.6,0.538
30.16,31951.0,34942.9,-0.8145,-0.6794,137.1,96.6,0.538
30.18,32008.8,35070.7,0.1415,0.8572,137.1,96.6,0.538
30.2,32019.4,35048.9,0.3174,0.5952,137.1,96.6,0.538
30.22,32025.6,35098.6,0.4191,1.1931,137.1,96.6,0.538
30.24,32050.1,35128.6,0.8242,1.5528,137.1,96.6,0.538
30.26,32093.6,35059.4,1.544,0.7214,137.1,96.6,0.538
30.28,32050.3,35042.1,0.8287,0.5139,137.1,96.6,0.538
30.3,32038.5,34928.9,0.6326,-0.8471,137.1,96.6,0.538
30.32,31993.2,35019.6,-0.1159,0.2429,137.1,96.6,0.538
30.34,31964.8,34992.2,-0.5853,-0.0859,137.1,96.6,0.538
30.36,32027.0,34924.9,0.4422,-0.896,137.1,96.6,0.538
30.38,32003.2,34977.3,0.0484,-0.2658,137.1,96.6,0.538
30.4,31957.2,34950.5,-0.711,-0.5874,137.1,96.6,0.538
30.42,31886.6,34876.9,-1.8792,-1.4727,137.1,96.6,0.538
30.44,32069.9,34955.7,1.1523,-0.5252,137.1,96.6,0.538
30.46,31892.0,34904.2,-1.7909,-1.1445,137.1,96.6,0.538
30.48,31979.0,34911.5,-0.3519,-1.0569,137.1,96.6,0.538
30.5,31966.0,34937.7,-0.5655,-0.7417,137.1,96.6,0.538
30.52,31999.5,34908.6,-0.0123,-1.0916,137.1,96.6,0.538
30.54,31992.1,34901.1,-0.1349,-1.1821,137.1,96.6,0.538
30.56,32033.9,34778.7,0.5572,-2.6534,137.1,96.6,0.538
30.58,31924.3,34930.0,-1.2562,-0.8348,137.1,96.6,0.538
30.6,32005.0,34893.7,0.0792,-1.2711,137.1,96.6,0.538
30.62,31976.0,35068.3,-0.4014,0.8281,137.1,96.6,0.538
30.64,31996.9,35143.3,-0.0548,1.7296,137.1,96.6,0.538
30.66,32089.1,34999.3,1.4706,-0.0017,137.1,96.6,0.538
30.68,32091.3,35046.0,1.5064,0.5603,137.1,96.6,0.538
30.7,32044.9,35179.5,0.7383,2.1658,137.1,96.6,0.538
30.72,32044.1,35097.5,0.7264,1.179,137.1,96.6,0.538
30.74,32039.4,35019.6,0.648,0.243,137.1,96.6,0.538
30.76,32074.9,34977.1,1.235,-0.2685,137.1,96.6,0.538
30.78,31967.0,35031.6,-0.5496,0.3876,137.1,96.6,0.538
30.8,32037.2,34941.8,0.6112,-0.6921,137.1,96.6,0.538
30.82,31997.0,35003.0,-0.0539,0.0432,137.1,96.6,0.538
30.84,31926.8,34950.4,-1.2142,-0.5895,137.1,96.6,0.538
30.86,31931.1,34956.9,-1.1434,-0.511,137.1,96.6,0.538
30.88,32044.6,34994.4,0.7339,-0.0601,137.1,96.6,0.538
30.9,32019.3,34904.1,0.3147,-1.1453,137.1,96.6,0.538
30.92,31997.9,34872.1,-0.0388,-1.5298,137.1,96.6,0.538
30.94,31850.6,34975.4,-2.4751,-0.2883,137.1,96.6,0.538
30.96,32028.4,34977.3,0.4652,-0.2662,137.1,96.6,0.538
30.98,31836.6,34859.4,-2.7067,-1.683,137.1,96.6,0.538
31.0,31913.9,34860.5,-1.4286,-1.6692,137.1,96.6,0.538
31.02,32063.5,34913.5,1.0459,-1.0327,137.1,96.6,0.538
31.04,31940.7,34943.5,-0.9839,-0.6717,137.1,96.6,0.538
31.06,31988.0,35024.3,-0.202,0.2999,137.1,96.6,0.538
31.08,31915.9,35127.3,-1.3954,1.5372,137.1,96.6,0.538
31.1,31942.6,35143.4,-0.9529,1.7314,137.1,96.6,0.538
31.12,32031.0,35178.1,0.5091,2.1481,137.1,96.6,0.538
31.14,31966.6,35117.1,-0.5564,1.4148,137.1,96.6,0.538
31.16,31995.1,35040.0,-0.0848,0.4883,137.1,96.6,0.538
31.18,32034.6,35017.8,0.5686,0.2216,137.1,96.6,0.538
31.2,31934.7,34960.8,-1.0838,-0.4636,137.1,96.6,0.538
31.22,32055.6,34922.1,0.9164,-0.9296,137.1,96.6,0.538
31.24,32026.0,34945.7,0.4259,-0.6455,137.1,96.6,0.538
31.26,32065.0,35017.0,1.0706,0.2119,137.1,96.6,0.538
31.28,31973.7,35011.6,-0.4381,0.1472,137.1,96.6,0.538
31.3,31919.2,34881.6,-1.3398,-1.4166,137.1,96.6,0.538
31.32,31986.7,34883.5,-0.2231,-1.3934,137.1,96.6,0.538
31.34,32011.3,35009.2,0.1837,0.1174,137.1,96.6,0.538
31.36,32016.4,34934.0,0.267,-0.7865,137.1,96.6,0.538
31.38,32021.5,34965.6,0.3523,-0.4061,137.1,96.6,0.538
31.4,31937.8,34927.8,-1.0323,-0.8606,137.1,96.6,0.538
31.42,31936.8,34885.8,-1.0485,-1.3661,137.1,96.6,0.538
31.44,31867.9,34876.0,-2.1884,-1.483,137.1,96.6,0.538
31.46,31974.7,34868.5,-0.4227,-1.5739,137.1,96.6,0.538
31.48,31947.2,34986.3,-0.877,-0.158,137.1,96.6,0.538
31.5,32011.0,34996.9,0.1789,-0.0295,137.1,96.6,0.538
31.52,32048.4,35124.1,0.7972,1.4996,137.1,96.6,0.538
31.54,32076.2,35155.8,1.2567,1.8803,137.1,96.6,0.538
31.56,32109.8,35132.9,1.8116,1.6051,137.1,96.6,0.538
31.58,32094.3,35196.1,1.5552,2.3649,137.1,96.6,0.538
31.6,32013.9,35068.5,0.2255,0.8313,137.1,96.6,0.538
31.62,32052.6,35104.7,0.8666,1.2661,137.1,96.6,0.538
31.64,32057.4,35094.2,0.9454,1.1397,137.1,96.6,0.538
31.66,31956.5,35058.6,-0.724,0.7118,137.1,96.6,0.538
31.68,31969.3,34960.6,-0.5122,-0.4667,137.1,96.6,0.538
31.7,32034.3,35045.9,0.5634,0.5596,137.1,96.6,0.538
31.72,31925.5,35007.6,-1.2364,0.0992,137.1,96.6,0.538
31.74,31991.7,34999.4,-0.1414,0.0004,137.1,96.6,0.538
31.76,32016.6,35007.0,0.2705,0.0911,137.1,96.6,0.538
31.78,31919.6,34978.9,-1.3343,-0.2465,137.1,96.6,0.538
31.8,32000.8,34974.3,0.0088,-0.3022,137.1,96.6,0.538
31.82,31971.7,34877.1,-0.4715,-1.47,137.1,96.6,0.538
31.84,31975.4,34932.6,-0.41,-0.8035,137.1,96.6,0.538
31.86,31987.5,34863.9,-0.2104,-1.6285,137.1,96.6,0.538
31.88,31948.5,34891.9,-0.8559,-1.2927,137.1,96.6,0.538
31.9,31923.0,34942.7,-1.2779,-0.6818,137.1,96.6,0.538
31.92,31913.6,34936.8,-1.4328,-0.7531,137.1,96.6,0.538
31.94,32038.9,34999.9,0.6396,0.0057,137.1,96.6,0.538
31.96,32018.4,35047.4,0.3008,0.5768,137.1,96.6,0.538
31.98,31991.5,35172.7,-0.1438,2.0833,137.1,96.6,0.538
32.0,32034.2,35047.4,0.5611,0.5777,137.1,96.6,0.538
32.02,32067.2,35108.9,1.108,1.3165,137.1,96.6,0.538
32.04,31951.9,35123.4,-0.8001,1.4912,137.1,96.6,0.538
32.06,32001.4,35016.2,0.0196,0.2015,137.1,96.6,0.538
32.08,32010.3,35061.5,0.1659,0.7471,137.1,96.6,0.538
32.1,31990.5,34948.6,-0.1607,-0.6106,137.1,96.6,0.538
32.12,32062.7,34997.1,1.0336,-0.028,137.1,96.6,0.538
32.14,31955.3,35052.2,-0.744,0.6346,137.1,96.6,0.538
32.16,32041.4,34872.5,0.6809,-1.526,137.1,96.6,0.538
32.18,31971.0,35057.5,-0.4835,0.6982,137.1,96.6,0.538
32.2,32001.4,35007.3,0.019,0.0954,137.1,96.6,0.538
32.22,31875.2,34987.7,-2.0679,-0.14,137.1,96.6,0.538
32.24,31988.2,34970.5,-0.1989,-0.3474,137.1,96.6,0.538
32.26,31887.2,34875.2,-1.8692,-1.4934,137.1,96.6,0.538
32.28,31927.1,34983.0,-1.2097,-0.1977,137.1,96.6,0.538
32.3,31869.4,34839.8,-2.1636,-1.9185,137.1,96.6,0.538
32.32,31910.2,34956.9,-1.4899,-0.5104,137.1,96.6,0.538
32.34,32028.1,34993.3,0.4612,-0.0738,137.1,96.6,0.538
32.36,31899.5,35005.0,-1.6655,0.0672,137.1,96.6,0.538
32.38,32042.5,34995.9,0.6983,-0.0414,137.1,96.6,0.538
32.4,32092.6,35113.3,1.5284,1.369,137.1,96.6,0.538
32.42,31948.6,35053.0,-0.854,0.6439,137.1,96.6,0.538
32.44,32098.4,35098.3,1.6232,1.1885,137.1,96.6,0.538
32.46,32121.6,35140.2,2.0079,1.6933,137.1,96.6,0.538
32.48,32074.1,35030.6,1.2224,0.3756,137.1,96.6,0.538
32.5,31955.5,35017.9,-0.7395,0.222,137.1,96.6,0.538
32.52,31970.7,35131.0,-0.4881,1.5816,137.1,96.6,0.538
32.54,32049.5,34992.7,0.8144,-0.0808,137.1,96.6,0.538
32.56,32050.5,35035.0,0.8322,0.4283,137.1,96.6,0.538
32.58,31983.4,34986.3,-0.2789,-0.158,137.1,96.6,0.538
32.6,32040.5,34973.2,0.6653,-0.3145,137.1,96.6,0.538
32.62,32082.3,34946.2,1.3579,-0.64,137.1,96.6,0.538
32.64,32004.3,34955.9,0.0668,-0.5225,137.1,96.6,0.538
32.66,31958.4,35000.1,-0.6916,0.0081,137.1,96.6,0.538
32.68,31949.6,34904.9,-0.8374,-1.1358,137.1,96.6,0.538
32.7,31958.1,34928.2,-0.6964,-0.8556,137.1,96.6,0.538
32.72,32005.4,34885.8,0.085,-1.366,137.1,96.6,0.538
32.74,31949.1,34931.2,-0.8452,-0.8197,137.1,96.6,0.538
32.76,31999.9,34843.3,-0.0049,-1.8772,137.1,96.6,0.538
32.78,31888.4,35000.4,-1.8494,0.0125,137.1,96.6,0.538
32.8,31989.0,34862.9,-0.1855,-1.6405,137.1,96.6,0.538
32.82,32022.1,35095.4,0.3611,1.1544,137.1,96.6,0.538
32.84,32042.8,35085.9,0.7043,1.0402,137.1,96.6,0.538
32.86,32046.3,35163.7,0.7619,1.9749,137.1,96.6,0.538
32.88,32041.6,35139.7,0.684,1.6864,137.1,96.6,0.538
32.9,31994.7,35129.8,-0.0913,1.5674,137.1,96.6,0.538
32.92,32098.7,34984.3,1.6281,-0.1815,137.1,96.6,0.538
32.94,32031.6,35007.1,0.5181,0.092,137.1,96.6,0.538
32.96,32017.1,35059.2,0.2782,0.719,137.1,96.6,0.538
32.98,31940.8,35095.3,-0.9822,1.1528,137.1,96.6,0.538
33.0,32052.4,35035.9,0.8637,0.4388,137.1,96.6,0.538
33.02,32064.0,35046.9,1.0546,0.5716,137.1,96.6,0.538
33.04,31898.3,34984.7,-1.6867,-0.1764,137.1,96.6,0.538
33.06,32030.3,34860.2,0.4968,-1.6731,137.1,96.6,0.538
33.08,32019.5,34875.7,0.3184,-1.4869,137.1,96.6,0.538
33.1,31998.8,34904.8,-0.0244,-1.1372,137.1,96.6,0.538
33.12,32033.7,34904.4,0.5535,-1.1423,137.1,96.6,0.538
33.14,31966.7,34969.8,-0.5549,-0.3558,137.1,96.6,0.538
33.16,31974.0,34894.4,-0.4333,-1.2618,137.1,96.6,0.538
33.18,31911.5,34915.6,-1.4677,-1.0074,137.1,96.6,0.538
33.2,31895.0,34901.5,-1.7413,-1.1765,137.1,96.6,0.538
33.22,32017.2,35023.5,0.2804,0.2895,137.1,96.6,0.538
33.24,31962.0,35016.2,-0.6321,0.2019,137.1,96.6,0.538
33.26,32073.5,34996.3,1.2111,-0.0374,137.1,96.6,0.538
33.28,31985.6,35109.0,-0.2412,1.3183,137.1,96.6,0.538
33.3,32038.6,35133.6,0.6349,1.6133,137.1,96.6,0.538
33.32,31984.0,35136.0,-0.2679,1.6426,137.1,96.6,0.538
33.34,32077.6,35110.4,1.2796,1.3345,137.1,96.6,0.538
33.36,32072.3,35011.1,1.1924,0.1403,137.1,96.6,0.538
33.38,32024.8,35038.1,0.4066,0.4659,137.1,96.6,0.538
33.4,31974.8,35006.8,-0.421,0.0891,137.1,96.6,0.538
33.42,31918.8,34968.6,-1.3464,-0.37,137.1,96.6,0.538
33.44,32060.8,34954.0,1.0024,-0.5454,137.1,96.6,0.538
33.46,32005.0,35054.8,0.0791,0.6657,137.1,96.6,0.538
33.48,32023.8,34999.7,0.3907,0.0042,137.1,96.6,0.538
33.5,31991.6,35003.5,-0.1431,0.049,137.1,96.6,0.538
33.52,32025.4,35013.3,0.4171,0.1668,137.1,96.6,0.538
33.54,31982.4,34899.3,-0.2956,-1.2032,137.1,96.6,0.538
33.56,31896.9,34906.4,-1.7094,-1.1178,137.1,96.6,0.538
33.58,31872.5,34988.9,-2.1123,-0.126,137.1,96.6,0.538
33.6,32035.8,34992.9,0.5882,-0.0777,137.1,96.6,0.538
33.62,31884.3,34920.4,-1.9181,-0.9494,137.1,96.6,0.538
33.64,31956.6,34959.2,-0.7222,-0.4831,137.1,96.6,0.538
33.66,31922.3,35012.2,-1.2885,0.1538,137.1,96.6,0.538
33.68,32038.5,35074.4,0.6331,0.9017,137.1,96.6,0.538
33.7,31969.3,35002.3,-0.5119,0.0347,137.1,96.6,0.538
33.72,32095.7,35092.6,1.5788,1.121,137.1,96.6,0.538
33.74,32047.8,35084.6,0.787,1.0238,137.1,96.6,0.538
33.76,32005.7,35115.2,0.091,1.3927,137.1,96.6,0.538
33.78,31961.4,35041.1,-0.6422,0.501,137.1,96.6,0.538
33.8,32078.8,35115.0,1.2989,1.3897,137.1,96.6,0.538
33.82,32100.9,35120.7,1.6645,1.458,137.1,96.6,0.538
33.84,32005.7,34898.5,0.0907,-1.2135,137.1,96.6,0.538
33.86,31976.3,34957.3,-0.3966,-0.5066,137.1,96.6,0.538
33.88,31969.3,35055.4,-0.5116,0.6736,137.1,96.6,0.538
33.9,31935.1,34991.9,-1.0772,-0.0907,137.1,96.6,0.538
33.92,32016.0,35013.9,0.2606,0.1738,137.1,96.6,0.538
33.94,31966.6,34903.1,-0.5566,-1.1576,137.1,96.6,0.538
33.96,31993.0,34913.2,-0.1198,-1.036,137.1,96.6,0.538
33.98,31990.7,34962.1,-0.1576,-0.4481,137.1,96.6,0.538
34.0,31923.5,34917.9,-1.2689,-0.9792,137.1,96.6,0.538
34.02,31987.5,34875.7,-0.21,-1.4877,137.1,96.6,0.538
34.04,31994.3,34859.5,-0.0979,-1.6813,137.1,96.6,0.538
34.06,32013.2,34993.0,0.2143,-0.0773,137.1,96.6,0.538
34.08,31901.4,34984.9,-1.6349,-0.1748,137.1,96.6,0.538
34.1,32002.6,34978.5,0.039,-0.2517,137.1,96.6,0.538
34.12,32049.5,34944.9,0.8156,-0.6551,137.1,96.6,0.538
34.14,32072.6,35000.0,1.197,0.0069,137.1,96.6,0.538
34.16,32032.7,35259.6,0.5371,3.1289,137.1,96.6,0.538
34.18,32030.7,35092.9,0.5046,1.1244,137.1,96.6,0.538
34.2,32013.3,35134.7,0.2164,1.6272,137.1,96.6,0.538
34.22,31946.2,35036.7,-0.8929,0.4486,137.1,96.6,0.538
34.24,32020.8,35059.3,0.3401,0.7198,137.1,96.6,0.538
34.26,32016.3,35082.1,0.2653,0.9948,137.1,96.6,0.538
34.28,32025.2,35010.4,0.4124,0.1329,137.1,96.6,0.538
34.3,31988.1,34992.2,-0.1999,-0.0869,137.1,96.6,0.538
34.32,31995.2,35018.5,-0.0831,0.2291,137.1,96.6,0.538
34.34,32033.3,34935.9,0.5465,-0.7632,137.1,96.6,0.538
34.36,32064.0,34950.1,1.054,-0.5924,137.1,96.6,0.538
34.38,31979.1,34967.2,-0.3496,-0.3866,137.1,96.6,0.538
34.4,31940.8,34988.1,-0.9828,-0.1361,137.1,96.6,0.538
34.42,31910.5,35000.8,-1.4843,0.0171,137.1,96.6,0.538
34.44,32005.2,34903.3,0.0828,-1.1548,137.1,96.6,0.538
34.46,31905.6,34871.0,-1.5646,-1.5434,137.1,96.6,0.538
34.48,31978.0,35005.3,-0.3673,0.0715,137.1,96.6,0.538
34.5,31982.1,34977.9,-0.2999,-0.2585,137.1,96.6,0.538
34.52,32004.1,34890.3,0.0645,-1.3116,137.1,96.6,0.538
34.54,31976.5,35013.7,-0.3932,0.1717,137.1,96.6,0.538
34.56,31986.9,35005.9,-0.2201,0.0783,137.1,96.6,0.538
34.58,32112.1,35022.0,1.8504,0.2713,137.1,96.6,0.538
34.6,32020.6,35162.2,0.3363,1.9576,137.1,96.6,0.538
34.62,32132.7,35110.1,2.1907,1.3304,137.1,96.6,0.538
34.64,32063.8,35067.5,1.0521,0.8185,137.1,96.6,0.538
34.66,32004.7,35146.8,0.0736,1.7716,137.1,96.6,0.538
34.68,31948.8,35143.2,-0.8499,1.7292,137.1,96.6,0.538
34.7,31936.3,35097.0,-1.057,1.1738,137.1,96.6,0.538
34.72,31988.9,35057.2,-0.1871,0.6948,137.1,96.6,0.538
34.74,31983.9,35012.0,-0.27,0.1513,137.1,96.6,0.538
34.76,32005.9,34971.1,0.0942,-0.34,137.1,96.6,0.538
34.78,32014.6,34946.9,0.2372,-0.6311,137.1,96.6,0.538
34.8,32035.2,35005.3,0.5791,0.0706,137.1,96.6,0.538
34.82,31900.4,34914.6,-1.651,-1.0189,137.1,96.6,0.538
34.84,31982.2,34903.9,-0.2975,-1.1485,137.1,96.6,0.538
34.86,31971.2,34940.8,-0.4796,-0.7047,137.1,96.6,0.538
34.88,31884.3,34898.0,-1.9177,-1.219,137.1,96.6,0.538
34.9,31955.2,34905.2,-0.7448,-1.1324,137.1,96.6,0.538
34.92,32010.5,34958.3,0.1706,-0.4941,137.1,96.6,0.538
34.94,32001.1,34876.4,0.0139,-1.4782,137.1,96.6,0.538
34.96,31994.4,34854.7,-0.0957,-1.7401,137.1,96.6,0.538
34.98,32002.4,35022.7,0.0356,0.28,137.1,96.6,0.538
35.0,31992.6,35023.1,-0.1266,0.2845,137.1,96.6,0.538
35.02,32040.0,35132.8,0.6582,1.6037,137.1,96.6,0.538
35.04,32068.2,35137.3,1.1237,1.6585,137.1,96.6,0.538
35.06,32053.1,35253.4,0.8752,3.0532,137.1,96.6,0.538
35.08,32043.7,35084.5,0.7183,1.0235,137.1,96.6,0.538
35.1,32022.2,35130.4,0.3632,1.5753,137.1,96.6,0.538
35.12,32057.5,35105.6,0.9468,1.2766,137.1,96.6,0.538
35.14,31978.2,34997.3,-0.365,-0.0256,137.1,96.6,0.538
35.16,31954.8,34995.2,-0.7509,-0.0507,137.1,96.6,0.538
35.18,31921.7,35055.2,-1.2995,0.6706,137.1,96.6,0.538
35.2,31967.9,34926.8,-0.5346,-0.8723,137.1,96.6,0.538
35.22,31953.8,34971.9,-0.7681,-0.3306,137.1,96.6,0.538
35.24,32003.0,34909.3,0.0464,-1.0827,137.1,96.6,0.538
35.26,31936.5,34956.5,-1.0548,-0.5155,137.1,96.6,0.538
35.28,32006.7,34941.0,0.1074,-0.7023,137.1,96.6,0.538
35.3,31983.1,35020.6,-0.2829,0.2553,137.1,96.6,0.538
35.32,32010.5,34929.8,0.1694,-0.837,137.1,96.6,0.538
35.34,32025.3,34954.8,0.4154,-0.5361,137.1,96.6,0.538
35.36,31961.9,34948.4,-0.6342,-0.6125,137.1,96.6,0.538
35.38,31936.3,34911.7,-1.0579,-1.0544,137.1,96.6,0.538
35.4,32015.0,34978.6,0.2442,-0.2497,137.1,96.6,0.538
35.42,31953.8,34904.2,-0.7681,-1.1439,137.1,96.6,0.538
35.44,32064.0,35015.4,1.0544,0.1924,137.1,96.6,0.538
35.46,32042.8,34994.1,0.7048,-0.0639,137.1,96.6,0.538
35.48,32046.9,35173.3,0.7725,2.0902,137.1,96.6,0.538
35.5,32139.3,35078.7,2.2999,0.954,137.1,96.6,0.538
35.52,32054.5,35102.0,0.8979,1.233,137.1,96.6,0.538
35.54,31950.4,35004.9,-0.8245,0.0663,137.1,96.6,0.538
35.56,32078.9,35042.5,1.3009,0.5185,137.1,96.6,0.538
35.58,31900.0,34967.6,-1.6584,-0.3825,137.1,96.6,0.538
35.6,32044.5,34908.4,0.7327,-1.0938,137.1,96.6,0.538
35.62,32017.7,35012.9,0.2887,0.1628,137.1,96.6,0.538
35.64,31982.7,35070.0,-0.2898,0.8486,137.1,96.6,0.538
35.66,31965.6,35045.1,-0.5734,0.55,137.1,96.6,0.538
35.68,32061.9,34868.5,1.0201,-1.5735,137.1,96.6,0.538
35.7,31914.2,34975.4,-1.4235,-0.2888,137.1,96.6,0.538
35.72,31994.2,34994.4,-0.0999,-0.0595,137.1,96.6,0.538
35.74,32044.6,34952.5,0.7338,-0.564,137.1,96.6,0.538
35.76,32002.7,34937.6,0.041,-0.7427,137.1,96.6,0.538
35.78,31981.3,34965.5,-0.3127,-0.4073,137.1,96.6,0.538
35.8,31940.2,34867.1,-0.9928,-1.59,137.1,96.6,0.538
35.82,31990.7,34940.6,-0.158,-0.7071,137.1,96.6,0.538
35.84,32011.2,34874.8,0.1807,-1.4976,137.1,96.6,0.538
35.86,32008.4,34910.4,0.1346,-1.0703,137.1,96.6,0.538
35.88,32049.1,35038.9,0.8085,0.4747,137.1,96.6,0.538
35.9,31946.1,35093.8,-0.8952,1.1348,137.1,96.6,0.538
35.92,32083.0,35107.1,1.3695,1.2951,137.1,96.6,0.538
35.94,32135.8,35096.3,2.2428,1.1648,137.1,96.6,0.538
35.96,32057.2,35175.1,0.9422,2.1124,137.1,96.6,0.538
35.98,32053.5,35074.3,0.8819,0.9,137.1,96.6,0.538
36.0,32108.0,35056.3,1.7825,0.6837,137.1,96.6,0.538
36.02,32008.7,34989.6,0.1396,-0.118,137.1,96.6,0.538
36.04,31960.2,34946.7,-0.6626,-0.6341,137.1,96.6,0.538
36.06,31993.5,34971.6,-0.1105,-0.3336,137.1,96.6,0.538
36.08,31961.6,35041.2,-0.6386,0.5029,137.1,96.6,0.538
36.1,32075.8,35015.4,1.2503,0.1921,137.1,96.6,0.538
36.12,32069.5,34943.1,1.1461,-0.6771,137.1,96.6,0.538
36.14,31915.8,34891.6,-1.3964,-1.2961,137.1,96.6,0.538
36.16,31991.3,34853.1,-0.147,-1.7592,137.1,96.6,0.538
36.18,32044.2,34941.9,0.7275,-0.6912,137.1,96.6,0.538
36.2,31914.6,34979.9,-1.4159,-0.2347,137.1,96.6,0.538
36.22,31970.1,34989.0,-0.4984,-0.1244,137.1,96.6,0.538
36.24,32059.8,34939.3,0.9851,-0.7221,137.1,96.6,0.538
36.26,31967.7,34842.7,-0.538,-1.8836,137.1,96.6,0.538
36.28,32079.9,34878.9,1.317,-1.4483,137.1,96.6,0.538
36.3,31963.3,34977.9,-0.6115,-0.2586,137.1,96.6,0.538
36.32,31971.1,34978.5,-0.4822,-0.2517,137.1,96.6,0.538
36.34,31991.6,35142.0,-0.1425,1.7141,137.1,96.6,0.538
36.36,32124.9,35124.2,2.0617,1.5004,137.1,96.6,0.538
36.38,32031.2,35018.6,0.5126,0.2305,137.1,96.6,0.538
36.4,32052.0,35180.7,0.8568,2.1803,137.1,96.6,0.538
36.42,32019.1,34979.4,0.3116,-0.2406,137.1,96.6,0.538
36.44,32084.6,35000.4,1.3962,0.0118,137.1,96.6,0.538
36.46,32034.5,34979.8,0.5676,-0.235,137.1,96.6,0.538
36.48,32032.5,35026.5,0.5331,0.3263,137.1,96.6,0.538
36.5,31919.8,34967.3,-1.3301,-0.3853,137.1,96.6,0.538
36.52,32053.2,34946.1,0.8757,-0.6406,137.1,96.6,0.538
36.54,32025.1,35023.2,0.4121,0.2868,137.1,96.6,0.538
36.56,32024.7,35042.1,0.4047,0.5135,137.1,96.6,0.538
36.58,32002.8,34922.8,0.042,-0.9205,137.1,96.6,0.538
36.6,31982.4,34970.8,-0.2944,-0.3442,137.1,96.6,0.538
36.62,31937.8,34951.9,-1.0323,-0.571,137.1,96.6,0.538
36.64,31971.3,34957.7,-0.4792,-0.5017,137.1,96.6,0.538
36.66,31992.4,34880.3,-0.1303,-1.4317,137.1,96.6,0.538
36.68,31961.1,34821.6,-0.6471,-2.1374,137.1,96.6,0.538
36.7,31966.6,34903.8,-0.5558,-1.1488,137.1,96.6,0.538
36.72,31966.1,34907.2,-0.5639,-1.1078,137.1,96.6,0.538
36.74,31922.7,34845.7,-1.2825,-1.8484,137.1,96.6,0.538
36.76,32023.7,35041.5,0.3886,0.5061,137.1,96.6,0.538
36.78,31969.5,35109.4,-0.5077,1.3221,137.1,96.6,0.538
36.8,32051.1,35125.2,0.8416,1.513,137.1,96.6,0.538
36.82,32046.4,35071.5,0.7642,0.8671,137.1,96.6,0.538
36.84,32077.3,35095.6,1.2747,1.1561,137.1,96.6,0.538
36.86,32068.5,35088.9,1.1291,1.0762,137.1,96.6,0.538
36.88,32111.5,34984.1,1.8401,-0.1833,137.1,96.6,0.538
36.9,31916.6,34998.8,-1.3831,-0.0068,137.1,96.6,0.538
36.92,31978.5,34948.9,-0.36,-0.6073,137.1,96.6,0.538
36.94,31927.3,34999.5,-1.2065,0.0012,137.1,96.6,0.538
36.96,31988.8,35021.5,-0.1887,0.2662,137.1,96.6,0.538
36.98,31949.2,35005.4,-0.8435,0.0716,137.1,96.6,0.538
37.0,31956.4,34999.9,-0.7249,0.0056,137.1,96.6,0.538
37.02,31979.3,34923.8,-0.3468,-0.9084,137.1,96.6,0.538
37.04,32017.3,34988.1,0.2821,-0.1357,137.1,96.6,0.538
37.06,31889.8,34973.6,-1.8261,-0.3096,137.1,96.6,0.538
37.08,31952.8,34967.0,-0.7839,-0.3893,137.1,96.6,0.538
37.1,31964.8,34915.7,-0.5866,-1.0057,137.1,96.6,0.538
37.12,31987.0,34831.0,-0.2185,-2.0248,137.1,96.6,0.538
37.14,31855.9,34944.4,-2.3879,-0.661,137.1,96.6,0.538
37.16,32017.9,34936.0,0.2925,-0.7617,137.1,96.6,0.538
37.18,32032.1,34952.3,0.5268,-0.5657,137.1,96.6,0.538
37.2,31988.9,35037.6,-0.1873,0.4588,137.1,96.6,0.538
37.22,31951.3,35122.5,-0.81,1.4805,137.1,96.6,0.538
37.24,32081.4,35140.4,1.3431,1.6949,137.1,96.6,0.538
37.26,32070.5,35031.0,1.1623,0.3797,137.1,96.6,0.538
37.28,32114.0,35030.4,1.8819,0.3727,137.1,96.6,0.538
37.3,32007.0,35057.7,0.1118,0.7007,137.1,96.6,0.538
37.32,31985.9,35050.5,-0.2366,0.6147,137.1,96.6,0.538
37.34,32091.4,34982.1,1.5083,-0.2079,137.1,96.6,0.538
37.36,32036.8,35003.2,0.6052,0.0459,137.1,96.6,0.538
37.38,31949.0,35060.4,-0.8473,0.7338,137.1,96.6,0.538
37.4,32017.8,34920.6,0.2902,-0.9478,137.1,96.6,0.538
37.42,31979.7,34865.7,-0.3403,-1.6076,137.1,96.6,0.538
37.44,32038.2,34901.3,0.6287,-1.1791,137.1,96.6,0.538
37.46,31939.4,34922.3,-1.0067,-0.9266,137.1,96.6,0.538
37.48,31961.9,34945.7,-0.6336,-0.6458,137.1,96.6,0.538
37.5,31991.5,34938.7,-0.1448,-0.7299,137.1,96.6,0.538
37.52,32005.5,34935.2,0.0876,-0.7722,137.1,96.6,0.538
37.54,31928.8,34961.5,-1.1819,-0.4553,137.1,96.6,0.538
37.56,31897.8,34966.6,-1.6943,-0.3939,137.1,96.6,0.538
37.58,31876.9,34879.2,-2.0403,-1.4446,137.1,96.6,0.538
37.6,32009.5,34999.3,0.1532,-0.001,137.1,96.6,0.538
37.62,31967.3,34989.8,-0.5453,-0.1153,137.1,96.6,0.538
37.64,32131.9,35057.6,2.1777,0.6995,137.1,96.6,0.538
37.66,31955.5,35026.3,-0.7397,0.3239,137.1,96.6,0.538
37.68,32117.6,35141.0,1.9413,1.7024,137.1,96.6,0.538
37.7,32041.7,35072.4,0.6854,0.8778,137.1,96.6,0.538
37.72,32123.6,35015.3,2.0398,0.1918,137.1,96.6,0.538
37.74,32027.7,35040.7,0.4539,0.4971,137.1,96.6,0.538
37.76,32035.8,35013.8,0.5876,0.1727,137.1,96.6,0.538
37.78,31975.9,35014.6,-0.4022,0.1829,137.1,96.6,0.538
37.8,31960.1,34969.3,-0.6643,-0.3614,137.1,96.6,0.538
37.82,31956.1,35019.0,-0.7305,0.2355,137.1,96.6,0.538
37.84,32050.8,35007.4,0.8363,0.0968,137.1,96.6,0.538
37.86,32015.4,35014.6,0.2505,0.1831,137.1,96.6,0.538
37.88,31918.0,34865.7,-1.3605,-1.6071,137.1,96.6,0.538
37.9,32010.4,34895.3,0.1677,-1.2514,137.1,96.6,0.538
37.92,31921.6,34966.3,-1.3008,-0.3978,137.1,96.6,0.538
37.94,31985.7,34916.2,-0.2412,-1.0,137.1,96.6,0.538
37.96,31945.4,34932.7,-0.9076,-0.802,137.1,96.6,0.538
37.98,31931.6,34890.6,-1.1348,-1.3074,137.1,96.6,0.538
38.0,31955.8,34975.8,-0.7354,-0.2834,137.1,96.6,0.538
38.02,32003.5,34950.7,0.0539,-0.585,137.1,96.6,0.538
38.04,31982.0,34928.6,-0.3012,-0.8512,137.1,96.6,0.538
38.06,31975.7,34852.9,-0.4052,-1.7607,137.1,96.6,0.538
38.08,31939.9,35048.6,-0.9973,0.5921,137.1,96.6,0.538
38.1,32039.5,35179.7,0.6488,2.1678,137.1,96.6,0.538
38.12,32003.7,35077.2,0.0567,0.9354,137.1,96.6,0.538
38.14,32058.2,35042.6,0.9581,0.52,137.1,96.6,0.538
38.16,32048.5,35093.3,0.7979,1.1284,137.1,96.6,0.538
38.18,32051.2,35080.9,0.8434,0.9797,137.1,96.6,0.538
38.2,31903.7,34938.4,-1.5973,-0.7327,137.1,96.6,0.538
38.22,32001.2,35027.9,0.0162,0.3426,137.1,96.6,0.538
38.24,31989.9,35038.7,-0.1709,0.4721,137.1,96.6,0.538
38.26,32073.9,34956.1,1.218,-0.521,137.1,96.6,0.538
38.28,31920.5,34905.5,-1.3182,-1.1289,137.1,96.6,0.538
38.3,31977.3,34960.2,-0.3787,-0.4713,137.1,96.6,0.538
38.32,31902.4,35005.4,-1.6179,0.0718,137.1,96.6,0.538
38.34,31937.6,34935.4,-1.0367,-0.7688,137.1,96.6,0.538
38.36,31951.0,34986.0,-0.8144,-0.1605,137.1,96.6,0.538
38.38,31965.4,34938.6,-0.5758,-0.7305,137.1,96.6,0.538
38.4,31948.9,34823.5,-0.8497,-2.1141,137.1,96.6,0.538
38.42,32031.0,34878.9,0.5097,-1.4492,137.1,96.6,0.538
38.44,32017.8,34927.2,0.2908,-0.8678,137.1,96.6,0.538
38.46,31951.7,34874.1,-0.8033,-1.5064,137.1,96.6,0.538
38.48,32000.8,34980.7,0.0091,-0.2249,137.1,96.6,0.538
38.5,32020.5,34916.2,0.3359,-1.0006,137.1,96.6,0.538
38.52,32009.9,35095.6,0.1598,1.1568,137.1,96.6,0.538
38.54,32123.8,35091.4,2.0442,1.1056,137.1,96.6,0.538
38.56,32166.3,35120.9,2.747,1.4611,137.1,96.6,0.538
38.58,32056.7,35122.3,0.9339,1.4782,137.1,96.6,0.538
38.6,32094.9,35061.4,1.5663,0.7457,137.1,96.6,0.538
38.62,32058.0,35013.8,0.956,0.1736,137.1,96.6,0.538
38.64,31944.6,35082.2,-0.9208,0.9955,137.1,96.6,0.538
38.66,32025.9,34878.5,0.424,-1.4536,137.1,96.6,0.538
38.68,32042.1,35047.8,0.6917,0.5814,137.1,96.6,0.538
38.7,31954.5,34961.0,-0.7564,-0.4611,137.1,96.6,0.538
38.72,32080.2,34978.3,1.3235,-0.2533,137.1,96.6,0.538
38.74,31984.4,34917.1,-0.2616,-0.9899,137.1,96.6,0.538
38.76,31961.0,34877.8,-0.6496,-1.462,137.1,96.6,0.538
38.78,32042.1,34976.1,0.6926,-0.2795,137.1,96.6,0.538
38.8,32027.4,34951.8,0.4493,-0.5721,137.1,96.6,0.538
38.82,31947.1,34931.7,-0.8792,-0.8144,137.1,96.6,0.538
38.84,31940.4,34905.5,-0.989,-1.1287,137.1,96.6,0.538
38.86,32030.1,34922.3,0.494,-0.9268,137.1,96.6,0.538
38.88,32036.1,34867.5,0.5938,-1.5853,137.1,96.6,0.538
38.9,31959.0,34871.4,-0.6817,-1.5394,137.1,96.6,0.538
38.92,32068.2,34998.0,1.1234,-0.017,137.1,96.6,0.538
38.94,32016.0,35095.9,0.2615,1.1603,137.1,96.6,0.538
38.96,31953.7,35126.2,-0.7703,1.524,137.1,96.6,0.538
38.98,32146.0,35182.4,2.4105,2.2003,137.1,96.6,0.538
39.0,31961.8,35096.8,-0.6354,1.1712,137.1,96.6,0.538
39.02,32092.7,35087.1,1.5292,1.0546,137.1,96.6,0.538
39.04,32035.9,35098.8,0.5899,1.1946,137.1,96.6,0.538
39.06,31952.3,34922.2,-0.7928,-0.9281,137.1,96.6,0.538
39.08,32022.7,35060.8,0.3719,0.7381,137.1,96.6,0.538
39.1,32023.3,34956.1,0.3822,-0.52,137.1,96.6,0.538
39.12,31902.8,35030.6,-1.6114,0.3752,137.1,96.6,0.538
39.14,31995.7,35068.3,-0.0744,0.8284,137.1,96.6,0.538
39.16,32041.5,34980.2,0.6833,-0.2308,137.1,96.6,0.538
39.18,31996.2,34968.6,-0.0668,-0.3698,137.1,96.6,0.538
39.2,31984.1,35020.1,-0.2673,0.2494,137.1,96.6,0.538
39.22,31993.6,34930.1,-0.1094,-0.8333,137.1,96.6,0.538
39.24,31942.5,34967.0,-0.9557,-0.3899,137.1,96.6,0.538
39.26,31896.4,34933.6,-1.7178,-0.7905,137.1,96.6,0.538
39.28,31935.5,34947.3,-1.0707,-0.6266,137.1,96.6,0.538
39.3,31982.5,34912.1,-0.2933,-1.0499,137.1,96.6,0.538
39.32,31939.9,34858.6,-0.9972,-1.6922,137.1,96.6,0.538
39.34,31965.9,34971.9,-0.5681,-0.331,137.1,96.6,0.538
39.36,31913.1,34925.2,-1.4411,-0.8918,137.1,96.6,0.538
39.38,32038.3,35045.8,0.6299,0.558,137.1,96.6,0.538
39.4,32075.4,35090.8,1.2427,1.0986,137.1,96.6,0.538
39.42,31960.3,35168.3,-0.6612,2.0309,137.1,96.6,0.538
39.44,32036.0,35074.8,0.5922,0.9067,137.1,96.6,0.538
39.46,32047.4,35125.1,0.7797,1.511,137.1,96.6,0.538
39.48,32018.9,35006.2,0.3091,0.0824,137.1,96.6,0.538
39.5,32037.0,35120.8,0.6088,1.4602,137.1,96.6,0.538
39.52,31957.6,35093.2,-0.7047,1.1281,137.1,96.6,0.538
39.54,32023.5,34993.5,0.3847,-0.071,137.1,96.6,0.538
39.56,31910.6,35028.7,-1.483,0.3522,137.1,96.6,0.538
39.58,32036.8,34954.7,0.6057,-0.5378,137.1,96.6,0.538
39.6,31998.5,34907.8,-0.0281,-1.1017,137.1,96.6,0.538
39.62,31966.1,34937.3,-0.5651,-0.7464,137.1,96.6,0.538
39.64,31974.7,34917.8,-0.4218,-0.9806,137.1,96.6,0.538
39.66,31957.4,34962.0,-0.7085,-0.449,137.1,96.6,0.538
39.68,32009.3,35076.1,0.1507,0.922,137.1,96.6,0.538
39.7,31945.7,35061.4,-0.9016,0.7449,137.1,96.6,0.538
39.72,31933.2,34885.1,-1.1082,-1.374,137.1,96.6,0.538
39.74,31844.6,35009.1,-2.5749,0.1171,137.1,96.6,0.538
39.76,31923.7,34904.5,-1.2664,-1.1408,137.1,96.6,0.538
39.78,31949.4,34960.1,-0.8409,-0.4725,137.1,96.6,0.538
39.8,31983.3,34934.1,-0.2804,-0.7848,137.1,96.6,0.538
39.82,32023.9,35090.2,0.3923,1.0914,137.1,96.6,0.538
39.84,32030.8,35129.2,0.5059,1.5609,137.1,96.6,0.538
39.86,31999.8,35015.3,-0.0077,0.1909,137.1,96.6,0.538
39.88,32092.4,35110.6,1.5249,1.337,137.1,96.6,0.538
39.9,32013.8,35008.3,0.2244,0.1071,137.1,96.6,0.538
39.92,31926.8,35050.3,-1.2138,0.6117,137.1,96.6,0.538
39.94,32091.2,35048.9,1.504,0.5947,137.1,96.6,0.538
39.96,32034.2,35043.3,0.562,0.5279,137.1,96.6,0.538
39.98,32004.4,34959.6,0.0694,-0.4781,137.1,96.6,0.538
40.0,31978.8,35033.7,-0.3547,0.4122,137.1,96.6,0.538
40.02,32041.1,35003.9,0.6761,0.0547,137.1,96.6,0.538
40.04,32017.2,34875.5,0.28,-1.489,137.1,96.6,0.538
40.06,32065.6,34904.9,1.0811,-1.1363,137.1,96.6,0.538
40.08,31958.9,34980.5,-0.6832,-0.2275,137.1,96.6,0.538
40.1,31917.9,35045.6,-1.3621,0.5552,137.1,96.6,0.538
40.12,32013.6,34952.4,0.2219,-0.5648,137.1,96.6,0.538
40.14,31943.9,34900.3,-0.9324,-1.1918,137.1,96.6,0.538
40.16,32013.5,34960.4,0.2193,-0.469,137.1,96.6,0.538
40.18,31977.1,34943.4,-0.3823,-0.6732,137.1,96.6,0.538
40.2,31969.6,34941.1,-0.506,-0.7012,137.1,96.6,0.538
40.22,32019.8,34996.9,0.3229,-0.0296,137.1,96.6,0.538
40.24,31993.5,35012.3,-0.1119,0.1552,137.1,96.6,0.538
40.26,32035.0,34997.5,0.5752,-0.0227,137.1,96.6,0.538
40.28,32107.8,35065.1,1.7793,0.7898,137.1,96.6,0.538
40.3,32024.9,35176.5,0.4086,2.1289,137.1,96.6,0.538
40.32,32022.8,35134.2,0.3735,1.6207,137.1,96.6,0.538
40.34,32161.6,35109.4,2.6688,1.3225,137.1,96.6,0.538
40.36,32006.5,35026.1,0.103,0.3212,137.1,96.6,0.538
40.38,32007.7,35008.0,0.1242,0.1033,137.1,96.6,0.538
40.4,31920.1,34960.3,-1.3254,-0.4706,137.1,96.6,0.538
40.42,32028.7,35078.2,0.4711,0.9475,137.1,96.6,0.538
40.44,31938.3,35066.9,-1.0242,0.8112,137.1,96.6,0.538
40.46,32007.3,34919.7,0.1173,-0.9575,137.1,96.6,0.538
40.48,31963.2,35053.2,-0.6118,0.647,137.1,96.6,0.538
40.5,31917.7,34883.0,-1.3657,-1.3996,137.1,96.6,0.538
40.52,31931.9,34975.6,-1.1301,-0.2864,137.1,96.6,0.538
40.54,31923.6,35003.4,-1.2673,0.0478,137.1,96.6,0.538
40.56,32028.0,34895.6,0.4585,-1.2483,137.1,96.6,0.538
40.58,32030.5,34989.1,0.5,-0.1232,137.1,96.6,0.538
40.6,32015.5,34891.2,0.2523,-1.3011,137.1,96.6,0.538
40.62,31933.4,34952.2,-1.1047,-0.5677,137.1,96.6,0.538
40.64,31982.8,34899.1,-0.2879,-1.2061,137.1,96.6,0.538
40.66,31990.9,34989.3,-0.1547,-0.1215,137.1,96.6,0.538
40.68,32032.8,35016.0,0.5395,0.1995,137.1,96.6,0.538
40.7,31957.5,35065.4,-0.7062,0.793,137.1,96.6,0.538
40.72,32042.3,35192.7,0.6957,2.3238,137.1,96.6,0.538
40.74,32059.4,35114.6,0.9779,1.385,137.1,96.6,0.538
40.76,32060.1,35034.8,0.9905,0.4253,137.1,96.6,0.538
40.78,31997.9,35072.0,-0.0392,0.8724,137.1,96.6,0.538
40.8,32038.4,35124.2,0.6321,1.5001,137.1,96.6,0.538
40.82,32025.6,35112.9,0.4188,1.3652,137.1,96.6,0.538
40.84,31972.9,34996.9,-0.4526,-0.0298,137.1,96.6,0.538
40.86,31939.4,35041.7,-1.0056,0.5091,137.1,96.6,0.538
40.88,31989.9,35070.9,-0.1709,0.8593,137.1,96.6,0.538
40.9,31954.2,34927.3,-0.7619,-0.8669,137.1,96.6,0.538
40.92,31997.2,34977.6,-0.0508,-0.2621,137.1,96.6,0.538
40.94,32012.6,34897.9,0.2042,-1.2203,137.1,96.6,0.538
40.96,31988.7,34878.8,-0.1911,-1.4493,137.1,96.6,0.538
40.98,32088.4,34981.5,1.4582,-0.2147,137.1,96.6,0.538
41.0,31938.0,34911.9,-1.0292,-1.0517,137.1,96.6,0.538
41.02,32013.3,34905.2,0.2165,-1.1328,137.1,96.6,0.538
41.04,31936.9,34905.0,-1.0477,-1.1347,137.1,96.6,0.538
41.06,32043.4,34837.5,0.7134,-1.9458,137.1,96.6,0.538
41.08,31957.4,34827.8,-0.7083,-2.0627,137.1,96.6,0.538
41.1,32007.9,34886.0,0.1268,-1.3627,137.1,96.6,0.538
41.12,31959.9,35075.9,-0.667,0.9201,137.1,96.6,0.538
41.14,31941.0,35003.0,-0.9804,0.0428,137.1,96.6,0.538
41.16,32026.8,35078.6,0.4387,0.9525,137.1,96.6,0.538
41.18,32020.5,35146.9,0.3348,1.7732,137.1,96.6,0.538
41.2,31997.0,35086.0,-0.0534,1.0415,137.1,96.6,0.538
41.22,32043.5,35150.9,0.7151,1.8209,137.1,96.6,0.538
41.24,32083.5,35079.4,1.3767,0.9614,137.1,96.6,0.538
41.26,31969.6,35134.4,-0.5059,1.6237,137.1,96.6,0.538
41.28,32039.1,34972.9,0.6425,-0.3185,137.1,96.6,0.538
41.3,31926.8,35061.6,-1.2142,0.7484,137.1,96.6,0.538
41.32,32022.5,34932.1,0.3681,-0.8091,137.1,96.6,0.538
41.34,31927.2,34983.8,-1.2087,-0.188,137.1,96.6,0.538
41.36,31938.7,34944.8,-1.0176,-0.6567,137.1,96.6,0.538
41.38,32053.7,34911.6,0.884,-1.0554,137.1,96.6,0.538
41.4,32027.7,34957.3,0.454,-0.5055,137.1,96.6,0.538
41.42,32047.1,34944.9,0.7755,-0.6554,137.1,96.6,0.538
41.44,31950.4,34872.3,-0.8238,-1.5275,137.1,96.6,0.538
41.46,32033.4,34940.5,0.5492,-0.7085,137.1,96.6,0.538
41.48,31909.6,34957.9,-1.4998,-0.4985,137.1,96.6,0.538
41.5,31874.6,34818.2,-2.0787,-2.1781,137.1,96.6,0.538
41.52,32008.3,34897.1,0.1329,-1.2303,137.1,96.6,0.538
41.54,31997.6,34989.4,-0.0437,-0.1197,137.1,96.6,0.538
41.56,31973.9,35009.9,-0.436,0.1264,137.1,96.6,0.538
41.58,31978.8,35019.4,-0.3546,0.2399,137.1,96.6,0.538
41.6,31993.6,35152.3,-0.1095,1.8381,137.1,96.6,0.538
41.62,32066.2,35246.6,1.0914,2.9717,137.1,96.6,0.538
41.64,32008.1,35176.1,0.1308,2.1247,137.1,96.6,0.538
41.66,31945.6,35050.6,-0.9043,0.616,137.1,96.6,0.538
41.68,31976.1,35032.5,-0.3988,0.3984,137.1,96.6,0.538
41.7,31990.5,34985.9,-0.161,-0.1628,137.1,96.6,0.538
41.72,31956.3,34936.5,-0.7271,-0.7564,137.1,96.6,0.538
41.74,32042.3,35050.4,0.6953,0.6128,137.1,96.6,0.538
41.76,32063.4,34966.4,1.0456,-0.3972,137.1,96.6,0.538
41.78,31994.3,35043.5,-0.0984,0.5307,137.1,96.6,0.538
41.8,32010.7,34961.1,0.1735,-0.4603,137.1,96.6,0.538
41.82,31924.2,34926.2,-1.2583,-0.8803,137.1,96.6,0.538
41.84,31936.9,34932.5,-1.048,-0.8046,137.1,96.6,0.538
41.86,31943.1,34906.0,-0.9449,-1.1227,137.1,96.6,0.538
41.88,31879.8,34859.3,-1.9921,-1.6843,137.1,96.6,0.538
41.9,31892.2,34988.6,-1.786,-0.1298,137.1,96.6,0.538
41.92,31936.3,34887.9,-1.0574,-1.3408,137.1,96.6,0.538
41.94,31941.1,34783.4,-0.9779,-2.5966,137.1,96.6,0.538
41.96,31946.7,34946.2,-0.8847,-0.6392,137.1,96.6,0.538
41.98,31949.7,34924.0,-0.8356,-0.9064,137.1,96.6,0.538
42.0,31997.3,34991.4,-0.0486,-0.0956,137.1,96.6,0.538
42.02,32061.6,35054.6,1.0156,0.6633,137.1,96.6,0.538
42.04,32077.7,35070.1,1.2813,0.8498,137.1,96.6,0.538
42.06,32167.6,35152.5,2.7682,1.8409,137.1,96.6,0.538
42.08,32082.9,35177.5,1.3677,2.141,137.1,96.6,0.538
42.1,31953.9,35088.4,-0.766,1.0696,137.1,96.6,0.538
42.12,32090.5,35070.7,1.4931,0.8574,137.1,96.6,0.538
42.14,31988.6,35050.7,-0.1919,0.6163,137.1,96.6,0.538
42.16,32017.5,35073.8,0.2855,0.8948,137.1,96.6,0.538
42.18,32066.0,35066.1,1.0874,0.8021,137.1,96.6,0.538
42.2,31892.9,35026.4,-1.7749,0.3244,137.1,96.6,0.538
42.22,31994.9,34956.7,-0.088,-0.5136,137.1,96.6,0.538
42.24,32037.2,35019.0,0.6121,0.2358,137.1,96.6,0.538
42.26,32000.5,34947.3,0.0039,-0.6262,137.1,96.6,0.538
42.28,32076.4,34984.7,1.2605,-0.1769,137.1,96.6,0.538
42.3,31990.9,34893.5,-0.1536,-1.2728,137.1,96.6,0.538
42.32,31965.0,34954.0,-0.5824,-0.5462,137.1,96.6,0.538
42.34,31916.4,34943.0,-1.3872,-0.6777,137.1,96.6,0.538
42.36,31915.5,34853.3,-1.401,-1.756,137.1,96.6,0.538
42.38,31955.2,34873.7,-0.7443,-1.5116,137.1,96.6,0.538
42.4,32011.7,35017.8,0.1898,0.2215,137.1,96.6,0.538
42.42,31945.8,35010.6,-0.9008,0.1346,137.1,96.6,0.538
42.44,32118.4,35043.8,1.9539,0.5343,137.1,96.6,0.538
42.46,31937.8,35111.2,-1.0325,1.3446,137.1,96.6,0.538
42.48,32030.6,35131.7,0.5021,1.591,137.1,96.6,0.538
42.5,32107.0,35086.2,1.7657,1.0438,137.1,96.6,0.538
42.52,32028.0,35082.2,0.4585,0.996,137.1,96.6,0.538
42.54,32107.3,35046.9,1.7705,0.5715,137.1,96.6,0.538
42.56,32082.7,34992.5,1.3638,-0.0831,137.1,96.6,0.538
42.58,31932.3,35096.9,-1.1242,1.1717,137.1,96.6,0.538
42.6,32093.3,34999.5,1.5402,0.0009,137.1,96.6,0.538
42.62,31946.4,35000.4,-0.8906,0.0117,137.1,96.6,0.538
42.64,31950.0,35018.3,-0.8303,0.2275,137.1,96.6,0.538
42.66,31980.0,34967.4,-0.3347,-0.3847,137.1,96.6,0.538
42.68,32065.5,34988.5,1.079,-0.1311,137.1,96.6,0.538
42.7,31977.5,34890.3,-0.3758,-1.3114,137.1,96.6,0.538
42.72,31916.8,34896.4,-1.3801,-1.2378,137.1,96.6,0.538
42.74,32001.3,34996.2,0.0177,-0.0382,137.1,96.6,0.538
42.76,31984.7,34940.6,-0.2562,-0.7071,137.1,96.6,0.538
42.78,31976.3,34961.8,-0.3955,-0.4516,137.1,96.6,0.538
42.8,31999.7,34840.6,-0.0082,-1.9092,137.1,96.6,0.538
42.82,31952.6,34869.3,-0.7877,-1.5643,137.1,96.6,0.538
42.84,31913.1,34845.0,-1.4408,-1.8567,137.1,96.6,0.538
42.86,31978.6,34889.3,-0.3582,-1.3238,137.1,96.6,0.538
42.88,31985.8,34996.3,-0.2382,-0.0371,137.1,96.6,0.538
42.9,32041.2,35041.0,0.6771,0.5003,137.1,96.6,0.538
42.92,32064.2,35051.0,1.0587,0.6202,137.1,96.6,0.538
42.94,32039.3,35135.5,0.6467,1.636,137.1,96.6,0.538
42.96,32064.6,35171.9,1.064,2.0739,137.1,96.6,0.538
42.98,32002.6,35027.2,0.0386,0.3348,137.1,96.6,0.538
43.0,31964.2,35026.1,-0.5961,0.3217,137.1,96.6,0.538
43.02,32004.9,35023.7,0.0773,0.2927,137.1,96.6,0.538
43.04,32083.8,34974.5,1.3828,-0.2993,137.1,96.6,0.538
43.06,31957.1,34971.5,-0.7134,-0.3348,137.1,96.6,0.538
43.08,32009.0,34847.3,0.1456,-1.828,137.1,96.6,0.538
43.1,31994.4,34886.0,-0.0965,-1.3636,137.1,96.6,0.538
43.12,32030.1,34986.2,0.4948,-0.1591,137.1,96.6,0.538
43.14,32014.6,35032.7,0.2376,0.4008,137.1,96.6,0.538
43.16,31990.4,34916.9,-0.162,-0.992,137.1,96.6,0.538
43.18,31981.5,34901.0,-0.3092,-1.1824,137.1,96.6,0.538
43.2,31921.0,34840.7,-1.3102,-1.9075,137.1,96.6,0.538
43.22,31849.7,34955.3,-2.4895,-0.5303,137.1,96.6,0.538
43.24,31942.6,34981.5,-0.9524,-0.2154,137.1,96.6,0.538
43.26,31891.6,34918.3,-1.7962,-0.9744,137.1,96.6,0.538
43.28,31943.7,34884.8,-0.9343,-1.3782,137.1,96.6,0.538
43.3,32002.0,34971.6,0.029,-0.3346,137.1,96.6,0.538
43.32,32068.1,35024.7,1.1221,0.3043,137.1,96.6,0.538
43.34,31998.2,35180.6,-0.0331,2.178,137.1,96.6,0.538
43.36,32103.4,35210.1,1.706,2.5329,137.1,96.6,0.538
43.38,32092.9,35120.8,1.5333,1.4601,137.1,96.6,0.538
43.4,32162.1,35079.1,2.6776,0.9584,137.1,96.6,0.538
43.42,31936.2,35037.9,-1.0587,0.4633,137.1,96.6,0.538
43.44,32059.1,35125.6,0.9741,1.5173,137.1,96.6,0.538
43.46,31948.8,35009.9,-0.8512,0.1261,137.1,96.6,0.538
43.48,31969.1,35046.5,-0.5154,0.5662,137.1,96.6,0.538
43.5,32047.6,35085.3,0.7833,1.0328,137.1,96.6,0.538
43.52,31946.6,35000.5,-0.8879,0.0131,137.1,96.6,0.538
43.54,32019.1,34900.8,0.3122,-1.1859,137.1,96.6,0.538
43.56,31881.5,34938.5,-1.9637,-0.7319,137.1,96.6,0.538
43.58,31891.9,34950.5,-1.7913,-0.5884,137.1,96.6,0.538
43.6,31921.0,35010.9,-1.3111,0.1382,137.1,96.6,0.538
43.62,31986.9,34805.2,-0.2202,-2.3344,137.1,96.6,0.538
43.64,31886.3,34966.8,-1.8847,-0.3919,137.1,96.6,0.538
43.66,32017.0,34905.1,0.2777,-1.1338,137.1,96.6,0.538
43.68,32009.8,34898.7,0.1577,-1.2101,137.1,96.6,0.538
43.7,31986.3,34877.3,-0.2301,-1.4684,137.1,96.6,0.538
43.72,31919.0,34918.6,-1.3438,-0.9711,137.1,96.6,0.538
43.74,32031.7,34972.0,0.5212,-0.3288,137.1,96.6,0.538
43.76,32022.8,35009.3,0.3738,0.1186,137.1,96.6,0.538
43.78,31959.3,35095.0,-0.6771,1.1493,137.1,96.6,0.538
43.8,32055.1,35152.0,0.9076,1.8344,137.1,96.6,0.538
43.82,31983.1,35092.6,-0.2835,1.1206,137.1,96.6,0.538
43.84,32146.1,35109.8,2.412,1.3273,137.1,96.6,0.538
43.86,32043.4,35086.8,0.7146,1.0513,137.1,96.6,0.538
43.88,31938.0,34985.2,-1.0289,-0.1709,137.1,96.6,0.538
43.9,31925.6,35014.8,-1.2342,0.1853,137.1,96.6,0.538
43.92,32100.6,34915.5,1.6606,-1.0084,137.1,96.6,0.538
43.94,32089.7,35069.2,1.4791,0.8386,137.1,96.6,0.538
43.96,32019.9,34958.8,0.3252,-0.4882,137.1,96.6,0.538
43.98,31881.3,34964.9,-1.9679,-0.4151,137.1,96.6,0.538
44.0,32009.2,34967.0,0.1485,-0.3895,137.1,96.6,0.538
44.02,31975.2,35036.3,-0.4147,0.4439,137.1,96.6,0.538
44.04,32070.5,35013.7,1.1616,0.1725,137.1,96.6,0.538
44.06,31961.5,34883.9,-0.6401,-1.3884,137.1,96.6,0.538
44.08,32021.8,34956.6,0.3574,-0.5151,137.1,96.6,0.538
44.1,32012.8,34836.6,0.2085,-1.9576,137.1,96.6,0.538
44.12,31980.1,34958.0,-0.3329,-0.4974,137.1,96.6,0.538
44.14,31901.3,34921.8,-1.6364,-0.9329,137.1,96.6,0.538
44.16,31965.8,34922.2,-0.5702,-0.9281,137.1,96.6,0.538
44.18,31969.3,34996.9,-0.5119,-0.0299,137.1,96.6,0.538
44.2,32074.6,35043.2,1.2298,0.5265,137.1,96.6,0.538
44.22,32063.4,35077.3,1.0444,0.9364,137.1,96.6,0.538
44.24,32095.0,35108.9,1.5669,1.316,137.1,96.6,0.538
44.26,31991.3,35074.6,-0.147,0.9041,137.1,96.6,0.538
44.28,32005.8,35154.1,0.0918,1.8594,137.1,96.6,0.538
44.3,32100.6,35032.4,1.6608,0.3967,137.1,96.6,0.538
44.32,32019.4,35000.1,0.3167,0.0079,137.1,96.6,0.538
44.34,32068.6,35018.6,1.1301,0.2313,137.1,96.6,0.538
44.36,32016.9,35021.4,0.2756,0.2645,137.1,96.6,0.538
44.38,32034.6,35029.8,0.5693,0.3657,137.1,96.6,0.538
44.4,31951.3,35001.8,-0.8094,0.0287,137.1,96.6,0.538
44.42,31853.7,35019.9,-2.4241,0.2469,137.1,96.6,0.538
44.44,31972.7,34978.1,-0.4549,-0.2561,137.1,96.6,0.538
44.46,31945.2,34906.3,-0.9099,-1.1194,137.1,96.6,0.538
44.48,32032.3,34949.8,0.5312,-0.5961,137.1,96.6,0.538
44.5,31975.0,34940.1,-0.4181,-0.7132,137.1,96.6,0.538
44.52,31955.4,34907.1,-0.7409,-1.1102,137.1,96.6,0.538
44.54,31934.4,34904.8,-1.0888,-1.1378,137.1,96.6,0.538
44.56,31933.3,34779.5,-1.1073,-2.6437,137.1,96.6,0.538
44.58,31905.7,34911.3,-1.5637,-1.0591,137.1,96.6,0.538
44.6,31941.2,34883.3,-0.977,-1.3954,137.1,96.6,0.538
44.62,32044.7,35019.1,0.7363,0.2371,137.1,96.6,0.538
44.64,31995.9,35103.5,-0.0718,1.2512,137.1,96.6,0.538
44.66,32122.8,35118.9,2.0281,1.4367,137.1,96.6,0.538
44.68,32080.9,35139.5,1.3344,1.6843,137.1,96.6,0.538
44.7,32020.6,35125.7,0.3377,1.519,137.1,96.6,0.538
44.72,32001.0,35000.1,0.0132,0.009,137.1,96.6,0.538
44.74,32001.2,34999.3,0.0164,-0.0013,137.1,96.6,0.538
44.76,32012.5,35013.4,0.2028,0.1682,137.1,96.6,0.538
44.78,32050.8,35027.2,0.8357,0.3347,137.1,96.6,0.538
44.8,31965.4,34988.5,-0.576,-0.1312,137.1,96.6,0.538
44.82,31966.2,35073.8,-0.5629,0.8946,137.1,96.6,0.538
44.84,31993.9,35056.6,-0.1047,0.6881,137.1,96.6,0.538
44.86,32020.7,35098.7,0.3385,1.1939,137.1,96.6,0.538
44.88,31927.8,34869.3,-1.1983,-1.564,137.1,96.6,0.538
