timestamp,raw_red,raw_ir,filtered_red,filtered_ir,heart_rate,spo2,ac_dc_ratio
0.0,31981.5,35062.5,-0.0805,0.1544,135.8,96.9,0.524
0.02,32214.1,35389.5,0.932,0.9555,135.8,96.9,0.524
0.04,32433.5,35700.6,1.8865,1.7179,135.8,96.9,0.524
0.06,32349.8,35767.8,1.5224,1.8824,135.8,96.9,0.524
0.08,32292.6,35593.2,1.2735,1.4546,135.8,96.9,0.524
0.1,32227.7,35482.7,0.991,1.1838,135.8,96.9,0.524
0.12,32157.9,35235.4,0.6872,0.5779,135.8,96.9,0.524
0.14,32056.3,35160.1,0.2449,0.3935,135.8,96.9,0.524
0.16,32058.6,35119.0,0.2549,0.2926,135.8,96.9,0.524
0.18,32034.0,35061.6,0.1482,0.1521,135.8,96.9,0.524
0.2,32046.7,34951.8,0.2031,-0.1169,135.8,96.9,0.524
0.22,32027.8,34871.9,0.1211,-0.3128,135.8,96.9,0.524
0.24,31884.0,34754.0,-0.5049,-0.6017,135.8,96.9,0.524
0.26,32002.1,34783.5,0.009,-0.5293,135.8,96.9,0.524
0.28,31830.5,34607.9,-0.7376,-0.9597,135.8,96.9,0.524
0.3,31798.5,34659.8,-0.8769,-0.8325,135.8,96.9,0.524
0.32,31806.0,34718.6,-0.8443,-0.6884,135.8,96.9,0.524
0.34,31736.2,34577.6,-1.1479,-1.0339,135.8,96.9,0.524
0.36,31751.7,34536.4,-1.0804,-1.1347,135.8,96.9,0.524
0.38,31639.7,34414.6,-1.568,-1.4332,135.8,96.9,0.524
0.4,31768.5,34494.1,-1.0076,-1.2386,135.8,96.9,0.524
0.42,31830.7,34773.0,-0.7368,-0.5551,135.8,96.9,0.524
0.44,32065.1,35052.6,0.2835,0.1301,135.8,96.9,0.524
0.46,32243.0,35456.4,1.0578,1.1194,135.8,96.9,0.524
0.48,32326.8,35714.9,1.4222,1.7528,135.8,96.9,0.524
0.5,32317.9,35821.8,1.3835,2.0148,135.8,96.9,0.524
0.52,32281.1,35710.9,1.2234,1.7431,135.8,96.9,0.524
0.54,32145.9,35560.9,0.6352,1.3756,135.8,96.9,0.524
0.56,32137.8,35325.4,0.5999,0.7985,135.8,96.9,0.524
0.58,32096.7,35225.2,0.4209,0.5529,135.8,96.9,0.524
0.6,32021.3,35173.4,0.0927,0.4261,135.8,96.9,0.524
0.62,32071.1,35178.9,0.3095,0.4396,135.8,96.9,0.524
0.64,32040.3,34934.4,0.1754,-0.1596,135.8,96.9,0.524
0.66,31939.5,34904.1,-0.2634,-0.2339,135.8,96.9,0.524
0.68,31943.1,34804.1,-0.2476,-0.4789,135.8,96.9,0.524
0.7,31847.7,34805.5,-0.6628,-0.4756,135.8,96.9,0.524
0.72,31828.5,34613.1,-0.7464,-0.9469,135.8,96.9,0.524
0.74,31901.0,34660.2,-0.4309,-0.8314,135.8,96.9,0.524
0.76,31835.6,34673.6,-0.7153,-0.7987,135.8,96.9,0.524
0.78,31794.3,34599.7,-0.895,-0.9796,135.8,96.9,0.524
0.8,31820.7,34494.8,-0.7803,-1.2368,135.8,96.9,0.524
0.82,31675.9,34418.4,-1.4102,-1.424,135.8,96.9,0.524
0.84,31836.0,34479.6,-0.7135,-1.274,135.8,96.9,0.524
0.86,31890.4,34774.1,-0.477,-0.5525,135.8,96.9,0.524
0.88,32081.8,35083.6,0.3559,0.206,135.8,96.9,0.524
0.9,32281.8,35382.6,1.2266,0.9385,135.8,96.9,0.524
0.92,32292.2,35756.6,1.2715,1.855,135.8,96.9,0.524
0.94,32441.7,35684.4,1.9223,1.678,135.8,96.9,0.524
0.96,32253.9,35710.3,1.1052,1.7416,135.8,96.9,0.524
0.98,32308.7,35477.2,1.3434,1.1705,135.8,96.9,0.524
1.0,32051.8,35265.2,0.2255,0.6508,135.8,96.9,0.524
1.02,31997.8,35283.8,-0.0097,0.6965,135.8,96.9,0.524
1.04,32081.0,35128.1,0.3527,0.3149,135.8,96.9,0.524
1.06,31970.9,35016.4,-0.1267,0.0414,135.8,96.9,0.524
1.08,31999.2,34971.1,-0.0033,-0.0696,135.8,96.9,0.524
1.1,32060.9,34850.2,0.2651,-0.3659,135.8,96.9,0.524
1.12,31885.1,34803.9,-0.5001,-0.4793,135.8,96.9,0.524
1.14,31914.9,34641.7,-0.3702,-0.8767,135.8,96.9,0.524
1.16,31883.3,34687.6,-0.5078,-0.7643,135.8,96.9,0.524
1.18,31764.5,34718.3,-1.0246,-0.689,135.8,96.9,0.524
1.2,31812.3,34560.2,-0.8166,-1.0765,135.8,96.9,0.524
1.22,31782.9,34544.8,-0.9447,-1.1141,135.8,96.9,0.524
1.24,31723.6,34502.3,-1.2026,-1.2183,135.8,96.9,0.524
1.26,31681.0,34322.7,-1.3883,-1.6583,135.8,96.9,0.524
1.28,31748.7,34452.4,-1.0937,-1.3405,135.8,96.9,0.524
1.3,31838.2,34769.5,-0.7039,-0.5636,135.8,96.9,0.524
1.32,31969.6,35072.8,-0.132,0.1794,135.8,96.9,0.524
1.34,32154.1,35384.8,0.6709,0.944,135.8,96.9,0.524
1.36,32339.6,35654.2,1.4781,1.6041,135.8,96.9,0.524
1.38,32276.4,35802.8,1.2028,1.9683,135.8,96.9,0.524
1.4,32285.5,35693.6,1.2424,1.7005,135.8,96.9,0.524
1.42,32230.3,35489.8,1.0025,1.2012,135.8,96.9,0.524
1.44,32087.6,35328.4,0.3815,0.8059,135.8,96.9,0.524
1.46,32142.2,35186.4,0.619,0.4579,135.8,96.9,0.524
1.48,32012.1,35085.2,0.0529,0.2099,135.8,96.9,0.524
1.5,32034.3,35021.9,0.1496,0.0549,135.8,96.9,0.524
1.52,31981.3,35030.9,-0.0811,0.0768,135.8,96.9,0.524
1.54,31974.7,34857.4,-0.11,-0.3482,135.8,96.9,0.524
1.56,31837.7,34779.9,-0.7062,-0.5382,135.8,96.9,0.524
1.58,31915.3,34730.8,-0.3686,-0.6585,135.8,96.9,0.524
1.6,31850.5,34711.2,-0.6503,-0.7065,135.8,96.9,0.524
1.62,31855.5,34580.0,-0.6288,-1.0279,135.8,96.9,0.524
1.64,31911.6,34592.7,-0.3848,-0.9968,135.8,96.9,0.524
1.66,31861.8,34653.0,-0.6013,-0.8492,135.8,96.9,0.524
1.68,31763.1,34560.1,-1.0308,-1.0766,135.8,96.9,0.524
1.7,31763.7,34380.3,-1.0282,-1.5173,135.8,96.9,0.524
1.72,31695.8,34495.2,-1.3238,-1.2356,135.8,96.9,0.524
1.74,31920.9,34790.6,-0.3442,-0.5119,135.8,96.9,0.524
1.76,31944.0,35036.9,-0.2437,0.0916,135.8,96.9,0.524
1.78,32228.7,35332.0,0.9954,0.8147,135.8,96.9,0.524
1.8,32273.3,35681.5,1.1895,1.671,135.8,96.9,0.524
1.82,32379.7,35749.6,1.6525,1.8378,135.8,96.9,0.524
1.84,32412.4,35719.4,1.7949,1.7639,135.8,96.9,0.524
1.86,32211.7,35593.3,0.9213,1.455,135.8,96.9,0.524
1.88,32090.3,35251.4,0.393,0.6172,135.8,96.9,0.524
1.9,32071.3,35236.9,0.3103,0.5815,135.8,96.9,0.524
1.92,32035.7,35044.4,0.1554,0.1098,135.8,96.9,0.524
1.94,32049.3,34993.7,0.2145,-0.0144,135.8,96.9,0.524
1.96,31982.3,34975.2,-0.0769,-0.0595,135.8,96.9,0.524
1.98,31959.9,34909.9,-0.1745,-0.2196,135.8,96.9,0.524
2.0,31925.5,34839.0,-0.3242,-0.3934,135.8,96.9,0.524
2.02,31890.7,34823.4,-0.4758,-0.4315,135.8,96.9,0.524
2.04,31817.9,34554.6,-0.7926,-1.0901,135.8,96.9,0.524
2.06,31867.1,34679.0,-0.5782,-0.7853,135.8,96.9,0.524
2.08,31777.6,34647.6,-0.9679,-0.8624,135.8,96.9,0.524
2.1,31871.2,34591.1,-0.5604,-1.0009,135.8,96.9,0.524
2.12,31790.9,34609.3,-0.91,-0.9562,135.8,96.9,0.524
2.14,31755.6,34609.9,-1.0636,-0.9547,135.8,96.9,0.524
2.16,31743.9,34523.9,-1.1142,-1.1653,135.8,96.9,0.524
2.18,31829.8,34668.7,-0.7406,-0.8107,135.8,96.9,0.524
2.2,32016.8,34974.7,0.0731,-0.061,135.8,96.9,0.524
2.22,32283.8,35333.3,1.2351,0.8178,135.8,96.9,0.524
2.24,32319.2,35617.6,1.3892,1.5143,135.8,96.9,0.524
2.26,32308.6,35712.4,1.3432,1.7467,135.8,96.9,0.524
2.28,32283.8,35645.4,1.2351,1.5826,135.8,96.9,0.524
2.3,32214.2,35619.5,0.9324,1.5189,135.8,96.9,0.524
2.32,32174.1,35352.1,0.7577,0.8637,135.8,96.9,0.524
2.34,32120.1,35207.1,0.5227,0.5085,135.8,96.9,0.524
2.36,32063.3,35108.3,0.2756,0.2664,135.8,96.9,0.524
2.38,32111.7,35018.2,0.4863,0.0458,135.8,96.9,0.524
2.4,32124.5,35008.0,0.542,0.0208,135.8,96.9,0.524
2.42,31979.3,34937.3,-0.0902,-0.1524,135.8,96.9,0.524
2.44,31852.9,34835.1,-0.6402,-0.4029,135.8,96.9,0.524
2.46,31914.6,34713.2,-0.3716,-0.7015,135.8,96.9,0.524
2.48,31929.5,34625.9,-0.3067,-0.9155,135.8,96.9,0.524
2.5,31776.9,34671.8,-0.9707,-0.8029,135.8,96.9,0.524
2.52,31879.1,34657.0,-0.526,-0.8393,135.8,96.9,0.524
2.54,31856.9,34636.0,-0.6226,-0.8908,135.8,96.9,0.524
2.56,31653.2,34541.1,-1.5093,-1.1234,135.8,96.9,0.524
2.58,31735.9,34411.2,-1.1493,-1.4415,135.8,96.9,0.524
2.6,31700.5,34474.8,-1.3032,-1.2858,135.8,96.9,0.524
2.62,31813.1,34602.8,-0.8135,-0.972,135.8,96.9,0.524
2.64,31952.8,35028.4,-0.2055,0.0707,135.8,96.9,0.524
2.66,32146.1,35328.9,0.636,0.807,135.8,96.9,0.524
2.68,32262.5,35569.3,1.1424,1.3961,135.8,96.9,0.524
2.7,32355.3,35732.2,1.5462,1.7953,135.8,96.9,0.524
2.72,32247.1,35780.1,1.0753,1.9125,135.8,96.9,0.524
2.74,32255.5,35533.0,1.1119,1.3071,135.8,96.9,0.524
2.76,32114.1,35422.2,0.4967,1.0357,135.8,96.9,0.524
2.78,32217.6,35209.3,0.9471,0.5139,135.8,96.9,0.524
2.8,32177.2,35165.7,0.7714,0.4071,135.8,96.9,0.524
2.82,32072.9,35120.4,0.3174,0.2961,135.8,96.9,0.524
2.84,32070.4,35053.5,0.3065,0.1323,135.8,96.9,0.524
2.86,31991.4,34982.9,-0.0372,-0.0407,135.8,96.9,0.524
2.88,31931.9,34827.9,-0.2963,-0.4207,135.8,96.9,0.524
2.9,31843.0,34784.9,-0.6831,-0.526,135.8,96.9,0.524
2.92,31900.4,34743.6,-0.4336,-0.6271,135.8,96.9,0.524
2.94,31865.8,34688.2,-0.5839,-0.7629,135.8,96.9,0.524
2.96,31896.3,34621.4,-0.4514,-0.9265,135.8,96.9,0.524
2.98,31847.6,34588.3,-0.6629,-1.0077,135.8,96.9,0.524
3.0,31752.9,34597.0,-1.0752,-0.9862,135.8,96.9,0.524
3.02,31700.4,34492.8,-1.3037,-1.2416,135.8,96.9,0.524
3.04,31815.5,34443.5,-0.8028,-1.3624,135.8,96.9,0.524
3.06,31751.8,34620.4,-1.0801,-0.9291,135.8,96.9,0.524
3.08,31941.5,34934.3,-0.2546,-0.1597,135.8,96.9,0.524
3.1,32111.0,35209.0,0.483,0.5132,135.8,96.9,0.524
3.12,32287.4,35518.4,1.2509,1.2712,135.8,96.9,0.524
3.14,32365.7,35724.4,1.5914,1.7761,135.8,96.9,0.524
3.16,32390.2,35731.2,1.6982,1.7927,135.8,96.9,0.524
3.18,32318.8,35591.7,1.3875,1.451,135.8,96.9,0.524
3.2,32293.5,35366.8,1.2774,0.8998,135.8,96.9,0.524
3.22,32123.6,35226.2,0.538,0.5554,135.8,96.9,0.524
3.24,32104.9,35231.4,0.4567,0.568,135.8,96.9,0.524
3.26,32167.7,35130.3,0.7299,0.3203,135.8,96.9,0.524
3.28,31921.4,35013.9,-0.3418,0.0352,135.8,96.9,0.524
3.3,31894.6,34955.3,-0.4586,-0.1085,135.8,96.9,0.524
3.32,32004.1,34915.0,0.0177,-0.2072,135.8,96.9,0.524
3.34,31896.2,34790.5,-0.4515,-0.5122,135.8,96.9,0.524
3.36,31835.8,34708.9,-0.7146,-0.7121,135.8,96.9,0.524
3.38,31857.1,34628.0,-0.6217,-0.9105,135.8,96.9,0.524
3.4,31825.6,34539.9,-0.759,-1.1261,135.8,96.9,0.524
3.42,31855.1,34608.6,-0.6305,-0.958,135.8,96.9,0.524
3.44,31773.4,34581.2,-0.9859,-1.0251,135.8,96.9,0.524
3.46,31689.0,34501.6,-1.3532,-1.22,135.8,96.9,0.524
3.48,31730.5,34480.8,-1.1727,-1.2709,135.8,96.9,0.524
3.5,31815.0,34696.7,-0.805,-0.742,135.8,96.9,0.524
3.52,32025.3,34828.1,0.1102,-0.42,135.8,96.9,0.524
3.54,32074.4,35255.0,0.324,0.6259,135.8,96.9,0.524
3.56,32283.2,35456.1,1.2326,1.1187,135.8,96.9,0.524
3.58,32388.7,35739.1,1.6915,1.8122,135.8,96.9,0.524
3.6,32303.8,35730.5,1.3224,1.791,135.8,96.9,0.524
3.62,32272.6,35576.2,1.1864,1.4129,135.8,96.9,0.524
3.64,32233.2,35406.6,1.0151,0.9974,135.8,96.9,0.524
3.66,32201.2,35226.4,0.8757,0.556,135.8,96.9,0.524
3.68,32091.5,35142.3,0.3985,0.3498,135.8,96.9,0.524
3.7,32024.5,35182.9,0.1069,0.4492,135.8,96.9,0.524
3.72,32054.2,35015.4,0.2358,0.0389,135.8,96.9,0.524
3.74,32005.9,34947.7,0.0257,-0.1269,135.8,96.9,0.524
3.76,31904.5,34845.5,-0.4156,-0.3775,135.8,96.9,0.524
3.78,31878.3,34772.8,-0.5298,-0.5557,135.8,96.9,0.524
3.8,31870.7,34742.7,-0.5626,-0.6293,135.8,96.9,0.524
3.82,31924.4,34676.8,-0.3289,-0.7908,135.8,96.9,0.524
3.84,31754.4,34676.7,-1.0687,-0.791,135.8,96.9,0.524
3.86,31855.2,34582.5,-0.6303,-1.0217,135.8,96.9,0.524
3.88,31752.2,34475.0,-1.0783,-1.2853,135.8,96.9,0.524
3.9,31744.5,34400.2,-1.1117,-1.4685,135.8,96.9,0.524
3.92,31695.3,34478.0,-1.3261,-1.2779,135.8,96.9,0.524
3.94,31832.0,34633.6,-0.7311,-0.8965,135.8,96.9,0.524
3.96,31898.4,34876.2,-0.4421,-0.3023,135.8,96.9,0.524
3.98,32038.3,35262.5,0.1668,0.6443,135.8,96.9,0.524
4.0,32262.7,35564.3,1.1434,1.3837,135.8,96.9,0.524
4.02,32347.5,35686.6,1.5122,1.6835,135.8,96.9,0.524
4.04,32365.7,35730.0,1.5917,1.7897,135.8,96.9,0.524
4.06,32250.2,35619.6,1.0888,1.5193,135.8,96.9,0.524
4.08,32308.0,35389.5,1.3407,0.9556,135.8,96.9,0.524
4.1,32154.0,35291.4,0.6703,0.7151,135.8,96.9,0.524
4.12,32099.4,35146.5,0.4328,0.3602,135.8,96.9,0.524
4.14,31982.9,35152.5,-0.0745,0.3747,135.8,96.9,0.524
4.16,32058.2,35097.2,0.2533,0.2394,135.8,96.9,0.524
4.18,31989.4,34923.5,-0.046,-0.1864,135.8,96.9,0.524
4.2,31949.4,34896.8,-0.22,-0.2518,135.8,96.9,0.524
4.22,31891.4,34759.1,-0.4726,-0.5892,135.8,96.9,0.524
4.24,31817.9,34711.4,-0.7924,-0.7061,135.8,96.9,0.524
4.26,31862.0,34668.7,-0.6006,-0.8107,135.8,96.9,0.524
4.28,31808.2,34724.3,-0.8345,-0.6744,135.8,96.9,0.524
4.3,31740.3,34546.0,-1.1299,-1.1113,135.8,96.9,0.524
4.32,31747.5,34492.4,-1.0987,-1.2427,135.8,96.9,0.524
4.34,31665.2,34467.4,-1.4568,-1.3038,135.8,96.9,0.524
4.36,31709.9,34512.6,-1.2622,-1.1931,135.8,96.9,0.524
4.38,31791.3,34636.5,-0.9081,-0.8896,135.8,96.9,0.524
4.4,32002.3,34869.4,0.0099,-0.3189,135.8,96.9,0.524
4.42,32157.7,35172.5,0.6866,0.4238,135.8,96.9,0.524
4.44,32263.4,35513.4,1.1465,1.2592,135.8,96.9,0.524
4.46,32336.5,35714.8,1.4645,1.7525,135.8,96.9,0.524
4.48,32327.3,35705.7,1.4243,1.7302,135.8,96.9,0.524
4.5,32301.6,35580.8,1.3127,1.4243,135.8,96.9,0.524
4.52,32288.5,35365.2,1.2557,0.8959,135.8,96.9,0.524
4.54,32111.4,35236.8,0.485,0.5815,135.8,96.9,0.524
4.56,32064.0,35115.9,0.2788,0.2851,135.8,96.9,0.524
4.58,32000.1,35175.8,0.0006,0.4318,135.8,96.9,0.524
4.6,31996.3,35001.2,-0.0162,0.004,135.8,96.9,0.524
4.62,31978.3,35071.2,-0.0946,0.1756,135.8,96.9,0.524
4.64,32047.1,34936.7,0.2049,-0.154,135.8,96.9,0.524
4.66,31886.9,34820.2,-0.4919,-0.4395,135.8,96.9,0.524
4.68,31782.4,34708.5,-0.947,-0.7131,135.8,96.9,0.524
4.7,31832.1,34651.6,-0.7306,-0.8526,135.8,96.9,0.524
4.72,31843.8,34657.9,-0.6796,-0.8371,135.8,96.9,0.524
4.74,31836.4,34622.0,-0.7121,-0.925,135.8,96.9,0.524
4.76,31787.0,34508.4,-0.9268,-1.2034,135.8,96.9,0.524
4.78,31693.1,34472.5,-1.3354,-1.2913,135.8,96.9,0.524
4.8,31745.7,34474.3,-1.1066,-1.2869,135.8,96.9,0.524
4.82,31837.0,34519.6,-0.7095,-1.1759,135.8,96.9,0.524
4.84,31933.0,34730.2,-0.2914,-0.66,135.8,96.9,0.524
4.86,32125.2,35184.4,0.545,0.4529,135.8,96.9,0.524
4.88,32203.7,35531.1,0.8867,1.3023,135.8,96.9,0.524
4.9,32289.2,35758.4,1.2589,1.8594,135.8,96.9,0.524
4.92,32355.9,35781.9,1.5488,1.917,135.8,96.9,0.524
4.94,32296.0,35622.6,1.2882,1.5265,135.8,96.9,0.524
4.96,32301.4,35536.3,1.3116,1.3151,135.8,96.9,0.524
4.98,32044.9,35315.1,0.1954,0.7733,135.8,96.9,0.524
5.0,32052.2,35178.6,0.2272,0.4388,135.8,96.9,0.524
5.02,32113.4,35167.1,0.4937,0.4105,135.8,96.9,0.524
5.04,32063.8,34998.0,0.2779,-0.0038,135.8,96.9,0.524
5.06,31979.6,34998.7,-0.0889,-0.002,135.8,96.9,0.524
5.08,31945.8,34895.2,-0.2358,-0.2557,135.8,96.9,0.524
5.1,31956.6,34718.0,-0.1888,-0.6898,135.8,96.9,0.524
5.12,31778.2,34730.3,-0.9653,-0.6597,135.8,96.9,0.524
5.14,31832.5,34646.0,-0.729,-0.8664,135.8,96.9,0.524
5.16,31879.9,34671.4,-0.5226,-0.8041,135.8,96.9,0.524
5.18,31834.6,34601.3,-0.7196,-0.9758,135.8,96.9,0.524
5.2,31783.7,34477.4,-0.9412,-1.2795,135.8,96.9,0.524
5.22,31760.2,34548.6,-1.0435,-1.105,135.8,96.9,0.524
5.24,31728.3,34445.0,-1.1822,-1.3587,135.8,96.9,0.524
5.26,31748.1,34538.8,-1.0963,-1.1289,135.8,96.9,0.524
5.28,32041.0,34895.3,0.1784,-0.2554,135.8,96.9,0.524
5.3,32073.2,35103.8,0.3185,0.2554,135.8,96.9,0.524
5.32,32215.6,35414.5,0.9383,1.0168,135.8,96.9,0.524
5.34,32280.2,35722.3,1.2194,1.7708,135.8,96.9,0.524
5.36,32422.4,35778.2,1.8384,1.9078,135.8,96.9,0.524
5.38,32361.5,35644.8,1.5734,1.5811,135.8,96.9,0.524
5.4,32184.3,35507.6,0.8021,1.245,135.8,96.9,0.524
5.42,32158.7,35284.4,0.6906,0.6979,135.8,96.9,0.524
5.44,32068.4,35232.1,0.2976,0.5698,135.8,96.9,0.524
5.46,32141.4,35161.4,0.6153,0.3967,135.8,96.9,0.524
5.48,31997.4,35089.8,-0.0114,0.2211,135.8,96.9,0.524
5.5,31979.6,35056.8,-0.0888,0.1402,135.8,96.9,0.524
5.52,31889.1,34880.9,-0.4827,-0.2908,135.8,96.9,0.524
5.54,31821.3,34775.8,-0.7778,-0.5483,135.8,96.9,0.524
5.56,31831.0,34774.1,-0.7355,-0.5524,135.8,96.9,0.524
5.58,31883.3,34749.7,-0.5078,-0.6121,135.8,96.9,0.524
5.6,31840.4,34669.8,-0.6945,-0.808,135.8,96.9,0.524
5.62,31764.1,34538.8,-1.0264,-1.1288,135.8,96.9,0.524
5.64,31752.3,34577.5,-1.078,-1.034,135.8,96.9,0.524
5.66,31772.9,34536.3,-0.9882,-1.1351,135.8,96.9,0.524
5.68,31716.1,34364.2,-1.2354,-1.5568,135.8,96.9,0.524
5.7,31776.0,34554.6,-0.9746,-1.0903,135.8,96.9,0.524
5.72,31788.5,34825.9,-0.9201,-0.4253,135.8,96.9,0.524
5.74,32005.2,35111.6,0.0228,0.2746,135.8,96.9,0.524
5.76,32308.2,35517.3,1.3416,1.2687,135.8,96.9,0.524
5.78,32209.8,35707.8,0.9131,1.7353,135.8,96.9,0.524
5.8,32419.9,35730.7,1.8276,1.7914,135.8,96.9,0.524
5.82,32343.4,35759.9,1.4945,1.8629,135.8,96.9,0.524
5.84,32162.8,35531.9,0.7088,1.3045,135.8,96.9,0.524
5.86,32291.6,35323.6,1.2692,0.7941,135.8,96.9,0.524
5.88,32114.2,35187.9,0.4971,0.4616,135.8,96.9,0.524
5.9,32060.5,35166.2,0.2632,0.4083,135.8,96.9,0.524
5.92,32066.7,35041.6,0.2905,0.1031,135.8,96.9,0.524
5.94,32072.5,34945.0,0.3155,-0.1335,135.8,96.9,0.524
5.96,32011.6,34868.5,0.0506,-0.3211,135.8,96.9,0.524
5.98,31873.4,34814.9,-0.5507,-0.4525,135.8,96.9,0.524
6.0,31811.7,34728.1,-0.8195,-0.6651,135.8,96.9,0.524
6.02,31880.4,34605.8,-0.5203,-0.9646,135.8,96.9,0.524
6.04,31848.4,34713.0,-0.6595,-0.7021,135.8,96.9,0.524
6.06,31796.4,34639.0,-0.8861,-0.8834,135.8,96.9,0.524
6.08,31846.8,34652.1,-0.6666,-0.8513,135.8,96.9,0.524
6.1,31767.2,34550.1,-1.0132,-1.1012,135.8,96.9,0.524
6.12,31681.3,34459.9,-1.387,-1.3223,135.8,96.9,0.524
6.14,31796.6,34508.5,-0.885,-1.2033,135.8,96.9,0.524
6.16,31895.9,34755.0,-0.453,-0.5993,135.8,96.9,0.524
6.18,31969.0,35066.2,-0.1346,0.1635,135.8,96.9,0.524
6.2,32176.3,35399.0,0.7673,0.9787,135.8,96.9,0.524
6.22,32377.4,35733.2,1.6423,1.7975,135.8,96.9,0.524
6.24,32413.0,35753.1,1.7974,1.8463,135.8,96.9,0.524
6.26,32306.0,35696.3,1.3317,1.7071,135.8,96.9,0.524
6.28,32203.9,35494.1,0.8875,1.2118,135.8,96.9,0.524
6.3,32188.1,35264.7,0.8189,0.6497,135.8,96.9,0.524
6.32,32048.4,35159.4,0.2109,0.3918,135.8,96.9,0.524
6.34,31990.4,35153.8,-0.0416,0.3781,135.8,96.9,0.524
6.36,32038.0,35095.6,0.1656,0.2354,135.8,96.9,0.524
6.38,32016.7,34983.6,0.0726,-0.0391,135.8,96.9,0.524
6.4,31951.5,34983.7,-0.2111,-0.0387,135.8,96.9,0.524
6.42,32008.6,34747.6,0.0377,-0.6173,135.8,96.9,0.524
6.44,31858.2,34686.0,-0.6168,-0.7684,135.8,96.9,0.524
6.46,31916.3,34571.4,-0.3643,-1.0491,135.8,96.9,0.524
6.48,31817.5,34747.4,-0.7942,-0.6177,135.8,96.9,0.524
6.5,31862.8,34595.6,-0.5972,-0.9897,135.8,96.9,0.524
6.52,31773.2,34612.2,-0.987,-0.949,135.8,96.9,0.524
6.54,31721.6,34448.7,-1.2115,-1.3497,135.8,96.9,0.524
6.56,31728.6,34395.0,-1.1812,-1.4812,135.8,96.9,0.524
6.58,31792.9,34498.0,-0.9013,-1.229,135.8,96.9,0.524
6.6,31795.8,34708.8,-0.8887,-0.7125,135.8,96.9,0.524
6.62,32031.0,35074.6,0.1351,0.1838,135.8,96.9,0.524
6.64,32197.4,35354.7,0.859,0.8703,135.8,96.9,0.524
6.66,32341.2,35647.7,1.4849,1.5881,135.8,96.9,0.524
6.68,32352.7,35813.1,1.535,1.9935,135.8,96.9,0.524
6.7,32295.5,35689.3,1.286,1.6901,135.8,96.9,0.524
6.72,32289.5,35526.5,1.26,1.2911,135.8,96.9,0.524
6.74,32157.9,35343.4,0.6873,0.8426,135.8,96.9,0.524
6.76,32135.1,35149.6,0.588,0.3676,135.8,96.9,0.524
6.78,32009.5,35080.8,0.0412,0.1991,135.8,96.9,0.524
6.8,32018.1,35153.0,0.0787,0.3761,135.8,96.9,0.524
6.82,31921.0,34960.4,-0.3439,-0.096,135.8,96.9,0.524
6.84,32005.1,34916.3,0.0223,-0.2039,135.8,96.9,0.524
6.86,31932.1,34761.5,-0.2953,-0.5833,135.8,96.9,0.524
6.88,31891.6,34628.0,-0.4719,-0.9103,135.8,96.9,0.524
6.9,31875.4,34629.5,-0.5422,-0.9066,135.8,96.9,0.524
6.92,31876.4,34715.2,-0.5378,-0.6967,135.8,96.9,0.524
6.94,31819.8,34650.8,-0.7842,-0.8544,135.8,96.9,0.524
6.96,31837.8,34580.5,-0.706,-1.0267,135.8,96.9,0.524
6.98,31765.5,34624.5,-1.0205,-0.919,135.8,96.9,0.524
7.0,31749.7,34492.2,-1.0893,-1.2431,135.8,96.9,0.524
7.02,31697.7,34491.4,-1.3155,-1.2451,135.8,96.9,0.524
7.04,31844.9,34562.1,-0.6749,-1.0717,135.8,96.9,0.524
7.06,32034.4,34984.0,0.1499,-0.0382,135.8,96.9,0.524
7.08,32207.9,35312.3,0.9049,0.7663,135.8,96.9,0.524
7.1,32276.6,35707.6,1.2038,1.7349,135.8,96.9,0.524
7.12,32440.6,35699.0,1.9176,1.7137,135.8,96.9,0.524
7.14,32223.5,35711.1,0.9729,1.7435,135.8,96.9,0.524
7.16,32278.5,35589.4,1.2123,1.4453,135.8,96.9,0.524
7.18,32205.2,35284.9,0.893,0.6992,135.8,96.9,0.524
7.2,32071.8,35173.8,0.3126,0.4269,135.8,96.9,0.524
7.22,32026.6,35173.3,0.116,0.4258,135.8,96.9,0.524
7.24,32053.5,35101.0,0.2331,0.2487,135.8,96.9,0.524
7.26,32011.5,35027.0,0.0501,0.0674,135.8,96.9,0.524
7.28,31888.9,34985.0,-0.4835,-0.0356,135.8,96.9,0.524
7.3,31895.7,34856.7,-0.454,-0.3499,135.8,96.9,0.524
7.32,31863.2,34714.3,-0.5954,-0.6988,135.8,96.9,0.524
7.34,31887.9,34633.9,-0.488,-0.8958,135.8,96.9,0.524
7.36,31810.9,34659.9,-0.8229,-0.8323,135.8,96.9,0.524
7.38,31868.8,34510.9,-0.5708,-1.1973,135.8,96.9,0.524
7.4,31810.8,34563.5,-0.8232,-1.0683,135.8,96.9,0.524
7.42,31725.2,34519.9,-1.1958,-1.1752,135.8,96.9,0.524
7.44,31702.1,34489.3,-1.2963,-1.2503,135.8,96.9,0.524
7.46,31710.0,34516.2,-1.2618,-1.1844,135.8,96.9,0.524
7.48,31906.6,34684.9,-0.4065,-0.7709,135.8,96.9,0.524
7.5,31975.2,34951.9,-0.1077,-0.1166,135.8,96.9,0.524
7.52,32206.9,35342.5,0.9003,0.8402,135.8,96.9,0.524
7.54,32253.8,35688.2,1.1046,1.6874,135.8,96.9,0.524
7.56,32428.6,35767.1,1.8652,1.8808,135.8,96.9,0.524
7.58,32328.3,35752.6,1.4288,1.8453,135.8,96.9,0.524
7.6,32303.6,35526.9,1.3213,1.2921,135.8,96.9,0.524
7.62,32183.4,35380.0,0.7981,0.9322,135.8,96.9,0.524
7.64,32028.4,35269.9,0.1235,0.6624,135.8,96.9,0.524
7.66,32034.6,35092.4,0.1507,0.2275,135.8,96.9,0.524
7.68,32018.8,35104.4,0.082,0.257,135.8,96.9,0.524
7.7,32062.0,35029.5,0.2701,0.0734,135.8,96.9,0.524
7.72,31899.5,35017.8,-0.4374,0.0448,135.8,96.9,0.524
7.74,31873.0,34838.6,-0.5528,-0.3943,135.8,96.9,0.524
7.76,31896.9,34709.1,-0.4486,-0.7117,135.8,96.9,0.524
7.78,31834.0,34702.5,-0.7226,-0.7278,135.8,96.9,0.524
7.8,31848.0,34794.5,-0.6614,-0.5024,135.8,96.9,0.524
7.82,31805.8,34663.0,-0.845,-0.8246,135.8,96.9,0.524
7.84,31835.5,34542.0,-0.716,-1.121,135.8,96.9,0.524
7.86,31805.4,34478.3,-0.8467,-1.2771,135.8,96.9,0.524
7.88,31741.5,34512.0,-1.125,-1.1945,135.8,96.9,0.524
7.9,31750.6,34407.2,-1.0852,-1.4514,135.8,96.9,0.524
7.92,31870.9,34699.5,-0.5619,-0.7351,135.8,96.9,0.524
7.94,32035.0,34949.1,0.1524,-0.1236,135.8,96.9,0.524
7.96,32145.5,35261.4,0.6334,0.6416,135.8,96.9,0.524
7.98,32293.9,35567.9,1.2791,1.3926,135.8,96.9,0.524
8.0,32387.3,35778.0,1.6855,1.9074,135.8,96.9,0.524
8.02,32344.9,35779.3,1.5011,1.9105,135.8,96.9,0.524
8.04,32238.4,35592.6,1.0376,1.4532,135.8,96.9,0.524
8.06,32166.0,35382.6,0.7227,0.9385,135.8,96.9,0.524
8.08,32113.5,35193.9,0.4942,0.4763,135.8,96.9,0.524
8.1,32019.2,35210.7,0.0838,0.5174,135.8,96.9,0.524
8.12,32119.8,35031.6,0.5214,0.0786,135.8,96.9,0.524
8.14,32103.1,34962.0,0.4487,-0.0919,135.8,96.9,0.524
8.16,31964.2,34949.6,-0.1556,-0.1225,135.8,96.9,0.524
8.18,31865.4,34879.6,-0.5855,-0.294,135.8,96.9,0.524
8.2,31872.9,34781.6,-0.5531,-0.5339,135.8,96.9,0.524
8.22,31822.7,34762.6,-0.7717,-0.5806,135.8,96.9,0.524
8.24,31813.1,34610.6,-0.8135,-0.9529,135.8,96.9,0.524
8.26,31831.8,34616.6,-0.7318,-0.9382,135.8,96.9,0.524
8.28,31676.6,34592.7,-1.4073,-0.9969,135.8,96.9,0.524
8.3,31705.8,34504.3,-1.2801,-1.2134,135.8,96.9,0.524
8.32,31718.9,34461.6,-1.2233,-1.3182,135.8,96.9,0.524
8.34,31836.1,34502.3,-0.7133,-1.2183,135.8,96.9,0.524
8.36,31855.5,34710.1,-0.6289,-0.7093,135.8,96.9,0.524
8.38,32018.9,34973.0,0.0822,-0.0651,135.8,96.9,0.524
8.4,32118.6,35281.6,0.5162,0.691,135.8,96.9,0.524
8.42,32332.2,35625.4,1.4457,1.5336,135.8,96.9,0.524
8.44,32392.3,35724.1,1.7072,1.7753,135.8,96.9,0.524
8.46,32378.5,35729.8,1.6474,1.7893,135.8,96.9,0.524
8.48,32343.6,35546.8,1.4956,1.3409,135.8,96.9,0.524
8.5,32187.7,35369.5,0.8171,0.9066,135.8,96.9,0.524
8.52,32020.6,35240.0,0.0899,0.5892,135.8,96.9,0.524
8.54,32070.2,35117.9,0.3058,0.29,135.8,96.9,0.524
8.56,32030.1,35128.2,0.1313,0.3152,135.8,96.9,0.524
8.58,32070.4,34966.3,0.3066,-0.0815,135.8,96.9,0.524
8.6,31984.1,34967.7,-0.0692,-0.0781,135.8,96.9,0.524
8.62,31941.8,34873.4,-0.2531,-0.3092,135.8,96.9,0.524
8.64,31916.5,34703.2,-0.3634,-0.7261,135.8,96.9,0.524
8.66,31957.6,34660.7,-0.1846,-0.8303,135.8,96.9,0.524
8.68,31706.2,34672.0,-1.2787,-0.8026,135.8,96.9,0.524
8.7,31907.5,34679.6,-0.4024,-0.7839,135.8,96.9,0.524
8.72,31814.0,34711.1,-0.8092,-0.7067,135.8,96.9,0.524
8.74,31744.4,34463.9,-1.1121,-1.3124,135.8,96.9,0.524
8.76,31735.8,34428.4,-1.1498,-1.3994,135.8,96.9,0.524
8.78,31827.0,34362.6,-0.7527,-1.5606,135.8,96.9,0.524
8.8,31832.4,34706.5,-0.7294,-0.7179,135.8,96.9,0.524
8.82,31978.1,34891.6,-0.0952,-0.2645,135.8,96.9,0.524
8.84,32173.4,35346.0,0.7548,0.849,135.8,96.9,0.524
8.86,32349.4,35707.1,1.5207,1.7336,135.8,96.9,0.524
8.88,32288.8,35842.0,1.2568,2.0642,135.8,96.9,0.524
8.9,32406.3,35803.8,1.7684,1.9706,135.8,96.9,0.524
8.92,32305.9,35544.5,1.3315,1.3352,135.8,96.9,0.524
8.94,32184.5,35451.4,0.8029,1.1071,135.8,96.9,0.524
8.96,32101.5,35223.3,0.4416,0.5483,135.8,96.9,0.524
8.98,32046.9,35229.9,0.204,0.5645,135.8,96.9,0.524
9.0,32048.8,35107.2,0.2125,0.2637,135.8,96.9,0.524
9.02,31941.7,35120.6,-0.2535,0.2966,135.8,96.9,0.524
9.04,32025.9,34963.7,0.1128,-0.0879,135.8,96.9,0.524
9.06,31822.8,34820.8,-0.7709,-0.438,135.8,96.9,0.524
9.08,31879.0,34783.3,-0.5263,-0.5298,135.8,96.9,0.524
9.1,31839.2,34598.0,-0.6996,-0.9839,135.8,96.9,0.524
9.12,31735.4,34628.4,-1.1513,-0.9094,135.8,96.9,0.524
9.14,31844.2,34750.8,-0.678,-0.6095,135.8,96.9,0.524
9.16,31805.6,34594.1,-0.8459,-0.9934,135.8,96.9,0.524
9.18,31770.7,34508.7,-0.9979,-1.2026,135.8,96.9,0.524
9.2,31785.5,34457.4,-0.9336,-1.3283,135.8,96.9,0.524
9.22,31718.9,34421.6,-1.2232,-1.416,135.8,96.9,0.524
9.24,31842.0,34633.9,-0.6877,-0.8959,135.8,96.9,0.524
9.26,31927.8,34863.3,-0.3139,-0.3338,135.8,96.9,0.524
9.28,32169.6,35274.7,0.7384,0.6743,135.8,96.9,0.524
9.3,32213.5,35611.2,0.9291,1.4988,135.8,96.9,0.524
9.32,32310.6,35753.1,1.3519,1.8464,135.8,96.9,0.524
9.34,32350.5,35779.0,1.5254,1.9097,135.8,96.9,0.524
9.36,32351.6,35488.8,1.5303,1.1989,135.8,96.9,0.524
9.38,32171.1,35467.6,0.7448,1.1469,135.8,96.9,0.524
9.4,32106.1,35297.3,0.4617,0.7297,135.8,96.9,0.524
9.42,32061.8,35085.0,0.2688,0.2094,135.8,96.9,0.524
9.44,32000.9,35128.9,0.0042,0.3169,135.8,96.9,0.524
9.46,31995.8,35010.8,-0.0181,0.0276,135.8,96.9,0.524
9.48,31980.0,34926.6,-0.0871,-0.1787,135.8,96.9,0.524
9.5,31829.0,34872.7,-0.7443,-0.3107,135.8,96.9,0.524
9.52,31873.4,34759.6,-0.5509,-0.5879,135.8,96.9,0.524
9.54,31882.1,34695.5,-0.5132,-0.745,135.8,96.9,0.524
9.56,31922.4,34719.1,-0.3377,-0.6871,135.8,96.9,0.524
9.58,31779.3,34556.3,-0.9603,-1.0861,135.8,96.9,0.524
9.6,31721.6,34627.9,-1.2114,-0.9107,135.8,96.9,0.524
9.62,31830.3,34458.1,-0.7386,-1.3267,135.8,96.9,0.524
9.64,31679.7,34449.0,-1.3938,-1.3488,135.8,96.9,0.524
9.66,31767.1,34456.8,-1.0135,-1.3298,135.8,96.9,0.524
9.68,31743.3,34582.3,-1.1169,-1.0223,135.8,96.9,0.524
9.7,31840.9,34819.6,-0.6925,-0.4408,135.8,96.9,0.524
9.72,32095.9,35143.8,0.4174,0.3534,135.8,96.9,0.524
9.74,32297.8,35497.8,1.2959,1.2208,135.8,96.9,0.524
9.76,32236.4,35749.8,1.0289,1.8383,135.8,96.9,0.524
9.78,32295.2,35801.9,1.2848,1.966,135.8,96.9,0.524
9.8,32374.4,35591.3,1.6293,1.4499,135.8,96.9,0.524
9.82,32230.7,35393.8,1.0043,0.966,135.8,96.9,0.524
9.84,32126.7,35243.2,0.5515,0.597,135.8,96.9,0.524
9.86,32105.8,35182.5,0.4605,0.4483,135.8,96.9,0.524
9.88,31994.9,35195.6,-0.0223,0.4804,135.8,96.9,0.524
9.9,32034.3,35034.5,0.1496,0.0856,135.8,96.9,0.524
9.92,31967.4,35048.1,-0.1419,0.119,135.8,96.9,0.524
9.94,31934.3,34840.1,-0.2858,-0.3906,135.8,96.9,0.524
9.96,31860.9,34774.8,-0.6055,-0.5506,135.8,96.9,0.524
9.98,31805.9,34817.9,-0.8447,-0.4451,135.8,96.9,0.524
10.0,31826.5,34691.1,-0.7549,-0.7558,135.8,96.9,0.524
10.02,31872.5,34696.3,-0.5546,-0.7429,135.8,96.9,0.524
10.04,31830.1,34683.0,-0.7395,-0.7757,135.8,96.9,0.524
10.06,31861.4,34562.8,-0.6033,-1.0701,135.8,96.9,0.524
10.08,31701.3,34541.2,-1.2997,-1.123,135.8,96.9,0.524
10.1,31770.4,34466.0,-0.9989,-1.3073,135.8,96.9,0.524
10.12,31698.8,34608.4,-1.3109,-0.9584,135.8,96.9,0.524
10.14,31951.8,34745.2,-0.2099,-0.6233,135.8,96.9,0.524
10.16,32098.0,35175.6,0.4265,0.4313,135.8,96.9,0.524
10.18,32203.2,35514.6,0.8843,1.262,135.8,96.9,0.524
10.2,32413.9,35728.8,1.8016,1.7869,135.8,96.9,0.524
10.22,32419.3,35714.4,1.8249,1.7515,135.8,96.9,0.524
10.24,32281.8,35621.6,1.2265,1.5242,135.8,96.9,0.524
10.26,32179.4,35478.0,0.7809,1.1724,135.8,96.9,0.524
10.28,32190.5,35270.2,0.8291,0.6633,135.8,96.9,0.524
10.3,32009.4,35145.6,0.0412,0.3578,135.8,96.9,0.524
10.32,32034.1,35106.1,0.1484,0.2612,135.8,96.9,0.524
10.34,32009.4,35076.4,0.0411,0.1884,135.8,96.9,0.524
10.36,31896.0,35018.4,-0.4524,0.0463,135.8,96.9,0.524
10.38,31864.6,34873.5,-0.5893,-0.3088,135.8,96.9,0.524
10.4,31898.9,34804.3,-0.44,-0.4784,135.8,96.9,0.524
10.42,31800.1,34630.7,-0.8697,-0.9037,135.8,96.9,0.524
10.44,31796.6,34640.6,-0.8851,-0.8796,135.8,96.9,0.524
10.46,31788.1,34718.7,-0.9222,-0.6882,135.8,96.9,0.524
10.48,31831.4,34599.9,-0.7336,-0.9791,135.8,96.9,0.524
10.5,31774.7,34495.3,-0.9803,-1.2356,135.8,96.9,0.524
10.52,31778.8,34473.1,-0.9625,-1.2898,135.8,96.9,0.524
10.54,31792.2,34483.4,-0.9042,-1.2648,135.8,96.9,0.524
10.56,31744.8,34545.0,-1.1105,-1.1138,135.8,96.9,0.524
10.58,31921.9,34813.4,-0.3399,-0.4562,135.8,96.9,0.524
10.6,32117.9,35202.4,0.5134,0.497,135.8,96.9,0.524
10.62,32180.1,35372.0,0.7838,0.9126,135.8,96.9,0.524
10.64,32320.2,35706.0,1.3936,1.731,135.8,96.9,0.524
10.66,32347.6,35808.5,1.5129,1.9821,135.8,96.9,0.524
10.68,32321.5,35700.2,1.399,1.7167,135.8,96.9,0.524
10.7,32128.6,35406.8,0.5599,0.998,135.8,96.9,0.524
10.72,32148.2,35268.5,0.645,0.6589,135.8,96.9,0.524
10.74,32082.1,35071.5,0.3575,0.1763,135.8,96.9,0.524
10.76,32020.0,35121.0,0.087,0.2976,135.8,96.9,0.524
10.78,32034.4,35047.7,0.15,0.118,135.8,96.9,0.524
10.8,31976.5,34997.7,-0.1021,-0.0045,135.8,96.9,0.524
10.82,31951.5,34920.7,-0.2109,-0.1932,135.8,96.9,0.524
10.84,31858.5,34878.4,-0.6157,-0.2968,135.8,96.9,0.524
10.86,31909.0,34698.5,-0.3958,-0.7375,135.8,96.9,0.524
10.88,31805.5,34637.4,-0.8465,-0.8874,135.8,96.9,0.524
10.9,31893.4,34612.7,-0.4639,-0.9479,135.8,96.9,0.524
10.92,31766.2,34576.7,-1.0174,-1.0361,135.8,96.9,0.524
10.94,31718.8,34624.6,-1.2237,-0.9186,135.8,96.9,0.524
10.96,31778.2,34525.4,-0.9653,-1.1616,135.8,96.9,0.524
10.98,31728.2,34455.3,-1.1829,-1.3334,135.8,96.9,0.524
11.0,31733.7,34469.5,-1.1588,-1.2986,135.8,96.9,0.524
11.02,31913.0,34780.5,-0.3784,-0.5366,135.8,96.9,0.524
11.04,32078.7,35143.1,0.3426,0.3516,135.8,96.9,0.524
11.06,32197.9,35469.5,0.8612,1.1514,135.8,96.9,0.524
11.08,32359.7,35706.1,1.5656,1.7311,135.8,96.9,0.524
11.1,32431.4,35779.4,1.8774,1.9107,135.8,96.9,0.524
11.12,32375.1,35715.3,1.6323,1.7537,135.8,96.9,0.524
11.14,32328.6,35527.8,1.43,1.2944,135.8,96.9,0.524
11.16,32127.4,35303.7,0.5545,0.7453,135.8,96.9,0.524
11.18,32004.9,35208.6,0.0215,0.5123,135.8,96.9,0.524
11.2,32020.3,35123.2,0.0884,0.3029,135.8,96.9,0.524
11.22,31962.5,34994.7,-0.1629,-0.0118,135.8,96.9,0.524
11.24,32003.1,35051.8,0.0137,0.128,135.8,96.9,0.524
11.26,31985.3,34860.6,-0.0637,-0.3404,135.8,96.9,0.524
11.28,31922.7,34776.6,-0.3364,-0.5462,135.8,96.9,0.524
11.3,31891.6,34741.7,-0.4715,-0.6317,135.8,96.9,0.524
11.32,31809.8,34743.5,-0.8278,-0.6274,135.8,96.9,0.524
11.34,31864.2,34724.7,-0.5911,-0.6734,135.8,96.9,0.524
11.36,31885.5,34669.9,-0.4984,-0.8077,135.8,96.9,0.524
11.38,31806.3,34610.1,-0.8428,-0.9543,135.8,96.9,0.524
11.4,31755.0,34431.3,-1.066,-1.3924,135.8,96.9,0.524
11.42,31780.9,34457.0,-0.9535,-1.3292,135.8,96.9,0.524
11.44,31733.9,34483.3,-1.158,-1.2649,135.8,96.9,0.524
11.46,31826.9,34669.8,-0.753,-0.808,135.8,96.9,0.524
11.48,32087.9,35027.7,0.3826,0.0689,135.8,96.9,0.524
11.5,32214.5,35367.6,0.9338,0.9018,135.8,96.9,0.524
11.52,32284.9,35689.9,1.2399,1.6914,135.8,96.9,0.524
11.54,32373.4,35793.5,1.6249,1.9454,135.8,96.9,0.524
11.56,32421.3,35655.9,1.8335,1.6081,135.8,96.9,0.524
11.58,32185.2,35533.8,0.8059,1.309,135.8,96.9,0.524
11.6,32156.1,35412.3,0.6792,1.0113,135.8,96.9,0.524
11.62,32137.7,35273.5,0.5995,0.6713,135.8,96.9,0.524
11.64,32058.9,35161.9,0.2563,0.3979,135.8,96.9,0.524
11.66,32110.9,35091.7,0.4829,0.2257,135.8,96.9,0.524
11.68,32001.9,35061.1,0.0085,0.151,135.8,96.9,0.524
11.7,32008.9,34981.4,0.039,-0.0444,135.8,96.9,0.524
11.72,31966.1,34750.2,-0.1473,-0.611,135.8,96.9,0.524
11.74,31806.5,34686.7,-0.8419,-0.7666,135.8,96.9,0.524
11.76,31816.4,34737.6,-0.7991,-0.6418,135.8,96.9,0.524
11.78,31888.7,34643.5,-0.4843,-0.8725,135.8,96.9,0.524
11.8,31774.5,34640.0,-0.9814,-0.881,135.8,96.9,0.524
11.82,31764.8,34647.4,-1.0236,-0.8629,135.8,96.9,0.524
11.84,31676.9,34584.7,-1.4061,-1.0163,135.8,96.9,0.524
11.86,31783.9,34448.1,-0.9403,-1.351,135.8,96.9,0.524
11.88,31786.2,34656.6,-0.9304,-0.8402,135.8,96.9,0.524
11.9,31860.9,34700.3,-0.6051,-0.7333,135.8,96.9,0.524
11.92,31992.7,34970.8,-0.0315,-0.0703,135.8,96.9,0.524
11.94,32196.8,35372.9,0.8567,0.9147,135.8,96.9,0.524
11.96,32214.5,35715.4,0.9336,1.754,135.8,96.9,0.524
11.98,32249.6,35815.1,1.0865,1.9984,135.8,96.9,0.524
12.0,32339.3,35636.6,1.4768,1.561,135.8,96.9,0.524
12.02,32309.1,35661.1,1.3451,1.6211,135.8,96.9,0.524
12.04,32172.5,35299.4,0.7509,0.7346,135.8,96.9,0.524
12.06,32135.1,35132.2,0.588,0.3251,135.8,96.9,0.524
12.08,32015.4,35036.2,0.0669,0.0899,135.8,96.9,0.524
12.1,32044.8,35035.4,0.1953,0.0879,135.8,96.9,0.524
12.12,32083.8,34966.3,0.3646,-0.0813,135.8,96.9,0.524
12.14,31924.7,34893.9,-0.3277,-0.2589,135.8,96.9,0.524
12.16,31912.4,34817.3,-0.3814,-0.4465,135.8,96.9,0.524
12.18,31839.1,34675.9,-0.7002,-0.7929,135.8,96.9,0.524
12.2,31865.3,34625.1,-0.5861,-0.9174,135.8,96.9,0.524
12.22,31847.9,34635.5,-0.6618,-0.892,135.8,96.9,0.524
12.24,31835.9,34635.6,-0.7139,-0.8916,135.8,96.9,0.524
12.26,31817.8,34630.0,-0.7927,-0.9054,135.8,96.9,0.524
12.28,31806.9,34551.3,-0.8403,-1.0983,135.8,96.9,0.524
12.3,31726.5,34476.5,-1.1901,-1.2816,135.8,96.9,0.524
12.32,31751.0,34535.8,-1.0835,-1.1363,135.8,96.9,0.524
12.34,31875.1,34748.5,-0.5436,-0.6152,135.8,96.9,0.524
12.36,32004.0,35062.3,0.0173,0.1539,135.8,96.9,0.524
12.38,32217.3,35381.6,0.9457,0.9362,135.8,96.9,0.524
12.4,32295.9,35603.7,1.2878,1.4804,135.8,96.9,0.524
12.42,32361.9,35722.6,1.5752,1.7717,135.8,96.9,0.524
12.44,32352.8,35764.7,1.5353,1.8747,135.8,96.9,0.524
12.46,32132.1,35538.4,0.5751,1.3204,135.8,96.9,0.524
12.48,32202.4,35411.5,0.8807,1.0093,135.8,96.9,0.524
12.5,32061.9,35251.8,0.2695,0.6182,135.8,96.9,0.524
12.52,32031.1,35020.3,0.1353,0.0508,135.8,96.9,0.524
12.54,32052.7,35094.1,0.2296,0.2317,135.8,96.9,0.524
12.56,32012.1,34987.5,0.0527,-0.0294,135.8,96.9,0.524
12.58,31917.4,34919.8,-0.3595,-0.1955,135.8,96.9,0.524
12.6,31870.3,34874.6,-0.5642,-0.3061,135.8,96.9,0.524
12.62,31866.0,34701.7,-0.5829,-0.7298,135.8,96.9,0.524
12.64,31877.4,34620.4,-0.5335,-0.929,135.8,96.9,0.524
12.66,31897.1,34585.0,-0.4475,-1.0157,135.8,96.9,0.524
12.68,31710.6,34671.2,-1.2594,-0.8046,135.8,96.9,0.524
12.7,31901.3,34512.0,-0.4294,-1.1946,135.8,96.9,0.524
12.72,31714.4,34442.8,-1.243,-1.3641,135.8,96.9,0.524
12.74,31739.1,34413.9,-1.1352,-1.435,135.8,96.9,0.524
12.76,31827.1,34378.8,-0.7525,-1.5209,135.8,96.9,0.524
12.78,31852.3,34677.9,-0.6428,-0.788,135.8,96.9,0.524
12.8,32048.5,34959.3,0.2112,-0.0986,135.8,96.9,0.524
12.82,32181.3,35300.9,0.7889,0.7385,135.8,96.9,0.524
12.84,32309.6,35686.5,1.3476,1.6833,135.8,96.9,0.524
12.86,32388.1,35727.7,1.689,1.7841,135.8,96.9,0.524
12.88,32443.7,35676.0,1.9311,1.6575,135.8,96.9,0.524
12.9,32311.0,35546.0,1.3536,1.339,135.8,96.9,0.524
12.92,32209.8,35468.8,0.9132,1.1497,135.8,96.9,0.524
12.94,32212.5,35171.6,0.925,0.4216,135.8,96.9,0.524
12.96,32041.1,35102.5,0.1789,0.2524,135.8,96.9,0.524
12.98,32061.5,35016.4,0.2679,0.0412,135.8,96.9,0.524
13.0,31950.2,35081.4,-0.2166,0.2007,135.8,96.9,0.524
13.02,32033.6,35038.1,0.1462,0.0944,135.8,96.9,0.524
13.04,31975.2,34800.8,-0.108,-0.487,135.8,96.9,0.524
13.06,31937.9,34665.3,-0.27,-0.819,135.8,96.9,0.524
13.08,31837.8,34608.8,-0.7058,-0.9574,135.8,96.9,0.524
13.1,31852.5,34676.1,-0.6417,-0.7924,135.8,96.9,0.524
13.12,31799.2,34708.9,-0.8739,-0.7122,135.8,96.9,0.524
13.14,31882.4,34576.0,-0.5119,-1.0377,135.8,96.9,0.524
13.16,31800.0,34534.5,-0.8702,-1.1394,135.8,96.9,0.524
13.18,31697.0,34429.5,-1.3187,-1.3967,135.8,96.9,0.524
13.2,31714.6,34481.3,-1.2418,-1.2699,135.8,96.9,0.524
13.22,31790.4,34682.5,-0.9123,-0.7769,135.8,96.9,0.524
13.24,32057.9,34951.0,0.2522,-0.119,135.8,96.9,0.524
13.26,32088.2,35309.8,0.384,0.7603,135.8,96.9,0.524
13.28,32211.0,35635.4,0.9184,1.558,135.8,96.9,0.524
13.3,32371.4,35765.8,1.6163,1.8776,135.8,96.9,0.524
13.32,32273.3,35727.6,1.1895,1.7839,135.8,96.9,0.524
13.34,32295.2,35640.5,1.2849,1.5704,135.8,96.9,0.524
13.36,32233.9,35393.6,1.0178,0.9656,135.8,96.9,0.524
13.38,32091.0,35237.2,0.396,0.5823,135.8,96.9,0.524
13.4,32107.3,35091.9,0.4669,0.2264,135.8,96.9,0.524
13.42,32057.6,34995.9,0.2507,-0.009,135.8,96.9,0.524
13.44,31966.8,35074.0,-0.1446,0.1825,135.8,96.9,0.524
13.46,31882.4,34934.5,-0.5118,-0.1594,135.8,96.9,0.524
13.48,31958.6,34820.1,-0.1801,-0.4396,135.8,96.9,0.524
13.5,31844.0,34687.2,-0.6788,-0.7653,135.8,96.9,0.524
13.52,31818.1,34741.1,-0.7916,-0.6332,135.8,96.9,0.524
13.54,31747.5,34689.2,-1.0986,-0.7603,135.8,96.9,0.524
13.56,31774.3,34633.6,-0.9823,-0.8966,135.8,96.9,0.524
13.58,31866.7,34579.9,-0.5802,-1.0282,135.8,96.9,0.524
13.6,31816.1,34531.4,-0.8003,-1.1471,135.8,96.9,0.524
13.62,31744.3,34453.7,-1.1127,-1.3375,135.8,96.9,0.524
13.64,31765.5,34461.7,-1.0202,-1.3179,135.8,96.9,0.524
13.66,31817.2,34733.3,-0.7954,-0.6524,135.8,96.9,0.524
13.68,31878.4,34926.2,-0.529,-0.1797,135.8,96.9,0.524
13.7,32124.6,35292.1,0.5424,0.7169,135.8,96.9,0.524
13.72,32190.8,35576.2,0.8303,1.4129,135.8,96.9,0.524
13.74,32405.8,35729.2,1.7661,1.7878,135.8,96.9,0.524
13.76,32372.6,35649.9,1.6215,1.5935,135.8,96.9,0.524
13.78,32331.8,35691.5,1.4441,1.6955,135.8,96.9,0.524
13.8,32196.7,35248.3,0.8562,0.6095,135.8,96.9,0.524
13.82,32095.3,35272.3,0.4146,0.6684,135.8,96.9,0.524
13.84,32085.2,35066.9,0.3708,0.165,135.8,96.9,0.524
13.86,31997.3,35065.8,-0.0117,0.1623,135.8,96.9,0.524
13.88,32002.4,35064.5,0.0105,0.1591,135.8,96.9,0.524
13.9,31939.5,34960.7,-0.2634,-0.0951,135.8,96.9,0.524
13.92,31960.7,34822.3,-0.1708,-0.4343,135.8,96.9,0.524
13.94,31944.5,34748.4,-0.2416,-0.6153,135.8,96.9,0.524
13.96,31837.8,34653.4,-0.7057,-0.8482,135.8,96.9,0.524
13.98,31783.1,34732.3,-0.944,-0.6548,135.8,96.9,0.524
14.0,31803.3,34640.3,-0.856,-0.8803,135.8,96.9,0.524
14.02,31790.4,34676.2,-0.9121,-0.7923,135.8,96.9,0.524
14.04,31816.7,34465.4,-0.7977,-1.3088,135.8,96.9,0.524
14.06,31842.8,34500.3,-0.6841,-1.2232,135.8,96.9,0.524
14.08,31726.3,34473.8,-1.191,-1.2882,135.8,96.9,0.524
14.1,31823.4,34637.7,-0.7684,-0.8865,135.8,96.9,0.524
14.12,31905.3,34901.0,-0.4122,-0.2415,135.8,96.9,0.524
14.14,32070.2,35211.3,0.3055,0.5188,135.8,96.9,0.524
14.16,32304.6,35643.6,1.3255,1.578,135.8,96.9,0.524
14.18,32350.6,35793.1,1.5259,1.9444,135.8,96.9,0.524
14.2,32280.3,35602.2,1.2199,1.4767,135.8,96.9,0.524
14.22,32375.3,35616.0,1.6332,1.5103,135.8,96.9,0.524
14.24,32208.1,35378.5,0.9057,0.9285,135.8,96.9,0.524
14.26,32100.0,35324.3,0.4354,0.7957,135.8,96.9,0.524
14.28,32100.5,35039.0,0.4375,0.0966,135.8,96.9,0.524
14.3,32066.4,35109.8,0.289,0.2702,135.8,96.9,0.524
14.32,32090.0,34994.2,0.3918,-0.0132,135.8,96.9,0.524
14.34,31956.0,34899.8,-0.1914,-0.2443,135.8,96.9,0.524
14.36,32035.3,34817.8,0.1538,-0.4452,135.8,96.9,0.524
14.38,31868.9,34846.8,-0.5706,-0.3742,135.8,96.9,0.524
14.4,31801.5,34720.5,-0.8638,-0.6838,135.8,96.9,0.524
14.42,31835.0,34678.2,-0.718,-0.7873,135.8,96.9,0.524
14.44,31889.1,34536.8,-0.4826,-1.1339,135.8,96.9,0.524
14.46,31813.2,34648.6,-0.8129,-0.8598,135.8,96.9,0.524
14.48,31813.7,34531.3,-0.8108,-1.1473,135.8,96.9,0.524
14.5,31813.9,34462.4,-0.8098,-1.316,135.8,96.9,0.524
14.52,31809.9,34455.7,-0.8273,-1.3325,135.8,96.9,0.524
14.54,31802.2,34694.2,-0.8605,-0.7481,135.8,96.9,0.524
14.56,31847.6,34843.3,-0.663,-0.3827,135.8,96.9,0.524
14.58,32082.8,35249.7,0.3606,0.6129,135.8,96.9,0.524
14.6,32238.9,35473.2,1.0396,1.1607,135.8,96.9,0.524
14.62,32450.8,35645.9,1.9619,1.5836,135.8,96.9,0.524
14.64,32376.3,35639.3,1.6379,1.5676,135.8,96.9,0.524
14.66,32355.3,35677.2,1.5464,1.6604,135.8,96.9,0.524
14.68,32219.8,35443.6,0.9565,1.0879,135.8,96.9,0.524
14.7,32063.8,35254.6,0.2777,0.625,135.8,96.9,0.524
14.72,32130.7,35074.7,0.5688,0.1842,135.8,96.9,0.524
14.74,32062.1,35132.9,0.2705,0.3267,135.8,96.9,0.524
14.76,32010.6,35029.3,0.0461,0.0728,135.8,96.9,0.524
14.78,31983.0,34990.5,-0.0739,-0.0221,135.8,96.9,0.524
14.8,31968.3,34841.0,-0.1378,-0.3885,135.8,96.9,0.524
14.82,31931.4,34824.7,-0.2983,-0.4284,135.8,96.9,0.524
14.84,31815.2,34659.7,-0.8043,-0.8326,135.8,96.9,0.524
14.86,31903.3,34645.2,-0.421,-0.8683,135.8,96.9,0.524
14.88,31838.7,34690.1,-0.7019,-0.7581,135.8,96.9,0.524
14.9,31760.7,34542.8,-1.0413,-1.1191,135.8,96.9,0.524
14.92,31778.5,34479.6,-0.9639,-1.274,135.8,96.9,0.524
14.94,31708.2,34475.3,-1.2699,-1.2846,135.8,96.9,0.524
14.96,31757.2,34518.2,-1.0564,-1.1794,135.8,96.9,0.524
14.98,31811.7,34535.2,-0.8196,-1.1378,135.8,96.9,0.524
15.0,31827.9,34814.2,-0.7487,-0.4541,135.8,96.9,0.524
15.02,32133.9,35155.6,0.5827,0.3823,135.8,96.9,0.524
15.04,32241.7,35476.7,1.0519,1.1691,135.8,96.9,0.524
15.06,32378.7,35738.8,1.648,1.8115,135.8,96.9,0.524
15.08,32421.6,35829.2,1.8351,2.0329,135.8,96.9,0.524
15.1,32287.2,35641.8,1.25,1.5736,135.8,96.9,0.524
15.12,32223.7,35435.2,0.9737,1.0674,135.8,96.9,0.524
15.14,32168.5,35265.1,0.7335,0.6506,135.8,96.9,0.524
15.16,32089.8,35157.4,0.3909,0.3867,135.8,96.9,0.524
15.18,32110.6,35102.8,0.4814,0.2529,135.8,96.9,0.524
15.2,31950.3,35040.6,-0.2162,0.1005,135.8,96.9,0.524
15.22,31974.9,34927.9,-0.109,-0.1756,135.8,96.9,0.524
15.24,31977.5,34840.4,-0.0977,-0.3899,135.8,96.9,0.524
15.26,31892.5,34748.6,-0.4678,-0.6147,135.8,96.9,0.524
15.28,31777.8,34706.7,-0.9668,-0.7175,135.8,96.9,0.524
15.3,31832.0,34722.3,-0.7309,-0.6793,135.8,96.9,0.524
15.32,31851.6,34653.7,-0.6458,-0.8473,135.8,96.9,0.524
15.34,31837.7,34687.6,-0.7061,-0.7643,135.8,96.9,0.524
15.36,31773.3,34546.6,-0.9864,-1.1099,135.8,96.9,0.524
15.38,31718.5,34504.0,-1.225,-1.2143,135.8,96.9,0.524
15.4,31817.8,34361.8,-0.7928,-1.5626,135.8,96.9,0.524
15.42,31803.6,34564.5,-0.8547,-1.066,135.8,96.9,0.524
15.44,31940.1,34800.3,-0.2605,-0.4882,135.8,96.9,0.524
15.46,31959.4,35108.7,-0.1768,0.2675,135.8,96.9,0.524
15.48,32281.4,35613.4,1.2248,1.5041,135.8,96.9,0.524
15.5,32367.6,35794.3,1.5997,1.9473,135.8,96.9,0.524
15.52,32346.0,35741.1,1.5057,1.8169,135.8,96.9,0.524
15.54,32323.7,35660.1,1.4089,1.6186,135.8,96.9,0.524
15.56,32308.8,35400.7,1.344,0.9829,135.8,96.9,0.524
15.58,32140.7,35235.1,0.6125,0.5772,135.8,96.9,0.524
15.6,32167.7,35155.3,0.7298,0.3817,135.8,96.9,0.524
15.62,32001.0,35126.8,0.0044,0.3119,135.8,96.9,0.524
15.64,32050.0,35009.4,0.2177,0.0242,135.8,96.9,0.524
15.66,32025.4,35019.6,0.1107,0.0492,135.8,96.9,0.524
15.68,31975.9,34809.7,-0.1049,-0.4653,135.8,96.9,0.524
15.7,31882.7,34822.7,-0.5103,-0.4333,135.8,96.9,0.524
15.72,31883.5,34715.7,-0.507,-0.6954,135.8,96.9,0.524
15.74,31785.1,34592.8,-0.9351,-0.9967,135.8,96.9,0.524
15.76,31748.1,34631.0,-1.0962,-0.9031,135.8,96.9,0.524
15.78,31813.2,34626.6,-0.813,-0.9137,135.8,96.9,0.524
15.8,31816.8,34522.7,-0.7971,-1.1683,135.8,96.9,0.524
15.82,31750.0,34462.7,-1.0881,-1.3154,135.8,96.9,0.524
15.84,31776.9,34452.4,-0.9707,-1.3406,135.8,96.9,0.524
15.86,31856.9,34532.9,-0.6226,-1.1433,135.8,96.9,0.524
15.88,31899.9,34787.5,-0.4355,-0.5196,135.8,96.9,0.524
15.9,32082.6,35127.7,0.3594,0.314,135.8,96.9,0.524
15.92,32199.1,35442.2,0.8664,1.0847,135.8,96.9,0.524
15.94,32386.0,35679.9,1.6802,1.667,135.8,96.9,0.524
15.96,32259.6,35781.4,1.1297,1.9158,135.8,96.9,0.524
15.98,32172.5,35667.7,0.7509,1.6372,135.8,96.9,0.524
16.0,32217.7,35457.0,0.9474,1.1209,135.8,96.9,0.524
16.02,32174.1,35267.4,0.758,0.6564,135.8,96.9,0.524
16.04,32075.3,35132.5,0.328,0.3259,135.8,96.9,0.524
16.06,32006.5,35078.3,0.0284,0.1929,135.8,96.9,0.524
16.08,31970.8,35019.4,-0.127,0.0487,135.8,96.9,0.524
16.1,31954.6,35043.0,-0.1974,0.1065,135.8,96.9,0.524
16.12,31907.7,34858.5,-0.4014,-0.3455,135.8,96.9,0.524
16.14,31811.2,34812.2,-0.8214,-0.4591,135.8,96.9,0.524
16.16,31881.2,34766.5,-0.517,-0.571,135.8,96.9,0.524
16.18,31843.1,34598.0,-0.6827,-0.9839,135.8,96.9,0.524
16.2,31850.9,34628.7,-0.6488,-0.9087,135.8,96.9,0.524
16.22,31823.7,34653.9,-0.7673,-0.847,135.8,96.9,0.524
16.24,31775.5,34545.5,-0.977,-1.1125,135.8,96.9,0.524
16.26,31765.3,34485.1,-1.0213,-1.2605,135.8,96.9,0.524
16.28,31708.0,34507.0,-1.2705,-1.2068,135.8,96.9,0.524
16.3,31755.4,34577.1,-1.0643,-1.0351,135.8,96.9,0.524
16.32,31924.0,34762.2,-0.3306,-0.5816,135.8,96.9,0.524
16.34,31982.1,35160.4,-0.0777,0.3941,135.8,96.9,0.524
16.36,32246.8,35432.9,1.0743,1.0618,135.8,96.9,0.524
16.38,32326.1,35645.5,1.4194,1.5827,135.8,96.9,0.524
16.4,32338.0,35745.0,1.471,1.8266,135.8,96.9,0.524
16.42,32332.6,35705.7,1.4473,1.7302,135.8,96.9,0.524
16.44,32256.2,35455.3,1.1152,1.1168,135.8,96.9,0.524
16.46,32108.2,35329.2,0.4709,0.8077,135.8,96.9,0.524
16.48,32088.3,35212.8,0.3845,0.5225,135.8,96.9,0.524
16.5,32059.9,35136.0,0.2606,0.3343,135.8,96.9,0.524
16.52,31972.8,34973.7,-0.1181,-0.0634,135.8,96.9,0.524
16.54,32088.7,34995.0,0.386,-0.0112,135.8,96.9,0.524
16.56,31950.2,34969.2,-0.2166,-0.0742,135.8,96.9,0.524
16.58,31956.2,34781.4,-0.1906,-0.5344,135.8,96.9,0.524
16.6,31933.4,34729.4,-0.2899,-0.662,135.8,96.9,0.524
16.62,31814.8,34706.3,-0.8061,-0.7185,135.8,96.9,0.524
16.64,31858.2,34702.6,-0.6168,-0.7275,135.8,96.9,0.524
16.66,31795.7,34678.4,-0.8889,-0.7869,135.8,96.9,0.524
16.68,31764.0,34580.4,-1.0271,-1.0269,135.8,96.9,0.524
16.7,31755.7,34456.0,-1.0632,-1.3317,135.8,96.9,0.524
16.72,31731.6,34411.1,-1.1681,-1.4418,135.8,96.9,0.524
16.74,31655.2,34509.3,-1.5007,-1.2013,135.8,96.9,0.524
16.76,31887.0,34763.7,-0.4916,-0.5778,135.8,96.9,0.524
16.78,32116.1,35058.0,0.5052,0.1432,135.8,96.9,0.524
16.8,32205.5,35420.7,0.8942,1.032,135.8,96.9,0.524
16.82,32384.2,35675.6,1.672,1.6565,135.8,96.9,0.524
16.84,32406.6,35834.9,1.7698,2.0467,135.8,96.9,0.524
16.86,32326.1,35705.8,1.4193,1.7304,135.8,96.9,0.524
16.88,32164.2,35422.4,0.7147,1.036,135.8,96.9,0.524
16.9,32087.2,35316.9,0.3794,0.7776,135.8,96.9,0.524
16.92,32044.8,35195.7,0.1952,0.4806,135.8,96.9,0.524
16.94,32143.7,35061.8,0.6256,0.1525,135.8,96.9,0.524
16.96,32062.7,35017.4,0.2731,0.0438,135.8,96.9,0.524
16.98,31969.9,34960.1,-0.1309,-0.0966,135.8,96.9,0.524
17.0,31996.8,34900.0,-0.0136,-0.244,135.8,96.9,0.524
17.02,31884.9,34824.3,-0.5007,-0.4294,135.8,96.9,0.524
17.04,31904.3,34699.1,-0.4163,-0.7362,135.8,96.9,0.524
17.06,31758.5,34734.6,-1.051,-0.6491,135.8,96.9,0.524
17.08,31755.0,34588.3,-1.0662,-1.0077,135.8,96.9,0.524
17.1,31775.0,34537.3,-0.9793,-1.1325,135.8,96.9,0.524
17.12,31860.2,34612.3,-0.6083,-0.9488,135.8,96.9,0.524
17.14,31859.7,34567.0,-0.6104,-1.0599,135.8,96.9,0.524
17.16,31747.7,34433.3,-1.0978,-1.3874,135.8,96.9,0.524
17.18,31804.6,34497.8,-0.8505,-1.2294,135.8,96.9,0.524
17.2,31860.7,34699.0,-0.6062,-0.7363,135.8,96.9,0.524
17.22,31929.4,35123.1,-0.3074,0.3029,135.8,96.9,0.524
17.24,32159.4,35389.0,0.6936,0.9542,135.8,96.9,0.524
17.26,32315.9,35679.7,1.375,1.6665,135.8,96.9,0.524
17.28,32422.1,35799.9,1.8372,1.9609,135.8,96.9,0.524
17.3,32246.3,35730.3,1.072,1.7905,135.8,96.9,0.524
17.32,32328.1,35598.3,1.428,1.467,135.8,96.9,0.524
17.34,32206.9,35285.9,0.9004,0.7016,135.8,96.9,0.524
17.36,32125.3,35242.6,0.5454,0.5955,135.8,96.9,0.524
17.38,32065.3,35056.8,0.2841,0.1402,135.8,96.9,0.524
17.4,32032.4,35037.1,0.1413,0.092,135.8,96.9,0.524
17.42,32026.2,35058.5,0.1139,0.1446,135.8,96.9,0.524
17.44,31979.8,34885.4,-0.0878,-0.2797,135.8,96.9,0.524
17.46,31794.9,34787.2,-0.8925,-0.5204,135.8,96.9,0.524
17.48,31874.7,34644.6,-0.5453,-0.8696,135.8,96.9,0.524
17.5,31868.4,34624.9,-0.5728,-0.918,135.8,96.9,0.524
17.52,31815.9,34704.5,-0.801,-0.7229,135.8,96.9,0.524
17.54,31855.1,34671.3,-0.6305,-0.8043,135.8,96.9,0.524
17.56,31697.8,34617.6,-1.315,-0.9358,135.8,96.9,0.524
17.58,31697.7,34491.4,-1.3154,-1.2451,135.8,96.9,0.524
17.6,31661.8,34470.8,-1.4716,-1.2956,135.8,96.9,0.524
17.62,31770.9,34528.2,-0.997,-1.155,135.8,96.9,0.524
17.64,31794.8,34723.2,-0.8928,-0.6771,135.8,96.9,0.524
17.66,32061.4,34932.5,0.2674,-0.1643,135.8,96.9,0.524
17.68,32155.5,35309.8,0.6767,0.7601,135.8,96.9,0.524
17.7,32312.1,35711.8,1.3582,1.7452,135.8,96.9,0.524
17.72,32444.3,35726.2,1.9336,1.7804,135.8,96.9,0.524
17.74,32414.1,35703.4,1.8024,1.7246,135.8,96.9,0.524
17.76,32311.2,35516.4,1.3543,1.2664,135.8,96.9,0.524
17.78,32184.2,35282.4,0.8018,0.6932,135.8,96.9,0.524
17.8,32067.9,35122.0,0.2957,0.3,135.8,96.9,0.524
17.82,32072.3,35121.8,0.3148,0.2996,135.8,96.9,0.524
17.84,32156.5,35077.1,0.6813,0.1901,135.8,96.9,0.524
17.86,31943.2,34990.8,-0.2471,-0.0215,135.8,96.9,0.524
17.88,31946.7,34863.0,-0.2321,-0.3347,135.8,96.9,0.524
17.9,31968.2,34957.5,-0.1381,-0.1029,135.8,96.9,0.524
17.92,31801.4,34747.7,-0.8643,-0.6171,135.8,96.9,0.524
17.94,31845.6,34760.0,-0.6717,-0.5868,135.8,96.9,0.524
17.96,31906.9,34667.5,-0.4052,-0.8137,135.8,96.9,0.524
17.98,31924.8,34712.3,-0.3272,-0.7037,135.8,96.9,0.524
18.0,31778.5,34606.2,-0.9637,-0.9638,135.8,96.9,0.524
18.02,31752.7,34511.1,-1.0762,-1.1967,135.8,96.9,0.524
18.04,31660.8,34493.2,-1.4761,-1.2408,135.8,96.9,0.524
18.06,31608.0,34437.9,-1.706,-1.3762,135.8,96.9,0.524
18.08,31822.8,34689.8,-0.7709,-0.7588,135.8,96.9,0.524
18.1,32013.3,34946.5,0.0578,-0.1299,135.8,96.9,0.524
18.12,32205.3,35259.0,0.8935,0.6358,135.8,96.9,0.524
18.14,32314.9,35657.4,1.3703,1.6119,135.8,96.9,0.524
18.16,32363.5,35715.8,1.5821,1.7549,135.8,96.9,0.524
18.18,32304.8,35749.7,1.3266,1.8381,135.8,96.9,0.524
18.2,32240.1,35570.4,1.0451,1.3987,135.8,96.9,0.524
18.22,32265.4,35239.2,1.155,0.5872,135.8,96.9,0.524
18.24,32108.8,35199.1,0.4736,0.489,135.8,96.9,0.524
18.26,31986.7,35142.1,-0.0578,0.3493,135.8,96.9,0.524
18.28,31997.0,35136.8,-0.0131,0.3362,135.8,96.9,0.524
18.3,32095.4,35002.7,0.4153,0.0078,135.8,96.9,0.524
18.32,31987.4,34984.0,-0.0549,-0.0382,135.8,96.9,0.524
18.34,31928.0,34941.4,-0.313,-0.1424,135.8,96.9,0.524
18.36,31874.2,34747.5,-0.5474,-0.6176,135.8,96.9,0.524
18.38,31839.8,34663.2,-0.697,-0.8241,135.8,96.9,0.524
18.4,31866.1,34655.3,-0.5827,-0.8435,135.8,96.9,0.524
18.42,31783.6,34643.7,-0.9417,-0.872,135.8,96.9,0.524
18.44,31760.3,34665.5,-1.0429,-0.8186,135.8,96.9,0.524
18.46,31820.0,34569.0,-0.7832,-1.0549,135.8,96.9,0.524
18.48,31735.9,34592.5,-1.1494,-0.9973,135.8,96.9,0.524
18.5,31658.2,34531.5,-1.4872,-1.1467,135.8,96.9,0.524
18.52,31803.0,34607.6,-0.8574,-0.9603,135.8,96.9,0.524
18.54,31894.9,34813.9,-0.4572,-0.455,135.8,96.9,0.524
18.56,32218.1,35302.7,0.9492,0.7429,135.8,96.9,0.524
18.58,32176.3,35636.5,0.7675,1.5608,135.8,96.9,0.524
18.6,32261.3,35737.9,1.1374,1.8092,135.8,96.9,0.524
18.62,32451.4,35728.6,1.9645,1.7864,135.8,96.9,0.524
18.64,32233.6,35592.9,1.0167,1.4538,135.8,96.9,0.524
18.66,32163.4,35349.4,0.711,0.8572,135.8,96.9,0.524
18.68,32108.4,35314.1,0.4719,0.7707,135.8,96.9,0.524
18.7,32058.3,35170.1,0.2537,0.418,135.8,96.9,0.524
18.72,32055.4,35046.6,0.2413,0.1154,135.8,96.9,0.524
18.74,32018.0,35038.1,0.0783,0.0944,135.8,96.9,0.524
18.76,31975.3,34973.7,-0.1074,-0.0633,135.8,96.9,0.524
18.78,31905.1,34804.1,-0.4129,-0.4788,135.8,96.9,0.524
18.8,31883.9,34776.9,-0.5051,-0.5456,135.8,96.9,0.524
18.82,31828.9,34746.3,-0.7444,-0.6204,135.8,96.9,0.524
18.84,31824.4,34678.4,-0.7642,-0.7869,135.8,96.9,0.524
18.86,31812.1,34730.8,-0.8177,-0.6584,135.8,96.9,0.524
18.88,31762.0,34598.3,-1.0359,-0.983,135.8,96.9,0.524
18.9,31701.4,34529.1,-1.2992,-1.1526,135.8,96.9,0.524
18.92,31777.3,34399.0,-0.9689,-1.4715,135.8,96.9,0.524
18.94,31787.2,34442.2,-0.926,-1.3655,135.8,96.9,0.524
18.96,31759.3,34683.8,-1.0475,-0.7736,135.8,96.9,0.524
18.98,31944.9,34963.5,-0.2395,-0.0884,135.8,96.9,0.524
19.0,32168.2,35250.9,0.7321,0.616,135.8,96.9,0.524
19.02,32201.4,35581.2,0.8765,1.4251,135.8,96.9,0.524
19.04,32255.4,35731.5,1.1114,1.7935,135.8,96.9,0.524
19.06,32333.8,35803.2,1.4527,1.9691,135.8,96.9,0.524
19.08,32255.8,35581.7,1.1132,1.4263,135.8,96.9,0.524
19.1,32162.3,35392.8,0.7064,0.9636,135.8,96.9,0.524
19.12,32142.4,35293.4,0.6197,0.72,135.8,96.9,0.524
19.14,32039.9,35137.8,0.1738,0.3387,135.8,96.9,0.524
19.16,32002.0,35112.4,0.0087,0.2766,135.8,96.9,0.524
19.18,31974.3,35086.3,-0.1116,0.2127,135.8,96.9,0.524
19.2,32105.5,34992.6,0.4594,-0.0169,135.8,96.9,0.524
19.22,31860.3,34877.3,-0.6079,-0.2995,135.8,96.9,0.524
19.24,31856.2,34780.9,-0.6256,-0.5357,135.8,96.9,0.524
19.26,31737.3,34661.3,-1.1432,-0.8287,135.8,96.9,0.524
19.28,31760.3,34633.3,-1.0431,-0.8973,135.8,96.9,0.524
19.3,31851.6,34691.8,-0.6457,-0.7541,135.8,96.9,0.524
19.32,31895.1,34688.2,-0.4563,-0.7628,135.8,96.9,0.524
19.34,31788.6,34540.5,-0.9199,-1.1248,135.8,96.9,0.524
19.36,31790.3,34421.9,-0.9127,-1.4155,135.8,96.9,0.524
19.38,31764.5,34479.2,-1.0247,-1.2748,135.8,96.9,0.524
19.4,31777.7,34625.3,-0.9673,-0.9171,135.8,96.9,0.524
19.42,31946.2,34939.7,-0.2341,-0.1465,135.8,96.9,0.524
19.44,32159.4,35212.0,0.6936,0.5207,135.8,96.9,0.524
19.46,32263.3,35556.7,1.146,1.3651,135.8,96.9,0.524
19.48,32404.6,35706.9,1.7609,1.7331,135.8,96.9,0.524
19.5,32206.9,35677.1,0.9003,1.6603,135.8,96.9,0.524
19.52,32340.1,35638.4,1.4801,1.5653,135.8,96.9,0.524
19.54,32174.2,35430.1,0.7581,1.0549,135.8,96.9,0.524
19.56,32157.7,35225.5,0.6866,0.5538,135.8,96.9,0.524
19.58,32110.1,35129.9,0.4793,0.3194,135.8,96.9,0.524
19.6,32042.9,35069.7,0.187,0.172,135.8,96.9,0.524
19.62,32006.5,35062.5,0.0284,0.1544,135.8,96.9,0.524
19.64,32013.4,34937.3,0.0584,-0.1524,135.8,96.9,0.524
19.66,32003.5,34802.2,0.0153,-0.4836,135.8,96.9,0.524
19.68,31868.6,34740.2,-0.5719,-0.6355,135.8,96.9,0.524
19.7,31847.8,34717.6,-0.6624,-0.6907,135.8,96.9,0.524
19.72,31931.3,34682.9,-0.2988,-0.7757,135.8,96.9,0.524
19.74,31864.3,34620.1,-0.5904,-0.9297,135.8,96.9,0.524
19.76,31869.2,34530.7,-0.569,-1.1488,135.8,96.9,0.524
19.78,31889.6,34500.2,-0.4803,-1.2236,135.8,96.9,0.524
19.8,31725.6,34482.3,-1.194,-1.2674,135.8,96.9,0.524
19.82,31817.9,34470.4,-0.7922,-1.2965,135.8,96.9,0.524
19.84,31761.4,34542.1,-1.0382,-1.1209,135.8,96.9,0.524
19.86,31963.3,34883.6,-0.1597,-0.2841,135.8,96.9,0.524
19.88,32130.5,35213.4,0.5682,0.524,135.8,96.9,0.524
19.9,32209.8,35547.3,0.913,1.3422,135.8,96.9,0.524
19.92,32423.1,35675.2,1.8416,1.6555,135.8,96.9,0.524
19.94,32323.6,35653.9,1.4084,1.6033,135.8,96.9,0.524
19.96,32268.7,35644.2,1.1693,1.5795,135.8,96.9,0.524
19.98,32279.1,35476.0,1.2146,1.1673,135.8,96.9,0.524
20.0,32175.4,35315.1,0.7635,0.7732,135.8,96.9,0.524
20.02,32133.0,35076.1,0.579,0.1875,135.8,96.9,0.524
20.04,32094.1,35113.4,0.4097,0.2789,135.8,96.9,0.524
20.06,31999.3,35062.7,-0.0028,0.1547,135.8,96.9,0.524
20.08,32022.5,34986.5,0.098,-0.0319,135.8,96.9,0.524
20.1,31920.7,34860.6,-0.3449,-0.3404,135.8,96.9,0.524
20.12,31963.2,34834.4,-0.1599,-0.4045,135.8,96.9,0.524
20.14,31860.6,34754.2,-0.6065,-0.6012,135.8,96.9,0.524
20.16,31881.6,34746.0,-0.5153,-0.6213,135.8,96.9,0.524
20.18,31805.3,34667.4,-0.8473,-0.8138,135.8,96.9,0.524
20.2,31835.0,34583.5,-0.7181,-1.0195,135.8,96.9,0.524
20.22,31695.6,34580.0,-1.3247,-1.028,135.8,96.9,0.524
20.24,31787.7,34573.1,-0.9239,-1.045,135.8,96.9,0.524
20.26,31754.8,34410.4,-1.0668,-1.4435,135.8,96.9,0.524
20.28,31846.9,34571.8,-0.6664,-1.048,135.8,96.9,0.524
20.3,31857.3,34836.4,-0.6209,-0.3997,135.8,96.9,0.524
20.32,32111.9,35256.8,0.487,0.6304,135.8,96.9,0.524
20.34,32216.6,35554.5,0.9425,1.3598,135.8,96.9,0.524
20.36,32311.2,35803.9,1.3546,1.9709,135.8,96.9,0.524
20.38,32272.7,35736.2,1.187,1.8049,135.8,96.9,0.524
20.4,32354.9,35598.5,1.5448,1.4677,135.8,96.9,0.524
20.42,32253.6,35398.3,1.1037,0.9771,135.8,96.9,0.524
20.44,32208.7,35370.3,0.9083,0.9084,135.8,96.9,0.524
20.46,32066.6,35160.1,0.29,0.3935,135.8,96.9,0.524
20.48,32039.1,35106.4,0.1703,0.2618,135.8,96.9,0.524
20.5,32033.6,34973.6,0.1463,-0.0635,135.8,96.9,0.524
20.52,31995.5,34924.7,-0.0194,-0.1834,135.8,96.9,0.524
20.54,31912.4,34845.7,-0.3813,-0.3769,135.8,96.9,0.524
20.56,31905.4,34765.0,-0.4115,-0.5746,135.8,96.9,0.524
20.58,31877.5,34654.5,-0.5331,-0.8455,135.8,96.9,0.524
20.6,31768.9,34639.2,-1.0058,-0.8829,135.8,96.9,0.524
20.62,31870.3,34654.9,-0.5642,-0.8444,135.8,96.9,0.524
20.64,31875.0,34671.2,-0.5438,-0.8046,135.8,96.9,0.524
20.66,31846.3,34603.1,-0.6686,-0.9713,135.8,96.9,0.524
20.68,31788.2,34481.3,-0.9217,-1.2698,135.8,96.9,0.524
20.7,31795.9,34417.4,-0.8883,-1.4264,135.8,96.9,0.524
20.72,31820.2,34530.3,-0.7823,-1.1498,135.8,96.9,0.524
20.74,31877.5,34806.1,-0.5332,-0.474,135.8,96.9,0.524
20.76,32029.9,35214.4,0.13,0.5265,135.8,96.9,0.524
20.78,32160.9,35475.6,0.7005,1.1665,135.8,96.9,0.524
20.8,32367.1,35637.7,1.5978,1.5635,135.8,96.9,0.524
20.82,32448.2,35728.4,1.9508,1.7858,135.8,96.9,0.524
20.84,32308.2,35660.5,1.3415,1.6196,135.8,96.9,0.524
20.86,32275.6,35502.1,1.1994,1.2314,135.8,96.9,0.524
20.88,32121.0,35262.7,0.5268,0.6448,135.8,96.9,0.524
20.9,32063.1,35207.9,0.2747,0.5104,135.8,96.9,0.524
20.92,31952.8,35089.8,-0.2052,0.2212,135.8,96.9,0.524
20.94,32059.0,35002.3,0.2569,0.0068,135.8,96.9,0.524
20.96,31929.3,35051.6,-0.3076,0.1274,135.8,96.9,0.524
20.98,31977.3,34897.4,-0.0989,-0.2503,135.8,96.9,0.524
21.0,31998.8,34759.9,-0.005,-0.5871,135.8,96.9,0.524
21.02,31885.0,34807.8,-0.5005,-0.4699,135.8,96.9,0.524
21.04,31786.5,34658.4,-0.9292,-0.8359,135.8,96.9,0.524
21.06,31800.4,34723.4,-0.8687,-0.6765,135.8,96.9,0.524
21.08,31803.2,34537.8,-0.8565,-1.1313,135.8,96.9,0.524
21.1,31775.4,34554.8,-0.9773,-1.0896,135.8,96.9,0.524
21.12,31724.5,34435.0,-1.1987,-1.3831,135.8,96.9,0.524
21.14,31651.0,34365.6,-1.5185,-1.5532,135.8,96.9,0.524
21.16,31787.3,34638.6,-0.9257,-0.8844,135.8,96.9,0.524
21.18,31912.2,34741.8,-0.382,-0.6315,135.8,96.9,0.524
21.2,32069.9,35192.9,0.3043,0.4739,135.8,96.9,0.524
21.22,32202.2,35460.1,0.8802,1.1285,135.8,96.9,0.524
21.24,32308.3,35727.5,1.3417,1.7837,135.8,96.9,0.524
21.26,32325.0,35723.1,1.4146,1.7729,135.8,96.9,0.524
21.28,32326.5,35677.2,1.4211,1.6604,135.8,96.9,0.524
21.3,32212.1,35458.3,0.9233,1.1239,135.8,96.9,0.524
21.32,32147.2,35228.7,0.6408,0.5616,135.8,96.9,0.524
21.34,32136.6,35204.8,0.5947,0.503,135.8,96.9,0.524
21.36,32071.5,35105.9,0.3112,0.2605,135.8,96.9,0.524
21.38,31976.5,35113.2,-0.102,0.2785,135.8,96.9,0.524
21.4,31994.4,35000.3,-0.0244,0.0018,135.8,96.9,0.524
21.42,32012.6,34880.0,0.0549,-0.2928,135.8,96.9,0.524
21.44,31978.2,34835.5,-0.0948,-0.4018,135.8,96.9,0.524
21.46,31884.9,34709.8,-0.5007,-0.7098,135.8,96.9,0.524
21.48,31842.1,34721.5,-0.687,-0.6812,135.8,96.9,0.524
21.5,31880.6,34680.3,-0.5196,-0.7822,135.8,96.9,0.524
21.52,31833.3,34650.3,-0.7254,-0.8556,135.8,96.9,0.524
21.54,31872.6,34614.8,-0.5544,-0.9427,135.8,96.9,0.524
21.56,31748.3,34468.5,-1.0953,-1.3012,135.8,96.9,0.524
21.58,31700.8,34410.9,-1.3018,-1.4423,135.8,96.9,0.524
21.6,31776.2,34571.6,-0.9738,-1.0485,135.8,96.9,0.524
21.62,31895.4,34628.7,-0.4549,-0.9087,135.8,96.9,0.524
21.64,32025.7,34983.8,0.1121,-0.0386,135.8,96.9,0.524
21.66,32195.8,35472.1,0.8521,1.1578,135.8,96.9,0.524
21.68,32328.7,35759.6,1.4307,1.8623,135.8,96.9,0.524
21.7,32409.1,35860.0,1.7803,2.1084,135.8,96.9,0.524
21.72,32375.7,35630.7,1.6352,1.5466,135.8,96.9,0.524
21.74,32210.2,35436.1,0.9149,1.0698,135.8,96.9,0.524
21.76,31994.3,35235.6,-0.0245,0.5785,135.8,96.9,0.524
21.78,32100.1,35242.2,0.4358,0.5947,135.8,96.9,0.524
21.8,32130.6,35199.2,0.5684,0.4892,135.8,96.9,0.524
21.82,32036.1,35166.9,0.1573,0.4101,135.8,96.9,0.524
21.84,31886.2,34971.2,-0.4953,-0.0693,135.8,96.9,0.524
21.86,31966.2,34933.0,-0.1469,-0.1631,135.8,96.9,0.524
21.88,31908.4,34743.0,-0.3985,-0.6285,135.8,96.9,0.524
21.9,31815.9,34774.9,-0.8012,-0.5504,135.8,96.9,0.524
21.92,31907.7,34751.3,-0.4015,-0.6082,135.8,96.9,0.524
21.94,31892.2,34685.8,-0.4692,-0.7688,135.8,96.9,0.524
21.96,31869.7,34591.6,-0.5671,-0.9997,135.8,96.9,0.524
21.98,31706.3,34623.5,-1.2782,-0.9214,135.8,96.9,0.524
22.0,31726.6,34578.1,-1.1899,-1.0326,135.8,96.9,0.524
22.02,31761.2,34462.1,-1.0391,-1.3168,135.8,96.9,0.524
22.04,31777.1,34527.2,-0.9701,-1.1573,135.8,96.9,0.524
22.06,31933.0,34743.9,-0.2917,-0.6263,135.8,96.9,0.524
22.08,31993.5,34984.6,-0.0283,-0.0366,135.8,96.9,0.524
22.1,32155.7,35459.2,0.6776,1.1263,135.8,96.9,0.524
22.12,32394.2,35672.8,1.7155,1.6495,135.8,96.9,0.524
22.14,32346.7,35835.8,1.5088,2.0491,135.8,96.9,0.524
22.16,32383.3,35684.4,1.6681,1.678,135.8,96.9,0.524
22.18,32220.0,35407.0,0.9574,0.9984,135.8,96.9,0.524
22.2,32212.2,35456.4,0.9236,1.1194,135.8,96.9,0.524
22.22,32110.7,35196.5,0.4818,0.4826,135.8,96.9,0.524
22.24,32034.6,35137.5,0.1505,0.338,135.8,96.9,0.524
22.26,31978.0,35110.1,-0.0954,0.2708,135.8,96.9,0.524
22.28,31947.9,34990.9,-0.2265,-0.0211,135.8,96.9,0.524
22.3,32033.5,34900.0,0.1458,-0.2439,135.8,96.9,0.524
22.32,31987.1,34802.8,-0.0561,-0.4821,135.8,96.9,0.524
22.34,31843.1,34729.4,-0.6826,-0.6619,135.8,96.9,0.524
22.36,31917.1,34685.0,-0.3607,-0.7706,135.8,96.9,0.524
22.38,31941.6,34708.8,-0.2542,-0.7123,135.8,96.9,0.524
22.4,31866.6,34808.7,-0.5805,-0.4675,135.8,96.9,0.524
22.42,31750.7,34507.6,-1.085,-1.2054,135.8,96.9,0.524
22.44,31655.6,34475.3,-1.4986,-1.2845,135.8,96.9,0.524
22.46,31831.6,34431.9,-0.7327,-1.3908,135.8,96.9,0.524
22.48,31780.4,34572.3,-0.9555,-1.0468,135.8,96.9,0.524
22.5,31875.7,34759.8,-0.5407,-0.5873,135.8,96.9,0.524
22.52,32032.9,35098.6,0.1434,0.2426,135.8,96.9,0.524
22.54,32277.2,35450.7,1.2065,1.1054,135.8,96.9,0.524
22.56,32367.8,35688.0,1.6006,1.6868,135.8,96.9,0.524
22.58,32313.8,35747.9,1.3659,1.8337,135.8,96.9,0.524
22.6,32415.5,35756.3,1.8085,1.8542,135.8,96.9,0.524
22.62,32193.1,35526.1,0.8404,1.2902,135.8,96.9,0.524
22.64,32086.7,35336.2,0.3772,0.8249,135.8,96.9,0.524
22.66,32139.1,35248.2,0.6055,0.6092,135.8,96.9,0.524
22.68,32072.2,35058.2,0.3142,0.1438,135.8,96.9,0.524
22.7,32138.8,35072.4,0.6042,0.1786,135.8,96.9,0.524
22.72,31999.4,35044.4,-0.0026,0.1098,135.8,96.9,0.524
22.74,31986.2,34894.0,-0.0601,-0.2586,135.8,96.9,0.524
22.76,31830.0,34838.6,-0.7396,-0.3942,135.8,96.9,0.524
22.78,31906.4,34699.4,-0.4074,-0.7355,135.8,96.9,0.524
22.8,31823.3,34756.4,-0.7689,-0.5958,135.8,96.9,0.524
22.82,31828.5,34645.3,-0.7464,-0.8679,135.8,96.9,0.524
22.84,31801.3,34599.2,-0.8645,-0.9809,135.8,96.9,0.524
22.86,31783.1,34633.9,-0.9437,-0.8959,135.8,96.9,0.524
22.88,31778.2,34464.8,-0.9653,-1.3101,135.8,96.9,0.524
22.9,31728.8,34372.9,-1.1801,-1.5353,135.8,96.9,0.524
22.92,31735.5,34505.8,-1.151,-1.2097,135.8,96.9,0.524
22.94,31742.9,34678.5,-1.1189,-0.7867,135.8,96.9,0.524
22.96,31931.6,34930.6,-0.2976,-0.169,135.8,96.9,0.524
22.98,32133.4,35409.8,0.5805,1.0052,135.8,96.9,0.524
23.0,32353.0,35697.1,1.5365,1.7093,135.8,96.9,0.524
23.02,32301.6,35795.8,1.3127,1.9509,135.8,96.9,0.524
23.04,32281.6,35739.9,1.2255,1.814,135.8,96.9,0.524
23.06,32248.5,35496.5,1.0814,1.2177,135.8,96.9,0.524
23.08,32239.9,35336.2,1.0439,0.8249,135.8,96.9,0.524
23.1,32139.4,35247.1,0.6069,0.6065,135.8,96.9,0.524
23.12,32041.9,35086.0,0.1825,0.2119,135.8,96.9,0.524
23.14,31939.9,35160.9,-0.2614,0.3953,135.8,96.9,0.524
23.16,31970.1,34998.7,-0.1301,-0.002,135.8,96.9,0.524
23.18,31965.3,34930.3,-0.1508,-0.1697,135.8,96.9,0.524
23.2,32042.7,34841.1,0.1857,-0.3882,135.8,96.9,0.524
23.22,31943.7,34635.1,-0.2449,-0.8931,135.8,96.9,0.524
23.24,31912.1,34628.0,-0.3826,-0.9104,135.8,96.9,0.524
23.26,31735.1,34676.6,-1.1526,-0.7912,135.8,96.9,0.524
23.28,31860.5,34578.0,-0.6069,-1.0328,135.8,96.9,0.524
23.3,31825.7,34555.3,-0.7586,-1.0886,135.8,96.9,0.524
23.32,31768.1,34480.7,-1.0091,-1.2712,135.8,96.9,0.524
23.34,31746.4,34401.9,-1.1037,-1.4644,135.8,96.9,0.524
23.36,31655.3,34429.2,-1.5002,-1.3975,135.8,96.9,0.524
23.38,31793.5,34604.1,-0.8987,-0.9689,135.8,96.9,0.524
23.4,32110.1,35047.4,0.4791,0.1173,135.8,96.9,0.524
23.42,32203.3,35279.5,0.885,0.6859,135.8,96.9,0.524
23.44,32313.4,35623.8,1.3639,1.5296,135.8,96.9,0.524
23.46,32375.3,35758.9,1.6333,1.8607,135.8,96.9,0.524
23.48,32368.5,35742.7,1.6036,1.821,135.8,96.9,0.524
23.5,32207.3,35534.4,0.9023,1.3106,135.8,96.9,0.524
23.52,32151.8,35364.9,0.6608,0.8951,135.8,96.9,0.524
23.54,32076.1,35197.2,0.3312,0.4844,135.8,96.9,0.524
23.56,32005.8,35008.8,0.0252,0.0227,135.8,96.9,0.524
23.58,32016.1,35089.9,0.0702,0.2215,135.8,96.9,0.524
23.6,32134.0,35040.7,0.5834,0.1008,135.8,96.9,0.524
23.62,31988.9,34937.8,-0.0482,-0.1513,135.8,96.9,0.524
23.64,31892.5,34786.8,-0.4679,-0.5213,135.8,96.9,0.524
23.66,31944.6,34730.3,-0.2412,-0.6597,135.8,96.9,0.524
23.68,31863.4,34628.7,-0.5942,-0.9087,135.8,96.9,0.524
23.7,31800.4,34552.4,-0.8684,-1.0957,135.8,96.9,0.524
23.72,31865.9,34630.4,-0.5837,-0.9046,135.8,96.9,0.524
23.74,31819.8,34579.1,-0.7841,-1.0302,135.8,96.9,0.524
23.76,31732.1,34537.6,-1.1659,-1.1318,135.8,96.9,0.524
23.78,31795.3,34452.0,-0.8908,-1.3415,135.8,96.9,0.524
23.8,31776.7,34479.1,-0.9717,-1.2751,135.8,96.9,0.524
23.82,31855.7,34585.8,-0.6278,-1.0138,135.8,96.9,0.524
23.84,32006.0,34951.3,0.026,-0.1183,135.8,96.9,0.524
23.86,32085.5,35205.0,0.372,0.5034,135.8,96.9,0.524
23.88,32237.6,35639.6,1.0341,1.5683,135.8,96.9,0.524
23.9,32381.8,35735.0,1.6619,1.802,135.8,96.9,0.524
23.92,32307.6,35709.4,1.3388,1.7394,135.8,96.9,0.524
23.94,32258.2,35646.0,1.124,1.5839,135.8,96.9,0.524
23.96,32199.6,35372.9,0.8686,0.9148,135.8,96.9,0.524
23.98,32099.4,35192.5,0.4325,0.4727,135.8,96.9,0.524
24.0,32070.7,35108.8,0.3077,0.2678,135.8,96.9,0.524
24.02,32089.3,35053.7,0.3887,0.1328,135.8,96.9,0.524
24.04,32010.7,35052.0,0.0468,0.1285,135.8,96.9,0.524
24.06,31907.3,34999.9,-0.4033,0.001,135.8,96.9,0.524
24.08,31891.6,34851.7,-0.4718,-0.3622,135.8,96.9,0.524
24.1,31913.9,34697.8,-0.3748,-0.7392,135.8,96.9,0.524
24.12,31963.9,34731.6,-0.157,-0.6565,135.8,96.9,0.524
24.14,31780.9,34659.0,-0.9534,-0.8344,135.8,96.9,0.524
24.16,31827.5,34628.1,-0.7504,-0.91,135.8,96.9,0.524
24.18,31762.9,34550.3,-1.0316,-1.1008,135.8,96.9,0.524
24.2,31817.9,34513.9,-0.7924,-1.1899,135.8,96.9,0.524
24.22,31804.9,34460.4,-0.8489,-1.3209,135.8,96.9,0.524
24.24,31696.4,34400.9,-1.3213,-1.4667,135.8,96.9,0.524
24.26,31647.9,34700.4,-1.5324,-0.733,135.8,96.9,0.524
24.28,31940.4,34871.5,-0.2595,-0.3137,135.8,96.9,0.524
24.3,32133.4,35208.6,0.5806,0.5123,135.8,96.9,0.524
24.32,32317.2,35668.1,1.3806,1.638,135.8,96.9,0.524
24.34,32409.0,35722.9,1.78,1.7724,135.8,96.9,0.524
24.36,32354.2,35818.7,1.5416,2.0072,135.8,96.9,0.524
24.38,32313.9,35539.7,1.3662,1.3234,135.8,96.9,0.524
24.4,32177.9,35464.7,0.7742,1.1398,135.8,96.9,0.524
24.42,32134.5,35343.1,0.5854,0.8417,135.8,96.9,0.524
24.44,32128.9,35205.6,0.5612,0.5048,135.8,96.9,0.524
24.46,32084.7,35144.2,0.3685,0.3544,135.8,96.9,0.524
24.48,31968.5,35017.6,-0.1371,0.0443,135.8,96.9,0.524
24.5,32003.5,34908.9,0.0152,-0.2221,135.8,96.9,0.524
24.52,31870.7,34816.0,-0.5628,-0.4497,135.8,96.9,0.524
24.54,31854.6,34741.0,-0.6328,-0.6336,135.8,96.9,0.524
24.56,31789.5,34652.0,-0.9162,-0.8516,135.8,96.9,0.524
24.58,31783.0,34733.7,-0.9441,-0.6513,135.8,96.9,0.524
24.6,31898.3,34745.7,-0.4425,-0.622,135.8,96.9,0.524
24.62,31782.3,34544.5,-0.9473,-1.1149,135.8,96.9,0.524
24.64,31746.1,34563.6,-1.1049,-1.0681,135.8,96.9,0.524
24.66,31717.4,34449.0,-1.2297,-1.3489,135.8,96.9,0.524
24.68,31814.5,34569.7,-0.807,-1.0532,135.8,96.9,0.524
24.7,31783.9,34572.1,-0.9405,-1.0473,135.8,96.9,0.524
24.72,31917.8,34961.4,-0.3578,-0.0933,135.8,96.9,0.524
24.74,32091.6,35231.0,0.3989,0.5672,135.8,96.9,0.524
24.76,32314.1,35518.6,1.367,1.2718,135.8,96.9,0.524
24.78,32397.7,35691.7,1.731,1.696,135.8,96.9,0.524
24.8,32336.2,35626.4,1.4631,1.536,135.8,96.9,0.524
24.82,32260.6,35675.2,1.1341,1.6556,135.8,96.9,0.524
24.84,32177.9,35364.0,0.7744,0.893,135.8,96.9,0.524
24.86,32083.3,35299.6,0.3625,0.7351,135.8,96.9,0.524
24.88,32045.1,35208.1,0.1963,0.511,135.8,96.9,0.524
24.9,32095.0,35126.0,0.4135,0.31,135.8,96.9,0.524
24.92,31940.0,34957.3,-0.2608,-0.1034,135.8,96.9,0.524
24.94,32007.4,34832.7,0.0321,-0.4087,135.8,96.9,0.524
24.96,31829.1,34857.4,-0.7435,-0.3482,135.8,96.9,0.524
24.98,31944.9,34741.1,-0.2397,-0.6332,135.8,96.9,0.524
25.0,31846.0,34661.8,-0.6701,-0.8274,135.8,96.9,0.524
25.02,31900.0,34679.7,-0.435,-0.7838,135.8,96.9,0.524
25.04,31898.2,34697.1,-0.4431,-0.7411,135.8,96.9,0.524
25.06,31792.5,34586.2,-0.9028,-1.0129,135.8,96.9,0.524
25.08,31827.0,34540.6,-0.753,-1.1244,135.8,96.9,0.524
25.1,31762.7,34526.9,-1.0328,-1.1582,135.8,96.9,0.524
25.12,31710.6,34455.5,-1.2594,-1.333,135.8,96.9,0.524
25.14,31798.7,34527.2,-0.876,-1.1572,135.8,96.9,0.524
25.16,31992.5,34910.5,-0.0326,-0.2181,135.8,96.9,0.524
25.18,32003.0,35176.5,0.0132,0.4336,135.8,96.9,0.524
25.2,32211.5,35525.4,0.9203,1.2886,135.8,96.9,0.524
25.22,32298.4,35775.1,1.2985,1.9004,135.8,96.9,0.524
25.24,32409.9,35712.3,1.7841,1.7465,135.8,96.9,0.524
25.26,32354.9,35618.1,1.5446,1.5156,135.8,96.9,0.524
25.28,32127.6,35435.5,0.5554,1.0682,135.8,96.9,0.524
25.3,32111.8,35248.5,0.4868,0.61,135.8,96.9,0.524
25.32,32100.1,35215.4,0.4357,0.5289,135.8,96.9,0.524
25.34,32032.8,35036.0,0.143,0.0892,135.8,96.9,0.524
25.36,32096.9,35119.1,0.4217,0.2929,135.8,96.9,0.524
25.38,31910.5,35064.7,-0.3893,0.1596,135.8,96.9,0.524
25.4,31833.9,34945.7,-0.723,-0.1318,135.8,96.9,0.524
25.42,31856.8,34843.4,-0.6229,-0.3825,135.8,96.9,0.524
25.44,31868.6,34746.0,-0.5718,-0.6213,135.8,96.9,0.524
25.46,31795.0,34685.7,-0.8923,-0.7689,135.8,96.9,0.524
25.48,31812.6,34675.3,-0.8153,-0.7944,135.8,96.9,0.524
25.5,31772.9,34652.9,-0.9884,-0.8494,135.8,96.9,0.524
25.52,31770.2,34537.0,-0.9999,-1.1332,135.8,96.9,0.524
25.54,31743.1,34407.0,-1.1178,-1.4517,135.8,96.9,0.524
25.56,31811.5,34463.0,-0.8201,-1.3147,135.8,96.9,0.524
25.58,31809.8,34662.5,-0.8278,-0.8258,135.8,96.9,0.524
25.6,31974.8,34710.2,-0.1094,-0.7089,135.8,96.9,0.524
25.62,32100.3,35189.9,0.4368,0.4664,135.8,96.9,0.524
25.64,32203.3,35545.8,0.8849,1.3384,135.8,96.9,0.524
25.66,32419.2,35623.3,1.8243,1.5283,135.8,96.9,0.524
25.68,32415.3,35762.7,1.8075,1.8698,135.8,96.9,0.524
25.7,32299.8,35550.7,1.3047,1.3505,135.8,96.9,0.524
25.72,32178.7,35486.1,0.7776,1.1922,135.8,96.9,0.524
25.74,32171.0,35238.6,0.7443,0.5857,135.8,96.9,0.524
25.76,32031.1,35099.4,0.1352,0.2447,135.8,96.9,0.524
25.78,32020.9,35109.7,0.0911,0.2698,135.8,96.9,0.524
25.8,32149.5,34998.3,0.6507,-0.0031,135.8,96.9,0.524
25.82,31899.6,35093.7,-0.437,0.2308,135.8,96.9,0.524
25.84,32000.6,34879.0,0.0028,-0.2953,135.8,96.9,0.524
25.86,31937.3,34627.9,-0.2728,-0.9106,135.8,96.9,0.524
25.88,31872.5,34743.8,-0.5547,-0.6267,135.8,96.9,0.524
25.9,31819.8,34763.4,-0.784,-0.5787,135.8,96.9,0.524
25.92,31816.3,34683.0,-0.7994,-0.7755,135.8,96.9,0.524
25.94,31802.2,34595.8,-0.8608,-0.9894,135.8,96.9,0.524
25.96,31747.9,34575.2,-1.0971,-1.0397,135.8,96.9,0.524
25.98,31667.3,34457.0,-1.4477,-1.3294,135.8,96.9,0.524
26.0,31777.3,34527.2,-0.969,-1.1574,135.8,96.9,0.524
26.02,31814.2,34477.2,-0.8086,-1.2798,135.8,96.9,0.524
26.04,31959.8,34757.0,-0.1751,-0.5943,135.8,96.9,0.524
26.06,32090.3,35247.6,0.3932,0.6077,135.8,96.9,0.524
26.08,32206.4,35404.2,0.8984,0.9914,135.8,96.9,0.524
26.1,32350.6,35705.3,1.526,1.7293,135.8,96.9,0.524
26.12,32322.8,35727.6,1.4051,1.7838,135.8,96.9,0.524
26.14,32300.8,35724.9,1.309,1.7773,135.8,96.9,0.524
26.16,32100.4,35553.0,0.4372,1.3562,135.8,96.9,0.524
26.18,32062.8,35311.7,0.2733,0.7649,135.8,96.9,0.524
26.2,32090.2,35151.4,0.3926,0.3722,135.8,96.9,0.524
26.22,32021.2,35182.5,0.0924,0.4483,135.8,96.9,0.524
26.24,32072.1,35056.8,0.3137,0.1403,135.8,96.9,0.524
26.26,32021.4,34997.4,0.0932,-0.0053,135.8,96.9,0.524
26.28,31948.6,34906.6,-0.2236,-0.2276,135.8,96.9,0.524
26.3,31820.4,34823.4,-0.7816,-0.4315,135.8,96.9,0.524
26.32,31903.4,34709.4,-0.4205,-0.7109,135.8,96.9,0.524
26.34,31777.8,34673.6,-0.9669,-0.7986,135.8,96.9,0.524
26.36,31872.9,34669.4,-0.5528,-0.809,135.8,96.9,0.524
26.38,31810.5,34532.6,-0.8244,-1.1441,135.8,96.9,0.524
26.4,31854.3,34492.1,-0.6341,-1.2433,135.8,96.9,0.524
26.42,31858.6,34434.8,-0.6154,-1.3837,135.8,96.9,0.524
26.44,31663.1,34512.2,-1.4661,-1.194,135.8,96.9,0.524
26.46,31730.2,34580.0,-1.1742,-1.0279,135.8,96.9,0.524
26.48,31966.9,34852.1,-0.1439,-0.3612,135.8,96.9,0.524
26.5,32027.7,35082.8,0.1205,0.2041,135.8,96.9,0.524
26.52,32150.4,35435.2,0.6548,1.0674,135.8,96.9,0.524
26.54,32249.7,35692.0,1.0866,1.6966,135.8,96.9,0.524
26.56,32351.4,35774.6,1.5292,1.899,135.8,96.9,0.524
26.58,32389.0,35665.2,1.693,1.631,135.8,96.9,0.524
26.6,32270.0,35481.3,1.1749,1.1804,135.8,96.9,0.524
26.62,32135.8,35323.2,0.5913,0.793,135.8,96.9,0.524
26.64,31957.4,35129.9,-0.1852,0.3193,135.8,96.9,0.524
26.66,32020.0,35120.2,0.0873,0.2957,135.8,96.9,0.524
26.68,32004.0,35004.3,0.0174,0.0117,135.8,96.9,0.524
26.7,32084.7,34972.5,0.3688,-0.0663,135.8,96.9,0.524
26.72,31906.4,34935.2,-0.4072,-0.1577,135.8,96.9,0.524
26.74,31918.0,34858.7,-0.3568,-0.345,135.8,96.9,0.524
26.76,31863.5,34685.0,-0.5939,-0.7706,135.8,96.9,0.524
26.78,31905.8,34745.4,-0.4097,-0.6227,135.8,96.9,0.524
26.8,31889.1,34658.3,-0.4824,-0.8362,135.8,96.9,0.524
26.82,31809.7,34612.2,-0.8281,-0.9492,135.8,96.9,0.524
26.84,31838.1,34652.9,-0.7045,-0.8493,135.8,96.9,0.524
26.86,31748.8,34506.4,-1.093,-1.2083,135.8,96.9,0.524
26.88,31816.1,34498.9,-0.8003,-1.2266,135.8,96.9,0.524
26.9,31799.7,34626.7,-0.8716,-0.9135,135.8,96.9,0.524
26.92,31898.8,34756.9,-0.4404,-0.5944,135.8,96.9,0.524
26.94,32078.6,35064.8,0.3423,0.1599,135.8,96.9,0.524
26.96,32131.3,35359.0,0.5713,0.8808,135.8,96.9,0.524
26.98,32375.7,35643.8,1.6352,1.5785,135.8,96.9,0.524
27.0,32270.6,35795.5,1.1778,1.9502,135.8,96.9,0.524
27.02,32351.4,35626.9,1.5292,1.5372,135.8,96.9,0.524
27.04,32185.9,35564.0,0.8092,1.383,135.8,96.9,0.524
27.06,32066.9,35430.0,0.2911,1.0547,135.8,96.9,0.524
27.08,32170.3,35264.0,0.741,0.648,135.8,96.9,0.524
27.1,32102.8,35176.0,0.4476,0.4323,135.8,96.9,0.524
27.12,32038.6,35053.0,0.1682,0.1311,135.8,96.9,0.524
27.14,31942.9,34956.1,-0.2484,-0.1064,135.8,96.9,0.524
27.16,31913.7,34930.8,-0.3753,-0.1684,135.8,96.9,0.524
27.18,31893.1,34793.1,-0.4651,-0.5058,135.8,96.9,0.524
27.2,31872.1,34707.6,-0.5567,-0.7154,135.8,96.9,0.524
27.22,31869.5,34661.8,-0.568,-0.8276,135.8,96.9,0.524
27.24,31908.2,34719.7,-0.3994,-0.6857,135.8,96.9,0.524
27.26,31759.9,34622.5,-1.045,-0.9237,135.8,96.9,0.524
27.28,31853.5,34565.0,-0.6373,-1.0648,135.8,96.9,0.524
27.3,31680.9,34448.3,-1.3885,-1.3506,135.8,96.9,0.524
27.32,31705.0,34488.1,-1.2837,-1.2532,135.8,96.9,0.524
27.34,31830.1,34607.0,-0.7395,-0.9618,135.8,96.9,0.524
27.36,31845.1,34692.5,-0.6738,-0.7522,135.8,96.9,0.524
27.38,32072.2,35028.4,0.3142,0.0707,135.8,96.9,0.524
27.4,32217.1,35432.7,0.9449,1.0614,135.8,96.9,0.524
27.42,32432.1,35657.8,1.8806,1.6128,135.8,96.9,0.524
27.44,32424.4,35747.1,1.8469,1.8317,135.8,96.9,0.524
27.46,32416.5,35724.0,1.8128,1.7751,135.8,96.9,0.524
27.48,32180.6,35504.9,0.7862,1.2383,135.8,96.9,0.524
27.5,32180.9,35367.9,0.7874,0.9025,135.8,96.9,0.524
27.52,32120.2,35209.8,0.5234,0.5151,135.8,96.9,0.524
27.54,32073.7,35044.2,0.3207,0.1094,135.8,96.9,0.524
27.56,31981.8,35056.5,-0.0789,0.1396,135.8,96.9,0.524
27.58,31940.5,35046.6,-0.259,0.1153,135.8,96.9,0.524
27.6,31883.2,34991.3,-0.5081,-0.0202,135.8,96.9,0.524
27.62,31895.0,34730.0,-0.4569,-0.6605,135.8,96.9,0.524
27.64,31853.6,34669.3,-0.637,-0.8091,135.8,96.9,0.524
27.66,31807.4,34686.9,-0.8381,-0.7661,135.8,96.9,0.524
27.68,31864.9,34725.7,-0.588,-0.6709,135.8,96.9,0.524
27.7,31876.8,34678.2,-0.536,-0.7874,135.8,96.9,0.524
27.72,31822.3,34541.9,-0.7733,-1.1212,135.8,96.9,0.524
27.74,31720.7,34465.1,-1.2153,-1.3095,135.8,96.9,0.524
27.76,31646.9,34461.2,-1.5367,-1.3191,135.8,96.9,0.524
27.78,31748.7,34440.0,-1.0937,-1.3709,135.8,96.9,0.524
27.8,31888.2,34739.0,-0.4866,-0.6383,135.8,96.9,0.524
27.82,32063.9,35091.4,0.2781,0.225,135.8,96.9,0.524
27.84,32198.1,35402.9,0.8621,0.9883,135.8,96.9,0.524
27.86,32269.7,35633.1,1.1739,1.5523,135.8,96.9,0.524
27.88,32357.0,35779.5,1.5539,1.9111,135.8,96.9,0.524
27.9,32327.6,35608.1,1.4258,1.4911,135.8,96.9,0.524
27.92,32259.5,35518.8,1.1294,1.2723,135.8,96.9,0.524
27.94,32188.7,35354.5,0.8215,0.8698,135.8,96.9,0.524
27.96,32120.6,35221.6,0.5248,0.544,135.8,96.9,0.524
27.98,32027.5,35069.1,0.1198,0.1704,135.8,96.9,0.524
28.0,32019.3,35120.0,0.0841,0.2951,135.8,96.9,0.524
28.02,31932.0,34977.5,-0.2957,-0.054,135.8,96.9,0.524
28.04,31945.6,34924.0,-0.2365,-0.1851,135.8,96.9,0.524
28.06,31939.1,34843.4,-0.2649,-0.3827,135.8,96.9,0.524
28.08,31872.8,34747.5,-0.5534,-0.6176,135.8,96.9,0.524
28.1,31822.3,34678.9,-0.7731,-0.7856,135.8,96.9,0.524
28.12,31881.0,34657.2,-0.518,-0.8387,135.8,96.9,0.524
28.14,31758.0,34723.4,-1.0533,-0.6767,135.8,96.9,0.524
28.16,31867.5,34590.2,-0.5766,-1.0029,135.8,96.9,0.524
28.18,31638.4,34524.6,-1.5736,-1.1637,135.8,96.9,0.524
28.2,31753.1,34494.8,-1.0743,-1.2368,135.8,96.9,0.524
28.22,31745.7,34527.3,-1.1065,-1.1571,135.8,96.9,0.524
28.24,31901.8,34660.0,-0.4272,-0.832,135.8,96.9,0.524
28.26,32043.5,35010.1,0.1895,0.0258,135.8,96.9,0.524
28.28,32190.2,35346.7,0.8279,0.8506,135.8,96.9,0.524
28.3,32305.1,35605.4,1.3279,1.4846,135.8,96.9,0.524
28.32,32353.1,35697.6,1.5369,1.7104,135.8,96.9,0.524
28.34,32348.2,35731.2,1.5155,1.7928,135.8,96.9,0.524
28.36,32373.4,35550.1,1.625,1.349,135.8,96.9,0.524
28.38,32130.1,35345.8,0.5663,0.8484,135.8,96.9,0.524
28.4,32177.4,35243.8,0.7719,0.5986,135.8,96.9,0.524
28.42,32156.3,35079.7,0.6803,0.1964,135.8,96.9,0.524
28.44,31943.0,35050.4,-0.248,0.1245,135.8,96.9,0.524
28.46,31996.8,34991.8,-0.014,-0.0189,135.8,96.9,0.524
28.48,32016.0,34955.0,0.0695,-0.1091,135.8,96.9,0.524
28.5,31940.8,34883.5,-0.2577,-0.2844,135.8,96.9,0.524
28.52,31811.9,34691.7,-0.8187,-0.7543,135.8,96.9,0.524
28.54,31833.7,34583.0,-0.7234,-1.0206,135.8,96.9,0.524
28.56,31826.2,34611.9,-0.7562,-0.9498,135.8,96.9,0.524
28.58,31873.6,34752.0,-0.5498,-0.6065,135.8,96.9,0.524
28.6,31815.8,34601.9,-0.8015,-0.9743,135.8,96.9,0.524
28.62,31739.6,34498.4,-1.1332,-1.2279,135.8,96.9,0.524
28.64,31784.9,34522.9,-0.9361,-1.1678,135.8,96.9,0.524
28.66,31816.7,34439.5,-0.7974,-1.3722,135.8,96.9,0.524
28.68,31761.2,34547.0,-1.0393,-1.1087,135.8,96.9,0.524
28.7,32009.7,34964.3,0.0422,-0.0863,135.8,96.9,0.524
28.72,32146.0,35317.5,0.6354,0.779,135.8,96.9,0.524
28.74,32348.7,35550.2,1.5178,1.3494,135.8,96.9,0.524
28.76,32332.7,35704.3,1.4481,1.7269,135.8,96.9,0.524
28.78,32366.4,35716.9,1.5946,1.7577,135.8,96.9,0.524
28.8,32190.1,35597.6,0.8275,1.4654,135.8,96.9,0.524
28.82,32132.0,35287.1,0.5746,0.7045,135.8,96.9,0.524
28.84,32053.9,35174.2,0.2347,0.4281,135.8,96.9,0.524
28.86,32056.4,35081.9,0.2456,0.2019,135.8,96.9,0.524
28.88,31991.7,35083.7,-0.0359,0.2062,135.8,96.9,0.524
28.9,31930.6,35060.6,-0.302,0.1496,135.8,96.9,0.524
28.92,32042.2,34934.4,0.1838,-0.1596,135.8,96.9,0.524
28.94,32009.7,34852.3,0.0425,-0.3608,135.8,96.9,0.524
28.96,31943.2,34692.0,-0.2472,-0.7536,135.8,96.9,0.524
28.98,31852.1,34610.1,-0.6436,-0.9543,135.8,96.9,0.524
29.0,31866.8,34674.8,-0.5797,-0.7957,135.8,96.9,0.524
29.02,31780.8,34631.1,-0.954,-0.9026,135.8,96.9,0.524
29.04,31845.8,34531.6,-0.6711,-1.1466,135.8,96.9,0.524
29.06,31688.3,34608.6,-1.3563,-0.9579,135.8,96.9,0.524
29.08,31798.3,34465.0,-0.8776,-1.3097,135.8,96.9,0.524
29.1,31709.6,34443.8,-1.2639,-1.3617,135.8,96.9,0.524
29.12,31789.0,34556.2,-0.9182,-1.0863,135.8,96.9,0.524
29.14,31969.5,34947.8,-0.1327,-0.1268,135.8,96.9,0.524
29.16,32206.3,35270.3,0.8978,0.6633,135.8,96.9,0.524
29.18,32337.3,35617.2,1.468,1.5134,135.8,96.9,0.524
29.2,32287.4,35770.2,1.2508,1.8882,135.8,96.9,0.524
29.22,32441.2,35760.3,1.9203,1.8639,135.8,96.9,0.524
29.24,32282.0,35588.1,1.2274,1.4422,135.8,96.9,0.524
29.26,32250.5,35410.1,1.0902,1.0059,135.8,96.9,0.524
29.28,32245.7,35249.0,1.0694,0.6112,135.8,96.9,0.524
29.3,32097.7,35201.0,0.4252,0.4935,135.8,96.9,0.524
29.32,32077.8,35091.0,0.3388,0.2242,135.8,96.9,0.524
29.34,32023.3,34943.9,0.1015,-0.1363,135.8,96.9,0.524
29.36,32074.2,35007.8,0.3231,0.0202,135.8,96.9,0.524
29.38,31986.1,34863.6,-0.0602,-0.3332,135.8,96.9,0.524
29.4,31823.8,34786.1,-0.7668,-0.523,135.8,96.9,0.524
29.42,31873.5,34764.4,-0.5504,-0.5762,135.8,96.9,0.524
29.44,31888.1,34611.5,-0.487,-0.9508,135.8,96.9,0.524
29.46,31870.8,34653.3,-0.5623,-0.8484,135.8,96.9,0.524
29.48,31849.1,34677.6,-0.6568,-0.7888,135.8,96.9,0.524
29.5,31879.3,34628.0,-0.5253,-0.9103,135.8,96.9,0.524
29.52,31781.3,34412.7,-0.9515,-1.4379,135.8,96.9,0.524
29.54,31740.4,34434.7,-1.1297,-1.3839,135.8,96.9,0.524
29.56,31903.5,34723.8,-0.4197,-0.6756,135.8,96.9,0.524
29.58,31958.2,35018.1,-0.1819,0.0455,135.8,96.9,0.524
29.6,32231.0,35238.4,1.0056,0.5852,135.8,96.9,0.524
29.62,32311.8,35584.5,1.3571,1.4333,135.8,96.9,0.524
29.64,32375.3,35664.4,1.6333,1.629,135.8,96.9,0.524
29.66,32316.3,35836.6,1.3765,2.051,135.8,96.9,0.524
29.68,32350.9,35625.8,1.5274,1.5346,135.8,96.9,0.524
29.7,32285.0,35400.9,1.2403,0.9834,135.8,96.9,0.524
29.72,32122.7,35233.0,0.534,0.572,135.8,96.9,0.524
29.74,31980.0,35133.1,-0.0871,0.3273,135.8,96.9,0.524
29.76,32121.0,35160.4,0.5265,0.3941,135.8,96.9,0.524
29.78,31975.9,34991.7,-0.1046,-0.0193,135.8,96.9,0.524
29.8,31943.0,34889.2,-0.248,-0.2703,135.8,96.9,0.524
29.82,31922.4,34794.8,-0.3378,-0.5015,135.8,96.9,0.524
29.84,31902.9,34699.2,-0.4225,-0.7359,135.8,96.9,0.524
29.86,31774.0,34677.3,-0.9835,-0.7895,135.8,96.9,0.524
29.88,31841.8,34669.7,-0.6884,-0.8081,135.8,96.9,0.524
29.9,31808.3,34531.7,-0.834,-1.1464,135.8,96.9,0.524
29.92,31830.6,34544.9,-0.7373,-1.114,135.8,96.9,0.524
29.94,31748.6,34605.8,-1.0939,-0.9648,135.8,96.9,0.524
29.96,31648.3,34432.5,-1.5304,-1.3894,135.8,96.9,0.524
29.98,31714.8,34462.4,-1.2411,-1.316,135.8,96.9,0.524
30.0,31852.2,34518.4,-0.6433,-1.179,135.8,96.9,0.524
30.02,31934.8,34845.9,-0.2835,-0.3765,135.8,96.9,0.524
30.04,32030.1,35214.8,0.131,0.5274,135.8,96.9,0.524
30.06,32333.9,35538.9,1.453,1.3216,135.8,96.9,0.524
30.08,32185.0,35766.8,0.8053,1.8801,135.8,96.9,0.524
30.1,32433.1,35700.8,1.8849,1.7182,135.8,96.9,0.524
30.12,32279.5,35749.2,1.2166,1.8368,135.8,96.9,0.524
30.14,32232.8,35451.2,1.0134,1.1068,135.8,96.9,0.524
30.16,32133.8,35247.4,0.5826,0.6074,135.8,96.9,0.524
30.18,32049.6,35124.1,0.2158,0.3052,135.8,96.9,0.524
30.2,32090.9,34994.5,0.3958,-0.0122,135.8,96.9,0.524
30.22,32020.7,35106.9,0.09,0.2629,135.8,96.9,0.524
30.24,31995.0,34858.6,-0.0216,-0.3454,135.8,96.9,0.524
30.26,31967.4,34863.5,-0.1416,-0.3334,135.8,96.9,0.524
30.28,31848.2,34755.3,-0.6605,-0.5985,135.8,96.9,0.524
30.3,31870.3,34709.5,-0.5643,-0.7108,135.8,96.9,0.524
30.32,31831.4,34659.8,-0.7335,-0.8325,135.8,96.9,0.524
30.34,31850.5,34642.0,-0.6504,-0.876,135.8,96.9,0.524
30.36,31787.2,34616.0,-0.9261,-0.9398,135.8,96.9,0.524
30.38,31827.6,34491.1,-0.75,-1.2457,135.8,96.9,0.524
30.4,31792.8,34392.7,-0.9016,-1.4868,135.8,96.9,0.524
30.42,31714.3,34456.1,-1.2432,-1.3317,135.8,96.9,0.524
30.44,31847.6,34630.8,-0.6632,-0.9035,135.8,96.9,0.524
30.46,31911.3,34860.6,-0.386,-0.3405,135.8,96.9,0.524
30.48,32120.0,35223.7,0.5224,0.5491,135.8,96.9,0.524
30.5,32277.5,35574.7,1.2076,1.4092,135.8,96.9,0.524
30.52,32357.5,35735.3,1.5561,1.8029,135.8,96.9,0.524
30.54,32350.7,35642.0,1.5265,1.5741,135.8,96.9,0.524
30.56,32246.3,35645.9,1.072,1.5836,135.8,96.9,0.524
30.58,32167.8,35382.5,0.7304,0.9385,135.8,96.9,0.524
30.6,32111.6,35295.1,0.4859,0.7242,135.8,96.9,0.524
30.62,32145.5,35245.9,0.6332,0.6036,135.8,96.9,0.524
30.64,32020.5,35119.8,0.0892,0.2947,135.8,96.9,0.524
30.66,31976.0,35039.9,-0.1045,0.0989,135.8,96.9,0.524
30.68,32038.5,35005.7,0.1675,0.0151,135.8,96.9,0.524
30.7,32013.3,34924.0,0.0579,-0.1851,135.8,96.9,0.524
30.72,31928.2,34762.8,-0.3122,-0.5802,135.8,96.9,0.524
30.74,31845.2,34675.2,-0.6738,-0.7948,135.8,96.9,0.524
30.76,31848.2,34598.0,-0.6605,-0.9839,135.8,96.9,0.524
30.78,31797.3,34625.3,-0.882,-0.917,135.8,96.9,0.524
30.8,31938.7,34581.1,-0.2668,-1.0253,135.8,96.9,0.524
30.82,31742.3,34488.5,-1.1215,-1.2522,135.8,96.9,0.524
30.84,31723.3,34438.6,-1.204,-1.3745,135.8,96.9,0.524
30.86,31732.6,34438.0,-1.1638,-1.3759,135.8,96.9,0.524
30.88,31727.3,34634.2,-1.1865,-0.8952,135.8,96.9,0.524
30.9,31912.5,34713.3,-0.3806,-0.7014,135.8,96.9,0.524
30.92,32127.8,35192.9,0.5563,0.4737,135.8,96.9,0.524
30.94,32126.5,35615.2,0.5504,1.5085,135.8,96.9,0.524
30.96,32324.3,35680.9,1.4113,1.6694,135.8,96.9,0.524
30.98,32283.5,35775.9,1.2338,1.9023,135.8,96.9,0.524
31.0,32350.2,35598.1,1.5242,1.4665,135.8,96.9,0.524
31.02,32192.6,35425.3,0.8383,1.0431,135.8,96.9,0.524
31.04,32104.6,35281.2,0.4554,0.6901,135.8,96.9,0.524
31.06,32057.0,35100.9,0.2482,0.2484,135.8,96.9,0.524
31.08,32006.4,35062.7,0.0281,0.1548,135.8,96.9,0.524
31.1,31957.4,35063.0,-0.1853,0.1555,135.8,96.9,0.524
31.12,32033.0,35028.5,0.1439,0.071,135.8,96.9,0.524
31.14,32025.0,34919.9,0.1087,-0.1951,135.8,96.9,0.524
31.16,31822.1,34663.8,-0.7742,-0.8226,135.8,96.9,0.524
31.18,31818.5,34778.4,-0.7897,-0.5418,135.8,96.9,0.524
31.2,31824.3,34719.3,-0.7647,-0.6867,135.8,96.9,0.524
31.22,31867.8,34725.7,-0.5754,-0.6709,135.8,96.9,0.524
31.24,31784.7,34625.0,-0.9368,-0.9177,135.8,96.9,0.524
31.26,31840.4,34610.5,-0.6944,-0.9531,135.8,96.9,0.524
31.28,31754.0,34423.8,-1.0704,-1.4107,135.8,96.9,0.524
31.3,31735.7,34516.6,-1.1502,-1.1833,135.8,96.9,0.524
31.32,31779.5,34594.6,-0.9596,-0.9923,135.8,96.9,0.524
31.34,31828.0,34775.2,-0.7485,-0.5496,135.8,96.9,0.524
31.36,32088.5,35145.0,0.3852,0.3564,135.8,96.9,0.524
31.38,32236.1,35446.1,1.0274,1.0942,135.8,96.9,0.524
31.4,32330.4,35731.0,1.4381,1.7923,135.8,96.9,0.524
31.42,32324.1,35718.3,1.4105,1.7611,135.8,96.9,0.524
31.44,32298.9,35605.4,1.3008,1.4844,135.8,96.9,0.524
31.46,32243.0,35429.0,1.0575,1.0522,135.8,96.9,0.524
31.48,32202.6,35268.6,0.8819,0.6594,135.8,96.9,0.524
31.5,32123.4,35195.6,0.5372,0.4804,135.8,96.9,0.524
31.52,32090.7,35159.4,0.3949,0.3917,135.8,96.9,0.524
31.54,31999.6,35014.0,-0.0018,0.0355,135.8,96.9,0.524
31.56,31989.3,35062.8,-0.0465,0.1551,135.8,96.9,0.524
31.58,31942.8,34888.0,-0.249,-0.2733,135.8,96.9,0.524
31.6,31886.7,34847.1,-0.4931,-0.3734,135.8,96.9,0.524
31.62,31792.0,34693.0,-0.9053,-0.751,135.8,96.9,0.524
31.64,31906.5,34675.4,-0.4068,-0.7942,135.8,96.9,0.524
31.66,31771.3,34617.4,-0.9952,-0.9363,135.8,96.9,0.524
31.68,31709.6,34519.3,-1.2636,-1.1768,135.8,96.9,0.524
31.7,31738.2,34470.4,-1.1391,-1.2965,135.8,96.9,0.524
31.72,31677.9,34496.3,-1.4015,-1.2331,135.8,96.9,0.524
31.74,31739.8,34477.7,-1.1323,-1.2786,135.8,96.9,0.524
31.76,31732.6,34540.0,-1.1637,-1.1259,135.8,96.9,0.524
31.78,31850.7,34826.7,-0.6498,-0.4235,135.8,96.9,0.524
31.8,32040.8,35123.0,0.1778,0.3025,135.8,96.9,0.524
31.82,32202.3,35418.6,0.8804,1.0268,135.8,96.9,0.524
31.84,32399.5,35671.3,1.7385,1.646,135.8,96.9,0.524
31.86,32324.6,35767.3,1.4129,1.8812,135.8,96.9,0.524
31.88,32286.3,35692.6,1.246,1.6981,135.8,96.9,0.524
31.9,32226.0,35557.1,0.9837,1.3661,135.8,96.9,0.524
31.92,32168.7,35196.7,0.7343,0.483,135.8,96.9,0.524
31.94,32098.5,35256.3,0.4289,0.629,135.8,96.9,0.524
31.96,32023.3,35074.2,0.1013,0.1828,135.8,96.9,0.524
31.98,31927.6,34998.1,-0.315,-0.0035,135.8,96.9,0.524
32.0,31966.9,35046.9,-0.1438,0.1161,135.8,96.9,0.524
32.02,31984.5,34882.2,-0.0673,-0.2874,135.8,96.9,0.524
32.04,31793.3,34811.5,-0.8996,-0.4608,135.8,96.9,0.524
32.06,31844.8,34742.5,-0.6754,-0.6297,135.8,96.9,0.524
32.08,31879.6,34665.5,-0.5237,-0.8186,135.8,96.9,0.524
32.1,31878.6,34646.6,-0.5282,-0.8649,135.8,96.9,0.524
32.12,31808.1,34552.3,-0.835,-1.0959,135.8,96.9,0.524
32.14,31764.2,34524.9,-1.0262,-1.163,135.8,96.9,0.524
32.16,31837.8,34465.5,-0.7057,-1.3086,135.8,96.9,0.524
32.18,31716.1,34490.3,-1.2352,-1.2477,135.8,96.9,0.524
32.2,31819.6,34539.2,-0.7851,-1.1279,135.8,96.9,0.524
32.22,31870.6,34659.9,-0.5631,-0.8321,135.8,96.9,0.524
32.24,32023.0,35069.0,0.1001,0.1701,135.8,96.9,0.524
32.26,32133.9,35313.7,0.5828,0.7698,135.8,96.9,0.524
32.28,32332.5,35705.3,1.4472,1.7293,135.8,96.9,0.524
32.3,32323.4,35801.2,1.4074,1.9643,135.8,96.9,0.524
32.32,32303.2,35620.5,1.3196,1.5215,135.8,96.9,0.524
32.34,32246.4,35426.4,1.0725,1.046,135.8,96.9,0.524
32.36,32183.2,35380.1,0.7973,0.9325,135.8,96.9,0.524
32.38,32087.1,35093.2,0.3789,0.2294,135.8,96.9,0.524
32.4,32066.8,35091.8,0.2907,0.226,135.8,96.9,0.524
32.42,32072.5,35130.7,0.3155,0.3215,135.8,96.9,0.524
32.44,32079.8,35115.1,0.3474,0.2833,135.8,96.9,0.524
32.46,32007.4,34912.2,0.0323,-0.214,135.8,96.9,0.524
32.48,31898.0,34679.5,-0.4437,-0.7841,135.8,96.9,0.524
32.5,32012.8,34714.0,0.0558,-0.6997,135.8,96.9,0.524
32.52,31890.5,34714.3,-0.4764,-0.6988,135.8,96.9,0.524
32.54,31815.2,34634.8,-0.8041,-0.8937,135.8,96.9,0.524
32.56,31809.6,34678.8,-0.8285,-0.7858,135.8,96.9,0.524
32.58,31811.6,34622.4,-0.8196,-0.9241,135.8,96.9,0.524
32.6,31761.1,34462.1,-1.0397,-1.3168,135.8,96.9,0.524
32.62,31757.6,34468.0,-1.0548,-1.3025,135.8,96.9,0.524
32.64,31771.6,34555.6,-0.9937,-1.0876,135.8,96.9,0.524
32.66,31834.4,34601.7,-0.7204,-0.9748,135.8,96.9,0.524
32.68,32109.9,35034.1,0.4782,0.0847,135.8,96.9,0.524
32.7,32214.8,35319.6,0.9351,0.7843,135.8,96.9,0.524
32.72,32316.1,35690.2,1.3759,1.6923,135.8,96.9,0.524
32.74,32291.5,35690.9,1.2688,1.694,135.8,96.9,0.524
32.76,32398.0,35746.7,1.7323,1.8306,135.8,96.9,0.524
32.78,32232.9,35475.1,1.0139,1.1652,135.8,96.9,0.524
32.8,32118.9,35255.7,0.5174,0.6276,135.8,96.9,0.524
32.82,32088.1,35188.7,0.3834,0.4636,135.8,96.9,0.524
32.84,32019.2,35160.6,0.0835,0.3945,135.8,96.9,0.524
32.86,31996.9,35033.0,-0.0134,0.082,135.8,96.9,0.524
32.88,31987.0,35028.4,-0.0567,0.0707,135.8,96.9,0.524
32.9,31992.8,34925.7,-0.0312,-0.181,135.8,96.9,0.524
32.92,32024.6,34811.6,0.1071,-0.4605,135.8,96.9,0.524
32.94,31848.0,34738.8,-0.6613,-0.6389,135.8,96.9,0.524
32.96,31775.1,34665.7,-0.9788,-0.8181,135.8,96.9,0.524
32.98,31745.7,34647.6,-1.1067,-0.8623,135.8,96.9,0.524
33.0,31899.9,34543.7,-0.4355,-1.1169,135.8,96.9,0.524
33.02,31897.0,34599.0,-0.4481,-0.9814,135.8,96.9,0.524
33.04,31828.1,34587.5,-0.7479,-1.0097,135.8,96.9,0.524
33.06,31722.1,34400.3,-1.2093,-1.4682,135.8,96.9,0.524
33.08,31835.2,34415.0,-0.7172,-1.4322,135.8,96.9,0.524
33.1,31834.2,34729.8,-0.7216,-0.6609,135.8,96.9,0.524
33.12,32180.5,35093.2,0.7854,0.2294,135.8,96.9,0.524
33.14,32187.8,35407.7,0.8175,1.0,135.8,96.9,0.524
33.16,32380.3,35610.2,1.6553,1.4963,135.8,96.9,0.524
33.18,32397.1,35783.2,1.7281,1.92,135.8,96.9,0.524
33.2,32354.4,35588.0,1.5425,1.4419,135.8,96.9,0.524
33.22,32321.9,35579.1,1.4012,1.4201,135.8,96.9,0.524
33.24,32229.2,35332.6,0.9977,0.8161,135.8,96.9,0.524
33.26,32072.7,35150.3,0.3164,0.3693,135.8,96.9,0.524
33.28,32047.5,35197.3,0.2068,0.4846,135.8,96.9,0.524
33.3,31991.2,35036.2,-0.0382,0.0897,135.8,96.9,0.524
33.32,32069.7,35018.0,0.3033,0.0452,135.8,96.9,0.524
33.34,32036.2,34933.2,0.1578,-0.1625,135.8,96.9,0.524
33.36,31946.1,34841.6,-0.2343,-0.387,135.8,96.9,0.524
33.38,31851.5,34774.2,-0.6461,-0.5521,135.8,96.9,0.524
33.4,31797.8,34685.5,-0.8799,-0.7694,135.8,96.9,0.524
33.42,31838.8,34686.9,-0.7015,-0.7659,135.8,96.9,0.524
33.44,31843.2,34745.5,-0.6822,-0.6225,135.8,96.9,0.524
33.46,31873.5,34610.9,-0.5504,-0.9524,135.8,96.9,0.524
33.48,31795.0,34440.4,-0.892,-1.3701,135.8,96.9,0.524
33.5,31734.1,34419.6,-1.1569,-1.4211,135.8,96.9,0.524
33.52,31751.1,34441.5,-1.083,-1.3674,135.8,96.9,0.524
33.54,31835.4,34781.5,-0.7163,-0.5343,135.8,96.9,0.524
33.56,31929.5,34985.7,-0.3068,-0.0339,135.8,96.9,0.524
33.58,32216.2,35324.7,0.9411,0.7968,135.8,96.9,0.524
33.6,32312.2,35532.7,1.3586,1.3064,135.8,96.9,0.524
33.62,32361.6,35717.7,1.5739,1.7598,135.8,96.9,0.524
33.64,32337.7,35664.2,1.4697,1.6286,135.8,96.9,0.524
33.66,32390.7,35563.1,1.7003,1.3809,135.8,96.9,0.524
33.68,32170.2,35380.5,0.7409,0.9335,135.8,96.9,0.524
33.7,32105.9,35234.5,0.4612,0.5757,135.8,96.9,0.524
33.72,32066.3,35106.0,0.2885,0.2608,135.8,96.9,0.524
33.74,32057.5,35078.6,0.2504,0.1938,135.8,96.9,0.524
33.76,32008.6,35049.2,0.0377,0.1216,135.8,96.9,0.524
33.78,31977.1,34938.1,-0.0995,-0.1506,135.8,96.9,0.524
33.8,31935.2,34849.8,-0.2821,-0.3668,135.8,96.9,0.524
33.82,31834.4,34651.5,-0.7208,-0.8527,135.8,96.9,0.524
33.84,31886.9,34659.4,-0.4919,-0.8335,135.8,96.9,0.524
33.86,31883.9,34721.6,-0.5054,-0.6809,135.8,96.9,0.524
33.88,31755.1,34660.3,-1.0657,-0.8312,135.8,96.9,0.524
33.9,31852.3,34502.2,-0.6425,-1.2186,135.8,96.9,0.524
33.92,31688.7,34473.6,-1.3547,-1.2887,135.8,96.9,0.524
33.94,31704.9,34449.6,-1.2841,-1.3474,135.8,96.9,0.524
33.96,31797.9,34499.6,-0.8797,-1.2249,135.8,96.9,0.524
33.98,31815.2,34674.0,-0.8042,-0.7975,135.8,96.9,0.524
34.0,31934.5,34993.2,-0.2848,-0.0156,135.8,96.9,0.524
34.02,32232.7,35294.8,1.0129,0.7235,135.8,96.9,0.524
34.04,32224.4,35628.3,0.9766,1.5406,135.8,96.9,0.524
34.06,32415.9,35723.9,1.8101,1.7749,135.8,96.9,0.524
34.08,32376.7,35771.6,1.6393,1.8916,135.8,96.9,0.524
34.1,32281.1,35559.9,1.2235,1.373,135.8,96.9,0.524
34.12,32197.2,35398.5,0.8584,0.9776,135.8,96.9,0.524
34.14,32124.5,35236.4,0.5421,0.5804,135.8,96.9,0.524
34.16,32080.9,35077.5,0.352,0.191,135.8,96.9,0.524
34.18,32117.4,35105.5,0.5111,0.2596,135.8,96.9,0.524
34.2,32034.9,35003.1,0.1518,0.0088,135.8,96.9,0.524
34.22,31894.8,34957.5,-0.4575,-0.1029,135.8,96.9,0.524
34.24,31917.6,34853.3,-0.3587,-0.3583,135.8,96.9,0.524
34.26,31872.7,34735.3,-0.5539,-0.6473,135.8,96.9,0.524
34.28,31877.5,34583.0,-0.533,-1.0207,135.8,96.9,0.524
34.3,31914.4,34668.6,-0.3723,-0.8108,135.8,96.9,0.524
34.32,31831.9,34667.1,-0.7313,-0.8144,135.8,96.9,0.524
34.34,31753.2,34588.8,-1.0738,-1.0064,135.8,96.9,0.524
34.36,31813.5,34474.2,-0.8114,-1.2871,135.8,96.9,0.524
34.38,31747.4,34416.2,-1.099,-1.4294,135.8,96.9,0.524
34.4,31767.2,34491.5,-1.013,-1.2447,135.8,96.9,0.524
34.42,31828.0,34588.2,-0.7486,-1.0078,135.8,96.9,0.524
34.44,31889.1,34906.0,-0.4827,-0.2292,135.8,96.9,0.524
34.46,32176.2,35284.3,0.7671,0.6977,135.8,96.9,0.524
34.48,32282.0,35596.5,1.2273,1.4627,135.8,96.9,0.524
34.5,32404.4,35723.4,1.7598,1.7735,135.8,96.9,0.524
34.52,32374.2,35715.5,1.6287,1.7542,135.8,96.9,0.524
34.54,32257.7,35579.6,1.1217,1.4214,135.8,96.9,0.524
34.56,32213.3,35352.2,0.9283,0.8642,135.8,96.9,0.524
34.58,32133.8,35304.7,0.5825,0.7477,135.8,96.9,0.524
34.6,32054.1,35057.4,0.2357,0.1417,135.8,96.9,0.524
34.62,31961.4,35066.8,-0.1679,0.1647,135.8,96.9,0.524
34.64,31997.7,34962.1,-0.0101,-0.0918,135.8,96.9,0.524
34.66,31961.0,34939.7,-0.1694,-0.1467,135.8,96.9,0.524
34.68,31951.3,34923.0,-0.2117,-0.1875,135.8,96.9,0.524
34.7,31918.6,34774.2,-0.3543,-0.5521,135.8,96.9,0.524
34.72,31930.7,34700.9,-0.3014,-0.7317,135.8,96.9,0.524
34.74,31790.7,34676.9,-0.9107,-0.7907,135.8,96.9,0.524
34.76,31763.0,34694.2,-1.0314,-0.7483,135.8,96.9,0.524
34.78,31766.3,34669.3,-1.0168,-0.8091,135.8,96.9,0.524
34.8,31727.8,34526.8,-1.1846,-1.1583,135.8,96.9,0.524
34.82,31697.7,34472.9,-1.3155,-1.2904,135.8,96.9,0.524
34.84,31736.1,34399.3,-1.1486,-1.4708,135.8,96.9,0.524
34.86,31805.7,34618.2,-0.8455,-0.9343,135.8,96.9,0.524
34.88,31951.2,34902.4,-0.2124,-0.238,135.8,96.9,0.524
34.9,32107.2,35259.0,0.4666,0.6357,135.8,96.9,0.524
34.92,32269.3,35597.5,1.1722,1.4652,135.8,96.9,0.524
34.94,32306.9,35790.1,1.3356,1.937,135.8,96.9,0.524
34.96,32404.0,35820.9,1.7583,2.0125,135.8,96.9,0.524
34.98,32225.5,35672.2,0.9814,1.6481,135.8,96.9,0.524
35.0,32205.6,35398.7,0.895,0.9782,135.8,96.9,0.524
35.02,32105.9,35279.8,0.4609,0.6866,135.8,96.9,0.524
35.04,32010.3,35127.9,0.0451,0.3145,135.8,96.9,0.524
35.06,32014.3,35138.6,0.0625,0.3408,135.8,96.9,0.524
35.08,31993.3,35039.8,-0.0289,0.0986,135.8,96.9,0.524
35.1,31943.5,34865.9,-0.2459,-0.3275,135.8,96.9,0.524
35.12,31806.8,34887.8,-0.8406,-0.2737,135.8,96.9,0.524
35.14,31783.7,34801.1,-0.9412,-0.4863,135.8,96.9,0.524
35.16,31805.3,34670.8,-0.8471,-0.8056,135.8,96.9,0.524
35.18,31832.4,34672.0,-0.7294,-0.8026,135.8,96.9,0.524
35.2,31826.2,34694.1,-0.7561,-0.7483,135.8,96.9,0.524
35.22,31736.9,34588.1,-1.1449,-1.0082,135.8,96.9,0.524
35.24,31750.3,34550.4,-1.0866,-1.1004,135.8,96.9,0.524
35.26,31707.6,34451.0,-1.2725,-1.3441,135.8,96.9,0.524
35.28,31737.9,34417.4,-1.1407,-1.4264,135.8,96.9,0.524
35.3,31890.8,34619.7,-0.4753,-0.9306,135.8,96.9,0.524
35.32,31835.1,34921.4,-0.7175,-0.1915,135.8,96.9,0.524
35.34,32026.3,35185.1,0.1147,0.4546,135.8,96.9,0.524
35.36,32280.5,35572.0,1.2209,1.4027,135.8,96.9,0.524
35.38,32423.5,35737.4,1.843,1.8079,135.8,96.9,0.524
35.4,32332.4,35749.1,1.4468,1.8366,135.8,96.9,0.524
35.42,32277.6,35600.5,1.2082,1.4725,135.8,96.9,0.524
35.44,32170.7,35467.2,0.7431,1.1459,135.8,96.9,0.524
35.46,32160.3,35231.2,0.6977,0.5676,135.8,96.9,0.524
35.48,32034.2,35137.9,0.1489,0.339,135.8,96.9,0.524
35.5,31962.7,35132.4,-0.1622,0.3256,135.8,96.9,0.524
35.52,31945.4,35128.0,-0.2377,0.3147,135.8,96.9,0.524
35.54,31954.4,34976.6,-0.1982,-0.0562,135.8,96.9,0.524
35.56,31926.2,34910.0,-0.3213,-0.2194,135.8,96.9,0.524
35.58,31930.5,34777.8,-0.3025,-0.5433,135.8,96.9,0.524
35.6,31900.1,34758.0,-0.4345,-0.5918,135.8,96.9,0.524
35.62,31815.9,34786.5,-0.801,-0.522,135.8,96.9,0.524
35.64,31767.9,34623.6,-1.0099,-0.921,135.8,96.9,0.524
35.66,31852.5,34555.9,-0.6417,-1.087,135.8,96.9,0.524
35.68,31816.2,34548.2,-0.7996,-1.1058,135.8,96.9,0.524
35.7,31777.4,34496.5,-0.9686,-1.2326,135.8,96.9,0.524
35.72,31735.3,34389.4,-1.152,-1.495,135.8,96.9,0.524
35.74,31867.5,34552.9,-0.5766,-1.0944,135.8,96.9,0.524
35.76,31949.3,34934.2,-0.2208,-0.1602,135.8,96.9,0.524
35.78,32097.5,35262.8,0.4242,0.6451,135.8,96.9,0.524
35.8,32258.7,35586.0,1.1258,1.437,135.8,96.9,0.524
35.82,32404.1,35682.5,1.7586,1.6734,135.8,96.9,0.524
35.84,32371.9,35779.0,1.6185,1.9097,135.8,96.9,0.524
35.86,32366.5,35670.8,1.5953,1.6447,135.8,96.9,0.524
35.88,32254.1,35408.3,1.1058,1.0015,135.8,96.9,0.524
35.9,32158.3,35280.1,0.6889,0.6874,135.8,96.9,0.524
35.92,32152.4,35093.3,0.6635,0.2298,135.8,96.9,0.524
35.94,32037.6,35142.7,0.1639,0.3507,135.8,96.9,0.524
35.96,32121.7,35145.0,0.5298,0.3564,135.8,96.9,0.524
35.98,32005.2,34976.1,0.0226,-0.0573,135.8,96.9,0.524
36.0,32008.9,34890.6,0.039,-0.2669,135.8,96.9,0.524
36.02,31944.5,34734.3,-0.2416,-0.65,135.8,96.9,0.524
36.04,31806.9,34730.6,-0.8402,-0.659,135.8,96.9,0.524
36.06,31838.8,34689.6,-0.7015,-0.7595,135.8,96.9,0.524
36.08,31922.5,34723.7,-0.3371,-0.676,135.8,96.9,0.524
36.1,31821.9,34666.2,-0.7748,-0.8167,135.8,96.9,0.524
36.12,31872.6,34504.6,-0.5545,-1.2127,135.8,96.9,0.524
36.14,31792.9,34468.1,-0.9011,-1.3021,135.8,96.9,0.524
36.16,31756.7,34544.3,-1.059,-1.1154,135.8,96.9,0.524
36.18,31790.9,34640.7,-0.9098,-0.8793,135.8,96.9,0.524
36.2,31913.9,34879.9,-0.3747,-0.2931,135.8,96.9,0.524
36.22,32050.8,35190.7,0.2214,0.4684,135.8,96.9,0.524
36.24,32264.0,35542.8,1.149,1.3311,135.8,96.9,0.524
36.26,32384.7,35571.1,1.6743,1.4004,135.8,96.9,0.524
36.28,32348.0,35776.1,1.5146,1.9028,135.8,96.9,0.524
36.3,32233.1,35702.2,1.0145,1.7217,135.8,96.9,0.524
36.32,32260.8,35532.1,1.1349,1.3049,135.8,96.9,0.524
36.34,32083.6,35271.5,0.3641,0.6665,135.8,96.9,0.524
36.36,32039.9,35149.5,0.1739,0.3674,135.8,96.9,0.524
36.38,32046.4,35056.1,0.2021,0.1386,135.8,96.9,0.524
36.4,31976.4,35152.8,-0.1025,0.3756,135.8,96.9,0.524
36.42,31913.7,35030.4,-0.3756,0.0757,135.8,96.9,0.524
36.44,32049.7,34878.8,0.2163,-0.296,135.8,96.9,0.524
36.46,31804.2,34806.3,-0.8521,-0.4734,135.8,96.9,0.524
36.48,31938.3,34681.6,-0.2683,-0.7789,135.8,96.9,0.524
36.5,31908.7,34641.1,-0.3974,-0.8782,135.8,96.9,0.524
36.52,31864.7,34563.9,-0.5889,-1.0674,135.8,96.9,0.524
36.54,31859.1,34550.3,-0.613,-1.1007,135.8,96.9,0.524
36.56,31771.1,34535.6,-0.996,-1.1367,135.8,96.9,0.524
36.58,31714.4,34473.0,-1.2429,-1.2901,135.8,96.9,0.524
36.6,31747.2,34470.3,-1.1002,-1.2968,135.8,96.9,0.524
36.62,31678.1,34480.2,-1.4007,-1.2726,135.8,96.9,0.524
36.64,31831.2,34829.6,-0.7346,-0.4164,135.8,96.9,0.524
36.66,32035.1,35188.8,0.153,0.4637,135.8,96.9,0.524
36.68,32250.7,35517.1,1.0913,1.2682,135.8,96.9,0.524
36.7,32437.9,35706.3,1.9059,1.7318,135.8,96.9,0.524
36.72,32371.7,35728.3,1.6179,1.7857,135.8,96.9,0.524
36.74,32311.5,35684.2,1.3558,1.6776,135.8,96.9,0.524
36.76,32231.0,35508.3,1.0052,1.2465,135.8,96.9,0.524
36.78,32145.0,35336.9,0.6313,0.8267,135.8,96.9,0.524
36.8,32057.7,35119.1,0.251,0.2931,135.8,96.9,0.524
36.82,32036.9,35070.2,0.1608,0.1732,135.8,96.9,0.524
36.84,32011.8,35063.0,0.0515,0.1555,135.8,96.9,0.524
36.86,32048.8,34995.6,0.2124,-0.0097,135.8,96.9,0.524
36.88,31978.5,34876.5,-0.0933,-0.3015,135.8,96.9,0.524
36.9,31753.7,34703.7,-1.0719,-0.7248,135.8,96.9,0.524
36.92,31927.6,34674.9,-0.315,-0.7953,135.8,96.9,0.524
36.94,31871.8,34702.5,-0.5578,-0.7278,135.8,96.9,0.524
36.96,31814.6,34618.9,-0.8066,-0.9326,135.8,96.9,0.524
36.98,31816.4,34632.7,-0.7991,-0.8989,135.8,96.9,0.524
37.0,31849.0,34539.1,-0.6569,-1.1281,135.8,96.9,0.524
37.02,31675.3,34504.4,-1.4128,-1.2133,135.8,96.9,0.524
37.04,31758.0,34391.1,-1.0531,-1.4909,135.8,96.9,0.524
37.06,31842.0,34654.2,-0.6874,-0.8462,135.8,96.9,0.524
37.08,31942.9,34694.2,-0.2483,-0.7481,135.8,96.9,0.524
37.1,32095.9,35137.2,0.4173,0.3373,135.8,96.9,0.524
37.12,32157.0,35495.0,0.6834,1.2139,135.8,96.9,0.524
37.14,32260.2,35726.1,1.1326,1.7803,135.8,96.9,0.524
37.16,32334.5,35808.2,1.4559,1.9815,135.8,96.9,0.524
37.18,32289.3,35643.6,1.2591,1.578,135.8,96.9,0.524
37.2,32209.4,35513.5,0.9114,1.2593,135.8,96.9,0.524
37.22,32087.3,35267.6,0.3801,0.6567,135.8,96.9,0.524
37.24,32149.7,35120.4,0.6516,0.2962,135.8,96.9,0.524
37.26,32060.7,35111.2,0.2641,0.2736,135.8,96.9,0.524
37.28,32243.8,35066.4,1.0609,0.1637,135.8,96.9,0.524
37.3,32027.4,35035.2,0.1193,0.0874,135.8,96.9,0.524
37.32,31936.3,34982.0,-0.2772,-0.0429,135.8,96.9,0.524
37.34,31871.1,34784.9,-0.5607,-0.526,135.8,96.9,0.524
37.36,31848.9,34663.2,-0.6574,-0.8241,135.8,96.9,0.524
37.38,31861.3,34649.2,-0.6033,-0.8583,135.8,96.9,0.524
37.4,31989.4,34737.7,-0.0459,-0.6416,135.8,96.9,0.524
37.42,31725.1,34507.1,-1.1962,-1.2067,135.8,96.9,0.524
37.44,31895.0,34490.3,-0.4567,-1.2478,135.8,96.9,0.524
37.46,31675.2,34437.7,-1.4134,-1.3766,135.8,96.9,0.524
37.48,31749.4,34414.7,-1.0904,-1.433,135.8,96.9,0.524
37.5,31707.3,34499.1,-1.2735,-1.2263,135.8,96.9,0.524
37.52,31949.0,34724.5,-0.2219,-0.6738,135.8,96.9,0.524
37.54,31988.1,35091.6,-0.0516,0.2255,135.8,96.9,0.524
37.56,32151.7,35492.0,0.6603,1.2067,135.8,96.9,0.524
37.58,32313.6,35587.2,1.3648,1.4398,135.8,96.9,0.524
37.6,32328.5,35715.6,1.4295,1.7545,135.8,96.9,0.524
37.62,32426.9,35729.6,1.8579,1.7889,135.8,96.9,0.524
37.64,32313.7,35599.9,1.3654,1.471,135.8,96.9,0.524
37.66,32113.0,35324.4,0.4917,0.796,135.8,96.9,0.524
37.68,32056.3,35216.3,0.2449,0.5311,135.8,96.9,0.524
37.7,31946.2,35081.2,-0.2343,0.2001,135.8,96.9,0.524
37.72,32041.6,35090.0,0.181,0.2215,135.8,96.9,0.524
37.74,32027.0,34945.7,0.1175,-0.132,135.8,96.9,0.524
37.76,32043.2,34867.6,0.1879,-0.3232,135.8,96.9,0.524
37.78,31939.9,34833.5,-0.2615,-0.4069,135.8,96.9,0.524
37.8,31838.0,34763.1,-0.705,-0.5793,135.8,96.9,0.524
37.82,31797.8,34627.2,-0.8799,-0.9124,135.8,96.9,0.524
37.84,31801.0,34538.8,-0.8658,-1.1288,135.8,96.9,0.524
37.86,31796.2,34629.7,-0.887,-0.9062,135.8,96.9,0.524
37.88,31815.8,34456.3,-0.8015,-1.3309,135.8,96.9,0.524
37.9,31762.1,34581.6,-1.0353,-1.0241,135.8,96.9,0.524
37.92,31755.5,34448.6,-1.0641,-1.3498,135.8,96.9,0.524
37.94,31803.4,34505.5,-0.8557,-1.2105,135.8,96.9,0.524
37.96,31846.3,34725.5,-0.6686,-0.6714,135.8,96.9,0.524
37.98,32074.0,35042.5,0.3223,0.1053,135.8,96.9,0.524
38.0,32114.2,35408.9,0.4971,1.0031,135.8,96.9,0.524
38.02,32286.9,35687.5,1.2488,1.6856,135.8,96.9,0.524
38.04,32325.2,35799.9,1.4152,1.9611,135.8,96.9,0.524
38.06,32341.1,35677.4,1.4847,1.6608,135.8,96.9,0.524
38.08,32244.5,35490.0,1.064,1.2018,135.8,96.9,0.524
38.1,32093.9,35331.5,0.4086,0.8133,135.8,96.9,0.524
38.12,32183.2,35175.8,0.7976,0.4319,135.8,96.9,0.524
38.14,32003.6,35117.9,0.0158,0.2899,135.8,96.9,0.524
38.16,32047.5,35060.0,0.207,0.148,135.8,96.9,0.524
38.18,32068.4,34939.0,0.2976,-0.1484,135.8,96.9,0.524
38.2,31946.8,34929.9,-0.2316,-0.1707,135.8,96.9,0.524
38.22,31993.0,34809.6,-0.0306,-0.4653,135.8,96.9,0.524
38.24,32095.5,34725.9,0.4156,-0.6706,135.8,96.9,0.524
38.26,31790.0,34643.9,-0.9137,-0.8714,135.8,96.9,0.524
38.28,31797.4,34621.4,-0.8818,-0.9264,135.8,96.9,0.524
38.3,31844.1,34663.2,-0.6783,-0.824,135.8,96.9,0.524
38.32,31770.2,34613.2,-1.0,-0.9467,135.8,96.9,0.524
38.34,31687.9,34418.9,-1.3581,-1.4227,135.8,96.9,0.524
38.36,31745.2,34382.2,-1.1089,-1.5126,135.8,96.9,0.524
38.38,31737.7,34584.6,-1.1414,-1.0166,135.8,96.9,0.524
38.4,31871.1,34665.7,-0.5607,-0.818,135.8,96.9,0.524
38.42,32025.0,34981.1,0.1089,-0.0452,135.8,96.9,0.524
38.44,32264.7,35387.6,1.1521,0.9508,135.8,96.9,0.524
38.46,32292.9,35752.4,1.2748,1.8446,135.8,96.9,0.524
38.48,32372.7,35734.3,1.6221,1.8002,135.8,96.9,0.524
38.5,32287.1,35619.4,1.2495,1.5188,135.8,96.9,0.524
38.52,32224.1,35586.9,0.9755,1.4391,135.8,96.9,0.524
38.54,32128.4,35326.2,0.5589,0.8003,135.8,96.9,0.524
38.56,32078.5,35126.4,0.3419,0.3109,135.8,96.9,0.524
38.58,32090.2,35152.8,0.3928,0.3755,135.8,96.9,0.524
38.6,32092.3,35116.4,0.4018,0.2863,135.8,96.9,0.524
38.62,32038.7,34974.6,0.1686,-0.0611,135.8,96.9,0.524
38.64,31948.9,34947.3,-0.2225,-0.1281,135.8,96.9,0.524
38.66,31931.0,34816.1,-0.3001,-0.4495,135.8,96.9,0.524
38.68,31882.7,34805.7,-0.5106,-0.475,135.8,96.9,0.524
38.7,31837.0,34671.6,-0.7091,-0.8036,135.8,96.9,0.524
38.72,31826.5,34639.1,-0.7549,-0.8833,135.8,96.9,0.524
38.74,31830.4,34691.7,-0.738,-0.7543,135.8,96.9,0.524
38.76,31777.1,34605.8,-0.9699,-0.9648,135.8,96.9,0.524
38.78,31799.6,34526.5,-0.8722,-1.1591,135.8,96.9,0.524
38.8,31808.7,34518.8,-0.8325,-1.1779,135.8,96.9,0.524
38.82,31743.1,34442.8,-1.1179,-1.3642,135.8,96.9,0.524
38.84,31884.6,34555.9,-0.5023,-1.0871,135.8,96.9,0.524
38.86,31955.2,35053.9,-0.195,0.1331,135.8,96.9,0.524
38.88,32236.6,35296.1,1.0298,0.7267,135.8,96.9,0.524
38.9,32335.8,35610.2,1.4616,1.4963,135.8,96.9,0.524
38.92,32382.5,35715.8,1.6649,1.7551,135.8,96.9,0.524
38.94,32331.5,35720.4,1.4429,1.7663,135.8,96.9,0.524
38.96,32265.1,35574.1,1.154,1.4079,135.8,96.9,0.524
38.98,32144.1,35386.6,0.6271,0.9485,135.8,96.9,0.524
39.0,32114.6,35271.2,0.499,0.6656,135.8,96.9,0.524
39.02,32102.3,35082.4,0.4453,0.203,135.8,96.9,0.524
39.04,32064.1,35113.4,0.2791,0.2791,135.8,96.9,0.524
39.06,32080.9,35063.4,0.3521,0.1564,135.8,96.9,0.524
39.08,31993.8,34927.5,-0.0268,-0.1765,135.8,96.9,0.524
39.1,31841.5,34893.9,-0.6899,-0.2588,135.8,96.9,0.524
39.12,31809.4,34709.4,-0.8295,-0.711,135.8,96.9,0.524
39.14,31772.9,34610.5,-0.9884,-0.9532,135.8,96.9,0.524
39.16,31919.1,34712.5,-0.3521,-0.7034,135.8,96.9,0.524
39.18,31784.5,34591.0,-0.9379,-1.001,135.8,96.9,0.524
39.2,31801.2,34547.7,-0.8653,-1.107,135.8,96.9,0.524
39.22,31838.9,34547.5,-0.7009,-1.1076,135.8,96.9,0.524
39.24,31738.6,34468.5,-1.1377,-1.3012,135.8,96.9,0.524
39.26,31748.7,34482.4,-1.0937,-1.2672,135.8,96.9,0.524
39.28,31789.7,34671.5,-0.9152,-0.8037,135.8,96.9,0.524
39.3,31970.8,35009.9,-0.1272,0.0254,135.8,96.9,0.524
39.32,32165.9,35375.7,0.7219,0.9216,135.8,96.9,0.524
39.34,32292.6,35672.2,1.2735,1.6481,135.8,96.9,0.524
39.36,32360.3,35769.7,1.5682,1.887,135.8,96.9,0.524
39.38,32358.3,35692.5,1.5592,1.6978,135.8,96.9,0.524
39.4,32262.7,35552.6,1.1435,1.3552,135.8,96.9,0.524
39.42,32220.1,35344.7,0.9581,0.8456,135.8,96.9,0.524
39.44,32105.3,35272.7,0.4582,0.6694,135.8,96.9,0.524
39.46,32171.2,35043.8,0.7453,0.1085,135.8,96.9,0.524
39.48,32075.8,35092.3,0.3298,0.2272,135.8,96.9,0.524
39.5,32039.7,34995.3,0.173,-0.0104,135.8,96.9,0.524
39.52,31885.3,34929.1,-0.4989,-0.1727,135.8,96.9,0.524
39.54,31937.3,34881.0,-0.273,-0.2905,135.8,96.9,0.524
39.56,31860.8,34750.0,-0.6055,-0.6114,135.8,96.9,0.524
39.58,31806.8,34632.2,-0.8408,-0.9001,135.8,96.9,0.524
39.6,31792.7,34616.9,-0.902,-0.9375,135.8,96.9,0.524
39.62,31945.2,34687.3,-0.2386,-0.7652,135.8,96.9,0.524
39.64,31769.4,34533.2,-1.0036,-1.1427,135.8,96.9,0.524
39.66,31782.3,34550.4,-0.9475,-1.1006,135.8,96.9,0.524
39.68,31656.2,34459.1,-1.4959,-1.3242,135.8,96.9,0.524
39.7,31710.4,34520.2,-1.2601,-1.1745,135.8,96.9,0.524
39.72,31745.5,34680.1,-1.1077,-0.7827,135.8,96.9,0.524
39.74,31915.2,34864.7,-0.3691,-0.3303,135.8,96.9,0.524
39.76,32205.9,35224.3,0.8963,0.5506,135.8,96.9,0.524
39.78,32278.8,35637.6,1.2134,1.5634,135.8,96.9,0.524
39.8,32284.8,35781.3,1.2394,1.9155,135.8,96.9,0.524
39.82,32242.5,35717.0,1.0556,1.7579,135.8,96.9,0.524
39.84,32259.0,35635.3,1.1271,1.5577,135.8,96.9,0.524
39.86,32258.3,35330.5,1.124,0.8108,135.8,96.9,0.524
39.88,32139.4,35328.4,0.6069,0.8058,135.8,96.9,0.524
39.9,32116.1,35166.6,0.5055,0.4093,135.8,96.9,0.524
39.92,32018.4,35118.1,0.08,0.2904,135.8,96.9,0.524
39.94,32007.0,35101.4,0.0305,0.2495,135.8,96.9,0.524
39.96,31932.9,34968.7,-0.2919,-0.0756,135.8,96.9,0.524
39.98,32006.7,34828.3,0.0291,-0.4196,135.8,96.9,0.524
40.0,31870.9,34658.5,-0.5616,-0.8356,135.8,96.9,0.524
40.02,31805.5,34657.1,-0.8463,-0.8391,135.8,96.9,0.524
40.04,31799.4,34636.0,-0.8729,-0.8908,135.8,96.9,0.524
40.06,31792.0,34783.8,-0.9053,-0.5286,135.8,96.9,0.524
40.08,31740.9,34605.5,-1.1274,-0.9655,135.8,96.9,0.524
40.1,31758.9,34577.3,-1.0493,-1.0345,135.8,96.9,0.524
40.12,31678.1,34395.7,-1.4009,-1.4795,135.8,96.9,0.524
40.14,31690.6,34462.2,-1.3464,-1.3166,135.8,96.9,0.524
40.16,31926.8,34572.2,-0.3183,-1.0472,135.8,96.9,0.524
40.18,31993.6,34939.0,-0.028,-0.1484,135.8,96.9,0.524
40.2,32195.1,35292.2,0.849,0.717,135.8,96.9,0.524
40.22,32272.8,35519.5,1.1872,1.274,135.8,96.9,0.524
40.24,32312.9,35678.3,1.3618,1.663,135.8,96.9,0.524
40.26,32258.4,35751.6,1.1248,1.8427,135.8,96.9,0.524
40.28,32321.0,35580.3,1.3972,1.4229,135.8,96.9,0.524
40.3,32168.8,35466.6,0.7347,1.1445,135.8,96.9,0.524
40.32,32115.1,35239.0,0.5008,0.5867,135.8,96.9,0.524
40.34,31993.5,35076.6,-0.028,0.1888,135.8,96.9,0.524
40.36,32031.3,35133.6,0.1363,0.3285,135.8,96.9,0.524
40.38,31931.7,35084.4,-0.297,0.2079,135.8,96.9,0.524
40.4,31937.0,34947.0,-0.2743,-0.1288,135.8,96.9,0.524
40.42,31898.7,34857.6,-0.441,-0.3478,135.8,96.9,0.524
40.44,31869.9,34715.9,-0.5659,-0.695,135.8,96.9,0.524
40.46,31856.8,34579.9,-0.6229,-1.0282,135.8,96.9,0.524
40.48,31951.4,34708.4,-0.2112,-0.7133,135.8,96.9,0.524
40.5,31734.8,34726.3,-1.1539,-0.6694,135.8,96.9,0.524
40.52,31837.4,34597.8,-0.7074,-0.9843,135.8,96.9,0.524
40.54,31766.9,34476.9,-1.0146,-1.2806,135.8,96.9,0.524
40.56,31738.1,34424.1,-1.1395,-1.41,135.8,96.9,0.524
40.58,31798.0,34433.6,-0.8791,-1.3867,135.8,96.9,0.524
40.6,31884.5,34551.9,-0.5026,-1.0968,135.8,96.9,0.524
40.62,31947.5,34997.5,-0.2285,-0.0049,135.8,96.9,0.524
40.64,32061.0,35168.3,0.2654,0.4135,135.8,96.9,0.524
40.66,32308.8,35543.0,1.3439,1.3315,135.8,96.9,0.524
40.68,32408.1,35728.2,1.7763,1.7853,135.8,96.9,0.524
40.7,32274.9,35757.9,1.1963,1.858,135.8,96.9,0.524
40.72,32261.7,35571.7,1.139,1.402,135.8,96.9,0.524
40.74,32335.2,35548.0,1.4589,1.3439,135.8,96.9,0.524
40.76,32196.5,35298.6,0.8551,0.7328,135.8,96.9,0.524
40.78,32141.8,35165.4,0.6171,0.4063,135.8,96.9,0.524
40.8,32042.5,34972.9,0.1851,-0.0652,135.8,96.9,0.524
40.82,32010.4,35102.2,0.0453,0.2515,135.8,96.9,0.524
40.84,32013.8,34952.8,0.0603,-0.1145,135.8,96.9,0.524
40.86,31991.0,34912.3,-0.0392,-0.2138,135.8,96.9,0.524
40.88,31796.8,34730.5,-0.884,-0.6592,135.8,96.9,0.524
40.9,31791.5,34761.9,-0.9074,-0.5823,135.8,96.9,0.524
40.92,31827.9,34587.9,-0.7488,-1.0086,135.8,96.9,0.524
40.94,31922.5,34697.5,-0.3371,-0.7401,135.8,96.9,0.524
40.96,31774.4,34563.7,-0.9817,-1.0679,135.8,96.9,0.524
40.98,31849.6,34581.1,-0.6545,-1.0253,135.8,96.9,0.524
41.0,31755.3,34545.9,-1.0649,-1.1114,135.8,96.9,0.524
41.02,31789.5,34403.3,-0.9158,-1.4609,135.8,96.9,0.524
41.04,31797.4,34514.6,-0.8818,-1.1881,135.8,96.9,0.524
41.06,31989.2,34813.5,-0.0468,-0.4558,135.8,96.9,0.524
41.08,32118.3,35202.7,0.515,0.4977,135.8,96.9,0.524
41.1,32316.9,35519.1,1.3791,1.2731,135.8,96.9,0.524
41.12,32406.2,35791.4,1.768,1.9402,135.8,96.9,0.524
41.14,32415.8,35732.8,1.8096,1.7966,135.8,96.9,0.524
41.16,32346.4,35717.8,1.5074,1.76,135.8,96.9,0.524
41.18,32122.9,35484.1,0.5351,1.1872,135.8,96.9,0.524
41.2,32186.7,35267.3,0.8128,0.6561,135.8,96.9,0.524
41.22,31999.1,35134.9,-0.004,0.3316,135.8,96.9,0.524
41.24,32073.1,35004.9,0.3184,0.0132,135.8,96.9,0.524
41.26,32088.3,35079.0,0.3844,0.1947,135.8,96.9,0.524
41.28,32055.4,35038.4,0.2412,0.0952,135.8,96.9,0.524
41.3,31871.9,34881.9,-0.5574,-0.2883,135.8,96.9,0.524
41.32,31883.5,34792.3,-0.5071,-0.5078,135.8,96.9,0.524
41.34,31908.0,34711.3,-0.4004,-0.7064,135.8,96.9,0.524
41.36,31837.6,34671.0,-0.7067,-0.8049,135.8,96.9,0.524
41.38,31770.6,34681.0,-0.9982,-0.7804,135.8,96.9,0.524
41.4,31770.4,34599.2,-0.999,-0.9809,135.8,96.9,0.524
41.42,31707.4,34475.9,-1.2732,-1.283,135.8,96.9,0.524
41.44,31847.3,34523.0,-0.6645,-1.1676,135.8,96.9,0.524
41.46,31745.9,34372.8,-1.1056,-1.5356,135.8,96.9,0.524
41.48,31805.5,34557.7,-0.8465,-1.0826,135.8,96.9,0.524
41.5,31971.8,34886.4,-0.1226,-0.2772,135.8,96.9,0.524
41.52,32120.0,35231.5,0.5224,0.5683,135.8,96.9,0.524
41.54,32265.1,35535.2,1.1537,1.3124,135.8,96.9,0.524
41.56,32403.1,35668.3,1.7543,1.6386,135.8,96.9,0.524
41.58,32372.0,35816.8,1.619,2.0024,135.8,96.9,0.524
41.6,32289.6,35747.1,1.2605,1.8317,135.8,96.9,0.524
41.62,32166.8,35421.9,0.7261,1.0349,135.8,96.9,0.524
41.64,32141.9,35302.0,0.6176,0.741,135.8,96.9,0.524
41.66,32174.9,35181.1,0.7613,0.4448,135.8,96.9,0.524
41.68,32032.1,35089.6,0.1397,0.2207,135.8,96.9,0.524
41.7,32034.0,34956.0,0.1479,-0.1066,135.8,96.9,0.524
41.72,32035.5,35029.1,0.1544,0.0725,135.8,96.9,0.524
41.74,31901.5,34834.5,-0.4285,-0.4044,135.8,96.9,0.524
41.76,31936.3,34778.6,-0.2773,-0.5413,135.8,96.9,0.524
41.78,31795.9,34602.8,-0.8882,-0.9721,135.8,96.9,0.524
41.8,31774.7,34696.9,-0.9803,-0.7414,135.8,96.9,0.524
41.82,31835.9,34621.3,-0.7141,-0.9267,135.8,96.9,0.524
41.84,31770.1,34654.5,-1.0005,-0.8454,135.8,96.9,0.524
41.86,31768.0,34643.9,-1.0096,-0.8713,135.8,96.9,0.524
41.88,31683.9,34542.8,-1.3758,-1.1191,135.8,96.9,0.524
41.9,31839.1,34419.3,-0.7001,-1.4218,135.8,96.9,0.524
41.92,31762.3,34513.8,-1.0343,-1.1901,135.8,96.9,0.524
41.94,31958.6,34817.0,-0.1803,-0.4473,135.8,96.9,0.524
41.96,32058.7,35124.5,0.2553,0.3061,135.8,96.9,0.524
41.98,32211.9,35504.8,0.9223,1.2379,135.8,96.9,0.524
42.0,32450.2,35660.8,1.9595,1.6202,135.8,96.9,0.524
42.02,32357.5,35762.1,1.5561,1.8685,135.8,96.9,0.524
42.04,32273.5,35638.2,1.1904,1.565,135.8,96.9,0.524
42.06,32190.1,35549.9,0.8274,1.3485,135.8,96.9,0.524
42.08,32094.0,35295.2,0.4094,0.7245,135.8,96.9,0.524
42.1,32030.0,35208.8,0.1305,0.5127,135.8,96.9,0.524
42.12,32024.1,35152.2,0.1049,0.3741,135.8,96.9,0.524
42.14,32053.0,35107.0,0.2307,0.2633,135.8,96.9,0.524
42.16,31906.3,35017.3,-0.4077,0.0434,135.8,96.9,0.524
42.18,31985.4,34936.6,-0.0634,-0.1542,135.8,96.9,0.524
42.2,31935.6,34758.9,-0.2803,-0.5895,135.8,96.9,0.524
42.22,31816.2,34647.8,-0.8,-0.8619,135.8,96.9,0.524
42.24,31906.2,34683.3,-0.4083,-0.7748,135.8,96.9,0.524
42.26,31912.0,34687.3,-0.3829,-0.7651,135.8,96.9,0.524
42.28,31853.4,34585.2,-0.638,-1.0153,135.8,96.9,0.524
42.3,31824.6,34596.1,-0.7634,-0.9886,135.8,96.9,0.524
42.32,31814.4,34535.8,-0.8077,-1.1363,135.8,96.9,0.524
42.34,31713.4,34484.8,-1.2472,-1.2612,135.8,96.9,0.524
42.36,31779.7,34470.1,-0.9586,-1.2973,135.8,96.9,0.524
42.38,31810.0,34785.1,-0.827,-0.5255,135.8,96.9,0.524
42.4,32102.0,35101.3,0.444,0.2493,135.8,96.9,0.524
42.42,32232.7,35494.0,1.013,1.2116,135.8,96.9,0.524
42.44,32397.9,35800.8,1.7317,1.9632,135.8,96.9,0.524
42.46,32439.1,35727.4,1.9109,1.7834,135.8,96.9,0.524
42.48,32240.4,35640.6,1.0462,1.5707,135.8,96.9,0.524
42.5,32217.1,35572.4,0.9448,1.4037,135.8,96.9,0.524
42.52,32013.8,35359.7,0.0603,0.8825,135.8,96.9,0.524
42.54,32044.3,35213.2,0.1928,0.5235,135.8,96.9,0.524
42.56,31958.3,35180.9,-0.1812,0.4443,135.8,96.9,0.524
42.58,32027.4,35035.3,0.1193,0.0876,135.8,96.9,0.524
42.6,32052.0,34988.4,0.2262,-0.0273,135.8,96.9,0.524
42.62,32074.2,34914.9,0.3231,-0.2073,135.8,96.9,0.524
42.64,31926.7,34786.4,-0.319,-0.5223,135.8,96.9,0.524
42.66,31892.2,34772.0,-0.469,-0.5576,135.8,96.9,0.524
42.68,31863.8,34596.0,-0.5929,-0.9887,135.8,96.9,0.524
42.7,31830.4,34631.4,-0.7379,-0.9019,135.8,96.9,0.524
42.72,31819.6,34661.7,-0.7849,-0.8278,135.8,96.9,0.524
42.74,31799.3,34580.4,-0.8735,-1.0271,135.8,96.9,0.524
42.76,31698.2,34492.5,-1.3135,-1.2424,135.8,96.9,0.524
42.78,31711.0,34444.9,-1.2574,-1.359,135.8,96.9,0.524
42.8,31798.5,34656.1,-0.8768,-0.8415,135.8,96.9,0.524
42.82,31823.2,34755.0,-0.7693,-0.5992,135.8,96.9,0.524
42.84,32015.3,35124.7,0.0668,0.3068,135.8,96.9,0.524
42.86,32230.1,35430.2,1.0015,1.0552,135.8,96.9,0.524
42.88,32242.5,35606.2,1.0555,1.4865,135.8,96.9,0.524
42.9,32237.2,35692.8,1.0325,1.6986,135.8,96.9,0.524
42.92,32344.6,35595.3,1.4997,1.4597,135.8,96.9,0.524
42.94,32204.4,35487.3,0.8897,1.1951,135.8,96.9,0.524
42.96,32127.6,35196.0,0.5553,0.4813,135.8,96.9,0.524
42.98,32195.8,35252.7,0.8521,0.6204,135.8,96.9,0.524
43.0,32134.6,35229.5,0.5858,0.5635,135.8,96.9,0.524
43.02,32012.1,35120.4,0.0527,0.2962,135.8,96.9,0.524
43.04,32061.7,35065.1,0.2688,0.1606,135.8,96.9,0.524
43.06,31888.9,34991.4,-0.4832,-0.02,135.8,96.9,0.524
43.08,31887.7,34894.8,-0.4887,-0.2566,135.8,96.9,0.524
43.1,31878.8,34828.3,-0.5272,-0.4195,135.8,96.9,0.524
43.12,31935.1,34701.7,-0.2825,-0.7297,135.8,96.9,0.524
43.14,31835.7,34703.1,-0.715,-0.7263,135.8,96.9,0.524
43.16,31794.9,34592.5,-0.8925,-0.9973,135.8,96.9,0.524
43.18,31855.5,34561.6,-0.6288,-1.073,135.8,96.9,0.524
43.2,31711.0,34434.8,-1.2574,-1.3839,135.8,96.9,0.524
43.22,31623.0,34429.4,-1.6404,-1.397,135.8,96.9,0.524
43.24,31696.2,34450.8,-1.3222,-1.3446,135.8,96.9,0.524
43.26,31811.8,34691.9,-0.8191,-0.7537,135.8,96.9,0.524
43.28,32135.4,35032.1,0.5894,0.0799,135.8,96.9,0.524
43.3,32257.1,35381.0,1.1188,0.9347,135.8,96.9,0.524
43.32,32268.2,35731.4,1.1673,1.7933,135.8,96.9,0.524
43.34,32415.0,35728.0,1.8061,1.7848,135.8,96.9,0.524
43.36,32294.5,35643.0,1.2817,1.5767,135.8,96.9,0.524
43.38,32276.3,35482.9,1.2024,1.1842,135.8,96.9,0.524
43.4,32159.7,35322.1,0.695,0.7904,135.8,96.9,0.524
43.42,32128.4,35166.1,0.5589,0.4082,135.8,96.9,0.524
43.44,32048.0,35176.0,0.2091,0.4325,135.8,96.9,0.524
43.46,32096.5,35064.9,0.4201,0.1601,135.8,96.9,0.524
43.48,32010.5,35104.5,0.0458,0.2572,135.8,96.9,0.524
43.5,31993.8,34889.8,-0.027,-0.2688,135.8,96.9,0.524
43.52,31899.3,34773.2,-0.438,-0.5545,135.8,96.9,0.524
43.54,31942.0,34699.2,-0.2522,-0.736,135.8,96.9,0.524
43.56,31893.3,34704.4,-0.4643,-0.7232,135.8,96.9,0.524
43.58,31865.2,34713.8,-0.5868,-0.7,135.8,96.9,0.524
43.6,31821.4,34695.9,-0.7773,-0.744,135.8,96.9,0.524
43.62,31813.4,34533.3,-0.8119,-1.1425,135.8,96.9,0.524
43.64,31746.2,34492.7,-1.1045,-1.2419,135.8,96.9,0.524
43.66,31804.5,34459.7,-0.8509,-1.3226,135.8,96.9,0.524
43.68,31773.1,34454.6,-0.9874,-1.3352,135.8,96.9,0.524
43.7,31908.1,34616.2,-0.3997,-0.9393,135.8,96.9,0.524
43.72,32059.1,35091.6,0.2571,0.2256,135.8,96.9,0.524
43.74,32194.8,35381.9,0.848,0.9368,135.8,96.9,0.524
43.76,32348.0,35664.9,1.5145,1.6304,135.8,96.9,0.524
43.78,32267.1,35732.4,1.1626,1.7957,135.8,96.9,0.524
43.8,32310.2,35701.1,1.3499,1.719,135.8,96.9,0.524
43.82,32268.1,35496.5,1.1669,1.2177,135.8,96.9,0.524
43.84,32176.2,35305.9,0.7671,0.7507,135.8,96.9,0.524
43.86,32019.2,35290.1,0.0838,0.712,135.8,96.9,0.524
43.88,32108.9,35093.8,0.474,0.2311,135.8,96.9,0.524
43.9,31923.0,35150.8,-0.3351,0.3707,135.8,96.9,0.524
43.92,32034.8,34933.7,0.1515,-0.1614,135.8,96.9,0.524
43.94,31938.1,34893.0,-0.2694,-0.2611,135.8,96.9,0.524
43.96,31879.9,34792.2,-0.5227,-0.508,135.8,96.9,0.524
43.98,31880.7,34676.5,-0.5191,-0.7915,135.8,96.9,0.524
44.0,31893.4,34690.8,-0.4639,-0.7566,135.8,96.9,0.524
44.02,31785.7,34602.4,-0.9324,-0.973,135.8,96.9,0.524
44.04,31807.6,34639.7,-0.8372,-0.8817,135.8,96.9,0.524
44.06,31736.0,34588.7,-1.1488,-1.0066,135.8,96.9,0.524
44.08,31774.4,34482.9,-0.9819,-1.2659,135.8,96.9,0.524
44.1,31765.9,34506.5,-1.0188,-1.2081,135.8,96.9,0.524
44.12,31769.6,34508.0,-1.0026,-1.2044,135.8,96.9,0.524
44.14,31874.0,34632.7,-0.5482,-0.8989,135.8,96.9,0.524
44.16,32058.2,34952.8,0.2534,-0.1146,135.8,96.9,0.524
44.18,32210.5,35310.9,0.9164,0.7629,135.8,96.9,0.524
44.2,32288.5,35697.3,1.2557,1.7096,135.8,96.9,0.524
44.22,32342.8,35828.5,1.4917,2.0311,135.8,96.9,0.524
44.24,32269.9,35703.4,1.1747,1.7246,135.8,96.9,0.524
44.26,32320.7,35499.0,1.3959,1.2238,135.8,96.9,0.524
44.28,32170.3,35414.8,0.7413,1.0175,135.8,96.9,0.524
44.3,32111.3,35160.7,0.4847,0.3948,135.8,96.9,0.524
44.32,32096.5,35108.1,0.4201,0.2659,135.8,96.9,0.524
44.34,31986.0,35045.5,-0.0609,0.1126,135.8,96.9,0.524
44.36,32035.0,34946.3,0.1525,-0.1304,135.8,96.9,0.524
44.38,31896.5,34857.1,-0.4506,-0.3491,135.8,96.9,0.524
44.4,31949.5,34711.9,-0.2196,-0.7047,135.8,96.9,0.524
44.42,31936.5,34700.9,-0.2765,-0.7318,135.8,96.9,0.524
44.44,31855.4,34665.8,-0.6293,-0.8177,135.8,96.9,0.524
44.46,31819.0,34651.7,-0.7878,-0.8523,135.8,96.9,0.524
44.48,31844.3,34719.1,-0.6775,-0.6872,135.8,96.9,0.524
44.5,31813.6,34619.4,-0.8109,-0.9315,135.8,96.9,0.524
44.52,31802.2,34563.6,-0.8606,-1.0681,135.8,96.9,0.524
44.54,31742.9,34462.8,-1.1188,-1.3151,135.8,96.9,0.524
44.56,31746.9,34568.1,-1.1015,-1.057,135.8,96.9,0.524
44.58,31845.7,34632.9,-0.6714,-0.8982,135.8,96.9,0.524
44.6,32012.3,34928.0,0.0536,-0.1753,135.8,96.9,0.524
44.62,32144.9,35251.6,0.6307,0.6175,135.8,96.9,0.524
44.64,32258.6,35607.1,1.1256,1.4885,135.8,96.9,0.524
44.66,32352.6,35755.9,1.5348,1.8532,135.8,96.9,0.524
44.68,32346.9,35776.5,1.5098,1.9036,135.8,96.9,0.524
44.7,32245.2,35583.7,1.0671,1.4313,135.8,96.9,0.524
44.72,32154.8,35296.1,0.6736,0.7266,135.8,96.9,0.524
44.74,32134.9,35235.3,0.5873,0.5777,135.8,96.9,0.524
44.76,32044.6,35037.5,0.1942,0.093,135.8,96.9,0.524
44.78,32096.9,35141.8,0.4216,0.3486,135.8,96.9,0.524
44.8,32022.4,35047.9,0.0974,0.1185,135.8,96.9,0.524
44.82,32011.6,34907.6,0.0504,-0.2252,135.8,96.9,0.524
44.84,31871.7,34842.0,-0.5584,-0.3861,135.8,96.9,0.524
44.86,31830.9,34712.5,-0.7357,-0.7032,135.8,96.9,0.524
