timestamp,raw_red,raw_ir,filtered_red,filtered_ir,heart_rate,spo2,ac_dc_ratio
0.0,32010.5,35160.2,0.0489,0.3919,135.4,98.3,0.467
0.02,32248.5,35496.3,1.0318,1.2179,135.4,98.3,0.467
0.04,32265.7,35759.3,1.1027,1.8642,135.4,98.3,0.467
0.06,32316.0,35767.9,1.3104,1.8854,135.4,98.3,0.467
0.08,32168.1,35686.3,0.6998,1.6849,135.4,98.3,0.467
0.1,32217.2,35427.9,0.9024,1.0498,135.4,98.3,0.467
0.12,32110.4,35207.6,0.4614,0.5083,135.4,98.3,0.467
0.14,31996.0,35172.5,-0.011,0.4222,135.4,98.3,0.467
0.16,32067.5,35093.8,0.2845,0.2287,135.4,98.3,0.467
0.18,32069.6,35115.9,0.2928,0.2829,135.4,98.3,0.467
0.2,31965.0,34931.1,-0.1388,-0.1711,135.4,98.3,0.467
0.22,31971.7,34937.2,-0.1111,-0.156,135.4,98.3,0.467
0.24,32035.4,34732.3,0.1517,-0.6596,135.4,98.3,0.467
0.26,31861.7,34731.3,-0.5655,-0.6622,135.4,98.3,0.467
0.28,31973.8,34678.5,-0.1027,-0.7919,135.4,98.3,0.467
0.3,31851.3,34783.5,-0.6085,-0.534,135.4,98.3,0.467
0.32,31757.2,34616.3,-0.9968,-0.9449,135.4,98.3,0.467
0.34,31826.5,34550.9,-0.7108,-1.1055,135.4,98.3,0.467
0.36,31810.5,34526.9,-0.777,-1.1645,135.4,98.3,0.467
0.38,31749.6,34433.3,-1.0285,-1.3946,135.4,98.3,0.467
0.4,31847.5,34444.7,-0.6242,-1.3665,135.4,98.3,0.467
0.42,31923.1,34701.8,-0.3117,-0.7348,135.4,98.3,0.467
0.44,31981.5,35005.6,-0.0709,0.012,135.4,98.3,0.467
0.46,32113.9,35476.3,0.4761,1.1687,135.4,98.3,0.467
0.48,32324.6,35745.2,1.3458,1.8297,135.4,98.3,0.467
0.5,32369.8,35704.1,1.5328,1.7286,135.4,98.3,0.467
0.52,32295.3,35703.8,1.2251,1.728,135.4,98.3,0.467
0.54,32253.7,35599.5,1.0533,1.4717,135.4,98.3,0.467
0.56,32080.5,35395.1,0.338,0.9693,135.4,98.3,0.467
0.58,32051.6,35190.9,0.2188,0.4674,135.4,98.3,0.467
0.6,32092.1,35167.4,0.386,0.4095,135.4,98.3,0.467
0.62,32061.0,35100.0,0.2575,0.244,135.4,98.3,0.467
0.64,32035.7,35012.7,0.153,0.0294,135.4,98.3,0.467
0.66,31955.5,34840.3,-0.1781,-0.3942,135.4,98.3,0.467
0.68,31857.2,34872.1,-0.5838,-0.3163,135.4,98.3,0.467
0.7,31809.2,34672.1,-0.7823,-0.8076,135.4,98.3,0.467
0.72,31892.6,34609.4,-0.4378,-0.9618,135.4,98.3,0.467
0.74,31774.5,34672.5,-0.9253,-0.8067,135.4,98.3,0.467
0.76,31770.3,34567.3,-0.943,-1.0652,135.4,98.3,0.467
0.78,31848.1,34611.1,-0.6215,-0.9575,135.4,98.3,0.467
0.8,31883.4,34502.8,-0.4758,-1.2238,135.4,98.3,0.467
0.82,31694.3,34449.3,-1.2566,-1.3553,135.4,98.3,0.467
0.84,31783.7,34482.3,-0.8875,-1.2742,135.4,98.3,0.467
0.86,31862.0,34693.6,-0.5641,-0.7548,135.4,98.3,0.467
0.88,31984.5,35092.4,-0.0585,0.2252,135.4,98.3,0.467
0.9,32141.8,35484.6,0.5913,1.1892,135.4,98.3,0.467
0.92,32313.1,35690.5,1.2985,1.6953,135.4,98.3,0.467
0.94,32306.3,35794.2,1.2705,1.9502,135.4,98.3,0.467
0.96,32237.8,35725.0,0.9874,1.78,135.4,98.3,0.467
0.98,32276.2,35538.5,1.1463,1.3216,135.4,98.3,0.467
1.0,32199.6,35305.2,0.8298,0.7483,135.4,98.3,0.467
1.02,32047.0,35203.6,0.1998,0.4986,135.4,98.3,0.467
1.04,32081.1,35130.8,0.3404,0.3196,135.4,98.3,0.467
1.06,31972.6,35105.6,-0.1075,0.2577,135.4,98.3,0.467
1.08,31994.9,34961.5,-0.0154,-0.0965,135.4,98.3,0.467
1.1,31921.5,34919.4,-0.3186,-0.1998,135.4,98.3,0.467
1.12,31907.4,34764.1,-0.3768,-0.5815,135.4,98.3,0.467
1.14,31890.2,34744.0,-0.4477,-0.6309,135.4,98.3,0.467
1.16,31726.7,34640.1,-1.1228,-0.8862,135.4,98.3,0.467
1.18,31930.1,34672.1,-0.283,-0.8077,135.4,98.3,0.467
1.2,31820.3,34661.2,-0.7365,-0.8344,135.4,98.3,0.467
1.22,31775.3,34641.8,-0.9222,-0.8822,135.4,98.3,0.467
1.24,31803.9,34471.9,-0.804,-1.2996,135.4,98.3,0.467
1.26,31761.8,34393.8,-0.9781,-1.4916,135.4,98.3,0.467
1.28,31837.5,34501.2,-0.6654,-1.2277,135.4,98.3,0.467
1.3,31835.8,34660.7,-0.6724,-0.8356,135.4,98.3,0.467
1.32,32048.7,34988.1,0.2066,-0.031,135.4,98.3,0.467
1.34,32150.3,35311.2,0.6263,0.7631,135.4,98.3,0.467
1.36,32226.4,35576.6,0.9404,1.4152,135.4,98.3,0.467
1.38,32285.1,35752.6,1.1828,1.848,135.4,98.3,0.467
1.4,32281.1,35671.1,1.1662,1.6476,135.4,98.3,0.467
1.42,32217.1,35539.3,0.9022,1.3237,135.4,98.3,0.467
1.44,32185.0,35318.1,0.7695,0.78,135.4,98.3,0.467
1.46,32037.9,35216.8,0.162,0.5309,135.4,98.3,0.467
1.48,32127.2,35125.0,0.5309,0.3053,135.4,98.3,0.467
1.5,32079.2,35030.6,0.3327,0.0733,135.4,98.3,0.467
1.52,31988.7,35029.2,-0.0411,0.07,135.4,98.3,0.467
1.54,32006.7,34979.5,0.0334,-0.0522,135.4,98.3,0.467
1.56,31907.3,34825.4,-0.377,-0.4308,135.4,98.3,0.467
1.58,31894.2,34729.4,-0.4312,-0.6669,135.4,98.3,0.467
1.6,31842.5,34755.4,-0.6446,-0.6029,135.4,98.3,0.467
1.62,31843.0,34691.1,-0.6425,-0.7609,135.4,98.3,0.467
1.64,31885.0,34592.4,-0.469,-1.0036,135.4,98.3,0.467
1.66,31777.9,34633.0,-0.9116,-0.9037,135.4,98.3,0.467
1.68,31737.7,34541.4,-1.0775,-1.129,135.4,98.3,0.467
1.7,31833.1,34451.4,-0.6834,-1.3502,135.4,98.3,0.467
1.72,31840.3,34486.4,-0.654,-1.2641,135.4,98.3,0.467
1.74,31908.1,34676.6,-0.3737,-0.7967,135.4,98.3,0.467
1.76,31895.2,34772.9,-0.4271,-0.5601,135.4,98.3,0.467
1.78,32033.9,35246.8,0.1455,0.6048,135.4,98.3,0.467
1.8,32203.3,35667.7,0.845,1.6393,135.4,98.3,0.467
1.82,32338.1,35737.8,1.4019,1.8114,135.4,98.3,0.467
1.84,32300.0,35714.7,1.2442,1.7547,135.4,98.3,0.467
1.86,32265.0,35527.8,1.0997,1.2953,135.4,98.3,0.467
1.88,32217.5,35400.0,0.9036,0.9812,135.4,98.3,0.467
1.9,32143.2,35201.3,0.597,0.4928,135.4,98.3,0.467
1.92,32043.4,35198.9,0.185,0.4871,135.4,98.3,0.467
1.94,32039.8,35198.6,0.17,0.4862,135.4,98.3,0.467
1.96,31964.5,34978.3,-0.1411,-0.0551,135.4,98.3,0.467
1.98,32027.1,35034.5,0.1175,0.083,135.4,98.3,0.467
2.0,31956.3,34819.1,-0.1748,-0.4463,135.4,98.3,0.467
2.02,31891.3,34752.5,-0.4433,-0.6102,135.4,98.3,0.467
2.04,31774.0,34687.8,-0.9274,-0.7691,135.4,98.3,0.467
2.06,31880.9,34657.9,-0.4863,-0.8425,135.4,98.3,0.467
2.08,31869.9,34604.8,-0.5317,-0.9731,135.4,98.3,0.467
2.1,31899.3,34596.9,-0.4103,-0.9924,135.4,98.3,0.467
2.12,31816.9,34509.3,-0.7506,-1.2079,135.4,98.3,0.467
2.14,31767.6,34505.9,-0.9541,-1.2161,135.4,98.3,0.467
2.16,31774.5,34412.8,-0.9256,-1.4449,135.4,98.3,0.467
2.18,31705.9,34694.0,-1.2088,-0.7538,135.4,98.3,0.467
2.2,31934.4,34960.6,-0.2651,-0.0987,135.4,98.3,0.467
2.22,32136.0,35241.8,0.567,0.5923,135.4,98.3,0.467
2.24,32273.7,35496.4,1.1358,1.2183,135.4,98.3,0.467
2.26,32392.9,35700.4,1.6278,1.7195,135.4,98.3,0.467
2.28,32319.8,35745.9,1.3263,1.8313,135.4,98.3,0.467
2.3,32271.1,35677.6,1.1251,1.6636,135.4,98.3,0.467
2.32,32133.0,35433.3,0.5548,1.0631,135.4,98.3,0.467
2.34,32153.6,35179.4,0.6399,0.4392,135.4,98.3,0.467
2.36,32030.9,35185.8,0.1334,0.4549,135.4,98.3,0.467
2.38,32008.1,35007.0,0.0389,0.0154,135.4,98.3,0.467
2.4,32084.8,34968.0,0.3558,-0.0804,135.4,98.3,0.467
2.42,31931.7,34915.4,-0.2763,-0.2096,135.4,98.3,0.467
2.44,31933.7,34942.9,-0.268,-0.142,135.4,98.3,0.467
2.46,31923.9,34892.6,-0.3087,-0.2658,135.4,98.3,0.467
2.48,31873.6,34704.7,-0.5164,-0.7275,135.4,98.3,0.467
2.5,31930.0,34634.9,-0.2835,-0.8992,135.4,98.3,0.467
2.52,31832.0,34637.9,-0.6881,-0.8917,135.4,98.3,0.467
2.54,31913.5,34682.6,-0.3514,-0.7819,135.4,98.3,0.467
2.56,31780.2,34590.0,-0.9018,-1.0094,135.4,98.3,0.467
2.58,31740.0,34491.9,-1.068,-1.2505,135.4,98.3,0.467
2.6,31800.5,34522.2,-0.8182,-1.1762,135.4,98.3,0.467
2.62,31844.5,34531.6,-0.6364,-1.1529,135.4,98.3,0.467
2.64,31868.3,34828.7,-0.5381,-0.4228,135.4,98.3,0.467
2.66,31998.9,35136.4,0.0011,0.3335,135.4,98.3,0.467
2.68,32227.4,35476.9,0.9445,1.1703,135.4,98.3,0.467
2.7,32406.1,35681.7,1.6823,1.6737,135.4,98.3,0.467
2.72,32377.7,35690.9,1.5652,1.6963,135.4,98.3,0.467
2.74,32305.9,35670.3,1.2688,1.6456,135.4,98.3,0.467
2.76,32141.5,35364.7,0.59,0.8946,135.4,98.3,0.467
2.78,32144.4,35359.7,0.6018,0.8822,135.4,98.3,0.467
2.8,32123.1,35139.7,0.5139,0.3415,135.4,98.3,0.467
2.82,32012.7,35133.2,0.0582,0.3255,135.4,98.3,0.467
2.84,31959.2,35081.1,-0.1626,0.1974,135.4,98.3,0.467
2.86,32033.7,35011.1,0.1447,0.0254,135.4,98.3,0.467
2.88,31963.3,35014.6,-0.1458,0.034,135.4,98.3,0.467
2.9,31951.8,34860.1,-0.1934,-0.3457,135.4,98.3,0.467
2.92,31850.0,34716.5,-0.6136,-0.6985,135.4,98.3,0.467
2.94,31917.5,34672.9,-0.335,-0.8057,135.4,98.3,0.467
2.96,31745.8,34517.8,-1.044,-1.1869,135.4,98.3,0.467
2.98,31833.7,34614.6,-0.6809,-0.9489,135.4,98.3,0.467
3.0,31810.7,34489.1,-0.7762,-1.2574,135.4,98.3,0.467
3.02,31818.1,34439.5,-0.7454,-1.3792,135.4,98.3,0.467
3.04,31763.4,34425.7,-0.9712,-1.4134,135.4,98.3,0.467
3.06,31772.9,34521.4,-0.9322,-1.178,135.4,98.3,0.467
3.08,31929.2,34738.5,-0.2869,-0.6444,135.4,98.3,0.467
3.1,32109.9,35103.7,0.4594,0.2529,135.4,98.3,0.467
3.12,32177.3,35470.9,0.7379,1.1555,135.4,98.3,0.467
3.14,32341.6,35822.1,1.4161,2.0188,135.4,98.3,0.467
3.16,32404.5,35761.9,1.676,1.8707,135.4,98.3,0.467
3.18,32270.1,35658.7,1.1209,1.617,135.4,98.3,0.467
3.2,32191.6,35470.2,0.7967,1.1539,135.4,98.3,0.467
3.22,32185.1,35252.5,0.7698,0.6187,135.4,98.3,0.467
3.24,32046.0,35176.3,0.1957,0.4315,135.4,98.3,0.467
3.26,32035.5,35194.5,0.1521,0.4763,135.4,98.3,0.467
3.28,32116.7,35057.4,0.4876,0.1393,135.4,98.3,0.467
3.3,32006.0,34933.9,0.0305,-0.1642,135.4,98.3,0.467
3.32,31924.4,34826.1,-0.3067,-0.4291,135.4,98.3,0.467
3.34,31953.8,34801.2,-0.1851,-0.4903,135.4,98.3,0.467
3.36,31968.0,34760.3,-0.1267,-0.5909,135.4,98.3,0.467
3.38,31846.4,34655.2,-0.6285,-0.8491,135.4,98.3,0.467
3.4,31949.7,34684.8,-0.202,-0.7764,135.4,98.3,0.467
3.42,31803.1,34660.6,-0.8074,-0.836,135.4,98.3,0.467
3.44,31832.8,34590.7,-0.6848,-1.0078,135.4,98.3,0.467
3.46,31750.8,34458.9,-1.0233,-1.3316,135.4,98.3,0.467
3.48,31741.2,34505.9,-1.0632,-1.2163,135.4,98.3,0.467
3.5,31857.1,34581.4,-0.5843,-1.0305,135.4,98.3,0.467
3.52,31862.5,34695.4,-0.5622,-0.7503,135.4,98.3,0.467
3.54,32042.8,35102.2,0.1824,0.2494,135.4,98.3,0.467
3.56,32198.9,35365.4,0.8268,0.8961,135.4,98.3,0.467
3.58,32278.2,35670.3,1.1543,1.6457,135.4,98.3,0.467
3.6,32366.6,35830.8,1.5193,2.0401,135.4,98.3,0.467
3.62,32257.8,35706.4,1.07,1.7343,135.4,98.3,0.467
3.64,32204.7,35497.9,0.851,1.2219,135.4,98.3,0.467
3.66,32195.0,35290.3,0.8109,0.7116,135.4,98.3,0.467
3.68,32125.3,35253.6,0.5229,0.6214,135.4,98.3,0.467
3.7,32080.3,35196.6,0.3373,0.4814,135.4,98.3,0.467
3.72,32030.3,35111.3,0.1306,0.2717,135.4,98.3,0.467
3.74,31957.2,35019.0,-0.171,0.045,135.4,98.3,0.467
3.76,31968.1,34833.1,-0.1263,-0.4119,135.4,98.3,0.467
3.78,31916.9,34840.2,-0.3373,-0.3947,135.4,98.3,0.467
3.8,31872.5,34733.8,-0.5208,-0.6559,135.4,98.3,0.467
3.82,31945.7,34735.3,-0.2187,-0.6523,135.4,98.3,0.467
3.84,31874.2,34658.0,-0.5137,-0.8423,135.4,98.3,0.467
3.86,31875.7,34680.8,-0.5077,-0.7864,135.4,98.3,0.467
3.88,31827.2,34648.1,-0.708,-0.8666,135.4,98.3,0.467
3.9,31771.6,34470.8,-0.9376,-1.3025,135.4,98.3,0.467
3.92,31777.3,34478.2,-0.9139,-1.2842,135.4,98.3,0.467
3.94,31739.7,34495.4,-1.0693,-1.2421,135.4,98.3,0.467
3.96,31870.1,34680.0,-0.5309,-0.7884,135.4,98.3,0.467
3.98,31952.7,34992.9,-0.1897,-0.0193,135.4,98.3,0.467
4.0,32099.4,35380.6,0.4162,0.9336,135.4,98.3,0.467
4.02,32253.2,35626.0,1.051,1.5368,135.4,98.3,0.467
4.04,32324.3,35706.0,1.3446,1.7333,135.4,98.3,0.467
4.06,32289.4,35712.7,1.2007,1.7498,135.4,98.3,0.467
4.08,32197.6,35506.0,0.8215,1.2418,135.4,98.3,0.467
4.1,32173.4,35359.9,0.7218,0.8827,135.4,98.3,0.467
4.12,32027.2,35213.3,0.1178,0.5223,135.4,98.3,0.467
4.14,32161.1,35059.1,0.671,0.1433,135.4,98.3,0.467
4.16,31968.7,35140.6,-0.1236,0.3438,135.4,98.3,0.467
4.18,32001.5,35065.8,0.0119,0.16,135.4,98.3,0.467
4.2,31955.8,34891.6,-0.1768,-0.2684,135.4,98.3,0.467
4.22,31957.0,34866.9,-0.1719,-0.329,135.4,98.3,0.467
4.24,31894.1,34683.6,-0.4317,-0.7795,135.4,98.3,0.467
4.26,31940.1,34669.8,-0.2419,-0.8134,135.4,98.3,0.467
4.28,31806.1,34634.4,-0.795,-0.9003,135.4,98.3,0.467
4.3,31883.6,34669.5,-0.4748,-0.8142,135.4,98.3,0.467
4.32,31867.3,34574.4,-0.5425,-1.0478,135.4,98.3,0.467
4.34,31758.8,34506.6,-0.9904,-1.2144,135.4,98.3,0.467
4.36,31755.9,34508.6,-1.0023,-1.2095,135.4,98.3,0.467
4.38,31816.9,34434.9,-0.7503,-1.3906,135.4,98.3,0.467
4.4,31809.6,34653.4,-0.7805,-0.8535,135.4,98.3,0.467
4.42,31885.9,35012.1,-0.4656,0.028,135.4,98.3,0.467
4.44,32048.4,35266.7,0.2053,0.6536,135.4,98.3,0.467
4.46,32253.5,35648.0,1.0525,1.5908,135.4,98.3,0.467
4.48,32361.9,35722.2,1.5,1.7732,135.4,98.3,0.467
4.5,32214.9,35753.3,0.893,1.8495,135.4,98.3,0.467
4.52,32207.7,35499.3,0.8632,1.2252,135.4,98.3,0.467
4.54,32127.8,35410.6,0.5332,1.0074,135.4,98.3,0.467
4.56,32151.3,35206.4,0.6303,0.5053,135.4,98.3,0.467
4.58,32114.4,35156.1,0.4778,0.3817,135.4,98.3,0.467
4.6,32074.0,35052.8,0.311,0.128,135.4,98.3,0.467
4.62,32060.7,35009.1,0.2564,0.0204,135.4,98.3,0.467
4.64,31893.2,34966.1,-0.4354,-0.085,135.4,98.3,0.467
4.66,31916.8,34862.2,-0.3379,-0.3405,135.4,98.3,0.467
4.68,31901.6,34810.9,-0.4007,-0.4665,135.4,98.3,0.467
4.7,31854.7,34622.8,-0.5941,-0.9288,135.4,98.3,0.467
4.72,31901.4,34672.0,-0.4014,-0.8079,135.4,98.3,0.467
4.74,31832.9,34654.0,-0.6845,-0.8521,135.4,98.3,0.467
4.76,31811.7,34608.6,-0.7717,-0.9637,135.4,98.3,0.467
4.78,31828.1,34604.5,-0.704,-0.9739,135.4,98.3,0.467
4.8,31821.7,34513.0,-0.7304,-1.1987,135.4,98.3,0.467
4.82,31871.8,34471.0,-0.5237,-1.3019,135.4,98.3,0.467
4.84,31808.5,34566.6,-0.7851,-1.0671,135.4,98.3,0.467
4.86,31920.8,34890.2,-0.3214,-0.2716,135.4,98.3,0.467
4.88,32158.8,35216.0,0.6612,0.5291,135.4,98.3,0.467
4.9,32223.2,35608.9,0.9275,1.4948,135.4,98.3,0.467
4.92,32220.5,35621.7,0.9161,1.5261,135.4,98.3,0.467
4.94,32333.9,35775.9,1.3845,1.9052,135.4,98.3,0.467
4.96,32205.1,35611.4,0.8525,1.5008,135.4,98.3,0.467
4.98,32272.6,35418.3,1.1313,1.0262,135.4,98.3,0.467
5.0,32053.8,35314.2,0.2279,0.7703,135.4,98.3,0.467
5.02,32055.7,35087.0,0.2356,0.2121,135.4,98.3,0.467
5.04,31971.2,35095.4,-0.1132,0.2327,135.4,98.3,0.467
5.06,32042.1,34981.5,0.1794,-0.0473,135.4,98.3,0.467
5.08,32031.6,35037.1,0.136,0.0894,135.4,98.3,0.467
5.1,31975.6,34890.4,-0.0951,-0.2712,135.4,98.3,0.467
5.12,31876.2,34712.5,-0.5057,-0.7085,135.4,98.3,0.467
5.14,31826.6,34717.4,-0.7105,-0.6963,135.4,98.3,0.467
5.16,31926.5,34609.8,-0.2977,-0.9608,135.4,98.3,0.467
5.18,31882.6,34645.5,-0.4793,-0.8732,135.4,98.3,0.467
5.2,31754.2,34548.6,-1.0092,-1.1113,135.4,98.3,0.467
5.22,31839.0,34405.5,-0.659,-1.4629,135.4,98.3,0.467
5.24,31829.6,34455.9,-0.698,-1.3391,135.4,98.3,0.467
5.26,31815.7,34490.3,-0.7553,-1.2544,135.4,98.3,0.467
5.28,31811.0,34557.4,-0.7746,-1.0896,135.4,98.3,0.467
5.3,31891.2,34912.8,-0.4438,-0.2162,135.4,98.3,0.467
5.32,32104.6,35145.0,0.4377,0.3544,135.4,98.3,0.467
5.34,32218.5,35483.9,0.908,1.1873,135.4,98.3,0.467
5.36,32383.1,35675.8,1.5875,1.6591,135.4,98.3,0.467
5.38,32286.0,35730.2,1.1864,1.7928,135.4,98.3,0.467
5.4,32249.1,35695.7,1.0342,1.708,135.4,98.3,0.467
5.42,32070.6,35398.1,0.2972,0.9766,135.4,98.3,0.467
5.44,32165.7,35293.7,0.6898,0.72,135.4,98.3,0.467
5.46,32072.8,35173.1,0.3063,0.4236,135.4,98.3,0.467
5.48,32035.2,35111.6,0.151,0.2726,135.4,98.3,0.467
5.5,32005.7,35089.6,0.0292,0.2185,135.4,98.3,0.467
5.52,31930.9,34979.7,-0.2796,-0.0517,135.4,98.3,0.467
5.54,31904.7,34805.6,-0.3878,-0.4796,135.4,98.3,0.467
5.56,31900.3,34721.8,-0.4061,-0.6856,135.4,98.3,0.467
5.58,31845.6,34764.1,-0.6317,-0.5817,135.4,98.3,0.467
5.6,31917.3,34651.5,-0.3358,-0.8582,135.4,98.3,0.467
5.62,31919.3,34632.3,-0.3274,-0.9055,135.4,98.3,0.467
5.64,31787.5,34680.6,-0.8717,-0.7868,135.4,98.3,0.467
5.66,31777.0,34604.7,-0.9152,-0.9735,135.4,98.3,0.467
5.68,31725.1,34332.3,-1.1295,-1.643,135.4,98.3,0.467
5.7,31793.1,34503.1,-0.8488,-1.2231,135.4,98.3,0.467
5.72,31799.3,34587.7,-0.8232,-1.0151,135.4,98.3,0.467
5.74,31885.2,34809.7,-0.4686,-0.4696,135.4,98.3,0.467
5.76,32058.2,35144.2,0.2458,0.3527,135.4,98.3,0.467
5.78,32151.3,35465.3,0.6305,1.1416,135.4,98.3,0.467
5.8,32344.1,35643.2,1.4263,1.579,135.4,98.3,0.467
5.82,32367.9,35735.3,1.5249,1.8053,135.4,98.3,0.467
5.84,32268.0,35756.8,1.1122,1.8582,135.4,98.3,0.467
5.86,32167.1,35488.3,0.6958,1.1983,135.4,98.3,0.467
5.88,32071.4,35241.5,0.3004,0.5918,135.4,98.3,0.467
5.9,32008.5,35155.8,0.0406,0.381,135.4,98.3,0.467
5.92,32100.9,35056.6,0.4224,0.1374,135.4,98.3,0.467
5.94,31990.8,35114.3,-0.0323,0.2792,135.4,98.3,0.467
5.96,32095.4,34893.9,0.3996,-0.2626,135.4,98.3,0.467
5.98,31940.2,34870.6,-0.2414,-0.3198,135.4,98.3,0.467
6.0,31884.5,34790.1,-0.4715,-0.5177,135.4,98.3,0.467
6.02,31797.9,34641.4,-0.8287,-0.8831,135.4,98.3,0.467
6.04,31790.7,34633.2,-0.8585,-0.9034,135.4,98.3,0.467
6.06,31871.5,34669.9,-0.5249,-0.8132,135.4,98.3,0.467
6.08,31820.7,34662.9,-0.7346,-0.8303,135.4,98.3,0.467
6.1,31812.3,34675.2,-0.7695,-0.8,135.4,98.3,0.467
6.12,31841.1,34539.6,-0.6505,-1.1334,135.4,98.3,0.467
6.14,31795.4,34520.5,-0.8391,-1.1804,135.4,98.3,0.467
6.16,31695.7,34511.0,-1.2511,-1.2035,135.4,98.3,0.467
6.18,31811.0,34786.4,-0.7746,-0.5269,135.4,98.3,0.467
6.2,32031.7,35164.0,0.1367,0.4012,135.4,98.3,0.467
6.22,32174.4,35421.9,0.7259,1.0351,135.4,98.3,0.467
6.24,32276.4,35583.9,1.147,1.4331,135.4,98.3,0.467
6.26,32357.0,35778.7,1.4798,1.912,135.4,98.3,0.467
6.28,32269.9,35690.3,1.1201,1.6946,135.4,98.3,0.467
6.3,32330.6,35448.5,1.3709,1.1006,135.4,98.3,0.467
6.32,32138.6,35291.4,0.5779,0.7143,135.4,98.3,0.467
6.34,32194.9,35225.5,0.8103,0.5524,135.4,98.3,0.467
6.36,32056.7,35132.4,0.2398,0.3236,135.4,98.3,0.467
6.38,31963.3,35045.5,-0.1461,0.1099,135.4,98.3,0.467
6.4,32065.2,35052.6,0.275,0.1275,135.4,98.3,0.467
6.42,31961.6,34873.8,-0.153,-0.312,135.4,98.3,0.467
6.44,31934.7,34816.6,-0.2641,-0.4525,135.4,98.3,0.467
6.46,31971.9,34770.3,-0.1103,-0.5662,135.4,98.3,0.467
6.48,31848.1,34695.4,-0.6218,-0.7504,135.4,98.3,0.467
6.5,31850.9,34597.7,-0.6101,-0.9906,135.4,98.3,0.467
6.52,31875.3,34602.7,-0.5092,-0.9783,135.4,98.3,0.467
6.54,31721.9,34622.6,-1.1429,-0.9293,135.4,98.3,0.467
6.56,31770.1,34562.0,-0.9437,-1.0783,135.4,98.3,0.467
6.58,31775.7,34412.9,-0.9207,-1.4447,135.4,98.3,0.467
6.6,31787.2,34559.7,-0.8732,-1.0839,135.4,98.3,0.467
6.62,31784.6,34626.2,-0.8839,-0.9205,135.4,98.3,0.467
6.64,32048.4,34980.5,0.2056,-0.0497,135.4,98.3,0.467
6.66,32149.6,35484.3,0.6233,1.1886,135.4,98.3,0.467
6.68,32355.5,35638.5,1.4734,1.5675,135.4,98.3,0.467
6.7,32336.0,35779.6,1.3931,1.9142,135.4,98.3,0.467
6.72,32318.3,35654.7,1.3199,1.6073,135.4,98.3,0.467
6.74,32211.0,35506.6,0.8769,1.2432,135.4,98.3,0.467
6.76,32101.4,35410.3,0.4245,1.0066,135.4,98.3,0.467
6.78,32142.0,35283.9,0.5918,0.6959,135.4,98.3,0.467
6.8,32085.7,35082.2,0.3596,0.2001,135.4,98.3,0.467
6.82,32090.6,35055.0,0.3798,0.1333,135.4,98.3,0.467
6.84,32023.6,35028.7,0.1031,0.0688,135.4,98.3,0.467
6.86,32014.1,35008.6,0.064,0.0192,135.4,98.3,0.467
6.88,31896.1,34811.0,-0.4234,-0.4664,135.4,98.3,0.467
6.9,31902.5,34687.7,-0.3968,-0.7694,135.4,98.3,0.467
6.92,31872.5,34731.8,-0.5208,-0.6611,135.4,98.3,0.467
6.94,31962.5,34724.1,-0.1493,-0.6799,135.4,98.3,0.467
6.96,31883.7,34685.5,-0.4747,-0.7748,135.4,98.3,0.467
6.98,31713.3,34551.8,-1.1783,-1.1033,135.4,98.3,0.467
7.0,31871.3,34451.5,-0.5258,-1.3498,135.4,98.3,0.467
7.02,31786.2,34508.3,-0.8773,-1.2103,135.4,98.3,0.467
7.04,31844.0,34525.3,-0.6387,-1.1685,135.4,98.3,0.467
7.06,31796.0,34675.4,-0.8367,-0.7996,135.4,98.3,0.467
7.08,31935.2,34974.7,-0.2621,-0.0641,135.4,98.3,0.467
7.1,32103.6,35248.5,0.4333,0.6089,135.4,98.3,0.467
7.12,32180.6,35517.8,0.7515,1.2707,135.4,98.3,0.467
7.14,32374.8,35776.8,1.5534,1.9073,135.4,98.3,0.467
7.16,32310.8,35767.4,1.2892,1.8843,135.4,98.3,0.467
7.18,32240.7,35473.5,0.9997,1.1619,135.4,98.3,0.467
7.2,32169.5,35301.7,0.7053,0.7397,135.4,98.3,0.467
7.22,32134.2,35176.6,0.5598,0.4323,135.4,98.3,0.467
7.24,32082.5,35179.3,0.3462,0.4388,135.4,98.3,0.467
7.26,32049.5,35026.2,0.21,0.0627,135.4,98.3,0.467
7.28,32071.4,34934.3,0.3006,-0.1633,135.4,98.3,0.467
7.3,32062.6,34994.5,0.264,-0.0154,135.4,98.3,0.467
7.32,31957.6,34883.1,-0.1695,-0.2891,135.4,98.3,0.467
7.34,31849.8,34715.6,-0.6144,-0.7009,135.4,98.3,0.467
7.36,31761.1,34718.7,-0.981,-0.6931,135.4,98.3,0.467
7.38,31832.8,34543.5,-0.6846,-1.1238,135.4,98.3,0.467
7.4,31867.4,34697.2,-0.5418,-0.7459,135.4,98.3,0.467
7.42,31797.4,34732.3,-0.8311,-0.6598,135.4,98.3,0.467
7.44,31832.4,34476.6,-0.6866,-1.2882,135.4,98.3,0.467
7.46,31763.9,34429.2,-0.9693,-1.4047,135.4,98.3,0.467
7.48,31713.1,34465.3,-1.1792,-1.3158,135.4,98.3,0.467
7.5,31876.8,34621.8,-0.503,-0.9313,135.4,98.3,0.467
7.52,32014.1,34856.2,0.0639,-0.3553,135.4,98.3,0.467
7.54,32127.2,35328.9,0.5308,0.8065,135.4,98.3,0.467
7.56,32209.5,35499.4,0.8709,1.2257,135.4,98.3,0.467
7.58,32329.9,35809.5,1.3678,1.9876,135.4,98.3,0.467
7.6,32309.4,35697.8,1.2832,1.7131,135.4,98.3,0.467
7.62,32233.6,35571.6,0.9704,1.4031,135.4,98.3,0.467
7.64,32093.2,35403.4,0.3906,0.9897,135.4,98.3,0.467
7.66,32092.6,35270.1,0.3881,0.662,135.4,98.3,0.467
7.68,32068.6,35113.9,0.2889,0.2782,135.4,98.3,0.467
7.7,31970.0,35164.8,-0.1181,0.4033,135.4,98.3,0.467
7.72,32058.6,35006.4,0.2477,0.0138,135.4,98.3,0.467
7.74,31997.1,35032.5,-0.0062,0.0782,135.4,98.3,0.467
7.76,31903.7,34919.2,-0.392,-0.2004,135.4,98.3,0.467
7.78,31946.2,34784.9,-0.2166,-0.5303,135.4,98.3,0.467
7.8,31895.0,34666.5,-0.4279,-0.8214,135.4,98.3,0.467
7.82,31905.0,34737.1,-0.3868,-0.6479,135.4,98.3,0.467
7.84,31858.7,34624.1,-0.5777,-0.9257,135.4,98.3,0.467
7.86,31781.8,34564.5,-0.8952,-1.072,135.4,98.3,0.467
7.88,31826.7,34473.8,-0.7101,-1.2952,135.4,98.3,0.467
7.9,31712.3,34504.8,-1.1825,-1.2188,135.4,98.3,0.467
7.92,31742.7,34568.3,-1.0569,-1.0628,135.4,98.3,0.467
7.94,31843.7,34577.0,-0.6396,-1.0414,135.4,98.3,0.467
7.96,32047.0,34881.9,0.1998,-0.2921,135.4,98.3,0.467
7.98,31984.4,35169.4,-0.0589,0.4146,135.4,98.3,0.467
8.0,32274.2,35524.1,1.1379,1.2863,135.4,98.3,0.467
8.02,32260.3,35744.6,1.0803,1.8282,135.4,98.3,0.467
8.04,32411.7,35853.2,1.7056,2.095,135.4,98.3,0.467
8.06,32278.4,35582.4,1.1553,1.4295,135.4,98.3,0.467
8.08,32219.0,35477.4,0.9098,1.1716,135.4,98.3,0.467
8.1,32006.3,35256.1,0.0317,0.6277,135.4,98.3,0.467
8.12,32039.2,35179.4,0.1674,0.439,135.4,98.3,0.467
8.14,32031.2,35094.1,0.1344,0.2293,135.4,98.3,0.467
8.16,31928.8,35043.8,-0.2885,0.1059,135.4,98.3,0.467
8.18,31984.5,34879.6,-0.0583,-0.2976,135.4,98.3,0.467
8.2,31948.2,34815.1,-0.2083,-0.4562,135.4,98.3,0.467
8.22,31896.9,34723.9,-0.4199,-0.6803,135.4,98.3,0.467
8.24,31813.1,34756.0,-0.766,-0.6015,135.4,98.3,0.467
8.26,31936.7,34665.6,-0.2559,-0.8237,135.4,98.3,0.467
8.28,31885.9,34727.3,-0.4656,-0.6721,135.4,98.3,0.467
8.3,31807.5,34577.5,-0.7894,-1.0401,135.4,98.3,0.467
8.32,31914.3,34570.5,-0.3482,-1.0574,135.4,98.3,0.467
8.34,31704.3,34464.1,-1.2154,-1.3189,135.4,98.3,0.467
8.36,31737.3,34456.8,-1.0791,-1.3368,135.4,98.3,0.467
8.38,31820.7,34546.3,-0.7347,-1.1168,135.4,98.3,0.467
8.4,31942.9,34846.3,-0.2302,-0.3797,135.4,98.3,0.467
8.42,32138.9,35160.1,0.5794,0.3917,135.4,98.3,0.467
8.44,32237.5,35420.6,0.9864,1.0319,135.4,98.3,0.467
8.46,32278.4,35764.0,1.1551,1.8758,135.4,98.3,0.467
8.48,32276.8,35737.9,1.1488,1.8117,135.4,98.3,0.467
8.5,32341.4,35707.2,1.4153,1.7362,135.4,98.3,0.467
8.52,32154.9,35544.4,0.6453,1.3363,135.4,98.3,0.467
8.54,32141.4,35288.9,0.5893,0.7083,135.4,98.3,0.467
8.56,32091.7,35149.7,0.3841,0.366,135.4,98.3,0.467
8.58,32067.8,35018.0,0.2857,0.0425,135.4,98.3,0.467
8.6,31945.8,35104.4,-0.2182,0.2549,135.4,98.3,0.467
8.62,31937.5,35029.6,-0.2523,0.071,135.4,98.3,0.467
8.64,32000.7,34882.2,0.0086,-0.2914,135.4,98.3,0.467
8.66,31956.0,34723.4,-0.176,-0.6815,135.4,98.3,0.467
8.68,31947.9,34731.6,-0.2097,-0.6614,135.4,98.3,0.467
8.7,31774.4,34656.6,-0.9258,-0.8459,135.4,98.3,0.467
8.72,31949.2,34696.4,-0.204,-0.7481,135.4,98.3,0.467
8.74,31925.7,34709.3,-0.3013,-0.7162,135.4,98.3,0.467
8.76,31899.4,34546.4,-0.4096,-1.1167,135.4,98.3,0.467
8.78,31822.6,34517.7,-0.727,-1.1872,135.4,98.3,0.467
8.8,31784.7,34372.8,-0.8835,-1.5433,135.4,98.3,0.467
8.82,31855.5,34621.6,-0.591,-0.9319,135.4,98.3,0.467
8.84,31829.0,34819.1,-0.7006,-0.4464,135.4,98.3,0.467
8.86,32029.0,35049.4,0.1253,0.1195,135.4,98.3,0.467
8.88,32249.0,35460.3,1.0339,1.1295,135.4,98.3,0.467
8.9,32268.0,35799.7,1.1121,1.9637,135.4,98.3,0.467
8.92,32375.6,35742.9,1.5566,1.8241,135.4,98.3,0.467
8.94,32196.4,35672.0,0.8167,1.6498,135.4,98.3,0.467
8.96,32184.6,35504.6,0.768,1.2384,135.4,98.3,0.467
8.98,32235.7,35325.1,0.9788,0.7971,135.4,98.3,0.467
9.0,32013.3,35179.1,0.0605,0.4384,135.4,98.3,0.467
9.02,32010.2,35122.5,0.0479,0.2992,135.4,98.3,0.467
9.04,32007.6,35071.6,0.0369,0.1742,135.4,98.3,0.467
9.06,31969.6,34990.4,-0.12,-0.0255,135.4,98.3,0.467
9.08,32010.7,34924.9,0.0497,-0.1865,135.4,98.3,0.467
9.1,31878.0,34812.0,-0.4982,-0.464,135.4,98.3,0.467
9.12,31853.0,34711.7,-0.6012,-0.7103,135.4,98.3,0.467
9.14,31962.0,34693.0,-0.1512,-0.7562,135.4,98.3,0.467
9.16,31884.9,34656.9,-0.4697,-0.8451,135.4,98.3,0.467
9.18,31859.1,34623.5,-0.5763,-0.9272,135.4,98.3,0.467
9.2,31703.7,34664.6,-1.2179,-0.8262,135.4,98.3,0.467
9.22,31815.7,34495.1,-0.7552,-1.2426,135.4,98.3,0.467
9.24,31778.7,34422.6,-0.9081,-1.4209,135.4,98.3,0.467
9.26,31739.6,34512.9,-1.0695,-1.1991,135.4,98.3,0.467
9.28,31871.4,34729.6,-0.5252,-0.6665,135.4,98.3,0.467
9.3,32001.9,35059.4,0.0134,0.1442,135.4,98.3,0.467
9.32,32106.1,35382.1,0.4436,0.9372,135.4,98.3,0.467
9.34,32260.3,35621.0,1.0807,1.5245,135.4,98.3,0.467
9.36,32276.2,35740.2,1.1462,1.8174,135.4,98.3,0.467
9.38,32278.6,35662.2,1.156,1.6257,135.4,98.3,0.467
9.4,32174.9,35524.4,0.7279,1.2869,135.4,98.3,0.467
9.42,32184.2,35288.2,0.7663,0.7064,135.4,98.3,0.467
9.44,32152.9,35233.4,0.6369,0.5717,135.4,98.3,0.467
9.46,32038.4,35154.5,0.164,0.3778,135.4,98.3,0.467
9.48,32087.5,35045.0,0.367,0.1088,135.4,98.3,0.467
9.5,32005.0,34982.2,0.0262,-0.0456,135.4,98.3,0.467
9.52,31896.1,34877.9,-0.4232,-0.3019,135.4,98.3,0.467
9.54,31969.3,34807.8,-0.1213,-0.4742,135.4,98.3,0.467
9.56,31891.4,34725.0,-0.4427,-0.6777,135.4,98.3,0.467
9.58,31845.6,34610.0,-0.6321,-0.9603,135.4,98.3,0.467
9.6,31879.8,34626.5,-0.4907,-0.9197,135.4,98.3,0.467
9.62,31877.2,34736.6,-0.5012,-0.6492,135.4,98.3,0.467
9.64,31776.5,34578.2,-0.9172,-1.0384,135.4,98.3,0.467
9.66,31677.0,34559.9,-1.3282,-1.0835,135.4,98.3,0.467
9.68,31707.9,34506.0,-1.2004,-1.2159,135.4,98.3,0.467
9.7,31792.4,34518.4,-0.8517,-1.1854,135.4,98.3,0.467
9.72,31824.4,34682.1,-0.7195,-0.783,135.4,98.3,0.467
9.74,32022.5,34967.0,0.0984,-0.0829,135.4,98.3,0.467
9.76,32064.5,35386.9,0.2719,0.9491,135.4,98.3,0.467
9.78,32279.2,35563.0,1.1585,1.3819,135.4,98.3,0.467
9.8,32339.4,35756.4,1.4069,1.8571,135.4,98.3,0.467
9.82,32402.1,35746.8,1.6659,1.8335,135.4,98.3,0.467
9.84,32227.6,35519.1,0.9453,1.2739,135.4,98.3,0.467
9.86,32068.3,35380.6,0.2878,0.9335,135.4,98.3,0.467
9.88,32185.8,35124.7,0.7726,0.3046,135.4,98.3,0.467
9.9,32038.2,35166.0,0.1632,0.4062,135.4,98.3,0.467
9.92,32046.6,35165.5,0.198,0.4049,135.4,98.3,0.467
9.94,32013.7,35041.1,0.0622,0.0992,135.4,98.3,0.467
9.96,31947.6,34942.1,-0.2109,-0.1441,135.4,98.3,0.467
9.98,31951.4,34907.2,-0.1952,-0.2299,135.4,98.3,0.467
10.0,31800.8,34786.1,-0.817,-0.5275,135.4,98.3,0.467
10.02,31925.0,34662.8,-0.3042,-0.8306,135.4,98.3,0.467
10.04,31844.0,34712.1,-0.6386,-0.7094,135.4,98.3,0.467
10.06,31863.7,34686.9,-0.557,-0.7713,135.4,98.3,0.467
10.08,31897.0,34599.5,-0.4196,-0.9861,135.4,98.3,0.467
10.1,31728.9,34551.5,-1.1139,-1.1041,135.4,98.3,0.467
10.12,31738.9,34489.7,-1.0726,-1.2559,135.4,98.3,0.467
10.14,31815.0,34526.7,-0.7582,-1.165,135.4,98.3,0.467
10.16,31866.8,34625.7,-0.5446,-0.9218,135.4,98.3,0.467
10.18,31901.2,34916.0,-0.4023,-0.2083,135.4,98.3,0.467
10.2,32168.9,35325.9,0.7029,0.7991,135.4,98.3,0.467
10.22,32256.1,35583.8,1.0631,1.4331,135.4,98.3,0.467
10.24,32373.3,35724.4,1.547,1.7786,135.4,98.3,0.467
10.26,32329.7,35783.1,1.367,1.9228,135.4,98.3,0.467
10.28,32210.3,35655.7,0.874,1.6096,135.4,98.3,0.467
10.3,32230.9,35416.5,0.9589,1.0218,135.4,98.3,0.467
10.32,32104.5,35240.9,0.4372,0.5902,135.4,98.3,0.467
10.34,32098.2,35131.2,0.4112,0.3207,135.4,98.3,0.467
10.36,32031.7,35133.9,0.1366,0.3272,135.4,98.3,0.467
10.38,31986.5,35074.8,-0.0502,0.182,135.4,98.3,0.467
10.4,31955.4,34936.6,-0.1786,-0.1577,135.4,98.3,0.467
10.42,31928.2,34831.7,-0.2907,-0.4154,135.4,98.3,0.467
10.44,31933.5,34772.7,-0.269,-0.5605,135.4,98.3,0.467
10.46,31884.4,34762.5,-0.4718,-0.5855,135.4,98.3,0.467
10.48,31866.3,34692.9,-0.5464,-0.7565,135.4,98.3,0.467
10.5,31881.1,34696.5,-0.4854,-0.7478,135.4,98.3,0.467
10.52,31866.9,34642.1,-0.5439,-0.8816,135.4,98.3,0.467
10.54,31815.8,34516.5,-0.7549,-1.1902,135.4,98.3,0.467
10.56,31692.8,34386.2,-1.2629,-1.5104,135.4,98.3,0.467
10.58,31691.8,34536.6,-1.2669,-1.1406,135.4,98.3,0.467
10.6,31880.7,34655.0,-0.487,-0.8497,135.4,98.3,0.467
10.62,31903.3,34949.1,-0.3937,-0.127,135.4,98.3,0.467
10.64,32116.5,35229.6,0.4866,0.5624,135.4,98.3,0.467
10.66,32195.3,35703.2,0.8122,1.7263,135.4,98.3,0.467
10.68,32379.7,35736.3,1.5733,1.8077,135.4,98.3,0.467
10.7,32368.4,35803.9,1.5267,1.974,135.4,98.3,0.467
10.72,32272.7,35702.6,1.1318,1.7249,135.4,98.3,0.467
10.74,32144.3,35330.2,0.6015,0.8098,135.4,98.3,0.467
10.76,32143.8,35279.5,0.5992,0.6852,135.4,98.3,0.467
10.78,32011.4,35227.9,0.0526,0.5582,135.4,98.3,0.467
10.8,32075.7,35153.5,0.3182,0.3754,135.4,98.3,0.467
10.82,32102.4,34972.6,0.4284,-0.0693,135.4,98.3,0.467
10.84,32053.6,35032.0,0.227,0.0769,135.4,98.3,0.467
10.86,31949.7,34999.0,-0.2022,-0.0042,135.4,98.3,0.467
10.88,31910.8,34726.8,-0.3627,-0.6733,135.4,98.3,0.467
10.9,31930.5,34708.4,-0.2815,-0.7184,135.4,98.3,0.467
10.92,31791.5,34617.4,-0.8552,-0.9421,135.4,98.3,0.467
10.94,31818.8,34585.2,-0.7424,-1.0214,135.4,98.3,0.467
10.96,31937.1,34625.0,-0.254,-0.9236,135.4,98.3,0.467
10.98,31726.0,34644.2,-1.1259,-0.8763,135.4,98.3,0.467
11.0,31721.8,34486.7,-1.1432,-1.2633,135.4,98.3,0.467
11.02,31743.6,34492.7,-1.0532,-1.2485,135.4,98.3,0.467
11.04,31762.2,34641.4,-0.9763,-0.8832,135.4,98.3,0.467
11.06,31885.2,34761.3,-0.4682,-0.5884,135.4,98.3,0.467
11.08,32086.5,35194.7,0.3629,0.4767,135.4,98.3,0.467
11.1,32289.5,35535.6,1.2012,1.3145,135.4,98.3,0.467
11.12,32344.8,35623.0,1.4293,1.5294,135.4,98.3,0.467
11.14,32326.3,35754.5,1.3531,1.8525,135.4,98.3,0.467
11.16,32245.2,35673.3,1.0182,1.653,135.4,98.3,0.467
11.18,32203.5,35381.4,0.8459,0.9355,135.4,98.3,0.467
11.2,32134.2,35248.2,0.5599,0.6082,135.4,98.3,0.467
11.22,32072.8,35174.2,0.3062,0.4262,135.4,98.3,0.467
11.24,31998.2,35045.5,-0.0018,0.11,135.4,98.3,0.467
11.26,31984.2,35010.2,-0.0594,0.0232,135.4,98.3,0.467
11.28,31930.6,35014.6,-0.281,0.0341,135.4,98.3,0.467
11.3,31980.5,34871.7,-0.0749,-0.3171,135.4,98.3,0.467
11.32,31906.0,34735.2,-0.3824,-0.6526,135.4,98.3,0.467
11.34,31868.9,34729.0,-0.5358,-0.6679,135.4,98.3,0.467
11.36,31872.6,34773.8,-0.5205,-0.5576,135.4,98.3,0.467
11.38,31791.7,34731.9,-0.8544,-0.6607,135.4,98.3,0.467
11.4,31853.2,34659.5,-0.6005,-0.8387,135.4,98.3,0.467
11.42,31749.1,34467.9,-1.0305,-1.3095,135.4,98.3,0.467
11.44,31709.7,34531.7,-1.1929,-1.1527,135.4,98.3,0.467
11.46,31699.9,34481.0,-1.2337,-1.2775,135.4,98.3,0.467
11.48,31769.9,34541.2,-0.9443,-1.1294,135.4,98.3,0.467
11.5,31953.9,34743.5,-0.1848,-0.6322,135.4,98.3,0.467
11.52,32054.3,35226.6,0.2298,0.5552,135.4,98.3,0.467
11.54,32214.0,35421.1,0.8892,1.033,135.4,98.3,0.467
11.56,32233.2,35692.5,0.9686,1.7001,135.4,98.3,0.467
11.58,32315.9,35684.7,1.3101,1.681,135.4,98.3,0.467
11.6,32290.3,35738.9,1.2043,1.8141,135.4,98.3,0.467
11.62,32224.1,35502.9,0.931,1.2341,135.4,98.3,0.467
11.64,32067.3,35302.2,0.2834,0.7409,135.4,98.3,0.467
11.66,32030.0,35253.3,0.1294,0.6207,135.4,98.3,0.467
11.68,32066.0,35147.1,0.2782,0.3598,135.4,98.3,0.467
11.7,32015.6,35086.1,0.07,0.2097,135.4,98.3,0.467
11.72,31986.7,34914.9,-0.0492,-0.2109,135.4,98.3,0.467
11.74,31901.3,34918.4,-0.402,-0.2024,135.4,98.3,0.467
11.76,31923.3,34661.2,-0.3111,-0.8346,135.4,98.3,0.467
11.78,31900.3,34760.0,-0.4062,-0.5917,135.4,98.3,0.467
11.8,31853.5,34604.8,-0.5992,-0.973,135.4,98.3,0.467
11.82,31821.5,34669.7,-0.7314,-0.8136,135.4,98.3,0.467
11.84,31846.6,34638.7,-0.6277,-0.8898,135.4,98.3,0.467
11.86,31810.9,34595.2,-0.775,-0.9966,135.4,98.3,0.467
11.88,31696.7,34501.6,-1.2467,-1.2268,135.4,98.3,0.467
11.9,31849.6,34442.1,-0.6155,-1.373,135.4,98.3,0.467
11.92,31698.1,34430.2,-1.2408,-1.4021,135.4,98.3,0.467
11.94,31945.5,34701.8,-0.2193,-0.7348,135.4,98.3,0.467
11.96,32072.6,35050.5,0.3054,0.1224,135.4,98.3,0.467
11.98,32184.4,35430.8,0.7672,1.057,135.4,98.3,0.467
12.0,32254.0,35718.8,1.0546,1.7649,135.4,98.3,0.467
12.02,32383.4,35731.7,1.5886,1.7965,135.4,98.3,0.467
12.04,32150.4,35772.7,0.6268,1.8972,135.4,98.3,0.467
12.06,32232.1,35562.7,0.9641,1.3812,135.4,98.3,0.467
12.08,32134.8,35311.0,0.5624,0.7625,135.4,98.3,0.467
12.1,32138.3,35183.0,0.5768,0.4481,135.4,98.3,0.467
12.12,32083.1,35139.6,0.3489,0.3413,135.4,98.3,0.467
12.14,31943.6,35099.8,-0.2272,0.2436,135.4,98.3,0.467
12.16,32078.9,34937.4,0.3312,-0.1557,135.4,98.3,0.467
12.18,31950.5,34842.4,-0.1989,-0.3891,135.4,98.3,0.467
12.2,31905.0,34889.0,-0.3865,-0.2746,135.4,98.3,0.467
12.22,31880.9,34706.3,-0.4862,-0.7236,135.4,98.3,0.467
12.24,31811.3,34608.6,-0.7736,-0.9639,135.4,98.3,0.467
12.26,31820.1,34660.3,-0.7372,-0.8368,135.4,98.3,0.467
12.28,31861.0,34607.7,-0.5681,-0.966,135.4,98.3,0.467
12.3,31837.0,34542.5,-0.6673,-1.1263,135.4,98.3,0.467
12.32,31793.4,34482.0,-0.8474,-1.2749,135.4,98.3,0.467
12.34,31921.9,34396.2,-0.3167,-1.4859,135.4,98.3,0.467
12.36,31829.1,34434.4,-0.7001,-1.3919,135.4,98.3,0.467
12.38,31804.7,34725.0,-0.8007,-0.6776,135.4,98.3,0.467
12.4,31917.6,35034.1,-0.3348,0.082,135.4,98.3,0.467
12.42,32131.6,35417.8,0.5489,1.0249,135.4,98.3,0.467
12.44,32311.8,35654.4,1.2929,1.6066,135.4,98.3,0.467
12.46,32408.2,35782.3,1.691,1.9208,135.4,98.3,0.467
12.48,32323.3,35770.3,1.3407,1.8914,135.4,98.3,0.467
12.5,32227.6,35540.9,0.9456,1.3277,135.4,98.3,0.467
12.52,32114.9,35394.6,0.48,0.9679,135.4,98.3,0.467
12.54,32127.3,35235.4,0.5311,0.5767,135.4,98.3,0.467
12.56,32048.4,35204.1,0.2055,0.4997,135.4,98.3,0.467
12.58,31965.8,35074.2,-0.1354,0.1806,135.4,98.3,0.467
12.6,32062.0,34972.3,0.2616,-0.07,135.4,98.3,0.467
12.62,31925.7,34937.9,-0.3014,-0.1543,135.4,98.3,0.467
12.64,31911.7,34851.5,-0.3589,-0.3668,135.4,98.3,0.467
12.66,31977.5,34583.4,-0.0873,-1.0258,135.4,98.3,0.467
12.68,31817.1,34663.2,-0.7495,-0.8296,135.4,98.3,0.467
12.7,31834.6,34738.2,-0.6772,-0.6453,135.4,98.3,0.467
12.72,31836.8,34622.3,-0.6683,-0.9302,135.4,98.3,0.467
12.74,31748.6,34606.8,-1.0326,-0.9681,135.4,98.3,0.467
12.76,31786.7,34490.5,-0.8751,-1.2539,135.4,98.3,0.467
12.78,31772.0,34469.6,-0.936,-1.3053,135.4,98.3,0.467
12.8,31765.0,34462.5,-0.9647,-1.3229,135.4,98.3,0.467
12.82,31938.9,34649.1,-0.2466,-0.8641,135.4,98.3,0.467
12.84,31944.4,34927.6,-0.2238,-0.1797,135.4,98.3,0.467
12.86,32092.0,35303.7,0.3855,0.7447,135.4,98.3,0.467
12.88,32162.5,35580.5,0.6767,1.4249,135.4,98.3,0.467
12.9,32270.0,35696.9,1.1206,1.711,135.4,98.3,0.467
12.92,32279.2,35715.6,1.1586,1.757,135.4,98.3,0.467
12.94,32234.1,35560.5,0.9721,1.3757,135.4,98.3,0.467
12.96,32128.4,35438.7,0.5356,1.0763,135.4,98.3,0.467
12.98,32099.3,35138.8,0.4156,0.3392,135.4,98.3,0.467
13.0,31944.7,35168.7,-0.2227,0.4128,135.4,98.3,0.467
13.02,32082.6,35015.5,0.3468,0.0364,135.4,98.3,0.467
13.04,32022.9,35083.2,0.1002,0.2026,135.4,98.3,0.467
13.06,32018.6,34983.8,0.0826,-0.0415,135.4,98.3,0.467
13.08,31938.4,34888.6,-0.2485,-0.2756,135.4,98.3,0.467
13.1,31892.9,34759.5,-0.4366,-0.5928,135.4,98.3,0.467
13.12,31839.2,34648.9,-0.6584,-0.8648,135.4,98.3,0.467
13.14,31827.2,34636.6,-0.708,-0.895,135.4,98.3,0.467
13.16,31864.8,34603.0,-0.5528,-0.9776,135.4,98.3,0.467
13.18,31851.4,34698.3,-0.6079,-0.7432,135.4,98.3,0.467
13.2,31855.3,34565.0,-0.5918,-1.0709,135.4,98.3,0.467
13.22,31750.9,34474.4,-1.0231,-1.2935,135.4,98.3,0.467
13.24,31722.7,34484.7,-1.1396,-1.2683,135.4,98.3,0.467
13.26,31921.0,34618.6,-0.3206,-0.9392,135.4,98.3,0.467
13.28,32063.3,34796.9,0.2672,-0.501,135.4,98.3,0.467
13.3,32115.7,35174.6,0.4835,0.4274,135.4,98.3,0.467
13.32,32309.2,35531.5,1.2823,1.3044,135.4,98.3,0.467
13.34,32351.0,35796.6,1.4551,1.956,135.4,98.3,0.467
13.36,32270.5,35779.9,1.1224,1.9148,135.4,98.3,0.467
13.38,32290.5,35576.7,1.2051,1.4155,135.4,98.3,0.467
13.4,32141.3,35404.1,0.5893,0.9914,135.4,98.3,0.467
13.42,32078.0,35202.5,0.3275,0.4958,135.4,98.3,0.467
13.44,32089.4,35089.4,0.3749,0.218,135.4,98.3,0.467
13.46,32028.3,35046.6,0.1226,0.1128,135.4,98.3,0.467
13.48,31979.7,35106.7,-0.0784,0.2604,135.4,98.3,0.467
13.5,32026.3,34889.8,0.1144,-0.2726,135.4,98.3,0.467
13.52,31932.1,34887.8,-0.2746,-0.2776,135.4,98.3,0.467
13.54,31857.4,34753.3,-0.5831,-0.6082,135.4,98.3,0.467
13.56,31971.2,34614.6,-0.1132,-0.949,135.4,98.3,0.467
13.58,31841.1,34769.6,-0.6507,-0.568,135.4,98.3,0.467
13.6,31790.8,34693.0,-0.8582,-0.7563,135.4,98.3,0.467
13.62,31811.4,34662.3,-0.773,-0.8318,135.4,98.3,0.467
13.64,31822.1,34469.1,-0.729,-1.3065,135.4,98.3,0.467
13.66,31794.1,34439.2,-0.8445,-1.3801,135.4,98.3,0.467
13.68,31672.0,34427.1,-1.3489,-1.4099,135.4,98.3,0.467
13.7,31801.5,34475.8,-0.814,-1.2902,135.4,98.3,0.467
13.72,31915.7,34828.8,-0.3424,-0.4226,135.4,98.3,0.467
13.74,32117.6,35235.5,0.4914,0.5769,135.4,98.3,0.467
13.76,32264.9,35561.4,1.0993,1.378,135.4,98.3,0.467
13.78,32266.6,35703.7,1.1064,1.7278,135.4,98.3,0.467
13.8,32290.9,35676.2,1.2069,1.6601,135.4,98.3,0.467
13.82,32252.0,35611.5,1.0461,1.501,135.4,98.3,0.467
13.84,32256.8,35458.9,1.0661,1.126,135.4,98.3,0.467
13.86,32168.2,35307.0,0.7001,0.7528,135.4,98.3,0.467
13.88,32064.0,35199.9,0.2701,0.4894,135.4,98.3,0.467
13.9,32130.4,35180.8,0.5441,0.4425,135.4,98.3,0.467
13.92,32006.9,35059.9,0.034,0.1454,135.4,98.3,0.467
13.94,31941.2,34929.6,-0.2371,-0.1747,135.4,98.3,0.467
13.96,31920.6,34871.4,-0.322,-0.318,135.4,98.3,0.467
13.98,31856.0,34757.7,-0.5891,-0.5974,135.4,98.3,0.467
14.0,31894.7,34759.3,-0.4292,-0.5934,135.4,98.3,0.467
14.02,31856.2,34654.4,-0.588,-0.8513,135.4,98.3,0.467
14.04,31859.2,34589.7,-0.5759,-1.0103,135.4,98.3,0.467
14.06,31825.0,34649.4,-0.717,-0.8636,135.4,98.3,0.467
14.08,31813.5,34583.0,-0.7646,-1.0266,135.4,98.3,0.467
14.1,31814.0,34490.0,-0.7623,-1.2553,135.4,98.3,0.467
14.12,31800.1,34478.4,-0.8198,-1.2837,135.4,98.3,0.467
14.14,31773.5,34544.9,-0.9295,-1.1204,135.4,98.3,0.467
14.16,31889.5,34775.1,-0.4505,-0.5546,135.4,98.3,0.467
14.18,32061.0,35170.1,0.2575,0.4163,135.4,98.3,0.467
14.2,32246.5,35463.8,1.0235,1.1381,135.4,98.3,0.467
14.22,32295.1,35713.1,1.2241,1.7507,135.4,98.3,0.467
14.24,32277.0,35740.9,1.1495,1.8191,135.4,98.3,0.467
14.26,32235.8,35676.2,0.9794,1.66,135.4,98.3,0.467
14.28,32191.1,35518.6,0.7947,1.2728,135.4,98.3,0.467
14.3,32174.9,35295.0,0.728,0.7232,135.4,98.3,0.467
14.32,32088.9,35144.8,0.3726,0.354,135.4,98.3,0.467
14.34,31967.9,35144.6,-0.127,0.3536,135.4,98.3,0.467
14.36,32046.1,35056.4,0.1958,0.1369,135.4,98.3,0.467
14.38,31917.9,35010.5,-0.3334,0.0239,135.4,98.3,0.467
14.4,31983.1,34870.9,-0.064,-0.3192,135.4,98.3,0.467
14.42,31898.7,34818.5,-0.4125,-0.4478,135.4,98.3,0.467
14.44,31884.9,34792.3,-0.4697,-0.5124,135.4,98.3,0.467
14.46,31919.6,34652.4,-0.3263,-0.8562,135.4,98.3,0.467
14.48,31801.9,34664.0,-0.8124,-0.8276,135.4,98.3,0.467
14.5,31968.5,34535.1,-0.1244,-1.1445,135.4,98.3,0.467
14.52,31705.8,34650.9,-1.209,-0.8597,135.4,98.3,0.467
14.54,31739.1,34533.5,-1.0718,-1.1482,135.4,98.3,0.467
14.56,31754.7,34481.5,-1.0072,-1.2761,135.4,98.3,0.467
14.58,31762.2,34592.1,-0.9762,-1.0043,135.4,98.3,0.467
14.6,31886.3,34779.1,-0.4638,-0.5446,135.4,98.3,0.467
14.62,32016.3,35039.5,0.0727,0.0954,135.4,98.3,0.467
14.64,32185.3,35466.7,0.7709,1.1451,135.4,98.3,0.467
14.66,32199.8,35834.7,0.8305,2.0495,135.4,98.3,0.467
14.68,32316.3,35805.9,1.3116,1.9788,135.4,98.3,0.467
14.7,32307.4,35689.8,1.2748,1.6935,135.4,98.3,0.467
14.72,32291.2,35563.1,1.208,1.382,135.4,98.3,0.467
14.74,32132.9,35297.9,0.5542,0.7304,135.4,98.3,0.467
14.76,32114.9,35111.1,0.4802,0.2712,135.4,98.3,0.467
14.78,32030.9,35132.0,0.1332,0.3225,135.4,98.3,0.467
14.8,32054.8,35103.8,0.2318,0.2533,135.4,98.3,0.467
14.82,32052.4,35039.2,0.2218,0.0946,135.4,98.3,0.467
14.84,31864.5,34960.1,-0.5539,-0.0998,135.4,98.3,0.467
14.86,31840.0,34879.6,-0.6551,-0.2977,135.4,98.3,0.467
14.88,31848.0,34737.3,-0.6218,-0.6474,135.4,98.3,0.467
14.9,31933.6,34645.3,-0.2685,-0.8737,135.4,98.3,0.467
14.92,31917.3,34664.2,-0.3359,-0.8271,135.4,98.3,0.467
14.94,31896.2,34596.3,-0.4231,-0.994,135.4,98.3,0.467
14.96,31887.0,34603.0,-0.4609,-0.9775,135.4,98.3,0.467
14.98,31771.4,34562.7,-0.9385,-1.0765,135.4,98.3,0.467
15.0,31750.3,34441.6,-1.0255,-1.3741,135.4,98.3,0.467
15.02,31817.7,34473.6,-0.7473,-1.2955,135.4,98.3,0.467
15.04,31853.5,34764.2,-0.5992,-0.5814,135.4,98.3,0.467
15.06,31992.6,35093.7,-0.0249,0.2285,135.4,98.3,0.467
15.08,32109.3,35343.7,0.4569,0.8428,135.4,98.3,0.467
15.1,32274.0,35594.1,1.1369,1.4582,135.4,98.3,0.467
15.12,32289.0,35772.5,1.199,1.8968,135.4,98.3,0.467
15.14,32301.9,35721.2,1.2522,1.7707,135.4,98.3,0.467
15.16,32315.9,35579.6,1.3099,1.4227,135.4,98.3,0.467
15.18,32185.1,35283.9,0.77,0.6958,135.4,98.3,0.467
15.2,32064.1,35207.2,0.2705,0.5075,135.4,98.3,0.467
15.22,32066.1,35103.1,0.2787,0.2515,135.4,98.3,0.467
15.24,32050.1,35109.6,0.2123,0.2676,135.4,98.3,0.467
15.26,32063.0,34971.5,0.2657,-0.0718,135.4,98.3,0.467
15.28,32010.3,35021.0,0.0481,0.0497,135.4,98.3,0.467
15.3,31926.7,34905.9,-0.2971,-0.233,135.4,98.3,0.467
15.32,31842.8,34774.6,-0.6433,-0.5558,135.4,98.3,0.467
15.34,31813.6,34751.1,-0.764,-0.6136,135.4,98.3,0.467
15.36,31824.1,34695.4,-0.7208,-0.7504,135.4,98.3,0.467
15.38,31902.1,34619.2,-0.3987,-0.9378,135.4,98.3,0.467
15.4,31778.8,34571.5,-0.9078,-1.0549,135.4,98.3,0.467
15.42,31857.5,34427.5,-0.5827,-1.4088,135.4,98.3,0.467
15.44,31739.2,34572.0,-1.0714,-1.0538,135.4,98.3,0.467
15.46,31758.0,34510.9,-0.9938,-1.204,135.4,98.3,0.467
15.48,31863.5,34701.5,-0.558,-0.7354,135.4,98.3,0.467
15.5,32054.8,34991.7,0.2318,-0.0221,135.4,98.3,0.467
15.52,32175.9,35318.6,0.7319,0.7813,135.4,98.3,0.467
15.54,32295.4,35639.3,1.2255,1.5693,135.4,98.3,0.467
15.56,32375.4,35806.7,1.5556,1.9808,135.4,98.3,0.467
15.58,32264.6,35742.7,1.0983,1.8234,135.4,98.3,0.467
15.6,32257.1,35600.6,1.0671,1.4744,135.4,98.3,0.467
15.62,32201.5,35391.5,0.8375,0.9603,135.4,98.3,0.467
15.64,32088.4,35383.5,0.3708,0.9408,135.4,98.3,0.467
15.66,32102.1,35185.9,0.4272,0.4551,135.4,98.3,0.467
15.68,31952.1,35138.9,-0.1921,0.3395,135.4,98.3,0.467
15.7,31964.7,35056.7,-0.1401,0.1375,135.4,98.3,0.467
15.72,31981.9,34935.5,-0.069,-0.1603,135.4,98.3,0.467
15.74,32003.1,34819.2,0.0184,-0.4461,135.4,98.3,0.467
15.76,31835.6,34782.5,-0.6732,-0.5364,135.4,98.3,0.467
15.78,31877.2,34664.0,-0.5016,-0.8277,135.4,98.3,0.467
15.8,31850.2,34735.5,-0.6128,-0.6518,135.4,98.3,0.467
15.82,31805.6,34663.7,-0.7972,-0.8284,135.4,98.3,0.467
15.84,31924.3,34633.7,-0.3068,-0.9022,135.4,98.3,0.467
15.86,31810.4,34417.6,-0.7775,-1.4331,135.4,98.3,0.467
15.88,31814.8,34455.2,-0.7592,-1.3408,135.4,98.3,0.467
15.9,31824.8,34398.7,-0.7178,-1.4796,135.4,98.3,0.467
15.92,31810.4,34668.8,-0.7772,-0.8159,135.4,98.3,0.467
15.94,31970.4,34941.9,-0.1164,-0.1447,135.4,98.3,0.467
15.96,32102.5,35231.9,0.4288,0.5682,135.4,98.3,0.467
15.98,32169.0,35497.5,0.7034,1.2208,135.4,98.3,0.467
16.0,32335.7,35726.7,1.3918,1.7842,135.4,98.3,0.467
16.02,32372.2,35613.3,1.5425,1.5055,135.4,98.3,0.467
16.04,32316.8,35576.3,1.3138,1.4147,135.4,98.3,0.467
16.06,32181.4,35452.4,0.7547,1.1101,135.4,98.3,0.467
16.08,32196.2,35296.1,0.8157,0.726,135.4,98.3,0.467
16.1,32053.1,35101.0,0.225,0.2465,135.4,98.3,0.467
16.12,31993.6,35115.6,-0.0209,0.2823,135.4,98.3,0.467
16.14,31994.8,35063.5,-0.0157,0.1542,135.4,98.3,0.467
16.16,31961.1,35034.6,-0.1549,0.0833,135.4,98.3,0.467
16.18,31897.9,34850.6,-0.416,-0.3691,135.4,98.3,0.467
16.2,31959.2,34823.2,-0.1628,-0.4364,135.4,98.3,0.467
16.22,31891.2,34788.8,-0.4437,-0.5208,135.4,98.3,0.467
16.24,31838.6,34693.3,-0.661,-0.7556,135.4,98.3,0.467
16.26,31807.2,34612.4,-0.7903,-0.9544,135.4,98.3,0.467
16.28,31756.3,34603.0,-1.0005,-0.9776,135.4,98.3,0.467
16.3,31883.1,34531.9,-0.4772,-1.1523,135.4,98.3,0.467
16.32,31768.8,34526.5,-0.949,-1.1656,135.4,98.3,0.467
16.34,31813.0,34507.2,-0.7666,-1.213,135.4,98.3,0.467
16.36,31889.2,34574.7,-0.452,-1.047,135.4,98.3,0.467
16.38,31947.7,34777.1,-0.2105,-0.5496,135.4,98.3,0.467
16.4,32100.5,35231.2,0.4205,0.5664,135.4,98.3,0.467
16.42,32193.7,35535.3,0.8054,1.3137,135.4,98.3,0.467
16.44,32262.2,35736.3,1.0881,1.8078,135.4,98.3,0.467
16.46,32332.5,35797.6,1.3785,1.9584,135.4,98.3,0.467
16.48,32248.8,35577.4,1.033,1.4172,135.4,98.3,0.467
16.5,32202.6,35461.8,0.842,1.1331,135.4,98.3,0.467
16.52,32056.2,35210.0,0.2376,0.5143,135.4,98.3,0.467
16.54,32031.6,35191.1,0.1362,0.4679,135.4,98.3,0.467
16.56,32029.8,35071.3,0.1286,0.1735,135.4,98.3,0.467
16.58,32061.0,35040.0,0.2575,0.0966,135.4,98.3,0.467
16.6,31928.8,34931.5,-0.2882,-0.1702,135.4,98.3,0.467
16.62,32013.2,34964.1,0.0602,-0.09,135.4,98.3,0.467
16.64,31875.2,34759.8,-0.5097,-0.5921,135.4,98.3,0.467
16.66,31800.4,34814.7,-0.8185,-0.4571,135.4,98.3,0.467
16.68,31880.5,34661.0,-0.4879,-0.8349,135.4,98.3,0.467
16.7,31794.5,34708.2,-0.8431,-0.7191,135.4,98.3,0.467
16.72,31886.1,34531.5,-0.4646,-1.1533,135.4,98.3,0.467
16.74,31834.7,34547.1,-0.6769,-1.1148,135.4,98.3,0.467
16.76,31798.8,34513.2,-0.8254,-1.1983,135.4,98.3,0.467
16.78,31713.4,34397.9,-1.1777,-1.4816,135.4,98.3,0.467
16.8,31873.2,34567.2,-0.5178,-1.0655,135.4,98.3,0.467
16.82,32010.4,34728.9,0.0485,-0.6681,135.4,98.3,0.467
16.84,31976.7,35114.4,-0.0904,0.2795,135.4,98.3,0.467
16.86,32193.4,35436.4,0.8041,1.0708,135.4,98.3,0.467
16.88,32317.8,35693.7,1.318,1.7031,135.4,98.3,0.467
16.9,32277.8,35727.9,1.1526,1.7873,135.4,98.3,0.467
16.92,32301.3,35606.7,1.2496,1.4893,135.4,98.3,0.467
16.94,32271.9,35386.3,1.1285,0.9475,135.4,98.3,0.467
16.96,32082.7,35332.9,0.3472,0.8164,135.4,98.3,0.467
16.98,32027.9,35069.4,0.1208,0.1687,135.4,98.3,0.467
17.0,32114.4,35145.0,0.4782,0.3546,135.4,98.3,0.467
17.02,31979.7,34981.1,-0.0781,-0.0484,135.4,98.3,0.467
17.04,31900.6,34987.8,-0.4048,-0.0318,135.4,98.3,0.467
17.06,31986.6,34807.2,-0.0499,-0.4755,135.4,98.3,0.467
17.08,31945.4,34811.6,-0.2196,-0.4649,135.4,98.3,0.467
17.1,31834.7,34611.7,-0.677,-0.9562,135.4,98.3,0.467
17.12,31879.3,34630.3,-0.4926,-0.9105,135.4,98.3,0.467
17.14,31981.1,34627.1,-0.0724,-0.9184,135.4,98.3,0.467
17.16,31757.4,34631.5,-0.9962,-0.9074,135.4,98.3,0.467
17.18,31750.8,34658.4,-1.0235,-0.8415,135.4,98.3,0.467
17.2,31706.6,34482.8,-1.206,-1.273,135.4,98.3,0.467
17.22,31766.6,34416.9,-0.9583,-1.435,135.4,98.3,0.467
17.24,31768.1,34520.8,-0.952,-1.1796,135.4,98.3,0.467
17.26,31919.5,34793.5,-0.3268,-0.5093,135.4,98.3,0.467
17.28,32065.8,35106.2,0.2772,0.2593,135.4,98.3,0.467
17.3,32179.3,35441.6,0.746,1.0834,135.4,98.3,0.467
17.32,32233.6,35707.2,0.9702,1.7362,135.4,98.3,0.467
17.34,32238.7,35717.8,0.9914,1.7622,135.4,98.3,0.467
17.36,32306.9,35628.2,1.2728,1.5421,135.4,98.3,0.467
17.38,32221.9,35539.9,0.9218,1.3252,135.4,98.3,0.467
17.4,32060.9,35316.1,0.2572,0.7751,135.4,98.3,0.467
17.42,32089.0,35120.7,0.373,0.2948,135.4,98.3,0.467
17.44,32108.8,35131.6,0.4547,0.3217,135.4,98.3,0.467
17.46,32047.9,35032.9,0.2035,0.0792,135.4,98.3,0.467
17.48,32020.0,34975.9,0.0883,-0.0611,135.4,98.3,0.467
17.5,31888.0,34858.6,-0.457,-0.3494,135.4,98.3,0.467
17.52,31909.6,34845.3,-0.3677,-0.3819,135.4,98.3,0.467
17.54,31883.2,34756.7,-0.4765,-0.5998,135.4,98.3,0.467
17.56,31897.9,34670.3,-0.416,-0.812,135.4,98.3,0.467
17.58,31929.0,34750.6,-0.2873,-0.6148,135.4,98.3,0.467
17.6,31829.0,34565.5,-0.7003,-1.0696,135.4,98.3,0.467
17.62,31889.6,34584.1,-0.4502,-1.0241,135.4,98.3,0.467
17.64,31801.6,34499.0,-0.8136,-1.233,135.4,98.3,0.467
17.66,31779.4,34410.7,-0.9054,-1.4501,135.4,98.3,0.467
17.68,31759.1,34537.5,-0.9889,-1.1385,135.4,98.3,0.467
17.7,31898.0,34647.7,-0.4155,-0.8677,135.4,98.3,0.467
17.72,32033.2,35115.9,0.1427,0.283,135.4,98.3,0.467
17.74,32161.0,35368.7,0.6704,0.9044,135.4,98.3,0.467
17.76,32302.1,35600.5,1.2531,1.474,135.4,98.3,0.467
17.78,32323.4,35750.3,1.3409,1.8422,135.4,98.3,0.467
17.8,32210.2,35727.9,0.8737,1.7871,135.4,98.3,0.467
17.82,32214.7,35411.5,0.8923,1.0096,135.4,98.3,0.467
17.84,32229.2,35329.1,0.9521,0.8071,135.4,98.3,0.467
17.86,32079.1,35182.2,0.3323,0.4461,135.4,98.3,0.467
17.88,32002.2,35074.8,0.0148,0.1819,135.4,98.3,0.467
17.9,32002.6,35162.5,0.0164,0.3975,135.4,98.3,0.467
17.92,31949.3,35037.3,-0.2039,0.0898,135.4,98.3,0.467
17.94,32012.8,34906.1,0.0584,-0.2325,135.4,98.3,0.467
17.96,31966.8,34738.4,-0.1315,-0.6447,135.4,98.3,0.467
17.98,31912.6,34717.5,-0.3553,-0.6961,135.4,98.3,0.467
18.0,31862.2,34655.6,-0.5632,-0.8481,135.4,98.3,0.467
18.02,31765.5,34647.2,-0.9628,-0.869,135.4,98.3,0.467
18.04,31829.6,34652.1,-0.6979,-0.8568,135.4,98.3,0.467
18.06,31772.6,34519.0,-0.9332,-1.1839,135.4,98.3,0.467
18.08,31780.0,34422.8,-0.9026,-1.4204,135.4,98.3,0.467
18.1,31652.0,34408.6,-1.4315,-1.4552,135.4,98.3,0.467
18.12,31703.9,34520.2,-1.217,-1.1809,135.4,98.3,0.467
18.14,31961.9,34825.5,-0.1517,-0.4307,135.4,98.3,0.467
18.16,31915.2,34926.1,-0.3446,-0.1836,135.4,98.3,0.467
18.18,32185.1,35290.1,0.7701,0.7111,135.4,98.3,0.467
18.2,32237.7,35672.9,0.987,1.6521,135.4,98.3,0.467
18.22,32227.9,35769.9,0.9465,1.8905,135.4,98.3,0.467
18.24,32297.5,35661.4,1.2342,1.6237,135.4,98.3,0.467
18.26,32287.5,35582.1,1.1928,1.4288,135.4,98.3,0.467
18.28,32175.7,35377.1,0.7311,0.9251,135.4,98.3,0.467
18.3,31969.2,35197.7,-0.1216,0.484,135.4,98.3,0.467
18.32,32013.3,35204.8,0.0606,0.5015,135.4,98.3,0.467
18.34,32083.6,35071.0,0.351,0.1726,135.4,98.3,0.467
18.36,31963.3,35132.4,-0.146,0.3236,135.4,98.3,0.467
18.38,31908.8,35034.1,-0.3711,0.082,135.4,98.3,0.467
18.4,31999.4,34911.8,0.003,-0.2187,135.4,98.3,0.467
18.42,31907.7,34730.2,-0.3756,-0.6649,135.4,98.3,0.467
18.44,31864.2,34711.4,-0.555,-0.7112,135.4,98.3,0.467
18.46,31871.2,34600.0,-0.5263,-0.985,135.4,98.3,0.467
18.48,31782.1,34725.5,-0.8942,-0.6765,135.4,98.3,0.467
18.5,31837.1,34665.4,-0.6671,-0.8241,135.4,98.3,0.467
18.52,31767.9,34523.4,-0.9529,-1.1733,135.4,98.3,0.467
18.54,31790.1,34441.3,-0.8612,-1.375,135.4,98.3,0.467
18.56,31782.2,34503.0,-0.8936,-1.2233,135.4,98.3,0.467
18.58,31821.2,34608.9,-0.7327,-0.963,135.4,98.3,0.467
18.6,31998.3,34986.5,-0.0013,-0.0349,135.4,98.3,0.467
18.62,32210.5,35281.8,0.8747,0.6908,135.4,98.3,0.467
18.64,32242.7,35575.9,1.0078,1.4136,135.4,98.3,0.467
18.66,32280.8,35731.1,1.1653,1.7949,135.4,98.3,0.467
18.68,32345.2,35694.9,1.431,1.7061,135.4,98.3,0.467
18.7,32303.2,35547.0,1.2578,1.3426,135.4,98.3,0.467
18.72,32151.6,35422.4,0.6318,1.0363,135.4,98.3,0.467
18.74,32037.5,35245.3,0.1604,0.601,135.4,98.3,0.467
18.76,32032.5,35207.5,0.1399,0.5081,135.4,98.3,0.467
18.78,32118.4,35124.8,0.4947,0.3049,135.4,98.3,0.467
18.8,32028.0,35075.6,0.1214,0.184,135.4,98.3,0.467
18.82,31978.6,34990.9,-0.0828,-0.0242,135.4,98.3,0.467
18.84,31952.1,34785.0,-0.1922,-0.5302,135.4,98.3,0.467
18.86,31851.5,34767.1,-0.6074,-0.5741,135.4,98.3,0.467
18.88,31899.3,34676.2,-0.4103,-0.7976,135.4,98.3,0.467
18.9,31811.6,34683.9,-0.7722,-0.7788,135.4,98.3,0.467
18.92,31869.4,34623.3,-0.5336,-0.9277,135.4,98.3,0.467
18.94,31832.7,34688.6,-0.685,-0.7671,135.4,98.3,0.467
18.96,31921.2,34535.3,-0.3199,-1.144,135.4,98.3,0.467
18.98,31845.9,34507.3,-0.6306,-1.2128,135.4,98.3,0.467
19.0,31779.9,34456.0,-0.903,-1.3387,135.4,98.3,0.467
19.02,31844.8,34552.5,-0.6351,-1.1017,135.4,98.3,0.467
19.04,31929.6,34871.8,-0.2849,-0.3168,135.4,98.3,0.467
19.06,32064.0,35239.2,0.2701,0.586,135.4,98.3,0.467
19.08,32273.7,35573.7,1.1356,1.4082,135.4,98.3,0.467
19.1,32235.6,35687.1,0.9783,1.6868,135.4,98.3,0.467
19.12,32259.1,35649.7,1.0753,1.5949,135.4,98.3,0.467
19.14,32154.3,35708.2,0.6428,1.7387,135.4,98.3,0.467
19.16,32176.3,35422.6,0.7335,1.0367,135.4,98.3,0.467
19.18,32120.8,35298.3,0.5046,0.7314,135.4,98.3,0.467
19.2,32039.9,35129.1,0.1705,0.3154,135.4,98.3,0.467
19.22,32123.9,35071.3,0.5174,0.1735,135.4,98.3,0.467
19.24,31974.1,35022.9,-0.1013,0.0545,135.4,98.3,0.467
19.26,31968.8,34960.3,-0.1232,-0.0994,135.4,98.3,0.467
19.28,32001.5,34877.0,0.012,-0.3041,135.4,98.3,0.467
19.3,31838.1,34843.0,-0.6629,-0.3876,135.4,98.3,0.467
19.32,31860.2,34718.1,-0.5715,-0.6947,135.4,98.3,0.467
19.34,31875.1,34655.6,-0.5102,-0.8483,135.4,98.3,0.467
19.36,31845.2,34601.7,-0.6337,-0.9807,135.4,98.3,0.467
19.38,31828.0,34627.3,-0.7046,-0.9177,135.4,98.3,0.467
19.4,31794.6,34571.7,-0.8423,-1.0545,135.4,98.3,0.467
19.42,31856.0,34438.5,-0.5888,-1.3818,135.4,98.3,0.467
19.44,31728.4,34489.2,-1.1159,-1.2573,135.4,98.3,0.467
19.46,31832.5,34607.3,-0.6859,-0.967,135.4,98.3,0.467
19.48,31912.8,34839.5,-0.3543,-0.3962,135.4,98.3,0.467
19.5,32110.3,35243.5,0.461,0.5966,135.4,98.3,0.467
19.52,32227.7,35522.0,0.9458,1.281,135.4,98.3,0.467
19.54,32333.9,35707.8,1.3842,1.7377,135.4,98.3,0.467
19.56,32291.3,35764.6,1.2085,1.8774,135.4,98.3,0.467
19.58,32199.7,35504.1,0.8302,1.2372,135.4,98.3,0.467
19.6,32226.4,35472.0,0.9404,1.1582,135.4,98.3,0.467
19.62,32166.2,35280.9,0.6918,0.6885,135.4,98.3,0.467
19.64,32048.1,35195.3,0.2041,0.4783,135.4,98.3,0.467
19.66,32021.7,35071.6,0.0953,0.1741,135.4,98.3,0.467
19.68,31998.3,35056.6,-0.0013,0.1372,135.4,98.3,0.467
19.7,31983.3,34883.2,-0.0634,-0.2888,135.4,98.3,0.467
19.72,32013.7,34873.3,0.062,-0.3132,135.4,98.3,0.467
19.74,31930.1,34775.0,-0.2829,-0.5549,135.4,98.3,0.467
19.76,31828.0,34712.9,-0.7046,-0.7074,135.4,98.3,0.467
19.78,31814.5,34714.1,-0.7605,-0.7045,135.4,98.3,0.467
19.8,31761.4,34684.0,-0.9796,-0.7785,135.4,98.3,0.467
19.82,31835.1,34710.6,-0.6751,-0.7132,135.4,98.3,0.467
19.84,31789.0,34544.0,-0.8655,-1.1224,135.4,98.3,0.467
19.86,31836.8,34532.0,-0.6683,-1.1521,135.4,98.3,0.467
19.88,31868.9,34544.0,-0.5356,-1.1226,135.4,98.3,0.467
19.9,31903.6,34544.1,-0.3924,-1.1222,135.4,98.3,0.467
19.92,31931.3,34756.8,-0.2781,-0.5996,135.4,98.3,0.467
19.94,32174.4,35187.4,0.7258,0.4587,135.4,98.3,0.467
19.96,32179.7,35439.7,0.7478,1.0789,135.4,98.3,0.467
19.98,32246.0,35659.9,1.0214,1.62,135.4,98.3,0.467
20.0,32298.8,35719.5,1.2394,1.7665,135.4,98.3,0.467
20.02,32240.4,35605.7,0.9982,1.4868,135.4,98.3,0.467
20.04,32262.3,35518.8,1.0887,1.2733,135.4,98.3,0.467
20.06,32121.7,35315.3,0.508,0.7732,135.4,98.3,0.467
20.08,32083.0,35241.3,0.3483,0.5911,135.4,98.3,0.467
20.1,32003.5,35170.7,0.0199,0.4176,135.4,98.3,0.467
20.12,32007.7,35052.8,0.0375,0.1279,135.4,98.3,0.467
20.14,31941.2,35009.7,-0.2371,0.022,135.4,98.3,0.467
20.16,32012.6,34918.8,0.0577,-0.2015,135.4,98.3,0.467
20.18,31912.5,34800.3,-0.3557,-0.4926,135.4,98.3,0.467
20.2,31922.3,34712.3,-0.3153,-0.7088,135.4,98.3,0.467
20.22,31822.1,34672.0,-0.7288,-0.8078,135.4,98.3,0.467
20.24,31739.1,34610.5,-1.0717,-0.9592,135.4,98.3,0.467
20.26,31826.7,34641.1,-0.7101,-0.8839,135.4,98.3,0.467
20.28,31810.8,34483.2,-0.7755,-1.2719,135.4,98.3,0.467
20.3,31839.9,34482.5,-0.6556,-1.2738,135.4,98.3,0.467
20.32,31799.7,34364.3,-0.8213,-1.5642,135.4,98.3,0.467
20.34,31776.6,34489.5,-0.9169,-1.2565,135.4,98.3,0.467
20.36,31969.8,34731.7,-0.1191,-0.6612,135.4,98.3,0.467
20.38,32076.4,35093.3,0.321,0.2276,135.4,98.3,0.467
20.4,32247.5,35432.0,1.0277,1.0598,135.4,98.3,0.467
20.42,32285.3,35641.3,1.1839,1.5743,135.4,98.3,0.467
20.44,32324.5,35827.3,1.3455,2.0315,135.4,98.3,0.467
20.46,32299.2,35725.2,1.2411,1.7806,135.4,98.3,0.467
20.48,32152.4,35507.7,0.6349,1.2459,135.4,98.3,0.467
20.5,32053.0,35368.0,0.2246,0.9027,135.4,98.3,0.467
20.52,32076.8,35229.0,0.3227,0.561,135.4,98.3,0.467
20.54,31995.6,35149.2,-0.0127,0.3648,135.4,98.3,0.467
20.56,32000.6,35057.8,0.0082,0.1402,135.4,98.3,0.467
20.58,32026.8,34971.9,0.1162,-0.0709,135.4,98.3,0.467
20.6,31959.0,34903.6,-0.1636,-0.2388,135.4,98.3,0.467
20.62,31895.0,34796.7,-0.428,-0.5016,135.4,98.3,0.467
20.64,31861.3,34653.5,-0.5671,-0.8533,135.4,98.3,0.467
20.66,31811.0,34765.2,-0.7749,-0.579,135.4,98.3,0.467
20.68,31873.1,34662.6,-0.5183,-0.8311,135.4,98.3,0.467
20.7,31799.5,34612.8,-0.8223,-0.9535,135.4,98.3,0.467
20.72,31829.7,34619.2,-0.6975,-0.9378,135.4,98.3,0.467
20.74,31807.7,34576.2,-0.7885,-1.0434,135.4,98.3,0.467
20.76,31764.2,34453.8,-0.968,-1.3442,135.4,98.3,0.467
20.78,31781.1,34519.5,-0.8982,-1.1828,135.4,98.3,0.467
20.8,31865.7,34601.9,-0.5487,-0.9803,135.4,98.3,0.467
20.82,32079.2,34995.2,0.3328,-0.0137,135.4,98.3,0.467
20.84,32087.3,35361.0,0.3661,0.8853,135.4,98.3,0.467
20.86,32252.7,35525.0,1.0489,1.2884,135.4,98.3,0.467
20.88,32282.2,35767.2,1.1711,1.8837,135.4,98.3,0.467
20.9,32253.6,35688.7,1.0528,1.6908,135.4,98.3,0.467
20.92,32241.1,35498.7,1.0012,1.2239,135.4,98.3,0.467
20.94,32186.8,35462.8,0.7768,1.1355,135.4,98.3,0.467
20.96,32108.7,35302.1,0.4546,0.7407,135.4,98.3,0.467
20.98,32041.9,35038.7,0.1785,0.0933,135.4,98.3,0.467
21.0,32006.6,35069.9,0.0328,0.17,135.4,98.3,0.467
21.02,32005.1,35116.8,0.0266,0.2853,135.4,98.3,0.467
21.04,31895.8,34911.8,-0.4246,-0.2186,135.4,98.3,0.467
21.06,32014.9,34901.7,0.0671,-0.2435,135.4,98.3,0.467
21.08,31949.2,34734.2,-0.2042,-0.6552,135.4,98.3,0.467
21.1,31791.9,34709.4,-0.8536,-0.7161,135.4,98.3,0.467
21.12,31933.7,34639.9,-0.2681,-0.887,135.4,98.3,0.467
21.14,31912.3,34747.3,-0.3566,-0.6228,135.4,98.3,0.467
21.16,31821.2,34625.5,-0.7328,-0.9222,135.4,98.3,0.467
21.18,31763.9,34535.9,-0.9694,-1.1425,135.4,98.3,0.467
21.2,31826.7,34442.6,-0.71,-1.3718,135.4,98.3,0.467
21.22,31828.5,34512.3,-0.7026,-1.2005,135.4,98.3,0.467
21.24,31813.2,34616.0,-0.7659,-0.9455,135.4,98.3,0.467
21.26,32059.3,34909.1,0.2507,-0.2253,135.4,98.3,0.467
21.28,32078.9,35283.1,0.3316,0.6939,135.4,98.3,0.467
21.3,32232.6,35567.7,0.966,1.3934,135.4,98.3,0.467
21.32,32282.1,35816.1,1.1703,2.004,135.4,98.3,0.467
21.34,32317.1,35635.8,1.315,1.5609,135.4,98.3,0.467
21.36,32304.8,35567.2,1.2641,1.3921,135.4,98.3,0.467
21.38,32072.1,35390.1,0.3032,0.9571,135.4,98.3,0.467
21.4,32179.9,35202.1,0.7484,0.4949,135.4,98.3,0.467
21.42,32032.3,35149.8,0.139,0.3663,135.4,98.3,0.467
21.44,31989.4,35129.8,-0.038,0.3171,135.4,98.3,0.467
21.46,32106.5,35022.5,0.4455,0.0535,135.4,98.3,0.467
21.48,31972.9,34923.7,-0.1064,-0.1895,135.4,98.3,0.467
21.5,31971.3,34857.9,-0.113,-0.351,135.4,98.3,0.467
21.52,31880.1,34798.5,-0.4896,-0.497,135.4,98.3,0.467
21.54,31837.8,34647.0,-0.6641,-0.8693,135.4,98.3,0.467
21.56,31912.8,34696.2,-0.3544,-0.7485,135.4,98.3,0.467
21.58,31822.8,34661.3,-0.7259,-0.8342,135.4,98.3,0.467
21.6,31827.9,34599.7,-0.7048,-0.9857,135.4,98.3,0.467
21.62,31705.1,34567.2,-1.2122,-1.0655,135.4,98.3,0.467
21.64,31751.6,34522.3,-1.02,-1.1758,135.4,98.3,0.467
21.66,31848.1,34455.4,-0.6214,-1.3404,135.4,98.3,0.467
21.68,31920.1,34580.9,-0.3244,-1.0317,135.4,98.3,0.467
21.7,31938.1,34879.3,-0.2501,-0.2986,135.4,98.3,0.467
21.72,32098.8,35306.5,0.4137,0.7514,135.4,98.3,0.467
21.74,32313.3,35660.3,1.2995,1.6209,135.4,98.3,0.467
21.76,32290.6,35757.5,1.2057,1.8598,135.4,98.3,0.467
21.78,32397.7,35769.5,1.6477,1.8895,135.4,98.3,0.467
21.8,32240.0,35590.0,0.9966,1.4481,135.4,98.3,0.467
21.82,32057.3,35459.9,0.2424,1.1284,135.4,98.3,0.467
21.84,32103.8,35303.1,0.4343,0.7432,135.4,98.3,0.467
21.86,31960.8,35109.2,-0.1562,0.2665,135.4,98.3,0.467
21.88,32095.9,35134.0,0.4015,0.3275,135.4,98.3,0.467
21.9,32111.0,35020.9,0.4638,0.0496,135.4,98.3,0.467
21.92,32014.8,34966.7,0.0668,-0.0835,135.4,98.3,0.467
21.94,31940.6,34871.0,-0.2395,-0.3187,135.4,98.3,0.467
21.96,31863.2,34773.6,-0.5594,-0.5581,135.4,98.3,0.467
21.98,31832.5,34632.3,-0.686,-0.9055,135.4,98.3,0.467
22.0,31855.5,34662.3,-0.5912,-0.8318,135.4,98.3,0.467
22.02,31873.6,34602.3,-0.5161,-0.9793,135.4,98.3,0.467
22.04,31801.9,34556.7,-0.8122,-1.0912,135.4,98.3,0.467
22.06,31798.8,34583.2,-0.8254,-1.0261,135.4,98.3,0.467
22.08,31833.1,34518.4,-0.6837,-1.1855,135.4,98.3,0.467
22.1,31707.4,34415.3,-1.2027,-1.4388,135.4,98.3,0.467
22.12,31761.0,34561.0,-0.9813,-1.0807,135.4,98.3,0.467
22.14,31929.4,34844.9,-0.2861,-0.3831,135.4,98.3,0.467
22.16,32060.2,35169.4,0.2541,0.4145,135.4,98.3,0.467
22.18,32134.2,35512.3,0.5599,1.2572,135.4,98.3,0.467
22.2,32305.0,35783.3,1.2652,1.9234,135.4,98.3,0.467
22.22,32336.1,35804.2,1.3933,1.9748,135.4,98.3,0.467
22.24,32253.4,35616.8,1.0518,1.5141,135.4,98.3,0.467
22.26,32136.9,35494.7,0.5708,1.214,135.4,98.3,0.467
22.28,32026.1,35253.0,0.1134,0.6201,135.4,98.3,0.467
22.3,32033.6,35180.6,0.1444,0.442,135.4,98.3,0.467
22.32,31980.2,35150.9,-0.0763,0.3691,135.4,98.3,0.467
22.34,32023.4,35026.0,0.1022,0.0621,135.4,98.3,0.467
22.36,32012.9,34932.6,0.059,-0.1674,135.4,98.3,0.467
22.38,31914.9,34824.1,-0.3458,-0.4342,135.4,98.3,0.467
22.4,31928.2,34786.6,-0.2908,-0.5263,135.4,98.3,0.467
22.42,31928.8,34629.4,-0.2884,-0.9126,135.4,98.3,0.467
22.44,31883.3,34660.6,-0.4761,-0.8361,135.4,98.3,0.467
22.46,31844.0,34658.7,-0.6386,-0.8405,135.4,98.3,0.467
22.48,31844.3,34620.1,-0.6372,-0.9356,135.4,98.3,0.467
22.5,31792.2,34583.7,-0.8523,-1.025,135.4,98.3,0.467
22.52,31824.3,34477.8,-0.7199,-1.2851,135.4,98.3,0.467
22.54,31771.4,34418.9,-0.9382,-1.4301,135.4,98.3,0.467
22.56,31764.5,34454.1,-0.9668,-1.3434,135.4,98.3,0.467
22.58,31897.4,34794.8,-0.4179,-0.5061,135.4,98.3,0.467
22.6,32014.6,35090.8,0.0659,0.2213,135.4,98.3,0.467
22.62,32148.1,35462.4,0.6171,1.1347,135.4,98.3,0.467
22.64,32249.2,35647.0,1.0346,1.5883,135.4,98.3,0.467
22.66,32291.4,35748.6,1.209,1.8379,135.4,98.3,0.467
22.68,32255.9,35680.4,1.0625,1.6704,135.4,98.3,0.467
22.7,32180.6,35463.5,0.7512,1.1373,135.4,98.3,0.467
22.72,32185.0,35342.9,0.7695,0.841,135.4,98.3,0.467
22.74,32155.3,35165.4,0.6468,0.4048,135.4,98.3,0.467
22.76,31994.7,35110.6,-0.0164,0.27,135.4,98.3,0.467
22.78,32005.4,35071.8,0.0278,0.1747,135.4,98.3,0.467
22.8,31996.7,35043.9,-0.0079,0.106,135.4,98.3,0.467
22.82,31904.0,34821.4,-0.3907,-0.4407,135.4,98.3,0.467
22.84,31899.0,34779.7,-0.4115,-0.5432,135.4,98.3,0.467
22.86,31918.1,34692.9,-0.3325,-0.7567,135.4,98.3,0.467
22.88,31775.3,34739.8,-0.9224,-0.6412,135.4,98.3,0.467
22.9,31900.8,34672.5,-0.4041,-0.8067,135.4,98.3,0.467
22.92,31929.4,34689.0,-0.286,-0.7663,135.4,98.3,0.467
22.94,31846.5,34503.2,-0.6284,-1.2229,135.4,98.3,0.467
22.96,31815.5,34429.2,-0.7564,-1.4046,135.4,98.3,0.467
22.98,31740.6,34537.4,-1.0654,-1.1388,135.4,98.3,0.467
23.0,31800.7,34539.0,-0.8174,-1.1347,135.4,98.3,0.467
23.02,31962.5,34779.0,-0.1494,-0.545,135.4,98.3,0.467
23.04,32041.7,35139.2,0.1779,0.3402,135.4,98.3,0.467
23.06,32228.0,35430.5,0.9472,1.0561,135.4,98.3,0.467
23.08,32338.5,35667.0,1.4034,1.6374,135.4,98.3,0.467
23.1,32382.6,35789.2,1.5855,1.9379,135.4,98.3,0.467
23.12,32269.0,35726.4,1.1164,1.7834,135.4,98.3,0.467
23.14,32219.9,35462.8,0.9137,1.1356,135.4,98.3,0.467
23.16,32206.9,35255.5,0.8599,0.6261,135.4,98.3,0.467
23.18,32200.1,35255.7,0.832,0.6267,135.4,98.3,0.467
23.2,32140.6,35185.6,0.5863,0.4543,135.4,98.3,0.467
23.22,32016.7,34999.6,0.0748,-0.0027,135.4,98.3,0.467
23.24,31972.4,34956.5,-0.1084,-0.1087,135.4,98.3,0.467
23.26,31949.6,34900.3,-0.2026,-0.2469,135.4,98.3,0.467
23.28,32016.8,34809.1,0.0749,-0.471,135.4,98.3,0.467
23.3,31955.8,34692.9,-0.1769,-0.7566,135.4,98.3,0.467
23.32,31945.1,34775.1,-0.2212,-0.5544,135.4,98.3,0.467
23.34,31807.9,34627.0,-0.7874,-0.9184,135.4,98.3,0.467
23.36,31923.2,34669.6,-0.3113,-0.8138,135.4,98.3,0.467
23.38,31768.9,34458.3,-0.9486,-1.3331,135.4,98.3,0.467
23.4,31753.3,34529.7,-1.0132,-1.1576,135.4,98.3,0.467
23.42,31762.6,34432.3,-0.9747,-1.3971,135.4,98.3,0.467
23.44,31781.6,34460.7,-0.896,-1.3273,135.4,98.3,0.467
23.46,31845.0,34699.7,-0.6342,-0.7399,135.4,98.3,0.467
23.48,31957.7,34931.1,-0.1691,-0.1711,135.4,98.3,0.467
23.5,32094.5,35426.6,0.3957,1.0466,135.4,98.3,0.467
23.52,32251.4,35679.1,1.0436,1.6672,135.4,98.3,0.467
23.54,32283.8,35750.7,1.1776,1.8431,135.4,98.3,0.467
23.56,32226.8,35752.5,0.942,1.8477,135.4,98.3,0.467
23.58,32152.5,35609.1,0.6354,1.4952,135.4,98.3,0.467
23.6,32124.9,35265.3,0.5213,0.6502,135.4,98.3,0.467
23.62,32081.0,35060.5,0.3399,0.1468,135.4,98.3,0.467
23.64,32109.0,35036.8,0.4555,0.0887,135.4,98.3,0.467
23.66,31977.0,35124.2,-0.0894,0.3034,135.4,98.3,0.467
23.68,31971.5,34930.6,-0.1122,-0.1723,135.4,98.3,0.467
23.7,32073.0,34871.9,0.3071,-0.3166,135.4,98.3,0.467
23.72,31988.5,34809.2,-0.0418,-0.4708,135.4,98.3,0.467
23.74,31834.1,34711.9,-0.6794,-0.7099,135.4,98.3,0.467
23.76,31845.5,34731.8,-0.6323,-0.6609,135.4,98.3,0.467
23.78,31859.6,34647.9,-0.5741,-0.8671,135.4,98.3,0.467
23.8,31832.0,34665.9,-0.688,-0.8229,135.4,98.3,0.467
23.82,31881.8,34592.5,-0.4825,-1.0033,135.4,98.3,0.467
23.84,31638.5,34532.8,-1.4872,-1.1501,135.4,98.3,0.467
23.86,31782.1,34544.6,-0.8942,-1.1211,135.4,98.3,0.467
23.88,31762.1,34510.8,-0.9768,-1.2042,135.4,98.3,0.467
23.9,31816.2,34667.7,-0.7532,-0.8186,135.4,98.3,0.467
23.92,32052.3,34948.2,0.2217,-0.1292,135.4,98.3,0.467
23.94,32097.7,35321.2,0.409,0.7875,135.4,98.3,0.467
23.96,32310.8,35654.6,1.2889,1.6071,135.4,98.3,0.467
23.98,32330.9,35707.1,1.3722,1.7361,135.4,98.3,0.467
24.0,32311.6,35641.3,1.2924,1.5743,135.4,98.3,0.467
24.02,32297.9,35629.1,1.2357,1.5444,135.4,98.3,0.467
24.04,32130.9,35414.5,0.5462,1.017,135.4,98.3,0.467
24.06,32176.9,35302.3,0.7362,0.7412,135.4,98.3,0.467
24.08,32013.6,35167.4,0.0619,0.4096,135.4,98.3,0.467
24.1,32062.3,35098.6,0.2628,0.2406,135.4,98.3,0.467
24.12,31966.2,34971.8,-0.1339,-0.0712,135.4,98.3,0.467
24.14,31928.5,34881.0,-0.2896,-0.2942,135.4,98.3,0.467
24.16,31985.6,34896.4,-0.0538,-0.2564,135.4,98.3,0.467
24.18,31970.1,34764.4,-0.1177,-0.581,135.4,98.3,0.467
24.2,31862.4,34670.4,-0.5624,-0.8118,135.4,98.3,0.467
24.22,31838.6,34670.4,-0.6608,-0.8118,135.4,98.3,0.467
24.24,31869.6,34627.1,-0.5329,-0.9182,135.4,98.3,0.467
24.26,31910.5,34580.5,-0.3639,-1.0329,135.4,98.3,0.467
24.28,31896.4,34523.2,-0.422,-1.1736,135.4,98.3,0.467
24.3,31732.7,34478.7,-1.0981,-1.283,135.4,98.3,0.467
24.32,31696.8,34479.4,-1.2462,-1.2813,135.4,98.3,0.467
24.34,31833.8,34628.9,-0.6807,-0.9139,135.4,98.3,0.467
24.36,32061.3,34846.7,0.259,-0.3785,135.4,98.3,0.467
24.38,32071.3,35163.3,0.2999,0.3995,135.4,98.3,0.467
24.4,32265.3,35564.5,1.101,1.3857,135.4,98.3,0.467
24.42,32228.1,35756.7,0.9473,1.858,135.4,98.3,0.467
24.44,32266.4,35751.4,1.1055,1.8449,135.4,98.3,0.467
24.46,32166.2,35565.9,0.692,1.3889,135.4,98.3,0.467
24.48,32165.1,35408.7,0.6873,1.0026,135.4,98.3,0.467
24.5,32081.3,35235.8,0.3413,0.5778,135.4,98.3,0.467
24.52,32131.5,35098.5,0.5485,0.2402,135.4,98.3,0.467
24.54,32069.0,35033.6,0.2906,0.0807,135.4,98.3,0.467
24.56,32062.9,35077.7,0.2654,0.1892,135.4,98.3,0.467
24.58,31876.1,35030.1,-0.5058,0.0721,135.4,98.3,0.467
24.6,31978.5,34899.6,-0.083,-0.2485,135.4,98.3,0.467
24.62,31948.6,34834.7,-0.2068,-0.4081,135.4,98.3,0.467
24.64,31873.3,34740.5,-0.5177,-0.6397,135.4,98.3,0.467
24.66,31834.1,34639.3,-0.6794,-0.8883,135.4,98.3,0.467
24.68,31836.0,34716.6,-0.6715,-0.6984,135.4,98.3,0.467
24.7,31748.9,34602.1,-1.0312,-0.9796,135.4,98.3,0.467
24.72,31851.2,34397.9,-0.6089,-1.4817,135.4,98.3,0.467
24.74,31805.8,34491.5,-0.7963,-1.2515,135.4,98.3,0.467
24.76,31764.2,34404.9,-0.9679,-1.4644,135.4,98.3,0.467
24.78,31858.6,34471.2,-0.5781,-1.3016,135.4,98.3,0.467
24.8,32013.1,34825.7,0.0595,-0.4301,135.4,98.3,0.467
24.82,32090.9,35237.1,0.381,0.5809,135.4,98.3,0.467
24.84,32198.4,35499.7,0.8247,1.2262,135.4,98.3,0.467
24.86,32279.9,35712.5,1.1616,1.7494,135.4,98.3,0.467
24.88,32326.6,35724.5,1.3542,1.7789,135.4,98.3,0.467
24.9,32277.6,35635.9,1.152,1.5609,135.4,98.3,0.467
24.92,32156.3,35369.4,0.6508,0.9061,135.4,98.3,0.467
24.94,32169.7,35216.9,0.7062,0.5313,135.4,98.3,0.467
24.96,32011.8,35157.0,0.0542,0.384,135.4,98.3,0.467
24.98,32078.8,35143.3,0.3309,0.3503,135.4,98.3,0.467
25.0,31979.7,35115.4,-0.0784,0.2817,135.4,98.3,0.467
25.02,31921.9,34989.8,-0.3168,-0.0268,135.4,98.3,0.467
25.04,31901.6,34908.2,-0.4008,-0.2274,135.4,98.3,0.467
25.06,31769.9,34830.5,-0.9447,-0.4184,135.4,98.3,0.467
25.08,31833.5,34692.6,-0.682,-0.7574,135.4,98.3,0.467
25.1,31875.7,34602.2,-0.5075,-0.9794,135.4,98.3,0.467
25.12,31929.4,34657.8,-0.286,-0.8429,135.4,98.3,0.467
25.14,31875.8,34639.2,-0.5071,-0.8885,135.4,98.3,0.467
25.16,31783.5,34566.3,-0.8882,-1.0678,135.4,98.3,0.467
25.18,31749.8,34486.7,-1.0273,-1.2634,135.4,98.3,0.467
25.2,31796.7,34424.0,-0.8339,-1.4174,135.4,98.3,0.467
25.22,31760.2,34567.8,-0.9844,-1.064,135.4,98.3,0.467
25.24,31919.9,34747.5,-0.3251,-0.6223,135.4,98.3,0.467
25.26,32140.9,35139.0,0.5873,0.3397,135.4,98.3,0.467
25.28,32166.0,35553.6,0.691,1.3586,135.4,98.3,0.467
25.3,32255.6,35731.5,1.0609,1.796,135.4,98.3,0.467
25.32,32254.0,35717.8,1.0546,1.7622,135.4,98.3,0.467
25.34,32214.6,35712.9,0.8917,1.7503,135.4,98.3,0.467
25.36,32192.0,35411.5,0.7984,1.0094,135.4,98.3,0.467
25.38,32067.4,35231.0,0.2838,0.5658,135.4,98.3,0.467
25.4,32036.4,35155.8,0.156,0.381,135.4,98.3,0.467
25.42,32083.5,35018.3,0.3506,0.0432,135.4,98.3,0.467
25.44,32081.6,35031.0,0.3425,0.0744,135.4,98.3,0.467
25.46,32028.0,34906.8,0.1212,-0.231,135.4,98.3,0.467
25.48,31953.3,34983.2,-0.1873,-0.043,135.4,98.3,0.467
25.5,31953.7,34863.0,-0.1854,-0.3385,135.4,98.3,0.467
25.52,31948.3,34672.0,-0.2078,-0.8079,135.4,98.3,0.467
25.54,31838.2,34717.4,-0.6624,-0.6964,135.4,98.3,0.467
25.56,31873.4,34692.1,-0.5173,-0.7587,135.4,98.3,0.467
25.58,31921.3,34705.0,-0.3194,-0.7268,135.4,98.3,0.467
25.6,31806.6,34553.3,-0.7931,-1.0996,135.4,98.3,0.467
25.62,31844.5,34464.5,-0.6365,-1.3178,135.4,98.3,0.467
25.64,31790.7,34450.7,-0.8586,-1.3518,135.4,98.3,0.467
25.66,31703.7,34535.4,-1.218,-1.1436,135.4,98.3,0.467
25.68,31904.5,34677.5,-0.3888,-0.7943,135.4,98.3,0.467
25.7,32059.8,35056.3,0.2526,0.1365,135.4,98.3,0.467
25.72,32184.2,35400.4,0.7664,0.9823,135.4,98.3,0.467
25.74,32198.3,35623.0,0.8246,1.5293,135.4,98.3,0.467
25.76,32255.2,35817.2,1.0592,2.0066,135.4,98.3,0.467
25.78,32217.5,35715.3,0.9037,1.7562,135.4,98.3,0.467
25.8,32314.5,35570.9,1.3044,1.4014,135.4,98.3,0.467
25.82,32113.4,35256.9,0.4738,0.6295,135.4,98.3,0.467
25.84,32108.4,35041.0,0.4534,0.0989,135.4,98.3,0.467
25.86,32043.4,34974.6,0.185,-0.0643,135.4,98.3,0.467
25.88,32023.9,35029.3,0.1042,0.0703,135.4,98.3,0.467
25.9,32024.2,34980.8,0.1056,-0.0489,135.4,98.3,0.467
25.92,31850.5,34864.6,-0.6117,-0.3347,135.4,98.3,0.467
25.94,31880.0,34706.6,-0.4897,-0.7228,135.4,98.3,0.467
25.96,31838.8,34756.4,-0.6598,-0.6005,135.4,98.3,0.467
25.98,31851.8,34615.9,-0.6063,-0.9459,135.4,98.3,0.467
26.0,31787.4,34685.2,-0.872,-0.7756,135.4,98.3,0.467
26.02,31870.8,34659.7,-0.5279,-0.8382,135.4,98.3,0.467
26.04,31744.1,34750.9,-1.0512,-0.614,135.4,98.3,0.467
26.06,31743.6,34528.7,-1.0531,-1.1602,135.4,98.3,0.467
26.08,31716.3,34425.7,-1.166,-1.4133,135.4,98.3,0.467
26.1,31866.4,34495.6,-0.5462,-1.2414,135.4,98.3,0.467
26.12,31950.4,34653.6,-0.1993,-0.853,135.4,98.3,0.467
26.14,32115.8,35083.8,0.484,0.2041,135.4,98.3,0.467
26.16,32171.5,35345.8,0.714,0.8479,135.4,98.3,0.467
26.18,32283.1,35635.1,1.1747,1.559,135.4,98.3,0.467
26.2,32359.1,35685.2,1.4885,1.6823,135.4,98.3,0.467
26.22,32255.4,35718.5,1.0603,1.7639,135.4,98.3,0.467
26.24,32252.3,35539.5,1.0476,1.3242,135.4,98.3,0.467
26.26,32130.6,35360.3,0.5447,0.8836,135.4,98.3,0.467
26.28,32088.6,35235.5,0.3715,0.5769,135.4,98.3,0.467
26.3,32058.9,35138.9,0.249,0.3396,135.4,98.3,0.467
26.32,32016.2,35065.2,0.0726,0.1585,135.4,98.3,0.467
26.34,31956.8,34955.2,-0.1728,-0.1119,135.4,98.3,0.467
26.36,32009.2,34977.7,0.0438,-0.0567,135.4,98.3,0.467
26.38,31956.3,34807.1,-0.1747,-0.4758,135.4,98.3,0.467
26.4,31873.9,34627.0,-0.5152,-0.9186,135.4,98.3,0.467
26.42,31818.3,34603.7,-0.7446,-0.9758,135.4,98.3,0.467
26.44,31818.5,34581.2,-0.7439,-1.031,135.4,98.3,0.467
26.46,31830.4,34695.7,-0.6946,-0.7497,135.4,98.3,0.467
26.48,31851.1,34559.9,-0.6091,-1.0835,135.4,98.3,0.467
26.5,31662.5,34516.3,-1.3882,-1.1907,135.4,98.3,0.467
26.52,31678.3,34489.4,-1.3227,-1.2567,135.4,98.3,0.467
26.54,31833.5,34465.6,-0.6818,-1.3152,135.4,98.3,0.467
26.56,31868.4,34673.2,-0.5379,-0.8051,135.4,98.3,0.467
26.58,31924.1,35009.9,-0.3078,0.0226,135.4,98.3,0.467
26.6,32121.9,35311.3,0.5091,0.7632,135.4,98.3,0.467
26.62,32293.0,35561.3,1.2154,1.3777,135.4,98.3,0.467
26.64,32325.8,35754.8,1.3509,1.8532,135.4,98.3,0.467
26.66,32329.5,35761.9,1.3662,1.8706,135.4,98.3,0.467
26.68,32178.7,35588.9,0.7435,1.4455,135.4,98.3,0.467
26.7,32160.2,35350.4,0.6671,0.8595,135.4,98.3,0.467
26.72,32144.3,35258.0,0.6014,0.6323,135.4,98.3,0.467
26.74,32006.7,35136.5,0.0333,0.3336,135.4,98.3,0.467
26.76,32006.3,35092.4,0.0316,0.2253,135.4,98.3,0.467
26.78,32098.4,34980.0,0.4117,-0.0509,135.4,98.3,0.467
26.8,32016.5,34945.9,0.0736,-0.1348,135.4,98.3,0.467
26.82,31964.7,34746.9,-0.1399,-0.6238,135.4,98.3,0.467
26.84,31929.2,34679.7,-0.2866,-0.7891,135.4,98.3,0.467
26.86,31817.6,34644.7,-0.7477,-0.875,135.4,98.3,0.467
26.88,31813.6,34628.6,-0.764,-0.9146,135.4,98.3,0.467
26.9,31880.0,34655.6,-0.49,-0.8483,135.4,98.3,0.467
26.92,31773.8,34648.0,-0.9284,-0.8669,135.4,98.3,0.467
26.94,31789.7,34594.0,-0.8628,-0.9995,135.4,98.3,0.467
26.96,31690.6,34414.6,-1.2718,-1.4405,135.4,98.3,0.467
26.98,31766.6,34412.1,-0.9583,-1.4467,135.4,98.3,0.467
27.0,31871.5,34670.0,-0.525,-0.8129,135.4,98.3,0.467
27.02,31922.7,34923.8,-0.3135,-0.189,135.4,98.3,0.467
27.04,32158.9,35357.8,0.6618,0.8776,135.4,98.3,0.467
27.06,32312.9,35570.6,1.2978,1.4006,135.4,98.3,0.467
27.08,32277.7,35736.4,1.1522,1.8081,135.4,98.3,0.467
27.1,32324.8,35764.9,1.3467,1.8782,135.4,98.3,0.467
27.12,32236.6,35597.4,0.9826,1.4664,135.4,98.3,0.467
27.14,32128.5,35421.8,0.5363,1.0348,135.4,98.3,0.467
27.16,32132.5,35267.5,0.5526,0.6556,135.4,98.3,0.467
27.18,31992.6,35161.4,-0.0249,0.3949,135.4,98.3,0.467
27.2,32094.6,35035.8,0.3962,0.0862,135.4,98.3,0.467
27.22,32017.1,35050.9,0.0764,0.1234,135.4,98.3,0.467
27.24,31952.0,35000.4,-0.1928,-0.0009,135.4,98.3,0.467
27.26,31932.7,34800.6,-0.2724,-0.4919,135.4,98.3,0.467
27.28,32052.6,34732.4,0.2227,-0.6596,135.4,98.3,0.467
27.3,31942.4,34586.0,-0.2322,-1.0193,135.4,98.3,0.467
27.32,31879.4,34634.7,-0.4922,-0.8996,135.4,98.3,0.467
27.34,31865.2,34674.5,-0.5512,-0.8017,135.4,98.3,0.467
27.36,31829.4,34614.0,-0.6986,-0.9505,135.4,98.3,0.467
27.38,31780.9,34540.9,-0.8989,-1.1303,135.4,98.3,0.467
27.4,31813.3,34453.6,-0.7652,-1.3447,135.4,98.3,0.467
27.42,31772.3,34501.7,-0.9345,-1.2266,135.4,98.3,0.467
27.44,31825.3,34634.8,-0.7159,-0.8994,135.4,98.3,0.467
27.46,31917.8,34850.7,-0.3336,-0.3688,135.4,98.3,0.467
27.48,32090.0,35169.3,0.3771,0.4142,135.4,98.3,0.467
27.5,32192.2,35529.0,0.7993,1.2982,135.4,98.3,0.467
27.52,32343.3,35727.3,1.4232,1.7856,135.4,98.3,0.467
27.54,32392.2,35787.9,1.6252,1.9346,135.4,98.3,0.467
27.56,32182.2,35639.2,0.7581,1.5692,135.4,98.3,0.467
27.58,32237.1,35463.6,0.9847,1.1375,135.4,98.3,0.467
27.6,32114.9,35247.8,0.48,0.6072,135.4,98.3,0.467
27.62,32053.7,35155.5,0.2274,0.3803,135.4,98.3,0.467
27.64,32075.0,35100.3,0.3153,0.2447,135.4,98.3,0.467
27.66,31986.9,35073.7,-0.0485,0.1794,135.4,98.3,0.467
27.68,32014.2,34996.5,0.0642,-0.0105,135.4,98.3,0.467
27.7,31896.7,34842.2,-0.4209,-0.3896,135.4,98.3,0.467
27.72,31973.7,34776.6,-0.1029,-0.5509,135.4,98.3,0.467
27.74,31834.9,34730.5,-0.6761,-0.6642,135.4,98.3,0.467
27.76,31986.9,34719.9,-0.0483,-0.6903,135.4,98.3,0.467
27.78,31822.7,34724.4,-0.7267,-0.6791,135.4,98.3,0.467
27.8,31776.0,34467.9,-0.9193,-1.3096,135.4,98.3,0.467
27.82,31890.7,34524.1,-0.4456,-1.1713,135.4,98.3,0.467
27.84,31677.8,34498.5,-1.3248,-1.2345,135.4,98.3,0.467
27.86,31737.0,34424.5,-1.0805,-1.4161,135.4,98.3,0.467
27.88,31878.9,34488.7,-0.4944,-1.2585,135.4,98.3,0.467
27.9,31882.6,34912.5,-0.4791,-0.2169,135.4,98.3,0.467
27.92,32057.7,35154.9,0.2439,0.379,135.4,98.3,0.467
27.94,32143.1,35535.9,0.5967,1.3152,135.4,98.3,0.467
27.96,32248.4,35831.7,1.0312,2.0424,135.4,98.3,0.467
27.98,32266.6,35721.1,1.1064,1.7704,135.4,98.3,0.467
28.0,32310.7,35714.0,1.2887,1.7529,135.4,98.3,0.467
28.02,32177.9,35459.4,0.7401,1.1273,135.4,98.3,0.467
28.04,32081.9,35247.5,0.3439,0.6065,135.4,98.3,0.467
28.06,32101.3,35164.3,0.4239,0.4019,135.4,98.3,0.467
28.08,31977.9,35081.4,-0.0856,0.1983,135.4,98.3,0.467
28.1,32095.9,34992.8,0.4018,-0.0196,135.4,98.3,0.467
28.12,32051.3,35014.6,0.2173,0.0341,135.4,98.3,0.467
28.14,31984.3,34816.8,-0.0592,-0.452,135.4,98.3,0.467
28.16,31923.0,34876.3,-0.3121,-0.3058,135.4,98.3,0.467
28.18,31891.5,34687.9,-0.4424,-0.7688,135.4,98.3,0.467
28.2,31806.2,34663.7,-0.7945,-0.8284,135.4,98.3,0.467
28.22,31941.2,34744.1,-0.2371,-0.6309,135.4,98.3,0.467
28.24,31892.4,34581.0,-0.4387,-1.0315,135.4,98.3,0.467
28.26,31884.4,34570.4,-0.4715,-1.0575,135.4,98.3,0.467
28.28,31734.2,34522.3,-1.092,-1.176,135.4,98.3,0.467
28.3,31760.8,34432.3,-0.982,-1.3971,135.4,98.3,0.467
28.32,31749.4,34598.8,-1.0289,-0.9879,135.4,98.3,0.467
28.34,31905.5,34735.9,-0.3845,-0.6508,135.4,98.3,0.467
28.36,32188.7,35084.7,0.7846,0.2063,135.4,98.3,0.467
28.38,32264.0,35493.4,1.0958,1.2108,135.4,98.3,0.467
28.4,32229.0,35692.3,0.9513,1.6996,135.4,98.3,0.467
28.42,32312.8,35724.8,1.2971,1.7796,135.4,98.3,0.467
28.44,32221.2,35702.9,0.9189,1.7256,135.4,98.3,0.467
28.46,32150.0,35479.8,0.6251,1.1775,135.4,98.3,0.467
28.48,32156.4,35281.4,0.6514,0.6899,135.4,98.3,0.467
28.5,32076.6,35178.5,0.3219,0.4369,135.4,98.3,0.467
28.52,32036.5,35051.9,0.1565,0.1257,135.4,98.3,0.467
28.54,32058.2,35126.9,0.2459,0.31,135.4,98.3,0.467
28.56,32066.6,34974.4,0.2807,-0.0646,135.4,98.3,0.467
28.58,31923.0,34939.3,-0.3124,-0.151,135.4,98.3,0.467
28.6,31891.2,34795.8,-0.4438,-0.5038,135.4,98.3,0.467
28.62,31851.4,34621.9,-0.6079,-0.9311,135.4,98.3,0.467
28.64,31752.0,34729.3,-1.0182,-0.6672,135.4,98.3,0.467
28.66,31817.5,34643.3,-0.7479,-0.8784,135.4,98.3,0.467
28.68,31787.2,34593.4,-0.873,-1.0012,135.4,98.3,0.467
28.7,31825.3,34525.2,-0.7157,-1.1688,135.4,98.3,0.467
28.72,31733.9,34479.4,-1.0932,-1.2813,135.4,98.3,0.467
28.74,31782.6,34433.8,-0.8919,-1.3934,135.4,98.3,0.467
28.76,31805.9,34442.9,-0.7959,-1.3711,135.4,98.3,0.467
28.78,31876.0,34679.0,-0.5064,-0.7908,135.4,98.3,0.467
28.8,32033.0,35097.4,0.142,0.2375,135.4,98.3,0.467
28.82,32138.8,35439.8,0.5789,1.079,135.4,98.3,0.467
28.84,32322.2,35674.6,1.3361,1.6562,135.4,98.3,0.467
28.86,32256.7,35741.7,1.0656,1.821,135.4,98.3,0.467
28.88,32313.9,35716.5,1.3019,1.7592,135.4,98.3,0.467
28.9,32237.3,35507.1,0.9855,1.2446,135.4,98.3,0.467
28.92,32148.8,35397.4,0.62,0.9748,135.4,98.3,0.467
28.94,32036.5,35203.7,0.1565,0.4987,135.4,98.3,0.467
28.96,32027.7,35233.0,0.1201,0.5709,135.4,98.3,0.467
28.98,32005.0,35108.3,0.0264,0.2644,135.4,98.3,0.467
29.0,32001.7,34941.2,0.0127,-0.1462,135.4,98.3,0.467
29.02,32013.5,34913.9,0.0614,-0.2135,135.4,98.3,0.467
29.04,31884.6,34774.1,-0.471,-0.5571,135.4,98.3,0.467
29.06,31847.2,34672.9,-0.6254,-0.8057,135.4,98.3,0.467
29.08,31857.0,34631.3,-0.585,-0.9079,135.4,98.3,0.467
29.1,31842.2,34614.7,-0.6458,-0.9487,135.4,98.3,0.467
29.12,31935.0,34612.3,-0.2627,-0.9547,135.4,98.3,0.467
29.14,31837.9,34491.9,-0.6638,-1.2506,135.4,98.3,0.467
29.16,31799.7,34416.2,-0.8214,-1.4366,135.4,98.3,0.467
29.18,31902.9,34457.9,-0.3954,-1.3343,135.4,98.3,0.467
29.2,31803.3,34500.2,-0.8065,-1.2302,135.4,98.3,0.467
29.22,31795.2,34717.4,-0.8401,-0.6964,135.4,98.3,0.467
29.24,31958.5,35037.2,-0.1658,0.0896,135.4,98.3,0.467
29.26,32222.2,35385.8,0.9231,0.9464,135.4,98.3,0.467
29.28,32328.9,35590.8,1.3636,1.4502,135.4,98.3,0.467
29.3,32223.8,35698.1,0.9299,1.714,135.4,98.3,0.467
29.32,32337.8,35655.1,1.4004,1.6082,135.4,98.3,0.467
29.34,32312.2,35599.9,1.2948,1.4726,135.4,98.3,0.467
29.36,32167.2,35344.3,0.696,0.8443,135.4,98.3,0.467
29.38,32076.8,35301.4,0.3229,0.7391,135.4,98.3,0.467
29.4,32097.3,35121.2,0.4076,0.2961,135.4,98.3,0.467
29.42,32039.5,35000.8,0.1686,0.0001,135.4,98.3,0.467
29.44,32128.4,34994.3,0.536,-0.0159,135.4,98.3,0.467
29.46,31961.6,34869.7,-0.1531,-0.322,135.4,98.3,0.467
29.48,31896.1,34807.7,-0.4232,-0.4744,135.4,98.3,0.467
29.5,31845.8,34707.2,-0.6312,-0.7214,135.4,98.3,0.467
29.52,31940.5,34647.8,-0.24,-0.8674,135.4,98.3,0.467
29.54,31898.6,34646.8,-0.4132,-0.8699,135.4,98.3,0.467
29.56,31869.2,34656.3,-0.5346,-0.8466,135.4,98.3,0.467
29.58,31885.6,34616.9,-0.4668,-0.9433,135.4,98.3,0.467
29.6,31811.6,34471.5,-0.7725,-1.3008,135.4,98.3,0.467
29.62,31707.4,34444.2,-1.2027,-1.3678,135.4,98.3,0.467
29.64,31835.0,34476.6,-0.6758,-1.2882,135.4,98.3,0.467
29.66,31921.2,34571.8,-0.3197,-1.0541,135.4,98.3,0.467
29.68,31933.4,34985.1,-0.2695,-0.0385,135.4,98.3,0.467
29.7,32187.2,35348.7,0.7786,0.8552,135.4,98.3,0.467
29.72,32201.9,35640.3,0.8391,1.5718,135.4,98.3,0.467
29.74,32383.0,35776.8,1.5873,1.9073,135.4,98.3,0.467
29.76,32335.6,35672.7,1.3914,1.6516,135.4,98.3,0.467
29.78,32253.8,35683.2,1.0537,1.6772,135.4,98.3,0.467
29.8,32160.4,35349.3,0.6678,0.8566,135.4,98.3,0.467
29.82,32093.3,35272.7,0.3907,0.6685,135.4,98.3,0.467
29.84,32012.1,35143.9,0.0555,0.3519,135.4,98.3,0.467
29.86,32113.0,35047.2,0.472,0.1142,135.4,98.3,0.467
29.88,32006.1,35018.3,0.031,0.0433,135.4,98.3,0.467
29.9,32010.0,34978.8,0.0468,-0.054,135.4,98.3,0.467
29.92,31983.4,34841.1,-0.063,-0.3923,135.4,98.3,0.467
29.94,31981.0,34684.8,-0.0727,-0.7766,135.4,98.3,0.467
29.96,31885.0,34696.2,-0.4692,-0.7484,135.4,98.3,0.467
29.98,31902.1,34660.1,-0.3986,-0.8372,135.4,98.3,0.467
30.0,31873.3,34555.2,-0.5175,-1.095,135.4,98.3,0.467
30.02,31867.2,34689.4,-0.5429,-0.7653,135.4,98.3,0.467
30.04,31807.9,34484.5,-0.7877,-1.2687,135.4,98.3,0.467
30.06,31868.8,34542.2,-0.5363,-1.1268,135.4,98.3,0.467
30.08,31756.2,34494.7,-1.001,-1.2436,135.4,98.3,0.467
30.1,31822.0,34616.3,-0.7295,-0.9448,135.4,98.3,0.467
30.12,31937.3,34853.0,-0.2532,-0.3631,135.4,98.3,0.467
30.14,32075.3,35297.4,0.3167,0.7291,135.4,98.3,0.467
30.16,32169.1,35541.4,0.704,1.3288,135.4,98.3,0.467
30.18,32382.4,35761.2,1.5848,1.8691,135.4,98.3,0.467
30.2,32398.5,35752.4,1.6512,1.8474,135.4,98.3,0.467
30.22,32229.8,35635.7,0.9545,1.5606,135.4,98.3,0.467
30.24,32142.5,35471.6,0.5941,1.1572,135.4,98.3,0.467
30.26,32176.9,35240.5,0.7362,0.5892,135.4,98.3,0.467
30.28,32020.9,35122.8,0.0917,0.2999,135.4,98.3,0.467
30.3,32109.8,35042.9,0.4591,0.1036,135.4,98.3,0.467
30.32,32005.7,35045.2,0.0294,0.1092,135.4,98.3,0.467
30.34,31990.4,34894.0,-0.034,-0.2624,135.4,98.3,0.467
30.36,31912.0,34887.5,-0.3579,-0.2784,135.4,98.3,0.467
30.38,31937.3,34830.4,-0.2534,-0.4187,135.4,98.3,0.467
30.4,31907.0,34666.9,-0.3782,-0.8205,135.4,98.3,0.467
30.42,31871.8,34786.8,-0.5237,-0.5258,135.4,98.3,0.467
30.44,32049.4,34704.5,0.2097,-0.728,135.4,98.3,0.467
30.46,31784.1,34554.9,-0.8857,-1.0958,135.4,98.3,0.467
30.48,31759.1,34627.1,-0.989,-0.9182,135.4,98.3,0.467
30.5,31830.4,34421.4,-0.6946,-1.4238,135.4,98.3,0.467
30.52,31742.3,34469.6,-1.0586,-1.3053,135.4,98.3,0.467
30.54,31785.2,34562.8,-0.8813,-1.0764,135.4,98.3,0.467
30.56,31951.3,34887.4,-0.1955,-0.2785,135.4,98.3,0.467
30.58,32136.8,35112.9,0.5705,0.2756,135.4,98.3,0.467
30.6,32233.6,35512.2,0.9701,1.257,135.4,98.3,0.467
30.62,32314.4,35668.8,1.304,1.642,135.4,98.3,0.467
30.64,32295.4,35770.1,1.2254,1.8909,135.4,98.3,0.467
30.66,32348.5,35727.3,1.4447,1.7856,135.4,98.3,0.467
30.68,32212.5,35405.2,0.8831,0.994,135.4,98.3,0.467
30.7,32138.6,35388.4,0.5778,0.9529,135.4,98.3,0.467
30.72,31996.7,35216.3,-0.008,0.5298,135.4,98.3,0.467
30.74,32109.4,35045.8,0.4573,0.1108,135.4,98.3,0.467
30.76,32012.7,35064.1,0.0581,0.1558,135.4,98.3,0.467
30.78,31949.5,35058.7,-0.2031,0.1424,135.4,98.3,0.467
30.8,31992.0,34906.8,-0.0274,-0.2309,135.4,98.3,0.467
30.82,31949.1,34776.5,-0.2046,-0.5512,135.4,98.3,0.467
30.84,31924.6,34777.4,-0.3059,-0.5489,135.4,98.3,0.467
30.86,31902.8,34702.6,-0.3957,-0.7327,135.4,98.3,0.467
30.88,31875.5,34668.6,-0.5084,-0.8164,135.4,98.3,0.467
30.9,31886.8,34618.4,-0.4616,-0.9397,135.4,98.3,0.467
30.92,31854.3,34500.9,-0.5961,-1.2285,135.4,98.3,0.467
30.94,31726.4,34511.5,-1.1239,-1.2023,135.4,98.3,0.467
30.96,31729.8,34556.4,-1.11,-1.0921,135.4,98.3,0.467
30.98,31867.8,34538.4,-0.5401,-1.1364,135.4,98.3,0.467
31.0,31994.2,34717.0,-0.0184,-0.6975,135.4,98.3,0.467
31.02,32062.2,35103.6,0.2624,0.2527,135.4,98.3,0.467
31.04,32135.1,35442.3,0.5636,1.0852,135.4,98.3,0.467
31.06,32391.3,35683.2,1.6214,1.6773,135.4,98.3,0.467
31.08,32388.4,35677.0,1.6096,1.662,135.4,98.3,0.467
31.1,32290.6,35658.4,1.2057,1.6163,135.4,98.3,0.467
31.12,32200.4,35471.9,0.8333,1.1579,135.4,98.3,0.467
31.14,32180.2,35242.8,0.7499,0.5949,135.4,98.3,0.467
31.16,31985.0,35191.6,-0.0564,0.4692,135.4,98.3,0.467
31.18,32048.8,35113.4,0.2073,0.2768,135.4,98.3,0.467
31.2,32053.6,35035.3,0.2268,0.085,135.4,98.3,0.467
31.22,32070.1,35015.8,0.2949,0.0371,135.4,98.3,0.467
31.24,31999.2,34886.9,0.0025,-0.2799,135.4,98.3,0.467
31.26,31837.1,34699.8,-0.6671,-0.7395,135.4,98.3,0.467
31.28,31856.3,34730.1,-0.5875,-0.6651,135.4,98.3,0.467
31.3,31883.7,34732.2,-0.4745,-0.66,135.4,98.3,0.467
31.32,31769.4,34658.2,-0.9466,-0.8419,135.4,98.3,0.467
31.34,31888.8,34720.6,-0.4536,-0.6885,135.4,98.3,0.467
31.36,31858.8,34615.1,-0.5773,-0.9478,135.4,98.3,0.467
31.38,31729.6,34459.3,-1.1111,-1.3307,135.4,98.3,0.467
31.4,31796.2,34437.0,-0.8359,-1.3854,135.4,98.3,0.467
31.42,31867.7,34427.6,-0.5408,-1.4086,135.4,98.3,0.467
31.44,31903.9,34797.7,-0.391,-0.4989,135.4,98.3,0.467
31.46,32033.8,35023.0,0.1454,0.0547,135.4,98.3,0.467
31.48,32175.6,35466.4,0.7309,1.1444,135.4,98.3,0.467
31.5,32225.4,35760.5,0.9363,1.8672,135.4,98.3,0.467
31.52,32375.3,35781.1,1.5555,1.9179,135.4,98.3,0.467
31.54,32353.7,35682.0,1.466,1.6742,135.4,98.3,0.467
31.56,32290.1,35505.6,1.2033,1.2408,135.4,98.3,0.467
31.58,32200.8,35370.7,0.835,0.9093,135.4,98.3,0.467
31.6,31996.8,35207.7,-0.0076,0.5087,135.4,98.3,0.467
31.62,32001.6,35134.9,0.0123,0.3298,135.4,98.3,0.467
31.64,32057.0,35091.8,0.2408,0.2238,135.4,98.3,0.467
31.66,32007.1,35021.0,0.0349,0.0497,135.4,98.3,0.467
31.68,31972.7,34966.9,-0.1073,-0.0832,135.4,98.3,0.467
31.7,31903.6,34820.5,-0.3926,-0.4429,135.4,98.3,0.467
31.72,31897.6,34653.2,-0.4172,-0.8543,135.4,98.3,0.467
31.74,31849.7,34633.3,-0.615,-0.903,135.4,98.3,0.467
31.76,31888.4,34630.6,-0.4551,-0.9098,135.4,98.3,0.467
31.78,31852.8,34601.6,-0.6022,-0.981,135.4,98.3,0.467
31.8,31885.5,34510.7,-0.4673,-1.2044,135.4,98.3,0.467
31.82,31741.4,34447.1,-1.0622,-1.3607,135.4,98.3,0.467
31.84,31664.8,34447.5,-1.3786,-1.3598,135.4,98.3,0.467
31.86,31799.8,34572.0,-0.8209,-1.0538,135.4,98.3,0.467
31.88,31832.9,34759.3,-0.6844,-0.5935,135.4,98.3,0.467
31.9,32091.7,35015.4,0.3844,0.036,135.4,98.3,0.467
31.92,32145.3,35431.1,0.6057,1.0577,135.4,98.3,0.467
31.94,32308.9,35755.0,1.2812,1.8537,135.4,98.3,0.467
31.96,32404.9,35813.9,1.6775,1.9984,135.4,98.3,0.467
31.98,32356.5,35693.5,1.4776,1.7026,135.4,98.3,0.467
32.0,32151.8,35555.3,0.6326,1.3628,135.4,98.3,0.467
32.02,32114.7,35314.7,0.4794,0.7715,135.4,98.3,0.467
32.04,32049.2,35303.4,0.2089,0.7439,135.4,98.3,0.467
32.06,32103.3,35108.3,0.4323,0.2644,135.4,98.3,0.467
32.08,31911.0,35086.0,-0.3617,0.2096,135.4,98.3,0.467
32.1,32004.4,34995.1,0.0236,-0.0138,135.4,98.3,0.467
32.12,32007.5,34892.1,0.0366,-0.2671,135.4,98.3,0.467
32.14,31941.3,34822.0,-0.2368,-0.4393,135.4,98.3,0.467
32.16,31860.8,34748.7,-0.5693,-0.6195,135.4,98.3,0.467
32.18,31907.2,34661.0,-0.3775,-0.8349,135.4,98.3,0.467
32.2,31862.3,34627.6,-0.5631,-0.9171,135.4,98.3,0.467
32.22,31833.3,34646.9,-0.6826,-0.8696,135.4,98.3,0.467
32.24,31795.6,34619.8,-0.8382,-0.9362,135.4,98.3,0.467
32.26,31814.2,34556.9,-0.7615,-1.0909,135.4,98.3,0.467
32.28,31766.8,34422.6,-0.9573,-1.4208,135.4,98.3,0.467
32.3,31722.7,34529.8,-1.1395,-1.1574,135.4,98.3,0.467
32.32,31877.8,34703.1,-0.4988,-0.7314,135.4,98.3,0.467
32.34,31918.0,34999.0,-0.3328,-0.0042,135.4,98.3,0.467
32.36,32106.0,35264.6,0.4432,0.6485,135.4,98.3,0.467
32.38,32153.7,35579.7,0.6401,1.423,135.4,98.3,0.467
32.4,32356.4,35753.8,1.4771,1.8507,135.4,98.3,0.467
32.42,32369.3,35734.4,1.5304,1.8032,135.4,98.3,0.467
32.44,32357.5,35535.1,1.4819,1.3133,135.4,98.3,0.467
32.46,32033.0,35384.6,0.142,0.9433,135.4,98.3,0.467
32.48,32108.1,35096.9,0.4518,0.2362,135.4,98.3,0.467
32.5,32054.8,35161.4,0.232,0.3948,135.4,98.3,0.467
32.52,32056.4,35056.5,0.2387,0.1369,135.4,98.3,0.467
32.54,31996.1,34947.8,-0.0106,-0.1301,135.4,98.3,0.467
32.56,31906.0,34986.7,-0.3825,-0.0346,135.4,98.3,0.467
32.58,31996.6,34771.5,-0.0084,-0.5634,135.4,98.3,0.467
32.6,32003.4,34771.2,0.0195,-0.5642,135.4,98.3,0.467
32.62,31847.0,34767.0,-0.6263,-0.5746,135.4,98.3,0.467
32.64,31870.6,34660.3,-0.5288,-0.8366,135.4,98.3,0.467
32.66,31819.8,34729.4,-0.7385,-0.6668,135.4,98.3,0.467
32.68,31886.4,34614.5,-0.4634,-0.9493,135.4,98.3,0.467
32.7,31801.6,34478.7,-0.8138,-1.283,135.4,98.3,0.467
32.72,31738.7,34422.9,-1.0732,-1.42,135.4,98.3,0.467
32.74,31842.1,34514.7,-0.6464,-1.1945,135.4,98.3,0.467
32.76,31843.1,34668.3,-0.6421,-0.8171,135.4,98.3,0.467
32.78,31921.3,34906.9,-0.3193,-0.2307,135.4,98.3,0.467
32.8,32155.4,35169.6,0.6471,0.4151,135.4,98.3,0.467
32.82,32175.5,35562.3,0.7302,1.3801,135.4,98.3,0.467
32.84,32281.0,35738.9,1.166,1.8141,135.4,98.3,0.467
32.86,32333.0,35702.7,1.3808,1.7251,135.4,98.3,0.467
32.88,32286.7,35522.8,1.1893,1.2831,135.4,98.3,0.467
32.9,32222.1,35438.5,0.9228,1.076,135.4,98.3,0.467
32.92,32104.0,35236.8,0.4352,0.5801,135.4,98.3,0.467
32.94,32010.1,35167.1,0.0472,0.4089,135.4,98.3,0.467
32.96,32000.2,35104.7,0.0064,0.2555,135.4,98.3,0.467
32.98,31988.8,35059.5,-0.0407,0.1444,135.4,98.3,0.467
33.0,32059.8,34979.7,0.2525,-0.0517,135.4,98.3,0.467
33.02,31934.4,34793.9,-0.2653,-0.5084,135.4,98.3,0.467
33.04,31814.7,34710.1,-0.7597,-0.7142,135.4,98.3,0.467
33.06,31755.3,34673.9,-1.0049,-0.8034,135.4,98.3,0.467
33.08,31906.4,34685.2,-0.3807,-0.7755,135.4,98.3,0.467
33.1,31872.5,34698.8,-0.5208,-0.742,135.4,98.3,0.467
33.12,31809.9,34596.0,-0.7791,-0.9946,135.4,98.3,0.467
33.14,31848.7,34588.9,-0.6189,-1.0121,135.4,98.3,0.467
33.16,31652.8,34429.9,-1.4281,-1.403,135.4,98.3,0.467
33.18,31769.0,34457.7,-0.9481,-1.3347,135.4,98.3,0.467
33.2,31914.1,34595.1,-0.3491,-0.997,135.4,98.3,0.467
33.22,31956.6,34782.8,-0.1738,-0.5356,135.4,98.3,0.467
33.24,32091.3,35178.8,0.3825,0.4376,135.4,98.3,0.467
33.26,32229.7,35575.6,0.9542,1.4128,135.4,98.3,0.467
33.28,32324.6,35745.9,1.346,1.8313,135.4,98.3,0.467
33.3,32300.8,35812.7,1.2476,1.9955,135.4,98.3,0.467
33.32,32210.5,35633.8,0.8748,1.556,135.4,98.3,0.467
33.34,32227.9,35462.7,0.9468,1.1354,135.4,98.3,0.467
33.36,32109.0,35205.9,0.4558,0.5042,135.4,98.3,0.467
33.38,32064.7,35207.0,0.2727,0.5069,135.4,98.3,0.467
33.4,32036.2,35049.4,0.1549,0.1197,135.4,98.3,0.467
33.42,32021.9,34999.4,0.096,-0.0034,135.4,98.3,0.467
33.44,31917.3,34952.9,-0.3359,-0.1176,135.4,98.3,0.467
33.46,31922.3,34868.1,-0.3152,-0.326,135.4,98.3,0.467
33.48,31884.8,34937.5,-0.47,-0.1553,135.4,98.3,0.467
33.5,31866.2,34668.6,-0.5469,-0.8162,135.4,98.3,0.467
33.52,31854.7,34620.4,-0.5942,-0.9349,135.4,98.3,0.467
33.54,31832.0,34617.0,-0.6882,-0.9431,135.4,98.3,0.467
33.56,31798.0,34733.7,-0.8286,-0.6562,135.4,98.3,0.467
33.58,31844.2,34655.2,-0.6375,-0.8492,135.4,98.3,0.467
33.6,31759.8,34448.4,-0.9861,-1.3575,135.4,98.3,0.467
33.62,31897.0,34407.2,-0.4197,-1.4588,135.4,98.3,0.467
33.64,31800.4,34591.9,-0.8186,-1.0049,135.4,98.3,0.467
33.66,31911.9,34820.2,-0.358,-0.4437,135.4,98.3,0.467
33.68,32046.9,35047.6,0.1994,0.1151,135.4,98.3,0.467
33.7,32160.2,35534.5,0.667,1.3119,135.4,98.3,0.467
33.72,32296.2,35747.5,1.2286,1.8352,135.4,98.3,0.467
33.74,32307.2,35728.2,1.2743,1.7878,135.4,98.3,0.467
33.76,32291.5,35654.2,1.2093,1.6061,135.4,98.3,0.467
33.78,32241.1,35416.2,1.0012,1.0211,135.4,98.3,0.467
33.8,32067.9,35245.4,0.2859,0.6013,135.4,98.3,0.467
33.82,32016.0,35185.7,0.0719,0.4546,135.4,98.3,0.467
33.84,31969.0,35085.5,-0.1225,0.2084,135.4,98.3,0.467
33.86,32028.5,35020.5,0.1231,0.0486,135.4,98.3,0.467
33.88,32035.7,35032.8,0.1529,0.0788,135.4,98.3,0.467
33.9,31932.9,34851.1,-0.2714,-0.3678,135.4,98.3,0.467
33.92,31873.9,34747.2,-0.5151,-0.6231,135.4,98.3,0.467
33.94,31925.5,34660.7,-0.302,-0.8357,135.4,98.3,0.467
33.96,31942.7,34589.8,-0.2309,-1.0099,135.4,98.3,0.467
33.98,31848.8,34684.8,-0.6186,-0.7765,135.4,98.3,0.467
34.0,31810.1,34611.9,-0.7785,-0.9557,135.4,98.3,0.467
34.02,31863.3,34536.2,-0.5588,-1.1417,135.4,98.3,0.467
34.04,31754.0,34546.8,-1.01,-1.1156,135.4,98.3,0.467
34.06,31769.6,34568.9,-0.9459,-1.0613,135.4,98.3,0.467
34.08,31803.3,34536.9,-0.8064,-1.14,135.4,98.3,0.467
34.1,31878.8,34778.3,-0.4949,-0.5468,135.4,98.3,0.467
34.12,31970.1,35085.3,-0.1179,0.2077,135.4,98.3,0.467
34.14,32137.0,35470.2,0.5713,1.1538,135.4,98.3,0.467
34.16,32399.5,35751.3,1.6551,1.8446,135.4,98.3,0.467
34.18,32326.3,35838.0,1.3529,2.0577,135.4,98.3,0.467
34.2,32360.3,35656.5,1.4932,1.6117,135.4,98.3,0.467
34.22,32239.1,35428.5,0.9928,1.0514,135.4,98.3,0.467
34.24,32143.8,35352.5,0.5995,0.8645,135.4,98.3,0.467
34.26,32158.2,35177.2,0.6587,0.4336,135.4,98.3,0.467
34.28,32102.1,35098.4,0.4273,0.24,135.4,98.3,0.467
34.3,32049.9,35087.6,0.2117,0.2135,135.4,98.3,0.467
34.32,32053.2,34996.7,0.2253,-0.01,135.4,98.3,0.467
34.34,32024.2,34915.2,0.1057,-0.2102,135.4,98.3,0.467
34.36,31910.2,34714.6,-0.3651,-0.7032,135.4,98.3,0.467
34.38,31806.6,34688.3,-0.7931,-0.7678,135.4,98.3,0.467
34.4,31853.0,34638.2,-0.6016,-0.8909,135.4,98.3,0.467
34.42,31862.5,34676.0,-0.5621,-0.7981,135.4,98.3,0.467
34.44,31823.1,34607.0,-0.7248,-0.9676,135.4,98.3,0.467
34.46,31849.7,34669.9,-0.615,-0.8132,135.4,98.3,0.467
34.48,31813.0,34516.4,-0.7666,-1.1903,135.4,98.3,0.467
34.5,31694.0,34402.8,-1.258,-1.4695,135.4,98.3,0.467
34.52,31821.3,34569.8,-0.7322,-1.0592,135.4,98.3,0.467
34.54,31874.0,34744.6,-0.5146,-0.6294,135.4,98.3,0.467
34.56,32002.1,35013.4,0.0142,0.0311,135.4,98.3,0.467
34.58,32155.5,35430.8,0.6478,1.057,135.4,98.3,0.467
34.6,32312.5,35660.6,1.2961,1.6218,135.4,98.3,0.467
34.62,32309.1,35802.9,1.2822,1.9715,135.4,98.3,0.467
34.64,32330.5,35778.8,1.3705,1.9122,135.4,98.3,0.467
34.66,32121.2,35516.1,0.5061,1.2666,135.4,98.3,0.467
34.68,32175.7,35351.9,0.7313,0.8631,135.4,98.3,0.467
34.7,32185.0,35209.3,0.7695,0.5125,135.4,98.3,0.467
34.72,32017.7,35042.5,0.0789,0.1025,135.4,98.3,0.467
34.74,32048.1,35156.0,0.2044,0.3815,135.4,98.3,0.467
34.76,31994.2,34947.7,-0.0185,-0.1304,135.4,98.3,0.467
34.78,32015.3,34843.2,0.0689,-0.3872,135.4,98.3,0.467
34.8,31850.4,34806.0,-0.612,-0.4786,135.4,98.3,0.467
34.82,31862.3,34723.4,-0.563,-0.6817,135.4,98.3,0.467
34.84,31841.9,34690.4,-0.647,-0.7626,135.4,98.3,0.467
34.86,31831.1,34622.8,-0.6918,-0.929,135.4,98.3,0.467
34.88,31883.3,34516.9,-0.4761,-1.189,135.4,98.3,0.467
34.9,31852.9,34624.4,-0.6019,-0.925,135.4,98.3,0.467
34.92,31726.6,34515.9,-1.1233,-1.1917,135.4,98.3,0.467
34.94,31759.7,34458.0,-0.9868,-1.3339,135.4,98.3,0.467
34.96,31778.0,34438.9,-0.9112,-1.3809,135.4,98.3,0.467
34.98,31982.0,34860.5,-0.0687,-0.3447,135.4,98.3,0.467
35.0,32017.5,35049.0,0.0779,0.1186,135.4,98.3,0.467
35.02,32222.7,35299.0,0.9253,0.7331,135.4,98.3,0.467
35.04,32264.7,35561.6,1.0988,1.3783,135.4,98.3,0.467
35.06,32258.0,35795.7,1.0708,1.9538,135.4,98.3,0.467
35.08,32242.5,35538.0,1.0071,1.3204,135.4,98.3,0.467
35.1,32286.7,35535.5,1.1893,1.3143,135.4,98.3,0.467
35.12,32154.5,35315.3,0.6435,0.7732,135.4,98.3,0.467
35.14,32078.3,35174.7,0.3289,0.4275,135.4,98.3,0.467
35.16,31990.6,34992.2,-0.0331,-0.0209,135.4,98.3,0.467
35.18,32054.6,35053.3,0.2311,0.1293,135.4,98.3,0.467
35.2,32023.7,35063.9,0.1034,0.1554,135.4,98.3,0.467
35.22,32048.4,34945.8,0.2053,-0.1351,135.4,98.3,0.467
35.24,31911.3,34807.4,-0.3604,-0.4752,135.4,98.3,0.467
35.26,31767.8,34786.8,-0.953,-0.5257,135.4,98.3,0.467
35.28,31871.6,34718.1,-0.5245,-0.6946,135.4,98.3,0.467
35.3,31869.6,34616.7,-0.533,-0.9438,135.4,98.3,0.467
35.32,31856.4,34682.3,-0.5872,-0.7827,135.4,98.3,0.467
35.34,31764.7,34604.7,-0.9658,-0.9734,135.4,98.3,0.467
35.36,31815.7,34577.5,-0.7553,-1.0401,135.4,98.3,0.467
35.38,31764.6,34527.1,-0.9666,-1.1641,135.4,98.3,0.467
35.4,31754.7,34502.8,-1.0071,-1.2237,135.4,98.3,0.467
35.42,31881.5,34561.4,-0.4835,-1.0798,135.4,98.3,0.467
35.44,31957.8,34928.4,-0.1685,-0.1778,135.4,98.3,0.467
35.46,32079.8,35226.9,0.3352,0.5558,135.4,98.3,0.467
35.48,32316.7,35567.7,1.3134,1.3933,135.4,98.3,0.467
35.5,32344.1,35775.5,1.4264,1.9042,135.4,98.3,0.467
35.52,32193.3,35772.6,0.8039,1.897,135.4,98.3,0.467
35.54,32235.7,35554.9,0.979,1.3619,135.4,98.3,0.467
35.56,32118.3,35393.4,0.4939,0.965,135.4,98.3,0.467
35.58,32118.5,35206.9,0.495,0.5066,135.4,98.3,0.467
35.6,32111.4,35074.4,0.4655,0.181,135.4,98.3,0.467
35.62,32111.0,35036.8,0.464,0.0886,135.4,98.3,0.467
35.64,32076.3,35049.1,0.3209,0.1188,135.4,98.3,0.467
35.66,31827.8,35055.6,-0.7053,0.1347,135.4,98.3,0.467
35.68,31980.1,34894.9,-0.0766,-0.2602,135.4,98.3,0.467
35.7,31896.6,34648.3,-0.4213,-0.8663,135.4,98.3,0.467
35.72,31873.9,34728.4,-0.5149,-0.6694,135.4,98.3,0.467
35.74,31843.9,34601.5,-0.6388,-0.9812,135.4,98.3,0.467
35.76,31897.1,34556.6,-0.4192,-1.0915,135.4,98.3,0.467
35.78,31771.0,34670.6,-0.9397,-0.8113,135.4,98.3,0.467
35.8,31826.7,34569.5,-0.7101,-1.0598,135.4,98.3,0.467
35.82,31811.3,34526.5,-0.7736,-1.1657,135.4,98.3,0.467
35.84,31834.7,34542.0,-0.6768,-1.1274,135.4,98.3,0.467
35.86,31893.4,34647.3,-0.4346,-0.8688,135.4,98.3,0.467
35.88,31928.8,34920.7,-0.2884,-0.1967,135.4,98.3,0.467
35.9,32147.3,35190.8,0.6138,0.467,135.4,98.3,0.467
35.92,32294.5,35583.9,1.2215,1.4332,135.4,98.3,0.467
35.94,32372.6,35738.8,1.5441,1.8139,135.4,98.3,0.467
35.96,32366.7,35770.5,1.5198,1.8918,135.4,98.3,0.467
35.98,32212.7,35524.9,0.8837,1.2882,135.4,98.3,0.467
36.0,32173.9,35445.5,0.7237,1.0931,135.4,98.3,0.467
36.02,32107.7,35226.4,0.4506,0.5546,135.4,98.3,0.467
36.04,32114.7,35116.3,0.4793,0.284,135.4,98.3,0.467
36.06,32027.6,35123.9,0.1198,0.3027,135.4,98.3,0.467
36.08,32020.5,35057.8,0.0904,0.1402,135.4,98.3,0.467
36.1,32032.9,34938.6,0.1415,-0.1528,135.4,98.3,0.467
36.12,31919.9,34816.0,-0.3249,-0.4541,135.4,98.3,0.467
36.14,31883.0,34742.5,-0.4776,-0.6346,135.4,98.3,0.467
36.16,31919.6,34818.7,-0.3262,-0.4474,135.4,98.3,0.467
36.18,31849.8,34551.8,-0.6146,-1.1033,135.4,98.3,0.467
36.2,31832.4,34618.8,-0.6863,-0.9386,135.4,98.3,0.467
36.22,31853.0,34654.9,-0.6015,-0.8501,135.4,98.3,0.467
36.24,31732.5,34519.6,-1.099,-1.1824,135.4,98.3,0.467
36.26,31808.8,34455.6,-0.7837,-1.3398,135.4,98.3,0.467
36.28,31802.4,34421.0,-0.8102,-1.4249,135.4,98.3,0.467
36.3,31812.0,34588.3,-0.7707,-1.0137,135.4,98.3,0.467
36.32,31915.5,34792.8,-0.3433,-0.511,135.4,98.3,0.467
36.34,32087.7,35198.1,0.3678,0.485,135.4,98.3,0.467
36.36,32135.2,35476.4,0.5639,1.169,135.4,98.3,0.467
36.38,32367.1,35716.3,1.5215,1.7587,135.4,98.3,0.467
36.4,32263.7,35809.1,1.0945,1.9867,135.4,98.3,0.467
36.42,32226.8,35686.4,0.9422,1.6851,135.4,98.3,0.467
36.44,32173.4,35509.2,0.7218,1.2496,135.4,98.3,0.467
36.46,31970.2,35247.2,-0.1172,0.6056,135.4,98.3,0.467
36.48,32118.5,35183.3,0.4951,0.4486,135.4,98.3,0.467
36.5,31964.7,35150.5,-0.1403,0.368,135.4,98.3,0.467
36.52,32081.7,35015.0,0.3428,0.035,135.4,98.3,0.467
36.54,32008.0,35035.8,0.0385,0.0862,135.4,98.3,0.467
36.56,32003.6,34884.9,0.0206,-0.2846,135.4,98.3,0.467
36.58,31908.6,34833.4,-0.3718,-0.4112,135.4,98.3,0.467
36.6,31913.0,34686.4,-0.3535,-0.7725,135.4,98.3,0.467
36.62,31867.2,34649.4,-0.5427,-0.8635,135.4,98.3,0.467
36.64,31861.0,34636.8,-0.5684,-0.8946,135.4,98.3,0.467
36.66,31823.1,34618.0,-0.7246,-0.9407,135.4,98.3,0.467
36.68,31851.2,34590.5,-0.6088,-1.0081,135.4,98.3,0.467
36.7,31710.3,34524.2,-1.1904,-1.1713,135.4,98.3,0.467
36.72,31817.0,34426.1,-0.7499,-1.4123,135.4,98.3,0.467
36.74,31818.9,34550.6,-0.7421,-1.1062,135.4,98.3,0.467
36.76,31877.9,34799.9,-0.4984,-0.4935,135.4,98.3,0.467
36.78,31994.6,35055.0,-0.0166,0.1333,135.4,98.3,0.467
36.8,32249.1,35501.1,1.0341,1.2297,135.4,98.3,0.467
36.82,32263.5,35674.8,1.0937,1.6566,135.4,98.3,0.467
36.84,32367.3,35733.7,1.5223,1.8014,135.4,98.3,0.467
36.86,32299.3,35662.7,1.2416,1.6269,135.4,98.3,0.467
36.88,32194.8,35479.8,0.8099,1.1773,135.4,98.3,0.467
36.9,32170.1,35341.7,0.7081,0.838,135.4,98.3,0.467
36.92,32025.4,35208.4,0.1104,0.5105,135.4,98.3,0.467
36.94,32147.4,35155.4,0.6142,0.3802,135.4,98.3,0.467
36.96,32020.8,35057.7,0.0916,0.14,135.4,98.3,0.467
36.98,32005.4,34974.0,0.0278,-0.0657,135.4,98.3,0.467
37.0,31933.7,34869.3,-0.2679,-0.3231,135.4,98.3,0.467
37.02,31960.7,34808.3,-0.1567,-0.4729,135.4,98.3,0.467
37.04,31961.5,34754.9,-0.1532,-0.6042,135.4,98.3,0.467
37.06,31930.4,34805.2,-0.2818,-0.4806,135.4,98.3,0.467
37.08,31868.6,34683.4,-0.537,-0.78,135.4,98.3,0.467
37.1,31854.1,34584.2,-0.5969,-1.0238,135.4,98.3,0.467
37.12,31867.7,34543.3,-0.5407,-1.1243,135.4,98.3,0.467
37.14,31746.6,34490.3,-1.0407,-1.2546,135.4,98.3,0.467
37.16,31723.7,34504.8,-1.1352,-1.2189,135.4,98.3,0.467
37.18,31764.1,34600.8,-0.9685,-0.983,135.4,98.3,0.467
37.2,31880.3,34759.4,-0.4885,-0.5931,135.4,98.3,0.467
37.22,32041.3,35070.3,0.1762,0.1709,135.4,98.3,0.467
37.24,32304.4,35371.5,1.2625,0.9112,135.4,98.3,0.467
37.26,32363.3,35567.8,1.5059,1.3937,135.4,98.3,0.467
37.28,32335.6,35773.5,1.3915,1.8992,135.4,98.3,0.467
37.3,32292.4,35670.4,1.2129,1.6457,135.4,98.3,0.467
37.32,32245.1,35483.7,1.0177,1.187,135.4,98.3,0.467
37.34,32198.9,35318.4,0.8269,0.7806,135.4,98.3,0.467
37.36,31978.0,35248.2,-0.0852,0.6083,135.4,98.3,0.467
37.38,32072.4,35145.6,0.3044,0.356,135.4,98.3,0.467
37.4,32087.2,35144.1,0.3657,0.3523,135.4,98.3,0.467
37.42,32053.8,34989.1,0.2277,-0.0287,135.4,98.3,0.467
37.44,32024.8,35004.9,0.108,0.0102,135.4,98.3,0.467
37.46,31928.7,34812.1,-0.2887,-0.4637,135.4,98.3,0.467
37.48,31923.6,34819.9,-0.3099,-0.4444,135.4,98.3,0.467
37.5,31896.5,34590.3,-0.4216,-1.0088,135.4,98.3,0.467
37.52,31780.1,34684.3,-0.9024,-0.7777,135.4,98.3,0.467
37.54,31868.7,34667.9,-0.5366,-0.818,135.4,98.3,0.467
37.56,31857.5,34539.4,-0.5828,-1.1338,135.4,98.3,0.467
37.58,31753.3,34468.6,-1.013,-1.3077,135.4,98.3,0.467
37.6,31755.7,34540.6,-1.0031,-1.1308,135.4,98.3,0.467
37.62,31778.0,34533.3,-0.9112,-1.1489,135.4,98.3,0.467
37.64,31897.2,34670.8,-0.4188,-0.8109,135.4,98.3,0.467
37.66,31998.7,35083.4,0.0004,0.2031,135.4,98.3,0.467
37.68,32159.6,35337.3,0.6646,0.8273,135.4,98.3,0.467
37.7,32318.7,35680.9,1.3216,1.6717,135.4,98.3,0.467
37.72,32269.0,35765.2,1.1165,1.8789,135.4,98.3,0.467
37.74,32274.7,35668.7,1.1401,1.6417,135.4,98.3,0.467
37.76,32211.2,35527.5,0.8779,1.2946,135.4,98.3,0.467
37.78,32144.4,35423.9,0.6017,1.04,135.4,98.3,0.467
37.8,32025.2,35301.6,0.1096,0.7395,135.4,98.3,0.467
37.82,32127.9,35110.9,0.5337,0.2708,135.4,98.3,0.467
37.84,32088.8,35025.8,0.3724,0.0616,135.4,98.3,0.467
37.86,31986.5,35084.8,-0.0503,0.2067,135.4,98.3,0.467
37.88,31943.3,35001.2,-0.2284,0.0012,135.4,98.3,0.467
37.9,31935.1,34779.5,-0.2624,-0.5438,135.4,98.3,0.467
37.92,31830.3,34773.0,-0.6952,-0.5598,135.4,98.3,0.467
37.94,31874.5,34758.3,-0.5127,-0.5958,135.4,98.3,0.467
37.96,31824.4,34624.6,-0.7193,-0.9244,135.4,98.3,0.467
37.98,31832.9,34750.4,-0.6844,-0.6153,135.4,98.3,0.467
38.0,31812.6,34701.1,-0.7682,-0.7365,135.4,98.3,0.467
38.02,31828.8,34564.7,-0.7012,-1.0718,135.4,98.3,0.467
38.04,31755.9,34465.5,-1.0023,-1.3155,135.4,98.3,0.467
38.06,31813.6,34524.8,-0.764,-1.1698,135.4,98.3,0.467
38.08,31933.4,34651.9,-0.2693,-0.8575,135.4,98.3,0.467
38.1,31982.8,34961.3,-0.0653,-0.0968,135.4,98.3,0.467
38.12,32119.0,35293.8,0.497,0.7203,135.4,98.3,0.467
38.14,32199.4,35668.1,0.8289,1.6402,135.4,98.3,0.467
38.16,32248.3,35791.4,1.0308,1.9432,135.4,98.3,0.467
38.18,32253.8,35690.6,1.0534,1.6955,135.4,98.3,0.467
38.2,32290.3,35672.0,1.2045,1.6497,135.4,98.3,0.467
38.22,32222.4,35393.5,0.9242,0.9653,135.4,98.3,0.467
38.24,32135.8,35265.6,0.5665,0.651,135.4,98.3,0.467
38.26,31982.6,35090.5,-0.0664,0.2205,135.4,98.3,0.467
38.28,31981.8,35055.6,-0.0694,0.1347,135.4,98.3,0.467
38.3,32018.1,35023.9,0.0804,0.0569,135.4,98.3,0.467
38.32,31945.0,34975.1,-0.2214,-0.0629,135.4,98.3,0.467
38.34,31958.7,34839.9,-0.1651,-0.3953,135.4,98.3,0.467
38.36,31953.4,34713.1,-0.1868,-0.7069,135.4,98.3,0.467
38.38,31827.5,34631.8,-0.7067,-0.9068,135.4,98.3,0.467
38.4,31870.8,34614.5,-0.5278,-0.9493,135.4,98.3,0.467
38.42,31872.8,34691.7,-0.5197,-0.7595,135.4,98.3,0.467
38.44,31919.7,34651.1,-0.3259,-0.8593,135.4,98.3,0.467
38.46,31759.0,34539.0,-0.9897,-1.1349,135.4,98.3,0.467
38.48,31788.6,34419.8,-0.8673,-1.4277,135.4,98.3,0.467
38.5,31702.6,34474.7,-1.2223,-1.2928,135.4,98.3,0.467
38.52,31747.8,34670.1,-1.0357,-0.8125,135.4,98.3,0.467
38.54,32051.7,34891.5,0.2191,-0.2685,135.4,98.3,0.467
38.56,32158.6,35197.1,0.6604,0.4827,135.4,98.3,0.467
38.58,32181.7,35493.3,0.7558,1.2105,135.4,98.3,0.467
38.6,32351.9,35686.8,1.4585,1.6861,135.4,98.3,0.467
38.62,32324.6,35772.6,1.3458,1.897,135.4,98.3,0.467
38.64,32191.1,35649.7,0.7948,1.595,135.4,98.3,0.467
38.66,32236.3,35395.7,0.9813,0.9707,135.4,98.3,0.467
38.68,32183.7,35355.9,0.7642,0.8729,135.4,98.3,0.467
38.7,32029.2,35119.4,0.1264,0.2916,135.4,98.3,0.467
38.72,32109.0,35004.6,0.4557,0.0095,135.4,98.3,0.467
38.74,32007.3,35011.5,0.036,0.0264,135.4,98.3,0.467
38.76,31988.8,34980.3,-0.0404,-0.0503,135.4,98.3,0.467
38.78,31959.2,34865.8,-0.163,-0.3316,135.4,98.3,0.467
38.8,31915.2,34727.6,-0.3447,-0.6712,135.4,98.3,0.467
38.82,31907.7,34716.6,-0.3753,-0.6982,135.4,98.3,0.467
38.84,31817.5,34579.3,-0.7481,-1.0357,135.4,98.3,0.467
38.86,31843.9,34697.6,-0.639,-0.745,135.4,98.3,0.467
38.88,31790.2,34700.6,-0.8608,-0.7376,135.4,98.3,0.467
38.9,31810.1,34429.7,-0.7784,-1.4035,135.4,98.3,0.467
38.92,31770.6,34529.9,-0.9415,-1.1571,135.4,98.3,0.467
38.94,31769.0,34380.2,-0.9484,-1.525,135.4,98.3,0.467
38.96,31791.7,34602.4,-0.8544,-0.9789,135.4,98.3,0.467
38.98,31897.7,34969.9,-0.417,-0.0758,135.4,98.3,0.467
39.0,32042.8,35204.8,0.1824,0.5014,135.4,98.3,0.467
39.02,32222.7,35485.2,0.925,1.1906,135.4,98.3,0.467
39.04,32239.1,35789.8,0.9928,1.9393,135.4,98.3,0.467
39.06,32368.3,35796.7,1.5263,1.9562,135.4,98.3,0.467
39.08,32231.1,35660.2,0.9599,1.6208,135.4,98.3,0.467
39.1,32168.6,35481.9,0.7018,1.1825,135.4,98.3,0.467
39.12,32154.3,35268.6,0.6427,0.6582,135.4,98.3,0.467
39.14,32157.2,35120.0,0.6546,0.293,135.4,98.3,0.467
39.16,32037.4,35132.0,0.1602,0.3225,135.4,98.3,0.467
39.18,32076.9,35050.1,0.3232,0.1213,135.4,98.3,0.467
39.2,32005.0,35050.2,0.0261,0.1217,135.4,98.3,0.467
39.22,31871.8,34907.1,-0.5236,-0.2301,135.4,98.3,0.467
39.24,31872.8,34778.7,-0.5198,-0.5457,135.4,98.3,0.467
39.26,31774.2,34659.8,-0.9266,-0.838,135.4,98.3,0.467
39.28,31896.0,34703.9,-0.4238,-0.7296,135.4,98.3,0.467
39.3,31885.2,34631.1,-0.4685,-0.9086,135.4,98.3,0.467
39.32,31869.4,34541.5,-0.5337,-1.1287,135.4,98.3,0.467
39.34,31755.1,34567.9,-1.0058,-1.0637,135.4,98.3,0.467
39.36,31737.6,34432.1,-1.0779,-1.3976,135.4,98.3,0.467
39.38,31813.1,34443.2,-0.7662,-1.3702,135.4,98.3,0.467
39.4,31743.2,34574.0,-1.0548,-1.0489,135.4,98.3,0.467
39.42,31986.9,34756.8,-0.0484,-0.5995,135.4,98.3,0.467
39.44,32063.4,35121.2,0.2673,0.2961,135.4,98.3,0.467
39.46,32258.0,35462.7,1.0709,1.1353,135.4,98.3,0.467
39.48,32304.6,35767.9,1.2635,1.8854,135.4,98.3,0.467
39.5,32307.2,35787.8,1.2741,1.9343,135.4,98.3,0.467
39.52,32293.4,35691.7,1.2171,1.6981,135.4,98.3,0.467
39.54,32179.9,35448.0,0.7484,1.0991,135.4,98.3,0.467
39.56,32130.0,35288.8,0.5424,0.7079,135.4,98.3,0.467
39.58,32032.4,35236.3,0.1394,0.5788,135.4,98.3,0.467
39.6,32128.3,35121.5,0.5354,0.2969,135.4,98.3,0.467
39.62,32010.0,35066.7,0.0468,0.162,135.4,98.3,0.467
39.64,32027.5,34970.5,0.1193,-0.0743,135.4,98.3,0.467
39.66,31881.8,34964.6,-0.4826,-0.0887,135.4,98.3,0.467
39.68,31883.1,34808.1,-0.4771,-0.4734,135.4,98.3,0.467
39.7,31767.5,34760.2,-0.9543,-0.5913,135.4,98.3,0.467
39.72,31873.9,34603.3,-0.5153,-0.9767,135.4,98.3,0.467
39.74,31887.7,34696.9,-0.4579,-0.7467,135.4,98.3,0.467
39.76,31794.9,34662.9,-0.8413,-0.8304,135.4,98.3,0.467
39.78,31825.9,34640.4,-0.7135,-0.8857,135.4,98.3,0.467
39.8,31894.7,34414.5,-0.4291,-1.4408,135.4,98.3,0.467
39.82,31782.2,34462.3,-0.8938,-1.3234,135.4,98.3,0.467
39.84,31762.0,34570.6,-0.977,-1.0571,135.4,98.3,0.467
39.86,31959.0,34745.2,-0.1637,-0.6281,135.4,98.3,0.467
39.88,32142.8,35113.9,0.5953,0.2781,135.4,98.3,0.467
39.9,32101.2,35350.0,0.4237,0.8584,135.4,98.3,0.467
39.92,32284.7,35597.6,1.1814,1.467,135.4,98.3,0.467
39.94,32356.6,35745.8,1.4783,1.8312,135.4,98.3,0.467
39.96,32327.4,35700.9,1.3574,1.7208,135.4,98.3,0.467
39.98,32218.2,35443.5,0.9066,1.0883,135.4,98.3,0.467
40.0,32104.1,35288.3,0.4354,0.7066,135.4,98.3,0.467
40.02,32131.9,35169.4,0.5501,0.4146,135.4,98.3,0.467
40.04,31994.4,35106.5,-0.0176,0.26,135.4,98.3,0.467
40.06,32010.8,35031.9,0.05,0.0766,135.4,98.3,0.467
40.08,32072.4,35026.1,0.3047,0.0624,135.4,98.3,0.467
40.1,31934.6,34986.7,-0.2645,-0.0346,135.4,98.3,0.467
40.12,31923.6,34810.5,-0.3096,-0.4675,135.4,98.3,0.467
40.14,31745.0,34716.4,-1.0471,-0.6989,135.4,98.3,0.467
40.16,31816.8,34741.6,-0.7509,-0.6369,135.4,98.3,0.467
40.18,31803.2,34676.8,-0.807,-0.7961,135.4,98.3,0.467
40.2,31788.7,34618.5,-0.8668,-0.9394,135.4,98.3,0.467
40.22,31819.5,34558.9,-0.7397,-1.0859,135.4,98.3,0.467
40.24,31780.5,34455.4,-0.9008,-1.3404,135.4,98.3,0.467
40.26,31815.2,34486.8,-0.7573,-1.2631,135.4,98.3,0.467
40.28,31770.4,34484.6,-0.9422,-1.2686,135.4,98.3,0.467
40.3,31934.0,34723.5,-0.2669,-0.6813,135.4,98.3,0.467
40.32,32055.3,35086.0,0.2342,0.2096,135.4,98.3,0.467
40.34,32165.3,35334.7,0.6881,0.8209,135.4,98.3,0.467
40.36,32187.4,35639.8,0.7796,1.5707,135.4,98.3,0.467
40.38,32157.5,35778.1,0.6559,1.9105,135.4,98.3,0.467
40.4,32325.3,35649.7,1.3487,1.5949,135.4,98.3,0.467
40.42,32133.3,35517.9,0.5562,1.271,135.4,98.3,0.467
40.44,32140.7,35377.2,0.5868,0.9252,135.4,98.3,0.467
40.46,32095.4,35179.5,0.3997,0.4393,135.4,98.3,0.467
40.48,32025.4,35183.4,0.1105,0.4489,135.4,98.3,0.467
40.5,32055.7,35200.1,0.2356,0.4899,135.4,98.3,0.467
40.52,32035.6,34983.4,0.1525,-0.0427,135.4,98.3,0.467
40.54,31960.9,34923.9,-0.156,-0.1889,135.4,98.3,0.467
40.56,31852.9,34839.5,-0.6016,-0.3962,135.4,98.3,0.467
40.58,31798.2,34795.8,-0.8275,-0.5036,135.4,98.3,0.467
40.6,31911.5,34662.8,-0.36,-0.8304,135.4,98.3,0.467
40.62,31828.9,34672.3,-0.7011,-0.8072,135.4,98.3,0.467
40.64,31805.7,34591.0,-0.7967,-1.007,135.4,98.3,0.467
40.66,31809.5,34612.9,-0.7811,-0.9531,135.4,98.3,0.467
40.68,31825.0,34602.0,-0.7168,-0.9801,135.4,98.3,0.467
40.7,31848.4,34416.7,-0.6205,-1.4353,135.4,98.3,0.467
40.72,31765.5,34463.6,-0.9627,-1.3202,135.4,98.3,0.467
40.74,31938.8,34682.8,-0.247,-0.7815,135.4,98.3,0.467
40.76,32011.6,35084.9,0.0537,0.2068,135.4,98.3,0.467
40.78,32129.8,35284.0,0.5417,0.6961,135.4,98.3,0.467
40.8,32228.3,35685.5,0.9482,1.6829,135.4,98.3,0.467
40.82,32284.8,35708.9,1.1816,1.7405,135.4,98.3,0.467
40.84,32321.6,35737.2,1.3334,1.81,135.4,98.3,0.467
40.86,32239.3,35548.8,0.9937,1.347,135.4,98.3,0.467
40.88,32231.1,35354.2,0.96,0.8688,135.4,98.3,0.467
40.9,32209.3,35210.9,0.8698,0.5166,135.4,98.3,0.467
40.92,32031.5,35125.6,0.1357,0.3069,135.4,98.3,0.467
40.94,32082.9,35029.9,0.3478,0.0716,135.4,98.3,0.467
40.96,31984.5,35131.0,-0.0582,0.32,135.4,98.3,0.467
40.98,31978.1,34939.2,-0.0847,-0.1514,135.4,98.3,0.467
41.0,31861.2,34878.0,-0.5676,-0.3016,135.4,98.3,0.467
41.02,31955.9,34749.2,-0.1765,-0.6183,135.4,98.3,0.467
41.04,31856.2,34735.3,-0.5883,-0.6523,135.4,98.3,0.467
41.06,31888.6,34717.4,-0.4544,-0.6963,135.4,98.3,0.467
41.08,31904.7,34674.4,-0.3879,-0.8021,135.4,98.3,0.467
41.1,31747.4,34646.6,-1.0376,-0.8705,135.4,98.3,0.467
41.12,31748.1,34499.0,-1.0346,-1.2331,135.4,98.3,0.467
41.14,31733.6,34524.2,-1.0945,-1.1711,135.4,98.3,0.467
41.16,31832.0,34454.3,-0.688,-1.3429,135.4,98.3,0.467
41.18,31824.8,34662.6,-0.7178,-0.8311,135.4,98.3,0.467
41.2,31901.4,34926.7,-0.4017,-0.1819,135.4,98.3,0.467
41.22,32082.9,35215.9,0.3479,0.5288,135.4,98.3,0.467
41.24,32180.3,35498.7,0.7502,1.2239,135.4,98.3,0.467
41.26,32439.8,35895.8,1.8215,2.1997,135.4,98.3,0.467
41.28,32341.4,35700.1,1.4153,1.7187,135.4,98.3,0.467
41.3,32330.9,35634.9,1.3721,1.5585,135.4,98.3,0.467
41.32,32199.3,35479.8,0.8288,1.1773,135.4,98.3,0.467
41.34,32046.6,35211.3,0.1981,0.5174,135.4,98.3,0.467
41.36,32091.2,35118.1,0.3823,0.2885,135.4,98.3,0.467
41.38,32002.3,35077.6,0.0153,0.189,135.4,98.3,0.467
41.4,32026.9,35050.1,0.1167,0.1212,135.4,98.3,0.467
41.42,31954.0,34944.1,-0.1845,-0.1392,135.4,98.3,0.467
41.44,31926.1,34829.1,-0.2993,-0.4219,135.4,98.3,0.467
41.46,31832.9,34789.7,-0.6842,-0.5188,135.4,98.3,0.467
41.48,31904.0,34725.3,-0.3909,-0.6769,135.4,98.3,0.467
41.5,31852.4,34685.0,-0.6038,-0.7761,135.4,98.3,0.467
41.52,31803.0,34687.3,-0.8076,-0.7703,135.4,98.3,0.467
41.54,31835.1,34588.2,-0.6753,-1.0139,135.4,98.3,0.467
41.56,31810.8,34495.4,-0.7756,-1.2419,135.4,98.3,0.467
41.58,31784.3,34539.3,-0.8849,-1.134,135.4,98.3,0.467
41.6,31689.9,34510.2,-1.2747,-1.2056,135.4,98.3,0.467
41.62,31876.0,34579.4,-0.5064,-1.0355,135.4,98.3,0.467
41.64,31884.4,34861.2,-0.4716,-0.343,135.4,98.3,0.467
41.66,32095.5,35178.7,0.3999,0.4373,135.4,98.3,0.467
41.68,32262.9,35568.0,1.0913,1.3943,135.4,98.3,0.467
41.7,32397.0,35738.6,1.6447,1.8133,135.4,98.3,0.467
41.72,32371.7,35695.0,1.5405,1.7064,135.4,98.3,0.467
41.74,32179.2,35698.7,0.7455,1.7153,135.4,98.3,0.467
41.76,32156.9,35420.0,0.6536,1.0305,135.4,98.3,0.467
41.78,32089.9,35200.0,0.377,0.4898,135.4,98.3,0.467
41.8,32011.8,35171.3,0.0545,0.4193,135.4,98.3,0.467
41.82,32111.3,35151.9,0.4654,0.3715,135.4,98.3,0.467
41.84,31992.2,34994.2,-0.0267,-0.0161,135.4,98.3,0.467
41.86,32012.7,35041.2,0.0582,0.0993,135.4,98.3,0.467
41.88,31901.0,34837.7,-0.4032,-0.4006,135.4,98.3,0.467
41.9,31906.8,34744.0,-0.3794,-0.631,135.4,98.3,0.467
41.92,31817.9,34688.3,-0.7465,-0.7679,135.4,98.3,0.467
41.94,31946.9,34679.4,-0.2136,-0.7898,135.4,98.3,0.467
41.96,31919.9,34709.7,-0.325,-0.7154,135.4,98.3,0.467
41.98,31807.4,34625.7,-0.7895,-0.9217,135.4,98.3,0.467
42.0,31808.8,34587.4,-0.7838,-1.0159,135.4,98.3,0.467
42.02,31685.6,34497.1,-1.2925,-1.2377,135.4,98.3,0.467
42.04,31765.9,34435.6,-0.9608,-1.3888,135.4,98.3,0.467
42.06,31761.4,34540.3,-0.9795,-1.1316,135.4,98.3,0.467
42.08,32031.3,34797.8,0.1348,-0.4987,135.4,98.3,0.467
42.1,32018.6,35155.6,0.0826,0.3807,135.4,98.3,0.467
42.12,32224.2,35553.8,0.9316,1.3594,135.4,98.3,0.467
42.14,32346.4,35686.5,1.436,1.6853,135.4,98.3,0.467
42.16,32254.4,35637.1,1.056,1.5639,135.4,98.3,0.467
42.18,32323.7,35730.6,1.3422,1.7938,135.4,98.3,0.467
42.2,32109.1,35434.4,0.456,1.0658,135.4,98.3,0.467
42.22,32042.7,35262.8,0.182,0.644,135.4,98.3,0.467
42.24,32017.3,35144.6,0.0769,0.3537,135.4,98.3,0.467
42.26,31976.6,35060.0,-0.0909,0.1456,135.4,98.3,0.467
42.28,32012.7,35120.3,0.0581,0.2937,135.4,98.3,0.467
42.3,31955.8,34976.9,-0.1767,-0.0586,135.4,98.3,0.467
42.32,31984.8,34767.0,-0.0572,-0.5745,135.4,98.3,0.467
42.34,31974.0,34661.3,-0.1017,-0.8342,135.4,98.3,0.467
42.36,31849.6,34786.5,-0.6155,-0.5265,135.4,98.3,0.467
42.38,31808.5,34705.9,-0.7849,-0.7247,135.4,98.3,0.467
42.4,31783.3,34706.9,-0.8891,-0.7221,135.4,98.3,0.467
42.42,31869.3,34648.7,-0.5343,-0.8652,135.4,98.3,0.467
42.44,31879.8,34480.9,-0.4906,-1.2776,135.4,98.3,0.467
42.46,31845.9,34478.5,-0.6306,-1.2835,135.4,98.3,0.467
42.48,31700.5,34405.0,-1.2309,-1.4641,135.4,98.3,0.467
42.5,31768.3,34603.4,-0.9511,-0.9765,135.4,98.3,0.467
42.52,31945.0,34729.5,-0.2213,-0.6665,135.4,98.3,0.467
42.54,32033.5,35164.8,0.144,0.4032,135.4,98.3,0.467
42.56,32192.6,35550.9,0.8008,1.352,135.4,98.3,0.467
42.58,32236.7,35667.1,0.983,1.6378,135.4,98.3,0.467
42.6,32363.8,35843.9,1.5079,2.0722,135.4,98.3,0.467
42.62,32294.6,35699.4,1.2221,1.717,135.4,98.3,0.467
42.64,32244.5,35516.4,1.0153,1.2675,135.4,98.3,0.467
42.66,32118.3,35378.5,0.494,0.9284,135.4,98.3,0.467
42.68,32076.0,35184.7,0.3193,0.4521,135.4,98.3,0.467
42.7,32054.5,35076.0,0.2309,0.1849,135.4,98.3,0.467
42.72,32027.1,35013.0,0.1175,0.0302,135.4,98.3,0.467
42.74,32061.6,34996.2,0.2599,-0.0112,135.4,98.3,0.467
42.76,31974.5,34826.4,-0.0998,-0.4284,135.4,98.3,0.467
42.78,31897.7,34775.6,-0.4166,-0.5534,135.4,98.3,0.467
42.8,31852.6,34751.5,-0.6031,-0.6127,135.4,98.3,0.467
42.82,31872.0,34639.7,-0.5228,-0.8874,135.4,98.3,0.467
42.84,31812.3,34606.8,-0.7695,-0.9681,135.4,98.3,0.467
42.86,31871.1,34573.0,-0.5266,-1.0513,135.4,98.3,0.467
42.88,31765.8,34540.2,-0.9612,-1.1319,135.4,98.3,0.467
42.9,31713.7,34533.4,-1.1765,-1.1485,135.4,98.3,0.467
42.92,31722.2,34395.5,-1.1416,-1.4875,135.4,98.3,0.467
42.94,31783.1,34358.6,-0.8899,-1.5783,135.4,98.3,0.467
42.96,31777.4,34768.9,-0.9134,-0.5698,135.4,98.3,0.467
42.98,32023.0,35017.1,0.1007,0.0401,135.4,98.3,0.467
43.0,32131.3,35379.9,0.548,0.9319,135.4,98.3,0.467
43.02,32276.8,35664.1,1.1484,1.6303,135.4,98.3,0.467
43.04,32321.7,35785.6,1.3341,1.9289,135.4,98.3,0.467
43.06,32347.4,35778.2,1.4399,1.9109,135.4,98.3,0.467
43.08,32233.4,35438.0,0.9693,1.0747,135.4,98.3,0.467
43.1,32134.7,35225.4,0.562,0.5522,135.4,98.3,0.467
43.12,32036.1,35221.0,0.1546,0.5412,135.4,98.3,0.467
43.14,31994.5,35113.3,-0.0172,0.2765,135.4,98.3,0.467
43.16,32115.5,35089.4,0.4827,0.2179,135.4,98.3,0.467
43.18,31998.1,34961.2,-0.0022,-0.0972,135.4,98.3,0.467
43.2,31947.6,34995.6,-0.2109,-0.0127,135.4,98.3,0.467
43.22,31956.1,34846.8,-0.1758,-0.3783,135.4,98.3,0.467
43.24,31917.6,34745.4,-0.3344,-0.6276,135.4,98.3,0.467
43.26,31847.9,34713.3,-0.6225,-0.7064,135.4,98.3,0.467
43.28,31937.0,34613.8,-0.2546,-0.9509,135.4,98.3,0.467
43.3,31855.8,34561.4,-0.5897,-1.0798,135.4,98.3,0.467
43.32,31849.6,34632.1,-0.6154,-0.906,135.4,98.3,0.467
43.34,31757.6,34379.6,-0.9951,-1.5266,135.4,98.3,0.467
43.36,31733.4,34419.0,-1.0952,-1.4296,135.4,98.3,0.467
43.38,31824.7,34569.2,-0.7184,-1.0606,135.4,98.3,0.467
43.4,31804.3,34621.5,-0.8025,-0.932,135.4,98.3,0.467
43.42,31974.6,34987.8,-0.0992,-0.0318,135.4,98.3,0.467
43.44,32057.3,35281.1,0.2424,0.689,135.4,98.3,0.467
43.46,32212.2,35645.5,0.8819,1.5847,135.4,98.3,0.467
43.48,32359.2,35643.9,1.4889,1.5807,135.4,98.3,0.467
43.5,32311.7,35629.6,1.2928,1.5456,135.4,98.3,0.467
43.52,32250.4,35550.9,1.0395,1.3521,135.4,98.3,0.467
43.54,32161.8,35449.6,0.6737,1.1032,135.4,98.3,0.467
43.56,32111.2,35154.3,0.4649,0.3773,135.4,98.3,0.467
43.58,32008.4,35100.5,0.0402,0.2452,135.4,98.3,0.467
43.6,31984.8,35033.0,-0.0572,0.0794,135.4,98.3,0.467
43.62,32018.7,35128.1,0.0828,0.3129,135.4,98.3,0.467
43.64,31972.8,34893.9,-0.1069,-0.2625,135.4,98.3,0.467
43.66,31901.9,34840.5,-0.3995,-0.3938,135.4,98.3,0.467
43.68,31829.3,34715.0,-0.6992,-0.7022,135.4,98.3,0.467
43.7,31867.0,34638.6,-0.5437,-0.8899,135.4,98.3,0.467
43.72,31931.1,34611.8,-0.2789,-0.956,135.4,98.3,0.467
43.74,31869.9,34662.5,-0.5318,-0.8314,135.4,98.3,0.467
43.76,31831.8,34598.4,-0.689,-0.9888,135.4,98.3,0.467
43.78,31834.9,34594.3,-0.676,-0.999,135.4,98.3,0.467
43.8,31819.5,34443.9,-0.7398,-1.3686,135.4,98.3,0.467
43.82,31834.9,34552.8,-0.6763,-1.101,135.4,98.3,0.467
43.84,31727.6,34691.3,-1.1192,-0.7606,135.4,98.3,0.467
43.86,31995.5,34994.5,-0.013,-0.0153,135.4,98.3,0.467
43.88,32154.7,35305.3,0.6445,0.7486,135.4,98.3,0.467
43.9,32324.0,35607.5,1.3435,1.4913,135.4,98.3,0.467
43.92,32318.3,35705.3,1.32,1.7316,135.4,98.3,0.467
43.94,32306.4,35704.3,1.2707,1.7291,135.4,98.3,0.467
43.96,32313.9,35573.9,1.3019,1.4086,135.4,98.3,0.467
43.98,32198.8,35422.7,0.8264,1.037,135.4,98.3,0.467
44.0,32100.8,35305.7,0.4219,0.7495,135.4,98.3,0.467
44.02,32088.2,35142.7,0.37,0.3489,135.4,98.3,0.467
44.04,31950.3,35116.9,-0.1994,0.2855,135.4,98.3,0.467
44.06,32024.7,35102.4,0.1075,0.25,135.4,98.3,0.467
44.08,32076.7,34956.5,0.3224,-0.1086,135.4,98.3,0.467
44.1,31941.2,34884.7,-0.2371,-0.2853,135.4,98.3,0.467
44.12,31868.4,34716.9,-0.5379,-0.6975,135.4,98.3,0.467
44.14,31796.0,34717.1,-0.8369,-0.697,135.4,98.3,0.467
44.16,31885.2,34643.1,-0.4686,-0.879,135.4,98.3,0.467
44.18,31862.5,34643.6,-0.5623,-0.8778,135.4,98.3,0.467
44.2,31768.3,34637.7,-0.951,-0.8924,135.4,98.3,0.467
44.22,31875.0,34612.5,-0.5103,-0.9543,135.4,98.3,0.467
44.24,31698.1,34377.8,-1.2409,-1.5311,135.4,98.3,0.467
44.26,31723.4,34506.0,-1.1364,-1.2159,135.4,98.3,0.467
44.28,31796.7,34653.8,-0.834,-0.8527,135.4,98.3,0.467
44.3,31964.9,34950.8,-0.1392,-0.1228,135.4,98.3,0.467
44.32,32094.8,35282.7,0.3972,0.6931,135.4,98.3,0.467
44.34,32321.4,35449.7,1.3326,1.1033,135.4,98.3,0.467
44.36,32246.0,35720.6,1.0214,1.7693,135.4,98.3,0.467
44.38,32250.9,35702.6,1.0416,1.725,135.4,98.3,0.467
44.4,32258.2,35603.2,1.0717,1.4808,135.4,98.3,0.467
44.42,32250.1,35457.1,1.0384,1.1216,135.4,98.3,0.467
44.44,32025.7,35315.7,0.1118,0.774,135.4,98.3,0.467
44.46,32021.3,35126.3,0.0938,0.3085,135.4,98.3,0.467
44.48,32016.0,35065.9,0.0716,0.1601,135.4,98.3,0.467
44.5,32023.1,35138.3,0.101,0.3381,135.4,98.3,0.467
44.52,31963.9,34946.0,-0.1435,-0.1345,135.4,98.3,0.467
44.54,31871.9,34793.7,-0.5232,-0.5087,135.4,98.3,0.467
44.56,31899.3,34788.9,-0.4103,-0.5206,135.4,98.3,0.467
44.58,31854.3,34804.6,-0.5958,-0.4822,135.4,98.3,0.467
44.6,31879.1,34597.1,-0.4936,-0.9919,135.4,98.3,0.467
44.62,31862.8,34665.4,-0.561,-0.8241,135.4,98.3,0.467
44.64,31802.2,34684.3,-0.811,-0.7777,135.4,98.3,0.467
44.66,31827.7,34529.6,-0.706,-1.158,135.4,98.3,0.467
44.68,31852.7,34412.1,-0.6025,-1.4468,135.4,98.3,0.467
44.7,31716.0,34442.3,-1.1671,-1.3724,135.4,98.3,0.467
44.72,31847.1,34570.1,-0.6258,-1.0584,135.4,98.3,0.467
44.74,32039.2,34799.2,0.1675,-0.4952,135.4,98.3,0.467
44.76,32036.1,35230.6,0.1546,0.565,135.4,98.3,0.467
44.78,32215.8,35498.9,0.8968,1.2243,135.4,98.3,0.467
44.8,32335.9,35643.4,1.3925,1.5794,135.4,98.3,0.467
44.82,32348.7,35685.2,1.4455,1.6821,135.4,98.3,0.467
44.84,32347.3,35703.8,1.4399,1.7278,135.4,98.3,0.467
44.86,32234.1,35510.2,0.9723,1.2521,135.4,98.3,0.467
