timestamp,raw_red,raw_ir,filtered_red,filtered_ir,heart_rate,spo2,ac_dc_ratio
0.0,32146.7,35196.9,0.2183,0.2285,146.6,96.7,0.532
0.02,32158.7,35463.9,0.2344,0.5449,146.6,96.7,0.532
0.04,32223.7,35753.1,0.3222,0.8876,146.6,96.7,0.532
0.06,32411.6,35638.8,0.576,0.7522,146.6,96.7,0.532
0.08,32251.3,35554.4,0.3595,0.6521,146.6,96.7,0.532
0.1,32077.0,35329.5,0.1242,0.3857,146.6,96.7,0.532
0.12,32187.4,35250.9,0.2732,0.2924,146.6,96.7,0.532
0.14,31987.4,35093.3,0.0032,0.1057,146.6,96.7,0.532
0.16,31990.0,35116.9,0.0067,0.1337,146.6,96.7,0.532
0.18,32002.1,34948.5,0.023,-0.0658,146.6,96.7,0.532
0.2,32029.0,34979.3,0.0593,-0.0293,146.6,96.7,0.532
0.22,31892.2,34739.3,-0.1254,-0.3137,146.6,96.7,0.532
0.24,31842.7,34781.1,-0.1923,-0.2643,146.6,96.7,0.532
0.26,31793.0,34670.7,-0.2594,-0.3951,146.6,96.7,0.532
0.28,31764.4,34675.2,-0.2979,-0.3897,146.6,96.7,0.532
0.3,31704.3,34513.9,-0.3791,-0.5808,146.6,96.7,0.532
0.32,31718.7,34598.9,-0.3597,-0.4802,146.6,96.7,0.532
0.34,31779.6,34489.4,-0.2775,-0.6099,146.6,96.7,0.532
0.36,31727.1,34471.4,-0.3484,-0.6312,146.6,96.7,0.532
0.38,31792.0,34624.0,-0.2607,-0.4503,146.6,96.7,0.532
0.4,32014.5,34971.1,0.0397,-0.0391,146.6,96.7,0.532
0.42,32108.7,35344.9,0.1669,0.4039,146.6,96.7,0.532
0.44,32359.3,35704.9,0.5054,0.8305,146.6,96.7,0.532
0.46,32380.4,35787.0,0.5339,0.9278,146.6,96.7,0.532
0.48,32306.2,35626.2,0.4337,0.7373,146.6,96.7,0.532
0.5,32266.0,35509.7,0.3793,0.5991,146.6,96.7,0.532
0.52,32097.3,35307.6,0.1515,0.3597,146.6,96.7,0.532
0.54,31995.2,35106.7,0.0136,0.1216,146.6,96.7,0.532
0.56,32085.4,35143.3,0.1355,0.165,146.6,96.7,0.532
0.58,32011.8,35062.8,0.0361,0.0696,146.6,96.7,0.532
0.6,31944.9,34896.8,-0.0543,-0.1272,146.6,96.7,0.532
0.62,31931.4,34775.7,-0.0725,-0.2707,146.6,96.7,0.532
0.64,31753.2,34700.3,-0.3131,-0.36,146.6,96.7,0.532
0.66,31892.0,34648.8,-0.1257,-0.421,146.6,96.7,0.532
0.68,31837.5,34613.0,-0.1992,-0.4634,146.6,96.7,0.532
0.7,31755.7,34672.3,-0.3097,-0.3931,146.6,96.7,0.532
0.72,31821.3,34532.9,-0.2212,-0.5584,146.6,96.7,0.532
0.74,31752.8,34454.2,-0.3136,-0.6516,146.6,96.7,0.532
0.76,31761.7,34398.6,-0.3016,-0.7175,146.6,96.7,0.532
0.78,31817.4,34527.8,-0.2265,-0.5644,146.6,96.7,0.532
0.8,31860.7,34893.1,-0.168,-0.1315,146.6,96.7,0.532
0.82,32131.2,35147.4,0.1974,0.1699,146.6,96.7,0.532
0.84,32223.0,35586.0,0.3213,0.6896,146.6,96.7,0.532
0.86,32345.6,35801.3,0.4869,0.9448,146.6,96.7,0.532
0.88,32300.9,35691.9,0.4265,0.8151,146.6,96.7,0.532
0.9,32313.5,35558.7,0.4435,0.6573,146.6,96.7,0.532
0.92,32136.3,35414.6,0.2042,0.4864,146.6,96.7,0.532
0.94,32083.0,35221.1,0.1322,0.2572,146.6,96.7,0.532
0.96,32001.0,35107.1,0.0215,0.122,146.6,96.7,0.532
0.98,32130.7,35133.1,0.1966,0.1529,146.6,96.7,0.532
1.0,32046.3,34970.2,0.0827,-0.0401,146.6,96.7,0.532
1.02,31995.4,34977.5,0.0139,-0.0315,146.6,96.7,0.532
1.04,31787.6,34822.0,-0.2667,-0.2157,146.6,96.7,0.532
1.06,31861.6,34603.3,-0.1667,-0.4749,146.6,96.7,0.532
1.08,31785.9,34654.7,-0.2689,-0.414,146.6,96.7,0.532
1.1,31851.2,34615.9,-0.1808,-0.46,146.6,96.7,0.532
1.12,31761.8,34593.6,-0.3016,-0.4865,146.6,96.7,0.532
1.14,31776.5,34520.9,-0.2817,-0.5726,146.6,96.7,0.532
1.16,31589.5,34485.0,-0.5342,-0.6151,146.6,96.7,0.532
1.18,31749.6,34487.5,-0.318,-0.6121,146.6,96.7,0.532
1.2,31797.0,34731.3,-0.254,-0.3233,146.6,96.7,0.532
1.22,32048.1,35002.1,0.0851,-0.0024,146.6,96.7,0.532
1.24,32207.1,35353.8,0.2998,0.4144,146.6,96.7,0.532
1.26,32275.0,35634.4,0.3914,0.747,146.6,96.7,0.532
1.28,32298.9,35782.0,0.4238,0.9218,146.6,96.7,0.532
1.3,32363.3,35589.1,0.5107,0.6933,146.6,96.7,0.532
1.32,32176.3,35443.9,0.2583,0.5213,146.6,96.7,0.532
1.34,32163.6,35218.5,0.2411,0.2541,146.6,96.7,0.532
1.36,32017.0,35129.2,0.0431,0.1482,146.6,96.7,0.532
1.38,32024.5,35144.3,0.0533,0.1662,146.6,96.7,0.532
1.4,32029.9,35084.2,0.0606,0.0949,146.6,96.7,0.532
1.42,31992.5,35013.2,0.01,0.0108,146.6,96.7,0.532
1.44,31868.1,34817.0,-0.158,-0.2217,146.6,96.7,0.532
1.46,31908.6,34788.1,-0.1032,-0.256,146.6,96.7,0.532
1.48,31770.5,34749.4,-0.2897,-0.3018,146.6,96.7,0.532
1.5,31904.4,34631.2,-0.1089,-0.4418,146.6,96.7,0.532
1.52,31810.4,34680.5,-0.2358,-0.3834,146.6,96.7,0.532
1.54,31835.9,34522.9,-0.2015,-0.5701,146.6,96.7,0.532
1.56,31685.1,34587.9,-0.4051,-0.4931,146.6,96.7,0.532
1.58,31698.6,34386.6,-0.3868,-0.7317,146.6,96.7,0.532
1.6,31654.4,34605.7,-0.4465,-0.4721,146.6,96.7,0.532
1.62,31888.4,34827.8,-0.1306,-0.2089,146.6,96.7,0.532
1.64,32090.9,35188.2,0.1429,0.2183,146.6,96.7,0.532
1.66,32327.4,35558.9,0.4622,0.6574,146.6,96.7,0.532
1.68,32290.7,35668.4,0.4127,0.7873,146.6,96.7,0.532
1.7,32313.9,35759.2,0.4441,0.8949,146.6,96.7,0.532
1.72,32195.7,35579.9,0.2844,0.6823,146.6,96.7,0.532
1.74,32192.1,35426.0,0.2795,0.5,146.6,96.7,0.532
1.76,31977.8,35149.0,-0.0098,0.1717,146.6,96.7,0.532
1.78,32054.6,35135.2,0.0939,0.1554,146.6,96.7,0.532
1.8,32031.6,35085.6,0.0628,0.0967,146.6,96.7,0.532
1.82,32020.1,34976.8,0.0472,-0.0323,146.6,96.7,0.532
1.84,31984.4,34863.7,-0.001,-0.1664,146.6,96.7,0.532
1.86,31905.0,34763.6,-0.1081,-0.2849,146.6,96.7,0.532
1.88,31922.4,34703.3,-0.0846,-0.3564,146.6,96.7,0.532
1.9,31873.7,34669.7,-0.1504,-0.3962,146.6,96.7,0.532
1.92,31923.0,34634.1,-0.0839,-0.4384,146.6,96.7,0.532
1.94,31679.1,34570.6,-0.4131,-0.5136,146.6,96.7,0.532
1.96,31715.4,34509.5,-0.3642,-0.5861,146.6,96.7,0.532
1.98,31763.5,34390.7,-0.2993,-0.7268,146.6,96.7,0.532
2.0,31792.7,34442.9,-0.2598,-0.665,146.6,96.7,0.532
2.02,31928.4,34719.8,-0.0766,-0.3369,146.6,96.7,0.532
2.04,32007.6,35052.5,0.0305,0.0574,146.6,96.7,0.532
2.06,32178.5,35327.7,0.2612,0.3835,146.6,96.7,0.532
2.08,32301.5,35733.6,0.4273,0.8645,146.6,96.7,0.532
2.1,32316.9,35703.5,0.4481,0.8289,146.6,96.7,0.532
2.12,32373.5,35608.0,0.5245,0.7157,146.6,96.7,0.532
2.14,32260.0,35474.6,0.3712,0.5576,146.6,96.7,0.532
2.16,32085.1,35283.5,0.135,0.3312,146.6,96.7,0.532
2.18,32074.5,35112.4,0.1207,0.1284,146.6,96.7,0.532
2.2,32002.1,35151.7,0.023,0.175,146.6,96.7,0.532
2.22,32089.3,35035.6,0.1408,0.0373,146.6,96.7,0.532
2.24,31953.3,34968.1,-0.043,-0.0426,146.6,96.7,0.532
2.26,31945.4,34733.2,-0.0536,-0.321,146.6,96.7,0.532
2.28,31909.8,34698.6,-0.1016,-0.362,146.6,96.7,0.532
2.3,31849.9,34662.4,-0.1825,-0.4049,146.6,96.7,0.532
2.32,31866.4,34669.8,-0.1603,-0.3961,146.6,96.7,0.532
2.34,31880.1,34680.3,-0.1417,-0.3837,146.6,96.7,0.532
2.36,31873.9,34595.6,-0.1502,-0.484,146.6,96.7,0.532
2.38,31818.3,34539.4,-0.2253,-0.5506,146.6,96.7,0.532
2.4,31634.1,34470.0,-0.4739,-0.6329,146.6,96.7,0.532
2.42,31822.8,34557.9,-0.2191,-0.5287,146.6,96.7,0.532
2.44,32010.5,34915.6,0.0344,-0.1049,146.6,96.7,0.532
2.46,32159.1,35198.7,0.2349,0.2306,146.6,96.7,0.532
2.48,32297.1,35630.5,0.4213,0.7423,146.6,96.7,0.532
2.5,32386.1,35817.5,0.5415,0.9639,146.6,96.7,0.532
2.52,32345.9,35762.6,0.4872,0.8989,146.6,96.7,0.532
2.54,32243.1,35508.9,0.3484,0.5983,146.6,96.7,0.532
2.56,32112.4,35351.1,0.1719,0.4113,146.6,96.7,0.532
2.58,32085.9,35208.7,0.1362,0.2424,146.6,96.7,0.532
2.6,32020.1,35095.6,0.0473,0.1085,146.6,96.7,0.532
2.62,31965.0,35046.4,-0.0271,0.0501,146.6,96.7,0.532
2.64,32020.0,35001.1,0.0472,-0.0035,146.6,96.7,0.532
2.66,31899.3,34870.3,-0.1158,-0.1585,146.6,96.7,0.532
2.68,31836.4,34817.3,-0.2007,-0.2213,146.6,96.7,0.532
2.7,31843.9,34673.5,-0.1907,-0.3917,146.6,96.7,0.532
2.72,31824.0,34730.0,-0.2175,-0.3248,146.6,96.7,0.532
2.74,31792.3,34581.0,-0.2604,-0.5013,146.6,96.7,0.532
2.76,31845.7,34695.6,-0.1883,-0.3656,146.6,96.7,0.532
2.78,31749.3,34532.1,-0.3184,-0.5593,146.6,96.7,0.532
2.8,31767.0,34462.7,-0.2945,-0.6415,146.6,96.7,0.532
2.82,31733.1,34479.9,-0.3403,-0.6212,146.6,96.7,0.532
2.84,31839.9,34579.2,-0.1961,-0.5035,146.6,96.7,0.532
2.86,31975.4,35101.4,-0.0131,0.1153,146.6,96.7,0.532
2.88,32162.5,35490.2,0.2396,0.5761,146.6,96.7,0.532
2.9,32272.8,35692.8,0.3886,0.8162,146.6,96.7,0.532
2.92,32300.8,35734.5,0.4264,0.8656,146.6,96.7,0.532
2.94,32373.8,35618.2,0.5249,0.7278,146.6,96.7,0.532
2.96,32212.5,35394.7,0.307,0.4629,146.6,96.7,0.532
2.98,32085.1,35326.8,0.1351,0.3825,146.6,96.7,0.532
3.0,32031.6,35138.4,0.0628,0.1592,146.6,96.7,0.532
3.02,32015.1,35062.4,0.0405,0.0691,146.6,96.7,0.532
3.04,32022.0,35053.1,0.0499,0.0581,146.6,96.7,0.532
3.06,31962.1,34937.0,-0.031,-0.0795,146.6,96.7,0.532
3.08,31944.8,34754.4,-0.0544,-0.2958,146.6,96.7,0.532
3.1,31933.3,34706.2,-0.0699,-0.3529,146.6,96.7,0.532
3.12,31823.3,34634.0,-0.2184,-0.4386,146.6,96.7,0.532
3.14,31779.6,34638.6,-0.2775,-0.4331,146.6,96.7,0.532
3.16,31766.9,34603.7,-0.2947,-0.4744,146.6,96.7,0.532
3.18,31814.1,34585.1,-0.2308,-0.4965,146.6,96.7,0.532
3.2,31780.0,34498.8,-0.277,-0.5988,146.6,96.7,0.532
3.22,31686.8,34499.6,-0.4027,-0.5978,146.6,96.7,0.532
3.24,31803.1,34596.5,-0.2457,-0.4829,146.6,96.7,0.532
3.26,31882.7,34861.2,-0.1382,-0.1693,146.6,96.7,0.532
3.28,32186.5,35313.6,0.2719,0.3669,146.6,96.7,0.532
3.3,32279.3,35589.9,0.3973,0.6942,146.6,96.7,0.532
3.32,32342.8,35666.9,0.483,0.7855,146.6,96.7,0.532
3.34,32377.6,35701.5,0.53,0.8265,146.6,96.7,0.532
3.36,32277.6,35556.8,0.395,0.655,146.6,96.7,0.532
3.38,32169.0,35323.7,0.2483,0.3788,146.6,96.7,0.532
3.4,32026.1,35123.0,0.0555,0.141,146.6,96.7,0.532
3.42,32168.3,35146.7,0.2474,0.1691,146.6,96.7,0.532
3.44,32001.7,34999.6,0.0225,-0.0053,146.6,96.7,0.532
3.46,32049.4,35029.2,0.0869,0.0298,146.6,96.7,0.532
3.48,31925.4,34886.8,-0.0806,-0.139,146.6,96.7,0.532
3.5,31996.0,34781.5,0.0148,-0.2638,146.6,96.7,0.532
3.52,31848.8,34774.7,-0.184,-0.2718,146.6,96.7,0.532
3.54,31890.3,34767.5,-0.128,-0.2804,146.6,96.7,0.532
3.56,31823.5,34663.6,-0.2182,-0.4034,146.6,96.7,0.532
3.58,31814.4,34584.4,-0.2304,-0.4973,146.6,96.7,0.532
3.6,31822.7,34440.9,-0.2193,-0.6673,146.6,96.7,0.532
3.62,31671.7,34424.9,-0.4232,-0.6863,146.6,96.7,0.532
3.64,31702.6,34494.7,-0.3815,-0.6036,146.6,96.7,0.532
3.66,31823.4,34740.1,-0.2183,-0.3128,146.6,96.7,0.532
3.68,32033.5,35070.7,0.0653,0.0789,146.6,96.7,0.532
3.7,32233.5,35384.1,0.3354,0.4504,146.6,96.7,0.532
3.72,32376.9,35637.7,0.5291,0.7508,146.6,96.7,0.532
3.74,32346.9,35737.7,0.4886,0.8693,146.6,96.7,0.532
3.76,32342.5,35604.6,0.4826,0.7117,146.6,96.7,0.532
3.78,32203.9,35407.8,0.2955,0.4784,146.6,96.7,0.532
3.8,32139.5,35228.5,0.2086,0.2659,146.6,96.7,0.532
3.82,32077.7,35200.4,0.125,0.2327,146.6,96.7,0.532
3.84,32098.1,35052.7,0.1527,0.0576,146.6,96.7,0.532
3.86,32056.8,34960.9,0.0969,-0.0512,146.6,96.7,0.532
3.88,31917.4,34908.8,-0.0915,-0.1129,146.6,96.7,0.532
3.9,31953.1,34742.8,-0.0432,-0.3096,146.6,96.7,0.532
3.92,31848.1,34745.1,-0.185,-0.3069,146.6,96.7,0.532
3.94,31830.1,34700.8,-0.2093,-0.3594,146.6,96.7,0.532
3.96,31841.7,34627.0,-0.1936,-0.4468,146.6,96.7,0.532
3.98,31831.9,34690.3,-0.2068,-0.3718,146.6,96.7,0.532
4.0,31821.8,34583.9,-0.2205,-0.4979,146.6,96.7,0.532
4.02,31769.6,34536.6,-0.291,-0.554,146.6,96.7,0.532
4.04,31651.1,34384.5,-0.4509,-0.7342,146.6,96.7,0.532
4.06,31783.5,34619.0,-0.2722,-0.4563,146.6,96.7,0.532
4.08,31954.2,34922.2,-0.0417,-0.097,146.6,96.7,0.532
4.1,32181.7,35289.9,0.2655,0.3387,146.6,96.7,0.532
4.12,32338.6,35611.3,0.4774,0.7195,146.6,96.7,0.532
4.14,32417.8,35825.3,0.5843,0.9732,146.6,96.7,0.532
4.16,32308.8,35739.3,0.4372,0.8712,146.6,96.7,0.532
4.18,32177.3,35569.4,0.2596,0.67,146.6,96.7,0.532
4.2,32226.6,35327.0,0.3262,0.3826,146.6,96.7,0.532
4.22,32106.7,35211.7,0.1642,0.2461,146.6,96.7,0.532
4.24,32042.9,35069.6,0.0781,0.0776,146.6,96.7,0.532
4.26,31984.3,35060.2,-0.001,0.0665,146.6,96.7,0.532
4.28,31943.2,35037.1,-0.0566,0.0391,146.6,96.7,0.532
4.3,32000.5,34749.1,0.0208,-0.3021,146.6,96.7,0.532
4.32,31817.2,34746.6,-0.2266,-0.3051,146.6,96.7,0.532
4.34,31867.0,34786.6,-0.1594,-0.2577,146.6,96.7,0.532
4.36,31881.4,34559.3,-0.14,-0.5271,146.6,96.7,0.532
4.38,31848.4,34699.1,-0.1846,-0.3614,146.6,96.7,0.532
4.4,31783.5,34538.2,-0.2722,-0.552,146.6,96.7,0.532
4.42,31774.7,34463.9,-0.2841,-0.6401,146.6,96.7,0.532
4.44,31667.8,34474.0,-0.4285,-0.6281,146.6,96.7,0.532
4.46,31824.1,34597.4,-0.2174,-0.4819,146.6,96.7,0.532
4.48,31869.1,34651.8,-0.1566,-0.4174,146.6,96.7,0.532
4.5,32017.0,35052.0,0.0431,0.0568,146.6,96.7,0.532
4.52,32242.1,35522.6,0.347,0.6145,146.6,96.7,0.532
4.54,32317.2,35768.8,0.4484,0.9062,146.6,96.7,0.532
4.56,32486.0,35771.8,0.6764,0.9097,146.6,96.7,0.532
4.58,32318.0,35644.7,0.4495,0.7592,146.6,96.7,0.532
4.6,32241.6,35471.6,0.3464,0.554,146.6,96.7,0.532
4.62,32125.0,35206.6,0.189,0.2401,146.6,96.7,0.532
4.64,32005.1,35056.0,0.027,0.0616,146.6,96.7,0.532
4.66,32125.6,35092.5,0.1897,0.1048,146.6,96.7,0.532
4.68,32028.0,35038.0,0.058,0.0402,146.6,96.7,0.532
4.7,31916.0,34878.5,-0.0932,-0.1488,146.6,96.7,0.532
4.72,31885.8,34907.8,-0.1341,-0.1141,146.6,96.7,0.532
4.74,31903.0,34734.2,-0.1108,-0.3198,146.6,96.7,0.532
4.76,31862.4,34700.6,-0.1656,-0.3596,146.6,96.7,0.532
4.78,31933.7,34633.1,-0.0694,-0.4396,146.6,96.7,0.532
4.8,31843.3,34583.6,-0.1914,-0.4983,146.6,96.7,0.532
4.82,31776.9,34599.7,-0.2811,-0.4792,146.6,96.7,0.532
4.84,31765.1,34490.3,-0.297,-0.6089,146.6,96.7,0.532
4.86,31766.9,34450.7,-0.2947,-0.6558,146.6,96.7,0.532
4.88,31796.1,34639.8,-0.2552,-0.4317,146.6,96.7,0.532
4.9,32027.8,34854.2,0.0576,-0.1776,146.6,96.7,0.532
4.92,32193.3,35285.0,0.2811,0.3329,146.6,96.7,0.532
4.94,32284.9,35615.3,0.4048,0.7243,146.6,96.7,0.532
4.96,32367.3,35762.3,0.5161,0.8985,146.6,96.7,0.532
4.98,32302.4,35706.8,0.4284,0.8328,146.6,96.7,0.532
5.0,32175.3,35433.2,0.2568,0.5085,146.6,96.7,0.532
5.02,32061.0,35347.4,0.1025,0.4068,146.6,96.7,0.532
5.04,32063.8,35149.6,0.1063,0.1725,146.6,96.7,0.532
5.06,32008.6,35160.6,0.0318,0.1855,146.6,96.7,0.532
5.08,32103.4,35059.0,0.1597,0.0651,146.6,96.7,0.532
5.1,32011.9,34905.0,0.0362,-0.1174,146.6,96.7,0.532
5.12,31986.3,34843.0,0.0017,-0.1909,146.6,96.7,0.532
5.14,31792.4,34731.5,-0.2602,-0.323,146.6,96.7,0.532
5.16,31766.6,34751.1,-0.295,-0.2998,146.6,96.7,0.532
5.18,31758.4,34751.8,-0.306,-0.2989,146.6,96.7,0.532
5.2,31832.2,34676.0,-0.2065,-0.3887,146.6,96.7,0.532
5.22,31817.4,34609.6,-0.2265,-0.4674,146.6,96.7,0.532
5.24,31807.5,34459.4,-0.2399,-0.6454,146.6,96.7,0.532
5.26,31654.1,34504.3,-0.447,-0.5922,146.6,96.7,0.532
5.28,31765.9,34529.6,-0.2959,-0.5622,146.6,96.7,0.532
5.3,31887.1,34760.1,-0.1322,-0.2891,146.6,96.7,0.532
5.32,32096.3,35155.1,0.1502,0.179,146.6,96.7,0.532
5.34,32285.2,35511.1,0.4052,0.6009,146.6,96.7,0.532
5.36,32387.0,35717.9,0.5427,0.8459,146.6,96.7,0.532
5.38,32343.7,35851.9,0.4843,1.0047,146.6,96.7,0.532
5.4,32360.0,35579.6,0.5063,0.682,146.6,96.7,0.532
5.42,32208.1,35414.4,0.3012,0.4863,146.6,96.7,0.532
5.44,32114.3,35279.9,0.1745,0.3269,146.6,96.7,0.532
5.46,32045.6,35101.4,0.0817,0.1154,146.6,96.7,0.532
5.48,32061.0,35015.5,0.1025,0.0135,146.6,96.7,0.532
5.5,32033.0,35011.4,0.0648,0.0087,146.6,96.7,0.532
5.52,31928.8,34807.0,-0.076,-0.2336,146.6,96.7,0.532
5.54,31869.3,34834.5,-0.1564,-0.2009,146.6,96.7,0.532
5.56,31853.8,34697.2,-0.1773,-0.3637,146.6,96.7,0.532
5.58,31845.9,34655.2,-0.1879,-0.4134,146.6,96.7,0.532
5.6,31848.8,34696.9,-0.184,-0.364,146.6,96.7,0.532
5.62,31801.3,34533.7,-0.2482,-0.5573,146.6,96.7,0.532
5.64,31797.1,34591.0,-0.2539,-0.4895,146.6,96.7,0.532
5.66,31765.7,34491.6,-0.2962,-0.6073,146.6,96.7,0.532
5.68,31655.5,34449.5,-0.445,-0.6571,146.6,96.7,0.532
5.7,31880.5,34607.1,-0.1412,-0.4704,146.6,96.7,0.532
5.72,31952.5,34960.8,-0.0441,-0.0513,146.6,96.7,0.532
5.74,32192.1,35336.3,0.2796,0.3938,146.6,96.7,0.532
5.76,32362.4,35610.8,0.5095,0.719,146.6,96.7,0.532
5.78,32417.7,35750.4,0.5842,0.8845,146.6,96.7,0.532
5.8,32321.6,35641.5,0.4545,0.7554,146.6,96.7,0.532
5.82,32186.1,35471.1,0.2715,0.5534,146.6,96.7,0.532
5.84,32163.8,35331.4,0.2414,0.3879,146.6,96.7,0.532
5.86,32059.7,35160.1,0.1008,0.1849,146.6,96.7,0.532
5.88,32046.3,35090.0,0.0826,0.1018,146.6,96.7,0.532
5.9,31993.1,35052.0,0.0108,0.0568,146.6,96.7,0.532
5.92,31949.2,35043.5,-0.0484,0.0468,146.6,96.7,0.532
5.94,31885.6,34901.9,-0.1344,-0.1211,146.6,96.7,0.532
5.96,31852.8,34773.8,-0.1786,-0.2729,146.6,96.7,0.532
5.98,31818.2,34714.9,-0.2254,-0.3426,146.6,96.7,0.532
6.0,31827.3,34649.2,-0.2131,-0.4206,146.6,96.7,0.532
6.02,31843.4,34672.4,-0.1913,-0.3931,146.6,96.7,0.532
6.04,31709.7,34494.3,-0.3718,-0.6041,146.6,96.7,0.532
6.06,31693.7,34459.8,-0.3935,-0.6449,146.6,96.7,0.532
6.08,31735.9,34493.7,-0.3365,-0.6048,146.6,96.7,0.532
6.1,31816.6,34501.2,-0.2275,-0.5959,146.6,96.7,0.532
6.12,31872.6,34807.0,-0.1519,-0.2336,146.6,96.7,0.532
6.14,32117.1,35070.9,0.1783,0.0792,146.6,96.7,0.532
6.16,32195.9,35398.6,0.2847,0.4675,146.6,96.7,0.532
6.18,32315.9,35696.8,0.4468,0.8209,146.6,96.7,0.532
6.2,32341.9,35746.3,0.4819,0.8795,146.6,96.7,0.532
6.22,32267.5,35559.6,0.3814,0.6583,146.6,96.7,0.532
6.24,32083.0,35437.2,0.1323,0.5133,146.6,96.7,0.532
6.26,32119.2,35169.1,0.1811,0.1956,146.6,96.7,0.532
6.28,31988.6,35151.1,0.0047,0.1742,146.6,96.7,0.532
6.3,32010.7,35202.2,0.0346,0.2348,146.6,96.7,0.532
6.32,32087.5,35060.2,0.1383,0.0666,146.6,96.7,0.532
6.34,31923.2,34958.4,-0.0835,-0.0541,146.6,96.7,0.532
6.36,31822.3,34807.8,-0.2198,-0.2326,146.6,96.7,0.532
6.38,31844.4,34681.1,-0.19,-0.3827,146.6,96.7,0.532
6.4,31789.7,34668.9,-0.2638,-0.3972,146.6,96.7,0.532
6.42,31828.3,34672.9,-0.2118,-0.3924,146.6,96.7,0.532
6.44,31815.6,34571.3,-0.2288,-0.5128,146.6,96.7,0.532
6.46,31738.8,34515.5,-0.3326,-0.5789,146.6,96.7,0.532
6.48,31693.6,34456.6,-0.3937,-0.6488,146.6,96.7,0.532
6.5,31768.1,34475.6,-0.293,-0.6262,146.6,96.7,0.532
6.52,31834.7,34698.8,-0.2031,-0.3617,146.6,96.7,0.532
6.54,32019.1,34989.2,0.0459,-0.0176,146.6,96.7,0.532
6.56,32189.1,35286.5,0.2755,0.3347,146.6,96.7,0.532
6.58,32318.5,35614.7,0.4502,0.7236,146.6,96.7,0.532
6.6,32358.8,35766.0,0.5046,0.903,146.6,96.7,0.532
6.62,32297.5,35708.3,0.4219,0.8345,146.6,96.7,0.532
6.64,32302.8,35485.5,0.429,0.5705,146.6,96.7,0.532
6.66,32128.3,35312.6,0.1934,0.3656,146.6,96.7,0.532
6.68,32169.7,35042.6,0.2493,0.0456,146.6,96.7,0.532
6.7,32002.4,35105.2,0.0234,0.1198,146.6,96.7,0.532
6.72,31999.1,34987.9,0.0189,-0.0192,146.6,96.7,0.532
6.74,31957.3,34910.2,-0.0376,-0.1112,146.6,96.7,0.532
6.76,31935.8,34914.5,-0.0666,-0.1062,146.6,96.7,0.532
6.78,32028.3,34754.3,0.0584,-0.296,146.6,96.7,0.532
6.8,31730.2,34612.7,-0.3441,-0.4637,146.6,96.7,0.532
6.82,31837.9,34639.3,-0.1987,-0.4323,146.6,96.7,0.532
6.84,31818.5,34606.0,-0.2249,-0.4717,146.6,96.7,0.532
6.86,31824.1,34618.2,-0.2174,-0.4572,146.6,96.7,0.532
6.88,31704.5,34447.3,-0.3789,-0.6598,146.6,96.7,0.532
6.9,31763.0,34475.4,-0.2999,-0.6264,146.6,96.7,0.532
6.92,31791.8,34543.1,-0.2609,-0.5463,146.6,96.7,0.532
6.94,31985.2,34854.1,0.0001,-0.1778,146.6,96.7,0.532
6.96,32087.3,35146.9,0.138,0.1692,146.6,96.7,0.532
6.98,32249.6,35484.8,0.3572,0.5697,146.6,96.7,0.532
7.0,32338.7,35693.0,0.4774,0.8164,146.6,96.7,0.532
7.02,32341.7,35619.2,0.4816,0.7289,146.6,96.7,0.532
7.04,32281.9,35550.1,0.4007,0.6471,146.6,96.7,0.532
7.06,32169.2,35414.1,0.2487,0.4859,146.6,96.7,0.532
7.08,32083.0,35177.4,0.1323,0.2054,146.6,96.7,0.532
7.1,32066.8,35128.8,0.1104,0.1478,146.6,96.7,0.532
7.12,31948.3,34958.7,-0.0497,-0.0537,146.6,96.7,0.532
7.14,32035.1,34963.4,0.0676,-0.0482,146.6,96.7,0.532
7.16,31976.0,34938.8,-0.0122,-0.0773,146.6,96.7,0.532
7.18,31915.6,34746.9,-0.0938,-0.3047,146.6,96.7,0.532
7.2,31859.2,34699.7,-0.17,-0.3607,146.6,96.7,0.532
7.22,31755.0,34585.1,-0.3107,-0.4965,146.6,96.7,0.532
7.24,31857.4,34660.7,-0.1724,-0.4069,146.6,96.7,0.532
7.26,31802.4,34618.2,-0.2467,-0.4572,146.6,96.7,0.532
7.28,31759.4,34537.4,-0.3048,-0.553,146.6,96.7,0.532
7.3,31740.6,34491.5,-0.3301,-0.6074,146.6,96.7,0.532
7.32,31751.2,34521.8,-0.3158,-0.5714,146.6,96.7,0.532
7.34,31778.6,34680.9,-0.2788,-0.3829,146.6,96.7,0.532
7.36,32058.7,35094.8,0.0995,0.1075,146.6,96.7,0.532
7.38,32311.9,35415.7,0.4413,0.4878,146.6,96.7,0.532
7.4,32334.6,35658.8,0.472,0.7759,146.6,96.7,0.532
7.42,32438.4,35717.9,0.6121,0.8459,146.6,96.7,0.532
7.44,32352.8,35704.4,0.4966,0.8299,146.6,96.7,0.532
7.46,32185.2,35443.8,0.2703,0.5212,146.6,96.7,0.532
7.48,32138.0,35238.2,0.2066,0.2775,146.6,96.7,0.532
7.5,32062.7,35151.6,0.1048,0.1748,146.6,96.7,0.532
7.52,31944.2,35111.7,-0.0551,0.1276,146.6,96.7,0.532
7.54,31977.9,35045.4,-0.0096,0.049,146.6,96.7,0.532
7.56,32004.2,34940.5,0.0258,-0.0753,146.6,96.7,0.532
7.58,31938.2,34815.4,-0.0633,-0.2236,146.6,96.7,0.532
7.6,31892.3,34720.5,-0.1253,-0.336,146.6,96.7,0.532
7.62,31980.1,34667.2,-0.0067,-0.3992,146.6,96.7,0.532
7.64,31790.0,34682.0,-0.2634,-0.3816,146.6,96.7,0.532
7.66,31816.9,34652.5,-0.2272,-0.4166,146.6,96.7,0.532
7.68,31768.9,34527.0,-0.2919,-0.5653,146.6,96.7,0.532
7.7,31754.7,34489.9,-0.311,-0.6093,146.6,96.7,0.532
7.72,31675.8,34407.9,-0.4177,-0.7064,146.6,96.7,0.532
7.74,31727.3,34570.7,-0.3481,-0.5136,146.6,96.7,0.532
7.76,31908.3,34758.7,-0.1037,-0.2908,146.6,96.7,0.532
7.78,32058.7,35206.8,0.0994,0.2402,146.6,96.7,0.532
7.8,32251.2,35525.7,0.3593,0.6182,146.6,96.7,0.532
7.82,32251.7,35728.9,0.36,0.859,146.6,96.7,0.532
7.84,32325.0,35619.3,0.459,0.729,146.6,96.7,0.532
7.86,32281.3,35578.5,0.4,0.6807,146.6,96.7,0.532
7.88,32128.9,35386.2,0.1942,0.4528,146.6,96.7,0.532
7.9,32111.9,35153.4,0.1713,0.177,146.6,96.7,0.532
7.92,32044.1,35113.7,0.0797,0.13,146.6,96.7,0.532
7.94,31958.8,35014.6,-0.0354,0.0124,146.6,96.7,0.532
7.96,32082.3,34984.6,0.1312,-0.0231,146.6,96.7,0.532
7.98,31876.3,34935.7,-0.1469,-0.081,146.6,96.7,0.532
8.0,31973.2,34694.7,-0.016,-0.3665,146.6,96.7,0.532
8.02,31889.7,34773.5,-0.1287,-0.2733,146.6,96.7,0.532
8.04,31782.2,34757.0,-0.274,-0.2928,146.6,96.7,0.532
8.06,31820.2,34640.8,-0.2227,-0.4305,146.6,96.7,0.532
8.08,31827.0,34665.1,-0.2135,-0.4017,146.6,96.7,0.532
8.1,31783.7,34502.5,-0.272,-0.5943,146.6,96.7,0.532
8.12,31665.5,34551.3,-0.4315,-0.5366,146.6,96.7,0.532
8.14,31700.3,34495.8,-0.3845,-0.6023,146.6,96.7,0.532
8.16,31933.1,34654.7,-0.0702,-0.414,146.6,96.7,0.532
8.18,31907.2,35060.3,-0.1051,0.0667,146.6,96.7,0.532
8.2,32220.5,35433.7,0.3179,0.5092,146.6,96.7,0.532
8.22,32341.1,35579.8,0.4807,0.6822,146.6,96.7,0.532
8.24,32388.5,35773.0,0.5448,0.9112,146.6,96.7,0.532
8.26,32305.1,35672.7,0.4322,0.7923,146.6,96.7,0.532
8.28,32249.5,35475.3,0.3571,0.5585,146.6,96.7,0.532
8.3,32110.9,35198.0,0.1698,0.2299,146.6,96.7,0.532
8.32,31951.0,35110.8,-0.046,0.1265,146.6,96.7,0.532
8.34,32058.2,35066.6,0.0988,0.0741,146.6,96.7,0.532
8.36,32003.6,35032.1,0.025,0.0333,146.6,96.7,0.532
8.38,31858.1,35021.5,-0.1715,0.0207,146.6,96.7,0.532
8.4,31905.7,34837.0,-0.1072,-0.198,146.6,96.7,0.532
8.42,31808.7,34729.5,-0.2382,-0.3254,146.6,96.7,0.532
8.44,31801.5,34655.0,-0.2479,-0.4137,146.6,96.7,0.532
8.46,31823.6,34644.6,-0.2181,-0.426,146.6,96.7,0.532
8.48,31744.3,34605.4,-0.3251,-0.4724,146.6,96.7,0.532
8.5,31833.8,34529.9,-0.2043,-0.5619,146.6,96.7,0.532
8.52,31760.1,34547.2,-0.3038,-0.5414,146.6,96.7,0.532
8.54,31780.3,34419.6,-0.2765,-0.6926,146.6,96.7,0.532
8.56,31746.7,34562.3,-0.3219,-0.5235,146.6,96.7,0.532
8.58,31960.3,34824.3,-0.0335,-0.213,146.6,96.7,0.532
8.6,32188.7,35227.0,0.2749,0.2641,146.6,96.7,0.532
8.62,32296.6,35538.9,0.4206,0.6338,146.6,96.7,0.532
8.64,32397.4,35824.4,0.5568,0.9721,146.6,96.7,0.532
8.66,32304.3,35773.6,0.431,0.9119,146.6,96.7,0.532
8.68,32244.0,35526.3,0.3496,0.6189,146.6,96.7,0.532
8.7,32233.1,35347.8,0.3349,0.4073,146.6,96.7,0.532
8.72,32076.1,35144.8,0.1229,0.1667,146.6,96.7,0.532
8.74,32080.3,35083.6,0.1286,0.0943,146.6,96.7,0.532
8.76,32019.3,35136.1,0.0463,0.1565,146.6,96.7,0.532
8.78,32024.9,35045.6,0.0538,0.0493,146.6,96.7,0.532
8.8,31957.2,34932.0,-0.0376,-0.0853,146.6,96.7,0.532
8.82,31885.7,34830.2,-0.1342,-0.2061,146.6,96.7,0.532
8.84,31881.5,34627.5,-0.1399,-0.4462,146.6,96.7,0.532
8.86,31875.3,34668.9,-0.1482,-0.3971,146.6,96.7,0.532
8.88,31742.9,34611.0,-0.327,-0.4658,146.6,96.7,0.532
8.9,31869.6,34578.6,-0.1559,-0.5041,146.6,96.7,0.532
8.92,31811.5,34510.4,-0.2344,-0.5849,146.6,96.7,0.532
8.94,31677.4,34385.6,-0.4155,-0.7329,146.6,96.7,0.532
8.96,31753.7,34540.9,-0.3124,-0.5489,146.6,96.7,0.532
8.98,31762.2,34678.3,-0.301,-0.386,146.6,96.7,0.532
9.0,32120.9,35001.9,0.1833,-0.0025,146.6,96.7,0.532
9.02,32191.4,35482.0,0.2786,0.5664,146.6,96.7,0.532
9.04,32280.5,35663.3,0.3989,0.7812,146.6,96.7,0.532
9.06,32299.5,35752.8,0.4246,0.8873,146.6,96.7,0.532
9.08,32281.2,35604.5,0.3998,0.7116,146.6,96.7,0.532
9.1,32305.7,35462.1,0.433,0.5427,146.6,96.7,0.532
9.12,32160.2,35344.2,0.2365,0.403,146.6,96.7,0.532
9.14,32043.1,35127.8,0.0784,0.1466,146.6,96.7,0.532
9.16,32098.9,35077.0,0.1537,0.0864,146.6,96.7,0.532
9.18,32026.2,35019.0,0.0556,0.0177,146.6,96.7,0.532
9.2,31949.2,34988.3,-0.0485,-0.0187,146.6,96.7,0.532
9.22,31891.2,34914.1,-0.1268,-0.1066,146.6,96.7,0.532
9.24,32018.2,34783.9,0.0447,-0.2609,146.6,96.7,0.532
9.26,31842.5,34719.2,-0.1926,-0.3375,146.6,96.7,0.532
9.28,31810.4,34820.6,-0.2359,-0.2174,146.6,96.7,0.532
9.3,31830.8,34573.0,-0.2083,-0.5108,146.6,96.7,0.532
9.32,31814.2,34565.8,-0.2308,-0.5193,146.6,96.7,0.532
9.34,31722.4,34559.6,-0.3547,-0.5267,146.6,96.7,0.532
9.36,31728.1,34495.6,-0.3471,-0.6026,146.6,96.7,0.532
9.38,31853.6,34508.7,-0.1775,-0.587,146.6,96.7,0.532
9.4,31914.4,34858.8,-0.0954,-0.1721,146.6,96.7,0.532
9.42,32225.5,35269.9,0.3247,0.315,146.6,96.7,0.532
9.44,32292.8,35568.8,0.4156,0.6692,146.6,96.7,0.532
9.46,32430.8,35703.1,0.6018,0.8284,146.6,96.7,0.532
9.48,32319.2,35723.6,0.4511,0.8526,146.6,96.7,0.532
9.5,32243.3,35578.1,0.3486,0.6803,146.6,96.7,0.532
9.52,32147.0,35361.9,0.2186,0.424,146.6,96.7,0.532
9.54,32167.6,35236.8,0.2465,0.2757,146.6,96.7,0.532
9.56,32086.4,35077.4,0.1368,0.0869,146.6,96.7,0.532
9.58,32065.1,34966.9,0.1081,-0.0441,146.6,96.7,0.532
9.6,31994.7,35044.5,0.013,0.0479,146.6,96.7,0.532
9.62,31914.4,34884.6,-0.0954,-0.1416,146.6,96.7,0.532
9.64,31902.9,34697.4,-0.1109,-0.3634,146.6,96.7,0.532
9.66,31811.1,34677.0,-0.235,-0.3876,146.6,96.7,0.532
9.68,31881.5,34706.0,-0.1399,-0.3533,146.6,96.7,0.532
9.7,31802.3,34691.3,-0.2468,-0.3706,146.6,96.7,0.532
9.72,31851.0,34644.3,-0.1811,-0.4264,146.6,96.7,0.532
9.74,31783.3,34522.8,-0.2725,-0.5703,146.6,96.7,0.532
9.76,31737.6,34524.4,-0.3342,-0.5685,146.6,96.7,0.532
9.78,31796.7,34527.9,-0.2544,-0.5643,146.6,96.7,0.532
9.8,31928.9,34737.0,-0.0759,-0.3165,146.6,96.7,0.532
9.82,32041.3,35021.3,0.076,0.0204,146.6,96.7,0.532
9.84,32242.4,35381.2,0.3475,0.4469,146.6,96.7,0.532
9.86,32260.2,35724.7,0.3715,0.854,146.6,96.7,0.532
9.88,32380.7,35771.3,0.5342,0.9092,146.6,96.7,0.532
9.9,32319.7,35580.6,0.4518,0.6832,146.6,96.7,0.532
9.92,32193.8,35437.2,0.2818,0.5133,146.6,96.7,0.532
9.94,32130.1,35244.1,0.1958,0.2844,146.6,96.7,0.532
9.96,32059.8,35143.5,0.1009,0.1652,146.6,96.7,0.532
9.98,32020.7,35081.3,0.0481,0.0916,146.6,96.7,0.532
10.0,32000.9,35075.1,0.0214,0.0841,146.6,96.7,0.532
10.02,31923.5,34952.1,-0.0832,-0.0616,146.6,96.7,0.532
10.04,31977.9,34809.7,-0.0096,-0.2303,146.6,96.7,0.532
10.06,31809.5,34692.3,-0.2371,-0.3695,146.6,96.7,0.532
10.08,31863.8,34665.3,-0.1638,-0.4014,146.6,96.7,0.532
10.1,31874.9,34629.6,-0.1487,-0.4437,146.6,96.7,0.532
10.12,31832.0,34589.0,-0.2067,-0.4919,146.6,96.7,0.532
10.14,31729.0,34542.3,-0.3458,-0.5472,146.6,96.7,0.532
10.16,31784.7,34505.6,-0.2705,-0.5907,146.6,96.7,0.532
10.18,31773.4,34444.7,-0.2858,-0.6629,146.6,96.7,0.532
10.2,31783.9,34612.3,-0.2716,-0.4642,146.6,96.7,0.532
10.22,31946.8,35009.9,-0.0517,0.0069,146.6,96.7,0.532
10.24,32151.9,35276.0,0.2252,0.3223,146.6,96.7,0.532
10.26,32382.0,35610.3,0.5359,0.7184,146.6,96.7,0.532
10.28,32426.3,35700.7,0.5959,0.8255,146.6,96.7,0.532
10.3,32289.4,35621.8,0.4109,0.7321,146.6,96.7,0.532
10.32,32280.6,35544.3,0.3991,0.6401,146.6,96.7,0.532
10.34,32135.0,35346.7,0.2024,0.406,146.6,96.7,0.532
10.36,32082.1,35213.3,0.1311,0.248,146.6,96.7,0.532
10.38,32008.6,35018.7,0.0318,0.0174,146.6,96.7,0.532
10.4,32028.4,34989.4,0.0585,-0.0173,146.6,96.7,0.532
10.42,31996.7,34973.2,0.0157,-0.0365,146.6,96.7,0.532
10.44,31914.7,34925.0,-0.0951,-0.0937,146.6,96.7,0.532
10.46,32001.8,34704.2,0.0226,-0.3553,146.6,96.7,0.532
10.48,31813.5,34679.3,-0.2317,-0.3848,146.6,96.7,0.532
10.5,31886.2,34707.5,-0.1335,-0.3514,146.6,96.7,0.532
10.52,31856.1,34741.3,-0.1742,-0.3114,146.6,96.7,0.532
10.54,31795.0,34596.0,-0.2566,-0.4836,146.6,96.7,0.532
10.56,31766.0,34539.2,-0.2959,-0.5509,146.6,96.7,0.532
10.58,31789.5,34505.3,-0.2641,-0.5911,146.6,96.7,0.532
10.6,31737.2,34510.6,-0.3347,-0.5847,146.6,96.7,0.532
10.62,31951.8,34693.5,-0.0449,-0.368,146.6,96.7,0.532
10.64,32066.5,35120.6,0.1099,0.1381,146.6,96.7,0.532
10.66,32252.8,35437.4,0.3615,0.5135,146.6,96.7,0.532
10.68,32388.9,35763.1,0.5453,0.8995,146.6,96.7,0.532
10.7,32320.2,35781.8,0.4525,0.9216,146.6,96.7,0.532
10.72,32263.2,35621.3,0.3756,0.7315,146.6,96.7,0.532
10.74,32209.8,35342.7,0.3034,0.4013,146.6,96.7,0.532
10.76,32193.6,35205.6,0.2816,0.2389,146.6,96.7,0.532
10.78,31972.9,35128.5,-0.0165,0.1474,146.6,96.7,0.532
10.8,32096.8,35109.6,0.1509,0.1251,146.6,96.7,0.532
10.82,32017.2,35061.0,0.0434,0.0675,146.6,96.7,0.532
10.84,31993.8,34997.7,0.0117,-0.0075,146.6,96.7,0.532
10.86,31901.7,34840.7,-0.1125,-0.1936,146.6,96.7,0.532
10.88,31884.2,34813.5,-0.1362,-0.2258,146.6,96.7,0.532
10.9,31828.0,34647.1,-0.2121,-0.4231,146.6,96.7,0.532
10.92,31806.9,34698.6,-0.2406,-0.3619,146.6,96.7,0.532
10.94,31864.4,34652.7,-0.1629,-0.4164,146.6,96.7,0.532
10.96,31753.1,34609.6,-0.3133,-0.4674,146.6,96.7,0.532
10.98,31733.1,34443.4,-0.3403,-0.6644,146.6,96.7,0.532
11.0,31659.1,34382.2,-0.4402,-0.737,146.6,96.7,0.532
11.02,31775.8,34579.1,-0.2826,-0.5036,146.6,96.7,0.532
11.04,31871.3,34938.8,-0.1537,-0.0773,146.6,96.7,0.532
11.06,32084.7,35340.0,0.1346,0.3981,146.6,96.7,0.532
11.08,32258.9,35620.0,0.3698,0.7299,146.6,96.7,0.532
11.1,32402.5,35800.4,0.5637,0.9437,146.6,96.7,0.532
11.12,32397.7,35657.9,0.5572,0.7748,146.6,96.7,0.532
11.14,32292.6,35407.8,0.4153,0.4784,146.6,96.7,0.532
11.16,32214.0,35303.4,0.3091,0.3547,146.6,96.7,0.532
11.18,32160.7,35191.7,0.2371,0.2223,146.6,96.7,0.532
11.2,32017.8,35066.5,0.0442,0.0739,146.6,96.7,0.532
11.22,32039.0,35047.0,0.0729,0.0509,146.6,96.7,0.532
11.24,31923.5,34951.1,-0.0831,-0.0628,146.6,96.7,0.532
11.26,31927.8,34877.0,-0.0773,-0.1506,146.6,96.7,0.532
11.28,31831.0,34761.9,-0.2081,-0.2869,146.6,96.7,0.532
11.3,31793.1,34755.9,-0.2593,-0.2941,146.6,96.7,0.532
11.32,31915.7,34657.8,-0.0937,-0.4104,146.6,96.7,0.532
11.34,31737.8,34653.6,-0.3339,-0.4153,146.6,96.7,0.532
11.36,31757.9,34489.8,-0.3067,-0.6094,146.6,96.7,0.532
11.38,31804.3,34492.0,-0.2441,-0.6068,146.6,96.7,0.532
11.4,31748.8,34454.1,-0.3191,-0.6517,146.6,96.7,0.532
11.42,31714.5,34550.7,-0.3653,-0.5372,146.6,96.7,0.532
11.44,31895.3,34785.0,-0.1212,-0.2597,146.6,96.7,0.532
11.46,32087.5,35155.2,0.1383,0.1791,146.6,96.7,0.532
11.48,32217.3,35550.8,0.3135,0.6479,146.6,96.7,0.532
11.5,32259.4,35741.9,0.3705,0.8743,146.6,96.7,0.532
11.52,32382.1,35841.8,0.5362,0.9927,146.6,96.7,0.532
11.54,32322.3,35691.8,0.4554,0.815,146.6,96.7,0.532
11.56,32119.0,35382.1,0.1808,0.448,146.6,96.7,0.532
11.58,32134.0,35288.4,0.2011,0.3369,146.6,96.7,0.532
11.6,32008.8,35182.2,0.032,0.2111,146.6,96.7,0.532
11.62,32094.2,35095.1,0.1473,0.1079,146.6,96.7,0.532
11.64,31946.3,34983.8,-0.0523,-0.0241,146.6,96.7,0.532
11.66,32036.8,34983.9,0.0698,-0.0239,146.6,96.7,0.532
11.68,31870.6,34729.5,-0.1546,-0.3254,146.6,96.7,0.532
11.7,31799.4,34741.1,-0.2508,-0.3116,146.6,96.7,0.532
11.72,31798.4,34744.0,-0.2521,-0.3082,146.6,96.7,0.532
11.74,31903.5,34674.2,-0.1101,-0.3908,146.6,96.7,0.532
11.76,31857.2,34633.4,-0.1727,-0.4392,146.6,96.7,0.532
11.78,31782.3,34525.1,-0.2738,-0.5676,146.6,96.7,0.532
11.8,31703.0,34559.0,-0.3809,-0.5274,146.6,96.7,0.532
11.82,31721.3,34439.8,-0.3562,-0.6687,146.6,96.7,0.532
11.84,31849.0,34668.7,-0.1838,-0.3974,146.6,96.7,0.532
11.86,31914.0,34964.1,-0.096,-0.0473,146.6,96.7,0.532
11.88,32278.2,35298.8,0.3959,0.3492,146.6,96.7,0.532
11.9,32340.9,35595.7,0.4805,0.7011,146.6,96.7,0.532
11.92,32348.1,35866.8,0.4902,1.0224,146.6,96.7,0.532
11.94,32283.9,35609.5,0.4035,0.7174,146.6,96.7,0.532
11.96,32180.7,35594.0,0.2642,0.6991,146.6,96.7,0.532
11.98,32100.0,35270.4,0.1552,0.3156,146.6,96.7,0.532
12.0,32138.1,35131.2,0.2066,0.1507,146.6,96.7,0.532
12.02,32081.2,35069.2,0.1298,0.0772,146.6,96.7,0.532
12.04,32038.6,35200.8,0.0722,0.2332,146.6,96.7,0.532
12.06,31950.8,35053.8,-0.0464,0.059,146.6,96.7,0.532
12.08,31945.6,34809.0,-0.0534,-0.2311,146.6,96.7,0.532
12.1,31863.5,34802.8,-0.1642,-0.2385,146.6,96.7,0.532
12.12,31831.5,34650.7,-0.2074,-0.4187,146.6,96.7,0.532
12.14,31886.3,34654.5,-0.1333,-0.4142,146.6,96.7,0.532
12.16,31817.7,34712.3,-0.226,-0.3457,146.6,96.7,0.532
12.18,31746.2,34581.2,-0.3226,-0.501,146.6,96.7,0.532
12.2,31784.5,34404.3,-0.2708,-0.7107,146.6,96.7,0.532
12.22,31727.0,34365.4,-0.3484,-0.7569,146.6,96.7,0.532
12.24,31820.1,34497.3,-0.2228,-0.6005,146.6,96.7,0.532
12.26,31878.8,34787.5,-0.1435,-0.2566,146.6,96.7,0.532
12.28,32107.3,35219.1,0.165,0.2548,146.6,96.7,0.532
12.3,32299.9,35432.4,0.4251,0.5075,146.6,96.7,0.532
12.32,32248.8,35679.1,0.3561,0.7999,146.6,96.7,0.532
12.34,32344.1,35775.7,0.4848,0.9144,146.6,96.7,0.532
12.36,32269.0,35603.1,0.3834,0.7098,146.6,96.7,0.532
12.38,32106.0,35291.9,0.1633,0.341,146.6,96.7,0.532
12.4,31993.9,35268.3,0.012,0.3131,146.6,96.7,0.532
12.42,32052.3,35199.6,0.0908,0.2317,146.6,96.7,0.532
12.44,32032.7,35047.9,0.0644,0.052,146.6,96.7,0.532
12.46,31967.6,35056.3,-0.0235,0.0619,146.6,96.7,0.532
12.48,31929.4,34786.8,-0.0752,-0.2574,146.6,96.7,0.532
12.5,31774.9,34867.8,-0.2838,-0.1615,146.6,96.7,0.532
12.52,31897.9,34802.3,-0.1177,-0.2391,146.6,96.7,0.532
12.54,31779.2,34640.3,-0.2779,-0.431,146.6,96.7,0.532
12.56,31862.3,34648.6,-0.1657,-0.4212,146.6,96.7,0.532
12.58,31759.3,34656.4,-0.3048,-0.412,146.6,96.7,0.532
12.6,31700.6,34544.0,-0.3842,-0.5452,146.6,96.7,0.532
12.62,31734.7,34509.6,-0.3381,-0.5859,146.6,96.7,0.532
12.64,31763.9,34538.6,-0.2987,-0.5516,146.6,96.7,0.532
12.66,31896.2,34645.0,-0.12,-0.4255,146.6,96.7,0.532
12.68,31981.1,34952.2,-0.0053,-0.0615,146.6,96.7,0.532
12.7,32203.3,35327.4,0.2947,0.3831,146.6,96.7,0.532
12.72,32269.4,35623.2,0.384,0.7337,146.6,96.7,0.532
12.74,32353.3,35843.6,0.4973,0.9948,146.6,96.7,0.532
12.76,32341.8,35678.4,0.4817,0.7991,146.6,96.7,0.532
12.78,32278.7,35481.2,0.3965,0.5654,146.6,96.7,0.532
12.8,32104.4,35308.5,0.1612,0.3608,146.6,96.7,0.532
12.82,32099.1,35150.5,0.154,0.1736,146.6,96.7,0.532
12.84,32068.6,35017.6,0.1127,0.0161,146.6,96.7,0.532
12.86,32003.2,35033.0,0.0245,0.0343,146.6,96.7,0.532
12.88,32055.8,34952.6,0.0955,-0.061,146.6,96.7,0.532
12.9,31915.8,34867.7,-0.0936,-0.1616,146.6,96.7,0.532
12.92,31909.9,34731.4,-0.1015,-0.3231,146.6,96.7,0.532
12.94,31861.3,34702.6,-0.1671,-0.3573,146.6,96.7,0.532
12.96,31834.1,34565.6,-0.2039,-0.5196,146.6,96.7,0.532
12.98,31760.7,34556.8,-0.3029,-0.53,146.6,96.7,0.532
13.0,31713.0,34630.5,-0.3674,-0.4427,146.6,96.7,0.532
13.02,31666.9,34386.1,-0.4296,-0.7323,146.6,96.7,0.532
13.04,31673.5,34496.6,-0.4208,-0.6014,146.6,96.7,0.532
13.06,31756.0,34519.5,-0.3093,-0.5742,146.6,96.7,0.532
13.08,31971.3,34780.8,-0.0186,-0.2646,146.6,96.7,0.532
13.1,32070.3,35184.5,0.1151,0.2138,146.6,96.7,0.532
13.12,32201.9,35582.4,0.2928,0.6854,146.6,96.7,0.532
13.14,32329.7,35681.6,0.4653,0.8029,146.6,96.7,0.532
13.16,32394.5,35682.0,0.5528,0.8034,146.6,96.7,0.532
13.18,32263.9,35613.7,0.3766,0.7225,146.6,96.7,0.532
13.2,32278.1,35286.3,0.3956,0.3344,146.6,96.7,0.532
13.22,32162.2,35325.6,0.2392,0.381,146.6,96.7,0.532
13.24,32038.8,35190.6,0.0725,0.221,146.6,96.7,0.532
13.26,32092.0,35072.5,0.1444,0.0811,146.6,96.7,0.532
13.28,31977.1,35053.1,-0.0107,0.0581,146.6,96.7,0.532
13.3,31905.4,34903.1,-0.1076,-0.1197,146.6,96.7,0.532
13.32,31899.1,34760.9,-0.1162,-0.2881,146.6,96.7,0.532
13.34,31877.3,34727.2,-0.1456,-0.3281,146.6,96.7,0.532
13.36,31800.0,34627.5,-0.25,-0.4462,146.6,96.7,0.532
13.38,31778.6,34588.5,-0.2788,-0.4925,146.6,96.7,0.532
13.4,31797.9,34710.5,-0.2528,-0.3479,146.6,96.7,0.532
13.42,31803.1,34469.8,-0.2458,-0.6331,146.6,96.7,0.532
13.44,31735.8,34508.8,-0.3367,-0.5869,146.6,96.7,0.532
13.46,31718.8,34480.1,-0.3596,-0.6209,146.6,96.7,0.532
13.48,31823.2,34608.3,-0.2186,-0.469,146.6,96.7,0.532
13.5,31977.0,35136.3,-0.011,0.1567,146.6,96.7,0.532
13.52,32142.8,35331.9,0.213,0.3884,146.6,96.7,0.532
13.54,32352.3,35666.2,0.4958,0.7847,146.6,96.7,0.532
13.56,32319.1,35818.3,0.451,0.9648,146.6,96.7,0.532
13.58,32356.3,35623.4,0.5012,0.7339,146.6,96.7,0.532
13.6,32241.9,35476.1,0.3468,0.5593,146.6,96.7,0.532
13.62,32114.8,35247.3,0.1752,0.2883,146.6,96.7,0.532
13.64,31984.7,35059.3,-0.0005,0.0654,146.6,96.7,0.532
13.66,32055.8,35047.1,0.0955,0.051,146.6,96.7,0.532
13.68,32024.7,35046.3,0.0535,0.05,146.6,96.7,0.532
13.7,32032.5,34903.3,0.0641,-0.1194,146.6,96.7,0.532
13.72,31832.9,34757.5,-0.2056,-0.2922,146.6,96.7,0.532
13.74,31900.9,34685.3,-0.1137,-0.3778,146.6,96.7,0.532
13.76,31855.2,34592.5,-0.1754,-0.4877,146.6,96.7,0.532
13.78,31891.2,34719.4,-0.1267,-0.3373,146.6,96.7,0.532
13.8,31786.8,34598.6,-0.2677,-0.4805,146.6,96.7,0.532
13.82,31742.4,34614.1,-0.3277,-0.4621,146.6,96.7,0.532
13.84,31780.4,34468.2,-0.2764,-0.635,146.6,96.7,0.532
13.86,31667.4,34477.9,-0.429,-0.6235,146.6,96.7,0.532
13.88,31850.1,34604.9,-0.1822,-0.473,146.6,96.7,0.532
13.9,31892.9,34811.0,-0.1244,-0.2288,146.6,96.7,0.532
13.92,32150.7,35251.4,0.2236,0.2931,146.6,96.7,0.532
13.94,32269.6,35631.7,0.3842,0.7438,146.6,96.7,0.532
13.96,32432.5,35653.7,0.6042,0.7699,146.6,96.7,0.532
13.98,32357.3,35803.9,0.5026,0.9478,146.6,96.7,0.532
14.0,32340.2,35564.2,0.4795,0.6638,146.6,96.7,0.532
14.02,32177.8,35358.5,0.2603,0.42,146.6,96.7,0.532
14.04,32145.1,35237.3,0.2161,0.2764,146.6,96.7,0.532
14.06,32068.0,35215.6,0.1119,0.2507,146.6,96.7,0.532
14.08,31965.4,35019.4,-0.0266,0.0181,146.6,96.7,0.532
14.1,32063.4,35026.1,0.1057,0.0261,146.6,96.7,0.532
14.12,31931.2,34880.1,-0.0727,-0.1469,146.6,96.7,0.532
14.14,31980.8,34855.1,-0.0057,-0.1765,146.6,96.7,0.532
14.16,31817.0,34599.0,-0.227,-0.48,146.6,96.7,0.532
14.18,31843.4,34660.5,-0.1913,-0.4071,146.6,96.7,0.532
14.2,31747.5,34678.6,-0.3208,-0.3857,146.6,96.7,0.532
14.22,31833.5,34652.6,-0.2046,-0.4165,146.6,96.7,0.532
14.24,31714.9,34443.7,-0.3649,-0.664,146.6,96.7,0.532
14.26,31834.8,34439.2,-0.2029,-0.6693,146.6,96.7,0.532
14.28,31771.5,34447.8,-0.2885,-0.6592,146.6,96.7,0.532
14.3,31752.2,34750.9,-0.3145,-0.3,146.6,96.7,0.532
14.32,32019.9,34992.6,0.047,-0.0135,146.6,96.7,0.532
14.34,32143.6,35284.3,0.214,0.332,146.6,96.7,0.532
14.36,32377.7,35682.6,0.5302,0.8041,146.6,96.7,0.532
14.38,32400.1,35805.5,0.5604,0.9498,146.6,96.7,0.532
14.4,32249.5,35620.8,0.357,0.7309,146.6,96.7,0.532
14.42,32270.4,35553.7,0.3853,0.6514,146.6,96.7,0.532
14.44,32135.2,35263.9,0.2027,0.3079,146.6,96.7,0.532
14.46,32094.3,35118.0,0.1475,0.135,146.6,96.7,0.532
14.48,32065.2,35085.0,0.1082,0.0959,146.6,96.7,0.532
14.5,32017.9,35077.1,0.0444,0.0866,146.6,96.7,0.532
14.52,32014.2,34956.7,0.0394,-0.0562,146.6,96.7,0.532
14.54,31950.9,34963.4,-0.0461,-0.0482,146.6,96.7,0.532
14.56,31896.8,34683.3,-0.1192,-0.3801,146.6,96.7,0.532
14.58,31862.1,34722.3,-0.1661,-0.3339,146.6,96.7,0.532
14.6,31780.1,34690.5,-0.2768,-0.3716,146.6,96.7,0.532
14.62,31872.6,34644.6,-0.1519,-0.426,146.6,96.7,0.532
14.64,31800.1,34525.6,-0.2498,-0.567,146.6,96.7,0.532
14.66,31703.8,34576.3,-0.3799,-0.5069,146.6,96.7,0.532
14.68,31756.7,34422.5,-0.3084,-0.6892,146.6,96.7,0.532
14.7,31761.8,34686.0,-0.3015,-0.377,146.6,96.7,0.532
14.72,31997.0,34791.6,0.016,-0.2518,146.6,96.7,0.532
14.74,32054.5,35257.9,0.0938,0.3008,146.6,96.7,0.532
14.76,32248.6,35516.2,0.3559,0.6069,146.6,96.7,0.532
14.78,32371.3,35800.4,0.5215,0.9437,146.6,96.7,0.532
14.8,32349.5,35705.2,0.4921,0.8308,146.6,96.7,0.532
14.82,32230.8,35500.5,0.3317,0.5883,146.6,96.7,0.532
14.84,32218.7,35272.3,0.3154,0.3179,146.6,96.7,0.532
14.86,32086.9,35089.9,0.1374,0.1017,146.6,96.7,0.532
14.88,32058.5,35132.1,0.0992,0.1517,146.6,96.7,0.532
14.9,32002.6,35116.9,0.0236,0.1337,146.6,96.7,0.532
14.92,31910.2,34986.6,-0.1011,-0.0207,146.6,96.7,0.532
14.94,31964.2,34893.4,-0.0282,-0.1311,146.6,96.7,0.532
14.96,31850.7,34891.2,-0.1815,-0.1337,146.6,96.7,0.532
14.98,31899.6,34707.5,-0.1154,-0.3515,146.6,96.7,0.532
15.0,31796.3,34670.1,-0.2549,-0.3958,146.6,96.7,0.532
15.02,31815.8,34680.6,-0.2286,-0.3833,146.6,96.7,0.532
15.04,31806.2,34642.8,-0.2416,-0.4282,146.6,96.7,0.532
15.06,31709.6,34470.4,-0.3721,-0.6324,146.6,96.7,0.532
15.08,31782.0,34463.1,-0.2743,-0.6411,146.6,96.7,0.532
15.1,31771.3,34538.1,-0.2886,-0.5521,146.6,96.7,0.532
15.12,31901.0,34790.5,-0.1135,-0.2531,146.6,96.7,0.532
15.14,31984.1,35008.9,-0.0013,0.0058,146.6,96.7,0.532
15.16,32172.1,35392.5,0.2526,0.4603,146.6,96.7,0.532
15.18,32411.3,35648.7,0.5755,0.7639,146.6,96.7,0.532
15.2,32345.3,35738.3,0.4864,0.8701,146.6,96.7,0.532
15.22,32381.0,35574.6,0.5346,0.6761,146.6,96.7,0.532
15.24,32311.4,35427.8,0.4406,0.5021,146.6,96.7,0.532
15.26,32051.9,35345.8,0.0902,0.405,146.6,96.7,0.532
15.28,32049.2,35135.8,0.0866,0.1562,146.6,96.7,0.532
15.3,31929.1,35049.9,-0.0756,0.0543,146.6,96.7,0.532
15.32,31981.7,35050.5,-0.0045,0.055,146.6,96.7,0.532
15.34,31948.5,35000.7,-0.0493,-0.004,146.6,96.7,0.532
15.36,31893.5,34838.3,-0.1236,-0.1964,146.6,96.7,0.532
15.38,31878.9,34713.8,-0.1434,-0.344,146.6,96.7,0.532
15.4,31781.3,34646.6,-0.2752,-0.4236,146.6,96.7,0.532
15.42,31868.1,34638.7,-0.1579,-0.4329,146.6,96.7,0.532
15.44,31846.9,34575.0,-0.1865,-0.5084,146.6,96.7,0.532
15.46,31827.2,34532.3,-0.2132,-0.559,146.6,96.7,0.532
15.48,31799.8,34525.7,-0.2502,-0.5669,146.6,96.7,0.532
15.5,31823.0,34425.9,-0.2188,-0.6852,146.6,96.7,0.532
15.52,31797.4,34624.8,-0.2534,-0.4494,146.6,96.7,0.532
15.54,31938.3,34851.4,-0.0632,-0.1809,146.6,96.7,0.532
15.56,32184.2,35249.2,0.2688,0.2905,146.6,96.7,0.532
15.58,32311.6,35636.6,0.4409,0.7495,146.6,96.7,0.532
15.6,32392.5,35747.4,0.5502,0.8808,146.6,96.7,0.532
15.62,32274.3,35798.9,0.3906,0.9419,146.6,96.7,0.532
15.64,32293.1,35547.6,0.4159,0.6441,146.6,96.7,0.532
15.66,32208.2,35354.7,0.3013,0.4155,146.6,96.7,0.532
15.68,32019.1,35227.6,0.046,0.2648,146.6,96.7,0.532
15.7,31977.5,35123.2,-0.0103,0.1412,146.6,96.7,0.532
15.72,32017.5,35132.0,0.0438,0.1516,146.6,96.7,0.532
15.74,31963.9,34956.5,-0.0286,-0.0564,146.6,96.7,0.532
15.76,31966.2,34928.8,-0.0255,-0.0892,146.6,96.7,0.532
15.78,31959.1,34774.0,-0.0351,-0.2726,146.6,96.7,0.532
15.8,31778.6,34734.4,-0.2789,-0.3196,146.6,96.7,0.532
15.82,31867.0,34601.7,-0.1594,-0.4768,146.6,96.7,0.532
15.84,31842.3,34656.7,-0.1927,-0.4117,146.6,96.7,0.532
15.86,31734.3,34662.9,-0.3386,-0.4043,146.6,96.7,0.532
15.88,31706.9,34489.2,-0.3757,-0.6101,146.6,96.7,0.532
15.9,31763.2,34467.5,-0.2996,-0.6359,146.6,96.7,0.532
15.92,31707.5,34466.7,-0.3748,-0.6368,146.6,96.7,0.532
15.94,31923.8,34705.9,-0.0827,-0.3534,146.6,96.7,0.532
15.96,32075.3,35049.6,0.1219,0.054,146.6,96.7,0.532
15.98,32149.0,35474.7,0.2213,0.5578,146.6,96.7,0.532
16.0,32319.2,35719.8,0.4511,0.8481,146.6,96.7,0.532
16.02,32355.6,35764.8,0.5004,0.9015,146.6,96.7,0.532
16.04,32292.5,35748.5,0.4151,0.8822,146.6,96.7,0.532
16.06,32216.7,35469.3,0.3128,0.5514,146.6,96.7,0.532
16.08,32162.5,35202.0,0.2395,0.2345,146.6,96.7,0.532
16.1,32069.6,35122.4,0.1142,0.1403,146.6,96.7,0.532
16.12,32061.6,35045.9,0.1033,0.0495,146.6,96.7,0.532
16.14,31982.7,35009.1,-0.0031,0.006,146.6,96.7,0.532
16.16,32030.0,34969.2,0.0607,-0.0413,146.6,96.7,0.532
16.18,31979.9,34826.0,-0.007,-0.211,146.6,96.7,0.532
16.2,31828.0,34790.1,-0.2121,-0.2535,146.6,96.7,0.532
16.22,31721.2,34666.8,-0.3563,-0.3997,146.6,96.7,0.532
16.24,31860.5,34635.3,-0.1682,-0.437,146.6,96.7,0.532
16.26,31863.5,34602.3,-0.1641,-0.4761,146.6,96.7,0.532
16.28,31806.7,34662.9,-0.2409,-0.4043,146.6,96.7,0.532
16.3,31733.5,34423.7,-0.3398,-0.6878,146.6,96.7,0.532
16.32,31744.0,34456.1,-0.3256,-0.6493,146.6,96.7,0.532
16.34,31867.6,34621.4,-0.1587,-0.4534,146.6,96.7,0.532
16.36,32035.4,34876.9,0.068,-0.1507,146.6,96.7,0.532
16.38,32074.7,35305.4,0.1211,0.3571,146.6,96.7,0.532
16.4,32353.7,35598.5,0.4978,0.7044,146.6,96.7,0.532
16.42,32362.2,35671.3,0.5092,0.7907,146.6,96.7,0.532
16.44,32302.6,35717.7,0.4288,0.8457,146.6,96.7,0.532
16.46,32271.6,35530.6,0.3869,0.624,146.6,96.7,0.532
16.48,32193.9,35299.1,0.282,0.3497,146.6,96.7,0.532
16.5,32029.7,35147.1,0.0602,0.1695,146.6,96.7,0.532
16.52,32096.1,35115.3,0.1499,0.1318,146.6,96.7,0.532
16.54,32008.9,35144.2,0.0322,0.1661,146.6,96.7,0.532
16.56,31974.2,34949.5,-0.0147,-0.0647,146.6,96.7,0.532
16.58,31901.5,34868.8,-0.1129,-0.1603,146.6,96.7,0.532
16.6,31829.7,34877.3,-0.2098,-0.1503,146.6,96.7,0.532
16.62,31909.9,34647.7,-0.1015,-0.4223,146.6,96.7,0.532
16.64,31831.4,34672.2,-0.2075,-0.3932,146.6,96.7,0.532
16.66,31787.5,34705.7,-0.2668,-0.3535,146.6,96.7,0.532
16.68,31806.9,34667.0,-0.2406,-0.3994,146.6,96.7,0.532
16.7,31827.5,34454.9,-0.2128,-0.6508,146.6,96.7,0.532
16.72,31777.4,34464.5,-0.2805,-0.6394,146.6,96.7,0.532
16.74,31743.7,34501.6,-0.3259,-0.5954,146.6,96.7,0.532
16.76,31931.5,34787.3,-0.0724,-0.2569,146.6,96.7,0.532
16.78,32062.2,35043.8,0.1042,0.0471,146.6,96.7,0.532
16.8,32321.3,35453.0,0.454,0.5319,146.6,96.7,0.532
16.82,32374.6,35597.1,0.5259,0.7028,146.6,96.7,0.532
16.84,32453.4,35767.7,0.6323,0.9049,146.6,96.7,0.532
16.86,32318.6,35653.3,0.4504,0.7694,146.6,96.7,0.532
16.88,32222.9,35438.8,0.3212,0.5152,146.6,96.7,0.532
16.9,31959.4,35247.1,-0.0347,0.288,146.6,96.7,0.532
16.92,32110.5,35181.3,0.1694,0.21,146.6,96.7,0.532
16.94,31996.4,35063.0,0.0153,0.0699,146.6,96.7,0.532
16.96,32114.5,35077.3,0.1747,0.0868,146.6,96.7,0.532
16.98,32040.0,34902.6,0.0741,-0.1202,146.6,96.7,0.532
17.0,31885.8,34742.9,-0.1341,-0.3095,146.6,96.7,0.532
17.02,31847.4,34751.5,-0.1859,-0.2992,146.6,96.7,0.532
17.04,31889.9,34555.5,-0.1286,-0.5315,146.6,96.7,0.532
17.06,31843.7,34698.6,-0.1909,-0.362,146.6,96.7,0.532
17.08,31775.5,34622.2,-0.283,-0.4525,146.6,96.7,0.532
17.1,31868.5,34547.9,-0.1575,-0.5405,146.6,96.7,0.532
17.12,31714.9,34460.5,-0.3648,-0.6441,146.6,96.7,0.532
17.14,31759.0,34476.6,-0.3053,-0.6251,146.6,96.7,0.532
17.16,31782.1,34576.8,-0.2741,-0.5063,146.6,96.7,0.532
17.18,32015.5,34919.0,0.0411,-0.1008,146.6,96.7,0.532
17.2,32171.0,35273.0,0.2511,0.3187,146.6,96.7,0.532
17.22,32334.9,35645.0,0.4724,0.7596,146.6,96.7,0.532
17.24,32346.8,35674.9,0.4884,0.7949,146.6,96.7,0.532
17.26,32331.6,35707.8,0.4679,0.834,146.6,96.7,0.532
17.28,32212.8,35502.8,0.3074,0.591,146.6,96.7,0.532
17.3,32147.1,35218.2,0.2188,0.2537,146.6,96.7,0.532
17.32,32062.8,35106.5,0.1049,0.1214,146.6,96.7,0.532
17.34,32004.6,35067.2,0.0263,0.0748,146.6,96.7,0.532
17.36,32016.3,35048.8,0.0422,0.053,146.6,96.7,0.532
17.38,31993.8,34898.0,0.0118,-0.1257,146.6,96.7,0.532
17.4,31876.4,34888.2,-0.1468,-0.1373,146.6,96.7,0.532
17.42,31800.8,34790.3,-0.2488,-0.2533,146.6,96.7,0.532
17.44,31853.8,34679.5,-0.1772,-0.3847,146.6,96.7,0.532
17.46,31840.1,34623.8,-0.1957,-0.4506,146.6,96.7,0.532
17.48,31849.6,34698.7,-0.1829,-0.3619,146.6,96.7,0.532
17.5,31751.1,34655.8,-0.3159,-0.4126,146.6,96.7,0.532
17.52,31811.6,34541.2,-0.2343,-0.5485,146.6,96.7,0.532
17.54,31814.5,34463.1,-0.2304,-0.641,146.6,96.7,0.532
17.56,31745.7,34468.1,-0.3232,-0.6352,146.6,96.7,0.532
17.58,31960.4,34810.3,-0.0333,-0.2296,146.6,96.7,0.532
17.6,32057.9,35163.7,0.0984,0.1892,146.6,96.7,0.532
17.62,32235.4,35545.0,0.3381,0.641,146.6,96.7,0.532
17.64,32363.9,35752.9,0.5115,0.8874,146.6,96.7,0.532
17.66,32424.3,35760.0,0.593,0.8958,146.6,96.7,0.532
17.68,32233.7,35650.1,0.3357,0.7656,146.6,96.7,0.532
17.7,32174.8,35470.2,0.2562,0.5524,146.6,96.7,0.532
17.72,32226.4,35205.3,0.3259,0.2384,146.6,96.7,0.532
17.74,32048.6,35138.2,0.0857,0.159,146.6,96.7,0.532
17.76,32019.9,35110.3,0.0471,0.1258,146.6,96.7,0.532
17.78,31995.8,34946.9,0.0145,-0.0677,146.6,96.7,0.532
17.8,31933.2,34912.7,-0.0701,-0.1083,146.6,96.7,0.532
17.82,31960.5,34764.5,-0.0331,-0.2838,146.6,96.7,0.532
17.84,31818.4,34733.2,-0.225,-0.321,146.6,96.7,0.532
17.86,31951.4,34680.2,-0.0454,-0.3838,146.6,96.7,0.532
17.88,31802.5,34561.0,-0.2465,-0.525,146.6,96.7,0.532
17.9,31865.7,34549.3,-0.1612,-0.5389,146.6,96.7,0.532
17.92,31862.2,34498.9,-0.1659,-0.5987,146.6,96.7,0.532
17.94,31797.8,34403.0,-0.2529,-0.7122,146.6,96.7,0.532
17.96,31758.8,34485.1,-0.3056,-0.615,146.6,96.7,0.532
17.98,31804.1,34652.7,-0.2443,-0.4164,146.6,96.7,0.532
18.0,31909.5,34967.3,-0.102,-0.0436,146.6,96.7,0.532
18.02,32156.5,35310.9,0.2315,0.3637,146.6,96.7,0.532
18.04,32294.4,35564.5,0.4177,0.6641,146.6,96.7,0.532
18.06,32407.7,35750.9,0.5706,0.885,146.6,96.7,0.532
18.08,32256.5,35580.7,0.3665,0.6833,146.6,96.7,0.532
18.1,32194.1,35510.8,0.2823,0.6005,146.6,96.7,0.532
18.12,32122.4,35386.3,0.1854,0.453,146.6,96.7,0.532
18.14,32055.3,35271.8,0.0948,0.3173,146.6,96.7,0.532
18.16,32061.2,35142.2,0.1028,0.1637,146.6,96.7,0.532
18.18,31900.8,35044.7,-0.1138,0.0482,146.6,96.7,0.532
18.2,31918.9,34936.6,-0.0894,-0.0799,146.6,96.7,0.532
18.22,31916.7,34814.8,-0.0924,-0.2243,146.6,96.7,0.532
18.24,31898.2,34748.6,-0.1174,-0.3027,146.6,96.7,0.532
18.26,31855.2,34669.8,-0.1754,-0.3961,146.6,96.7,0.532
18.28,31796.9,34686.3,-0.2542,-0.3766,146.6,96.7,0.532
18.3,31824.2,34672.9,-0.2173,-0.3925,146.6,96.7,0.532
18.32,31832.2,34584.8,-0.2064,-0.4968,146.6,96.7,0.532
18.34,31687.5,34387.7,-0.4018,-0.7304,146.6,96.7,0.532
18.36,31715.6,34535.6,-0.3639,-0.5551,146.6,96.7,0.532
18.38,31808.7,34600.0,-0.2382,-0.4788,146.6,96.7,0.532
18.4,31824.2,34839.5,-0.2173,-0.1951,146.6,96.7,0.532
18.42,32105.5,35187.8,0.1626,0.2177,146.6,96.7,0.532
18.44,32243.3,35510.4,0.3487,0.6,146.6,96.7,0.532
18.46,32365.8,35653.3,0.5141,0.7694,146.6,96.7,0.532
18.48,32249.0,35767.0,0.3563,0.9041,146.6,96.7,0.532
18.5,32227.4,35605.6,0.3272,0.7128,146.6,96.7,0.532
18.52,32229.1,35427.4,0.3295,0.5016,146.6,96.7,0.532
18.54,32022.1,35227.6,0.05,0.2649,146.6,96.7,0.532
18.56,32098.8,35173.9,0.1536,0.2012,146.6,96.7,0.532
18.58,32066.4,35026.9,0.1098,0.0271,146.6,96.7,0.532
18.6,31995.8,34952.8,0.0144,-0.0608,146.6,96.7,0.532
18.62,31937.5,34880.4,-0.0643,-0.1466,146.6,96.7,0.532
18.64,31888.6,34776.0,-0.1302,-0.2703,146.6,96.7,0.532
18.66,31827.3,34665.2,-0.2131,-0.4016,146.6,96.7,0.532
18.68,31838.5,34718.2,-0.1979,-0.3388,146.6,96.7,0.532
18.7,31743.1,34681.3,-0.3268,-0.3824,146.6,96.7,0.532
18.72,31851.0,34644.4,-0.1811,-0.4262,146.6,96.7,0.532
18.74,31859.4,34535.1,-0.1697,-0.5558,146.6,96.7,0.532
18.76,31657.4,34466.1,-0.4425,-0.6375,146.6,96.7,0.532
18.78,31686.6,34452.7,-0.4031,-0.6534,146.6,96.7,0.532
18.8,31865.0,34574.8,-0.1621,-0.5086,146.6,96.7,0.532
18.82,32064.5,34976.9,0.1072,-0.0322,146.6,96.7,0.532
18.84,32075.9,35376.4,0.1227,0.4412,146.6,96.7,0.532
18.86,32306.5,35759.5,0.434,0.8952,146.6,96.7,0.532
18.88,32295.3,35775.4,0.4189,0.9141,146.6,96.7,0.532
18.9,32410.8,35699.4,0.5749,0.824,146.6,96.7,0.532
18.92,32320.7,35460.7,0.4532,0.5411,146.6,96.7,0.532
18.94,32114.0,35187.9,0.1741,0.2179,146.6,96.7,0.532
18.96,32134.8,35113.0,0.2022,0.1291,146.6,96.7,0.532
18.98,32091.9,35094.9,0.1442,0.1077,146.6,96.7,0.532
19.0,31975.6,34990.5,-0.0128,-0.0161,146.6,96.7,0.532
19.02,31991.8,34927.2,0.009,-0.0911,146.6,96.7,0.532
19.04,31945.6,34867.1,-0.0534,-0.1623,146.6,96.7,0.532
19.06,31828.8,34682.6,-0.211,-0.3809,146.6,96.7,0.532
19.08,31832.0,34659.0,-0.2068,-0.409,146.6,96.7,0.532
19.1,31853.6,34605.6,-0.1775,-0.4721,146.6,96.7,0.532
19.12,31879.7,34654.5,-0.1423,-0.4142,146.6,96.7,0.532
19.14,31809.0,34489.7,-0.2378,-0.6096,146.6,96.7,0.532
19.16,31818.3,34456.2,-0.2252,-0.6492,146.6,96.7,0.532
19.18,31704.7,34427.6,-0.3786,-0.6831,146.6,96.7,0.532
19.2,31799.9,34451.3,-0.2501,-0.655,146.6,96.7,0.532
19.22,31812.6,34870.5,-0.2329,-0.1582,146.6,96.7,0.532
19.24,31993.4,35159.8,0.0113,0.1845,146.6,96.7,0.532
19.26,32355.3,35488.8,0.4999,0.5744,146.6,96.7,0.532
19.28,32437.0,35771.1,0.6103,0.909,146.6,96.7,0.532
19.3,32353.5,35787.6,0.4975,0.9285,146.6,96.7,0.532
19.32,32219.2,35475.6,0.3162,0.5588,146.6,96.7,0.532
19.34,32282.8,35340.8,0.402,0.3991,146.6,96.7,0.532
19.36,32192.5,35224.3,0.28,0.261,146.6,96.7,0.532
19.38,32112.7,35117.1,0.1724,0.1339,146.6,96.7,0.532
19.4,32036.3,35131.4,0.0691,0.1509,146.6,96.7,0.532
19.42,32034.9,35031.9,0.0673,0.033,146.6,96.7,0.532
19.44,31947.2,34876.2,-0.0512,-0.1515,146.6,96.7,0.532
19.46,31859.4,34751.2,-0.1697,-0.2997,146.6,96.7,0.532
19.48,31894.7,34770.7,-0.122,-0.2765,146.6,96.7,0.532
19.5,31880.5,34765.8,-0.1412,-0.2823,146.6,96.7,0.532
19.52,31753.9,34704.5,-0.3122,-0.3549,146.6,96.7,0.532
19.54,31779.2,34636.1,-0.2781,-0.436,146.6,96.7,0.532
19.56,31726.9,34508.5,-0.3486,-0.5872,146.6,96.7,0.532
19.58,31693.9,34458.4,-0.3931,-0.6466,146.6,96.7,0.532
19.6,31777.1,34416.7,-0.2808,-0.6961,146.6,96.7,0.532
19.62,31857.6,34601.4,-0.1722,-0.4772,146.6,96.7,0.532
19.64,32002.3,35039.7,0.0232,0.0422,146.6,96.7,0.532
19.66,32102.5,35369.5,0.1586,0.433,146.6,96.7,0.532
19.68,32292.1,35588.1,0.4145,0.6921,146.6,96.7,0.532
19.7,32371.1,35766.6,0.5212,0.9037,146.6,96.7,0.532
19.72,32352.9,35638.0,0.4967,0.7513,146.6,96.7,0.532
19.74,32190.7,35477.4,0.2776,0.561,146.6,96.7,0.532
19.76,32173.7,35288.9,0.2547,0.3375,146.6,96.7,0.532
19.78,32067.6,35190.3,0.1114,0.2207,146.6,96.7,0.532
19.8,32056.9,35026.2,0.097,0.0262,146.6,96.7,0.532
19.82,32072.7,35042.4,0.1183,0.0454,146.6,96.7,0.532
19.84,31929.7,34918.8,-0.0748,-0.101,146.6,96.7,0.532
19.86,31865.1,34847.1,-0.1621,-0.1859,146.6,96.7,0.532
19.88,31877.3,34724.4,-0.1455,-0.3314,146.6,96.7,0.532
19.9,31745.9,34666.3,-0.323,-0.4003,146.6,96.7,0.532
19.92,31793.2,34668.6,-0.259,-0.3975,146.6,96.7,0.532
19.94,31889.5,34652.4,-0.129,-0.4167,146.6,96.7,0.532
19.96,31793.9,34532.7,-0.2582,-0.5586,146.6,96.7,0.532
19.98,31744.4,34436.0,-0.325,-0.6731,146.6,96.7,0.532
20.0,31698.1,34522.1,-0.3875,-0.5711,146.6,96.7,0.532
20.02,31883.8,34565.0,-0.1367,-0.5203,146.6,96.7,0.532
20.04,31912.2,34786.5,-0.0984,-0.2578,146.6,96.7,0.532
20.06,32011.7,35179.1,0.036,0.2074,146.6,96.7,0.532
20.08,32199.9,35519.6,0.29,0.6109,146.6,96.7,0.532
20.1,32386.4,35680.5,0.5419,0.8016,146.6,96.7,0.532
20.12,32312.9,35738.4,0.4427,0.8702,146.6,96.7,0.532
20.14,32202.7,35509.8,0.2938,0.5994,146.6,96.7,0.532
20.16,32230.8,35374.7,0.3319,0.4393,146.6,96.7,0.532
20.18,32096.7,35338.1,0.1507,0.3958,146.6,96.7,0.532
20.2,32014.5,35113.5,0.0398,0.1297,146.6,96.7,0.532
20.22,32014.5,35176.2,0.0397,0.204,146.6,96.7,0.532
20.24,32049.7,34952.6,0.0873,-0.0609,146.6,96.7,0.532
20.26,32002.3,35006.0,0.0233,0.0022,146.6,96.7,0.532
20.28,31928.9,34782.7,-0.0758,-0.2623,146.6,96.7,0.532
20.3,31844.9,34736.0,-0.1894,-0.3176,146.6,96.7,0.532
20.32,31751.0,34603.3,-0.3161,-0.4749,146.6,96.7,0.532
20.34,31884.8,34646.8,-0.1355,-0.4234,146.6,96.7,0.532
20.36,31880.6,34615.4,-0.1411,-0.4605,146.6,96.7,0.532
20.38,31736.7,34547.8,-0.3353,-0.5406,146.6,96.7,0.532
20.4,31745.2,34463.2,-0.324,-0.6409,146.6,96.7,0.532
20.42,31750.8,34537.5,-0.3164,-0.5529,146.6,96.7,0.532
20.44,31799.3,34646.6,-0.2508,-0.4236,146.6,96.7,0.532
20.46,31940.3,34988.1,-0.0604,-0.0189,146.6,96.7,0.532
20.48,32202.7,35320.4,0.2939,0.3749,146.6,96.7,0.532
20.5,32237.5,35672.5,0.3409,0.7922,146.6,96.7,0.532
20.52,32400.2,35769.0,0.5605,0.9065,146.6,96.7,0.532
20.54,32215.6,35660.1,0.3113,0.7774,146.6,96.7,0.532
20.56,32275.6,35478.0,0.3923,0.5616,146.6,96.7,0.532
20.58,32044.9,35321.5,0.0808,0.3761,146.6,96.7,0.532
20.6,32054.9,35248.5,0.0942,0.2897,146.6,96.7,0.532
20.62,32017.2,35110.5,0.0433,0.1261,146.6,96.7,0.532
20.64,32087.3,35090.9,0.138,0.1029,146.6,96.7,0.532
20.66,32017.6,35060.5,0.0439,0.0669,146.6,96.7,0.532
20.68,31836.9,34849.1,-0.2001,-0.1837,146.6,96.7,0.532
20.7,31860.6,34689.1,-0.168,-0.3732,146.6,96.7,0.532
20.72,31839.6,34682.1,-0.1965,-0.3815,146.6,96.7,0.532
20.74,31782.8,34720.3,-0.2732,-0.3363,146.6,96.7,0.532
20.76,31867.0,34549.0,-0.1595,-0.5392,146.6,96.7,0.532
20.78,31881.2,34605.8,-0.1402,-0.472,146.6,96.7,0.532
20.8,31782.2,34467.2,-0.2739,-0.6362,146.6,96.7,0.532
20.82,31734.6,34431.3,-0.3382,-0.6787,146.6,96.7,0.532
20.84,31772.1,34618.2,-0.2876,-0.4572,146.6,96.7,0.532
20.86,31949.1,34821.3,-0.0486,-0.2166,146.6,96.7,0.532
20.88,32087.8,35247.2,0.1387,0.2881,146.6,96.7,0.532
20.9,32260.5,35643.6,0.3719,0.7578,146.6,96.7,0.532
20.92,32334.2,35759.3,0.4714,0.895,146.6,96.7,0.532
20.94,32334.2,35754.3,0.4715,0.889,146.6,96.7,0.532
20.96,32325.1,35606.9,0.4591,0.7143,146.6,96.7,0.532
20.98,32255.2,35330.7,0.3648,0.3871,146.6,96.7,0.532
21.0,32076.6,35211.9,0.1236,0.2462,146.6,96.7,0.532
21.02,31976.0,35039.6,-0.0123,0.0421,146.6,96.7,0.532
21.04,31942.6,34993.0,-0.0574,-0.0131,146.6,96.7,0.532
21.06,31958.4,34975.0,-0.036,-0.0344,146.6,96.7,0.532
21.08,31876.1,34917.8,-0.1472,-0.1023,146.6,96.7,0.532
21.1,31855.4,34765.4,-0.1751,-0.2829,146.6,96.7,0.532
21.12,31827.4,34605.8,-0.213,-0.472,146.6,96.7,0.532
21.14,31763.2,34525.9,-0.2996,-0.5667,146.6,96.7,0.532
21.16,31822.0,34698.6,-0.2202,-0.362,146.6,96.7,0.532
21.18,31848.7,34549.4,-0.1842,-0.5388,146.6,96.7,0.532
21.2,31838.1,34535.7,-0.1985,-0.555,146.6,96.7,0.532
21.22,31754.3,34418.3,-0.3116,-0.6941,146.6,96.7,0.532
21.24,31772.7,34538.6,-0.2868,-0.5516,146.6,96.7,0.532
21.26,31852.6,34735.1,-0.179,-0.3187,146.6,96.7,0.532
21.28,32089.4,35025.1,0.1409,0.0249,146.6,96.7,0.532
21.3,32240.7,35373.4,0.3452,0.4377,146.6,96.7,0.532
21.32,32415.3,35704.3,0.5809,0.8298,146.6,96.7,0.532
21.34,32410.9,35797.8,0.575,0.9405,146.6,96.7,0.532
21.36,32286.0,35691.6,0.4063,0.8147,146.6,96.7,0.532
21.38,32111.1,35465.1,0.1702,0.5463,146.6,96.7,0.532
21.4,32206.8,35291.7,0.2993,0.3409,146.6,96.7,0.532
21.42,32013.4,35187.2,0.0382,0.2171,146.6,96.7,0.532
21.44,31985.0,35112.4,-0.0001,0.1284,146.6,96.7,0.532
21.46,32050.3,35062.1,0.0881,0.0688,146.6,96.7,0.532
21.48,31953.7,34905.1,-0.0423,-0.1172,146.6,96.7,0.532
21.5,31909.6,34786.4,-0.102,-0.258,146.6,96.7,0.532
21.52,31899.6,34746.8,-0.1155,-0.3049,146.6,96.7,0.532
21.54,31814.2,34732.1,-0.2308,-0.3223,146.6,96.7,0.532
21.56,31810.3,34667.8,-0.236,-0.3984,146.6,96.7,0.532
21.58,31818.1,34706.9,-0.2255,-0.3522,146.6,96.7,0.532
21.6,31800.4,34566.4,-0.2494,-0.5187,146.6,96.7,0.532
21.62,31706.1,34502.4,-0.3767,-0.5944,146.6,96.7,0.532
21.64,31795.4,34426.6,-0.2562,-0.6843,146.6,96.7,0.532
21.66,31885.5,34658.6,-0.1345,-0.4094,146.6,96.7,0.532
21.68,31952.6,34980.3,-0.0439,-0.0282,146.6,96.7,0.532
21.7,32078.2,35304.0,0.1258,0.3555,146.6,96.7,0.532
21.72,32221.7,35601.3,0.3196,0.7077,146.6,96.7,0.532
21.74,32419.2,35801.4,0.5862,0.9448,146.6,96.7,0.532
21.76,32442.3,35772.5,0.6174,0.9106,146.6,96.7,0.532
21.78,32228.9,35493.9,0.3292,0.5805,146.6,96.7,0.532
21.8,32135.3,35363.2,0.2029,0.4256,146.6,96.7,0.532
21.82,32128.8,35198.0,0.1941,0.2298,146.6,96.7,0.532
21.84,32168.4,35079.5,0.2475,0.0894,146.6,96.7,0.532
21.86,32034.7,35072.2,0.0669,0.0808,146.6,96.7,0.532
21.88,32053.9,35059.8,0.0929,0.066,146.6,96.7,0.532
21.9,32016.7,34948.5,0.0427,-0.0659,146.6,96.7,0.532
21.92,32002.7,34805.2,0.0238,-0.2356,146.6,96.7,0.532
21.94,31825.9,34717.0,-0.2149,-0.3402,146.6,96.7,0.532
21.96,31787.5,34666.1,-0.2668,-0.4005,146.6,96.7,0.532
21.98,31797.1,34646.2,-0.2538,-0.4241,146.6,96.7,0.532
22.0,31867.2,34563.0,-0.1592,-0.5226,146.6,96.7,0.532
22.02,31756.0,34571.2,-0.3093,-0.5129,146.6,96.7,0.532
22.04,31671.0,34434.1,-0.4242,-0.6755,146.6,96.7,0.532
22.06,31724.6,34483.9,-0.3518,-0.6164,146.6,96.7,0.532
22.08,31729.3,34753.3,-0.3454,-0.2971,146.6,96.7,0.532
22.1,31934.3,35144.1,-0.0685,0.1659,146.6,96.7,0.532
22.12,32135.6,35401.4,0.2033,0.4708,146.6,96.7,0.532
22.14,32410.9,35713.1,0.575,0.8402,146.6,96.7,0.532
22.16,32425.1,35722.7,0.5941,0.8516,146.6,96.7,0.532
22.18,32394.9,35615.6,0.5534,0.7247,146.6,96.7,0.532
22.2,32193.1,35390.0,0.2809,0.4573,146.6,96.7,0.532
22.22,32102.8,35214.8,0.159,0.2497,146.6,96.7,0.532
22.24,32075.8,35163.5,0.1225,0.1889,146.6,96.7,0.532
22.26,32103.8,35119.7,0.1603,0.137,146.6,96.7,0.532
22.28,31985.7,35017.0,0.0009,0.0154,146.6,96.7,0.532
22.3,31936.1,34900.7,-0.0662,-0.1224,146.6,96.7,0.532
22.32,31881.7,34884.8,-0.1397,-0.1414,146.6,96.7,0.532
22.34,31844.4,34688.6,-0.19,-0.3739,146.6,96.7,0.532
22.36,31873.0,34605.5,-0.1513,-0.4723,146.6,96.7,0.532
22.38,31850.3,34569.9,-0.182,-0.5145,146.6,96.7,0.532
22.4,31711.3,34648.5,-0.3697,-0.4213,146.6,96.7,0.532
22.42,31712.4,34631.9,-0.3681,-0.4411,146.6,96.7,0.532
22.44,31816.8,34465.2,-0.2273,-0.6386,146.6,96.7,0.532
22.46,31831.8,34403.5,-0.2069,-0.7117,146.6,96.7,0.532
22.48,31860.3,34658.0,-0.1685,-0.4101,146.6,96.7,0.532
22.5,31990.5,34863.6,0.0073,-0.1665,146.6,96.7,0.532
22.52,32147.3,35191.1,0.219,0.2216,146.6,96.7,0.532
22.54,32378.1,35612.3,0.5307,0.7207,146.6,96.7,0.532
22.56,32331.2,35694.4,0.4673,0.818,146.6,96.7,0.532
22.58,32357.7,35615.6,0.5032,0.7246,146.6,96.7,0.532
22.6,32151.5,35477.8,0.2247,0.5613,146.6,96.7,0.532
22.62,32187.9,35353.7,0.2738,0.4144,146.6,96.7,0.532
22.64,32072.4,35156.3,0.1179,0.1804,146.6,96.7,0.532
22.66,32083.9,35126.5,0.1335,0.1451,146.6,96.7,0.532
22.68,32059.2,35071.3,0.1001,0.0797,146.6,96.7,0.532
22.7,31907.9,35098.5,-0.1042,0.112,146.6,96.7,0.532
22.72,32025.7,34961.0,0.0548,-0.051,146.6,96.7,0.532
22.74,31896.7,34833.0,-0.1193,-0.2027,146.6,96.7,0.532
22.76,31779.2,34706.7,-0.278,-0.3524,146.6,96.7,0.532
22.78,31789.9,34669.6,-0.2635,-0.3964,146.6,96.7,0.532
22.8,31822.3,34585.3,-0.2198,-0.4962,146.6,96.7,0.532
22.82,31770.3,34739.6,-0.29,-0.3134,146.6,96.7,0.532
22.84,31810.4,34446.6,-0.2359,-0.6606,146.6,96.7,0.532
22.86,31810.0,34449.2,-0.2364,-0.6575,146.6,96.7,0.532
22.88,31793.9,34530.7,-0.2581,-0.561,146.6,96.7,0.532
22.9,31840.2,34684.3,-0.1956,-0.379,146.6,96.7,0.532
22.92,32111.5,35186.4,0.1707,0.2161,146.6,96.7,0.532
22.94,32198.4,35430.3,0.288,0.5051,146.6,96.7,0.532
22.96,32347.0,35694.5,0.4887,0.8182,146.6,96.7,0.532
22.98,32351.1,35772.1,0.4942,0.9102,146.6,96.7,0.532
23.0,32248.4,35581.1,0.3556,0.6838,146.6,96.7,0.532
23.02,32148.2,35333.6,0.2203,0.3906,146.6,96.7,0.532
23.04,32123.6,35208.0,0.1871,0.2417,146.6,96.7,0.532
23.06,32110.2,35134.3,0.169,0.1543,146.6,96.7,0.532
23.08,32039.7,35152.8,0.0738,0.1763,146.6,96.7,0.532
23.1,31937.4,35025.6,-0.0644,0.0255,146.6,96.7,0.532
23.12,32006.3,35006.9,0.0287,0.0033,146.6,96.7,0.532
23.14,31928.9,34797.7,-0.0759,-0.2446,146.6,96.7,0.532
23.16,31803.7,34679.4,-0.2449,-0.3847,146.6,96.7,0.532
23.18,31877.8,34683.6,-0.1449,-0.3798,146.6,96.7,0.532
23.2,31851.2,34634.9,-0.1808,-0.4375,146.6,96.7,0.532
23.22,31869.4,34694.2,-0.1562,-0.3672,146.6,96.7,0.532
23.24,31829.8,34538.9,-0.2097,-0.5513,146.6,96.7,0.532
23.26,31702.7,34463.4,-0.3814,-0.6407,146.6,96.7,0.532
23.28,31754.2,34456.6,-0.3118,-0.6488,146.6,96.7,0.532
23.3,31795.4,34595.4,-0.2561,-0.4842,146.6,96.7,0.532
23.32,31996.8,34905.6,0.0158,-0.1166,146.6,96.7,0.532
23.34,32117.9,35280.5,0.1794,0.3275,146.6,96.7,0.532
23.36,32311.2,35599.8,0.4403,0.706,146.6,96.7,0.532
23.38,32425.0,35705.6,0.594,0.8313,146.6,96.7,0.532
23.4,32382.8,35738.3,0.5371,0.8701,146.6,96.7,0.532
23.42,32311.6,35550.2,0.4409,0.6472,146.6,96.7,0.532
23.44,32154.2,35335.0,0.2283,0.3922,146.6,96.7,0.532
23.46,32095.2,35244.0,0.1487,0.2843,146.6,96.7,0.532
23.48,32024.1,35045.6,0.0526,0.0492,146.6,96.7,0.532
23.5,32062.8,35068.8,0.1049,0.0768,146.6,96.7,0.532
23.52,32025.3,35012.1,0.0543,0.0095,146.6,96.7,0.532
23.54,31893.2,34848.1,-0.124,-0.1848,146.6,96.7,0.532
23.56,31880.4,34789.4,-0.1413,-0.2543,146.6,96.7,0.532
23.58,31787.0,34689.4,-0.2675,-0.3729,146.6,96.7,0.532
23.6,31920.9,34598.2,-0.0867,-0.4809,146.6,96.7,0.532
23.62,31874.0,34688.2,-0.15,-0.3743,146.6,96.7,0.532
23.64,31770.4,34516.7,-0.2899,-0.5776,146.6,96.7,0.532
23.66,31793.8,34498.6,-0.2583,-0.599,146.6,96.7,0.532
23.68,31750.6,34449.4,-0.3166,-0.6573,146.6,96.7,0.532
23.7,31707.8,34568.2,-0.3744,-0.5165,146.6,96.7,0.532
23.72,31832.6,34752.0,-0.2058,-0.2986,146.6,96.7,0.532
23.74,32074.8,35067.9,0.1212,0.0756,146.6,96.7,0.532
23.76,32216.6,35455.0,0.3126,0.5344,146.6,96.7,0.532
23.78,32384.0,35803.6,0.5387,0.9475,146.6,96.7,0.532
23.8,32274.7,35797.5,0.3911,0.9403,146.6,96.7,0.532
23.82,32270.7,35639.5,0.3857,0.753,146.6,96.7,0.532
23.84,32253.0,35447.3,0.3618,0.5253,146.6,96.7,0.532
23.86,32153.8,35221.0,0.2279,0.2571,146.6,96.7,0.532
23.88,32035.7,35133.8,0.0683,0.1537,146.6,96.7,0.532
23.9,31956.6,35054.2,-0.0384,0.0594,146.6,96.7,0.532
23.92,32020.9,35027.2,0.0483,0.0274,146.6,96.7,0.532
23.94,31977.3,34917.8,-0.0106,-0.1022,146.6,96.7,0.532
23.96,31943.6,34854.6,-0.0561,-0.1771,146.6,96.7,0.532
23.98,31859.1,34806.7,-0.1702,-0.2339,146.6,96.7,0.532
24.0,31838.0,34655.1,-0.1985,-0.4136,146.6,96.7,0.532
24.02,31922.1,34657.4,-0.0851,-0.4108,146.6,96.7,0.532
24.04,31873.2,34578.7,-0.1511,-0.5041,146.6,96.7,0.532
24.06,31753.7,34634.2,-0.3125,-0.4383,146.6,96.7,0.532
24.08,31799.6,34522.8,-0.2505,-0.5703,146.6,96.7,0.532
24.1,31780.2,34493.4,-0.2766,-0.6052,146.6,96.7,0.532
24.12,31823.6,34526.5,-0.2181,-0.5659,146.6,96.7,0.532
24.14,31965.8,34928.6,-0.0261,-0.0894,146.6,96.7,0.532
24.16,32144.2,35299.1,0.2149,0.3496,146.6,96.7,0.532
24.18,32313.0,35646.6,0.4429,0.7614,146.6,96.7,0.532
24.2,32368.5,35845.2,0.5177,0.9967,146.6,96.7,0.532
24.22,32330.9,35762.0,0.467,0.8982,146.6,96.7,0.532
24.24,32321.6,35487.5,0.4544,0.5729,146.6,96.7,0.532
24.26,32164.8,35302.1,0.2426,0.3531,146.6,96.7,0.532
24.28,32040.5,35267.7,0.0748,0.3124,146.6,96.7,0.532
24.3,32024.6,35055.6,0.0534,0.0611,146.6,96.7,0.532
24.32,32081.6,35063.7,0.1303,0.0707,146.6,96.7,0.532
24.34,31981.8,35014.7,-0.0045,0.0126,146.6,96.7,0.532
24.36,31923.0,34844.3,-0.0838,-0.1894,146.6,96.7,0.532
24.38,31938.0,34799.0,-0.0636,-0.243,146.6,96.7,0.532
24.4,31771.2,34640.5,-0.2889,-0.4309,146.6,96.7,0.532
24.42,31906.6,34689.5,-0.1059,-0.3728,146.6,96.7,0.532
24.44,31879.6,34687.9,-0.1424,-0.3747,146.6,96.7,0.532
24.46,31866.2,34568.5,-0.1605,-0.5162,146.6,96.7,0.532
24.48,31780.9,34497.3,-0.2757,-0.6005,146.6,96.7,0.532
24.5,31686.9,34572.4,-0.4027,-0.5115,146.6,96.7,0.532
24.52,31847.2,34537.5,-0.1861,-0.5529,146.6,96.7,0.532
24.54,31841.5,34714.2,-0.1939,-0.3435,146.6,96.7,0.532
24.56,32041.9,35153.9,0.0767,0.1775,146.6,96.7,0.532
24.58,32254.9,35548.7,0.3644,0.6454,146.6,96.7,0.532
24.6,32271.3,35736.7,0.3865,0.8682,146.6,96.7,0.532
24.62,32420.2,35747.1,0.5875,0.8805,146.6,96.7,0.532
24.64,32281.0,35606.3,0.3996,0.7137,146.6,96.7,0.532
24.66,32047.1,35402.6,0.0837,0.4723,146.6,96.7,0.532
24.68,32082.9,35271.2,0.1321,0.3165,146.6,96.7,0.532
24.7,32013.6,35110.9,0.0385,0.1266,146.6,96.7,0.532
24.72,31991.0,35039.3,0.008,0.0418,146.6,96.7,0.532
24.74,32084.4,35000.7,0.134,-0.004,146.6,96.7,0.532
24.76,31959.9,34896.1,-0.034,-0.1279,146.6,96.7,0.532
24.78,31925.0,34837.5,-0.0811,-0.1973,146.6,96.7,0.532
24.8,31783.6,34697.5,-0.2721,-0.3633,146.6,96.7,0.532
24.82,31791.7,34671.4,-0.2611,-0.3943,146.6,96.7,0.532
24.84,31828.6,34768.8,-0.2114,-0.2788,146.6,96.7,0.532
24.86,31805.9,34534.8,-0.242,-0.5561,146.6,96.7,0.532
24.88,31734.5,34653.9,-0.3383,-0.415,146.6,96.7,0.532
24.9,31759.1,34418.7,-0.3051,-0.6937,146.6,96.7,0.532
24.92,31777.6,34477.9,-0.2801,-0.6235,146.6,96.7,0.532
24.94,31796.9,34628.1,-0.2541,-0.4455,146.6,96.7,0.532
24.96,31883.1,34933.9,-0.1377,-0.0831,146.6,96.7,0.532
24.98,32215.3,35309.0,0.3108,0.3614,146.6,96.7,0.532
25.0,32270.2,35582.2,0.385,0.6851,146.6,96.7,0.532
25.02,32441.8,35800.6,0.6167,0.944,146.6,96.7,0.532
25.04,32380.0,35658.2,0.5332,0.7752,146.6,96.7,0.532
25.06,32258.3,35482.2,0.3689,0.5666,146.6,96.7,0.532
25.08,32147.1,35275.2,0.2188,0.3213,146.6,96.7,0.532
25.1,32000.6,35117.4,0.0209,0.1342,146.6,96.7,0.532
25.12,32000.6,35098.5,0.021,0.1119,146.6,96.7,0.532
25.14,31961.4,35046.2,-0.0319,0.0499,146.6,96.7,0.532
25.16,31939.1,34973.0,-0.062,-0.0368,146.6,96.7,0.532
25.18,31890.1,34855.9,-0.1283,-0.1756,146.6,96.7,0.532
25.2,31811.9,34786.9,-0.2338,-0.2573,146.6,96.7,0.532
25.22,31832.8,34704.7,-0.2056,-0.3548,146.6,96.7,0.532
25.24,31863.9,34716.3,-0.1636,-0.341,146.6,96.7,0.532
25.26,31884.0,34629.7,-0.1365,-0.4437,146.6,96.7,0.532
25.28,31703.4,34588.8,-0.3804,-0.4921,146.6,96.7,0.532
25.3,31756.0,34505.5,-0.3094,-0.5908,146.6,96.7,0.532
25.32,31767.1,34456.4,-0.2943,-0.649,146.6,96.7,0.532
25.34,31753.5,34488.3,-0.3127,-0.6112,146.6,96.7,0.532
25.36,31879.1,34774.7,-0.1431,-0.2718,146.6,96.7,0.532
25.38,32113.4,35199.6,0.1733,0.2317,146.6,96.7,0.532
25.4,32240.9,35499.1,0.3455,0.5866,146.6,96.7,0.532
25.42,32293.6,35755.3,0.4166,0.8903,146.6,96.7,0.532
25.44,32271.5,35585.7,0.3868,0.6892,146.6,96.7,0.532
25.46,32206.4,35637.7,0.2989,0.7508,146.6,96.7,0.532
25.48,32165.1,35379.7,0.2431,0.4452,146.6,96.7,0.532
25.5,31985.4,35157.8,0.0005,0.1821,146.6,96.7,0.532
25.52,31981.6,35140.3,-0.0048,0.1614,146.6,96.7,0.532
25.54,31963.8,35084.1,-0.0287,0.0949,146.6,96.7,0.532
25.56,31903.6,34984.1,-0.1101,-0.0237,146.6,96.7,0.532
25.58,31960.7,34934.8,-0.033,-0.082,146.6,96.7,0.532
25.6,31961.7,34766.4,-0.0315,-0.2816,146.6,96.7,0.532
25.62,31900.2,34709.6,-0.1147,-0.349,146.6,96.7,0.532
25.64,31822.6,34650.3,-0.2194,-0.4192,146.6,96.7,0.532
25.66,31845.1,34673.8,-0.189,-0.3914,146.6,96.7,0.532
25.68,31826.4,34698.4,-0.2143,-0.3622,146.6,96.7,0.532
25.7,31677.0,34531.9,-0.4159,-0.5596,146.6,96.7,0.532
25.72,31830.2,34485.3,-0.2091,-0.6147,146.6,96.7,0.532
25.74,31673.1,34467.1,-0.4213,-0.6363,146.6,96.7,0.532
25.76,31775.4,34685.0,-0.2831,-0.3781,146.6,96.7,0.532
25.78,31998.7,34974.7,0.0184,-0.0349,146.6,96.7,0.532
25.8,32128.6,35388.3,0.1938,0.4553,146.6,96.7,0.532
25.82,32297.0,35650.9,0.4212,0.7665,146.6,96.7,0.532
25.84,32414.9,35848.7,0.5804,1.0009,146.6,96.7,0.532
25.86,32374.5,35646.1,0.5259,0.7608,146.6,96.7,0.532
25.88,32174.5,35513.4,0.2558,0.6036,146.6,96.7,0.532
25.9,32138.1,35355.4,0.2066,0.4164,146.6,96.7,0.532
25.92,32129.5,35157.3,0.195,0.1815,146.6,96.7,0.532
25.94,32131.2,35138.2,0.1973,0.1589,146.6,96.7,0.532
25.96,32069.5,34949.6,0.1141,-0.0645,146.6,96.7,0.532
25.98,31934.2,35008.9,-0.0686,0.0057,146.6,96.7,0.532
26.0,31930.4,34857.2,-0.0738,-0.174,146.6,96.7,0.532
26.02,31936.1,34688.6,-0.0662,-0.3739,146.6,96.7,0.532
26.04,31701.5,34703.4,-0.3829,-0.3563,146.6,96.7,0.532
26.06,31785.4,34649.6,-0.2696,-0.42,146.6,96.7,0.532
26.08,31801.6,34693.8,-0.2477,-0.3677,146.6,96.7,0.532
26.1,31763.3,34537.4,-0.2995,-0.5529,146.6,96.7,0.532
26.12,31731.1,34461.2,-0.3429,-0.6433,146.6,96.7,0.532
26.14,31809.6,34435.0,-0.2369,-0.6743,146.6,96.7,0.532
26.16,31828.1,34565.4,-0.212,-0.5199,146.6,96.7,0.532
26.18,31877.8,34803.4,-0.1448,-0.2377,146.6,96.7,0.532
26.2,31979.0,35136.8,-0.0083,0.1573,146.6,96.7,0.532
26.22,32251.6,35563.1,0.36,0.6625,146.6,96.7,0.532
26.24,32326.7,35781.3,0.4612,0.921,146.6,96.7,0.532
26.26,32372.0,35701.4,0.5225,0.8263,146.6,96.7,0.532
26.28,32352.2,35536.5,0.4957,0.6309,146.6,96.7,0.532
26.3,32239.9,35405.3,0.3441,0.4755,146.6,96.7,0.532
26.32,32017.6,35280.3,0.0439,0.3273,146.6,96.7,0.532
26.34,31993.3,35064.3,0.0111,0.0714,146.6,96.7,0.532
26.36,32005.7,35004.0,0.0278,-0.0,146.6,96.7,0.532
26.38,31982.5,34903.9,-0.0034,-0.1186,146.6,96.7,0.532
26.4,32006.9,34932.3,0.0294,-0.085,146.6,96.7,0.532
26.42,31852.7,34889.2,-0.1787,-0.1361,146.6,96.7,0.532
26.44,31933.0,34682.0,-0.0703,-0.3816,146.6,96.7,0.532
26.46,31881.3,34742.1,-0.1401,-0.3104,146.6,96.7,0.532
26.48,31884.6,34643.5,-0.1357,-0.4272,146.6,96.7,0.532
26.5,31823.3,34651.6,-0.2184,-0.4177,146.6,96.7,0.532
26.52,31818.6,34522.5,-0.2248,-0.5706,146.6,96.7,0.532
26.54,31769.5,34395.3,-0.2911,-0.7213,146.6,96.7,0.532
26.56,31686.8,34444.2,-0.4028,-0.6634,146.6,96.7,0.532
26.58,31944.8,34728.6,-0.0544,-0.3264,146.6,96.7,0.532
26.6,32010.7,35043.6,0.0346,0.0469,146.6,96.7,0.532
26.62,32229.0,35374.1,0.3294,0.4385,146.6,96.7,0.532
26.64,32402.3,35685.5,0.5634,0.8075,146.6,96.7,0.532
26.66,32409.3,35836.0,0.5729,0.9859,146.6,96.7,0.532
26.68,32386.9,35678.5,0.5426,0.7992,146.6,96.7,0.532
26.7,32180.3,35465.7,0.2636,0.547,146.6,96.7,0.532
26.72,32178.9,35266.1,0.2617,0.3105,146.6,96.7,0.532
26.74,32062.7,35166.8,0.1048,0.1929,146.6,96.7,0.532
26.76,31995.9,35160.4,0.0146,0.1852,146.6,96.7,0.532
26.78,31993.4,35053.7,0.0112,0.0588,146.6,96.7,0.532
26.8,31993.4,34910.4,0.0112,-0.111,146.6,96.7,0.532
26.82,31871.7,34745.1,-0.1532,-0.3069,146.6,96.7,0.532
26.84,31856.7,34775.0,-0.1733,-0.2715,146.6,96.7,0.532
26.86,31908.2,34788.7,-0.1037,-0.2552,146.6,96.7,0.532
26.88,31880.8,34601.4,-0.1408,-0.4772,146.6,96.7,0.532
26.9,31845.9,34630.7,-0.1879,-0.4425,146.6,96.7,0.532
26.92,31896.2,34538.0,-0.1201,-0.5523,146.6,96.7,0.532
26.94,31793.1,34470.3,-0.2593,-0.6325,146.6,96.7,0.532
26.96,31710.7,34444.2,-0.3704,-0.6635,146.6,96.7,0.532
26.98,31722.1,34622.9,-0.3551,-0.4517,146.6,96.7,0.532
27.0,31837.6,34897.6,-0.1991,-0.1261,146.6,96.7,0.532
27.02,32086.2,35257.6,0.1365,0.3005,146.6,96.7,0.532
27.04,32318.1,35590.7,0.4497,0.6951,146.6,96.7,0.532
27.06,32461.1,35719.6,0.6427,0.848,146.6,96.7,0.532
27.08,32329.5,35711.3,0.4651,0.8381,146.6,96.7,0.532
27.1,32298.1,35651.3,0.4227,0.767,146.6,96.7,0.532
27.12,32148.8,35353.8,0.221,0.4144,146.6,96.7,0.532
27.14,32079.0,35204.5,0.1268,0.2376,146.6,96.7,0.532
27.16,32010.9,35071.3,0.0349,0.0796,146.6,96.7,0.532
27.18,32071.1,35016.4,0.1162,0.0146,146.6,96.7,0.532
27.2,32006.5,35022.1,0.0289,0.0214,146.6,96.7,0.532
27.22,31921.9,34917.7,-0.0853,-0.1023,146.6,96.7,0.532
27.24,31907.3,34735.2,-0.1051,-0.3187,146.6,96.7,0.532
27.26,31866.1,34663.1,-0.1607,-0.404,146.6,96.7,0.532
27.28,31875.2,34719.5,-0.1484,-0.3372,146.6,96.7,0.532
27.3,31763.1,34641.9,-0.2997,-0.4292,146.6,96.7,0.532
27.32,31819.9,34593.8,-0.2231,-0.4862,146.6,96.7,0.532
27.34,31763.7,34559.2,-0.2989,-0.5271,146.6,96.7,0.532
27.36,31742.3,34521.7,-0.3279,-0.5716,146.6,96.7,0.532
27.38,31755.2,34544.0,-0.3104,-0.5452,146.6,96.7,0.532
27.4,31773.7,34709.2,-0.2854,-0.3494,146.6,96.7,0.532
27.42,31990.3,35005.3,0.007,0.0014,146.6,96.7,0.532
27.44,32250.6,35428.9,0.3586,0.5034,146.6,96.7,0.532
27.46,32334.0,35677.4,0.4711,0.7979,146.6,96.7,0.532
27.48,32421.1,35837.9,0.5887,0.9881,146.6,96.7,0.532
27.5,32373.2,35643.8,0.5241,0.7581,146.6,96.7,0.532
27.52,32259.8,35474.1,0.371,0.557,146.6,96.7,0.532
27.54,32155.1,35306.5,0.2296,0.3583,146.6,96.7,0.532
27.56,32045.0,35114.6,0.0809,0.1309,146.6,96.7,0.532
27.58,32087.0,35130.7,0.1376,0.1501,146.6,96.7,0.532
27.6,32035.0,35026.3,0.0674,0.0263,146.6,96.7,0.532
27.62,31924.6,35005.6,-0.0817,0.0019,146.6,96.7,0.532
27.64,31842.7,34891.6,-0.1922,-0.1332,146.6,96.7,0.532
27.66,31979.0,34736.1,-0.0082,-0.3175,146.6,96.7,0.532
27.68,31866.8,34733.5,-0.1597,-0.3206,146.6,96.7,0.532
27.7,31713.5,34629.2,-0.3668,-0.4442,146.6,96.7,0.532
27.72,31858.2,34731.0,-0.1714,-0.3236,146.6,96.7,0.532
27.74,31811.8,34544.0,-0.234,-0.5452,146.6,96.7,0.532
27.76,31714.9,34472.0,-0.3648,-0.6305,146.6,96.7,0.532
27.78,31711.4,34446.2,-0.3696,-0.6611,146.6,96.7,0.532
27.8,31697.2,34525.4,-0.3888,-0.5672,146.6,96.7,0.532
27.82,31897.7,34869.6,-0.118,-0.1593,146.6,96.7,0.532
27.84,32066.7,35274.3,0.1103,0.3203,146.6,96.7,0.532
27.86,32237.9,35530.4,0.3414,0.6237,146.6,96.7,0.532
27.88,32417.8,35800.8,0.5844,0.9441,146.6,96.7,0.532
27.9,32302.0,35759.2,0.4279,0.8949,146.6,96.7,0.532
27.92,32255.0,35535.2,0.3645,0.6294,146.6,96.7,0.532
27.94,32115.9,35374.9,0.1767,0.4394,146.6,96.7,0.532
27.96,32008.5,35275.5,0.0317,0.3216,146.6,96.7,0.532
27.98,32004.0,35078.9,0.0255,0.0887,146.6,96.7,0.532
28.0,31973.5,35009.1,-0.0156,0.006,146.6,96.7,0.532
28.02,32020.8,34989.5,0.0483,-0.0173,146.6,96.7,0.532
28.04,31932.8,34825.7,-0.0706,-0.2113,146.6,96.7,0.532
28.06,31955.2,34747.2,-0.0404,-0.3044,146.6,96.7,0.532
28.08,31803.4,34726.7,-0.2453,-0.3286,146.6,96.7,0.532
28.1,31844.6,34713.6,-0.1897,-0.3442,146.6,96.7,0.532
28.12,31831.1,34582.4,-0.2079,-0.4996,146.6,96.7,0.532
28.14,31826.2,34630.5,-0.2145,-0.4427,146.6,96.7,0.532
28.16,31721.9,34519.1,-0.3553,-0.5747,146.6,96.7,0.532
28.18,31769.8,34408.5,-0.2907,-0.7058,146.6,96.7,0.532
28.2,31742.3,34520.7,-0.3278,-0.5728,146.6,96.7,0.532
28.22,31783.5,34696.0,-0.2722,-0.365,146.6,96.7,0.532
28.24,32099.2,35007.8,0.1541,0.0045,146.6,96.7,0.532
28.26,32330.0,35489.3,0.4657,0.5751,146.6,96.7,0.532
28.28,32249.4,35729.7,0.3569,0.8598,146.6,96.7,0.532
28.3,32393.2,35724.7,0.5511,0.8539,146.6,96.7,0.532
28.32,32229.5,35640.2,0.33,0.7539,146.6,96.7,0.532
28.34,32165.2,35477.3,0.2433,0.5607,146.6,96.7,0.532
28.36,32160.8,35277.4,0.2373,0.3239,146.6,96.7,0.532
28.38,32083.8,35141.6,0.1333,0.163,146.6,96.7,0.532
28.4,31919.5,35085.3,-0.0885,0.0963,146.6,96.7,0.532
28.42,32055.3,35086.5,0.0949,0.0977,146.6,96.7,0.532
28.44,32042.9,34959.7,0.0781,-0.0526,146.6,96.7,0.532
28.46,31909.7,34873.2,-0.1017,-0.155,146.6,96.7,0.532
28.48,31863.9,34775.1,-0.1637,-0.2713,146.6,96.7,0.532
28.5,31946.8,34684.9,-0.0517,-0.3782,146.6,96.7,0.532
28.52,31822.0,34679.1,-0.2203,-0.3851,146.6,96.7,0.532
28.54,31880.8,34658.5,-0.1409,-0.4095,146.6,96.7,0.532
28.56,31743.7,34632.1,-0.326,-0.4408,146.6,96.7,0.532
28.58,31699.9,34482.2,-0.3851,-0.6184,146.6,96.7,0.532
28.6,31766.8,34424.7,-0.2947,-0.6865,146.6,96.7,0.532
28.62,31804.8,34598.7,-0.2434,-0.4804,146.6,96.7,0.532
28.64,31882.1,34889.1,-0.1391,-0.1362,146.6,96.7,0.532
28.66,32076.1,35252.9,0.1229,0.2949,146.6,96.7,0.532
28.68,32243.5,35702.2,0.3489,0.8273,146.6,96.7,0.532
28.7,32394.1,35837.0,0.5523,0.9871,146.6,96.7,0.532
28.72,32314.9,35738.6,0.4454,0.8704,146.6,96.7,0.532
28.74,32349.1,35446.9,0.4916,0.5247,146.6,96.7,0.532
28.76,32126.5,35316.9,0.191,0.3707,146.6,96.7,0.532
28.78,32087.2,35243.4,0.1379,0.2836,146.6,96.7,0.532
28.8,31993.2,35061.5,0.0109,0.0681,146.6,96.7,0.532
28.82,32062.0,35104.5,0.1039,0.119,146.6,96.7,0.532
28.84,32059.4,34993.1,0.1004,-0.013,146.6,96.7,0.532
28.86,31900.7,34815.9,-0.1139,-0.223,146.6,96.7,0.532
28.88,31907.1,34722.8,-0.1054,-0.3333,146.6,96.7,0.532
28.9,31816.0,34586.9,-0.2284,-0.4944,146.6,96.7,0.532
28.92,31808.2,34585.7,-0.2388,-0.4957,146.6,96.7,0.532
28.94,31838.5,34646.3,-0.1979,-0.4239,146.6,96.7,0.532
28.96,31745.7,34594.5,-0.3233,-0.4853,146.6,96.7,0.532
28.98,31893.1,34540.9,-0.1242,-0.5489,146.6,96.7,0.532
29.0,31706.8,34397.1,-0.3758,-0.7192,146.6,96.7,0.532
29.02,31775.6,34492.7,-0.2829,-0.606,146.6,96.7,0.532
29.04,31909.0,34686.2,-0.1028,-0.3766,146.6,96.7,0.532
29.06,31958.8,35202.2,-0.0355,0.2348,146.6,96.7,0.532
29.08,32120.6,35502.2,0.1829,0.5903,146.6,96.7,0.532
29.1,32320.7,35738.2,0.4532,0.8699,146.6,96.7,0.532
29.12,32456.9,35789.7,0.6371,0.9309,146.6,96.7,0.532
29.14,32342.3,35627.2,0.4824,0.7385,146.6,96.7,0.532
29.16,32223.0,35546.9,0.3213,0.6433,146.6,96.7,0.532
29.18,32060.1,35242.4,0.1013,0.2824,146.6,96.7,0.532
29.2,32052.8,35139.6,0.0914,0.1606,146.6,96.7,0.532
29.22,32101.3,35093.4,0.1569,0.1059,146.6,96.7,0.532
29.24,32046.4,35043.2,0.0828,0.0464,146.6,96.7,0.532
29.26,31922.0,34928.1,-0.0852,-0.0901,146.6,96.7,0.532
29.28,31819.7,34755.3,-0.2234,-0.2948,146.6,96.7,0.532
29.3,31824.7,34704.3,-0.2166,-0.3552,146.6,96.7,0.532
29.32,31887.0,34614.2,-0.1325,-0.462,146.6,96.7,0.532
29.34,31821.3,34704.3,-0.2211,-0.3552,146.6,96.7,0.532
29.36,31900.3,34587.0,-0.1145,-0.4942,146.6,96.7,0.532
29.38,31760.1,34559.4,-0.3038,-0.527,146.6,96.7,0.532
29.4,31685.7,34423.2,-0.4043,-0.6884,146.6,96.7,0.532
29.42,31756.1,34466.8,-0.3092,-0.6367,146.6,96.7,0.532
29.44,31817.3,34609.2,-0.2266,-0.4679,146.6,96.7,0.532
29.46,31888.6,34977.5,-0.1303,-0.0315,146.6,96.7,0.532
29.48,32146.2,35264.1,0.2176,0.3082,146.6,96.7,0.532
29.5,32282.2,35612.3,0.4013,0.7208,146.6,96.7,0.532
29.52,32352.7,35720.2,0.4964,0.8486,146.6,96.7,0.532
29.54,32355.8,35631.0,0.5006,0.743,146.6,96.7,0.532
29.56,32278.5,35541.7,0.3963,0.6371,146.6,96.7,0.532
29.58,32193.1,35290.5,0.2808,0.3394,146.6,96.7,0.532
29.6,32036.8,35145.7,0.0699,0.1679,146.6,96.7,0.532
29.62,32066.2,35160.8,0.1096,0.1858,146.6,96.7,0.532
29.64,32082.2,35114.9,0.1311,0.1313,146.6,96.7,0.532
29.66,32055.7,35015.6,0.0953,0.0136,146.6,96.7,0.532
29.68,31918.0,34912.7,-0.0906,-0.1082,146.6,96.7,0.532
29.7,31918.2,34663.3,-0.0904,-0.4038,146.6,96.7,0.532
29.72,31880.7,34791.1,-0.1409,-0.2524,146.6,96.7,0.532
29.74,31864.0,34726.5,-0.1635,-0.3289,146.6,96.7,0.532
29.76,31733.4,34698.5,-0.3399,-0.3621,146.6,96.7,0.532
29.78,31777.2,34613.6,-0.2807,-0.4627,146.6,96.7,0.532
29.8,31777.2,34443.5,-0.2807,-0.6643,146.6,96.7,0.532
29.82,31670.5,34397.0,-0.4248,-0.7194,146.6,96.7,0.532
29.84,31839.3,34458.4,-0.1969,-0.6466,146.6,96.7,0.532
29.86,31881.0,34809.7,-0.1406,-0.2303,146.6,96.7,0.532
29.88,32087.3,35104.4,0.1381,0.1189,146.6,96.7,0.532
29.9,32313.3,35539.1,0.4432,0.634,146.6,96.7,0.532
29.92,32328.1,35805.6,0.4632,0.9498,146.6,96.7,0.532
29.94,32318.5,35739.9,0.4503,0.872,146.6,96.7,0.532
29.96,32206.9,35602.7,0.2995,0.7094,146.6,96.7,0.532
29.98,32177.9,35393.3,0.2603,0.4612,146.6,96.7,0.532
30.0,29131.0,33693.4,-3.8539,-1.5532,146.6,96.7,0.532
30.02,32169.6,34267.8,0.2491,-0.8725,146.6,96.7,0.532
30.04,29677.4,35547.9,-3.1161,0.6444,146.6,96.7,0.532
30.06,33710.9,36367.7,2.3304,1.6159,146.6,96.7,0.532
30.08,31658.8,36081.0,-0.4406,1.2761,146.6,96.7,0.532
30.1,29550.1,35814.6,-3.2881,0.9605,146.6,96.7,0.532
30.12,31688.3,36667.8,-0.4007,1.9715,146.6,96.7,0.532
30.14,32086.3,35023.2,0.1366,0.0227,146.6,96.7,0.532
30.16,29935.1,36358.2,-2.7682,1.6046,146.6,96.7,0.532
30.18,33122.9,34463.0,1.5364,-0.6411,146.6,96.7,0.532
30.2,30758.2,37351.5,-1.6567,2.7817,146.6,96.7,0.532
30.22,31727.3,36151.1,-0.3481,1.3592,146.6,96.7,0.532
30.24,31046.4,34853.1,-1.2676,-0.1789,146.6,96.7,0.532
30.26,28181.6,32839.4,-5.136,-2.5652,146.6,96.7,0.532
30.28,29685.3,32106.9,-3.1055,-3.4332,146.6,96.7,0.532
30.3,31746.6,32884.4,-0.322,-2.5118,146.6,96.7,0.532
30.32,29610.4,34544.0,-3.2066,-0.5451,146.6,96.7,0.532
30.34,30597.2,41586.9,-1.8741,7.8007,146.6,96.7,0.532
30.36,32612.9,33116.0,0.8477,-2.2374,146.6,96.7,0.532
30.38,31786.9,33202.3,-0.2676,-2.1352,146.6,96.7,0.532
30.4,34341.9,37885.9,3.1825,3.4151,146.6,96.7,0.532
30.42,31796.2,36094.2,-0.255,1.2919,146.6,96.7,0.532
30.44,30478.4,33285.6,-2.0345,-2.0364,146.6,96.7,0.532
30.46,27442.2,36290.9,-6.1344,1.5249,146.6,96.7,0.532
30.48,31231.3,36588.3,-1.0179,1.8774,146.6,96.7,0.532
30.5,28850.7,34269.1,-4.2325,-0.8709,146.6,96.7,0.532
30.52,31993.8,38535.6,0.0118,4.185,146.6,96.7,0.532
30.54,31449.9,32878.5,-0.7226,-2.5188,146.6,96.7,0.532
30.56,35024.1,33075.0,4.1037,-2.286,146.6,96.7,0.532
30.58,32986.9,31568.9,1.3527,-4.0708,146.6,96.7,0.532
30.6,27719.5,34551.6,-5.7599,-0.5362,146.6,96.7,0.532
30.62,30184.4,33396.6,-2.4315,-1.9048,146.6,96.7,0.532
30.64,30857.2,35482.8,-1.5231,0.5674,146.6,96.7,0.532
30.66,36212.3,39195.3,5.7082,4.9667,146.6,96.7,0.532
30.68,33556.2,34392.5,2.1216,-0.7247,146.6,96.7,0.532
30.7,30787.7,36211.7,-1.6169,1.4311,146.6,96.7,0.532
30.72,31690.1,37414.9,-0.3984,2.8568,146.6,96.7,0.532
30.74,31145.2,33161.0,-1.1341,-2.1841,146.6,96.7,0.532
30.76,32471.6,39214.7,0.6569,4.9897,146.6,96.7,0.532
30.78,29830.6,37905.1,-2.9093,3.4378,146.6,96.7,0.532
30.8,28954.8,38489.7,-4.0919,4.1305,146.6,96.7,0.532
30.82,32928.8,39186.1,1.2744,4.9558,146.6,96.7,0.532
30.84,32240.1,35521.0,0.3443,0.6125,146.6,96.7,0.532
30.86,29928.3,33071.2,-2.7774,-2.2905,146.6,96.7,0.532
30.88,32581.2,33473.6,0.805,-1.8137,146.6,96.7,0.532
30.9,34959.0,33955.8,4.0157,-1.2422,146.6,96.7,0.532
30.92,30652.9,31095.3,-1.7989,-4.6319,146.6,96.7,0.532
30.94,34165.6,32724.4,2.9445,-2.7015,146.6,96.7,0.532
30.96,32644.5,31621.6,0.8904,-4.0083,146.6,96.7,0.532
30.98,30746.8,34202.6,-1.672,-0.9498,146.6,96.7,0.532
31.0,32773.5,36269.5,1.0647,1.4995,146.6,96.7,0.532
31.02,29901.1,34944.8,-2.8141,-0.0702,146.6,96.7,0.532
31.04,34447.1,35091.4,3.3246,0.1034,146.6,96.7,0.532
31.06,30903.4,32682.4,-1.4607,-2.7512,146.6,96.7,0.532
31.08,30797.0,33583.2,-1.6044,-1.6838,146.6,96.7,0.532
31.1,30480.3,37159.3,-2.0319,2.554,146.6,96.7,0.532
31.12,31588.2,35535.7,-0.536,0.6301,146.6,96.7,0.532
31.14,32939.2,39582.9,1.2884,5.426,146.6,96.7,0.532
31.16,32030.9,38969.9,0.0618,4.6996,146.6,96.7,0.532
31.18,29015.3,37182.3,-4.0102,2.5813,146.6,96.7,0.532
31.2,32431.0,38540.7,0.6022,4.191,146.6,96.7,0.532
31.22,33977.5,36305.2,2.6904,1.5419,146.6,96.7,0.532
31.24,28961.0,33618.3,-4.0835,-1.6421,146.6,96.7,0.532
31.26,32340.4,34665.5,0.4798,-0.4012,146.6,96.7,0.532
31.28,33852.5,35669.7,2.5217,0.7888,146.6,96.7,0.532
31.3,35138.0,35133.5,4.2575,0.1534,146.6,96.7,0.532
31.32,32356.1,33073.5,0.501,-2.2878,146.6,96.7,0.532
31.34,30671.2,33609.4,-1.7741,-1.6527,146.6,96.7,0.532
31.36,29293.0,36474.5,-3.6352,1.7424,146.6,96.7,0.532
31.38,29438.5,33337.0,-3.4387,-1.9755,146.6,96.7,0.532
31.4,34249.6,36375.7,3.0578,1.6254,146.6,96.7,0.532
31.42,32380.4,31287.4,0.5338,-4.4043,146.6,96.7,0.532
31.44,32719.1,36318.5,0.9912,1.5577,146.6,96.7,0.532
31.46,29948.8,35202.8,-2.7497,0.2355,146.6,96.7,0.532
31.48,31666.1,40076.8,-0.4308,6.0112,146.6,96.7,0.532
31.5,28084.8,32481.6,-5.2666,-2.9892,146.6,96.7,0.532
31.52,35809.0,37631.8,5.1636,3.114,146.6,96.7,0.532
31.54,33854.6,34897.6,2.5245,-0.1262,146.6,96.7,0.532
31.56,33048.9,35435.5,1.4365,0.5113,146.6,96.7,0.532
31.58,28822.3,33990.3,-4.2708,-1.2013,146.6,96.7,0.532
31.6,33476.1,35549.8,2.0134,0.6467,146.6,96.7,0.532
31.62,30856.3,37800.5,-1.5243,3.3138,146.6,96.7,0.532
31.64,35210.5,33847.3,4.3554,-1.3708,146.6,96.7,0.532
31.66,30534.0,34347.7,-1.9595,-0.7778,146.6,96.7,0.532
31.68,29540.3,34895.9,-3.3013,-0.1282,146.6,96.7,0.532
31.7,33247.9,38986.7,1.7052,4.7195,146.6,96.7,0.532
31.72,32566.1,33488.7,0.7846,-1.7958,146.6,96.7,0.532
31.74,30192.3,33478.3,-2.4208,-1.8081,146.6,96.7,0.532
31.76,32251.9,35897.0,0.3603,1.0582,146.6,96.7,0.532
31.78,28638.6,36818.2,-4.5189,2.1497,146.6,96.7,0.532
31.8,31352.8,38134.4,-0.8537,3.7095,146.6,96.7,0.532
31.82,31188.9,39213.0,-1.0751,4.9877,146.6,96.7,0.532
31.84,34813.0,37501.1,3.8186,2.959,146.6,96.7,0.532
31.86,36686.0,35263.5,6.3478,0.3075,146.6,96.7,0.532
31.88,33511.2,36250.9,2.0608,1.4775,146.6,96.7,0.532
31.9,28168.5,35057.5,-5.1537,0.0633,146.6,96.7,0.532
31.92,33861.7,28762.0,2.5341,-7.3969,146.6,96.7,0.532
31.94,30380.0,35072.5,-2.1674,0.0811,146.6,96.7,0.532
31.96,38293.6,37291.7,8.5186,2.7109,146.6,96.7,0.532
31.98,33705.8,37721.9,2.3235,3.2207,146.6,96.7,0.532
32.0,28592.4,35996.9,-4.5812,1.1765,146.6,96.7,0.532
32.02,32712.1,34126.9,0.9817,-1.0394,146.6,96.7,0.532
32.04,28494.0,37056.7,-4.7141,2.4324,146.6,96.7,0.532
32.06,29716.8,37374.6,-3.0629,2.8091,146.6,96.7,0.532
32.08,36040.6,33518.7,5.4763,-1.7602,146.6,96.7,0.532
32.1,31160.6,35980.6,-1.1133,1.1572,146.6,96.7,0.532
32.12,31757.7,34074.5,-0.3071,-1.1015,146.6,96.7,0.532
32.14,30803.3,38009.2,-1.5958,3.5611,146.6,96.7,0.532
32.16,34294.3,36579.8,3.1182,1.8673,146.6,96.7,0.532
32.18,30015.7,34452.7,-2.6593,-0.6534,146.6,96.7,0.532
32.2,30185.8,33090.9,-2.4297,-2.2671,146.6,96.7,0.532
32.22,31287.7,31022.9,-0.9417,-4.7178,146.6,96.7,0.532
32.24,35856.9,36504.1,5.2283,1.7775,146.6,96.7,0.532
32.26,31316.5,30754.3,-0.9028,-5.036,146.6,96.7,0.532
32.28,31885.2,34139.0,-0.1349,-1.0252,146.6,96.7,0.532
32.3,33880.2,35578.0,2.559,0.6801,146.6,96.7,0.532
32.32,30979.4,37912.6,-1.358,3.4467,146.6,96.7,0.532
32.34,30936.6,34898.8,-1.4158,-0.1247,146.6,96.7,0.532
32.36,31967.6,34429.4,-0.0236,-0.681,146.6,96.7,0.532
32.38,33842.5,34042.0,2.5081,-1.14,146.6,96.7,0.532
32.4,30612.7,37541.6,-1.8531,3.007,146.6,96.7,0.532
32.42,32316.4,35309.8,0.4474,0.3623,146.6,96.7,0.532
32.44,31626.6,35903.7,-0.4841,1.0661,146.6,96.7,0.532
32.46,30071.6,38076.1,-2.5839,3.6405,146.6,96.7,0.532
32.48,34877.4,33863.5,3.9056,-1.3516,146.6,96.7,0.532
32.5,33002.4,37186.0,1.3737,2.5856,146.6,96.7,0.532
32.52,34343.2,36583.6,3.1842,1.8718,146.6,96.7,0.532
32.54,29097.9,33619.8,-3.8986,-1.6403,146.6,96.7,0.532
32.56,30845.4,34029.1,-1.539,-1.1553,146.6,96.7,0.532
32.58,31578.7,35521.0,-0.5488,0.6126,146.6,96.7,0.532
32.6,27353.5,36861.1,-6.2542,2.2006,146.6,96.7,0.532
32.62,31146.3,35424.9,-1.1327,0.4987,146.6,96.7,0.532
32.64,30986.7,33757.9,-1.3481,-1.4767,146.6,96.7,0.532
32.66,33702.3,35796.3,2.3188,0.9388,146.6,96.7,0.532
32.68,33600.4,33104.1,2.1812,-2.2515,146.6,96.7,0.532
32.7,32019.7,33994.7,0.0468,-1.1961,146.6,96.7,0.532
32.72,31008.9,34748.6,-1.3182,-0.3027,146.6,96.7,0.532
32.74,31094.3,34940.9,-1.2028,-0.0748,146.6,96.7,0.532
32.76,31564.0,38060.6,-0.5686,3.622,146.6,96.7,0.532
32.78,33177.0,33288.4,1.6095,-2.0331,146.6,96.7,0.532
32.8,27735.0,35305.7,-5.739,0.3574,146.6,96.7,0.532
32.82,32910.6,35012.8,1.2497,0.0104,146.6,96.7,0.532
32.84,29944.1,33247.8,-2.756,-2.0812,146.6,96.7,0.532
32.86,31763.2,33986.4,-0.2996,-1.206,146.6,96.7,0.532
32.88,33190.2,35113.3,1.6273,0.1294,146.6,96.7,0.532
32.9,32602.9,35079.2,0.8342,0.089,146.6,96.7,0.532
32.92,33368.8,36099.9,1.8684,1.2986,146.6,96.7,0.532
32.94,32238.1,34056.6,0.3416,-1.1228,146.6,96.7,0.532
32.96,28828.6,36368.4,-4.2622,1.6168,146.6,96.7,0.532
32.98,33643.5,37416.9,2.2395,2.8592,146.6,96.7,0.532
33.0,30025.5,32102.7,-2.6461,-3.4382,146.6,96.7,0.532
33.02,31466.5,32541.1,-0.7003,-2.9187,146.6,96.7,0.532
33.04,30624.4,32746.2,-1.8374,-2.6756,146.6,96.7,0.532
33.06,29680.8,34967.4,-3.1116,-0.0435,146.6,96.7,0.532
33.08,29684.7,34094.0,-3.1063,-1.0784,146.6,96.7,0.532
33.1,36667.4,36623.5,6.3227,1.9191,146.6,96.7,0.532
33.12,37928.6,33863.2,8.0257,-1.3519,146.6,96.7,0.532
33.14,32147.0,36207.4,0.2187,1.426,146.6,96.7,0.532
33.16,26769.4,36613.7,-7.0429,1.9075,146.6,96.7,0.532
33.18,33786.7,32909.7,2.4328,-2.4819,146.6,96.7,0.532
33.2,31213.8,37313.9,-1.0415,2.7372,146.6,96.7,0.532
33.22,31867.9,38842.7,-0.1582,4.5489,146.6,96.7,0.532
33.24,28720.2,37965.2,-4.4086,3.509,146.6,96.7,0.532
33.26,32258.1,37120.8,0.3686,2.5083,146.6,96.7,0.532
33.28,33506.3,33193.3,2.0542,-2.1458,146.6,96.7,0.532
33.3,32352.3,35195.4,0.4958,0.2267,146.6,96.7,0.532
33.32,34391.5,33905.1,3.2495,-1.3023,146.6,96.7,0.532
33.34,32578.2,34783.2,0.801,-0.2617,146.6,96.7,0.532
33.36,28617.6,34686.4,-4.5473,-0.3764,146.6,96.7,0.532
33.38,33740.5,35078.3,2.3704,0.088,146.6,96.7,0.532
33.4,32530.0,34943.6,0.7358,-0.0716,146.6,96.7,0.532
33.42,31026.7,36836.9,-1.2941,2.1719,146.6,96.7,0.532
33.44,29458.1,40386.5,-3.4123,6.3783,146.6,96.7,0.532
33.46,33264.9,32488.4,1.7281,-2.9811,146.6,96.7,0.532
33.48,30076.8,32234.3,-2.5768,-3.2822,146.6,96.7,0.532
33.5,32445.2,36471.0,0.6213,1.7383,146.6,96.7,0.532
33.52,32909.4,32237.7,1.2482,-3.2782,146.6,96.7,0.532
33.54,31717.8,31762.3,-0.3609,-3.8415,146.6,96.7,0.532
33.56,31268.3,36928.0,-0.9678,2.2799,146.6,96.7,0.532
33.58,33040.7,33689.3,1.4254,-1.558,146.6,96.7,0.532
33.6,30545.8,35856.2,-1.9435,1.0099,146.6,96.7,0.532
33.62,33005.9,35155.8,1.3785,0.1798,146.6,96.7,0.532
33.64,32293.3,32135.5,0.4162,-3.3993,146.6,96.7,0.532
33.66,32335.6,33730.9,0.4733,-1.5087,146.6,96.7,0.532
33.68,30427.1,35147.5,-2.1038,0.17,146.6,96.7,0.532
33.7,32431.3,36621.1,0.6025,1.9162,146.6,96.7,0.532
33.72,28038.4,32850.7,-5.3294,-2.5518,146.6,96.7,0.532
33.74,29976.6,35419.5,-2.7121,0.4923,146.6,96.7,0.532
33.76,30116.6,36663.6,-2.523,1.9666,146.6,96.7,0.532
33.78,35080.2,35954.5,4.1794,1.1263,146.6,96.7,0.532
33.8,32451.5,37268.0,0.6298,2.6828,146.6,96.7,0.532
33.82,33389.1,34299.9,1.8959,-0.8345,146.6,96.7,0.532
33.84,26545.4,35546.6,-7.3454,0.6429,146.6,96.7,0.532
33.86,33884.4,34977.9,2.5647,-0.0311,146.6,96.7,0.532
33.88,29488.0,32066.8,-3.3719,-3.4807,146.6,96.7,0.532
33.9,31481.7,34049.3,-0.6797,-1.1314,146.6,96.7,0.532
33.92,33566.8,35543.5,2.1359,0.6393,146.6,96.7,0.532
33.94,33294.9,34731.7,1.7687,-0.3228,146.6,96.7,0.532
33.96,31273.9,37792.5,-0.9604,3.3044,146.6,96.7,0.532
33.98,29127.1,34462.0,-3.8592,-0.6423,146.6,96.7,0.532
34.0,36300.9,30140.9,5.8278,-5.7629,146.6,96.7,0.532
34.02,34006.3,36258.3,2.7293,1.4863,146.6,96.7,0.532
34.04,32420.1,37395.2,0.5874,2.8335,146.6,96.7,0.532
34.06,33555.4,37448.4,2.1205,2.8965,146.6,96.7,0.532
34.08,34630.1,34363.2,3.5717,-0.7594,146.6,96.7,0.532
34.1,32034.1,35921.9,0.0661,1.0876,146.6,96.7,0.532
34.12,28481.6,36458.0,-4.7309,1.7229,146.6,96.7,0.532
34.14,30399.0,33234.7,-2.1417,-2.0968,146.6,96.7,0.532
34.16,31840.8,36503.0,-0.1949,1.7762,146.6,96.7,0.532
34.18,29161.2,36844.1,-3.8131,2.1804,146.6,96.7,0.532
34.2,29644.0,35141.6,-3.1613,0.163,146.6,96.7,0.532
34.22,31584.8,34821.4,-0.5406,-0.2164,146.6,96.7,0.532
34.24,31457.3,33148.3,-0.7127,-2.1991,146.6,96.7,0.532
34.26,29442.7,34712.7,-3.4331,-0.3452,146.6,96.7,0.532
34.28,32620.0,38055.7,0.8573,3.6163,146.6,96.7,0.532
34.3,30891.7,34943.6,-1.4764,-0.0717,146.6,96.7,0.532
34.32,32089.8,34266.2,0.1414,-0.8743,146.6,96.7,0.532
34.34,34002.0,36860.7,2.7235,2.2001,146.6,96.7,0.532
34.36,34209.5,36771.3,3.0037,2.0942,146.6,96.7,0.532
34.38,34043.9,34611.0,2.78,-0.4658,146.6,96.7,0.532
34.4,28736.1,34755.1,-4.3872,-0.295,146.6,96.7,0.532
34.42,32736.1,42043.2,1.0141,8.3415,146.6,96.7,0.532
34.44,26226.0,37106.8,-7.7767,2.4917,146.6,96.7,0.532
34.46,31297.9,36111.4,-0.9279,1.3123,146.6,96.7,0.532
34.48,32901.4,36223.6,1.2373,1.4452,146.6,96.7,0.532
34.5,31377.6,32820.3,-0.8202,-2.5878,146.6,96.7,0.532
34.52,34656.6,34549.5,3.6074,-0.5386,146.6,96.7,0.532
34.54,29978.8,33057.0,-2.7091,-2.3073,146.6,96.7,0.532
34.56,32289.2,34208.3,0.4107,-0.943,146.6,96.7,0.532
34.58,33076.8,35952.4,1.4742,1.1238,146.6,96.7,0.532
34.6,28179.3,32413.8,-5.1391,-3.0695,146.6,96.7,0.532
34.62,29848.3,30067.9,-2.8853,-5.8494,146.6,96.7,0.532
34.64,35572.0,37327.7,4.8435,2.7535,146.6,96.7,0.532
34.66,34906.8,33277.8,3.9453,-2.0457,146.6,96.7,0.532
34.68,31525.2,33173.2,-0.6209,-2.1696,146.6,96.7,0.532
34.7,33478.6,33644.5,2.0168,-1.6111,146.6,96.7,0.532
34.72,31552.5,38187.2,-0.5841,3.7721,146.6,96.7,0.532
34.74,31473.7,35370.5,-0.6905,0.4342,146.6,96.7,0.532
34.76,32401.8,34292.6,0.5627,-0.8431,146.6,96.7,0.532
34.78,34724.4,33780.3,3.6989,-1.4502,146.6,96.7,0.532
34.8,32712.6,37084.9,0.9824,2.4658,146.6,96.7,0.532
34.82,33453.2,38916.3,1.9824,4.6361,146.6,96.7,0.532
34.84,34347.4,34169.0,3.1899,-0.9895,146.6,96.7,0.532
34.86,33134.3,39299.3,1.5518,5.09,146.6,96.7,0.532
34.88,34106.7,35035.4,2.865,0.0371,146.6,96.7,0.532
34.9,32813.5,33777.1,1.1186,-1.454,146.6,96.7,0.532
34.92,31434.4,33035.1,-0.7435,-2.3333,146.6,96.7,0.532
34.94,30154.5,33916.4,-2.4719,-1.2889,146.6,96.7,0.532
34.96,34952.2,34546.6,4.0066,-0.5421,146.6,96.7,0.532
34.98,32788.8,33493.2,1.0853,-1.7904,146.6,96.7,0.532
35.0,30884.5,34078.1,-1.4862,-1.0973,146.6,96.7,0.532
35.02,31900.1,33534.8,-0.1148,-1.7411,146.6,96.7,0.532
35.04,30868.3,32412.3,-1.5081,-3.0713,146.6,96.7,0.532
35.06,30159.7,34404.3,-2.4649,-0.7107,146.6,96.7,0.532
35.08,31756.3,31742.1,-0.309,-3.8655,146.6,96.7,0.532
35.1,35570.8,34923.4,4.8419,-0.0955,146.6,96.7,0.532
35.12,32378.8,33908.3,0.5316,-1.2985,146.6,96.7,0.532
35.14,29352.9,37869.6,-3.5543,3.3957,146.6,96.7,0.532
35.16,30983.5,33842.7,-1.3525,-1.3763,146.6,96.7,0.532
35.18,28707.4,34723.1,-4.426,-0.333,146.6,96.7,0.532
35.2,30457.2,36249.0,-2.0631,1.4752,146.6,96.7,0.532
35.22,31109.0,32100.5,-1.183,-3.4407,146.6,96.7,0.532
35.24,35305.0,33811.2,4.4829,-1.4136,146.6,96.7,0.532
35.26,35113.2,36623.0,4.2241,1.9185,146.6,96.7,0.532
35.28,30503.9,36155.2,-2.0,1.3641,146.6,96.7,0.532
35.3,31553.6,38259.2,-0.5826,3.8574,146.6,96.7,0.532
35.32,31351.0,35500.2,-0.8562,0.5879,146.6,96.7,0.532
35.34,28153.4,35082.7,-5.1741,0.0932,146.6,96.7,0.532
35.36,27366.3,32111.1,-6.2369,-3.4282,146.6,96.7,0.532
35.38,31893.4,32497.1,-0.1238,-2.9708,146.6,96.7,0.532
35.4,32099.5,37903.6,0.1545,3.4359,146.6,96.7,0.532
35.42,31498.0,34467.4,-0.6577,-0.636,146.6,96.7,0.532
35.44,33213.7,37595.8,1.6591,3.0713,146.6,96.7,0.532
35.46,35293.7,37742.3,4.4678,3.2449,146.6,96.7,0.532
35.48,31877.4,35727.0,-0.1454,0.8566,146.6,96.7,0.532
35.5,32212.7,32984.3,0.3073,-2.3935,146.6,96.7,0.532
35.52,31200.5,31016.5,-1.0595,-4.7254,146.6,96.7,0.532
35.54,31231.5,34373.5,-1.0176,-0.7472,146.6,96.7,0.532
35.56,30520.7,34280.0,-1.9774,-0.858,146.6,96.7,0.532
35.58,31473.8,34882.7,-0.6904,-0.1438,146.6,96.7,0.532
35.6,26937.2,36980.5,-6.8163,2.3421,146.6,96.7,0.532
35.62,35254.3,33887.1,4.4146,-1.3237,146.6,96.7,0.532
35.64,31144.4,36270.4,-1.1352,1.5007,146.6,96.7,0.532
35.66,30603.1,38368.0,-1.8662,3.9863,146.6,96.7,0.532
35.68,32817.8,39047.2,1.1245,4.7911,146.6,96.7,0.532
35.7,32813.8,35229.0,1.119,0.2666,146.6,96.7,0.532
35.72,31130.7,35942.2,-1.1537,1.1117,146.6,96.7,0.532
35.74,33748.7,32549.4,2.3815,-2.9088,146.6,96.7,0.532
35.76,33058.3,35518.3,1.4492,0.6094,146.6,96.7,0.532
35.78,33287.2,33198.4,1.7582,-2.1397,146.6,96.7,0.532
35.8,30005.7,34176.4,-2.6728,-0.9808,146.6,96.7,0.532
35.82,31863.1,37684.6,-0.1648,3.1765,146.6,96.7,0.532
35.84,37027.8,36037.4,6.8094,1.2245,146.6,96.7,0.532
35.86,30941.6,37238.4,-1.409,2.6477,146.6,96.7,0.532
35.88,29172.3,34476.9,-3.7981,-0.6247,146.6,96.7,0.532
35.9,27973.1,34960.1,-5.4176,-0.0521,146.6,96.7,0.532
35.92,34764.7,34909.1,3.7534,-0.1126,146.6,96.7,0.532
35.94,32816.4,34814.3,1.1225,-0.2249,146.6,96.7,0.532
35.96,34590.1,32405.3,3.5176,-3.0796,146.6,96.7,0.532
35.98,30953.0,35705.9,-1.3936,0.8317,146.6,96.7,0.532
36.0,33293.8,33655.1,1.7671,-1.5986,146.6,96.7,0.532
36.02,34179.4,35101.7,2.9631,0.1158,146.6,96.7,0.532
36.04,36062.9,40722.2,5.5065,6.7761,146.6,96.7,0.532
36.06,33097.5,32804.0,1.5021,-2.6071,146.6,96.7,0.532
36.08,31917.5,37086.6,-0.0913,2.4678,146.6,96.7,0.532
36.1,32904.7,39059.1,1.2418,4.8053,146.6,96.7,0.532
36.12,35569.4,36562.3,4.8401,1.8466,146.6,96.7,0.532
36.14,26095.7,35797.5,-7.9527,0.9402,146.6,96.7,0.532
36.16,29854.5,33357.4,-2.877,-1.9513,146.6,96.7,0.532
36.18,29469.0,32208.5,-3.3975,-3.3127,146.6,96.7,0.532
36.2,34541.1,36809.4,3.4515,2.1394,146.6,96.7,0.532
36.22,31212.4,33768.3,-1.0434,-1.4644,146.6,96.7,0.532
36.24,32084.7,31954.4,0.1345,-3.6139,146.6,96.7,0.532
36.26,35568.8,33745.9,4.8392,-1.491,146.6,96.7,0.532
36.28,30586.6,33320.7,-1.8884,-1.9948,146.6,96.7,0.532
36.3,29946.3,31362.7,-2.7531,-4.3151,146.6,96.7,0.532
36.32,29995.1,33426.2,-2.6871,-1.8698,146.6,96.7,0.532
36.34,32890.6,37538.8,1.2228,3.0037,146.6,96.7,0.532
36.36,31839.0,34807.9,-0.1973,-0.2325,146.6,96.7,0.532
36.38,33210.4,35382.4,1.6546,0.4483,146.6,96.7,0.532
36.4,31377.6,36261.3,-0.8203,1.4898,146.6,96.7,0.532
36.42,29042.1,30815.3,-3.974,-4.9637,146.6,96.7,0.532
36.44,31474.8,35463.6,-0.689,0.5446,146.6,96.7,0.532
36.46,28356.4,34447.2,-4.8999,-0.6599,146.6,96.7,0.532
36.48,26803.3,35678.3,-6.9971,0.799,146.6,96.7,0.532
36.5,31362.9,35000.9,-0.8401,-0.0038,146.6,96.7,0.532
36.52,37456.1,35731.4,7.3877,0.8619,146.6,96.7,0.532
36.54,31570.5,32849.7,-0.5598,-2.5529,146.6,96.7,0.532
36.56,30981.7,35004.9,-1.3549,0.0009,146.6,96.7,0.532
36.58,30055.7,36020.0,-2.6053,1.2039,146.6,96.7,0.532
36.6,30167.4,37220.4,-2.4544,2.6264,146.6,96.7,0.532
36.62,32822.3,36156.0,1.1305,1.3651,146.6,96.7,0.532
36.64,33345.2,36017.0,1.8367,1.2003,146.6,96.7,0.532
36.66,33979.4,32818.0,2.693,-2.5905,146.6,96.7,0.532
36.68,30714.4,33673.6,-1.7158,-1.5766,146.6,96.7,0.532
36.7,30196.3,32438.6,-2.4155,-3.0401,146.6,96.7,0.532
36.72,32404.1,33382.8,0.5658,-1.9212,146.6,96.7,0.532
36.74,32706.5,31756.1,0.9741,-3.8489,146.6,96.7,0.532
36.76,31848.0,33374.5,-0.1851,-1.9311,146.6,96.7,0.532
36.78,29425.2,33770.6,-3.4566,-1.4617,146.6,96.7,0.532
36.8,32174.0,34137.8,0.2551,-1.0266,146.6,96.7,0.532
36.82,30768.4,32770.5,-1.6429,-2.6468,146.6,96.7,0.532
36.84,35874.4,35780.0,5.2519,0.9195,146.6,96.7,0.532
36.86,34278.7,38371.9,3.0972,3.9909,146.6,96.7,0.532
36.88,32898.5,33276.5,1.2334,-2.0472,146.6,96.7,0.532
36.9,31955.0,38894.2,-0.0406,4.6098,146.6,96.7,0.532
36.92,33007.5,39372.9,1.3806,5.1772,146.6,96.7,0.532
36.94,33113.6,34609.7,1.5239,-0.4673,146.6,96.7,0.532
36.96,31012.1,34018.4,-1.3138,-1.168,146.6,96.7,0.532
36.98,32928.4,34034.0,1.2739,-1.1495,146.6,96.7,0.532
37.0,28554.0,39220.4,-4.6331,4.9964,146.6,96.7,0.532
37.02,29483.8,32898.6,-3.3775,-2.495,146.6,96.7,0.532
37.04,33352.9,28791.2,1.8471,-7.3623,146.6,96.7,0.532
37.06,33785.6,32503.2,2.4312,-2.9635,146.6,96.7,0.532
37.08,33053.3,37867.7,1.4424,3.3935,146.6,96.7,0.532
37.1,30111.0,38096.8,-2.5306,3.6649,146.6,96.7,0.532
37.12,32594.5,35843.7,0.823,0.995,146.6,96.7,0.532
37.14,34854.2,33925.3,3.8742,-1.2784,146.6,96.7,0.532
37.16,30242.1,36679.8,-2.3535,1.9857,146.6,96.7,0.532
37.18,31125.0,34076.5,-1.1614,-1.0991,146.6,96.7,0.532
37.2,31962.8,31146.8,-0.0301,-4.5709,146.6,96.7,0.532
37.22,34081.2,32612.5,2.8304,-2.8341,146.6,96.7,0.532
37.24,32575.0,33657.2,0.7966,-1.596,146.6,96.7,0.532
37.26,33326.2,34753.9,1.8109,-0.2964,146.6,96.7,0.532
37.28,31672.5,34734.1,-0.422,-0.3199,146.6,96.7,0.532
37.3,31248.8,37514.3,-0.9942,2.9746,146.6,96.7,0.532
37.32,31822.9,36266.0,-0.219,1.4954,146.6,96.7,0.532
37.34,34160.2,33385.6,2.9371,-1.9179,146.6,96.7,0.532
37.36,31192.9,37179.3,-1.0697,2.5777,146.6,96.7,0.532
37.38,30096.1,36792.5,-2.5508,2.1193,146.6,96.7,0.532
37.4,36315.9,35660.2,5.848,0.7776,146.6,96.7,0.532
37.42,33109.8,35666.5,1.5188,0.785,146.6,96.7,0.532
37.44,30653.9,36562.3,-1.7975,1.8466,146.6,96.7,0.532
37.46,34168.6,34375.4,2.9485,-0.745,146.6,96.7,0.532
37.48,33747.6,38072.2,2.38,3.6358,146.6,96.7,0.532
37.5,31848.0,33581.1,-0.1851,-1.6863,146.6,96.7,0.532
37.52,36170.2,31701.8,5.6513,-3.9133,146.6,96.7,0.532
37.54,31777.6,33078.8,-0.2801,-2.2814,146.6,96.7,0.532
37.56,33967.6,36652.3,2.677,1.9532,146.6,96.7,0.532
37.58,32188.3,32493.0,0.2745,-2.9756,146.6,96.7,0.532
37.6,31309.5,35589.6,-0.9122,0.6939,146.6,96.7,0.532
37.62,29631.7,37106.5,-3.1779,2.4915,146.6,96.7,0.532
37.64,32231.2,34751.5,0.3323,-0.2993,146.6,96.7,0.532
37.66,30408.6,33678.3,-2.1288,-1.5711,146.6,96.7,0.532
37.68,29865.6,37949.6,-2.862,3.4905,146.6,96.7,0.532
37.7,32997.8,33934.0,1.3675,-1.2681,146.6,96.7,0.532
37.72,30846.3,33778.7,-1.5377,-1.4521,146.6,96.7,0.532
37.74,32398.0,38204.8,0.5576,3.7929,146.6,96.7,0.532
37.76,36158.6,35367.2,5.6357,0.4304,146.6,96.7,0.532
37.78,31132.8,33675.1,-1.1508,-1.5748,146.6,96.7,0.532
37.8,32110.1,39166.8,0.1688,4.9329,146.6,96.7,0.532
37.82,34732.6,32957.6,3.7101,-2.4251,146.6,96.7,0.532
37.84,29226.9,32695.2,-3.7245,-2.7361,146.6,96.7,0.532
37.86,30693.4,37496.5,-1.7442,2.9536,146.6,96.7,0.532
37.88,32647.6,33966.1,0.8946,-1.23,146.6,96.7,0.532
37.9,34983.8,35634.4,4.0493,0.747,146.6,96.7,0.532
37.92,31782.5,33738.1,-0.2736,-1.5001,146.6,96.7,0.532
37.94,32799.4,36779.6,1.0997,2.1041,146.6,96.7,0.532
37.96,30173.8,35872.1,-2.4459,1.0287,146.6,96.7,0.532
37.98,30704.0,33054.7,-1.7299,-2.31,146.6,96.7,0.532
38.0,30143.8,33770.4,-2.4864,-1.4619,146.6,96.7,0.532
38.02,31813.4,33439.9,-0.2319,-1.8535,146.6,96.7,0.532
38.04,29136.0,35226.5,-3.8472,0.2636,146.6,96.7,0.532
38.06,30932.3,33369.3,-1.4216,-1.9373,146.6,96.7,0.532
38.08,30519.4,34676.2,-1.9791,-0.3886,146.6,96.7,0.532
38.1,31861.2,36542.6,-0.1672,1.8232,146.6,96.7,0.532
38.12,35942.8,37417.2,5.3442,2.8596,146.6,96.7,0.532
38.14,30126.6,35809.4,-2.5096,0.9544,146.6,96.7,0.532
38.16,29265.3,31937.4,-3.6726,-3.6341,146.6,96.7,0.532
38.18,29161.0,34512.8,-3.8135,-0.5821,146.6,96.7,0.532
38.2,31690.2,35890.7,-0.3982,1.0506,146.6,96.7,0.532
38.22,32816.8,34866.3,1.1231,-0.1633,146.6,96.7,0.532
38.24,31838.8,32714.7,-0.1975,-2.713,146.6,96.7,0.532
38.26,34818.1,36333.0,3.8255,1.5748,146.6,96.7,0.532
38.28,29906.4,33508.0,-2.807,-1.7728,146.6,96.7,0.532
38.3,30044.7,28711.9,-2.6201,-7.4564,146.6,96.7,0.532
38.32,31186.3,32225.5,-1.0786,-3.2926,146.6,96.7,0.532
38.34,31215.7,33976.2,-1.0389,-1.2181,146.6,96.7,0.532
38.36,34160.2,31330.2,2.9371,-4.3536,146.6,96.7,0.532
38.38,31216.1,33897.2,-1.0383,-1.3117,146.6,96.7,0.532
38.4,32226.1,35193.3,0.3255,0.2242,146.6,96.7,0.532
38.42,34508.6,36189.7,3.4075,1.405,146.6,96.7,0.532
38.44,32495.6,34616.9,0.6893,-0.4588,146.6,96.7,0.532
38.46,30758.6,35982.0,-1.6562,1.1588,146.6,96.7,0.532
38.48,34443.1,35491.3,3.3191,0.5773,146.6,96.7,0.532
38.5,33107.9,36153.6,1.5162,1.3622,146.6,96.7,0.532
38.52,30648.0,38889.8,-1.8055,4.6047,146.6,96.7,0.532
38.54,30118.5,35865.6,-2.5205,1.0209,146.6,96.7,0.532
38.56,35613.7,37014.2,4.8999,2.3821,146.6,96.7,0.532
38.58,33063.3,37373.3,1.456,2.8076,146.6,96.7,0.532
38.6,33135.6,33591.2,1.5536,-1.6743,146.6,96.7,0.532
38.62,30089.2,35520.0,-2.5601,0.6114,146.6,96.7,0.532
38.64,28326.2,34721.3,-4.9407,-0.3351,146.6,96.7,0.532
38.66,29189.5,35142.3,-3.7749,0.1638,146.6,96.7,0.532
38.68,32189.6,35449.3,0.2761,0.5276,146.6,96.7,0.532
38.7,32082.5,32313.1,0.1316,-3.1888,146.6,96.7,0.532
38.72,32517.2,36809.3,0.7186,2.1392,146.6,96.7,0.532
38.74,32472.1,32423.8,0.6577,-3.0576,146.6,96.7,0.532
38.76,33727.1,36490.5,2.3523,1.7615,146.6,96.7,0.532
38.78,34447.2,39460.7,3.3247,5.2812,146.6,96.7,0.532
38.8,33795.1,30514.8,2.4441,-5.3199,146.6,96.7,0.532
38.82,30257.4,32285.3,-2.333,-3.2218,146.6,96.7,0.532
38.84,31834.2,31287.7,-0.2038,-4.4039,146.6,96.7,0.532
38.86,30701.5,35970.6,-1.7333,1.1453,146.6,96.7,0.532
38.88,29265.1,36590.0,-3.6729,1.8793,146.6,96.7,0.532
38.9,32625.5,34898.7,0.8648,-0.1248,146.6,96.7,0.532
38.92,31494.5,36436.6,-0.6625,1.6976,146.6,96.7,0.532
38.94,34756.7,34437.5,3.7426,-0.6714,146.6,96.7,0.532
38.96,35767.4,40490.8,5.1074,6.5019,146.6,96.7,0.532
38.98,30479.4,35967.2,-2.0332,1.1413,146.6,96.7,0.532
39.0,34561.4,33370.0,3.4789,-1.9364,146.6,96.7,0.532
39.02,31835.8,35403.9,-0.2016,0.4739,146.6,96.7,0.532
39.04,32764.6,37724.9,1.0526,3.2243,146.6,96.7,0.532
39.06,31267.3,33544.3,-0.9693,-1.7299,146.6,96.7,0.532
39.08,32794.7,33906.0,1.0933,-1.3013,146.6,96.7,0.532
39.1,30267.3,34607.4,-2.3196,-0.47,146.6,96.7,0.532
39.12,33637.2,34858.2,2.2309,-0.1729,146.6,96.7,0.532
39.14,34513.7,30282.4,3.4145,-5.5953,146.6,96.7,0.532
39.16,33119.7,31511.4,1.5321,-4.1389,146.6,96.7,0.532
39.18,29354.2,38237.8,-3.5526,3.832,146.6,96.7,0.532
39.2,30747.9,33263.9,-1.6706,-2.0621,146.6,96.7,0.532
39.22,29334.8,36632.0,-3.5787,1.9291,146.6,96.7,0.532
39.24,32574.0,31676.7,0.7953,-3.943,146.6,96.7,0.532
39.26,26835.1,32597.1,-6.9542,-2.8523,146.6,96.7,0.532
39.28,30747.9,31656.6,-1.6707,-3.9668,146.6,96.7,0.532
39.3,32477.6,33046.2,0.665,-2.3202,146.6,96.7,0.532
39.32,33696.2,37776.8,2.3106,3.2857,146.6,96.7,0.532
39.34,32981.9,38803.5,1.3461,4.5024,146.6,96.7,0.532
39.36,35010.5,37255.3,4.0853,2.6678,146.6,96.7,0.532
39.38,34245.7,38751.3,3.0525,4.4406,146.6,96.7,0.532
39.4,31056.6,33826.7,-1.2538,-1.3953,146.6,96.7,0.532
39.42,34290.1,33886.4,3.1126,-1.3244,146.6,96.7,0.532
39.44,35537.4,33018.6,4.7967,-2.3529,146.6,96.7,0.532
39.46,33214.8,35206.2,1.6606,0.2396,146.6,96.7,0.532
39.48,33289.2,36632.2,1.761,1.9293,146.6,96.7,0.532
39.5,31853.8,35678.6,-0.1773,0.7994,146.6,96.7,0.532
39.52,28748.3,34015.7,-4.3707,-1.1712,146.6,96.7,0.532
39.54,30172.2,38308.0,-2.448,3.9153,146.6,96.7,0.532
39.56,33114.9,39602.8,1.5256,5.4496,146.6,96.7,0.532
39.58,30036.2,39351.8,-2.6317,5.1522,146.6,96.7,0.532
39.6,35872.9,33445.0,5.2498,-1.8475,146.6,96.7,0.532
39.62,31722.3,33933.4,-0.3548,-1.2687,146.6,96.7,0.532
39.64,31771.4,35265.2,-0.2885,0.3095,146.6,96.7,0.532
39.66,30067.7,33418.9,-2.5891,-1.8785,146.6,96.7,0.532
39.68,31271.0,32720.5,-0.9643,-2.7061,146.6,96.7,0.532
39.7,33349.8,37048.7,1.8429,2.4229,146.6,96.7,0.532
39.72,34301.7,34908.4,3.1281,-0.1133,146.6,96.7,0.532
39.74,30854.7,34132.1,-1.5263,-1.0333,146.6,96.7,0.532
39.76,31815.4,35718.4,-0.2292,0.8465,146.6,96.7,0.532
39.78,32163.1,34570.1,0.2404,-0.5142,146.6,96.7,0.532
39.8,31465.7,37236.1,-0.7014,2.645,146.6,96.7,0.532
39.82,30944.0,36018.4,-1.4059,1.202,146.6,96.7,0.532
39.84,32149.2,31055.3,0.2217,-4.6794,146.6,96.7,0.532
39.86,32898.2,36844.6,1.2331,2.1811,146.6,96.7,0.532
39.88,31419.4,36882.0,-0.7639,2.2253,146.6,96.7,0.532
39.9,30293.1,37422.7,-2.2847,2.8662,146.6,96.7,0.532
39.92,30808.2,35129.2,-1.5892,0.1483,146.6,96.7,0.532
39.94,28791.9,37629.4,-4.3118,3.111,146.6,96.7,0.532
39.96,31018.8,33766.3,-1.3047,-1.4667,146.6,96.7,0.532
39.98,35353.9,36232.0,4.549,1.4551,146.6,96.7,0.532
40.0,32444.6,36812.0,0.6204,2.1425,146.6,96.7,0.532
40.02,30972.5,31017.6,-1.3673,-4.724,146.6,96.7,0.532
40.04,34968.5,30204.5,4.0286,-5.6875,146.6,96.7,0.532
40.06,28858.9,33436.1,-4.2214,-1.8581,146.6,96.7,0.532
40.08,30385.4,32645.4,-2.1601,-2.7951,146.6,96.7,0.532
40.1,34708.5,31339.0,3.6776,-4.3431,146.6,96.7,0.532
40.12,32004.3,34186.9,0.026,-0.9684,146.6,96.7,0.532
40.14,31191.3,34125.7,-1.0718,-1.0409,146.6,96.7,0.532
40.16,30072.0,34524.9,-2.5833,-0.5679,146.6,96.7,0.532
40.18,26986.8,36354.2,-6.7493,1.5999,146.6,96.7,0.532
40.2,32595.0,40113.0,0.8235,6.0542,146.6,96.7,0.532
40.22,32882.0,36376.8,1.2111,1.6267,146.6,96.7,0.532
40.24,30611.2,34017.1,-1.8552,-1.1695,146.6,96.7,0.532
40.26,29277.1,35446.6,-3.6567,0.5244,146.6,96.7,0.532
40.28,32025.4,35360.2,0.0545,0.4221,146.6,96.7,0.532
40.3,32727.1,36022.8,1.002,1.2073,146.6,96.7,0.532
40.32,31335.1,31908.4,-0.8776,-3.6685,146.6,96.7,0.532
40.34,29162.6,35533.4,-3.8113,0.6273,146.6,96.7,0.532
40.36,30305.8,32026.0,-2.2676,-3.529,146.6,96.7,0.532
40.38,34011.8,32008.1,2.7367,-3.5503,146.6,96.7,0.532
40.4,31802.0,34501.1,-0.2473,-0.596,146.6,96.7,0.532
40.42,31773.2,33933.8,-0.2861,-1.2683,146.6,96.7,0.532
40.44,26458.6,35785.9,-7.4626,0.9265,146.6,96.7,0.532
40.46,28416.8,35015.6,-4.8183,0.0136,146.6,96.7,0.532
40.48,33676.7,35434.1,2.2843,0.5096,146.6,96.7,0.532
40.5,30217.6,32850.8,-2.3867,-2.5517,146.6,96.7,0.532
40.52,30093.4,33030.9,-2.5545,-2.3382,146.6,96.7,0.532
40.54,30241.7,33259.3,-2.3541,-2.0676,146.6,96.7,0.532
40.56,34374.9,37159.8,3.227,2.5546,146.6,96.7,0.532
40.58,32411.7,34992.6,0.576,-0.0136,146.6,96.7,0.532
40.6,35629.0,35497.5,4.9205,0.5847,146.6,96.7,0.532
40.62,34844.4,39075.9,3.861,4.8253,146.6,96.7,0.532
40.64,33102.7,35144.6,1.5091,0.1666,146.6,96.7,0.532
40.66,33261.8,35375.5,1.7239,0.4401,146.6,96.7,0.532
40.68,32386.5,36818.2,0.5421,2.1498,146.6,96.7,0.532
40.7,30228.2,39375.6,-2.3724,5.1803,146.6,96.7,0.532
40.72,30231.2,33853.4,-2.3683,-1.3636,146.6,96.7,0.532
40.74,29196.6,35311.3,-3.7654,0.3641,146.6,96.7,0.532
40.76,33749.5,35841.1,2.3826,0.9919,146.6,96.7,0.532
40.78,33532.9,32206.0,2.0901,-3.3158,146.6,96.7,0.532
40.8,31890.5,33674.1,-0.1277,-1.5761,146.6,96.7,0.532
40.82,29693.8,36117.0,-3.094,1.3189,146.6,96.7,0.532
40.84,31909.9,37534.4,-0.1015,2.9984,146.6,96.7,0.532
40.86,28900.1,36142.3,-4.1657,1.3488,146.6,96.7,0.532
40.88,32648.3,34584.4,0.8956,-0.4973,146.6,96.7,0.532
40.9,34379.6,34798.6,3.2334,-0.2434,146.6,96.7,0.532
40.92,28440.9,33812.3,-4.7858,-1.4122,146.6,96.7,0.532
40.94,29825.5,32935.5,-2.9162,-2.4513,146.6,96.7,0.532
40.96,32719.7,38109.7,0.992,3.6802,146.6,96.7,0.532
40.98,30625.3,37633.9,-1.8361,3.1164,146.6,96.7,0.532
41.0,32294.2,33866.9,0.4174,-1.3476,146.6,96.7,0.532
41.02,31112.2,38221.2,-1.1787,3.8123,146.6,96.7,0.532
41.04,34319.3,39213.3,3.152,4.988,146.6,96.7,0.532
41.06,29917.5,34952.4,-2.7919,-0.0612,146.6,96.7,0.532
41.08,34574.1,35831.4,3.496,0.9804,146.6,96.7,0.532
41.1,35072.0,34989.2,4.1684,-0.0176,146.6,96.7,0.532
41.12,34240.1,33984.7,3.0451,-1.208,146.6,96.7,0.532
41.14,30208.4,34085.6,-2.399,-1.0884,146.6,96.7,0.532
41.16,33058.8,36321.8,1.4499,1.5616,146.6,96.7,0.532
41.18,33547.8,35308.3,2.1102,0.3605,146.6,96.7,0.532
41.2,32457.4,27303.0,0.6378,-9.1259,146.6,96.7,0.532
41.22,31656.2,35253.9,-0.4441,0.2961,146.6,96.7,0.532
41.24,31253.0,32438.8,-0.9886,-3.0399,146.6,96.7,0.532
41.26,31311.0,31390.8,-0.9103,-4.2818,146.6,96.7,0.532
41.28,32271.0,33565.9,0.3861,-1.7043,146.6,96.7,0.532
41.3,29076.9,35570.8,-3.927,0.6716,146.6,96.7,0.532
41.32,30073.0,36992.5,-2.5819,2.3564,146.6,96.7,0.532
41.34,30860.4,35763.1,-1.5187,0.8995,146.6,96.7,0.532
41.36,32341.4,33792.6,0.4811,-1.4356,146.6,96.7,0.532
41.38,30164.5,35011.4,-2.4584,0.0086,146.6,96.7,0.532
41.4,34892.9,37698.8,3.9266,3.1933,146.6,96.7,0.532
41.42,28712.0,37507.6,-4.4197,2.9667,146.6,96.7,0.532
41.44,30807.8,38652.8,-1.5897,4.3238,146.6,96.7,0.532
41.46,30514.9,35235.4,-1.9852,0.2742,146.6,96.7,0.532
41.48,29764.7,34682.7,-2.9983,-0.3809,146.6,96.7,0.532
41.5,32796.2,37478.0,1.0953,2.9317,146.6,96.7,0.532
41.52,33744.4,37259.0,2.3757,2.6721,146.6,96.7,0.532
41.54,32862.6,38417.8,1.185,4.0453,146.6,96.7,0.532
41.56,32388.9,30738.6,0.5453,-5.0546,146.6,96.7,0.532
41.58,31392.8,36713.8,-0.7998,2.0261,146.6,96.7,0.532
41.6,31491.3,33890.0,-0.6667,-1.3202,146.6,96.7,0.532
41.62,32106.2,36355.7,0.1635,1.6017,146.6,96.7,0.532
41.64,33162.9,36828.9,1.5904,2.1625,146.6,96.7,0.532
41.66,32482.5,35833.3,0.6717,0.9827,146.6,96.7,0.532
41.68,30482.8,35428.9,-2.0286,0.5034,146.6,96.7,0.532
41.7,30391.0,34543.7,-2.1526,-0.5455,146.6,96.7,0.532
41.72,31921.9,38003.1,-0.0854,3.5539,146.6,96.7,0.532
41.74,33978.9,30699.8,2.6923,-5.1006,146.6,96.7,0.532
41.76,31050.6,36117.3,-1.2618,1.3192,146.6,96.7,0.532
41.78,29307.0,32322.9,-3.6163,-3.1773,146.6,96.7,0.532
41.8,35477.8,37618.7,4.7163,3.0984,146.6,96.7,0.532
41.82,30372.8,35362.5,-2.1771,0.4247,146.6,96.7,0.532
41.84,33685.4,34672.3,2.2959,-0.3931,146.6,96.7,0.532
41.86,32855.5,33748.2,1.1753,-1.4882,146.6,96.7,0.532
41.88,32678.2,33734.4,0.9359,-1.5045,146.6,96.7,0.532
41.9,32485.7,35116.0,0.6761,0.1327,146.6,96.7,0.532
41.92,29855.3,35659.6,-2.8759,0.7768,146.6,96.7,0.532
41.94,34956.6,34815.9,4.0126,-0.223,146.6,96.7,0.532
41.96,33087.4,36527.6,1.4884,1.8054,146.6,96.7,0.532
41.98,33886.4,30642.3,2.5675,-5.1687,146.6,96.7,0.532
42.0,35214.0,34337.1,4.3601,-0.7904,146.6,96.7,0.532
42.02,34250.6,33688.1,3.0592,-1.5595,146.6,96.7,0.532
42.04,30549.5,35303.4,-1.9385,0.3547,146.6,96.7,0.532
42.06,30492.4,32781.2,-2.0156,-2.6342,146.6,96.7,0.532
42.08,28556.2,33817.6,-4.6302,-1.406,146.6,96.7,0.532
42.1,31709.4,36284.2,-0.3723,1.517,146.6,96.7,0.532
42.12,34017.0,33402.1,2.7437,-1.8983,146.6,96.7,0.532
42.14,36238.6,30931.4,5.7436,-4.8262,146.6,96.7,0.532
42.16,33663.1,32769.2,2.2658,-2.6483,146.6,96.7,0.532
42.18,30555.3,34318.5,-1.9307,-0.8124,146.6,96.7,0.532
42.2,29525.4,37207.5,-3.3214,2.6112,146.6,96.7,0.532
42.22,34423.4,36805.5,3.2925,2.1348,146.6,96.7,0.532
42.24,33673.7,36407.1,2.2802,1.6626,146.6,96.7,0.532
42.26,30930.3,34495.5,-1.4243,-0.6026,146.6,96.7,0.532
42.28,31432.4,37509.2,-0.7462,2.9686,146.6,96.7,0.532
42.3,34170.7,32838.3,2.9514,-2.5665,146.6,96.7,0.532
42.32,32733.7,36371.8,1.0109,1.6208,146.6,96.7,0.532
42.34,34031.1,32370.8,2.7628,-3.1204,146.6,96.7,0.532
42.36,33871.9,33218.9,2.5478,-2.1155,146.6,96.7,0.532
42.38,32665.8,34481.2,0.9192,-0.6196,146.6,96.7,0.532
42.4,30275.8,31137.8,-2.3081,-4.5816,146.6,96.7,0.532
42.42,30261.2,33405.7,-2.3278,-1.8941,146.6,96.7,0.532
42.44,30408.5,31123.3,-2.1289,-4.5988,146.6,96.7,0.532
42.46,33046.9,36198.3,1.4338,1.4152,146.6,96.7,0.532
42.48,31455.9,30980.1,-0.7146,-4.7685,146.6,96.7,0.532
42.5,29465.2,32273.9,-3.4027,-3.2353,146.6,96.7,0.532
42.52,31845.4,36965.6,-0.1886,2.3244,146.6,96.7,0.532
42.54,31275.4,34418.6,-0.9583,-0.6938,146.6,96.7,0.532
42.56,32183.9,34390.0,0.2684,-0.7276,146.6,96.7,0.532
42.58,32611.5,39580.4,0.8459,5.423,146.6,96.7,0.532
42.6,29683.2,35750.8,-3.1083,0.8849,146.6,96.7,0.532
42.62,32561.4,33829.6,0.7782,-1.3918,146.6,96.7,0.532
42.64,31039.2,35728.5,-1.2773,0.8585,146.6,96.7,0.532
42.66,29350.8,34606.2,-3.5571,-0.4714,146.6,96.7,0.532
42.68,33200.6,35900.1,1.6414,1.0619,146.6,96.7,0.532
42.7,32285.6,37241.9,0.4058,2.6518,146.6,96.7,0.532
42.72,31938.8,32095.4,-0.0625,-3.4468,146.6,96.7,0.532
42.74,28588.1,35513.4,-4.5871,0.6035,146.6,96.7,0.532
42.76,33531.1,34670.1,2.0876,-0.3958,146.6,96.7,0.532
42.78,35192.4,37000.5,4.331,2.3658,146.6,96.7,0.532
42.8,33716.3,34114.7,2.3378,-1.054,146.6,96.7,0.532
42.82,31073.9,36635.6,-1.2304,1.9334,146.6,96.7,0.532
42.84,31187.5,28898.3,-1.077,-7.2355,146.6,96.7,0.532
42.86,26781.9,34642.1,-7.026,-0.4289,146.6,96.7,0.532
42.88,34451.3,31196.8,3.3302,-4.5116,146.6,96.7,0.532
42.9,33749.2,34160.4,2.3821,-0.9997,146.6,96.7,0.532
42.92,30435.2,35097.6,-2.0928,0.1108,146.6,96.7,0.532
42.94,31900.8,35984.3,-0.1138,1.1615,146.6,96.7,0.532
42.96,31085.2,34637.4,-1.2151,-0.4345,146.6,96.7,0.532
42.98,32275.6,35121.5,0.3922,0.1391,146.6,96.7,0.532
43.0,35053.3,39462.4,4.1431,5.2832,146.6,96.7,0.532
43.02,31947.5,37833.0,-0.0508,3.3523,146.6,96.7,0.532
43.04,31439.0,36169.5,-0.7374,1.3811,146.6,96.7,0.532
43.06,32405.5,33402.5,0.5677,-1.8978,146.6,96.7,0.532
43.08,28514.1,35676.2,-4.687,0.7965,146.6,96.7,0.532
43.1,30953.0,33237.3,-1.3937,-2.0936,146.6,96.7,0.532
43.12,37216.2,32043.3,7.0638,-3.5085,146.6,96.7,0.532
43.14,33512.3,34505.1,2.0622,-0.5913,146.6,96.7,0.532
43.16,31384.3,36710.9,-0.8113,2.0227,146.6,96.7,0.532
43.18,33938.4,33463.9,2.6376,-1.8252,146.6,96.7,0.532
43.2,28200.1,35069.9,-5.111,0.078,146.6,96.7,0.532
43.22,32968.5,34934.5,1.328,-0.0824,146.6,96.7,0.532
43.24,29348.8,32753.7,-3.5598,-2.6668,146.6,96.7,0.532
43.26,31818.8,35692.2,-0.2245,0.8155,146.6,96.7,0.532
43.28,31522.0,33018.9,-0.6253,-2.3524,146.6,96.7,0.532
43.3,31065.1,36307.5,-1.2423,1.5446,146.6,96.7,0.532
43.32,31606.4,31694.2,-0.5113,-3.9223,146.6,96.7,0.532
43.34,31578.9,32954.8,-0.5485,-2.4284,146.6,96.7,0.532
43.36,29675.1,31105.7,-3.1192,-4.6197,146.6,96.7,0.532
43.38,30383.5,37136.6,-2.1627,2.5271,146.6,96.7,0.532
43.4,30765.3,32821.3,-1.6472,-2.5866,146.6,96.7,0.532
43.42,31624.7,34935.7,-0.4867,-0.081,146.6,96.7,0.532
43.44,31607.8,36897.0,-0.5095,2.2432,146.6,96.7,0.532
43.46,31451.1,34942.1,-0.721,-0.0735,146.6,96.7,0.532
43.48,31011.9,34420.9,-1.3141,-0.6911,146.6,96.7,0.532
43.5,33896.0,34883.7,2.5804,-0.1426,146.6,96.7,0.532
43.52,27372.7,34953.4,-6.2282,-0.0601,146.6,96.7,0.532
43.54,38684.3,32561.3,9.0462,-2.8947,146.6,96.7,0.532
43.56,33418.2,34158.8,1.9351,-1.0017,146.6,96.7,0.532
43.58,30990.9,38053.9,-1.3425,3.6141,146.6,96.7,0.532
43.6,31119.4,33954.7,-1.1689,-1.2435,146.6,96.7,0.532
43.62,30764.5,34807.4,-1.6482,-0.233,146.6,96.7,0.532
43.64,33007.2,32846.5,1.3802,-2.5568,146.6,96.7,0.532
43.66,32426.2,33432.9,0.5956,-1.8618,146.6,96.7,0.532
43.68,33320.5,38504.6,1.8033,4.1482,146.6,96.7,0.532
43.7,33059.2,31191.4,1.4504,-4.5181,146.6,96.7,0.532
43.72,31469.0,36052.6,-0.6969,1.2425,146.6,96.7,0.532
43.74,30987.4,32687.4,-1.3472,-2.7453,146.6,96.7,0.532
43.76,28715.4,36006.1,-4.4151,1.1874,146.6,96.7,0.532
43.78,30826.5,34947.0,-1.5645,-0.0676,146.6,96.7,0.532
43.8,30950.4,34510.1,-1.3971,-0.5854,146.6,96.7,0.532
43.82,32475.5,35961.3,0.6622,1.1344,146.6,96.7,0.532
43.84,31565.7,34041.8,-0.5663,-1.1403,146.6,96.7,0.532
43.86,31616.0,37788.1,-0.4984,3.2992,146.6,96.7,0.532
43.88,31891.9,33542.8,-0.1258,-1.7316,146.6,96.7,0.532
43.9,34682.2,36205.1,3.642,1.4233,146.6,96.7,0.532
43.92,30743.4,33494.5,-1.6766,-1.7889,146.6,96.7,0.532
43.94,34795.7,36077.7,3.7953,1.2723,146.6,96.7,0.532
43.96,28659.0,37847.3,-4.4914,3.3693,146.6,96.7,0.532
43.98,31127.2,32866.9,-1.1584,-2.5326,146.6,96.7,0.532
44.0,30651.6,36144.4,-1.8006,1.3514,146.6,96.7,0.532
44.02,30171.0,34143.8,-2.4497,-1.0195,146.6,96.7,0.532
44.04,30962.3,37605.3,-1.3811,3.0825,146.6,96.7,0.532
44.06,31747.0,36158.9,-0.3215,1.3686,146.6,96.7,0.532
44.08,30216.2,32833.3,-2.3886,-2.5724,146.6,96.7,0.532
44.1,30409.4,35573.3,-2.1277,0.6746,146.6,96.7,0.532
44.12,34622.1,34600.4,3.5608,-0.4783,146.6,96.7,0.532
44.14,31194.8,30091.5,-1.0672,-5.8215,146.6,96.7,0.532
44.16,32886.2,32702.5,1.2168,-2.7274,146.6,96.7,0.532
44.18,35183.2,32928.3,4.3185,-2.4598,146.6,96.7,0.532
44.2,29572.7,37239.2,-3.2575,2.6487,146.6,96.7,0.532
44.22,33518.3,36393.4,2.0704,1.6464,146.6,96.7,0.532
44.24,31585.0,34379.7,-0.5402,-0.7399,146.6,96.7,0.532
44.26,33889.2,36261.9,2.5711,1.4905,146.6,96.7,0.532
44.28,36592.1,35980.3,6.221,1.1569,146.6,96.7,0.532
44.3,33929.7,39036.7,2.6258,4.7788,146.6,96.7,0.532
44.32,32308.5,37002.9,0.4368,2.3687,146.6,96.7,0.532
44.34,31909.0,33672.0,-0.1027,-1.5785,146.6,96.7,0.532
44.36,29780.2,36724.8,-2.9774,2.0391,146.6,96.7,0.532
44.38,31957.1,34016.2,-0.0378,-1.1706,146.6,96.7,0.532
44.4,30827.0,37550.7,-1.5638,3.0178,146.6,96.7,0.532
44.42,32914.8,34402.2,1.2554,-0.7132,146.6,96.7,0.532
44.44,30262.3,36137.4,-2.3264,1.343,146.6,96.7,0.532
44.46,32157.5,39138.9,0.2329,4.8998,146.6,96.7,0.532
44.48,29833.6,34615.8,-2.9052,-0.4601,146.6,96.7,0.532
44.5,30180.8,35587.9,-2.4363,0.6918,146.6,96.7,0.532
44.52,31021.5,34790.3,-1.3011,-0.2533,146.6,96.7,0.532
44.54,31392.5,37772.3,-0.8002,3.2804,146.6,96.7,0.532
44.56,32640.4,35038.9,0.8849,0.0413,146.6,96.7,0.532
44.58,31225.8,33258.9,-1.0253,-2.0681,146.6,96.7,0.532
44.6,31190.6,35396.1,-1.0728,0.4646,146.6,96.7,0.532
44.62,31376.9,39926.0,-0.8213,5.8326,146.6,96.7,0.532
44.64,32518.0,35768.5,0.7196,0.9058,146.6,96.7,0.532
44.66,31398.4,36473.0,-0.7923,1.7408,146.6,96.7,0.532
44.68,32811.1,38180.8,1.1154,3.7645,146.6,96.7,0.532
44.7,35366.5,37231.5,4.566,2.6395,146.6,96.7,0.532
44.72,33731.1,34269.0,2.3576,-0.871,146.6,96.7,0.532
44.74,31132.5,35394.4,-1.1513,0.4626,146.6,96.7,0.532
44.76,35346.4,31961.5,4.5389,-3.6055,146.6,96.7,0.532
44.78,30405.8,33450.3,-2.1325,-1.8412,146.6,96.7,0.532
44.8,35144.2,32191.1,4.2658,-3.3334,146.6,96.7,0.532
44.82,30661.7,34812.8,-1.787,-0.2266,146.6,96.7,0.532
44.84,34704.7,34757.9,3.6723,-0.2917,146.6,96.7,0.532
44.86,28967.1,30486.5,-4.0752,-5.3534,146.6,96.7,0.532
