timestamp,raw_red,raw_ir,filtered_red,filtered_ir,heart_rate,spo2,ac_dc_ratio
0.0,32119.7,35285.9,0.4561,0.7067,149.0,96.8,0.526
0.02,32329.3,35552.9,1.2521,1.3647,149.0,96.8,0.526
0.04,32405.7,35739.1,1.5423,1.8234,149.0,96.8,0.526
0.06,32400.8,35746.0,1.5238,1.8404,149.0,96.8,0.526
0.08,32320.2,35578.4,1.2178,1.4276,149.0,96.8,0.526
0.1,32087.7,35406.6,0.3346,1.0042,149.0,96.8,0.526
0.12,32105.3,35263.1,0.4013,0.6506,149.0,96.8,0.526
0.14,32055.4,35141.9,0.2119,0.3519,149.0,96.8,0.526
0.16,31961.5,35060.5,-0.1448,0.1514,149.0,96.8,0.526
0.18,31956.4,34921.7,-0.1641,-0.1907,149.0,96.8,0.526
0.2,31924.6,34797.6,-0.2852,-0.4964,149.0,96.8,0.526
0.22,31895.8,34818.0,-0.3944,-0.4462,149.0,96.8,0.526
0.24,31907.4,34690.5,-0.3501,-0.7603,149.0,96.8,0.526
0.26,31863.8,34648.8,-0.5161,-0.863,149.0,96.8,0.526
0.28,31804.6,34641.2,-0.7407,-0.8818,149.0,96.8,0.526
0.3,31849.9,34713.6,-0.5688,-0.7035,149.0,96.8,0.526
0.32,31776.8,34487.7,-0.8466,-1.26,149.0,96.8,0.526
0.34,31674.0,34419.4,-1.2367,-1.4284,149.0,96.8,0.526
0.36,31792.1,34554.5,-0.7884,-1.0954,149.0,96.8,0.526
0.38,31862.4,34690.9,-0.5212,-0.7594,149.0,96.8,0.526
0.4,32081.0,35095.9,0.3091,0.2385,149.0,96.8,0.526
0.42,32291.0,35474.6,1.1069,1.1718,149.0,96.8,0.526
0.44,32442.0,35659.3,1.6802,1.627,149.0,96.8,0.526
0.46,32305.6,35742.7,1.1622,1.8323,149.0,96.8,0.526
0.48,32298.4,35579.4,1.135,1.4299,149.0,96.8,0.526
0.5,32157.7,35330.1,0.6003,0.8156,149.0,96.8,0.526
0.52,32141.0,35290.6,0.5368,0.7185,149.0,96.8,0.526
0.54,32073.3,35091.0,0.2799,0.2265,149.0,96.8,0.526
0.56,31933.9,35045.4,-0.2498,0.1141,149.0,96.8,0.526
0.58,31933.0,35070.4,-0.253,0.1757,149.0,96.8,0.526
0.6,31906.9,34894.0,-0.352,-0.2589,149.0,96.8,0.526
0.62,31922.6,34726.3,-0.2925,-0.6722,149.0,96.8,0.526
0.64,31870.9,34694.4,-0.4888,-0.7508,149.0,96.8,0.526
0.66,31784.4,34644.9,-0.8176,-0.8727,149.0,96.8,0.526
0.68,31805.1,34637.6,-0.739,-0.8907,149.0,96.8,0.526
0.7,31837.3,34632.6,-0.6167,-0.9029,149.0,96.8,0.526
0.72,31786.3,34562.6,-0.8101,-1.0755,149.0,96.8,0.526
0.74,31693.0,34408.7,-1.1647,-1.4547,149.0,96.8,0.526
0.76,31679.2,34432.1,-1.2169,-1.397,149.0,96.8,0.526
0.78,31873.5,34664.0,-0.479,-0.8256,149.0,96.8,0.526
0.8,32000.6,34997.5,0.0037,-0.0038,149.0,96.8,0.526
0.82,32251.5,35441.8,0.9567,1.0909,149.0,96.8,0.526
0.84,32358.0,35697.1,1.3612,1.7201,149.0,96.8,0.526
0.86,32388.1,35756.0,1.4754,1.8652,149.0,96.8,0.526
0.88,32297.8,35597.5,1.1325,1.4746,149.0,96.8,0.526
0.9,32128.2,35419.0,0.4885,1.0348,149.0,96.8,0.526
0.92,32153.3,35287.1,0.5839,0.7099,149.0,96.8,0.526
0.94,32026.3,35128.8,0.1013,0.3197,149.0,96.8,0.526
0.96,32054.2,35134.8,0.2071,0.3346,149.0,96.8,0.526
0.98,32052.5,35077.1,0.2009,0.1923,149.0,96.8,0.526
1.0,31965.3,34963.6,-0.1304,-0.0873,149.0,96.8,0.526
1.02,32025.3,34809.8,0.0975,-0.4664,149.0,96.8,0.526
1.04,31767.2,34692.9,-0.8828,-0.7544,149.0,96.8,0.526
1.06,31849.1,34717.5,-0.5717,-0.6939,149.0,96.8,0.526
1.08,31820.8,34683.6,-0.6792,-0.7773,149.0,96.8,0.526
1.1,31945.5,34664.5,-0.2054,-0.8244,149.0,96.8,0.526
1.12,31841.1,34557.4,-0.6021,-1.0883,149.0,96.8,0.526
1.14,31809.5,34420.8,-0.7223,-1.4249,149.0,96.8,0.526
1.16,31705.5,34415.6,-1.1171,-1.4377,149.0,96.8,0.526
1.18,31937.9,34714.3,-0.2343,-0.7017,149.0,96.8,0.526
1.2,31979.6,34972.4,-0.0762,-0.0658,149.0,96.8,0.526
1.22,32160.3,35505.8,0.6102,1.2487,149.0,96.8,0.526
1.24,32334.4,35729.8,1.2715,1.8007,149.0,96.8,0.526
1.26,32291.1,35794.7,1.1073,1.9605,149.0,96.8,0.526
1.28,32221.9,35644.7,0.8442,1.591,149.0,96.8,0.526
1.3,32210.0,35485.3,0.7992,1.1983,149.0,96.8,0.526
1.32,32131.7,35178.7,0.5018,0.4427,149.0,96.8,0.526
1.34,32080.1,35136.5,0.3055,0.3387,149.0,96.8,0.526
1.36,31930.9,35132.4,-0.2612,0.3285,149.0,96.8,0.526
1.38,31930.3,34986.4,-0.2634,-0.0312,149.0,96.8,0.526
1.4,31946.6,34943.6,-0.2015,-0.1367,149.0,96.8,0.526
1.42,31935.5,34884.3,-0.2436,-0.2829,149.0,96.8,0.526
1.44,31772.9,34668.4,-0.8611,-0.8148,149.0,96.8,0.526
1.46,31927.8,34708.3,-0.2728,-0.7164,149.0,96.8,0.526
1.48,31850.5,34621.7,-0.5665,-0.9298,149.0,96.8,0.526
1.5,31768.7,34661.0,-0.8772,-0.8331,149.0,96.8,0.526
1.52,31835.8,34543.2,-0.6224,-1.1234,149.0,96.8,0.526
1.54,31758.8,34410.6,-0.9148,-1.4499,149.0,96.8,0.526
1.56,31771.0,34569.5,-0.8683,-1.0585,149.0,96.8,0.526
1.58,31771.3,34582.8,-0.8673,-1.0258,149.0,96.8,0.526
1.6,31908.4,34999.9,-0.3464,0.0021,149.0,96.8,0.526
1.62,32130.9,35326.4,0.4987,0.8066,149.0,96.8,0.526
1.64,32304.9,35668.4,1.1595,1.6493,149.0,96.8,0.526
1.66,32318.6,35748.2,1.2117,1.846,149.0,96.8,0.526
1.68,32322.6,35742.2,1.2269,1.8311,149.0,96.8,0.526
1.7,32190.2,35547.2,0.7239,1.3506,149.0,96.8,0.526
1.72,32112.3,35221.0,0.4278,0.5469,149.0,96.8,0.526
1.74,32225.3,35171.3,0.8572,0.4244,149.0,96.8,0.526
1.76,32034.0,35104.2,0.1304,0.2591,149.0,96.8,0.526
1.78,31988.1,35091.1,-0.0437,0.2267,149.0,96.8,0.526
1.8,31968.4,35021.9,-0.1186,0.0561,149.0,96.8,0.526
1.82,31896.8,34840.8,-0.3906,-0.39,149.0,96.8,0.526
1.84,31962.3,34751.4,-0.1419,-0.6102,149.0,96.8,0.526
1.86,31845.4,34772.4,-0.5856,-0.5586,149.0,96.8,0.526
1.88,31911.7,34733.6,-0.3341,-0.6541,149.0,96.8,0.526
1.9,31776.4,34674.7,-0.8479,-0.7992,149.0,96.8,0.526
1.92,31734.6,34491.7,-1.0066,-1.2501,149.0,96.8,0.526
1.94,31671.9,34564.5,-1.2447,-1.0707,149.0,96.8,0.526
1.96,31717.8,34453.0,-1.0707,-1.3455,149.0,96.8,0.526
1.98,31814.9,34562.0,-0.7017,-1.0769,149.0,96.8,0.526
2.0,31955.6,35002.3,-0.1672,0.0081,149.0,96.8,0.526
2.02,32205.9,35352.7,0.7835,0.8713,149.0,96.8,0.526
2.04,32361.8,35703.7,1.3755,1.7364,149.0,96.8,0.526
2.06,32406.6,35778.9,1.5458,1.9216,149.0,96.8,0.526
2.08,32433.7,35740.0,1.6489,1.8259,149.0,96.8,0.526
2.1,32192.0,35431.8,0.7305,1.0663,149.0,96.8,0.526
2.12,32182.8,35387.3,0.6957,0.9566,149.0,96.8,0.526
2.14,32096.8,35176.9,0.3691,0.4383,149.0,96.8,0.526
2.16,32065.9,35132.8,0.2518,0.3295,149.0,96.8,0.526
2.18,31893.2,35083.9,-0.4042,0.209,149.0,96.8,0.526
2.2,31911.3,35069.6,-0.3355,0.1738,149.0,96.8,0.526
2.22,31920.4,34796.4,-0.301,-0.4995,149.0,96.8,0.526
2.24,31757.6,34736.6,-0.9191,-0.6468,149.0,96.8,0.526
2.26,31804.2,34639.3,-0.7424,-0.8865,149.0,96.8,0.526
2.28,31805.8,34675.8,-0.7364,-0.7965,149.0,96.8,0.526
2.3,31831.0,34740.1,-0.6403,-0.6381,149.0,96.8,0.526
2.32,31700.4,34635.5,-1.1367,-0.8958,149.0,96.8,0.526
2.34,31755.3,34487.5,-0.9279,-1.2605,149.0,96.8,0.526
2.36,31659.2,34493.1,-1.2931,-1.2467,149.0,96.8,0.526
2.38,31773.9,34636.4,-0.8572,-0.8936,149.0,96.8,0.526
2.4,31819.4,34837.0,-0.6846,-0.3993,149.0,96.8,0.526
2.42,32095.0,35168.0,0.3623,0.4162,149.0,96.8,0.526
2.44,32225.5,35578.2,0.8579,1.427,149.0,96.8,0.526
2.46,32321.5,35826.6,1.2225,2.0391,149.0,96.8,0.526
2.48,32313.6,35685.7,1.1927,1.6921,149.0,96.8,0.526
2.5,32237.7,35640.4,0.9041,1.5803,149.0,96.8,0.526
2.52,32217.0,35267.0,0.8256,0.6601,149.0,96.8,0.526
2.54,32125.4,35110.0,0.4776,0.2732,149.0,96.8,0.526
2.56,32041.7,35139.9,0.1598,0.347,149.0,96.8,0.526
2.58,32059.3,35098.9,0.2267,0.246,149.0,96.8,0.526
2.6,32083.0,34977.2,0.3165,-0.0538,149.0,96.8,0.526
2.62,31983.7,34873.4,-0.0606,-0.3098,149.0,96.8,0.526
2.64,31933.9,34711.9,-0.2496,-0.7075,149.0,96.8,0.526
2.66,31856.6,34717.6,-0.5433,-0.6936,149.0,96.8,0.526
2.68,31931.4,34718.1,-0.2592,-0.6924,149.0,96.8,0.526
2.7,31847.2,34662.6,-0.5791,-0.8292,149.0,96.8,0.526
2.72,31747.8,34597.0,-0.9566,-0.9908,149.0,96.8,0.526
2.74,31693.6,34508.7,-1.1622,-1.2083,149.0,96.8,0.526
2.76,31722.1,34490.1,-1.0541,-1.254,149.0,96.8,0.526
2.78,31765.8,34532.9,-0.8882,-1.1486,149.0,96.8,0.526
2.8,31979.0,34786.5,-0.0783,-0.5237,149.0,96.8,0.526
2.82,32141.0,35259.8,0.5368,0.6425,149.0,96.8,0.526
2.84,32214.2,35554.9,0.8151,1.3696,149.0,96.8,0.526
2.86,32354.3,35690.2,1.3473,1.703,149.0,96.8,0.526
2.88,32333.7,35695.9,1.2691,1.717,149.0,96.8,0.526
2.9,32288.4,35558.6,1.0969,1.3789,149.0,96.8,0.526
2.92,32144.2,35388.9,0.5493,0.9605,149.0,96.8,0.526
2.94,32079.2,35185.1,0.3023,0.4583,149.0,96.8,0.526
2.96,31907.9,35022.1,-0.3483,0.0568,149.0,96.8,0.526
2.98,31982.1,35098.6,-0.0667,0.2453,149.0,96.8,0.526
3.0,31943.5,34923.7,-0.2133,-0.1857,149.0,96.8,0.526
3.02,31946.2,34915.5,-0.2029,-0.2059,149.0,96.8,0.526
3.04,31958.0,34770.9,-0.1579,-0.5623,149.0,96.8,0.526
3.06,31863.7,34702.7,-0.5163,-0.7304,149.0,96.8,0.526
3.08,31802.1,34648.4,-0.7502,-0.8641,149.0,96.8,0.526
3.1,31820.0,34623.2,-0.6823,-0.9261,149.0,96.8,0.526
3.12,31799.9,34647.4,-0.7586,-0.8664,149.0,96.8,0.526
3.14,31758.3,34570.2,-0.9166,-1.0567,149.0,96.8,0.526
3.16,31767.6,34345.7,-0.8815,-1.6101,149.0,96.8,0.526
3.18,31719.3,34522.0,-1.0648,-1.1756,149.0,96.8,0.526
3.2,31887.6,34831.6,-0.4256,-0.4127,149.0,96.8,0.526
3.22,32143.5,35169.5,0.5467,0.4199,149.0,96.8,0.526
3.24,32245.3,35472.3,0.9332,1.1661,149.0,96.8,0.526
3.26,32360.0,35749.0,1.3687,1.848,149.0,96.8,0.526
3.28,32280.8,35669.5,1.068,1.6519,149.0,96.8,0.526
3.3,32357.0,35594.6,1.3573,1.4674,149.0,96.8,0.526
3.32,32166.4,35385.1,0.6333,0.9513,149.0,96.8,0.526
3.34,32149.7,35239.2,0.5699,0.5918,149.0,96.8,0.526
3.36,32069.7,35028.8,0.2663,0.0733,149.0,96.8,0.526
3.38,32115.9,35007.2,0.4416,0.02,149.0,96.8,0.526
3.4,32047.3,35090.5,0.1811,0.2253,149.0,96.8,0.526
3.42,31947.8,34891.5,-0.1969,-0.2651,149.0,96.8,0.526
3.44,31849.0,34814.4,-0.572,-0.455,149.0,96.8,0.526
3.46,31890.7,34684.9,-0.4139,-0.7741,149.0,96.8,0.526
3.48,31833.9,34651.4,-0.6294,-0.8567,149.0,96.8,0.526
3.5,31850.8,34704.8,-0.5652,-0.7251,149.0,96.8,0.526
3.52,31876.9,34646.9,-0.4661,-0.8677,149.0,96.8,0.526
3.54,31728.5,34595.6,-1.03,-0.9942,149.0,96.8,0.526
3.56,31697.3,34421.7,-1.1484,-1.4228,149.0,96.8,0.526
3.58,31809.0,34469.2,-0.7239,-1.3056,149.0,96.8,0.526
3.6,31786.2,34732.3,-0.8108,-0.6573,149.0,96.8,0.526
3.62,31972.7,35057.0,-0.1023,0.1428,149.0,96.8,0.526
3.64,32218.5,35425.6,0.8313,1.051,149.0,96.8,0.526
3.66,32392.4,35702.6,1.4918,1.7336,149.0,96.8,0.526
3.68,32344.1,35813.1,1.3086,2.0058,149.0,96.8,0.526
3.7,32333.9,35633.2,1.2697,1.5625,149.0,96.8,0.526
3.72,32207.7,35470.8,0.7905,1.1624,149.0,96.8,0.526
3.74,32039.4,35219.1,0.151,0.5422,149.0,96.8,0.526
3.76,32129.2,35025.5,0.4921,0.0652,149.0,96.8,0.526
3.78,32024.6,35055.9,0.0948,0.1401,149.0,96.8,0.526
3.8,32009.1,35058.4,0.036,0.1461,149.0,96.8,0.526
3.82,31904.5,34761.5,-0.3612,-0.5854,149.0,96.8,0.526
3.84,31840.4,34745.5,-0.6046,-0.6249,149.0,96.8,0.526
3.86,31936.3,34781.3,-0.2404,-0.5366,149.0,96.8,0.526
3.88,31798.4,34620.4,-0.7643,-0.9331,149.0,96.8,0.526
3.9,31821.0,34629.8,-0.6786,-0.91,149.0,96.8,0.526
3.92,31849.1,34616.9,-0.5718,-0.9418,149.0,96.8,0.526
3.94,31726.6,34560.6,-1.0372,-1.0806,149.0,96.8,0.526
3.96,31726.4,34429.9,-1.0378,-1.4025,149.0,96.8,0.526
3.98,31756.2,34521.5,-0.9245,-1.1768,149.0,96.8,0.526
4.0,31901.6,34626.5,-0.3724,-0.9181,149.0,96.8,0.526
4.02,31936.3,34934.4,-0.2405,-0.1594,149.0,96.8,0.526
4.04,32246.0,35430.5,0.9359,1.0631,149.0,96.8,0.526
4.06,32281.7,35631.1,1.0713,1.5573,149.0,96.8,0.526
4.08,32430.2,35826.9,1.6354,2.04,149.0,96.8,0.526
4.1,32364.3,35588.2,1.3852,1.4518,149.0,96.8,0.526
4.12,32175.9,35450.4,0.6694,1.112,149.0,96.8,0.526
4.14,32046.8,35340.4,0.1791,0.841,149.0,96.8,0.526
4.16,32161.5,35215.7,0.6147,0.5339,149.0,96.8,0.526
4.18,32024.1,35079.9,0.093,0.1993,149.0,96.8,0.526
4.2,31933.4,34948.2,-0.2515,-0.1253,149.0,96.8,0.526
4.22,31965.6,34948.4,-0.1291,-0.1249,149.0,96.8,0.526
4.24,31869.5,34833.2,-0.4942,-0.4088,149.0,96.8,0.526
4.26,31731.2,34646.3,-1.0194,-0.8694,149.0,96.8,0.526
4.28,31765.8,34694.3,-0.8882,-0.751,149.0,96.8,0.526
4.3,31811.3,34606.1,-0.7154,-0.9684,149.0,96.8,0.526
4.32,31767.5,34548.3,-0.8815,-1.1107,149.0,96.8,0.526
4.34,31762.7,34597.7,-0.9,-0.989,149.0,96.8,0.526
4.36,31721.8,34479.5,-1.0555,-1.2803,149.0,96.8,0.526
4.38,31750.4,34568.0,-0.9465,-1.0623,149.0,96.8,0.526
4.4,31773.9,34683.9,-0.8574,-0.7766,149.0,96.8,0.526
4.42,31988.1,34988.9,-0.0436,-0.0251,149.0,96.8,0.526
4.44,32085.5,35378.8,0.3263,0.9358,149.0,96.8,0.526
4.46,32267.0,35618.4,1.0156,1.5262,149.0,96.8,0.526
4.48,32361.9,35693.1,1.3759,1.7102,149.0,96.8,0.526
4.5,32378.3,35691.2,1.4384,1.7054,149.0,96.8,0.526
4.52,32225.6,35460.4,0.8584,1.1369,149.0,96.8,0.526
4.54,32101.1,35199.4,0.3855,0.4936,149.0,96.8,0.526
4.56,32060.6,35102.3,0.2316,0.2544,149.0,96.8,0.526
4.58,32081.2,35079.1,0.3099,0.1973,149.0,96.8,0.526
4.6,31976.9,35027.0,-0.0864,0.0689,149.0,96.8,0.526
4.62,31979.5,34931.3,-0.0765,-0.1669,149.0,96.8,0.526
4.64,31817.9,34860.7,-0.6903,-0.341,149.0,96.8,0.526
4.66,31769.2,34764.8,-0.8752,-0.5773,149.0,96.8,0.526
4.68,31799.0,34777.9,-0.7622,-0.5449,149.0,96.8,0.526
4.7,31877.8,34606.2,-0.4627,-0.968,149.0,96.8,0.526
4.72,31850.7,34642.3,-0.5658,-0.8791,149.0,96.8,0.526
4.74,31790.4,34473.7,-0.7948,-1.2946,149.0,96.8,0.526
4.76,31739.0,34474.0,-0.9898,-1.2938,149.0,96.8,0.526
4.78,31753.7,34453.3,-0.9341,-1.3447,149.0,96.8,0.526
4.8,31722.3,34628.7,-1.0532,-0.9126,149.0,96.8,0.526
4.82,31986.5,35027.0,-0.0499,0.0689,149.0,96.8,0.526
4.84,32133.5,35262.8,0.5086,0.6498,149.0,96.8,0.526
4.86,32324.3,35560.2,1.2331,1.3827,149.0,96.8,0.526
4.88,32391.4,35670.7,1.4882,1.655,149.0,96.8,0.526
4.9,32377.2,35706.7,1.434,1.7436,149.0,96.8,0.526
4.92,32214.0,35577.9,0.8144,1.4264,149.0,96.8,0.526
4.94,32170.4,35300.2,0.6488,0.7421,149.0,96.8,0.526
4.96,32123.9,35142.2,0.4719,0.3526,149.0,96.8,0.526
4.98,32030.8,35137.8,0.1185,0.3418,149.0,96.8,0.526
5.0,32032.1,34984.8,0.1233,-0.0351,149.0,96.8,0.526
5.02,31989.0,34955.7,-0.0403,-0.1068,149.0,96.8,0.526
5.04,31966.1,34864.9,-0.1274,-0.3305,149.0,96.8,0.526
5.06,31811.1,34674.5,-0.7162,-0.7997,149.0,96.8,0.526
5.08,31831.9,34592.0,-0.6372,-1.0031,149.0,96.8,0.526
5.1,31839.8,34580.6,-0.607,-1.0312,149.0,96.8,0.526
5.12,31879.1,34659.5,-0.4577,-0.8366,149.0,96.8,0.526
5.14,31815.3,34673.2,-0.7003,-0.803,149.0,96.8,0.526
5.16,31790.2,34458.1,-0.7954,-1.3331,149.0,96.8,0.526
5.18,31661.9,34488.5,-1.2829,-1.2581,149.0,96.8,0.526
5.2,31962.1,34531.7,-0.1427,-1.1516,149.0,96.8,0.526
5.22,31892.1,34786.4,-0.4084,-0.5241,149.0,96.8,0.526
5.24,32218.0,35269.7,0.8295,0.6668,149.0,96.8,0.526
5.26,32281.6,35541.7,1.071,1.3372,149.0,96.8,0.526
5.28,32338.8,35882.9,1.2881,2.1778,149.0,96.8,0.526
5.3,32319.2,35651.9,1.214,1.6086,149.0,96.8,0.526
5.32,32235.0,35531.8,0.894,1.3126,149.0,96.8,0.526
5.34,32233.9,35359.2,0.8897,0.8875,149.0,96.8,0.526
5.36,32092.5,35248.5,0.3528,0.6146,149.0,96.8,0.526
5.38,32101.2,35091.2,0.3859,0.2271,149.0,96.8,0.526
5.4,32056.4,35085.0,0.2157,0.2118,149.0,96.8,0.526
5.42,32065.4,34982.0,0.2498,-0.0421,149.0,96.8,0.526
5.44,31890.5,34848.1,-0.4146,-0.372,149.0,96.8,0.526
5.46,31860.1,34734.0,-0.5301,-0.6533,149.0,96.8,0.526
5.48,31818.5,34656.5,-0.6879,-0.844,149.0,96.8,0.526
5.5,31856.5,34643.3,-0.5438,-0.8766,149.0,96.8,0.526
5.52,31846.2,34636.3,-0.5826,-0.8938,149.0,96.8,0.526
5.54,31752.9,34627.3,-0.9373,-0.9161,149.0,96.8,0.526
5.56,31771.8,34444.0,-0.8653,-1.3676,149.0,96.8,0.526
5.58,31762.4,34496.4,-0.9011,-1.2385,149.0,96.8,0.526
5.6,31817.0,34438.9,-0.6936,-1.3803,149.0,96.8,0.526
5.62,31825.4,34751.0,-0.6619,-0.6112,149.0,96.8,0.526
5.64,32013.2,35197.4,0.0514,0.4888,149.0,96.8,0.526
5.66,32224.7,35535.8,0.8549,1.3226,149.0,96.8,0.526
5.68,32376.3,35788.4,1.4308,1.9449,149.0,96.8,0.526
5.7,32375.3,35823.2,1.427,2.0308,149.0,96.8,0.526
5.72,32245.1,35522.1,0.9323,1.2889,149.0,96.8,0.526
5.74,32091.5,35356.4,0.349,0.8805,149.0,96.8,0.526
5.76,32111.4,35158.6,0.4244,0.393,149.0,96.8,0.526
5.78,32033.0,35132.6,0.1267,0.329,149.0,96.8,0.526
5.8,31946.5,34963.3,-0.2018,-0.0881,149.0,96.8,0.526
5.82,31929.1,35003.6,-0.2679,0.0112,149.0,96.8,0.526
5.84,31987.4,34797.1,-0.0463,-0.4977,149.0,96.8,0.526
5.86,31887.7,34745.7,-0.425,-0.6242,149.0,96.8,0.526
5.88,31899.5,34685.9,-0.3804,-0.7717,149.0,96.8,0.526
5.9,31848.7,34754.4,-0.5735,-0.6029,149.0,96.8,0.526
5.92,31835.1,34675.4,-0.6248,-0.7975,149.0,96.8,0.526
5.94,31778.3,34598.0,-0.8408,-0.9882,149.0,96.8,0.526
5.96,31839.5,34467.3,-0.6082,-1.3104,149.0,96.8,0.526
5.98,31632.9,34485.9,-1.3931,-1.2644,149.0,96.8,0.526
6.0,31823.9,34591.7,-0.6674,-1.0039,149.0,96.8,0.526
6.02,31979.2,34702.2,-0.0777,-0.7315,149.0,96.8,0.526
6.04,32086.4,35099.0,0.3295,0.2462,149.0,96.8,0.526
6.06,32176.9,35613.2,0.6735,1.5134,149.0,96.8,0.526
6.08,32324.7,35672.2,1.2347,1.6586,149.0,96.8,0.526
6.1,32321.8,35692.6,1.2236,1.7088,149.0,96.8,0.526
6.12,32245.7,35640.6,0.9345,1.5809,149.0,96.8,0.526
6.14,32164.9,35359.5,0.6279,0.8883,149.0,96.8,0.526
6.16,32081.1,35180.5,0.3093,0.4471,149.0,96.8,0.526
6.18,32052.8,35093.1,0.202,0.2316,149.0,96.8,0.526
6.2,32125.0,35079.9,0.4761,0.1991,149.0,96.8,0.526
6.22,32057.9,34987.0,0.2212,-0.0298,149.0,96.8,0.526
6.24,31850.3,34921.0,-0.5673,-0.1924,149.0,96.8,0.526
6.26,31832.6,34784.3,-0.6342,-0.5292,149.0,96.8,0.526
6.28,31846.9,34760.9,-0.5802,-0.5868,149.0,96.8,0.526
6.3,31906.3,34687.5,-0.3544,-0.7678,149.0,96.8,0.526
6.32,31899.1,34683.9,-0.3818,-0.7766,149.0,96.8,0.526
6.34,31755.5,34734.0,-0.9273,-0.6532,149.0,96.8,0.526
6.36,31717.3,34480.8,-1.0724,-1.2771,149.0,96.8,0.526
6.38,31772.1,34486.4,-0.8643,-1.2634,149.0,96.8,0.526
6.4,31823.0,34576.1,-0.671,-1.0421,149.0,96.8,0.526
6.42,31961.8,34716.5,-0.1437,-0.6963,149.0,96.8,0.526
6.44,32044.2,35009.8,0.1693,0.0265,149.0,96.8,0.526
6.46,32207.3,35392.4,0.7889,0.9692,149.0,96.8,0.526
6.48,32339.3,35673.8,1.29,1.6625,149.0,96.8,0.526
6.5,32348.1,35728.7,1.3235,1.7979,149.0,96.8,0.526
6.52,32362.7,35636.2,1.3792,1.5699,149.0,96.8,0.526
6.54,32204.3,35430.4,0.7774,1.0629,149.0,96.8,0.526
6.56,32145.8,35260.2,0.5553,0.6436,149.0,96.8,0.526
6.58,32040.8,35151.1,0.1562,0.3746,149.0,96.8,0.526
6.6,32008.6,35127.5,0.034,0.3164,149.0,96.8,0.526
6.62,32029.6,35023.9,0.1138,0.0613,149.0,96.8,0.526
6.64,31937.9,34861.3,-0.2346,-0.3394,149.0,96.8,0.526
6.66,31860.5,34814.6,-0.5283,-0.4546,149.0,96.8,0.526
6.68,31902.1,34743.6,-0.3705,-0.6295,149.0,96.8,0.526
6.7,31869.0,34673.8,-0.496,-0.8016,149.0,96.8,0.526
6.72,31813.2,34638.7,-0.708,-0.8879,149.0,96.8,0.526
6.74,31772.7,34586.9,-0.862,-1.0157,149.0,96.8,0.526
6.76,31803.7,34533.4,-0.7442,-1.1474,149.0,96.8,0.526
6.78,31690.8,34498.0,-1.1732,-1.2346,149.0,96.8,0.526
6.8,31737.5,34504.9,-0.9957,-1.2176,149.0,96.8,0.526
6.82,31763.2,34653.8,-0.8981,-0.8508,149.0,96.8,0.526
6.84,31999.1,34961.3,-0.0019,-0.0931,149.0,96.8,0.526
6.86,32206.4,35452.6,0.7853,1.1177,149.0,96.8,0.526
6.88,32370.7,35690.5,1.4095,1.7039,149.0,96.8,0.526
6.9,32346.4,35741.0,1.3173,1.8282,149.0,96.8,0.526
6.92,32353.7,35655.1,1.3448,1.6165,149.0,96.8,0.526
6.94,32224.4,35418.0,0.8538,1.0324,149.0,96.8,0.526
6.96,32114.3,35343.3,0.4355,0.8482,149.0,96.8,0.526
6.98,32042.0,35223.0,0.1609,0.5517,149.0,96.8,0.526
7.0,32075.2,35138.1,0.2869,0.3427,149.0,96.8,0.526
7.02,32060.9,35063.5,0.2329,0.1587,149.0,96.8,0.526
7.04,31883.5,34890.8,-0.4412,-0.2668,149.0,96.8,0.526
7.06,31936.9,34864.6,-0.2384,-0.3313,149.0,96.8,0.526
7.08,31782.1,34606.7,-0.8262,-0.9668,149.0,96.8,0.526
7.1,31827.9,34757.6,-0.6523,-0.5951,149.0,96.8,0.526
7.12,31800.9,34723.8,-0.7547,-0.6782,149.0,96.8,0.526
7.14,31764.3,34679.7,-0.8939,-0.787,149.0,96.8,0.526
7.16,31787.3,34543.7,-0.8065,-1.1221,149.0,96.8,0.526
7.18,31729.9,34495.6,-1.0244,-1.2406,149.0,96.8,0.526
7.2,31646.8,34482.3,-1.34,-1.2735,149.0,96.8,0.526
7.22,31826.7,34665.3,-0.6569,-0.8224,149.0,96.8,0.526
7.24,31882.7,35066.8,-0.4441,0.1668,149.0,96.8,0.526
7.26,32195.9,35359.3,0.7456,0.8877,149.0,96.8,0.526
7.28,32351.2,35636.0,1.3355,1.5695,149.0,96.8,0.526
7.3,32400.7,35715.8,1.5236,1.7661,149.0,96.8,0.526
7.32,32290.1,35650.5,1.1032,1.6053,149.0,96.8,0.526
7.34,32217.8,35514.1,0.8288,1.2692,149.0,96.8,0.526
7.36,32202.0,35288.0,0.7686,0.7119,149.0,96.8,0.526
7.38,32148.4,35155.0,0.5651,0.3843,149.0,96.8,0.526
7.4,32020.0,35077.6,0.0773,0.1935,149.0,96.8,0.526
7.42,32044.8,34996.2,0.1718,-0.0069,149.0,96.8,0.526
7.44,31942.2,34904.1,-0.218,-0.234,149.0,96.8,0.526
7.46,31852.6,34869.3,-0.5585,-0.3196,149.0,96.8,0.526
7.48,31865.9,34766.1,-0.508,-0.5741,149.0,96.8,0.526
7.5,31886.4,34679.6,-0.4299,-0.7872,149.0,96.8,0.526
7.52,31863.0,34642.0,-0.519,-0.8798,149.0,96.8,0.526
7.54,31912.5,34616.8,-0.3309,-0.9419,149.0,96.8,0.526
7.56,31840.4,34547.8,-0.6049,-1.1119,149.0,96.8,0.526
7.58,31650.0,34470.4,-1.3279,-1.3027,149.0,96.8,0.526
7.6,31746.4,34383.0,-0.9618,-1.518,149.0,96.8,0.526
7.62,31804.7,34650.7,-0.7403,-0.8584,149.0,96.8,0.526
7.64,31904.5,34975.8,-0.3613,-0.0573,149.0,96.8,0.526
7.66,32101.8,35306.9,0.3879,0.7586,149.0,96.8,0.526
7.68,32306.3,35682.2,1.1648,1.6833,149.0,96.8,0.526
7.7,32318.1,35714.1,1.2097,1.762,149.0,96.8,0.526
7.72,32311.2,35638.5,1.1833,1.5756,149.0,96.8,0.526
7.74,32215.4,35522.4,0.8196,1.2897,149.0,96.8,0.526
7.76,32111.7,35331.3,0.4256,0.8186,149.0,96.8,0.526
7.78,32143.0,35199.5,0.5444,0.494,149.0,96.8,0.526
7.8,31969.6,35095.8,-0.114,0.2383,149.0,96.8,0.526
7.82,32022.4,35026.2,0.0866,0.0668,149.0,96.8,0.526
7.84,32031.6,34884.4,0.1215,-0.2826,149.0,96.8,0.526
7.86,31944.2,34788.3,-0.2105,-0.5192,149.0,96.8,0.526
7.88,31881.7,34675.5,-0.448,-0.7974,149.0,96.8,0.526
7.9,31885.0,34803.6,-0.4353,-0.4816,149.0,96.8,0.526
7.92,31791.6,34667.1,-0.7903,-0.8179,149.0,96.8,0.526
7.94,31833.9,34617.8,-0.6293,-0.9395,149.0,96.8,0.526
7.96,31844.4,34524.7,-0.5895,-1.1689,149.0,96.8,0.526
7.98,31774.3,34475.0,-0.8561,-1.2913,149.0,96.8,0.526
8.0,31719.4,34486.6,-1.0642,-1.2629,149.0,96.8,0.526
8.02,31727.6,34579.2,-1.0332,-1.0346,149.0,96.8,0.526
8.04,31944.9,34870.1,-0.2079,-0.3178,149.0,96.8,0.526
8.06,32129.7,35267.2,0.4939,0.6607,149.0,96.8,0.526
8.08,32386.0,35694.5,1.4675,1.7137,149.0,96.8,0.526
8.1,32426.2,35775.6,1.6202,1.9136,149.0,96.8,0.526
8.12,32410.4,35696.3,1.5602,1.7181,149.0,96.8,0.526
8.14,32296.1,35483.1,1.126,1.1927,149.0,96.8,0.526
8.16,32105.5,35258.3,0.4022,0.6388,149.0,96.8,0.526
8.18,32040.2,35171.0,0.1541,0.4238,149.0,96.8,0.526
8.2,32018.9,35120.3,0.0733,0.2987,149.0,96.8,0.526
8.22,32098.2,34984.2,0.3745,-0.0366,149.0,96.8,0.526
8.24,32032.3,34958.5,0.1241,-0.0999,149.0,96.8,0.526
8.26,31861.0,34834.1,-0.5264,-0.4066,149.0,96.8,0.526
8.28,31958.5,34757.3,-0.1562,-0.5958,149.0,96.8,0.526
8.3,31897.8,34712.4,-0.3866,-0.7064,149.0,96.8,0.526
8.32,31870.4,34699.0,-0.4908,-0.7394,149.0,96.8,0.526
8.34,31860.9,34617.5,-0.5271,-0.9401,149.0,96.8,0.526
8.36,31823.3,34562.0,-0.6699,-1.0769,149.0,96.8,0.526
8.38,31818.2,34404.4,-0.6893,-1.4653,149.0,96.8,0.526
8.4,31813.6,34463.4,-0.7064,-1.3201,149.0,96.8,0.526
8.42,31745.1,34557.0,-0.9669,-1.0892,149.0,96.8,0.526
8.44,31927.0,34812.8,-0.2757,-0.459,149.0,96.8,0.526
8.46,32080.8,35151.6,0.3083,0.3758,149.0,96.8,0.526
8.48,32277.3,35456.7,1.0549,1.1276,149.0,96.8,0.526
8.5,32385.4,35804.1,1.4652,1.9838,149.0,96.8,0.526
8.52,32356.3,35768.3,1.3547,1.8956,149.0,96.8,0.526
8.54,32241.7,35482.6,0.9196,1.1914,149.0,96.8,0.526
8.56,32106.3,35321.4,0.4051,0.7944,149.0,96.8,0.526
8.58,32162.8,35133.6,0.6197,0.3316,149.0,96.8,0.526
8.6,32051.1,35056.0,0.1955,0.1403,149.0,96.8,0.526
8.62,32083.9,35053.8,0.32,0.1349,149.0,96.8,0.526
8.64,31970.4,35041.9,-0.111,0.1056,149.0,96.8,0.526
8.66,31960.2,34947.7,-0.1496,-0.1266,149.0,96.8,0.526
8.68,31822.5,34784.9,-0.6728,-0.5277,149.0,96.8,0.526
8.7,31868.4,34752.1,-0.4985,-0.6085,149.0,96.8,0.526
8.72,31839.4,34708.8,-0.6088,-0.7153,149.0,96.8,0.526
8.74,31769.1,34698.5,-0.8758,-0.7407,149.0,96.8,0.526
8.76,31822.5,34584.0,-0.6726,-1.0226,149.0,96.8,0.526
8.78,31796.7,34499.9,-0.7709,-1.2301,149.0,96.8,0.526
8.8,31746.8,34493.2,-0.9604,-1.2466,149.0,96.8,0.526
8.82,31741.9,34547.0,-0.9789,-1.1139,149.0,96.8,0.526
8.84,31937.4,34700.6,-0.2364,-0.7354,149.0,96.8,0.526
8.86,32133.5,35130.8,0.5084,0.3247,149.0,96.8,0.526
8.88,32296.7,35443.6,1.1283,1.0954,149.0,96.8,0.526
8.9,32334.3,35756.1,1.2714,1.8655,149.0,96.8,0.526
8.92,32358.3,35799.6,1.3623,1.9726,149.0,96.8,0.526
8.94,32283.4,35600.3,1.0777,1.4816,149.0,96.8,0.526
8.96,32140.0,35404.0,0.5332,0.9978,149.0,96.8,0.526
8.98,32177.3,35295.8,0.6749,0.7312,149.0,96.8,0.526
9.0,32049.7,35131.3,0.1902,0.3259,149.0,96.8,0.526
9.02,32039.6,35094.8,0.1519,0.236,149.0,96.8,0.526
9.04,31933.8,35035.0,-0.2501,0.0885,149.0,96.8,0.526
9.06,31992.5,34969.7,-0.0269,-0.0724,149.0,96.8,0.526
9.08,31868.6,34855.0,-0.4976,-0.3551,149.0,96.8,0.526
9.1,31856.0,34684.2,-0.5455,-0.7759,149.0,96.8,0.526
9.12,31831.0,34658.1,-0.6404,-0.8401,149.0,96.8,0.526
9.14,31784.6,34647.0,-0.8167,-0.8675,149.0,96.8,0.526
9.16,31720.8,34576.3,-1.0591,-1.0418,149.0,96.8,0.526
9.18,31767.8,34613.0,-0.8804,-0.9513,149.0,96.8,0.526
9.2,31727.4,34431.8,-1.0339,-1.3977,149.0,96.8,0.526
9.22,31860.6,34533.5,-0.5279,-1.1471,149.0,96.8,0.526
9.24,31924.8,34809.9,-0.2843,-0.466,149.0,96.8,0.526
9.26,32061.9,35133.8,0.2366,0.332,149.0,96.8,0.526
9.28,32204.3,35506.5,0.7774,1.2503,149.0,96.8,0.526
9.3,32342.8,35732.9,1.3033,1.8082,149.0,96.8,0.526
9.32,32353.3,35879.6,1.3435,2.1697,149.0,96.8,0.526
9.34,32320.4,35691.6,1.2183,1.7066,149.0,96.8,0.526
9.36,32251.6,35427.0,0.9572,1.0544,149.0,96.8,0.526
9.38,32144.1,35246.4,0.5486,0.6095,149.0,96.8,0.526
9.4,32086.8,35124.5,0.3313,0.3092,149.0,96.8,0.526
9.42,32032.4,35089.3,0.1247,0.2224,149.0,96.8,0.526
9.44,31926.7,34922.3,-0.2769,-0.189,149.0,96.8,0.526
9.46,31940.8,35023.9,-0.2235,0.0612,149.0,96.8,0.526
9.48,32011.7,34729.0,0.0457,-0.6655,149.0,96.8,0.526
9.5,31897.8,34622.5,-0.3868,-0.9279,149.0,96.8,0.526
9.52,31828.1,34653.6,-0.6516,-0.8513,149.0,96.8,0.526
9.54,31866.0,34639.6,-0.5075,-0.8858,149.0,96.8,0.526
9.56,31775.5,34608.5,-0.8513,-0.9623,149.0,96.8,0.526
9.58,31849.8,34507.3,-0.569,-1.2117,149.0,96.8,0.526
9.6,31862.6,34451.9,-0.5204,-1.3483,149.0,96.8,0.526
9.62,31771.1,34471.6,-0.868,-1.2997,149.0,96.8,0.526
9.64,31877.9,34688.2,-0.4623,-0.7661,149.0,96.8,0.526
9.66,32032.1,35066.0,0.1235,0.165,149.0,96.8,0.526
9.68,32294.1,35394.0,1.1187,0.9733,149.0,96.8,0.526
9.7,32456.5,35626.0,1.7355,1.5447,149.0,96.8,0.526
9.72,32404.6,35679.9,1.5383,1.6778,149.0,96.8,0.526
9.74,32363.7,35659.1,1.3828,1.6263,149.0,96.8,0.526
9.76,32179.5,35448.4,0.683,1.1072,149.0,96.8,0.526
9.78,32118.1,35234.9,0.4499,0.5811,149.0,96.8,0.526
9.8,32055.7,35132.7,0.2128,0.3293,149.0,96.8,0.526
9.82,32088.9,35103.3,0.339,0.2569,149.0,96.8,0.526
9.84,32024.4,35127.2,0.0942,0.3158,149.0,96.8,0.526
9.86,31971.7,34962.3,-0.106,-0.0906,149.0,96.8,0.526
9.88,31875.0,34885.6,-0.4733,-0.2797,149.0,96.8,0.526
9.9,31799.4,34674.9,-0.7607,-0.7988,149.0,96.8,0.526
9.92,31868.1,34750.0,-0.4995,-0.6138,149.0,96.8,0.526
9.94,31788.0,34621.6,-0.8039,-0.9301,149.0,96.8,0.526
9.96,31818.8,34625.3,-0.6869,-0.921,149.0,96.8,0.526
9.98,31736.3,34517.6,-1.0,-1.1864,149.0,96.8,0.526
10.0,31698.6,34514.6,-1.1435,-1.1939,149.0,96.8,0.526
10.02,31725.5,34508.8,-1.0412,-1.208,149.0,96.8,0.526
10.04,31745.7,34744.1,-0.9646,-0.6283,149.0,96.8,0.526
10.06,31982.5,34911.8,-0.0652,-0.215,149.0,96.8,0.526
10.08,32186.6,35383.9,0.7102,0.9483,149.0,96.8,0.526
10.1,32287.3,35711.7,1.0926,1.7561,149.0,96.8,0.526
10.12,32422.9,35777.3,1.6076,1.9176,149.0,96.8,0.526
10.14,32381.8,35663.1,1.4516,1.6363,149.0,96.8,0.526
10.16,32124.0,35532.3,0.4725,1.3139,149.0,96.8,0.526
10.18,32099.8,35352.4,0.3805,0.8707,149.0,96.8,0.526
10.2,32072.2,35210.3,0.2757,0.5205,149.0,96.8,0.526
10.22,32050.5,35048.4,0.1933,0.1216,149.0,96.8,0.526
10.24,32026.6,35028.6,0.1025,0.0728,149.0,96.8,0.526
10.26,31884.2,34887.7,-0.4383,-0.2744,149.0,96.8,0.526
10.28,31856.0,34775.3,-0.5456,-0.5514,149.0,96.8,0.526
10.3,31886.8,34686.0,-0.4284,-0.7715,149.0,96.8,0.526
10.32,31840.1,34649.8,-0.606,-0.8605,149.0,96.8,0.526
10.34,31879.8,34695.7,-0.455,-0.7476,149.0,96.8,0.526
10.36,31876.2,34653.4,-0.4688,-0.8517,149.0,96.8,0.526
10.38,31746.4,34509.6,-0.9619,-1.206,149.0,96.8,0.526
10.4,31716.2,34376.9,-1.0766,-1.533,149.0,96.8,0.526
10.42,31690.9,34343.7,-1.1728,-1.6148,149.0,96.8,0.526
10.44,31764.5,34643.2,-0.893,-0.877,149.0,96.8,0.526
10.46,31927.8,34909.0,-0.2727,-0.2219,149.0,96.8,0.526
10.48,32240.6,35303.1,0.9153,0.7491,149.0,96.8,0.526
10.5,32366.5,35699.1,1.3935,1.725,149.0,96.8,0.526
10.52,32373.8,35762.7,1.4211,1.8817,149.0,96.8,0.526
10.54,32286.2,35617.0,1.0884,1.5227,149.0,96.8,0.526
10.56,32231.7,35568.8,0.8816,1.404,149.0,96.8,0.526
10.58,32071.2,35258.2,0.2718,0.6384,149.0,96.8,0.526
10.6,32110.8,35206.7,0.4221,0.5117,149.0,96.8,0.526
10.62,32089.5,35018.7,0.3415,0.0483,149.0,96.8,0.526
10.64,31977.3,34956.4,-0.0849,-0.1052,149.0,96.8,0.526
10.66,32032.1,35027.8,0.1234,0.0707,149.0,96.8,0.526
10.68,31864.1,34791.1,-0.5148,-0.5125,149.0,96.8,0.526
10.7,31921.5,34736.3,-0.2968,-0.6476,149.0,96.8,0.526
10.72,31821.8,34641.0,-0.6753,-0.8824,149.0,96.8,0.526
10.74,31867.4,34649.9,-0.5024,-0.8605,149.0,96.8,0.526
10.76,31774.8,34649.4,-0.8538,-0.8617,149.0,96.8,0.526
10.78,31880.8,34556.2,-0.4515,-1.0913,149.0,96.8,0.526
10.8,31785.0,34524.8,-0.8153,-1.1687,149.0,96.8,0.526
10.82,31840.3,34450.5,-0.6053,-1.3517,149.0,96.8,0.526
10.84,31789.4,34660.4,-0.7985,-0.8345,149.0,96.8,0.526
10.86,32028.3,34898.0,0.1087,-0.2491,149.0,96.8,0.526
10.88,32113.1,35298.3,0.4312,0.7373,149.0,96.8,0.526
10.9,32249.6,35598.0,0.9495,1.4759,149.0,96.8,0.526
10.92,32335.9,35648.3,1.2775,1.5998,149.0,96.8,0.526
10.94,32426.9,35692.4,1.623,1.7084,149.0,96.8,0.526
10.96,32270.0,35417.6,1.0271,1.0313,149.0,96.8,0.526
10.98,32219.6,35379.1,0.8356,0.9363,149.0,96.8,0.526
11.0,32062.8,35247.8,0.2399,0.613,149.0,96.8,0.526
11.02,31982.3,35101.3,-0.0659,0.2518,149.0,96.8,0.526
11.04,32019.7,35087.6,0.0762,0.2181,149.0,96.8,0.526
11.06,31971.6,35093.4,-0.1066,0.2325,149.0,96.8,0.526
11.08,31970.9,34883.9,-0.109,-0.2837,149.0,96.8,0.526
11.1,31865.0,34709.0,-0.5114,-0.7148,149.0,96.8,0.526
11.12,31762.5,34677.8,-0.9006,-0.7916,149.0,96.8,0.526
11.14,31811.5,34665.3,-0.7147,-0.8224,149.0,96.8,0.526
11.16,31876.4,34672.2,-0.4679,-0.8054,149.0,96.8,0.526
11.18,31696.6,34577.5,-1.151,-1.0389,149.0,96.8,0.526
11.2,31897.3,34532.0,-0.3888,-1.1509,149.0,96.8,0.526
11.22,31732.7,34397.7,-1.0138,-1.4819,149.0,96.8,0.526
11.24,31772.6,34590.4,-0.8623,-1.007,149.0,96.8,0.526
11.26,31980.2,34844.1,-0.0739,-0.3818,149.0,96.8,0.526
11.28,32146.0,35277.4,0.5561,0.6858,149.0,96.8,0.526
11.3,32250.1,35575.1,0.9515,1.4194,149.0,96.8,0.526
11.32,32280.9,35665.5,1.0684,1.6421,149.0,96.8,0.526
11.34,32391.9,35701.6,1.49,1.7312,149.0,96.8,0.526
11.36,32300.8,35477.7,1.1438,1.1794,149.0,96.8,0.526
11.38,32177.2,35323.9,0.6745,0.8005,149.0,96.8,0.526
11.4,32128.4,35218.9,0.489,0.5417,149.0,96.8,0.526
11.42,32133.8,35202.3,0.5096,0.5009,149.0,96.8,0.526
11.44,31936.8,35056.1,-0.2386,0.1405,149.0,96.8,0.526
11.46,31993.9,34986.1,-0.0218,-0.032,149.0,96.8,0.526
11.48,31964.0,34952.8,-0.1354,-0.1139,149.0,96.8,0.526
11.5,31892.6,34740.0,-0.4067,-0.6384,149.0,96.8,0.526
11.52,31832.7,34628.5,-0.6342,-0.9132,149.0,96.8,0.526
11.54,31881.7,34696.0,-0.4479,-0.7469,149.0,96.8,0.526
11.56,31859.9,34708.1,-0.5307,-0.7169,149.0,96.8,0.526
11.58,31874.3,34618.6,-0.4761,-0.9376,149.0,96.8,0.526
11.6,31786.4,34484.9,-0.8099,-1.2669,149.0,96.8,0.526
11.62,31725.8,34432.9,-1.0399,-1.3952,149.0,96.8,0.526
11.64,31818.8,34606.7,-0.6868,-0.9669,149.0,96.8,0.526
11.66,31982.9,34780.2,-0.0636,-0.5393,149.0,96.8,0.526
11.68,32076.6,35179.0,0.2923,0.4433,149.0,96.8,0.526
11.7,32182.3,35517.5,0.6938,1.2774,149.0,96.8,0.526
11.72,32295.6,35718.1,1.1243,1.7718,149.0,96.8,0.526
11.74,32386.1,35802.8,1.468,1.9806,149.0,96.8,0.526
11.76,32327.9,35503.9,1.2469,1.2439,149.0,96.8,0.526
11.78,32107.4,35432.5,0.4093,1.0679,149.0,96.8,0.526
11.8,32087.9,35131.6,0.3354,0.3267,149.0,96.8,0.526
11.82,32094.2,35152.0,0.3592,0.3769,149.0,96.8,0.526
11.84,32025.9,35047.3,0.0997,0.1188,149.0,96.8,0.526
11.86,32008.8,35023.0,0.0347,0.059,149.0,96.8,0.526
11.88,31932.5,34856.0,-0.2551,-0.3526,149.0,96.8,0.526
11.9,31810.4,34778.4,-0.7187,-0.5437,149.0,96.8,0.526
11.92,31906.1,34742.8,-0.3551,-0.6314,149.0,96.8,0.526
11.94,31862.0,34694.9,-0.5226,-0.7494,149.0,96.8,0.526
11.96,31815.1,34663.4,-0.7009,-0.8272,149.0,96.8,0.526
11.98,31761.0,34702.1,-0.9064,-0.7317,149.0,96.8,0.526
12.0,31803.7,34505.9,-0.744,-1.2152,149.0,96.8,0.526
12.02,31753.0,34306.3,-0.9368,-1.707,149.0,96.8,0.526
12.04,31780.4,34407.8,-0.8328,-1.4569,149.0,96.8,0.526
12.06,31885.9,34692.1,-0.4319,-0.7563,149.0,96.8,0.526
12.08,32080.3,35103.2,0.3066,0.2565,149.0,96.8,0.526
12.1,32258.3,35481.1,0.9824,1.1878,149.0,96.8,0.526
12.12,32248.8,35670.2,0.9464,1.6537,149.0,96.8,0.526
12.14,32359.9,35708.6,1.3686,1.7483,149.0,96.8,0.526
12.16,32281.2,35631.6,1.0695,1.5587,149.0,96.8,0.526
12.18,32182.4,35254.4,0.6942,0.6292,149.0,96.8,0.526
12.2,32146.9,35248.0,0.5594,0.6135,149.0,96.8,0.526
12.22,32029.5,35120.1,0.1135,0.2983,149.0,96.8,0.526
12.24,32002.0,35091.4,0.009,0.2274,149.0,96.8,0.526
12.26,32121.1,35056.9,0.4613,0.1425,149.0,96.8,0.526
12.28,31946.0,34861.5,-0.2037,-0.339,149.0,96.8,0.526
12.3,31934.6,34814.4,-0.2468,-0.455,149.0,96.8,0.526
12.32,31893.0,34676.1,-0.4051,-0.7959,149.0,96.8,0.526
12.34,31848.1,34661.5,-0.5755,-0.8319,149.0,96.8,0.526
12.36,31858.5,34781.5,-0.5361,-0.5362,149.0,96.8,0.526
12.38,31806.2,34577.4,-0.7346,-1.0391,149.0,96.8,0.526
12.4,31789.0,34495.5,-0.8,-1.241,149.0,96.8,0.526
12.42,31687.6,34455.7,-1.1851,-1.3388,149.0,96.8,0.526
12.44,31843.0,34469.4,-0.5947,-1.3052,149.0,96.8,0.526
12.46,31798.0,34624.2,-0.766,-0.9238,149.0,96.8,0.526
12.48,31928.8,35090.4,-0.2691,0.2249,149.0,96.8,0.526
12.5,32216.3,35461.6,0.8229,1.1397,149.0,96.8,0.526
12.52,32385.6,35696.0,1.4662,1.7173,149.0,96.8,0.526
12.54,32388.2,35770.7,1.4759,1.9015,149.0,96.8,0.526
12.56,32314.5,35673.1,1.1959,1.6609,149.0,96.8,0.526
12.58,32113.5,35428.1,0.4324,1.0573,149.0,96.8,0.526
12.6,32122.5,35285.7,0.4667,0.7063,149.0,96.8,0.526
12.62,32054.8,35123.9,0.2095,0.3077,149.0,96.8,0.526
12.64,32039.5,35086.5,0.1516,0.2154,149.0,96.8,0.526
12.66,31935.9,34978.5,-0.2421,-0.0507,149.0,96.8,0.526
12.68,32044.4,34901.5,0.1702,-0.2405,149.0,96.8,0.526
12.7,31909.6,34743.0,-0.3419,-0.6311,149.0,96.8,0.526
12.72,31856.9,34747.7,-0.5422,-0.6195,149.0,96.8,0.526
12.74,31866.1,34666.3,-0.5071,-0.82,149.0,96.8,0.526
12.76,31818.1,34691.6,-0.6894,-0.7577,149.0,96.8,0.526
12.78,31889.1,34620.8,-0.4198,-0.9321,149.0,96.8,0.526
12.8,31790.6,34558.1,-0.7938,-1.0867,149.0,96.8,0.526
12.82,31774.1,34472.7,-0.8568,-1.2969,149.0,96.8,0.526
12.84,31742.2,34349.4,-0.9776,-1.6009,149.0,96.8,0.526
12.86,31927.9,34646.5,-0.2723,-0.8687,149.0,96.8,0.526
12.88,31967.3,34923.4,-0.1229,-0.1866,149.0,96.8,0.526
12.9,32152.8,35475.2,0.5819,1.1732,149.0,96.8,0.526
12.92,32309.0,35699.3,1.1753,1.7256,149.0,96.8,0.526
12.94,32332.8,35762.8,1.2654,1.8818,149.0,96.8,0.526
12.96,32330.5,35595.2,1.2569,1.469,149.0,96.8,0.526
12.98,32244.1,35500.2,0.9287,1.235,149.0,96.8,0.526
13.0,32052.5,35209.8,0.2008,0.5192,149.0,96.8,0.526
13.02,32056.3,35170.7,0.2154,0.4229,149.0,96.8,0.526
13.04,31899.9,35093.8,-0.3786,0.2335,149.0,96.8,0.526
13.06,32027.6,35055.3,0.1063,0.1386,149.0,96.8,0.526
13.08,31954.6,34978.8,-0.171,-0.0499,149.0,96.8,0.526
13.1,31943.9,34816.0,-0.2117,-0.451,149.0,96.8,0.526
13.12,31807.6,34635.1,-0.7295,-0.8969,149.0,96.8,0.526
13.14,31913.3,34643.0,-0.3279,-0.8774,149.0,96.8,0.526
13.16,31819.4,34640.8,-0.6846,-0.8828,149.0,96.8,0.526
13.18,31761.3,34599.8,-0.9053,-0.9839,149.0,96.8,0.526
13.2,31790.8,34540.6,-0.7931,-1.1297,149.0,96.8,0.526
13.22,31755.5,34521.4,-0.9275,-1.1771,149.0,96.8,0.526
13.24,31832.2,34483.3,-0.636,-1.2708,149.0,96.8,0.526
13.26,31830.0,34560.9,-0.6441,-1.0797,149.0,96.8,0.526
13.28,31960.6,34906.7,-0.1481,-0.2276,149.0,96.8,0.526
13.3,32146.2,35344.3,0.5566,0.8508,149.0,96.8,0.526
13.32,32268.2,35586.9,1.0203,1.4486,149.0,96.8,0.526
13.34,32458.5,35811.5,1.7429,2.002,149.0,96.8,0.526
13.36,32315.9,35658.0,1.2014,1.6238,149.0,96.8,0.526
13.38,32137.2,35518.6,0.5225,1.2801,149.0,96.8,0.526
13.4,32220.3,35304.5,0.8383,0.7527,149.0,96.8,0.526
13.42,32125.7,35158.7,0.4789,0.3934,149.0,96.8,0.526
13.44,32075.1,35077.6,0.2868,0.1934,149.0,96.8,0.526
13.46,32100.9,35102.7,0.3845,0.2555,149.0,96.8,0.526
13.48,32111.3,34923.5,0.4243,-0.1861,149.0,96.8,0.526
13.5,31893.4,34809.7,-0.4036,-0.4666,149.0,96.8,0.526
13.52,31878.9,34747.1,-0.4584,-0.621,149.0,96.8,0.526
13.54,31906.7,34693.7,-0.3529,-0.7525,149.0,96.8,0.526
13.56,31844.8,34738.3,-0.5881,-0.6426,149.0,96.8,0.526
13.58,31827.8,34675.5,-0.6528,-0.7973,149.0,96.8,0.526
13.6,31801.7,34577.4,-0.7518,-1.0389,149.0,96.8,0.526
13.62,31787.8,34425.6,-0.8047,-1.4131,149.0,96.8,0.526
13.64,31716.3,34528.4,-1.076,-1.1598,149.0,96.8,0.526
13.66,31794.2,34580.4,-0.7802,-1.0317,149.0,96.8,0.526
13.68,31942.4,34879.2,-0.2174,-0.2952,149.0,96.8,0.526
13.7,32028.0,35213.5,0.1077,0.5283,149.0,96.8,0.526
13.72,32285.3,35629.4,1.0852,1.5531,149.0,96.8,0.526
13.74,32341.0,35785.4,1.2965,1.9377,149.0,96.8,0.526
13.76,32395.1,35730.8,1.5023,1.8031,149.0,96.8,0.526
13.78,32169.0,35491.1,0.6432,1.2125,149.0,96.8,0.526
13.8,32154.1,35344.1,0.5866,0.8503,149.0,96.8,0.526
13.82,32095.0,35167.1,0.3622,0.4142,149.0,96.8,0.526
13.84,32089.7,35113.0,0.3423,0.2808,149.0,96.8,0.526
13.86,31972.0,35112.5,-0.1051,0.2795,149.0,96.8,0.526
13.88,32061.9,34993.5,0.2366,-0.0137,149.0,96.8,0.526
13.9,31932.1,34870.0,-0.2564,-0.3181,149.0,96.8,0.526
13.92,31879.9,34720.2,-0.4549,-0.6872,149.0,96.8,0.526
13.94,31816.6,34700.8,-0.6953,-0.735,149.0,96.8,0.526
13.96,31812.6,34663.4,-0.7104,-0.8272,149.0,96.8,0.526
13.98,31832.9,34676.6,-0.6332,-0.7946,149.0,96.8,0.526
14.0,31890.3,34637.3,-0.4152,-0.8914,149.0,96.8,0.526
14.02,31831.1,34529.8,-0.6402,-1.1563,149.0,96.8,0.526
14.04,31700.3,34502.2,-1.1368,-1.2242,149.0,96.8,0.526
14.06,31700.7,34607.0,-1.1354,-0.9661,149.0,96.8,0.526
14.08,31869.7,34863.7,-0.4936,-0.3336,149.0,96.8,0.526
14.1,32211.5,35214.1,0.8048,0.5299,149.0,96.8,0.526
14.12,32295.9,35540.1,1.1252,1.3333,149.0,96.8,0.526
14.14,32294.7,35679.5,1.1209,1.6767,149.0,96.8,0.526
14.16,32346.1,35757.7,1.3161,1.8695,149.0,96.8,0.526
14.18,32305.3,35537.9,1.161,1.3278,149.0,96.8,0.526
14.2,32134.4,35312.3,0.5118,0.7718,149.0,96.8,0.526
14.22,32080.9,35214.4,0.3086,0.5307,149.0,96.8,0.526
14.24,32035.8,35084.9,0.1375,0.2116,149.0,96.8,0.526
14.26,32090.0,35013.3,0.3434,0.0351,149.0,96.8,0.526
14.28,32016.9,34939.2,0.0656,-0.1475,149.0,96.8,0.526
14.3,31893.4,34919.9,-0.4033,-0.195,149.0,96.8,0.526
14.32,31890.3,34687.2,-0.4154,-0.7686,149.0,96.8,0.526
14.34,31836.4,34651.7,-0.62,-0.856,149.0,96.8,0.526
14.36,31857.2,34701.2,-0.5409,-0.734,149.0,96.8,0.526
14.38,31933.6,34650.0,-0.2507,-0.8601,149.0,96.8,0.526
14.4,31826.0,34558.8,-0.6595,-1.085,149.0,96.8,0.526
14.42,31705.5,34448.1,-1.1172,-1.3576,149.0,96.8,0.526
14.44,31703.3,34446.9,-1.1255,-1.3606,149.0,96.8,0.526
14.46,31780.7,34674.1,-0.8317,-0.8007,149.0,96.8,0.526
14.48,31897.8,34757.9,-0.3869,-0.5943,149.0,96.8,0.526
14.5,32101.1,35088.7,0.3853,0.2208,149.0,96.8,0.526
14.52,32317.7,35506.5,1.2082,1.2503,149.0,96.8,0.526
14.54,32388.9,35745.0,1.4784,1.838,149.0,96.8,0.526
14.56,32313.1,35798.7,1.1906,1.9703,149.0,96.8,0.526
14.58,32248.5,35548.3,0.9454,1.3535,149.0,96.8,0.526
14.6,32095.0,35387.7,0.3622,0.9577,149.0,96.8,0.526
14.62,32098.2,35231.9,0.3744,0.5738,149.0,96.8,0.526
14.64,32029.7,35127.3,0.1142,0.3161,149.0,96.8,0.526
14.66,32051.5,35054.8,0.1971,0.1374,149.0,96.8,0.526
14.68,32015.0,34990.8,0.0583,-0.0205,149.0,96.8,0.526
14.7,31920.6,34791.3,-0.3001,-0.5119,149.0,96.8,0.526
14.72,31869.3,34748.8,-0.4951,-0.6167,149.0,96.8,0.526
14.74,31831.4,34714.6,-0.639,-0.7009,149.0,96.8,0.526
14.76,31825.5,34671.5,-0.6614,-0.8071,149.0,96.8,0.526
14.78,31796.5,34658.4,-0.7715,-0.8394,149.0,96.8,0.526
14.8,31775.9,34643.5,-0.8499,-0.8761,149.0,96.8,0.526
14.82,31762.3,34544.7,-0.9013,-1.1197,149.0,96.8,0.526
14.84,31749.9,34449.7,-0.9484,-1.3537,149.0,96.8,0.526
14.86,31762.3,34622.4,-0.9014,-0.9281,149.0,96.8,0.526
14.88,31828.8,34699.9,-0.6488,-0.7372,149.0,96.8,0.526
14.9,32063.3,35084.7,0.242,0.2111,149.0,96.8,0.526
14.92,32225.5,35419.8,0.858,1.0366,149.0,96.8,0.526
14.94,32290.4,35686.0,1.1045,1.6927,149.0,96.8,0.526
14.96,32283.2,35763.8,1.0771,1.8845,149.0,96.8,0.526
14.98,32263.1,35703.4,1.0008,1.7355,149.0,96.8,0.526
15.0,32214.7,35366.3,0.8168,0.9049,149.0,96.8,0.526
15.02,32156.3,35236.1,0.5951,0.5841,149.0,96.8,0.526
15.04,32082.9,35125.7,0.3164,0.3122,149.0,96.8,0.526
15.06,32036.7,35135.3,0.1407,0.3356,149.0,96.8,0.526
15.08,31987.0,35015.3,-0.0481,0.0401,149.0,96.8,0.526
15.1,31951.6,34815.8,-0.1823,-0.4515,149.0,96.8,0.526
15.12,31836.6,34811.3,-0.6191,-0.4627,149.0,96.8,0.526
15.14,31806.1,34719.7,-0.7352,-0.6885,149.0,96.8,0.526
15.16,31915.1,34649.6,-0.3211,-0.8611,149.0,96.8,0.526
15.18,31831.3,34604.1,-0.6392,-0.9733,149.0,96.8,0.526
15.2,31815.8,34512.1,-0.6984,-1.2,149.0,96.8,0.526
15.22,31768.4,34496.9,-0.8785,-1.2374,149.0,96.8,0.526
15.24,31715.5,34451.7,-1.0791,-1.3488,149.0,96.8,0.526
15.26,31770.7,34463.1,-0.8697,-1.3206,149.0,96.8,0.526
15.28,31913.6,34637.7,-0.3266,-0.8904,149.0,96.8,0.526
15.3,31953.8,35022.7,-0.1741,0.0583,149.0,96.8,0.526
15.32,32155.6,35464.5,0.5924,1.1469,149.0,96.8,0.526
15.34,32380.8,35741.2,1.448,1.8287,149.0,96.8,0.526
15.36,32326.0,35710.0,1.2396,1.7517,149.0,96.8,0.526
15.38,32268.4,35664.6,1.0209,1.64,149.0,96.8,0.526
15.4,32275.9,35433.3,1.0493,1.07,149.0,96.8,0.526
15.42,32127.3,35279.4,0.4848,0.6909,149.0,96.8,0.526
15.44,32007.6,35172.5,0.0304,0.4273,149.0,96.8,0.526
15.46,32092.6,35050.4,0.3532,0.1264,149.0,96.8,0.526
15.48,32028.3,35003.8,0.1089,0.0117,149.0,96.8,0.526
15.5,31955.5,34925.4,-0.1676,-0.1815,149.0,96.8,0.526
15.52,31824.5,34789.3,-0.6651,-0.5169,149.0,96.8,0.526
15.54,31908.8,34848.2,-0.3449,-0.3718,149.0,96.8,0.526
15.56,31900.4,34802.1,-0.3768,-0.4852,149.0,96.8,0.526
15.58,31773.0,34603.3,-0.8606,-0.9753,149.0,96.8,0.526
15.6,31887.8,34641.5,-0.4247,-0.881,149.0,96.8,0.526
15.62,31747.9,34587.4,-0.9562,-1.0143,149.0,96.8,0.526
15.64,31738.2,34464.8,-0.9928,-1.3164,149.0,96.8,0.526
15.66,31660.3,34440.3,-1.2889,-1.3769,149.0,96.8,0.526
15.68,31861.0,34657.4,-0.5265,-0.842,149.0,96.8,0.526
15.7,32026.5,34965.8,0.1022,-0.0819,149.0,96.8,0.526
15.72,32130.3,35355.8,0.4964,0.8789,149.0,96.8,0.526
15.74,32333.0,35648.5,1.2661,1.6003,149.0,96.8,0.526
15.76,32358.2,35810.9,1.3621,2.0004,149.0,96.8,0.526
15.78,32237.8,35725.7,0.9046,1.7905,149.0,96.8,0.526
15.8,32201.0,35410.6,0.7647,1.0142,149.0,96.8,0.526
15.82,32070.3,35262.7,0.2685,0.6497,149.0,96.8,0.526
15.84,32023.7,35129.3,0.0916,0.321,149.0,96.8,0.526
15.86,32014.4,35020.0,0.0561,0.0515,149.0,96.8,0.526
15.88,32056.1,35070.5,0.2147,0.176,149.0,96.8,0.526
15.9,31993.2,35001.1,-0.0244,0.0051,149.0,96.8,0.526
15.92,31884.0,34778.8,-0.439,-0.5428,149.0,96.8,0.526
15.94,31802.1,34766.5,-0.7504,-0.573,149.0,96.8,0.526
15.96,31847.9,34707.7,-0.5765,-0.718,149.0,96.8,0.526
15.98,31827.5,34708.6,-0.6536,-0.7158,149.0,96.8,0.526
16.0,31905.9,34512.8,-0.3561,-1.1981,149.0,96.8,0.526
16.02,31770.6,34539.8,-0.87,-1.1316,149.0,96.8,0.526
16.04,31744.1,34580.8,-0.9705,-1.0307,149.0,96.8,0.526
16.06,31756.5,34430.6,-0.9233,-1.4008,149.0,96.8,0.526
16.08,31802.8,34617.4,-0.7474,-0.9405,149.0,96.8,0.526
16.1,31928.4,34924.5,-0.2707,-0.1838,149.0,96.8,0.526
16.12,32099.4,35285.6,0.3788,0.7061,149.0,96.8,0.526
16.14,32304.3,35728.7,1.1574,1.798,149.0,96.8,0.526
16.16,32313.4,35793.7,1.1916,1.958,149.0,96.8,0.526
16.18,32350.5,35622.3,1.3328,1.5358,149.0,96.8,0.526
16.2,32190.5,35511.9,0.7251,1.2636,149.0,96.8,0.526
16.22,32143.5,35382.0,0.5466,0.9435,149.0,96.8,0.526
16.24,32024.5,35025.1,0.0946,0.0642,149.0,96.8,0.526
16.26,32037.3,35020.3,0.143,0.0524,149.0,96.8,0.526
16.28,32127.1,35088.9,0.4843,0.2213,149.0,96.8,0.526
16.3,31999.0,34980.9,-0.0023,-0.0447,149.0,96.8,0.526
16.32,31879.0,34823.0,-0.4583,-0.4338,149.0,96.8,0.526
16.34,31841.4,34726.6,-0.601,-0.6714,149.0,96.8,0.526
16.36,31846.5,34773.6,-0.5816,-0.5556,149.0,96.8,0.526
16.38,31766.0,34657.7,-0.8875,-0.841,149.0,96.8,0.526
16.4,31871.3,34609.7,-0.4875,-0.9593,149.0,96.8,0.526
16.42,31761.2,34561.8,-0.9058,-1.0776,149.0,96.8,0.526
16.44,31799.5,34464.3,-0.7603,-1.3177,149.0,96.8,0.526
16.46,31830.8,34363.5,-0.6412,-1.5662,149.0,96.8,0.526
16.48,31794.2,34713.0,-0.7804,-0.7049,149.0,96.8,0.526
16.5,32032.7,34910.7,0.1258,-0.2177,149.0,96.8,0.526
16.52,32172.7,35199.8,0.6575,0.4946,149.0,96.8,0.526
16.54,32411.5,35654.8,1.5646,1.6157,149.0,96.8,0.526
16.56,32348.1,35709.0,1.3237,1.7493,149.0,96.8,0.526
16.58,32413.0,35731.2,1.5703,1.8041,149.0,96.8,0.526
16.6,32297.0,35462.8,1.1297,1.1426,149.0,96.8,0.526
16.62,32129.4,35220.3,0.4931,0.5452,149.0,96.8,0.526
16.64,32020.8,35173.8,0.0804,0.4305,149.0,96.8,0.526
16.66,32110.8,35104.2,0.4221,0.2592,149.0,96.8,0.526
16.68,32026.0,34996.3,0.1004,-0.0069,149.0,96.8,0.526
16.7,32031.8,34920.3,0.1221,-0.1941,149.0,96.8,0.526
16.72,31984.6,34860.7,-0.0572,-0.3409,149.0,96.8,0.526
16.74,31930.6,34796.9,-0.2621,-0.498,149.0,96.8,0.526
16.76,31853.3,34701.5,-0.5559,-0.7332,149.0,96.8,0.526
16.78,31763.8,34659.2,-0.8957,-0.8376,149.0,96.8,0.526
16.8,31830.7,34638.4,-0.6416,-0.8887,149.0,96.8,0.526
16.82,31844.8,34613.0,-0.5879,-0.9514,149.0,96.8,0.526
16.84,31771.7,34503.2,-0.8656,-1.222,149.0,96.8,0.526
16.86,31700.5,34415.4,-1.136,-1.4382,149.0,96.8,0.526
16.88,31713.5,34516.7,-1.0868,-1.1886,149.0,96.8,0.526
16.9,31905.8,34827.4,-0.3564,-0.4231,149.0,96.8,0.526
16.92,32060.0,35228.2,0.2294,0.5646,149.0,96.8,0.526
16.94,32373.4,35579.9,1.4199,1.4313,149.0,96.8,0.526
16.96,32425.1,35726.8,1.6162,1.7933,149.0,96.8,0.526
16.98,32385.0,35696.6,1.4637,1.7189,149.0,96.8,0.526
17.0,32185.6,35561.3,0.7066,1.3855,149.0,96.8,0.526
17.02,32176.2,35292.8,0.6707,0.7239,149.0,96.8,0.526
17.04,32083.4,35207.9,0.3183,0.5145,149.0,96.8,0.526
17.06,32065.9,35144.7,0.2516,0.3588,149.0,96.8,0.526
17.08,32042.5,35118.3,0.1627,0.2938,149.0,96.8,0.526
17.1,31972.5,34795.6,-0.1031,-0.5014,149.0,96.8,0.526
17.12,31896.0,34883.6,-0.3937,-0.2844,149.0,96.8,0.526
17.14,31939.5,34754.7,-0.2284,-0.6022,149.0,96.8,0.526
17.16,31827.0,34645.5,-0.6558,-0.8713,149.0,96.8,0.526
17.18,31861.8,34753.7,-0.5236,-0.6046,149.0,96.8,0.526
17.2,31807.9,34598.9,-0.7284,-0.9859,149.0,96.8,0.526
17.22,31838.4,34590.6,-0.6125,-1.0064,149.0,96.8,0.526
17.24,31831.8,34459.4,-0.6375,-1.3298,149.0,96.8,0.526
17.26,31798.0,34429.7,-0.7657,-1.403,149.0,96.8,0.526
17.28,31739.9,34598.4,-0.9866,-0.9874,149.0,96.8,0.526
17.3,31937.8,34821.2,-0.2348,-0.4383,149.0,96.8,0.526
17.32,32146.6,35143.9,0.5581,0.3569,149.0,96.8,0.526
17.34,32316.7,35640.0,1.2045,1.5792,149.0,96.8,0.526
17.36,32318.2,35727.9,1.2101,1.7958,149.0,96.8,0.526
17.38,32369.9,35763.7,1.4066,1.8841,149.0,96.8,0.526
17.4,32325.1,35629.8,1.2362,1.5541,149.0,96.8,0.526
17.42,32210.5,35406.7,0.8009,1.0044,149.0,96.8,0.526
17.44,32121.3,35162.9,0.4623,0.4038,149.0,96.8,0.526
17.46,32065.9,35219.3,0.2519,0.5427,149.0,96.8,0.526
17.48,32026.8,35094.4,0.1032,0.235,149.0,96.8,0.526
17.5,32010.0,35087.1,0.0395,0.2168,149.0,96.8,0.526
17.52,31873.1,34801.2,-0.4805,-0.4875,149.0,96.8,0.526
17.54,31944.6,34770.7,-0.209,-0.5626,149.0,96.8,0.526
17.56,31874.0,34648.4,-0.4771,-0.864,149.0,96.8,0.526
17.58,31824.7,34766.8,-0.6645,-0.5723,149.0,96.8,0.526
17.6,31787.8,34610.5,-0.8044,-0.9574,149.0,96.8,0.526
17.62,31825.4,34653.9,-0.6617,-0.8504,149.0,96.8,0.526
17.64,31689.9,34536.7,-1.1765,-1.1392,149.0,96.8,0.526
17.66,31735.6,34436.2,-1.0027,-1.3869,149.0,96.8,0.526
17.68,31841.3,34448.7,-0.6012,-1.3563,149.0,96.8,0.526
17.7,31852.9,34831.8,-0.5574,-0.4122,149.0,96.8,0.526
17.72,32074.3,35161.6,0.2835,0.4004,149.0,96.8,0.526
17.74,32311.2,35468.4,1.1835,1.1565,149.0,96.8,0.526
17.76,32332.9,35722.5,1.2659,1.7826,149.0,96.8,0.526
17.78,32356.0,35701.7,1.3537,1.7314,149.0,96.8,0.526
17.8,32295.6,35631.2,1.1241,1.5576,149.0,96.8,0.526
17.82,32272.4,35389.5,1.0363,0.9622,149.0,96.8,0.526
17.84,32112.6,35179.6,0.4292,0.4449,149.0,96.8,0.526
17.86,32033.1,34983.2,0.127,-0.0392,149.0,96.8,0.526
17.88,32008.2,35104.4,0.0324,0.2596,149.0,96.8,0.526
17.9,32045.0,34965.6,0.1725,-0.0824,149.0,96.8,0.526
17.92,31920.2,34879.1,-0.3017,-0.2955,149.0,96.8,0.526
17.94,31857.4,34834.9,-0.5403,-0.4045,149.0,96.8,0.526
17.96,31805.8,34601.1,-0.7363,-0.9807,149.0,96.8,0.526
17.98,31845.5,34614.6,-0.5853,-0.9473,149.0,96.8,0.526
18.0,31762.9,34632.9,-0.8993,-0.9024,149.0,96.8,0.526
18.02,31829.3,34580.5,-0.6469,-1.0313,149.0,96.8,0.526
18.04,31790.2,34526.7,-0.7955,-1.1639,149.0,96.8,0.526
18.06,31735.8,34429.8,-1.002,-1.4026,149.0,96.8,0.526
18.08,31714.7,34618.5,-1.0822,-0.9376,149.0,96.8,0.526
18.1,31845.7,34753.9,-0.5845,-0.6042,149.0,96.8,0.526
18.12,32056.4,35069.6,0.2156,0.1739,149.0,96.8,0.526
18.14,32139.3,35350.3,0.5305,0.8656,149.0,96.8,0.526
18.16,32386.9,35661.2,1.4709,1.6316,149.0,96.8,0.526
18.18,32405.7,35780.6,1.5425,1.9258,149.0,96.8,0.526
18.2,32233.7,35579.6,0.8893,1.4304,149.0,96.8,0.526
18.22,32258.4,35465.2,0.983,1.1486,149.0,96.8,0.526
18.24,32118.3,35264.6,0.4506,0.6542,149.0,96.8,0.526
18.26,32151.4,35103.5,0.5764,0.2574,149.0,96.8,0.526
18.28,32069.9,35126.9,0.2668,0.315,149.0,96.8,0.526
18.3,32052.7,34991.2,0.2015,-0.0194,149.0,96.8,0.526
18.32,32000.2,34964.1,0.0021,-0.0861,149.0,96.8,0.526
18.34,31919.8,34767.5,-0.3032,-0.5707,149.0,96.8,0.526
18.36,31870.2,34657.0,-0.4916,-0.843,149.0,96.8,0.526
18.38,31871.9,34720.4,-0.4852,-0.6868,149.0,96.8,0.526
18.4,31831.0,34627.5,-0.6404,-0.9156,149.0,96.8,0.526
18.42,31774.9,34704.6,-0.8538,-0.7256,149.0,96.8,0.526
18.44,31730.3,34537.7,-1.0229,-1.1368,149.0,96.8,0.526
18.46,31675.7,34522.5,-1.2304,-1.1744,149.0,96.8,0.526
18.48,31751.3,34452.4,-0.943,-1.3471,149.0,96.8,0.526
18.5,31807.0,34666.7,-0.7316,-0.8189,149.0,96.8,0.526
18.52,32040.9,35081.7,0.1569,0.2036,149.0,96.8,0.526
18.54,32235.2,35420.9,0.8947,1.0394,149.0,96.8,0.526
18.56,32331.8,35750.4,1.2616,1.8514,149.0,96.8,0.526
18.58,32328.8,35780.7,1.2502,1.926,149.0,96.8,0.526
18.6,32369.0,35641.1,1.4029,1.582,149.0,96.8,0.526
18.62,32279.5,35549.0,1.0632,1.3551,149.0,96.8,0.526
18.64,32122.6,35349.4,0.4671,0.8633,149.0,96.8,0.526
18.66,32100.5,35132.1,0.3831,0.3278,149.0,96.8,0.526
18.68,32002.2,35070.6,0.0097,0.1763,149.0,96.8,0.526
18.7,31976.3,35068.8,-0.0887,0.1718,149.0,96.8,0.526
18.72,31952.9,35010.5,-0.1774,0.0281,149.0,96.8,0.526
18.74,31844.0,34855.2,-0.591,-0.3545,149.0,96.8,0.526
18.76,31831.3,34746.2,-0.6394,-0.6231,149.0,96.8,0.526
18.78,31892.5,34541.1,-0.4069,-1.1284,149.0,96.8,0.526
18.8,31903.8,34606.9,-0.364,-0.9663,149.0,96.8,0.526
18.82,31879.7,34715.9,-0.4554,-0.6977,149.0,96.8,0.526
18.84,31824.2,34496.9,-0.6662,-1.2375,149.0,96.8,0.526
18.86,31757.2,34506.2,-0.9209,-1.2145,149.0,96.8,0.526
18.88,31680.8,34395.7,-1.2109,-1.4867,149.0,96.8,0.526
18.9,31846.4,34626.5,-0.5819,-0.918,149.0,96.8,0.526
18.92,32002.5,35021.1,0.0108,0.0544,149.0,96.8,0.526
18.94,32190.0,35269.3,0.723,0.6658,149.0,96.8,0.526
18.96,32341.7,35615.7,1.2993,1.5195,149.0,96.8,0.526
18.98,32283.2,35771.7,1.0769,1.9039,149.0,96.8,0.526
19.0,32296.1,35766.5,1.1261,1.891,149.0,96.8,0.526
19.02,32290.1,35448.9,1.1033,1.1085,149.0,96.8,0.526
19.04,32086.8,35308.8,0.3309,0.7633,149.0,96.8,0.526
19.06,32093.1,35115.8,0.3551,0.2877,149.0,96.8,0.526
19.08,32043.2,35023.6,0.1657,0.0604,149.0,96.8,0.526
19.1,31961.2,35020.0,-0.1459,0.0516,149.0,96.8,0.526
19.12,32054.3,34882.5,0.2078,-0.2871,149.0,96.8,0.526
19.14,31944.5,34874.6,-0.2094,-0.3067,149.0,96.8,0.526
19.16,31854.4,34747.3,-0.5517,-0.6205,149.0,96.8,0.526
19.18,31866.8,34647.9,-0.5044,-0.8653,149.0,96.8,0.526
19.2,31822.4,34626.0,-0.6731,-0.9192,149.0,96.8,0.526
19.22,31728.3,34708.0,-1.0307,-0.7172,149.0,96.8,0.526
19.24,31786.5,34554.5,-0.8094,-1.0954,149.0,96.8,0.526
19.26,31756.6,34455.6,-0.923,-1.3391,149.0,96.8,0.526
19.28,31649.8,34454.9,-1.3289,-1.3409,149.0,96.8,0.526
19.3,31736.3,34564.4,-1.0003,-1.0711,149.0,96.8,0.526
19.32,31946.9,34916.4,-0.2001,-0.2036,149.0,96.8,0.526
19.34,32187.3,35369.7,0.7127,0.9132,149.0,96.8,0.526
19.36,32282.8,35555.6,1.0755,1.3714,149.0,96.8,0.526
19.38,32341.9,35845.0,1.3001,2.0844,149.0,96.8,0.526
19.4,32396.0,35688.2,1.5056,1.6981,149.0,96.8,0.526
19.42,32169.7,35512.1,0.6459,1.2643,149.0,96.8,0.526
19.44,32198.1,35310.8,0.7538,0.7681,149.0,96.8,0.526
19.46,32128.3,35100.7,0.4886,0.2504,149.0,96.8,0.526
19.48,32026.5,35099.7,0.102,0.2479,149.0,96.8,0.526
19.5,31909.3,35126.6,-0.343,0.3142,149.0,96.8,0.526
19.52,31952.2,35015.5,-0.1803,0.0404,149.0,96.8,0.526
19.54,31853.7,34759.0,-0.5542,-0.5915,149.0,96.8,0.526
19.56,31913.0,34759.2,-0.3292,-0.5911,149.0,96.8,0.526
19.58,31903.9,34745.9,-0.3638,-0.6239,149.0,96.8,0.526
19.6,31851.3,34695.1,-0.5633,-0.7491,149.0,96.8,0.526
19.62,31819.7,34675.2,-0.6835,-0.7981,149.0,96.8,0.526
19.64,31804.6,34642.3,-0.7406,-0.8792,149.0,96.8,0.526
19.66,31765.6,34552.6,-0.8889,-1.1002,149.0,96.8,0.526
19.68,31662.9,34426.7,-1.2789,-1.4103,149.0,96.8,0.526
19.7,31809.0,34595.6,-0.7241,-0.9941,149.0,96.8,0.526
19.72,32042.8,34888.9,0.1639,-0.2715,149.0,96.8,0.526
19.74,32090.1,35190.4,0.3436,0.4715,149.0,96.8,0.526
19.76,32294.6,35594.1,1.1203,1.4662,149.0,96.8,0.526
19.78,32367.3,35703.5,1.3964,1.7359,149.0,96.8,0.526
19.8,32360.0,35779.4,1.3687,1.9228,149.0,96.8,0.526
19.82,32189.9,35515.5,0.7228,1.2725,149.0,96.8,0.526
19.84,32170.2,35346.1,0.6479,0.8552,149.0,96.8,0.526
19.86,32166.6,35297.4,0.6341,0.7352,149.0,96.8,0.526
19.88,31981.7,35056.3,-0.0682,0.141,149.0,96.8,0.526
19.9,32013.6,35077.8,0.053,0.1941,149.0,96.8,0.526
19.92,32012.2,35064.9,0.0477,0.1622,149.0,96.8,0.526
19.94,31823.5,34778.8,-0.6691,-0.5427,149.0,96.8,0.526
19.96,31927.7,34770.7,-0.2731,-0.5628,149.0,96.8,0.526
19.98,31798.8,34787.1,-0.7626,-0.5223,149.0,96.8,0.526
20.0,31695.5,34600.6,-1.1552,-0.9818,149.0,96.8,0.526
20.02,31887.4,34731.1,-0.4263,-0.6602,149.0,96.8,0.526
20.04,31785.4,34597.4,-0.8138,-0.9897,149.0,96.8,0.526
20.06,31780.3,34591.2,-0.8332,-1.0049,149.0,96.8,0.526
20.08,31690.3,34443.6,-1.1748,-1.3689,149.0,96.8,0.526
20.1,31743.8,34617.7,-0.9717,-0.9398,149.0,96.8,0.526
20.12,31980.6,34910.9,-0.0724,-0.2173,149.0,96.8,0.526
20.14,32135.6,35178.9,0.5166,0.4432,149.0,96.8,0.526
20.16,32343.0,35551.9,1.3042,1.3623,149.0,96.8,0.526
20.18,32408.5,35833.4,1.5531,2.0558,149.0,96.8,0.526
20.2,32395.8,35787.7,1.5046,1.9432,149.0,96.8,0.526
20.22,32324.3,35542.4,1.2334,1.3388,149.0,96.8,0.526
20.24,32155.1,35420.2,0.5904,1.0376,149.0,96.8,0.526
20.26,32067.1,35259.4,0.2563,0.6414,149.0,96.8,0.526
20.28,32037.7,35108.4,0.1445,0.2695,149.0,96.8,0.526
20.3,32056.1,35100.0,0.2145,0.2488,149.0,96.8,0.526
20.32,31931.8,34945.0,-0.2578,-0.1332,149.0,96.8,0.526
20.34,31947.8,34887.1,-0.1968,-0.276,149.0,96.8,0.526
20.36,31862.5,34723.6,-0.5209,-0.6789,149.0,96.8,0.526
20.38,31905.3,34720.8,-0.3583,-0.6858,149.0,96.8,0.526
20.4,31936.8,34698.0,-0.2387,-0.742,149.0,96.8,0.526
20.42,31898.7,34664.9,-0.3834,-0.8234,149.0,96.8,0.526
20.44,31857.4,34561.5,-0.5402,-1.0782,149.0,96.8,0.526
20.46,31726.7,34576.5,-1.0368,-1.0412,149.0,96.8,0.526
20.48,31726.1,34505.5,-1.0391,-1.2161,149.0,96.8,0.526
20.5,31879.9,34494.2,-0.4546,-1.2439,149.0,96.8,0.526
20.52,31889.2,34804.1,-0.4193,-0.4804,149.0,96.8,0.526
20.54,32082.4,35229.7,0.3143,0.5683,149.0,96.8,0.526
20.56,32204.9,35448.1,0.7795,1.1065,149.0,96.8,0.526
20.58,32408.6,35784.3,1.5536,1.935,149.0,96.8,0.526
20.6,32415.4,35661.7,1.5793,1.6327,149.0,96.8,0.526
20.62,32301.5,35592.8,1.1468,1.4631,149.0,96.8,0.526
20.64,32259.1,35295.3,0.9855,0.7301,149.0,96.8,0.526
20.66,32074.3,35211.9,0.2835,0.5246,149.0,96.8,0.526
20.68,32149.7,35213.3,0.5699,0.5279,149.0,96.8,0.526
20.7,32041.4,35100.8,0.1588,0.2506,149.0,96.8,0.526
20.72,31861.3,34947.1,-0.5255,-0.1281,149.0,96.8,0.526
20.74,31971.5,34780.0,-0.1068,-0.5399,149.0,96.8,0.526
20.76,31976.7,34739.1,-0.087,-0.6406,149.0,96.8,0.526
20.78,31905.6,34619.5,-0.3571,-0.9353,149.0,96.8,0.526
20.8,31858.4,34624.5,-0.5364,-0.9231,149.0,96.8,0.526
20.82,31900.7,34641.9,-0.3758,-0.88,149.0,96.8,0.526
20.84,31817.4,34659.7,-0.6921,-0.8362,149.0,96.8,0.526
20.86,31688.1,34503.2,-1.1833,-1.2219,149.0,96.8,0.526
20.88,31673.2,34488.2,-1.2399,-1.259,149.0,96.8,0.526
20.9,31685.3,34494.6,-1.1937,-1.243,149.0,96.8,0.526
20.92,31833.1,34763.1,-0.6325,-0.5813,149.0,96.8,0.526
20.94,32047.4,35020.7,0.1814,0.0532,149.0,96.8,0.526
20.96,32230.5,35509.4,0.8771,1.2575,149.0,96.8,0.526
20.98,32446.1,35745.7,1.6959,1.8399,149.0,96.8,0.526
21.0,32383.6,35798.0,1.4584,1.9686,149.0,96.8,0.526
21.02,32303.2,35584.0,1.1529,1.4413,149.0,96.8,0.526
21.04,32115.2,35420.0,0.4389,1.0372,149.0,96.8,0.526
21.06,32102.1,35159.3,0.3891,0.3948,149.0,96.8,0.526
21.08,32115.8,35087.4,0.4411,0.2176,149.0,96.8,0.526
21.1,32009.6,35119.7,0.0379,0.2972,149.0,96.8,0.526
21.12,31984.6,35056.2,-0.0572,0.1408,149.0,96.8,0.526
21.14,31962.5,34883.8,-0.1411,-0.284,149.0,96.8,0.526
21.16,31901.7,34865.4,-0.372,-0.3294,149.0,96.8,0.526
21.18,31808.5,34599.9,-0.726,-0.9836,149.0,96.8,0.526
21.2,31864.7,34597.8,-0.5127,-0.9888,149.0,96.8,0.526
21.22,31832.0,34637.5,-0.6369,-0.8908,149.0,96.8,0.526
21.24,31774.9,34643.1,-0.8536,-0.8771,149.0,96.8,0.526
21.26,31873.0,34501.0,-0.481,-1.2274,149.0,96.8,0.526
21.28,31719.8,34429.6,-1.063,-1.4033,149.0,96.8,0.526
21.3,31719.0,34452.6,-1.066,-1.3467,149.0,96.8,0.526
21.32,31844.9,34602.2,-0.5878,-0.9779,149.0,96.8,0.526
21.34,31954.3,34986.0,-0.1721,-0.0321,149.0,96.8,0.526
21.36,32275.5,35452.5,1.0477,1.1173,149.0,96.8,0.526
21.38,32355.5,35720.7,1.3517,1.7781,149.0,96.8,0.526
21.4,32452.1,35699.3,1.7188,1.7255,149.0,96.8,0.526
21.42,32328.2,35640.3,1.248,1.5801,149.0,96.8,0.526
21.44,32172.2,35470.2,0.6554,1.1609,149.0,96.8,0.526
21.46,32096.3,35292.7,0.3673,0.7236,149.0,96.8,0.526
21.48,32045.2,35119.7,0.1732,0.2972,149.0,96.8,0.526
21.5,32024.5,35115.1,0.0945,0.286,149.0,96.8,0.526
21.52,32004.4,34993.7,0.0181,-0.0132,149.0,96.8,0.526
21.54,32007.6,34902.1,0.0302,-0.239,149.0,96.8,0.526
21.56,31930.2,34788.4,-0.2636,-0.519,149.0,96.8,0.526
21.58,31856.5,34769.9,-0.5435,-0.5648,149.0,96.8,0.526
21.6,31776.4,34677.0,-0.8479,-0.7936,149.0,96.8,0.526
21.62,31727.9,34675.7,-1.032,-0.7969,149.0,96.8,0.526
21.64,31838.7,34561.4,-0.6111,-1.0785,149.0,96.8,0.526
21.66,31865.3,34537.4,-0.5102,-1.1376,149.0,96.8,0.526
21.68,31763.9,34460.1,-0.8956,-1.3281,149.0,96.8,0.526
21.7,31755.2,34376.7,-0.9283,-1.5336,149.0,96.8,0.526
21.72,31746.6,34545.0,-0.9613,-1.1188,149.0,96.8,0.526
21.74,31975.3,35010.0,-0.0925,0.0269,149.0,96.8,0.526
21.76,32152.2,35309.6,0.5797,0.7652,149.0,96.8,0.526
21.78,32309.7,35658.4,1.1777,1.6248,149.0,96.8,0.526
21.8,32357.5,35838.6,1.3595,2.0686,149.0,96.8,0.526
21.82,32402.1,35670.4,1.5289,1.6543,149.0,96.8,0.526
21.84,32203.6,35429.3,0.7747,1.0602,149.0,96.8,0.526
21.86,32156.2,35239.5,0.5945,0.5925,149.0,96.8,0.526
21.88,32127.3,35078.7,0.4849,0.1963,149.0,96.8,0.526
21.9,31988.3,35100.3,-0.0429,0.2495,149.0,96.8,0.526
21.92,31969.4,35015.0,-0.1149,0.0393,149.0,96.8,0.526
21.94,32025.2,34898.6,0.097,-0.2475,149.0,96.8,0.526
21.96,31952.4,34767.0,-0.1796,-0.5718,149.0,96.8,0.526
21.98,31830.7,34797.0,-0.6417,-0.4979,149.0,96.8,0.526
22.0,31863.7,34711.9,-0.5163,-0.7077,149.0,96.8,0.526
22.02,31856.6,34621.5,-0.5434,-0.9304,149.0,96.8,0.526
22.04,31852.6,34630.4,-0.5585,-0.9084,149.0,96.8,0.526
22.06,31710.9,34536.3,-1.0968,-1.1403,149.0,96.8,0.526
22.08,31704.4,34471.7,-1.1215,-1.2996,149.0,96.8,0.526
22.1,31764.8,34407.4,-0.8918,-1.458,149.0,96.8,0.526
22.12,31818.4,34649.0,-0.6885,-0.8626,149.0,96.8,0.526
22.14,31929.4,34909.5,-0.2668,-0.2208,149.0,96.8,0.526
22.16,32063.3,35296.4,0.2417,0.7327,149.0,96.8,0.526
22.18,32272.5,35507.0,1.0363,1.2517,149.0,96.8,0.526
22.2,32293.7,35755.9,1.1169,1.8648,149.0,96.8,0.526
22.22,32347.5,35705.8,1.3214,1.7414,149.0,96.8,0.526
22.24,32181.1,35458.3,0.6892,1.1316,149.0,96.8,0.526
22.26,32151.3,35209.2,0.576,0.5177,149.0,96.8,0.526
22.28,32054.0,35174.2,0.2066,0.4317,149.0,96.8,0.526
22.3,32062.6,35131.6,0.2392,0.3267,149.0,96.8,0.526
22.32,32043.4,34997.5,0.1661,-0.004,149.0,96.8,0.526
22.34,31973.9,35057.9,-0.0978,0.145,149.0,96.8,0.526
22.36,31947.3,34896.4,-0.1989,-0.2531,149.0,96.8,0.526
22.38,31886.3,34743.6,-0.4304,-0.6294,149.0,96.8,0.526
22.4,31856.1,34733.2,-0.5453,-0.6551,149.0,96.8,0.526
22.42,31803.6,34634.3,-0.7445,-0.8988,149.0,96.8,0.526
22.44,31822.3,34686.1,-0.6736,-0.7711,149.0,96.8,0.526
22.46,31842.0,34538.9,-0.5986,-1.1338,149.0,96.8,0.526
22.48,31777.6,34518.9,-0.8434,-1.1831,149.0,96.8,0.526
22.5,31789.2,34549.8,-0.7995,-1.1071,149.0,96.8,0.526
22.52,31814.1,34566.7,-0.7047,-1.0655,149.0,96.8,0.526
22.54,32029.1,34967.6,0.112,-0.0775,149.0,96.8,0.526
22.56,32144.1,35204.9,0.5486,0.5073,149.0,96.8,0.526
22.58,32357.2,35530.7,1.3583,1.3099,149.0,96.8,0.526
22.6,32403.5,35769.2,1.534,1.8978,149.0,96.8,0.526
22.62,32368.0,35645.9,1.3992,1.5939,149.0,96.8,0.526
22.64,32236.6,35444.6,0.9,1.0978,149.0,96.8,0.526
22.66,32223.0,35323.3,0.8484,0.799,149.0,96.8,0.526
22.68,32068.5,35171.1,0.2614,0.4239,149.0,96.8,0.526
22.7,31976.9,35074.2,-0.0861,0.1852,149.0,96.8,0.526
22.72,31999.6,35099.9,0.0,0.2485,149.0,96.8,0.526
22.74,31935.7,34949.4,-0.2429,-0.1223,149.0,96.8,0.526
22.76,31944.5,34897.6,-0.2093,-0.25,149.0,96.8,0.526
22.78,31908.8,34819.8,-0.345,-0.4418,149.0,96.8,0.526
22.8,31803.5,34667.9,-0.745,-0.8159,149.0,96.8,0.526
22.82,31902.6,34663.7,-0.3684,-0.8264,149.0,96.8,0.526
22.84,31893.7,34652.5,-0.4025,-0.854,149.0,96.8,0.526
22.86,31785.4,34560.7,-0.8139,-1.0802,149.0,96.8,0.526
22.88,31867.4,34474.0,-0.5021,-1.2939,149.0,96.8,0.526
22.9,31768.0,34393.8,-0.8799,-1.4914,149.0,96.8,0.526
22.92,31833.2,34550.2,-0.6323,-1.1061,149.0,96.8,0.526
22.94,31912.9,34892.7,-0.3295,-0.262,149.0,96.8,0.526
22.96,32074.3,35240.9,0.2837,0.5959,149.0,96.8,0.526
22.98,32326.6,35551.3,1.2419,1.3607,149.0,96.8,0.526
23.0,32462.6,35764.4,1.7584,1.8858,149.0,96.8,0.526
23.02,32407.6,35691.1,1.5497,1.7052,149.0,96.8,0.526
23.04,32211.2,35500.8,0.8037,1.2363,149.0,96.8,0.526
23.06,32119.2,35344.7,0.4544,0.8516,149.0,96.8,0.526
23.08,32110.2,35240.8,0.4198,0.5958,149.0,96.8,0.526
23.1,32030.6,35208.1,0.1177,0.5151,149.0,96.8,0.526
23.12,32073.2,35042.7,0.2796,0.1076,149.0,96.8,0.526
23.14,31867.5,35028.7,-0.5019,0.073,149.0,96.8,0.526
23.16,32011.4,34805.4,0.0447,-0.4771,149.0,96.8,0.526
23.18,31868.7,34704.0,-0.4974,-0.7272,149.0,96.8,0.526
23.2,31839.4,34683.9,-0.6084,-0.7765,149.0,96.8,0.526
23.22,31765.1,34685.0,-0.8907,-0.774,149.0,96.8,0.526
23.24,31887.0,34634.3,-0.4276,-0.8988,149.0,96.8,0.526
23.26,31765.4,34649.5,-0.8895,-0.8614,149.0,96.8,0.526
23.28,31722.2,34455.8,-1.0538,-1.3387,149.0,96.8,0.526
23.3,31702.0,34491.3,-1.1305,-1.2511,149.0,96.8,0.526
23.32,31620.4,34522.9,-1.4404,-1.1734,149.0,96.8,0.526
23.34,31832.3,34816.6,-0.6356,-0.4495,149.0,96.8,0.526
23.36,32061.8,35059.3,0.2361,0.1484,149.0,96.8,0.526
23.38,32289.9,35515.3,1.1024,1.2721,149.0,96.8,0.526
23.4,32375.2,35701.1,1.4266,1.73,149.0,96.8,0.526
23.42,32429.3,35706.6,1.6319,1.7435,149.0,96.8,0.526
23.44,32235.0,35616.3,0.8942,1.521,149.0,96.8,0.526
23.46,32133.1,35446.4,0.5071,1.1023,149.0,96.8,0.526
23.48,32064.9,35211.3,0.2478,0.523,149.0,96.8,0.526
23.5,32009.4,35145.1,0.0373,0.3597,149.0,96.8,0.526
23.52,32047.0,35020.4,0.1798,0.0525,149.0,96.8,0.526
23.54,32029.7,34977.4,0.1143,-0.0535,149.0,96.8,0.526
23.56,31970.7,34841.9,-0.11,-0.3873,149.0,96.8,0.526
23.58,31925.7,34770.1,-0.2806,-0.5643,149.0,96.8,0.526
23.6,31856.7,34612.2,-0.5428,-0.9533,149.0,96.8,0.526
23.62,31879.8,34709.1,-0.4553,-0.7145,149.0,96.8,0.526
23.64,31772.6,34594.8,-0.8625,-0.9962,149.0,96.8,0.526
23.66,31868.6,34623.7,-0.4977,-0.9249,149.0,96.8,0.526
23.68,31876.9,34567.4,-0.4662,-1.0636,149.0,96.8,0.526
23.7,31816.5,34372.1,-0.6957,-1.5449,149.0,96.8,0.526
23.72,31632.7,34415.7,-1.3937,-1.4374,149.0,96.8,0.526
23.74,31920.1,34806.3,-0.3022,-0.475,149.0,96.8,0.526
23.76,32013.7,35087.2,0.0534,0.2173,149.0,96.8,0.526
23.78,32166.3,35504.9,0.6331,1.2465,149.0,96.8,0.526
23.8,32421.0,35708.6,1.6005,1.7484,149.0,96.8,0.526
23.82,32306.9,35738.4,1.167,1.8217,149.0,96.8,0.526
23.84,32330.1,35599.7,1.2554,1.48,149.0,96.8,0.526
23.86,32132.2,35511.5,0.5034,1.2626,149.0,96.8,0.526
23.88,32089.6,35273.6,0.3416,0.6764,149.0,96.8,0.526
23.9,32029.7,35132.2,0.1144,0.328,149.0,96.8,0.526
23.92,32064.9,35122.3,0.2479,0.3036,149.0,96.8,0.526
23.94,31977.8,35065.7,-0.083,0.1641,149.0,96.8,0.526
23.96,32033.7,34845.6,0.1293,-0.3782,149.0,96.8,0.526
23.98,31927.4,34775.4,-0.2743,-0.5512,149.0,96.8,0.526
24.0,32002.4,34729.6,0.0104,-0.6641,149.0,96.8,0.526
24.02,31800.0,34701.2,-0.7581,-0.734,149.0,96.8,0.526
24.04,31782.7,34638.8,-0.8239,-0.8878,149.0,96.8,0.526
24.06,31747.0,34564.7,-0.9597,-1.0704,149.0,96.8,0.526
24.08,31814.0,34460.5,-0.7051,-1.327,149.0,96.8,0.526
24.1,31731.0,34540.5,-1.0205,-1.13,149.0,96.8,0.526
24.12,31838.4,34504.0,-0.6125,-1.2198,149.0,96.8,0.526
24.14,31864.1,34780.3,-0.5147,-0.5392,149.0,96.8,0.526
24.16,32089.9,35049.1,0.3428,0.1232,149.0,96.8,0.526
24.18,32214.3,35429.6,0.8155,1.0609,149.0,96.8,0.526
24.2,32283.8,35735.0,1.0796,1.8134,149.0,96.8,0.526
24.22,32343.9,35785.2,1.3078,1.9372,149.0,96.8,0.526
24.24,32322.6,35616.6,1.2266,1.5217,149.0,96.8,0.526
24.26,32310.5,35482.1,1.1808,1.1904,149.0,96.8,0.526
24.28,32084.8,35248.4,0.3235,0.6143,149.0,96.8,0.526
24.3,32072.9,35060.9,0.2782,0.1523,149.0,96.8,0.526
24.32,32046.5,35106.8,0.1779,0.2656,149.0,96.8,0.526
24.34,32012.3,35014.4,0.048,0.0379,149.0,96.8,0.526
24.36,31996.6,34911.1,-0.0114,-0.2169,149.0,96.8,0.526
24.38,31877.4,34808.3,-0.4641,-0.4702,149.0,96.8,0.526
24.4,31850.9,34696.0,-0.5648,-0.7467,149.0,96.8,0.526
24.42,31855.4,34612.1,-0.5477,-0.9536,149.0,96.8,0.526
24.44,31867.1,34678.0,-0.5035,-0.7911,149.0,96.8,0.526
24.46,31852.2,34639.8,-0.56,-0.8852,149.0,96.8,0.526
24.48,31786.3,34495.0,-0.8104,-1.242,149.0,96.8,0.526
24.5,31760.5,34465.5,-0.9085,-1.3148,149.0,96.8,0.526
24.52,31794.3,34496.0,-0.7801,-1.2396,149.0,96.8,0.526
24.54,31898.0,34642.9,-0.3859,-0.8775,149.0,96.8,0.526
24.56,32003.7,34934.9,0.0155,-0.158,149.0,96.8,0.526
24.58,32178.1,35414.3,0.6777,1.0232,149.0,96.8,0.526
24.6,32396.2,35627.1,1.5063,1.5476,149.0,96.8,0.526
24.62,32419.4,35820.7,1.5945,2.0246,149.0,96.8,0.526
24.64,32284.8,35698.6,1.0831,1.7236,149.0,96.8,0.526
24.66,32206.4,35541.8,0.7853,1.3373,149.0,96.8,0.526
24.68,32101.3,35178.4,0.3863,0.4419,149.0,96.8,0.526
24.7,32038.9,35250.0,0.1491,0.6182,149.0,96.8,0.526
24.72,32124.6,34987.3,0.4745,-0.0289,149.0,96.8,0.526
24.74,31940.3,34906.4,-0.2254,-0.2283,149.0,96.8,0.526
24.76,31948.7,34944.6,-0.1936,-0.1342,149.0,96.8,0.526
24.78,31911.2,34859.4,-0.336,-0.344,149.0,96.8,0.526
24.8,31829.9,34741.4,-0.6445,-0.6348,149.0,96.8,0.526
24.82,31909.3,34673.6,-0.343,-0.802,149.0,96.8,0.526
24.84,31858.1,34638.9,-0.5377,-0.8875,149.0,96.8,0.526
24.86,31881.1,34593.1,-0.45,-1.0004,149.0,96.8,0.526
24.88,31794.2,34514.4,-0.7801,-1.1942,149.0,96.8,0.526
24.9,31769.3,34466.8,-0.8748,-1.3116,149.0,96.8,0.526
24.92,31707.1,34401.0,-1.111,-1.4737,149.0,96.8,0.526
24.94,31812.6,34652.6,-0.7103,-0.8537,149.0,96.8,0.526
24.96,31901.3,34938.2,-0.3736,-0.15,149.0,96.8,0.526
24.98,32104.8,35341.6,0.3995,0.844,149.0,96.8,0.526
25.0,32317.3,35669.3,1.2068,1.6516,149.0,96.8,0.526
25.02,32378.8,35805.9,1.4402,1.9881,149.0,96.8,0.526
25.04,32354.5,35694.9,1.3478,1.7146,149.0,96.8,0.526
25.06,32117.5,35577.4,0.4479,1.4251,149.0,96.8,0.526
25.08,32266.2,35287.4,1.0127,0.7105,149.0,96.8,0.526
25.1,32117.5,35179.4,0.4478,0.4445,149.0,96.8,0.526
25.12,32071.9,35049.2,0.2744,0.1234,149.0,96.8,0.526
25.14,32046.2,35074.1,0.1768,0.1849,149.0,96.8,0.526
25.16,32000.6,34938.4,0.0036,-0.1495,149.0,96.8,0.526
25.18,31906.1,34823.8,-0.3554,-0.4318,149.0,96.8,0.526
25.2,31829.9,34740.9,-0.6445,-0.6361,149.0,96.8,0.526
25.22,31795.4,34687.8,-0.7759,-0.767,149.0,96.8,0.526
25.24,31831.1,34633.1,-0.6401,-0.9017,149.0,96.8,0.526
25.26,31882.5,34658.8,-0.4448,-0.8386,149.0,96.8,0.526
25.28,31836.1,34610.5,-0.621,-0.9575,149.0,96.8,0.526
25.3,31746.5,34505.8,-0.9616,-1.2155,149.0,96.8,0.526
25.32,31590.4,34513.5,-1.5545,-1.1964,149.0,96.8,0.526
25.34,31868.1,34618.9,-0.4997,-0.9367,149.0,96.8,0.526
25.36,31878.8,34883.8,-0.4589,-0.2839,149.0,96.8,0.526
25.38,32169.8,35213.3,0.6463,0.528,149.0,96.8,0.526
25.4,32284.3,35641.3,1.0811,1.5826,149.0,96.8,0.526
25.42,32355.9,35774.8,1.3531,1.9114,149.0,96.8,0.526
25.44,32311.9,35679.3,1.1861,1.6762,149.0,96.8,0.526
25.46,32302.9,35557.5,1.1518,1.3762,149.0,96.8,0.526
25.48,32126.6,35357.4,0.4822,0.8831,149.0,96.8,0.526
25.5,32085.4,35201.0,0.3259,0.4977,149.0,96.8,0.526
25.52,31977.3,35154.0,-0.0847,0.3818,149.0,96.8,0.526
25.54,31988.6,34993.0,-0.0419,-0.015,149.0,96.8,0.526
25.56,31991.4,34952.8,-0.0311,-0.1139,149.0,96.8,0.526
25.58,31960.4,34839.5,-0.1491,-0.3932,149.0,96.8,0.526
25.6,31916.2,34810.4,-0.3169,-0.465,149.0,96.8,0.526
25.62,31897.3,34626.0,-0.3888,-0.9193,149.0,96.8,0.526
25.64,31849.2,34690.8,-0.5714,-0.7596,149.0,96.8,0.526
25.66,31869.9,34644.8,-0.4929,-0.8731,149.0,96.8,0.526
25.68,31847.6,34647.5,-0.5775,-0.8664,149.0,96.8,0.526
25.7,31757.6,34414.0,-0.9192,-1.4417,149.0,96.8,0.526
25.72,31728.6,34478.7,-1.0296,-1.2823,149.0,96.8,0.526
25.74,31689.7,34459.7,-1.1774,-1.3289,149.0,96.8,0.526
25.76,31943.7,34865.1,-0.2125,-0.3302,149.0,96.8,0.526
25.78,32123.5,35203.1,0.4706,0.5028,149.0,96.8,0.526
25.8,32304.1,35487.0,1.1567,1.2024,149.0,96.8,0.526
25.82,32312.4,35762.3,1.1879,1.8808,149.0,96.8,0.526
25.84,32286.8,35696.1,1.0909,1.7177,149.0,96.8,0.526
25.86,32290.4,35567.3,1.1043,1.4003,149.0,96.8,0.526
25.88,32127.9,35418.1,0.4873,1.0326,149.0,96.8,0.526
25.9,32062.8,35151.4,0.24,0.3753,149.0,96.8,0.526
25.92,32033.2,35122.2,0.1274,0.3035,149.0,96.8,0.526
25.94,31997.9,34988.4,-0.0067,-0.0262,149.0,96.8,0.526
25.96,31959.9,34959.8,-0.1508,-0.0966,149.0,96.8,0.526
25.98,31984.7,34817.6,-0.0565,-0.4472,149.0,96.8,0.526
26.0,31892.4,34776.5,-0.4074,-0.5485,149.0,96.8,0.526
26.02,31826.3,34823.8,-0.6584,-0.4319,149.0,96.8,0.526
26.04,31812.4,34747.4,-0.7113,-0.6202,149.0,96.8,0.526
26.06,31784.8,34751.4,-0.8159,-0.6103,149.0,96.8,0.526
26.08,31853.9,34719.6,-0.5537,-0.6887,149.0,96.8,0.526
26.1,31745.4,34540.0,-0.9658,-1.1313,149.0,96.8,0.526
26.12,31780.0,34427.3,-0.8342,-1.409,149.0,96.8,0.526
26.14,31729.6,34481.0,-1.0255,-1.2765,149.0,96.8,0.526
26.16,31864.8,34820.7,-0.5123,-0.4395,149.0,96.8,0.526
26.18,32102.4,35086.6,0.3905,0.2158,149.0,96.8,0.526
26.2,32254.6,35478.9,0.9685,1.1824,149.0,96.8,0.526
26.22,32351.0,35695.7,1.3347,1.7167,149.0,96.8,0.526
26.24,32378.7,35620.9,1.4398,1.5323,149.0,96.8,0.526
26.26,32337.8,35545.0,1.2844,1.3453,149.0,96.8,0.526
26.28,32250.2,35345.9,0.9516,0.8547,149.0,96.8,0.526
26.3,32050.2,35172.9,0.1922,0.4284,149.0,96.8,0.526
26.32,31978.6,35087.1,-0.0798,0.2169,149.0,96.8,0.526
26.34,31988.5,35051.6,-0.0422,0.1295,149.0,96.8,0.526
26.36,32035.2,34959.5,0.1353,-0.0975,149.0,96.8,0.526
26.38,32007.1,34828.8,0.0285,-0.4196,149.0,96.8,0.526
26.4,31920.9,34894.3,-0.299,-0.2582,149.0,96.8,0.526
26.42,31797.2,34668.3,-0.7689,-0.815,149.0,96.8,0.526
26.44,31819.4,34769.1,-0.6845,-0.5666,149.0,96.8,0.526
26.46,31842.3,34715.1,-0.5976,-0.6996,149.0,96.8,0.526
26.48,31776.5,34606.9,-0.8474,-0.9663,149.0,96.8,0.526
26.5,31628.6,34438.9,-1.4093,-1.3803,149.0,96.8,0.526
26.52,31749.1,34409.8,-0.9517,-1.452,149.0,96.8,0.526
26.54,31845.1,34495.7,-0.5868,-1.2404,149.0,96.8,0.526
26.56,31861.3,34794.1,-0.5255,-0.505,149.0,96.8,0.526
26.58,32029.9,35165.4,0.115,0.4098,149.0,96.8,0.526
26.6,32246.9,35532.0,0.9394,1.3132,149.0,96.8,0.526
26.62,32449.8,35648.6,1.7098,1.6006,149.0,96.8,0.526
26.64,32323.8,35718.9,1.2314,1.7739,149.0,96.8,0.526
26.66,32255.4,35499.2,0.9716,1.2324,149.0,96.8,0.526
26.68,32178.9,35303.3,0.6809,0.7496,149.0,96.8,0.526
26.7,32043.5,35253.1,0.1667,0.626,149.0,96.8,0.526
26.72,31978.3,35074.7,-0.0811,0.1864,149.0,96.8,0.526
26.74,32028.6,35092.2,0.1101,0.2296,149.0,96.8,0.526
26.76,32010.0,35093.0,0.0396,0.2315,149.0,96.8,0.526
26.78,32024.2,34976.4,0.0934,-0.0558,149.0,96.8,0.526
26.8,31820.5,34775.7,-0.6803,-0.5504,149.0,96.8,0.526
26.82,31850.2,34750.7,-0.5674,-0.6119,149.0,96.8,0.526
26.84,31791.7,34707.8,-0.7897,-0.7178,149.0,96.8,0.526
26.86,31926.3,34704.8,-0.2784,-0.725,149.0,96.8,0.526
26.88,31834.1,34568.7,-0.6288,-1.0604,149.0,96.8,0.526
26.9,31801.0,34425.9,-0.7546,-1.4123,149.0,96.8,0.526
26.92,31659.5,34419.5,-1.2919,-1.4281,149.0,96.8,0.526
26.94,31743.6,34498.0,-0.9726,-1.2347,149.0,96.8,0.526
26.96,31878.3,34639.0,-0.461,-0.8873,149.0,96.8,0.526
26.98,32022.1,34968.5,0.0852,-0.0754,149.0,96.8,0.526
27.0,32268.1,35455.7,1.0198,1.1253,149.0,96.8,0.526
27.02,32295.6,35685.9,1.1242,1.6925,149.0,96.8,0.526
27.04,32341.8,35689.1,1.2997,1.7003,149.0,96.8,0.526
27.06,32332.5,35719.2,1.2643,1.7745,149.0,96.8,0.526
27.08,32254.0,35497.2,0.9662,1.2274,149.0,96.8,0.526
27.1,32128.8,35272.8,0.4908,0.6746,149.0,96.8,0.526
27.12,32017.4,35087.4,0.0674,0.2177,149.0,96.8,0.526
27.14,32018.3,35059.8,0.0711,0.1496,149.0,96.8,0.526
27.16,32029.4,34966.8,0.1131,-0.0795,149.0,96.8,0.526
27.18,31962.6,34971.0,-0.1407,-0.0692,149.0,96.8,0.526
27.2,31871.0,34875.3,-0.4886,-0.3049,149.0,96.8,0.526
27.22,31797.5,34680.3,-0.7678,-0.7855,149.0,96.8,0.526
27.24,31891.1,34668.2,-0.4123,-0.8153,149.0,96.8,0.526
27.26,31780.1,34604.1,-0.8339,-0.9734,149.0,96.8,0.526
27.28,31845.4,34483.7,-0.5859,-1.2699,149.0,96.8,0.526
27.3,31805.2,34553.3,-0.7385,-1.0985,149.0,96.8,0.526
27.32,31747.6,34347.0,-0.9573,-1.6068,149.0,96.8,0.526
27.34,31682.7,34499.9,-1.2038,-1.2299,149.0,96.8,0.526
27.36,31908.0,34558.0,-0.3481,-1.0868,149.0,96.8,0.526
27.38,31977.1,34902.4,-0.0856,-0.2381,149.0,96.8,0.526
27.4,32138.0,35367.2,0.5256,0.9071,149.0,96.8,0.526
27.42,32360.7,35659.3,1.3715,1.6269,149.0,96.8,0.526
27.44,32430.2,35753.8,1.6356,1.8598,149.0,96.8,0.526
27.46,32292.4,35617.6,1.1119,1.524,149.0,96.8,0.526
27.48,32250.7,35401.1,0.9537,0.9908,149.0,96.8,0.526
27.5,32045.2,35284.6,0.1732,0.7037,149.0,96.8,0.526
27.52,31998.2,35166.8,-0.0056,0.4134,149.0,96.8,0.526
27.54,32029.9,35093.6,0.1151,0.2329,149.0,96.8,0.526
27.56,31987.3,34996.1,-0.0466,-0.0073,149.0,96.8,0.526
27.58,32008.9,34942.8,0.0351,-0.1386,149.0,96.8,0.526
27.6,31921.3,34828.1,-0.2977,-0.4212,149.0,96.8,0.526
27.62,31729.9,34760.9,-1.0244,-0.5868,149.0,96.8,0.526
27.64,31754.4,34661.5,-0.9313,-0.8318,149.0,96.8,0.526
27.66,31902.8,34611.6,-0.368,-0.9548,149.0,96.8,0.526
27.68,31821.9,34621.1,-0.6752,-0.9312,149.0,96.8,0.526
27.7,31830.2,34563.1,-0.6434,-1.0741,149.0,96.8,0.526
27.72,31705.3,34504.8,-1.118,-1.218,149.0,96.8,0.526
27.74,31705.7,34419.2,-1.1164,-1.4289,149.0,96.8,0.526
27.76,31791.0,34613.6,-0.7923,-0.9498,149.0,96.8,0.526
27.78,32063.4,34960.3,0.2424,-0.0955,149.0,96.8,0.526
27.8,32125.2,35238.5,0.4772,0.59,149.0,96.8,0.526
27.82,32329.7,35663.4,1.2537,1.6369,149.0,96.8,0.526
27.84,32306.4,35763.2,1.1654,1.883,149.0,96.8,0.526
27.86,32295.4,35744.1,1.1233,1.8358,149.0,96.8,0.526
27.88,32209.6,35542.8,0.7974,1.3398,149.0,96.8,0.526
27.9,32084.4,35289.4,0.3218,0.7154,149.0,96.8,0.526
27.92,32062.7,35287.1,0.2396,0.7097,149.0,96.8,0.526
27.94,32040.1,35061.4,0.1537,0.1537,149.0,96.8,0.526
27.96,32100.8,35095.7,0.3842,0.2381,149.0,96.8,0.526
27.98,31933.6,34963.4,-0.2508,-0.0879,149.0,96.8,0.526
28.0,31975.1,34777.2,-0.0931,-0.5468,149.0,96.8,0.526
28.02,31862.4,34726.9,-0.5214,-0.6707,149.0,96.8,0.526
28.04,31863.1,34701.1,-0.5185,-0.7342,149.0,96.8,0.526
28.06,31875.3,34754.3,-0.4723,-0.6031,149.0,96.8,0.526
28.08,31867.6,34513.4,-0.5015,-1.1966,149.0,96.8,0.526
28.1,31776.1,34590.3,-0.8492,-1.0072,149.0,96.8,0.526
28.12,31816.4,34492.9,-0.6961,-1.2474,149.0,96.8,0.526
28.14,31791.4,34503.2,-0.7909,-1.2219,149.0,96.8,0.526
28.16,31848.5,34558.9,-0.5739,-1.0847,149.0,96.8,0.526
28.18,31942.7,34828.8,-0.2163,-0.4197,149.0,96.8,0.526
28.2,32110.9,35079.6,0.4227,0.1984,149.0,96.8,0.526
28.22,32270.0,35654.9,1.0268,1.6161,149.0,96.8,0.526
28.24,32439.3,35746.6,1.67,1.8421,149.0,96.8,0.526
28.26,32364.3,35684.9,1.3851,1.6899,149.0,96.8,0.526
28.28,32202.9,35540.5,0.7721,1.3341,149.0,96.8,0.526
28.3,32243.1,35391.1,0.925,0.966,149.0,96.8,0.526
28.32,32099.0,35182.7,0.3775,0.4524,149.0,96.8,0.526
28.34,32142.0,35120.0,0.5409,0.298,149.0,96.8,0.526
28.36,32041.1,35059.1,0.1576,0.148,149.0,96.8,0.526
28.38,32020.2,34999.6,0.0782,0.0013,149.0,96.8,0.526
28.4,31905.1,34844.4,-0.3589,-0.3811,149.0,96.8,0.526
28.42,31949.6,34763.3,-0.1901,-0.5809,149.0,96.8,0.526
28.44,31952.2,34601.1,-0.1803,-0.9806,149.0,96.8,0.526
28.46,31814.4,34596.7,-0.7034,-0.9914,149.0,96.8,0.526
28.48,31858.4,34544.8,-0.5364,-1.1194,149.0,96.8,0.526
28.5,31804.4,34559.1,-0.7415,-1.0841,149.0,96.8,0.526
28.52,31794.4,34382.9,-0.7794,-1.5183,149.0,96.8,0.526
28.54,31798.8,34470.1,-0.7626,-1.3035,149.0,96.8,0.526
28.56,31714.9,34641.9,-1.0815,-0.8802,149.0,96.8,0.526
28.58,31831.4,34828.4,-0.6389,-0.4206,149.0,96.8,0.526
28.6,32035.6,35271.3,0.1366,0.6708,149.0,96.8,0.526
28.62,32226.0,35518.6,0.8599,1.2801,149.0,96.8,0.526
28.64,32356.9,35701.5,1.3569,1.7308,149.0,96.8,0.526
28.66,32324.4,35771.8,1.2337,1.9042,149.0,96.8,0.526
28.68,32291.7,35543.6,1.1095,1.3418,149.0,96.8,0.526
28.7,32166.4,35349.5,0.6336,0.8635,149.0,96.8,0.526
28.72,32113.4,35147.7,0.4322,0.3662,149.0,96.8,0.526
28.74,32053.0,35135.6,0.2029,0.3365,149.0,96.8,0.526
28.76,32010.8,35019.4,0.0423,0.0502,149.0,96.8,0.526
28.78,31945.8,35051.0,-0.2045,0.128,149.0,96.8,0.526
28.8,31876.4,34844.3,-0.468,-0.3814,149.0,96.8,0.526
28.82,31917.9,34782.9,-0.3105,-0.5325,149.0,96.8,0.526
28.84,31859.3,34643.1,-0.5329,-0.8771,149.0,96.8,0.526
28.86,31788.5,34689.4,-0.8021,-0.7629,149.0,96.8,0.526
28.88,31850.4,34559.3,-0.5669,-1.0835,149.0,96.8,0.526
28.9,31785.5,34491.2,-0.8134,-1.2515,149.0,96.8,0.526
28.92,31723.5,34518.4,-1.049,-1.1844,149.0,96.8,0.526
28.94,31744.4,34497.9,-0.9694,-1.235,149.0,96.8,0.526
28.96,31804.5,34574.2,-0.7413,-1.047,149.0,96.8,0.526
28.98,31892.5,34835.0,-0.4068,-0.4044,149.0,96.8,0.526
29.0,32084.8,35159.9,0.3234,0.3962,149.0,96.8,0.526
29.02,32267.3,35500.3,1.0169,1.2351,149.0,96.8,0.526
29.04,32356.4,35768.2,1.3553,1.8953,149.0,96.8,0.526
29.06,32416.9,35757.6,1.5849,1.8692,149.0,96.8,0.526
29.08,32264.7,35548.8,1.007,1.3546,149.0,96.8,0.526
29.1,32175.3,35315.6,0.6674,0.78,149.0,96.8,0.526
29.12,32050.7,35197.1,0.1939,0.4879,149.0,96.8,0.526
29.14,32044.5,35123.1,0.1703,0.3057,149.0,96.8,0.526
29.16,32052.9,35062.2,0.2024,0.1556,149.0,96.8,0.526
29.18,32006.2,35023.7,0.025,0.0608,149.0,96.8,0.526
29.2,31961.0,34822.7,-0.1467,-0.4347,149.0,96.8,0.526
29.22,31877.6,34845.5,-0.4637,-0.3784,149.0,96.8,0.526
29.24,31950.2,34784.5,-0.1876,-0.5288,149.0,96.8,0.526
29.26,31831.0,34706.1,-0.6404,-0.7219,149.0,96.8,0.526
29.28,31853.2,34697.9,-0.5564,-0.7422,149.0,96.8,0.526
29.3,31762.6,34615.9,-0.9005,-0.9442,149.0,96.8,0.526
29.32,31758.7,34513.0,-0.9151,-1.1977,149.0,96.8,0.526
29.34,31717.4,34546.6,-1.0722,-1.115,149.0,96.8,0.526
29.36,31709.6,34537.9,-1.1015,-1.1364,149.0,96.8,0.526
29.38,31763.1,34752.1,-0.8982,-0.6086,149.0,96.8,0.526
29.4,32138.1,35156.4,0.5259,0.3878,149.0,96.8,0.526
29.42,32207.7,35455.9,0.7904,1.1257,149.0,96.8,0.526
29.44,32374.1,35686.6,1.4222,1.6942,149.0,96.8,0.526
29.46,32372.7,35724.8,1.4171,1.7882,149.0,96.8,0.526
29.48,32297.5,35648.9,1.1313,1.6012,149.0,96.8,0.526
29.5,32141.8,35422.2,0.54,1.0427,149.0,96.8,0.526
29.52,32091.7,35210.1,0.3499,0.52,149.0,96.8,0.526
29.54,32022.5,35153.1,0.0868,0.3796,149.0,96.8,0.526
29.56,32080.7,35016.6,0.3079,0.0432,149.0,96.8,0.526
29.58,32043.6,34980.6,0.167,-0.0455,149.0,96.8,0.526
29.6,31974.6,34912.0,-0.0952,-0.2146,149.0,96.8,0.526
29.62,31819.1,34788.8,-0.6857,-0.5181,149.0,96.8,0.526
29.64,31883.8,34736.4,-0.4399,-0.6471,149.0,96.8,0.526
29.66,31807.1,34653.0,-0.7312,-0.8528,149.0,96.8,0.526
29.68,31833.0,34702.9,-0.6327,-0.7298,149.0,96.8,0.526
29.7,31834.0,34606.1,-0.629,-0.9683,149.0,96.8,0.526
29.72,31704.3,34576.4,-1.1218,-1.0416,149.0,96.8,0.526
29.74,31745.2,34470.8,-0.9666,-1.3017,149.0,96.8,0.526
29.76,31798.2,34477.6,-0.7651,-1.2849,149.0,96.8,0.526
29.78,31853.1,34724.9,-0.5567,-0.6756,149.0,96.8,0.526
29.8,31939.3,35038.8,-0.2293,0.0979,149.0,96.8,0.526
29.82,32225.4,35377.9,0.8574,0.9335,149.0,96.8,0.526
29.84,32277.4,35622.7,1.0551,1.5367,149.0,96.8,0.526
29.86,32425.4,35694.9,1.6173,1.7147,149.0,96.8,0.526
29.88,32289.6,35633.4,1.1013,1.5631,149.0,96.8,0.526
29.9,32093.9,35422.2,0.3581,1.0428,149.0,96.8,0.526
29.92,32134.6,35251.4,0.5125,0.6217,149.0,96.8,0.526
29.94,32037.5,35104.4,0.1439,0.2595,149.0,96.8,0.526
29.96,32122.0,35119.8,0.465,0.2975,149.0,96.8,0.526
29.98,32014.8,35046.2,0.0575,0.1162,149.0,96.8,0.526
30.0,31936.8,34983.4,-0.2386,-0.0385,149.0,96.8,0.526
30.02,31901.1,34694.2,-0.3742,-0.7511,149.0,96.8,0.526
30.04,31861.4,34722.5,-0.5252,-0.6815,149.0,96.8,0.526
30.06,31784.7,34693.7,-0.8164,-0.7525,149.0,96.8,0.526
30.08,31843.4,34685.7,-0.5933,-0.7721,149.0,96.8,0.526
30.1,31886.0,34554.4,-0.4318,-1.0957,149.0,96.8,0.526
30.12,31735.2,34545.4,-1.0045,-1.1179,149.0,96.8,0.526
30.14,31695.6,34394.0,-1.1546,-1.4909,149.0,96.8,0.526
30.16,31762.9,34461.0,-0.8991,-1.3258,149.0,96.8,0.526
30.18,31847.6,34577.4,-0.5776,-1.0391,149.0,96.8,0.526
30.2,31942.6,34967.8,-0.2166,-0.0771,149.0,96.8,0.526
30.22,32236.5,35314.6,0.8999,0.7776,149.0,96.8,0.526
30.24,32269.1,35625.6,1.0234,1.5439,149.0,96.8,0.526
30.26,32354.4,35729.5,1.3477,1.7999,149.0,96.8,0.526
30.28,32339.7,35657.1,1.2918,1.6214,149.0,96.8,0.526
30.3,32315.4,35447.1,1.1993,1.104,149.0,96.8,0.526
30.32,32136.2,35288.2,0.5189,0.7124,149.0,96.8,0.526
30.34,32060.7,35202.5,0.2321,0.5012,149.0,96.8,0.526
30.36,32000.8,35113.0,0.0044,0.2807,149.0,96.8,0.526
30.38,32019.1,35017.5,0.0741,0.0455,149.0,96.8,0.526
30.4,31929.5,34964.4,-0.2662,-0.0853,149.0,96.8,0.526
30.42,31874.5,34868.4,-0.4753,-0.3221,149.0,96.8,0.526
30.44,31961.4,34777.2,-0.1452,-0.5467,149.0,96.8,0.526
30.46,31923.0,34628.0,-0.2909,-0.9142,149.0,96.8,0.526
30.48,31876.3,34619.0,-0.4684,-0.9366,149.0,96.8,0.526
30.5,31895.9,34556.8,-0.3941,-1.0899,149.0,96.8,0.526
30.52,31683.2,34554.1,-1.2019,-1.0964,149.0,96.8,0.526
30.54,31759.6,34463.6,-0.9118,-1.3195,149.0,96.8,0.526
30.56,31663.5,34492.5,-1.2767,-1.2481,149.0,96.8,0.526
30.58,31747.7,34690.3,-0.9571,-0.7609,149.0,96.8,0.526
30.6,31996.3,34858.3,-0.0127,-0.3468,149.0,96.8,0.526
30.62,32178.5,35302.3,0.6793,0.7472,149.0,96.8,0.526
30.64,32395.0,35607.6,1.5019,1.4994,149.0,96.8,0.526
30.66,32253.4,35781.7,0.9641,1.9285,149.0,96.8,0.526
30.68,32336.6,35702.4,1.2798,1.7331,149.0,96.8,0.526
30.7,32243.5,35456.9,0.9262,1.1281,149.0,96.8,0.526
30.72,32123.2,35279.8,0.4693,0.6919,149.0,96.8,0.526
30.74,32055.1,35131.5,0.2107,0.3263,149.0,96.8,0.526
30.76,32035.9,35245.6,0.1377,0.6075,149.0,96.8,0.526
30.78,31945.8,35051.3,-0.2043,0.1286,149.0,96.8,0.526
30.8,31974.0,34905.7,-0.0972,-0.2302,149.0,96.8,0.526
30.82,31925.0,34865.7,-0.2834,-0.3287,149.0,96.8,0.526
30.84,31891.0,34737.1,-0.4124,-0.6454,149.0,96.8,0.526
30.86,31817.8,34664.1,-0.6905,-0.8253,149.0,96.8,0.526
30.88,31787.1,34622.3,-0.8072,-0.9285,149.0,96.8,0.526
30.9,31885.5,34572.9,-0.4337,-1.0502,149.0,96.8,0.526
30.92,31810.2,34559.2,-0.7194,-1.0839,149.0,96.8,0.526
30.94,31783.6,34470.9,-0.8207,-1.3015,149.0,96.8,0.526
30.96,31770.3,34477.4,-0.871,-1.2854,149.0,96.8,0.526
30.98,31844.7,34667.6,-0.5884,-0.8169,149.0,96.8,0.526
31.0,31955.6,34918.8,-0.1674,-0.1978,149.0,96.8,0.526
31.02,32026.9,35311.1,0.1037,0.7688,149.0,96.8,0.526
31.04,32269.4,35624.7,1.0246,1.5416,149.0,96.8,0.526
31.06,32472.4,35761.3,1.7958,1.8781,149.0,96.8,0.526
31.08,32356.5,35713.6,1.3557,1.7608,149.0,96.8,0.526
31.1,32278.6,35481.3,1.0597,1.1884,149.0,96.8,0.526
31.12,32140.5,35325.2,0.5351,0.8037,149.0,96.8,0.526
31.14,32162.8,35151.9,0.6199,0.3766,149.0,96.8,0.526
31.16,32005.7,35060.3,0.0231,0.151,149.0,96.8,0.526
31.18,31933.3,35049.1,-0.2518,0.1232,149.0,96.8,0.526
31.2,31933.5,34976.1,-0.2513,-0.0566,149.0,96.8,0.526
31.22,31965.3,34968.7,-0.1304,-0.0749,149.0,96.8,0.526
31.24,31879.8,34707.6,-0.4553,-0.7183,149.0,96.8,0.526
31.26,31889.0,34625.8,-0.4203,-0.9198,149.0,96.8,0.526
31.28,31841.4,34726.5,-0.601,-0.6717,149.0,96.8,0.526
31.3,31863.8,34639.5,-0.5159,-0.886,149.0,96.8,0.526
31.32,31803.2,34618.3,-0.7462,-0.9384,149.0,96.8,0.526
31.34,31743.6,34513.4,-0.9724,-1.1966,149.0,96.8,0.526
31.36,31596.3,34402.7,-1.5319,-1.4696,149.0,96.8,0.526
31.38,31769.6,34531.6,-0.8735,-1.1519,149.0,96.8,0.526
31.4,31934.6,34828.4,-0.2471,-0.4206,149.0,96.8,0.526
31.42,32178.6,35169.3,0.6797,0.4194,149.0,96.8,0.526
31.44,32205.8,35551.2,0.7831,1.3605,149.0,96.8,0.526
31.46,32328.9,35820.5,1.2508,2.0241,149.0,96.8,0.526
31.48,32325.7,35691.2,1.2385,1.7055,149.0,96.8,0.526
31.5,32235.7,35605.6,0.8966,1.4947,149.0,96.8,0.526
31.52,32176.8,35286.3,0.6728,0.7078,149.0,96.8,0.526
31.54,32059.5,35239.8,0.2275,0.5931,149.0,96.8,0.526
31.56,32005.6,35191.1,0.0228,0.4731,149.0,96.8,0.526
31.58,32014.1,35059.2,0.0549,0.1481,149.0,96.8,0.526
31.6,32071.2,34926.5,0.2717,-0.1789,149.0,96.8,0.526
31.62,31958.3,34863.3,-0.157,-0.3345,149.0,96.8,0.526
31.64,31892.5,34800.4,-0.4069,-0.4896,149.0,96.8,0.526
31.66,31806.3,34584.7,-0.7344,-1.0212,149.0,96.8,0.526
31.68,31743.4,34614.2,-0.9734,-0.9484,149.0,96.8,0.526
31.7,31788.2,34650.4,-0.8032,-0.8591,149.0,96.8,0.526
31.72,31820.0,34641.3,-0.6821,-0.8815,149.0,96.8,0.526
31.74,31726.8,34498.5,-1.0364,-1.2333,149.0,96.8,0.526
31.76,31657.1,34510.6,-1.3012,-1.2036,149.0,96.8,0.526
31.78,31808.2,34634.0,-0.7272,-0.8997,149.0,96.8,0.526
31.8,31974.1,34802.1,-0.0969,-0.4853,149.0,96.8,0.526
31.82,32027.5,35153.5,0.1059,0.3805,149.0,96.8,0.526
31.84,32232.9,35528.7,0.8859,1.305,149.0,96.8,0.526
31.86,32403.4,35680.2,1.5337,1.6784,149.0,96.8,0.526
31.88,32302.1,35736.1,1.1488,1.8161,149.0,96.8,0.526
31.9,32308.6,35519.7,1.1735,1.2828,149.0,96.8,0.526
31.92,32190.4,35445.3,0.7246,1.0997,149.0,96.8,0.526
31.94,32133.0,35077.6,0.5065,0.1936,149.0,96.8,0.526
31.96,31983.4,35013.0,-0.0617,0.0344,149.0,96.8,0.526
31.98,32058.6,35107.0,0.2241,0.2659,149.0,96.8,0.526
32.0,32004.1,34942.0,0.017,-0.1406,149.0,96.8,0.526
32.02,31929.5,34859.9,-0.2663,-0.3428,149.0,96.8,0.526
32.04,31988.0,34776.9,-0.0442,-0.5474,149.0,96.8,0.526
32.06,31890.7,34637.5,-0.4139,-0.8909,149.0,96.8,0.526
32.08,31795.1,34651.4,-0.7769,-0.8567,149.0,96.8,0.526
32.1,31834.5,34608.9,-0.6272,-0.9615,149.0,96.8,0.526
32.12,31871.1,34600.4,-0.4881,-0.9823,149.0,96.8,0.526
32.14,31795.5,34522.0,-0.7753,-1.1756,149.0,96.8,0.526
32.16,31793.4,34430.0,-0.7834,-1.4021,149.0,96.8,0.526
32.18,31872.4,34473.6,-0.4833,-1.2948,149.0,96.8,0.526
32.2,31841.4,34789.1,-0.6008,-0.5175,149.0,96.8,0.526
32.22,32087.7,35136.1,0.3346,0.3377,149.0,96.8,0.526
32.24,32246.3,35483.3,0.9371,1.1931,149.0,96.8,0.526
32.26,32463.2,35639.4,1.761,1.5779,149.0,96.8,0.526
32.28,32340.7,35782.8,1.2954,1.9313,149.0,96.8,0.526
32.3,32310.1,35585.4,1.1793,1.4448,149.0,96.8,0.526
32.32,32189.2,35422.0,0.72,1.0422,149.0,96.8,0.526
32.34,32156.3,35201.2,0.595,0.498,149.0,96.8,0.526
32.36,32052.1,35205.6,0.1992,0.5089,149.0,96.8,0.526
32.38,32102.6,35127.0,0.3913,0.3151,149.0,96.8,0.526
32.4,31962.6,34939.2,-0.1406,-0.1474,149.0,96.8,0.526
32.42,31984.3,34875.8,-0.0582,-0.3036,149.0,96.8,0.526
32.44,31910.8,34727.8,-0.3375,-0.6683,149.0,96.8,0.526
32.46,31804.2,34687.6,-0.7424,-0.7676,149.0,96.8,0.526
32.48,31887.0,34718.6,-0.428,-0.691,149.0,96.8,0.526
32.5,31803.2,34686.5,-0.7461,-0.7702,149.0,96.8,0.526
32.52,31854.7,34647.9,-0.5504,-0.8652,149.0,96.8,0.526
32.54,31770.8,34516.2,-0.8691,-1.1899,149.0,96.8,0.526
32.56,31770.0,34403.1,-0.872,-1.4685,149.0,96.8,0.526
32.58,31787.7,34473.4,-0.8051,-1.2953,149.0,96.8,0.526
32.6,31875.8,34808.8,-0.4704,-0.4687,149.0,96.8,0.526
32.62,32007.4,34936.0,0.0296,-0.1555,149.0,96.8,0.526
32.64,32209.0,35380.0,0.7951,0.9387,149.0,96.8,0.526
32.66,32368.1,35631.5,1.3996,1.5584,149.0,96.8,0.526
32.68,32371.5,35754.2,1.4123,1.8608,149.0,96.8,0.526
32.7,32379.3,35575.8,1.442,1.4212,149.0,96.8,0.526
32.72,32241.4,35447.4,0.9182,1.1046,149.0,96.8,0.526
32.74,32101.0,35241.9,0.3852,0.5984,149.0,96.8,0.526
32.76,32123.0,35189.4,0.4684,0.4691,149.0,96.8,0.526
32.78,31967.9,35070.8,-0.1207,0.1767,149.0,96.8,0.526
32.8,32041.6,35009.4,0.1595,0.0254,149.0,96.8,0.526
32.82,31961.0,34856.5,-0.1466,-0.3513,149.0,96.8,0.526
32.84,31903.8,34818.5,-0.3639,-0.4448,149.0,96.8,0.526
32.86,31811.6,34749.9,-0.7142,-0.614,149.0,96.8,0.526
32.88,31902.3,34615.8,-0.3699,-0.9444,149.0,96.8,0.526
32.9,31862.9,34655.2,-0.5194,-0.8474,149.0,96.8,0.526
32.92,31872.0,34673.8,-0.4846,-0.8016,149.0,96.8,0.526
32.94,31866.9,34568.8,-0.504,-1.0603,149.0,96.8,0.526
32.96,31683.5,34454.8,-1.2009,-1.3411,149.0,96.8,0.526
32.98,31714.9,34532.9,-1.0816,-1.1487,149.0,96.8,0.526
33.0,31798.6,34737.3,-0.7635,-0.645,149.0,96.8,0.526
33.02,31995.0,34953.1,-0.0176,-0.1134,149.0,96.8,0.526
33.04,32224.7,35382.1,0.8549,0.9439,149.0,96.8,0.526
33.06,32365.5,35664.8,1.3896,1.6404,149.0,96.8,0.526
33.08,32343.7,35701.9,1.3069,1.7318,149.0,96.8,0.526
33.1,32251.2,35556.5,0.9557,1.3737,149.0,96.8,0.526
33.12,32130.1,35476.8,0.4957,1.1772,149.0,96.8,0.526
33.14,32099.2,35281.2,0.3782,0.6952,149.0,96.8,0.526
33.16,32025.8,35190.0,0.0992,0.4705,149.0,96.8,0.526
33.18,32104.1,35124.1,0.3969,0.3081,149.0,96.8,0.526
33.2,31928.5,34957.9,-0.2703,-0.1013,149.0,96.8,0.526
33.22,32009.1,34905.6,0.0359,-0.2303,149.0,96.8,0.526
33.24,32008.0,34850.9,0.0317,-0.3651,149.0,96.8,0.526
33.26,31858.9,34632.2,-0.5346,-0.9041,149.0,96.8,0.526
33.28,31807.7,34711.8,-0.7291,-0.7078,149.0,96.8,0.526
33.3,31761.2,34649.8,-0.9057,-0.8607,149.0,96.8,0.526
33.32,31906.7,34621.8,-0.353,-0.9296,149.0,96.8,0.526
33.34,31866.5,34586.2,-0.5056,-1.0172,149.0,96.8,0.526
33.36,31755.7,34395.0,-0.9266,-1.4884,149.0,96.8,0.526
33.38,31808.2,34429.7,-0.7271,-1.403,149.0,96.8,0.526
33.4,31856.4,34640.3,-0.5439,-0.8842,149.0,96.8,0.526
33.42,31978.4,34966.0,-0.0806,-0.0815,149.0,96.8,0.526
33.44,32163.8,35386.3,0.6234,0.9541,149.0,96.8,0.526
33.46,32350.0,35589.3,1.3307,1.4544,149.0,96.8,0.526
33.48,32404.4,35800.0,1.5376,1.9735,149.0,96.8,0.526
33.5,32374.8,35580.6,1.4249,1.433,149.0,96.8,0.526
33.52,32147.4,35419.8,0.5613,1.0368,149.0,96.8,0.526
33.54,32053.2,35268.2,0.2036,0.6632,149.0,96.8,0.526
33.56,32060.5,35117.0,0.2311,0.2905,149.0,96.8,0.526
33.58,32026.7,35152.3,0.103,0.3776,149.0,96.8,0.526
33.6,32074.9,35114.5,0.286,0.2845,149.0,96.8,0.526
33.62,31927.7,34979.5,-0.2731,-0.0483,149.0,96.8,0.526
33.64,31923.7,34892.1,-0.2884,-0.2635,149.0,96.8,0.526
33.66,31864.0,34739.8,-0.5151,-0.6388,149.0,96.8,0.526
33.68,31799.3,34682.3,-0.7609,-0.7806,149.0,96.8,0.526
33.7,31777.1,34676.1,-0.8452,-0.7959,149.0,96.8,0.526
33.72,31815.5,34673.9,-0.6994,-0.8013,149.0,96.8,0.526
33.74,31687.4,34610.3,-1.1861,-0.958,149.0,96.8,0.526
33.76,31808.8,34504.7,-0.725,-1.2181,149.0,96.8,0.526
33.78,31873.1,34574.9,-0.4806,-1.0451,149.0,96.8,0.526
33.8,31760.3,34496.0,-0.9092,-1.2397,149.0,96.8,0.526
33.82,31965.8,34942.8,-0.1285,-0.1388,149.0,96.8,0.526
33.84,32171.5,35312.3,0.6529,0.772,149.0,96.8,0.526
33.86,32403.1,35595.8,1.5326,1.4704,149.0,96.8,0.526
33.88,32308.0,35753.7,1.1713,1.8596,149.0,96.8,0.526
33.9,32431.3,35741.6,1.6396,1.8298,149.0,96.8,0.526
33.92,32260.2,35549.5,0.9898,1.3563,149.0,96.8,0.526
33.94,32182.8,35310.4,0.6956,0.7672,149.0,96.8,0.526
33.96,32124.2,35158.7,0.473,0.3933,149.0,96.8,0.526
33.98,32060.9,35104.8,0.2328,0.2604,149.0,96.8,0.526
34.0,31941.9,35007.3,-0.2194,0.0202,149.0,96.8,0.526
34.02,31941.3,35002.5,-0.2215,0.0085,149.0,96.8,0.526
34.04,31878.3,34877.8,-0.4607,-0.2989,149.0,96.8,0.526
34.06,31910.9,34753.7,-0.3371,-0.6047,149.0,96.8,0.526
34.08,31728.6,34699.9,-1.0296,-0.7373,149.0,96.8,0.526
34.1,31846.0,34557.2,-0.5834,-1.0887,149.0,96.8,0.526
34.12,31809.9,34557.4,-0.7206,-1.0884,149.0,96.8,0.526
34.14,31812.3,34594.9,-0.7115,-0.9958,149.0,96.8,0.526
34.16,31726.0,34486.2,-1.0392,-1.2639,149.0,96.8,0.526
34.18,31698.3,34424.5,-1.1447,-1.4158,149.0,96.8,0.526
34.2,31723.5,34546.9,-1.0489,-1.1142,149.0,96.8,0.526
34.22,31968.7,34820.0,-0.1173,-0.4413,149.0,96.8,0.526
34.24,32102.0,35295.9,0.3888,0.7313,149.0,96.8,0.526
34.26,32264.4,35641.3,1.0057,1.5825,149.0,96.8,0.526
34.28,32404.5,35731.1,1.538,1.8038,149.0,96.8,0.526
34.3,32312.4,35708.5,1.188,1.7482,149.0,96.8,0.526
34.32,32309.2,35511.0,1.176,1.2614,149.0,96.8,0.526
34.34,32151.1,35272.4,0.5752,0.6735,149.0,96.8,0.526
34.36,32175.8,35199.2,0.669,0.4931,149.0,96.8,0.526
34.38,32023.5,35182.0,0.0908,0.4507,149.0,96.8,0.526
34.4,32051.2,35090.2,0.1958,0.2246,149.0,96.8,0.526
34.42,31918.0,35008.8,-0.3101,0.024,149.0,96.8,0.526
34.44,31921.4,34878.2,-0.2971,-0.2978,149.0,96.8,0.526
34.46,31800.5,34838.2,-0.7563,-0.3963,149.0,96.8,0.526
34.48,31947.8,34657.8,-0.1969,-0.8409,149.0,96.8,0.526
34.5,31876.9,34702.5,-0.4661,-0.7307,149.0,96.8,0.526
34.52,31842.4,34657.0,-0.5972,-0.8428,149.0,96.8,0.526
34.54,31779.2,34611.9,-0.8374,-0.954,149.0,96.8,0.526
34.56,31757.4,34519.4,-0.92,-1.1819,149.0,96.8,0.526
34.58,31765.8,34513.7,-0.8883,-1.1959,149.0,96.8,0.526
34.6,31873.0,34602.6,-0.481,-0.977,149.0,96.8,0.526
34.62,31906.1,34802.3,-0.3552,-0.4848,149.0,96.8,0.526
34.64,32084.4,35106.3,0.3222,0.2641,149.0,96.8,0.526
34.66,32216.2,35449.7,0.8225,1.1104,149.0,96.8,0.526
34.68,32406.8,35766.6,1.5466,1.8913,149.0,96.8,0.526
34.7,32300.9,35707.9,1.1444,1.7466,149.0,96.8,0.526
34.72,32387.0,35626.9,1.4713,1.5471,149.0,96.8,0.526
34.74,32110.7,35384.2,0.4217,0.9491,149.0,96.8,0.526
34.76,32093.3,35178.1,0.3557,0.4412,149.0,96.8,0.526
34.78,32040.7,35119.3,0.156,0.2964,149.0,96.8,0.526
34.8,31959.9,35219.4,-0.151,0.5429,149.0,96.8,0.526
34.82,31955.7,34883.4,-0.1667,-0.285,149.0,96.8,0.526
34.84,31966.8,34892.7,-0.1246,-0.2622,149.0,96.8,0.526
34.86,31941.6,34745.3,-0.2204,-0.6254,149.0,96.8,0.526
34.88,31832.5,34740.4,-0.6348,-0.6375,149.0,96.8,0.526
34.9,31801.8,34670.6,-0.7515,-0.8093,149.0,96.8,0.526
34.92,31898.6,34693.3,-0.3839,-0.7535,149.0,96.8,0.526
34.94,31824.9,34659.3,-0.6636,-0.8371,149.0,96.8,0.526
34.96,31747.1,34475.5,-0.959,-1.2902,149.0,96.8,0.526
34.98,31719.4,34492.1,-1.0643,-1.2492,149.0,96.8,0.526
35.0,31923.0,34606.3,-0.291,-0.9678,149.0,96.8,0.526
35.02,31965.2,34817.5,-0.1307,-0.4475,149.0,96.8,0.526
35.04,32043.8,35156.4,0.1679,0.3877,149.0,96.8,0.526
35.06,32182.1,35529.4,0.6932,1.3067,149.0,96.8,0.526
35.08,32375.6,35626.3,1.4282,1.5456,149.0,96.8,0.526
35.1,32367.3,35671.5,1.3965,1.6569,149.0,96.8,0.526
35.12,32239.0,35589.5,0.9091,1.4549,149.0,96.8,0.526
35.14,32211.9,35407.7,0.8064,1.0069,149.0,96.8,0.526
35.16,32117.5,35256.2,0.4479,0.6336,149.0,96.8,0.526
35.18,32013.4,35149.2,0.0521,0.3699,149.0,96.8,0.526
35.2,32022.5,35016.6,0.0869,0.0432,149.0,96.8,0.526
35.22,31980.6,34971.4,-0.0724,-0.0683,149.0,96.8,0.526
35.24,32046.9,34853.4,0.1795,-0.359,149.0,96.8,0.526
35.26,31988.7,34866.0,-0.0416,-0.3278,149.0,96.8,0.526
35.28,31901.7,34666.9,-0.372,-0.8185,149.0,96.8,0.526
35.3,31745.5,34628.2,-0.9654,-0.9138,149.0,96.8,0.526
35.32,31821.4,34594.1,-0.6769,-0.9979,149.0,96.8,0.526
35.34,31785.9,34587.7,-0.8119,-1.0136,149.0,96.8,0.526
35.36,31734.8,34519.2,-1.0058,-1.1823,149.0,96.8,0.526
35.38,31781.6,34463.0,-0.8281,-1.3209,149.0,96.8,0.526
35.4,31721.8,34512.2,-1.0552,-1.1997,149.0,96.8,0.526
35.42,31921.1,34705.2,-0.2984,-0.724,149.0,96.8,0.526
35.44,31998.8,35034.4,-0.0031,0.0872,149.0,96.8,0.526
35.46,32226.3,35357.0,0.861,0.882,149.0,96.8,0.526
35.48,32389.1,35721.1,1.4794,1.7792,149.0,96.8,0.526
35.5,32349.2,35672.6,1.3278,1.6597,149.0,96.8,0.526
35.52,32301.1,35664.7,1.1449,1.6401,149.0,96.8,0.526
35.54,32233.6,35471.1,0.8888,1.1632,149.0,96.8,0.526
35.56,32121.4,35311.0,0.4624,0.7687,149.0,96.8,0.526
35.58,32143.3,35173.5,0.5459,0.4297,149.0,96.8,0.526
35.6,32039.8,34976.4,0.1527,-0.0559,149.0,96.8,0.526
35.62,32033.8,35075.0,0.1297,0.1872,149.0,96.8,0.526
35.64,31904.8,34874.2,-0.3601,-0.3077,149.0,96.8,0.526
35.66,31902.5,34858.5,-0.3688,-0.3464,149.0,96.8,0.526
35.68,31848.8,34761.7,-0.5729,-0.585,149.0,96.8,0.526
35.7,31877.6,34647.7,-0.4636,-0.8657,149.0,96.8,0.526
35.72,31843.4,34567.3,-0.5934,-1.0639,149.0,96.8,0.526
35.74,31753.8,34655.9,-0.9339,-0.8456,149.0,96.8,0.526
35.76,31830.0,34514.5,-0.6443,-1.1939,149.0,96.8,0.526
35.78,31777.3,34404.4,-0.8445,-1.4653,149.0,96.8,0.526
35.8,31757.0,34528.9,-0.9218,-1.1586,149.0,96.8,0.526
35.82,31921.0,34723.7,-0.2988,-0.6786,149.0,96.8,0.526
35.84,32096.5,35058.3,0.3681,0.1459,149.0,96.8,0.526
35.86,32177.4,35362.1,0.6753,0.8945,149.0,96.8,0.526
35.88,32379.3,35711.7,1.4422,1.7561,149.0,96.8,0.526
35.9,32397.9,35751.0,1.5129,1.8529,149.0,96.8,0.526
35.92,32269.3,35692.0,1.0244,1.7075,149.0,96.8,0.526
35.94,32236.7,35481.1,0.9005,1.1878,149.0,96.8,0.526
35.96,32095.4,35237.1,0.3639,0.5866,149.0,96.8,0.526
35.98,32021.9,35115.2,0.0846,0.2862,149.0,96.8,0.526
36.0,32035.0,35094.1,0.1344,0.2341,149.0,96.8,0.526
36.02,32094.6,35009.1,0.3609,0.0247,149.0,96.8,0.526
36.04,31992.0,34892.0,-0.029,-0.2637,149.0,96.8,0.526
36.06,31878.4,34810.5,-0.4605,-0.4647,149.0,96.8,0.526
36.08,31911.5,34715.2,-0.3348,-0.6996,149.0,96.8,0.526
36.1,31899.9,34676.7,-0.3788,-0.7943,149.0,96.8,0.526
36.12,31765.1,34686.6,-0.8908,-0.7699,149.0,96.8,0.526
36.14,31744.6,34629.8,-0.9685,-0.91,149.0,96.8,0.526
36.16,31816.4,34559.2,-0.6961,-1.084,149.0,96.8,0.526
36.18,31745.3,34471.6,-0.9661,-1.2998,149.0,96.8,0.526
36.2,31762.0,34519.3,-0.9025,-1.1823,149.0,96.8,0.526
36.22,31781.4,34631.5,-0.8287,-0.9056,149.0,96.8,0.526
36.24,32079.0,34898.9,0.3015,-0.2469,149.0,96.8,0.526
36.26,32191.8,35351.4,0.7301,0.8682,149.0,96.8,0.526
36.28,32315.8,35709.5,1.201,1.7506,149.0,96.8,0.526
36.3,32324.8,35776.0,1.235,1.9145,149.0,96.8,0.526
36.32,32332.9,35782.8,1.2659,1.9313,149.0,96.8,0.526
36.34,32277.9,35510.8,1.057,1.261,149.0,96.8,0.526
36.36,32186.0,35362.4,0.7077,0.8952,149.0,96.8,0.526
36.38,31995.1,35094.1,-0.0171,0.2343,149.0,96.8,0.526
36.4,32052.8,35105.8,0.202,0.2629,149.0,96.8,0.526
36.42,32015.3,34985.4,0.0596,-0.0336,149.0,96.8,0.526
36.44,31952.4,34912.0,-0.1793,-0.2145,149.0,96.8,0.526
36.46,31922.2,34857.0,-0.294,-0.3501,149.0,96.8,0.526
36.48,31870.8,34745.2,-0.4895,-0.6256,149.0,96.8,0.526
36.5,31825.2,34696.2,-0.6625,-0.7464,149.0,96.8,0.526
36.52,31901.0,34622.1,-0.3746,-0.9289,149.0,96.8,0.526
36.54,31822.8,34687.4,-0.6716,-0.7679,149.0,96.8,0.526
36.56,31853.4,34614.8,-0.5554,-0.947,149.0,96.8,0.526
36.58,31692.9,34519.1,-1.1649,-1.1828,149.0,96.8,0.526
36.6,31590.8,34409.9,-1.5528,-1.4519,149.0,96.8,0.526
36.62,31854.0,34689.0,-0.5532,-0.7639,149.0,96.8,0.526
36.64,32094.3,34898.4,0.3594,-0.248,149.0,96.8,0.526
36.66,32153.9,35344.8,0.5859,0.8519,149.0,96.8,0.526
36.68,32213.8,35651.2,0.8136,1.607,149.0,96.8,0.526
36.7,32350.1,35802.0,1.3313,1.9786,149.0,96.8,0.526
36.72,32320.4,35718.3,1.2184,1.7722,149.0,96.8,0.526
36.74,32230.3,35525.3,0.876,1.2967,149.0,96.8,0.526
36.76,32169.6,35338.6,0.6458,0.8366,149.0,96.8,0.526
36.78,32122.0,35087.9,0.4649,0.219,149.0,96.8,0.526
36.8,32056.3,35008.7,0.2153,0.0237,149.0,96.8,0.526
36.82,32004.0,35108.8,0.0168,0.2705,149.0,96.8,0.526
36.84,31963.8,34954.8,-0.1361,-0.109,149.0,96.8,0.526
36.86,31969.4,34795.7,-0.1148,-0.5011,149.0,96.8,0.526
36.88,31928.7,34660.4,-0.2695,-0.8345,149.0,96.8,0.526
36.9,31763.1,34784.0,-0.8985,-0.5298,149.0,96.8,0.526
36.92,31835.0,34600.1,-0.6251,-0.9832,149.0,96.8,0.526
36.94,31800.1,34689.0,-0.7577,-0.7641,149.0,96.8,0.526
36.96,31797.9,34626.4,-0.7663,-0.9184,149.0,96.8,0.526
36.98,31627.2,34554.7,-1.4144,-1.0949,149.0,96.8,0.526
37.0,31806.8,34431.1,-0.7323,-1.3994,149.0,96.8,0.526
37.02,31810.8,34593.9,-0.7171,-0.9983,149.0,96.8,0.526
37.04,31919.0,34907.9,-0.3061,-0.2247,149.0,96.8,0.526
37.06,32022.0,35172.3,0.0852,0.4268,149.0,96.8,0.526
37.08,32265.4,35561.0,1.0096,1.3847,149.0,96.8,0.526
37.1,32346.3,35743.7,1.3168,1.835,149.0,96.8,0.526
37.12,32390.0,35733.1,1.483,1.8086,149.0,96.8,0.526
37.14,32223.3,35590.9,0.8498,1.4584,149.0,96.8,0.526
37.16,32214.0,35320.5,0.8144,0.7921,149.0,96.8,0.526
37.18,32100.7,35236.9,0.3839,0.5862,149.0,96.8,0.526
37.2,32041.3,35059.1,0.1582,0.1479,149.0,96.8,0.526
37.22,32079.1,35001.7,0.302,0.0066,149.0,96.8,0.526
37.24,31980.4,34980.7,-0.0732,-0.0453,149.0,96.8,0.526
37.26,31875.7,34823.3,-0.4705,-0.4331,149.0,96.8,0.526
37.28,31811.4,34782.7,-0.7149,-0.5332,149.0,96.8,0.526
37.3,31862.8,34802.5,-0.5196,-0.4845,149.0,96.8,0.526
37.32,31889.4,34598.5,-0.4187,-0.9871,149.0,96.8,0.526
37.34,31855.4,34640.8,-0.5479,-0.8828,149.0,96.8,0.526
37.36,31899.6,34616.5,-0.3801,-0.9426,149.0,96.8,0.526
37.38,31766.3,34420.0,-0.8861,-1.4269,149.0,96.8,0.526
37.4,31759.6,34459.5,-0.9117,-1.3296,149.0,96.8,0.526
37.42,31817.6,34559.8,-0.6914,-1.0824,149.0,96.8,0.526
37.44,31993.7,34818.8,-0.0226,-0.4441,149.0,96.8,0.526
37.46,32072.0,35271.7,0.2749,0.6717,149.0,96.8,0.526
37.48,32227.0,35508.3,0.8637,1.2548,149.0,96.8,0.526
37.5,32395.3,35762.9,1.5029,1.8823,149.0,96.8,0.526
37.52,32364.0,35695.7,1.384,1.7165,149.0,96.8,0.526
37.54,32314.6,35528.6,1.1965,1.3048,149.0,96.8,0.526
37.56,32205.8,35406.3,0.7831,1.0035,149.0,96.8,0.526
37.58,32112.1,35160.7,0.427,0.3984,149.0,96.8,0.526
37.6,32016.8,35056.1,0.0651,0.1406,149.0,96.8,0.526
37.62,31955.7,35089.7,-0.167,0.2233,149.0,96.8,0.526
37.64,31994.4,34877.0,-0.0197,-0.3007,149.0,96.8,0.526
37.66,31937.3,34884.5,-0.2368,-0.2823,149.0,96.8,0.526
37.68,31911.9,34721.2,-0.3332,-0.6848,149.0,96.8,0.526
37.7,31887.6,34780.3,-0.4255,-0.5391,149.0,96.8,0.526
37.72,31881.1,34610.6,-0.4501,-0.9573,149.0,96.8,0.526
37.74,31813.8,34624.3,-0.7059,-0.9234,149.0,96.8,0.526
37.76,31757.8,34603.2,-0.9185,-0.9755,149.0,96.8,0.526
37.78,31809.3,34541.3,-0.7228,-1.128,149.0,96.8,0.526
37.8,31609.8,34472.1,-1.4808,-1.2984,149.0,96.8,0.526
37.82,31795.5,34537.8,-0.7755,-1.1366,149.0,96.8,0.526
37.84,31829.7,34742.8,-0.6454,-0.6314,149.0,96.8,0.526
37.86,32080.8,35086.1,0.3083,0.2144,149.0,96.8,0.526
37.88,32166.5,35538.5,0.6339,1.3292,149.0,96.8,0.526
37.9,32245.1,35631.0,0.9324,1.5571,149.0,96.8,0.526
37.92,32388.1,35779.3,1.4756,1.9225,149.0,96.8,0.526
37.94,32261.5,35541.9,0.9948,1.3375,149.0,96.8,0.526
37.96,32178.4,35386.8,0.6789,0.9555,149.0,96.8,0.526
37.98,32050.9,35185.0,0.1948,0.4583,149.0,96.8,0.526
38.0,32059.1,35099.6,0.2259,0.2478,149.0,96.8,0.526
38.02,31975.7,35091.0,-0.0909,0.2265,149.0,96.8,0.526
38.04,32009.8,35085.7,0.0386,0.2134,149.0,96.8,0.526
38.06,31865.8,34837.9,-0.5083,-0.3971,149.0,96.8,0.526
38.08,31916.9,34891.5,-0.3143,-0.2651,149.0,96.8,0.526
38.1,31793.1,34762.2,-0.7846,-0.5836,149.0,96.8,0.526
38.12,31772.3,34620.7,-0.8635,-0.9323,149.0,96.8,0.526
38.14,31815.8,34659.7,-0.6983,-0.8363,149.0,96.8,0.526
38.16,31809.3,34619.7,-0.7231,-0.9349,149.0,96.8,0.526
38.18,31808.2,34394.7,-0.7273,-1.4893,149.0,96.8,0.526
38.2,31692.2,34462.8,-1.1676,-1.3215,149.0,96.8,0.526
38.22,31768.3,34481.9,-0.8788,-1.2743,149.0,96.8,0.526
38.24,31817.3,34779.7,-0.6924,-0.5405,149.0,96.8,0.526
38.26,32045.3,34997.1,0.1733,-0.005,149.0,96.8,0.526
38.28,32251.3,35478.0,0.956,1.1802,149.0,96.8,0.526
38.3,32309.9,35762.0,1.1785,1.8799,149.0,96.8,0.526
38.32,32464.7,35867.5,1.7666,2.1399,149.0,96.8,0.526
38.34,32254.8,35590.9,0.9693,1.4583,149.0,96.8,0.526
38.36,32257.7,35324.1,0.9804,0.801,149.0,96.8,0.526
38.38,32085.0,35297.4,0.3244,0.7352,149.0,96.8,0.526
38.4,32125.1,35059.4,0.4764,0.1487,149.0,96.8,0.526
38.42,32004.1,35133.4,0.017,0.331,149.0,96.8,0.526
38.44,31974.8,34996.8,-0.0942,-0.0055,149.0,96.8,0.526
38.46,31957.9,34907.6,-0.1584,-0.2254,149.0,96.8,0.526
38.48,31824.6,34762.3,-0.6649,-0.5835,149.0,96.8,0.526
38.5,31879.9,34693.6,-0.4546,-0.7526,149.0,96.8,0.526
38.52,31769.0,34670.0,-0.8758,-0.8108,149.0,96.8,0.526
38.54,31790.2,34743.7,-0.7955,-0.6293,149.0,96.8,0.526
38.56,31771.5,34512.8,-0.8665,-1.1983,149.0,96.8,0.526
38.58,31821.4,34453.2,-0.677,-1.3452,149.0,96.8,0.526
38.6,31827.6,34450.8,-0.6533,-1.3509,149.0,96.8,0.526
38.62,31663.4,34538.1,-1.2773,-1.1359,149.0,96.8,0.526
38.64,31952.0,34582.0,-0.1807,-1.0277,149.0,96.8,0.526
38.66,31985.5,34974.7,-0.0535,-0.0601,149.0,96.8,0.526
38.68,32130.3,35344.3,0.4965,0.8506,149.0,96.8,0.526
38.7,32316.1,35676.8,1.202,1.67,149.0,96.8,0.526
38.72,32359.2,35793.1,1.3657,1.9565,149.0,96.8,0.526
38.74,32288.5,35673.4,1.0971,1.6616,149.0,96.8,0.526
38.76,32130.7,35368.7,0.4979,0.9108,149.0,96.8,0.526
38.78,32105.4,35183.2,0.4019,0.4536,149.0,96.8,0.526
38.8,32108.9,35197.3,0.4152,0.4884,149.0,96.8,0.526
38.82,32126.8,35056.5,0.4831,0.1415,149.0,96.8,0.526
38.84,31966.7,34959.2,-0.125,-0.0982,149.0,96.8,0.526
38.86,32001.0,35013.3,0.0053,0.035,149.0,96.8,0.526
38.88,31951.3,34801.9,-0.1837,-0.4858,149.0,96.8,0.526
38.9,31798.2,34709.6,-0.7652,-0.7132,149.0,96.8,0.526
38.92,31861.3,34675.6,-0.5255,-0.797,149.0,96.8,0.526
38.94,31793.8,34720.4,-0.7818,-0.6866,149.0,96.8,0.526
38.96,31685.8,34604.5,-1.1922,-0.9722,149.0,96.8,0.526
38.98,31792.1,34571.8,-0.7883,-1.0528,149.0,96.8,0.526
39.0,31774.5,34337.3,-0.8549,-1.6307,149.0,96.8,0.526
39.02,31786.4,34549.0,-0.8101,-1.1089,149.0,96.8,0.526
39.04,31751.0,34649.8,-0.9445,-0.8606,149.0,96.8,0.526
39.06,32012.5,34950.9,0.049,-0.1188,149.0,96.8,0.526
39.08,32159.1,35368.3,0.6059,0.9097,149.0,96.8,0.526
39.1,32340.9,35532.2,1.2963,1.3138,149.0,96.8,0.526
39.12,32421.1,35735.2,1.6011,1.814,149.0,96.8,0.526
39.14,32374.1,35619.3,1.4223,1.5285,149.0,96.8,0.526
39.16,32218.0,35494.3,0.8294,1.2203,149.0,96.8,0.526
39.18,32124.8,35255.3,0.4755,0.6313,149.0,96.8,0.526
39.2,32081.9,35136.3,0.3126,0.3382,149.0,96.8,0.526
39.22,31968.6,35158.5,-0.1177,0.3929,149.0,96.8,0.526
39.24,31985.7,34901.9,-0.0527,-0.2393,149.0,96.8,0.526
39.26,31988.4,34930.0,-0.0428,-0.1701,149.0,96.8,0.526
39.28,31924.2,34869.9,-0.2866,-0.3183,149.0,96.8,0.526
39.3,31831.7,34751.1,-0.6379,-0.611,149.0,96.8,0.526
39.32,31841.4,34683.2,-0.6011,-0.7783,149.0,96.8,0.526
39.34,31835.3,34631.4,-0.6243,-0.906,149.0,96.8,0.526
39.36,31853.4,34679.2,-0.5553,-0.7881,149.0,96.8,0.526
39.38,31809.0,34561.8,-0.7242,-1.0775,149.0,96.8,0.526
39.4,31615.8,34470.3,-1.4579,-1.3029,149.0,96.8,0.526
39.42,31791.4,34484.3,-0.7911,-1.2684,149.0,96.8,0.526
39.44,31802.1,34660.5,-0.7503,-0.8343,149.0,96.8,0.526
39.46,32024.1,34928.5,0.093,-0.1739,149.0,96.8,0.526
39.48,32286.4,35296.9,1.0894,0.734,149.0,96.8,0.526
39.5,32304.4,35603.1,1.1575,1.4884,149.0,96.8,0.526
39.52,32366.3,35685.8,1.3928,1.6922,149.0,96.8,0.526
39.54,32341.1,35612.6,1.2969,1.5118,149.0,96.8,0.526
39.56,32153.1,35549.0,0.5831,1.3552,149.0,96.8,0.526
39.58,32098.8,35286.2,0.3767,0.7076,149.0,96.8,0.526
39.6,32150.0,35162.0,0.5711,0.4016,149.0,96.8,0.526
39.62,32087.4,34993.0,0.3334,-0.0148,149.0,96.8,0.526
39.64,31999.9,35005.3,0.0011,0.0153,149.0,96.8,0.526
39.66,32025.6,34990.3,0.0986,-0.0215,149.0,96.8,0.526
39.68,31897.7,34916.5,-0.3873,-0.2033,149.0,96.8,0.526
39.7,31882.4,34766.8,-0.4452,-0.5724,149.0,96.8,0.526
39.72,31821.2,34674.5,-0.6776,-0.7998,149.0,96.8,0.526
39.74,31778.6,34650.7,-0.8394,-0.8583,149.0,96.8,0.526
39.76,31820.0,34657.5,-0.6821,-0.8416,149.0,96.8,0.526
39.78,31757.1,34662.7,-0.9212,-0.8289,149.0,96.8,0.526
39.8,31721.4,34477.3,-1.0568,-1.2857,149.0,96.8,0.526
39.82,31740.9,34410.3,-0.9828,-1.4507,149.0,96.8,0.526
39.84,31848.1,34436.4,-0.5757,-1.3864,149.0,96.8,0.526
39.86,31996.3,34896.3,-0.0127,-0.2532,149.0,96.8,0.526
39.88,32150.5,35262.2,0.573,0.6484,149.0,96.8,0.526
39.9,32333.1,35566.1,1.2668,1.3973,149.0,96.8,0.526
39.92,32337.0,35807.8,1.2815,1.9929,149.0,96.8,0.526
39.94,32421.9,35736.9,1.6041,1.818,149.0,96.8,0.526
39.96,32338.7,35480.4,1.2878,1.1861,149.0,96.8,0.526
39.98,32228.1,35370.3,0.8679,0.9147,149.0,96.8,0.526
40.0,32139.6,35129.8,0.5316,0.3222,149.0,96.8,0.526
40.02,32145.7,34990.0,0.555,-0.0223,149.0,96.8,0.526
40.04,32057.5,34995.9,0.2199,-0.0077,149.0,96.8,0.526
40.06,32034.5,34861.2,0.1323,-0.3398,149.0,96.8,0.526
40.08,31958.2,34776.6,-0.1572,-0.5482,149.0,96.8,0.526
40.1,31851.5,34788.6,-0.5625,-0.5187,149.0,96.8,0.526
40.12,31910.3,34656.9,-0.3392,-0.8432,149.0,96.8,0.526
40.14,31864.3,34686.0,-0.5139,-0.7714,149.0,96.8,0.526
40.16,31801.2,34646.2,-0.7538,-0.8695,149.0,96.8,0.526
40.18,31848.5,34557.5,-0.5738,-1.088,149.0,96.8,0.526
40.2,31777.0,34451.6,-0.8455,-1.3491,149.0,96.8,0.526
40.22,31789.0,34468.0,-0.8,-1.3085,149.0,96.8,0.526
40.24,31707.7,34461.1,-1.109,-1.3257,149.0,96.8,0.526
40.26,31912.3,34796.8,-0.3318,-0.4984,149.0,96.8,0.526
40.28,32043.2,35147.2,0.1655,0.3651,149.0,96.8,0.526
40.3,32209.7,35641.7,0.798,1.5836,149.0,96.8,0.526
40.32,32315.0,35702.9,1.198,1.7342,149.0,96.8,0.526
40.34,32335.8,35819.2,1.2769,2.0208,149.0,96.8,0.526
40.36,32316.4,35595.8,1.2033,1.4704,149.0,96.8,0.526
40.38,32127.3,35410.3,0.4851,1.0133,149.0,96.8,0.526
40.4,32079.8,35146.4,0.3045,0.3629,149.0,96.8,0.526
40.42,32090.9,35122.1,0.3469,0.3031,149.0,96.8,0.526
40.44,32056.9,35168.3,0.2176,0.4171,149.0,96.8,0.526
40.46,32009.1,34959.6,0.0359,-0.0972,149.0,96.8,0.526
40.48,31949.2,34813.2,-0.1914,-0.458,149.0,96.8,0.526
40.5,31933.2,34819.6,-0.2523,-0.4422,149.0,96.8,0.526
40.52,31835.4,34746.4,-0.6239,-0.6226,149.0,96.8,0.526
40.54,31923.4,34650.0,-0.2894,-0.86,149.0,96.8,0.526
40.56,31904.8,34572.4,-0.3602,-1.0513,149.0,96.8,0.526
40.58,31773.5,34553.0,-0.8591,-1.0991,149.0,96.8,0.526
40.6,31795.1,34440.8,-0.777,-1.3756,149.0,96.8,0.526
40.62,31721.9,34317.4,-1.055,-1.6798,149.0,96.8,0.526
40.64,31791.0,34516.8,-0.7925,-1.1884,149.0,96.8,0.526
40.66,31892.8,34755.2,-0.4056,-0.601,149.0,96.8,0.526
40.68,32055.7,35126.8,0.2128,0.3148,149.0,96.8,0.526
40.7,32316.2,35469.2,1.2024,1.1585,149.0,96.8,0.526
40.72,32323.2,35800.5,1.2291,1.9749,149.0,96.8,0.526
40.74,32299.3,35791.1,1.1382,1.9517,149.0,96.8,0.526
40.76,32269.9,35612.9,1.0264,1.5126,149.0,96.8,0.526
40.78,32167.9,35352.3,0.6391,0.8705,149.0,96.8,0.526
40.8,32004.3,35154.5,0.0179,0.3829,149.0,96.8,0.526
40.82,32086.8,35016.5,0.3311,0.0429,149.0,96.8,0.526
40.84,31937.4,35042.8,-0.2364,0.1077,149.0,96.8,0.526
40.86,32084.9,35101.8,0.3239,0.2532,149.0,96.8,0.526
40.88,32008.8,34868.0,0.0349,-0.3229,149.0,96.8,0.526
40.9,31897.3,34778.4,-0.3886,-0.5438,149.0,96.8,0.526
40.92,31793.3,34705.3,-0.7838,-0.7239,149.0,96.8,0.526
40.94,31859.5,34656.9,-0.5324,-0.8431,149.0,96.8,0.526
40.96,31794.1,34707.2,-0.7808,-0.7193,149.0,96.8,0.526
40.98,31756.1,34452.7,-0.9249,-1.3463,149.0,96.8,0.526
41.0,31729.9,34571.7,-1.0246,-1.0532,149.0,96.8,0.526
41.02,31647.1,34476.9,-1.3389,-1.2867,149.0,96.8,0.526
41.04,31859.8,34563.1,-0.5312,-1.0742,149.0,96.8,0.526
41.06,31992.5,34776.6,-0.027,-0.5481,149.0,96.8,0.526
41.08,32009.0,35038.9,0.0355,0.0982,149.0,96.8,0.526
41.1,32296.5,35474.2,1.1277,1.1709,149.0,96.8,0.526
41.12,32326.9,35749.2,1.2431,1.8484,149.0,96.8,0.526
41.14,32346.0,35678.6,1.3158,1.6744,149.0,96.8,0.526
41.16,32290.5,35576.0,1.105,1.4216,149.0,96.8,0.526
41.18,32210.7,35384.1,0.8019,0.9488,149.0,96.8,0.526
41.2,32116.0,35295.4,0.4421,0.7302,149.0,96.8,0.526
41.22,32101.6,35028.5,0.3872,0.0727,149.0,96.8,0.526
41.24,32030.5,35048.8,0.1174,0.1226,149.0,96.8,0.526
41.26,31932.1,34912.6,-0.2564,-0.2131,149.0,96.8,0.526
41.28,32051.1,34829.5,0.1954,-0.4178,149.0,96.8,0.526
41.3,31908.5,34809.8,-0.3462,-0.4665,149.0,96.8,0.526
41.32,31757.3,34658.7,-0.9203,-0.8388,149.0,96.8,0.526
41.34,31853.2,34717.8,-0.5561,-0.6931,149.0,96.8,0.526
41.36,31816.5,34651.5,-0.6954,-0.8564,149.0,96.8,0.526
41.38,31862.5,34592.4,-0.5208,-1.002,149.0,96.8,0.526
41.4,31810.8,34483.7,-0.7171,-1.2699,149.0,96.8,0.526
41.42,31694.1,34486.3,-1.1605,-1.2636,149.0,96.8,0.526
41.44,31763.3,34455.7,-0.8976,-1.3388,149.0,96.8,0.526
41.46,31867.5,34645.8,-0.5018,-0.8706,149.0,96.8,0.526
41.48,32061.6,34983.8,0.2353,-0.0377,149.0,96.8,0.526
41.5,32105.0,35362.0,0.4003,0.8943,149.0,96.8,0.526
41.52,32333.0,35619.7,1.2663,1.5294,149.0,96.8,0.526
41.54,32315.5,35874.5,1.1996,2.1571,149.0,96.8,0.526
41.56,32338.5,35583.1,1.2871,1.439,149.0,96.8,0.526
41.58,32251.9,35427.2,0.9581,1.055,149.0,96.8,0.526
41.6,32120.6,35267.1,0.4597,0.6604,149.0,96.8,0.526
41.62,32013.9,35150.1,0.0542,0.3721,149.0,96.8,0.526
41.64,32072.0,35062.9,0.275,0.1574,149.0,96.8,0.526
41.66,32022.8,35003.2,0.0879,0.0103,149.0,96.8,0.526
41.68,31980.5,35012.8,-0.0727,0.0338,149.0,96.8,0.526
41.7,31929.1,34800.0,-0.2677,-0.4904,149.0,96.8,0.526
41.72,31887.5,34724.4,-0.4259,-0.6769,149.0,96.8,0.526
41.74,31780.4,34733.3,-0.8328,-0.6548,149.0,96.8,0.526
41.76,31888.7,34634.5,-0.4212,-0.8984,149.0,96.8,0.526
41.78,31803.5,34643.1,-0.7451,-0.8771,149.0,96.8,0.526
41.8,31811.3,34601.0,-0.7153,-0.9809,149.0,96.8,0.526
41.82,31771.6,34398.0,-0.8661,-1.4812,149.0,96.8,0.526
41.84,31725.1,34432.9,-1.0429,-1.3952,149.0,96.8,0.526
41.86,31827.4,34652.2,-0.6541,-0.8548,149.0,96.8,0.526
41.88,31990.5,34905.5,-0.0345,-0.2307,149.0,96.8,0.526
41.9,32206.6,35399.3,0.7863,0.9863,149.0,96.8,0.526
41.92,32263.9,35598.4,1.0038,1.477,149.0,96.8,0.526
41.94,32393.0,35783.1,1.494,1.932,149.0,96.8,0.526
41.96,32293.8,35654.8,1.1173,1.6159,149.0,96.8,0.526
41.98,32259.2,35433.1,0.9859,1.0694,149.0,96.8,0.526
42.0,32142.9,35238.0,0.5442,0.5887,149.0,96.8,0.526
42.02,32166.6,35175.3,0.6342,0.4343,149.0,96.8,0.526
42.04,32048.2,35117.0,0.1846,0.2907,149.0,96.8,0.526
42.06,31971.6,35032.8,-0.1063,0.0832,149.0,96.8,0.526
42.08,31914.3,34967.5,-0.324,-0.0777,149.0,96.8,0.526
42.1,31911.3,34827.6,-0.3355,-0.4224,149.0,96.8,0.526
42.12,31832.5,34754.5,-0.6349,-0.6025,149.0,96.8,0.526
42.14,31879.4,34644.3,-0.4566,-0.8743,149.0,96.8,0.526
42.16,31840.5,34680.5,-0.6043,-0.785,149.0,96.8,0.526
42.18,31780.5,34676.2,-0.8324,-0.7956,149.0,96.8,0.526
42.2,31743.1,34471.3,-0.9743,-1.3005,149.0,96.8,0.526
42.22,31800.6,34458.8,-0.7559,-1.3313,149.0,96.8,0.526
42.24,31778.0,34436.0,-0.8417,-1.3875,149.0,96.8,0.526
42.26,31862.4,34625.4,-0.5212,-0.9209,149.0,96.8,0.526
42.28,31976.0,34870.5,-0.0899,-0.3169,149.0,96.8,0.526
42.3,32133.9,35355.3,0.51,0.8778,149.0,96.8,0.526
42.32,32323.0,35699.0,1.2281,1.7246,149.0,96.8,0.526
42.34,32412.4,35755.9,1.568,1.8649,149.0,96.8,0.526
42.36,32355.7,35732.7,1.3523,1.8078,149.0,96.8,0.526
42.38,32262.8,35503.3,0.9996,1.2424,149.0,96.8,0.526
42.4,32177.7,35231.2,0.6764,0.5719,149.0,96.8,0.526
42.42,32059.0,35208.7,0.2256,0.5166,149.0,96.8,0.526
42.44,32133.4,35126.4,0.5082,0.3138,149.0,96.8,0.526
42.46,31974.2,34990.9,-0.0966,-0.0202,149.0,96.8,0.526
42.48,31970.9,34965.6,-0.1093,-0.0825,149.0,96.8,0.526
42.5,31911.9,34956.7,-0.333,-0.1045,149.0,96.8,0.526
42.52,31909.7,34765.4,-0.3416,-0.5759,149.0,96.8,0.526
42.54,31770.4,34691.0,-0.8705,-0.7591,149.0,96.8,0.526
42.56,31814.4,34637.4,-0.7037,-0.8911,149.0,96.8,0.526
42.58,31849.5,34673.9,-0.5703,-0.8013,149.0,96.8,0.526
42.6,31820.6,34601.6,-0.6799,-0.9794,149.0,96.8,0.526
42.62,31765.7,34490.2,-0.8886,-1.2538,149.0,96.8,0.526
42.64,31786.1,34440.8,-0.8111,-1.3757,149.0,96.8,0.526
42.66,31772.0,34566.7,-0.8646,-1.0654,149.0,96.8,0.526
42.68,31903.1,34885.9,-0.3665,-0.279,149.0,96.8,0.526
42.7,32110.2,35181.6,0.4199,0.4497,149.0,96.8,0.526
42.72,32323.8,35575.8,1.2315,1.4212,149.0,96.8,0.526
42.74,32299.2,35814.3,1.1377,2.0088,149.0,96.8,0.526
42.76,32388.1,35673.8,1.4755,1.6626,149.0,96.8,0.526
42.78,32214.1,35574.9,0.8146,1.419,149.0,96.8,0.526
42.8,32193.2,35301.2,0.7354,0.7446,149.0,96.8,0.526
42.82,32109.3,35234.3,0.4164,0.5796,149.0,96.8,0.526
42.84,31976.0,35141.6,-0.0896,0.3512,149.0,96.8,0.526
42.86,32049.3,35042.0,0.1888,0.1058,149.0,96.8,0.526
42.88,31918.3,35052.0,-0.3088,0.1304,149.0,96.8,0.526
42.9,31882.9,34828.9,-0.4433,-0.4193,149.0,96.8,0.526
42.92,31902.5,34777.6,-0.369,-0.5458,149.0,96.8,0.526
42.94,31838.5,34767.0,-0.6119,-0.5719,149.0,96.8,0.526
42.96,31797.9,34635.5,-0.7663,-0.896,149.0,96.8,0.526
42.98,31815.8,34593.0,-0.6984,-1.0005,149.0,96.8,0.526
43.0,31861.7,34668.9,-0.524,-0.8136,149.0,96.8,0.526
43.02,31693.0,34535.9,-1.1646,-1.1412,149.0,96.8,0.526
43.04,31718.8,34459.3,-1.0665,-1.33,149.0,96.8,0.526
43.06,31714.7,34567.6,-1.0822,-1.0633,149.0,96.8,0.526
43.08,31868.0,34748.2,-0.5001,-0.6182,149.0,96.8,0.526
43.1,32243.4,35198.5,0.9258,0.4915,149.0,96.8,0.526
43.12,32233.6,35515.2,0.8886,1.2718,149.0,96.8,0.526
43.14,32317.2,35686.9,1.2062,1.695,149.0,96.8,0.526
43.16,32398.9,35668.6,1.5166,1.6498,149.0,96.8,0.526
43.18,32314.2,35499.9,1.1947,1.2342,149.0,96.8,0.526
43.2,32156.7,35343.9,0.5964,0.8497,149.0,96.8,0.526
43.22,32116.5,35075.8,0.4438,0.1892,149.0,96.8,0.526
43.24,32001.2,35063.4,0.0061,0.1585,149.0,96.8,0.526
43.26,32034.3,35116.4,0.1315,0.2892,149.0,96.8,0.526
43.28,31992.1,35020.5,-0.0288,0.0527,149.0,96.8,0.526
43.3,31948.0,34873.8,-0.1963,-0.3087,149.0,96.8,0.526
43.32,31945.2,34750.1,-0.2067,-0.6135,149.0,96.8,0.526
43.34,31815.4,34686.3,-0.6996,-0.7706,149.0,96.8,0.526
43.36,31866.3,34609.0,-0.5066,-0.9611,149.0,96.8,0.526
43.38,31844.0,34741.7,-0.591,-0.6341,149.0,96.8,0.526
43.4,31809.8,34580.0,-0.7211,-1.0325,149.0,96.8,0.526
43.42,31764.4,34451.8,-0.8935,-1.3485,149.0,96.8,0.526
43.44,31781.8,34474.4,-0.8272,-1.2928,149.0,96.8,0.526
43.46,31801.7,34544.8,-0.7517,-1.1193,149.0,96.8,0.526
43.48,31821.7,34793.8,-0.6759,-0.5058,149.0,96.8,0.526
43.5,32077.7,35171.7,0.2964,0.4254,149.0,96.8,0.526
43.52,32295.6,35467.9,1.1244,1.1553,149.0,96.8,0.526
43.54,32340.1,35685.9,1.2932,1.6924,149.0,96.8,0.526
43.56,32395.8,35629.6,1.5048,1.5538,149.0,96.8,0.526
43.58,32222.3,35589.1,0.8459,1.4538,149.0,96.8,0.526
43.6,32224.6,35367.5,0.8547,0.9079,149.0,96.8,0.526
43.62,32104.4,35193.7,0.3979,0.4796,149.0,96.8,0.526
43.64,32090.7,35129.4,0.346,0.3213,149.0,96.8,0.526
43.66,32074.9,35087.0,0.2859,0.2167,149.0,96.8,0.526
43.68,32016.1,34988.9,0.0627,-0.025,149.0,96.8,0.526
43.7,32006.6,34918.9,0.0264,-0.1976,149.0,96.8,0.526
43.72,31926.7,34803.3,-0.2772,-0.4825,149.0,96.8,0.526
43.74,31800.1,34704.3,-0.7579,-0.7263,149.0,96.8,0.526
43.76,31895.9,34688.6,-0.394,-0.7649,149.0,96.8,0.526
43.78,31763.1,34696.2,-0.8986,-0.7463,149.0,96.8,0.526
43.8,31840.2,34589.1,-0.6057,-1.0101,149.0,96.8,0.526
43.82,31813.7,34579.1,-0.7062,-1.0348,149.0,96.8,0.526
43.84,31698.1,34455.6,-1.1454,-1.3392,149.0,96.8,0.526
43.86,31766.3,34537.3,-0.8863,-1.1379,149.0,96.8,0.526
43.88,31801.5,34762.6,-0.7525,-0.5826,149.0,96.8,0.526
43.9,32049.8,35105.7,0.1905,0.2627,149.0,96.8,0.526
43.92,32221.8,35514.4,0.8438,1.27,149.0,96.8,0.526
43.94,32366.2,35617.0,1.3922,1.5227,149.0,96.8,0.526
43.96,32320.1,35746.2,1.2172,1.8411,149.0,96.8,0.526
43.98,32340.1,35568.3,1.2932,1.4027,149.0,96.8,0.526
44.0,32184.5,35434.8,0.7023,1.0738,149.0,96.8,0.526
44.02,32122.8,35192.8,0.4679,0.4774,149.0,96.8,0.526
44.04,31988.6,35182.9,-0.042,0.4529,149.0,96.8,0.526
44.06,32033.3,35062.6,0.128,0.1566,149.0,96.8,0.526
44.08,32043.5,35078.0,0.1666,0.1945,149.0,96.8,0.526
44.1,31994.5,35005.9,-0.0195,0.0168,149.0,96.8,0.526
44.12,31950.6,34954.4,-0.1861,-0.1101,149.0,96.8,0.526
44.14,31928.0,34765.0,-0.2722,-0.5767,149.0,96.8,0.526
44.16,31858.8,34653.7,-0.535,-0.8509,149.0,96.8,0.526
44.18,31820.9,34637.3,-0.679,-0.8914,149.0,96.8,0.526
44.2,31814.8,34636.8,-0.7022,-0.8925,149.0,96.8,0.526
44.22,31826.8,34672.3,-0.6565,-0.8051,149.0,96.8,0.526
44.24,31620.6,34490.1,-1.4398,-1.2542,149.0,96.8,0.526
44.26,31734.8,34470.0,-1.0059,-1.3036,149.0,96.8,0.526
44.28,31877.4,34740.9,-0.4643,-0.6361,149.0,96.8,0.526
44.3,32068.6,35112.3,0.2621,0.2791,149.0,96.8,0.526
44.32,32200.2,35456.5,0.7617,1.1271,149.0,96.8,0.526
44.34,32377.2,35731.2,1.4342,1.8041,149.0,96.8,0.526
44.36,32370.4,35768.6,1.4084,1.8962,149.0,96.8,0.526
44.38,32185.4,35660.2,0.7055,1.6292,149.0,96.8,0.526
44.4,32166.5,35367.2,0.6337,0.9071,149.0,96.8,0.526
44.42,32164.7,35305.8,0.6271,0.7557,149.0,96.8,0.526
44.44,32077.8,35073.3,0.297,0.1829,149.0,96.8,0.526
44.46,31966.1,35069.9,-0.1275,0.1744,149.0,96.8,0.526
44.48,32038.8,35000.1,0.1486,0.0025,149.0,96.8,0.526
44.5,31947.2,34863.0,-0.1991,-0.3353,149.0,96.8,0.526
44.52,31881.4,34769.0,-0.4491,-0.5668,149.0,96.8,0.526
44.54,31866.2,34746.4,-0.5068,-0.6225,149.0,96.8,0.526
44.56,31943.3,34653.1,-0.2138,-0.8526,149.0,96.8,0.526
44.58,31819.8,34684.8,-0.6829,-0.7744,149.0,96.8,0.526
44.6,31907.2,34598.8,-0.3512,-0.9864,149.0,96.8,0.526
44.62,31773.5,34508.1,-0.8589,-1.2097,149.0,96.8,0.526
44.64,31717.6,34502.2,-1.0711,-1.2243,149.0,96.8,0.526
44.66,31743.7,34458.9,-0.972,-1.331,149.0,96.8,0.526
44.68,31879.7,34676.7,-0.4556,-0.7944,149.0,96.8,0.526
44.7,31936.3,35006.7,-0.2406,0.0188,149.0,96.8,0.526
44.72,32145.5,35400.2,0.5541,0.9884,149.0,96.8,0.526
44.74,32250.3,35773.0,0.9522,1.9071,149.0,96.8,0.526
44.76,32357.2,35750.7,1.3582,1.8522,149.0,96.8,0.526
44.78,32334.4,35659.7,1.2718,1.628,149.0,96.8,0.526
44.8,32176.5,35524.3,0.6718,1.2943,149.0,96.8,0.526
44.82,32158.4,35224.8,0.603,0.5562,149.0,96.8,0.526
44.84,32032.7,35066.8,0.1257,0.1669,149.0,96.8,0.526
