timestamp,raw_red,raw_ir,filtered_red,filtered_ir,heart_rate,spo2,ac_dc_ratio
0.0,32103.8,35255.9,0.1475,0.2853,149.2,97.7,0.493
0.02,32176.1,35499.8,0.2475,0.5828,149.2,97.7,0.493
0.04,32315.5,35779.7,0.4402,0.9241,149.2,97.7,0.493
0.06,32359.0,35650.0,0.5005,0.766,149.2,97.7,0.493
0.08,32258.2,35597.5,0.3611,0.7019,149.2,97.7,0.493
0.1,32092.6,35411.5,0.132,0.475,149.2,97.7,0.493
0.12,32103.7,35206.9,0.1474,0.2255,149.2,97.7,0.493
0.14,32077.0,35121.4,0.1104,0.1212,149.2,97.7,0.493
0.16,32055.7,35071.8,0.081,0.0608,149.2,97.7,0.493
0.18,32014.7,34866.2,0.0243,-0.19,149.2,97.7,0.493
0.2,31895.0,34906.4,-0.1412,-0.141,149.2,97.7,0.493
0.22,31840.5,34857.5,-0.2166,-0.2007,149.2,97.7,0.493
0.24,31855.5,34793.4,-0.1958,-0.2788,149.2,97.7,0.493
0.26,31834.7,34696.0,-0.2246,-0.3977,149.2,97.7,0.493
0.28,31891.8,34680.5,-0.1456,-0.4165,149.2,97.7,0.493
0.3,31866.2,34629.6,-0.1811,-0.4786,149.2,97.7,0.493
0.32,31836.3,34516.7,-0.2224,-0.6163,149.2,97.7,0.493
0.34,31800.1,34453.4,-0.2725,-0.6935,149.2,97.7,0.493
0.36,31729.7,34522.6,-0.3699,-0.6092,149.2,97.7,0.493
0.38,31920.9,34719.4,-0.1055,-0.369,149.2,97.7,0.493
0.4,32039.5,35078.4,0.0586,0.0688,149.2,97.7,0.493
0.42,32143.9,35521.8,0.203,0.6095,149.2,97.7,0.493
0.44,32353.8,35751.9,0.4932,0.8902,149.2,97.7,0.493
0.46,32319.7,35806.1,0.4462,0.9563,149.2,97.7,0.493
0.48,32230.1,35556.4,0.3221,0.6517,149.2,97.7,0.493
0.5,32164.2,35326.5,0.2311,0.3714,149.2,97.7,0.493
0.52,32162.7,35203.9,0.2289,0.2219,149.2,97.7,0.493
0.54,32018.9,35097.0,0.0301,0.0915,149.2,97.7,0.493
0.56,32089.0,35091.6,0.1271,0.0848,149.2,97.7,0.493
0.58,31993.4,34930.3,-0.0052,-0.1118,149.2,97.7,0.493
0.6,31963.9,34929.7,-0.046,-0.1126,149.2,97.7,0.493
0.62,31843.2,34841.4,-0.2129,-0.2203,149.2,97.7,0.493
0.64,31875.6,34778.7,-0.1681,-0.2968,149.2,97.7,0.493
0.66,31852.4,34634.1,-0.2002,-0.4731,149.2,97.7,0.493
0.68,31849.1,34624.6,-0.2047,-0.4847,149.2,97.7,0.493
0.7,31847.3,34670.6,-0.2073,-0.4285,149.2,97.7,0.493
0.72,31732.8,34604.7,-0.3656,-0.509,149.2,97.7,0.493
0.74,31719.5,34448.5,-0.384,-0.6995,149.2,97.7,0.493
0.76,31723.4,34541.7,-0.3786,-0.5858,149.2,97.7,0.493
0.78,31864.7,34684.2,-0.1831,-0.412,149.2,97.7,0.493
0.8,32047.1,35138.0,0.069,0.1415,149.2,97.7,0.493
0.82,32246.4,35504.7,0.3448,0.5887,149.2,97.7,0.493
0.84,32337.2,35802.1,0.4703,0.9514,149.2,97.7,0.493
0.86,32339.5,35780.0,0.4734,0.9244,149.2,97.7,0.493
0.88,32316.7,35539.9,0.4419,0.6317,149.2,97.7,0.493
0.9,32160.2,35356.7,0.2256,0.4082,149.2,97.7,0.493
0.92,32144.1,35227.8,0.2032,0.251,149.2,97.7,0.493
0.94,32009.7,35105.1,0.0173,0.1013,149.2,97.7,0.493
0.96,31991.2,35116.2,-0.0082,0.1149,149.2,97.7,0.493
0.98,32027.5,35051.2,0.0421,0.0355,149.2,97.7,0.493
1.0,31988.9,34910.2,-0.0114,-0.1364,149.2,97.7,0.493
1.02,31840.4,34761.2,-0.2167,-0.3181,149.2,97.7,0.493
1.04,31920.7,34706.6,-0.1057,-0.3847,149.2,97.7,0.493
1.06,31888.7,34656.2,-0.1499,-0.4461,149.2,97.7,0.493
1.08,31718.8,34702.4,-0.3849,-0.3898,149.2,97.7,0.493
1.1,31792.1,34549.5,-0.2836,-0.5763,149.2,97.7,0.493
1.12,31747.3,34471.7,-0.3455,-0.6711,149.2,97.7,0.493
1.14,31790.3,34494.5,-0.2861,-0.6434,149.2,97.7,0.493
1.16,31823.2,34476.3,-0.2405,-0.6655,149.2,97.7,0.493
1.18,31912.4,34619.8,-0.1171,-0.4905,149.2,97.7,0.493
1.2,32057.2,35141.1,0.0831,0.1453,149.2,97.7,0.493
1.22,32168.3,35538.7,0.2367,0.6302,149.2,97.7,0.493
1.24,32384.9,35751.4,0.5362,0.8896,149.2,97.7,0.493
1.26,32340.1,35745.0,0.4743,0.8818,149.2,97.7,0.493
1.28,32228.4,35593.3,0.3199,0.6968,149.2,97.7,0.493
1.3,32128.3,35414.4,0.1813,0.4786,149.2,97.7,0.493
1.32,32069.3,35243.6,0.0998,0.2703,149.2,97.7,0.493
1.34,32144.4,35125.8,0.2036,0.1266,149.2,97.7,0.493
1.36,32061.0,35074.0,0.0883,0.0635,149.2,97.7,0.493
1.38,31958.9,35029.8,-0.0529,0.0095,149.2,97.7,0.493
1.4,31898.2,35057.0,-0.1368,0.0427,149.2,97.7,0.493
1.42,31893.5,34773.7,-0.1433,-0.3029,149.2,97.7,0.493
1.44,31819.3,34655.7,-0.246,-0.4467,149.2,97.7,0.493
1.46,31854.5,34699.4,-0.1973,-0.3935,149.2,97.7,0.493
1.48,31836.0,34604.1,-0.2229,-0.5098,149.2,97.7,0.493
1.5,31864.2,34622.3,-0.1839,-0.4875,149.2,97.7,0.493
1.52,31843.0,34529.3,-0.2131,-0.601,149.2,97.7,0.493
1.54,31798.5,34372.2,-0.2748,-0.7926,149.2,97.7,0.493
1.56,31781.3,34385.5,-0.2984,-0.7763,149.2,97.7,0.493
1.58,31935.9,34678.1,-0.0847,-0.4194,149.2,97.7,0.493
1.6,32001.1,35117.7,0.0055,0.1167,149.2,97.7,0.493
1.62,32177.3,35418.1,0.2492,0.4831,149.2,97.7,0.493
1.64,32369.8,35733.2,0.5154,0.8674,149.2,97.7,0.493
1.66,32249.3,35696.2,0.3487,0.8223,149.2,97.7,0.493
1.68,32282.6,35602.6,0.3948,0.7081,149.2,97.7,0.493
1.7,32191.2,35473.1,0.2683,0.5502,149.2,97.7,0.493
1.72,32196.3,35337.0,0.2754,0.3842,149.2,97.7,0.493
1.74,32059.8,35109.3,0.0867,0.1065,149.2,97.7,0.493
1.76,32082.1,35114.0,0.1176,0.1122,149.2,97.7,0.493
1.78,32020.1,34915.6,0.0317,-0.1297,149.2,97.7,0.493
1.8,32006.9,34908.3,0.0135,-0.1387,149.2,97.7,0.493
1.82,31930.3,34761.4,-0.0925,-0.3179,149.2,97.7,0.493
1.84,31891.4,34742.1,-0.1463,-0.3414,149.2,97.7,0.493
1.86,31877.6,34644.4,-0.1654,-0.4606,149.2,97.7,0.493
1.88,31870.5,34651.0,-0.1751,-0.4525,149.2,97.7,0.493
1.9,31880.3,34661.5,-0.1616,-0.4397,149.2,97.7,0.493
1.92,31869.6,34570.1,-0.1764,-0.5512,149.2,97.7,0.493
1.94,31864.5,34524.7,-0.1834,-0.6065,149.2,97.7,0.493
1.96,31766.1,34514.6,-0.3196,-0.6189,149.2,97.7,0.493
1.98,31818.7,34692.2,-0.2468,-0.4023,149.2,97.7,0.493
2.0,31997.4,34896.8,0.0004,-0.1527,149.2,97.7,0.493
2.02,32147.8,35371.1,0.2084,0.4257,149.2,97.7,0.493
2.04,32243.0,35678.1,0.3401,0.8001,149.2,97.7,0.493
2.06,32294.0,35739.0,0.4106,0.8745,149.2,97.7,0.493
2.08,32179.2,35644.0,0.2518,0.7586,149.2,97.7,0.493
2.1,32184.5,35536.7,0.2592,0.6277,149.2,97.7,0.493
2.12,32009.6,35278.7,0.0172,0.3131,149.2,97.7,0.493
2.14,31977.3,35107.2,-0.0275,0.104,149.2,97.7,0.493
2.16,32021.5,35023.9,0.0336,0.0023,149.2,97.7,0.493
2.18,32025.4,35101.1,0.0391,0.0964,149.2,97.7,0.493
2.2,32016.0,34849.0,0.0261,-0.2111,149.2,97.7,0.493
2.22,31854.3,34797.5,-0.1975,-0.2739,149.2,97.7,0.493
2.24,31952.6,34710.6,-0.0616,-0.3798,149.2,97.7,0.493
2.26,31792.6,34677.8,-0.2829,-0.4198,149.2,97.7,0.493
2.28,31921.1,34654.1,-0.1051,-0.4487,149.2,97.7,0.493
2.3,31842.0,34620.6,-0.2146,-0.4895,149.2,97.7,0.493
2.32,31808.4,34590.2,-0.2611,-0.5266,149.2,97.7,0.493
2.34,31704.7,34447.3,-0.4044,-0.7009,149.2,97.7,0.493
2.36,31728.8,34358.2,-0.3711,-0.8096,149.2,97.7,0.493
2.38,31917.4,34588.2,-0.1103,-0.5291,149.2,97.7,0.493
2.4,31977.2,34948.7,-0.0276,-0.0894,149.2,97.7,0.493
2.42,32201.3,35318.9,0.2823,0.3621,149.2,97.7,0.493
2.44,32299.7,35660.5,0.4184,0.7787,149.2,97.7,0.493
2.46,32338.9,35802.3,0.4727,0.9517,149.2,97.7,0.493
2.48,32370.2,35654.9,0.5159,0.7719,149.2,97.7,0.493
2.5,32210.8,35466.1,0.2955,0.5417,149.2,97.7,0.493
2.52,32178.9,35316.7,0.2514,0.3595,149.2,97.7,0.493
2.54,31959.4,35116.1,-0.0522,0.1147,149.2,97.7,0.493
2.56,32013.9,35098.5,0.0232,0.0932,149.2,97.7,0.493
2.58,32047.8,35102.5,0.07,0.0982,149.2,97.7,0.493
2.6,32061.9,34905.2,0.0895,-0.1424,149.2,97.7,0.493
2.62,31954.3,34833.2,-0.0593,-0.2302,149.2,97.7,0.493
2.64,31849.3,34699.5,-0.2044,-0.3934,149.2,97.7,0.493
2.66,31928.7,34702.7,-0.0947,-0.3894,149.2,97.7,0.493
2.68,31760.4,34684.8,-0.3274,-0.4113,149.2,97.7,0.493
2.7,31884.4,34592.4,-0.1558,-0.524,149.2,97.7,0.493
2.72,31910.8,34521.6,-0.1194,-0.6103,149.2,97.7,0.493
2.74,31676.6,34446.8,-0.4433,-0.7016,149.2,97.7,0.493
2.76,31729.2,34481.0,-0.3705,-0.6598,149.2,97.7,0.493
2.78,31832.6,34592.7,-0.2275,-0.5236,149.2,97.7,0.493
2.8,31911.0,35032.1,-0.1191,0.0123,149.2,97.7,0.493
2.82,32164.4,35349.6,0.2313,0.3996,149.2,97.7,0.493
2.84,32220.0,35660.7,0.3083,0.779,149.2,97.7,0.493
2.86,32391.6,35767.4,0.5455,0.9091,149.2,97.7,0.493
2.88,32336.6,35736.4,0.4694,0.8713,149.2,97.7,0.493
2.9,32266.6,35474.5,0.3727,0.5519,149.2,97.7,0.493
2.92,32200.7,35326.3,0.2815,0.3711,149.2,97.7,0.493
2.94,32119.7,35086.8,0.1695,0.0791,149.2,97.7,0.493
2.96,32158.4,35089.7,0.223,0.0825,149.2,97.7,0.493
2.98,31985.8,35061.4,-0.0157,0.0481,149.2,97.7,0.493
3.0,32021.9,35081.6,0.0343,0.0726,149.2,97.7,0.493
3.02,31993.3,34881.0,-0.0054,-0.1719,149.2,97.7,0.493
3.04,31823.0,34738.5,-0.2409,-0.3458,149.2,97.7,0.493
3.06,31870.7,34639.9,-0.1748,-0.466,149.2,97.7,0.493
3.08,31880.0,34650.2,-0.162,-0.4535,149.2,97.7,0.493
3.1,31877.5,34612.9,-0.1655,-0.4989,149.2,97.7,0.493
3.12,31800.8,34651.3,-0.2716,-0.4522,149.2,97.7,0.493
3.14,31785.9,34562.0,-0.2922,-0.561,149.2,97.7,0.493
3.16,31750.3,34386.2,-0.3414,-0.7754,149.2,97.7,0.493
3.18,31774.9,34573.7,-0.3073,-0.5468,149.2,97.7,0.493
3.2,31887.3,34989.9,-0.1519,-0.0392,149.2,97.7,0.493
3.22,32169.9,35237.1,0.239,0.2623,149.2,97.7,0.493
3.24,32295.0,35566.3,0.412,0.6638,149.2,97.7,0.493
3.26,32342.7,35727.4,0.4779,0.8603,149.2,97.7,0.493
3.28,32268.8,35708.4,0.3757,0.8372,149.2,97.7,0.493
3.3,32151.5,35600.7,0.2135,0.7058,149.2,97.7,0.493
3.32,32116.6,35302.2,0.1653,0.3417,149.2,97.7,0.493
3.34,32055.4,35167.8,0.0806,0.1778,149.2,97.7,0.493
3.36,32022.4,35208.8,0.0349,0.2278,149.2,97.7,0.493
3.38,32039.8,35125.6,0.059,0.1263,149.2,97.7,0.493
3.4,31990.3,34982.0,-0.0095,-0.0488,149.2,97.7,0.493
3.42,31992.2,34847.3,-0.0069,-0.213,149.2,97.7,0.493
3.44,31848.6,34765.9,-0.2055,-0.3123,149.2,97.7,0.493
3.46,31788.5,34678.0,-0.2886,-0.4196,149.2,97.7,0.493
3.48,31769.3,34509.9,-0.3151,-0.6246,149.2,97.7,0.493
3.5,31814.2,34665.5,-0.2529,-0.4349,149.2,97.7,0.493
3.52,31869.3,34611.5,-0.1767,-0.5007,149.2,97.7,0.493
3.54,31775.7,34435.9,-0.3062,-0.7148,149.2,97.7,0.493
3.56,31652.8,34361.9,-0.4762,-0.8051,149.2,97.7,0.493
3.58,31805.0,34608.1,-0.2657,-0.5048,149.2,97.7,0.493
3.6,31917.1,34871.2,-0.1106,-0.1839,149.2,97.7,0.493
3.62,32036.0,35126.4,0.0537,0.1273,149.2,97.7,0.493
3.64,32212.5,35541.5,0.2979,0.6335,149.2,97.7,0.493
3.66,32327.6,35798.6,0.457,0.9472,149.2,97.7,0.493
3.68,32243.1,35753.7,0.3402,0.8924,149.2,97.7,0.493
3.7,32164.0,35450.1,0.2308,0.5221,149.2,97.7,0.493
3.72,32157.1,35327.9,0.2212,0.3731,149.2,97.7,0.493
3.74,32109.6,35237.3,0.1556,0.2626,149.2,97.7,0.493
3.76,32085.9,35116.5,0.1227,0.1153,149.2,97.7,0.493
3.78,32031.3,35057.7,0.0472,0.0436,149.2,97.7,0.493
3.8,31950.2,34973.0,-0.0649,-0.0597,149.2,97.7,0.493
3.82,31980.4,34851.8,-0.0231,-0.2076,149.2,97.7,0.493
3.84,31942.6,34759.0,-0.0755,-0.3208,149.2,97.7,0.493
3.86,31793.2,34736.1,-0.2821,-0.3487,149.2,97.7,0.493
3.88,31769.4,34645.3,-0.315,-0.4595,149.2,97.7,0.493
3.9,31861.2,34627.7,-0.1881,-0.481,149.2,97.7,0.493
3.92,31843.0,34522.4,-0.2132,-0.6094,149.2,97.7,0.493
3.94,31743.0,34565.4,-0.3514,-0.5569,149.2,97.7,0.493
3.96,31721.1,34437.7,-0.3817,-0.7127,149.2,97.7,0.493
3.98,31812.9,34612.4,-0.2549,-0.4996,149.2,97.7,0.493
4.0,31852.1,34832.4,-0.2005,-0.2313,149.2,97.7,0.493
4.02,32031.1,35166.6,0.047,0.1763,149.2,97.7,0.493
4.04,32260.4,35528.0,0.364,0.6172,149.2,97.7,0.493
4.06,32338.5,35801.6,0.472,0.9508,149.2,97.7,0.493
4.08,32344.0,35748.6,0.4798,0.8862,149.2,97.7,0.493
4.1,32245.2,35525.4,0.3431,0.6139,149.2,97.7,0.493
4.12,32207.3,35298.7,0.2906,0.3375,149.2,97.7,0.493
4.14,32120.0,35211.0,0.1699,0.2305,149.2,97.7,0.493
4.16,31992.4,35195.5,-0.0066,0.2116,149.2,97.7,0.493
4.18,32080.3,35087.7,0.115,0.0801,149.2,97.7,0.493
4.2,32044.9,34968.4,0.0661,-0.0654,149.2,97.7,0.493
4.22,31920.2,34903.5,-0.1065,-0.1445,149.2,97.7,0.493
4.24,31935.7,34806.7,-0.085,-0.2626,149.2,97.7,0.493
4.26,31904.1,34752.2,-0.1286,-0.3291,149.2,97.7,0.493
4.28,31836.5,34718.0,-0.2222,-0.3707,149.2,97.7,0.493
4.3,31874.0,34589.5,-0.1704,-0.5275,149.2,97.7,0.493
4.32,31772.3,34543.5,-0.3109,-0.5836,149.2,97.7,0.493
4.34,31796.2,34418.8,-0.2778,-0.7357,149.2,97.7,0.493
4.36,31743.5,34463.9,-0.3508,-0.6807,149.2,97.7,0.493
4.38,31819.7,34548.5,-0.2454,-0.5775,149.2,97.7,0.493
4.4,31948.5,34713.9,-0.0672,-0.3758,149.2,97.7,0.493
4.42,32051.1,35153.7,0.0746,0.1606,149.2,97.7,0.493
4.44,32199.8,35577.4,0.2803,0.6774,149.2,97.7,0.493
4.46,32336.0,35772.5,0.4686,0.9153,149.2,97.7,0.493
4.48,32310.9,35792.0,0.4339,0.9391,149.2,97.7,0.493
4.5,32327.1,35517.2,0.4564,0.604,149.2,97.7,0.493
4.52,32223.9,35400.7,0.3135,0.4618,149.2,97.7,0.493
4.54,32119.6,35207.6,0.1693,0.2263,149.2,97.7,0.493
4.56,32084.8,35026.1,0.1212,0.005,149.2,97.7,0.493
4.58,32054.0,35008.3,0.0786,-0.0167,149.2,97.7,0.493
4.6,31936.4,35027.2,-0.0841,0.0063,149.2,97.7,0.493
4.62,31960.0,34934.6,-0.0514,-0.1066,149.2,97.7,0.493
4.64,32005.8,34897.4,0.012,-0.152,149.2,97.7,0.493
4.66,31903.6,34759.8,-0.1293,-0.3198,149.2,97.7,0.493
4.68,31708.4,34643.3,-0.3994,-0.4619,149.2,97.7,0.493
4.7,31832.4,34580.7,-0.2279,-0.5382,149.2,97.7,0.493
4.72,31839.7,34691.6,-0.2177,-0.403,149.2,97.7,0.493
4.74,31826.5,34605.3,-0.236,-0.5083,149.2,97.7,0.493
4.76,31684.8,34508.5,-0.432,-0.6263,149.2,97.7,0.493
4.78,31738.4,34461.1,-0.3578,-0.6841,149.2,97.7,0.493
4.8,31920.0,34747.8,-0.1067,-0.3345,149.2,97.7,0.493
4.82,32088.3,35089.7,0.126,0.0825,149.2,97.7,0.493
4.84,32101.3,35507.0,0.1441,0.5915,149.2,97.7,0.493
4.86,32303.7,35672.6,0.424,0.7934,149.2,97.7,0.493
4.88,32369.0,35826.2,0.5143,0.9808,149.2,97.7,0.493
4.9,32361.0,35622.1,0.5032,0.7319,149.2,97.7,0.493
4.92,32181.0,35437.5,0.2543,0.5067,149.2,97.7,0.493
4.94,32113.4,35249.7,0.1607,0.2776,149.2,97.7,0.493
4.96,32042.6,35084.0,0.0629,0.0756,149.2,97.7,0.493
4.98,32011.1,35087.0,0.0194,0.0793,149.2,97.7,0.493
5.0,32003.8,35034.4,0.0091,0.0151,149.2,97.7,0.493
5.02,31956.9,34835.8,-0.0557,-0.2272,149.2,97.7,0.493
5.04,31912.1,34844.8,-0.1176,-0.2161,149.2,97.7,0.493
5.06,31848.1,34710.3,-0.2062,-0.3802,149.2,97.7,0.493
5.08,31817.3,34735.0,-0.2487,-0.3501,149.2,97.7,0.493
5.1,31810.2,34627.9,-0.2586,-0.4806,149.2,97.7,0.493
5.12,31796.0,34601.0,-0.2782,-0.5135,149.2,97.7,0.493
5.14,31744.3,34526.3,-0.3497,-0.6046,149.2,97.7,0.493
5.16,31781.1,34419.9,-0.2988,-0.7344,149.2,97.7,0.493
5.18,31752.9,34472.9,-0.3377,-0.6698,149.2,97.7,0.493
5.2,31835.1,34763.4,-0.2242,-0.3154,149.2,97.7,0.493
5.22,32070.4,35071.7,0.1013,0.0606,149.2,97.7,0.493
5.24,32234.4,35460.4,0.3282,0.5347,149.2,97.7,0.493
5.26,32380.8,35744.6,0.5306,0.8813,149.2,97.7,0.493
5.28,32390.5,35882.7,0.5441,1.0497,149.2,97.7,0.493
5.3,32390.2,35659.2,0.5436,0.7771,149.2,97.7,0.493
5.32,32268.4,35507.0,0.3751,0.5915,149.2,97.7,0.493
5.34,32042.2,35275.4,0.0623,0.309,149.2,97.7,0.493
5.36,32017.3,35149.0,0.0278,0.1549,149.2,97.7,0.493
5.38,32023.8,35108.4,0.0369,0.1054,149.2,97.7,0.493
5.4,32074.7,34949.8,0.1073,-0.088,149.2,97.7,0.493
5.42,31981.5,34951.5,-0.0217,-0.0859,149.2,97.7,0.493
5.44,31932.5,34814.9,-0.0894,-0.2525,149.2,97.7,0.493
5.46,31926.3,34733.8,-0.0979,-0.3515,149.2,97.7,0.493
5.48,31941.4,34660.7,-0.0771,-0.4407,149.2,97.7,0.493
5.5,31868.6,34661.0,-0.1778,-0.4403,149.2,97.7,0.493
5.52,31865.5,34682.3,-0.182,-0.4143,149.2,97.7,0.493
5.54,31779.7,34515.3,-0.3007,-0.618,149.2,97.7,0.493
5.56,31723.8,34462.2,-0.3781,-0.6827,149.2,97.7,0.493
5.58,31775.3,34467.2,-0.3068,-0.6767,149.2,97.7,0.493
5.6,31862.0,34703.5,-0.1869,-0.3884,149.2,97.7,0.493
5.62,32096.5,35029.9,0.1374,0.0096,149.2,97.7,0.493
5.64,32198.1,35401.7,0.2779,0.4631,149.2,97.7,0.493
5.66,32243.3,35825.2,0.3405,0.9796,149.2,97.7,0.493
5.68,32386.9,35823.9,0.5391,0.9781,149.2,97.7,0.493
5.7,32243.2,35692.2,0.3403,0.8174,149.2,97.7,0.493
5.72,32139.7,35473.1,0.1972,0.5502,149.2,97.7,0.493
5.74,32079.5,35259.7,0.1139,0.2899,149.2,97.7,0.493
5.76,31999.8,35087.9,0.0037,0.0803,149.2,97.7,0.493
5.78,32143.0,35067.3,0.2018,0.0552,149.2,97.7,0.493
5.8,31971.5,35069.1,-0.0354,0.0575,149.2,97.7,0.493
5.82,31932.3,34885.4,-0.0897,-0.1666,149.2,97.7,0.493
5.84,31881.6,34815.2,-0.1598,-0.2522,149.2,97.7,0.493
5.86,31859.0,34837.9,-0.1911,-0.2245,149.2,97.7,0.493
5.88,31827.1,34646.6,-0.2352,-0.4579,149.2,97.7,0.493
5.9,31889.3,34627.2,-0.1491,-0.4816,149.2,97.7,0.493
5.92,31842.7,34663.4,-0.2136,-0.4374,149.2,97.7,0.493
5.94,31712.0,34538.0,-0.3944,-0.5903,149.2,97.7,0.493
5.96,31756.3,34501.5,-0.3331,-0.6348,149.2,97.7,0.493
5.98,31815.6,34524.1,-0.251,-0.6073,149.2,97.7,0.493
6.0,31752.1,34699.7,-0.3389,-0.393,149.2,97.7,0.493
6.02,32030.8,34938.3,0.0466,-0.1021,149.2,97.7,0.493
6.04,32123.0,35425.5,0.1741,0.4921,149.2,97.7,0.493
6.06,32220.2,35726.9,0.3084,0.8597,149.2,97.7,0.493
6.08,32407.9,35654.8,0.5681,0.7717,149.2,97.7,0.493
6.1,32334.1,35621.3,0.4661,0.7309,149.2,97.7,0.493
6.12,32132.6,35454.6,0.1874,0.5277,149.2,97.7,0.493
6.14,32174.2,35308.4,0.2449,0.3493,149.2,97.7,0.493
6.16,32097.7,35046.7,0.1391,0.0301,149.2,97.7,0.493
6.18,32071.3,35164.7,0.1026,0.1741,149.2,97.7,0.493
6.2,31991.2,35117.4,-0.0083,0.1164,149.2,97.7,0.493
6.22,32042.6,34974.3,0.0629,-0.0581,149.2,97.7,0.493
6.24,31840.1,34812.2,-0.2172,-0.256,149.2,97.7,0.493
6.26,31903.8,34762.4,-0.1291,-0.3166,149.2,97.7,0.493
6.28,31895.5,34672.3,-0.1406,-0.4265,149.2,97.7,0.493
6.3,31916.3,34610.3,-0.1118,-0.5021,149.2,97.7,0.493
6.32,31867.9,34674.8,-0.1787,-0.4235,149.2,97.7,0.493
6.34,31906.2,34548.9,-0.1258,-0.5771,149.2,97.7,0.493
6.36,31740.9,34374.5,-0.3544,-0.7897,149.2,97.7,0.493
6.38,31723.9,34466.9,-0.3779,-0.677,149.2,97.7,0.493
6.4,31810.6,34538.3,-0.258,-0.5899,149.2,97.7,0.493
6.42,32099.2,34994.0,0.1411,-0.0342,149.2,97.7,0.493
6.44,32121.2,35245.6,0.1715,0.2727,149.2,97.7,0.493
6.46,32388.3,35610.5,0.541,0.7178,149.2,97.7,0.493
6.48,32260.6,35707.0,0.3643,0.8355,149.2,97.7,0.493
6.5,32290.1,35615.9,0.4052,0.7243,149.2,97.7,0.493
6.52,32251.4,35434.7,0.3516,0.5034,149.2,97.7,0.493
6.54,32170.5,35254.4,0.2398,0.2834,149.2,97.7,0.493
6.56,32129.8,35097.1,0.1834,0.0916,149.2,97.7,0.493
6.58,32000.0,35145.9,0.0039,0.1511,149.2,97.7,0.493
6.6,32043.6,35003.9,0.0643,-0.0221,149.2,97.7,0.493
6.62,31946.1,34938.9,-0.0705,-0.1013,149.2,97.7,0.493
6.64,31992.0,34894.6,-0.0071,-0.1554,149.2,97.7,0.493
6.66,31869.1,34677.8,-0.177,-0.4198,149.2,97.7,0.493
6.68,31815.1,34670.4,-0.2517,-0.4289,149.2,97.7,0.493
6.7,31829.7,34660.2,-0.2315,-0.4413,149.2,97.7,0.493
6.72,31822.3,34593.4,-0.2418,-0.5227,149.2,97.7,0.493
6.74,31790.5,34476.2,-0.2858,-0.6657,149.2,97.7,0.493
6.76,31828.0,34468.4,-0.2339,-0.6752,149.2,97.7,0.493
6.78,31839.0,34430.4,-0.2187,-0.7216,149.2,97.7,0.493
6.8,31848.6,34515.8,-0.2054,-0.6174,149.2,97.7,0.493
6.82,31923.7,34912.4,-0.1015,-0.1337,149.2,97.7,0.493
6.84,32124.0,35271.5,0.1755,0.3043,149.2,97.7,0.493
6.86,32262.2,35527.4,0.3666,0.6164,149.2,97.7,0.493
6.88,32343.6,35710.7,0.4792,0.8399,149.2,97.7,0.493
6.9,32284.0,35663.2,0.3967,0.782,149.2,97.7,0.493
6.92,32202.1,35521.8,0.2834,0.6095,149.2,97.7,0.493
6.94,32172.0,35370.3,0.2419,0.4248,149.2,97.7,0.493
6.96,32061.7,35163.2,0.0893,0.1722,149.2,97.7,0.493
6.98,32033.9,35039.1,0.0509,0.0208,149.2,97.7,0.493
7.0,31899.9,35020.9,-0.1345,-0.0013,149.2,97.7,0.493
7.02,32019.1,34936.6,0.0303,-0.1041,149.2,97.7,0.493
7.04,31876.0,34810.5,-0.1676,-0.258,149.2,97.7,0.493
7.06,31899.5,34804.3,-0.135,-0.2656,149.2,97.7,0.493
7.08,31880.9,34755.3,-0.1608,-0.3253,149.2,97.7,0.493
7.1,31773.7,34639.4,-0.309,-0.4667,149.2,97.7,0.493
7.12,31861.6,34699.7,-0.1874,-0.3931,149.2,97.7,0.493
7.14,31836.8,34619.1,-0.2218,-0.4914,149.2,97.7,0.493
7.16,31789.2,34517.0,-0.2875,-0.6159,149.2,97.7,0.493
7.18,31801.8,34438.1,-0.2702,-0.7122,149.2,97.7,0.493
7.2,31722.8,34557.9,-0.3795,-0.566,149.2,97.7,0.493
7.22,31933.0,34809.3,-0.0887,-0.2594,149.2,97.7,0.493
7.24,32164.6,35260.7,0.2316,0.2911,149.2,97.7,0.493
7.26,32261.5,35652.4,0.3656,0.7688,149.2,97.7,0.493
7.28,32374.9,35758.0,0.5224,0.8977,149.2,97.7,0.493
7.3,32247.7,35693.7,0.3465,0.8192,149.2,97.7,0.493
7.32,32296.9,35492.1,0.4145,0.5734,149.2,97.7,0.493
7.34,32272.3,35284.5,0.3805,0.3201,149.2,97.7,0.493
7.36,32110.9,35130.8,0.1574,0.1326,149.2,97.7,0.493
7.38,31848.9,35182.7,-0.205,0.196,149.2,97.7,0.493
7.4,31974.7,34993.3,-0.031,-0.0351,149.2,97.7,0.493
7.42,32022.3,34946.6,0.0348,-0.092,149.2,97.7,0.493
7.44,31950.7,34892.8,-0.0642,-0.1576,149.2,97.7,0.493
7.46,31965.9,34747.1,-0.0432,-0.3353,149.2,97.7,0.493
7.48,31836.6,34676.8,-0.222,-0.421,149.2,97.7,0.493
7.5,31863.7,34690.2,-0.1845,-0.4047,149.2,97.7,0.493
7.52,31823.6,34620.4,-0.2399,-0.4898,149.2,97.7,0.493
7.54,31764.4,34553.2,-0.3219,-0.5718,149.2,97.7,0.493
7.56,31810.2,34454.5,-0.2586,-0.6922,149.2,97.7,0.493
7.58,31770.6,34498.1,-0.3133,-0.6389,149.2,97.7,0.493
7.6,31751.9,34454.5,-0.3392,-0.6922,149.2,97.7,0.493
7.62,31991.8,34773.7,-0.0074,-0.3028,149.2,97.7,0.493
7.64,32088.2,35142.3,0.126,0.1467,149.2,97.7,0.493
7.66,32317.0,35627.6,0.4424,0.7386,149.2,97.7,0.493
7.68,32333.0,35758.3,0.4645,0.898,149.2,97.7,0.493
7.7,32344.8,35748.6,0.4808,0.8862,149.2,97.7,0.493
7.72,32273.7,35514.3,0.3825,0.6005,149.2,97.7,0.493
7.74,32145.8,35315.5,0.2057,0.358,149.2,97.7,0.493
7.76,32099.9,35202.2,0.1422,0.2197,149.2,97.7,0.493
7.78,32040.4,35023.6,0.0598,0.0019,149.2,97.7,0.493
7.8,32040.4,35026.2,0.0598,0.0051,149.2,97.7,0.493
7.82,32055.0,35002.1,0.0801,-0.0243,149.2,97.7,0.493
7.84,31899.2,34778.2,-0.1354,-0.2974,149.2,97.7,0.493
7.86,31997.5,34723.5,0.0005,-0.3641,149.2,97.7,0.493
7.88,31940.2,34719.0,-0.0788,-0.3696,149.2,97.7,0.493
7.9,31849.3,34683.9,-0.2044,-0.4123,149.2,97.7,0.493
7.92,31855.2,34679.1,-0.1962,-0.4182,149.2,97.7,0.493
7.94,31731.1,34647.4,-0.368,-0.4569,149.2,97.7,0.493
7.96,31674.5,34491.0,-0.4461,-0.6477,149.2,97.7,0.493
7.98,31834.3,34474.1,-0.2252,-0.6683,149.2,97.7,0.493
8.0,31792.3,34449.0,-0.2833,-0.6988,149.2,97.7,0.493
8.02,31855.3,34767.7,-0.1961,-0.3101,149.2,97.7,0.493
8.04,32040.4,35133.7,0.0598,0.1362,149.2,97.7,0.493
8.06,32218.0,35463.2,0.3055,0.538,149.2,97.7,0.493
8.08,32352.6,35750.9,0.4917,0.8889,149.2,97.7,0.493
8.1,32385.6,35749.2,0.5373,0.8869,149.2,97.7,0.493
8.12,32318.5,35611.7,0.4444,0.7192,149.2,97.7,0.493
8.14,32138.8,35392.2,0.1959,0.4515,149.2,97.7,0.493
8.16,31999.0,35173.1,0.0026,0.1842,149.2,97.7,0.493
8.18,31984.8,35101.9,-0.0171,0.0974,149.2,97.7,0.493
8.2,32035.3,35053.3,0.0528,0.0382,149.2,97.7,0.493
8.22,31921.7,34963.3,-0.1043,-0.0716,149.2,97.7,0.493
8.24,31903.4,34923.8,-0.1296,-0.1198,149.2,97.7,0.493
8.26,31906.2,34754.7,-0.1258,-0.326,149.2,97.7,0.493
8.28,31879.8,34700.3,-0.1623,-0.3923,149.2,97.7,0.493
8.3,31904.5,34556.4,-0.1282,-0.5679,149.2,97.7,0.493
8.32,31817.5,34635.2,-0.2484,-0.4718,149.2,97.7,0.493
8.34,31817.2,34739.8,-0.2489,-0.3442,149.2,97.7,0.493
8.36,31782.0,34522.9,-0.2976,-0.6088,149.2,97.7,0.493
8.38,31829.6,34400.6,-0.2317,-0.7579,149.2,97.7,0.493
8.4,31696.4,34556.8,-0.4159,-0.5674,149.2,97.7,0.493
8.42,31933.8,34768.1,-0.0876,-0.3097,149.2,97.7,0.493
8.44,32066.4,35057.9,0.0957,0.0437,149.2,97.7,0.493
8.46,32188.5,35536.9,0.2647,0.6279,149.2,97.7,0.493
8.48,32318.0,35816.5,0.4438,0.969,149.2,97.7,0.493
8.5,32346.8,35705.6,0.4836,0.8337,149.2,97.7,0.493
8.52,32301.7,35565.1,0.4212,0.6623,149.2,97.7,0.493
8.54,32170.8,35340.4,0.2402,0.3883,149.2,97.7,0.493
8.56,32042.2,35219.1,0.0623,0.2404,149.2,97.7,0.493
8.58,32064.1,35198.3,0.0926,0.215,149.2,97.7,0.493
8.6,32030.6,35072.2,0.0463,0.0613,149.2,97.7,0.493
8.62,32012.9,35045.9,0.0217,0.0292,149.2,97.7,0.493
8.64,31985.8,34923.2,-0.0157,-0.1205,149.2,97.7,0.493
8.66,31920.8,34739.4,-0.1055,-0.3446,149.2,97.7,0.493
8.68,31906.2,34644.4,-0.1258,-0.4606,149.2,97.7,0.493
8.7,31788.0,34591.0,-0.2893,-0.5256,149.2,97.7,0.493
8.72,31804.4,34700.9,-0.2666,-0.3917,149.2,97.7,0.493
8.74,31797.0,34689.5,-0.2768,-0.4056,149.2,97.7,0.493
8.76,31803.7,34558.6,-0.2675,-0.5652,149.2,97.7,0.493
8.78,31737.4,34457.8,-0.3592,-0.6882,149.2,97.7,0.493
8.8,31841.8,34477.4,-0.2148,-0.6642,149.2,97.7,0.493
8.82,31883.5,34724.6,-0.1571,-0.3627,149.2,97.7,0.493
8.84,32078.8,35209.7,0.1129,0.229,149.2,97.7,0.493
8.86,32215.8,35357.4,0.3024,0.409,149.2,97.7,0.493
8.88,32301.8,35763.4,0.4214,0.9042,149.2,97.7,0.493
8.9,32310.7,35818.6,0.4336,0.9715,149.2,97.7,0.493
8.92,32271.6,35664.7,0.3796,0.7839,149.2,97.7,0.493
8.94,32083.2,35359.5,0.119,0.4116,149.2,97.7,0.493
8.96,32101.7,35241.5,0.1446,0.2677,149.2,97.7,0.493
8.98,32120.6,35152.4,0.1707,0.159,149.2,97.7,0.493
9.0,32049.4,35020.5,0.0723,-0.0019,149.2,97.7,0.493
9.02,31955.3,35036.8,-0.0579,0.018,149.2,97.7,0.493
9.04,31987.0,34911.8,-0.014,-0.1344,149.2,97.7,0.493
9.06,31904.8,34849.9,-0.1277,-0.2099,149.2,97.7,0.493
9.08,31864.0,34665.9,-0.1841,-0.4344,149.2,97.7,0.493
9.1,31882.7,34742.2,-0.1582,-0.3412,149.2,97.7,0.493
9.12,31779.8,34612.9,-0.3006,-0.499,149.2,97.7,0.493
9.14,31791.1,34524.5,-0.285,-0.6067,149.2,97.7,0.493
9.16,31779.5,34595.4,-0.301,-0.5203,149.2,97.7,0.493
9.18,31725.5,34551.5,-0.3757,-0.5738,149.2,97.7,0.493
9.2,31853.7,34540.6,-0.1984,-0.5871,149.2,97.7,0.493
9.22,31952.2,34692.5,-0.0622,-0.4019,149.2,97.7,0.493
9.24,31987.1,35033.4,-0.0139,0.0139,149.2,97.7,0.493
9.26,32171.2,35385.6,0.2407,0.4435,149.2,97.7,0.493
9.28,32392.2,35581.2,0.5464,0.682,149.2,97.7,0.493
9.3,32342.0,35781.0,0.4769,0.9257,149.2,97.7,0.493
9.32,32233.5,35599.1,0.3269,0.7039,149.2,97.7,0.493
9.34,32186.1,35384.8,0.2614,0.4424,149.2,97.7,0.493
9.36,32041.4,35216.9,0.0612,0.2377,149.2,97.7,0.493
9.38,32038.8,35234.7,0.0577,0.2594,149.2,97.7,0.493
9.4,32073.1,35085.4,0.105,0.0773,149.2,97.7,0.493
9.42,32092.9,35036.1,0.1324,0.0172,149.2,97.7,0.493
9.44,32052.6,34918.0,0.0767,-0.1269,149.2,97.7,0.493
9.46,31945.6,34806.7,-0.0713,-0.2626,149.2,97.7,0.493
9.48,31882.0,34728.6,-0.1593,-0.3578,149.2,97.7,0.493
9.5,31996.8,34687.1,-0.0005,-0.4085,149.2,97.7,0.493
9.52,31847.8,34608.3,-0.2065,-0.5046,149.2,97.7,0.493
9.54,31827.4,34618.9,-0.2348,-0.4916,149.2,97.7,0.493
9.56,31763.5,34529.7,-0.3231,-0.6005,149.2,97.7,0.493
9.58,31734.9,34418.7,-0.3627,-0.7358,149.2,97.7,0.493
9.6,31739.5,34499.3,-0.3563,-0.6375,149.2,97.7,0.493
9.62,31850.1,34616.2,-0.2034,-0.4949,149.2,97.7,0.493
9.64,32030.6,34989.2,0.0462,-0.04,149.2,97.7,0.493
9.66,32220.2,35404.9,0.3085,0.467,149.2,97.7,0.493
9.68,32357.0,35645.2,0.4977,0.76,149.2,97.7,0.493
9.7,32425.4,35763.0,0.5922,0.9037,149.2,97.7,0.493
9.72,32325.1,35740.6,0.4536,0.8764,149.2,97.7,0.493
9.74,32265.6,35533.6,0.3713,0.6239,149.2,97.7,0.493
9.76,32088.9,35272.5,0.1268,0.3055,149.2,97.7,0.493
9.78,32112.2,35104.8,0.1592,0.101,149.2,97.7,0.493
9.8,32094.8,35097.1,0.1351,0.0916,149.2,97.7,0.493
9.82,32024.5,35091.6,0.0379,0.0849,149.2,97.7,0.493
9.84,31910.8,34971.8,-0.1194,-0.0612,149.2,97.7,0.493
9.86,31945.7,34814.4,-0.0711,-0.2532,149.2,97.7,0.493
9.88,31879.5,34719.1,-0.1627,-0.3694,149.2,97.7,0.493
9.9,31955.2,34666.2,-0.0579,-0.4339,149.2,97.7,0.493
9.92,31815.3,34663.7,-0.2515,-0.437,149.2,97.7,0.493
9.94,31841.3,34546.1,-0.2155,-0.5804,149.2,97.7,0.493
9.96,31751.6,34499.9,-0.3396,-0.6368,149.2,97.7,0.493
9.98,31737.8,34407.4,-0.3586,-0.7497,149.2,97.7,0.493
10.0,31827.0,34446.1,-0.2353,-0.7024,149.2,97.7,0.493
10.02,31820.9,34562.6,-0.2438,-0.5603,149.2,97.7,0.493
10.04,31992.7,35065.7,-0.0061,0.0533,149.2,97.7,0.493
10.06,32202.2,35427.8,0.2836,0.4949,149.2,97.7,0.493
10.08,32293.1,35758.1,0.4093,0.8977,149.2,97.7,0.493
10.1,32384.6,35701.5,0.5359,0.8288,149.2,97.7,0.493
10.12,32292.6,35686.1,0.4087,0.8099,149.2,97.7,0.493
10.14,32225.1,35397.8,0.3152,0.4584,149.2,97.7,0.493
10.16,32065.2,35235.6,0.0941,0.2605,149.2,97.7,0.493
10.18,31892.0,35214.8,-0.1454,0.2351,149.2,97.7,0.493
10.2,31976.1,35109.8,-0.0291,0.1071,149.2,97.7,0.493
10.22,31988.1,35102.4,-0.0125,0.098,149.2,97.7,0.493
10.24,32016.5,35027.1,0.0268,0.0062,149.2,97.7,0.493
10.26,31945.3,34834.6,-0.0717,-0.2286,149.2,97.7,0.493
10.28,31809.6,34672.5,-0.2594,-0.4262,149.2,97.7,0.493
10.3,31851.0,34628.9,-0.2021,-0.4794,149.2,97.7,0.493
10.32,31861.3,34699.7,-0.1878,-0.3932,149.2,97.7,0.493
10.34,31745.4,34608.7,-0.3481,-0.5041,149.2,97.7,0.493
10.36,31806.6,34594.1,-0.2636,-0.5219,149.2,97.7,0.493
10.38,31765.5,34494.5,-0.3204,-0.6434,149.2,97.7,0.493
10.4,31776.6,34622.0,-0.305,-0.4878,149.2,97.7,0.493
10.42,31782.9,34603.5,-0.2963,-0.5105,149.2,97.7,0.493
10.44,31946.2,34944.2,-0.0704,-0.0949,149.2,97.7,0.493
10.46,32181.8,35329.9,0.2554,0.3755,149.2,97.7,0.493
10.48,32280.9,35723.0,0.3924,0.855,149.2,97.7,0.493
10.5,32401.9,35766.0,0.5597,0.9074,149.2,97.7,0.493
10.52,32243.8,35667.3,0.3411,0.787,149.2,97.7,0.493
10.54,32196.0,35523.7,0.275,0.6119,149.2,97.7,0.493
10.56,32056.0,35426.4,0.0813,0.4932,149.2,97.7,0.493
10.58,32121.0,35058.1,0.1713,0.0441,149.2,97.7,0.493
10.6,32023.8,35075.7,0.0369,0.0655,149.2,97.7,0.493
10.62,32016.0,35019.5,0.0261,-0.0031,149.2,97.7,0.493
10.64,31960.8,34985.3,-0.0503,-0.0448,149.2,97.7,0.493
10.66,31898.5,34787.3,-0.1364,-0.2862,149.2,97.7,0.493
10.68,31871.9,34782.6,-0.1732,-0.292,149.2,97.7,0.493
10.7,31865.2,34707.1,-0.1825,-0.3841,149.2,97.7,0.493
10.72,31815.0,34667.5,-0.2519,-0.4323,149.2,97.7,0.493
10.74,31848.7,34614.7,-0.2052,-0.4968,149.2,97.7,0.493
10.76,31805.7,34576.9,-0.2648,-0.5429,149.2,97.7,0.493
10.78,31789.1,34503.9,-0.2878,-0.632,149.2,97.7,0.493
10.8,31664.5,34390.8,-0.46,-0.7698,149.2,97.7,0.493
10.82,31821.3,34527.0,-0.2432,-0.6037,149.2,97.7,0.493
10.84,31971.4,34882.2,-0.0356,-0.1706,149.2,97.7,0.493
10.86,32089.2,35363.2,0.1273,0.4162,149.2,97.7,0.493
10.88,32244.5,35562.0,0.3421,0.6585,149.2,97.7,0.493
10.9,32338.1,35775.8,0.4715,0.9193,149.2,97.7,0.493
10.92,32342.8,35744.8,0.4781,0.8815,149.2,97.7,0.493
10.94,32155.6,35498.2,0.2192,0.5807,149.2,97.7,0.493
10.96,32069.7,35267.0,0.1003,0.2988,149.2,97.7,0.493
10.98,32058.6,35090.6,0.085,0.0837,149.2,97.7,0.493
11.0,32070.3,35052.2,0.1012,0.0368,149.2,97.7,0.493
11.02,31984.2,35104.2,-0.0179,0.1003,149.2,97.7,0.493
11.04,32029.5,34945.2,0.0447,-0.0937,149.2,97.7,0.493
11.06,31947.8,34899.6,-0.0683,-0.1493,149.2,97.7,0.493
11.08,31920.1,34706.9,-0.1065,-0.3843,149.2,97.7,0.493
11.1,31888.2,34745.0,-0.1506,-0.3379,149.2,97.7,0.493
11.12,31833.6,34627.4,-0.2261,-0.4812,149.2,97.7,0.493
11.14,31889.3,34594.2,-0.1491,-0.5218,149.2,97.7,0.493
11.16,31854.0,34576.6,-0.198,-0.5432,149.2,97.7,0.493
11.18,31803.6,34518.4,-0.2677,-0.6142,149.2,97.7,0.493
11.2,31702.9,34471.9,-0.4069,-0.6709,149.2,97.7,0.493
11.22,31800.5,34527.3,-0.272,-0.6033,149.2,97.7,0.493
11.24,32082.5,34905.9,0.1181,-0.1416,149.2,97.7,0.493
11.26,32074.6,35247.0,0.1072,0.2744,149.2,97.7,0.493
11.28,32243.7,35530.9,0.341,0.6206,149.2,97.7,0.493
11.3,32299.5,35646.5,0.4182,0.7617,149.2,97.7,0.493
11.32,32386.3,35699.5,0.5382,0.8263,149.2,97.7,0.493
11.34,32276.5,35539.4,0.3863,0.631,149.2,97.7,0.493
11.36,32118.2,35278.4,0.1674,0.3127,149.2,97.7,0.493
11.38,32055.5,35251.8,0.0807,0.2803,149.2,97.7,0.493
11.4,31982.2,35064.8,-0.0207,0.0522,149.2,97.7,0.493
11.42,31978.9,35116.0,-0.0253,0.1146,149.2,97.7,0.493
11.44,32021.1,34996.0,0.0331,-0.0317,149.2,97.7,0.493
11.46,31964.1,34846.3,-0.0457,-0.2143,149.2,97.7,0.493
11.48,31883.7,34786.1,-0.1569,-0.2878,149.2,97.7,0.493
11.5,31756.3,34627.2,-0.333,-0.4816,149.2,97.7,0.493
11.52,31848.9,34693.8,-0.2051,-0.4003,149.2,97.7,0.493
11.54,31805.0,34728.4,-0.2657,-0.3581,149.2,97.7,0.493
11.56,31827.0,34660.9,-0.2353,-0.4405,149.2,97.7,0.493
11.58,31665.1,34520.3,-0.4592,-0.6119,149.2,97.7,0.493
11.6,31781.5,34437.8,-0.2982,-0.7126,149.2,97.7,0.493
11.62,31838.8,34593.1,-0.219,-0.5231,149.2,97.7,0.493
11.64,31953.9,34798.4,-0.0598,-0.2727,149.2,97.7,0.493
11.66,32085.9,35153.7,0.1227,0.1606,149.2,97.7,0.493
11.68,32212.5,35557.7,0.2978,0.6533,149.2,97.7,0.493
11.7,32380.5,35793.3,0.5302,0.9407,149.2,97.7,0.493
11.72,32228.9,35729.1,0.3205,0.8624,149.2,97.7,0.493
11.74,32235.6,35572.9,0.3297,0.6719,149.2,97.7,0.493
11.76,32214.3,35392.8,0.3004,0.4522,149.2,97.7,0.493
11.78,32010.5,35283.1,0.0185,0.3184,149.2,97.7,0.493
11.8,32074.8,35135.3,0.1075,0.1381,149.2,97.7,0.493
11.82,32018.3,35025.5,0.0293,0.0043,149.2,97.7,0.493
11.84,31908.1,34963.9,-0.1231,-0.0709,149.2,97.7,0.493
11.86,32020.4,34825.3,0.0321,-0.2399,149.2,97.7,0.493
11.88,31912.4,34667.3,-0.1172,-0.4326,149.2,97.7,0.493
11.9,31753.9,34649.6,-0.3364,-0.4542,149.2,97.7,0.493
11.92,31807.2,34761.7,-0.2627,-0.3175,149.2,97.7,0.493
11.94,31779.0,34700.0,-0.3017,-0.3927,149.2,97.7,0.493
11.96,31712.3,34606.3,-0.3939,-0.507,149.2,97.7,0.493
11.98,31797.3,34521.3,-0.2764,-0.6107,149.2,97.7,0.493
12.0,31790.1,34412.9,-0.2864,-0.7429,149.2,97.7,0.493
12.02,31746.1,34505.0,-0.3472,-0.6306,149.2,97.7,0.493
12.04,31859.0,34796.1,-0.1911,-0.2755,149.2,97.7,0.493
12.06,32085.3,35245.3,0.1219,0.2723,149.2,97.7,0.493
12.08,32287.1,35568.7,0.401,0.6668,149.2,97.7,0.493
12.1,32363.7,35720.3,0.5069,0.8517,149.2,97.7,0.493
12.12,32332.6,35729.8,0.4639,0.8633,149.2,97.7,0.493
12.14,32273.5,35610.9,0.3822,0.7183,149.2,97.7,0.493
12.16,32153.3,35383.4,0.216,0.4407,149.2,97.7,0.493
12.18,32025.1,35192.1,0.0387,0.2075,149.2,97.7,0.493
12.2,32020.7,35053.8,0.0326,0.0388,149.2,97.7,0.493
12.22,32079.8,35069.3,0.1144,0.0576,149.2,97.7,0.493
12.24,31987.3,34999.5,-0.0136,-0.0274,149.2,97.7,0.493
12.26,31926.1,34831.7,-0.0983,-0.2321,149.2,97.7,0.493
12.28,31900.3,34747.7,-0.1339,-0.3346,149.2,97.7,0.493
12.3,31838.3,34746.3,-0.2197,-0.3362,149.2,97.7,0.493
12.32,31707.9,34748.7,-0.3999,-0.3333,149.2,97.7,0.493
12.34,31889.6,34666.2,-0.1487,-0.434,149.2,97.7,0.493
12.36,31809.2,34657.6,-0.26,-0.4444,149.2,97.7,0.493
12.38,31804.8,34483.6,-0.2659,-0.6566,149.2,97.7,0.493
12.4,31753.5,34486.1,-0.3369,-0.6536,149.2,97.7,0.493
12.42,31779.3,34500.6,-0.3012,-0.6359,149.2,97.7,0.493
12.44,31823.5,34752.7,-0.2401,-0.3285,149.2,97.7,0.493
12.46,32189.5,35131.6,0.2661,0.1336,149.2,97.7,0.493
12.48,32205.3,35437.0,0.2879,0.5061,149.2,97.7,0.493
12.5,32283.6,35709.3,0.3961,0.8382,149.2,97.7,0.493
12.52,32398.1,35763.8,0.5545,0.9048,149.2,97.7,0.493
12.54,32240.9,35504.6,0.3371,0.5886,149.2,97.7,0.493
12.56,32153.0,35351.7,0.2156,0.4021,149.2,97.7,0.493
12.58,32104.3,35304.4,0.1482,0.3444,149.2,97.7,0.493
12.6,32012.7,35110.1,0.0215,0.1075,149.2,97.7,0.493
12.62,32046.3,35065.8,0.068,0.0534,149.2,97.7,0.493
12.64,31960.8,34914.9,-0.0503,-0.1307,149.2,97.7,0.493
12.66,31871.9,34852.3,-0.1732,-0.207,149.2,97.7,0.493
12.68,31869.6,34711.2,-0.1764,-0.3791,149.2,97.7,0.493
12.7,31795.6,34765.5,-0.2787,-0.3129,149.2,97.7,0.493
12.72,31838.5,34740.1,-0.2194,-0.3438,149.2,97.7,0.493
12.74,31877.7,34601.8,-0.1652,-0.5125,149.2,97.7,0.493
12.76,31810.1,34621.7,-0.2587,-0.4883,149.2,97.7,0.493
12.78,31819.2,34496.3,-0.2461,-0.6412,149.2,97.7,0.493
12.8,31731.0,34512.1,-0.3681,-0.6219,149.2,97.7,0.493
12.82,31753.3,34494.8,-0.3372,-0.643,149.2,97.7,0.493
12.84,31781.8,34779.7,-0.2978,-0.2956,149.2,97.7,0.493
12.86,32055.5,35058.4,0.0808,0.0444,149.2,97.7,0.493
12.88,32212.0,35450.2,0.2972,0.5223,149.2,97.7,0.493
12.9,32271.0,35665.0,0.3787,0.7842,149.2,97.7,0.493
12.92,32322.7,35698.0,0.4503,0.8245,149.2,97.7,0.493
12.94,32234.2,35676.3,0.3278,0.798,149.2,97.7,0.493
12.96,32122.7,35431.8,0.1737,0.4998,149.2,97.7,0.493
12.98,32098.0,35170.0,0.1395,0.1805,149.2,97.7,0.493
13.0,32047.3,35177.8,0.0693,0.19,149.2,97.7,0.493
13.02,32008.7,35059.5,0.016,0.0457,149.2,97.7,0.493
13.04,32010.7,35001.0,0.0187,-0.0256,149.2,97.7,0.493
13.06,31924.2,34948.7,-0.1009,-0.0895,149.2,97.7,0.493
13.08,31929.3,34871.4,-0.0938,-0.1837,149.2,97.7,0.493
13.1,31905.7,34779.3,-0.1265,-0.2961,149.2,97.7,0.493
13.12,31871.0,34734.6,-0.1745,-0.3506,149.2,97.7,0.493
13.14,31901.1,34719.4,-0.1328,-0.369,149.2,97.7,0.493
13.16,31831.0,34595.2,-0.2298,-0.5206,149.2,97.7,0.493
13.18,31736.6,34563.6,-0.3603,-0.559,149.2,97.7,0.493
13.2,31707.4,34433.0,-0.4006,-0.7184,149.2,97.7,0.493
13.22,31748.9,34560.5,-0.3433,-0.5629,149.2,97.7,0.493
13.24,31860.1,34748.6,-0.1895,-0.3334,149.2,97.7,0.493
13.26,32029.2,35107.6,0.0443,0.1043,149.2,97.7,0.493
13.28,32279.0,35438.9,0.3898,0.5084,149.2,97.7,0.493
13.3,32228.3,35726.3,0.3197,0.859,149.2,97.7,0.493
13.32,32398.2,35858.0,0.5547,1.0197,149.2,97.7,0.493
13.34,32326.7,35664.8,0.4557,0.7839,149.2,97.7,0.493
13.36,32238.7,35405.3,0.334,0.4675,149.2,97.7,0.493
13.38,32094.9,35246.9,0.1352,0.2742,149.2,97.7,0.493
13.4,32050.1,35097.5,0.0733,0.0921,149.2,97.7,0.493
13.42,32049.1,35127.7,0.0718,0.1289,149.2,97.7,0.493
13.44,32027.4,35014.4,0.0418,-0.0093,149.2,97.7,0.493
13.46,31974.3,34955.3,-0.0316,-0.0814,149.2,97.7,0.493
13.48,31888.9,34812.1,-0.1496,-0.2561,149.2,97.7,0.493
13.5,31858.0,34713.9,-0.1924,-0.3758,149.2,97.7,0.493
13.52,31771.6,34664.1,-0.3119,-0.4365,149.2,97.7,0.493
13.54,31912.2,34682.3,-0.1175,-0.4143,149.2,97.7,0.493
13.56,31813.4,34539.8,-0.2542,-0.5882,149.2,97.7,0.493
13.58,31816.4,34574.5,-0.25,-0.5458,149.2,97.7,0.493
13.6,31851.3,34382.6,-0.2018,-0.7799,149.2,97.7,0.493
13.62,31778.9,34525.9,-0.3018,-0.6051,149.2,97.7,0.493
13.64,31828.2,34685.7,-0.2337,-0.4101,149.2,97.7,0.493
13.66,32033.5,35030.9,0.0503,0.0108,149.2,97.7,0.493
13.68,32112.7,35433.5,0.1599,0.5018,149.2,97.7,0.493
13.7,32209.1,35768.4,0.2932,0.9103,149.2,97.7,0.493
13.72,32354.9,35728.8,0.4948,0.862,149.2,97.7,0.493
13.74,32381.7,35552.3,0.5318,0.6468,149.2,97.7,0.493
13.76,32278.0,35416.9,0.3884,0.4816,149.2,97.7,0.493
13.78,32100.5,35258.7,0.143,0.2886,149.2,97.7,0.493
13.8,32028.2,35172.9,0.0429,0.184,149.2,97.7,0.493
13.82,31922.8,35050.3,-0.1027,0.0345,149.2,97.7,0.493
13.84,31992.7,35064.3,-0.0061,0.0516,149.2,97.7,0.493
13.86,32019.5,34915.8,0.0309,-0.1296,149.2,97.7,0.493
13.88,31896.2,34751.9,-0.1396,-0.3294,149.2,97.7,0.493
13.9,31895.9,34690.4,-0.14,-0.4045,149.2,97.7,0.493
13.92,31891.6,34665.7,-0.1459,-0.4345,149.2,97.7,0.493
13.94,31795.8,34641.2,-0.2784,-0.4645,149.2,97.7,0.493
13.96,31710.8,34640.6,-0.396,-0.4652,149.2,97.7,0.493
13.98,31784.6,34535.3,-0.2939,-0.5936,149.2,97.7,0.493
14.0,31768.3,34421.2,-0.3165,-0.7328,149.2,97.7,0.493
14.02,31777.6,34507.6,-0.3036,-0.6273,149.2,97.7,0.493
14.04,31863.2,34526.8,-0.1852,-0.6039,149.2,97.7,0.493
14.06,31971.1,35017.6,-0.036,-0.0054,149.2,97.7,0.493
14.08,32251.3,35415.2,0.3515,0.4796,149.2,97.7,0.493
14.1,32327.8,35766.4,0.4572,0.9078,149.2,97.7,0.493
14.12,32386.1,35803.5,0.5379,0.9531,149.2,97.7,0.493
14.14,32288.2,35649.4,0.4026,0.7652,149.2,97.7,0.493
14.16,32098.6,35447.5,0.1403,0.519,149.2,97.7,0.493
14.18,32128.6,35359.6,0.1818,0.4118,149.2,97.7,0.493
14.2,32110.1,35129.2,0.1562,0.1308,149.2,97.7,0.493
14.22,32066.3,35057.7,0.0956,0.0435,149.2,97.7,0.493
14.24,32015.5,35027.3,0.0254,0.0065,149.2,97.7,0.493
14.26,31996.8,35035.0,-0.0004,0.0158,149.2,97.7,0.493
14.28,31925.0,34899.5,-0.0997,-0.1494,149.2,97.7,0.493
14.3,31840.6,34777.0,-0.2166,-0.2988,149.2,97.7,0.493
14.32,31851.1,34645.7,-0.2019,-0.4589,149.2,97.7,0.493
14.34,31799.4,34627.3,-0.2735,-0.4815,149.2,97.7,0.493
14.36,31878.2,34692.8,-0.1645,-0.4015,149.2,97.7,0.493
14.38,31780.9,34506.5,-0.2991,-0.6288,149.2,97.7,0.493
14.4,31813.0,34467.1,-0.2546,-0.6768,149.2,97.7,0.493
14.42,31692.6,34502.0,-0.4212,-0.6342,149.2,97.7,0.493
14.44,31871.5,34653.0,-0.1738,-0.4501,149.2,97.7,0.493
14.46,31954.8,34935.0,-0.0586,-0.1061,149.2,97.7,0.493
14.48,32088.9,35379.9,0.1269,0.4365,149.2,97.7,0.493
14.5,32275.3,35709.1,0.3847,0.838,149.2,97.7,0.493
14.52,32434.3,35732.2,0.6047,0.8662,149.2,97.7,0.493
14.54,32338.3,35633.5,0.4718,0.7458,149.2,97.7,0.493
14.56,32238.5,35569.5,0.3339,0.6678,149.2,97.7,0.493
14.58,32182.3,35348.2,0.2561,0.3979,149.2,97.7,0.493
14.6,32057.3,35223.6,0.0832,0.2458,149.2,97.7,0.493
14.62,32061.9,35076.6,0.0896,0.0666,149.2,97.7,0.493
14.64,32045.6,35032.1,0.067,0.0123,149.2,97.7,0.493
14.66,32005.5,34911.2,0.0116,-0.1352,149.2,97.7,0.493
14.68,31961.8,34855.3,-0.0489,-0.2033,149.2,97.7,0.493
14.7,31905.8,34773.4,-0.1263,-0.3032,149.2,97.7,0.493
14.72,31826.7,34633.5,-0.2357,-0.4739,149.2,97.7,0.493
14.74,31793.3,34577.4,-0.282,-0.5423,149.2,97.7,0.493
14.76,31766.4,34673.1,-0.3191,-0.4255,149.2,97.7,0.493
14.78,31845.6,34537.5,-0.2095,-0.5909,149.2,97.7,0.493
14.8,31817.6,34419.2,-0.2484,-0.7352,149.2,97.7,0.493
14.82,31771.2,34420.5,-0.3124,-0.7336,149.2,97.7,0.493
14.84,31813.2,34597.4,-0.2544,-0.5179,149.2,97.7,0.493
14.86,31892.6,34915.7,-0.1445,-0.1296,149.2,97.7,0.493
14.88,32140.7,35258.5,0.1986,0.2884,149.2,97.7,0.493
14.9,32243.1,35626.8,0.3401,0.7376,149.2,97.7,0.493
14.92,32397.9,35720.0,0.5543,0.8512,149.2,97.7,0.493
14.94,32308.1,35755.1,0.4301,0.8941,149.2,97.7,0.493
14.96,32144.6,35569.9,0.2039,0.6682,149.2,97.7,0.493
14.98,32074.9,35378.3,0.1076,0.4345,149.2,97.7,0.493
15.0,32107.3,35250.4,0.1523,0.2785,149.2,97.7,0.493
15.02,32057.3,35122.1,0.0832,0.122,149.2,97.7,0.493
15.04,32024.8,35047.6,0.0383,0.0312,149.2,97.7,0.493
15.06,31872.2,34923.6,-0.1727,-0.12,149.2,97.7,0.493
15.08,31850.4,34797.6,-0.203,-0.2737,149.2,97.7,0.493
15.1,31902.9,34739.4,-0.1303,-0.3447,149.2,97.7,0.493
15.12,31877.7,34655.2,-0.1652,-0.4473,149.2,97.7,0.493
15.14,31860.6,34569.0,-0.1888,-0.5525,149.2,97.7,0.493
15.16,31764.9,34648.2,-0.3211,-0.4559,149.2,97.7,0.493
15.18,31861.1,34640.5,-0.1881,-0.4653,149.2,97.7,0.493
15.2,31744.3,34422.6,-0.3497,-0.7311,149.2,97.7,0.493
15.22,31673.2,34403.9,-0.4479,-0.7539,149.2,97.7,0.493
15.24,31796.1,34583.4,-0.2781,-0.535,149.2,97.7,0.493
15.26,31948.8,34885.9,-0.0669,-0.166,149.2,97.7,0.493
15.28,32079.9,35300.5,0.1144,0.3397,149.2,97.7,0.493
15.3,32259.8,35527.6,0.3633,0.6167,149.2,97.7,0.493
15.32,32289.1,35765.8,0.4037,0.9071,149.2,97.7,0.493
15.34,32290.3,35704.3,0.4055,0.8321,149.2,97.7,0.493
15.36,32233.1,35463.7,0.3264,0.5388,149.2,97.7,0.493
15.38,32309.1,35305.3,0.4314,0.3455,149.2,97.7,0.493
15.4,32079.4,35105.7,0.1137,0.1021,149.2,97.7,0.493
15.42,32068.9,35050.4,0.0993,0.0346,149.2,97.7,0.493
15.44,32138.1,35089.9,0.1949,0.0828,149.2,97.7,0.493
15.46,31991.8,34968.8,-0.0074,-0.0648,149.2,97.7,0.493
15.48,31969.8,34831.5,-0.0378,-0.2323,149.2,97.7,0.493
15.5,31798.8,34754.3,-0.2743,-0.3265,149.2,97.7,0.493
15.52,31871.9,34683.0,-0.1732,-0.4135,149.2,97.7,0.493
15.54,31880.6,34614.6,-0.1612,-0.4969,149.2,97.7,0.493
15.56,31829.7,34736.0,-0.2315,-0.3488,149.2,97.7,0.493
15.58,31784.3,34547.5,-0.2944,-0.5787,149.2,97.7,0.493
15.6,31722.1,34490.6,-0.3804,-0.6481,149.2,97.7,0.493
15.62,31665.2,34431.1,-0.459,-0.7207,149.2,97.7,0.493
15.64,31819.8,34543.9,-0.2452,-0.5831,149.2,97.7,0.493
15.66,31943.1,34908.3,-0.0747,-0.1387,149.2,97.7,0.493
15.68,32023.8,35111.3,0.0369,0.1089,149.2,97.7,0.493
15.7,32315.7,35554.2,0.4406,0.6491,149.2,97.7,0.493
15.72,32360.3,35619.6,0.5023,0.7288,149.2,97.7,0.493
15.74,32300.9,35764.7,0.4201,0.9058,149.2,97.7,0.493
15.76,32301.8,35639.1,0.4213,0.7526,149.2,97.7,0.493
15.78,32142.3,35327.1,0.2008,0.3721,149.2,97.7,0.493
15.8,32092.5,35170.4,0.1319,0.181,149.2,97.7,0.493
15.82,31940.5,35099.4,-0.0783,0.0944,149.2,97.7,0.493
15.84,31948.5,34997.9,-0.0673,-0.0294,149.2,97.7,0.493
15.86,32031.4,34917.9,0.0474,-0.127,149.2,97.7,0.493
15.88,31985.4,34812.0,-0.0163,-0.2561,149.2,97.7,0.493
15.9,31815.6,34817.7,-0.2511,-0.2492,149.2,97.7,0.493
15.92,31878.3,34678.9,-0.1644,-0.4184,149.2,97.7,0.493
15.94,31808.7,34595.4,-0.2606,-0.5203,149.2,97.7,0.493
15.96,31891.7,34640.4,-0.1458,-0.4654,149.2,97.7,0.493
15.98,31774.4,34630.0,-0.308,-0.4781,149.2,97.7,0.493
16.0,31721.3,34491.0,-0.3814,-0.6477,149.2,97.7,0.493
16.02,31709.7,34512.0,-0.3975,-0.622,149.2,97.7,0.493
16.04,31827.8,34435.9,-0.2342,-0.7149,149.2,97.7,0.493
16.06,31876.0,34814.4,-0.1675,-0.2533,149.2,97.7,0.493
16.08,32070.3,35275.0,0.1011,0.3085,149.2,97.7,0.493
16.1,32189.0,35510.3,0.2654,0.5955,149.2,97.7,0.493
16.12,32350.9,35795.2,0.4892,0.943,149.2,97.7,0.493
16.14,32399.5,35703.2,0.5565,0.8308,149.2,97.7,0.493
16.16,32219.5,35573.1,0.3076,0.6721,149.2,97.7,0.493
16.18,32122.1,35309.7,0.1729,0.3508,149.2,97.7,0.493
16.2,32050.9,35264.5,0.0743,0.2958,149.2,97.7,0.493
16.22,32082.6,35078.6,0.1182,0.0691,149.2,97.7,0.493
16.24,31964.2,35085.4,-0.0455,0.0773,149.2,97.7,0.493
16.26,31956.7,35104.4,-0.056,0.1004,149.2,97.7,0.493
16.28,31971.2,34912.7,-0.0358,-0.1333,149.2,97.7,0.493
16.3,31959.7,34752.4,-0.0518,-0.3288,149.2,97.7,0.493
16.32,31908.5,34708.5,-0.1225,-0.3824,149.2,97.7,0.493
16.34,31899.6,34702.4,-0.135,-0.3898,149.2,97.7,0.493
16.36,31852.9,34650.8,-0.1995,-0.4528,149.2,97.7,0.493
16.38,31930.7,34608.5,-0.0919,-0.5043,149.2,97.7,0.493
16.4,31752.1,34428.2,-0.3389,-0.7243,149.2,97.7,0.493
16.42,31655.8,34501.2,-0.472,-0.6352,149.2,97.7,0.493
16.44,31729.1,34477.3,-0.3706,-0.6643,149.2,97.7,0.493
16.46,31952.8,34779.5,-0.0613,-0.2958,149.2,97.7,0.493
16.48,32043.7,35077.5,0.0644,0.0677,149.2,97.7,0.493
16.5,32259.8,35424.6,0.3633,0.491,149.2,97.7,0.493
16.52,32316.4,35679.6,0.4415,0.802,149.2,97.7,0.493
16.54,32278.9,35746.6,0.3897,0.8838,149.2,97.7,0.493
16.56,32251.8,35561.6,0.3522,0.6582,149.2,97.7,0.493
16.58,32209.9,35405.9,0.2943,0.4682,149.2,97.7,0.493
16.6,32119.8,35224.2,0.1696,0.2466,149.2,97.7,0.493
16.62,32102.5,35194.5,0.1457,0.2104,149.2,97.7,0.493
16.64,32025.4,35104.1,0.0391,0.1002,149.2,97.7,0.493
16.66,32030.0,34977.6,0.0455,-0.0542,149.2,97.7,0.493
16.68,31995.2,34860.0,-0.0026,-0.1975,149.2,97.7,0.493
16.7,31799.4,34731.5,-0.2734,-0.3543,149.2,97.7,0.493
16.72,31820.8,34758.2,-0.2439,-0.3217,149.2,97.7,0.493
16.74,31930.0,34611.2,-0.0929,-0.501,149.2,97.7,0.493
16.76,31858.4,34573.5,-0.1918,-0.547,149.2,97.7,0.493
16.78,31823.3,34653.5,-0.2405,-0.4494,149.2,97.7,0.493
16.8,31792.7,34539.0,-0.2828,-0.5891,149.2,97.7,0.493
16.82,31703.0,34476.2,-0.4068,-0.6657,149.2,97.7,0.493
16.84,31766.0,34381.8,-0.3196,-0.7809,149.2,97.7,0.493
16.86,31897.1,34717.0,-0.1384,-0.372,149.2,97.7,0.493
16.88,32012.1,35128.4,0.0207,0.1298,149.2,97.7,0.493
16.9,32204.3,35417.8,0.2865,0.4827,149.2,97.7,0.493
16.92,32250.7,35644.4,0.3506,0.7591,149.2,97.7,0.493
16.94,32296.9,35623.0,0.4146,0.733,149.2,97.7,0.493
16.96,32273.9,35591.4,0.3828,0.6944,149.2,97.7,0.493
16.98,32158.5,35372.1,0.2232,0.427,149.2,97.7,0.493
17.0,32107.6,35304.8,0.1527,0.3449,149.2,97.7,0.493
17.02,32059.6,35121.1,0.0864,0.1209,149.2,97.7,0.493
17.04,32018.2,35004.9,0.0291,-0.0209,149.2,97.7,0.493
17.06,31999.7,35039.5,0.0036,0.0213,149.2,97.7,0.493
17.08,31955.5,34900.3,-0.0576,-0.1484,149.2,97.7,0.493
17.1,31946.5,34870.6,-0.07,-0.1846,149.2,97.7,0.493
17.12,31903.1,34734.0,-0.1301,-0.3513,149.2,97.7,0.493
17.14,31809.1,34665.8,-0.26,-0.4344,149.2,97.7,0.493
17.16,31877.5,34668.9,-0.1654,-0.4306,149.2,97.7,0.493
17.18,31878.9,34699.6,-0.1635,-0.3932,149.2,97.7,0.493
17.2,31774.6,34544.2,-0.3078,-0.5827,149.2,97.7,0.493
17.22,31756.7,34481.0,-0.3325,-0.6599,149.2,97.7,0.493
17.24,31820.9,34506.9,-0.2438,-0.6283,149.2,97.7,0.493
17.26,31841.0,34634.8,-0.216,-0.4722,149.2,97.7,0.493
17.28,32037.8,34978.2,0.0563,-0.0534,149.2,97.7,0.493
17.3,32247.4,35376.3,0.3462,0.432,149.2,97.7,0.493
17.32,32340.1,35681.5,0.4743,0.8044,149.2,97.7,0.493
17.34,32379.9,35824.1,0.5293,0.9783,149.2,97.7,0.493
17.36,32204.0,35628.4,0.2862,0.7396,149.2,97.7,0.493
17.38,32210.6,35407.7,0.2953,0.4704,149.2,97.7,0.493
17.4,32137.7,35205.3,0.1944,0.2235,149.2,97.7,0.493
17.42,32077.8,35156.8,0.1115,0.1644,149.2,97.7,0.493
17.44,32007.5,35062.9,0.0143,0.0499,149.2,97.7,0.493
17.46,32038.4,34986.8,0.0571,-0.0429,149.2,97.7,0.493
17.48,32022.6,34907.2,0.0351,-0.14,149.2,97.7,0.493
17.5,31934.9,34753.6,-0.086,-0.3274,149.2,97.7,0.493
17.52,31878.5,34717.0,-0.164,-0.372,149.2,97.7,0.493
17.54,31809.7,34642.8,-0.2592,-0.4625,149.2,97.7,0.493
17.56,31887.7,34734.5,-0.1514,-0.3506,149.2,97.7,0.493
17.58,31809.8,34669.8,-0.2591,-0.4296,149.2,97.7,0.493
17.6,31849.9,34540.5,-0.2036,-0.5872,149.2,97.7,0.493
17.62,31848.8,34511.9,-0.2052,-0.6222,149.2,97.7,0.493
17.64,31781.6,34478.5,-0.2981,-0.6629,149.2,97.7,0.493
17.66,31995.9,34615.0,-0.0017,-0.4964,149.2,97.7,0.493
17.68,32017.9,35008.8,0.0287,-0.0162,149.2,97.7,0.493
17.7,32131.1,35340.9,0.1853,0.3889,149.2,97.7,0.493
17.72,32205.6,35614.6,0.2882,0.7227,149.2,97.7,0.493
17.74,32406.8,35782.0,0.5666,0.9269,149.2,97.7,0.493
17.76,32221.8,35702.0,0.3107,0.8293,149.2,97.7,0.493
17.78,32299.6,35454.1,0.4183,0.527,149.2,97.7,0.493
17.8,32054.6,35217.2,0.0795,0.238,149.2,97.7,0.493
17.82,31994.4,35136.7,-0.0037,0.1399,149.2,97.7,0.493
17.84,32040.9,35010.2,0.0605,-0.0144,149.2,97.7,0.493
17.86,32085.4,34954.6,0.1221,-0.0822,149.2,97.7,0.493
17.88,31901.8,35040.9,-0.1318,0.023,149.2,97.7,0.493
17.9,31913.0,34723.5,-0.1164,-0.3641,149.2,97.7,0.493
17.92,31838.8,34782.6,-0.219,-0.292,149.2,97.7,0.493
17.94,31864.9,34656.8,-0.1828,-0.4455,149.2,97.7,0.493
17.96,31835.4,34632.4,-0.2237,-0.4751,149.2,97.7,0.493
17.98,31857.5,34621.3,-0.1931,-0.4887,149.2,97.7,0.493
18.0,31772.4,34552.2,-0.3108,-0.573,149.2,97.7,0.493
18.02,31757.3,34405.0,-0.3317,-0.7525,149.2,97.7,0.493
18.04,31686.9,34501.8,-0.4291,-0.6345,149.2,97.7,0.493
18.06,31709.0,34585.9,-0.3985,-0.5319,149.2,97.7,0.493
18.08,31941.4,34838.3,-0.0771,-0.224,149.2,97.7,0.493
18.1,32162.6,35417.1,0.2288,0.4818,149.2,97.7,0.493
18.12,32196.4,35619.5,0.2755,0.7287,149.2,97.7,0.493
18.14,32352.7,35748.1,0.4918,0.8855,149.2,97.7,0.493
18.16,32207.8,35708.7,0.2913,0.8375,149.2,97.7,0.493
18.18,32134.3,35522.1,0.1897,0.6099,149.2,97.7,0.493
18.2,32114.3,35250.9,0.1621,0.2791,149.2,97.7,0.493
18.22,32013.4,35098.3,0.0225,0.093,149.2,97.7,0.493
18.24,32024.8,35063.9,0.0383,0.0511,149.2,97.7,0.493
18.26,32043.8,35032.4,0.0646,0.0127,149.2,97.7,0.493
18.28,31942.3,34968.1,-0.0758,-0.0658,149.2,97.7,0.493
18.3,31923.5,34901.7,-0.1018,-0.1468,149.2,97.7,0.493
18.32,31880.9,34786.1,-0.1607,-0.2878,149.2,97.7,0.493
18.34,31782.2,34618.7,-0.2973,-0.4919,149.2,97.7,0.493
18.36,31928.8,34633.3,-0.0945,-0.4741,149.2,97.7,0.493
18.38,31831.7,34596.2,-0.2288,-0.5193,149.2,97.7,0.493
18.4,31707.2,34536.8,-0.401,-0.5918,149.2,97.7,0.493
18.42,31759.8,34445.7,-0.3283,-0.7029,149.2,97.7,0.493
18.44,31768.1,34534.7,-0.3168,-0.5944,149.2,97.7,0.493
18.46,31925.7,34610.4,-0.0988,-0.502,149.2,97.7,0.493
18.48,31892.2,34939.2,-0.1451,-0.101,149.2,97.7,0.493
18.5,32114.6,35275.5,0.1624,0.3091,149.2,97.7,0.493
18.52,32320.0,35679.1,0.4466,0.8014,149.2,97.7,0.493
18.54,32250.5,35709.1,0.3504,0.838,149.2,97.7,0.493
18.56,32252.7,35654.4,0.3534,0.7713,149.2,97.7,0.493
18.58,32145.9,35527.2,0.2057,0.6162,149.2,97.7,0.493
18.6,32206.8,35267.7,0.29,0.2996,149.2,97.7,0.493
18.62,32095.1,35086.0,0.1355,0.078,149.2,97.7,0.493
18.64,32064.8,35064.9,0.0936,0.0523,149.2,97.7,0.493
18.66,31992.0,35027.4,-0.0071,0.0066,149.2,97.7,0.493
18.68,32034.2,34996.6,0.0513,-0.031,149.2,97.7,0.493
18.7,31913.9,34849.4,-0.1152,-0.2105,149.2,97.7,0.493
18.72,31808.9,34648.8,-0.2604,-0.4552,149.2,97.7,0.493
18.74,31880.9,34677.0,-0.1608,-0.4208,149.2,97.7,0.493
18.76,31827.7,34730.9,-0.2343,-0.355,149.2,97.7,0.493
18.78,31943.6,34645.6,-0.0741,-0.459,149.2,97.7,0.493
18.8,31839.7,34539.8,-0.2177,-0.5881,149.2,97.7,0.493
18.82,31744.3,34508.3,-0.3497,-0.6265,149.2,97.7,0.493
18.84,31775.9,34491.9,-0.306,-0.6465,149.2,97.7,0.493
18.86,31868.5,34611.3,-0.1779,-0.5009,149.2,97.7,0.493
18.88,31927.5,34770.5,-0.0962,-0.3068,149.2,97.7,0.493
18.9,32101.8,35276.8,0.1447,0.3107,149.2,97.7,0.493
18.92,32254.1,35594.0,0.3554,0.6977,149.2,97.7,0.493
18.94,32330.0,35696.7,0.4603,0.8228,149.2,97.7,0.493
18.96,32344.3,35760.6,0.4801,0.9008,149.2,97.7,0.493
18.98,32259.9,35548.6,0.3633,0.6423,149.2,97.7,0.493
19.0,32166.4,35333.1,0.2341,0.3794,149.2,97.7,0.493
19.02,32041.2,35163.3,0.0609,0.1723,149.2,97.7,0.493
19.04,32000.1,35056.9,0.0041,0.0425,149.2,97.7,0.493
19.06,31944.4,35115.4,-0.0729,0.1139,149.2,97.7,0.493
19.08,32029.2,35012.0,0.0443,-0.0122,149.2,97.7,0.493
19.1,31940.4,34927.6,-0.0784,-0.1152,149.2,97.7,0.493
19.12,31876.6,34731.2,-0.1667,-0.3546,149.2,97.7,0.493
19.14,31870.9,34715.0,-0.1746,-0.3744,149.2,97.7,0.493
19.16,31781.6,34657.5,-0.298,-0.4446,149.2,97.7,0.493
19.18,31850.5,34603.5,-0.2027,-0.5104,149.2,97.7,0.493
19.2,31935.0,34493.5,-0.0859,-0.6446,149.2,97.7,0.493
19.22,31827.6,34562.7,-0.2344,-0.5601,149.2,97.7,0.493
19.24,31728.3,34487.3,-0.3717,-0.6522,149.2,97.7,0.493
19.26,31732.3,34571.2,-0.3663,-0.5498,149.2,97.7,0.493
19.28,31855.4,34902.5,-0.196,-0.1458,149.2,97.7,0.493
19.3,32161.4,35226.9,0.2271,0.2499,149.2,97.7,0.493
19.32,32160.8,35602.6,0.2263,0.7081,149.2,97.7,0.493
19.34,32416.7,35704.6,0.5802,0.8326,149.2,97.7,0.493
19.36,32331.2,35762.0,0.462,0.9025,149.2,97.7,0.493
19.38,32321.8,35579.0,0.449,0.6794,149.2,97.7,0.493
19.4,32115.3,35171.5,0.1634,0.1823,149.2,97.7,0.493
19.42,32039.3,35107.2,0.0583,0.1039,149.2,97.7,0.493
19.44,32043.3,35220.1,0.0638,0.2416,149.2,97.7,0.493
19.46,32056.8,35007.7,0.0825,-0.0174,149.2,97.7,0.493
19.48,32006.0,34999.0,0.0122,-0.0281,149.2,97.7,0.493
19.5,31831.4,34902.1,-0.2292,-0.1462,149.2,97.7,0.493
19.52,31902.0,34703.4,-0.1316,-0.3886,149.2,97.7,0.493
19.54,31869.2,34733.5,-0.177,-0.3519,149.2,97.7,0.493
19.56,31830.6,34580.5,-0.2303,-0.5385,149.2,97.7,0.493
19.58,31824.4,34697.7,-0.2389,-0.3955,149.2,97.7,0.493
19.6,31856.5,34552.4,-0.1945,-0.5727,149.2,97.7,0.493
19.62,31785.3,34588.0,-0.2929,-0.5293,149.2,97.7,0.493
19.64,31704.3,34435.8,-0.405,-0.7149,149.2,97.7,0.493
19.66,31843.6,34586.1,-0.2123,-0.5316,149.2,97.7,0.493
19.68,31929.2,34822.1,-0.0939,-0.2439,149.2,97.7,0.493
19.7,32105.2,35122.7,0.1494,0.1228,149.2,97.7,0.493
19.72,32164.3,35547.6,0.2312,0.6411,149.2,97.7,0.493
19.74,32252.4,35834.7,0.353,0.9912,149.2,97.7,0.493
19.76,32325.2,35776.2,0.4537,0.9199,149.2,97.7,0.493
19.78,32317.1,35570.9,0.4425,0.6695,149.2,97.7,0.493
19.8,32157.3,35282.6,0.2215,0.3178,149.2,97.7,0.493
19.82,32130.2,35216.2,0.1841,0.2369,149.2,97.7,0.493
19.84,32024.7,35100.4,0.0382,0.0956,149.2,97.7,0.493
19.86,32108.2,35082.6,0.1535,0.0739,149.2,97.7,0.493
19.88,32024.8,34917.3,0.0382,-0.1277,149.2,97.7,0.493
19.9,31904.3,34837.2,-0.1284,-0.2254,149.2,97.7,0.493
19.92,31896.7,34778.4,-0.1389,-0.2972,149.2,97.7,0.493
19.94,31877.6,34697.1,-0.1653,-0.3963,149.2,97.7,0.493
19.96,31815.6,34633.7,-0.2511,-0.4735,149.2,97.7,0.493
19.98,31925.1,34608.9,-0.0997,-0.5039,149.2,97.7,0.493
20.0,31757.7,34672.0,-0.3312,-0.4269,149.2,97.7,0.493
20.02,31775.4,34466.2,-0.3066,-0.6779,149.2,97.7,0.493
20.04,31691.6,34461.4,-0.4225,-0.6837,149.2,97.7,0.493
20.06,31833.3,34457.6,-0.2266,-0.6884,149.2,97.7,0.493
20.08,31899.6,34745.5,-0.1349,-0.3372,149.2,97.7,0.493
20.1,32037.0,35216.4,0.0551,0.2371,149.2,97.7,0.493
20.12,32181.9,35519.0,0.2555,0.6061,149.2,97.7,0.493
20.14,32361.0,35686.5,0.5032,0.8105,149.2,97.7,0.493
20.16,32360.0,35755.5,0.5018,0.8946,149.2,97.7,0.493
20.18,32283.6,35545.6,0.3961,0.6386,149.2,97.7,0.493
20.2,32201.2,35394.1,0.2822,0.4538,149.2,97.7,0.493
20.22,32080.0,35141.6,0.1146,0.1458,149.2,97.7,0.493
20.24,32057.9,35048.8,0.084,0.0327,149.2,97.7,0.493
20.26,31972.0,35081.3,-0.0348,0.0723,149.2,97.7,0.493
20.28,32032.8,35008.3,0.0493,-0.0168,149.2,97.7,0.493
20.3,31969.4,34878.0,-0.0383,-0.1756,149.2,97.7,0.493
20.32,31910.2,34785.4,-0.1203,-0.2886,149.2,97.7,0.493
20.34,31826.0,34708.4,-0.2366,-0.3825,149.2,97.7,0.493
20.36,31855.1,34653.0,-0.1964,-0.4501,149.2,97.7,0.493
20.38,31840.9,34620.3,-0.2161,-0.49,149.2,97.7,0.493
20.4,31797.4,34621.5,-0.2762,-0.4884,149.2,97.7,0.493
20.42,31847.5,34531.6,-0.207,-0.5981,149.2,97.7,0.493
20.44,31719.2,34559.1,-0.3844,-0.5645,149.2,97.7,0.493
20.46,31724.4,34601.4,-0.3772,-0.5129,149.2,97.7,0.493
20.48,31941.4,34764.7,-0.0771,-0.3138,149.2,97.7,0.493
20.5,32000.5,35047.1,0.0046,0.0306,149.2,97.7,0.493
20.52,32232.7,35477.5,0.3258,0.5555,149.2,97.7,0.493
20.54,32312.7,35673.0,0.4364,0.794,149.2,97.7,0.493
20.56,32329.8,35760.3,0.46,0.9004,149.2,97.7,0.493
20.58,32279.2,35628.0,0.3901,0.7391,149.2,97.7,0.493
20.6,32236.0,35342.0,0.3303,0.3902,149.2,97.7,0.493
20.62,32137.5,35156.1,0.1941,0.1635,149.2,97.7,0.493
20.64,32094.8,35189.4,0.135,0.2041,149.2,97.7,0.493
20.66,31925.4,35127.2,-0.0992,0.1283,149.2,97.7,0.493
20.68,32013.7,34972.5,0.023,-0.0604,149.2,97.7,0.493
20.7,31956.9,34803.5,-0.0556,-0.2665,149.2,97.7,0.493
20.72,31917.9,34797.8,-0.1096,-0.2734,149.2,97.7,0.493
20.74,31828.6,34694.0,-0.233,-0.4,149.2,97.7,0.493
20.76,31831.3,34681.7,-0.2293,-0.4151,149.2,97.7,0.493
20.78,31823.4,34730.5,-0.2403,-0.3555,149.2,97.7,0.493
20.8,31832.2,34579.1,-0.2282,-0.5402,149.2,97.7,0.493
20.82,31802.0,34408.1,-0.2698,-0.7488,149.2,97.7,0.493
20.84,31841.2,34510.7,-0.2157,-0.6236,149.2,97.7,0.493
20.86,31774.8,34416.7,-0.3074,-0.7383,149.2,97.7,0.493
20.88,31940.4,34671.3,-0.0785,-0.4277,149.2,97.7,0.493
20.9,32104.5,35076.5,0.1484,0.0664,149.2,97.7,0.493
20.92,32223.9,35457.3,0.3136,0.5309,149.2,97.7,0.493
20.94,32281.7,35753.7,0.3936,0.8923,149.2,97.7,0.493
20.96,32366.3,35759.5,0.5105,0.8995,149.2,97.7,0.493
20.98,32222.7,35604.5,0.312,0.7105,149.2,97.7,0.493
21.0,32212.4,35352.2,0.2977,0.4028,149.2,97.7,0.493
21.02,32124.2,35182.8,0.1757,0.1961,149.2,97.7,0.493
21.04,32165.2,35088.2,0.2324,0.0808,149.2,97.7,0.493
21.06,32017.3,35070.4,0.0279,0.059,149.2,97.7,0.493
21.08,32035.4,35047.4,0.0529,0.0309,149.2,97.7,0.493
21.1,31951.2,34892.7,-0.0635,-0.1577,149.2,97.7,0.493
21.12,31865.2,34850.3,-0.1824,-0.2094,149.2,97.7,0.493
21.14,31912.3,34670.4,-0.1173,-0.4288,149.2,97.7,0.493
21.16,31871.6,34696.3,-0.1736,-0.3972,149.2,97.7,0.493
21.18,31877.2,34694.7,-0.1659,-0.3992,149.2,97.7,0.493
21.2,31793.0,34516.9,-0.2823,-0.6161,149.2,97.7,0.493
21.22,31750.7,34578.2,-0.3408,-0.5413,149.2,97.7,0.493
21.24,31726.7,34452.0,-0.3741,-0.6952,149.2,97.7,0.493
21.26,31778.4,34439.1,-0.3025,-0.7109,149.2,97.7,0.493
21.28,31882.1,34749.7,-0.1591,-0.3322,149.2,97.7,0.493
21.3,32008.4,35018.4,0.0155,-0.0044,149.2,97.7,0.493
21.32,32162.0,35474.8,0.228,0.5522,149.2,97.7,0.493
21.34,32359.5,35727.7,0.5012,0.8607,149.2,97.7,0.493
21.36,32267.8,35752.6,0.3743,0.891,149.2,97.7,0.493
21.38,32241.7,35617.8,0.3382,0.7266,149.2,97.7,0.493
21.4,32156.2,35389.4,0.22,0.4481,149.2,97.7,0.493
21.42,32145.6,35311.0,0.2054,0.3524,149.2,97.7,0.493
21.44,32087.5,35136.8,0.125,0.14,149.2,97.7,0.493
21.46,32039.9,35093.6,0.0592,0.0873,149.2,97.7,0.493
21.48,32042.5,34996.0,0.0627,-0.0317,149.2,97.7,0.493
21.5,31953.3,34851.5,-0.0606,-0.208,149.2,97.7,0.493
21.52,31987.8,34898.0,-0.0128,-0.1512,149.2,97.7,0.493
21.54,31765.4,34747.2,-0.3205,-0.3352,149.2,97.7,0.493
21.56,31781.5,34587.9,-0.2982,-0.5294,149.2,97.7,0.493
21.58,31900.3,34569.9,-0.1339,-0.5514,149.2,97.7,0.493
21.6,31766.8,34618.7,-0.3186,-0.4919,149.2,97.7,0.493
21.62,31863.6,34594.1,-0.1847,-0.5219,149.2,97.7,0.493
21.64,31796.3,34490.7,-0.2778,-0.648,149.2,97.7,0.493
21.66,31713.3,34479.7,-0.3925,-0.6614,149.2,97.7,0.493
21.68,31893.3,34655.8,-0.1436,-0.4467,149.2,97.7,0.493
21.7,31972.8,34969.0,-0.0337,-0.0647,149.2,97.7,0.493
21.72,32197.7,35441.8,0.2773,0.512,149.2,97.7,0.493
21.74,32389.5,35595.2,0.5426,0.6991,149.2,97.7,0.493
21.76,32284.0,35763.0,0.3968,0.9037,149.2,97.7,0.493
21.78,32299.0,35708.5,0.4175,0.8373,149.2,97.7,0.493
21.8,32247.6,35443.8,0.3464,0.5144,149.2,97.7,0.493
21.82,32036.1,35188.2,0.0539,0.2027,149.2,97.7,0.493
21.84,32123.8,35143.2,0.1751,0.1478,149.2,97.7,0.493
21.86,32085.1,35078.4,0.1216,0.0687,149.2,97.7,0.493
21.88,31977.0,35005.4,-0.0278,-0.0203,149.2,97.7,0.493
21.9,31931.1,34996.3,-0.0913,-0.0314,149.2,97.7,0.493
21.92,31982.9,34761.6,-0.0197,-0.3177,149.2,97.7,0.493
21.94,31914.0,34732.9,-0.115,-0.3526,149.2,97.7,0.493
21.96,31879.4,34698.6,-0.1628,-0.3944,149.2,97.7,0.493
21.98,31859.9,34685.0,-0.1898,-0.411,149.2,97.7,0.493
22.0,31757.9,34635.0,-0.3309,-0.472,149.2,97.7,0.493
22.02,31778.1,34580.8,-0.3029,-0.5381,149.2,97.7,0.493
22.04,31817.8,34397.4,-0.248,-0.7619,149.2,97.7,0.493
22.06,31851.7,34565.3,-0.2011,-0.557,149.2,97.7,0.493
22.08,31805.9,34608.7,-0.2645,-0.504,149.2,97.7,0.493
22.1,32047.7,35058.4,0.0699,0.0444,149.2,97.7,0.493
22.12,32217.4,35293.3,0.3047,0.3309,149.2,97.7,0.493
22.14,32267.5,35619.3,0.3738,0.7285,149.2,97.7,0.493
22.16,32378.3,35828.4,0.5271,0.9836,149.2,97.7,0.493
22.18,32398.2,35587.0,0.5547,0.6891,149.2,97.7,0.493
22.2,32192.5,35422.3,0.2701,0.4882,149.2,97.7,0.493
22.22,32155.9,35201.4,0.2196,0.2187,149.2,97.7,0.493
22.24,32103.7,35060.5,0.1474,0.047,149.2,97.7,0.493
22.26,31993.7,35117.0,-0.0047,0.1159,149.2,97.7,0.493
22.28,32066.3,35101.6,0.0957,0.097,149.2,97.7,0.493
22.3,31961.8,34970.2,-0.0488,-0.0632,149.2,97.7,0.493
22.32,31875.8,34786.3,-0.1678,-0.2875,149.2,97.7,0.493
22.34,31885.5,34756.0,-0.1544,-0.3244,149.2,97.7,0.493
22.36,31797.8,34754.9,-0.2757,-0.3258,149.2,97.7,0.493
22.38,31811.5,34704.5,-0.2568,-0.3873,149.2,97.7,0.493
22.4,31862.0,34569.5,-0.1868,-0.5519,149.2,97.7,0.493
22.42,31796.7,34533.1,-0.2772,-0.5963,149.2,97.7,0.493
22.44,31729.8,34466.8,-0.3697,-0.6771,149.2,97.7,0.493
22.46,31817.9,34436.1,-0.2479,-0.7146,149.2,97.7,0.493
22.48,31783.4,34604.2,-0.2956,-0.5095,149.2,97.7,0.493
22.5,31974.4,34892.9,-0.0315,-0.1575,149.2,97.7,0.493
22.52,32092.9,35249.2,0.1325,0.2771,149.2,97.7,0.493
22.54,32274.1,35605.9,0.383,0.7121,149.2,97.7,0.493
22.56,32330.2,35728.5,0.4607,0.8616,149.2,97.7,0.493
22.58,32330.2,35709.3,0.4606,0.8383,149.2,97.7,0.493
22.6,32323.8,35544.4,0.4518,0.6371,149.2,97.7,0.493
22.62,32115.3,35276.6,0.1635,0.3105,149.2,97.7,0.493
22.64,32094.5,35132.8,0.1347,0.1351,149.2,97.7,0.493
22.66,32107.9,35138.7,0.1532,0.1423,149.2,97.7,0.493
22.68,31973.4,35071.7,-0.0329,0.0606,149.2,97.7,0.493
22.7,32022.4,35016.7,0.035,-0.0065,149.2,97.7,0.493
22.72,31880.5,34853.3,-0.1613,-0.2058,149.2,97.7,0.493
22.74,31859.2,34680.8,-0.1908,-0.4162,149.2,97.7,0.493
22.76,31846.6,34655.9,-0.2082,-0.4465,149.2,97.7,0.493
22.78,31793.3,34629.4,-0.2819,-0.4789,149.2,97.7,0.493
22.8,31837.2,34647.8,-0.2212,-0.4564,149.2,97.7,0.493
22.82,31878.6,34528.7,-0.164,-0.6017,149.2,97.7,0.493
22.84,31722.7,34534.2,-0.3795,-0.595,149.2,97.7,0.493
22.86,31669.4,34458.8,-0.4532,-0.6869,149.2,97.7,0.493
22.88,31816.6,34550.7,-0.2496,-0.5749,149.2,97.7,0.493
22.9,31906.4,34872.4,-0.1254,-0.1824,149.2,97.7,0.493
22.92,32125.6,35251.6,0.1776,0.28,149.2,97.7,0.493
22.94,32270.5,35611.7,0.378,0.7192,149.2,97.7,0.493
22.96,32243.3,35716.0,0.3404,0.8465,149.2,97.7,0.493
22.98,32313.9,35694.2,0.438,0.8198,149.2,97.7,0.493
23.0,32237.1,35557.8,0.3318,0.6535,149.2,97.7,0.493
23.02,32144.8,35294.0,0.2042,0.3317,149.2,97.7,0.493
23.04,32097.4,35141.7,0.1387,0.146,149.2,97.7,0.493
23.06,32054.5,35089.8,0.0793,0.0827,149.2,97.7,0.493
23.08,32036.5,35043.7,0.0544,0.0265,149.2,97.7,0.493
23.1,32024.0,34944.8,0.0372,-0.0941,149.2,97.7,0.493
23.12,31900.1,34849.8,-0.1342,-0.2101,149.2,97.7,0.493
23.14,31891.2,34825.7,-0.1465,-0.2394,149.2,97.7,0.493
23.16,31843.6,34688.7,-0.2124,-0.4065,149.2,97.7,0.493
23.18,31860.5,34617.6,-0.189,-0.4933,149.2,97.7,0.493
23.2,31849.2,34723.5,-0.2047,-0.364,149.2,97.7,0.493
23.22,31842.9,34482.6,-0.2133,-0.6578,149.2,97.7,0.493
23.24,31783.2,34471.7,-0.2958,-0.6712,149.2,97.7,0.493
23.26,31796.0,34423.7,-0.2781,-0.7297,149.2,97.7,0.493
23.28,31876.9,34532.5,-0.1663,-0.5971,149.2,97.7,0.493
23.3,32026.6,34872.0,0.0407,-0.1829,149.2,97.7,0.493
23.32,32190.5,35264.9,0.2675,0.2962,149.2,97.7,0.493
23.34,32196.1,35508.0,0.2751,0.5928,149.2,97.7,0.493
23.36,32356.5,35778.5,0.497,0.9226,149.2,97.7,0.493
23.38,32406.9,35713.9,0.5666,0.8439,149.2,97.7,0.493
23.4,32225.8,35647.1,0.3162,0.7624,149.2,97.7,0.493
23.42,32163.3,35364.6,0.2298,0.4178,149.2,97.7,0.493
23.44,31991.4,35182.2,-0.008,0.1953,149.2,97.7,0.493
23.46,31980.6,35075.9,-0.0229,0.0657,149.2,97.7,0.493
23.48,32019.0,35100.9,0.0302,0.0962,149.2,97.7,0.493
23.5,32007.1,34989.4,0.0138,-0.0398,149.2,97.7,0.493
23.52,31920.2,34827.8,-0.1064,-0.2368,149.2,97.7,0.493
23.54,31946.7,34814.1,-0.0697,-0.2536,149.2,97.7,0.493
23.56,31861.8,34697.9,-0.1872,-0.3953,149.2,97.7,0.493
23.58,31875.9,34657.3,-0.1677,-0.4448,149.2,97.7,0.493
23.6,31853.5,34713.2,-0.1986,-0.3766,149.2,97.7,0.493
23.62,31908.1,34569.9,-0.1231,-0.5514,149.2,97.7,0.493
23.64,31747.7,34434.0,-0.345,-0.7171,149.2,97.7,0.493
23.66,31748.2,34434.0,-0.3443,-0.7172,149.2,97.7,0.493
23.68,31729.8,34526.2,-0.3697,-0.6047,149.2,97.7,0.493
23.7,31964.9,34819.0,-0.0446,-0.2476,149.2,97.7,0.493
23.72,32049.7,35235.4,0.0727,0.2602,149.2,97.7,0.493
23.74,32305.2,35605.9,0.4261,0.7122,149.2,97.7,0.493
23.76,32297.6,35733.2,0.4156,0.8674,149.2,97.7,0.493
23.78,32311.9,35674.6,0.4353,0.7959,149.2,97.7,0.493
23.8,32315.4,35646.8,0.4402,0.762,149.2,97.7,0.493
23.82,32158.1,35434.0,0.2227,0.5025,149.2,97.7,0.493
23.84,32009.1,35217.4,0.0166,0.2383,149.2,97.7,0.493
23.86,32125.2,35100.1,0.1771,0.0953,149.2,97.7,0.493
23.88,31930.6,34980.6,-0.0921,-0.0505,149.2,97.7,0.493
23.9,32007.6,35024.6,0.0144,0.0031,149.2,97.7,0.493
23.92,32005.8,34851.4,0.012,-0.2081,149.2,97.7,0.493
23.94,31917.7,34756.0,-0.1099,-0.3244,149.2,97.7,0.493
23.96,31882.9,34746.1,-0.158,-0.3365,149.2,97.7,0.493
23.98,31897.0,34721.1,-0.1385,-0.367,149.2,97.7,0.493
24.0,31859.7,34538.3,-0.1901,-0.59,149.2,97.7,0.493
24.02,31756.8,34594.1,-0.3323,-0.5219,149.2,97.7,0.493
24.04,31782.5,34477.7,-0.2968,-0.6639,149.2,97.7,0.493
24.06,31708.2,34466.9,-0.3997,-0.677,149.2,97.7,0.493
24.08,31744.3,34609.8,-0.3496,-0.5027,149.2,97.7,0.493
24.1,31984.0,34712.3,-0.0182,-0.3777,149.2,97.7,0.493
24.12,31952.5,35099.5,-0.0617,0.0945,149.2,97.7,0.493
24.14,32145.9,35479.3,0.2057,0.5577,149.2,97.7,0.493
24.16,32352.3,35731.6,0.4912,0.8655,149.2,97.7,0.493
24.18,32321.4,35666.0,0.4484,0.7855,149.2,97.7,0.493
24.2,32245.7,35534.6,0.3438,0.6252,149.2,97.7,0.493
24.22,32201.5,35382.1,0.2826,0.4392,149.2,97.7,0.493
24.24,32035.5,35204.3,0.0531,0.2223,149.2,97.7,0.493
24.26,32041.7,35086.2,0.0616,0.0782,149.2,97.7,0.493
24.28,32051.0,35084.6,0.0745,0.0763,149.2,97.7,0.493
24.3,32051.8,34988.3,0.0756,-0.0411,149.2,97.7,0.493
24.32,31934.6,34934.0,-0.0866,-0.1074,149.2,97.7,0.493
24.34,31901.0,34834.1,-0.1329,-0.2292,149.2,97.7,0.493
24.36,31857.3,34739.2,-0.1933,-0.345,149.2,97.7,0.493
24.38,31879.2,34656.2,-0.1631,-0.4461,149.2,97.7,0.493
24.4,31823.2,34616.0,-0.2406,-0.4952,149.2,97.7,0.493
24.42,31824.0,34608.9,-0.2395,-0.5039,149.2,97.7,0.493
24.44,31850.1,34620.2,-0.2034,-0.4901,149.2,97.7,0.493
24.46,31787.7,34338.6,-0.2897,-0.8335,149.2,97.7,0.493
24.48,31757.0,34578.9,-0.3321,-0.5404,149.2,97.7,0.493
24.5,31953.5,34697.9,-0.0604,-0.3953,149.2,97.7,0.493
24.52,32061.2,35154.8,0.0886,0.1619,149.2,97.7,0.493
24.54,32270.8,35416.4,0.3785,0.4811,149.2,97.7,0.493
24.56,32337.2,35644.6,0.4703,0.7593,149.2,97.7,0.493
24.58,32388.8,35800.5,0.5417,0.9494,149.2,97.7,0.493
24.6,32221.0,35694.1,0.3096,0.8197,149.2,97.7,0.493
24.62,32223.0,35522.0,0.3123,0.6098,149.2,97.7,0.493
24.64,32108.3,35158.4,0.1537,0.1664,149.2,97.7,0.493
24.66,32102.3,35120.1,0.1455,0.1196,149.2,97.7,0.493
24.68,32021.1,35093.0,0.0331,0.0866,149.2,97.7,0.493
24.7,32018.8,35070.3,0.0299,0.0589,149.2,97.7,0.493
24.72,31935.0,34910.9,-0.0859,-0.1356,149.2,97.7,0.493
24.74,31911.0,34800.2,-0.1191,-0.2705,149.2,97.7,0.493
24.76,31903.8,34691.0,-0.129,-0.4037,149.2,97.7,0.493
24.78,31812.5,34717.6,-0.2553,-0.3712,149.2,97.7,0.493
24.8,31868.3,34615.9,-0.1782,-0.4953,149.2,97.7,0.493
24.82,31749.1,34574.8,-0.343,-0.5454,149.2,97.7,0.493
24.84,31765.6,34525.5,-0.3203,-0.6056,149.2,97.7,0.493
24.86,31706.3,34437.1,-0.4022,-0.7134,149.2,97.7,0.493
24.88,31654.7,34446.3,-0.4736,-0.7022,149.2,97.7,0.493
24.9,31925.5,34727.8,-0.099,-0.3588,149.2,97.7,0.493
24.92,32020.6,35020.7,0.0324,-0.0016,149.2,97.7,0.493
24.94,32142.9,35404.6,0.2016,0.4666,149.2,97.7,0.493
24.96,32316.1,35687.5,0.4412,0.8116,149.2,97.7,0.493
24.98,32342.8,35650.5,0.4781,0.7665,149.2,97.7,0.493
25.0,32250.9,35661.0,0.3509,0.7793,149.2,97.7,0.493
25.02,32175.9,35330.4,0.2472,0.3762,149.2,97.7,0.493
25.04,32167.5,35167.0,0.2356,0.1768,149.2,97.7,0.493
25.06,31975.7,35086.1,-0.0297,0.0781,149.2,97.7,0.493
25.08,32065.4,35046.5,0.0944,0.0299,149.2,97.7,0.493
25.1,32070.9,34982.9,0.102,-0.0477,149.2,97.7,0.493
25.12,31946.8,34939.0,-0.0696,-0.1012,149.2,97.7,0.493
25.14,31952.6,34801.8,-0.0616,-0.2686,149.2,97.7,0.493
25.16,31936.3,34654.3,-0.0842,-0.4485,149.2,97.7,0.493
25.18,31911.1,34679.0,-0.119,-0.4184,149.2,97.7,0.493
25.2,31927.3,34669.0,-0.0966,-0.4306,149.2,97.7,0.493
25.22,31795.1,34564.0,-0.2794,-0.5586,149.2,97.7,0.493
25.24,31808.1,34579.7,-0.2614,-0.5394,149.2,97.7,0.493
25.26,31721.1,34405.1,-0.3818,-0.7525,149.2,97.7,0.493
25.28,31745.5,34456.0,-0.348,-0.6903,149.2,97.7,0.493
25.3,31841.1,34786.6,-0.2158,-0.2871,149.2,97.7,0.493
25.32,32052.9,35027.3,0.0772,0.0064,149.2,97.7,0.493
25.34,32181.4,35355.3,0.2549,0.4065,149.2,97.7,0.493
25.36,32273.3,35623.2,0.3819,0.7332,149.2,97.7,0.493
25.38,32340.5,35653.7,0.4748,0.7704,149.2,97.7,0.493
25.4,32256.3,35732.2,0.3584,0.8662,149.2,97.7,0.493
25.42,32240.5,35387.9,0.3366,0.4463,149.2,97.7,0.493
25.44,32140.5,35278.1,0.1982,0.3124,149.2,97.7,0.493
25.46,32063.7,35158.9,0.092,0.1669,149.2,97.7,0.493
25.48,32128.0,35044.2,0.181,0.027,149.2,97.7,0.493
25.5,32033.0,35037.0,0.0497,0.0183,149.2,97.7,0.493
25.52,32019.5,34990.1,0.031,-0.039,149.2,97.7,0.493
25.54,31897.9,34728.1,-0.1372,-0.3584,149.2,97.7,0.493
25.56,31835.0,34720.6,-0.2242,-0.3676,149.2,97.7,0.493
25.58,31847.1,34670.8,-0.2075,-0.4284,149.2,97.7,0.493
25.6,31902.0,34653.3,-0.1316,-0.4497,149.2,97.7,0.493
25.62,31819.0,34550.3,-0.2463,-0.5753,149.2,97.7,0.493
25.64,31862.9,34537.3,-0.1857,-0.5911,149.2,97.7,0.493
25.66,31684.6,34509.9,-0.4322,-0.6246,149.2,97.7,0.493
25.68,31777.5,34574.4,-0.3037,-0.5459,149.2,97.7,0.493
25.7,31787.4,34616.7,-0.2901,-0.4943,149.2,97.7,0.493
25.72,31965.8,35030.7,-0.0434,0.0105,149.2,97.7,0.493
25.74,32186.8,35388.5,0.2623,0.447,149.2,97.7,0.493
25.76,32305.9,35608.2,0.427,0.715,149.2,97.7,0.493
25.78,32347.8,35765.8,0.485,0.9072,149.2,97.7,0.493
25.8,32226.4,35661.9,0.3171,0.7805,149.2,97.7,0.493
25.82,32316.3,35486.1,0.4414,0.566,149.2,97.7,0.493
25.84,31998.3,35172.2,0.0016,0.1831,149.2,97.7,0.493
25.86,32063.8,35178.5,0.0921,0.1908,149.2,97.7,0.493
25.88,31999.7,35148.8,0.0035,0.1547,149.2,97.7,0.493
25.9,32058.1,35160.3,0.0844,0.1687,149.2,97.7,0.493
25.92,32000.7,34897.8,0.005,-0.1515,149.2,97.7,0.493
25.94,31951.7,34796.5,-0.0628,-0.275,149.2,97.7,0.493
25.96,31959.7,34705.4,-0.0518,-0.3861,149.2,97.7,0.493
25.98,31858.9,34619.8,-0.1911,-0.4905,149.2,97.7,0.493
26.0,31918.3,34653.2,-0.109,-0.4498,149.2,97.7,0.493
26.02,31818.7,34655.6,-0.2467,-0.4469,149.2,97.7,0.493
26.04,31788.9,34480.9,-0.288,-0.66,149.2,97.7,0.493
26.06,31758.0,34432.9,-0.3307,-0.7185,149.2,97.7,0.493
26.08,31754.6,34558.6,-0.3355,-0.5652,149.2,97.7,0.493
26.1,31885.8,34649.8,-0.1539,-0.4539,149.2,97.7,0.493
26.12,31993.9,34875.6,-0.0045,-0.1785,149.2,97.7,0.493
26.14,32177.9,35366.1,0.25,0.4197,149.2,97.7,0.493
26.16,32246.7,35708.8,0.3452,0.8377,149.2,97.7,0.493
26.18,32413.1,35759.9,0.5753,0.9,149.2,97.7,0.493
26.2,32282.8,35757.2,0.3951,0.8966,149.2,97.7,0.493
26.22,32239.9,35446.5,0.3358,0.5177,149.2,97.7,0.493
26.24,32069.3,35243.7,0.0997,0.2704,149.2,97.7,0.493
26.26,32120.4,35123.7,0.1705,0.124,149.2,97.7,0.493
26.28,32085.8,35093.1,0.1227,0.0867,149.2,97.7,0.493
26.3,31987.3,35070.2,-0.0136,0.0587,149.2,97.7,0.493
26.32,31871.4,34962.3,-0.1738,-0.0728,149.2,97.7,0.493
26.34,31904.1,34794.0,-0.1287,-0.2781,149.2,97.7,0.493
26.36,31827.9,34683.9,-0.234,-0.4124,149.2,97.7,0.493
26.38,31842.8,34681.6,-0.2134,-0.4152,149.2,97.7,0.493
26.4,31803.5,34686.5,-0.2677,-0.4093,149.2,97.7,0.493
26.42,31878.2,34610.9,-0.1644,-0.5014,149.2,97.7,0.493
26.44,31871.8,34571.2,-0.1733,-0.5499,149.2,97.7,0.493
26.46,31740.7,34461.4,-0.3547,-0.6837,149.2,97.7,0.493
26.48,31835.9,34514.3,-0.223,-0.6192,149.2,97.7,0.493
26.5,31855.6,34644.1,-0.1957,-0.461,149.2,97.7,0.493
26.52,31995.4,34906.0,-0.0024,-0.1416,149.2,97.7,0.493
26.54,32064.5,35291.3,0.0931,0.3284,149.2,97.7,0.493
26.56,32200.6,35599.0,0.2814,0.7037,149.2,97.7,0.493
26.58,32387.5,35727.3,0.5398,0.8602,149.2,97.7,0.493
26.6,32370.8,35639.7,0.5168,0.7534,149.2,97.7,0.493
26.62,32198.0,35510.3,0.2777,0.5955,149.2,97.7,0.493
26.64,32209.5,35252.8,0.2937,0.2814,149.2,97.7,0.493
26.66,32049.5,35133.6,0.0724,0.136,149.2,97.7,0.493
26.68,32080.1,35146.5,0.1148,0.1519,149.2,97.7,0.493
26.7,32008.3,34990.9,0.0155,-0.038,149.2,97.7,0.493
26.72,32006.3,34944.2,0.0127,-0.0948,149.2,97.7,0.493
26.74,31922.7,34803.0,-0.103,-0.2672,149.2,97.7,0.493
26.76,31883.0,34710.7,-0.1578,-0.3797,149.2,97.7,0.493
26.78,31873.7,34640.3,-0.1707,-0.4655,149.2,97.7,0.493
26.8,31901.3,34633.9,-0.1326,-0.4734,149.2,97.7,0.493
26.82,31901.5,34659.9,-0.1323,-0.4416,149.2,97.7,0.493
26.84,31839.0,34597.3,-0.2187,-0.518,149.2,97.7,0.493
26.86,31841.8,34440.3,-0.2148,-0.7094,149.2,97.7,0.493
26.88,31670.3,34442.3,-0.452,-0.7071,149.2,97.7,0.493
26.9,31784.7,34625.7,-0.2938,-0.4834,149.2,97.7,0.493
26.92,31951.0,34931.0,-0.0638,-0.111,149.2,97.7,0.493
26.94,32127.6,35189.5,0.1804,0.2043,149.2,97.7,0.493
26.96,32273.0,35511.9,0.3815,0.5974,149.2,97.7,0.493
26.98,32373.0,35747.5,0.5198,0.8849,149.2,97.7,0.493
27.0,32385.4,35744.3,0.537,0.8809,149.2,97.7,0.493
27.02,32211.1,35640.6,0.2959,0.7545,149.2,97.7,0.493
27.04,32164.5,35324.3,0.2315,0.3687,149.2,97.7,0.493
27.06,32025.9,35133.9,0.0397,0.1365,149.2,97.7,0.493
27.08,31995.9,35170.4,-0.0017,0.181,149.2,97.7,0.493
27.1,31929.5,35084.8,-0.0935,0.0765,149.2,97.7,0.493
27.12,32028.2,34924.7,0.043,-0.1186,149.2,97.7,0.493
27.14,31945.8,34847.3,-0.0709,-0.2131,149.2,97.7,0.493
27.16,31897.7,34715.5,-0.1375,-0.3739,149.2,97.7,0.493
27.18,31809.8,34612.5,-0.2591,-0.4995,149.2,97.7,0.493
27.2,31829.5,34734.4,-0.2319,-0.3508,149.2,97.7,0.493
27.22,31845.2,34604.5,-0.2101,-0.5092,149.2,97.7,0.493
27.24,31798.9,34626.3,-0.2742,-0.4826,149.2,97.7,0.493
27.26,31820.6,34478.1,-0.2441,-0.6633,149.2,97.7,0.493
27.28,31752.6,34435.9,-0.3383,-0.7148,149.2,97.7,0.493
27.3,31767.9,34517.9,-0.317,-0.6149,149.2,97.7,0.493
27.32,32009.5,34871.0,0.0171,-0.1841,149.2,97.7,0.493
27.34,32086.4,35249.3,0.1234,0.2772,149.2,97.7,0.493
27.36,32240.2,35575.7,0.3362,0.6753,149.2,97.7,0.493
27.38,32318.2,35785.6,0.4441,0.9313,149.2,97.7,0.493
27.4,32345.6,35798.4,0.4819,0.9469,149.2,97.7,0.493
27.42,32210.5,35613.0,0.2951,0.7207,149.2,97.7,0.493
27.44,32061.0,35322.7,0.0883,0.3667,149.2,97.7,0.493
27.46,32136.9,35172.8,0.1933,0.1839,149.2,97.7,0.493
27.48,31974.0,35055.9,-0.032,0.0413,149.2,97.7,0.493
27.5,32064.6,35108.4,0.0933,0.1053,149.2,97.7,0.493
27.52,31980.4,35009.4,-0.0231,-0.0153,149.2,97.7,0.493
27.54,31866.9,34818.6,-0.1801,-0.2481,149.2,97.7,0.493
27.56,31965.0,34766.1,-0.0445,-0.3121,149.2,97.7,0.493
27.58,31832.2,34707.2,-0.2281,-0.3839,149.2,97.7,0.493
27.6,31842.1,34691.0,-0.2144,-0.4037,149.2,97.7,0.493
27.62,31874.4,34678.4,-0.1697,-0.4191,149.2,97.7,0.493
27.64,31874.0,34543.5,-0.1703,-0.5836,149.2,97.7,0.493
27.66,31782.2,34425.5,-0.2972,-0.7276,149.2,97.7,0.493
27.68,31700.5,34522.3,-0.4103,-0.6095,149.2,97.7,0.493
27.7,31760.8,34607.2,-0.3268,-0.5059,149.2,97.7,0.493
27.72,31877.9,34714.8,-0.1649,-0.3747,149.2,97.7,0.493
27.74,31971.2,35186.9,-0.0359,0.2011,149.2,97.7,0.493
27.76,32231.9,35494.3,0.3246,0.576,149.2,97.7,0.493
27.78,32344.5,35789.6,0.4805,0.9362,149.2,97.7,0.493
27.8,32318.8,35811.1,0.4449,0.9624,149.2,97.7,0.493
27.82,32252.3,35563.4,0.3529,0.6602,149.2,97.7,0.493
27.84,32143.1,35387.7,0.2019,0.446,149.2,97.7,0.493
27.86,32098.4,35233.2,0.1401,0.2576,149.2,97.7,0.493
27.88,32032.9,35119.6,0.0494,0.119,149.2,97.7,0.493
27.9,32005.1,35147.8,0.0111,0.1535,149.2,97.7,0.493
27.92,32014.6,34969.0,0.0241,-0.0647,149.2,97.7,0.493
27.94,31941.8,34843.7,-0.0765,-0.2175,149.2,97.7,0.493
27.96,32004.3,34762.5,0.01,-0.3165,149.2,97.7,0.493
27.98,31743.6,34683.2,-0.3506,-0.4132,149.2,97.7,0.493
28.0,31878.6,34660.7,-0.164,-0.4407,149.2,97.7,0.493
28.02,31881.9,34555.0,-0.1594,-0.5696,149.2,97.7,0.493
28.04,31798.4,34612.5,-0.2749,-0.4994,149.2,97.7,0.493
28.06,31784.8,34531.9,-0.2936,-0.5977,149.2,97.7,0.493
28.08,31727.0,34460.4,-0.3736,-0.6849,149.2,97.7,0.493
28.1,31721.7,34583.6,-0.3809,-0.5348,149.2,97.7,0.493
28.12,31858.2,34695.7,-0.1922,-0.398,149.2,97.7,0.493
28.14,32067.2,35236.5,0.0969,0.2616,149.2,97.7,0.493
28.16,32236.2,35394.9,0.3307,0.4547,149.2,97.7,0.493
28.18,32255.1,35728.9,0.3568,0.8622,149.2,97.7,0.493
28.2,32262.7,35739.9,0.3672,0.8755,149.2,97.7,0.493
28.22,32280.4,35578.5,0.3918,0.6788,149.2,97.7,0.493
28.24,32207.6,35449.3,0.2911,0.5211,149.2,97.7,0.493
28.26,32113.5,35179.4,0.161,0.192,149.2,97.7,0.493
28.28,32056.8,35166.2,0.0825,0.1758,149.2,97.7,0.493
28.3,31945.3,35003.3,-0.0717,-0.0228,149.2,97.7,0.493
28.32,31999.0,34970.4,0.0026,-0.0629,149.2,97.7,0.493
28.34,32027.8,34868.7,0.0423,-0.1869,149.2,97.7,0.493
28.36,31925.5,34763.4,-0.099,-0.3154,149.2,97.7,0.493
28.38,31899.2,34797.9,-0.1355,-0.2733,149.2,97.7,0.493
28.4,31866.5,34714.3,-0.1807,-0.3753,149.2,97.7,0.493
28.42,31845.1,34643.8,-0.2102,-0.4613,149.2,97.7,0.493
28.44,31894.7,34695.1,-0.1416,-0.3988,149.2,97.7,0.493
28.46,31852.4,34394.0,-0.2002,-0.766,149.2,97.7,0.493
28.48,31810.1,34407.6,-0.2587,-0.7494,149.2,97.7,0.493
28.5,31698.5,34446.5,-0.413,-0.7019,149.2,97.7,0.493
28.52,31943.5,34793.5,-0.0742,-0.2787,149.2,97.7,0.493
28.54,31996.1,35095.1,-0.0015,0.0891,149.2,97.7,0.493
28.56,32208.7,35499.8,0.2926,0.5828,149.2,97.7,0.493
28.58,32383.8,35736.0,0.5348,0.8708,149.2,97.7,0.493
28.6,32352.3,35753.4,0.4911,0.8921,149.2,97.7,0.493
28.62,32279.6,35593.0,0.3906,0.6964,149.2,97.7,0.493
28.64,32163.4,35345.5,0.23,0.3946,149.2,97.7,0.493
28.66,32122.0,35123.6,0.1727,0.1239,149.2,97.7,0.493
28.68,32080.9,35110.1,0.1158,0.1074,149.2,97.7,0.493
28.7,32010.2,35033.9,0.018,0.0145,149.2,97.7,0.493
28.72,32041.8,35015.8,0.0618,-0.0076,149.2,97.7,0.493
28.74,31930.1,34959.9,-0.0927,-0.0757,149.2,97.7,0.493
28.76,31909.3,34773.9,-0.1214,-0.3026,149.2,97.7,0.493
28.78,31824.5,34791.7,-0.2387,-0.2809,149.2,97.7,0.493
28.8,31861.6,34709.8,-0.1874,-0.3808,149.2,97.7,0.493
28.82,31839.7,34656.6,-0.2177,-0.4456,149.2,97.7,0.493
28.84,31797.2,34596.9,-0.2765,-0.5185,149.2,97.7,0.493
28.86,31810.3,34521.7,-0.2584,-0.6102,149.2,97.7,0.493
28.88,31729.4,34479.4,-0.3703,-0.6618,149.2,97.7,0.493
28.9,31863.3,34520.3,-0.1851,-0.6119,149.2,97.7,0.493
28.92,31875.4,34803.3,-0.1684,-0.2667,149.2,97.7,0.493
28.94,32082.1,35115.8,0.1175,0.1143,149.2,97.7,0.493
28.96,32185.4,35467.1,0.2604,0.5428,149.2,97.7,0.493
28.98,32307.8,35687.3,0.4297,0.8114,149.2,97.7,0.493
29.0,32362.9,35754.0,0.5058,0.8928,149.2,97.7,0.493
29.02,32275.5,35641.4,0.3849,0.7554,149.2,97.7,0.493
29.04,32190.4,35407.2,0.2673,0.4698,149.2,97.7,0.493
29.06,32071.5,35245.1,0.1028,0.2721,149.2,97.7,0.493
29.08,32102.1,35134.4,0.1452,0.1371,149.2,97.7,0.493
29.1,32024.4,34988.1,0.0377,-0.0414,149.2,97.7,0.493
29.12,32010.0,35055.8,0.0178,0.0412,149.2,97.7,0.493
29.14,31980.8,34924.1,-0.0225,-0.1194,149.2,97.7,0.493
29.16,31941.1,34825.5,-0.0775,-0.2396,149.2,97.7,0.493
29.18,31958.2,34700.5,-0.0538,-0.3921,149.2,97.7,0.493
29.2,31786.3,34686.0,-0.2916,-0.4098,149.2,97.7,0.493
29.22,31883.3,34601.9,-0.1574,-0.5123,149.2,97.7,0.493
29.24,31812.4,34611.8,-0.2555,-0.5003,149.2,97.7,0.493
29.26,31788.1,34525.5,-0.2891,-0.6056,149.2,97.7,0.493
29.28,31806.0,34412.8,-0.2643,-0.7431,149.2,97.7,0.493
29.3,31700.0,34548.4,-0.4109,-0.5776,149.2,97.7,0.493
29.32,32007.2,34651.2,0.014,-0.4522,149.2,97.7,0.493
29.34,31963.4,34987.2,-0.0467,-0.0424,149.2,97.7,0.493
29.36,32187.0,35392.5,0.2625,0.4518,149.2,97.7,0.493
29.38,32274.1,35695.3,0.383,0.8212,149.2,97.7,0.493
29.4,32296.9,35846.9,0.4146,1.0061,149.2,97.7,0.493
29.42,32312.6,35686.4,0.4362,0.8103,149.2,97.7,0.493
29.44,32188.0,35451.3,0.264,0.5236,149.2,97.7,0.493
29.46,32098.9,35277.4,0.1407,0.3114,149.2,97.7,0.493
29.48,32111.9,35238.8,0.1588,0.2644,149.2,97.7,0.493
29.5,31949.3,35002.7,-0.0662,-0.0236,149.2,97.7,0.493
29.52,32042.8,34968.3,0.0632,-0.0655,149.2,97.7,0.493
29.54,31969.1,34970.7,-0.0387,-0.0626,149.2,97.7,0.493
29.56,31878.7,34817.7,-0.1638,-0.2491,149.2,97.7,0.493
29.58,31902.1,34693.4,-0.1315,-0.4008,149.2,97.7,0.493
29.6,31947.0,34763.8,-0.0694,-0.315,149.2,97.7,0.493
29.62,31820.0,34670.4,-0.2449,-0.4288,149.2,97.7,0.493
29.64,31931.3,34539.2,-0.0911,-0.5889,149.2,97.7,0.493
29.66,31771.4,34541.6,-0.3122,-0.5859,149.2,97.7,0.493
29.68,31667.8,34555.3,-0.4555,-0.5692,149.2,97.7,0.493
29.7,31706.6,34438.6,-0.4018,-0.7115,149.2,97.7,0.493
29.72,31848.0,34687.3,-0.2063,-0.4082,149.2,97.7,0.493
29.74,31933.1,34921.3,-0.0886,-0.1228,149.2,97.7,0.493
29.76,32116.6,35347.1,0.1652,0.3964,149.2,97.7,0.493
29.78,32316.6,35624.1,0.4418,0.7343,149.2,97.7,0.493
29.8,32324.9,35786.3,0.4533,0.9322,149.2,97.7,0.493
29.82,32235.3,35731.5,0.3294,0.8653,149.2,97.7,0.493
29.84,32238.6,35495.0,0.334,0.5768,149.2,97.7,0.493
29.86,32032.5,35230.1,0.0489,0.2537,149.2,97.7,0.493
29.88,32084.2,35055.3,0.1204,0.0406,149.2,97.7,0.493
29.9,31973.6,35078.3,-0.0325,0.0687,149.2,97.7,0.493
29.92,32001.8,35061.3,0.0065,0.0479,149.2,97.7,0.493
29.94,32003.4,34958.2,0.0087,-0.0778,149.2,97.7,0.493
29.96,31875.0,34792.9,-0.169,-0.2794,149.2,97.7,0.493
29.98,31885.1,34660.5,-0.1549,-0.441,149.2,97.7,0.493
30.0,31211.5,37945.2,-1.0865,3.5652,149.2,97.7,0.493
30.02,29764.7,36063.0,-3.0875,1.2697,149.2,97.7,0.493
30.04,32723.3,32531.5,1.0043,-3.0375,149.2,97.7,0.493
30.06,34194.0,32070.5,3.0383,-3.5997,149.2,97.7,0.493
30.08,32645.9,34536.4,0.8972,-0.5922,149.2,97.7,0.493
30.1,30355.1,32129.4,-2.2709,-3.5279,149.2,97.7,0.493
30.12,33467.4,36150.5,2.0333,1.3763,149.2,97.7,0.493
30.14,29587.5,30361.7,-3.3325,-5.6839,149.2,97.7,0.493
30.16,30622.8,34444.8,-1.9007,-0.704,149.2,97.7,0.493
30.18,35128.3,35332.5,4.3304,0.3786,149.2,97.7,0.493
30.2,31280.5,36462.1,-0.9912,1.7563,149.2,97.7,0.493
30.22,31196.4,33520.9,-1.1074,-1.8308,149.2,97.7,0.493
30.24,32109.3,37134.3,0.1551,2.5762,149.2,97.7,0.493
30.26,34417.7,33007.5,3.3476,-2.457,149.2,97.7,0.493
30.28,29334.0,34242.2,-3.6831,-0.9511,149.2,97.7,0.493
30.3,33534.0,34243.0,2.1255,-0.9502,149.2,97.7,0.493
30.32,32567.9,30500.5,0.7893,-5.5145,149.2,97.7,0.493
30.34,29319.0,37101.5,-3.7038,2.5362,149.2,97.7,0.493
30.36,31813.0,36619.2,-0.2547,1.948,149.2,97.7,0.493
30.38,30588.0,30712.4,-1.9488,-5.2561,149.2,97.7,0.493
30.4,33895.6,31426.8,2.6255,-4.3849,149.2,97.7,0.493
30.42,31462.9,36250.8,-0.7388,1.4987,149.2,97.7,0.493
30.44,34391.6,37443.0,3.3115,2.9527,149.2,97.7,0.493
30.46,30541.5,35311.2,-2.0131,0.3527,149.2,97.7,0.493
30.48,33800.7,38095.2,2.4943,3.7482,149.2,97.7,0.493
30.5,28120.2,34201.4,-5.3618,-1.0009,149.2,97.7,0.493
30.52,32867.1,37160.4,1.2032,2.608,149.2,97.7,0.493
30.54,33346.2,34893.9,1.8657,-0.1562,149.2,97.7,0.493
30.56,30302.7,37047.9,-2.3433,2.4708,149.2,97.7,0.493
30.58,28772.3,34482.5,-4.4599,-0.658,149.2,97.7,0.493
30.6,38230.7,38950.8,8.621,4.7917,149.2,97.7,0.493
30.62,31245.3,35997.6,-1.0399,1.1898,149.2,97.7,0.493
30.64,31753.0,36533.7,-0.3376,1.8437,149.2,97.7,0.493
30.66,31104.5,37328.7,-1.2344,2.8133,149.2,97.7,0.493
30.68,31681.5,32765.3,-0.4366,-2.7523,149.2,97.7,0.493
30.7,36363.5,34545.1,6.0386,-0.5816,149.2,97.7,0.493
30.72,31080.4,32367.6,-1.2679,-3.2374,149.2,97.7,0.493
30.74,30254.5,36617.3,-2.41,1.9457,149.2,97.7,0.493
30.76,28758.7,33478.5,-4.4788,-1.8825,149.2,97.7,0.493
30.78,35021.8,37567.4,4.1831,3.1044,149.2,97.7,0.493
30.8,29564.7,35706.7,-3.364,0.8351,149.2,97.7,0.493
30.82,32689.6,34855.5,0.9577,-0.2031,149.2,97.7,0.493
30.84,30425.4,36627.7,-2.1737,1.9583,149.2,97.7,0.493
30.86,32428.7,34216.8,0.5969,-0.982,149.2,97.7,0.493
30.88,30802.0,32709.9,-1.6529,-2.82,149.2,97.7,0.493
30.9,31600.6,34602.4,-0.5483,-0.5118,149.2,97.7,0.493
30.92,33167.6,37899.3,1.6187,3.5092,149.2,97.7,0.493
30.94,33569.7,35761.9,2.1749,0.9024,149.2,97.7,0.493
30.96,30862.1,33827.1,-1.5697,-1.4574,149.2,97.7,0.493
30.98,31568.8,37703.9,-0.5924,3.271,149.2,97.7,0.493
31.0,31232.3,35821.9,-1.0578,0.9756,149.2,97.7,0.493
31.02,32245.9,36661.1,0.344,1.999,149.2,97.7,0.493
31.04,31422.9,34238.3,-0.7942,-0.9559,149.2,97.7,0.493
31.06,29827.7,36900.5,-3.0004,2.291,149.2,97.7,0.493
31.08,29486.8,36052.2,-3.4718,1.2564,149.2,97.7,0.493
31.1,34701.0,35970.1,3.7394,1.1563,149.2,97.7,0.493
31.12,29658.3,36703.9,-3.2345,2.0513,149.2,97.7,0.493
31.14,28589.6,32871.4,-4.7126,-2.6229,149.2,97.7,0.493
31.16,33549.2,34737.6,2.1465,-0.3469,149.2,97.7,0.493
31.18,35827.8,33847.9,5.2978,-1.4319,149.2,97.7,0.493
31.2,30873.8,34666.6,-1.5535,-0.4334,149.2,97.7,0.493
31.22,34836.8,36521.7,3.9273,1.8291,149.2,97.7,0.493
31.24,34244.1,33969.2,3.1075,-1.2841,149.2,97.7,0.493
31.26,32924.3,33758.7,1.2823,-1.5408,149.2,97.7,0.493
31.28,26571.4,38088.4,-7.5038,3.7398,149.2,97.7,0.493
31.3,30675.5,33025.1,-1.8278,-2.4355,149.2,97.7,0.493
31.32,32452.5,33932.6,0.6298,-1.3287,149.2,97.7,0.493
31.34,33549.8,34457.5,2.1473,-0.6885,149.2,97.7,0.493
31.36,36713.7,34174.9,6.5229,-1.0332,149.2,97.7,0.493
31.38,31945.7,32896.0,-0.0711,-2.593,149.2,97.7,0.493
31.4,32624.2,38275.0,0.8673,3.9675,149.2,97.7,0.493
31.42,31012.8,33660.8,-1.3614,-1.6602,149.2,97.7,0.493
31.44,30310.7,36719.7,-2.3324,2.0705,149.2,97.7,0.493
31.46,31150.3,32380.4,-1.1711,-3.2218,149.2,97.7,0.493
31.48,32939.5,36522.4,1.3033,1.8299,149.2,97.7,0.493
31.5,29180.2,35122.3,-3.8958,0.1224,149.2,97.7,0.493
31.52,31929.3,33539.7,-0.0938,-1.8079,149.2,97.7,0.493
31.54,31642.3,38214.8,-0.4907,3.894,149.2,97.7,0.493
31.56,34391.6,37780.6,3.3115,3.3645,149.2,97.7,0.493
31.58,29031.0,34195.3,-4.1022,-1.0082,149.2,97.7,0.493
31.6,31632.0,37976.6,-0.505,3.6035,149.2,97.7,0.493
31.62,29676.8,36224.3,-3.209,1.4664,149.2,97.7,0.493
31.64,33877.9,35740.1,2.6011,0.8758,149.2,97.7,0.493
31.66,32201.0,29734.1,0.2819,-6.4493,149.2,97.7,0.493
31.68,34860.0,34979.4,3.9593,-0.052,149.2,97.7,0.493
31.7,31895.6,31236.9,-0.1404,-4.6164,149.2,97.7,0.493
31.72,34747.4,34864.4,3.8036,-0.1923,149.2,97.7,0.493
31.74,35933.3,36649.5,5.4436,1.9849,149.2,97.7,0.493
31.76,31255.7,35113.8,-1.0254,0.1119,149.2,97.7,0.493
31.78,32413.6,40851.7,0.5759,7.1101,149.2,97.7,0.493
31.8,35845.3,34743.6,5.3219,-0.3395,149.2,97.7,0.493
31.82,36298.8,37949.6,5.9491,3.5706,149.2,97.7,0.493
31.84,26465.0,36905.8,-7.6509,2.2975,149.2,97.7,0.493
31.86,34332.1,34927.6,3.2293,-0.1152,149.2,97.7,0.493
31.88,29393.7,32494.4,-3.6005,-3.0827,149.2,97.7,0.493
31.9,33503.2,37006.9,2.0829,2.4209,149.2,97.7,0.493
31.92,33064.4,33780.8,1.476,-1.5138,149.2,97.7,0.493
31.94,30949.1,37711.4,-1.4495,3.28,149.2,97.7,0.493
31.96,30325.6,36892.8,-2.3118,2.2816,149.2,97.7,0.493
31.98,29331.6,36706.4,-3.6864,2.0544,149.2,97.7,0.493
32.0,30492.7,34364.4,-2.0807,-0.8021,149.2,97.7,0.493
32.02,30964.4,36772.5,-1.4283,2.135,149.2,97.7,0.493
32.04,27106.7,35974.4,-6.7635,1.1615,149.2,97.7,0.493
32.06,32330.0,33074.6,0.4603,-2.3751,149.2,97.7,0.493
32.08,31645.2,36520.0,-0.4867,1.827,149.2,97.7,0.493
32.1,32747.1,34656.1,1.0372,-0.4463,149.2,97.7,0.493
32.12,30583.5,33096.5,-1.955,-2.3485,149.2,97.7,0.493
32.14,30986.5,31754.3,-1.3977,-3.9855,149.2,97.7,0.493
32.16,29906.3,32067.8,-2.8916,-3.6031,149.2,97.7,0.493
32.18,36645.6,36446.1,6.4288,1.7368,149.2,97.7,0.493
32.2,32103.4,33951.2,0.1469,-1.3059,149.2,97.7,0.493
32.22,31622.3,37449.9,-0.5184,2.9611,149.2,97.7,0.493
32.24,30515.8,34983.3,-2.0487,-0.0472,149.2,97.7,0.493
32.26,33984.4,29253.4,2.7483,-7.0355,149.2,97.7,0.493
32.28,27025.3,34082.4,-6.876,-1.1459,149.2,97.7,0.493
32.3,34670.9,35374.6,3.6978,0.43,149.2,97.7,0.493
32.32,29943.2,35562.2,-2.8405,0.6588,149.2,97.7,0.493
32.34,32781.7,33058.7,1.0851,-2.3945,149.2,97.7,0.493
32.36,30390.8,35041.7,-2.2215,0.024,149.2,97.7,0.493
32.38,32347.2,37651.3,0.4841,3.2068,149.2,97.7,0.493
32.4,30326.7,33463.6,-2.3102,-1.9007,149.2,97.7,0.493
32.42,29491.8,35422.6,-3.4649,0.4885,149.2,97.7,0.493
32.44,34014.0,35618.4,2.7893,0.7274,149.2,97.7,0.493
32.46,32877.9,37069.9,1.2181,2.4977,149.2,97.7,0.493
32.48,34690.9,34699.4,3.7255,-0.3934,149.2,97.7,0.493
32.5,31423.6,35830.2,-0.7932,0.9857,149.2,97.7,0.493
32.52,33983.9,34683.2,2.7477,-0.4133,149.2,97.7,0.493
32.54,32361.6,36532.8,0.504,1.8426,149.2,97.7,0.493
32.56,33004.9,35495.2,1.3938,0.5771,149.2,97.7,0.493
32.58,29100.1,36754.4,-4.0066,2.1129,149.2,97.7,0.493
32.6,29579.2,34770.5,-3.344,-0.3067,149.2,97.7,0.493
32.62,30385.4,38277.2,-2.2291,3.9701,149.2,97.7,0.493
32.64,30136.6,37131.8,-2.573,2.5731,149.2,97.7,0.493
32.66,34565.7,34189.7,3.5522,-1.0151,149.2,97.7,0.493
32.68,30534.0,31988.1,-2.0234,-3.7003,149.2,97.7,0.493
32.7,32249.1,34323.6,0.3484,-0.8518,149.2,97.7,0.493
32.72,35000.1,37651.6,4.153,3.2071,149.2,97.7,0.493
32.74,30788.0,37950.7,-1.6723,3.5719,149.2,97.7,0.493
32.76,31458.3,37534.1,-0.7452,3.0638,149.2,97.7,0.493
32.78,30293.9,33980.1,-2.3555,-1.2707,149.2,97.7,0.493
32.8,31689.5,36846.2,-0.4255,2.2249,149.2,97.7,0.493
32.82,30808.1,34673.8,-1.6444,-0.4247,149.2,97.7,0.493
32.84,36194.7,33923.2,5.8052,-1.3402,149.2,97.7,0.493
32.86,33962.6,32335.3,2.7182,-3.2768,149.2,97.7,0.493
32.88,33753.3,32805.5,2.4288,-2.7033,149.2,97.7,0.493
32.9,33613.1,35408.9,2.2349,0.4718,149.2,97.7,0.493
32.92,32994.5,32164.5,1.3793,-3.4851,149.2,97.7,0.493
32.94,32119.7,34591.3,0.1695,-0.5253,149.2,97.7,0.493
32.96,30599.2,40300.5,-1.9334,6.4378,149.2,97.7,0.493
32.98,32869.2,36469.9,1.206,1.7659,149.2,97.7,0.493
33.0,35574.8,35915.8,4.9479,1.09,149.2,97.7,0.493
33.02,28857.7,34840.1,-4.3418,-0.2219,149.2,97.7,0.493
33.04,32674.3,36130.1,0.9365,1.3514,149.2,97.7,0.493
33.06,33017.3,38175.3,1.4109,3.8458,149.2,97.7,0.493
33.08,32212.8,33140.4,0.2982,-2.2949,149.2,97.7,0.493
33.1,34609.5,36070.0,3.6129,1.2782,149.2,97.7,0.493
33.12,30040.0,35665.0,-2.7067,0.7842,149.2,97.7,0.493
33.14,31025.1,32279.1,-1.3444,-3.3454,149.2,97.7,0.493
33.16,33449.3,34660.5,2.0084,-0.4409,149.2,97.7,0.493
33.18,34012.0,32580.0,2.7865,-2.9784,149.2,97.7,0.493
33.2,31550.8,33181.8,-0.6172,-2.2444,149.2,97.7,0.493
33.22,30128.6,34858.3,-2.5841,-0.1997,149.2,97.7,0.493
33.24,31965.4,38695.1,-0.0439,4.4798,149.2,97.7,0.493
33.26,30729.6,33076.5,-1.753,-2.3728,149.2,97.7,0.493
33.28,33163.6,35493.1,1.6132,0.5746,149.2,97.7,0.493
33.3,30821.4,38748.9,-1.626,4.5454,149.2,97.7,0.493
33.32,33086.6,32343.4,1.5068,-3.2669,149.2,97.7,0.493
33.34,30994.7,33139.5,-1.3864,-2.296,149.2,97.7,0.493
33.36,29515.3,34874.0,-3.4323,-0.1806,149.2,97.7,0.493
33.38,31589.0,33195.5,-0.5645,-2.2277,149.2,97.7,0.493
33.4,32673.8,31709.6,0.9358,-4.04,149.2,97.7,0.493
33.42,30109.3,38527.9,-2.6108,4.2758,149.2,97.7,0.493
33.44,34352.9,37050.3,3.258,2.4738,149.2,97.7,0.493
33.46,30825.7,31470.2,-1.62,-4.3319,149.2,97.7,0.493
33.48,32388.9,37486.5,0.5418,3.0057,149.2,97.7,0.493
33.5,30617.5,34415.3,-1.908,-0.74,149.2,97.7,0.493
33.52,33619.4,36986.6,2.2436,2.396,149.2,97.7,0.493
33.54,31809.7,37937.2,-0.2592,3.5554,149.2,97.7,0.493
33.56,31461.9,34709.4,-0.7402,-0.3813,149.2,97.7,0.493
33.58,30994.9,36100.8,-1.386,1.3157,149.2,97.7,0.493
33.6,34285.0,35000.8,3.1641,-0.0258,149.2,97.7,0.493
33.62,36082.6,35295.5,5.6501,0.3336,149.2,97.7,0.493
33.64,31506.5,38520.1,-0.6785,4.2664,149.2,97.7,0.493
33.66,28183.4,34682.6,-5.2743,-0.414,149.2,97.7,0.493
33.68,30396.4,36125.6,-2.2138,1.346,149.2,97.7,0.493
33.7,32777.6,34046.3,1.0794,-1.19,149.2,97.7,0.493
33.72,32941.7,34342.6,1.3063,-0.8287,149.2,97.7,0.493
33.74,32473.2,32654.6,0.6584,-2.8874,149.2,97.7,0.493
33.76,27485.3,34170.1,-6.2399,-1.0391,149.2,97.7,0.493
33.78,34711.9,31787.0,3.7546,-3.9455,149.2,97.7,0.493
33.8,34149.7,35280.9,2.9769,0.3158,149.2,97.7,0.493
33.82,35214.0,31737.0,4.4489,-4.0066,149.2,97.7,0.493
33.84,33428.9,35690.2,1.9801,0.815,149.2,97.7,0.493
33.86,31206.7,36028.1,-1.0931,1.227,149.2,97.7,0.493
33.88,32681.3,35836.7,0.9462,0.9936,149.2,97.7,0.493
33.9,32903.0,35922.4,1.2527,1.0981,149.2,97.7,0.493
33.92,31104.1,36362.0,-1.235,1.6343,149.2,97.7,0.493
33.94,31847.0,33633.1,-0.2077,-1.694,149.2,97.7,0.493
33.96,33258.2,36348.7,1.744,1.6181,149.2,97.7,0.493
33.98,29970.0,34652.8,-2.8034,-0.4503,149.2,97.7,0.493
34.0,32604.8,36127.5,0.8403,1.3483,149.2,97.7,0.493
34.02,33253.3,37704.9,1.7372,3.2721,149.2,97.7,0.493
34.04,31735.3,31161.8,-0.3622,-4.708,149.2,97.7,0.493
34.06,29891.7,35338.3,-2.9118,0.3857,149.2,97.7,0.493
34.08,33040.2,37388.9,1.4426,2.8868,149.2,97.7,0.493
34.1,30480.7,38321.0,-2.0972,4.0235,149.2,97.7,0.493
34.12,32415.0,34063.1,0.5779,-1.1695,149.2,97.7,0.493
34.14,33292.6,35188.8,1.7916,0.2034,149.2,97.7,0.493
34.16,32411.4,40771.0,0.573,7.0117,149.2,97.7,0.493
34.18,32767.3,36625.6,1.0651,1.9558,149.2,97.7,0.493
34.2,28515.7,38614.3,-4.8148,4.3813,149.2,97.7,0.493
34.22,34354.6,36496.6,3.2603,1.7984,149.2,97.7,0.493
34.24,27589.8,39294.6,-6.0953,5.211,149.2,97.7,0.493
34.26,31241.1,33209.1,-1.0455,-2.2111,149.2,97.7,0.493
34.28,33588.4,35538.9,2.2007,0.6304,149.2,97.7,0.493
34.3,35317.4,35038.5,4.5919,0.0201,149.2,97.7,0.493
34.32,32200.2,34913.3,0.2808,-0.1326,149.2,97.7,0.493
34.34,34941.1,35210.0,4.0715,0.2293,149.2,97.7,0.493
34.36,33279.9,32041.0,1.7741,-3.6358,149.2,97.7,0.493
34.38,33169.1,35452.2,1.6208,0.5247,149.2,97.7,0.493
34.4,30875.5,35679.7,-1.5512,0.8021,149.2,97.7,0.493
34.42,36152.5,34174.7,5.7468,-1.0335,149.2,97.7,0.493
34.44,31766.9,39042.7,-0.3185,4.9037,149.2,97.7,0.493
34.46,34730.5,36930.1,3.7802,2.3272,149.2,97.7,0.493
34.48,32727.8,32666.8,1.0105,-2.8724,149.2,97.7,0.493
34.5,33513.4,34922.6,2.097,-0.1213,149.2,97.7,0.493
34.52,32503.6,35111.1,0.7005,0.1087,149.2,97.7,0.493
34.54,30593.3,35133.8,-1.9415,0.1363,149.2,97.7,0.493
34.56,29648.4,36466.9,-3.2483,1.7623,149.2,97.7,0.493
34.58,30084.3,29888.2,-2.6454,-6.2613,149.2,97.7,0.493
34.6,31141.3,34842.4,-1.1836,-0.219,149.2,97.7,0.493
34.62,31915.6,35160.1,-0.1127,0.1685,149.2,97.7,0.493
34.64,31119.1,33908.8,-1.2144,-1.3577,149.2,97.7,0.493
34.66,31899.8,37527.4,-0.1346,3.0557,149.2,97.7,0.493
34.68,29068.7,31018.6,-4.05,-4.8827,149.2,97.7,0.493
34.7,32214.7,34126.6,0.3009,-1.092,149.2,97.7,0.493
34.72,31420.7,35652.5,-0.7972,0.769,149.2,97.7,0.493
34.74,28815.3,35585.8,-4.4004,0.6876,149.2,97.7,0.493
34.76,35738.0,29167.1,5.1736,-7.1409,149.2,97.7,0.493
34.78,30992.2,37232.5,-1.3899,2.696,149.2,97.7,0.493
34.8,28616.0,36934.7,-4.6761,2.3328,149.2,97.7,0.493
34.82,31590.6,37901.7,-0.5622,3.5122,149.2,97.7,0.493
34.84,26721.1,40203.4,-7.2967,6.3194,149.2,97.7,0.493
34.86,33231.2,33322.3,1.7067,-2.0731,149.2,97.7,0.493
34.88,27469.0,37626.3,-6.2623,3.1763,149.2,97.7,0.493
34.9,31247.9,35007.0,-1.0362,-0.0183,149.2,97.7,0.493
34.92,36888.2,37208.9,6.7643,2.6672,149.2,97.7,0.493
34.94,33750.2,33143.9,2.4244,-2.2906,149.2,97.7,0.493
34.96,29698.3,33138.1,-3.1793,-2.2976,149.2,97.7,0.493
34.98,32931.6,37013.6,1.2924,2.429,149.2,97.7,0.493
35.0,31888.0,35022.0,-0.151,-0.0001,149.2,97.7,0.493
35.02,33745.2,36515.3,2.4176,1.8213,149.2,97.7,0.493
35.04,31037.0,36674.3,-1.3279,2.0152,149.2,97.7,0.493
35.06,31158.5,32299.2,-1.1598,-3.3209,149.2,97.7,0.493
35.08,33414.5,37850.6,1.9601,3.4498,149.2,97.7,0.493
35.1,32956.7,34576.1,1.327,-0.5438,149.2,97.7,0.493
35.12,30538.5,36708.8,-2.0173,2.0573,149.2,97.7,0.493
35.14,31617.8,35716.2,-0.5246,0.8467,149.2,97.7,0.493
35.16,32038.7,34689.5,0.0575,-0.4055,149.2,97.7,0.493
35.18,31302.5,37704.8,-0.9607,3.2721,149.2,97.7,0.493
35.2,36998.9,34366.6,6.9174,-0.7993,149.2,97.7,0.493
35.22,29240.0,34533.9,-3.8131,-0.5953,149.2,97.7,0.493
35.24,36145.9,34455.0,5.7377,-0.6915,149.2,97.7,0.493
35.26,32869.7,33739.7,1.2067,-1.5639,149.2,97.7,0.493
35.28,33096.6,32139.4,1.5205,-3.5158,149.2,97.7,0.493
35.3,29213.2,33760.0,-3.8502,-1.5392,149.2,97.7,0.493
35.32,30414.1,34954.7,-2.1893,-0.0822,149.2,97.7,0.493
35.34,31975.4,35320.2,-0.03,0.3636,149.2,97.7,0.493
35.36,34050.4,40189.6,2.8397,6.3026,149.2,97.7,0.493
35.38,30673.0,35010.5,-1.8313,-0.0141,149.2,97.7,0.493
35.4,33855.6,38583.2,2.5702,4.3434,149.2,97.7,0.493
35.42,28805.6,34435.9,-4.4138,-0.7148,149.2,97.7,0.493
35.44,31125.9,40740.1,-1.205,6.974,149.2,97.7,0.493
35.46,32500.2,36382.2,0.6958,1.659,149.2,97.7,0.493
35.48,30574.3,36321.1,-1.9678,1.5844,149.2,97.7,0.493
35.5,30976.0,35051.0,-1.4122,0.0354,149.2,97.7,0.493
35.52,33093.6,31707.2,1.5163,-4.0429,149.2,97.7,0.493
35.54,33088.5,38126.0,1.5093,3.7857,149.2,97.7,0.493
35.56,33658.8,34261.3,2.2981,-0.9278,149.2,97.7,0.493
35.58,31912.3,38259.7,-0.1174,3.9488,149.2,97.7,0.493
35.6,33668.9,34664.1,2.312,-0.4365,149.2,97.7,0.493
35.62,29821.7,35447.5,-3.0087,0.5189,149.2,97.7,0.493
35.64,35248.6,34196.7,4.4968,-1.0065,149.2,97.7,0.493
35.66,32334.9,36175.0,0.4671,1.4062,149.2,97.7,0.493
35.68,34302.6,32921.7,3.1884,-2.5616,149.2,97.7,0.493
35.7,30924.6,36196.3,-1.4833,1.4322,149.2,97.7,0.493
35.72,35122.4,35069.5,4.3223,0.058,149.2,97.7,0.493
35.74,32028.3,31463.8,0.043,-4.3397,149.2,97.7,0.493
35.76,35349.2,36565.5,4.6358,1.8825,149.2,97.7,0.493
35.78,31820.7,35262.9,-0.244,0.2938,149.2,97.7,0.493
35.8,32119.9,34326.6,0.1698,-0.8481,149.2,97.7,0.493
35.82,32277.3,36260.3,0.3874,1.5102,149.2,97.7,0.493
35.84,33003.9,35653.9,1.3924,0.7707,149.2,97.7,0.493
35.86,33767.1,33188.5,2.4479,-2.2362,149.2,97.7,0.493
35.88,31875.2,35201.7,-0.1687,0.2192,149.2,97.7,0.493
35.9,35041.8,35613.7,4.2107,0.7216,149.2,97.7,0.493
35.92,32758.4,34458.2,1.0528,-0.6876,149.2,97.7,0.493
35.94,32557.0,37561.9,0.7743,3.0977,149.2,97.7,0.493
35.96,37001.9,32012.6,6.9216,-3.6703,149.2,97.7,0.493
35.98,33767.9,36451.2,2.4489,1.7431,149.2,97.7,0.493
36.0,27996.8,38066.0,-5.5325,3.7126,149.2,97.7,0.493
36.02,34422.7,34494.2,3.3545,-0.6438,149.2,97.7,0.493
36.04,32731.0,35179.5,1.0149,0.1921,149.2,97.7,0.493
36.06,33787.8,37684.1,2.4765,3.2467,149.2,97.7,0.493
36.08,29274.9,35007.0,-3.7649,-0.0183,149.2,97.7,0.493
36.1,35624.9,38345.2,5.0172,4.0531,149.2,97.7,0.493
36.12,28922.2,33362.6,-4.2526,-2.0238,149.2,97.7,0.493
36.14,32923.0,39862.5,1.2805,5.9037,149.2,97.7,0.493
36.16,27982.0,34910.4,-5.5528,-0.1361,149.2,97.7,0.493
36.18,32613.6,31233.4,0.8525,-4.6208,149.2,97.7,0.493
36.2,29006.2,36941.9,-4.1364,2.3415,149.2,97.7,0.493
36.22,30605.6,37715.9,-1.9245,3.2856,149.2,97.7,0.493
36.24,32516.4,35578.6,0.7181,0.6788,149.2,97.7,0.493
36.26,29703.7,40113.9,-3.1718,6.2102,149.2,97.7,0.493
36.28,32369.0,36410.0,0.5143,1.6928,149.2,97.7,0.493
36.3,30292.5,31573.9,-2.3575,-4.2054,149.2,97.7,0.493
36.32,33308.3,36210.9,1.8133,1.45,149.2,97.7,0.493
36.34,31958.1,34625.5,-0.054,-0.4836,149.2,97.7,0.493
36.36,31093.7,33322.2,-1.2495,-2.0732,149.2,97.7,0.493
36.38,33085.1,38037.2,1.5046,3.6774,149.2,97.7,0.493
36.4,30541.1,33843.8,-2.0137,-1.437,149.2,97.7,0.493
36.42,32004.7,35833.4,0.0105,0.9896,149.2,97.7,0.493
36.44,31520.8,33753.6,-0.6587,-1.547,149.2,97.7,0.493
36.46,31098.1,36944.2,-1.2434,2.3444,149.2,97.7,0.493
36.48,32777.4,33599.9,1.079,-1.7344,149.2,97.7,0.493
36.5,34572.9,33960.9,3.5623,-1.2942,149.2,97.7,0.493
36.52,32334.1,34949.7,0.466,-0.0882,149.2,97.7,0.493
36.54,29289.2,34955.0,-3.7451,-0.0817,149.2,97.7,0.493
36.56,31547.0,34540.2,-0.6226,-0.5876,149.2,97.7,0.493
36.58,31637.0,35926.0,-0.4981,1.1025,149.2,97.7,0.493
36.6,29270.9,34656.4,-3.7704,-0.4459,149.2,97.7,0.493
36.62,32600.5,41202.4,0.8344,7.5378,149.2,97.7,0.493
36.64,27730.7,36643.8,-5.9005,1.9779,149.2,97.7,0.493
36.66,30870.4,37025.6,-1.5582,2.4436,149.2,97.7,0.493
36.68,32108.3,36314.3,0.1538,1.5762,149.2,97.7,0.493
36.7,33855.2,34875.0,2.5697,-0.1793,149.2,97.7,0.493
36.72,32275.9,35910.0,0.3856,1.083,149.2,97.7,0.493
36.74,31677.1,36409.4,-0.4426,1.6921,149.2,97.7,0.493
36.76,34166.7,37208.9,3.0005,2.6672,149.2,97.7,0.493
36.78,31941.1,35239.5,-0.0775,0.2652,149.2,97.7,0.493
36.8,33224.4,36133.1,1.6973,1.3551,149.2,97.7,0.493
36.82,31361.7,35688.5,-0.8788,0.8129,149.2,97.7,0.493
36.84,34378.8,35400.6,3.2938,0.4618,149.2,97.7,0.493
36.86,28044.6,33812.0,-5.4663,-1.4758,149.2,97.7,0.493
36.88,30445.5,34365.8,-2.1459,-0.8003,149.2,97.7,0.493
36.9,29634.1,35544.9,-3.2681,0.6377,149.2,97.7,0.493
36.92,35768.1,34152.5,5.2152,-1.0605,149.2,97.7,0.493
36.94,28920.6,35965.2,-4.2548,1.1504,149.2,97.7,0.493
36.96,28650.8,33341.9,-4.628,-2.0491,149.2,97.7,0.493
36.98,30635.9,31782.5,-1.8826,-3.951,149.2,97.7,0.493
37.0,31569.0,39110.9,-0.5922,4.987,149.2,97.7,0.493
37.02,34552.5,32291.9,3.534,-3.3298,149.2,97.7,0.493
37.04,31344.9,33766.6,-0.9021,-1.5312,149.2,97.7,0.493
37.06,32292.5,36268.3,0.4084,1.52,149.2,97.7,0.493
37.08,33442.7,33627.4,1.9992,-1.7009,149.2,97.7,0.493
37.1,32772.7,36346.4,1.0726,1.6152,149.2,97.7,0.493
37.12,35452.6,36997.8,4.7789,2.4097,149.2,97.7,0.493
37.14,30182.1,35176.6,-2.5102,0.1885,149.2,97.7,0.493
37.16,30598.0,36252.2,-1.9351,1.5003,149.2,97.7,0.493
37.18,27738.4,32490.6,-5.8898,-3.0873,149.2,97.7,0.493
37.2,31599.8,34947.8,-0.5495,-0.0905,149.2,97.7,0.493
37.22,28931.6,34262.4,-4.2396,-0.9265,149.2,97.7,0.493
37.24,27834.9,33914.3,-5.7563,-1.351,149.2,97.7,0.493
37.26,31198.4,33762.9,-1.1046,-1.5357,149.2,97.7,0.493
37.28,31688.3,34266.4,-0.4272,-0.9216,149.2,97.7,0.493
37.3,34362.7,35739.9,3.2715,0.8756,149.2,97.7,0.493
37.32,30322.7,35103.2,-2.3157,0.0991,149.2,97.7,0.493
37.34,33054.1,36161.9,1.4618,1.3902,149.2,97.7,0.493
37.36,34649.9,34189.5,3.6687,-1.0154,149.2,97.7,0.493
37.38,34580.9,35644.6,3.5734,0.7593,149.2,97.7,0.493
37.4,35275.0,34962.1,4.5332,-0.0731,149.2,97.7,0.493
37.42,31281.9,34557.9,-0.9891,-0.5661,149.2,97.7,0.493
37.44,33084.3,35840.2,1.5035,0.9979,149.2,97.7,0.493
37.46,35364.7,37675.4,4.6572,3.2362,149.2,97.7,0.493
37.48,30084.1,34406.6,-2.6457,-0.7505,149.2,97.7,0.493
37.5,35639.2,33638.8,5.0369,-1.687,149.2,97.7,0.493
37.52,30935.9,34490.9,-1.4677,-0.6477,149.2,97.7,0.493
37.54,35677.7,38453.1,5.0902,4.1846,149.2,97.7,0.493
37.56,34359.4,34370.9,3.2669,-0.7941,149.2,97.7,0.493
37.58,31833.9,37697.4,-0.2257,3.263,149.2,97.7,0.493
37.6,31307.8,32413.6,-0.9533,-3.1813,149.2,97.7,0.493
37.62,30620.5,36764.5,-1.9039,2.1252,149.2,97.7,0.493
37.64,34814.8,36104.1,3.8967,1.3198,149.2,97.7,0.493
37.66,31103.3,39877.4,-1.2362,5.9218,149.2,97.7,0.493
37.68,32590.4,36188.2,0.8205,1.4224,149.2,97.7,0.493
37.7,28943.2,34852.3,-4.2235,-0.207,149.2,97.7,0.493
37.72,31478.4,31212.2,-0.7174,-4.6466,149.2,97.7,0.493
37.74,34053.8,36023.5,2.8444,1.2215,149.2,97.7,0.493
37.76,31834.3,36691.3,-0.2253,2.0359,149.2,97.7,0.493
37.78,31861.6,35782.8,-0.1874,0.9279,149.2,97.7,0.493
37.8,33820.8,34150.8,2.5221,-1.0625,149.2,97.7,0.493
37.82,32097.6,35666.9,0.139,0.7865,149.2,97.7,0.493
37.84,28559.7,35272.2,-4.754,0.3051,149.2,97.7,0.493
37.86,31722.2,36094.0,-0.3803,1.3074,149.2,97.7,0.493
37.88,33078.2,35672.4,1.4951,0.7932,149.2,97.7,0.493
37.9,32828.6,36804.0,1.1499,2.1733,149.2,97.7,0.493
37.92,33033.8,36244.8,1.4337,1.4914,149.2,97.7,0.493
37.94,34475.9,30594.5,3.4281,-5.3999,149.2,97.7,0.493
37.96,33523.5,33384.8,2.111,-1.9968,149.2,97.7,0.493
37.98,31948.1,34723.8,-0.0678,-0.3637,149.2,97.7,0.493
38.0,28984.4,29904.6,-4.1666,-6.2413,149.2,97.7,0.493
38.02,32777.5,33692.1,1.0792,-1.622,149.2,97.7,0.493
38.04,30717.7,35580.8,-1.7695,0.6815,149.2,97.7,0.493
38.06,31649.6,34691.5,-0.4806,-0.4031,149.2,97.7,0.493
38.08,33845.9,32971.7,2.5568,-2.5007,149.2,97.7,0.493
38.1,33732.1,31173.4,2.3994,-4.6939,149.2,97.7,0.493
38.12,30939.9,37221.4,-1.4621,2.6825,149.2,97.7,0.493
38.14,27878.0,36720.6,-5.6967,2.0716,149.2,97.7,0.493
38.16,31649.5,36199.9,-0.4808,1.4366,149.2,97.7,0.493
38.18,30686.3,32396.8,-1.8128,-3.2018,149.2,97.7,0.493
38.2,30285.9,35741.1,-2.3666,0.8771,149.2,97.7,0.493
38.22,34173.7,36815.9,3.0101,2.1879,149.2,97.7,0.493
38.24,32090.0,39303.7,0.1284,5.222,149.2,97.7,0.493
38.26,31746.1,33415.9,-0.3472,-1.9588,149.2,97.7,0.493
38.28,33033.4,35657.5,1.4331,0.775,149.2,97.7,0.493
38.3,35417.1,31901.1,4.7298,-3.8063,149.2,97.7,0.493
38.32,37024.1,35441.8,6.9522,0.512,149.2,97.7,0.493
38.34,34770.6,35029.7,3.8356,0.0094,149.2,97.7,0.493
38.36,32788.0,33925.1,1.0937,-1.3379,149.2,97.7,0.493
38.38,29981.2,32896.5,-2.7881,-2.5923,149.2,97.7,0.493
38.4,31289.5,34430.5,-0.9787,-0.7215,149.2,97.7,0.493
38.42,30821.9,30347.9,-1.6253,-5.7007,149.2,97.7,0.493
38.44,32111.4,35964.4,0.1581,1.1494,149.2,97.7,0.493
38.46,33025.9,32912.4,1.4228,-2.573,149.2,97.7,0.493
38.48,31040.6,33320.8,-1.3229,-2.0749,149.2,97.7,0.493
38.5,31120.0,33122.0,-1.2131,-2.3173,149.2,97.7,0.493
38.52,27386.6,32081.3,-6.3763,-3.5865,149.2,97.7,0.493
38.54,31148.5,35781.9,-1.1737,0.9268,149.2,97.7,0.493
38.56,31903.0,33999.2,-0.1301,-1.2475,149.2,97.7,0.493
38.58,33227.1,33194.6,1.701,-2.2288,149.2,97.7,0.493
38.6,31144.5,38343.0,-1.1791,4.0504,149.2,97.7,0.493
38.62,33172.6,40487.7,1.6257,6.6662,149.2,97.7,0.493
38.64,31723.7,36924.6,-0.3781,2.3204,149.2,97.7,0.493
38.66,30010.7,36224.3,-2.7472,1.4663,149.2,97.7,0.493
38.68,32584.5,37873.2,0.8123,3.4774,149.2,97.7,0.493
38.7,35416.0,34474.8,4.7283,-0.6674,149.2,97.7,0.493
38.72,31393.8,33544.6,-0.8344,-1.8019,149.2,97.7,0.493
38.74,33517.8,34243.9,2.1031,-0.949,149.2,97.7,0.493
38.76,33009.0,34867.3,1.3994,-0.1887,149.2,97.7,0.493
38.78,29509.0,36445.7,-3.4411,1.7364,149.2,97.7,0.493
38.8,32538.0,34219.4,0.748,-0.9789,149.2,97.7,0.493
38.82,32800.3,38174.1,1.1108,3.8443,149.2,97.7,0.493
38.84,32729.5,36741.9,1.0129,2.0976,149.2,97.7,0.493
38.86,36087.8,36490.1,5.6574,1.7905,149.2,97.7,0.493
38.88,31244.7,32599.9,-1.0406,-2.9541,149.2,97.7,0.493
38.9,33199.4,38847.7,1.6628,4.666,149.2,97.7,0.493
38.92,32907.4,34067.5,1.2589,-1.1642,149.2,97.7,0.493
38.94,28217.4,35188.5,-5.2273,0.203,149.2,97.7,0.493
38.96,32233.4,36926.2,0.3268,2.3224,149.2,97.7,0.493
38.98,31348.3,34490.8,-0.8973,-0.6478,149.2,97.7,0.493
39.0,27816.5,32808.9,-5.7818,-2.6992,149.2,97.7,0.493
39.02,37852.7,35045.1,8.0982,0.0281,149.2,97.7,0.493
39.04,36752.6,30538.5,6.5767,-5.4682,149.2,97.7,0.493
39.06,35004.5,39422.9,4.1592,5.3675,149.2,97.7,0.493
39.08,32027.7,37190.8,0.0422,2.6451,149.2,97.7,0.493
39.1,31676.5,35429.0,-0.4434,0.4964,149.2,97.7,0.493
39.12,30617.1,36219.8,-1.9085,1.4609,149.2,97.7,0.493
39.14,31426.0,33881.6,-0.7898,-1.3909,149.2,97.7,0.493
39.16,31708.4,33271.4,-0.3994,-2.1352,149.2,97.7,0.493
39.18,31231.3,32262.5,-1.0591,-3.3655,149.2,97.7,0.493
39.2,32106.4,37702.6,0.1511,3.2694,149.2,97.7,0.493
39.22,32674.2,34161.3,0.9363,-1.0498,149.2,97.7,0.493
39.24,29235.7,35665.5,-3.819,0.7848,149.2,97.7,0.493
39.26,34107.4,35894.2,2.9185,1.0637,149.2,97.7,0.493
39.28,28920.2,31393.0,-4.2553,-4.4261,149.2,97.7,0.493
39.3,30539.1,35037.4,-2.0165,0.0187,149.2,97.7,0.493
39.32,28699.5,35575.3,-4.5605,0.6748,149.2,97.7,0.493
39.34,30424.5,37540.8,-2.175,3.072,149.2,97.7,0.493
39.36,30996.6,36566.8,-1.3838,1.884,149.2,97.7,0.493
39.38,31713.1,34448.1,-0.3928,-0.6999,149.2,97.7,0.493
39.4,34691.4,36758.0,3.7262,2.1173,149.2,97.7,0.493
39.42,33685.7,37704.3,2.3352,3.2715,149.2,97.7,0.493
39.44,31283.7,32880.4,-0.9867,-2.612,149.2,97.7,0.493
39.46,33395.7,31850.7,1.9342,-3.8678,149.2,97.7,0.493
39.48,32533.3,33259.9,0.7415,-2.1492,149.2,97.7,0.493
39.5,30966.2,32638.9,-1.4257,-2.9065,149.2,97.7,0.493
39.52,37295.6,36599.1,7.3277,1.9234,149.2,97.7,0.493
39.54,33224.1,36088.3,1.6968,1.3005,149.2,97.7,0.493
39.56,31448.8,36971.2,-0.7583,2.3773,149.2,97.7,0.493
39.58,31437.9,33265.0,-0.7735,-2.1429,149.2,97.7,0.493
39.6,33560.9,36182.4,2.1627,1.4152,149.2,97.7,0.493
39.62,31283.1,34760.1,-0.9875,-0.3195,149.2,97.7,0.493
39.64,29854.9,35739.8,-2.9626,0.8754,149.2,97.7,0.493
39.66,32313.5,35493.2,0.4375,0.5747,149.2,97.7,0.493
39.68,30838.4,35775.9,-1.6025,0.9195,149.2,97.7,0.493
39.7,33234.9,37941.1,1.7118,3.5602,149.2,97.7,0.493
39.72,29255.7,37025.8,-3.7914,2.4439,149.2,97.7,0.493
39.74,34128.8,35400.7,2.948,0.4618,149.2,97.7,0.493
39.76,28967.0,36129.5,-4.1907,1.3507,149.2,97.7,0.493
39.78,31217.9,36953.1,-1.0777,2.3552,149.2,97.7,0.493
39.8,32772.8,32913.7,1.0727,-2.5714,149.2,97.7,0.493
39.82,33486.8,35015.8,2.0602,-0.0076,149.2,97.7,0.493
39.84,32005.5,39548.8,0.0115,5.521,149.2,97.7,0.493
39.86,32351.5,35412.3,0.4901,0.476,149.2,97.7,0.493
39.88,32580.5,34262.8,0.8067,-0.926,149.2,97.7,0.493
39.9,34599.0,35141.3,3.5983,0.1455,149.2,97.7,0.493
39.92,30481.0,35548.4,-2.0968,0.6419,149.2,97.7,0.493
39.94,31148.6,38021.6,-1.1735,3.6584,149.2,97.7,0.493
39.96,30738.2,38386.4,-1.7412,4.1033,149.2,97.7,0.493
39.98,31277.1,35555.7,-0.9957,0.6509,149.2,97.7,0.493
40.0,30837.2,35986.3,-1.6042,1.1761,149.2,97.7,0.493
40.02,35771.0,38318.0,5.2192,4.0199,149.2,97.7,0.493
40.04,29796.4,36359.5,-3.0436,1.6312,149.2,97.7,0.493
40.06,30934.7,35210.1,-1.4693,0.2294,149.2,97.7,0.493
40.08,31475.9,34234.6,-0.7209,-0.9604,149.2,97.7,0.493
40.1,33021.3,34144.5,1.4163,-1.0702,149.2,97.7,0.493
40.12,31861.5,32757.6,-0.1876,-2.7617,149.2,97.7,0.493
40.14,35508.7,31784.5,4.8565,-3.9486,149.2,97.7,0.493
40.16,31064.6,32092.1,-1.2898,-3.5734,149.2,97.7,0.493
40.18,29675.6,37703.9,-3.2107,3.2709,149.2,97.7,0.493
40.2,30844.5,36227.2,-1.5941,1.4698,149.2,97.7,0.493
40.22,31282.2,35913.5,-0.9887,1.0873,149.2,97.7,0.493
40.24,29419.0,34901.4,-3.5655,-0.1472,149.2,97.7,0.493
40.26,33206.0,36553.4,1.6719,1.8678,149.2,97.7,0.493
40.28,30792.8,35866.1,-1.6656,1.0295,149.2,97.7,0.493
40.3,29392.5,37461.7,-3.6022,2.9755,149.2,97.7,0.493
40.32,33737.5,36673.5,2.4069,2.0142,149.2,97.7,0.493
40.34,31046.6,34176.5,-1.3146,-1.0312,149.2,97.7,0.493
40.36,30880.7,31957.1,-1.544,-3.7381,149.2,97.7,0.493
40.38,27969.2,32174.6,-5.5707,-3.4728,149.2,97.7,0.493
40.4,32181.3,35668.3,0.2547,0.7882,149.2,97.7,0.493
40.42,30488.7,37944.6,-2.0862,3.5645,149.2,97.7,0.493
40.44,29910.5,36055.7,-2.8858,1.2608,149.2,97.7,0.493
40.46,30602.9,40208.8,-1.9283,6.326,149.2,97.7,0.493
40.48,32759.0,36516.2,1.0537,1.8223,149.2,97.7,0.493
40.5,31063.5,35370.9,-1.2913,0.4255,149.2,97.7,0.493
40.52,31083.7,35324.4,-1.2633,0.3688,149.2,97.7,0.493
40.54,32058.7,32975.2,0.0852,-2.4964,149.2,97.7,0.493
40.56,33081.2,33855.9,1.4992,-1.4222,149.2,97.7,0.493
40.58,30757.7,35834.2,-1.7141,0.9906,149.2,97.7,0.493
40.6,32413.8,34242.5,0.5762,-0.9507,149.2,97.7,0.493
40.62,31452.3,36946.4,-0.7535,2.347,149.2,97.7,0.493
40.64,30955.1,35728.7,-1.4411,0.862,149.2,97.7,0.493
40.66,32481.5,36871.0,0.6698,2.2551,149.2,97.7,0.493
40.68,35182.3,38995.4,4.405,4.8461,149.2,97.7,0.493
40.7,30569.4,39199.6,-1.9746,5.0951,149.2,97.7,0.493
40.72,30062.1,30993.0,-2.6761,-4.9139,149.2,97.7,0.493
40.74,29954.2,33404.0,-2.8254,-1.9734,149.2,97.7,0.493
40.76,31559.5,35943.9,-0.6052,1.1244,149.2,97.7,0.493
40.78,32580.9,37337.4,0.8073,2.8239,149.2,97.7,0.493
40.8,32415.0,34238.0,0.5779,-0.9562,149.2,97.7,0.493
40.82,31791.1,34011.4,-0.2849,-1.2325,149.2,97.7,0.493
40.84,29679.0,36127.7,-3.206,1.3485,149.2,97.7,0.493
40.86,33104.1,36417.7,1.5309,1.7022,149.2,97.7,0.493
40.88,34660.9,35921.2,3.6839,1.0967,149.2,97.7,0.493
40.9,34741.3,35815.6,3.7951,0.9679,149.2,97.7,0.493
40.92,29810.1,36888.0,-3.0247,2.2758,149.2,97.7,0.493
40.94,32591.6,34225.5,0.8221,-0.9714,149.2,97.7,0.493
40.96,34424.1,33516.5,3.3564,-1.8361,149.2,97.7,0.493
40.98,31436.7,35474.6,-0.7751,0.552,149.2,97.7,0.493
41.0,33922.9,34218.9,2.6632,-0.9795,149.2,97.7,0.493
41.02,29731.0,33693.5,-3.1341,-1.6203,149.2,97.7,0.493
41.04,29715.7,34976.4,-3.1552,-0.0556,149.2,97.7,0.493
41.06,32593.5,33026.2,0.8248,-2.4342,149.2,97.7,0.493
41.08,31912.3,35789.8,-0.1173,0.9365,149.2,97.7,0.493
41.1,32171.6,33096.1,0.2413,-2.3489,149.2,97.7,0.493
41.12,29657.0,34000.9,-3.2364,-1.2454,149.2,97.7,0.493
41.14,34963.2,35966.3,4.1021,1.1517,149.2,97.7,0.493
41.16,31354.3,34512.8,-0.8891,-0.6211,149.2,97.7,0.493
41.18,31758.6,33494.2,-0.3299,-1.8634,149.2,97.7,0.493
41.2,33088.3,37305.6,1.5091,2.7852,149.2,97.7,0.493
41.22,29220.5,37908.4,-3.8401,3.5204,149.2,97.7,0.493
41.24,31688.8,36681.6,-0.4265,2.0241,149.2,97.7,0.493
41.26,32692.0,35452.3,0.961,0.5248,149.2,97.7,0.493
41.28,31516.0,35705.4,-0.6654,0.8335,149.2,97.7,0.493
41.3,28494.3,33042.4,-4.8444,-2.4144,149.2,97.7,0.493
41.32,34754.1,32724.4,3.8128,-2.8022,149.2,97.7,0.493
41.34,31724.0,34667.4,-0.3777,-0.4325,149.2,97.7,0.493
41.36,34079.8,33250.5,2.8803,-2.1606,149.2,97.7,0.493
41.38,33280.4,37202.2,1.7748,2.659,149.2,97.7,0.493
41.4,30573.0,35887.1,-1.9696,1.0551,149.2,97.7,0.493
41.42,34613.2,36940.4,3.618,2.3397,149.2,97.7,0.493
41.44,29484.4,35647.6,-3.4751,0.763,149.2,97.7,0.493
41.46,32972.2,35768.7,1.3485,0.9107,149.2,97.7,0.493
41.48,31883.2,34942.5,-0.1576,-0.097,149.2,97.7,0.493
41.5,32168.6,34699.0,0.2372,-0.3939,149.2,97.7,0.493
41.52,30810.1,36042.5,-1.6417,1.2446,149.2,97.7,0.493
41.54,30630.4,33432.9,-1.8901,-1.9381,149.2,97.7,0.493
41.56,29956.7,36952.9,-2.8219,2.3549,149.2,97.7,0.493
41.58,29167.8,36399.0,-3.913,1.6794,149.2,97.7,0.493
41.6,33294.2,34150.6,1.7939,-1.0628,149.2,97.7,0.493
41.62,33576.1,31448.4,2.1837,-4.3585,149.2,97.7,0.493
41.64,29088.2,36908.7,-4.023,2.3011,149.2,97.7,0.493
41.66,31766.6,34465.0,-0.3188,-0.6793,149.2,97.7,0.493
41.68,34529.9,36094.3,3.5028,1.3078,149.2,97.7,0.493
41.7,30741.7,36345.0,-1.7362,1.6136,149.2,97.7,0.493
41.72,31933.6,32644.9,-0.0879,-2.8992,149.2,97.7,0.493
41.74,32870.7,33053.7,1.2081,-2.4006,149.2,97.7,0.493
41.76,36312.6,36056.7,5.9682,1.2619,149.2,97.7,0.493
41.78,30781.2,33519.7,-1.6816,-1.8323,149.2,97.7,0.493
41.8,33238.7,36680.8,1.717,2.0231,149.2,97.7,0.493
41.82,34793.3,34086.3,3.8671,-1.1412,149.2,97.7,0.493
41.84,31311.3,37844.4,-0.9485,3.4423,149.2,97.7,0.493
41.86,33485.3,35693.2,2.0581,0.8186,149.2,97.7,0.493
41.88,34279.1,35438.8,3.1559,0.5083,149.2,97.7,0.493
41.9,31048.5,36667.7,-1.3119,2.0071,149.2,97.7,0.493
41.92,33525.1,37440.8,2.1131,2.9501,149.2,97.7,0.493
41.94,32170.7,31699.2,0.24,-4.0526,149.2,97.7,0.493
41.96,30937.9,32160.5,-1.465,-3.49,149.2,97.7,0.493
41.98,30852.0,36037.8,-1.5838,1.2389,149.2,97.7,0.493
42.0,35678.9,33118.4,5.0919,-2.3217,149.2,97.7,0.493
42.02,30698.3,31301.6,-1.7962,-4.5375,149.2,97.7,0.493
42.04,32498.1,34058.8,0.6928,-1.1747,149.2,97.7,0.493
42.06,29139.9,31887.9,-3.9515,-3.8224,149.2,97.7,0.493
42.08,32707.6,34579.8,0.9826,-0.5394,149.2,97.7,0.493
42.1,31963.1,36293.9,-0.047,1.5512,149.2,97.7,0.493
42.12,32042.0,33267.1,0.062,-2.1404,149.2,97.7,0.493
42.14,32142.5,38927.0,0.201,4.7626,149.2,97.7,0.493
42.16,34307.5,35335.5,3.1952,0.3823,149.2,97.7,0.493
42.18,29639.4,36858.2,-3.2607,2.2395,149.2,97.7,0.493
42.2,32705.5,34683.5,0.9796,-0.4128,149.2,97.7,0.493
42.22,32134.5,35912.9,0.19,1.0865,149.2,97.7,0.493
42.24,31182.7,30636.3,-1.1264,-5.349,149.2,97.7,0.493
42.26,34629.5,37790.6,3.6406,3.3766,149.2,97.7,0.493
42.28,28290.8,35034.2,-5.1258,0.0148,149.2,97.7,0.493
42.3,32096.6,37378.8,0.1375,2.8744,149.2,97.7,0.493
42.32,33729.9,35021.2,2.3964,-0.001,149.2,97.7,0.493
42.34,30195.5,35822.8,-2.4917,0.9766,149.2,97.7,0.493
42.36,30566.5,34386.0,-1.9785,-0.7757,149.2,97.7,0.493
42.38,32509.9,35745.7,0.7092,0.8827,149.2,97.7,0.493
42.4,30696.5,35817.2,-1.7987,0.9698,149.2,97.7,0.493
42.42,36132.7,32289.7,5.7195,-3.3324,149.2,97.7,0.493
42.44,32904.9,30441.2,1.2554,-5.5869,149.2,97.7,0.493
42.46,34232.4,34137.7,3.0914,-1.0785,149.2,97.7,0.493
42.48,32574.1,31434.7,0.798,-4.3752,149.2,97.7,0.493
42.5,31980.5,35017.1,-0.023,-0.006,149.2,97.7,0.493
42.52,35426.6,36179.9,4.7429,1.4122,149.2,97.7,0.493
42.54,31017.7,32785.4,-1.3545,-2.7279,149.2,97.7,0.493
42.56,32631.9,33767.3,0.8779,-1.5302,149.2,97.7,0.493
42.58,32818.9,34559.5,1.1365,-0.5641,149.2,97.7,0.493
42.6,33575.3,32300.1,2.1825,-3.3197,149.2,97.7,0.493
42.62,28525.1,36580.1,-4.8019,1.9002,149.2,97.7,0.493
42.64,33160.4,34675.2,1.6088,-0.423,149.2,97.7,0.493
42.66,32439.5,38021.9,0.6118,3.6588,149.2,97.7,0.493
42.68,32972.9,35561.7,1.3494,0.6582,149.2,97.7,0.493
42.7,31291.6,37086.7,-0.9758,2.5181,149.2,97.7,0.493
42.72,32306.2,34907.8,0.4275,-0.1393,149.2,97.7,0.493
42.74,31942.5,37311.3,-0.0755,2.792,149.2,97.7,0.493
42.76,34060.7,38026.9,2.8538,3.6648,149.2,97.7,0.493
42.78,27903.1,35368.1,-5.662,0.4221,149.2,97.7,0.493
42.8,34154.1,37727.9,2.983,3.3002,149.2,97.7,0.493
42.82,30838.2,35775.5,-1.6028,0.919,149.2,97.7,0.493
42.84,33649.3,37033.0,2.285,2.4527,149.2,97.7,0.493
42.86,33716.1,35284.0,2.3774,0.3195,149.2,97.7,0.493
42.88,33002.7,32778.0,1.3906,-2.7368,149.2,97.7,0.493
42.9,32613.2,36781.8,0.852,2.1463,149.2,97.7,0.493
42.92,33214.1,33436.9,1.6831,-1.9332,149.2,97.7,0.493
42.94,30292.6,32480.1,-2.3574,-3.1003,149.2,97.7,0.493
42.96,32883.7,32677.6,1.2261,-2.8593,149.2,97.7,0.493
42.98,29402.3,36700.9,-3.5886,2.0476,149.2,97.7,0.493
43.0,31693.7,37116.5,-0.4197,2.5545,149.2,97.7,0.493
43.02,33808.5,35840.4,2.505,0.9982,149.2,97.7,0.493
43.04,30261.9,34869.1,-2.3998,-0.1864,149.2,97.7,0.493
43.06,29007.7,35238.1,-4.1343,0.2635,149.2,97.7,0.493
43.08,31405.4,36860.5,-0.8184,2.2423,149.2,97.7,0.493
43.1,33842.1,31754.4,2.5515,-3.9853,149.2,97.7,0.493
43.12,31272.3,34450.0,-1.0024,-0.6976,149.2,97.7,0.493
43.14,31167.9,36320.7,-1.1468,1.584,149.2,97.7,0.493
43.16,31768.9,38964.8,-0.3157,4.8088,149.2,97.7,0.493
43.18,32924.1,36074.2,1.282,1.2833,149.2,97.7,0.493
43.2,32449.1,33037.2,0.6251,-2.4207,149.2,97.7,0.493
43.22,33767.8,35760.1,2.4487,0.9002,149.2,97.7,0.493
43.24,30190.7,35930.4,-2.4983,1.1079,149.2,97.7,0.493
43.26,29796.9,33962.8,-3.0429,-1.2919,149.2,97.7,0.493
43.28,28232.7,34055.4,-5.2062,-1.1789,149.2,97.7,0.493
43.3,34906.4,34123.2,4.0235,-1.0962,149.2,97.7,0.493
43.32,32498.9,36312.0,0.6939,1.5733,149.2,97.7,0.493
43.34,31927.0,31001.4,-0.097,-4.9036,149.2,97.7,0.493
43.36,29340.4,33487.6,-3.6743,-1.8715,149.2,97.7,0.493
43.38,34965.9,34180.5,4.1058,-1.0264,149.2,97.7,0.493
43.4,32604.9,33010.0,0.8405,-2.4539,149.2,97.7,0.493
43.42,31681.7,32514.9,-0.4363,-3.0578,149.2,97.7,0.493
43.44,32834.9,35979.5,1.1586,1.1678,149.2,97.7,0.493
43.46,33265.7,39039.0,1.7544,4.8992,149.2,97.7,0.493
43.48,33961.3,33532.8,2.7164,-1.8162,149.2,97.7,0.493
43.5,32597.1,34845.3,0.8298,-0.2155,149.2,97.7,0.493
43.52,32437.8,35512.4,0.6094,0.5981,149.2,97.7,0.493
43.54,34460.1,34009.5,3.4063,-1.2349,149.2,97.7,0.493
43.56,35803.2,36125.0,5.2637,1.3453,149.2,97.7,0.493
43.58,30232.8,35113.3,-2.4401,0.1113,149.2,97.7,0.493
43.6,30471.6,38120.1,-2.1099,3.7786,149.2,97.7,0.493
43.62,31242.1,36281.3,-1.0442,1.5358,149.2,97.7,0.493
43.64,31197.9,35654.5,-1.1054,0.7713,149.2,97.7,0.493
43.66,30871.8,33453.2,-1.5563,-1.9134,149.2,97.7,0.493
43.68,31309.7,34068.2,-0.9508,-1.1633,149.2,97.7,0.493
43.7,32225.6,31317.6,0.316,-4.518,149.2,97.7,0.493
43.72,30860.2,37403.9,-1.5724,2.905,149.2,97.7,0.493
43.74,30995.5,35056.7,-1.3852,0.0422,149.2,97.7,0.493
43.76,33017.8,33289.9,1.4116,-2.1125,149.2,97.7,0.493
43.78,35278.2,35162.7,4.5377,0.1716,149.2,97.7,0.493
43.8,28416.3,32933.8,-4.9523,-2.5468,149.2,97.7,0.493
43.82,34148.9,35746.3,2.9759,0.8834,149.2,97.7,0.493
43.84,33657.5,36995.4,2.2962,2.4068,149.2,97.7,0.493
43.86,30523.7,38026.4,-2.0378,3.6643,149.2,97.7,0.493
43.88,31220.8,34673.8,-1.0737,-0.4247,149.2,97.7,0.493
43.9,33910.3,34788.6,2.6459,-0.2847,149.2,97.7,0.493
43.92,30744.0,34482.7,-1.7331,-0.6577,149.2,97.7,0.493
43.94,34389.5,37034.8,3.3086,2.4549,149.2,97.7,0.493
43.96,34160.7,34601.9,2.9922,-0.5123,149.2,97.7,0.493
43.98,32059.4,34643.2,0.0861,-0.462,149.2,97.7,0.493
44.0,29229.8,34410.2,-3.8272,-0.7462,149.2,97.7,0.493
44.02,33681.2,41359.2,2.3291,7.7291,149.2,97.7,0.493
44.04,31357.7,33074.2,-0.8843,-2.3756,149.2,97.7,0.493
44.06,30516.9,31455.5,-2.0471,-4.3498,149.2,97.7,0.493
44.08,27720.3,34239.9,-5.9148,-0.9539,149.2,97.7,0.493
44.1,29354.0,36478.7,-3.6554,1.7766,149.2,97.7,0.493
44.12,30888.0,35197.1,-1.5339,0.2136,149.2,97.7,0.493
44.14,34536.3,33918.3,3.5117,-1.3461,149.2,97.7,0.493
44.16,33396.8,33920.9,1.9357,-1.3429,149.2,97.7,0.493
44.18,34220.3,35575.5,3.0746,0.675,149.2,97.7,0.493
44.2,29656.7,32563.8,-3.2368,-2.9981,149.2,97.7,0.493
44.22,32037.5,34037.2,0.0558,-1.2011,149.2,97.7,0.493
44.24,29747.3,35057.9,-3.1116,0.0438,149.2,97.7,0.493
44.26,30218.3,33840.9,-2.46,-1.4405,149.2,97.7,0.493
44.28,31197.1,31231.5,-1.1064,-4.623,149.2,97.7,0.493
44.3,31922.6,31792.7,-0.1031,-3.9386,149.2,97.7,0.493
44.32,31431.8,33019.3,-0.7818,-2.4426,149.2,97.7,0.493
44.34,33388.9,38127.0,1.9247,3.7869,149.2,97.7,0.493
44.36,31168.1,36749.6,-1.1466,2.107,149.2,97.7,0.493
44.38,32535.0,32240.9,0.7438,-3.392,149.2,97.7,0.493
44.4,28272.4,35993.2,-5.1513,1.1845,149.2,97.7,0.493
44.42,30406.0,36323.8,-2.2005,1.5877,149.2,97.7,0.493
44.44,31729.7,33783.3,-0.3699,-1.5108,149.2,97.7,0.493
44.46,33971.6,33567.2,2.7306,-1.7743,149.2,97.7,0.493
44.48,29146.6,34832.5,-3.9423,-0.2312,149.2,97.7,0.493
44.5,30889.6,32243.1,-1.5318,-3.3893,149.2,97.7,0.493
44.52,30281.2,32308.1,-2.3731,-3.31,149.2,97.7,0.493
44.54,31846.3,37215.0,-0.2086,2.6747,149.2,97.7,0.493
44.56,29829.8,33402.1,-2.9974,-1.9757,149.2,97.7,0.493
44.58,31265.7,32488.5,-1.0116,-3.0899,149.2,97.7,0.493
44.6,29967.4,35566.8,-2.8071,0.6644,149.2,97.7,0.493
44.62,29038.9,34827.1,-4.0912,-0.2377,149.2,97.7,0.493
44.64,34345.6,36528.8,3.2478,1.8377,149.2,97.7,0.493
44.66,32126.3,36835.5,0.1786,2.2118,149.2,97.7,0.493
44.68,32700.5,34597.5,0.9727,-0.5177,149.2,97.7,0.493
44.7,29185.8,36177.0,-3.888,1.4087,149.2,97.7,0.493
44.72,32235.9,34171.5,0.3302,-1.0373,149.2,97.7,0.493
44.74,32650.9,36825.9,0.9041,2.2001,149.2,97.7,0.493
44.76,31663.8,34732.6,-0.461,-0.353,149.2,97.7,0.493
44.78,33201.9,29826.9,1.6662,-6.3362,149.2,97.7,0.493
44.8,30469.0,36733.8,-2.1134,2.0878,149.2,97.7,0.493
44.82,31167.6,32121.9,-1.1473,-3.537,149.2,97.7,0.493
44.84,28010.7,31390.5,-5.5132,-4.4292,149.2,97.7,0.493
44.86,33114.4,38668.3,1.5451,4.4472,149.2,97.7,0.493
44.88,34175.2,36599.9,3.0122,1.9244,149.2,97.7,0.493
