timestamp,raw_red,raw_ir,filtered_red,filtered_ir,heart_rate,spo2,ac_dc_ratio
0.0,31975.5,35111.7,-0.132,0.2725,139.0,98.3,0.467
0.02,32181.7,35496.3,1.0143,1.2165,139.0,98.3,0.467
0.04,32401.2,35729.7,2.2346,1.7893,139.0,98.3,0.467
0.06,32284.4,35825.0,1.5855,2.0233,139.0,98.3,0.467
0.08,32307.8,35623.7,1.7157,1.5291,139.0,98.3,0.467
0.1,32267.9,35520.0,1.4935,1.2746,139.0,98.3,0.467
0.12,32080.4,35210.5,0.451,0.5149,139.0,98.3,0.467
0.14,31997.3,35294.5,-0.0108,0.721,139.0,98.3,0.467
0.16,32016.6,35150.5,0.0961,0.3676,139.0,98.3,0.467
0.18,32016.0,35018.8,0.0927,0.0444,139.0,98.3,0.467
0.2,32025.9,34896.4,0.148,-0.2559,139.0,98.3,0.467
0.22,31911.9,34817.6,-0.4857,-0.4496,139.0,98.3,0.467
0.24,31991.3,34796.8,-0.0442,-0.5004,139.0,98.3,0.467
0.26,31872.1,34680.5,-0.7071,-0.7859,139.0,98.3,0.467
0.28,31779.4,34665.6,-1.2226,-0.8226,139.0,98.3,0.467
0.3,31892.0,34634.4,-0.5963,-0.8991,139.0,98.3,0.467
0.32,31921.5,34548.2,-0.4325,-1.1107,139.0,98.3,0.467
0.34,31745.0,34545.4,-1.414,-1.1176,139.0,98.3,0.467
0.36,31779.2,34458.5,-1.2236,-1.3309,139.0,98.3,0.467
0.38,31729.9,34506.9,-1.4978,-1.212,139.0,98.3,0.467
0.4,31858.0,34691.8,-0.7855,-0.7583,139.0,98.3,0.467
0.42,31892.1,34922.5,-0.5961,-0.192,139.0,98.3,0.467
0.44,32127.1,35325.5,0.7104,0.7973,139.0,98.3,0.467
0.46,32258.9,35670.0,1.4438,1.6428,139.0,98.3,0.467
0.48,32254.5,35836.2,1.4191,2.0507,139.0,98.3,0.467
0.5,32323.3,35683.5,1.8017,1.6759,139.0,98.3,0.467
0.52,32316.0,35550.2,1.7613,1.3487,139.0,98.3,0.467
0.54,32121.5,35264.1,0.6793,0.6465,139.0,98.3,0.467
0.56,32077.6,35241.4,0.4353,0.5907,139.0,98.3,0.467
0.58,32026.2,35075.5,0.1498,0.1835,139.0,98.3,0.467
0.6,31998.3,35043.4,-0.0054,0.1047,139.0,98.3,0.467
0.62,31983.1,35043.0,-0.0899,0.1039,139.0,98.3,0.467
0.64,32042.5,34937.2,0.2403,-0.1558,139.0,98.3,0.467
0.66,31939.6,34879.4,-0.3316,-0.2977,139.0,98.3,0.467
0.68,31854.1,34701.4,-0.8072,-0.7346,139.0,98.3,0.467
0.7,31847.2,34683.2,-0.8458,-0.7793,139.0,98.3,0.467
0.72,31783.8,34627.9,-1.1979,-0.9152,139.0,98.3,0.467
0.74,31909.6,34641.9,-0.4988,-0.8808,139.0,98.3,0.467
0.76,31846.5,34650.2,-0.8496,-0.8604,139.0,98.3,0.467
0.78,31764.3,34555.6,-1.3066,-1.0926,139.0,98.3,0.467
0.8,31768.8,34564.4,-1.2817,-1.071,139.0,98.3,0.467
0.82,31799.4,34486.9,-1.1114,-1.2612,139.0,98.3,0.467
0.84,31857.5,34785.3,-0.7884,-0.5286,139.0,98.3,0.467
0.86,32037.1,35100.8,0.2101,0.2458,139.0,98.3,0.467
0.88,32116.1,35460.1,0.6498,1.1275,139.0,98.3,0.467
0.9,32255.8,35653.8,1.4265,1.6029,139.0,98.3,0.467
0.92,32286.7,35646.2,1.5979,1.5843,139.0,98.3,0.467
0.94,32311.6,35587.1,1.7364,1.4393,139.0,98.3,0.467
0.96,32257.3,35453.2,1.4344,1.1106,139.0,98.3,0.467
0.98,32061.6,35264.7,0.3462,0.6479,139.0,98.3,0.467
1.0,32006.0,35175.3,0.0375,0.4286,139.0,98.3,0.467
1.02,32096.8,35076.0,0.5422,0.1849,139.0,98.3,0.467
1.04,32077.1,35123.3,0.4328,0.3008,139.0,98.3,0.467
1.06,31967.9,34962.8,-0.1747,-0.0931,139.0,98.3,0.467
1.08,31870.8,34910.7,-0.7144,-0.2209,139.0,98.3,0.467
1.1,31876.1,34868.5,-0.6852,-0.3245,139.0,98.3,0.467
1.12,31903.4,34636.4,-0.533,-0.8942,139.0,98.3,0.467
1.14,31862.9,34599.4,-0.7586,-0.985,139.0,98.3,0.467
1.16,31796.8,34632.3,-1.1262,-0.9043,139.0,98.3,0.467
1.18,31885.4,34604.2,-0.6335,-0.9732,139.0,98.3,0.467
1.2,31764.2,34595.5,-1.3072,-0.9946,139.0,98.3,0.467
1.22,31700.8,34440.6,-1.6595,-1.3747,139.0,98.3,0.467
1.24,31777.2,34606.3,-1.2346,-0.9682,139.0,98.3,0.467
1.26,31829.6,34517.8,-0.9435,-1.1853,139.0,98.3,0.467
1.28,31950.0,34909.4,-0.2742,-0.2242,139.0,98.3,0.467
1.3,32136.5,35267.2,0.7631,0.6542,139.0,98.3,0.467
1.32,32172.4,35481.3,0.9628,1.1796,139.0,98.3,0.467
1.34,32342.3,35689.9,1.907,1.6915,139.0,98.3,0.467
1.36,32296.9,35774.6,1.6547,1.8996,139.0,98.3,0.467
1.38,32265.2,35612.7,1.4785,1.5022,139.0,98.3,0.467
1.4,32177.4,35364.4,0.9904,0.8926,139.0,98.3,0.467
1.42,32182.5,35233.0,1.0189,0.5703,139.0,98.3,0.467
1.44,32058.4,35035.8,0.3288,0.086,139.0,98.3,0.467
1.46,32065.2,35045.0,0.3663,0.1088,139.0,98.3,0.467
1.48,32060.3,35038.2,0.3394,0.0921,139.0,98.3,0.467
1.5,31946.5,34933.6,-0.2935,-0.1648,139.0,98.3,0.467
1.52,31902.3,34822.6,-0.5394,-0.4371,139.0,98.3,0.467
1.54,31823.6,34737.1,-0.9769,-0.6469,139.0,98.3,0.467
1.56,31870.0,34662.6,-0.7186,-0.83,139.0,98.3,0.467
1.58,31954.0,34770.5,-0.2519,-0.565,139.0,98.3,0.467
1.6,31910.1,34685.1,-0.496,-0.7748,139.0,98.3,0.467
1.62,31751.2,34595.1,-1.3794,-0.9956,139.0,98.3,0.467
1.64,31858.3,34509.1,-0.784,-1.2068,139.0,98.3,0.467
1.66,31700.4,34473.1,-1.6617,-1.2951,139.0,98.3,0.467
1.68,31811.7,34500.4,-1.0428,-1.2279,139.0,98.3,0.467
1.7,31900.7,34717.5,-0.5483,-0.6952,139.0,98.3,0.467
1.72,32001.4,35062.1,0.0119,0.1508,139.0,98.3,0.467
1.74,32143.7,35331.2,0.8031,0.8112,139.0,98.3,0.467
1.76,32285.0,35619.7,1.5887,1.5194,139.0,98.3,0.467
1.78,32377.5,35667.2,2.1029,1.6358,139.0,98.3,0.467
1.8,32323.6,35725.4,1.8032,1.7789,139.0,98.3,0.467
1.82,32199.2,35567.3,1.1118,1.3906,139.0,98.3,0.467
1.84,32223.4,35286.5,1.246,0.7016,139.0,98.3,0.467
1.86,32054.1,35199.9,0.3048,0.4889,139.0,98.3,0.467
1.88,32126.0,35009.1,0.7048,0.0206,139.0,98.3,0.467
1.9,31996.0,35105.5,-0.0185,0.2571,139.0,98.3,0.467
1.92,32002.6,34943.3,0.0182,-0.141,139.0,98.3,0.467
1.94,31824.8,34827.0,-0.97,-0.4265,139.0,98.3,0.467
1.96,31890.2,34808.3,-0.6063,-0.4722,139.0,98.3,0.467
1.98,31881.7,34678.7,-0.6537,-0.7903,139.0,98.3,0.467
2.0,31919.2,34569.4,-0.4451,-1.0587,139.0,98.3,0.467
2.02,31872.3,34744.6,-0.7059,-0.6286,139.0,98.3,0.467
2.04,31739.7,34601.7,-1.4431,-0.9793,139.0,98.3,0.467
2.06,31816.1,34604.7,-1.0183,-0.972,139.0,98.3,0.467
2.08,31810.4,34440.0,-1.0502,-1.3762,139.0,98.3,0.467
2.1,31744.8,34452.4,-1.4152,-1.3459,139.0,98.3,0.467
2.12,31794.5,34511.3,-1.1389,-1.2013,139.0,98.3,0.467
2.14,31963.7,34889.3,-0.1981,-0.2733,139.0,98.3,0.467
2.16,32081.5,35198.1,0.4571,0.4844,139.0,98.3,0.467
2.18,32241.2,35570.8,1.3451,1.3993,139.0,98.3,0.467
2.2,32244.5,35763.6,1.3632,1.8724,139.0,98.3,0.467
2.22,32335.9,35695.3,1.8714,1.7049,139.0,98.3,0.467
2.24,32310.0,35602.8,1.7274,1.4778,139.0,98.3,0.467
2.26,32289.9,35503.1,1.6161,1.2331,139.0,98.3,0.467
2.28,32071.3,35214.9,0.4002,0.5258,139.0,98.3,0.467
2.3,32059.6,35189.7,0.3356,0.4639,139.0,98.3,0.467
2.32,32007.7,35060.2,0.0467,0.1461,139.0,98.3,0.467
2.34,32081.7,35047.8,0.4581,0.1155,139.0,98.3,0.467
2.36,31969.3,34939.1,-0.1669,-0.1512,139.0,98.3,0.467
2.38,31968.6,34912.8,-0.1706,-0.2157,139.0,98.3,0.467
2.4,31927.8,34673.8,-0.3975,-0.8024,139.0,98.3,0.467
2.42,31855.2,34687.0,-0.8011,-0.7701,139.0,98.3,0.467
2.44,31865.3,34743.1,-0.745,-0.6323,139.0,98.3,0.467
2.46,31803.0,34611.3,-1.0914,-0.9557,139.0,98.3,0.467
2.48,31849.7,34661.3,-0.8318,-0.8332,139.0,98.3,0.467
2.5,31742.4,34430.9,-1.4286,-1.3985,139.0,98.3,0.467
2.52,31738.3,34408.2,-1.4512,-1.4543,139.0,98.3,0.467
2.54,31837.6,34387.8,-0.8989,-1.5045,139.0,98.3,0.467
2.56,31715.3,34640.9,-1.5793,-0.8831,139.0,98.3,0.467
2.58,32003.0,34937.4,0.0206,-0.1553,139.0,98.3,0.467
2.6,32172.0,35337.4,0.9601,0.8265,139.0,98.3,0.467
2.62,32223.2,35634.6,1.2453,1.556,139.0,98.3,0.467
2.64,32376.8,35742.1,2.099,1.8197,139.0,98.3,0.467
2.66,32311.6,35708.0,1.7364,1.7361,139.0,98.3,0.467
2.68,32191.8,35565.0,1.0705,1.3851,139.0,98.3,0.467
2.7,32228.3,35251.4,1.2732,0.6152,139.0,98.3,0.467
2.72,32027.4,35218.4,0.1564,0.5343,139.0,98.3,0.467
2.74,31967.7,35244.1,-0.1758,0.5973,139.0,98.3,0.467
2.76,32017.8,35043.6,0.1027,0.1052,139.0,98.3,0.467
2.78,32005.1,35049.4,0.0324,0.1196,139.0,98.3,0.467
2.8,31975.4,34912.5,-0.133,-0.2164,139.0,98.3,0.467
2.82,31950.2,34851.9,-0.2727,-0.3652,139.0,98.3,0.467
2.84,31827.2,34783.0,-0.957,-0.5344,139.0,98.3,0.467
2.86,31911.9,34716.9,-0.4857,-0.6966,139.0,98.3,0.467
2.88,31876.0,34682.6,-0.6853,-0.7807,139.0,98.3,0.467
2.9,31791.4,34635.0,-1.1559,-0.8977,139.0,98.3,0.467
2.92,31795.9,34574.5,-1.1311,-1.0461,139.0,98.3,0.467
2.94,31877.6,34406.9,-0.6765,-1.4574,139.0,98.3,0.467
2.96,31830.8,34489.4,-0.9371,-1.2551,139.0,98.3,0.467
2.98,31752.8,34489.0,-1.3707,-1.2561,139.0,98.3,0.467
3.0,31833.2,34746.6,-0.9233,-0.6236,139.0,98.3,0.467
3.02,32037.4,35073.3,0.2118,0.1781,139.0,98.3,0.467
3.04,32180.4,35485.5,1.0072,1.19,139.0,98.3,0.467
3.06,32265.8,35709.2,1.4817,1.7391,139.0,98.3,0.467
3.08,32314.1,35743.8,1.7504,1.8239,139.0,98.3,0.467
3.1,32250.1,35640.1,1.3949,1.5694,139.0,98.3,0.467
3.12,32216.0,35439.7,1.2051,1.0775,139.0,98.3,0.467
3.14,32099.6,35228.0,0.5575,0.5579,139.0,98.3,0.467
3.16,32084.5,35127.3,0.4737,0.3108,139.0,98.3,0.467
3.18,32001.0,35109.5,0.0095,0.267,139.0,98.3,0.467
3.2,31947.9,35007.1,-0.2859,0.0156,139.0,98.3,0.467
3.22,32064.0,34944.8,0.3601,-0.1372,139.0,98.3,0.467
3.24,31874.9,34917.0,-0.6917,-0.2055,139.0,98.3,0.467
3.26,31867.8,34792.9,-0.7313,-0.51,139.0,98.3,0.467
3.28,31906.2,34668.9,-0.5178,-0.8145,139.0,98.3,0.467
3.3,31848.7,34576.6,-0.8373,-1.0409,139.0,98.3,0.467
3.32,31878.8,34729.7,-0.6701,-0.6652,139.0,98.3,0.467
3.34,31817.5,34566.6,-1.0108,-1.0654,139.0,98.3,0.467
3.36,31783.1,34578.8,-1.202,-1.0355,139.0,98.3,0.467
3.38,31738.1,34471.2,-1.4524,-1.2998,139.0,98.3,0.467
3.4,31776.5,34522.7,-1.2387,-1.1732,139.0,98.3,0.467
3.42,31814.2,34556.2,-1.0294,-1.091,139.0,98.3,0.467
3.44,32007.3,34879.3,0.0448,-0.2981,139.0,98.3,0.467
3.46,32128.5,35198.1,0.7187,0.4846,139.0,98.3,0.467
3.48,32262.0,35616.3,1.461,1.5111,139.0,98.3,0.467
3.5,32434.1,35700.5,2.4177,1.7176,139.0,98.3,0.467
3.52,32338.2,35696.1,1.8845,1.7069,139.0,98.3,0.467
3.54,32271.6,35601.2,1.5142,1.474,139.0,98.3,0.467
3.56,32184.5,35360.0,1.0299,0.8818,139.0,98.3,0.467
3.58,32088.6,35157.3,0.4964,0.3843,139.0,98.3,0.467
3.6,31930.8,35080.7,-0.381,0.1964,139.0,98.3,0.467
3.62,32094.9,35057.2,0.5314,0.1386,139.0,98.3,0.467
3.64,31978.5,35042.5,-0.1155,0.1026,139.0,98.3,0.467
3.66,31995.5,34948.1,-0.0209,-0.129,139.0,98.3,0.467
3.68,31952.1,34858.1,-0.2623,-0.3499,139.0,98.3,0.467
3.7,31841.7,34822.0,-0.8761,-0.4387,139.0,98.3,0.467
3.72,31798.4,34650.4,-1.1168,-0.8598,139.0,98.3,0.467
3.74,31890.6,34695.7,-0.6044,-0.7486,139.0,98.3,0.467
3.76,31822.9,34617.1,-0.981,-0.9416,139.0,98.3,0.467
3.78,31843.2,34614.6,-0.8678,-0.9477,139.0,98.3,0.467
3.8,31790.4,34528.3,-1.1617,-1.1594,139.0,98.3,0.467
3.82,31752.1,34451.7,-1.3745,-1.3476,139.0,98.3,0.467
3.84,31715.7,34504.5,-1.5767,-1.218,139.0,98.3,0.467
3.86,31882.4,34791.1,-0.6501,-0.5146,139.0,98.3,0.467
3.88,32060.0,35021.9,0.3378,0.0521,139.0,98.3,0.467
3.9,32173.8,35484.5,0.9703,1.1876,139.0,98.3,0.467
3.92,32323.5,35627.3,1.8028,1.538,139.0,98.3,0.467
3.94,32345.8,35701.2,1.9266,1.7193,139.0,98.3,0.467
3.96,32323.6,35659.3,1.8031,1.6165,139.0,98.3,0.467
3.98,32248.7,35487.5,1.3871,1.1949,139.0,98.3,0.467
4.0,32197.5,35366.8,1.1022,0.8987,139.0,98.3,0.467
4.02,32101.1,35221.8,0.5662,0.5426,139.0,98.3,0.467
4.04,32030.8,35068.9,0.1749,0.1674,139.0,98.3,0.467
4.06,32030.5,35104.6,0.1736,0.2551,139.0,98.3,0.467
4.08,32040.3,34985.8,0.228,-0.0366,139.0,98.3,0.467
4.1,32051.7,34989.0,0.2914,-0.0288,139.0,98.3,0.467
4.12,31924.0,34846.2,-0.4187,-0.3794,139.0,98.3,0.467
4.14,31880.0,34690.6,-0.6635,-0.7613,139.0,98.3,0.467
4.16,31944.6,34643.4,-0.3042,-0.8771,139.0,98.3,0.467
4.18,31831.3,34655.3,-0.9338,-0.8477,139.0,98.3,0.467
4.2,31856.8,34629.1,-0.792,-0.9122,139.0,98.3,0.467
4.22,31804.0,34555.5,-1.0861,-1.0927,139.0,98.3,0.467
4.24,31729.7,34435.0,-1.4988,-1.3886,139.0,98.3,0.467
4.26,31808.7,34507.5,-1.0599,-1.2106,139.0,98.3,0.467
4.28,31758.2,34564.4,-1.3403,-1.071,139.0,98.3,0.467
4.3,32006.6,34783.5,0.0409,-0.533,139.0,98.3,0.467
4.32,32050.2,35184.8,0.2829,0.4518,139.0,98.3,0.467
4.34,32177.7,35449.0,0.9918,1.1003,139.0,98.3,0.467
4.36,32312.2,35670.2,1.7399,1.6434,139.0,98.3,0.467
4.38,32274.2,35756.7,1.5288,1.8557,139.0,98.3,0.467
4.4,32356.0,35643.8,1.9832,1.5784,139.0,98.3,0.467
4.42,32152.8,35416.8,0.8537,1.0212,139.0,98.3,0.467
4.44,32098.9,35230.8,0.554,0.5648,139.0,98.3,0.467
4.46,32073.5,35105.0,0.4129,0.2559,139.0,98.3,0.467
4.48,32094.6,35128.8,0.5297,0.3143,139.0,98.3,0.467
4.5,31997.5,34978.0,-0.0101,-0.0557,139.0,98.3,0.467
4.52,32003.9,35087.4,0.0256,0.2127,139.0,98.3,0.467
4.54,31945.4,34845.4,-0.2996,-0.3812,139.0,98.3,0.467
4.56,31900.9,34857.2,-0.5471,-0.3522,139.0,98.3,0.467
4.58,31932.0,34720.1,-0.3743,-0.6889,139.0,98.3,0.467
4.6,31981.7,34581.5,-0.0977,-1.029,139.0,98.3,0.467
4.62,31862.4,34591.8,-0.761,-1.0037,139.0,98.3,0.467
4.64,31795.8,34561.6,-1.1313,-1.0778,139.0,98.3,0.467
4.66,31756.8,34438.1,-1.3482,-1.3808,139.0,98.3,0.467
4.68,31740.1,34459.9,-1.441,-1.3274,139.0,98.3,0.467
4.7,31738.1,34556.2,-1.4525,-1.0911,139.0,98.3,0.467
4.72,31834.5,34692.1,-0.9164,-0.7574,139.0,98.3,0.467
4.74,32033.1,35006.1,0.188,0.0132,139.0,98.3,0.467
4.76,32208.8,35410.2,1.1651,1.0052,139.0,98.3,0.467
4.78,32286.9,35616.2,1.5992,1.5109,139.0,98.3,0.467
4.8,32261.2,35787.0,1.4563,1.93,139.0,98.3,0.467
4.82,32348.2,35704.3,1.9401,1.7271,139.0,98.3,0.467
4.84,32223.6,35495.1,1.2473,1.2135,139.0,98.3,0.467
4.86,32137.2,35388.6,0.7671,0.9522,139.0,98.3,0.467
4.88,32012.7,35209.3,0.0747,0.512,139.0,98.3,0.467
4.9,32012.7,35127.1,0.0746,0.3103,139.0,98.3,0.467
4.92,31938.7,35078.1,-0.3369,0.1901,139.0,98.3,0.467
4.94,31893.8,34996.3,-0.5863,-0.0108,139.0,98.3,0.467
4.96,31923.4,34923.0,-0.4217,-0.1907,139.0,98.3,0.467
4.98,31965.5,34788.9,-0.1876,-0.52,139.0,98.3,0.467
5.0,31877.5,34747.0,-0.6769,-0.6226,139.0,98.3,0.467
5.02,31854.1,34682.1,-0.8074,-0.7821,139.0,98.3,0.467
5.04,31881.4,34735.9,-0.6557,-0.6499,139.0,98.3,0.467
5.06,31822.9,34636.1,-0.9809,-0.8949,139.0,98.3,0.467
5.08,31774.0,34573.4,-1.2524,-1.0489,139.0,98.3,0.467
5.1,31688.1,34485.5,-1.7305,-1.2645,139.0,98.3,0.467
5.12,31676.5,34485.6,-1.795,-1.2643,139.0,98.3,0.467
5.14,31878.9,34477.2,-0.6693,-1.2849,139.0,98.3,0.467
5.16,32011.2,34844.3,0.066,-0.384,139.0,98.3,0.467
5.18,31988.0,35098.1,-0.063,0.239,139.0,98.3,0.467
5.2,32170.0,35506.8,0.9491,1.2421,139.0,98.3,0.467
5.22,32233.8,35730.3,1.3042,1.7907,139.0,98.3,0.467
5.24,32425.8,35777.4,2.3713,1.9065,139.0,98.3,0.467
5.26,32285.8,35593.8,1.5933,1.4557,139.0,98.3,0.467
5.28,32165.9,35432.6,0.9265,1.0602,139.0,98.3,0.467
5.3,32107.1,35336.0,0.5993,0.8229,139.0,98.3,0.467
5.32,32055.9,35196.3,0.3148,0.4802,139.0,98.3,0.467
5.34,32133.4,35087.4,0.7456,0.2127,139.0,98.3,0.467
5.36,31952.1,35128.0,-0.2623,0.3124,139.0,98.3,0.467
5.38,32114.2,35005.0,0.6389,0.0105,139.0,98.3,0.467
5.4,31922.9,34860.7,-0.4246,-0.3437,139.0,98.3,0.467
5.42,31850.4,34792.9,-0.8279,-0.5102,139.0,98.3,0.467
5.44,31890.5,34673.7,-0.6049,-0.8026,139.0,98.3,0.467
5.46,31840.3,34756.6,-0.8843,-0.5991,139.0,98.3,0.467
5.48,31926.9,34635.9,-0.4025,-0.8955,139.0,98.3,0.467
5.5,31770.8,34600.1,-1.2704,-0.9833,139.0,98.3,0.467
5.52,31863.2,34503.6,-0.7567,-1.2202,139.0,98.3,0.467
5.54,31869.6,34484.7,-0.7212,-1.2666,139.0,98.3,0.467
5.56,31757.3,34383.2,-1.3453,-1.5157,139.0,98.3,0.467
5.58,31819.6,34653.0,-0.9991,-0.8534,139.0,98.3,0.467
5.6,31942.0,34887.9,-0.3187,-0.2769,139.0,98.3,0.467
5.62,32123.6,35270.5,0.6911,0.6623,139.0,98.3,0.467
5.64,32186.6,35624.5,1.0416,1.5312,139.0,98.3,0.467
5.66,32287.7,35731.4,1.6037,1.7934,139.0,98.3,0.467
5.68,32338.5,35716.9,1.8863,1.758,139.0,98.3,0.467
5.7,32181.3,35555.7,1.0119,1.3621,139.0,98.3,0.467
5.72,32129.0,35421.3,0.721,1.0323,139.0,98.3,0.467
5.74,32155.7,35260.2,0.87,0.6369,139.0,98.3,0.467
5.76,32017.9,35071.5,0.1035,0.1738,139.0,98.3,0.467
5.78,32093.9,35066.1,0.5262,0.1606,139.0,98.3,0.467
5.8,31905.4,34932.5,-0.5219,-0.1673,139.0,98.3,0.467
5.82,31976.7,34892.6,-0.1256,-0.2653,139.0,98.3,0.467
5.84,31908.2,34837.1,-0.5064,-0.4016,139.0,98.3,0.467
5.86,31837.7,34719.4,-0.8983,-0.6905,139.0,98.3,0.467
5.88,31836.2,34670.0,-0.9067,-0.8118,139.0,98.3,0.467
5.9,31862.1,34712.2,-0.7629,-0.7082,139.0,98.3,0.467
5.92,31838.9,34590.0,-0.8916,-1.0081,139.0,98.3,0.467
5.94,31878.3,34522.2,-0.6726,-1.1744,139.0,98.3,0.467
5.96,31779.9,34535.5,-1.2197,-1.1418,139.0,98.3,0.467
5.98,31759.8,34384.0,-1.3314,-1.5137,139.0,98.3,0.467
6.0,31765.9,34487.3,-1.2975,-1.2601,139.0,98.3,0.467
6.02,31831.6,34784.4,-0.9321,-0.5309,139.0,98.3,0.467
6.04,31985.1,34971.9,-0.079,-0.0708,139.0,98.3,0.467
6.06,32222.3,35432.9,1.2398,1.0608,139.0,98.3,0.467
6.08,32248.4,35699.1,1.385,1.7143,139.0,98.3,0.467
6.1,32396.8,35748.0,2.2102,1.8342,139.0,98.3,0.467
6.12,32182.9,35665.0,1.0207,1.6305,139.0,98.3,0.467
6.14,32265.5,35503.8,1.4801,1.2348,139.0,98.3,0.467
6.16,32077.0,35321.2,0.4323,0.7866,139.0,98.3,0.467
6.18,32103.3,35098.0,0.5781,0.2388,139.0,98.3,0.467
6.2,31981.2,35135.1,-0.1003,0.3298,139.0,98.3,0.467
6.22,32013.8,35078.2,0.081,0.1902,139.0,98.3,0.467
6.24,32065.8,35055.3,0.3697,0.1339,139.0,98.3,0.467
6.26,31960.3,34804.8,-0.2169,-0.4809,139.0,98.3,0.467
6.28,31875.2,34786.0,-0.69,-0.5271,139.0,98.3,0.467
6.3,31880.6,34750.4,-0.6597,-0.6145,139.0,98.3,0.467
6.32,31833.9,34668.4,-0.9198,-0.8156,139.0,98.3,0.467
6.34,31836.5,34765.4,-0.905,-0.5775,139.0,98.3,0.467
6.36,31886.7,34637.3,-0.6258,-0.8919,139.0,98.3,0.467
6.38,31742.5,34562.6,-1.4277,-1.0754,139.0,98.3,0.467
6.4,31790.2,34491.4,-1.1627,-1.2501,139.0,98.3,0.467
6.42,31768.2,34428.7,-1.2851,-1.4041,139.0,98.3,0.467
6.44,31839.8,34542.9,-0.8866,-1.1238,139.0,98.3,0.467
6.46,31935.5,34912.6,-0.3547,-0.2163,139.0,98.3,0.467
6.48,32099.7,35157.2,0.5582,0.3842,139.0,98.3,0.467
6.5,32223.6,35597.1,1.2474,1.4638,139.0,98.3,0.467
6.52,32292.1,35737.4,1.6282,1.8083,139.0,98.3,0.467
6.54,32271.6,35749.9,1.5142,1.8388,139.0,98.3,0.467
6.56,32261.4,35635.7,1.4574,1.5585,139.0,98.3,0.467
6.58,32073.7,35395.4,0.4135,0.9687,139.0,98.3,0.467
6.6,32088.4,35311.3,0.4953,0.7623,139.0,98.3,0.467
6.62,32110.6,35160.8,0.619,0.3931,139.0,98.3,0.467
6.64,32058.1,35137.5,0.3269,0.3357,139.0,98.3,0.467
6.66,32085.7,35010.6,0.4806,0.0242,139.0,98.3,0.467
6.68,31869.4,35014.8,-0.7223,0.0345,139.0,98.3,0.467
6.7,31980.4,34869.4,-0.1049,-0.3223,139.0,98.3,0.467
6.72,31887.1,34668.6,-0.6238,-0.8151,139.0,98.3,0.467
6.74,31878.3,34740.6,-0.6726,-0.6384,139.0,98.3,0.467
6.76,31933.4,34693.3,-0.3665,-0.7545,139.0,98.3,0.467
6.78,31843.1,34650.4,-0.8687,-0.8599,139.0,98.3,0.467
6.8,31872.1,34616.7,-0.7071,-0.9427,139.0,98.3,0.467
6.82,31784.5,34647.6,-1.1942,-0.8667,139.0,98.3,0.467
6.84,31797.9,34467.3,-1.1197,-1.3093,139.0,98.3,0.467
6.86,31772.5,34471.8,-1.2611,-1.2983,139.0,98.3,0.467
6.88,31902.0,34663.4,-0.541,-0.828,139.0,98.3,0.467
6.9,31939.3,35071.6,-0.3337,0.1741,139.0,98.3,0.467
6.92,32161.7,35338.2,0.9031,0.8285,139.0,98.3,0.467
6.94,32328.7,35622.0,1.8315,1.525,139.0,98.3,0.467
6.96,32344.6,35726.1,1.9199,1.7806,139.0,98.3,0.467
6.98,32293.8,35697.8,1.6376,1.711,139.0,98.3,0.467
7.0,32195.5,35539.1,1.0912,1.3215,139.0,98.3,0.467
7.02,32139.8,35310.6,0.7813,0.7606,139.0,98.3,0.467
7.04,32062.6,35181.9,0.3522,0.4446,139.0,98.3,0.467
7.06,32064.7,35087.0,0.3639,0.2117,139.0,98.3,0.467
7.08,31962.5,35039.0,-0.2045,0.094,139.0,98.3,0.467
7.1,31974.0,34964.9,-0.1407,-0.0879,139.0,98.3,0.467
7.12,31998.7,34827.7,-0.003,-0.4245,139.0,98.3,0.467
7.14,31954.6,34777.3,-0.2483,-0.5483,139.0,98.3,0.467
7.16,31846.3,34703.1,-0.8508,-0.7304,139.0,98.3,0.467
7.18,31840.6,34611.6,-0.8822,-0.955,139.0,98.3,0.467
7.2,31816.1,34633.5,-1.0186,-0.9014,139.0,98.3,0.467
7.22,31860.6,34680.4,-0.7711,-0.7862,139.0,98.3,0.467
7.24,31765.1,34629.0,-1.3024,-0.9125,139.0,98.3,0.467
7.26,31868.1,34497.6,-0.7297,-1.2349,139.0,98.3,0.467
7.28,31833.0,34463.4,-0.9244,-1.3189,139.0,98.3,0.467
7.3,31791.8,34577.8,-1.1535,-1.0381,139.0,98.3,0.467
7.32,31890.0,34770.7,-0.6075,-0.5645,139.0,98.3,0.467
7.34,31963.1,35120.2,-0.2014,0.2933,139.0,98.3,0.467
7.36,32222.2,35422.7,1.2397,1.0357,139.0,98.3,0.467
7.38,32400.3,35686.6,2.2297,1.6836,139.0,98.3,0.467
7.4,32251.6,35794.7,1.403,1.9488,139.0,98.3,0.467
7.42,32318.2,35618.1,1.7731,1.5155,139.0,98.3,0.467
7.44,32145.1,35356.6,0.8107,0.8736,139.0,98.3,0.467
7.46,32151.9,35351.6,0.8486,0.8612,139.0,98.3,0.467
7.48,32012.6,35167.4,0.0741,0.4091,139.0,98.3,0.467
7.5,32008.5,35151.1,0.0515,0.3692,139.0,98.3,0.467
7.52,32121.5,35068.3,0.6796,0.1658,139.0,98.3,0.467
7.54,32007.6,34914.5,0.0462,-0.2115,139.0,98.3,0.467
7.56,31921.7,34948.1,-0.4314,-0.1291,139.0,98.3,0.467
7.58,31880.7,34691.0,-0.6596,-0.7603,139.0,98.3,0.467
7.6,31927.8,34633.4,-0.3976,-0.9015,139.0,98.3,0.467
7.62,31930.1,34694.4,-0.3848,-0.7518,139.0,98.3,0.467
7.64,31858.7,34622.1,-0.7819,-0.9292,139.0,98.3,0.467
7.66,31886.1,34633.8,-0.6291,-0.9006,139.0,98.3,0.467
7.68,31772.8,34520.6,-1.2591,-1.1784,139.0,98.3,0.467
7.7,31705.8,34507.3,-1.6319,-1.2111,139.0,98.3,0.467
7.72,31742.0,34444.4,-1.4304,-1.3655,139.0,98.3,0.467
7.74,31856.4,34611.6,-0.7946,-0.9551,139.0,98.3,0.467
7.76,32025.3,34944.9,0.1449,-0.1369,139.0,98.3,0.467
7.78,32137.9,35234.3,0.7705,0.5733,139.0,98.3,0.467
7.8,32244.4,35580.5,1.3629,1.423,139.0,98.3,0.467
7.82,32367.3,35775.9,2.0463,1.9027,139.0,98.3,0.467
7.84,32301.3,35647.4,1.6793,1.5872,139.0,98.3,0.467
7.86,32260.1,35437.0,1.4503,1.0709,139.0,98.3,0.467
7.88,32158.0,35365.9,0.8823,0.8964,139.0,98.3,0.467
7.9,32142.0,35205.9,0.7938,0.5036,139.0,98.3,0.467
7.92,32053.3,35137.4,0.3003,0.3354,139.0,98.3,0.467
7.94,31947.6,35083.1,-0.2874,0.2023,139.0,98.3,0.467
7.96,32030.3,35058.9,0.1725,0.1427,139.0,98.3,0.467
7.98,31994.5,34894.2,-0.0268,-0.2614,139.0,98.3,0.467
8.0,31956.0,34816.6,-0.2405,-0.4519,139.0,98.3,0.467
8.02,31908.8,34754.3,-0.5033,-0.6047,139.0,98.3,0.467
8.04,31819.9,34678.8,-0.9976,-0.79,139.0,98.3,0.467
8.06,31867.3,34587.2,-0.7336,-1.0149,139.0,98.3,0.467
8.08,31867.5,34650.0,-0.733,-0.8608,139.0,98.3,0.467
8.1,31769.8,34519.8,-1.2761,-1.1804,139.0,98.3,0.467
8.12,31875.2,34508.6,-0.6899,-1.208,139.0,98.3,0.467
8.14,31787.7,34522.0,-1.1764,-1.1751,139.0,98.3,0.467
8.16,31850.3,34587.9,-0.8283,-1.0132,139.0,98.3,0.467
8.18,31823.4,34802.7,-0.9779,-0.4859,139.0,98.3,0.467
8.2,32116.3,34999.2,0.6505,-0.0037,139.0,98.3,0.467
8.22,32144.4,35449.2,0.8071,1.1009,139.0,98.3,0.467
8.24,32345.3,35688.8,1.9242,1.689,139.0,98.3,0.467
8.26,32306.0,35726.1,1.7053,1.7804,139.0,98.3,0.467
8.28,32235.0,35681.1,1.3105,1.6699,139.0,98.3,0.467
8.3,32272.2,35451.8,1.5176,1.1072,139.0,98.3,0.467
8.32,32176.1,35300.1,0.9832,0.7349,139.0,98.3,0.467
8.34,32068.9,35190.6,0.3871,0.466,139.0,98.3,0.467
8.36,31993.1,35168.8,-0.0345,0.4127,139.0,98.3,0.467
8.38,32068.8,35066.5,0.3867,0.1616,139.0,98.3,0.467
8.4,31994.7,35095.7,-0.0254,0.233,139.0,98.3,0.467
8.42,31869.2,34886.6,-0.7231,-0.28,139.0,98.3,0.467
8.44,31929.4,34699.5,-0.3885,-0.7394,139.0,98.3,0.467
8.46,31892.0,34703.7,-0.5965,-0.7291,139.0,98.3,0.467
8.48,31878.4,34711.5,-0.6723,-0.7099,139.0,98.3,0.467
8.5,31809.7,34698.1,-1.0544,-0.7426,139.0,98.3,0.467
8.52,31902.9,34550.8,-0.5358,-1.1042,139.0,98.3,0.467
8.54,31782.0,34526.4,-1.2082,-1.1643,139.0,98.3,0.467
8.56,31817.0,34416.8,-1.0138,-1.4333,139.0,98.3,0.467
8.58,31726.6,34462.3,-1.516,-1.3215,139.0,98.3,0.467
8.6,31902.4,34511.7,-0.5386,-1.2003,139.0,98.3,0.467
8.62,31909.5,34913.6,-0.4995,-0.2137,139.0,98.3,0.467
8.64,32080.5,35278.0,0.4517,0.6807,139.0,98.3,0.467
8.66,32244.6,35506.4,1.3641,1.2412,139.0,98.3,0.467
8.68,32337.8,35842.7,1.8821,2.0668,139.0,98.3,0.467
8.7,32231.0,35740.6,1.2881,1.816,139.0,98.3,0.467
8.72,32319.3,35620.5,1.7792,1.5214,139.0,98.3,0.467
8.74,32208.3,35453.9,1.1622,1.1124,139.0,98.3,0.467
8.76,32112.9,35219.0,0.6319,0.5357,139.0,98.3,0.467
8.78,32032.1,35210.3,0.1827,0.5144,139.0,98.3,0.467
8.8,32035.8,35091.4,0.203,0.2227,139.0,98.3,0.467
8.82,32054.0,35034.1,0.3039,0.0819,139.0,98.3,0.467
8.84,31984.5,34947.8,-0.0821,-0.1298,139.0,98.3,0.467
8.86,31932.4,34830.8,-0.3717,-0.4171,139.0,98.3,0.467
8.88,31918.7,34743.9,-0.4482,-0.6304,139.0,98.3,0.467
8.9,31807.1,34714.4,-1.0688,-0.7028,139.0,98.3,0.467
8.92,31891.5,34634.5,-0.5994,-0.8989,139.0,98.3,0.467
8.94,31892.6,34664.7,-0.5934,-0.8249,139.0,98.3,0.467
8.96,31863.8,34639.8,-0.7532,-0.886,139.0,98.3,0.467
8.98,31778.0,34396.8,-1.2306,-1.4822,139.0,98.3,0.467
9.0,31744.3,34456.4,-1.4177,-1.3359,139.0,98.3,0.467
9.02,31740.5,34572.8,-1.4389,-1.0504,139.0,98.3,0.467
9.04,31836.8,34683.9,-0.9032,-0.7776,139.0,98.3,0.467
9.06,31919.4,35007.2,-0.444,0.0161,139.0,98.3,0.467
9.08,32240.7,35328.5,1.3425,0.8046,139.0,98.3,0.467
9.1,32208.5,35719.3,1.1635,1.7638,139.0,98.3,0.467
9.12,32379.1,35737.5,2.1117,1.8086,139.0,98.3,0.467
9.14,32339.5,35616.9,1.8916,1.5124,139.0,98.3,0.467
9.16,32273.0,35573.3,1.5219,1.4053,139.0,98.3,0.467
9.18,32134.5,35298.4,0.7521,0.7307,139.0,98.3,0.467
9.2,32070.6,35209.4,0.3963,0.5122,139.0,98.3,0.467
9.22,32114.5,35101.7,0.6407,0.2479,139.0,98.3,0.467
9.24,32050.9,35063.6,0.2872,0.1543,139.0,98.3,0.467
9.26,32117.8,34975.0,0.6588,-0.0631,139.0,98.3,0.467
9.28,31981.7,34934.4,-0.0977,-0.1628,139.0,98.3,0.467
9.3,31919.0,34820.2,-0.4465,-0.4429,139.0,98.3,0.467
9.32,31860.3,34719.3,-0.7727,-0.6907,139.0,98.3,0.467
9.34,31849.1,34646.7,-0.8351,-0.8689,139.0,98.3,0.467
9.36,31861.9,34631.0,-0.764,-0.9076,139.0,98.3,0.467
9.38,31782.0,34612.0,-1.2082,-0.954,139.0,98.3,0.467
9.4,31840.6,34537.0,-0.8821,-1.1381,139.0,98.3,0.467
9.42,31776.8,34384.7,-1.2368,-1.5121,139.0,98.3,0.467
9.44,31695.5,34437.9,-1.6894,-1.3815,139.0,98.3,0.467
9.46,31800.7,34507.4,-1.104,-1.2109,139.0,98.3,0.467
9.48,31906.8,34801.5,-0.5142,-0.489,139.0,98.3,0.467
9.5,32164.8,35113.1,0.9204,0.276,139.0,98.3,0.467
9.52,32154.1,35569.6,0.8606,1.3964,139.0,98.3,0.467
9.54,32221.6,35657.6,1.2363,1.6124,139.0,98.3,0.467
9.56,32300.8,35710.1,1.6763,1.7412,139.0,98.3,0.467
9.58,32345.1,35652.8,1.9226,1.6005,139.0,98.3,0.467
9.6,32047.8,35370.5,0.2697,0.9077,139.0,98.3,0.467
9.62,32133.1,35241.0,0.7443,0.5898,139.0,98.3,0.467
9.64,32079.4,35163.1,0.4456,0.3985,139.0,98.3,0.467
9.66,32012.1,35127.4,0.0713,0.311,139.0,98.3,0.467
9.68,32024.3,35099.5,0.139,0.2425,139.0,98.3,0.467
9.7,31962.7,34962.0,-0.2035,-0.095,139.0,98.3,0.467
9.72,31978.4,34726.0,-0.1159,-0.6743,139.0,98.3,0.467
9.74,31813.3,34785.5,-1.034,-0.5282,139.0,98.3,0.467
9.76,31812.7,34747.8,-1.0373,-0.6207,139.0,98.3,0.467
9.78,31806.0,34635.6,-1.0748,-0.8961,139.0,98.3,0.467
9.8,31823.1,34630.3,-0.9795,-0.9091,139.0,98.3,0.467
9.82,31818.3,34655.5,-1.0063,-0.8473,139.0,98.3,0.467
9.84,31833.0,34470.1,-0.9245,-1.3024,139.0,98.3,0.467
9.86,31772.8,34423.9,-1.2595,-1.4159,139.0,98.3,0.467
9.88,31840.5,34476.9,-0.883,-1.2856,139.0,98.3,0.467
9.9,31919.7,34683.0,-0.4423,-0.7798,139.0,98.3,0.467
9.92,31994.4,35041.2,-0.0274,0.0993,139.0,98.3,0.467
9.94,32209.5,35271.2,1.1688,0.6639,139.0,98.3,0.467
9.96,32306.2,35690.9,1.7066,1.6941,139.0,98.3,0.467
9.98,32382.9,35728.6,2.1333,1.7866,139.0,98.3,0.467
10.0,32241.1,35707.8,1.3443,1.7356,139.0,98.3,0.467
10.02,32272.9,35668.7,1.5215,1.6396,139.0,98.3,0.467
10.04,32103.4,35289.7,0.579,0.7094,139.0,98.3,0.467
10.06,32131.0,35242.2,0.7326,0.5927,139.0,98.3,0.467
10.08,32099.1,35131.6,0.5551,0.3212,139.0,98.3,0.467
10.1,31988.6,35089.8,-0.0595,0.2188,139.0,98.3,0.467
10.12,31886.0,35020.7,-0.6299,0.0491,139.0,98.3,0.467
10.14,32056.5,34866.0,0.3181,-0.3307,139.0,98.3,0.467
10.16,31854.1,34720.5,-0.8073,-0.6879,139.0,98.3,0.467
10.18,31932.7,34716.7,-0.3702,-0.6971,139.0,98.3,0.467
10.2,31733.3,34683.8,-1.479,-0.7778,139.0,98.3,0.467
10.22,31831.1,34674.1,-0.935,-0.8017,139.0,98.3,0.467
10.24,31820.1,34555.9,-0.9964,-1.0919,139.0,98.3,0.467
10.26,31867.3,34587.3,-0.7337,-1.0148,139.0,98.3,0.467
10.28,31801.0,34489.2,-1.1025,-1.2555,139.0,98.3,0.467
10.3,31728.3,34438.1,-1.507,-1.381,139.0,98.3,0.467
10.32,31863.6,34528.9,-0.7542,-1.1582,139.0,98.3,0.467
10.34,31888.8,34694.5,-0.6142,-0.7517,139.0,98.3,0.467
10.36,31955.8,35177.1,-0.242,0.433,139.0,98.3,0.467
10.38,32249.4,35421.7,1.3905,1.0334,139.0,98.3,0.467
10.4,32303.2,35675.2,1.6897,1.6557,139.0,98.3,0.467
10.42,32261.0,35805.8,1.4553,1.9761,139.0,98.3,0.467
10.44,32266.7,35618.1,1.4872,1.5155,139.0,98.3,0.467
10.46,32160.1,35374.8,0.894,0.9183,139.0,98.3,0.467
10.48,32140.2,35292.1,0.7838,0.7153,139.0,98.3,0.467
10.5,32076.3,35207.4,0.4282,0.5073,139.0,98.3,0.467
10.52,32069.1,35158.9,0.3879,0.3883,139.0,98.3,0.467
10.54,31961.0,35113.2,-0.2126,0.2761,139.0,98.3,0.467
10.56,32016.9,34992.7,0.0979,-0.0196,139.0,98.3,0.467
10.58,31983.5,34909.0,-0.0876,-0.225,139.0,98.3,0.467
10.6,31961.8,34789.4,-0.2084,-0.5186,139.0,98.3,0.467
10.62,31934.0,34637.5,-0.3631,-0.8916,139.0,98.3,0.467
10.64,31855.8,34664.9,-0.7976,-0.8242,139.0,98.3,0.467
10.66,31848.6,34666.9,-0.8376,-0.8194,139.0,98.3,0.467
10.68,31900.2,34611.2,-0.5507,-0.9561,139.0,98.3,0.467
10.7,31786.3,34555.2,-1.1844,-1.0936,139.0,98.3,0.467
10.72,31738.6,34405.5,-1.4496,-1.4611,139.0,98.3,0.467
10.74,31794.6,34487.5,-1.138,-1.2597,139.0,98.3,0.467
10.76,31782.2,34619.7,-1.2072,-0.9353,139.0,98.3,0.467
10.78,31915.3,34885.7,-0.4671,-0.2823,139.0,98.3,0.467
10.8,32020.4,35296.5,0.1172,0.7261,139.0,98.3,0.467
10.82,32225.5,35573.3,1.2577,1.4055,139.0,98.3,0.467
10.84,32308.2,35732.2,1.7174,1.7955,139.0,98.3,0.467
10.86,32328.9,35760.7,1.8325,1.8655,139.0,98.3,0.467
10.88,32194.3,35697.9,1.0841,1.7112,139.0,98.3,0.467
10.9,32122.4,35403.5,0.6848,0.9885,139.0,98.3,0.467
10.92,32053.8,35253.0,0.3032,0.6192,139.0,98.3,0.467
10.94,31994.2,35117.0,-0.0281,0.2854,139.0,98.3,0.467
10.96,32092.0,35040.1,0.5156,0.0966,139.0,98.3,0.467
10.98,32056.6,34963.7,0.3184,-0.0908,139.0,98.3,0.467
11.0,31871.1,34911.6,-0.7129,-0.2187,139.0,98.3,0.467
11.02,31861.3,34820.5,-0.7675,-0.4422,139.0,98.3,0.467
11.04,31923.9,34805.5,-0.419,-0.4791,139.0,98.3,0.467
11.06,31880.7,34726.1,-0.6591,-0.6741,139.0,98.3,0.467
11.08,31931.4,34729.4,-0.3776,-0.666,139.0,98.3,0.467
11.1,31816.0,34674.6,-1.0191,-0.8003,139.0,98.3,0.467
11.12,31786.1,34653.9,-1.1855,-0.8512,139.0,98.3,0.467
11.14,31772.6,34535.0,-1.2605,-1.1431,139.0,98.3,0.467
11.16,31709.8,34408.6,-1.6098,-1.4533,139.0,98.3,0.467
11.18,31774.3,34484.8,-1.2508,-1.2663,139.0,98.3,0.467
11.2,31841.8,34725.2,-0.8757,-0.6763,139.0,98.3,0.467
11.22,31968.8,34992.5,-0.1695,-0.0201,139.0,98.3,0.467
11.24,32214.9,35320.2,1.1986,0.7841,139.0,98.3,0.467
11.26,32329.7,35633.5,1.837,1.5532,139.0,98.3,0.467
11.28,32245.0,35749.3,1.3661,1.8374,139.0,98.3,0.467
11.3,32340.9,35636.2,1.8993,1.5597,139.0,98.3,0.467
11.32,32189.0,35495.2,1.0549,1.2138,139.0,98.3,0.467
11.34,32235.0,35212.5,1.3104,0.52,139.0,98.3,0.467
11.36,32031.3,35158.7,0.1779,0.3879,139.0,98.3,0.467
11.38,32083.2,34989.3,0.4668,-0.0281,139.0,98.3,0.467
11.4,32062.4,35074.2,0.3509,0.1803,139.0,98.3,0.467
11.42,31949.2,35030.7,-0.2783,0.0736,139.0,98.3,0.467
11.44,31945.0,34957.9,-0.3021,-0.1051,139.0,98.3,0.467
11.46,31955.3,34728.3,-0.2443,-0.6687,139.0,98.3,0.467
11.48,31857.8,34757.4,-0.787,-0.5972,139.0,98.3,0.467
11.5,31905.4,34654.5,-0.5222,-0.8497,139.0,98.3,0.467
11.52,31917.9,34629.9,-0.4524,-0.9102,139.0,98.3,0.467
11.54,31867.2,34642.9,-0.7347,-0.8783,139.0,98.3,0.467
11.56,31823.1,34554.5,-0.9797,-1.0952,139.0,98.3,0.467
11.58,31743.4,34441.5,-1.4228,-1.3726,139.0,98.3,0.467
11.6,31760.8,34502.2,-1.3259,-1.2236,139.0,98.3,0.467
11.62,31862.0,34561.9,-0.7635,-1.0772,139.0,98.3,0.467
11.64,31869.1,34863.8,-0.7237,-0.3361,139.0,98.3,0.467
11.66,32123.8,35245.7,0.6921,0.6014,139.0,98.3,0.467
11.68,32205.1,35518.9,1.1443,1.2719,139.0,98.3,0.467
11.7,32206.7,35665.9,1.153,1.6328,139.0,98.3,0.467
11.72,32375.6,35696.7,2.0925,1.7084,139.0,98.3,0.467
11.74,32252.2,35597.2,1.4064,1.464,139.0,98.3,0.467
11.76,32107.9,35515.5,0.6038,1.2636,139.0,98.3,0.467
11.78,32085.1,35262.0,0.4774,0.6414,139.0,98.3,0.467
11.8,32047.4,35074.5,0.2677,0.1811,139.0,98.3,0.467
11.82,32025.9,35192.4,0.1477,0.4705,139.0,98.3,0.467
11.84,32054.6,35111.1,0.3074,0.271,139.0,98.3,0.467
11.86,32057.3,34925.0,0.3226,-0.1859,139.0,98.3,0.467
11.88,31902.1,34787.1,-0.5404,-0.5243,139.0,98.3,0.467
11.9,31899.9,34736.7,-0.5527,-0.6479,139.0,98.3,0.467
11.92,31893.3,34728.0,-0.5895,-0.6694,139.0,98.3,0.467
11.94,31848.3,34657.3,-0.8395,-0.843,139.0,98.3,0.467
11.96,31864.5,34565.0,-0.7495,-1.0695,139.0,98.3,0.467
11.98,31870.2,34730.2,-0.7176,-0.6639,139.0,98.3,0.467
12.0,31749.1,34531.9,-1.391,-1.1507,139.0,98.3,0.467
12.02,31840.4,34429.5,-0.8832,-1.4021,139.0,98.3,0.467
12.04,31674.0,34463.1,-1.8087,-1.3196,139.0,98.3,0.467
12.06,31883.8,34656.6,-0.6421,-0.8445,139.0,98.3,0.467
12.08,32011.5,34925.2,0.0677,-0.1854,139.0,98.3,0.467
12.1,32136.0,35236.0,0.76,0.5776,139.0,98.3,0.467
12.12,32237.9,35680.0,1.3269,1.6673,139.0,98.3,0.467
12.14,32356.1,35805.1,1.9842,1.9744,139.0,98.3,0.467
12.16,32272.6,35733.0,1.5198,1.7975,139.0,98.3,0.467
12.18,32216.9,35585.7,1.2101,1.4358,139.0,98.3,0.467
12.2,32123.2,35399.8,0.6891,0.9796,139.0,98.3,0.467
12.22,32140.0,35223.8,0.7823,0.5475,139.0,98.3,0.467
12.24,32060.0,35150.9,0.3374,0.3688,139.0,98.3,0.467
12.26,32037.4,35124.1,0.2117,0.3028,139.0,98.3,0.467
12.28,31925.9,35025.9,-0.4083,0.0619,139.0,98.3,0.467
12.3,31963.8,34896.4,-0.1972,-0.2561,139.0,98.3,0.467
12.32,31975.3,34766.5,-0.1335,-0.575,139.0,98.3,0.467
12.34,31804.9,34631.8,-1.0806,-0.9055,139.0,98.3,0.467
12.36,31953.2,34650.1,-0.2565,-0.8605,139.0,98.3,0.467
12.38,31882.7,34599.2,-0.648,-0.9856,139.0,98.3,0.467
12.4,31885.2,34594.4,-0.6342,-0.9972,139.0,98.3,0.467
12.42,31740.1,34534.6,-1.4414,-1.1441,139.0,98.3,0.467
12.44,31739.0,34491.2,-1.4473,-1.2506,139.0,98.3,0.467
12.46,31757.8,34450.2,-1.3428,-1.3513,139.0,98.3,0.467
12.48,31808.6,34417.7,-1.0603,-1.4309,139.0,98.3,0.467
12.5,32045.7,34799.9,0.2581,-0.4928,139.0,98.3,0.467
12.52,32038.3,35194.1,0.2168,0.4747,139.0,98.3,0.467
12.54,32193.1,35494.1,1.0774,1.2111,139.0,98.3,0.467
12.56,32273.2,35719.9,1.5228,1.7653,139.0,98.3,0.467
12.58,32331.0,35793.1,1.8446,1.9451,139.0,98.3,0.467
12.6,32268.6,35623.8,1.4975,1.5293,139.0,98.3,0.467
12.62,32180.7,35549.0,1.0089,1.3457,139.0,98.3,0.467
12.64,32093.8,35250.2,0.5257,0.6124,139.0,98.3,0.467
12.66,32074.9,35077.6,0.4205,0.1887,139.0,98.3,0.467
12.68,32097.8,35123.5,0.548,0.3015,139.0,98.3,0.467
12.7,32004.8,35099.0,0.0305,0.2414,139.0,98.3,0.467
12.72,31969.7,35014.7,-0.1645,0.0343,139.0,98.3,0.467
12.74,31995.4,34855.7,-0.0214,-0.3559,139.0,98.3,0.467
12.76,31953.2,34733.4,-0.2561,-0.6562,139.0,98.3,0.467
12.78,31874.2,34657.1,-0.6956,-0.8433,139.0,98.3,0.467
12.8,31878.3,34698.2,-0.6725,-0.7425,139.0,98.3,0.467
12.82,31872.6,34718.1,-0.7044,-0.6936,139.0,98.3,0.467
12.84,31789.6,34554.4,-1.166,-1.0954,139.0,98.3,0.467
12.86,31828.5,34497.0,-0.9497,-1.2363,139.0,98.3,0.467
12.88,31891.5,34472.0,-0.5991,-1.2978,139.0,98.3,0.467
12.9,31740.1,34438.9,-1.4412,-1.3789,139.0,98.3,0.467
12.92,31838.9,34704.6,-0.8919,-0.7267,139.0,98.3,0.467
12.94,31891.1,34946.7,-0.6013,-0.1326,139.0,98.3,0.467
12.96,32084.8,35300.2,0.4756,0.735,139.0,98.3,0.467
12.98,32264.1,35529.0,1.4724,1.2968,139.0,98.3,0.467
13.0,32306.2,35676.5,1.7064,1.6588,139.0,98.3,0.467
13.02,32167.9,35712.1,0.9373,1.7462,139.0,98.3,0.467
13.04,32200.4,35584.4,1.118,1.4326,139.0,98.3,0.467
13.06,32222.8,35419.8,1.2429,1.0288,139.0,98.3,0.467
13.08,32108.8,35166.3,0.6089,0.4064,139.0,98.3,0.467
13.1,32005.3,35178.3,0.0337,0.4359,139.0,98.3,0.467
13.12,31984.9,35117.5,-0.0798,0.2867,139.0,98.3,0.467
13.14,32001.7,35144.8,0.0134,0.3537,139.0,98.3,0.467
13.16,32054.9,35001.3,0.3094,0.0015,139.0,98.3,0.467
13.18,31940.5,34785.6,-0.3271,-0.528,139.0,98.3,0.467
13.2,31845.7,34696.8,-0.854,-0.746,139.0,98.3,0.467
13.22,31788.1,34714.1,-1.1743,-0.7034,139.0,98.3,0.467
13.24,31828.7,34668.6,-0.9487,-0.8152,139.0,98.3,0.467
13.26,31869.4,34639.1,-0.722,-0.8876,139.0,98.3,0.467
13.28,31801.4,34586.1,-1.1002,-1.0177,139.0,98.3,0.467
13.3,31827.5,34578.5,-0.955,-1.0363,139.0,98.3,0.467
13.32,31724.6,34430.9,-1.5276,-1.3987,139.0,98.3,0.467
13.34,31751.5,34623.5,-1.3775,-0.9258,139.0,98.3,0.467
13.36,31877.9,34624.7,-0.6748,-0.9229,139.0,98.3,0.467
13.38,31897.7,35091.7,-0.5648,0.2233,139.0,98.3,0.467
13.4,32218.7,35450.4,1.2202,1.1038,139.0,98.3,0.467
13.42,32133.9,35807.9,0.7484,1.9811,139.0,98.3,0.467
13.44,32344.4,35784.9,1.9191,1.9248,139.0,98.3,0.467
13.46,32281.4,35591.9,1.5687,1.4511,139.0,98.3,0.467
13.48,32247.9,35453.9,1.3821,1.1124,139.0,98.3,0.467
13.5,32130.6,35320.2,0.73,0.7843,139.0,98.3,0.467
13.52,32118.6,35087.0,0.6634,0.2118,139.0,98.3,0.467
13.54,32092.4,35168.1,0.5176,0.4108,139.0,98.3,0.467
13.56,31966.9,34993.8,-0.1802,-0.0169,139.0,98.3,0.467
13.58,32045.7,34955.8,0.2581,-0.1103,139.0,98.3,0.467
13.6,32010.5,34926.4,0.0625,-0.1824,139.0,98.3,0.467
13.62,31930.9,34809.8,-0.3804,-0.4686,139.0,98.3,0.467
13.64,31841.7,34695.1,-0.8763,-0.7502,139.0,98.3,0.467
13.66,31776.2,34582.5,-1.2405,-1.0264,139.0,98.3,0.467
13.68,31777.1,34652.0,-1.2352,-0.856,139.0,98.3,0.467
13.7,31854.2,34659.4,-0.8065,-0.8377,139.0,98.3,0.467
13.72,31916.1,34518.4,-0.4625,-1.1839,139.0,98.3,0.467
13.74,31725.4,34408.1,-1.523,-1.4546,139.0,98.3,0.467
13.76,31715.0,34472.8,-1.5809,-1.2957,139.0,98.3,0.467
13.78,31757.1,34555.4,-1.3468,-1.0931,139.0,98.3,0.467
13.8,31916.1,34791.5,-0.4625,-0.5134,139.0,98.3,0.467
13.82,32010.6,35153.8,0.0629,0.3759,139.0,98.3,0.467
13.84,32299.0,35491.4,1.6666,1.2044,139.0,98.3,0.467
13.86,32302.1,35769.7,1.6837,1.8874,139.0,98.3,0.467
13.88,32341.9,35687.3,1.9048,1.6852,139.0,98.3,0.467
13.9,32235.3,35564.8,1.3124,1.3847,139.0,98.3,0.467
13.92,32165.8,35388.0,0.9257,0.9507,139.0,98.3,0.467
13.94,32116.4,35189.9,0.6515,0.4643,139.0,98.3,0.467
13.96,31969.2,35140.9,-0.1671,0.344,139.0,98.3,0.467
13.98,32057.2,35062.5,0.3219,0.1517,139.0,98.3,0.467
14.0,32006.0,34988.4,0.0372,-0.0303,139.0,98.3,0.467
14.02,31949.1,35003.1,-0.2791,0.0058,139.0,98.3,0.467
14.04,31988.7,34879.0,-0.0591,-0.2987,139.0,98.3,0.467
14.06,31901.5,34751.6,-0.5436,-0.6114,139.0,98.3,0.467
14.08,31779.0,34686.4,-1.2251,-0.7715,139.0,98.3,0.467
14.1,31845.7,34588.2,-0.854,-1.0124,139.0,98.3,0.467
14.12,31946.3,34640.9,-0.2943,-0.8832,139.0,98.3,0.467
14.14,31843.2,34638.5,-0.8681,-0.8891,139.0,98.3,0.467
14.16,31825.7,34526.6,-0.9655,-1.1636,139.0,98.3,0.467
14.18,31740.1,34376.3,-1.441,-1.5327,139.0,98.3,0.467
14.2,31755.9,34530.0,-1.3533,-1.1553,139.0,98.3,0.467
14.22,31867.6,34684.4,-0.7323,-0.7763,139.0,98.3,0.467
14.24,31940.4,35004.2,-0.3276,0.0087,139.0,98.3,0.467
14.26,32129.7,35376.4,0.7254,0.9222,139.0,98.3,0.467
14.28,32268.0,35677.7,1.4941,1.6617,139.0,98.3,0.467
14.3,32398.0,35853.3,2.2168,2.0926,139.0,98.3,0.467
14.32,32282.1,35734.4,1.5723,1.8009,139.0,98.3,0.467
14.34,32255.7,35517.7,1.4258,1.2689,139.0,98.3,0.467
14.36,32167.7,35486.7,0.9365,1.1928,139.0,98.3,0.467
14.38,32168.1,35145.9,0.9388,0.3564,139.0,98.3,0.467
14.4,32083.8,35134.1,0.4697,0.3275,139.0,98.3,0.467
14.42,31985.2,35145.8,-0.0783,0.3562,139.0,98.3,0.467
14.44,32070.0,34987.6,0.393,-0.0322,139.0,98.3,0.467
14.46,31955.9,34882.8,-0.2411,-0.2895,139.0,98.3,0.467
14.48,31879.4,34815.7,-0.6664,-0.4541,139.0,98.3,0.467
14.5,31862.9,34685.2,-0.7585,-0.7744,139.0,98.3,0.467
14.52,31815.6,34641.9,-1.0216,-0.8806,139.0,98.3,0.467
14.54,31879.2,34709.0,-0.6679,-0.7159,139.0,98.3,0.467
14.56,31791.0,34636.5,-1.1584,-0.894,139.0,98.3,0.467
14.58,31733.9,34640.3,-1.4756,-0.8847,139.0,98.3,0.467
14.6,31774.0,34480.6,-1.2529,-1.2767,139.0,98.3,0.467
14.62,31847.4,34385.7,-0.8445,-1.5097,139.0,98.3,0.467
14.64,31799.5,34514.4,-1.1109,-1.1937,139.0,98.3,0.467
14.66,31961.3,34790.8,-0.2113,-0.5153,139.0,98.3,0.467
14.68,32070.5,35161.0,0.396,0.3934,139.0,98.3,0.467
14.7,32141.0,35408.8,0.7882,1.0016,139.0,98.3,0.467
14.72,32367.8,35809.5,2.0491,1.9852,139.0,98.3,0.467
14.74,32465.5,35802.3,2.5921,1.9675,139.0,98.3,0.467
14.76,32216.6,35731.9,1.2083,1.7947,139.0,98.3,0.467
14.78,32148.8,35444.6,0.8315,1.0895,139.0,98.3,0.467
14.8,32111.9,35312.8,0.6264,0.766,139.0,98.3,0.467
14.82,31916.6,35215.3,-0.4598,0.5267,139.0,98.3,0.467
14.84,31968.9,35082.8,-0.1691,0.2015,139.0,98.3,0.467
14.86,31984.7,34956.3,-0.0812,-0.109,139.0,98.3,0.467
14.88,31982.9,34928.3,-0.0912,-0.1778,139.0,98.3,0.467
14.9,31913.7,34783.2,-0.4759,-0.5338,139.0,98.3,0.467
14.92,31899.4,34692.1,-0.5552,-0.7576,139.0,98.3,0.467
14.94,31835.2,34777.8,-0.9124,-0.5472,139.0,98.3,0.467
14.96,31898.2,34658.9,-0.5619,-0.8389,139.0,98.3,0.467
14.98,31814.8,34735.3,-1.0257,-0.6515,139.0,98.3,0.467
15.0,31846.2,34608.1,-0.8511,-0.9636,139.0,98.3,0.467
15.02,31770.0,34609.4,-1.2749,-0.9605,139.0,98.3,0.467
15.04,31694.7,34481.9,-1.6936,-1.2734,139.0,98.3,0.467
15.06,31795.4,34542.4,-1.1339,-1.1248,139.0,98.3,0.467
15.08,31809.3,34596.4,-1.0562,-0.9924,139.0,98.3,0.467
15.1,31998.0,34990.5,-0.007,-0.0249,139.0,98.3,0.467
15.12,32200.8,35218.2,1.1207,0.5338,139.0,98.3,0.467
15.14,32210.7,35578.2,1.1753,1.4176,139.0,98.3,0.467
15.16,32320.0,35744.3,1.7832,1.825,139.0,98.3,0.467
15.18,32355.1,35757.1,1.9786,1.8565,139.0,98.3,0.467
15.2,32315.4,35439.8,1.7574,1.0777,139.0,98.3,0.467
15.22,32173.7,35376.4,0.9696,0.9222,139.0,98.3,0.467
15.24,32073.2,35177.9,0.4111,0.4349,139.0,98.3,0.467
15.26,31992.9,35194.7,-0.0356,0.4761,139.0,98.3,0.467
15.28,32029.0,35087.6,0.1652,0.2133,139.0,98.3,0.467
15.3,31966.5,35028.0,-0.182,0.0671,139.0,98.3,0.467
15.32,32018.1,34937.4,0.1048,-0.1555,139.0,98.3,0.467
15.34,31841.7,34747.1,-0.8764,-0.6224,139.0,98.3,0.467
15.36,31881.6,34739.8,-0.6542,-0.6404,139.0,98.3,0.467
15.38,31767.6,34729.5,-1.2881,-0.6657,139.0,98.3,0.467
15.4,31847.9,34748.4,-0.8419,-0.6194,139.0,98.3,0.467
15.42,31881.8,34645.9,-0.653,-0.8709,139.0,98.3,0.467
15.44,31786.2,34567.4,-1.185,-1.0636,139.0,98.3,0.467
15.46,31742.0,34461.7,-1.4305,-1.323,139.0,98.3,0.467
15.48,31717.2,34531.2,-1.5685,-1.1524,139.0,98.3,0.467
15.5,31744.1,34482.9,-1.4186,-1.2711,139.0,98.3,0.467
15.52,31951.3,34702.1,-0.267,-0.733,139.0,98.3,0.467
15.54,32042.8,35098.1,0.2419,0.239,139.0,98.3,0.467
15.56,32217.6,35457.0,1.2137,1.1199,139.0,98.3,0.467
15.58,32230.3,35620.9,1.2846,1.5223,139.0,98.3,0.467
15.6,32249.2,35794.1,1.3895,1.9475,139.0,98.3,0.467
15.62,32242.6,35723.4,1.353,1.7739,139.0,98.3,0.467
15.64,32265.4,35482.6,1.4795,1.1828,139.0,98.3,0.467
15.66,32191.7,35272.6,1.0701,0.6674,139.0,98.3,0.467
15.68,31990.1,35217.9,-0.051,0.5332,139.0,98.3,0.467
15.7,32021.6,35187.8,0.1242,0.4593,139.0,98.3,0.467
15.72,32062.7,35134.0,0.3526,0.3272,139.0,98.3,0.467
15.74,31895.1,35005.3,-0.5792,0.0112,139.0,98.3,0.467
15.76,31875.4,34807.0,-0.6889,-0.4754,139.0,98.3,0.467
15.78,31872.8,34781.2,-0.7034,-0.5388,139.0,98.3,0.467
15.8,31799.5,34718.2,-1.111,-0.6933,139.0,98.3,0.467
15.82,31801.7,34659.4,-1.0988,-0.8378,139.0,98.3,0.467
15.84,31785.3,34731.9,-1.1898,-0.6599,139.0,98.3,0.467
15.86,31826.5,34661.2,-0.9606,-0.8334,139.0,98.3,0.467
15.88,31866.0,34506.4,-0.741,-1.2132,139.0,98.3,0.467
15.9,31765.8,34448.9,-1.298,-1.3543,139.0,98.3,0.467
15.92,31745.0,34516.7,-1.4137,-1.1881,139.0,98.3,0.467
15.94,31917.8,34573.0,-0.4533,-1.0499,139.0,98.3,0.467
15.96,31917.7,34906.8,-0.4537,-0.2305,139.0,98.3,0.467
15.98,32074.4,35166.2,0.4175,0.4061,139.0,98.3,0.467
16.0,32134.0,35548.7,0.7493,1.3451,139.0,98.3,0.467
16.02,32329.9,35784.8,1.8384,1.9247,139.0,98.3,0.467
16.04,32286.1,35712.4,1.5949,1.7468,139.0,98.3,0.467
16.06,32177.7,35613.9,0.992,1.5051,139.0,98.3,0.467
16.08,32203.9,35341.4,1.1376,0.8362,139.0,98.3,0.467
16.1,32108.2,35180.4,0.6056,0.441,139.0,98.3,0.467
16.12,32048.2,35139.0,0.2719,0.3394,139.0,98.3,0.467
16.14,31994.9,35143.4,-0.0241,0.3502,139.0,98.3,0.467
16.16,32032.8,35146.8,0.1863,0.3585,139.0,98.3,0.467
16.18,31987.8,34916.1,-0.0639,-0.2076,139.0,98.3,0.467
16.2,31875.0,34813.0,-0.6913,-0.4606,139.0,98.3,0.467
16.22,31883.2,34743.6,-0.6456,-0.6311,139.0,98.3,0.467
16.24,31828.7,34748.8,-0.9486,-0.6182,139.0,98.3,0.467
16.26,31915.4,34704.3,-0.4666,-0.7275,139.0,98.3,0.467
16.28,31963.3,34643.1,-0.2002,-0.8779,139.0,98.3,0.467
16.3,31844.5,34575.5,-0.8607,-1.0436,139.0,98.3,0.467
16.32,31898.1,34456.0,-0.5627,-1.337,139.0,98.3,0.467
16.34,31829.7,34375.8,-0.943,-1.5339,139.0,98.3,0.467
16.36,31850.2,34533.3,-0.829,-1.1473,139.0,98.3,0.467
16.38,31901.7,34703.1,-0.5427,-0.7305,139.0,98.3,0.467
16.4,32021.3,34987.1,0.1223,-0.0335,139.0,98.3,0.467
16.42,32096.0,35466.4,0.5376,1.1429,139.0,98.3,0.467
16.44,32257.8,35614.8,1.4376,1.5074,139.0,98.3,0.467
16.46,32333.1,35749.7,1.8563,1.8384,139.0,98.3,0.467
16.48,32239.2,35778.9,1.3338,1.9101,139.0,98.3,0.467
16.5,32251.9,35527.6,1.4044,1.2932,139.0,98.3,0.467
16.52,32178.6,35416.4,0.997,1.0203,139.0,98.3,0.467
16.54,31991.3,35197.7,-0.0444,0.4834,139.0,98.3,0.467
16.56,32043.8,35210.7,0.2474,0.5154,139.0,98.3,0.467
16.58,32041.0,35093.4,0.2319,0.2275,139.0,98.3,0.467
16.6,31949.7,34947.5,-0.2755,-0.1305,139.0,98.3,0.467
16.62,32012.5,34851.0,0.0737,-0.3674,139.0,98.3,0.467
16.64,31860.0,34831.6,-0.7743,-0.415,139.0,98.3,0.467
16.66,31949.0,34720.0,-0.2798,-0.6891,139.0,98.3,0.467
16.68,31811.7,34601.2,-1.0428,-0.9807,139.0,98.3,0.467
16.7,31855.1,34631.8,-0.8015,-0.9055,139.0,98.3,0.467
16.72,31837.1,34709.0,-0.9018,-0.7159,139.0,98.3,0.467
16.74,31782.2,34530.2,-1.2069,-1.155,139.0,98.3,0.467
16.76,31800.2,34368.7,-1.1067,-1.5512,139.0,98.3,0.467
16.78,31747.9,34443.7,-1.3978,-1.3672,139.0,98.3,0.467
16.8,31872.6,34671.0,-0.7043,-0.8094,139.0,98.3,0.467
16.82,31825.4,34829.7,-0.9671,-0.4198,139.0,98.3,0.467
16.84,32085.7,35111.9,0.4802,0.2729,139.0,98.3,0.467
16.86,32180.3,35524.5,1.0066,1.2856,139.0,98.3,0.467
16.88,32441.8,35795.0,2.4608,1.9495,139.0,98.3,0.467
16.9,32349.2,35807.0,1.9456,1.979,139.0,98.3,0.467
16.92,32179.4,35594.6,1.0012,1.4576,139.0,98.3,0.467
16.94,32249.5,35360.9,1.3911,0.8842,139.0,98.3,0.467
16.96,32084.1,35300.5,0.4717,0.7357,139.0,98.3,0.467
16.98,32060.2,35186.8,0.339,0.4567,139.0,98.3,0.467
17.0,32090.8,35105.8,0.5089,0.258,139.0,98.3,0.467
17.02,32066.2,35077.4,0.3723,0.1883,139.0,98.3,0.467
17.04,31888.9,34971.8,-0.6136,-0.0708,139.0,98.3,0.467
17.06,31916.6,34828.0,-0.4599,-0.4239,139.0,98.3,0.467
17.08,31941.7,34808.1,-0.3201,-0.4729,139.0,98.3,0.467
17.1,31851.7,34723.2,-0.8204,-0.6811,139.0,98.3,0.467
17.12,31843.4,34722.0,-0.8666,-0.6841,139.0,98.3,0.467
17.14,31904.5,34662.4,-0.5268,-0.8303,139.0,98.3,0.467
17.16,31782.2,34528.1,-1.207,-1.16,139.0,98.3,0.467
17.18,31778.9,34575.0,-1.2252,-1.0449,139.0,98.3,0.467
17.2,31722.9,34498.5,-1.5367,-1.2328,139.0,98.3,0.467
17.22,31683.8,34468.2,-1.7542,-1.307,139.0,98.3,0.467
17.24,31804.8,34632.1,-1.0815,-0.9047,139.0,98.3,0.467
17.26,31940.2,34950.1,-0.3287,-0.1242,139.0,98.3,0.467
17.28,32148.9,35310.8,0.832,0.7611,139.0,98.3,0.467
17.3,32211.2,35603.6,1.1786,1.4799,139.0,98.3,0.467
17.32,32379.1,35785.1,2.1121,1.9252,139.0,98.3,0.467
17.34,32278.9,35654.9,1.555,1.6057,139.0,98.3,0.467
17.36,32285.7,35669.4,1.5927,1.6414,139.0,98.3,0.467
17.38,32176.8,35389.0,0.9869,0.953,139.0,98.3,0.467
17.4,32160.7,35222.3,0.8978,0.544,139.0,98.3,0.467
17.42,32175.2,35131.3,0.9783,0.3205,139.0,98.3,0.467
17.44,32084.8,35115.6,0.4753,0.282,139.0,98.3,0.467
17.46,31980.0,34952.9,-0.1072,-0.1172,139.0,98.3,0.467
17.48,32021.5,34898.3,0.1237,-0.2514,139.0,98.3,0.467
17.5,31975.4,34902.0,-0.133,-0.2422,139.0,98.3,0.467
17.52,31893.8,34712.9,-0.5868,-0.7064,139.0,98.3,0.467
17.54,31858.4,34683.2,-0.7831,-0.7794,139.0,98.3,0.467
17.56,31881.0,34640.0,-0.6575,-0.8853,139.0,98.3,0.467
17.58,31838.0,34591.7,-0.8965,-1.0039,139.0,98.3,0.467
17.6,31946.0,34602.5,-0.2962,-0.9774,139.0,98.3,0.467
17.62,31790.7,34588.2,-1.1598,-1.0125,139.0,98.3,0.467
17.64,31815.9,34496.1,-1.0196,-1.2385,139.0,98.3,0.467
17.66,31897.8,34494.9,-0.5641,-1.2415,139.0,98.3,0.467
17.68,31986.1,34788.1,-0.0735,-0.5218,139.0,98.3,0.467
17.7,31982.6,35103.4,-0.0929,0.2521,139.0,98.3,0.467
17.72,32199.2,35388.5,1.1115,0.9519,139.0,98.3,0.467
17.74,32241.4,35682.8,1.346,1.6741,139.0,98.3,0.467
17.76,32308.7,35779.7,1.7207,1.9121,139.0,98.3,0.467
17.78,32224.4,35713.5,1.2519,1.7495,139.0,98.3,0.467
17.8,32271.7,35547.8,1.515,1.343,139.0,98.3,0.467
17.82,32149.5,35346.7,0.835,0.8492,139.0,98.3,0.467
17.84,32106.3,35133.1,0.5952,0.325,139.0,98.3,0.467
17.86,32094.5,35038.6,0.5292,0.093,139.0,98.3,0.467
17.88,31981.1,35086.6,-0.1012,0.2108,139.0,98.3,0.467
17.9,32023.0,34951.6,0.1317,-0.1206,139.0,98.3,0.467
17.92,32025.9,34869.3,0.1481,-0.3225,139.0,98.3,0.467
17.94,31804.7,34739.7,-1.0819,-0.6406,139.0,98.3,0.467
17.96,31923.4,34826.2,-0.4219,-0.4284,139.0,98.3,0.467
17.98,31921.9,34617.6,-0.4301,-0.9403,139.0,98.3,0.467
18.0,31812.6,34699.1,-1.038,-0.7402,139.0,98.3,0.467
18.02,31826.4,34566.9,-0.9611,-1.0649,139.0,98.3,0.467
18.04,31790.0,34585.9,-1.1636,-1.0182,139.0,98.3,0.467
18.06,31798.0,34509.1,-1.1193,-1.2068,139.0,98.3,0.467
18.08,31748.1,34428.2,-1.3967,-1.4053,139.0,98.3,0.467
18.1,31882.4,34619.9,-0.6502,-0.9346,139.0,98.3,0.467
18.12,31907.6,34862.1,-0.5099,-0.3403,139.0,98.3,0.467
18.14,32055.4,35158.9,0.3119,0.3882,139.0,98.3,0.467
18.16,32244.4,35530.0,1.363,1.2992,139.0,98.3,0.467
18.18,32321.9,35857.5,1.7938,2.103,139.0,98.3,0.467
18.2,32350.0,35820.3,1.9503,2.0117,139.0,98.3,0.467
18.22,32195.7,35597.9,1.092,1.4658,139.0,98.3,0.467
18.24,32165.6,35401.2,0.9247,0.9831,139.0,98.3,0.467
18.26,32076.5,35288.4,0.4292,0.7062,139.0,98.3,0.467
18.28,32027.3,35153.8,0.1557,0.3758,139.0,98.3,0.467
18.3,32036.2,35105.4,0.205,0.257,139.0,98.3,0.467
18.32,31977.1,35134.3,-0.1231,0.3279,139.0,98.3,0.467
18.34,31945.2,34981.5,-0.3009,-0.0472,139.0,98.3,0.467
18.36,31831.6,34875.3,-0.9323,-0.3079,139.0,98.3,0.467
18.38,31920.0,34696.0,-0.4407,-0.7478,139.0,98.3,0.467
18.4,31852.4,34664.7,-0.817,-0.8247,139.0,98.3,0.467
18.42,31850.3,34681.3,-0.8284,-0.784,139.0,98.3,0.467
18.44,31880.8,34661.3,-0.6587,-0.8331,139.0,98.3,0.467
18.46,31882.2,34546.7,-0.6508,-1.1143,139.0,98.3,0.467
18.48,31753.8,34592.9,-1.365,-1.001,139.0,98.3,0.467
18.5,31741.1,34456.5,-1.4356,-1.3358,139.0,98.3,0.467
18.52,31812.6,34500.2,-1.038,-1.2285,139.0,98.3,0.467
18.54,31865.2,34673.6,-0.7458,-0.8028,139.0,98.3,0.467
18.56,32002.9,35041.4,0.02,0.0999,139.0,98.3,0.467
18.58,32180.6,35378.4,1.0081,0.9271,139.0,98.3,0.467
18.6,32249.4,35633.8,1.3906,1.5539,139.0,98.3,0.467
18.62,32328.6,35787.7,1.8311,1.9316,139.0,98.3,0.467
18.64,32222.0,35685.2,1.2383,1.6801,139.0,98.3,0.467
18.66,32294.7,35479.7,1.6428,1.1757,139.0,98.3,0.467
18.68,32074.1,35323.5,0.4158,0.7924,139.0,98.3,0.467
18.7,32028.2,35190.6,0.1608,0.4662,139.0,98.3,0.467
18.72,32071.0,35097.5,0.399,0.2377,139.0,98.3,0.467
18.74,32111.1,35129.6,0.6217,0.3164,139.0,98.3,0.467
18.76,31912.5,34982.8,-0.4825,-0.0439,139.0,98.3,0.467
18.78,31901.9,34964.3,-0.5413,-0.0894,139.0,98.3,0.467
18.8,31859.1,34745.0,-0.7797,-0.6276,139.0,98.3,0.467
18.82,31914.0,34699.0,-0.4743,-0.7406,139.0,98.3,0.467
18.84,31847.5,34633.9,-0.8442,-0.9004,139.0,98.3,0.467
18.86,31886.6,34683.5,-0.6267,-0.7786,139.0,98.3,0.467
18.88,31752.9,34705.9,-1.3699,-0.7236,139.0,98.3,0.467
18.9,31859.7,34632.7,-0.7759,-0.9034,139.0,98.3,0.467
18.92,31842.6,34422.4,-0.8715,-1.4194,139.0,98.3,0.467
18.94,31761.6,34488.7,-1.3217,-1.2567,139.0,98.3,0.467
18.96,31824.9,34602.1,-0.9695,-0.9783,139.0,98.3,0.467
18.98,31973.0,34829.8,-0.1462,-0.4196,139.0,98.3,0.467
19.0,32010.7,35218.7,0.0635,0.5352,139.0,98.3,0.467
19.02,32328.1,35537.7,1.8286,1.318,139.0,98.3,0.467
19.04,32313.0,35735.5,1.7443,1.8035,139.0,98.3,0.467
19.06,32287.0,35728.2,1.5995,1.7856,139.0,98.3,0.467
19.08,32232.4,35610.8,1.2964,1.4976,139.0,98.3,0.467
19.1,32112.4,35449.8,0.6291,1.1023,139.0,98.3,0.467
19.12,32063.6,35230.5,0.3576,0.5639,139.0,98.3,0.467
19.14,32050.7,35038.9,0.2861,0.0938,139.0,98.3,0.467
19.16,32031.7,35036.6,0.1804,0.0881,139.0,98.3,0.467
19.18,31956.5,35065.6,-0.238,0.1593,139.0,98.3,0.467
19.2,31971.1,34967.0,-0.1567,-0.0828,139.0,98.3,0.467
19.22,31895.6,34805.8,-0.5767,-0.4783,139.0,98.3,0.467
19.24,31875.3,34741.7,-0.6892,-0.6358,139.0,98.3,0.467
19.26,31852.5,34748.7,-0.816,-0.6187,139.0,98.3,0.467
19.28,31888.0,34686.5,-0.6188,-0.7713,139.0,98.3,0.467
19.3,31819.7,34675.9,-0.9988,-0.7973,139.0,98.3,0.467
19.32,31816.0,34601.1,-1.0189,-0.9808,139.0,98.3,0.467
19.34,31863.4,34479.4,-0.7555,-1.2797,139.0,98.3,0.467
19.36,31766.0,34560.8,-1.2974,-1.0796,139.0,98.3,0.467
19.38,31748.8,34469.5,-1.3927,-1.3038,139.0,98.3,0.467
19.4,31811.1,34590.7,-1.0464,-1.0064,139.0,98.3,0.467
19.42,32018.5,34934.9,0.1066,-0.1615,139.0,98.3,0.467
19.44,32202.7,35326.3,1.1313,0.7992,139.0,98.3,0.467
19.46,32286.2,35675.2,1.5952,1.6555,139.0,98.3,0.467
19.48,32297.6,35854.9,1.6584,2.0967,139.0,98.3,0.467
19.5,32315.6,35782.8,1.7587,1.9197,139.0,98.3,0.467
19.52,32176.5,35544.6,0.9852,1.335,139.0,98.3,0.467
19.54,32173.8,35387.4,0.9706,0.9491,139.0,98.3,0.467
19.56,31980.2,35245.2,-0.1061,0.6,139.0,98.3,0.467
19.58,32126.3,35152.0,0.706,0.3713,139.0,98.3,0.467
19.6,31995.3,35076.4,-0.0224,0.1857,139.0,98.3,0.467
19.62,31963.8,34955.0,-0.1975,-0.1122,139.0,98.3,0.467
19.64,31964.1,34940.0,-0.1955,-0.149,139.0,98.3,0.467
19.66,31983.8,34971.0,-0.0862,-0.0729,139.0,98.3,0.467
19.68,31932.9,34683.3,-0.3692,-0.7791,139.0,98.3,0.467
19.7,31911.9,34738.6,-0.486,-0.6434,139.0,98.3,0.467
19.72,31873.4,34567.9,-0.6998,-1.0624,139.0,98.3,0.467
19.74,31796.6,34650.4,-1.1268,-0.8598,139.0,98.3,0.467
19.76,31800.7,34631.8,-1.104,-0.9055,139.0,98.3,0.467
19.78,31794.4,34433.3,-1.1392,-1.3926,139.0,98.3,0.467
19.8,31763.3,34420.9,-1.3123,-1.4232,139.0,98.3,0.467
19.82,31843.2,34475.7,-0.8678,-1.2885,139.0,98.3,0.467
19.84,31972.7,34794.2,-0.1479,-0.5069,139.0,98.3,0.467
19.86,32101.8,34984.5,0.5698,-0.0398,139.0,98.3,0.467
19.88,32212.3,35532.4,1.1845,1.305,139.0,98.3,0.467
19.9,32292.8,35736.7,1.632,1.8064,139.0,98.3,0.467
19.92,32418.6,35770.3,2.3314,1.8891,139.0,98.3,0.467
19.94,32211.9,35706.4,1.1823,1.7322,139.0,98.3,0.467
19.96,32214.5,35429.5,1.1968,1.0525,139.0,98.3,0.467
19.98,32134.5,35270.8,0.752,0.6631,139.0,98.3,0.467
20.0,32085.3,35181.3,0.4784,0.4433,139.0,98.3,0.467
20.02,32066.3,35164.2,0.3725,0.4012,139.0,98.3,0.467
20.04,31927.6,35016.4,-0.3984,0.0384,139.0,98.3,0.467
20.06,31992.9,34987.8,-0.0355,-0.0316,139.0,98.3,0.467
20.08,31916.6,34921.4,-0.4595,-0.1945,139.0,98.3,0.467
20.1,31820.2,34709.9,-0.9958,-0.7138,139.0,98.3,0.467
20.12,31869.1,34693.7,-0.7238,-0.7536,139.0,98.3,0.467
20.14,31867.5,34688.8,-0.7329,-0.7655,139.0,98.3,0.467
20.16,31992.4,34628.3,-0.0383,-0.914,139.0,98.3,0.467
20.18,31819.1,34634.2,-1.0021,-0.8995,139.0,98.3,0.467
20.2,31733.5,34491.9,-1.4776,-1.2489,139.0,98.3,0.467
20.22,31699.3,34485.1,-1.6679,-1.2656,139.0,98.3,0.467
20.24,31797.6,34472.0,-1.1215,-1.2977,139.0,98.3,0.467
20.26,31745.9,34573.8,-1.4089,-1.0477,139.0,98.3,0.467
20.28,31923.4,34944.7,-0.4221,-0.1376,139.0,98.3,0.467
20.3,32008.0,35232.1,0.0485,0.568,139.0,98.3,0.467
20.32,32220.2,35519.9,1.2282,1.2744,139.0,98.3,0.467
20.34,32348.2,35739.8,1.9402,1.8141,139.0,98.3,0.467
20.36,32421.0,35659.6,2.3449,1.6173,139.0,98.3,0.467
20.38,32206.7,35572.2,1.153,1.4027,139.0,98.3,0.467
20.4,32144.4,35374.9,0.807,0.9185,139.0,98.3,0.467
20.42,32050.9,35224.0,0.2872,0.5481,139.0,98.3,0.467
20.44,32055.4,35012.0,0.3122,0.0277,139.0,98.3,0.467
20.46,32027.0,35040.4,0.1541,0.0975,139.0,98.3,0.467
20.48,31923.7,35100.8,-0.4201,0.2457,139.0,98.3,0.467
20.5,31996.9,34897.1,-0.0134,-0.2544,139.0,98.3,0.467
20.52,31815.9,34924.6,-1.02,-0.1867,139.0,98.3,0.467
20.54,31844.9,34642.0,-0.8585,-0.8804,139.0,98.3,0.467
20.56,31859.4,34657.4,-0.7778,-0.8427,139.0,98.3,0.467
20.58,31857.7,34662.2,-0.7871,-0.8309,139.0,98.3,0.467
20.6,31753.4,34653.0,-1.3674,-0.8533,139.0,98.3,0.467
20.62,31830.5,34533.7,-0.9386,-1.1464,139.0,98.3,0.467
20.64,31744.6,34465.5,-1.4164,-1.3137,139.0,98.3,0.467
20.66,31760.0,34537.5,-1.3303,-1.1368,139.0,98.3,0.467
20.68,31786.4,34559.6,-1.1837,-1.0826,139.0,98.3,0.467
20.7,31897.5,34762.1,-0.5661,-0.5856,139.0,98.3,0.467
20.72,32051.2,34950.4,0.2885,-0.1236,139.0,98.3,0.467
20.74,32161.1,35368.0,0.8999,0.9016,139.0,98.3,0.467
20.76,32285.6,35697.0,1.5922,1.709,139.0,98.3,0.467
20.78,32320.1,35725.5,1.7836,1.7791,139.0,98.3,0.467
20.8,32350.2,35632.3,1.9511,1.5503,139.0,98.3,0.467
20.82,32251.9,35529.3,1.4045,1.2975,139.0,98.3,0.467
20.84,32169.8,35232.2,0.9479,0.5681,139.0,98.3,0.467
20.86,32099.5,35086.1,0.5571,0.2096,139.0,98.3,0.467
20.88,32045.3,35089.8,0.2561,0.2187,139.0,98.3,0.467
20.9,32038.4,35032.9,0.2175,0.079,139.0,98.3,0.467
20.92,32032.1,34999.3,0.1826,-0.0034,139.0,98.3,0.467
20.94,31936.4,34920.5,-0.3496,-0.1969,139.0,98.3,0.467
20.96,31832.3,34841.6,-0.9285,-0.3906,139.0,98.3,0.467
20.98,31870.3,34736.7,-0.717,-0.648,139.0,98.3,0.467
21.0,31865.1,34711.2,-0.7464,-0.7105,139.0,98.3,0.467
21.02,31789.9,34567.7,-1.164,-1.0629,139.0,98.3,0.467
21.04,31834.0,34668.4,-0.9189,-0.8157,139.0,98.3,0.467
21.06,31829.8,34594.9,-0.9422,-0.9961,139.0,98.3,0.467
21.08,31723.9,34542.9,-1.5314,-1.1237,139.0,98.3,0.467
21.1,31744.9,34338.4,-1.4145,-1.6256,139.0,98.3,0.467
21.12,31815.0,34599.8,-1.0247,-0.984,139.0,98.3,0.467
21.14,32008.9,34756.4,0.0536,-0.5998,139.0,98.3,0.467
21.16,32122.5,35214.9,0.6849,0.5257,139.0,98.3,0.467
21.18,32162.0,35548.7,0.9049,1.3451,139.0,98.3,0.467
21.2,32234.2,35737.6,1.3062,1.8088,139.0,98.3,0.467
21.22,32290.8,35688.4,1.6212,1.688,139.0,98.3,0.467
21.24,32326.6,35641.3,1.8198,1.5723,139.0,98.3,0.467
21.26,32068.7,35429.9,0.3857,1.0534,139.0,98.3,0.467
21.28,32136.4,35201.4,0.7624,0.4926,139.0,98.3,0.467
21.3,32050.3,35181.9,0.2837,0.4449,139.0,98.3,0.467
21.32,32017.4,35136.4,0.1007,0.3332,139.0,98.3,0.467
21.34,32038.4,35052.9,0.2176,0.128,139.0,98.3,0.467
21.36,32001.8,34913.5,0.0142,-0.2142,139.0,98.3,0.467
21.38,31952.5,34843.7,-0.2603,-0.3855,139.0,98.3,0.467
21.4,31846.5,34700.4,-0.8496,-0.7372,139.0,98.3,0.467
21.42,31929.3,34637.9,-0.3894,-0.8905,139.0,98.3,0.467
21.44,31839.4,34638.9,-0.8893,-0.888,139.0,98.3,0.467
21.46,31807.3,34739.0,-1.0676,-0.6424,139.0,98.3,0.467
21.48,31807.7,34593.9,-1.0655,-0.9984,139.0,98.3,0.467
21.5,31765.2,34449.4,-1.3016,-1.3531,139.0,98.3,0.467
21.52,31781.6,34556.2,-1.2102,-1.0911,139.0,98.3,0.467
21.54,31797.0,34470.7,-1.1249,-1.3008,139.0,98.3,0.467
21.56,31850.9,34646.8,-0.8252,-0.8686,139.0,98.3,0.467
21.58,32013.4,35015.1,0.0785,0.0352,139.0,98.3,0.467
21.6,32168.5,35350.7,0.9411,0.8591,139.0,98.3,0.467
21.62,32257.8,35678.0,1.4373,1.6625,139.0,98.3,0.467
21.64,32357.0,35744.8,1.9888,1.8263,139.0,98.3,0.467
21.66,32315.6,35565.6,1.759,1.3865,139.0,98.3,0.467
21.68,32259.0,35456.1,1.4443,1.1178,139.0,98.3,0.467
21.7,32155.6,35354.3,0.8693,0.8678,139.0,98.3,0.467
21.72,32113.8,35152.9,0.637,0.3736,139.0,98.3,0.467
21.74,32081.3,35040.8,0.4562,0.0983,139.0,98.3,0.467
21.76,32050.1,35013.6,0.2824,0.0315,139.0,98.3,0.467
21.78,31956.3,34930.4,-0.2392,-0.1726,139.0,98.3,0.467
21.8,31903.1,34942.2,-0.5346,-0.1436,139.0,98.3,0.467
21.82,31995.8,34731.4,-0.0195,-0.6609,139.0,98.3,0.467
21.84,31871.6,34845.4,-0.7102,-0.3811,139.0,98.3,0.467
21.86,31809.0,34684.6,-1.0579,-0.776,139.0,98.3,0.467
21.88,31919.3,34692.7,-0.4449,-0.7561,139.0,98.3,0.467
21.9,31869.7,34584.0,-0.7204,-1.0229,139.0,98.3,0.467
21.92,31851.9,34449.4,-0.8194,-1.3531,139.0,98.3,0.467
21.94,31783.0,34638.2,-1.2025,-0.8897,139.0,98.3,0.467
21.96,31820.0,34483.1,-0.997,-1.2705,139.0,98.3,0.467
21.98,31775.7,34650.7,-1.2435,-0.859,139.0,98.3,0.467
22.0,31818.2,34814.0,-1.0066,-0.4583,139.0,98.3,0.467
22.02,32093.3,35093.6,0.5225,0.2279,139.0,98.3,0.467
22.04,32196.8,35590.0,1.0983,1.4465,139.0,98.3,0.467
22.06,32404.3,35671.9,2.2523,1.6475,139.0,98.3,0.467
22.08,32315.8,35793.9,1.7601,1.947,139.0,98.3,0.467
22.1,32238.2,35651.5,1.3284,1.5973,139.0,98.3,0.467
22.12,32179.8,35462.2,1.0035,1.1328,139.0,98.3,0.467
22.14,32203.4,35220.1,1.1349,0.5385,139.0,98.3,0.467
22.16,32121.1,35113.3,0.6776,0.2763,139.0,98.3,0.467
22.18,32040.8,35065.4,0.2309,0.1588,139.0,98.3,0.467
22.2,32097.0,34986.4,0.5435,-0.0352,139.0,98.3,0.467
22.22,32001.8,35008.7,0.0141,0.0197,139.0,98.3,0.467
22.24,31975.7,34983.6,-0.1311,-0.0419,139.0,98.3,0.467
22.26,31895.1,34734.6,-0.5792,-0.6531,139.0,98.3,0.467
22.28,31901.9,34668.5,-0.5414,-0.8154,139.0,98.3,0.467
22.3,31890.8,34779.1,-0.6032,-0.544,139.0,98.3,0.467
22.32,31808.8,34715.6,-1.0594,-0.6999,139.0,98.3,0.467
22.34,31801.5,34585.6,-1.1,-1.019,139.0,98.3,0.467
22.36,31742.3,34556.8,-1.4289,-1.0895,139.0,98.3,0.467
22.38,31890.5,34500.5,-0.6051,-1.2277,139.0,98.3,0.467
22.4,31716.8,34385.7,-1.5708,-1.5096,139.0,98.3,0.467
22.42,31806.4,34621.9,-1.0726,-0.9298,139.0,98.3,0.467
22.44,31988.8,34944.3,-0.0581,-0.1383,139.0,98.3,0.467
22.46,32209.5,35367.4,1.169,0.9002,139.0,98.3,0.467
22.48,32263.8,35548.1,1.471,1.3435,139.0,98.3,0.467
22.5,32302.0,35705.4,1.683,1.7297,139.0,98.3,0.467
22.52,32187.6,35713.7,1.0469,1.7499,139.0,98.3,0.467
22.54,32180.9,35549.8,1.01,1.3478,139.0,98.3,0.467
22.56,32214.3,35361.9,1.1957,0.8865,139.0,98.3,0.467
22.58,32105.0,35217.6,0.588,0.5324,139.0,98.3,0.467
22.6,32001.9,35164.2,0.0144,0.4013,139.0,98.3,0.467
22.62,31998.1,35093.4,-0.0066,0.2275,139.0,98.3,0.467
22.64,32038.3,34984.4,0.2168,-0.04,139.0,98.3,0.467
22.66,31992.2,34965.7,-0.0395,-0.086,139.0,98.3,0.467
22.68,31880.4,34750.9,-0.661,-0.613,139.0,98.3,0.467
22.7,31835.8,34786.4,-0.9088,-0.526,139.0,98.3,0.467
22.72,31857.8,34653.5,-0.787,-0.8521,139.0,98.3,0.467
22.74,31910.2,34687.5,-0.4952,-0.7687,139.0,98.3,0.467
22.76,31834.2,34688.1,-0.9179,-0.7673,139.0,98.3,0.467
22.78,31786.5,34509.6,-1.1829,-1.2055,139.0,98.3,0.467
22.8,31782.1,34560.7,-1.2074,-1.08,139.0,98.3,0.467
22.82,31780.0,34486.2,-1.2191,-1.2629,139.0,98.3,0.467
22.84,31766.0,34577.0,-1.2972,-1.0399,139.0,98.3,0.467
22.86,31854.6,34728.5,-0.8044,-0.6682,139.0,98.3,0.467
22.88,31938.7,35090.7,-0.3369,0.2208,139.0,98.3,0.467
22.9,32181.5,35340.3,1.0132,0.8336,139.0,98.3,0.467
22.92,32282.6,35658.4,1.575,1.6144,139.0,98.3,0.467
22.94,32313.6,35770.4,1.7474,1.8891,139.0,98.3,0.467
22.96,32265.1,35725.0,1.4783,1.7778,139.0,98.3,0.467
22.98,32229.2,35480.0,1.2783,1.1764,139.0,98.3,0.467
23.0,32032.0,35300.0,0.1819,0.7347,139.0,98.3,0.467
23.02,32098.3,35142.1,0.5505,0.3471,139.0,98.3,0.467
23.04,32052.1,35106.5,0.2935,0.2596,139.0,98.3,0.467
23.06,32038.7,34998.0,0.219,-0.0066,139.0,98.3,0.467
23.08,32020.7,34924.9,0.1191,-0.186,139.0,98.3,0.467
23.1,31943.1,34950.5,-0.3125,-0.1231,139.0,98.3,0.467
23.12,31923.5,34813.0,-0.4212,-0.4606,139.0,98.3,0.467
23.14,31830.0,34749.5,-0.9413,-0.6167,139.0,98.3,0.467
23.16,31790.1,34659.0,-1.1633,-0.8387,139.0,98.3,0.467
23.18,31900.6,34520.2,-0.5488,-1.1795,139.0,98.3,0.467
23.2,31830.0,34663.1,-0.9415,-0.8286,139.0,98.3,0.467
23.22,31826.2,34558.0,-0.9627,-1.0866,139.0,98.3,0.467
23.24,31824.0,34482.9,-0.9748,-1.271,139.0,98.3,0.467
23.26,31744.1,34464.7,-1.4187,-1.3156,139.0,98.3,0.467
23.28,31743.7,34624.3,-1.4214,-0.9239,139.0,98.3,0.467
23.3,31828.3,34857.5,-0.9505,-0.3516,139.0,98.3,0.467
23.32,31991.6,35222.2,-0.0426,0.5436,139.0,98.3,0.467
23.34,32212.0,35514.7,1.1827,1.2617,139.0,98.3,0.467
23.36,32379.4,35734.7,2.1136,1.8016,139.0,98.3,0.467
23.38,32390.7,35767.2,2.1764,1.8814,139.0,98.3,0.467
23.4,32254.9,35645.9,1.4213,1.5836,139.0,98.3,0.467
23.42,32242.1,35377.9,1.35,0.9258,139.0,98.3,0.467
23.44,32138.7,35108.6,0.7753,0.2649,139.0,98.3,0.467
23.46,32056.6,35110.0,0.3188,0.2684,139.0,98.3,0.467
23.48,32028.5,35115.0,0.1626,0.2806,139.0,98.3,0.467
23.5,32099.9,35148.1,0.5593,0.3618,139.0,98.3,0.467
23.52,31823.4,34975.0,-0.9778,-0.063,139.0,98.3,0.467
23.54,31937.8,34836.5,-0.3421,-0.4031,139.0,98.3,0.467
23.56,31803.5,34737.2,-1.0885,-0.6468,139.0,98.3,0.467
23.58,31884.4,34628.5,-0.639,-0.9135,139.0,98.3,0.467
23.6,31803.1,34676.4,-1.0908,-0.796,139.0,98.3,0.467
23.62,31852.3,34717.5,-0.8172,-0.6953,139.0,98.3,0.467
23.64,31863.8,34536.6,-0.7533,-1.1393,139.0,98.3,0.467
23.66,31833.5,34476.5,-0.9216,-1.2867,139.0,98.3,0.467
23.68,31797.1,34448.2,-1.1244,-1.3562,139.0,98.3,0.467
23.7,31820.5,34535.6,-0.9941,-1.1417,139.0,98.3,0.467
23.72,31901.0,34743.8,-0.5467,-0.6306,139.0,98.3,0.467
23.74,31908.3,35004.3,-0.5058,0.0087,139.0,98.3,0.467
23.76,32218.4,35391.3,1.2185,0.9586,139.0,98.3,0.467
23.78,32268.2,35649.9,1.495,1.5933,139.0,98.3,0.467
23.8,32351.0,35697.3,1.9555,1.7098,139.0,98.3,0.467
23.82,32303.7,35698.7,1.6925,1.7132,139.0,98.3,0.467
23.84,32156.5,35512.6,0.8743,1.2564,139.0,98.3,0.467
23.86,32081.0,35419.6,0.4545,1.0282,139.0,98.3,0.467
23.88,32096.5,35224.9,0.5405,0.5503,139.0,98.3,0.467
23.9,31980.2,35182.9,-0.1059,0.4471,139.0,98.3,0.467
23.92,31959.7,35055.1,-0.2202,0.1336,139.0,98.3,0.467
23.94,31993.8,34970.5,-0.0303,-0.0742,139.0,98.3,0.467
23.96,31917.8,34924.3,-0.4534,-0.1875,139.0,98.3,0.467
23.98,31914.2,34780.4,-0.4731,-0.5407,139.0,98.3,0.467
24.0,31851.4,34606.5,-0.8224,-0.9676,139.0,98.3,0.467
24.02,31970.2,34702.9,-0.1615,-0.731,139.0,98.3,0.467
24.04,31862.3,34616.4,-0.7615,-0.9432,139.0,98.3,0.467
24.06,31799.6,34545.0,-1.1101,-1.1185,139.0,98.3,0.467
24.08,31844.8,34571.2,-0.8592,-1.0542,139.0,98.3,0.467
24.1,31817.4,34430.3,-1.0111,-1.4,139.0,98.3,0.467
24.12,31756.9,34492.2,-1.3478,-1.2482,139.0,98.3,0.467
24.14,31771.8,34548.7,-1.2646,-1.1094,139.0,98.3,0.467
24.16,31803.7,34800.9,-1.0878,-0.4904,139.0,98.3,0.467
24.18,32077.4,35086.6,0.4343,0.2109,139.0,98.3,0.467
24.2,32175.2,35473.6,0.978,1.1607,139.0,98.3,0.467
24.22,32380.8,35709.1,2.1211,1.7388,139.0,98.3,0.467
24.24,32293.2,35762.3,1.6342,1.8693,139.0,98.3,0.467
24.26,32316.4,35660.4,1.7633,1.6192,139.0,98.3,0.467
24.28,32216.5,35436.5,1.2075,1.0697,139.0,98.3,0.467
24.3,32150.4,35258.3,0.8401,0.6322,139.0,98.3,0.467
24.32,32085.4,35099.7,0.4789,0.2431,139.0,98.3,0.467
24.34,32050.7,35181.2,0.2857,0.4431,139.0,98.3,0.467
24.36,32006.9,35104.6,0.0426,0.2549,139.0,98.3,0.467
24.38,31996.6,34978.4,-0.0147,-0.0549,139.0,98.3,0.467
24.4,31963.6,34901.0,-0.1984,-0.2448,139.0,98.3,0.467
24.42,31911.1,34823.8,-0.4903,-0.4341,139.0,98.3,0.467
24.44,31940.5,34619.1,-0.327,-0.9367,139.0,98.3,0.467
24.46,31782.6,34629.9,-1.2048,-0.9102,139.0,98.3,0.467
24.48,31859.7,34632.2,-0.7759,-0.9045,139.0,98.3,0.467
24.5,31834.9,34640.5,-0.9141,-0.8841,139.0,98.3,0.467
24.52,31837.5,34557.3,-0.8994,-1.0883,139.0,98.3,0.467
24.54,31821.5,34468.7,-0.9883,-1.3059,139.0,98.3,0.467
24.56,31778.8,34463.9,-1.2262,-1.3176,139.0,98.3,0.467
24.58,31775.0,34655.9,-1.247,-0.8464,139.0,98.3,0.467
24.6,31905.3,34932.1,-0.5225,-0.1685,139.0,98.3,0.467
24.62,32162.9,35267.6,0.9099,0.6552,139.0,98.3,0.467
24.64,32212.9,35519.7,1.1879,1.274,139.0,98.3,0.467
24.66,32255.8,35793.8,1.4261,1.9466,139.0,98.3,0.467
24.68,32301.7,35736.4,1.6813,1.8058,139.0,98.3,0.467
24.7,32183.0,35580.0,1.0215,1.4219,139.0,98.3,0.467
24.72,32054.5,35437.0,0.3073,1.0709,139.0,98.3,0.467
24.74,31999.0,35202.0,-0.0014,0.494,139.0,98.3,0.467
24.76,32040.3,34990.4,0.228,-0.0253,139.0,98.3,0.467
24.78,32027.5,35086.8,0.1568,0.2114,139.0,98.3,0.467
24.8,32021.5,34908.5,0.1235,-0.2263,139.0,98.3,0.467
24.82,31990.5,34906.1,-0.0489,-0.2322,139.0,98.3,0.467
24.84,31953.4,34912.3,-0.2552,-0.217,139.0,98.3,0.467
24.86,31791.7,34691.4,-1.1541,-0.7592,139.0,98.3,0.467
24.88,31887.9,34744.7,-0.6192,-0.6283,139.0,98.3,0.467
24.9,31805.3,34671.6,-1.0785,-0.8078,139.0,98.3,0.467
24.92,31934.7,34650.0,-0.3589,-0.8608,139.0,98.3,0.467
24.94,31771.2,34516.6,-1.2685,-1.1883,139.0,98.3,0.467
24.96,31776.9,34521.7,-1.2363,-1.1756,139.0,98.3,0.467
24.98,31779.5,34466.0,-1.2223,-1.3124,139.0,98.3,0.467
25.0,31710.0,34512.0,-1.6086,-1.1995,139.0,98.3,0.467
25.02,31945.4,34745.0,-0.2997,-0.6276,139.0,98.3,0.467
25.04,31986.1,35104.1,-0.0731,0.2538,139.0,98.3,0.467
25.06,32181.1,35465.9,1.011,1.1419,139.0,98.3,0.467
25.08,32269.7,35714.6,1.5038,1.7523,139.0,98.3,0.467
25.1,32408.7,35739.5,2.2763,1.8134,139.0,98.3,0.467
25.12,32227.5,35665.5,1.2691,1.6318,139.0,98.3,0.467
25.14,32250.5,35541.4,1.3967,1.327,139.0,98.3,0.467
25.16,32064.1,35237.8,0.3605,0.582,139.0,98.3,0.467
25.18,32024.0,35252.1,0.1372,0.6171,139.0,98.3,0.467
25.2,31931.4,35114.3,-0.3777,0.2789,139.0,98.3,0.467
25.22,31971.7,34993.7,-0.1532,-0.0172,139.0,98.3,0.467
25.24,31975.4,35135.1,-0.1329,0.3299,139.0,98.3,0.467
25.26,31924.1,34856.3,-0.4181,-0.3545,139.0,98.3,0.467
25.28,31954.8,34737.4,-0.2475,-0.6462,139.0,98.3,0.467
25.3,31828.4,34684.8,-0.9503,-0.7754,139.0,98.3,0.467
25.32,31931.9,34678.0,-0.3748,-0.7921,139.0,98.3,0.467
25.34,31833.1,34656.9,-0.9238,-0.8439,139.0,98.3,0.467
25.36,31840.4,34650.7,-0.8837,-0.859,139.0,98.3,0.467
25.38,31742.3,34547.8,-1.4291,-1.1116,139.0,98.3,0.467
25.4,31743.8,34514.1,-1.4207,-1.1945,139.0,98.3,0.467
25.42,31657.4,34458.4,-1.9009,-1.3312,139.0,98.3,0.467
25.44,31841.7,34569.8,-0.8761,-1.0577,139.0,98.3,0.467
25.46,31947.0,34892.5,-0.2908,-0.2656,139.0,98.3,0.467
25.48,32188.3,35340.8,1.0508,0.8348,139.0,98.3,0.467
25.5,32196.9,35607.8,1.099,1.49,139.0,98.3,0.467
25.52,32256.7,35774.9,1.4312,1.9003,139.0,98.3,0.467
25.54,32353.7,35738.4,1.9707,1.8107,139.0,98.3,0.467
25.56,32223.0,35522.8,1.2437,1.2814,139.0,98.3,0.467
25.58,32203.4,35347.0,1.1351,0.85,139.0,98.3,0.467
25.6,32061.2,35160.5,0.3444,0.3922,139.0,98.3,0.467
25.62,32027.7,35237.6,0.1579,0.5815,139.0,98.3,0.467
25.64,32013.1,35050.4,0.0769,0.122,139.0,98.3,0.467
25.66,32039.6,35009.1,0.2244,0.0205,139.0,98.3,0.467
25.68,31978.6,35000.9,-0.1149,0.0004,139.0,98.3,0.467
25.7,31882.7,34892.4,-0.6482,-0.2658,139.0,98.3,0.467
25.72,31838.4,34796.3,-0.8947,-0.5018,139.0,98.3,0.467
25.74,31947.0,34620.7,-0.291,-0.9326,139.0,98.3,0.467
25.76,31875.7,34709.3,-0.6873,-0.7153,139.0,98.3,0.467
25.78,31859.9,34629.5,-0.775,-0.9111,139.0,98.3,0.467
25.8,31829.9,34592.9,-0.942,-1.0011,139.0,98.3,0.467
25.82,31800.5,34543.0,-1.1055,-1.1233,139.0,98.3,0.467
25.84,31817.9,34394.3,-1.0088,-1.4883,139.0,98.3,0.467
25.86,31744.7,34502.8,-1.4154,-1.2221,139.0,98.3,0.467
25.88,31857.4,34650.2,-0.7888,-0.8604,139.0,98.3,0.467
25.9,31994.0,35064.6,-0.0297,0.1569,139.0,98.3,0.467
25.92,32179.8,35444.6,1.0036,1.0894,139.0,98.3,0.467
25.94,32228.3,35697.1,1.2732,1.7093,139.0,98.3,0.467
25.96,32257.0,35792.3,1.4331,1.9431,139.0,98.3,0.467
25.98,32252.2,35499.4,1.4065,1.2239,139.0,98.3,0.467
26.0,32291.6,35540.7,1.6251,1.3253,139.0,98.3,0.467
26.02,32102.5,35407.6,0.574,0.9987,139.0,98.3,0.467
26.04,32101.6,35201.9,0.5689,0.4939,139.0,98.3,0.467
26.06,32064.9,35064.6,0.3648,0.1568,139.0,98.3,0.467
26.08,31994.8,35004.1,-0.0252,0.0083,139.0,98.3,0.467
26.1,32002.4,35014.8,0.017,0.0345,139.0,98.3,0.467
26.12,31992.1,34924.7,-0.04,-0.1865,139.0,98.3,0.467
26.14,31973.0,34772.1,-0.146,-0.561,139.0,98.3,0.467
26.16,31871.3,34741.9,-0.7119,-0.6352,139.0,98.3,0.467
26.18,31803.3,34728.7,-1.0899,-0.6677,139.0,98.3,0.467
26.2,31801.4,34681.9,-1.1001,-0.7824,139.0,98.3,0.467
26.22,31796.7,34637.8,-1.1267,-0.8907,139.0,98.3,0.467
26.24,31732.1,34609.0,-1.4856,-0.9614,139.0,98.3,0.467
26.26,31781.5,34529.0,-1.2107,-1.1578,139.0,98.3,0.467
26.28,31700.0,34529.2,-1.6643,-1.1574,139.0,98.3,0.467
26.3,31769.1,34607.2,-1.2797,-0.966,139.0,98.3,0.467
26.32,31979.1,34804.7,-0.1121,-0.4811,139.0,98.3,0.467
26.34,32068.7,35193.9,0.3862,0.4742,139.0,98.3,0.467
26.36,32322.6,35476.4,1.7976,1.1675,139.0,98.3,0.467
26.38,32368.0,35705.0,2.0504,1.7288,139.0,98.3,0.467
26.4,32193.5,35813.0,1.0799,1.9939,139.0,98.3,0.467
26.42,32362.9,35636.5,2.0216,1.5605,139.0,98.3,0.467
26.44,32279.1,35396.6,1.5561,0.9717,139.0,98.3,0.467
26.46,32151.9,35260.5,0.8486,0.6376,139.0,98.3,0.467
26.48,32032.9,35147.6,0.1868,0.3604,139.0,98.3,0.467
26.5,32076.7,35144.4,0.4307,0.3526,139.0,98.3,0.467
26.52,32107.3,35089.0,0.6005,0.2167,139.0,98.3,0.467
26.54,31997.9,35018.2,-0.0076,0.043,139.0,98.3,0.467
26.56,31986.4,34792.6,-0.0715,-0.5107,139.0,98.3,0.467
26.58,31944.2,34743.7,-0.3062,-0.6309,139.0,98.3,0.467
26.6,31850.8,34799.6,-0.8255,-0.4937,139.0,98.3,0.467
26.62,31823.8,34633.2,-0.9757,-0.902,139.0,98.3,0.467
26.64,31890.4,34578.4,-0.6054,-1.0365,139.0,98.3,0.467
26.66,31770.8,34529.3,-1.2702,-1.1572,139.0,98.3,0.467
26.68,31843.2,34469.5,-0.8679,-1.3039,139.0,98.3,0.467
26.7,31852.9,34513.7,-0.8137,-1.1953,139.0,98.3,0.467
26.72,31763.1,34412.4,-1.3134,-1.4441,139.0,98.3,0.467
26.74,31761.4,34538.3,-1.3226,-1.135,139.0,98.3,0.467
26.76,31982.3,34953.5,-0.0947,-0.1158,139.0,98.3,0.467
26.78,32194.4,35294.6,1.0848,0.7213,139.0,98.3,0.467
26.8,32270.9,35620.9,1.5102,1.5223,139.0,98.3,0.467
26.82,32366.4,35778.3,2.0413,1.9086,139.0,98.3,0.467
26.84,32291.3,35775.0,1.6239,1.9004,139.0,98.3,0.467
26.86,32159.6,35647.1,0.8912,1.5865,139.0,98.3,0.467
26.88,32114.2,35386.1,0.6387,0.9458,139.0,98.3,0.467
26.9,32090.8,35228.6,0.5087,0.5593,139.0,98.3,0.467
26.92,32061.8,35111.3,0.3475,0.2714,139.0,98.3,0.467
26.94,32021.1,35080.8,0.1215,0.1965,139.0,98.3,0.467
26.96,31924.8,35004.0,-0.4141,0.008,139.0,98.3,0.467
26.98,31992.9,34909.1,-0.0356,-0.2249,139.0,98.3,0.467
27.0,31893.1,34831.8,-0.5905,-0.4146,139.0,98.3,0.467
27.02,31819.2,34750.0,-1.0012,-0.6153,139.0,98.3,0.467
27.04,31872.8,34652.8,-0.7031,-0.854,139.0,98.3,0.467
27.06,31905.6,34698.5,-0.5207,-0.7417,139.0,98.3,0.467
27.08,31847.9,34641.6,-0.8419,-0.8815,139.0,98.3,0.467
27.1,31798.5,34594.5,-1.1167,-0.997,139.0,98.3,0.467
27.12,31772.4,34464.6,-1.2617,-1.3159,139.0,98.3,0.467
27.14,31785.1,34418.1,-1.1912,-1.43,139.0,98.3,0.467
27.16,31807.3,34568.2,-1.0675,-1.0616,139.0,98.3,0.467
27.18,31876.0,34780.9,-0.6854,-0.5395,139.0,98.3,0.467
27.2,32071.7,35083.2,0.4026,0.2025,139.0,98.3,0.467
27.22,32177.7,35358.5,0.9918,0.8781,139.0,98.3,0.467
27.24,32359.2,35677.1,2.0011,1.6602,139.0,98.3,0.467
27.26,32379.6,35722.4,2.1148,1.7713,139.0,98.3,0.467
27.28,32253.9,35626.2,1.4155,1.5354,139.0,98.3,0.467
27.3,32137.2,35532.4,0.767,1.3049,139.0,98.3,0.467
27.32,32183.0,35302.7,1.0214,0.7412,139.0,98.3,0.467
27.34,32152.6,35091.5,0.8524,0.2228,139.0,98.3,0.467
27.36,32043.2,35203.1,0.2444,0.4967,139.0,98.3,0.467
27.38,32040.2,35132.5,0.2276,0.3236,139.0,98.3,0.467
27.4,32077.1,34923.6,0.4326,-0.1892,139.0,98.3,0.467
27.42,31930.6,34984.0,-0.382,-0.041,139.0,98.3,0.467
27.44,31902.9,34741.8,-0.5357,-0.6356,139.0,98.3,0.467
27.46,31906.2,34632.8,-0.5175,-0.9029,139.0,98.3,0.467
27.48,31788.3,34670.4,-1.1734,-0.8108,139.0,98.3,0.467
27.5,31862.1,34620.0,-0.763,-0.9345,139.0,98.3,0.467
27.52,31855.4,34571.1,-0.8,-1.0544,139.0,98.3,0.467
27.54,31776.4,34480.6,-1.2395,-1.2767,139.0,98.3,0.467
27.56,31834.4,34450.3,-0.9169,-1.3509,139.0,98.3,0.467
27.58,31816.2,34537.9,-1.0178,-1.136,139.0,98.3,0.467
27.6,31911.6,34666.2,-0.4873,-0.8211,139.0,98.3,0.467
27.62,31894.5,34861.2,-0.5825,-0.3425,139.0,98.3,0.467
27.64,32102.0,35312.3,0.5712,0.7648,139.0,98.3,0.467
27.66,32323.0,35625.9,1.8002,1.5346,139.0,98.3,0.467
27.68,32291.1,35679.8,1.6228,1.6668,139.0,98.3,0.467
27.7,32331.9,35802.6,1.8496,1.9683,139.0,98.3,0.467
27.72,32201.9,35557.5,1.1268,1.3666,139.0,98.3,0.467
27.74,32094.9,35408.1,0.5314,0.9999,139.0,98.3,0.467
27.76,32113.7,35156.7,0.6359,0.383,139.0,98.3,0.467
27.78,32109.9,35115.6,0.615,0.2821,139.0,98.3,0.467
27.8,32104.3,35040.1,0.5841,0.0966,139.0,98.3,0.467
27.82,31991.1,35075.7,-0.0456,0.184,139.0,98.3,0.467
27.84,31961.1,34886.3,-0.2126,-0.2808,139.0,98.3,0.467
27.86,31949.6,34861.9,-0.2764,-0.3408,139.0,98.3,0.467
27.88,31815.4,34734.3,-1.0225,-0.6539,139.0,98.3,0.467
27.9,31853.0,34707.9,-0.8132,-0.7187,139.0,98.3,0.467
27.92,31787.3,34761.7,-1.1784,-0.5867,139.0,98.3,0.467
27.94,31817.1,34658.6,-1.0128,-0.8398,139.0,98.3,0.467
27.96,31850.4,34635.2,-0.828,-0.8972,139.0,98.3,0.467
27.98,31837.1,34596.5,-0.9018,-0.9921,139.0,98.3,0.467
28.0,31780.8,34513.6,-1.2148,-1.1957,139.0,98.3,0.467
28.02,31776.5,34513.6,-1.2389,-1.1956,139.0,98.3,0.467
28.04,31864.6,34578.4,-0.7491,-1.0364,139.0,98.3,0.467
28.06,32049.9,34986.2,0.2816,-0.0356,139.0,98.3,0.467
28.08,32189.2,35381.6,1.0562,0.935,139.0,98.3,0.467
28.1,32210.8,35643.6,1.1761,1.578,139.0,98.3,0.467
28.12,32329.2,35819.9,1.8346,2.0108,139.0,98.3,0.467
28.14,32243.2,35646.6,1.3564,1.5855,139.0,98.3,0.467
28.16,32170.3,35516.0,0.9508,1.2647,139.0,98.3,0.467
28.18,32161.3,35285.2,0.9011,0.6982,139.0,98.3,0.467
28.2,32069.7,35179.3,0.3916,0.4383,139.0,98.3,0.467
28.22,31966.8,35006.3,-0.1805,0.0138,139.0,98.3,0.467
28.24,31996.0,35056.2,-0.0182,0.1361,139.0,98.3,0.467
28.26,31986.1,35004.2,-0.0734,0.0085,139.0,98.3,0.467
28.28,32035.4,34848.9,0.2011,-0.3725,139.0,98.3,0.467
28.3,31922.2,34767.8,-0.4289,-0.5717,139.0,98.3,0.467
28.32,31794.5,34813.4,-1.1385,-0.4597,139.0,98.3,0.467
28.34,31825.9,34612.6,-0.9638,-0.9527,139.0,98.3,0.467
28.36,31831.5,34639.7,-0.9329,-0.886,139.0,98.3,0.467
28.38,31865.0,34627.3,-0.7467,-0.9166,139.0,98.3,0.467
28.4,31843.3,34645.5,-0.8675,-0.8718,139.0,98.3,0.467
28.42,31889.0,34467.7,-0.613,-1.3082,139.0,98.3,0.467
28.44,31756.2,34458.9,-1.3514,-1.3299,139.0,98.3,0.467
28.46,31817.7,34522.0,-1.0095,-1.1749,139.0,98.3,0.467
28.48,31951.1,34780.4,-0.2682,-0.5406,139.0,98.3,0.467
28.5,32040.0,35150.1,0.2264,0.3666,139.0,98.3,0.467
28.52,32170.9,35522.4,0.9541,1.2804,139.0,98.3,0.467
28.54,32299.7,35737.7,1.6702,1.8089,139.0,98.3,0.467
28.56,32413.4,35764.4,2.3024,1.8745,139.0,98.3,0.467
28.58,32266.3,35570.7,1.4845,1.399,139.0,98.3,0.467
28.6,32186.4,35431.1,1.0405,1.0563,139.0,98.3,0.467
28.62,32225.7,35341.2,1.2587,0.8358,139.0,98.3,0.467
28.64,31945.6,35145.0,-0.2984,0.3542,139.0,98.3,0.467
28.66,32076.8,35151.6,0.431,0.3704,139.0,98.3,0.467
28.68,32118.1,35036.4,0.6604,0.0876,139.0,98.3,0.467
28.7,31975.8,34937.4,-0.1305,-0.1555,139.0,98.3,0.467
28.72,31943.6,34911.1,-0.3098,-0.2199,139.0,98.3,0.467
28.74,31865.5,34740.4,-0.7439,-0.639,139.0,98.3,0.467
28.76,31913.4,34703.7,-0.4776,-0.729,139.0,98.3,0.467
28.78,31897.5,34517.6,-0.5657,-1.1858,139.0,98.3,0.467
28.8,31883.5,34644.4,-0.6436,-0.8747,139.0,98.3,0.467
28.82,31785.1,34617.0,-1.191,-0.9418,139.0,98.3,0.467
28.84,31841.7,34524.7,-0.8764,-1.1683,139.0,98.3,0.467
28.86,31831.2,34470.6,-0.9347,-1.3012,139.0,98.3,0.467
28.88,31705.8,34443.8,-1.6317,-1.367,139.0,98.3,0.467
28.9,31933.2,34599.0,-0.3673,-0.986,139.0,98.3,0.467
28.92,31905.2,34986.4,-0.5229,-0.035,139.0,98.3,0.467
28.94,32085.5,35273.2,0.4793,0.6689,139.0,98.3,0.467
28.96,32169.0,35640.8,0.9438,1.571,139.0,98.3,0.467
28.98,32354.5,35799.0,1.9753,1.9594,139.0,98.3,0.467
29.0,32348.9,35686.9,1.9441,1.6843,139.0,98.3,0.467
29.02,32294.7,35530.7,1.6427,1.3009,139.0,98.3,0.467
29.04,32231.3,35271.0,1.2903,0.6634,139.0,98.3,0.467
29.06,32044.0,35246.5,0.2484,0.6033,139.0,98.3,0.467
29.08,32023.5,35096.9,0.1349,0.236,139.0,98.3,0.467
29.1,32013.8,35051.5,0.0804,0.1248,139.0,98.3,0.467
29.12,31951.5,35037.6,-0.2656,0.0906,139.0,98.3,0.467
29.14,31995.2,34976.8,-0.0225,-0.0586,139.0,98.3,0.467
29.16,31937.2,34703.1,-0.3452,-0.7304,139.0,98.3,0.467
29.18,31916.8,34701.6,-0.4586,-0.7342,139.0,98.3,0.467
29.2,31894.4,34753.6,-0.5831,-0.6066,139.0,98.3,0.467
29.22,31938.8,34699.2,-0.3366,-0.74,139.0,98.3,0.467
29.24,31880.1,34680.7,-0.6629,-0.7854,139.0,98.3,0.467
29.26,31767.3,34591.6,-1.2899,-1.0041,139.0,98.3,0.467
29.28,31808.0,34430.8,-1.0638,-1.3989,139.0,98.3,0.467
29.3,31714.1,34438.0,-1.5854,-1.3812,139.0,98.3,0.467
29.32,31781.1,34497.6,-1.2134,-1.2348,139.0,98.3,0.467
29.34,31973.5,34736.6,-0.1435,-0.6483,139.0,98.3,0.467
29.36,32052.3,35122.6,0.2946,0.2991,139.0,98.3,0.467
29.38,32155.3,35447.3,0.8676,1.0962,139.0,98.3,0.467
29.4,32227.3,35650.9,1.2679,1.5958,139.0,98.3,0.467
29.42,32266.3,35738.1,1.4847,1.8099,139.0,98.3,0.467
29.44,32285.0,35691.4,1.5889,1.6953,139.0,98.3,0.467
29.46,32166.2,35480.8,0.928,1.1784,139.0,98.3,0.467
29.48,32150.3,35245.0,0.8398,0.5996,139.0,98.3,0.467
29.5,32083.7,35211.1,0.4696,0.5165,139.0,98.3,0.467
29.52,32047.5,35096.4,0.268,0.235,139.0,98.3,0.467
29.54,31900.3,35083.6,-0.5503,0.2034,139.0,98.3,0.467
29.56,31974.3,35088.9,-0.1388,0.2164,139.0,98.3,0.467
29.58,31933.2,34874.2,-0.3677,-0.3106,139.0,98.3,0.467
29.6,31856.0,34759.7,-0.7967,-0.5916,139.0,98.3,0.467
29.62,31884.0,34578.3,-0.6411,-1.0367,139.0,98.3,0.467
29.64,31903.3,34593.3,-0.5336,-1.0,139.0,98.3,0.467
29.66,31789.4,34676.6,-1.1671,-0.7954,139.0,98.3,0.467
29.68,31791.5,34591.8,-1.1553,-1.0037,139.0,98.3,0.467
29.7,31850.8,34467.3,-0.8256,-1.3093,139.0,98.3,0.467
29.72,31763.2,34546.4,-1.3125,-1.1151,139.0,98.3,0.467
29.74,31725.1,34455.2,-1.5247,-1.3389,139.0,98.3,0.467
29.76,31822.8,34525.2,-0.981,-1.167,139.0,98.3,0.467
29.78,31827.6,34959.9,-0.9544,-0.1001,139.0,98.3,0.467
29.8,32103.5,35293.9,0.5796,0.7197,139.0,98.3,0.467
29.82,32276.3,35580.3,1.5402,1.4225,139.0,98.3,0.467
29.84,32280.0,35724.9,1.5606,1.7776,139.0,98.3,0.467
29.86,32342.1,35683.9,1.9061,1.6768,139.0,98.3,0.467
29.88,32212.7,35535.1,1.1864,1.3116,139.0,98.3,0.467
29.9,32246.8,35420.2,1.3762,1.0296,139.0,98.3,0.467
29.92,32161.2,35195.2,0.9001,0.4773,139.0,98.3,0.467
29.94,32040.3,35174.9,0.2279,0.4276,139.0,98.3,0.467
29.96,32063.1,35141.0,0.3546,0.3443,139.0,98.3,0.467
29.98,32071.4,35022.2,0.4008,0.0527,139.0,98.3,0.467
30.0,31938.3,34985.2,-0.3394,-0.0381,139.0,98.3,0.467
30.02,31870.3,34917.9,-0.7172,-0.2033,139.0,98.3,0.467
30.04,31978.5,34756.5,-0.1156,-0.5995,139.0,98.3,0.467
30.06,31798.4,34603.8,-1.117,-0.9742,139.0,98.3,0.467
30.08,31871.0,34753.6,-0.7133,-0.6065,139.0,98.3,0.467
30.1,31869.5,34590.9,-0.7217,-1.0059,139.0,98.3,0.467
30.12,31773.1,34640.4,-1.2577,-0.8845,139.0,98.3,0.467
30.14,31737.9,34485.1,-1.4532,-1.2657,139.0,98.3,0.467
30.16,31772.7,34440.6,-1.26,-1.3748,139.0,98.3,0.467
30.18,31810.2,34584.3,-1.0513,-1.0222,139.0,98.3,0.467
30.2,31902.2,34721.1,-0.54,-0.6864,139.0,98.3,0.467
30.22,32051.8,35067.8,0.2919,0.1646,139.0,98.3,0.467
30.24,32194.1,35294.7,1.0834,0.7217,139.0,98.3,0.467
30.26,32345.3,35699.1,1.9237,1.7143,139.0,98.3,0.467
30.28,32281.4,35747.3,1.5686,1.8325,139.0,98.3,0.467
30.3,32263.1,35701.4,1.4667,1.7199,139.0,98.3,0.467
30.32,32108.8,35487.8,0.6089,1.1956,139.0,98.3,0.467
30.34,32224.8,35242.5,1.254,0.5935,139.0,98.3,0.467
30.36,32079.0,35247.5,0.4433,0.6058,139.0,98.3,0.467
30.38,32048.6,35012.0,0.2743,0.0277,139.0,98.3,0.467
30.4,32006.0,35080.6,0.0376,0.1961,139.0,98.3,0.467
30.42,31985.0,35023.5,-0.0792,0.056,139.0,98.3,0.467
30.44,31951.2,34922.9,-0.2674,-0.191,139.0,98.3,0.467
30.46,31840.5,34873.7,-0.8826,-0.3117,139.0,98.3,0.467
30.48,31882.0,34690.0,-0.6521,-0.7626,139.0,98.3,0.467
30.5,31940.9,34727.6,-0.3246,-0.6704,139.0,98.3,0.467
30.52,31899.2,34598.3,-0.5564,-0.9876,139.0,98.3,0.467
30.54,31888.4,34622.4,-0.6163,-0.9287,139.0,98.3,0.467
30.56,31814.6,34537.3,-1.0268,-1.1375,139.0,98.3,0.467
30.58,31827.0,34522.4,-0.958,-1.1741,139.0,98.3,0.467
30.6,31841.3,34431.1,-0.8786,-1.3981,139.0,98.3,0.467
30.62,31896.9,34621.5,-0.5691,-0.9307,139.0,98.3,0.467
30.64,31977.9,34833.6,-0.1189,-0.4101,139.0,98.3,0.467
30.66,32136.0,35231.4,0.7603,0.5663,139.0,98.3,0.467
30.68,32244.9,35599.7,1.3659,1.4702,139.0,98.3,0.467
30.7,32259.7,35766.2,1.4479,1.8788,139.0,98.3,0.467
30.72,32302.4,35794.3,1.6853,1.9478,139.0,98.3,0.467
30.74,32255.7,35645.3,1.4255,1.5821,139.0,98.3,0.467
30.76,32158.0,35406.4,0.8826,0.9957,139.0,98.3,0.467
30.78,32159.6,35272.1,0.8915,0.6662,139.0,98.3,0.467
30.8,32085.7,35147.4,0.4803,0.36,139.0,98.3,0.467
30.82,32080.3,35096.8,0.4507,0.2358,139.0,98.3,0.467
30.84,31975.9,35056.3,-0.1303,0.1365,139.0,98.3,0.467
30.86,31965.5,34842.4,-0.1878,-0.3886,139.0,98.3,0.467
30.88,31944.7,34903.7,-0.3036,-0.238,139.0,98.3,0.467
30.9,31915.0,34772.8,-0.4684,-0.5595,139.0,98.3,0.467
30.92,31880.9,34654.9,-0.6581,-0.8489,139.0,98.3,0.467
30.94,31773.6,34641.9,-1.2549,-0.8806,139.0,98.3,0.467
30.96,31778.2,34679.1,-1.2295,-0.7893,139.0,98.3,0.467
30.98,31889.0,34444.7,-0.6132,-1.3648,139.0,98.3,0.467
31.0,31749.3,34509.6,-1.3899,-1.2054,139.0,98.3,0.467
31.02,31804.0,34420.9,-1.0856,-1.4232,139.0,98.3,0.467
31.04,31782.4,34511.2,-1.2059,-1.2015,139.0,98.3,0.467
31.06,31793.9,34701.6,-1.142,-0.7341,139.0,98.3,0.467
31.08,32007.1,35000.1,0.0437,-0.0016,139.0,98.3,0.467
31.1,32164.5,35343.1,0.9187,0.8404,139.0,98.3,0.467
31.12,32272.4,35597.6,1.5186,1.4651,139.0,98.3,0.467
31.14,32362.4,35720.6,2.0191,1.7671,139.0,98.3,0.467
31.16,32241.4,35821.3,1.3461,2.0142,139.0,98.3,0.467
31.18,32175.1,35527.1,0.9776,1.292,139.0,98.3,0.467
31.2,32158.0,35332.1,0.8826,0.8135,139.0,98.3,0.467
31.22,32042.9,35219.4,0.2423,0.5368,139.0,98.3,0.467
31.24,32032.9,35142.6,0.1869,0.3482,139.0,98.3,0.467
31.26,32006.8,35059.8,0.0417,0.1451,139.0,98.3,0.467
31.28,31942.4,34976.6,-0.3161,-0.0593,139.0,98.3,0.467
31.3,31849.3,34849.6,-0.834,-0.3708,139.0,98.3,0.467
31.32,32002.4,34820.2,0.0174,-0.4431,139.0,98.3,0.467
31.34,31860.8,34700.8,-0.7698,-0.7361,139.0,98.3,0.467
31.36,31863.9,34655.1,-0.7528,-0.8482,139.0,98.3,0.467
31.38,31848.1,34590.7,-0.8404,-1.0064,139.0,98.3,0.467
31.4,31900.1,34618.0,-0.5518,-0.9393,139.0,98.3,0.467
31.42,31779.3,34482.3,-1.223,-1.2725,139.0,98.3,0.467
31.44,31760.2,34450.2,-1.3295,-1.3511,139.0,98.3,0.467
31.46,31799.0,34471.8,-1.1137,-1.2983,139.0,98.3,0.467
31.48,31836.5,34476.9,-0.9053,-1.2856,139.0,98.3,0.467
31.5,32007.3,34687.0,0.0446,-0.7701,139.0,98.3,0.467
31.52,32088.3,35142.9,0.4948,0.3489,139.0,98.3,0.467
31.54,32111.7,35489.1,0.6249,1.1987,139.0,98.3,0.467
31.56,32355.8,35677.6,1.9825,1.6614,139.0,98.3,0.467
31.58,32320.2,35782.0,1.7846,1.9177,139.0,98.3,0.467
31.6,32450.5,35722.1,2.5086,1.7708,139.0,98.3,0.467
31.62,32228.9,35454.1,1.2766,1.113,139.0,98.3,0.467
31.64,32131.1,35187.9,0.733,0.4595,139.0,98.3,0.467
31.66,32021.7,35129.8,0.1248,0.3169,139.0,98.3,0.467
31.68,32071.1,35202.0,0.3992,0.4942,139.0,98.3,0.467
31.7,32044.5,35055.2,0.2514,0.1338,139.0,98.3,0.467
31.72,32055.9,34952.2,0.3149,-0.119,139.0,98.3,0.467
31.74,31814.5,34931.1,-1.0275,-0.1708,139.0,98.3,0.467
31.76,31836.9,34821.9,-0.9029,-0.4389,139.0,98.3,0.467
31.78,31839.2,34746.7,-0.8901,-0.6234,139.0,98.3,0.467
31.8,31994.8,34699.8,-0.0249,-0.7387,139.0,98.3,0.467
31.82,31908.5,34639.4,-0.5049,-0.8869,139.0,98.3,0.467
31.84,31867.0,34603.4,-0.7358,-0.9753,139.0,98.3,0.467
31.86,31860.3,34506.5,-0.773,-1.2131,139.0,98.3,0.467
31.88,31774.7,34422.6,-1.2487,-1.4189,139.0,98.3,0.467
31.9,31787.9,34496.4,-1.1756,-1.2378,139.0,98.3,0.467
31.92,31869.6,34621.1,-0.7211,-0.9318,139.0,98.3,0.467
31.94,31994.8,34993.9,-0.0249,-0.0168,139.0,98.3,0.467
31.96,32060.1,35249.8,0.3382,0.6114,139.0,98.3,0.467
31.98,32177.3,35571.6,0.9896,1.4014,139.0,98.3,0.467
32.0,32369.9,35728.3,2.0606,1.786,139.0,98.3,0.467
32.02,32333.5,35717.4,1.8583,1.7591,139.0,98.3,0.467
32.04,32155.6,35632.8,0.8694,1.5516,139.0,98.3,0.467
32.06,32183.2,35341.5,1.0225,0.8366,139.0,98.3,0.467
32.08,32084.1,35245.8,0.4714,0.6016,139.0,98.3,0.467
32.1,32053.5,35109.0,0.3012,0.2657,139.0,98.3,0.467
32.12,32085.2,35120.2,0.4776,0.2932,139.0,98.3,0.467
32.14,31998.3,35002.2,-0.0053,0.0037,139.0,98.3,0.467
32.16,32004.5,34956.0,0.029,-0.1098,139.0,98.3,0.467
32.18,31903.2,34801.5,-0.534,-0.4889,139.0,98.3,0.467
32.2,31817.2,34756.6,-1.0127,-0.5992,139.0,98.3,0.467
32.22,31863.0,34679.6,-0.7577,-0.7883,139.0,98.3,0.467
32.24,31886.5,34619.1,-0.6271,-0.9366,139.0,98.3,0.467
32.26,31843.9,34636.4,-0.8642,-0.8941,139.0,98.3,0.467
32.28,31846.2,34613.7,-0.8514,-0.95,139.0,98.3,0.467
32.3,31754.2,34520.6,-1.3629,-1.1785,139.0,98.3,0.467
32.32,31821.1,34536.3,-0.9908,-1.14,139.0,98.3,0.467
32.34,31821.9,34455.1,-0.9865,-1.3392,139.0,98.3,0.467
32.36,31920.1,34823.8,-0.4401,-0.4341,139.0,98.3,0.467
32.38,32033.3,35058.3,0.1891,0.1414,139.0,98.3,0.467
32.4,32186.2,35415.7,1.0393,1.0187,139.0,98.3,0.467
32.42,32280.0,35694.1,1.561,1.702,139.0,98.3,0.467
32.44,32293.3,35741.5,1.6346,1.8184,139.0,98.3,0.467
32.46,32231.6,35703.2,1.2917,1.7242,139.0,98.3,0.467
32.48,32262.1,35451.1,1.4614,1.1056,139.0,98.3,0.467
32.5,32156.5,35297.7,0.8739,0.7291,139.0,98.3,0.467
32.52,32048.6,35130.1,0.2742,0.3176,139.0,98.3,0.467
32.54,31998.2,35109.7,-0.0061,0.2675,139.0,98.3,0.467
32.56,31976.5,35008.5,-0.1269,0.0192,139.0,98.3,0.467
32.58,31898.7,35033.1,-0.5593,0.0795,139.0,98.3,0.467
32.6,31933.0,34967.5,-0.3687,-0.0815,139.0,98.3,0.467
32.62,31922.7,34851.9,-0.4261,-0.3651,139.0,98.3,0.467
32.64,31859.6,34673.1,-0.7768,-0.8041,139.0,98.3,0.467
32.66,31787.8,34787.8,-1.1758,-0.5225,139.0,98.3,0.467
32.68,31868.6,34593.6,-0.7268,-0.9993,139.0,98.3,0.467
32.7,31876.6,34629.4,-0.6822,-0.9114,139.0,98.3,0.467
32.72,31766.2,34479.7,-1.2961,-1.2788,139.0,98.3,0.467
32.74,31756.4,34518.7,-1.3507,-1.183,139.0,98.3,0.467
32.76,31770.2,34463.8,-1.2738,-1.3179,139.0,98.3,0.467
32.78,31822.5,34660.7,-0.9829,-0.8345,139.0,98.3,0.467
32.8,31999.7,34890.3,0.0024,-0.271,139.0,98.3,0.467
32.82,31983.4,35210.1,-0.0885,0.5139,139.0,98.3,0.467
32.84,32217.4,35502.0,1.2125,1.2305,139.0,98.3,0.467
32.86,32279.3,35776.8,1.5568,1.905,139.0,98.3,0.467
32.88,32266.3,35794.3,1.4846,1.948,139.0,98.3,0.467
32.9,32289.3,35648.5,1.6127,1.59,139.0,98.3,0.467
32.92,32117.4,35384.1,0.6567,0.9411,139.0,98.3,0.467
32.94,32094.0,35319.8,0.5267,0.7833,139.0,98.3,0.467
32.96,32056.2,35118.6,0.3166,0.2895,139.0,98.3,0.467
32.98,32084.7,35024.9,0.4752,0.0593,139.0,98.3,0.467
33.0,32002.4,35035.5,0.0175,0.0854,139.0,98.3,0.467
33.02,31909.6,34956.5,-0.4984,-0.1085,139.0,98.3,0.467
33.04,31965.7,34847.1,-0.1867,-0.3769,139.0,98.3,0.467
33.06,31906.2,34770.8,-0.5174,-0.5643,139.0,98.3,0.467
33.08,31896.7,34711.5,-0.5704,-0.7098,139.0,98.3,0.467
33.1,31838.4,34708.3,-0.8944,-0.7176,139.0,98.3,0.467
33.12,31847.8,34653.2,-0.8423,-0.853,139.0,98.3,0.467
33.14,31852.0,34645.6,-0.8191,-0.8716,139.0,98.3,0.467
33.16,31853.2,34625.6,-0.8121,-0.9208,139.0,98.3,0.467
33.18,31818.7,34429.0,-1.0043,-1.4033,139.0,98.3,0.467
33.2,31787.4,34424.2,-1.178,-1.415,139.0,98.3,0.467
33.22,31853.5,34699.0,-0.8108,-0.7404,139.0,98.3,0.467
33.24,31986.0,35013.5,-0.0738,0.0313,139.0,98.3,0.467
33.26,32167.6,35455.2,0.9361,1.1156,139.0,98.3,0.467
33.28,32214.2,35678.2,1.195,1.663,139.0,98.3,0.467
33.3,32354.8,35772.8,1.9769,1.8952,139.0,98.3,0.467
33.32,32265.2,35670.3,1.4783,1.6435,139.0,98.3,0.467
33.34,32210.5,35517.0,1.1745,1.2673,139.0,98.3,0.467
33.36,32246.7,35354.2,1.3756,0.8677,139.0,98.3,0.467
33.38,32212.0,35202.8,1.1826,0.496,139.0,98.3,0.467
33.4,32052.7,35045.8,0.2971,0.1107,139.0,98.3,0.467
33.42,31868.9,35035.3,-0.7249,0.085,139.0,98.3,0.467
33.44,31932.7,34975.2,-0.3702,-0.0625,139.0,98.3,0.467
33.46,31965.9,34950.8,-0.1858,-0.1226,139.0,98.3,0.467
33.48,31914.5,34806.0,-0.4714,-0.4779,139.0,98.3,0.467
33.5,31877.1,34732.4,-0.6792,-0.6585,139.0,98.3,0.467
33.52,31883.4,34671.4,-0.6443,-0.8082,139.0,98.3,0.467
33.54,31789.4,34632.6,-1.1671,-0.9035,139.0,98.3,0.467
33.56,31980.2,34593.3,-0.1059,-1.0001,139.0,98.3,0.467
33.58,31819.7,34502.4,-0.9983,-1.223,139.0,98.3,0.467
33.6,31823.6,34455.2,-0.9768,-1.339,139.0,98.3,0.467
33.62,31832.5,34453.9,-0.9275,-1.3421,139.0,98.3,0.467
33.64,31798.8,34629.1,-1.1149,-0.9121,139.0,98.3,0.467
33.66,31956.2,34835.7,-0.2393,-0.4051,139.0,98.3,0.467
33.68,32102.7,35096.0,0.5753,0.2339,139.0,98.3,0.467
33.7,32288.1,35600.1,1.6057,1.4711,139.0,98.3,0.467
33.72,32328.9,35677.6,1.8328,1.6614,139.0,98.3,0.467
33.74,32325.4,35873.3,1.8131,2.1417,139.0,98.3,0.467
33.76,32256.0,35665.0,1.4276,1.6306,139.0,98.3,0.467
33.78,32219.6,35402.8,1.2251,0.987,139.0,98.3,0.467
33.8,32075.0,35341.4,0.4209,0.8362,139.0,98.3,0.467
33.82,32034.4,35284.1,0.195,0.6956,139.0,98.3,0.467
33.84,32097.2,35067.6,0.5442,0.1643,139.0,98.3,0.467
33.86,31966.2,34987.3,-0.1837,-0.033,139.0,98.3,0.467
33.88,32018.0,34947.9,0.1039,-0.1296,139.0,98.3,0.467
33.9,32014.6,34883.8,0.0852,-0.287,139.0,98.3,0.467
33.92,31875.4,34693.6,-0.6888,-0.7537,139.0,98.3,0.467
33.94,31955.9,34641.7,-0.2413,-0.8813,139.0,98.3,0.467
33.96,31743.6,34651.8,-1.422,-0.8565,139.0,98.3,0.467
33.98,31906.5,34605.5,-0.5158,-0.97,139.0,98.3,0.467
34.0,31850.5,34558.6,-0.827,-1.0853,139.0,98.3,0.467
34.02,31766.0,34593.3,-1.2973,-1.0001,139.0,98.3,0.467
34.04,31888.0,34553.6,-0.6188,-1.0974,139.0,98.3,0.467
34.06,31811.9,34463.3,-1.0418,-1.319,139.0,98.3,0.467
34.08,31896.7,34654.0,-0.5705,-0.851,139.0,98.3,0.467
34.1,32011.3,34901.6,0.0668,-0.2432,139.0,98.3,0.467
34.12,32098.0,35357.2,0.549,0.875,139.0,98.3,0.467
34.14,32280.3,35617.1,1.5625,1.513,139.0,98.3,0.467
34.16,32315.9,35781.2,1.7604,1.9157,139.0,98.3,0.467
34.18,32297.3,35695.6,1.6572,1.7056,139.0,98.3,0.467
34.2,32299.5,35528.9,1.6694,1.2964,139.0,98.3,0.467
34.22,32149.5,35267.3,0.8355,0.6543,139.0,98.3,0.467
34.24,32069.5,35265.8,0.3903,0.6506,139.0,98.3,0.467
34.26,32078.5,35221.2,0.4406,0.5412,139.0,98.3,0.467
34.28,32008.3,35015.5,0.0503,0.0364,139.0,98.3,0.467
34.3,31969.9,34959.4,-0.1634,-0.1014,139.0,98.3,0.467
34.32,31975.8,34872.4,-0.1306,-0.3149,139.0,98.3,0.467
34.34,32019.2,34832.4,0.1108,-0.413,139.0,98.3,0.467
34.36,31854.1,34747.3,-0.807,-0.622,139.0,98.3,0.467
34.38,31943.9,34623.5,-0.3082,-0.9259,139.0,98.3,0.467
34.4,31817.9,34631.5,-1.0083,-0.9063,139.0,98.3,0.467
34.42,31891.2,34676.6,-0.6012,-0.7954,139.0,98.3,0.467
34.44,31854.6,34518.2,-0.8046,-1.1842,139.0,98.3,0.467
34.46,31896.2,34472.5,-0.573,-1.2965,139.0,98.3,0.467
34.48,31799.9,34447.0,-1.1088,-1.3591,139.0,98.3,0.467
34.5,31856.2,34530.3,-0.7957,-1.1546,139.0,98.3,0.467
34.52,32052.1,34800.0,0.2939,-0.4925,139.0,98.3,0.467
34.54,32033.6,35133.8,0.1905,0.3267,139.0,98.3,0.467
34.56,32198.5,35442.1,1.1076,1.0833,139.0,98.3,0.467
34.58,32323.8,35689.9,1.8046,1.6917,139.0,98.3,0.467
34.6,32316.4,35737.6,1.763,1.8086,139.0,98.3,0.467
34.62,32359.2,35679.4,2.0014,1.6659,139.0,98.3,0.467
34.64,32270.0,35430.8,1.5053,1.0557,139.0,98.3,0.467
34.66,32160.6,35242.2,0.8969,0.5927,139.0,98.3,0.467
34.68,32115.4,35072.4,0.6455,0.176,139.0,98.3,0.467
34.7,32018.2,35133.4,0.1052,0.3256,139.0,98.3,0.467
34.72,32094.5,35025.6,0.5294,0.0611,139.0,98.3,0.467
34.74,32018.9,34928.0,0.109,-0.1785,139.0,98.3,0.467
34.76,31898.3,34965.8,-0.5616,-0.0858,139.0,98.3,0.467
34.78,31947.4,34713.9,-0.2887,-0.7041,139.0,98.3,0.467
34.8,31856.9,34741.9,-0.7919,-0.6353,139.0,98.3,0.467
34.82,31867.4,34721.3,-0.7331,-0.6857,139.0,98.3,0.467
34.84,31919.2,34663.5,-0.4453,-0.8277,139.0,98.3,0.467
34.86,31886.2,34632.3,-0.6287,-0.9042,139.0,98.3,0.467
34.88,31803.9,34606.3,-1.0862,-0.9681,139.0,98.3,0.467
34.9,31753.3,34458.3,-1.3679,-1.3313,139.0,98.3,0.467
34.92,31766.0,34494.9,-1.297,-1.2415,139.0,98.3,0.467
34.94,31799.2,34645.6,-1.1128,-0.8715,139.0,98.3,0.467
34.96,31929.8,34926.8,-0.3863,-0.1813,139.0,98.3,0.467
34.98,32137.9,35228.9,0.7709,0.56,139.0,98.3,0.467
35.0,32241.2,35493.6,1.3452,1.2097,139.0,98.3,0.467
35.02,32329.6,35633.6,1.8367,1.5535,139.0,98.3,0.467
35.04,32260.4,35670.6,1.4517,1.6442,139.0,98.3,0.467
35.06,32331.9,35605.3,1.8495,1.4839,139.0,98.3,0.467
35.08,32260.0,35445.4,1.4494,1.0916,139.0,98.3,0.467
35.1,32061.0,35252.2,0.3433,0.6172,139.0,98.3,0.467
35.12,32065.7,35052.2,0.3693,0.1265,139.0,98.3,0.467
35.14,32057.3,35083.2,0.3225,0.2026,139.0,98.3,0.467
35.16,32023.0,35104.5,0.1321,0.2549,139.0,98.3,0.467
35.18,31929.9,34942.5,-0.3858,-0.143,139.0,98.3,0.467
35.2,31904.9,34824.3,-0.5247,-0.4331,139.0,98.3,0.467
35.22,31902.7,34735.8,-0.5373,-0.6501,139.0,98.3,0.467
35.24,31824.7,34665.4,-0.9705,-0.8231,139.0,98.3,0.467
35.26,31835.5,34544.0,-0.9108,-1.1211,139.0,98.3,0.467
35.28,31834.1,34653.0,-0.9183,-0.8534,139.0,98.3,0.467
35.3,31792.7,34618.8,-1.1485,-0.9375,139.0,98.3,0.467
35.32,31799.5,34549.7,-1.1108,-1.1071,139.0,98.3,0.467
35.34,31727.0,34459.6,-1.5138,-1.3281,139.0,98.3,0.467
35.36,31728.3,34561.5,-1.5068,-1.0779,139.0,98.3,0.467
35.38,31896.7,34649.9,-0.5703,-0.8611,139.0,98.3,0.467
35.4,31908.4,35045.9,-0.5056,0.1109,139.0,98.3,0.467
35.42,32169.4,35385.2,0.9457,0.9438,139.0,98.3,0.467
35.44,32250.9,35642.8,1.3993,1.5761,139.0,98.3,0.467
35.46,32389.6,35804.9,2.1703,1.9739,139.0,98.3,0.467
35.48,32233.2,35702.2,1.3004,1.7218,139.0,98.3,0.467
35.5,32290.5,35521.2,1.619,1.2776,139.0,98.3,0.467
35.52,32227.4,35390.7,1.2682,0.9572,139.0,98.3,0.467
35.54,32140.1,35202.2,0.7832,0.4946,139.0,98.3,0.467
35.56,32058.1,35111.7,0.3271,0.2724,139.0,98.3,0.467
35.58,32046.6,35070.0,0.2631,0.17,139.0,98.3,0.467
35.6,32060.0,34976.6,0.3375,-0.0591,139.0,98.3,0.467
35.62,31895.2,34937.7,-0.5785,-0.1547,139.0,98.3,0.467
35.64,31895.3,34748.5,-0.5785,-0.6191,139.0,98.3,0.467
35.66,31920.3,34672.1,-0.4393,-0.8066,139.0,98.3,0.467
35.68,31817.1,34563.9,-1.0131,-1.072,139.0,98.3,0.467
35.7,31828.1,34652.7,-0.9516,-0.8542,139.0,98.3,0.467
35.72,31806.7,34597.9,-1.0708,-0.9887,139.0,98.3,0.467
35.74,31815.6,34517.6,-1.0216,-1.1858,139.0,98.3,0.467
35.76,31804.0,34464.5,-1.0856,-1.316,139.0,98.3,0.467
35.78,31736.3,34471.7,-1.4622,-1.2985,139.0,98.3,0.467
35.8,31787.3,34588.0,-1.1786,-1.013,139.0,98.3,0.467
35.82,31966.3,34791.8,-0.1836,-0.5128,139.0,98.3,0.467
35.84,32033.5,35153.1,0.1904,0.374,139.0,98.3,0.467
35.86,32307.0,35583.5,1.7109,1.4305,139.0,98.3,0.467
35.88,32297.4,35766.5,1.6577,1.8796,139.0,98.3,0.467
35.9,32236.6,35814.6,1.3194,1.9978,139.0,98.3,0.467
35.92,32328.1,35665.5,1.8283,1.6318,139.0,98.3,0.467
35.94,32132.5,35325.2,0.7408,0.7964,139.0,98.3,0.467
35.96,32120.7,35262.9,0.6749,0.6437,139.0,98.3,0.467
35.98,32039.7,35032.1,0.2247,0.077,139.0,98.3,0.467
36.0,32042.6,35102.8,0.241,0.2505,139.0,98.3,0.467
36.02,31978.1,35056.7,-0.1176,0.1375,139.0,98.3,0.467
36.04,32037.0,34945.4,0.21,-0.1357,139.0,98.3,0.467
36.06,31926.8,34933.7,-0.4031,-0.1645,139.0,98.3,0.467
36.08,31806.8,34768.5,-1.07,-0.5699,139.0,98.3,0.467
36.1,31795.1,34657.6,-1.1354,-0.8422,139.0,98.3,0.467
36.12,31883.4,34779.7,-0.6442,-0.5424,139.0,98.3,0.467
36.14,31813.3,34668.8,-1.0341,-0.8147,139.0,98.3,0.467
36.16,31903.3,34660.9,-0.5335,-0.834,139.0,98.3,0.467
36.18,31740.2,34523.7,-1.4406,-1.1709,139.0,98.3,0.467
36.2,31684.9,34506.4,-1.7478,-1.2132,139.0,98.3,0.467
36.22,31812.8,34523.3,-1.0372,-1.1717,139.0,98.3,0.467
36.24,31932.2,34601.7,-0.3728,-0.9793,139.0,98.3,0.467
36.26,32033.9,34915.1,0.1926,-0.2102,139.0,98.3,0.467
36.28,32167.9,35333.2,0.9377,0.816,139.0,98.3,0.467
36.3,32280.8,35637.3,1.5651,1.5626,139.0,98.3,0.467
36.32,32329.8,35793.9,1.8376,1.9469,139.0,98.3,0.467
36.34,32314.6,35760.9,1.753,1.8658,139.0,98.3,0.467
36.36,32181.4,35562.1,1.0128,1.378,139.0,98.3,0.467
36.38,32145.3,35388.4,0.8116,0.9517,139.0,98.3,0.467
36.4,32212.9,35218.3,1.1876,0.5341,139.0,98.3,0.467
36.42,32092.6,35161.0,0.519,0.3934,139.0,98.3,0.467
36.44,32102.1,35099.3,0.5718,0.2419,139.0,98.3,0.467
36.46,32087.7,34989.8,0.4916,-0.0267,139.0,98.3,0.467
36.48,31836.4,34926.1,-0.9057,-0.1831,139.0,98.3,0.467
36.5,32036.3,34856.3,0.2056,-0.3544,139.0,98.3,0.467
36.52,31845.0,34664.2,-0.8576,-0.826,139.0,98.3,0.467
36.54,31808.7,34725.8,-1.0599,-0.6747,139.0,98.3,0.467
36.56,31955.6,34573.8,-0.243,-1.0477,139.0,98.3,0.467
36.58,31864.9,34651.0,-0.7474,-0.8583,139.0,98.3,0.467
36.6,31783.4,34579.9,-1.2005,-1.0328,139.0,98.3,0.467
36.62,31687.6,34443.6,-1.7329,-1.3675,139.0,98.3,0.467
36.64,31733.0,34450.6,-1.4804,-1.3503,139.0,98.3,0.467
36.66,31743.3,34538.6,-1.4234,-1.1342,139.0,98.3,0.467
36.68,31922.8,34770.2,-0.4251,-0.5657,139.0,98.3,0.467
36.7,32049.2,35203.2,0.2773,0.4969,139.0,98.3,0.467
36.72,32166.1,35443.4,0.9278,1.0865,139.0,98.3,0.467
36.74,32313.2,35711.4,1.7456,1.7445,139.0,98.3,0.467
36.76,32344.9,35734.1,1.9219,1.8,139.0,98.3,0.467
36.78,32245.8,35644.1,1.3706,1.5792,139.0,98.3,0.467
36.8,32172.8,35482.6,0.9646,1.1829,139.0,98.3,0.467
36.82,32051.3,35281.4,0.2891,0.6889,139.0,98.3,0.467
36.84,32035.2,35183.5,0.1999,0.4486,139.0,98.3,0.467
36.86,31965.6,35114.2,-0.1874,0.2785,139.0,98.3,0.467
36.88,31973.4,35044.9,-0.1437,0.1085,139.0,98.3,0.467
36.9,31977.0,34984.3,-0.124,-0.0403,139.0,98.3,0.467
36.92,31894.2,34914.1,-0.5843,-0.2127,139.0,98.3,0.467
36.94,31925.1,34746.4,-0.4126,-0.6242,139.0,98.3,0.467
36.96,31941.5,34748.7,-0.3213,-0.6186,139.0,98.3,0.467
36.98,31807.9,34609.2,-1.0643,-0.961,139.0,98.3,0.467
37.0,31861.2,34610.4,-0.7678,-0.9579,139.0,98.3,0.467
37.02,31870.5,34600.9,-0.716,-0.9813,139.0,98.3,0.467
37.04,31785.7,34546.6,-1.1878,-1.1146,139.0,98.3,0.467
37.06,31734.2,34437.1,-1.4742,-1.3833,139.0,98.3,0.467
37.08,31739.4,34485.3,-1.4449,-1.265,139.0,98.3,0.467
37.1,31783.9,34668.3,-1.1975,-0.8158,139.0,98.3,0.467
37.12,31889.8,34787.4,-0.6088,-0.5236,139.0,98.3,0.467
37.14,32123.1,35188.5,0.6882,0.461,139.0,98.3,0.467
37.16,32216.4,35546.1,1.2072,1.3387,139.0,98.3,0.467
37.18,32297.1,35803.7,1.6558,1.9709,139.0,98.3,0.467
37.2,32329.5,35728.8,1.8361,1.7871,139.0,98.3,0.467
37.22,32344.2,35519.3,1.9179,1.2728,139.0,98.3,0.467
37.24,32172.2,35376.1,0.9614,0.9213,139.0,98.3,0.467
37.26,32154.8,35260.1,0.8644,0.6368,139.0,98.3,0.467
37.28,32068.7,35192.2,0.3862,0.4701,139.0,98.3,0.467
37.3,31929.4,35056.9,-0.3887,0.1379,139.0,98.3,0.467
37.32,31933.6,35129.8,-0.3652,0.3168,139.0,98.3,0.467
37.34,31994.6,34904.8,-0.0259,-0.2354,139.0,98.3,0.467
37.36,31906.8,34797.3,-0.5144,-0.4993,139.0,98.3,0.467
37.38,31881.4,34709.2,-0.6557,-0.7155,139.0,98.3,0.467
37.4,31844.6,34668.9,-0.8604,-0.8144,139.0,98.3,0.467
37.42,31855.8,34586.6,-0.7977,-1.0163,139.0,98.3,0.467
37.44,31913.3,34574.3,-0.4782,-1.0466,139.0,98.3,0.467
37.46,31881.1,34592.2,-0.657,-1.0028,139.0,98.3,0.467
37.48,31782.1,34532.2,-1.2075,-1.15,139.0,98.3,0.467
37.5,31783.7,34375.5,-1.1988,-1.5345,139.0,98.3,0.467
37.52,31768.6,34558.0,-1.2827,-1.0867,139.0,98.3,0.467
37.54,31926.0,34729.2,-0.4077,-0.6665,139.0,98.3,0.467
37.56,31936.3,35008.2,-0.3505,0.0183,139.0,98.3,0.467
37.58,32185.7,35349.0,1.0368,0.8548,139.0,98.3,0.467
37.6,32335.6,35761.1,1.87,1.8663,139.0,98.3,0.467
37.62,32257.5,35685.8,1.4355,1.6816,139.0,98.3,0.467
37.64,32356.5,35646.9,1.9861,1.586,139.0,98.3,0.467
37.66,32172.7,35502.9,0.9643,1.2327,139.0,98.3,0.467
37.68,32142.1,35270.8,0.7941,0.663,139.0,98.3,0.467
37.7,32101.8,35185.0,0.5702,0.4523,139.0,98.3,0.467
37.72,32108.4,35066.7,0.6064,0.1621,139.0,98.3,0.467
37.74,32096.7,35107.9,0.5417,0.2631,139.0,98.3,0.467
37.76,32013.3,34936.8,0.0776,-0.1569,139.0,98.3,0.467
37.78,31804.4,34837.7,-1.0836,-0.4001,139.0,98.3,0.467
37.8,31939.0,34833.6,-0.3353,-0.4101,139.0,98.3,0.467
37.82,31935.4,34628.0,-0.3551,-0.9148,139.0,98.3,0.467
37.84,31844.0,34685.0,-0.8634,-0.7749,139.0,98.3,0.467
37.86,31847.8,34697.1,-0.8421,-0.7451,139.0,98.3,0.467
37.88,31843.6,34635.0,-0.8657,-0.8976,139.0,98.3,0.467
37.9,31834.7,34557.0,-0.915,-1.0891,139.0,98.3,0.467
37.92,31806.0,34483.5,-1.0747,-1.2694,139.0,98.3,0.467
37.94,31724.7,34439.3,-1.5266,-1.378,139.0,98.3,0.467
37.96,31851.5,34504.9,-0.8219,-1.2169,139.0,98.3,0.467
37.98,31915.5,34731.7,-0.466,-0.6602,139.0,98.3,0.467
38.0,32023.8,35207.1,0.1361,0.5066,139.0,98.3,0.467
38.02,32167.1,35519.7,0.9333,1.2738,139.0,98.3,0.467
38.04,32276.1,35699.8,1.5391,1.716,139.0,98.3,0.467
38.06,32302.1,35803.6,1.6837,1.9706,139.0,98.3,0.467
38.08,32272.8,35587.1,1.5208,1.4393,139.0,98.3,0.467
38.1,32129.5,35459.8,0.7238,1.1268,139.0,98.3,0.467
38.12,32142.7,35155.6,0.7977,0.3802,139.0,98.3,0.467
38.14,32045.5,35080.9,0.257,0.1969,139.0,98.3,0.467
38.16,32060.3,35134.1,0.3393,0.3275,139.0,98.3,0.467
38.18,32029.8,35091.1,0.1695,0.2218,139.0,98.3,0.467
38.2,31944.4,34897.4,-0.305,-0.2534,139.0,98.3,0.467
38.22,31964.6,34869.6,-0.1931,-0.3219,139.0,98.3,0.467
38.24,31898.6,34731.7,-0.5597,-0.6602,139.0,98.3,0.467
38.26,31821.6,34755.6,-0.9878,-0.6015,139.0,98.3,0.467
38.28,31834.9,34735.6,-0.914,-0.6507,139.0,98.3,0.467
38.3,31814.1,34580.1,-1.0294,-1.0324,139.0,98.3,0.467
38.32,31857.1,34566.4,-0.7908,-1.0659,139.0,98.3,0.467
38.34,31752.8,34568.2,-1.3706,-1.0615,139.0,98.3,0.467
38.36,31712.9,34419.7,-1.5922,-1.4261,139.0,98.3,0.467
38.38,31755.9,34416.3,-1.3531,-1.4344,139.0,98.3,0.467
38.4,31913.7,34694.4,-0.4758,-0.7518,139.0,98.3,0.467
38.42,32030.7,35022.8,0.1744,0.0541,139.0,98.3,0.467
38.44,32131.1,35266.7,0.733,0.6529,139.0,98.3,0.467
38.46,32220.4,35660.9,1.2296,1.6204,139.0,98.3,0.467
38.48,32172.0,35730.7,0.9604,1.7917,139.0,98.3,0.467
38.5,32271.6,35716.7,1.5143,1.7573,139.0,98.3,0.467
38.52,32228.0,35439.3,1.2717,1.0767,139.0,98.3,0.467
38.54,32079.9,35283.8,0.4483,0.6948,139.0,98.3,0.467
38.56,32075.3,35260.6,0.4224,0.6378,139.0,98.3,0.467
38.58,32025.9,35011.7,0.1479,0.0269,139.0,98.3,0.467
38.6,32047.5,35039.0,0.2681,0.0941,139.0,98.3,0.467
38.62,32094.0,34977.2,0.5269,-0.0576,139.0,98.3,0.467
38.64,31895.4,34982.0,-0.5774,-0.046,139.0,98.3,0.467
38.66,32005.0,34729.7,0.0318,-0.6652,139.0,98.3,0.467
38.68,31878.9,34716.9,-0.6694,-0.6967,139.0,98.3,0.467
38.7,31876.0,34626.3,-0.6854,-0.9191,139.0,98.3,0.467
38.72,31796.4,34639.1,-1.1283,-0.8876,139.0,98.3,0.467
38.74,31875.8,34720.7,-0.6865,-0.6873,139.0,98.3,0.467
38.76,31769.5,34627.3,-1.2776,-0.9165,139.0,98.3,0.467
38.78,31841.4,34498.4,-0.878,-1.2328,139.0,98.3,0.467
38.8,31776.9,34449.1,-1.2363,-1.3539,139.0,98.3,0.467
38.82,31839.1,34611.2,-0.8908,-0.956,139.0,98.3,0.467
38.84,32022.5,34911.7,0.1293,-0.2185,139.0,98.3,0.467
38.86,32052.0,35175.4,0.2934,0.4288,139.0,98.3,0.467
38.88,32126.4,35527.9,0.707,1.2939,139.0,98.3,0.467
38.9,32321.6,35758.7,1.7923,1.8604,139.0,98.3,0.467
38.92,32316.9,35744.7,1.7662,1.8261,139.0,98.3,0.467
38.94,32355.8,35643.8,1.9824,1.5784,139.0,98.3,0.467
38.96,32254.5,35480.3,1.4192,1.177,139.0,98.3,0.467
38.98,32138.7,35247.8,0.7751,0.6065,139.0,98.3,0.467
39.0,31982.6,35132.4,-0.093,0.3233,139.0,98.3,0.467
39.02,31991.7,34977.2,-0.0422,-0.0576,139.0,98.3,0.467
39.04,31976.1,34987.9,-0.129,-0.0315,139.0,98.3,0.467
39.06,32052.0,34954.2,0.2931,-0.1142,139.0,98.3,0.467
39.08,31898.8,34886.4,-0.559,-0.2805,139.0,98.3,0.467
39.1,31953.9,34764.0,-0.2522,-0.5809,139.0,98.3,0.467
39.12,31918.8,34694.5,-0.4475,-0.7517,139.0,98.3,0.467
39.14,31982.2,34746.7,-0.0951,-0.6234,139.0,98.3,0.467
39.16,31811.3,34650.0,-1.0453,-0.8607,139.0,98.3,0.467
39.18,31885.3,34647.2,-0.6338,-0.8677,139.0,98.3,0.467
39.2,31805.8,34581.6,-1.0758,-1.0286,139.0,98.3,0.467
39.22,31789.3,34450.5,-1.1676,-1.3505,139.0,98.3,0.467
39.24,31794.8,34457.8,-1.1369,-1.3327,139.0,98.3,0.467
39.26,31848.0,34671.2,-0.841,-0.8089,139.0,98.3,0.467
39.28,31927.4,34868.9,-0.3997,-0.3235,139.0,98.3,0.467
39.3,32090.4,35265.8,0.5065,0.6507,139.0,98.3,0.467
39.32,32221.5,35654.2,1.2357,1.6041,139.0,98.3,0.467
39.34,32327.7,35788.5,1.8263,1.9337,139.0,98.3,0.467
39.36,32250.0,35808.3,1.3941,1.9823,139.0,98.3,0.467
39.38,32318.8,35570.6,1.7768,1.3989,139.0,98.3,0.467
39.4,32195.3,35312.9,1.09,0.7662,139.0,98.3,0.467
39.42,32085.2,35192.2,0.4777,0.4701,139.0,98.3,0.467
39.44,32004.2,35098.8,0.0276,0.2408,139.0,98.3,0.467
39.46,32107.9,35097.8,0.6039,0.2384,139.0,98.3,0.467
39.48,31939.8,34993.5,-0.3309,-0.0176,139.0,98.3,0.467
39.5,32064.7,34865.2,0.3636,-0.3325,139.0,98.3,0.467
39.52,31914.2,34789.7,-0.4732,-0.518,139.0,98.3,0.467
39.54,31945.4,34710.9,-0.2996,-0.7115,139.0,98.3,0.467
39.56,31798.4,34691.6,-1.1171,-0.7588,139.0,98.3,0.467
39.58,31840.5,34648.0,-0.8832,-0.8658,139.0,98.3,0.467
39.6,31809.9,34583.2,-1.0533,-1.0248,139.0,98.3,0.467
39.62,31887.6,34550.0,-0.6208,-1.1063,139.0,98.3,0.467
39.64,31769.1,34461.7,-1.2797,-1.323,139.0,98.3,0.467
39.66,31787.9,34491.0,-1.1756,-1.2511,139.0,98.3,0.467
39.68,31811.4,34492.2,-1.0445,-1.2481,139.0,98.3,0.467
39.7,31926.5,34757.2,-0.4045,-0.5976,139.0,98.3,0.467
39.72,32062.5,35094.8,0.3512,0.2311,139.0,98.3,0.467
39.74,32125.0,35515.3,0.6991,1.263,139.0,98.3,0.467
39.76,32250.4,35610.3,1.3963,1.4963,139.0,98.3,0.467
39.78,32333.4,35811.5,1.8579,1.9901,139.0,98.3,0.467
39.8,32229.6,35666.3,1.2806,1.6337,139.0,98.3,0.467
39.82,32148.5,35529.0,0.8298,1.2967,139.0,98.3,0.467
39.84,32226.1,35419.5,1.261,1.028,139.0,98.3,0.467
39.86,32020.6,35120.3,0.1186,0.2935,139.0,98.3,0.467
39.88,32034.0,35109.0,0.1928,0.2658,139.0,98.3,0.467
39.9,32068.9,35089.0,0.3871,0.2167,139.0,98.3,0.467
39.92,31979.1,34888.9,-0.1124,-0.2743,139.0,98.3,0.467
39.94,31933.4,34881.2,-0.3666,-0.2934,139.0,98.3,0.467
39.96,31929.5,34777.2,-0.3878,-0.5486,139.0,98.3,0.467
39.98,31876.7,34709.3,-0.6815,-0.7153,139.0,98.3,0.467
40.0,31839.2,34679.2,-0.89,-0.7893,139.0,98.3,0.467
40.02,31802.2,34692.8,-1.0957,-0.7558,139.0,98.3,0.467
40.04,31841.4,34673.9,-0.8777,-0.8023,139.0,98.3,0.467
40.06,31806.2,34563.1,-1.0738,-1.0742,139.0,98.3,0.467
40.08,31699.6,34517.5,-1.6662,-1.1859,139.0,98.3,0.467
40.1,31825.0,34477.5,-0.9692,-1.2842,139.0,98.3,0.467
40.12,31874.3,34646.4,-0.695,-0.8696,139.0,98.3,0.467
40.14,31972.7,34832.0,-0.1476,-0.4141,139.0,98.3,0.467
40.16,32076.7,35247.5,0.4306,0.6058,139.0,98.3,0.467
40.18,32192.3,35514.1,1.073,1.2602,139.0,98.3,0.467
40.2,32374.0,35645.3,2.0834,1.5821,139.0,98.3,0.467
40.22,32333.6,35757.0,1.859,1.8563,139.0,98.3,0.467
40.24,32278.0,35556.0,1.5495,1.363,139.0,98.3,0.467
40.26,32177.2,35325.5,0.9894,0.7973,139.0,98.3,0.467
40.28,32119.1,35196.5,0.6662,0.4805,139.0,98.3,0.467
40.3,31961.6,35176.0,-0.2095,0.4303,139.0,98.3,0.467
40.32,32026.9,35099.9,0.1534,0.2434,139.0,98.3,0.467
40.34,32010.4,35012.6,0.0618,0.0292,139.0,98.3,0.467
40.36,31921.4,34948.4,-0.433,-0.1285,139.0,98.3,0.467
40.38,31983.8,34729.7,-0.0861,-0.6652,139.0,98.3,0.467
40.4,31894.1,34716.6,-0.5848,-0.6974,139.0,98.3,0.467
40.42,31901.5,34732.2,-0.5435,-0.6591,139.0,98.3,0.467
40.44,31857.0,34525.6,-0.7912,-1.1663,139.0,98.3,0.467
40.46,31788.9,34606.8,-1.1696,-0.9668,139.0,98.3,0.467
40.48,31816.3,34588.8,-1.0174,-1.0109,139.0,98.3,0.467
40.5,31716.3,34513.0,-1.5734,-1.1971,139.0,98.3,0.467
40.52,31739.9,34377.5,-1.4422,-1.5297,139.0,98.3,0.467
40.54,31778.6,34478.2,-1.2269,-1.2825,139.0,98.3,0.467
40.56,31796.1,34623.1,-1.1296,-0.927,139.0,98.3,0.467
40.58,31958.2,35001.0,-0.2285,0.0008,139.0,98.3,0.467
40.6,32217.1,35364.9,1.2112,0.8938,139.0,98.3,0.467
40.62,32295.5,35623.9,1.647,1.5296,139.0,98.3,0.467
40.64,32335.5,35660.3,1.8694,1.619,139.0,98.3,0.467
40.66,32286.8,35685.8,1.5989,1.6815,139.0,98.3,0.467
40.68,32226.3,35570.2,1.2623,1.398,139.0,98.3,0.467
40.7,32129.3,35301.8,0.7232,0.7389,139.0,98.3,0.467
40.72,32132.7,35202.7,0.7416,0.4957,139.0,98.3,0.467
40.74,32056.0,35158.5,0.3154,0.3873,139.0,98.3,0.467
40.76,31958.0,35070.8,-0.2293,0.172,139.0,98.3,0.467
40.78,32004.9,34992.0,0.0311,-0.0213,139.0,98.3,0.467
40.8,31949.2,34932.1,-0.2783,-0.1685,139.0,98.3,0.467
40.82,31922.6,34805.5,-0.4266,-0.4792,139.0,98.3,0.467
40.84,31862.8,34710.2,-0.7588,-0.713,139.0,98.3,0.467
40.86,31774.3,34631.1,-1.2509,-0.9072,139.0,98.3,0.467
40.88,31720.3,34698.3,-1.5515,-0.7422,139.0,98.3,0.467
40.9,31805.5,34643.2,-1.0775,-0.8776,139.0,98.3,0.467
40.92,31788.3,34592.8,-1.1732,-1.0013,139.0,98.3,0.467
40.94,31766.8,34467.3,-1.2926,-1.3093,139.0,98.3,0.467
40.96,31782.0,34479.2,-1.2083,-1.2799,139.0,98.3,0.467
40.98,31780.1,34633.3,-1.219,-0.9017,139.0,98.3,0.467
41.0,31859.5,34794.5,-0.7774,-0.5061,139.0,98.3,0.467
41.02,32050.9,35209.4,0.2872,0.5122,139.0,98.3,0.467
41.04,32255.3,35505.4,1.4234,1.2387,139.0,98.3,0.467
41.06,32370.0,35688.7,2.0613,1.6886,139.0,98.3,0.467
41.08,32281.3,35784.1,1.5679,1.9228,139.0,98.3,0.467
41.1,32302.8,35648.0,1.6876,1.5889,139.0,98.3,0.467
41.12,32243.7,35381.3,1.3593,0.9342,139.0,98.3,0.467
41.14,32000.2,35334.1,0.0052,0.8184,139.0,98.3,0.467
41.16,32046.8,35148.9,0.264,0.3638,139.0,98.3,0.467
41.18,31935.6,35124.5,-0.3542,0.3039,139.0,98.3,0.467
41.2,31987.2,35107.3,-0.0669,0.2616,139.0,98.3,0.467
41.22,31934.0,34982.7,-0.3632,-0.0441,139.0,98.3,0.467
41.24,31954.6,34835.0,-0.2485,-0.4067,139.0,98.3,0.467
41.26,31933.3,34770.1,-0.3671,-0.5661,139.0,98.3,0.467
41.28,31874.1,34633.3,-0.6962,-0.9018,139.0,98.3,0.467
41.3,31852.5,34660.2,-0.8159,-0.8358,139.0,98.3,0.467
41.32,31973.2,34684.7,-0.1452,-0.7757,139.0,98.3,0.467
41.34,31830.5,34629.0,-0.9388,-0.9125,139.0,98.3,0.467
41.36,31818.2,34483.6,-1.007,-1.2692,139.0,98.3,0.467
41.38,31684.9,34351.1,-1.748,-1.5945,139.0,98.3,0.467
41.4,31782.2,34464.6,-1.2073,-1.3159,139.0,98.3,0.467
41.42,31815.7,34609.4,-1.0209,-0.9606,139.0,98.3,0.467
41.44,31938.5,34941.0,-0.3379,-0.1465,139.0,98.3,0.467
41.46,32040.3,35248.1,0.228,0.6072,139.0,98.3,0.467
41.48,32257.0,35616.1,1.4331,1.5106,139.0,98.3,0.467
41.5,32343.8,35719.0,1.9158,1.7631,139.0,98.3,0.467
41.52,32238.0,35635.9,1.3274,1.5592,139.0,98.3,0.467
41.54,32255.8,35522.9,1.4264,1.2818,139.0,98.3,0.467
41.56,32122.3,35324.4,0.6839,0.7946,139.0,98.3,0.467
41.58,32082.5,35113.6,0.4626,0.2772,139.0,98.3,0.467
41.6,31951.7,35140.8,-0.2645,0.3438,139.0,98.3,0.467
41.62,31982.5,34970.0,-0.0932,-0.0754,139.0,98.3,0.467
41.64,31969.1,35052.5,-0.1678,0.1271,139.0,98.3,0.467
41.66,32045.9,34949.0,0.2589,-0.1268,139.0,98.3,0.467
41.68,31978.7,34760.0,-0.1147,-0.5907,139.0,98.3,0.467
41.7,31899.1,34628.7,-0.5569,-0.913,139.0,98.3,0.467
41.72,31779.3,34676.7,-1.223,-0.7953,139.0,98.3,0.467
41.74,31836.5,34616.6,-0.9049,-0.9427,139.0,98.3,0.467
41.76,31816.1,34692.5,-1.0187,-0.7564,139.0,98.3,0.467
41.78,31884.8,34607.8,-0.6366,-0.9644,139.0,98.3,0.467
41.8,31767.7,34520.3,-1.2879,-1.1792,139.0,98.3,0.467
41.82,31731.7,34453.1,-1.4877,-1.3442,139.0,98.3,0.467
41.84,31812.7,34465.0,-1.0373,-1.3149,139.0,98.3,0.467
41.86,31941.3,34734.6,-0.3224,-0.6532,139.0,98.3,0.467
41.88,32023.7,35113.4,0.1358,0.2766,139.0,98.3,0.467
41.9,32180.8,35485.7,1.0093,1.1905,139.0,98.3,0.467
41.92,32265.9,35627.3,1.4825,1.5379,139.0,98.3,0.467
41.94,32350.3,35683.4,1.9519,1.6756,139.0,98.3,0.467
41.96,32268.3,35689.7,1.4957,1.691,139.0,98.3,0.467
41.98,32268.0,35494.6,1.4943,1.2122,139.0,98.3,0.467
42.0,32093.6,35257.2,0.5243,0.6297,139.0,98.3,0.467
42.02,31992.7,35269.0,-0.0367,0.6585,139.0,98.3,0.467
42.04,31935.9,35126.4,-0.3524,0.3085,139.0,98.3,0.467
42.06,31911.3,35126.5,-0.4892,0.3087,139.0,98.3,0.467
42.08,32007.2,34929.6,0.0438,-0.1746,139.0,98.3,0.467
42.1,31912.1,34877.2,-0.4847,-0.3031,139.0,98.3,0.467
42.12,31843.4,34807.0,-0.8666,-0.4755,139.0,98.3,0.467
42.14,31941.9,34713.9,-0.3193,-0.7039,139.0,98.3,0.467
42.16,31906.3,34657.4,-0.5169,-0.8425,139.0,98.3,0.467
42.18,31850.7,34612.6,-0.8263,-0.9526,139.0,98.3,0.467
42.2,31730.4,34690.1,-1.495,-0.7623,139.0,98.3,0.467
42.22,31795.4,34584.7,-1.1339,-1.0212,139.0,98.3,0.467
42.24,31755.0,34483.9,-1.3583,-1.2686,139.0,98.3,0.467
42.26,31687.1,34495.3,-1.7357,-1.2405,139.0,98.3,0.467
42.28,31803.0,34683.6,-1.0913,-0.7784,139.0,98.3,0.467
42.3,31927.7,34923.4,-0.3983,-0.1899,139.0,98.3,0.467
42.32,32123.3,35275.9,0.6898,0.6754,139.0,98.3,0.467
42.34,32323.2,35541.5,1.801,1.3274,139.0,98.3,0.467
42.36,32274.7,35739.9,1.5314,1.8144,139.0,98.3,0.467
42.38,32309.2,35752.3,1.7233,1.8448,139.0,98.3,0.467
42.4,32189.0,35618.2,1.055,1.5157,139.0,98.3,0.467
42.42,32152.6,35357.6,0.8524,0.8761,139.0,98.3,0.467
42.44,32078.5,35331.2,0.4405,0.8111,139.0,98.3,0.467
42.46,32095.4,35123.9,0.5343,0.3023,139.0,98.3,0.467
42.48,32000.4,35058.4,0.0063,0.1417,139.0,98.3,0.467
42.5,32024.9,34897.5,0.1423,-0.2532,139.0,98.3,0.467
42.52,31884.7,34931.9,-0.6371,-0.1689,139.0,98.3,0.467
42.54,31876.6,34880.6,-0.6819,-0.2948,139.0,98.3,0.467
42.56,31879.6,34749.9,-0.6652,-0.6155,139.0,98.3,0.467
42.58,31859.7,34687.8,-0.776,-0.7681,139.0,98.3,0.467
42.6,31869.0,34554.2,-0.7247,-1.0959,139.0,98.3,0.467
42.62,31809.4,34541.3,-1.0557,-1.1276,139.0,98.3,0.467
42.64,31796.5,34566.3,-1.1278,-1.0663,139.0,98.3,0.467
42.66,31723.3,34442.8,-1.5344,-1.3694,139.0,98.3,0.467
42.68,31800.2,34441.7,-1.107,-1.3721,139.0,98.3,0.467
42.7,31822.6,34501.1,-0.9823,-1.2262,139.0,98.3,0.467
42.72,31893.8,34680.2,-0.5866,-0.7867,139.0,98.3,0.467
42.74,32013.7,35000.8,0.0802,0.0003,139.0,98.3,0.467
42.76,32129.3,35290.7,0.7227,0.7117,139.0,98.3,0.467
42.78,32321.2,35609.1,1.7902,1.4933,139.0,98.3,0.467
42.8,32233.6,35813.7,1.303,1.9954,139.0,98.3,0.467
42.82,32344.1,35774.4,1.9173,1.8989,139.0,98.3,0.467
42.84,32257.1,35480.4,1.4338,1.1775,139.0,98.3,0.467
42.86,32199.2,35360.4,1.1117,0.8829,139.0,98.3,0.467
42.88,32073.4,35200.0,0.4118,0.4892,139.0,98.3,0.467
42.9,32064.2,35116.6,0.361,0.2845,139.0,98.3,0.467
42.92,32087.4,35009.6,0.49,0.0219,139.0,98.3,0.467
42.94,31936.0,34934.1,-0.3521,-0.1634,139.0,98.3,0.467
42.96,31976.0,34914.9,-0.1297,-0.2107,139.0,98.3,0.467
42.98,31908.7,34776.0,-0.5039,-0.5515,139.0,98.3,0.467
43.0,31890.3,34690.8,-0.6058,-0.7607,139.0,98.3,0.467
43.02,31830.1,34583.5,-0.9408,-1.0241,139.0,98.3,0.467
43.04,31896.6,34594.9,-0.5712,-0.996,139.0,98.3,0.467
43.06,31891.6,34643.4,-0.599,-0.8769,139.0,98.3,0.467
43.08,31835.3,34630.7,-0.9118,-0.9082,139.0,98.3,0.467
43.1,31792.3,34572.3,-1.1512,-1.0514,139.0,98.3,0.467
43.12,31698.0,34511.8,-1.6753,-1.2001,139.0,98.3,0.467
43.14,31863.9,34531.2,-0.7525,-1.1525,139.0,98.3,0.467
43.16,31973.4,34795.4,-0.1438,-0.504,139.0,98.3,0.467
43.18,32040.9,35142.8,0.2315,0.3488,139.0,98.3,0.467
43.2,32227.1,35500.1,1.2668,1.2258,139.0,98.3,0.467
43.22,32345.2,35680.4,1.9235,1.6684,139.0,98.3,0.467
43.24,32266.0,35706.9,1.4831,1.7334,139.0,98.3,0.467
43.26,32298.1,35663.5,1.6617,1.6269,139.0,98.3,0.467
43.28,32234.7,35426.6,1.309,1.0454,139.0,98.3,0.467
43.3,32089.3,35208.3,0.5005,0.5096,139.0,98.3,0.467
43.32,32087.2,35218.3,0.4886,0.5341,139.0,98.3,0.467
43.34,32051.2,35113.5,0.2886,0.2768,139.0,98.3,0.467
43.36,32041.9,35125.5,0.2369,0.3063,139.0,98.3,0.467
43.38,31992.6,34989.1,-0.0374,-0.0285,139.0,98.3,0.467
43.4,31898.7,34821.6,-0.5591,-0.4396,139.0,98.3,0.467
43.42,31905.3,34768.7,-0.5228,-0.5694,139.0,98.3,0.467
43.44,31968.3,34683.0,-0.1724,-0.7798,139.0,98.3,0.467
43.46,31860.9,34643.4,-0.7694,-0.877,139.0,98.3,0.467
43.48,31877.0,34700.2,-0.6799,-0.7375,139.0,98.3,0.467
43.5,31871.8,34652.8,-0.7091,-0.854,139.0,98.3,0.467
43.52,31760.1,34427.9,-1.3299,-1.4059,139.0,98.3,0.467
43.54,31729.5,34340.0,-1.5001,-1.6217,139.0,98.3,0.467
43.56,31829.5,34490.7,-0.9443,-1.2519,139.0,98.3,0.467
43.58,31937.7,34597.5,-0.3423,-0.9896,139.0,98.3,0.467
43.6,32020.4,34904.2,0.1171,-0.2369,139.0,98.3,0.467
43.62,32157.5,35380.2,0.8798,0.9314,139.0,98.3,0.467
43.64,32237.5,35560.8,1.3246,1.3748,139.0,98.3,0.467
43.66,32340.0,35789.1,1.8943,1.9352,139.0,98.3,0.467
43.68,32204.2,35719.2,1.1391,1.7634,139.0,98.3,0.467
43.7,32272.6,35512.2,1.5194,1.2554,139.0,98.3,0.467
43.72,32148.4,35411.8,0.8289,1.009,139.0,98.3,0.467
43.74,32090.3,35258.4,0.506,0.6325,139.0,98.3,0.467
43.76,32084.4,35022.7,0.4732,0.054,139.0,98.3,0.467
43.78,32001.8,34996.7,0.0138,-0.0099,139.0,98.3,0.467
43.8,32080.6,35049.8,0.4519,0.1205,139.0,98.3,0.467
43.82,31953.3,34898.1,-0.2557,-0.2518,139.0,98.3,0.467
43.84,31885.8,34875.0,-0.6309,-0.3085,139.0,98.3,0.467
43.86,31883.8,34769.8,-0.6423,-0.5667,139.0,98.3,0.467
43.88,31827.9,34668.1,-0.9531,-0.8164,139.0,98.3,0.467
43.9,31919.1,34637.4,-0.446,-0.8917,139.0,98.3,0.467
43.92,31874.3,34748.4,-0.6951,-0.6193,139.0,98.3,0.467
43.94,31833.3,34641.2,-0.9231,-0.8824,139.0,98.3,0.467
43.96,31775.2,34511.7,-1.2462,-1.2003,139.0,98.3,0.467
43.98,31689.7,34411.6,-1.7214,-1.4459,139.0,98.3,0.467
44.0,31793.6,34580.8,-1.1434,-1.0308,139.0,98.3,0.467
44.02,31974.3,34777.6,-0.1388,-0.5476,139.0,98.3,0.467
44.04,32032.7,35102.6,0.1856,0.25,139.0,98.3,0.467
44.06,32216.4,35368.5,1.2071,0.9028,139.0,98.3,0.467
44.08,32230.1,35720.1,1.2833,1.7659,139.0,98.3,0.467
44.1,32395.5,35727.7,2.2032,1.7845,139.0,98.3,0.467
44.12,32185.3,35656.1,1.0345,1.6087,139.0,98.3,0.467
44.14,32208.5,35488.7,1.1632,1.1978,139.0,98.3,0.467
44.16,32258.3,35248.2,1.4403,0.6075,139.0,98.3,0.467
44.18,32072.3,35167.5,0.4059,0.4094,139.0,98.3,0.467
44.2,32063.6,35071.2,0.3577,0.1731,139.0,98.3,0.467
44.22,31960.2,35006.3,-0.2174,0.0136,139.0,98.3,0.467
44.24,32042.4,34966.0,0.2398,-0.0851,139.0,98.3,0.467
44.26,31946.8,34808.7,-0.2921,-0.4714,139.0,98.3,0.467
44.28,31869.6,34723.9,-0.7212,-0.6795,139.0,98.3,0.467
44.3,31925.8,34686.9,-0.4084,-0.7703,139.0,98.3,0.467
44.32,31768.9,34633.3,-1.2811,-0.9018,139.0,98.3,0.467
44.34,31827.9,34712.6,-0.9529,-0.7073,139.0,98.3,0.467
44.36,31757.6,34658.5,-1.3438,-0.84,139.0,98.3,0.467
44.38,31774.7,34597.0,-1.2489,-0.991,139.0,98.3,0.467
44.4,31752.8,34512.3,-1.3705,-1.1988,139.0,98.3,0.467
44.42,31798.0,34536.7,-1.1192,-1.139,139.0,98.3,0.467
44.44,31840.0,34614.9,-0.8857,-0.947,139.0,98.3,0.467
44.46,31973.4,34948.2,-0.1441,-0.1288,139.0,98.3,0.467
44.48,32102.4,35203.7,0.5736,0.4983,139.0,98.3,0.467
44.5,32175.9,35663.9,0.9821,1.6277,139.0,98.3,0.467
44.52,32175.3,35752.7,0.9786,1.8459,139.0,98.3,0.467
44.54,32290.5,35658.8,1.619,1.6153,139.0,98.3,0.467
44.56,32223.5,35561.6,1.2468,1.3767,139.0,98.3,0.467
44.58,32211.0,35383.8,1.177,0.9404,139.0,98.3,0.467
44.6,32180.4,35194.8,1.007,0.4764,139.0,98.3,0.467
44.62,32051.5,35205.2,0.2903,0.502,139.0,98.3,0.467
44.64,32025.0,35067.1,0.143,0.163,139.0,98.3,0.467
44.66,31955.7,35016.7,-0.2421,0.0392,139.0,98.3,0.467
44.68,32010.2,34945.7,0.0609,-0.135,139.0,98.3,0.467
44.7,31883.5,34850.3,-0.644,-0.3692,139.0,98.3,0.467
44.72,31935.2,34761.8,-0.3565,-0.5863,139.0,98.3,0.467
44.74,31924.2,34726.5,-0.4176,-0.673,139.0,98.3,0.467
44.76,31821.4,34673.9,-0.9889,-0.8022,139.0,98.3,0.467
44.78,31875.8,34705.6,-0.6869,-0.7243,139.0,98.3,0.467
44.8,31812.3,34619.8,-1.0399,-0.9349,139.0,98.3,0.467
44.82,31818.6,34522.2,-1.0049,-1.1744,139.0,98.3,0.467
44.84,31689.1,34464.8,-1.7246,-1.3153,139.0,98.3,0.467
44.86,31873.2,34481.5,-0.7011,-1.2745,139.0,98.3,0.467
