timestamp,raw_red,raw_ir,filtered_red,filtered_ir,heart_rate,spo2,ac_dc_ratio
0.0,32069.2,35072.1,0.0942,0.0838,135.0,98.1,0.478
0.02,32179.3,35459.9,0.2483,0.5555,135.0,98.1,0.478
0.04,32306.3,35809.6,0.4263,0.981,135.0,98.1,0.478
0.06,32355.5,35833.6,0.4951,1.0101,135.0,98.1,0.478
0.08,32334.1,35650.6,0.4651,0.7875,135.0,98.1,0.478
0.1,32262.0,35477.6,0.3642,0.577,135.0,98.1,0.478
0.12,32110.6,35279.8,0.1521,0.3365,135.0,98.1,0.478
0.14,32028.2,35227.0,0.0368,0.2723,135.0,98.1,0.478
0.16,32091.2,35166.2,0.125,0.1983,135.0,98.1,0.478
0.18,31987.2,34960.8,-0.0207,-0.0516,135.0,98.1,0.478
0.2,32033.3,35138.0,0.0439,0.1641,135.0,98.1,0.478
0.22,31940.9,34921.3,-0.0854,-0.0996,135.0,98.1,0.478
0.24,31946.3,34788.1,-0.078,-0.2616,135.0,98.1,0.478
0.26,31894.8,34725.9,-0.1501,-0.3373,135.0,98.1,0.478
0.28,31795.9,34674.0,-0.2885,-0.4004,135.0,98.1,0.478
0.3,31919.7,34737.5,-0.1152,-0.3231,135.0,98.1,0.478
0.32,31861.4,34595.9,-0.1968,-0.4954,135.0,98.1,0.478
0.34,31857.8,34590.4,-0.2019,-0.5021,135.0,98.1,0.478
0.36,31726.0,34435.6,-0.3865,-0.6904,135.0,98.1,0.478
0.38,31767.8,34498.7,-0.3279,-0.6137,135.0,98.1,0.478
0.4,31813.2,34539.6,-0.2644,-0.5639,135.0,98.1,0.478
0.42,31921.2,34697.1,-0.1131,-0.3724,135.0,98.1,0.478
0.44,31991.4,35094.9,-0.0148,0.1116,135.0,98.1,0.478
0.46,32160.0,35459.0,0.2213,0.5545,135.0,98.1,0.478
0.48,32321.8,35625.8,0.4479,0.7574,135.0,98.1,0.478
0.5,32327.5,35708.7,0.4559,0.8581,135.0,98.1,0.478
0.52,32215.4,35635.4,0.2989,0.7691,135.0,98.1,0.478
0.54,32233.2,35548.4,0.3239,0.6632,135.0,98.1,0.478
0.56,32088.8,35311.3,0.1216,0.3748,135.0,98.1,0.478
0.58,32122.3,35129.4,0.1685,0.1535,135.0,98.1,0.478
0.6,32096.7,35147.7,0.1327,0.1758,135.0,98.1,0.478
0.62,32055.1,35095.9,0.0744,0.1128,135.0,98.1,0.478
0.64,32000.7,35103.9,-0.0017,0.1225,135.0,98.1,0.478
0.66,32030.0,34993.4,0.0392,-0.0119,135.0,98.1,0.478
0.68,31896.0,34845.8,-0.1484,-0.1915,135.0,98.1,0.478
0.7,31976.8,34714.8,-0.0353,-0.3508,135.0,98.1,0.478
0.72,31898.2,34623.9,-0.1453,-0.4614,135.0,98.1,0.478
0.74,31862.4,34638.7,-0.1955,-0.4433,135.0,98.1,0.478
0.76,31932.5,34501.5,-0.0973,-0.6102,135.0,98.1,0.478
0.78,31833.0,34613.7,-0.2366,-0.4738,135.0,98.1,0.478
0.8,31775.2,34600.1,-0.3175,-0.4902,135.0,98.1,0.478
0.82,31755.6,34429.3,-0.345,-0.698,135.0,98.1,0.478
0.84,31656.8,34596.3,-0.4834,-0.4949,135.0,98.1,0.478
0.86,31885.3,34693.6,-0.1633,-0.3766,135.0,98.1,0.478
0.88,31973.7,35004.1,-0.0396,0.0011,135.0,98.1,0.478
0.9,32167.1,35249.7,0.2313,0.2999,135.0,98.1,0.478
0.92,32344.3,35632.5,0.4795,0.7654,135.0,98.1,0.478
0.94,32346.1,35759.6,0.4819,0.9201,135.0,98.1,0.478
0.96,32287.7,35655.1,0.4002,0.793,135.0,98.1,0.478
0.98,32236.7,35537.7,0.3287,0.6502,135.0,98.1,0.478
1.0,32138.7,35420.1,0.1914,0.5072,135.0,98.1,0.478
1.02,32163.0,35249.1,0.2255,0.2992,135.0,98.1,0.478
1.04,32048.7,35173.1,0.0654,0.2067,135.0,98.1,0.478
1.06,32111.5,35007.0,0.1534,0.0047,135.0,98.1,0.478
1.08,32043.7,35039.1,0.0584,0.0437,135.0,98.1,0.478
1.1,31933.7,34899.9,-0.0956,-0.1257,135.0,98.1,0.478
1.12,31889.9,34796.9,-0.1569,-0.2509,135.0,98.1,0.478
1.14,31815.9,34683.6,-0.2606,-0.3887,135.0,98.1,0.478
1.16,31877.5,34743.2,-0.1742,-0.3162,135.0,98.1,0.478
1.18,31808.6,34622.0,-0.2708,-0.4637,135.0,98.1,0.478
1.2,31915.7,34634.6,-0.1208,-0.4483,135.0,98.1,0.478
1.22,31789.8,34502.1,-0.2971,-0.6095,135.0,98.1,0.478
1.24,31753.7,34507.1,-0.3476,-0.6034,135.0,98.1,0.478
1.26,31735.1,34466.4,-0.3737,-0.6529,135.0,98.1,0.478
1.28,31759.3,34490.7,-0.3397,-0.6234,135.0,98.1,0.478
1.3,31862.4,34647.4,-0.1955,-0.4328,135.0,98.1,0.478
1.32,31808.1,34859.5,-0.2715,-0.1747,135.0,98.1,0.478
1.34,32124.0,35246.9,0.1709,0.2964,135.0,98.1,0.478
1.36,32227.5,35641.5,0.3159,0.7764,135.0,98.1,0.478
1.38,32343.9,35674.0,0.4789,0.816,135.0,98.1,0.478
1.4,32332.4,35704.4,0.4627,0.853,135.0,98.1,0.478
1.42,32218.9,35631.8,0.3038,0.7646,135.0,98.1,0.478
1.44,32199.8,35422.8,0.277,0.5104,135.0,98.1,0.478
1.46,32138.7,35181.7,0.1915,0.2172,135.0,98.1,0.478
1.48,32032.6,35063.0,0.0429,0.0728,135.0,98.1,0.478
1.5,32163.9,35047.4,0.2268,0.0537,135.0,98.1,0.478
1.52,32128.2,34986.4,0.1769,-0.0204,135.0,98.1,0.478
1.54,32032.3,34937.9,0.0424,-0.0794,135.0,98.1,0.478
1.56,31909.3,34902.4,-0.1298,-0.1226,135.0,98.1,0.478
1.58,31887.7,34702.6,-0.16,-0.3656,135.0,98.1,0.478
1.6,31938.5,34711.1,-0.0888,-0.3552,135.0,98.1,0.478
1.62,31901.9,34646.9,-0.1402,-0.4333,135.0,98.1,0.478
1.64,31825.1,34571.2,-0.2477,-0.5254,135.0,98.1,0.478
1.66,31809.3,34602.6,-0.2698,-0.4872,135.0,98.1,0.478
1.68,31828.9,34554.2,-0.2423,-0.5462,135.0,98.1,0.478
1.7,31796.7,34515.6,-0.2875,-0.593,135.0,98.1,0.478
1.72,31834.7,34455.0,-0.2342,-0.6668,135.0,98.1,0.478
1.74,31826.9,34598.7,-0.2451,-0.492,135.0,98.1,0.478
1.76,31948.1,34814.3,-0.0753,-0.2298,135.0,98.1,0.478
1.78,32091.2,35227.1,0.1249,0.2724,135.0,98.1,0.478
1.8,32202.9,35562.2,0.2815,0.68,135.0,98.1,0.478
1.82,32390.0,35630.4,0.5435,0.763,135.0,98.1,0.478
1.84,32340.2,35727.7,0.4736,0.8812,135.0,98.1,0.478
1.86,32215.5,35714.4,0.2991,0.8651,135.0,98.1,0.478
1.88,32189.3,35387.5,0.2623,0.4675,135.0,98.1,0.478
1.9,32115.6,35326.5,0.1592,0.3933,135.0,98.1,0.478
1.92,32089.2,35170.4,0.1222,0.2034,135.0,98.1,0.478
1.94,32028.7,35222.5,0.0375,0.2667,135.0,98.1,0.478
1.96,32018.7,35050.6,0.0234,0.0577,135.0,98.1,0.478
1.98,31993.5,35009.2,-0.0119,0.0073,135.0,98.1,0.478
2.0,31978.4,34834.0,-0.033,-0.2058,135.0,98.1,0.478
2.02,31845.0,34836.1,-0.2197,-0.2032,135.0,98.1,0.478
2.04,31981.2,34670.7,-0.029,-0.4045,135.0,98.1,0.478
2.06,31884.5,34812.1,-0.1644,-0.2324,135.0,98.1,0.478
2.08,31732.6,34654.8,-0.3773,-0.4238,135.0,98.1,0.478
2.1,31840.0,34591.9,-0.2267,-0.5003,135.0,98.1,0.478
2.12,31813.3,34655.8,-0.2642,-0.4225,135.0,98.1,0.478
2.14,31823.9,34505.0,-0.2493,-0.6059,135.0,98.1,0.478
2.16,31752.0,34445.8,-0.3501,-0.678,135.0,98.1,0.478
2.18,31812.6,34582.2,-0.2652,-0.512,135.0,98.1,0.478
2.2,31834.7,34822.7,-0.2343,-0.2196,135.0,98.1,0.478
2.22,32038.7,35175.7,0.0515,0.2098,135.0,98.1,0.478
2.24,32276.5,35514.0,0.3845,0.6213,135.0,98.1,0.478
2.26,32247.3,35637.9,0.3436,0.772,135.0,98.1,0.478
2.28,32382.4,35728.2,0.5328,0.882,135.0,98.1,0.478
2.3,32275.5,35627.7,0.3831,0.7596,135.0,98.1,0.478
2.32,32125.0,35453.4,0.1724,0.5477,135.0,98.1,0.478
2.34,32149.7,35343.9,0.2068,0.4145,135.0,98.1,0.478
2.36,32045.4,35134.6,0.0609,0.1598,135.0,98.1,0.478
2.38,31974.9,35171.3,-0.0379,0.2045,135.0,98.1,0.478
2.4,32173.6,35076.0,0.2404,0.0886,135.0,98.1,0.478
2.42,31976.8,35025.2,-0.0353,0.0268,135.0,98.1,0.478
2.44,32017.2,34937.7,0.0213,-0.0796,135.0,98.1,0.478
2.46,31835.4,34884.4,-0.2333,-0.1445,135.0,98.1,0.478
2.48,31860.5,34631.8,-0.1981,-0.4518,135.0,98.1,0.478
2.5,31805.2,34659.5,-0.2755,-0.418,135.0,98.1,0.478
2.52,31895.7,34678.6,-0.1488,-0.3949,135.0,98.1,0.478
2.54,31850.8,34650.4,-0.2116,-0.4291,135.0,98.1,0.478
2.56,31890.8,34566.4,-0.1557,-0.5313,135.0,98.1,0.478
2.58,31812.1,34537.7,-0.2659,-0.5662,135.0,98.1,0.478
2.6,31865.0,34431.4,-0.1918,-0.6955,135.0,98.1,0.478
2.62,31829.8,34621.8,-0.2411,-0.4639,135.0,98.1,0.478
2.64,31865.4,34726.5,-0.1912,-0.3366,135.0,98.1,0.478
2.66,32067.0,35026.0,0.0912,0.0278,135.0,98.1,0.478
2.68,32222.5,35439.4,0.3089,0.5306,135.0,98.1,0.478
2.7,32264.3,35677.2,0.3674,0.8199,135.0,98.1,0.478
2.72,32303.1,35682.1,0.4217,0.8258,135.0,98.1,0.478
2.74,32304.5,35649.5,0.4237,0.7862,135.0,98.1,0.478
2.76,32330.5,35435.5,0.4601,0.5259,135.0,98.1,0.478
2.78,32166.5,35374.3,0.2305,0.4515,135.0,98.1,0.478
2.8,32086.7,35223.4,0.1187,0.2679,135.0,98.1,0.478
2.82,32031.3,35125.6,0.0411,0.1489,135.0,98.1,0.478
2.84,32088.0,35035.9,0.1204,0.0398,135.0,98.1,0.478
2.86,32045.7,35016.4,0.0613,0.0161,135.0,98.1,0.478
2.88,32057.0,34938.1,0.077,-0.0792,135.0,98.1,0.478
2.9,31932.6,34897.1,-0.0971,-0.1291,135.0,98.1,0.478
2.92,31944.3,34801.3,-0.0807,-0.2455,135.0,98.1,0.478
2.94,31898.7,34630.3,-0.1446,-0.4536,135.0,98.1,0.478
2.96,31831.5,34685.0,-0.2387,-0.387,135.0,98.1,0.478
2.98,31875.6,34750.7,-0.177,-0.3072,135.0,98.1,0.478
3.0,31831.1,34557.0,-0.2392,-0.5427,135.0,98.1,0.478
3.02,31816.4,34541.4,-0.2599,-0.5616,135.0,98.1,0.478
3.04,31815.6,34442.0,-0.2609,-0.6826,135.0,98.1,0.478
3.06,31793.5,34393.3,-0.2919,-0.7419,135.0,98.1,0.478
3.08,31891.1,34759.4,-0.1552,-0.2965,135.0,98.1,0.478
3.1,31955.1,34896.3,-0.0656,-0.13,135.0,98.1,0.478
3.12,32074.2,35328.8,0.1012,0.3961,135.0,98.1,0.478
3.14,32177.3,35605.4,0.2456,0.7325,135.0,98.1,0.478
3.16,32332.4,35718.8,0.4627,0.8705,135.0,98.1,0.478
3.18,32301.8,35750.1,0.4199,0.9086,135.0,98.1,0.478
3.2,32246.5,35560.9,0.3424,0.6784,135.0,98.1,0.478
3.22,32158.2,35414.7,0.2189,0.5006,135.0,98.1,0.478
3.24,32083.9,35177.5,0.1148,0.2121,135.0,98.1,0.478
3.26,32013.0,35073.3,0.0154,0.0853,135.0,98.1,0.478
3.28,32158.3,35118.6,0.219,0.1404,135.0,98.1,0.478
3.3,32061.8,35020.9,0.0839,0.0216,135.0,98.1,0.478
3.32,32113.4,34893.9,0.156,-0.1329,135.0,98.1,0.478
3.34,31884.4,34846.0,-0.1646,-0.1912,135.0,98.1,0.478
3.36,31822.0,34778.3,-0.252,-0.2735,135.0,98.1,0.478
3.38,31906.4,34698.4,-0.1339,-0.3707,135.0,98.1,0.478
3.4,31902.7,34746.4,-0.1391,-0.3123,135.0,98.1,0.478
3.42,31789.2,34645.1,-0.2979,-0.4355,135.0,98.1,0.478
3.44,31943.1,34658.5,-0.0824,-0.4193,135.0,98.1,0.478
3.46,31728.7,34594.5,-0.3826,-0.4971,135.0,98.1,0.478
3.48,31757.0,34415.4,-0.343,-0.715,135.0,98.1,0.478
3.5,31780.3,34463.4,-0.3103,-0.6566,135.0,98.1,0.478
3.52,31814.9,34654.4,-0.2619,-0.4242,135.0,98.1,0.478
3.54,31982.9,34839.4,-0.0267,-0.1992,135.0,98.1,0.478
3.56,32163.5,35299.1,0.2262,0.36,135.0,98.1,0.478
3.58,32246.8,35562.1,0.3429,0.6799,135.0,98.1,0.478
3.6,32253.7,35685.8,0.3526,0.8303,135.0,98.1,0.478
3.62,32218.4,35778.0,0.3031,0.9425,135.0,98.1,0.478
3.64,32374.9,35671.2,0.5223,0.8126,135.0,98.1,0.478
3.66,32181.6,35381.3,0.2516,0.46,135.0,98.1,0.478
3.68,32150.0,35278.3,0.2073,0.3346,135.0,98.1,0.478
3.7,32152.5,35167.5,0.2109,0.1999,135.0,98.1,0.478
3.72,32013.1,35138.8,0.0156,0.1649,135.0,98.1,0.478
3.74,31973.3,35125.3,-0.0402,0.1486,135.0,98.1,0.478
3.76,32011.6,35071.6,0.0136,0.0832,135.0,98.1,0.478
3.78,32028.8,34846.6,0.0376,-0.1904,135.0,98.1,0.478
3.8,31840.9,34850.6,-0.2256,-0.1856,135.0,98.1,0.478
3.82,31884.6,34792.7,-0.1644,-0.2561,135.0,98.1,0.478
3.84,31907.6,34645.3,-0.1321,-0.4353,135.0,98.1,0.478
3.86,31792.6,34672.5,-0.2932,-0.4023,135.0,98.1,0.478
3.88,31875.3,34703.5,-0.1774,-0.3646,135.0,98.1,0.478
3.9,31856.9,34622.4,-0.2031,-0.4632,135.0,98.1,0.478
3.92,31785.2,34507.3,-0.3036,-0.6031,135.0,98.1,0.478
3.94,31747.9,34484.8,-0.3558,-0.6306,135.0,98.1,0.478
3.96,31774.7,34572.7,-0.3182,-0.5237,135.0,98.1,0.478
3.98,31904.9,34699.0,-0.1359,-0.37,135.0,98.1,0.478
4.0,32019.4,35184.3,0.0245,0.2203,135.0,98.1,0.478
4.02,32175.0,35468.9,0.2424,0.5665,135.0,98.1,0.478
4.04,32223.9,35695.4,0.3108,0.842,135.0,98.1,0.478
4.06,32323.5,35735.3,0.4502,0.8905,135.0,98.1,0.478
4.08,32183.2,35601.8,0.2538,0.7282,135.0,98.1,0.478
4.1,32240.2,35472.9,0.3336,0.5714,135.0,98.1,0.478
4.12,32123.1,35398.6,0.1696,0.481,135.0,98.1,0.478
4.14,32017.6,35125.4,0.022,0.1487,135.0,98.1,0.478
4.16,32014.5,35128.9,0.0176,0.1529,135.0,98.1,0.478
4.18,32053.2,35042.3,0.0718,0.0476,135.0,98.1,0.478
4.2,31992.3,35002.5,-0.0136,-0.0008,135.0,98.1,0.478
4.22,31961.5,34846.1,-0.0567,-0.191,135.0,98.1,0.478
4.24,31937.9,34760.6,-0.0897,-0.295,135.0,98.1,0.478
4.26,31801.6,34709.9,-0.2805,-0.3567,135.0,98.1,0.478
4.28,31750.0,34745.6,-0.3528,-0.3133,135.0,98.1,0.478
4.3,31936.6,34713.5,-0.0916,-0.3524,135.0,98.1,0.478
4.32,31988.1,34695.9,-0.0194,-0.3738,135.0,98.1,0.478
4.34,31794.6,34578.1,-0.2904,-0.517,135.0,98.1,0.478
4.36,31744.6,34516.8,-0.3604,-0.5917,135.0,98.1,0.478
4.38,31696.6,34397.2,-0.4277,-0.7371,135.0,98.1,0.478
4.4,31789.0,34488.4,-0.2982,-0.6262,135.0,98.1,0.478
4.42,31863.7,34722.4,-0.1936,-0.3415,135.0,98.1,0.478
4.44,32141.1,34968.5,0.1949,-0.0422,135.0,98.1,0.478
4.46,32248.5,35354.6,0.3452,0.4274,135.0,98.1,0.478
4.48,32334.7,35698.0,0.466,0.8451,135.0,98.1,0.478
4.5,32330.8,35809.3,0.4605,0.9805,135.0,98.1,0.478
4.52,32299.2,35733.4,0.4163,0.8882,135.0,98.1,0.478
4.54,32291.0,35430.7,0.4048,0.5201,135.0,98.1,0.478
4.56,32167.9,35289.8,0.2324,0.3487,135.0,98.1,0.478
4.58,32050.9,35179.4,0.0686,0.2143,135.0,98.1,0.478
4.6,32064.7,35037.7,0.0878,0.042,135.0,98.1,0.478
4.62,32070.7,35020.3,0.0963,0.0208,135.0,98.1,0.478
4.64,32029.0,35042.0,0.0379,0.0473,135.0,98.1,0.478
4.66,31919.6,35015.6,-0.1153,0.0151,135.0,98.1,0.478
4.68,31860.9,34809.6,-0.1975,-0.2355,135.0,98.1,0.478
4.7,31880.9,34700.4,-0.1696,-0.3682,135.0,98.1,0.478
4.72,31821.0,34633.6,-0.2534,-0.4495,135.0,98.1,0.478
4.74,31900.5,34671.3,-0.1421,-0.4037,135.0,98.1,0.478
4.76,31911.3,34642.2,-0.127,-0.439,135.0,98.1,0.478
4.78,31841.2,34506.2,-0.225,-0.6046,135.0,98.1,0.478
4.8,31782.3,34568.2,-0.3076,-0.5291,135.0,98.1,0.478
4.82,31797.3,34413.9,-0.2866,-0.7168,135.0,98.1,0.478
4.84,31852.4,34489.6,-0.2095,-0.6247,135.0,98.1,0.478
4.86,31853.8,34735.8,-0.2074,-0.3252,135.0,98.1,0.478
4.88,31984.8,35016.6,-0.0241,0.0164,135.0,98.1,0.478
4.9,32168.6,35304.4,0.2333,0.3664,135.0,98.1,0.478
4.92,32316.3,35631.4,0.4401,0.7641,135.0,98.1,0.478
4.94,32274.4,35754.8,0.3816,0.9143,135.0,98.1,0.478
4.96,32354.3,35706.9,0.4934,0.856,135.0,98.1,0.478
4.98,32277.5,35612.0,0.3859,0.7405,135.0,98.1,0.478
5.0,32241.0,35387.4,0.3347,0.4674,135.0,98.1,0.478
5.02,32104.6,35229.0,0.1437,0.2747,135.0,98.1,0.478
5.04,32016.5,35205.2,0.0204,0.2458,135.0,98.1,0.478
5.06,31994.8,35126.8,-0.0101,0.1504,135.0,98.1,0.478
5.08,32086.7,35070.9,0.1186,0.0824,135.0,98.1,0.478
5.1,31943.6,34975.1,-0.0817,-0.0342,135.0,98.1,0.478
5.12,31886.7,34907.3,-0.1614,-0.1166,135.0,98.1,0.478
5.14,31910.3,34682.7,-0.1283,-0.3898,135.0,98.1,0.478
5.16,31885.9,34698.8,-0.1625,-0.3702,135.0,98.1,0.478
5.18,31823.2,34697.9,-0.2504,-0.3713,135.0,98.1,0.478
5.2,31798.9,34673.2,-0.2843,-0.4014,135.0,98.1,0.478
5.22,31822.9,34610.1,-0.2508,-0.4781,135.0,98.1,0.478
5.24,31747.7,34585.7,-0.356,-0.5078,135.0,98.1,0.478
5.26,31763.7,34423.9,-0.3336,-0.7047,135.0,98.1,0.478
5.28,31821.5,34463.9,-0.2527,-0.656,135.0,98.1,0.478
5.3,31891.6,34695.8,-0.1546,-0.3738,135.0,98.1,0.478
5.32,31902.1,34813.9,-0.1398,-0.2303,135.0,98.1,0.478
5.34,32106.3,35319.0,0.1461,0.3841,135.0,98.1,0.478
5.36,32257.7,35581.2,0.3581,0.7031,135.0,98.1,0.478
5.38,32301.8,35671.7,0.4199,0.8132,135.0,98.1,0.478
5.4,32349.5,35686.7,0.4868,0.8314,135.0,98.1,0.478
5.42,32200.2,35573.9,0.2776,0.6942,135.0,98.1,0.478
5.44,32192.8,35375.1,0.2673,0.4524,135.0,98.1,0.478
5.46,32055.5,35215.2,0.075,0.2579,135.0,98.1,0.478
5.48,32111.6,35175.8,0.1535,0.21,135.0,98.1,0.478
5.5,32101.9,35140.4,0.1399,0.167,135.0,98.1,0.478
5.52,32063.3,35053.4,0.086,0.0611,135.0,98.1,0.478
5.54,32011.2,34910.0,0.013,-0.1133,135.0,98.1,0.478
5.56,31976.1,34767.4,-0.0362,-0.2867,135.0,98.1,0.478
5.58,31901.0,34726.6,-0.1414,-0.3364,135.0,98.1,0.478
5.6,31808.6,34730.2,-0.2708,-0.332,135.0,98.1,0.478
5.62,31789.7,34640.9,-0.2973,-0.4407,135.0,98.1,0.478
5.64,31859.8,34730.3,-0.1991,-0.332,135.0,98.1,0.478
5.66,31811.2,34607.3,-0.2672,-0.4816,135.0,98.1,0.478
5.68,31808.6,34537.2,-0.2707,-0.5667,135.0,98.1,0.478
5.7,31785.0,34423.0,-0.3039,-0.7057,135.0,98.1,0.478
5.72,31739.1,34473.2,-0.368,-0.6447,135.0,98.1,0.478
5.74,31814.5,34556.4,-0.2626,-0.5434,135.0,98.1,0.478
5.76,32021.9,34908.4,0.0279,-0.1153,135.0,98.1,0.478
5.78,31979.8,35273.6,-0.031,0.329,135.0,98.1,0.478
5.8,32268.0,35466.9,0.3725,0.5641,135.0,98.1,0.478
5.82,32322.8,35683.7,0.4493,0.8278,135.0,98.1,0.478
5.84,32384.7,35741.0,0.536,0.8975,135.0,98.1,0.478
5.86,32252.7,35597.7,0.3511,0.7232,135.0,98.1,0.478
5.88,32164.7,35527.9,0.228,0.6383,135.0,98.1,0.478
5.9,32181.1,35267.6,0.2509,0.3217,135.0,98.1,0.478
5.92,32011.6,35142.0,0.0135,0.1689,135.0,98.1,0.478
5.94,32172.4,35128.8,0.2387,0.1528,135.0,98.1,0.478
5.96,32131.8,35081.4,0.1818,0.0951,135.0,98.1,0.478
5.98,32012.2,35007.0,0.0144,0.0047,135.0,98.1,0.478
6.0,31959.7,34994.0,-0.0591,-0.0112,135.0,98.1,0.478
6.02,31871.3,34740.3,-0.183,-0.3197,135.0,98.1,0.478
6.04,31823.3,34687.8,-0.2502,-0.3837,135.0,98.1,0.478
6.06,31870.8,34693.8,-0.1837,-0.3763,135.0,98.1,0.478
6.08,31913.4,34726.3,-0.124,-0.3368,135.0,98.1,0.478
6.1,31831.6,34741.6,-0.2386,-0.3182,135.0,98.1,0.478
6.12,31855.2,34600.2,-0.2056,-0.4902,135.0,98.1,0.478
6.14,31752.6,34485.2,-0.3492,-0.6301,135.0,98.1,0.478
6.16,31750.3,34517.4,-0.3525,-0.5908,135.0,98.1,0.478
6.18,31860.9,34599.9,-0.1976,-0.4905,135.0,98.1,0.478
6.2,31891.3,34944.0,-0.155,-0.072,135.0,98.1,0.478
6.22,32134.6,35170.8,0.1858,0.2039,135.0,98.1,0.478
6.24,32159.2,35481.5,0.2201,0.5819,135.0,98.1,0.478
6.26,32250.4,35766.7,0.348,0.9288,135.0,98.1,0.478
6.28,32309.7,35743.8,0.431,0.9009,135.0,98.1,0.478
6.3,32330.4,35728.6,0.4599,0.8824,135.0,98.1,0.478
6.32,32037.4,35420.5,0.0496,0.5077,135.0,98.1,0.478
6.34,32099.4,35223.5,0.1364,0.2681,135.0,98.1,0.478
6.36,32009.1,35202.0,0.0099,0.2418,135.0,98.1,0.478
6.38,32072.2,35108.2,0.0983,0.1278,135.0,98.1,0.478
6.4,32114.6,35068.3,0.1578,0.0793,135.0,98.1,0.478
6.42,32004.9,34956.1,0.0041,-0.0572,135.0,98.1,0.478
6.44,31981.1,34798.2,-0.0292,-0.2493,135.0,98.1,0.478
6.46,31990.5,34773.9,-0.016,-0.2789,135.0,98.1,0.478
6.48,31928.5,34780.3,-0.1029,-0.2711,135.0,98.1,0.478
6.5,31893.7,34680.6,-0.1517,-0.3923,135.0,98.1,0.478
6.52,31844.7,34613.3,-0.2202,-0.4742,135.0,98.1,0.478
6.54,31775.1,34529.1,-0.3177,-0.5767,135.0,98.1,0.478
6.56,31854.3,34617.7,-0.2068,-0.4689,135.0,98.1,0.478
6.58,31768.9,34432.9,-0.3264,-0.6937,135.0,98.1,0.478
6.6,31752.3,34428.2,-0.3496,-0.6994,135.0,98.1,0.478
6.62,31834.6,34471.5,-0.2344,-0.6467,135.0,98.1,0.478
6.64,31771.9,34681.5,-0.3222,-0.3913,135.0,98.1,0.478
6.66,32062.4,35034.5,0.0846,0.0381,135.0,98.1,0.478
6.68,32190.6,35431.2,0.2641,0.5206,135.0,98.1,0.478
6.7,32207.6,35643.0,0.2879,0.7782,135.0,98.1,0.478
6.72,32379.5,35752.7,0.5288,0.9117,135.0,98.1,0.478
6.74,32291.9,35763.3,0.406,0.9246,135.0,98.1,0.478
6.76,32205.3,35626.5,0.2848,0.7582,135.0,98.1,0.478
6.78,32158.7,35339.9,0.2195,0.4096,135.0,98.1,0.478
6.8,32214.1,35200.8,0.2971,0.2403,135.0,98.1,0.478
6.82,32122.9,35146.7,0.1693,0.1746,135.0,98.1,0.478
6.84,32066.6,35121.8,0.0905,0.1443,135.0,98.1,0.478
6.86,31988.8,35103.4,-0.0185,0.1219,135.0,98.1,0.478
6.88,31989.9,34867.9,-0.0169,-0.1646,135.0,98.1,0.478
6.9,31920.1,34863.8,-0.1146,-0.1696,135.0,98.1,0.478
6.92,31946.2,34705.6,-0.0781,-0.362,135.0,98.1,0.478
6.94,31842.5,34647.5,-0.2232,-0.4326,135.0,98.1,0.478
6.96,31942.2,34710.2,-0.0836,-0.3564,135.0,98.1,0.478
6.98,31857.0,34653.4,-0.203,-0.4254,135.0,98.1,0.478
7.0,31917.9,34585.2,-0.1177,-0.5084,135.0,98.1,0.478
7.02,31735.4,34481.4,-0.3732,-0.6346,135.0,98.1,0.478
7.04,31786.7,34447.5,-0.3014,-0.6759,135.0,98.1,0.478
7.06,31785.7,34624.9,-0.3028,-0.4601,135.0,98.1,0.478
7.08,31785.0,34629.1,-0.3039,-0.455,135.0,98.1,0.478
7.1,31974.5,34952.7,-0.0384,-0.0614,135.0,98.1,0.478
7.12,32152.5,35358.4,0.2109,0.4321,135.0,98.1,0.478
7.14,32274.3,35584.9,0.3814,0.7075,135.0,98.1,0.478
7.16,32352.6,35872.3,0.4911,1.0572,135.0,98.1,0.478
7.18,32287.7,35649.9,0.4002,0.7867,135.0,98.1,0.478
7.2,32233.1,35598.5,0.3236,0.7241,135.0,98.1,0.478
7.22,32210.7,35325.7,0.2923,0.3923,135.0,98.1,0.478
7.24,32040.9,35261.4,0.0545,0.3141,135.0,98.1,0.478
7.26,32092.8,35113.9,0.1272,0.1346,135.0,98.1,0.478
7.28,31878.0,35152.2,-0.1735,0.1813,135.0,98.1,0.478
7.3,31970.3,35084.1,-0.0444,0.0985,135.0,98.1,0.478
7.32,31920.2,34909.6,-0.1144,-0.1138,135.0,98.1,0.478
7.34,31868.8,34855.6,-0.1864,-0.1795,135.0,98.1,0.478
7.36,31854.7,34718.7,-0.2063,-0.3461,135.0,98.1,0.478
7.38,31829.7,34616.8,-0.2413,-0.47,135.0,98.1,0.478
7.4,31870.9,34684.9,-0.1836,-0.3871,135.0,98.1,0.478
7.42,31914.3,34667.1,-0.1227,-0.4088,135.0,98.1,0.478
7.44,31759.2,34649.5,-0.34,-0.4302,135.0,98.1,0.478
7.46,31774.1,34543.3,-0.3191,-0.5594,135.0,98.1,0.478
7.48,31710.7,34446.0,-0.4079,-0.6777,135.0,98.1,0.478
7.5,31762.8,34433.4,-0.3349,-0.6931,135.0,98.1,0.478
7.52,31820.2,34598.8,-0.2546,-0.4918,135.0,98.1,0.478
7.54,31850.4,34949.7,-0.2122,-0.065,135.0,98.1,0.478
7.56,32213.2,35212.6,0.2959,0.2548,135.0,98.1,0.478
7.58,32234.7,35573.2,0.3259,0.6933,135.0,98.1,0.478
7.6,32320.8,35759.0,0.4465,0.9193,135.0,98.1,0.478
7.62,32283.5,35749.5,0.3943,0.9078,135.0,98.1,0.478
7.64,32221.4,35668.8,0.3073,0.8097,135.0,98.1,0.478
7.66,32266.1,35357.8,0.3699,0.4313,135.0,98.1,0.478
7.68,32088.2,35290.2,0.1207,0.3491,135.0,98.1,0.478
7.7,32073.2,35171.6,0.0998,0.2048,135.0,98.1,0.478
7.72,31989.2,35007.7,-0.0179,0.0055,135.0,98.1,0.478
7.74,31970.0,35011.1,-0.0448,0.0096,135.0,98.1,0.478
7.76,31940.7,34961.6,-0.0858,-0.0506,135.0,98.1,0.478
7.78,31960.6,34945.1,-0.058,-0.0707,135.0,98.1,0.478
7.8,31830.7,34769.5,-0.2398,-0.2842,135.0,98.1,0.478
7.82,31874.2,34652.1,-0.1789,-0.4271,135.0,98.1,0.478
7.84,31845.6,34687.8,-0.2189,-0.3836,135.0,98.1,0.478
7.86,31877.2,34695.6,-0.1746,-0.3742,135.0,98.1,0.478
7.88,31909.6,34672.9,-0.1294,-0.4017,135.0,98.1,0.478
7.9,31831.4,34497.0,-0.2389,-0.6157,135.0,98.1,0.478
7.92,31794.2,34419.5,-0.291,-0.71,135.0,98.1,0.478
7.94,31704.1,34538.3,-0.4172,-0.5655,135.0,98.1,0.478
7.96,31869.6,34574.9,-0.1853,-0.521,135.0,98.1,0.478
7.98,31912.3,34798.6,-0.1255,-0.2489,135.0,98.1,0.478
8.0,32048.8,35207.3,0.0656,0.2483,135.0,98.1,0.478
8.02,32302.2,35524.3,0.4205,0.6339,135.0,98.1,0.478
8.04,32443.7,35679.6,0.6186,0.8228,135.0,98.1,0.478
8.06,32326.8,35855.8,0.4549,1.0371,135.0,98.1,0.478
8.08,32178.9,35666.5,0.2477,0.8069,135.0,98.1,0.478
8.1,32140.6,35431.3,0.1942,0.5208,135.0,98.1,0.478
8.12,32158.0,35278.1,0.2185,0.3344,135.0,98.1,0.478
8.14,32099.4,35113.5,0.1365,0.1342,135.0,98.1,0.478
8.16,32071.5,35114.7,0.0974,0.1356,135.0,98.1,0.478
8.18,32112.9,35109.8,0.1553,0.1296,135.0,98.1,0.478
8.2,31994.9,34895.0,-0.0098,-0.1316,135.0,98.1,0.478
8.22,32007.6,34948.2,0.0079,-0.0669,135.0,98.1,0.478
8.24,31960.9,34814.1,-0.0574,-0.23,135.0,98.1,0.478
8.26,31931.5,34751.2,-0.0987,-0.3064,135.0,98.1,0.478
8.28,31783.9,34583.7,-0.3053,-0.5102,135.0,98.1,0.478
8.3,31811.6,34768.1,-0.2665,-0.286,135.0,98.1,0.478
8.32,31839.6,34602.2,-0.2273,-0.4877,135.0,98.1,0.478
8.34,31792.8,34654.0,-0.2929,-0.4247,135.0,98.1,0.478
8.36,31790.9,34509.6,-0.2955,-0.6004,135.0,98.1,0.478
8.38,31671.5,34460.8,-0.4628,-0.6597,135.0,98.1,0.478
8.4,31752.0,34635.9,-0.3501,-0.4467,135.0,98.1,0.478
8.42,31868.2,34778.5,-0.1873,-0.2732,135.0,98.1,0.478
8.44,32049.9,35036.1,0.0672,0.0401,135.0,98.1,0.478
8.46,32226.1,35443.8,0.3139,0.536,135.0,98.1,0.478
8.48,32325.0,35637.4,0.4524,0.7714,135.0,98.1,0.478
8.5,32227.1,35765.6,0.3153,0.9273,135.0,98.1,0.478
8.52,32244.2,35591.3,0.3392,0.7153,135.0,98.1,0.478
8.54,32270.8,35461.5,0.3765,0.5575,135.0,98.1,0.478
8.56,32153.8,35311.3,0.2126,0.3748,135.0,98.1,0.478
8.58,32041.0,35145.4,0.0546,0.173,135.0,98.1,0.478
8.6,32079.2,35015.3,0.1082,0.0148,135.0,98.1,0.478
8.62,32128.7,35128.3,0.1775,0.1521,135.0,98.1,0.478
8.64,32040.0,35050.0,0.0532,0.0569,135.0,98.1,0.478
8.66,31963.4,34933.6,-0.054,-0.0846,135.0,98.1,0.478
8.68,31884.2,34727.9,-0.165,-0.3348,135.0,98.1,0.478
8.7,31933.0,34777.0,-0.0966,-0.2751,135.0,98.1,0.478
8.72,31842.7,34696.1,-0.223,-0.3735,135.0,98.1,0.478
8.74,31874.3,34702.1,-0.1787,-0.3663,135.0,98.1,0.478
8.76,31802.4,34612.3,-0.2795,-0.4755,135.0,98.1,0.478
8.78,31780.1,34591.9,-0.3107,-0.5003,135.0,98.1,0.478
8.8,31722.4,34477.3,-0.3915,-0.6397,135.0,98.1,0.478
8.82,31737.8,34495.1,-0.3699,-0.6181,135.0,98.1,0.478
8.84,31759.6,34501.9,-0.3394,-0.6097,135.0,98.1,0.478
8.86,31847.3,34657.6,-0.2166,-0.4203,135.0,98.1,0.478
8.88,31949.0,35015.6,-0.0741,0.0151,135.0,98.1,0.478
8.9,32117.5,35419.8,0.1618,0.5067,135.0,98.1,0.478
8.92,32307.5,35720.6,0.4279,0.8726,135.0,98.1,0.478
8.94,32334.5,35785.8,0.4658,0.952,135.0,98.1,0.478
8.96,32344.1,35721.4,0.4792,0.8737,135.0,98.1,0.478
8.98,32219.6,35530.0,0.3048,0.6409,135.0,98.1,0.478
9.0,32132.1,35401.7,0.1823,0.4848,135.0,98.1,0.478
9.02,32073.9,35258.3,0.1008,0.3104,135.0,98.1,0.478
9.04,32067.1,35154.4,0.0912,0.1839,135.0,98.1,0.478
9.06,32053.4,35093.5,0.0721,0.1098,135.0,98.1,0.478
9.08,32055.8,35027.0,0.0753,0.029,135.0,98.1,0.478
9.1,31965.8,34878.5,-0.0506,-0.1516,135.0,98.1,0.478
9.12,31897.9,34674.2,-0.1458,-0.4002,135.0,98.1,0.478
9.14,31899.5,34674.9,-0.1434,-0.3994,135.0,98.1,0.478
9.16,31805.8,34682.3,-0.2748,-0.3903,135.0,98.1,0.478
9.18,31917.3,34743.1,-0.1186,-0.3163,135.0,98.1,0.478
9.2,31943.5,34686.3,-0.0818,-0.3854,135.0,98.1,0.478
9.22,31842.1,34717.6,-0.2239,-0.3474,135.0,98.1,0.478
9.24,31778.5,34556.2,-0.3129,-0.5437,135.0,98.1,0.478
9.26,31806.7,34443.8,-0.2734,-0.6804,135.0,98.1,0.478
9.28,31743.6,34507.6,-0.3618,-0.6028,135.0,98.1,0.478
9.3,31891.3,34651.4,-0.1549,-0.4279,135.0,98.1,0.478
9.32,31902.9,34878.3,-0.1387,-0.1519,135.0,98.1,0.478
9.34,32172.7,35288.8,0.2391,0.3474,135.0,98.1,0.478
9.36,32265.5,35617.2,0.3691,0.7469,135.0,98.1,0.478
9.38,32309.2,35724.7,0.4302,0.8776,135.0,98.1,0.478
9.4,32374.6,35723.5,0.5218,0.8762,135.0,98.1,0.478
9.42,32200.4,35522.0,0.2779,0.6311,135.0,98.1,0.478
9.44,32300.8,35422.0,0.4184,0.5094,135.0,98.1,0.478
9.46,32003.2,35167.4,0.0017,0.1997,135.0,98.1,0.478
9.48,31974.4,35133.9,-0.0386,0.159,135.0,98.1,0.478
9.5,32128.7,35104.5,0.1775,0.1232,135.0,98.1,0.478
9.52,32059.6,35050.2,0.0807,0.0572,135.0,98.1,0.478
9.54,31926.1,34932.4,-0.1062,-0.0861,135.0,98.1,0.478
9.56,31981.2,34898.9,-0.0291,-0.1268,135.0,98.1,0.478
9.58,31885.2,34760.7,-0.1635,-0.2949,135.0,98.1,0.478
9.6,31919.0,34665.0,-0.1161,-0.4113,135.0,98.1,0.478
9.62,31761.3,34531.7,-0.3369,-0.5735,135.0,98.1,0.478
9.64,31783.5,34679.8,-0.3059,-0.3933,135.0,98.1,0.478
9.66,31852.7,34671.2,-0.209,-0.4038,135.0,98.1,0.478
9.68,31741.4,34479.8,-0.3648,-0.6367,135.0,98.1,0.478
9.7,31791.4,34397.4,-0.2948,-0.7368,135.0,98.1,0.478
9.72,31808.1,34464.4,-0.2715,-0.6553,135.0,98.1,0.478
9.74,31904.3,34593.8,-0.1367,-0.498,135.0,98.1,0.478
9.76,31928.9,34891.8,-0.1022,-0.1355,135.0,98.1,0.478
9.78,32058.0,35144.9,0.0785,0.1724,135.0,98.1,0.478
9.8,32384.5,35545.8,0.5357,0.66,135.0,98.1,0.478
9.82,32294.4,35753.9,0.4095,0.9132,135.0,98.1,0.478
9.84,32263.5,35746.0,0.3663,0.9036,135.0,98.1,0.478
9.86,32250.5,35638.6,0.348,0.7729,135.0,98.1,0.478
9.88,32266.0,35521.8,0.3698,0.6309,135.0,98.1,0.478
9.9,32048.4,35269.3,0.065,0.3237,135.0,98.1,0.478
9.92,32013.8,35233.3,0.0166,0.2799,135.0,98.1,0.478
9.94,32075.4,35062.7,0.1028,0.0724,135.0,98.1,0.478
9.96,32023.0,34987.3,0.0295,-0.0193,135.0,98.1,0.478
9.98,32028.8,34882.3,0.0376,-0.147,135.0,98.1,0.478
10.0,31882.1,34950.0,-0.1678,-0.0647,135.0,98.1,0.478
10.02,31827.6,34656.6,-0.2442,-0.4216,135.0,98.1,0.478
10.04,31871.3,34670.6,-0.183,-0.4046,135.0,98.1,0.478
10.06,31857.1,34635.2,-0.2028,-0.4476,135.0,98.1,0.478
10.08,31914.1,34642.7,-0.123,-0.4384,135.0,98.1,0.478
10.1,31904.6,34599.0,-0.1364,-0.4916,135.0,98.1,0.478
10.12,31704.1,34580.8,-0.4171,-0.5138,135.0,98.1,0.478
10.14,31726.5,34518.8,-0.3858,-0.5892,135.0,98.1,0.478
10.16,31807.8,34466.5,-0.2719,-0.6528,135.0,98.1,0.478
10.18,31694.1,34525.8,-0.4311,-0.5806,135.0,98.1,0.478
10.2,31943.8,34825.9,-0.0814,-0.2156,135.0,98.1,0.478
10.22,32076.0,35185.8,0.1038,0.2222,135.0,98.1,0.478
10.24,32255.2,35443.9,0.3547,0.5361,135.0,98.1,0.478
10.26,32319.8,35660.9,0.4451,0.8001,135.0,98.1,0.478
10.28,32367.1,35697.8,0.5114,0.8449,135.0,98.1,0.478
10.3,32245.9,35609.7,0.3416,0.7378,135.0,98.1,0.478
10.32,32204.9,35507.9,0.2842,0.614,135.0,98.1,0.478
10.34,32155.9,35355.0,0.2156,0.428,135.0,98.1,0.478
10.36,32100.8,35220.2,0.1384,0.2639,135.0,98.1,0.478
10.38,32031.1,35143.9,0.0409,0.1712,135.0,98.1,0.478
10.4,31967.2,35061.2,-0.0487,0.0705,135.0,98.1,0.478
10.42,31982.7,35057.6,-0.0269,0.0662,135.0,98.1,0.478
10.44,31933.0,34924.6,-0.0965,-0.0956,135.0,98.1,0.478
10.46,31899.2,34798.4,-0.1439,-0.2491,135.0,98.1,0.478
10.48,31839.7,34686.4,-0.2272,-0.3853,135.0,98.1,0.478
10.5,31931.6,34728.9,-0.0985,-0.3336,135.0,98.1,0.478
10.52,31900.6,34764.5,-0.142,-0.2903,135.0,98.1,0.478
10.54,31850.1,34642.1,-0.2127,-0.4392,135.0,98.1,0.478
10.56,31836.9,34487.6,-0.2311,-0.6271,135.0,98.1,0.478
10.58,31765.5,34445.0,-0.3312,-0.6789,135.0,98.1,0.478
10.6,31806.9,34357.8,-0.2732,-0.7851,135.0,98.1,0.478
10.62,31745.3,34523.2,-0.3594,-0.5838,135.0,98.1,0.478
10.64,31856.7,34783.4,-0.2033,-0.2673,135.0,98.1,0.478
10.66,32052.1,35140.4,0.0702,0.1669,135.0,98.1,0.478
10.68,32142.2,35380.9,0.1965,0.4595,135.0,98.1,0.478
10.7,32358.0,35575.0,0.4986,0.6955,135.0,98.1,0.478
10.72,32299.2,35845.1,0.4163,1.0241,135.0,98.1,0.478
10.74,32279.5,35607.4,0.3887,0.735,135.0,98.1,0.478
10.76,32221.9,35559.6,0.308,0.6768,135.0,98.1,0.478
10.78,32239.3,35381.1,0.3323,0.4597,135.0,98.1,0.478
10.8,32085.4,35052.7,0.1169,0.0603,135.0,98.1,0.478
10.82,32081.4,35236.1,0.1112,0.2833,135.0,98.1,0.478
10.84,31964.3,35036.0,-0.0527,0.04,135.0,98.1,0.478
10.86,32000.2,34989.1,-0.0025,-0.0172,135.0,98.1,0.478
10.88,31950.1,34854.3,-0.0726,-0.1811,135.0,98.1,0.478
10.9,31884.1,34805.6,-0.165,-0.2403,135.0,98.1,0.478
10.92,31889.1,34731.4,-0.1581,-0.3305,135.0,98.1,0.478
10.94,31819.1,34622.1,-0.256,-0.4635,135.0,98.1,0.478
10.96,31858.3,34631.6,-0.2011,-0.452,135.0,98.1,0.478
10.98,31883.7,34649.3,-0.1656,-0.4305,135.0,98.1,0.478
11.0,31795.3,34533.8,-0.2894,-0.571,135.0,98.1,0.478
11.02,31721.7,34585.4,-0.3925,-0.5081,135.0,98.1,0.478
11.04,31819.7,34459.1,-0.2552,-0.6618,135.0,98.1,0.478
11.06,31753.6,34497.1,-0.3477,-0.6156,135.0,98.1,0.478
11.08,31918.2,34698.9,-0.1173,-0.3702,135.0,98.1,0.478
11.1,31980.0,34903.2,-0.0307,-0.1217,135.0,98.1,0.478
11.12,32166.3,35309.8,0.2302,0.3729,135.0,98.1,0.478
11.14,32241.4,35673.4,0.3354,0.8153,135.0,98.1,0.478
11.16,32360.7,35771.2,0.5023,0.9342,135.0,98.1,0.478
11.18,32285.3,35699.0,0.3968,0.8464,135.0,98.1,0.478
11.2,32258.5,35551.3,0.3593,0.6667,135.0,98.1,0.478
11.22,32060.6,35367.1,0.0821,0.4427,135.0,98.1,0.478
11.24,32107.9,35200.2,0.1484,0.2396,135.0,98.1,0.478
11.26,32081.0,35089.2,0.1107,0.1046,135.0,98.1,0.478
11.28,31917.2,34999.5,-0.1187,-0.0045,135.0,98.1,0.478
11.3,31951.7,35022.7,-0.0704,0.0238,135.0,98.1,0.478
11.32,31932.5,34903.8,-0.0973,-0.1209,135.0,98.1,0.478
11.34,31867.0,34750.2,-0.1891,-0.3078,135.0,98.1,0.478
11.36,31898.4,34695.8,-0.1451,-0.3739,135.0,98.1,0.478
11.38,31832.5,34706.5,-0.2373,-0.3608,135.0,98.1,0.478
11.4,31862.6,34661.1,-0.1952,-0.4161,135.0,98.1,0.478
11.42,31899.9,34736.4,-0.143,-0.3245,135.0,98.1,0.478
11.44,31889.8,34633.9,-0.1571,-0.4491,135.0,98.1,0.478
11.46,31790.8,34604.1,-0.2957,-0.4854,135.0,98.1,0.478
11.48,31775.8,34466.0,-0.3167,-0.6535,135.0,98.1,0.478
11.5,31753.6,34520.8,-0.3477,-0.5867,135.0,98.1,0.478
11.52,31869.7,34711.3,-0.1852,-0.355,135.0,98.1,0.478
11.54,31998.8,34969.1,-0.0044,-0.0414,135.0,98.1,0.478
11.56,32147.1,35271.0,0.2033,0.3258,135.0,98.1,0.478
11.58,32242.1,35563.6,0.3363,0.6817,135.0,98.1,0.478
11.6,32418.2,35751.0,0.5829,0.9096,135.0,98.1,0.478
11.62,32363.8,35681.1,0.5067,0.8246,135.0,98.1,0.478
11.64,32254.2,35628.6,0.3533,0.7608,135.0,98.1,0.478
11.66,32149.3,35399.5,0.2063,0.4821,135.0,98.1,0.478
11.68,32150.9,35198.8,0.2085,0.2379,135.0,98.1,0.478
11.7,32039.1,35231.3,0.052,0.2775,135.0,98.1,0.478
11.72,31961.5,35074.7,-0.0567,0.087,135.0,98.1,0.478
11.74,31926.9,35078.5,-0.1051,0.0916,135.0,98.1,0.478
11.76,31955.3,34968.1,-0.0653,-0.0427,135.0,98.1,0.478
11.78,31894.2,34911.0,-0.1509,-0.1121,135.0,98.1,0.478
11.8,31765.5,34808.8,-0.3312,-0.2364,135.0,98.1,0.478
11.82,31884.3,34668.3,-0.1648,-0.4074,135.0,98.1,0.478
11.84,31854.2,34680.0,-0.2069,-0.3931,135.0,98.1,0.478
11.86,31764.7,34615.8,-0.3322,-0.4712,135.0,98.1,0.478
11.88,31842.8,34565.1,-0.2229,-0.5328,135.0,98.1,0.478
11.9,31778.9,34568.3,-0.3123,-0.5289,135.0,98.1,0.478
11.92,31775.9,34428.8,-0.3165,-0.6987,135.0,98.1,0.478
11.94,31850.8,34450.1,-0.2116,-0.6728,135.0,98.1,0.478
11.96,31742.5,34610.9,-0.3634,-0.4771,135.0,98.1,0.478
11.98,31950.2,34829.0,-0.0725,-0.2119,135.0,98.1,0.478
12.0,32074.3,35218.8,0.1013,0.2623,135.0,98.1,0.478
12.02,32207.5,35558.6,0.2879,0.6757,135.0,98.1,0.478
12.04,32356.2,35655.2,0.496,0.7931,135.0,98.1,0.478
12.06,32198.2,35747.7,0.2748,0.9056,135.0,98.1,0.478
12.08,32217.7,35615.6,0.3022,0.745,135.0,98.1,0.478
12.1,32167.7,35470.5,0.2321,0.5684,135.0,98.1,0.478
12.12,32212.9,35223.0,0.2954,0.2673,135.0,98.1,0.478
12.14,32072.6,35133.3,0.0989,0.1582,135.0,98.1,0.478
12.16,32048.2,35102.4,0.0647,0.1207,135.0,98.1,0.478
12.18,31976.4,35060.5,-0.0358,0.0698,135.0,98.1,0.478
12.2,32079.2,34943.5,0.1082,-0.0726,135.0,98.1,0.478
12.22,31919.8,34860.2,-0.1151,-0.1739,135.0,98.1,0.478
12.24,31840.5,34785.3,-0.226,-0.2651,135.0,98.1,0.478
12.26,31776.4,34711.9,-0.3158,-0.3543,135.0,98.1,0.478
12.28,31903.7,34807.6,-0.1376,-0.2378,135.0,98.1,0.478
12.3,31830.1,34696.8,-0.2407,-0.3726,135.0,98.1,0.478
12.32,31857.1,34590.6,-0.2029,-0.5019,135.0,98.1,0.478
12.34,31765.8,34622.9,-0.3308,-0.4626,135.0,98.1,0.478
12.36,31797.9,34493.7,-0.2858,-0.6197,135.0,98.1,0.478
12.38,31745.9,34398.1,-0.3586,-0.7361,135.0,98.1,0.478
12.4,31772.2,34606.7,-0.3217,-0.4823,135.0,98.1,0.478
12.42,31870.4,34815.1,-0.1842,-0.2288,135.0,98.1,0.478
12.44,32044.0,35119.1,0.0589,0.141,135.0,98.1,0.478
12.46,32167.8,35479.6,0.2322,0.5795,135.0,98.1,0.478
12.48,32237.9,35693.0,0.3305,0.8391,135.0,98.1,0.478
12.5,32249.0,35802.5,0.3459,0.9723,135.0,98.1,0.478
12.52,32312.2,35637.2,0.4344,0.7712,135.0,98.1,0.478
12.54,32240.0,35527.6,0.3333,0.6379,135.0,98.1,0.478
12.56,32089.7,35312.3,0.1229,0.376,135.0,98.1,0.478
12.58,32062.4,35151.5,0.0847,0.1805,135.0,98.1,0.478
12.6,32151.8,35176.5,0.2098,0.2108,135.0,98.1,0.478
12.62,32011.6,35030.4,0.0135,0.0331,135.0,98.1,0.478
12.64,31932.8,35028.1,-0.0968,0.0304,135.0,98.1,0.478
12.66,31997.3,34920.5,-0.0066,-0.1005,135.0,98.1,0.478
12.68,31912.8,34903.9,-0.1248,-0.1208,135.0,98.1,0.478
12.7,31869.1,34779.0,-0.186,-0.2727,135.0,98.1,0.478
12.72,31822.8,34577.9,-0.2509,-0.5173,135.0,98.1,0.478
12.74,31881.6,34601.2,-0.1686,-0.4889,135.0,98.1,0.478
12.76,31850.1,34595.5,-0.2126,-0.4959,135.0,98.1,0.478
12.78,31847.7,34561.6,-0.216,-0.5371,135.0,98.1,0.478
12.8,31878.7,34453.5,-0.1725,-0.6686,135.0,98.1,0.478
12.82,31712.1,34510.4,-0.4059,-0.5994,135.0,98.1,0.478
12.84,31891.4,34563.5,-0.1548,-0.5348,135.0,98.1,0.478
12.86,31913.1,34663.9,-0.1244,-0.4127,135.0,98.1,0.478
12.88,31939.9,34984.3,-0.0869,-0.023,135.0,98.1,0.478
12.9,32166.7,35467.6,0.2308,0.5649,135.0,98.1,0.478
12.92,32339.5,35599.1,0.4726,0.7248,135.0,98.1,0.478
12.94,32390.9,35699.9,0.5447,0.8475,135.0,98.1,0.478
12.96,32316.0,35715.0,0.4398,0.8659,135.0,98.1,0.478
12.98,32210.3,35508.9,0.2917,0.6152,135.0,98.1,0.478
13.0,32154.4,35382.6,0.2135,0.4615,135.0,98.1,0.478
13.02,32104.4,35256.0,0.1435,0.3075,135.0,98.1,0.478
13.04,32008.3,35084.5,0.0088,0.0989,135.0,98.1,0.478
13.06,32094.7,35073.1,0.1299,0.0851,135.0,98.1,0.478
13.08,32043.4,35017.6,0.058,0.0176,135.0,98.1,0.478
13.1,31980.2,34993.5,-0.0305,-0.0118,135.0,98.1,0.478
13.12,31987.0,34808.8,-0.021,-0.2364,135.0,98.1,0.478
13.14,31819.8,34729.1,-0.2551,-0.3334,135.0,98.1,0.478
13.16,31957.1,34725.4,-0.0628,-0.3379,135.0,98.1,0.478
13.18,31848.5,34612.9,-0.2148,-0.4747,135.0,98.1,0.478
13.2,31823.2,34605.4,-0.2504,-0.4839,135.0,98.1,0.478
13.22,31762.9,34569.7,-0.3348,-0.5273,135.0,98.1,0.478
13.24,31795.5,34664.6,-0.2892,-0.4118,135.0,98.1,0.478
13.26,31744.7,34498.1,-0.3602,-0.6144,135.0,98.1,0.478
13.28,31794.0,34545.5,-0.2912,-0.5567,135.0,98.1,0.478
13.3,31857.7,34781.2,-0.202,-0.27,135.0,98.1,0.478
13.32,32012.2,35045.0,0.0144,0.0509,135.0,98.1,0.478
13.34,32028.6,35295.4,0.0373,0.3554,135.0,98.1,0.478
13.36,32340.6,35623.5,0.4743,0.7546,135.0,98.1,0.478
13.38,32304.7,35833.5,0.424,1.0099,135.0,98.1,0.478
13.4,32319.1,35754.9,0.4442,0.9144,135.0,98.1,0.478
13.42,32275.5,35586.3,0.3831,0.7093,135.0,98.1,0.478
13.44,32171.6,35357.2,0.2376,0.4306,135.0,98.1,0.478
13.46,32048.1,35203.5,0.0646,0.2436,135.0,98.1,0.478
13.48,32103.9,35126.7,0.1428,0.1503,135.0,98.1,0.478
13.5,32072.2,35076.2,0.0984,0.0888,135.0,98.1,0.478
13.52,31936.7,35070.9,-0.0913,0.0824,135.0,98.1,0.478
13.54,31921.6,34981.1,-0.1125,-0.0269,135.0,98.1,0.478
13.56,32018.1,34855.7,0.0226,-0.1794,135.0,98.1,0.478
13.58,31903.0,34767.5,-0.1386,-0.2866,135.0,98.1,0.478
13.6,31940.6,34729.4,-0.0859,-0.333,135.0,98.1,0.478
13.62,31836.3,34677.5,-0.232,-0.3961,135.0,98.1,0.478
13.64,31893.4,34666.4,-0.152,-0.4097,135.0,98.1,0.478
13.66,31849.5,34711.3,-0.2135,-0.355,135.0,98.1,0.478
13.68,31794.3,34590.7,-0.2908,-0.5017,135.0,98.1,0.478
13.7,31746.9,34414.3,-0.3572,-0.7163,135.0,98.1,0.478
13.72,31750.6,34448.8,-0.3521,-0.6743,135.0,98.1,0.478
13.74,31865.8,34611.5,-0.1907,-0.4764,135.0,98.1,0.478
13.76,31955.7,34936.6,-0.0647,-0.0809,135.0,98.1,0.478
13.78,32096.1,35237.0,0.1319,0.2844,135.0,98.1,0.478
13.8,32273.3,35641.5,0.38,0.7764,135.0,98.1,0.478
13.82,32316.9,35666.0,0.441,0.8063,135.0,98.1,0.478
13.84,32285.2,35757.5,0.3967,0.9176,135.0,98.1,0.478
13.86,32203.2,35607.2,0.2819,0.7347,135.0,98.1,0.478
13.88,32248.3,35472.7,0.345,0.5711,135.0,98.1,0.478
13.9,32198.5,35282.3,0.2752,0.3395,135.0,98.1,0.478
13.92,32018.4,35060.3,0.023,0.0695,135.0,98.1,0.478
13.94,32096.0,35118.6,0.1317,0.1405,135.0,98.1,0.478
13.96,32022.1,35074.6,0.0282,0.0869,135.0,98.1,0.478
13.98,32065.5,34989.8,0.089,-0.0162,135.0,98.1,0.478
14.0,31810.0,34885.1,-0.2689,-0.1437,135.0,98.1,0.478
14.02,31914.5,34749.7,-0.1225,-0.3083,135.0,98.1,0.478
14.04,31884.7,34724.4,-0.1643,-0.3391,135.0,98.1,0.478
14.06,31874.7,34708.7,-0.1783,-0.3581,135.0,98.1,0.478
14.08,31828.4,34722.1,-0.243,-0.3419,135.0,98.1,0.478
14.1,31802.0,34678.6,-0.28,-0.3948,135.0,98.1,0.478
14.12,31781.9,34593.7,-0.3081,-0.4981,135.0,98.1,0.478
14.14,31687.7,34418.1,-0.4401,-0.7117,135.0,98.1,0.478
14.16,31776.3,34501.2,-0.3161,-0.6106,135.0,98.1,0.478
14.18,31855.2,34572.9,-0.2056,-0.5234,135.0,98.1,0.478
14.2,32013.6,34935.9,0.0163,-0.0818,135.0,98.1,0.478
14.22,32031.4,35123.1,0.0412,0.1459,135.0,98.1,0.478
14.24,32256.8,35432.0,0.3568,0.5216,135.0,98.1,0.478
14.26,32318.5,35746.4,0.4434,0.9041,135.0,98.1,0.478
14.28,32355.6,35802.2,0.4953,0.972,135.0,98.1,0.478
14.3,32376.1,35634.5,0.5239,0.7679,135.0,98.1,0.478
14.32,32125.1,35474.4,0.1724,0.5732,135.0,98.1,0.478
14.34,32019.0,35283.0,0.0239,0.3404,135.0,98.1,0.478
14.36,31974.6,35184.9,-0.0383,0.2211,135.0,98.1,0.478
14.38,32009.6,35107.5,0.0108,0.1269,135.0,98.1,0.478
14.4,32026.0,35027.8,0.0337,0.0299,135.0,98.1,0.478
14.42,31967.3,34886.6,-0.0485,-0.1418,135.0,98.1,0.478
14.44,31918.7,34904.1,-0.1166,-0.1206,135.0,98.1,0.478
14.46,32018.8,34705.4,0.0236,-0.3622,135.0,98.1,0.478
14.48,31865.4,34754.5,-0.1912,-0.3025,135.0,98.1,0.478
14.5,31871.6,34740.8,-0.1826,-0.3192,135.0,98.1,0.478
14.52,31873.0,34708.0,-0.1806,-0.359,135.0,98.1,0.478
14.54,31813.8,34584.0,-0.2634,-0.5099,135.0,98.1,0.478
14.56,31826.1,34595.3,-0.2463,-0.4961,135.0,98.1,0.478
14.58,31678.9,34478.8,-0.4525,-0.6379,135.0,98.1,0.478
14.6,31719.2,34468.6,-0.3959,-0.6502,135.0,98.1,0.478
14.62,31770.9,34493.6,-0.3235,-0.6198,135.0,98.1,0.478
14.64,31875.0,34714.0,-0.1778,-0.3518,135.0,98.1,0.478
14.66,31943.3,35069.2,-0.0822,0.0803,135.0,98.1,0.478
14.68,32199.8,35267.9,0.2771,0.3221,135.0,98.1,0.478
14.7,32305.8,35711.6,0.4256,0.8618,135.0,98.1,0.478
14.72,32275.1,35790.3,0.3826,0.9574,135.0,98.1,0.478
14.74,32267.4,35652.4,0.3718,0.7897,135.0,98.1,0.478
14.76,32300.4,35532.6,0.4179,0.644,135.0,98.1,0.478
14.78,32100.0,35309.3,0.1373,0.3724,135.0,98.1,0.478
14.8,32066.5,35182.2,0.0904,0.2178,135.0,98.1,0.478
14.82,32035.6,35064.1,0.0471,0.0741,135.0,98.1,0.478
14.84,32123.3,35037.6,0.17,0.0419,135.0,98.1,0.478
14.86,31975.1,34997.0,-0.0376,-0.0075,135.0,98.1,0.478
14.88,32052.0,34983.3,0.07,-0.0242,135.0,98.1,0.478
14.9,31927.0,34809.4,-0.1049,-0.2357,135.0,98.1,0.478
14.92,31901.9,34658.9,-0.1401,-0.4188,135.0,98.1,0.478
14.94,31771.9,34707.4,-0.3221,-0.3598,135.0,98.1,0.478
14.96,31882.8,34646.8,-0.1668,-0.4335,135.0,98.1,0.478
14.98,31937.8,34667.2,-0.0898,-0.4086,135.0,98.1,0.478
15.0,31774.9,34564.5,-0.3179,-0.5336,135.0,98.1,0.478
15.02,31722.5,34442.7,-0.3913,-0.6817,135.0,98.1,0.478
15.04,31790.2,34425.8,-0.2965,-0.7023,135.0,98.1,0.478
15.06,31742.1,34622.9,-0.3638,-0.4626,135.0,98.1,0.478
15.08,31936.4,34666.4,-0.0918,-0.4097,135.0,98.1,0.478
15.1,32046.1,35088.1,0.0618,0.1034,135.0,98.1,0.478
15.12,32124.9,35435.6,0.1722,0.526,135.0,98.1,0.478
15.14,32234.3,35632.1,0.3254,0.765,135.0,98.1,0.478
15.16,32350.3,35712.2,0.4879,0.8625,135.0,98.1,0.478
15.18,32302.9,35760.6,0.4214,0.9213,135.0,98.1,0.478
15.2,32227.5,35489.6,0.3158,0.5917,135.0,98.1,0.478
15.22,32123.7,35340.4,0.1705,0.4102,135.0,98.1,0.478
15.24,32156.0,35082.9,0.2158,0.097,135.0,98.1,0.478
15.26,32086.1,35118.2,0.1179,0.14,135.0,98.1,0.478
15.28,32109.5,35079.0,0.1506,0.0923,135.0,98.1,0.478
15.3,32028.3,34976.7,0.0369,-0.0322,135.0,98.1,0.478
15.32,31961.1,34888.5,-0.0572,-0.1395,135.0,98.1,0.478
15.34,31992.3,34808.4,-0.0135,-0.2369,135.0,98.1,0.478
15.36,31833.5,34754.7,-0.236,-0.3022,135.0,98.1,0.478
15.38,31865.1,34636.9,-0.1916,-0.4455,135.0,98.1,0.478
15.4,31834.7,34667.0,-0.2342,-0.4089,135.0,98.1,0.478
15.42,31846.8,34720.8,-0.2173,-0.3435,135.0,98.1,0.478
15.44,31842.7,34564.4,-0.223,-0.5337,135.0,98.1,0.478
15.46,31883.4,34452.7,-0.166,-0.6696,135.0,98.1,0.478
15.48,31753.4,34510.3,-0.3481,-0.5995,135.0,98.1,0.478
15.5,31791.6,34500.5,-0.2946,-0.6115,135.0,98.1,0.478
15.52,31940.3,34649.5,-0.0863,-0.4302,135.0,98.1,0.478
15.54,31939.9,35044.7,-0.0869,0.0505,135.0,98.1,0.478
15.56,32086.7,35372.6,0.1187,0.4494,135.0,98.1,0.478
15.58,32292.1,35639.4,0.4063,0.7739,135.0,98.1,0.478
15.6,32357.0,35713.7,0.4972,0.8642,135.0,98.1,0.478
15.62,32289.4,35756.7,0.4026,0.9165,135.0,98.1,0.478
15.64,32175.0,35659.4,0.2423,0.7983,135.0,98.1,0.478
15.66,32278.9,35314.6,0.3878,0.3788,135.0,98.1,0.478
15.68,32071.3,35206.2,0.0971,0.2469,135.0,98.1,0.478
15.7,32107.3,35183.0,0.1475,0.2187,135.0,98.1,0.478
15.72,32060.9,35029.7,0.0825,0.0323,135.0,98.1,0.478
15.74,31984.0,35079.5,-0.0251,0.0929,135.0,98.1,0.478
15.76,31962.0,35040.8,-0.056,0.0457,135.0,98.1,0.478
15.78,32005.4,34851.0,0.0048,-0.1851,135.0,98.1,0.478
15.8,31833.0,34778.2,-0.2366,-0.2737,135.0,98.1,0.478
15.82,31853.9,34808.0,-0.2073,-0.2375,135.0,98.1,0.478
15.84,31860.8,34741.2,-0.1977,-0.3187,135.0,98.1,0.478
15.86,31933.0,34599.2,-0.0966,-0.4914,135.0,98.1,0.478
15.88,31802.7,34608.9,-0.279,-0.4796,135.0,98.1,0.478
15.9,31802.3,34595.2,-0.2795,-0.4962,135.0,98.1,0.478
15.92,31717.0,34435.5,-0.3991,-0.6905,135.0,98.1,0.478
15.94,31741.3,34490.0,-0.365,-0.6242,135.0,98.1,0.478
15.96,31793.3,34633.6,-0.2923,-0.4495,135.0,98.1,0.478
15.98,32002.7,34853.1,0.0011,-0.1826,135.0,98.1,0.478
16.0,32101.0,35234.9,0.1386,0.2818,135.0,98.1,0.478
16.02,32305.7,35520.2,0.4254,0.629,135.0,98.1,0.478
16.04,32349.2,35692.2,0.4863,0.8381,135.0,98.1,0.478
16.06,32265.4,35735.3,0.369,0.8906,135.0,98.1,0.478
16.08,32299.7,35626.2,0.417,0.7578,135.0,98.1,0.478
16.1,32192.6,35482.3,0.267,0.5829,135.0,98.1,0.478
16.12,32058.1,35269.1,0.0786,0.3234,135.0,98.1,0.478
16.14,32077.2,35158.1,0.1054,0.1885,135.0,98.1,0.478
16.16,32107.0,35021.1,0.1471,0.0218,135.0,98.1,0.478
16.18,32020.0,35161.0,0.0252,0.192,135.0,98.1,0.478
16.2,31945.9,34972.5,-0.0786,-0.0374,135.0,98.1,0.478
16.22,32101.3,34887.6,0.1391,-0.1406,135.0,98.1,0.478
16.24,31876.6,34776.7,-0.1755,-0.2754,135.0,98.1,0.478
16.26,31962.7,34705.6,-0.055,-0.362,135.0,98.1,0.478
16.28,31837.5,34743.4,-0.2303,-0.316,135.0,98.1,0.478
16.3,31865.1,34618.3,-0.1917,-0.4681,135.0,98.1,0.478
16.32,31835.7,34722.2,-0.2329,-0.3418,135.0,98.1,0.478
16.34,31867.3,34568.3,-0.1886,-0.5289,135.0,98.1,0.478
16.36,31770.8,34540.3,-0.3237,-0.563,135.0,98.1,0.478
16.38,31771.1,34407.4,-0.3232,-0.7247,135.0,98.1,0.478
16.4,31861.1,34552.1,-0.1972,-0.5486,135.0,98.1,0.478
16.42,31904.0,34833.8,-0.1372,-0.206,135.0,98.1,0.478
16.44,32133.7,35227.9,0.1845,0.2733,135.0,98.1,0.478
16.46,32193.1,35545.5,0.2677,0.6597,135.0,98.1,0.478
16.48,32264.3,35695.1,0.3674,0.8416,135.0,98.1,0.478
16.5,32407.9,35712.6,0.5685,0.863,135.0,98.1,0.478
16.52,32349.4,35582.9,0.4866,0.7052,135.0,98.1,0.478
16.54,32192.1,35480.0,0.2662,0.58,135.0,98.1,0.478
16.56,32100.0,35288.5,0.1373,0.347,135.0,98.1,0.478
16.58,32052.2,35045.0,0.0703,0.0509,135.0,98.1,0.478
16.6,32098.3,35058.9,0.1349,0.0678,135.0,98.1,0.478
16.62,32041.4,35108.6,0.0553,0.1282,135.0,98.1,0.478
16.64,32036.8,34970.6,0.0489,-0.0396,135.0,98.1,0.478
16.66,31989.3,34933.5,-0.0177,-0.0847,135.0,98.1,0.478
16.68,31866.1,34717.6,-0.1902,-0.3473,135.0,98.1,0.478
16.7,31821.5,34747.9,-0.2527,-0.3105,135.0,98.1,0.478
16.72,31814.6,34662.0,-0.2624,-0.415,135.0,98.1,0.478
16.74,31859.0,34598.6,-0.2002,-0.4921,135.0,98.1,0.478
16.76,31734.9,34676.3,-0.374,-0.3976,135.0,98.1,0.478
16.78,31937.0,34614.5,-0.091,-0.4728,135.0,98.1,0.478
16.8,31806.3,34495.5,-0.274,-0.6176,135.0,98.1,0.478
16.82,31787.2,34439.9,-0.3007,-0.6852,135.0,98.1,0.478
16.84,31745.2,34550.1,-0.3596,-0.5511,135.0,98.1,0.478
16.86,31868.8,34657.9,-0.1865,-0.4199,135.0,98.1,0.478
16.88,31929.8,35047.3,-0.101,0.0537,135.0,98.1,0.478
16.9,32145.4,35383.2,0.2008,0.4623,135.0,98.1,0.478
16.92,32280.5,35744.8,0.39,0.9021,135.0,98.1,0.478
16.94,32303.6,35779.1,0.4225,0.9438,135.0,98.1,0.478
16.96,32260.6,35678.0,0.3622,0.8208,135.0,98.1,0.478
16.98,32200.5,35544.8,0.278,0.6588,135.0,98.1,0.478
17.0,32194.5,35279.6,0.2697,0.3362,135.0,98.1,0.478
17.02,32119.1,35193.1,0.164,0.231,135.0,98.1,0.478
17.04,32095.1,35160.5,0.1305,0.1914,135.0,98.1,0.478
17.06,31989.1,35075.1,-0.018,0.0875,135.0,98.1,0.478
17.08,32025.7,35046.0,0.0332,0.0521,135.0,98.1,0.478
17.1,31922.5,34867.8,-0.1112,-0.1646,135.0,98.1,0.478
17.12,31955.6,34761.1,-0.065,-0.2945,135.0,98.1,0.478
17.14,31851.4,34713.4,-0.2108,-0.3524,135.0,98.1,0.478
17.16,31839.3,34712.4,-0.2278,-0.3538,135.0,98.1,0.478
17.18,31824.8,34643.0,-0.248,-0.4381,135.0,98.1,0.478
17.2,31897.7,34631.3,-0.146,-0.4523,135.0,98.1,0.478
17.22,31789.6,34597.3,-0.2973,-0.4937,135.0,98.1,0.478
17.24,31835.2,34437.2,-0.2335,-0.6885,135.0,98.1,0.478
17.26,31827.2,34449.2,-0.2447,-0.6739,135.0,98.1,0.478
17.28,31793.0,34542.2,-0.2926,-0.5607,135.0,98.1,0.478
17.3,31901.0,34649.7,-0.1414,-0.43,135.0,98.1,0.478
17.32,32049.5,35046.9,0.0666,0.0532,135.0,98.1,0.478
17.34,32150.6,35377.8,0.2082,0.4557,135.0,98.1,0.478
17.36,32306.8,35620.0,0.4269,0.7502,135.0,98.1,0.478
17.38,32269.0,35715.7,0.374,0.8667,135.0,98.1,0.478
17.4,32314.8,35686.9,0.4381,0.8317,135.0,98.1,0.478
17.42,32190.6,35560.3,0.2642,0.6776,135.0,98.1,0.478
17.44,32259.0,35388.5,0.36,0.4688,135.0,98.1,0.478
17.46,32058.5,35151.1,0.0791,0.18,135.0,98.1,0.478
17.48,32077.7,35135.3,0.106,0.1608,135.0,98.1,0.478
17.5,32083.0,35028.6,0.1135,0.0309,135.0,98.1,0.478
17.52,32034.6,35041.1,0.0457,0.0461,135.0,98.1,0.478
17.54,31932.0,34984.0,-0.0979,-0.0233,135.0,98.1,0.478
17.56,31949.1,34820.5,-0.074,-0.2222,135.0,98.1,0.478
17.58,31889.5,34779.7,-0.1575,-0.2719,135.0,98.1,0.478
17.6,31835.0,34648.1,-0.2338,-0.4319,135.0,98.1,0.478
17.62,31860.0,34652.3,-0.1988,-0.4268,135.0,98.1,0.478
17.64,31778.9,34593.3,-0.3124,-0.4986,135.0,98.1,0.478
17.66,31719.9,34589.3,-0.395,-0.5034,135.0,98.1,0.478
17.68,31852.1,34600.5,-0.2098,-0.4898,135.0,98.1,0.478
17.7,31849.6,34435.0,-0.2134,-0.6912,135.0,98.1,0.478
17.72,31719.0,34499.0,-0.3962,-0.6132,135.0,98.1,0.478
17.74,31836.5,34628.5,-0.2317,-0.4558,135.0,98.1,0.478
17.76,32006.3,34878.9,0.0061,-0.1512,135.0,98.1,0.478
17.78,32065.8,35261.9,0.0894,0.3147,135.0,98.1,0.478
17.8,32288.7,35565.0,0.4016,0.6834,135.0,98.1,0.478
17.82,32317.3,35768.9,0.4416,0.9314,135.0,98.1,0.478
17.84,32231.0,35783.5,0.3207,0.9492,135.0,98.1,0.478
17.86,32287.7,35600.0,0.4001,0.726,135.0,98.1,0.478
17.88,32132.1,35411.1,0.1823,0.4962,135.0,98.1,0.478
17.9,32039.2,35200.1,0.0521,0.2395,135.0,98.1,0.478
17.92,32100.3,35109.4,0.1377,0.1292,135.0,98.1,0.478
17.94,32078.2,35079.7,0.1068,0.093,135.0,98.1,0.478
17.96,31967.6,35024.3,-0.0481,0.0256,135.0,98.1,0.478
17.98,31940.0,35042.2,-0.0868,0.0475,135.0,98.1,0.478
18.0,31986.9,34781.3,-0.0211,-0.2699,135.0,98.1,0.478
18.02,31898.5,34774.1,-0.1449,-0.2786,135.0,98.1,0.478
18.04,31873.9,34687.3,-0.1793,-0.3842,135.0,98.1,0.478
18.06,31928.2,34698.9,-0.1033,-0.3701,135.0,98.1,0.478
18.08,31735.9,34674.4,-0.3726,-0.3999,135.0,98.1,0.478
18.1,31909.1,34607.8,-0.13,-0.4809,135.0,98.1,0.478
18.12,31830.2,34517.8,-0.2405,-0.5904,135.0,98.1,0.478
18.14,31813.2,34473.5,-0.2643,-0.6443,135.0,98.1,0.478
18.16,31713.4,34479.2,-0.404,-0.6374,135.0,98.1,0.478
18.18,31837.6,34624.4,-0.2301,-0.4607,135.0,98.1,0.478
18.2,31893.5,34874.6,-0.1519,-0.1564,135.0,98.1,0.478
18.22,32083.7,35253.0,0.1145,0.3039,135.0,98.1,0.478
18.24,32260.3,35496.1,0.3618,0.5996,135.0,98.1,0.478
18.26,32311.8,35703.9,0.4339,0.8524,135.0,98.1,0.478
18.28,32356.7,35780.8,0.4968,0.9459,135.0,98.1,0.478
18.3,32360.4,35669.5,0.502,0.8105,135.0,98.1,0.478
18.32,32197.5,35432.4,0.2738,0.5221,135.0,98.1,0.478
18.34,32018.6,35216.1,0.0233,0.259,135.0,98.1,0.478
18.36,32052.7,35100.4,0.071,0.1182,135.0,98.1,0.478
18.38,32097.8,35076.5,0.1342,0.0892,135.0,98.1,0.478
18.4,32003.8,35026.7,0.0026,0.0286,135.0,98.1,0.478
18.42,31939.4,34997.8,-0.0876,-0.0066,135.0,98.1,0.478
18.44,31883.5,34928.8,-0.1659,-0.0905,135.0,98.1,0.478
18.46,31885.5,34820.8,-0.1631,-0.2219,135.0,98.1,0.478
18.48,31787.4,34680.2,-0.3004,-0.3928,135.0,98.1,0.478
18.5,31844.2,34649.3,-0.2209,-0.4305,135.0,98.1,0.478
18.52,31842.5,34636.9,-0.2234,-0.4456,135.0,98.1,0.478
18.54,31870.9,34562.6,-0.1835,-0.5359,135.0,98.1,0.478
18.56,31845.7,34566.0,-0.2188,-0.5317,135.0,98.1,0.478
18.58,31862.2,34495.9,-0.1956,-0.617,135.0,98.1,0.478
18.6,31735.0,34481.3,-0.3739,-0.6348,135.0,98.1,0.478
18.62,31841.5,34548.4,-0.2248,-0.5532,135.0,98.1,0.478
18.64,31911.4,34767.3,-0.1268,-0.2869,135.0,98.1,0.478
18.66,32144.5,35159.8,0.1996,0.1905,135.0,98.1,0.478
18.68,32208.6,35525.5,0.2893,0.6354,135.0,98.1,0.478
18.7,32277.5,35620.5,0.3859,0.7509,135.0,98.1,0.478
18.72,32371.9,35784.0,0.5181,0.9498,135.0,98.1,0.478
18.74,32332.7,35674.5,0.4632,0.8166,135.0,98.1,0.478
18.76,32150.9,35542.3,0.2086,0.6558,135.0,98.1,0.478
18.78,32116.0,35249.9,0.1597,0.3001,135.0,98.1,0.478
18.8,32124.4,35230.5,0.1715,0.2765,135.0,98.1,0.478
18.82,32016.3,35131.7,0.02,0.1563,135.0,98.1,0.478
18.84,31997.7,35071.1,-0.006,0.0826,135.0,98.1,0.478
18.86,32027.3,35027.2,0.0355,0.0293,135.0,98.1,0.478
18.88,32003.7,34958.9,0.0024,-0.0539,135.0,98.1,0.478
18.9,31920.8,34783.0,-0.1137,-0.2678,135.0,98.1,0.478
18.92,31894.4,34676.6,-0.1507,-0.3972,135.0,98.1,0.478
18.94,31856.0,34690.7,-0.2044,-0.3801,135.0,98.1,0.478
18.96,31822.5,34625.2,-0.2514,-0.4597,135.0,98.1,0.478
18.98,31801.5,34565.7,-0.2807,-0.5321,135.0,98.1,0.478
19.0,31840.0,34636.8,-0.2268,-0.4457,135.0,98.1,0.478
19.02,31832.9,34463.5,-0.2367,-0.6565,135.0,98.1,0.478
19.04,31711.0,34412.4,-0.4075,-0.7186,135.0,98.1,0.478
19.06,31831.3,34441.8,-0.239,-0.6829,135.0,98.1,0.478
19.08,31909.1,34681.5,-0.1301,-0.3913,135.0,98.1,0.478
19.1,32034.8,35127.5,0.0459,0.1512,135.0,98.1,0.478
19.12,32165.3,35478.9,0.2287,0.5787,135.0,98.1,0.478
19.14,32289.1,35746.0,0.4021,0.9035,135.0,98.1,0.478
19.16,32307.8,35732.6,0.4284,0.8872,135.0,98.1,0.478
19.18,32291.5,35645.1,0.4055,0.7808,135.0,98.1,0.478
19.2,32234.6,35591.8,0.3258,0.716,135.0,98.1,0.478
19.22,32111.6,35369.9,0.1536,0.4461,135.0,98.1,0.478
19.24,32077.0,35176.5,0.1051,0.2109,135.0,98.1,0.478
19.26,32033.3,35053.0,0.0439,0.0606,135.0,98.1,0.478
19.28,32049.3,35144.4,0.0663,0.1717,135.0,98.1,0.478
19.3,31948.4,34918.6,-0.075,-0.1029,135.0,98.1,0.478
19.32,31956.0,34953.0,-0.0644,-0.061,135.0,98.1,0.478
19.34,31977.6,34791.8,-0.0341,-0.2571,135.0,98.1,0.478
19.36,31857.4,34696.8,-0.2024,-0.3726,135.0,98.1,0.478
19.38,31861.6,34740.5,-0.1965,-0.3195,135.0,98.1,0.478
19.4,31956.9,34689.6,-0.0631,-0.3814,135.0,98.1,0.478
19.42,31868.4,34596.7,-0.187,-0.4944,135.0,98.1,0.478
19.44,31762.7,34580.7,-0.335,-0.5139,135.0,98.1,0.478
19.46,31874.5,34559.0,-0.1785,-0.5403,135.0,98.1,0.478
19.48,31715.3,34417.6,-0.4015,-0.7123,135.0,98.1,0.478
19.5,31785.2,34432.0,-0.3035,-0.6947,135.0,98.1,0.478
19.52,31823.5,34688.4,-0.2498,-0.3829,135.0,98.1,0.478
19.54,32012.2,34975.7,0.0144,-0.0334,135.0,98.1,0.478
19.56,32152.2,35362.6,0.2104,0.4372,135.0,98.1,0.478
19.58,32241.7,35579.1,0.3358,0.7006,135.0,98.1,0.478
19.6,32266.1,35759.3,0.3699,0.9198,135.0,98.1,0.478
19.62,32254.1,35724.9,0.3531,0.8779,135.0,98.1,0.478
19.64,32321.4,35570.4,0.4473,0.69,135.0,98.1,0.478
19.66,32167.8,35363.4,0.2322,0.4382,135.0,98.1,0.478
19.68,32103.4,35266.8,0.1421,0.3207,135.0,98.1,0.478
19.7,31993.7,35227.0,-0.0116,0.2723,135.0,98.1,0.478
19.72,31954.4,34995.8,-0.0666,-0.009,135.0,98.1,0.478
19.74,32002.8,34964.7,0.0012,-0.0468,135.0,98.1,0.478
19.76,31997.3,34961.5,-0.0065,-0.0507,135.0,98.1,0.478
19.78,31872.3,34782.5,-0.1815,-0.2684,135.0,98.1,0.478
19.8,31886.5,34701.3,-0.1616,-0.3673,135.0,98.1,0.478
19.82,31876.2,34795.3,-0.1761,-0.2529,135.0,98.1,0.478
19.84,31834.1,34568.5,-0.2351,-0.5287,135.0,98.1,0.478
19.86,31948.7,34561.3,-0.0746,-0.5375,135.0,98.1,0.478
19.88,31832.9,34596.1,-0.2368,-0.4951,135.0,98.1,0.478
19.9,31723.3,34591.6,-0.3902,-0.5006,135.0,98.1,0.478
19.92,31781.0,34382.2,-0.3094,-0.7553,135.0,98.1,0.478
19.94,31816.1,34483.5,-0.2603,-0.6321,135.0,98.1,0.478
19.96,31929.3,34629.3,-0.1018,-0.4547,135.0,98.1,0.478
19.98,31942.2,34792.7,-0.0836,-0.2561,135.0,98.1,0.478
20.0,32182.9,35268.9,0.2535,0.3233,135.0,98.1,0.478
20.02,32197.8,35485.0,0.2743,0.5861,135.0,98.1,0.478
20.04,32315.3,35766.7,0.4389,0.9287,135.0,98.1,0.478
20.06,32308.6,35631.6,0.4294,0.7643,135.0,98.1,0.478
20.08,32263.5,35614.8,0.3663,0.744,135.0,98.1,0.478
20.1,32101.0,35316.0,0.1388,0.3805,135.0,98.1,0.478
20.12,32100.7,35246.0,0.1382,0.2954,135.0,98.1,0.478
20.14,32113.0,35122.1,0.1555,0.1447,135.0,98.1,0.478
20.16,32038.6,35098.0,0.0513,0.1153,135.0,98.1,0.478
20.18,31903.8,35050.7,-0.1374,0.0578,135.0,98.1,0.478
20.2,32020.4,34900.3,0.0259,-0.1252,135.0,98.1,0.478
20.22,31996.7,34822.8,-0.0073,-0.2194,135.0,98.1,0.478
20.24,31853.9,34644.0,-0.2074,-0.4369,135.0,98.1,0.478
20.26,31794.4,34814.2,-0.2907,-0.2299,135.0,98.1,0.478
20.28,31812.6,34678.8,-0.2652,-0.3946,135.0,98.1,0.478
20.3,31886.5,34596.4,-0.1617,-0.4948,135.0,98.1,0.478
20.32,31805.2,34684.4,-0.2755,-0.3877,135.0,98.1,0.478
20.34,31766.2,34484.1,-0.3302,-0.6314,135.0,98.1,0.478
20.36,31739.6,34508.1,-0.3673,-0.6023,135.0,98.1,0.478
20.38,31747.6,34365.5,-0.3562,-0.7757,135.0,98.1,0.478
20.4,31778.6,34625.4,-0.3128,-0.4596,135.0,98.1,0.478
20.42,31929.0,34835.3,-0.1021,-0.2041,135.0,98.1,0.478
20.44,32124.0,35131.3,0.171,0.1558,135.0,98.1,0.478
20.46,32263.8,35544.5,0.3667,0.6585,135.0,98.1,0.478
20.48,32278.9,35752.1,0.3878,0.911,135.0,98.1,0.478
20.5,32296.2,35745.6,0.4121,0.9031,135.0,98.1,0.478
20.52,32312.9,35670.8,0.4354,0.8121,135.0,98.1,0.478
20.54,32180.4,35432.6,0.2499,0.5223,135.0,98.1,0.478
20.56,32104.4,35272.8,0.1435,0.328,135.0,98.1,0.478
20.58,32105.5,35038.1,0.145,0.0425,135.0,98.1,0.478
20.6,32091.5,35078.5,0.1254,0.0916,135.0,98.1,0.478
20.62,32003.9,35091.5,0.0027,0.1074,135.0,98.1,0.478
20.64,32059.2,34961.5,0.0802,-0.0506,135.0,98.1,0.478
20.66,31954.9,34862.0,-0.0659,-0.1717,135.0,98.1,0.478
20.68,31877.3,34719.6,-0.1745,-0.3449,135.0,98.1,0.478
20.7,31810.5,34647.7,-0.2681,-0.4324,135.0,98.1,0.478
20.72,31849.2,34642.4,-0.214,-0.4389,135.0,98.1,0.478
20.74,31919.1,34614.9,-0.1161,-0.4723,135.0,98.1,0.478
20.76,31821.6,34545.5,-0.2526,-0.5567,135.0,98.1,0.478
20.78,31758.8,34602.9,-0.3405,-0.4869,135.0,98.1,0.478
20.8,31777.5,34560.8,-0.3143,-0.5381,135.0,98.1,0.478
20.82,31693.4,34449.7,-0.432,-0.6732,135.0,98.1,0.478
20.84,31858.5,34450.9,-0.2009,-0.6718,135.0,98.1,0.478
20.86,31862.1,34771.9,-0.1959,-0.2813,135.0,98.1,0.478
20.88,32066.9,35026.8,0.0909,0.0287,135.0,98.1,0.478
20.9,32165.9,35517.4,0.2296,0.6255,135.0,98.1,0.478
20.92,32344.6,35665.0,0.4798,0.805,135.0,98.1,0.478
20.94,32334.9,35804.5,0.4663,0.9747,135.0,98.1,0.478
20.96,32370.9,35714.7,0.5167,0.8655,135.0,98.1,0.478
20.98,32153.4,35489.8,0.2121,0.5919,135.0,98.1,0.478
21.0,32161.8,35293.5,0.2238,0.3532,135.0,98.1,0.478
21.02,32049.6,35174.3,0.0667,0.2081,135.0,98.1,0.478
21.04,32060.0,35140.5,0.0813,0.1671,135.0,98.1,0.478
21.06,31996.9,35161.1,-0.007,0.1921,135.0,98.1,0.478
21.08,32067.6,35068.8,0.092,0.0799,135.0,98.1,0.478
21.1,31985.7,34804.6,-0.0227,-0.2415,135.0,98.1,0.478
21.12,31971.8,34766.8,-0.0422,-0.2875,135.0,98.1,0.478
21.14,31909.1,34721.4,-0.1301,-0.3428,135.0,98.1,0.478
21.16,31769.7,34601.0,-0.3253,-0.4893,135.0,98.1,0.478
21.18,31903.4,34627.1,-0.138,-0.4574,135.0,98.1,0.478
21.2,31814.5,34678.3,-0.2625,-0.3952,135.0,98.1,0.478
21.22,31866.0,34646.6,-0.1903,-0.4337,135.0,98.1,0.478
21.24,31791.4,34569.7,-0.2949,-0.5273,135.0,98.1,0.478
21.26,31898.6,34531.4,-0.1447,-0.5739,135.0,98.1,0.478
21.28,31772.5,34510.4,-0.3213,-0.5995,135.0,98.1,0.478
21.3,31922.8,34662.7,-0.1108,-0.4141,135.0,98.1,0.478
21.32,31918.6,35027.1,-0.1167,0.0291,135.0,98.1,0.478
21.34,32252.7,35402.0,0.3511,0.4851,135.0,98.1,0.478
21.36,32340.0,35626.2,0.4733,0.7579,135.0,98.1,0.478
21.38,32416.9,35791.8,0.5811,0.9593,135.0,98.1,0.478
21.4,32280.8,35663.3,0.3905,0.803,135.0,98.1,0.478
21.42,32337.8,35577.4,0.4703,0.6985,135.0,98.1,0.478
21.44,32175.1,35330.7,0.2425,0.3984,135.0,98.1,0.478
21.46,32048.1,35269.7,0.0646,0.3242,135.0,98.1,0.478
21.48,31986.3,35053.0,-0.0219,0.0606,135.0,98.1,0.478
21.5,32023.4,35116.3,0.0301,0.1376,135.0,98.1,0.478
21.52,32091.1,35060.8,0.1249,0.0701,135.0,98.1,0.478
21.54,32036.5,34965.0,0.0484,-0.0464,135.0,98.1,0.478
21.56,31860.1,34764.8,-0.1986,-0.29,135.0,98.1,0.478
21.58,31935.9,34720.0,-0.0926,-0.3444,135.0,98.1,0.478
21.6,31810.7,34650.9,-0.2679,-0.4285,135.0,98.1,0.478
21.62,31897.2,34621.9,-0.1466,-0.4637,135.0,98.1,0.478
21.64,31868.0,34688.0,-0.1876,-0.3834,135.0,98.1,0.478
21.66,31767.1,34558.3,-0.3289,-0.5411,135.0,98.1,0.478
21.68,31823.6,34615.2,-0.2498,-0.4719,135.0,98.1,0.478
21.7,31737.8,34529.4,-0.37,-0.5763,135.0,98.1,0.478
21.72,31778.0,34575.2,-0.3136,-0.5205,135.0,98.1,0.478
21.74,31818.6,34616.6,-0.2567,-0.4702,135.0,98.1,0.478
21.76,31978.2,34870.7,-0.0333,-0.1612,135.0,98.1,0.478
21.78,32179.4,35300.7,0.2484,0.3619,135.0,98.1,0.478
21.8,32276.0,35686.8,0.3838,0.8316,135.0,98.1,0.478
21.82,32279.9,35608.8,0.3892,0.7367,135.0,98.1,0.478
21.84,32292.6,35704.3,0.407,0.8528,135.0,98.1,0.478
21.86,32226.7,35625.6,0.3148,0.7572,135.0,98.1,0.478
21.88,32152.2,35457.9,0.2104,0.5531,135.0,98.1,0.478
21.9,32055.6,35224.0,0.0751,0.2686,135.0,98.1,0.478
21.92,32033.0,35249.0,0.0435,0.299,135.0,98.1,0.478
21.94,32008.7,35123.7,0.0095,0.1466,135.0,98.1,0.478
21.96,32060.1,35106.9,0.0814,0.1262,135.0,98.1,0.478
21.98,31995.3,34886.2,-0.0094,-0.1423,135.0,98.1,0.478
22.0,31962.1,34935.7,-0.0559,-0.0821,135.0,98.1,0.478
22.02,31909.1,34815.6,-0.13,-0.2281,135.0,98.1,0.478
22.04,31878.9,34719.8,-0.1723,-0.3446,135.0,98.1,0.478
22.06,31898.1,34611.7,-0.1455,-0.4762,135.0,98.1,0.478
22.08,31861.7,34557.5,-0.1964,-0.5421,135.0,98.1,0.478
22.1,31840.9,34575.1,-0.2256,-0.5208,135.0,98.1,0.478
22.12,31746.8,34608.8,-0.3573,-0.4797,135.0,98.1,0.478
22.14,31740.3,34356.8,-0.3664,-0.7863,135.0,98.1,0.478
22.16,31789.9,34515.0,-0.2969,-0.5938,135.0,98.1,0.478
22.18,31835.8,34538.2,-0.2327,-0.5656,135.0,98.1,0.478
22.2,31919.4,34790.8,-0.1156,-0.2583,135.0,98.1,0.478
22.22,32012.5,35134.8,0.0148,0.1601,135.0,98.1,0.478
22.24,32253.9,35465.3,0.3529,0.5621,135.0,98.1,0.478
22.26,32282.9,35808.5,0.3935,0.9796,135.0,98.1,0.478
22.28,32351.9,35819.6,0.4901,0.9931,135.0,98.1,0.478
22.3,32297.1,35652.9,0.4133,0.7903,135.0,98.1,0.478
22.32,32275.1,35473.2,0.3825,0.5718,135.0,98.1,0.478
22.34,32098.7,35308.5,0.1355,0.3714,135.0,98.1,0.478
22.36,32083.9,35118.0,0.1147,0.1396,135.0,98.1,0.478
22.38,32052.9,35128.4,0.0714,0.1523,135.0,98.1,0.478
22.4,31943.0,35049.6,-0.0826,0.0565,135.0,98.1,0.478
22.42,32008.1,35010.9,0.0086,0.0094,135.0,98.1,0.478
22.44,31951.6,34876.3,-0.0705,-0.1543,135.0,98.1,0.478
22.46,31947.0,34748.5,-0.0769,-0.3097,135.0,98.1,0.478
22.48,31806.6,34751.0,-0.2736,-0.3067,135.0,98.1,0.478
22.5,31830.3,34702.6,-0.2403,-0.3656,135.0,98.1,0.478
22.52,31813.7,34646.4,-0.2637,-0.434,135.0,98.1,0.478
22.54,31821.9,34595.0,-0.2521,-0.4965,135.0,98.1,0.478
22.56,31887.2,34539.3,-0.1607,-0.5642,135.0,98.1,0.478
22.58,31822.6,34413.8,-0.2512,-0.7169,135.0,98.1,0.478
22.6,31701.9,34531.3,-0.4202,-0.574,135.0,98.1,0.478
22.62,31829.5,34537.1,-0.2415,-0.567,135.0,98.1,0.478
22.64,31913.0,34906.3,-0.1246,-0.1179,135.0,98.1,0.478
22.66,32129.7,35125.2,0.179,0.1485,135.0,98.1,0.478
22.68,32137.2,35436.4,0.1894,0.5269,135.0,98.1,0.478
22.7,32369.1,35705.3,0.5141,0.8541,135.0,98.1,0.478
22.72,32360.6,35782.8,0.5022,0.9483,135.0,98.1,0.478
22.74,32319.9,35575.1,0.4453,0.6956,135.0,98.1,0.478
22.76,32214.4,35512.8,0.2975,0.6198,135.0,98.1,0.478
22.78,32081.3,35302.6,0.1111,0.3643,135.0,98.1,0.478
22.8,32127.5,35185.1,0.1757,0.2213,135.0,98.1,0.478
22.82,32026.3,35081.6,0.0341,0.0954,135.0,98.1,0.478
22.84,32004.0,35061.9,0.0029,0.0715,135.0,98.1,0.478
22.86,32005.2,34954.6,0.0045,-0.0591,135.0,98.1,0.478
22.88,31935.7,34776.4,-0.0928,-0.2759,135.0,98.1,0.478
22.9,32004.5,34813.2,0.0036,-0.2311,135.0,98.1,0.478
22.92,31901.2,34766.5,-0.1412,-0.2879,135.0,98.1,0.478
22.94,31750.4,34641.4,-0.3523,-0.4401,135.0,98.1,0.478
22.96,31897.5,34635.8,-0.1463,-0.4469,135.0,98.1,0.478
22.98,31758.0,34667.0,-0.3416,-0.409,135.0,98.1,0.478
23.0,31713.7,34612.9,-0.4037,-0.4747,135.0,98.1,0.478
23.02,31820.6,34506.5,-0.2539,-0.6041,135.0,98.1,0.478
23.04,31803.3,34498.9,-0.2781,-0.6134,135.0,98.1,0.478
23.06,31842.0,34420.4,-0.2241,-0.7089,135.0,98.1,0.478
23.08,31881.6,34805.8,-0.1685,-0.2401,135.0,98.1,0.478
23.1,31986.6,35109.0,-0.0215,0.1287,135.0,98.1,0.478
23.12,32142.9,35424.5,0.1974,0.5125,135.0,98.1,0.478
23.14,32346.9,35674.9,0.483,0.8171,135.0,98.1,0.478
23.16,32316.6,35762.1,0.4407,0.9232,135.0,98.1,0.478
23.18,32356.2,35769.6,0.4961,0.9323,135.0,98.1,0.478
23.2,32262.3,35557.1,0.3646,0.6737,135.0,98.1,0.478
23.22,32065.3,35364.8,0.0888,0.4398,135.0,98.1,0.478
23.24,31979.0,35218.7,-0.0321,0.2622,135.0,98.1,0.478
23.26,32039.5,35137.1,0.0526,0.1629,135.0,98.1,0.478
23.28,32016.9,35113.7,0.0209,0.1344,135.0,98.1,0.478
23.3,32068.8,35066.4,0.0936,0.0769,135.0,98.1,0.478
23.32,31884.0,34952.5,-0.1651,-0.0617,135.0,98.1,0.478
23.34,31892.8,34762.1,-0.1529,-0.2932,135.0,98.1,0.478
23.36,31836.9,34679.7,-0.2312,-0.3935,135.0,98.1,0.478
23.38,31810.3,34743.7,-0.2684,-0.3157,135.0,98.1,0.478
23.4,31871.2,34622.5,-0.1831,-0.463,135.0,98.1,0.478
23.42,31788.6,34640.4,-0.2988,-0.4413,135.0,98.1,0.478
23.44,31847.8,34598.9,-0.2159,-0.4917,135.0,98.1,0.478
23.46,31850.7,34502.2,-0.2118,-0.6094,135.0,98.1,0.478
23.48,31618.2,34457.3,-0.5374,-0.6639,135.0,98.1,0.478
23.5,31740.9,34492.1,-0.3656,-0.6216,135.0,98.1,0.478
23.52,31917.2,34723.9,-0.1186,-0.3397,135.0,98.1,0.478
23.54,32014.6,34996.1,0.0178,-0.0087,135.0,98.1,0.478
23.56,32038.6,35325.8,0.0514,0.3924,135.0,98.1,0.478
23.58,32255.4,35597.7,0.3549,0.7232,135.0,98.1,0.478
23.6,32319.7,35706.6,0.445,0.8557,135.0,98.1,0.478
23.62,32189.9,35752.3,0.2632,0.9112,135.0,98.1,0.478
23.64,32332.7,35541.2,0.4632,0.6544,135.0,98.1,0.478
23.66,32182.2,35315.2,0.2525,0.3795,135.0,98.1,0.478
23.68,32108.4,35127.8,0.149,0.1516,135.0,98.1,0.478
23.7,32014.3,35073.9,0.0173,0.0861,135.0,98.1,0.478
23.72,31995.6,35091.8,-0.0089,0.1078,135.0,98.1,0.478
23.74,31924.1,35011.9,-0.1091,0.0106,135.0,98.1,0.478
23.76,32094.0,35055.8,0.1288,0.064,135.0,98.1,0.478
23.78,31881.8,34896.2,-0.1682,-0.1302,135.0,98.1,0.478
23.8,31884.0,34726.5,-0.1652,-0.3366,135.0,98.1,0.478
23.82,31819.0,34722.7,-0.2562,-0.3412,135.0,98.1,0.478
23.84,31882.8,34678.7,-0.1668,-0.3947,135.0,98.1,0.478
23.86,31854.6,34700.7,-0.2064,-0.3679,135.0,98.1,0.478
23.88,31859.2,34597.2,-0.1999,-0.4938,135.0,98.1,0.478
23.9,31785.4,34490.4,-0.3033,-0.6238,135.0,98.1,0.478
23.92,31689.5,34437.4,-0.4375,-0.6882,135.0,98.1,0.478
23.94,31690.5,34418.8,-0.4361,-0.7108,135.0,98.1,0.478
23.96,31975.1,34646.6,-0.0376,-0.4338,135.0,98.1,0.478
23.98,31976.2,34838.2,-0.0361,-0.2006,135.0,98.1,0.478
24.0,32160.9,35256.9,0.2226,0.3086,135.0,98.1,0.478
24.02,32200.9,35574.8,0.2786,0.6954,135.0,98.1,0.478
24.04,32368.5,35752.5,0.5134,0.9115,135.0,98.1,0.478
24.06,32302.2,35805.4,0.4204,0.9758,135.0,98.1,0.478
24.08,32269.4,35631.6,0.3745,0.7644,135.0,98.1,0.478
24.1,32259.7,35433.2,0.361,0.5231,135.0,98.1,0.478
24.12,32117.2,35188.2,0.1614,0.2251,135.0,98.1,0.478
24.14,32110.8,35175.3,0.1525,0.2094,135.0,98.1,0.478
24.16,32078.5,35039.3,0.1072,0.0439,135.0,98.1,0.478
24.18,31938.8,35022.2,-0.0885,0.0231,135.0,98.1,0.478
24.2,31942.6,34957.4,-0.0832,-0.0557,135.0,98.1,0.478
24.22,31947.3,34935.9,-0.0765,-0.0819,135.0,98.1,0.478
24.24,31906.1,34790.0,-0.1342,-0.2593,135.0,98.1,0.478
24.26,32025.7,34616.8,0.0333,-0.47,135.0,98.1,0.478
24.28,31799.6,34675.9,-0.2834,-0.3981,135.0,98.1,0.478
24.3,31861.8,34669.3,-0.1962,-0.4061,135.0,98.1,0.478
24.32,31837.6,34623.7,-0.2302,-0.4616,135.0,98.1,0.478
24.34,31888.2,34516.3,-0.1593,-0.5922,135.0,98.1,0.478
24.36,31820.5,34470.0,-0.2541,-0.6486,135.0,98.1,0.478
24.38,31799.7,34441.9,-0.2832,-0.6827,135.0,98.1,0.478
24.4,31810.1,34618.8,-0.2686,-0.4675,135.0,98.1,0.478
24.42,31867.2,34822.6,-0.1887,-0.2197,135.0,98.1,0.478
24.44,32047.5,35155.0,0.0638,0.1847,135.0,98.1,0.478
24.46,32258.1,35527.2,0.3587,0.6374,135.0,98.1,0.478
24.48,32281.4,35662.2,0.3913,0.8017,135.0,98.1,0.478
24.5,32321.7,35791.5,0.4478,0.9589,135.0,98.1,0.478
24.52,32327.7,35654.8,0.4562,0.7926,135.0,98.1,0.478
24.54,32128.4,35461.8,0.1771,0.5579,135.0,98.1,0.478
24.56,32009.9,35292.5,0.0111,0.3519,135.0,98.1,0.478
24.58,32128.9,35191.3,0.1778,0.2289,135.0,98.1,0.478
24.6,32106.3,35082.3,0.1461,0.0962,135.0,98.1,0.478
24.62,32039.0,35124.2,0.0518,0.1473,135.0,98.1,0.478
24.64,31952.2,35022.1,-0.0696,0.023,135.0,98.1,0.478
24.66,31895.2,34941.9,-0.1495,-0.0746,135.0,98.1,0.478
24.68,31948.5,34741.7,-0.0749,-0.318,135.0,98.1,0.478
24.7,31837.1,34609.5,-0.2308,-0.4789,135.0,98.1,0.478
24.72,31834.0,34595.9,-0.2352,-0.4954,135.0,98.1,0.478
24.74,31811.6,34766.4,-0.2665,-0.288,135.0,98.1,0.478
24.76,31734.5,34646.0,-0.3745,-0.4345,135.0,98.1,0.478
24.78,31879.3,34611.8,-0.1718,-0.4761,135.0,98.1,0.478
24.8,31804.6,34516.2,-0.2764,-0.5924,135.0,98.1,0.478
24.82,31833.6,34442.9,-0.2357,-0.6815,135.0,98.1,0.478
24.84,31736.9,34531.1,-0.3712,-0.5743,135.0,98.1,0.478
24.86,31798.4,34715.2,-0.2851,-0.3503,135.0,98.1,0.478
24.88,32020.2,35123.7,0.0255,0.1466,135.0,98.1,0.478
24.9,32150.5,35446.1,0.208,0.5388,135.0,98.1,0.478
24.92,32300.6,35689.2,0.4182,0.8345,135.0,98.1,0.478
24.94,32351.5,35809.8,0.4894,0.9811,135.0,98.1,0.478
24.96,32144.8,35768.3,0.2001,0.9307,135.0,98.1,0.478
24.98,32186.2,35542.2,0.2581,0.6556,135.0,98.1,0.478
25.0,32151.9,35332.4,0.21,0.4005,135.0,98.1,0.478
25.02,32112.5,35118.4,0.1548,0.1401,135.0,98.1,0.478
25.04,32099.3,35144.6,0.1364,0.172,135.0,98.1,0.478
25.06,32002.0,35134.4,0.0,0.1596,135.0,98.1,0.478
25.08,32062.8,35011.2,0.0851,0.0097,135.0,98.1,0.478
25.1,31935.9,34970.8,-0.0925,-0.0394,135.0,98.1,0.478
25.12,31810.1,34889.1,-0.2687,-0.1387,135.0,98.1,0.478
25.14,31905.3,34710.5,-0.1353,-0.356,135.0,98.1,0.478
25.16,31812.2,34698.4,-0.2658,-0.3707,135.0,98.1,0.478
25.18,31846.1,34653.9,-0.2182,-0.4248,135.0,98.1,0.478
25.2,31899.7,34587.9,-0.1431,-0.5051,135.0,98.1,0.478
25.22,31847.5,34612.9,-0.2163,-0.4747,135.0,98.1,0.478
25.24,31782.1,34544.8,-0.3079,-0.5576,135.0,98.1,0.478
25.26,31734.6,34466.3,-0.3745,-0.653,135.0,98.1,0.478
25.28,31885.0,34483.8,-0.1638,-0.6317,135.0,98.1,0.478
25.3,31927.2,34743.4,-0.1046,-0.316,135.0,98.1,0.478
25.32,32079.1,35033.3,0.108,0.0366,135.0,98.1,0.478
25.34,32194.1,35463.5,0.2691,0.5599,135.0,98.1,0.478
25.36,32309.8,35582.9,0.4312,0.7051,135.0,98.1,0.478
25.38,32400.3,35759.0,0.5578,0.9194,135.0,98.1,0.478
25.4,32368.1,35571.1,0.5128,0.6909,135.0,98.1,0.478
25.42,32264.6,35523.9,0.3678,0.6335,135.0,98.1,0.478
25.44,32119.9,35342.9,0.1652,0.4132,135.0,98.1,0.478
25.46,32064.5,35109.4,0.0876,0.1292,135.0,98.1,0.478
25.48,32029.1,35145.2,0.0381,0.1728,135.0,98.1,0.478
25.5,32117.2,35013.4,0.1614,0.0124,135.0,98.1,0.478
25.52,31976.8,34990.2,-0.0353,-0.0157,135.0,98.1,0.478
25.54,31973.7,34893.2,-0.0396,-0.1337,135.0,98.1,0.478
25.56,31879.5,34816.2,-0.1715,-0.2274,135.0,98.1,0.478
25.58,31906.6,34806.5,-0.1336,-0.2392,135.0,98.1,0.478
25.6,31862.6,34709.6,-0.1952,-0.3571,135.0,98.1,0.478
25.62,31837.4,34669.8,-0.2304,-0.4055,135.0,98.1,0.478
25.64,31865.4,34686.1,-0.1913,-0.3856,135.0,98.1,0.478
25.66,31809.9,34558.0,-0.2689,-0.5415,135.0,98.1,0.478
25.68,31696.8,34565.5,-0.4273,-0.5324,135.0,98.1,0.478
25.7,31726.6,34394.5,-0.3856,-0.7404,135.0,98.1,0.478
25.72,31896.2,34476.8,-0.1481,-0.6403,135.0,98.1,0.478
25.74,31860.9,34614.5,-0.1975,-0.4727,135.0,98.1,0.478
25.76,32023.0,35014.7,0.0294,0.014,135.0,98.1,0.478
25.78,32109.5,35303.0,0.1507,0.3647,135.0,98.1,0.478
25.8,32221.7,35621.5,0.3077,0.7522,135.0,98.1,0.478
25.82,32345.7,35795.9,0.4814,0.9643,135.0,98.1,0.478
25.84,32352.7,35760.7,0.4912,0.9214,135.0,98.1,0.478
25.86,32227.4,35650.1,0.3156,0.7869,135.0,98.1,0.478
25.88,32129.0,35337.6,0.1779,0.4068,135.0,98.1,0.478
25.9,32126.5,35164.7,0.1745,0.1965,135.0,98.1,0.478
25.92,32085.7,35127.3,0.1173,0.1509,135.0,98.1,0.478
25.94,32109.1,35012.2,0.15,0.011,135.0,98.1,0.478
25.96,31921.2,35042.3,-0.113,0.0476,135.0,98.1,0.478
25.98,31967.5,34981.4,-0.0482,-0.0265,135.0,98.1,0.478
26.0,31984.0,34913.5,-0.0252,-0.1091,135.0,98.1,0.478
26.02,31909.1,34866.2,-0.1301,-0.1667,135.0,98.1,0.478
26.04,31832.8,34614.3,-0.2368,-0.473,135.0,98.1,0.478
26.06,31888.4,34670.6,-0.159,-0.4045,135.0,98.1,0.478
26.08,31880.9,34650.0,-0.1695,-0.4296,135.0,98.1,0.478
26.1,31853.2,34646.4,-0.2084,-0.434,135.0,98.1,0.478
26.12,31724.1,34505.7,-0.3891,-0.6052,135.0,98.1,0.478
26.14,31719.2,34477.5,-0.3959,-0.6395,135.0,98.1,0.478
26.16,31821.9,34577.4,-0.2522,-0.5179,135.0,98.1,0.478
26.18,31957.6,34690.4,-0.0621,-0.3805,135.0,98.1,0.478
26.2,31939.0,34787.3,-0.0882,-0.2626,135.0,98.1,0.478
26.22,32141.3,35227.8,0.1951,0.2732,135.0,98.1,0.478
26.24,32296.8,35565.8,0.4129,0.6844,135.0,98.1,0.478
26.26,32333.9,35654.0,0.4648,0.7916,135.0,98.1,0.478
26.28,32362.4,35646.7,0.5048,0.7828,135.0,98.1,0.478
26.3,32306.6,35641.5,0.4267,0.7765,135.0,98.1,0.478
26.32,32257.5,35344.0,0.3579,0.4146,135.0,98.1,0.478
26.34,32135.4,35258.6,0.1868,0.3107,135.0,98.1,0.478
26.36,32069.6,35099.2,0.0948,0.1168,135.0,98.1,0.478
26.38,31974.8,35035.5,-0.038,0.0394,135.0,98.1,0.478
26.4,31874.3,35050.5,-0.1788,0.0576,135.0,98.1,0.478
26.42,31953.3,34947.3,-0.0682,-0.0679,135.0,98.1,0.478
26.44,31895.1,34837.0,-0.1496,-0.2021,135.0,98.1,0.478
26.46,31922.7,34762.8,-0.111,-0.2923,135.0,98.1,0.478
26.48,31837.8,34730.7,-0.2298,-0.3314,135.0,98.1,0.478
26.5,31845.3,34672.2,-0.2194,-0.4026,135.0,98.1,0.478
26.52,31891.7,34636.0,-0.1544,-0.4466,135.0,98.1,0.478
26.54,31872.7,34557.6,-0.181,-0.542,135.0,98.1,0.478
26.56,31764.2,34585.3,-0.3329,-0.5083,135.0,98.1,0.478
26.58,31738.8,34505.4,-0.3685,-0.6055,135.0,98.1,0.478
26.6,31758.0,34451.1,-0.3416,-0.6715,135.0,98.1,0.478
26.62,31805.6,34625.2,-0.2749,-0.4597,135.0,98.1,0.478
26.64,32091.2,34769.4,0.125,-0.2844,135.0,98.1,0.478
26.66,32077.2,35082.9,0.1054,0.097,135.0,98.1,0.478
26.68,32238.1,35496.5,0.3307,0.6001,135.0,98.1,0.478
26.7,32297.4,35662.4,0.4137,0.8019,135.0,98.1,0.478
26.72,32374.4,35838.9,0.5216,1.0166,135.0,98.1,0.478
26.74,32269.1,35731.5,0.3741,0.886,135.0,98.1,0.478
26.76,32318.8,35475.9,0.4437,0.575,135.0,98.1,0.478
26.78,32155.0,35277.9,0.2143,0.3342,135.0,98.1,0.478
26.8,32076.5,35232.3,0.1044,0.2787,135.0,98.1,0.478
26.82,32098.5,35145.7,0.1352,0.1734,135.0,98.1,0.478
26.84,32071.7,34993.0,0.0976,-0.0124,135.0,98.1,0.478
26.86,32082.2,34897.0,0.1123,-0.1291,135.0,98.1,0.478
26.88,31861.4,34909.3,-0.1969,-0.1142,135.0,98.1,0.478
26.9,31892.2,34791.0,-0.1537,-0.258,135.0,98.1,0.478
26.92,31861.8,34753.5,-0.1963,-0.3037,135.0,98.1,0.478
26.94,31925.8,34630.6,-0.1067,-0.4532,135.0,98.1,0.478
26.96,31862.1,34621.4,-0.1958,-0.4644,135.0,98.1,0.478
26.98,31667.9,34640.4,-0.4679,-0.4413,135.0,98.1,0.478
27.0,31821.8,34479.0,-0.2523,-0.6376,135.0,98.1,0.478
27.02,31745.2,34488.3,-0.3595,-0.6263,135.0,98.1,0.478
27.04,31734.9,34544.7,-0.374,-0.5577,135.0,98.1,0.478
27.06,31793.4,34424.6,-0.2921,-0.7038,135.0,98.1,0.478
27.08,32013.1,34795.1,0.0156,-0.2531,135.0,98.1,0.478
27.1,32071.1,35084.1,0.0968,0.0985,135.0,98.1,0.478
27.12,32299.3,35472.3,0.4163,0.5706,135.0,98.1,0.478
27.14,32219.4,35701.0,0.3045,0.8488,135.0,98.1,0.478
27.16,32241.0,35806.5,0.3348,0.9771,135.0,98.1,0.478
27.18,32228.4,35716.0,0.3172,0.8671,135.0,98.1,0.478
27.2,32230.6,35449.2,0.3202,0.5425,135.0,98.1,0.478
27.22,32181.0,35363.4,0.2507,0.4382,135.0,98.1,0.478
27.24,32069.4,35141.6,0.0945,0.1684,135.0,98.1,0.478
27.26,32031.0,35099.3,0.0406,0.1169,135.0,98.1,0.478
27.28,31988.9,35139.7,-0.0183,0.1661,135.0,98.1,0.478
27.3,32047.0,35031.9,0.0631,0.035,135.0,98.1,0.478
27.32,32003.3,34972.9,0.0019,-0.0368,135.0,98.1,0.478
27.34,31887.3,34849.9,-0.1605,-0.1865,135.0,98.1,0.478
27.36,31896.8,34643.8,-0.1473,-0.4371,135.0,98.1,0.478
27.38,31962.0,34750.0,-0.0559,-0.3079,135.0,98.1,0.478
27.4,31867.5,34668.7,-0.1883,-0.4068,135.0,98.1,0.478
27.42,31889.2,34586.4,-0.1579,-0.507,135.0,98.1,0.478
27.44,31816.9,34560.2,-0.2592,-0.5388,135.0,98.1,0.478
27.46,31800.6,34423.5,-0.282,-0.7051,135.0,98.1,0.478
27.48,31743.2,34493.2,-0.3623,-0.6204,135.0,98.1,0.478
27.5,31733.4,34551.4,-0.376,-0.5495,135.0,98.1,0.478
27.52,31960.6,34726.2,-0.058,-0.3369,135.0,98.1,0.478
27.54,31977.7,35043.2,-0.034,0.0487,135.0,98.1,0.478
27.56,32248.2,35419.0,0.3449,0.5058,135.0,98.1,0.478
27.58,32224.9,35516.2,0.3122,0.624,135.0,98.1,0.478
27.6,32375.9,35677.1,0.5237,0.8197,135.0,98.1,0.478
27.62,32297.7,35716.3,0.4142,0.8674,135.0,98.1,0.478
27.64,32176.5,35618.1,0.2444,0.748,135.0,98.1,0.478
27.66,32154.8,35347.8,0.2141,0.4192,135.0,98.1,0.478
27.68,32020.2,35115.3,0.0256,0.1364,135.0,98.1,0.478
27.7,32019.8,35086.2,0.025,0.101,135.0,98.1,0.478
27.72,32072.2,35193.6,0.0984,0.2316,135.0,98.1,0.478
27.74,31930.7,35016.6,-0.0998,0.0163,135.0,98.1,0.478
27.76,31963.1,34936.1,-0.0544,-0.0815,135.0,98.1,0.478
27.78,31873.1,34794.7,-0.1804,-0.2536,135.0,98.1,0.478
27.8,31915.3,34818.1,-0.1213,-0.2251,135.0,98.1,0.478
27.82,31844.1,34693.0,-0.2211,-0.3773,135.0,98.1,0.478
27.84,31833.3,34616.3,-0.2362,-0.4706,135.0,98.1,0.478
27.86,31820.7,34660.7,-0.2539,-0.4166,135.0,98.1,0.478
27.88,31692.7,34656.4,-0.4331,-0.4218,135.0,98.1,0.478
27.9,31853.8,34479.3,-0.2075,-0.6373,135.0,98.1,0.478
27.92,31810.8,34374.5,-0.2677,-0.7648,135.0,98.1,0.478
27.94,31787.5,34547.2,-0.3003,-0.5547,135.0,98.1,0.478
27.96,31818.6,34577.4,-0.2568,-0.5179,135.0,98.1,0.478
27.98,31953.0,34982.6,-0.0686,-0.025,135.0,98.1,0.478
28.0,32147.1,35292.2,0.2032,0.3515,135.0,98.1,0.478
28.02,32262.3,35648.5,0.3645,0.785,135.0,98.1,0.478
28.04,32318.6,35757.7,0.4434,0.9178,135.0,98.1,0.478
28.06,32283.0,35752.0,0.3936,0.9109,135.0,98.1,0.478
28.08,32200.0,35717.3,0.2774,0.8687,135.0,98.1,0.478
28.1,32197.1,35332.3,0.2733,0.4004,135.0,98.1,0.478
28.12,32170.7,35249.2,0.2363,0.2992,135.0,98.1,0.478
28.14,32103.8,35074.2,0.1427,0.0865,135.0,98.1,0.478
28.16,32061.4,35072.3,0.0833,0.0841,135.0,98.1,0.478
28.18,31979.6,34966.9,-0.0313,-0.0442,135.0,98.1,0.478
28.2,31990.0,34956.9,-0.0167,-0.0563,135.0,98.1,0.478
28.22,32025.0,34852.8,0.0323,-0.1829,135.0,98.1,0.478
28.24,31917.1,34851.3,-0.1188,-0.1847,135.0,98.1,0.478
28.26,31932.7,34767.0,-0.097,-0.2872,135.0,98.1,0.478
28.28,31823.5,34710.0,-0.25,-0.3567,135.0,98.1,0.478
28.3,31837.5,34639.0,-0.2303,-0.443,135.0,98.1,0.478
28.32,31765.7,34660.4,-0.3309,-0.417,135.0,98.1,0.478
28.34,31841.4,34495.8,-0.2249,-0.6171,135.0,98.1,0.478
28.36,31785.5,34411.8,-0.3031,-0.7194,135.0,98.1,0.478
28.38,31662.5,34508.6,-0.4754,-0.6016,135.0,98.1,0.478
28.4,31819.7,34604.1,-0.2552,-0.4855,135.0,98.1,0.478
28.42,31983.3,34877.3,-0.0261,-0.1531,135.0,98.1,0.478
28.44,32167.7,35259.6,0.2321,0.3119,135.0,98.1,0.478
28.46,32150.6,35493.3,0.2082,0.5961,135.0,98.1,0.478
28.48,32314.3,35825.3,0.4374,1.0,135.0,98.1,0.478
28.5,32426.9,35772.7,0.5951,0.936,135.0,98.1,0.478
28.52,32215.4,35595.6,0.299,0.7206,135.0,98.1,0.478
28.54,32163.4,35458.0,0.2261,0.5532,135.0,98.1,0.478
28.56,32071.0,35185.7,0.0966,0.222,135.0,98.1,0.478
28.58,32016.5,35135.9,0.0204,0.1614,135.0,98.1,0.478
28.6,32083.8,35050.9,0.1146,0.058,135.0,98.1,0.478
28.62,31929.0,35157.1,-0.1021,0.1872,135.0,98.1,0.478
28.64,32037.0,34980.8,0.0491,-0.0273,135.0,98.1,0.478
28.66,31911.3,34793.8,-0.127,-0.2547,135.0,98.1,0.478
28.68,31999.2,34689.1,-0.0039,-0.3821,135.0,98.1,0.478
28.7,31905.7,34746.7,-0.1348,-0.312,135.0,98.1,0.478
28.72,31809.1,34619.9,-0.27,-0.4662,135.0,98.1,0.478
28.74,31939.8,34546.4,-0.087,-0.5556,135.0,98.1,0.478
28.76,31942.0,34605.0,-0.084,-0.4843,135.0,98.1,0.478
28.78,31788.9,34616.5,-0.2983,-0.4704,135.0,98.1,0.478
28.8,31758.8,34482.6,-0.3405,-0.6332,135.0,98.1,0.478
28.82,31797.5,34549.3,-0.2863,-0.5521,135.0,98.1,0.478
28.84,31781.3,34571.2,-0.3089,-0.5254,135.0,98.1,0.478
28.86,31929.4,34815.0,-0.1016,-0.2289,135.0,98.1,0.478
28.88,31961.5,35140.8,-0.0567,0.1674,135.0,98.1,0.478
28.9,32283.0,35467.7,0.3936,0.5651,135.0,98.1,0.478
28.92,32327.5,35673.4,0.4559,0.8152,135.0,98.1,0.478
28.94,32384.6,35799.6,0.5359,0.9688,135.0,98.1,0.478
28.96,32219.7,35589.0,0.3049,0.7126,135.0,98.1,0.478
28.98,32172.3,35518.2,0.2386,0.6265,135.0,98.1,0.478
29.0,32082.5,35322.9,0.1128,0.3889,135.0,98.1,0.478
29.02,32074.6,35166.5,0.1018,0.1987,135.0,98.1,0.478
29.04,31948.1,35095.1,-0.0754,0.1118,135.0,98.1,0.478
29.06,31993.1,35124.0,-0.0124,0.147,135.0,98.1,0.478
29.08,31988.9,34983.4,-0.0183,-0.024,135.0,98.1,0.478
29.1,31927.8,34857.5,-0.1039,-0.1772,135.0,98.1,0.478
29.12,31955.3,34778.1,-0.0653,-0.2738,135.0,98.1,0.478
29.14,31869.6,34796.9,-0.1854,-0.251,135.0,98.1,0.478
29.16,31836.8,34676.4,-0.2313,-0.3975,135.0,98.1,0.478
29.18,31855.3,34660.0,-0.2054,-0.4174,135.0,98.1,0.478
29.2,31920.1,34657.1,-0.1147,-0.4209,135.0,98.1,0.478
29.22,31749.1,34543.9,-0.3541,-0.5587,135.0,98.1,0.478
29.24,31878.1,34496.7,-0.1735,-0.6161,135.0,98.1,0.478
29.26,31808.1,34438.9,-0.2715,-0.6864,135.0,98.1,0.478
29.28,31707.9,34561.5,-0.4118,-0.5372,135.0,98.1,0.478
29.3,31823.6,34774.6,-0.2498,-0.278,135.0,98.1,0.478
29.32,32106.7,34973.8,0.1467,-0.0358,135.0,98.1,0.478
29.34,32242.7,35460.4,0.3371,0.5562,135.0,98.1,0.478
29.36,32303.7,35630.5,0.4226,0.763,135.0,98.1,0.478
29.38,32437.9,35793.4,0.6105,0.9612,135.0,98.1,0.478
29.4,32388.6,35697.8,0.5415,0.845,135.0,98.1,0.478
29.42,32247.9,35577.6,0.3445,0.6988,135.0,98.1,0.478
29.44,32198.1,35267.5,0.2747,0.3215,135.0,98.1,0.478
29.46,32183.7,35317.6,0.2546,0.3824,135.0,98.1,0.478
29.48,32078.0,35126.5,0.1065,0.15,135.0,98.1,0.478
29.5,31999.4,35048.3,-0.0036,0.0549,135.0,98.1,0.478
29.52,31996.0,35012.6,-0.0083,0.0115,135.0,98.1,0.478
29.54,32023.1,34962.5,0.0296,-0.0495,135.0,98.1,0.478
29.56,31924.3,34815.6,-0.1087,-0.2282,135.0,98.1,0.478
29.58,31836.8,34768.5,-0.2313,-0.2855,135.0,98.1,0.478
29.6,31860.7,34698.0,-0.1978,-0.3712,135.0,98.1,0.478
29.62,31761.4,34567.7,-0.3368,-0.5297,135.0,98.1,0.478
29.64,31870.6,34634.1,-0.184,-0.449,135.0,98.1,0.478
29.66,31845.1,34560.0,-0.2196,-0.539,135.0,98.1,0.478
29.68,31786.2,34613.3,-0.3021,-0.4743,135.0,98.1,0.478
29.7,31701.4,34520.6,-0.4209,-0.5869,135.0,98.1,0.478
29.72,31889.8,34538.1,-0.157,-0.5657,135.0,98.1,0.478
29.74,31833.1,34720.0,-0.2365,-0.3444,135.0,98.1,0.478
29.76,31982.2,34970.1,-0.0277,-0.0402,135.0,98.1,0.478
29.78,32245.9,35252.4,0.3416,0.3031,135.0,98.1,0.478
29.8,32271.1,35625.2,0.3769,0.7566,135.0,98.1,0.478
29.82,32375.0,35614.0,0.5224,0.743,135.0,98.1,0.478
29.84,32367.3,35764.2,0.5117,0.9257,135.0,98.1,0.478
29.86,32316.9,35630.4,0.441,0.763,135.0,98.1,0.478
29.88,32180.6,35413.4,0.2502,0.499,135.0,98.1,0.478
29.9,32067.6,35300.9,0.0919,0.3621,135.0,98.1,0.478
29.92,32003.3,35179.3,0.0019,0.2142,135.0,98.1,0.478
29.94,32039.6,35094.1,0.0527,0.1107,135.0,98.1,0.478
29.96,31934.5,34970.3,-0.0945,-0.04,135.0,98.1,0.478
29.98,32084.5,34974.6,0.1156,-0.0348,135.0,98.1,0.478
30.0,32468.5,32659.1,0.6534,-2.8513,135.0,98.1,0.478
30.02,32892.0,33818.8,1.2464,-1.4406,135.0,98.1,0.478
30.04,30984.6,34134.8,-1.4246,-1.0563,135.0,98.1,0.478
30.06,31230.6,36425.9,-1.0802,1.7306,135.0,98.1,0.478
30.08,26074.0,36994.6,-8.3014,2.4224,135.0,98.1,0.478
30.1,31534.3,30914.1,-0.655,-4.9739,135.0,98.1,0.478
30.12,31413.0,32171.3,-0.8248,-3.4446,135.0,98.1,0.478
30.14,34187.0,36250.9,3.06,1.5177,135.0,98.1,0.478
30.16,32893.7,35024.1,1.2488,0.0255,135.0,98.1,0.478
30.18,33345.0,35898.6,1.8808,1.0892,135.0,98.1,0.478
30.2,32286.3,32062.1,0.3982,-3.5775,135.0,98.1,0.478
30.22,32610.2,37002.3,0.8518,2.4316,135.0,98.1,0.478
30.24,33429.9,35842.5,1.9997,1.021,135.0,98.1,0.478
30.26,32767.1,34717.6,1.0716,-0.3473,135.0,98.1,0.478
30.28,36028.7,33190.4,5.639,-2.2051,135.0,98.1,0.478
30.3,29790.8,36416.4,-3.0965,1.719,135.0,98.1,0.478
30.32,32575.7,36413.2,0.8035,1.7151,135.0,98.1,0.478
30.34,33243.1,36739.3,1.738,2.1118,135.0,98.1,0.478
30.36,32348.9,34486.0,0.4859,-0.6291,135.0,98.1,0.478
30.38,36100.9,38751.8,5.7401,4.5598,135.0,98.1,0.478
30.4,30764.2,33346.8,-1.7333,-2.0147,135.0,98.1,0.478
30.42,32760.5,34486.6,1.0622,-0.6283,135.0,98.1,0.478
30.44,32984.2,34539.9,1.3755,-0.5635,135.0,98.1,0.478
30.46,33368.6,35853.5,1.9138,1.0343,135.0,98.1,0.478
30.48,31780.5,34316.7,-0.3101,-0.835,135.0,98.1,0.478
30.5,29915.9,32744.6,-2.9212,-2.7472,135.0,98.1,0.478
30.52,32340.7,31293.8,0.4744,-4.512,135.0,98.1,0.478
30.54,31730.1,37366.9,-0.3808,2.8752,135.0,98.1,0.478
30.56,35532.2,35372.2,4.9437,0.4489,135.0,98.1,0.478
30.58,34072.9,34510.0,2.9001,-0.5999,135.0,98.1,0.478
30.6,28831.2,30329.7,-4.4403,-5.6847,135.0,98.1,0.478
30.62,32839.7,35903.1,1.1732,1.0947,135.0,98.1,0.478
30.64,30259.9,36956.8,-2.4396,2.3763,135.0,98.1,0.478
30.66,29953.4,36051.8,-2.8688,1.2756,135.0,98.1,0.478
30.68,29950.1,38237.0,-2.8733,3.9336,135.0,98.1,0.478
30.7,30518.3,35542.3,-2.0777,0.6557,135.0,98.1,0.478
30.72,33138.7,35106.5,1.592,0.1256,135.0,98.1,0.478
30.74,32529.4,34683.4,0.7387,-0.389,135.0,98.1,0.478
30.76,34916.4,32965.3,4.0814,-2.4788,135.0,98.1,0.478
30.78,30797.5,36482.0,-1.6867,1.7988,135.0,98.1,0.478
30.8,31739.4,33257.5,-0.3676,-2.1234,135.0,98.1,0.478
30.82,31010.7,35265.5,-1.3881,0.3191,135.0,98.1,0.478
30.84,31627.1,34277.0,-0.5249,-0.8834,135.0,98.1,0.478
30.86,29861.2,39076.3,-2.9979,4.9545,135.0,98.1,0.478
30.88,32269.4,30992.8,0.3745,-4.8781,135.0,98.1,0.478
30.9,27979.2,37147.3,-5.6335,2.608,135.0,98.1,0.478
30.92,32682.6,34917.0,0.9532,-0.1048,135.0,98.1,0.478
30.94,29613.7,33844.4,-3.3445,-1.4096,135.0,98.1,0.478
30.96,30886.6,33530.6,-1.5619,-1.7912,135.0,98.1,0.478
30.98,28513.3,34370.0,-4.8856,-0.7702,135.0,98.1,0.478
31.0,30079.5,35060.9,-2.6922,0.0703,135.0,98.1,0.478
31.02,33110.9,33539.6,1.553,-1.7802,135.0,98.1,0.478
31.04,32955.9,36198.9,1.3359,1.4545,135.0,98.1,0.478
31.06,32407.3,31802.1,0.5676,-3.8937,135.0,98.1,0.478
31.08,29884.8,33831.4,-2.9649,-1.4253,135.0,98.1,0.478
31.1,32580.4,34944.9,0.81,-0.0709,135.0,98.1,0.478
31.12,32524.5,35876.3,0.7318,1.0621,135.0,98.1,0.478
31.14,32372.4,36635.0,0.5187,1.9849,135.0,98.1,0.478
31.16,32179.1,33757.5,0.248,-1.5152,135.0,98.1,0.478
31.18,31651.9,32475.8,-0.4902,-3.0743,135.0,98.1,0.478
31.2,29592.0,34623.6,-3.3749,-0.4617,135.0,98.1,0.478
31.22,32370.8,33716.8,0.5165,-1.5647,135.0,98.1,0.478
31.24,31750.0,33776.2,-0.3528,-1.4924,135.0,98.1,0.478
31.26,27455.3,36658.9,-6.3671,2.014,135.0,98.1,0.478
31.28,32928.5,33031.9,1.2976,-2.3979,135.0,98.1,0.478
31.3,34133.7,35013.9,2.9853,0.013,135.0,98.1,0.478
31.32,33150.1,34430.4,1.6079,-0.6967,135.0,98.1,0.478
31.34,33228.2,37201.6,1.7172,2.6741,135.0,98.1,0.478
31.36,33642.8,37579.5,2.2978,3.1338,135.0,98.1,0.478
31.38,30948.2,37440.8,-1.4756,2.965,135.0,98.1,0.478
31.4,28917.1,32773.8,-4.32,-2.7118,135.0,98.1,0.478
31.42,34153.8,31288.3,3.0135,-4.5187,135.0,98.1,0.478
31.44,29502.8,34686.6,-3.4998,-0.3851,135.0,98.1,0.478
31.46,31504.6,37166.4,-0.6966,2.6313,135.0,98.1,0.478
31.48,34342.6,37632.6,3.2779,3.1984,135.0,98.1,0.478
31.5,29042.9,32557.8,-4.1439,-2.9745,135.0,98.1,0.478
31.52,31922.4,31662.1,-0.1114,-4.064,135.0,98.1,0.478
31.54,31676.9,34186.0,-0.4552,-0.994,135.0,98.1,0.478
31.56,29136.4,35437.1,-4.013,0.5278,135.0,98.1,0.478
31.58,31107.0,34822.9,-1.2532,-0.2193,135.0,98.1,0.478
31.6,34861.0,34296.8,4.0038,-0.8592,135.0,98.1,0.478
31.62,33565.3,32711.8,2.1893,-2.7872,135.0,98.1,0.478
31.64,32737.8,36901.9,1.0304,2.3096,135.0,98.1,0.478
31.66,31954.7,35448.1,-0.0662,0.5412,135.0,98.1,0.478
31.68,34021.4,35512.6,2.828,0.6197,135.0,98.1,0.478
31.7,33156.2,35467.8,1.6164,0.5652,135.0,98.1,0.478
31.72,31617.7,33707.9,-0.5381,-1.5756,135.0,98.1,0.478
31.74,31570.6,34576.9,-0.6041,-0.5185,135.0,98.1,0.478
31.76,30201.8,35439.1,-2.5209,0.5302,135.0,98.1,0.478
31.78,29232.5,34730.4,-3.8783,-0.3318,135.0,98.1,0.478
31.8,31822.8,35277.6,-0.2509,0.3338,135.0,98.1,0.478
31.82,32995.3,34729.7,1.3911,-0.3326,135.0,98.1,0.478
31.84,28383.9,32899.5,-5.0668,-2.5589,135.0,98.1,0.478
31.86,30829.1,34108.0,-1.6425,-1.0888,135.0,98.1,0.478
31.88,32301.6,36421.7,0.4196,1.7255,135.0,98.1,0.478
31.9,31532.3,33294.8,-0.6577,-2.0781,135.0,98.1,0.478
31.92,34546.0,35869.5,3.5627,1.0538,135.0,98.1,0.478
31.94,33496.6,34359.9,2.093,-0.7825,135.0,98.1,0.478
31.96,28770.4,34191.7,-4.5254,-0.9871,135.0,98.1,0.478
31.98,30891.6,37481.3,-1.555,3.0143,135.0,98.1,0.478
32.0,33310.8,34355.7,1.8329,-0.7876,135.0,98.1,0.478
32.02,34790.7,35353.7,3.9053,0.4264,135.0,98.1,0.478
32.04,31470.0,37187.7,-0.745,2.6573,135.0,98.1,0.478
32.06,29621.4,30638.5,-3.3338,-5.3091,135.0,98.1,0.478
32.08,33960.9,37972.5,2.7432,3.6118,135.0,98.1,0.478
32.1,31677.1,37857.7,-0.4549,3.4722,135.0,98.1,0.478
32.12,31086.1,32257.3,-1.2826,-3.3401,135.0,98.1,0.478
32.14,27621.8,35996.0,-6.134,1.2077,135.0,98.1,0.478
32.16,32975.1,34638.3,1.3628,-0.4439,135.0,98.1,0.478
32.18,34338.7,35474.3,3.2724,0.5731,135.0,98.1,0.478
32.2,30241.7,35878.9,-2.465,1.0652,135.0,98.1,0.478
32.22,34374.1,35370.0,3.3219,0.4462,135.0,98.1,0.478
32.24,33137.5,34345.6,1.5902,-0.7999,135.0,98.1,0.478
32.26,30576.7,35229.7,-1.9959,0.2755,135.0,98.1,0.478
32.28,29344.7,35567.0,-3.7212,0.6859,135.0,98.1,0.478
32.3,35257.1,32960.9,4.5585,-2.4842,135.0,98.1,0.478
32.32,31027.3,33924.6,-1.3649,-1.3119,135.0,98.1,0.478
32.34,33809.3,33608.1,2.531,-1.6969,135.0,98.1,0.478
32.36,33735.9,33785.4,2.4282,-1.4812,135.0,98.1,0.478
32.38,31040.0,29730.3,-1.3472,-6.4139,135.0,98.1,0.478
32.4,31334.2,37410.7,-0.9351,2.9285,135.0,98.1,0.478
32.42,33167.6,31961.7,1.6324,-3.6995,135.0,98.1,0.478
32.44,32202.8,39062.2,0.2813,4.9374,135.0,98.1,0.478
32.46,31780.5,33197.6,-0.3101,-2.1962,135.0,98.1,0.478
32.48,31388.5,36121.5,-0.8591,1.3604,135.0,98.1,0.478
32.5,33736.0,34718.3,2.4283,-0.3465,135.0,98.1,0.478
32.52,36185.2,38259.4,5.8581,3.9608,135.0,98.1,0.478
32.54,30459.3,38384.6,-2.1604,4.1131,135.0,98.1,0.478
32.56,33109.3,31620.4,1.5507,-4.1147,135.0,98.1,0.478
32.58,34117.1,35132.0,2.9621,0.1567,135.0,98.1,0.478
32.6,34539.0,31186.1,3.5529,-4.6431,135.0,98.1,0.478
32.62,31592.6,35948.5,-0.5732,1.1499,135.0,98.1,0.478
32.64,32927.0,36548.2,1.2955,1.8794,135.0,98.1,0.478
32.66,33338.9,34430.4,1.8722,-0.6967,135.0,98.1,0.478
32.68,34095.7,33273.5,2.9321,-2.1039,135.0,98.1,0.478
32.7,31533.4,35983.0,-0.6562,1.1918,135.0,98.1,0.478
32.72,32392.1,35182.0,0.5464,0.2175,135.0,98.1,0.478
32.74,29004.0,36758.7,-4.1982,2.1354,135.0,98.1,0.478
32.76,32654.1,32959.3,0.9133,-2.4861,135.0,98.1,0.478
32.78,32963.3,34074.9,1.3463,-1.1291,135.0,98.1,0.478
32.8,32240.3,33754.0,0.3338,-1.5195,135.0,98.1,0.478
32.82,30260.5,36747.3,-2.4387,2.1216,135.0,98.1,0.478
32.84,34652.3,34274.1,3.7115,-0.8868,135.0,98.1,0.478
32.86,31117.7,34021.1,-1.2384,-1.1945,135.0,98.1,0.478
32.88,34768.9,35354.9,3.8748,0.4278,135.0,98.1,0.478
32.9,36714.9,36098.8,6.6,1.3327,135.0,98.1,0.478
32.92,28841.7,37635.8,-4.4256,3.2023,135.0,98.1,0.478
32.94,29641.2,35244.0,-3.3059,0.2929,135.0,98.1,0.478
32.96,35255.3,35398.5,4.5559,0.4809,135.0,98.1,0.478
32.98,32735.4,36225.9,1.0271,1.4874,135.0,98.1,0.478
33.0,32377.3,38286.9,0.5256,3.9943,135.0,98.1,0.478
33.02,31244.9,36055.2,-1.0602,1.2797,135.0,98.1,0.478
33.04,30845.3,34536.9,-1.6197,-0.5672,135.0,98.1,0.478
33.06,36241.7,35460.8,5.9373,0.5567,135.0,98.1,0.478
33.08,34100.5,35970.5,2.9388,1.1766,135.0,98.1,0.478
33.1,31345.2,39805.0,-0.9198,5.8408,135.0,98.1,0.478
33.12,30030.5,35087.0,-2.7608,0.102,135.0,98.1,0.478
33.14,31740.3,32619.5,-0.3664,-2.8994,135.0,98.1,0.478
33.16,33728.8,34838.5,2.4182,-0.2004,135.0,98.1,0.478
33.18,33183.2,36393.1,1.6541,1.6907,135.0,98.1,0.478
33.2,29651.1,34033.0,-3.2922,-1.1802,135.0,98.1,0.478
33.22,30660.0,35518.0,-1.8793,0.6263,135.0,98.1,0.478
33.24,28544.7,36610.1,-4.8415,1.9546,135.0,98.1,0.478
33.26,29907.0,35421.2,-2.9338,0.5084,135.0,98.1,0.478
33.28,29582.0,34944.1,-3.389,-0.0719,135.0,98.1,0.478
33.3,32383.1,33556.6,0.5337,-1.7596,135.0,98.1,0.478
33.32,32157.3,35979.5,0.2175,1.1876,135.0,98.1,0.478
33.34,31003.4,36134.9,-1.3983,1.3767,135.0,98.1,0.478
33.36,30501.4,34456.3,-2.1013,-0.6652,135.0,98.1,0.478
33.38,37106.1,37549.1,7.1478,3.0968,135.0,98.1,0.478
33.4,31432.0,35586.1,-0.7982,0.7091,135.0,98.1,0.478
33.42,28912.4,35923.6,-4.3265,1.1196,135.0,98.1,0.478
33.44,33282.4,35737.2,1.7932,0.8928,135.0,98.1,0.478
33.46,30177.1,35545.1,-2.5555,0.6592,135.0,98.1,0.478
33.48,32949.7,33901.6,1.3272,-1.34,135.0,98.1,0.478
33.5,28632.0,32885.3,-4.7193,-2.5761,135.0,98.1,0.478
33.52,31526.9,37799.6,-0.6652,3.4015,135.0,98.1,0.478
33.54,32950.7,35214.7,1.3286,0.2573,135.0,98.1,0.478
33.56,31789.9,34862.3,-0.297,-0.1713,135.0,98.1,0.478
33.58,32507.3,35043.5,0.7077,0.049,135.0,98.1,0.478
33.6,31635.6,32702.4,-0.513,-2.7986,135.0,98.1,0.478
33.62,31371.9,32143.5,-0.8823,-3.4785,135.0,98.1,0.478
33.64,33972.6,40764.6,2.7596,7.0081,135.0,98.1,0.478
33.66,30877.7,34711.2,-1.5744,-0.3551,135.0,98.1,0.478
33.68,30825.9,33264.0,-1.6469,-2.1156,135.0,98.1,0.478
33.7,31692.2,37045.2,-0.4338,2.4839,135.0,98.1,0.478
33.72,30131.4,31789.9,-2.6196,-3.9086,135.0,98.1,0.478
33.74,32537.2,35556.4,0.7495,0.673,135.0,98.1,0.478
33.76,28256.6,37137.9,-5.245,2.5966,135.0,98.1,0.478
33.78,32158.9,36266.1,0.2198,1.5362,135.0,98.1,0.478
33.8,34441.1,36627.2,3.4158,1.9754,135.0,98.1,0.478
33.82,29601.0,33049.9,-3.3623,-2.3759,135.0,98.1,0.478
33.84,32054.6,36166.4,0.0737,1.4149,135.0,98.1,0.478
33.86,33795.0,33236.5,2.511,-2.149,135.0,98.1,0.478
33.88,33575.3,34068.3,2.2033,-1.1371,135.0,98.1,0.478
33.9,32948.6,38108.9,1.3257,3.7777,135.0,98.1,0.478
33.92,34995.4,38645.5,4.192,4.4305,135.0,98.1,0.478
33.94,34204.5,32377.7,3.0844,-3.1936,135.0,98.1,0.478
33.96,29464.1,35868.0,-3.5541,1.052,135.0,98.1,0.478
33.98,29291.1,38323.3,-3.7962,4.0386,135.0,98.1,0.478
34.0,33751.3,31586.1,2.4497,-4.1565,135.0,98.1,0.478
34.02,32390.0,37430.9,0.5434,2.9531,135.0,98.1,0.478
34.04,31131.8,32390.0,-1.2185,-3.1787,135.0,98.1,0.478
34.06,31636.5,35347.3,-0.5118,0.4186,135.0,98.1,0.478
34.08,33258.0,38132.2,1.7589,3.8062,135.0,98.1,0.478
34.1,34406.5,35678.4,3.3673,0.8214,135.0,98.1,0.478
34.12,31755.9,32107.5,-0.3446,-3.5223,135.0,98.1,0.478
34.14,30208.5,31557.4,-2.5115,-4.1914,135.0,98.1,0.478
34.16,33409.3,32129.0,1.9709,-3.4961,135.0,98.1,0.478
34.18,32859.4,33264.3,1.2007,-2.1152,135.0,98.1,0.478
34.2,29877.8,37198.7,-2.9747,2.6706,135.0,98.1,0.478
34.22,33773.2,34672.0,2.4804,-0.4028,135.0,98.1,0.478
34.24,30096.1,36548.1,-2.6689,1.8792,135.0,98.1,0.478
34.26,33221.5,33926.6,1.7078,-1.3095,135.0,98.1,0.478
34.28,32194.9,38423.7,0.2702,4.1607,135.0,98.1,0.478
34.3,31538.6,36529.4,-0.6489,1.8564,135.0,98.1,0.478
34.32,29456.7,32661.5,-3.5643,-2.8484,135.0,98.1,0.478
34.34,32783.0,38237.5,1.0938,3.9342,135.0,98.1,0.478
34.36,29203.8,35968.9,-3.9185,1.1747,135.0,98.1,0.478
34.38,30534.1,34214.2,-2.0556,-0.9597,135.0,98.1,0.478
34.4,32443.2,34795.3,0.6179,-0.2529,135.0,98.1,0.478
34.42,35006.4,32000.3,4.2074,-3.6526,135.0,98.1,0.478
34.44,31053.4,34098.9,-1.3284,-1.0999,135.0,98.1,0.478
34.46,30861.1,33595.0,-1.5976,-1.7128,135.0,98.1,0.478
34.48,33224.8,37545.4,1.7124,3.0924,135.0,98.1,0.478
34.5,32294.8,32445.9,0.4102,-3.1107,135.0,98.1,0.478
34.52,32359.5,33702.3,0.5007,-1.5824,135.0,98.1,0.478
34.54,35305.7,35486.4,4.6265,0.5878,135.0,98.1,0.478
34.56,29405.4,37098.2,-3.6362,2.5484,135.0,98.1,0.478
34.58,30725.6,36512.5,-1.7873,1.836,135.0,98.1,0.478
34.6,31556.8,35080.1,-0.6234,0.0936,135.0,98.1,0.478
34.62,32642.3,31494.9,0.8967,-4.2675,135.0,98.1,0.478
34.64,30820.6,34913.7,-1.6544,-0.1088,135.0,98.1,0.478
34.66,30968.3,36856.1,-1.4475,2.2539,135.0,98.1,0.478
34.68,31495.0,38354.0,-0.71,4.0759,135.0,98.1,0.478
34.7,31001.3,35720.1,-1.4013,0.8721,135.0,98.1,0.478
34.72,32242.5,33957.0,0.3368,-1.2725,135.0,98.1,0.478
34.74,33113.9,34285.5,1.5572,-0.8729,135.0,98.1,0.478
34.76,35066.0,34223.6,4.2909,-0.9482,135.0,98.1,0.478
34.78,32773.5,33107.9,1.0805,-2.3054,135.0,98.1,0.478
34.8,29463.2,33370.7,-3.5553,-1.9857,135.0,98.1,0.478
34.82,29666.7,35975.1,-3.2703,1.1823,135.0,98.1,0.478
34.84,31567.9,38953.1,-0.6079,4.8046,135.0,98.1,0.478
34.86,31899.2,31594.1,-0.1439,-4.1467,135.0,98.1,0.478
34.88,33893.3,35940.7,2.6486,1.1404,135.0,98.1,0.478
34.9,33874.1,36847.5,2.6217,2.2434,135.0,98.1,0.478
34.92,34045.8,32300.7,2.8622,-3.2873,135.0,98.1,0.478
34.94,33527.3,31810.4,2.1362,-3.8837,135.0,98.1,0.478
34.96,32481.7,32163.6,0.6718,-3.454,135.0,98.1,0.478
34.98,30268.3,33722.9,-2.4278,-1.5574,135.0,98.1,0.478
35.0,30223.0,30490.5,-2.4912,-5.4892,135.0,98.1,0.478
35.02,31863.5,33360.2,-0.1939,-1.9985,135.0,98.1,0.478
35.04,31536.6,34866.7,-0.6516,-0.166,135.0,98.1,0.478
35.06,31332.0,34792.7,-0.9382,-0.256,135.0,98.1,0.478
35.08,33227.1,33946.3,1.7157,-1.2856,135.0,98.1,0.478
35.1,28825.4,37259.2,-4.4484,2.7442,135.0,98.1,0.478
35.12,31818.0,35382.0,-0.2576,0.4608,135.0,98.1,0.478
35.14,32382.1,31263.4,0.5324,-4.549,135.0,98.1,0.478
35.16,32445.2,39961.8,0.6207,6.0317,135.0,98.1,0.478
35.18,26943.8,33279.9,-7.0835,-2.0962,135.0,98.1,0.478
35.2,31598.0,33064.9,-0.5657,-2.3577,135.0,98.1,0.478
35.22,33010.1,32242.2,1.4118,-3.3584,135.0,98.1,0.478
35.24,28948.5,34635.1,-4.276,-0.4477,135.0,98.1,0.478
35.26,32971.2,32865.5,1.3573,-2.6002,135.0,98.1,0.478
35.28,36386.4,31583.9,6.1399,-4.1592,135.0,98.1,0.478
35.3,32169.1,36861.9,0.234,2.2609,135.0,98.1,0.478
35.32,28704.6,38786.5,-4.6176,4.602,135.0,98.1,0.478
35.34,34964.3,34705.2,4.1484,-0.3624,135.0,98.1,0.478
35.36,34360.4,36602.8,3.3027,1.9458,135.0,98.1,0.478
35.38,31048.6,31135.4,-1.3351,-4.7047,135.0,98.1,0.478
35.4,30757.2,34259.5,-1.7431,-0.9045,135.0,98.1,0.478
35.42,32670.7,36301.1,0.9366,1.5788,135.0,98.1,0.478
35.44,33448.6,37747.6,2.0258,3.3383,135.0,98.1,0.478
35.46,30258.3,31246.2,-2.4419,-4.5699,135.0,98.1,0.478
35.48,32497.0,32059.2,0.6932,-3.5811,135.0,98.1,0.478
35.5,31052.6,33254.0,-1.3295,-2.1277,135.0,98.1,0.478
35.52,33028.9,37017.9,1.4381,2.4507,135.0,98.1,0.478
35.54,34253.0,34873.5,3.1523,-0.1577,135.0,98.1,0.478
35.56,29938.8,37955.3,-2.8893,3.5909,135.0,98.1,0.478
35.58,34399.5,35261.6,3.3575,0.3143,135.0,98.1,0.478
35.6,28330.4,33266.4,-5.1416,-2.1125,135.0,98.1,0.478
35.62,31911.3,35498.0,-0.127,0.6019,135.0,98.1,0.478
35.64,31350.9,34696.8,-0.9117,-0.3726,135.0,98.1,0.478
35.66,31753.8,35947.7,-0.3475,1.1489,135.0,98.1,0.478
35.68,27711.8,38275.0,-6.0079,3.9798,135.0,98.1,0.478
35.7,31376.4,35815.7,-0.876,0.9883,135.0,98.1,0.478
35.72,28256.8,34181.1,-5.2447,-1.0,135.0,98.1,0.478
35.74,29836.7,34248.1,-3.0322,-0.9185,135.0,98.1,0.478
35.76,31320.8,35115.0,-0.9539,0.136,135.0,98.1,0.478
35.78,35377.0,32807.3,4.7264,-2.6711,135.0,98.1,0.478
35.8,31533.8,34314.7,-0.6557,-0.8374,135.0,98.1,0.478
35.82,31809.8,33496.9,-0.2691,-1.8322,135.0,98.1,0.478
35.84,29798.7,38534.5,-3.0854,4.2955,135.0,98.1,0.478
35.86,34566.8,34077.0,3.5917,-1.1266,135.0,98.1,0.478
35.88,34370.7,34832.4,3.3171,-0.2078,135.0,98.1,0.478
35.9,35862.9,34169.5,5.4068,-1.014,135.0,98.1,0.478
35.92,31383.3,32009.0,-0.8663,-3.642,135.0,98.1,0.478
35.94,31112.2,35100.6,-1.246,0.1185,135.0,98.1,0.478
35.96,33405.2,30892.1,1.9651,-5.0007,135.0,98.1,0.478
35.98,32369.1,34428.5,0.5142,-0.6991,135.0,98.1,0.478
36.0,30614.5,32785.7,-1.943,-2.6974,135.0,98.1,0.478
36.02,30560.4,31921.5,-2.0188,-3.7485,135.0,98.1,0.478
36.04,33832.5,37797.7,2.5635,3.3992,135.0,98.1,0.478
36.06,29315.4,36831.9,-3.7623,2.2245,135.0,98.1,0.478
36.08,33888.2,35896.5,2.6415,1.0867,135.0,98.1,0.478
36.1,32894.9,36994.0,1.2504,2.4216,135.0,98.1,0.478
36.12,30872.2,34571.1,-1.582,-0.5256,135.0,98.1,0.478
36.14,27071.0,33648.3,-6.9052,-1.648,135.0,98.1,0.478
36.16,31500.4,34745.8,-0.7024,-0.3131,135.0,98.1,0.478
36.18,35952.5,34727.5,5.5323,-0.3353,135.0,98.1,0.478
36.2,32882.6,33704.2,1.2333,-1.5801,135.0,98.1,0.478
36.22,31733.1,34945.3,-0.3765,-0.0704,135.0,98.1,0.478
36.24,32849.6,32528.4,1.1871,-3.0103,135.0,98.1,0.478
36.26,33294.3,32129.1,1.8098,-3.496,135.0,98.1,0.478
36.28,32423.4,35781.4,0.5902,0.9466,135.0,98.1,0.478
36.3,32047.7,35425.0,0.0641,0.5131,135.0,98.1,0.478
36.32,32751.2,32692.1,1.0492,-2.8112,135.0,98.1,0.478
36.34,29262.0,37424.8,-3.8371,2.9457,135.0,98.1,0.478
36.36,31930.4,37890.6,-0.1002,3.5122,135.0,98.1,0.478
36.38,31512.4,33595.3,-0.6855,-1.7125,135.0,98.1,0.478
36.4,31174.8,37895.6,-1.1584,3.5184,135.0,98.1,0.478
36.42,31213.6,36006.8,-1.1039,1.2208,135.0,98.1,0.478
36.44,29109.7,33962.5,-4.0503,-1.2659,135.0,98.1,0.478
36.46,34482.4,33907.8,3.4736,-1.3324,135.0,98.1,0.478
36.48,33102.0,33128.0,1.5405,-2.2809,135.0,98.1,0.478
36.5,33704.2,35429.0,2.3839,0.518,135.0,98.1,0.478
36.52,30892.3,34907.6,-1.5539,-0.1162,135.0,98.1,0.478
36.54,33492.1,39066.9,2.0868,4.9431,135.0,98.1,0.478
36.56,31692.5,33587.9,-0.4334,-1.7215,135.0,98.1,0.478
36.58,32173.1,37407.7,0.2396,2.9248,135.0,98.1,0.478
36.6,31083.8,33115.5,-1.2858,-2.2961,135.0,98.1,0.478
36.62,30109.0,38118.1,-2.6509,3.789,135.0,98.1,0.478
36.64,33051.8,31039.9,1.4702,-4.8209,135.0,98.1,0.478
36.66,31428.6,35558.7,-0.8029,0.6757,135.0,98.1,0.478
36.68,31670.6,35558.4,-0.464,0.6753,135.0,98.1,0.478
36.7,30408.6,35794.3,-2.2314,0.9623,135.0,98.1,0.478
36.72,35325.8,31094.1,4.6547,-4.755,135.0,98.1,0.478
36.74,32014.3,38327.2,0.0172,4.0433,135.0,98.1,0.478
36.76,33753.6,39431.0,2.453,5.3859,135.0,98.1,0.478
36.78,30509.5,37357.9,-2.09,2.8643,135.0,98.1,0.478
36.8,34846.3,35061.4,3.9831,0.0709,135.0,98.1,0.478
36.82,31319.6,33715.9,-0.9556,-1.5659,135.0,98.1,0.478
36.84,34094.2,35634.5,2.9299,0.7679,135.0,98.1,0.478
36.86,31801.6,36213.6,-0.2805,1.4724,135.0,98.1,0.478
36.88,34419.6,34839.7,3.3856,-0.1989,135.0,98.1,0.478
36.9,27126.4,32973.3,-6.8277,-2.4691,135.0,98.1,0.478
36.92,30435.1,37135.5,-2.1942,2.5938,135.0,98.1,0.478
36.94,32663.0,32839.4,0.9258,-2.632,135.0,98.1,0.478
36.96,33601.6,33499.9,2.2401,-1.8285,135.0,98.1,0.478
36.98,31804.7,35058.3,-0.2763,0.0671,135.0,98.1,0.478
37.0,34311.2,36096.7,3.2338,1.3301,135.0,98.1,0.478
37.02,31917.7,34149.5,-0.1181,-1.0384,135.0,98.1,0.478
37.04,32821.4,38034.5,1.1476,3.6872,135.0,98.1,0.478
37.06,31859.1,39059.5,-0.2,4.934,135.0,98.1,0.478
37.08,30395.8,36281.7,-2.2492,1.5552,135.0,98.1,0.478
37.1,35041.4,34128.3,4.2564,-1.0642,135.0,98.1,0.478
37.12,31512.3,36009.7,-0.6857,1.2244,135.0,98.1,0.478
37.14,31920.1,37720.8,-0.1147,3.3056,135.0,98.1,0.478
37.16,36217.8,36363.7,5.9039,1.6549,135.0,98.1,0.478
37.18,32907.1,32042.0,1.2676,-3.6019,135.0,98.1,0.478
37.2,33507.8,33829.4,2.1087,-1.4278,135.0,98.1,0.478
37.22,29522.1,33646.5,-3.4728,-1.6502,135.0,98.1,0.478
37.24,31357.1,32282.6,-0.903,-3.3093,135.0,98.1,0.478
37.26,33704.1,35162.5,2.3837,0.1938,135.0,98.1,0.478
37.28,34987.9,35074.4,4.1815,0.0866,135.0,98.1,0.478
37.3,30878.2,41164.2,-1.5737,7.4942,135.0,98.1,0.478
37.32,33221.5,36724.9,1.7079,2.0943,135.0,98.1,0.478
37.34,31766.1,35644.5,-0.3302,0.7801,135.0,98.1,0.478
37.36,32961.5,37438.1,1.3437,2.9619,135.0,98.1,0.478
37.38,33240.4,38442.1,1.7343,4.183,135.0,98.1,0.478
37.4,31174.5,37303.3,-1.1588,2.7978,135.0,98.1,0.478
37.42,32963.7,37667.1,1.3469,3.2404,135.0,98.1,0.478
37.44,34413.9,31014.5,3.3777,-4.8518,135.0,98.1,0.478
37.46,30069.4,34882.4,-2.7063,-0.1469,135.0,98.1,0.478
37.48,32993.8,34596.3,1.389,-0.4949,135.0,98.1,0.478
37.5,35169.7,34681.1,4.436,-0.3918,135.0,98.1,0.478
37.52,33213.9,34355.2,1.6972,-0.7882,135.0,98.1,0.478
37.54,30283.4,35431.9,-2.4067,0.5215,135.0,98.1,0.478
37.56,28624.2,37591.4,-4.7302,3.1483,135.0,98.1,0.478
37.58,34471.0,33466.4,3.4577,-1.8693,135.0,98.1,0.478
37.6,31127.7,35338.3,-1.2242,0.4077,135.0,98.1,0.478
37.62,31188.9,34803.3,-1.1385,-0.2431,135.0,98.1,0.478
37.64,31604.6,39998.7,-0.5564,6.0765,135.0,98.1,0.478
37.66,32836.9,34223.0,1.1692,-0.949,135.0,98.1,0.478
37.68,28784.8,35370.9,-4.5053,0.4473,135.0,98.1,0.478
37.7,33176.9,38368.2,1.6454,4.0931,135.0,98.1,0.478
37.72,32832.2,33945.5,1.1627,-1.2865,135.0,98.1,0.478
37.74,30936.5,35309.0,-1.492,0.3721,135.0,98.1,0.478
37.76,30243.5,33831.5,-2.4626,-1.4252,135.0,98.1,0.478
37.78,28972.3,35647.1,-4.2427,0.7833,135.0,98.1,0.478
37.8,34073.3,36640.6,2.9007,1.9917,135.0,98.1,0.478
37.82,30980.4,33398.9,-1.4305,-1.9514,135.0,98.1,0.478
37.84,28033.1,37288.0,-5.5579,2.7792,135.0,98.1,0.478
37.86,35105.8,34750.5,4.3466,-0.3074,135.0,98.1,0.478
37.88,31352.2,36224.5,-0.9098,1.4856,135.0,98.1,0.478
37.9,31632.0,38098.1,-0.5181,3.7646,135.0,98.1,0.478
37.92,30861.7,32830.0,-1.5968,-2.6435,135.0,98.1,0.478
37.94,32788.4,33725.0,1.1014,-1.5548,135.0,98.1,0.478
37.96,31662.8,37135.7,-0.4749,2.594,135.0,98.1,0.478
37.98,31872.4,32663.6,-0.1814,-2.8458,135.0,98.1,0.478
38.0,33899.7,38273.3,2.6575,3.9778,135.0,98.1,0.478
38.02,36130.6,35204.4,5.7817,0.2448,135.0,98.1,0.478
38.04,31942.6,35458.6,-0.0831,0.554,135.0,98.1,0.478
38.06,35541.0,37671.6,4.9561,3.2458,135.0,98.1,0.478
38.08,30997.5,35173.3,-1.4066,0.2069,135.0,98.1,0.478
38.1,34012.7,34860.2,2.8158,-0.1739,135.0,98.1,0.478
38.12,30417.0,34757.3,-2.2196,-0.2991,135.0,98.1,0.478
38.14,31012.3,39350.9,-1.3859,5.2885,135.0,98.1,0.478
38.16,28222.7,30602.9,-5.2924,-5.3524,135.0,98.1,0.478
38.18,30805.9,34650.1,-1.675,-0.4295,135.0,98.1,0.478
38.2,30687.0,32373.9,-1.8415,-3.1982,135.0,98.1,0.478
38.22,31148.2,36249.3,-1.1956,1.5158,135.0,98.1,0.478
38.24,32795.5,35509.7,1.1113,0.6162,135.0,98.1,0.478
38.26,34463.2,35003.3,3.4467,0.0001,135.0,98.1,0.478
38.28,30365.5,35690.5,-2.2916,0.836,135.0,98.1,0.478
38.3,31241.1,35851.6,-1.0654,1.032,135.0,98.1,0.478
38.32,32718.1,36553.6,1.0029,1.8859,135.0,98.1,0.478
38.34,30408.0,37529.0,-2.2321,3.0723,135.0,98.1,0.478
38.36,28459.3,36169.0,-4.9611,1.4181,135.0,98.1,0.478
38.38,33256.6,32165.1,1.757,-3.4522,135.0,98.1,0.478
38.4,34309.5,36523.8,3.2315,1.8497,135.0,98.1,0.478
38.42,32893.2,35847.5,1.2481,1.0271,135.0,98.1,0.478
38.44,31092.2,37511.2,-1.274,3.0508,135.0,98.1,0.478
38.46,32645.6,32335.3,0.9014,-3.2452,135.0,98.1,0.478
38.48,31687.3,33520.2,-0.4406,-1.8039,135.0,98.1,0.478
38.5,32218.8,39109.0,0.3036,4.9943,135.0,98.1,0.478
38.52,31974.0,36688.7,-0.0392,2.0503,135.0,98.1,0.478
38.54,36948.9,32497.9,6.9277,-3.0474,135.0,98.1,0.478
38.56,37087.8,32429.7,7.1222,-3.1304,135.0,98.1,0.478
38.58,29090.8,33397.1,-4.0768,-1.9537,135.0,98.1,0.478
38.6,31131.6,38212.6,-1.2189,3.9039,135.0,98.1,0.478
38.62,30618.0,36320.6,-1.9381,1.6025,135.0,98.1,0.478
38.64,31897.9,37030.6,-0.1458,2.4662,135.0,98.1,0.478
38.66,32010.8,35895.9,0.0124,1.0859,135.0,98.1,0.478
38.68,31060.9,32775.6,-1.3178,-2.7096,135.0,98.1,0.478
38.7,33011.8,35432.2,1.4142,0.5219,135.0,98.1,0.478
38.72,31792.7,36316.3,-0.293,1.5973,135.0,98.1,0.478
38.74,30246.6,38227.2,-2.4583,3.9217,135.0,98.1,0.478
38.76,31936.3,34796.4,-0.0919,-0.2516,135.0,98.1,0.478
38.78,32953.2,36995.2,1.3321,2.4231,135.0,98.1,0.478
38.8,33743.8,35485.4,2.4393,0.5866,135.0,98.1,0.478
38.82,32313.6,35888.0,0.4364,1.0763,135.0,98.1,0.478
38.84,30134.4,37067.2,-2.6153,2.5107,135.0,98.1,0.478
38.86,32075.9,38228.8,0.1035,3.9235,135.0,98.1,0.478
38.88,33602.6,35820.6,2.2416,0.9943,135.0,98.1,0.478
38.9,32937.1,36227.7,1.3096,1.4894,135.0,98.1,0.478
38.92,30708.9,35926.7,-1.8108,1.1234,135.0,98.1,0.478
38.94,31973.8,34282.2,-0.0395,-0.877,135.0,98.1,0.478
38.96,30358.8,34578.8,-2.3011,-0.5162,135.0,98.1,0.478
38.98,31970.4,33828.8,-0.0442,-1.4285,135.0,98.1,0.478
39.0,33963.0,30202.8,2.7462,-5.8391,135.0,98.1,0.478
39.02,31770.9,34594.2,-0.3236,-0.4974,135.0,98.1,0.478
39.04,28615.2,33794.0,-4.7427,-1.4708,135.0,98.1,0.478
39.06,29888.0,32800.3,-2.9603,-2.6796,135.0,98.1,0.478
39.08,33329.1,32000.1,1.8585,-3.6529,135.0,98.1,0.478
39.1,31529.1,34376.2,-0.6622,-0.7626,135.0,98.1,0.478
39.12,33999.9,37226.6,2.7979,2.7045,135.0,98.1,0.478
39.14,33219.6,36511.3,1.7051,1.8344,135.0,98.1,0.478
39.16,33953.0,38000.5,2.7323,3.6459,135.0,98.1,0.478
39.18,30241.2,37711.2,-2.4657,3.2941,135.0,98.1,0.478
39.2,33180.9,35836.0,1.651,1.0131,135.0,98.1,0.478
39.22,34143.0,35634.2,2.9983,0.7676,135.0,98.1,0.478
39.24,32360.0,34547.2,0.5013,-0.5546,135.0,98.1,0.478
39.26,33418.2,34637.8,1.9833,-0.4444,135.0,98.1,0.478
39.28,29764.3,35594.1,-3.1336,0.7187,135.0,98.1,0.478
39.3,33858.9,37637.8,2.6005,3.2047,135.0,98.1,0.478
39.32,34008.9,35935.5,2.8105,1.1341,135.0,98.1,0.478
39.34,32578.2,31843.4,0.8069,-3.8435,135.0,98.1,0.478
39.36,33275.7,34198.7,1.7838,-0.9785,135.0,98.1,0.478
39.38,35840.6,39175.6,5.3756,5.0753,135.0,98.1,0.478
39.4,32703.0,36508.7,0.9818,1.8312,135.0,98.1,0.478
39.42,33279.4,36631.5,1.7889,1.9807,135.0,98.1,0.478
39.44,34412.0,32097.7,3.375,-3.5342,135.0,98.1,0.478
39.46,30991.6,35539.9,-1.415,0.6528,135.0,98.1,0.478
39.48,33764.5,35902.4,2.4683,1.0938,135.0,98.1,0.478
39.5,30943.9,33741.2,-1.4816,-1.5351,135.0,98.1,0.478
39.52,30867.5,35438.3,-1.5887,0.5292,135.0,98.1,0.478
39.54,33915.4,36291.5,2.6796,1.567,135.0,98.1,0.478
39.56,32183.0,37117.4,0.2536,2.5718,135.0,98.1,0.478
39.58,32928.7,41835.7,1.2979,8.311,135.0,98.1,0.478
39.6,31661.9,39806.8,-0.4761,5.843,135.0,98.1,0.478
39.62,33624.9,34547.9,2.2728,-0.5537,135.0,98.1,0.478
39.64,33956.7,34339.7,2.7375,-0.8071,135.0,98.1,0.478
39.66,31495.9,36952.6,-0.7086,2.3713,135.0,98.1,0.478
39.68,29592.9,36236.5,-3.3736,1.5001,135.0,98.1,0.478
39.7,32429.1,36643.9,0.5982,1.9957,135.0,98.1,0.478
39.72,32796.6,36796.6,1.1128,2.1815,135.0,98.1,0.478
39.74,33681.5,33887.8,2.352,-1.3568,135.0,98.1,0.478
39.76,31679.0,33530.9,-0.4522,-1.7909,135.0,98.1,0.478
39.78,27360.4,36942.8,-6.5,2.3594,135.0,98.1,0.478
39.8,31718.9,32953.4,-0.3964,-2.4933,135.0,98.1,0.478
39.82,31110.8,35951.2,-1.2479,1.1531,135.0,98.1,0.478
39.84,31059.0,38622.8,-1.3205,4.4028,135.0,98.1,0.478
39.86,28570.9,35472.3,-4.8048,0.5706,135.0,98.1,0.478
39.88,32108.5,35121.9,0.1491,0.1444,135.0,98.1,0.478
39.9,29597.4,36403.5,-3.3673,1.7034,135.0,98.1,0.478
39.92,28986.3,33076.2,-4.2231,-2.344,135.0,98.1,0.478
39.94,32572.8,33832.9,0.7995,-1.4235,135.0,98.1,0.478
39.96,33090.8,33008.3,1.5247,-2.4265,135.0,98.1,0.478
39.98,35292.3,32905.7,4.6078,-2.5513,135.0,98.1,0.478
40.0,30757.6,34962.6,-1.7425,-0.0494,135.0,98.1,0.478
40.02,29971.5,35370.4,-2.8435,0.4466,135.0,98.1,0.478
40.04,31506.6,35388.1,-0.6937,0.4682,135.0,98.1,0.478
40.06,31513.1,38252.5,-0.6846,3.9524,135.0,98.1,0.478
40.08,29457.9,35319.8,-3.5627,0.3851,135.0,98.1,0.478
40.1,32480.1,33958.1,0.6696,-1.2713,135.0,98.1,0.478
40.12,33533.9,34506.5,2.1453,-0.6042,135.0,98.1,0.478
40.14,26596.3,33727.7,-7.5701,-1.5514,135.0,98.1,0.478
40.16,34124.6,33277.8,2.9726,-2.0988,135.0,98.1,0.478
40.18,32996.8,32701.2,1.3932,-2.8001,135.0,98.1,0.478
40.2,32721.8,33610.9,1.0081,-1.6936,135.0,98.1,0.478
40.22,35273.3,36113.6,4.5811,1.3507,135.0,98.1,0.478
40.24,33453.2,33244.9,2.0323,-2.1387,135.0,98.1,0.478
40.26,31263.9,33443.9,-1.0335,-1.8967,135.0,98.1,0.478
40.28,35384.8,35974.2,4.7373,1.1811,135.0,98.1,0.478
40.3,30585.2,32687.2,-1.984,-2.8171,135.0,98.1,0.478
40.32,31441.2,34499.0,-0.7853,-0.6133,135.0,98.1,0.478
40.34,30570.6,35262.4,-2.0044,0.3153,135.0,98.1,0.478
40.36,35421.2,33048.7,4.7883,-2.3774,135.0,98.1,0.478
40.38,33630.2,34594.5,2.2801,-0.4971,135.0,98.1,0.478
40.4,27710.9,34516.2,-6.0091,-0.5924,135.0,98.1,0.478
40.42,32266.2,38440.8,0.3701,4.1814,135.0,98.1,0.478
40.44,30244.2,33946.0,-2.4615,-1.2859,135.0,98.1,0.478
40.46,33632.0,34411.8,2.2827,-0.7193,135.0,98.1,0.478
40.48,34509.0,37574.3,3.5109,3.1275,135.0,98.1,0.478
40.5,28816.7,37147.6,-4.4607,2.6084,135.0,98.1,0.478
40.52,30200.1,34725.4,-2.5233,-0.3379,135.0,98.1,0.478
40.54,27627.1,35091.7,-6.1265,0.1077,135.0,98.1,0.478
40.56,31177.2,32380.1,-1.155,-3.1907,135.0,98.1,0.478
40.58,32412.9,36451.0,0.5754,1.7612,135.0,98.1,0.478
40.6,32523.2,35671.0,0.73,0.8123,135.0,98.1,0.478
40.62,31437.6,36643.2,-0.7903,1.995,135.0,98.1,0.478
40.64,32063.8,33787.3,0.0867,-1.479,135.0,98.1,0.478
40.66,33913.0,37386.3,2.6762,2.8988,135.0,98.1,0.478
40.68,34154.0,34897.3,3.0137,-0.1288,135.0,98.1,0.478
40.7,31107.2,34687.3,-1.253,-0.3842,135.0,98.1,0.478
40.72,32650.3,34204.4,0.908,-0.9716,135.0,98.1,0.478
40.74,30735.9,32097.9,-1.773,-3.534,135.0,98.1,0.478
40.76,33322.1,35009.2,1.8488,0.0074,135.0,98.1,0.478
40.78,31494.7,30464.7,-0.7103,-5.5206,135.0,98.1,0.478
40.8,29647.3,32755.6,-3.2975,-2.734,135.0,98.1,0.478
40.82,30545.9,36587.8,-2.0391,1.9275,135.0,98.1,0.478
40.84,31613.6,34928.9,-0.5438,-0.0903,135.0,98.1,0.478
40.86,32085.2,34001.2,0.1166,-1.2188,135.0,98.1,0.478
40.88,31117.4,35594.4,-1.2387,0.7192,135.0,98.1,0.478
40.9,32173.2,29659.5,0.2398,-6.5,135.0,98.1,0.478
40.92,31880.0,36298.4,-0.1708,1.5754,135.0,98.1,0.478
40.94,32418.0,34541.6,0.5826,-0.5615,135.0,98.1,0.478
40.96,35990.9,37647.2,5.5862,3.2162,135.0,98.1,0.478
40.98,31202.8,33626.2,-1.1191,-1.675,135.0,98.1,0.478
41.0,30023.9,37322.6,-2.77,2.8213,135.0,98.1,0.478
41.02,32012.5,32156.8,0.0147,-3.4623,135.0,98.1,0.478
41.04,31419.7,33932.6,-0.8154,-1.3022,135.0,98.1,0.478
41.06,30192.2,34294.6,-2.5344,-0.8619,135.0,98.1,0.478
41.08,29462.3,37410.4,-3.5565,2.9282,135.0,98.1,0.478
41.1,31184.4,30353.2,-1.1449,-5.6562,135.0,98.1,0.478
41.12,29573.4,27717.2,-3.4009,-8.8626,135.0,98.1,0.478
41.14,30458.5,31485.1,-2.1615,-4.2794,135.0,98.1,0.478
41.16,33999.5,35953.7,2.7974,1.1562,135.0,98.1,0.478
41.18,32085.7,33304.5,0.1173,-2.0662,135.0,98.1,0.478
41.2,30668.6,33870.3,-1.8672,-1.3781,135.0,98.1,0.478
41.22,33437.9,34777.9,2.0109,-0.274,135.0,98.1,0.478
41.24,32510.4,33170.5,0.712,-2.2293,135.0,98.1,0.478
41.26,30107.6,34650.1,-2.6529,-0.4294,135.0,98.1,0.478
41.28,32243.9,35937.6,0.3388,1.1366,135.0,98.1,0.478
41.3,31174.1,32218.1,-1.1593,-3.3877,135.0,98.1,0.478
41.32,31310.5,34077.1,-0.9683,-1.1265,135.0,98.1,0.478
41.34,33911.6,34904.2,2.6743,-0.1204,135.0,98.1,0.478
41.36,31240.5,34574.0,-1.0663,-0.5221,135.0,98.1,0.478
41.38,37304.7,37108.1,7.4259,2.5604,135.0,98.1,0.478
41.4,37185.4,33598.4,7.2589,-1.7088,135.0,98.1,0.478
41.42,34806.2,34721.4,3.927,-0.3427,135.0,98.1,0.478
41.44,27362.7,38497.5,-6.4968,4.2505,135.0,98.1,0.478
41.46,32443.4,34864.0,0.6181,-0.1693,135.0,98.1,0.478
41.48,27862.2,34175.7,-5.7973,-1.0066,135.0,98.1,0.478
41.5,33456.2,31456.1,2.0365,-4.3147,135.0,98.1,0.478
41.52,31251.1,34661.2,-1.0515,-0.416,135.0,98.1,0.478
41.54,35921.0,36366.6,5.4882,1.6585,135.0,98.1,0.478
41.56,33666.7,39048.2,2.3312,4.9203,135.0,98.1,0.478
41.58,31149.4,38020.4,-1.1938,3.6701,135.0,98.1,0.478
41.6,32311.4,31840.0,0.4333,-3.8477,135.0,98.1,0.478
41.62,28935.0,34386.4,-4.295,-0.7503,135.0,98.1,0.478
41.64,27260.9,32935.3,-6.6393,-2.5154,135.0,98.1,0.478
41.66,31028.9,34312.8,-1.3626,-0.8398,135.0,98.1,0.478
41.68,30220.7,34447.3,-2.4944,-0.6761,135.0,98.1,0.478
41.7,30699.8,34814.3,-1.8236,-0.2298,135.0,98.1,0.478
41.72,28693.9,35053.6,-4.6325,0.0613,135.0,98.1,0.478
41.74,32129.0,38673.5,0.1779,4.4646,135.0,98.1,0.478
41.76,31722.0,35204.6,-0.392,0.245,135.0,98.1,0.478
41.78,31366.4,34577.7,-0.89,-0.5175,135.0,98.1,0.478
41.8,33428.8,35673.7,1.9981,0.8156,135.0,98.1,0.478
41.82,39010.1,34612.7,9.8142,-0.475,135.0,98.1,0.478
41.84,29424.2,34164.4,-3.6098,-1.0203,135.0,98.1,0.478
41.86,30260.0,36499.4,-2.4394,1.82,135.0,98.1,0.478
41.88,33822.3,36694.7,2.5493,2.0575,135.0,98.1,0.478
41.9,34328.9,35848.5,3.2586,1.0282,135.0,98.1,0.478
41.92,32485.7,36682.1,0.6774,2.0422,135.0,98.1,0.478
41.94,32212.3,33090.3,0.2945,-2.3268,135.0,98.1,0.478
41.96,33483.8,30954.2,2.0751,-4.9251,135.0,98.1,0.478
41.98,30696.6,35592.5,-1.828,0.7169,135.0,98.1,0.478
42.0,30126.4,32621.2,-2.6265,-2.8974,135.0,98.1,0.478
42.02,30463.9,31177.9,-2.1538,-4.653,135.0,98.1,0.478
42.04,31585.1,30210.0,-0.5838,-5.8303,135.0,98.1,0.478
42.06,31602.4,34698.7,-0.5596,-0.3703,135.0,98.1,0.478
42.08,33667.4,36403.2,2.3323,1.703,135.0,98.1,0.478
42.1,31057.6,36855.9,-1.3224,2.2537,135.0,98.1,0.478
42.12,29316.2,31061.9,-3.761,-4.7941,135.0,98.1,0.478
42.14,32759.3,32207.8,1.0606,-3.4002,135.0,98.1,0.478
42.16,30720.9,34897.5,-1.794,-0.1285,135.0,98.1,0.478
42.18,32772.4,33540.2,1.079,-1.7795,135.0,98.1,0.478
42.2,31956.1,39234.0,-0.0642,5.1463,135.0,98.1,0.478
42.22,30466.5,34628.1,-2.1502,-0.4563,135.0,98.1,0.478
42.24,32860.2,39404.8,1.2019,5.354,135.0,98.1,0.478
42.26,35516.4,35392.1,4.9216,0.4731,135.0,98.1,0.478
42.28,37805.8,33743.5,8.1277,-1.5322,135.0,98.1,0.478
42.3,30539.6,32458.7,-2.0479,-3.0951,135.0,98.1,0.478
42.32,33723.1,35735.4,2.4103,0.8906,135.0,98.1,0.478
42.34,36145.4,36881.6,5.8025,2.2849,135.0,98.1,0.478
42.36,33416.3,35600.0,1.9806,0.726,135.0,98.1,0.478
42.38,32704.3,33679.9,0.9836,-1.6096,135.0,98.1,0.478
42.4,31787.6,35904.4,-0.3002,1.0962,135.0,98.1,0.478
42.42,30795.6,32099.5,-1.6893,-3.532,135.0,98.1,0.478
42.44,34266.1,34834.0,3.1707,-0.2058,135.0,98.1,0.478
42.46,30356.6,31984.5,-2.3041,-3.6719,135.0,98.1,0.478
42.48,30737.9,35378.0,-1.7702,0.4559,135.0,98.1,0.478
42.5,32777.2,32483.7,1.0857,-3.0647,135.0,98.1,0.478
42.52,30537.5,31517.1,-2.0508,-4.2404,135.0,98.1,0.478
42.54,33754.5,35820.8,2.4543,0.9946,135.0,98.1,0.478
42.56,29380.0,37817.0,-3.6718,3.4228,135.0,98.1,0.478
42.58,31126.1,34153.4,-1.2266,-1.0337,135.0,98.1,0.478
42.6,30354.9,36158.6,-2.3065,1.4055,135.0,98.1,0.478
42.62,30120.5,33335.4,-2.6348,-2.0287,135.0,98.1,0.478
42.64,32621.9,34267.9,0.8682,-0.8944,135.0,98.1,0.478
42.66,31228.5,32764.3,-1.0831,-2.7234,135.0,98.1,0.478
42.68,31138.1,35403.7,-1.2098,0.4872,135.0,98.1,0.478
42.7,30888.1,35658.0,-1.5599,0.7965,135.0,98.1,0.478
42.72,28937.7,33893.6,-4.2911,-1.3497,135.0,98.1,0.478
42.74,31558.5,36129.8,-0.621,1.3704,135.0,98.1,0.478
42.76,30478.3,31571.3,-2.1337,-4.1745,135.0,98.1,0.478
42.78,32590.8,36391.8,0.8246,1.6891,135.0,98.1,0.478
42.8,31357.9,33925.0,-0.902,-1.3115,135.0,98.1,0.478
42.82,32964.6,31121.0,1.3481,-4.7223,135.0,98.1,0.478
42.84,28970.0,31447.1,-4.2459,-4.3256,135.0,98.1,0.478
42.86,30449.1,35206.0,-2.1746,0.2468,135.0,98.1,0.478
42.88,36523.0,32468.4,6.3312,-3.0832,135.0,98.1,0.478
42.9,34566.5,33847.1,3.5913,-1.4062,135.0,98.1,0.478
42.92,32807.4,32990.2,1.128,-2.4485,135.0,98.1,0.478
42.94,30996.6,36849.0,-1.4079,2.2453,135.0,98.1,0.478
42.96,34000.8,36863.6,2.7991,2.263,135.0,98.1,0.478
42.98,33384.6,35758.9,1.9362,0.9193,135.0,98.1,0.478
43.0,31115.5,34242.6,-1.2414,-0.9252,135.0,98.1,0.478
43.02,34539.2,35266.7,3.5531,0.3205,135.0,98.1,0.478
43.04,31663.3,34543.6,-0.4742,-0.559,135.0,98.1,0.478
43.06,32637.7,36806.5,0.8903,2.1936,135.0,98.1,0.478
43.08,30593.6,38547.0,-1.9723,4.3107,135.0,98.1,0.478
43.1,32344.3,37483.7,0.4794,3.0173,135.0,98.1,0.478
43.12,35617.5,32731.7,5.0632,-2.763,135.0,98.1,0.478
43.14,31062.3,37086.6,-1.3158,2.5343,135.0,98.1,0.478
43.16,35492.4,36062.7,4.888,1.2888,135.0,98.1,0.478
43.18,33019.2,34821.2,1.4246,-0.2214,135.0,98.1,0.478
43.2,31811.4,35705.8,-0.2669,0.8547,135.0,98.1,0.478
43.22,32422.5,36728.8,0.589,2.0991,135.0,98.1,0.478
43.24,31354.1,37516.9,-0.9072,3.0577,135.0,98.1,0.478
43.26,30794.8,31838.3,-1.6905,-3.8497,135.0,98.1,0.478
43.28,29954.6,34649.6,-2.8671,-0.43,135.0,98.1,0.478
43.3,34783.7,37647.7,3.8955,3.2167,135.0,98.1,0.478
43.32,33167.6,37385.0,1.6324,2.8972,135.0,98.1,0.478
43.34,34661.5,34091.8,3.7244,-1.1086,135.0,98.1,0.478
43.36,32784.9,34185.5,1.0964,-0.9946,135.0,98.1,0.478
43.38,31827.5,35078.0,-0.2443,0.091,135.0,98.1,0.478
43.4,33511.0,32938.5,2.1133,-2.5114,135.0,98.1,0.478
43.42,34744.6,35113.6,3.8407,0.1344,135.0,98.1,0.478
43.44,31971.0,38463.4,-0.0433,4.2089,135.0,98.1,0.478
43.46,35258.1,33777.5,4.5599,-1.4909,135.0,98.1,0.478
43.48,32923.6,31904.8,1.2907,-3.7689,135.0,98.1,0.478
43.5,36185.7,36982.4,5.8589,2.4076,135.0,98.1,0.478
43.52,29628.6,34520.6,-3.3236,-0.5871,135.0,98.1,0.478
43.54,30472.1,37177.0,-2.1424,2.6441,135.0,98.1,0.478
43.56,30371.8,41072.5,-2.2828,7.3826,135.0,98.1,0.478
43.58,29546.2,39276.4,-3.439,5.1978,135.0,98.1,0.478
43.6,32119.3,31547.4,0.1643,-4.2035,135.0,98.1,0.478
43.62,26994.2,35175.1,-7.0129,0.2091,135.0,98.1,0.478
43.64,29260.5,34357.9,-3.8391,-0.7848,135.0,98.1,0.478
43.66,35882.5,33300.4,5.4343,-2.0712,135.0,98.1,0.478
43.68,34593.9,35572.2,3.6298,0.6921,135.0,98.1,0.478
43.7,33710.1,32945.9,2.3921,-2.5024,135.0,98.1,0.478
43.72,31375.5,36085.9,-0.8772,1.317,135.0,98.1,0.478
43.74,33008.1,37159.5,1.409,2.6229,135.0,98.1,0.478
43.76,34138.2,35835.4,2.9916,1.0123,135.0,98.1,0.478
43.78,36646.0,37592.5,6.5035,3.1496,135.0,98.1,0.478
43.8,32586.1,33651.3,0.818,-1.6444,135.0,98.1,0.478
43.82,31538.8,36546.7,-0.6486,1.8775,135.0,98.1,0.478
43.84,31832.7,35525.5,-0.237,0.6353,135.0,98.1,0.478
43.86,36028.9,34174.8,5.6393,-1.0076,135.0,98.1,0.478
43.88,33405.1,36901.4,1.965,2.309,135.0,98.1,0.478
43.9,32410.6,33304.2,0.5723,-2.0667,135.0,98.1,0.478
43.92,30680.1,36328.3,-1.8512,1.6119,135.0,98.1,0.478
43.94,29282.5,33804.2,-3.8083,-1.4584,135.0,98.1,0.478
43.96,32831.4,33468.3,1.1616,-1.867,135.0,98.1,0.478
43.98,32311.9,33007.6,0.434,-2.4273,135.0,98.1,0.478
44.0,35400.1,41733.6,4.7587,8.1868,135.0,98.1,0.478
44.02,29023.1,36567.0,-4.1716,1.9022,135.0,98.1,0.478
44.04,32377.3,36492.3,0.5257,1.8114,135.0,98.1,0.478
44.06,32166.4,35662.5,0.2302,0.802,135.0,98.1,0.478
44.08,31162.9,39115.9,-1.175,5.0026,135.0,98.1,0.478
44.1,30398.2,33426.2,-2.2459,-1.9182,135.0,98.1,0.478
44.12,32160.0,33762.0,0.2213,-1.5098,135.0,98.1,0.478
44.14,33152.6,35319.7,1.6114,0.385,135.0,98.1,0.478
44.16,29298.6,33664.2,-3.7857,-1.6288,135.0,98.1,0.478
44.18,27831.4,32434.9,-5.8404,-3.124,135.0,98.1,0.478
44.2,34751.0,33664.0,3.8497,-1.629,135.0,98.1,0.478
44.22,26049.0,33957.4,-8.3365,-1.2721,135.0,98.1,0.478
44.24,31964.0,37124.7,-0.0531,2.5806,135.0,98.1,0.478
44.26,33448.8,34181.0,2.0262,-1.0001,135.0,98.1,0.478
44.28,28955.4,35171.5,-4.2664,0.2048,135.0,98.1,0.478
44.3,29978.7,36519.6,-2.8334,1.8445,135.0,98.1,0.478
44.32,30026.9,37530.6,-2.7659,3.0743,135.0,98.1,0.478
44.34,32279.4,35523.6,0.3886,0.633,135.0,98.1,0.478
44.36,34784.1,35062.5,3.8961,0.0721,135.0,98.1,0.478
44.38,30522.4,30297.3,-2.072,-5.7242,135.0,98.1,0.478
44.4,31460.9,36566.9,-0.7577,1.9021,135.0,98.1,0.478
44.42,29295.8,36283.0,-3.7896,1.5568,135.0,98.1,0.478
44.44,30845.8,36119.5,-1.619,1.3578,135.0,98.1,0.478
44.46,32844.0,36250.7,1.1792,1.5174,135.0,98.1,0.478
44.48,31981.6,36655.4,-0.0286,2.0097,135.0,98.1,0.478
44.5,30756.5,37831.8,-1.7442,3.4407,135.0,98.1,0.478
44.52,30614.8,33910.9,-1.9426,-1.3286,135.0,98.1,0.478
44.54,29929.8,35677.1,-2.9018,0.8197,135.0,98.1,0.478
44.56,33810.4,38241.6,2.5326,3.9392,135.0,98.1,0.478
44.58,29828.7,34517.5,-3.0434,-0.5908,135.0,98.1,0.478
44.6,31240.0,34924.2,-1.067,-0.0961,135.0,98.1,0.478
44.62,31807.0,34353.8,-0.273,-0.7899,135.0,98.1,0.478
44.64,31871.4,35725.2,-0.1829,0.8783,135.0,98.1,0.478
44.66,31051.1,32506.4,-1.3315,-3.0371,135.0,98.1,0.478
44.68,32062.9,32175.6,0.0854,-3.4394,135.0,98.1,0.478
44.7,29035.4,33555.9,-4.1544,-1.7604,135.0,98.1,0.478
44.72,34536.8,36729.9,3.5498,2.1003,135.0,98.1,0.478
44.74,30199.3,33228.6,-2.5244,-2.1585,135.0,98.1,0.478
44.76,30612.8,31502.1,-1.9454,-4.2586,135.0,98.1,0.478
44.78,33974.2,35408.4,2.7619,0.4929,135.0,98.1,0.478
44.8,32340.1,33555.2,0.4735,-1.7613,135.0,98.1,0.478
44.82,31948.2,32013.8,-0.0753,-3.6363,135.0,98.1,0.478
44.84,32259.7,38238.8,0.3609,3.9357,135.0,98.1,0.478
44.86,34327.5,34802.9,3.2567,-0.2436,135.0,98.1,0.478
44.88,34258.8,35508.9,3.1605,0.6151,135.0,98.1,0.478
