timestamp,raw_red,raw_ir,filtered_red,filtered_ir,heart_rate,spo2,ac_dc_ratio
0.0,32055.7,35168.9,0.2359,0.4096,135.5,96.1,0.555
0.02,32227.0,35439.5,0.9484,1.074,135.5,96.1,0.555
0.04,32328.2,35754.3,1.3692,1.847,135.5,96.1,0.555
0.06,32415.5,35815.6,1.7324,1.9974,135.5,96.1,0.555
0.08,32329.5,35603.7,1.3746,1.4771,135.5,96.1,0.555
0.1,32150.4,35534.5,0.6296,1.3072,135.5,96.1,0.555
0.12,32224.7,35371.4,0.939,0.9068,135.5,96.1,0.555
0.14,32108.8,35204.7,0.4565,0.4974,135.5,96.1,0.555
0.16,32029.3,35101.2,0.1258,0.2432,135.5,96.1,0.555
0.18,32090.0,35094.7,0.3784,0.2273,135.5,96.1,0.555
0.2,31950.9,34951.2,-0.2003,-0.1251,135.5,96.1,0.555
0.22,31931.1,34928.5,-0.2823,-0.1808,135.5,96.1,0.555
0.24,31935.9,34836.6,-0.2626,-0.4065,135.5,96.1,0.555
0.26,31871.9,34735.9,-0.5288,-0.6537,135.5,96.1,0.555
0.28,31806.3,34596.8,-0.8017,-0.9953,135.5,96.1,0.555
0.3,31854.1,34596.3,-0.6027,-0.9965,135.5,96.1,0.555
0.32,31773.2,34682.0,-0.9393,-0.7862,135.5,96.1,0.555
0.34,31814.2,34629.0,-0.7688,-0.9163,135.5,96.1,0.555
0.36,31740.2,34479.6,-1.0765,-1.283,135.5,96.1,0.555
0.38,31756.4,34503.5,-1.0093,-1.2244,135.5,96.1,0.555
0.4,31838.4,34515.6,-0.6682,-1.1948,135.5,96.1,0.555
0.42,31911.6,34775.5,-0.3638,-0.5565,135.5,96.1,0.555
0.44,32067.2,35138.2,0.2837,0.3342,135.5,96.1,0.555
0.46,32131.0,35391.9,0.549,0.9571,135.5,96.1,0.555
0.48,32299.8,35691.9,1.2511,1.6939,135.5,96.1,0.555
0.5,32362.8,35735.3,1.5131,1.8002,135.5,96.1,0.555
0.52,32355.8,35683.2,1.4841,1.6724,135.5,96.1,0.555
0.54,32332.3,35468.0,1.3866,1.1441,135.5,96.1,0.555
0.56,32158.5,35282.1,0.6636,0.6875,135.5,96.1,0.555
0.58,32062.7,35263.0,0.2649,0.6405,135.5,96.1,0.555
0.6,32116.4,35080.8,0.4885,0.1931,135.5,96.1,0.555
0.62,31959.7,35102.5,-0.1637,0.2465,135.5,96.1,0.555
0.64,31930.0,35105.5,-0.287,0.2539,135.5,96.1,0.555
0.66,32004.8,34840.0,0.0241,-0.3981,135.5,96.1,0.555
0.68,31942.5,34835.5,-0.235,-0.4091,135.5,96.1,0.555
0.7,31851.5,34662.1,-0.6134,-0.8349,135.5,96.1,0.555
0.72,31800.3,34721.9,-0.8268,-0.6882,135.5,96.1,0.555
0.74,31886.2,34623.0,-0.4692,-0.9309,135.5,96.1,0.555
0.76,31807.3,34640.3,-0.7973,-0.8885,135.5,96.1,0.555
0.78,31865.8,34605.8,-0.554,-0.9732,135.5,96.1,0.555
0.8,31794.2,34414.7,-0.8519,-1.4424,135.5,96.1,0.555
0.82,31754.8,34444.2,-1.0159,-1.37,135.5,96.1,0.555
0.84,31766.4,34513.7,-0.9675,-1.1993,135.5,96.1,0.555
0.86,31850.3,34744.3,-0.6185,-0.633,135.5,96.1,0.555
0.88,31995.4,35041.5,-0.0149,0.0967,135.5,96.1,0.555
0.9,32215.7,35428.6,0.9012,1.0471,135.5,96.1,0.555
0.92,32317.3,35711.6,1.3239,1.742,135.5,96.1,0.555
0.94,32333.7,35754.8,1.3922,1.8482,135.5,96.1,0.555
0.96,32284.2,35649.7,1.1863,1.5902,135.5,96.1,0.555
0.98,32211.1,35505.1,0.8821,1.2351,135.5,96.1,0.555
1.0,32055.9,35246.4,0.2367,0.5997,135.5,96.1,0.555
1.02,32033.2,35224.4,0.1423,0.5457,135.5,96.1,0.555
1.04,32083.5,35134.4,0.3516,0.3247,135.5,96.1,0.555
1.06,32019.4,35047.4,0.0848,0.1112,135.5,96.1,0.555
1.08,32016.0,35014.6,0.0707,0.0305,135.5,96.1,0.555
1.1,31987.4,34868.9,-0.0484,-0.327,135.5,96.1,0.555
1.12,31968.6,34791.4,-0.1265,-0.5175,135.5,96.1,0.555
1.14,31821.7,34706.1,-0.7377,-0.727,135.5,96.1,0.555
1.16,31818.2,34720.0,-0.7521,-0.6929,135.5,96.1,0.555
1.18,31778.4,34666.9,-0.9177,-0.8232,135.5,96.1,0.555
1.2,31867.6,34629.7,-0.5467,-0.9145,135.5,96.1,0.555
1.22,31837.8,34574.7,-0.6706,-1.0496,135.5,96.1,0.555
1.24,31749.9,34517.0,-1.0363,-1.1914,135.5,96.1,0.555
1.26,31751.6,34430.0,-1.0293,-1.405,135.5,96.1,0.555
1.28,31776.3,34535.5,-0.9266,-1.1459,135.5,96.1,0.555
1.3,31825.2,34644.6,-0.723,-0.878,135.5,96.1,0.555
1.32,32025.8,34925.2,0.1112,-0.189,135.5,96.1,0.555
1.34,32131.0,35320.4,0.549,0.7814,135.5,96.1,0.555
1.36,32257.8,35616.2,1.0766,1.5079,135.5,96.1,0.555
1.38,32446.0,35835.7,1.8596,2.0468,135.5,96.1,0.555
1.4,32357.9,35668.7,1.493,1.6369,135.5,96.1,0.555
1.42,32263.7,35518.2,1.1009,1.2672,135.5,96.1,0.555
1.44,32234.3,35406.2,0.9789,0.9921,135.5,96.1,0.555
1.46,32065.0,35177.4,0.2747,0.4303,135.5,96.1,0.555
1.48,32031.0,35221.1,0.1329,0.5377,135.5,96.1,0.555
1.5,32037.4,35045.8,0.1597,0.1071,135.5,96.1,0.555
1.52,32061.5,35067.0,0.2598,0.1593,135.5,96.1,0.555
1.54,32036.7,35031.8,0.1566,0.0729,135.5,96.1,0.555
1.56,31927.9,34823.9,-0.2958,-0.4377,135.5,96.1,0.555
1.58,31826.4,34809.5,-0.7179,-0.473,135.5,96.1,0.555
1.6,31784.0,34767.5,-0.8945,-0.5762,135.5,96.1,0.555
1.62,31821.6,34780.4,-0.7379,-0.5444,135.5,96.1,0.555
1.64,31860.7,34685.9,-0.5752,-0.7766,135.5,96.1,0.555
1.66,31814.2,34659.5,-0.7689,-0.8413,135.5,96.1,0.555
1.68,31736.8,34564.2,-1.0906,-1.0753,135.5,96.1,0.555
1.7,31714.7,34406.1,-1.1825,-1.4636,135.5,96.1,0.555
1.72,31775.3,34468.3,-0.9306,-1.3108,135.5,96.1,0.555
1.74,31790.4,34625.1,-0.8677,-0.9258,135.5,96.1,0.555
1.76,31966.7,34918.7,-0.1345,-0.2047,135.5,96.1,0.555
1.78,32070.8,35248.3,0.2985,0.6045,135.5,96.1,0.555
1.8,32211.1,35555.7,0.8824,1.3592,135.5,96.1,0.555
1.82,32359.6,35670.5,1.4999,1.6412,135.5,96.1,0.555
1.84,32332.4,35722.3,1.3868,1.7683,135.5,96.1,0.555
1.86,32283.3,35597.6,1.1827,1.4621,135.5,96.1,0.555
1.88,32216.8,35399.4,0.9057,0.9755,135.5,96.1,0.555
1.9,32037.5,35270.9,0.1602,0.6599,135.5,96.1,0.555
1.92,32075.3,35106.8,0.3173,0.257,135.5,96.1,0.555
1.94,32039.8,35069.0,0.1697,0.1643,135.5,96.1,0.555
1.96,31992.2,35046.3,-0.0285,0.1085,135.5,96.1,0.555
1.98,31985.2,34914.9,-0.0574,-0.2142,135.5,96.1,0.555
2.0,31958.1,34982.5,-0.1702,-0.0483,135.5,96.1,0.555
2.02,31865.3,34758.9,-0.5564,-0.5973,135.5,96.1,0.555
2.04,31764.6,34679.1,-0.9753,-0.7933,135.5,96.1,0.555
2.06,31839.3,34700.6,-0.6644,-0.7403,135.5,96.1,0.555
2.08,31738.1,34701.0,-1.0855,-0.7394,135.5,96.1,0.555
2.1,31813.0,34620.5,-0.7739,-0.937,135.5,96.1,0.555
2.12,31818.7,34619.8,-0.7501,-0.9389,135.5,96.1,0.555
2.14,31661.2,34487.2,-1.4054,-1.2644,135.5,96.1,0.555
2.16,31748.3,34510.9,-1.0428,-1.2063,135.5,96.1,0.555
2.18,31787.0,34672.4,-0.882,-0.8097,135.5,96.1,0.555
2.2,32032.2,34848.0,0.138,-0.3784,135.5,96.1,0.555
2.22,32078.6,35142.5,0.3312,0.3448,135.5,96.1,0.555
2.24,32337.9,35556.5,1.4096,1.3613,135.5,96.1,0.555
2.26,32319.2,35806.4,1.332,1.9749,135.5,96.1,0.555
2.28,32423.0,35669.4,1.7638,1.6385,135.5,96.1,0.555
2.3,32333.5,35599.5,1.3913,1.4669,135.5,96.1,0.555
2.32,32301.6,35462.5,1.2588,1.1304,135.5,96.1,0.555
2.34,32182.3,35253.3,0.7625,0.6167,135.5,96.1,0.555
2.36,32119.4,35101.9,0.5008,0.2449,135.5,96.1,0.555
2.38,32048.3,35122.8,0.205,0.2962,135.5,96.1,0.555
2.4,32055.3,35077.3,0.234,0.1845,135.5,96.1,0.555
2.42,32060.1,34967.4,0.2542,-0.0853,135.5,96.1,0.555
2.44,32008.1,34898.0,0.0377,-0.2557,135.5,96.1,0.555
2.46,31960.7,34690.5,-0.1595,-0.7653,135.5,96.1,0.555
2.48,31750.1,34847.3,-1.0356,-0.3803,135.5,96.1,0.555
2.5,31817.2,34696.8,-0.7563,-0.7498,135.5,96.1,0.555
2.52,31700.1,34646.7,-1.2433,-0.8728,135.5,96.1,0.555
2.54,31839.8,34606.6,-0.6622,-0.9712,135.5,96.1,0.555
2.56,31841.6,34547.5,-0.6547,-1.1163,135.5,96.1,0.555
2.58,31747.5,34465.5,-1.0462,-1.3177,135.5,96.1,0.555
2.6,31669.3,34371.3,-1.3718,-1.5491,135.5,96.1,0.555
2.62,31852.7,34652.0,-0.6087,-0.8599,135.5,96.1,0.555
2.64,31886.8,34904.4,-0.4668,-0.24,135.5,96.1,0.555
2.66,32142.1,35284.7,0.595,0.6939,135.5,96.1,0.555
2.68,32264.4,35499.0,1.1039,1.22,135.5,96.1,0.555
2.7,32472.0,35707.7,1.9674,1.7325,135.5,96.1,0.555
2.72,32365.8,35846.9,1.5256,2.0744,135.5,96.1,0.555
2.74,32368.2,35656.4,1.5357,1.6065,135.5,96.1,0.555
2.76,32233.8,35398.9,0.9768,0.9742,135.5,96.1,0.555
2.78,32202.8,35233.7,0.8478,0.5685,135.5,96.1,0.555
2.8,32015.4,35114.0,0.068,0.2747,135.5,96.1,0.555
2.82,32087.5,35141.1,0.3681,0.3412,135.5,96.1,0.555
2.84,31986.6,34995.0,-0.0515,-0.0175,135.5,96.1,0.555
2.86,31993.1,34997.5,-0.0244,-0.0115,135.5,96.1,0.555
2.88,31879.8,34904.2,-0.496,-0.2404,135.5,96.1,0.555
2.9,31845.8,34844.5,-0.6375,-0.3871,135.5,96.1,0.555
2.92,31839.4,34719.7,-0.664,-0.6935,135.5,96.1,0.555
2.94,31819.2,34674.7,-0.7482,-0.8039,135.5,96.1,0.555
2.96,31814.7,34668.9,-0.7668,-0.8183,135.5,96.1,0.555
2.98,31775.9,34680.2,-0.9283,-0.7905,135.5,96.1,0.555
3.0,31684.1,34530.4,-1.3098,-1.1584,135.5,96.1,0.555
3.02,31799.0,34398.4,-0.8321,-1.4825,135.5,96.1,0.555
3.04,31757.1,34524.0,-1.0063,-1.174,135.5,96.1,0.555
3.06,31779.4,34562.0,-0.9137,-1.0807,135.5,96.1,0.555
3.08,31895.5,34754.7,-0.4304,-0.6076,135.5,96.1,0.555
3.1,32120.8,35095.3,0.5066,0.2288,135.5,96.1,0.555
3.12,32240.6,35478.7,1.0048,1.1702,135.5,96.1,0.555
3.14,32388.3,35724.6,1.6192,1.7742,135.5,96.1,0.555
3.16,32392.2,35883.9,1.6358,2.1651,135.5,96.1,0.555
3.18,32269.5,35607.0,1.1253,1.4853,135.5,96.1,0.555
3.2,32224.9,35487.7,0.9398,1.1923,135.5,96.1,0.555
3.22,32197.2,35290.5,0.8242,0.708,135.5,96.1,0.555
3.24,32058.0,35171.9,0.2453,0.417,135.5,96.1,0.555
3.26,31998.8,35046.0,-0.0011,0.1077,135.5,96.1,0.555
3.28,32009.3,35056.7,0.0429,0.134,135.5,96.1,0.555
3.3,31940.1,35010.0,-0.245,0.0193,135.5,96.1,0.555
3.32,32002.9,34962.7,0.0163,-0.0968,135.5,96.1,0.555
3.34,31909.9,34764.4,-0.3708,-0.5837,135.5,96.1,0.555
3.36,31874.5,34694.9,-0.5178,-0.7543,135.5,96.1,0.555
3.38,31791.3,34605.9,-0.8641,-0.973,135.5,96.1,0.555
3.4,31821.5,34746.8,-0.7385,-0.627,135.5,96.1,0.555
3.42,31944.8,34626.7,-0.2256,-0.9219,135.5,96.1,0.555
3.44,31790.5,34559.2,-0.8673,-1.0877,135.5,96.1,0.555
3.46,31815.8,34488.0,-0.7623,-1.2624,135.5,96.1,0.555
3.48,31808.1,34501.3,-0.7943,-1.2298,135.5,96.1,0.555
3.5,31783.3,34477.8,-0.8972,-1.2874,135.5,96.1,0.555
3.52,31821.1,34825.9,-0.74,-0.4326,135.5,96.1,0.555
3.54,32012.0,35179.9,0.0539,0.4366,135.5,96.1,0.555
3.56,32234.8,35475.3,0.9808,1.1619,135.5,96.1,0.555
3.58,32391.1,35658.4,1.6308,1.6115,135.5,96.1,0.555
3.6,32463.9,35707.5,1.934,1.732,135.5,96.1,0.555
3.62,32345.7,35630.3,1.4421,1.5424,135.5,96.1,0.555
3.64,32201.3,35388.9,0.8417,0.9498,135.5,96.1,0.555
3.66,32100.7,35334.1,0.4229,0.8151,135.5,96.1,0.555
3.68,32089.6,35169.4,0.377,0.4106,135.5,96.1,0.555
3.7,32080.8,35022.6,0.3401,0.0503,135.5,96.1,0.555
3.72,32058.9,35039.5,0.2492,0.0917,135.5,96.1,0.555
3.74,32032.4,34941.3,0.1389,-0.1495,135.5,96.1,0.555
3.76,31911.0,34987.3,-0.3659,-0.0364,135.5,96.1,0.555
3.78,31884.8,34879.2,-0.4753,-0.3017,135.5,96.1,0.555
3.8,31874.5,34649.5,-0.5178,-0.8658,135.5,96.1,0.555
3.82,31854.2,34627.9,-0.6023,-0.9189,135.5,96.1,0.555
3.84,31821.5,34741.8,-0.7384,-0.6393,135.5,96.1,0.555
3.86,31861.1,34707.1,-0.5738,-0.7245,135.5,96.1,0.555
3.88,31742.6,34565.6,-1.0667,-1.0718,135.5,96.1,0.555
3.9,31768.0,34525.3,-0.9609,-1.1709,135.5,96.1,0.555
3.92,31665.4,34467.3,-1.3879,-1.3133,135.5,96.1,0.555
3.94,31740.4,34521.3,-1.0759,-1.1806,135.5,96.1,0.555
3.96,31903.7,34734.6,-0.3967,-0.657,135.5,96.1,0.555
3.98,31978.4,35014.3,-0.0856,0.0298,135.5,96.1,0.555
4.0,32189.1,35385.1,0.7908,0.9404,135.5,96.1,0.555
4.02,32399.0,35783.2,1.6641,1.918,135.5,96.1,0.555
4.04,32431.9,35825.3,1.8008,2.0214,135.5,96.1,0.555
4.06,32316.1,35737.3,1.3189,1.8052,135.5,96.1,0.555
4.08,32331.2,35470.9,1.3817,1.1511,135.5,96.1,0.555
4.1,32167.3,35307.9,0.7001,0.7509,135.5,96.1,0.555
4.12,31995.8,35171.6,-0.0134,0.4162,135.5,96.1,0.555
4.14,32034.0,35145.2,0.1457,0.3512,135.5,96.1,0.555
4.16,32055.5,35009.6,0.2349,0.0182,135.5,96.1,0.555
4.18,31913.1,35017.6,-0.3574,0.038,135.5,96.1,0.555
4.2,31937.6,34926.3,-0.2553,-0.1863,135.5,96.1,0.555
4.22,31882.7,34886.8,-0.4837,-0.2832,135.5,96.1,0.555
4.24,31803.7,34688.2,-0.8124,-0.7708,135.5,96.1,0.555
4.26,31904.7,34687.0,-0.3922,-0.7738,135.5,96.1,0.555
4.28,31853.3,34677.2,-0.6062,-0.7979,135.5,96.1,0.555
4.3,31806.1,34572.5,-0.8025,-1.055,135.5,96.1,0.555
4.32,31842.9,34606.0,-0.6496,-0.9728,135.5,96.1,0.555
4.34,31700.0,34507.9,-1.2439,-1.2136,135.5,96.1,0.555
4.36,31698.7,34482.8,-1.2494,-1.2753,135.5,96.1,0.555
4.38,31734.7,34485.1,-1.0996,-1.2695,135.5,96.1,0.555
4.4,31790.1,34691.9,-0.8692,-0.7619,135.5,96.1,0.555
4.42,31965.7,34895.2,-0.1385,-0.2626,135.5,96.1,0.555
4.44,32124.4,35387.9,0.5217,0.9473,135.5,96.1,0.555
4.46,32374.1,35651.5,1.5604,1.5947,135.5,96.1,0.555
4.48,32419.6,35848.5,1.7495,2.0784,135.5,96.1,0.555
4.5,32302.2,35737.7,1.2611,1.8062,135.5,96.1,0.555
4.52,32344.0,35527.9,1.4351,1.2912,135.5,96.1,0.555
4.54,32125.7,35281.5,0.5271,0.6859,135.5,96.1,0.555
4.56,32021.3,35288.8,0.0929,0.704,135.5,96.1,0.555
4.58,32043.3,35141.6,0.1842,0.3424,135.5,96.1,0.555
4.6,32053.8,35100.7,0.2279,0.242,135.5,96.1,0.555
4.62,31982.1,35080.8,-0.0702,0.1932,135.5,96.1,0.555
4.64,31946.9,34948.0,-0.2168,-0.133,135.5,96.1,0.555
4.66,31828.0,34771.1,-0.7113,-0.5672,135.5,96.1,0.555
4.68,31873.1,34732.6,-0.524,-0.6619,135.5,96.1,0.555
4.7,31886.9,34688.6,-0.4662,-0.7699,135.5,96.1,0.555
4.72,31939.7,34629.0,-0.2466,-0.9162,135.5,96.1,0.555
4.74,31834.0,34658.5,-0.6865,-0.8438,135.5,96.1,0.555
4.76,31779.7,34633.0,-0.9125,-0.9064,135.5,96.1,0.555
4.78,31753.1,34564.6,-1.0231,-1.0743,135.5,96.1,0.555
4.8,31701.3,34408.3,-1.2386,-1.4581,135.5,96.1,0.555
4.82,31740.1,34466.0,-1.0769,-1.3166,135.5,96.1,0.555
4.84,31776.6,34668.7,-0.9252,-0.8188,135.5,96.1,0.555
4.86,31937.9,34951.2,-0.2541,-0.1251,135.5,96.1,0.555
4.88,32131.1,35289.6,0.5495,0.706,135.5,96.1,0.555
4.9,32260.7,35575.4,1.0888,1.4078,135.5,96.1,0.555
4.92,32348.1,35859.8,1.4521,2.106,135.5,96.1,0.555
4.94,32350.6,35708.3,1.4624,1.734,135.5,96.1,0.555
4.96,32312.4,35589.4,1.3038,1.442,135.5,96.1,0.555
4.98,32146.1,35512.5,0.6117,1.2532,135.5,96.1,0.555
5.0,32090.3,35179.6,0.3799,0.4358,135.5,96.1,0.555
5.02,32064.0,35146.4,0.2705,0.3542,135.5,96.1,0.555
5.04,32134.8,35005.3,0.5647,0.0077,135.5,96.1,0.555
5.06,31991.2,35048.0,-0.0327,0.1126,135.5,96.1,0.555
5.08,32022.4,35033.4,0.0971,0.0768,135.5,96.1,0.555
5.1,31879.9,34751.4,-0.4954,-0.6156,135.5,96.1,0.555
5.12,31860.6,34789.1,-0.5756,-0.5231,135.5,96.1,0.555
5.14,31843.7,34739.9,-0.6461,-0.644,135.5,96.1,0.555
5.16,31901.6,34512.0,-0.4051,-1.2036,135.5,96.1,0.555
5.18,31725.5,34592.8,-1.1379,-1.0051,135.5,96.1,0.555
5.2,31722.9,34588.4,-1.1486,-1.0159,135.5,96.1,0.555
5.22,31744.4,34531.7,-1.0593,-1.1552,135.5,96.1,0.555
5.24,31787.9,34411.4,-0.878,-1.4507,135.5,96.1,0.555
5.26,31746.7,34440.4,-1.0495,-1.3794,135.5,96.1,0.555
5.28,31783.9,34624.2,-0.8947,-0.9281,135.5,96.1,0.555
5.3,31928.9,34907.1,-0.2918,-0.2333,135.5,96.1,0.555
5.32,32062.8,35261.4,0.2653,0.6366,135.5,96.1,0.555
5.34,32268.5,35581.6,1.1208,1.423,135.5,96.1,0.555
5.36,32354.7,35744.4,1.4796,1.8226,135.5,96.1,0.555
5.38,32417.4,35783.3,1.7403,1.9181,135.5,96.1,0.555
5.4,32290.7,35587.7,1.2132,1.4379,135.5,96.1,0.555
5.42,32198.4,35405.4,0.8294,0.9902,135.5,96.1,0.555
5.44,32099.1,35309.6,0.4164,0.7551,135.5,96.1,0.555
5.46,32104.1,35214.1,0.4373,0.5204,135.5,96.1,0.555
5.48,32104.1,35144.3,0.437,0.349,135.5,96.1,0.555
5.5,32020.5,35041.6,0.0894,0.097,135.5,96.1,0.555
5.52,31931.0,34848.3,-0.2829,-0.3777,135.5,96.1,0.555
5.54,32006.1,34885.7,0.0296,-0.286,135.5,96.1,0.555
5.56,31764.0,34737.6,-0.9774,-0.6495,135.5,96.1,0.555
5.58,31839.6,34767.8,-0.6631,-0.5753,135.5,96.1,0.555
5.6,31883.1,34694.8,-0.4822,-0.7547,135.5,96.1,0.555
5.62,31764.5,34762.7,-0.9754,-0.5881,135.5,96.1,0.555
5.64,31824.1,34558.5,-0.7274,-1.0893,135.5,96.1,0.555
5.66,31750.7,34536.9,-1.0329,-1.1424,135.5,96.1,0.555
5.68,31667.7,34521.8,-1.3783,-1.1794,135.5,96.1,0.555
5.7,31772.5,34477.0,-0.9421,-1.2894,135.5,96.1,0.555
5.72,31810.6,34630.0,-0.7837,-0.9137,135.5,96.1,0.555
5.74,31950.7,34838.9,-0.2008,-0.4007,135.5,96.1,0.555
5.76,32089.2,35117.2,0.3751,0.2826,135.5,96.1,0.555
5.78,32187.3,35467.6,0.7832,1.143,135.5,96.1,0.555
5.8,32333.4,35698.1,1.3911,1.7091,135.5,96.1,0.555
5.82,32362.9,35761.5,1.5135,1.8648,135.5,96.1,0.555
5.84,32273.9,35669.1,1.1436,1.6378,135.5,96.1,0.555
5.86,32143.8,35387.7,0.6024,0.9467,135.5,96.1,0.555
5.88,32129.7,35204.3,0.5435,0.4966,135.5,96.1,0.555
5.9,32032.4,35140.8,0.1389,0.3404,135.5,96.1,0.555
5.92,32030.4,35162.2,0.1306,0.393,135.5,96.1,0.555
5.94,32025.5,35047.0,0.11,0.1103,135.5,96.1,0.555
5.96,31959.5,34960.0,-0.1644,-0.1033,135.5,96.1,0.555
5.98,31945.4,34806.3,-0.223,-0.4808,135.5,96.1,0.555
6.0,31965.0,34801.4,-0.1416,-0.4928,135.5,96.1,0.555
6.02,31943.3,34693.7,-0.2318,-0.7574,135.5,96.1,0.555
6.04,31845.7,34641.7,-0.6378,-0.8852,135.5,96.1,0.555
6.06,31763.7,34732.6,-0.9787,-0.662,135.5,96.1,0.555
6.08,31894.9,34670.2,-0.4333,-0.8151,135.5,96.1,0.555
6.1,31805.5,34582.1,-0.805,-1.0315,135.5,96.1,0.555
6.12,31661.5,34431.0,-1.404,-1.4025,135.5,96.1,0.555
6.14,31697.5,34402.5,-1.2541,-1.4723,135.5,96.1,0.555
6.16,31795.2,34612.3,-0.8478,-0.9572,135.5,96.1,0.555
6.18,31843.5,34808.4,-0.6468,-0.4756,135.5,96.1,0.555
6.2,32140.8,35155.6,0.59,0.3768,135.5,96.1,0.555
6.22,32270.8,35428.4,1.1307,1.0467,135.5,96.1,0.555
6.24,32291.0,35735.4,1.2145,1.8005,135.5,96.1,0.555
6.26,32421.9,35800.0,1.7592,1.9593,135.5,96.1,0.555
6.28,32374.4,35615.0,1.5617,1.5049,135.5,96.1,0.555
6.3,32310.0,35445.0,1.2935,1.0875,135.5,96.1,0.555
6.32,32077.4,35227.9,0.3262,0.5544,135.5,96.1,0.555
6.34,32087.8,35154.5,0.3692,0.3742,135.5,96.1,0.555
6.36,32093.0,35102.1,0.3911,0.2456,135.5,96.1,0.555
6.38,32015.7,35075.5,0.0694,0.1801,135.5,96.1,0.555
6.4,31998.3,35053.4,-0.0029,0.1259,135.5,96.1,0.555
6.42,31885.9,34908.0,-0.4706,-0.2311,135.5,96.1,0.555
6.44,31802.0,34712.1,-0.8196,-0.7122,135.5,96.1,0.555
6.46,31868.0,34681.9,-0.5449,-0.7862,135.5,96.1,0.555
6.48,31749.9,34696.7,-1.0362,-0.75,135.5,96.1,0.555
6.5,31794.0,34717.7,-0.8527,-0.6985,135.5,96.1,0.555
6.52,31779.3,34642.8,-0.9139,-0.8823,135.5,96.1,0.555
6.54,31787.2,34593.4,-0.8813,-1.0037,135.5,96.1,0.555
6.56,31785.1,34515.1,-0.8901,-1.196,135.5,96.1,0.555
6.58,31812.5,34411.6,-0.7758,-1.45,135.5,96.1,0.555
6.6,31756.9,34552.0,-1.007,-1.1052,135.5,96.1,0.555
6.62,31857.3,34804.2,-0.5895,-0.4861,135.5,96.1,0.555
6.64,32038.5,35119.4,0.1642,0.2879,135.5,96.1,0.555
6.66,32257.2,35497.8,1.0739,1.217,135.5,96.1,0.555
6.68,32406.3,35681.2,1.6941,1.6675,135.5,96.1,0.555
6.7,32428.2,35773.4,1.7855,1.8939,135.5,96.1,0.555
6.72,32328.8,35690.8,1.3719,1.6911,135.5,96.1,0.555
6.74,32286.1,35445.1,1.1941,1.0877,135.5,96.1,0.555
6.76,32121.1,35333.2,0.508,0.813,135.5,96.1,0.555
6.78,32041.9,35235.4,0.1785,0.5728,135.5,96.1,0.555
6.8,32070.6,35082.3,0.2979,0.1968,135.5,96.1,0.555
6.82,32008.6,35015.9,0.0398,0.0339,135.5,96.1,0.555
6.84,31979.9,35036.4,-0.0793,0.0841,135.5,96.1,0.555
6.86,31890.7,34817.2,-0.4504,-0.4542,135.5,96.1,0.555
6.88,31979.2,34773.5,-0.0824,-0.5614,135.5,96.1,0.555
6.9,31814.0,34708.8,-0.7698,-0.7204,135.5,96.1,0.555
6.92,31825.2,34667.2,-0.7231,-0.8224,135.5,96.1,0.555
6.94,31867.3,34657.3,-0.5477,-0.8469,135.5,96.1,0.555
6.96,31823.6,34674.4,-0.7298,-0.8048,135.5,96.1,0.555
6.98,31707.0,34615.3,-1.2149,-0.9499,135.5,96.1,0.555
7.0,31690.1,34571.6,-1.285,-1.0571,135.5,96.1,0.555
7.02,31805.9,34466.3,-0.8034,-1.3158,135.5,96.1,0.555
7.04,31869.4,34613.5,-0.5391,-0.9542,135.5,96.1,0.555
7.06,31812.4,34710.5,-0.7761,-0.716,135.5,96.1,0.555
7.08,32063.6,35124.2,0.2687,0.2997,135.5,96.1,0.555
7.1,32228.3,35430.0,0.9539,1.0507,135.5,96.1,0.555
7.12,32360.9,35611.6,1.5053,1.4967,135.5,96.1,0.555
7.14,32354.0,35795.2,1.4765,1.9475,135.5,96.1,0.555
7.16,32351.4,35838.6,1.4659,2.0539,135.5,96.1,0.555
7.18,32275.2,35568.4,1.149,1.3904,135.5,96.1,0.555
7.2,32268.5,35261.9,1.1209,0.6379,135.5,96.1,0.555
7.22,32107.2,35264.9,0.4499,0.6451,135.5,96.1,0.555
7.24,32014.4,35098.1,0.0638,0.2356,135.5,96.1,0.555
7.26,32006.3,35096.2,0.0304,0.2309,135.5,96.1,0.555
7.28,32015.2,35111.6,0.0672,0.2688,135.5,96.1,0.555
7.3,31957.8,34937.2,-0.1716,-0.1595,135.5,96.1,0.555
7.32,31794.6,34757.3,-0.8502,-0.6011,135.5,96.1,0.555
7.34,31797.6,34726.0,-0.8379,-0.678,135.5,96.1,0.555
7.36,31769.0,34663.3,-0.9569,-0.8321,135.5,96.1,0.555
7.38,31805.3,34690.5,-0.806,-0.7652,135.5,96.1,0.555
7.4,31829.9,34654.6,-0.7033,-0.8534,135.5,96.1,0.555
7.42,31884.2,34556.5,-0.4776,-1.0943,135.5,96.1,0.555
7.44,31723.4,34510.3,-1.1465,-1.2077,135.5,96.1,0.555
7.46,31741.2,34535.4,-1.0723,-1.1462,135.5,96.1,0.555
7.48,31769.6,34492.4,-0.9542,-1.2518,135.5,96.1,0.555
7.5,31832.7,34647.9,-0.6919,-0.8697,135.5,96.1,0.555
7.52,32006.8,35021.7,0.0326,0.0481,135.5,96.1,0.555
7.54,32193.9,35327.1,0.8108,0.798,135.5,96.1,0.555
7.56,32322.2,35615.3,1.3442,1.5058,135.5,96.1,0.555
7.58,32420.6,35874.9,1.7537,2.1431,135.5,96.1,0.555
7.6,32390.7,35770.4,1.6294,1.8864,135.5,96.1,0.555
7.62,32199.9,35565.5,0.8358,1.3835,135.5,96.1,0.555
7.64,32154.5,35409.8,0.6468,1.0011,135.5,96.1,0.555
7.66,32203.7,35232.9,0.8516,0.5668,135.5,96.1,0.555
7.68,32018.2,35179.5,0.0799,0.4354,135.5,96.1,0.555
7.7,31995.2,35145.0,-0.0157,0.3508,135.5,96.1,0.555
7.72,32052.3,34986.9,0.2217,-0.0375,135.5,96.1,0.555
7.74,31941.3,34849.8,-0.2399,-0.3741,135.5,96.1,0.555
7.76,31864.8,34929.4,-0.5583,-0.1787,135.5,96.1,0.555
7.78,31863.6,34754.5,-0.5633,-0.608,135.5,96.1,0.555
7.8,31820.6,34631.3,-0.7422,-0.9105,135.5,96.1,0.555
7.82,31840.0,34615.8,-0.6615,-0.9487,135.5,96.1,0.555
7.84,31764.8,34684.0,-0.9742,-0.7813,135.5,96.1,0.555
7.86,31789.5,34587.1,-0.8715,-1.0191,135.5,96.1,0.555
7.88,31841.3,34550.0,-0.6561,-1.1102,135.5,96.1,0.555
7.9,31630.0,34492.0,-1.5351,-1.2526,135.5,96.1,0.555
7.92,31665.1,34478.4,-1.3889,-1.2859,135.5,96.1,0.555
7.94,31840.0,34588.4,-0.6616,-1.0159,135.5,96.1,0.555
7.96,31986.8,34910.6,-0.0507,-0.2249,135.5,96.1,0.555
7.98,32191.2,35263.4,0.7993,0.6415,135.5,96.1,0.555
8.0,32351.5,35606.4,1.4662,1.4839,135.5,96.1,0.555
8.02,32356.8,35734.1,1.4882,1.7975,135.5,96.1,0.555
8.04,32389.0,35780.4,1.6224,1.911,135.5,96.1,0.555
8.06,32259.1,35517.6,1.0818,1.2657,135.5,96.1,0.555
8.08,32204.9,35283.5,0.8566,0.691,135.5,96.1,0.555
8.1,32117.8,35198.3,0.4941,0.4817,135.5,96.1,0.555
8.12,32008.5,35201.0,0.0395,0.4884,135.5,96.1,0.555
8.14,32046.5,35003.9,0.1977,0.0044,135.5,96.1,0.555
8.16,32040.1,34982.6,0.1709,-0.048,135.5,96.1,0.555
8.18,31999.2,34873.5,0.0006,-0.3158,135.5,96.1,0.555
8.2,31943.9,34810.1,-0.2291,-0.4716,135.5,96.1,0.555
8.22,31920.4,34768.5,-0.3269,-0.5736,135.5,96.1,0.555
8.24,31911.5,34589.9,-0.3641,-1.0123,135.5,96.1,0.555
8.26,31748.4,34645.4,-1.0425,-0.876,135.5,96.1,0.555
8.28,31792.1,34607.8,-0.8607,-0.9683,135.5,96.1,0.555
8.3,31755.5,34676.0,-1.013,-0.8009,135.5,96.1,0.555
8.32,31776.9,34566.1,-0.9239,-1.0706,135.5,96.1,0.555
8.34,31692.4,34466.0,-1.2757,-1.3165,135.5,96.1,0.555
8.36,31689.1,34469.8,-1.2894,-1.3071,135.5,96.1,0.555
8.38,31747.6,34621.8,-1.046,-0.934,135.5,96.1,0.555
8.4,31922.0,34950.4,-0.3205,-0.1269,135.5,96.1,0.555
8.42,32237.2,35218.6,0.991,0.5315,135.5,96.1,0.555
8.44,32233.5,35531.6,0.9755,1.3002,135.5,96.1,0.555
8.46,32410.4,35714.6,1.7114,1.7496,135.5,96.1,0.555
8.48,32387.1,35819.0,1.6145,2.0059,135.5,96.1,0.555
8.5,32287.3,35508.8,1.1994,1.2441,135.5,96.1,0.555
8.52,32201.6,35346.3,0.8429,0.8451,135.5,96.1,0.555
8.54,32131.4,35250.1,0.5506,0.6089,135.5,96.1,0.555
8.56,32068.5,35129.6,0.289,0.313,135.5,96.1,0.555
8.58,31944.3,35031.7,-0.2275,0.0727,135.5,96.1,0.555
8.6,32050.1,34993.8,0.2126,-0.0205,135.5,96.1,0.555
8.62,31914.4,34996.0,-0.3518,-0.015,135.5,96.1,0.555
8.64,31889.4,34820.8,-0.4558,-0.4453,135.5,96.1,0.555
8.66,31805.9,34740.6,-0.8033,-0.6423,135.5,96.1,0.555
8.68,31809.5,34715.4,-0.7882,-0.7042,135.5,96.1,0.555
8.7,31850.9,34644.8,-0.6163,-0.8775,135.5,96.1,0.555
8.72,31783.0,34671.0,-0.8985,-0.8131,135.5,96.1,0.555
8.74,31837.8,34572.1,-0.6707,-1.056,135.5,96.1,0.555
8.76,31874.5,34528.2,-0.5178,-1.1638,135.5,96.1,0.555
8.78,31737.9,34510.1,-1.0862,-1.2082,135.5,96.1,0.555
8.8,31723.0,34495.0,-1.1481,-1.2453,135.5,96.1,0.555
8.82,31821.7,34576.5,-0.7375,-1.0452,135.5,96.1,0.555
8.84,31878.8,34901.4,-0.5001,-0.2473,135.5,96.1,0.555
8.86,32121.1,35250.4,0.5077,0.6097,135.5,96.1,0.555
8.88,32220.0,35563.1,0.9193,1.3774,135.5,96.1,0.555
8.9,32365.1,35678.4,1.5229,1.6606,135.5,96.1,0.555
8.92,32480.7,35760.8,2.0035,1.863,135.5,96.1,0.555
8.94,32431.0,35606.4,1.7971,1.4838,135.5,96.1,0.555
8.96,32355.4,35488.0,1.4827,1.193,135.5,96.1,0.555
8.98,32019.6,35259.9,0.0855,0.633,135.5,96.1,0.555
9.0,32092.1,35199.3,0.3871,0.4841,135.5,96.1,0.555
9.02,32042.7,35090.6,0.1816,0.2172,135.5,96.1,0.555
9.04,32100.6,35079.6,0.4227,0.1902,135.5,96.1,0.555
9.06,31978.9,35011.1,-0.0835,0.022,135.5,96.1,0.555
9.08,31961.5,34883.6,-0.156,-0.2911,135.5,96.1,0.555
9.1,31757.6,34782.8,-1.0044,-0.5386,135.5,96.1,0.555
9.12,31809.0,34776.6,-0.7905,-0.5537,135.5,96.1,0.555
9.14,31950.5,34685.3,-0.2018,-0.7779,135.5,96.1,0.555
9.16,31850.0,34658.7,-0.6198,-0.8433,135.5,96.1,0.555
9.18,31792.2,34595.1,-0.8602,-0.9994,135.5,96.1,0.555
9.2,31789.4,34526.5,-0.872,-1.168,135.5,96.1,0.555
9.22,31806.4,34459.8,-0.8013,-1.3317,135.5,96.1,0.555
9.24,31771.6,34436.8,-0.9458,-1.3883,135.5,96.1,0.555
9.26,31742.8,34529.3,-1.0657,-1.161,135.5,96.1,0.555
9.28,31967.4,34779.6,-0.1317,-0.5465,135.5,96.1,0.555
9.3,32039.1,35078.9,0.1665,0.1884,135.5,96.1,0.555
9.32,32186.7,35423.4,0.7806,1.0343,135.5,96.1,0.555
9.34,32303.8,35716.0,1.2679,1.753,135.5,96.1,0.555
9.36,32369.5,35750.6,1.541,1.838,135.5,96.1,0.555
9.38,32319.2,35703.9,1.332,1.7233,135.5,96.1,0.555
9.4,32244.8,35514.8,1.0224,1.2588,135.5,96.1,0.555
9.42,32115.1,35336.0,0.4828,0.8199,135.5,96.1,0.555
9.44,32094.0,35225.5,0.3953,0.5484,135.5,96.1,0.555
9.46,32162.4,35060.0,0.6797,0.1422,135.5,96.1,0.555
9.48,32122.5,35082.9,0.5136,0.1983,135.5,96.1,0.555
9.5,31958.1,35018.1,-0.1701,0.0391,135.5,96.1,0.555
9.52,32013.9,34826.2,0.062,-0.4319,135.5,96.1,0.555
9.54,31918.9,34717.9,-0.3334,-0.6979,135.5,96.1,0.555
9.56,31830.1,34704.7,-0.7027,-0.7304,135.5,96.1,0.555
9.58,31822.1,34635.2,-0.7361,-0.901,135.5,96.1,0.555
9.6,31776.6,34660.0,-0.9254,-0.8402,135.5,96.1,0.555
9.62,31818.9,34585.2,-0.7491,-1.0237,135.5,96.1,0.555
9.64,31668.7,34542.9,-1.3742,-1.1277,135.5,96.1,0.555
9.66,31748.8,34537.4,-1.0408,-1.1411,135.5,96.1,0.555
9.68,31723.6,34458.2,-1.1458,-1.3356,135.5,96.1,0.555
9.7,31656.8,34590.9,-1.4235,-1.0097,135.5,96.1,0.555
9.72,31860.5,34819.7,-0.5761,-0.448,135.5,96.1,0.555
9.74,32116.8,35187.8,0.4902,0.456,135.5,96.1,0.555
9.76,32226.2,35465.7,0.9449,1.1382,135.5,96.1,0.555
9.78,32319.2,35722.7,1.3321,1.7693,135.5,96.1,0.555
9.8,32416.0,35779.5,1.7348,1.9089,135.5,96.1,0.555
9.82,32368.7,35677.7,1.5377,1.6588,135.5,96.1,0.555
9.84,32199.3,35488.2,0.8333,1.1935,135.5,96.1,0.555
9.86,32144.8,35246.7,0.6063,0.6004,135.5,96.1,0.555
9.88,32053.5,35201.5,0.2267,0.4895,135.5,96.1,0.555
9.9,31983.0,35136.3,-0.0666,0.3296,135.5,96.1,0.555
9.92,32076.2,35015.9,0.3209,0.0338,135.5,96.1,0.555
9.94,31955.4,34973.2,-0.1816,-0.071,135.5,96.1,0.555
9.96,31892.2,34866.3,-0.4444,-0.3336,135.5,96.1,0.555
9.98,31895.9,34908.0,-0.4291,-0.231,135.5,96.1,0.555
10.0,31840.7,34682.5,-0.6587,-0.7848,135.5,96.1,0.555
10.02,31921.4,34608.0,-0.3228,-0.9678,135.5,96.1,0.555
10.04,31771.0,34654.2,-0.9487,-0.8543,135.5,96.1,0.555
10.06,31910.1,34565.6,-0.37,-1.0718,135.5,96.1,0.555
10.08,31757.7,34567.6,-1.0037,-1.0671,135.5,96.1,0.555
10.1,31850.7,34497.4,-0.617,-1.2394,135.5,96.1,0.555
10.12,31723.8,34466.5,-1.1448,-1.3153,135.5,96.1,0.555
10.14,31696.8,34516.1,-1.2571,-1.1935,135.5,96.1,0.555
10.16,31859.2,34681.5,-0.5814,-0.7873,135.5,96.1,0.555
10.18,31996.3,35175.4,-0.0114,0.4256,135.5,96.1,0.555
10.2,32271.4,35489.8,1.1333,1.1974,135.5,96.1,0.555
10.22,32288.8,35748.2,1.2056,1.8321,135.5,96.1,0.555
10.24,32434.0,35783.0,1.8093,1.9174,135.5,96.1,0.555
10.26,32393.3,35774.3,1.6401,1.896,135.5,96.1,0.555
10.28,32235.1,35474.3,0.9819,1.1595,135.5,96.1,0.555
10.3,32152.2,35325.5,0.6371,0.794,135.5,96.1,0.555
10.32,32042.6,35217.4,0.1811,0.5286,135.5,96.1,0.555
10.34,32045.9,35178.9,0.1951,0.434,135.5,96.1,0.555
10.36,32116.1,35051.5,0.4871,0.1213,135.5,96.1,0.555
10.38,31973.6,35108.2,-0.1056,0.2605,135.5,96.1,0.555
10.4,31952.2,34889.0,-0.1947,-0.2777,135.5,96.1,0.555
10.42,31891.7,34746.8,-0.4462,-0.6271,135.5,96.1,0.555
10.44,31848.6,34716.5,-0.6255,-0.7014,135.5,96.1,0.555
10.46,31854.4,34667.8,-0.6015,-0.8211,135.5,96.1,0.555
10.48,31835.5,34700.1,-0.6801,-0.7415,135.5,96.1,0.555
10.5,31847.9,34625.5,-0.6284,-0.9249,135.5,96.1,0.555
10.52,31775.5,34577.9,-0.9299,-1.0417,135.5,96.1,0.555
10.54,31771.1,34455.2,-0.9479,-1.343,135.5,96.1,0.555
10.56,31674.3,34403.3,-1.3509,-1.4704,135.5,96.1,0.555
10.58,31649.9,34524.2,-1.4522,-1.1735,135.5,96.1,0.555
10.6,31848.5,34716.6,-0.6261,-0.7011,135.5,96.1,0.555
10.62,31921.0,35022.3,-0.3246,0.0494,135.5,96.1,0.555
10.64,32151.8,35387.3,0.6356,0.9457,135.5,96.1,0.555
10.66,32246.7,35667.0,1.0305,1.6327,135.5,96.1,0.555
10.68,32394.3,35789.9,1.6444,1.9343,135.5,96.1,0.555
10.7,32384.4,35724.4,1.603,1.7735,135.5,96.1,0.555
10.72,32290.8,35609.4,1.2139,1.4911,135.5,96.1,0.555
10.74,32214.1,35377.1,0.8947,0.9206,135.5,96.1,0.555
10.76,32105.1,35113.1,0.4412,0.2725,135.5,96.1,0.555
10.78,32064.5,35151.5,0.2726,0.3668,135.5,96.1,0.555
10.8,32019.4,35039.9,0.0848,0.0927,135.5,96.1,0.555
10.82,32011.9,35067.1,0.0535,0.1594,135.5,96.1,0.555
10.84,31882.6,34988.5,-0.4842,-0.0335,135.5,96.1,0.555
10.86,31970.5,34877.5,-0.1186,-0.306,135.5,96.1,0.555
10.88,31842.7,34758.6,-0.6501,-0.598,135.5,96.1,0.555
10.9,31860.5,34668.3,-0.5762,-0.8196,135.5,96.1,0.555
10.92,31757.6,34619.5,-1.0042,-0.9395,135.5,96.1,0.555
10.94,31798.7,34650.6,-0.8334,-0.8632,135.5,96.1,0.555
10.96,31755.0,34635.0,-1.0151,-0.9014,135.5,96.1,0.555
10.98,31757.7,34470.2,-1.004,-1.3061,135.5,96.1,0.555
11.0,31636.5,34444.9,-1.508,-1.3683,135.5,96.1,0.555
11.02,31705.2,34441.0,-1.2224,-1.3779,135.5,96.1,0.555
11.04,31791.7,34624.2,-0.8624,-0.928,135.5,96.1,0.555
11.06,31929.3,34951.8,-0.2899,-0.1236,135.5,96.1,0.555
11.08,32165.2,35312.8,0.6912,0.763,135.5,96.1,0.555
11.1,32230.7,35613.3,0.9637,1.5007,135.5,96.1,0.555
11.12,32397.1,35655.9,1.6558,1.6052,135.5,96.1,0.555
11.14,32273.5,35680.0,1.1417,1.6645,135.5,96.1,0.555
11.16,32265.3,35493.6,1.1076,1.2068,135.5,96.1,0.555
11.18,32136.7,35387.7,0.5726,0.9469,135.5,96.1,0.555
11.2,32094.3,35244.7,0.3963,0.5956,135.5,96.1,0.555
11.22,32115.0,35047.6,0.4826,0.1116,135.5,96.1,0.555
11.24,32068.3,35057.1,0.2881,0.1351,135.5,96.1,0.555
11.26,32063.1,34940.0,0.2667,-0.1526,135.5,96.1,0.555
11.28,31987.9,34918.8,-0.0464,-0.2046,135.5,96.1,0.555
11.3,31937.0,34913.8,-0.258,-0.2169,135.5,96.1,0.555
11.32,31896.6,34720.4,-0.4259,-0.6917,135.5,96.1,0.555
11.34,31869.8,34705.1,-0.5375,-0.7294,135.5,96.1,0.555
11.36,31829.8,34715.4,-0.704,-0.7042,135.5,96.1,0.555
11.38,31800.8,34660.3,-0.8245,-0.8393,135.5,96.1,0.555
11.4,31732.3,34610.9,-1.1095,-0.9606,135.5,96.1,0.555
11.42,31793.7,34564.5,-0.854,-1.0745,135.5,96.1,0.555
11.44,31647.0,34391.7,-1.4644,-1.4991,135.5,96.1,0.555
11.46,31805.3,34417.7,-0.806,-1.435,135.5,96.1,0.555
11.48,31756.6,34666.2,-1.0083,-0.8248,135.5,96.1,0.555
11.5,31930.9,34908.9,-0.2831,-0.2289,135.5,96.1,0.555
11.52,32067.6,35200.9,0.2851,0.4881,135.5,96.1,0.555
11.54,32228.5,35667.4,0.9545,1.6337,135.5,96.1,0.555
11.56,32387.6,35753.8,1.6165,1.8458,135.5,96.1,0.555
11.58,32399.8,35759.7,1.6672,1.8603,135.5,96.1,0.555
11.6,32369.8,35669.6,1.5426,1.6391,135.5,96.1,0.555
11.62,32198.5,35460.0,0.8296,1.1242,135.5,96.1,0.555
11.64,32088.6,35224.5,0.3728,0.5461,135.5,96.1,0.555
11.66,32065.8,35100.1,0.2779,0.2406,135.5,96.1,0.555
11.68,32081.0,35142.6,0.3412,0.3449,135.5,96.1,0.555
11.7,32096.1,34983.7,0.4039,-0.0454,135.5,96.1,0.555
11.72,31999.1,34892.5,0.0002,-0.2692,135.5,96.1,0.555
11.74,31926.5,34804.3,-0.3017,-0.4857,135.5,96.1,0.555
11.76,31931.4,34792.6,-0.2813,-0.5144,135.5,96.1,0.555
11.78,31861.6,34598.2,-0.5718,-0.9918,135.5,96.1,0.555
11.8,31862.0,34762.4,-0.57,-0.5888,135.5,96.1,0.555
11.82,31817.2,34592.5,-0.7564,-1.0058,135.5,96.1,0.555
11.84,31762.7,34687.6,-0.9831,-0.7723,135.5,96.1,0.555
11.86,31747.2,34529.2,-1.0474,-1.1613,135.5,96.1,0.555
11.88,31675.1,34523.8,-1.3473,-1.1747,135.5,96.1,0.555
11.9,31721.0,34420.7,-1.1564,-1.4278,135.5,96.1,0.555
11.92,31811.1,34427.9,-0.7815,-1.41,135.5,96.1,0.555
11.94,31993.3,34897.2,-0.0239,-0.2576,135.5,96.1,0.555
11.96,32014.9,35173.6,0.0659,0.4209,135.5,96.1,0.555
11.98,32261.3,35529.2,1.0911,1.2943,135.5,96.1,0.555
12.0,32333.5,35709.3,1.3913,1.7366,135.5,96.1,0.555
12.02,32334.6,35795.9,1.396,1.949,135.5,96.1,0.555
12.04,32310.4,35665.4,1.2953,1.6286,135.5,96.1,0.555
12.06,32239.6,35379.5,1.001,0.9267,135.5,96.1,0.555
12.08,32165.3,35206.8,0.6917,0.5026,135.5,96.1,0.555
12.1,32018.2,35215.8,0.0798,0.5246,135.5,96.1,0.555
12.12,32008.9,35047.0,0.0411,0.1101,135.5,96.1,0.555
12.14,32074.5,35091.4,0.3141,0.2193,135.5,96.1,0.555
12.16,31994.8,34969.2,-0.0177,-0.0809,135.5,96.1,0.555
12.18,31918.3,34816.2,-0.3357,-0.4565,135.5,96.1,0.555
12.2,31877.8,34712.7,-0.5043,-0.7106,135.5,96.1,0.555
12.22,31879.1,34704.9,-0.4987,-0.7298,135.5,96.1,0.555
12.24,31801.7,34699.3,-0.8209,-0.7436,135.5,96.1,0.555
12.26,31742.8,34613.2,-1.0658,-0.9549,135.5,96.1,0.555
12.28,31785.4,34794.9,-0.8888,-0.5088,135.5,96.1,0.555
12.3,31701.7,34531.8,-1.2367,-1.1549,135.5,96.1,0.555
12.32,31754.0,34482.3,-1.0193,-1.2764,135.5,96.1,0.555
12.34,31704.5,34500.6,-1.2252,-1.2316,135.5,96.1,0.555
12.36,31787.8,34650.4,-0.8787,-0.8638,135.5,96.1,0.555
12.38,31898.4,34866.1,-0.4186,-0.3341,135.5,96.1,0.555
12.4,32100.6,35178.0,0.4224,0.4317,135.5,96.1,0.555
12.42,32312.5,35502.1,1.3039,1.2276,135.5,96.1,0.555
12.44,32333.3,35787.6,1.3906,1.9287,135.5,96.1,0.555
12.46,32374.0,35848.9,1.5597,2.0792,135.5,96.1,0.555
12.48,32345.7,35548.2,1.4422,1.3409,135.5,96.1,0.555
12.5,32196.7,35498.8,0.8224,1.2196,135.5,96.1,0.555
12.52,32135.3,35258.3,0.567,0.6291,135.5,96.1,0.555
12.54,32062.0,35132.9,0.2619,0.321,135.5,96.1,0.555
12.56,32096.8,35117.0,0.4069,0.282,135.5,96.1,0.555
12.58,32088.2,35062.4,0.3712,0.1479,135.5,96.1,0.555
12.6,31973.4,34985.0,-0.1066,-0.042,135.5,96.1,0.555
12.62,31957.6,34916.5,-0.1721,-0.2102,135.5,96.1,0.555
12.64,31744.1,34749.2,-1.0603,-0.6212,135.5,96.1,0.555
12.66,31824.4,34666.7,-0.7265,-0.8236,135.5,96.1,0.555
12.68,31904.9,34676.3,-0.3917,-0.8,135.5,96.1,0.555
12.7,31822.5,34695.3,-0.7344,-0.7535,135.5,96.1,0.555
12.72,31973.5,34637.4,-0.1062,-0.8957,135.5,96.1,0.555
12.74,31757.5,34550.9,-1.0048,-1.108,135.5,96.1,0.555
12.76,31749.0,34490.5,-1.0401,-1.2564,135.5,96.1,0.555
12.78,31775.7,34478.9,-0.9289,-1.2849,135.5,96.1,0.555
12.8,31821.6,34611.9,-0.7379,-0.9581,135.5,96.1,0.555
12.82,31879.6,34768.0,-0.4967,-0.5749,135.5,96.1,0.555
12.84,32077.3,35009.5,0.3257,0.018,135.5,96.1,0.555
12.86,32173.3,35480.8,0.7249,1.1755,135.5,96.1,0.555
12.88,32251.8,35784.8,1.0515,1.9219,135.5,96.1,0.555
12.9,32370.7,35739.4,1.5461,1.8104,135.5,96.1,0.555
12.92,32334.4,35607.3,1.3953,1.4859,135.5,96.1,0.555
12.94,32274.8,35362.7,1.1473,0.8854,135.5,96.1,0.555
12.96,32128.1,35356.7,0.5369,0.8705,135.5,96.1,0.555
12.98,32106.0,35134.0,0.445,0.3238,135.5,96.1,0.555
13.0,32013.5,35102.9,0.0601,0.2474,135.5,96.1,0.555
13.02,32037.6,35026.0,0.1606,0.0587,135.5,96.1,0.555
13.04,31994.0,34902.3,-0.0207,-0.2451,135.5,96.1,0.555
13.06,31902.9,34961.7,-0.4,-0.0993,135.5,96.1,0.555
13.08,31874.0,34732.1,-0.5199,-0.663,135.5,96.1,0.555
13.1,31745.9,34674.3,-1.0529,-0.8051,135.5,96.1,0.555
13.12,31841.1,34618.4,-0.6571,-0.9423,135.5,96.1,0.555
13.14,31847.4,34707.5,-0.6307,-0.7235,135.5,96.1,0.555
13.16,31799.1,34630.8,-0.8316,-0.9118,135.5,96.1,0.555
13.18,31863.1,34587.7,-0.5653,-1.0177,135.5,96.1,0.555
13.2,31730.5,34525.6,-1.1169,-1.1701,135.5,96.1,0.555
13.22,31813.1,34434.7,-0.7734,-1.3933,135.5,96.1,0.555
13.24,31796.9,34539.4,-0.8406,-1.1362,135.5,96.1,0.555
13.26,31857.9,34744.3,-0.5869,-0.6331,135.5,96.1,0.555
13.28,32127.2,34966.9,0.5333,-0.0865,135.5,96.1,0.555
13.3,32213.5,35366.0,0.8923,0.8934,135.5,96.1,0.555
13.32,32318.0,35697.0,1.327,1.7063,135.5,96.1,0.555
13.34,32374.0,35771.6,1.56,1.8894,135.5,96.1,0.555
13.36,32344.0,35680.8,1.4352,1.6665,135.5,96.1,0.555
13.38,32276.0,35421.4,1.1522,1.0296,135.5,96.1,0.555
13.4,32067.7,35339.1,0.2859,0.8273,135.5,96.1,0.555
13.42,32119.3,35167.1,0.5004,0.4051,135.5,96.1,0.555
13.44,31993.4,35118.5,-0.0231,0.2857,135.5,96.1,0.555
13.46,32043.8,35078.2,0.1863,0.1869,135.5,96.1,0.555
13.48,31953.5,35055.2,-0.1894,0.1304,135.5,96.1,0.555
13.5,31951.9,34880.1,-0.196,-0.2997,135.5,96.1,0.555
13.52,31918.0,34802.6,-0.3369,-0.49,135.5,96.1,0.555
13.54,31819.7,34692.9,-0.7457,-0.7593,135.5,96.1,0.555
13.56,31807.5,34682.1,-0.7968,-0.7857,135.5,96.1,0.555
13.58,31698.8,34722.4,-1.2487,-0.6868,135.5,96.1,0.555
13.6,31810.6,34681.9,-0.7839,-0.7864,135.5,96.1,0.555
13.62,31868.3,34551.6,-0.5436,-1.1063,135.5,96.1,0.555
13.64,31736.0,34518.5,-1.0942,-1.1875,135.5,96.1,0.555
13.66,31748.0,34507.4,-1.044,-1.2149,135.5,96.1,0.555
13.68,31776.7,34541.6,-0.9246,-1.1308,135.5,96.1,0.555
13.7,31794.4,34694.0,-0.8511,-0.7565,135.5,96.1,0.555
13.72,32025.5,35055.1,0.1101,0.13,135.5,96.1,0.555
13.74,32135.0,35347.9,0.5659,0.8489,135.5,96.1,0.555
13.76,32332.8,35656.6,1.3884,1.6071,135.5,96.1,0.555
13.78,32400.5,35759.6,1.67,1.8601,135.5,96.1,0.555
13.8,32339.3,35725.8,1.4153,1.777,135.5,96.1,0.555
13.82,32285.0,35599.0,1.1897,1.4657,135.5,96.1,0.555
13.84,32187.3,35387.5,0.7832,0.9463,135.5,96.1,0.555
13.86,32091.5,35242.3,0.3845,0.5897,135.5,96.1,0.555
13.88,32127.8,35120.3,0.5356,0.2901,135.5,96.1,0.555
13.9,31982.8,35074.2,-0.0676,0.1769,135.5,96.1,0.555
13.92,32032.5,35018.7,0.1392,0.0406,135.5,96.1,0.555
13.94,31923.2,34853.1,-0.3155,-0.366,135.5,96.1,0.555
13.96,31902.1,34822.2,-0.403,-0.4419,135.5,96.1,0.555
13.98,31898.5,34783.3,-0.4179,-0.5374,135.5,96.1,0.555
14.0,31826.8,34666.3,-0.7166,-0.8247,135.5,96.1,0.555
14.02,31793.6,34752.4,-0.8543,-0.6133,135.5,96.1,0.555
14.04,31886.9,34621.5,-0.4664,-0.9346,135.5,96.1,0.555
14.06,31695.3,34525.3,-1.2635,-1.1709,135.5,96.1,0.555
14.08,31678.2,34512.6,-1.3346,-1.202,135.5,96.1,0.555
14.1,31659.1,34488.3,-1.4142,-1.2617,135.5,96.1,0.555
14.12,31636.2,34513.6,-1.5094,-1.1997,135.5,96.1,0.555
14.14,31866.1,34581.0,-0.5529,-1.0341,135.5,96.1,0.555
14.16,31952.9,34966.4,-0.1918,-0.0877,135.5,96.1,0.555
14.18,32140.0,35280.4,0.5866,0.6833,135.5,96.1,0.555
14.2,32266.5,35712.8,1.1127,1.745,135.5,96.1,0.555
14.22,32442.5,35702.0,1.8448,1.7185,135.5,96.1,0.555
14.24,32301.4,35758.8,1.2577,1.8581,135.5,96.1,0.555
14.26,32279.4,35602.0,1.1662,1.473,135.5,96.1,0.555
14.28,32241.9,35428.9,1.0105,1.048,135.5,96.1,0.555
14.3,32095.4,35243.5,0.4008,0.5926,135.5,96.1,0.555
14.32,32048.3,35259.8,0.205,0.6328,135.5,96.1,0.555
14.34,32093.6,35032.8,0.3933,0.0754,135.5,96.1,0.555
14.36,32047.3,35046.8,0.2007,0.1097,135.5,96.1,0.555
14.38,31966.6,34923.8,-0.1349,-0.1924,135.5,96.1,0.555
14.4,31949.2,34896.6,-0.2071,-0.2591,135.5,96.1,0.555
14.42,31813.9,34819.4,-0.7699,-0.4487,135.5,96.1,0.555
14.44,31922.0,34667.9,-0.3204,-0.8207,135.5,96.1,0.555
14.46,31760.2,34717.4,-0.9936,-0.6991,135.5,96.1,0.555
14.48,31735.9,34740.2,-1.0946,-0.6432,135.5,96.1,0.555
14.5,31778.4,34673.3,-0.9178,-0.8074,135.5,96.1,0.555
14.52,31739.0,34495.3,-1.0814,-1.2445,135.5,96.1,0.555
14.54,31661.4,34449.8,-1.4043,-1.3562,135.5,96.1,0.555
14.56,31822.6,34527.9,-0.7337,-1.1646,135.5,96.1,0.555
14.58,31771.9,34739.7,-0.9448,-0.6444,135.5,96.1,0.555
14.6,31977.6,34976.1,-0.089,-0.0638,135.5,96.1,0.555
14.62,32090.7,35179.1,0.3814,0.4344,135.5,96.1,0.555
14.64,32335.5,35509.3,1.3998,1.2453,135.5,96.1,0.555
14.66,32432.8,35783.7,1.8045,1.9191,135.5,96.1,0.555
14.68,32416.0,35739.5,1.7347,1.8106,135.5,96.1,0.555
14.7,32307.2,35540.2,1.282,1.3212,135.5,96.1,0.555
14.72,32274.0,35396.3,1.1438,0.9678,135.5,96.1,0.555
14.74,32034.7,35284.1,0.1483,0.6923,135.5,96.1,0.555
14.76,32014.7,35125.4,0.065,0.3026,135.5,96.1,0.555
14.78,32013.6,35025.0,0.0609,0.0561,135.5,96.1,0.555
14.8,32051.2,35033.0,0.2169,0.0757,135.5,96.1,0.555
14.82,31979.6,34927.1,-0.0807,-0.1843,135.5,96.1,0.555
14.84,32010.5,34791.6,0.0479,-0.5171,135.5,96.1,0.555
14.86,31838.1,34703.7,-0.6695,-0.7327,135.5,96.1,0.555
14.88,31907.0,34678.2,-0.3827,-0.7954,135.5,96.1,0.555
14.9,31927.4,34671.8,-0.2981,-0.8111,135.5,96.1,0.555
14.92,31866.8,34636.9,-0.55,-0.8969,135.5,96.1,0.555
14.94,31765.0,34650.3,-0.9734,-0.8639,135.5,96.1,0.555
14.96,31735.9,34536.7,-1.0945,-1.1428,135.5,96.1,0.555
14.98,31631.0,34471.7,-1.531,-1.3024,135.5,96.1,0.555
15.0,31694.5,34452.9,-1.2667,-1.3486,135.5,96.1,0.555
15.02,31806.8,34612.7,-0.7996,-0.9563,135.5,96.1,0.555
15.04,31940.1,34960.6,-0.245,-0.102,135.5,96.1,0.555
15.06,32131.0,35177.1,0.5489,0.4297,135.5,96.1,0.555
15.08,32272.5,35503.1,1.1377,1.2302,135.5,96.1,0.555
15.1,32358.0,35685.6,1.4932,1.6783,135.5,96.1,0.555
15.12,32382.7,35755.4,1.5959,1.8496,135.5,96.1,0.555
15.14,32297.3,35662.5,1.2407,1.6216,135.5,96.1,0.555
15.16,32216.5,35374.5,0.9049,0.9144,135.5,96.1,0.555
15.18,32106.7,35229.4,0.448,0.5581,135.5,96.1,0.555
15.2,32049.7,35069.9,0.2107,0.1665,135.5,96.1,0.555
15.22,32061.7,35132.1,0.2606,0.3192,135.5,96.1,0.555
15.24,31980.5,35078.3,-0.0769,0.187,135.5,96.1,0.555
15.26,32099.2,34948.2,0.4166,-0.1323,135.5,96.1,0.555
15.28,31876.5,34935.4,-0.5097,-0.1638,135.5,96.1,0.555
15.3,31904.2,34779.3,-0.3945,-0.5471,135.5,96.1,0.555
15.32,31827.9,34634.8,-0.7117,-0.9021,135.5,96.1,0.555
15.34,31825.5,34564.7,-0.7216,-1.0742,135.5,96.1,0.555
15.36,31839.9,34655.8,-0.662,-0.8505,135.5,96.1,0.555
15.38,31777.1,34610.5,-0.923,-0.9616,135.5,96.1,0.555
15.4,31795.2,34591.6,-0.848,-1.008,135.5,96.1,0.555
15.42,31761.3,34463.2,-0.9888,-1.3234,135.5,96.1,0.555
15.44,31704.0,34379.4,-1.2273,-1.5292,135.5,96.1,0.555
15.46,31714.7,34502.9,-1.1829,-1.2258,135.5,96.1,0.555
15.48,31870.9,34729.3,-0.533,-0.67,135.5,96.1,0.555
15.5,32070.6,35179.9,0.2977,0.4364,135.5,96.1,0.555
15.52,32361.3,35464.2,1.5071,1.1345,135.5,96.1,0.555
15.54,32400.0,35710.0,1.6679,1.7381,135.5,96.1,0.555
15.56,32415.5,35712.7,1.7324,1.7447,135.5,96.1,0.555
15.58,32381.8,35618.0,1.5924,1.5122,135.5,96.1,0.555
15.6,32165.1,35481.3,0.6907,1.1767,135.5,96.1,0.555
15.62,32093.8,35312.8,0.3944,0.7628,135.5,96.1,0.555
15.64,32071.4,35118.1,0.3013,0.2848,135.5,96.1,0.555
15.66,32095.9,35101.8,0.4031,0.2448,135.5,96.1,0.555
15.68,32135.8,35054.7,0.5688,0.129,135.5,96.1,0.555
15.7,32060.9,35068.7,0.2574,0.1636,135.5,96.1,0.555
15.72,31941.7,34847.6,-0.2384,-0.3795,135.5,96.1,0.555
15.74,31983.0,34794.9,-0.0668,-0.509,135.5,96.1,0.555
15.76,31811.4,34719.3,-0.7803,-0.6945,135.5,96.1,0.555
15.78,31886.6,34625.9,-0.4677,-0.924,135.5,96.1,0.555
15.8,31838.1,34637.2,-0.6694,-0.8962,135.5,96.1,0.555
15.82,31835.6,34619.0,-0.6797,-0.9407,135.5,96.1,0.555
15.84,31853.7,34600.8,-0.6045,-0.9854,135.5,96.1,0.555
15.86,31759.6,34531.5,-0.9958,-1.1557,135.5,96.1,0.555
15.88,31702.6,34396.9,-1.2329,-1.4861,135.5,96.1,0.555
15.9,31786.1,34614.3,-0.8856,-0.9523,135.5,96.1,0.555
15.92,31998.3,34793.1,-0.0032,-0.5134,135.5,96.1,0.555
15.94,32104.8,35081.4,0.4402,0.1946,135.5,96.1,0.555
15.96,32208.7,35383.1,0.8722,0.9354,135.5,96.1,0.555
15.98,32433.0,35672.2,1.8055,1.6455,135.5,96.1,0.555
16.0,32451.8,35731.0,1.8836,1.7898,135.5,96.1,0.555
16.02,32400.1,35668.4,1.6683,1.6361,135.5,96.1,0.555
16.04,32231.0,35468.9,0.9649,1.1461,135.5,96.1,0.555
16.06,32131.2,35340.8,0.5499,0.8317,135.5,96.1,0.555
16.08,32104.8,35275.6,0.4399,0.6716,135.5,96.1,0.555
16.1,32067.6,35072.9,0.2851,0.1738,135.5,96.1,0.555
16.12,31967.4,34998.6,-0.1316,-0.0087,135.5,96.1,0.555
16.14,31947.3,35065.5,-0.2149,0.1555,135.5,96.1,0.555
16.16,32044.3,34940.5,0.1883,-0.1512,135.5,96.1,0.555
16.18,31945.1,34860.3,-0.2244,-0.3482,135.5,96.1,0.555
16.2,31907.0,34826.5,-0.3828,-0.4313,135.5,96.1,0.555
16.22,31964.7,34617.8,-0.1429,-0.9438,135.5,96.1,0.555
16.24,31846.9,34625.7,-0.6327,-0.9244,135.5,96.1,0.555
16.26,31797.7,34620.8,-0.8373,-0.9365,135.5,96.1,0.555
16.28,31792.1,34580.7,-0.8608,-1.0349,135.5,96.1,0.555
16.3,31717.0,34487.2,-1.173,-1.2645,135.5,96.1,0.555
16.32,31686.6,34513.5,-1.2998,-1.1998,135.5,96.1,0.555
16.34,31743.2,34432.4,-1.0641,-1.3991,135.5,96.1,0.555
16.36,31935.4,34710.9,-0.2644,-0.715,135.5,96.1,0.555
16.38,31989.9,35091.0,-0.0379,0.2181,135.5,96.1,0.555
16.4,32219.9,35373.6,0.919,0.9122,135.5,96.1,0.555
16.42,32374.7,35687.6,1.5626,1.6833,135.5,96.1,0.555
16.44,32478.5,35738.1,1.9947,1.8073,135.5,96.1,0.555
16.46,32373.7,35618.9,1.5584,1.5145,135.5,96.1,0.555
16.48,32282.0,35518.1,1.1773,1.267,135.5,96.1,0.555
16.5,32289.4,35376.8,1.208,0.9201,135.5,96.1,0.555
16.52,32102.5,35194.0,0.4306,0.4712,135.5,96.1,0.555
16.54,32078.8,35162.5,0.332,0.3939,135.5,96.1,0.555
16.56,31932.2,35152.6,-0.2779,0.3695,135.5,96.1,0.555
16.58,31992.8,34995.5,-0.0259,-0.0163,135.5,96.1,0.555
16.6,31855.9,34922.1,-0.5954,-0.1964,135.5,96.1,0.555
16.62,31902.4,34694.6,-0.4017,-0.7553,135.5,96.1,0.555
16.64,31903.7,34767.3,-0.3965,-0.5767,135.5,96.1,0.555
16.66,31769.9,34693.8,-0.9529,-0.7571,135.5,96.1,0.555
16.68,31762.1,34658.2,-0.9854,-0.8446,135.5,96.1,0.555
16.7,31774.3,34662.6,-0.9346,-0.8338,135.5,96.1,0.555
16.72,31799.8,34626.0,-0.8287,-0.9236,135.5,96.1,0.555
16.74,31690.2,34512.5,-1.2845,-1.2023,135.5,96.1,0.555
16.76,31775.4,34410.6,-0.93,-1.4525,135.5,96.1,0.555
16.78,31830.0,34652.8,-0.7033,-0.8577,135.5,96.1,0.555
16.8,31895.4,34751.9,-0.4312,-0.6145,135.5,96.1,0.555
16.82,32116.5,35025.7,0.4889,0.0579,135.5,96.1,0.555
16.84,32256.0,35301.9,1.0692,0.7362,135.5,96.1,0.555
16.86,32270.8,35697.3,1.1305,1.7069,135.5,96.1,0.555
16.88,32328.1,35684.1,1.3689,1.6746,135.5,96.1,0.555
16.9,32362.9,35690.8,1.5136,1.691,135.5,96.1,0.555
16.92,32297.3,35511.7,1.2406,1.2514,135.5,96.1,0.555
16.94,32120.8,35274.3,0.5066,0.6684,135.5,96.1,0.555
16.96,32119.1,35231.1,0.4997,0.5622,135.5,96.1,0.555
16.98,32046.7,35115.0,0.1982,0.2772,135.5,96.1,0.555
17.0,32078.1,35152.7,0.3292,0.3698,135.5,96.1,0.555
17.02,31966.9,35006.6,-0.1336,0.0109,135.5,96.1,0.555
17.04,31932.9,34926.3,-0.2748,-0.1861,135.5,96.1,0.555
17.06,31996.1,34771.0,-0.012,-0.5675,135.5,96.1,0.555
17.08,31867.0,34813.2,-0.549,-0.4639,135.5,96.1,0.555
17.1,31881.1,34684.3,-0.4903,-0.7806,135.5,96.1,0.555
17.12,31817.6,34762.9,-0.7545,-0.5874,135.5,96.1,0.555
17.14,31794.3,34743.7,-0.8516,-0.6346,135.5,96.1,0.555
17.16,31741.3,34614.0,-1.072,-0.9531,135.5,96.1,0.555
17.18,31703.8,34585.3,-1.228,-1.0235,135.5,96.1,0.555
17.2,31759.3,34490.4,-0.9971,-1.2566,135.5,96.1,0.555
17.22,31720.2,34523.2,-1.16,-1.176,135.5,96.1,0.555
17.24,31791.6,34659.5,-0.8627,-0.8414,135.5,96.1,0.555
17.26,31825.3,34889.3,-0.7225,-0.2771,135.5,96.1,0.555
17.28,32116.3,35252.0,0.4879,0.6137,135.5,96.1,0.555
17.3,32293.4,35647.1,1.2246,1.5838,135.5,96.1,0.555
17.32,32339.5,35746.9,1.4163,1.8288,135.5,96.1,0.555
17.34,32319.7,35701.2,1.3339,1.7165,135.5,96.1,0.555
17.36,32339.1,35589.1,1.4148,1.4413,135.5,96.1,0.555
17.38,32191.8,35388.0,0.8018,0.9474,135.5,96.1,0.555
17.4,32111.6,35158.7,0.4683,0.3846,135.5,96.1,0.555
17.42,32053.8,35094.9,0.2278,0.2277,135.5,96.1,0.555
17.44,32053.7,35073.4,0.2274,0.1749,135.5,96.1,0.555
17.46,32002.6,35011.9,0.0148,0.0239,135.5,96.1,0.555
17.48,32017.5,35024.9,0.0771,0.0559,135.5,96.1,0.555
17.5,31852.1,34846.5,-0.6111,-0.3821,135.5,96.1,0.555
17.52,31808.3,34677.3,-0.7934,-0.7977,135.5,96.1,0.555
17.54,31829.1,34735.0,-0.7069,-0.6559,135.5,96.1,0.555
17.56,31858.0,34669.3,-0.5868,-0.8173,135.5,96.1,0.555
17.58,31835.3,34643.7,-0.6812,-0.8803,135.5,96.1,0.555
17.6,31714.8,34662.2,-1.1825,-0.8348,135.5,96.1,0.555
17.62,31732.0,34566.7,-1.1106,-1.0693,135.5,96.1,0.555
17.64,31667.0,34383.4,-1.381,-1.5194,135.5,96.1,0.555
17.66,31685.1,34519.5,-1.306,-1.185,135.5,96.1,0.555
17.68,31866.6,34660.1,-0.5509,-0.8399,135.5,96.1,0.555
17.7,31974.3,34881.4,-0.1027,-0.2964,135.5,96.1,0.555
17.72,32130.5,35343.5,0.5469,0.8381,135.5,96.1,0.555
17.74,32268.0,35544.4,1.1191,1.3315,135.5,96.1,0.555
17.76,32463.2,35695.9,1.9307,1.7035,135.5,96.1,0.555
17.78,32376.6,35705.0,1.5705,1.7259,135.5,96.1,0.555
17.8,32357.3,35578.0,1.4903,1.4142,135.5,96.1,0.555
17.82,32208.8,35429.9,0.8726,1.0504,135.5,96.1,0.555
17.84,32080.5,35266.4,0.339,0.6488,135.5,96.1,0.555
17.86,32075.9,35103.7,0.32,0.2494,135.5,96.1,0.555
17.88,31982.2,35107.4,-0.07,0.2586,135.5,96.1,0.555
17.9,32064.4,35108.4,0.272,0.2609,135.5,96.1,0.555
17.92,31854.8,34979.0,-0.6,-0.0568,135.5,96.1,0.555
17.94,32000.9,34859.6,0.0078,-0.35,135.5,96.1,0.555
17.96,31872.7,34708.0,-0.5254,-0.7223,135.5,96.1,0.555
17.98,31824.1,34730.4,-0.7278,-0.6673,135.5,96.1,0.555
18.0,31833.8,34712.1,-0.6873,-0.7121,135.5,96.1,0.555
18.02,31842.6,34680.7,-0.6505,-0.7893,135.5,96.1,0.555
18.04,31727.1,34694.5,-1.1311,-0.7554,135.5,96.1,0.555
18.06,31740.1,34555.7,-1.0771,-1.0963,135.5,96.1,0.555
18.08,31733.2,34445.0,-1.1059,-1.368,135.5,96.1,0.555
18.1,31753.2,34500.3,-1.0225,-1.2321,135.5,96.1,0.555
18.12,31842.7,34680.6,-0.6501,-0.7896,135.5,96.1,0.555
18.14,31942.4,34872.7,-0.2354,-0.3179,135.5,96.1,0.555
18.16,32086.7,35351.1,0.3647,0.857,135.5,96.1,0.555
18.18,32293.1,35524.2,1.2234,1.2821,135.5,96.1,0.555
18.2,32395.9,35718.9,1.6509,1.7601,135.5,96.1,0.555
18.22,32370.3,35801.5,1.5446,1.963,135.5,96.1,0.555
18.24,32363.8,35605.2,1.5176,1.4809,135.5,96.1,0.555
18.26,32282.5,35419.8,1.1794,1.0256,135.5,96.1,0.555
18.28,32066.6,35252.9,0.2812,0.6158,135.5,96.1,0.555
18.3,32095.0,35159.2,0.3995,0.3858,135.5,96.1,0.555
18.32,32029.8,35092.4,0.1282,0.2218,135.5,96.1,0.555
18.34,32022.9,35044.4,0.0992,0.1037,135.5,96.1,0.555
18.36,32027.9,34963.5,0.1201,-0.0948,135.5,96.1,0.555
18.38,31874.0,34889.3,-0.52,-0.277,135.5,96.1,0.555
18.4,31867.4,34753.9,-0.5476,-0.6094,135.5,96.1,0.555
18.42,31936.5,34711.0,-0.2599,-0.7149,135.5,96.1,0.555
18.44,31855.2,34607.1,-0.5982,-0.97,135.5,96.1,0.555
18.46,31786.0,34634.8,-0.8862,-0.9019,135.5,96.1,0.555
18.48,31788.7,34572.1,-0.875,-1.0561,135.5,96.1,0.555
18.5,31706.9,34502.8,-1.2153,-1.2261,135.5,96.1,0.555
18.52,31717.1,34500.1,-1.1729,-1.2329,135.5,96.1,0.555
18.54,31746.0,34431.4,-1.0524,-1.4014,135.5,96.1,0.555
18.56,31746.5,34522.5,-1.0504,-1.1778,135.5,96.1,0.555
18.58,31965.7,34821.3,-0.1388,-0.444,135.5,96.1,0.555
18.6,32230.5,35086.3,0.9629,0.2068,135.5,96.1,0.555
18.62,32261.7,35541.9,1.0928,1.3254,135.5,96.1,0.555
18.64,32279.0,35806.4,1.1647,1.9748,135.5,96.1,0.555
18.66,32366.5,35812.6,1.5286,1.9902,135.5,96.1,0.555
18.68,32312.4,35645.9,1.3034,1.5807,135.5,96.1,0.555
18.7,32242.4,35477.9,1.0124,1.1684,135.5,96.1,0.555
18.72,32175.2,35302.9,0.733,0.7384,135.5,96.1,0.555
18.74,32124.1,35163.7,0.5204,0.3968,135.5,96.1,0.555
18.76,31979.9,35112.0,-0.0797,0.2698,135.5,96.1,0.555
18.78,32016.8,35089.8,0.074,0.2153,135.5,96.1,0.555
18.8,32066.6,34883.2,0.281,-0.2921,135.5,96.1,0.555
18.82,32021.0,34859.8,0.0914,-0.3496,135.5,96.1,0.555
18.84,31814.2,34637.0,-0.7688,-0.8966,135.5,96.1,0.555
18.86,31832.8,34808.9,-0.6916,-0.4746,135.5,96.1,0.555
18.88,31854.3,34677.5,-0.6021,-0.7971,135.5,96.1,0.555
18.9,31908.6,34702.8,-0.3761,-0.735,135.5,96.1,0.555
18.92,31799.4,34657.6,-0.8303,-0.8459,135.5,96.1,0.555
18.94,31747.7,34465.3,-1.0454,-1.3181,135.5,96.1,0.555
18.96,31742.8,34482.6,-1.0659,-1.2758,135.5,96.1,0.555
18.98,31722.9,34496.6,-1.1484,-1.2414,135.5,96.1,0.555
19.0,31753.2,34590.0,-1.0224,-1.012,135.5,96.1,0.555
19.02,31790.2,34832.4,-0.8686,-0.4167,135.5,96.1,0.555
19.04,32097.7,35148.4,0.4105,0.3592,135.5,96.1,0.555
19.06,32174.3,35364.7,0.7292,0.8902,135.5,96.1,0.555
19.08,32416.2,35694.5,1.7353,1.7002,135.5,96.1,0.555
19.1,32365.8,35721.7,1.5258,1.7668,135.5,96.1,0.555
19.12,32367.1,35717.5,1.5311,1.7566,135.5,96.1,0.555
19.14,32290.3,35507.5,1.2117,1.241,135.5,96.1,0.555
19.16,32182.5,35162.8,0.7635,0.3946,135.5,96.1,0.555
19.18,32091.5,35110.5,0.3846,0.266,135.5,96.1,0.555
19.2,32012.8,35139.4,0.0573,0.337,135.5,96.1,0.555
19.22,31986.8,35006.9,-0.0508,0.0117,135.5,96.1,0.555
19.24,31979.6,34932.2,-0.0809,-0.1716,135.5,96.1,0.555
19.26,31918.4,34946.9,-0.3354,-0.1356,135.5,96.1,0.555
19.28,31999.9,34889.4,0.0037,-0.2768,135.5,96.1,0.555
19.3,31776.2,34676.6,-0.9269,-0.7993,135.5,96.1,0.555
19.32,31802.5,34657.2,-0.8174,-0.847,135.5,96.1,0.555
19.34,31742.1,34682.8,-1.0687,-0.7842,135.5,96.1,0.555
19.36,31803.6,34611.8,-0.8128,-0.9584,135.5,96.1,0.555
19.38,31810.8,34657.9,-0.7831,-0.8454,135.5,96.1,0.555
19.4,31742.3,34574.8,-1.0678,-1.0492,135.5,96.1,0.555
19.42,31726.1,34455.5,-1.1354,-1.3424,135.5,96.1,0.555
19.44,31786.7,34555.9,-0.883,-1.0957,135.5,96.1,0.555
19.46,31859.0,34728.9,-0.5823,-0.671,135.5,96.1,0.555
19.48,31923.1,35114.2,-0.3158,0.2752,135.5,96.1,0.555
19.5,32210.2,35428.1,0.8784,1.0459,135.5,96.1,0.555
19.52,32335.6,35628.5,1.4,1.538,135.5,96.1,0.555
19.54,32424.1,35847.0,1.7683,2.0747,135.5,96.1,0.555
19.56,32343.7,35636.0,1.4337,1.5565,135.5,96.1,0.555
19.58,32227.0,35601.1,0.9484,1.4709,135.5,96.1,0.555
19.6,32100.5,35358.2,0.4221,0.8744,135.5,96.1,0.555
19.62,32014.9,35238.1,0.0663,0.5794,135.5,96.1,0.555
19.64,32084.2,35056.1,0.3544,0.1326,135.5,96.1,0.555
19.66,32111.4,35043.4,0.4677,0.1013,135.5,96.1,0.555
19.68,32003.6,34931.1,0.0192,-0.1744,135.5,96.1,0.555
19.7,31953.2,34887.7,-0.1907,-0.281,135.5,96.1,0.555
19.72,31946.0,34728.9,-0.2205,-0.6709,135.5,96.1,0.555
19.74,31952.7,34819.6,-0.1925,-0.4481,135.5,96.1,0.555
19.76,31807.2,34699.1,-0.798,-0.7442,135.5,96.1,0.555
19.78,31793.2,34605.7,-0.8562,-0.9734,135.5,96.1,0.555
19.8,31857.3,34610.6,-0.5894,-0.9615,135.5,96.1,0.555
19.82,31829.7,34559.6,-0.7045,-1.0867,135.5,96.1,0.555
19.84,31718.0,34531.7,-1.1689,-1.1552,135.5,96.1,0.555
19.86,31712.6,34497.1,-1.1916,-1.2402,135.5,96.1,0.555
19.88,31763.6,34463.1,-0.9792,-1.3237,135.5,96.1,0.555
19.9,31841.7,34672.8,-0.6542,-0.8086,135.5,96.1,0.555
19.92,32039.2,34924.7,0.167,-0.19,135.5,96.1,0.555
19.94,32141.3,35364.2,0.5919,0.8892,135.5,96.1,0.555
19.96,32233.6,35715.4,0.9758,1.7515,135.5,96.1,0.555
19.98,32401.0,35759.2,1.6724,1.859,135.5,96.1,0.555
20.0,32334.7,35721.9,1.3962,1.7675,135.5,96.1,0.555
20.02,32269.2,35549.2,1.124,1.3433,135.5,96.1,0.555
20.04,32264.7,35473.7,1.1054,1.158,135.5,96.1,0.555
20.06,32052.7,35191.1,0.2232,0.464,135.5,96.1,0.555
20.08,32070.8,35039.2,0.2988,0.091,135.5,96.1,0.555
20.1,32070.6,35060.4,0.2979,0.1431,135.5,96.1,0.555
20.12,31911.6,35008.2,-0.3636,0.015,135.5,96.1,0.555
20.14,31986.8,34920.0,-0.0509,-0.2017,135.5,96.1,0.555
20.16,31888.3,34869.3,-0.4607,-0.3261,135.5,96.1,0.555
20.18,31877.8,34709.2,-0.5043,-0.7192,135.5,96.1,0.555
20.2,31875.0,34660.7,-0.516,-0.8383,135.5,96.1,0.555
20.22,31814.2,34725.0,-0.7689,-0.6805,135.5,96.1,0.555
20.24,31826.9,34680.6,-0.7161,-0.7894,135.5,96.1,0.555
20.26,31798.9,34556.8,-0.8324,-1.0935,135.5,96.1,0.555
20.28,31742.2,34552.3,-1.0684,-1.1047,135.5,96.1,0.555
20.3,31707.3,34509.3,-1.2135,-1.2101,135.5,96.1,0.555
20.32,31736.5,34555.2,-1.0922,-1.0976,135.5,96.1,0.555
20.34,31871.2,34726.3,-0.5317,-0.6774,135.5,96.1,0.555
20.36,31989.9,34970.1,-0.038,-0.0787,135.5,96.1,0.555
20.38,32186.8,35293.0,0.7811,0.7143,135.5,96.1,0.555
20.4,32337.5,35593.8,1.4082,1.4528,135.5,96.1,0.555
20.42,32340.5,35798.8,1.4205,1.9561,135.5,96.1,0.555
20.44,32339.5,35745.6,1.4166,1.8256,135.5,96.1,0.555
20.46,32382.3,35551.6,1.5943,1.3493,135.5,96.1,0.555
20.48,32234.9,35441.4,0.9811,1.0787,135.5,96.1,0.555
20.5,32125.1,35243.0,0.5247,0.5915,135.5,96.1,0.555
20.52,32077.0,35173.8,0.3245,0.4215,135.5,96.1,0.555
20.54,32093.4,35011.1,0.3925,0.022,135.5,96.1,0.555
20.56,32053.0,35047.8,0.2245,0.1122,135.5,96.1,0.555
20.58,31944.3,34923.1,-0.2276,-0.1939,135.5,96.1,0.555
20.6,31914.4,34808.9,-0.352,-0.4746,135.5,96.1,0.555
20.62,31809.7,34779.4,-0.7876,-0.5468,135.5,96.1,0.555
20.64,31823.5,34656.9,-0.7301,-0.8477,135.5,96.1,0.555
20.66,31849.1,34644.8,-0.6236,-0.8773,135.5,96.1,0.555
20.68,31835.2,34629.1,-0.6814,-0.916,135.5,96.1,0.555
20.7,31868.2,34587.5,-0.544,-1.0181,135.5,96.1,0.555
20.72,31796.2,34594.8,-0.8436,-1.0002,135.5,96.1,0.555
20.74,31818.9,34406.6,-0.7492,-1.4622,135.5,96.1,0.555
20.76,31823.6,34436.6,-0.7295,-1.3887,135.5,96.1,0.555
20.78,31777.8,34730.3,-0.9202,-0.6674,135.5,96.1,0.555
20.8,31902.9,34864.8,-0.3997,-0.3372,135.5,96.1,0.555
20.82,32036.1,35225.7,0.1542,0.549,135.5,96.1,0.555
20.84,32256.0,35544.8,1.0689,1.3325,135.5,96.1,0.555
20.86,32301.5,35725.8,1.2583,1.7771,135.5,96.1,0.555
20.88,32392.1,35721.2,1.6351,1.7656,135.5,96.1,0.555
20.9,32273.6,35664.8,1.1421,1.6272,135.5,96.1,0.555
20.92,32247.3,35396.0,1.0328,0.9671,135.5,96.1,0.555
20.94,32144.6,35309.5,0.6057,0.7547,135.5,96.1,0.555
20.96,32075.7,35184.1,0.3188,0.4467,135.5,96.1,0.555
20.98,32067.9,35004.5,0.2867,0.0059,135.5,96.1,0.555
21.0,32079.2,35057.6,0.3335,0.1361,135.5,96.1,0.555
21.02,32034.3,34905.7,0.1469,-0.2368,135.5,96.1,0.555
21.04,31868.4,34835.0,-0.5432,-0.4104,135.5,96.1,0.555
21.06,31842.8,34798.4,-0.6497,-0.5004,135.5,96.1,0.555
21.08,31874.2,34659.0,-0.5191,-0.8425,135.5,96.1,0.555
21.1,31874.0,34613.8,-0.5201,-0.9535,135.5,96.1,0.555
21.12,31752.5,34730.4,-1.0255,-0.6673,135.5,96.1,0.555
21.14,31824.6,34635.2,-0.7255,-0.901,135.5,96.1,0.555
21.16,31770.1,34569.1,-0.9523,-1.0633,135.5,96.1,0.555
21.18,31763.5,34494.3,-0.9797,-1.2471,135.5,96.1,0.555
21.2,31723.2,34469.9,-1.1475,-1.3068,135.5,96.1,0.555
21.22,31800.4,34559.4,-0.8261,-1.0872,135.5,96.1,0.555
21.24,31938.9,34761.0,-0.25,-0.5921,135.5,96.1,0.555
21.26,32135.7,35255.9,0.5684,0.6231,135.5,96.1,0.555
21.28,32241.2,35524.9,1.0074,1.2838,135.5,96.1,0.555
21.3,32398.3,35758.3,1.6608,1.8568,135.5,96.1,0.555
21.32,32443.2,35734.3,1.8478,1.7978,135.5,96.1,0.555
21.34,32333.9,35608.6,1.3931,1.4893,135.5,96.1,0.555
21.36,32213.6,35452.7,0.8925,1.1065,135.5,96.1,0.555
21.38,32145.1,35224.9,0.6079,0.547,135.5,96.1,0.555
21.4,32068.3,35142.4,0.2882,0.3444,135.5,96.1,0.555
21.42,32081.1,35092.5,0.3415,0.222,135.5,96.1,0.555
21.44,32085.9,34981.7,0.3612,-0.0502,135.5,96.1,0.555
21.46,31945.5,34968.8,-0.2226,-0.0818,135.5,96.1,0.555
21.48,31946.0,34862.6,-0.2204,-0.3426,135.5,96.1,0.555
21.5,31808.1,34790.1,-0.7942,-0.5207,135.5,96.1,0.555
21.52,31855.3,34728.5,-0.5979,-0.6718,135.5,96.1,0.555
21.54,31756.8,34645.0,-1.0075,-0.877,135.5,96.1,0.555
21.56,31791.8,34741.3,-0.862,-0.6405,135.5,96.1,0.555
21.58,31763.4,34622.9,-0.98,-0.9312,135.5,96.1,0.555
21.6,31716.3,34489.6,-1.176,-1.2584,135.5,96.1,0.555
21.62,31772.3,34507.2,-0.9431,-1.2152,135.5,96.1,0.555
21.64,31803.1,34435.9,-0.8149,-1.3905,135.5,96.1,0.555
21.66,31729.8,34617.6,-1.1198,-0.9442,135.5,96.1,0.555
21.68,31952.8,34894.2,-0.1921,-0.2651,135.5,96.1,0.555
21.7,32047.0,35183.3,0.1998,0.4449,135.5,96.1,0.555
21.72,32199.0,35552.4,0.8317,1.3511,135.5,96.1,0.555
21.74,32357.0,35694.4,1.4893,1.6998,135.5,96.1,0.555
21.76,32445.6,35789.4,1.8578,1.9333,135.5,96.1,0.555
21.78,32323.9,35629.1,1.3513,1.5396,135.5,96.1,0.555
21.8,32246.1,35474.0,1.0279,1.1587,135.5,96.1,0.555
21.82,32202.2,35292.9,0.8451,0.7141,135.5,96.1,0.555
21.84,32138.5,35232.2,0.5802,0.5651,135.5,96.1,0.555
21.86,32089.4,35063.9,0.376,0.1518,135.5,96.1,0.555
21.88,31931.7,35007.1,-0.28,0.0123,135.5,96.1,0.555
21.9,31943.9,35058.9,-0.2292,0.1393,135.5,96.1,0.555
21.92,31971.9,35007.0,-0.1127,0.0119,135.5,96.1,0.555
21.94,31817.8,34793.9,-0.754,-0.5113,135.5,96.1,0.555
21.96,31782.8,34766.8,-0.8993,-0.578,135.5,96.1,0.555
21.98,31835.5,34660.4,-0.6804,-0.8391,135.5,96.1,0.555
22.0,31868.2,34663.8,-0.5443,-0.8308,135.5,96.1,0.555
22.02,31855.5,34677.1,-0.5971,-0.7981,135.5,96.1,0.555
22.04,31759.2,34565.1,-0.9974,-1.0732,135.5,96.1,0.555
22.06,31785.3,34434.0,-0.889,-1.3952,135.5,96.1,0.555
22.08,31587.4,34508.7,-1.7121,-1.2115,135.5,96.1,0.555
22.1,31716.0,34591.0,-1.1773,-1.0094,135.5,96.1,0.555
22.12,31900.3,34759.2,-0.4107,-0.5965,135.5,96.1,0.555
22.14,32094.1,35148.9,0.3955,0.3605,135.5,96.1,0.555
22.16,32281.3,35581.1,1.1745,1.4218,135.5,96.1,0.555
22.18,32456.5,35600.0,1.903,1.468,135.5,96.1,0.555
22.2,32421.5,35739.7,1.7574,1.8111,135.5,96.1,0.555
22.22,32380.5,35624.8,1.5868,1.5291,135.5,96.1,0.555
22.24,32169.8,35541.3,0.7102,1.324,135.5,96.1,0.555
22.26,32107.9,35311.7,0.4529,0.7602,135.5,96.1,0.555
22.28,32139.8,35249.3,0.5856,0.607,135.5,96.1,0.555
22.3,31994.4,35191.8,-0.0191,0.4657,135.5,96.1,0.555
22.32,32035.8,35141.5,0.1529,0.3421,135.5,96.1,0.555
22.34,31977.6,34997.6,-0.089,-0.011,135.5,96.1,0.555
22.36,31937.8,34920.8,-0.2546,-0.1997,135.5,96.1,0.555
22.38,31843.3,34766.5,-0.6478,-0.5787,135.5,96.1,0.555
22.4,31931.9,34675.5,-0.2792,-0.8022,135.5,96.1,0.555
22.42,31870.4,34732.9,-0.535,-0.6611,135.5,96.1,0.555
22.44,31838.8,34657.7,-0.6664,-0.8457,135.5,96.1,0.555
22.46,31684.4,34624.3,-1.3087,-0.9279,135.5,96.1,0.555
22.48,31768.2,34607.1,-0.9602,-0.9701,135.5,96.1,0.555
22.5,31684.4,34583.1,-1.3088,-1.0288,135.5,96.1,0.555
22.52,31755.7,34360.4,-1.0123,-1.5758,135.5,96.1,0.555
22.54,31822.3,34556.4,-0.7352,-1.0945,135.5,96.1,0.555
22.56,31886.0,34753.4,-0.4701,-0.6108,135.5,96.1,0.555
22.58,32016.2,34975.6,0.0713,-0.0653,135.5,96.1,0.555
22.6,32149.4,35403.9,0.6257,0.9865,135.5,96.1,0.555
22.62,32257.2,35707.7,1.0738,1.7326,135.5,96.1,0.555
22.64,32395.2,35748.4,1.6481,1.8324,135.5,96.1,0.555
22.66,32316.7,35636.7,1.3214,1.5581,135.5,96.1,0.555
22.68,32244.6,35537.1,1.0216,1.3135,135.5,96.1,0.555
22.7,32211.1,35268.5,0.8824,0.6541,135.5,96.1,0.555
22.72,32073.9,35205.5,0.3117,0.4993,135.5,96.1,0.555
22.74,32025.0,35050.5,0.1082,0.1188,135.5,96.1,0.555
22.76,32119.9,35042.3,0.5028,0.0986,135.5,96.1,0.555
22.78,32012.1,35019.7,0.0546,0.0433,135.5,96.1,0.555
22.8,31967.2,34979.5,-0.1322,-0.0556,135.5,96.1,0.555
22.82,31922.3,34745.8,-0.3192,-0.6295,135.5,96.1,0.555
22.84,31840.2,34715.5,-0.6607,-0.7038,135.5,96.1,0.555
22.86,31852.9,34658.5,-0.6076,-0.8437,135.5,96.1,0.555
22.88,31844.4,34588.6,-0.6433,-1.0154,135.5,96.1,0.555
22.9,31831.9,34682.2,-0.6952,-0.7855,135.5,96.1,0.555
22.92,31895.6,34566.7,-0.4303,-1.0692,135.5,96.1,0.555
22.94,31734.3,34586.9,-1.1013,-1.0197,135.5,96.1,0.555
22.96,31784.4,34498.5,-0.8928,-1.2366,135.5,96.1,0.555
22.98,31766.3,34561.6,-0.968,-1.0817,135.5,96.1,0.555
23.0,31839.7,34707.2,-0.6628,-0.7243,135.5,96.1,0.555
23.02,32028.2,35044.2,0.1215,0.1033,135.5,96.1,0.555
23.04,32167.1,35406.9,0.6991,0.994,135.5,96.1,0.555
23.06,32307.0,35705.6,1.2812,1.7273,135.5,96.1,0.555
23.08,32402.1,35715.8,1.6767,1.7524,135.5,96.1,0.555
23.1,32378.1,35585.8,1.5768,1.4331,135.5,96.1,0.555
23.12,32192.3,35510.4,0.8042,1.2482,135.5,96.1,0.555
23.14,32187.0,35356.0,0.7819,0.869,135.5,96.1,0.555
23.16,32121.3,35164.3,0.5086,0.3983,135.5,96.1,0.555
23.18,31993.9,35123.0,-0.0213,0.2969,135.5,96.1,0.555
23.2,32062.4,35058.7,0.2638,0.139,135.5,96.1,0.555
23.22,31973.2,35055.9,-0.1074,0.1319,135.5,96.1,0.555
23.24,31946.4,34910.2,-0.2189,-0.2256,135.5,96.1,0.555
23.26,31922.5,34831.1,-0.3183,-0.42,135.5,96.1,0.555
23.28,31827.7,34700.7,-0.7128,-0.7403,135.5,96.1,0.555
23.3,31964.6,34647.1,-0.1434,-0.8718,135.5,96.1,0.555
23.32,31901.5,34696.8,-0.4058,-0.7497,135.5,96.1,0.555
23.34,31804.4,34622.7,-0.8096,-0.9318,135.5,96.1,0.555
23.36,31860.0,34447.5,-0.5784,-1.3618,135.5,96.1,0.555
23.38,31757.9,34544.4,-1.0028,-1.124,135.5,96.1,0.555
23.4,31581.0,34482.3,-1.7388,-1.2764,135.5,96.1,0.555
23.42,31823.3,34563.7,-0.7311,-1.0765,135.5,96.1,0.555
23.44,31739.0,34651.8,-1.0816,-0.8603,135.5,96.1,0.555
23.46,31978.6,35038.4,-0.085,0.0891,135.5,96.1,0.555
23.48,32169.3,35357.8,0.7083,0.8734,135.5,96.1,0.555
23.5,32279.2,35668.8,1.1657,1.637,135.5,96.1,0.555
23.52,32339.6,35776.6,1.4167,1.9016,135.5,96.1,0.555
23.54,32384.4,35755.7,1.6029,1.8505,135.5,96.1,0.555
23.56,32404.8,35614.2,1.6879,1.503,135.5,96.1,0.555
23.58,32224.0,35332.9,0.936,0.8122,135.5,96.1,0.555
23.6,32034.2,35222.8,0.1464,0.5419,135.5,96.1,0.555
23.62,32081.8,35125.7,0.3443,0.3034,135.5,96.1,0.555
23.64,32058.6,35042.6,0.2478,0.0994,135.5,96.1,0.555
23.66,32068.7,35075.4,0.2899,0.18,135.5,96.1,0.555
23.68,32010.8,34944.9,0.0491,-0.1406,135.5,96.1,0.555
23.7,31868.7,34880.1,-0.5423,-0.2996,135.5,96.1,0.555
23.72,31905.8,34821.1,-0.3877,-0.4446,135.5,96.1,0.555
23.74,31857.8,34706.2,-0.5876,-0.7267,135.5,96.1,0.555
23.76,31826.8,34710.3,-0.7165,-0.7166,135.5,96.1,0.555
23.78,31878.4,34605.9,-0.5016,-0.9729,135.5,96.1,0.555
23.8,31826.9,34552.5,-0.7161,-1.1042,135.5,96.1,0.555
23.82,31717.7,34544.4,-1.1704,-1.124,135.5,96.1,0.555
23.84,31743.0,34463.8,-1.0649,-1.322,135.5,96.1,0.555
23.86,31757.7,34494.1,-1.0039,-1.2476,135.5,96.1,0.555
23.88,31846.4,34580.2,-0.6346,-1.0361,135.5,96.1,0.555
23.9,31980.0,34916.9,-0.079,-0.2094,135.5,96.1,0.555
23.92,32050.7,35272.0,0.2151,0.6627,135.5,96.1,0.555
23.94,32333.7,35592.6,1.3923,1.4499,135.5,96.1,0.555
23.96,32457.6,35692.5,1.9075,1.6952,135.5,96.1,0.555
23.98,32368.3,35732.8,1.5362,1.7941,135.5,96.1,0.555
24.0,32324.6,35509.2,1.3543,1.2452,135.5,96.1,0.555
24.02,32106.9,35445.4,0.4487,1.0884,135.5,96.1,0.555
24.04,32058.2,35206.0,0.2462,0.5006,135.5,96.1,0.555
24.06,32117.1,35106.3,0.4913,0.2558,135.5,96.1,0.555
24.08,32009.2,35043.9,0.0423,0.1025,135.5,96.1,0.555
24.1,32057.2,35005.1,0.2422,0.0073,135.5,96.1,0.555
24.12,31977.0,34889.3,-0.0914,-0.2771,135.5,96.1,0.555
24.14,31856.5,34932.2,-0.5929,-0.1718,135.5,96.1,0.555
24.16,31909.4,34680.2,-0.3729,-0.7905,135.5,96.1,0.555
24.18,31809.0,34622.5,-0.7905,-0.9321,135.5,96.1,0.555
24.2,31926.1,34713.0,-0.3031,-0.71,135.5,96.1,0.555
24.22,31920.5,34707.5,-0.3267,-0.7234,135.5,96.1,0.555
24.24,31737.3,34628.2,-1.0887,-0.9183,135.5,96.1,0.555
24.26,31747.1,34493.9,-1.0481,-1.2479,135.5,96.1,0.555
24.28,31599.9,34404.7,-1.6603,-1.4671,135.5,96.1,0.555
24.3,31746.6,34450.7,-1.0498,-1.3541,135.5,96.1,0.555
24.32,31796.5,34518.6,-0.8422,-1.1874,135.5,96.1,0.555
24.34,31944.1,34918.3,-0.2286,-0.2058,135.5,96.1,0.555
24.36,32236.0,35282.6,0.9857,0.6886,135.5,96.1,0.555
24.38,32325.3,35572.7,1.3574,1.4011,135.5,96.1,0.555
24.4,32382.4,35764.1,1.5949,1.8711,135.5,96.1,0.555
24.42,32350.0,35755.6,1.4602,1.8501,135.5,96.1,0.555
24.44,32385.8,35644.6,1.6092,1.5775,135.5,96.1,0.555
24.46,32168.6,35462.1,0.7056,1.1295,135.5,96.1,0.555
24.48,32109.7,35287.9,0.4602,0.7016,135.5,96.1,0.555
24.5,32040.9,35120.0,0.1743,0.2894,135.5,96.1,0.555
24.52,32099.9,35093.4,0.4197,0.2242,135.5,96.1,0.555
24.54,32074.0,35053.3,0.3119,0.1257,135.5,96.1,0.555
24.56,31934.0,34860.9,-0.2704,-0.3468,135.5,96.1,0.555
24.58,31923.8,34888.0,-0.313,-0.2802,135.5,96.1,0.555
24.6,31802.0,34829.5,-0.8195,-0.424,135.5,96.1,0.555
24.62,31773.1,34627.7,-0.9398,-0.9194,135.5,96.1,0.555
24.64,31876.9,34675.8,-0.508,-0.8012,135.5,96.1,0.555
24.66,31806.4,34607.6,-0.8013,-0.9689,135.5,96.1,0.555
24.68,31836.6,34646.8,-0.6756,-0.8724,135.5,96.1,0.555
24.7,31736.2,34527.7,-1.0932,-1.1649,135.5,96.1,0.555
24.72,31750.6,34387.4,-1.0332,-1.5096,135.5,96.1,0.555
24.74,31637.9,34513.9,-1.5024,-1.1989,135.5,96.1,0.555
24.76,31725.7,34542.7,-1.137,-1.1282,135.5,96.1,0.555
24.78,31947.5,34863.7,-0.2144,-0.34,135.5,96.1,0.555
24.8,32123.9,35279.5,0.5195,0.6812,135.5,96.1,0.555
24.82,32178.0,35429.4,0.7444,1.0492,135.5,96.1,0.555
24.84,32321.1,35694.7,1.34,1.7005,135.5,96.1,0.555
24.86,32370.4,35699.0,1.5449,1.7112,135.5,96.1,0.555
24.88,32269.3,35656.0,1.1244,1.6055,135.5,96.1,0.555
24.9,32226.5,35486.2,0.9463,1.1885,135.5,96.1,0.555
24.92,32171.5,35269.9,0.7174,0.6575,135.5,96.1,0.555
24.94,32085.7,35151.2,0.3608,0.3659,135.5,96.1,0.555
24.96,32001.5,35092.2,0.0104,0.2211,135.5,96.1,0.555
24.98,32031.7,35035.7,0.1358,0.0825,135.5,96.1,0.555
25.0,32047.1,35006.9,0.1999,0.0117,135.5,96.1,0.555
25.02,31927.4,34841.4,-0.2978,-0.3946,135.5,96.1,0.555
25.04,31973.0,34881.6,-0.1082,-0.2959,135.5,96.1,0.555
25.06,31866.6,34802.7,-0.5509,-0.4897,135.5,96.1,0.555
25.08,31876.9,34737.0,-0.5081,-0.6511,135.5,96.1,0.555
25.1,31801.9,34696.0,-0.8198,-0.7516,135.5,96.1,0.555
25.12,31800.1,34659.7,-0.8274,-0.8409,135.5,96.1,0.555
25.14,31783.6,34598.2,-0.896,-0.9919,135.5,96.1,0.555
25.16,31707.0,34459.5,-1.2149,-1.3325,135.5,96.1,0.555
25.18,31705.0,34539.1,-1.2231,-1.137,135.5,96.1,0.555
25.2,31803.0,34656.0,-0.8152,-0.85,135.5,96.1,0.555
25.22,31804.7,34781.7,-0.8082,-0.5413,135.5,96.1,0.555
25.24,32098.4,35092.8,0.4136,0.2227,135.5,96.1,0.555
25.26,32241.3,35419.6,1.0077,1.0251,135.5,96.1,0.555
25.28,32415.3,35707.9,1.7319,1.7331,135.5,96.1,0.555
25.3,32367.9,35748.1,1.5345,1.8317,135.5,96.1,0.555
25.32,32326.6,35638.8,1.3628,1.5635,135.5,96.1,0.555
25.34,32255.9,35522.6,1.0686,1.278,135.5,96.1,0.555
25.36,32098.6,35208.2,0.4142,0.5061,135.5,96.1,0.555
25.38,32092.8,35132.7,0.3903,0.3207,135.5,96.1,0.555
25.4,32049.1,35134.9,0.2082,0.3261,135.5,96.1,0.555
25.42,32017.3,34951.1,0.0762,-0.1253,135.5,96.1,0.555
25.44,31983.6,35143.1,-0.064,0.3462,135.5,96.1,0.555
25.46,31958.6,34926.1,-0.1682,-0.1868,135.5,96.1,0.555
25.48,31830.8,34818.4,-0.6998,-0.4511,135.5,96.1,0.555
25.5,31858.1,34764.7,-0.5862,-0.583,135.5,96.1,0.555
25.52,31866.6,34708.4,-0.5508,-0.7213,135.5,96.1,0.555
25.54,31822.1,34685.1,-0.7361,-0.7785,135.5,96.1,0.555
25.56,31847.8,34637.0,-0.6289,-0.8966,135.5,96.1,0.555
25.58,31735.8,34663.0,-1.0951,-0.8327,135.5,96.1,0.555
25.6,31762.2,34470.3,-0.9851,-1.3059,135.5,96.1,0.555
25.62,31692.3,34525.5,-1.2761,-1.1704,135.5,96.1,0.555
25.64,31803.8,34523.8,-0.8122,-1.1747,135.5,96.1,0.555
25.66,31928.3,34699.5,-0.2943,-0.7431,135.5,96.1,0.555
25.68,32061.0,35059.7,0.2577,0.1413,135.5,96.1,0.555
25.7,32271.9,35453.6,1.1352,1.1086,135.5,96.1,0.555
25.72,32361.0,35654.9,1.5058,1.603,135.5,96.1,0.555
25.74,32309.0,35771.5,1.2897,1.8891,135.5,96.1,0.555
25.76,32401.9,35656.9,1.6759,1.6077,135.5,96.1,0.555
25.78,32284.3,35586.2,1.1866,1.4342,135.5,96.1,0.555
25.8,32207.8,35262.9,0.8687,0.6403,135.5,96.1,0.555
25.82,32098.9,35260.7,0.4154,0.6349,135.5,96.1,0.555
25.84,32126.6,35150.2,0.5309,0.3635,135.5,96.1,0.555
25.86,32032.0,35067.6,0.1372,0.1607,135.5,96.1,0.555
25.88,31980.5,35032.2,-0.0769,0.0739,135.5,96.1,0.555
25.9,31926.2,34948.1,-0.3029,-0.1328,135.5,96.1,0.555
25.92,32008.1,34840.9,0.0378,-0.3958,135.5,96.1,0.555
25.94,31811.8,34732.7,-0.7786,-0.6616,135.5,96.1,0.555
25.96,31855.0,34707.5,-0.5992,-0.7235,135.5,96.1,0.555
25.98,31859.0,34672.6,-0.5826,-0.8092,135.5,96.1,0.555
26.0,31809.3,34608.0,-0.7893,-0.9679,135.5,96.1,0.555
26.02,31686.9,34626.3,-1.2984,-0.9228,135.5,96.1,0.555
26.04,31818.7,34555.0,-0.7503,-1.0981,135.5,96.1,0.555
26.06,31802.6,34514.6,-0.8168,-1.1971,135.5,96.1,0.555
26.08,31824.5,34510.0,-0.7258,-1.2084,135.5,96.1,0.555
26.1,31876.8,34712.4,-0.5086,-0.7115,135.5,96.1,0.555
26.12,31972.6,35071.2,-0.1098,0.1697,135.5,96.1,0.555
26.14,32131.1,35327.3,0.5494,0.7985,135.5,96.1,0.555
26.16,32375.7,35645.9,1.567,1.5807,135.5,96.1,0.555
26.18,32399.8,35834.4,1.6673,2.0436,135.5,96.1,0.555
26.2,32322.0,35689.6,1.3437,1.688,135.5,96.1,0.555
26.22,32209.4,35569.6,0.8751,1.3935,135.5,96.1,0.555
26.24,32123.2,35348.0,0.5167,0.8494,135.5,96.1,0.555
26.26,32086.7,35153.4,0.3649,0.3714,135.5,96.1,0.555
26.28,32059.6,35021.6,0.2519,0.0478,135.5,96.1,0.555
26.3,32025.6,34998.1,0.1108,-0.0099,135.5,96.1,0.555
26.32,32031.6,35034.0,0.1354,0.0781,135.5,96.1,0.555
26.34,31947.8,34956.6,-0.2132,-0.1117,135.5,96.1,0.555
26.36,31932.4,34785.7,-0.277,-0.5314,135.5,96.1,0.555
26.38,31878.2,34755.8,-0.5024,-0.605,135.5,96.1,0.555
26.4,31926.6,34656.3,-0.3011,-0.8492,135.5,96.1,0.555
26.42,31821.5,34724.8,-0.7384,-0.681,135.5,96.1,0.555
26.44,31792.2,34647.3,-0.8602,-0.8712,135.5,96.1,0.555
26.46,31838.1,34546.8,-0.6695,-1.118,135.5,96.1,0.555
26.48,31745.7,34566.6,-1.0536,-1.0694,135.5,96.1,0.555
26.5,31695.6,34432.4,-1.2621,-1.3991,135.5,96.1,0.555
26.52,31729.7,34482.3,-1.1205,-1.2765,135.5,96.1,0.555
26.54,31828.7,34695.3,-0.7083,-0.7534,135.5,96.1,0.555
26.56,32008.3,35032.3,0.0387,0.0742,135.5,96.1,0.555
26.58,32150.4,35256.2,0.6299,0.6238,135.5,96.1,0.555
26.6,32367.2,35622.5,1.5314,1.5234,135.5,96.1,0.555
26.62,32387.3,35737.5,1.6152,1.8058,135.5,96.1,0.555
26.64,32334.7,35646.0,1.3965,1.581,135.5,96.1,0.555
26.66,32274.8,35459.3,1.147,1.1225,135.5,96.1,0.555
26.68,32118.3,35379.3,0.4961,0.9261,135.5,96.1,0.555
26.7,32141.6,35299.4,0.5932,0.73,135.5,96.1,0.555
26.72,32044.2,35098.1,0.1878,0.2356,135.5,96.1,0.555
26.74,32015.0,35146.4,0.0663,0.3542,135.5,96.1,0.555
26.76,32029.0,35072.2,0.1246,0.1721,135.5,96.1,0.555
26.78,31937.7,34910.6,-0.255,-0.2248,135.5,96.1,0.555
26.8,31940.4,34869.5,-0.2438,-0.3257,135.5,96.1,0.555
26.82,31861.9,34744.1,-0.5704,-0.6335,135.5,96.1,0.555
26.84,31792.8,34668.1,-0.8577,-0.8202,135.5,96.1,0.555
26.86,31778.7,34613.5,-0.9165,-0.9542,135.5,96.1,0.555
26.88,31848.5,34631.1,-0.626,-0.911,135.5,96.1,0.555
26.9,31815.7,34691.0,-0.7628,-0.7641,135.5,96.1,0.555
26.92,31698.0,34481.5,-1.2521,-1.2784,135.5,96.1,0.555
26.94,31791.8,34491.2,-0.8621,-1.2546,135.5,96.1,0.555
26.96,31620.4,34453.0,-1.5748,-1.3485,135.5,96.1,0.555
26.98,31765.8,34651.9,-0.97,-0.8601,135.5,96.1,0.555
27.0,31870.1,34860.1,-0.5361,-0.3488,135.5,96.1,0.555
27.02,32160.5,35320.8,0.6716,0.7826,135.5,96.1,0.555
27.04,32330.9,35609.5,1.3808,1.4915,135.5,96.1,0.555
27.06,32311.8,35797.3,1.301,1.9527,135.5,96.1,0.555
27.08,32363.6,35737.7,1.5166,1.8063,135.5,96.1,0.555
27.1,32292.9,35635.2,1.2227,1.5546,135.5,96.1,0.555
27.12,32216.2,35367.6,0.9033,0.8975,135.5,96.1,0.555
27.14,32184.4,35258.8,0.7712,0.6304,135.5,96.1,0.555
27.16,32088.6,35147.7,0.3728,0.3575,135.5,96.1,0.555
27.18,32035.4,35199.0,0.1512,0.4834,135.5,96.1,0.555
27.2,31950.1,35035.9,-0.2033,0.083,135.5,96.1,0.555
27.22,31956.3,34941.7,-0.1778,-0.1485,135.5,96.1,0.555
27.24,32005.6,34820.0,0.0273,-0.4472,135.5,96.1,0.555
27.26,31806.9,34850.6,-0.799,-0.3722,135.5,96.1,0.555
27.28,31822.1,34706.0,-0.7358,-0.7271,135.5,96.1,0.555
27.3,31840.6,34666.5,-0.6589,-0.8241,135.5,96.1,0.555
27.32,31819.2,34739.2,-0.748,-0.6457,135.5,96.1,0.555
27.34,31779.3,34588.5,-0.9141,-1.0156,135.5,96.1,0.555
27.36,31813.6,34563.0,-0.7712,-1.0782,135.5,96.1,0.555
27.38,31655.2,34444.4,-1.4304,-1.3696,135.5,96.1,0.555
27.4,31762.9,34474.4,-0.9822,-1.2958,135.5,96.1,0.555
27.42,31774.8,34578.8,-0.9325,-1.0395,135.5,96.1,0.555
27.44,31958.8,34809.0,-0.1672,-0.4743,135.5,96.1,0.555
27.46,32167.4,35240.3,0.7003,0.5848,135.5,96.1,0.555
27.48,32332.5,35409.8,1.3874,1.001,135.5,96.1,0.555
27.5,32337.1,35763.6,1.4065,1.8697,135.5,96.1,0.555
27.52,32421.9,35762.9,1.7591,1.868,135.5,96.1,0.555
27.54,32281.3,35642.9,1.1743,1.5733,135.5,96.1,0.555
27.56,32243.5,35389.5,1.0172,0.9511,135.5,96.1,0.555
27.58,32119.4,35182.5,0.5009,0.4429,135.5,96.1,0.555
27.6,32022.1,35087.7,0.0962,0.2102,135.5,96.1,0.555
27.62,32066.6,35160.5,0.2811,0.3889,135.5,96.1,0.555
27.64,32109.6,35101.7,0.4599,0.2446,135.5,96.1,0.555
27.66,31940.1,34970.4,-0.2451,-0.0779,135.5,96.1,0.555
27.68,31922.9,34954.9,-0.3164,-0.1159,135.5,96.1,0.555
27.7,31839.4,34783.3,-0.6639,-0.5374,135.5,96.1,0.555
27.72,31798.6,34729.1,-0.8337,-0.6704,135.5,96.1,0.555
27.74,31862.6,34721.6,-0.5675,-0.6888,135.5,96.1,0.555
27.76,31820.0,34666.0,-0.7448,-0.8254,135.5,96.1,0.555
27.78,31795.1,34599.7,-0.8484,-0.9882,135.5,96.1,0.555
27.8,31777.5,34517.4,-0.9216,-1.1902,135.5,96.1,0.555
27.82,31703.3,34414.6,-1.2303,-1.4427,135.5,96.1,0.555
27.84,31691.4,34457.7,-1.2795,-1.3369,135.5,96.1,0.555
27.86,31798.2,34641.0,-0.8352,-0.8867,135.5,96.1,0.555
27.88,31904.7,34794.8,-0.3923,-0.5091,135.5,96.1,0.555
27.9,32091.7,35182.2,0.3856,0.4421,135.5,96.1,0.555
27.92,32274.4,35578.1,1.1458,1.4142,135.5,96.1,0.555
27.94,32383.5,35751.7,1.5993,1.8407,135.5,96.1,0.555
27.96,32445.8,35770.4,1.8587,1.8866,135.5,96.1,0.555
27.98,32296.7,35646.0,1.2384,1.581,135.5,96.1,0.555
28.0,32204.1,35447.3,0.8532,1.0931,135.5,96.1,0.555
28.02,32248.1,35263.1,1.0361,0.6408,135.5,96.1,0.555
28.04,31971.4,35153.3,-0.1151,0.3713,135.5,96.1,0.555
28.06,32076.0,35134.7,0.3202,0.3255,135.5,96.1,0.555
28.08,32126.2,35116.8,0.529,0.2816,135.5,96.1,0.555
28.1,32064.8,35024.3,0.2735,0.0543,135.5,96.1,0.555
28.12,31867.8,34749.1,-0.5459,-0.6214,135.5,96.1,0.555
28.14,31879.9,34740.7,-0.4956,-0.6421,135.5,96.1,0.555
28.16,31853.6,34688.7,-0.605,-0.7696,135.5,96.1,0.555
28.18,31756.9,34673.0,-1.007,-0.8081,135.5,96.1,0.555
28.2,31826.1,34590.0,-0.7195,-1.0119,135.5,96.1,0.555
28.22,31806.3,34569.5,-0.8016,-1.0623,135.5,96.1,0.555
28.24,31699.2,34516.9,-1.2474,-1.1915,135.5,96.1,0.555
28.26,31674.0,34375.5,-1.3522,-1.5387,135.5,96.1,0.555
28.28,31762.3,34536.7,-0.9846,-1.143,135.5,96.1,0.555
28.3,31838.3,34643.6,-0.6686,-0.8804,135.5,96.1,0.555
28.32,31947.3,34711.9,-0.2152,-0.7127,135.5,96.1,0.555
28.34,32132.2,35108.2,0.554,0.2604,135.5,96.1,0.555
28.36,32265.6,35513.0,1.1089,1.2544,135.5,96.1,0.555
28.38,32405.1,35802.1,1.6894,1.9643,135.5,96.1,0.555
28.4,32444.5,35748.0,1.8533,1.8315,135.5,96.1,0.555
28.42,32380.8,35703.2,1.588,1.7215,135.5,96.1,0.555
28.44,32268.3,35446.0,1.1203,1.0898,135.5,96.1,0.555
28.46,32152.9,35277.2,0.6402,0.6754,135.5,96.1,0.555
28.48,32063.3,35311.3,0.2674,0.7592,135.5,96.1,0.555
28.5,31971.7,35068.4,-0.1135,0.1626,135.5,96.1,0.555
28.52,31967.3,35159.2,-0.132,0.3856,135.5,96.1,0.555
28.54,31998.9,35035.6,-0.0005,0.0822,135.5,96.1,0.555
28.56,31889.2,34930.1,-0.457,-0.1768,135.5,96.1,0.555
28.58,32054.2,34741.8,0.2295,-0.6393,135.5,96.1,0.555
28.6,31728.4,34647.6,-1.1256,-0.8705,135.5,96.1,0.555
28.62,31767.0,34645.1,-0.965,-0.8768,135.5,96.1,0.555
28.64,31807.9,34692.4,-0.795,-0.7606,135.5,96.1,0.555
28.66,31901.0,34640.8,-0.4078,-0.8873,135.5,96.1,0.555
28.68,31652.6,34572.9,-1.4409,-1.0539,135.5,96.1,0.555
28.7,31726.5,34538.2,-1.1335,-1.1391,135.5,96.1,0.555
28.72,31812.1,34506.6,-0.7776,-1.2169,135.5,96.1,0.555
28.74,31742.9,34594.3,-1.0653,-1.0015,135.5,96.1,0.555
28.76,31874.6,34801.6,-0.5174,-0.4923,135.5,96.1,0.555
28.78,32122.1,35064.8,0.5122,0.154,135.5,96.1,0.555
28.8,32151.3,35367.3,0.6334,0.8966,135.5,96.1,0.555
28.82,32377.6,35654.2,1.575,1.6011,135.5,96.1,0.555
28.84,32479.4,35636.1,1.9983,1.5567,135.5,96.1,0.555
28.86,32346.1,35734.8,1.444,1.799,135.5,96.1,0.555
28.88,32267.1,35535.5,1.1151,1.3096,135.5,96.1,0.555
28.9,32191.5,35332.9,0.8007,0.8121,135.5,96.1,0.555
28.92,32113.0,35182.5,0.474,0.4428,135.5,96.1,0.555
28.94,32028.7,35068.8,0.1234,0.1638,135.5,96.1,0.555
28.96,32011.8,35059.7,0.0532,0.1414,135.5,96.1,0.555
28.98,31926.3,34969.1,-0.3023,-0.081,135.5,96.1,0.555
29.0,31966.7,34866.4,-0.1344,-0.3332,135.5,96.1,0.555
29.02,31973.6,34781.1,-0.1057,-0.5427,135.5,96.1,0.555
29.04,31819.8,34732.6,-0.7453,-0.6617,135.5,96.1,0.555
29.06,31746.1,34750.7,-1.0522,-0.6175,135.5,96.1,0.555
29.08,31794.5,34749.8,-0.8508,-0.6195,135.5,96.1,0.555
29.1,31727.3,34639.5,-1.1303,-0.8904,135.5,96.1,0.555
29.12,31827.1,34552.5,-0.715,-1.104,135.5,96.1,0.555
29.14,31778.9,34596.0,-0.9157,-0.9972,135.5,96.1,0.555
29.16,31669.6,34356.9,-1.3701,-1.5843,135.5,96.1,0.555
29.18,31842.6,34573.5,-0.6508,-1.0526,135.5,96.1,0.555
29.2,31914.8,34706.3,-0.3504,-0.7264,135.5,96.1,0.555
29.22,32021.6,34996.6,0.094,-0.0135,135.5,96.1,0.555
29.24,32200.9,35317.2,0.8399,0.7737,135.5,96.1,0.555
29.26,32299.5,35678.0,1.2501,1.6595,135.5,96.1,0.555
29.28,32404.2,35788.0,1.6856,1.9297,135.5,96.1,0.555
29.3,32366.5,35707.0,1.5288,1.7308,135.5,96.1,0.555
29.32,32298.3,35507.6,1.245,1.2411,135.5,96.1,0.555
29.34,32139.9,35291.2,0.5862,0.7097,135.5,96.1,0.555
29.36,32082.5,35254.8,0.3474,0.6206,135.5,96.1,0.555
29.38,32101.4,35149.9,0.426,0.3629,135.5,96.1,0.555
29.4,32084.3,35069.2,0.3548,0.1648,135.5,96.1,0.555
29.42,32017.8,35029.9,0.0781,0.0681,135.5,96.1,0.555
29.44,31912.1,34874.6,-0.3616,-0.3132,135.5,96.1,0.555
29.46,32004.4,34798.7,0.0224,-0.4995,135.5,96.1,0.555
29.48,31887.9,34726.5,-0.4621,-0.6768,135.5,96.1,0.555
29.5,31783.6,34686.1,-0.8961,-0.7761,135.5,96.1,0.555
29.52,31743.9,34703.7,-1.0613,-0.7327,135.5,96.1,0.555
29.54,31760.7,34713.8,-0.9914,-0.708,135.5,96.1,0.555
29.56,31805.2,34711.3,-0.8062,-0.7141,135.5,96.1,0.555
29.58,31736.9,34459.4,-1.0904,-1.3328,135.5,96.1,0.555
29.6,31750.4,34490.7,-1.0341,-1.2559,135.5,96.1,0.555
29.62,31769.0,34583.3,-0.9569,-1.0284,135.5,96.1,0.555
29.64,31836.3,34749.8,-0.677,-0.6196,135.5,96.1,0.555
29.66,32092.6,34945.5,0.3895,-0.1391,135.5,96.1,0.555
29.68,32221.6,35291.1,0.9261,0.7096,135.5,96.1,0.555
29.7,32325.0,35595.4,1.3561,1.4567,135.5,96.1,0.555
29.72,32325.5,35738.7,1.3582,1.8086,135.5,96.1,0.555
29.74,32390.0,35738.0,1.6264,1.8069,135.5,96.1,0.555
29.76,32269.4,35474.3,1.1248,1.1594,135.5,96.1,0.555
29.78,32151.6,35289.1,0.6348,0.7046,135.5,96.1,0.555
29.8,32153.7,35309.0,0.6435,0.7535,135.5,96.1,0.555
29.82,31999.6,35076.1,0.0024,0.1815,135.5,96.1,0.555
29.84,31999.0,35002.1,-0.0002,0.0,135.5,96.1,0.555
29.86,32015.4,35089.6,0.0683,0.2147,135.5,96.1,0.555
29.88,31969.0,34898.1,-0.1249,-0.2554,135.5,96.1,0.555
29.9,31968.5,34846.3,-0.1269,-0.3828,135.5,96.1,0.555
29.92,31830.0,34746.3,-0.7032,-0.6283,135.5,96.1,0.555
29.94,31816.0,34659.9,-0.7612,-0.8403,135.5,96.1,0.555
29.96,31801.0,34556.1,-0.8237,-1.0952,135.5,96.1,0.555
29.98,31864.4,34672.9,-0.5599,-0.8086,135.5,96.1,0.555
30.0,31815.5,34510.6,-0.7634,-1.2069,135.5,96.1,0.555
30.02,31759.2,34518.1,-0.9976,-1.1886,135.5,96.1,0.555
30.04,31733.5,34528.1,-1.1044,-1.164,135.5,96.1,0.555
30.06,31696.6,34516.1,-1.258,-1.1935,135.5,96.1,0.555
30.08,31887.3,34691.4,-0.4646,-0.7629,135.5,96.1,0.555
30.1,31992.9,34986.5,-0.0255,-0.0383,135.5,96.1,0.555
30.12,32213.1,35283.2,0.8904,0.6901,135.5,96.1,0.555
30.14,32223.6,35653.4,0.9341,1.5991,135.5,96.1,0.555
30.16,32411.7,35762.8,1.7169,1.868,135.5,96.1,0.555
30.18,32401.9,35777.7,1.6761,1.9043,135.5,96.1,0.555
30.2,32243.2,35543.4,1.0156,1.3291,135.5,96.1,0.555
30.22,32129.2,35400.0,0.5417,0.9769,135.5,96.1,0.555
30.24,32005.8,35316.9,0.0283,0.7729,135.5,96.1,0.555
30.26,32059.1,35236.8,0.2499,0.5762,135.5,96.1,0.555
30.28,32019.3,35093.9,0.0845,0.2254,135.5,96.1,0.555
30.3,32067.7,35037.1,0.2857,0.086,135.5,96.1,0.555
30.32,31905.8,34933.7,-0.3876,-0.168,135.5,96.1,0.555
30.34,32002.6,34885.9,0.0151,-0.2854,135.5,96.1,0.555
30.36,31830.5,34685.0,-0.701,-0.7787,135.5,96.1,0.555
30.38,31825.7,34625.6,-0.7209,-0.9245,135.5,96.1,0.555
30.4,31818.0,34689.2,-0.753,-0.7685,135.5,96.1,0.555
30.42,31798.3,34658.0,-0.8351,-0.8451,135.5,96.1,0.555
30.44,31782.6,34724.8,-0.9002,-0.6811,135.5,96.1,0.555
30.46,31835.4,34423.1,-0.6805,-1.4218,135.5,96.1,0.555
30.48,31656.0,34444.5,-1.4269,-1.3692,135.5,96.1,0.555
30.5,31709.3,34458.7,-1.2053,-1.3345,135.5,96.1,0.555
30.52,31807.3,34615.1,-0.7975,-0.9504,135.5,96.1,0.555
30.54,31879.5,34857.4,-0.4972,-0.3554,135.5,96.1,0.555
30.56,32050.2,35226.9,0.2128,0.552,135.5,96.1,0.555
30.58,32346.8,35559.6,1.4466,1.3688,135.5,96.1,0.555
30.6,32352.6,35760.1,1.4708,1.8613,135.5,96.1,0.555
30.62,32401.1,35705.8,1.6725,1.7278,135.5,96.1,0.555
30.64,32233.6,35461.4,0.9757,1.1277,135.5,96.1,0.555
30.66,32110.4,35456.5,0.4634,1.1157,135.5,96.1,0.555
30.68,32162.3,35260.1,0.6792,0.6334,135.5,96.1,0.555
30.7,32117.6,35224.3,0.4931,0.5455,135.5,96.1,0.555
30.72,32103.1,35183.7,0.4331,0.4458,135.5,96.1,0.555
30.74,31951.3,34988.4,-0.1984,-0.0337,135.5,96.1,0.555
30.76,32014.6,35020.5,0.0647,0.0451,135.5,96.1,0.555
30.78,31893.7,34822.7,-0.4381,-0.4407,135.5,96.1,0.555
30.8,31922.1,34823.1,-0.32,-0.4397,135.5,96.1,0.555
30.82,31733.9,34677.8,-1.1027,-0.7965,135.5,96.1,0.555
30.84,31773.8,34729.5,-0.9368,-0.6695,135.5,96.1,0.555
30.86,31824.3,34645.3,-0.7269,-0.8763,135.5,96.1,0.555
30.88,31744.0,34549.6,-1.0608,-1.1111,135.5,96.1,0.555
30.9,31751.7,34543.5,-1.0287,-1.1263,135.5,96.1,0.555
30.92,31708.9,34473.1,-1.2068,-1.2991,135.5,96.1,0.555
30.94,31777.3,34462.1,-0.9223,-1.3261,135.5,96.1,0.555
30.96,31851.0,34592.4,-0.6156,-1.006,135.5,96.1,0.555
30.98,31877.5,34924.3,-0.5054,-0.1912,135.5,96.1,0.555
31.0,32065.0,35215.9,0.2746,0.525,135.5,96.1,0.555
31.02,32213.1,35508.1,0.8905,1.2425,135.5,96.1,0.555
31.04,32433.1,35693.9,1.8056,1.6988,135.5,96.1,0.555
31.06,32344.2,35724.5,1.436,1.7737,135.5,96.1,0.555
31.08,32298.8,35636.7,1.2472,1.5583,135.5,96.1,0.555
31.1,32306.1,35507.2,1.2774,1.2402,135.5,96.1,0.555
31.12,32094.0,35210.3,0.3949,0.5112,135.5,96.1,0.555
31.14,32051.9,35138.7,0.2201,0.3353,135.5,96.1,0.555
31.16,32036.1,35058.8,0.1543,0.1391,135.5,96.1,0.555
31.18,31866.5,35081.5,-0.5512,0.1949,135.5,96.1,0.555
31.2,32118.2,34960.5,0.4958,-0.1023,135.5,96.1,0.555
31.22,31893.9,34890.7,-0.4374,-0.2737,135.5,96.1,0.555
31.24,31830.8,34815.4,-0.6997,-0.4586,135.5,96.1,0.555
31.26,31840.6,34623.8,-0.6591,-0.929,135.5,96.1,0.555
31.28,31874.0,34638.8,-0.5199,-0.8923,135.5,96.1,0.555
31.3,31803.5,34631.3,-0.8132,-0.9106,135.5,96.1,0.555
31.32,31747.7,34631.9,-1.0454,-0.9092,135.5,96.1,0.555
31.34,31731.6,34588.2,-1.1125,-1.0163,135.5,96.1,0.555
31.36,31706.0,34580.5,-1.2188,-1.0353,135.5,96.1,0.555
31.38,31753.1,34453.6,-1.0231,-1.3469,135.5,96.1,0.555
31.4,31864.7,34599.0,-0.5586,-0.9898,135.5,96.1,0.555
31.42,31906.3,34756.1,-0.3857,-0.6043,135.5,96.1,0.555
31.44,32047.0,35157.6,0.1996,0.3817,135.5,96.1,0.555
31.46,32247.0,35375.3,1.0317,0.9163,135.5,96.1,0.555
31.48,32394.3,35722.2,1.6442,1.7682,135.5,96.1,0.555
31.5,32299.0,35678.5,1.2479,1.6609,135.5,96.1,0.555
31.52,32413.7,35696.5,1.7252,1.705,135.5,96.1,0.555
31.54,32230.7,35502.6,0.9637,1.2288,135.5,96.1,0.555
31.56,32109.9,35357.9,0.4613,0.8735,135.5,96.1,0.555
31.58,31973.4,35167.3,-0.1064,0.4055,135.5,96.1,0.555
31.6,32119.2,35064.9,0.5001,0.1542,135.5,96.1,0.555
31.62,32016.5,35131.6,0.0726,0.318,135.5,96.1,0.555
31.64,32007.5,34933.7,0.0352,-0.1679,135.5,96.1,0.555
31.66,31939.6,34832.6,-0.247,-0.4164,135.5,96.1,0.555
31.68,31885.4,34815.0,-0.4725,-0.4595,135.5,96.1,0.555
31.7,31930.0,34670.3,-0.287,-0.8148,135.5,96.1,0.555
31.72,31829.5,34699.2,-0.7051,-0.7439,135.5,96.1,0.555
31.74,31812.1,34746.2,-0.7775,-0.6285,135.5,96.1,0.555
31.76,31751.8,34703.9,-1.0285,-0.7323,135.5,96.1,0.555
31.78,31754.1,34593.7,-1.0186,-1.0029,135.5,96.1,0.555
31.8,31727.6,34471.6,-1.129,-1.3027,135.5,96.1,0.555
31.82,31669.9,34399.1,-1.369,-1.4807,135.5,96.1,0.555
31.84,31864.1,34463.9,-0.5613,-1.3216,135.5,96.1,0.555
31.86,31810.1,34744.8,-0.7859,-0.632,135.5,96.1,0.555
31.88,31967.9,35108.4,-0.1296,0.2609,135.5,96.1,0.555
31.9,32116.6,35376.7,0.4892,0.9198,135.5,96.1,0.555
31.92,32309.5,35624.4,1.2917,1.5281,135.5,96.1,0.555
31.94,32434.6,35801.4,1.8118,1.9627,135.5,96.1,0.555
31.96,32416.9,35737.6,1.7382,1.8061,135.5,96.1,0.555
31.98,32190.6,35556.7,0.797,1.3617,135.5,96.1,0.555
32.0,32153.5,35394.9,0.6425,0.9644,135.5,96.1,0.555
32.02,32129.5,35232.2,0.5429,0.5649,135.5,96.1,0.555
32.04,32045.7,35082.2,0.1942,0.1966,135.5,96.1,0.555
32.06,31989.0,35098.4,-0.0418,0.2364,135.5,96.1,0.555
32.08,32041.3,34971.4,0.176,-0.0756,135.5,96.1,0.555
32.1,31967.9,34870.9,-0.1294,-0.3222,135.5,96.1,0.555
32.12,31842.8,34749.2,-0.6496,-0.6211,135.5,96.1,0.555
32.14,31841.4,34697.3,-0.6555,-0.7484,135.5,96.1,0.555
32.16,31894.2,34663.1,-0.4358,-0.8324,135.5,96.1,0.555
32.18,31732.7,34678.0,-1.1076,-0.7959,135.5,96.1,0.555
32.2,31803.7,34728.1,-0.8124,-0.673,135.5,96.1,0.555
32.22,31897.4,34595.8,-0.4227,-0.9978,135.5,96.1,0.555
32.24,31721.6,34422.8,-1.1541,-1.4225,135.5,96.1,0.555
32.26,31731.6,34516.8,-1.1122,-1.1918,135.5,96.1,0.555
32.28,31718.1,34495.1,-1.1685,-1.2451,135.5,96.1,0.555
32.3,31768.7,34747.6,-0.9581,-0.6251,135.5,96.1,0.555
32.32,32095.0,35140.4,0.3991,0.3396,135.5,96.1,0.555
32.34,32205.5,35387.9,0.8591,0.9472,135.5,96.1,0.555
32.36,32319.9,35630.2,1.335,1.5424,135.5,96.1,0.555
32.38,32291.1,35766.3,1.2149,1.8765,135.5,96.1,0.555
32.4,32371.4,35689.2,1.5492,1.687,135.5,96.1,0.555
32.42,32225.5,35440.0,0.9421,1.0752,135.5,96.1,0.555
32.44,32261.3,35382.3,1.0909,0.9334,135.5,96.1,0.555
32.46,32112.0,35111.6,0.4701,0.2689,135.5,96.1,0.555
32.48,32054.4,35219.6,0.2306,0.5341,135.5,96.1,0.555
32.5,32000.0,35141.0,0.004,0.341,135.5,96.1,0.555
32.52,31988.0,35049.2,-0.046,0.1157,135.5,96.1,0.555
32.54,31915.5,34949.3,-0.3475,-0.1298,135.5,96.1,0.555
32.56,31972.4,34740.1,-0.1108,-0.6435,135.5,96.1,0.555
32.58,31822.2,34778.3,-0.7356,-0.5496,135.5,96.1,0.555
32.6,31877.2,34664.3,-0.5066,-0.8296,135.5,96.1,0.555
32.62,31784.6,34653.0,-0.8919,-0.8574,135.5,96.1,0.555
32.64,31824.6,34596.1,-0.7256,-0.9971,135.5,96.1,0.555
32.66,31772.7,34654.1,-0.9416,-0.8546,135.5,96.1,0.555
32.68,31680.4,34474.2,-1.3255,-1.2964,135.5,96.1,0.555
32.7,31710.6,34467.5,-1.2,-1.3128,135.5,96.1,0.555
32.72,31632.3,34473.6,-1.5256,-1.2978,135.5,96.1,0.555
32.74,31799.2,34683.4,-0.8313,-0.7828,135.5,96.1,0.555
32.76,32021.5,34910.9,0.0937,-0.2239,135.5,96.1,0.555
32.78,32157.9,35417.0,0.6608,1.0188,135.5,96.1,0.555
32.8,32409.2,35660.5,1.7064,1.6168,135.5,96.1,0.555
32.82,32381.9,35723.3,1.5929,1.7709,135.5,96.1,0.555
32.84,32373.4,35793.5,1.5573,1.9433,135.5,96.1,0.555
32.86,32229.7,35610.9,0.9595,1.4949,135.5,96.1,0.555
32.88,32220.4,35394.2,0.921,0.9627,135.5,96.1,0.555
32.9,32073.0,35158.8,0.3077,0.3847,135.5,96.1,0.555
32.92,32050.2,35131.1,0.2131,0.3168,135.5,96.1,0.555
32.94,31982.8,34988.9,-0.0673,-0.0325,135.5,96.1,0.555
32.96,32031.1,35000.1,0.1336,-0.0049,135.5,96.1,0.555
32.98,31892.2,34992.3,-0.4441,-0.024,135.5,96.1,0.555
33.0,31938.4,34790.1,-0.2521,-0.5208,135.5,96.1,0.555
33.02,31838.2,34718.6,-0.6691,-0.6963,135.5,96.1,0.555
33.04,31878.8,34667.5,-0.4999,-0.8216,135.5,96.1,0.555
33.06,31868.0,34709.0,-0.545,-0.7198,135.5,96.1,0.555
33.08,31735.6,34603.0,-1.0957,-0.9801,135.5,96.1,0.555
33.1,31842.2,34640.8,-0.6522,-0.8872,135.5,96.1,0.555
33.12,31664.5,34551.9,-1.3915,-1.1054,135.5,96.1,0.555
33.14,31797.3,34393.8,-0.839,-1.4938,135.5,96.1,0.555
33.16,31700.9,34505.8,-1.24,-1.2188,135.5,96.1,0.555
33.18,31855.7,34655.4,-0.5961,-0.8513,135.5,96.1,0.555
33.2,31978.6,34831.1,-0.0851,-0.42,135.5,96.1,0.555
33.22,32114.5,35291.5,0.4803,0.7106,135.5,96.1,0.555
33.24,32320.3,35514.7,1.3364,1.2585,135.5,96.1,0.555
33.26,32400.4,35688.3,1.6698,1.6848,135.5,96.1,0.555
33.28,32221.0,35779.3,0.9236,1.9084,135.5,96.1,0.555
33.3,32243.0,35657.9,1.0149,1.6103,135.5,96.1,0.555
33.32,32127.3,35337.8,0.5335,0.8242,135.5,96.1,0.555
33.34,32135.2,35234.9,0.5666,0.5715,135.5,96.1,0.555
33.36,32045.2,35159.4,0.192,0.3861,135.5,96.1,0.555
33.38,32066.5,35100.8,0.2806,0.2422,135.5,96.1,0.555
33.4,32049.0,35044.7,0.2079,0.1045,135.5,96.1,0.555
33.42,32028.8,34912.2,0.1241,-0.2209,135.5,96.1,0.555
33.44,31935.4,34870.6,-0.2648,-0.323,135.5,96.1,0.555
33.46,31856.2,34820.9,-0.5943,-0.4451,135.5,96.1,0.555
33.48,31859.9,34686.7,-0.5787,-0.7746,135.5,96.1,0.555
33.5,31765.5,34698.4,-0.9712,-0.7457,135.5,96.1,0.555
33.52,31845.3,34627.5,-0.6395,-0.92,135.5,96.1,0.555
33.54,31735.7,34597.7,-1.0952,-0.9932,135.5,96.1,0.555
33.56,31792.4,34511.5,-0.8596,-1.2049,135.5,96.1,0.555
33.58,31769.1,34410.5,-0.9564,-1.4529,135.5,96.1,0.555
33.6,31686.8,34510.2,-1.2989,-1.2079,135.5,96.1,0.555
33.62,31762.7,34664.9,-0.9829,-0.828,135.5,96.1,0.555
33.64,31977.8,34856.2,-0.0882,-0.3584,135.5,96.1,0.555
33.66,32158.8,35311.3,0.6648,0.7591,135.5,96.1,0.555
33.68,32259.8,35578.7,1.0848,1.4159,135.5,96.1,0.555
33.7,32291.5,35816.4,1.2169,1.9994,135.5,96.1,0.555
33.72,32355.8,35704.7,1.4842,1.7252,135.5,96.1,0.555
33.74,32359.8,35729.9,1.501,1.787,135.5,96.1,0.555
33.76,32180.9,35381.7,0.7567,0.932,135.5,96.1,0.555
33.78,32123.4,35182.4,0.5174,0.4426,135.5,96.1,0.555
33.8,32119.0,35104.2,0.499,0.2507,135.5,96.1,0.555
33.82,32100.6,35177.9,0.4225,0.4317,135.5,96.1,0.555
33.84,32061.3,35062.0,0.2591,0.147,135.5,96.1,0.555
33.86,31953.9,34992.5,-0.1876,-0.0237,135.5,96.1,0.555
33.88,31958.7,34977.3,-0.1678,-0.0609,135.5,96.1,0.555
33.9,31912.2,34763.3,-0.3612,-0.5865,135.5,96.1,0.555
33.92,31901.8,34777.8,-0.4043,-0.5508,135.5,96.1,0.555
33.94,31823.6,34669.9,-0.7298,-0.8159,135.5,96.1,0.555
33.96,31897.6,34664.2,-0.422,-0.8298,135.5,96.1,0.555
33.98,31785.9,34540.2,-0.8864,-1.1343,135.5,96.1,0.555
34.0,31776.6,34487.2,-0.925,-1.2643,135.5,96.1,0.555
34.02,31701.1,34448.6,-1.2394,-1.3592,135.5,96.1,0.555
34.04,31715.3,34370.1,-1.1804,-1.552,135.5,96.1,0.555
34.06,31813.5,34590.0,-0.7718,-1.012,135.5,96.1,0.555
34.08,32044.0,34907.5,0.1873,-0.2324,135.5,96.1,0.555
34.1,32112.7,35306.3,0.4729,0.7469,135.5,96.1,0.555
34.12,32292.2,35576.2,1.2198,1.4097,135.5,96.1,0.555
34.14,32342.9,35743.1,1.4307,1.8194,135.5,96.1,0.555
34.16,32417.5,35732.2,1.7406,1.7927,135.5,96.1,0.555
34.18,32381.8,35705.5,1.5922,1.7272,135.5,96.1,0.555
34.2,32211.9,35388.1,0.8854,0.9478,135.5,96.1,0.555
34.22,32058.0,35277.7,0.2455,0.6767,135.5,96.1,0.555
34.24,32014.4,35128.2,0.0639,0.3096,135.5,96.1,0.555
34.26,32107.8,35158.7,0.4527,0.3845,135.5,96.1,0.555
34.28,32037.9,35078.8,0.1617,0.1882,135.5,96.1,0.555
34.3,31932.6,35117.9,-0.2761,0.2842,135.5,96.1,0.555
34.32,31965.3,34865.7,-0.1402,-0.3349,135.5,96.1,0.555
34.34,31789.9,34813.1,-0.8701,-0.4642,135.5,96.1,0.555
34.36,31860.9,34646.0,-0.5744,-0.8745,135.5,96.1,0.555
34.38,31888.0,34583.5,-0.4619,-1.0281,135.5,96.1,0.555
34.4,31830.5,34690.4,-0.701,-0.7655,135.5,96.1,0.555
34.42,31892.1,34632.5,-0.4446,-0.9077,135.5,96.1,0.555
34.44,31727.4,34576.3,-1.1299,-1.0456,135.5,96.1,0.555
34.46,31733.0,34575.5,-1.1065,-1.0476,135.5,96.1,0.555
34.48,31701.7,34507.6,-1.2367,-1.2143,135.5,96.1,0.555
34.5,31773.9,34569.9,-0.9363,-1.0614,135.5,96.1,0.555
34.52,31904.0,34756.3,-0.3953,-0.6037,135.5,96.1,0.555
34.54,32111.7,35180.7,0.4687,0.4385,135.5,96.1,0.555
34.56,32278.3,35545.4,1.162,1.3339,135.5,96.1,0.555
34.58,32299.3,35760.4,1.2492,1.862,135.5,96.1,0.555
34.6,32395.3,35725.0,1.6486,1.775,135.5,96.1,0.555
34.62,32341.5,35630.3,1.4245,1.5426,135.5,96.1,0.555
34.64,32218.5,35433.6,0.913,1.0596,135.5,96.1,0.555
34.66,32256.4,35259.7,1.0707,0.6324,135.5,96.1,0.555
34.68,32082.7,35235.8,0.348,0.5737,135.5,96.1,0.555
34.7,32021.5,35087.2,0.0934,0.2089,135.5,96.1,0.555
34.72,32047.4,35070.6,0.2012,0.1681,135.5,96.1,0.555
34.74,32044.9,34967.4,0.191,-0.0852,135.5,96.1,0.555
34.76,31995.6,34858.3,-0.0144,-0.3532,135.5,96.1,0.555
34.78,31978.8,34813.6,-0.0841,-0.463,135.5,96.1,0.555
34.8,31857.2,34654.2,-0.5898,-0.8543,135.5,96.1,0.555
34.82,31860.5,34692.7,-0.5763,-0.7599,135.5,96.1,0.555
34.84,31874.4,34606.9,-0.5183,-0.9705,135.5,96.1,0.555
34.86,31831.4,34627.2,-0.6974,-0.9208,135.5,96.1,0.555
34.88,31741.0,34573.5,-1.0734,-1.0525,135.5,96.1,0.555
34.9,31758.4,34458.2,-1.0008,-1.3355,135.5,96.1,0.555
34.92,31713.2,34498.7,-1.1888,-1.2361,135.5,96.1,0.555
34.94,31772.2,34495.3,-0.9437,-1.2444,135.5,96.1,0.555
34.96,31791.4,34757.4,-0.8635,-0.601,135.5,96.1,0.555
34.98,32062.2,35165.6,0.2627,0.4015,135.5,96.1,0.555
35.0,32235.3,35388.6,0.9831,0.9491,135.5,96.1,0.555
35.02,32336.2,35613.5,1.4027,1.5013,135.5,96.1,0.555
35.04,32315.0,35697.2,1.3143,1.7068,135.5,96.1,0.555
35.06,32249.7,35631.5,1.0429,1.5453,135.5,96.1,0.555
35.08,32315.8,35594.4,1.3177,1.4543,135.5,96.1,0.555
35.1,32152.9,35389.9,0.6401,0.9522,135.5,96.1,0.555
35.12,32071.5,35192.6,0.3017,0.4676,135.5,96.1,0.555
35.14,32053.7,35098.6,0.2275,0.2368,135.5,96.1,0.555
35.16,32081.4,34899.9,0.3426,-0.2509,135.5,96.1,0.555
35.18,31995.3,34937.1,-0.0155,-0.1598,135.5,96.1,0.555
35.2,31944.0,34925.6,-0.2289,-0.1878,135.5,96.1,0.555
35.22,31852.3,34832.8,-0.6104,-0.4159,135.5,96.1,0.555
35.24,31950.5,34729.9,-0.2018,-0.6685,135.5,96.1,0.555
35.26,31823.2,34650.0,-0.7315,-0.8647,135.5,96.1,0.555
35.28,31847.8,34623.2,-0.6292,-0.9305,135.5,96.1,0.555
35.3,31753.3,34617.1,-1.0223,-0.9455,135.5,96.1,0.555
35.32,31754.2,34649.8,-1.0185,-0.8651,135.5,96.1,0.555
35.34,31734.6,34504.4,-1.1,-1.2222,135.5,96.1,0.555
35.36,31778.4,34442.5,-0.9177,-1.3741,135.5,96.1,0.555
35.38,31828.8,34511.1,-0.7083,-1.2057,135.5,96.1,0.555
35.4,31885.5,34709.3,-0.4723,-0.7189,135.5,96.1,0.555
35.42,32031.9,35104.2,0.1368,0.2506,135.5,96.1,0.555
35.44,32152.0,35374.6,0.6363,0.9147,135.5,96.1,0.555
35.46,32351.7,35689.4,1.4671,1.6876,135.5,96.1,0.555
35.48,32408.9,35860.7,1.7049,2.1083,135.5,96.1,0.555
35.5,32226.2,35738.7,0.9452,1.8086,135.5,96.1,0.555
35.52,32235.3,35496.2,0.9828,1.2133,135.5,96.1,0.555
35.54,32117.5,35338.7,0.4929,0.8266,135.5,96.1,0.555
35.56,31990.4,35180.8,-0.036,0.4388,135.5,96.1,0.555
35.58,32092.6,35102.2,0.3891,0.2458,135.5,96.1,0.555
35.6,32074.9,35029.1,0.3155,0.0661,135.5,96.1,0.555
35.62,32068.0,35037.6,0.2869,0.087,135.5,96.1,0.555
35.64,31830.9,34925.3,-0.6992,-0.1887,135.5,96.1,0.555
35.66,31908.2,34824.2,-0.3776,-0.4368,135.5,96.1,0.555
35.68,31863.2,34702.0,-0.5649,-0.7369,135.5,96.1,0.555
35.7,31870.3,34728.8,-0.5353,-0.6711,135.5,96.1,0.555
35.72,31809.3,34637.1,-0.7893,-0.8964,135.5,96.1,0.555
35.74,31815.1,34704.3,-0.7651,-0.7313,135.5,96.1,0.555
35.76,31780.2,34591.1,-0.9103,-1.0092,135.5,96.1,0.555
35.78,31822.2,34557.3,-0.7356,-1.0922,135.5,96.1,0.555
35.8,31800.5,34432.9,-0.8259,-1.3977,135.5,96.1,0.555
35.82,31701.4,34509.2,-1.2379,-1.2105,135.5,96.1,0.555
35.84,31766.0,34715.0,-0.9695,-0.705,135.5,96.1,0.555
35.86,32005.0,34945.3,0.0248,-0.1396,135.5,96.1,0.555
35.88,32196.3,35383.0,0.8205,0.9353,135.5,96.1,0.555
35.9,32391.8,35638.1,1.634,1.5617,135.5,96.1,0.555
35.92,32379.0,35754.2,1.5806,1.8467,135.5,96.1,0.555
35.94,32341.3,35737.7,1.424,1.8062,135.5,96.1,0.555
35.96,32314.5,35637.0,1.3123,1.559,135.5,96.1,0.555
35.98,32106.7,35319.0,0.4481,0.778,135.5,96.1,0.555
36.0,32223.7,35204.5,0.9346,0.497,135.5,96.1,0.555
36.02,31969.7,35050.7,-0.1218,0.1193,135.5,96.1,0.555
36.04,32152.4,35059.0,0.6381,0.1397,135.5,96.1,0.555
36.06,32075.2,34939.6,0.3167,-0.1537,135.5,96.1,0.555
36.08,31975.8,34952.7,-0.0965,-0.1213,135.5,96.1,0.555
36.1,32024.2,34811.6,0.1048,-0.4678,135.5,96.1,0.555
36.12,31765.3,34775.3,-0.9721,-0.557,135.5,96.1,0.555
36.14,31911.4,34635.3,-0.3644,-0.9007,135.5,96.1,0.555
36.16,31761.3,34753.8,-0.9891,-0.6098,135.5,96.1,0.555
36.18,31833.0,34676.9,-0.6905,-0.7986,135.5,96.1,0.555
36.2,31819.7,34575.8,-0.746,-1.0468,135.5,96.1,0.555
36.22,31789.0,34503.7,-0.8738,-1.224,135.5,96.1,0.555
36.24,31696.1,34472.6,-1.2601,-1.3003,135.5,96.1,0.555
36.26,31769.3,34396.6,-0.9556,-1.4869,135.5,96.1,0.555
36.28,31805.6,34693.1,-0.8046,-0.7588,135.5,96.1,0.555
36.3,31961.6,34857.9,-0.1557,-0.3541,135.5,96.1,0.555
36.32,32214.7,35172.7,0.8971,0.4189,135.5,96.1,0.555
36.34,32296.5,35589.0,1.2374,1.441,135.5,96.1,0.555
36.36,32426.4,35855.9,1.7779,2.0965,135.5,96.1,0.555
36.38,32500.3,35793.2,2.0853,1.9426,135.5,96.1,0.555
36.4,32272.9,35574.2,1.1394,1.4048,135.5,96.1,0.555
36.42,32201.8,35359.3,0.8434,0.877,135.5,96.1,0.555
36.44,32125.4,35193.8,0.5256,0.4705,135.5,96.1,0.555
36.46,32111.8,35158.6,0.4691,0.3841,135.5,96.1,0.555
36.48,32041.4,35031.3,0.1762,0.0715,135.5,96.1,0.555
36.5,32011.9,35071.5,0.0537,0.1703,135.5,96.1,0.555
36.52,31947.0,34934.0,-0.2164,-0.1673,135.5,96.1,0.555
36.54,31875.3,34879.2,-0.5148,-0.3018,135.5,96.1,0.555
36.56,31776.3,34808.2,-0.9263,-0.4763,135.5,96.1,0.555
36.58,31906.2,34658.4,-0.386,-0.8441,135.5,96.1,0.555
36.6,31865.3,34641.8,-0.5563,-0.8849,135.5,96.1,0.555
36.62,31786.7,34681.7,-0.8832,-0.7867,135.5,96.1,0.555
36.64,31787.5,34583.2,-0.88,-1.0287,135.5,96.1,0.555
36.66,31722.3,34577.7,-1.1512,-1.0421,135.5,96.1,0.555
36.68,31729.5,34391.8,-1.121,-1.4987,135.5,96.1,0.555
36.7,31870.4,34467.4,-0.5351,-1.3131,135.5,96.1,0.555
36.72,31855.3,34726.3,-0.5979,-0.6773,135.5,96.1,0.555
36.74,31897.2,34864.6,-0.4236,-0.3378,135.5,96.1,0.555
36.76,32203.8,35265.9,0.8518,0.6476,135.5,96.1,0.555
36.78,32348.3,35644.2,1.4529,1.5765,135.5,96.1,0.555
36.8,32456.4,35697.8,1.9028,1.7082,135.5,96.1,0.555
36.82,32357.4,35765.3,1.4909,1.8739,135.5,96.1,0.555
36.84,32399.3,35600.5,1.6653,1.4693,135.5,96.1,0.555
36.86,32212.5,35393.3,0.888,0.9606,135.5,96.1,0.555
36.88,32229.6,35213.4,0.9592,0.5188,135.5,96.1,0.555
36.9,32044.7,35067.4,0.1902,0.1603,135.5,96.1,0.555
36.92,31971.1,35052.2,-0.1163,0.1229,135.5,96.1,0.555
36.94,32027.1,34989.3,0.1168,-0.0316,135.5,96.1,0.555
36.96,31947.9,34974.5,-0.2125,-0.0679,135.5,96.1,0.555
36.98,31985.6,34846.8,-0.0559,-0.3813,135.5,96.1,0.555
37.0,31924.7,34748.4,-0.3089,-0.6231,135.5,96.1,0.555
37.02,31763.0,34705.1,-0.9819,-0.7293,135.5,96.1,0.555
37.04,31847.0,34648.3,-0.6324,-0.8688,135.5,96.1,0.555
37.06,31759.6,34646.4,-0.9959,-0.8736,135.5,96.1,0.555
37.08,31646.0,34688.5,-1.4687,-0.7701,135.5,96.1,0.555
37.1,31815.2,34544.5,-0.7645,-1.1238,135.5,96.1,0.555
37.12,31712.1,34563.8,-1.1936,-1.0762,135.5,96.1,0.555
37.14,31809.0,34468.8,-0.7905,-1.3096,135.5,96.1,0.555
37.16,31797.6,34542.3,-0.8379,-1.1291,135.5,96.1,0.555
37.18,31956.7,34957.9,-0.1762,-0.1087,135.5,96.1,0.555
37.2,32102.3,35313.8,0.4294,0.7653,135.5,96.1,0.555
37.22,32257.9,35546.6,1.0769,1.3369,135.5,96.1,0.555
37.24,32374.7,35668.8,1.5626,1.6371,135.5,96.1,0.555
37.26,32456.7,35740.6,1.9037,1.8133,135.5,96.1,0.555
37.28,32332.1,35706.0,1.3857,1.7284,135.5,96.1,0.555
37.3,32238.9,35453.6,0.998,1.1086,135.5,96.1,0.555
37.32,32117.8,35229.4,0.494,0.5581,135.5,96.1,0.555
37.34,32040.1,35210.1,0.1709,0.5106,135.5,96.1,0.555
37.36,32033.0,35251.0,0.1414,0.6111,135.5,96.1,0.555
37.38,32033.1,35045.4,0.1419,0.1062,135.5,96.1,0.555
37.4,31994.5,35050.1,-0.0189,0.1178,135.5,96.1,0.555
37.42,31920.4,34938.8,-0.327,-0.1556,135.5,96.1,0.555
37.44,31931.5,34777.0,-0.2807,-0.5528,135.5,96.1,0.555
37.46,31862.3,34673.2,-0.5689,-0.8076,135.5,96.1,0.555
37.48,31811.8,34637.3,-0.7789,-0.8958,135.5,96.1,0.555
37.5,31907.0,34669.4,-0.3828,-0.8171,135.5,96.1,0.555
37.52,31712.1,34605.4,-1.1934,-0.9741,135.5,96.1,0.555
37.54,31746.0,34582.0,-1.0525,-1.0315,135.5,96.1,0.555
37.56,31785.1,34453.8,-0.8899,-1.3464,135.5,96.1,0.555
37.58,31754.6,34409.4,-1.0167,-1.4555,135.5,96.1,0.555
37.6,31749.4,34519.8,-1.0383,-1.1844,135.5,96.1,0.555
37.62,31904.1,34752.5,-0.3949,-0.613,135.5,96.1,0.555
37.64,32133.3,35133.7,0.5588,0.3231,135.5,96.1,0.555
37.66,32221.4,35465.6,0.9249,1.138,135.5,96.1,0.555
37.68,32396.9,35694.4,1.6551,1.6999,135.5,96.1,0.555
37.7,32436.0,35736.6,1.8176,1.8034,135.5,96.1,0.555
37.72,32340.0,35682.4,1.4184,1.6705,135.5,96.1,0.555
37.74,32215.6,35392.3,0.9012,0.9582,135.5,96.1,0.555
37.76,32125.4,35255.5,0.5258,0.6222,135.5,96.1,0.555
37.78,32012.1,35264.2,0.0544,0.6435,135.5,96.1,0.555
37.8,31986.4,35041.5,-0.0527,0.0968,135.5,96.1,0.555
37.82,31992.4,35042.1,-0.0275,0.0982,135.5,96.1,0.555
37.84,31998.5,35015.8,-0.0022,0.0335,135.5,96.1,0.555
37.86,32000.4,34906.4,0.0056,-0.2351,135.5,96.1,0.555
37.88,31846.1,34768.2,-0.6361,-0.5744,135.5,96.1,0.555
37.9,31814.9,34723.0,-0.7659,-0.6854,135.5,96.1,0.555
37.92,31871.3,34646.5,-0.5314,-0.8732,135.5,96.1,0.555
37.94,31809.4,34689.1,-0.7886,-0.7686,135.5,96.1,0.555
37.96,31847.7,34600.9,-0.6293,-0.9853,135.5,96.1,0.555
37.98,31715.6,34582.8,-1.1791,-1.0297,135.5,96.1,0.555
38.0,31754.1,34472.7,-1.0187,-1.2999,135.5,96.1,0.555
38.02,31826.9,34488.3,-0.7159,-1.2617,135.5,96.1,0.555
38.04,31703.7,34561.8,-1.2286,-1.0811,135.5,96.1,0.555
38.06,31916.2,34751.2,-0.3446,-0.6162,135.5,96.1,0.555
38.08,31990.7,35156.6,-0.0344,0.3793,135.5,96.1,0.555
38.1,32267.2,35433.1,1.1156,1.0582,135.5,96.1,0.555
38.12,32354.3,35650.4,1.478,1.5918,135.5,96.1,0.555
38.14,32414.2,35787.5,1.7269,1.9284,135.5,96.1,0.555
38.16,32328.8,35788.5,1.372,1.9309,135.5,96.1,0.555
38.18,32266.4,35479.9,1.1122,1.1732,135.5,96.1,0.555
38.2,32203.8,35261.5,0.8517,0.6369,135.5,96.1,0.555
38.22,32068.4,35236.2,0.2886,0.5746,135.5,96.1,0.555
38.24,32073.1,35091.8,0.3081,0.2201,135.5,96.1,0.555
38.26,32025.4,35102.0,0.1099,0.2452,135.5,96.1,0.555
38.28,32021.9,34977.6,0.0952,-0.0602,135.5,96.1,0.555
38.3,31944.6,34964.0,-0.2263,-0.0936,135.5,96.1,0.555
38.32,31986.5,34764.3,-0.0521,-0.5839,135.5,96.1,0.555
38.34,31826.9,34661.8,-0.716,-0.8356,135.5,96.1,0.555
38.36,31842.1,34659.5,-0.6525,-0.8414,135.5,96.1,0.555
38.38,31737.4,34707.3,-1.0884,-0.7239,135.5,96.1,0.555
38.4,31729.6,34637.4,-1.1209,-0.8956,135.5,96.1,0.555
38.42,31800.6,34577.8,-0.8255,-1.0419,135.5,96.1,0.555
38.44,31721.6,34550.2,-1.1538,-1.1096,135.5,96.1,0.555
38.46,31649.6,34409.2,-1.4535,-1.4558,135.5,96.1,0.555
38.48,31678.0,34563.9,-1.3352,-1.0761,135.5,96.1,0.555
38.5,31935.6,34731.7,-0.2637,-0.6641,135.5,96.1,0.555
38.52,32006.1,34862.9,0.0294,-0.3418,135.5,96.1,0.555
38.54,32196.1,35383.9,0.8198,0.9374,135.5,96.1,0.555
38.56,32413.3,35632.1,1.7232,1.5469,135.5,96.1,0.555
38.58,32246.4,35777.5,1.029,1.9039,135.5,96.1,0.555
38.6,32341.2,35656.1,1.4234,1.6059,135.5,96.1,0.555
38.62,32267.8,35537.4,1.118,1.3143,135.5,96.1,0.555
38.64,32204.0,35292.0,0.8528,0.7117,135.5,96.1,0.555
38.66,32081.1,35252.1,0.3416,0.6138,135.5,96.1,0.555
38.68,32064.8,34985.3,0.2737,-0.0413,135.5,96.1,0.555
38.7,32015.6,35112.1,0.0689,0.2701,135.5,96.1,0.555
38.72,31948.4,34941.3,-0.2106,-0.1494,135.5,96.1,0.555
38.74,31896.1,34906.3,-0.4283,-0.2353,135.5,96.1,0.555
38.76,31924.5,34845.5,-0.3098,-0.3846,135.5,96.1,0.555
38.78,31810.8,34686.8,-0.7831,-0.7742,135.5,96.1,0.555
38.8,31852.6,34601.2,-0.6089,-0.9845,135.5,96.1,0.555
38.82,31815.4,34690.1,-0.7638,-0.7663,135.5,96.1,0.555
38.84,31764.2,34743.9,-0.9769,-0.6341,135.5,96.1,0.555
38.86,31822.4,34635.2,-0.7348,-0.9011,135.5,96.1,0.555
38.88,31778.7,34546.8,-0.9163,-1.118,135.5,96.1,0.555
38.9,31720.1,34514.0,-1.1601,-1.1987,135.5,96.1,0.555
38.92,31602.1,34473.6,-1.6512,-1.2979,135.5,96.1,0.555
38.94,31843.0,34669.2,-0.6491,-0.8176,135.5,96.1,0.555
38.96,32027.7,34982.0,0.1191,-0.0494,135.5,96.1,0.555
38.98,32186.0,35339.4,0.7777,0.8282,135.5,96.1,0.555
39.0,32277.1,35651.5,1.157,1.5946,135.5,96.1,0.555
39.02,32426.0,35851.7,1.7762,2.0861,135.5,96.1,0.555
39.04,32292.6,35800.0,1.2213,1.9592,135.5,96.1,0.555
39.06,32271.4,35618.0,1.1332,1.5123,135.5,96.1,0.555
39.08,32207.3,35298.4,0.8665,0.7276,135.5,96.1,0.555
39.1,32029.7,35232.6,0.1275,0.566,135.5,96.1,0.555
39.12,32095.3,35116.7,0.4005,0.2812,135.5,96.1,0.555
39.14,32051.2,35030.4,0.217,0.0694,135.5,96.1,0.555
39.16,32044.5,35056.2,0.1893,0.1328,135.5,96.1,0.555
39.18,31966.0,34985.3,-0.1374,-0.0414,135.5,96.1,0.555
39.2,31936.1,34828.5,-0.2619,-0.4263,135.5,96.1,0.555
39.22,31867.6,34781.6,-0.5465,-0.5414,135.5,96.1,0.555
39.24,31949.2,34755.8,-0.2072,-0.6049,135.5,96.1,0.555
39.26,31768.9,34666.4,-0.9571,-0.8244,135.5,96.1,0.555
39.28,31870.6,34733.9,-0.5342,-0.6587,135.5,96.1,0.555
39.3,31853.7,34634.5,-0.6046,-0.9027,135.5,96.1,0.555
39.32,31877.4,34530.5,-0.5058,-1.1582,135.5,96.1,0.555
39.34,31784.8,34451.4,-0.8913,-1.3523,135.5,96.1,0.555
39.36,31647.4,34462.1,-1.4628,-1.3261,135.5,96.1,0.555
39.38,31832.6,34660.6,-0.6922,-0.8387,135.5,96.1,0.555
39.4,31949.1,34901.0,-0.2076,-0.2483,135.5,96.1,0.555
39.42,32111.5,35267.4,0.4678,0.6515,135.5,96.1,0.555
39.44,32212.6,35605.0,0.8885,1.4803,135.5,96.1,0.555
39.46,32378.2,35703.0,1.5772,1.7209,135.5,96.1,0.555
39.48,32440.7,35753.1,1.8374,1.844,135.5,96.1,0.555
39.5,32336.8,35589.0,1.4053,1.441,135.5,96.1,0.555
39.52,32240.1,35284.6,1.0028,0.6935,135.5,96.1,0.555
39.54,32141.1,35251.4,0.5911,0.612,135.5,96.1,0.555
39.56,32015.0,35134.5,0.0663,0.325,135.5,96.1,0.555
39.58,31990.5,35075.8,-0.0355,0.1808,135.5,96.1,0.555
39.6,32143.1,35095.3,0.5992,0.2288,135.5,96.1,0.555
39.62,31941.1,34884.8,-0.2408,-0.2881,135.5,96.1,0.555
39.64,31999.4,34854.1,0.0015,-0.3634,135.5,96.1,0.555
39.66,31943.2,34684.3,-0.232,-0.7805,135.5,96.1,0.555
39.68,31846.3,34706.0,-0.6354,-0.7272,135.5,96.1,0.555
39.7,31783.0,34671.7,-0.8985,-0.8114,135.5,96.1,0.555
39.72,31807.6,34703.2,-0.7961,-0.734,135.5,96.1,0.555
39.74,31776.4,34580.6,-0.9262,-1.0351,135.5,96.1,0.555
39.76,31804.4,34591.1,-0.8097,-1.0092,135.5,96.1,0.555
39.78,31686.1,34436.3,-1.3015,-1.3893,135.5,96.1,0.555
39.8,31688.0,34511.0,-1.2938,-1.2061,135.5,96.1,0.555
39.82,31685.0,34660.9,-1.3061,-0.8378,135.5,96.1,0.555
39.84,31913.8,34929.9,-0.3544,-0.1773,135.5,96.1,0.555
39.86,32167.0,35200.6,0.6988,0.4872,135.5,96.1,0.555
39.88,32261.1,35578.2,1.0901,1.4145,135.5,96.1,0.555
39.9,32401.5,35831.0,1.6744,2.0354,135.5,96.1,0.555
39.92,32353.5,35700.5,1.4746,1.7149,135.5,96.1,0.555
39.94,32253.7,35657.5,1.0596,1.6094,135.5,96.1,0.555
39.96,32108.0,35413.5,0.4533,1.0101,135.5,96.1,0.555
39.98,32086.0,35208.0,0.3619,0.5054,135.5,96.1,0.555
40.0,32117.4,35134.6,0.4924,0.3253,135.5,96.1,0.555
40.02,32022.5,35068.9,0.0976,0.1638,135.5,96.1,0.555
40.04,32045.3,35001.2,0.1926,-0.0023,135.5,96.1,0.555
40.06,31996.2,35053.9,-0.0118,0.1271,135.5,96.1,0.555
40.08,31977.7,34865.9,-0.0886,-0.3345,135.5,96.1,0.555
40.1,31882.6,34744.1,-0.4845,-0.6335,135.5,96.1,0.555
40.12,31781.4,34717.3,-0.9051,-0.6994,135.5,96.1,0.555
40.14,31825.7,34708.7,-0.7208,-0.7205,135.5,96.1,0.555
40.16,31805.8,34652.3,-0.8036,-0.8591,135.5,96.1,0.555
40.18,31833.3,34606.8,-0.6894,-0.9708,135.5,96.1,0.555
40.2,31713.5,34515.6,-1.1875,-1.1948,135.5,96.1,0.555
40.22,31655.1,34456.2,-1.4307,-1.3406,135.5,96.1,0.555
40.24,31756.7,34398.3,-1.0081,-1.4827,135.5,96.1,0.555
40.26,31799.2,34625.6,-0.8314,-0.9245,135.5,96.1,0.555
40.28,31911.6,34838.8,-0.3637,-0.401,135.5,96.1,0.555
40.3,32122.4,35214.7,0.5134,0.5219,135.5,96.1,0.555
40.32,32291.8,35536.4,1.2181,1.3119,135.5,96.1,0.555
40.34,32403.6,35748.4,1.683,1.8326,135.5,96.1,0.555
40.36,32459.1,35740.3,1.914,1.8125,135.5,96.1,0.555
40.38,32415.8,35517.6,1.7336,1.2658,135.5,96.1,0.555
40.4,32232.4,35405.5,0.9706,0.9905,135.5,96.1,0.555
40.42,32065.9,35285.3,0.2782,0.6952,135.5,96.1,0.555
40.44,32054.4,35218.6,0.2302,0.5316,135.5,96.1,0.555
40.46,32081.4,35151.3,0.3428,0.3662,135.5,96.1,0.555
40.48,32099.3,35107.5,0.4171,0.2587,135.5,96.1,0.555
40.5,31982.8,34957.3,-0.0676,-0.11,135.5,96.1,0.555
40.52,31922.2,34781.5,-0.3196,-0.5417,135.5,96.1,0.555
40.54,31924.8,34764.7,-0.3086,-0.5831,135.5,96.1,0.555
40.56,31766.8,34647.0,-0.966,-0.8721,135.5,96.1,0.555
40.58,31833.2,34670.5,-0.6896,-0.8144,135.5,96.1,0.555
40.6,31805.5,34639.1,-0.8051,-0.8914,135.5,96.1,0.555
40.62,31788.8,34627.0,-0.8744,-0.921,135.5,96.1,0.555
40.64,31817.9,34513.8,-0.7536,-1.1991,135.5,96.1,0.555
40.66,31651.6,34482.9,-1.4452,-1.2749,135.5,96.1,0.555
40.68,31743.7,34440.2,-1.0619,-1.3799,135.5,96.1,0.555
40.7,31672.4,34498.6,-1.3587,-1.2365,135.5,96.1,0.555
40.72,31872.8,34852.0,-0.5248,-0.3688,135.5,96.1,0.555
40.74,32142.9,35144.1,0.5984,0.3485,135.5,96.1,0.555
40.76,32236.4,35509.6,0.9876,1.2461,135.5,96.1,0.555
40.78,32366.8,35759.9,1.53,1.8608,135.5,96.1,0.555
40.8,32454.3,35869.9,1.8938,2.1309,135.5,96.1,0.555
40.82,32289.9,35692.8,1.2099,1.6961,135.5,96.1,0.555
40.84,32274.7,35403.3,1.1468,0.985,135.5,96.1,0.555
40.86,32130.1,35362.1,0.5453,0.8839,135.5,96.1,0.555
40.88,32131.0,35163.2,0.5492,0.3956,135.5,96.1,0.555
40.9,32040.3,35075.5,0.1719,0.1801,135.5,96.1,0.555
40.92,32057.3,35077.1,0.2424,0.1842,135.5,96.1,0.555
40.94,32047.7,35053.9,0.2026,0.1271,135.5,96.1,0.555
40.96,31849.3,35010.0,-0.6227,0.0193,135.5,96.1,0.555
40.98,31943.7,34787.3,-0.2302,-0.5275,135.5,96.1,0.555
41.0,31940.6,34728.8,-0.2429,-0.6712,135.5,96.1,0.555
41.02,31875.9,34746.1,-0.512,-0.6288,135.5,96.1,0.555
41.04,31847.8,34709.9,-0.6292,-0.7175,135.5,96.1,0.555
41.06,31799.3,34630.4,-0.8307,-0.9129,135.5,96.1,0.555
41.08,31778.7,34579.5,-0.9165,-1.0377,135.5,96.1,0.555
41.1,31693.7,34528.4,-1.2703,-1.1631,135.5,96.1,0.555
41.12,31677.0,34454.6,-1.3397,-1.3445,135.5,96.1,0.555
41.14,31820.2,34528.5,-0.7437,-1.163,135.5,96.1,0.555
41.16,31947.7,34781.4,-0.2133,-0.542,135.5,96.1,0.555
41.18,32029.8,35122.0,0.1281,0.2943,135.5,96.1,0.555
41.2,32276.4,35415.8,1.1538,1.0157,135.5,96.1,0.555
41.22,32303.4,35649.7,1.2662,1.5901,135.5,96.1,0.555
41.24,32366.4,35703.7,1.5284,1.7228,135.5,96.1,0.555
41.26,32299.3,35744.6,1.2491,1.8232,135.5,96.1,0.555
41.28,32200.9,35521.1,0.8399,1.2743,135.5,96.1,0.555
41.3,32190.0,35299.5,0.7946,0.7302,135.5,96.1,0.555
41.32,32096.5,35032.7,0.4055,0.075,135.5,96.1,0.555
41.34,32013.2,35049.0,0.0591,0.1151,135.5,96.1,0.555
41.36,32057.7,35016.9,0.2443,0.0364,135.5,96.1,0.555
41.38,32016.2,35068.2,0.0714,0.1622,135.5,96.1,0.555
41.4,31986.9,34846.6,-0.0506,-0.3819,135.5,96.1,0.555
41.42,31912.3,34758.5,-0.3608,-0.5982,135.5,96.1,0.555
41.44,31778.3,34633.6,-0.918,-0.9049,135.5,96.1,0.555
41.46,31847.2,34676.2,-0.6316,-0.8004,135.5,96.1,0.555
41.48,31803.7,34650.4,-0.8126,-0.8636,135.5,96.1,0.555
41.5,31804.5,34648.6,-0.8093,-0.868,135.5,96.1,0.555
41.52,31791.9,34587.0,-0.8615,-1.0193,135.5,96.1,0.555
41.54,31811.2,34469.5,-0.7812,-1.308,135.5,96.1,0.555
41.56,31682.7,34422.6,-1.3158,-1.4231,135.5,96.1,0.555
41.58,31727.0,34577.8,-1.1315,-1.0419,135.5,96.1,0.555
41.6,31891.7,34773.0,-0.4464,-0.5625,135.5,96.1,0.555
41.62,31988.7,35126.0,-0.0428,0.3042,135.5,96.1,0.555
41.64,32241.8,35441.8,1.0098,1.0796,135.5,96.1,0.555
41.66,32364.9,35635.3,1.5221,1.5547,135.5,96.1,0.555
41.68,32359.7,35842.9,1.5002,2.0645,135.5,96.1,0.555
41.7,32378.9,35750.3,1.5801,1.8371,135.5,96.1,0.555
41.72,32201.5,35509.3,0.8421,1.2453,135.5,96.1,0.555
41.74,32159.5,35406.6,0.6675,0.9932,135.5,96.1,0.555
41.76,32073.6,35182.5,0.3102,0.443,135.5,96.1,0.555
41.78,31997.0,35108.0,-0.0083,0.2599,135.5,96.1,0.555
41.8,32063.9,34981.5,0.27,-0.0506,135.5,96.1,0.555
41.82,32003.2,35040.1,0.0172,0.0932,135.5,96.1,0.555
41.84,31952.2,34950.3,-0.1947,-0.1273,135.5,96.1,0.555
41.86,31896.1,34768.1,-0.4282,-0.5747,135.5,96.1,0.555
41.88,31895.0,34700.7,-0.4329,-0.7402,135.5,96.1,0.555
41.9,31814.0,34699.9,-0.7698,-0.7422,135.5,96.1,0.555
41.92,31895.8,34629.0,-0.4295,-0.9162,135.5,96.1,0.555
41.94,31786.4,34674.8,-0.8845,-0.8038,135.5,96.1,0.555
41.96,31795.1,34608.5,-0.8482,-0.9665,135.5,96.1,0.555
41.98,31748.4,34448.4,-1.0424,-1.3598,135.5,96.1,0.555
42.0,31720.7,34422.2,-1.1576,-1.4239,135.5,96.1,0.555
42.02,31709.8,34488.4,-1.203,-1.2615,135.5,96.1,0.555
42.04,31764.7,34728.6,-0.9749,-0.6716,135.5,96.1,0.555
42.06,32064.4,35050.9,0.2719,0.1199,135.5,96.1,0.555
42.08,32137.9,35360.3,0.5777,0.8795,135.5,96.1,0.555
42.1,32291.0,35780.9,1.2148,1.9124,135.5,96.1,0.555
42.12,32398.9,35753.7,1.6634,1.8454,135.5,96.1,0.555
42.14,32396.7,35693.1,1.6542,1.6966,135.5,96.1,0.555
42.16,32304.4,35591.3,1.2705,1.4466,135.5,96.1,0.555
42.18,32147.2,35204.5,0.6165,0.497,135.5,96.1,0.555
42.2,32149.3,35197.8,0.625,0.4804,135.5,96.1,0.555
42.22,32088.9,35153.8,0.3739,0.3724,135.5,96.1,0.555
42.24,31855.5,35053.0,-0.5971,0.1249,135.5,96.1,0.555
42.26,31945.8,35094.7,-0.2214,0.2274,135.5,96.1,0.555
42.28,31967.8,34969.5,-0.1296,-0.0801,135.5,96.1,0.555
42.3,31852.8,34891.6,-0.608,-0.2713,135.5,96.1,0.555
42.32,31811.0,34770.2,-0.7822,-0.5695,135.5,96.1,0.555
42.34,31892.6,34701.6,-0.4426,-0.738,135.5,96.1,0.555
42.36,31791.9,34670.4,-0.8614,-0.8146,135.5,96.1,0.555
42.38,31803.7,34655.0,-0.8124,-0.8524,135.5,96.1,0.555
42.4,31791.7,34505.0,-0.8625,-1.2207,135.5,96.1,0.555
42.42,31719.3,34481.9,-1.1635,-1.2774,135.5,96.1,0.555
42.44,31836.8,34497.0,-0.6748,-1.2402,135.5,96.1,0.555
42.46,31658.2,34525.9,-1.4179,-1.1695,135.5,96.1,0.555
42.48,31807.5,34733.5,-0.7967,-0.6596,135.5,96.1,0.555
42.5,31964.6,35027.7,-0.1431,0.0628,135.5,96.1,0.555
42.52,32239.9,35390.9,1.002,0.9546,135.5,96.1,0.555
42.54,32259.9,35686.8,1.0851,1.6812,135.5,96.1,0.555
42.56,32368.3,35741.9,1.5361,1.8165,135.5,96.1,0.555
42.58,32333.3,35816.0,1.3907,1.9984,135.5,96.1,0.555
42.6,32210.2,35568.7,0.8783,1.3912,135.5,96.1,0.555
42.62,32169.6,35424.5,0.7097,1.0372,135.5,96.1,0.555
42.64,32118.7,35225.3,0.4979,0.5479,135.5,96.1,0.555
42.66,32056.8,35131.8,0.2402,0.3184,135.5,96.1,0.555
42.68,32017.1,35108.5,0.0751,0.2611,135.5,96.1,0.555
42.7,32034.4,34973.2,0.1471,-0.071,135.5,96.1,0.555
42.72,31940.4,34933.8,-0.244,-0.1679,135.5,96.1,0.555
42.74,31967.8,34892.3,-0.13,-0.2698,135.5,96.1,0.555
42.76,31941.5,34787.0,-0.2394,-0.5282,135.5,96.1,0.555
42.78,31819.5,34734.0,-0.7469,-0.6584,135.5,96.1,0.555
42.8,31858.3,34615.8,-0.5855,-0.9487,135.5,96.1,0.555
42.82,31796.0,34675.0,-0.8445,-0.8033,135.5,96.1,0.555
42.84,31818.4,34633.0,-0.7513,-0.9065,135.5,96.1,0.555
42.86,31760.1,34477.8,-0.9937,-1.2876,135.5,96.1,0.555
42.88,31703.7,34365.8,-1.2283,-1.5626,135.5,96.1,0.555
42.9,31606.3,34501.8,-1.6335,-1.2285,135.5,96.1,0.555
42.92,31818.0,34680.5,-0.7528,-0.7897,135.5,96.1,0.555
42.94,32032.2,34793.4,0.1379,-0.5126,135.5,96.1,0.555
42.96,32106.2,35251.3,0.4461,0.6118,135.5,96.1,0.555
42.98,32279.9,35529.5,1.1685,1.295,135.5,96.1,0.555
43.0,32351.7,35857.5,1.4673,2.1004,135.5,96.1,0.555
43.02,32334.3,35706.3,1.3946,1.7292,135.5,96.1,0.555
43.04,32348.3,35636.0,1.4528,1.5566,135.5,96.1,0.555
43.06,32242.7,35491.0,1.0135,1.2004,135.5,96.1,0.555
43.08,32138.1,35214.0,0.5785,0.5202,135.5,96.1,0.555
43.1,31965.1,35143.5,-0.141,0.3471,135.5,96.1,0.555
43.12,32032.7,35116.0,0.14,0.2795,135.5,96.1,0.555
43.14,31959.5,35058.7,-0.1645,0.1388,135.5,96.1,0.555
43.16,32013.4,34815.0,0.06,-0.4596,135.5,96.1,0.555
43.18,31856.8,34900.1,-0.5914,-0.2505,135.5,96.1,0.555
43.2,31936.9,34709.2,-0.2583,-0.7193,135.5,96.1,0.555
43.22,31843.7,34671.0,-0.6462,-0.8131,135.5,96.1,0.555
43.24,31813.0,34707.6,-0.7737,-0.7233,135.5,96.1,0.555
43.26,31855.8,34797.0,-0.5958,-0.5036,135.5,96.1,0.555
43.28,31789.2,34637.4,-0.8728,-0.8956,135.5,96.1,0.555
43.3,31876.1,34576.7,-0.5113,-1.0448,135.5,96.1,0.555
43.32,31744.9,34464.6,-1.057,-1.32,135.5,96.1,0.555
43.34,31725.5,34501.4,-1.1376,-1.2297,135.5,96.1,0.555
43.36,31843.3,34630.4,-0.6478,-0.9128,135.5,96.1,0.555
43.38,32013.2,34913.4,0.059,-0.2179,135.5,96.1,0.555
43.4,32183.4,35257.1,0.7672,0.6261,135.5,96.1,0.555
43.42,32317.5,35526.1,1.3248,1.2866,135.5,96.1,0.555
43.44,32332.5,35694.7,1.3874,1.7007,135.5,96.1,0.555
43.46,32380.4,35734.8,1.5865,1.7991,135.5,96.1,0.555
43.48,32375.7,35628.9,1.5669,1.5392,135.5,96.1,0.555
43.5,32184.1,35435.1,0.77,1.0633,135.5,96.1,0.555
43.52,32198.3,35182.8,0.829,0.4437,135.5,96.1,0.555
43.54,32067.7,35098.1,0.2856,0.2356,135.5,96.1,0.555
43.56,31999.7,35001.1,0.0028,-0.0026,135.5,96.1,0.555
43.58,32043.2,35097.2,0.1838,0.2335,135.5,96.1,0.555
43.6,32007.0,35019.9,0.0331,0.0436,135.5,96.1,0.555
43.62,31890.7,34922.2,-0.4507,-0.1963,135.5,96.1,0.555
43.64,31888.8,34812.2,-0.4584,-0.4663,135.5,96.1,0.555
43.66,31858.6,34798.0,-0.5842,-0.5012,135.5,96.1,0.555
43.68,31758.4,34593.4,-1.0008,-1.0038,135.5,96.1,0.555
43.7,31811.8,34675.6,-0.7787,-0.8019,135.5,96.1,0.555
43.72,31739.5,34680.1,-1.0795,-0.7908,135.5,96.1,0.555
43.74,31756.7,34581.0,-1.0079,-1.0341,135.5,96.1,0.555
43.76,31737.5,34405.9,-1.0878,-1.4641,135.5,96.1,0.555
43.78,31760.8,34539.2,-0.9909,-1.1366,135.5,96.1,0.555
43.8,31888.2,34447.2,-0.4611,-1.3626,135.5,96.1,0.555
43.82,31951.2,34841.8,-0.1987,-0.3937,135.5,96.1,0.555
43.84,32076.0,35160.8,0.3203,0.3897,135.5,96.1,0.555
43.86,32255.5,35439.4,1.0668,1.0738,135.5,96.1,0.555
43.88,32337.3,35708.5,1.4071,1.7346,135.5,96.1,0.555
43.9,32458.5,35849.3,1.9114,2.0803,135.5,96.1,0.555
43.92,32332.1,35708.2,1.3855,1.7338,135.5,96.1,0.555
43.94,32165.4,35560.3,0.6921,1.3705,135.5,96.1,0.555
43.96,32159.1,35314.8,0.6658,0.7678,135.5,96.1,0.555
43.98,32142.9,35131.2,0.5987,0.3169,135.5,96.1,0.555
44.0,32005.4,35182.1,0.0265,0.4419,135.5,96.1,0.555
44.02,31987.9,35098.4,-0.0463,0.2364,135.5,96.1,0.555
44.04,31915.9,34875.7,-0.3458,-0.3104,135.5,96.1,0.555
44.06,31979.8,34947.3,-0.0801,-0.1346,135.5,96.1,0.555
44.08,31822.8,34774.8,-0.7329,-0.5581,135.5,96.1,0.555
44.1,31891.7,34718.0,-0.4464,-0.6978,135.5,96.1,0.555
44.12,31844.1,34699.3,-0.6443,-0.7436,135.5,96.1,0.555
44.14,31793.2,34691.2,-0.856,-0.7636,135.5,96.1,0.555
44.16,31806.3,34636.7,-0.8015,-0.8974,135.5,96.1,0.555
44.18,31746.9,34612.3,-1.0488,-0.9571,135.5,96.1,0.555
44.2,31774.4,34479.3,-0.9343,-1.2839,135.5,96.1,0.555
44.22,31638.7,34463.8,-1.4988,-1.3219,135.5,96.1,0.555
44.24,31810.1,34553.7,-0.7857,-1.101,135.5,96.1,0.555
44.26,31879.6,34694.8,-0.4968,-0.7546,135.5,96.1,0.555
44.28,32096.5,35193.9,0.4054,0.4708,135.5,96.1,0.555
44.3,32178.9,35439.7,0.7483,1.0743,135.5,96.1,0.555
44.32,32264.9,35705.1,1.106,1.7262,135.5,96.1,0.555
44.34,32417.9,35680.7,1.7425,1.6662,135.5,96.1,0.555
44.36,32298.2,35739.0,1.2446,1.8094,135.5,96.1,0.555
44.38,32323.6,35536.5,1.3501,1.3123,135.5,96.1,0.555
44.4,32165.2,35395.1,0.6912,0.965,135.5,96.1,0.555
44.42,32019.9,35132.7,0.087,0.3207,135.5,96.1,0.555
44.44,32054.3,35146.3,0.2299,0.3541,135.5,96.1,0.555
44.46,31991.0,35107.1,-0.0331,0.2577,135.5,96.1,0.555
44.48,31963.6,34906.9,-0.1472,-0.2339,135.5,96.1,0.555
44.5,31921.6,34912.6,-0.3219,-0.2199,135.5,96.1,0.555
44.52,31832.3,34742.1,-0.6937,-0.6384,135.5,96.1,0.555
44.54,31972.4,34677.6,-0.1107,-0.7968,135.5,96.1,0.555
44.56,31903.2,34745.8,-0.3988,-0.6293,135.5,96.1,0.555
44.58,31788.2,34583.4,-0.8769,-1.0282,135.5,96.1,0.555
44.6,31734.4,34629.3,-1.1008,-0.9155,135.5,96.1,0.555
44.62,31689.6,34565.2,-1.2871,-1.0728,135.5,96.1,0.555
44.64,31789.6,34500.0,-0.8711,-1.2331,135.5,96.1,0.555
44.66,31630.1,34527.9,-1.5344,-1.1645,135.5,96.1,0.555
44.68,31715.5,34480.2,-1.1795,-1.2816,135.5,96.1,0.555
44.7,31827.6,34721.4,-0.713,-0.6894,135.5,96.1,0.555
44.72,32034.0,35038.5,0.1455,0.0892,135.5,96.1,0.555
44.74,32128.4,35370.6,0.5384,0.9048,135.5,96.1,0.555
44.76,32291.2,35622.1,1.2154,1.5224,135.5,96.1,0.555
44.78,32376.3,35668.4,1.5695,1.636,135.5,96.1,0.555
44.8,32339.1,35716.5,1.4145,1.7542,135.5,96.1,0.555
44.82,32240.4,35473.1,1.0041,1.1566,135.5,96.1,0.555
44.84,32163.7,35340.1,0.6849,0.8299,135.5,96.1,0.555
44.86,32064.4,35151.2,0.2718,0.3661,135.5,96.1,0.555
44.88,32145.3,35059.2,0.6085,0.1403,135.5,96.1,0.555
