timestamp,raw_red,raw_ir,filtered_red,filtered_ir,heart_rate,spo2,ac_dc_ratio
0.0,32084.7,35226.5,1.1884,1.1962,150.0,98.0,0.482
0.02,32227.2,35545.7,1.1974,1.2147,150.0,98.0,0.482
0.04,32360.3,35711.4,1.2059,1.2243,150.0,98.0,0.482
0.06,32347.0,35766.7,1.205,1.2275,150.0,98.0,0.482
0.08,32191.2,35624.8,1.1952,1.2193,150.0,98.0,0.482
0.1,32128.5,35388.2,1.1912,1.2056,150.0,98.0,0.482
0.12,32097.1,35173.4,1.1892,1.1931,150.0,98.0,0.482
0.14,32015.1,35223.8,1.184,1.196,150.0,98.0,0.482
0.16,32036.0,35118.5,1.1853,1.1899,150.0,98.0,0.482
0.18,32039.9,34985.1,1.1856,1.1822,150.0,98.0,0.482
0.2,32002.3,34805.9,1.1832,1.1718,150.0,98.0,0.482
0.22,31888.3,34748.7,1.176,1.1685,150.0,98.0,0.482
0.24,31859.3,34707.1,1.1741,1.1661,150.0,98.0,0.482
0.26,31783.6,34710.0,1.1693,1.1663,150.0,98.0,0.482
0.28,31770.9,34658.2,1.1685,1.1633,150.0,98.0,0.482
0.3,31885.0,34556.2,1.1758,1.1573,150.0,98.0,0.482
0.32,31850.3,34516.1,1.1736,1.155,150.0,98.0,0.482
0.34,31795.0,34406.5,1.1701,1.1487,150.0,98.0,0.482
0.36,31763.5,34573.5,1.1681,1.1583,150.0,98.0,0.482
0.38,31791.9,34885.3,1.1699,1.1764,150.0,98.0,0.482
0.4,32058.2,35158.2,1.1867,1.1922,150.0,98.0,0.482
0.42,32180.6,35473.8,1.1945,1.2105,150.0,98.0,0.482
0.44,32334.2,35698.3,1.2042,1.2235,150.0,98.0,0.482
0.46,32297.4,35784.3,1.2019,1.2285,150.0,98.0,0.482
0.48,32213.5,35537.0,1.1966,1.2142,150.0,98.0,0.482
0.5,32263.6,35341.5,1.1998,1.2028,150.0,98.0,0.482
0.52,32093.1,35176.4,1.1889,1.1933,150.0,98.0,0.482
0.54,32098.7,35092.0,1.1893,1.1884,150.0,98.0,0.482
0.56,31990.8,35005.2,1.1825,1.1834,150.0,98.0,0.482
0.58,31998.6,35126.9,1.183,1.1904,150.0,98.0,0.482
0.6,31918.2,34866.8,1.1779,1.1753,150.0,98.0,0.482
0.62,31931.9,34759.7,1.1787,1.1691,150.0,98.0,0.482
0.64,31767.8,34736.8,1.1683,1.1678,150.0,98.0,0.482
0.66,31860.1,34665.8,1.1742,1.1637,150.0,98.0,0.482
0.68,31845.4,34566.7,1.1732,1.1579,150.0,98.0,0.482
0.7,31804.6,34661.4,1.1707,1.1634,150.0,98.0,0.482
0.72,31802.1,34506.6,1.1705,1.1545,150.0,98.0,0.482
0.74,31723.2,34471.6,1.1655,1.1524,150.0,98.0,0.482
0.76,31753.9,34521.8,1.1674,1.1554,150.0,98.0,0.482
0.78,31919.6,34893.2,1.1779,1.1769,150.0,98.0,0.482
0.8,32066.3,35177.0,1.1872,1.1933,150.0,98.0,0.482
0.82,32242.2,35464.4,1.1984,1.21,150.0,98.0,0.482
0.84,32333.6,35670.8,1.2042,1.2219,150.0,98.0,0.482
0.86,32289.0,35750.4,1.2014,1.2265,150.0,98.0,0.482
0.88,32284.5,35628.8,1.2011,1.2195,150.0,98.0,0.482
0.9,32110.5,35414.8,1.19,1.2071,150.0,98.0,0.482
0.92,31999.4,35201.2,1.183,1.1947,150.0,98.0,0.482
0.94,32143.0,35160.8,1.1921,1.1924,150.0,98.0,0.482
0.96,32045.2,34998.8,1.1859,1.183,150.0,98.0,0.482
0.98,32079.9,34935.8,1.1881,1.1793,150.0,98.0,0.482
1.0,32050.6,34932.1,1.1863,1.1791,150.0,98.0,0.482
1.02,31878.7,34809.0,1.1754,1.172,150.0,98.0,0.482
1.04,31993.3,34660.2,1.1826,1.1634,150.0,98.0,0.482
1.06,31823.9,34663.5,1.1719,1.1636,150.0,98.0,0.482
1.08,31959.3,34641.4,1.1805,1.1623,150.0,98.0,0.482
1.1,31743.3,34602.3,1.1668,1.16,150.0,98.0,0.482
1.12,31846.4,34430.1,1.1733,1.15,150.0,98.0,0.482
1.14,31698.1,34462.0,1.1639,1.1519,150.0,98.0,0.482
1.16,31759.4,34559.0,1.1678,1.1575,150.0,98.0,0.482
1.18,31887.3,34847.8,1.1759,1.1742,150.0,98.0,0.482
1.2,32130.0,35194.0,1.1913,1.1943,150.0,98.0,0.482
1.22,32243.1,35441.9,1.1985,1.2087,150.0,98.0,0.482
1.24,32276.6,35768.2,1.2006,1.2276,150.0,98.0,0.482
1.26,32311.1,35795.2,1.2028,1.2291,150.0,98.0,0.482
1.28,32281.4,35592.7,1.2009,1.2174,150.0,98.0,0.482
1.3,32232.1,35284.4,1.1978,1.1995,150.0,98.0,0.482
1.32,32046.5,35181.7,1.186,1.1936,150.0,98.0,0.482
1.34,31991.8,35182.6,1.1825,1.1936,150.0,98.0,0.482
1.36,32054.7,35083.5,1.1865,1.1879,150.0,98.0,0.482
1.38,32033.6,35075.1,1.1852,1.1874,150.0,98.0,0.482
1.4,32000.3,34864.3,1.1831,1.1752,150.0,98.0,0.482
1.42,31904.2,34742.3,1.177,1.1681,150.0,98.0,0.482
1.44,31891.2,34736.7,1.1761,1.1678,150.0,98.0,0.482
1.46,31909.6,34628.6,1.1773,1.1615,150.0,98.0,0.482
1.48,31904.3,34595.5,1.177,1.1596,150.0,98.0,0.482
1.5,31864.2,34681.5,1.1744,1.1646,150.0,98.0,0.482
1.52,31823.6,34511.2,1.1719,1.1547,150.0,98.0,0.482
1.54,31663.7,34382.1,1.1617,1.1473,150.0,98.0,0.482
1.56,31739.7,34403.6,1.1665,1.1485,150.0,98.0,0.482
1.58,31871.0,34843.9,1.1749,1.174,150.0,98.0,0.482
1.6,32049.1,35238.1,1.1862,1.1969,150.0,98.0,0.482
1.62,32200.9,35513.2,1.1958,1.2128,150.0,98.0,0.482
1.64,32319.0,35775.2,1.2033,1.228,150.0,98.0,0.482
1.66,32360.7,35692.1,1.2059,1.2232,150.0,98.0,0.482
1.68,32286.5,35554.0,1.2012,1.2152,150.0,98.0,0.482
1.7,32202.1,35416.0,1.1959,1.2072,150.0,98.0,0.482
1.72,32008.5,35192.4,1.1836,1.1942,150.0,98.0,0.482
1.74,32066.0,35175.6,1.1872,1.1932,150.0,98.0,0.482
1.76,32052.6,35010.6,1.1864,1.1837,150.0,98.0,0.482
1.78,32011.1,35045.3,1.1838,1.1857,150.0,98.0,0.482
1.8,31990.4,34947.4,1.1824,1.18,150.0,98.0,0.482
1.82,31950.9,34775.8,1.1799,1.1701,150.0,98.0,0.482
1.84,31918.6,34640.0,1.1779,1.1622,150.0,98.0,0.482
1.86,31846.4,34639.1,1.1733,1.1621,150.0,98.0,0.482
1.88,31795.5,34680.0,1.1701,1.1645,150.0,98.0,0.482
1.9,31836.4,34613.0,1.1727,1.1606,150.0,98.0,0.482
1.92,31820.3,34431.7,1.1717,1.1501,150.0,98.0,0.482
1.94,31763.8,34512.2,1.1681,1.1548,150.0,98.0,0.482
1.96,31822.7,34560.5,1.1718,1.1576,150.0,98.0,0.482
1.98,31818.5,34780.7,1.1715,1.1703,150.0,98.0,0.482
2.0,32064.0,35195.4,1.1871,1.1944,150.0,98.0,0.482
2.02,32215.5,35510.1,1.1967,1.2126,150.0,98.0,0.482
2.04,32362.5,35724.1,1.206,1.225,150.0,98.0,0.482
2.06,32395.0,35693.2,1.2081,1.2232,150.0,98.0,0.482
2.08,32282.0,35569.1,1.2009,1.216,150.0,98.0,0.482
2.1,32081.6,35346.9,1.1882,1.2032,150.0,98.0,0.482
2.12,32115.9,35208.2,1.1904,1.1951,150.0,98.0,0.482
2.14,32074.8,35116.8,1.1878,1.1898,150.0,98.0,0.482
2.16,32008.8,35087.0,1.1836,1.1881,150.0,98.0,0.482
2.18,32034.4,35012.7,1.1852,1.1838,150.0,98.0,0.482
2.2,31993.2,34882.8,1.1826,1.1763,150.0,98.0,0.482
2.22,31949.5,34829.6,1.1798,1.1732,150.0,98.0,0.482
2.24,31967.5,34780.5,1.181,1.1703,150.0,98.0,0.482
2.26,31875.5,34622.9,1.1752,1.1612,150.0,98.0,0.482
2.28,31857.1,34747.6,1.174,1.1684,150.0,98.0,0.482
2.3,31771.5,34584.9,1.1686,1.159,150.0,98.0,0.482
2.32,31763.2,34522.0,1.168,1.1554,150.0,98.0,0.482
2.34,31761.9,34497.2,1.168,1.1539,150.0,98.0,0.482
2.36,31780.0,34554.4,1.1691,1.1572,150.0,98.0,0.482
2.38,31963.4,34818.9,1.1807,1.1726,150.0,98.0,0.482
2.4,31970.5,35251.0,1.1812,1.1976,150.0,98.0,0.482
2.42,32324.9,35465.1,1.2036,1.21,150.0,98.0,0.482
2.44,32405.8,35749.5,1.2088,1.2265,150.0,98.0,0.482
2.46,32346.2,35738.8,1.205,1.2259,150.0,98.0,0.482
2.48,32237.1,35566.5,1.1981,1.2159,150.0,98.0,0.482
2.5,32141.8,35355.2,1.192,1.2036,150.0,98.0,0.482
2.52,32059.8,35289.3,1.1868,1.1998,150.0,98.0,0.482
2.54,32071.0,35125.1,1.1875,1.1903,150.0,98.0,0.482
2.56,31985.2,34982.4,1.1821,1.182,150.0,98.0,0.482
2.58,31917.1,35052.8,1.1778,1.1861,150.0,98.0,0.482
2.6,31972.3,34810.7,1.1813,1.1721,150.0,98.0,0.482
2.62,31958.1,34731.6,1.1804,1.1675,150.0,98.0,0.482
2.64,31814.4,34718.2,1.1713,1.1667,150.0,98.0,0.482
2.66,31859.5,34630.0,1.1741,1.1616,150.0,98.0,0.482
2.68,31936.2,34672.4,1.179,1.1641,150.0,98.0,0.482
2.7,31793.2,34622.7,1.1699,1.1612,150.0,98.0,0.482
2.72,31822.8,34498.8,1.1718,1.154,150.0,98.0,0.482
2.74,31752.8,34447.0,1.1674,1.151,150.0,98.0,0.482
2.76,31858.4,34513.9,1.1741,1.1549,150.0,98.0,0.482
2.78,31949.6,34811.3,1.1799,1.1721,150.0,98.0,0.482
2.8,32017.7,35155.9,1.1842,1.1921,150.0,98.0,0.482
2.82,32215.9,35524.5,1.1967,1.2135,150.0,98.0,0.482
2.84,32254.7,35812.5,1.1992,1.2301,150.0,98.0,0.482
2.86,32368.4,35749.1,1.2064,1.2265,150.0,98.0,0.482
2.88,32310.3,35629.7,1.2027,1.2195,150.0,98.0,0.482
2.9,32122.2,35514.8,1.1908,1.2129,150.0,98.0,0.482
2.92,32019.7,35243.8,1.1843,1.1972,150.0,98.0,0.482
2.94,32064.4,35167.2,1.1871,1.1927,150.0,98.0,0.482
2.96,32030.1,34989.9,1.185,1.1825,150.0,98.0,0.482
2.98,31995.7,35057.7,1.1828,1.1864,150.0,98.0,0.482
3.0,31974.0,34822.7,1.1814,1.1728,150.0,98.0,0.482
3.02,31922.6,34832.7,1.1781,1.1734,150.0,98.0,0.482
3.04,31802.2,34706.3,1.1705,1.166,150.0,98.0,0.482
3.06,31935.1,34581.7,1.1789,1.1588,150.0,98.0,0.482
3.08,31869.9,34569.1,1.1748,1.1581,150.0,98.0,0.482
3.1,31737.8,34645.5,1.1664,1.1625,150.0,98.0,0.482
3.12,31784.7,34471.7,1.1694,1.1524,150.0,98.0,0.482
3.14,31782.7,34431.8,1.1693,1.1501,150.0,98.0,0.482
3.16,31793.5,34625.8,1.17,1.1614,150.0,98.0,0.482
3.18,31932.5,34784.8,1.1788,1.1706,150.0,98.0,0.482
3.2,32059.3,35234.1,1.1868,1.1966,150.0,98.0,0.482
3.22,32290.8,35528.2,1.2015,1.2137,150.0,98.0,0.482
3.24,32181.2,35766.6,1.1945,1.2275,150.0,98.0,0.482
3.26,32345.9,35764.0,1.205,1.2273,150.0,98.0,0.482
3.28,32267.1,35546.4,1.2,1.2147,150.0,98.0,0.482
3.3,32214.1,35375.5,1.1966,1.2048,150.0,98.0,0.482
3.32,32143.3,35151.5,1.1921,1.1918,150.0,98.0,0.482
3.34,31999.6,35122.4,1.183,1.1902,150.0,98.0,0.482
3.36,32029.1,35025.6,1.1849,1.1845,150.0,98.0,0.482
3.38,32039.5,34931.8,1.1855,1.1791,150.0,98.0,0.482
3.4,32039.9,34864.7,1.1856,1.1752,150.0,98.0,0.482
3.42,31918.8,34751.6,1.1779,1.1687,150.0,98.0,0.482
3.44,31820.3,34661.8,1.1717,1.1635,150.0,98.0,0.482
3.46,31895.4,34643.6,1.1764,1.1624,150.0,98.0,0.482
3.48,31841.5,34609.8,1.173,1.1604,150.0,98.0,0.482
3.5,31820.8,34498.1,1.1717,1.154,150.0,98.0,0.482
3.52,31743.9,34491.3,1.1668,1.1536,150.0,98.0,0.482
3.54,31783.2,34437.0,1.1693,1.1504,150.0,98.0,0.482
3.56,31799.6,34537.7,1.1703,1.1563,150.0,98.0,0.482
3.58,31843.5,34864.9,1.1731,1.1752,150.0,98.0,0.482
3.6,32146.1,35157.9,1.1923,1.1922,150.0,98.0,0.482
3.62,32196.8,35476.9,1.1955,1.2107,150.0,98.0,0.482
3.64,32369.4,35725.6,1.2065,1.2251,150.0,98.0,0.482
3.66,32302.4,35753.0,1.2022,1.2267,150.0,98.0,0.482
3.68,32168.4,35573.3,1.1937,1.2163,150.0,98.0,0.482
3.7,32083.7,35311.5,1.1883,1.2011,150.0,98.0,0.482
3.72,32087.1,35145.5,1.1886,1.1915,150.0,98.0,0.482
3.74,32077.5,35073.3,1.188,1.1873,150.0,98.0,0.482
3.76,32008.7,35100.8,1.1836,1.1889,150.0,98.0,0.482
3.78,32037.7,35042.9,1.1854,1.1855,150.0,98.0,0.482
3.8,31887.6,34946.3,1.1759,1.1799,150.0,98.0,0.482
3.82,31903.3,34776.9,1.1769,1.1701,150.0,98.0,0.482
3.84,31883.9,34635.4,1.1757,1.1619,150.0,98.0,0.482
3.86,31852.9,34648.1,1.1737,1.1627,150.0,98.0,0.482
3.88,31815.3,34659.2,1.1713,1.1633,150.0,98.0,0.482
3.9,31904.7,34638.9,1.177,1.1621,150.0,98.0,0.482
3.92,31807.3,34567.5,1.1708,1.158,150.0,98.0,0.482
3.94,31758.8,34563.3,1.1678,1.1578,150.0,98.0,0.482
3.96,31796.6,34365.6,1.1702,1.1463,150.0,98.0,0.482
3.98,31961.6,34744.4,1.1806,1.1682,150.0,98.0,0.482
4.0,32021.0,35165.5,1.1844,1.1926,150.0,98.0,0.482
4.02,32274.0,35602.0,1.2004,1.2179,150.0,98.0,0.482
4.04,32363.8,35660.5,1.2061,1.2213,150.0,98.0,0.482
4.06,32318.7,35780.4,1.2032,1.2283,150.0,98.0,0.482
4.08,32251.1,35624.0,1.199,1.2192,150.0,98.0,0.482
4.1,32131.2,35449.7,1.1914,1.2091,150.0,98.0,0.482
4.12,32003.6,35162.7,1.1833,1.1925,150.0,98.0,0.482
4.14,32072.3,35136.6,1.1876,1.191,150.0,98.0,0.482
4.16,32103.3,35132.9,1.1896,1.1908,150.0,98.0,0.482
4.18,32070.8,35049.3,1.1875,1.1859,150.0,98.0,0.482
4.2,31957.5,34903.1,1.1804,1.1774,150.0,98.0,0.482
4.22,31935.1,34753.0,1.1789,1.1687,150.0,98.0,0.482
4.24,31893.6,34627.2,1.1763,1.1615,150.0,98.0,0.482
4.26,31815.2,34719.8,1.1713,1.1668,150.0,98.0,0.482
4.28,31973.2,34699.3,1.1813,1.1656,150.0,98.0,0.482
4.3,31811.8,34569.4,1.1711,1.1581,150.0,98.0,0.482
4.32,31833.0,34461.7,1.1725,1.1519,150.0,98.0,0.482
4.34,31714.4,34498.8,1.1649,1.154,150.0,98.0,0.482
4.36,31815.5,34565.9,1.1714,1.1579,150.0,98.0,0.482
4.38,31897.2,34848.4,1.1765,1.1743,150.0,98.0,0.482
4.4,32105.4,35218.5,1.1897,1.1957,150.0,98.0,0.482
4.42,32321.1,35502.3,1.2034,1.2122,150.0,98.0,0.482
4.44,32324.7,35681.8,1.2036,1.2226,150.0,98.0,0.482
4.46,32295.3,35671.6,1.2018,1.222,150.0,98.0,0.482
4.48,32298.7,35555.6,1.202,1.2153,150.0,98.0,0.482
4.5,32168.5,35338.4,1.1937,1.2027,150.0,98.0,0.482
4.52,31990.4,35234.6,1.1824,1.1967,150.0,98.0,0.482
4.54,32099.4,35103.3,1.1893,1.189,150.0,98.0,0.482
4.56,31954.3,35089.3,1.1802,1.1882,150.0,98.0,0.482
4.58,32033.7,35063.5,1.1852,1.1867,150.0,98.0,0.482
4.6,31955.7,34879.6,1.1802,1.1761,150.0,98.0,0.482
4.62,31817.2,34652.7,1.1715,1.1629,150.0,98.0,0.482
4.64,31871.5,34688.9,1.1749,1.165,150.0,98.0,0.482
4.66,31919.1,34747.1,1.1779,1.1684,150.0,98.0,0.482
4.68,31832.6,34631.8,1.1724,1.1617,150.0,98.0,0.482
4.7,31787.9,34535.9,1.1696,1.1562,150.0,98.0,0.482
4.72,31857.3,34484.8,1.174,1.1532,150.0,98.0,0.482
4.74,31799.2,34498.2,1.1703,1.154,150.0,98.0,0.482
4.76,31815.7,34543.1,1.1714,1.1566,150.0,98.0,0.482
4.78,31931.8,34868.9,1.1787,1.1755,150.0,98.0,0.482
4.8,32128.9,35222.8,1.1912,1.196,150.0,98.0,0.482
4.82,32255.0,35547.1,1.1992,1.2148,150.0,98.0,0.482
4.84,32329.7,35706.4,1.2039,1.224,150.0,98.0,0.482
4.86,32360.0,35705.5,1.2059,1.2239,150.0,98.0,0.482
4.88,32215.6,35532.0,1.1967,1.2139,150.0,98.0,0.482
4.9,32212.6,35373.8,1.1965,1.2047,150.0,98.0,0.482
4.92,32093.6,35168.6,1.189,1.1928,150.0,98.0,0.482
4.94,32047.5,35122.7,1.1861,1.1902,150.0,98.0,0.482
4.96,31970.9,35053.8,1.1812,1.1862,150.0,98.0,0.482
4.98,32071.5,35017.2,1.1876,1.1841,150.0,98.0,0.482
5.0,32053.7,34781.5,1.1864,1.1704,150.0,98.0,0.482
5.02,31947.1,34782.4,1.1797,1.1705,150.0,98.0,0.482
5.04,31883.7,34630.8,1.1757,1.1617,150.0,98.0,0.482
5.06,31873.3,34645.2,1.175,1.1625,150.0,98.0,0.482
5.08,31868.8,34709.9,1.1747,1.1662,150.0,98.0,0.482
5.1,31767.5,34625.0,1.1683,1.1613,150.0,98.0,0.482
5.12,31801.1,34462.7,1.1704,1.1519,150.0,98.0,0.482
5.14,31778.0,34537.3,1.169,1.1562,150.0,98.0,0.482
5.16,31921.6,34509.0,1.1781,1.1546,150.0,98.0,0.482
5.18,32020.7,34805.6,1.1844,1.1718,150.0,98.0,0.482
5.2,32058.4,35209.0,1.1867,1.1952,150.0,98.0,0.482
5.22,32147.4,35533.6,1.1924,1.214,150.0,98.0,0.482
5.24,32293.1,35755.7,1.2016,1.2268,150.0,98.0,0.482
5.26,32329.6,35774.1,1.2039,1.2279,150.0,98.0,0.482
5.28,32287.3,35619.1,1.2013,1.2189,150.0,98.0,0.482
5.3,32123.1,35408.7,1.1909,1.2067,150.0,98.0,0.482
5.32,32065.0,35163.2,1.1872,1.1925,150.0,98.0,0.482
5.34,32085.7,35166.1,1.1885,1.1927,150.0,98.0,0.482
5.36,32077.9,35126.0,1.188,1.1904,150.0,98.0,0.482
5.38,31956.1,34919.5,1.1803,1.1784,150.0,98.0,0.482
5.4,31845.8,34865.5,1.1733,1.1753,150.0,98.0,0.482
5.42,31902.0,34785.5,1.1768,1.1706,150.0,98.0,0.482
5.44,31848.7,34692.4,1.1735,1.1652,150.0,98.0,0.482
5.46,31903.4,34763.0,1.1769,1.1693,150.0,98.0,0.482
5.48,31799.2,34724.9,1.1703,1.1671,150.0,98.0,0.482
5.5,31859.3,34573.4,1.1741,1.1583,150.0,98.0,0.482
5.52,31701.8,34488.5,1.1641,1.1534,150.0,98.0,0.482
5.54,31725.0,34497.7,1.1656,1.154,150.0,98.0,0.482
5.56,31775.5,34548.1,1.1688,1.1569,150.0,98.0,0.482
5.58,31981.8,34653.2,1.1819,1.163,150.0,98.0,0.482
5.6,32063.5,35178.5,1.1871,1.1934,150.0,98.0,0.482
5.62,32205.7,35473.6,1.1961,1.2105,150.0,98.0,0.482
5.64,32277.4,35658.9,1.2006,1.2212,150.0,98.0,0.482
5.66,32286.3,35704.9,1.2012,1.2239,150.0,98.0,0.482
5.68,32280.4,35540.5,1.2008,1.2144,150.0,98.0,0.482
5.7,32198.4,35335.4,1.1956,1.2025,150.0,98.0,0.482
5.72,32169.5,35172.9,1.1938,1.1931,150.0,98.0,0.482
5.74,32021.5,35109.5,1.1844,1.1894,150.0,98.0,0.482
5.76,32053.8,35120.2,1.1865,1.19,150.0,98.0,0.482
5.78,32030.2,35110.9,1.185,1.1895,150.0,98.0,0.482
5.8,31928.5,34854.9,1.1785,1.1747,150.0,98.0,0.482
5.82,31887.8,34762.1,1.1759,1.1693,150.0,98.0,0.482
5.84,31790.1,34654.5,1.1697,1.163,150.0,98.0,0.482
5.86,31792.0,34736.3,1.1699,1.1678,150.0,98.0,0.482
5.88,31969.5,34766.1,1.1811,1.1695,150.0,98.0,0.482
5.9,31982.6,34619.6,1.1819,1.161,150.0,98.0,0.482
5.92,31771.5,34498.3,1.1686,1.154,150.0,98.0,0.482
5.94,31690.9,34477.7,1.1635,1.1528,150.0,98.0,0.482
5.96,31902.8,34542.2,1.1769,1.1565,150.0,98.0,0.482
5.98,31902.8,34793.8,1.1769,1.1711,150.0,98.0,0.482
6.0,32098.1,35209.4,1.1893,1.1952,150.0,98.0,0.482
6.02,32170.5,35630.9,1.1939,1.2196,150.0,98.0,0.482
6.04,32394.1,35684.6,1.208,1.2227,150.0,98.0,0.482
6.06,32291.5,35681.7,1.2015,1.2226,150.0,98.0,0.482
6.08,32272.4,35649.6,1.2003,1.2207,150.0,98.0,0.482
6.1,32159.5,35350.4,1.1932,1.2034,150.0,98.0,0.482
6.12,32029.7,35193.9,1.1849,1.1943,150.0,98.0,0.482
6.14,31951.2,35204.1,1.18,1.1949,150.0,98.0,0.482
6.16,32092.6,35091.9,1.1889,1.1884,150.0,98.0,0.482
6.18,31978.0,35023.6,1.1817,1.1844,150.0,98.0,0.482
6.2,31933.3,34912.3,1.1788,1.178,150.0,98.0,0.482
6.22,31966.3,34734.8,1.1809,1.1677,150.0,98.0,0.482
6.24,31894.1,34754.3,1.1763,1.1688,150.0,98.0,0.482
6.26,31850.0,34576.7,1.1735,1.1585,150.0,98.0,0.482
6.28,31890.7,34654.1,1.1761,1.163,150.0,98.0,0.482
6.3,31828.9,34530.8,1.1722,1.1559,150.0,98.0,0.482
6.32,31885.8,34443.9,1.1758,1.1508,150.0,98.0,0.482
6.34,31776.2,34449.6,1.1689,1.1512,150.0,98.0,0.482
6.36,31796.6,34472.0,1.1702,1.1525,150.0,98.0,0.482
6.38,31895.1,34755.7,1.1764,1.1689,150.0,98.0,0.482
6.4,32016.6,35191.8,1.1841,1.1942,150.0,98.0,0.482
6.42,32262.4,35520.2,1.1997,1.2132,150.0,98.0,0.482
6.44,32272.1,35754.6,1.2003,1.2268,150.0,98.0,0.482
6.46,32306.1,35759.4,1.2024,1.2271,150.0,98.0,0.482
6.48,32213.5,35553.3,1.1966,1.2151,150.0,98.0,0.482
6.5,32119.6,35275.4,1.1906,1.199,150.0,98.0,0.482
6.52,32104.9,35285.6,1.1897,1.1996,150.0,98.0,0.482
6.54,32056.7,35062.6,1.1866,1.1867,150.0,98.0,0.482
6.56,32027.3,35013.0,1.1848,1.1838,150.0,98.0,0.482
6.58,31899.6,34953.5,1.1767,1.1804,150.0,98.0,0.482
6.6,31909.7,34796.3,1.1773,1.1713,150.0,98.0,0.482
6.62,31838.1,34748.7,1.1728,1.1685,150.0,98.0,0.482
6.64,31894.9,34674.1,1.1764,1.1642,150.0,98.0,0.482
6.66,31887.8,34669.7,1.1759,1.1639,150.0,98.0,0.482
6.68,31884.1,34668.9,1.1757,1.1639,150.0,98.0,0.482
6.7,31784.1,34609.0,1.1694,1.1604,150.0,98.0,0.482
6.72,31778.0,34472.6,1.169,1.1525,150.0,98.0,0.482
6.74,31702.0,34346.0,1.1642,1.1452,150.0,98.0,0.482
6.76,31818.9,34571.9,1.1716,1.1583,150.0,98.0,0.482
6.78,31819.6,34752.7,1.1716,1.1687,150.0,98.0,0.482
6.8,32095.9,35174.2,1.1891,1.1932,150.0,98.0,0.482
6.82,32210.6,35511.6,1.1964,1.2127,150.0,98.0,0.482
6.84,32392.7,35772.1,1.2079,1.2278,150.0,98.0,0.482
6.86,32332.1,35733.1,1.2041,1.2255,150.0,98.0,0.482
6.88,32279.6,35589.4,1.2008,1.2172,150.0,98.0,0.482
6.9,32141.3,35383.6,1.192,1.2053,150.0,98.0,0.482
6.92,32096.4,35231.6,1.1892,1.1965,150.0,98.0,0.482
6.94,32040.4,35110.8,1.1856,1.1895,150.0,98.0,0.482
6.96,32043.7,35140.4,1.1858,1.1912,150.0,98.0,0.482
6.98,31914.7,34990.6,1.1776,1.1825,150.0,98.0,0.482
7.0,32027.2,34838.5,1.1848,1.1737,150.0,98.0,0.482
7.02,31935.8,34831.7,1.179,1.1733,150.0,98.0,0.482
7.04,31936.4,34648.4,1.179,1.1627,150.0,98.0,0.482
7.06,31782.9,34694.6,1.1693,1.1654,150.0,98.0,0.482
7.08,31837.0,34674.0,1.1727,1.1642,150.0,98.0,0.482
7.1,31847.2,34560.2,1.1734,1.1576,150.0,98.0,0.482
7.12,31808.3,34489.2,1.1709,1.1535,150.0,98.0,0.482
7.14,31801.9,34489.7,1.1705,1.1535,150.0,98.0,0.482
7.16,31851.1,34530.5,1.1736,1.1559,150.0,98.0,0.482
7.18,31851.9,34708.6,1.1737,1.1662,150.0,98.0,0.482
7.2,32077.6,35167.0,1.188,1.1927,150.0,98.0,0.482
7.22,32229.5,35536.8,1.1976,1.2142,150.0,98.0,0.482
7.24,32385.8,35709.6,1.2075,1.2242,150.0,98.0,0.482
7.26,32393.2,35749.1,1.208,1.2265,150.0,98.0,0.482
7.28,32210.8,35541.7,1.1964,1.2144,150.0,98.0,0.482
7.3,32153.2,35432.0,1.1928,1.2081,150.0,98.0,0.482
7.32,32059.6,35172.6,1.1868,1.1931,150.0,98.0,0.482
7.34,32027.2,35189.5,1.1848,1.194,150.0,98.0,0.482
7.36,32027.2,35113.6,1.1848,1.1896,150.0,98.0,0.482
7.38,32071.2,35041.8,1.1876,1.1855,150.0,98.0,0.482
7.4,31970.9,34883.1,1.1812,1.1763,150.0,98.0,0.482
7.42,31978.0,34737.1,1.1817,1.1678,150.0,98.0,0.482
7.44,31895.1,34670.0,1.1764,1.1639,150.0,98.0,0.482
7.46,31799.8,34664.9,1.1704,1.1636,150.0,98.0,0.482
7.48,31838.5,34613.3,1.1728,1.1607,150.0,98.0,0.482
7.5,31839.3,34588.5,1.1729,1.1592,150.0,98.0,0.482
7.52,31759.1,34526.9,1.1678,1.1556,150.0,98.0,0.482
7.54,31764.0,34455.2,1.1681,1.1515,150.0,98.0,0.482
7.56,31757.4,34608.1,1.1677,1.1603,150.0,98.0,0.482
7.58,31883.0,34797.9,1.1756,1.1713,150.0,98.0,0.482
7.6,32013.5,35215.0,1.1839,1.1955,150.0,98.0,0.482
7.62,32167.3,35563.3,1.1937,1.2157,150.0,98.0,0.482
7.64,32351.9,35774.1,1.2053,1.2279,150.0,98.0,0.482
7.66,32291.6,35794.5,1.2015,1.2291,150.0,98.0,0.482
7.68,32242.9,35573.4,1.1984,1.2163,150.0,98.0,0.482
7.7,32042.3,35390.6,1.1857,1.2057,150.0,98.0,0.482
7.72,32058.2,35159.9,1.1867,1.1923,150.0,98.0,0.482
7.74,32065.2,35133.2,1.1872,1.1908,150.0,98.0,0.482
7.76,32021.6,35043.7,1.1844,1.1856,150.0,98.0,0.482
7.78,31985.4,34972.7,1.1821,1.1815,150.0,98.0,0.482
7.8,32032.9,34848.8,1.1851,1.1743,150.0,98.0,0.482
7.82,31834.9,34759.1,1.1726,1.1691,150.0,98.0,0.482
7.84,31776.7,34591.4,1.1689,1.1594,150.0,98.0,0.482
7.86,31864.8,34725.1,1.1745,1.1671,150.0,98.0,0.482
7.88,31874.7,34688.5,1.1751,1.165,150.0,98.0,0.482
7.9,31805.5,34447.8,1.1707,1.1511,150.0,98.0,0.482
7.92,31773.1,34494.5,1.1687,1.1538,150.0,98.0,0.482
7.94,31691.6,34547.6,1.1635,1.1568,150.0,98.0,0.482
7.96,31858.2,34542.7,1.1741,1.1566,150.0,98.0,0.482
7.98,31885.8,34792.2,1.1758,1.171,150.0,98.0,0.482
8.0,32116.1,35187.1,1.1904,1.1939,150.0,98.0,0.482
8.02,32221.4,35482.0,1.1971,1.211,150.0,98.0,0.482
8.04,32294.4,35728.0,1.2017,1.2252,150.0,98.0,0.482
8.06,32352.3,35605.1,1.2054,1.2181,150.0,98.0,0.482
8.08,32266.2,35534.6,1.1999,1.214,150.0,98.0,0.482
8.1,32133.9,35281.0,1.1915,1.1993,150.0,98.0,0.482
8.12,32070.0,35191.0,1.1875,1.1941,150.0,98.0,0.482
8.14,32031.9,35189.8,1.1851,1.1941,150.0,98.0,0.482
8.16,32018.9,35067.4,1.1842,1.187,150.0,98.0,0.482
8.18,31980.0,34963.0,1.1818,1.1809,150.0,98.0,0.482
8.2,31963.9,34896.0,1.1808,1.177,150.0,98.0,0.482
8.22,31898.9,34707.7,1.1766,1.1661,150.0,98.0,0.482
8.24,31977.4,34690.4,1.1816,1.1651,150.0,98.0,0.482
8.26,31908.9,34596.7,1.1773,1.1597,150.0,98.0,0.482
8.28,31896.3,34714.0,1.1765,1.1665,150.0,98.0,0.482
8.3,31830.2,34589.9,1.1723,1.1593,150.0,98.0,0.482
8.32,31759.5,34585.2,1.1678,1.159,150.0,98.0,0.482
8.34,31700.8,34497.0,1.1641,1.1539,150.0,98.0,0.482
8.36,31803.8,34461.0,1.1706,1.1518,150.0,98.0,0.482
8.38,31843.4,34714.1,1.1731,1.1665,150.0,98.0,0.482
8.4,32084.5,35159.2,1.1884,1.1923,150.0,98.0,0.482
8.42,32321.5,35429.5,1.2034,1.2079,150.0,98.0,0.482
8.44,32329.7,35702.6,1.2039,1.2238,150.0,98.0,0.482
8.46,32366.8,35708.6,1.2063,1.2241,150.0,98.0,0.482
8.48,32210.6,35621.8,1.1964,1.2191,150.0,98.0,0.482
8.5,32245.2,35309.1,1.1986,1.201,150.0,98.0,0.482
8.52,32083.4,35159.9,1.1883,1.1923,150.0,98.0,0.482
8.54,32107.9,35103.2,1.1899,1.189,150.0,98.0,0.482
8.56,32008.1,35037.3,1.1836,1.1852,150.0,98.0,0.482
8.58,32071.3,35014.3,1.1876,1.1839,150.0,98.0,0.482
8.6,32018.2,34850.2,1.1842,1.1744,150.0,98.0,0.482
8.62,31922.6,34797.1,1.1781,1.1713,150.0,98.0,0.482
8.64,31804.2,34793.6,1.1706,1.1711,150.0,98.0,0.482
8.66,31889.3,34656.6,1.176,1.1632,150.0,98.0,0.482
8.68,31813.6,34649.5,1.1712,1.1627,150.0,98.0,0.482
8.7,31816.4,34569.3,1.1714,1.1581,150.0,98.0,0.482
8.72,31818.5,34577.8,1.1715,1.1586,150.0,98.0,0.482
8.74,31796.3,34424.8,1.1701,1.1497,150.0,98.0,0.482
8.76,31772.7,34538.4,1.1686,1.1563,150.0,98.0,0.482
8.78,31879.4,34767.9,1.1754,1.1696,150.0,98.0,0.482
8.8,32076.2,35184.0,1.1879,1.1937,150.0,98.0,0.482
8.82,32244.2,35445.3,1.1985,1.2089,150.0,98.0,0.482
8.84,32256.1,35806.8,1.1993,1.2298,150.0,98.0,0.482
8.86,32285.2,35699.3,1.2011,1.2236,150.0,98.0,0.482
8.88,32272.3,35579.4,1.2003,1.2166,150.0,98.0,0.482
8.9,32171.0,35477.6,1.1939,1.2107,150.0,98.0,0.482
8.92,32130.0,35271.4,1.1913,1.1988,150.0,98.0,0.482
8.94,32071.1,35106.2,1.1876,1.1892,150.0,98.0,0.482
8.96,32005.2,35123.4,1.1834,1.1902,150.0,98.0,0.482
8.98,32007.7,35029.0,1.1835,1.1847,150.0,98.0,0.482
9.0,31933.8,34855.3,1.1789,1.1747,150.0,98.0,0.482
9.02,31924.1,34834.2,1.1782,1.1735,150.0,98.0,0.482
9.04,31871.5,34707.7,1.1749,1.1661,150.0,98.0,0.482
9.06,31851.1,34650.9,1.1736,1.1628,150.0,98.0,0.482
9.08,31887.2,34664.5,1.1759,1.1636,150.0,98.0,0.482
9.1,31921.0,34551.7,1.178,1.1571,150.0,98.0,0.482
9.12,31736.6,34479.1,1.1664,1.1529,150.0,98.0,0.482
9.14,31807.9,34531.1,1.1709,1.1559,150.0,98.0,0.482
9.16,31917.8,34579.1,1.1778,1.1587,150.0,98.0,0.482
9.18,32029.4,34797.6,1.1849,1.1713,150.0,98.0,0.482
9.2,32121.4,35153.5,1.1907,1.192,150.0,98.0,0.482
9.22,32308.0,35464.0,1.2026,1.2099,150.0,98.0,0.482
9.24,32261.2,35725.4,1.1996,1.2251,150.0,98.0,0.482
9.26,32274.6,35729.1,1.2004,1.2253,150.0,98.0,0.482
9.28,32229.5,35537.0,1.1976,1.2142,150.0,98.0,0.482
9.3,32135.7,35458.0,1.1916,1.2096,150.0,98.0,0.482
9.32,32107.9,35151.2,1.1899,1.1918,150.0,98.0,0.482
9.34,32011.0,35127.2,1.1837,1.1904,150.0,98.0,0.482
9.36,31961.7,35026.7,1.1806,1.1846,150.0,98.0,0.482
9.38,32000.3,34989.5,1.1831,1.1825,150.0,98.0,0.482
9.4,31928.1,34919.1,1.1785,1.1784,150.0,98.0,0.482
9.42,31877.1,34731.2,1.1753,1.1675,150.0,98.0,0.482
9.44,31907.1,34678.4,1.1772,1.1644,150.0,98.0,0.482
9.46,31943.0,34597.1,1.1794,1.1597,150.0,98.0,0.482
9.48,31888.9,34601.6,1.176,1.16,150.0,98.0,0.482
9.5,31885.7,34682.9,1.1758,1.1647,150.0,98.0,0.482
9.52,31784.8,34460.8,1.1694,1.1518,150.0,98.0,0.482
9.54,31748.5,34384.1,1.1671,1.1474,150.0,98.0,0.482
9.56,31825.3,34664.1,1.172,1.1636,150.0,98.0,0.482
9.58,31871.7,34831.6,1.1749,1.1733,150.0,98.0,0.482
9.6,32040.2,35217.9,1.1856,1.1957,150.0,98.0,0.482
9.62,32134.4,35564.6,1.1916,1.2158,150.0,98.0,0.482
9.64,32371.5,35769.7,1.2066,1.2277,150.0,98.0,0.482
9.66,32363.0,35798.1,1.2061,1.2293,150.0,98.0,0.482
9.68,32243.8,35519.4,1.1985,1.2132,150.0,98.0,0.482
9.7,32164.7,35353.8,1.1935,1.2036,150.0,98.0,0.482
9.72,32160.0,35195.0,1.1932,1.1944,150.0,98.0,0.482
9.74,32099.4,35158.0,1.1893,1.1922,150.0,98.0,0.482
9.76,32018.6,35087.1,1.1842,1.1881,150.0,98.0,0.482
9.78,32055.8,35022.0,1.1866,1.1843,150.0,98.0,0.482
9.8,31919.1,34847.4,1.1779,1.1742,150.0,98.0,0.482
9.82,31934.8,34700.6,1.1789,1.1657,150.0,98.0,0.482
9.84,31887.8,34676.4,1.1759,1.1643,150.0,98.0,0.482
9.86,31744.2,34554.8,1.1668,1.1573,150.0,98.0,0.482
9.88,31891.7,34629.2,1.1762,1.1616,150.0,98.0,0.482
9.9,31918.4,34585.6,1.1779,1.159,150.0,98.0,0.482
9.92,31762.3,34544.6,1.168,1.1567,150.0,98.0,0.482
9.94,31844.0,34456.6,1.1732,1.1516,150.0,98.0,0.482
9.96,31763.4,34514.7,1.168,1.1549,150.0,98.0,0.482
9.98,31850.6,34825.3,1.1736,1.1729,150.0,98.0,0.482
10.0,32074.7,35166.6,1.1878,1.1927,150.0,98.0,0.482
10.02,32237.7,35537.1,1.1981,1.2142,150.0,98.0,0.482
10.04,32398.2,35808.1,1.2083,1.2299,150.0,98.0,0.482
10.06,32270.9,35636.5,1.2002,1.2199,150.0,98.0,0.482
10.08,32162.8,35625.7,1.1934,1.2193,150.0,98.0,0.482
10.1,32144.7,35264.4,1.1922,1.1984,150.0,98.0,0.482
10.12,32073.7,35300.0,1.1877,1.2004,150.0,98.0,0.482
10.14,32061.7,35003.5,1.187,1.1833,150.0,98.0,0.482
10.16,32012.2,35046.2,1.1838,1.1857,150.0,98.0,0.482
10.18,31966.9,35077.7,1.1809,1.1876,150.0,98.0,0.482
10.2,31890.8,34868.8,1.1761,1.1755,150.0,98.0,0.482
10.22,31833.1,34809.7,1.1725,1.172,150.0,98.0,0.482
10.24,31891.4,34655.2,1.1762,1.1631,150.0,98.0,0.482
10.26,31968.6,34710.5,1.1811,1.1663,150.0,98.0,0.482
10.28,31914.7,34657.0,1.1776,1.1632,150.0,98.0,0.482
10.3,31848.3,34680.5,1.1734,1.1645,150.0,98.0,0.482
10.32,31778.0,34500.2,1.169,1.1541,150.0,98.0,0.482
10.34,31778.2,34437.0,1.169,1.1504,150.0,98.0,0.482
10.36,31832.7,34495.3,1.1724,1.1538,150.0,98.0,0.482
10.38,31930.3,34814.5,1.1786,1.1723,150.0,98.0,0.482
10.4,32091.3,35231.0,1.1888,1.1964,150.0,98.0,0.482
10.42,32180.7,35591.2,1.1945,1.2173,150.0,98.0,0.482
10.44,32340.8,35645.9,1.2046,1.2205,150.0,98.0,0.482
10.46,32334.0,35680.1,1.2042,1.2225,150.0,98.0,0.482
10.48,32288.6,35612.9,1.2013,1.2186,150.0,98.0,0.482
10.5,32193.9,35394.1,1.1953,1.2059,150.0,98.0,0.482
10.52,32038.5,35231.0,1.1855,1.1964,150.0,98.0,0.482
10.54,32082.2,35115.0,1.1883,1.1897,150.0,98.0,0.482
10.56,32118.1,35094.0,1.1905,1.1885,150.0,98.0,0.482
10.58,31974.9,34918.2,1.1815,1.1783,150.0,98.0,0.482
10.6,31931.3,34904.7,1.1787,1.1775,150.0,98.0,0.482
10.62,31888.9,34857.4,1.176,1.1748,150.0,98.0,0.482
10.64,31933.0,34701.7,1.1788,1.1658,150.0,98.0,0.482
10.66,31886.4,34661.5,1.1758,1.1634,150.0,98.0,0.482
10.68,31868.5,34669.7,1.1747,1.1639,150.0,98.0,0.482
10.7,31797.9,34584.8,1.1702,1.159,150.0,98.0,0.482
10.72,31764.7,34606.1,1.1681,1.1602,150.0,98.0,0.482
10.74,31801.2,34485.6,1.1704,1.1533,150.0,98.0,0.482
10.76,31792.3,34566.4,1.1699,1.1579,150.0,98.0,0.482
10.78,31904.9,34740.8,1.177,1.168,150.0,98.0,0.482
10.8,32085.9,35142.3,1.1885,1.1913,150.0,98.0,0.482
10.82,32251.9,35500.6,1.199,1.2121,150.0,98.0,0.482
10.84,32308.7,35718.1,1.2026,1.2247,150.0,98.0,0.482
10.86,32273.3,35627.5,1.2004,1.2194,150.0,98.0,0.482
10.88,32255.8,35543.1,1.1993,1.2145,150.0,98.0,0.482
10.9,32134.9,35380.6,1.1916,1.2051,150.0,98.0,0.482
10.92,32134.7,35132.2,1.1916,1.1907,150.0,98.0,0.482
10.94,32137.9,35099.6,1.1918,1.1888,150.0,98.0,0.482
10.96,32042.6,35010.0,1.1857,1.1836,150.0,98.0,0.482
10.98,32013.3,35073.7,1.1839,1.1873,150.0,98.0,0.482
11.0,31915.6,34792.1,1.1777,1.171,150.0,98.0,0.482
11.02,31834.7,34788.6,1.1726,1.1708,150.0,98.0,0.482
11.04,31881.8,34682.7,1.1756,1.1647,150.0,98.0,0.482
11.06,31880.2,34655.1,1.1754,1.1631,150.0,98.0,0.482
11.08,31809.7,34646.7,1.171,1.1626,150.0,98.0,0.482
11.1,31783.0,34626.8,1.1693,1.1614,150.0,98.0,0.482
11.12,31758.5,34556.8,1.1677,1.1574,150.0,98.0,0.482
11.14,31719.8,34491.0,1.1653,1.1536,150.0,98.0,0.482
11.16,31746.0,34519.6,1.1669,1.1552,150.0,98.0,0.482
11.18,31856.9,34773.6,1.174,1.1699,150.0,98.0,0.482
11.2,32038.3,35170.2,1.1855,1.1929,150.0,98.0,0.482
11.22,32270.0,35535.3,1.2002,1.2141,150.0,98.0,0.482
11.24,32284.8,35734.0,1.2011,1.2256,150.0,98.0,0.482
11.26,32404.2,35742.5,1.2087,1.2261,150.0,98.0,0.482
11.28,32140.7,35547.9,1.192,1.2148,150.0,98.0,0.482
11.3,32124.7,35410.8,1.191,1.2069,150.0,98.0,0.482
11.32,32165.5,35283.3,1.1935,1.1995,150.0,98.0,0.482
11.34,32073.2,35194.0,1.1877,1.1943,150.0,98.0,0.482
11.36,32088.2,35093.4,1.1886,1.1885,150.0,98.0,0.482
11.38,31997.8,35001.7,1.1829,1.1832,150.0,98.0,0.482
11.4,32017.3,34904.1,1.1841,1.1775,150.0,98.0,0.482
11.42,31876.9,34763.8,1.1752,1.1694,150.0,98.0,0.482
11.44,31922.3,34711.0,1.1781,1.1663,150.0,98.0,0.482
11.46,31893.5,34676.6,1.1763,1.1643,150.0,98.0,0.482
11.48,31768.0,34771.7,1.1683,1.1698,150.0,98.0,0.482
11.5,31844.0,34534.7,1.1732,1.1561,150.0,98.0,0.482
11.52,31810.8,34461.0,1.1711,1.1518,150.0,98.0,0.482
11.54,31697.7,34396.6,1.1639,1.1481,150.0,98.0,0.482
11.56,31798.4,34605.8,1.1703,1.1602,150.0,98.0,0.482
11.58,31889.6,34867.3,1.176,1.1754,150.0,98.0,0.482
11.6,32038.3,35182.6,1.1855,1.1936,150.0,98.0,0.482
11.62,32158.8,35445.9,1.1931,1.2089,150.0,98.0,0.482
11.64,32405.9,35673.5,1.2088,1.2221,150.0,98.0,0.482
11.66,32350.6,35656.9,1.2053,1.2211,150.0,98.0,0.482
11.68,32239.3,35578.0,1.1982,1.2165,150.0,98.0,0.482
11.7,32174.4,35376.6,1.1941,1.2049,150.0,98.0,0.482
11.72,32030.5,35168.1,1.185,1.1928,150.0,98.0,0.482
11.74,32085.1,35148.9,1.1884,1.1917,150.0,98.0,0.482
11.76,31962.0,35119.3,1.1806,1.19,150.0,98.0,0.482
11.78,32004.1,34998.1,1.1833,1.1829,150.0,98.0,0.482
11.8,31926.2,34822.2,1.1784,1.1728,150.0,98.0,0.482
11.82,31987.7,34645.3,1.1823,1.1625,150.0,98.0,0.482
11.84,31892.5,34673.2,1.1762,1.1641,150.0,98.0,0.482
11.86,31865.8,34711.0,1.1745,1.1663,150.0,98.0,0.482
11.88,31969.5,34691.1,1.1811,1.1652,150.0,98.0,0.482
11.9,31861.9,34633.1,1.1743,1.1618,150.0,98.0,0.482
11.92,31692.8,34444.7,1.1636,1.1509,150.0,98.0,0.482
11.94,31833.7,34516.6,1.1725,1.155,150.0,98.0,0.482
11.96,31835.4,34490.3,1.1726,1.1535,150.0,98.0,0.482
11.98,31937.9,34796.1,1.1791,1.1712,150.0,98.0,0.482
12.0,32046.1,35160.5,1.186,1.1924,150.0,98.0,0.482
12.02,32217.4,35448.8,1.1968,1.2091,150.0,98.0,0.482
12.04,32362.1,35721.9,1.206,1.2249,150.0,98.0,0.482
12.06,32322.5,35748.4,1.2035,1.2264,150.0,98.0,0.482
12.08,32260.7,35677.1,1.1996,1.2223,150.0,98.0,0.482
12.1,32113.1,35396.2,1.1902,1.206,150.0,98.0,0.482
12.12,32076.9,35256.8,1.1879,1.1979,150.0,98.0,0.482
12.14,31987.7,35079.1,1.1823,1.1876,150.0,98.0,0.482
12.16,32103.3,35098.3,1.1896,1.1888,150.0,98.0,0.482
12.18,31992.7,34999.1,1.1826,1.183,150.0,98.0,0.482
12.2,31911.5,34839.3,1.1774,1.1737,150.0,98.0,0.482
12.22,31882.4,34703.9,1.1756,1.1659,150.0,98.0,0.482
12.24,31894.5,34615.9,1.1764,1.1608,150.0,98.0,0.482
12.26,31875.2,34716.5,1.1751,1.1666,150.0,98.0,0.482
12.28,31744.2,34672.9,1.1668,1.1641,150.0,98.0,0.482
12.3,31935.1,34519.4,1.1789,1.1552,150.0,98.0,0.482
12.32,31908.9,34444.1,1.1773,1.1508,150.0,98.0,0.482
12.34,31823.7,34509.3,1.1719,1.1546,150.0,98.0,0.482
12.36,31851.7,34479.4,1.1736,1.1529,150.0,98.0,0.482
12.38,31877.6,34785.4,1.1753,1.1706,150.0,98.0,0.482
12.4,31968.7,35080.4,1.1811,1.1877,150.0,98.0,0.482
12.42,32268.5,35550.3,1.2001,1.2149,150.0,98.0,0.482
12.44,32403.5,35698.8,1.2086,1.2236,150.0,98.0,0.482
12.46,32345.8,35770.1,1.205,1.2277,150.0,98.0,0.482
12.48,32258.0,35540.0,1.1994,1.2144,150.0,98.0,0.482
12.5,32090.8,35385.1,1.1888,1.2054,150.0,98.0,0.482
12.52,32100.9,35274.2,1.1894,1.1989,150.0,98.0,0.482
12.54,32060.2,35068.2,1.1869,1.187,150.0,98.0,0.482
12.56,32069.8,35085.1,1.1875,1.188,150.0,98.0,0.482
12.58,32078.0,35024.6,1.188,1.1845,150.0,98.0,0.482
12.6,31960.3,34940.6,1.1805,1.1796,150.0,98.0,0.482
12.62,31904.3,34699.5,1.177,1.1656,150.0,98.0,0.482
12.64,31908.3,34705.0,1.1772,1.166,150.0,98.0,0.482
12.66,31870.6,34671.3,1.1748,1.164,150.0,98.0,0.482
12.68,31879.1,34734.0,1.1754,1.1676,150.0,98.0,0.482
12.7,31792.1,34631.3,1.1699,1.1617,150.0,98.0,0.482
12.72,31746.8,34430.4,1.167,1.1501,150.0,98.0,0.482
12.74,31747.2,34474.9,1.167,1.1526,150.0,98.0,0.482
12.76,31873.3,34418.2,1.175,1.1493,150.0,98.0,0.482
12.78,31906.3,34754.1,1.1771,1.1688,150.0,98.0,0.482
12.8,32123.3,35092.0,1.1909,1.1884,150.0,98.0,0.482
12.82,32094.4,35587.9,1.189,1.2171,150.0,98.0,0.482
12.84,32276.3,35746.9,1.2006,1.2263,150.0,98.0,0.482
12.86,32349.6,35766.1,1.2052,1.2274,150.0,98.0,0.482
12.88,32206.7,35629.1,1.1961,1.2195,150.0,98.0,0.482
12.9,32178.8,35375.3,1.1944,1.2048,150.0,98.0,0.482
12.92,32036.6,35227.8,1.1854,1.1963,150.0,98.0,0.482
12.94,32120.9,35093.2,1.1907,1.1885,150.0,98.0,0.482
12.96,31973.8,35114.1,1.1814,1.1897,150.0,98.0,0.482
12.98,31921.1,34988.7,1.178,1.1824,150.0,98.0,0.482
13.0,31926.9,34940.9,1.1784,1.1796,150.0,98.0,0.482
13.02,31912.8,34686.3,1.1775,1.1649,150.0,98.0,0.482
13.04,31827.7,34680.1,1.1721,1.1645,150.0,98.0,0.482
13.06,31914.7,34652.2,1.1776,1.1629,150.0,98.0,0.482
13.08,31841.5,34699.1,1.173,1.1656,150.0,98.0,0.482
13.1,31785.3,34513.7,1.1694,1.1549,150.0,98.0,0.482
13.12,31770.0,34454.0,1.1685,1.1514,150.0,98.0,0.482
13.14,31767.1,34424.9,1.1683,1.1497,150.0,98.0,0.482
13.16,31844.9,34573.9,1.1732,1.1584,150.0,98.0,0.482
13.18,31868.9,34720.8,1.1747,1.1669,150.0,98.0,0.482
13.2,32044.4,35002.8,1.1859,1.1832,150.0,98.0,0.482
13.22,32241.6,35613.7,1.1984,1.2186,150.0,98.0,0.482
13.24,32385.7,35795.1,1.2075,1.2291,150.0,98.0,0.482
13.26,32362.2,35733.6,1.206,1.2256,150.0,98.0,0.482
13.28,32173.2,35617.3,1.194,1.2188,150.0,98.0,0.482
13.3,32105.2,35385.9,1.1897,1.2054,150.0,98.0,0.482
13.32,32057.5,35251.1,1.1867,1.1976,150.0,98.0,0.482
13.34,32047.1,35102.5,1.186,1.189,150.0,98.0,0.482
13.36,32070.7,35104.8,1.1875,1.1891,150.0,98.0,0.482
13.38,31866.2,34946.9,1.1746,1.18,150.0,98.0,0.482
13.4,31907.2,34877.8,1.1772,1.176,150.0,98.0,0.482
13.42,31919.2,34786.7,1.1779,1.1707,150.0,98.0,0.482
13.44,31896.4,34730.0,1.1765,1.1674,150.0,98.0,0.482
13.46,31837.3,34682.7,1.1727,1.1647,150.0,98.0,0.482
13.48,31951.8,34602.4,1.18,1.16,150.0,98.0,0.482
13.5,31816.3,34485.2,1.1714,1.1532,150.0,98.0,0.482
13.52,31881.7,34483.7,1.1755,1.1531,150.0,98.0,0.482
13.54,31808.0,34456.4,1.1709,1.1516,150.0,98.0,0.482
13.56,31863.7,34418.8,1.1744,1.1494,150.0,98.0,0.482
13.58,31908.2,34798.1,1.1772,1.1714,150.0,98.0,0.482
13.6,32126.6,35173.9,1.1911,1.1931,150.0,98.0,0.482
13.62,32231.9,35421.7,1.1977,1.2075,150.0,98.0,0.482
13.64,32459.1,35751.0,1.2121,1.2266,150.0,98.0,0.482
13.66,32319.9,35822.4,1.2033,1.2307,150.0,98.0,0.482
13.68,32369.3,35592.8,1.2065,1.2174,150.0,98.0,0.482
13.7,32251.8,35397.1,1.199,1.2061,150.0,98.0,0.482
13.72,32063.7,35227.0,1.1871,1.1962,150.0,98.0,0.482
13.74,32108.1,35146.9,1.1899,1.1916,150.0,98.0,0.482
13.76,32074.3,35084.2,1.1878,1.1879,150.0,98.0,0.482
13.78,31996.0,34905.0,1.1828,1.1776,150.0,98.0,0.482
13.8,31866.4,34898.1,1.1746,1.1772,150.0,98.0,0.482
13.82,31916.2,34772.4,1.1777,1.1699,150.0,98.0,0.482
13.84,31838.2,34675.9,1.1728,1.1643,150.0,98.0,0.482
13.86,31831.4,34661.6,1.1724,1.1634,150.0,98.0,0.482
13.88,31865.9,34677.5,1.1745,1.1644,150.0,98.0,0.482
13.9,31826.4,34644.2,1.172,1.1624,150.0,98.0,0.482
13.92,31752.2,34532.8,1.1673,1.156,150.0,98.0,0.482
13.94,31798.0,34431.0,1.1702,1.1501,150.0,98.0,0.482
13.96,31761.8,34508.8,1.1679,1.1546,150.0,98.0,0.482
13.98,31862.9,34713.5,1.1744,1.1665,150.0,98.0,0.482
14.0,32068.4,35183.8,1.1874,1.1937,150.0,98.0,0.482
14.02,32278.8,35505.5,1.2007,1.2124,150.0,98.0,0.482
14.04,32435.0,35723.6,1.2106,1.225,150.0,98.0,0.482
14.06,32274.3,35795.5,1.2004,1.2292,150.0,98.0,0.482
14.08,32294.3,35674.2,1.2017,1.2221,150.0,98.0,0.482
14.1,32192.4,35372.9,1.1952,1.2047,150.0,98.0,0.482
14.12,32143.9,35224.3,1.1922,1.1961,150.0,98.0,0.482
14.14,32071.9,35206.6,1.1876,1.195,150.0,98.0,0.482
14.16,32024.0,35153.8,1.1846,1.192,150.0,98.0,0.482
14.18,31852.3,35045.9,1.1737,1.1857,150.0,98.0,0.482
14.2,31925.3,34900.0,1.1783,1.1773,150.0,98.0,0.482
14.22,31949.3,34794.8,1.1798,1.1712,150.0,98.0,0.482
14.24,31867.2,34682.3,1.1746,1.1647,150.0,98.0,0.482
14.26,31884.1,34759.8,1.1757,1.1691,150.0,98.0,0.482
14.28,31883.9,34632.1,1.1757,1.1617,150.0,98.0,0.482
14.3,31845.2,34656.3,1.1732,1.1631,150.0,98.0,0.482
14.32,31718.2,34431.6,1.1652,1.1501,150.0,98.0,0.482
14.34,31768.9,34447.5,1.1684,1.151,150.0,98.0,0.482
14.36,31841.5,34573.4,1.173,1.1583,150.0,98.0,0.482
14.38,31922.3,34828.9,1.1781,1.1731,150.0,98.0,0.482
14.4,32013.6,35186.7,1.1839,1.1939,150.0,98.0,0.482
14.42,32231.3,35505.6,1.1977,1.2124,150.0,98.0,0.482
14.44,32307.1,35635.1,1.2025,1.2199,150.0,98.0,0.482
14.46,32342.3,35690.7,1.2047,1.2231,150.0,98.0,0.482
14.48,32205.2,35602.4,1.196,1.218,150.0,98.0,0.482
14.5,32202.0,35354.5,1.1959,1.2036,150.0,98.0,0.482
14.52,32087.4,35168.9,1.1886,1.1928,150.0,98.0,0.482
14.54,32015.4,35086.8,1.184,1.1881,150.0,98.0,0.482
14.56,32082.1,35135.3,1.1882,1.1909,150.0,98.0,0.482
14.58,32035.8,34946.8,1.1853,1.18,150.0,98.0,0.482
14.6,31921.4,34912.0,1.1781,1.178,150.0,98.0,0.482
14.62,31881.7,34798.3,1.1755,1.1714,150.0,98.0,0.482
14.64,31949.2,34641.8,1.1798,1.1623,150.0,98.0,0.482
14.66,31895.5,34622.2,1.1764,1.1612,150.0,98.0,0.482
14.68,31820.8,34684.9,1.1717,1.1648,150.0,98.0,0.482
14.7,31860.6,34572.6,1.1742,1.1583,150.0,98.0,0.482
14.72,31832.0,34512.6,1.1724,1.1548,150.0,98.0,0.482
14.74,31784.5,34380.4,1.1694,1.1472,150.0,98.0,0.482
14.76,31799.8,34576.2,1.1704,1.1585,150.0,98.0,0.482
14.78,31887.3,34818.8,1.1759,1.1726,150.0,98.0,0.482
14.8,32143.2,35063.7,1.1921,1.1868,150.0,98.0,0.482
14.82,32207.0,35424.2,1.1962,1.2076,150.0,98.0,0.482
14.84,32340.4,35776.5,1.2046,1.2281,150.0,98.0,0.482
14.86,32279.1,35767.1,1.2007,1.2275,150.0,98.0,0.482
14.88,32250.8,35552.0,1.1989,1.215,150.0,98.0,0.482
14.9,32221.9,35414.6,1.1971,1.2071,150.0,98.0,0.482
14.92,32048.6,35321.9,1.1861,1.2017,150.0,98.0,0.482
14.94,32011.1,35175.4,1.1838,1.1932,150.0,98.0,0.482
14.96,32018.7,35116.9,1.1842,1.1898,150.0,98.0,0.482
14.98,31939.3,34983.2,1.1792,1.1821,150.0,98.0,0.482
15.0,31870.4,34908.0,1.1748,1.1777,150.0,98.0,0.482
15.02,31883.2,34764.6,1.1756,1.1694,150.0,98.0,0.482
15.04,31891.1,34611.0,1.1761,1.1605,150.0,98.0,0.482
15.06,31827.0,34570.5,1.1721,1.1582,150.0,98.0,0.482
15.08,31892.2,34655.2,1.1762,1.1631,150.0,98.0,0.482
15.1,31797.2,34655.0,1.1702,1.1631,150.0,98.0,0.482
15.12,31841.3,34462.7,1.173,1.1519,150.0,98.0,0.482
15.14,31776.7,34404.5,1.1689,1.1485,150.0,98.0,0.482
15.16,31781.1,34635.2,1.1692,1.1619,150.0,98.0,0.482
15.18,31856.5,34802.0,1.1739,1.1716,150.0,98.0,0.482
15.2,32066.0,35145.9,1.1872,1.1915,150.0,98.0,0.482
15.22,32250.1,35601.0,1.1989,1.2179,150.0,98.0,0.482
15.24,32239.7,35786.5,1.1982,1.2286,150.0,98.0,0.482
15.26,32244.6,35712.8,1.1986,1.2244,150.0,98.0,0.482
15.28,32290.5,35653.2,1.2015,1.2209,150.0,98.0,0.482
15.3,32043.0,35249.6,1.1858,1.1975,150.0,98.0,0.482
15.32,32108.0,35298.5,1.1899,1.2004,150.0,98.0,0.482
15.34,32048.9,35148.8,1.1861,1.1917,150.0,98.0,0.482
15.36,32012.0,35061.2,1.1838,1.1866,150.0,98.0,0.482
15.38,31980.5,34999.1,1.1818,1.183,150.0,98.0,0.482
15.4,31973.6,34933.6,1.1814,1.1792,150.0,98.0,0.482
15.42,31963.0,34675.9,1.1807,1.1643,150.0,98.0,0.482
15.44,31928.0,34713.0,1.1785,1.1664,150.0,98.0,0.482
15.46,31872.8,34715.4,1.175,1.1666,150.0,98.0,0.482
15.48,31827.0,34667.7,1.1721,1.1638,150.0,98.0,0.482
15.5,31700.7,34610.6,1.1641,1.1605,150.0,98.0,0.482
15.52,31748.5,34539.5,1.1671,1.1564,150.0,98.0,0.482
15.54,31779.7,34480.6,1.1691,1.153,150.0,98.0,0.482
15.56,31817.7,34489.3,1.1715,1.1535,150.0,98.0,0.482
15.58,31957.8,34753.4,1.1804,1.1688,150.0,98.0,0.482
15.6,32057.2,35092.7,1.1867,1.1884,150.0,98.0,0.482
15.62,32270.4,35522.9,1.2002,1.2134,150.0,98.0,0.482
15.64,32335.3,35785.9,1.2043,1.2286,150.0,98.0,0.482
15.66,32309.2,35733.5,1.2026,1.2256,150.0,98.0,0.482
15.68,32194.4,35561.9,1.1954,1.2156,150.0,98.0,0.482
15.7,32132.3,35345.1,1.1914,1.2031,150.0,98.0,0.482
15.72,32160.8,35246.8,1.1932,1.1974,150.0,98.0,0.482
15.74,32076.9,35101.6,1.1879,1.1889,150.0,98.0,0.482
15.76,32000.4,35010.9,1.1831,1.1837,150.0,98.0,0.482
15.78,31985.3,35019.7,1.1821,1.1842,150.0,98.0,0.482
15.8,31959.7,34932.0,1.1805,1.1791,150.0,98.0,0.482
15.82,31892.5,34672.0,1.1762,1.1641,150.0,98.0,0.482
15.84,31916.2,34606.9,1.1777,1.1603,150.0,98.0,0.482
15.86,31854.9,34654.3,1.1739,1.163,150.0,98.0,0.482
15.88,31949.6,34645.5,1.1799,1.1625,150.0,98.0,0.482
15.9,31806.1,34636.8,1.1708,1.162,150.0,98.0,0.482
15.92,31756.7,34520.0,1.1676,1.1552,150.0,98.0,0.482
15.94,31845.8,34450.0,1.1733,1.1512,150.0,98.0,0.482
15.96,31734.8,34532.1,1.1662,1.1559,150.0,98.0,0.482
15.98,31856.4,34776.0,1.1739,1.1701,150.0,98.0,0.482
16.0,32037.5,35129.1,1.1854,1.1905,150.0,98.0,0.482
16.02,32165.8,35434.9,1.1936,1.2083,150.0,98.0,0.482
16.04,32323.7,35653.4,1.2036,1.2209,150.0,98.0,0.482
16.06,32239.2,35734.3,1.1982,1.2256,150.0,98.0,0.482
16.08,32197.8,35566.4,1.1956,1.2159,150.0,98.0,0.482
16.1,32144.4,35357.9,1.1922,1.2038,150.0,98.0,0.482
16.12,32123.4,35196.4,1.1909,1.1944,150.0,98.0,0.482
16.14,31969.1,35119.1,1.1811,1.19,150.0,98.0,0.482
16.16,32034.5,35069.5,1.1852,1.1871,150.0,98.0,0.482
16.18,31974.7,34940.4,1.1814,1.1796,150.0,98.0,0.482
16.2,32016.0,34954.5,1.1841,1.1804,150.0,98.0,0.482
16.22,31884.5,34840.0,1.1757,1.1738,150.0,98.0,0.482
16.24,31841.7,34675.5,1.173,1.1643,150.0,98.0,0.482
16.26,31798.1,34693.5,1.1703,1.1653,150.0,98.0,0.482
16.28,31843.7,34589.9,1.1731,1.1593,150.0,98.0,0.482
16.3,31683.8,34503.8,1.163,1.1543,150.0,98.0,0.482
16.32,31738.8,34535.8,1.1665,1.1562,150.0,98.0,0.482
16.34,31747.2,34381.7,1.167,1.1472,150.0,98.0,0.482
16.36,31799.4,34485.4,1.1703,1.1532,150.0,98.0,0.482
16.38,31879.8,34734.5,1.1754,1.1677,150.0,98.0,0.482
16.4,32047.6,35240.3,1.1861,1.197,150.0,98.0,0.482
16.42,32212.5,35493.7,1.1965,1.2117,150.0,98.0,0.482
16.44,32244.2,35630.1,1.1985,1.2196,150.0,98.0,0.482
16.46,32261.9,35762.4,1.1996,1.2272,150.0,98.0,0.482
16.48,32229.0,35490.8,1.1976,1.2115,150.0,98.0,0.482
16.5,32142.8,35321.1,1.1921,1.2017,150.0,98.0,0.482
16.52,32093.8,35208.7,1.189,1.1952,150.0,98.0,0.482
16.54,32227.5,35115.6,1.1975,1.1898,150.0,98.0,0.482
16.56,32094.1,35036.0,1.189,1.1851,150.0,98.0,0.482
16.58,31973.5,34978.6,1.1814,1.1818,150.0,98.0,0.482
16.6,31974.8,34788.6,1.1814,1.1708,150.0,98.0,0.482
16.62,31896.0,34694.3,1.1765,1.1653,150.0,98.0,0.482
16.64,31832.8,34829.9,1.1724,1.1732,150.0,98.0,0.482
16.66,31895.8,34696.3,1.1764,1.1655,150.0,98.0,0.482
16.68,31858.0,34609.7,1.174,1.1604,150.0,98.0,0.482
16.7,31898.4,34595.4,1.1766,1.1596,150.0,98.0,0.482
16.72,31814.1,34487.1,1.1713,1.1533,150.0,98.0,0.482
16.74,31692.8,34438.9,1.1636,1.1505,150.0,98.0,0.482
16.76,31819.7,34476.9,1.1716,1.1527,150.0,98.0,0.482
16.78,31977.7,34772.5,1.1816,1.1699,150.0,98.0,0.482
16.8,32095.7,35233.5,1.1891,1.1966,150.0,98.0,0.482
16.82,32217.5,35539.4,1.1968,1.2143,150.0,98.0,0.482
16.84,32234.1,35726.9,1.1979,1.2252,150.0,98.0,0.482
16.86,32382.0,35741.3,1.2073,1.226,150.0,98.0,0.482
16.88,32249.6,35512.7,1.1989,1.2128,150.0,98.0,0.482
16.9,32141.5,35423.4,1.192,1.2076,150.0,98.0,0.482
16.92,32092.1,35175.8,1.1889,1.1932,150.0,98.0,0.482
16.94,32039.5,35093.0,1.1856,1.1884,150.0,98.0,0.482
16.96,32130.0,35176.5,1.1913,1.1933,150.0,98.0,0.482
16.98,31945.5,34962.1,1.1796,1.1809,150.0,98.0,0.482
17.0,31911.5,34913.3,1.1774,1.178,150.0,98.0,0.482
17.02,31876.8,34752.5,1.1752,1.1687,150.0,98.0,0.482
17.04,31791.9,34659.9,1.1699,1.1634,150.0,98.0,0.482
17.06,31799.5,34740.7,1.1703,1.168,150.0,98.0,0.482
17.08,31869.6,34620.2,1.1748,1.1611,150.0,98.0,0.482
17.1,31877.9,34638.0,1.1753,1.1621,150.0,98.0,0.482
17.12,31800.4,34477.5,1.1704,1.1528,150.0,98.0,0.482
17.14,31743.0,34400.3,1.1668,1.1483,150.0,98.0,0.482
17.16,31806.3,34579.2,1.1708,1.1587,150.0,98.0,0.482
17.18,31897.9,34785.6,1.1766,1.1706,150.0,98.0,0.482
17.2,32048.8,35091.8,1.1861,1.1884,150.0,98.0,0.482
17.22,32282.8,35476.0,1.201,1.2106,150.0,98.0,0.482
17.24,32396.1,35806.7,1.2081,1.2298,150.0,98.0,0.482
17.26,32310.0,35760.4,1.2027,1.2271,150.0,98.0,0.482
17.28,32274.3,35574.4,1.2004,1.2163,150.0,98.0,0.482
17.3,32213.1,35344.6,1.1966,1.203,150.0,98.0,0.482
17.32,32096.3,35201.6,1.1891,1.1947,150.0,98.0,0.482
17.34,32107.2,35115.6,1.1898,1.1898,150.0,98.0,0.482
17.36,32032.0,35101.8,1.1851,1.189,150.0,98.0,0.482
17.38,32025.4,35074.9,1.1847,1.1874,150.0,98.0,0.482
17.4,31953.0,34872.6,1.1801,1.1757,150.0,98.0,0.482
17.42,31844.2,34841.8,1.1732,1.1739,150.0,98.0,0.482
17.44,31865.5,34640.2,1.1745,1.1622,150.0,98.0,0.482
17.46,31883.1,34699.1,1.1756,1.1656,150.0,98.0,0.482
17.48,31864.4,34717.6,1.1744,1.1667,150.0,98.0,0.482
17.5,31770.3,34609.9,1.1685,1.1605,150.0,98.0,0.482
17.52,31863.0,34473.3,1.1744,1.1525,150.0,98.0,0.482
17.54,31739.1,34533.6,1.1665,1.156,150.0,98.0,0.482
17.56,31819.1,34566.1,1.1716,1.1579,150.0,98.0,0.482
17.58,31978.6,34817.1,1.1817,1.1725,150.0,98.0,0.482
17.6,32149.3,35151.4,1.1925,1.1918,150.0,98.0,0.482
17.62,32177.6,35417.8,1.1943,1.2073,150.0,98.0,0.482
17.64,32317.5,35736.4,1.2032,1.2257,150.0,98.0,0.482
17.66,32364.2,35789.4,1.2061,1.2288,150.0,98.0,0.482
17.68,32256.2,35555.1,1.1993,1.2152,150.0,98.0,0.482
17.7,32165.4,35319.9,1.1935,1.2016,150.0,98.0,0.482
17.72,32162.3,35189.3,1.1933,1.194,150.0,98.0,0.482
17.74,32068.0,35211.7,1.1874,1.1953,150.0,98.0,0.482
17.76,31975.7,35040.3,1.1815,1.1854,150.0,98.0,0.482
17.78,31954.6,35021.7,1.1802,1.1843,150.0,98.0,0.482
17.8,31878.8,34833.6,1.1754,1.1734,150.0,98.0,0.482
17.82,31813.2,34854.1,1.1712,1.1746,150.0,98.0,0.482
17.84,31822.1,34712.3,1.1718,1.1664,150.0,98.0,0.482
17.86,31822.3,34628.6,1.1718,1.1615,150.0,98.0,0.482
17.88,31877.7,34702.9,1.1753,1.1658,150.0,98.0,0.482
17.9,31823.5,34610.0,1.1719,1.1605,150.0,98.0,0.482
17.92,31791.2,34551.8,1.1698,1.1571,150.0,98.0,0.482
17.94,31698.7,34448.0,1.1639,1.1511,150.0,98.0,0.482
17.96,31767.6,34438.4,1.1683,1.1505,150.0,98.0,0.482
17.98,31770.0,34772.2,1.1685,1.1699,150.0,98.0,0.482
18.0,32058.1,35258.0,1.1867,1.198,150.0,98.0,0.482
18.02,32256.5,35611.4,1.1993,1.2185,150.0,98.0,0.482
18.04,32268.7,35659.7,1.2001,1.2213,150.0,98.0,0.482
18.06,32292.8,35674.9,1.2016,1.2222,150.0,98.0,0.482
18.08,32265.5,35670.7,1.1999,1.2219,150.0,98.0,0.482
18.1,32190.5,35297.6,1.1951,1.2003,150.0,98.0,0.482
18.12,32099.9,35153.0,1.1894,1.1919,150.0,98.0,0.482
18.14,31951.3,35064.0,1.18,1.1868,150.0,98.0,0.482
18.16,32082.9,34996.2,1.1883,1.1828,150.0,98.0,0.482
18.18,31953.1,34958.6,1.1801,1.1807,150.0,98.0,0.482
18.2,31885.8,34867.9,1.1758,1.1754,150.0,98.0,0.482
18.22,31875.8,34772.0,1.1752,1.1698,150.0,98.0,0.482
18.24,31930.7,34705.3,1.1787,1.166,150.0,98.0,0.482
18.26,31826.4,34726.6,1.172,1.1672,150.0,98.0,0.482
18.28,31758.7,34705.8,1.1678,1.166,150.0,98.0,0.482
18.3,31844.1,34640.1,1.1732,1.1622,150.0,98.0,0.482
18.32,31843.3,34451.2,1.1731,1.1513,150.0,98.0,0.482
18.34,31804.7,34503.9,1.1707,1.1543,150.0,98.0,0.482
18.36,31785.5,34569.5,1.1695,1.1581,150.0,98.0,0.482
18.38,31922.2,34755.3,1.1781,1.1689,150.0,98.0,0.482
18.4,32030.0,35137.3,1.185,1.191,150.0,98.0,0.482
18.42,32214.9,35522.8,1.1967,1.2134,150.0,98.0,0.482
18.44,32364.8,35791.8,1.2062,1.2289,150.0,98.0,0.482
18.46,32351.2,35810.2,1.2053,1.23,150.0,98.0,0.482
18.48,32261.9,35570.9,1.1996,1.2161,150.0,98.0,0.482
18.5,32109.5,35383.0,1.19,1.2052,150.0,98.0,0.482
18.52,32155.8,35232.8,1.1929,1.1966,150.0,98.0,0.482
18.54,32047.3,35105.5,1.186,1.1892,150.0,98.0,0.482
18.56,31965.8,35089.7,1.1809,1.1883,150.0,98.0,0.482
18.58,31885.7,34981.6,1.1758,1.182,150.0,98.0,0.482
18.6,31987.6,34818.6,1.1823,1.1725,150.0,98.0,0.482
18.62,31921.7,34696.9,1.1781,1.1655,150.0,98.0,0.482
18.64,31891.7,34809.9,1.1762,1.172,150.0,98.0,0.482
18.66,31882.6,34630.5,1.1756,1.1616,150.0,98.0,0.482
18.68,31800.5,34613.4,1.1704,1.1607,150.0,98.0,0.482
18.7,31804.3,34684.8,1.1706,1.1648,150.0,98.0,0.482
18.72,31779.5,34474.2,1.1691,1.1526,150.0,98.0,0.482
18.74,31846.4,34391.8,1.1733,1.1478,150.0,98.0,0.482
18.76,31878.5,34491.5,1.1753,1.1536,150.0,98.0,0.482
18.78,31860.8,34784.9,1.1742,1.1706,150.0,98.0,0.482
18.8,32016.2,35133.0,1.1841,1.1908,150.0,98.0,0.482
18.82,32273.8,35501.3,1.2004,1.2121,150.0,98.0,0.482
18.84,32336.5,35761.9,1.2044,1.2272,150.0,98.0,0.482
18.86,32414.6,35813.3,1.2093,1.2302,150.0,98.0,0.482
18.88,32305.6,35598.4,1.2024,1.2177,150.0,98.0,0.482
18.9,32131.6,35375.7,1.1914,1.2048,150.0,98.0,0.482
18.92,32117.7,35143.0,1.1905,1.1913,150.0,98.0,0.482
18.94,32058.7,35112.0,1.1868,1.1895,150.0,98.0,0.482
18.96,32040.3,35091.3,1.1856,1.1884,150.0,98.0,0.482
18.98,31976.8,35014.4,1.1816,1.1839,150.0,98.0,0.482
19.0,31947.1,34838.7,1.1797,1.1737,150.0,98.0,0.482
19.02,31943.2,34792.1,1.1794,1.171,150.0,98.0,0.482
19.04,31856.0,34720.2,1.1739,1.1668,150.0,98.0,0.482
19.06,31786.7,34637.1,1.1695,1.162,150.0,98.0,0.482
19.08,31797.3,34682.4,1.1702,1.1647,150.0,98.0,0.482
19.1,31752.7,34593.7,1.1674,1.1595,150.0,98.0,0.482
19.12,31881.4,34567.4,1.1755,1.158,150.0,98.0,0.482
19.14,31852.4,34477.4,1.1737,1.1528,150.0,98.0,0.482
19.16,31785.0,34569.1,1.1694,1.1581,150.0,98.0,0.482
19.18,31783.9,34705.3,1.1693,1.166,150.0,98.0,0.482
19.2,32081.0,35155.5,1.1882,1.1921,150.0,98.0,0.482
19.22,32235.3,35510.4,1.198,1.2126,150.0,98.0,0.482
19.24,32338.8,35729.9,1.2045,1.2254,150.0,98.0,0.482
19.26,32339.6,35745.8,1.2046,1.2263,150.0,98.0,0.482
19.28,32306.2,35527.4,1.2025,1.2136,150.0,98.0,0.482
19.3,32139.4,35379.2,1.1919,1.205,150.0,98.0,0.482
19.32,32053.0,35298.2,1.1864,1.2003,150.0,98.0,0.482
19.34,32088.1,35148.6,1.1886,1.1917,150.0,98.0,0.482
19.36,32101.0,35056.1,1.1894,1.1863,150.0,98.0,0.482
19.38,31995.0,35031.2,1.1827,1.1849,150.0,98.0,0.482
19.4,31919.4,34872.4,1.1779,1.1757,150.0,98.0,0.482
19.42,31908.0,34803.4,1.1772,1.1717,150.0,98.0,0.482
19.44,31890.9,34646.3,1.1761,1.1626,150.0,98.0,0.482
19.46,31887.8,34663.6,1.1759,1.1636,150.0,98.0,0.482
19.48,31749.3,34600.9,1.1672,1.1599,150.0,98.0,0.482
19.5,31835.2,34630.0,1.1726,1.1616,150.0,98.0,0.482
19.52,31736.8,34531.5,1.1664,1.1559,150.0,98.0,0.482
19.54,31728.2,34467.0,1.1658,1.1522,150.0,98.0,0.482
19.56,31841.7,34501.3,1.173,1.1542,150.0,98.0,0.482
19.58,31855.6,34715.7,1.1739,1.1666,150.0,98.0,0.482
19.6,32116.7,35142.7,1.1904,1.1913,150.0,98.0,0.482
19.62,32242.9,35567.1,1.1984,1.2159,150.0,98.0,0.482
19.64,32291.0,35685.5,1.2015,1.2228,150.0,98.0,0.482
19.66,32370.1,35755.0,1.2065,1.2268,150.0,98.0,0.482
19.68,32333.0,35523.1,1.2042,1.2134,150.0,98.0,0.482
19.7,32261.7,35404.7,1.1996,1.2065,150.0,98.0,0.482
19.72,32095.0,35230.0,1.1891,1.1964,150.0,98.0,0.482
19.74,32055.0,35248.6,1.1865,1.1975,150.0,98.0,0.482
19.76,32061.3,35067.1,1.1869,1.1869,150.0,98.0,0.482
19.78,32000.7,34942.7,1.1831,1.1797,150.0,98.0,0.482
19.8,31912.2,34916.9,1.1775,1.1782,150.0,98.0,0.482
19.82,31906.3,34803.0,1.1771,1.1716,150.0,98.0,0.482
19.84,31854.4,34682.1,1.1738,1.1646,150.0,98.0,0.482
19.86,31918.9,34727.2,1.1779,1.1672,150.0,98.0,0.482
19.88,31740.3,34713.0,1.1666,1.1664,150.0,98.0,0.482
19.9,31822.2,34579.6,1.1718,1.1587,150.0,98.0,0.482
19.92,31739.5,34603.1,1.1665,1.1601,150.0,98.0,0.482
19.94,31756.3,34528.2,1.1676,1.1557,150.0,98.0,0.482
19.96,31781.6,34492.8,1.1692,1.1537,150.0,98.0,0.482
19.98,31878.3,34752.0,1.1753,1.1687,150.0,98.0,0.482
20.0,32055.8,35243.2,1.1866,1.1972,150.0,98.0,0.482
20.02,32264.6,35500.1,1.1998,1.212,150.0,98.0,0.482
20.04,32256.5,35757.1,1.1993,1.2269,150.0,98.0,0.482
20.06,32225.9,35725.6,1.1974,1.2251,150.0,98.0,0.482
20.08,32290.7,35654.9,1.2015,1.221,150.0,98.0,0.482
20.1,32124.2,35345.4,1.1909,1.2031,150.0,98.0,0.482
20.12,32094.4,35167.2,1.189,1.1928,150.0,98.0,0.482
20.14,32009.6,35128.3,1.1837,1.1905,150.0,98.0,0.482
20.16,31952.4,35037.6,1.18,1.1852,150.0,98.0,0.482
20.18,32021.4,34979.8,1.1844,1.1819,150.0,98.0,0.482
20.2,32003.4,34928.1,1.1833,1.1789,150.0,98.0,0.482
20.22,31954.8,34772.3,1.1802,1.1699,150.0,98.0,0.482
20.24,31893.0,34694.4,1.1763,1.1654,150.0,98.0,0.482
20.26,31867.6,34617.7,1.1747,1.1609,150.0,98.0,0.482
20.28,31857.6,34683.3,1.174,1.1647,150.0,98.0,0.482
20.3,31718.4,34624.9,1.1652,1.1613,150.0,98.0,0.482
20.32,31722.1,34519.3,1.1654,1.1552,150.0,98.0,0.482
20.34,31804.7,34389.5,1.1707,1.1477,150.0,98.0,0.482
20.36,31798.1,34501.1,1.1702,1.1541,150.0,98.0,0.482
20.38,31989.2,34834.4,1.1824,1.1735,150.0,98.0,0.482
20.4,32080.2,35227.5,1.1881,1.1962,150.0,98.0,0.482
20.42,32137.4,35577.1,1.1918,1.2165,150.0,98.0,0.482
20.44,32396.8,35725.1,1.2082,1.2251,150.0,98.0,0.482
20.46,32325.4,35720.4,1.2037,1.2248,150.0,98.0,0.482
20.48,32322.6,35492.8,1.2035,1.2116,150.0,98.0,0.482
20.5,32176.9,35314.5,1.1943,1.2013,150.0,98.0,0.482
20.52,32110.4,35171.1,1.19,1.193,150.0,98.0,0.482
20.54,31995.3,35134.4,1.1827,1.1908,150.0,98.0,0.482
20.56,32091.9,35122.1,1.1889,1.1901,150.0,98.0,0.482
20.58,31965.5,35047.9,1.1809,1.1858,150.0,98.0,0.482
20.6,31907.4,34849.8,1.1772,1.1744,150.0,98.0,0.482
20.62,31846.7,34733.2,1.1733,1.1676,150.0,98.0,0.482
20.64,31920.4,34558.5,1.178,1.1575,150.0,98.0,0.482
20.66,31896.0,34713.9,1.1765,1.1665,150.0,98.0,0.482
20.68,31807.0,34579.7,1.1708,1.1587,150.0,98.0,0.482
20.7,31889.6,34542.8,1.176,1.1566,150.0,98.0,0.482
20.72,31784.1,34633.0,1.1694,1.1618,150.0,98.0,0.482
20.74,31742.3,34440.4,1.1667,1.1506,150.0,98.0,0.482
20.76,31790.6,34566.6,1.1698,1.1579,150.0,98.0,0.482
20.78,31910.0,34759.9,1.1773,1.1691,150.0,98.0,0.482
20.8,32035.6,35092.2,1.1853,1.1884,150.0,98.0,0.482
20.82,32220.9,35581.9,1.197,1.2168,150.0,98.0,0.482
20.84,32318.9,35737.8,1.2033,1.2258,150.0,98.0,0.482
20.86,32309.8,35720.3,1.2027,1.2248,150.0,98.0,0.482
20.88,32235.5,35657.7,1.198,1.2212,150.0,98.0,0.482
20.9,32182.4,35318.9,1.1946,1.2015,150.0,98.0,0.482
20.92,32051.9,35212.0,1.1863,1.1953,150.0,98.0,0.482
20.94,31974.7,35158.0,1.1814,1.1922,150.0,98.0,0.482
20.96,32051.8,35036.1,1.1863,1.1851,150.0,98.0,0.482
20.98,32027.8,35050.8,1.1848,1.186,150.0,98.0,0.482
21.0,31973.4,34880.2,1.1814,1.1761,150.0,98.0,0.482
21.02,31929.0,34771.4,1.1785,1.1698,150.0,98.0,0.482
21.04,31868.2,34614.4,1.1747,1.1607,150.0,98.0,0.482
21.06,31843.5,34743.5,1.1731,1.1682,150.0,98.0,0.482
21.08,31828.8,34615.2,1.1722,1.1608,150.0,98.0,0.482
21.1,31771.2,34655.2,1.1685,1.1631,150.0,98.0,0.482
21.12,31696.9,34500.5,1.1638,1.1541,150.0,98.0,0.482
21.14,31690.5,34505.4,1.1634,1.1544,150.0,98.0,0.482
21.16,31833.7,34480.8,1.1725,1.153,150.0,98.0,0.482
21.18,31912.6,34794.3,1.1775,1.1711,150.0,98.0,0.482
21.2,32033.1,35159.7,1.1851,1.1923,150.0,98.0,0.482
21.22,32233.5,35576.4,1.1978,1.2165,150.0,98.0,0.482
21.24,32278.8,35687.9,1.2007,1.2229,150.0,98.0,0.482
21.26,32316.1,35737.2,1.2031,1.2258,150.0,98.0,0.482
21.28,32234.2,35572.6,1.1979,1.2162,150.0,98.0,0.482
21.3,32157.8,35288.8,1.193,1.1998,150.0,98.0,0.482
21.32,32197.6,35232.6,1.1956,1.1965,150.0,98.0,0.482
21.34,32037.9,35128.1,1.1854,1.1905,150.0,98.0,0.482
21.36,32065.8,35132.6,1.1872,1.1907,150.0,98.0,0.482
21.38,31994.2,35041.6,1.1827,1.1855,150.0,98.0,0.482
21.4,31918.1,34924.9,1.1779,1.1787,150.0,98.0,0.482
21.42,31844.5,34741.5,1.1732,1.1681,150.0,98.0,0.482
21.44,31816.4,34729.6,1.1714,1.1674,150.0,98.0,0.482
21.46,31826.0,34685.3,1.172,1.1648,150.0,98.0,0.482
21.48,31934.9,34644.4,1.1789,1.1625,150.0,98.0,0.482
21.5,31733.1,34653.1,1.1661,1.163,150.0,98.0,0.482
21.52,31702.9,34554.3,1.1642,1.1572,150.0,98.0,0.482
21.54,31784.9,34465.6,1.1694,1.1521,150.0,98.0,0.482
21.56,31693.4,34509.5,1.1636,1.1546,150.0,98.0,0.482
21.58,31856.6,34674.2,1.174,1.1642,150.0,98.0,0.482
21.6,32031.7,35160.2,1.1851,1.1923,150.0,98.0,0.482
21.62,32195.2,35558.2,1.1954,1.2154,150.0,98.0,0.482
21.64,32331.7,35697.5,1.2041,1.2235,150.0,98.0,0.482
21.66,32294.7,35756.6,1.2017,1.2269,150.0,98.0,0.482
21.68,32218.3,35472.1,1.1969,1.2104,150.0,98.0,0.482
21.7,32175.8,35303.8,1.1942,1.2007,150.0,98.0,0.482
21.72,32063.0,35239.1,1.187,1.1969,150.0,98.0,0.482
21.74,32008.1,35090.9,1.1836,1.1883,150.0,98.0,0.482
21.76,31987.8,35082.1,1.1823,1.1878,150.0,98.0,0.482
21.78,32002.1,34921.1,1.1832,1.1785,150.0,98.0,0.482
21.8,31951.1,34825.0,1.1799,1.1729,150.0,98.0,0.482
21.82,31862.7,34780.3,1.1743,1.1703,150.0,98.0,0.482
21.84,31904.3,34681.5,1.177,1.1646,150.0,98.0,0.482
21.86,31914.9,34764.0,1.1777,1.1694,150.0,98.0,0.482
21.88,31850.1,34540.2,1.1735,1.1564,150.0,98.0,0.482
21.9,31882.9,34558.1,1.1756,1.1575,150.0,98.0,0.482
21.92,31750.9,34464.6,1.1673,1.152,150.0,98.0,0.482
21.94,31744.8,34424.3,1.1669,1.1497,150.0,98.0,0.482
21.96,31803.6,34575.7,1.1706,1.1585,150.0,98.0,0.482
21.98,31964.4,34726.4,1.1808,1.1672,150.0,98.0,0.482
22.0,32070.4,35127.0,1.1875,1.1904,150.0,98.0,0.482
22.02,32168.7,35467.2,1.1937,1.2101,150.0,98.0,0.482
22.04,32383.3,35724.6,1.2073,1.225,150.0,98.0,0.482
22.06,32309.9,35730.9,1.2027,1.2254,150.0,98.0,0.482
22.08,32270.7,35617.5,1.2002,1.2188,150.0,98.0,0.482
22.1,32217.5,35309.6,1.1968,1.201,150.0,98.0,0.482
22.12,32076.8,35062.8,1.1879,1.1867,150.0,98.0,0.482
22.14,32060.2,35165.7,1.1869,1.1927,150.0,98.0,0.482
22.16,32058.9,35087.8,1.1868,1.1881,150.0,98.0,0.482
22.18,32035.8,34983.4,1.1853,1.1821,150.0,98.0,0.482
22.2,31993.6,34857.0,1.1826,1.1748,150.0,98.0,0.482
22.22,31828.6,34737.8,1.1722,1.1679,150.0,98.0,0.482
22.24,31883.3,34754.5,1.1757,1.1688,150.0,98.0,0.482
22.26,31968.6,34613.6,1.1811,1.1607,150.0,98.0,0.482
22.28,31962.3,34692.9,1.1807,1.1653,150.0,98.0,0.482
22.3,31829.4,34604.7,1.1722,1.1602,150.0,98.0,0.482
22.32,31700.2,34444.5,1.164,1.1509,150.0,98.0,0.482
22.34,31760.9,34407.1,1.1679,1.1487,150.0,98.0,0.482
22.36,31828.1,34579.2,1.1722,1.1587,150.0,98.0,0.482
22.38,31903.3,34767.0,1.1769,1.1696,150.0,98.0,0.482
22.4,31986.2,35101.0,1.1822,1.1889,150.0,98.0,0.482
22.42,32255.2,35531.4,1.1992,1.2139,150.0,98.0,0.482
22.44,32265.7,35780.6,1.1999,1.2283,150.0,98.0,0.482
22.46,32364.3,35806.0,1.2061,1.2298,150.0,98.0,0.482
22.48,32279.4,35583.8,1.2008,1.2169,150.0,98.0,0.482
22.5,32104.4,35386.7,1.1897,1.2055,150.0,98.0,0.482
22.52,32093.2,35257.9,1.189,1.198,150.0,98.0,0.482
22.54,32072.1,35143.4,1.1876,1.1914,150.0,98.0,0.482
22.56,32062.1,34986.3,1.187,1.1823,150.0,98.0,0.482
22.58,32032.6,34988.4,1.1851,1.1824,150.0,98.0,0.482
22.6,31865.8,34826.3,1.1745,1.173,150.0,98.0,0.482
22.62,31877.5,34755.0,1.1753,1.1689,150.0,98.0,0.482
22.64,31790.6,34669.4,1.1698,1.1639,150.0,98.0,0.482
22.66,31857.0,34677.1,1.174,1.1643,150.0,98.0,0.482
22.68,31857.6,34585.8,1.174,1.1591,150.0,98.0,0.482
22.7,31864.5,34522.6,1.1745,1.1554,150.0,98.0,0.482
22.72,31831.3,34432.9,1.1724,1.1502,150.0,98.0,0.482
22.74,31787.3,34501.1,1.1696,1.1541,150.0,98.0,0.482
22.76,31765.8,34495.8,1.1682,1.1538,150.0,98.0,0.482
22.78,31939.7,34731.9,1.1792,1.1675,150.0,98.0,0.482
22.8,31998.4,35120.2,1.1829,1.19,150.0,98.0,0.482
22.82,32184.3,35475.8,1.1947,1.2106,150.0,98.0,0.482
22.84,32247.7,35701.3,1.1987,1.2237,150.0,98.0,0.482
22.86,32387.5,35805.7,1.2076,1.2297,150.0,98.0,0.482
22.88,32316.9,35602.1,1.2031,1.2179,150.0,98.0,0.482
22.9,32100.7,35447.9,1.1894,1.209,150.0,98.0,0.482
22.92,32120.1,35262.6,1.1907,1.1983,150.0,98.0,0.482
22.94,32117.7,35097.7,1.1905,1.1887,150.0,98.0,0.482
22.96,32000.4,35161.6,1.1831,1.1924,150.0,98.0,0.482
22.98,31984.6,35025.3,1.1821,1.1845,150.0,98.0,0.482
23.0,31939.0,34848.6,1.1792,1.1743,150.0,98.0,0.482
23.02,31862.9,34784.3,1.1744,1.1706,150.0,98.0,0.482
23.04,31826.8,34661.3,1.1721,1.1634,150.0,98.0,0.482
23.06,31803.1,34667.4,1.1706,1.1638,150.0,98.0,0.482
23.08,31855.6,34672.0,1.1739,1.164,150.0,98.0,0.482
23.1,31820.7,34621.8,1.1717,1.1611,150.0,98.0,0.482
23.12,31790.8,34473.3,1.1698,1.1525,150.0,98.0,0.482
23.14,31787.3,34441.3,1.1696,1.1507,150.0,98.0,0.482
23.16,31800.3,34477.6,1.1704,1.1528,150.0,98.0,0.482
23.18,31952.0,34736.2,1.18,1.1678,150.0,98.0,0.482
23.2,32013.4,35160.8,1.1839,1.1924,150.0,98.0,0.482
23.22,32269.0,35515.8,1.2001,1.2129,150.0,98.0,0.482
23.24,32406.3,35691.0,1.2088,1.2231,150.0,98.0,0.482
23.26,32277.7,35804.3,1.2006,1.2297,150.0,98.0,0.482
23.28,32255.9,35541.0,1.1993,1.2144,150.0,98.0,0.482
23.3,32140.3,35367.2,1.1919,1.2043,150.0,98.0,0.482
23.32,32122.5,35186.5,1.1908,1.1939,150.0,98.0,0.482
23.34,32101.7,35138.1,1.1895,1.1911,150.0,98.0,0.482
23.36,32004.3,34985.7,1.1833,1.1822,150.0,98.0,0.482
23.38,32035.6,34920.0,1.1853,1.1784,150.0,98.0,0.482
23.4,31913.2,34873.9,1.1775,1.1758,150.0,98.0,0.482
23.42,31918.9,34812.4,1.1779,1.1722,150.0,98.0,0.482
23.44,31910.6,34678.7,1.1774,1.1644,150.0,98.0,0.482
23.46,31913.7,34649.7,1.1776,1.1628,150.0,98.0,0.482
23.48,31831.2,34677.1,1.1723,1.1643,150.0,98.0,0.482
23.5,31811.5,34598.1,1.1711,1.1598,150.0,98.0,0.482
23.52,31752.0,34607.6,1.1673,1.1603,150.0,98.0,0.482
23.54,31762.1,34525.1,1.168,1.1555,150.0,98.0,0.482
23.56,31766.9,34508.6,1.1683,1.1546,150.0,98.0,0.482
23.58,31934.9,34742.6,1.1789,1.1681,150.0,98.0,0.482
23.6,32192.9,35090.0,1.1953,1.1883,150.0,98.0,0.482
23.62,32218.7,35498.8,1.1969,1.212,150.0,98.0,0.482
23.64,32366.5,35801.3,1.2063,1.2295,150.0,98.0,0.482
23.66,32342.2,35768.5,1.2047,1.2276,150.0,98.0,0.482
23.68,32304.2,35548.5,1.2023,1.2148,150.0,98.0,0.482
23.7,32120.4,35327.4,1.1907,1.202,150.0,98.0,0.482
23.72,32022.9,35156.6,1.1845,1.1921,150.0,98.0,0.482
23.74,32091.2,35123.4,1.1888,1.1902,150.0,98.0,0.482
23.76,31956.7,35086.6,1.1803,1.1881,150.0,98.0,0.482
23.78,32019.4,34893.6,1.1843,1.1769,150.0,98.0,0.482
23.8,31882.5,34910.2,1.1756,1.1779,150.0,98.0,0.482
23.82,32015.0,34799.0,1.184,1.1714,150.0,98.0,0.482
23.84,31870.9,34646.2,1.1749,1.1626,150.0,98.0,0.482
23.86,31788.7,34685.0,1.1697,1.1648,150.0,98.0,0.482
23.88,31804.5,34553.5,1.1707,1.1572,150.0,98.0,0.482
23.9,31870.2,34663.8,1.1748,1.1636,150.0,98.0,0.482
23.92,31824.0,34621.0,1.1719,1.1611,150.0,98.0,0.482
23.94,31776.0,34465.6,1.1688,1.1521,150.0,98.0,0.482
23.96,31672.9,34441.8,1.1623,1.1507,150.0,98.0,0.482
23.98,31813.4,34743.8,1.1712,1.1682,150.0,98.0,0.482
24.0,32095.4,35119.8,1.1891,1.19,150.0,98.0,0.482
24.02,32186.2,35498.1,1.1948,1.2119,150.0,98.0,0.482
24.04,32412.9,35743.3,1.2092,1.2261,150.0,98.0,0.482
24.06,32250.2,35693.8,1.1989,1.2233,150.0,98.0,0.482
24.08,32302.0,35684.7,1.2022,1.2227,150.0,98.0,0.482
24.1,32138.4,35420.2,1.1918,1.2074,150.0,98.0,0.482
24.12,32135.1,35126.2,1.1916,1.1904,150.0,98.0,0.482
24.14,32023.2,35073.1,1.1845,1.1873,150.0,98.0,0.482
24.16,32017.7,35078.9,1.1842,1.1876,150.0,98.0,0.482
24.18,32040.4,35087.8,1.1856,1.1881,150.0,98.0,0.482
24.2,31863.2,34937.3,1.1744,1.1794,150.0,98.0,0.482
24.22,31922.9,34750.0,1.1782,1.1686,150.0,98.0,0.482
24.24,31828.2,34711.0,1.1722,1.1663,150.0,98.0,0.482
24.26,31805.3,34703.8,1.1707,1.1659,150.0,98.0,0.482
24.28,31787.5,34644.5,1.1696,1.1625,150.0,98.0,0.482
24.3,31865.3,34557.6,1.1745,1.1574,150.0,98.0,0.482
24.32,31760.1,34441.6,1.1678,1.1507,150.0,98.0,0.482
24.34,31725.9,34528.6,1.1657,1.1557,150.0,98.0,0.482
24.36,31786.6,34594.3,1.1695,1.1595,150.0,98.0,0.482
24.38,31894.7,34735.2,1.1764,1.1677,150.0,98.0,0.482
24.4,32139.7,35119.5,1.1919,1.19,150.0,98.0,0.482
24.42,32210.1,35525.7,1.1964,1.2135,150.0,98.0,0.482
24.44,32332.0,35711.2,1.2041,1.2243,150.0,98.0,0.482
24.46,32302.8,35761.5,1.2022,1.2272,150.0,98.0,0.482
24.48,32218.4,35488.0,1.1969,1.2113,150.0,98.0,0.482
24.5,32095.0,35349.5,1.1891,1.2033,150.0,98.0,0.482
24.52,32109.7,35119.6,1.19,1.19,150.0,98.0,0.482
24.54,32066.9,35051.7,1.1873,1.1861,150.0,98.0,0.482
24.56,31883.9,35046.8,1.1757,1.1858,150.0,98.0,0.482
24.58,32026.3,35015.6,1.1847,1.184,150.0,98.0,0.482
24.6,31913.9,34925.4,1.1776,1.1787,150.0,98.0,0.482
24.62,31996.8,34770.6,1.1828,1.1698,150.0,98.0,0.482
24.64,31838.2,34626.8,1.1728,1.1614,150.0,98.0,0.482
24.66,31834.5,34663.5,1.1726,1.1636,150.0,98.0,0.482
24.68,31812.6,34652.9,1.1712,1.1629,150.0,98.0,0.482
24.7,31813.2,34592.6,1.1712,1.1595,150.0,98.0,0.482
24.72,31758.7,34543.8,1.1678,1.1566,150.0,98.0,0.482
24.74,31723.6,34418.9,1.1655,1.1494,150.0,98.0,0.482
24.76,31878.3,34435.7,1.1753,1.1504,150.0,98.0,0.482
24.78,31910.8,34723.3,1.1774,1.167,150.0,98.0,0.482
24.8,32140.2,35097.3,1.1919,1.1887,150.0,98.0,0.482
24.82,32212.5,35442.2,1.1965,1.2087,150.0,98.0,0.482
24.84,32339.5,35782.9,1.2046,1.2284,150.0,98.0,0.482
24.86,32378.1,35737.2,1.207,1.2258,150.0,98.0,0.482
24.88,32308.7,35596.3,1.2026,1.2176,150.0,98.0,0.482
24.9,32152.4,35373.9,1.1927,1.2047,150.0,98.0,0.482
24.92,32137.3,35290.3,1.1917,1.1999,150.0,98.0,0.482
24.94,32060.2,35178.7,1.1869,1.1934,150.0,98.0,0.482
24.96,31974.7,35098.3,1.1814,1.1888,150.0,98.0,0.482
24.98,32002.9,35052.1,1.1832,1.1861,150.0,98.0,0.482
25.0,31918.9,34842.8,1.1779,1.1739,150.0,98.0,0.482
25.02,31806.0,34736.2,1.1707,1.1678,150.0,98.0,0.482
25.04,31918.1,34680.8,1.1779,1.1646,150.0,98.0,0.482
25.06,31830.2,34802.3,1.1723,1.1716,150.0,98.0,0.482
25.08,31764.1,34614.2,1.1681,1.1607,150.0,98.0,0.482
25.1,31858.0,34657.3,1.174,1.1632,150.0,98.0,0.482
25.12,31766.7,34509.1,1.1683,1.1546,150.0,98.0,0.482
25.14,31869.3,34390.8,1.1748,1.1478,150.0,98.0,0.482
25.16,31791.7,34622.4,1.1698,1.1612,150.0,98.0,0.482
25.18,31899.6,34770.7,1.1767,1.1698,150.0,98.0,0.482
25.2,32096.8,35110.4,1.1892,1.1895,150.0,98.0,0.482
25.22,32165.1,35482.2,1.1935,1.211,150.0,98.0,0.482
25.24,32323.8,35733.1,1.2036,1.2255,150.0,98.0,0.482
25.26,32384.0,35678.2,1.2074,1.2224,150.0,98.0,0.482
25.28,32201.4,35601.2,1.1958,1.2179,150.0,98.0,0.482
25.3,32158.2,35410.1,1.1931,1.2068,150.0,98.0,0.482
25.32,32141.0,35204.9,1.192,1.1949,150.0,98.0,0.482
25.34,32042.2,35044.6,1.1857,1.1856,150.0,98.0,0.482
25.36,32071.1,35005.7,1.1876,1.1834,150.0,98.0,0.482
25.38,31964.9,35084.2,1.1808,1.1879,150.0,98.0,0.482
25.4,32049.7,34901.4,1.1862,1.1773,150.0,98.0,0.482
25.42,31981.2,34781.9,1.1819,1.1704,150.0,98.0,0.482
25.44,31894.9,34657.8,1.1764,1.1632,150.0,98.0,0.482
25.46,31882.5,34725.0,1.1756,1.1671,150.0,98.0,0.482
25.48,31868.2,34688.1,1.1747,1.165,150.0,98.0,0.482
25.5,31852.0,34648.9,1.1737,1.1627,150.0,98.0,0.482
25.52,31780.6,34537.6,1.1691,1.1563,150.0,98.0,0.482
25.54,31763.7,34398.8,1.1681,1.1482,150.0,98.0,0.482
25.56,31821.3,34515.3,1.1717,1.155,150.0,98.0,0.482
25.58,31956.3,34732.3,1.1803,1.1675,150.0,98.0,0.482
25.6,32060.8,35051.2,1.1869,1.186,150.0,98.0,0.482
25.62,32199.4,35500.2,1.1957,1.212,150.0,98.0,0.482
25.64,32281.6,35668.1,1.2009,1.2218,150.0,98.0,0.482
25.66,32277.6,35827.0,1.2006,1.231,150.0,98.0,0.482
25.68,32240.3,35618.5,1.1983,1.2189,150.0,98.0,0.482
25.7,32053.2,35295.8,1.1864,1.2002,150.0,98.0,0.482
25.72,32095.8,35201.4,1.1891,1.1947,150.0,98.0,0.482
25.74,32032.3,35014.1,1.1851,1.1839,150.0,98.0,0.482
25.76,32026.7,35027.6,1.1847,1.1847,150.0,98.0,0.482
25.78,31957.2,35051.6,1.1803,1.1861,150.0,98.0,0.482
25.8,31974.4,34967.0,1.1814,1.1811,150.0,98.0,0.482
25.82,31910.5,34768.0,1.1774,1.1696,150.0,98.0,0.482
25.84,31979.8,34679.7,1.1818,1.1645,150.0,98.0,0.482
25.86,31814.4,34708.2,1.1713,1.1662,150.0,98.0,0.482
25.88,31920.9,34698.8,1.178,1.1656,150.0,98.0,0.482
25.9,31907.6,34637.6,1.1772,1.1621,150.0,98.0,0.482
25.92,31830.5,34514.4,1.1723,1.1549,150.0,98.0,0.482
25.94,31730.4,34470.5,1.166,1.1524,150.0,98.0,0.482
25.96,31664.0,34533.0,1.1617,1.156,150.0,98.0,0.482
25.98,31917.2,34706.7,1.1778,1.1661,150.0,98.0,0.482
26.0,32045.2,35131.3,1.1859,1.1907,150.0,98.0,0.482
26.02,32259.1,35554.1,1.1995,1.2152,150.0,98.0,0.482
26.04,32446.8,35820.4,1.2114,1.2306,150.0,98.0,0.482
26.06,32231.3,35743.7,1.1977,1.2262,150.0,98.0,0.482
26.08,32220.4,35552.3,1.197,1.2151,150.0,98.0,0.482
26.1,32210.1,35352.0,1.1964,1.2035,150.0,98.0,0.482
26.12,32029.5,35284.3,1.1849,1.1995,150.0,98.0,0.482
26.14,31998.6,35098.4,1.183,1.1888,150.0,98.0,0.482
26.16,31983.1,35008.5,1.182,1.1836,150.0,98.0,0.482
26.18,31953.1,35025.5,1.1801,1.1845,150.0,98.0,0.482
26.2,31883.0,34885.9,1.1756,1.1764,150.0,98.0,0.482
26.22,31904.1,34740.2,1.177,1.168,150.0,98.0,0.482
26.24,31850.4,34773.8,1.1736,1.17,150.0,98.0,0.482
26.26,31842.5,34673.5,1.1731,1.1641,150.0,98.0,0.482
26.28,31910.3,34676.7,1.1774,1.1643,150.0,98.0,0.482
26.3,31811.2,34700.8,1.1711,1.1657,150.0,98.0,0.482
26.32,31877.6,34463.3,1.1753,1.152,150.0,98.0,0.482
26.34,31757.7,34412.9,1.1677,1.149,150.0,98.0,0.482
26.36,31746.1,34511.0,1.167,1.1547,150.0,98.0,0.482
26.38,31836.6,34780.4,1.1727,1.1703,150.0,98.0,0.482
26.4,32056.0,35197.2,1.1866,1.1945,150.0,98.0,0.482
26.42,32246.9,35477.7,1.1987,1.2107,150.0,98.0,0.482
26.44,32341.4,35780.8,1.2047,1.2283,150.0,98.0,0.482
26.46,32306.1,35639.1,1.2024,1.2201,150.0,98.0,0.482
26.48,32282.4,35642.8,1.2009,1.2203,150.0,98.0,0.482
26.5,32161.1,35333.2,1.1933,1.2024,150.0,98.0,0.482
26.52,32091.9,35258.3,1.1889,1.198,150.0,98.0,0.482
26.54,31994.7,35235.8,1.1827,1.1967,150.0,98.0,0.482
26.56,32076.8,35047.8,1.1879,1.1858,150.0,98.0,0.482
26.58,32027.4,34929.5,1.1848,1.179,150.0,98.0,0.482
26.6,31932.4,34859.8,1.1788,1.1749,150.0,98.0,0.482
26.62,31930.2,34763.4,1.1786,1.1693,150.0,98.0,0.482
26.64,31871.0,34741.9,1.1749,1.1681,150.0,98.0,0.482
26.66,31825.2,34640.8,1.172,1.1622,150.0,98.0,0.482
26.68,31842.2,34565.3,1.173,1.1579,150.0,98.0,0.482
26.7,31860.2,34630.6,1.1742,1.1617,150.0,98.0,0.482
26.72,31770.8,34517.5,1.1685,1.1551,150.0,98.0,0.482
26.74,31819.3,34507.2,1.1716,1.1545,150.0,98.0,0.482
26.76,31794.9,34531.2,1.17,1.1559,150.0,98.0,0.482
26.78,31919.4,34732.7,1.1779,1.1676,150.0,98.0,0.482
26.8,32037.7,35029.7,1.1854,1.1848,150.0,98.0,0.482
26.82,32201.3,35475.6,1.1958,1.2106,150.0,98.0,0.482
26.84,32269.1,35703.2,1.2001,1.2238,150.0,98.0,0.482
26.86,32323.5,35716.0,1.2035,1.2245,150.0,98.0,0.482
26.88,32282.6,35558.4,1.201,1.2154,150.0,98.0,0.482
26.9,32194.7,35425.4,1.1954,1.2077,150.0,98.0,0.482
26.92,32038.8,35279.7,1.1855,1.1993,150.0,98.0,0.482
26.94,31977.5,35078.5,1.1816,1.1876,150.0,98.0,0.482
26.96,32059.8,35114.0,1.1868,1.1897,150.0,98.0,0.482
26.98,31931.4,35014.6,1.1787,1.1839,150.0,98.0,0.482
27.0,32019.0,34811.1,1.1843,1.1721,150.0,98.0,0.482
27.02,31868.8,34776.3,1.1747,1.1701,150.0,98.0,0.482
27.04,31806.0,34728.4,1.1707,1.1673,150.0,98.0,0.482
27.06,31947.4,34601.8,1.1797,1.16,150.0,98.0,0.482
27.08,31788.0,34614.3,1.1696,1.1607,150.0,98.0,0.482
27.1,31849.1,34580.8,1.1735,1.1588,150.0,98.0,0.482
27.12,31750.7,34526.1,1.1672,1.1556,150.0,98.0,0.482
27.14,31802.6,34376.8,1.1705,1.1469,150.0,98.0,0.482
27.16,31793.0,34512.3,1.1699,1.1548,150.0,98.0,0.482
27.18,31856.6,34806.7,1.174,1.1719,150.0,98.0,0.482
27.2,32007.5,35136.7,1.1835,1.191,150.0,98.0,0.482
27.22,32203.0,35443.5,1.1959,1.2088,150.0,98.0,0.482
27.24,32357.6,35723.0,1.2057,1.225,150.0,98.0,0.482
27.26,32296.2,35862.3,1.2018,1.233,150.0,98.0,0.482
27.28,32236.2,35670.6,1.198,1.2219,150.0,98.0,0.482
27.3,32142.7,35311.2,1.1921,1.2011,150.0,98.0,0.482
27.32,32052.6,35204.9,1.1864,1.1949,150.0,98.0,0.482
27.34,32099.2,35124.0,1.1893,1.1902,150.0,98.0,0.482
27.36,32025.8,35085.8,1.1847,1.188,150.0,98.0,0.482
27.38,31922.6,34900.7,1.1781,1.1773,150.0,98.0,0.482
27.4,31962.6,34814.4,1.1807,1.1723,150.0,98.0,0.482
27.42,31943.2,34786.5,1.1794,1.1707,150.0,98.0,0.482
27.44,31879.4,34726.4,1.1754,1.1672,150.0,98.0,0.482
27.46,31777.4,34683.3,1.1689,1.1647,150.0,98.0,0.482
27.48,31950.0,34595.6,1.1799,1.1596,150.0,98.0,0.482
27.5,31878.5,34657.2,1.1753,1.1632,150.0,98.0,0.482
27.52,31820.0,34516.2,1.1716,1.155,150.0,98.0,0.482
27.54,31728.1,34391.4,1.1658,1.1478,150.0,98.0,0.482
27.56,31853.8,34542.7,1.1738,1.1566,150.0,98.0,0.482
27.58,31872.9,34803.7,1.175,1.1717,150.0,98.0,0.482
27.6,32060.4,35164.9,1.1869,1.1926,150.0,98.0,0.482
27.62,32262.6,35462.9,1.1997,1.2099,150.0,98.0,0.482
27.64,32452.3,35729.0,1.2117,1.2253,150.0,98.0,0.482
27.66,32356.3,35719.6,1.2056,1.2248,150.0,98.0,0.482
27.68,32239.9,35557.2,1.1983,1.2153,150.0,98.0,0.482
27.7,32148.0,35332.0,1.1924,1.2023,150.0,98.0,0.482
27.72,32093.0,35141.9,1.1889,1.1913,150.0,98.0,0.482
27.74,31947.4,35094.0,1.1797,1.1885,150.0,98.0,0.482
27.76,32028.2,35057.2,1.1848,1.1864,150.0,98.0,0.482
27.78,31984.6,35012.4,1.1821,1.1838,150.0,98.0,0.482
27.8,31919.3,34879.6,1.1779,1.1761,150.0,98.0,0.482
27.82,31964.9,34788.6,1.1808,1.1708,150.0,98.0,0.482
27.84,31841.1,34731.9,1.173,1.1675,150.0,98.0,0.482
27.86,31782.4,34662.2,1.1693,1.1635,150.0,98.0,0.482
27.88,31964.5,34605.1,1.1808,1.1602,150.0,98.0,0.482
27.9,31859.9,34544.4,1.1742,1.1567,150.0,98.0,0.482
27.92,31811.8,34528.2,1.1711,1.1557,150.0,98.0,0.482
27.94,31895.1,34595.3,1.1764,1.1596,150.0,98.0,0.482
27.96,31727.0,34516.2,1.1657,1.155,150.0,98.0,0.482
27.98,31924.7,34773.8,1.1783,1.17,150.0,98.0,0.482
28.0,32007.9,35104.5,1.1835,1.1891,150.0,98.0,0.482
28.02,32244.9,35481.9,1.1986,1.211,150.0,98.0,0.482
28.04,32253.9,35779.5,1.1991,1.2282,150.0,98.0,0.482
28.06,32293.8,35732.6,1.2017,1.2255,150.0,98.0,0.482
28.08,32245.3,35538.9,1.1986,1.2143,150.0,98.0,0.482
28.1,32245.0,35279.3,1.1986,1.1992,150.0,98.0,0.482
28.12,32078.8,35265.2,1.188,1.1984,150.0,98.0,0.482
28.14,32139.6,35083.8,1.1919,1.1879,150.0,98.0,0.482
28.16,31966.4,35020.1,1.1809,1.1842,150.0,98.0,0.482
28.18,32025.0,34959.3,1.1846,1.1807,150.0,98.0,0.482
28.2,31931.4,34888.0,1.1787,1.1766,150.0,98.0,0.482
28.22,31936.9,34825.0,1.179,1.1729,150.0,98.0,0.482
28.24,31836.8,34707.8,1.1727,1.1661,150.0,98.0,0.482
28.26,31788.6,34635.3,1.1696,1.1619,150.0,98.0,0.482
28.28,31842.3,34606.7,1.173,1.1603,150.0,98.0,0.482
28.3,31806.4,34635.3,1.1708,1.1619,150.0,98.0,0.482
28.32,31817.4,34493.9,1.1715,1.1537,150.0,98.0,0.482
28.34,31822.3,34437.4,1.1718,1.1505,150.0,98.0,0.482
28.36,31809.4,34456.6,1.171,1.1516,150.0,98.0,0.482
28.38,31844.3,34799.5,1.1732,1.1714,150.0,98.0,0.482
28.4,32046.4,35156.4,1.186,1.1921,150.0,98.0,0.482
28.42,32236.8,35426.6,1.1981,1.2078,150.0,98.0,0.482
28.44,32347.7,35773.0,1.2051,1.2278,150.0,98.0,0.482
28.46,32221.8,35766.4,1.1971,1.2275,150.0,98.0,0.482
28.48,32202.5,35611.4,1.1959,1.2185,150.0,98.0,0.482
28.5,32170.9,35327.4,1.1939,1.202,150.0,98.0,0.482
28.52,32136.9,35253.4,1.1917,1.1977,150.0,98.0,0.482
28.54,32015.2,35142.1,1.184,1.1913,150.0,98.0,0.482
28.56,31940.5,35054.0,1.1793,1.1862,150.0,98.0,0.482
28.58,31978.9,34953.9,1.1817,1.1804,150.0,98.0,0.482
28.6,31968.8,34839.9,1.1811,1.1738,150.0,98.0,0.482
28.62,31835.3,34786.0,1.1726,1.1707,150.0,98.0,0.482
28.64,31875.0,34812.0,1.1751,1.1722,150.0,98.0,0.482
28.66,31826.8,34607.5,1.1721,1.1603,150.0,98.0,0.482
28.68,31833.8,34632.4,1.1725,1.1618,150.0,98.0,0.482
28.7,31859.1,34543.9,1.1741,1.1566,150.0,98.0,0.482
28.72,31820.9,34530.5,1.1717,1.1559,150.0,98.0,0.482
28.74,31709.3,34429.6,1.1646,1.15,150.0,98.0,0.482
28.76,31715.6,34559.9,1.165,1.1576,150.0,98.0,0.482
28.78,31853.4,34716.5,1.1738,1.1666,150.0,98.0,0.482
28.8,32014.1,35185.3,1.1839,1.1938,150.0,98.0,0.482
28.82,32245.0,35433.7,1.1986,1.2082,150.0,98.0,0.482
28.84,32455.0,35742.4,1.2119,1.2261,150.0,98.0,0.482
28.86,32403.1,35690.7,1.2086,1.2231,150.0,98.0,0.482
28.88,32303.5,35575.0,1.2023,1.2164,150.0,98.0,0.482
28.9,32138.4,35431.3,1.1918,1.2081,150.0,98.0,0.482
28.92,32044.1,35235.0,1.1858,1.1967,150.0,98.0,0.482
28.94,32007.0,35170.1,1.1835,1.1929,150.0,98.0,0.482
28.96,32059.4,35078.4,1.1868,1.1876,150.0,98.0,0.482
28.98,32019.2,34967.9,1.1843,1.1812,150.0,98.0,0.482
29.0,31980.0,34863.5,1.1818,1.1751,150.0,98.0,0.482
29.02,31875.2,34783.3,1.1751,1.1705,150.0,98.0,0.482
29.04,31888.7,34769.5,1.176,1.1697,150.0,98.0,0.482
29.06,31857.5,34612.2,1.174,1.1606,150.0,98.0,0.482
29.08,31888.0,34658.3,1.1759,1.1633,150.0,98.0,0.482
29.1,31801.2,34618.4,1.1704,1.1609,150.0,98.0,0.482
29.12,31761.6,34575.2,1.1679,1.1584,150.0,98.0,0.482
29.14,31786.0,34486.2,1.1695,1.1533,150.0,98.0,0.482
29.16,31862.5,34557.4,1.1743,1.1574,150.0,98.0,0.482
29.18,31927.4,34715.0,1.1784,1.1665,150.0,98.0,0.482
29.2,32055.4,35067.2,1.1866,1.187,150.0,98.0,0.482
29.22,32308.8,35487.5,1.2026,1.2113,150.0,98.0,0.482
29.24,32220.8,35725.5,1.197,1.2251,150.0,98.0,0.482
29.26,32349.7,35746.1,1.2052,1.2263,150.0,98.0,0.482
29.28,32257.9,35530.3,1.1994,1.2138,150.0,98.0,0.482
29.3,32302.4,35317.9,1.2022,1.2015,150.0,98.0,0.482
29.32,32175.0,35249.9,1.1941,1.1975,150.0,98.0,0.482
29.34,32021.2,35036.1,1.1844,1.1852,150.0,98.0,0.482
29.36,32103.3,35078.3,1.1896,1.1876,150.0,98.0,0.482
29.38,31971.2,34923.3,1.1812,1.1786,150.0,98.0,0.482
29.4,31929.3,34891.4,1.1786,1.1768,150.0,98.0,0.482
29.42,31946.0,34787.7,1.1796,1.1708,150.0,98.0,0.482
29.44,31922.8,34708.2,1.1782,1.1661,150.0,98.0,0.482
29.46,31884.6,34666.3,1.1757,1.1637,150.0,98.0,0.482
29.48,31769.2,34687.2,1.1684,1.1649,150.0,98.0,0.482
29.5,31758.7,34509.4,1.1678,1.1546,150.0,98.0,0.482
29.52,31768.4,34490.6,1.1684,1.1535,150.0,98.0,0.482
29.54,31780.5,34437.1,1.1691,1.1504,150.0,98.0,0.482
29.56,31831.3,34445.8,1.1724,1.1509,150.0,98.0,0.482
29.58,31936.3,34697.9,1.179,1.1656,150.0,98.0,0.482
29.6,32028.0,35098.0,1.1848,1.1887,150.0,98.0,0.482
29.62,32168.1,35526.7,1.1937,1.2136,150.0,98.0,0.482
29.64,32314.2,35759.4,1.203,1.2271,150.0,98.0,0.482
29.66,32320.4,35755.3,1.2034,1.2268,150.0,98.0,0.482
29.68,32359.7,35534.7,1.2058,1.214,150.0,98.0,0.482
29.7,32094.7,35344.3,1.189,1.203,150.0,98.0,0.482
29.72,32117.8,35223.2,1.1905,1.196,150.0,98.0,0.482
29.74,31945.1,35076.8,1.1796,1.1875,150.0,98.0,0.482
29.76,32043.4,35128.8,1.1858,1.1905,150.0,98.0,0.482
29.78,32047.8,35013.9,1.1861,1.1839,150.0,98.0,0.482
29.8,32040.3,34900.6,1.1856,1.1773,150.0,98.0,0.482
29.82,31940.8,34840.4,1.1793,1.1738,150.0,98.0,0.482
29.84,31960.5,34689.2,1.1805,1.1651,150.0,98.0,0.482
29.86,31782.5,34586.1,1.1693,1.1591,150.0,98.0,0.482
29.88,31921.5,34678.4,1.1781,1.1644,150.0,98.0,0.482
29.9,31802.6,34612.6,1.1705,1.1606,150.0,98.0,0.482
29.92,31822.7,34513.1,1.1718,1.1548,150.0,98.0,0.482
29.94,31817.6,34444.7,1.1715,1.1509,150.0,98.0,0.482
29.96,31764.3,34472.4,1.1681,1.1525,150.0,98.0,0.482
29.98,31843.0,34724.0,1.1731,1.1671,150.0,98.0,0.482
30.0,32063.8,35245.0,1.1871,1.1973,150.0,98.0,0.482
30.02,32279.9,35461.4,1.2008,1.2098,150.0,98.0,0.482
30.04,32283.7,35715.8,1.201,1.2245,150.0,98.0,0.482
30.06,32366.5,35723.6,1.2063,1.225,150.0,98.0,0.482
30.08,32272.1,35611.3,1.2003,1.2185,150.0,98.0,0.482
30.1,32183.1,35315.2,1.1947,1.2013,150.0,98.0,0.482
30.12,32076.9,35177.9,1.1879,1.1934,150.0,98.0,0.482
30.14,32156.7,35146.9,1.193,1.1916,150.0,98.0,0.482
30.16,32001.8,34997.4,1.1832,1.1829,150.0,98.0,0.482
30.18,32030.0,34968.5,1.185,1.1812,150.0,98.0,0.482
30.2,32014.2,34911.3,1.1839,1.1779,150.0,98.0,0.482
30.22,31912.9,34838.8,1.1775,1.1737,150.0,98.0,0.482
30.24,31943.1,34817.1,1.1794,1.1725,150.0,98.0,0.482
30.26,31891.6,34807.7,1.1762,1.1719,150.0,98.0,0.482
30.28,31868.1,34549.1,1.1747,1.1569,150.0,98.0,0.482
30.3,31744.1,34646.0,1.1668,1.1625,150.0,98.0,0.482
30.32,31723.1,34527.6,1.1655,1.1557,150.0,98.0,0.482
30.34,31758.7,34504.7,1.1677,1.1544,150.0,98.0,0.482
30.36,31804.5,34579.4,1.1707,1.1587,150.0,98.0,0.482
30.38,31829.5,34764.8,1.1722,1.1694,150.0,98.0,0.482
30.4,32003.5,35114.7,1.1833,1.1897,150.0,98.0,0.482
30.42,32149.3,35565.8,1.1925,1.2158,150.0,98.0,0.482
30.44,32398.6,35641.1,1.2083,1.2202,150.0,98.0,0.482
30.46,32341.0,35667.1,1.2047,1.2217,150.0,98.0,0.482
30.48,32257.6,35581.2,1.1994,1.2167,150.0,98.0,0.482
30.5,32136.2,35420.2,1.1917,1.2074,150.0,98.0,0.482
30.52,32137.0,35191.1,1.1917,1.1941,150.0,98.0,0.482
30.54,32073.5,35152.7,1.1877,1.1919,150.0,98.0,0.482
30.56,32015.1,35048.7,1.184,1.1859,150.0,98.0,0.482
30.58,32006.5,35005.8,1.1835,1.1834,150.0,98.0,0.482
30.6,31952.2,34870.1,1.18,1.1755,150.0,98.0,0.482
30.62,31926.6,34782.2,1.1784,1.1704,150.0,98.0,0.482
30.64,31834.2,34647.0,1.1725,1.1626,150.0,98.0,0.482
30.66,31930.6,34635.6,1.1786,1.1619,150.0,98.0,0.482
30.68,31789.8,34693.0,1.1697,1.1653,150.0,98.0,0.482
30.7,31743.7,34532.0,1.1668,1.1559,150.0,98.0,0.482
30.72,31737.4,34521.2,1.1664,1.1553,150.0,98.0,0.482
30.74,31746.2,34428.9,1.167,1.15,150.0,98.0,0.482
30.76,31704.2,34512.4,1.1643,1.1548,150.0,98.0,0.482
30.78,31860.4,34754.7,1.1742,1.1688,150.0,98.0,0.482
30.8,32080.5,35170.2,1.1882,1.1929,150.0,98.0,0.482
30.82,32268.5,35512.9,1.2001,1.2128,150.0,98.0,0.482
30.84,32361.2,35638.2,1.2059,1.22,150.0,98.0,0.482
30.86,32364.9,35767.3,1.2062,1.2275,150.0,98.0,0.482
30.88,32260.6,35564.7,1.1996,1.2158,150.0,98.0,0.482
30.9,32231.2,35419.2,1.1977,1.2074,150.0,98.0,0.482
30.92,32111.5,35205.4,1.1901,1.195,150.0,98.0,0.482
30.94,32004.6,35175.9,1.1833,1.1932,150.0,98.0,0.482
30.96,31939.3,35086.9,1.1792,1.1881,150.0,98.0,0.482
30.98,31945.9,34982.7,1.1796,1.1821,150.0,98.0,0.482
31.0,31962.4,34837.8,1.1807,1.1737,150.0,98.0,0.482
31.02,31936.4,34775.4,1.179,1.17,150.0,98.0,0.482
31.04,31831.0,34786.6,1.1723,1.1707,150.0,98.0,0.482
31.06,31756.2,34608.3,1.1676,1.1604,150.0,98.0,0.482
31.08,31851.5,34676.9,1.1736,1.1643,150.0,98.0,0.482
31.1,31844.6,34593.5,1.1732,1.1595,150.0,98.0,0.482
31.12,31841.5,34581.4,1.173,1.1588,150.0,98.0,0.482
31.14,31712.6,34496.3,1.1648,1.1539,150.0,98.0,0.482
31.16,31791.8,34412.4,1.1699,1.149,150.0,98.0,0.482
31.18,31855.4,34794.3,1.1739,1.1711,150.0,98.0,0.482
31.2,32009.1,35085.4,1.1836,1.188,150.0,98.0,0.482
31.22,32342.5,35475.5,1.2048,1.2106,150.0,98.0,0.482
31.24,32329.7,35717.4,1.2039,1.2246,150.0,98.0,0.482
31.26,32322.2,35737.7,1.2035,1.2258,150.0,98.0,0.482
31.28,32288.7,35656.7,1.2013,1.2211,150.0,98.0,0.482
31.3,32152.0,35465.0,1.1927,1.21,150.0,98.0,0.482
31.32,32105.3,35174.6,1.1897,1.1932,150.0,98.0,0.482
31.34,31934.6,35120.8,1.1789,1.1901,150.0,98.0,0.482
31.36,32021.8,35076.6,1.1844,1.1875,150.0,98.0,0.482
31.38,32051.9,35009.8,1.1863,1.1836,150.0,98.0,0.482
31.4,31986.8,34827.8,1.1822,1.1731,150.0,98.0,0.482
31.42,31851.5,34870.8,1.1736,1.1756,150.0,98.0,0.482
31.44,31868.0,34690.1,1.1747,1.1651,150.0,98.0,0.482
31.46,31836.2,34695.8,1.1727,1.1654,150.0,98.0,0.482
31.48,31796.5,34712.1,1.1701,1.1664,150.0,98.0,0.482
31.5,31779.7,34562.4,1.1691,1.1577,150.0,98.0,0.482
31.52,31786.8,34561.9,1.1695,1.1577,150.0,98.0,0.482
31.54,31779.4,34485.9,1.1691,1.1533,150.0,98.0,0.482
31.56,31823.6,34549.2,1.1719,1.1569,150.0,98.0,0.482
31.58,31836.5,34720.9,1.1727,1.1669,150.0,98.0,0.482
31.6,32009.4,35204.8,1.1836,1.1949,150.0,98.0,0.482
31.62,32268.9,35497.2,1.2001,1.2119,150.0,98.0,0.482
31.64,32340.2,35674.3,1.2046,1.2221,150.0,98.0,0.482
31.66,32305.6,35796.0,1.2024,1.2292,150.0,98.0,0.482
31.68,32394.6,35564.7,1.2081,1.2158,150.0,98.0,0.482
31.7,32104.9,35331.7,1.1897,1.2023,150.0,98.0,0.482
31.72,32070.9,35295.6,1.1875,1.2002,150.0,98.0,0.482
31.74,32109.0,35196.9,1.19,1.1945,150.0,98.0,0.482
31.76,32134.6,34993.9,1.1916,1.1827,150.0,98.0,0.482
31.78,31970.4,35050.1,1.1812,1.186,150.0,98.0,0.482
31.8,31896.5,34855.6,1.1765,1.1747,150.0,98.0,0.482
31.82,31944.7,34819.5,1.1795,1.1726,150.0,98.0,0.482
31.84,31997.1,34736.7,1.1829,1.1678,150.0,98.0,0.482
31.86,31895.9,34598.7,1.1764,1.1598,150.0,98.0,0.482
31.88,31831.5,34715.7,1.1724,1.1666,150.0,98.0,0.482
31.9,31800.8,34584.6,1.1704,1.159,150.0,98.0,0.482
31.92,31845.2,34501.2,1.1732,1.1542,150.0,98.0,0.482
31.94,31754.1,34425.1,1.1675,1.1497,150.0,98.0,0.482
31.96,31781.0,34515.3,1.1692,1.155,150.0,98.0,0.482
31.98,31858.7,34811.1,1.1741,1.1721,150.0,98.0,0.482
32.0,32061.8,35072.1,1.187,1.1872,150.0,98.0,0.482
32.02,32206.5,35476.0,1.1961,1.2106,150.0,98.0,0.482
32.04,32327.5,35731.4,1.2038,1.2254,150.0,98.0,0.482
32.06,32313.7,35781.1,1.2029,1.2283,150.0,98.0,0.482
32.08,32251.3,35615.8,1.199,1.2187,150.0,98.0,0.482
32.1,32145.3,35355.2,1.1923,1.2036,150.0,98.0,0.482
32.12,32177.8,35129.6,1.1943,1.1906,150.0,98.0,0.482
32.14,31987.3,35114.9,1.1822,1.1897,150.0,98.0,0.482
32.16,31989.4,35105.2,1.1824,1.1892,150.0,98.0,0.482
32.18,32077.0,34994.5,1.1879,1.1827,150.0,98.0,0.482
32.2,31958.6,34900.7,1.1804,1.1773,150.0,98.0,0.482
32.22,31927.3,34784.4,1.1784,1.1706,150.0,98.0,0.482
32.24,31882.7,34728.3,1.1756,1.1673,150.0,98.0,0.482
32.26,31925.4,34591.3,1.1783,1.1594,150.0,98.0,0.482
32.28,31911.9,34715.4,1.1775,1.1666,150.0,98.0,0.482
32.3,31740.5,34599.5,1.1666,1.1599,150.0,98.0,0.482
32.32,31792.8,34632.3,1.1699,1.1618,150.0,98.0,0.482
32.34,31790.9,34506.6,1.1698,1.1545,150.0,98.0,0.482
32.36,31740.4,34551.5,1.1666,1.1571,150.0,98.0,0.482
32.38,31932.9,34770.1,1.1788,1.1697,150.0,98.0,0.482
32.4,32053.9,35051.7,1.1865,1.1861,150.0,98.0,0.482
32.42,32187.7,35545.8,1.1949,1.2147,150.0,98.0,0.482
32.44,32355.3,35774.8,1.2056,1.228,150.0,98.0,0.482
32.46,32279.1,35781.0,1.2007,1.2283,150.0,98.0,0.482
32.48,32255.7,35621.3,1.1993,1.2191,150.0,98.0,0.482
32.5,32240.8,35302.3,1.1983,1.2006,150.0,98.0,0.482
32.52,32155.7,35158.5,1.1929,1.1922,150.0,98.0,0.482
32.54,32072.7,35014.3,1.1877,1.1839,150.0,98.0,0.482
32.56,32020.1,35046.9,1.1843,1.1858,150.0,98.0,0.482
32.58,32027.2,35033.5,1.1848,1.185,150.0,98.0,0.482
32.6,32001.4,34864.1,1.1831,1.1752,150.0,98.0,0.482
32.62,31863.0,34818.3,1.1744,1.1725,150.0,98.0,0.482
32.64,31830.9,34660.4,1.1723,1.1634,150.0,98.0,0.482
32.66,31860.5,34623.1,1.1742,1.1612,150.0,98.0,0.482
32.68,31868.0,34631.1,1.1747,1.1617,150.0,98.0,0.482
32.7,31836.5,34551.2,1.1727,1.1571,150.0,98.0,0.482
32.72,31820.3,34530.3,1.1717,1.1558,150.0,98.0,0.482
32.74,31809.1,34524.1,1.1709,1.1555,150.0,98.0,0.482
32.76,31851.9,34505.2,1.1737,1.1544,150.0,98.0,0.482
32.78,31978.5,34750.4,1.1817,1.1686,150.0,98.0,0.482
32.8,32003.1,35090.5,1.1832,1.1883,150.0,98.0,0.482
32.82,32128.5,35603.2,1.1912,1.218,150.0,98.0,0.482
32.84,32403.6,35792.6,1.2086,1.229,150.0,98.0,0.482
32.86,32318.1,35735.4,1.2032,1.2257,150.0,98.0,0.482
32.88,32259.1,35611.0,1.1995,1.2185,150.0,98.0,0.482
32.9,32097.2,35365.5,1.1892,1.2042,150.0,98.0,0.482
32.92,32092.9,35318.6,1.1889,1.2015,150.0,98.0,0.482
32.94,32131.7,35146.6,1.1914,1.1916,150.0,98.0,0.482
32.96,32141.3,35145.8,1.192,1.1915,150.0,98.0,0.482
32.98,31986.7,34912.8,1.1822,1.178,150.0,98.0,0.482
33.0,32004.9,34933.2,1.1834,1.1792,150.0,98.0,0.482
33.02,31912.9,34717.8,1.1775,1.1667,150.0,98.0,0.482
33.04,31947.2,34714.1,1.1797,1.1665,150.0,98.0,0.482
33.06,31912.0,34724.8,1.1775,1.1671,150.0,98.0,0.482
33.08,31856.1,34603.0,1.1739,1.1601,150.0,98.0,0.482
33.1,31730.4,34657.9,1.166,1.1632,150.0,98.0,0.482
33.12,31772.1,34535.6,1.1686,1.1561,150.0,98.0,0.482
33.14,31739.4,34289.6,1.1665,1.1419,150.0,98.0,0.482
33.16,31723.4,34451.0,1.1655,1.1512,150.0,98.0,0.482
33.18,31891.5,34805.2,1.1762,1.1718,150.0,98.0,0.482
33.2,32012.5,35117.3,1.1838,1.1899,150.0,98.0,0.482
33.22,32149.3,35413.6,1.1925,1.207,150.0,98.0,0.482
33.24,32327.1,35773.3,1.2038,1.2279,150.0,98.0,0.482
33.26,32375.2,35669.1,1.2068,1.2218,150.0,98.0,0.482
33.28,32256.5,35646.4,1.1993,1.2205,150.0,98.0,0.482
33.3,32148.5,35309.3,1.1925,1.201,150.0,98.0,0.482
33.32,32114.0,35292.7,1.1903,1.2,150.0,98.0,0.482
33.34,31972.3,35170.6,1.1813,1.1929,150.0,98.0,0.482
33.36,31962.3,35124.2,1.1807,1.1903,150.0,98.0,0.482
33.38,32026.3,35020.4,1.1847,1.1842,150.0,98.0,0.482
33.4,31823.8,34960.5,1.1719,1.1808,150.0,98.0,0.482
33.42,31960.7,34747.0,1.1806,1.1684,150.0,98.0,0.482
33.44,31913.6,34773.4,1.1776,1.1699,150.0,98.0,0.482
33.46,31888.6,34719.8,1.176,1.1668,150.0,98.0,0.482
33.48,31810.4,34744.3,1.171,1.1682,150.0,98.0,0.482
33.5,31758.4,34670.7,1.1677,1.164,150.0,98.0,0.482
33.52,31795.7,34434.0,1.1701,1.1503,150.0,98.0,0.482
33.54,31767.9,34581.7,1.1683,1.1588,150.0,98.0,0.482
33.56,31685.5,34462.3,1.1631,1.1519,150.0,98.0,0.482
33.58,31826.8,34723.3,1.1721,1.167,150.0,98.0,0.482
33.6,32156.7,35188.0,1.193,1.194,150.0,98.0,0.482
33.62,32173.8,35460.3,1.1941,1.2097,150.0,98.0,0.482
33.64,32443.6,35716.4,1.2112,1.2246,150.0,98.0,0.482
33.66,32385.5,35761.4,1.2075,1.2272,150.0,98.0,0.482
33.68,32327.0,35628.5,1.2038,1.2195,150.0,98.0,0.482
33.7,32236.2,35318.5,1.198,1.2015,150.0,98.0,0.482
33.72,32073.1,35264.2,1.1877,1.1984,150.0,98.0,0.482
33.74,32033.6,35080.2,1.1852,1.1877,150.0,98.0,0.482
33.76,32099.4,35012.0,1.1893,1.1838,150.0,98.0,0.482
33.78,31964.0,35011.1,1.1808,1.1837,150.0,98.0,0.482
33.8,31958.7,34891.3,1.1804,1.1768,150.0,98.0,0.482
33.82,31895.3,34775.6,1.1764,1.1701,150.0,98.0,0.482
33.84,31886.4,34737.3,1.1758,1.1678,150.0,98.0,0.482
33.86,31858.8,34646.0,1.1741,1.1625,150.0,98.0,0.482
33.88,31776.1,34661.8,1.1689,1.1635,150.0,98.0,0.482
33.9,31878.7,34586.9,1.1754,1.1591,150.0,98.0,0.482
33.92,31817.1,34458.4,1.1715,1.1517,150.0,98.0,0.482
33.94,31870.2,34462.2,1.1748,1.1519,150.0,98.0,0.482
33.96,31758.8,34406.0,1.1678,1.1486,150.0,98.0,0.482
33.98,31963.7,34692.9,1.1807,1.1653,150.0,98.0,0.482
34.0,32038.8,35063.3,1.1855,1.1867,150.0,98.0,0.482
34.02,32219.0,35498.9,1.1969,1.212,150.0,98.0,0.482
34.04,32374.8,35746.5,1.2068,1.2263,150.0,98.0,0.482
34.06,32255.8,35672.4,1.1993,1.222,150.0,98.0,0.482
34.08,32319.0,35558.9,1.2033,1.2154,150.0,98.0,0.482
34.1,32209.6,35407.6,1.1963,1.2067,150.0,98.0,0.482
34.12,32125.6,35168.9,1.191,1.1928,150.0,98.0,0.482
34.14,32189.0,35138.5,1.195,1.1911,150.0,98.0,0.482
34.16,32030.7,35170.2,1.185,1.1929,150.0,98.0,0.482
34.18,31956.3,34978.4,1.1803,1.1818,150.0,98.0,0.482
34.2,31968.6,34809.1,1.1811,1.172,150.0,98.0,0.482
34.22,31952.3,34805.4,1.18,1.1718,150.0,98.0,0.482
34.24,31863.7,34704.7,1.1744,1.1659,150.0,98.0,0.482
34.26,31874.5,34721.0,1.1751,1.1669,150.0,98.0,0.482
34.28,31805.8,34730.2,1.1707,1.1674,150.0,98.0,0.482
34.3,31873.9,34634.7,1.1751,1.1619,150.0,98.0,0.482
34.32,31734.1,34507.8,1.1662,1.1545,150.0,98.0,0.482
34.34,31780.3,34424.1,1.1691,1.1497,150.0,98.0,0.482
34.36,31829.7,34494.6,1.1723,1.1538,150.0,98.0,0.482
34.38,31869.0,34756.0,1.1747,1.1689,150.0,98.0,0.482
34.4,32040.9,35151.2,1.1856,1.1918,150.0,98.0,0.482
34.42,32148.7,35534.2,1.1925,1.214,150.0,98.0,0.482
34.44,32311.3,35639.3,1.2028,1.2201,150.0,98.0,0.482
34.46,32256.6,35719.3,1.1993,1.2247,150.0,98.0,0.482
34.48,32249.8,35578.9,1.1989,1.2166,150.0,98.0,0.482
34.5,32201.9,35358.1,1.1958,1.2038,150.0,98.0,0.482
34.52,32170.5,35272.9,1.1939,1.1989,150.0,98.0,0.482
34.54,32069.1,35087.9,1.1874,1.1882,150.0,98.0,0.482
34.56,32059.7,34996.7,1.1868,1.1829,150.0,98.0,0.482
34.58,32123.8,35096.5,1.1909,1.1887,150.0,98.0,0.482
34.6,31928.0,34890.6,1.1785,1.1767,150.0,98.0,0.482
34.62,31915.9,34798.5,1.1777,1.1714,150.0,98.0,0.482
34.64,31922.9,34824.0,1.1782,1.1729,150.0,98.0,0.482
34.66,31825.7,34685.6,1.172,1.1648,150.0,98.0,0.482
34.68,31820.2,34718.9,1.1716,1.1668,150.0,98.0,0.482
34.7,31798.0,34688.7,1.1702,1.165,150.0,98.0,0.482
34.72,31717.4,34545.8,1.1651,1.1567,150.0,98.0,0.482
34.74,31759.0,34516.4,1.1678,1.155,150.0,98.0,0.482
34.76,31778.8,34574.9,1.169,1.1584,150.0,98.0,0.482
34.78,31971.8,34817.1,1.1813,1.1725,150.0,98.0,0.482
34.8,32024.4,35132.9,1.1846,1.1908,150.0,98.0,0.482
34.82,32218.4,35485.5,1.1969,1.2112,150.0,98.0,0.482
34.84,32336.6,35731.5,1.2044,1.2254,150.0,98.0,0.482
34.86,32221.4,35738.8,1.1971,1.2259,150.0,98.0,0.482
34.88,32298.9,35630.2,1.202,1.2196,150.0,98.0,0.482
34.9,32154.9,35354.2,1.1929,1.2036,150.0,98.0,0.482
34.92,32114.7,35255.0,1.1903,1.1978,150.0,98.0,0.482
34.94,32136.6,35107.4,1.1917,1.1893,150.0,98.0,0.482
34.96,32062.7,34974.5,1.187,1.1816,150.0,98.0,0.482
34.98,31898.4,34984.2,1.1766,1.1821,150.0,98.0,0.482
35.0,31950.6,34907.1,1.1799,1.1777,150.0,98.0,0.482
35.02,31950.9,34819.0,1.1799,1.1726,150.0,98.0,0.482
35.04,31899.7,34820.8,1.1767,1.1727,150.0,98.0,0.482
35.06,31799.3,34719.2,1.1703,1.1668,150.0,98.0,0.482
35.08,31794.6,34637.2,1.17,1.162,150.0,98.0,0.482
35.1,31772.4,34651.0,1.1686,1.1628,150.0,98.0,0.482
35.12,31868.8,34586.0,1.1747,1.1591,150.0,98.0,0.482
35.14,31766.1,34433.3,1.1682,1.1502,150.0,98.0,0.482
35.16,31794.8,34598.3,1.17,1.1598,150.0,98.0,0.482
35.18,31782.2,34705.1,1.1692,1.166,150.0,98.0,0.482
35.2,32010.1,35114.2,1.1837,1.1897,150.0,98.0,0.482
35.22,32252.3,35572.1,1.199,1.2162,150.0,98.0,0.482
35.24,32443.8,35757.8,1.2112,1.227,150.0,98.0,0.482
35.26,32360.1,35811.1,1.2059,1.2301,150.0,98.0,0.482
35.28,32334.7,35598.2,1.2043,1.2177,150.0,98.0,0.482
35.3,32124.6,35379.1,1.1909,1.205,150.0,98.0,0.482
35.32,32033.8,35282.3,1.1852,1.1994,150.0,98.0,0.482
35.34,32077.6,35097.6,1.188,1.1887,150.0,98.0,0.482
35.36,32020.3,35087.1,1.1843,1.1881,150.0,98.0,0.482
35.38,31971.7,34994.6,1.1813,1.1827,150.0,98.0,0.482
35.4,32028.7,34938.8,1.1849,1.1795,150.0,98.0,0.482
35.42,31927.9,34820.4,1.1785,1.1727,150.0,98.0,0.482
35.44,31926.0,34751.8,1.1784,1.1687,150.0,98.0,0.482
35.46,31878.7,34640.7,1.1754,1.1622,150.0,98.0,0.482
35.48,31879.2,34738.0,1.1754,1.1679,150.0,98.0,0.482
35.5,31914.2,34637.7,1.1776,1.1621,150.0,98.0,0.482
35.52,31796.0,34490.4,1.1701,1.1535,150.0,98.0,0.482
35.54,31754.4,34420.6,1.1675,1.1495,150.0,98.0,0.482
35.56,31670.3,34499.3,1.1622,1.154,150.0,98.0,0.482
35.58,31756.9,34774.3,1.1676,1.17,150.0,98.0,0.482
35.6,32078.6,35082.9,1.188,1.1879,150.0,98.0,0.482
35.62,32145.0,35494.2,1.1922,1.2117,150.0,98.0,0.482
35.64,32361.8,35694.6,1.206,1.2233,150.0,98.0,0.482
35.66,32328.0,35805.1,1.2038,1.2297,150.0,98.0,0.482
35.68,32289.4,35639.9,1.2014,1.2201,150.0,98.0,0.482
35.7,32182.9,35348.3,1.1946,1.2032,150.0,98.0,0.482
35.72,32116.1,35290.8,1.1904,1.1999,150.0,98.0,0.482
35.74,32113.7,35122.7,1.1903,1.1902,150.0,98.0,0.482
35.76,32044.0,35098.9,1.1858,1.1888,150.0,98.0,0.482
35.78,31954.4,34994.7,1.1802,1.1828,150.0,98.0,0.482
35.8,31870.5,34839.0,1.1748,1.1737,150.0,98.0,0.482
35.82,32025.5,34763.8,1.1847,1.1694,150.0,98.0,0.482
35.84,31894.3,34682.4,1.1763,1.1647,150.0,98.0,0.482
35.86,31919.1,34669.8,1.1779,1.1639,150.0,98.0,0.482
35.88,31820.2,34713.4,1.1717,1.1665,150.0,98.0,0.482
35.9,31835.2,34642.4,1.1726,1.1623,150.0,98.0,0.482
35.92,31867.2,34548.2,1.1746,1.1569,150.0,98.0,0.482
35.94,31762.9,34344.1,1.168,1.1451,150.0,98.0,0.482
35.96,31828.7,34399.4,1.1722,1.1483,150.0,98.0,0.482
35.98,31883.6,34720.0,1.1757,1.1668,150.0,98.0,0.482
36.0,32047.3,35057.6,1.186,1.1864,150.0,98.0,0.482
36.02,32197.2,35474.5,1.1955,1.2106,150.0,98.0,0.482
36.04,32252.4,35718.1,1.199,1.2247,150.0,98.0,0.482
36.06,32355.2,35712.5,1.2056,1.2243,150.0,98.0,0.482
36.08,32194.2,35711.0,1.1954,1.2243,150.0,98.0,0.482
36.1,32093.9,35411.2,1.189,1.2069,150.0,98.0,0.482
36.12,32103.8,35202.8,1.1896,1.1948,150.0,98.0,0.482
36.14,32071.9,35222.2,1.1876,1.1959,150.0,98.0,0.482
36.16,32086.6,35016.0,1.1885,1.184,150.0,98.0,0.482
36.18,32061.6,35025.7,1.187,1.1845,150.0,98.0,0.482
36.2,31912.2,34896.8,1.1775,1.1771,150.0,98.0,0.482
36.22,31866.6,34676.5,1.1746,1.1643,150.0,98.0,0.482
36.24,31948.4,34684.0,1.1798,1.1647,150.0,98.0,0.482
36.26,31871.7,34642.8,1.1749,1.1624,150.0,98.0,0.482
36.28,31841.1,34593.1,1.173,1.1595,150.0,98.0,0.482
36.3,31750.8,34525.3,1.1672,1.1556,150.0,98.0,0.482
36.32,31791.3,34462.2,1.1698,1.1519,150.0,98.0,0.482
36.34,31799.8,34416.5,1.1704,1.1492,150.0,98.0,0.482
36.36,31687.0,34480.3,1.1632,1.1529,150.0,98.0,0.482
36.38,31873.2,34721.9,1.175,1.1669,150.0,98.0,0.482
36.4,32016.5,35057.8,1.1841,1.1864,150.0,98.0,0.482
36.42,32198.5,35506.2,1.1956,1.2124,150.0,98.0,0.482
36.44,32332.0,35744.3,1.2041,1.2262,150.0,98.0,0.482
36.46,32344.6,35719.0,1.2049,1.2247,150.0,98.0,0.482
36.48,32374.0,35635.7,1.2068,1.2199,150.0,98.0,0.482
36.5,32132.1,35366.2,1.1914,1.2043,150.0,98.0,0.482
36.52,32087.6,35277.2,1.1886,1.1991,150.0,98.0,0.482
36.54,32064.5,35184.5,1.1871,1.1937,150.0,98.0,0.482
36.56,32037.5,35069.9,1.1854,1.1871,150.0,98.0,0.482
36.58,32030.3,35056.1,1.185,1.1863,150.0,98.0,0.482
36.6,31918.3,34965.6,1.1779,1.1811,150.0,98.0,0.482
36.62,31761.3,34815.0,1.1679,1.1723,150.0,98.0,0.482
36.64,31935.2,34760.7,1.1789,1.1692,150.0,98.0,0.482
36.66,31861.2,34662.2,1.1742,1.1635,150.0,98.0,0.482
36.68,31877.3,34709.0,1.1753,1.1662,150.0,98.0,0.482
36.7,31849.7,34651.5,1.1735,1.1629,150.0,98.0,0.482
36.72,31842.9,34594.7,1.1731,1.1596,150.0,98.0,0.482
36.74,31814.3,34506.7,1.1713,1.1545,150.0,98.0,0.482
36.76,31814.4,34487.5,1.1713,1.1534,150.0,98.0,0.482
36.78,31919.3,34733.5,1.1779,1.1676,150.0,98.0,0.482
36.8,32114.7,35158.0,1.1903,1.1922,150.0,98.0,0.482
36.82,32244.8,35426.1,1.1986,1.2077,150.0,98.0,0.482
36.84,32315.1,35637.9,1.203,1.22,150.0,98.0,0.482
36.86,32280.2,35782.8,1.2008,1.2284,150.0,98.0,0.482
36.88,32318.4,35688.2,1.2032,1.2229,150.0,98.0,0.482
36.9,32091.1,35350.0,1.1888,1.2033,150.0,98.0,0.482
36.92,32126.7,35257.7,1.1911,1.198,150.0,98.0,0.482
36.94,32092.4,35142.9,1.1889,1.1913,150.0,98.0,0.482
36.96,31936.8,35123.9,1.179,1.1902,150.0,98.0,0.482
36.98,31991.7,34967.5,1.1825,1.1812,150.0,98.0,0.482
37.0,31901.6,34895.4,1.1768,1.177,150.0,98.0,0.482
37.02,31926.4,34818.8,1.1784,1.1726,150.0,98.0,0.482
37.04,31886.7,34666.5,1.1759,1.1637,150.0,98.0,0.482
37.06,31948.0,34618.3,1.1798,1.1609,150.0,98.0,0.482
37.08,31789.3,34578.7,1.1697,1.1586,150.0,98.0,0.482
37.1,31849.1,34578.0,1.1735,1.1586,150.0,98.0,0.482
37.12,31732.2,34477.1,1.1661,1.1528,150.0,98.0,0.482
37.14,31671.9,34398.2,1.1622,1.1482,150.0,98.0,0.482
37.16,31755.9,34507.7,1.1676,1.1545,150.0,98.0,0.482
37.18,31854.8,34725.3,1.1738,1.1671,150.0,98.0,0.482
37.2,32147.0,35042.6,1.1924,1.1855,150.0,98.0,0.482
37.22,32193.0,35485.7,1.1953,1.2112,150.0,98.0,0.482
37.24,32340.6,35629.9,1.2046,1.2196,150.0,98.0,0.482
37.26,32301.6,35758.7,1.2022,1.227,150.0,98.0,0.482
37.28,32157.9,35520.5,1.1931,1.2132,150.0,98.0,0.482
37.3,32155.7,35444.1,1.1929,1.2088,150.0,98.0,0.482
37.32,32002.5,35268.7,1.1832,1.1986,150.0,98.0,0.482
37.34,32098.5,35042.5,1.1893,1.1855,150.0,98.0,0.482
37.36,32115.0,35103.5,1.1903,1.1891,150.0,98.0,0.482
37.38,32008.8,34968.7,1.1836,1.1812,150.0,98.0,0.482
37.4,32000.2,34856.8,1.1831,1.1748,150.0,98.0,0.482
37.42,31895.4,34801.7,1.1764,1.1716,150.0,98.0,0.482
37.44,31951.8,34695.4,1.18,1.1654,150.0,98.0,0.482
37.46,31823.2,34531.2,1.1718,1.1559,150.0,98.0,0.482
37.48,31852.3,34650.5,1.1737,1.1628,150.0,98.0,0.482
37.5,31869.3,34566.9,1.1748,1.158,150.0,98.0,0.482
37.52,31759.5,34509.5,1.1678,1.1546,150.0,98.0,0.482
37.54,31740.1,34454.1,1.1666,1.1514,150.0,98.0,0.482
37.56,31759.7,34461.5,1.1678,1.1519,150.0,98.0,0.482
37.58,31797.7,34763.7,1.1702,1.1694,150.0,98.0,0.482
37.6,32063.6,35036.8,1.1871,1.1852,150.0,98.0,0.482
37.62,32280.2,35561.3,1.2008,1.2156,150.0,98.0,0.482
37.64,32324.0,35794.2,1.2036,1.2291,150.0,98.0,0.482
37.66,32342.8,35826.2,1.2048,1.2309,150.0,98.0,0.482
37.68,32271.7,35527.9,1.2003,1.2137,150.0,98.0,0.482
37.7,32162.4,35406.7,1.1933,1.2066,150.0,98.0,0.482
37.72,32093.9,35171.8,1.189,1.193,150.0,98.0,0.482
37.74,32071.0,35016.3,1.1875,1.184,150.0,98.0,0.482
37.76,32061.7,35136.0,1.187,1.1909,150.0,98.0,0.482
37.78,32025.7,34980.7,1.1847,1.1819,150.0,98.0,0.482
37.8,31865.0,34872.3,1.1745,1.1757,150.0,98.0,0.482
37.82,31885.2,34841.4,1.1758,1.1739,150.0,98.0,0.482
37.84,31827.7,34694.1,1.1721,1.1653,150.0,98.0,0.482
37.86,31828.4,34585.8,1.1722,1.1591,150.0,98.0,0.482
37.88,31842.9,34684.0,1.1731,1.1647,150.0,98.0,0.482
37.9,31835.0,34614.9,1.1726,1.1607,150.0,98.0,0.482
37.92,31768.5,34377.7,1.1684,1.147,150.0,98.0,0.482
37.94,31801.8,34386.6,1.1705,1.1475,150.0,98.0,0.482
37.96,31832.4,34535.2,1.1724,1.1561,150.0,98.0,0.482
37.98,31846.1,34749.2,1.1733,1.1685,150.0,98.0,0.482
38.0,32071.5,35086.9,1.1876,1.1881,150.0,98.0,0.482
38.02,32194.7,35437.9,1.1954,1.2084,150.0,98.0,0.482
38.04,32310.5,35707.6,1.2027,1.2241,150.0,98.0,0.482
38.06,32336.8,35723.0,1.2044,1.225,150.0,98.0,0.482
38.08,32284.3,35531.7,1.2011,1.2139,150.0,98.0,0.482
38.1,32171.2,35425.1,1.1939,1.2077,150.0,98.0,0.482
38.12,32134.7,35148.2,1.1916,1.1916,150.0,98.0,0.482
38.14,32083.7,35234.0,1.1883,1.1966,150.0,98.0,0.482
38.16,32011.4,34988.0,1.1838,1.1824,150.0,98.0,0.482
38.18,31928.2,35001.9,1.1785,1.1832,150.0,98.0,0.482
38.2,31945.1,34836.5,1.1796,1.1736,150.0,98.0,0.482
38.22,31927.4,34769.5,1.1784,1.1697,150.0,98.0,0.482
38.24,31893.1,34624.0,1.1763,1.1613,150.0,98.0,0.482
38.26,31867.8,34613.0,1.1747,1.1606,150.0,98.0,0.482
38.28,31840.9,34754.7,1.173,1.1688,150.0,98.0,0.482
38.3,31765.2,34596.7,1.1682,1.1597,150.0,98.0,0.482
38.32,31753.0,34542.5,1.1674,1.1566,150.0,98.0,0.482
38.34,31832.4,34425.8,1.1724,1.1498,150.0,98.0,0.482
38.36,31801.5,34572.8,1.1705,1.1583,150.0,98.0,0.482
38.38,31859.4,34725.0,1.1741,1.1671,150.0,98.0,0.482
38.4,32033.1,35056.5,1.1851,1.1863,150.0,98.0,0.482
38.42,32166.1,35464.1,1.1936,1.21,150.0,98.0,0.482
38.44,32358.9,35740.0,1.2058,1.2259,150.0,98.0,0.482
38.46,32393.2,35762.0,1.208,1.2272,150.0,98.0,0.482
38.48,32262.6,35639.4,1.1997,1.2201,150.0,98.0,0.482
38.5,32224.5,35485.8,1.1973,1.2112,150.0,98.0,0.482
38.52,32090.2,35218.5,1.1888,1.1957,150.0,98.0,0.482
38.54,32057.2,35205.2,1.1867,1.1949,150.0,98.0,0.482
38.56,32005.7,35105.5,1.1834,1.1892,150.0,98.0,0.482
38.58,32026.8,35078.6,1.1847,1.1876,150.0,98.0,0.482
38.6,31910.5,34893.9,1.1774,1.1769,150.0,98.0,0.482
38.62,31858.5,34752.3,1.1741,1.1687,150.0,98.0,0.482
38.64,31804.3,34742.2,1.1706,1.1681,150.0,98.0,0.482
38.66,31868.0,34716.6,1.1747,1.1666,150.0,98.0,0.482
38.68,31803.9,34687.9,1.1706,1.165,150.0,98.0,0.482
38.7,31884.3,34529.6,1.1757,1.1558,150.0,98.0,0.482
38.72,31834.0,34565.4,1.1725,1.1579,150.0,98.0,0.482
38.74,31750.9,34464.9,1.1673,1.1521,150.0,98.0,0.482
38.76,31750.1,34535.8,1.1672,1.1562,150.0,98.0,0.482
38.78,31893.7,34707.0,1.1763,1.1661,150.0,98.0,0.482
38.8,32067.6,35268.4,1.1873,1.1986,150.0,98.0,0.482
38.82,32227.2,35497.5,1.1974,1.2119,150.0,98.0,0.482
38.84,32293.7,35716.8,1.2017,1.2246,150.0,98.0,0.482
38.86,32372.4,35700.7,1.2066,1.2237,150.0,98.0,0.482
38.88,32225.1,35493.0,1.1973,1.2116,150.0,98.0,0.482
38.9,32161.4,35357.4,1.1933,1.2038,150.0,98.0,0.482
38.92,32139.1,35234.0,1.1919,1.1966,150.0,98.0,0.482
38.94,32002.4,35143.0,1.1832,1.1913,150.0,98.0,0.482
38.96,32029.4,35137.1,1.1849,1.191,150.0,98.0,0.482
38.98,31923.0,34954.8,1.1782,1.1804,150.0,98.0,0.482
39.0,31889.1,34857.7,1.176,1.1748,150.0,98.0,0.482
39.02,31920.7,34798.1,1.178,1.1714,150.0,98.0,0.482
39.04,31984.7,34613.1,1.1821,1.1606,150.0,98.0,0.482
39.06,31783.1,34650.5,1.1693,1.1628,150.0,98.0,0.482
39.08,31805.9,34632.7,1.1707,1.1618,150.0,98.0,0.482
39.1,31909.1,34540.8,1.1773,1.1564,150.0,98.0,0.482
39.12,31754.7,34598.3,1.1675,1.1598,150.0,98.0,0.482
39.14,31678.5,34447.5,1.1627,1.151,150.0,98.0,0.482
39.16,31794.8,34486.8,1.17,1.1533,150.0,98.0,0.482
39.18,31928.5,34666.1,1.1785,1.1637,150.0,98.0,0.482
39.2,32018.3,35061.3,1.1842,1.1866,150.0,98.0,0.482
39.22,32254.9,35421.5,1.1992,1.2075,150.0,98.0,0.482
39.24,32349.4,35731.7,1.2052,1.2255,150.0,98.0,0.482
39.26,32311.1,35634.7,1.2028,1.2198,150.0,98.0,0.482
39.28,32316.8,35642.4,1.2031,1.2203,150.0,98.0,0.482
39.3,32150.3,35405.1,1.1926,1.2065,150.0,98.0,0.482
39.32,32033.5,35226.1,1.1852,1.1962,150.0,98.0,0.482
39.34,32022.9,35165.3,1.1845,1.1926,150.0,98.0,0.482
39.36,32002.0,35091.0,1.1832,1.1883,150.0,98.0,0.482
39.38,32059.9,34992.9,1.1868,1.1826,150.0,98.0,0.482
39.4,31900.3,34854.7,1.1767,1.1746,150.0,98.0,0.482
39.42,31889.8,34803.7,1.1761,1.1717,150.0,98.0,0.482
39.44,31806.4,34680.3,1.1708,1.1645,150.0,98.0,0.482
39.46,31800.2,34718.3,1.1704,1.1667,150.0,98.0,0.482
39.48,31859.0,34613.6,1.1741,1.1607,150.0,98.0,0.482
39.5,31885.2,34665.6,1.1758,1.1637,150.0,98.0,0.482
39.52,31871.3,34530.6,1.1749,1.1559,150.0,98.0,0.482
39.54,31720.0,34459.7,1.1653,1.1518,150.0,98.0,0.482
39.56,31833.2,34441.0,1.1725,1.1507,150.0,98.0,0.482
39.58,31838.3,34670.3,1.1728,1.164,150.0,98.0,0.482
39.6,32085.5,35168.9,1.1885,1.1928,150.0,98.0,0.482
39.62,32226.1,35332.6,1.1974,1.2023,150.0,98.0,0.482
39.64,32278.5,35728.2,1.2007,1.2253,150.0,98.0,0.482
39.66,32410.8,35666.9,1.2091,1.2217,150.0,98.0,0.482
39.68,32245.3,35574.5,1.1986,1.2163,150.0,98.0,0.482
39.7,32211.5,35326.7,1.1965,1.202,150.0,98.0,0.482
39.72,32089.5,35249.4,1.1887,1.1975,150.0,98.0,0.482
39.74,31990.0,35118.0,1.1824,1.1899,150.0,98.0,0.482
39.76,32079.4,35096.4,1.1881,1.1886,150.0,98.0,0.482
39.78,32041.9,34962.7,1.1857,1.1809,150.0,98.0,0.482
39.8,32045.8,34924.8,1.1859,1.1787,150.0,98.0,0.482
39.82,31940.5,34729.1,1.1793,1.1674,150.0,98.0,0.482
39.84,31984.7,34777.2,1.1821,1.1701,150.0,98.0,0.482
39.86,31888.9,34639.7,1.176,1.1622,150.0,98.0,0.482
39.88,31877.2,34576.8,1.1753,1.1585,150.0,98.0,0.482
39.9,31889.5,34681.7,1.176,1.1646,150.0,98.0,0.482
39.92,31757.4,34578.6,1.1677,1.1586,150.0,98.0,0.482
39.94,31697.8,34477.7,1.1639,1.1528,150.0,98.0,0.482
39.96,31807.9,34382.3,1.1709,1.1473,150.0,98.0,0.482
39.98,31865.4,34582.6,1.1745,1.1589,150.0,98.0,0.482
40.0,32029.9,35080.7,1.1849,1.1877,150.0,98.0,0.482
40.02,32213.9,35479.5,1.1966,1.2108,150.0,98.0,0.482
40.04,32311.6,35713.7,1.2028,1.2244,150.0,98.0,0.482
40.06,32287.3,35714.4,1.2013,1.2245,150.0,98.0,0.482
40.08,32303.8,35576.3,1.2023,1.2165,150.0,98.0,0.482
40.1,32204.0,35417.1,1.196,1.2072,150.0,98.0,0.482
40.12,32202.7,35209.1,1.1959,1.1952,150.0,98.0,0.482
40.14,31964.7,35147.5,1.1808,1.1916,150.0,98.0,0.482
40.16,32080.5,35025.4,1.1881,1.1845,150.0,98.0,0.482
40.18,31917.3,35018.6,1.1778,1.1841,150.0,98.0,0.482
40.2,31874.5,34864.5,1.1751,1.1752,150.0,98.0,0.482
40.22,31782.0,34724.7,1.1692,1.1671,150.0,98.0,0.482
40.24,31887.7,34686.7,1.1759,1.1649,150.0,98.0,0.482
40.26,31849.6,34690.5,1.1735,1.1651,150.0,98.0,0.482
40.28,31793.5,34666.9,1.17,1.1638,150.0,98.0,0.482
40.3,31870.9,34627.3,1.1749,1.1615,150.0,98.0,0.482
40.32,31760.9,34620.1,1.1679,1.161,150.0,98.0,0.482
40.34,31744.5,34482.0,1.1668,1.153,150.0,98.0,0.482
40.36,31814.1,34641.3,1.1713,1.1623,150.0,98.0,0.482
40.38,31863.1,34643.4,1.1744,1.1624,150.0,98.0,0.482
40.4,31992.0,35057.9,1.1825,1.1864,150.0,98.0,0.482
40.42,32083.4,35511.3,1.1883,1.2127,150.0,98.0,0.482
40.44,32301.1,35762.4,1.2021,1.2272,150.0,98.0,0.482
40.46,32365.5,35666.0,1.2062,1.2216,150.0,98.0,0.482
40.48,32253.1,35572.9,1.1991,1.2163,150.0,98.0,0.482
40.5,32060.9,35362.5,1.1869,1.2041,150.0,98.0,0.482
40.52,32132.4,35240.9,1.1914,1.197,150.0,98.0,0.482
40.54,31990.7,35097.6,1.1825,1.1887,150.0,98.0,0.482
40.56,31967.7,35088.1,1.181,1.1882,150.0,98.0,0.482
40.58,31948.2,35061.4,1.1798,1.1866,150.0,98.0,0.482
40.6,31921.2,34867.7,1.1781,1.1754,150.0,98.0,0.482
40.62,31907.4,34882.6,1.1772,1.1763,150.0,98.0,0.482
40.64,31916.9,34727.7,1.1778,1.1673,150.0,98.0,0.482
40.66,31872.1,34657.3,1.1749,1.1632,150.0,98.0,0.482
40.68,31918.8,34684.0,1.1779,1.1647,150.0,98.0,0.482
40.7,31895.4,34557.3,1.1764,1.1574,150.0,98.0,0.482
40.72,31736.0,34444.0,1.1663,1.1508,150.0,98.0,0.482
40.74,31728.9,34472.4,1.1659,1.1525,150.0,98.0,0.482
40.76,31734.5,34423.4,1.1662,1.1496,150.0,98.0,0.482
40.78,31970.2,34729.3,1.1812,1.1674,150.0,98.0,0.482
40.8,32064.7,35091.9,1.1871,1.1884,150.0,98.0,0.482
40.82,32248.8,35410.9,1.1988,1.2069,150.0,98.0,0.482
40.84,32350.2,35666.7,1.2052,1.2217,150.0,98.0,0.482
40.86,32220.8,35687.7,1.197,1.2229,150.0,98.0,0.482
40.88,32286.6,35658.5,1.2012,1.2212,150.0,98.0,0.482
40.9,32110.6,35307.6,1.1901,1.2009,150.0,98.0,0.482
40.92,32096.2,35190.2,1.1891,1.1941,150.0,98.0,0.482
40.94,31992.7,35125.6,1.1826,1.1903,150.0,98.0,0.482
40.96,32168.6,35122.6,1.1937,1.1902,150.0,98.0,0.482
40.98,32031.3,35098.8,1.185,1.1888,150.0,98.0,0.482
41.0,31982.2,34966.4,1.1819,1.1811,150.0,98.0,0.482
41.02,31806.7,34710.3,1.1708,1.1663,150.0,98.0,0.482
41.04,31859.9,34700.6,1.1742,1.1657,150.0,98.0,0.482
41.06,31790.5,34742.2,1.1698,1.1681,150.0,98.0,0.482
41.08,31863.2,34688.2,1.1744,1.165,150.0,98.0,0.482
41.1,31830.0,34605.6,1.1723,1.1602,150.0,98.0,0.482
41.12,31877.9,34427.2,1.1753,1.1499,150.0,98.0,0.482
41.14,31817.0,34460.2,1.1714,1.1518,150.0,98.0,0.482
41.16,31725.4,34489.1,1.1656,1.1535,150.0,98.0,0.482
41.18,31801.7,34661.8,1.1705,1.1635,150.0,98.0,0.482
41.2,31950.8,35106.0,1.1799,1.1892,150.0,98.0,0.482
41.22,32221.3,35479.7,1.1971,1.2109,150.0,98.0,0.482
41.24,32392.4,35738.6,1.2079,1.2259,150.0,98.0,0.482
41.26,32447.8,35742.6,1.2114,1.2261,150.0,98.0,0.482
41.28,32269.9,35627.4,1.2001,1.2194,150.0,98.0,0.482
41.3,32287.2,35396.6,1.2012,1.206,150.0,98.0,0.482
41.32,32061.5,35224.8,1.1869,1.1961,150.0,98.0,0.482
41.34,32028.2,35103.4,1.1848,1.189,150.0,98.0,0.482
41.36,31934.6,34970.9,1.1789,1.1814,150.0,98.0,0.482
41.38,32073.9,35068.0,1.1877,1.187,150.0,98.0,0.482
41.4,31910.6,34886.9,1.1774,1.1765,150.0,98.0,0.482
41.42,31880.0,34839.1,1.1754,1.1737,150.0,98.0,0.482
41.44,31842.1,34708.2,1.173,1.1661,150.0,98.0,0.482
41.46,31845.3,34630.4,1.1732,1.1616,150.0,98.0,0.482
41.48,31833.2,34619.6,1.1725,1.161,150.0,98.0,0.482
41.5,31858.7,34653.9,1.1741,1.163,150.0,98.0,0.482
41.52,31861.6,34441.7,1.1743,1.1507,150.0,98.0,0.482
41.54,31702.8,34370.0,1.1642,1.1466,150.0,98.0,0.482
41.56,31794.5,34544.2,1.17,1.1566,150.0,98.0,0.482
41.58,31854.6,34781.9,1.1738,1.1704,150.0,98.0,0.482
41.6,32108.3,35017.7,1.1899,1.1841,150.0,98.0,0.482
41.62,32213.8,35402.1,1.1966,1.2064,150.0,98.0,0.482
41.64,32366.3,35731.6,1.2063,1.2255,150.0,98.0,0.482
41.66,32331.9,35733.6,1.2041,1.2256,150.0,98.0,0.482
41.68,32276.9,35743.6,1.2006,1.2261,150.0,98.0,0.482
41.7,32144.5,35436.4,1.1922,1.2083,150.0,98.0,0.482
41.72,32083.7,35269.3,1.1884,1.1987,150.0,98.0,0.482
41.74,32012.5,35049.5,1.1838,1.1859,150.0,98.0,0.482
41.76,31996.8,35019.5,1.1828,1.1842,150.0,98.0,0.482
41.78,32030.2,34916.1,1.185,1.1782,150.0,98.0,0.482
41.8,31997.9,34846.0,1.1829,1.1741,150.0,98.0,0.482
41.82,31925.1,34820.6,1.1783,1.1727,150.0,98.0,0.482
41.84,31792.0,34691.8,1.1699,1.1652,150.0,98.0,0.482
41.86,31853.3,34736.2,1.1737,1.1678,150.0,98.0,0.482
41.88,31821.3,34664.4,1.1717,1.1636,150.0,98.0,0.482
41.9,31905.2,34635.2,1.177,1.1619,150.0,98.0,0.482
41.92,31863.5,34505.4,1.1744,1.1544,150.0,98.0,0.482
41.94,31784.5,34468.7,1.1694,1.1523,150.0,98.0,0.482
41.96,31709.1,34473.4,1.1646,1.1525,150.0,98.0,0.482
41.98,31831.1,34766.7,1.1723,1.1695,150.0,98.0,0.482
42.0,32015.9,35082.9,1.1841,1.1879,150.0,98.0,0.482
42.02,32189.9,35553.5,1.1951,1.2151,150.0,98.0,0.482
42.04,32331.3,35716.5,1.204,1.2246,150.0,98.0,0.482
42.06,32381.3,35728.2,1.2072,1.2253,150.0,98.0,0.482
42.08,32237.8,35643.8,1.1981,1.2204,150.0,98.0,0.482
42.1,32186.9,35411.8,1.1949,1.2069,150.0,98.0,0.482
42.12,32101.1,35166.1,1.1895,1.1927,150.0,98.0,0.482
42.14,32110.7,35022.0,1.1901,1.1843,150.0,98.0,0.482
42.16,32050.7,35045.2,1.1863,1.1857,150.0,98.0,0.482
42.18,31996.6,34989.6,1.1828,1.1825,150.0,98.0,0.482
42.2,31975.2,34851.1,1.1815,1.1744,150.0,98.0,0.482
42.22,31998.6,34782.1,1.183,1.1704,150.0,98.0,0.482
42.24,31886.9,34636.9,1.1759,1.162,150.0,98.0,0.482
42.26,31844.9,34696.8,1.1732,1.1655,150.0,98.0,0.482
42.28,31831.6,34602.5,1.1724,1.16,150.0,98.0,0.482
42.3,31764.8,34617.6,1.1681,1.1609,150.0,98.0,0.482
42.32,31757.6,34539.2,1.1677,1.1564,150.0,98.0,0.482
42.34,31669.9,34435.3,1.1621,1.1503,150.0,98.0,0.482
42.36,31910.5,34455.2,1.1774,1.1515,150.0,98.0,0.482
42.38,31921.6,34721.1,1.1781,1.1669,150.0,98.0,0.482
42.4,31936.5,35054.8,1.179,1.1862,150.0,98.0,0.482
42.42,32254.8,35425.1,1.1992,1.2077,150.0,98.0,0.482
42.44,32357.9,35645.1,1.2057,1.2204,150.0,98.0,0.482
42.46,32249.0,35672.2,1.1988,1.222,150.0,98.0,0.482
42.48,32338.7,35629.9,1.2045,1.2196,150.0,98.0,0.482
42.5,32184.4,35315.5,1.1947,1.2013,150.0,98.0,0.482
42.52,31999.4,35203.1,1.183,1.1948,150.0,98.0,0.482
42.54,32068.0,35106.6,1.1874,1.1892,150.0,98.0,0.482
42.56,31993.3,35126.1,1.1826,1.1904,150.0,98.0,0.482
42.58,31983.9,35038.9,1.182,1.1853,150.0,98.0,0.482
42.6,31956.1,34909.4,1.1803,1.1778,150.0,98.0,0.482
42.62,31913.4,34761.9,1.1776,1.1693,150.0,98.0,0.482
42.64,31887.0,34623.1,1.1759,1.1612,150.0,98.0,0.482
42.66,31873.5,34731.2,1.175,1.1675,150.0,98.0,0.482
42.68,31920.2,34634.5,1.178,1.1619,150.0,98.0,0.482
42.7,31790.9,34598.0,1.1698,1.1598,150.0,98.0,0.482
42.72,31747.3,34519.4,1.167,1.1552,150.0,98.0,0.482
42.74,31774.0,34406.7,1.1687,1.1487,150.0,98.0,0.482
42.76,31817.7,34531.8,1.1715,1.1559,150.0,98.0,0.482
42.78,31898.5,34790.6,1.1766,1.1709,150.0,98.0,0.482
42.8,31943.8,35161.3,1.1795,1.1924,150.0,98.0,0.482
42.82,32142.3,35485.7,1.1921,1.2112,150.0,98.0,0.482
42.84,32353.4,35818.4,1.2054,1.2305,150.0,98.0,0.482
42.86,32411.8,35724.8,1.2091,1.2251,150.0,98.0,0.482
42.88,32401.9,35589.0,1.2085,1.2172,150.0,98.0,0.482
42.9,32081.1,35382.0,1.1882,1.2052,150.0,98.0,0.482
42.92,32174.4,35179.8,1.1941,1.1935,150.0,98.0,0.482
42.94,32003.0,35141.5,1.1832,1.1913,150.0,98.0,0.482
42.96,31982.6,34951.2,1.1819,1.1802,150.0,98.0,0.482
42.98,32056.6,34959.7,1.1866,1.1807,150.0,98.0,0.482
43.0,31971.8,34796.9,1.1813,1.1713,150.0,98.0,0.482
43.02,31916.3,34755.6,1.1777,1.1689,150.0,98.0,0.482
43.04,31903.6,34691.5,1.1769,1.1652,150.0,98.0,0.482
43.06,31886.0,34714.8,1.1758,1.1665,150.0,98.0,0.482
43.08,31811.3,34626.7,1.1711,1.1614,150.0,98.0,0.482
43.1,31795.9,34641.8,1.1701,1.1623,150.0,98.0,0.482
43.12,31811.4,34515.3,1.1711,1.155,150.0,98.0,0.482
43.14,31764.0,34457.1,1.1681,1.1516,150.0,98.0,0.482
43.16,31853.2,34424.9,1.1737,1.1497,150.0,98.0,0.482
43.18,31904.2,34747.2,1.177,1.1684,150.0,98.0,0.482
43.2,32059.3,35157.2,1.1868,1.1922,150.0,98.0,0.482
43.22,32272.7,35487.4,1.2003,1.2113,150.0,98.0,0.482
43.24,32333.7,35793.4,1.2042,1.229,150.0,98.0,0.482
43.26,32415.8,35730.4,1.2094,1.2254,150.0,98.0,0.482
43.28,32346.5,35674.3,1.205,1.2221,150.0,98.0,0.482
43.3,32149.8,35489.9,1.1925,1.2114,150.0,98.0,0.482
43.32,32087.9,35260.0,1.1886,1.1981,150.0,98.0,0.482
43.34,32077.0,35160.2,1.1879,1.1923,150.0,98.0,0.482
43.36,31978.7,35098.2,1.1817,1.1887,150.0,98.0,0.482
43.38,32011.7,35002.0,1.1838,1.1832,150.0,98.0,0.482
43.4,31866.9,34949.8,1.1746,1.1801,150.0,98.0,0.482
43.42,31904.6,34766.7,1.177,1.1695,150.0,98.0,0.482
43.44,31835.5,34764.2,1.1726,1.1694,150.0,98.0,0.482
43.46,31843.6,34698.6,1.1731,1.1656,150.0,98.0,0.482
43.48,31817.4,34715.7,1.1715,1.1666,150.0,98.0,0.482
43.5,31828.8,34530.4,1.1722,1.1558,150.0,98.0,0.482
43.52,31698.7,34550.2,1.1639,1.157,150.0,98.0,0.482
43.54,31790.7,34386.1,1.1698,1.1475,150.0,98.0,0.482
43.56,31779.8,34552.6,1.1691,1.1571,150.0,98.0,0.482
43.58,31840.3,34671.2,1.1729,1.164,150.0,98.0,0.482
43.6,31983.8,35013.8,1.182,1.1839,150.0,98.0,0.482
43.62,32184.7,35421.6,1.1948,1.2075,150.0,98.0,0.482
43.64,32314.3,35764.0,1.203,1.2273,150.0,98.0,0.482
43.66,32351.9,35830.0,1.2054,1.2312,150.0,98.0,0.482
43.68,32258.6,35595.6,1.1994,1.2176,150.0,98.0,0.482
43.7,32082.3,35499.4,1.1883,1.212,150.0,98.0,0.482
43.72,32128.7,35212.8,1.1912,1.1954,150.0,98.0,0.482
43.74,32006.0,35174.7,1.1834,1.1932,150.0,98.0,0.482
43.76,32128.7,35131.0,1.1912,1.1906,150.0,98.0,0.482
43.78,31955.6,35066.2,1.1802,1.1869,150.0,98.0,0.482
43.8,31941.1,34892.6,1.1793,1.1768,150.0,98.0,0.482
43.82,31870.1,34795.3,1.1748,1.1712,150.0,98.0,0.482
43.84,31920.4,34709.4,1.178,1.1662,150.0,98.0,0.482
43.86,31888.9,34726.3,1.176,1.1672,150.0,98.0,0.482
43.88,31769.6,34591.3,1.1684,1.1594,150.0,98.0,0.482
43.9,31840.1,34638.5,1.1729,1.1621,150.0,98.0,0.482
43.92,31792.2,34499.8,1.1699,1.1541,150.0,98.0,0.482
43.94,31734.3,34549.6,1.1662,1.157,150.0,98.0,0.482
43.96,31809.2,34489.8,1.171,1.1535,150.0,98.0,0.482
43.98,31893.4,34711.7,1.1763,1.1664,150.0,98.0,0.482
44.0,32062.5,35059.8,1.187,1.1865,150.0,98.0,0.482
44.02,32164.3,35417.2,1.1935,1.2072,150.0,98.0,0.482
44.04,32302.2,35793.5,1.2022,1.229,150.0,98.0,0.482
44.06,32309.6,35842.7,1.2027,1.2319,150.0,98.0,0.482
44.08,32233.5,35636.0,1.1978,1.2199,150.0,98.0,0.482
44.1,32145.6,35332.9,1.1923,1.2023,150.0,98.0,0.482
44.12,32091.6,35217.3,1.1889,1.1957,150.0,98.0,0.482
44.14,32084.5,35141.7,1.1884,1.1913,150.0,98.0,0.482
44.16,32102.3,35058.8,1.1895,1.1865,150.0,98.0,0.482
44.18,32017.8,35088.3,1.1842,1.1882,150.0,98.0,0.482
44.2,31958.9,34889.7,1.1804,1.1767,150.0,98.0,0.482
44.22,31891.2,34784.5,1.1762,1.1706,150.0,98.0,0.482
44.24,31753.6,34684.4,1.1674,1.1648,150.0,98.0,0.482
44.26,31848.5,34614.8,1.1734,1.1607,150.0,98.0,0.482
44.28,31839.3,34687.8,1.1729,1.165,150.0,98.0,0.482
44.3,31905.4,34609.9,1.1771,1.1605,150.0,98.0,0.482
44.32,31788.5,34561.1,1.1696,1.1576,150.0,98.0,0.482
44.34,31808.0,34452.6,1.1709,1.1513,150.0,98.0,0.482
44.36,31751.5,34430.6,1.1673,1.1501,150.0,98.0,0.482
44.38,31906.6,34700.5,1.1771,1.1657,150.0,98.0,0.482
44.4,31986.0,35054.8,1.1822,1.1862,150.0,98.0,0.482
44.42,32210.3,35490.1,1.1964,1.2115,150.0,98.0,0.482
44.44,32309.7,35633.6,1.2027,1.2198,150.0,98.0,0.482
44.46,32260.7,35787.0,1.1996,1.2287,150.0,98.0,0.482
44.48,32252.7,35562.1,1.1991,1.2156,150.0,98.0,0.482
44.5,32221.3,35352.0,1.1971,1.2035,150.0,98.0,0.482
44.52,32111.8,35083.6,1.1901,1.1879,150.0,98.0,0.482
44.54,32041.0,35038.9,1.1856,1.1853,150.0,98.0,0.482
44.56,31973.9,35148.2,1.1814,1.1916,150.0,98.0,0.482
44.58,31991.8,35071.8,1.1825,1.1872,150.0,98.0,0.482
44.6,31979.9,34869.5,1.1818,1.1755,150.0,98.0,0.482
44.62,31924.3,34811.2,1.1782,1.1721,150.0,98.0,0.482
44.64,31928.9,34721.4,1.1785,1.1669,150.0,98.0,0.482
44.66,31840.1,34741.6,1.1729,1.1681,150.0,98.0,0.482
44.68,31831.2,34647.0,1.1723,1.1626,150.0,98.0,0.482
44.7,31843.0,34513.1,1.1731,1.1548,150.0,98.0,0.482
44.72,31777.0,34563.0,1.1689,1.1577,150.0,98.0,0.482
44.74,31784.5,34420.0,1.1694,1.1495,150.0,98.0,0.482
44.76,31651.9,34465.8,1.161,1.1521,150.0,98.0,0.482
44.78,31828.1,34736.0,1.1721,1.1678,150.0,98.0,0.482
44.8,31996.4,35118.7,1.1828,1.1899,150.0,98.0,0.482
44.82,32225.6,35470.0,1.1973,1.2103,150.0,98.0,0.482
44.84,32302.7,35640.6,1.2022,1.2202,150.0,98.0,0.482
44.86,32361.8,35682.0,1.206,1.2226,150.0,98.0,0.482
44.88,32274.5,35582.3,1.2004,1.2168,150.0,98.0,0.482
44.9,32270.1,35476.7,1.2002,1.2107,150.0,98.0,0.482
44.92,32088.5,35263.7,1.1887,1.1983,150.0,98.0,0.482
44.94,32140.9,35224.7,1.192,1.1961,150.0,98.0,0.482
44.96,32044.7,35192.3,1.1859,1.1942,150.0,98.0,0.482
44.98,31993.1,34927.2,1.1826,1.1788,150.0,98.0,0.482
45.0,31956.4,34866.3,1.1803,1.1753,150.0,98.0,0.482
45.02,31939.4,34822.2,1.1792,1.1728,150.0,98.0,0.482
45.04,31892.0,34742.4,1.1762,1.1681,150.0,98.0,0.482
45.06,31810.5,34784.7,1.171,1.1706,150.0,98.0,0.482
45.08,31861.0,34657.4,1.1742,1.1632,150.0,98.0,0.482
45.1,31777.0,34581.3,1.1689,1.1588,150.0,98.0,0.482
45.12,31810.0,34579.3,1.171,1.1587,150.0,98.0,0.482
45.14,31734.8,34438.8,1.1662,1.1505,150.0,98.0,0.482
45.16,31741.2,34426.4,1.1666,1.1498,150.0,98.0,0.482
45.18,31822.9,34705.8,1.1718,1.166,150.0,98.0,0.482
45.2,31919.0,35154.2,1.1779,1.192,150.0,98.0,0.482
45.22,32198.6,35439.2,1.1956,1.2085,150.0,98.0,0.482
45.24,32383.6,35663.7,1.2074,1.2215,150.0,98.0,0.482
45.26,32337.7,35746.4,1.2044,1.2263,150.0,98.0,0.482
45.28,32249.8,35640.5,1.1989,1.2202,150.0,98.0,0.482
45.3,32214.3,35400.8,1.1966,1.2063,150.0,98.0,0.482
45.32,32062.0,35210.3,1.187,1.1952,150.0,98.0,0.482
45.34,32010.0,35094.6,1.1837,1.1885,150.0,98.0,0.482
45.36,31993.1,35102.5,1.1826,1.189,150.0,98.0,0.482
45.38,31899.1,35025.7,1.1766,1.1845,150.0,98.0,0.482
45.4,31948.6,34915.1,1.1798,1.1781,150.0,98.0,0.482
45.42,31933.1,34847.7,1.1788,1.1742,150.0,98.0,0.482
45.44,31897.6,34710.3,1.1766,1.1663,150.0,98.0,0.482
45.46,31915.1,34687.5,1.1777,1.165,150.0,98.0,0.482
45.48,31867.1,34697.5,1.1746,1.1655,150.0,98.0,0.482
45.5,31865.9,34694.0,1.1745,1.1653,150.0,98.0,0.482
45.52,31849.0,34461.0,1.1735,1.1518,150.0,98.0,0.482
45.54,31861.6,34515.7,1.1743,1.155,150.0,98.0,0.482
45.56,31838.1,34464.4,1.1728,1.152,150.0,98.0,0.482
45.58,31850.3,34735.0,1.1736,1.1677,150.0,98.0,0.482
45.6,32048.2,35032.6,1.1861,1.1849,150.0,98.0,0.482
45.62,32220.6,35478.1,1.197,1.2108,150.0,98.0,0.482
45.64,32315.1,35738.0,1.203,1.2258,150.0,98.0,0.482
45.66,32423.4,35821.4,1.2099,1.2307,150.0,98.0,0.482
45.68,32292.2,35528.4,1.2016,1.2137,150.0,98.0,0.482
45.7,32172.2,35362.2,1.194,1.204,150.0,98.0,0.482
45.72,32114.2,35181.6,1.1903,1.1936,150.0,98.0,0.482
45.74,32153.3,35248.4,1.1928,1.1974,150.0,98.0,0.482
45.76,32058.9,35072.7,1.1868,1.1873,150.0,98.0,0.482
45.78,32117.7,35088.6,1.1905,1.1882,150.0,98.0,0.482
