timestamp,raw_red,raw_ir,filtered_red,filtered_ir,heart_rate,spo2,ac_dc_ratio
0.0,32006.7,35140.8,0.0279,0.3459,149.3,98.0,0.481
0.02,32243.5,35582.2,1.0376,1.4314,149.3,98.0,0.481
0.04,32314.5,35802.7,1.3405,1.9737,149.3,98.0,0.481
0.06,32358.2,35631.8,1.5268,1.5533,149.3,98.0,0.481
0.08,32249.9,35553.1,1.065,1.3599,149.3,98.0,0.481
0.1,32153.1,35357.3,0.6521,0.8785,149.3,98.0,0.481
0.12,32059.6,35211.2,0.2536,0.5191,149.3,98.0,0.481
0.14,31977.1,35040.8,-0.0982,0.1001,149.3,98.0,0.481
0.16,32059.3,35066.2,0.2521,0.1626,149.3,98.0,0.481
0.18,32027.7,35017.2,0.1178,0.042,149.3,98.0,0.481
0.2,32005.7,34910.3,0.024,-0.2208,149.3,98.0,0.481
0.22,31808.3,34754.7,-0.8177,-0.6035,149.3,98.0,0.481
0.24,31952.7,34625.5,-0.2022,-0.9212,149.3,98.0,0.481
0.26,31838.9,34666.3,-0.6873,-0.8209,149.3,98.0,0.481
0.28,31774.3,34783.1,-0.9629,-0.5337,149.3,98.0,0.481
0.3,31773.3,34662.6,-0.967,-0.8299,149.3,98.0,0.481
0.32,31790.0,34506.1,-0.896,-1.2149,149.3,98.0,0.481
0.34,31756.3,34517.9,-1.0395,-1.186,149.3,98.0,0.481
0.36,31817.1,34611.4,-0.7805,-0.956,149.3,98.0,0.481
0.38,31918.9,34744.4,-0.3462,-0.629,149.3,98.0,0.481
0.4,32074.5,35123.5,0.3172,0.3034,149.3,98.0,0.481
0.42,32209.5,35542.5,0.8928,1.3337,149.3,98.0,0.481
0.44,32315.2,35767.5,1.3435,1.887,149.3,98.0,0.481
0.46,32382.7,35775.6,1.6312,1.907,149.3,98.0,0.481
0.48,32202.3,35580.9,0.8619,1.4282,149.3,98.0,0.481
0.5,32138.6,35396.3,0.5906,0.9743,149.3,98.0,0.481
0.52,32008.7,35187.6,0.0366,0.4611,149.3,98.0,0.481
0.54,32071.0,35180.2,0.3024,0.443,149.3,98.0,0.481
0.56,31989.2,35136.6,-0.0464,0.3357,149.3,98.0,0.481
0.58,31941.2,34995.8,-0.2512,-0.0105,149.3,98.0,0.481
0.6,31964.4,34822.6,-0.1521,-0.4364,149.3,98.0,0.481
0.62,31909.6,34713.6,-0.3858,-0.7045,149.3,98.0,0.481
0.64,31805.5,34835.0,-0.8296,-0.4061,149.3,98.0,0.481
0.66,31817.4,34637.8,-0.7791,-0.891,149.3,98.0,0.481
0.68,31839.9,34672.4,-0.6832,-0.806,149.3,98.0,0.481
0.7,31808.6,34557.8,-0.8168,-1.0878,149.3,98.0,0.481
0.72,31803.3,34442.6,-0.8393,-1.3711,149.3,98.0,0.481
0.74,31758.6,34539.7,-1.0298,-1.1323,149.3,98.0,0.481
0.76,31791.4,34491.7,-0.8898,-1.2503,149.3,98.0,0.481
0.78,31815.5,34809.8,-0.7872,-0.4681,149.3,98.0,0.481
0.8,31949.6,35073.4,-0.2155,0.1802,149.3,98.0,0.481
0.82,32247.3,35421.0,1.0539,1.0351,149.3,98.0,0.481
0.84,32373.6,35683.2,1.5923,1.6797,149.3,98.0,0.481
0.86,32325.3,35792.5,1.3865,1.9486,149.3,98.0,0.481
0.88,32327.2,35567.2,1.3944,1.3946,149.3,98.0,0.481
0.9,32188.3,35365.9,0.8022,0.8996,149.3,98.0,0.481
0.92,32118.2,35114.5,0.5035,0.2814,149.3,98.0,0.481
0.94,32125.2,35116.6,0.5332,0.2865,149.3,98.0,0.481
0.96,32032.8,35121.5,0.1394,0.2986,149.3,98.0,0.481
0.98,32030.2,34916.8,0.1282,-0.2048,149.3,98.0,0.481
1.0,31929.3,34789.6,-0.302,-0.5177,149.3,98.0,0.481
1.02,31918.9,34808.9,-0.3463,-0.4702,149.3,98.0,0.481
1.04,31863.4,34745.5,-0.5831,-0.6261,149.3,98.0,0.481
1.06,31890.9,34680.6,-0.4655,-0.7856,149.3,98.0,0.481
1.08,31902.8,34668.4,-0.4149,-0.8158,149.3,98.0,0.481
1.1,31813.7,34520.4,-0.7948,-1.1797,149.3,98.0,0.481
1.12,31773.4,34548.5,-0.9666,-1.1107,149.3,98.0,0.481
1.14,31762.8,34443.2,-1.012,-1.3695,149.3,98.0,0.481
1.16,31776.7,34424.7,-0.9526,-1.4151,149.3,98.0,0.481
1.18,31877.2,34660.4,-0.5242,-0.8354,149.3,98.0,0.481
1.2,32072.0,35099.3,0.3063,0.2439,149.3,98.0,0.481
1.22,32203.9,35437.0,0.8688,1.0744,149.3,98.0,0.481
1.24,32262.1,35672.6,1.1169,1.6538,149.3,98.0,0.481
1.26,32332.9,35713.9,1.419,1.7554,149.3,98.0,0.481
1.28,32274.4,35625.8,1.1693,1.5388,149.3,98.0,0.481
1.3,32162.5,35420.1,0.6923,1.0329,149.3,98.0,0.481
1.32,32030.7,35284.3,0.1304,0.6988,149.3,98.0,0.481
1.34,32054.0,35128.6,0.2296,0.3159,149.3,98.0,0.481
1.36,32040.2,35084.2,0.1709,0.2069,149.3,98.0,0.481
1.38,31981.4,35018.1,-0.08,0.0442,149.3,98.0,0.481
1.4,31946.0,35001.8,-0.2307,0.0042,149.3,98.0,0.481
1.42,31910.6,34761.9,-0.3817,-0.5857,149.3,98.0,0.481
1.44,31862.6,34836.3,-0.5865,-0.403,149.3,98.0,0.481
1.46,31863.9,34701.6,-0.5809,-0.7341,149.3,98.0,0.481
1.48,31816.2,34687.5,-0.7841,-0.7688,149.3,98.0,0.481
1.5,31870.5,34612.9,-0.5527,-0.9523,149.3,98.0,0.481
1.52,31865.6,34468.0,-0.5736,-1.3086,149.3,98.0,0.481
1.54,31763.8,34443.0,-1.0076,-1.3699,149.3,98.0,0.481
1.56,31764.1,34472.6,-1.0065,-1.2972,149.3,98.0,0.481
1.58,31813.6,34678.0,-0.7951,-0.7922,149.3,98.0,0.481
1.6,32116.3,34960.0,0.4954,-0.0987,149.3,98.0,0.481
1.62,32275.2,35408.5,1.1728,1.0043,149.3,98.0,0.481
1.64,32388.2,35658.3,1.6548,1.6186,149.3,98.0,0.481
1.66,32385.7,35759.7,1.6441,1.8679,149.3,98.0,0.481
1.68,32262.9,35670.1,1.1206,1.6476,149.3,98.0,0.481
1.7,32219.2,35454.1,0.9343,1.1165,149.3,98.0,0.481
1.72,32015.0,35311.9,0.0636,0.7668,149.3,98.0,0.481
1.74,32050.6,35125.7,0.2151,0.3088,149.3,98.0,0.481
1.76,31950.3,35014.0,-0.2125,0.0342,149.3,98.0,0.481
1.78,32063.3,35043.2,0.2693,0.1059,149.3,98.0,0.481
1.8,31942.7,34845.4,-0.245,-0.3804,149.3,98.0,0.481
1.82,31941.3,34927.2,-0.2506,-0.1792,149.3,98.0,0.481
1.84,31900.2,34772.9,-0.4259,-0.5588,149.3,98.0,0.481
1.86,31929.7,34590.3,-0.3002,-1.0079,149.3,98.0,0.481
1.88,31807.1,34692.1,-0.8231,-0.7574,149.3,98.0,0.481
1.9,31792.7,34625.2,-0.8845,-0.9219,149.3,98.0,0.481
1.92,31710.7,34522.5,-1.234,-1.1746,149.3,98.0,0.481
1.94,31732.3,34526.1,-1.1417,-1.1656,149.3,98.0,0.481
1.96,31709.5,34588.1,-1.2392,-1.0133,149.3,98.0,0.481
1.98,31890.8,34703.1,-0.466,-0.7304,149.3,98.0,0.481
2.0,31893.4,34985.8,-0.455,-0.0351,149.3,98.0,0.481
2.02,32150.9,35374.0,0.643,0.9195,149.3,98.0,0.481
2.04,32275.9,35663.3,1.176,1.631,149.3,98.0,0.481
2.06,32289.7,35737.2,1.2349,1.8127,149.3,98.0,0.481
2.08,32234.4,35652.9,0.9988,1.6052,149.3,98.0,0.481
2.1,32223.9,35436.3,0.954,1.0725,149.3,98.0,0.481
2.12,32066.3,35258.5,0.2821,0.6353,149.3,98.0,0.481
2.14,32041.8,35148.0,0.1775,0.3638,149.3,98.0,0.481
2.16,32062.2,35169.3,0.2647,0.4162,149.3,98.0,0.481
2.18,32001.7,35025.6,0.0067,0.0627,149.3,98.0,0.481
2.2,31967.4,34925.4,-0.1396,-0.1836,149.3,98.0,0.481
2.22,31957.2,34769.8,-0.1828,-0.5665,149.3,98.0,0.481
2.24,31838.2,34721.9,-0.6903,-0.6841,149.3,98.0,0.481
2.26,31964.4,34660.9,-0.1523,-0.8343,149.3,98.0,0.481
2.28,31879.9,34657.7,-0.5127,-0.842,149.3,98.0,0.481
2.3,31898.6,34656.6,-0.433,-0.8447,149.3,98.0,0.481
2.32,31720.9,34548.6,-1.1907,-1.1104,149.3,98.0,0.481
2.34,31717.8,34555.0,-1.2036,-1.0946,149.3,98.0,0.481
2.36,31742.5,34500.0,-1.0983,-1.23,149.3,98.0,0.481
2.38,31869.2,34747.1,-0.5581,-0.6223,149.3,98.0,0.481
2.4,32002.5,34985.3,0.01,-0.0365,149.3,98.0,0.481
2.42,32169.9,35324.4,0.724,0.7974,149.3,98.0,0.481
2.44,32271.4,35630.7,1.1565,1.5506,149.3,98.0,0.481
2.46,32396.5,35753.5,1.6899,1.8527,149.3,98.0,0.481
2.48,32285.1,35613.1,1.2149,1.5075,149.3,98.0,0.481
2.5,32185.9,35518.9,0.7922,1.2758,149.3,98.0,0.481
2.52,32082.8,35298.2,0.3525,0.733,149.3,98.0,0.481
2.54,31998.1,35092.4,-0.0086,0.2268,149.3,98.0,0.481
2.56,32030.6,35120.0,0.1298,0.2949,149.3,98.0,0.481
2.58,31969.0,35037.2,-0.1329,0.0911,149.3,98.0,0.481
2.6,32021.2,34776.3,0.0901,-0.5505,149.3,98.0,0.481
2.62,31960.8,34858.0,-0.1675,-0.3494,149.3,98.0,0.481
2.64,31855.7,34792.8,-0.6159,-0.5098,149.3,98.0,0.481
2.66,31872.0,34638.9,-0.5465,-0.8883,149.3,98.0,0.481
2.68,31848.3,34610.8,-0.6475,-0.9575,149.3,98.0,0.481
2.7,31913.8,34596.6,-0.368,-0.9923,149.3,98.0,0.481
2.72,31829.8,34510.0,-0.7261,-1.2052,149.3,98.0,0.481
2.74,31736.8,34534.7,-1.1226,-1.1444,149.3,98.0,0.481
2.76,31726.4,34392.7,-1.1669,-1.4936,149.3,98.0,0.481
2.78,31832.8,34537.4,-0.7134,-1.1378,149.3,98.0,0.481
2.8,31940.3,35006.7,-0.2549,0.0161,149.3,98.0,0.481
2.82,32156.8,35341.8,0.6681,0.8404,149.3,98.0,0.481
2.84,32248.8,35680.7,1.0605,1.6738,149.3,98.0,0.481
2.86,32339.4,35674.4,1.4465,1.6581,149.3,98.0,0.481
2.88,32407.0,35658.6,1.7349,1.6193,149.3,98.0,0.481
2.9,32101.4,35443.4,0.432,1.0901,149.3,98.0,0.481
2.92,32099.8,35300.4,0.4252,0.7385,149.3,98.0,0.481
2.94,32100.7,35167.1,0.4286,0.4105,149.3,98.0,0.481
2.96,32018.7,35207.7,0.0793,0.5104,149.3,98.0,0.481
2.98,31962.7,35078.8,-0.1594,0.1936,149.3,98.0,0.481
3.0,32013.3,34999.5,0.0564,-0.0016,149.3,98.0,0.481
3.02,31914.5,34860.9,-0.3651,-0.3424,149.3,98.0,0.481
3.04,31873.3,34710.1,-0.5406,-0.7133,149.3,98.0,0.481
3.06,31821.5,34641.7,-0.7615,-0.8815,149.3,98.0,0.481
3.08,31946.1,34608.8,-0.2305,-0.9622,149.3,98.0,0.481
3.1,31872.3,34630.0,-0.5449,-0.9102,149.3,98.0,0.481
3.12,31745.9,34566.3,-1.0839,-1.0668,149.3,98.0,0.481
3.14,31790.9,34447.8,-0.8922,-1.3582,149.3,98.0,0.481
3.16,31747.4,34440.5,-1.0773,-1.3762,149.3,98.0,0.481
3.18,31771.7,34515.5,-0.9741,-1.1917,149.3,98.0,0.481
3.2,31929.4,34851.3,-0.3017,-0.3659,149.3,98.0,0.481
3.22,32203.6,35226.6,0.8677,0.5569,149.3,98.0,0.481
3.24,32241.3,35580.3,1.0282,1.4269,149.3,98.0,0.481
3.26,32369.7,35732.0,1.5758,1.7997,149.3,98.0,0.481
3.28,32241.6,35766.4,1.0297,1.8843,149.3,98.0,0.481
3.3,32135.4,35482.4,0.5766,1.186,149.3,98.0,0.481
3.32,32184.4,35339.0,0.7856,0.8335,149.3,98.0,0.481
3.34,32004.2,35202.3,0.0175,0.4973,149.3,98.0,0.481
3.36,32008.8,35107.1,0.0368,0.263,149.3,98.0,0.481
3.38,32027.8,35082.4,0.1179,0.2024,149.3,98.0,0.481
3.4,31952.6,34926.5,-0.2026,-0.181,149.3,98.0,0.481
3.42,31920.9,34864.8,-0.3378,-0.3328,149.3,98.0,0.481
3.44,31868.8,34717.4,-0.56,-0.6954,149.3,98.0,0.481
3.46,31871.6,34702.7,-0.548,-0.7314,149.3,98.0,0.481
3.48,31783.5,34669.4,-0.9235,-0.8134,149.3,98.0,0.481
3.5,31838.7,34685.3,-0.6881,-0.7742,149.3,98.0,0.481
3.52,31818.4,34669.1,-0.7747,-0.814,149.3,98.0,0.481
3.54,31754.7,34526.8,-1.0463,-1.164,149.3,98.0,0.481
3.56,31797.9,34514.4,-0.8621,-1.1944,149.3,98.0,0.481
3.58,31862.3,34548.9,-0.5878,-1.1097,149.3,98.0,0.481
3.6,31997.5,34879.4,-0.0112,-0.2967,149.3,98.0,0.481
3.62,32163.6,35219.3,0.697,0.5389,149.3,98.0,0.481
3.64,32241.8,35631.8,1.0306,1.5534,149.3,98.0,0.481
3.66,32336.0,35615.5,1.4321,1.5134,149.3,98.0,0.481
3.68,32287.0,35671.4,1.223,1.6507,149.3,98.0,0.481
3.7,32204.8,35531.1,0.8725,1.3059,149.3,98.0,0.481
3.72,32106.2,35292.4,0.4524,0.7188,149.3,98.0,0.481
3.74,32125.5,35123.3,0.5345,0.3028,149.3,98.0,0.481
3.76,32075.5,35115.7,0.3213,0.2844,149.3,98.0,0.481
3.78,32000.0,35017.6,-0.0004,0.043,149.3,98.0,0.481
3.8,31957.7,35051.4,-0.1807,0.1261,149.3,98.0,0.481
3.82,31831.0,34844.0,-0.7209,-0.384,149.3,98.0,0.481
3.84,31898.7,34675.7,-0.4325,-0.7977,149.3,98.0,0.481
3.86,31880.8,34723.5,-0.5089,-0.6803,149.3,98.0,0.481
3.88,31792.6,34721.8,-0.8846,-0.6845,149.3,98.0,0.481
3.9,31825.8,34551.9,-0.7434,-1.1022,149.3,98.0,0.481
3.92,31695.7,34633.2,-1.2981,-0.9022,149.3,98.0,0.481
3.94,31799.3,34483.7,-0.8562,-1.2698,149.3,98.0,0.481
3.96,31797.7,34481.6,-0.8632,-1.2752,149.3,98.0,0.481
3.98,31759.3,34527.3,-1.0268,-1.1628,149.3,98.0,0.481
4.0,31924.6,34701.2,-0.3221,-0.7351,149.3,98.0,0.481
4.02,32110.2,35175.3,0.4692,0.4308,149.3,98.0,0.481
4.04,32133.5,35535.7,0.5686,1.3171,149.3,98.0,0.481
4.06,32259.1,35748.2,1.1041,1.8397,149.3,98.0,0.481
4.08,32373.6,35846.0,1.5924,2.0802,149.3,98.0,0.481
4.1,32166.2,35572.5,0.7082,1.4075,149.3,98.0,0.481
4.12,32203.9,35229.4,0.8689,0.5639,149.3,98.0,0.481
4.14,32045.4,35182.5,0.193,0.4486,149.3,98.0,0.481
4.16,32005.4,35156.2,0.0226,0.3838,149.3,98.0,0.481
4.18,32015.1,35113.7,0.0637,0.2794,149.3,98.0,0.481
4.2,31967.7,34976.1,-0.1383,-0.0591,149.3,98.0,0.481
4.22,31985.4,34870.6,-0.0629,-0.3186,149.3,98.0,0.481
4.24,31899.8,34926.7,-0.4278,-0.1806,149.3,98.0,0.481
4.26,31865.9,34641.1,-0.5722,-0.8828,149.3,98.0,0.481
4.28,31865.6,34646.6,-0.5737,-0.8693,149.3,98.0,0.481
4.3,31835.7,34709.2,-0.701,-0.7155,149.3,98.0,0.481
4.32,31801.8,34608.9,-0.8454,-0.962,149.3,98.0,0.481
4.34,31670.8,34586.5,-1.4041,-1.0171,149.3,98.0,0.481
4.36,31695.8,34494.4,-1.2974,-1.2437,149.3,98.0,0.481
4.38,31795.0,34572.7,-0.8745,-1.051,149.3,98.0,0.481
4.4,31929.7,34836.5,-0.3001,-0.4024,149.3,98.0,0.481
4.42,32048.6,35216.2,0.2067,0.5313,149.3,98.0,0.481
4.44,32306.8,35486.1,1.3075,1.1951,149.3,98.0,0.481
4.46,32434.2,35765.9,1.8508,1.8831,149.3,98.0,0.481
4.48,32303.3,35849.1,1.2926,2.0878,149.3,98.0,0.481
4.5,32216.3,35568.9,0.9216,1.3986,149.3,98.0,0.481
4.52,32149.7,35351.5,0.6378,0.8641,149.3,98.0,0.481
4.54,32043.7,35287.9,0.1858,0.7076,149.3,98.0,0.481
4.56,32133.9,35060.7,0.5705,0.149,149.3,98.0,0.481
4.58,32072.9,35045.0,0.3104,0.1104,149.3,98.0,0.481
4.6,31979.7,35032.9,-0.0869,0.0806,149.3,98.0,0.481
4.62,32052.8,34938.6,0.2246,-0.1513,149.3,98.0,0.481
4.64,31790.2,34776.1,-0.8951,-0.551,149.3,98.0,0.481
4.66,31792.7,34681.2,-0.8844,-0.7843,149.3,98.0,0.481
4.68,31872.3,34761.4,-0.5452,-0.587,149.3,98.0,0.481
4.7,31998.4,34607.3,-0.0072,-0.9659,149.3,98.0,0.481
4.72,31782.4,34519.5,-0.9283,-1.1819,149.3,98.0,0.481
4.74,31826.0,34574.8,-0.7424,-1.0459,149.3,98.0,0.481
4.76,31812.1,34465.1,-0.8019,-1.3157,149.3,98.0,0.481
4.78,31732.3,34434.2,-1.1419,-1.3917,149.3,98.0,0.481
4.8,31919.6,34784.5,-0.3431,-0.5302,149.3,98.0,0.481
4.82,32041.4,35129.9,0.1762,0.3191,149.3,98.0,0.481
4.84,32178.4,35498.9,0.7601,1.2265,149.3,98.0,0.481
4.86,32407.4,35731.5,1.7365,1.7985,149.3,98.0,0.481
4.88,32403.0,35583.3,1.7176,1.4342,149.3,98.0,0.481
4.9,32295.3,35480.6,1.2584,1.1817,149.3,98.0,0.481
4.92,32127.2,35269.1,0.5418,0.6616,149.3,98.0,0.481
4.94,32139.8,35209.2,0.5956,0.5141,149.3,98.0,0.481
4.96,31988.0,35173.9,-0.0516,0.4274,149.3,98.0,0.481
4.98,32096.4,35111.8,0.4105,0.2747,149.3,98.0,0.481
5.0,31922.0,35075.2,-0.3329,0.1847,149.3,98.0,0.481
5.02,32037.8,34944.4,0.1604,-0.1369,149.3,98.0,0.481
5.04,31946.4,34771.8,-0.2291,-0.5616,149.3,98.0,0.481
5.06,31910.6,34705.4,-0.3815,-0.7248,149.3,98.0,0.481
5.08,31894.8,34684.2,-0.4489,-0.777,149.3,98.0,0.481
5.1,31765.9,34769.0,-0.9988,-0.5684,149.3,98.0,0.481
5.12,31804.6,34660.2,-0.8337,-0.8359,149.3,98.0,0.481
5.14,31740.9,34498.4,-1.1054,-1.2337,149.3,98.0,0.481
5.16,31751.7,34463.3,-1.059,-1.3202,149.3,98.0,0.481
5.18,31740.8,34541.0,-1.1056,-1.129,149.3,98.0,0.481
5.2,31915.0,34797.5,-0.363,-0.4982,149.3,98.0,0.481
5.22,31940.9,35036.4,-0.2525,0.0892,149.3,98.0,0.481
5.24,32113.2,35480.6,0.4823,1.1817,149.3,98.0,0.481
5.26,32312.7,35727.0,1.3329,1.7876,149.3,98.0,0.481
5.28,32264.9,35753.2,1.1288,1.852,149.3,98.0,0.481
5.3,32283.1,35575.3,1.2064,1.4144,149.3,98.0,0.481
5.32,32141.3,35413.8,0.602,1.0174,149.3,98.0,0.481
5.34,32101.0,35238.8,0.43,0.5869,149.3,98.0,0.481
5.36,31998.4,35167.8,-0.0072,0.4123,149.3,98.0,0.481
5.38,32086.7,35053.4,0.3692,0.131,149.3,98.0,0.481
5.4,31988.1,35056.2,-0.0513,0.1378,149.3,98.0,0.481
5.42,31937.5,34926.3,-0.2672,-0.1815,149.3,98.0,0.481
5.44,31842.3,34670.6,-0.6728,-0.8104,149.3,98.0,0.481
5.46,32008.0,34733.4,0.0334,-0.6558,149.3,98.0,0.481
5.48,31807.1,34725.8,-0.8228,-0.6745,149.3,98.0,0.481
5.5,31852.4,34646.9,-0.6299,-0.8687,149.3,98.0,0.481
5.52,31798.0,34593.1,-0.8617,-1.0009,149.3,98.0,0.481
5.54,31856.2,34620.9,-0.6135,-0.9326,149.3,98.0,0.481
5.56,31765.3,34420.9,-1.0014,-1.4243,149.3,98.0,0.481
5.58,31753.5,34411.4,-1.0517,-1.4478,149.3,98.0,0.481
5.6,31914.8,34732.2,-0.3638,-0.6589,149.3,98.0,0.481
5.62,32100.0,34903.1,0.426,-0.2385,149.3,98.0,0.481
5.64,32133.5,35464.9,0.5687,1.1429,149.3,98.0,0.481
5.66,32284.0,35719.5,1.2104,1.7692,149.3,98.0,0.481
5.68,32325.0,35710.2,1.3851,1.7463,149.3,98.0,0.481
5.7,32275.9,35602.3,1.1756,1.4808,149.3,98.0,0.481
5.72,32238.6,35479.0,1.0168,1.1776,149.3,98.0,0.481
5.74,32077.2,35193.2,0.3288,0.4747,149.3,98.0,0.481
5.76,32041.8,35095.1,0.1776,0.2336,149.3,98.0,0.481
5.78,32072.3,35086.1,0.3077,0.2115,149.3,98.0,0.481
5.8,32059.5,35060.3,0.2531,0.148,149.3,98.0,0.481
5.82,31998.7,34947.7,-0.0061,-0.129,149.3,98.0,0.481
5.84,31962.5,34816.4,-0.1603,-0.4519,149.3,98.0,0.481
5.86,31865.1,34623.0,-0.5759,-0.9275,149.3,98.0,0.481
5.88,31928.2,34657.7,-0.3066,-0.8421,149.3,98.0,0.481
5.9,31855.1,34742.7,-0.6185,-0.633,149.3,98.0,0.481
5.92,31884.2,34606.3,-0.4942,-0.9685,149.3,98.0,0.481
5.94,31833.2,34553.2,-0.7119,-1.0991,149.3,98.0,0.481
5.96,31753.6,34428.2,-1.051,-1.4065,149.3,98.0,0.481
5.98,31842.3,34508.4,-0.6729,-1.2093,149.3,98.0,0.481
6.0,31844.9,34591.3,-0.6619,-1.0055,149.3,98.0,0.481
6.02,32028.7,35021.5,0.1219,0.0527,149.3,98.0,0.481
6.04,32182.9,35414.7,0.7794,1.0194,149.3,98.0,0.481
6.06,32306.4,35640.1,1.3057,1.5738,149.3,98.0,0.481
6.08,32312.8,35725.8,1.3332,1.7846,149.3,98.0,0.481
6.1,32312.7,35663.1,1.3328,1.6305,149.3,98.0,0.481
6.12,32219.9,35420.5,0.937,1.0339,149.3,98.0,0.481
6.14,32127.1,35322.2,0.5414,0.7921,149.3,98.0,0.481
6.16,32136.8,35116.2,0.5829,0.2854,149.3,98.0,0.481
6.18,31978.3,35125.8,-0.0931,0.3092,149.3,98.0,0.481
6.2,32001.7,35036.9,0.0068,0.0905,149.3,98.0,0.481
6.22,31983.5,35023.9,-0.071,0.0586,149.3,98.0,0.481
6.24,31966.4,34837.5,-0.1438,-0.3998,149.3,98.0,0.481
6.26,31875.8,34589.0,-0.5301,-1.011,149.3,98.0,0.481
6.28,31776.7,34715.7,-0.9525,-0.6995,149.3,98.0,0.481
6.3,31869.2,34678.5,-0.5582,-0.7909,149.3,98.0,0.481
6.32,31785.3,34542.7,-0.916,-1.125,149.3,98.0,0.481
6.34,31750.6,34614.1,-1.0638,-0.9492,149.3,98.0,0.481
6.36,31799.0,34491.0,-0.8574,-1.252,149.3,98.0,0.481
6.38,31770.5,34434.0,-0.9792,-1.3923,149.3,98.0,0.481
6.4,31918.5,34567.3,-0.348,-1.0643,149.3,98.0,0.481
6.42,31908.4,34977.5,-0.3911,-0.0555,149.3,98.0,0.481
6.44,32195.9,35311.1,0.8347,0.7649,149.3,98.0,0.481
6.46,32303.5,35686.2,1.2935,1.6871,149.3,98.0,0.481
6.48,32322.4,35773.9,1.3741,1.9028,149.3,98.0,0.481
6.5,32282.3,35619.7,1.203,1.5237,149.3,98.0,0.481
6.52,32245.0,35429.4,1.0443,1.0556,149.3,98.0,0.481
6.54,32166.4,35297.1,0.7088,0.7303,149.3,98.0,0.481
6.56,32020.5,35141.2,0.087,0.347,149.3,98.0,0.481
6.58,32040.5,35118.0,0.1721,0.2899,149.3,98.0,0.481
6.6,31961.4,34996.3,-0.1651,-0.0094,149.3,98.0,0.481
6.62,32069.0,34907.8,0.2936,-0.2271,149.3,98.0,0.481
6.64,31952.1,34859.5,-0.205,-0.3457,149.3,98.0,0.481
6.66,31855.1,34782.5,-0.6183,-0.535,149.3,98.0,0.481
6.68,31846.3,34674.6,-0.6559,-0.8006,149.3,98.0,0.481
6.7,31848.7,34682.4,-0.6456,-0.7813,149.3,98.0,0.481
6.72,31847.8,34594.9,-0.6494,-0.9964,149.3,98.0,0.481
6.74,31852.7,34596.5,-0.6285,-0.9926,149.3,98.0,0.481
6.76,31738.1,34572.0,-1.1173,-1.0528,149.3,98.0,0.481
6.78,31794.9,34515.1,-0.8752,-1.1927,149.3,98.0,0.481
6.8,31808.9,34549.8,-0.8153,-1.1075,149.3,98.0,0.481
6.82,31851.2,34936.9,-0.6348,-0.1554,149.3,98.0,0.481
6.84,32154.6,35327.6,0.6584,0.8054,149.3,98.0,0.481
6.86,32312.2,35673.5,1.3308,1.656,149.3,98.0,0.481
6.88,32333.8,35749.1,1.4228,1.8418,149.3,98.0,0.481
6.9,32252.7,35593.8,1.0768,1.4599,149.3,98.0,0.481
6.92,32257.2,35441.8,1.0963,1.0861,149.3,98.0,0.481
6.94,32194.6,35246.6,0.8292,0.6061,149.3,98.0,0.481
6.96,32085.1,35138.8,0.3624,0.3411,149.3,98.0,0.481
6.98,32037.6,35022.7,0.1596,0.0556,149.3,98.0,0.481
7.0,32032.1,35079.1,0.1362,0.1942,149.3,98.0,0.481
7.02,31985.4,34851.0,-0.0626,-0.3667,149.3,98.0,0.481
7.04,31953.3,34897.3,-0.1998,-0.2529,149.3,98.0,0.481
7.06,31898.0,34716.2,-0.4354,-0.6981,149.3,98.0,0.481
7.08,31872.4,34702.2,-0.5446,-0.7327,149.3,98.0,0.481
7.1,31818.1,34663.9,-0.7759,-0.8267,149.3,98.0,0.481
7.12,31837.7,34606.9,-0.6924,-0.9669,149.3,98.0,0.481
7.14,31744.2,34627.8,-1.0911,-0.9156,149.3,98.0,0.481
7.16,31765.9,34494.0,-0.9986,-1.2447,149.3,98.0,0.481
7.18,31799.4,34504.8,-0.8559,-1.2181,149.3,98.0,0.481
7.2,31724.1,34507.0,-1.1769,-1.2127,149.3,98.0,0.481
7.22,32014.6,34902.5,0.0616,-0.2401,149.3,98.0,0.481
7.24,32114.9,35330.3,0.4896,0.8121,149.3,98.0,0.481
7.26,32376.7,35576.2,1.6058,1.4168,149.3,98.0,0.481
7.28,32286.8,35798.0,1.2222,1.9621,149.3,98.0,0.481
7.3,32199.7,35782.9,0.8509,1.9251,149.3,98.0,0.481
7.32,32177.0,35464.6,0.7542,1.1422,149.3,98.0,0.481
7.34,32148.0,35288.9,0.6307,0.7102,149.3,98.0,0.481
7.36,32083.0,35129.4,0.3534,0.3179,149.3,98.0,0.481
7.38,32031.8,35051.8,0.135,0.127,149.3,98.0,0.481
7.4,32003.0,34975.4,0.0123,-0.0607,149.3,98.0,0.481
7.42,31949.6,34920.6,-0.2152,-0.1957,149.3,98.0,0.481
7.44,31897.4,34748.5,-0.4381,-0.6189,149.3,98.0,0.481
7.46,31794.4,34661.8,-0.8771,-0.8321,149.3,98.0,0.481
7.48,31876.5,34690.4,-0.527,-0.7616,149.3,98.0,0.481
7.5,31899.5,34638.7,-0.429,-0.8887,149.3,98.0,0.481
7.52,31859.4,34675.0,-0.5999,-0.7995,149.3,98.0,0.481
7.54,31790.3,34501.7,-0.8947,-1.2256,149.3,98.0,0.481
7.56,31794.4,34461.3,-0.8773,-1.325,149.3,98.0,0.481
7.58,31738.3,34519.3,-1.1164,-1.1825,149.3,98.0,0.481
7.6,31858.7,34592.5,-0.603,-1.0024,149.3,98.0,0.481
7.62,31909.5,34839.2,-0.3866,-0.3956,149.3,98.0,0.481
7.64,32108.4,35314.7,0.4617,0.7735,149.3,98.0,0.481
7.66,32299.0,35625.4,1.2743,1.5378,149.3,98.0,0.481
7.68,32331.8,35797.8,1.4143,1.9618,149.3,98.0,0.481
7.7,32303.7,35701.8,1.2943,1.7256,149.3,98.0,0.481
7.72,32215.2,35487.8,0.9169,1.1993,149.3,98.0,0.481
7.74,32237.4,35306.5,1.0118,0.7534,149.3,98.0,0.481
7.76,32138.5,35159.7,0.59,0.3925,149.3,98.0,0.481
7.78,32035.6,35090.4,0.1514,0.2221,149.3,98.0,0.481
7.8,31966.8,35050.0,-0.142,0.1226,149.3,98.0,0.481
7.82,31966.9,34988.6,-0.1415,-0.0283,149.3,98.0,0.481
7.84,31871.3,34907.7,-0.5491,-0.2273,149.3,98.0,0.481
7.86,31899.1,34733.7,-0.4309,-0.6553,149.3,98.0,0.481
7.88,31868.7,34693.5,-0.5602,-0.754,149.3,98.0,0.481
7.9,31895.1,34692.0,-0.4478,-0.7578,149.3,98.0,0.481
7.92,31877.5,34570.6,-0.5229,-1.0563,149.3,98.0,0.481
7.94,31710.5,34617.8,-1.2348,-0.9402,149.3,98.0,0.481
7.96,31738.8,34501.1,-1.1144,-1.2271,149.3,98.0,0.481
7.98,31753.0,34422.0,-1.0538,-1.4217,149.3,98.0,0.481
8.0,31872.4,34572.7,-0.5445,-1.0511,149.3,98.0,0.481
8.02,31929.4,34790.4,-0.3017,-0.5157,149.3,98.0,0.481
8.04,32166.0,35274.4,0.7071,0.6744,149.3,98.0,0.481
8.06,32232.3,35638.1,0.9901,1.5689,149.3,98.0,0.481
8.08,32354.7,35764.0,1.5118,1.8785,149.3,98.0,0.481
8.1,32289.8,35693.3,1.2349,1.7047,149.3,98.0,0.481
8.12,32256.3,35488.9,1.0924,1.2019,149.3,98.0,0.481
8.14,32115.6,35285.0,0.4922,0.7005,149.3,98.0,0.481
8.16,32103.3,35084.2,0.4399,0.2069,149.3,98.0,0.481
8.18,32016.4,35074.8,0.0694,0.1837,149.3,98.0,0.481
8.2,31997.6,34983.5,-0.0106,-0.041,149.3,98.0,0.481
8.22,31986.4,34991.9,-0.0586,-0.0202,149.3,98.0,0.481
8.24,31979.5,34918.8,-0.0877,-0.2,149.3,98.0,0.481
8.26,31930.1,34760.4,-0.2988,-0.5896,149.3,98.0,0.481
8.28,31900.6,34670.4,-0.4243,-0.8107,149.3,98.0,0.481
8.3,31934.1,34570.0,-0.2814,-1.0577,149.3,98.0,0.481
8.32,31802.6,34661.4,-0.8421,-0.8329,149.3,98.0,0.481
8.34,31853.3,34573.2,-0.6261,-1.0499,149.3,98.0,0.481
8.36,31792.5,34497.1,-0.8854,-1.237,149.3,98.0,0.481
8.38,31782.6,34422.9,-0.9275,-1.4194,149.3,98.0,0.481
8.4,31814.1,34503.0,-0.793,-1.2226,149.3,98.0,0.481
8.42,31881.3,34776.0,-0.5067,-0.551,149.3,98.0,0.481
8.44,32129.6,35133.0,0.5522,0.3269,149.3,98.0,0.481
8.46,32244.3,35544.9,1.0412,1.3397,149.3,98.0,0.481
8.48,32283.2,35677.8,1.2068,1.6667,149.3,98.0,0.481
8.5,32270.5,35705.8,1.1527,1.7353,149.3,98.0,0.481
8.52,32297.6,35485.2,1.2686,1.193,149.3,98.0,0.481
8.54,32119.9,35333.6,0.5107,0.8201,149.3,98.0,0.481
8.56,32088.6,35273.5,0.3773,0.6723,149.3,98.0,0.481
8.58,32026.5,35111.8,0.1124,0.2747,149.3,98.0,0.481
8.6,31935.1,35031.8,-0.2774,0.0779,149.3,98.0,0.481
8.62,32067.1,34968.9,0.2856,-0.0768,149.3,98.0,0.481
8.64,32002.2,34886.5,0.009,-0.2795,149.3,98.0,0.481
8.66,31941.3,34721.4,-0.2508,-0.6854,149.3,98.0,0.481
8.68,31829.7,34673.3,-0.7265,-0.8037,149.3,98.0,0.481
8.7,31837.4,34670.8,-0.6938,-0.8097,149.3,98.0,0.481
8.72,31788.1,34689.4,-0.9042,-0.764,149.3,98.0,0.481
8.74,31808.5,34547.5,-0.8169,-1.113,149.3,98.0,0.481
8.76,31650.9,34463.1,-1.4891,-1.3206,149.3,98.0,0.481
8.78,31735.6,34466.2,-1.128,-1.313,149.3,98.0,0.481
8.8,31746.1,34490.3,-1.083,-1.2538,149.3,98.0,0.481
8.82,31825.2,34802.5,-0.7456,-0.4859,149.3,98.0,0.481
8.84,32094.5,35179.9,0.4022,0.4422,149.3,98.0,0.481
8.86,32295.1,35491.8,1.2579,1.2091,149.3,98.0,0.481
8.88,32293.9,35730.1,1.2527,1.7951,149.3,98.0,0.481
8.9,32296.7,35778.7,1.2646,1.9147,149.3,98.0,0.481
8.92,32246.0,35577.1,1.0482,1.419,149.3,98.0,0.481
8.94,32163.7,35384.9,0.6973,0.9462,149.3,98.0,0.481
8.96,32070.4,35114.8,0.2998,0.282,149.3,98.0,0.481
8.98,31983.8,35162.7,-0.0695,0.3998,149.3,98.0,0.481
9.0,32081.6,35053.6,0.3474,0.1316,149.3,98.0,0.481
9.02,32094.5,35034.9,0.4023,0.0856,149.3,98.0,0.481
9.04,31952.5,34820.3,-0.203,-0.4421,149.3,98.0,0.481
9.06,31832.1,34791.8,-0.7165,-0.5124,149.3,98.0,0.481
9.08,31957.7,34768.8,-0.1809,-0.5688,149.3,98.0,0.481
9.1,32006.6,34725.3,0.0274,-0.6759,149.3,98.0,0.481
9.12,31746.5,34751.2,-1.0815,-0.6122,149.3,98.0,0.481
9.14,31887.3,34634.2,-0.4812,-0.9,149.3,98.0,0.481
9.16,31821.1,34513.6,-0.7635,-1.1965,149.3,98.0,0.481
9.18,31672.1,34393.8,-1.3987,-1.4911,149.3,98.0,0.481
9.2,31859.6,34545.9,-0.599,-1.1169,149.3,98.0,0.481
9.22,31892.7,34732.0,-0.458,-0.6592,149.3,98.0,0.481
9.24,32089.1,35146.4,0.3794,0.3597,149.3,98.0,0.481
9.26,32166.5,35504.0,0.7093,1.2392,149.3,98.0,0.481
9.28,32350.2,35793.5,1.4927,1.9512,149.3,98.0,0.481
9.3,32427.3,35736.4,1.8214,1.8107,149.3,98.0,0.481
9.32,32209.3,35520.9,0.8921,1.2806,149.3,98.0,0.481
9.34,32187.6,35316.8,0.7993,0.7787,149.3,98.0,0.481
9.36,32000.0,35261.2,-0.0003,0.6421,149.3,98.0,0.481
9.38,32021.2,35174.6,0.0897,0.4292,149.3,98.0,0.481
9.4,32028.8,35098.4,0.1224,0.2417,149.3,98.0,0.481
9.42,31951.1,35078.0,-0.2092,0.1915,149.3,98.0,0.481
9.44,31995.0,34903.4,-0.0218,-0.2379,149.3,98.0,0.481
9.46,31886.2,34747.5,-0.4858,-0.6211,149.3,98.0,0.481
9.48,31803.7,34586.8,-0.8375,-1.0164,149.3,98.0,0.481
9.5,31856.7,34690.9,-0.6117,-0.7605,149.3,98.0,0.481
9.52,31854.7,34630.4,-0.6199,-0.9092,149.3,98.0,0.481
9.54,31739.0,34540.2,-1.1134,-1.1311,149.3,98.0,0.481
9.56,31785.9,34615.8,-0.9133,-0.9451,149.3,98.0,0.481
9.58,31761.3,34435.9,-1.0181,-1.3874,149.3,98.0,0.481
9.6,31895.7,34519.5,-0.4452,-1.1819,149.3,98.0,0.481
9.62,31889.7,34690.2,-0.4707,-0.7621,149.3,98.0,0.481
9.64,32014.6,35095.1,0.0618,0.2337,149.3,98.0,0.481
9.66,32209.7,35505.2,0.8938,1.2421,149.3,98.0,0.481
9.68,32331.4,35767.2,1.4123,1.8863,149.3,98.0,0.481
9.7,32271.7,35705.4,1.1581,1.7343,149.3,98.0,0.481
9.72,32400.2,35602.9,1.7057,1.4824,149.3,98.0,0.481
9.74,32194.7,35464.2,0.8295,1.1413,149.3,98.0,0.481
9.76,32094.2,35245.5,0.4013,0.6034,149.3,98.0,0.481
9.78,32029.4,35173.5,0.1246,0.4264,149.3,98.0,0.481
9.8,32053.4,35080.7,0.227,0.1982,149.3,98.0,0.481
9.82,31966.8,34844.8,-0.1419,-0.382,149.3,98.0,0.481
9.84,31933.5,35013.8,-0.2841,0.0338,149.3,98.0,0.481
9.86,31861.2,34852.1,-0.5924,-0.364,149.3,98.0,0.481
9.88,31868.1,34656.9,-0.5628,-0.8441,149.3,98.0,0.481
9.9,31862.5,34677.0,-0.587,-0.7946,149.3,98.0,0.481
9.92,31938.5,34623.2,-0.2627,-0.927,149.3,98.0,0.481
9.94,31833.0,34669.0,-0.7125,-0.8143,149.3,98.0,0.481
9.96,31888.0,34446.3,-0.4778,-1.3619,149.3,98.0,0.481
9.98,31787.5,34526.5,-0.9066,-1.1647,149.3,98.0,0.481
10.0,31860.4,34545.6,-0.5957,-1.1178,149.3,98.0,0.481
10.02,31929.4,34761.3,-0.3015,-0.5873,149.3,98.0,0.481
10.04,31982.0,35064.6,-0.0774,0.1585,149.3,98.0,0.481
10.06,32123.7,35468.7,0.5269,1.1523,149.3,98.0,0.481
10.08,32385.4,35666.6,1.6426,1.6391,149.3,98.0,0.481
10.1,32412.1,35763.1,1.7565,1.8762,149.3,98.0,0.481
10.12,32206.8,35656.8,0.8813,1.6148,149.3,98.0,0.481
10.14,32245.4,35440.2,1.0458,1.0822,149.3,98.0,0.481
10.16,32063.0,35271.3,0.268,0.6668,149.3,98.0,0.481
10.18,32072.1,35149.7,0.3069,0.3679,149.3,98.0,0.481
10.2,32036.6,35120.9,0.1554,0.2971,149.3,98.0,0.481
10.22,31988.1,35026.5,-0.0513,0.0648,149.3,98.0,0.481
10.24,32002.2,35008.5,0.0089,0.0206,149.3,98.0,0.481
10.26,31928.2,34758.0,-0.3065,-0.5953,149.3,98.0,0.481
10.28,31892.5,34754.4,-0.4589,-0.6042,149.3,98.0,0.481
10.3,31794.4,34682.1,-0.877,-0.7821,149.3,98.0,0.481
10.32,31852.9,34699.5,-0.6278,-0.7393,149.3,98.0,0.481
10.34,31888.8,34709.2,-0.4745,-0.7155,149.3,98.0,0.481
10.36,31805.2,34572.1,-0.831,-1.0526,149.3,98.0,0.481
10.38,31738.4,34508.1,-1.1161,-1.2101,149.3,98.0,0.481
10.4,31711.2,34486.3,-1.2321,-1.2636,149.3,98.0,0.481
10.42,31878.8,34673.0,-0.5174,-0.8043,149.3,98.0,0.481
10.44,32075.8,35015.2,0.3227,0.0371,149.3,98.0,0.481
10.46,32126.0,35433.9,0.5369,1.0667,149.3,98.0,0.481
10.48,32221.9,35648.6,0.9455,1.5946,149.3,98.0,0.481
10.5,32259.6,35786.7,1.1065,1.9344,149.3,98.0,0.481
10.52,32235.6,35579.4,1.004,1.4244,149.3,98.0,0.481
10.54,32233.7,35389.9,0.9959,0.9586,149.3,98.0,0.481
10.56,32043.9,35194.7,0.1869,0.4786,149.3,98.0,0.481
10.58,32047.7,35228.5,0.2027,0.5616,149.3,98.0,0.481
10.6,32041.0,35073.9,0.1742,0.1815,149.3,98.0,0.481
10.62,31960.8,35010.0,-0.1677,0.0243,149.3,98.0,0.481
10.64,31890.9,34947.7,-0.4657,-0.1289,149.3,98.0,0.481
10.66,31910.4,34755.1,-0.3828,-0.6027,149.3,98.0,0.481
10.68,31904.8,34697.9,-0.4065,-0.7433,149.3,98.0,0.481
10.7,31872.0,34584.9,-0.5465,-1.0211,149.3,98.0,0.481
10.72,31857.2,34723.2,-0.6094,-0.6811,149.3,98.0,0.481
10.74,31863.4,34576.2,-0.5829,-1.0425,149.3,98.0,0.481
10.76,31836.8,34511.6,-0.6962,-1.2015,149.3,98.0,0.481
10.78,31670.3,34531.7,-1.4061,-1.1518,149.3,98.0,0.481
10.8,31809.2,34404.3,-0.8139,-1.4652,149.3,98.0,0.481
10.82,31859.2,34711.0,-0.6008,-0.7109,149.3,98.0,0.481
10.84,32018.2,34989.1,0.077,-0.0271,149.3,98.0,0.481
10.86,32203.8,35373.5,0.8682,0.9181,149.3,98.0,0.481
10.88,32292.2,35636.5,1.2451,1.565,149.3,98.0,0.481
10.9,32256.2,35759.6,1.0919,1.8678,149.3,98.0,0.481
10.92,32359.9,35619.3,1.5342,1.5226,149.3,98.0,0.481
10.94,32192.2,35339.9,0.8188,0.8357,149.3,98.0,0.481
10.96,32121.5,35278.1,0.5176,0.6836,149.3,98.0,0.481
10.98,32046.0,35166.4,0.1958,0.4089,149.3,98.0,0.481
11.0,32001.7,35026.9,0.0067,0.0658,149.3,98.0,0.481
11.02,32002.9,35090.0,0.012,0.2211,149.3,98.0,0.481
11.04,32014.8,34977.5,0.0624,-0.0555,149.3,98.0,0.481
11.06,32027.0,34888.9,0.1146,-0.2734,149.3,98.0,0.481
11.08,31821.5,34715.9,-0.7617,-0.6989,149.3,98.0,0.481
11.1,31824.0,34654.2,-0.7508,-0.8507,149.3,98.0,0.481
11.12,31774.9,34693.5,-0.9601,-0.754,149.3,98.0,0.481
11.14,31843.5,34618.5,-0.6676,-0.9384,149.3,98.0,0.481
11.16,31830.3,34523.5,-0.7239,-1.172,149.3,98.0,0.481
11.18,31758.5,34515.1,-1.0304,-1.1926,149.3,98.0,0.481
11.2,31678.1,34491.9,-1.3728,-1.2498,149.3,98.0,0.481
11.22,31784.7,34608.1,-0.9184,-0.9641,149.3,98.0,0.481
11.24,31969.1,34901.0,-0.1323,-0.2436,149.3,98.0,0.481
11.26,32139.7,35301.7,0.595,0.7416,149.3,98.0,0.481
11.28,32209.1,35655.3,0.8909,1.6112,149.3,98.0,0.481
11.3,32271.4,35776.2,1.1567,1.9086,149.3,98.0,0.481
11.32,32299.2,35717.2,1.2754,1.7635,149.3,98.0,0.481
11.34,32195.8,35474.0,0.8345,1.1655,149.3,98.0,0.481
11.36,32145.4,35362.3,0.6196,0.8907,149.3,98.0,0.481
11.38,32039.2,35115.4,0.1668,0.2836,149.3,98.0,0.481
11.4,32017.6,35186.5,0.0747,0.4583,149.3,98.0,0.481
11.42,31920.2,34970.4,-0.3409,-0.0732,149.3,98.0,0.481
11.44,31975.7,34943.0,-0.1041,-0.1406,149.3,98.0,0.481
11.46,31943.4,34855.3,-0.2419,-0.3562,149.3,98.0,0.481
11.48,31898.5,34742.7,-0.4334,-0.633,149.3,98.0,0.481
11.5,31893.4,34609.9,-0.4549,-0.9597,149.3,98.0,0.481
11.52,31856.1,34581.5,-0.6142,-1.0296,149.3,98.0,0.481
11.54,31841.9,34680.9,-0.6747,-0.7849,149.3,98.0,0.481
11.56,31886.3,34537.0,-0.4851,-1.1388,149.3,98.0,0.481
11.58,31717.8,34477.9,-1.2038,-1.2842,149.3,98.0,0.481
11.6,31792.5,34487.2,-0.8851,-1.2613,149.3,98.0,0.481
11.62,31780.6,34575.8,-0.9361,-1.0434,149.3,98.0,0.481
11.64,32001.8,34910.0,0.0073,-0.2215,149.3,98.0,0.481
11.66,32132.2,35249.6,0.5632,0.6134,149.3,98.0,0.481
11.68,32198.3,35692.8,0.8448,1.7035,149.3,98.0,0.481
11.7,32370.4,35766.2,1.5789,1.884,149.3,98.0,0.481
11.72,32382.3,35724.8,1.6294,1.7822,149.3,98.0,0.481
11.74,32260.3,35358.2,1.1094,0.8805,149.3,98.0,0.481
11.76,32084.5,35354.4,0.36,0.8712,149.3,98.0,0.481
11.78,32080.4,35181.2,0.3425,0.4454,149.3,98.0,0.481
11.8,32008.9,35174.8,0.0374,0.4295,149.3,98.0,0.481
11.82,32026.1,34961.2,0.1106,-0.0957,149.3,98.0,0.481
11.84,31991.5,34912.9,-0.0369,-0.2145,149.3,98.0,0.481
11.86,31871.7,34823.7,-0.5475,-0.4338,149.3,98.0,0.481
11.88,31926.6,34782.3,-0.3135,-0.5356,149.3,98.0,0.481
11.9,31892.8,34647.1,-0.4577,-0.8681,149.3,98.0,0.481
11.92,31852.5,34770.0,-0.6296,-0.5658,149.3,98.0,0.481
11.94,31850.2,34673.3,-0.6391,-0.8037,149.3,98.0,0.481
11.96,31836.7,34580.1,-0.6969,-1.033,149.3,98.0,0.481
11.98,31814.8,34476.5,-0.7902,-1.2876,149.3,98.0,0.481
12.0,31880.8,34423.8,-0.5088,-1.4172,149.3,98.0,0.481
12.02,31844.8,34562.4,-0.6622,-1.0765,149.3,98.0,0.481
12.04,31899.2,34901.1,-0.4303,-0.2434,149.3,98.0,0.481
12.06,32047.9,35261.8,0.2038,0.6434,149.3,98.0,0.481
12.08,32316.3,35555.5,1.3482,1.3657,149.3,98.0,0.481
12.1,32391.8,35729.3,1.6701,1.7931,149.3,98.0,0.481
12.12,32359.4,35735.4,1.5317,1.8082,149.3,98.0,0.481
12.14,32150.4,35454.1,0.6407,1.1163,149.3,98.0,0.481
12.16,32131.3,35292.7,0.5592,0.7194,149.3,98.0,0.481
12.18,32072.5,35237.3,0.3087,0.5832,149.3,98.0,0.481
12.2,32001.3,35036.5,0.0051,0.0896,149.3,98.0,0.481
12.22,32115.6,35025.6,0.4922,0.0626,149.3,98.0,0.481
12.24,31965.8,34987.1,-0.1464,-0.032,149.3,98.0,0.481
12.26,31836.8,34857.6,-0.6965,-0.3504,149.3,98.0,0.481
12.28,31885.2,34685.2,-0.4901,-0.7744,149.3,98.0,0.481
12.3,31827.5,34709.5,-0.7361,-0.7147,149.3,98.0,0.481
12.32,31917.3,34595.0,-0.3533,-0.9962,149.3,98.0,0.481
12.34,31787.7,34647.8,-0.9056,-0.8665,149.3,98.0,0.481
12.36,31722.1,34569.3,-1.1854,-1.0594,149.3,98.0,0.481
12.38,31784.8,34597.8,-0.9179,-0.9894,149.3,98.0,0.481
12.4,31873.2,34436.5,-0.541,-1.3862,149.3,98.0,0.481
12.42,31766.1,34488.5,-0.998,-1.2582,149.3,98.0,0.481
12.44,32025.0,34872.0,0.1061,-0.315,149.3,98.0,0.481
12.46,32069.9,35223.1,0.2976,0.5484,149.3,98.0,0.481
12.48,32291.2,35617.5,1.2411,1.5183,149.3,98.0,0.481
12.5,32393.0,35761.4,1.6752,1.8721,149.3,98.0,0.481
12.52,32354.9,35772.8,1.5127,1.9001,149.3,98.0,0.481
12.54,32263.4,35521.1,1.1226,1.2812,149.3,98.0,0.481
12.56,32165.6,35304.0,0.7056,0.7473,149.3,98.0,0.481
12.58,32073.8,35189.0,0.314,0.4645,149.3,98.0,0.481
12.6,31931.5,35185.1,-0.2926,0.4549,149.3,98.0,0.481
12.62,32047.5,35019.0,0.202,0.0465,149.3,98.0,0.481
12.64,31922.2,34942.6,-0.3324,-0.1415,149.3,98.0,0.481
12.66,31857.5,34886.8,-0.6079,-0.2787,149.3,98.0,0.481
12.68,31846.7,34740.9,-0.6543,-0.6374,149.3,98.0,0.481
12.7,31820.9,34589.2,-0.7643,-1.0106,149.3,98.0,0.481
12.72,31878.9,34665.5,-0.5168,-0.8229,149.3,98.0,0.481
12.74,31798.5,34654.5,-0.8596,-0.85,149.3,98.0,0.481
12.76,31867.2,34587.4,-0.5666,-1.015,149.3,98.0,0.481
12.78,31755.0,34544.8,-1.045,-1.1197,149.3,98.0,0.481
12.8,31680.8,34627.7,-1.3616,-0.9158,149.3,98.0,0.481
12.82,31732.6,34507.2,-1.1407,-1.2121,149.3,98.0,0.481
12.84,31859.3,34768.0,-0.6003,-0.5708,149.3,98.0,0.481
12.86,32113.6,35155.7,0.4839,0.3827,149.3,98.0,0.481
12.88,32177.8,35622.9,0.7574,1.5314,149.3,98.0,0.481
12.9,32292.6,35746.8,1.2472,1.8363,149.3,98.0,0.481
12.92,32293.4,35770.6,1.2506,1.8948,149.3,98.0,0.481
12.94,32226.0,35478.6,0.963,1.1768,149.3,98.0,0.481
12.96,32149.4,35298.9,0.6364,0.7347,149.3,98.0,0.481
12.98,32126.1,35340.8,0.5371,0.8378,149.3,98.0,0.481
13.0,32042.0,35126.1,0.1785,0.3097,149.3,98.0,0.481
13.02,32121.8,35047.6,0.5189,0.1169,149.3,98.0,0.481
13.04,31954.7,34949.4,-0.1936,-0.1248,149.3,98.0,0.481
13.06,32007.1,34877.8,0.0298,-0.3009,149.3,98.0,0.481
13.08,31881.4,34719.4,-0.5064,-0.6902,149.3,98.0,0.481
13.1,31866.1,34712.4,-0.5714,-0.7076,149.3,98.0,0.481
13.12,31892.3,34666.7,-0.4597,-0.8199,149.3,98.0,0.481
13.14,31927.7,34746.1,-0.3086,-0.6246,149.3,98.0,0.481
13.16,31843.6,34557.3,-0.6672,-1.089,149.3,98.0,0.481
13.18,31755.2,34465.0,-1.0441,-1.3158,149.3,98.0,0.481
13.2,31701.2,34352.9,-1.2743,-1.5916,149.3,98.0,0.481
13.22,31727.2,34541.4,-1.1637,-1.1281,149.3,98.0,0.481
13.24,31937.6,34791.2,-0.2667,-0.5137,149.3,98.0,0.481
13.26,32102.2,35071.3,0.4351,0.175,149.3,98.0,0.481
13.28,32133.7,35575.3,0.5697,1.4145,149.3,98.0,0.481
13.3,32366.4,35718.3,1.5618,1.7661,149.3,98.0,0.481
13.32,32210.8,35797.7,0.8983,1.9614,149.3,98.0,0.481
13.34,32260.9,35582.0,1.1117,1.431,149.3,98.0,0.481
13.36,32049.2,35422.4,0.2093,1.0385,149.3,98.0,0.481
13.38,32095.3,35224.0,0.4057,0.5505,149.3,98.0,0.481
13.4,32058.0,35059.3,0.247,0.1455,149.3,98.0,0.481
13.42,31994.5,35041.9,-0.0238,0.1028,149.3,98.0,0.481
13.44,31991.9,34934.5,-0.0352,-0.1613,149.3,98.0,0.481
13.46,31966.5,34842.9,-0.1432,-0.3866,149.3,98.0,0.481
13.48,31907.8,34830.2,-0.3937,-0.4178,149.3,98.0,0.481
13.5,31778.4,34727.4,-0.9454,-0.6707,149.3,98.0,0.481
13.52,31839.5,34721.7,-0.6848,-0.6846,149.3,98.0,0.481
13.54,31812.3,34634.5,-0.8009,-0.8991,149.3,98.0,0.481
13.56,31835.5,34606.6,-0.702,-0.9676,149.3,98.0,0.481
13.58,31786.7,34515.5,-0.9101,-1.1917,149.3,98.0,0.481
13.6,31736.6,34491.4,-1.1238,-1.2511,149.3,98.0,0.481
13.62,31746.1,34416.6,-1.0831,-1.4349,149.3,98.0,0.481
13.64,31796.1,34796.6,-0.8699,-0.5005,149.3,98.0,0.481
13.66,31985.2,35013.5,-0.0637,0.033,149.3,98.0,0.481
13.68,32170.5,35506.4,0.7265,1.2451,149.3,98.0,0.481
13.7,32346.8,35657.5,1.4781,1.6166,149.3,98.0,0.481
13.72,32379.5,35810.2,1.6178,1.9921,149.3,98.0,0.481
13.74,32290.2,35559.0,1.2367,1.3744,149.3,98.0,0.481
13.76,32171.4,35360.6,0.7303,0.8866,149.3,98.0,0.481
13.78,32123.4,35238.4,0.5256,0.586,149.3,98.0,0.481
13.8,32051.6,35166.8,0.2196,0.41,149.3,98.0,0.481
13.82,32020.1,34991.9,0.0852,-0.0202,149.3,98.0,0.481
13.84,31952.6,34958.9,-0.2028,-0.1014,149.3,98.0,0.481
13.86,31895.2,34990.3,-0.4475,-0.0241,149.3,98.0,0.481
13.88,31910.6,34803.4,-0.3819,-0.4838,149.3,98.0,0.481
13.9,31829.4,34724.0,-0.7277,-0.679,149.3,98.0,0.481
13.92,31828.0,34676.3,-0.7341,-0.7964,149.3,98.0,0.481
13.94,31809.9,34650.1,-0.8111,-0.8608,149.3,98.0,0.481
13.96,32002.9,34556.6,0.0118,-1.0906,149.3,98.0,0.481
13.98,31830.2,34500.6,-0.7246,-1.2283,149.3,98.0,0.481
14.0,31756.5,34399.1,-1.0389,-1.478,149.3,98.0,0.481
14.02,31877.8,34532.5,-0.5213,-1.1499,149.3,98.0,0.481
14.04,31816.2,34767.3,-0.7843,-0.5725,149.3,98.0,0.481
14.06,31995.0,34999.4,-0.0216,-0.0017,149.3,98.0,0.481
14.08,32109.3,35466.6,0.4657,1.1472,149.3,98.0,0.481
14.1,32328.8,35673.0,1.4015,1.6547,149.3,98.0,0.481
14.12,32317.6,35710.8,1.3538,1.7478,149.3,98.0,0.481
14.14,32340.1,35691.9,1.4496,1.7013,149.3,98.0,0.481
14.16,32169.0,35370.9,0.7199,0.9118,149.3,98.0,0.481
14.18,32096.9,35198.4,0.4127,0.4877,149.3,98.0,0.481
14.2,31965.0,35059.3,-0.1498,0.1456,149.3,98.0,0.481
14.22,32041.3,35080.2,0.1756,0.1969,149.3,98.0,0.481
14.24,31983.7,35030.2,-0.07,0.0741,149.3,98.0,0.481
14.26,31961.9,34862.1,-0.1631,-0.3394,149.3,98.0,0.481
14.28,31987.8,34844.6,-0.0524,-0.3823,149.3,98.0,0.481
14.3,31993.8,34704.3,-0.0269,-0.7275,149.3,98.0,0.481
14.32,31849.0,34711.1,-0.6443,-0.7108,149.3,98.0,0.481
14.34,31837.9,34617.9,-0.6918,-0.94,149.3,98.0,0.481
14.36,31866.3,34699.9,-0.5704,-0.7382,149.3,98.0,0.481
14.38,31735.4,34522.6,-1.1286,-1.1743,149.3,98.0,0.481
14.4,31813.4,34530.2,-0.796,-1.1557,149.3,98.0,0.481
14.42,31784.5,34479.5,-0.9195,-1.2803,149.3,98.0,0.481
14.44,31894.2,34696.1,-0.4514,-0.7477,149.3,98.0,0.481
14.46,32035.3,35058.7,0.1498,0.144,149.3,98.0,0.481
14.48,32176.2,35430.6,0.7506,1.0585,149.3,98.0,0.481
14.5,32306.8,35670.6,1.3074,1.6489,149.3,98.0,0.481
14.52,32259.7,35694.4,1.1069,1.7073,149.3,98.0,0.481
14.54,32290.0,35661.1,1.2358,1.6254,149.3,98.0,0.481
14.56,32203.1,35466.1,0.8654,1.146,149.3,98.0,0.481
14.58,32149.0,35270.9,0.6348,0.6659,149.3,98.0,0.481
14.6,32068.8,35122.0,0.293,0.2998,149.3,98.0,0.481
14.62,32036.9,35133.6,0.1567,0.3282,149.3,98.0,0.481
14.64,32039.7,35047.8,0.1686,0.1172,149.3,98.0,0.481
14.66,31943.9,34914.4,-0.2398,-0.2107,149.3,98.0,0.481
14.68,31842.2,34807.6,-0.6735,-0.4735,149.3,98.0,0.481
14.7,31841.8,34662.0,-0.6752,-0.8315,149.3,98.0,0.481
14.72,31874.7,34712.6,-0.5347,-0.7071,149.3,98.0,0.481
14.74,31803.6,34700.2,-0.8379,-0.7375,149.3,98.0,0.481
14.76,31833.4,34671.2,-0.7109,-0.8087,149.3,98.0,0.481
14.78,31844.9,34599.3,-0.662,-0.9856,149.3,98.0,0.481
14.8,31737.6,34502.3,-1.1193,-1.2242,149.3,98.0,0.481
14.82,31825.0,34503.6,-0.7466,-1.2211,149.3,98.0,0.481
14.84,31843.7,34629.1,-0.6668,-0.9124,149.3,98.0,0.481
14.86,31991.8,34930.4,-0.0354,-0.1714,149.3,98.0,0.481
14.88,32200.8,35376.6,0.8556,0.9259,149.3,98.0,0.481
14.9,32306.4,35627.7,1.306,1.5434,149.3,98.0,0.481
14.92,32299.2,35741.6,1.2751,1.8235,149.3,98.0,0.481
14.94,32277.4,35647.9,1.1824,1.5931,149.3,98.0,0.481
14.96,32208.0,35460.8,0.8862,1.1328,149.3,98.0,0.481
14.98,32080.1,35288.3,0.3411,0.7088,149.3,98.0,0.481
15.0,32135.6,35135.0,0.5777,0.3317,149.3,98.0,0.481
15.02,32086.3,35102.9,0.3673,0.2527,149.3,98.0,0.481
15.04,31966.8,35072.9,-0.1422,0.179,149.3,98.0,0.481
15.06,31945.8,34898.8,-0.2316,-0.2491,149.3,98.0,0.481
15.08,31892.2,34748.9,-0.4602,-0.6178,149.3,98.0,0.481
15.1,31856.8,34744.0,-0.611,-0.6299,149.3,98.0,0.481
15.12,31828.5,34637.1,-0.7319,-0.8927,149.3,98.0,0.481
15.14,31862.2,34768.3,-0.588,-0.5701,149.3,98.0,0.481
15.16,31794.0,34550.3,-0.8789,-1.1061,149.3,98.0,0.481
15.18,31798.8,34595.6,-0.8583,-0.9947,149.3,98.0,0.481
15.2,31733.7,34465.0,-1.1358,-1.316,149.3,98.0,0.481
15.22,31719.9,34454.6,-1.195,-1.3415,149.3,98.0,0.481
15.24,31893.3,34681.0,-0.4555,-0.7848,149.3,98.0,0.481
15.26,31943.2,34990.4,-0.2425,-0.0239,149.3,98.0,0.481
15.28,32237.4,35349.0,1.0115,0.8579,149.3,98.0,0.481
15.3,32324.4,35677.9,1.3827,1.6668,149.3,98.0,0.481
15.32,32317.9,35807.2,1.3549,1.9846,149.3,98.0,0.481
15.34,32373.2,35706.5,1.5905,1.7372,149.3,98.0,0.481
15.36,32208.2,35512.9,0.8874,1.2609,149.3,98.0,0.481
15.38,32082.1,35328.8,0.3496,0.8083,149.3,98.0,0.481
15.4,32124.2,35065.9,0.5291,0.1617,149.3,98.0,0.481
15.42,31976.9,35128.8,-0.0992,0.3165,149.3,98.0,0.481
15.44,32013.8,35060.6,0.0582,0.1488,149.3,98.0,0.481
15.46,31997.5,35020.2,-0.0113,0.0493,149.3,98.0,0.481
15.48,31872.7,34762.2,-0.5435,-0.5851,149.3,98.0,0.481
15.5,31798.1,34727.5,-0.8614,-0.6703,149.3,98.0,0.481
15.52,32000.3,34728.2,0.0008,-0.6686,149.3,98.0,0.481
15.54,31764.9,34662.7,-1.0031,-0.8298,149.3,98.0,0.481
15.56,31881.4,34669.8,-0.506,-0.8124,149.3,98.0,0.481
15.58,31815.3,34614.7,-0.788,-0.9477,149.3,98.0,0.481
15.6,31825.1,34394.1,-0.7462,-1.4903,149.3,98.0,0.481
15.62,31686.0,34507.7,-1.3392,-1.211,149.3,98.0,0.481
15.64,31803.5,34568.5,-0.8385,-1.0614,149.3,98.0,0.481
15.66,31974.0,34881.3,-0.1113,-0.2921,149.3,98.0,0.481
15.68,32103.7,35320.8,0.4417,0.7886,149.3,98.0,0.481
15.7,32312.3,35628.3,1.3311,1.5449,149.3,98.0,0.481
15.72,32364.5,35699.5,1.5536,1.7198,149.3,98.0,0.481
15.74,32312.5,35684.7,1.3317,1.6836,149.3,98.0,0.481
15.76,32181.9,35455.9,0.7752,1.1208,149.3,98.0,0.481
15.78,32124.9,35281.5,0.5322,0.6921,149.3,98.0,0.481
15.8,31995.6,35113.3,-0.0192,0.2783,149.3,98.0,0.481
15.82,32095.1,35100.7,0.4052,0.2473,149.3,98.0,0.481
15.84,32004.6,35165.0,0.0192,0.4055,149.3,98.0,0.481
15.86,32050.3,34948.1,0.2139,-0.1279,149.3,98.0,0.481
15.88,31989.9,34906.5,-0.0436,-0.2302,149.3,98.0,0.481
15.9,31899.2,34733.5,-0.4304,-0.6557,149.3,98.0,0.481
15.92,31893.5,34775.2,-0.4545,-0.5532,149.3,98.0,0.481
15.94,31815.4,34670.9,-0.7877,-0.8095,149.3,98.0,0.481
15.96,31845.3,34654.9,-0.6603,-0.8488,149.3,98.0,0.481
15.98,31874.2,34548.4,-0.537,-1.1108,149.3,98.0,0.481
16.0,31775.1,34467.3,-0.9594,-1.3102,149.3,98.0,0.481
16.02,31764.6,34482.5,-1.004,-1.273,149.3,98.0,0.481
16.04,31813.2,34612.3,-0.7968,-0.9536,149.3,98.0,0.481
16.06,31937.1,34858.0,-0.2689,-0.3495,149.3,98.0,0.481
16.08,32053.1,35324.7,0.2259,0.7981,149.3,98.0,0.481
16.1,32238.0,35588.8,1.0144,1.4478,149.3,98.0,0.481
16.12,32351.0,35771.4,1.4961,1.8967,149.3,98.0,0.481
16.14,32435.8,35662.5,1.8578,1.6289,149.3,98.0,0.481
16.16,32233.8,35545.5,0.9963,1.3412,149.3,98.0,0.481
16.18,32182.9,35281.6,0.7795,0.6921,149.3,98.0,0.481
16.2,32047.0,35136.6,0.1999,0.3357,149.3,98.0,0.481
16.22,32095.5,35156.8,0.4065,0.3852,149.3,98.0,0.481
16.24,31990.1,35030.4,-0.0427,0.0745,149.3,98.0,0.481
16.26,31991.5,34888.7,-0.0366,-0.2739,149.3,98.0,0.481
16.28,31988.3,34864.8,-0.0502,-0.3327,149.3,98.0,0.481
16.3,31963.5,34771.8,-0.1561,-0.5615,149.3,98.0,0.481
16.32,31859.1,34712.5,-0.6014,-0.7074,149.3,98.0,0.481
16.34,31784.8,34617.0,-0.918,-0.9422,149.3,98.0,0.481
16.36,31746.2,34611.5,-1.0829,-0.9557,149.3,98.0,0.481
16.38,31858.0,34531.2,-0.6058,-1.1532,149.3,98.0,0.481
16.4,31820.2,34486.8,-0.7672,-1.2622,149.3,98.0,0.481
16.42,31708.6,34507.4,-1.2432,-1.2117,149.3,98.0,0.481
16.44,31809.1,34582.9,-0.8143,-1.026,149.3,98.0,0.481
16.46,31949.5,34848.1,-0.216,-0.3738,149.3,98.0,0.481
16.48,32112.4,35252.3,0.4787,0.6202,149.3,98.0,0.481
16.5,32276.8,35624.3,1.1798,1.5351,149.3,98.0,0.481
16.52,32323.8,35683.0,1.3802,1.6794,149.3,98.0,0.481
16.54,32328.1,35659.9,1.3985,1.6225,149.3,98.0,0.481
16.56,32225.9,35437.0,0.9627,1.0744,149.3,98.0,0.481
16.58,32117.9,35305.2,0.5022,0.7502,149.3,98.0,0.481
16.6,32073.9,35145.8,0.3146,0.3583,149.3,98.0,0.481
16.62,32049.2,35135.0,0.2093,0.3318,149.3,98.0,0.481
16.64,32079.7,35101.8,0.3394,0.2502,149.3,98.0,0.481
16.66,31982.9,34960.4,-0.0735,-0.0976,149.3,98.0,0.481
16.68,31966.6,34946.9,-0.1429,-0.131,149.3,98.0,0.481
16.7,31860.8,34824.5,-0.5938,-0.4319,149.3,98.0,0.481
16.72,31834.6,34617.6,-0.7056,-0.9407,149.3,98.0,0.481
16.74,31893.0,34630.0,-0.4569,-0.9103,149.3,98.0,0.481
16.76,31824.1,34732.4,-0.7504,-0.6583,149.3,98.0,0.481
16.78,31828.5,34581.3,-0.7318,-1.0301,149.3,98.0,0.481
16.8,31750.4,34497.9,-1.0646,-1.2351,149.3,98.0,0.481
16.82,31756.5,34474.4,-1.0386,-1.2927,149.3,98.0,0.481
16.84,31745.4,34517.1,-1.0859,-1.1879,149.3,98.0,0.481
16.86,31928.2,34806.0,-0.3067,-0.4773,149.3,98.0,0.481
16.88,32046.1,35237.6,0.1963,0.5841,149.3,98.0,0.481
16.9,32265.8,35436.8,1.133,1.0738,149.3,98.0,0.481
16.92,32334.7,35801.6,1.4266,1.971,149.3,98.0,0.481
16.94,32324.3,35801.6,1.3822,1.971,149.3,98.0,0.481
16.96,32306.5,35552.2,1.3062,1.3577,149.3,98.0,0.481
16.98,32083.1,35381.0,0.3538,0.9368,149.3,98.0,0.481
17.0,32145.2,35209.1,0.6185,0.5139,149.3,98.0,0.481
17.02,32038.5,35100.5,0.1637,0.247,149.3,98.0,0.481
17.04,31996.9,35038.4,-0.0138,0.0941,149.3,98.0,0.481
17.06,32045.7,34897.1,0.1944,-0.2533,149.3,98.0,0.481
17.08,31927.5,34882.5,-0.3095,-0.2892,149.3,98.0,0.481
17.1,31826.4,34832.3,-0.7407,-0.4127,149.3,98.0,0.481
17.12,31856.3,34756.4,-0.6131,-0.5994,149.3,98.0,0.481
17.14,31883.8,34631.0,-0.496,-0.9078,149.3,98.0,0.481
17.16,31865.7,34608.1,-0.5731,-0.964,149.3,98.0,0.481
17.18,31858.8,34648.9,-0.6028,-0.8637,149.3,98.0,0.481
17.2,31810.7,34583.3,-0.8076,-1.025,149.3,98.0,0.481
17.22,31748.1,34407.5,-1.0746,-1.4573,149.3,98.0,0.481
17.24,31765.5,34632.2,-1.0003,-0.9049,149.3,98.0,0.481
17.26,31964.9,34795.7,-0.1501,-0.5026,149.3,98.0,0.481
17.28,32111.5,35150.1,0.4749,0.3687,149.3,98.0,0.481
17.3,32254.4,35571.4,1.0842,1.4048,149.3,98.0,0.481
17.32,32384.6,35700.7,1.6395,1.7228,149.3,98.0,0.481
17.34,32277.7,35766.3,1.1836,1.8842,149.3,98.0,0.481
17.36,32263.2,35604.1,1.1219,1.4853,149.3,98.0,0.481
17.38,32132.9,35340.5,0.5662,0.8369,149.3,98.0,0.481
17.4,32025.7,35229.8,0.1089,0.5648,149.3,98.0,0.481
17.42,32079.0,35230.1,0.3365,0.5655,149.3,98.0,0.481
17.44,31934.3,35027.1,-0.2805,0.0664,149.3,98.0,0.481
17.46,31993.5,35022.6,-0.0281,0.0552,149.3,98.0,0.481
17.48,31934.8,34884.5,-0.2785,-0.2844,149.3,98.0,0.481
17.5,31846.5,34786.7,-0.655,-0.5248,149.3,98.0,0.481
17.52,31749.9,34848.5,-1.0671,-0.3728,149.3,98.0,0.481
17.54,31841.7,34705.4,-0.6756,-0.7249,149.3,98.0,0.481
17.56,31916.8,34601.7,-0.3552,-0.9797,149.3,98.0,0.481
17.58,31800.8,34664.2,-0.8497,-0.8261,149.3,98.0,0.481
17.6,31828.9,34492.7,-0.7302,-1.2479,149.3,98.0,0.481
17.62,31686.8,34428.5,-1.3359,-1.4057,149.3,98.0,0.481
17.64,31728.3,34643.6,-1.159,-0.8767,149.3,98.0,0.481
17.66,31916.7,34754.3,-0.3556,-0.6046,149.3,98.0,0.481
17.68,32153.8,35168.5,0.6551,0.414,149.3,98.0,0.481
17.7,32197.9,35492.0,0.8433,1.2097,149.3,98.0,0.481
17.72,32319.7,35751.6,1.3626,1.8481,149.3,98.0,0.481
17.74,32328.4,35770.9,1.3995,1.8955,149.3,98.0,0.481
17.76,32371.8,35552.8,1.5849,1.3593,149.3,98.0,0.481
17.78,32121.7,35380.2,0.5183,0.9347,149.3,98.0,0.481
17.8,32089.2,35112.2,0.3798,0.2756,149.3,98.0,0.481
17.82,32080.1,35212.9,0.341,0.5232,149.3,98.0,0.481
17.84,32059.8,35089.6,0.2545,0.2202,149.3,98.0,0.481
17.86,31913.2,34962.0,-0.3706,-0.0938,149.3,98.0,0.481
17.88,31921.6,34898.2,-0.3347,-0.2507,149.3,98.0,0.481
17.9,31929.9,34783.5,-0.2992,-0.5327,149.3,98.0,0.481
17.92,31861.3,34726.8,-0.592,-0.6722,149.3,98.0,0.481
17.94,31846.1,34612.2,-0.6565,-0.954,149.3,98.0,0.481
17.96,31784.2,34654.1,-0.9206,-0.851,149.3,98.0,0.481
17.98,31855.0,34572.7,-0.6187,-1.0511,149.3,98.0,0.481
18.0,31864.6,34540.1,-0.5776,-1.1313,149.3,98.0,0.481
18.02,31787.5,34443.2,-0.9067,-1.3697,149.3,98.0,0.481
18.04,31775.0,34497.6,-0.9599,-1.2358,149.3,98.0,0.481
18.06,31844.2,34778.2,-0.6646,-0.5458,149.3,98.0,0.481
18.08,31999.8,35056.5,-0.0012,0.1387,149.3,98.0,0.481
18.1,32243.3,35522.5,1.037,1.2846,149.3,98.0,0.481
18.12,32236.4,35716.1,1.0076,1.7608,149.3,98.0,0.481
18.14,32337.7,35723.2,1.4393,1.7781,149.3,98.0,0.481
18.16,32209.4,35643.5,0.8922,1.5821,149.3,98.0,0.481
18.18,32207.5,35461.5,0.8844,1.1345,149.3,98.0,0.481
18.2,32078.6,35239.1,0.3346,0.5876,149.3,98.0,0.481
18.22,32068.9,35072.8,0.2931,0.1787,149.3,98.0,0.481
18.24,32051.3,35046.6,0.2181,0.1144,149.3,98.0,0.481
18.26,32011.2,35002.9,0.0473,0.0067,149.3,98.0,0.481
18.28,32046.5,34886.8,0.1976,-0.2786,149.3,98.0,0.481
18.3,31915.3,34848.9,-0.3615,-0.3717,149.3,98.0,0.481
18.32,31900.5,34663.2,-0.4248,-0.8285,149.3,98.0,0.481
18.34,31824.4,34722.3,-0.7493,-0.6833,149.3,98.0,0.481
18.36,31928.4,34571.3,-0.3058,-1.0544,149.3,98.0,0.481
18.38,31901.9,34541.5,-0.4188,-1.1277,149.3,98.0,0.481
18.4,31752.3,34589.4,-1.0568,-1.01,149.3,98.0,0.481
18.42,31786.4,34468.7,-0.911,-1.3068,149.3,98.0,0.481
18.44,31762.9,34569.6,-1.0115,-1.0588,149.3,98.0,0.481
18.46,31891.1,34679.7,-0.4648,-0.7879,149.3,98.0,0.481
18.48,32109.7,35068.6,0.4674,0.1683,149.3,98.0,0.481
18.5,32180.0,35427.2,0.7669,1.0502,149.3,98.0,0.481
18.52,32321.0,35742.1,1.368,1.8247,149.3,98.0,0.481
18.54,32334.6,35763.9,1.4263,1.8783,149.3,98.0,0.481
18.56,32175.1,35648.5,0.7459,1.5946,149.3,98.0,0.481
18.58,32188.6,35466.3,0.8038,1.1465,149.3,98.0,0.481
18.6,32054.4,35225.8,0.2314,0.555,149.3,98.0,0.481
18.62,32025.0,35149.1,0.1059,0.3665,149.3,98.0,0.481
18.64,32049.3,35131.0,0.2095,0.322,149.3,98.0,0.481
18.66,31948.3,35073.3,-0.2208,0.1799,149.3,98.0,0.481
18.68,32009.7,34837.6,0.0411,-0.3997,149.3,98.0,0.481
18.7,31869.1,34874.2,-0.5587,-0.3097,149.3,98.0,0.481
18.72,31872.7,34632.6,-0.5435,-0.9038,149.3,98.0,0.481
18.74,31921.8,34731.6,-0.3338,-0.6604,149.3,98.0,0.481
18.76,31899.5,34661.4,-0.4289,-0.8329,149.3,98.0,0.481
18.78,31780.1,34696.3,-0.9382,-0.747,149.3,98.0,0.481
18.8,31829.7,34602.9,-0.7265,-0.9769,149.3,98.0,0.481
18.82,31724.4,34486.4,-1.1758,-1.2634,149.3,98.0,0.481
18.84,31714.9,34508.2,-1.216,-1.2098,149.3,98.0,0.481
18.86,31829.0,34600.9,-0.7297,-0.9817,149.3,98.0,0.481
18.88,31982.3,34993.5,-0.076,-0.0163,149.3,98.0,0.481
18.9,32215.7,35412.1,0.9193,1.0132,149.3,98.0,0.481
18.92,32382.3,35650.2,1.6295,1.5987,149.3,98.0,0.481
18.94,32324.3,35795.1,1.3823,1.955,149.3,98.0,0.481
18.96,32261.6,35631.6,1.1148,1.5529,149.3,98.0,0.481
18.98,32162.8,35348.7,0.6936,0.8573,149.3,98.0,0.481
19.0,32111.8,35324.0,0.4762,0.7964,149.3,98.0,0.481
19.02,32147.7,35163.4,0.6292,0.4015,149.3,98.0,0.481
19.04,32001.5,35104.2,0.006,0.2559,149.3,98.0,0.481
19.06,31998.1,34980.2,-0.0085,-0.0491,149.3,98.0,0.481
19.08,31971.0,34986.6,-0.1243,-0.0332,149.3,98.0,0.481
19.1,31891.3,34900.3,-0.4638,-0.2455,149.3,98.0,0.481
19.12,31893.3,34689.6,-0.4554,-0.7635,149.3,98.0,0.481
19.14,31808.5,34654.4,-0.8169,-0.8502,149.3,98.0,0.481
19.16,31873.2,34630.1,-0.5412,-0.9099,149.3,98.0,0.481
19.18,31875.5,34644.2,-0.5314,-0.8754,149.3,98.0,0.481
19.2,31814.4,34466.2,-0.7917,-1.3129,149.3,98.0,0.481
19.22,31738.7,34463.7,-1.1146,-1.3191,149.3,98.0,0.481
19.24,31711.7,34547.1,-1.2295,-1.114,149.3,98.0,0.481
19.26,31889.1,34669.4,-0.4735,-0.8133,149.3,98.0,0.481
19.28,31998.5,34954.7,-0.0071,-0.1116,149.3,98.0,0.481
19.3,32193.3,35403.3,0.8236,0.9915,149.3,98.0,0.481
19.32,32247.8,35661.7,1.056,1.6269,149.3,98.0,0.481
19.34,32386.1,35753.9,1.6456,1.8536,149.3,98.0,0.481
19.36,32194.3,35615.7,0.8279,1.5137,149.3,98.0,0.481
19.38,32258.4,35567.5,1.1014,1.3953,149.3,98.0,0.481
19.4,32179.2,35263.9,0.7636,0.6487,149.3,98.0,0.481
19.42,32114.9,35161.2,0.4894,0.3961,149.3,98.0,0.481
19.44,31994.4,35111.3,-0.0245,0.2734,149.3,98.0,0.481
19.46,32075.3,34939.9,0.3207,-0.148,149.3,98.0,0.481
19.48,31891.2,34892.6,-0.4645,-0.2645,149.3,98.0,0.481
19.5,31954.6,34841.5,-0.1942,-0.3901,149.3,98.0,0.481
19.52,31947.5,34748.6,-0.2242,-0.6186,149.3,98.0,0.481
19.54,31911.2,34627.7,-0.3792,-0.9158,149.3,98.0,0.481
19.56,31841.1,34679.4,-0.6779,-0.7888,149.3,98.0,0.481
19.58,31909.8,34637.6,-0.3852,-0.8916,149.3,98.0,0.481
19.6,31793.4,34540.6,-0.8813,-1.1301,149.3,98.0,0.481
19.62,31802.6,34408.3,-0.8422,-1.4554,149.3,98.0,0.481
19.64,31757.2,34541.9,-1.0358,-1.1267,149.3,98.0,0.481
19.66,31826.0,34648.9,-0.7423,-0.8637,149.3,98.0,0.481
19.68,31919.8,34968.2,-0.3423,-0.0786,149.3,98.0,0.481
19.7,32114.9,35352.5,0.4895,0.8665,149.3,98.0,0.481
19.72,32335.8,35666.7,1.4313,1.6393,149.3,98.0,0.481
19.74,32282.6,35769.6,1.2044,1.8923,149.3,98.0,0.481
19.76,32355.8,35675.5,1.5164,1.6609,149.3,98.0,0.481
19.78,32263.6,35486.4,1.1233,1.196,149.3,98.0,0.481
19.8,32052.8,35384.5,0.2248,0.9453,149.3,98.0,0.481
19.82,32023.5,35298.4,0.0996,0.7334,149.3,98.0,0.481
19.84,32118.0,35190.0,0.5028,0.467,149.3,98.0,0.481
19.86,31931.4,35055.3,-0.293,0.1358,149.3,98.0,0.481
19.88,31911.9,34957.0,-0.3763,-0.1061,149.3,98.0,0.481
19.9,31930.5,34848.3,-0.297,-0.3732,149.3,98.0,0.481
19.92,31908.2,34767.9,-0.3918,-0.5711,149.3,98.0,0.481
19.94,31897.2,34682.7,-0.439,-0.7806,149.3,98.0,0.481
19.96,31939.3,34684.0,-0.2593,-0.7773,149.3,98.0,0.481
19.98,31860.4,34553.5,-0.5955,-1.0983,149.3,98.0,0.481
20.0,31795.5,34631.0,-0.8723,-0.9076,149.3,98.0,0.481
20.02,31789.3,34537.6,-0.8988,-1.1375,149.3,98.0,0.481
20.04,31778.5,34539.0,-0.9448,-1.134,149.3,98.0,0.481
20.06,31765.9,34701.2,-0.9988,-0.7352,149.3,98.0,0.481
20.08,31921.5,34904.2,-0.3352,-0.2358,149.3,98.0,0.481
20.1,32132.9,35270.2,0.5661,0.6643,149.3,98.0,0.481
20.12,32283.5,35620.9,1.2085,1.5267,149.3,98.0,0.481
20.14,32292.5,35717.8,1.2466,1.765,149.3,98.0,0.481
20.16,32263.8,35748.7,1.1244,1.8409,149.3,98.0,0.481
20.18,32152.7,35562.4,0.6505,1.3829,149.3,98.0,0.481
20.2,32173.4,35352.3,0.7387,0.8661,149.3,98.0,0.481
20.22,32097.8,35184.1,0.4164,0.4524,149.3,98.0,0.481
20.24,32013.5,35139.7,0.0572,0.3433,149.3,98.0,0.481
20.26,31959.2,35034.4,-0.1746,0.0843,149.3,98.0,0.481
20.28,32015.2,34965.2,0.0645,-0.0858,149.3,98.0,0.481
20.3,32005.7,34881.6,0.0236,-0.2915,149.3,98.0,0.481
20.32,31880.1,34698.8,-0.5119,-0.7409,149.3,98.0,0.481
20.34,31863.3,34603.6,-0.5832,-0.975,149.3,98.0,0.481
20.36,31918.4,34689.6,-0.3483,-0.7636,149.3,98.0,0.481
20.38,31894.3,34590.2,-0.451,-1.0081,149.3,98.0,0.481
20.4,31863.2,34633.9,-0.584,-0.9006,149.3,98.0,0.481
20.42,31829.3,34481.9,-0.7282,-1.2745,149.3,98.0,0.481
20.44,31738.6,34437.6,-1.115,-1.3833,149.3,98.0,0.481
20.46,31824.4,34526.1,-0.7493,-1.1656,149.3,98.0,0.481
20.48,31958.5,34877.1,-0.1775,-0.3026,149.3,98.0,0.481
20.5,32094.1,35207.6,0.4009,0.5103,149.3,98.0,0.481
20.52,32265.8,35587.5,1.1326,1.4445,149.3,98.0,0.481
20.54,32363.0,35765.4,1.5473,1.8821,149.3,98.0,0.481
20.56,32347.5,35652.0,1.4811,1.6032,149.3,98.0,0.481
20.58,32226.9,35527.9,0.9667,1.2979,149.3,98.0,0.481
20.6,32158.2,35310.4,0.6742,0.7631,149.3,98.0,0.481
20.62,32106.5,35230.2,0.4536,0.5659,149.3,98.0,0.481
20.64,32094.6,35140.1,0.4028,0.3443,149.3,98.0,0.481
20.66,32003.0,35120.9,0.0122,0.297,149.3,98.0,0.481
20.68,32024.5,34967.7,0.104,-0.0797,149.3,98.0,0.481
20.7,31863.0,34809.7,-0.5845,-0.4683,149.3,98.0,0.481
20.72,31833.4,34699.1,-0.711,-0.7404,149.3,98.0,0.481
20.74,31847.7,34727.3,-0.6501,-0.671,149.3,98.0,0.481
20.76,31788.4,34689.5,-0.9029,-0.7638,149.3,98.0,0.481
20.78,31920.6,34648.1,-0.339,-0.8657,149.3,98.0,0.481
20.8,31848.5,34575.2,-0.6466,-1.045,149.3,98.0,0.481
20.82,31809.3,34471.2,-0.8137,-1.3006,149.3,98.0,0.481
20.84,31736.4,34477.8,-1.1245,-1.2844,149.3,98.0,0.481
20.86,31681.1,34643.8,-1.3604,-0.8762,149.3,98.0,0.481
20.88,31855.4,34843.8,-0.6171,-0.3844,149.3,98.0,0.481
20.9,32192.6,35249.9,0.8207,0.6143,149.3,98.0,0.481
20.92,32242.3,35603.0,1.0326,1.4826,149.3,98.0,0.481
20.94,32281.7,35774.6,1.2005,1.9045,149.3,98.0,0.481
20.96,32277.7,35723.3,1.1835,1.7785,149.3,98.0,0.481
20.98,32208.4,35518.1,0.8882,1.2737,149.3,98.0,0.481
21.0,32152.3,35391.0,0.649,0.9612,149.3,98.0,0.481
21.02,32075.0,35216.0,0.3193,0.5309,149.3,98.0,0.481
21.04,32038.2,35111.1,0.1625,0.2729,149.3,98.0,0.481
21.06,32023.6,35059.2,0.1,0.1452,149.3,98.0,0.481
21.08,31915.9,34916.7,-0.359,-0.2051,149.3,98.0,0.481
21.1,31889.5,34904.2,-0.4715,-0.2359,149.3,98.0,0.481
21.12,31947.1,34870.7,-0.226,-0.3183,149.3,98.0,0.481
21.14,31836.9,34725.6,-0.6957,-0.6751,149.3,98.0,0.481
21.16,31777.3,34760.7,-0.9502,-0.5889,149.3,98.0,0.481
21.18,31814.5,34652.2,-0.7913,-0.8555,149.3,98.0,0.481
21.2,31884.5,34630.3,-0.4929,-0.9094,149.3,98.0,0.481
21.22,31707.8,34512.1,-1.2463,-1.2002,149.3,98.0,0.481
21.24,31763.3,34450.3,-1.0097,-1.3522,149.3,98.0,0.481
21.26,31726.6,34522.1,-1.1662,-1.1755,149.3,98.0,0.481
21.28,31936.9,34819.9,-0.2694,-0.4433,149.3,98.0,0.481
21.3,32135.2,35179.5,0.5758,0.4411,149.3,98.0,0.481
21.32,32218.6,35586.6,0.9317,1.4423,149.3,98.0,0.481
21.34,32216.0,35706.9,0.9204,1.7381,149.3,98.0,0.481
21.36,32399.5,35681.4,1.703,1.6753,149.3,98.0,0.481
21.38,32184.5,35589.4,0.7862,1.4491,149.3,98.0,0.481
21.4,32158.3,35330.3,0.6745,0.812,149.3,98.0,0.481
21.42,32193.5,35188.4,0.8246,0.4631,149.3,98.0,0.481
21.44,32073.0,35093.6,0.3109,0.23,149.3,98.0,0.481
21.46,32028.0,34987.9,0.119,-0.03,149.3,98.0,0.481
21.48,31971.1,34915.7,-0.1239,-0.2077,149.3,98.0,0.481
21.5,31938.6,34889.6,-0.2625,-0.2718,149.3,98.0,0.481
21.52,31835.5,34829.5,-0.7019,-0.4196,149.3,98.0,0.481
21.54,31843.1,34681.5,-0.6693,-0.7836,149.3,98.0,0.481
21.56,31796.0,34683.9,-0.8703,-0.7776,149.3,98.0,0.481
21.58,31797.3,34681.2,-0.8647,-0.7843,149.3,98.0,0.481
21.6,31776.0,34580.6,-0.9554,-1.0317,149.3,98.0,0.481
21.62,31829.2,34496.5,-0.729,-1.2386,149.3,98.0,0.481
21.64,31768.0,34418.6,-0.9897,-1.43,149.3,98.0,0.481
21.66,31804.9,34571.8,-0.8325,-1.0534,149.3,98.0,0.481
21.68,31982.3,34787.9,-0.0761,-0.522,149.3,98.0,0.481
21.7,32049.0,35219.3,0.2083,0.539,149.3,98.0,0.481
21.72,32247.6,35557.7,1.055,1.3711,149.3,98.0,0.481
21.74,32336.0,35804.8,1.432,1.9789,149.3,98.0,0.481
21.76,32409.9,35703.8,1.7472,1.7304,149.3,98.0,0.481
21.78,32190.3,35524.5,0.811,1.2895,149.3,98.0,0.481
21.8,32144.8,35425.8,0.6168,1.0468,149.3,98.0,0.481
21.82,32138.3,35193.9,0.5891,0.4766,149.3,98.0,0.481
21.84,32062.7,35167.3,0.2669,0.4112,149.3,98.0,0.481
21.86,32107.1,35025.4,0.4562,0.0621,149.3,98.0,0.481
21.88,31995.0,34934.3,-0.0217,-0.1619,149.3,98.0,0.481
21.9,31867.9,34892.7,-0.5638,-0.2641,149.3,98.0,0.481
21.92,31882.2,34753.9,-0.5027,-0.6054,149.3,98.0,0.481
21.94,31825.0,34711.2,-0.7467,-0.7104,149.3,98.0,0.481
21.96,31852.6,34679.0,-0.6288,-0.7896,149.3,98.0,0.481
21.98,31762.1,34626.7,-1.0147,-0.9184,149.3,98.0,0.481
22.0,31801.0,34610.5,-0.8489,-0.9581,149.3,98.0,0.481
22.02,31762.5,34521.9,-1.013,-1.1759,149.3,98.0,0.481
22.04,31791.5,34432.9,-0.8896,-1.3948,149.3,98.0,0.481
22.06,31781.3,34524.0,-0.9329,-1.1708,149.3,98.0,0.481
22.08,31954.4,34743.5,-0.1951,-0.631,149.3,98.0,0.481
22.1,32027.4,35038.9,0.1163,0.0954,149.3,98.0,0.481
22.12,32186.3,35524.6,0.7939,1.2899,149.3,98.0,0.481
22.14,32280.9,35735.7,1.1973,1.809,149.3,98.0,0.481
22.16,32279.2,35734.8,1.1899,1.8067,149.3,98.0,0.481
22.18,32183.8,35644.3,0.7832,1.584,149.3,98.0,0.481
22.2,32211.6,35310.3,0.9016,0.7628,149.3,98.0,0.481
22.22,32072.0,35216.2,0.3063,0.5314,149.3,98.0,0.481
22.24,32137.7,35160.3,0.5868,0.394,149.3,98.0,0.481
22.26,32071.5,34987.0,0.3045,-0.0324,149.3,98.0,0.481
22.28,31996.0,34965.6,-0.0177,-0.0848,149.3,98.0,0.481
22.3,31900.2,34836.5,-0.4261,-0.4024,149.3,98.0,0.481
22.32,31934.2,34783.6,-0.2812,-0.5324,149.3,98.0,0.481
22.34,31902.4,34662.7,-0.4165,-0.8297,149.3,98.0,0.481
22.36,31871.0,34583.1,-0.5505,-1.0255,149.3,98.0,0.481
22.38,31854.9,34722.5,-0.619,-0.6827,149.3,98.0,0.481
22.4,31936.4,34631.6,-0.2716,-0.9063,149.3,98.0,0.481
22.42,31820.1,34551.7,-0.7674,-1.1026,149.3,98.0,0.481
22.44,31831.4,34485.3,-0.7193,-1.266,149.3,98.0,0.481
22.46,31809.1,34399.0,-0.8144,-1.4782,149.3,98.0,0.481
22.48,31876.4,34790.9,-0.5274,-0.5145,149.3,98.0,0.481
22.5,32024.9,35120.5,0.1058,0.2961,149.3,98.0,0.481
22.52,32247.5,35354.5,1.0549,0.8715,149.3,98.0,0.481
22.54,32275.5,35771.2,1.1741,1.8963,149.3,98.0,0.481
22.56,32286.4,35746.2,1.2207,1.8347,149.3,98.0,0.481
22.58,32272.6,35601.4,1.1618,1.4786,149.3,98.0,0.481
22.6,32248.4,35438.9,1.0584,1.079,149.3,98.0,0.481
22.62,32044.4,35260.6,0.1889,0.6407,149.3,98.0,0.481
22.64,32040.9,35115.4,0.1737,0.2835,149.3,98.0,0.481
22.66,31970.3,35103.8,-0.1274,0.255,149.3,98.0,0.481
22.68,31981.8,35023.3,-0.0782,0.0569,149.3,98.0,0.481
22.7,31937.5,34834.0,-0.2669,-0.4085,149.3,98.0,0.481
22.72,31911.7,34677.4,-0.3772,-0.7937,149.3,98.0,0.481
22.74,31830.6,34664.5,-0.7227,-0.8254,149.3,98.0,0.481
22.76,31898.1,34631.5,-0.435,-0.9066,149.3,98.0,0.481
22.78,31825.0,34713.6,-0.7468,-0.7045,149.3,98.0,0.481
22.8,31733.6,34637.7,-1.1366,-0.8912,149.3,98.0,0.481
22.82,31732.5,34479.2,-1.1411,-1.2809,149.3,98.0,0.481
22.84,31787.5,34377.8,-0.9065,-1.5305,149.3,98.0,0.481
22.86,31766.5,34495.9,-0.996,-1.2398,149.3,98.0,0.481
22.88,31835.1,34701.7,-0.7037,-0.7339,149.3,98.0,0.481
22.9,32046.8,35052.3,0.199,0.1284,149.3,98.0,0.481
22.92,32098.0,35435.5,0.4171,1.0706,149.3,98.0,0.481
22.94,32378.6,35647.8,1.6135,1.5928,149.3,98.0,0.481
22.96,32301.7,35791.5,1.2859,1.9461,149.3,98.0,0.481
22.98,32335.7,35550.0,1.4307,1.3524,149.3,98.0,0.481
23.0,32249.3,35417.4,1.0626,1.0263,149.3,98.0,0.481
23.02,32142.4,35276.5,0.6069,0.6796,149.3,98.0,0.481
23.04,31993.1,35163.9,-0.0297,0.4027,149.3,98.0,0.481
23.06,31924.4,35054.8,-0.3228,0.1344,149.3,98.0,0.481
23.08,31949.8,35060.1,-0.2146,0.1474,149.3,98.0,0.481
23.1,32084.9,34804.8,0.3615,-0.4803,149.3,98.0,0.481
23.12,31938.6,34843.9,-0.2624,-0.3842,149.3,98.0,0.481
23.14,31793.2,34654.6,-0.8823,-0.8497,149.3,98.0,0.481
23.16,31830.2,34624.6,-0.7244,-0.9236,149.3,98.0,0.481
23.18,31922.2,34749.9,-0.3323,-0.6153,149.3,98.0,0.481
23.2,31862.9,34627.2,-0.5851,-0.917,149.3,98.0,0.481
23.22,31815.3,34535.0,-0.788,-1.1439,149.3,98.0,0.481
23.24,31728.1,34487.0,-1.1599,-1.2619,149.3,98.0,0.481
23.26,31788.4,34338.3,-0.9026,-1.6276,149.3,98.0,0.481
23.28,31811.6,34664.1,-0.8038,-0.8264,149.3,98.0,0.481
23.3,31920.9,35018.8,-0.3378,0.0459,149.3,98.0,0.481
23.32,32267.9,35383.1,1.1419,0.9418,149.3,98.0,0.481
23.34,32330.3,35661.9,1.4078,1.6275,149.3,98.0,0.481
23.36,32377.1,35714.9,1.6074,1.7578,149.3,98.0,0.481
23.38,32316.2,35697.3,1.3475,1.7146,149.3,98.0,0.481
23.4,32147.2,35430.3,0.6271,1.058,149.3,98.0,0.481
23.42,32055.0,35320.7,0.234,0.7884,149.3,98.0,0.481
23.44,32045.2,35152.2,0.192,0.374,149.3,98.0,0.481
23.46,31943.4,35098.1,-0.2417,0.241,149.3,98.0,0.481
23.48,31966.2,35060.9,-0.1448,0.1495,149.3,98.0,0.481
23.5,31980.0,34928.8,-0.0859,-0.1754,149.3,98.0,0.481
23.52,31974.2,34836.6,-0.1105,-0.402,149.3,98.0,0.481
23.54,31897.2,34835.9,-0.439,-0.4039,149.3,98.0,0.481
23.56,31891.4,34627.9,-0.4637,-0.9153,149.3,98.0,0.481
23.58,31858.6,34671.1,-0.6033,-0.8091,149.3,98.0,0.481
23.6,31908.5,34634.9,-0.3905,-0.8982,149.3,98.0,0.481
23.62,31791.1,34458.1,-0.891,-1.3329,149.3,98.0,0.481
23.64,31786.2,34450.9,-0.912,-1.3507,149.3,98.0,0.481
23.66,31844.2,34469.5,-0.6646,-1.305,149.3,98.0,0.481
23.68,31812.4,34692.8,-0.8003,-0.7559,149.3,98.0,0.481
23.7,32006.0,34821.4,0.025,-0.4396,149.3,98.0,0.481
23.72,32115.3,35347.3,0.491,0.8537,149.3,98.0,0.481
23.74,32279.5,35658.1,1.1913,1.6181,149.3,98.0,0.481
23.76,32366.6,35751.9,1.5627,1.8489,149.3,98.0,0.481
23.78,32266.6,35699.2,1.1364,1.7193,149.3,98.0,0.481
23.8,32127.4,35428.7,0.5427,1.0538,149.3,98.0,0.481
23.82,32117.8,35262.0,0.5019,0.6441,149.3,98.0,0.481
23.84,32142.6,35267.1,0.6075,0.6567,149.3,98.0,0.481
23.86,32037.0,35013.6,0.1573,0.0331,149.3,98.0,0.481
23.88,32029.0,35041.0,0.1231,0.1006,149.3,98.0,0.481
23.9,32003.6,34906.9,0.015,-0.2293,149.3,98.0,0.481
23.92,31939.7,34959.8,-0.2578,-0.0991,149.3,98.0,0.481
23.94,31845.8,34714.2,-0.6579,-0.703,149.3,98.0,0.481
23.96,31868.0,34635.8,-0.5635,-0.8959,149.3,98.0,0.481
23.98,31918.1,34654.6,-0.3495,-0.8498,149.3,98.0,0.481
24.0,31838.5,34657.3,-0.6893,-0.8431,149.3,98.0,0.481
24.02,31699.8,34565.9,-1.2804,-1.0679,149.3,98.0,0.481
24.04,31836.7,34453.5,-0.6968,-1.3443,149.3,98.0,0.481
24.06,31777.0,34454.6,-0.9514,-1.3415,149.3,98.0,0.481
24.08,31925.1,34669.1,-0.3198,-0.814,149.3,98.0,0.481
24.1,32031.7,34889.5,0.1347,-0.272,149.3,98.0,0.481
24.12,32151.0,35309.9,0.6435,0.7617,149.3,98.0,0.481
24.14,32304.5,35722.3,1.2977,1.776,149.3,98.0,0.481
24.16,32308.8,35726.7,1.3163,1.7868,149.3,98.0,0.481
24.18,32276.7,35739.9,1.1794,1.8193,149.3,98.0,0.481
24.2,32178.3,35490.0,0.7596,1.2046,149.3,98.0,0.481
24.22,32131.2,35309.2,0.5588,0.76,149.3,98.0,0.481
24.24,32074.6,35198.6,0.3176,0.4882,149.3,98.0,0.481
24.26,31953.4,35119.0,-0.1994,0.2924,149.3,98.0,0.481
24.28,32028.2,35091.8,0.1199,0.2255,149.3,98.0,0.481
24.3,32017.2,34945.7,0.0727,-0.1339,149.3,98.0,0.481
24.32,32001.3,34775.3,0.0051,-0.553,149.3,98.0,0.481
24.34,31884.1,34731.3,-0.4947,-0.661,149.3,98.0,0.481
24.36,31793.9,34732.2,-0.8791,-0.6588,149.3,98.0,0.481
24.38,31935.6,34676.7,-0.2751,-0.7953,149.3,98.0,0.481
24.4,31755.9,34675.1,-1.0411,-0.7993,149.3,98.0,0.481
24.42,31758.5,34659.6,-1.0301,-0.8373,149.3,98.0,0.481
24.44,31711.8,34385.6,-1.2294,-1.5112,149.3,98.0,0.481
24.46,31719.4,34522.1,-1.197,-1.1755,149.3,98.0,0.481
24.48,31846.7,34679.2,-0.6542,-0.7892,149.3,98.0,0.481
24.5,31969.9,34971.8,-0.1288,-0.0695,149.3,98.0,0.481
24.52,32121.1,35316.5,0.516,0.7782,149.3,98.0,0.481
24.54,32323.3,35594.8,1.3778,1.4624,149.3,98.0,0.481
24.56,32311.7,35762.7,1.3285,1.8753,149.3,98.0,0.481
24.58,32319.7,35694.5,1.3626,1.7076,149.3,98.0,0.481
24.6,32249.9,35542.9,1.0652,1.3347,149.3,98.0,0.481
24.62,32101.5,35378.1,0.4323,0.9294,149.3,98.0,0.481
24.64,32142.0,35200.3,0.6051,0.4923,149.3,98.0,0.481
24.66,32040.1,35164.3,0.1703,0.4039,149.3,98.0,0.481
24.68,32031.0,35020.1,0.1315,0.0491,149.3,98.0,0.481
24.7,32014.3,35023.8,0.0603,0.0581,149.3,98.0,0.481
24.72,31965.0,34911.1,-0.1499,-0.2189,149.3,98.0,0.481
24.74,31908.1,34789.5,-0.3923,-0.5179,149.3,98.0,0.481
24.76,31904.0,34665.2,-0.4098,-0.8235,149.3,98.0,0.481
24.78,31907.5,34643.1,-0.3948,-0.878,149.3,98.0,0.481
24.8,31850.4,34624.4,-0.6383,-0.9239,149.3,98.0,0.481
24.82,31889.5,34603.7,-0.4718,-0.975,149.3,98.0,0.481
24.84,31813.8,34431.0,-0.7943,-1.3995,149.3,98.0,0.481
24.86,31753.8,34509.9,-1.0502,-1.2056,149.3,98.0,0.481
24.88,31765.4,34567.4,-1.0006,-1.064,149.3,98.0,0.481
24.9,31958.2,34814.7,-0.1788,-0.4561,149.3,98.0,0.481
24.92,32066.7,35157.5,0.2838,0.3871,149.3,98.0,0.481
24.94,32244.1,35609.8,1.0402,1.4993,149.3,98.0,0.481
24.96,32395.3,35822.2,1.6848,2.0215,149.3,98.0,0.481
24.98,32254.3,35756.6,1.084,1.8603,149.3,98.0,0.481
25.0,32336.9,35535.2,1.436,1.3159,149.3,98.0,0.481
25.02,32136.9,35336.9,0.5831,0.8282,149.3,98.0,0.481
25.04,32045.5,35187.5,0.1934,0.4607,149.3,98.0,0.481
25.06,32040.7,35155.3,0.1732,0.3816,149.3,98.0,0.481
25.08,31937.2,35021.7,-0.2681,0.053,149.3,98.0,0.481
25.1,32061.3,35033.0,0.261,0.0808,149.3,98.0,0.481
25.12,31923.3,34894.5,-0.3277,-0.2596,149.3,98.0,0.481
25.14,31927.5,34759.7,-0.3096,-0.5912,149.3,98.0,0.481
25.16,32014.9,34707.8,0.063,-0.719,149.3,98.0,0.481
25.18,31908.7,34723.7,-0.3897,-0.6796,149.3,98.0,0.481
25.2,31882.6,34723.5,-0.5011,-0.6803,149.3,98.0,0.481
25.22,31843.7,34555.7,-0.6671,-1.0929,149.3,98.0,0.481
25.24,31822.0,34441.0,-0.7595,-1.375,149.3,98.0,0.481
25.26,31896.5,34469.2,-0.4418,-1.3056,149.3,98.0,0.481
25.28,31857.8,34449.0,-0.6068,-1.3553,149.3,98.0,0.481
25.3,31847.7,34789.6,-0.6497,-0.5178,149.3,98.0,0.481
25.32,32082.6,35225.6,0.3518,0.5546,149.3,98.0,0.481
25.34,32280.4,35555.3,1.1951,1.3654,149.3,98.0,0.481
25.36,32380.5,35727.3,1.6219,1.7883,149.3,98.0,0.481
25.38,32405.9,35693.0,1.7303,1.7039,149.3,98.0,0.481
25.4,32239.7,35644.4,1.0217,1.5845,149.3,98.0,0.481
25.42,32175.7,35381.4,0.7485,0.9377,149.3,98.0,0.481
25.44,32036.8,35133.7,0.1563,0.3286,149.3,98.0,0.481
25.46,32033.9,35131.5,0.1442,0.323,149.3,98.0,0.481
25.48,32011.7,35028.2,0.0492,0.0689,149.3,98.0,0.481
25.5,32055.8,35069.9,0.2374,0.1717,149.3,98.0,0.481
25.52,31857.4,34908.4,-0.6087,-0.2256,149.3,98.0,0.481
25.54,31880.5,34687.3,-0.5102,-0.7692,149.3,98.0,0.481
25.56,31878.2,34747.6,-0.5198,-0.621,149.3,98.0,0.481
25.58,31834.6,34687.5,-0.7055,-0.7688,149.3,98.0,0.481
25.6,31905.3,34626.5,-0.4043,-0.9188,149.3,98.0,0.481
25.62,31842.1,34547.0,-0.6738,-1.1143,149.3,98.0,0.481
25.64,31864.2,34514.1,-0.5793,-1.1951,149.3,98.0,0.481
25.66,31724.2,34513.2,-1.1763,-1.1974,149.3,98.0,0.481
25.68,31890.1,34515.8,-0.4692,-1.191,149.3,98.0,0.481
25.7,31934.8,34803.0,-0.2786,-0.4846,149.3,98.0,0.481
25.72,32085.5,35174.0,0.3642,0.4275,149.3,98.0,0.481
25.74,32243.6,35594.8,1.0381,1.4625,149.3,98.0,0.481
25.76,32296.3,35820.3,1.2628,2.0171,149.3,98.0,0.481
25.78,32233.1,35724.3,0.9935,1.7808,149.3,98.0,0.481
25.8,32182.7,35604.4,0.7783,1.486,149.3,98.0,0.481
25.82,32115.1,35370.4,0.4903,0.9106,149.3,98.0,0.481
25.84,32137.0,35226.4,0.5838,0.5566,149.3,98.0,0.481
25.86,32040.5,35139.1,0.1721,0.3417,149.3,98.0,0.481
25.88,32041.0,35054.5,0.1741,0.1336,149.3,98.0,0.481
25.9,31962.0,34924.4,-0.1627,-0.1861,149.3,98.0,0.481
25.92,31914.9,34770.3,-0.3634,-0.5651,149.3,98.0,0.481
25.94,31915.3,34809.8,-0.3618,-0.4681,149.3,98.0,0.481
25.96,31768.1,34702.5,-0.9894,-0.732,149.3,98.0,0.481
25.98,31883.8,34663.8,-0.4958,-0.827,149.3,98.0,0.481
26.0,31819.3,34617.1,-0.7708,-0.942,149.3,98.0,0.481
26.02,31848.4,34635.0,-0.6471,-0.898,149.3,98.0,0.481
26.04,31730.7,34466.8,-1.1489,-1.3114,149.3,98.0,0.481
26.06,31757.7,34370.2,-1.0335,-1.5491,149.3,98.0,0.481
26.08,31890.8,34577.9,-0.4663,-1.0384,149.3,98.0,0.481
26.1,31803.4,34809.1,-0.8387,-0.4698,149.3,98.0,0.481
26.12,32049.9,35139.7,0.2121,0.3433,149.3,98.0,0.481
26.14,32254.3,35549.3,1.0837,1.3506,149.3,98.0,0.481
26.16,32373.9,35752.1,1.5935,1.8493,149.3,98.0,0.481
26.18,32319.7,35870.4,1.3628,2.1401,149.3,98.0,0.481
26.2,32292.7,35571.0,1.2473,1.4039,149.3,98.0,0.481
26.22,32174.6,35390.0,0.7437,0.9589,149.3,98.0,0.481
26.24,32098.5,35318.0,0.4195,0.7816,149.3,98.0,0.481
26.26,32015.4,35139.9,0.065,0.3437,149.3,98.0,0.481
26.28,32023.3,35062.7,0.099,0.1538,149.3,98.0,0.481
26.3,32035.7,34961.1,0.1516,-0.096,149.3,98.0,0.481
26.32,31918.5,34873.4,-0.3481,-0.3116,149.3,98.0,0.481
26.34,31923.1,34839.0,-0.3283,-0.3962,149.3,98.0,0.481
26.36,31872.4,34662.5,-0.5445,-0.8302,149.3,98.0,0.481
26.38,31857.6,34711.3,-0.6078,-0.7101,149.3,98.0,0.481
26.4,31815.0,34671.3,-0.7892,-0.8085,149.3,98.0,0.481
26.42,31787.7,34611.2,-0.9056,-0.9564,149.3,98.0,0.481
26.44,31754.7,34598.8,-1.0465,-0.9868,149.3,98.0,0.481
26.46,31723.6,34451.1,-1.1792,-1.3502,149.3,98.0,0.481
26.48,31845.7,34590.8,-0.6585,-1.0065,149.3,98.0,0.481
26.5,31782.4,34733.9,-0.9284,-0.6546,149.3,98.0,0.481
26.52,32014.4,35044.1,0.0608,0.1083,149.3,98.0,0.481
26.54,32233.9,35452.2,0.9967,1.1116,149.3,98.0,0.481
26.56,32329.6,35737.0,1.4047,1.8121,149.3,98.0,0.481
26.58,32382.1,35815.7,1.6287,2.0056,149.3,98.0,0.481
26.6,32338.6,35599.1,1.4434,1.473,149.3,98.0,0.481
26.62,32197.7,35300.2,0.8425,0.738,149.3,98.0,0.481
26.64,32138.8,35132.9,0.5911,0.3266,149.3,98.0,0.481
26.66,32012.8,35109.1,0.0539,0.268,149.3,98.0,0.481
26.68,32062.8,35131.9,0.2672,0.324,149.3,98.0,0.481
26.7,31985.8,34968.7,-0.0612,-0.0773,149.3,98.0,0.481
26.72,31962.7,34955.3,-0.1595,-0.1102,149.3,98.0,0.481
26.74,31863.9,34757.9,-0.5807,-0.5955,149.3,98.0,0.481
26.76,31842.6,34689.4,-0.6717,-0.7642,149.3,98.0,0.481
26.78,31887.3,34715.5,-0.481,-0.7,149.3,98.0,0.481
26.8,31975.8,34685.1,-0.1036,-0.7747,149.3,98.0,0.481
26.82,31753.0,34601.8,-1.0537,-0.9795,149.3,98.0,0.481
26.84,31737.5,34604.3,-1.1196,-0.9733,149.3,98.0,0.481
26.86,31769.5,34556.6,-0.9832,-1.0906,149.3,98.0,0.481
26.88,31815.8,34461.0,-0.7858,-1.3257,149.3,98.0,0.481
26.9,31918.1,34741.5,-0.3499,-0.6361,149.3,98.0,0.481
26.92,32009.0,35045.7,0.038,0.1122,149.3,98.0,0.481
26.94,32145.2,35460.5,0.6186,1.1321,149.3,98.0,0.481
26.96,32261.5,35729.5,1.1147,1.7937,149.3,98.0,0.481
26.98,32361.1,35736.1,1.539,1.81,149.3,98.0,0.481
27.0,32243.2,35702.6,1.0365,1.7276,149.3,98.0,0.481
27.02,32233.7,35449.7,0.9958,1.1057,149.3,98.0,0.481
27.04,32171.6,35278.7,0.7311,0.6851,149.3,98.0,0.481
27.06,32005.1,35133.1,0.0212,0.3271,149.3,98.0,0.481
27.08,32045.1,34990.2,0.192,-0.0244,149.3,98.0,0.481
27.1,32050.5,34981.1,0.2146,-0.0467,149.3,98.0,0.481
27.12,32022.3,34830.9,0.0944,-0.4161,149.3,98.0,0.481
27.14,31968.2,34790.2,-0.136,-0.5163,149.3,98.0,0.481
27.16,31885.8,34728.8,-0.4875,-0.6671,149.3,98.0,0.481
27.18,31782.5,34693.9,-0.9279,-0.7531,149.3,98.0,0.481
27.2,31802.4,34585.1,-0.8432,-1.0205,149.3,98.0,0.481
27.22,31821.8,34543.1,-0.7605,-1.1239,149.3,98.0,0.481
27.24,31828.8,34502.6,-0.7305,-1.2235,149.3,98.0,0.481
27.26,31677.5,34375.3,-1.3755,-1.5365,149.3,98.0,0.481
27.28,31815.4,34498.5,-0.7876,-1.2335,149.3,98.0,0.481
27.3,31942.6,34658.3,-0.2453,-0.8406,149.3,98.0,0.481
27.32,32111.5,35084.3,0.4751,0.207,149.3,98.0,0.481
27.34,32159.7,35347.1,0.6804,0.8534,149.3,98.0,0.481
27.36,32235.4,35686.6,1.0031,1.6882,149.3,98.0,0.481
27.38,32296.0,35749.8,1.2617,1.8435,149.3,98.0,0.481
27.4,32271.0,35622.0,1.155,1.5294,149.3,98.0,0.481
27.42,32197.8,35416.6,0.8426,1.0243,149.3,98.0,0.481
27.44,32097.0,35230.7,0.4129,0.5671,149.3,98.0,0.481
27.46,32052.6,35230.9,0.2237,0.5675,149.3,98.0,0.481
27.48,32038.8,35058.4,0.165,0.1433,149.3,98.0,0.481
27.5,31997.9,35053.9,-0.0095,0.1322,149.3,98.0,0.481
27.52,32012.2,35005.1,0.0515,0.0123,149.3,98.0,0.481
27.54,31902.5,34740.7,-0.4163,-0.6381,149.3,98.0,0.481
27.56,31870.5,34708.4,-0.5527,-0.7174,149.3,98.0,0.481
27.58,31821.6,34706.9,-0.761,-0.7211,149.3,98.0,0.481
27.6,31842.6,34634.8,-0.6717,-0.8984,149.3,98.0,0.481
27.62,31891.7,34589.3,-0.4624,-1.0103,149.3,98.0,0.481
27.64,31821.4,34527.6,-0.7621,-1.162,149.3,98.0,0.481
27.66,31717.5,34493.9,-1.2049,-1.2448,149.3,98.0,0.481
27.68,31757.5,34485.5,-1.0346,-1.2654,149.3,98.0,0.481
27.7,31840.0,34608.9,-0.6825,-0.962,149.3,98.0,0.481
27.72,31954.7,34950.6,-0.1935,-0.1218,149.3,98.0,0.481
27.74,32121.7,35430.1,0.5182,1.0573,149.3,98.0,0.481
27.76,32344.7,35693.3,1.4692,1.7046,149.3,98.0,0.481
27.78,32379.6,35785.8,1.6179,1.932,149.3,98.0,0.481
27.8,32315.8,35658.2,1.3461,1.6183,149.3,98.0,0.481
27.82,32238.4,35582.5,1.0161,1.4322,149.3,98.0,0.481
27.84,32036.2,35227.2,0.1537,0.5585,149.3,98.0,0.481
27.86,32045.8,35180.6,0.195,0.4437,149.3,98.0,0.481
27.88,32065.3,35005.1,0.2777,0.0122,149.3,98.0,0.481
27.9,32037.6,34998.0,0.1597,-0.0051,149.3,98.0,0.481
27.92,32001.2,34994.9,0.0048,-0.0128,149.3,98.0,0.481
27.94,32034.1,34861.1,0.145,-0.3419,149.3,98.0,0.481
27.96,31885.7,34762.9,-0.4879,-0.5832,149.3,98.0,0.481
27.98,31829.7,34726.7,-0.7266,-0.6725,149.3,98.0,0.481
28.0,31851.0,34698.2,-0.6357,-0.7425,149.3,98.0,0.481
28.02,31890.8,34630.8,-0.4663,-0.9082,149.3,98.0,0.481
28.04,31779.4,34584.5,-0.9412,-1.0221,149.3,98.0,0.481
28.06,31705.2,34522.5,-1.2575,-1.1744,149.3,98.0,0.481
28.08,31860.2,34409.4,-0.5967,-1.4528,149.3,98.0,0.481
28.1,31889.3,34619.4,-0.4724,-0.9363,149.3,98.0,0.481
28.12,31876.0,34906.4,-0.529,-0.2304,149.3,98.0,0.481
28.14,32164.0,35417.0,0.6989,1.0252,149.3,98.0,0.481
28.16,32311.4,35713.7,1.3274,1.7548,149.3,98.0,0.481
28.18,32307.0,35762.2,1.3084,1.8741,149.3,98.0,0.481
28.2,32224.7,35691.0,0.9574,1.6991,149.3,98.0,0.481
28.22,32191.1,35360.5,0.8142,0.8863,149.3,98.0,0.481
28.24,32070.0,35219.6,0.2978,0.5396,149.3,98.0,0.481
28.26,32070.7,35120.4,0.3011,0.2958,149.3,98.0,0.481
28.28,32154.3,35056.2,0.6575,0.138,149.3,98.0,0.481
28.3,31996.2,35085.1,-0.0166,0.2089,149.3,98.0,0.481
28.32,32085.5,35003.5,0.3642,0.0083,149.3,98.0,0.481
28.34,31870.7,34911.9,-0.5519,-0.217,149.3,98.0,0.481
28.36,31854.3,34807.0,-0.6219,-0.475,149.3,98.0,0.481
28.38,31850.3,34708.0,-0.6388,-0.7183,149.3,98.0,0.481
28.4,31862.7,34695.4,-0.586,-0.7493,149.3,98.0,0.481
28.42,31885.3,34728.9,-0.4895,-0.6671,149.3,98.0,0.481
28.44,31844.8,34640.6,-0.6621,-0.884,149.3,98.0,0.481
28.46,31639.0,34520.3,-1.5398,-1.1799,149.3,98.0,0.481
28.48,31749.5,34496.0,-1.0686,-1.2397,149.3,98.0,0.481
28.5,31870.4,34573.1,-0.553,-1.0502,149.3,98.0,0.481
28.52,31979.0,34920.5,-0.0902,-0.1958,149.3,98.0,0.481
28.54,32140.3,35322.9,0.5976,0.7938,149.3,98.0,0.481
28.56,32358.6,35640.0,1.5283,1.5737,149.3,98.0,0.481
28.58,32255.6,35794.4,1.0894,1.9532,149.3,98.0,0.481
28.6,32337.9,35665.4,1.4402,1.6361,149.3,98.0,0.481
28.62,32146.4,35541.1,0.6238,1.3305,149.3,98.0,0.481
28.64,32140.4,35335.1,0.5982,0.8239,149.3,98.0,0.481
28.66,32114.5,35094.3,0.4878,0.2316,149.3,98.0,0.481
28.68,32045.0,35036.2,0.1913,0.0886,149.3,98.0,0.481
28.7,32039.9,35078.2,0.1696,0.1919,149.3,98.0,0.481
28.72,32053.8,34902.9,0.229,-0.239,149.3,98.0,0.481
28.74,31948.0,34920.0,-0.2224,-0.1971,149.3,98.0,0.481
28.76,31872.4,34712.3,-0.5447,-0.7079,149.3,98.0,0.481
28.78,31816.7,34673.8,-0.7821,-0.8025,149.3,98.0,0.481
28.8,31870.6,34684.2,-0.5523,-0.7769,149.3,98.0,0.481
28.82,31797.9,34632.4,-0.8623,-0.9043,149.3,98.0,0.481
28.84,31820.4,34611.1,-0.7664,-0.9566,149.3,98.0,0.481
28.86,31685.9,34453.5,-1.3398,-1.3443,149.3,98.0,0.481
28.88,31794.0,34405.6,-0.8787,-1.462,149.3,98.0,0.481
28.9,31793.6,34561.2,-0.8805,-1.0794,149.3,98.0,0.481
28.92,31905.6,34893.9,-0.4031,-0.2611,149.3,98.0,0.481
28.94,32189.9,35293.2,0.8093,0.7206,149.3,98.0,0.481
28.96,32184.5,35588.0,0.7862,1.4458,149.3,98.0,0.481
28.98,32320.2,35800.9,1.3647,1.9693,149.3,98.0,0.481
29.0,32339.3,35654.5,1.446,1.6091,149.3,98.0,0.481
29.02,32182.9,35497.0,0.7793,1.222,149.3,98.0,0.481
29.04,32144.5,35337.1,0.6154,0.8287,149.3,98.0,0.481
29.06,32134.3,35154.4,0.572,0.3794,149.3,98.0,0.481
29.08,32104.7,35101.1,0.4458,0.2483,149.3,98.0,0.481
29.1,32083.4,35043.4,0.3551,0.1064,149.3,98.0,0.481
29.12,31909.1,35014.1,-0.3882,0.0343,149.3,98.0,0.481
29.14,31931.1,34777.8,-0.2942,-0.5466,149.3,98.0,0.481
29.16,31972.0,34751.8,-0.1198,-0.6106,149.3,98.0,0.481
29.18,31880.0,34696.3,-0.5122,-0.7472,149.3,98.0,0.481
29.2,31918.7,34649.1,-0.347,-0.8633,149.3,98.0,0.481
29.22,31743.6,34671.1,-1.0937,-0.809,149.3,98.0,0.481
29.24,31896.3,34557.8,-0.4425,-1.0878,149.3,98.0,0.481
29.26,31788.0,34465.0,-0.9042,-1.3159,149.3,98.0,0.481
29.28,31799.7,34474.2,-0.8547,-1.2933,149.3,98.0,0.481
29.3,31884.0,34562.9,-0.4949,-1.0752,149.3,98.0,0.481
29.32,31926.5,34791.6,-0.3138,-0.5129,149.3,98.0,0.481
29.34,32066.3,35196.8,0.282,0.4837,149.3,98.0,0.481
29.36,32330.0,35634.7,1.4065,1.5606,149.3,98.0,0.481
29.38,32315.2,35732.1,1.3433,1.8,149.3,98.0,0.481
29.4,32433.8,35648.1,1.8493,1.5934,149.3,98.0,0.481
29.42,32186.7,35540.4,0.7954,1.3286,149.3,98.0,0.481
29.44,32246.5,35374.3,1.0505,0.9201,149.3,98.0,0.481
29.46,32104.7,35178.6,0.4458,0.4388,149.3,98.0,0.481
29.48,32047.2,34961.3,0.2009,-0.0954,149.3,98.0,0.481
29.5,31981.1,35074.1,-0.0811,0.1819,149.3,98.0,0.481
29.52,32066.1,34991.0,0.2812,-0.0225,149.3,98.0,0.481
29.54,31933.2,34916.4,-0.2853,-0.2059,149.3,98.0,0.481
29.56,31920.1,34732.2,-0.3412,-0.6588,149.3,98.0,0.481
29.58,31911.0,34682.1,-0.38,-0.782,149.3,98.0,0.481
29.6,31804.7,34784.1,-0.8332,-0.5313,149.3,98.0,0.481
29.62,31828.3,34638.6,-0.7326,-0.8891,149.3,98.0,0.481
29.64,31906.4,34588.4,-0.3994,-1.0126,149.3,98.0,0.481
29.66,31728.5,34535.8,-1.1582,-1.1418,149.3,98.0,0.481
29.68,31771.3,34482.8,-0.9758,-1.2721,149.3,98.0,0.481
29.7,31880.8,34511.9,-0.5087,-1.2007,149.3,98.0,0.481
29.72,31882.5,34837.0,-0.5016,-0.4012,149.3,98.0,0.481
29.74,32178.3,35160.7,0.7599,0.395,149.3,98.0,0.481
29.76,32099.5,35569.1,0.4239,1.3992,149.3,98.0,0.481
29.78,32370.6,35736.8,1.5797,1.8117,149.3,98.0,0.481
29.8,32298.1,35721.8,1.2706,1.7746,149.3,98.0,0.481
29.82,32193.9,35564.3,0.8264,1.3874,149.3,98.0,0.481
29.84,32120.5,35362.9,0.5134,0.8922,149.3,98.0,0.481
29.86,32124.6,35208.8,0.5309,0.5132,149.3,98.0,0.481
29.88,32037.2,35142.2,0.1579,0.3495,149.3,98.0,0.481
29.9,32000.7,35045.4,0.0026,0.1113,149.3,98.0,0.481
29.92,31941.2,34958.6,-0.2513,-0.1022,149.3,98.0,0.481
29.94,31971.4,34921.2,-0.1226,-0.194,149.3,98.0,0.481
29.96,31815.0,34790.5,-0.7893,-0.5156,149.3,98.0,0.481
29.98,31896.3,34740.1,-0.4427,-0.6394,149.3,98.0,0.481
30.0,31759.2,34587.0,-1.027,-1.0159,149.3,98.0,0.481
30.02,31914.5,34614.9,-0.3651,-0.9474,149.3,98.0,0.481
30.04,31854.6,34612.7,-0.6204,-0.9528,149.3,98.0,0.481
30.06,31756.6,34511.2,-1.0381,-1.2023,149.3,98.0,0.481
30.08,31784.2,34393.6,-0.9205,-1.4914,149.3,98.0,0.481
30.1,31836.0,34499.7,-0.6999,-1.2306,149.3,98.0,0.481
30.12,31928.0,34736.0,-0.3077,-0.6496,149.3,98.0,0.481
30.14,32028.8,35155.3,0.1222,0.3817,149.3,98.0,0.481
30.16,32252.4,35585.8,1.0758,1.4403,149.3,98.0,0.481
30.18,32365.2,35773.2,1.5567,1.901,149.3,98.0,0.481
30.2,32275.0,35706.4,1.1722,1.7369,149.3,98.0,0.481
30.22,32274.5,35531.3,1.1697,1.3063,149.3,98.0,0.481
30.24,32271.6,35425.9,1.1574,1.0472,149.3,98.0,0.481
30.26,32001.4,35202.8,0.0056,0.4984,149.3,98.0,0.481
30.28,32148.6,35102.0,0.6329,0.2505,149.3,98.0,0.481
30.3,32079.7,35030.5,0.3395,0.0748,149.3,98.0,0.481
30.32,32027.3,34960.6,0.1158,-0.0971,149.3,98.0,0.481
30.34,31884.1,34913.8,-0.4947,-0.2122,149.3,98.0,0.481
30.36,31944.4,34759.4,-0.2374,-0.5921,149.3,98.0,0.481
30.38,31856.3,34697.6,-0.613,-0.744,149.3,98.0,0.481
30.4,31839.7,34744.8,-0.6838,-0.6278,149.3,98.0,0.481
30.42,31820.2,34701.3,-0.7672,-0.7349,149.3,98.0,0.481
30.44,31827.7,34579.1,-0.7353,-1.0352,149.3,98.0,0.481
30.46,31757.4,34514.2,-1.0349,-1.1949,149.3,98.0,0.481
30.48,31843.8,34404.8,-0.6664,-1.4639,149.3,98.0,0.481
30.5,31782.2,34486.8,-0.9293,-1.2624,149.3,98.0,0.481
30.52,31927.8,34698.6,-0.3084,-0.7414,149.3,98.0,0.481
30.54,32023.9,35116.7,0.1015,0.2868,149.3,98.0,0.481
30.56,32224.2,35558.4,0.9555,1.3729,149.3,98.0,0.481
30.58,32321.5,35811.8,1.3704,1.9961,149.3,98.0,0.481
30.6,32392.7,35732.6,1.6737,1.8014,149.3,98.0,0.481
30.62,32233.9,35647.1,0.9968,1.5911,149.3,98.0,0.481
30.64,32130.1,35422.6,0.5541,1.039,149.3,98.0,0.481
30.66,32082.9,35195.7,0.3528,0.481,149.3,98.0,0.481
30.68,31955.6,35152.0,-0.1899,0.3736,149.3,98.0,0.481
30.7,32036.9,35051.4,0.1567,0.126,149.3,98.0,0.481
30.72,31986.2,34932.6,-0.0593,-0.166,149.3,98.0,0.481
30.74,31945.5,34829.8,-0.2328,-0.4189,149.3,98.0,0.481
30.76,31961.2,34731.0,-0.166,-0.6619,149.3,98.0,0.481
30.78,31843.0,34708.2,-0.67,-0.7179,149.3,98.0,0.481
30.8,31821.2,34683.0,-0.7628,-0.7798,149.3,98.0,0.481
30.82,31915.3,34674.4,-0.3617,-0.8011,149.3,98.0,0.481
30.84,31826.4,34517.1,-0.7407,-1.1878,149.3,98.0,0.481
30.86,31687.8,34456.7,-1.3317,-1.3362,149.3,98.0,0.481
30.88,31779.7,34403.4,-0.9399,-1.4675,149.3,98.0,0.481
30.9,31862.5,34450.1,-0.587,-1.3525,149.3,98.0,0.481
30.92,31948.3,34730.5,-0.2208,-0.6631,149.3,98.0,0.481
30.94,32050.9,35094.6,0.2166,0.2323,149.3,98.0,0.481
30.96,32231.5,35521.9,0.9865,1.2832,149.3,98.0,0.481
30.98,32362.4,35693.1,1.5447,1.7043,149.3,98.0,0.481
31.0,32335.1,35746.8,1.4282,1.8363,149.3,98.0,0.481
31.02,32259.6,35635.0,1.1063,1.5612,149.3,98.0,0.481
31.04,32198.0,35378.4,0.8439,0.9303,149.3,98.0,0.481
31.06,32010.0,35104.4,0.0419,0.2565,149.3,98.0,0.481
31.08,32040.4,35128.1,0.1717,0.3147,149.3,98.0,0.481
31.1,32041.1,35054.2,0.1747,0.133,149.3,98.0,0.481
31.12,31964.3,35031.8,-0.1526,0.078,149.3,98.0,0.481
31.14,31958.7,34852.2,-0.1767,-0.3638,149.3,98.0,0.481
31.16,31903.0,34827.0,-0.4141,-0.4258,149.3,98.0,0.481
31.18,31865.4,34615.1,-0.5745,-0.9469,149.3,98.0,0.481
31.2,31846.8,34620.0,-0.6536,-0.9347,149.3,98.0,0.481
31.22,31811.8,34629.3,-0.8028,-0.912,149.3,98.0,0.481
31.24,31736.3,34580.2,-1.1247,-1.0326,149.3,98.0,0.481
31.26,31779.6,34420.0,-0.9403,-1.4266,149.3,98.0,0.481
31.28,31757.8,34484.4,-1.0333,-1.2682,149.3,98.0,0.481
31.3,31800.1,34469.9,-0.8528,-1.304,149.3,98.0,0.481
31.32,31969.8,34816.5,-0.1295,-0.4515,149.3,98.0,0.481
31.34,32064.8,35088.0,0.2758,0.216,149.3,98.0,0.481
31.36,32237.9,35406.0,1.0137,0.9982,149.3,98.0,0.481
31.38,32317.0,35662.7,1.351,1.6293,149.3,98.0,0.481
31.4,32267.0,35771.5,1.1378,1.8969,149.3,98.0,0.481
31.42,32237.4,35602.0,1.0118,1.4802,149.3,98.0,0.481
31.44,32167.3,35359.8,0.7128,0.8846,149.3,98.0,0.481
31.46,32047.7,35263.3,0.2028,0.6473,149.3,98.0,0.481
31.48,32087.8,35199.8,0.3738,0.4909,149.3,98.0,0.481
31.5,32019.5,35042.1,0.0825,0.1034,149.3,98.0,0.481
31.52,31975.3,35043.0,-0.1059,0.1055,149.3,98.0,0.481
31.54,31911.9,34989.4,-0.3762,-0.0263,149.3,98.0,0.481
31.56,31964.8,34834.4,-0.1506,-0.4075,149.3,98.0,0.481
31.58,31871.2,34730.9,-0.5496,-0.6619,149.3,98.0,0.481
31.6,31874.5,34681.6,-0.5355,-0.7833,149.3,98.0,0.481
31.62,31887.6,34728.1,-0.4797,-0.6689,149.3,98.0,0.481
31.64,31880.7,34619.6,-0.509,-0.9358,149.3,98.0,0.481
31.66,31817.5,34559.8,-0.7788,-1.0827,149.3,98.0,0.481
31.68,31800.0,34417.9,-0.8531,-1.4318,149.3,98.0,0.481
31.7,31857.5,34566.2,-0.6079,-1.0671,149.3,98.0,0.481
31.72,31866.8,34732.4,-0.5685,-0.6583,149.3,98.0,0.481
31.74,32006.8,35052.9,0.0284,0.1298,149.3,98.0,0.481
31.76,32155.5,35387.2,0.6626,0.952,149.3,98.0,0.481
31.78,32292.0,35768.6,1.2446,1.8899,149.3,98.0,0.481
31.8,32384.7,35818.8,1.6398,2.0132,149.3,98.0,0.481
31.82,32257.4,35660.3,1.097,1.6234,149.3,98.0,0.481
31.84,32193.1,35433.1,0.8228,1.0648,149.3,98.0,0.481
31.86,32050.4,35255.3,0.2144,0.6276,149.3,98.0,0.481
31.88,32034.5,35161.9,0.1464,0.3978,149.3,98.0,0.481
31.9,32128.2,35110.8,0.546,0.2722,149.3,98.0,0.481
31.92,31999.9,35064.4,-0.0009,0.1581,149.3,98.0,0.481
31.94,31973.2,34945.0,-0.1149,-0.1355,149.3,98.0,0.481
31.96,31913.5,34795.7,-0.3694,-0.5028,149.3,98.0,0.481
31.98,31875.5,34770.2,-0.5312,-0.5653,149.3,98.0,0.481
32.0,31826.2,34742.9,-0.7414,-0.6324,149.3,98.0,0.481
32.02,31900.7,34754.5,-0.424,-0.604,149.3,98.0,0.481
32.04,31791.7,34602.2,-0.8887,-0.9785,149.3,98.0,0.481
32.06,31713.8,34534.3,-1.2209,-1.1454,149.3,98.0,0.481
32.08,31719.4,34463.2,-1.1967,-1.3204,149.3,98.0,0.481
32.1,31812.3,34523.3,-0.8006,-1.1727,149.3,98.0,0.481
32.12,31787.2,34588.7,-0.908,-1.0116,149.3,98.0,0.481
32.14,31985.6,34956.5,-0.0619,-0.1074,149.3,98.0,0.481
32.16,32144.9,35475.1,0.6173,1.168,149.3,98.0,0.481
32.18,32143.8,35589.2,0.6128,1.4486,149.3,98.0,0.481
32.2,32251.3,35743.9,1.071,1.8291,149.3,98.0,0.481
32.22,32287.5,35686.0,1.2252,1.6868,149.3,98.0,0.481
32.24,32203.3,35426.8,0.8663,1.0492,149.3,98.0,0.481
32.26,32049.9,35290.4,0.2124,0.7139,149.3,98.0,0.481
32.28,32093.4,35116.1,0.3976,0.2853,149.3,98.0,0.481
32.3,32020.8,35165.0,0.088,0.4055,149.3,98.0,0.481
32.32,32092.3,34976.2,0.393,-0.0589,149.3,98.0,0.481
32.34,32019.7,35035.0,0.0833,0.0858,149.3,98.0,0.481
32.36,32007.5,34793.0,0.0315,-0.5094,149.3,98.0,0.481
32.38,31964.4,34782.2,-0.1523,-0.536,149.3,98.0,0.481
32.4,31811.3,34748.4,-0.8052,-0.6191,149.3,98.0,0.481
32.42,31862.1,34594.0,-0.5887,-0.9986,149.3,98.0,0.481
32.44,31783.0,34629.3,-0.9259,-0.912,149.3,98.0,0.481
32.46,31835.9,34617.0,-0.7002,-0.9421,149.3,98.0,0.481
32.48,31722.6,34537.3,-1.1831,-1.1383,149.3,98.0,0.481
32.5,31766.9,34452.0,-0.9946,-1.3478,149.3,98.0,0.481
32.52,31826.6,34594.9,-0.7397,-0.9966,149.3,98.0,0.481
32.54,31989.3,34878.3,-0.046,-0.2997,149.3,98.0,0.481
32.56,32213.9,35239.5,0.9114,0.5888,149.3,98.0,0.481
32.58,32211.9,35649.3,0.9031,1.5964,149.3,98.0,0.481
32.6,32331.5,35845.4,1.4129,2.0787,149.3,98.0,0.481
32.62,32321.9,35652.0,1.3721,1.603,149.3,98.0,0.481
32.64,32266.4,35485.8,1.1353,1.1944,149.3,98.0,0.481
32.66,32198.1,35293.3,0.844,0.7209,149.3,98.0,0.481
32.68,32084.6,35065.2,0.3602,0.1599,149.3,98.0,0.481
32.7,32119.2,34997.3,0.5078,-0.007,149.3,98.0,0.481
32.72,32056.8,34975.6,0.2417,-0.0604,149.3,98.0,0.481
32.74,31954.3,34964.2,-0.1955,-0.0884,149.3,98.0,0.481
32.76,31935.4,34785.5,-0.2762,-0.5278,149.3,98.0,0.481
32.78,31922.1,34804.2,-0.3328,-0.4817,149.3,98.0,0.481
32.8,31894.4,34722.8,-0.4507,-0.682,149.3,98.0,0.481
32.82,31809.1,34618.5,-0.8144,-0.9384,149.3,98.0,0.481
32.84,31751.8,34717.6,-1.0587,-0.6948,149.3,98.0,0.481
32.86,31837.4,34550.9,-0.6939,-1.1047,149.3,98.0,0.481
32.88,31784.6,34466.0,-0.9189,-1.3135,149.3,98.0,0.481
32.9,31671.9,34502.2,-1.3995,-1.2244,149.3,98.0,0.481
32.92,31832.9,34592.9,-0.7129,-1.0015,149.3,98.0,0.481
32.94,32140.2,34955.9,0.5972,-0.1087,149.3,98.0,0.481
32.96,32064.4,35327.2,0.2739,0.8043,149.3,98.0,0.481
32.98,32291.7,35642.4,1.2433,1.5796,149.3,98.0,0.481
33.0,32353.6,35871.8,1.5073,2.1436,149.3,98.0,0.481
33.02,32367.0,35624.6,1.5645,1.5356,149.3,98.0,0.481
33.04,32244.9,35471.7,1.0438,1.1598,149.3,98.0,0.481
33.06,32134.1,35271.8,0.5714,0.6682,149.3,98.0,0.481
33.08,31992.4,35183.8,-0.0331,0.4517,149.3,98.0,0.481
33.1,32031.8,35121.9,0.1352,0.2995,149.3,98.0,0.481
33.12,31895.7,35060.8,-0.4454,0.1493,149.3,98.0,0.481
33.14,31954.9,35136.4,-0.1929,0.3352,149.3,98.0,0.481
33.16,31935.4,34825.2,-0.2759,-0.4302,149.3,98.0,0.481
33.18,31802.8,34788.7,-0.8413,-0.52,149.3,98.0,0.481
33.2,31921.8,34706.4,-0.3341,-0.7223,149.3,98.0,0.481
33.22,31820.2,34713.3,-0.7672,-0.7052,149.3,98.0,0.481
33.24,31790.8,34694.8,-0.8925,-0.7507,149.3,98.0,0.481
33.26,31901.3,34604.8,-0.4213,-0.9721,149.3,98.0,0.481
33.28,31694.2,34508.0,-1.3043,-1.2101,149.3,98.0,0.481
33.3,31787.4,34494.3,-0.907,-1.2439,149.3,98.0,0.481
33.32,31728.2,34698.6,-1.1596,-0.7415,149.3,98.0,0.481
33.34,31980.5,34829.5,-0.0837,-0.4196,149.3,98.0,0.481
33.36,32110.4,35267.0,0.4702,0.6564,149.3,98.0,0.481
33.38,32220.6,35583.2,0.9399,1.434,149.3,98.0,0.481
33.4,32288.1,35720.8,1.2277,1.7724,149.3,98.0,0.481
33.42,32285.8,35675.0,1.2179,1.6596,149.3,98.0,0.481
33.44,32245.5,35517.8,1.0461,1.2732,149.3,98.0,0.481
33.46,32076.6,35244.6,0.3261,0.6013,149.3,98.0,0.481
33.48,32055.1,35107.0,0.2344,0.2629,149.3,98.0,0.481
33.5,32092.3,35045.0,0.3929,0.1104,149.3,98.0,0.481
33.52,32032.1,35075.3,0.1365,0.1848,149.3,98.0,0.481
33.54,32085.4,34939.3,0.3635,-0.1496,149.3,98.0,0.481
33.56,31933.0,34841.8,-0.2863,-0.3892,149.3,98.0,0.481
33.58,31843.5,34767.2,-0.6679,-0.5728,149.3,98.0,0.481
33.6,31750.1,34743.8,-1.0662,-0.6303,149.3,98.0,0.481
33.62,31999.3,34595.1,-0.0036,-0.9959,149.3,98.0,0.481
33.64,31817.6,34661.6,-0.7784,-0.8325,149.3,98.0,0.481
33.66,31763.0,34596.3,-1.0109,-0.9929,149.3,98.0,0.481
33.68,31823.4,34556.0,-0.7534,-1.092,149.3,98.0,0.481
33.7,31735.4,34466.0,-1.1289,-1.3135,149.3,98.0,0.481
33.72,31895.5,34510.3,-0.446,-1.2046,149.3,98.0,0.481
33.74,31888.5,34847.2,-0.4758,-0.3761,149.3,98.0,0.481
33.76,32120.6,35192.4,0.5138,0.4729,149.3,98.0,0.481
33.78,32206.1,35537.0,0.8784,1.3204,149.3,98.0,0.481
33.8,32387.2,35795.2,1.6503,1.9552,149.3,98.0,0.481
33.82,32403.4,35721.8,1.7195,1.7747,149.3,98.0,0.481
33.84,32198.0,35559.8,0.8437,1.3765,149.3,98.0,0.481
33.86,32159.0,35178.8,0.6773,0.4395,149.3,98.0,0.481
33.88,32101.5,35245.5,0.4322,0.6036,149.3,98.0,0.481
33.9,32023.5,35023.5,0.0995,0.0574,149.3,98.0,0.481
33.92,32106.4,35117.4,0.4532,0.2885,149.3,98.0,0.481
33.94,32008.5,34952.4,0.0356,-0.1173,149.3,98.0,0.481
33.96,31987.5,34862.4,-0.0538,-0.3387,149.3,98.0,0.481
33.98,31936.1,34730.5,-0.2728,-0.663,149.3,98.0,0.481
34.0,31825.6,34673.6,-0.7441,-0.803,149.3,98.0,0.481
34.02,31868.1,34652.1,-0.5628,-0.8558,149.3,98.0,0.481
34.04,31881.1,34636.7,-0.5077,-0.8936,149.3,98.0,0.481
34.06,31846.1,34560.1,-0.6568,-1.082,149.3,98.0,0.481
34.08,31797.7,34499.1,-0.863,-1.2322,149.3,98.0,0.481
34.1,31797.8,34501.8,-0.8626,-1.2255,149.3,98.0,0.481
34.12,31818.5,34469.4,-0.7744,-1.3052,149.3,98.0,0.481
34.14,31994.9,34792.4,-0.0223,-0.5107,149.3,98.0,0.481
34.16,32135.8,35214.0,0.5785,0.5261,149.3,98.0,0.481
34.18,32256.0,35560.8,1.0911,1.3789,149.3,98.0,0.481
34.2,32414.3,35735.8,1.7659,1.8091,149.3,98.0,0.481
34.22,32317.2,35694.2,1.352,1.7068,149.3,98.0,0.481
34.24,32252.1,35589.0,1.0742,1.4482,149.3,98.0,0.481
34.26,32192.1,35330.2,0.8187,0.8117,149.3,98.0,0.481
34.28,32131.1,35274.1,0.5584,0.6737,149.3,98.0,0.481
34.3,32084.7,35170.9,0.3606,0.4201,149.3,98.0,0.481
34.32,32003.0,35066.8,0.0122,0.1639,149.3,98.0,0.481
34.34,32074.5,34970.6,0.3171,-0.0726,149.3,98.0,0.481
34.36,31961.8,34982.1,-0.1633,-0.0444,149.3,98.0,0.481
34.38,31833.2,34851.3,-0.7119,-0.3661,149.3,98.0,0.481
34.4,31895.2,34687.3,-0.4474,-0.7692,149.3,98.0,0.481
34.42,31819.9,34694.7,-0.7686,-0.7511,149.3,98.0,0.481
34.44,31881.1,34604.5,-0.5075,-0.973,149.3,98.0,0.481
34.46,31836.6,34613.0,-0.6972,-0.952,149.3,98.0,0.481
34.48,31756.6,34524.5,-1.0382,-1.1697,149.3,98.0,0.481
34.5,31769.8,34546.1,-0.9821,-1.1164,149.3,98.0,0.481
34.52,31930.2,34525.5,-0.2981,-1.1671,149.3,98.0,0.481
34.54,31911.0,34717.8,-0.3801,-0.6942,149.3,98.0,0.481
34.56,32117.4,35099.2,0.5,0.2438,149.3,98.0,0.481
34.58,32180.3,35594.7,0.7684,1.4622,149.3,98.0,0.481
34.6,32354.1,35726.1,1.5091,1.7854,149.3,98.0,0.481
34.62,32352.4,35788.0,1.5021,1.9376,149.3,98.0,0.481
34.64,32296.7,35645.2,1.2646,1.5863,149.3,98.0,0.481
34.66,32128.0,35415.8,0.5451,1.0223,149.3,98.0,0.481
34.68,32062.3,35232.6,0.2651,0.5718,149.3,98.0,0.481
34.7,32037.0,35145.1,0.1574,0.3565,149.3,98.0,0.481
34.72,32072.2,35038.5,0.3074,0.0944,149.3,98.0,0.481
34.74,32080.0,35001.0,0.3404,0.0022,149.3,98.0,0.481
34.76,31940.3,34913.3,-0.255,-0.2136,149.3,98.0,0.481
34.78,32014.0,34743.6,0.0591,-0.6308,149.3,98.0,0.481
34.8,31843.2,34651.6,-0.669,-0.857,149.3,98.0,0.481
34.82,31891.3,34552.3,-0.4638,-1.1013,149.3,98.0,0.481
34.84,31930.1,34697.1,-0.2985,-0.7452,149.3,98.0,0.481
34.86,31855.8,34599.0,-0.6153,-0.9865,149.3,98.0,0.481
34.88,31835.2,34551.0,-0.703,-1.1045,149.3,98.0,0.481
34.9,31835.5,34439.3,-0.7019,-1.3792,149.3,98.0,0.481
34.92,31792.4,34554.7,-0.8856,-1.0952,149.3,98.0,0.481
34.94,31883.3,34702.7,-0.4981,-0.7313,149.3,98.0,0.481
34.96,32008.1,35154.2,0.034,0.379,149.3,98.0,0.481
34.98,32218.3,35466.1,0.9302,1.146,149.3,98.0,0.481
35.0,32358.2,35743.0,1.5269,1.8268,149.3,98.0,0.481
35.02,32370.7,35756.4,1.5802,1.86,149.3,98.0,0.481
35.04,32324.5,35555.7,1.3829,1.3662,149.3,98.0,0.481
35.06,32048.7,35385.9,0.2073,0.9487,149.3,98.0,0.481
35.08,32136.6,35157.4,0.5821,0.3867,149.3,98.0,0.481
35.1,32039.0,35088.0,0.1658,0.216,149.3,98.0,0.481
35.12,31977.7,35052.5,-0.0956,0.1288,149.3,98.0,0.481
35.14,32043.0,35001.4,0.1829,0.0032,149.3,98.0,0.481
35.16,31982.0,34994.9,-0.0771,-0.0127,149.3,98.0,0.481
35.18,31932.9,34797.6,-0.2865,-0.4981,149.3,98.0,0.481
35.2,31865.0,34702.3,-0.5762,-0.7324,149.3,98.0,0.481
35.22,31879.6,34681.9,-0.5139,-0.7825,149.3,98.0,0.481
35.24,31860.7,34711.0,-0.5944,-0.711,149.3,98.0,0.481
35.26,31814.7,34609.8,-0.7907,-0.9598,149.3,98.0,0.481
35.28,31691.3,34549.5,-1.3169,-1.108,149.3,98.0,0.481
35.3,31736.7,34566.8,-1.1234,-1.0655,149.3,98.0,0.481
35.32,31712.7,34526.8,-1.2255,-1.164,149.3,98.0,0.481
35.34,31829.8,34637.8,-0.7264,-0.891,149.3,98.0,0.481
35.36,32074.0,35101.8,0.3149,0.2501,149.3,98.0,0.481
35.38,32185.8,35500.5,0.7918,1.2306,149.3,98.0,0.481
35.4,32333.6,35670.4,1.4218,1.6482,149.3,98.0,0.481
35.42,32438.3,35831.3,1.8684,2.044,149.3,98.0,0.481
35.44,32316.7,35598.3,1.35,1.471,149.3,98.0,0.481
35.46,32193.5,35396.7,0.8245,0.9752,149.3,98.0,0.481
35.48,32039.5,35254.6,0.1679,0.6258,149.3,98.0,0.481
35.5,32120.6,35167.7,0.5137,0.4122,149.3,98.0,0.481
35.52,31970.8,35105.2,-0.1252,0.2584,149.3,98.0,0.481
35.54,32007.4,35041.5,0.0312,0.1018,149.3,98.0,0.481
35.56,32020.3,34898.7,0.0858,-0.2494,149.3,98.0,0.481
35.58,31885.1,34855.7,-0.4904,-0.3551,149.3,98.0,0.481
35.6,31837.6,34686.3,-0.6931,-0.7717,149.3,98.0,0.481
35.62,31837.2,34703.4,-0.6946,-0.7297,149.3,98.0,0.481
35.64,31842.9,34695.6,-0.6704,-0.7488,149.3,98.0,0.481
35.66,31852.0,34630.1,-0.6314,-0.91,149.3,98.0,0.481
35.68,31737.4,34480.8,-1.12,-1.277,149.3,98.0,0.481
35.7,31701.6,34460.6,-1.2728,-1.3267,149.3,98.0,0.481
35.72,31739.6,34506.7,-1.1106,-1.2134,149.3,98.0,0.481
35.74,31790.4,34689.9,-0.8943,-0.7629,149.3,98.0,0.481
35.76,32008.4,34998.6,0.0352,-0.0037,149.3,98.0,0.481
35.78,32191.5,35392.1,0.8158,0.9639,149.3,98.0,0.481
35.8,32285.4,35663.9,1.2162,1.6323,149.3,98.0,0.481
35.82,32341.3,35720.9,1.4546,1.7725,149.3,98.0,0.481
35.84,32219.7,35635.9,0.9361,1.5634,149.3,98.0,0.481
35.86,32263.5,35454.4,1.123,1.1171,149.3,98.0,0.481
35.88,32065.3,35295.6,0.2781,0.7267,149.3,98.0,0.481
35.9,32065.2,35107.3,0.2775,0.2636,149.3,98.0,0.481
35.92,32094.0,34992.7,0.4004,-0.0183,149.3,98.0,0.481
35.94,32044.1,35007.8,0.1876,0.0188,149.3,98.0,0.481
35.96,31916.3,34933.7,-0.3572,-0.1633,149.3,98.0,0.481
35.98,31929.2,34751.3,-0.3022,-0.6119,149.3,98.0,0.481
36.0,31847.0,34732.4,-0.653,-0.6583,149.3,98.0,0.481
36.02,31804.3,34565.5,-0.8351,-1.0688,149.3,98.0,0.481
36.04,31832.3,34638.6,-0.7154,-0.889,149.3,98.0,0.481
36.06,31881.3,34588.8,-0.5065,-1.0115,149.3,98.0,0.481
36.08,31796.2,34577.0,-0.8693,-1.0406,149.3,98.0,0.481
36.1,31740.6,34533.9,-1.1067,-1.1466,149.3,98.0,0.481
36.12,31831.2,34430.1,-0.7202,-1.4018,149.3,98.0,0.481
36.14,31918.3,34741.5,-0.3488,-0.6361,149.3,98.0,0.481
36.16,32013.5,34999.3,0.057,-0.002,149.3,98.0,0.481
36.18,32213.6,35220.8,0.9101,0.5428,149.3,98.0,0.481
36.2,32235.0,35766.3,1.0016,1.8841,149.3,98.0,0.481
36.22,32324.2,35740.9,1.3818,1.8218,149.3,98.0,0.481
36.24,32184.4,35739.9,0.7858,1.8192,149.3,98.0,0.481
36.26,32177.8,35505.2,0.7577,1.242,149.3,98.0,0.481
36.28,32117.8,35228.9,0.5019,0.5625,149.3,98.0,0.481
36.3,32137.8,35138.9,0.587,0.3412,149.3,98.0,0.481
36.32,32015.3,35117.7,0.0649,0.2891,149.3,98.0,0.481
36.34,32119.2,34990.3,0.5075,-0.0242,149.3,98.0,0.481
36.36,32014.5,34980.1,0.0613,-0.0491,149.3,98.0,0.481
36.38,31852.0,34819.9,-0.6318,-0.4432,149.3,98.0,0.481
36.4,31882.6,34741.0,-0.5012,-0.6373,149.3,98.0,0.481
36.42,31778.2,34617.7,-0.9461,-0.9404,149.3,98.0,0.481
36.44,31871.3,34757.0,-0.5494,-0.5978,149.3,98.0,0.481
36.46,31827.5,34649.2,-0.736,-0.863,149.3,98.0,0.481
36.48,31826.6,34551.2,-0.7397,-1.1039,149.3,98.0,0.481
36.5,31724.1,34488.0,-1.1768,-1.2593,149.3,98.0,0.481
36.52,31814.1,34506.6,-0.7931,-1.2136,149.3,98.0,0.481
36.54,31781.0,34697.0,-0.9341,-0.7455,149.3,98.0,0.481
36.56,32054.5,34884.2,0.2318,-0.2852,149.3,98.0,0.481
36.58,32092.3,35455.9,0.393,1.1209,149.3,98.0,0.481
36.6,32285.8,35628.0,1.2181,1.5441,149.3,98.0,0.481
36.62,32400.0,35766.4,1.7051,1.8844,149.3,98.0,0.481
36.64,32295.1,35715.1,1.2577,1.7583,149.3,98.0,0.481
36.66,32317.7,35484.2,1.3542,1.1903,149.3,98.0,0.481
36.68,32117.1,35344.2,0.4987,0.8461,149.3,98.0,0.481
36.7,32124.4,35171.2,0.5299,0.4206,149.3,98.0,0.481
36.72,32076.7,35097.5,0.3264,0.2395,149.3,98.0,0.481
36.74,32035.5,34909.6,0.1508,-0.2225,149.3,98.0,0.481
36.76,31993.1,35018.6,-0.0299,0.0455,149.3,98.0,0.481
36.78,31789.7,34850.1,-0.8972,-0.3689,149.3,98.0,0.481
36.8,31850.5,34720.1,-0.6379,-0.6885,149.3,98.0,0.481
36.82,31848.1,34666.6,-0.648,-0.8203,149.3,98.0,0.481
36.84,31863.9,34665.9,-0.5807,-0.8218,149.3,98.0,0.481
36.86,31896.7,34644.7,-0.4408,-0.8739,149.3,98.0,0.481
36.88,31690.3,34559.4,-1.3209,-1.0838,149.3,98.0,0.481
36.9,31717.0,34425.3,-1.207,-1.4136,149.3,98.0,0.481
36.92,31708.9,34400.3,-1.2415,-1.475,149.3,98.0,0.481
36.94,31737.9,34545.0,-1.1181,-1.1193,149.3,98.0,0.481
36.96,31911.2,34937.9,-0.3793,-0.153,149.3,98.0,0.481
36.98,32196.9,35316.7,0.8392,0.7785,149.3,98.0,0.481
37.0,32213.7,35589.2,0.9108,1.4486,149.3,98.0,0.481
37.02,32370.2,35718.1,1.5778,1.7658,149.3,98.0,0.481
37.04,32324.1,35691.1,1.3815,1.6993,149.3,98.0,0.481
37.06,32173.9,35401.4,0.7408,0.9868,149.3,98.0,0.481
37.08,32081.8,35230.3,0.3481,0.5661,149.3,98.0,0.481
37.1,32079.1,35262.5,0.3369,0.6453,149.3,98.0,0.481
37.12,32114.8,35176.4,0.4891,0.4334,149.3,98.0,0.481
37.14,31970.3,35147.0,-0.1271,0.3613,149.3,98.0,0.481
37.16,32030.0,34948.5,0.1273,-0.1269,149.3,98.0,0.481
37.18,31906.7,34820.7,-0.3982,-0.4412,149.3,98.0,0.481
37.2,31953.1,34737.1,-0.2003,-0.6468,149.3,98.0,0.481
37.22,31844.7,34581.2,-0.6626,-1.0302,149.3,98.0,0.481
37.24,31805.9,34667.0,-0.828,-0.8191,149.3,98.0,0.481
37.26,31817.5,34581.4,-0.7787,-1.0298,149.3,98.0,0.481
37.28,31813.5,34553.4,-0.7956,-1.0985,149.3,98.0,0.481
37.3,31789.9,34457.9,-0.8963,-1.3335,149.3,98.0,0.481
37.32,31783.2,34502.6,-0.9248,-1.2234,149.3,98.0,0.481
37.34,31831.9,34614.7,-0.7174,-0.9478,149.3,98.0,0.481
37.36,31974.6,34832.3,-0.1088,-0.4128,149.3,98.0,0.481
37.38,32058.3,35283.1,0.2479,0.6958,149.3,98.0,0.481
37.4,32278.5,35559.0,1.1868,1.3743,149.3,98.0,0.481
37.42,32306.2,35784.1,1.3049,1.9279,149.3,98.0,0.481
37.44,32264.1,35634.4,1.1254,1.5598,149.3,98.0,0.481
37.46,32137.6,35486.1,0.586,1.1951,149.3,98.0,0.481
37.48,32141.7,35313.0,0.6038,0.7694,149.3,98.0,0.481
37.5,32059.5,35146.5,0.2531,0.36,149.3,98.0,0.481
37.52,32073.0,35186.4,0.3107,0.4581,149.3,98.0,0.481
37.54,31930.8,35060.8,-0.2956,0.1492,149.3,98.0,0.481
37.56,32019.7,34876.7,0.0837,-0.3034,149.3,98.0,0.481
37.58,31975.0,34874.8,-0.1073,-0.3082,149.3,98.0,0.481
37.6,31940.1,34770.0,-0.256,-0.566,149.3,98.0,0.481
37.62,31989.5,34726.8,-0.0452,-0.6722,149.3,98.0,0.481
37.64,31960.3,34667.5,-0.1698,-0.818,149.3,98.0,0.481
37.66,31823.9,34562.6,-0.7514,-1.0759,149.3,98.0,0.481
37.68,31829.1,34633.9,-0.7294,-0.9007,149.3,98.0,0.481
37.7,31746.2,34538.2,-1.0828,-1.136,149.3,98.0,0.481
37.72,31795.3,34454.4,-0.8734,-1.3421,149.3,98.0,0.481
37.74,31751.3,34655.0,-1.0611,-0.8488,149.3,98.0,0.481
37.76,31923.3,34933.3,-0.3276,-0.1644,149.3,98.0,0.481
37.78,32095.5,35219.0,0.4066,0.5382,149.3,98.0,0.481
37.8,32207.1,35580.4,0.8827,1.4271,149.3,98.0,0.481
37.82,32355.1,35760.6,1.5134,1.8701,149.3,98.0,0.481
37.84,32291.4,35635.1,1.2418,1.5616,149.3,98.0,0.481
37.86,32248.0,35471.0,1.0571,1.1579,149.3,98.0,0.481
37.88,32206.1,35343.7,0.8783,0.845,149.3,98.0,0.481
37.9,32080.0,35257.6,0.3406,0.6332,149.3,98.0,0.481
37.92,32069.7,35162.6,0.2965,0.3997,149.3,98.0,0.481
37.94,31998.9,35083.4,-0.0052,0.2048,149.3,98.0,0.481
37.96,32028.6,34942.5,0.1216,-0.1418,149.3,98.0,0.481
37.98,31969.4,34821.1,-0.1308,-0.4402,149.3,98.0,0.481
38.0,31985.4,34728.9,-0.0629,-0.6669,149.3,98.0,0.481
38.02,31861.9,34667.6,-0.5895,-0.8176,149.3,98.0,0.481
38.04,31835.1,34591.1,-0.7038,-1.0057,149.3,98.0,0.481
38.06,31762.8,34749.0,-1.012,-0.6175,149.3,98.0,0.481
38.08,31844.8,34664.2,-0.6621,-0.8262,149.3,98.0,0.481
38.1,31768.9,34512.6,-0.9859,-1.1989,149.3,98.0,0.481
38.12,31724.7,34500.1,-1.1744,-1.2295,149.3,98.0,0.481
38.14,31804.5,34556.7,-0.834,-1.0903,149.3,98.0,0.481
38.16,31937.1,34783.6,-0.2687,-0.5324,149.3,98.0,0.481
38.18,32130.2,35255.4,0.5547,0.6277,149.3,98.0,0.481
38.2,32344.7,35622.3,1.4693,1.53,149.3,98.0,0.481
38.22,32329.3,35768.8,1.4037,1.8902,149.3,98.0,0.481
38.24,32344.4,35694.6,1.4679,1.7078,149.3,98.0,0.481
38.26,32203.3,35446.9,0.8663,1.0986,149.3,98.0,0.481
38.28,32152.2,35322.3,0.6483,0.7922,149.3,98.0,0.481
38.3,32122.0,35183.5,0.5197,0.4509,149.3,98.0,0.481
38.32,32030.8,35074.8,0.1309,0.1837,149.3,98.0,0.481
38.34,31960.5,35129.4,-0.1688,0.3178,149.3,98.0,0.481
38.36,31949.3,35044.5,-0.2168,0.1092,149.3,98.0,0.481
38.38,31999.6,34934.4,-0.0021,-0.1616,149.3,98.0,0.481
38.4,31900.9,34790.0,-0.4229,-0.5167,149.3,98.0,0.481
38.42,31959.7,34739.2,-0.1722,-0.6416,149.3,98.0,0.481
38.44,31872.5,34701.6,-0.5443,-0.734,149.3,98.0,0.481
38.46,31880.7,34704.1,-0.5091,-0.728,149.3,98.0,0.481
38.48,31817.9,34638.0,-0.7771,-0.8905,149.3,98.0,0.481
38.5,31835.6,34486.4,-0.7013,-1.2633,149.3,98.0,0.481
38.52,31719.9,34518.6,-1.1949,-1.1841,149.3,98.0,0.481
38.54,31739.2,34520.7,-1.1123,-1.179,149.3,98.0,0.481
38.56,31908.6,34827.8,-0.3901,-0.4238,149.3,98.0,0.481
38.58,32103.6,35088.7,0.4411,0.2178,149.3,98.0,0.481
38.6,32194.4,35526.6,0.8285,1.2946,149.3,98.0,0.481
38.62,32295.9,35785.3,1.2612,1.9309,149.3,98.0,0.481
38.64,32280.0,35742.9,1.1935,1.8267,149.3,98.0,0.481
38.66,32241.6,35554.5,1.0295,1.3633,149.3,98.0,0.481
38.68,32159.3,35375.6,0.6789,0.9233,149.3,98.0,0.481
38.7,32096.0,35213.0,0.4086,0.5235,149.3,98.0,0.481
38.72,32093.2,35095.1,0.3968,0.2335,149.3,98.0,0.481
38.74,31989.0,35134.3,-0.0476,0.33,149.3,98.0,0.481
38.76,32057.3,35007.4,0.2436,0.0179,149.3,98.0,0.481
38.78,31863.1,34822.3,-0.5842,-0.4374,149.3,98.0,0.481
38.8,31779.4,34696.3,-0.941,-0.7471,149.3,98.0,0.481
38.82,31800.1,34711.5,-0.8528,-0.7096,149.3,98.0,0.481
38.84,31873.7,34653.8,-0.539,-0.8517,149.3,98.0,0.481
38.86,31808.1,34566.6,-0.8186,-1.066,149.3,98.0,0.481
38.88,31888.6,34609.3,-0.4755,-0.961,149.3,98.0,0.481
38.9,31774.6,34551.4,-0.9616,-1.1036,149.3,98.0,0.481
38.92,31791.9,34404.0,-0.8877,-1.4659,149.3,98.0,0.481
38.94,31881.2,34532.0,-0.507,-1.1513,149.3,98.0,0.481
38.96,31985.6,34740.3,-0.062,-0.6388,149.3,98.0,0.481
38.98,32121.4,35096.0,0.5172,0.2358,149.3,98.0,0.481
39.0,32159.8,35534.6,0.681,1.3144,149.3,98.0,0.481
39.02,32276.2,35748.7,1.1773,1.8409,149.3,98.0,0.481
39.04,32342.8,35736.2,1.4609,1.8102,149.3,98.0,0.481
39.06,32268.8,35578.7,1.1455,1.423,149.3,98.0,0.481
39.08,32151.9,35417.7,0.6469,1.027,149.3,98.0,0.481
39.1,32135.9,35228.3,0.5789,0.5612,149.3,98.0,0.481
39.12,32007.7,35115.7,0.0325,0.2843,149.3,98.0,0.481
39.14,32086.4,35045.5,0.3678,0.1116,149.3,98.0,0.481
39.16,32022.1,34971.5,0.0935,-0.0705,149.3,98.0,0.481
39.18,31947.2,34956.9,-0.2256,-0.1062,149.3,98.0,0.481
39.2,31931.7,34817.5,-0.2918,-0.449,149.3,98.0,0.481
39.22,31834.4,34646.5,-0.7065,-0.8696,149.3,98.0,0.481
39.24,31827.0,34609.4,-0.7381,-0.9609,149.3,98.0,0.481
39.26,31789.8,34629.4,-0.897,-0.9116,149.3,98.0,0.481
39.28,31850.1,34557.8,-0.6398,-1.0878,149.3,98.0,0.481
39.3,31778.6,34517.5,-0.9445,-1.1868,149.3,98.0,0.481
39.32,31698.1,34440.1,-1.2876,-1.3772,149.3,98.0,0.481
39.34,31796.0,34446.2,-0.8705,-1.3621,149.3,98.0,0.481
39.36,31944.1,34654.1,-0.2389,-0.851,149.3,98.0,0.481
39.38,31989.5,35034.1,-0.0455,0.0836,149.3,98.0,0.481
39.4,32184.5,35489.6,0.7861,1.2038,149.3,98.0,0.481
39.42,32402.9,35741.7,1.7172,1.8237,149.3,98.0,0.481
39.44,32271.1,35733.1,1.1552,1.8025,149.3,98.0,0.481
39.46,32321.3,35615.4,1.3696,1.5132,149.3,98.0,0.481
39.48,32223.1,35433.2,0.9506,1.0651,149.3,98.0,0.481
39.5,32132.0,35191.5,0.5624,0.4706,149.3,98.0,0.481
39.52,32019.6,35047.0,0.0833,0.1152,149.3,98.0,0.481
39.54,32086.8,35060.3,0.3696,0.148,149.3,98.0,0.481
39.56,31972.5,34905.1,-0.1177,-0.2337,149.3,98.0,0.481
39.58,31893.1,35047.5,-0.4564,0.1166,149.3,98.0,0.481
39.6,31893.3,34768.2,-0.4555,-0.5702,149.3,98.0,0.481
39.62,31901.9,34735.8,-0.4187,-0.6501,149.3,98.0,0.481
39.64,31871.3,34691.5,-0.5494,-0.7588,149.3,98.0,0.481
39.66,31767.3,34688.5,-0.9926,-0.7663,149.3,98.0,0.481
39.68,31760.7,34587.6,-1.0207,-1.0144,149.3,98.0,0.481
39.7,31797.1,34527.0,-0.8656,-1.1635,149.3,98.0,0.481
39.72,31735.3,34438.0,-1.129,-1.3824,149.3,98.0,0.481
39.74,31803.9,34535.4,-0.8367,-1.1427,149.3,98.0,0.481
39.76,31973.4,34755.6,-0.1138,-0.6013,149.3,98.0,0.481
39.78,32011.7,35095.9,0.0493,0.2357,149.3,98.0,0.481
39.8,32231.8,35418.5,0.9877,1.0288,149.3,98.0,0.481
39.82,32225.1,35605.8,0.9591,1.4894,149.3,98.0,0.481
39.84,32424.6,35761.3,1.8098,1.872,149.3,98.0,0.481
39.86,32316.2,35711.6,1.3476,1.7497,149.3,98.0,0.481
39.88,32139.1,35450.2,0.5925,1.1068,149.3,98.0,0.481
39.9,32131.2,35260.5,0.5589,0.6404,149.3,98.0,0.481
39.92,32178.9,35171.3,0.7622,0.4209,149.3,98.0,0.481
39.94,32155.3,35095.2,0.6617,0.2339,149.3,98.0,0.481
39.96,32054.9,35042.6,0.2334,0.1045,149.3,98.0,0.481
39.98,31961.8,34987.1,-0.1634,-0.032,149.3,98.0,0.481
40.0,31832.9,34881.5,-0.7131,-0.2918,149.3,98.0,0.481
40.02,31876.8,34719.2,-0.5257,-0.6908,149.3,98.0,0.481
40.04,31827.0,34645.0,-0.738,-0.8732,149.3,98.0,0.482
40.06,31887.1,34617.1,-0.4817,-0.942,149.2,97.9,0.482
40.08,31817.2,34581.2,-0.7801,-1.0302,149.2,97.9,0.483
40.1,31746.6,34508.9,-1.0811,-1.208,149.2,97.9,0.483
40.12,31676.3,34471.0,-1.3808,-1.3012,149.2,97.9,0.484
40.14,31697.6,34516.2,-1.2897,-1.1902,149.2,97.9,0.484
40.16,31854.7,34679.4,-0.6202,-0.7887,149.1,97.9,0.485
40.18,32077.4,35002.0,0.3293,0.0045,149.1,97.9,0.485
40.2,32143.8,35470.4,0.6127,1.1566,149.1,97.9,0.486
40.22,32278.6,35752.0,1.1873,1.849,149.1,97.8,0.486
40.24,32252.4,35729.0,1.0757,1.7923,149.1,97.8,0.487
40.26,32289.1,35690.3,1.2319,1.6974,149.0,97.8,0.487
40.28,32161.0,35464.4,0.6859,1.1418,149.0,97.8,0.488
40.3,32131.8,35259.9,0.5615,0.6389,149.0,97.8,0.488
40.32,32019.1,35109.1,0.0811,0.268,149.0,97.8,0.489
40.34,32039.5,35054.9,0.1677,0.1346,149.0,97.8,0.489
40.36,31917.1,35007.2,-0.3541,0.0175,148.9,97.8,0.49
40.38,32022.5,34874.2,0.0954,-0.3097,148.9,97.7,0.49
40.4,31938.5,34771.4,-0.2627,-0.5625,148.9,97.7,0.491
40.42,31868.0,34747.9,-0.5634,-0.6201,148.9,97.7,0.492
40.44,31808.1,34618.0,-0.8189,-0.9397,148.9,97.7,0.492
40.46,31864.9,34700.0,-0.5768,-0.738,148.8,97.7,0.493
40.48,31834.7,34582.0,-0.7055,-1.0281,148.8,97.7,0.493
40.5,31722.9,34587.7,-1.1821,-1.0143,148.8,97.7,0.494
40.52,31714.6,34542.0,-1.2176,-1.1266,148.8,97.6,0.494
40.54,31773.0,34467.6,-0.9684,-1.3095,148.8,97.6,0.495
40.56,31726.6,34733.2,-1.166,-0.6563,148.7,97.6,0.495
40.58,31973.2,35046.2,-0.1148,0.1134,148.7,97.6,0.496
40.6,32203.2,35425.3,0.8661,1.0456,148.7,97.6,0.496
40.62,32255.6,35617.8,1.0892,1.5191,148.7,97.6,0.497
40.64,32268.5,35797.7,1.1441,1.9614,148.7,97.6,0.497
40.66,32336.4,35616.6,1.4339,1.5161,148.6,97.6,0.498
40.68,32295.7,35502.3,1.2604,1.2351,148.6,97.5,0.498
40.7,32059.1,35299.1,0.2514,0.7354,148.6,97.5,0.499
40.72,32003.2,35223.0,0.0133,0.548,148.6,97.5,0.499
40.74,32003.8,35027.1,0.0157,0.0664,148.6,97.5,0.5
40.76,32052.8,35065.0,0.2247,0.1596,148.5,97.5,0.5
40.78,31889.9,34907.7,-0.47,-0.2272,148.5,97.5,0.501
40.8,31973.3,34792.1,-0.1144,-0.5116,148.5,97.5,0.501
40.82,31886.5,34805.9,-0.4845,-0.4777,148.5,97.5,0.502
40.84,31875.6,34651.1,-0.5308,-0.8584,148.5,97.4,0.502
40.86,31896.2,34673.9,-0.4429,-0.8023,148.4,97.4,0.503
40.88,31897.8,34596.6,-0.4365,-0.9923,148.4,97.4,0.503
40.9,31709.1,34585.5,-1.2407,-1.0195,148.4,97.4,0.504
40.92,31723.1,34433.4,-1.1809,-1.3936,148.4,97.4,0.504
40.94,31772.5,34551.3,-0.9706,-1.1037,148.4,97.4,0.505
40.96,31800.2,34543.4,-0.8522,-1.1232,148.3,97.4,0.505
40.98,31988.5,34902.2,-0.0494,-0.2408,148.3,97.4,0.506
41.0,32165.9,35300.6,0.7066,0.7389,148.3,97.3,0.506
41.02,32280.6,35532.6,1.196,1.3094,148.3,97.3,0.507
41.04,32304.5,35772.2,1.2977,1.8987,148.3,97.3,0.507
41.06,32311.7,35663.6,1.3286,1.6317,148.2,97.3,0.508
41.08,32273.7,35503.2,1.1664,1.2372,148.2,97.3,0.508
41.1,32144.9,35373.7,0.6173,0.9187,148.2,97.3,0.509
41.12,32079.6,35140.5,0.3391,0.3453,148.2,97.3,0.509
41.14,32069.3,35157.8,0.2948,0.3878,148.2,97.3,0.51
41.16,32007.2,35088.8,0.0304,0.2182,148.1,97.2,0.51
41.18,32061.4,34935.9,0.2612,-0.1579,148.1,97.2,0.511
41.2,31884.6,34914.9,-0.4926,-0.2096,148.1,97.2,0.511
41.22,31971.7,34727.9,-0.121,-0.6695,148.1,97.2,0.512
41.24,31792.1,34616.5,-0.8868,-0.9435,148.1,97.2,0.512
41.26,31851.9,34724.6,-0.6322,-0.6775,148.0,97.2,0.513
41.28,31929.0,34662.4,-0.3034,-0.8305,148.0,97.2,0.513
41.3,31856.5,34643.6,-0.6122,-0.8767,148.0,97.2,0.514
41.32,31830.1,34531.6,-0.7251,-1.1521,148.0,97.1,0.514
41.34,31860.1,34434.0,-0.5968,-1.3921,148.0,97.1,0.515
41.36,31807.6,34545.9,-0.8207,-1.1171,147.9,97.1,0.515
41.38,31942.3,34794.4,-0.2465,-0.5059,147.9,97.1,0.516
41.4,32082.6,35164.5,0.3519,0.4044,147.9,97.1,0.516
41.42,32241.3,35514.4,1.0282,1.2647,147.9,97.1,0.517
41.44,32373.8,35819.7,1.5931,2.0155,147.9,97.1,0.517
41.46,32371.6,35811.0,1.5839,1.9941,147.8,97.1,0.518
41.48,32254.0,35511.2,1.0825,1.257,147.8,97.0,0.518
41.5,32179.1,35311.3,0.7631,0.7651,147.8,97.0,0.519
41.52,32127.7,35140.0,0.5441,0.3439,147.8,97.0,0.52
41.54,32164.2,35083.4,0.6995,0.2048,147.8,97.0,0.52
41.56,31946.9,35080.7,-0.2268,0.1982,147.7,97.0,0.521
41.58,32060.2,35020.6,0.256,0.0503,147.7,97.0,0.521
41.6,31962.9,34915.0,-0.1588,-0.2093,147.7,97.0,0.522
41.62,31907.7,34779.5,-0.3941,-0.5425,147.7,96.9,0.522
41.64,31906.8,34726.8,-0.3977,-0.6721,147.7,96.9,0.523
41.66,31847.3,34635.8,-0.6514,-0.896,147.6,96.9,0.523
41.68,31854.9,34638.9,-0.6192,-0.8884,147.6,96.9,0.524
41.7,31900.4,34669.1,-0.425,-0.8141,147.6,96.9,0.524
41.72,31827.9,34528.0,-0.7341,-1.1609,147.6,96.9,0.525
41.74,31717.1,34488.9,-1.2069,-1.2571,147.6,96.9,0.525
41.76,31792.5,34464.1,-0.8854,-1.318,147.5,96.9,0.526
41.78,31835.4,34794.9,-0.7022,-0.5047,147.5,96.8,0.526
41.8,32042.8,35052.8,0.1819,0.1296,147.5,96.8,0.527
41.82,32191.0,35456.0,0.814,1.1211,147.5,96.8,0.527
41.84,32381.1,35706.0,1.6245,1.736,147.5,96.8,0.528
41.86,32389.0,35730.6,1.6579,1.7963,147.4,96.8,0.528
41.88,32410.6,35646.8,1.75,1.5904,147.4,96.8,0.529
41.9,32232.8,35410.5,0.9919,1.0093,147.4,96.8,0.529
41.92,32111.5,35217.2,0.4747,0.5339,147.4,96.8,0.53
41.94,32018.0,35113.2,0.0761,0.2781,147.4,96.7,0.53
41.96,32002.6,35038.0,0.0107,0.0931,147.3,96.7,0.531
41.98,32036.7,35040.2,0.156,0.0987,147.3,96.7,0.531
42.0,32070.1,34928.8,0.2983,-0.1754,147.3,96.7,0.532
42.02,31918.5,34738.4,-0.3481,-0.6437,147.3,96.7,0.532
42.04,31853.1,34621.4,-0.627,-0.9313,147.3,96.7,0.533
42.06,31854.4,34689.4,-0.6212,-0.7641,147.2,96.7,0.533
42.08,31804.1,34596.0,-0.8356,-0.9939,147.2,96.7,0.534
42.1,31753.8,34603.7,-1.0503,-0.9749,147.2,96.6,0.534
42.12,31720.0,34693.5,-1.1945,-0.7541,147.2,96.6,0.535
42.14,31670.9,34448.6,-1.4036,-1.3562,147.2,96.6,0.535
42.16,31639.0,34463.8,-1.5396,-1.3189,147.1,96.6,0.536
42.18,31705.2,34608.0,-1.2576,-0.9643,147.1,96.6,0.536
42.2,31911.5,34895.9,-0.3776,-0.2564,147.1,96.6,0.537
42.22,32104.0,35301.7,0.443,0.7417,147.1,96.6,0.537
42.24,32284.9,35637.4,1.2144,1.5671,147.1,96.6,0.538
42.26,32420.7,35764.3,1.7931,1.8792,147.0,96.5,0.538
42.28,32402.8,35691.2,1.7169,1.6995,147.0,96.5,0.539
42.3,32260.9,35479.5,1.1119,1.1789,147.0,96.5,0.539
42.32,32105.4,35309.0,0.4491,0.7596,147.0,96.5,0.54
42.34,32139.3,35130.9,0.5936,0.3216,147.0,96.5,0.54
42.36,32046.2,35091.5,0.1963,0.2248,146.9,96.5,0.541
42.38,32019.0,35033.9,0.0805,0.0832,146.9,96.5,0.541
42.4,32007.2,34871.1,0.0303,-0.3172,146.9,96.5,0.542
42.42,31959.1,34911.6,-0.1751,-0.2176,146.9,96.4,0.542
42.44,31874.8,34772.5,-0.5342,-0.5597,146.9,96.4,0.543
42.46,31820.6,34687.2,-0.7652,-0.7696,146.8,96.4,0.543
42.48,31842.5,34619.0,-0.672,-0.9371,146.8,96.4,0.544
42.5,31844.6,34691.5,-0.6631,-0.7588,146.8,96.4,0.544
42.52,31747.9,34579.6,-1.0754,-1.034,146.8,96.4,0.545
42.54,31801.5,34498.4,-0.8469,-1.2337,146.8,96.4,0.545
42.56,31641.5,34479.1,-1.529,-1.2813,146.7,96.4,0.546
42.58,31732.7,34558.3,-1.1403,-1.0865,146.7,96.3,0.546
42.6,31821.8,34646.7,-0.7603,-0.8692,146.7,96.3,0.547
42.62,32065.2,35086.8,0.2777,0.2131,146.7,96.3,0.548
42.64,32257.7,35496.7,1.0984,1.2212,146.7,96.3,0.548
42.66,32377.7,35709.6,1.6097,1.7448,146.6,96.3,0.549
42.68,32409.0,35768.0,1.7432,1.8884,146.6,96.3,0.549
42.7,32279.2,35618.5,1.1899,1.5207,146.6,96.3,0.55
42.72,32175.1,35480.7,0.7461,1.1819,146.6,96.2,0.55
42.74,32107.7,35291.7,0.4588,0.717,146.6,96.2,0.551
42.76,32093.8,35193.5,0.3995,0.4756,146.5,96.2,0.551
42.78,32055.0,35075.2,0.2339,0.1847,146.5,96.2,0.552
42.8,32024.6,35005.6,0.1045,0.0134,146.5,96.2,0.552
42.82,31960.1,34895.3,-0.1708,-0.2577,146.5,96.2,0.553
42.84,31932.8,34856.2,-0.2869,-0.354,146.5,96.2,0.553
42.86,31874.5,34697.2,-0.5356,-0.745,146.4,96.2,0.554
42.88,31841.2,34782.1,-0.6775,-0.5362,146.4,96.1,0.554
42.9,31837.8,34665.6,-0.692,-0.8227,146.4,96.1,0.555
42.92,31757.4,34623.2,-1.0348,-0.9269,146.4,96.1,0.555
42.94,31762.1,34608.1,-1.0148,-0.964,146.4,96.1,0.556
42.96,31665.4,34396.7,-1.4272,-1.4838,146.3,96.1,0.556
42.98,31679.5,34425.9,-1.367,-1.4122,146.3,96.1,0.557
43.0,31820.9,34729.1,-0.7643,-0.6665,146.3,96.1,0.557
43.02,31949.0,34950.9,-0.2179,-0.1209,146.3,96.1,0.558
43.04,32189.6,35311.7,0.808,0.7663,146.3,96.0,0.558
43.06,32303.9,35545.1,1.2951,1.3401,146.2,96.0,0.559
43.08,32401.1,35812.9,1.7097,1.9988,146.2,96.0,0.559
43.1,32399.7,35727.7,1.7038,1.7893,146.2,96.0,0.56
43.12,32266.4,35512.2,1.1354,1.2593,146.2,96.0,0.56
43.14,32117.0,35313.9,0.4981,0.7716,146.2,96.0,0.561
43.16,32000.0,35147.5,-0.0003,0.3626,146.1,96.0,0.561
43.18,31999.1,35135.6,-0.0045,0.3332,146.1,96.0,0.562
43.2,32004.1,35035.2,0.017,0.0862,146.1,95.9,0.562
43.22,32047.4,34952.4,0.2017,-0.1172,146.1,95.9,0.563
43.24,31953.0,34802.3,-0.2011,-0.4864,146.1,95.9,0.563
43.26,31882.3,34726.4,-0.5022,-0.6731,146.0,95.9,0.564
43.28,31911.0,34604.0,-0.38,-0.974,146.0,95.9,0.564
43.3,31850.2,34709.3,-0.6393,-0.7153,146.0,95.9,0.565
43.32,31791.8,34689.8,-0.888,-0.763,146.0,95.9,0.565
43.34,31742.8,34594.9,-1.0972,-0.9965,146.0,95.9,0.566
43.36,31704.8,34527.3,-1.2594,-1.1626,145.9,95.8,0.566
43.38,31766.8,34460.9,-0.9948,-1.3261,145.9,95.8,0.567
43.4,31867.4,34453.9,-0.5657,-1.3433,145.9,95.8,0.567
43.42,31805.1,34814.5,-0.8317,-0.4565,145.9,95.8,0.568
43.44,32071.2,35054.1,0.3029,0.1328,145.9,95.8,0.568
43.46,32301.8,35473.9,1.2864,1.1651,145.8,95.8,0.569
43.48,32372.4,35684.9,1.5871,1.6839,145.8,95.8,0.569
43.5,32337.2,35725.9,1.4371,1.7848,145.8,95.8,0.57
43.52,32209.5,35583.1,0.8926,1.4336,145.8,95.7,0.57
43.54,32189.7,35495.7,0.8085,1.2188,145.8,95.7,0.571
43.56,32113.2,35202.3,0.4821,0.4971,145.7,95.7,0.571
43.58,32113.5,35061.7,0.4834,0.1515,145.7,95.7,0.572
43.6,31973.3,35106.8,-0.1143,0.2624,145.7,95.7,0.572
43.62,32027.5,34953.3,0.1166,-0.115,145.7,95.7,0.573
43.64,31967.0,34907.9,-0.1414,-0.2267,145.7,95.7,0.573
43.66,31844.1,34825.1,-0.6653,-0.4303,145.6,95.7,0.574
43.68,31872.1,34717.8,-0.546,-0.6942,145.6,95.6,0.574
43.7,31898.4,34545.5,-0.4335,-1.1181,145.6,95.6,0.575
43.72,31792.1,34631.5,-0.887,-0.9065,145.6,95.6,0.576
43.74,31806.5,34558.6,-0.8257,-1.0858,145.6,95.6,0.576
43.76,31666.6,34564.9,-1.4219,-1.0702,145.5,95.6,0.577
43.78,31690.2,34532.9,-1.3215,-1.1489,145.5,95.6,0.577
43.8,31655.3,34418.1,-1.47,-1.4313,145.5,95.6,0.578
43.82,31865.3,34692.7,-0.5749,-0.7561,145.5,95.5,0.578
43.84,31962.4,34950.0,-0.1607,-0.1232,145.5,95.5,0.579
43.86,32133.8,35375.4,0.5699,0.9228,145.4,95.5,0.579
43.88,32333.6,35643.3,1.4219,1.5817,145.4,95.5,0.58
43.9,32386.6,35743.2,1.648,1.8275,145.4,95.5,0.58
43.92,32308.5,35540.4,1.315,1.3287,145.4,95.5,0.581
43.94,32276.5,35419.3,1.1783,1.0308,145.4,95.5,0.581
43.96,32104.1,35279.8,0.4431,0.6877,145.3,95.5,0.582
43.98,32096.1,35214.5,0.4093,0.5272,145.3,95.4,0.582
44.0,32015.1,35072.4,0.0637,0.1778,145.3,95.4,0.583
44.02,32137.0,35054.1,0.5836,0.1327,145.3,95.4,0.583
44.04,31945.3,34974.0,-0.2338,-0.0642,145.3,95.4,0.584
44.06,31966.9,34834.4,-0.1418,-0.4076,145.2,95.4,0.584
44.08,31932.7,34785.1,-0.2877,-0.5288,145.2,95.4,0.585
44.1,31922.8,34700.6,-0.3299,-0.7366,145.2,95.4,0.585
44.12,31844.0,34662.8,-0.6659,-0.8295,145.2,95.4,0.586
44.14,31832.9,34574.4,-0.7128,-1.0468,145.2,95.3,0.586
44.16,31774.9,34678.8,-0.9604,-0.7901,145.1,95.3,0.587
44.18,31672.8,34578.6,-1.3957,-1.0366,145.1,95.3,0.587
44.2,31757.2,34462.0,-1.0358,-1.3232,145.1,95.3,0.588
44.22,31704.4,34502.3,-1.261,-1.2243,145.1,95.3,0.588
44.24,31803.7,34770.6,-0.8375,-0.5645,145.1,95.3,0.589
44.26,32073.8,35069.7,0.3141,0.1711,145.0,95.3,0.589
44.28,32248.6,35455.1,1.0595,1.1188,145.0,95.3,0.59
44.3,32404.6,35608.6,1.7245,1.4964,145.0,95.2,0.59
44.32,32316.5,35812.5,1.3489,1.9979,145.0,95.2,0.591
44.34,32371.3,35601.3,1.5824,1.4784,145.0,95.2,0.591
44.36,32279.6,35475.1,1.1915,1.1681,144.9,95.2,0.592
44.38,32155.2,35304.3,0.6611,0.748,144.9,95.2,0.592
44.4,32087.9,35073.2,0.3743,0.1798,144.9,95.2,0.593
44.42,31997.6,35112.8,-0.0109,0.277,144.9,95.2,0.593
44.44,31992.4,35075.1,-0.033,0.1844,144.9,95.2,0.594
44.46,31972.1,34883.0,-0.1194,-0.288,144.8,95.1,0.594
44.48,31876.6,34859.5,-0.5267,-0.3457,144.8,95.1,0.595
44.5,31828.6,34857.7,-0.7312,-0.3502,144.8,95.1,0.595
44.52,31806.8,34716.2,-0.8242,-0.6983,144.8,95.1,0.596
44.54,31784.2,34648.1,-0.9208,-0.8656,144.8,95.1,0.596
44.56,31787.9,34583.5,-0.9049,-1.0245,144.7,95.1,0.597
44.58,31738.7,34518.5,-1.1147,-1.1843,144.7,95.1,0.597
44.6,31640.6,34471.3,-1.5329,-1.3004,144.7,95.1,0.598
44.62,31652.6,34482.0,-1.4816,-1.274,144.7,95.0,0.598
44.64,31724.0,34360.6,-1.1774,-1.5728,144.7,95.0,0.599
44.66,31891.4,34792.7,-0.4634,-0.5102,144.6,95.0,0.599
44.68,32127.7,35091.1,0.5439,0.2237,144.6,95.0,0.6
44.7,32291.8,35464.4,1.2436,1.1418,144.6,95.0,0.6
44.72,32406.0,35700.0,1.7305,1.7212,144.6,95.0,0.601
44.74,32422.9,35641.1,1.8026,1.5762,144.6,95.0,0.601
44.76,32385.5,35577.1,1.6433,1.419,144.5,95.0,0.602
44.78,32286.1,35407.8,1.2192,1.0025,144.5,94.9,0.602
44.8,32129.5,35286.8,0.5515,0.705,144.5,94.9,0.603
44.82,32077.6,35183.3,0.3304,0.4505,144.5,94.9,0.604
44.84,32001.0,35029.8,0.0037,0.073,144.5,94.9,0.604
44.86,32063.0,35016.5,0.268,0.0402,144.4,94.9,0.605
44.88,31963.4,34890.9,-0.1566,-0.2685,144.4,94.9,0.605
