timestamp,raw_red,raw_ir,filtered_red,filtered_ir,heart_rate,spo2,ac_dc_ratio
0.0,32123.7,35128.8,0.604,0.3124,146.9,96.6,0.536
0.02,32260.0,35550.4,1.2701,1.3487,146.9,96.6,0.536
0.04,32273.2,35703.0,1.3344,1.7239,146.9,96.6,0.536
0.06,32400.4,35752.0,1.9559,1.8443,146.9,96.6,0.536
0.08,32221.1,35667.7,1.08,1.6371,146.9,96.6,0.536
0.1,32207.9,35356.8,1.0157,0.8729,146.9,96.6,0.536
0.12,32127.4,35119.1,0.6224,0.2885,146.9,96.6,0.536
0.14,32078.3,35133.6,0.3822,0.3242,146.9,96.6,0.536
0.16,32142.4,35084.3,0.6956,0.2029,146.9,96.6,0.536
0.18,31983.9,35019.8,-0.079,0.0444,146.9,96.6,0.536
0.2,31933.3,34894.8,-0.3263,-0.2629,146.9,96.6,0.536
0.22,31897.5,34745.4,-0.5012,-0.6301,146.9,96.6,0.536
0.24,31786.0,34714.1,-1.0459,-0.707,146.9,96.6,0.536
0.26,31822.7,34797.3,-0.8665,-0.5024,146.9,96.6,0.536
0.28,31788.5,34647.0,-1.0338,-0.872,146.9,96.6,0.536
0.3,31805.5,34633.0,-0.9505,-0.9065,146.9,96.6,0.536
0.32,31741.2,34506.1,-1.2649,-1.2184,146.9,96.6,0.536
0.34,31767.1,34430.2,-1.1381,-1.4051,146.9,96.6,0.536
0.36,31679.3,34449.5,-1.5671,-1.3575,146.9,96.6,0.536
0.38,31874.4,34670.6,-0.614,-0.8139,146.9,96.6,0.536
0.4,32105.3,34991.7,0.5141,-0.0247,146.9,96.6,0.536
0.42,32253.6,35405.1,1.239,0.9916,146.9,96.6,0.536
0.44,32243.9,35596.9,1.1916,1.463,146.9,96.6,0.536
0.46,32364.8,35762.4,1.7822,1.87,146.9,96.6,0.536
0.48,32381.8,35618.3,1.8651,1.5157,146.9,96.6,0.536
0.5,32207.2,35410.7,1.0121,1.0053,146.9,96.6,0.536
0.52,32159.8,35240.9,0.7806,0.588,146.9,96.6,0.536
0.54,32060.5,35086.6,0.2953,0.2086,146.9,96.6,0.536
0.56,32117.0,34941.0,0.5716,-0.1493,146.9,96.6,0.536
0.58,31909.7,35102.0,-0.4414,0.2464,146.9,96.6,0.536
0.6,31959.3,34938.7,-0.1993,-0.155,146.9,96.6,0.536
0.62,31987.0,34772.7,-0.0637,-0.5631,146.9,96.6,0.536
0.64,31823.1,34773.1,-0.8648,-0.5621,146.9,96.6,0.536
0.66,31928.3,34725.3,-0.3507,-0.6796,146.9,96.6,0.536
0.68,31858.1,34689.7,-0.6935,-0.767,146.9,96.6,0.536
0.7,31941.9,34630.1,-0.284,-0.9135,146.9,96.6,0.536
0.72,31802.3,34525.2,-0.966,-1.1716,146.9,96.6,0.536
0.74,31753.2,34473.6,-1.2061,-1.2984,146.9,96.6,0.536
0.76,31732.7,34460.3,-1.3065,-1.3311,146.9,96.6,0.536
0.78,31763.6,34624.0,-1.1552,-0.9286,146.9,96.6,0.536
0.8,31875.4,34798.8,-0.6089,-0.4988,146.9,96.6,0.536
0.82,32114.2,35223.9,0.5579,0.5462,146.9,96.6,0.536
0.84,32257.9,35506.2,1.26,1.2401,146.9,96.6,0.536
0.86,32304.3,35862.1,1.4863,2.115,146.9,96.6,0.536
0.88,32417.0,35667.7,2.0372,1.6371,146.9,96.6,0.536
0.9,32307.6,35584.7,1.5027,1.4331,146.9,96.6,0.536
0.92,32149.3,35331.0,0.7291,0.8093,146.9,96.6,0.536
0.94,32096.8,35157.2,0.4726,0.3821,146.9,96.6,0.536
0.96,31938.6,35227.0,-0.3001,0.5538,146.9,96.6,0.536
0.98,31996.1,35045.1,-0.0192,0.1066,146.9,96.6,0.536
1.0,31978.6,34939.3,-0.105,-0.1534,146.9,96.6,0.536
1.02,31858.8,34840.7,-0.6903,-0.396,146.9,96.6,0.536
1.04,31894.3,34771.5,-0.5166,-0.5659,146.9,96.6,0.536
1.06,31811.3,34669.0,-0.9221,-0.818,146.9,96.6,0.536
1.08,31840.4,34651.4,-0.7799,-0.8611,146.9,96.6,0.536
1.1,31794.2,34624.7,-1.0056,-0.9269,146.9,96.6,0.536
1.12,31871.8,34625.5,-0.6264,-0.9249,146.9,96.6,0.536
1.14,31705.3,34514.2,-1.44,-1.1984,146.9,96.6,0.536
1.16,31688.1,34405.3,-1.5243,-1.4661,146.9,96.6,0.536
1.18,31815.3,34427.4,-0.9027,-1.4118,146.9,96.6,0.536
1.2,31862.3,34676.7,-0.6731,-0.7991,146.9,96.6,0.536
1.22,32060.1,35042.8,0.2933,0.1009,146.9,96.6,0.536
1.24,32245.9,35580.8,1.201,1.4234,146.9,96.6,0.536
1.26,32385.6,35662.1,1.8839,1.6233,146.9,96.6,0.536
1.28,32360.4,35763.5,1.7606,1.8728,146.9,96.6,0.536
1.3,32312.7,35687.3,1.5278,1.6853,146.9,96.6,0.536
1.32,32164.0,35405.0,0.8009,0.9914,146.9,96.6,0.536
1.34,32136.1,35259.2,0.6649,0.633,146.9,96.6,0.536
1.36,31952.6,35208.4,-0.232,0.508,146.9,96.6,0.536
1.38,32037.0,35031.1,0.1803,0.0722,146.9,96.6,0.536
1.4,32013.1,35062.9,0.0639,0.1503,146.9,96.6,0.536
1.42,31871.1,35009.0,-0.6302,0.0178,146.9,96.6,0.536
1.44,31879.3,34881.7,-0.59,-0.295,146.9,96.6,0.536
1.46,31938.5,34724.3,-0.301,-0.682,146.9,96.6,0.536
1.48,31947.0,34633.6,-0.2594,-0.905,146.9,96.6,0.536
1.5,31756.8,34639.8,-1.1887,-0.8898,146.9,96.6,0.536
1.52,31854.6,34654.8,-0.7109,-0.8528,146.9,96.6,0.536
1.54,31843.0,34553.5,-0.7673,-1.1018,146.9,96.6,0.536
1.56,31793.2,34450.0,-1.0108,-1.3563,146.9,96.6,0.536
1.58,31749.1,34507.8,-1.2263,-1.2142,146.9,96.6,0.536
1.6,31785.1,34528.2,-1.05,-1.1641,146.9,96.6,0.536
1.62,31931.4,34932.1,-0.3357,-0.1713,146.9,96.6,0.536
1.64,32257.8,35209.8,1.2595,0.5116,146.9,96.6,0.536
1.66,32324.8,35608.7,1.5868,1.4921,146.9,96.6,0.536
1.68,32364.9,35749.2,1.7824,1.8374,146.9,96.6,0.536
1.7,32299.0,35775.3,1.4607,1.9017,146.9,96.6,0.536
1.72,32283.6,35517.5,1.3855,1.268,146.9,96.6,0.536
1.74,32235.6,35321.2,1.1508,0.7853,146.9,96.6,0.536
1.76,32033.6,35098.6,0.164,0.2381,146.9,96.6,0.536
1.78,32050.0,35095.2,0.2442,0.2297,146.9,96.6,0.536
1.8,32034.1,35060.9,0.1666,0.1454,146.9,96.6,0.536
1.82,31932.1,34975.3,-0.3322,-0.065,146.9,96.6,0.536
1.84,31949.8,34821.4,-0.2455,-0.4433,146.9,96.6,0.536
1.86,31972.2,34724.1,-0.1361,-0.6825,146.9,96.6,0.536
1.88,31881.8,34719.1,-0.5779,-0.6947,146.9,96.6,0.536
1.9,31768.2,34588.8,-1.1328,-1.0151,146.9,96.6,0.536
1.92,31919.8,34599.3,-0.3921,-0.9894,146.9,96.6,0.536
1.94,31906.4,34662.6,-0.4576,-0.8337,146.9,96.6,0.536
1.96,31813.6,34510.8,-0.9111,-1.2069,146.9,96.6,0.536
1.98,31775.1,34553.2,-1.099,-1.1028,146.9,96.6,0.536
2.0,31794.9,34491.1,-1.0024,-1.2553,146.9,96.6,0.536
2.02,31835.5,34737.7,-0.8042,-0.649,146.9,96.6,0.536
2.04,32103.9,35175.4,0.5076,0.4269,146.9,96.6,0.536
2.06,32263.1,35503.1,1.2852,1.2325,146.9,96.6,0.536
2.08,32323.7,35744.4,1.5814,1.8258,146.9,96.6,0.536
2.1,32396.6,35845.0,1.9375,2.073,146.9,96.6,0.536
2.12,32209.2,35611.8,1.022,1.4999,146.9,96.6,0.536
2.14,32226.4,35374.0,1.1057,0.9152,146.9,96.6,0.536
2.16,32093.4,35180.5,0.4563,0.4394,146.9,96.6,0.536
2.18,32054.5,35165.7,0.2661,0.4032,146.9,96.6,0.536
2.2,32001.2,35020.1,0.0058,0.0453,146.9,96.6,0.536
2.22,32008.9,35045.0,0.0433,0.1064,146.9,96.6,0.536
2.24,31909.7,34923.0,-0.4415,-0.1935,146.9,96.6,0.536
2.26,31913.9,34717.7,-0.4212,-0.6982,146.9,96.6,0.536
2.28,31836.3,34808.7,-0.7999,-0.4745,146.9,96.6,0.536
2.3,31854.2,34716.4,-0.7126,-0.7015,146.9,96.6,0.536
2.32,31961.2,34583.4,-0.1901,-1.0283,146.9,96.6,0.536
2.34,31844.7,34600.2,-0.759,-0.9871,146.9,96.6,0.536
2.36,31692.1,34596.7,-1.5046,-0.9956,146.9,96.6,0.536
2.38,31739.5,34545.9,-1.2732,-1.1206,146.9,96.6,0.536
2.4,31710.5,34395.3,-1.4149,-1.4907,146.9,96.6,0.536
2.42,31821.4,34703.8,-0.8727,-0.7323,146.9,96.6,0.536
2.44,31962.4,34995.8,-0.1838,-0.0145,146.9,96.6,0.536
2.46,32230.8,35309.3,1.1274,0.756,146.9,96.6,0.536
2.48,32384.7,35651.0,1.8793,1.5962,146.9,96.6,0.536
2.5,32301.6,35774.3,1.4731,1.8991,146.9,96.6,0.536
2.52,32262.0,35644.8,1.2801,1.5808,146.9,96.6,0.536
2.54,32276.4,35579.9,1.3501,1.4213,146.9,96.6,0.536
2.56,32105.3,35296.8,0.5141,0.7254,146.9,96.6,0.536
2.58,32113.1,35214.0,0.5523,0.5218,146.9,96.6,0.536
2.6,32031.7,35203.9,0.1544,0.497,146.9,96.6,0.536
2.62,31947.9,35001.5,-0.255,-0.0005,146.9,96.6,0.536
2.64,32025.5,34937.7,0.1241,-0.1573,146.9,96.6,0.536
2.66,31915.6,34915.9,-0.4126,-0.211,146.9,96.6,0.536
2.68,31930.2,34781.0,-0.3413,-0.5427,146.9,96.6,0.536
2.7,31912.8,34660.0,-0.4263,-0.8401,146.9,96.6,0.536
2.72,31825.1,34721.0,-0.855,-0.6903,146.9,96.6,0.536
2.74,31811.9,34624.1,-0.9195,-0.9284,146.9,96.6,0.536
2.76,31844.6,34598.4,-0.7597,-0.9916,146.9,96.6,0.536
2.78,31795.4,34510.4,-1.0001,-1.2079,146.9,96.6,0.536
2.8,31688.0,34438.7,-1.5246,-1.384,146.9,96.6,0.536
2.82,31813.0,34559.4,-0.9141,-1.0873,146.9,96.6,0.536
2.84,31865.3,34802.9,-0.6582,-0.4887,146.9,96.6,0.536
2.86,32131.8,35200.0,0.6436,0.4875,146.9,96.6,0.536
2.88,32374.2,35596.3,1.8281,1.4617,146.9,96.6,0.536
2.9,32295.8,35809.4,1.4451,1.9856,146.9,96.6,0.536
2.92,32398.6,35687.6,1.9471,1.686,146.9,96.6,0.536
2.94,32225.4,35496.8,1.1008,1.217,146.9,96.6,0.536
2.96,32157.9,35388.2,0.7712,0.95,146.9,96.6,0.536
2.98,32123.3,35235.4,0.6024,0.5745,146.9,96.6,0.536
3.0,32217.2,35185.1,1.0608,0.4509,146.9,96.6,0.536
3.02,32082.7,35128.8,0.4039,0.3125,146.9,96.6,0.536
3.04,32013.6,34998.4,0.066,-0.0082,146.9,96.6,0.536
3.06,31920.7,34992.2,-0.3875,-0.0233,146.9,96.6,0.536
3.08,31910.7,34785.9,-0.4366,-0.5305,146.9,96.6,0.536
3.1,31892.0,34674.7,-0.5278,-0.804,146.9,96.6,0.536
3.12,31838.7,34692.8,-0.7884,-0.7595,146.9,96.6,0.536
3.14,31821.8,34695.2,-0.8707,-0.7535,146.9,96.6,0.536
3.16,31706.0,34682.2,-1.4369,-0.7854,146.9,96.6,0.536
3.18,31808.9,34543.2,-0.9337,-1.1273,146.9,96.6,0.536
3.2,31790.2,34491.6,-1.0255,-1.2542,146.9,96.6,0.536
3.22,31849.5,34646.8,-0.7357,-0.8725,146.9,96.6,0.536
3.24,31857.0,34767.3,-0.699,-0.5763,146.9,96.6,0.536
3.26,32033.1,35098.3,0.1613,0.2375,146.9,96.6,0.536
3.28,32252.8,35519.7,1.2348,1.2734,146.9,96.6,0.536
3.3,32494.9,35678.0,2.4177,1.6625,146.9,96.6,0.536
3.32,32357.4,35686.0,1.7462,1.6821,146.9,96.6,0.536
3.34,32263.6,35647.8,1.2876,1.5881,146.9,96.6,0.536
3.36,32212.3,35381.5,1.0369,0.9336,146.9,96.6,0.536
3.38,32113.7,35265.3,0.5552,0.6479,146.9,96.6,0.536
3.4,31979.7,35149.9,-0.0995,0.3643,146.9,96.6,0.536
3.42,32087.9,35036.8,0.4292,0.0862,146.9,96.6,0.536
3.44,32078.6,35051.9,0.3839,0.1233,146.9,96.6,0.536
3.46,31962.3,34998.9,-0.1843,-0.0069,146.9,96.6,0.536
3.48,31985.7,34869.9,-0.0701,-0.3241,146.9,96.6,0.536
3.5,31906.8,34747.5,-0.4556,-0.6249,146.9,96.6,0.536
3.52,31813.3,34630.9,-0.9123,-0.9117,146.9,96.6,0.536
3.54,31827.0,34642.3,-0.8458,-0.8835,146.9,96.6,0.536
3.56,31757.5,34692.5,-1.185,-0.7603,146.9,96.6,0.536
3.58,31739.8,34582.5,-1.2716,-1.0306,146.9,96.6,0.536
3.6,31758.7,34345.7,-1.1793,-1.6127,146.9,96.6,0.536
3.62,31674.6,34440.8,-1.5903,-1.3789,146.9,96.6,0.536
3.64,31785.5,34627.8,-1.0482,-0.9192,146.9,96.6,0.536
3.66,31932.5,34906.5,-0.3298,-0.234,146.9,96.6,0.536
3.68,32047.3,35294.4,0.2308,0.7195,146.9,96.6,0.536
3.7,32222.8,35557.2,1.0883,1.3655,146.9,96.6,0.536
3.72,32306.2,35746.1,1.4961,1.8298,146.9,96.6,0.536
3.74,32306.6,35748.0,1.498,1.8347,146.9,96.6,0.536
3.76,32267.3,35605.8,1.3057,1.4851,146.9,96.6,0.536
3.78,32165.2,35247.9,0.8068,0.605,146.9,96.6,0.536
3.8,32075.9,35228.4,0.3705,0.5573,146.9,96.6,0.536
3.82,32001.2,35138.1,0.0055,0.3351,146.9,96.6,0.536
3.84,32026.2,35003.5,0.1277,0.0043,146.9,96.6,0.536
3.86,32074.1,34952.9,0.362,-0.12,146.9,96.6,0.536
3.88,31887.3,34849.9,-0.5512,-0.3732,146.9,96.6,0.536
3.9,31804.8,34751.9,-0.954,-0.6142,146.9,96.6,0.536
3.92,31882.5,34666.4,-0.5744,-0.8242,146.9,96.6,0.536
3.94,31867.6,34566.9,-0.6471,-1.0689,146.9,96.6,0.536
3.96,31911.7,34682.0,-0.4315,-0.786,146.9,96.6,0.536
3.98,31697.5,34598.1,-1.4782,-0.9922,146.9,96.6,0.536
4.0,31766.3,34435.6,-1.1421,-1.3917,146.9,96.6,0.536
4.02,31731.8,34463.4,-1.3105,-1.3233,146.9,96.6,0.536
4.04,31853.3,34525.3,-0.7169,-1.1712,146.9,96.6,0.536
4.06,31952.0,34625.3,-0.2348,-0.9255,146.9,96.6,0.536
4.08,31995.3,35087.2,-0.0234,0.2101,146.9,96.6,0.536
4.1,32195.9,35488.9,0.9568,1.1977,146.9,96.6,0.536
4.12,32315.4,35699.0,1.5407,1.7141,146.9,96.6,0.536
4.14,32314.2,35759.8,1.5347,1.8635,146.9,96.6,0.536
4.16,32310.0,35676.9,1.5144,1.6598,146.9,96.6,0.536
4.18,32223.9,35568.2,1.0939,1.3925,146.9,96.6,0.536
4.2,32062.0,35217.9,0.3027,0.5314,146.9,96.6,0.536
4.22,32049.4,35187.0,0.2411,0.4554,146.9,96.6,0.536
4.24,32076.7,35047.3,0.3747,0.1119,146.9,96.6,0.536
4.26,32016.6,35043.9,0.0808,0.1037,146.9,96.6,0.536
4.28,31932.8,34935.3,-0.3285,-0.1634,146.9,96.6,0.536
4.3,31835.0,34815.6,-0.8065,-0.4576,146.9,96.6,0.536
4.32,31845.9,34689.6,-0.753,-0.7674,146.9,96.6,0.536
4.34,31918.5,34677.9,-0.3984,-0.7961,146.9,96.6,0.536
4.36,31757.8,34641.1,-1.1836,-0.8866,146.9,96.6,0.536
4.38,31835.0,34603.3,-0.8063,-0.9795,146.9,96.6,0.536
4.4,31783.3,34560.8,-1.059,-1.084,146.9,96.6,0.536
4.42,31828.2,34517.3,-0.8397,-1.1909,146.9,96.6,0.536
4.44,31664.5,34481.6,-1.6393,-1.2786,146.9,96.6,0.536
4.46,31739.4,34644.5,-1.2738,-0.8782,146.9,96.6,0.536
4.48,31945.2,34945.8,-0.2681,-0.1374,146.9,96.6,0.536
4.5,32146.3,35300.8,0.7148,0.7353,146.9,96.6,0.536
4.52,32322.2,35534.8,1.5739,1.3104,146.9,96.6,0.536
4.54,32287.1,35838.7,1.4026,2.0576,146.9,96.6,0.536
4.56,32342.9,35664.5,1.675,1.6293,146.9,96.6,0.536
4.58,32234.6,35508.1,1.1458,1.2449,146.9,96.6,0.536
4.6,32180.0,35219.6,0.8791,0.5355,146.9,96.6,0.536
4.62,32090.0,35220.7,0.4395,0.5383,146.9,96.6,0.536
4.64,32098.5,35083.2,0.4809,0.2002,146.9,96.6,0.536
4.66,32074.6,35047.0,0.3642,0.1113,146.9,96.6,0.536
4.68,31904.1,34999.2,-0.4691,-0.0063,146.9,96.6,0.536
4.7,31970.5,34835.7,-0.1445,-0.4083,146.9,96.6,0.536
4.72,31827.7,34690.5,-0.8422,-0.765,146.9,96.6,0.536
4.74,31874.9,34663.3,-0.6117,-0.8321,146.9,96.6,0.536
4.76,31902.2,34676.0,-0.4782,-0.8008,146.9,96.6,0.536
4.78,31872.4,34634.8,-0.6239,-0.9021,146.9,96.6,0.536
4.8,31776.2,34453.3,-1.094,-1.3481,146.9,96.6,0.536
4.82,31716.8,34390.6,-1.384,-1.5024,146.9,96.6,0.536
4.84,31685.3,34403.3,-1.5377,-1.4711,146.9,96.6,0.536
4.86,31760.4,34568.7,-1.1711,-1.0646,146.9,96.6,0.536
4.88,31893.5,34874.3,-0.5206,-0.3132,146.9,96.6,0.536
4.9,32052.2,35147.4,0.2546,0.3581,146.9,96.6,0.536
4.92,32234.1,35445.9,1.1434,1.0919,146.9,96.6,0.536
4.94,32406.8,35712.0,1.9871,1.7461,146.9,96.6,0.536
4.96,32301.5,35798.5,1.4729,1.9587,146.9,96.6,0.536
4.98,32311.6,35551.5,1.5221,1.3515,146.9,96.6,0.536
5.0,32114.4,35365.5,0.5588,0.8942,146.9,96.6,0.536
5.02,32108.1,35230.4,0.5281,0.5621,146.9,96.6,0.536
5.04,32037.8,35137.4,0.1845,0.3334,146.9,96.6,0.536
5.06,32154.1,34988.1,0.7527,-0.0334,146.9,96.6,0.536
5.08,31972.1,34995.3,-0.1366,-0.0158,146.9,96.6,0.536
5.1,32068.0,34908.7,0.332,-0.2287,146.9,96.6,0.536
5.12,31867.5,34816.4,-0.6475,-0.4556,146.9,96.6,0.536
5.14,31824.4,34744.7,-0.8584,-0.6318,146.9,96.6,0.536
5.16,31822.2,34726.3,-0.8689,-0.6771,146.9,96.6,0.536
5.18,31839.8,34647.1,-0.7831,-0.8719,146.9,96.6,0.536
5.2,31831.6,34603.8,-0.8229,-0.9782,146.9,96.6,0.536
5.22,31807.1,34523.5,-0.9427,-1.1757,146.9,96.6,0.536
5.24,31798.0,34399.7,-0.9874,-1.48,146.9,96.6,0.536
5.26,31682.2,34518.9,-1.5531,-1.187,146.9,96.6,0.536
5.28,31868.2,34654.4,-0.6442,-0.8537,146.9,96.6,0.536
5.3,31995.9,35023.5,-0.0203,0.0535,146.9,96.6,0.536
5.32,32138.2,35433.8,0.675,1.0622,146.9,96.6,0.536
5.34,32375.9,35683.7,1.8364,1.6765,146.9,96.6,0.536
5.36,32355.9,35698.4,1.7387,1.7127,146.9,96.6,0.536
5.38,32210.8,35653.6,1.0296,1.6024,146.9,96.6,0.536
5.4,32159.8,35500.1,0.7805,1.2252,146.9,96.6,0.536
5.42,32060.3,35299.3,0.2946,0.7316,146.9,96.6,0.536
5.44,32098.2,35245.2,0.4794,0.5985,146.9,96.6,0.536
5.46,32094.2,35083.2,0.46,0.2004,146.9,96.6,0.536
5.48,32077.6,35040.8,0.3787,0.096,146.9,96.6,0.536
5.5,31951.1,34966.0,-0.239,-0.0879,146.9,96.6,0.536
5.52,31942.1,34809.0,-0.2833,-0.4739,146.9,96.6,0.536
5.54,31904.1,34700.5,-0.4686,-0.7405,146.9,96.6,0.536
5.56,31898.3,34677.8,-0.4972,-0.7963,146.9,96.6,0.536
5.58,31875.0,34659.9,-0.6109,-0.8402,146.9,96.6,0.536
5.6,31785.5,34646.4,-1.0482,-0.8735,146.9,96.6,0.536
5.62,31765.2,34501.9,-1.1475,-1.2287,146.9,96.6,0.536
5.64,31761.4,34485.2,-1.166,-1.2698,146.9,96.6,0.536
5.66,31756.3,34511.7,-1.191,-1.2046,146.9,96.6,0.536
5.68,31742.6,34616.0,-1.258,-0.9483,146.9,96.6,0.536
5.7,31906.5,34811.2,-0.4572,-0.4683,146.9,96.6,0.536
5.72,32137.3,35176.5,0.6706,0.4296,146.9,96.6,0.536
5.74,32311.8,35560.6,1.5231,1.3739,146.9,96.6,0.536
5.76,32342.4,35716.8,1.6725,1.7578,146.9,96.6,0.536
5.78,32261.3,35674.5,1.2764,1.6539,146.9,96.6,0.536
5.8,32256.8,35548.1,1.2546,1.3431,146.9,96.6,0.536
5.82,32249.2,35301.0,1.2172,0.7357,146.9,96.6,0.536
5.84,32128.3,35205.0,0.6265,0.4997,146.9,96.6,0.536
5.86,32088.7,35025.4,0.433,0.0581,146.9,96.6,0.536
5.88,32002.1,35042.2,0.0102,0.0996,146.9,96.6,0.536
5.9,32013.7,34954.1,0.0665,-0.117,146.9,96.6,0.536
5.92,31919.6,34932.8,-0.3931,-0.1694,146.9,96.6,0.536
5.94,31929.9,34764.2,-0.343,-0.5839,146.9,96.6,0.536
5.96,31865.8,34725.0,-0.656,-0.6803,146.9,96.6,0.536
5.98,31844.0,34693.2,-0.7626,-0.7584,146.9,96.6,0.536
6.0,31891.5,34709.6,-0.5303,-0.7183,146.9,96.6,0.536
6.02,31804.6,34593.4,-0.9549,-1.0039,146.9,96.6,0.536
6.04,31689.4,34581.9,-1.5178,-1.0321,146.9,96.6,0.536
6.06,31782.0,34530.7,-1.0653,-1.1579,146.9,96.6,0.536
6.08,31783.4,34525.0,-1.0585,-1.172,146.9,96.6,0.536
6.1,31903.3,34665.7,-0.4725,-0.826,146.9,96.6,0.536
6.12,32021.0,35004.8,0.1024,0.0075,146.9,96.6,0.536
6.14,32155.6,35460.6,0.7598,1.128,146.9,96.6,0.536
6.16,32337.6,35720.6,1.6491,1.7672,146.9,96.6,0.536
6.18,32426.2,35778.7,2.0823,1.9101,146.9,96.6,0.536
6.2,32266.1,35671.7,1.3,1.647,146.9,96.6,0.536
6.22,32259.3,35397.1,1.2667,0.972,146.9,96.6,0.536
6.24,32050.7,35344.8,0.2474,0.8434,146.9,96.6,0.536
6.26,32041.0,35138.3,0.2003,0.3357,146.9,96.6,0.536
6.28,32001.1,35070.5,0.0051,0.1691,146.9,96.6,0.536
6.3,32064.2,35099.4,0.3133,0.2402,146.9,96.6,0.536
6.32,31983.5,35042.3,-0.0811,0.0998,146.9,96.6,0.536
6.34,31936.7,34852.6,-0.3096,-0.3667,146.9,96.6,0.536
6.36,31907.4,34736.4,-0.4528,-0.6524,146.9,96.6,0.536
6.38,31839.3,34644.0,-0.7853,-0.8795,146.9,96.6,0.536
6.4,31760.6,34685.4,-1.1701,-0.7777,146.9,96.6,0.536
6.42,31962.7,34580.5,-0.1823,-1.0355,146.9,96.6,0.536
6.44,31860.8,34605.8,-0.6802,-0.9732,146.9,96.6,0.536
6.46,31737.4,34558.5,-1.2833,-1.0897,146.9,96.6,0.536
6.48,31736.3,34419.4,-1.2886,-1.4316,146.9,96.6,0.536
6.5,31695.2,34614.0,-1.4894,-0.9532,146.9,96.6,0.536
6.52,31890.8,34939.7,-0.5341,-0.1525,146.9,96.6,0.536
6.54,32177.3,35297.5,0.8659,0.7271,146.9,96.6,0.536
6.56,32270.1,35640.5,1.3195,1.5702,146.9,96.6,0.536
6.58,32278.8,35794.4,1.3622,1.9487,146.9,96.6,0.536
6.6,32363.2,35742.3,1.7745,1.8205,146.9,96.6,0.536
6.62,32232.4,35611.3,1.1351,1.4984,146.9,96.6,0.536
6.64,32230.7,35426.1,1.1268,1.0433,146.9,96.6,0.536
6.66,32155.9,35194.3,0.7616,0.4734,146.9,96.6,0.536
6.68,32082.9,35133.5,0.4047,0.3239,146.9,96.6,0.536
6.7,32088.8,34961.4,0.4337,-0.0992,146.9,96.6,0.536
6.72,32021.6,34934.2,0.1054,-0.166,146.9,96.6,0.536
6.74,32017.2,34937.2,0.0837,-0.1587,146.9,96.6,0.536
6.76,31942.4,34786.6,-0.2815,-0.5288,146.9,96.6,0.536
6.78,31764.5,34686.1,-1.151,-0.776,146.9,96.6,0.536
6.8,31826.0,34597.6,-0.8504,-0.9936,146.9,96.6,0.536
6.82,31791.9,34625.5,-1.017,-0.925,146.9,96.6,0.536
6.84,31725.9,34704.7,-1.3396,-0.7301,146.9,96.6,0.536
6.86,31798.5,34489.6,-0.9848,-1.2589,146.9,96.6,0.536
6.88,31707.6,34505.1,-1.4289,-1.2208,146.9,96.6,0.536
6.9,31768.0,34512.0,-1.1338,-1.2038,146.9,96.6,0.536
6.92,31867.2,34774.7,-0.6491,-0.5582,146.9,96.6,0.536
6.94,32069.9,35176.6,0.3412,0.4299,146.9,96.6,0.536
6.96,32216.6,35465.3,1.0581,1.1397,146.9,96.6,0.536
6.98,32281.2,35713.6,1.3738,1.75,146.9,96.6,0.536
7.0,32241.1,35699.3,1.1778,1.7147,146.9,96.6,0.536
7.02,32389.2,35621.7,1.9015,1.5241,146.9,96.6,0.536
7.04,32274.3,35416.8,1.34,1.0204,146.9,96.6,0.536
7.06,32082.8,35220.0,0.4044,0.5367,146.9,96.6,0.536
7.08,32092.9,35150.9,0.4537,0.3668,146.9,96.6,0.536
7.1,31992.7,35045.4,-0.0358,0.1074,146.9,96.6,0.536
7.12,32027.2,34998.8,0.1324,-0.0071,146.9,96.6,0.536
7.14,31873.6,34909.5,-0.6177,-0.2266,146.9,96.6,0.536
7.16,31891.3,34753.8,-0.5315,-0.6095,146.9,96.6,0.536
7.18,31803.9,34718.6,-0.9586,-0.6961,146.9,96.6,0.536
7.2,31841.2,34666.7,-0.7761,-0.8236,146.9,96.6,0.536
7.22,31916.0,34647.5,-0.4105,-0.8708,146.9,96.6,0.536
7.24,31933.6,34699.3,-0.3247,-0.7435,146.9,96.6,0.536
7.26,31826.9,34486.3,-0.846,-1.267,146.9,96.6,0.536
7.28,31765.1,34451.2,-1.1479,-1.3533,146.9,96.6,0.536
7.3,31707.7,34376.3,-1.4286,-1.5375,146.9,96.6,0.536
7.32,31789.4,34670.3,-1.0294,-0.8148,146.9,96.6,0.536
7.34,32059.5,34984.0,0.2905,-0.0437,146.9,96.6,0.536
7.36,32120.1,35419.0,0.5868,1.0257,146.9,96.6,0.536
7.38,32267.3,35636.5,1.306,1.5604,146.9,96.6,0.536
7.4,32275.7,35736.9,1.3469,1.8072,146.9,96.6,0.536
7.42,32298.7,35604.8,1.4592,1.4825,146.9,96.6,0.536
7.44,32215.8,35537.5,1.0542,1.3172,146.9,96.6,0.536
7.46,32186.1,35255.3,0.9091,0.6233,146.9,96.6,0.536
7.48,32082.2,35067.4,0.4016,0.1614,146.9,96.6,0.536
7.5,32005.5,35197.4,0.0267,0.4811,146.9,96.6,0.536
7.52,32020.6,35043.3,0.1002,0.1022,146.9,96.6,0.536
7.54,31913.3,34940.3,-0.4241,-0.151,146.9,96.6,0.536
7.56,31944.8,34769.7,-0.2701,-0.5703,146.9,96.6,0.536
7.58,31872.6,34733.0,-0.6226,-0.6606,146.9,96.6,0.536
7.6,31786.4,34685.1,-1.0439,-0.7783,146.9,96.6,0.536
7.62,31931.0,34585.9,-0.3375,-1.0222,146.9,96.6,0.536
7.64,31747.8,34538.6,-1.2327,-1.1386,146.9,96.6,0.536
7.66,31750.4,34604.9,-1.2198,-0.9756,146.9,96.6,0.536
7.68,31784.8,34466.9,-1.0516,-1.3148,146.9,96.6,0.536
7.7,31710.9,34479.2,-1.4129,-1.2845,146.9,96.6,0.536
7.72,31716.9,34523.7,-1.3835,-1.1751,146.9,96.6,0.536
7.74,31858.4,34850.1,-0.6922,-0.3727,146.9,96.6,0.536
7.76,32139.1,35097.0,0.6793,0.2342,146.9,96.6,0.536
7.78,32273.3,35647.8,1.3352,1.5882,146.9,96.6,0.536
7.8,32404.8,35713.8,1.9776,1.7505,146.9,96.6,0.536
7.82,32390.0,35863.0,1.9053,2.1174,146.9,96.6,0.536
7.84,32252.3,35579.5,1.2325,1.4204,146.9,96.6,0.536
7.86,32148.5,35347.3,0.7254,0.8495,146.9,96.6,0.536
7.88,32035.7,35249.6,0.1741,0.6092,146.9,96.6,0.536
7.9,31995.6,35118.1,-0.0216,0.2861,146.9,96.6,0.536
7.92,32046.4,35175.3,0.2265,0.4266,146.9,96.6,0.536
7.94,32000.4,35055.1,0.0019,0.1313,146.9,96.6,0.536
7.96,32014.7,34868.8,0.0716,-0.3269,146.9,96.6,0.536
7.98,31957.1,34736.4,-0.21,-0.6524,146.9,96.6,0.536
8.0,31866.5,34703.9,-0.6523,-0.7321,146.9,96.6,0.536
8.02,31818.4,34659.2,-0.8875,-0.842,146.9,96.6,0.536
8.04,31769.9,34645.9,-1.1247,-0.8747,146.9,96.6,0.536
8.06,31843.5,34604.9,-0.7652,-0.9754,146.9,96.6,0.536
8.08,31733.3,34588.2,-1.3033,-1.0165,146.9,96.6,0.536
8.1,31791.9,34455.6,-1.017,-1.3425,146.9,96.6,0.536
8.12,31741.4,34460.6,-1.2638,-1.3303,146.9,96.6,0.536
8.14,31881.6,34675.3,-0.5786,-0.8024,146.9,96.6,0.536
8.16,31995.9,34999.4,-0.0205,-0.0056,146.9,96.6,0.536
8.18,32293.9,35370.3,1.4357,0.906,146.9,96.6,0.536
8.2,32343.4,35552.8,1.6778,1.3547,146.9,96.6,0.536
8.22,32390.9,35750.8,1.9096,1.8415,146.9,96.6,0.536
8.24,32241.0,35732.6,1.1775,1.7968,146.9,96.6,0.536
8.26,32212.6,35532.6,1.0387,1.305,146.9,96.6,0.536
8.28,32084.7,35317.2,0.4137,0.7756,146.9,96.6,0.536
8.3,32004.8,35216.5,0.023,0.5279,146.9,96.6,0.536
8.32,31967.5,35097.1,-0.1591,0.2343,146.9,96.6,0.536
8.34,31947.9,35087.5,-0.255,0.2109,146.9,96.6,0.536
8.36,31928.1,34924.6,-0.3518,-0.1895,146.9,96.6,0.536
8.38,31931.8,34833.4,-0.3336,-0.4138,146.9,96.6,0.536
8.4,31885.7,34785.9,-0.5587,-0.5306,146.9,96.6,0.536
8.42,31865.2,34606.7,-0.6589,-0.971,146.9,96.6,0.536
8.44,31841.5,34625.7,-0.7747,-0.9245,146.9,96.6,0.536
8.46,31838.4,34688.1,-0.7897,-0.7709,146.9,96.6,0.536
8.48,31746.8,34584.8,-1.2376,-1.025,146.9,96.6,0.536
8.5,31686.4,34445.8,-1.5323,-1.3667,146.9,96.6,0.536
8.52,31744.8,34444.9,-1.2472,-1.3688,146.9,96.6,0.536
8.54,31771.6,34493.1,-1.1162,-1.2503,146.9,96.6,0.536
8.56,31931.6,34930.6,-0.3344,-0.175,146.9,96.6,0.536
8.58,32060.6,35279.7,0.2959,0.6834,146.9,96.6,0.536
8.6,32253.7,35519.3,1.2394,1.2722,146.9,96.6,0.536
8.62,32392.0,35752.4,1.9149,1.8455,146.9,96.6,0.536
8.64,32340.9,35724.5,1.6653,1.7769,146.9,96.6,0.536
8.66,32279.6,35601.4,1.3657,1.4741,146.9,96.6,0.536
8.68,32107.0,35419.3,0.5225,1.0266,146.9,96.6,0.536
8.7,32046.6,35099.2,0.2275,0.2396,146.9,96.6,0.536
8.72,32063.1,35140.5,0.3079,0.3411,146.9,96.6,0.536
8.74,32093.4,35094.5,0.4561,0.2281,146.9,96.6,0.536
8.76,32015.4,34993.6,0.0748,-0.02,146.9,96.6,0.536
8.78,32009.7,34800.2,0.0469,-0.4954,146.9,96.6,0.536
8.8,31906.5,34790.9,-0.4571,-0.5183,146.9,96.6,0.536
8.82,31920.3,34702.0,-0.3895,-0.7368,146.9,96.6,0.536
8.84,31936.9,34588.2,-0.3083,-1.0165,146.9,96.6,0.536
8.86,31760.9,34633.2,-1.1685,-0.9061,146.9,96.6,0.536
8.88,31739.1,34602.4,-1.2751,-0.9816,146.9,96.6,0.536
8.9,31763.5,34509.6,-1.156,-1.2097,146.9,96.6,0.536
8.92,31735.9,34446.5,-1.2905,-1.3649,146.9,96.6,0.536
8.94,31782.4,34527.1,-1.0637,-1.1667,146.9,96.6,0.536
8.96,31843.3,34774.4,-0.766,-0.5589,146.9,96.6,0.536
8.98,32064.2,35162.2,0.3132,0.3945,146.9,96.6,0.536
9.0,32185.6,35446.7,0.9066,1.0938,146.9,96.6,0.536
9.02,32440.3,35747.3,2.1511,1.8329,146.9,96.6,0.536
9.04,32368.2,35671.3,1.7985,1.646,146.9,96.6,0.536
9.06,32291.5,35704.1,1.4241,1.7268,146.9,96.6,0.536
9.08,32186.0,35328.5,0.9087,0.8032,146.9,96.6,0.536
9.1,32056.4,35270.8,0.2752,0.6615,146.9,96.6,0.536
9.12,32073.1,35137.2,0.3568,0.3331,146.9,96.6,0.536
9.14,31987.3,35073.2,-0.0622,0.1757,146.9,96.6,0.536
9.16,31964.4,35039.6,-0.1744,0.0931,146.9,96.6,0.536
9.18,31939.5,34887.2,-0.2958,-0.2815,146.9,96.6,0.536
9.2,31920.5,34823.0,-0.3886,-0.4394,146.9,96.6,0.536
9.22,31881.6,34749.2,-0.5788,-0.6209,146.9,96.6,0.536
9.24,31848.4,34668.6,-0.7408,-0.8188,146.9,96.6,0.536
9.26,31802.3,34677.4,-0.9664,-0.7973,146.9,96.6,0.536
9.28,31721.8,34735.3,-1.3597,-0.655,146.9,96.6,0.536
9.3,31732.6,34612.4,-1.3068,-0.9572,146.9,96.6,0.536
9.32,31738.3,34529.3,-1.2791,-1.1613,146.9,96.6,0.536
9.34,31753.0,34451.6,-1.207,-1.3524,146.9,96.6,0.536
9.36,31745.1,34499.9,-1.2457,-1.2337,146.9,96.6,0.536
9.38,31923.9,34936.5,-0.3721,-0.1603,146.9,96.6,0.536
9.4,32127.8,35302.3,0.624,0.7389,146.9,96.6,0.536
9.42,32375.1,35613.0,1.8326,1.5027,146.9,96.6,0.536
9.44,32330.9,35755.4,1.6165,1.8528,146.9,96.6,0.536
9.46,32421.5,35801.2,2.0592,1.9653,146.9,96.6,0.536
9.48,32226.9,35580.6,1.1084,1.4231,146.9,96.6,0.536
9.5,32129.4,35323.7,0.6319,0.7915,146.9,96.6,0.536
9.52,32084.0,35223.1,0.4103,0.5442,146.9,96.6,0.536
9.54,32069.1,35027.3,0.3374,0.0629,146.9,96.6,0.536
9.56,31959.5,35045.1,-0.1984,0.1066,146.9,96.6,0.536
9.58,31959.9,35011.3,-0.196,0.0236,146.9,96.6,0.536
9.6,31965.5,34864.2,-0.169,-0.338,146.9,96.6,0.536
9.62,31861.2,34735.8,-0.6785,-0.6537,146.9,96.6,0.536
9.64,31845.8,34662.0,-0.7538,-0.8352,146.9,96.6,0.536
9.66,31824.6,34617.2,-0.8571,-0.9454,146.9,96.6,0.536
9.68,31775.2,34623.8,-1.0988,-0.9291,146.9,96.6,0.536
9.7,31680.4,34479.6,-1.5616,-1.2835,146.9,96.6,0.536
9.72,31781.6,34536.8,-1.0673,-1.1429,146.9,96.6,0.536
9.74,31808.9,34367.4,-0.9339,-1.5594,146.9,96.6,0.536
9.76,31762.1,34631.1,-1.1627,-0.9111,146.9,96.6,0.536
9.78,31896.7,34865.5,-0.5048,-0.335,146.9,96.6,0.536
9.8,32134.1,35133.6,0.6551,0.3241,146.9,96.6,0.536
9.82,32348.1,35485.9,1.7008,1.1902,146.9,96.6,0.536
9.84,32343.5,35808.8,1.6778,1.9839,146.9,96.6,0.536
9.86,32350.3,35774.0,1.7112,1.8985,146.9,96.6,0.536
9.88,32265.9,35621.9,1.299,1.5246,146.9,96.6,0.536
9.9,32170.7,35413.2,0.8336,1.0114,146.9,96.6,0.536
9.92,32075.6,35176.6,0.3692,0.4299,146.9,96.6,0.536
9.94,32090.4,35255.6,0.4414,0.6241,146.9,96.6,0.536
9.96,32034.6,35134.9,0.169,0.3273,146.9,96.6,0.536
9.98,31976.1,35085.0,-0.1169,0.2048,146.9,96.6,0.536
10.0,31997.4,34891.0,-0.013,-0.2722,146.9,96.6,0.536
10.02,31869.3,34783.8,-0.6387,-0.5356,146.9,96.6,0.536
10.04,31846.9,34607.2,-0.7485,-0.9698,146.9,96.6,0.536
10.06,31869.1,34624.2,-0.6398,-0.9282,146.9,96.6,0.536
10.08,31839.2,34629.7,-0.7862,-0.9147,146.9,96.6,0.536
10.1,31867.4,34694.3,-0.6482,-0.7558,146.9,96.6,0.536
10.12,31810.4,34529.7,-0.9266,-1.1603,146.9,96.6,0.536
10.14,31710.2,34533.7,-1.416,-1.1506,146.9,96.6,0.536
10.16,31748.3,34520.3,-1.2299,-1.1834,146.9,96.6,0.536
10.18,31840.0,34632.2,-0.7819,-0.9085,146.9,96.6,0.536
10.2,31941.8,35075.6,-0.2847,0.1815,146.9,96.6,0.536
10.22,32151.5,35315.5,0.7401,0.7712,146.9,96.6,0.536
10.24,32335.3,35689.0,1.6379,1.6895,146.9,96.6,0.536
10.26,32462.8,35776.9,2.261,1.9057,146.9,96.6,0.536
10.28,32347.0,35849.4,1.695,2.0839,146.9,96.6,0.536
10.3,32176.2,35479.5,0.8609,1.1744,146.9,96.6,0.536
10.32,32159.8,35230.7,0.7807,0.563,146.9,96.6,0.536
10.34,32015.4,35188.2,0.075,0.4584,146.9,96.6,0.536
10.36,32101.1,35147.1,0.4939,0.3573,146.9,96.6,0.536
10.38,32039.7,34992.8,0.1935,-0.0221,146.9,96.6,0.536
10.4,31980.7,34880.4,-0.0947,-0.2983,146.9,96.6,0.536
10.42,31950.0,34770.5,-0.2446,-0.5685,146.9,96.6,0.536
10.44,31857.7,34664.0,-0.6954,-0.8303,146.9,96.6,0.536
10.46,31801.1,34652.2,-0.9722,-0.8593,146.9,96.6,0.536
10.48,31848.4,34667.2,-0.7408,-0.8223,146.9,96.6,0.536
10.5,31822.8,34681.5,-0.8662,-0.7872,146.9,96.6,0.536
10.52,31800.5,34630.2,-0.9748,-0.9133,146.9,96.6,0.536
10.54,31803.3,34564.1,-0.9613,-1.0759,146.9,96.6,0.536
10.56,31740.1,34401.3,-1.2701,-1.4761,146.9,96.6,0.536
10.58,31750.0,34554.2,-1.222,-1.1002,146.9,96.6,0.536
10.6,31889.7,34843.0,-0.5391,-0.3902,146.9,96.6,0.536
10.62,32181.7,35242.3,0.8873,0.5913,146.9,96.6,0.536
10.64,32332.8,35520.1,1.6257,1.2743,146.9,96.6,0.536
10.66,32345.3,35697.3,1.6868,1.7099,146.9,96.6,0.536
10.68,32330.0,35692.7,1.6123,1.6987,146.9,96.6,0.536
10.7,32347.5,35605.7,1.6976,1.4848,146.9,96.6,0.536
10.72,32187.7,35409.5,0.9166,1.0025,146.9,96.6,0.536
10.74,32046.7,35241.3,0.2279,0.589,146.9,96.6,0.536
10.76,32063.6,35091.5,0.3105,0.2208,146.9,96.6,0.536
10.78,32155.0,35072.9,0.7569,0.1749,146.9,96.6,0.536
10.8,32101.4,35001.9,0.495,0.0005,146.9,96.6,0.536
10.82,32034.1,34880.8,0.1663,-0.2972,146.9,96.6,0.536
10.84,31832.7,34831.3,-0.8177,-0.4189,146.9,96.6,0.536
10.86,31852.7,34782.8,-0.7197,-0.5383,146.9,96.6,0.536
10.88,31891.0,34782.1,-0.5327,-0.5399,146.9,96.6,0.536
10.9,31848.6,34750.2,-0.7402,-0.6184,146.9,96.6,0.536
10.92,31805.0,34595.3,-0.9529,-0.9992,146.9,96.6,0.536
10.94,31847.3,34468.6,-0.7463,-1.3107,146.9,96.6,0.536
10.96,31726.5,34500.6,-1.3364,-1.2319,146.9,96.6,0.536
10.98,31712.8,34458.7,-1.4036,-1.3351,146.9,96.6,0.536
11.0,31858.7,34756.6,-0.6908,-0.6026,146.9,96.6,0.536
11.02,32004.1,34992.4,0.02,-0.0228,146.9,96.6,0.536
11.04,32252.3,35373.0,1.2326,0.9127,146.9,96.6,0.536
11.06,32326.5,35681.1,1.5948,1.6701,146.9,96.6,0.536
11.08,32381.4,35762.4,1.8631,1.87,146.9,96.6,0.536
11.1,32246.6,35691.9,1.2048,1.6966,146.9,96.6,0.536
11.12,32219.9,35468.4,1.0741,1.1472,146.9,96.6,0.536
11.14,32170.6,35250.6,0.8331,0.6117,146.9,96.6,0.536
11.16,32036.4,35170.0,0.1775,0.4137,146.9,96.6,0.536
11.18,32107.3,35115.1,0.5239,0.2787,146.9,96.6,0.536
11.2,31973.6,34999.2,-0.1293,-0.0063,146.9,96.6,0.536
11.22,31919.9,34925.2,-0.3917,-0.1883,146.9,96.6,0.536
11.24,31892.7,34811.5,-0.5247,-0.4675,146.9,96.6,0.536
11.26,31931.1,34814.2,-0.337,-0.461,146.9,96.6,0.536
11.28,31790.9,34722.6,-1.0219,-0.6862,146.9,96.6,0.536
11.3,31813.7,34609.5,-0.9104,-0.9643,146.9,96.6,0.536
11.32,31926.6,34633.4,-0.359,-0.9055,146.9,96.6,0.536
11.34,31680.5,34516.6,-1.5616,-1.1927,146.9,96.6,0.536
11.36,31755.0,34532.4,-1.1973,-1.1538,146.9,96.6,0.536
11.38,31764.0,34469.4,-1.1535,-1.3087,146.9,96.6,0.536
11.4,31829.0,34609.1,-0.8359,-0.9652,146.9,96.6,0.536
11.42,31974.7,35070.2,-0.1238,0.1682,146.9,96.6,0.536
11.44,32136.3,35331.8,0.6659,0.8114,146.9,96.6,0.536
11.46,32307.1,35585.8,1.5,1.4359,146.9,96.6,0.536
11.48,32345.7,35770.3,1.689,1.8893,146.9,96.6,0.536
11.5,32313.3,35720.8,1.5306,1.7678,146.9,96.6,0.536
11.52,32249.9,35450.3,1.2206,1.1027,146.9,96.6,0.536
11.54,32142.6,35297.1,0.6965,0.726,146.9,96.6,0.536
11.56,32024.2,35159.2,0.1182,0.3871,146.9,96.6,0.536
11.58,32019.7,35159.0,0.0962,0.3867,146.9,96.6,0.536
11.6,32020.5,35056.2,0.0997,0.1339,146.9,96.6,0.536
11.62,32075.0,34997.4,0.366,-0.0106,146.9,96.6,0.536
11.64,31889.0,34909.0,-0.5427,-0.2279,146.9,96.6,0.536
11.66,31832.9,34743.9,-0.8168,-0.6339,146.9,96.6,0.536
11.68,31822.5,34709.5,-0.8677,-0.7185,146.9,96.6,0.536
11.7,31860.4,34652.3,-0.6824,-0.8591,146.9,96.6,0.536
11.72,31851.1,34719.2,-0.7276,-0.6946,146.9,96.6,0.536
11.74,31807.7,34663.6,-0.9396,-0.8312,146.9,96.6,0.536
11.76,31788.9,34454.2,-1.0317,-1.3461,146.9,96.6,0.536
11.78,31727.6,34444.8,-1.3314,-1.3691,146.9,96.6,0.536
11.8,31716.5,34485.3,-1.3854,-1.2695,146.9,96.6,0.536
11.82,31974.5,34795.7,-0.1251,-0.5065,146.9,96.6,0.536
11.84,32115.2,35057.5,0.5628,0.1371,146.9,96.6,0.536
11.86,32151.7,35518.4,0.7412,1.2701,146.9,96.6,0.536
11.88,32411.4,35755.2,2.0099,1.8522,146.9,96.6,0.536
11.9,32325.5,35856.9,1.5903,2.1023,146.9,96.6,0.536
11.92,32268.0,35564.9,1.3093,1.3843,146.9,96.6,0.536
11.94,32290.3,35422.0,1.4182,1.0332,146.9,96.6,0.536
11.96,32127.6,35180.1,0.6233,0.4385,146.9,96.6,0.536
11.98,32121.9,35220.2,0.5954,0.537,146.9,96.6,0.536
12.0,32043.5,35114.7,0.2121,0.2776,146.9,96.6,0.536
12.02,32036.3,35081.2,0.1769,0.1953,146.9,96.6,0.536
12.04,31949.1,34893.2,-0.2489,-0.2667,146.9,96.6,0.536
12.06,31925.3,34871.9,-0.3652,-0.3192,146.9,96.6,0.536
12.08,31827.7,34721.1,-0.8419,-0.6899,146.9,96.6,0.536
12.1,31864.9,34716.9,-0.6604,-0.7002,146.9,96.6,0.536
12.12,31871.1,34711.7,-0.6299,-0.7131,146.9,96.6,0.536
12.14,31794.2,34677.3,-1.006,-0.7976,146.9,96.6,0.536
12.16,31755.3,34467.9,-1.1957,-1.3122,146.9,96.6,0.536
12.18,31790.9,34458.7,-1.0217,-1.335,146.9,96.6,0.536
12.2,31731.6,34495.8,-1.3118,-1.2438,146.9,96.6,0.536
12.22,31863.4,34701.4,-0.6675,-0.7383,146.9,96.6,0.536
12.24,31982.6,35034.8,-0.0852,0.0812,146.9,96.6,0.536
12.26,32104.3,35333.4,0.5094,0.8154,146.9,96.6,0.536
12.28,32229.5,35659.4,1.121,1.6166,146.9,96.6,0.536
12.3,32346.8,35756.8,1.6942,1.8563,146.9,96.6,0.536
12.32,32338.8,35734.5,1.6553,1.8015,146.9,96.6,0.536
12.34,32231.1,35520.7,1.1291,1.2757,146.9,96.6,0.536
12.36,31999.8,35344.3,-0.001,0.8421,146.9,96.6,0.536
12.38,32119.7,35202.8,0.5844,0.4944,146.9,96.6,0.536
12.4,32030.6,35138.8,0.1492,0.337,146.9,96.6,0.536
12.42,31985.9,35046.8,-0.0694,0.1109,146.9,96.6,0.536
12.44,31985.7,34943.1,-0.07,-0.1441,146.9,96.6,0.536
12.46,31852.4,34804.3,-0.7213,-0.4853,146.9,96.6,0.536
12.48,31910.1,34836.0,-0.4397,-0.4073,146.9,96.6,0.536
12.5,31862.7,34706.3,-0.6709,-0.7262,146.9,96.6,0.536
12.52,31875.2,34663.1,-0.6102,-0.8324,146.9,96.6,0.536
12.54,31786.7,34671.1,-1.0425,-0.8127,146.9,96.6,0.536
12.56,31790.0,34614.8,-1.0261,-0.9513,146.9,96.6,0.536
12.58,31793.5,34475.6,-1.0091,-1.2935,146.9,96.6,0.536
12.6,31699.9,34400.6,-1.4668,-1.4777,146.9,96.6,0.536
12.62,31844.8,34539.7,-0.7586,-1.1359,146.9,96.6,0.536
12.64,31890.6,34830.0,-0.5348,-0.4221,146.9,96.6,0.536
12.66,32051.7,35136.7,0.2524,0.3317,146.9,96.6,0.536
12.68,32227.2,35555.4,1.1098,1.3611,146.9,96.6,0.536
12.7,32340.4,35749.0,1.6628,1.837,146.9,96.6,0.536
12.72,32285.7,35756.5,1.3955,1.8555,146.9,96.6,0.536
12.74,32303.0,35587.0,1.4803,1.4388,146.9,96.6,0.536
12.76,32197.9,35362.5,0.9665,0.8869,146.9,96.6,0.536
12.78,32030.2,35212.6,0.1471,0.5185,146.9,96.6,0.536
12.8,32053.6,35052.0,0.2617,0.1235,146.9,96.6,0.536
12.82,31948.3,35044.5,-0.2529,0.105,146.9,96.6,0.536
12.84,31983.7,35019.2,-0.0799,0.0429,146.9,96.6,0.536
12.86,31992.5,34850.4,-0.037,-0.3721,146.9,96.6,0.536
12.88,31904.8,34813.5,-0.4655,-0.4628,146.9,96.6,0.536
12.9,31804.0,34709.5,-0.958,-0.7184,146.9,96.6,0.536
12.92,31819.0,34607.2,-0.8846,-0.97,146.9,96.6,0.536
12.94,31854.3,34629.1,-0.7119,-0.9161,146.9,96.6,0.536
12.96,31819.4,34631.0,-0.8825,-0.9114,146.9,96.6,0.536
12.98,31744.0,34552.0,-1.2512,-1.1057,146.9,96.6,0.536
13.0,31785.3,34420.9,-1.0493,-1.4278,146.9,96.6,0.536
13.02,31665.1,34481.4,-1.6366,-1.2791,146.9,96.6,0.536
13.04,31852.5,34628.8,-0.7209,-0.9169,146.9,96.6,0.536
13.06,31998.3,34978.2,-0.0087,-0.0578,146.9,96.6,0.536
13.08,32212.5,35512.4,1.0381,1.2555,146.9,96.6,0.536
13.1,32277.1,35683.1,1.3539,1.675,146.9,96.6,0.536
13.12,32413.2,35812.0,2.0185,1.992,146.9,96.6,0.536
13.14,32405.9,35671.9,1.983,1.6476,146.9,96.6,0.536
13.16,32178.3,35412.3,0.8711,1.0093,146.9,96.6,0.536
13.18,32207.1,35204.1,1.0118,0.4975,146.9,96.6,0.536
13.2,32148.6,35133.7,0.7259,0.3244,146.9,96.6,0.536
13.22,32065.0,35142.5,0.3175,0.3461,146.9,96.6,0.536
13.24,32036.2,35045.1,0.1765,0.1066,146.9,96.6,0.536
13.26,32006.1,34877.1,0.0297,-0.3063,146.9,96.6,0.536
13.28,31963.6,34726.9,-0.1779,-0.6757,146.9,96.6,0.536
13.3,31821.5,34720.7,-0.8725,-0.6909,146.9,96.6,0.536
13.32,31863.6,34655.6,-0.6669,-0.851,146.9,96.6,0.536
13.34,31850.8,34628.4,-0.7292,-0.9177,146.9,96.6,0.536
13.36,31885.5,34606.6,-0.5597,-0.9714,146.9,96.6,0.536
13.38,31895.7,34522.0,-0.5101,-1.1794,146.9,96.6,0.536
13.4,31780.6,34530.9,-1.0724,-1.1574,146.9,96.6,0.536
13.42,31695.5,34494.5,-1.4881,-1.247,146.9,96.6,0.536
13.44,31840.0,34572.1,-0.7821,-1.0561,146.9,96.6,0.536
13.46,31907.7,34807.1,-0.451,-0.4786,146.9,96.6,0.536
13.48,32161.5,35169.2,0.789,0.4117,146.9,96.6,0.536
13.5,32292.8,35589.8,1.4306,1.4457,146.9,96.6,0.536
13.52,32293.8,35774.7,1.4352,1.9002,146.9,96.6,0.536
13.54,32376.2,35783.4,1.8379,1.9217,146.9,96.6,0.536
13.56,32295.1,35588.0,1.4417,1.4412,146.9,96.6,0.536
13.58,32129.3,35276.2,0.6313,0.6746,146.9,96.6,0.536
13.6,32108.6,35192.8,0.5305,0.4697,146.9,96.6,0.536
13.62,32037.2,35227.7,0.1814,0.5556,146.9,96.6,0.536
13.64,31981.1,35010.9,-0.0925,0.0225,146.9,96.6,0.536
13.66,31958.9,34963.0,-0.201,-0.0953,146.9,96.6,0.536
13.68,31928.0,34880.8,-0.3522,-0.2973,146.9,96.6,0.536
13.7,31885.8,34709.1,-0.5581,-0.7195,146.9,96.6,0.536
13.72,31795.3,34750.0,-1.0003,-0.6188,146.9,96.6,0.536
13.74,31871.0,34680.4,-0.6306,-0.79,146.9,96.6,0.536
13.76,31811.7,34654.9,-0.9204,-0.8527,146.9,96.6,0.536
13.78,31814.3,34705.7,-0.9074,-0.7277,146.9,96.6,0.536
13.8,31663.0,34493.9,-1.6468,-1.2485,146.9,96.6,0.536
13.82,31769.0,34521.6,-1.1288,-1.1802,146.9,96.6,0.536
13.84,31755.6,34535.4,-1.1942,-1.1464,146.9,96.6,0.536
13.86,31887.9,34774.6,-0.5482,-0.5584,146.9,96.6,0.536
13.88,32014.2,35105.1,0.069,0.254,146.9,96.6,0.536
13.9,32159.1,35385.5,0.7771,0.9435,146.9,96.6,0.536
13.92,32382.6,35705.9,1.8691,1.7311,146.9,96.6,0.536
13.94,32386.7,35731.8,1.8893,1.7948,146.9,96.6,0.536
13.96,32201.0,35619.6,0.9817,1.5188,146.9,96.6,0.536
13.98,32177.3,35492.2,0.8661,1.2058,146.9,96.6,0.536
14.0,32069.3,35322.4,0.3384,0.7884,146.9,96.6,0.536
14.02,32065.5,35047.6,0.3199,0.1129,146.9,96.6,0.536
14.04,32034.6,35096.6,0.169,0.2333,146.9,96.6,0.536
14.06,32074.2,35023.5,0.3624,0.0536,146.9,96.6,0.536
14.08,32096.7,34888.1,0.4724,-0.2794,146.9,96.6,0.536
14.1,31878.1,34804.3,-0.5959,-0.4853,146.9,96.6,0.536
14.12,31815.8,34787.5,-0.9002,-0.5266,146.9,96.6,0.536
14.14,31837.5,34775.2,-0.7945,-0.557,146.9,96.6,0.536
14.16,31862.9,34622.5,-0.67,-0.9323,146.9,96.6,0.536
14.18,31791.4,34562.1,-1.0197,-1.0806,146.9,96.6,0.536
14.2,31866.2,34606.4,-0.654,-0.9719,146.9,96.6,0.536
14.22,31838.2,34537.7,-0.7909,-1.1408,146.9,96.6,0.536
14.24,31749.6,34482.8,-1.2239,-1.2758,146.9,96.6,0.536
14.26,31908.4,34445.0,-0.448,-1.3687,146.9,96.6,0.536
14.28,31936.3,34955.0,-0.3114,-0.1149,146.9,96.6,0.536
14.3,32144.4,35310.0,0.7053,0.7579,146.9,96.6,0.536
14.32,32156.7,35637.5,0.7655,1.563,146.9,96.6,0.536
14.34,32411.4,35791.3,2.0101,1.9411,146.9,96.6,0.536
14.36,32347.0,35675.8,1.6954,1.657,146.9,96.6,0.536
14.38,32178.8,35559.2,0.8732,1.3705,146.9,96.6,0.536
14.4,32136.3,35337.5,0.6659,0.8255,146.9,96.6,0.536
14.42,32054.2,35155.0,0.2645,0.3767,146.9,96.6,0.536
14.44,32005.7,35116.9,0.0278,0.2832,146.9,96.6,0.536
14.46,32027.5,35019.3,0.1339,0.0431,146.9,96.6,0.536
14.48,31987.0,34908.2,-0.0639,-0.23,146.9,96.6,0.536
14.5,31928.4,34888.9,-0.35,-0.2774,146.9,96.6,0.536
14.52,31815.3,34785.2,-0.9025,-0.5322,146.9,96.6,0.536
14.54,31877.2,34676.0,-0.6004,-0.8008,146.9,96.6,0.536
14.56,31812.3,34566.7,-0.9175,-1.0694,146.9,96.6,0.536
14.58,31812.6,34659.0,-0.9158,-0.8426,146.9,96.6,0.536
14.6,31741.0,34550.9,-1.2659,-1.1082,146.9,96.6,0.536
14.62,31758.2,34486.8,-1.1816,-1.2658,146.9,96.6,0.536
14.64,31712.0,34441.2,-1.4073,-1.3781,146.9,96.6,0.536
14.66,31686.8,34531.0,-1.5305,-1.1571,146.9,96.6,0.536
14.68,31844.3,34796.0,-0.7612,-0.5057,146.9,96.6,0.536
14.7,32038.5,35178.1,0.1878,0.4337,146.9,96.6,0.536
14.72,32297.7,35511.4,1.4542,1.2529,146.9,96.6,0.536
14.74,32420.1,35701.0,2.0522,1.7191,146.9,96.6,0.536
14.76,32453.8,35675.7,2.2172,1.6568,146.9,96.6,0.536
14.78,32216.5,35577.5,1.0576,1.4154,146.9,96.6,0.536
14.8,32181.1,35393.1,0.8848,0.9622,146.9,96.6,0.536
14.82,32160.0,35229.5,0.7813,0.5599,146.9,96.6,0.536
14.84,32085.2,35135.5,0.4161,0.329,146.9,96.6,0.536
14.86,31965.5,35095.9,-0.169,0.2316,146.9,96.6,0.536
14.88,32102.3,35043.9,0.4996,0.1036,146.9,96.6,0.536
14.9,31980.2,34975.9,-0.0969,-0.0635,146.9,96.6,0.536
14.92,31973.8,34811.7,-0.128,-0.4671,146.9,96.6,0.536
14.94,31852.2,34647.1,-0.7223,-0.8718,146.9,96.6,0.536
14.96,31816.3,34697.8,-0.898,-0.747,146.9,96.6,0.536
14.98,31913.5,34572.0,-0.423,-1.0565,146.9,96.6,0.536
15.0,31855.3,34588.4,-0.7073,-1.0162,146.9,96.6,0.536
15.02,31838.3,34531.6,-0.7906,-1.1558,146.9,96.6,0.536
15.04,31667.3,34412.4,-1.6261,-1.4489,146.9,96.6,0.536
15.06,31782.6,34470.9,-1.0627,-1.305,146.9,96.6,0.536
15.08,31804.7,34665.3,-0.9543,-0.8271,146.9,96.6,0.536
15.1,31923.6,34977.5,-0.3737,-0.0597,146.9,96.6,0.536
15.12,32162.1,35364.7,0.7919,0.8923,146.9,96.6,0.536
15.14,32365.3,35576.3,1.7846,1.4124,146.9,96.6,0.536
15.16,32430.8,35708.0,2.1045,1.7361,146.9,96.6,0.536
15.18,32290.3,35700.6,1.4184,1.7181,146.9,96.6,0.536
15.2,32156.1,35509.6,0.7625,1.2485,146.9,96.6,0.536
15.22,32218.9,35305.9,1.0691,0.7477,146.9,96.6,0.536
15.24,32092.9,35141.4,0.4537,0.3433,146.9,96.6,0.536
15.26,32043.7,35132.0,0.2131,0.3203,146.9,96.6,0.536
15.28,32031.2,35066.8,0.152,0.1599,146.9,96.6,0.536
15.3,31943.7,35003.4,-0.2755,0.0041,146.9,96.6,0.536
15.32,31893.1,34851.2,-0.5225,-0.3701,146.9,96.6,0.536
15.34,31870.1,34741.8,-0.6351,-0.639,146.9,96.6,0.536
15.36,31827.5,34735.6,-0.8431,-0.6542,146.9,96.6,0.536
15.38,31829.0,34607.8,-0.8357,-0.9683,146.9,96.6,0.536
15.4,31806.1,34538.9,-0.9474,-1.1377,146.9,96.6,0.536
15.42,31788.8,34543.9,-1.0322,-1.1255,146.9,96.6,0.536
15.44,31778.2,34481.1,-1.0842,-1.2798,146.9,96.6,0.536
15.46,31705.5,34344.8,-1.4392,-1.6149,146.9,96.6,0.536
15.48,31792.5,34517.6,-1.0142,-1.1901,146.9,96.6,0.536
15.5,31847.3,34925.4,-0.7465,-0.1876,146.9,96.6,0.536
15.52,32184.3,35151.2,0.9001,0.3676,146.9,96.6,0.536
15.54,32331.0,35542.0,1.6169,1.3283,146.9,96.6,0.536
15.56,32330.5,35715.1,1.6146,1.7537,146.9,96.6,0.536
15.58,32345.3,35789.8,1.6867,1.9373,146.9,96.6,0.536
15.6,32336.4,35607.1,1.6435,1.4881,146.9,96.6,0.536
15.62,32241.7,35378.5,1.1808,0.9263,146.9,96.6,0.536
15.64,32150.9,35095.6,0.7369,0.2307,146.9,96.6,0.536
15.66,31995.5,35167.5,-0.022,0.4074,146.9,96.6,0.536
15.68,32024.1,35039.0,0.1174,0.0916,146.9,96.6,0.536
15.7,31988.1,35014.0,-0.0584,0.0301,146.9,96.6,0.536
15.72,31883.3,34800.8,-0.5703,-0.494,146.9,96.6,0.536
15.74,31908.5,34751.3,-0.4475,-0.6156,146.9,96.6,0.536
15.76,31879.4,34660.2,-0.5893,-0.8396,146.9,96.6,0.536
15.78,31862.9,34676.7,-0.67,-0.7989,146.9,96.6,0.536
15.8,31841.4,34590.4,-0.775,-1.0111,146.9,96.6,0.536
15.82,31828.6,34590.0,-0.8377,-1.0122,146.9,96.6,0.536
15.84,31762.4,34554.1,-1.1614,-1.1003,146.9,96.6,0.536
15.86,31710.9,34494.3,-1.4128,-1.2474,146.9,96.6,0.536
15.88,31688.4,34564.3,-1.5226,-1.0754,146.9,96.6,0.536
15.9,31902.3,34788.9,-0.4776,-0.5231,146.9,96.6,0.536
15.92,32066.1,35111.6,0.3228,0.2701,146.9,96.6,0.536
15.94,32178.3,35439.7,0.8707,1.0766,146.9,96.6,0.536
15.96,32363.8,35720.5,1.7772,1.767,146.9,96.6,0.536
15.98,32424.0,35736.9,2.0715,1.8074,146.9,96.6,0.536
16.0,32339.9,35627.6,1.6605,1.5385,146.9,96.6,0.536
16.02,32221.2,35518.5,1.0807,1.2705,146.9,96.6,0.536
16.04,32177.5,35238.3,0.8669,0.5815,146.9,96.6,0.536
16.06,32091.1,35161.5,0.4448,0.3927,146.9,96.6,0.536
16.08,32122.4,35014.4,0.598,0.0312,146.9,96.6,0.536
16.1,31958.3,35047.3,-0.2039,0.112,146.9,96.6,0.536
16.12,31990.8,34908.9,-0.0452,-0.2283,146.9,96.6,0.536
16.14,31840.2,34898.1,-0.7809,-0.2548,146.9,96.6,0.536
16.16,31913.7,34688.4,-0.422,-0.7704,146.9,96.6,0.536
16.18,31889.8,34610.7,-0.5387,-0.9614,146.9,96.6,0.536
16.2,31772.4,34691.9,-1.1124,-0.7617,146.9,96.6,0.536
16.22,31882.1,34621.1,-0.5764,-0.9357,146.9,96.6,0.536
16.24,31813.1,34621.4,-0.9132,-0.935,146.9,96.6,0.536
16.26,31759.0,34482.8,-1.1779,-1.2756,146.9,96.6,0.536
16.28,31649.7,34457.8,-1.7116,-1.337,146.9,96.6,0.536
16.3,31794.4,34529.7,-1.0047,-1.1604,146.9,96.6,0.536
16.32,31952.3,34924.3,-0.2333,-0.1904,146.9,96.6,0.536
16.34,32281.7,35153.3,1.3762,0.3726,146.9,96.6,0.536
16.36,32312.9,35518.8,1.5286,1.2711,146.9,96.6,0.536
16.38,32410.1,35723.0,2.0035,1.7731,146.9,96.6,0.536
16.4,32286.0,35752.7,1.3974,1.8461,146.9,96.6,0.536
16.42,32292.8,35572.6,1.4304,1.4034,146.9,96.6,0.536
16.44,32164.2,35338.9,0.8021,0.8288,146.9,96.6,0.536
16.46,32149.1,35174.7,0.7285,0.4252,146.9,96.6,0.536
16.48,32065.8,35038.9,0.3214,0.0913,146.9,96.6,0.536
16.5,32008.4,35042.8,0.0409,0.1011,146.9,96.6,0.536
16.52,32019.2,35066.1,0.0935,0.1581,146.9,96.6,0.536
16.54,31891.3,34814.3,-0.5312,-0.4607,146.9,96.6,0.536
16.56,31931.7,34757.7,-0.3338,-0.5998,146.9,96.6,0.536
16.58,31929.7,34578.8,-0.344,-1.0396,146.9,96.6,0.536
16.6,31851.7,34589.4,-0.7247,-1.0137,146.9,96.6,0.536
16.62,31868.3,34600.8,-0.6436,-0.9855,146.9,96.6,0.536
16.64,31804.9,34568.2,-0.9534,-1.0659,146.9,96.6,0.536
16.66,31736.8,34486.5,-1.2861,-1.2666,146.9,96.6,0.536
16.68,31708.6,34473.9,-1.424,-1.2975,146.9,96.6,0.536
16.7,31803.1,34495.6,-0.9625,-1.2443,146.9,96.6,0.536
16.72,31920.3,34827.9,-0.3899,-0.4274,146.9,96.6,0.536
16.74,32029.0,35079.3,0.1414,0.1908,146.9,96.6,0.536
16.76,32273.4,35484.8,1.3357,1.1874,146.9,96.6,0.536
16.78,32265.3,35610.9,1.296,1.4975,146.9,96.6,0.536
16.8,32325.9,35762.2,1.5921,1.8694,146.9,96.6,0.536
16.82,32323.3,35589.6,1.5795,1.4452,146.9,96.6,0.536
16.84,32236.2,35430.7,1.1539,1.0546,146.9,96.6,0.536
16.86,32150.5,35177.9,0.7352,0.4332,146.9,96.6,0.536
16.88,32038.0,35208.9,0.1856,0.5094,146.9,96.6,0.536
16.9,32043.8,35074.9,0.2138,0.1798,146.9,96.6,0.536
16.92,31964.2,35045.0,-0.1754,0.1063,146.9,96.6,0.536
16.94,31963.7,34961.6,-0.1776,-0.0987,146.9,96.6,0.536
16.96,31960.8,34880.7,-0.1916,-0.2976,146.9,96.6,0.536
16.98,31806.5,34742.0,-0.9455,-0.6386,146.9,96.6,0.536
17.0,31885.1,34633.8,-0.5616,-0.9044,146.9,96.6,0.536
17.02,31802.4,34717.3,-0.9657,-0.6991,146.9,96.6,0.536
17.04,31739.8,34668.7,-1.2718,-0.8188,146.9,96.6,0.536
17.06,31783.0,34555.5,-1.0604,-1.097,146.9,96.6,0.536
17.08,31843.9,34565.2,-0.7628,-1.0731,146.9,96.6,0.536
17.1,31795.5,34567.0,-0.9995,-1.0688,146.9,96.6,0.536
17.12,31877.1,34591.9,-0.6006,-1.0075,146.9,96.6,0.536
17.14,31901.4,34940.0,-0.4819,-0.1517,146.9,96.6,0.536
17.16,32205.7,35375.8,1.0048,0.9196,146.9,96.6,0.536
17.18,32370.4,35633.6,1.8097,1.5533,146.9,96.6,0.536
17.2,32398.1,35875.1,1.9451,2.147,146.9,96.6,0.536
17.22,32319.3,35668.3,1.5601,1.6386,146.9,96.6,0.536
17.24,32176.6,35509.6,0.8626,1.2486,146.9,96.6,0.536
17.26,32151.7,35301.4,0.7409,0.7367,146.9,96.6,0.536
17.28,32012.2,35170.7,0.0592,0.4154,146.9,96.6,0.536
17.3,32093.7,35158.8,0.4574,0.386,146.9,96.6,0.536
17.32,31951.7,35064.3,-0.2364,0.1539,146.9,96.6,0.536
17.34,31937.4,34916.7,-0.306,-0.209,146.9,96.6,0.536
17.36,31862.2,34960.9,-0.6737,-0.1003,146.9,96.6,0.536
17.38,31933.8,34717.8,-0.3236,-0.6979,146.9,96.6,0.536
17.4,31937.8,34702.4,-0.3041,-0.7358,146.9,96.6,0.536
17.42,31940.4,34697.9,-0.2914,-0.7469,146.9,96.6,0.536
17.44,31878.4,34689.2,-0.5943,-0.7683,146.9,96.6,0.536
17.46,31860.7,34502.9,-0.681,-1.2264,146.9,96.6,0.536
17.48,31783.7,34500.5,-1.0572,-1.2321,146.9,96.6,0.536
17.5,31818.0,34488.2,-0.8895,-1.2625,146.9,96.6,0.536
17.52,31769.3,34467.7,-1.1276,-1.3129,146.9,96.6,0.536
17.54,31942.5,34834.2,-0.2813,-0.4118,146.9,96.6,0.536
17.56,32173.8,35165.2,0.8488,0.4018,146.9,96.6,0.536
17.58,32257.4,35609.3,1.2576,1.4936,146.9,96.6,0.536
17.6,32440.7,35703.7,2.1528,1.7257,146.9,96.6,0.536
17.62,32370.9,35775.3,1.8121,1.9017,146.9,96.6,0.536
17.64,32187.6,35564.3,0.9165,1.383,146.9,96.6,0.536
17.66,32130.3,35379.3,0.6365,0.9282,146.9,96.6,0.536
17.68,32184.8,35204.3,0.9024,0.498,146.9,96.6,0.536
17.7,32082.5,34993.9,0.4029,-0.0193,146.9,96.6,0.536
17.72,31936.3,35123.9,-0.3117,0.3004,146.9,96.6,0.536
17.74,32078.3,34938.6,0.3824,-0.1552,146.9,96.6,0.536
17.76,31861.2,34906.4,-0.6782,-0.2345,146.9,96.6,0.536
17.78,31946.2,34799.3,-0.2633,-0.4975,146.9,96.6,0.536
17.8,31847.5,34691.7,-0.7454,-0.7622,146.9,96.6,0.536
17.82,31808.3,34643.7,-0.9368,-0.8802,146.9,96.6,0.536
17.84,31860.1,34607.1,-0.6839,-0.9701,146.9,96.6,0.536
17.86,31810.1,34647.8,-0.9279,-0.87,146.9,96.6,0.536
17.88,31730.5,34527.7,-1.3171,-1.1653,146.9,96.6,0.536
17.9,31752.0,34467.5,-1.2118,-1.3132,146.9,96.6,0.536
17.92,31663.3,34437.8,-1.6456,-1.3863,146.9,96.6,0.536
17.94,31837.2,34701.1,-0.7957,-0.7391,146.9,96.6,0.536
17.96,31971.0,35009.4,-0.142,0.0188,146.9,96.6,0.536
17.98,32185.5,35418.3,0.9059,1.0241,146.9,96.6,0.536
18.0,32270.7,35643.1,1.3222,1.5766,146.9,96.6,0.536
18.02,32420.4,35784.1,2.0537,1.9232,146.9,96.6,0.536
18.04,32274.3,35662.2,1.3397,1.6236,146.9,96.6,0.536
18.06,32178.2,35434.6,0.8703,1.0642,146.9,96.6,0.536
18.08,32162.5,35282.1,0.7939,0.6891,146.9,96.6,0.536
18.1,32065.9,35210.8,0.3219,0.5141,146.9,96.6,0.536
18.12,32031.7,35143.9,0.1546,0.3496,146.9,96.6,0.536
18.14,32042.1,35110.2,0.2056,0.2665,146.9,96.6,0.536
18.16,31928.3,34913.3,-0.3507,-0.2174,146.9,96.6,0.536
18.18,31967.2,34848.1,-0.1606,-0.3776,146.9,96.6,0.536
18.2,31903.4,34721.9,-0.4723,-0.688,146.9,96.6,0.536
18.22,31888.3,34741.7,-0.5461,-0.6391,146.9,96.6,0.536
18.24,31842.4,34714.2,-0.7701,-0.707,146.9,96.6,0.536
18.26,31879.0,34583.3,-0.5916,-1.0287,146.9,96.6,0.536
18.28,31704.6,34563.8,-1.4437,-1.0765,146.9,96.6,0.536
18.3,31751.3,34611.6,-1.2155,-0.959,146.9,96.6,0.536
18.32,31672.5,34461.9,-1.6006,-1.3271,146.9,96.6,0.536
18.34,31778.8,34663.5,-1.0808,-0.8314,146.9,96.6,0.536
18.36,31890.7,34855.8,-0.5342,-0.3587,146.9,96.6,0.536
18.38,32103.5,35278.0,0.5053,0.6791,146.9,96.6,0.536
18.4,32314.1,35627.0,1.5342,1.537,146.9,96.6,0.536
18.42,32257.6,35724.8,1.2586,1.7775,146.9,96.6,0.536
18.44,32291.0,35715.0,1.4217,1.7534,146.9,96.6,0.536
18.46,32293.6,35592.7,1.4341,1.4527,146.9,96.6,0.536
18.48,32191.7,35362.1,0.9366,0.8858,146.9,96.6,0.536
18.5,32119.0,35222.9,0.5812,0.5437,146.9,96.6,0.536
18.52,32053.3,35159.4,0.2604,0.3876,146.9,96.6,0.536
18.54,31977.0,35000.2,-0.1125,-0.0037,146.9,96.6,0.536
18.56,32047.9,35018.8,0.234,0.0421,146.9,96.6,0.536
18.58,31926.7,34875.5,-0.3583,-0.3103,146.9,96.6,0.536
18.6,31830.3,34767.1,-0.8295,-0.5769,146.9,96.6,0.536
18.62,31810.1,34694.9,-0.9283,-0.7544,146.9,96.6,0.536
18.64,31766.5,34687.8,-1.1411,-0.7716,146.9,96.6,0.536
18.66,31883.3,34723.9,-0.5707,-0.6829,146.9,96.6,0.536
18.68,31808.5,34522.0,-0.936,-1.1793,146.9,96.6,0.536
18.7,31743.0,34621.7,-1.2561,-0.9342,146.9,96.6,0.536
18.72,31761.5,34457.7,-1.1657,-1.3375,146.9,96.6,0.536
18.74,31803.5,34565.5,-0.9604,-1.0724,146.9,96.6,0.536
18.76,31823.5,34675.7,-0.8629,-0.8014,146.9,96.6,0.536
18.78,32054.7,35061.2,0.2672,0.1463,146.9,96.6,0.536
18.8,32211.0,35550.4,1.0307,1.3489,146.9,96.6,0.536
18.82,32370.5,35711.6,1.8102,1.7452,146.9,96.6,0.536
18.84,32350.0,35805.3,1.71,1.9755,146.9,96.6,0.536
18.86,32238.7,35710.6,1.1661,1.7427,146.9,96.6,0.536
18.88,32165.4,35450.2,0.8077,1.1026,146.9,96.6,0.536
18.9,32118.5,35222.1,0.5786,0.5418,146.9,96.6,0.536
18.92,32094.0,35086.3,0.4589,0.2079,146.9,96.6,0.536
18.94,32103.6,34972.5,0.5061,-0.072,146.9,96.6,0.536
18.96,31953.9,35108.7,-0.2257,0.2628,146.9,96.6,0.536
18.98,31973.9,34895.5,-0.1278,-0.2612,146.9,96.6,0.536
19.0,32022.0,34864.8,0.1075,-0.3366,146.9,96.6,0.536
19.02,31864.0,34714.7,-0.6648,-0.7055,146.9,96.6,0.536
19.04,31881.9,34697.2,-0.5773,-0.7486,146.9,96.6,0.536
19.06,31776.9,34545.6,-1.0903,-1.1212,146.9,96.6,0.536
19.08,31867.5,34685.8,-0.6478,-0.7768,146.9,96.6,0.536
19.1,31762.4,34500.9,-1.1611,-1.2313,146.9,96.6,0.536
19.12,31699.9,34554.5,-1.4664,-1.0994,146.9,96.6,0.536
19.14,31819.1,34453.8,-0.8842,-1.347,146.9,96.6,0.536
19.16,31805.6,34546.1,-0.95,-1.1202,146.9,96.6,0.536
19.18,31957.0,35000.0,-0.2104,-0.0043,146.9,96.6,0.536
19.2,32197.0,35376.1,0.9622,0.9204,146.9,96.6,0.536
19.22,32321.9,35644.7,1.5724,1.5805,146.9,96.6,0.536
19.24,32334.8,35753.8,1.6355,1.8488,146.9,96.6,0.536
19.26,32304.8,35802.1,1.4889,1.9676,146.9,96.6,0.536
19.28,32138.1,35639.8,0.6747,1.5686,146.9,96.6,0.536
19.3,32157.2,35368.8,0.7678,0.9025,146.9,96.6,0.536
19.32,32101.8,35196.5,0.4973,0.4789,146.9,96.6,0.536
19.34,32047.6,35083.0,0.2324,0.1997,146.9,96.6,0.536
19.36,31988.5,35125.7,-0.0566,0.3048,146.9,96.6,0.536
19.38,31883.1,34982.5,-0.5712,-0.0474,146.9,96.6,0.536
19.4,32044.2,34886.2,0.2157,-0.284,146.9,96.6,0.536
19.42,31885.7,34770.8,-0.5589,-0.5678,146.9,96.6,0.536
19.44,31865.7,34643.8,-0.6567,-0.88,146.9,96.6,0.536
19.46,31859.0,34678.7,-0.689,-0.794,146.9,96.6,0.536
19.48,31789.1,34674.2,-1.0307,-0.8052,146.9,96.6,0.536
19.5,31776.4,34597.7,-1.0926,-0.9934,146.9,96.6,0.536
19.52,31750.0,34459.6,-1.2217,-1.3328,146.9,96.6,0.536
19.54,31712.8,34484.1,-1.4038,-1.2725,146.9,96.6,0.536
19.56,31743.4,34480.4,-1.2538,-1.2816,146.9,96.6,0.536
19.58,31746.2,34821.7,-1.2401,-0.4425,146.9,96.6,0.536
19.6,32121.7,35113.2,0.5942,0.274,146.9,96.6,0.536
19.62,32261.9,35466.9,1.2796,1.1434,146.9,96.6,0.536
19.64,32266.9,35681.4,1.3039,1.6708,146.9,96.6,0.536
19.66,32344.0,35778.8,1.6807,1.9104,146.9,96.6,0.536
19.68,32261.4,35645.6,1.2771,1.5829,146.9,96.6,0.536
19.7,32148.5,35460.6,0.7251,1.1281,146.9,96.6,0.536
19.72,32159.6,35157.8,0.7794,0.3837,146.9,96.6,0.536
19.74,31950.7,35172.4,-0.2411,0.4195,146.9,96.6,0.536
19.76,32061.0,35086.6,0.2976,0.2086,146.9,96.6,0.536
19.78,32095.5,34921.6,0.4664,-0.197,146.9,96.6,0.536
19.8,31979.1,34956.7,-0.1025,-0.1107,146.9,96.6,0.536
19.82,31999.6,34878.4,-0.0024,-0.3033,146.9,96.6,0.536
19.84,31933.0,34760.2,-0.3279,-0.5938,146.9,96.6,0.536
19.86,31976.3,34635.3,-0.1162,-0.9007,146.9,96.6,0.536
19.88,31740.2,34627.1,-1.2698,-0.9209,146.9,96.6,0.536
19.9,31836.9,34610.9,-0.797,-0.9608,146.9,96.6,0.536
19.92,31712.5,34519.9,-1.4052,-1.1845,146.9,96.6,0.536
19.94,31659.7,34396.9,-1.6631,-1.4869,146.9,96.6,0.536
19.96,31756.8,34424.3,-1.1885,-1.4196,146.9,96.6,0.536
19.98,31905.7,34738.8,-0.461,-0.6464,146.9,96.6,0.536
20.0,31983.3,34932.7,-0.0821,-0.1697,146.9,96.6,0.536
20.02,32184.8,35321.8,0.9027,0.787,146.9,96.6,0.536
20.04,32401.7,35640.7,1.9624,1.5707,146.9,96.6,0.536
20.06,32398.4,35714.0,1.9463,1.751,146.9,96.6,0.536
20.08,32295.3,35722.7,1.4426,1.7725,146.9,96.6,0.536
20.1,32233.9,35470.4,1.1424,1.1521,146.9,96.6,0.536
20.12,32114.8,35287.6,0.5605,0.7026,146.9,96.6,0.536
20.14,32149.5,35125.1,0.7304,0.3033,146.9,96.6,0.536
20.16,32070.7,35169.1,0.3453,0.4114,146.9,96.6,0.536
20.18,31954.9,35040.0,-0.2205,0.094,146.9,96.6,0.536
20.2,31993.9,34928.4,-0.0301,-0.1802,146.9,96.6,0.536
20.22,31905.6,34857.4,-0.4617,-0.3547,146.9,96.6,0.536
20.24,31846.5,34684.3,-0.7502,-0.7804,146.9,96.6,0.536
20.26,31892.1,34709.0,-0.5277,-0.7196,146.9,96.6,0.536
20.28,31877.6,34658.3,-0.5984,-0.8443,146.9,96.6,0.536
20.3,31931.5,34613.7,-0.3351,-0.954,146.9,96.6,0.536
20.32,31829.5,34600.6,-0.8331,-0.9861,146.9,96.6,0.536
20.34,31770.6,34522.0,-1.1213,-1.1794,146.9,96.6,0.536
20.36,31764.2,34511.2,-1.1523,-1.206,146.9,96.6,0.536
20.38,31741.5,34478.8,-1.2632,-1.2855,146.9,96.6,0.536
20.4,31877.4,34841.2,-0.5994,-0.3945,146.9,96.6,0.536
20.42,32067.9,35180.4,0.3314,0.4391,146.9,96.6,0.536
20.44,32239.2,35536.8,1.1687,1.3155,146.9,96.6,0.536
20.46,32351.8,35743.8,1.7184,1.8242,146.9,96.6,0.536
20.48,32391.4,35725.2,1.9119,1.7784,146.9,96.6,0.536
20.5,32277.7,35577.5,1.3568,1.4154,146.9,96.6,0.536
20.52,32077.3,35330.3,0.3776,0.8077,146.9,96.6,0.536
20.54,32099.5,35164.5,0.4858,0.4002,146.9,96.6,0.536
20.56,32017.0,35070.4,0.083,0.1688,146.9,96.6,0.536
20.58,32078.0,35154.9,0.3809,0.3766,146.9,96.6,0.536
20.6,31946.8,35078.4,-0.2604,0.1886,146.9,96.6,0.536
20.62,31953.2,34867.8,-0.2288,-0.3292,146.9,96.6,0.536
20.64,31788.1,34732.8,-1.0358,-0.6612,146.9,96.6,0.536
20.66,31937.9,34731.1,-0.3035,-0.6653,146.9,96.6,0.536
20.68,31795.4,34708.0,-0.9999,-0.7222,146.9,96.6,0.536
20.7,31884.1,34682.5,-0.5664,-0.7849,146.9,96.6,0.536
20.72,31825.5,34650.1,-0.8528,-0.8645,146.9,96.6,0.536
20.74,31808.3,34485.1,-0.9371,-1.2701,146.9,96.6,0.536
20.76,31730.8,34428.4,-1.3158,-1.4093,146.9,96.6,0.536
20.78,31752.0,34535.8,-1.212,-1.1453,146.9,96.6,0.536
20.8,31824.0,34793.5,-0.8602,-0.5119,146.9,96.6,0.536
20.82,32028.9,34967.7,0.1408,-0.0837,146.9,96.6,0.536
20.84,32251.1,35390.7,1.2267,0.9562,146.9,96.6,0.536
20.86,32250.5,35615.1,1.2235,1.5078,146.9,96.6,0.536
20.88,32460.0,35766.0,2.2472,1.8787,146.9,96.6,0.536
20.9,32291.8,35644.9,1.4257,1.5811,146.9,96.6,0.536
20.92,32221.4,35382.1,1.0817,0.935,146.9,96.6,0.536
20.94,32127.1,35162.3,0.6205,0.3948,146.9,96.6,0.536
20.96,32022.1,35160.7,0.1079,0.3908,146.9,96.6,0.536
20.98,32048.7,35064.8,0.2374,0.1551,146.9,96.6,0.536
21.0,32024.7,35117.0,0.1206,0.2833,146.9,96.6,0.536
21.02,32004.1,34895.6,0.0199,-0.2608,146.9,96.6,0.536
21.04,31876.8,34840.5,-0.602,-0.3963,146.9,96.6,0.536
21.06,31872.4,34731.6,-0.6239,-0.6641,146.9,96.6,0.536
21.08,31911.7,34697.6,-0.4315,-0.7477,146.9,96.6,0.536
21.1,31826.2,34622.0,-0.8494,-0.9334,146.9,96.6,0.536
21.12,31864.6,34618.4,-0.6617,-0.9425,146.9,96.6,0.536
21.14,31776.2,34626.1,-1.094,-0.9235,146.9,96.6,0.536
21.16,31668.7,34540.8,-1.619,-1.133,146.9,96.6,0.536
21.18,31742.5,34477.4,-1.2582,-1.2891,146.9,96.6,0.536
21.2,31809.3,34576.0,-0.9319,-1.0465,146.9,96.6,0.536
21.22,31984.1,34922.5,-0.0781,-0.1947,146.9,96.6,0.536
21.24,32179.3,35115.7,0.876,0.2803,146.9,96.6,0.536
21.26,32311.4,35600.9,1.5213,1.473,146.9,96.6,0.536
21.28,32374.3,35643.2,1.8286,1.5769,146.9,96.6,0.536
21.3,32378.3,35767.7,1.8481,1.883,146.9,96.6,0.536
21.32,32087.6,35538.6,0.428,1.3198,146.9,96.6,0.536
21.34,32138.4,35351.2,0.6762,0.8591,146.9,96.6,0.536
21.36,32129.9,35169.3,0.6346,0.4119,146.9,96.6,0.536
21.38,31954.0,35109.9,-0.225,0.2659,146.9,96.6,0.536
21.4,32064.3,35027.3,0.3139,0.0629,146.9,96.6,0.536
21.42,31908.9,34917.7,-0.4453,-0.2065,146.9,96.6,0.536
21.44,31984.2,34890.7,-0.0777,-0.2729,146.9,96.6,0.536
21.46,31819.1,34726.8,-0.8841,-0.6758,146.9,96.6,0.536
21.48,31817.8,34706.9,-0.8907,-0.7249,146.9,96.6,0.536
21.5,31811.8,34620.8,-0.92,-0.9364,146.9,96.6,0.536
21.52,31895.0,34670.9,-0.5133,-0.8132,146.9,96.6,0.536
21.54,31860.9,34660.3,-0.6801,-0.8393,146.9,96.6,0.536
21.56,31824.3,34575.6,-0.8588,-1.0476,146.9,96.6,0.536
21.58,31728.2,34462.1,-1.3281,-1.3267,146.9,96.6,0.536
21.6,31775.3,34471.6,-1.0983,-1.3033,146.9,96.6,0.536
21.62,31873.1,34700.0,-0.6205,-0.7418,146.9,96.6,0.536
21.64,32129.1,35239.6,0.6305,0.5848,146.9,96.6,0.536
21.66,32248.5,35549.1,1.2138,1.3456,146.9,96.6,0.536
21.68,32361.1,35757.1,1.7642,1.857,146.9,96.6,0.536
21.7,32377.1,35845.1,1.8421,2.0732,146.9,96.6,0.536
21.72,32321.8,35568.2,1.5722,1.3925,146.9,96.6,0.536
21.74,32172.9,35366.3,0.8447,0.8963,146.9,96.6,0.536
21.76,32151.9,35298.8,0.7421,0.7302,146.9,96.6,0.536
21.78,32102.3,35219.0,0.4994,0.534,146.9,96.6,0.536
21.8,32090.8,35051.5,0.4433,0.1224,146.9,96.6,0.536
21.82,32040.1,35010.9,0.1957,0.0226,146.9,96.6,0.536
21.84,31943.8,34875.4,-0.2746,-0.3105,146.9,96.6,0.536
21.86,31890.3,34737.7,-0.5362,-0.649,146.9,96.6,0.536
21.88,31889.6,34734.7,-0.5395,-0.6565,146.9,96.6,0.536
21.9,31925.8,34733.2,-0.3629,-0.6602,146.9,96.6,0.536
21.92,31855.2,34634.6,-0.7078,-0.9026,146.9,96.6,0.536
21.94,31760.6,34607.9,-1.17,-0.9682,146.9,96.6,0.536
21.96,31753.0,34536.5,-1.2071,-1.1437,146.9,96.6,0.536
21.98,31664.2,34484.6,-1.641,-1.2713,146.9,96.6,0.536
22.0,31737.5,34546.4,-1.2828,-1.1194,146.9,96.6,0.536
22.02,31952.0,34684.5,-0.235,-0.7799,146.9,96.6,0.536
22.04,31890.4,34893.2,-0.5358,-0.2668,146.9,96.6,0.536
22.06,32284.4,35307.9,1.3892,0.7527,146.9,96.6,0.536
22.08,32275.7,35587.0,1.3468,1.4388,146.9,96.6,0.536
22.1,32363.9,35764.8,1.7776,1.8759,146.9,96.6,0.536
22.12,32265.8,35680.7,1.2985,1.6691,146.9,96.6,0.536
22.14,32187.3,35542.9,0.9148,1.3303,146.9,96.6,0.536
22.16,32106.4,35253.0,0.5194,0.6177,146.9,96.6,0.536
22.18,32102.1,35206.8,0.4985,0.504,146.9,96.6,0.536
22.2,32045.6,35004.0,0.2227,0.0057,146.9,96.6,0.536
22.22,31940.5,34956.1,-0.2908,-0.1121,146.9,96.6,0.536
22.24,31956.2,34927.9,-0.2141,-0.1816,146.9,96.6,0.536
22.26,31904.5,34813.9,-0.4671,-0.4617,146.9,96.6,0.536
22.28,31899.6,34751.3,-0.4906,-0.6155,146.9,96.6,0.536
22.3,31957.7,34708.8,-0.2068,-0.7201,146.9,96.6,0.536
22.32,31926.5,34676.2,-0.3595,-0.8003,146.9,96.6,0.536
22.34,31842.4,34592.6,-0.7701,-1.0057,146.9,96.6,0.536
22.36,31877.8,34497.4,-0.5973,-1.2397,146.9,96.6,0.536
22.38,31817.1,34519.2,-0.8937,-1.1861,146.9,96.6,0.536
22.4,31774.9,34412.1,-1.0999,-1.4494,146.9,96.6,0.536
22.42,31701.1,34504.5,-1.4605,-1.2223,146.9,96.6,0.536
22.44,31927.4,34788.5,-0.3552,-0.5241,146.9,96.6,0.536
22.46,32027.3,35098.2,0.1333,0.2373,146.9,96.6,0.536
22.48,32199.1,35531.7,0.9727,1.3029,146.9,96.6,0.536
22.5,32352.4,35724.7,1.7216,1.7774,146.9,96.6,0.536
22.52,32450.2,35821.3,2.1996,2.0147,146.9,96.6,0.536
22.54,32276.1,35548.0,1.3487,1.3429,146.9,96.6,0.536
22.56,32270.3,35392.7,1.3207,0.9611,146.9,96.6,0.536
22.58,32105.2,35201.5,0.5139,0.4912,146.9,96.6,0.536
22.6,32030.7,35189.5,0.1497,0.4616,146.9,96.6,0.536
22.62,32079.1,34966.6,0.3862,-0.0863,146.9,96.6,0.536
22.64,31983.1,35014.1,-0.0829,0.0303,146.9,96.6,0.536
22.66,32046.6,34874.0,0.2276,-0.3141,146.9,96.6,0.536
22.68,31882.2,34735.4,-0.5761,-0.6548,146.9,96.6,0.536
22.7,31777.2,34668.4,-1.0888,-0.8194,146.9,96.6,0.536
22.72,31842.3,34683.3,-0.7707,-0.7829,146.9,96.6,0.536
22.74,31798.0,34813.7,-0.9871,-0.4623,146.9,96.6,0.536
22.76,31886.3,34726.9,-0.5559,-0.6756,146.9,96.6,0.536
22.78,31776.0,34611.0,-1.0946,-0.9604,146.9,96.6,0.536
22.8,31695.2,34640.4,-1.4893,-0.8882,146.9,96.6,0.536
22.82,31719.7,34548.2,-1.3699,-1.1149,146.9,96.6,0.536
22.84,31770.3,34628.9,-1.1225,-0.9165,146.9,96.6,0.536
22.86,32016.2,35020.6,0.0787,0.0463,146.9,96.6,0.536
22.88,32132.9,35393.3,0.6491,0.9627,146.9,96.6,0.536
22.9,32271.2,35651.8,1.3249,1.598,146.9,96.6,0.536
22.92,32370.1,35715.1,1.8082,1.7537,146.9,96.6,0.536
22.94,32291.8,35706.5,1.4254,1.7325,146.9,96.6,0.536
22.96,32187.8,35429.3,0.9176,1.0512,146.9,96.6,0.536
22.98,32106.5,35249.7,0.5199,0.6097,146.9,96.6,0.536
23.0,32110.9,35125.3,0.5417,0.3037,146.9,96.6,0.536
23.02,32016.2,35050.4,0.0787,0.1196,146.9,96.6,0.536
23.04,32076.5,35123.8,0.3735,0.3002,146.9,96.6,0.536
23.06,31959.7,34964.1,-0.1973,-0.0924,146.9,96.6,0.536
23.08,31820.8,34838.3,-0.8758,-0.4017,146.9,96.6,0.536
23.1,31855.5,34748.7,-0.7062,-0.622,146.9,96.6,0.536
23.12,31831.1,34760.1,-0.8254,-0.594,146.9,96.6,0.536
23.14,31867.2,34650.8,-0.6491,-0.8628,146.9,96.6,0.536
23.16,31802.1,34707.9,-0.9671,-0.7224,146.9,96.6,0.536
23.18,31771.0,34602.2,-1.119,-0.9821,146.9,96.6,0.536
23.2,31731.5,34470.7,-1.312,-1.3055,146.9,96.6,0.536
23.22,31737.6,34487.7,-1.2823,-1.2636,146.9,96.6,0.536
23.24,31778.2,34526.5,-1.0839,-1.1683,146.9,96.6,0.536
23.26,31896.4,34787.3,-0.5065,-0.5271,146.9,96.6,0.536
23.28,32097.4,35246.7,0.4756,0.6021,146.9,96.6,0.536
23.3,32264.1,35595.6,1.2904,1.4599,146.9,96.6,0.536
23.32,32340.5,35718.1,1.6633,1.7611,146.9,96.6,0.536
23.34,32438.5,35747.3,2.1423,1.8327,146.9,96.6,0.536
23.36,32238.1,35586.6,1.1631,1.4377,146.9,96.6,0.536
23.38,32206.4,35337.3,1.0081,0.8249,146.9,96.6,0.536
23.4,32134.8,35118.7,0.6584,0.2875,146.9,96.6,0.536
23.42,32051.0,35127.7,0.2488,0.3097,146.9,96.6,0.536
23.44,31984.3,35117.9,-0.0771,0.2856,146.9,96.6,0.536
23.46,31993.0,34918.8,-0.0345,-0.2038,146.9,96.6,0.536
23.48,31971.9,34943.6,-0.1375,-0.1428,146.9,96.6,0.536
23.5,31895.7,34794.3,-0.5097,-0.5099,146.9,96.6,0.536
23.52,31799.6,34692.8,-0.9794,-0.7596,146.9,96.6,0.536
23.54,31845.4,34690.4,-0.7555,-0.7654,146.9,96.6,0.536
23.56,31906.3,34601.6,-0.458,-0.9835,146.9,96.6,0.536
23.58,31800.3,34661.5,-0.976,-0.8363,146.9,96.6,0.536
23.6,31827.7,34528.8,-0.8421,-1.1627,146.9,96.6,0.536
23.62,31761.8,34456.3,-1.1642,-1.3408,146.9,96.6,0.536
23.64,31740.4,34444.0,-1.2687,-1.371,146.9,96.6,0.536
23.66,31758.9,34666.8,-1.1783,-0.8235,146.9,96.6,0.536
23.68,32046.0,35038.7,0.2246,0.0908,146.9,96.6,0.536
23.7,32279.3,35459.3,1.3646,1.1248,146.9,96.6,0.536
23.72,32309.9,35746.4,1.5137,1.8306,146.9,96.6,0.536
23.74,32415.7,35749.3,2.0309,1.8377,146.9,96.6,0.536
23.76,32265.5,35581.0,1.2968,1.4239,146.9,96.6,0.536
23.78,32209.8,35450.7,1.0246,1.1037,146.9,96.6,0.536
23.8,32100.2,35294.0,0.4891,0.7184,146.9,96.6,0.536
23.82,32073.0,35135.9,0.3565,0.3299,146.9,96.6,0.536
23.84,32043.8,35104.6,0.214,0.2529,146.9,96.6,0.536
23.86,32037.7,35100.3,0.1842,0.2423,146.9,96.6,0.536
23.88,31982.0,34943.2,-0.0883,-0.1438,146.9,96.6,0.536
23.9,31965.4,34900.4,-0.1691,-0.2491,146.9,96.6,0.536
23.92,31759.8,34799.5,-1.1739,-0.4972,146.9,96.6,0.536
23.94,31913.8,34693.1,-0.4213,-0.7586,146.9,96.6,0.536
23.96,31823.6,34687.6,-0.8623,-0.7723,146.9,96.6,0.536
23.98,31815.7,34581.5,-0.9006,-1.0332,146.9,96.6,0.536
24.0,31768.7,34503.1,-1.1304,-1.2258,146.9,96.6,0.536
24.02,31744.0,34425.5,-1.2512,-1.4167,146.9,96.6,0.536
24.04,31836.4,34532.3,-0.7994,-1.154,146.9,96.6,0.536
24.06,31804.0,34675.2,-0.9581,-0.8028,146.9,96.6,0.536
24.08,31894.4,34955.3,-0.5164,-0.1141,146.9,96.6,0.536
24.1,32091.6,35285.6,0.4473,0.6979,146.9,96.6,0.536
24.12,32296.0,35641.1,1.4461,1.5717,146.9,96.6,0.536
24.14,32514.3,35833.6,2.5126,2.0449,146.9,96.6,0.536
24.16,32368.3,35698.9,1.7993,1.7138,146.9,96.6,0.536
24.18,32285.0,35474.4,1.392,1.1619,146.9,96.6,0.536
24.2,32121.1,35301.7,0.5912,0.7375,146.9,96.6,0.536
24.22,32117.8,35110.8,0.5753,0.2682,146.9,96.6,0.536
24.24,32052.7,35117.4,0.2571,0.2844,146.9,96.6,0.536
24.26,32070.2,35096.4,0.3429,0.2326,146.9,96.6,0.536
24.28,31986.0,35021.1,-0.0689,0.0477,146.9,96.6,0.536
24.3,32005.8,34892.1,0.0279,-0.2694,146.9,96.6,0.536
24.32,31874.1,34744.1,-0.6156,-0.6334,146.9,96.6,0.536
24.34,31837.7,34721.0,-0.793,-0.69,146.9,96.6,0.536
24.36,31899.2,34649.4,-0.4928,-0.8662,146.9,96.6,0.536
24.38,31798.5,34631.6,-0.985,-0.9099,146.9,96.6,0.536
24.4,31796.1,34489.7,-0.9966,-1.2587,146.9,96.6,0.536
24.42,31794.9,34486.7,-1.0022,-1.2661,146.9,96.6,0.536
24.44,31749.6,34409.8,-1.224,-1.4553,146.9,96.6,0.536
24.46,31762.8,34489.1,-1.1591,-1.2601,146.9,96.6,0.536
24.48,31855.6,34671.0,-0.7057,-0.8129,146.9,96.6,0.536
24.5,32106.7,35068.9,0.5212,0.1652,146.9,96.6,0.536
24.52,32209.4,35485.2,1.0228,1.1886,146.9,96.6,0.536
24.54,32354.1,35649.6,1.7301,1.5927,146.9,96.6,0.536
24.56,32342.5,35713.9,1.673,1.7507,146.9,96.6,0.536
24.58,32299.1,35603.2,1.4611,1.4787,146.9,96.6,0.536
24.6,32243.1,35419.1,1.1876,1.026,146.9,96.6,0.536
24.62,32128.4,35183.6,0.6272,0.4472,146.9,96.6,0.536
24.64,32051.2,35088.4,0.2497,0.2132,146.9,96.6,0.536
24.66,31987.7,35144.3,-0.0606,0.3504,146.9,96.6,0.536
24.68,32025.6,34978.4,0.1247,-0.0573,146.9,96.6,0.536
24.7,31992.4,34856.2,-0.0376,-0.3578,146.9,96.6,0.536
24.72,31967.3,34835.2,-0.16,-0.4095,146.9,96.6,0.536
24.74,31865.2,34624.6,-0.6588,-0.9272,146.9,96.6,0.536
24.76,31795.7,34709.2,-0.9986,-0.7191,146.9,96.6,0.536
24.78,31869.5,34571.2,-0.6378,-1.0585,146.9,96.6,0.536
24.8,31820.0,34671.0,-0.8799,-0.8131,146.9,96.6,0.536
24.82,31803.3,34589.6,-0.9613,-1.0131,146.9,96.6,0.536
24.84,31806.8,34493.3,-0.9443,-1.2498,146.9,96.6,0.536
24.86,31750.3,34415.6,-1.2205,-1.4408,146.9,96.6,0.536
24.88,31792.0,34669.0,-1.0166,-0.8181,146.9,96.6,0.536
24.9,32005.5,34879.0,0.0268,-0.3017,146.9,96.6,0.536
24.92,32144.7,35345.9,0.7066,0.8461,146.9,96.6,0.536
24.94,32319.1,35602.3,1.5586,1.4764,146.9,96.6,0.536
24.96,32404.1,35737.5,1.974,1.8087,146.9,96.6,0.536
24.98,32354.2,35593.7,1.7306,1.4554,146.9,96.6,0.536
25.0,32199.2,35590.3,0.9732,1.447,146.9,96.6,0.536
25.02,32139.5,35322.3,0.6812,0.7879,146.9,96.6,0.536
25.04,32034.7,35157.3,0.1692,0.3824,146.9,96.6,0.536
25.06,32043.8,35106.9,0.2136,0.2585,146.9,96.6,0.536
25.08,32029.1,35069.8,0.142,0.1672,146.9,96.6,0.536
25.1,32058.3,34964.1,0.2845,-0.0924,146.9,96.6,0.536
25.12,31886.3,34822.6,-0.5557,-0.4403,146.9,96.6,0.536
25.14,31932.4,34720.6,-0.3303,-0.6911,146.9,96.6,0.536
25.16,31770.9,34656.9,-1.1194,-0.8476,146.9,96.6,0.536
25.18,31791.9,34678.2,-1.0171,-0.7953,146.9,96.6,0.536
25.2,31824.0,34667.1,-0.8602,-0.8226,146.9,96.6,0.536
25.22,31805.1,34583.3,-0.9524,-1.0287,146.9,96.6,0.536
25.24,31729.3,34524.5,-1.323,-1.1732,146.9,96.6,0.536
25.26,31697.2,34472.3,-1.4796,-1.3016,146.9,96.6,0.536
25.28,31822.9,34477.2,-0.8654,-1.2894,146.9,96.6,0.536
25.3,31853.3,34843.2,-0.7173,-0.3898,146.9,96.6,0.536
25.32,32163.9,35252.0,0.8007,0.6152,146.9,96.6,0.536
25.34,32240.3,35516.8,1.1736,1.2663,146.9,96.6,0.536
25.36,32319.1,35728.7,1.5589,1.7871,146.9,96.6,0.536
25.38,32342.8,35766.5,1.6747,1.88,146.9,96.6,0.536
25.4,32267.4,35575.9,1.3064,1.4115,146.9,96.6,0.536
25.42,32104.1,35269.2,0.5083,0.6575,146.9,96.6,0.536
25.44,32076.1,35181.5,0.3715,0.442,146.9,96.6,0.536
25.46,32106.9,35183.7,0.522,0.4473,146.9,96.6,0.536
25.48,32004.7,35065.2,0.0225,0.1561,146.9,96.6,0.536
25.5,32004.9,35023.0,0.0238,0.0522,146.9,96.6,0.536
25.52,31882.9,34892.3,-0.5726,-0.2689,146.9,96.6,0.536
25.54,31807.6,34765.7,-0.9405,-0.5803,146.9,96.6,0.536
25.56,31854.2,34744.4,-0.7124,-0.6325,146.9,96.6,0.536
25.58,31799.5,34650.5,-0.9801,-0.8635,146.9,96.6,0.536
25.6,31888.8,34693.1,-0.5437,-0.7588,146.9,96.6,0.536
25.62,31834.8,34581.7,-0.8076,-1.0327,146.9,96.6,0.536
25.64,31889.6,34557.5,-0.5398,-1.0922,146.9,96.6,0.536
25.66,31724.2,34443.7,-1.3479,-1.3719,146.9,96.6,0.536
25.68,31760.8,34453.9,-1.1691,-1.3468,146.9,96.6,0.536
25.7,31826.5,34682.3,-0.848,-0.7852,146.9,96.6,0.536
25.72,32008.2,34996.5,0.0399,-0.0129,146.9,96.6,0.536
25.74,32141.1,35401.4,0.689,0.9826,146.9,96.6,0.536
25.76,32373.8,35682.1,1.8259,1.6725,146.9,96.6,0.536
25.78,32305.3,35726.5,1.4912,1.7818,146.9,96.6,0.536
25.8,32338.3,35718.2,1.6525,1.7614,146.9,96.6,0.536
25.82,32184.8,35389.1,0.9025,0.9523,146.9,96.6,0.536
25.84,32035.4,35312.4,0.1729,0.7636,146.9,96.6,0.536
25.86,32061.3,35144.1,0.2993,0.35,146.9,96.6,0.536
25.88,31988.9,35178.9,-0.0543,0.4356,146.9,96.6,0.536
25.9,31993.3,34982.2,-0.0331,-0.048,146.9,96.6,0.536
25.92,32047.4,34929.2,0.2316,-0.1783,146.9,96.6,0.536
25.94,31952.2,34788.3,-0.2336,-0.5248,146.9,96.6,0.536
25.96,31969.0,34727.8,-0.1518,-0.6734,146.9,96.6,0.536
25.98,31924.3,34714.6,-0.3702,-0.7058,146.9,96.6,0.536
26.0,31871.1,34741.1,-0.6302,-0.6407,146.9,96.6,0.536
26.02,31757.9,34645.3,-1.1833,-0.8762,146.9,96.6,0.536
26.04,31727.7,34609.8,-1.3308,-0.9636,146.9,96.6,0.536
26.06,31693.5,34495.7,-1.4976,-1.2441,146.9,96.6,0.536
26.08,31813.0,34439.6,-0.9141,-1.382,146.9,96.6,0.536
26.1,31760.4,34518.4,-1.1709,-1.1881,146.9,96.6,0.536
26.12,31968.5,34824.8,-0.154,-0.4349,146.9,96.6,0.536
26.14,32145.8,35229.1,0.7122,0.5589,146.9,96.6,0.536
26.16,32320.7,35580.7,1.5665,1.4232,146.9,96.6,0.536
26.18,32376.2,35768.7,1.8379,1.8855,146.9,96.6,0.536
26.2,32367.7,35708.1,1.7962,1.7364,146.9,96.6,0.536
26.22,32260.7,35594.0,1.2734,1.456,146.9,96.6,0.536
26.24,32187.3,35447.0,0.9151,1.0946,146.9,96.6,0.536
26.26,32001.9,35225.5,0.0092,0.5502,146.9,96.6,0.536
26.28,31995.2,35093.3,-0.0237,0.2251,146.9,96.6,0.536
26.3,32053.2,35029.3,0.2597,0.0677,146.9,96.6,0.536
26.32,32016.8,35084.6,0.0819,0.2038,146.9,96.6,0.536
26.34,31974.6,34875.6,-0.1245,-0.3101,146.9,96.6,0.536
26.36,31916.0,34798.8,-0.4105,-0.4989,146.9,96.6,0.536
26.38,31839.3,34651.6,-0.7857,-0.8608,146.9,96.6,0.536
26.4,31881.8,34610.3,-0.5779,-0.9623,146.9,96.6,0.536
26.42,31830.3,34549.5,-0.8295,-1.1118,146.9,96.6,0.536
26.44,31782.4,34645.4,-1.0637,-0.876,146.9,96.6,0.536
26.46,31800.4,34452.9,-0.9756,-1.3491,146.9,96.6,0.536
26.48,31824.0,34302.0,-0.8603,-1.7201,146.9,96.6,0.536
26.5,31696.0,34550.7,-1.4856,-1.1089,146.9,96.6,0.536
26.52,31804.7,34712.0,-0.9543,-0.7123,146.9,96.6,0.536
26.54,32046.5,35165.1,0.227,0.4015,146.9,96.6,0.536
26.56,32251.7,35528.1,1.2298,1.294,146.9,96.6,0.536
26.58,32399.2,35723.4,1.9504,1.774,146.9,96.6,0.536
26.6,32395.0,35826.4,1.9298,2.0274,146.9,96.6,0.536
26.62,32310.2,35648.3,1.5153,1.5894,146.9,96.6,0.536
26.64,32155.6,35344.9,0.7601,0.8437,146.9,96.6,0.536
26.66,32050.6,35306.9,0.2468,0.7501,146.9,96.6,0.536
26.68,32048.4,35088.6,0.2365,0.2135,146.9,96.6,0.536
26.7,32074.3,35095.6,0.3626,0.2308,146.9,96.6,0.536
26.72,32043.0,35059.8,0.2096,0.1427,146.9,96.6,0.536
26.74,31964.6,34976.8,-0.1732,-0.0612,146.9,96.6,0.536
26.76,31938.6,34835.2,-0.3004,-0.4093,146.9,96.6,0.536
26.78,31748.0,34693.4,-1.2315,-0.7581,146.9,96.6,0.536
26.8,31811.1,34662.6,-0.9231,-0.8338,146.9,96.6,0.536
26.82,31886.3,34665.7,-0.5559,-0.8262,146.9,96.6,0.536
26.84,31726.2,34694.7,-1.3382,-0.7548,146.9,96.6,0.536
26.86,31832.5,34557.2,-0.8186,-1.0929,146.9,96.6,0.536
26.88,31738.7,34533.8,-1.2771,-1.1503,146.9,96.6,0.536
26.9,31744.9,34504.3,-1.2466,-1.2228,146.9,96.6,0.536
26.92,31856.2,34620.1,-0.7028,-0.9383,146.9,96.6,0.536
26.94,31933.3,35009.4,-0.3261,0.0188,146.9,96.6,0.536
26.96,32192.4,35250.8,0.9397,0.6122,146.9,96.6,0.536
26.98,32208.0,35665.2,1.0159,1.6311,146.9,96.6,0.536
27.0,32410.0,35748.3,2.003,1.8354,146.9,96.6,0.536
27.02,32364.1,35681.4,1.7788,1.6707,146.9,96.6,0.536
27.04,32205.3,35578.4,1.003,1.4178,146.9,96.6,0.536
27.06,32167.3,35309.2,0.8174,0.7558,146.9,96.6,0.536
27.08,32045.2,35161.7,0.2206,0.3933,146.9,96.6,0.536
27.1,32062.7,35047.9,0.306,0.1134,146.9,96.6,0.536
27.12,32044.6,35037.1,0.2179,0.0869,146.9,96.6,0.536
27.14,31934.5,34917.6,-0.3202,-0.2069,146.9,96.6,0.536
27.16,31934.0,34877.3,-0.3227,-0.306,146.9,96.6,0.536
27.18,31908.4,34640.0,-0.4479,-0.8892,146.9,96.6,0.536
27.2,31929.5,34736.7,-0.3449,-0.6517,146.9,96.6,0.536
27.22,31789.8,34762.8,-1.0271,-0.5873,146.9,96.6,0.536
27.24,31787.2,34597.6,-1.0402,-0.9935,146.9,96.6,0.536
27.26,31912.1,34570.0,-0.4299,-1.0614,146.9,96.6,0.536
27.28,31710.1,34489.8,-1.4165,-1.2585,146.9,96.6,0.536
27.3,31747.0,34516.3,-1.2363,-1.1933,146.9,96.6,0.536
27.32,31755.9,34576.7,-1.193,-1.0448,146.9,96.6,0.536
27.34,31877.6,34753.0,-0.5981,-0.6115,146.9,96.6,0.536
27.36,32148.0,35181.4,0.7227,0.4418,146.9,96.6,0.536
27.38,32295.2,35499.2,1.442,1.223,146.9,96.6,0.536
27.4,32340.4,35744.6,1.6628,1.8262,146.9,96.6,0.536
27.42,32301.8,35724.5,1.4744,1.7769,146.9,96.6,0.536
27.44,32276.0,35650.5,1.3482,1.5949,146.9,96.6,0.536
27.46,32197.9,35377.6,0.9668,0.924,146.9,96.6,0.536
27.48,32076.2,35256.6,0.372,0.6267,146.9,96.6,0.536
27.5,32019.3,35070.1,0.0938,0.1681,146.9,96.6,0.536
27.52,31966.3,35164.6,-0.1648,0.4004,146.9,96.6,0.536
27.54,31947.4,34966.2,-0.2571,-0.0872,146.9,96.6,0.536
27.56,31890.1,34893.7,-0.5375,-0.2656,146.9,96.6,0.536
27.58,31857.4,34781.9,-0.6972,-0.5404,146.9,96.6,0.536
27.6,31922.0,34663.7,-0.3813,-0.8309,146.9,96.6,0.536
27.62,31816.0,34762.6,-0.8993,-0.588,146.9,96.6,0.536
27.64,31798.4,34713.8,-0.9853,-0.7079,146.9,96.6,0.536
27.66,31873.1,34594.8,-0.6204,-1.0003,146.9,96.6,0.536
27.68,31788.2,34576.5,-1.0352,-1.0453,146.9,96.6,0.536
27.7,31727.5,34419.9,-1.3316,-1.4302,146.9,96.6,0.536
27.72,31692.9,34558.0,-1.5006,-1.0909,146.9,96.6,0.536
27.74,31780.8,34622.1,-1.0713,-0.9332,146.9,96.6,0.536
27.76,31894.8,35017.0,-0.5141,0.0375,146.9,96.6,0.536
27.78,32195.0,35467.6,0.9523,1.1454,146.9,96.6,0.536
27.8,32363.4,35665.8,1.7751,1.6325,146.9,96.6,0.536
27.82,32477.3,35782.5,2.3321,1.9195,146.9,96.6,0.536
27.84,32304.5,35644.5,1.4876,1.5802,146.9,96.6,0.536
27.86,32223.5,35443.6,1.0917,1.0863,146.9,96.6,0.536
27.88,32169.0,35319.2,0.8257,0.7804,146.9,96.6,0.536
27.9,32119.9,35206.2,0.5855,0.5026,146.9,96.6,0.536
27.92,32097.8,35053.3,0.4776,0.1267,146.9,96.6,0.536
27.94,32065.0,35040.1,0.3171,0.0944,146.9,96.6,0.536
27.96,31925.5,34999.6,-0.3641,-0.0053,146.9,96.6,0.536
27.98,31969.1,34917.1,-0.1513,-0.208,146.9,96.6,0.536
28.0,31882.0,34658.7,-0.577,-0.8433,146.9,96.6,0.536
28.02,31827.9,34697.3,-0.841,-0.7484,146.9,96.6,0.536
28.04,31779.7,34717.3,-1.0766,-0.6993,146.9,96.6,0.536
28.06,31868.8,34661.9,-0.6412,-0.8355,146.9,96.6,0.536
28.08,31836.9,34576.8,-0.7973,-1.0446,146.9,96.6,0.536
28.1,31756.5,34397.3,-1.1901,-1.4859,146.9,96.6,0.536
28.12,31687.9,34457.0,-1.5253,-1.3391,146.9,96.6,0.536
28.14,31715.6,34484.6,-1.39,-1.2712,146.9,96.6,0.536
28.16,31996.2,34923.6,-0.0187,-0.1921,146.9,96.6,0.536
28.18,32139.2,35130.9,0.6801,0.3176,146.9,96.6,0.536
28.2,32270.3,35609.6,1.3202,1.4944,146.9,96.6,0.536
28.22,32359.2,35748.0,1.7546,1.8347,146.9,96.6,0.536
28.24,32269.0,35717.1,1.3141,1.7586,146.9,96.6,0.536
28.26,32139.4,35544.9,0.6807,1.3353,146.9,96.6,0.536
28.28,32156.8,35335.7,0.7657,0.8211,146.9,96.6,0.536
28.3,32158.4,35161.0,0.7737,0.3915,146.9,96.6,0.536
28.32,32035.0,35129.2,0.1708,0.3133,146.9,96.6,0.536
28.34,32046.1,35086.0,0.2249,0.2072,146.9,96.6,0.536
28.36,32121.4,34968.7,0.5931,-0.0813,146.9,96.6,0.536
28.38,31994.6,34826.7,-0.0267,-0.4303,146.9,96.6,0.536
28.4,31931.0,34797.7,-0.3372,-0.5015,146.9,96.6,0.536
28.42,31966.2,34682.8,-0.1655,-0.7841,146.9,96.6,0.536
28.44,31799.6,34706.4,-0.9795,-0.726,146.9,96.6,0.536
28.46,31788.8,34710.3,-1.0323,-0.7163,146.9,96.6,0.536
28.48,31897.0,34671.5,-0.5035,-0.8117,146.9,96.6,0.536
28.5,31786.5,34551.7,-1.0434,-1.1064,146.9,96.6,0.536
28.52,31733.3,34454.7,-1.3033,-1.3448,146.9,96.6,0.536
28.54,31695.6,34535.2,-1.4874,-1.1469,146.9,96.6,0.536
28.56,31812.6,34725.2,-0.9158,-0.6797,146.9,96.6,0.536
28.58,32083.7,35108.6,0.4085,0.2628,146.9,96.6,0.536
28.6,32158.6,35397.7,0.7745,0.9735,146.9,96.6,0.536
28.62,32338.9,35706.8,1.6557,1.7333,146.9,96.6,0.536
28.64,32415.6,35806.6,2.0302,1.9787,146.9,96.6,0.536
28.66,32246.3,35639.8,1.2033,1.5687,146.9,96.6,0.536
28.68,32245.5,35521.7,1.199,1.2783,146.9,96.6,0.536
28.7,32124.2,35276.1,0.6064,0.6746,146.9,96.6,0.536
28.72,32051.1,35161.6,0.2493,0.3929,146.9,96.6,0.536
28.74,32002.4,35149.8,0.0114,0.364,146.9,96.6,0.536
28.76,32035.2,35039.9,0.1715,0.0939,146.9,96.6,0.536
28.78,31929.0,34948.7,-0.3471,-0.1304,146.9,96.6,0.536
28.8,31873.3,34772.7,-0.6193,-0.563,146.9,96.6,0.536
28.82,31907.1,34704.7,-0.4542,-0.7302,146.9,96.6,0.536
28.84,31797.5,34661.3,-0.9896,-0.8369,146.9,96.6,0.536
28.86,31808.0,34656.8,-0.9385,-0.8479,146.9,96.6,0.536
28.88,31784.7,34584.1,-1.052,-1.0266,146.9,96.6,0.536
28.9,31831.5,34587.9,-0.8234,-1.0173,146.9,96.6,0.536
28.92,31782.7,34580.8,-1.0622,-1.0348,146.9,96.6,0.536
28.94,31679.9,34509.8,-1.5642,-1.2092,146.9,96.6,0.536
28.96,31828.4,34627.5,-0.8388,-0.9199,146.9,96.6,0.536
28.98,31890.4,34856.1,-0.5357,-0.3581,146.9,96.6,0.536
29.0,32094.7,35308.4,0.4625,0.7539,146.9,96.6,0.536
29.02,32328.6,35559.9,1.6051,1.3721,146.9,96.6,0.536
29.04,32325.4,35762.8,1.5899,1.871,146.9,96.6,0.536
29.06,32288.4,35737.0,1.4088,1.8074,146.9,96.6,0.536
29.08,32259.7,35526.2,1.2686,1.2893,146.9,96.6,0.536
29.1,32156.2,35251.4,0.7628,0.6138,146.9,96.6,0.536
29.12,32096.0,35127.4,0.469,0.3089,146.9,96.6,0.536
29.14,32068.1,35164.5,0.3327,0.4001,146.9,96.6,0.536
29.16,32054.2,35005.9,0.2644,0.0103,146.9,96.6,0.536
29.18,31993.4,35024.8,-0.0325,0.0568,146.9,96.6,0.536
29.2,31927.1,34883.2,-0.3566,-0.2913,146.9,96.6,0.536
29.22,31850.5,34840.7,-0.7307,-0.3958,146.9,96.6,0.536
29.24,31849.1,34630.2,-0.7375,-0.9134,146.9,96.6,0.536
29.26,31820.2,34689.7,-0.879,-0.7671,146.9,96.6,0.536
29.28,31832.5,34678.7,-0.8188,-0.7941,146.9,96.6,0.536
29.3,31850.2,34671.2,-0.7323,-0.8124,146.9,96.6,0.536
29.32,31698.4,34534.9,-1.4741,-1.1476,146.9,96.6,0.536
29.34,31791.0,34416.8,-1.0216,-1.438,146.9,96.6,0.536
29.36,31808.3,34592.1,-0.9367,-1.0071,146.9,96.6,0.536
29.38,31944.4,34635.3,-0.2721,-0.9009,146.9,96.6,0.536
29.4,32069.4,35138.2,0.3389,0.3355,146.9,96.6,0.536
29.42,32223.8,35518.3,1.0931,1.27,146.9,96.6,0.536
29.44,32286.4,35739.7,1.3993,1.8142,146.9,96.6,0.536
29.46,32417.8,35729.7,2.0413,1.7896,146.9,96.6,0.536
29.48,32257.3,35663.3,1.2571,1.6263,146.9,96.6,0.536
29.5,32222.6,35387.9,1.0875,0.9493,146.9,96.6,0.536
29.52,32065.4,35203.0,0.3194,0.4947,146.9,96.6,0.536
29.54,32034.1,35071.8,0.1663,0.1722,146.9,96.6,0.536
29.56,31964.5,35056.8,-0.1739,0.1353,146.9,96.6,0.536
29.58,32033.7,35025.7,0.1642,0.059,146.9,96.6,0.536
29.6,31930.3,34886.7,-0.3407,-0.2828,146.9,96.6,0.536
29.62,31977.0,34759.7,-0.1128,-0.5949,146.9,96.6,0.536
29.64,31838.3,34699.9,-0.7901,-0.742,146.9,96.6,0.536
29.66,31827.7,34712.4,-0.8422,-0.7113,146.9,96.6,0.536
29.68,31978.1,34648.4,-0.1074,-0.8687,146.9,96.6,0.536
29.7,31845.7,34615.3,-0.7542,-0.9499,146.9,96.6,0.536
29.72,31819.5,34673.5,-0.8823,-0.807,146.9,96.6,0.536
29.74,31745.6,34514.9,-1.2435,-1.1968,146.9,96.6,0.536
29.76,31776.4,34481.6,-1.0926,-1.2786,146.9,96.6,0.536
29.78,31904.6,34599.8,-0.4664,-0.9881,146.9,96.6,0.536
29.8,31962.2,34936.7,-0.1848,-0.1599,146.9,96.6,0.536
29.82,32184.3,35370.6,0.9004,0.9067,146.9,96.6,0.536
29.84,32377.2,35745.8,1.8426,1.8292,146.9,96.6,0.536
29.86,32377.0,35658.7,1.842,1.615,146.9,96.6,0.536
29.88,32389.6,35700.4,1.9035,1.7174,146.9,96.6,0.536
29.9,32269.9,35555.9,1.3182,1.3623,146.9,96.6,0.536
29.92,32142.6,35276.7,0.6966,0.676,146.9,96.6,0.536
29.94,31943.0,35083.3,-0.2788,0.2004,146.9,96.6,0.536
29.96,32045.6,35101.0,0.2228,0.2441,146.9,96.6,0.536
29.98,32069.3,35087.8,0.3384,0.2116,146.9,96.6,0.536
30.0,32027.8,34981.1,0.1353,-0.0506,146.9,96.6,0.536
30.02,31907.1,34872.2,-0.4544,-0.3184,146.9,96.6,0.536
30.04,31820.1,34734.3,-0.879,-0.6574,146.9,96.6,0.536
30.06,31794.6,34639.6,-1.0039,-0.8902,146.9,96.6,0.536
30.08,31859.8,34719.1,-0.6854,-0.6948,146.9,96.6,0.536
30.1,31785.6,34677.3,-1.0479,-0.7976,146.9,96.6,0.536
30.12,31789.4,34515.3,-1.0294,-1.1957,146.9,96.6,0.536
30.14,31716.5,34506.4,-1.3855,-1.2176,146.9,96.6,0.536
30.16,31743.7,34431.1,-1.2524,-1.4028,146.9,96.6,0.536
30.18,31846.7,34610.8,-0.7493,-0.961,146.9,96.6,0.536
30.2,31846.7,34814.9,-0.7491,-0.4592,146.9,96.6,0.536
30.22,32052.0,35144.1,0.2538,0.3499,146.9,96.6,0.536
30.24,32351.8,35535.2,1.7186,1.3113,146.9,96.6,0.536
30.26,32447.4,35698.3,2.1858,1.7125,146.9,96.6,0.536
30.28,32420.1,35849.4,2.0524,2.0838,146.9,96.6,0.536
30.3,32285.9,35554.1,1.3964,1.3579,146.9,96.6,0.536
30.32,32229.4,35314.2,1.1207,0.7681,146.9,96.6,0.536
30.34,32126.1,35209.1,0.6161,0.5097,146.9,96.6,0.536
30.36,32026.6,35090.9,0.1296,0.2192,146.9,96.6,0.536
30.38,32108.4,35044.4,0.5295,0.105,146.9,96.6,0.536
30.4,31981.8,35080.9,-0.0891,0.1947,146.9,96.6,0.536
30.42,31926.6,34905.9,-0.3588,-0.2355,146.9,96.6,0.536
30.44,31917.5,34716.8,-0.4035,-0.7004,146.9,96.6,0.536
30.46,31916.5,34673.6,-0.4081,-0.8067,146.9,96.6,0.536
30.48,31763.8,34616.7,-1.1542,-0.9466,146.9,96.6,0.536
30.5,31869.9,34606.1,-0.6359,-0.9725,146.9,96.6,0.536
30.52,31800.3,34647.2,-0.9762,-0.8715,146.9,96.6,0.536
30.54,31802.4,34560.3,-0.9658,-1.0851,146.9,96.6,0.536
30.56,31726.7,34450.9,-1.3355,-1.3541,146.9,96.6,0.536
30.58,31635.1,34495.7,-1.7833,-1.2441,146.9,96.6,0.536
30.6,31894.0,34710.9,-0.518,-0.715,146.9,96.6,0.536
30.62,32069.1,35013.6,0.3374,0.0291,146.9,96.6,0.536
30.64,32139.2,35400.0,0.6799,0.9791,146.9,96.6,0.536
30.66,32333.7,35708.5,1.63,1.7375,146.9,96.6,0.536
30.68,32442.4,35750.1,2.1612,1.8396,146.9,96.6,0.536
30.7,32376.0,35654.6,1.8369,1.6049,146.9,96.6,0.536
30.72,32200.2,35468.3,0.9777,1.147,146.9,96.6,0.536
30.74,32157.2,35267.5,0.7676,0.6533,146.9,96.6,0.536
30.76,32068.9,35093.4,0.3362,0.2253,146.9,96.6,0.536
30.78,32057.8,35044.6,0.2821,0.1054,146.9,96.6,0.536
30.8,32084.1,35036.2,0.4106,0.0848,146.9,96.6,0.536
30.82,31957.1,34925.2,-0.21,-0.1882,146.9,96.6,0.536
30.84,31843.4,34873.1,-0.7656,-0.3162,146.9,96.6,0.536
30.86,31851.6,34743.1,-0.7253,-0.6357,146.9,96.6,0.536
30.88,31853.1,34638.3,-0.7181,-0.8935,146.9,96.6,0.536
30.9,31822.0,34716.6,-0.8698,-0.701,146.9,96.6,0.536
30.92,31876.4,34660.9,-0.6042,-0.8378,146.9,96.6,0.536
30.94,31773.5,34559.1,-1.1068,-1.0882,146.9,96.6,0.536
30.96,31730.5,34463.4,-1.3171,-1.3234,146.9,96.6,0.536
30.98,31785.6,34480.8,-1.048,-1.2806,146.9,96.6,0.536
31.0,31818.5,34589.8,-0.8869,-1.0127,146.9,96.6,0.536
31.02,31925.7,34877.1,-0.3631,-0.3064,146.9,96.6,0.536
31.04,32135.0,35284.0,0.6596,0.6939,146.9,96.6,0.536
31.06,32270.0,35590.2,1.3189,1.4467,146.9,96.6,0.536
31.08,32454.3,35789.6,2.2195,1.9367,146.9,96.6,0.536
31.1,32398.4,35756.1,1.9465,1.8545,146.9,96.6,0.536
31.12,32263.8,35558.3,1.2887,1.3683,146.9,96.6,0.536
31.14,32125.3,35365.6,0.6122,0.8946,146.9,96.6,0.536
31.16,32082.1,35195.3,0.4007,0.4758,146.9,96.6,0.536
31.18,32063.7,35045.1,0.3108,0.1066,146.9,96.6,0.536
31.2,32009.4,35104.2,0.0459,0.252,146.9,96.6,0.536
31.22,31961.5,34968.4,-0.1884,-0.0819,146.9,96.6,0.536
31.24,31944.3,34886.1,-0.2722,-0.2843,146.9,96.6,0.536
31.26,31863.8,34792.1,-0.6657,-0.5154,146.9,96.6,0.536
31.28,31891.5,34706.2,-0.5302,-0.7265,146.9,96.6,0.536
31.3,31856.7,34550.1,-0.7006,-1.1102,146.9,96.6,0.536
31.32,31794.8,34670.8,-1.0028,-0.8134,146.9,96.6,0.536
31.34,31750.1,34622.7,-1.2211,-0.9317,146.9,96.6,0.536
31.36,31805.9,34600.7,-0.9488,-0.986,146.9,96.6,0.536
31.38,31749.9,34433.2,-1.2221,-1.3977,146.9,96.6,0.536
31.4,31759.8,34480.6,-1.1738,-1.2811,146.9,96.6,0.536
31.42,31817.3,34830.6,-0.8932,-0.4208,146.9,96.6,0.536
31.44,32043.8,35057.9,0.2137,0.1382,146.9,96.6,0.536
31.46,32234.4,35512.2,1.1449,1.2549,146.9,96.6,0.536
31.48,32264.8,35729.0,1.2938,1.7878,146.9,96.6,0.536
31.5,32410.9,35799.6,2.0075,1.9615,146.9,96.6,0.536
31.52,32280.0,35687.8,1.3678,1.6867,146.9,96.6,0.536
31.54,32188.9,35411.9,0.9225,1.0084,146.9,96.6,0.536
31.56,32095.5,35244.6,0.4663,0.5972,146.9,96.6,0.536
31.58,32058.2,35110.3,0.284,0.267,146.9,96.6,0.536
31.6,32071.5,35046.2,0.349,0.1092,146.9,96.6,0.536
31.62,31993.1,35053.4,-0.0341,0.127,146.9,96.6,0.536
31.64,32057.7,34959.1,0.2815,-0.1048,146.9,96.6,0.536
31.66,31892.2,34941.8,-0.527,-0.1474,146.9,96.6,0.536
31.68,31857.1,34640.6,-0.6986,-0.8878,146.9,96.6,0.536
31.7,31872.4,34657.4,-0.6237,-0.8465,146.9,96.6,0.536
31.72,31935.6,34643.5,-0.3148,-0.8807,146.9,96.6,0.536
31.74,31902.2,34601.1,-0.478,-0.9849,146.9,96.6,0.536
31.76,31780.1,34609.4,-1.0745,-0.9645,146.9,96.6,0.536
31.78,31792.4,34478.7,-1.0147,-1.2858,146.9,96.6,0.536
31.8,31820.4,34504.2,-0.8777,-1.2231,146.9,96.6,0.536
31.82,31772.4,34574.3,-1.1122,-1.0508,146.9,96.6,0.536
31.84,31954.4,35002.9,-0.2228,0.0028,146.9,96.6,0.536
31.86,32118.6,35281.5,0.5794,0.6878,146.9,96.6,0.536
31.88,32241.4,35646.8,1.1792,1.5857,146.9,96.6,0.536
31.9,32440.1,35778.1,2.1502,1.9086,146.9,96.6,0.536
31.92,32419.8,35683.3,2.051,1.6756,146.9,96.6,0.536
31.94,32123.7,35525.4,0.604,1.2873,146.9,96.6,0.536
31.96,32134.2,35376.4,0.6556,0.9211,146.9,96.6,0.536
31.98,31991.3,35079.4,-0.0426,0.191,146.9,96.6,0.536
32.0,32100.2,35167.7,0.4893,0.408,146.9,96.6,0.536
32.02,32036.0,35173.5,0.1756,0.4223,146.9,96.6,0.536
32.04,31990.3,34971.7,-0.0477,-0.0739,146.9,96.6,0.536
32.06,31930.7,34875.0,-0.3391,-0.3115,146.9,96.6,0.536
32.08,31985.4,34714.7,-0.0718,-0.7056,146.9,96.6,0.536
32.1,31873.1,34677.2,-0.6201,-0.7979,146.9,96.6,0.536
32.12,31799.0,34667.9,-0.9825,-0.8208,146.9,96.6,0.536
32.14,31942.5,34637.6,-0.2812,-0.895,146.9,96.6,0.536
32.16,31755.9,34643.8,-1.1932,-0.88,146.9,96.6,0.536
32.18,31740.7,34608.3,-1.267,-0.9672,146.9,96.6,0.536
32.2,31832.7,34519.7,-0.8176,-1.1849,146.9,96.6,0.536
32.22,31760.4,34472.3,-1.1707,-1.3016,146.9,96.6,0.536
32.24,31912.9,34848.6,-0.4259,-0.3764,146.9,96.6,0.536
32.26,32047.1,35069.6,0.2301,0.1668,146.9,96.6,0.536
32.28,32306.9,35478.5,1.499,1.172,146.9,96.6,0.536
32.3,32340.7,35602.5,1.6642,1.4769,146.9,96.6,0.536
32.32,32302.2,35782.0,1.4762,1.9181,146.9,96.6,0.536
32.34,32311.6,35593.3,1.5224,1.4542,146.9,96.6,0.536
32.36,32229.9,35389.9,1.123,0.9543,146.9,96.6,0.536
32.38,32073.4,35163.9,0.3582,0.3988,146.9,96.6,0.536
32.4,32025.2,35061.6,0.1228,0.1471,146.9,96.6,0.536
32.42,32047.5,35077.2,0.232,0.1855,146.9,96.6,0.536
32.44,32016.5,34984.4,0.0803,-0.0426,146.9,96.6,0.536
32.46,32009.0,34966.8,0.0438,-0.0859,146.9,96.6,0.536
32.48,31838.9,34848.3,-0.7876,-0.3773,146.9,96.6,0.536
32.5,31856.8,34773.2,-0.6998,-0.5619,146.9,96.6,0.536
32.52,31803.6,34759.7,-0.9601,-0.595,146.9,96.6,0.536
32.54,31828.5,34614.7,-0.838,-0.9515,146.9,96.6,0.536
32.56,31855.9,34599.2,-0.7041,-0.9896,146.9,96.6,0.536
32.58,31812.3,34567.7,-0.9173,-1.067,146.9,96.6,0.536
32.6,31688.0,34474.1,-1.5246,-1.2972,146.9,96.6,0.536
32.62,31696.4,34538.2,-1.4835,-1.1395,146.9,96.6,0.536
32.64,31831.7,34679.2,-0.8224,-0.7929,146.9,96.6,0.536
32.66,32040.2,35025.0,0.196,0.0571,146.9,96.6,0.536
32.68,32128.6,35423.7,0.6283,1.0374,146.9,96.6,0.536
32.7,32257.1,35679.7,1.2558,1.6666,146.9,96.6,0.536
32.72,32412.4,35747.3,2.0147,1.8327,146.9,96.6,0.536
32.74,32256.0,35689.6,1.2505,1.6909,146.9,96.6,0.536
32.76,32140.0,35462.8,0.6838,1.1335,146.9,96.6,0.536
32.78,32203.6,35242.8,0.9945,0.5927,146.9,96.6,0.536
32.8,32077.0,35266.7,0.3759,0.6514,146.9,96.6,0.536
32.82,32015.4,35071.3,0.075,0.171,146.9,96.6,0.536
32.84,32017.1,34982.4,0.0831,-0.0476,146.9,96.6,0.536
32.86,31972.5,35096.2,-0.1348,0.2321,146.9,96.6,0.536
32.88,31987.9,34816.4,-0.0593,-0.4557,146.9,96.6,0.536
32.9,31855.7,34687.4,-0.7053,-0.7727,146.9,96.6,0.536
32.92,31792.4,34659.8,-1.0146,-0.8406,146.9,96.6,0.536
32.94,31801.9,34664.8,-0.968,-0.8283,146.9,96.6,0.536
32.96,31859.5,34601.3,-0.6867,-0.9844,146.9,96.6,0.536
32.98,31739.5,34536.8,-1.2729,-1.1429,146.9,96.6,0.536
33.0,31719.8,34466.3,-1.3696,-1.3162,146.9,96.6,0.536
33.02,31673.2,34474.9,-1.597,-1.295,146.9,96.6,0.536
33.04,31777.5,34478.7,-1.0875,-1.2857,146.9,96.6,0.536
33.06,31900.5,34843.3,-0.4867,-0.3895,146.9,96.6,0.536
33.08,32135.5,35201.6,0.6618,0.4913,146.9,96.6,0.536
33.1,32191.6,35520.4,0.9361,1.275,146.9,96.6,0.536
33.12,32406.4,35740.0,1.9852,1.8148,146.9,96.6,0.536
33.14,32477.9,35674.1,2.3349,1.6529,146.9,96.6,0.536
33.16,32319.0,35552.3,1.5584,1.3534,146.9,96.6,0.536
33.18,32044.6,35362.1,0.2174,0.8858,146.9,96.6,0.536
33.2,32031.9,35229.1,0.1556,0.5589,146.9,96.6,0.536
33.22,32041.5,35204.5,0.2024,0.4985,146.9,96.6,0.536
33.24,32003.8,34939.9,0.0182,-0.152,146.9,96.6,0.536
33.26,31946.2,35006.8,-0.2631,0.0126,146.9,96.6,0.536
33.28,31966.5,34868.3,-0.1639,-0.3279,146.9,96.6,0.536
33.3,31811.8,34717.5,-0.9198,-0.6986,146.9,96.6,0.536
33.32,31828.3,34648.5,-0.8391,-0.8683,146.9,96.6,0.536
33.34,31844.9,34670.4,-0.7582,-0.8144,146.9,96.6,0.536
33.36,31712.4,34653.1,-1.4056,-0.857,146.9,96.6,0.536
33.38,31744.3,34673.9,-1.2495,-0.806,146.9,96.6,0.536
33.4,31782.3,34583.7,-1.0639,-1.0278,146.9,96.6,0.536
33.42,31774.4,34496.1,-1.1023,-1.2431,146.9,96.6,0.536
33.44,31710.8,34526.7,-1.4132,-1.1677,146.9,96.6,0.536
33.46,31914.6,34710.8,-0.4174,-0.7153,146.9,96.6,0.536
33.48,31897.8,34966.6,-0.4995,-0.0863,146.9,96.6,0.536
33.5,32182.3,35461.2,0.8906,1.1295,146.9,96.6,0.536
33.52,32330.5,35673.5,1.6147,1.6515,146.9,96.6,0.536
33.54,32447.7,35821.6,2.1872,2.0156,146.9,96.6,0.536
33.56,32214.4,35616.6,1.0472,1.5116,146.9,96.6,0.536
33.58,32259.4,35357.0,1.2671,0.8732,146.9,96.6,0.536
33.6,32169.3,35243.2,0.8271,0.5937,146.9,96.6,0.536
33.62,32020.7,35199.8,0.1008,0.4868,146.9,96.6,0.536
33.64,32043.5,35142.0,0.2122,0.3449,146.9,96.6,0.536
33.66,32104.8,35001.8,0.5119,0.0002,146.9,96.6,0.536
33.68,31859.6,34977.3,-0.6864,-0.0601,146.9,96.6,0.536
33.7,31863.6,34884.7,-0.6665,-0.2876,146.9,96.6,0.536
33.72,31937.8,34683.1,-0.3043,-0.7834,146.9,96.6,0.536
33.74,31843.2,34706.5,-0.7666,-0.7257,146.9,96.6,0.536
33.76,31793.1,34654.4,-1.0113,-0.8539,146.9,96.6,0.536
33.78,31813.5,34609.4,-0.9113,-0.9645,146.9,96.6,0.536
33.8,31801.3,34623.8,-0.9713,-0.9291,146.9,96.6,0.536
33.82,31613.5,34435.4,-1.8889,-1.3922,146.9,96.6,0.536
33.84,31751.8,34414.2,-1.2129,-1.4444,146.9,96.6,0.536
33.86,31811.3,34590.8,-0.9224,-1.0102,146.9,96.6,0.536
33.88,31985.2,34885.3,-0.0728,-0.2863,146.9,96.6,0.536
33.9,32103.6,35372.2,0.5059,0.9106,146.9,96.6,0.536
33.92,32314.9,35496.2,1.5383,1.2154,146.9,96.6,0.536
33.94,32394.2,35762.4,1.9258,1.87,146.9,96.6,0.536
33.96,32371.5,35650.1,1.8148,1.5939,146.9,96.6,0.536
33.98,32234.0,35575.8,1.1429,1.4111,146.9,96.6,0.536
34.0,32156.0,35264.0,0.7618,0.6447,146.9,96.6,0.536
34.02,32095.8,35254.6,0.4677,0.6217,146.9,96.6,0.536
34.04,31992.4,35085.0,-0.0375,0.2048,146.9,96.6,0.536
34.06,31924.7,35019.6,-0.368,0.0439,146.9,96.6,0.536
34.08,32038.1,34919.5,0.186,-0.2022,146.9,96.6,0.536
34.1,31940.8,34837.0,-0.2895,-0.4049,146.9,96.6,0.536
34.12,31838.7,34710.4,-0.7882,-0.7161,146.9,96.6,0.536
34.14,31857.4,34746.6,-0.6968,-0.6271,146.9,96.6,0.536
34.16,31853.8,34688.8,-0.7147,-0.7693,146.9,96.6,0.536
34.18,31719.4,34501.3,-1.3714,-1.2301,146.9,96.6,0.536
34.2,31804.6,34545.0,-0.9552,-1.1228,146.9,96.6,0.536
34.22,31858.5,34496.2,-0.6918,-1.2428,146.9,96.6,0.536
34.24,31741.8,34458.5,-1.2618,-1.3355,146.9,96.6,0.536
34.26,31713.7,34451.2,-1.399,-1.3534,146.9,96.6,0.536
34.28,31880.8,34708.0,-0.5829,-0.7221,146.9,96.6,0.536
34.3,32062.0,35123.1,0.3025,0.2984,146.9,96.6,0.536
34.32,32254.8,35515.7,1.2448,1.2635,146.9,96.6,0.536
34.34,32438.7,35688.6,2.1433,1.6886,146.9,96.6,0.536
34.36,32454.8,35789.7,2.2219,1.937,146.9,96.6,0.536
34.38,32300.9,35617.8,1.4701,1.5144,146.9,96.6,0.536
34.4,32118.3,35283.7,0.5776,0.6932,146.9,96.6,0.536
34.42,32088.3,35211.2,0.4313,0.5149,146.9,96.6,0.536
34.44,32005.4,35111.4,0.026,0.2697,146.9,96.6,0.536
34.46,32101.3,35133.0,0.4947,0.3226,146.9,96.6,0.536
34.48,32036.9,35010.4,0.1801,0.0214,146.9,96.6,0.536
34.5,31894.9,34821.5,-0.5138,-0.4431,146.9,96.6,0.536
34.52,31931.0,34718.5,-0.3375,-0.6963,146.9,96.6,0.536
34.54,31875.2,34742.4,-0.6101,-0.6374,146.9,96.6,0.536
34.56,31786.8,34729.2,-1.0419,-0.67,146.9,96.6,0.536
34.58,31926.0,34641.2,-0.3617,-0.8862,146.9,96.6,0.536
34.6,31780.8,34555.7,-1.0714,-1.0966,146.9,96.6,0.536
34.62,31680.0,34464.3,-1.5635,-1.3213,146.9,96.6,0.536
34.64,31716.4,34468.0,-1.3862,-1.3121,146.9,96.6,0.536
34.66,31751.4,34499.6,-1.2147,-1.2343,146.9,96.6,0.536
34.68,31841.3,34703.8,-0.7756,-0.7324,146.9,96.6,0.536
34.7,31983.2,34941.0,-0.0821,-0.1492,146.9,96.6,0.536
34.72,32264.7,35271.8,1.293,0.6639,146.9,96.6,0.536
34.74,32361.0,35601.0,1.7638,1.4733,146.9,96.6,0.536
34.76,32378.3,35770.6,1.8481,1.8902,146.9,96.6,0.536
34.78,32249.4,35684.4,1.2184,1.6782,146.9,96.6,0.536
34.8,32187.3,35478.0,0.9148,1.1708,146.9,96.6,0.536
34.82,32152.1,35326.4,0.7427,0.7982,146.9,96.6,0.536
34.84,32147.0,35091.0,0.7178,0.2194,146.9,96.6,0.536
34.86,32048.1,35092.9,0.235,0.2241,146.9,96.6,0.536
34.88,32043.1,35040.4,0.2101,0.0952,146.9,96.6,0.536
34.9,31958.5,34942.0,-0.2033,-0.147,146.9,96.6,0.536
34.92,31973.8,34931.0,-0.128,-0.174,146.9,96.6,0.536
34.94,31811.9,34797.1,-0.9194,-0.5029,146.9,96.6,0.536
34.96,31814.0,34693.2,-0.9091,-0.7584,146.9,96.6,0.536
34.98,31942.9,34717.5,-0.2795,-0.6987,146.9,96.6,0.536
35.0,31843.9,34599.3,-0.7632,-0.9894,146.9,96.6,0.536
35.02,31808.5,34578.7,-0.9359,-1.04,146.9,96.6,0.536
35.04,31689.3,34445.1,-1.5182,-1.3683,146.9,96.6,0.536
35.06,31743.7,34486.2,-1.2525,-1.2672,146.9,96.6,0.536
35.08,31755.6,34466.7,-1.1942,-1.3152,146.9,96.6,0.536
35.1,31949.8,34782.5,-0.2455,-0.5389,146.9,96.6,0.536
35.12,32039.8,35123.8,0.1944,0.3,146.9,96.6,0.536
35.14,32303.9,35518.3,1.4846,1.27,146.9,96.6,0.536
35.16,32384.0,35691.7,1.8761,1.6962,146.9,96.6,0.536
35.18,32462.2,35743.1,2.2582,1.8224,146.9,96.6,0.536
35.2,32295.6,35605.1,1.4441,1.4832,146.9,96.6,0.536
35.22,32225.4,35412.2,1.101,1.0091,146.9,96.6,0.536
35.24,31979.1,35274.4,-0.1025,0.6703,146.9,96.6,0.536
35.26,32019.2,35127.7,0.0934,0.3096,146.9,96.6,0.536
35.28,32031.5,35134.6,0.1539,0.3267,146.9,96.6,0.536
35.3,32020.8,34979.6,0.1016,-0.0545,146.9,96.6,0.536
35.32,31998.0,34919.5,-0.0098,-0.2022,146.9,96.6,0.536
35.34,31840.3,34756.2,-0.7805,-0.6035,146.9,96.6,0.536
35.36,31765.5,34689.1,-1.1458,-0.7685,146.9,96.6,0.536
35.38,31933.9,34733.3,-0.3234,-0.66,146.9,96.6,0.536
35.4,31748.0,34781.3,-1.2317,-0.542,146.9,96.6,0.536
35.42,31753.8,34568.4,-1.203,-1.0653,146.9,96.6,0.536
35.44,31841.5,34530.7,-0.7748,-1.1581,146.9,96.6,0.536
35.46,31816.9,34472.7,-0.8949,-1.3005,146.9,96.6,0.536
35.48,31658.1,34362.8,-1.671,-1.5707,146.9,96.6,0.536
35.5,31784.0,34746.6,-1.0557,-0.6272,146.9,96.6,0.536
35.52,31945.4,34971.0,-0.2668,-0.0756,146.9,96.6,0.536
35.54,32219.9,35413.9,1.0744,1.0132,146.9,96.6,0.536
35.56,32431.5,35659.0,2.1083,1.6158,146.9,96.6,0.536
35.58,32394.6,35645.9,1.9278,1.5836,146.9,96.6,0.536
35.6,32272.3,35661.6,1.3304,1.6221,146.9,96.6,0.536
35.62,32291.9,35377.8,1.4257,0.9244,146.9,96.6,0.536
35.64,32173.8,35348.1,0.8491,0.8515,146.9,96.6,0.536
35.66,32059.7,35166.6,0.2915,0.4052,146.9,96.6,0.536
35.68,32090.6,34983.8,0.4426,-0.0442,146.9,96.6,0.536
35.7,31921.5,35098.4,-0.3837,0.2376,146.9,96.6,0.536
35.72,31931.6,34896.8,-0.3346,-0.2578,146.9,96.6,0.536
35.74,31895.1,34908.1,-0.5128,-0.2301,146.9,96.6,0.536
35.76,31820.2,34690.3,-0.8789,-0.7656,146.9,96.6,0.536
35.78,31876.0,34654.9,-0.6064,-0.8526,146.9,96.6,0.536
35.8,31734.6,34671.5,-1.297,-0.8118,146.9,96.6,0.536
35.82,31843.8,34659.6,-0.7633,-0.841,146.9,96.6,0.536
35.84,31833.2,34542.0,-0.8153,-1.1301,146.9,96.6,0.536
35.86,31714.2,34488.2,-1.3967,-1.2625,146.9,96.6,0.536
35.88,31765.2,34471.1,-1.1473,-1.3044,146.9,96.6,0.536
35.9,31799.3,34539.8,-0.981,-1.1355,146.9,96.6,0.536
35.92,31994.5,34875.3,-0.0273,-0.3109,146.9,96.6,0.536
35.94,32171.1,35200.8,0.8358,0.4894,146.9,96.6,0.536
35.96,32295.2,35517.4,1.442,1.2677,146.9,96.6,0.536
35.98,32440.2,35697.9,2.1506,1.7115,146.9,96.6,0.536
36.0,32349.3,35731.9,1.7062,1.7949,146.9,96.6,0.536
36.02,32271.4,35503.7,1.3258,1.2341,146.9,96.6,0.536
36.04,32181.2,35458.8,0.8853,1.1236,146.9,96.6,0.536
36.06,32022.7,35225.2,0.1107,0.5493,146.9,96.6,0.536
36.08,32088.5,35144.5,0.4322,0.351,146.9,96.6,0.536
36.1,32037.3,35128.6,0.1819,0.3118,146.9,96.6,0.536
36.12,31980.7,34888.4,-0.0946,-0.2787,146.9,96.6,0.536
36.14,31915.1,34915.8,-0.4152,-0.2113,146.9,96.6,0.536
36.16,31863.9,34834.1,-0.6654,-0.412,146.9,96.6,0.536
36.18,31888.0,34730.3,-0.5473,-0.6673,146.9,96.6,0.536
36.2,31887.6,34724.7,-0.5495,-0.6811,146.9,96.6,0.536
36.22,31815.1,34633.3,-0.9038,-0.9057,146.9,96.6,0.536
36.24,31869.3,34677.3,-0.6388,-0.7976,146.9,96.6,0.536
36.26,31778.1,34559.1,-1.0843,-1.0881,146.9,96.6,0.536
36.28,31709.8,34548.5,-1.418,-1.1141,146.9,96.6,0.536
36.3,31780.9,34537.9,-1.0707,-1.1403,146.9,96.6,0.536
36.32,31938.6,34743.0,-0.3002,-0.636,146.9,96.6,0.536
36.34,32020.2,35166.9,0.0985,0.406,146.9,96.6,0.536
36.36,32261.1,35464.6,1.2754,1.1379,146.9,96.6,0.536
36.38,32353.0,35708.0,1.7245,1.7363,146.9,96.6,0.536
36.4,32364.5,35813.2,1.7806,1.9949,146.9,96.6,0.536
36.42,32300.3,35684.8,1.467,1.6793,146.9,96.6,0.536
36.44,32046.9,35343.2,0.2287,0.8395,146.9,96.6,0.536
36.46,32021.8,35256.1,0.1062,0.6252,146.9,96.6,0.536
36.48,32095.7,35135.4,0.4675,0.3286,146.9,96.6,0.536
36.5,32021.8,35192.6,0.106,0.4693,146.9,96.6,0.536
36.52,31993.6,35058.8,-0.0314,0.1404,146.9,96.6,0.536
36.54,31902.6,34931.0,-0.476,-0.1738,146.9,96.6,0.536
36.56,31945.6,34768.1,-0.2662,-0.5744,146.9,96.6,0.536
36.58,31857.3,34734.9,-0.6977,-0.6561,146.9,96.6,0.536
36.6,31842.7,34662.8,-0.7687,-0.8332,146.9,96.6,0.536
36.62,31858.2,34666.0,-0.6931,-0.8254,146.9,96.6,0.536
36.64,31781.3,34660.7,-1.069,-0.8383,146.9,96.6,0.536
36.66,31701.1,34595.5,-1.4608,-0.9986,146.9,96.6,0.536
36.68,31668.0,34476.8,-1.6224,-1.2904,146.9,96.6,0.536
36.7,31763.5,34529.6,-1.1558,-1.1606,146.9,96.6,0.536
36.72,31724.9,34613.8,-1.3446,-0.9537,146.9,96.6,0.536
36.74,31978.8,34903.2,-0.1037,-0.2422,146.9,96.6,0.536
36.76,32148.8,35285.1,0.7268,0.6965,146.9,96.6,0.536
36.78,32404.3,35547.0,1.9752,1.3404,146.9,96.6,0.536
36.8,32340.7,35790.3,1.6644,1.9386,146.9,96.6,0.536
36.82,32341.2,35730.0,1.6669,1.7903,146.9,96.6,0.536
36.84,32225.2,35457.3,1.1003,1.1199,146.9,96.6,0.536
36.86,32184.0,35244.6,0.8986,0.5971,146.9,96.6,0.536
36.88,32038.3,35074.1,0.1868,0.1779,146.9,96.6,0.536
36.9,32069.1,35039.8,0.3376,0.0936,146.9,96.6,0.536
36.92,32043.9,35111.3,0.2143,0.2692,146.9,96.6,0.536
36.94,32006.3,35027.1,0.0307,0.0625,146.9,96.6,0.536
36.96,31919.5,34850.2,-0.3938,-0.3725,146.9,96.6,0.536
36.98,31847.8,34823.0,-0.7438,-0.4395,146.9,96.6,0.536
37.0,31863.2,34655.1,-0.6686,-0.8523,146.9,96.6,0.536
37.02,31840.4,34669.2,-0.7799,-0.8174,146.9,96.6,0.536
37.04,31829.3,34667.3,-0.8341,-0.8222,146.9,96.6,0.536
37.06,31764.9,34618.0,-1.1491,-0.9433,146.9,96.6,0.536
37.08,31740.8,34474.7,-1.2666,-1.2956,146.9,96.6,0.536
37.1,31718.3,34498.1,-1.3767,-1.238,146.9,96.6,0.536
37.12,31815.9,34452.7,-0.8997,-1.3497,146.9,96.6,0.536
37.14,31898.7,34722.8,-0.4951,-0.6857,146.9,96.6,0.536
37.16,32046.9,35212.7,0.2291,0.5186,146.9,96.6,0.536
37.18,32235.0,35536.7,1.1482,1.3151,146.9,96.6,0.536
37.2,32411.0,35743.8,2.0078,1.8243,146.9,96.6,0.536
37.22,32391.7,35827.8,1.9134,2.0307,146.9,96.6,0.536
37.24,32266.8,35602.3,1.3032,1.4765,146.9,96.6,0.536
37.26,32149.9,35340.4,0.732,0.8326,146.9,96.6,0.536
37.28,32049.8,35230.2,0.2429,0.5616,146.9,96.6,0.536
37.3,32077.4,35097.2,0.3782,0.2346,146.9,96.6,0.536
37.32,32004.3,35119.5,0.0207,0.2896,146.9,96.6,0.536
37.34,31990.1,34930.0,-0.0485,-0.1763,146.9,96.6,0.536
37.36,31908.6,34920.9,-0.4469,-0.1987,146.9,96.6,0.536
37.38,31904.1,34845.7,-0.469,-0.3836,146.9,96.6,0.536
37.4,31836.3,34598.1,-0.7999,-0.9924,146.9,96.6,0.536
37.42,31775.2,34700.0,-1.0988,-0.7419,146.9,96.6,0.536
37.44,31835.8,34780.2,-0.8026,-0.5445,146.9,96.6,0.536
37.46,31776.6,34580.7,-1.0919,-1.0349,146.9,96.6,0.536
37.48,31769.0,34480.9,-1.1287,-1.2805,146.9,96.6,0.536
37.5,31861.6,34445.0,-0.6762,-1.3686,146.9,96.6,0.536
37.52,31764.9,34502.2,-1.149,-1.2281,146.9,96.6,0.536
37.54,31814.3,34633.4,-0.9075,-0.9054,146.9,96.6,0.536
37.56,31963.9,34958.0,-0.1767,-0.1075,146.9,96.6,0.536
37.58,32151.3,35404.7,0.7389,0.9905,146.9,96.6,0.536
37.6,32335.6,35756.2,1.6393,1.8547,146.9,96.6,0.536
37.62,32364.4,35768.9,1.78,1.8859,146.9,96.6,0.536
37.64,32340.1,35641.9,1.6614,1.5738,146.9,96.6,0.536
37.66,32240.2,35415.0,1.1733,1.0159,146.9,96.6,0.536
37.68,32217.0,35347.8,1.0598,0.8508,146.9,96.6,0.536
37.7,32118.6,35172.8,0.5794,0.4206,146.9,96.6,0.536
37.72,32066.9,35144.1,0.3265,0.3499,146.9,96.6,0.536
37.74,32068.9,34985.8,0.3364,-0.0391,146.9,96.6,0.536
37.76,31975.5,34962.2,-0.1202,-0.0973,146.9,96.6,0.536
37.78,31937.6,34757.0,-0.3049,-0.6017,146.9,96.6,0.536
37.8,31891.4,34736.0,-0.5308,-0.6531,146.9,96.6,0.536
37.82,31885.8,34649.2,-0.558,-0.8668,146.9,96.6,0.536
37.84,31761.0,34690.9,-1.1679,-0.7642,146.9,96.6,0.536
37.86,31739.8,34652.7,-1.2714,-0.8581,146.9,96.6,0.536
37.88,31751.5,34509.4,-1.2146,-1.2104,146.9,96.6,0.536
37.9,31727.6,34419.3,-1.3313,-1.4319,146.9,96.6,0.536
37.92,31740.1,34456.7,-1.2703,-1.3398,146.9,96.6,0.536
37.94,31827.9,34626.7,-0.8413,-0.922,146.9,96.6,0.536
37.96,31865.4,34841.5,-0.6579,-0.3939,146.9,96.6,0.536
37.98,32113.7,35193.8,0.5553,0.4721,146.9,96.6,0.536
38.0,32332.0,35441.6,1.6219,1.0813,146.9,96.6,0.536
38.02,32378.6,35825.3,1.8496,2.0247,146.9,96.6,0.536
38.04,32355.3,35735.6,1.7355,1.804,146.9,96.6,0.536
38.06,32327.3,35592.6,1.5987,1.4526,146.9,96.6,0.536
38.08,32135.1,35362.9,0.66,0.8879,146.9,96.6,0.536
38.1,32100.6,35213.9,0.4915,0.5216,146.9,96.6,0.536
38.12,32056.5,35191.0,0.2756,0.4653,146.9,96.6,0.536
38.14,32031.6,35046.1,0.1541,0.109,146.9,96.6,0.536
38.16,31950.9,35018.0,-0.2403,0.04,146.9,96.6,0.536
38.18,31952.0,34912.9,-0.2349,-0.2184,146.9,96.6,0.536
38.2,31847.9,34729.9,-0.7436,-0.6683,146.9,96.6,0.536
38.22,31867.2,34616.0,-0.6493,-0.9482,146.9,96.6,0.536
38.24,31884.3,34634.5,-0.5654,-0.9028,146.9,96.6,0.536
38.26,31859.1,34646.7,-0.6886,-0.8727,146.9,96.6,0.536
38.28,31791.9,34601.9,-1.0171,-0.9829,146.9,96.6,0.536
38.3,31790.9,34479.1,-1.022,-1.2847,146.9,96.6,0.536
38.32,31755.3,34443.6,-1.196,-1.372,146.9,96.6,0.536
38.34,31704.7,34493.4,-1.4433,-1.2497,146.9,96.6,0.536
38.36,31731.7,34734.9,-1.3111,-0.656,146.9,96.6,0.536
38.38,32064.4,35099.0,0.3142,0.2392,146.9,96.6,0.536
38.4,32158.5,35435.6,0.7743,1.0665,146.9,96.6,0.536
38.42,32326.4,35637.8,1.5944,1.5636,146.9,96.6,0.536
38.44,32341.3,35710.4,1.6675,1.7422,146.9,96.6,0.536
38.46,32325.4,35662.2,1.5897,1.6237,146.9,96.6,0.536
38.48,32139.3,35457.2,0.6801,1.1196,146.9,96.6,0.536
38.5,32134.9,35287.1,0.6586,0.7016,146.9,96.6,0.536
38.52,32077.9,35133.6,0.3803,0.3242,146.9,96.6,0.536
38.54,31888.9,35002.7,-0.5431,0.0023,146.9,96.6,0.536
38.56,32031.6,35059.5,0.1543,0.142,146.9,96.6,0.536
38.58,32000.7,34850.8,0.0031,-0.3711,146.9,96.6,0.536
38.6,31837.2,34851.5,-0.7958,-0.3694,146.9,96.6,0.536
38.62,31928.2,34732.5,-0.351,-0.6619,146.9,96.6,0.536
38.64,31881.1,34675.8,-0.5813,-0.8013,146.9,96.6,0.536
38.66,31808.1,34699.7,-0.9378,-0.7426,146.9,96.6,0.536
38.68,31751.5,34686.4,-1.2146,-0.7753,146.9,96.6,0.536
38.7,31794.8,34689.6,-1.0031,-0.7672,146.9,96.6,0.536
38.72,31732.9,34388.3,-1.3054,-1.5079,146.9,96.6,0.536
38.74,31640.0,34483.4,-1.759,-1.2743,146.9,96.6,0.536
38.76,31730.6,34586.0,-1.3167,-1.0221,146.9,96.6,0.536
38.78,31979.8,34890.6,-0.0989,-0.2731,146.9,96.6,0.536
38.8,32143.0,35221.6,0.6986,0.5405,146.9,96.6,0.536
38.82,32292.6,35552.8,1.4296,1.3547,146.9,96.6,0.536
38.84,32391.5,35787.5,1.9128,1.9317,146.9,96.6,0.536
38.86,32365.7,35694.5,1.7865,1.7029,146.9,96.6,0.536
38.88,32184.1,35490.2,0.8995,1.2008,146.9,96.6,0.536
38.9,32236.3,35356.5,1.1541,0.8722,146.9,96.6,0.536
38.92,32171.7,35184.2,0.8387,0.4485,146.9,96.6,0.536
38.94,32082.3,35101.2,0.4018,0.2446,146.9,96.6,0.536
38.96,32086.2,35104.0,0.4209,0.2515,146.9,96.6,0.536
38.98,32030.1,35030.5,0.1468,0.0708,146.9,96.6,0.536
39.0,31979.8,34793.7,-0.0989,-0.5115,146.9,96.6,0.536
39.02,31887.9,34732.6,-0.548,-0.6617,146.9,96.6,0.536
39.04,31829.7,34748.0,-0.8323,-0.6238,146.9,96.6,0.536
39.06,31848.2,34702.8,-0.7422,-0.7348,146.9,96.6,0.536
39.08,31884.3,34664.7,-0.5655,-0.8285,146.9,96.6,0.536
39.1,31776.8,34607.6,-1.0908,-0.9688,146.9,96.6,0.536
39.12,31717.3,34492.2,-1.3815,-1.2526,146.9,96.6,0.536
39.14,31760.8,34406.0,-1.1691,-1.4644,146.9,96.6,0.536
39.16,31744.1,34534.7,-1.2505,-1.1481,146.9,96.6,0.536
39.18,31843.5,34725.1,-0.7648,-0.68,146.9,96.6,0.536
39.2,32004.0,35104.5,0.0192,0.2527,146.9,96.6,0.536
39.22,32178.1,35449.2,0.8697,1.1001,146.9,96.6,0.536
39.24,32378.8,35678.1,1.8505,1.6626,146.9,96.6,0.536
39.26,32357.8,35815.9,1.748,2.0015,146.9,96.6,0.536
39.28,32304.2,35721.1,1.486,1.7684,146.9,96.6,0.536
39.3,32177.0,35466.0,0.8647,1.1414,146.9,96.6,0.536
39.32,32128.9,35269.1,0.6297,0.6574,146.9,96.6,0.536
39.34,32117.1,35154.2,0.5721,0.3747,146.9,96.6,0.536
39.36,32003.1,34976.2,0.015,-0.0627,146.9,96.6,0.536
39.38,32063.1,34935.4,0.308,-0.1632,146.9,96.6,0.536
39.4,31891.9,34973.4,-0.5282,-0.0695,146.9,96.6,0.536
39.42,31853.2,34853.1,-0.7177,-0.3653,146.9,96.6,0.536
39.44,31769.6,34731.1,-1.126,-0.6654,146.9,96.6,0.536
39.46,31783.7,34571.7,-1.0573,-1.0572,146.9,96.6,0.536
39.48,31793.9,34714.0,-1.0074,-0.7074,146.9,96.6,0.536
39.5,31851.5,34619.7,-0.7258,-0.9391,146.9,96.6,0.536
39.52,31804.3,34562.6,-0.9564,-1.0795,146.9,96.6,0.536
39.54,31694.8,34451.1,-1.4916,-1.3536,146.9,96.6,0.536
39.56,31643.4,34382.5,-1.7424,-1.5224,146.9,96.6,0.536
39.58,31858.2,34598.3,-0.693,-0.9918,146.9,96.6,0.536
39.6,32030.8,34990.7,0.1502,-0.0271,146.9,96.6,0.536
39.62,32151.7,35327.6,0.7409,0.8011,146.9,96.6,0.536
39.64,32225.6,35609.1,1.1019,1.4931,146.9,96.6,0.536
39.66,32345.9,35852.8,1.6899,2.0921,146.9,96.6,0.536
39.68,32315.8,35767.4,1.5426,1.8822,146.9,96.6,0.536
39.7,32245.7,35435.1,1.2004,1.0654,146.9,96.6,0.536
39.72,32095.2,35234.8,0.4649,0.573,146.9,96.6,0.536
39.74,32069.4,35137.8,0.3387,0.3344,146.9,96.6,0.536
39.76,32186.7,35172.7,0.9122,0.4203,146.9,96.6,0.536
39.78,31997.9,35042.1,-0.0108,0.0991,146.9,96.6,0.536
39.8,32004.2,34964.0,0.02,-0.0928,146.9,96.6,0.536
39.82,31884.8,34850.5,-0.563,-0.3719,146.9,96.6,0.536
39.84,31959.4,34772.7,-0.1986,-0.563,146.9,96.6,0.536
39.86,31844.4,34736.7,-0.7605,-0.6516,146.9,96.6,0.536
39.88,31809.5,34630.7,-0.931,-0.9121,146.9,96.6,0.536
39.9,31905.3,34570.0,-0.463,-1.0613,146.9,96.6,0.536
39.92,31907.3,34584.0,-0.4533,-1.027,146.9,96.6,0.536
39.94,31807.2,34452.9,-0.9424,-1.3492,146.9,96.6,0.536
39.96,31837.3,34501.7,-0.7953,-1.2292,146.9,96.6,0.536
39.98,31754.4,34528.6,-1.2004,-1.1631,146.9,96.6,0.536
40.0,31921.7,34815.6,-0.3827,-0.4575,146.9,96.6,0.536
40.02,31929.4,35113.1,-0.3452,0.2738,146.9,96.6,0.536
40.04,32235.4,35531.4,1.1498,1.302,146.9,96.6,0.536
40.06,32439.9,35721.5,2.1492,1.7694,146.9,96.6,0.536
40.08,32284.9,35695.9,1.3917,1.7064,146.9,96.6,0.536
40.1,32249.6,35589.4,1.2194,1.4447,146.9,96.6,0.536
40.12,32211.5,35292.4,1.0331,0.7147,146.9,96.6,0.536
40.14,32040.8,35238.9,0.1992,0.5831,146.9,96.6,0.536
40.16,32080.8,35152.5,0.3944,0.3706,146.9,96.6,0.536
40.18,31995.7,35124.9,-0.0215,0.3029,146.9,96.6,0.536
40.2,32014.5,34987.2,0.0704,-0.0358,146.9,96.6,0.536
40.22,31972.3,34920.0,-0.1357,-0.201,146.9,96.6,0.536
40.24,31945.3,34867.6,-0.2673,-0.3297,146.9,96.6,0.536
40.26,31888.3,34714.5,-0.5458,-0.7061,146.9,96.6,0.536
40.28,31781.1,34756.7,-1.0696,-0.6024,146.9,96.6,0.536
40.3,31774.8,34677.3,-1.1004,-0.7975,146.9,96.6,0.536
40.32,31754.9,34685.7,-1.1976,-0.777,146.9,96.6,0.536
40.34,31832.2,34526.1,-0.8201,-1.1692,146.9,96.6,0.536
40.36,31712.3,34401.0,-1.4059,-1.4769,146.9,96.6,0.536
40.38,31772.4,34550.5,-1.1122,-1.1092,146.9,96.6,0.536
40.4,31814.3,34616.8,-0.9076,-0.9462,146.9,96.6,0.536
40.42,31942.8,34941.1,-0.2795,-0.149,146.9,96.6,0.536
40.44,32244.5,35348.8,1.1945,0.8533,146.9,96.6,0.536
40.46,32362.2,35676.6,1.7695,1.6592,146.9,96.6,0.536
40.48,32314.6,35786.6,1.5371,1.9295,146.9,96.6,0.536
40.5,32361.2,35671.3,1.7647,1.6459,146.9,96.6,0.536
40.52,32222.7,35510.5,1.0878,1.2508,146.9,96.6,0.536
40.54,32144.7,35351.4,0.7068,0.8595,146.9,96.6,0.536
40.56,32082.9,35156.3,0.4048,0.3799,146.9,96.6,0.536
40.58,32068.5,35142.2,0.3343,0.3454,146.9,96.6,0.536
40.6,31947.3,35086.7,-0.2575,0.2089,146.9,96.6,0.536
40.62,31963.6,35000.3,-0.1781,-0.0035,146.9,96.6,0.536
40.64,31885.4,34718.9,-0.5603,-0.6954,146.9,96.6,0.536
40.66,31951.6,34751.5,-0.2366,-0.6152,146.9,96.6,0.536
40.68,31846.0,34664.4,-0.7528,-0.8292,146.9,96.6,0.536
40.7,31973.9,34585.2,-0.128,-1.024,146.9,96.6,0.536
40.72,31827.8,34677.5,-0.8418,-0.7972,146.9,96.6,0.536
40.74,31802.8,34604.0,-0.9637,-0.9777,146.9,96.6,0.536
40.76,31736.8,34510.8,-1.2863,-1.2069,146.9,96.6,0.536
40.78,31699.0,34488.6,-1.4712,-1.2615,146.9,96.6,0.536
40.8,31796.7,34576.3,-0.9934,-1.0458,146.9,96.6,0.536
40.82,31944.4,34772.3,-0.2721,-0.5641,146.9,96.6,0.536
40.84,32294.4,35230.3,1.4381,0.562,146.9,96.6,0.536
40.86,32342.9,35633.2,1.6752,1.5523,146.9,96.6,0.536
40.88,32365.9,35665.9,1.7875,1.6328,146.9,96.6,0.536
40.9,32466.6,35712.6,2.2794,1.7475,146.9,96.6,0.536
40.92,32167.1,35592.6,0.8162,1.4525,146.9,96.6,0.536
40.94,32124.0,35369.0,0.6056,0.903,146.9,96.6,0.536
40.96,32116.3,35142.9,0.5681,0.347,146.9,96.6,0.536
40.98,32148.0,35174.0,0.7231,0.4235,146.9,96.6,0.536
41.0,32001.3,35123.9,0.0062,0.3004,146.9,96.6,0.536
41.02,32125.3,35007.0,0.612,0.013,146.9,96.6,0.536
41.04,31867.9,34923.5,-0.6458,-0.1923,146.9,96.6,0.536
41.06,31859.4,34760.3,-0.6872,-0.5936,146.9,96.6,0.536
41.08,31798.3,34713.6,-0.9858,-0.7082,146.9,96.6,0.536
41.1,31840.2,34676.0,-0.7812,-0.8007,146.9,96.6,0.536
41.12,31846.2,34679.3,-0.7518,-0.7927,146.9,96.6,0.536
41.14,31777.1,34585.7,-1.0895,-1.0228,146.9,96.6,0.536
41.16,31776.2,34488.3,-1.0939,-1.2622,146.9,96.6,0.536
41.18,31671.3,34569.3,-1.6062,-1.0632,146.9,96.6,0.536
41.2,31857.9,34426.8,-0.6948,-1.4134,146.9,96.6,0.536
41.22,31867.6,34694.8,-0.6474,-0.7545,146.9,96.6,0.536
41.24,32094.3,35091.9,0.4603,0.2217,146.9,96.6,0.536
41.26,32203.4,35412.8,0.9938,1.0107,146.9,96.6,0.536
41.28,32372.4,35684.9,1.8192,1.6795,146.9,96.6,0.536
41.3,32289.3,35820.5,1.4131,2.0127,146.9,96.6,0.536
41.32,32363.4,35632.1,1.7751,1.5495,146.9,96.6,0.536
41.34,32202.6,35352.8,0.9897,0.8631,146.9,96.6,0.536
41.36,32177.8,35246.2,0.8685,0.6009,146.9,96.6,0.536
41.38,32052.4,35139.3,0.2558,0.3381,146.9,96.6,0.536
41.4,32052.5,35066.7,0.2563,0.1596,146.9,96.6,0.536
41.42,31965.4,35001.6,-0.1692,-0.0002,146.9,96.6,0.536
41.44,31972.3,34960.3,-0.1354,-0.1017,146.9,96.6,0.536
41.46,31942.9,34783.4,-0.2792,-0.5368,146.9,96.6,0.536
41.48,31889.2,34710.9,-0.5419,-0.7149,146.9,96.6,0.536
41.5,31877.8,34621.3,-0.5976,-0.9352,146.9,96.6,0.536
41.52,31806.0,34615.3,-0.9482,-0.9499,146.9,96.6,0.536
41.54,31761.3,34533.9,-1.1667,-1.15,146.9,96.6,0.536
41.56,31736.5,34559.1,-1.2879,-1.0881,146.9,96.6,0.536
41.58,31767.2,34492.6,-1.1378,-1.2516,146.9,96.6,0.536
41.6,31733.7,34454.8,-1.3016,-1.3446,146.9,96.6,0.536
41.62,31844.2,34585.6,-0.7615,-1.0231,146.9,96.6,0.536
41.64,31965.0,34879.2,-0.1715,-0.3013,146.9,96.6,0.536
41.66,32149.6,35240.3,0.7309,0.5865,146.9,96.6,0.536
41.68,32267.1,35558.1,1.3046,1.3678,146.9,96.6,0.536
41.7,32364.5,35804.2,1.7807,1.9728,146.9,96.6,0.536
41.72,32340.3,35722.3,1.6622,1.7714,146.9,96.6,0.536
41.74,32315.3,35549.5,1.5402,1.3466,146.9,96.6,0.536
41.76,32124.9,35322.9,0.6102,0.7895,146.9,96.6,0.536
41.78,32022.3,35066.3,0.1085,0.1588,146.9,96.6,0.536
41.8,32090.0,35097.3,0.4394,0.2349,146.9,96.6,0.536
41.82,32067.9,35031.0,0.3317,0.072,146.9,96.6,0.536
41.84,31959.7,35021.4,-0.1974,0.0484,146.9,96.6,0.536
41.86,31852.8,34907.7,-0.7196,-0.2311,146.9,96.6,0.536
41.88,31814.0,34805.0,-0.9091,-0.4836,146.9,96.6,0.536
41.9,31811.8,34830.6,-0.9198,-0.4207,146.9,96.6,0.536
41.92,31820.2,34655.8,-0.8789,-0.8505,146.9,96.6,0.536
41.94,31854.2,34610.2,-0.7126,-0.9624,146.9,96.6,0.536
41.96,31780.6,34568.1,-1.0723,-1.0659,146.9,96.6,0.536
41.98,31788.1,34515.7,-1.0356,-1.1948,146.9,96.6,0.536
42.0,31674.9,34519.8,-1.5885,-1.1848,146.9,96.6,0.536
42.02,31779.8,34515.5,-1.0762,-1.1953,146.9,96.6,0.536
42.04,31792.8,34720.7,-1.0126,-0.6908,146.9,96.6,0.536
42.06,32075.5,35148.9,0.3685,0.3617,146.9,96.6,0.536
42.08,32240.0,35492.2,1.1726,1.2058,146.9,96.6,0.536
42.1,32320.3,35662.9,1.5645,1.6253,146.9,96.6,0.536
42.12,32410.3,35699.5,2.0044,1.7153,146.9,96.6,0.536
42.14,32252.2,35578.6,1.2318,1.4181,146.9,96.6,0.536
42.16,32224.8,35384.9,1.0979,0.9419,146.9,96.6,0.536
42.18,32025.2,35167.9,0.1228,0.4085,146.9,96.6,0.536
42.2,32058.8,35158.4,0.287,0.3851,146.9,96.6,0.536
42.22,32143.9,35061.3,0.7027,0.1465,146.9,96.6,0.536
42.24,32013.6,35094.1,0.0661,0.227,146.9,96.6,0.536
42.26,31935.1,34908.6,-0.3175,-0.2289,146.9,96.6,0.536
42.28,31920.9,34881.8,-0.3868,-0.2948,146.9,96.6,0.536
42.3,31844.7,34750.8,-0.7591,-0.617,146.9,96.6,0.536
42.32,31828.3,34708.0,-0.839,-0.7222,146.9,96.6,0.536
42.34,31839.1,34610.2,-0.7865,-0.9626,146.9,96.6,0.536
42.36,31807.5,34720.7,-0.941,-0.691,146.9,96.6,0.536
42.38,31786.6,34574.0,-1.0429,-1.0514,146.9,96.6,0.536
42.4,31721.7,34471.7,-1.3598,-1.3029,146.9,96.6,0.536
42.42,31738.6,34383.7,-1.2776,-1.5194,146.9,96.6,0.536
42.44,31819.4,34731.8,-0.8827,-0.6635,146.9,96.6,0.536
42.46,32060.6,34950.2,0.2959,-0.1266,146.9,96.6,0.536
42.48,32127.0,35403.4,0.6205,0.9874,146.9,96.6,0.536
42.5,32366.5,35786.1,1.7906,1.9282,146.9,96.6,0.536
42.52,32437.1,35741.2,2.1354,1.8178,146.9,96.6,0.536
42.54,32323.8,35691.2,1.5817,1.695,146.9,96.6,0.536
42.56,32336.0,35453.5,1.6417,1.1106,146.9,96.6,0.536
42.58,32114.9,35373.1,0.5611,0.9129,146.9,96.6,0.536
42.6,32045.1,35165.2,0.2203,0.4019,146.9,96.6,0.536
42.62,32118.7,35040.3,0.5799,0.0947,146.9,96.6,0.536
42.64,31946.6,35104.6,-0.2614,0.2528,146.9,96.6,0.536
42.66,32008.5,34947.1,0.0413,-0.1343,146.9,96.6,0.536
42.68,31888.6,34854.3,-0.5445,-0.3624,146.9,96.6,0.536
42.7,31896.2,34799.8,-0.5074,-0.4963,146.9,96.6,0.536
42.72,31850.4,34729.9,-0.7314,-0.6682,146.9,96.6,0.536
42.74,31913.7,34727.7,-0.422,-0.6736,146.9,96.6,0.536
42.76,31836.7,34730.7,-0.7982,-0.6663,146.9,96.6,0.536
42.78,31759.7,34663.3,-1.1743,-0.8321,146.9,96.6,0.536
42.8,31753.9,34433.3,-1.2025,-1.3975,146.9,96.6,0.536
42.82,31698.0,34479.8,-1.4758,-1.283,146.9,96.6,0.536
42.84,31845.3,34480.4,-0.7562,-1.2815,146.9,96.6,0.536
42.86,31868.7,34826.4,-0.642,-0.431,146.9,96.6,0.536
42.88,32125.7,35224.4,0.6137,0.5473,146.9,96.6,0.536
42.9,32200.6,35649.6,0.9797,1.5925,146.9,96.6,0.536
42.92,32271.1,35846.6,1.3243,2.077,146.9,96.6,0.536
42.94,32320.7,35587.1,1.5667,1.4391,146.9,96.6,0.536
42.96,32409.5,35516.7,2.0008,1.2659,146.9,96.6,0.536
42.98,32154.7,35352.0,0.7554,0.8611,146.9,96.6,0.536
43.0,32108.0,35175.1,0.5273,0.4262,146.9,96.6,0.536
43.02,32064.0,35149.9,0.3122,0.3643,146.9,96.6,0.536
43.04,32081.3,35136.0,0.3971,0.3301,146.9,96.6,0.536
43.06,32003.5,34947.1,0.0169,-0.1343,146.9,96.6,0.536
43.08,32004.3,34834.1,0.0207,-0.412,146.9,96.6,0.536
43.1,31925.0,34782.5,-0.3669,-0.539,146.9,96.6,0.536
43.12,31808.3,34685.7,-0.937,-0.777,146.9,96.6,0.536
43.14,31867.8,34647.7,-0.6462,-0.8703,146.9,96.6,0.536
43.16,31823.4,34662.7,-0.8633,-0.8333,146.9,96.6,0.536
43.18,31765.0,34638.9,-1.1484,-0.8919,146.9,96.6,0.536
43.2,31815.6,34484.6,-0.9013,-1.2713,146.9,96.6,0.536
43.22,31719.2,34433.1,-1.3725,-1.3978,146.9,96.6,0.536
43.24,31806.3,34563.8,-0.9465,-1.0766,146.9,96.6,0.536
43.26,31780.7,34630.0,-1.0717,-0.9138,146.9,96.6,0.536
43.28,32075.1,35053.1,0.3667,0.1262,146.9,96.6,0.536
43.3,32192.9,35370.4,0.9422,0.9064,146.9,96.6,0.536
43.32,32363.6,35651.1,1.7763,1.5964,146.9,96.6,0.536
43.34,32376.0,35773.3,1.837,1.8967,146.9,96.6,0.536
43.36,32297.4,35673.3,1.4529,1.651,146.9,96.6,0.536
43.38,32159.3,35461.2,0.778,1.1295,146.9,96.6,0.536
43.4,32075.1,35245.3,0.3664,0.5987,146.9,96.6,0.536
43.42,32043.6,35260.9,0.2126,0.6371,146.9,96.6,0.536
43.44,32036.2,35078.0,0.1767,0.1875,146.9,96.6,0.536
43.46,31983.4,35024.5,-0.0812,0.056,146.9,96.6,0.536
43.48,31978.6,34891.9,-0.105,-0.2699,146.9,96.6,0.536
43.5,31860.0,34867.4,-0.6842,-0.3301,146.9,96.6,0.536
43.52,31887.5,34735.2,-0.55,-0.6552,146.9,96.6,0.536
43.54,31822.1,34700.2,-0.8695,-0.7413,146.9,96.6,0.536
43.56,31854.0,34656.5,-0.7138,-0.8488,146.9,96.6,0.536
43.58,31825.4,34628.3,-0.8536,-0.918,146.9,96.6,0.536
43.6,31785.0,34617.1,-1.0505,-0.9455,146.9,96.6,0.536
43.62,31720.5,34478.9,-1.3661,-1.2854,146.9,96.6,0.536
43.64,31660.5,34419.9,-1.6591,-1.4303,146.9,96.6,0.536
43.66,31820.7,34453.9,-0.8762,-1.3467,146.9,96.6,0.536
43.68,31981.8,34837.5,-0.0893,-0.4038,146.9,96.6,0.536
43.7,32066.8,35302.2,0.3261,0.7387,146.9,96.6,0.536
43.72,32318.5,35606.6,1.5562,1.4871,146.9,96.6,0.536
43.74,32309.9,35785.0,1.5138,1.9255,146.9,96.6,0.536
43.76,32349.3,35671.3,1.7064,1.6461,146.9,96.6,0.536
43.78,32267.6,35468.0,1.3072,1.1463,146.9,96.6,0.536
43.8,32120.7,35259.8,0.5893,0.6345,146.9,96.6,0.536
43.82,32018.8,35259.4,0.0916,0.6334,146.9,96.6,0.536
43.84,31973.5,35148.8,-0.1299,0.3615,146.9,96.6,0.536
43.86,32035.3,34979.5,0.1724,-0.0547,146.9,96.6,0.536
43.88,31950.2,35085.7,-0.2437,0.2063,146.9,96.6,0.536
43.9,31935.0,34863.8,-0.3181,-0.3391,146.9,96.6,0.536
43.92,31907.9,34793.7,-0.4503,-0.5113,146.9,96.6,0.536
43.94,31918.6,34756.7,-0.398,-0.6024,146.9,96.6,0.536
43.96,31818.5,34617.9,-0.8871,-0.9435,146.9,96.6,0.536
43.98,31829.1,34630.9,-0.8352,-0.9117,146.9,96.6,0.536
44.0,31838.5,34481.2,-0.7892,-1.2797,146.9,96.6,0.536
44.02,31680.8,34638.8,-1.56,-0.8922,146.9,96.6,0.536
44.04,31683.3,34429.2,-1.5476,-1.4074,146.9,96.6,0.536
44.06,31772.6,34434.0,-1.1114,-1.3956,146.9,96.6,0.536
44.08,31869.8,34711.2,-0.6366,-0.7143,146.9,96.6,0.536
44.1,32044.5,35123.6,0.2173,0.2997,146.9,96.6,0.536
44.12,32330.2,35505.2,1.6129,1.2376,146.9,96.6,0.536
44.14,32391.4,35650.7,1.9121,1.5954,146.9,96.6,0.536
44.16,32404.8,35870.2,1.9774,2.1351,146.9,96.6,0.536
44.18,32295.8,35687.0,1.4449,1.6847,146.9,96.6,0.536
44.2,32188.2,35420.1,0.9193,1.0286,146.9,96.6,0.536
44.22,32088.8,35274.9,0.4335,0.6714,146.9,96.6,0.536
44.24,32039.3,35097.2,0.1917,0.2347,146.9,96.6,0.536
44.26,32069.2,35051.5,0.3377,0.1223,146.9,96.6,0.536
44.28,31991.2,35056.5,-0.0435,0.1345,146.9,96.6,0.536
44.3,31939.5,34962.8,-0.2957,-0.0956,146.9,96.6,0.536
44.32,31945.3,34813.4,-0.2677,-0.4631,146.9,96.6,0.536
44.34,31904.2,34733.8,-0.4685,-0.6586,146.9,96.6,0.536
44.36,31875.8,34662.2,-0.6071,-0.8348,146.9,96.6,0.536
44.38,31820.0,34616.8,-0.8796,-0.9463,146.9,96.6,0.536
44.4,31769.8,34624.0,-1.125,-0.9286,146.9,96.6,0.536
44.42,31783.8,34467.3,-1.0567,-1.3138,146.9,96.6,0.536
44.44,31712.5,34418.0,-1.4051,-1.4349,146.9,96.6,0.536
44.46,31712.9,34444.4,-1.4032,-1.3702,146.9,96.6,0.536
44.48,31734.8,34658.7,-1.2961,-0.8432,146.9,96.6,0.536
44.5,31934.2,34941.1,-0.3217,-0.1492,146.9,96.6,0.536
44.52,32159.5,35346.5,0.779,0.8477,146.9,96.6,0.536
44.54,32342.2,35617.0,1.6719,1.5124,146.9,96.6,0.536
44.56,32322.0,35773.0,1.5729,1.896,146.9,96.6,0.536
44.58,32364.8,35688.1,1.782,1.6874,146.9,96.6,0.536
44.6,32198.8,35522.7,0.9709,1.2807,146.9,96.6,0.536
44.62,32135.2,35333.6,0.6605,0.8158,146.9,96.6,0.536
44.64,32047.5,35220.0,0.2319,0.5367,146.9,96.6,0.536
44.66,32084.3,35079.4,0.4115,0.191,146.9,96.6,0.536
44.68,32071.1,35038.9,0.3471,0.0913,146.9,96.6,0.536
44.7,31912.0,35030.4,-0.43,0.0705,146.9,96.6,0.536
44.72,31931.7,34795.7,-0.3338,-0.5064,146.9,96.6,0.536
44.74,31850.8,34740.9,-0.7291,-0.6412,146.9,96.6,0.536
44.76,31843.6,34754.0,-0.7645,-0.6091,146.9,96.6,0.536
44.78,31868.8,34719.3,-0.6413,-0.6943,146.9,96.6,0.536
44.8,31876.2,34637.1,-0.6051,-0.8965,146.9,96.6,0.536
44.82,31734.6,34526.5,-1.2972,-1.1683,146.9,96.6,0.536
44.84,31716.0,34524.5,-1.388,-1.1732,146.9,96.6,0.536
44.86,31757.2,34420.3,-1.1864,-1.4293,146.9,96.6,0.536
