timestamp,raw_red,raw_ir,filtered_red,filtered_ir,heart_rate,spo2,ac_dc_ratio
0.0,32146.8,35178.9,1.1925,1.1933,149.5,98.1,0.478
0.02,32301.7,35515.2,1.2023,1.2128,149.5,98.1,0.478
0.04,32300.6,35676.1,1.2023,1.2221,149.5,98.1,0.478
0.06,32452.8,35719.6,1.2119,1.2246,149.5,98.1,0.478
0.08,32191.6,35635.4,1.1953,1.2198,149.5,98.1,0.478
0.1,32158.2,35356.2,1.1932,1.2036,149.5,98.1,0.478
0.12,32107.5,35175.5,1.19,1.1931,149.5,98.1,0.478
0.14,32029.6,35114.1,1.1851,1.1896,149.5,98.1,0.478
0.16,32063.7,35040.0,1.1872,1.1853,149.5,98.1,0.478
0.18,31964.7,34918.6,1.181,1.1782,149.5,98.1,0.478
0.2,31989.6,34863.0,1.1825,1.175,149.5,98.1,0.478
0.22,31961.7,34774.0,1.1808,1.1699,149.5,98.1,0.478
0.24,31925.1,34743.5,1.1785,1.1681,149.5,98.1,0.478
0.26,31917.3,34672.9,1.178,1.164,149.5,98.1,0.478
0.28,31775.5,34593.3,1.169,1.1594,149.5,98.1,0.478
0.3,31712.4,34586.4,1.165,1.159,149.5,98.1,0.478
0.32,31872.6,34509.5,1.1751,1.1545,149.5,98.1,0.478
0.34,31716.6,34365.3,1.1652,1.1462,149.5,98.1,0.478
0.36,31785.6,34523.5,1.1696,1.1553,149.5,98.1,0.478
0.38,31860.5,34866.5,1.1744,1.1752,149.5,98.1,0.478
0.4,32013.0,35234.0,1.184,1.1965,149.5,98.1,0.478
0.42,32294.9,35501.1,1.2019,1.212,149.5,98.1,0.478
0.44,32241.3,35716.0,1.1985,1.2244,149.5,98.1,0.478
0.46,32283.4,35847.1,1.2012,1.232,149.5,98.1,0.478
0.48,32244.8,35626.0,1.1987,1.2192,149.5,98.1,0.478
0.5,32170.8,35360.1,1.194,1.2038,149.5,98.1,0.478
0.52,32045.2,35157.0,1.1861,1.192,149.5,98.1,0.478
0.54,32103.1,35059.4,1.1897,1.1864,149.5,98.1,0.478
0.56,32026.0,34940.6,1.1849,1.1795,149.5,98.1,0.478
0.58,31935.5,34957.0,1.1791,1.1805,149.5,98.1,0.478
0.6,31938.2,34970.4,1.1793,1.1812,149.5,98.1,0.478
0.62,31898.6,34764.0,1.1768,1.1693,149.5,98.1,0.478
0.64,31899.6,34666.6,1.1768,1.1636,149.5,98.1,0.478
0.66,31869.5,34689.4,1.1749,1.165,149.5,98.1,0.478
0.68,31797.7,34618.1,1.1704,1.1608,149.5,98.1,0.478
0.7,31831.8,34631.5,1.1725,1.1616,149.5,98.1,0.478
0.72,31774.0,34584.1,1.1689,1.1589,149.5,98.1,0.478
0.74,31726.7,34484.8,1.1659,1.1531,149.5,98.1,0.478
0.76,31814.1,34500.8,1.1714,1.154,149.5,98.1,0.478
0.78,31996.5,34746.9,1.183,1.1683,149.5,98.1,0.478
0.8,32109.8,35191.7,1.1902,1.1941,149.5,98.1,0.478
0.82,32255.4,35625.8,1.1994,1.2192,149.5,98.1,0.478
0.84,32370.9,35722.9,1.2067,1.2248,149.5,98.1,0.478
0.86,32317.2,35738.3,1.2033,1.2257,149.5,98.1,0.478
0.88,32279.6,35599.1,1.2009,1.2177,149.5,98.1,0.478
0.9,32142.4,35408.4,1.1922,1.2066,149.5,98.1,0.478
0.92,32137.3,35280.2,1.1919,1.1992,149.5,98.1,0.478
0.94,32136.7,35171.3,1.1919,1.1929,149.5,98.1,0.478
0.96,32028.9,35064.7,1.185,1.1867,149.5,98.1,0.478
0.98,32030.5,35033.6,1.1851,1.1849,149.5,98.1,0.478
1.0,31971.1,34878.4,1.1814,1.1759,149.5,98.1,0.478
1.02,31888.5,34836.0,1.1761,1.1734,149.5,98.1,0.478
1.04,31848.4,34758.0,1.1736,1.1689,149.5,98.1,0.478
1.06,31810.0,34546.9,1.1712,1.1567,149.5,98.1,0.478
1.08,31846.5,34632.9,1.1735,1.1617,149.5,98.1,0.478
1.1,31846.5,34614.7,1.1735,1.1606,149.5,98.1,0.478
1.12,31848.7,34569.2,1.1736,1.158,149.5,98.1,0.478
1.14,31774.6,34412.5,1.1689,1.1489,149.5,98.1,0.478
1.16,31713.7,34472.3,1.1651,1.1524,149.5,98.1,0.478
1.18,31867.6,34645.0,1.1748,1.1624,149.5,98.1,0.478
1.2,32049.9,35070.6,1.1864,1.187,149.5,98.1,0.478
1.22,32222.5,35419.4,1.1973,1.2073,149.5,98.1,0.478
1.24,32337.7,35833.7,1.2046,1.2313,149.5,98.1,0.478
1.26,32377.9,35805.7,1.2072,1.2296,149.5,98.1,0.478
1.28,32246.5,35581.5,1.1988,1.2166,149.5,98.1,0.478
1.3,32260.7,35511.2,1.1997,1.2126,149.5,98.1,0.478
1.32,32118.7,35232.3,1.1907,1.1964,149.5,98.1,0.478
1.34,32103.0,35186.0,1.1897,1.1937,149.5,98.1,0.478
1.36,32092.7,35107.6,1.1891,1.1892,149.5,98.1,0.478
1.38,31971.3,34955.4,1.1814,1.1804,149.5,98.1,0.478
1.4,31901.5,34951.7,1.177,1.1802,149.5,98.1,0.478
1.42,31916.2,34798.6,1.1779,1.1713,149.5,98.1,0.478
1.44,31806.8,34750.3,1.171,1.1685,149.5,98.1,0.478
1.46,31858.2,34686.2,1.1742,1.1648,149.5,98.1,0.478
1.48,31818.8,34656.4,1.1717,1.163,149.5,98.1,0.478
1.5,31863.0,34684.1,1.1745,1.1646,149.5,98.1,0.478
1.52,31875.9,34554.6,1.1753,1.1571,149.5,98.1,0.478
1.54,31790.4,34458.3,1.1699,1.1516,149.5,98.1,0.478
1.56,31778.6,34529.7,1.1692,1.1557,149.5,98.1,0.478
1.58,31932.9,34723.9,1.179,1.167,149.5,98.1,0.478
1.6,32025.2,35039.5,1.1848,1.1852,149.5,98.1,0.478
1.62,32198.0,35445.3,1.1958,1.2088,149.5,98.1,0.478
1.64,32335.2,35690.0,1.2045,1.2229,149.5,98.1,0.478
1.66,32268.6,35786.5,1.2002,1.2285,149.5,98.1,0.478
1.68,32352.8,35603.8,1.2056,1.2179,149.5,98.1,0.478
1.7,32171.3,35390.4,1.1941,1.2056,149.5,98.1,0.478
1.72,32086.8,35235.2,1.1887,1.1966,149.5,98.1,0.478
1.74,32088.2,35009.1,1.1888,1.1835,149.5,98.1,0.478
1.76,32063.0,35003.0,1.1872,1.1831,149.5,98.1,0.478
1.78,32069.8,35009.2,1.1876,1.1835,149.5,98.1,0.478
1.8,31936.2,34964.5,1.1792,1.1809,149.5,98.1,0.478
1.82,31898.7,34828.0,1.1768,1.173,149.5,98.1,0.478
1.84,31866.5,34666.5,1.1747,1.1636,149.5,98.1,0.478
1.86,31954.6,34690.0,1.1803,1.165,149.5,98.1,0.478
1.88,31903.9,34622.2,1.1771,1.1611,149.5,98.1,0.478
1.9,31826.2,34627.5,1.1722,1.1614,149.5,98.1,0.478
1.92,31709.0,34479.8,1.1648,1.1528,149.5,98.1,0.478
1.94,31714.5,34431.2,1.1651,1.15,149.5,98.1,0.478
1.96,31793.9,34505.0,1.1701,1.1543,149.5,98.1,0.478
1.98,31812.1,34668.6,1.1713,1.1637,149.5,98.1,0.478
2.0,31965.0,35099.9,1.181,1.1887,149.5,98.1,0.478
2.02,32172.7,35460.0,1.1942,1.2096,149.5,98.1,0.478
2.04,32344.1,35796.6,1.205,1.2291,149.5,98.1,0.478
2.06,32334.3,35822.9,1.2044,1.2306,149.5,98.1,0.478
2.08,32253.1,35630.1,1.1992,1.2195,149.5,98.1,0.478
2.1,32146.0,35465.7,1.1925,1.2099,149.5,98.1,0.478
2.12,32108.4,35257.1,1.1901,1.1979,149.5,98.1,0.478
2.14,32100.8,35114.3,1.1896,1.1896,149.5,98.1,0.478
2.16,32082.0,35092.5,1.1884,1.1883,149.5,98.1,0.478
2.18,32051.9,35122.0,1.1865,1.19,149.5,98.1,0.478
2.2,31876.8,34928.4,1.1754,1.1788,149.5,98.1,0.478
2.22,31918.9,34730.7,1.1781,1.1673,149.5,98.1,0.478
2.24,31819.5,34804.0,1.1718,1.1716,149.5,98.1,0.478
2.26,31884.0,34692.1,1.1759,1.1651,149.5,98.1,0.478
2.28,31816.3,34631.9,1.1716,1.1616,149.5,98.1,0.478
2.3,31862.0,34646.8,1.1745,1.1625,149.5,98.1,0.478
2.32,31796.5,34584.5,1.1703,1.1589,149.5,98.1,0.478
2.34,31732.0,34473.1,1.1662,1.1524,149.5,98.1,0.478
2.36,31894.8,34411.8,1.1765,1.1489,149.5,98.1,0.478
2.38,31855.4,34694.7,1.174,1.1653,149.5,98.1,0.478
2.4,32026.9,35048.1,1.1849,1.1857,149.5,98.1,0.478
2.42,32148.1,35373.2,1.1926,1.2046,149.5,98.1,0.478
2.44,32306.1,35643.4,1.2026,1.2202,149.5,98.1,0.478
2.46,32320.4,35702.5,1.2035,1.2237,149.5,98.1,0.478
2.48,32270.7,35679.6,1.2004,1.2223,149.5,98.1,0.478
2.5,32225.8,35420.3,1.1975,1.2073,149.5,98.1,0.478
2.52,31974.9,35250.1,1.1816,1.1974,149.5,98.1,0.478
2.54,31982.9,35116.4,1.1821,1.1897,149.5,98.1,0.478
2.56,32068.3,35085.7,1.1875,1.1879,149.5,98.1,0.478
2.58,32045.5,35006.7,1.1861,1.1833,149.5,98.1,0.478
2.6,32002.3,34894.7,1.1834,1.1768,149.5,98.1,0.478
2.62,31930.5,34832.0,1.1788,1.1732,149.5,98.1,0.478
2.64,31857.2,34725.0,1.1742,1.167,149.5,98.1,0.478
2.66,31915.7,34663.3,1.1779,1.1634,149.5,98.1,0.478
2.68,31829.3,34672.9,1.1724,1.164,149.5,98.1,0.478
2.7,31845.4,34586.3,1.1734,1.159,149.5,98.1,0.478
2.72,31868.5,34546.9,1.1749,1.1567,149.5,98.1,0.478
2.74,31805.9,34529.5,1.1709,1.1557,149.5,98.1,0.478
2.76,31694.0,34577.5,1.1638,1.1585,149.5,98.1,0.478
2.78,31934.5,34643.5,1.1791,1.1623,149.5,98.1,0.478
2.8,32045.6,34951.0,1.1861,1.1801,149.5,98.1,0.478
2.82,32232.0,35349.2,1.1979,1.2032,149.5,98.1,0.478
2.84,32291.5,35641.4,1.2017,1.2201,149.5,98.1,0.478
2.86,32329.8,35819.0,1.2041,1.2304,149.5,98.1,0.478
2.88,32271.4,35669.0,1.2004,1.2217,149.5,98.1,0.478
2.9,32199.3,35363.5,1.1958,1.204,149.5,98.1,0.478
2.92,32009.6,35229.8,1.1838,1.1963,149.5,98.1,0.478
2.94,32056.3,35184.2,1.1868,1.1936,149.5,98.1,0.478
2.96,32020.4,35128.5,1.1845,1.1904,149.5,98.1,0.478
2.98,31950.8,35024.9,1.1801,1.1844,149.5,98.1,0.478
3.0,31961.4,34962.3,1.1808,1.1808,149.5,98.1,0.478
3.02,31958.7,34902.2,1.1806,1.1773,149.5,98.1,0.478
3.04,31827.2,34723.4,1.1723,1.1669,149.5,98.1,0.478
3.06,31776.4,34756.5,1.169,1.1688,149.5,98.1,0.478
3.08,31814.2,34546.5,1.1714,1.1567,149.5,98.1,0.478
3.1,31867.7,34690.4,1.1748,1.165,149.5,98.1,0.478
3.12,31740.8,34481.4,1.1668,1.1529,149.5,98.1,0.478
3.14,31741.0,34451.6,1.1668,1.1512,149.5,98.1,0.478
3.16,31888.1,34490.0,1.1761,1.1534,149.5,98.1,0.478
3.18,31846.0,34660.6,1.1734,1.1633,149.5,98.1,0.478
3.2,31947.7,34989.8,1.1799,1.1824,149.5,98.1,0.478
3.22,32147.8,35338.3,1.1926,1.2026,149.5,98.1,0.478
3.24,32296.2,35595.4,1.202,1.2174,149.5,98.1,0.478
3.26,32518.9,35773.4,1.2161,1.2278,149.5,98.1,0.478
3.28,32319.7,35645.1,1.2035,1.2203,149.5,98.1,0.478
3.3,32172.9,35508.0,1.1942,1.2124,149.5,98.1,0.478
3.32,32216.0,35292.5,1.1969,1.1999,149.5,98.1,0.478
3.34,32131.0,35149.1,1.1915,1.1916,149.5,98.1,0.478
3.36,32038.7,35084.0,1.1857,1.1878,149.5,98.1,0.478
3.38,31969.1,34977.0,1.1812,1.1816,149.5,98.1,0.478
3.4,31975.4,34997.4,1.1816,1.1828,149.5,98.1,0.478
3.42,31820.5,34894.9,1.1718,1.1769,149.5,98.1,0.478
3.44,31906.7,34715.4,1.1773,1.1665,149.5,98.1,0.478
3.46,31941.2,34664.3,1.1795,1.1635,149.5,98.1,0.478
3.48,31816.3,34712.1,1.1716,1.1663,149.5,98.1,0.478
3.5,31803.3,34682.1,1.1707,1.1645,149.5,98.1,0.478
3.52,31798.9,34412.8,1.1705,1.1489,149.5,98.1,0.478
3.54,31738.5,34465.9,1.1666,1.152,149.5,98.1,0.478
3.56,31800.8,34438.3,1.1706,1.1504,149.5,98.1,0.478
3.58,31792.5,34606.4,1.1701,1.1601,149.5,98.1,0.478
3.6,32047.2,34775.0,1.1862,1.1699,149.5,98.1,0.478
3.62,32148.6,35305.7,1.1926,1.2007,149.5,98.1,0.478
3.64,32230.4,35675.2,1.1978,1.2221,149.5,98.1,0.478
3.66,32277.1,35837.4,1.2008,1.2315,149.5,98.1,0.478
3.68,32348.4,35575.2,1.2053,1.2163,149.5,98.1,0.478
3.7,32215.5,35468.8,1.1969,1.2101,149.5,98.1,0.478
3.72,32188.7,35329.9,1.1952,1.2021,149.5,98.1,0.478
3.74,32032.6,35144.0,1.1853,1.1913,149.5,98.1,0.478
3.76,32041.4,35154.2,1.1858,1.1919,149.5,98.1,0.478
3.78,31964.7,35040.9,1.181,1.1853,149.5,98.1,0.478
3.8,31926.3,34988.0,1.1785,1.1823,149.5,98.1,0.478
3.82,31967.2,34857.9,1.1811,1.1747,149.5,98.1,0.478
3.84,31872.0,34685.3,1.1751,1.1647,149.5,98.1,0.478
3.86,31851.0,34653.6,1.1738,1.1629,149.5,98.1,0.478
3.88,31950.0,34667.7,1.18,1.1637,149.5,98.1,0.478
3.9,31868.7,34709.4,1.1749,1.1661,149.5,98.1,0.478
3.92,31781.5,34605.9,1.1694,1.1601,149.5,98.1,0.478
3.94,31832.9,34466.3,1.1726,1.152,149.5,98.1,0.478
3.96,31808.2,34467.7,1.1711,1.1521,149.5,98.1,0.478
3.98,31820.6,34532.5,1.1718,1.1559,149.5,98.1,0.478
4.0,32070.7,34878.1,1.1877,1.1759,149.5,98.1,0.478
4.02,32076.0,35285.5,1.188,1.1995,149.5,98.1,0.478
4.04,32293.0,35670.8,1.2018,1.2218,149.5,98.1,0.478
4.06,32448.4,35771.0,1.2116,1.2276,149.5,98.1,0.478
4.08,32284.1,35787.1,1.2012,1.2286,149.5,98.1,0.478
4.1,32183.6,35550.4,1.1948,1.2148,149.5,98.1,0.478
4.12,32103.1,35311.5,1.1897,1.201,149.5,98.1,0.478
4.14,32034.6,35200.4,1.1854,1.1946,149.5,98.1,0.478
4.16,32017.9,35073.6,1.1843,1.1872,149.5,98.1,0.478
4.18,32038.0,35107.0,1.1856,1.1892,149.5,98.1,0.478
4.2,32012.3,34950.9,1.184,1.1801,149.5,98.1,0.478
4.22,31888.9,34862.0,1.1762,1.175,149.5,98.1,0.478
4.24,31842.4,34699.3,1.1732,1.1655,149.5,98.1,0.478
4.26,31816.7,34641.6,1.1716,1.1622,149.5,98.1,0.478
4.28,31862.7,34674.4,1.1745,1.1641,149.5,98.1,0.478
4.3,31852.8,34643.4,1.1739,1.1623,149.5,98.1,0.478
4.32,31760.7,34558.3,1.168,1.1574,149.5,98.1,0.478
4.34,31798.1,34444.5,1.1704,1.1508,149.5,98.1,0.478
4.36,31760.8,34473.9,1.168,1.1525,149.5,98.1,0.478
4.38,31836.7,34552.4,1.1729,1.157,149.5,98.1,0.478
4.4,31857.7,34862.8,1.1742,1.175,149.5,98.1,0.478
4.42,32157.0,35331.9,1.1932,1.2022,149.5,98.1,0.478
4.44,32347.1,35701.2,1.2052,1.2236,149.5,98.1,0.478
4.46,32337.1,35738.7,1.2046,1.2258,149.5,98.1,0.478
4.48,32246.6,35708.1,1.1988,1.224,149.5,98.1,0.478
4.5,32130.5,35454.4,1.1915,1.2093,149.5,98.1,0.478
4.52,32117.3,35279.1,1.1906,1.1991,149.5,98.1,0.478
4.54,32012.4,35003.4,1.184,1.1831,149.5,98.1,0.478
4.56,32086.7,35162.2,1.1887,1.1924,149.5,98.1,0.478
4.58,32020.8,35106.9,1.1845,1.1891,149.5,98.1,0.478
4.6,31982.4,35016.9,1.1821,1.1839,149.5,98.1,0.478
4.62,31961.1,34853.9,1.1807,1.1745,149.5,98.1,0.478
4.64,31956.8,34755.3,1.1805,1.1688,149.5,98.1,0.478
4.66,31875.2,34675.0,1.1753,1.1641,149.5,98.1,0.478
4.68,31908.7,34578.0,1.1774,1.1585,149.5,98.1,0.478
4.7,31835.7,34629.8,1.1728,1.1615,149.5,98.1,0.478
4.72,31745.2,34491.6,1.1671,1.1535,149.5,98.1,0.478
4.74,31813.3,34583.1,1.1714,1.1588,149.5,98.1,0.478
4.76,31716.5,34526.6,1.1652,1.1555,149.5,98.1,0.478
4.78,31816.7,34623.8,1.1716,1.1612,149.5,98.1,0.478
4.8,31946.2,34863.3,1.1798,1.175,149.5,98.1,0.478
4.82,32099.7,35193.4,1.1895,1.1942,149.5,98.1,0.478
4.84,32206.3,35477.1,1.1963,1.2106,149.5,98.1,0.478
4.86,32338.3,35627.5,1.2046,1.2193,149.5,98.1,0.478
4.88,32309.9,35662.3,1.2028,1.2213,149.5,98.1,0.478
4.9,32190.6,35457.8,1.1953,1.2095,149.5,98.1,0.478
4.92,32164.9,35306.2,1.1937,1.2007,149.5,98.1,0.478
4.94,32104.2,35206.3,1.1898,1.1949,149.5,98.1,0.478
4.96,32031.1,35179.9,1.1852,1.1934,149.5,98.1,0.478
4.98,32015.1,35079.5,1.1842,1.1876,149.5,98.1,0.478
5.0,31928.7,35013.3,1.1787,1.1837,149.5,98.1,0.478
5.02,31945.1,34890.2,1.1797,1.1766,149.5,98.1,0.478
5.04,31833.4,34736.2,1.1726,1.1677,149.5,98.1,0.478
5.06,31886.4,34804.2,1.176,1.1716,149.5,98.1,0.478
5.08,31876.7,34712.8,1.1754,1.1663,149.5,98.1,0.478
5.1,31898.8,34660.3,1.1768,1.1633,149.5,98.1,0.478
5.12,31932.6,34636.1,1.1789,1.1619,149.5,98.1,0.478
5.14,31798.1,34523.3,1.1704,1.1553,149.5,98.1,0.478
5.16,31783.4,34442.8,1.1695,1.1507,149.5,98.1,0.478
5.18,31792.1,34600.3,1.17,1.1598,149.5,98.1,0.478
5.2,31968.3,34875.7,1.1812,1.1757,149.5,98.1,0.478
5.22,32103.5,35363.7,1.1898,1.204,149.5,98.1,0.478
5.24,32332.1,35472.9,1.2043,1.2104,149.5,98.1,0.478
5.26,32227.9,35737.3,1.1977,1.2257,149.5,98.1,0.478
5.28,32332.2,35701.3,1.2043,1.2236,149.5,98.1,0.478
5.3,32260.9,35497.8,1.1997,1.2118,149.5,98.1,0.478
5.32,32214.5,35242.2,1.1968,1.197,149.5,98.1,0.478
5.34,32063.1,35079.8,1.1872,1.1876,149.5,98.1,0.478
5.36,31965.3,35077.2,1.181,1.1874,149.5,98.1,0.478
5.38,32038.8,35154.3,1.1857,1.1919,149.5,98.1,0.478
5.4,31920.6,34956.3,1.1782,1.1804,149.5,98.1,0.478
5.42,31935.7,34848.2,1.1791,1.1742,149.5,98.1,0.478
5.44,31862.0,34711.4,1.1745,1.1662,149.5,98.1,0.478
5.46,31849.3,34762.6,1.1737,1.1692,149.5,98.1,0.478
5.48,31807.6,34639.3,1.171,1.162,149.5,98.1,0.478
5.5,31878.3,34629.3,1.1755,1.1615,149.5,98.1,0.478
5.52,31822.7,34591.7,1.172,1.1593,149.5,98.1,0.478
5.54,31790.6,34491.4,1.1699,1.1535,149.5,98.1,0.478
5.56,31697.0,34468.6,1.164,1.1522,149.5,98.1,0.478
5.58,31743.5,34665.8,1.1669,1.1636,149.5,98.1,0.478
5.6,31976.9,34878.2,1.1817,1.1759,149.5,98.1,0.478
5.62,32099.0,35210.2,1.1895,1.1951,149.5,98.1,0.478
5.64,32185.4,35517.6,1.195,1.2129,149.5,98.1,0.478
5.66,32331.5,35791.2,1.2042,1.2288,149.5,98.1,0.478
5.68,32277.7,35685.2,1.2008,1.2227,149.5,98.1,0.478
5.7,32200.7,35576.0,1.1959,1.2163,149.5,98.1,0.478
5.72,32154.7,35408.5,1.193,1.2066,149.5,98.1,0.478
5.74,32116.6,35114.0,1.1906,1.1896,149.5,98.1,0.478
5.76,32056.3,35155.7,1.1868,1.192,149.5,98.1,0.478
5.78,32039.9,35000.3,1.1857,1.183,149.5,98.1,0.478
5.8,31930.3,35058.1,1.1788,1.1863,149.5,98.1,0.478
5.82,31942.7,34868.9,1.1796,1.1754,149.5,98.1,0.478
5.84,31859.1,34756.2,1.1743,1.1688,149.5,98.1,0.478
5.86,31895.5,34709.9,1.1766,1.1661,149.5,98.1,0.478
5.88,31904.8,34693.8,1.1772,1.1652,149.5,98.1,0.478
5.9,31796.4,34640.1,1.1703,1.1621,149.5,98.1,0.478
5.92,31883.1,34660.3,1.1758,1.1633,149.5,98.1,0.478
5.94,31762.0,34443.8,1.1681,1.1507,149.5,98.1,0.478
5.96,31816.4,34552.0,1.1716,1.157,149.5,98.1,0.478
5.98,31939.8,34525.2,1.1794,1.1554,149.5,98.1,0.478
6.0,31927.6,34788.8,1.1786,1.1707,149.5,98.1,0.478
6.02,32071.2,35200.0,1.1877,1.1945,149.5,98.1,0.478
6.04,32183.3,35461.1,1.1948,1.2097,149.5,98.1,0.478
6.06,32427.9,35732.6,1.2103,1.2254,149.5,98.1,0.478
6.08,32296.0,35718.1,1.202,1.2246,149.5,98.1,0.478
6.1,32167.3,35544.6,1.1938,1.2145,149.5,98.1,0.478
6.12,32171.9,35339.3,1.1941,1.2026,149.5,98.1,0.478
6.14,32014.7,35221.2,1.1841,1.1958,149.5,98.1,0.478
6.16,32130.9,35122.4,1.1915,1.19,149.5,98.1,0.478
6.18,32071.0,35102.2,1.1877,1.1889,149.5,98.1,0.478
6.2,31957.8,35020.1,1.1805,1.1841,149.5,98.1,0.478
6.22,31932.5,34877.3,1.1789,1.1758,149.5,98.1,0.478
6.24,31883.1,34704.8,1.1758,1.1658,149.5,98.1,0.478
6.26,31865.6,34626.6,1.1747,1.1613,149.5,98.1,0.478
6.28,31883.0,34736.5,1.1758,1.1677,149.5,98.1,0.478
6.3,31913.7,34566.6,1.1777,1.1578,149.5,98.1,0.478
6.32,31823.1,34592.3,1.172,1.1593,149.5,98.1,0.478
6.34,31785.3,34591.0,1.1696,1.1593,149.5,98.1,0.478
6.36,31788.7,34376.5,1.1698,1.1468,149.5,98.1,0.478
6.38,31888.1,34480.0,1.1761,1.1528,149.5,98.1,0.478
6.4,31767.8,34720.5,1.1685,1.1668,149.5,98.1,0.478
6.42,32054.0,35132.6,1.1866,1.1906,149.5,98.1,0.478
6.44,32104.6,35653.9,1.1898,1.2208,149.5,98.1,0.478
6.46,32313.1,35761.8,1.2031,1.2271,149.5,98.1,0.478
6.48,32294.6,35775.4,1.2019,1.2279,149.5,98.1,0.478
6.5,32303.9,35678.3,1.2025,1.2223,149.5,98.1,0.478
6.52,32159.4,35375.7,1.1933,1.2047,149.5,98.1,0.478
6.54,32137.7,35226.0,1.1919,1.196,149.5,98.1,0.478
6.56,32015.5,35141.5,1.1842,1.1912,149.5,98.1,0.478
6.58,32091.6,35016.2,1.189,1.1839,149.5,98.1,0.478
6.6,32020.9,34950.5,1.1845,1.1801,149.5,98.1,0.478
6.62,31945.5,34888.5,1.1798,1.1765,149.5,98.1,0.478
6.64,31909.4,34835.4,1.1775,1.1734,149.5,98.1,0.478
6.66,31885.8,34709.6,1.176,1.1661,149.5,98.1,0.478
6.68,31929.6,34726.3,1.1787,1.1671,149.5,98.1,0.478
6.7,31883.6,34669.5,1.1758,1.1638,149.5,98.1,0.478
6.72,31822.7,34602.0,1.172,1.1599,149.5,98.1,0.478
6.74,31729.6,34462.7,1.1661,1.1518,149.5,98.1,0.478
6.76,31820.6,34422.4,1.1718,1.1495,149.5,98.1,0.478
6.78,31766.1,34579.8,1.1684,1.1586,149.5,98.1,0.478
6.8,31924.2,34746.6,1.1784,1.1683,149.5,98.1,0.478
6.82,32079.5,35122.7,1.1882,1.1901,149.5,98.1,0.478
6.84,32206.4,35466.7,1.1963,1.21,149.5,98.1,0.478
6.86,32338.0,35735.5,1.2046,1.2256,149.5,98.1,0.478
6.88,32139.8,35731.8,1.1921,1.2254,149.5,98.1,0.478
6.9,32250.3,35530.2,1.1991,1.2137,149.5,98.1,0.478
6.92,32173.5,35385.5,1.1942,1.2053,149.5,98.1,0.478
6.94,32027.5,35268.0,1.1849,1.1985,149.5,98.1,0.478
6.96,32045.2,35143.3,1.1861,1.1913,149.5,98.1,0.478
6.98,31961.4,35089.3,1.1808,1.1881,149.5,98.1,0.478
7.0,31914.7,35043.8,1.1778,1.1855,149.5,98.1,0.478
7.02,32017.5,34941.5,1.1843,1.1796,149.5,98.1,0.478
7.04,31946.2,34795.0,1.1798,1.1711,149.5,98.1,0.478
7.06,31872.0,34727.3,1.1751,1.1671,149.5,98.1,0.478
7.08,31894.8,34653.8,1.1765,1.1629,149.5,98.1,0.478
7.1,31878.6,34601.0,1.1755,1.1598,149.5,98.1,0.478
7.12,31779.7,34628.9,1.1692,1.1615,149.5,98.1,0.478
7.14,31808.1,34535.2,1.171,1.156,149.5,98.1,0.478
7.16,31827.1,34508.3,1.1722,1.1545,149.5,98.1,0.478
7.18,31815.2,34591.8,1.1715,1.1593,149.5,98.1,0.478
7.2,31903.1,34790.0,1.1771,1.1708,149.5,98.1,0.478
7.22,32018.6,35097.3,1.1844,1.1886,149.5,98.1,0.478
7.24,32244.5,35537.8,1.1987,1.2141,149.5,98.1,0.478
7.26,32332.5,35790.6,1.2043,1.2288,149.5,98.1,0.478
7.28,32260.5,35785.7,1.1997,1.2285,149.5,98.1,0.478
7.3,32170.9,35669.7,1.194,1.2218,149.5,98.1,0.478
7.32,32200.3,35448.1,1.1959,1.2089,149.5,98.1,0.478
7.34,32097.1,35250.3,1.1894,1.1975,149.5,98.1,0.478
7.36,32081.6,35100.1,1.1884,1.1887,149.5,98.1,0.478
7.38,32057.6,35132.4,1.1869,1.1906,149.5,98.1,0.478
7.4,32005.6,35049.9,1.1836,1.1858,149.5,98.1,0.478
7.42,31926.8,34825.3,1.1786,1.1728,149.5,98.1,0.478
7.44,31866.5,34809.6,1.1747,1.1719,149.5,98.1,0.478
7.46,31845.5,34658.3,1.1734,1.1632,149.5,98.1,0.478
7.48,31855.4,34690.0,1.174,1.165,149.5,98.1,0.478
7.5,31791.1,34650.5,1.17,1.1627,149.5,98.1,0.478
7.52,31854.1,34599.6,1.174,1.1598,149.5,98.1,0.478
7.54,31852.7,34531.2,1.1739,1.1558,149.5,98.1,0.478
7.56,31785.0,34434.2,1.1696,1.1502,149.5,98.1,0.478
7.58,31742.1,34558.9,1.1669,1.1574,149.5,98.1,0.478
7.6,31798.3,34746.5,1.1704,1.1683,149.5,98.1,0.478
7.62,32065.6,35039.7,1.1874,1.1853,149.5,98.1,0.478
7.64,32169.9,35466.8,1.194,1.21,149.5,98.1,0.478
7.66,32326.4,35704.7,1.2039,1.2238,149.5,98.1,0.478
7.68,32385.4,35797.7,1.2076,1.2292,149.5,98.1,0.478
7.7,32268.9,35597.2,1.2003,1.2176,149.5,98.1,0.478
7.72,32174.4,35348.3,1.1943,1.2031,149.5,98.1,0.478
7.74,32181.0,35217.7,1.1947,1.1956,149.5,98.1,0.478
7.76,32013.2,35132.8,1.184,1.1906,149.5,98.1,0.478
7.78,32012.0,35140.3,1.184,1.1911,149.5,98.1,0.478
7.8,32000.7,34954.5,1.1832,1.1803,149.5,98.1,0.478
7.82,31937.2,34913.6,1.1792,1.1779,149.5,98.1,0.478
7.84,31854.3,34668.1,1.174,1.1637,149.5,98.1,0.478
7.86,31892.7,34768.4,1.1764,1.1695,149.5,98.1,0.478
7.88,31858.8,34631.8,1.1743,1.1616,149.5,98.1,0.478
7.9,31832.7,34602.8,1.1726,1.1599,149.5,98.1,0.478
7.92,31851.1,34535.8,1.1738,1.1561,149.5,98.1,0.478
7.94,31746.6,34575.6,1.1671,1.1584,149.5,98.1,0.478
7.96,31756.6,34469.5,1.1678,1.1522,149.5,98.1,0.478
7.98,31779.9,34475.6,1.1693,1.1526,149.5,98.1,0.478
8.0,31824.9,34641.7,1.1721,1.1622,149.5,98.1,0.478
8.02,32049.9,35078.7,1.1864,1.1875,149.5,98.1,0.478
8.04,32102.1,35413.4,1.1897,1.2069,149.5,98.1,0.478
8.06,32336.3,35686.5,1.2045,1.2227,149.5,98.1,0.478
8.08,32365.4,35778.2,1.2064,1.228,149.5,98.1,0.478
8.1,32220.2,35598.1,1.1972,1.2176,149.5,98.1,0.478
8.12,32146.3,35332.6,1.1925,1.2022,149.5,98.1,0.478
8.14,32036.6,35318.0,1.1855,1.2014,149.5,98.1,0.478
8.16,31980.3,35154.2,1.182,1.1919,149.5,98.1,0.478
8.18,32104.5,35067.2,1.1898,1.1868,149.5,98.1,0.478
8.2,32048.1,35050.6,1.1863,1.1859,149.5,98.1,0.478
8.22,32016.8,34882.6,1.1843,1.1761,149.5,98.1,0.478
8.24,31983.4,34864.9,1.1822,1.1751,149.5,98.1,0.478
8.26,31842.6,34805.4,1.1732,1.1717,149.5,98.1,0.478
8.28,31797.7,34640.4,1.1704,1.1621,149.5,98.1,0.478
8.3,31802.3,34700.1,1.1707,1.1656,149.5,98.1,0.478
8.32,31730.7,34577.5,1.1661,1.1585,149.5,98.1,0.478
8.34,31716.7,34515.2,1.1652,1.1549,149.5,98.1,0.478
8.36,31799.9,34541.4,1.1705,1.1564,149.5,98.1,0.478
8.38,31754.5,34439.6,1.1676,1.1505,149.5,98.1,0.478
8.4,31876.2,34645.3,1.1754,1.1624,149.5,98.1,0.478
8.42,32022.7,35053.9,1.1846,1.1861,149.5,98.1,0.478
8.44,32169.6,35364.4,1.194,1.2041,149.5,98.1,0.478
8.46,32393.4,35684.4,1.2081,1.2226,149.5,98.1,0.478
8.48,32328.6,35744.2,1.204,1.2261,149.5,98.1,0.478
8.5,32204.1,35645.1,1.1961,1.2203,149.5,98.1,0.478
8.52,32144.7,35387.9,1.1924,1.2054,149.5,98.1,0.478
8.54,32172.8,35301.3,1.1942,1.2004,149.5,98.1,0.478
8.56,32083.1,35172.2,1.1885,1.1929,149.5,98.1,0.478
8.58,32039.5,35106.8,1.1857,1.1891,149.5,98.1,0.478
8.6,32101.0,35012.1,1.1896,1.1837,149.5,98.1,0.478
8.62,31992.0,34887.2,1.1827,1.1764,149.5,98.1,0.478
8.64,31859.2,34832.8,1.1743,1.1733,149.5,98.1,0.478
8.66,31856.2,34694.7,1.1741,1.1653,149.5,98.1,0.478
8.68,31791.9,34658.4,1.17,1.1632,149.5,98.1,0.478
8.7,31861.0,34627.1,1.1744,1.1613,149.5,98.1,0.478
8.72,31891.0,34739.9,1.1763,1.1679,149.5,98.1,0.478
8.74,31854.2,34631.9,1.174,1.1616,149.5,98.1,0.478
8.76,31777.0,34461.8,1.1691,1.1518,149.5,98.1,0.478
8.78,31791.7,34483.2,1.17,1.153,149.5,98.1,0.478
8.8,31764.8,34599.9,1.1683,1.1598,149.5,98.1,0.478
8.82,32046.7,34956.5,1.1862,1.1804,149.5,98.1,0.478
8.84,32175.5,35445.9,1.1943,1.2088,149.5,98.1,0.478
8.86,32310.5,35662.3,1.2029,1.2213,149.5,98.1,0.478
8.88,32249.4,35716.4,1.199,1.2245,149.5,98.1,0.478
8.9,32343.5,35677.2,1.205,1.2222,149.5,98.1,0.478
8.92,32143.3,35436.9,1.1923,1.2083,149.5,98.1,0.478
8.94,32042.6,35227.8,1.1859,1.1961,149.5,98.1,0.478
8.96,32012.2,35080.4,1.184,1.1876,149.5,98.1,0.478
8.98,32057.8,34997.1,1.1869,1.1828,149.5,98.1,0.478
9.0,31919.8,35040.6,1.1781,1.1853,149.5,98.1,0.478
9.02,31915.6,34851.1,1.1779,1.1743,149.5,98.1,0.478
9.04,31882.6,34808.5,1.1758,1.1719,149.5,98.1,0.478
9.06,32004.1,34734.4,1.1835,1.1676,149.5,98.1,0.478
9.08,31795.6,34707.1,1.1702,1.166,149.5,98.1,0.478
9.1,31838.3,34671.0,1.173,1.1639,149.5,98.1,0.478
9.12,31810.5,34616.5,1.1712,1.1607,149.5,98.1,0.478
9.14,31855.9,34562.1,1.1741,1.1576,149.5,98.1,0.478
9.16,31790.2,34413.3,1.1699,1.149,149.5,98.1,0.478
9.18,31862.6,34495.1,1.1745,1.1537,149.5,98.1,0.478
9.2,31826.0,34690.2,1.1722,1.165,149.5,98.1,0.478
9.22,31974.4,34924.1,1.1816,1.1786,149.5,98.1,0.478
9.24,32190.2,35423.7,1.1953,1.2075,149.5,98.1,0.478
9.26,32272.7,35687.2,1.2005,1.2228,149.5,98.1,0.478
9.28,32289.6,35753.9,1.2016,1.2266,149.5,98.1,0.478
9.3,32320.7,35659.5,1.2035,1.2212,149.5,98.1,0.478
9.32,32156.9,35458.4,1.1932,1.2095,149.5,98.1,0.478
9.34,32083.0,35167.8,1.1885,1.1927,149.5,98.1,0.478
9.36,32094.9,35181.2,1.1892,1.1934,149.5,98.1,0.478
9.38,32125.4,35072.5,1.1912,1.1872,149.5,98.1,0.478
9.4,32051.4,35013.5,1.1865,1.1837,149.5,98.1,0.478
9.42,31941.8,34873.5,1.1795,1.1756,149.5,98.1,0.478
9.44,31947.3,34759.4,1.1799,1.169,149.5,98.1,0.478
9.46,31893.5,34824.4,1.1765,1.1728,149.5,98.1,0.478
9.48,31879.9,34721.4,1.1756,1.1668,149.5,98.1,0.478
9.5,31965.1,34619.1,1.181,1.1609,149.5,98.1,0.478
9.52,31809.5,34661.3,1.1711,1.1633,149.5,98.1,0.478
9.54,31876.4,34501.3,1.1754,1.1541,149.5,98.1,0.478
9.56,31749.8,34543.6,1.1673,1.1565,149.5,98.1,0.478
9.58,31797.1,34466.9,1.1703,1.1521,149.5,98.1,0.478
9.6,31778.1,34567.9,1.1691,1.1579,149.5,98.1,0.478
9.62,31961.2,34940.8,1.1807,1.1795,149.5,98.1,0.478
9.64,32168.6,35299.0,1.1939,1.2003,149.5,98.1,0.478
9.66,32363.6,35599.1,1.2062,1.2177,149.5,98.1,0.478
9.68,32328.9,35776.2,1.2041,1.2279,149.5,98.1,0.478
9.7,32297.7,35659.3,1.2021,1.2212,149.5,98.1,0.478
9.72,32237.7,35524.5,1.1983,1.2133,149.5,98.1,0.478
9.74,32130.0,35323.3,1.1914,1.2017,149.5,98.1,0.478
9.76,32048.7,35123.0,1.1863,1.1901,149.5,98.1,0.478
9.78,32044.9,35014.2,1.186,1.1838,149.5,98.1,0.478
9.8,32102.0,35267.4,1.1897,1.1984,149.5,98.1,0.478
9.82,31953.3,34987.7,1.1802,1.1822,149.5,98.1,0.478
9.84,31975.9,34870.0,1.1817,1.1754,149.5,98.1,0.478
9.86,31806.6,34760.4,1.1709,1.1691,149.5,98.1,0.478
9.88,31817.1,34648.3,1.1716,1.1626,149.5,98.1,0.478
9.9,31868.1,34702.9,1.1748,1.1657,149.5,98.1,0.478
9.92,31798.7,34670.8,1.1704,1.1639,149.5,98.1,0.478
9.94,31758.7,34628.9,1.1679,1.1615,149.5,98.1,0.478
9.96,31774.3,34455.2,1.1689,1.1514,149.5,98.1,0.478
9.98,31778.3,34481.6,1.1692,1.1529,149.5,98.1,0.478
10.0,31801.4,34546.6,1.1706,1.1567,149.5,98.1,0.478
10.02,31931.0,34937.6,1.1788,1.1793,149.5,98.1,0.478
10.04,32052.1,35306.5,1.1865,1.2007,149.5,98.1,0.478
10.06,32234.5,35605.6,1.1981,1.218,149.5,98.1,0.478
10.08,32238.5,35718.6,1.1983,1.2246,149.5,98.1,0.478
10.1,32322.1,35652.3,1.2036,1.2207,149.5,98.1,0.478
10.12,32098.0,35560.0,1.1894,1.2154,149.5,98.1,0.478
10.14,32128.6,35313.4,1.1914,1.2011,149.5,98.1,0.478
10.16,32133.6,35174.7,1.1917,1.1931,149.5,98.1,0.478
10.18,32100.9,35161.0,1.1896,1.1923,149.5,98.1,0.478
10.2,32076.5,35082.7,1.1881,1.1877,149.5,98.1,0.478
10.22,31911.3,34917.3,1.1776,1.1782,149.5,98.1,0.478
10.24,31878.5,34888.1,1.1755,1.1765,149.5,98.1,0.478
10.26,32081.0,34711.1,1.1883,1.1662,149.5,98.1,0.478
10.28,31799.0,34697.4,1.1705,1.1654,149.5,98.1,0.478
10.3,31860.0,34645.3,1.1743,1.1624,149.5,98.1,0.478
10.32,31770.5,34607.9,1.1687,1.1602,149.5,98.1,0.478
10.34,31782.4,34499.5,1.1694,1.154,149.5,98.1,0.478
10.36,31734.8,34506.7,1.1664,1.1544,149.5,98.1,0.478
10.38,31792.4,34527.1,1.17,1.1556,149.5,98.1,0.478
10.4,31821.2,34635.8,1.1719,1.1618,149.5,98.1,0.478
10.42,32021.4,34928.7,1.1846,1.1788,149.5,98.1,0.478
10.44,32113.8,35312.6,1.1904,1.2011,149.5,98.1,0.478
10.46,32255.1,35574.5,1.1994,1.2162,149.5,98.1,0.478
10.48,32301.8,35774.5,1.2023,1.2278,149.5,98.1,0.478
10.5,32310.4,35665.9,1.2029,1.2215,149.5,98.1,0.478
10.52,32231.8,35474.7,1.1979,1.2105,149.5,98.1,0.478
10.54,32120.2,35385.3,1.1908,1.2053,149.5,98.1,0.478
10.56,32028.9,35160.6,1.185,1.1923,149.5,98.1,0.478
10.58,31895.1,35050.4,1.1766,1.1859,149.5,98.1,0.478
10.6,32006.6,35031.8,1.1836,1.1848,149.5,98.1,0.478
10.62,31906.4,35065.0,1.1773,1.1867,149.5,98.1,0.478
10.64,31926.2,34810.7,1.1785,1.172,149.5,98.1,0.478
10.66,31884.5,34737.2,1.1759,1.1677,149.5,98.1,0.478
10.68,31868.0,34665.6,1.1748,1.1636,149.5,98.1,0.478
10.7,31833.2,34723.4,1.1726,1.1669,149.5,98.1,0.478
10.72,31841.5,34669.9,1.1732,1.1638,149.5,98.1,0.478
10.74,31858.7,34584.4,1.1742,1.1589,149.5,98.1,0.478
10.76,31742.3,34480.4,1.1669,1.1528,149.5,98.1,0.478
10.78,31739.7,34501.0,1.1667,1.154,149.5,98.1,0.478
10.8,31864.7,34570.1,1.1746,1.158,149.5,98.1,0.478
10.82,32010.0,34884.1,1.1838,1.1762,149.5,98.1,0.478
10.84,32218.5,35303.7,1.1971,1.2005,149.5,98.1,0.478
10.86,32254.9,35627.9,1.1994,1.2193,149.5,98.1,0.478
10.88,32399.3,35693.8,1.2085,1.2232,149.5,98.1,0.478
10.9,32236.1,35630.2,1.1982,1.2195,149.5,98.1,0.478
10.92,32275.7,35566.9,1.2007,1.2158,149.5,98.1,0.478
10.94,32128.2,35272.5,1.1913,1.1987,149.5,98.1,0.478
10.96,32012.3,35128.3,1.184,1.1904,149.5,98.1,0.478
10.98,32159.5,35114.7,1.1933,1.1896,149.5,98.1,0.478
11.0,32008.8,35061.6,1.1838,1.1865,149.5,98.1,0.478
11.02,31976.9,34972.2,1.1817,1.1813,149.5,98.1,0.478
11.04,31884.7,34705.1,1.1759,1.1659,149.5,98.1,0.478
11.06,31905.1,34729.1,1.1772,1.1673,149.5,98.1,0.478
11.08,31910.2,34720.9,1.1775,1.1668,149.5,98.1,0.478
11.1,31775.2,34689.0,1.169,1.1649,149.5,98.1,0.478
11.12,31766.6,34545.5,1.1684,1.1566,149.5,98.1,0.478
11.14,31795.2,34546.6,1.1702,1.1567,149.5,98.1,0.478
11.16,31803.0,34503.4,1.1707,1.1542,149.5,98.1,0.478
11.18,31788.3,34464.4,1.1698,1.1519,149.5,98.1,0.478
11.2,31769.8,34579.4,1.1686,1.1586,149.5,98.1,0.478
11.22,32006.3,34796.3,1.1836,1.1711,149.5,98.1,0.478
11.24,32105.9,35267.7,1.1899,1.1985,149.5,98.1,0.478
11.26,32249.2,35521.7,1.199,1.2132,149.5,98.1,0.478
11.28,32346.0,35768.2,1.2051,1.2275,149.5,98.1,0.478
11.3,32377.2,35712.1,1.2071,1.2242,149.5,98.1,0.478
11.32,32226.4,35545.7,1.1976,1.2146,149.5,98.1,0.478
11.34,32214.0,35292.8,1.1968,1.1999,149.5,98.1,0.478
11.36,32218.9,35131.3,1.1971,1.1906,149.5,98.1,0.478
11.38,32044.0,35068.6,1.186,1.1869,149.5,98.1,0.478
11.4,31981.8,34943.4,1.1821,1.1797,149.5,98.1,0.478
11.42,32020.7,34992.0,1.1845,1.1825,149.5,98.1,0.478
11.44,31916.7,34836.9,1.1779,1.1735,149.5,98.1,0.478
11.46,31805.6,34767.2,1.1709,1.1695,149.5,98.1,0.478
11.48,31849.6,34656.6,1.1737,1.1631,149.5,98.1,0.478
11.5,31846.8,34655.6,1.1735,1.163,149.5,98.1,0.478
11.52,31801.5,34619.0,1.1706,1.1609,149.5,98.1,0.478
11.54,31894.4,34701.3,1.1765,1.1656,149.5,98.1,0.478
11.56,31762.7,34457.2,1.1682,1.1515,149.5,98.1,0.478
11.58,31722.8,34394.5,1.1656,1.1479,149.5,98.1,0.478
11.6,31778.0,34562.5,1.1691,1.1576,149.5,98.1,0.478
11.62,31894.3,34815.2,1.1765,1.1722,149.5,98.1,0.478
11.64,32158.6,35260.7,1.1933,1.1981,149.5,98.1,0.478
11.66,32150.4,35540.5,1.1927,1.2143,149.5,98.1,0.478
11.68,32362.9,35869.8,1.2062,1.2333,149.5,98.1,0.478
11.7,32351.8,35641.5,1.2055,1.2201,149.5,98.1,0.478
11.72,32260.5,35595.2,1.1997,1.2174,149.5,98.1,0.478
11.74,32141.6,35336.3,1.1922,1.2024,149.5,98.1,0.478
11.76,32154.5,35284.2,1.193,1.1994,149.5,98.1,0.478
11.78,31994.8,35078.6,1.1829,1.1875,149.5,98.1,0.478
11.8,31971.4,35081.7,1.1814,1.1877,149.5,98.1,0.478
11.82,31914.0,35011.6,1.1778,1.1836,149.5,98.1,0.478
11.84,32009.4,34864.8,1.1838,1.1751,149.5,98.1,0.478
11.86,31917.0,34746.2,1.1779,1.1682,149.5,98.1,0.478
11.88,31907.1,34684.1,1.1773,1.1646,149.5,98.1,0.478
11.9,31848.5,34641.9,1.1736,1.1622,149.5,98.1,0.478
11.92,31849.6,34562.0,1.1737,1.1576,149.5,98.1,0.478
11.94,31808.6,34616.9,1.1711,1.1608,149.5,98.1,0.478
11.96,31832.3,34466.4,1.1726,1.152,149.5,98.1,0.478
11.98,31773.9,34385.1,1.1689,1.1473,149.5,98.1,0.478
12.0,31786.9,34519.8,1.1697,1.1551,149.5,98.1,0.478
12.02,31896.0,34868.0,1.1766,1.1753,149.5,98.1,0.478
12.04,32063.9,35224.9,1.1873,1.196,149.5,98.1,0.478
12.06,32237.4,35549.8,1.1983,1.2148,149.5,98.1,0.478
12.08,32313.9,35737.5,1.2031,1.2257,149.5,98.1,0.478
12.1,32332.2,35743.1,1.2043,1.226,149.5,98.1,0.478
12.12,32228.9,35537.4,1.1977,1.2141,149.5,98.1,0.478
12.14,32120.6,35445.3,1.1909,1.2088,149.5,98.1,0.478
12.16,32134.1,35218.5,1.1917,1.1956,149.5,98.1,0.478
12.18,32136.8,35161.9,1.1919,1.1923,149.5,98.1,0.478
12.2,32100.3,35126.4,1.1896,1.1903,149.5,98.1,0.478
12.22,31991.0,35115.3,1.1826,1.1896,149.5,98.1,0.478
12.24,31982.5,34871.4,1.1821,1.1755,149.5,98.1,0.478
12.26,31915.8,34787.9,1.1779,1.1707,149.5,98.1,0.478
12.28,31855.8,34756.0,1.1741,1.1688,149.5,98.1,0.478
12.3,31764.4,34614.3,1.1683,1.1606,149.5,98.1,0.478
12.32,31768.9,34651.3,1.1686,1.1627,149.5,98.1,0.478
12.34,31878.8,34644.6,1.1755,1.1624,149.5,98.1,0.478
12.36,31801.3,34635.0,1.1706,1.1618,149.5,98.1,0.478
12.38,31666.8,34548.0,1.1621,1.1568,149.5,98.1,0.478
12.4,31781.9,34538.2,1.1694,1.1562,149.5,98.1,0.478
12.42,31875.6,34717.9,1.1753,1.1666,149.5,98.1,0.478
12.44,32074.8,35044.9,1.1879,1.1856,149.5,98.1,0.478
12.46,32276.4,35549.8,1.2007,1.2148,149.5,98.1,0.478
12.48,32328.2,35696.5,1.204,1.2233,149.5,98.1,0.478
12.5,32336.0,35776.6,1.2045,1.2279,149.5,98.1,0.478
12.52,32211.5,35633.6,1.1966,1.2197,149.5,98.1,0.478
12.54,32201.5,35384.3,1.196,1.2052,149.5,98.1,0.478
12.56,32151.3,35351.1,1.1928,1.2033,149.5,98.1,0.478
12.58,32089.4,35076.3,1.1889,1.1874,149.5,98.1,0.478
12.6,32058.6,35048.4,1.1869,1.1858,149.5,98.1,0.478
12.62,32011.8,35018.8,1.1839,1.184,149.5,98.1,0.478
12.64,31971.1,34871.8,1.1814,1.1755,149.5,98.1,0.478
12.66,31929.2,34823.5,1.1787,1.1727,149.5,98.1,0.478
12.68,31875.9,34715.9,1.1753,1.1665,149.5,98.1,0.478
12.7,31840.4,34783.9,1.1731,1.1704,149.5,98.1,0.478
12.72,31861.6,34714.3,1.1744,1.1664,149.5,98.1,0.478
12.74,31873.7,34514.4,1.1752,1.1548,149.5,98.1,0.478
12.76,31764.4,34634.1,1.1683,1.1618,149.5,98.1,0.478
12.78,31724.1,34381.2,1.1657,1.1471,149.5,98.1,0.478
12.8,31900.9,34452.2,1.1769,1.1512,149.5,98.1,0.478
12.82,31892.8,34776.6,1.1764,1.17,149.5,98.1,0.478
12.84,32073.5,35030.3,1.1879,1.1847,149.5,98.1,0.478
12.86,32170.0,35534.4,1.194,1.2139,149.5,98.1,0.478
12.88,32305.4,35637.6,1.2026,1.2199,149.5,98.1,0.478
12.9,32384.3,35787.6,1.2076,1.2286,149.5,98.1,0.478
12.92,32223.9,35511.6,1.1974,1.2126,149.5,98.1,0.478
12.94,32186.7,35413.6,1.195,1.2069,149.5,98.1,0.478
12.96,32029.4,35197.7,1.1851,1.1944,149.5,98.1,0.478
12.98,32106.4,35143.4,1.1899,1.1913,149.5,98.1,0.478
13.0,32000.0,35046.4,1.1832,1.1856,149.5,98.1,0.478
13.02,32023.9,35093.0,1.1847,1.1883,149.5,98.1,0.478
13.04,31931.3,34923.6,1.1788,1.1785,149.5,98.1,0.478
13.06,31977.9,34792.7,1.1818,1.1709,149.5,98.1,0.478
13.08,31890.1,34802.1,1.1762,1.1715,149.5,98.1,0.478
13.1,31841.5,34750.5,1.1732,1.1685,149.5,98.1,0.478
13.12,31900.5,34719.2,1.1769,1.1667,149.5,98.1,0.478
13.14,31857.1,34612.7,1.1741,1.1605,149.5,98.1,0.478
13.16,31713.8,34548.7,1.1651,1.1568,149.5,98.1,0.478
13.18,31795.3,34466.1,1.1702,1.152,149.5,98.1,0.478
13.2,31689.0,34467.6,1.1635,1.1521,149.5,98.1,0.478
13.22,31823.7,34658.5,1.172,1.1632,149.5,98.1,0.478
13.24,32014.1,35052.8,1.1841,1.186,149.5,98.1,0.478
13.26,32145.6,35453.8,1.1924,1.2092,149.5,98.1,0.478
13.28,32319.8,35648.1,1.2035,1.2205,149.5,98.1,0.478
13.3,32322.7,35730.8,1.2037,1.2253,149.5,98.1,0.478
13.32,32233.4,35668.9,1.198,1.2217,149.5,98.1,0.478
13.34,32173.1,35435.6,1.1942,1.2082,149.5,98.1,0.478
13.36,32187.9,35236.5,1.1951,1.1967,149.5,98.1,0.478
13.38,32040.4,35111.8,1.1858,1.1894,149.5,98.1,0.478
13.4,31955.2,35041.8,1.1804,1.1854,149.5,98.1,0.478
13.42,32036.4,34943.4,1.1855,1.1797,149.5,98.1,0.478
13.44,32024.4,34895.1,1.1848,1.1769,149.5,98.1,0.478
13.46,31850.8,34796.1,1.1737,1.1711,149.5,98.1,0.478
13.48,31893.2,34718.1,1.1764,1.1666,149.5,98.1,0.478
13.5,31876.9,34651.6,1.1754,1.1628,149.5,98.1,0.478
13.52,31928.7,34783.1,1.1787,1.1704,149.5,98.1,0.478
13.54,31793.5,34674.9,1.1701,1.1641,149.5,98.1,0.478
13.56,31813.1,34547.8,1.1714,1.1567,149.5,98.1,0.478
13.58,31628.7,34446.8,1.1597,1.1509,149.5,98.1,0.478
13.6,31660.6,34462.6,1.1617,1.1518,149.5,98.1,0.478
13.62,31848.5,34651.0,1.1736,1.1627,149.5,98.1,0.478
13.64,31982.9,35035.8,1.1821,1.185,149.5,98.1,0.478
13.66,32137.2,35479.8,1.1919,1.2108,149.5,98.1,0.478
13.68,32154.7,35665.7,1.193,1.2215,149.5,98.1,0.478
13.7,32336.8,35810.6,1.2046,1.2299,149.5,98.1,0.478
13.72,32201.6,35627.4,1.196,1.2193,149.5,98.1,0.478
13.74,32151.1,35457.3,1.1928,1.2095,149.5,98.1,0.478
13.76,32085.5,35193.6,1.1886,1.1942,149.5,98.1,0.478
13.78,31997.4,35079.7,1.183,1.1876,149.5,98.1,0.478
13.8,32155.7,35088.4,1.1931,1.1881,149.5,98.1,0.478
13.82,31981.3,35029.1,1.182,1.1846,149.5,98.1,0.478
13.84,32008.5,34860.6,1.1837,1.1749,149.5,98.1,0.478
13.86,32007.2,34858.7,1.1837,1.1748,149.5,98.1,0.478
13.88,31860.6,34723.2,1.1744,1.1669,149.5,98.1,0.478
13.9,31734.1,34668.2,1.1664,1.1637,149.5,98.1,0.478
13.92,31957.4,34785.6,1.1805,1.1705,149.5,98.1,0.478
13.94,31810.2,34591.0,1.1712,1.1593,149.5,98.1,0.478
13.96,31746.9,34452.1,1.1672,1.1512,149.5,98.1,0.478
13.98,31817.6,34395.4,1.1716,1.1479,149.5,98.1,0.478
14.0,31672.8,34555.6,1.1625,1.1572,149.5,98.1,0.478
14.02,31895.6,34657.2,1.1766,1.1631,149.5,98.1,0.478
14.04,32034.4,35080.8,1.1854,1.1876,149.5,98.1,0.478
14.06,32168.2,35465.1,1.1939,1.2099,149.5,98.1,0.478
14.08,32306.1,35671.6,1.2026,1.2219,149.5,98.1,0.478
14.1,32285.4,35724.8,1.2013,1.225,149.5,98.1,0.478
14.12,32282.4,35629.0,1.2011,1.2194,149.5,98.1,0.478
14.14,32239.8,35378.9,1.1984,1.2049,149.5,98.1,0.478
14.16,32091.4,35237.7,1.189,1.1967,149.5,98.1,0.478
14.18,32112.9,35139.2,1.1904,1.191,149.5,98.1,0.478
14.2,32114.5,35046.5,1.1905,1.1856,149.5,98.1,0.478
14.22,32039.6,35041.6,1.1857,1.1854,149.5,98.1,0.478
14.24,31882.3,34862.6,1.1757,1.175,149.5,98.1,0.478
14.26,31905.6,34834.8,1.1772,1.1734,149.5,98.1,0.478
14.28,31811.1,34703.7,1.1712,1.1658,149.5,98.1,0.478
14.3,31836.1,34615.6,1.1728,1.1607,149.5,98.1,0.478
14.32,31862.1,34666.4,1.1745,1.1636,149.5,98.1,0.478
14.34,31812.8,34557.6,1.1713,1.1573,149.5,98.1,0.478
14.36,31792.3,34514.1,1.17,1.1548,149.5,98.1,0.478
14.38,31718.4,34457.3,1.1654,1.1515,149.5,98.1,0.478
14.4,31672.1,34456.5,1.1624,1.1515,149.5,98.1,0.478
14.42,31927.4,34623.5,1.1786,1.1611,149.5,98.1,0.478
14.44,32039.7,34995.2,1.1857,1.1827,149.5,98.1,0.478
14.46,32165.1,35385.4,1.1937,1.2053,149.5,98.1,0.478
14.48,32297.7,35603.5,1.2021,1.2179,149.5,98.1,0.478
14.5,32346.5,35830.1,1.2052,1.2311,149.5,98.1,0.478
14.52,32238.4,35653.9,1.1983,1.2208,149.5,98.1,0.478
14.54,32158.7,35383.1,1.1933,1.2052,149.5,98.1,0.478
14.56,32146.9,35198.2,1.1925,1.1944,149.5,98.1,0.478
14.58,32089.5,35149.3,1.1889,1.1916,149.5,98.1,0.478
14.6,32110.3,35192.4,1.1902,1.1941,149.5,98.1,0.478
14.62,32052.6,34951.0,1.1865,1.1801,149.5,98.1,0.478
14.64,32067.1,34913.5,1.1875,1.1779,149.5,98.1,0.478
14.66,31983.4,34875.0,1.1822,1.1757,149.5,98.1,0.478
14.68,31837.9,34753.1,1.1729,1.1686,149.5,98.1,0.478
14.7,31801.1,34655.5,1.1706,1.163,149.5,98.1,0.478
14.72,31841.7,34583.8,1.1732,1.1588,149.5,98.1,0.478
14.74,31810.9,34632.7,1.1712,1.1617,149.5,98.1,0.478
14.76,31774.7,34552.6,1.1689,1.157,149.5,98.1,0.478
14.78,31828.5,34460.7,1.1723,1.1517,149.5,98.1,0.478
14.8,31835.1,34497.9,1.1728,1.1539,149.5,98.1,0.478
14.82,31803.9,34627.0,1.1708,1.1613,149.5,98.1,0.478
14.84,32012.4,35059.7,1.184,1.1864,149.5,98.1,0.478
14.86,32145.0,35453.1,1.1924,1.2092,149.5,98.1,0.478
14.88,32231.3,35673.4,1.1979,1.222,149.5,98.1,0.478
14.9,32336.2,35765.9,1.2045,1.2273,149.5,98.1,0.478
14.92,32288.2,35617.9,1.2015,1.2188,149.5,98.1,0.478
14.94,32230.0,35410.8,1.1978,1.2068,149.5,98.1,0.478
14.96,32155.0,35211.3,1.193,1.1952,149.5,98.1,0.478
14.98,32103.6,35232.9,1.1898,1.1964,149.5,98.1,0.478
15.0,32051.5,35107.9,1.1865,1.1892,149.5,98.1,0.478
15.02,31966.4,35030.7,1.1811,1.1847,149.5,98.1,0.478
15.04,31915.4,34957.5,1.1778,1.1805,149.5,98.1,0.478
15.06,31904.6,34778.5,1.1772,1.1701,149.5,98.1,0.478
15.08,31764.0,34775.1,1.1682,1.1699,149.5,98.1,0.478
15.1,31851.6,34709.5,1.1738,1.1661,149.5,98.1,0.478
15.12,31854.7,34652.7,1.174,1.1628,149.5,98.1,0.478
15.14,31831.4,34660.7,1.1725,1.1633,149.5,98.1,0.478
15.16,31863.9,34585.4,1.1746,1.1589,149.5,98.1,0.478
15.18,31819.7,34496.6,1.1718,1.1538,149.5,98.1,0.478
15.2,31722.6,34477.8,1.1656,1.1527,149.5,98.1,0.478
15.22,31763.9,34650.3,1.1682,1.1627,149.5,98.1,0.478
15.24,31999.1,34971.3,1.1831,1.1813,149.5,98.1,0.478
15.26,32105.5,35347.0,1.1899,1.2031,149.5,98.1,0.478
15.28,32317.8,35693.7,1.2033,1.2231,149.5,98.1,0.478
15.3,32307.9,35731.1,1.2027,1.2253,149.5,98.1,0.478
15.32,32219.7,35736.9,1.1971,1.2257,149.5,98.1,0.478
15.34,32206.0,35512.5,1.1963,1.2126,149.5,98.1,0.478
15.36,32140.8,35322.1,1.1921,1.2016,149.5,98.1,0.478
15.38,32013.6,35167.8,1.1841,1.1927,149.5,98.1,0.478
15.4,31999.6,35016.4,1.1832,1.1839,149.5,98.1,0.478
15.42,31956.0,35116.0,1.1804,1.1897,149.5,98.1,0.478
15.44,31949.1,34918.7,1.18,1.1782,149.5,98.1,0.478
15.46,31964.2,34943.6,1.1809,1.1797,149.5,98.1,0.478
15.48,31934.1,34702.0,1.179,1.1657,149.5,98.1,0.478
15.5,31823.3,34659.4,1.172,1.1632,149.5,98.1,0.478
15.52,31900.6,34609.6,1.1769,1.1603,149.5,98.1,0.478
15.54,31870.1,34575.1,1.175,1.1583,149.5,98.1,0.478
15.56,31778.8,34582.7,1.1692,1.1588,149.5,98.1,0.478
15.58,31732.5,34528.0,1.1662,1.1556,149.5,98.1,0.478
15.6,31813.9,34529.4,1.1714,1.1557,149.5,98.1,0.478
15.62,31997.4,34635.0,1.183,1.1618,149.5,98.1,0.478
15.64,31973.0,34921.8,1.1815,1.1784,149.5,98.1,0.478
15.66,32148.8,35299.8,1.1926,1.2003,149.5,98.1,0.478
15.68,32355.2,35615.4,1.2057,1.2186,149.5,98.1,0.478
15.7,32294.1,35807.4,1.2018,1.2297,149.5,98.1,0.478
15.72,32312.2,35624.2,1.203,1.2191,149.5,98.1,0.478
15.74,32329.7,35520.0,1.2041,1.2131,149.5,98.1,0.478
15.76,32164.3,35308.5,1.1936,1.2008,149.5,98.1,0.478
15.78,32067.3,35154.8,1.1875,1.1919,149.5,98.1,0.478
15.8,32036.7,35140.6,1.1855,1.1911,149.5,98.1,0.478
15.82,31952.2,35015.3,1.1802,1.1838,149.5,98.1,0.478
15.84,31937.3,34982.3,1.1792,1.1819,149.5,98.1,0.478
15.86,31887.5,34887.3,1.1761,1.1764,149.5,98.1,0.478
15.88,31895.9,34742.5,1.1766,1.168,149.5,98.1,0.478
15.9,31859.7,34629.1,1.1743,1.1615,149.5,98.1,0.478
15.92,31813.4,34705.1,1.1714,1.1659,149.5,98.1,0.478
15.94,31783.5,34646.4,1.1695,1.1625,149.5,98.1,0.478
15.96,31809.5,34500.9,1.1711,1.154,149.5,98.1,0.478
15.98,31738.7,34470.3,1.1666,1.1523,149.5,98.1,0.478
16.0,31720.2,34556.6,1.1655,1.1573,149.5,98.1,0.478
16.02,31699.3,34664.3,1.1641,1.1635,149.5,98.1,0.478
16.04,32058.1,34845.8,1.1869,1.174,149.5,98.1,0.478
16.06,32153.6,35259.6,1.1929,1.198,149.5,98.1,0.478
16.08,32349.8,35584.3,1.2054,1.2168,149.5,98.1,0.478
16.1,32368.9,35779.8,1.2066,1.2281,149.5,98.1,0.478
16.12,32281.7,35683.9,1.2011,1.2226,149.5,98.1,0.478
16.14,32208.4,35537.3,1.1964,1.2141,149.5,98.1,0.478
16.16,32111.6,35247.8,1.1903,1.1973,149.5,98.1,0.478
16.18,32173.8,35162.1,1.1942,1.1923,149.5,98.1,0.478
16.2,32037.0,34991.2,1.1855,1.1824,149.5,98.1,0.478
16.22,32050.0,35075.7,1.1864,1.1873,149.5,98.1,0.478
16.24,32022.2,34902.9,1.1846,1.1773,149.5,98.1,0.478
16.26,31929.4,34795.9,1.1787,1.1711,149.5,98.1,0.478
16.28,31940.4,34632.6,1.1794,1.1617,149.5,98.1,0.478
16.3,31776.9,34663.5,1.1691,1.1635,149.5,98.1,0.478
16.32,31908.1,34619.1,1.1774,1.1609,149.5,98.1,0.478
16.34,31841.7,34666.0,1.1732,1.1636,149.5,98.1,0.478
16.36,31864.7,34570.2,1.1746,1.158,149.5,98.1,0.478
16.38,31772.4,34447.5,1.1688,1.1509,149.5,98.1,0.478
16.4,31643.9,34466.7,1.1606,1.1521,149.5,98.1,0.478
16.42,31857.1,34624.0,1.1741,1.1612,149.5,98.1,0.478
16.44,31939.7,34823.0,1.1794,1.1727,149.5,98.1,0.478
16.46,32129.2,35397.0,1.1914,1.206,149.5,98.1,0.478
16.48,32247.5,35635.1,1.1989,1.2198,149.5,98.1,0.478
16.5,32224.7,35634.7,1.1974,1.2197,149.5,98.1,0.478
16.52,32311.2,35744.4,1.2029,1.2261,149.5,98.1,0.478
16.54,32219.1,35526.9,1.1971,1.2135,149.5,98.1,0.478
16.56,32108.2,35339.5,1.1901,1.2026,149.5,98.1,0.478
16.58,32098.1,35179.3,1.1894,1.1933,149.5,98.1,0.478
16.6,32048.1,35077.6,1.1863,1.1874,149.5,98.1,0.478
16.62,32024.7,34998.1,1.1848,1.1828,149.5,98.1,0.478
16.64,31994.0,35003.1,1.1828,1.1831,149.5,98.1,0.478
16.66,31954.8,34816.5,1.1803,1.1723,149.5,98.1,0.478
16.68,31957.5,34712.1,1.1805,1.1663,149.5,98.1,0.478
16.7,31888.4,34675.9,1.1761,1.1642,149.5,98.1,0.478
16.72,31841.2,34705.6,1.1731,1.1659,149.5,98.1,0.478
16.74,31811.6,34633.7,1.1713,1.1617,149.5,98.1,0.478
16.76,31791.1,34530.8,1.17,1.1558,149.5,98.1,0.478
16.78,31733.4,34591.1,1.1663,1.1593,149.5,98.1,0.478
16.8,31682.8,34468.2,1.1631,1.1521,149.5,98.1,0.478
16.82,31798.9,34557.1,1.1705,1.1573,149.5,98.1,0.478
16.84,31929.2,34913.1,1.1787,1.1779,149.5,98.1,0.478
16.86,32155.8,35210.2,1.1931,1.1951,149.5,98.1,0.478
16.88,32292.0,35650.5,1.2017,1.2206,149.5,98.1,0.478
16.9,32382.2,35763.6,1.2074,1.2272,149.5,98.1,0.478
16.92,32395.8,35718.1,1.2083,1.2246,149.5,98.1,0.478
16.94,32281.3,35411.7,1.201,1.2068,149.5,98.1,0.478
16.96,32089.6,35321.5,1.1889,1.2016,149.5,98.1,0.478
16.98,32048.7,35247.3,1.1863,1.1973,149.5,98.1,0.478
17.0,32008.0,35147.2,1.1837,1.1915,149.5,98.1,0.478
17.02,32067.1,35113.7,1.1875,1.1895,149.5,98.1,0.478
17.04,32020.3,35042.1,1.1845,1.1854,149.5,98.1,0.478
17.06,31945.2,34897.6,1.1797,1.177,149.5,98.1,0.478
17.08,31935.3,34700.5,1.1791,1.1656,149.5,98.1,0.478
17.1,31791.0,34781.4,1.17,1.1703,149.5,98.1,0.478
17.12,31849.2,34710.2,1.1736,1.1662,149.5,98.1,0.478
17.14,31770.5,34676.0,1.1687,1.1642,149.5,98.1,0.478
17.16,31869.4,34604.7,1.1749,1.16,149.5,98.1,0.478
17.18,31818.0,34521.0,1.1717,1.1552,149.5,98.1,0.478
17.2,31697.9,34566.4,1.1641,1.1578,149.5,98.1,0.478
17.22,31805.8,34503.1,1.1709,1.1542,149.5,98.1,0.478
17.24,31930.0,34815.1,1.1788,1.1722,149.5,98.1,0.478
17.26,32127.9,35239.8,1.1913,1.1968,149.5,98.1,0.478
17.28,32319.6,35587.5,1.2035,1.217,149.5,98.1,0.478
17.3,32369.5,35762.4,1.2066,1.2271,149.5,98.1,0.478
17.32,32406.6,35691.3,1.209,1.223,149.5,98.1,0.478
17.34,32151.8,35523.3,1.1928,1.2133,149.5,98.1,0.478
17.36,32187.8,35331.2,1.1951,1.2021,149.5,98.1,0.478
17.38,32114.1,35144.2,1.1904,1.1913,149.5,98.1,0.478
17.4,32077.2,35170.3,1.1881,1.1928,149.5,98.1,0.478
17.42,31958.9,34999.4,1.1806,1.1829,149.5,98.1,0.478
17.44,32062.1,34940.3,1.1871,1.1795,149.5,98.1,0.478
17.46,31993.8,34877.4,1.1828,1.1758,149.5,98.1,0.478
17.48,31908.0,34708.4,1.1774,1.1661,149.5,98.1,0.478
17.5,31891.1,34655.8,1.1763,1.163,149.5,98.1,0.478
17.52,31870.4,34625.7,1.175,1.1613,149.5,98.1,0.478
17.54,31793.8,34621.0,1.1701,1.161,149.5,98.1,0.478
17.56,31820.2,34520.9,1.1718,1.1552,149.5,98.1,0.478
17.58,31722.7,34405.5,1.1656,1.1485,149.5,98.1,0.478
17.6,31825.9,34365.2,1.1722,1.1462,149.5,98.1,0.478
17.62,31808.1,34552.6,1.171,1.157,149.5,98.1,0.478
17.64,31895.5,34748.1,1.1766,1.1684,149.5,98.1,0.478
17.66,32107.1,35147.2,1.19,1.1915,149.5,98.1,0.478
17.68,32218.9,35461.3,1.1971,1.2097,149.5,98.1,0.478
17.7,32372.9,35808.2,1.2068,1.2298,149.5,98.1,0.478
17.72,32277.4,35767.3,1.2008,1.2274,149.5,98.1,0.478
17.74,32251.2,35560.6,1.1991,1.2154,149.5,98.1,0.478
17.76,32172.3,35384.8,1.1941,1.2052,149.5,98.1,0.478
17.78,32089.1,35176.9,1.1889,1.1932,149.5,98.1,0.478
17.8,32013.9,35063.8,1.1841,1.1866,149.5,98.1,0.478
17.82,32013.4,35087.2,1.1841,1.188,149.5,98.1,0.478
17.84,32002.7,34988.1,1.1834,1.1823,149.5,98.1,0.478
17.86,31999.0,34837.2,1.1831,1.1735,149.5,98.1,0.478
17.88,31834.2,34737.7,1.1727,1.1678,149.5,98.1,0.478
17.9,31889.7,34799.3,1.1762,1.1713,149.5,98.1,0.478
17.92,31747.6,34589.7,1.1672,1.1592,149.5,98.1,0.478
17.94,31726.4,34626.5,1.1659,1.1613,149.5,98.1,0.478
17.96,31925.0,34677.0,1.1784,1.1642,149.5,98.1,0.478
17.98,31817.9,34552.4,1.1717,1.157,149.5,98.1,0.478
18.0,31792.5,34395.3,1.1701,1.1479,149.5,98.1,0.478
18.02,31738.0,34541.9,1.1666,1.1564,149.5,98.1,0.478
18.04,31948.7,34843.7,1.18,1.1739,149.5,98.1,0.478
18.06,32037.4,35150.8,1.1856,1.1917,149.5,98.1,0.478
18.08,32211.0,35483.4,1.1966,1.211,149.5,98.1,0.478
18.1,32322.2,35753.3,1.2036,1.2266,149.5,98.1,0.478
18.12,32359.9,35688.9,1.206,1.2229,149.5,98.1,0.478
18.14,32248.9,35445.9,1.199,1.2088,149.5,98.1,0.478
18.16,32212.5,35331.8,1.1967,1.2022,149.5,98.1,0.478
18.18,32061.3,35217.7,1.1871,1.1956,149.5,98.1,0.478
18.2,32101.0,35131.5,1.1896,1.1906,149.5,98.1,0.478
18.22,32016.3,35166.7,1.1842,1.1926,149.5,98.1,0.478
18.24,32010.4,35071.0,1.1839,1.1871,149.5,98.1,0.478
18.26,31985.6,34903.7,1.1823,1.1774,149.5,98.1,0.478
18.28,31876.1,34789.0,1.1754,1.1707,149.5,98.1,0.478
18.3,31812.9,34781.9,1.1713,1.1703,149.5,98.1,0.478
18.32,31901.7,34659.4,1.177,1.1632,149.5,98.1,0.478
18.34,31919.1,34582.6,1.1781,1.1588,149.5,98.1,0.478
18.36,31817.9,34601.0,1.1717,1.1598,149.5,98.1,0.478
18.38,31810.1,34523.2,1.1712,1.1553,149.5,98.1,0.478
18.4,31866.4,34469.4,1.1747,1.1522,149.5,98.1,0.478
18.42,31762.6,34371.6,1.1682,1.1465,149.5,98.1,0.478
18.44,31907.0,34725.6,1.1773,1.1671,149.5,98.1,0.478
18.46,32027.1,35110.9,1.1849,1.1894,149.5,98.1,0.478
18.48,32274.4,35513.8,1.2006,1.2127,149.5,98.1,0.478
18.5,32310.4,35707.4,1.2029,1.2239,149.5,98.1,0.478
18.52,32322.2,35821.1,1.2036,1.2305,149.5,98.1,0.478
18.54,32284.5,35631.5,1.2012,1.2195,149.5,98.1,0.478
18.56,32140.8,35366.6,1.1921,1.2042,149.5,98.1,0.478
18.58,32096.5,35226.7,1.1893,1.1961,149.5,98.1,0.478
18.6,32042.7,35134.1,1.1859,1.1907,149.5,98.1,0.478
18.62,32062.9,35020.8,1.1872,1.1842,149.5,98.1,0.478
18.64,32013.7,34942.3,1.1841,1.1796,149.5,98.1,0.478
18.66,31901.0,34893.4,1.1769,1.1768,149.5,98.1,0.478
18.68,31943.9,34828.6,1.1796,1.173,149.5,98.1,0.478
18.7,31862.4,34605.8,1.1745,1.1601,149.5,98.1,0.478
18.72,31908.0,34668.0,1.1774,1.1637,149.5,98.1,0.478
18.74,31828.4,34729.7,1.1723,1.1673,149.5,98.1,0.478
18.76,31789.1,34634.9,1.1698,1.1618,149.5,98.1,0.478
18.78,31794.4,34473.7,1.1702,1.1525,149.5,98.1,0.478
18.8,31753.0,34520.5,1.1675,1.1552,149.5,98.1,0.478
18.82,31760.2,34561.7,1.168,1.1576,149.5,98.1,0.478
18.84,31904.7,34729.3,1.1772,1.1673,149.5,98.1,0.478
18.86,31997.1,35092.5,1.183,1.1883,149.5,98.1,0.478
18.88,32254.0,35500.0,1.1993,1.2119,149.5,98.1,0.478
18.9,32268.6,35750.5,1.2002,1.2264,149.5,98.1,0.478
18.92,32294.2,35741.1,1.2019,1.2259,149.5,98.1,0.478
18.94,32300.4,35647.6,1.2022,1.2205,149.5,98.1,0.478
18.96,32150.1,35383.3,1.1927,1.2052,149.5,98.1,0.478
18.98,31987.5,35208.3,1.1824,1.195,149.5,98.1,0.478
19.0,32128.7,35164.3,1.1914,1.1925,149.5,98.1,0.478
19.02,31996.6,34967.6,1.183,1.1811,149.5,98.1,0.478
19.04,32044.7,35008.3,1.186,1.1834,149.5,98.1,0.478
19.06,31956.3,34802.1,1.1804,1.1715,149.5,98.1,0.478
19.08,31806.3,34759.5,1.1709,1.169,149.5,98.1,0.478
19.1,31854.0,34763.0,1.1739,1.1692,149.5,98.1,0.478
19.12,31862.2,34609.6,1.1745,1.1603,149.5,98.1,0.478
19.14,31795.8,34721.0,1.1703,1.1668,149.5,98.1,0.478
19.16,31845.4,34637.7,1.1734,1.162,149.5,98.1,0.478
19.18,31793.9,34526.7,1.1701,1.1555,149.5,98.1,0.478
19.2,31786.0,34437.4,1.1696,1.1504,149.5,98.1,0.478
19.22,31751.1,34475.4,1.1674,1.1526,149.5,98.1,0.478
19.24,31829.1,34735.0,1.1724,1.1676,149.5,98.1,0.478
19.26,32052.0,35043.3,1.1865,1.1855,149.5,98.1,0.478
19.28,32193.3,35508.0,1.1955,1.2124,149.5,98.1,0.478
19.3,32377.6,35683.5,1.2071,1.2226,149.5,98.1,0.478
19.32,32438.4,35797.5,1.211,1.2292,149.5,98.1,0.478
19.34,32242.6,35588.1,1.1986,1.217,149.5,98.1,0.478
19.36,32170.2,35408.4,1.194,1.2066,149.5,98.1,0.478
19.38,32139.4,35245.9,1.192,1.1972,149.5,98.1,0.478
19.4,32041.1,35106.7,1.1858,1.1891,149.5,98.1,0.478
19.42,32030.2,35079.5,1.1851,1.1876,149.5,98.1,0.478
19.44,32088.1,35096.5,1.1888,1.1885,149.5,98.1,0.478
19.46,32047.2,34952.6,1.1862,1.1802,149.5,98.1,0.478
19.48,31887.3,34772.6,1.1761,1.1698,149.5,98.1,0.478
19.5,31915.9,34655.9,1.1779,1.163,149.5,98.1,0.478
19.52,31835.4,34686.1,1.1728,1.1648,149.5,98.1,0.478
19.54,31927.7,34681.6,1.1786,1.1645,149.5,98.1,0.478
19.56,31864.0,34663.5,1.1746,1.1635,149.5,98.1,0.478
19.58,31844.2,34536.1,1.1733,1.1561,149.5,98.1,0.478
19.6,31787.4,34480.4,1.1697,1.1528,149.5,98.1,0.478
19.62,31808.6,34522.3,1.1711,1.1553,149.5,98.1,0.478
19.64,31859.7,34590.4,1.1743,1.1592,149.5,98.1,0.478
19.66,32054.3,35133.2,1.1866,1.1907,149.5,98.1,0.478
19.68,32109.2,35399.7,1.1901,1.2061,149.5,98.1,0.478
19.7,32266.2,35728.9,1.2001,1.2252,149.5,98.1,0.478
19.72,32306.4,35789.6,1.2026,1.2287,149.5,98.1,0.478
19.74,32269.5,35553.5,1.2003,1.215,149.5,98.1,0.478
19.76,32136.5,35429.2,1.1919,1.2078,149.5,98.1,0.478
19.78,32103.2,35307.1,1.1897,1.2007,149.5,98.1,0.478
19.8,31960.3,35054.5,1.1807,1.1861,149.5,98.1,0.478
19.82,31950.1,35122.1,1.18,1.19,149.5,98.1,0.478
19.84,31971.7,35003.1,1.1814,1.1831,149.5,98.1,0.478
19.86,31974.4,34922.2,1.1816,1.1784,149.5,98.1,0.478
19.88,31903.0,34765.3,1.1771,1.1694,149.5,98.1,0.478
19.9,31843.6,34792.8,1.1733,1.1709,149.5,98.1,0.478
19.92,31800.2,34679.1,1.1705,1.1644,149.5,98.1,0.478
19.94,31819.3,34596.6,1.1717,1.1596,149.5,98.1,0.478
19.96,31883.6,34616.2,1.1758,1.1607,149.5,98.1,0.478
19.98,31746.2,34522.3,1.1671,1.1553,149.5,98.1,0.478
20.0,31715.3,34509.8,1.1652,1.1545,149.5,98.1,0.478
20.02,31835.6,34477.6,1.1728,1.1527,149.5,98.1,0.478
20.04,31822.8,34602.0,1.172,1.1599,149.5,98.1,0.478
20.06,32007.9,35043.8,1.1837,1.1855,149.5,98.1,0.478
20.08,32253.7,35418.9,1.1993,1.2072,149.5,98.1,0.478
20.1,32323.8,35729.3,1.2037,1.2252,149.5,98.1,0.478
20.12,32330.3,35753.3,1.2041,1.2266,149.5,98.1,0.478
20.14,32234.0,35612.6,1.198,1.2184,149.5,98.1,0.478
20.16,32215.8,35493.3,1.1969,1.2115,149.5,98.1,0.478
20.18,32059.3,35366.4,1.187,1.2042,149.5,98.1,0.478
20.2,32136.9,35129.7,1.1919,1.1905,149.5,98.1,0.478
20.22,32152.5,35086.7,1.1929,1.188,149.5,98.1,0.478
20.24,32004.0,35019.4,1.1835,1.1841,149.5,98.1,0.478
20.26,31960.5,34826.0,1.1807,1.1729,149.5,98.1,0.478
20.28,31953.0,34866.4,1.1802,1.1752,149.5,98.1,0.478
20.3,31881.7,34681.6,1.1757,1.1645,149.5,98.1,0.478
20.32,31859.0,34692.5,1.1743,1.1651,149.5,98.1,0.478
20.34,31884.0,34628.9,1.1759,1.1615,149.5,98.1,0.478
20.36,31855.4,34601.4,1.174,1.1599,149.5,98.1,0.478
20.38,31782.6,34550.3,1.1694,1.1569,149.5,98.1,0.478
20.4,31800.2,34350.4,1.1705,1.1453,149.5,98.1,0.478
20.42,31878.4,34534.6,1.1755,1.156,149.5,98.1,0.478
20.44,31912.1,34679.6,1.1776,1.1644,149.5,98.1,0.478
20.46,32031.2,34989.8,1.1852,1.1824,149.5,98.1,0.478
20.48,32118.6,35391.8,1.1907,1.2057,149.5,98.1,0.478
20.5,32221.8,35676.8,1.1973,1.2222,149.5,98.1,0.478
20.52,32388.4,35689.8,1.2078,1.2229,149.5,98.1,0.478
20.54,32283.7,35655.6,1.2012,1.2209,149.5,98.1,0.478
20.56,32237.6,35436.7,1.1983,1.2083,149.5,98.1,0.478
20.58,32065.3,35332.8,1.1873,1.2022,149.5,98.1,0.478
20.6,32058.7,35194.7,1.1869,1.1942,149.5,98.1,0.478
20.62,31926.1,35081.2,1.1785,1.1877,149.5,98.1,0.478
20.64,31987.9,34952.6,1.1824,1.1802,149.5,98.1,0.478
20.66,31934.5,34940.9,1.1791,1.1795,149.5,98.1,0.478
20.68,31921.0,34788.4,1.1782,1.1707,149.5,98.1,0.478
20.7,31882.3,34693.4,1.1757,1.1652,149.5,98.1,0.478
20.72,31943.2,34706.0,1.1796,1.1659,149.5,98.1,0.478
20.74,31845.3,34650.8,1.1734,1.1627,149.5,98.1,0.478
20.76,31811.6,34721.3,1.1713,1.1668,149.5,98.1,0.478
20.78,31802.5,34550.7,1.1707,1.1569,149.5,98.1,0.478
20.8,31790.9,34493.1,1.1699,1.1536,149.5,98.1,0.478
20.82,31818.0,34564.6,1.1717,1.1577,149.5,98.1,0.478
20.84,31788.2,34698.7,1.1698,1.1655,149.5,98.1,0.478
20.86,32006.1,35010.7,1.1836,1.1836,149.5,98.1,0.478
20.88,32185.0,35277.0,1.1949,1.199,149.5,98.1,0.478
20.9,32294.7,35747.1,1.2019,1.2262,149.5,98.1,0.478
20.92,32201.9,35816.9,1.196,1.2303,149.5,98.1,0.478
20.94,32307.1,35640.9,1.2027,1.2201,149.5,98.1,0.478
20.96,32109.3,35479.8,1.1901,1.2108,149.5,98.1,0.478
20.98,32142.7,35341.6,1.1922,1.2027,149.5,98.1,0.478
21.0,32068.6,35070.0,1.1876,1.187,149.5,98.1,0.478
21.02,31977.9,35107.6,1.1818,1.1892,149.5,98.1,0.478
21.04,31956.9,34936.0,1.1805,1.1792,149.5,98.1,0.478
21.06,31984.9,34969.9,1.1822,1.1812,149.5,98.1,0.478
21.08,31857.2,34768.1,1.1742,1.1695,149.5,98.1,0.478
21.1,31912.9,34731.3,1.1777,1.1674,149.5,98.1,0.478
21.12,31899.9,34717.5,1.1769,1.1666,149.5,98.1,0.478
21.14,31848.6,34724.1,1.1736,1.167,149.5,98.1,0.478
21.16,31776.3,34622.8,1.169,1.1611,149.5,98.1,0.478
21.18,31864.4,34534.7,1.1746,1.156,149.5,98.1,0.478
21.2,31725.1,34411.3,1.1658,1.1488,149.5,98.1,0.478
21.22,31741.0,34586.1,1.1668,1.159,149.5,98.1,0.478
21.24,31830.0,34477.8,1.1724,1.1527,149.5,98.1,0.478
21.26,32063.6,34877.7,1.1872,1.1759,149.5,98.1,0.478
21.28,32034.1,35363.1,1.1854,1.204,149.5,98.1,0.478
21.3,32343.5,35608.9,1.205,1.2182,149.5,98.1,0.478
21.32,32276.1,35808.8,1.2007,1.2298,149.5,98.1,0.478
21.34,32376.0,35736.8,1.207,1.2256,149.5,98.1,0.478
21.36,32209.9,35423.9,1.1965,1.2075,149.5,98.1,0.478
21.38,32088.0,35205.0,1.1888,1.1948,149.5,98.1,0.478
21.4,32061.4,35245.8,1.1871,1.1972,149.5,98.1,0.478
21.42,31956.7,35080.3,1.1805,1.1876,149.5,98.1,0.478
21.44,31985.6,35114.9,1.1823,1.1896,149.5,98.1,0.478
21.46,31935.7,35023.9,1.1791,1.1843,149.5,98.1,0.478
21.48,31842.8,34805.6,1.1732,1.1717,149.5,98.1,0.478
21.5,31868.3,34725.9,1.1749,1.1671,149.5,98.1,0.478
21.52,31876.7,34592.9,1.1754,1.1594,149.5,98.1,0.478
21.54,31944.1,34660.2,1.1797,1.1633,149.5,98.1,0.478
21.56,31854.3,34681.6,1.174,1.1645,149.5,98.1,0.478
21.58,31800.6,34616.2,1.1706,1.1607,149.5,98.1,0.478
21.6,31723.5,34474.3,1.1657,1.1525,149.5,98.1,0.478
21.62,31756.3,34525.8,1.1678,1.1555,149.5,98.1,0.478
21.64,31876.1,34634.5,1.1753,1.1618,149.5,98.1,0.478
21.66,31943.0,34915.0,1.1796,1.178,149.5,98.1,0.478
21.68,32136.6,35262.5,1.1919,1.1982,149.5,98.1,0.478
21.7,32304.1,35583.6,1.2025,1.2168,149.5,98.1,0.478
21.72,32238.8,35709.3,1.1983,1.2241,149.5,98.1,0.478
21.74,32415.2,35686.4,1.2095,1.2227,149.5,98.1,0.478
21.76,32225.5,35492.1,1.1975,1.2115,149.5,98.1,0.478
21.78,32201.3,35261.0,1.196,1.1981,149.5,98.1,0.478
21.8,32099.6,35066.7,1.1895,1.1868,149.5,98.1,0.478
21.82,32034.1,35081.0,1.1854,1.1876,149.5,98.1,0.478
21.84,31927.5,35062.1,1.1786,1.1866,149.5,98.1,0.478
21.86,31976.8,34961.7,1.1817,1.1807,149.5,98.1,0.478
21.88,31849.6,34818.2,1.1737,1.1724,149.5,98.1,0.478
21.9,31826.7,34667.3,1.1722,1.1637,149.5,98.1,0.478
21.92,31908.8,34691.9,1.1774,1.1651,149.5,98.1,0.478
21.94,31953.5,34644.6,1.1803,1.1624,149.5,98.1,0.478
21.96,31838.9,34636.6,1.173,1.1619,149.5,98.1,0.478
21.98,31739.9,34585.9,1.1667,1.159,149.5,98.1,0.478
22.0,31747.7,34491.2,1.1672,1.1535,149.5,98.1,0.478
22.02,31745.2,34540.7,1.1671,1.1563,149.5,98.1,0.478
22.04,31778.3,34607.3,1.1692,1.1602,149.5,98.1,0.478
22.06,31955.9,34940.9,1.1804,1.1795,149.5,98.1,0.478
22.08,32115.1,35368.8,1.1905,1.2043,149.5,98.1,0.478
22.1,32340.0,35588.8,1.2048,1.2171,149.5,98.1,0.478
22.12,32281.9,35793.9,1.2011,1.229,149.5,98.1,0.478
22.14,32318.1,35725.3,1.2034,1.225,149.5,98.1,0.478
22.16,32225.7,35502.8,1.1975,1.2121,149.5,98.1,0.478
22.18,32137.9,35305.5,1.1919,1.2007,149.5,98.1,0.478
22.2,32023.3,35150.1,1.1847,1.1917,149.5,98.1,0.478
22.22,31950.5,35103.3,1.1801,1.1889,149.5,98.1,0.478
22.24,32078.8,35024.5,1.1882,1.1844,149.5,98.1,0.478
22.26,31994.2,34923.0,1.1828,1.1785,149.5,98.1,0.478
22.28,31898.9,34888.7,1.1768,1.1765,149.5,98.1,0.478
22.3,31901.1,34704.2,1.1769,1.1658,149.5,98.1,0.478
22.32,31875.2,34709.9,1.1753,1.1661,149.5,98.1,0.478
22.34,31878.0,34600.5,1.1755,1.1598,149.5,98.1,0.478
22.36,31825.1,34588.5,1.1721,1.1591,149.5,98.1,0.478
22.38,31758.6,34565.7,1.1679,1.1578,149.5,98.1,0.478
22.4,31775.1,34480.8,1.1689,1.1529,149.5,98.1,0.478
22.42,31842.3,34478.2,1.1732,1.1527,149.5,98.1,0.478
22.44,31789.3,34585.3,1.1698,1.1589,149.5,98.1,0.478
22.46,31953.3,34860.3,1.1802,1.1749,149.5,98.1,0.478
22.48,32127.5,35214.0,1.1913,1.1954,149.5,98.1,0.478
22.5,32287.4,35595.9,1.2014,1.2175,149.5,98.1,0.478
22.52,32341.2,35744.2,1.2048,1.2261,149.5,98.1,0.478
22.54,32301.1,35723.6,1.2023,1.2249,149.5,98.1,0.478
22.56,32264.0,35584.6,1.1999,1.2168,149.5,98.1,0.478
22.58,32051.0,35276.7,1.1864,1.199,149.5,98.1,0.478
22.6,32029.1,35183.9,1.1851,1.1936,149.5,98.1,0.478
22.62,32068.4,35094.8,1.1875,1.1884,149.5,98.1,0.478
22.64,31929.1,34973.8,1.1787,1.1814,149.5,98.1,0.478
22.66,31948.9,34916.5,1.18,1.1781,149.5,98.1,0.478
22.68,31918.8,34814.9,1.1781,1.1722,149.5,98.1,0.478
22.7,31845.9,34803.2,1.1734,1.1715,149.5,98.1,0.478
22.72,31857.3,34623.4,1.1742,1.1611,149.5,98.1,0.478
22.74,31821.6,34720.7,1.1719,1.1668,149.5,98.1,0.478
22.76,31898.0,34575.0,1.1767,1.1583,149.5,98.1,0.478
22.78,31786.6,34535.5,1.1697,1.156,149.5,98.1,0.478
22.8,31740.0,34533.5,1.1667,1.1559,149.5,98.1,0.478
22.82,31820.9,34369.9,1.1719,1.1464,149.5,98.1,0.478
22.84,31816.3,34538.8,1.1716,1.1562,149.5,98.1,0.478
22.86,31912.3,34853.8,1.1776,1.1745,149.5,98.1,0.478
22.88,32199.0,35280.8,1.1958,1.1992,149.5,98.1,0.478
22.9,32271.6,35525.7,1.2004,1.2134,149.5,98.1,0.478
22.92,32440.6,35858.0,1.2111,1.2327,149.5,98.1,0.478
22.94,32312.1,35669.3,1.203,1.2217,149.5,98.1,0.478
22.96,32177.8,35558.9,1.1945,1.2153,149.5,98.1,0.478
22.98,32105.5,35297.7,1.1899,1.2002,149.5,98.1,0.478
23.0,32059.7,35181.2,1.187,1.1935,149.5,98.1,0.478
23.02,32048.9,35115.6,1.1863,1.1897,149.5,98.1,0.478
23.04,32046.8,35112.2,1.1862,1.1895,149.5,98.1,0.478
23.06,32011.5,34978.0,1.1839,1.1817,149.5,98.1,0.478
23.08,31900.5,34800.0,1.1769,1.1714,149.5,98.1,0.478
23.1,31872.1,34836.4,1.1751,1.1735,149.5,98.1,0.478
23.12,31817.3,34693.7,1.1716,1.1652,149.5,98.1,0.478
23.14,31779.0,34713.1,1.1692,1.1663,149.5,98.1,0.478
23.16,31858.2,34602.2,1.1742,1.1599,149.5,98.1,0.478
23.18,31828.3,34663.7,1.1723,1.1635,149.5,98.1,0.478
23.2,31681.7,34550.4,1.163,1.1569,149.5,98.1,0.478
23.22,31682.0,34486.5,1.163,1.1532,149.5,98.1,0.478
23.24,31762.5,34626.1,1.1681,1.1613,149.5,98.1,0.478
23.26,31898.8,34870.2,1.1768,1.1754,149.5,98.1,0.478
23.28,32067.0,35267.9,1.1875,1.1985,149.5,98.1,0.478
23.3,32269.6,35471.5,1.2003,1.2103,149.5,98.1,0.478
23.32,32380.7,35720.5,1.2073,1.2247,149.5,98.1,0.478
23.34,32277.3,35714.8,1.2008,1.2244,149.5,98.1,0.478
23.36,32234.1,35426.9,1.198,1.2077,149.5,98.1,0.478
23.38,32139.0,35305.7,1.192,1.2007,149.5,98.1,0.478
23.4,32046.1,35158.7,1.1861,1.1921,149.5,98.1,0.478
23.42,31965.6,35102.0,1.181,1.1889,149.5,98.1,0.478
23.44,32101.4,35104.3,1.1896,1.189,149.5,98.1,0.478
23.46,31980.9,34902.5,1.182,1.1773,149.5,98.1,0.478
23.48,31887.9,34873.5,1.1761,1.1756,149.5,98.1,0.478
23.5,31941.5,34780.0,1.1795,1.1702,149.5,98.1,0.478
23.52,31789.6,34668.6,1.1699,1.1638,149.5,98.1,0.478
23.54,31873.8,34674.2,1.1752,1.1641,149.5,98.1,0.478
23.56,31869.0,34611.8,1.1749,1.1605,149.5,98.1,0.478
23.58,31858.3,34715.8,1.1742,1.1665,149.5,98.1,0.478
23.6,31811.5,34562.5,1.1713,1.1576,149.5,98.1,0.478
23.62,31831.6,34538.5,1.1725,1.1562,149.5,98.1,0.478
23.64,31813.6,34580.0,1.1714,1.1586,149.5,98.1,0.478
23.66,31983.5,34818.1,1.1822,1.1724,149.5,98.1,0.478
23.68,32010.5,35203.3,1.1839,1.1947,149.5,98.1,0.478
23.7,32228.5,35601.1,1.1977,1.2178,149.5,98.1,0.478
23.72,32350.3,35771.8,1.2054,1.2277,149.5,98.1,0.478
23.74,32330.5,35766.7,1.2042,1.2274,149.5,98.1,0.478
23.76,32273.8,35557.1,1.2006,1.2152,149.5,98.1,0.478
23.78,32161.2,35336.9,1.1934,1.2025,149.5,98.1,0.478
23.8,32111.4,35163.8,1.1903,1.1924,149.5,98.1,0.478
23.82,32048.8,35088.6,1.1863,1.1881,149.5,98.1,0.478
23.84,32072.5,35092.7,1.1878,1.1883,149.5,98.1,0.478
23.86,32033.2,34998.0,1.1853,1.1828,149.5,98.1,0.478
23.88,31995.1,34791.9,1.1829,1.1709,149.5,98.1,0.478
23.9,31933.3,34751.3,1.179,1.1685,149.5,98.1,0.478
23.92,31909.5,34668.8,1.1775,1.1638,149.5,98.1,0.478
23.94,31819.9,34686.4,1.1718,1.1648,149.5,98.1,0.478
23.96,31818.6,34616.4,1.1717,1.1607,149.5,98.1,0.478
23.98,31776.7,34571.2,1.1691,1.1581,149.5,98.1,0.478
24.0,31789.1,34481.4,1.1698,1.1529,149.5,98.1,0.478
24.02,31792.0,34471.0,1.17,1.1523,149.5,98.1,0.478
24.04,31859.0,34539.2,1.1743,1.1563,149.5,98.1,0.478
24.06,31899.6,34768.5,1.1768,1.1695,149.5,98.1,0.478
24.08,32120.1,35249.6,1.1908,1.1974,149.5,98.1,0.478
24.1,32290.0,35560.4,1.2016,1.2154,149.5,98.1,0.478
24.12,32261.8,35774.6,1.1998,1.2278,149.5,98.1,0.478
24.14,32294.8,35780.1,1.2019,1.2282,149.5,98.1,0.478
24.16,32160.0,35508.9,1.1933,1.2124,149.5,98.1,0.478
24.18,32172.6,35330.7,1.1941,1.2021,149.5,98.1,0.478
24.2,32085.2,35150.8,1.1886,1.1917,149.5,98.1,0.478
24.22,31948.9,35273.6,1.18,1.1988,149.5,98.1,0.478
24.24,32037.7,35128.6,1.1856,1.1904,149.5,98.1,0.478
24.26,31932.3,35055.5,1.1789,1.1862,149.5,98.1,0.478
24.28,31913.6,34940.1,1.1777,1.1795,149.5,98.1,0.478
24.3,31927.2,34822.6,1.1786,1.1727,149.5,98.1,0.478
24.32,31840.9,34779.5,1.1731,1.1702,149.5,98.1,0.478
24.34,31909.6,34616.1,1.1775,1.1607,149.5,98.1,0.478
24.36,31901.1,34660.7,1.1769,1.1633,149.5,98.1,0.478
24.38,31900.1,34534.7,1.1769,1.156,149.5,98.1,0.478
24.4,31851.0,34496.9,1.1738,1.1538,149.5,98.1,0.478
24.42,31769.0,34381.7,1.1686,1.1471,149.5,98.1,0.478
24.44,31804.3,34451.1,1.1708,1.1511,149.5,98.1,0.478
24.46,31938.9,34760.3,1.1793,1.1691,149.5,98.1,0.478
24.48,32055.5,35134.5,1.1867,1.1907,149.5,98.1,0.478
24.5,32286.6,35477.0,1.2014,1.2106,149.5,98.1,0.478
24.52,32246.4,35688.4,1.1988,1.2228,149.5,98.1,0.478
24.54,32292.3,35753.2,1.2017,1.2266,149.5,98.1,0.478
24.56,32249.7,35649.7,1.199,1.2206,149.5,98.1,0.478
24.58,32152.9,35401.3,1.1929,1.2062,149.5,98.1,0.478
24.6,32039.1,35224.1,1.1857,1.1959,149.5,98.1,0.478
24.62,32067.6,35106.3,1.1875,1.1891,149.5,98.1,0.478
24.64,32023.8,35055.2,1.1847,1.1862,149.5,98.1,0.478
24.66,32044.8,34993.4,1.186,1.1826,149.5,98.1,0.478
24.68,31943.5,34844.5,1.1796,1.1739,149.5,98.1,0.478
24.7,31974.0,34733.5,1.1816,1.1675,149.5,98.1,0.478
24.72,31858.8,34690.4,1.1743,1.165,149.5,98.1,0.478
24.74,31863.2,34628.1,1.1745,1.1614,149.5,98.1,0.478
24.76,31894.0,34587.6,1.1765,1.1591,149.5,98.1,0.478
24.78,31751.1,34571.5,1.1674,1.1581,149.5,98.1,0.478
24.8,31804.2,34518.4,1.1708,1.155,149.5,98.1,0.478
24.82,31803.0,34428.7,1.1707,1.1498,149.5,98.1,0.478
24.84,31786.9,34468.8,1.1697,1.1522,149.5,98.1,0.478
24.86,31874.9,34757.9,1.1753,1.1689,149.5,98.1,0.478
24.88,32019.2,35075.7,1.1844,1.1873,149.5,98.1,0.478
24.9,32166.8,35430.0,1.1938,1.2079,149.5,98.1,0.478
24.92,32338.8,35646.5,1.2047,1.2204,149.5,98.1,0.478
24.94,32259.4,35686.0,1.1996,1.2227,149.5,98.1,0.478
24.96,32231.1,35523.3,1.1979,1.2133,149.5,98.1,0.478
24.98,32177.7,35423.2,1.1945,1.2075,149.5,98.1,0.478
25.0,32074.5,35223.1,1.1879,1.1959,149.5,98.1,0.478
25.02,32129.2,35106.4,1.1914,1.1891,149.5,98.1,0.478
25.04,32002.6,34985.1,1.1834,1.1821,149.5,98.1,0.478
25.06,31924.9,35019.1,1.1784,1.1841,149.5,98.1,0.478
25.08,31953.5,34840.1,1.1803,1.1737,149.5,98.1,0.478
25.1,32006.0,34730.4,1.1836,1.1673,149.5,98.1,0.478
25.12,31904.7,34709.5,1.1772,1.1661,149.5,98.1,0.478
25.14,31927.1,34685.7,1.1786,1.1647,149.5,98.1,0.478
25.16,31886.5,34652.5,1.176,1.1628,149.5,98.1,0.478
25.18,31791.9,34573.7,1.17,1.1583,149.5,98.1,0.478
25.2,31789.1,34469.4,1.1698,1.1522,149.5,98.1,0.478
25.22,31669.9,34460.5,1.1623,1.1517,149.5,98.1,0.478
25.24,31792.9,34469.1,1.1701,1.1522,149.5,98.1,0.478
25.26,31821.3,34746.7,1.1719,1.1683,149.5,98.1,0.478
25.28,32110.6,35048.3,1.1902,1.1858,149.5,98.1,0.478
25.3,32186.8,35434.4,1.195,1.2081,149.5,98.1,0.478
25.32,32257.1,35674.0,1.1995,1.222,149.5,98.1,0.478
25.34,32356.4,35759.2,1.2058,1.2269,149.5,98.1,0.478
25.36,32362.2,35580.9,1.2062,1.2166,149.5,98.1,0.478
25.38,32129.0,35405.3,1.1914,1.2064,149.5,98.1,0.478
25.4,32108.3,35237.6,1.1901,1.1967,149.5,98.1,0.478
25.42,32004.9,35118.6,1.1835,1.1898,149.5,98.1,0.478
25.44,32109.5,35089.4,1.1901,1.1881,149.5,98.1,0.478
25.46,31970.8,35036.9,1.1814,1.1851,149.5,98.1,0.478
25.48,31932.5,34856.7,1.1789,1.1746,149.5,98.1,0.478
25.5,31892.5,34799.2,1.1764,1.1713,149.5,98.1,0.478
25.52,31856.9,34695.7,1.1741,1.1653,149.5,98.1,0.478
25.54,31878.8,34695.9,1.1755,1.1653,149.5,98.1,0.478
25.56,31750.5,34541.0,1.1674,1.1564,149.5,98.1,0.478
25.58,31862.4,34616.0,1.1745,1.1607,149.5,98.1,0.478
25.6,31809.1,34475.0,1.1711,1.1525,149.5,98.1,0.478
25.62,31677.8,34473.5,1.1628,1.1524,149.5,98.1,0.478
25.64,31777.6,34499.4,1.1691,1.1539,149.5,98.1,0.478
25.66,31875.6,34692.4,1.1753,1.1651,149.5,98.1,0.478
25.68,32028.2,35130.4,1.185,1.1905,149.5,98.1,0.478
25.7,32193.0,35529.0,1.1954,1.2136,149.5,98.1,0.478
25.72,32298.6,35729.2,1.2021,1.2252,149.5,98.1,0.478
25.74,32295.5,35692.7,1.2019,1.2231,149.5,98.1,0.478
25.76,32255.4,35615.0,1.1994,1.2186,149.5,98.1,0.478
25.78,32252.2,35542.9,1.1992,1.2144,149.5,98.1,0.478
25.8,32151.9,35318.9,1.1928,1.2014,149.5,98.1,0.478
25.82,32112.2,35103.7,1.1903,1.189,149.5,98.1,0.478
25.84,31979.8,35171.0,1.1819,1.1929,149.5,98.1,0.478
25.86,32028.0,34945.7,1.185,1.1798,149.5,98.1,0.478
25.88,31977.5,34961.1,1.1818,1.1807,149.5,98.1,0.478
25.9,31875.3,34776.1,1.1753,1.17,149.5,98.1,0.478
25.92,31829.3,34679.2,1.1724,1.1644,149.5,98.1,0.478
25.94,31901.2,34735.7,1.1769,1.1676,149.5,98.1,0.478
25.96,31836.1,34604.3,1.1728,1.16,149.5,98.1,0.478
25.98,31824.7,34690.0,1.1721,1.165,149.5,98.1,0.478
26.0,31855.1,34553.7,1.174,1.1571,149.5,98.1,0.478
26.02,31787.0,34359.4,1.1697,1.1458,149.5,98.1,0.478
26.04,31761.4,34445.7,1.1681,1.1508,149.5,98.1,0.478
26.06,31852.0,34685.3,1.1738,1.1647,149.5,98.1,0.478
26.08,32049.5,35034.7,1.1863,1.185,149.5,98.1,0.478
26.1,32188.4,35371.9,1.1951,1.2045,149.5,98.1,0.478
26.12,32249.6,35730.1,1.199,1.2253,149.5,98.1,0.478
26.14,32321.5,35706.8,1.2036,1.2239,149.5,98.1,0.478
26.16,32271.7,35692.7,1.2004,1.2231,149.5,98.1,0.478
26.18,32249.8,35449.2,1.199,1.209,149.5,98.1,0.478
26.2,32033.3,35274.0,1.1853,1.1988,149.5,98.1,0.478
26.22,32037.7,35194.6,1.1856,1.1942,149.5,98.1,0.478
26.24,32084.2,35127.2,1.1885,1.1903,149.5,98.1,0.478
26.26,32041.8,35021.3,1.1859,1.1842,149.5,98.1,0.478
26.28,31992.0,34983.6,1.1827,1.182,149.5,98.1,0.478
26.3,31968.0,34795.6,1.1812,1.1711,149.5,98.1,0.478
26.32,31887.5,34723.3,1.1761,1.1669,149.5,98.1,0.478
26.34,31803.9,34644.1,1.1708,1.1623,149.5,98.1,0.478
26.36,31931.7,34650.2,1.1789,1.1627,149.5,98.1,0.478
26.38,31893.3,34573.8,1.1764,1.1583,149.5,98.1,0.478
26.4,31839.5,34585.6,1.173,1.1589,149.5,98.1,0.478
26.42,31776.4,34468.6,1.169,1.1522,149.5,98.1,0.478
26.44,31817.9,34510.9,1.1717,1.1546,149.5,98.1,0.478
26.46,31798.1,34660.5,1.1704,1.1633,149.5,98.1,0.478
26.48,31957.7,35020.5,1.1805,1.1841,149.5,98.1,0.478
26.5,32115.7,35487.0,1.1905,1.2112,149.5,98.1,0.478
26.52,32325.8,35671.7,1.2039,1.2219,149.5,98.1,0.478
26.54,32264.6,35787.0,1.2,1.2286,149.5,98.1,0.478
26.56,32226.4,35652.8,1.1976,1.2208,149.5,98.1,0.478
26.58,32249.5,35457.1,1.199,1.2094,149.5,98.1,0.478
26.6,32174.7,35285.7,1.1943,1.1995,149.5,98.1,0.478
26.62,32123.0,35120.5,1.191,1.1899,149.5,98.1,0.478
26.64,32037.6,35106.4,1.1856,1.1891,149.5,98.1,0.478
26.66,31997.6,35103.4,1.1831,1.1889,149.5,98.1,0.478
26.68,32010.7,34900.6,1.1839,1.1772,149.5,98.1,0.478
26.7,31863.3,34738.8,1.1745,1.1678,149.5,98.1,0.478
26.72,31840.2,34700.1,1.1731,1.1656,149.5,98.1,0.478
26.74,31863.3,34649.7,1.1745,1.1627,149.5,98.1,0.478
26.76,31874.4,34658.6,1.1752,1.1632,149.5,98.1,0.478
26.78,31836.7,34672.7,1.1729,1.164,149.5,98.1,0.478
26.8,31830.9,34511.7,1.1725,1.1547,149.5,98.1,0.478
26.82,31673.7,34389.1,1.1625,1.1476,149.5,98.1,0.478
26.84,31637.5,34422.8,1.1602,1.1495,149.5,98.1,0.478
26.86,31943.7,34654.9,1.1796,1.163,149.5,98.1,0.478
26.88,32051.4,34953.5,1.1865,1.1803,149.5,98.1,0.478
26.9,32108.0,35331.0,1.19,1.2021,149.5,98.1,0.478
26.92,32311.9,35720.7,1.203,1.2247,149.5,98.1,0.478
26.94,32279.2,35717.7,1.2009,1.2245,149.5,98.1,0.478
26.96,32222.4,35543.7,1.1973,1.2145,149.5,98.1,0.478
26.98,32185.9,35368.9,1.195,1.2043,149.5,98.1,0.478
27.0,32021.2,35283.7,1.1845,1.1994,149.5,98.1,0.478
27.02,32021.7,35146.6,1.1846,1.1914,149.5,98.1,0.478
27.04,32039.9,35074.3,1.1857,1.1873,149.5,98.1,0.478
27.06,32017.1,35016.5,1.1843,1.1839,149.5,98.1,0.478
27.08,32005.3,34982.5,1.1835,1.1819,149.5,98.1,0.478
27.1,31871.6,34859.5,1.1751,1.1748,149.5,98.1,0.478
27.12,31866.4,34726.2,1.1747,1.1671,149.5,98.1,0.478
27.14,31822.1,34636.3,1.1719,1.1619,149.5,98.1,0.478
27.16,31784.1,34574.3,1.1695,1.1583,149.5,98.1,0.478
27.18,31840.6,34693.7,1.1731,1.1652,149.5,98.1,0.478
27.2,31727.1,34574.1,1.1659,1.1583,149.5,98.1,0.478
27.22,31718.1,34395.9,1.1653,1.1479,149.5,98.1,0.478
27.24,31717.0,34519.1,1.1653,1.1551,149.5,98.1,0.478
27.26,31955.8,34646.6,1.1804,1.1625,149.5,98.1,0.478
27.28,31930.6,34925.6,1.1788,1.1786,149.5,98.1,0.478
27.3,32217.1,35422.2,1.197,1.2074,149.5,98.1,0.478
27.32,32247.4,35539.2,1.1989,1.2142,149.5,98.1,0.478
27.34,32413.0,35721.4,1.2094,1.2248,149.5,98.1,0.478
27.36,32337.9,35701.5,1.2046,1.2236,149.5,98.1,0.478
27.38,32262.1,35384.2,1.1998,1.2052,149.5,98.1,0.478
27.4,32091.3,35248.7,1.189,1.1974,149.5,98.1,0.478
27.42,32182.3,35170.2,1.1948,1.1928,149.5,98.1,0.478
27.44,32105.8,35098.7,1.1899,1.1887,149.5,98.1,0.478
27.46,31982.8,35092.0,1.1821,1.1883,149.5,98.1,0.478
27.48,31997.6,34872.3,1.1831,1.1756,149.5,98.1,0.478
27.5,31958.6,34798.9,1.1806,1.1713,149.5,98.1,0.478
27.52,31940.0,34739.6,1.1794,1.1679,149.5,98.1,0.478
27.54,31944.5,34781.1,1.1797,1.1703,149.5,98.1,0.478
27.56,31853.3,34632.3,1.1739,1.1616,149.5,98.1,0.478
27.58,31753.7,34619.0,1.1676,1.1609,149.5,98.1,0.478
27.6,31805.9,34447.6,1.1709,1.1509,149.5,98.1,0.478
27.62,31748.9,34459.3,1.1673,1.1516,149.5,98.1,0.478
27.64,31832.7,34440.6,1.1726,1.1505,149.5,98.1,0.478
27.66,31814.2,34639.3,1.1714,1.162,149.5,98.1,0.478
27.68,31973.4,34873.7,1.1815,1.1756,149.5,98.1,0.478
27.7,32153.0,35399.5,1.1929,1.2061,149.5,98.1,0.478
27.72,32313.2,35645.8,1.2031,1.2204,149.5,98.1,0.478
27.74,32358.5,35687.1,1.2059,1.2228,149.5,98.1,0.478
27.76,32330.7,35642.5,1.2042,1.2202,149.5,98.1,0.478
27.78,32132.7,35539.6,1.1916,1.2142,149.5,98.1,0.478
27.8,32051.5,35270.7,1.1865,1.1986,149.5,98.1,0.478
27.82,32093.0,35166.7,1.1891,1.1926,149.5,98.1,0.478
27.84,32055.2,35172.3,1.1867,1.1929,149.5,98.1,0.478
27.86,32006.7,34982.6,1.1836,1.1819,149.5,98.1,0.478
27.88,31940.3,34959.5,1.1794,1.1806,149.5,98.1,0.478
27.9,31866.8,34808.7,1.1748,1.1719,149.5,98.1,0.478
27.92,31839.8,34719.4,1.1731,1.1667,149.5,98.1,0.478
27.94,31812.1,34691.3,1.1713,1.1651,149.5,98.1,0.478
27.96,31746.4,34659.1,1.1671,1.1632,149.5,98.1,0.478
27.98,31829.7,34598.8,1.1724,1.1597,149.5,98.1,0.478
28.0,31845.9,34547.9,1.1734,1.1568,149.5,98.1,0.478
28.02,31784.4,34564.2,1.1695,1.1577,149.5,98.1,0.478
28.04,31686.5,34491.8,1.1633,1.1535,149.5,98.1,0.478
28.06,31877.3,34605.3,1.1754,1.1601,149.5,98.1,0.478
28.08,31933.6,35002.5,1.179,1.1831,149.5,98.1,0.478
28.1,32205.0,35399.9,1.1962,1.2061,149.5,98.1,0.478
28.12,32224.6,35612.6,1.1974,1.2184,149.5,98.1,0.478
28.14,32318.8,35801.3,1.2034,1.2294,149.5,98.1,0.478
28.16,32339.1,35794.6,1.2047,1.229,149.5,98.1,0.478
28.18,32157.2,35510.1,1.1932,1.2125,149.5,98.1,0.478
28.2,32123.8,35293.5,1.1911,1.2,149.5,98.1,0.478
28.22,32109.9,35211.4,1.1902,1.1952,149.5,98.1,0.478
28.24,32115.9,35132.6,1.1906,1.1906,149.5,98.1,0.478
28.26,32080.3,35064.6,1.1883,1.1867,149.5,98.1,0.478
28.28,31948.2,35010.9,1.1799,1.1836,149.5,98.1,0.478
28.3,31850.7,34846.5,1.1737,1.1741,149.5,98.1,0.478
28.32,31901.4,34672.3,1.177,1.164,149.5,98.1,0.478
28.34,31854.7,34666.7,1.174,1.1636,149.5,98.1,0.478
28.36,31919.3,34708.7,1.1781,1.1661,149.5,98.1,0.478
28.38,31819.2,34649.0,1.1717,1.1626,149.5,98.1,0.478
28.4,31797.0,34559.8,1.1703,1.1574,149.5,98.1,0.478
28.42,31878.1,34457.3,1.1755,1.1515,149.5,98.1,0.478
28.44,31779.6,34460.6,1.1692,1.1517,149.5,98.1,0.478
28.46,31833.3,34649.6,1.1726,1.1627,149.5,98.1,0.478
28.48,32006.6,34783.6,1.1836,1.1704,149.5,98.1,0.478
28.5,32110.0,35323.2,1.1902,1.2017,149.5,98.1,0.478
28.52,32256.7,35589.6,1.1995,1.2171,149.5,98.1,0.478
28.54,32302.9,35741.3,1.2024,1.2259,149.5,98.1,0.478
28.56,32260.4,35633.2,1.1997,1.2196,149.5,98.1,0.478
28.58,32162.3,35544.9,1.1935,1.2145,149.5,98.1,0.478
28.6,32120.0,35193.6,1.1908,1.1942,149.5,98.1,0.478
28.62,32013.6,35126.5,1.1841,1.1903,149.5,98.1,0.478
28.64,32026.1,35126.9,1.1849,1.1903,149.5,98.1,0.478
28.66,32003.8,35049.8,1.1834,1.1858,149.5,98.1,0.478
28.68,32059.0,35055.9,1.1869,1.1862,149.5,98.1,0.478
28.7,31949.6,34824.5,1.18,1.1728,149.5,98.1,0.478
28.72,31933.4,34750.6,1.179,1.1685,149.5,98.1,0.478
28.74,31908.7,34683.8,1.1774,1.1646,149.5,98.1,0.478
28.76,31790.4,34676.5,1.1699,1.1642,149.5,98.1,0.478
28.78,31899.3,34689.0,1.1768,1.1649,149.5,98.1,0.478
28.8,31795.8,34570.2,1.1703,1.158,149.5,98.1,0.478
28.82,31766.3,34586.4,1.1684,1.159,149.5,98.1,0.478
28.84,31773.1,34465.3,1.1688,1.152,149.5,98.1,0.478
28.86,31780.3,34494.2,1.1693,1.1536,149.5,98.1,0.478
28.88,32053.1,34892.0,1.1866,1.1767,149.5,98.1,0.478
28.9,32149.8,35304.0,1.1927,1.2006,149.5,98.1,0.478
28.92,32248.5,35537.6,1.199,1.2141,149.5,98.1,0.478
28.94,32305.4,35761.5,1.2026,1.2271,149.5,98.1,0.478
28.96,32322.7,35733.2,1.2037,1.2254,149.5,98.1,0.478
28.98,32213.7,35491.1,1.1967,1.2114,149.5,98.1,0.478
29.0,32083.2,35392.1,1.1885,1.2057,149.5,98.1,0.478
29.02,32067.9,35123.5,1.1875,1.1901,149.5,98.1,0.478
29.04,32094.1,35086.0,1.1892,1.1879,149.5,98.1,0.478
29.06,32021.4,35078.8,1.1846,1.1875,149.5,98.1,0.478
29.08,31947.7,34983.6,1.1799,1.182,149.5,98.1,0.478
29.1,31931.6,34858.3,1.1789,1.1747,149.5,98.1,0.478
29.12,31912.4,34740.7,1.1777,1.1679,149.5,98.1,0.478
29.14,31821.8,34695.0,1.1719,1.1653,149.5,98.1,0.478
29.16,31891.5,34624.2,1.1763,1.1612,149.5,98.1,0.478
29.18,31865.4,34554.0,1.1747,1.1571,149.5,98.1,0.478
29.2,31750.9,34626.7,1.1674,1.1613,149.5,98.1,0.478
29.22,31793.6,34420.8,1.1701,1.1494,149.5,98.1,0.478
29.24,31760.4,34418.8,1.168,1.1493,149.5,98.1,0.478
29.26,31832.2,34577.1,1.1726,1.1584,149.5,98.1,0.478
29.28,32013.3,34845.3,1.184,1.174,149.5,98.1,0.478
29.3,32103.9,35276.3,1.1898,1.199,149.5,98.1,0.478
29.32,32202.3,35588.1,1.196,1.217,149.5,98.1,0.478
29.34,32269.5,35841.3,1.2003,1.2317,149.5,98.1,0.478
29.36,32262.1,35666.8,1.1998,1.2216,149.5,98.1,0.478
29.38,32230.0,35581.6,1.1978,1.2167,149.5,98.1,0.478
29.4,32028.8,35308.3,1.185,1.2008,149.5,98.1,0.478
29.42,32071.3,35188.5,1.1877,1.1939,149.5,98.1,0.478
29.44,32073.5,35116.1,1.1879,1.1897,149.5,98.1,0.478
29.46,31970.8,35020.3,1.1814,1.1841,149.5,98.1,0.478
29.48,31957.6,35056.8,1.1805,1.1862,149.5,98.1,0.478
29.5,31930.2,34930.2,1.1788,1.1789,149.5,98.1,0.478
29.52,31901.8,34841.3,1.177,1.1738,149.5,98.1,0.478
29.54,31808.5,34655.2,1.1711,1.163,149.5,98.1,0.478
29.56,31812.7,34626.2,1.1713,1.1613,149.5,98.1,0.478
29.58,31891.6,34622.0,1.1763,1.1611,149.5,98.1,0.478
29.6,31863.3,34543.0,1.1745,1.1565,149.5,98.1,0.478
29.62,31722.5,34520.0,1.1656,1.1551,149.5,98.1,0.478
29.64,31775.2,34434.8,1.169,1.1502,149.5,98.1,0.478
29.66,31734.0,34587.3,1.1663,1.159,149.5,98.1,0.478
29.68,31833.5,34833.5,1.1727,1.1733,149.5,98.1,0.478
29.7,32116.4,35207.6,1.1906,1.195,149.5,98.1,0.478
29.72,32212.0,35491.8,1.1966,1.2114,149.5,98.1,0.478
29.74,32339.5,35780.8,1.2047,1.2282,149.5,98.1,0.478
29.76,32238.8,35688.9,1.1983,1.2229,149.5,98.1,0.478
29.78,32254.2,35553.1,1.1993,1.215,149.5,98.1,0.478
29.8,32055.2,35272.4,1.1867,1.1987,149.5,98.1,0.478
29.82,32083.7,35121.6,1.1885,1.19,149.5,98.1,0.478
29.84,32152.8,35056.0,1.1929,1.1862,149.5,98.1,0.478
29.86,31948.8,35147.6,1.18,1.1915,149.5,98.1,0.478
29.88,32067.5,34971.1,1.1875,1.1813,149.5,98.1,0.478
29.9,31874.1,34909.0,1.1752,1.1777,149.5,98.1,0.478
29.92,31904.0,34694.0,1.1771,1.1652,149.5,98.1,0.478
29.94,31851.1,34663.7,1.1738,1.1635,149.5,98.1,0.478
29.96,31872.4,34614.4,1.1751,1.1606,149.5,98.1,0.478
29.98,31958.5,34699.2,1.1806,1.1655,149.5,98.1,0.478
30.0,31734.0,34551.6,1.1663,1.157,149.5,98.1,0.478
30.02,31754.1,34467.9,1.1676,1.1521,149.5,98.1,0.478
30.04,31811.9,34489.5,1.1713,1.1534,149.5,98.1,0.478
30.06,31782.4,34567.5,1.1694,1.1579,149.5,98.1,0.478
30.08,31998.8,34706.4,1.1831,1.1659,149.5,98.1,0.478
30.1,32120.4,35186.4,1.1908,1.1938,149.5,98.1,0.478
30.12,32248.8,35434.7,1.199,1.2081,149.5,98.1,0.478
30.14,32205.8,35623.2,1.1963,1.2191,149.5,98.1,0.478
30.16,32267.7,35740.0,1.2002,1.2258,149.5,98.1,0.478
30.18,32263.8,35579.2,1.1999,1.2165,149.5,98.1,0.478
30.2,32139.3,35347.4,1.192,1.2031,149.5,98.1,0.478
30.22,32046.6,35195.2,1.1862,1.1943,149.5,98.1,0.478
30.24,32026.5,35104.1,1.1849,1.189,149.5,98.1,0.478
30.26,32015.7,35026.6,1.1842,1.1845,149.5,98.1,0.478
30.28,31847.9,34988.4,1.1736,1.1823,149.5,98.1,0.478
30.3,31899.0,34917.1,1.1768,1.1781,149.5,98.1,0.478
30.32,31900.1,34829.6,1.1769,1.1731,149.5,98.1,0.478
30.34,31851.6,34595.0,1.1738,1.1595,149.5,98.1,0.478
30.36,31878.4,34758.9,1.1755,1.169,149.5,98.1,0.478
30.38,31907.9,34732.0,1.1774,1.1674,149.5,98.1,0.478
30.4,31863.9,34591.1,1.1746,1.1593,149.5,98.1,0.478
30.42,31820.3,34524.8,1.1718,1.1554,149.5,98.1,0.478
30.44,31715.7,34477.7,1.1652,1.1527,149.5,98.1,0.478
30.46,31870.6,34488.4,1.175,1.1533,149.5,98.1,0.478
30.48,31998.7,34877.6,1.1831,1.1759,149.5,98.1,0.478
30.5,32044.8,35124.2,1.186,1.1902,149.5,98.1,0.478
30.52,32210.4,35576.1,1.1965,1.2163,149.5,98.1,0.478
30.54,32228.9,35691.3,1.1977,1.223,149.5,98.1,0.478
30.56,32287.7,35625.9,1.2014,1.2192,149.5,98.1,0.478
30.58,32272.0,35639.1,1.2004,1.22,149.5,98.1,0.478
30.6,32158.2,35375.0,1.1932,1.2047,149.5,98.1,0.478
30.62,32067.9,35235.6,1.1875,1.1966,149.5,98.1,0.478
30.64,32115.3,35064.0,1.1905,1.1867,149.5,98.1,0.478
30.66,32002.5,35065.9,1.1834,1.1868,149.5,98.1,0.478
30.68,31995.2,34981.5,1.1829,1.1819,149.5,98.1,0.478
30.7,31958.8,34948.1,1.1806,1.1799,149.5,98.1,0.478
30.72,31922.7,34773.8,1.1783,1.1698,149.5,98.1,0.478
30.74,31874.0,34635.1,1.1752,1.1618,149.5,98.1,0.478
30.76,31767.2,34708.4,1.1685,1.1661,149.5,98.1,0.478
30.78,31839.8,34609.9,1.173,1.1603,149.5,98.1,0.478
30.8,31808.8,34557.2,1.1711,1.1573,149.5,98.1,0.478
30.82,31831.9,34527.0,1.1725,1.1555,149.5,98.1,0.478
30.84,31723.4,34403.6,1.1657,1.1484,149.5,98.1,0.478
30.86,31843.6,34444.0,1.1733,1.1507,149.5,98.1,0.478
30.88,31890.7,34710.5,1.1763,1.1662,149.5,98.1,0.478
30.9,32110.7,35028.1,1.1902,1.1846,149.5,98.1,0.478
30.92,32239.2,35443.5,1.1984,1.2086,149.5,98.1,0.478
30.94,32368.9,35769.1,1.2066,1.2275,149.5,98.1,0.478
30.96,32393.5,35700.1,1.2081,1.2235,149.5,98.1,0.478
30.98,32242.1,35642.1,1.1985,1.2202,149.5,98.1,0.478
31.0,32097.1,35316.2,1.1894,1.2013,149.5,98.1,0.478
31.02,32039.7,35195.9,1.1857,1.1943,149.5,98.1,0.478
31.04,32055.2,35175.9,1.1867,1.1931,149.5,98.1,0.478
31.06,32004.2,35012.3,1.1835,1.1837,149.5,98.1,0.478
31.08,32029.7,34990.7,1.1851,1.1824,149.5,98.1,0.478
31.1,31987.6,34891.5,1.1824,1.1767,149.5,98.1,0.478
31.12,32047.2,34759.8,1.1862,1.169,149.5,98.1,0.478
31.14,31920.2,34683.4,1.1781,1.1646,149.5,98.1,0.478
31.16,31910.3,34625.7,1.1775,1.1613,149.5,98.1,0.478
31.18,31824.1,34678.1,1.1721,1.1643,149.5,98.1,0.478
31.2,31794.5,34667.1,1.1702,1.1637,149.5,98.1,0.478
31.22,31857.6,34562.5,1.1742,1.1576,149.5,98.1,0.478
31.24,31802.2,34507.8,1.1707,1.1544,149.5,98.1,0.478
31.26,31895.3,34568.0,1.1766,1.1579,149.5,98.1,0.478
31.28,31805.4,34774.0,1.1709,1.1699,149.5,98.1,0.478
31.3,31995.5,35019.5,1.1829,1.1841,149.5,98.1,0.478
31.32,32223.1,35438.6,1.1973,1.2084,149.5,98.1,0.478
31.34,32312.7,35789.3,1.203,1.2287,149.5,98.1,0.478
31.36,32283.2,35797.9,1.2012,1.2292,149.5,98.1,0.478
31.38,32173.2,35603.8,1.1942,1.2179,149.5,98.1,0.478
31.4,32176.7,35334.2,1.1944,1.2023,149.5,98.1,0.478
31.42,32213.9,35263.2,1.1968,1.1982,149.5,98.1,0.478
31.44,32080.8,35147.9,1.1883,1.1915,149.5,98.1,0.478
31.46,32053.4,35049.5,1.1866,1.1858,149.5,98.1,0.478
31.48,32040.2,34998.1,1.1858,1.1828,149.5,98.1,0.478
31.5,31932.8,34856.8,1.1789,1.1747,149.5,98.1,0.478
31.52,31901.3,34878.4,1.1769,1.1759,149.5,98.1,0.478
31.54,31821.1,34733.8,1.1719,1.1675,149.5,98.1,0.478
31.56,31843.3,34664.4,1.1733,1.1635,149.5,98.1,0.478
31.58,31881.5,34613.2,1.1757,1.1605,149.5,98.1,0.478
31.6,31786.1,34678.1,1.1696,1.1643,149.5,98.1,0.478
31.62,31793.1,34502.7,1.1701,1.1541,149.5,98.1,0.478
31.64,31768.3,34478.4,1.1685,1.1527,149.5,98.1,0.478
31.66,31794.1,34456.4,1.1702,1.1515,149.5,98.1,0.478
31.68,31844.8,34808.2,1.1734,1.1718,149.5,98.1,0.478
31.7,32009.9,35017.8,1.1838,1.184,149.5,98.1,0.478
31.72,32159.2,35429.4,1.1933,1.2078,149.5,98.1,0.478
31.74,32393.3,35674.7,1.2081,1.222,149.5,98.1,0.478
31.76,32249.7,35753.6,1.199,1.2266,149.5,98.1,0.478
31.78,32168.9,35518.3,1.1939,1.213,149.5,98.1,0.478
31.8,32145.0,35357.7,1.1924,1.2037,149.5,98.1,0.478
31.82,31998.5,35220.9,1.1831,1.1957,149.5,98.1,0.478
31.84,32058.8,35214.7,1.1869,1.1954,149.5,98.1,0.478
31.86,31998.9,35095.4,1.1831,1.1885,149.5,98.1,0.478
31.88,31995.1,35043.0,1.1829,1.1854,149.5,98.1,0.478
31.9,32026.2,34973.5,1.1849,1.1814,149.5,98.1,0.478
31.92,31912.4,34797.9,1.1777,1.1712,149.5,98.1,0.478
31.94,31828.2,34726.3,1.1723,1.1671,149.5,98.1,0.478
31.96,31814.9,34780.4,1.1715,1.1702,149.5,98.1,0.478
31.98,31913.1,34633.2,1.1777,1.1617,149.5,98.1,0.478
32.0,31877.3,34640.9,1.1754,1.1621,149.5,98.1,0.478
32.02,31818.2,34497.4,1.1717,1.1538,149.5,98.1,0.478
32.04,31786.4,34418.3,1.1697,1.1492,149.5,98.1,0.478
32.06,31822.5,34536.1,1.172,1.1561,149.5,98.1,0.478
32.08,31810.6,34709.3,1.1712,1.1661,149.5,98.1,0.478
32.1,32095.1,35136.4,1.1892,1.1909,149.5,98.1,0.478
32.12,32214.0,35390.2,1.1968,1.2056,149.5,98.1,0.478
32.14,32206.7,35616.4,1.1963,1.2187,149.5,98.1,0.478
32.16,32393.3,35712.8,1.2081,1.2243,149.5,98.1,0.478
32.18,32383.3,35674.7,1.2075,1.222,149.5,98.1,0.478
32.2,32036.8,35342.1,1.1855,1.2028,149.5,98.1,0.478
32.22,32248.4,35260.9,1.199,1.1981,149.5,98.1,0.478
32.24,32093.8,35096.7,1.1892,1.1886,149.5,98.1,0.478
32.26,32072.7,35043.3,1.1878,1.1855,149.5,98.1,0.478
32.28,31973.4,34964.2,1.1815,1.1809,149.5,98.1,0.478
32.3,31930.1,34961.5,1.1788,1.1807,149.5,98.1,0.478
32.32,31987.0,34838.8,1.1824,1.1736,149.5,98.1,0.478
32.34,31827.5,34663.2,1.1723,1.1634,149.5,98.1,0.478
32.36,31967.0,34666.0,1.1811,1.1636,149.5,98.1,0.478
32.38,31858.6,34652.3,1.1742,1.1628,149.5,98.1,0.478
32.4,31778.2,34665.6,1.1691,1.1636,149.5,98.1,0.478
32.42,31830.2,34485.8,1.1724,1.1532,149.5,98.1,0.478
32.44,31846.1,34439.4,1.1734,1.1505,149.5,98.1,0.478
32.46,31770.6,34534.5,1.1687,1.156,149.5,98.1,0.478
32.48,31912.8,34693.4,1.1777,1.1652,149.5,98.1,0.478
32.5,32033.6,35053.8,1.1853,1.1861,149.5,98.1,0.478
32.52,32190.0,35425.8,1.1952,1.2076,149.5,98.1,0.478
32.54,32309.0,35753.2,1.2028,1.2266,149.5,98.1,0.478
32.56,32318.7,35750.9,1.2034,1.2265,149.5,98.1,0.478
32.58,32381.0,35574.3,1.2074,1.2162,149.5,98.1,0.478
32.6,32188.6,35502.8,1.1952,1.2121,149.5,98.1,0.478
32.62,32128.6,35256.4,1.1914,1.1978,149.5,98.1,0.478
32.64,32040.0,35119.7,1.1857,1.1899,149.5,98.1,0.478
32.66,31969.6,35006.4,1.1813,1.1833,149.5,98.1,0.478
32.68,31990.4,34966.5,1.1826,1.181,149.5,98.1,0.478
32.7,31845.6,34870.8,1.1734,1.1755,149.5,98.1,0.478
32.72,31897.9,34807.8,1.1767,1.1718,149.5,98.1,0.478
32.74,31956.8,34621.7,1.1805,1.161,149.5,98.1,0.478
32.76,31869.8,34660.5,1.175,1.1633,149.5,98.1,0.478
32.78,31805.0,34599.3,1.1708,1.1597,149.5,98.1,0.478
32.8,31898.6,34673.9,1.1768,1.1641,149.5,98.1,0.478
32.82,31836.8,34539.3,1.1729,1.1563,149.5,98.1,0.478
32.84,31803.7,34531.0,1.1708,1.1558,149.5,98.1,0.478
32.86,31744.1,34462.3,1.167,1.1518,149.5,98.1,0.478
32.88,31862.4,34611.3,1.1745,1.1604,149.5,98.1,0.478
32.9,31937.9,35021.7,1.1793,1.1842,149.5,98.1,0.478
32.92,32126.0,35403.9,1.1912,1.2064,149.5,98.1,0.478
32.94,32334.0,35624.2,1.2044,1.2191,149.5,98.1,0.478
32.96,32346.9,35776.7,1.2052,1.228,149.5,98.1,0.478
32.98,32237.4,35623.4,1.1983,1.2191,149.5,98.1,0.478
33.0,32230.2,35405.1,1.1978,1.2064,149.5,98.1,0.478
33.02,32050.7,35316.4,1.1864,1.2013,149.5,98.1,0.478
33.04,32084.4,35213.1,1.1886,1.1953,149.5,98.1,0.478
33.06,31992.3,34972.5,1.1827,1.1814,149.5,98.1,0.478
33.08,31996.5,35096.3,1.183,1.1885,149.5,98.1,0.478
33.1,31965.4,34858.3,1.181,1.1747,149.5,98.1,0.478
33.12,31994.6,34849.4,1.1829,1.1742,149.5,98.1,0.478
33.14,31875.3,34702.4,1.1753,1.1657,149.5,98.1,0.478
33.16,31960.5,34669.1,1.1807,1.1638,149.5,98.1,0.478
33.18,31928.8,34616.1,1.1787,1.1607,149.5,98.1,0.478
33.2,31859.0,34554.9,1.1743,1.1572,149.5,98.1,0.478
33.22,31725.6,34557.2,1.1658,1.1573,149.5,98.1,0.478
33.24,31679.1,34472.4,1.1629,1.1524,149.5,98.1,0.478
33.26,31731.5,34477.7,1.1662,1.1527,149.5,98.1,0.478
33.28,31868.8,34617.9,1.1749,1.1608,149.5,98.1,0.478
33.3,32012.4,34899.5,1.184,1.1771,149.5,98.1,0.478
33.32,32144.0,35346.7,1.1923,1.203,149.5,98.1,0.478
33.34,32303.6,35632.5,1.2024,1.2196,149.5,98.1,0.478
33.36,32221.9,35722.2,1.1973,1.2248,149.5,98.1,0.478
33.38,32259.7,35769.5,1.1997,1.2275,149.5,98.1,0.478
33.4,32144.9,35468.5,1.1924,1.2101,149.5,98.1,0.478
33.42,32114.4,35264.1,1.1905,1.1983,149.5,98.1,0.478
33.44,32111.5,35227.4,1.1903,1.1961,149.5,98.1,0.478
33.46,32078.5,35112.2,1.1882,1.1895,149.5,98.1,0.478
33.48,31956.2,34995.1,1.1804,1.1827,149.5,98.1,0.478
33.5,32002.0,34990.4,1.1833,1.1824,149.5,98.1,0.478
33.52,31939.5,34869.5,1.1794,1.1754,149.5,98.1,0.478
33.54,31861.0,34716.9,1.1744,1.1665,149.5,98.1,0.478
33.56,31831.8,34667.1,1.1725,1.1637,149.5,98.1,0.478
33.58,31868.5,34563.9,1.1749,1.1577,149.5,98.1,0.478
33.6,31906.5,34687.4,1.1773,1.1648,149.5,98.1,0.478
33.62,31788.5,34587.6,1.1698,1.1591,149.5,98.1,0.478
33.64,31744.8,34454.9,1.167,1.1514,149.5,98.1,0.478
33.66,31788.7,34502.3,1.1698,1.1541,149.5,98.1,0.478
33.68,31766.7,34557.0,1.1684,1.1573,149.5,98.1,0.478
33.7,31975.4,34933.3,1.1816,1.1791,149.5,98.1,0.478
33.72,32221.3,35369.6,1.1972,1.2044,149.5,98.1,0.478
33.74,32268.6,35626.0,1.2002,1.2192,149.5,98.1,0.478
33.76,32329.2,35798.5,1.2041,1.2292,149.5,98.1,0.478
33.78,32270.5,35608.0,1.2004,1.2182,149.5,98.1,0.478
33.8,32286.1,35576.3,1.2013,1.2163,149.5,98.1,0.478
33.82,32095.6,35343.1,1.1893,1.2028,149.5,98.1,0.478
33.84,32129.0,35100.3,1.1914,1.1888,149.5,98.1,0.478
33.86,31939.4,35067.8,1.1794,1.1869,149.5,98.1,0.478
33.88,31998.8,35013.0,1.1831,1.1837,149.5,98.1,0.478
33.9,31882.2,34954.5,1.1757,1.1803,149.5,98.1,0.478
33.92,31960.7,34846.9,1.1807,1.1741,149.5,98.1,0.478
33.94,31905.0,34671.7,1.1772,1.1639,149.5,98.1,0.478
33.96,31829.9,34637.4,1.1724,1.1619,149.5,98.1,0.478
33.98,31903.2,34665.4,1.1771,1.1636,149.5,98.1,0.478
34.0,31916.3,34660.1,1.1779,1.1633,149.5,98.1,0.478
34.02,31807.2,34597.2,1.171,1.1596,149.5,98.1,0.478
34.04,31744.7,34525.1,1.167,1.1554,149.5,98.1,0.478
34.06,31684.9,34493.7,1.1632,1.1536,149.5,98.1,0.478
34.08,31822.3,34588.7,1.1719,1.1591,149.5,98.1,0.478
34.1,31947.3,34948.2,1.1799,1.1799,149.5,98.1,0.478
34.12,32149.0,35290.4,1.1927,1.1998,149.5,98.1,0.478
34.14,32213.6,35570.7,1.1967,1.216,149.5,98.1,0.478
34.16,32258.2,35694.1,1.1996,1.2232,149.5,98.1,0.478
34.18,32312.8,35659.7,1.203,1.2212,149.5,98.1,0.478
34.2,32226.2,35582.0,1.1975,1.2167,149.5,98.1,0.478
34.22,32185.4,35350.6,1.195,1.2033,149.5,98.1,0.478
34.24,32079.4,35219.7,1.1882,1.1957,149.5,98.1,0.478
34.26,31939.9,35137.1,1.1794,1.1909,149.5,98.1,0.478
34.28,32015.7,35045.9,1.1842,1.1856,149.5,98.1,0.478
34.3,32033.4,35031.5,1.1853,1.1848,149.5,98.1,0.478
34.32,31992.5,34865.5,1.1827,1.1752,149.5,98.1,0.478
34.34,31942.4,34726.3,1.1796,1.1671,149.5,98.1,0.478
34.36,31871.7,34710.4,1.1751,1.1662,149.5,98.1,0.478
34.38,31843.6,34671.2,1.1733,1.1639,149.5,98.1,0.478
34.4,31864.0,34603.0,1.1746,1.16,149.5,98.1,0.478
34.42,31754.7,34613.7,1.1677,1.1606,149.5,98.1,0.478
34.44,31765.4,34503.6,1.1683,1.1542,149.5,98.1,0.478
34.46,31730.5,34408.4,1.1661,1.1487,149.5,98.1,0.478
34.48,31745.0,34561.3,1.167,1.1575,149.5,98.1,0.478
34.5,31878.0,34873.9,1.1755,1.1756,149.5,98.1,0.478
34.52,32205.8,35306.9,1.1963,1.2007,149.5,98.1,0.478
34.54,32327.3,35631.6,1.2039,1.2195,149.5,98.1,0.478
34.56,32317.4,35863.2,1.2033,1.233,149.5,98.1,0.478
34.58,32308.5,35715.2,1.2028,1.2244,149.5,98.1,0.478
34.6,32238.4,35464.0,1.1983,1.2098,149.5,98.1,0.478
34.62,32132.1,35282.7,1.1916,1.1993,149.5,98.1,0.478
34.64,32080.1,35243.6,1.1883,1.1971,149.5,98.1,0.478
34.66,32072.3,35099.6,1.1878,1.1887,149.5,98.1,0.478
34.68,32041.6,35162.1,1.1858,1.1923,149.5,98.1,0.478
34.7,31978.5,34969.8,1.1818,1.1812,149.5,98.1,0.478
34.72,31899.9,34915.3,1.1769,1.178,149.5,98.1,0.478
34.74,31906.8,34812.6,1.1773,1.1721,149.5,98.1,0.478
34.76,31837.6,34706.6,1.1729,1.166,149.5,98.1,0.478
34.78,31804.8,34726.0,1.1708,1.1671,149.5,98.1,0.478
34.8,31869.0,34592.4,1.1749,1.1593,149.5,98.1,0.478
34.82,31815.7,34587.1,1.1715,1.159,149.5,98.1,0.478
34.84,31810.2,34503.0,1.1712,1.1542,149.5,98.1,0.478
34.86,31798.6,34435.2,1.1704,1.1502,149.5,98.1,0.478
34.88,31856.3,34626.5,1.1741,1.1613,149.5,98.1,0.478
34.9,31944.7,34930.3,1.1797,1.1789,149.5,98.1,0.478
34.92,32071.3,35255.2,1.1877,1.1977,149.5,98.1,0.478
34.94,32297.2,35567.5,1.202,1.2158,149.5,98.1,0.478
34.96,32299.6,35711.7,1.2022,1.2242,149.5,98.1,0.478
34.98,32229.6,35651.6,1.1978,1.2207,149.5,98.1,0.478
35.0,32226.8,35535.4,1.1976,1.214,149.5,98.1,0.478
35.02,32134.3,35325.6,1.1917,1.2018,149.5,98.1,0.478
35.04,32078.4,35187.1,1.1882,1.1938,149.5,98.1,0.478
35.06,32103.0,35115.5,1.1897,1.1896,149.5,98.1,0.478
35.08,31989.3,35054.6,1.1825,1.1861,149.5,98.1,0.478
35.1,32011.0,34992.8,1.1839,1.1825,149.5,98.1,0.478
35.12,32041.6,34822.3,1.1858,1.1727,149.5,98.1,0.478
35.14,31862.4,34693.7,1.1745,1.1652,149.5,98.1,0.478
35.16,31909.2,34680.4,1.1774,1.1644,149.5,98.1,0.478
35.18,31860.3,34695.7,1.1743,1.1653,149.5,98.1,0.478
35.2,31866.5,34521.3,1.1747,1.1552,149.5,98.1,0.478
35.22,31824.3,34680.8,1.1721,1.1645,149.5,98.1,0.478
35.24,31825.2,34545.5,1.1721,1.1566,149.5,98.1,0.478
35.26,31699.0,34477.9,1.1641,1.1527,149.5,98.1,0.478
35.28,31775.7,34621.1,1.169,1.161,149.5,98.1,0.478
35.3,31978.7,34856.1,1.1819,1.1746,149.5,98.1,0.478
35.32,32118.3,35132.4,1.1907,1.1906,149.5,98.1,0.478
35.34,32215.0,35500.6,1.1968,1.212,149.5,98.1,0.478
35.36,32396.5,35743.2,1.2083,1.226,149.5,98.1,0.478
35.38,32268.3,35765.9,1.2002,1.2273,149.5,98.1,0.478
35.4,32213.9,35487.4,1.1968,1.2112,149.5,98.1,0.478
35.42,32100.4,35346.3,1.1896,1.203,149.5,98.1,0.478
35.44,32076.2,35084.0,1.188,1.1878,149.5,98.1,0.478
35.46,32070.6,35111.2,1.1877,1.1894,149.5,98.1,0.478
35.48,32064.9,35062.1,1.1873,1.1865,149.5,98.1,0.478
35.5,31952.8,34949.0,1.1802,1.18,149.5,98.1,0.478
35.52,31851.4,34888.5,1.1738,1.1765,149.5,98.1,0.478
35.54,31737.2,34771.2,1.1665,1.1697,149.5,98.1,0.478
35.56,31878.7,34662.7,1.1755,1.1634,149.5,98.1,0.478
35.58,31867.7,34597.4,1.1748,1.1596,149.5,98.1,0.478
35.6,31707.8,34681.2,1.1647,1.1645,149.5,98.1,0.478
35.62,31736.2,34497.8,1.1665,1.1539,149.5,98.1,0.478
35.64,31792.2,34585.6,1.17,1.1589,149.5,98.1,0.478
35.66,31724.2,34286.4,1.1657,1.1416,149.5,98.1,0.478
35.68,31865.0,34505.5,1.1746,1.1543,149.5,98.1,0.478
35.7,32013.8,34810.3,1.1841,1.172,149.5,98.1,0.478
35.72,32008.9,35159.3,1.1838,1.1922,149.5,98.1,0.478
35.74,32266.0,35524.8,1.2001,1.2134,149.5,98.1,0.478
35.76,32351.4,35752.6,1.2055,1.2266,149.5,98.1,0.478
35.78,32292.9,35764.5,1.2018,1.2272,149.5,98.1,0.478
35.8,32180.5,35487.6,1.1946,1.2112,149.5,98.1,0.478
35.82,32142.3,35384.2,1.1922,1.2052,149.5,98.1,0.478
35.84,32132.1,35189.5,1.1916,1.1939,149.5,98.1,0.478
35.86,32006.9,35131.6,1.1836,1.1906,149.5,98.1,0.478
35.88,31951.7,35047.7,1.1801,1.1857,149.5,98.1,0.478
35.9,32011.9,34995.7,1.184,1.1827,149.5,98.1,0.478
35.92,31935.4,34832.5,1.1791,1.1732,149.5,98.1,0.478
35.94,31897.6,34671.5,1.1767,1.1639,149.5,98.1,0.478
35.96,31876.1,34720.4,1.1753,1.1668,149.5,98.1,0.478
35.98,31828.3,34688.7,1.1723,1.1649,149.5,98.1,0.478
36.0,31854.2,34710.3,1.174,1.1662,149.5,98.1,0.478
36.02,31725.6,34674.0,1.1658,1.1641,149.5,98.1,0.478
36.04,31728.8,34546.0,1.166,1.1566,149.5,98.1,0.478
36.06,31730.4,34442.6,1.1661,1.1507,149.5,98.1,0.478
36.08,31772.8,34468.7,1.1688,1.1522,149.5,98.1,0.478
36.1,31954.4,34798.3,1.1803,1.1713,149.5,98.1,0.478
36.12,32080.5,35190.1,1.1883,1.194,149.5,98.1,0.478
36.14,32252.2,35539.6,1.1992,1.2142,149.5,98.1,0.478
36.16,32304.4,35720.8,1.2025,1.2247,149.5,98.1,0.478
36.18,32348.1,35750.3,1.2053,1.2264,149.5,98.1,0.478
36.2,32232.4,35565.3,1.1979,1.2157,149.5,98.1,0.478
36.22,32094.9,35345.3,1.1892,1.203,149.5,98.1,0.478
36.24,32042.9,35143.4,1.1859,1.1913,149.5,98.1,0.478
36.26,32031.3,35177.0,1.1852,1.1932,149.5,98.1,0.478
36.28,31987.9,35069.3,1.1824,1.187,149.5,98.1,0.478
36.3,31978.8,34874.1,1.1819,1.1757,149.5,98.1,0.478
36.32,31997.9,34894.9,1.1831,1.1769,149.5,98.1,0.478
36.34,31908.4,34806.4,1.1774,1.1717,149.5,98.1,0.478
36.36,31903.8,34701.0,1.1771,1.1656,149.5,98.1,0.478
36.38,31817.9,34671.0,1.1717,1.1639,149.5,98.1,0.478
36.4,31818.6,34672.4,1.1717,1.164,149.5,98.1,0.478
36.42,31834.8,34543.9,1.1727,1.1565,149.5,98.1,0.478
36.44,31822.5,34583.7,1.172,1.1588,149.5,98.1,0.478
36.46,31661.6,34418.8,1.1618,1.1493,149.5,98.1,0.478
36.48,31741.6,34479.3,1.1668,1.1528,149.5,98.1,0.478
36.5,31918.1,34761.5,1.178,1.1691,149.5,98.1,0.478
36.52,32069.5,35117.9,1.1876,1.1898,149.5,98.1,0.478
36.54,32282.3,35535.2,1.2011,1.214,149.5,98.1,0.478
36.56,32243.3,35671.9,1.1986,1.2219,149.5,98.1,0.478
36.58,32252.5,35669.1,1.1992,1.2217,149.5,98.1,0.478
36.6,32231.4,35591.0,1.1979,1.2172,149.5,98.1,0.478
36.62,32186.7,35207.1,1.195,1.195,149.5,98.1,0.478
36.64,32020.4,35160.7,1.1845,1.1923,149.5,98.1,0.478
36.66,32084.6,35086.9,1.1886,1.188,149.5,98.1,0.478
36.68,32070.0,35134.7,1.1876,1.1908,149.5,98.1,0.478
36.7,32013.6,34994.8,1.1841,1.1826,149.5,98.1,0.478
36.72,32001.8,34830.5,1.1833,1.1731,149.5,98.1,0.478
36.74,31914.7,34739.7,1.1778,1.1679,149.5,98.1,0.478
36.76,31895.7,34704.8,1.1766,1.1658,149.5,98.1,0.478
36.78,31835.0,34691.5,1.1727,1.1651,149.5,98.1,0.478
36.8,31878.5,34596.2,1.1755,1.1596,149.5,98.1,0.478
36.82,31887.8,34729.9,1.1761,1.1673,149.5,98.1,0.478
36.84,31824.1,34554.9,1.1721,1.1572,149.5,98.1,0.478
36.86,31799.3,34494.7,1.1705,1.1537,149.5,98.1,0.478
36.88,31818.1,34536.3,1.1717,1.1561,149.5,98.1,0.478
36.9,31868.8,34810.6,1.1749,1.172,149.5,98.1,0.478
36.92,31972.8,35091.8,1.1815,1.1883,149.5,98.1,0.478
36.94,32147.3,35520.7,1.1925,1.2131,149.5,98.1,0.478
36.96,32423.4,35656.6,1.21,1.221,149.5,98.1,0.478
36.98,32372.4,35657.2,1.2068,1.221,149.5,98.1,0.478
37.0,32259.2,35505.0,1.1996,1.2122,149.5,98.1,0.478
37.02,32173.3,35449.8,1.1942,1.209,149.5,98.1,0.478
37.04,32147.9,35171.7,1.1926,1.1929,149.5,98.1,0.478
37.06,31999.6,35013.6,1.1832,1.1837,149.5,98.1,0.478
37.08,31996.6,35067.5,1.183,1.1869,149.5,98.1,0.478
37.1,32077.0,35004.4,1.1881,1.1832,149.5,98.1,0.478
37.12,31871.3,34917.0,1.175,1.1781,149.5,98.1,0.478
37.14,31908.4,34728.1,1.1774,1.1672,149.5,98.1,0.478
37.16,31895.0,34734.7,1.1765,1.1676,149.5,98.1,0.478
37.18,31863.8,34720.2,1.1746,1.1667,149.5,98.1,0.478
37.2,31829.1,34754.8,1.1724,1.1687,149.5,98.1,0.478
37.22,31863.8,34605.7,1.1746,1.1601,149.5,98.1,0.478
37.24,31781.6,34599.9,1.1694,1.1598,149.5,98.1,0.478
37.26,31805.9,34485.9,1.1709,1.1532,149.5,98.1,0.478
37.28,31807.1,34513.0,1.171,1.1547,149.5,98.1,0.478
37.3,31926.1,34761.4,1.1785,1.1691,149.5,98.1,0.478
37.32,32108.1,35151.0,1.1901,1.1917,149.5,98.1,0.478
37.34,32253.3,35462.6,1.1993,1.2098,149.5,98.1,0.478
37.36,32266.8,35688.3,1.2001,1.2228,149.5,98.1,0.478
37.38,32282.1,35833.6,1.2011,1.2313,149.5,98.1,0.478
37.4,32355.1,35653.2,1.2057,1.2208,149.5,98.1,0.478
37.42,32166.7,35390.7,1.1938,1.2056,149.5,98.1,0.478
37.44,32183.1,35213.4,1.1948,1.1953,149.5,98.1,0.478
37.46,32083.3,35112.0,1.1885,1.1894,149.5,98.1,0.478
37.48,31966.6,35060.9,1.1811,1.1865,149.5,98.1,0.478
37.5,31996.0,34944.9,1.183,1.1798,149.5,98.1,0.478
37.52,32034.8,34959.5,1.1854,1.1806,149.5,98.1,0.478
37.54,31900.2,34843.2,1.1769,1.1739,149.5,98.1,0.478
37.56,31878.9,34711.6,1.1755,1.1662,149.5,98.1,0.478
37.58,31915.6,34664.2,1.1779,1.1635,149.5,98.1,0.478
37.6,31845.7,34650.5,1.1734,1.1627,149.5,98.1,0.478
37.62,31839.6,34677.9,1.173,1.1643,149.5,98.1,0.478
37.64,31789.5,34501.4,1.1699,1.1541,149.5,98.1,0.478
37.66,31873.8,34434.0,1.1752,1.1502,149.5,98.1,0.478
37.68,31846.0,34544.8,1.1734,1.1566,149.5,98.1,0.478
37.7,31917.7,34729.9,1.178,1.1673,149.5,98.1,0.478
37.72,32065.8,35017.2,1.1874,1.1839,149.5,98.1,0.478
37.74,32285.6,35532.9,1.2013,1.2138,149.5,98.1,0.478
37.76,32243.1,35569.9,1.1986,1.216,149.5,98.1,0.478
37.78,32363.9,35741.9,1.2063,1.2259,149.5,98.1,0.478
37.8,32292.1,35612.2,1.2017,1.2184,149.5,98.1,0.478
37.82,32167.8,35479.0,1.1938,1.2107,149.5,98.1,0.478
37.84,32183.5,35246.9,1.1948,1.1973,149.5,98.1,0.478
37.86,32100.3,35127.0,1.1896,1.1903,149.5,98.1,0.478
37.88,32104.6,35089.5,1.1898,1.1881,149.5,98.1,0.478
37.9,32020.1,35045.1,1.1845,1.1856,149.5,98.1,0.478
37.92,31942.5,34944.8,1.1796,1.1798,149.5,98.1,0.478
37.94,31934.0,34808.9,1.179,1.1719,149.5,98.1,0.478
37.96,31841.9,34803.3,1.1732,1.1716,149.5,98.1,0.478
37.98,31858.3,34680.3,1.1742,1.1644,149.5,98.1,0.478
38.0,31818.4,34751.7,1.1717,1.1686,149.5,98.1,0.478
38.02,31858.9,34666.9,1.1743,1.1637,149.5,98.1,0.478
38.04,31838.7,34465.2,1.173,1.152,149.5,98.1,0.478
38.06,31737.3,34571.2,1.1666,1.1581,149.5,98.1,0.478
38.08,31787.6,34513.7,1.1697,1.1548,149.5,98.1,0.478
38.1,31800.6,34677.4,1.1706,1.1643,149.5,98.1,0.478
38.12,31993.8,34946.8,1.1828,1.1799,149.5,98.1,0.478
38.14,32241.0,35272.8,1.1985,1.1988,149.5,98.1,0.478
38.16,32240.9,35628.1,1.1985,1.2193,149.5,98.1,0.478
38.18,32300.0,35731.0,1.2022,1.2253,149.5,98.1,0.478
38.2,32310.4,35604.0,1.2029,1.2179,149.5,98.1,0.478
38.22,32137.1,35426.5,1.1919,1.2077,149.5,98.1,0.478
38.24,32112.4,35271.6,1.1903,1.1987,149.5,98.1,0.478
38.26,31992.5,35091.0,1.1827,1.1882,149.5,98.1,0.478
38.28,32083.5,35066.7,1.1885,1.1868,149.5,98.1,0.478
38.3,32015.3,35047.9,1.1842,1.1857,149.5,98.1,0.478
38.32,31967.5,34822.7,1.1811,1.1727,149.5,98.1,0.478
38.34,31946.2,34757.4,1.1798,1.1689,149.5,98.1,0.478
38.36,31837.0,34719.0,1.1729,1.1667,149.5,98.1,0.478
38.38,31921.4,34665.1,1.1782,1.1635,149.5,98.1,0.478
38.4,31949.5,34660.9,1.18,1.1633,149.5,98.1,0.478
38.42,31829.5,34634.4,1.1724,1.1618,149.5,98.1,0.478
38.44,31906.8,34576.1,1.1773,1.1584,149.5,98.1,0.478
38.46,31793.6,34421.0,1.1701,1.1494,149.5,98.1,0.478
38.48,31758.4,34447.7,1.1679,1.151,149.5,98.1,0.478
38.5,31847.5,34727.4,1.1735,1.1672,149.5,98.1,0.478
38.52,31900.5,34995.8,1.1769,1.1827,149.5,98.1,0.478
38.54,32185.5,35443.3,1.195,1.2086,149.5,98.1,0.478
38.56,32331.2,35623.5,1.2042,1.2191,149.5,98.1,0.478
38.58,32347.4,35732.2,1.2052,1.2254,149.5,98.1,0.478
38.6,32310.5,35683.3,1.2029,1.2225,149.5,98.1,0.478
38.62,32173.5,35377.8,1.1942,1.2048,149.5,98.1,0.478
38.64,32146.3,35293.3,1.1925,1.1999,149.5,98.1,0.478
38.66,32099.2,35140.0,1.1895,1.1911,149.5,98.1,0.478
38.68,32038.4,35098.3,1.1856,1.1886,149.5,98.1,0.478
38.7,32049.0,35020.9,1.1863,1.1842,149.5,98.1,0.478
38.72,32041.0,34955.8,1.1858,1.1804,149.5,98.1,0.478
38.74,31949.4,34878.5,1.18,1.1759,149.5,98.1,0.478
38.76,31874.2,34732.7,1.1752,1.1675,149.5,98.1,0.478
38.78,31794.8,34682.5,1.1702,1.1646,149.5,98.1,0.478
38.8,31773.3,34639.3,1.1688,1.1621,149.5,98.1,0.478
38.82,31854.1,34561.2,1.174,1.1575,149.5,98.1,0.478
38.84,31750.9,34620.6,1.1674,1.161,149.5,98.1,0.478
38.86,31767.1,34498.7,1.1684,1.1539,149.5,98.1,0.478
38.88,31854.4,34456.0,1.174,1.1514,149.5,98.1,0.478
38.9,31855.6,34668.4,1.1741,1.1637,149.5,98.1,0.478
38.92,32006.5,34965.1,1.1836,1.1809,149.5,98.1,0.478
38.94,32201.6,35427.5,1.196,1.2077,149.5,98.1,0.478
38.96,32234.0,35732.9,1.198,1.2254,149.5,98.1,0.478
38.98,32305.5,35849.4,1.2026,1.2322,149.5,98.1,0.478
39.0,32312.6,35587.5,1.203,1.217,149.5,98.1,0.478
39.02,32223.3,35527.6,1.1974,1.2135,149.5,98.1,0.478
39.04,32106.0,35192.1,1.1899,1.1941,149.5,98.1,0.478
39.06,32075.3,35109.1,1.188,1.1893,149.5,98.1,0.478
39.08,32087.4,35046.6,1.1887,1.1857,149.5,98.1,0.478
39.1,31941.0,34968.3,1.1795,1.1811,149.5,98.1,0.478
39.12,31940.8,34910.1,1.1794,1.1777,149.5,98.1,0.478
39.14,31970.0,34764.2,1.1813,1.1693,149.5,98.1,0.478
39.16,31840.9,34623.4,1.1731,1.1611,149.5,98.1,0.478
39.18,31876.1,34726.2,1.1754,1.1671,149.5,98.1,0.478
39.2,31821.9,34595.6,1.1719,1.1595,149.5,98.1,0.478
39.22,31774.5,34587.7,1.1689,1.1591,149.5,98.1,0.478
39.24,31858.8,34588.7,1.1743,1.1591,149.5,98.1,0.478
39.26,31656.7,34411.6,1.1614,1.1489,149.5,98.1,0.478
39.28,31683.4,34444.1,1.1631,1.1507,149.5,98.1,0.478
39.3,31854.2,34598.3,1.174,1.1597,149.5,98.1,0.478
39.32,31996.8,34996.2,1.183,1.1827,149.5,98.1,0.478
39.34,32245.7,35388.1,1.1988,1.2054,149.5,98.1,0.478
39.36,32200.0,35665.7,1.1959,1.2215,149.5,98.1,0.478
39.38,32323.1,35721.7,1.2037,1.2248,149.5,98.1,0.478
39.4,32250.4,35732.1,1.1991,1.2254,149.5,98.1,0.478
39.42,32210.6,35506.0,1.1966,1.2123,149.5,98.1,0.478
39.44,31977.3,35292.0,1.1818,1.1999,149.5,98.1,0.478
39.46,32051.0,35072.2,1.1864,1.1871,149.5,98.1,0.478
39.48,32128.1,35084.1,1.1913,1.1878,149.5,98.1,0.478
39.5,32041.4,35074.1,1.1858,1.1872,149.5,98.1,0.478
39.52,31933.5,34885.0,1.179,1.1763,149.5,98.1,0.478
39.54,31964.4,34871.5,1.1809,1.1755,149.5,98.1,0.478
39.56,31955.7,34770.5,1.1804,1.1697,149.5,98.1,0.478
39.58,31820.2,34687.8,1.1718,1.1649,149.5,98.1,0.478
39.6,31838.8,34617.5,1.173,1.1608,149.5,98.1,0.478
39.62,31905.3,34683.8,1.1772,1.1646,149.5,98.1,0.478
39.64,31741.2,34517.9,1.1668,1.155,149.5,98.1,0.478
39.66,31788.6,34457.9,1.1698,1.1515,149.5,98.1,0.478
39.68,31745.7,34474.6,1.1671,1.1525,149.5,98.1,0.478
39.7,31895.6,34650.9,1.1766,1.1627,149.5,98.1,0.478
39.72,31933.8,34945.4,1.179,1.1798,149.5,98.1,0.478
39.74,32102.6,35347.4,1.1897,1.2031,149.5,98.1,0.478
39.76,32166.7,35610.7,1.1938,1.2183,149.5,98.1,0.478
39.78,32304.9,35705.9,1.2025,1.2239,149.5,98.1,0.478
39.8,32317.8,35688.2,1.2034,1.2228,149.5,98.1,0.478
39.82,32232.7,35417.9,1.198,1.2072,149.5,98.1,0.478
39.84,32086.1,35271.3,1.1887,1.1987,149.5,98.1,0.478
39.86,32144.5,35095.3,1.1924,1.1885,149.5,98.1,0.478
39.88,32030.7,35190.8,1.1852,1.194,149.5,98.1,0.478
39.9,32043.3,35122.9,1.1859,1.1901,149.5,98.1,0.478
39.92,32001.8,35030.8,1.1833,1.1847,149.5,98.1,0.478
39.94,31917.4,34805.7,1.178,1.1717,149.5,98.1,0.478
39.96,31898.2,34675.6,1.1767,1.1642,149.5,98.1,0.478
39.98,31916.4,34670.0,1.1779,1.1638,149.5,98.1,0.478
40.0,31774.0,34644.1,1.1689,1.1623,149.5,98.1,0.478
40.02,31772.2,34665.6,1.1688,1.1636,149.5,98.1,0.478
40.04,31818.1,34554.3,1.1717,1.1571,149.5,98.1,0.478
40.06,31822.0,34519.9,1.1719,1.1551,149.5,98.1,0.478
40.08,31751.2,34545.9,1.1674,1.1566,149.5,98.1,0.478
40.1,31747.1,34502.1,1.1672,1.1541,149.5,98.1,0.478
40.12,31923.7,34906.8,1.1784,1.1776,149.5,98.1,0.478
40.14,32203.3,35338.3,1.1961,1.2026,149.5,98.1,0.478
40.16,32225.5,35620.9,1.1975,1.2189,149.5,98.1,0.478
40.18,32359.6,35793.5,1.206,1.2289,149.5,98.1,0.478
40.2,32328.9,35734.4,1.2041,1.2255,149.5,98.1,0.478
40.22,32259.7,35539.8,1.1997,1.2142,149.5,98.1,0.478
40.24,32156.0,35310.3,1.1931,1.2009,149.5,98.1,0.478
40.26,32028.8,35116.4,1.185,1.1897,149.5,98.1,0.478
40.28,32016.6,35150.9,1.1843,1.1917,149.5,98.1,0.478
40.3,31939.0,35106.9,1.1793,1.1891,149.5,98.1,0.478
40.32,31876.1,34909.0,1.1754,1.1777,149.5,98.1,0.478
40.34,31958.4,34911.6,1.1806,1.1778,149.5,98.1,0.478
40.36,31870.1,34710.3,1.175,1.1662,149.5,98.1,0.478
40.38,31894.9,34780.1,1.1765,1.1702,149.5,98.1,0.478
40.4,31860.8,34706.5,1.1744,1.1659,149.5,98.1,0.478
40.42,31849.4,34657.9,1.1737,1.1631,149.5,98.1,0.478
40.44,31877.0,34561.4,1.1754,1.1575,149.5,98.1,0.478
40.46,31783.9,34448.8,1.1695,1.151,149.5,98.1,0.478
40.48,31764.8,34393.9,1.1683,1.1478,149.5,98.1,0.478
40.5,31876.7,34556.8,1.1754,1.1573,149.5,98.1,0.478
40.52,32040.6,34852.2,1.1858,1.1744,149.5,98.1,0.478
40.54,32165.5,35273.6,1.1937,1.1988,149.5,98.1,0.478
40.56,32292.7,35653.5,1.2018,1.2208,149.5,98.1,0.478
40.58,32297.7,35777.5,1.2021,1.228,149.5,98.1,0.478
40.6,32294.6,35681.8,1.2019,1.2225,149.5,98.1,0.478
40.62,32279.9,35519.6,1.2009,1.2131,149.5,98.1,0.478
40.64,32169.9,35329.5,1.194,1.202,149.5,98.1,0.478
40.66,32001.5,35298.0,1.1833,1.2002,149.5,98.1,0.478
40.68,31958.4,35160.1,1.1806,1.1922,149.5,98.1,0.478
40.7,31991.8,35061.5,1.1827,1.1865,149.5,98.1,0.478
40.72,32005.5,35032.8,1.1836,1.1849,149.5,98.1,0.478
40.74,31871.7,34864.1,1.1751,1.1751,149.5,98.1,0.478
40.76,31864.9,34739.9,1.1746,1.1679,149.5,98.1,0.478
40.78,31895.3,34691.2,1.1766,1.1651,149.5,98.1,0.478
40.8,31930.7,34593.5,1.1788,1.1594,149.5,98.1,0.478
40.82,31941.5,34648.1,1.1795,1.1626,149.5,98.1,0.478
40.84,31850.2,34571.7,1.1737,1.1581,149.5,98.1,0.478
40.86,31769.8,34499.0,1.1686,1.1539,149.5,98.1,0.478
40.88,31763.9,34434.7,1.1682,1.1502,149.5,98.1,0.478
40.9,31933.0,34550.9,1.179,1.1569,149.5,98.1,0.478
40.92,31959.3,34901.7,1.1806,1.1773,149.5,98.1,0.478
40.94,32075.1,35271.7,1.188,1.1987,149.5,98.1,0.478
40.96,32159.1,35568.2,1.1933,1.2159,149.5,98.1,0.478
40.98,32315.2,35755.9,1.2032,1.2268,149.5,98.1,0.478
41.0,32276.1,35713.7,1.2007,1.2243,149.5,98.1,0.478
41.02,32263.9,35552.2,1.1999,1.2149,149.5,98.1,0.478
41.04,32143.0,35319.7,1.1923,1.2015,149.5,98.1,0.478
41.06,32055.1,35192.7,1.1867,1.1941,149.5,98.1,0.478
41.08,32084.3,35051.5,1.1885,1.1859,149.5,98.1,0.478
41.1,31990.9,35048.5,1.1826,1.1858,149.5,98.1,0.478
41.12,32026.1,34967.1,1.1849,1.181,149.5,98.1,0.478
41.14,31961.1,34816.9,1.1807,1.1723,149.5,98.1,0.478
41.16,31947.7,34736.8,1.1799,1.1677,149.5,98.1,0.478
41.18,31844.1,34651.2,1.1733,1.1627,149.5,98.1,0.478
41.2,31895.3,34674.7,1.1766,1.1641,149.5,98.1,0.478
41.22,31873.7,34696.1,1.1752,1.1653,149.5,98.1,0.478
41.24,31748.3,34626.0,1.1672,1.1613,149.5,98.1,0.478
41.26,31776.0,34517.6,1.169,1.155,149.5,98.1,0.478
41.28,31819.3,34385.3,1.1718,1.1473,149.5,98.1,0.478
41.3,31832.8,34637.1,1.1726,1.1619,149.5,98.1,0.478
41.32,31916.8,34948.1,1.1779,1.1799,149.5,98.1,0.478
41.34,32077.2,35182.4,1.1881,1.1935,149.5,98.1,0.478
41.36,32243.0,35629.4,1.1986,1.2194,149.5,98.1,0.478
41.38,32331.0,35852.9,1.2042,1.2324,149.5,98.1,0.478
41.4,32388.9,35703.9,1.2079,1.2237,149.5,98.1,0.478
41.42,32209.3,35527.5,1.1965,1.2135,149.5,98.1,0.478
41.44,32267.2,35338.7,1.2001,1.2026,149.5,98.1,0.478
41.46,32099.6,35139.7,1.1895,1.191,149.5,98.1,0.478
41.48,32056.4,35117.4,1.1868,1.1898,149.5,98.1,0.478
41.5,32001.9,35059.4,1.1833,1.1864,149.5,98.1,0.478
41.52,31989.1,34984.4,1.1825,1.182,149.5,98.1,0.478
41.54,31936.3,34855.6,1.1792,1.1746,149.5,98.1,0.478
41.56,31869.6,34774.3,1.1749,1.1699,149.5,98.1,0.478
41.58,31882.0,34624.7,1.1757,1.1612,149.5,98.1,0.478
41.6,31790.8,34751.1,1.1699,1.1685,149.5,98.1,0.478
41.62,31858.6,34616.8,1.1742,1.1607,149.5,98.1,0.478
41.64,31840.4,34574.5,1.1731,1.1583,149.5,98.1,0.478
41.66,31749.3,34486.2,1.1673,1.1532,149.5,98.1,0.478
41.68,31770.6,34476.7,1.1687,1.1526,149.5,98.1,0.478
41.7,31840.6,34592.0,1.1731,1.1593,149.5,98.1,0.478
41.72,31801.8,34819.7,1.1706,1.1725,149.5,98.1,0.478
41.74,32108.3,35212.9,1.1901,1.1953,149.5,98.1,0.478
41.76,32147.4,35560.8,1.1925,1.2154,149.5,98.1,0.478
41.78,32226.1,35774.6,1.1975,1.2278,149.5,98.1,0.478
41.8,32279.8,35665.3,1.2009,1.2215,149.5,98.1,0.478
41.82,32317.7,35537.5,1.2033,1.2141,149.5,98.1,0.478
41.84,32200.2,35389.3,1.1959,1.2055,149.5,98.1,0.478
41.86,32161.1,35239.1,1.1934,1.1968,149.5,98.1,0.478
41.88,32019.1,35030.4,1.1844,1.1847,149.5,98.1,0.478
41.9,31997.7,35078.5,1.1831,1.1875,149.5,98.1,0.478
41.92,32009.3,35011.7,1.1838,1.1836,149.5,98.1,0.478
41.94,31952.6,34819.9,1.1802,1.1725,149.5,98.1,0.478
41.96,31876.1,34801.3,1.1754,1.1714,149.5,98.1,0.478
41.98,31767.4,34642.2,1.1685,1.1622,149.5,98.1,0.478
42.0,31825.8,34533.6,1.1722,1.1559,149.5,98.1,0.478
42.02,31782.1,34654.4,1.1694,1.1629,149.5,98.1,0.478
42.04,31884.2,34575.1,1.1759,1.1583,149.5,98.1,0.478
42.06,31799.7,34504.2,1.1705,1.1542,149.5,98.1,0.478
42.08,31731.4,34411.7,1.1662,1.1489,149.5,98.1,0.478
42.1,31884.0,34591.2,1.1759,1.1593,149.5,98.1,0.478
42.12,31883.5,34780.1,1.1758,1.1702,149.5,98.1,0.478
42.14,32008.4,35178.0,1.1837,1.1933,149.5,98.1,0.478
42.16,32200.1,35433.7,1.1959,1.2081,149.5,98.1,0.478
42.18,32259.4,35616.9,1.1996,1.2187,149.5,98.1,0.478
42.2,32365.9,35663.7,1.2064,1.2214,149.5,98.1,0.478
42.22,32271.7,35629.8,1.2004,1.2194,149.5,98.1,0.478
42.24,32129.6,35432.4,1.1914,1.208,149.5,98.1,0.478
42.26,32068.5,35209.8,1.1875,1.1951,149.5,98.1,0.478
42.28,32024.8,35056.1,1.1848,1.1862,149.5,98.1,0.478
42.3,32030.2,35010.9,1.1851,1.1836,149.5,98.1,0.478
42.32,32032.8,35021.5,1.1853,1.1842,149.5,98.1,0.478
42.34,31938.6,34794.4,1.1793,1.171,149.5,98.1,0.478
42.36,31964.4,34734.5,1.181,1.1676,149.5,98.1,0.478
42.38,31893.8,34675.8,1.1765,1.1642,149.5,98.1,0.478
42.4,31844.6,34708.6,1.1734,1.1661,149.5,98.1,0.478
42.42,31770.3,34769.0,1.1686,1.1696,149.5,98.1,0.478
42.44,31795.0,34562.0,1.1702,1.1576,149.5,98.1,0.478
42.46,31756.7,34527.1,1.1678,1.1556,149.5,98.1,0.478
42.48,31747.1,34481.1,1.1672,1.1529,149.5,98.1,0.478
42.5,31853.4,34525.5,1.1739,1.1555,149.5,98.1,0.478
42.52,31915.8,34786.1,1.1779,1.1706,149.5,98.1,0.478
42.54,32075.5,35168.0,1.188,1.1927,149.5,98.1,0.478
42.56,32179.7,35481.6,1.1946,1.2109,149.5,98.1,0.478
42.58,32422.6,35758.3,1.21,1.2269,149.5,98.1,0.478
42.6,32330.2,35642.1,1.2041,1.2202,149.5,98.1,0.478
42.62,32225.5,35570.9,1.1975,1.216,149.5,98.1,0.478
42.64,32153.7,35323.6,1.1929,1.2017,149.5,98.1,0.478
42.66,32054.4,35230.9,1.1867,1.1963,149.5,98.1,0.478
42.68,32043.1,35181.9,1.1859,1.1935,149.5,98.1,0.478
42.7,31960.5,35099.0,1.1807,1.1887,149.5,98.1,0.478
42.72,31969.6,35052.5,1.1813,1.186,149.5,98.1,0.478
42.74,31982.1,34803.7,1.1821,1.1716,149.5,98.1,0.478
42.76,31884.9,34798.1,1.1759,1.1713,149.5,98.1,0.478
42.78,31864.4,34773.3,1.1746,1.1698,149.5,98.1,0.478
42.8,31827.0,34739.4,1.1722,1.1679,149.5,98.1,0.478
42.82,31894.0,34652.3,1.1765,1.1628,149.5,98.1,0.478
42.84,31763.5,34554.7,1.1682,1.1572,149.5,98.1,0.478
42.86,31770.0,34505.2,1.1686,1.1543,149.5,98.1,0.478
42.88,31769.4,34391.3,1.1686,1.1477,149.5,98.1,0.478
42.9,31774.4,34515.7,1.1689,1.1549,149.5,98.1,0.478
42.92,31893.9,34823.8,1.1765,1.1727,149.5,98.1,0.478
42.94,32114.0,35022.2,1.1904,1.1842,149.5,98.1,0.478
42.96,32277.1,35490.6,1.2008,1.2114,149.5,98.1,0.478
42.98,32299.6,35737.9,1.2022,1.2257,149.5,98.1,0.478
43.0,32237.1,35705.4,1.1982,1.2238,149.5,98.1,0.478
43.02,32352.5,35628.0,1.2055,1.2193,149.5,98.1,0.478
43.04,32196.9,35437.4,1.1957,1.2083,149.5,98.1,0.478
43.06,32040.0,35195.2,1.1857,1.1943,149.5,98.1,0.478
43.08,32014.1,35142.1,1.1841,1.1912,149.5,98.1,0.478
43.1,32084.2,35089.6,1.1885,1.1881,149.5,98.1,0.478
43.12,31953.0,35055.8,1.1802,1.1862,149.5,98.1,0.478
43.14,31916.4,34866.3,1.1779,1.1752,149.5,98.1,0.478
43.16,31830.4,34794.5,1.1725,1.171,149.5,98.1,0.478
43.18,31805.3,34694.2,1.1709,1.1652,149.5,98.1,0.478
43.2,31886.0,34670.8,1.176,1.1639,149.5,98.1,0.478
43.22,31819.5,34670.2,1.1718,1.1638,149.5,98.1,0.478
43.24,31778.6,34683.2,1.1692,1.1646,149.5,98.1,0.478
43.26,31742.5,34468.2,1.1669,1.1521,149.5,98.1,0.478
43.28,31712.3,34440.8,1.165,1.1506,149.5,98.1,0.478
43.3,31650.0,34445.2,1.161,1.1508,149.5,98.1,0.478
43.32,31844.2,34721.8,1.1733,1.1668,149.5,98.1,0.478
43.34,32012.2,35040.2,1.184,1.1853,149.5,98.1,0.478
43.36,32173.7,35560.4,1.1942,1.2154,149.5,98.1,0.478
43.38,32366.5,35700.0,1.2064,1.2235,149.5,98.1,0.478
43.4,32363.3,35698.1,1.2062,1.2234,149.5,98.1,0.478
43.42,32287.0,35585.8,1.2014,1.2169,149.5,98.1,0.478
43.44,32207.9,35410.5,1.1964,1.2067,149.5,98.1,0.478
43.46,32033.8,35194.0,1.1854,1.1942,149.5,98.1,0.478
43.48,32089.0,35228.3,1.1888,1.1962,149.5,98.1,0.478
43.5,31977.7,35061.4,1.1818,1.1865,149.5,98.1,0.478
43.52,32004.9,35103.2,1.1835,1.1889,149.5,98.1,0.478
43.54,32051.2,34983.3,1.1865,1.182,149.5,98.1,0.478
43.56,31846.9,34815.0,1.1735,1.1722,149.5,98.1,0.478
43.58,31833.9,34774.0,1.1727,1.1699,149.5,98.1,0.478
43.6,31864.6,34752.5,1.1746,1.1686,149.5,98.1,0.478
43.62,31857.9,34750.1,1.1742,1.1685,149.5,98.1,0.478
43.64,31880.9,34629.6,1.1757,1.1615,149.5,98.1,0.478
43.66,31745.2,34600.8,1.1671,1.1598,149.5,98.1,0.478
43.68,31748.1,34363.0,1.1672,1.146,149.5,98.1,0.478
43.7,31689.8,34542.3,1.1635,1.1564,149.5,98.1,0.478
43.72,31930.7,34709.1,1.1788,1.1661,149.5,98.1,0.478
43.74,32043.3,35051.9,1.186,1.186,149.5,98.1,0.478
43.76,32169.0,35350.4,1.1939,1.2033,149.5,98.1,0.478
43.78,32334.0,35654.9,1.2044,1.2209,149.5,98.1,0.478
43.8,32292.9,35728.4,1.2018,1.2252,149.5,98.1,0.478
43.82,32190.2,35676.8,1.1953,1.2222,149.5,98.1,0.478
43.84,32205.1,35333.5,1.1962,1.2023,149.5,98.1,0.478
43.86,32135.6,35223.3,1.1918,1.1959,149.5,98.1,0.478
43.88,32003.5,35176.2,1.1834,1.1932,149.5,98.1,0.478
43.9,32096.9,35133.3,1.1893,1.1907,149.5,98.1,0.478
43.92,32068.6,35055.5,1.1876,1.1862,149.5,98.1,0.478
43.94,31925.9,34909.0,1.1785,1.1777,149.5,98.1,0.478
43.96,31953.5,34815.3,1.1803,1.1723,149.5,98.1,0.478
43.98,31949.6,34648.8,1.18,1.1626,149.5,98.1,0.478
44.0,31928.8,34648.3,1.1787,1.1626,149.5,98.1,0.478
44.02,31844.6,34614.2,1.1734,1.1606,149.5,98.1,0.478
44.04,31830.3,34642.4,1.1724,1.1622,149.5,98.1,0.478
44.06,31760.9,34534.5,1.1681,1.156,149.5,98.1,0.478
44.08,31730.5,34538.4,1.1661,1.1562,149.5,98.1,0.478
44.1,31796.2,34548.8,1.1703,1.1568,149.5,98.1,0.478
44.12,31835.6,34700.7,1.1728,1.1656,149.5,98.1,0.478
44.14,32075.2,35019.4,1.188,1.1841,149.5,98.1,0.478
44.16,32163.2,35369.6,1.1935,1.2044,149.5,98.1,0.478
44.18,32313.4,35606.0,1.2031,1.2181,149.5,98.1,0.478
44.2,32330.0,35740.0,1.2041,1.2258,149.5,98.1,0.478
44.22,32333.8,35703.9,1.2044,1.2237,149.5,98.1,0.478
44.24,32095.6,35473.9,1.1893,1.2104,149.5,98.1,0.478
44.26,32183.0,35176.2,1.1948,1.1932,149.5,98.1,0.478
44.28,32033.7,35177.8,1.1853,1.1933,149.5,98.1,0.478
44.3,32006.1,35054.7,1.1836,1.1861,149.5,98.1,0.478
44.32,32054.5,34945.5,1.1867,1.1798,149.5,98.1,0.478
44.34,31994.6,34928.1,1.1829,1.1788,149.5,98.1,0.478
44.36,31876.3,34820.9,1.1754,1.1726,149.5,98.1,0.478
44.38,31833.4,34640.0,1.1726,1.1621,149.5,98.1,0.478
44.4,31857.3,34745.2,1.1742,1.1682,149.5,98.1,0.478
44.42,31945.6,34740.6,1.1798,1.1679,149.5,98.1,0.478
44.44,31890.2,34485.4,1.1762,1.1531,149.5,98.1,0.478
44.46,31858.2,34533.4,1.1742,1.1559,149.5,98.1,0.478
44.48,31794.0,34417.1,1.1701,1.1492,149.5,98.1,0.478
44.5,31762.1,34542.1,1.1681,1.1564,149.5,98.1,0.478
44.52,31802.2,34596.8,1.1707,1.1596,149.5,98.1,0.478
44.54,31898.8,35086.1,1.1768,1.1879,149.5,98.1,0.478
44.56,32185.9,35378.1,1.195,1.2049,149.5,98.1,0.478
44.58,32327.2,35663.2,1.2039,1.2214,149.5,98.1,0.478
44.6,32263.6,35754.3,1.1999,1.2267,149.5,98.1,0.478
44.62,32250.4,35644.9,1.1991,1.2203,149.5,98.1,0.478
44.64,32234.0,35389.6,1.198,1.2055,149.5,98.1,0.478
44.66,32035.6,35304.3,1.1855,1.2006,149.5,98.1,0.478
44.68,32043.5,35238.1,1.186,1.1967,149.5,98.1,0.478
44.7,32117.0,34966.9,1.1906,1.181,149.5,98.1,0.478
44.72,31946.5,34998.7,1.1798,1.1829,149.5,98.1,0.478
44.74,32023.3,34983.7,1.1847,1.182,149.5,98.1,0.478
44.76,31865.6,34821.3,1.1747,1.1726,149.5,98.1,0.478
44.78,31947.0,34784.1,1.1798,1.1704,149.5,98.1,0.478
44.8,31913.4,34773.1,1.1777,1.1698,149.5,98.1,0.478
44.82,31917.9,34759.6,1.178,1.169,149.5,98.1,0.478
44.84,31879.6,34660.2,1.1756,1.1633,149.5,98.1,0.478
44.86,31777.3,34502.0,1.1691,1.1541,149.5,98.1,0.478
44.88,31760.9,34397.1,1.168,1.148,149.5,98.1,0.478
44.9,31717.4,34606.1,1.1653,1.1601,149.5,98.1,0.478
44.92,31854.0,34723.1,1.174,1.1669,149.5,98.1,0.478
44.94,31984.8,35015.8,1.1822,1.1839,149.5,98.1,0.478
44.96,32139.0,35383.0,1.192,1.2051,149.5,98.1,0.478
44.98,32338.5,35673.9,1.2047,1.222,149.5,98.1,0.478
45.0,32330.5,35737.6,1.2042,1.2257,149.5,98.1,0.478
45.02,32217.2,35693.2,1.197,1.2231,149.5,98.1,0.478
45.04,32114.0,35394.8,1.1904,1.2058,149.5,98.1,0.478
45.06,32096.3,35294.6,1.1893,1.2,149.5,98.1,0.478
45.08,32081.5,35128.0,1.1884,1.1904,149.5,98.1,0.478
45.1,32033.5,35115.9,1.1853,1.1897,149.5,98.1,0.478
45.12,32000.8,35089.5,1.1833,1.1881,149.5,98.1,0.478
45.14,32000.5,34996.7,1.1832,1.1828,149.5,98.1,0.478
45.16,31836.4,34846.0,1.1728,1.174,149.5,98.1,0.478
45.18,31906.6,34755.4,1.1773,1.1688,149.5,98.1,0.478
45.2,31820.4,34673.7,1.1718,1.164,149.5,98.1,0.478
45.22,31874.4,34693.5,1.1752,1.1652,149.5,98.1,0.478
45.24,31895.8,34658.9,1.1766,1.1632,149.5,98.1,0.478
45.26,31789.2,34589.9,1.1698,1.1592,149.5,98.1,0.478
45.28,31688.1,34450.5,1.1634,1.1511,149.5,98.1,0.478
45.3,31804.4,34459.8,1.1708,1.1516,149.5,98.1,0.478
45.32,31797.4,34608.3,1.1704,1.1603,149.5,98.1,0.478
45.34,32050.1,34983.8,1.1864,1.182,149.5,98.1,0.478
45.36,32139.1,35332.0,1.192,1.2022,149.5,98.1,0.478
45.38,32272.3,35696.9,1.2005,1.2233,149.5,98.1,0.478
45.4,32338.5,35721.1,1.2047,1.2247,149.5,98.1,0.478
45.42,32271.2,35690.0,1.2004,1.2229,149.5,98.1,0.478
45.44,32098.1,35390.1,1.1894,1.2056,149.5,98.1,0.478
45.46,32046.5,35332.5,1.1862,1.2022,149.5,98.1,0.478
45.48,32151.5,35104.0,1.1928,1.189,149.5,98.1,0.478
45.5,32089.1,35080.0,1.1888,1.1876,149.5,98.1,0.478
45.52,32023.8,35030.5,1.1847,1.1847,149.5,98.1,0.478
45.54,32012.0,34913.4,1.184,1.1779,149.5,98.1,0.478
45.56,31892.8,34808.1,1.1764,1.1718,149.5,98.1,0.478
45.58,31844.3,34739.1,1.1733,1.1678,149.5,98.1,0.478
45.6,31863.2,34697.3,1.1745,1.1654,149.5,98.1,0.478
45.62,31870.2,34575.7,1.175,1.1584,149.5,98.1,0.478
45.64,31853.4,34656.8,1.1739,1.1631,149.5,98.1,0.478
45.66,31805.8,34517.6,1.1709,1.155,149.5,98.1,0.478
45.68,31775.3,34476.2,1.169,1.1526,149.5,98.1,0.478
45.7,31821.9,34497.5,1.1719,1.1538,149.5,98.1,0.478
45.72,31770.1,34654.3,1.1686,1.1629,149.5,98.1,0.478
45.74,31861.6,34881.6,1.1744,1.1761,149.5,98.1,0.478
45.76,32233.1,35323.0,1.198,1.2017,149.5,98.1,0.478
45.78,32209.4,35606.7,1.1965,1.2181,149.5,98.1,0.478
