timestamp,raw_red,raw_ir,filtered_red,filtered_ir,heart_rate,spo2,ac_dc_ratio
0.0,32197.7,35093.5,0.8272,0.2284,139.5,96.2,0.553
0.02,32214.5,35538.9,0.8974,1.3248,139.5,96.2,0.553
0.04,32304.6,35750.1,1.2746,1.8444,139.5,96.2,0.553
0.06,32392.1,35729.0,1.6409,1.7925,139.5,96.2,0.553
0.08,32285.3,35705.5,1.1937,1.7346,139.5,96.2,0.553
0.1,32157.5,35436.4,0.6587,1.0724,139.5,96.2,0.553
0.12,32166.3,35273.1,0.6956,0.6705,139.5,96.2,0.553
0.14,32055.6,35127.2,0.2324,0.3114,139.5,96.2,0.553
0.16,32045.5,35181.5,0.1899,0.4451,139.5,96.2,0.553
0.18,31972.6,35003.4,-0.1151,0.0068,139.5,96.2,0.553
0.2,32001.9,35007.0,0.0074,0.0156,139.5,96.2,0.553
0.22,31946.3,34840.2,-0.2253,-0.395,139.5,96.2,0.553
0.24,31882.3,34839.8,-0.493,-0.3959,139.5,96.2,0.553
0.26,31842.3,34690.2,-0.6605,-0.764,139.5,96.2,0.553
0.28,31848.8,34599.0,-0.6332,-0.9887,139.5,96.2,0.553
0.3,31871.4,34734.9,-0.5388,-0.6542,139.5,96.2,0.553
0.32,31806.9,34599.8,-0.8088,-0.9867,139.5,96.2,0.553
0.34,31827.0,34510.7,-0.7248,-1.2058,139.5,96.2,0.553
0.36,31707.1,34452.6,-1.2263,-1.349,139.5,96.2,0.553
0.38,31790.0,34507.7,-0.8793,-1.2132,139.5,96.2,0.553
0.4,31819.5,34698.5,-0.7558,-0.7437,139.5,96.2,0.553
0.42,32001.9,35019.4,0.0077,0.0461,139.5,96.2,0.553
0.44,32194.7,35334.2,0.8144,0.8207,139.5,96.2,0.553
0.46,32379.6,35637.9,1.5884,1.5684,139.5,96.2,0.553
0.48,32409.7,35681.9,1.7147,1.6766,139.5,96.2,0.553
0.5,32311.4,35699.6,1.303,1.7201,139.5,96.2,0.553
0.52,32183.2,35555.0,0.7663,1.3643,139.5,96.2,0.553
0.54,32263.0,35387.9,1.1003,0.9531,139.5,96.2,0.553
0.56,32044.5,35193.1,0.1859,0.4736,139.5,96.2,0.553
0.58,32024.7,35139.9,0.103,0.3427,139.5,96.2,0.553
0.6,32061.5,34948.6,0.2571,-0.1282,139.5,96.2,0.553
0.62,31952.2,34936.1,-0.2007,-0.1589,139.5,96.2,0.553
0.64,31778.7,34890.2,-0.9267,-0.2718,139.5,96.2,0.553
0.66,31871.4,34722.2,-0.5388,-0.6855,139.5,96.2,0.553
0.68,31833.3,34754.2,-0.6984,-0.6065,139.5,96.2,0.553
0.7,31816.4,34687.5,-0.7689,-0.7708,139.5,96.2,0.553
0.72,31836.3,34676.5,-0.6857,-0.7978,139.5,96.2,0.553
0.74,31834.2,34552.8,-0.6944,-1.1023,139.5,96.2,0.553
0.76,31701.1,34582.9,-1.2516,-1.0281,139.5,96.2,0.553
0.78,31773.1,34495.5,-0.9502,-1.2433,139.5,96.2,0.553
0.8,31745.2,34477.6,-1.0668,-1.2874,139.5,96.2,0.553
0.82,31804.5,34581.3,-0.8188,-1.0322,139.5,96.2,0.553
0.84,31910.7,34794.8,-0.3743,-0.5067,139.5,96.2,0.553
0.86,32192.9,35183.0,0.8068,0.4486,139.5,96.2,0.553
0.88,32151.8,35413.7,0.6348,1.0166,139.5,96.2,0.553
0.9,32292.1,35591.6,1.2223,1.4544,139.5,96.2,0.553
0.92,32401.1,35764.0,1.6784,1.8786,139.5,96.2,0.553
0.94,32172.4,35584.7,0.7213,1.4373,139.5,96.2,0.553
0.96,32295.5,35373.4,1.2363,0.9172,139.5,96.2,0.553
0.98,32103.9,35226.4,0.4345,0.5555,139.5,96.2,0.553
1.0,32152.4,35175.3,0.6376,0.4298,139.5,96.2,0.553
1.02,32053.8,35155.4,0.2246,0.3807,139.5,96.2,0.553
1.04,31993.2,34987.5,-0.0288,-0.0325,139.5,96.2,0.553
1.06,31915.9,34950.6,-0.3526,-0.1233,139.5,96.2,0.553
1.08,31984.3,34887.8,-0.0663,-0.2777,139.5,96.2,0.553
1.1,31927.8,34745.7,-0.3027,-0.6276,139.5,96.2,0.553
1.12,31811.5,34714.2,-0.7896,-0.7051,139.5,96.2,0.553
1.14,31837.8,34753.5,-0.6796,-0.6083,139.5,96.2,0.553
1.16,31799.3,34583.8,-0.8407,-1.0259,139.5,96.2,0.553
1.18,31764.4,34601.6,-0.9866,-0.9823,139.5,96.2,0.553
1.2,31760.0,34558.9,-1.0049,-1.0873,139.5,96.2,0.553
1.22,31683.6,34475.8,-1.3247,-1.2917,139.5,96.2,0.553
1.24,31771.4,34485.2,-0.9574,-1.2688,139.5,96.2,0.553
1.26,31857.2,34725.2,-0.5983,-0.678,139.5,96.2,0.553
1.28,31996.0,35010.9,-0.0172,0.0253,139.5,96.2,0.553
1.3,32092.9,35371.8,0.3883,0.9134,139.5,96.2,0.553
1.32,32350.1,35557.0,1.4648,1.3691,139.5,96.2,0.553
1.34,32338.5,35757.4,1.4163,1.8623,139.5,96.2,0.553
1.36,32373.2,35701.7,1.5618,1.7252,139.5,96.2,0.553
1.38,32188.3,35471.0,0.7878,1.1576,139.5,96.2,0.553
1.4,32183.3,35319.9,0.7668,0.7856,139.5,96.2,0.553
1.42,32122.1,35205.6,0.5105,0.5044,139.5,96.2,0.553
1.44,32090.6,35141.4,0.3789,0.3462,139.5,96.2,0.553
1.46,31981.8,35167.0,-0.0768,0.4094,139.5,96.2,0.553
1.48,31993.5,35020.3,-0.0276,0.0482,139.5,96.2,0.553
1.5,31945.0,34925.7,-0.2308,-0.1846,139.5,96.2,0.553
1.52,31859.8,34840.5,-0.5871,-0.3942,139.5,96.2,0.553
1.54,31873.2,34693.4,-0.5312,-0.7562,139.5,96.2,0.553
1.56,31864.8,34677.5,-0.5664,-0.7955,139.5,96.2,0.553
1.58,31803.2,34641.2,-0.8243,-0.8847,139.5,96.2,0.553
1.6,31877.9,34751.4,-0.5115,-0.6136,139.5,96.2,0.553
1.62,31700.1,34600.4,-1.256,-0.985,139.5,96.2,0.553
1.64,31761.3,34446.8,-0.9997,-1.3631,139.5,96.2,0.553
1.66,31752.5,34479.2,-1.0363,-1.2835,139.5,96.2,0.553
1.68,31692.8,34586.6,-1.2862,-1.0192,139.5,96.2,0.553
1.7,32001.6,34775.8,0.0062,-0.5536,139.5,96.2,0.553
1.72,32137.3,35237.2,0.5743,0.5821,139.5,96.2,0.553
1.74,32310.7,35531.0,1.3,1.3053,139.5,96.2,0.553
1.76,32272.9,35666.4,1.142,1.6384,139.5,96.2,0.553
1.78,32448.2,35718.8,1.8755,1.7675,139.5,96.2,0.553
1.8,32300.2,35579.7,1.256,1.425,139.5,96.2,0.553
1.82,32199.7,35505.9,0.8353,1.2434,139.5,96.2,0.553
1.84,32117.4,35292.0,0.4909,0.7169,139.5,96.2,0.553
1.86,32064.1,35175.4,0.2677,0.43,139.5,96.2,0.553
1.88,32008.0,35145.7,0.0332,0.357,139.5,96.2,0.553
1.9,32039.5,35001.0,0.1648,0.0007,139.5,96.2,0.553
1.92,31892.4,34954.7,-0.451,-0.1132,139.5,96.2,0.553
1.94,32028.2,34838.9,0.1177,-0.3982,139.5,96.2,0.553
1.96,31828.0,34763.1,-0.7206,-0.5847,139.5,96.2,0.553
1.98,31850.2,34700.9,-0.6275,-0.7378,139.5,96.2,0.553
2.0,31883.8,34591.7,-0.487,-1.0064,139.5,96.2,0.553
2.02,31850.2,34752.7,-0.6274,-0.6103,139.5,96.2,0.553
2.04,31808.9,34537.1,-0.8004,-1.141,139.5,96.2,0.553
2.06,31694.9,34507.3,-1.2776,-1.2143,139.5,96.2,0.553
2.08,31698.5,34531.0,-1.2626,-1.1559,139.5,96.2,0.553
2.1,31723.0,34430.9,-1.16,-1.4022,139.5,96.2,0.553
2.12,31844.6,34512.4,-0.6509,-1.2018,139.5,96.2,0.553
2.14,32013.2,34979.2,0.0548,-0.0528,139.5,96.2,0.553
2.16,32129.6,35287.9,0.5421,0.7069,139.5,96.2,0.553
2.18,32381.3,35651.2,1.5958,1.6011,139.5,96.2,0.553
2.2,32336.0,35764.1,1.4058,1.879,139.5,96.2,0.553
2.22,32439.8,35723.0,1.8403,1.7778,139.5,96.2,0.553
2.24,32205.2,35576.9,0.8584,1.4182,139.5,96.2,0.553
2.26,32087.6,35364.7,0.3661,0.8959,139.5,96.2,0.553
2.28,32125.7,35081.8,0.5257,0.1996,139.5,96.2,0.553
2.3,32099.4,35080.3,0.4157,0.1958,139.5,96.2,0.553
2.32,31998.9,35007.0,-0.0049,0.0156,139.5,96.2,0.553
2.34,31980.0,35069.6,-0.0843,0.1696,139.5,96.2,0.553
2.36,31897.3,34899.2,-0.4302,-0.2497,139.5,96.2,0.553
2.38,31857.3,34774.4,-0.5978,-0.557,139.5,96.2,0.553
2.4,31912.1,34691.7,-0.3682,-0.7604,139.5,96.2,0.553
2.42,31750.1,34696.2,-1.0463,-0.7494,139.5,96.2,0.553
2.44,31864.1,34673.7,-0.5693,-0.8047,139.5,96.2,0.553
2.46,31778.1,34634.1,-0.9292,-0.9021,139.5,96.2,0.553
2.48,31848.2,34543.9,-0.6357,-1.1242,139.5,96.2,0.553
2.5,31759.1,34534.0,-1.009,-1.1486,139.5,96.2,0.553
2.52,31719.3,34373.6,-1.1755,-1.5432,139.5,96.2,0.553
2.54,31740.4,34512.4,-1.0873,-1.2017,139.5,96.2,0.553
2.56,31975.2,34847.1,-0.1044,-0.3781,139.5,96.2,0.553
2.58,32049.0,35239.1,0.2048,0.5867,139.5,96.2,0.553
2.6,32206.8,35501.6,0.8653,1.233,139.5,96.2,0.553
2.62,32339.2,35650.9,1.4194,1.6004,139.5,96.2,0.553
2.64,32384.9,35774.1,1.6108,1.9034,139.5,96.2,0.553
2.66,32375.4,35660.4,1.5709,1.6238,139.5,96.2,0.553
2.68,32267.1,35342.5,1.1175,0.8414,139.5,96.2,0.553
2.7,32194.5,35230.7,0.8138,0.5662,139.5,96.2,0.553
2.72,32006.8,35054.6,0.028,0.1327,139.5,96.2,0.553
2.74,32067.7,35121.6,0.283,0.2976,139.5,96.2,0.553
2.76,32038.6,35079.9,0.1613,0.1951,139.5,96.2,0.553
2.78,31994.6,34953.3,-0.0231,-0.1166,139.5,96.2,0.553
2.8,31917.6,34834.4,-0.3453,-0.4092,139.5,96.2,0.553
2.82,31821.3,34850.6,-0.7486,-0.3693,139.5,96.2,0.553
2.84,31863.9,34597.9,-0.5701,-0.9912,139.5,96.2,0.553
2.86,31913.2,34664.3,-0.3637,-0.8279,139.5,96.2,0.553
2.88,31798.1,34701.6,-0.8454,-0.7361,139.5,96.2,0.553
2.9,31797.9,34619.8,-0.8464,-0.9374,139.5,96.2,0.553
2.92,31794.4,34598.8,-0.8609,-0.989,139.5,96.2,0.553
2.94,31801.3,34519.6,-0.8322,-1.1841,139.5,96.2,0.553
2.96,31770.7,34474.3,-0.9603,-1.2954,139.5,96.2,0.553
2.98,31862.0,34648.2,-0.5782,-0.8676,139.5,96.2,0.553
3.0,31969.1,34978.9,-0.1298,-0.0535,139.5,96.2,0.553
3.02,32203.1,35407.3,0.8495,1.0007,139.5,96.2,0.553
3.04,32305.8,35595.9,1.2797,1.4649,139.5,96.2,0.553
3.06,32425.9,35662.2,1.7823,1.6281,139.5,96.2,0.553
3.08,32352.2,35809.1,1.474,1.9897,139.5,96.2,0.553
3.1,32263.6,35507.8,1.103,1.248,139.5,96.2,0.553
3.12,32199.1,35241.8,0.833,0.5936,139.5,96.2,0.553
3.14,31986.2,35210.3,-0.0584,0.516,139.5,96.2,0.553
3.16,32038.4,35038.3,0.1602,0.0925,139.5,96.2,0.553
3.18,32045.1,35086.2,0.1882,0.2104,139.5,96.2,0.553
3.2,32146.2,35003.8,0.6115,0.0077,139.5,96.2,0.553
3.22,31935.2,34911.0,-0.2716,-0.2207,139.5,96.2,0.553
3.24,31885.3,34872.0,-0.4806,-0.3166,139.5,96.2,0.553
3.26,31951.1,34699.5,-0.205,-0.7413,139.5,96.2,0.553
3.28,31818.0,34765.4,-0.7624,-0.579,139.5,96.2,0.553
3.3,31844.4,34589.2,-0.6517,-1.0128,139.5,96.2,0.553
3.32,31806.9,34680.1,-0.8088,-0.7891,139.5,96.2,0.553
3.34,31736.8,34430.5,-1.1021,-1.4033,139.5,96.2,0.553
3.36,31772.7,34507.0,-0.9519,-1.2151,139.5,96.2,0.553
3.38,31712.4,34504.3,-1.2043,-1.2216,139.5,96.2,0.553
3.4,31710.2,34480.0,-1.2136,-1.2815,139.5,96.2,0.553
3.42,31880.8,34705.0,-0.4994,-0.7278,139.5,96.2,0.553
3.44,32107.7,35152.2,0.4503,0.373,139.5,96.2,0.553
3.46,32298.7,35422.3,1.25,1.0377,139.5,96.2,0.553
3.48,32341.3,35706.2,1.4283,1.7364,139.5,96.2,0.553
3.5,32424.2,35738.3,1.775,1.8154,139.5,96.2,0.553
3.52,32381.6,35669.4,1.5968,1.6457,139.5,96.2,0.553
3.54,32364.5,35499.8,1.5253,1.2283,139.5,96.2,0.553
3.56,32173.8,35313.9,0.7272,0.7708,139.5,96.2,0.553
3.58,32098.0,35139.0,0.4097,0.3405,139.5,96.2,0.553
3.6,32019.9,35115.4,0.0829,0.2823,139.5,96.2,0.553
3.62,31934.4,34939.1,-0.2752,-0.1516,139.5,96.2,0.553
3.64,31983.2,34962.5,-0.0708,-0.0938,139.5,96.2,0.553
3.66,31942.6,34910.9,-0.2408,-0.2209,139.5,96.2,0.553
3.68,31820.4,34779.1,-0.7522,-0.5452,139.5,96.2,0.553
3.7,31836.3,34734.9,-0.6856,-0.654,139.5,96.2,0.553
3.72,31827.3,34735.2,-0.7233,-0.6535,139.5,96.2,0.553
3.74,31822.5,34664.6,-0.7434,-0.8272,139.5,96.2,0.553
3.76,31768.6,34652.6,-0.969,-0.8567,139.5,96.2,0.553
3.78,31793.6,34515.5,-0.8645,-1.1941,139.5,96.2,0.553
3.8,31739.0,34415.0,-1.093,-1.4415,139.5,96.2,0.553
3.82,31701.1,34472.7,-1.2514,-1.2993,139.5,96.2,0.553
3.84,31892.8,34701.1,-0.4492,-0.7374,139.5,96.2,0.553
3.86,31964.3,34952.6,-0.1497,-0.1184,139.5,96.2,0.553
3.88,32127.3,35272.9,0.5326,0.67,139.5,96.2,0.553
3.9,32252.2,35662.6,1.0552,1.6291,139.5,96.2,0.553
3.92,32392.4,35779.4,1.6419,1.9166,139.5,96.2,0.553
3.94,32354.2,35695.8,1.4821,1.7108,139.5,96.2,0.553
3.96,32289.3,35500.6,1.2103,1.2304,139.5,96.2,0.553
3.98,32146.3,35323.9,0.6117,0.7956,139.5,96.2,0.553
4.0,32063.2,35235.6,0.2642,0.5783,139.5,96.2,0.553
4.02,32041.1,35115.0,0.1714,0.2813,139.5,96.2,0.553
4.04,31966.6,35169.0,-0.1402,0.4142,139.5,96.2,0.553
4.06,32018.5,35026.0,0.0769,0.0623,139.5,96.2,0.553
4.08,31976.5,34967.8,-0.0988,-0.081,139.5,96.2,0.553
4.1,31901.0,34803.6,-0.4151,-0.4851,139.5,96.2,0.553
4.12,31954.3,34640.7,-0.1918,-0.8859,139.5,96.2,0.553
4.14,31777.6,34735.6,-0.9315,-0.6525,139.5,96.2,0.553
4.16,31834.4,34612.3,-0.6935,-0.9557,139.5,96.2,0.553
4.18,31725.5,34588.6,-1.1495,-1.0141,139.5,96.2,0.553
4.2,31821.7,34535.5,-0.7468,-1.1448,139.5,96.2,0.553
4.22,31709.1,34543.6,-1.2183,-1.125,139.5,96.2,0.553
4.24,31739.3,34316.5,-1.0915,-1.684,139.5,96.2,0.553
4.26,31820.1,34558.8,-0.7534,-1.0876,139.5,96.2,0.553
4.28,31801.0,34814.7,-0.8334,-0.4577,139.5,96.2,0.553
4.3,32037.0,35098.1,0.1546,0.2398,139.5,96.2,0.553
4.32,32252.1,35505.9,1.055,1.2433,139.5,96.2,0.553
4.34,32408.8,35763.7,1.7108,1.8779,139.5,96.2,0.553
4.36,32263.8,35746.9,1.1038,1.8366,139.5,96.2,0.553
4.38,32339.8,35616.2,1.4219,1.5149,139.5,96.2,0.553
4.4,32223.8,35418.5,0.9362,1.0283,139.5,96.2,0.553
4.42,32084.7,35321.1,0.3541,0.7887,139.5,96.2,0.553
4.44,31999.4,35116.6,-0.0032,0.2854,139.5,96.2,0.553
4.46,32044.0,35095.6,0.1839,0.2335,139.5,96.2,0.553
4.48,31944.4,35029.8,-0.2333,0.0716,139.5,96.2,0.553
4.5,31998.0,34930.5,-0.0088,-0.1728,139.5,96.2,0.553
4.52,31871.8,34828.8,-0.537,-0.4231,139.5,96.2,0.553
4.54,31836.8,34749.9,-0.6835,-0.6173,139.5,96.2,0.553
4.56,31881.5,34691.4,-0.4966,-0.7613,139.5,96.2,0.553
4.58,31839.7,34721.5,-0.6716,-0.687,139.5,96.2,0.553
4.6,31779.0,34678.2,-0.9256,-0.7936,139.5,96.2,0.553
4.62,31771.7,34631.6,-0.9561,-0.9082,139.5,96.2,0.553
4.64,31777.6,34463.3,-0.9315,-1.3225,139.5,96.2,0.553
4.66,31814.2,34431.4,-0.7783,-1.4012,139.5,96.2,0.553
4.68,31738.8,34496.2,-1.0938,-1.2416,139.5,96.2,0.553
4.7,31879.6,34695.9,-0.5046,-0.7502,139.5,96.2,0.553
4.72,32019.4,34957.2,0.0808,-0.1071,139.5,96.2,0.553
4.74,32087.4,35243.0,0.3654,0.5965,139.5,96.2,0.553
4.76,32261.4,35621.7,1.0936,1.5285,139.5,96.2,0.553
4.78,32388.6,35708.1,1.6261,1.741,139.5,96.2,0.553
4.8,32253.7,35748.8,1.0613,1.8412,139.5,96.2,0.553
4.82,32273.0,35621.6,1.1424,1.5282,139.5,96.2,0.553
4.84,32174.5,35339.3,0.7298,0.8334,139.5,96.2,0.553
4.86,32111.4,35224.6,0.4656,0.5511,139.5,96.2,0.553
4.88,32118.0,35147.9,0.4934,0.3622,139.5,96.2,0.553
4.9,31947.1,35109.4,-0.222,0.2676,139.5,96.2,0.553
4.92,32024.5,35047.6,0.1021,0.1155,139.5,96.2,0.553
4.94,32023.5,34879.3,0.0978,-0.2988,139.5,96.2,0.553
4.96,31918.3,34837.6,-0.3425,-0.4013,139.5,96.2,0.553
4.98,31831.6,34629.4,-0.7052,-0.9137,139.5,96.2,0.553
5.0,31889.6,34717.4,-0.4627,-0.6971,139.5,96.2,0.553
5.02,31837.3,34639.6,-0.6814,-0.8887,139.5,96.2,0.553
5.04,31745.5,34595.8,-1.0658,-0.9964,139.5,96.2,0.553
5.06,31815.4,34529.7,-0.7733,-1.159,139.5,96.2,0.553
5.08,31647.8,34559.1,-1.4746,-1.0867,139.5,96.2,0.553
5.1,31833.5,34349.0,-0.6973,-1.6039,139.5,96.2,0.553
5.12,31855.7,34648.2,-0.6045,-0.8676,139.5,96.2,0.553
5.14,31877.9,34653.0,-0.5115,-0.8556,139.5,96.2,0.553
5.16,31978.9,35158.1,-0.089,0.3874,139.5,96.2,0.553
5.18,32209.3,35476.1,0.8757,1.1702,139.5,96.2,0.553
5.2,32339.3,35680.7,1.4199,1.6737,139.5,96.2,0.553
5.22,32387.8,35746.3,1.6228,1.835,139.5,96.2,0.553
5.24,32333.8,35649.9,1.3968,1.5977,139.5,96.2,0.553
5.26,32240.2,35490.7,1.005,1.206,139.5,96.2,0.553
5.28,32099.8,35279.0,0.4174,0.685,139.5,96.2,0.553
5.3,32142.2,35211.3,0.5947,0.5185,139.5,96.2,0.553
5.32,32074.0,35066.5,0.3093,0.162,139.5,96.2,0.553
5.34,31973.7,35016.9,-0.1103,0.04,139.5,96.2,0.553
5.36,31936.7,34983.6,-0.2655,-0.0421,139.5,96.2,0.553
5.38,31870.4,34896.0,-0.5431,-0.2576,139.5,96.2,0.553
5.4,31915.4,34726.4,-0.3546,-0.6751,139.5,96.2,0.553
5.42,31814.5,34690.0,-0.7771,-0.7647,139.5,96.2,0.553
5.44,31770.0,34707.8,-0.9631,-0.7209,139.5,96.2,0.553
5.46,31838.3,34732.0,-0.6774,-0.6613,139.5,96.2,0.553
5.48,31756.0,34530.6,-1.0218,-1.1569,139.5,96.2,0.553
5.5,31766.3,34478.6,-0.9787,-1.2848,139.5,96.2,0.553
5.52,31693.5,34478.3,-1.2835,-1.2855,139.5,96.2,0.553
5.54,31714.7,34443.7,-1.1947,-1.3708,139.5,96.2,0.553
5.56,31749.3,34626.1,-1.0497,-0.9218,139.5,96.2,0.553
5.58,32057.0,34995.1,0.238,-0.0138,139.5,96.2,0.553
5.6,32208.6,35247.1,0.8729,0.6064,139.5,96.2,0.553
5.62,32323.5,35606.6,1.3535,1.4914,139.5,96.2,0.553
5.64,32417.1,35776.1,1.7456,1.9084,139.5,96.2,0.553
5.66,32402.9,35661.0,1.6861,1.6252,139.5,96.2,0.553
5.68,32226.1,35587.7,0.9459,1.4449,139.5,96.2,0.553
5.7,32174.7,35312.5,0.7308,0.7675,139.5,96.2,0.553
5.72,32077.8,35280.0,0.3252,0.6874,139.5,96.2,0.553
5.74,31998.1,35168.6,-0.0083,0.4134,139.5,96.2,0.553
5.76,32056.7,35018.6,0.237,0.0442,139.5,96.2,0.553
5.78,31998.4,35025.2,-0.0073,0.0604,139.5,96.2,0.553
5.8,31955.3,35027.0,-0.1874,0.0649,139.5,96.2,0.553
5.82,31757.2,34873.6,-1.0166,-0.3126,139.5,96.2,0.553
5.84,31904.1,34755.2,-0.4019,-0.6041,139.5,96.2,0.553
5.86,31892.7,34640.5,-0.4496,-0.8865,139.5,96.2,0.553
5.88,31822.3,34617.6,-0.7443,-0.9428,139.5,96.2,0.553
5.9,31877.3,34651.4,-0.514,-0.8595,139.5,96.2,0.553
5.92,31841.7,34574.6,-0.6632,-1.0487,139.5,96.2,0.553
5.94,31727.0,34617.9,-1.1432,-0.942,139.5,96.2,0.553
5.96,31642.6,34360.8,-1.4966,-1.5748,139.5,96.2,0.553
5.98,31735.4,34524.0,-1.1082,-1.1732,139.5,96.2,0.553
6.0,31808.4,34770.5,-0.8024,-0.5665,139.5,96.2,0.553
6.02,32142.6,35231.8,0.5962,0.5689,139.5,96.2,0.553
6.04,32245.6,35548.0,1.0274,1.347,139.5,96.2,0.553
6.06,32270.7,35687.9,1.1324,1.6914,139.5,96.2,0.553
6.08,32460.6,35712.7,1.9273,1.7524,139.5,96.2,0.553
6.1,32325.6,35589.6,1.3626,1.4495,139.5,96.2,0.553
6.12,32148.6,35411.5,0.6214,1.0111,139.5,96.2,0.553
6.14,32068.2,35302.9,0.2848,0.7439,139.5,96.2,0.553
6.16,32094.5,35149.6,0.3951,0.3665,139.5,96.2,0.553
6.18,32136.5,35059.9,0.571,0.1457,139.5,96.2,0.553
6.2,32054.6,35071.9,0.2283,0.1754,139.5,96.2,0.553
6.22,32011.8,34923.7,0.0491,-0.1894,139.5,96.2,0.553
6.24,31910.6,34787.1,-0.3745,-0.5256,139.5,96.2,0.553
6.26,31799.8,34744.1,-0.8385,-0.6315,139.5,96.2,0.553
6.28,31886.6,34736.1,-0.4752,-0.6511,139.5,96.2,0.553
6.3,31892.2,34734.6,-0.4518,-0.6547,139.5,96.2,0.553
6.32,31848.5,34680.0,-0.6346,-0.7892,139.5,96.2,0.553
6.34,31786.3,34628.7,-0.8949,-0.9154,139.5,96.2,0.553
6.36,31822.0,34405.5,-0.7457,-1.4648,139.5,96.2,0.553
6.38,31650.9,34472.6,-1.4617,-1.2997,139.5,96.2,0.553
6.4,31717.2,34394.9,-1.1842,-1.4909,139.5,96.2,0.553
6.42,31710.4,34645.7,-1.2127,-0.8736,139.5,96.2,0.553
6.44,31957.7,34990.4,-0.1775,-0.0253,139.5,96.2,0.553
6.46,32199.2,35373.7,0.8333,0.9181,139.5,96.2,0.553
6.48,32220.1,35650.9,0.9209,1.6002,139.5,96.2,0.553
6.5,32413.8,35729.7,1.7318,1.7941,139.5,96.2,0.553
6.52,32333.7,35776.9,1.3962,1.9103,139.5,96.2,0.553
6.54,32345.8,35558.5,1.447,1.373,139.5,96.2,0.553
6.56,32192.8,35341.9,0.8068,0.8399,139.5,96.2,0.553
6.58,32063.8,35184.0,0.2666,0.4512,139.5,96.2,0.553
6.6,32052.2,35108.7,0.2181,0.2659,139.5,96.2,0.553
6.62,32029.6,35088.9,0.1235,0.2171,139.5,96.2,0.553
6.64,32006.4,35058.3,0.0262,0.1417,139.5,96.2,0.553
6.66,31901.5,34914.9,-0.4129,-0.211,139.5,96.2,0.553
6.68,31840.9,34776.0,-0.6664,-0.5528,139.5,96.2,0.553
6.7,31856.4,34677.9,-0.6016,-0.7943,139.5,96.2,0.553
6.72,31865.0,34766.4,-0.5653,-0.5766,139.5,96.2,0.553
6.74,31740.3,34593.0,-1.0877,-1.0033,139.5,96.2,0.553
6.76,31821.8,34662.0,-0.7462,-0.8336,139.5,96.2,0.553
6.78,31808.3,34533.7,-0.8031,-1.1492,139.5,96.2,0.553
6.8,31738.7,34577.8,-1.0942,-1.0407,139.5,96.2,0.553
6.82,31693.5,34433.3,-1.2833,-1.3963,139.5,96.2,0.553
6.84,31751.0,34557.9,-1.0428,-1.0898,139.5,96.2,0.553
6.86,31865.9,34820.3,-0.5616,-0.4438,139.5,96.2,0.553
6.88,32131.1,34964.5,0.5483,-0.0889,139.5,96.2,0.553
6.9,32220.6,35482.5,0.9228,1.1858,139.5,96.2,0.553
6.92,32405.9,35770.7,1.6985,1.895,139.5,96.2,0.553
6.94,32371.7,35870.2,1.5555,2.1401,139.5,96.2,0.553
6.96,32267.9,35653.8,1.1209,1.6074,139.5,96.2,0.553
6.98,32313.0,35475.8,1.3097,1.1692,139.5,96.2,0.553
7.0,32135.7,35245.7,0.5674,0.6029,139.5,96.2,0.553
7.02,32100.4,35174.3,0.4196,0.4274,139.5,96.2,0.553
7.04,31971.9,35106.8,-0.1182,0.2612,139.5,96.2,0.553
7.06,32021.3,35044.7,0.0887,0.1083,139.5,96.2,0.553
7.08,31992.0,34947.1,-0.0339,-0.1319,139.5,96.2,0.553
7.1,31966.0,34850.5,-0.1426,-0.3697,139.5,96.2,0.553
7.12,31817.2,34878.0,-0.7655,-0.302,139.5,96.2,0.553
7.14,31889.0,34671.8,-0.4649,-0.8093,139.5,96.2,0.553
7.16,31793.1,34679.3,-0.8666,-0.791,139.5,96.2,0.553
7.18,31838.9,34635.8,-0.675,-0.898,139.5,96.2,0.553
7.2,31768.0,34621.7,-0.9716,-0.9328,139.5,96.2,0.553
7.22,31813.5,34402.0,-0.7812,-1.4733,139.5,96.2,0.553
7.24,31758.1,34486.8,-1.0129,-1.2648,139.5,96.2,0.553
7.26,31749.4,34527.1,-1.0495,-1.1654,139.5,96.2,0.553
7.28,31779.6,34622.2,-0.9231,-0.9315,139.5,96.2,0.553
7.3,32033.2,34860.5,0.1387,-0.345,139.5,96.2,0.553
7.32,32163.1,35338.1,0.6823,0.8305,139.5,96.2,0.553
7.34,32272.2,35528.9,1.139,1.3,139.5,96.2,0.553
7.36,32355.0,35696.2,1.4856,1.7117,139.5,96.2,0.553
7.38,32370.0,35712.5,1.5483,1.7519,139.5,96.2,0.553
7.4,32328.6,35537.1,1.3751,1.3202,139.5,96.2,0.553
7.42,32145.7,35330.3,0.6093,0.8113,139.5,96.2,0.553
7.44,32036.8,35155.3,0.1534,0.3804,139.5,96.2,0.553
7.46,32097.7,35158.9,0.4085,0.3894,139.5,96.2,0.553
7.48,32019.6,35041.8,0.0815,0.1012,139.5,96.2,0.553
7.5,31937.2,35068.4,-0.2634,0.1666,139.5,96.2,0.553
7.52,31894.7,34964.9,-0.4413,-0.088,139.5,96.2,0.553
7.54,31871.8,34767.4,-0.5372,-0.5742,139.5,96.2,0.553
7.56,31890.1,34645.8,-0.4604,-0.8735,139.5,96.2,0.553
7.58,31855.3,34731.1,-0.6061,-0.6636,139.5,96.2,0.553
7.6,31814.0,34674.7,-0.7791,-0.8023,139.5,96.2,0.553
7.62,31784.6,34729.6,-0.902,-0.6671,139.5,96.2,0.553
7.64,31760.9,34521.7,-1.0012,-1.1788,139.5,96.2,0.553
7.66,31765.9,34444.3,-0.9802,-1.3692,139.5,96.2,0.553
7.68,31707.9,34491.4,-1.2233,-1.2535,139.5,96.2,0.553
7.7,31742.9,34500.0,-1.0765,-1.2323,139.5,96.2,0.553
7.72,31793.8,34676.2,-0.8638,-0.7985,139.5,96.2,0.553
7.74,32031.9,35186.3,0.133,0.4569,139.5,96.2,0.553
7.76,32276.6,35470.2,1.1574,1.1557,139.5,96.2,0.553
7.78,32399.7,35733.4,1.6726,1.8034,139.5,96.2,0.553
7.8,32406.4,35788.6,1.7007,1.9393,139.5,96.2,0.553
7.82,32335.5,35683.7,1.404,1.681,139.5,96.2,0.553
7.84,32164.8,35373.2,0.6894,0.9169,139.5,96.2,0.553
7.86,32119.8,35319.1,0.5009,0.7837,139.5,96.2,0.553
7.88,32054.1,35136.9,0.2262,0.3353,139.5,96.2,0.553
7.9,32038.5,35146.7,0.1606,0.3593,139.5,96.2,0.553
7.92,32034.3,35141.3,0.143,0.3462,139.5,96.2,0.553
7.94,31904.1,34939.5,-0.4021,-0.1505,139.5,96.2,0.553
7.96,31950.9,34890.9,-0.2059,-0.2702,139.5,96.2,0.553
7.98,31869.4,34682.2,-0.547,-0.7837,139.5,96.2,0.553
8.0,31928.1,34677.2,-0.3016,-0.7961,139.5,96.2,0.553
8.02,31867.8,34635.4,-0.5536,-0.8989,139.5,96.2,0.553
8.04,31800.6,34623.8,-0.8353,-0.9276,139.5,96.2,0.553
8.06,31771.1,34703.3,-0.9587,-0.7319,139.5,96.2,0.553
8.08,31749.2,34574.7,-1.0502,-1.0483,139.5,96.2,0.553
8.1,31806.5,34414.5,-0.8104,-1.4427,139.5,96.2,0.553
8.12,31735.7,34569.0,-1.1066,-1.0624,139.5,96.2,0.553
8.14,31821.4,34603.4,-0.7479,-0.9778,139.5,96.2,0.553
8.16,32014.0,34909.9,0.0581,-0.2234,139.5,96.2,0.553
8.18,32069.9,35375.6,0.2922,0.9228,139.5,96.2,0.553
8.2,32366.0,35574.4,1.5315,1.4119,139.5,96.2,0.553
8.22,32374.9,35819.0,1.5686,2.0141,139.5,96.2,0.553
8.24,32351.5,35708.5,1.4708,1.7421,139.5,96.2,0.553
8.26,32238.2,35623.2,0.9968,1.5322,139.5,96.2,0.553
8.28,32092.8,35406.1,0.3878,0.9979,139.5,96.2,0.553
8.3,32074.4,35249.0,0.3108,0.6111,139.5,96.2,0.553
8.32,32021.6,35196.5,0.09,0.4819,139.5,96.2,0.553
8.34,32108.6,35070.8,0.4543,0.1727,139.5,96.2,0.553
8.36,32042.9,34925.8,0.1792,-0.1843,139.5,96.2,0.553
8.38,31978.3,34921.7,-0.0915,-0.1944,139.5,96.2,0.553
8.4,31901.9,34806.4,-0.4111,-0.4781,139.5,96.2,0.553
8.42,31848.5,34715.5,-0.6346,-0.7019,139.5,96.2,0.553
8.44,31929.4,34706.2,-0.296,-0.7248,139.5,96.2,0.553
8.46,31872.4,34608.0,-0.5344,-0.9664,139.5,96.2,0.553
8.48,31818.5,34701.6,-0.76,-0.7362,139.5,96.2,0.553
8.5,31753.4,34607.7,-1.0328,-0.9672,139.5,96.2,0.553
8.52,31662.0,34442.0,-1.4153,-1.375,139.5,96.2,0.553
8.54,31652.9,34522.7,-1.4534,-1.1764,139.5,96.2,0.553
8.56,31834.7,34540.3,-0.6925,-1.1332,139.5,96.2,0.553
8.58,31895.0,34839.0,-0.4398,-0.398,139.5,96.2,0.553
8.6,32103.3,35153.5,0.4319,0.3762,139.5,96.2,0.553
8.62,32228.3,35505.0,0.9552,1.2413,139.5,96.2,0.553
8.64,32341.4,35680.8,1.4285,1.6738,139.5,96.2,0.553
8.66,32470.5,35764.6,1.9691,1.8801,139.5,96.2,0.553
8.68,32395.6,35701.0,1.6555,1.7236,139.5,96.2,0.553
8.7,32178.7,35348.1,0.7476,0.8551,139.5,96.2,0.553
8.72,32166.2,35291.7,0.6953,0.7164,139.5,96.2,0.553
8.74,32095.3,35254.1,0.3986,0.6236,139.5,96.2,0.553
8.76,31953.1,35067.2,-0.1969,0.1637,139.5,96.2,0.553
8.78,32117.4,35041.9,0.4909,0.1016,139.5,96.2,0.553
8.8,31968.2,34913.1,-0.1335,-0.2155,139.5,96.2,0.553
8.82,31938.3,34795.8,-0.2588,-0.5042,139.5,96.2,0.553
8.84,31889.9,34724.3,-0.4615,-0.6802,139.5,96.2,0.553
8.86,31807.6,34697.3,-0.8058,-0.7467,139.5,96.2,0.553
8.88,31826.1,34688.8,-0.7286,-0.7676,139.5,96.2,0.553
8.9,31782.3,34746.6,-0.9119,-0.6254,139.5,96.2,0.553
8.92,31908.2,34568.0,-0.3848,-1.0648,139.5,96.2,0.553
8.94,31724.8,34431.1,-1.1523,-1.4017,139.5,96.2,0.553
8.96,31656.5,34495.8,-1.4383,-1.2427,139.5,96.2,0.553
8.98,31688.8,34460.8,-1.3032,-1.3288,139.5,96.2,0.553
9.0,31796.7,34681.0,-0.8513,-0.7869,139.5,96.2,0.553
9.02,31962.5,34812.8,-0.1576,-0.4624,139.5,96.2,0.553
9.04,32183.6,35348.7,0.7682,0.8566,139.5,96.2,0.553
9.06,32309.1,35661.7,1.2933,1.6268,139.5,96.2,0.553
9.08,32346.2,35742.7,1.4486,1.8263,139.5,96.2,0.553
9.1,32351.5,35673.8,1.4707,1.6566,139.5,96.2,0.553
9.12,32278.6,35490.1,1.1657,1.2046,139.5,96.2,0.553
9.14,32192.0,35365.5,0.8033,0.898,139.5,96.2,0.553
9.16,32108.9,35146.7,0.4553,0.3593,139.5,96.2,0.553
9.18,32092.2,35177.4,0.3857,0.4348,139.5,96.2,0.553
9.2,32073.7,35047.6,0.3079,0.1154,139.5,96.2,0.553
9.22,32015.9,35031.9,0.066,0.0769,139.5,96.2,0.553
9.24,31944.9,34918.3,-0.2312,-0.2026,139.5,96.2,0.553
9.26,31932.5,34828.1,-0.283,-0.4248,139.5,96.2,0.553
9.28,31877.0,34764.1,-0.5152,-0.5821,139.5,96.2,0.553
9.3,31796.8,34628.6,-0.8509,-0.9158,139.5,96.2,0.553
9.32,31844.6,34670.7,-0.6508,-0.8121,139.5,96.2,0.553
9.34,31889.3,34621.5,-0.4639,-0.9332,139.5,96.2,0.553
9.36,31826.0,34583.4,-0.7289,-1.0269,139.5,96.2,0.553
9.38,31774.9,34429.3,-0.9429,-1.4062,139.5,96.2,0.553
9.4,31615.7,34376.9,-1.6093,-1.5352,139.5,96.2,0.553
9.42,31760.7,34563.3,-1.002,-1.0765,139.5,96.2,0.553
9.44,31948.4,34709.2,-0.2165,-0.7173,139.5,96.2,0.553
9.46,32053.7,35183.2,0.2245,0.4492,139.5,96.2,0.553
9.48,32221.6,35376.5,0.927,0.9249,139.5,96.2,0.553
9.5,32364.2,35736.8,1.5239,1.8117,139.5,96.2,0.553
9.52,32460.0,35762.8,1.9252,1.8758,139.5,96.2,0.553
9.54,32317.7,35641.4,1.3294,1.577,139.5,96.2,0.553
9.56,32287.9,35482.0,1.2047,1.1846,139.5,96.2,0.553
9.58,32145.5,35271.8,0.6085,0.6674,139.5,96.2,0.553
9.6,32057.4,35086.9,0.2399,0.2122,139.5,96.2,0.553
9.62,32106.1,35100.3,0.4435,0.2451,139.5,96.2,0.553
9.64,32007.0,35029.0,0.0289,0.0698,139.5,96.2,0.553
9.66,31946.1,34985.8,-0.2263,-0.0366,139.5,96.2,0.553
9.68,31933.9,34857.0,-0.2771,-0.3536,139.5,96.2,0.553
9.7,31893.0,34798.9,-0.4484,-0.4966,139.5,96.2,0.553
9.72,31825.6,34697.9,-0.7303,-0.7453,139.5,96.2,0.553
9.74,31802.0,34641.2,-0.8291,-0.8848,139.5,96.2,0.553
9.76,31856.0,34752.3,-0.6034,-0.6112,139.5,96.2,0.553
9.78,31791.8,34634.5,-0.8718,-0.9013,139.5,96.2,0.553
9.8,31681.9,34490.0,-1.3319,-1.2568,139.5,96.2,0.553
9.82,31683.7,34539.3,-1.3245,-1.1356,139.5,96.2,0.553
9.84,31692.9,34458.7,-1.2861,-1.3339,139.5,96.2,0.553
9.86,31767.6,34701.8,-0.9733,-0.7355,139.5,96.2,0.553
9.88,31980.0,34970.7,-0.0842,-0.0738,139.5,96.2,0.553
9.9,32114.8,35292.0,0.4799,0.717,139.5,96.2,0.553
9.92,32231.4,35691.0,0.9682,1.6989,139.5,96.2,0.553
9.94,32321.5,35713.2,1.3453,1.7536,139.5,96.2,0.553
9.96,32438.5,35747.8,1.8351,1.8388,139.5,96.2,0.553
9.98,32294.9,35590.1,1.234,1.4506,139.5,96.2,0.553
10.0,32217.5,35361.1,0.9099,0.887,139.5,96.2,0.553
10.02,32079.7,35199.7,0.333,0.4897,139.5,96.2,0.553
10.04,32001.9,35150.0,0.0075,0.3676,139.5,96.2,0.553
10.06,31885.8,35013.4,-0.4785,0.0314,139.5,96.2,0.553
10.08,31951.3,35140.6,-0.2045,0.3445,139.5,96.2,0.553
10.1,31911.1,34856.1,-0.3727,-0.3557,139.5,96.2,0.553
10.12,31906.4,34781.7,-0.3923,-0.539,139.5,96.2,0.553
10.14,31881.5,34727.8,-0.4964,-0.6716,139.5,96.2,0.553
10.16,31795.6,34571.6,-0.8559,-1.0559,139.5,96.2,0.553
10.18,31868.9,34682.0,-0.5491,-0.7844,139.5,96.2,0.553
10.2,31908.4,34701.8,-0.3839,-0.7357,139.5,96.2,0.553
10.22,31796.8,34577.1,-0.8509,-1.0425,139.5,96.2,0.553
10.24,31758.3,34495.5,-1.0124,-1.2433,139.5,96.2,0.553
10.26,31781.5,34448.4,-0.9152,-1.3593,139.5,96.2,0.553
10.28,31804.6,34460.7,-0.8183,-1.329,139.5,96.2,0.553
10.3,31899.5,34866.8,-0.4211,-0.3295,139.5,96.2,0.553
10.32,32070.9,35181.0,0.2963,0.4437,139.5,96.2,0.553
10.34,32255.1,35442.6,1.0673,1.0877,139.5,96.2,0.553
10.36,32382.0,35688.9,1.5986,1.6939,139.5,96.2,0.553
10.38,32429.2,35719.1,1.796,1.7683,139.5,96.2,0.553
10.4,32302.3,35631.0,1.2651,1.5514,139.5,96.2,0.553
10.42,32228.1,35452.3,0.9542,1.1116,139.5,96.2,0.553
10.44,32049.0,35201.7,0.2048,0.4947,139.5,96.2,0.553
10.46,32081.9,35264.3,0.3422,0.6489,139.5,96.2,0.553
10.48,31959.4,35234.0,-0.1704,0.5743,139.5,96.2,0.553
10.5,32030.8,35123.9,0.1283,0.3033,139.5,96.2,0.553
10.52,31952.1,35013.7,-0.2008,0.0321,139.5,96.2,0.553
10.54,31961.0,34859.2,-0.1637,-0.3481,139.5,96.2,0.553
10.56,31895.8,34787.9,-0.4368,-0.5236,139.5,96.2,0.553
10.58,31866.5,34721.9,-0.5591,-0.686,139.5,96.2,0.553
10.6,31757.9,34596.9,-1.0137,-0.9936,139.5,96.2,0.553
10.62,31790.4,34646.9,-0.8776,-0.8708,139.5,96.2,0.553
10.64,31800.8,34588.7,-0.8344,-1.0139,139.5,96.2,0.553
10.66,31748.7,34489.2,-1.0523,-1.2588,139.5,96.2,0.553
10.68,31723.6,34437.8,-1.1576,-1.3853,139.5,96.2,0.553
10.7,31692.2,34444.3,-1.289,-1.3692,139.5,96.2,0.553
10.72,31794.0,34650.7,-0.8628,-0.8612,139.5,96.2,0.553
10.74,31983.2,34868.0,-0.0706,-0.3266,139.5,96.2,0.553
10.76,32243.0,35247.3,1.0167,0.607,139.5,96.2,0.553
10.78,32280.5,35475.6,1.1737,1.1687,139.5,96.2,0.553
10.8,32421.7,35741.2,1.7645,1.8224,139.5,96.2,0.553
10.82,32374.0,35661.4,1.5652,1.6262,139.5,96.2,0.553
10.84,32147.5,35597.1,0.6171,1.468,139.5,96.2,0.553
10.86,32168.7,35451.2,0.7059,1.1089,139.5,96.2,0.553
10.88,32099.7,35185.5,0.417,0.4549,139.5,96.2,0.553
10.9,32107.3,35145.8,0.4487,0.3572,139.5,96.2,0.553
10.92,31941.9,35102.0,-0.2438,0.2494,139.5,96.2,0.553
10.94,32044.9,35064.6,0.1873,0.1572,139.5,96.2,0.553
10.96,32011.2,34965.4,0.0465,-0.0868,139.5,96.2,0.553
10.98,31889.0,34881.3,-0.4649,-0.2937,139.5,96.2,0.553
11.0,31916.9,34670.7,-0.3481,-0.8122,139.5,96.2,0.553
11.02,31833.7,34718.6,-0.6966,-0.6942,139.5,96.2,0.553
11.04,31861.3,34768.8,-0.5809,-0.5707,139.5,96.2,0.553
11.06,31850.7,34677.5,-0.6253,-0.7955,139.5,96.2,0.553
11.08,31761.2,34580.4,-1.0002,-1.0343,139.5,96.2,0.553
11.1,31778.5,34419.5,-0.9275,-1.4303,139.5,96.2,0.553
11.12,31789.3,34474.6,-0.8825,-1.2948,139.5,96.2,0.553
11.14,31798.6,34583.6,-0.8434,-1.0265,139.5,96.2,0.553
11.16,31930.5,34755.6,-0.2913,-0.603,139.5,96.2,0.553
11.18,31923.0,35109.0,-0.3226,0.2665,139.5,96.2,0.553
11.2,32242.7,35544.6,1.0156,1.3385,139.5,96.2,0.553
11.22,32400.1,35687.9,1.6744,1.6913,139.5,96.2,0.553
11.24,32341.4,35772.5,1.4287,1.8995,139.5,96.2,0.553
11.26,32377.9,35702.8,1.5812,1.728,139.5,96.2,0.553
11.28,32175.9,35393.1,0.736,0.9659,139.5,96.2,0.553
11.3,32089.6,35198.4,0.3748,0.4867,139.5,96.2,0.553
11.32,32145.1,35225.2,0.6071,0.5527,139.5,96.2,0.553
11.34,32035.3,35109.7,0.1474,0.2683,139.5,96.2,0.553
11.36,32138.6,35114.7,0.5795,0.2807,139.5,96.2,0.553
11.38,31921.0,34942.2,-0.3311,-0.1439,139.5,96.2,0.553
11.4,32010.6,34976.3,0.044,-0.0601,139.5,96.2,0.553
11.42,31820.2,34762.5,-0.7532,-0.5861,139.5,96.2,0.553
11.44,31868.1,34686.8,-0.5524,-0.7724,139.5,96.2,0.553
11.46,31774.8,34657.7,-0.943,-0.8442,139.5,96.2,0.553
11.48,31811.2,34637.9,-0.7906,-0.8929,139.5,96.2,0.553
11.5,31783.9,34503.6,-0.905,-1.2233,139.5,96.2,0.553
11.52,31793.4,34476.0,-0.8654,-1.2913,139.5,96.2,0.553
11.54,31675.9,34520.9,-1.3571,-1.1807,139.5,96.2,0.553
11.56,31626.7,34418.2,-1.5631,-1.4336,139.5,96.2,0.553
11.58,31834.2,34683.9,-0.6943,-0.7797,139.5,96.2,0.553
11.6,32079.7,35006.2,0.3333,0.0135,139.5,96.2,0.553
11.62,32192.1,35256.1,0.8037,0.6286,139.5,96.2,0.553
11.64,32364.6,35539.5,1.5257,1.3261,139.5,96.2,0.553
11.66,32341.6,35852.9,1.4292,2.0973,139.5,96.2,0.553
11.68,32337.7,35723.0,1.4132,1.7778,139.5,96.2,0.553
11.7,32327.3,35582.4,1.3695,1.4317,139.5,96.2,0.553
11.72,32246.7,35309.6,1.0323,0.7602,139.5,96.2,0.553
11.74,32187.9,35285.9,0.7863,0.7019,139.5,96.2,0.553
11.76,32062.2,35073.8,0.26,0.1801,139.5,96.2,0.553
11.78,32158.1,35107.8,0.6613,0.2637,139.5,96.2,0.553
11.8,31990.5,35001.0,-0.0403,0.0008,139.5,96.2,0.553
11.82,31959.8,34943.8,-0.1689,-0.1399,139.5,96.2,0.553
11.84,31887.7,34850.8,-0.4705,-0.3689,139.5,96.2,0.553
11.86,31851.8,34771.6,-0.6208,-0.5637,139.5,96.2,0.553
11.88,31727.0,34665.5,-1.1433,-0.825,139.5,96.2,0.553
11.9,31864.6,34678.0,-0.567,-0.7942,139.5,96.2,0.553
11.92,31792.0,34688.3,-0.8712,-0.7687,139.5,96.2,0.553
11.94,31856.2,34612.2,-0.6023,-0.9562,139.5,96.2,0.553
11.96,31722.6,34467.1,-1.1615,-1.3133,139.5,96.2,0.553
11.98,31729.4,34422.7,-1.1332,-1.4224,139.5,96.2,0.553
12.0,31793.2,34530.3,-0.8663,-1.1578,139.5,96.2,0.553
12.02,31918.8,34760.9,-0.3405,-0.5901,139.5,96.2,0.553
12.04,32072.0,35125.1,0.3011,0.3062,139.5,96.2,0.553
12.06,32124.5,35471.9,0.5205,1.1597,139.5,96.2,0.553
12.08,32352.0,35760.5,1.4729,1.8701,139.5,96.2,0.553
12.1,32369.4,35777.5,1.5459,1.9119,139.5,96.2,0.553
12.12,32306.8,35621.5,1.2837,1.528,139.5,96.2,0.553
12.14,32266.3,35494.8,1.1142,1.216,139.5,96.2,0.553
12.16,32135.4,35255.6,0.5664,0.6273,139.5,96.2,0.553
12.18,32180.5,35126.0,0.7551,0.3085,139.5,96.2,0.553
12.2,32010.0,35132.7,0.0413,0.3248,139.5,96.2,0.553
12.22,31979.5,35144.0,-0.0861,0.3527,139.5,96.2,0.553
12.24,32017.4,34998.7,0.0725,-0.005,139.5,96.2,0.553
12.26,31981.5,34833.2,-0.0778,-0.4121,139.5,96.2,0.553
12.28,31899.8,34764.4,-0.42,-0.5814,139.5,96.2,0.553
12.3,31838.3,34681.7,-0.6772,-0.7851,139.5,96.2,0.553
12.32,31933.7,34624.4,-0.2779,-0.926,139.5,96.2,0.553
12.34,31856.7,34735.5,-0.6001,-0.6527,139.5,96.2,0.553
12.36,31785.5,34601.1,-0.8983,-0.9834,139.5,96.2,0.553
12.38,31826.1,34529.4,-0.7283,-1.16,139.5,96.2,0.553
12.4,31746.0,34416.7,-1.0636,-1.4373,139.5,96.2,0.553
12.42,31693.1,34501.4,-1.2849,-1.2288,139.5,96.2,0.553
12.44,31803.5,34669.1,-0.823,-0.8159,139.5,96.2,0.553
12.46,31993.1,34940.9,-0.0293,-0.1471,139.5,96.2,0.553
12.48,32114.2,35293.5,0.4774,0.7206,139.5,96.2,0.553
12.5,32276.2,35611.1,1.1555,1.5023,139.5,96.2,0.553
12.52,32405.3,35653.3,1.6962,1.6062,139.5,96.2,0.553
12.54,32444.4,35660.4,1.8597,1.6237,139.5,96.2,0.553
12.56,32296.5,35599.4,1.2405,1.4736,139.5,96.2,0.553
12.58,32197.8,35298.8,0.8277,0.7338,139.5,96.2,0.553
12.6,32114.2,35245.7,0.4775,0.603,139.5,96.2,0.553
12.62,32004.1,35111.4,0.0167,0.2724,139.5,96.2,0.553
12.64,32052.7,35044.5,0.2201,0.1077,139.5,96.2,0.553
12.66,31958.5,34927.0,-0.174,-0.1813,139.5,96.2,0.553
12.68,31994.5,34975.3,-0.0235,-0.0625,139.5,96.2,0.553
12.7,31841.9,34794.2,-0.6623,-0.5082,139.5,96.2,0.553
12.72,31836.6,34725.4,-0.6843,-0.6776,139.5,96.2,0.553
12.74,31761.8,34604.6,-0.9975,-0.9747,139.5,96.2,0.553
12.76,31855.1,34594.7,-0.6071,-0.9991,139.5,96.2,0.553
12.78,31766.2,34629.0,-0.979,-0.9147,139.5,96.2,0.553
12.8,31820.7,34637.0,-0.751,-0.895,139.5,96.2,0.553
12.82,31736.6,34525.3,-1.103,-1.17,139.5,96.2,0.553
12.84,31757.1,34421.4,-1.0172,-1.4258,139.5,96.2,0.553
12.86,31747.3,34507.5,-1.058,-1.2138,139.5,96.2,0.553
12.88,31930.8,34847.3,-0.2902,-0.3775,139.5,96.2,0.553
12.9,32024.7,35110.5,0.103,0.2703,139.5,96.2,0.553
12.92,32206.0,35457.4,0.8619,1.1241,139.5,96.2,0.553
12.94,32430.8,35600.3,1.8027,1.4758,139.5,96.2,0.553
12.96,32386.3,35720.0,1.6164,1.7703,139.5,96.2,0.553
12.98,32426.6,35720.1,1.7852,1.7706,139.5,96.2,0.553
13.0,32213.1,35482.4,0.8916,1.1855,139.5,96.2,0.553
13.02,32067.2,35255.0,0.2807,0.6259,139.5,96.2,0.553
13.04,32153.6,35181.6,0.6426,0.4453,139.5,96.2,0.553
13.06,32199.3,35102.8,0.8339,0.2515,139.5,96.2,0.553
13.08,32048.4,35054.1,0.202,0.1315,139.5,96.2,0.553
13.1,32005.4,34925.3,0.0222,-0.1855,139.5,96.2,0.553
13.12,31926.3,34807.2,-0.3089,-0.4762,139.5,96.2,0.553
13.14,31875.5,34845.2,-0.5217,-0.3826,139.5,96.2,0.553
13.16,31892.2,34639.8,-0.4519,-0.8882,139.5,96.2,0.553
13.18,31851.5,34611.2,-0.6219,-0.9585,139.5,96.2,0.553
13.2,31840.3,34757.9,-0.6688,-0.5975,139.5,96.2,0.553
13.22,31813.1,34635.7,-0.7827,-0.8982,139.5,96.2,0.553
13.24,31817.1,34652.0,-0.766,-0.8581,139.5,96.2,0.553
13.26,31693.8,34480.9,-1.282,-1.2792,139.5,96.2,0.553
13.28,31714.2,34510.7,-1.1966,-1.2058,139.5,96.2,0.553
13.3,31798.9,34578.7,-0.8421,-1.0384,139.5,96.2,0.553
13.32,32003.9,34920.9,0.0157,-0.1962,139.5,96.2,0.553
13.34,32143.7,35297.7,0.6009,0.731,139.5,96.2,0.553
13.36,32329.9,35533.7,1.3802,1.3119,139.5,96.2,0.553
13.38,32352.4,35769.4,1.4745,1.892,139.5,96.2,0.553
13.4,32366.1,35758.4,1.5318,1.8647,139.5,96.2,0.553
13.42,32315.4,35531.3,1.3199,1.3061,139.5,96.2,0.553
13.44,32127.0,35251.5,0.531,0.6172,139.5,96.2,0.553
13.46,32066.9,35251.4,0.2794,0.6172,139.5,96.2,0.553
13.48,32033.8,35119.8,0.1412,0.2932,139.5,96.2,0.553
13.5,32095.9,35113.2,0.401,0.2771,139.5,96.2,0.553
13.52,31947.8,35061.2,-0.219,0.1489,139.5,96.2,0.553
13.54,31950.7,34972.5,-0.2067,-0.0692,139.5,96.2,0.553
13.56,31861.5,34775.3,-0.5803,-0.5546,139.5,96.2,0.553
13.58,31886.0,34766.0,-0.4775,-0.5777,139.5,96.2,0.553
13.6,31943.9,34702.2,-0.2355,-0.7347,139.5,96.2,0.553
13.62,31906.3,34757.4,-0.3926,-0.5988,139.5,96.2,0.553
13.64,31791.3,34704.6,-0.8741,-0.7287,139.5,96.2,0.553
13.66,31767.6,34525.5,-0.9732,-1.1694,139.5,96.2,0.553
13.68,31770.9,34533.4,-0.9594,-1.1501,139.5,96.2,0.553
13.7,31694.5,34490.3,-1.2792,-1.2561,139.5,96.2,0.553
13.72,31753.7,34533.9,-1.0316,-1.1488,139.5,96.2,0.553
13.74,31895.7,34828.9,-0.4369,-0.4228,139.5,96.2,0.553
13.76,32074.1,35099.5,0.3096,0.2433,139.5,96.2,0.553
13.78,32237.7,35443.2,0.9944,1.0892,139.5,96.2,0.553
13.8,32298.3,35716.6,1.2482,1.7621,139.5,96.2,0.553
13.82,32391.5,35776.7,1.6383,1.9098,139.5,96.2,0.553
13.84,32346.8,35633.2,1.4512,1.5567,139.5,96.2,0.553
13.86,32293.5,35444.7,1.228,1.0928,139.5,96.2,0.553
13.88,32142.6,35237.9,0.5965,0.5839,139.5,96.2,0.553
13.9,32076.1,35139.3,0.3182,0.3411,139.5,96.2,0.553
13.92,32053.1,35100.2,0.2217,0.2448,139.5,96.2,0.553
13.94,31927.3,35052.2,-0.3048,0.1268,139.5,96.2,0.553
13.96,32026.9,34867.5,0.112,-0.3277,139.5,96.2,0.553
13.98,31959.4,34822.4,-0.1705,-0.4389,139.5,96.2,0.553
14.0,31825.1,34703.9,-0.7327,-0.7303,139.5,96.2,0.553
14.02,31783.3,34694.6,-0.9076,-0.7533,139.5,96.2,0.553
14.04,31723.4,34789.0,-1.1581,-0.521,139.5,96.2,0.553
14.06,31811.5,34643.4,-0.7893,-0.8793,139.5,96.2,0.553
14.08,31734.0,34626.4,-1.1139,-0.9211,139.5,96.2,0.553
14.1,31834.4,34534.0,-0.6936,-1.1484,139.5,96.2,0.553
14.12,31758.0,34399.3,-1.0134,-1.4801,139.5,96.2,0.553
14.14,31738.4,34543.2,-1.0954,-1.1258,139.5,96.2,0.553
14.16,31803.2,34663.9,-0.8242,-0.829,139.5,96.2,0.553
14.18,31932.8,34912.4,-0.2817,-0.2172,139.5,96.2,0.553
14.2,32137.2,35267.7,0.574,0.6572,139.5,96.2,0.553
14.22,32338.4,35510.0,1.4162,1.2536,139.5,96.2,0.553
14.24,32341.9,35737.5,1.4305,1.8134,139.5,96.2,0.553
14.26,32332.6,35732.5,1.3918,1.8012,139.5,96.2,0.553
14.28,32285.1,35560.4,1.1928,1.3774,139.5,96.2,0.553
14.3,32225.7,35347.9,0.9442,0.8546,139.5,96.2,0.553
14.32,32159.7,35146.1,0.6679,0.3578,139.5,96.2,0.553
14.34,32178.3,35138.0,0.7458,0.3379,139.5,96.2,0.553
14.36,32060.3,35111.0,0.252,0.2716,139.5,96.2,0.553
14.38,32123.7,34960.6,0.5174,-0.0986,139.5,96.2,0.553
14.4,31933.2,35018.6,-0.28,0.0442,139.5,96.2,0.553
14.42,31902.8,34863.1,-0.4073,-0.3386,139.5,96.2,0.553
14.44,31818.4,34805.1,-0.7605,-0.4814,139.5,96.2,0.553
14.46,31798.7,34756.6,-0.843,-0.6007,139.5,96.2,0.553
14.48,31877.3,34637.0,-0.5139,-0.895,139.5,96.2,0.553
14.5,31746.2,34619.7,-1.0629,-0.9377,139.5,96.2,0.553
14.52,31818.4,34594.1,-0.7607,-1.0006,139.5,96.2,0.553
14.54,31623.5,34492.9,-1.5764,-1.2498,139.5,96.2,0.553
14.56,31664.4,34332.1,-1.405,-1.6454,139.5,96.2,0.553
14.58,31816.5,34538.1,-0.7684,-1.1384,139.5,96.2,0.553
14.6,31826.9,34717.7,-0.7249,-0.6964,139.5,96.2,0.553
14.62,32173.7,35089.1,0.7268,0.2177,139.5,96.2,0.553
14.64,32287.1,35496.9,1.2012,1.2214,139.5,96.2,0.553
14.66,32434.6,35703.0,1.8186,1.7285,139.5,96.2,0.553
14.68,32298.7,35682.3,1.2499,1.6775,139.5,96.2,0.553
14.7,32289.5,35715.8,1.2112,1.7599,139.5,96.2,0.553
14.72,32251.0,35442.1,1.0501,1.0865,139.5,96.2,0.553
14.74,32178.4,35274.3,0.7463,0.6735,139.5,96.2,0.553
14.76,32083.9,35126.2,0.3508,0.3089,139.5,96.2,0.553
14.78,32066.6,35004.9,0.2783,0.0103,139.5,96.2,0.553
14.8,32006.6,34990.7,0.0274,-0.0246,139.5,96.2,0.553
14.82,32000.5,34946.0,0.0015,-0.1346,139.5,96.2,0.553
14.84,31869.7,34827.1,-0.5458,-0.4273,139.5,96.2,0.553
14.86,31909.7,34768.1,-0.3784,-0.5723,139.5,96.2,0.553
14.88,31810.3,34692.4,-0.7944,-0.7588,139.5,96.2,0.553
14.9,31815.9,34754.2,-0.7712,-0.6067,139.5,96.2,0.553
14.92,31873.2,34627.1,-0.5312,-0.9193,139.5,96.2,0.553
14.94,31805.9,34566.9,-0.8127,-1.0675,139.5,96.2,0.553
14.96,31739.4,34418.1,-1.0911,-1.4339,139.5,96.2,0.553
14.98,31734.1,34306.2,-1.1137,-1.7093,139.5,96.2,0.553
15.0,31718.3,34577.1,-1.1798,-1.0425,139.5,96.2,0.553
15.02,31840.9,34728.0,-0.6664,-0.6711,139.5,96.2,0.553
15.04,31972.9,34890.4,-0.1138,-0.2715,139.5,96.2,0.553
15.06,32254.8,35321.1,1.0659,0.7886,139.5,96.2,0.553
15.08,32245.3,35525.3,1.0262,1.2912,139.5,96.2,0.553
15.1,32267.9,35710.2,1.121,1.7462,139.5,96.2,0.553
15.12,32314.0,35686.8,1.3138,1.6886,139.5,96.2,0.553
15.14,32324.5,35541.6,1.3579,1.3313,139.5,96.2,0.553
15.16,32178.5,35341.0,0.7468,0.8377,139.5,96.2,0.553
15.18,32053.7,35189.7,0.2242,0.4653,139.5,96.2,0.553
15.2,32069.9,35068.3,0.2919,0.1663,139.5,96.2,0.553
15.22,32109.4,35100.4,0.4574,0.2455,139.5,96.2,0.553
15.24,31971.2,34970.1,-0.1209,-0.0753,139.5,96.2,0.553
15.26,32030.8,34912.6,0.1283,-0.2168,139.5,96.2,0.553
15.28,31969.9,34778.5,-0.1267,-0.5468,139.5,96.2,0.553
15.3,31863.6,34798.2,-0.5715,-0.4983,139.5,96.2,0.553
15.32,31793.9,34689.7,-0.8631,-0.7654,139.5,96.2,0.553
15.34,31933.1,34680.9,-0.2803,-0.7869,139.5,96.2,0.553
15.36,31899.4,34570.0,-0.4218,-1.06,139.5,96.2,0.553
15.38,31775.2,34542.2,-0.9413,-1.1283,139.5,96.2,0.553
15.4,31711.3,34542.3,-1.2088,-1.1281,139.5,96.2,0.553
15.42,31721.0,34452.5,-1.1683,-1.3492,139.5,96.2,0.553
15.44,31758.2,34590.3,-1.0128,-1.01,139.5,96.2,0.553
15.46,31901.2,34868.9,-0.4142,-0.3243,139.5,96.2,0.553
15.48,32007.2,35108.8,0.0295,0.2661,139.5,96.2,0.553
15.5,32296.5,35453.1,1.2408,1.1134,139.5,96.2,0.553
15.52,32367.2,35690.8,1.5365,1.6984,139.5,96.2,0.553
15.54,32389.2,35736.6,1.6286,1.8111,139.5,96.2,0.553
15.56,32381.2,35650.4,1.5951,1.5991,139.5,96.2,0.553
15.58,32229.1,35388.1,0.9583,0.9535,139.5,96.2,0.553
15.6,32139.6,35242.8,0.5841,0.5958,139.5,96.2,0.553
15.62,32075.5,35094.6,0.3157,0.2312,139.5,96.2,0.553
15.64,32050.8,35151.3,0.2122,0.3707,139.5,96.2,0.553
15.66,32017.1,35092.4,0.071,0.2259,139.5,96.2,0.553
15.68,31931.6,34992.6,-0.2869,-0.0199,139.5,96.2,0.553
15.7,31926.0,34807.8,-0.3104,-0.4748,139.5,96.2,0.553
15.72,31752.8,34791.6,-1.0351,-0.5146,139.5,96.2,0.553
15.74,31885.8,34655.7,-0.4783,-0.8489,139.5,96.2,0.553
15.76,31873.9,34678.2,-0.5284,-0.7935,139.5,96.2,0.553
15.78,31863.2,34742.2,-0.5729,-0.6361,139.5,96.2,0.553
15.8,31821.6,34617.2,-0.7472,-0.9437,139.5,96.2,0.553
15.82,31820.2,34540.0,-0.7529,-1.1337,139.5,96.2,0.553
15.84,31650.9,34498.1,-1.4619,-1.2368,139.5,96.2,0.553
15.86,31791.9,34459.9,-0.8717,-1.3309,139.5,96.2,0.553
15.88,31785.7,34673.9,-0.8976,-0.8043,139.5,96.2,0.553
15.9,31998.1,34907.6,-0.0086,-0.2291,139.5,96.2,0.553
15.92,32082.0,35358.0,0.3429,0.8793,139.5,96.2,0.553
15.94,32356.5,35646.2,1.492,1.5888,139.5,96.2,0.553
15.96,32320.5,35841.0,1.341,2.0681,139.5,96.2,0.553
15.98,32348.4,35787.6,1.458,1.9367,139.5,96.2,0.553
16.0,32214.0,35484.8,0.8953,1.1916,139.5,96.2,0.553
16.02,32128.3,35415.0,0.5368,1.0196,139.5,96.2,0.553
16.04,32097.9,35194.9,0.4095,0.4779,139.5,96.2,0.553
16.06,32069.7,35152.3,0.2915,0.3733,139.5,96.2,0.553
16.08,32056.7,35110.1,0.2369,0.2692,139.5,96.2,0.553
16.1,31914.7,34922.6,-0.3576,-0.1922,139.5,96.2,0.553
16.12,31914.0,34942.6,-0.3604,-0.1428,139.5,96.2,0.553
16.14,31876.3,34831.9,-0.5182,-0.4155,139.5,96.2,0.553
16.16,31881.0,34738.5,-0.4986,-0.6453,139.5,96.2,0.553
16.18,31804.7,34656.1,-0.8181,-0.8479,139.5,96.2,0.553
16.2,31813.0,34580.0,-0.7833,-1.0354,139.5,96.2,0.553
16.22,31790.3,34662.7,-0.8784,-0.8318,139.5,96.2,0.553
16.24,31766.3,34563.5,-0.9785,-1.076,139.5,96.2,0.553
16.26,31694.4,34481.9,-1.2795,-1.2768,139.5,96.2,0.553
16.28,31739.1,34496.6,-1.0925,-1.2405,139.5,96.2,0.553
16.3,31829.9,34534.7,-0.7123,-1.1467,139.5,96.2,0.553
16.32,31800.6,34803.3,-0.835,-0.4857,139.5,96.2,0.553
16.34,32040.2,35093.2,0.1677,0.2278,139.5,96.2,0.553
16.36,32290.2,35453.5,1.2143,1.1146,139.5,96.2,0.553
16.38,32315.6,35714.8,1.3205,1.7576,139.5,96.2,0.553
16.4,32396.9,35744.6,1.6609,1.8309,139.5,96.2,0.553
16.42,32430.4,35653.2,1.8011,1.6061,139.5,96.2,0.553
16.44,32270.7,35534.9,1.1328,1.3147,139.5,96.2,0.553
16.46,32141.1,35246.1,0.5903,0.6041,139.5,96.2,0.553
16.48,31958.9,35129.1,-0.1727,0.3161,139.5,96.2,0.553
16.5,32170.4,35155.4,0.7126,0.3808,139.5,96.2,0.553
16.52,32029.0,35014.1,0.1209,0.0331,139.5,96.2,0.553
16.54,32019.5,34953.5,0.0813,-0.1162,139.5,96.2,0.553
16.56,31903.6,34841.1,-0.4039,-0.3928,139.5,96.2,0.553
16.58,31945.6,34776.3,-0.2281,-0.5522,139.5,96.2,0.553
16.6,31878.5,34732.2,-0.5088,-0.6608,139.5,96.2,0.553
16.62,31794.4,34632.0,-0.8611,-0.9074,139.5,96.2,0.553
16.64,31804.8,34732.1,-0.8176,-0.6611,139.5,96.2,0.553
16.66,31821.9,34590.1,-0.7459,-1.0105,139.5,96.2,0.553
16.68,31824.1,34555.4,-0.7366,-1.0959,139.5,96.2,0.553
16.7,31758.3,34434.6,-1.0123,-1.3931,139.5,96.2,0.553
16.72,31733.9,34433.0,-1.1144,-1.3971,139.5,96.2,0.553
16.74,31877.6,34620.5,-0.5127,-0.9356,139.5,96.2,0.553
16.76,31999.9,34952.4,-0.0008,-0.1187,139.5,96.2,0.553
16.78,32167.4,35302.1,0.7003,0.7418,139.5,96.2,0.553
16.8,32301.1,35526.4,1.26,1.2939,139.5,96.2,0.553
16.82,32426.4,35826.6,1.7844,2.0327,139.5,96.2,0.553
16.84,32384.9,35718.6,1.6106,1.767,139.5,96.2,0.553
16.86,32265.9,35567.9,1.1126,1.396,139.5,96.2,0.553
16.88,32174.7,35419.7,0.7309,1.0313,139.5,96.2,0.553
16.9,32112.8,35240.9,0.4717,0.5912,139.5,96.2,0.553
16.92,32099.8,35063.2,0.4171,0.154,139.5,96.2,0.553
16.94,32097.7,35014.9,0.4085,0.0351,139.5,96.2,0.553
16.96,31989.7,34993.1,-0.0437,-0.0187,139.5,96.2,0.553
16.98,32014.1,34923.7,0.0585,-0.1895,139.5,96.2,0.553
17.0,31977.7,34829.9,-0.0937,-0.4203,139.5,96.2,0.553
17.02,31884.6,34780.8,-0.4834,-0.5412,139.5,96.2,0.553
17.04,31906.5,34698.3,-0.3918,-0.7442,139.5,96.2,0.553
17.06,31843.9,34620.4,-0.6538,-0.9359,139.5,96.2,0.553
17.08,31738.6,34682.2,-1.0947,-0.7837,139.5,96.2,0.553
17.1,31858.7,34536.4,-0.592,-1.1427,139.5,96.2,0.553
17.12,31751.6,34412.4,-1.0402,-1.4477,139.5,96.2,0.553
17.14,31807.1,34450.3,-0.808,-1.3546,139.5,96.2,0.553
17.16,31836.4,34468.0,-0.6851,-1.3109,139.5,96.2,0.553
17.18,31930.1,34735.2,-0.2931,-0.6535,139.5,96.2,0.553
17.2,32034.4,35038.8,0.1435,0.0939,139.5,96.2,0.553
17.22,32215.9,35459.2,0.9033,1.1285,139.5,96.2,0.553
17.24,32324.6,35807.2,1.3582,1.9848,139.5,96.2,0.553
17.26,32291.8,35714.8,1.2211,1.7574,139.5,96.2,0.553
17.28,32291.8,35612.5,1.2211,1.5058,139.5,96.2,0.553
17.3,32209.3,35484.1,0.8757,1.1897,139.5,96.2,0.553
17.32,32149.0,35187.4,0.6234,0.4596,139.5,96.2,0.553
17.34,32125.7,35201.8,0.5259,0.4951,139.5,96.2,0.553
17.36,32109.7,35144.0,0.4587,0.3528,139.5,96.2,0.553
17.38,32116.8,34993.5,0.4884,-0.0178,139.5,96.2,0.553
17.4,31951.1,34992.1,-0.2051,-0.021,139.5,96.2,0.553
17.42,31937.2,34861.6,-0.2632,-0.3423,139.5,96.2,0.553
17.44,31949.8,34752.6,-0.2106,-0.6105,139.5,96.2,0.553
17.46,31832.8,34782.5,-0.7001,-0.537,139.5,96.2,0.553
17.48,31855.4,34738.2,-0.6055,-0.646,139.5,96.2,0.553
17.5,31880.7,34602.4,-0.4997,-0.9802,139.5,96.2,0.553
17.52,31855.5,34588.1,-0.6053,-1.0153,139.5,96.2,0.553
17.54,31724.0,34439.0,-1.1559,-1.3822,139.5,96.2,0.553
17.56,31722.4,34363.7,-1.1623,-1.5676,139.5,96.2,0.553
17.58,31710.9,34437.5,-1.2105,-1.386,139.5,96.2,0.553
17.6,31812.4,34603.1,-0.7857,-0.9785,139.5,96.2,0.553
17.62,31940.3,34928.7,-0.2503,-0.1771,139.5,96.2,0.553
17.64,32146.5,35240.0,0.6127,0.5891,139.5,96.2,0.553
17.66,32328.3,35606.9,1.3737,1.4921,139.5,96.2,0.553
17.68,32355.3,35787.7,1.4869,1.9368,139.5,96.2,0.553
17.7,32355.6,35730.0,1.4881,1.795,139.5,96.2,0.553
17.72,32215.8,35589.7,0.9026,1.4497,139.5,96.2,0.553
17.74,32090.3,35365.3,0.3777,0.8974,139.5,96.2,0.553
17.76,32090.6,35240.1,0.3789,0.5893,139.5,96.2,0.553
17.78,32045.5,35115.2,0.1901,0.2819,139.5,96.2,0.553
17.8,32036.7,35091.8,0.1532,0.2242,139.5,96.2,0.553
17.82,32033.9,35103.8,0.1414,0.2537,139.5,96.2,0.553
17.84,31943.4,34837.4,-0.2374,-0.4018,139.5,96.2,0.553
17.86,31931.0,34866.3,-0.2895,-0.3306,139.5,96.2,0.553
17.88,31941.9,34784.7,-0.2436,-0.5316,139.5,96.2,0.553
17.9,31740.1,34738.5,-1.0885,-0.6452,139.5,96.2,0.553
17.92,31820.3,34740.9,-0.7528,-0.6393,139.5,96.2,0.553
17.94,31811.8,34649.9,-0.7882,-0.8634,139.5,96.2,0.553
17.96,31763.4,34681.7,-0.991,-0.785,139.5,96.2,0.553
17.98,31660.1,34571.1,-1.4232,-1.0573,139.5,96.2,0.553
18.0,31772.3,34510.2,-0.9534,-1.2071,139.5,96.2,0.553
18.02,31646.2,34553.9,-1.4813,-1.0996,139.5,96.2,0.553
18.04,31879.6,34738.3,-0.5046,-0.6458,139.5,96.2,0.553
18.06,32053.9,35065.2,0.225,0.1588,139.5,96.2,0.553
18.08,32181.0,35424.3,0.7573,1.0427,139.5,96.2,0.553
18.1,32352.1,35695.5,1.4733,1.7099,139.5,96.2,0.553
18.12,32306.0,35725.0,1.2803,1.7826,139.5,96.2,0.553
18.14,32338.6,35694.9,1.4168,1.7086,139.5,96.2,0.553
18.16,32228.0,35457.8,0.9537,1.1249,139.5,96.2,0.553
18.18,32174.0,35264.7,0.7279,0.6499,139.5,96.2,0.553
18.2,32071.4,35184.8,0.2985,0.4531,139.5,96.2,0.553
18.22,32058.8,35090.0,0.2458,0.2198,139.5,96.2,0.553
18.24,32026.6,35103.6,0.1109,0.2533,139.5,96.2,0.553
18.26,32004.9,35031.6,0.0201,0.076,139.5,96.2,0.553
18.28,31944.7,34825.0,-0.2321,-0.4323,139.5,96.2,0.553
18.3,31920.0,34786.0,-0.3353,-0.5284,139.5,96.2,0.553
18.32,31813.0,34679.5,-0.7834,-0.7904,139.5,96.2,0.553
18.34,31838.3,34625.6,-0.6773,-0.923,139.5,96.2,0.553
18.36,31843.4,34640.2,-0.6559,-0.8871,139.5,96.2,0.553
18.38,31738.7,34617.0,-1.0943,-0.9443,139.5,96.2,0.553
18.4,31763.8,34553.3,-0.989,-1.1011,139.5,96.2,0.553
18.42,31699.9,34436.6,-1.2565,-1.3882,139.5,96.2,0.553
18.44,31661.2,34491.5,-1.4187,-1.2532,139.5,96.2,0.553
18.46,31737.5,34638.1,-1.0991,-0.8925,139.5,96.2,0.553
18.48,32018.2,34861.1,0.0756,-0.3434,139.5,96.2,0.553
18.5,32081.7,35364.9,0.3415,0.8964,139.5,96.2,0.553
18.52,32239.8,35579.8,1.0035,1.4253,139.5,96.2,0.553
18.54,32433.2,35723.1,1.8128,1.7781,139.5,96.2,0.553
18.56,32396.8,35812.9,1.6603,1.999,139.5,96.2,0.553
18.58,32320.9,35588.3,1.343,1.4462,139.5,96.2,0.553
18.6,32214.5,35378.0,0.8976,0.9285,139.5,96.2,0.553
18.62,32140.2,35188.0,0.5863,0.461,139.5,96.2,0.553
18.64,32036.7,35065.4,0.153,0.1593,139.5,96.2,0.553
18.66,32008.3,35080.7,0.0341,0.197,139.5,96.2,0.553
18.68,31991.5,34975.8,-0.0362,-0.0612,139.5,96.2,0.553
18.7,31928.0,34946.0,-0.3019,-0.1345,139.5,96.2,0.553
18.72,31911.8,34729.5,-0.3697,-0.6674,139.5,96.2,0.553
18.74,31934.9,34631.4,-0.273,-0.9087,139.5,96.2,0.553
18.76,31811.8,34608.9,-0.7881,-0.9642,139.5,96.2,0.553
18.78,31829.0,34713.3,-0.7163,-0.7074,139.5,96.2,0.553
18.8,31752.8,34658.4,-1.0351,-0.8423,139.5,96.2,0.553
18.82,31763.9,34634.3,-0.9886,-0.9017,139.5,96.2,0.553
18.84,31752.2,34454.4,-1.0378,-1.3445,139.5,96.2,0.553
18.86,31670.5,34356.4,-1.3797,-1.5856,139.5,96.2,0.553
18.88,31824.6,34513.8,-0.7345,-1.1983,139.5,96.2,0.553
18.9,31896.2,34807.3,-0.4349,-0.476,139.5,96.2,0.553
18.92,32031.8,35044.9,0.1325,0.1089,139.5,96.2,0.553
18.94,32215.0,35475.0,0.8994,1.1675,139.5,96.2,0.553
18.96,32331.0,35748.5,1.385,1.8404,139.5,96.2,0.553
18.98,32402.8,35779.5,1.6855,1.9169,139.5,96.2,0.553
19.0,32377.8,35725.8,1.581,1.7847,139.5,96.2,0.553
19.02,32287.0,35514.4,1.2009,1.2643,139.5,96.2,0.553
19.04,32159.6,35247.1,0.6675,0.6066,139.5,96.2,0.553
19.06,32095.8,35176.5,0.4005,0.4328,139.5,96.2,0.553
19.08,32018.0,35131.5,0.0748,0.322,139.5,96.2,0.553
19.1,32016.8,35094.5,0.0697,0.231,139.5,96.2,0.553
19.12,32031.0,35010.3,0.1294,0.0237,139.5,96.2,0.553
19.14,31991.9,34981.7,-0.0345,-0.0466,139.5,96.2,0.553
19.16,31847.1,34820.3,-0.6407,-0.4438,139.5,96.2,0.553
19.18,31910.5,34668.7,-0.3751,-0.8171,139.5,96.2,0.553
19.2,31852.2,34733.7,-0.6193,-0.657,139.5,96.2,0.553
19.22,31801.9,34629.3,-0.8298,-0.9139,139.5,96.2,0.553
19.24,31857.2,34670.0,-0.5983,-0.8138,139.5,96.2,0.553
19.26,31786.8,34486.0,-0.893,-1.2668,139.5,96.2,0.553
19.28,31705.1,34422.9,-1.2351,-1.422,139.5,96.2,0.553
19.3,31762.3,34401.6,-0.9956,-1.4745,139.5,96.2,0.553
19.32,31810.0,34565.8,-0.7959,-1.0702,139.5,96.2,0.553
19.34,31920.5,34922.0,-0.3334,-0.1938,139.5,96.2,0.553
19.36,32135.2,35232.3,0.5657,0.5701,139.5,96.2,0.553
19.38,32426.2,35668.1,1.7833,1.6425,139.5,96.2,0.553
19.4,32410.6,35811.5,1.7182,1.9956,139.5,96.2,0.553
19.42,32427.1,35800.3,1.7874,1.9681,139.5,96.2,0.553
19.44,32295.3,35595.8,1.2354,1.4647,139.5,96.2,0.553
19.46,32206.3,35396.9,0.863,0.9751,139.5,96.2,0.553
19.48,32067.8,35214.2,0.2834,0.5256,139.5,96.2,0.553
19.5,32025.9,35109.8,0.1078,0.2685,139.5,96.2,0.553
19.52,32032.0,35081.8,0.1335,0.1996,139.5,96.2,0.553
19.54,32044.8,35004.8,0.1871,0.0101,139.5,96.2,0.553
19.56,31870.9,34905.6,-0.5408,-0.2339,139.5,96.2,0.553
19.58,31876.6,34877.8,-0.5171,-0.3024,139.5,96.2,0.553
19.6,31791.5,34717.0,-0.8733,-0.6982,139.5,96.2,0.553
19.62,31789.3,34703.6,-0.8824,-0.7312,139.5,96.2,0.553
19.64,31796.4,34679.6,-0.8526,-0.7901,139.5,96.2,0.553
19.66,31806.7,34625.9,-0.8095,-0.9224,139.5,96.2,0.553
19.68,31873.0,34500.1,-0.5321,-1.2319,139.5,96.2,0.553
19.7,31709.7,34472.0,-1.2157,-1.3012,139.5,96.2,0.553
19.72,31761.5,34459.3,-0.9988,-1.3323,139.5,96.2,0.553
19.74,31820.5,34515.1,-0.7517,-1.1951,139.5,96.2,0.553
19.76,31884.5,34745.0,-0.4838,-0.6292,139.5,96.2,0.553
19.78,31971.6,35091.0,-0.1192,0.2222,139.5,96.2,0.553
19.8,32199.8,35445.5,0.8359,1.0948,139.5,96.2,0.553
19.82,32336.0,35706.2,1.406,1.7365,139.5,96.2,0.553
19.84,32485.8,35779.4,2.0332,1.9166,139.5,96.2,0.553
19.86,32290.5,35677.1,1.2156,1.6647,139.5,96.2,0.553
19.88,32161.5,35380.2,0.6757,0.9341,139.5,96.2,0.553
19.9,32131.2,35300.6,0.5489,0.738,139.5,96.2,0.553
19.92,32152.3,35231.0,0.6371,0.5669,139.5,96.2,0.553
19.94,32011.3,35140.0,0.0467,0.3428,139.5,96.2,0.553
19.96,32031.9,35032.0,0.133,0.0771,139.5,96.2,0.553
19.98,31918.5,34931.1,-0.3414,-0.1713,139.5,96.2,0.553
20.0,31957.9,34824.9,-0.1766,-0.4326,139.5,96.2,0.553
20.02,31801.5,34736.5,-0.8313,-0.6503,139.5,96.2,0.553
20.04,31846.8,34751.5,-0.6415,-0.6133,139.5,96.2,0.553
20.06,31827.2,34724.2,-0.7237,-0.6804,139.5,96.2,0.553
20.08,31775.2,34643.1,-0.9415,-0.88,139.5,96.2,0.553
20.1,31855.2,34642.1,-0.6065,-0.8826,139.5,96.2,0.553
20.12,31784.3,34571.0,-0.9034,-1.0576,139.5,96.2,0.553
20.14,31751.5,34433.4,-1.0405,-1.3962,139.5,96.2,0.553
20.16,31718.0,34448.5,-1.1808,-1.3589,139.5,96.2,0.553
20.18,31800.1,34694.7,-0.8372,-0.753,139.5,96.2,0.553
20.2,31934.1,34957.7,-0.2762,-0.1056,139.5,96.2,0.553
20.22,32129.8,35205.3,0.5429,0.5035,139.5,96.2,0.553
20.24,32285.9,35573.0,1.1962,1.4085,139.5,96.2,0.553
20.26,32314.8,35711.5,1.3172,1.7494,139.5,96.2,0.553
20.28,32339.3,35786.4,1.4196,1.9338,139.5,96.2,0.553
20.3,32290.5,35570.9,1.2153,1.4035,139.5,96.2,0.553
20.32,32226.0,35396.0,0.9453,0.9729,139.5,96.2,0.553
20.34,32102.7,35192.4,0.4294,0.4719,139.5,96.2,0.553
20.36,32041.6,35111.0,0.1738,0.2714,139.5,96.2,0.553
20.38,32139.5,35100.8,0.5833,0.2464,139.5,96.2,0.553
20.4,32061.0,34965.6,0.255,-0.0863,139.5,96.2,0.553
20.42,31987.0,34969.5,-0.0548,-0.0767,139.5,96.2,0.553
20.44,31958.8,34923.1,-0.1727,-0.191,139.5,96.2,0.553
20.46,31897.1,34689.7,-0.4311,-0.7653,139.5,96.2,0.553
20.48,31748.0,34667.7,-1.0552,-0.8196,139.5,96.2,0.553
20.5,31882.4,34708.5,-0.4925,-0.7192,139.5,96.2,0.553
20.52,31839.5,34613.5,-0.6723,-0.9529,139.5,96.2,0.553
20.54,31841.5,34509.8,-0.664,-1.208,139.5,96.2,0.553
20.56,31762.1,34469.4,-0.9964,-1.3075,139.5,96.2,0.553
20.58,31719.9,34539.1,-1.1728,-1.136,139.5,96.2,0.553
20.6,31750.6,34482.8,-1.0445,-1.2745,139.5,96.2,0.553
20.62,31877.8,34798.1,-0.5121,-0.4987,139.5,96.2,0.553
20.64,32104.5,35159.3,0.437,0.3905,139.5,96.2,0.553
20.66,32258.2,35477.7,1.0803,1.1741,139.5,96.2,0.553
20.68,32334.1,35702.5,1.398,1.7274,139.5,96.2,0.553
20.7,32354.3,35747.2,1.4825,1.8373,139.5,96.2,0.553
20.72,32318.1,35574.6,1.331,1.4124,139.5,96.2,0.553
20.74,32207.3,35331.8,0.8674,0.8148,139.5,96.2,0.553
20.76,32112.8,35236.0,0.4716,0.5791,139.5,96.2,0.553
20.78,32022.0,35216.4,0.0914,0.531,139.5,96.2,0.553
20.8,32086.0,35174.0,0.3594,0.4265,139.5,96.2,0.553
20.82,32108.3,35088.0,0.4529,0.215,139.5,96.2,0.553
20.84,32032.3,35049.6,0.1349,0.1203,139.5,96.2,0.553
20.86,31953.2,34878.9,-0.1966,-0.2998,139.5,96.2,0.553
20.88,31918.8,34795.8,-0.3404,-0.5043,139.5,96.2,0.553
20.9,31804.0,34777.5,-0.821,-0.5493,139.5,96.2,0.553
20.92,31809.1,34685.1,-0.7997,-0.7767,139.5,96.2,0.553
20.94,31855.6,34686.9,-0.6049,-0.7723,139.5,96.2,0.553
20.96,31820.1,34623.1,-0.7536,-0.9293,139.5,96.2,0.553
20.98,31697.9,34484.4,-1.2652,-1.2706,139.5,96.2,0.553
21.0,31740.9,34540.0,-1.085,-1.1337,139.5,96.2,0.553
21.02,31690.8,34531.2,-1.2949,-1.1555,139.5,96.2,0.553
21.04,31807.5,34620.1,-0.8061,-0.9366,139.5,96.2,0.553
21.06,32010.3,34951.2,0.0425,-0.1219,139.5,96.2,0.553
21.08,32131.2,35305.8,0.5488,0.751,139.5,96.2,0.553
21.1,32290.8,35612.0,1.2169,1.5044,139.5,96.2,0.553
21.12,32377.7,35753.6,1.5806,1.853,139.5,96.2,0.553
21.14,32340.9,35705.7,1.4265,1.7351,139.5,96.2,0.553
21.16,32381.3,35588.3,1.5955,1.4462,139.5,96.2,0.553
21.18,32169.3,35411.5,0.7083,1.0111,139.5,96.2,0.553
21.2,32059.8,35229.8,0.2498,0.564,139.5,96.2,0.553
21.22,31987.2,35124.2,-0.0539,0.304,139.5,96.2,0.553
21.24,32012.7,35120.2,0.0528,0.2941,139.5,96.2,0.553
21.26,32043.6,35013.0,0.1819,0.0304,139.5,96.2,0.553
21.28,31933.1,35028.7,-0.2806,0.069,139.5,96.2,0.553
21.3,31910.3,34822.4,-0.3759,-0.4387,139.5,96.2,0.553
21.32,31878.9,34754.9,-0.5073,-0.605,139.5,96.2,0.553
21.34,31774.8,34654.9,-0.9433,-0.851,139.5,96.2,0.553
21.36,31929.5,34652.2,-0.2956,-0.8577,139.5,96.2,0.553
21.38,31816.6,34643.4,-0.768,-0.8793,139.5,96.2,0.553
21.4,31753.9,34589.5,-1.0304,-1.012,139.5,96.2,0.553
21.42,31632.0,34416.2,-1.5407,-1.4384,139.5,96.2,0.553
21.44,31675.2,34443.6,-1.36,-1.3711,139.5,96.2,0.553
21.46,31829.0,34561.9,-0.7162,-1.0798,139.5,96.2,0.553
21.48,31921.8,34836.0,-0.3279,-0.4053,139.5,96.2,0.553
21.5,32086.4,35180.4,0.3611,0.4424,139.5,96.2,0.553
21.52,32270.8,35458.9,1.1329,1.1277,139.5,96.2,0.553
21.54,32313.0,35667.7,1.3099,1.6417,139.5,96.2,0.553
21.56,32310.4,35816.1,1.2989,2.0069,139.5,96.2,0.553
21.58,32362.2,35528.4,1.5155,1.2987,139.5,96.2,0.553
21.6,32256.2,35522.8,1.0718,1.2851,139.5,96.2,0.553
21.62,32152.0,35320.5,0.6357,0.7872,139.5,96.2,0.553
21.64,32109.7,35136.2,0.4589,0.3336,139.5,96.2,0.553
21.66,32170.7,34994.9,0.7139,-0.0142,139.5,96.2,0.553
21.68,32142.2,35017.2,0.595,0.0407,139.5,96.2,0.553
21.7,32014.0,35060.1,0.0582,0.1463,139.5,96.2,0.553
21.72,31880.5,34883.9,-0.5008,-0.2873,139.5,96.2,0.553
21.74,31881.8,34775.2,-0.4953,-0.555,139.5,96.2,0.553
21.76,31851.1,34709.8,-0.6237,-0.716,139.5,96.2,0.553
21.78,31798.1,34631.7,-0.8454,-0.9081,139.5,96.2,0.553
21.8,31880.4,34691.0,-0.501,-0.7621,139.5,96.2,0.553
21.82,31826.1,34597.0,-0.7282,-0.9934,139.5,96.2,0.553
21.84,31747.9,34675.3,-1.0559,-0.8009,139.5,96.2,0.553
21.86,31739.8,34516.5,-1.0894,-1.1916,139.5,96.2,0.553
21.88,31752.0,34429.9,-1.0385,-1.4047,139.5,96.2,0.553
21.9,31760.8,34592.9,-1.0016,-1.0036,139.5,96.2,0.553
21.92,31964.3,34957.0,-0.1498,-0.1075,139.5,96.2,0.553
21.94,32121.3,35249.8,0.5072,0.613,139.5,96.2,0.553
21.96,32293.3,35488.1,1.2273,1.1997,139.5,96.2,0.553
21.98,32391.0,35687.5,1.636,1.6903,139.5,96.2,0.553
22.0,32333.6,35767.9,1.396,1.8882,139.5,96.2,0.553
22.02,32335.6,35564.3,1.4042,1.3872,139.5,96.2,0.553
22.04,32078.8,35387.7,0.3293,0.9526,139.5,96.2,0.553
22.06,32140.6,35253.7,0.5879,0.6228,139.5,96.2,0.553
22.08,32119.9,35151.8,0.5012,0.3718,139.5,96.2,0.553
22.1,32100.3,35019.1,0.4193,0.0454,139.5,96.2,0.553
22.12,31980.5,34914.7,-0.082,-0.2117,139.5,96.2,0.553
22.14,31932.3,34893.8,-0.2839,-0.2631,139.5,96.2,0.553
22.16,31910.8,34835.5,-0.3739,-0.4065,139.5,96.2,0.553
22.18,31858.7,34663.7,-0.5919,-0.8293,139.5,96.2,0.553
22.2,31892.9,34614.8,-0.4487,-0.9496,139.5,96.2,0.553
22.22,31806.1,34656.3,-0.812,-0.8476,139.5,96.2,0.553
22.24,31730.6,34660.0,-1.1283,-0.8385,139.5,96.2,0.553
22.26,31877.5,34654.6,-0.5131,-0.8518,139.5,96.2,0.553
22.28,31782.5,34526.7,-0.911,-1.1664,139.5,96.2,0.553
22.3,31710.0,34366.3,-1.2144,-1.5614,139.5,96.2,0.553
22.32,31724.6,34516.8,-1.1531,-1.1908,139.5,96.2,0.553
22.34,31850.2,34731.8,-0.6274,-0.6616,139.5,96.2,0.553
22.36,32099.0,35101.7,0.4138,0.2487,139.5,96.2,0.553
22.38,32219.8,35491.9,0.9195,1.2089,139.5,96.2,0.553
22.4,32411.4,35644.6,1.7216,1.5849,139.5,96.2,0.553
22.42,32408.6,35812.5,1.71,1.9981,139.5,96.2,0.553
22.44,32295.0,35752.3,1.2344,1.8499,139.5,96.2,0.553
22.46,32280.1,35443.5,1.1718,1.0899,139.5,96.2,0.553
22.48,32051.5,35228.5,0.2151,0.5606,139.5,96.2,0.553
22.5,32104.9,35142.1,0.4386,0.3482,139.5,96.2,0.553
22.52,31992.8,35142.1,-0.0306,0.348,139.5,96.2,0.553
22.54,32165.8,35049.2,0.6934,0.1194,139.5,96.2,0.553
22.56,31992.0,34883.4,-0.034,-0.2885,139.5,96.2,0.553
22.58,32032.6,34881.2,0.1362,-0.2941,139.5,96.2,0.553
22.6,31886.7,34791.1,-0.4747,-0.5157,139.5,96.2,0.553
22.62,31854.1,34694.4,-0.611,-0.7537,139.5,96.2,0.553
22.64,31864.4,34665.2,-0.5682,-0.8257,139.5,96.2,0.553
22.66,31820.3,34679.8,-0.7525,-0.7897,139.5,96.2,0.553
22.68,31811.0,34642.3,-0.7915,-0.8821,139.5,96.2,0.553
22.7,31805.4,34539.0,-0.8152,-1.1362,139.5,96.2,0.553
22.72,31699.6,34433.9,-1.2578,-1.3948,139.5,96.2,0.553
22.74,31648.3,34484.6,-1.4728,-1.2702,139.5,96.2,0.553
22.76,31835.6,34588.3,-0.6885,-1.0148,139.5,96.2,0.553
22.78,31935.1,34881.3,-0.2722,-0.2937,139.5,96.2,0.553
22.8,32198.2,35203.9,0.8291,0.5003,139.5,96.2,0.553
22.82,32420.3,35642.0,1.759,1.5783,139.5,96.2,0.553
22.84,32426.1,35688.7,1.7833,1.6934,139.5,96.2,0.553
22.86,32388.6,35771.1,1.626,1.896,139.5,96.2,0.553
22.88,32269.3,35629.9,1.1267,1.5486,139.5,96.2,0.553
22.9,32150.2,35383.5,0.6284,0.9421,139.5,96.2,0.553
22.92,32140.5,35136.5,0.5878,0.3342,139.5,96.2,0.553
22.94,32090.3,35194.1,0.3775,0.476,139.5,96.2,0.553
22.96,32058.5,35147.0,0.2446,0.3601,139.5,96.2,0.553
22.98,32023.4,35082.4,0.0975,0.2012,139.5,96.2,0.553
23.0,31913.2,34930.3,-0.3639,-0.1732,139.5,96.2,0.553
23.02,31915.8,34798.7,-0.353,-0.4971,139.5,96.2,0.553
23.04,31913.2,34655.6,-0.3637,-0.8492,139.5,96.2,0.553
23.06,31811.7,34733.8,-0.7885,-0.6569,139.5,96.2,0.553
23.08,31806.1,34687.5,-0.8119,-0.7707,139.5,96.2,0.553
23.1,31811.8,34648.2,-0.7882,-0.8675,139.5,96.2,0.553
23.12,31813.1,34527.7,-0.7829,-1.164,139.5,96.2,0.553
23.14,31698.7,34438.3,-1.2618,-1.3841,139.5,96.2,0.553
23.16,31658.0,34463.3,-1.4321,-1.3225,139.5,96.2,0.553
23.18,31810.9,34473.2,-0.7922,-1.2982,139.5,96.2,0.553
23.2,31963.0,34853.6,-0.1551,-0.362,139.5,96.2,0.553
23.22,32070.6,35067.4,0.2949,0.1642,139.5,96.2,0.553
23.24,32264.4,35450.1,1.1061,1.1062,139.5,96.2,0.553
23.26,32446.8,35698.6,1.8699,1.7178,139.5,96.2,0.553
23.28,32303.4,35712.7,1.2693,1.7525,139.5,96.2,0.553
23.3,32264.6,35561.9,1.107,1.3812,139.5,96.2,0.553
23.32,32164.7,35510.7,0.6888,1.2553,139.5,96.2,0.553
23.34,32186.6,35268.5,0.7805,0.6591,139.5,96.2,0.553
23.36,32139.7,35189.4,0.5842,0.4645,139.5,96.2,0.553
23.38,32112.2,35115.1,0.4691,0.2816,139.5,96.2,0.553
23.4,32070.9,35057.9,0.2965,0.1407,139.5,96.2,0.553
23.42,32018.9,35014.2,0.0787,0.0332,139.5,96.2,0.553
23.44,31948.9,35077.0,-0.2142,0.188,139.5,96.2,0.553
23.46,31870.9,34696.2,-0.5408,-0.7494,139.5,96.2,0.553
23.48,31760.4,34642.9,-1.0033,-0.8805,139.5,96.2,0.553
23.5,31921.3,34704.2,-0.3298,-0.7297,139.5,96.2,0.553
23.52,31789.8,34667.3,-0.8805,-0.8205,139.5,96.2,0.553
23.54,31762.7,34581.2,-0.994,-1.0324,139.5,96.2,0.553
23.56,31702.1,34572.3,-1.2474,-1.0544,139.5,96.2,0.553
23.58,31709.8,34445.4,-1.2151,-1.3666,139.5,96.2,0.553
23.6,31778.1,34416.9,-0.9294,-1.4367,139.5,96.2,0.553
23.62,31834.9,34563.1,-0.6915,-1.0769,139.5,96.2,0.553
23.64,31987.8,34882.9,-0.0516,-0.2899,139.5,96.2,0.553
23.66,32161.4,35241.8,0.6753,0.5934,139.5,96.2,0.553
23.68,32230.1,35501.9,0.9626,1.2337,139.5,96.2,0.553
23.7,32410.5,35718.9,1.7178,1.7676,139.5,96.2,0.553
23.72,32419.5,35789.0,1.7554,1.9402,139.5,96.2,0.553
23.74,32293.4,35619.4,1.2277,1.5227,139.5,96.2,0.553
23.76,32269.3,35431.3,1.1268,1.0598,139.5,96.2,0.553
23.78,32140.8,35167.2,0.5887,0.4099,139.5,96.2,0.553
23.8,32070.8,35114.5,0.2961,0.2802,139.5,96.2,0.553
23.82,32024.0,34966.8,0.0998,-0.0834,139.5,96.2,0.553
23.84,31967.8,35029.2,-0.1354,0.0702,139.5,96.2,0.553
23.86,31944.4,35012.5,-0.2333,0.029,139.5,96.2,0.553
23.88,31891.7,34789.3,-0.4537,-0.5203,139.5,96.2,0.553
23.9,31866.2,34697.5,-0.5605,-0.7463,139.5,96.2,0.553
23.92,31922.7,34736.3,-0.3241,-0.6507,139.5,96.2,0.553
23.94,31801.7,34608.9,-0.8304,-0.9642,139.5,96.2,0.553
23.96,31864.6,34689.2,-0.5674,-0.7666,139.5,96.2,0.553
23.98,31773.0,34600.8,-0.9506,-0.9842,139.5,96.2,0.553
24.0,31819.2,34482.2,-0.7573,-1.2761,139.5,96.2,0.553
24.02,31782.0,34516.7,-0.9128,-1.1911,139.5,96.2,0.553
24.04,31626.9,34519.4,-1.5621,-1.1844,139.5,96.2,0.553
24.06,31871.8,34663.2,-0.537,-0.8307,139.5,96.2,0.553
24.08,32040.6,35046.1,0.1693,0.1119,139.5,96.2,0.553
24.1,32278.2,35414.1,1.1642,1.0175,139.5,96.2,0.553
24.12,32319.8,35632.2,1.338,1.5542,139.5,96.2,0.553
24.14,32393.2,35795.1,1.6452,1.9552,139.5,96.2,0.553
24.16,32270.3,35609.9,1.131,1.4994,139.5,96.2,0.553
24.18,32204.2,35585.4,0.8543,1.4391,139.5,96.2,0.553
24.2,32129.8,35290.8,0.543,0.7141,139.5,96.2,0.553
24.22,31993.7,35237.6,-0.027,0.5831,139.5,96.2,0.553
24.24,32019.8,35103.3,0.0826,0.2525,139.5,96.2,0.553
24.26,31929.0,35072.7,-0.2976,0.1774,139.5,96.2,0.553
24.28,31963.8,34964.1,-0.1521,-0.09,139.5,96.2,0.553
24.3,31952.2,34889.1,-0.2005,-0.2747,139.5,96.2,0.553
24.32,31929.1,34758.6,-0.2973,-0.5958,139.5,96.2,0.553
24.34,31818.3,34663.4,-0.761,-0.8301,139.5,96.2,0.553
24.36,31768.2,34659.5,-0.9706,-0.8397,139.5,96.2,0.553
24.38,31812.4,34672.0,-0.7856,-0.8088,139.5,96.2,0.553
24.4,31810.2,34564.0,-0.7951,-1.0746,139.5,96.2,0.553
24.42,31786.9,34604.4,-0.8924,-0.9752,139.5,96.2,0.553
24.44,31781.7,34455.0,-0.9141,-1.3431,139.5,96.2,0.553
24.46,31751.8,34401.9,-1.0395,-1.4736,139.5,96.2,0.553
24.48,31846.7,34579.1,-0.6421,-1.0375,139.5,96.2,0.553
24.5,32043.5,34937.7,0.1814,-0.155,139.5,96.2,0.553
24.52,32054.3,35364.0,0.2268,0.8941,139.5,96.2,0.553
24.54,32255.8,35509.3,1.0703,1.2518,139.5,96.2,0.553
24.56,32432.0,35685.3,1.8076,1.6849,139.5,96.2,0.553
24.58,32354.7,35751.7,1.4844,1.8485,139.5,96.2,0.553
24.6,32282.1,35621.8,1.1802,1.5287,139.5,96.2,0.553
24.62,32271.5,35396.6,1.1359,0.9743,139.5,96.2,0.553
24.64,32041.9,35162.7,0.1748,0.3987,139.5,96.2,0.553
24.66,32058.1,35266.9,0.2428,0.6551,139.5,96.2,0.553
24.68,32081.5,35096.9,0.3407,0.2369,139.5,96.2,0.553
24.7,31979.7,35128.4,-0.0853,0.3144,139.5,96.2,0.553
24.72,32046.0,34992.6,0.1922,-0.0199,139.5,96.2,0.553
24.74,31849.9,34883.3,-0.6287,-0.2888,139.5,96.2,0.553
24.76,31862.7,34686.1,-0.5752,-0.7742,139.5,96.2,0.553
24.78,31826.8,34707.2,-0.7254,-0.7223,139.5,96.2,0.553
24.8,31850.1,34620.7,-0.6281,-0.9352,139.5,96.2,0.553
24.82,31890.3,34606.7,-0.4595,-0.9695,139.5,96.2,0.553
24.84,31777.7,34560.6,-0.9311,-1.0832,139.5,96.2,0.553
24.86,31755.0,34485.1,-1.0259,-1.2688,139.5,96.2,0.553
24.88,31605.9,34443.3,-1.6499,-1.3717,139.5,96.2,0.553
24.9,31789.0,34517.1,-0.8838,-1.1901,139.5,96.2,0.553
24.92,31868.4,34776.2,-0.5515,-0.5524,139.5,96.2,0.553
24.94,32039.1,35058.6,0.1633,0.1426,139.5,96.2,0.553
24.96,32148.0,35425.7,0.6192,1.0461,139.5,96.2,0.553
24.98,32289.1,35660.5,1.2098,1.6239,139.5,96.2,0.553
25.0,32399.5,35767.5,1.6719,1.8873,139.5,96.2,0.553
25.02,32386.1,35604.9,1.6156,1.4871,139.5,96.2,0.553
25.04,32206.7,35450.2,0.8648,1.1064,139.5,96.2,0.553
25.06,32043.5,35258.9,0.1815,0.6356,139.5,96.2,0.553
25.08,32119.2,35127.4,0.4985,0.3119,139.5,96.2,0.553
25.1,32077.3,35120.2,0.3232,0.2943,139.5,96.2,0.553
25.12,32033.4,35066.0,0.1394,0.1609,139.5,96.2,0.553
25.14,31968.7,34952.1,-0.1313,-0.1196,139.5,96.2,0.553
25.16,31896.4,34768.1,-0.434,-0.5725,139.5,96.2,0.553
25.18,31922.9,34740.8,-0.3232,-0.6396,139.5,96.2,0.553
25.2,31737.1,34662.0,-1.1008,-0.8335,139.5,96.2,0.553
25.22,31890.2,34665.6,-0.4602,-0.8246,139.5,96.2,0.553
25.24,31903.5,34696.2,-0.4045,-0.7494,139.5,96.2,0.553
25.26,31845.4,34667.5,-0.6477,-0.82,139.5,96.2,0.553
25.28,31747.8,34532.5,-1.0559,-1.1523,139.5,96.2,0.553
25.3,31721.5,34527.5,-1.1661,-1.1645,139.5,96.2,0.553
25.32,31670.2,34402.0,-1.3811,-1.4734,139.5,96.2,0.553
25.34,31736.3,34646.1,-1.1044,-0.8727,139.5,96.2,0.553
25.36,31952.1,34918.4,-0.201,-0.2026,139.5,96.2,0.553
25.38,32064.0,35206.7,0.2674,0.5071,139.5,96.2,0.553
25.4,32302.0,35652.7,1.2636,1.6047,139.5,96.2,0.553
25.42,32312.5,35795.0,1.3075,1.955,139.5,96.2,0.553
25.44,32373.6,35785.1,1.5634,1.9306,139.5,96.2,0.553
25.46,32340.2,35571.9,1.4234,1.4059,139.5,96.2,0.553
25.48,32236.9,35361.3,0.9913,0.8877,139.5,96.2,0.553
25.5,32073.0,35192.2,0.3053,0.4713,139.5,96.2,0.553
25.52,32084.7,35141.2,0.3542,0.3459,139.5,96.2,0.553
25.54,32121.9,35119.8,0.5099,0.2933,139.5,96.2,0.553
25.56,32039.2,34936.1,0.1637,-0.159,139.5,96.2,0.553
25.58,32011.7,35009.3,0.0485,0.0212,139.5,96.2,0.553
25.6,31855.3,34695.2,-0.6061,-0.7518,139.5,96.2,0.553
25.62,31868.8,34804.9,-0.5498,-0.4817,139.5,96.2,0.553
25.64,31784.9,34652.3,-0.9008,-0.8575,139.5,96.2,0.553
25.66,31776.6,34724.5,-0.9355,-0.6798,139.5,96.2,0.553
25.68,31857.6,34678.0,-0.5964,-0.7942,139.5,96.2,0.553
25.7,31875.7,34532.8,-0.5209,-1.1516,139.5,96.2,0.553
25.72,31771.1,34493.7,-0.9587,-1.2478,139.5,96.2,0.553
25.74,31700.9,34359.2,-1.2524,-1.5787,139.5,96.2,0.553
25.76,31730.5,34548.5,-1.1286,-1.1128,139.5,96.2,0.553
25.78,31861.1,34702.6,-0.582,-0.7336,139.5,96.2,0.553
25.8,32036.5,35129.7,0.1521,0.3176,139.5,96.2,0.553
25.82,32246.2,35525.9,1.03,1.2927,139.5,96.2,0.553
25.84,32434.8,35645.5,1.8197,1.587,139.5,96.2,0.553
25.86,32381.7,35705.5,1.5972,1.7346,139.5,96.2,0.553
25.88,32325.9,35651.7,1.3635,1.6022,139.5,96.2,0.553
25.9,32226.4,35430.4,0.9472,1.0576,139.5,96.2,0.553
25.92,32153.3,35331.5,0.6411,0.8142,139.5,96.2,0.553
25.94,32084.0,35133.8,0.351,0.3276,139.5,96.2,0.553
25.96,32057.2,35089.5,0.2388,0.2187,139.5,96.2,0.553
25.98,32030.3,35012.1,0.1264,0.028,139.5,96.2,0.553
26.0,32074.9,34977.4,0.3129,-0.0574,139.5,96.2,0.553
26.02,32019.6,34973.9,0.0815,-0.0659,139.5,96.2,0.553
26.04,31898.7,34683.4,-0.4244,-0.7809,139.5,96.2,0.553
26.06,31856.1,34721.9,-0.6029,-0.6861,139.5,96.2,0.553
26.08,31833.1,34708.5,-0.6992,-0.7191,139.5,96.2,0.553
26.1,31796.0,34650.1,-0.8543,-0.8627,139.5,96.2,0.553
26.12,31803.2,34656.2,-0.8244,-0.8478,139.5,96.2,0.553
26.14,31691.8,34564.1,-1.2906,-1.0744,139.5,96.2,0.553
26.16,31745.6,34482.3,-1.0655,-1.2758,139.5,96.2,0.553
26.18,31734.5,34456.3,-1.112,-1.3397,139.5,96.2,0.553
26.2,31809.8,34599.0,-0.7967,-0.9886,139.5,96.2,0.553
26.22,31919.8,35012.5,-0.3363,0.0292,139.5,96.2,0.553
26.24,32193.6,35204.9,0.8098,0.5027,139.5,96.2,0.553
26.26,32208.0,35626.5,0.8701,1.5404,139.5,96.2,0.553
26.28,32402.4,35760.8,1.6838,1.8708,139.5,96.2,0.553
26.3,32412.0,35723.8,1.7239,1.7797,139.5,96.2,0.553
26.32,32301.8,35570.1,1.2629,1.4015,139.5,96.2,0.553
26.34,32219.8,35377.0,0.9197,0.9262,139.5,96.2,0.553
26.36,32109.6,35212.7,0.4585,0.5217,139.5,96.2,0.553
26.38,32142.5,35143.9,0.5959,0.3524,139.5,96.2,0.553
26.4,32030.1,35133.6,0.1254,0.3272,139.5,96.2,0.553
26.42,32070.0,35009.4,0.2927,0.0214,139.5,96.2,0.553
26.44,31945.0,34994.6,-0.2305,-0.015,139.5,96.2,0.553
26.46,31874.0,34751.5,-0.5278,-0.6133,139.5,96.2,0.553
26.48,31809.7,34729.0,-0.7969,-0.6687,139.5,96.2,0.553
26.5,31834.7,34647.9,-0.6922,-0.8683,139.5,96.2,0.553
26.52,31822.0,34680.4,-0.7456,-0.7883,139.5,96.2,0.553
26.54,31790.4,34711.3,-0.8777,-0.7122,139.5,96.2,0.553
26.56,31791.1,34599.2,-0.8748,-0.9881,139.5,96.2,0.553
26.58,31821.9,34483.0,-0.7458,-1.2741,139.5,96.2,0.553
26.6,31693.6,34420.5,-1.2829,-1.4278,139.5,96.2,0.553
26.62,31725.9,34594.3,-1.1479,-1.0002,139.5,96.2,0.553
26.64,31878.5,34872.6,-0.509,-0.3152,139.5,96.2,0.553
26.66,32017.6,35132.3,0.073,0.3239,139.5,96.2,0.553
26.68,32229.1,35459.9,0.9584,1.1302,139.5,96.2,0.553
26.7,32364.5,35730.1,1.5254,1.7951,139.5,96.2,0.553
26.72,32411.9,35701.1,1.7235,1.7239,139.5,96.2,0.553
26.74,32309.1,35634.8,1.2934,1.5608,139.5,96.2,0.553
26.76,32279.3,35470.5,1.1685,1.1562,139.5,96.2,0.553
26.78,32116.4,35289.2,0.4868,0.7101,139.5,96.2,0.553
26.8,32118.0,35234.3,0.4935,0.5751,139.5,96.2,0.553
26.82,32092.3,35109.4,0.3858,0.2676,139.5,96.2,0.553
26.84,32008.9,35123.6,0.0369,0.3025,139.5,96.2,0.553
26.86,32022.0,35079.7,0.0915,0.1945,139.5,96.2,0.553
26.88,31918.3,34916.3,-0.3423,-0.2076,139.5,96.2,0.553
26.9,31855.1,34697.7,-0.6071,-0.7457,139.5,96.2,0.553
26.92,31849.0,34690.1,-0.6326,-0.7642,139.5,96.2,0.553
26.94,31861.3,34661.4,-0.5812,-0.8351,139.5,96.2,0.553
26.96,31797.2,34711.4,-0.8493,-0.7119,139.5,96.2,0.553
26.98,31845.9,34598.4,-0.6454,-0.99,139.5,96.2,0.553
27.0,31746.3,34494.3,-1.0623,-1.2462,139.5,96.2,0.553
27.02,31765.7,34484.1,-0.9812,-1.2713,139.5,96.2,0.553
27.04,31808.4,34441.2,-0.8023,-1.377,139.5,96.2,0.553
27.06,31790.6,34648.4,-0.8771,-0.8669,139.5,96.2,0.553
27.08,31995.7,34893.3,-0.0187,-0.2644,139.5,96.2,0.553
27.1,32056.0,35229.0,0.234,0.5619,139.5,96.2,0.553
27.12,32211.8,35580.3,0.8861,1.4264,139.5,96.2,0.553
27.14,32470.2,35670.6,1.9676,1.6488,139.5,96.2,0.553
27.16,32292.1,35678.9,1.2224,1.6692,139.5,96.2,0.553
27.18,32272.4,35610.7,1.1398,1.5013,139.5,96.2,0.553
27.2,32108.6,35357.4,0.454,0.8779,139.5,96.2,0.553
27.22,32097.4,35215.7,0.4073,0.5292,139.5,96.2,0.553
27.24,32091.8,35111.1,0.3838,0.2716,139.5,96.2,0.553
27.26,32013.6,35048.2,0.0564,0.1168,139.5,96.2,0.553
27.28,31943.7,34935.6,-0.2362,-0.1601,139.5,96.2,0.553
27.3,31940.7,34901.2,-0.2488,-0.2447,139.5,96.2,0.553
27.32,31886.9,34806.5,-0.474,-0.4778,139.5,96.2,0.553
27.34,31839.2,34748.4,-0.6734,-0.621,139.5,96.2,0.553
27.36,31845.9,34633.1,-0.6454,-0.9046,139.5,96.2,0.553
27.38,31855.6,34626.8,-0.6049,-0.9201,139.5,96.2,0.553
27.4,31797.2,34681.5,-0.8492,-0.7855,139.5,96.2,0.553
27.42,31815.0,34604.4,-0.7748,-0.9754,139.5,96.2,0.553
27.44,31737.9,34525.7,-1.0977,-1.169,139.5,96.2,0.553
27.46,31753.5,34433.2,-1.0324,-1.3966,139.5,96.2,0.553
27.48,31744.5,34616.6,-1.0698,-0.9452,139.5,96.2,0.553
27.5,31920.4,34689.7,-0.3338,-0.7654,139.5,96.2,0.553
27.52,32008.1,35049.0,0.0335,0.119,139.5,96.2,0.553
27.54,32224.7,35438.0,0.94,1.0764,139.5,96.2,0.553
27.56,32411.2,35714.0,1.7209,1.7556,139.5,96.2,0.553
27.58,32442.5,35759.1,1.8517,1.8666,139.5,96.2,0.553
27.6,32301.6,35679.3,1.2621,1.6703,139.5,96.2,0.553
27.62,32297.2,35510.8,1.2437,1.2556,139.5,96.2,0.553
27.64,32096.6,35240.0,0.4041,0.5891,139.5,96.2,0.553
27.66,32085.5,35143.4,0.3573,0.3512,139.5,96.2,0.553
27.68,32036.4,35184.1,0.1517,0.4514,139.5,96.2,0.553
27.7,31974.8,35117.9,-0.1058,0.2884,139.5,96.2,0.553
27.72,31968.6,34946.6,-0.1318,-0.133,139.5,96.2,0.553
27.74,31957.7,34794.9,-0.1773,-0.5065,139.5,96.2,0.553
27.76,31871.2,34716.3,-0.5396,-0.6998,139.5,96.2,0.553
27.78,31841.4,34656.0,-0.6645,-0.8484,139.5,96.2,0.553
27.8,31826.0,34741.8,-0.7288,-0.6372,139.5,96.2,0.553
27.82,31730.8,34643.4,-1.1274,-0.8792,139.5,96.2,0.553
27.84,31718.3,34563.5,-1.1797,-1.0761,139.5,96.2,0.553
27.86,31821.0,34664.6,-0.7499,-0.8271,139.5,96.2,0.553
27.88,31752.2,34451.7,-1.0377,-1.3511,139.5,96.2,0.553
27.9,31795.3,34433.8,-0.8573,-1.3953,139.5,96.2,0.553
27.92,31776.7,34577.1,-0.935,-1.0425,139.5,96.2,0.553
27.94,31959.8,34911.7,-0.1686,-0.2191,139.5,96.2,0.553
27.96,32139.4,35304.9,0.5831,0.7487,139.5,96.2,0.553
27.98,32308.6,35520.2,1.2913,1.2787,139.5,96.2,0.553
28.0,32380.5,35844.3,1.5921,2.0763,139.5,96.2,0.553
28.02,32353.6,35682.2,1.4798,1.6773,139.5,96.2,0.553
28.04,32252.6,35592.7,1.057,1.4571,139.5,96.2,0.553
28.06,32254.9,35337.6,1.0665,0.8291,139.5,96.2,0.553
28.08,32198.5,35258.7,0.8304,0.6351,139.5,96.2,0.553
28.1,32070.5,35169.4,0.2946,0.4153,139.5,96.2,0.553
28.12,32142.7,35162.5,0.5967,0.3982,139.5,96.2,0.553
28.14,32052.6,35062.0,0.2196,0.1508,139.5,96.2,0.553
28.16,32048.1,34865.6,0.201,-0.3325,139.5,96.2,0.553
28.18,31883.7,34859.1,-0.4874,-0.3485,139.5,96.2,0.553
28.2,31889.6,34736.7,-0.4627,-0.6498,139.5,96.2,0.553
28.22,31819.5,34623.6,-0.7558,-0.928,139.5,96.2,0.553
28.24,31841.2,34763.1,-0.6651,-0.5847,139.5,96.2,0.553
28.26,31801.3,34609.8,-0.8322,-0.962,139.5,96.2,0.553
28.28,31867.0,34594.5,-0.5573,-0.9996,139.5,96.2,0.553
28.3,31790.1,34524.2,-0.879,-1.1726,139.5,96.2,0.553
28.32,31711.4,34469.9,-1.2087,-1.3062,139.5,96.2,0.553
28.34,31708.1,34489.2,-1.2224,-1.2589,139.5,96.2,0.553
28.36,31823.3,34818.4,-0.74,-0.4486,139.5,96.2,0.553
28.38,32069.7,35113.4,0.2912,0.2775,139.5,96.2,0.553
28.4,32201.0,35441.5,0.8407,1.0849,139.5,96.2,0.553
28.42,32293.6,35688.9,1.2286,1.6938,139.5,96.2,0.553
28.44,32421.8,35767.5,1.765,1.8872,139.5,96.2,0.553
28.46,32274.2,35572.8,1.1473,1.408,139.5,96.2,0.553
28.48,32197.9,35473.6,0.8278,1.164,139.5,96.2,0.553
28.5,32146.6,35292.0,0.6133,0.717,139.5,96.2,0.553
28.52,32075.3,35188.3,0.3148,0.4618,139.5,96.2,0.553
28.54,32059.0,35087.2,0.2464,0.2129,139.5,96.2,0.553
28.56,32085.3,34933.7,0.3567,-0.1649,139.5,96.2,0.553
28.58,32006.7,35066.1,0.0274,0.1611,139.5,96.2,0.553
28.6,31951.3,34834.5,-0.2044,-0.4091,139.5,96.2,0.553
28.62,31888.2,34827.6,-0.4686,-0.426,139.5,96.2,0.553
28.64,31892.2,34683.2,-0.4516,-0.7813,139.5,96.2,0.553
28.66,31893.8,34663.6,-0.445,-0.8295,139.5,96.2,0.553
28.68,31910.3,34691.7,-0.3759,-0.7603,139.5,96.2,0.553
28.7,31871.3,34619.7,-0.5392,-0.9375,139.5,96.2,0.553
28.72,31768.1,34508.2,-0.971,-1.212,139.5,96.2,0.553
28.74,31732.9,34501.3,-1.1187,-1.229,139.5,96.2,0.553
28.76,31699.8,34371.9,-1.257,-1.5474,139.5,96.2,0.553
28.78,31825.6,34523.5,-0.7303,-1.1744,139.5,96.2,0.553
28.8,31863.0,34833.7,-0.5738,-0.4109,139.5,96.2,0.553
28.82,32087.2,35287.3,0.3644,0.7055,139.5,96.2,0.553
28.84,32356.2,35464.3,1.4904,1.1411,139.5,96.2,0.553
28.86,32329.4,35686.3,1.3783,1.6875,139.5,96.2,0.553
28.88,32340.8,35773.3,1.4259,1.9015,139.5,96.2,0.553
28.9,32356.7,35542.1,1.4926,1.3324,139.5,96.2,0.553
28.92,32128.0,35339.5,0.5352,0.8338,139.5,96.2,0.553
28.94,32047.1,35169.3,0.1968,0.4151,139.5,96.2,0.553
28.96,32071.2,35122.7,0.2974,0.3003,139.5,96.2,0.553
28.98,31951.1,35061.9,-0.2052,0.1506,139.5,96.2,0.553
29.0,31897.7,34888.1,-0.4285,-0.277,139.5,96.2,0.553
29.02,31925.2,34959.2,-0.3134,-0.1022,139.5,96.2,0.553
29.04,31813.6,34853.7,-0.7805,-0.3616,139.5,96.2,0.553
29.06,31978.4,34762.4,-0.0908,-0.5864,139.5,96.2,0.553
29.08,31810.3,34759.5,-0.7945,-0.5936,139.5,96.2,0.553
29.1,31882.9,34610.3,-0.4907,-0.9606,139.5,96.2,0.553
29.12,31806.6,34696.1,-0.8102,-0.7496,139.5,96.2,0.553
29.14,31755.6,34479.9,-1.0235,-1.2817,139.5,96.2,0.553
29.16,31719.3,34580.1,-1.1754,-1.035,139.5,96.2,0.553
29.18,31788.9,34449.7,-0.884,-1.3561,139.5,96.2,0.553
29.2,31834.5,34498.5,-0.693,-1.2359,139.5,96.2,0.553
29.22,31810.9,34640.5,-0.7919,-0.8864,139.5,96.2,0.553
29.24,32065.4,35016.5,0.2735,0.0391,139.5,96.2,0.553
29.26,32303.4,35401.7,1.2697,0.9869,139.5,96.2,0.553
29.28,32362.4,35650.2,1.5167,1.5986,139.5,96.2,0.553
29.3,32433.4,35789.2,1.8137,1.9407,139.5,96.2,0.553
29.32,32220.7,35691.6,0.9235,1.7004,139.5,96.2,0.553
29.34,32143.4,35432.8,0.5998,1.0636,139.5,96.2,0.553
29.36,32163.1,35300.2,0.6821,0.7371,139.5,96.2,0.553
29.38,32060.3,35235.3,0.2519,0.5774,139.5,96.2,0.553
29.4,32138.4,35040.0,0.5787,0.0969,139.5,96.2,0.553
29.42,31995.7,35049.5,-0.0185,0.1202,139.5,96.2,0.553
29.44,32112.2,34960.7,0.4693,-0.0985,139.5,96.2,0.553
29.46,31974.2,34954.8,-0.1083,-0.1128,139.5,96.2,0.553
29.48,31897.9,34790.9,-0.4277,-0.5163,139.5,96.2,0.553
29.5,31882.9,34710.1,-0.4906,-0.7152,139.5,96.2,0.553
29.52,31801.9,34668.2,-0.8298,-0.8183,139.5,96.2,0.553
29.54,31827.3,34637.1,-0.7235,-0.8947,139.5,96.2,0.553
29.56,31686.6,34566.7,-1.3124,-1.0681,139.5,96.2,0.553
29.58,31725.4,34541.8,-1.1499,-1.1293,139.5,96.2,0.553
29.6,31750.3,34580.8,-1.0456,-1.0334,139.5,96.2,0.553
29.62,31675.0,34520.6,-1.3607,-1.1816,139.5,96.2,0.553
29.64,31846.2,34668.9,-0.6443,-0.8166,139.5,96.2,0.553
29.66,31924.9,34823.6,-0.3148,-0.4359,139.5,96.2,0.553
29.68,32099.0,35134.6,0.4141,0.3295,139.5,96.2,0.553
29.7,32310.6,35523.4,1.2996,1.2866,139.5,96.2,0.553
29.72,32395.3,35683.0,1.654,1.6794,139.5,96.2,0.553
29.74,32297.8,35736.8,1.2461,1.8117,139.5,96.2,0.553
29.76,32440.0,35703.8,1.8413,1.7306,139.5,96.2,0.553
29.78,32329.9,35347.5,1.3804,0.8536,139.5,96.2,0.553
29.8,32085.4,35271.9,0.3571,0.6676,139.5,96.2,0.553
29.82,32063.7,35115.9,0.2663,0.2836,139.5,96.2,0.553
29.84,31949.6,35108.6,-0.2114,0.2657,139.5,96.2,0.553
29.86,31934.3,35011.0,-0.2756,0.0254,139.5,96.2,0.553
29.88,32008.2,34914.5,0.0337,-0.2121,139.5,96.2,0.553
29.9,31867.0,34773.9,-0.5571,-0.5582,139.5,96.2,0.553
29.92,31922.6,34773.4,-0.3243,-0.5593,139.5,96.2,0.553
29.94,31862.9,34657.6,-0.5745,-0.8444,139.5,96.2,0.553
29.96,31832.7,34637.0,-0.7009,-0.8952,139.5,96.2,0.553
29.98,31735.5,34634.8,-1.1075,-0.9004,139.5,96.2,0.553
30.0,31724.7,34578.5,-1.1527,-1.039,139.5,96.2,0.553
30.02,31769.2,34411.5,-0.9666,-1.45,139.5,96.2,0.553
30.04,31698.4,34481.4,-1.2628,-1.278,139.5,96.2,0.553
30.06,31691.6,34561.4,-1.2913,-1.0812,139.5,96.2,0.553
30.08,31761.8,34773.1,-0.9977,-0.5601,139.5,96.2,0.553
30.1,31882.8,35078.7,-0.4909,0.1919,139.5,96.2,0.553
30.12,32199.6,35457.1,0.8351,1.1234,139.5,96.2,0.553
30.14,32362.2,35711.7,1.5157,1.75,139.5,96.2,0.553
30.16,32385.1,35711.8,1.6113,1.7503,139.5,96.2,0.553
30.18,32315.1,35759.0,1.3187,1.8664,139.5,96.2,0.553
30.2,32325.9,35451.9,1.3638,1.1104,139.5,96.2,0.553
30.22,32289.8,35301.7,1.2124,0.7409,139.5,96.2,0.553
30.24,32006.1,35200.3,0.025,0.4914,139.5,96.2,0.553
30.26,31943.9,35056.5,-0.2351,0.1375,139.5,96.2,0.553
30.28,31942.9,35056.1,-0.2395,0.1365,139.5,96.2,0.553
30.3,32011.3,34888.0,0.0467,-0.2774,139.5,96.2,0.553
30.32,31972.1,35014.4,-0.1172,0.0338,139.5,96.2,0.553
30.34,31970.6,34807.4,-0.1234,-0.4758,139.5,96.2,0.553
30.36,31838.9,34593.7,-0.6747,-1.0017,139.5,96.2,0.553
30.38,31925.5,34660.5,-0.3121,-0.8372,139.5,96.2,0.553
30.4,31846.9,34653.1,-0.6412,-0.8554,139.5,96.2,0.553
30.42,31881.1,34543.3,-0.4983,-1.1258,139.5,96.2,0.553
30.44,31728.7,34561.1,-1.1361,-1.0819,139.5,96.2,0.553
30.46,31748.3,34512.6,-1.0539,-1.2012,139.5,96.2,0.553
30.48,31742.2,34440.4,-1.0794,-1.3788,139.5,96.2,0.553
30.5,31873.4,34579.5,-0.5304,-1.0366,139.5,96.2,0.553
30.52,31952.9,34904.1,-0.1975,-0.2376,139.5,96.2,0.553
30.54,32185.5,35208.4,0.7761,0.5111,139.5,96.2,0.553
30.56,32244.9,35570.7,1.0248,1.4029,139.5,96.2,0.553
30.58,32410.3,35788.4,1.7168,1.9388,139.5,96.2,0.553
30.6,32389.4,35676.9,1.6296,1.6643,139.5,96.2,0.553
30.62,32296.6,35661.8,1.2412,1.6271,139.5,96.2,0.553
30.64,32223.9,35401.0,0.9368,0.9854,139.5,96.2,0.553
30.66,32187.2,35196.1,0.7833,0.481,139.5,96.2,0.553
30.68,32039.3,35216.4,0.164,0.531,139.5,96.2,0.553
30.7,32055.9,35077.9,0.2334,0.19,139.5,96.2,0.553
30.72,31899.2,35044.2,-0.4226,0.1071,139.5,96.2,0.553
30.74,31843.9,35016.5,-0.654,0.0388,139.5,96.2,0.553
30.76,31902.0,34808.8,-0.4107,-0.4723,139.5,96.2,0.553
30.78,31863.5,34717.2,-0.5719,-0.6976,139.5,96.2,0.553
30.8,31807.7,34674.8,-0.8053,-0.8021,139.5,96.2,0.553
30.82,31773.7,34647.9,-0.9478,-0.8681,139.5,96.2,0.553
30.84,31890.5,34620.4,-0.4589,-0.9359,139.5,96.2,0.553
30.86,31738.5,34568.7,-1.0949,-1.0631,139.5,96.2,0.553
30.88,31727.6,34538.9,-1.1408,-1.1366,139.5,96.2,0.553
30.9,31748.1,34428.6,-1.0547,-1.4079,139.5,96.2,0.553
30.92,31726.5,34575.4,-1.1451,-1.0467,139.5,96.2,0.553
30.94,31916.1,34746.9,-0.3516,-0.6245,139.5,96.2,0.553
30.96,32021.6,35045.5,0.09,0.1104,139.5,96.2,0.553
30.98,32211.0,35378.9,0.8827,0.9309,139.5,96.2,0.553
31.0,32357.2,35705.6,1.4946,1.735,139.5,96.2,0.553
31.02,32433.7,35810.4,1.8148,1.9929,139.5,96.2,0.553
31.04,32332.7,35641.0,1.3922,1.5758,139.5,96.2,0.553
31.06,32302.9,35532.1,1.2675,1.3078,139.5,96.2,0.553
31.08,32112.5,35286.0,0.4706,0.7021,139.5,96.2,0.553
31.1,32137.2,35162.2,0.5736,0.3975,139.5,96.2,0.553
31.12,32005.1,35118.4,0.021,0.2897,139.5,96.2,0.553
31.14,31988.0,35122.0,-0.0506,0.2986,139.5,96.2,0.553
31.16,31916.1,35081.6,-0.3518,0.1991,139.5,96.2,0.553
31.18,31889.4,34924.3,-0.4635,-0.1879,139.5,96.2,0.553
31.2,31858.4,34747.3,-0.593,-0.6235,139.5,96.2,0.553
31.22,31877.6,34620.7,-0.5126,-0.9352,139.5,96.2,0.553
31.24,31784.9,34690.2,-0.9008,-0.7641,139.5,96.2,0.553
31.26,31864.8,34696.7,-0.5663,-0.748,139.5,96.2,0.553
31.28,31855.5,34562.8,-0.6053,-1.0776,139.5,96.2,0.553
31.3,31722.7,34514.9,-1.161,-1.1955,139.5,96.2,0.553
31.32,31722.7,34464.0,-1.1614,-1.3208,139.5,96.2,0.553
31.34,31716.3,34485.2,-1.1878,-1.2687,139.5,96.2,0.553
31.36,31780.0,34509.0,-0.9212,-1.2102,139.5,96.2,0.553
31.38,32021.0,34959.7,0.0876,-0.1008,139.5,96.2,0.553
31.4,32065.4,35263.6,0.2734,0.6472,139.5,96.2,0.553
31.42,32297.4,35601.8,1.2445,1.4794,139.5,96.2,0.553
31.44,32343.2,35778.0,1.436,1.9131,139.5,96.2,0.553
31.46,32416.9,35728.2,1.7444,1.7906,139.5,96.2,0.553
31.48,32332.1,35589.9,1.3895,1.4502,139.5,96.2,0.553
31.5,32242.4,35422.6,1.014,1.0385,139.5,96.2,0.553
31.52,32149.7,35305.7,0.6262,0.7507,139.5,96.2,0.553
31.54,32050.4,35154.1,0.2105,0.3776,139.5,96.2,0.553
31.56,32080.6,35105.1,0.3367,0.2569,139.5,96.2,0.553
31.58,32054.2,35133.5,0.2263,0.3269,139.5,96.2,0.553
31.6,31982.9,34883.4,-0.072,-0.2885,139.5,96.2,0.553
31.62,31912.6,34862.5,-0.3663,-0.3401,139.5,96.2,0.553
31.64,31849.0,34684.1,-0.6325,-0.7792,139.5,96.2,0.553
31.66,31910.0,34675.4,-0.3771,-0.8005,139.5,96.2,0.553
31.68,31723.3,34678.7,-1.1585,-0.7925,139.5,96.2,0.553
31.7,31782.8,34602.2,-0.9096,-0.9807,139.5,96.2,0.553
31.72,31811.8,34537.8,-0.788,-1.1391,139.5,96.2,0.553
31.74,31782.6,34522.5,-0.9102,-1.1769,139.5,96.2,0.553
31.76,31780.6,34422.7,-0.9189,-1.4225,139.5,96.2,0.553
31.78,31736.1,34493.7,-1.1052,-1.2476,139.5,96.2,0.553
31.8,31886.6,34765.8,-0.4752,-0.5781,139.5,96.2,0.553
31.82,32035.9,35039.9,0.1497,0.0966,139.5,96.2,0.553
31.84,32232.6,35533.5,0.973,1.3113,139.5,96.2,0.553
31.86,32280.3,35678.8,1.1729,1.6689,139.5,96.2,0.553
31.88,32419.2,35784.1,1.7543,1.9282,139.5,96.2,0.553
31.9,32356.4,35723.2,1.4912,1.7783,139.5,96.2,0.553
31.92,32247.3,35507.3,1.0348,1.2468,139.5,96.2,0.553
31.94,32178.7,35212.2,0.7477,0.5207,139.5,96.2,0.553
31.96,32098.0,35102.0,0.4097,0.2493,139.5,96.2,0.553
31.98,32028.4,35110.1,0.1183,0.2694,139.5,96.2,0.553
32.0,31945.9,35141.2,-0.2271,0.3458,139.5,96.2,0.553
32.02,32053.9,34976.3,0.2251,-0.0599,139.5,96.2,0.553
32.04,31896.2,34785.8,-0.4349,-0.5287,139.5,96.2,0.553
32.06,31948.0,34815.9,-0.2183,-0.4546,139.5,96.2,0.553
32.08,31829.5,34740.1,-0.7142,-0.6414,139.5,96.2,0.553
32.1,31811.4,34649.6,-0.7901,-0.8641,139.5,96.2,0.553
32.12,31799.0,34610.5,-0.842,-0.9603,139.5,96.2,0.553
32.14,31768.6,34682.8,-0.9689,-0.7823,139.5,96.2,0.553
32.16,31743.6,34558.0,-1.0737,-1.0896,139.5,96.2,0.553
32.18,31695.1,34517.0,-1.2765,-1.1904,139.5,96.2,0.553
32.2,31794.0,34518.0,-0.8628,-1.1879,139.5,96.2,0.553
32.22,31761.0,34591.5,-1.0009,-1.0069,139.5,96.2,0.553
32.24,31904.8,34870.4,-0.399,-0.3206,139.5,96.2,0.553
32.26,32104.3,35190.6,0.4362,0.4673,139.5,96.2,0.553
32.28,32311.2,35571.1,1.3022,1.4039,139.5,96.2,0.553
32.3,32380.7,35744.8,1.5931,1.8315,139.5,96.2,0.553
32.32,32358.1,35741.7,1.4986,1.8238,139.5,96.2,0.553
32.34,32200.7,35697.1,0.8396,1.7141,139.5,96.2,0.553
32.36,32260.4,35424.6,1.0894,1.0432,139.5,96.2,0.553
32.38,32059.6,35250.1,0.2489,0.6139,139.5,96.2,0.553
32.4,32131.1,35140.4,0.5481,0.3439,139.5,96.2,0.553
32.42,32053.0,35063.8,0.2216,0.1552,139.5,96.2,0.553
32.44,31901.9,35108.4,-0.4112,0.2652,139.5,96.2,0.553
32.46,32031.6,34994.1,0.1319,-0.0163,139.5,96.2,0.553
32.48,31939.2,34882.6,-0.2549,-0.2906,139.5,96.2,0.553
32.5,31869.3,34705.0,-0.5477,-0.7277,139.5,96.2,0.553
32.52,31833.6,34797.5,-0.6969,-0.5001,139.5,96.2,0.553
32.54,31858.2,34570.9,-0.5939,-1.0577,139.5,96.2,0.553
32.56,31829.6,34617.6,-0.7137,-0.9427,139.5,96.2,0.553
32.58,31780.7,34575.9,-0.9182,-1.0455,139.5,96.2,0.553
32.6,31694.4,34556.4,-1.2796,-1.0935,139.5,96.2,0.553
32.62,31746.0,34435.2,-1.0635,-1.3917,139.5,96.2,0.553
32.64,31736.6,34503.1,-1.1032,-1.2245,139.5,96.2,0.553
32.66,31889.1,34690.2,-0.4645,-0.7641,139.5,96.2,0.553
32.68,31938.1,35037.8,-0.2597,0.0914,139.5,96.2,0.553
32.7,32266.5,35386.9,1.1151,0.9507,139.5,96.2,0.553
32.72,32245.8,35696.9,1.0283,1.7135,139.5,96.2,0.553
32.74,32347.7,35808.8,1.455,1.9889,139.5,96.2,0.553
32.76,32334.6,35665.2,1.3999,1.6354,139.5,96.2,0.553
32.78,32183.8,35478.9,0.7687,1.1769,139.5,96.2,0.553
32.8,32151.6,35248.0,0.6342,0.6087,139.5,96.2,0.553
32.82,31999.7,35065.8,-0.0016,0.1602,139.5,96.2,0.553
32.84,32021.9,35075.7,0.0913,0.1847,139.5,96.2,0.553
32.86,32109.2,34959.4,0.4567,-0.1017,139.5,96.2,0.553
32.88,32095.3,35075.0,0.3986,0.183,139.5,96.2,0.553
32.9,31889.0,34869.1,-0.465,-0.3239,139.5,96.2,0.553
32.92,31895.2,34865.2,-0.4393,-0.3334,139.5,96.2,0.553
32.94,31867.3,34648.5,-0.5558,-0.8667,139.5,96.2,0.553
32.96,31860.9,34669.0,-0.5829,-0.8163,139.5,96.2,0.553
32.98,31800.9,34649.2,-0.8337,-0.8651,139.5,96.2,0.553
33.0,31778.6,34613.4,-0.9271,-0.9532,139.5,96.2,0.553
33.02,31725.1,34607.7,-1.1512,-0.9673,139.5,96.2,0.553
33.04,31665.4,34455.9,-1.401,-1.3408,139.5,96.2,0.553
33.06,31763.9,34348.3,-0.9888,-1.6057,139.5,96.2,0.553
33.08,31792.7,34573.4,-0.8681,-1.0515,139.5,96.2,0.553
33.1,31977.1,34819.6,-0.0964,-0.4456,139.5,96.2,0.553
33.12,32159.5,35312.3,0.6673,0.7669,139.5,96.2,0.553
33.14,32268.7,35593.6,1.1244,1.4593,139.5,96.2,0.553
33.16,32416.5,35837.5,1.7427,2.0595,139.5,96.2,0.553
33.18,32408.5,35683.2,1.7093,1.6798,139.5,96.2,0.553
33.2,32301.7,35557.9,1.2622,1.3713,139.5,96.2,0.553
33.22,32193.9,35429.8,0.8112,1.0561,139.5,96.2,0.553
33.24,32115.4,35239.2,0.4826,0.5869,139.5,96.2,0.553
33.26,32032.4,35180.1,0.135,0.4416,139.5,96.2,0.553
33.28,32020.0,35097.1,0.0833,0.2373,139.5,96.2,0.553
33.3,32057.1,35063.4,0.2387,0.1544,139.5,96.2,0.553
33.32,32017.6,35012.8,0.0731,0.0299,139.5,96.2,0.553
33.34,31915.9,34735.9,-0.3523,-0.6516,139.5,96.2,0.553
33.36,31782.5,34800.6,-0.9107,-0.4923,139.5,96.2,0.553
33.38,31725.0,34599.8,-1.1514,-0.9866,139.5,96.2,0.553
33.4,31783.4,34677.4,-0.9073,-0.7957,139.5,96.2,0.553
33.42,31827.1,34572.6,-0.7241,-1.0535,139.5,96.2,0.553
33.44,31795.3,34521.7,-0.8571,-1.1788,139.5,96.2,0.553
33.46,31781.6,34487.3,-0.9148,-1.2636,139.5,96.2,0.553
33.48,31791.2,34512.0,-0.8744,-1.2028,139.5,96.2,0.553
33.5,31817.3,34482.4,-0.765,-1.2757,139.5,96.2,0.553
33.52,31807.7,34766.5,-0.8052,-0.5762,139.5,96.2,0.553
33.54,32004.1,35103.7,0.0165,0.2535,139.5,96.2,0.553
33.56,32190.1,35402.6,0.7952,0.9892,139.5,96.2,0.553
33.58,32353.4,35642.3,1.4787,1.579,139.5,96.2,0.553
33.6,32421.1,35795.8,1.7624,1.9568,139.5,96.2,0.553
33.62,32268.3,35699.1,1.1227,1.7188,139.5,96.2,0.553
33.64,32223.3,35573.6,0.9344,1.4101,139.5,96.2,0.553
33.66,32209.1,35340.4,0.8746,0.8361,139.5,96.2,0.553
33.68,32121.6,35186.5,0.5087,0.4574,139.5,96.2,0.553
33.7,32080.3,35144.1,0.3357,0.3531,139.5,96.2,0.553
33.72,32039.6,35002.5,0.1652,0.0044,139.5,96.2,0.553
33.74,31933.2,34999.6,-0.2801,-0.0026,139.5,96.2,0.553
33.76,31951.1,34877.3,-0.2052,-0.3036,139.5,96.2,0.553
33.78,31807.4,34705.2,-0.8067,-0.7272,139.5,96.2,0.553
33.8,31938.0,34712.9,-0.26,-0.7083,139.5,96.2,0.553
33.82,31840.3,34637.3,-0.6688,-0.8944,139.5,96.2,0.553
33.84,31848.9,34621.2,-0.633,-0.934,139.5,96.2,0.553
33.86,31861.2,34639.9,-0.5813,-0.8879,139.5,96.2,0.553
33.88,31844.1,34555.5,-0.6532,-1.0956,139.5,96.2,0.553
33.9,31684.4,34458.3,-1.3213,-1.335,139.5,96.2,0.553
33.92,31792.1,34473.4,-0.8708,-1.2977,139.5,96.2,0.553
33.94,31778.2,34650.5,-0.9287,-0.8618,139.5,96.2,0.553
33.96,31958.6,34828.5,-0.1738,-0.4238,139.5,96.2,0.553
33.98,32135.9,35213.3,0.5684,0.5234,139.5,96.2,0.553
34.0,32308.3,35585.4,1.2901,1.4391,139.5,96.2,0.553
34.02,32404.9,35746.5,1.6944,1.8355,139.5,96.2,0.553
34.04,32350.5,35847.9,1.4669,2.0851,139.5,96.2,0.553
34.06,32404.8,35593.2,1.694,1.4583,139.5,96.2,0.553
34.08,32192.9,35383.0,0.807,0.9409,139.5,96.2,0.553
34.1,32201.2,35303.2,0.8417,0.7447,139.5,96.2,0.553
34.12,32076.5,35087.8,0.3197,0.2144,139.5,96.2,0.553
34.14,32000.8,35054.8,0.003,0.1332,139.5,96.2,0.553
34.16,31951.4,35065.6,-0.2038,0.1598,139.5,96.2,0.553
34.18,32050.2,34961.6,0.2097,-0.0961,139.5,96.2,0.553
34.2,31950.1,34797.0,-0.2095,-0.5013,139.5,96.2,0.553
34.22,31899.5,34737.0,-0.4211,-0.6488,139.5,96.2,0.553
34.24,31788.2,34727.1,-0.8869,-0.6732,139.5,96.2,0.553
34.26,31924.8,34623.0,-0.3154,-0.9294,139.5,96.2,0.553
34.28,31848.7,34649.4,-0.6337,-0.8645,139.5,96.2,0.553
34.3,31821.5,34566.4,-0.7476,-1.0687,139.5,96.2,0.553
34.32,31656.5,34526.4,-1.4383,-1.1671,139.5,96.2,0.553
34.34,31655.0,34460.4,-1.4447,-1.3296,139.5,96.2,0.553
34.36,31760.1,34471.7,-1.0046,-1.3019,139.5,96.2,0.553
34.38,31965.9,34728.8,-0.1431,-0.6692,139.5,96.2,0.553
34.4,31928.6,35035.8,-0.2993,0.0866,139.5,96.2,0.553
34.42,32199.7,35410.4,0.8354,1.0083,139.5,96.2,0.553
34.44,32352.3,35683.6,1.4742,1.6809,139.5,96.2,0.553
34.46,32386.6,35754.2,1.6179,1.8544,139.5,96.2,0.553
34.48,32364.1,35743.6,1.5237,1.8285,139.5,96.2,0.553
34.5,32261.4,35558.2,1.0939,1.3723,139.5,96.2,0.553
34.52,32090.8,35342.7,0.3795,0.8418,139.5,96.2,0.553
34.54,32118.1,35110.0,0.494,0.269,139.5,96.2,0.553
34.56,32042.6,35038.5,0.1777,0.093,139.5,96.2,0.553
34.58,32095.7,35051.4,0.4002,0.1248,139.5,96.2,0.553
34.6,31934.2,35029.5,-0.276,0.0709,139.5,96.2,0.553
34.62,31877.4,34875.7,-0.5135,-0.3075,139.5,96.2,0.553
34.64,31873.7,34778.3,-0.5292,-0.5474,139.5,96.2,0.553
34.66,31883.7,34744.0,-0.4871,-0.6318,139.5,96.2,0.553
34.68,31756.9,34709.6,-1.0179,-0.7163,139.5,96.2,0.553
34.7,31849.0,34676.5,-0.6323,-0.7979,139.5,96.2,0.553
34.72,31842.6,34510.1,-0.6595,-1.2073,139.5,96.2,0.553
34.74,31709.7,34601.1,-1.2155,-0.9835,139.5,96.2,0.553
34.76,31813.2,34560.0,-0.7825,-1.0845,139.5,96.2,0.553
34.78,31663.5,34487.1,-1.4089,-1.2639,139.5,96.2,0.553
34.8,31788.6,34488.5,-0.8852,-1.2606,139.5,96.2,0.553
34.82,31906.6,34906.0,-0.3915,-0.233,139.5,96.2,0.553
34.84,32105.0,35282.0,0.4391,0.6923,139.5,96.2,0.553
34.86,32295.2,35621.1,1.2352,1.527,139.5,96.2,0.553
34.88,32368.1,35773.0,1.5401,1.9007,139.5,96.2,0.553
34.9,32278.0,35788.5,1.1631,1.9388,139.5,96.2,0.553
34.92,32290.5,35561.9,1.2155,1.3812,139.5,96.2,0.553
34.94,32248.8,35415.2,1.041,1.0202,139.5,96.2,0.553
34.96,31996.9,35242.0,-0.0134,0.5939,139.5,96.2,0.553
34.98,31983.5,35113.3,-0.0694,0.2773,139.5,96.2,0.553
35.0,32053.4,35095.6,0.223,0.2337,139.5,96.2,0.553
35.02,32062.5,35106.7,0.2612,0.261,139.5,96.2,0.553
35.04,32017.3,34961.0,0.0721,-0.0976,139.5,96.2,0.553
35.06,31905.1,34856.4,-0.3976,-0.355,139.5,96.2,0.553
35.08,31891.3,34769.8,-0.4554,-0.5682,139.5,96.2,0.553
35.1,31821.3,34665.1,-0.7483,-0.826,139.5,96.2,0.553
35.12,31821.6,34720.3,-0.7472,-0.6902,139.5,96.2,0.553
35.14,31843.6,34606.7,-0.6551,-0.9697,139.5,96.2,0.553
35.16,31849.1,34576.1,-0.632,-1.045,139.5,96.2,0.553
35.18,31737.3,34484.0,-1.1003,-1.2716,139.5,96.2,0.553
35.2,31810.2,34461.2,-0.7949,-1.3277,139.5,96.2,0.553
35.22,31804.9,34490.0,-0.8171,-1.2567,139.5,96.2,0.553
35.24,31889.3,34781.0,-0.4636,-0.5406,139.5,96.2,0.553
35.26,32051.2,35137.6,0.2137,0.337,139.5,96.2,0.553
35.28,32159.9,35466.5,0.6687,1.1464,139.5,96.2,0.553
35.3,32324.7,35744.9,1.3585,1.8317,139.5,96.2,0.553
35.32,32320.2,35793.0,1.3398,1.9501,139.5,96.2,0.553
35.34,32306.1,35625.4,1.2808,1.5375,139.5,96.2,0.553
35.36,32247.8,35469.5,1.0367,1.1539,139.5,96.2,0.553
35.38,32162.2,35325.7,0.6783,0.8,139.5,96.2,0.553
35.4,32115.8,35224.4,0.4843,0.5507,139.5,96.2,0.553
35.42,32154.1,35163.4,0.6444,0.4004,139.5,96.2,0.553
35.44,32179.5,34986.9,0.7509,-0.0339,139.5,96.2,0.553
35.46,32070.6,35007.1,0.2949,0.0159,139.5,96.2,0.553
35.48,31983.5,34913.2,-0.0697,-0.2154,139.5,96.2,0.553
35.5,31826.2,34771.7,-0.728,-0.5636,139.5,96.2,0.553
35.52,31881.0,34637.4,-0.4984,-0.8941,139.5,96.2,0.553
35.54,31920.9,34602.5,-0.3317,-0.9799,139.5,96.2,0.553
35.56,31925.5,34650.5,-0.3122,-0.8618,139.5,96.2,0.553
35.58,31913.5,34606.2,-0.3625,-0.9708,139.5,96.2,0.553
35.6,31832.5,34459.7,-0.7018,-1.3313,139.5,96.2,0.553
35.62,31679.0,34524.2,-1.3442,-1.1727,139.5,96.2,0.553
35.64,31660.1,34481.3,-1.4232,-1.2783,139.5,96.2,0.553
35.66,31745.9,34635.6,-1.064,-0.8985,139.5,96.2,0.553
35.68,31978.9,34805.9,-0.0887,-0.4793,139.5,96.2,0.553
35.7,32240.1,35294.8,1.0044,0.7238,139.5,96.2,0.553
35.72,32199.5,35574.3,0.8346,1.4117,139.5,96.2,0.553
35.74,32342.9,35738.6,1.4347,1.8162,139.5,96.2,0.553
35.76,32344.0,35695.7,1.4393,1.7106,139.5,96.2,0.553
35.78,32307.7,35605.0,1.2874,1.4873,139.5,96.2,0.553
35.8,32210.1,35370.6,0.8792,0.9105,139.5,96.2,0.553
35.82,32130.0,35245.8,0.5438,0.6033,139.5,96.2,0.553
35.84,32023.6,35110.0,0.0981,0.2689,139.5,96.2,0.553
35.86,32011.2,35070.2,0.0465,0.1711,139.5,96.2,0.553
35.88,31947.4,34950.7,-0.2208,-0.1229,139.5,96.2,0.553
35.9,31989.4,34947.2,-0.0448,-0.1316,139.5,96.2,0.553
35.92,31906.2,34790.0,-0.393,-0.5185,139.5,96.2,0.553
35.94,31871.4,34635.1,-0.5387,-0.8999,139.5,96.2,0.553
35.96,31842.4,34618.0,-0.6603,-0.9419,139.5,96.2,0.553
35.98,31853.1,34772.7,-0.6153,-0.5611,139.5,96.2,0.553
36.0,31768.9,34634.4,-0.9679,-0.9016,139.5,96.2,0.553
36.02,31768.8,34485.6,-0.9683,-1.2676,139.5,96.2,0.553
36.04,31737.0,34555.8,-1.1014,-1.0948,139.5,96.2,0.553
36.06,31680.6,34543.9,-1.3372,-1.1241,139.5,96.2,0.553
36.08,31636.4,34502.7,-1.5224,-1.2257,139.5,96.2,0.553
36.1,31942.6,34701.8,-0.2406,-0.7356,139.5,96.2,0.553
36.12,31915.1,35118.5,-0.356,0.2901,139.5,96.2,0.553
36.14,32261.3,35282.5,1.0932,0.6936,139.5,96.2,0.553
36.16,32307.1,35682.0,1.2852,1.6769,139.5,96.2,0.553
36.18,32302.1,35693.7,1.264,1.7055,139.5,96.2,0.553
36.2,32412.7,35629.1,1.7269,1.5467,139.5,96.2,0.553
36.22,32153.5,35469.9,0.6419,1.1547,139.5,96.2,0.553
36.24,32125.4,35268.0,0.5243,0.6578,139.5,96.2,0.553
36.26,32025.3,35178.2,0.1056,0.4369,139.5,96.2,0.553
36.28,31934.0,34986.6,-0.2768,-0.0346,139.5,96.2,0.553
36.3,32066.3,34990.1,0.2769,-0.026,139.5,96.2,0.553
36.32,32009.6,34969.2,0.0398,-0.0776,139.5,96.2,0.553
36.34,32040.7,34942.5,0.1701,-0.1431,139.5,96.2,0.553
36.36,31910.4,34750.6,-0.3754,-0.6154,139.5,96.2,0.553
36.38,31869.3,34646.4,-0.5475,-0.8718,139.5,96.2,0.553
36.4,31840.8,34710.9,-0.6667,-0.7131,139.5,96.2,0.553
36.42,31762.7,34665.5,-0.9936,-0.8248,139.5,96.2,0.553
36.44,31755.6,34603.6,-1.0235,-0.9772,139.5,96.2,0.553
36.46,31739.7,34656.4,-1.09,-0.8472,139.5,96.2,0.553
36.48,31760.9,34518.4,-1.0012,-1.187,139.5,96.2,0.553
36.5,31748.9,34495.6,-1.0515,-1.2431,139.5,96.2,0.553
36.52,31770.1,34602.2,-0.9626,-0.9808,139.5,96.2,0.553
36.54,31900.2,34868.2,-0.4182,-0.326,139.5,96.2,0.553
36.56,32156.1,35263.5,0.6528,0.6468,139.5,96.2,0.553
36.58,32323.3,35557.6,1.3526,1.3707,139.5,96.2,0.553
36.6,32401.9,35747.8,1.6817,1.8389,139.5,96.2,0.553
36.62,32395.3,35773.0,1.654,1.9008,139.5,96.2,0.553
36.64,32327.3,35611.2,1.3696,1.5026,139.5,96.2,0.553
36.66,32206.3,35366.7,0.8632,0.9009,139.5,96.2,0.553
36.68,32066.7,35184.3,0.2788,0.4519,139.5,96.2,0.553
36.7,32066.7,35160.7,0.2789,0.3938,139.5,96.2,0.553
36.72,32049.9,35046.3,0.2083,0.1123,139.5,96.2,0.553
36.74,32039.7,35049.3,0.1656,0.1196,139.5,96.2,0.553
36.76,31963.8,34968.5,-0.1518,-0.0792,139.5,96.2,0.553
36.78,31823.8,34882.1,-0.7378,-0.2917,139.5,96.2,0.553
36.8,31858.4,34757.3,-0.5932,-0.5991,139.5,96.2,0.553
36.82,31861.3,34701.3,-0.5811,-0.7368,139.5,96.2,0.553
36.84,31810.7,34672.1,-0.793,-0.8086,139.5,96.2,0.553
36.86,31800.8,34687.7,-0.8341,-0.7704,139.5,96.2,0.553
36.88,31864.6,34609.4,-0.5673,-0.9631,139.5,96.2,0.553
36.9,31738.2,34473.3,-1.0964,-1.2978,139.5,96.2,0.553
36.92,31717.3,34478.1,-1.1837,-1.286,139.5,96.2,0.553
36.94,31774.0,34528.5,-0.9466,-1.162,139.5,96.2,0.553
36.96,31782.2,34675.6,-0.912,-0.8,139.5,96.2,0.553
36.98,32002.5,35126.4,0.0101,0.3093,139.5,96.2,0.553
37.0,32129.9,35431.1,0.5432,1.0593,139.5,96.2,0.553
37.02,32369.7,35700.4,1.5469,1.7221,139.5,96.2,0.553
37.04,32387.7,35755.6,1.6222,1.8579,139.5,96.2,0.553
37.06,32381.4,35638.2,1.5962,1.5691,139.5,96.2,0.553
37.08,32279.4,35429.0,1.169,1.0541,139.5,96.2,0.553
37.1,32136.7,35289.1,0.5717,0.7099,139.5,96.2,0.553
37.12,32096.8,35215.1,0.4046,0.5278,139.5,96.2,0.553
37.14,32087.2,35142.0,0.3646,0.3479,139.5,96.2,0.553
37.16,32005.0,35005.1,0.0206,0.0109,139.5,96.2,0.553
37.18,32053.0,34949.3,0.2215,-0.1266,139.5,96.2,0.553
37.2,31869.3,34864.5,-0.5475,-0.3351,139.5,96.2,0.553
37.22,31874.1,34798.9,-0.5276,-0.4966,139.5,96.2,0.553
37.24,31911.1,34685.6,-0.3727,-0.7755,139.5,96.2,0.553
37.26,31834.8,34683.8,-0.6918,-0.7798,139.5,96.2,0.553
37.28,31785.8,34715.2,-0.897,-0.7025,139.5,96.2,0.553
37.3,31689.1,34635.2,-1.3018,-0.8994,139.5,96.2,0.553
37.32,31867.5,34565.4,-0.555,-1.0713,139.5,96.2,0.553
37.34,31656.5,34395.5,-1.4382,-1.4893,139.5,96.2,0.553
37.36,31749.9,34514.8,-1.0472,-1.1958,139.5,96.2,0.553
37.38,31834.8,34596.5,-0.6918,-0.9947,139.5,96.2,0.553
37.4,31938.6,34876.7,-0.2574,-0.3051,139.5,96.2,0.553
37.42,32138.8,35265.2,0.5807,0.6511,139.5,96.2,0.553
37.44,32288.3,35576.8,1.2064,1.4179,139.5,96.2,0.553
37.46,32373.7,35751.2,1.5639,1.847,139.5,96.2,0.553
37.48,32429.8,35654.7,1.7987,1.6097,139.5,96.2,0.553
37.5,32303.7,35611.2,1.2708,1.5025,139.5,96.2,0.553
37.52,32205.6,35422.0,0.8602,1.0368,139.5,96.2,0.553
37.54,32165.7,35182.6,0.6931,0.4478,139.5,96.2,0.553
37.56,32002.6,35109.7,0.0105,0.2683,139.5,96.2,0.553
37.58,32000.4,35100.2,0.0011,0.2448,139.5,96.2,0.553
37.6,32062.9,35054.8,0.2629,0.1332,139.5,96.2,0.553
37.62,31951.3,34948.1,-0.2042,-0.1294,139.5,96.2,0.553
37.64,31870.2,34823.1,-0.5436,-0.437,139.5,96.2,0.553
37.66,31890.4,34719.1,-0.4592,-0.693,139.5,96.2,0.553
37.68,31976.6,34684.2,-0.0984,-0.7789,139.5,96.2,0.553
37.7,31783.1,34701.1,-0.9082,-0.7374,139.5,96.2,0.553
37.72,31811.0,34605.4,-0.7918,-0.9729,139.5,96.2,0.553
37.74,31887.7,34601.9,-0.4705,-0.9816,139.5,96.2,0.553
37.76,31843.0,34590.7,-0.6578,-1.0091,139.5,96.2,0.553
37.78,31767.5,34372.9,-0.9735,-1.5451,139.5,96.2,0.553
37.8,31639.2,34512.9,-1.5108,-1.2004,139.5,96.2,0.553
37.82,31859.2,34753.2,-0.59,-0.6091,139.5,96.2,0.553
37.84,31997.6,35069.2,-0.0103,0.1687,139.5,96.2,0.553
37.86,32205.3,35288.6,0.8589,0.7087,139.5,96.2,0.553
37.88,32326.1,35728.3,1.3647,1.7907,139.5,96.2,0.553
37.9,32357.9,35879.6,1.4976,2.1632,139.5,96.2,0.553
37.92,32330.1,35661.9,1.3812,1.6273,139.5,96.2,0.553
37.94,32184.4,35470.2,0.7716,1.1557,139.5,96.2,0.553
37.96,32097.3,35273.6,0.4069,0.6717,139.5,96.2,0.553
37.98,32069.6,35169.1,0.2907,0.4144,139.5,96.2,0.553
38.0,32119.9,35054.7,0.5013,0.1329,139.5,96.2,0.553
38.02,32065.8,34986.7,0.2748,-0.0345,139.5,96.2,0.553
38.04,31999.7,34937.8,-0.0016,-0.1548,139.5,96.2,0.553
38.06,31891.9,34878.4,-0.4528,-0.3009,139.5,96.2,0.553
38.08,31862.4,34722.4,-0.5763,-0.6848,139.5,96.2,0.553
38.1,31818.1,34737.5,-0.762,-0.6477,139.5,96.2,0.553
38.12,31937.0,34690.0,-0.264,-0.7645,139.5,96.2,0.553
38.14,31810.6,34684.1,-0.7931,-0.7793,139.5,96.2,0.553
38.16,31842.6,34590.7,-0.6591,-1.009,139.5,96.2,0.553
38.18,31816.2,34586.8,-0.7698,-1.0187,139.5,96.2,0.553
38.2,31729.6,34563.4,-1.1323,-1.0762,139.5,96.2,0.553
38.22,31742.2,34435.0,-1.0794,-1.3922,139.5,96.2,0.553
38.24,31875.7,34608.0,-0.5209,-0.9665,139.5,96.2,0.553
38.26,31846.8,34925.6,-0.6416,-0.1848,139.5,96.2,0.553
38.28,32172.2,35253.8,0.7204,0.623,139.5,96.2,0.553
38.3,32256.3,35530.2,1.0725,1.3032,139.5,96.2,0.553
38.32,32387.2,35657.2,1.6202,1.6158,139.5,96.2,0.553
38.34,32324.6,35781.7,1.3582,1.9223,139.5,96.2,0.553
38.36,32257.6,35616.5,1.0779,1.5155,139.5,96.2,0.553
38.38,32245.9,35414.2,1.0288,1.0177,139.5,96.2,0.553
38.4,32140.0,35215.7,0.5856,0.5293,139.5,96.2,0.553
38.42,32066.6,35162.5,0.2782,0.3982,139.5,96.2,0.553
38.44,32033.9,35117.1,0.1412,0.2864,139.5,96.2,0.553
38.46,32036.0,34987.9,0.1501,-0.0315,139.5,96.2,0.553
38.48,31886.9,34915.6,-0.474,-0.2094,139.5,96.2,0.553
38.5,31962.1,34847.9,-0.1593,-0.3759,139.5,96.2,0.553
38.52,31910.8,34751.3,-0.3738,-0.6137,139.5,96.2,0.553
38.54,31867.3,34588.3,-0.5559,-1.0149,139.5,96.2,0.553
38.56,31829.3,34614.5,-0.715,-0.9504,139.5,96.2,0.553
38.58,31842.0,34699.1,-0.6619,-0.7423,139.5,96.2,0.553
38.6,31809.5,34555.5,-0.7979,-1.0957,139.5,96.2,0.553
38.62,31731.0,34614.6,-1.1263,-0.9503,139.5,96.2,0.553
38.64,31754.4,34504.7,-1.0287,-1.2207,139.5,96.2,0.553
38.66,31717.8,34474.5,-1.1816,-1.2949,139.5,96.2,0.553
38.68,31866.8,34728.7,-0.5579,-0.6693,139.5,96.2,0.553
38.7,31997.6,35003.4,-0.0106,0.0068,139.5,96.2,0.553
38.72,32270.3,35366.9,1.1311,0.9013,139.5,96.2,0.553
38.74,32341.0,35689.5,1.4271,1.6952,139.5,96.2,0.553
38.76,32433.7,35753.2,1.8149,1.8522,139.5,96.2,0.553
38.78,32331.7,35643.6,1.3881,1.5823,139.5,96.2,0.553
38.8,32232.8,35483.1,0.974,1.1873,139.5,96.2,0.553
38.82,32205.0,35281.2,0.8576,0.6904,139.5,96.2,0.553
38.84,32144.6,35194.6,0.6048,0.4772,139.5,96.2,0.553
38.86,31998.1,35086.6,-0.0083,0.2115,139.5,96.2,0.553
38.88,31995.7,35033.5,-0.0185,0.0808,139.5,96.2,0.553
38.9,32028.9,34923.5,0.1204,-0.1899,139.5,96.2,0.553
38.92,32010.0,34935.2,0.0414,-0.1612,139.5,96.2,0.553
38.94,31889.6,34750.6,-0.4625,-0.6154,139.5,96.2,0.553
38.96,31846.1,34666.1,-0.6447,-0.8233,139.5,96.2,0.553
38.98,31758.4,34693.9,-1.0117,-0.755,139.5,96.2,0.553
39.0,31827.0,34659.0,-0.7245,-0.8409,139.5,96.2,0.553
39.02,31773.3,34639.4,-0.9492,-0.8892,139.5,96.2,0.553
39.04,31855.3,34569.8,-0.6061,-1.0605,139.5,96.2,0.553
39.06,31723.1,34420.9,-1.1595,-1.4269,139.5,96.2,0.553
39.08,31688.1,34472.5,-1.3061,-1.3,139.5,96.2,0.553
39.1,31811.4,34520.4,-0.7899,-1.182,139.5,96.2,0.553
39.12,31854.5,34897.5,-0.6096,-0.254,139.5,96.2,0.553
39.14,32290.2,35243.0,1.2141,0.5964,139.5,96.2,0.553
39.16,32388.5,35480.3,1.6257,1.1805,139.5,96.2,0.553
39.18,32395.5,35731.0,1.655,1.7974,139.5,96.2,0.553
39.2,32363.4,35736.3,1.5207,1.8105,139.5,96.2,0.553
39.22,32303.0,35619.3,1.2679,1.5225,139.5,96.2,0.553
39.24,32161.6,35422.0,0.6762,1.0368,139.5,96.2,0.553
39.26,32084.9,35229.4,0.355,0.5629,139.5,96.2,0.553
39.28,32038.9,35144.3,0.1624,0.3535,139.5,96.2,0.553
39.3,32132.8,35118.5,0.5555,0.2899,139.5,96.2,0.553
39.32,32016.7,34975.3,0.0694,-0.0625,139.5,96.2,0.553
39.34,31986.3,35036.3,-0.0579,0.0877,139.5,96.2,0.553
39.36,31911.6,34866.7,-0.3706,-0.3297,139.5,96.2,0.553
39.38,31838.1,34725.6,-0.6782,-0.677,139.5,96.2,0.553
39.4,31719.3,34722.4,-1.1755,-0.6849,139.5,96.2,0.553
39.42,31844.3,34680.5,-0.6521,-0.7879,139.5,96.2,0.553
39.44,31795.5,34704.2,-0.8564,-0.7296,139.5,96.2,0.553
39.46,31772.8,34552.5,-0.9515,-1.1031,139.5,96.2,0.553
39.48,31790.4,34502.4,-0.8779,-1.2262,139.5,96.2,0.553
39.5,31747.8,34448.0,-1.0561,-1.3603,139.5,96.2,0.553
39.52,31768.7,34589.3,-0.9688,-1.0124,139.5,96.2,0.553
39.54,31864.1,34724.3,-0.5694,-0.6803,139.5,96.2,0.553
39.56,32015.8,34887.5,0.0659,-0.2787,139.5,96.2,0.553
39.58,32169.3,35366.9,0.7081,0.9013,139.5,96.2,0.553
39.6,32346.9,35653.4,1.4516,1.6065,139.5,96.2,0.553
39.62,32331.2,35731.2,1.386,1.7979,139.5,96.2,0.553
39.64,32284.9,35587.1,1.192,1.4433,139.5,96.2,0.553
39.66,32260.9,35432.2,1.0917,1.062,139.5,96.2,0.553
39.68,32106.6,35422.6,0.4456,1.0383,139.5,96.2,0.553
39.7,32081.4,35220.0,0.3403,0.5397,139.5,96.2,0.553
39.72,32143.4,35028.4,0.5998,0.0681,139.5,96.2,0.553
39.74,32028.1,35121.2,0.1171,0.2966,139.5,96.2,0.553
39.76,32023.7,35074.5,0.0987,0.1817,139.5,96.2,0.553
39.78,31951.9,34883.7,-0.2019,-0.2879,139.5,96.2,0.553
39.8,31935.8,34733.8,-0.269,-0.6569,139.5,96.2,0.553
39.82,31807.8,34694.2,-0.8048,-0.7544,139.5,96.2,0.553
39.84,31786.7,34690.5,-0.8933,-0.7634,139.5,96.2,0.553
39.86,31837.6,34611.1,-0.6801,-0.9589,139.5,96.2,0.553
39.88,31821.3,34596.0,-0.7486,-0.9959,139.5,96.2,0.553
39.9,31713.6,34561.1,-1.1993,-1.0818,139.5,96.2,0.553
39.92,31755.5,34487.1,-1.0239,-1.2641,139.5,96.2,0.553
39.94,31758.0,34484.4,-1.0133,-1.2707,139.5,96.2,0.553
39.96,31734.7,34621.9,-1.1109,-0.9323,139.5,96.2,0.553
39.98,31922.6,34900.3,-0.3246,-0.2471,139.5,96.2,0.553
40.0,32072.5,35230.5,0.3028,0.5657,139.5,96.2,0.553
40.02,32306.4,35593.1,1.2822,1.458,139.5,96.2,0.553
40.04,32390.2,35741.2,1.6328,1.8224,139.5,96.2,0.553
40.06,32354.4,35679.0,1.4832,1.6694,139.5,96.2,0.553
40.08,32288.4,35660.4,1.2068,1.6238,139.5,96.2,0.553
40.1,32120.6,35420.9,0.5043,1.0342,139.5,96.2,0.553
40.12,32144.2,35308.0,0.6032,0.7564,139.5,96.2,0.553
40.14,32070.6,35168.1,0.2952,0.412,139.5,96.2,0.553
40.16,32076.3,35065.4,0.3189,0.1594,139.5,96.2,0.553
40.18,31899.6,34994.0,-0.4209,-0.0165,139.5,96.2,0.553
40.2,31995.7,34930.4,-0.0185,-0.1729,139.5,96.2,0.553
40.22,31999.1,34767.7,-0.0042,-0.5734,139.5,96.2,0.553
40.24,31861.6,34709.5,-0.5798,-0.7167,139.5,96.2,0.553
40.26,31901.3,34717.2,-0.4136,-0.6977,139.5,96.2,0.553
40.28,31853.3,34607.0,-0.6145,-0.9688,139.5,96.2,0.553
40.3,31896.2,34623.8,-0.4351,-0.9276,139.5,96.2,0.553
40.32,31787.9,34575.2,-0.8883,-1.0471,139.5,96.2,0.553
40.34,31710.8,34488.1,-1.211,-1.2615,139.5,96.2,0.553
40.36,31728.8,34475.7,-1.1355,-1.2922,139.5,96.2,0.553
40.38,31730.9,34482.1,-1.1269,-1.2763,139.5,96.2,0.553
40.4,31787.2,34757.8,-0.8911,-0.5977,139.5,96.2,0.553
40.42,31976.4,35159.9,-0.0992,0.392,139.5,96.2,0.553
40.44,32269.7,35391.3,1.1284,0.9613,139.5,96.2,0.553
40.46,32382.3,35631.0,1.5998,1.5512,139.5,96.2,0.553
40.48,32345.1,35789.0,1.4439,1.9401,139.5,96.2,0.553
40.5,32343.0,35610.5,1.4354,1.5008,139.5,96.2,0.553
40.52,32193.3,35431.1,0.8087,1.0594,139.5,96.2,0.553
40.54,32126.0,35284.6,0.5271,0.6987,139.5,96.2,0.553
40.56,32124.7,35213.9,0.5217,0.5247,139.5,96.2,0.553
40.58,32001.0,35151.4,0.0039,0.3708,139.5,96.2,0.553
40.6,32054.3,34974.1,0.2267,-0.0653,139.5,96.2,0.553
40.62,32045.0,35035.6,0.188,0.086,139.5,96.2,0.553
40.64,31886.2,34906.7,-0.4767,-0.2313,139.5,96.2,0.553
40.66,31813.6,34796.1,-0.7805,-0.5036,139.5,96.2,0.553
40.68,31835.3,34629.3,-0.6899,-0.9141,139.5,96.2,0.553
40.7,31888.0,34696.6,-0.4694,-0.7484,139.5,96.2,0.553
40.72,31836.8,34687.8,-0.6837,-0.7701,139.5,96.2,0.553
40.74,31753.3,34611.5,-1.033,-0.9578,139.5,96.2,0.553
40.76,31774.3,34625.6,-0.9453,-0.9232,139.5,96.2,0.553
40.78,31730.1,34564.1,-1.1301,-1.0745,139.5,96.2,0.553
40.8,31689.3,34491.3,-1.3009,-1.2536,139.5,96.2,0.553
40.82,31782.6,34481.6,-0.9104,-1.2774,139.5,96.2,0.553
40.84,31932.1,34939.0,-0.2846,-0.1517,139.5,96.2,0.553
40.86,32100.5,35263.9,0.4203,0.6479,139.5,96.2,0.553
40.88,32381.0,35551.9,1.5943,1.3567,139.5,96.2,0.553
40.9,32399.9,35769.3,1.6734,1.8917,139.5,96.2,0.553
40.92,32458.4,35680.8,1.9183,1.6738,139.5,96.2,0.553
40.94,32254.4,35661.1,1.0643,1.6253,139.5,96.2,0.553
40.96,32217.4,35378.8,0.9095,0.9305,139.5,96.2,0.553
40.98,32038.2,35251.7,0.1594,0.6178,139.5,96.2,0.553
41.0,32088.2,35100.3,0.3686,0.2453,139.5,96.2,0.553
41.02,32020.8,35092.4,0.0866,0.2258,139.5,96.2,0.553
41.04,32000.7,34996.8,0.0024,-0.0095,139.5,96.2,0.553
41.06,31977.1,34936.4,-0.0965,-0.1583,139.5,96.2,0.553
41.08,31848.8,34872.6,-0.6335,-0.3152,139.5,96.2,0.553
41.1,31955.2,34713.8,-0.1879,-0.7059,139.5,96.2,0.553
41.12,31801.0,34759.8,-0.8335,-0.5927,139.5,96.2,0.553
41.14,31831.5,34751.0,-0.7057,-0.6145,139.5,96.2,0.553
41.16,31851.5,34685.9,-0.622,-0.7748,139.5,96.2,0.553
41.18,31816.0,34587.4,-0.7708,-1.0171,139.5,96.2,0.553
41.2,31668.3,34506.7,-1.3887,-1.2158,139.5,96.2,0.553
41.22,31716.6,34399.3,-1.1869,-1.48,139.5,96.2,0.553
41.24,31788.9,34451.2,-0.8843,-1.3524,139.5,96.2,0.553
41.26,31779.2,34728.7,-0.9248,-0.6693,139.5,96.2,0.553
41.28,31958.8,35067.2,-0.1731,0.1638,139.5,96.2,0.553
41.3,32276.6,35258.1,1.1574,0.6334,139.5,96.2,0.553
41.32,32372.0,35695.0,1.5566,1.7087,139.5,96.2,0.553
41.34,32319.9,35819.9,1.3385,2.0162,139.5,96.2,0.553
41.36,32285.7,35715.0,1.1953,1.758,139.5,96.2,0.553
41.38,32217.0,35573.0,0.908,1.4087,139.5,96.2,0.553
41.4,32083.8,35333.3,0.3502,0.8186,139.5,96.2,0.553
41.42,32120.5,35114.0,0.5041,0.2789,139.5,96.2,0.553
41.44,31989.0,35071.9,-0.0466,0.1753,139.5,96.2,0.553
41.46,32094.6,35055.4,0.3956,0.1347,139.5,96.2,0.553
41.48,32061.6,35039.2,0.2574,0.0947,139.5,96.2,0.553
41.5,31998.3,34957.9,-0.0074,-0.1052,139.5,96.2,0.553
41.52,31916.3,34776.2,-0.3509,-0.5525,139.5,96.2,0.553
41.54,31867.3,34776.8,-0.5557,-0.551,139.5,96.2,0.553
41.56,31891.7,34698.1,-0.4536,-0.7447,139.5,96.2,0.553
41.58,31847.3,34619.3,-0.6397,-0.9385,139.5,96.2,0.553
41.6,31782.7,34645.0,-0.9101,-0.8754,139.5,96.2,0.553
41.62,31857.2,34554.4,-0.5984,-1.0984,139.5,96.2,0.553
41.64,31700.6,34470.7,-1.2538,-1.3044,139.5,96.2,0.553
41.66,31732.4,34414.0,-1.1206,-1.4439,139.5,96.2,0.553
41.68,31860.0,34622.2,-0.5864,-0.9316,139.5,96.2,0.553
41.7,31944.6,34880.4,-0.2322,-0.296,139.5,96.2,0.553
41.72,32172.2,35211.4,0.7202,0.5187,139.5,96.2,0.553
41.74,32258.6,35612.7,1.082,1.5064,139.5,96.2,0.553
41.76,32379.4,35729.9,1.5874,1.7946,139.5,96.2,0.553
41.78,32342.5,35756.1,1.4333,1.8593,139.5,96.2,0.553
41.8,32236.1,35621.2,0.988,1.5273,139.5,96.2,0.553
41.82,32209.3,35417.3,0.8757,1.0254,139.5,96.2,0.553
41.84,32106.5,35216.5,0.4454,0.5311,139.5,96.2,0.553
41.86,32108.2,35187.3,0.4524,0.4594,139.5,96.2,0.553
41.88,32040.9,35064.3,0.1709,0.1566,139.5,96.2,0.553
41.9,32071.7,35113.5,0.2997,0.2777,139.5,96.2,0.553
41.92,31944.1,34924.4,-0.2343,-0.1878,139.5,96.2,0.553
41.94,31994.1,34781.6,-0.0252,-0.5393,139.5,96.2,0.553
41.96,31911.5,34789.3,-0.371,-0.5203,139.5,96.2,0.553
41.98,31911.0,34681.9,-0.3728,-0.7846,139.5,96.2,0.553
42.0,31811.3,34754.5,-0.7902,-0.6058,139.5,96.2,0.553
42.02,31796.8,34724.2,-0.8509,-0.6805,139.5,96.2,0.553
42.04,31840.8,34543.5,-0.667,-1.1252,139.5,96.2,0.553
42.06,31806.1,34469.1,-0.8121,-1.3082,139.5,96.2,0.553
42.08,31718.2,34451.0,-1.1801,-1.3528,139.5,96.2,0.553
42.1,31752.9,34611.2,-1.0348,-0.9586,139.5,96.2,0.553
42.12,31836.1,34777.8,-0.6865,-0.5484,139.5,96.2,0.553
42.14,31956.8,35074.6,-0.1813,0.1819,139.5,96.2,0.553
42.16,32213.2,35413.7,0.8922,1.0166,139.5,96.2,0.553
42.18,32281.8,35584.9,1.1791,1.4377,139.5,96.2,0.553
42.2,32414.2,35795.4,1.7335,1.9559,139.5,96.2,0.553
42.22,32322.0,35771.0,1.3474,1.8959,139.5,96.2,0.553
42.24,32268.7,35532.5,1.1243,1.309,139.5,96.2,0.553
42.26,32212.6,35224.4,0.8894,0.5505,139.5,96.2,0.553
42.28,32071.9,35081.8,0.3003,0.1996,139.5,96.2,0.553
42.3,32095.4,35073.3,0.3988,0.1788,139.5,96.2,0.553
42.32,32038.2,35049.9,0.1595,0.1211,139.5,96.2,0.553
42.34,31913.3,34991.3,-0.3633,-0.0231,139.5,96.2,0.553
42.36,31911.9,34876.8,-0.3693,-0.3048,139.5,96.2,0.553
42.38,31877.1,34728.9,-0.515,-0.669,139.5,96.2,0.553
42.4,31927.5,34733.4,-0.3039,-0.6578,139.5,96.2,0.553
42.42,31835.1,34566.7,-0.6906,-1.0681,139.5,96.2,0.553
42.44,31832.5,34531.0,-0.7017,-1.1559,139.5,96.2,0.553
42.46,31775.6,34619.8,-0.9399,-0.9373,139.5,96.2,0.553
42.48,31740.4,34535.9,-1.0869,-1.1438,139.5,96.2,0.553
42.5,31717.5,34477.2,-1.1829,-1.2884,139.5,96.2,0.553
42.52,31689.1,34464.7,-1.3018,-1.3191,139.5,96.2,0.553
42.54,31836.1,34592.3,-0.6866,-1.005,139.5,96.2,0.553
42.56,32011.3,34833.4,0.0468,-0.4118,139.5,96.2,0.553
42.58,32102.9,35253.9,0.4304,0.6231,139.5,96.2,0.553
42.6,32259.0,35525.2,1.0835,1.291,139.5,96.2,0.553
42.62,32414.5,35688.9,1.7346,1.6938,139.5,96.2,0.553
42.64,32381.8,35750.5,1.5975,1.8454,139.5,96.2,0.553
42.66,32286.2,35583.1,1.1974,1.4334,139.5,96.2,0.553
42.68,32166.5,35302.9,0.6963,0.7438,139.5,96.2,0.553
42.7,32108.2,35304.3,0.4524,0.7474,139.5,96.2,0.553
42.72,32078.5,35179.7,0.3282,0.4405,139.5,96.2,0.553
42.74,32065.5,35073.1,0.2737,0.1784,139.5,96.2,0.553
42.76,32040.4,34943.4,0.1685,-0.141,139.5,96.2,0.553
42.78,31900.9,34964.6,-0.4153,-0.0888,139.5,96.2,0.553
42.8,31979.0,34833.4,-0.0884,-0.4117,139.5,96.2,0.553
42.82,31876.5,34841.4,-0.5172,-0.392,139.5,96.2,0.553
42.84,31780.9,34672.2,-0.9177,-0.8084,139.5,96.2,0.553
42.86,31857.7,34734.3,-0.5961,-0.6555,139.5,96.2,0.553
42.88,31897.6,34624.5,-0.429,-0.9258,139.5,96.2,0.553
42.9,31809.3,34653.8,-0.7985,-0.8538,139.5,96.2,0.553
42.92,31715.0,34484.2,-1.1935,-1.2712,139.5,96.2,0.553
42.94,31781.9,34404.8,-0.9136,-1.4665,139.5,96.2,0.553
42.96,31656.0,34421.5,-1.4402,-1.4255,139.5,96.2,0.553
42.98,31822.3,34645.6,-0.7441,-0.8739,139.5,96.2,0.553
43.0,32087.1,35002.9,0.3643,0.0055,139.5,96.2,0.553
43.02,32217.8,35484.2,0.9114,1.1901,139.5,96.2,0.553
43.04,32304.7,35675.3,1.2748,1.6604,139.5,96.2,0.553
43.06,32447.2,35817.5,1.8714,2.0103,139.5,96.2,0.553
43.08,32349.1,35596.9,1.4609,1.4673,139.5,96.2,0.553
43.1,32304.2,35474.3,1.2729,1.1657,139.5,96.2,0.553
43.12,32154.2,35299.2,0.6452,0.7347,139.5,96.2,0.553
43.14,32108.1,35176.1,0.4522,0.4317,139.5,96.2,0.553
43.16,32028.7,35138.7,0.1195,0.3398,139.5,96.2,0.553
43.18,32038.9,35012.5,0.1624,0.029,139.5,96.2,0.553
43.2,32009.4,35077.0,0.039,0.188,139.5,96.2,0.553
43.22,31997.5,34948.7,-0.011,-0.1279,139.5,96.2,0.553
43.24,31831.0,34748.7,-0.7077,-0.6202,139.5,96.2,0.553
43.26,31890.7,34723.1,-0.4579,-0.683,139.5,96.2,0.553
43.28,31863.6,34705.0,-0.5715,-0.7276,139.5,96.2,0.553
43.3,31807.4,34678.7,-0.8067,-0.7923,139.5,96.2,0.553
43.32,31755.1,34569.8,-1.0255,-1.0604,139.5,96.2,0.553
43.34,31734.1,34624.3,-1.1136,-0.9262,139.5,96.2,0.553
43.36,31759.4,34395.2,-1.0077,-1.4902,139.5,96.2,0.553
43.38,31747.2,34522.1,-1.0587,-1.1778,139.5,96.2,0.553
43.4,31849.3,34589.4,-0.6313,-1.0123,139.5,96.2,0.553
43.42,31936.1,34919.3,-0.268,-0.2002,139.5,96.2,0.553
43.44,32155.4,35220.5,0.6502,0.5409,139.5,96.2,0.553
43.46,32332.4,35576.9,1.391,1.4181,139.5,96.2,0.553
43.48,32367.3,35793.4,1.5369,1.9511,139.5,96.2,0.553
43.5,32405.9,35767.2,1.6986,1.8865,139.5,96.2,0.553
43.52,32347.4,35491.9,1.4538,1.2091,139.5,96.2,0.553
43.54,32172.8,35490.8,0.7228,1.2062,139.5,96.2,0.553
43.56,32078.4,35201.4,0.3276,0.4939,139.5,96.2,0.553
43.58,32015.4,35098.4,0.0642,0.2404,139.5,96.2,0.553
43.6,31993.8,35130.9,-0.0263,0.3206,139.5,96.2,0.553
43.62,32007.1,35007.2,0.0294,0.0161,139.5,96.2,0.553
43.64,32032.5,34870.3,0.1354,-0.3208,139.5,96.2,0.553
43.66,31927.2,34852.6,-0.3053,-0.3645,139.5,96.2,0.553
43.68,31924.8,34815.0,-0.3153,-0.4569,139.5,96.2,0.553
43.7,31865.6,34746.1,-0.5629,-0.6265,139.5,96.2,0.553
43.72,31850.7,34618.0,-0.6255,-0.9417,139.5,96.2,0.553
43.74,31843.4,34623.5,-0.6561,-0.9283,139.5,96.2,0.553
43.76,31679.0,34572.3,-1.3442,-1.0544,139.5,96.2,0.553
43.78,31685.6,34495.0,-1.3166,-1.2446,139.5,96.2,0.553
43.8,31643.9,34435.9,-1.491,-1.3899,139.5,96.2,0.553
43.82,31703.0,34410.8,-1.2438,-1.4518,139.5,96.2,0.553
43.84,31802.3,34763.6,-0.8281,-0.5835,139.5,96.2,0.553
43.86,32036.9,35080.3,0.154,0.196,139.5,96.2,0.553
43.88,32196.9,35450.3,0.8239,1.1065,139.5,96.2,0.553
43.9,32330.1,35649.1,1.3814,1.5959,139.5,96.2,0.553
43.92,32362.4,35752.7,1.5165,1.8509,139.5,96.2,0.553
43.94,32357.3,35675.4,1.4952,1.6605,139.5,96.2,0.553
43.96,32159.9,35511.7,0.669,1.2578,139.5,96.2,0.553
43.98,32074.1,35230.6,0.3096,0.5659,139.5,96.2,0.553
44.0,32118.5,35173.6,0.4956,0.4255,139.5,96.2,0.553
44.02,32060.0,35004.0,0.2507,0.0081,139.5,96.2,0.553
44.04,32003.7,35031.1,0.0149,0.0748,139.5,96.2,0.553
44.06,31870.8,34914.0,-0.5414,-0.2132,139.5,96.2,0.553
44.08,31923.6,34931.8,-0.3201,-0.1695,139.5,96.2,0.553
44.1,31874.0,34787.6,-0.5277,-0.5243,139.5,96.2,0.553
44.12,31828.0,34768.5,-0.7205,-0.5714,139.5,96.2,0.553
44.14,31853.9,34608.1,-0.6118,-0.9662,139.5,96.2,0.553
44.16,31823.0,34627.6,-0.7413,-0.9183,139.5,96.2,0.553
44.18,31837.9,34618.6,-0.6791,-0.9403,139.5,96.2,0.553
44.2,31706.0,34471.5,-1.2312,-1.3023,139.5,96.2,0.553
44.22,31791.7,34490.7,-0.8724,-1.2551,139.5,96.2,0.553
44.24,31703.9,34460.8,-1.2399,-1.3288,139.5,96.2,0.553
44.26,31773.2,34599.9,-0.9498,-0.9864,139.5,96.2,0.553
44.28,31957.6,34854.7,-0.1778,-0.3592,139.5,96.2,0.553
44.3,32165.8,35229.8,0.6935,0.5639,139.5,96.2,0.553
44.32,32180.3,35467.9,0.7543,1.1499,139.5,96.2,0.553
44.34,32368.0,35777.6,1.5401,1.9121,139.5,96.2,0.553
44.36,32253.8,35799.9,1.0619,1.9669,139.5,96.2,0.553
44.38,32315.4,35524.5,1.3199,1.2892,139.5,96.2,0.553
44.4,32110.5,35460.0,0.4622,1.1304,139.5,96.2,0.553
44.42,32217.2,35226.2,0.9089,0.5551,139.5,96.2,0.553
44.44,32088.5,35172.3,0.3699,0.4223,139.5,96.2,0.553
44.46,32008.1,35125.8,0.0333,0.3079,139.5,96.2,0.553
44.48,32018.2,34973.5,0.0759,-0.0668,139.5,96.2,0.553
44.5,31970.2,34962.8,-0.1254,-0.0932,139.5,96.2,0.553
44.52,31972.1,34856.8,-0.1173,-0.354,139.5,96.2,0.553
44.54,31844.1,34725.8,-0.6529,-0.6765,139.5,96.2,0.553
44.56,31830.1,34668.2,-0.7115,-0.8183,139.5,96.2,0.553
44.58,31799.7,34724.7,-0.839,-0.6793,139.5,96.2,0.553
44.6,31771.6,34543.1,-0.9567,-1.1261,139.5,96.2,0.553
44.62,31707.1,34526.4,-1.2266,-1.1672,139.5,96.2,0.553
44.64,31817.3,34485.7,-0.7652,-1.2674,139.5,96.2,0.553
44.66,31774.4,34464.7,-0.9446,-1.319,139.5,96.2,0.553
44.68,31851.9,34502.0,-0.6203,-1.2272,139.5,96.2,0.553
44.7,31780.6,34707.0,-0.9188,-0.7228,139.5,96.2,0.553
44.72,31998.2,34975.1,-0.0078,-0.0629,139.5,96.2,0.553
44.74,32113.7,35429.9,0.4756,1.0565,139.5,96.2,0.553
44.76,32256.6,35626.3,1.0738,1.5399,139.5,96.2,0.553
44.78,32417.2,35776.7,1.746,1.9098,139.5,96.2,0.553
44.8,32397.8,35670.3,1.6646,1.648,139.5,96.2,0.553
44.82,32188.3,35549.6,0.7876,1.351,139.5,96.2,0.553
44.84,32164.8,35265.9,0.6894,0.6528,139.5,96.2,0.553
