timestamp,raw_red,raw_ir,filtered_red,filtered_ir,heart_rate,spo2,ac_dc_ratio
0.0,32124.4,35127.2,0.6386,0.3148,146.1,97.3,0.507
0.02,32246.0,35445.1,1.2627,1.0973,146.1,97.3,0.507
0.04,32386.1,35788.3,1.9816,1.9425,146.1,97.3,0.507
0.06,32319.7,35767.0,1.6408,1.89,146.1,97.3,0.507
0.08,32218.7,35569.4,1.1224,1.4036,146.1,97.3,0.507
0.1,32265.8,35318.1,1.3642,0.7847,146.1,97.3,0.507
0.12,32056.8,35280.0,0.2916,0.691,146.1,97.3,0.507
0.14,32059.7,35154.3,0.3066,0.3814,146.1,97.3,0.507
0.16,32065.1,35106.6,0.3341,0.264,146.1,97.3,0.507
0.18,32123.0,35016.2,0.6311,0.0416,146.1,97.3,0.507
0.2,31968.5,34876.9,-0.1617,-0.3014,146.1,97.3,0.507
0.22,31910.6,34879.9,-0.4586,-0.2942,146.1,97.3,0.507
0.24,31769.3,34871.5,-1.184,-0.3148,146.1,97.3,0.507
0.26,31744.3,34656.5,-1.3123,-0.844,146.1,97.3,0.507
0.28,31831.2,34713.5,-0.8662,-0.7039,146.1,97.3,0.507
0.3,31804.7,34653.7,-1.0023,-0.851,146.1,97.3,0.507
0.32,31716.7,34532.5,-1.4539,-1.1495,146.1,97.3,0.507
0.34,31768.7,34447.3,-1.1874,-1.3591,146.1,97.3,0.507
0.36,31740.7,34403.0,-1.331,-1.4683,146.1,97.3,0.507
0.38,31929.7,34677.0,-0.3607,-0.7935,146.1,97.3,0.507
0.4,32025.7,35068.0,0.1318,0.1691,146.1,97.3,0.507
0.42,32139.6,35279.5,0.7164,0.6898,146.1,97.3,0.507
0.44,32226.0,35625.1,1.1601,1.5407,146.1,97.3,0.507
0.46,32312.0,35756.7,1.6014,1.8647,146.1,97.3,0.507
0.48,32350.1,35665.6,1.797,1.6403,146.1,97.3,0.507
0.5,32147.7,35468.9,0.7579,1.1559,146.1,97.3,0.507
0.52,32083.0,35253.8,0.4262,0.6266,146.1,97.3,0.507
0.54,32072.3,35079.4,0.3714,0.197,146.1,97.3,0.507
0.56,32103.0,35205.6,0.5285,0.5078,146.1,97.3,0.507
0.58,31978.0,35061.1,-0.1127,0.1521,146.1,97.3,0.507
0.6,31965.8,35024.5,-0.1757,0.062,146.1,97.3,0.507
0.62,31987.5,34843.7,-0.0641,-0.3832,146.1,97.3,0.507
0.64,31902.2,34793.4,-0.5021,-0.5071,146.1,97.3,0.507
0.66,31962.4,34642.2,-0.1931,-0.8793,146.1,97.3,0.507
0.68,31828.9,34657.2,-0.8781,-0.8423,146.1,97.3,0.507
0.7,31815.6,34660.6,-0.9466,-0.834,146.1,97.3,0.507
0.72,31861.8,34577.6,-0.7095,-1.0384,146.1,97.3,0.507
0.74,31863.2,34567.7,-0.702,-1.0626,146.1,97.3,0.507
0.76,31656.2,34475.0,-1.7645,-1.2909,146.1,97.3,0.507
0.78,31793.2,34491.9,-1.0615,-1.2494,146.1,97.3,0.507
0.8,31963.8,34780.0,-0.1857,-0.5401,146.1,97.3,0.507
0.82,32014.3,35118.6,0.0735,0.2935,146.1,97.3,0.507
0.84,32146.0,35510.9,0.7492,1.2594,146.1,97.3,0.507
0.86,32302.2,35719.5,1.551,1.7729,146.1,97.3,0.507
0.88,32385.8,35709.6,1.9801,1.7487,146.1,97.3,0.507
0.9,32267.9,35582.9,1.3749,1.4366,146.1,97.3,0.507
0.92,32281.0,35345.0,1.4425,0.8511,146.1,97.3,0.507
0.94,32098.7,35172.1,0.5066,0.4253,146.1,97.3,0.507
0.96,32075.1,35164.0,0.3857,0.4053,146.1,97.3,0.507
0.98,32060.0,35101.7,0.3082,0.252,146.1,97.3,0.507
1.0,31888.0,34940.8,-0.5747,-0.1442,146.1,97.3,0.507
1.02,31949.2,34928.8,-0.2607,-0.1737,146.1,97.3,0.507
1.04,31903.3,34790.0,-0.4965,-0.5155,146.1,97.3,0.507
1.06,31856.1,34641.9,-0.7383,-0.8801,146.1,97.3,0.507
1.08,31851.7,34696.4,-0.7609,-0.7458,146.1,97.3,0.507
1.1,31867.9,34653.7,-0.678,-0.851,146.1,97.3,0.507
1.12,31778.8,34642.7,-1.1355,-0.878,146.1,97.3,0.507
1.14,31786.2,34683.3,-1.0974,-0.7781,146.1,97.3,0.507
1.16,31861.3,34453.1,-0.712,-1.3448,146.1,97.3,0.507
1.18,31732.5,34440.3,-1.3729,-1.3765,146.1,97.3,0.507
1.2,31821.8,34644.2,-0.9144,-0.8744,146.1,97.3,0.507
1.22,31977.3,34862.6,-0.1166,-0.3368,146.1,97.3,0.507
1.24,32148.2,35277.8,0.7607,0.6856,146.1,97.3,0.507
1.26,32291.5,35640.0,1.4964,1.5774,146.1,97.3,0.507
1.28,32369.5,35724.6,1.8965,1.7856,146.1,97.3,0.507
1.3,32354.7,35772.9,1.8206,1.9046,146.1,97.3,0.507
1.32,32159.6,35545.8,0.819,1.3454,146.1,97.3,0.507
1.34,32164.3,35353.7,0.8434,0.8725,146.1,97.3,0.507
1.36,32073.6,35193.4,0.3779,0.4778,146.1,97.3,0.507
1.38,32093.4,35020.5,0.4796,0.0521,146.1,97.3,0.507
1.4,32116.7,35034.2,0.5989,0.0859,146.1,97.3,0.507
1.42,31903.9,35051.8,-0.4931,0.129,146.1,97.3,0.507
1.44,31941.9,34869.2,-0.2982,-0.3203,146.1,97.3,0.507
1.46,31856.7,34745.5,-0.7355,-0.6251,146.1,97.3,0.507
1.48,31855.4,34670.4,-0.7424,-0.8099,146.1,97.3,0.507
1.5,31843.8,34670.2,-0.8014,-0.8104,146.1,97.3,0.507
1.52,31810.1,34528.8,-0.9745,-1.1585,146.1,97.3,0.507
1.54,31771.4,34572.8,-1.1735,-1.0501,146.1,97.3,0.507
1.56,31681.9,34426.8,-1.6328,-1.4096,146.1,97.3,0.507
1.58,31685.3,34383.8,-1.6154,-1.5154,146.1,97.3,0.507
1.6,31830.0,34504.2,-0.8727,-1.2191,146.1,97.3,0.507
1.62,31909.0,34747.4,-0.4672,-0.6202,146.1,97.3,0.507
1.64,32051.6,35178.4,0.2651,0.4409,146.1,97.3,0.507
1.66,32251.9,35462.4,1.2931,1.1401,146.1,97.3,0.507
1.68,32308.8,35712.6,1.5848,1.756,146.1,97.3,0.507
1.7,32328.6,35742.9,1.6868,1.8307,146.1,97.3,0.507
1.72,32301.4,35562.2,1.5471,1.3858,146.1,97.3,0.507
1.74,32218.4,35460.3,1.1211,1.1348,146.1,97.3,0.507
1.76,32206.3,35261.4,1.0587,0.6453,146.1,97.3,0.507
1.78,32120.6,35052.8,0.6189,0.1317,146.1,97.3,0.507
1.8,32055.5,35011.1,0.2848,0.0289,146.1,97.3,0.507
1.82,31966.6,35019.1,-0.1714,0.0486,146.1,97.3,0.507
1.84,32064.9,34943.9,0.3331,-0.1366,146.1,97.3,0.507
1.86,31875.9,34801.2,-0.637,-0.4879,146.1,97.3,0.507
1.88,31883.2,34820.7,-0.5995,-0.4398,146.1,97.3,0.507
1.9,31831.1,34699.0,-0.8667,-0.7393,146.1,97.3,0.507
1.92,31834.8,34857.7,-0.8478,-0.3487,146.1,97.3,0.507
1.94,31901.0,34602.8,-0.5078,-0.9764,146.1,97.3,0.507
1.96,31725.8,34533.6,-1.4071,-1.1467,146.1,97.3,0.507
1.98,31743.2,34465.4,-1.3183,-1.3147,146.1,97.3,0.507
2.0,31699.6,34512.3,-1.5419,-1.1991,146.1,97.3,0.507
2.02,31760.8,34614.7,-1.2277,-0.9469,146.1,97.3,0.507
2.04,31912.5,34929.1,-0.4493,-0.1728,146.1,97.3,0.507
2.06,32174.9,35303.7,0.8977,0.7493,146.1,97.3,0.507
2.08,32200.8,35590.6,1.0305,1.4557,146.1,97.3,0.507
2.1,32462.9,35726.4,2.376,1.79,146.1,97.3,0.507
2.12,32378.2,35759.0,1.941,1.8703,146.1,97.3,0.507
2.14,32275.8,35513.2,1.4155,1.2651,146.1,97.3,0.507
2.16,32058.2,35247.8,0.2989,0.6118,146.1,97.3,0.507
2.18,32100.0,35236.5,0.5135,0.5838,146.1,97.3,0.507
2.2,32098.4,35076.1,0.5053,0.189,146.1,97.3,0.507
2.22,32096.7,34986.3,0.4962,-0.0321,146.1,97.3,0.507
2.24,32008.6,34956.3,0.0444,-0.106,146.1,97.3,0.507
2.26,32077.5,34919.4,0.3977,-0.1968,146.1,97.3,0.507
2.28,31839.6,34704.3,-0.8232,-0.7265,146.1,97.3,0.507
2.3,31916.1,34758.1,-0.4306,-0.5938,146.1,97.3,0.507
2.32,31818.4,34529.5,-0.9319,-1.1568,146.1,97.3,0.507
2.34,31806.1,34656.4,-0.9953,-0.8443,146.1,97.3,0.507
2.36,31853.3,34541.3,-0.7527,-1.1278,146.1,97.3,0.507
2.38,31727.2,34481.1,-1.4001,-1.276,146.1,97.3,0.507
2.4,31752.8,34423.9,-1.2687,-1.4167,146.1,97.3,0.507
2.42,31811.4,34480.2,-0.9682,-1.2782,146.1,97.3,0.507
2.44,31866.1,34721.7,-0.6873,-0.6835,146.1,97.3,0.507
2.46,32015.7,35112.9,0.0806,0.2796,146.1,97.3,0.507
2.48,32180.0,35436.4,0.9239,1.076,146.1,97.3,0.507
2.5,32331.1,35703.6,1.6992,1.7339,146.1,97.3,0.507
2.52,32320.9,35779.9,1.647,1.9219,146.1,97.3,0.507
2.54,32320.1,35706.4,1.6429,1.7408,146.1,97.3,0.507
2.56,32197.7,35489.5,1.0146,1.2069,146.1,97.3,0.507
2.58,32115.5,35221.8,0.5931,0.5477,146.1,97.3,0.507
2.6,32038.7,35110.5,0.1987,0.2736,146.1,97.3,0.507
2.62,32016.7,35118.9,0.0858,0.2943,146.1,97.3,0.507
2.64,31959.1,35042.1,-0.2096,0.1053,146.1,97.3,0.507
2.66,31955.7,34946.5,-0.2271,-0.1301,146.1,97.3,0.507
2.68,31909.0,34806.5,-0.467,-0.4748,146.1,97.3,0.507
2.7,31893.1,34696.5,-0.5487,-0.7455,146.1,97.3,0.507
2.72,31807.0,34739.4,-0.9905,-0.6401,146.1,97.3,0.507
2.74,31927.5,34638.2,-0.372,-0.8892,146.1,97.3,0.507
2.76,31844.1,34644.2,-0.8003,-0.8744,146.1,97.3,0.507
2.78,31771.6,34505.7,-1.1724,-1.2153,146.1,97.3,0.507
2.8,31787.9,34535.4,-1.0883,-1.1421,146.1,97.3,0.507
2.82,31801.5,34542.9,-1.0186,-1.1238,146.1,97.3,0.507
2.84,31802.9,34578.4,-1.0115,-1.0364,146.1,97.3,0.507
2.86,31959.0,34947.1,-0.2104,-0.1285,146.1,97.3,0.507
2.88,32161.1,35278.9,0.8268,0.6884,146.1,97.3,0.507
2.9,32241.9,35564.1,1.2417,1.3903,146.1,97.3,0.507
2.92,32287.5,35649.2,1.4758,1.5999,146.1,97.3,0.507
2.94,32273.0,35708.3,1.4013,1.7453,146.1,97.3,0.507
2.96,32316.9,35643.9,1.6264,1.587,146.1,97.3,0.507
2.98,32234.8,35344.7,1.2052,0.8503,146.1,97.3,0.507
3.0,32115.8,35218.2,0.5942,0.5389,146.1,97.3,0.507
3.02,32035.1,35129.0,0.1803,0.3192,146.1,97.3,0.507
3.04,32021.4,34989.5,0.1097,-0.0242,146.1,97.3,0.507
3.06,31963.7,35031.4,-0.1862,0.0788,146.1,97.3,0.507
3.08,31912.1,34813.2,-0.4511,-0.4582,146.1,97.3,0.507
3.1,31900.1,34750.4,-0.5129,-0.6129,146.1,97.3,0.507
3.12,31749.2,34673.0,-1.2875,-0.8034,146.1,97.3,0.507
3.14,31806.9,34704.0,-0.9911,-0.7272,146.1,97.3,0.507
3.16,31759.8,34707.4,-1.2327,-0.7187,146.1,97.3,0.507
3.18,31819.1,34652.2,-0.9284,-0.8546,146.1,97.3,0.507
3.2,31727.2,34466.7,-1.4003,-1.3114,146.1,97.3,0.507
3.22,31739.0,34459.5,-1.3396,-1.3291,146.1,97.3,0.507
3.24,31785.4,34514.3,-1.1014,-1.1943,146.1,97.3,0.507
3.26,31824.6,34711.2,-0.9001,-0.7095,146.1,97.3,0.507
3.28,32033.0,35102.5,0.1692,0.254,146.1,97.3,0.507
3.3,32252.4,35499.9,1.2956,1.2325,146.1,97.3,0.507
3.32,32291.1,35773.3,1.494,1.9055,146.1,97.3,0.507
3.34,32365.7,35723.8,1.8771,1.7835,146.1,97.3,0.507
3.36,32318.4,35565.8,1.6343,1.3947,146.1,97.3,0.507
3.38,32232.4,35435.0,1.1928,1.0726,146.1,97.3,0.507
3.4,32106.6,35252.7,0.5473,0.6239,146.1,97.3,0.507
3.42,32117.1,35128.0,0.6012,0.3168,146.1,97.3,0.507
3.44,32090.7,35085.3,0.4656,0.2116,146.1,97.3,0.507
3.46,31966.5,34985.5,-0.1717,-0.034,146.1,97.3,0.507
3.48,31976.0,35014.8,-0.123,0.0381,146.1,97.3,0.507
3.5,31814.0,34833.6,-0.9544,-0.408,146.1,97.3,0.507
3.52,31824.9,34794.6,-0.8986,-0.504,146.1,97.3,0.507
3.54,31802.4,34684.8,-1.0139,-0.7743,146.1,97.3,0.507
3.56,31792.8,34679.1,-1.0634,-0.7883,146.1,97.3,0.507
3.58,31785.6,34593.3,-1.1003,-0.9998,146.1,97.3,0.507
3.6,31840.8,34590.8,-0.8173,-1.0058,146.1,97.3,0.507
3.62,31824.1,34467.2,-0.9028,-1.3101,146.1,97.3,0.507
3.64,31673.6,34479.8,-1.675,-1.279,146.1,97.3,0.507
3.66,31805.5,34562.2,-0.9982,-1.0763,146.1,97.3,0.507
3.68,31973.5,34893.9,-0.1362,-0.2596,146.1,97.3,0.507
3.7,32080.8,35203.9,0.4147,0.5035,146.1,97.3,0.507
3.72,32304.0,35504.8,1.5601,1.2445,146.1,97.3,0.507
3.74,32339.0,35756.6,1.7401,1.8643,146.1,97.3,0.507
3.76,32315.7,35728.3,1.6206,1.7946,146.1,97.3,0.507
3.78,32188.4,35485.2,0.9668,1.1962,146.1,97.3,0.507
3.8,32176.5,35341.2,0.9059,0.8415,146.1,97.3,0.507
3.82,32019.8,35311.0,0.1017,0.7673,146.1,97.3,0.507
3.84,32060.9,35133.0,0.3129,0.3292,146.1,97.3,0.507
3.86,32068.0,34934.7,0.349,-0.1592,146.1,97.3,0.507
3.88,31986.4,34929.1,-0.07,-0.173,146.1,97.3,0.507
3.9,31990.4,34897.6,-0.0491,-0.2504,146.1,97.3,0.507
3.92,31870.3,34811.6,-0.6658,-0.4622,146.1,97.3,0.507
3.94,31820.1,34734.2,-0.9234,-0.6528,146.1,97.3,0.507
3.96,31912.8,34633.0,-0.4474,-0.902,146.1,97.3,0.507
3.98,31805.1,34675.9,-1.0003,-0.7963,146.1,97.3,0.507
4.0,31769.2,34606.3,-1.1845,-0.9678,146.1,97.3,0.507
4.02,31788.2,34551.3,-1.0869,-1.1031,146.1,97.3,0.507
4.04,31666.0,34431.2,-1.7142,-1.3987,146.1,97.3,0.507
4.06,31815.1,34554.4,-0.9488,-1.0954,146.1,97.3,0.507
4.08,31767.8,34702.3,-1.1916,-0.7312,146.1,97.3,0.507
4.1,32078.7,35080.5,0.404,0.1998,146.1,97.3,0.507
4.12,32186.9,35427.2,0.9591,1.0533,146.1,97.3,0.507
4.14,32315.5,35761.7,1.6194,1.877,146.1,97.3,0.507
4.16,32323.0,35891.9,1.6577,2.1975,146.1,97.3,0.507
4.18,32365.4,35783.1,1.8756,1.9296,146.1,97.3,0.507
4.2,32273.6,35411.8,1.4045,1.0155,146.1,97.3,0.507
4.22,32143.6,35236.0,0.7373,0.5826,146.1,97.3,0.507
4.24,32091.1,35194.1,0.4679,0.4796,146.1,97.3,0.507
4.26,32140.4,35182.2,0.7209,0.4503,146.1,97.3,0.507
4.28,32057.1,35018.7,0.2929,0.0476,146.1,97.3,0.507
4.3,31890.3,34948.2,-0.5631,-0.126,146.1,97.3,0.507
4.32,31855.7,34814.8,-0.7405,-0.4545,146.1,97.3,0.507
4.34,31981.6,34698.5,-0.0945,-0.7407,146.1,97.3,0.507
4.36,31886.1,34635.0,-0.5843,-0.897,146.1,97.3,0.507
4.38,31760.9,34659.5,-1.2271,-0.8367,146.1,97.3,0.507
4.4,31893.5,34626.2,-0.5467,-0.9187,146.1,97.3,0.507
4.42,31764.2,34640.8,-1.21,-0.8828,146.1,97.3,0.507
4.44,31709.5,34468.8,-1.4912,-1.3062,146.1,97.3,0.507
4.46,31779.0,34443.4,-1.1343,-1.3688,146.1,97.3,0.507
4.48,31798.3,34563.3,-1.0351,-1.0736,146.1,97.3,0.507
4.5,31867.3,34796.0,-0.6811,-0.5007,146.1,97.3,0.507
4.52,32180.6,35244.0,0.9272,0.6023,146.1,97.3,0.507
4.54,32313.3,35617.0,1.608,1.5207,146.1,97.3,0.507
4.56,32336.1,35753.5,1.725,1.8567,146.1,97.3,0.507
4.58,32320.7,35713.6,1.6462,1.7584,146.1,97.3,0.507
4.6,32257.2,35500.5,1.3202,1.2338,146.1,97.3,0.507
4.62,32115.0,35321.6,0.5902,0.7935,146.1,97.3,0.507
4.64,32033.7,35319.7,0.173,0.7888,146.1,97.3,0.507
4.66,32069.7,35134.3,0.3578,0.3322,146.1,97.3,0.507
4.68,32036.2,35085.3,0.186,0.2115,146.1,97.3,0.507
4.7,31982.4,34985.2,-0.0903,-0.0349,146.1,97.3,0.507
4.72,31955.8,34852.0,-0.2271,-0.3627,146.1,97.3,0.507
4.74,31927.7,34787.9,-0.371,-0.5206,146.1,97.3,0.507
4.76,31872.2,34748.3,-0.6559,-0.618,146.1,97.3,0.507
4.78,31834.5,34650.1,-0.8493,-0.8598,146.1,97.3,0.507
4.8,31792.7,34655.6,-1.0641,-0.8462,146.1,97.3,0.507
4.82,31911.6,34606.2,-0.4536,-0.968,146.1,97.3,0.507
4.84,31766.9,34535.8,-1.1963,-1.1413,146.1,97.3,0.507
4.86,31803.4,34405.1,-1.0089,-1.4629,146.1,97.3,0.507
4.88,31850.4,34445.3,-0.7678,-1.3642,146.1,97.3,0.507
4.9,31874.8,34618.8,-0.6425,-0.9368,146.1,97.3,0.507
4.92,31936.4,35139.0,-0.3266,0.3438,146.1,97.3,0.507
4.94,32118.4,35361.6,0.6078,0.8919,146.1,97.3,0.507
4.96,32361.1,35657.5,1.8536,1.6203,146.1,97.3,0.507
4.98,32393.2,35788.8,2.0184,1.9438,146.1,97.3,0.507
5.0,32214.4,35650.5,1.1007,1.6031,146.1,97.3,0.507
5.02,32277.4,35413.7,1.4236,1.0201,146.1,97.3,0.507
5.04,32214.1,35332.3,1.0988,0.8197,146.1,97.3,0.507
5.06,32093.2,35213.1,0.4784,0.5262,146.1,97.3,0.507
5.08,32030.8,35144.6,0.1583,0.3577,146.1,97.3,0.507
5.1,31963.4,35047.4,-0.1876,0.1183,146.1,97.3,0.507
5.12,31964.7,34961.1,-0.1814,-0.0943,146.1,97.3,0.507
5.14,31920.6,34775.3,-0.4072,-0.5516,146.1,97.3,0.507
5.16,31908.1,34785.6,-0.4715,-0.5263,146.1,97.3,0.507
5.18,31872.2,34630.4,-0.6557,-0.9084,146.1,97.3,0.507
5.2,31944.1,34685.4,-0.2868,-0.773,146.1,97.3,0.507
5.22,31781.9,34651.6,-1.1195,-0.8563,146.1,97.3,0.507
5.24,31795.7,34670.0,-1.0487,-0.811,146.1,97.3,0.507
5.26,31731.3,34443.7,-1.3792,-1.368,146.1,97.3,0.507
5.28,31766.0,34483.9,-1.2008,-1.269,146.1,97.3,0.507
5.3,31804.4,34599.8,-1.004,-0.9838,146.1,97.3,0.507
5.32,31956.1,34787.4,-0.2253,-0.5217,146.1,97.3,0.507
5.34,32090.8,35209.8,0.4662,0.5181,146.1,97.3,0.507
5.36,32308.3,35581.0,1.5822,1.432,146.1,97.3,0.507
5.38,32432.9,35705.5,2.2222,1.7386,146.1,97.3,0.507
5.4,32379.1,35675.7,1.9459,1.6652,146.1,97.3,0.507
5.42,32282.0,35644.2,1.4475,1.5876,146.1,97.3,0.507
5.44,32135.1,35236.1,0.6937,0.5829,146.1,97.3,0.507
5.46,32148.8,35246.7,0.7638,0.609,146.1,97.3,0.507
5.48,32109.4,35072.1,0.5616,0.179,146.1,97.3,0.507
5.5,32088.8,35095.2,0.4558,0.236,146.1,97.3,0.507
5.52,32021.7,35055.4,0.1116,0.138,146.1,97.3,0.507
5.54,31901.7,34938.3,-0.5046,-0.1504,146.1,97.3,0.507
5.56,31867.1,34711.5,-0.6819,-0.7086,146.1,97.3,0.507
5.58,31784.1,34632.2,-1.1082,-0.9039,146.1,97.3,0.507
5.6,31747.7,34605.1,-1.2947,-0.9708,146.1,97.3,0.507
5.62,31843.3,34677.8,-0.8043,-0.7916,146.1,97.3,0.507
5.64,31821.6,34561.9,-0.9154,-1.0769,146.1,97.3,0.507
5.66,31710.7,34452.0,-1.485,-1.3477,146.1,97.3,0.507
5.68,31786.6,34518.7,-1.0952,-1.1834,146.1,97.3,0.507
5.7,31794.0,34585.9,-1.0573,-1.018,146.1,97.3,0.507
5.72,31882.8,34635.4,-0.6016,-0.8959,146.1,97.3,0.507
5.74,32014.4,34898.4,0.0739,-0.2484,146.1,97.3,0.507
5.76,32170.7,35327.5,0.8761,0.808,146.1,97.3,0.507
5.78,32331.4,35675.8,1.7009,1.6654,146.1,97.3,0.507
5.8,32358.2,35860.5,1.8387,2.1202,146.1,97.3,0.507
5.82,32251.9,35767.1,1.2927,1.8903,146.1,97.3,0.507
5.84,32214.1,35400.4,1.0989,0.9874,146.1,97.3,0.507
5.86,32128.1,35226.2,0.6577,0.5585,146.1,97.3,0.507
5.88,32117.4,35027.7,0.6025,0.0698,146.1,97.3,0.507
5.9,32095.7,35065.2,0.4911,0.1622,146.1,97.3,0.507
5.92,31945.3,35057.8,-0.2809,0.1439,146.1,97.3,0.507
5.94,31900.4,34920.3,-0.5109,-0.1946,146.1,97.3,0.507
5.96,32009.1,34842.8,0.0469,-0.3854,146.1,97.3,0.507
5.98,31821.2,34724.7,-0.9175,-0.6763,146.1,97.3,0.507
6.0,31827.2,34718.6,-0.8868,-0.6913,146.1,97.3,0.507
6.02,31919.2,34650.4,-0.4144,-0.8591,146.1,97.3,0.507
6.04,31799.3,34691.1,-1.0298,-0.7589,146.1,97.3,0.507
6.06,31703.2,34614.9,-1.5235,-0.9465,146.1,97.3,0.507
6.08,31707.6,34505.4,-1.5007,-1.2161,146.1,97.3,0.507
6.1,31776.5,34509.7,-1.1469,-1.2055,146.1,97.3,0.507
6.12,31774.0,34489.1,-1.16,-1.2562,146.1,97.3,0.507
6.14,31895.5,34880.2,-0.5362,-0.2933,146.1,97.3,0.507
6.16,32152.5,35104.4,0.7827,0.2585,146.1,97.3,0.507
6.18,32199.5,35484.7,1.0238,1.195,146.1,97.3,0.507
6.2,32388.3,35764.2,1.993,1.8831,146.1,97.3,0.507
6.22,32321.0,35765.7,1.6475,1.8867,146.1,97.3,0.507
6.24,32327.6,35540.1,1.6814,1.3314,146.1,97.3,0.507
6.26,32160.6,35433.6,0.8241,1.0692,146.1,97.3,0.507
6.28,32087.4,35149.5,0.4487,0.3697,146.1,97.3,0.507
6.3,32128.0,35095.2,0.6571,0.2359,146.1,97.3,0.507
6.32,32046.9,35141.2,0.2409,0.3493,146.1,97.3,0.507
6.34,32028.7,35016.6,0.1476,0.0425,146.1,97.3,0.507
6.36,32056.9,34943.8,0.292,-0.1367,146.1,97.3,0.507
6.38,31887.1,34785.0,-0.5792,-0.5278,146.1,97.3,0.507
6.4,31830.5,34742.6,-0.87,-0.6322,146.1,97.3,0.507
6.42,31785.9,34649.7,-1.0989,-0.8608,146.1,97.3,0.507
6.44,31798.8,34721.5,-1.0325,-0.6841,146.1,97.3,0.507
6.46,31825.9,34564.8,-0.8937,-1.0699,146.1,97.3,0.507
6.48,31735.9,34615.3,-1.3554,-0.9454,146.1,97.3,0.507
6.5,31749.9,34490.0,-1.2834,-1.254,146.1,97.3,0.507
6.52,31710.1,34348.2,-1.4879,-1.6032,146.1,97.3,0.507
6.54,31871.8,34562.6,-0.6581,-1.0754,146.1,97.3,0.507
6.56,31949.0,35025.2,-0.2619,0.0636,146.1,97.3,0.507
6.58,32195.7,35361.0,1.0046,0.8904,146.1,97.3,0.507
6.6,32334.9,35639.7,1.7188,1.5766,146.1,97.3,0.507
6.62,32268.9,35831.0,1.38,2.0475,146.1,97.3,0.507
6.64,32360.4,35699.1,1.8496,1.7229,146.1,97.3,0.507
6.66,32180.7,35451.3,0.9276,1.1127,146.1,97.3,0.507
6.68,32090.0,35326.1,0.4621,0.8045,146.1,97.3,0.507
6.7,32175.0,35117.0,0.898,0.2896,146.1,97.3,0.507
6.72,32056.8,35067.2,0.2914,0.167,146.1,97.3,0.507
6.74,31986.8,35023.9,-0.068,0.0604,146.1,97.3,0.507
6.76,31930.3,35013.5,-0.3574,0.0348,146.1,97.3,0.507
6.78,32069.3,34831.8,0.3558,-0.4124,146.1,97.3,0.507
6.8,31819.4,34694.7,-0.9268,-0.7501,146.1,97.3,0.507
6.82,31807.9,34813.2,-0.9859,-0.4584,146.1,97.3,0.507
6.84,31806.7,34718.5,-0.9921,-0.6914,146.1,97.3,0.507
6.86,31872.5,34597.9,-0.6543,-0.9883,146.1,97.3,0.507
6.88,31762.8,34602.7,-1.2175,-0.9765,146.1,97.3,0.507
6.9,31773.9,34543.4,-1.1606,-1.1226,146.1,97.3,0.507
6.92,31672.9,34422.2,-1.679,-1.421,146.1,97.3,0.507
6.94,31751.5,34514.1,-1.2752,-1.1948,146.1,97.3,0.507
6.96,31903.2,34807.4,-0.497,-0.4725,146.1,97.3,0.507
6.98,31992.1,35115.6,-0.0404,0.2863,146.1,97.3,0.507
7.0,32253.5,35480.5,1.3011,1.1845,146.1,97.3,0.507
7.02,32364.2,35804.7,1.8691,1.9828,146.1,97.3,0.507
7.04,32344.8,35797.7,1.7697,1.9657,146.1,97.3,0.507
7.06,32205.0,35676.1,1.0521,1.6662,146.1,97.3,0.507
7.08,32206.8,35427.3,1.0616,1.0536,146.1,97.3,0.507
7.1,32285.5,35149.4,1.4654,0.3694,146.1,97.3,0.507
7.12,32076.8,35114.4,0.3944,0.2833,146.1,97.3,0.507
7.14,31995.4,34978.8,-0.0237,-0.0507,146.1,97.3,0.507
7.16,31988.8,34995.2,-0.0575,-0.0103,146.1,97.3,0.507
7.18,31883.7,34892.6,-0.5971,-0.2629,146.1,97.3,0.507
7.2,31973.5,34723.6,-0.136,-0.6789,146.1,97.3,0.507
7.22,31900.8,34840.5,-0.5091,-0.391,146.1,97.3,0.507
7.24,31819.7,34669.2,-0.9253,-0.8129,146.1,97.3,0.507
7.26,31825.5,34690.2,-0.8953,-0.761,146.1,97.3,0.507
7.28,31827.6,34582.0,-0.8848,-1.0274,146.1,97.3,0.507
7.3,31776.9,34552.9,-1.145,-1.0992,146.1,97.3,0.507
7.32,31818.5,34481.6,-0.9318,-1.2748,146.1,97.3,0.507
7.34,31695.0,34425.2,-1.5652,-1.4136,146.1,97.3,0.507
7.36,31820.4,34625.0,-0.9218,-0.9217,146.1,97.3,0.507
7.38,31879.5,34880.1,-0.6184,-0.2937,146.1,97.3,0.507
7.4,32207.4,35317.4,1.0644,0.783,146.1,97.3,0.507
7.42,32351.7,35591.2,1.805,1.4573,146.1,97.3,0.507
7.44,32378.4,35797.5,1.9425,1.965,146.1,97.3,0.507
7.46,32313.4,35702.5,1.6085,1.7311,146.1,97.3,0.507
7.48,32292.7,35482.9,1.5026,1.1906,146.1,97.3,0.507
7.5,32220.7,35385.0,1.1329,0.9495,146.1,97.3,0.507
7.52,32036.4,35188.7,0.1868,0.4661,146.1,97.3,0.507
7.54,32069.2,35043.3,0.3551,0.1082,146.1,97.3,0.507
7.56,32026.7,35102.5,0.137,0.2539,146.1,97.3,0.507
7.58,31986.5,34968.7,-0.0691,-0.0754,146.1,97.3,0.507
7.6,31995.0,34960.3,-0.0254,-0.0962,146.1,97.3,0.507
7.62,31980.1,34740.3,-0.1022,-0.6378,146.1,97.3,0.507
7.64,31869.2,34714.8,-0.6713,-0.7004,146.1,97.3,0.507
7.66,31831.0,34756.1,-0.8671,-0.5989,146.1,97.3,0.507
7.68,31861.4,34644.0,-0.7112,-0.8749,146.1,97.3,0.507
7.7,31846.5,34572.7,-0.788,-1.0503,146.1,97.3,0.507
7.72,31801.0,34468.1,-1.0216,-1.308,146.1,97.3,0.507
7.74,31705.3,34437.5,-1.5127,-1.3832,146.1,97.3,0.507
7.76,31640.9,34495.8,-1.8433,-1.2398,146.1,97.3,0.507
7.78,31873.4,34711.3,-0.6499,-0.7091,146.1,97.3,0.507
7.8,32085.0,35118.6,0.4365,0.2937,146.1,97.3,0.507
7.82,32232.4,35431.4,1.1929,1.0638,146.1,97.3,0.507
7.84,32318.6,35696.0,1.6355,1.7151,146.1,97.3,0.507
7.86,32438.4,35782.1,2.2501,1.9271,146.1,97.3,0.507
7.88,32313.1,35661.8,1.6068,1.6311,146.1,97.3,0.507
7.9,32189.4,35435.8,0.9721,1.0746,146.1,97.3,0.507
7.92,32040.3,35287.2,0.207,0.7088,146.1,97.3,0.507
7.94,32053.1,35111.7,0.2728,0.2765,146.1,97.3,0.507
7.96,31998.3,35055.0,-0.0089,0.1371,146.1,97.3,0.507
7.98,31954.1,35004.1,-0.2353,0.0117,146.1,97.3,0.507
8.0,31998.6,35023.2,-0.0073,0.0587,146.1,97.3,0.507
8.02,31955.1,34818.4,-0.2303,-0.4455,146.1,97.3,0.507
8.04,31831.0,34755.8,-0.8676,-0.5997,146.1,97.3,0.507
8.06,31828.1,34764.7,-0.8823,-0.5778,146.1,97.3,0.507
8.08,31862.0,34681.4,-0.708,-0.7829,146.1,97.3,0.507
8.1,31919.8,34677.9,-0.4117,-0.7914,146.1,97.3,0.507
8.12,31707.2,34562.4,-1.5025,-1.0756,146.1,97.3,0.507
8.14,31725.4,34474.6,-1.4093,-1.2918,146.1,97.3,0.507
8.16,31711.5,34407.9,-1.481,-1.4561,146.1,97.3,0.507
8.18,31831.8,34536.7,-0.8635,-1.139,146.1,97.3,0.507
8.2,32011.6,34798.3,0.0594,-0.495,146.1,97.3,0.507
8.22,32142.8,35286.6,0.7332,0.7073,146.1,97.3,0.507
8.24,32252.4,35554.8,1.2957,1.3676,146.1,97.3,0.507
8.26,32284.5,35745.1,1.4604,1.836,146.1,97.3,0.507
8.28,32366.4,35674.3,1.8804,1.6617,146.1,97.3,0.507
8.3,32291.6,35568.6,1.4966,1.4016,146.1,97.3,0.507
8.32,32192.7,35256.4,0.9889,0.633,146.1,97.3,0.507
8.34,32147.6,35171.0,0.7577,0.4227,146.1,97.3,0.507
8.36,32001.5,35113.5,0.0075,0.281,146.1,97.3,0.507
8.38,31980.7,35013.6,-0.0992,0.0351,146.1,97.3,0.507
8.4,31941.4,34957.0,-0.3006,-0.1043,146.1,97.3,0.507
8.42,31969.4,34866.0,-0.1568,-0.3283,146.1,97.3,0.507
8.44,31894.4,34857.3,-0.5422,-0.3498,146.1,97.3,0.507
8.46,31798.7,34742.5,-1.0332,-0.6324,146.1,97.3,0.507
8.48,31864.7,34701.1,-0.6942,-0.7342,146.1,97.3,0.507
8.5,31921.2,34707.3,-0.4046,-0.719,146.1,97.3,0.507
8.52,31737.0,34555.5,-1.3499,-1.0927,146.1,97.3,0.507
8.54,31714.0,34399.1,-1.468,-1.4778,146.1,97.3,0.507
8.56,31787.3,34541.1,-1.0916,-1.1283,146.1,97.3,0.507
8.58,31767.0,34465.2,-1.1957,-1.3151,146.1,97.3,0.507
8.6,31811.6,34779.8,-0.9668,-0.5405,146.1,97.3,0.507
8.62,32090.0,35106.7,0.462,0.2642,146.1,97.3,0.507
8.64,32289.2,35438.0,1.4845,1.0799,146.1,97.3,0.507
8.66,32339.2,35742.9,1.741,1.8307,146.1,97.3,0.507
8.68,32322.2,35823.9,1.654,2.03,146.1,97.3,0.507
8.7,32223.6,35549.7,1.1475,1.3549,146.1,97.3,0.507
8.72,32219.9,35430.6,1.1289,1.0617,146.1,97.3,0.507
8.74,32119.8,35179.7,0.6151,0.444,146.1,97.3,0.507
8.76,32065.8,35204.7,0.3378,0.5057,146.1,97.3,0.507
8.78,32115.3,35100.6,0.5921,0.2494,146.1,97.3,0.507
8.8,32045.6,35045.3,0.234,0.1132,146.1,97.3,0.507
8.82,31902.7,34966.3,-0.4994,-0.0815,146.1,97.3,0.507
8.84,31874.8,34850.4,-0.6426,-0.3667,146.1,97.3,0.507
8.86,31951.0,34657.7,-0.2517,-0.8411,146.1,97.3,0.507
8.88,31848.8,34658.9,-0.776,-0.8383,146.1,97.3,0.507
8.9,31837.1,34604.8,-0.8362,-0.9715,146.1,97.3,0.507
8.92,31886.3,34599.4,-0.5833,-0.9847,146.1,97.3,0.507
8.94,31790.9,34513.9,-1.0731,-1.1953,146.1,97.3,0.507
8.96,31731.2,34477.4,-1.3796,-1.2849,146.1,97.3,0.507
8.98,31642.8,34475.8,-1.8335,-1.2891,146.1,97.3,0.507
9.0,31849.0,34584.6,-0.7749,-1.0212,146.1,97.3,0.507
9.02,31920.8,34880.0,-0.4066,-0.2938,146.1,97.3,0.507
9.04,32166.2,35260.5,0.8531,0.6429,146.1,97.3,0.507
9.06,32195.0,35587.3,1.0009,1.4476,146.1,97.3,0.507
9.08,32317.4,35736.4,1.629,1.8145,146.1,97.3,0.507
9.1,32382.5,35668.5,1.9631,1.6475,146.1,97.3,0.507
9.12,32266.8,35573.3,1.3692,1.413,146.1,97.3,0.507
9.14,32221.9,35378.5,1.1388,0.9336,146.1,97.3,0.507
9.16,32055.5,35201.1,0.2849,0.4968,146.1,97.3,0.507
9.18,32123.0,35078.1,0.6312,0.1939,146.1,97.3,0.507
9.2,32029.0,35013.7,0.1491,0.0352,146.1,97.3,0.507
9.22,31897.8,34966.7,-0.5247,-0.0804,146.1,97.3,0.507
9.24,31964.7,34915.4,-0.1813,-0.2067,146.1,97.3,0.507
9.26,31864.9,34776.9,-0.6935,-0.5476,146.1,97.3,0.507
9.28,31866.3,34740.7,-0.686,-0.6368,146.1,97.3,0.507
9.3,31863.6,34689.5,-0.7,-0.763,146.1,97.3,0.507
9.32,31795.3,34622.1,-1.0504,-0.9288,146.1,97.3,0.507
9.34,31901.6,34563.4,-0.5052,-1.0732,146.1,97.3,0.507
9.36,31832.8,34590.8,-0.8584,-1.0059,146.1,97.3,0.507
9.38,31740.8,34444.8,-1.3301,-1.3654,146.1,97.3,0.507
9.4,31838.1,34512.6,-0.8309,-1.1984,146.1,97.3,0.507
9.42,31862.5,34744.7,-0.7055,-0.6271,146.1,97.3,0.507
9.44,32058.0,34981.6,0.2979,-0.0438,146.1,97.3,0.507
9.46,32164.0,35363.2,0.8418,0.8958,146.1,97.3,0.507
9.48,32260.0,35751.5,1.3345,1.8518,146.1,97.3,0.507
9.5,32317.2,35761.6,1.6283,1.8767,146.1,97.3,0.507
9.52,32265.9,35716.3,1.3646,1.7651,146.1,97.3,0.507
9.54,32165.4,35411.8,0.8489,1.0154,146.1,97.3,0.507
9.56,32152.5,35314.6,0.783,0.7761,146.1,97.3,0.507
9.58,32078.7,35129.3,0.4038,0.32,146.1,97.3,0.507
9.6,32055.0,35066.7,0.2822,0.1659,146.1,97.3,0.507
9.62,32061.8,35029.3,0.3171,0.0738,146.1,97.3,0.507
9.64,32051.5,34935.1,0.2643,-0.1582,146.1,97.3,0.507
9.66,31893.0,34892.2,-0.5489,-0.2639,146.1,97.3,0.507
9.68,31884.5,34699.3,-0.5928,-0.7387,146.1,97.3,0.507
9.7,31809.1,34657.6,-0.9798,-0.8415,146.1,97.3,0.507
9.72,31965.2,34779.9,-0.1786,-0.5404,146.1,97.3,0.507
9.74,31782.4,34621.7,-1.1169,-0.9298,146.1,97.3,0.507
9.76,31756.3,34620.0,-1.2505,-0.9339,146.1,97.3,0.507
9.78,31769.3,34437.1,-1.1841,-1.3841,146.1,97.3,0.507
9.8,31708.9,34602.3,-1.494,-0.9776,146.1,97.3,0.507
9.82,31772.1,34621.6,-1.1697,-0.9301,146.1,97.3,0.507
9.84,31867.4,34827.6,-0.6807,-0.4229,146.1,97.3,0.507
9.86,32151.0,35221.6,0.7752,0.5472,146.1,97.3,0.507
9.88,32281.4,35599.1,1.4445,1.4766,146.1,97.3,0.507
9.9,32335.2,35778.7,1.7205,1.9187,146.1,97.3,0.507
9.92,32466.0,35669.0,2.3917,1.6488,146.1,97.3,0.507
9.94,32291.0,35575.7,1.4937,1.4189,146.1,97.3,0.507
9.96,32122.2,35416.2,0.6273,1.0263,146.1,97.3,0.507
9.98,32131.6,35234.2,0.6756,0.5781,146.1,97.3,0.507
10.0,32122.1,35116.5,0.6266,0.2885,146.1,97.3,0.507
10.02,32075.6,35062.0,0.3882,0.1542,146.1,97.3,0.507
10.04,31983.8,34947.7,-0.0831,-0.1272,146.1,97.3,0.507
10.06,32059.7,34838.0,0.3066,-0.3972,146.1,97.3,0.507
10.08,31856.3,34871.1,-0.7377,-0.3157,146.1,97.3,0.507
10.1,31869.3,34687.4,-0.6707,-0.7679,146.1,97.3,0.507
10.12,31823.3,34604.2,-0.907,-0.973,146.1,97.3,0.507
10.14,31924.3,34729.4,-0.3883,-0.6647,146.1,97.3,0.507
10.16,31819.5,34616.4,-0.9262,-0.9428,146.1,97.3,0.507
10.18,31741.1,34681.4,-1.3288,-0.7828,146.1,97.3,0.507
10.2,31755.1,34398.3,-1.2572,-1.4799,146.1,97.3,0.507
10.22,31772.3,34559.6,-1.1685,-1.0826,146.1,97.3,0.507
10.24,31875.1,34588.2,-0.6412,-1.0124,146.1,97.3,0.507
10.26,32019.5,34939.6,0.1002,-0.147,146.1,97.3,0.507
10.28,32115.3,35369.8,0.5917,0.9121,146.1,97.3,0.507
10.3,32328.2,35692.2,1.6846,1.7058,146.1,97.3,0.507
10.32,32342.7,35719.9,1.7591,1.7741,146.1,97.3,0.507
10.34,32315.1,35599.6,1.6173,1.4777,146.1,97.3,0.507
10.36,32209.6,35508.8,1.0757,1.2543,146.1,97.3,0.507
10.38,32122.8,35261.2,0.6302,0.6447,146.1,97.3,0.507
10.4,32095.6,35133.0,0.4908,0.3291,146.1,97.3,0.507
10.42,32095.8,35094.8,0.4915,0.2351,146.1,97.3,0.507
10.44,31980.4,35023.6,-0.1004,0.0596,146.1,97.3,0.507
10.46,32033.7,35073.3,0.1731,0.182,146.1,97.3,0.507
10.48,31994.3,34883.2,-0.0294,-0.2859,146.1,97.3,0.507
10.5,31857.4,34768.7,-0.7316,-0.5679,146.1,97.3,0.507
10.52,31895.0,34657.4,-0.539,-0.8419,146.1,97.3,0.507
10.54,31820.4,34673.4,-0.9215,-0.8025,146.1,97.3,0.507
10.56,31787.6,34662.9,-1.0902,-0.8284,146.1,97.3,0.507
10.58,31793.3,34574.2,-1.0611,-1.0467,146.1,97.3,0.507
10.6,31854.3,34598.1,-0.7476,-0.9879,146.1,97.3,0.507
10.62,31710.1,34373.1,-1.4881,-1.5419,146.1,97.3,0.507
10.64,31733.4,34503.4,-1.3682,-1.221,146.1,97.3,0.507
10.66,31876.5,34765.8,-0.6339,-0.575,146.1,97.3,0.507
10.68,32107.6,35227.7,0.5523,0.5623,146.1,97.3,0.507
10.7,32292.1,35527.4,1.4991,1.3001,146.1,97.3,0.507
10.72,32363.8,35783.5,1.867,1.9307,146.1,97.3,0.507
10.74,32323.2,35724.9,1.6588,1.7863,146.1,97.3,0.507
10.76,32278.9,35610.7,1.4314,1.5052,146.1,97.3,0.507
10.78,32225.2,35440.9,1.1558,1.0871,146.1,97.3,0.507
10.8,32099.1,35157.0,0.5089,0.388,146.1,97.3,0.507
10.82,31963.9,35188.1,-0.1853,0.4647,146.1,97.3,0.507
10.84,31979.8,35123.9,-0.1039,0.3067,146.1,97.3,0.507
10.86,32019.3,34893.2,0.0989,-0.2613,146.1,97.3,0.507
10.88,31994.6,34899.3,-0.0278,-0.2463,146.1,97.3,0.507
10.9,31889.2,34771.5,-0.5687,-0.561,146.1,97.3,0.507
10.92,31780.2,34704.1,-1.1279,-0.7269,146.1,97.3,0.507
10.94,31914.6,34653.8,-0.4383,-0.8507,146.1,97.3,0.507
10.96,31873.6,34584.2,-0.6489,-1.0222,146.1,97.3,0.507
10.98,31824.9,34647.4,-0.8987,-0.8666,146.1,97.3,0.507
11.0,31755.8,34511.8,-1.2536,-1.2004,146.1,97.3,0.507
11.02,31767.6,34509.1,-1.1925,-1.2069,146.1,97.3,0.507
11.04,31786.8,34385.4,-1.094,-1.5116,146.1,97.3,0.507
11.06,31928.9,34695.0,-0.3647,-0.7492,146.1,97.3,0.507
11.08,32029.2,35089.2,0.1497,0.2213,146.1,97.3,0.507
11.1,32167.9,35338.6,0.8616,0.8352,146.1,97.3,0.507
11.12,32246.9,35749.2,1.2672,1.8461,146.1,97.3,0.507
11.14,32342.8,35792.1,1.7595,1.9518,146.1,97.3,0.507
11.16,32251.3,35610.3,1.2898,1.5042,146.1,97.3,0.507
11.18,32323.1,35418.2,1.6581,1.0313,146.1,97.3,0.507
11.2,32156.8,35227.0,0.805,0.5604,146.1,97.3,0.507
11.22,32095.3,35260.5,0.4894,0.6429,146.1,97.3,0.507
11.24,32052.7,35077.0,0.2706,0.1911,146.1,97.3,0.507
11.26,32019.8,35013.2,0.1018,0.0342,146.1,97.3,0.507
11.28,31949.8,35006.7,-0.2575,0.0181,146.1,97.3,0.507
11.3,31931.3,34726.8,-0.3524,-0.6709,146.1,97.3,0.507
11.32,31951.3,34776.6,-0.25,-0.5484,146.1,97.3,0.507
11.34,31874.6,34610.5,-0.6438,-0.9573,146.1,97.3,0.507
11.36,31837.0,34757.2,-0.8364,-0.5963,146.1,97.3,0.507
11.38,31902.9,34621.2,-0.4985,-0.931,146.1,97.3,0.507
11.4,31868.7,34523.1,-0.6737,-1.1725,146.1,97.3,0.507
11.42,31785.4,34529.0,-1.1015,-1.158,146.1,97.3,0.507
11.44,31738.8,34411.6,-1.3406,-1.4471,146.1,97.3,0.507
11.46,31834.1,34505.9,-0.8517,-1.2148,146.1,97.3,0.507
11.48,31853.2,34865.6,-0.7534,-0.3292,146.1,97.3,0.507
11.5,32188.3,35171.7,0.9666,0.4244,146.1,97.3,0.507
11.52,32134.2,35462.2,0.689,1.1395,146.1,97.3,0.507
11.54,32259.9,35718.2,1.3342,1.7698,146.1,97.3,0.507
11.56,32315.7,35684.7,1.6206,1.6874,146.1,97.3,0.507
11.58,32275.0,35614.4,1.4114,1.5142,146.1,97.3,0.507
11.6,32096.8,35442.7,0.4971,1.0914,146.1,97.3,0.507
11.62,32059.2,35256.9,0.3039,0.6342,146.1,97.3,0.507
11.64,32064.8,35113.7,0.3326,0.2817,146.1,97.3,0.507
11.66,31955.7,35069.2,-0.2272,0.172,146.1,97.3,0.507
11.68,31989.1,34988.1,-0.056,-0.0277,146.1,97.3,0.507
11.7,32087.8,34975.7,0.4507,-0.0581,146.1,97.3,0.507
11.72,31841.9,34769.2,-0.8113,-0.5667,146.1,97.3,0.507
11.74,31821.4,34712.3,-0.9169,-0.7066,146.1,97.3,0.507
11.76,31814.2,34754.2,-0.9535,-0.6037,146.1,97.3,0.507
11.78,31866.1,34602.5,-0.6874,-0.9771,146.1,97.3,0.507
11.8,31756.8,34624.4,-1.2483,-0.9232,146.1,97.3,0.507
11.82,31748.2,34563.5,-1.2926,-1.073,146.1,97.3,0.507
11.84,31790.2,34510.5,-1.0766,-1.2036,146.1,97.3,0.507
11.86,31735.2,34432.8,-1.3591,-1.395,146.1,97.3,0.507
11.88,31853.1,34643.2,-0.7539,-0.8769,146.1,97.3,0.507
11.9,31985.7,34931.6,-0.0732,-0.1667,146.1,97.3,0.507
11.92,32144.5,35315.9,0.7418,0.7793,146.1,97.3,0.507
11.94,32321.2,35603.4,1.6487,1.4872,146.1,97.3,0.507
11.96,32274.3,35782.3,1.4081,1.9277,146.1,97.3,0.507
11.98,32261.0,35631.8,1.3399,1.557,146.1,97.3,0.507
12.0,32226.8,35440.2,1.1643,1.0854,146.1,97.3,0.507
12.02,32059.3,35335.8,0.3045,0.8285,146.1,97.3,0.507
12.04,32083.7,35143.7,0.4298,0.3554,146.1,97.3,0.507
12.06,32013.3,35163.6,0.0685,0.4044,146.1,97.3,0.507
12.08,31929.8,35108.8,-0.3601,0.2694,146.1,97.3,0.507
12.1,31936.2,34959.0,-0.3277,-0.0994,146.1,97.3,0.507
12.12,32015.4,34858.9,0.0793,-0.3457,146.1,97.3,0.507
12.14,31831.0,34781.4,-0.8673,-0.5367,146.1,97.3,0.507
12.16,31821.5,34605.7,-0.9161,-0.9691,146.1,97.3,0.507
12.18,31841.3,34730.8,-0.8146,-0.6611,146.1,97.3,0.507
12.2,31890.1,34568.5,-0.564,-1.0607,146.1,97.3,0.507
12.22,31799.0,34642.1,-1.0315,-0.8796,146.1,97.3,0.507
12.24,31732.9,34517.1,-1.3709,-1.1874,146.1,97.3,0.507
12.26,31712.8,34459.3,-1.4741,-1.3295,146.1,97.3,0.507
12.28,31719.0,34512.6,-1.4423,-1.1984,146.1,97.3,0.507
12.3,31906.0,34782.0,-0.4824,-0.5351,146.1,97.3,0.507
12.32,32117.5,35071.3,0.603,0.1771,146.1,97.3,0.507
12.34,32148.1,35568.1,0.76,1.4002,146.1,97.3,0.507
12.36,32391.4,35816.3,2.0091,2.0113,146.1,97.3,0.507
12.38,32380.2,35777.8,1.9513,1.9166,146.1,97.3,0.507
12.4,32322.6,35640.4,1.6558,1.5782,146.1,97.3,0.507
12.42,32152.2,35393.9,0.7811,0.9715,146.1,97.3,0.507
12.44,32164.7,35193.2,0.8453,0.4772,146.1,97.3,0.507
12.46,31995.9,35181.5,-0.0212,0.4484,146.1,97.3,0.507
12.48,32135.2,35107.0,0.694,0.2651,146.1,97.3,0.507
12.5,32092.5,35039.3,0.4748,0.0985,146.1,97.3,0.507
12.52,31962.1,34937.4,-0.1943,-0.1525,146.1,97.3,0.507
12.54,31947.9,34846.8,-0.2673,-0.3756,146.1,97.3,0.507
12.56,31759.7,34700.4,-1.2333,-0.7359,146.1,97.3,0.507
12.58,31749.5,34641.0,-1.2857,-0.8822,146.1,97.3,0.507
12.6,31863.2,34632.0,-0.7019,-0.9045,146.1,97.3,0.507
12.62,31934.1,34598.6,-0.3383,-0.9867,146.1,97.3,0.507
12.64,31772.5,34599.1,-1.1677,-0.9855,146.1,97.3,0.507
12.66,31801.4,34406.3,-1.0192,-1.4601,146.1,97.3,0.507
12.68,31658.6,34545.5,-1.7522,-1.1175,146.1,97.3,0.507
12.7,31808.2,34575.6,-0.9844,-1.0434,146.1,97.3,0.507
12.72,31948.5,34940.6,-0.2643,-0.1447,146.1,97.3,0.507
12.74,32202.8,35338.8,1.0411,0.8357,146.1,97.3,0.507
12.76,32259.4,35556.0,1.3316,1.3705,146.1,97.3,0.507
12.78,32329.2,35749.8,1.6898,1.8477,146.1,97.3,0.507
12.8,32292.0,35763.9,1.4989,1.8824,146.1,97.3,0.507
12.82,32325.6,35539.3,1.6711,1.3295,146.1,97.3,0.507
12.84,32129.2,35225.4,0.663,0.5565,146.1,97.3,0.507
12.86,32134.9,35207.1,0.6924,0.5115,146.1,97.3,0.507
12.88,32108.6,34964.8,0.5576,-0.0851,146.1,97.3,0.507
12.9,32160.5,35059.7,0.824,0.1487,146.1,97.3,0.507
12.92,31906.1,34952.7,-0.4821,-0.1149,146.1,97.3,0.507
12.94,31833.5,34910.9,-0.8545,-0.2178,146.1,97.3,0.507
12.96,31961.0,34686.6,-0.2002,-0.77,146.1,97.3,0.507
12.98,31990.9,34589.9,-0.0469,-1.008,146.1,97.3,0.507
13.0,31897.1,34771.1,-0.5282,-0.5619,146.1,97.3,0.507
13.02,31876.5,34732.7,-0.6339,-0.6564,146.1,97.3,0.507
13.04,31804.9,34620.5,-1.0012,-0.9328,146.1,97.3,0.507
13.06,31769.5,34530.4,-1.1831,-1.1547,146.1,97.3,0.507
13.08,31746.3,34493.3,-1.3021,-1.2459,146.1,97.3,0.507
13.1,31779.6,34413.7,-1.1312,-1.4419,146.1,97.3,0.507
13.12,31840.9,34881.2,-0.8167,-0.2908,146.1,97.3,0.507
13.14,32065.9,35136.0,0.3384,0.3364,146.1,97.3,0.507
13.16,32180.1,35465.5,0.9246,1.1477,146.1,97.3,0.507
13.18,32349.3,35732.1,1.7929,1.804,146.1,97.3,0.507
13.2,32346.7,35741.4,1.7796,1.827,146.1,97.3,0.507
13.22,32237.9,35607.6,1.221,1.4976,146.1,97.3,0.507
13.24,32195.3,35395.7,1.0025,0.9758,146.1,97.3,0.507
13.26,32184.9,35235.6,0.9493,0.5816,146.1,97.3,0.507
13.28,32098.5,35143.6,0.5056,0.3552,146.1,97.3,0.507
13.3,32125.3,35100.3,0.643,0.2486,146.1,97.3,0.507
13.32,31997.8,35007.3,-0.0111,0.0196,146.1,97.3,0.507
13.34,32019.1,34866.2,0.098,-0.3279,146.1,97.3,0.507
13.36,31875.5,34754.3,-0.6388,-0.6033,146.1,97.3,0.507
13.38,31818.2,34679.2,-0.9332,-0.7882,146.1,97.3,0.507
13.4,31845.4,34689.3,-0.7937,-0.7634,146.1,97.3,0.507
13.42,31884.2,34646.3,-0.5941,-0.8691,146.1,97.3,0.507
13.44,31902.8,34568.8,-0.4988,-1.0599,146.1,97.3,0.507
13.46,31811.5,34555.6,-0.9675,-1.0924,146.1,97.3,0.507
13.48,31811.9,34400.3,-0.9656,-1.4747,146.1,97.3,0.507
13.5,31741.0,34408.6,-1.3295,-1.4544,146.1,97.3,0.507
13.52,31827.6,34585.5,-0.8849,-1.0189,146.1,97.3,0.507
13.54,31961.1,34974.5,-0.1995,-0.0612,146.1,97.3,0.507
13.56,32120.9,35336.8,0.6205,0.8308,146.1,97.3,0.507
13.58,32342.0,35648.5,1.7552,1.5983,146.1,97.3,0.507
13.6,32368.5,35744.1,1.8913,1.8337,146.1,97.3,0.507
13.62,32350.7,35660.3,1.7999,1.6272,146.1,97.3,0.507
13.64,32189.2,35500.5,0.9711,1.2338,146.1,97.3,0.507
13.66,32160.8,35306.5,0.8255,0.7562,146.1,97.3,0.507
13.68,31958.1,35235.9,-0.2151,0.5825,146.1,97.3,0.507
13.7,32095.3,35005.2,0.4892,0.0144,146.1,97.3,0.507
13.72,32033.7,34963.6,0.1729,-0.088,146.1,97.3,0.507
13.74,32016.9,35045.5,0.0866,0.1138,146.1,97.3,0.507
13.76,31973.9,34864.9,-0.1338,-0.3311,146.1,97.3,0.507
13.78,31881.3,34723.2,-0.6093,-0.6798,146.1,97.3,0.507
13.8,31808.0,34727.1,-0.9857,-0.6703,146.1,97.3,0.507
13.82,31857.4,34724.8,-0.7319,-0.676,146.1,97.3,0.507
13.84,31758.4,34685.1,-1.2399,-0.7737,146.1,97.3,0.507
13.86,31824.4,34543.2,-0.9014,-1.123,146.1,97.3,0.507
13.88,31781.1,34569.2,-1.1234,-1.0591,146.1,97.3,0.507
13.9,31757.5,34464.6,-1.2444,-1.3166,146.1,97.3,0.507
13.92,31844.0,34579.7,-0.8006,-1.0333,146.1,97.3,0.507
13.94,31850.3,34713.5,-0.7685,-0.7038,146.1,97.3,0.507
13.96,32096.7,35177.1,0.4964,0.4377,146.1,97.3,0.507
13.98,32220.9,35494.9,1.134,1.22,146.1,97.3,0.507
14.0,32359.5,35726.9,1.8451,1.7913,146.1,97.3,0.507
14.02,32303.7,35677.7,1.5586,1.67,146.1,97.3,0.507
14.04,32266.8,35525.1,1.3697,1.2943,146.1,97.3,0.507
14.06,32331.2,35454.0,1.7,1.1195,146.1,97.3,0.507
14.08,32022.9,35289.5,0.1173,0.7143,146.1,97.3,0.507
14.1,32091.6,35142.4,0.4701,0.3523,146.1,97.3,0.507
14.12,32010.9,35092.8,0.0561,0.23,146.1,97.3,0.507
14.14,31849.5,35085.6,-0.7725,0.2123,146.1,97.3,0.507
14.16,31913.8,35012.2,-0.4422,0.0316,146.1,97.3,0.507
14.18,31929.4,34838.0,-0.3622,-0.3972,146.1,97.3,0.507
14.2,31855.0,34675.3,-0.744,-0.7979,146.1,97.3,0.507
14.22,31874.8,34692.1,-0.6423,-0.7564,146.1,97.3,0.507
14.24,31785.3,34623.1,-1.102,-0.9264,146.1,97.3,0.507
14.26,31793.6,34583.3,-1.0592,-1.0243,146.1,97.3,0.507
14.28,31792.1,34639.5,-1.0669,-0.886,146.1,97.3,0.507
14.3,31710.3,34486.9,-1.4867,-1.2617,146.1,97.3,0.507
14.32,31772.8,34382.3,-1.1661,-1.5192,146.1,97.3,0.507
14.34,31883.8,34586.7,-0.5965,-1.0161,146.1,97.3,0.507
14.36,32034.6,34896.7,0.1775,-0.2528,146.1,97.3,0.507
14.38,32116.1,35330.3,0.596,0.8149,146.1,97.3,0.507
14.4,32268.9,35588.6,1.3802,1.4507,146.1,97.3,0.507
14.42,32254.3,35679.7,1.3054,1.675,146.1,97.3,0.507
14.44,32310.4,35774.8,1.593,1.9092,146.1,97.3,0.507
14.46,32328.8,35584.7,1.6877,1.441,146.1,97.3,0.507
14.48,32210.6,35261.3,1.0808,0.645,146.1,97.3,0.507
14.5,32143.3,35168.4,0.7354,0.4161,146.1,97.3,0.507
14.52,32132.3,35143.7,0.6791,0.3554,146.1,97.3,0.507
14.54,31932.8,35136.0,-0.3447,0.3363,146.1,97.3,0.507
14.56,31956.0,35058.9,-0.2255,0.1467,146.1,97.3,0.507
14.58,32033.9,34869.9,0.1743,-0.3186,146.1,97.3,0.507
14.6,31831.0,34735.4,-0.8672,-0.6498,146.1,97.3,0.507
14.62,31904.3,34696.4,-0.4913,-0.7458,146.1,97.3,0.507
14.64,31864.3,34617.6,-0.6966,-0.9399,146.1,97.3,0.507
14.66,31794.7,34633.7,-1.0534,-0.9002,146.1,97.3,0.507
14.68,31811.6,34655.8,-0.9668,-0.8457,146.1,97.3,0.507
14.7,31755.2,34456.5,-1.2562,-1.3365,146.1,97.3,0.507
14.72,31668.4,34459.6,-1.7019,-1.3288,146.1,97.3,0.507
14.74,31728.8,34506.2,-1.3917,-1.2141,146.1,97.3,0.507
14.76,31856.3,34817.3,-0.7374,-0.4483,146.1,97.3,0.507
14.78,32106.7,35027.6,0.5475,0.0695,146.1,97.3,0.507
14.8,32181.2,35520.2,0.9299,1.2825,146.1,97.3,0.507
14.82,32325.3,35644.3,1.6696,1.5878,146.1,97.3,0.507
14.84,32393.1,35816.1,2.0174,2.011,146.1,97.3,0.507
14.86,32301.9,35546.5,1.5494,1.3471,146.1,97.3,0.507
14.88,32166.2,35468.7,0.8528,1.1555,146.1,97.3,0.507
14.9,32068.2,35317.2,0.35,0.7826,146.1,97.3,0.507
14.92,32126.8,35150.2,0.651,0.3713,146.1,97.3,0.507
14.94,31985.2,35082.8,-0.0758,0.2054,146.1,97.3,0.507
14.96,31951.3,35028.7,-0.2502,0.0723,146.1,97.3,0.507
14.98,32007.2,34902.1,0.037,-0.2394,146.1,97.3,0.507
15.0,31913.1,34778.0,-0.4461,-0.545,146.1,97.3,0.507
15.02,31872.7,34699.6,-0.6535,-0.738,146.1,97.3,0.507
15.04,31881.5,34604.1,-0.6082,-0.973,146.1,97.3,0.507
15.06,31846.2,34622.4,-0.7892,-0.9281,146.1,97.3,0.507
15.08,31826.9,34601.8,-0.8887,-0.9788,146.1,97.3,0.507
15.1,31783.8,34537.3,-1.1098,-1.1375,146.1,97.3,0.507
15.12,31769.2,34499.6,-1.1846,-1.2303,146.1,97.3,0.507
15.14,31761.6,34446.8,-1.2235,-1.3604,146.1,97.3,0.507
15.16,31733.2,34533.3,-1.3694,-1.1474,146.1,97.3,0.507
15.18,31885.9,34851.5,-0.5854,-0.3639,146.1,97.3,0.507
15.2,32021.6,35102.8,0.111,0.2548,146.1,97.3,0.507
15.22,32277.2,35577.0,1.4227,1.4222,146.1,97.3,0.507
15.24,32465.3,35786.9,2.3882,1.9391,146.1,97.3,0.507
15.26,32335.2,35682.2,1.7204,1.6813,146.1,97.3,0.507
15.28,32282.2,35543.1,1.4487,1.3387,146.1,97.3,0.507
15.3,32098.6,35402.3,0.5062,0.992,146.1,97.3,0.507
15.32,32032.2,35171.7,0.1653,0.4245,146.1,97.3,0.507
15.34,31958.3,35107.1,-0.214,0.2654,146.1,97.3,0.507
15.36,32040.3,35146.0,0.2068,0.3611,146.1,97.3,0.507
15.38,32044.8,35015.5,0.2302,0.0398,146.1,97.3,0.507
15.4,32000.0,34868.7,0.0002,-0.3216,146.1,97.3,0.507
15.42,31881.5,34789.6,-0.608,-0.5163,146.1,97.3,0.507
15.44,31875.7,34734.6,-0.6378,-0.6517,146.1,97.3,0.507
15.46,31869.9,34649.3,-0.6676,-0.8617,146.1,97.3,0.507
15.48,31777.9,34660.5,-1.1398,-0.8342,146.1,97.3,0.507
15.5,31859.5,34599.5,-0.7209,-0.9845,146.1,97.3,0.507
15.52,31797.7,34574.1,-1.0383,-1.0469,146.1,97.3,0.507
15.54,31727.7,34465.8,-1.3977,-1.3136,146.1,97.3,0.507
15.56,31780.1,34522.6,-1.1286,-1.1739,146.1,97.3,0.507
15.58,31878.8,34697.8,-0.6219,-0.7424,146.1,97.3,0.507
15.6,32036.5,35043.2,0.1873,0.108,146.1,97.3,0.507
15.62,32227.6,35375.9,1.1682,0.9271,146.1,97.3,0.507
15.64,32242.2,35694.2,1.2434,1.7107,146.1,97.3,0.507
15.66,32368.1,35761.6,1.8893,1.8767,146.1,97.3,0.507
15.68,32261.1,35591.6,1.34,1.458,146.1,97.3,0.507
15.7,32162.8,35479.2,0.8356,1.1814,146.1,97.3,0.507
15.72,32159.1,35312.6,0.8164,0.7712,146.1,97.3,0.507
15.74,32046.0,35087.9,0.2362,0.218,146.1,97.3,0.507
15.76,31983.8,35100.4,-0.0831,0.2489,146.1,97.3,0.507
15.78,31967.4,35045.6,-0.1674,0.1139,146.1,97.3,0.507
15.8,31906.2,34934.9,-0.4812,-0.1586,146.1,97.3,0.507
15.82,31973.9,34870.2,-0.1341,-0.3179,146.1,97.3,0.507
15.84,31910.6,34735.1,-0.4589,-0.6506,146.1,97.3,0.507
15.86,31873.0,34670.1,-0.6518,-0.8107,146.1,97.3,0.507
15.88,31791.2,34688.3,-1.0714,-0.7659,146.1,97.3,0.507
15.9,31830.5,34608.8,-0.8701,-0.9615,146.1,97.3,0.507
15.92,31802.7,34589.7,-1.0128,-1.0084,146.1,97.3,0.507
15.94,31721.6,34459.1,-1.4287,-1.3302,146.1,97.3,0.507
15.96,31798.8,34529.7,-1.0326,-1.1562,146.1,97.3,0.507
15.98,31828.1,34587.0,-0.8824,-1.0152,146.1,97.3,0.507
16.0,31878.9,34900.1,-0.6214,-0.2442,146.1,97.3,0.507
16.02,32052.5,35161.5,0.2696,0.3993,146.1,97.3,0.507
16.04,32247.2,35523.0,1.2687,1.2893,146.1,97.3,0.507
16.06,32416.6,35736.2,2.1385,1.8142,146.1,97.3,0.507
16.08,32356.2,35726.8,1.8284,1.7911,146.1,97.3,0.507
16.1,32237.1,35603.9,1.2172,1.4883,146.1,97.3,0.507
16.12,32148.4,35288.1,0.7617,0.7108,146.1,97.3,0.507
16.14,32066.1,35257.8,0.3395,0.6363,146.1,97.3,0.507
16.16,32016.8,35057.9,0.0861,0.1442,146.1,97.3,0.507
16.18,32081.2,35084.1,0.4168,0.2087,146.1,97.3,0.507
16.2,32000.3,34941.4,0.0015,-0.1426,146.1,97.3,0.507
16.22,31967.0,34881.1,-0.1693,-0.291,146.1,97.3,0.507
16.24,31894.6,34816.2,-0.5407,-0.451,146.1,97.3,0.507
16.26,31885.5,34683.5,-0.5875,-0.7775,146.1,97.3,0.507
16.28,31838.5,34736.1,-0.8289,-0.6481,146.1,97.3,0.507
16.3,31869.4,34670.2,-0.6705,-0.8104,146.1,97.3,0.507
16.32,31757.9,34571.6,-1.2424,-1.053,146.1,97.3,0.507
16.34,31814.1,34551.7,-0.9541,-1.1022,146.1,97.3,0.507
16.36,31741.0,34427.4,-1.3293,-1.4081,146.1,97.3,0.507
16.38,31715.2,34532.2,-1.4619,-1.15,146.1,97.3,0.507
16.4,31946.8,34693.0,-0.2731,-0.7541,146.1,97.3,0.507
16.42,32106.8,35006.9,0.5483,0.0186,146.1,97.3,0.507
16.44,32251.3,35430.2,1.2897,1.0609,146.1,97.3,0.507
16.46,32302.3,35668.4,1.5514,1.6472,146.1,97.3,0.507
16.48,32322.8,35785.4,1.6567,1.9353,146.1,97.3,0.507
16.5,32337.8,35647.1,1.7337,1.5947,146.1,97.3,0.507
16.52,32154.8,35564.5,0.7948,1.3915,146.1,97.3,0.507
16.54,32103.8,35317.7,0.5326,0.7838,146.1,97.3,0.507
16.56,32109.3,35118.6,0.5608,0.2936,146.1,97.3,0.507
16.58,32086.8,35003.3,0.4455,0.0096,146.1,97.3,0.507
16.6,32016.4,35015.5,0.0842,0.0399,146.1,97.3,0.507
16.62,31872.4,34940.1,-0.655,-0.1457,146.1,97.3,0.507
16.64,31954.5,34856.8,-0.2333,-0.351,146.1,97.3,0.507
16.66,31942.9,34747.7,-0.293,-0.6197,146.1,97.3,0.507
16.68,31810.8,34636.9,-0.9708,-0.8924,146.1,97.3,0.507
16.7,31801.1,34791.2,-1.0207,-0.5124,146.1,97.3,0.507
16.72,31880.3,34568.3,-0.6141,-1.0611,146.1,97.3,0.507
16.74,31861.4,34618.4,-0.7111,-0.9378,146.1,97.3,0.507
16.76,31772.7,34518.8,-1.1668,-1.1831,146.1,97.3,0.507
16.78,31718.0,34440.7,-1.4472,-1.3753,146.1,97.3,0.507
16.8,31740.1,34545.1,-1.3341,-1.1185,146.1,97.3,0.507
16.82,31976.2,34838.5,-0.1221,-0.3959,146.1,97.3,0.507
16.84,32106.7,35196.1,0.5477,0.4845,146.1,97.3,0.507
16.86,32264.8,35547.4,1.3594,1.3494,146.1,97.3,0.507
16.88,32369.2,35789.5,1.895,1.9453,146.1,97.3,0.507
16.9,32366.0,35733.4,1.8786,1.8073,146.1,97.3,0.507
16.92,32379.4,35641.0,1.9475,1.5797,146.1,97.3,0.507
16.94,32082.9,35440.7,0.4256,1.0866,146.1,97.3,0.507
16.96,32096.5,35178.8,0.4952,0.4419,146.1,97.3,0.507
16.98,32048.0,35108.8,0.2466,0.2695,146.1,97.3,0.507
17.0,32096.4,35143.0,0.4947,0.3537,146.1,97.3,0.507
17.02,32027.1,35053.0,0.1389,0.132,146.1,97.3,0.507
17.04,31868.9,34931.3,-0.6727,-0.1675,146.1,97.3,0.507
17.06,31885.2,34819.8,-0.5892,-0.442,146.1,97.3,0.507
17.08,31851.6,34773.8,-0.7617,-0.5553,146.1,97.3,0.507
17.1,31911.2,34592.7,-0.4556,-1.0011,146.1,97.3,0.507
17.12,31833.3,34605.7,-0.8556,-0.9693,146.1,97.3,0.507
17.14,31884.6,34625.5,-0.5923,-0.9205,146.1,97.3,0.507
17.16,31773.0,34533.1,-1.165,-1.148,146.1,97.3,0.507
17.18,31756.6,34456.7,-1.249,-1.336,146.1,97.3,0.507
17.2,31663.7,34448.9,-1.7261,-1.3552,146.1,97.3,0.507
17.22,31801.6,34662.7,-1.0184,-0.8288,146.1,97.3,0.507
17.24,31990.3,34960.8,-0.0499,-0.0948,146.1,97.3,0.507
17.26,32225.5,35397.5,1.1574,0.9801,146.1,97.3,0.507
17.28,32333.6,35667.3,1.7121,1.6446,146.1,97.3,0.507
17.3,32379.4,35776.2,1.9475,1.9126,146.1,97.3,0.507
17.32,32318.0,35676.3,1.6322,1.6667,146.1,97.3,0.507
17.34,32266.9,35489.2,1.3701,1.2059,146.1,97.3,0.507
17.36,32087.3,35255.7,0.4479,0.6311,146.1,97.3,0.507
17.38,32171.4,35106.1,0.8798,0.2627,146.1,97.3,0.507
17.4,32062.8,35022.1,0.3221,0.0559,146.1,97.3,0.507
17.42,31967.4,35131.0,-0.167,0.3241,146.1,97.3,0.507
17.44,31948.3,34990.4,-0.2654,-0.022,146.1,97.3,0.507
17.46,31898.2,34873.3,-0.5225,-0.3102,146.1,97.3,0.507
17.48,31841.1,34634.4,-0.8156,-0.8986,146.1,97.3,0.507
17.5,31899.4,34718.3,-0.5164,-0.6919,146.1,97.3,0.507
17.52,31825.2,34611.4,-0.897,-0.9551,146.1,97.3,0.507
17.54,31834.9,34680.7,-0.8472,-0.7845,146.1,97.3,0.507
17.56,31837.8,34542.2,-0.8324,-1.1256,146.1,97.3,0.507
17.58,31825.8,34497.4,-0.8938,-1.2358,146.1,97.3,0.507
17.6,31745.3,34518.9,-1.3073,-1.1828,146.1,97.3,0.507
17.62,31770.3,34565.4,-1.1787,-1.0684,146.1,97.3,0.507
17.64,31956.0,34766.7,-0.226,-0.5727,146.1,97.3,0.507
17.66,32179.1,35146.6,0.9194,0.3625,146.1,97.3,0.507
17.68,32240.5,35548.9,1.2345,1.3531,146.1,97.3,0.507
17.7,32370.3,35750.0,1.9008,1.8481,146.1,97.3,0.507
17.72,32423.9,35693.0,2.1758,1.7078,146.1,97.3,0.507
17.74,32284.9,35579.6,1.4621,1.4285,146.1,97.3,0.507
17.76,32150.7,35324.4,0.7734,0.8002,146.1,97.3,0.507
17.78,32094.9,35212.3,0.4872,0.5244,146.1,97.3,0.507
17.8,32048.9,35169.2,0.2509,0.4182,146.1,97.3,0.507
17.82,32140.5,35092.6,0.721,0.2296,146.1,97.3,0.507
17.84,32026.5,35046.5,0.1363,0.116,146.1,97.3,0.507
17.86,31966.2,34838.7,-0.1733,-0.3954,146.1,97.3,0.507
17.88,31933.4,34760.2,-0.342,-0.5887,146.1,97.3,0.507
17.9,31878.2,34707.1,-0.6252,-0.7194,146.1,97.3,0.507
17.92,31829.6,34690.0,-0.8745,-0.7615,146.1,97.3,0.507
17.94,31828.4,34596.2,-0.8805,-0.9925,146.1,97.3,0.507
17.96,31726.7,34688.2,-1.4029,-0.7661,146.1,97.3,0.507
17.98,31743.0,34571.6,-1.3191,-1.053,146.1,97.3,0.507
18.0,31728.1,34488.5,-1.3954,-1.2578,146.1,97.3,0.507
18.02,31768.8,34476.5,-1.1866,-1.2871,146.1,97.3,0.507
18.04,31933.6,34688.8,-0.3407,-0.7644,146.1,97.3,0.507
18.06,31967.0,35012.0,-0.1693,0.0311,146.1,97.3,0.507
18.08,32177.5,35321.5,0.911,0.793,146.1,97.3,0.507
18.1,32277.0,35584.3,1.4219,1.4402,146.1,97.3,0.507
18.12,32248.4,35800.3,1.2751,1.9719,146.1,97.3,0.507
18.14,32273.1,35751.6,1.4016,1.852,146.1,97.3,0.507
18.16,32239.7,35418.8,1.2302,1.0326,146.1,97.3,0.507
18.18,32139.4,35391.6,0.7154,0.9657,146.1,97.3,0.507
18.2,32035.2,35180.9,0.181,0.4471,146.1,97.3,0.507
18.22,32046.8,35056.1,0.2401,0.1399,146.1,97.3,0.507
18.24,32059.7,35095.1,0.3066,0.2357,146.1,97.3,0.507
18.26,32052.6,34949.5,0.27,-0.1228,146.1,97.3,0.507
18.28,32005.3,34794.8,0.0274,-0.5036,146.1,97.3,0.507
18.3,31939.8,34799.8,-0.3088,-0.4914,146.1,97.3,0.507
18.32,31949.8,34714.9,-0.2578,-0.7003,146.1,97.3,0.507
18.34,31782.5,34607.8,-1.1161,-0.9641,146.1,97.3,0.507
18.36,31824.9,34663.5,-0.8986,-0.8269,146.1,97.3,0.507
18.38,31842.6,34653.9,-0.808,-0.8504,146.1,97.3,0.507
18.4,31768.7,34507.4,-1.1872,-1.2111,146.1,97.3,0.507
18.42,31785.6,34449.1,-1.1005,-1.3548,146.1,97.3,0.507
18.44,31797.2,34536.4,-1.0408,-1.1398,146.1,97.3,0.507
18.46,31852.6,34732.9,-0.7567,-0.6561,146.1,97.3,0.507
18.48,32025.4,35196.6,0.1303,0.4857,146.1,97.3,0.507
18.5,32216.2,35452.3,1.1097,1.1153,146.1,97.3,0.507
18.52,32302.5,35796.2,1.5526,1.9618,146.1,97.3,0.507
18.54,32350.5,35854.0,1.799,2.1042,146.1,97.3,0.507
18.56,32262.2,35555.3,1.3457,1.3688,146.1,97.3,0.507
18.58,32145.5,35379.1,0.7466,0.935,146.1,97.3,0.507
18.6,32033.3,35357.3,0.1708,0.8813,146.1,97.3,0.507
18.62,32008.8,35114.4,0.0452,0.2832,146.1,97.3,0.507
18.64,32077.9,35015.5,0.3997,0.0399,146.1,97.3,0.507
18.66,31985.6,35076.1,-0.0738,0.1889,146.1,97.3,0.507
18.68,31974.7,34949.5,-0.1299,-0.1228,146.1,97.3,0.507
18.7,31902.2,34952.2,-0.5021,-0.116,146.1,97.3,0.507
18.72,31935.8,34777.5,-0.3296,-0.5463,146.1,97.3,0.507
18.74,31832.5,34714.1,-0.8595,-0.7022,146.1,97.3,0.507
18.76,31861.2,34685.2,-0.7123,-0.7735,146.1,97.3,0.507
18.78,31906.9,34645.7,-0.478,-0.8708,146.1,97.3,0.507
18.8,31830.8,34582.3,-0.8684,-1.0269,146.1,97.3,0.507
18.82,31768.9,34440.0,-1.1862,-1.377,146.1,97.3,0.507
18.84,31739.4,34411.1,-1.3378,-1.4483,146.1,97.3,0.507
18.86,31887.7,34543.7,-0.5763,-1.1219,146.1,97.3,0.507
18.88,31901.9,34920.8,-0.5035,-0.1933,146.1,97.3,0.507
18.9,32113.0,35288.8,0.5798,0.7127,146.1,97.3,0.507
18.92,32361.3,35726.4,1.8542,1.7899,146.1,97.3,0.507
18.94,32348.5,35713.9,1.7888,1.7593,146.1,97.3,0.507
18.96,32296.7,35626.8,1.523,1.5447,146.1,97.3,0.507
18.98,32217.9,35596.3,1.1183,1.4697,146.1,97.3,0.507
19.0,32131.0,35353.8,0.6723,0.8726,146.1,97.3,0.507
19.02,32034.2,35216.2,0.1758,0.5338,146.1,97.3,0.507
19.04,31975.0,35075.8,-0.1283,0.1881,146.1,97.3,0.507
19.06,31951.3,35120.6,-0.2499,0.2985,146.1,97.3,0.507
19.08,31957.5,34917.6,-0.2183,-0.2013,146.1,97.3,0.507
19.1,31951.0,34949.1,-0.2516,-0.1238,146.1,97.3,0.507
19.12,31851.1,34691.3,-0.7644,-0.7585,146.1,97.3,0.507
19.14,31897.4,34715.4,-0.5266,-0.6992,146.1,97.3,0.507
19.16,31858.2,34674.8,-0.7278,-0.7991,146.1,97.3,0.507
19.18,31847.1,34673.6,-0.7848,-0.8019,146.1,97.3,0.507
19.2,31868.4,34602.2,-0.6752,-0.9778,146.1,97.3,0.507
19.22,31749.4,34455.8,-1.2862,-1.3382,146.1,97.3,0.507
19.24,31689.2,34544.7,-1.5951,-1.1194,146.1,97.3,0.507
19.26,31783.4,34523.7,-1.1115,-1.171,146.1,97.3,0.507
19.28,31865.2,34802.7,-0.692,-0.4842,146.1,97.3,0.507
19.3,32047.0,35107.9,0.2413,0.2674,146.1,97.3,0.507
19.32,32261.9,35546.1,1.3444,1.3461,146.1,97.3,0.507
19.34,32306.2,35655.4,1.5714,1.6152,146.1,97.3,0.507
19.36,32302.2,35783.0,1.5509,1.9294,146.1,97.3,0.507
19.38,32351.3,35570.2,1.8033,1.4054,146.1,97.3,0.507
19.4,32262.2,35417.3,1.3458,1.029,146.1,97.3,0.507
19.42,32096.2,35239.7,0.4937,0.5918,146.1,97.3,0.507
19.44,32094.2,35141.4,0.4836,0.3497,146.1,97.3,0.507
19.46,32020.3,35111.0,0.1044,0.2748,146.1,97.3,0.507
19.48,31974.4,34947.3,-0.1312,-0.128,146.1,97.3,0.507
19.5,31992.5,34936.0,-0.0385,-0.156,146.1,97.3,0.507
19.52,31871.8,34821.3,-0.6579,-0.4383,146.1,97.3,0.507
19.54,31772.1,34686.4,-1.1697,-0.7705,146.1,97.3,0.507
19.56,31896.3,34720.0,-0.5322,-0.6877,146.1,97.3,0.507
19.58,31884.6,34664.5,-0.5924,-0.8244,146.1,97.3,0.507
19.6,31811.8,34626.4,-0.966,-0.9182,146.1,97.3,0.507
19.62,31812.2,34536.5,-0.9638,-1.1395,146.1,97.3,0.507
19.64,31826.0,34515.2,-0.8931,-1.1919,146.1,97.3,0.507
19.66,31709.5,34509.0,-1.4912,-1.2072,146.1,97.3,0.507
19.68,31739.6,34665.6,-1.3364,-0.8217,146.1,97.3,0.507
19.7,31898.8,34848.0,-0.5195,-0.3725,146.1,97.3,0.507
19.72,32120.2,35251.8,0.6168,0.6215,146.1,97.3,0.507
19.74,32273.9,35542.2,1.4061,1.3365,146.1,97.3,0.507
19.76,32361.3,35625.5,1.8543,1.5416,146.1,97.3,0.507
19.78,32358.3,35716.9,1.8393,1.7667,146.1,97.3,0.507
19.8,32303.0,35510.6,1.5551,1.2587,146.1,97.3,0.507
19.82,32136.6,35306.3,0.7011,0.7558,146.1,97.3,0.507
19.84,32048.1,35202.5,0.2469,0.5002,146.1,97.3,0.507
19.86,32056.6,35117.3,0.2906,0.2904,146.1,97.3,0.507
19.88,32059.5,35151.8,0.3056,0.3752,146.1,97.3,0.507
19.9,32056.6,35007.5,0.2906,0.0202,146.1,97.3,0.507
19.92,31933.2,34803.5,-0.3427,-0.4821,146.1,97.3,0.507
19.94,31882.2,34893.4,-0.6048,-0.2609,146.1,97.3,0.507
19.96,31820.4,34713.1,-0.9217,-0.7046,146.1,97.3,0.507
19.98,31885.2,34625.9,-0.5893,-0.9195,146.1,97.3,0.507
20.0,31843.7,34624.8,-0.802,-0.922,146.1,97.3,0.507
20.02,31820.9,34656.9,-0.9194,-0.8432,146.1,97.3,0.507
20.04,31836.1,34448.9,-0.8414,-1.3552,146.1,97.3,0.507
20.06,31817.1,34486.4,-0.9386,-1.2629,146.1,97.3,0.507
20.08,31771.4,34556.9,-1.1731,-1.0892,146.1,97.3,0.507
20.1,31887.9,34655.1,-0.5752,-0.8475,146.1,97.3,0.507
20.12,32031.4,35089.9,0.1611,0.223,146.1,97.3,0.507
20.14,32268.4,35422.3,1.3777,1.0414,146.1,97.3,0.507
20.16,32364.9,35637.6,1.8729,1.5714,146.1,97.3,0.507
20.18,32288.6,35711.6,1.4812,1.7536,146.1,97.3,0.507
20.2,32280.3,35637.5,1.4389,1.5712,146.1,97.3,0.507
20.22,32219.9,35422.4,1.1289,1.0417,146.1,97.3,0.507
20.24,32142.5,35292.3,0.7317,0.7213,146.1,97.3,0.507
20.26,32050.0,35074.3,0.2567,0.1845,146.1,97.3,0.507
20.28,32054.3,35070.1,0.2789,0.1741,146.1,97.3,0.507
20.3,32018.6,34998.5,0.0953,-0.0021,146.1,97.3,0.507
20.32,31856.9,34969.9,-0.7347,-0.0725,146.1,97.3,0.507
20.34,31904.3,34866.7,-0.4914,-0.3265,146.1,97.3,0.507
20.36,31946.4,34761.2,-0.2749,-0.5862,146.1,97.3,0.507
20.38,31742.8,34714.0,-1.32,-0.7026,146.1,97.3,0.507
20.4,31859.1,34635.4,-0.7232,-0.8961,146.1,97.3,0.507
20.42,31822.7,34698.1,-0.9101,-0.7416,146.1,97.3,0.507
20.44,31784.6,34619.0,-1.1056,-0.9365,146.1,97.3,0.507
20.46,31749.8,34515.9,-1.284,-1.1903,146.1,97.3,0.507
20.48,31768.2,34416.6,-1.1897,-1.4347,146.1,97.3,0.507
20.5,31883.6,34655.6,-0.5972,-0.8463,146.1,97.3,0.507
20.52,31981.5,34846.1,-0.0948,-0.3774,146.1,97.3,0.507
20.54,32095.2,35323.6,0.4889,0.7983,146.1,97.3,0.507
20.56,32300.0,35594.5,1.5396,1.4652,146.1,97.3,0.507
20.58,32360.0,35782.8,1.8476,1.9289,146.1,97.3,0.507
20.6,32373.0,35635.8,1.9142,1.5669,146.1,97.3,0.507
20.62,32249.8,35571.5,1.2823,1.4086,146.1,97.3,0.507
20.64,32153.8,35286.7,0.7893,0.7074,146.1,97.3,0.507
20.66,32122.9,35134.5,0.6307,0.3328,146.1,97.3,0.507
20.68,32006.7,35099.6,0.0344,0.2467,146.1,97.3,0.507
20.7,32002.2,35011.2,0.0115,0.0293,146.1,97.3,0.507
20.72,32076.7,34998.8,0.3939,-0.0014,146.1,97.3,0.507
20.74,31822.0,34877.5,-0.9133,-0.2999,146.1,97.3,0.507
20.76,31923.0,34801.5,-0.3954,-0.4871,146.1,97.3,0.507
20.78,31849.0,34616.4,-0.7752,-0.9429,146.1,97.3,0.507
20.8,31889.3,34695.2,-0.5679,-0.7488,146.1,97.3,0.507
20.82,31797.6,34674.2,-1.0386,-0.8005,146.1,97.3,0.507
20.84,31884.9,34633.2,-0.5906,-0.9014,146.1,97.3,0.507
20.86,31794.1,34479.0,-1.0567,-1.281,146.1,97.3,0.507
20.88,31704.7,34507.0,-1.5157,-1.2121,146.1,97.3,0.507
20.9,31749.2,34458.5,-1.2871,-1.3315,146.1,97.3,0.507
20.92,31878.0,34744.6,-0.626,-0.6273,146.1,97.3,0.507
20.94,31927.5,35021.4,-0.372,0.0542,146.1,97.3,0.507
20.96,32178.1,35350.9,0.914,0.8654,146.1,97.3,0.507
20.98,32304.0,35693.4,1.5601,1.7088,146.1,97.3,0.507
21.0,32343.5,35725.6,1.7631,1.788,146.1,97.3,0.507
21.02,32339.6,35632.6,1.7433,1.5591,146.1,97.3,0.507
21.04,32206.4,35498.6,1.0593,1.2291,146.1,97.3,0.507
21.06,32183.4,35201.7,0.9414,0.4982,146.1,97.3,0.507
21.08,32021.4,35275.1,0.1098,0.679,146.1,97.3,0.507
21.1,32123.5,35074.9,0.6339,0.186,146.1,97.3,0.507
21.12,32035.4,34980.3,0.1817,-0.047,146.1,97.3,0.507
21.14,31932.3,34960.0,-0.3475,-0.0969,146.1,97.3,0.507
21.16,31890.7,34832.8,-0.561,-0.4101,146.1,97.3,0.507
21.18,31874.3,34759.7,-0.645,-0.5901,146.1,97.3,0.507
21.2,31794.5,34622.5,-1.0547,-0.9279,146.1,97.3,0.507
21.22,31879.0,34640.7,-0.6209,-0.8831,146.1,97.3,0.507
21.24,31803.4,34638.7,-1.0092,-0.8879,146.1,97.3,0.507
21.26,31835.1,34511.8,-0.8464,-1.2003,146.1,97.3,0.507
21.28,31864.5,34456.0,-0.6952,-1.3378,146.1,97.3,0.507
21.3,31791.2,34400.0,-1.0717,-1.4756,146.1,97.3,0.507
21.32,31819.9,34579.8,-0.9242,-1.0329,146.1,97.3,0.507
21.34,31952.4,34897.9,-0.2444,-0.2497,146.1,97.3,0.507
21.36,32030.0,35205.3,0.1539,0.507,146.1,97.3,0.507
21.38,32358.6,35634.3,1.8408,1.5633,146.1,97.3,0.507
21.4,32296.4,35829.2,1.5213,2.0431,146.1,97.3,0.507
21.42,32384.6,35673.6,1.974,1.66,146.1,97.3,0.507
21.44,32250.0,35645.1,1.2832,1.5897,146.1,97.3,0.507
21.46,32154.7,35392.4,0.7939,0.9676,146.1,97.3,0.507
21.48,32035.4,35226.5,0.1818,0.5592,146.1,97.3,0.507
21.5,32092.8,35049.7,0.4765,0.124,146.1,97.3,0.507
21.52,32107.0,35031.5,0.5491,0.0793,146.1,97.3,0.507
21.54,32016.2,34994.4,0.0833,-0.0122,146.1,97.3,0.507
21.56,31945.2,34846.3,-0.2811,-0.3769,146.1,97.3,0.507
21.58,31913.1,34768.1,-0.446,-0.5694,146.1,97.3,0.507
21.6,31731.6,34697.0,-1.3774,-0.7443,146.1,97.3,0.507
21.62,31862.2,34718.5,-0.7072,-0.6915,146.1,97.3,0.507
21.64,31831.2,34766.0,-0.8661,-0.5744,146.1,97.3,0.507
21.66,31833.2,34603.4,-0.8562,-0.9749,146.1,97.3,0.507
21.68,31816.8,34538.3,-0.9404,-1.1351,146.1,97.3,0.507
21.7,31713.7,34396.6,-1.4696,-1.484,146.1,97.3,0.507
21.72,31679.3,34453.7,-1.6462,-1.3434,146.1,97.3,0.507
21.74,31842.0,34693.4,-0.811,-0.7532,146.1,97.3,0.507
21.76,32012.1,35042.5,0.062,0.1062,146.1,97.3,0.507
21.78,32203.1,35455.0,1.0423,1.1218,146.1,97.3,0.507
21.8,32306.4,35648.3,1.5724,1.5977,146.1,97.3,0.507
21.82,32297.9,35685.1,1.529,1.6883,146.1,97.3,0.507
21.84,32341.1,35771.7,1.7506,1.9015,146.1,97.3,0.507
21.86,32171.9,35587.9,0.8822,1.449,146.1,97.3,0.507
21.88,32113.9,35372.5,0.5846,0.9186,146.1,97.3,0.507
21.9,32078.0,35187.1,0.4004,0.4622,146.1,97.3,0.507
21.92,32078.6,35150.6,0.4033,0.3723,146.1,97.3,0.507
21.94,32012.6,34986.6,0.0647,-0.0315,146.1,97.3,0.507
21.96,31984.7,34830.0,-0.0786,-0.4169,146.1,97.3,0.507
21.98,31924.1,34889.1,-0.3893,-0.2715,146.1,97.3,0.507
22.0,31822.7,34782.2,-0.9099,-0.5347,146.1,97.3,0.507
22.02,31840.4,34705.2,-0.8192,-0.7242,146.1,97.3,0.507
22.04,31935.3,34614.2,-0.3319,-0.9482,146.1,97.3,0.507
22.06,31853.6,34663.0,-0.7515,-0.828,146.1,97.3,0.507
22.08,31822.0,34563.3,-0.9136,-1.0736,146.1,97.3,0.507
22.1,31703.9,34469.9,-1.5196,-1.3034,146.1,97.3,0.507
22.12,31743.4,34507.8,-1.317,-1.2102,146.1,97.3,0.507
22.14,31819.9,34588.0,-0.9245,-1.0126,146.1,97.3,0.507
22.16,31940.1,34867.5,-0.3071,-0.3247,146.1,97.3,0.507
22.18,32041.0,35264.4,0.2103,0.6525,146.1,97.3,0.507
22.2,32332.1,35531.3,1.7048,1.3098,146.1,97.3,0.507
22.22,32325.9,35655.4,1.6729,1.6152,146.1,97.3,0.507
22.24,32350.2,35712.5,1.7976,1.7559,146.1,97.3,0.507
22.26,32276.0,35521.7,1.4167,1.286,146.1,97.3,0.507
22.28,32222.5,35300.1,1.1422,0.7405,146.1,97.3,0.507
22.3,32092.4,35260.1,0.4742,0.6419,146.1,97.3,0.507
22.32,32077.2,35192.2,0.3963,0.4747,146.1,97.3,0.507
22.34,32097.9,35090.4,0.5026,0.2241,146.1,97.3,0.507
22.36,31991.5,35030.6,-0.0438,0.0769,146.1,97.3,0.507
22.38,31967.5,34834.6,-0.1666,-0.4057,146.1,97.3,0.507
22.4,31925.5,34828.9,-0.3825,-0.4197,146.1,97.3,0.507
22.42,31819.2,34791.2,-0.9277,-0.5125,146.1,97.3,0.507
22.44,31837.7,34637.1,-0.833,-0.8919,146.1,97.3,0.507
22.46,31918.1,34621.4,-0.4203,-0.9305,146.1,97.3,0.507
22.48,31866.2,34581.8,-0.6867,-1.0279,146.1,97.3,0.507
22.5,31786.7,34478.6,-1.095,-1.282,146.1,97.3,0.507
22.52,31708.9,34500.9,-1.4939,-1.2272,146.1,97.3,0.507
22.54,31868.0,34494.8,-0.6777,-1.2423,146.1,97.3,0.507
22.56,31845.8,34652.2,-0.7916,-0.8548,146.1,97.3,0.507
22.58,31981.1,34948.8,-0.0971,-0.1245,146.1,97.3,0.507
22.6,32213.5,35336.3,1.0957,0.8295,146.1,97.3,0.507
22.62,32347.4,35745.2,1.7831,1.8364,146.1,97.3,0.507
22.64,32323.5,35703.3,1.6606,1.7331,146.1,97.3,0.507
22.66,32325.2,35671.9,1.6693,1.6557,146.1,97.3,0.507
22.68,32187.2,35534.9,0.9607,1.3185,146.1,97.3,0.507
22.7,32016.5,35300.4,0.0845,0.7411,146.1,97.3,0.507
22.72,32075.6,35133.8,0.3878,0.331,146.1,97.3,0.507
22.74,31987.5,35092.2,-0.0641,0.2287,146.1,97.3,0.507
22.76,32117.7,35034.1,0.6042,0.0857,146.1,97.3,0.507
22.78,31986.3,34985.2,-0.0701,-0.0347,146.1,97.3,0.507
22.8,31822.3,34808.0,-0.912,-0.4711,146.1,97.3,0.507
22.82,31915.8,34818.4,-0.4321,-0.4455,146.1,97.3,0.507
22.84,31841.1,34698.1,-0.8157,-0.7418,146.1,97.3,0.507
22.86,31873.0,34636.9,-0.6519,-0.8924,146.1,97.3,0.507
22.88,31819.6,34697.7,-0.9259,-0.7425,146.1,97.3,0.507
22.9,31833.0,34591.3,-0.8572,-1.0045,146.1,97.3,0.507
22.92,31693.3,34472.5,-1.5742,-1.2972,146.1,97.3,0.507
22.94,31735.4,34440.5,-1.3579,-1.3758,146.1,97.3,0.507
22.96,31784.1,34563.4,-1.1083,-1.0732,146.1,97.3,0.507
22.98,31846.6,34779.8,-0.787,-0.5406,146.1,97.3,0.507
23.0,32060.1,35124.6,0.3083,0.3085,146.1,97.3,0.507
23.02,32278.7,35525.3,1.4307,1.295,146.1,97.3,0.507
23.04,32391.3,35706.5,2.0083,1.7409,146.1,97.3,0.507
23.06,32308.1,35746.0,1.5814,1.8383,146.1,97.3,0.507
23.08,32157.5,35543.0,0.8083,1.3385,146.1,97.3,0.507
23.1,32163.4,35371.5,0.8389,0.9162,146.1,97.3,0.507
23.12,32099.1,35258.8,0.5087,0.6388,146.1,97.3,0.507
23.14,32129.9,35137.0,0.6666,0.339,146.1,97.3,0.507
23.16,32062.7,35128.8,0.3219,0.3188,146.1,97.3,0.507
23.18,32102.0,35000.7,0.5238,0.0032,146.1,97.3,0.507
23.2,31935.3,34825.9,-0.3321,-0.4271,146.1,97.3,0.507
23.22,32017.4,34806.7,0.0894,-0.4742,146.1,97.3,0.507
23.24,31844.1,34791.2,-0.8001,-0.5125,146.1,97.3,0.507
23.26,31871.7,34691.5,-0.6584,-0.7579,146.1,97.3,0.507
23.28,31870.4,34641.1,-0.6651,-0.882,146.1,97.3,0.507
23.3,31862.5,34613.9,-0.7056,-0.9489,146.1,97.3,0.507
23.32,31858.9,34471.8,-0.7244,-1.2989,146.1,97.3,0.507
23.34,31713.1,34539.9,-1.4725,-1.1311,146.1,97.3,0.507
23.36,31820.3,34442.3,-0.9225,-1.3714,146.1,97.3,0.507
23.38,31875.4,34642.4,-0.6394,-0.8788,146.1,97.3,0.507
23.4,32045.7,34978.4,0.2347,-0.0516,146.1,97.3,0.507
23.42,32195.8,35357.7,1.0052,0.8822,146.1,97.3,0.507
23.44,32401.7,35609.4,2.0621,1.5019,146.1,97.3,0.507
23.46,32359.9,35724.9,1.8472,1.7862,146.1,97.3,0.507
23.48,32290.7,35674.4,1.492,1.662,146.1,97.3,0.507
23.5,32276.1,35551.2,1.417,1.3587,146.1,97.3,0.507
23.52,32111.5,35321.0,0.5722,0.7918,146.1,97.3,0.507
23.54,32105.7,35137.6,0.5427,0.3403,146.1,97.3,0.507
23.56,32101.8,35058.3,0.5224,0.1452,146.1,97.3,0.507
23.58,32058.4,34956.4,0.2995,-0.1057,146.1,97.3,0.507
23.6,32000.3,34892.9,0.0016,-0.262,146.1,97.3,0.507
23.62,31950.9,34835.3,-0.2518,-0.4038,146.1,97.3,0.507
23.64,31895.6,34753.5,-0.5357,-0.6052,146.1,97.3,0.507
23.66,31879.5,34729.8,-0.6185,-0.6637,146.1,97.3,0.507
23.68,31913.2,34748.3,-0.4454,-0.618,146.1,97.3,0.507
23.7,31862.4,34649.5,-0.706,-0.8614,146.1,97.3,0.507
23.72,31838.8,34656.9,-0.8271,-0.8432,146.1,97.3,0.507
23.74,31781.4,34581.9,-1.122,-1.0278,146.1,97.3,0.507
23.76,31791.4,34386.8,-1.0705,-1.508,146.1,97.3,0.507
23.78,31833.8,34531.4,-0.8529,-1.152,146.1,97.3,0.507
23.8,31885.2,34805.0,-0.5891,-0.4784,146.1,97.3,0.507
23.82,32100.6,35178.8,0.5163,0.4418,146.1,97.3,0.507
23.84,32154.0,35493.1,0.7905,1.2156,146.1,97.3,0.507
23.86,32325.2,35716.7,1.6689,1.766,146.1,97.3,0.507
23.88,32400.1,35733.9,2.0534,1.8085,146.1,97.3,0.507
23.9,32252.2,35539.5,1.2943,1.3299,146.1,97.3,0.507
23.92,32222.4,35421.3,1.1415,1.0388,146.1,97.3,0.507
23.94,32073.9,35236.6,0.3792,0.5841,146.1,97.3,0.507
23.96,32052.3,35205.1,0.2687,0.5065,146.1,97.3,0.507
23.98,32114.4,35028.3,0.5872,0.0713,146.1,97.3,0.507
24.0,32035.9,34992.4,0.1841,-0.0171,146.1,97.3,0.507
24.02,31968.0,34868.4,-0.1644,-0.3223,146.1,97.3,0.507
24.04,31913.1,34795.8,-0.4459,-0.5011,146.1,97.3,0.507
24.06,31890.6,34698.2,-0.5615,-0.7415,146.1,97.3,0.507
24.08,31836.1,34595.1,-0.8412,-0.9953,146.1,97.3,0.507
24.1,31753.8,34665.7,-1.2638,-0.8213,146.1,97.3,0.507
24.12,31816.9,34660.4,-0.9399,-0.8344,146.1,97.3,0.507
24.14,31833.0,34533.0,-0.8573,-1.1481,146.1,97.3,0.507
24.16,31770.9,34543.4,-1.1756,-1.1226,146.1,97.3,0.507
24.18,31779.8,34460.5,-1.13,-1.3265,146.1,97.3,0.507
24.2,31851.5,34628.2,-0.7621,-0.9138,146.1,97.3,0.507
24.22,31924.0,34940.9,-0.3898,-0.1439,146.1,97.3,0.507
24.24,32107.3,35377.9,0.5507,0.9321,146.1,97.3,0.507
24.26,32289.7,35601.7,1.4869,1.4829,146.1,97.3,0.507
24.28,32290.2,35750.9,1.4896,1.8504,146.1,97.3,0.507
24.3,32283.7,35663.4,1.4562,1.6348,146.1,97.3,0.507
24.32,32178.3,35509.3,0.915,1.2555,146.1,97.3,0.507
24.34,32142.0,35270.9,0.729,0.6686,146.1,97.3,0.507
24.36,32085.9,35128.7,0.4407,0.3185,146.1,97.3,0.507
24.38,32059.7,35072.2,0.3064,0.1794,146.1,97.3,0.507
24.4,32030.8,34995.5,0.158,-0.0094,146.1,97.3,0.507
24.42,31955.5,34909.9,-0.2285,-0.2203,146.1,97.3,0.507
24.44,31918.3,34892.0,-0.4191,-0.2644,146.1,97.3,0.507
24.46,31829.3,34864.9,-0.8759,-0.331,146.1,97.3,0.507
24.48,31840.9,34624.5,-0.8165,-0.9229,146.1,97.3,0.507
24.5,31868.4,34711.4,-0.6754,-0.709,146.1,97.3,0.507
24.52,31768.0,34554.3,-1.1906,-1.0957,146.1,97.3,0.507
24.54,31873.4,34663.7,-0.6496,-0.8264,146.1,97.3,0.507
24.56,31696.0,34459.9,-1.5601,-1.328,146.1,97.3,0.507
24.58,31813.5,34400.4,-0.9572,-1.4745,146.1,97.3,0.507
24.6,31804.1,34550.1,-1.0054,-1.1061,146.1,97.3,0.507
24.62,31842.6,34742.0,-0.8077,-0.6337,146.1,97.3,0.507
24.64,31992.6,35142.6,-0.0377,0.3527,146.1,97.3,0.507
24.66,32227.6,35468.9,1.1682,1.1559,146.1,97.3,0.507
24.68,32385.1,35678.1,1.9766,1.671,146.1,97.3,0.507
24.7,32323.0,35784.1,1.6577,1.9321,146.1,97.3,0.507
24.72,32352.1,35564.4,1.807,1.3911,146.1,97.3,0.507
24.74,32188.6,35392.1,0.9682,0.9669,146.1,97.3,0.507
24.76,32108.9,35237.7,0.5588,0.5869,146.1,97.3,0.507
24.78,31935.0,35056.7,-0.3337,0.1413,146.1,97.3,0.507
24.8,32077.1,35092.0,0.396,0.228,146.1,97.3,0.507
24.82,32017.0,35007.2,0.0873,0.0192,146.1,97.3,0.507
24.84,31909.9,34940.5,-0.4624,-0.1449,146.1,97.3,0.507
24.86,31894.1,34793.1,-0.5437,-0.5077,146.1,97.3,0.507
24.88,31798.9,34575.7,-1.0322,-1.0429,146.1,97.3,0.507
24.9,31814.2,34700.6,-0.9538,-0.7355,146.1,97.3,0.507
24.92,31876.7,34673.9,-0.6328,-0.8014,146.1,97.3,0.507
24.94,31763.1,34664.8,-1.2161,-0.8238,146.1,97.3,0.507
24.96,31793.7,34509.6,-1.0587,-1.2057,146.1,97.3,0.507
24.98,31710.5,34485.0,-1.4857,-1.2662,146.1,97.3,0.507
25.0,31736.9,34438.8,-1.3502,-1.3801,146.1,97.3,0.507
25.02,31772.3,34595.5,-1.1689,-0.9944,146.1,97.3,0.507
25.04,32033.9,34940.1,0.1742,-0.1458,146.1,97.3,0.507
25.06,32089.8,35304.9,0.461,0.7524,146.1,97.3,0.507
25.08,32302.2,35600.0,1.551,1.4788,146.1,97.3,0.507
25.1,32415.6,35710.3,2.1329,1.7504,146.1,97.3,0.507
25.12,32257.1,35648.1,1.3196,1.5972,146.1,97.3,0.507
25.14,32199.8,35570.1,1.0256,1.4053,146.1,97.3,0.507
25.16,32115.0,35382.2,0.5904,0.9427,146.1,97.3,0.507
25.18,32085.3,35237.1,0.4377,0.5852,146.1,97.3,0.507
25.2,32136.4,35110.3,0.7001,0.2733,146.1,97.3,0.507
25.22,32135.0,35039.7,0.6929,0.0994,146.1,97.3,0.507
25.24,32008.0,34990.7,0.0409,-0.0212,146.1,97.3,0.507
25.26,31880.0,34895.2,-0.6157,-0.2563,146.1,97.3,0.507
25.28,31904.5,34714.5,-0.4901,-0.7012,146.1,97.3,0.507
25.3,31894.7,34657.2,-0.5406,-0.8423,146.1,97.3,0.507
25.32,31828.5,34709.3,-0.8802,-0.7142,146.1,97.3,0.507
25.34,31910.0,34674.6,-0.4621,-0.7994,146.1,97.3,0.507
25.36,31841.9,34550.4,-0.8115,-1.1052,146.1,97.3,0.507
25.38,31748.1,34533.8,-1.2928,-1.1463,146.1,97.3,0.507
25.4,31696.4,34431.4,-1.5582,-1.3984,146.1,97.3,0.507
25.42,31791.0,34509.0,-1.0725,-1.2073,146.1,97.3,0.507
25.44,31840.7,34663.2,-0.8175,-0.8275,146.1,97.3,0.507
25.46,32097.8,35044.2,0.5022,0.1103,146.1,97.3,0.507
25.48,32223.8,35359.5,1.1486,0.8868,146.1,97.3,0.507
25.5,32371.8,35704.8,1.9082,1.7369,146.1,97.3,0.507
25.52,32321.4,35742.9,1.6499,1.8306,146.1,97.3,0.507
25.54,32275.6,35698.3,1.4144,1.7209,146.1,97.3,0.507
25.56,32215.7,35527.4,1.1073,1.3,146.1,97.3,0.507
25.58,32114.2,35195.8,0.5861,0.4836,146.1,97.3,0.507
25.6,32064.3,35154.5,0.3301,0.382,146.1,97.3,0.507
25.62,32049.2,35000.0,0.2528,0.0016,146.1,97.3,0.507
25.64,31927.5,34952.3,-0.3719,-0.1158,146.1,97.3,0.507
25.66,32063.8,34905.9,0.3276,-0.2301,146.1,97.3,0.507
25.68,31907.1,34828.5,-0.4768,-0.4207,146.1,97.3,0.507
25.7,31837.2,34720.6,-0.8356,-0.6862,146.1,97.3,0.507
25.72,31940.6,34811.5,-0.3046,-0.4625,146.1,97.3,0.507
25.74,31872.7,34658.7,-0.6535,-0.8387,146.1,97.3,0.507
25.76,31812.5,34671.4,-0.9625,-0.8074,146.1,97.3,0.507
25.78,31810.0,34490.3,-0.9751,-1.2533,146.1,97.3,0.507
25.8,31684.4,34464.9,-1.62,-1.3158,146.1,97.3,0.507
25.82,31750.1,34443.2,-1.2827,-1.3692,146.1,97.3,0.507
25.84,31796.2,34664.9,-1.0457,-0.8235,146.1,97.3,0.507
25.86,31978.4,34863.9,-0.111,-0.3334,146.1,97.3,0.507
25.88,32177.7,35238.2,0.9123,0.5882,146.1,97.3,0.507
25.9,32269.5,35526.0,1.3832,1.2965,146.1,97.3,0.507
25.92,32284.3,35714.9,1.4595,1.7618,146.1,97.3,0.507
25.94,32376.1,35692.2,1.9303,1.7058,146.1,97.3,0.507
25.96,32257.3,35527.1,1.3205,1.2993,146.1,97.3,0.507
25.98,32162.8,35344.7,0.8355,0.8503,146.1,97.3,0.507
26.0,32040.3,35228.4,0.2066,0.5639,146.1,97.3,0.507
26.02,32021.7,35066.4,0.1115,0.1651,146.1,97.3,0.507
26.04,32049.7,35068.3,0.255,0.1698,146.1,97.3,0.507
26.06,32022.6,35020.8,0.116,0.0528,146.1,97.3,0.507
26.08,32022.0,34810.3,0.113,-0.4654,146.1,97.3,0.507
26.1,31873.4,34770.1,-0.6495,-0.5645,146.1,97.3,0.507
26.12,31801.8,34728.6,-1.0171,-0.6666,146.1,97.3,0.507
26.14,31765.5,34659.9,-1.2035,-0.8358,146.1,97.3,0.507
26.16,31890.6,34609.1,-0.5612,-0.9608,146.1,97.3,0.507
26.18,31828.0,34571.2,-0.8828,-1.0541,146.1,97.3,0.507
26.2,31797.4,34536.9,-1.0399,-1.1385,146.1,97.3,0.507
26.22,31809.1,34492.9,-0.9799,-1.2468,146.1,97.3,0.507
26.24,31758.5,34463.7,-1.2395,-1.3188,146.1,97.3,0.507
26.26,31871.4,34724.7,-0.6598,-0.6762,146.1,97.3,0.507
26.28,32015.0,35065.0,0.077,0.1617,146.1,97.3,0.507
26.3,32182.8,35482.7,0.9382,1.1901,146.1,97.3,0.507
26.32,32376.1,35612.2,1.9307,1.509,146.1,97.3,0.507
26.34,32385.4,35804.0,1.9782,1.9811,146.1,97.3,0.507
26.36,32242.5,35617.7,1.2447,1.5223,146.1,97.3,0.507
26.38,32145.9,35500.4,0.7488,1.2335,146.1,97.3,0.507
26.4,32137.4,35201.7,0.7052,0.4982,146.1,97.3,0.507
26.42,32065.1,35111.0,0.3343,0.275,146.1,97.3,0.507
26.44,31996.7,35147.9,-0.0167,0.3657,146.1,97.3,0.507
26.46,32028.3,35038.8,0.1455,0.0971,146.1,97.3,0.507
26.48,31996.1,34920.4,-0.0202,-0.1943,146.1,97.3,0.507
26.5,31948.6,34779.6,-0.2639,-0.5409,146.1,97.3,0.507
26.52,31887.0,34714.9,-0.5798,-0.7004,146.1,97.3,0.507
26.54,31861.2,34614.5,-0.7126,-0.9475,146.1,97.3,0.507
26.56,31967.0,34679.5,-0.1691,-0.7875,146.1,97.3,0.507
26.58,31853.4,34624.6,-0.7525,-0.9226,146.1,97.3,0.507
26.6,31850.5,34585.6,-0.7672,-1.0187,146.1,97.3,0.507
26.62,31700.0,34439.1,-1.5398,-1.3793,146.1,97.3,0.507
26.64,31757.5,34499.3,-1.2447,-1.2312,146.1,97.3,0.507
26.66,31811.7,34548.8,-0.9663,-1.1094,146.1,97.3,0.507
26.68,31953.0,34825.2,-0.241,-0.4287,146.1,97.3,0.507
26.7,32096.3,35190.9,0.4944,0.4717,146.1,97.3,0.507
26.72,32206.6,35592.3,1.0603,1.4598,146.1,97.3,0.507
26.74,32336.3,35703.4,1.7263,1.7333,146.1,97.3,0.507
26.76,32365.1,35681.8,1.8741,1.6803,146.1,97.3,0.507
26.78,32240.8,35480.8,1.2359,1.1853,146.1,97.3,0.507
26.8,32098.0,35365.5,0.5031,0.9015,146.1,97.3,0.507
26.82,32075.2,35210.2,0.3859,0.5192,146.1,97.3,0.507
26.84,32185.8,35208.5,0.9537,0.515,146.1,97.3,0.507
26.86,31999.3,35118.3,-0.0036,0.2929,146.1,97.3,0.507
26.88,31977.7,35128.0,-0.1143,0.3167,146.1,97.3,0.507
26.9,32003.1,34795.8,0.016,-0.5011,146.1,97.3,0.507
26.92,31920.0,34904.9,-0.4105,-0.2326,146.1,97.3,0.507
26.94,31863.8,34684.3,-0.699,-0.7757,146.1,97.3,0.507
26.96,31825.0,34668.0,-0.8984,-0.8157,146.1,97.3,0.507
26.98,31790.3,34668.5,-1.0762,-0.8145,146.1,97.3,0.507
27.0,31738.9,34627.8,-1.3399,-0.9147,146.1,97.3,0.507
27.02,31784.0,34416.7,-1.1086,-1.4345,146.1,97.3,0.507
27.04,31673.7,34415.4,-1.6748,-1.4376,146.1,97.3,0.507
27.06,31842.7,34516.0,-0.8074,-1.1901,146.1,97.3,0.507
27.08,31827.2,34731.4,-0.8871,-0.6596,146.1,97.3,0.507
27.1,32081.2,35166.7,0.4169,0.4121,146.1,97.3,0.507
27.12,32179.1,35311.6,0.9192,0.7688,146.1,97.3,0.507
27.14,32326.2,35699.0,1.6742,1.7225,146.1,97.3,0.507
27.16,32381.3,35726.4,1.957,1.7901,146.1,97.3,0.507
27.18,32251.8,35658.8,1.2923,1.6235,146.1,97.3,0.507
27.2,32201.1,35417.3,1.0321,1.0289,146.1,97.3,0.507
27.22,32118.4,35162.7,0.6075,0.4021,146.1,97.3,0.507
27.24,32097.7,35179.5,0.5015,0.4436,146.1,97.3,0.507
27.26,32093.5,35119.1,0.4797,0.2949,146.1,97.3,0.507
27.28,32040.8,35132.5,0.2095,0.3278,146.1,97.3,0.507
27.3,32003.2,34904.0,0.0167,-0.2347,146.1,97.3,0.507
27.32,31877.9,34902.5,-0.6269,-0.2385,146.1,97.3,0.507
27.34,31882.0,34689.2,-0.6056,-0.7636,146.1,97.3,0.507
27.36,31855.7,34673.9,-0.7404,-0.8014,146.1,97.3,0.507
27.38,31930.0,34627.4,-0.3595,-0.9157,146.1,97.3,0.507
27.4,31767.9,34700.9,-1.1915,-0.7347,146.1,97.3,0.507
27.42,31827.7,34536.5,-0.8843,-1.1395,146.1,97.3,0.507
27.44,31852.9,34493.5,-0.755,-1.2453,146.1,97.3,0.507
27.46,31727.2,34534.7,-1.4,-1.1441,146.1,97.3,0.507
27.48,31868.7,34576.2,-0.6737,-1.0418,146.1,97.3,0.507
27.5,32084.8,34793.0,0.4353,-0.508,146.1,97.3,0.507
27.52,32108.8,35238.9,0.5586,0.5898,146.1,97.3,0.507
27.54,32236.0,35564.6,1.2115,1.3917,146.1,97.3,0.507
27.56,32359.0,35781.0,1.8424,1.9243,146.1,97.3,0.507
27.58,32306.6,35667.2,1.5739,1.6443,146.1,97.3,0.507
27.6,32223.5,35517.6,1.1472,1.276,146.1,97.3,0.507
27.62,32137.8,35339.3,0.7075,0.837,146.1,97.3,0.507
27.64,32108.7,35265.1,0.5579,0.6543,146.1,97.3,0.507
27.66,32051.1,35174.4,0.2622,0.4309,146.1,97.3,0.507
27.68,32047.6,35092.8,0.2446,0.2301,146.1,97.3,0.507
27.7,32029.9,34974.3,0.1533,-0.0616,146.1,97.3,0.507
27.72,32004.9,34870.4,0.0254,-0.3175,146.1,97.3,0.507
27.74,31899.2,34754.9,-0.5171,-0.6017,146.1,97.3,0.507
27.76,31911.3,34765.9,-0.4554,-0.5746,146.1,97.3,0.507
27.78,31835.5,34698.6,-0.8444,-0.7406,146.1,97.3,0.507
27.8,31860.4,34651.2,-0.7164,-0.857,146.1,97.3,0.507
27.82,31884.6,34574.0,-0.5922,-1.0471,146.1,97.3,0.507
27.84,31720.7,34525.0,-1.4333,-1.168,146.1,97.3,0.507
27.86,31702.6,34352.0,-1.5263,-1.5939,146.1,97.3,0.507
27.88,31759.8,34472.3,-1.233,-1.2975,146.1,97.3,0.507
27.9,31859.5,34609.8,-0.7213,-0.959,146.1,97.3,0.507
27.92,32012.2,35008.6,0.0628,0.0229,146.1,97.3,0.507
27.94,32136.8,35321.2,0.7023,0.7924,146.1,97.3,0.507
27.96,32295.7,35684.2,1.5178,1.6862,146.1,97.3,0.507
27.98,32368.7,35770.0,1.8924,1.8973,146.1,97.3,0.507
28.0,32309.7,35660.3,1.5897,1.6273,146.1,97.3,0.507
28.02,32198.3,35510.4,1.018,1.2582,146.1,97.3,0.507
28.04,32117.9,35310.8,0.605,0.7668,146.1,97.3,0.507
28.06,32142.2,35125.7,0.7298,0.3111,146.1,97.3,0.507
28.08,32064.4,35084.2,0.3304,0.209,146.1,97.3,0.507
28.1,32065.2,35035.2,0.3345,0.0883,146.1,97.3,0.507
28.12,32053.3,34987.8,0.2737,-0.0285,146.1,97.3,0.507
28.14,31961.9,34800.2,-0.1957,-0.4904,146.1,97.3,0.507
28.16,31926.8,34766.1,-0.3756,-0.5742,146.1,97.3,0.507
28.18,31832.9,34699.1,-0.8578,-0.7393,146.1,97.3,0.507
28.2,31742.7,34673.7,-1.3208,-0.8017,146.1,97.3,0.507
28.22,31844.5,34575.1,-0.7978,-1.0444,146.1,97.3,0.507
28.24,31767.5,34616.0,-1.1934,-0.9438,146.1,97.3,0.507
28.26,31695.1,34495.4,-1.5649,-1.2408,146.1,97.3,0.507
28.28,31682.4,34414.3,-1.6301,-1.4403,146.1,97.3,0.507
28.3,31736.4,34499.5,-1.3531,-1.2306,146.1,97.3,0.507
28.32,31855.3,34924.6,-0.7426,-0.184,146.1,97.3,0.507
28.34,32149.6,35175.9,0.7676,0.4346,146.1,97.3,0.507
28.36,32312.4,35627.9,1.6036,1.5476,146.1,97.3,0.507
28.38,32382.3,35602.7,1.9624,1.4856,146.1,97.3,0.507
28.4,32264.0,35758.2,1.3553,1.8683,146.1,97.3,0.507
28.42,32265.1,35610.3,1.3605,1.5043,146.1,97.3,0.507
28.44,32154.6,35275.0,0.7938,0.6787,146.1,97.3,0.507
28.46,32187.5,35219.3,0.9624,0.5415,146.1,97.3,0.507
28.48,32147.2,35106.7,0.7555,0.2644,146.1,97.3,0.507
28.5,32017.4,35055.1,0.0892,0.1372,146.1,97.3,0.507
28.52,32055.2,34973.5,0.2836,-0.0636,146.1,97.3,0.507
28.54,32021.4,34901.9,0.11,-0.2399,146.1,97.3,0.507
28.56,31910.5,34784.1,-0.4595,-0.5301,146.1,97.3,0.507
28.58,31821.1,34690.7,-0.918,-0.7599,146.1,97.3,0.507
28.6,31859.8,34682.6,-0.7195,-0.7798,146.1,97.3,0.507
28.62,31808.5,34691.8,-0.9828,-0.7573,146.1,97.3,0.507
28.64,31898.9,34623.4,-0.5189,-0.9257,146.1,97.3,0.507
28.66,31875.1,34545.6,-0.6413,-1.1171,146.1,97.3,0.507
28.68,31726.7,34523.6,-1.4026,-1.1713,146.1,97.3,0.507
28.7,31827.5,34500.6,-0.8852,-1.2279,146.1,97.3,0.507
28.72,31892.0,34662.9,-0.5543,-0.8284,146.1,97.3,0.507
28.74,31957.1,35009.8,-0.22,0.0257,146.1,97.3,0.507
28.76,32113.8,35244.0,0.584,0.6023,146.1,97.3,0.507
28.78,32332.5,35567.5,1.7065,1.3988,146.1,97.3,0.507
28.8,32305.1,35747.7,1.566,1.8425,146.1,97.3,0.507
28.82,32274.4,35701.6,1.4083,1.7289,146.1,97.3,0.507
28.84,32210.1,35491.1,1.0785,1.2108,146.1,97.3,0.507
28.86,32093.8,35251.2,0.4815,0.6201,146.1,97.3,0.507
28.88,31923.7,35134.6,-0.3914,0.333,146.1,97.3,0.507
28.9,32150.8,35040.0,0.7742,0.1002,146.1,97.3,0.507
28.92,32003.0,35052.4,0.0154,0.1306,146.1,97.3,0.507
28.94,31947.4,34950.3,-0.27,-0.1206,146.1,97.3,0.507
28.96,31913.1,34810.0,-0.446,-0.4661,146.1,97.3,0.507
28.98,31909.8,34761.3,-0.4627,-0.5861,146.1,97.3,0.507
29.0,31889.7,34647.2,-0.5659,-0.8671,146.1,97.3,0.507
29.02,31895.5,34591.1,-0.5364,-1.0051,146.1,97.3,0.507
29.04,31872.4,34582.1,-0.655,-1.0273,146.1,97.3,0.507
29.06,31835.1,34656.3,-0.8463,-0.8446,146.1,97.3,0.507
29.08,31782.7,34525.3,-1.1154,-1.167,146.1,97.3,0.507
29.1,31711.4,34406.6,-1.4811,-1.4593,146.1,97.3,0.507
29.12,31830.9,34513.4,-0.8681,-1.1964,146.1,97.3,0.507
29.14,31986.2,34807.5,-0.0707,-0.4724,146.1,97.3,0.507
29.16,32086.0,35105.5,0.4416,0.2614,146.1,97.3,0.507
29.18,32312.0,35529.2,1.6016,1.3046,146.1,97.3,0.507
29.2,32420.2,35661.2,2.1567,1.6294,146.1,97.3,0.507
29.22,32337.1,35732.1,1.7305,1.8042,146.1,97.3,0.507
29.24,32169.0,35517.5,0.8676,1.2756,146.1,97.3,0.507
29.26,32150.0,35433.2,0.7699,1.0682,146.1,97.3,0.507
29.28,32075.6,35199.4,0.3882,0.4924,146.1,97.3,0.507
29.3,31947.6,35135.1,-0.2688,0.3342,146.1,97.3,0.507
29.32,32087.9,35170.2,0.4514,0.4206,146.1,97.3,0.507
29.34,32004.2,35042.7,0.0217,0.1067,146.1,97.3,0.507
29.36,31951.8,34917.6,-0.2476,-0.2011,146.1,97.3,0.507
29.38,31808.7,34785.1,-0.982,-0.5276,146.1,97.3,0.507
29.4,31853.1,34644.1,-0.7542,-0.8745,146.1,97.3,0.507
29.42,31843.8,34664.8,-0.8017,-0.8237,146.1,97.3,0.507
29.44,31814.4,34687.9,-0.9527,-0.7667,146.1,97.3,0.507
29.46,31763.2,34695.3,-1.2151,-0.7486,146.1,97.3,0.507
29.48,31852.6,34538.0,-0.7563,-1.1359,146.1,97.3,0.507
29.5,31722.3,34482.6,-1.4254,-1.2722,146.1,97.3,0.507
29.52,31734.6,34545.1,-1.3622,-1.1185,146.1,97.3,0.507
29.54,31843.4,34637.6,-0.8039,-0.8907,146.1,97.3,0.507
29.56,32005.9,34907.2,0.0301,-0.2269,146.1,97.3,0.507
29.58,32097.7,35364.3,0.5017,0.8984,146.1,97.3,0.507
29.6,32303.0,35680.2,1.5554,1.6764,146.1,97.3,0.507
29.62,32344.5,35795.4,1.7683,1.9598,146.1,97.3,0.507
29.64,32261.7,35648.8,1.3434,1.5989,146.1,97.3,0.507
29.66,32160.5,35505.3,0.824,1.2457,146.1,97.3,0.507
29.68,32097.2,35212.0,0.499,0.5237,146.1,97.3,0.507
29.7,31951.6,35066.7,-0.2484,0.1657,146.1,97.3,0.507
29.72,32119.9,35135.5,0.6154,0.3352,146.1,97.3,0.507
29.74,31950.7,34965.1,-0.2529,-0.0844,146.1,97.3,0.507
29.76,31974.7,34962.0,-0.1297,-0.0919,146.1,97.3,0.507
29.78,31897.2,34848.8,-0.5276,-0.3706,146.1,97.3,0.507
29.8,31880.0,34767.9,-0.616,-0.5698,146.1,97.3,0.507
29.82,31823.3,34710.0,-0.907,-0.7124,146.1,97.3,0.507
29.84,31861.1,34697.7,-0.7128,-0.7428,146.1,97.3,0.507
29.86,31858.8,34602.8,-0.7248,-0.9764,146.1,97.3,0.507
29.88,31827.5,34593.8,-0.8853,-0.9984,146.1,97.3,0.507
29.9,31809.6,34548.8,-0.9774,-1.1093,146.1,97.3,0.507
29.92,31773.0,34455.0,-1.1653,-1.3401,146.1,97.3,0.507
29.94,31774.5,34548.1,-1.1573,-1.1109,146.1,97.3,0.507
29.96,31882.0,34785.6,-0.6054,-0.5263,146.1,97.3,0.507
29.98,32107.6,35110.4,0.5522,0.2735,146.1,97.3,0.507
30.0,32238.7,35516.1,1.225,1.2722,146.1,97.3,0.507
30.02,32307.8,35695.1,1.5796,1.7129,146.1,97.3,0.507
30.04,32298.3,35767.6,1.5312,1.8915,146.1,97.3,0.507
30.06,32197.6,35656.6,1.0144,1.6182,146.1,97.3,0.507
30.08,32145.3,35393.9,0.7456,0.9714,146.1,97.3,0.507
30.1,32043.4,35211.9,0.2229,0.5233,146.1,97.3,0.507
30.12,31984.2,35031.9,-0.0813,0.0801,146.1,97.3,0.507
30.14,32015.6,35101.5,0.0802,0.2515,146.1,97.3,0.507
30.16,31973.6,34943.8,-0.1356,-0.1367,146.1,97.3,0.507
30.18,31986.5,34860.3,-0.069,-0.3423,146.1,97.3,0.507
30.2,31942.7,34830.9,-0.2941,-0.4147,146.1,97.3,0.507
30.22,31890.1,34800.0,-0.5639,-0.4909,146.1,97.3,0.507
30.24,31839.2,34628.6,-0.8254,-0.9129,146.1,97.3,0.507
30.26,31948.2,34746.4,-0.2658,-0.6228,146.1,97.3,0.507
30.28,31879.5,34652.2,-0.6183,-0.8546,146.1,97.3,0.507
30.3,31760.0,34486.4,-1.2319,-1.2629,146.1,97.3,0.507
30.32,31759.3,34336.2,-1.2352,-1.6327,146.1,97.3,0.507
30.34,31774.2,34388.9,-1.159,-1.503,146.1,97.3,0.507
30.36,31862.0,34666.3,-0.7082,-0.8199,146.1,97.3,0.507
30.38,32051.8,34903.6,0.2658,-0.2358,146.1,97.3,0.507
30.4,32154.3,35341.0,0.7919,0.8413,146.1,97.3,0.507
30.42,32318.4,35625.5,1.6342,1.5417,146.1,97.3,0.507
30.44,32417.9,35718.2,2.1448,1.7699,146.1,97.3,0.507
30.46,32268.8,35679.0,1.3796,1.6734,146.1,97.3,0.507
30.48,32315.8,35500.7,1.6209,1.2344,146.1,97.3,0.507
30.5,32104.9,35364.9,0.5387,0.8999,146.1,97.3,0.507
30.52,32066.0,35101.6,0.339,0.2517,146.1,97.3,0.507
30.54,32019.1,35126.1,0.0981,0.312,146.1,97.3,0.507
30.56,32043.3,35007.4,0.2224,0.0198,146.1,97.3,0.507
30.58,32040.2,35029.1,0.2063,0.0733,146.1,97.3,0.507
30.6,31921.1,34947.6,-0.4049,-0.1274,146.1,97.3,0.507
30.62,31925.0,34719.0,-0.3847,-0.6903,146.1,97.3,0.507
30.64,31902.0,34716.2,-0.503,-0.697,146.1,97.3,0.507
30.66,31798.3,34684.5,-1.0353,-0.7751,146.1,97.3,0.507
30.68,31867.3,34655.6,-0.6811,-0.8463,146.1,97.3,0.507
30.7,31814.4,34628.0,-0.9526,-0.9142,146.1,97.3,0.507
30.72,31768.2,34540.1,-1.1896,-1.1306,146.1,97.3,0.507
30.74,31670.0,34410.9,-1.6936,-1.4488,146.1,97.3,0.507
30.76,31766.5,34580.2,-1.1983,-1.0319,146.1,97.3,0.507
30.78,31817.7,34726.2,-0.9357,-0.6724,146.1,97.3,0.507
30.8,32038.4,35135.2,0.1971,0.3344,146.1,97.3,0.507
30.82,32273.7,35449.2,1.4049,1.1077,146.1,97.3,0.507
30.84,32280.0,35673.5,1.4372,1.6597,146.1,97.3,0.507
30.86,32334.6,35700.3,1.7172,1.7259,146.1,97.3,0.507
30.88,32331.9,35544.9,1.7037,1.3432,146.1,97.3,0.507
30.9,32121.0,35496.2,0.6212,1.2232,146.1,97.3,0.507
30.92,32163.1,35339.0,0.837,0.8363,146.1,97.3,0.507
30.94,32111.8,35083.3,0.574,0.2067,146.1,97.3,0.507
30.96,31992.4,35059.6,-0.0388,0.1485,146.1,97.3,0.507
30.98,31940.5,34903.8,-0.3052,-0.2353,146.1,97.3,0.507
31.0,32098.8,34996.5,0.5073,-0.0071,146.1,97.3,0.507
31.02,31952.4,34833.7,-0.2443,-0.4079,146.1,97.3,0.507
31.04,31881.2,34800.9,-0.6097,-0.4886,146.1,97.3,0.507
31.06,31889.0,34746.3,-0.5696,-0.6229,146.1,97.3,0.507
31.08,31749.3,34728.7,-1.2865,-0.6663,146.1,97.3,0.507
31.1,31869.3,34666.2,-0.671,-0.8203,146.1,97.3,0.507
31.12,31802.9,34613.3,-1.0116,-0.9504,146.1,97.3,0.507
31.14,31692.9,34432.7,-1.576,-1.395,146.1,97.3,0.507
31.16,31754.3,34496.7,-1.2609,-1.2375,146.1,97.3,0.507
31.18,31815.0,34680.9,-0.9496,-0.784,146.1,97.3,0.507
31.2,31944.7,34962.5,-0.2838,-0.0907,146.1,97.3,0.507
31.22,32064.5,35291.6,0.3311,0.7195,146.1,97.3,0.507
31.24,32217.0,35535.1,1.1136,1.319,146.1,97.3,0.507
31.26,32251.1,35757.9,1.289,1.8677,146.1,97.3,0.507
31.28,32356.3,35712.8,1.8286,1.7566,146.1,97.3,0.507
31.3,32303.0,35430.4,1.5551,1.0612,146.1,97.3,0.507
31.32,32119.7,35375.6,0.6145,0.9265,146.1,97.3,0.507
31.34,32098.9,35157.3,0.5075,0.3889,146.1,97.3,0.507
31.36,32016.3,35126.4,0.0835,0.3129,146.1,97.3,0.507
31.38,32047.2,34949.0,0.2423,-0.1239,146.1,97.3,0.507
31.4,32095.0,34933.8,0.4875,-0.1615,146.1,97.3,0.507
31.42,31955.3,34924.8,-0.2292,-0.1834,146.1,97.3,0.507
31.44,31861.6,34731.9,-0.7104,-0.6583,146.1,97.3,0.507
31.46,31874.3,34668.8,-0.6453,-0.8137,146.1,97.3,0.507
31.48,31857.6,34689.4,-0.7307,-0.7631,146.1,97.3,0.507
31.5,31766.8,34660.0,-1.1969,-0.8355,146.1,97.3,0.507
31.52,31826.4,34649.8,-0.8912,-0.8605,146.1,97.3,0.507
31.54,31827.0,34476.2,-0.888,-1.2881,146.1,97.3,0.507
31.56,31691.2,34457.1,-1.5851,-1.335,146.1,97.3,0.507
31.58,31755.0,34502.7,-1.2575,-1.2227,146.1,97.3,0.507
31.6,31921.5,34762.7,-0.4028,-0.5827,146.1,97.3,0.507
31.62,32150.5,35048.7,0.7724,0.1216,146.1,97.3,0.507
31.64,32204.1,35452.8,1.0474,1.1165,146.1,97.3,0.507
31.66,32360.8,35708.7,1.8519,1.7464,146.1,97.3,0.507
31.68,32390.9,35730.8,2.0064,1.8008,146.1,97.3,0.507
31.7,32355.2,35531.7,1.8232,1.3106,146.1,97.3,0.507
31.72,32267.5,35471.4,1.3731,1.1623,146.1,97.3,0.507
31.74,32174.5,35260.9,0.8956,0.6439,146.1,97.3,0.507
31.76,32000.8,35137.8,0.0041,0.3409,146.1,97.3,0.507
31.78,32022.0,35082.1,0.1132,0.2037,146.1,97.3,0.507
31.8,32018.2,34970.7,0.0934,-0.0706,146.1,97.3,0.507
31.82,31940.0,34917.5,-0.308,-0.2014,146.1,97.3,0.507
31.84,32005.5,34831.5,0.028,-0.4132,146.1,97.3,0.507
31.86,31871.9,34749.8,-0.6574,-0.6144,146.1,97.3,0.507
31.88,31871.3,34694.5,-0.6605,-0.7505,146.1,97.3,0.507
31.9,31777.6,34773.1,-1.1416,-0.5571,146.1,97.3,0.507
31.92,31799.0,34710.2,-1.0316,-0.7119,146.1,97.3,0.507
31.94,31795.8,34496.7,-1.0481,-1.2376,146.1,97.3,0.507
31.96,31637.1,34435.0,-1.8628,-1.3895,146.1,97.3,0.507
31.98,31705.2,34477.1,-1.5132,-1.2858,146.1,97.3,0.507
32.0,31735.5,34611.2,-1.3574,-0.9557,146.1,97.3,0.507
32.02,31917.6,34890.7,-0.423,-0.2675,146.1,97.3,0.507
32.04,32091.2,35291.8,0.4681,0.72,146.1,97.3,0.507
32.06,32299.4,35517.5,1.5368,1.2757,146.1,97.3,0.507
32.08,32301.8,35737.4,1.5489,1.8172,146.1,97.3,0.507
32.1,32391.6,35707.6,2.0101,1.7437,146.1,97.3,0.507
32.12,32261.3,35585.0,1.3411,1.4418,146.1,97.3,0.507
32.14,32214.5,35399.2,1.1012,0.9845,146.1,97.3,0.507
32.16,32122.2,35174.2,0.6273,0.4305,146.1,97.3,0.507
32.18,31972.2,35090.8,-0.1426,0.2253,146.1,97.3,0.507
32.2,31875.8,34999.5,-0.6374,0.0005,146.1,97.3,0.507
32.22,31940.7,34963.0,-0.3041,-0.0896,146.1,97.3,0.507
32.24,31963.3,34768.7,-0.1883,-0.5679,146.1,97.3,0.507
32.26,31921.0,34733.6,-0.4052,-0.6543,146.1,97.3,0.507
32.28,31902.6,34823.4,-0.4997,-0.4333,146.1,97.3,0.507
32.3,31939.7,34768.7,-0.3096,-0.5678,146.1,97.3,0.507
32.32,31841.7,34624.0,-0.8123,-0.924,146.1,97.3,0.507
32.34,31825.9,34632.7,-0.8934,-0.9026,146.1,97.3,0.507
32.36,31754.2,34536.1,-1.2618,-1.1406,146.1,97.3,0.507
32.38,31760.8,34455.0,-1.2278,-1.3402,146.1,97.3,0.507
32.4,31767.7,34519.2,-1.1924,-1.1822,146.1,97.3,0.507
32.42,31839.0,34674.0,-0.8262,-0.8011,146.1,97.3,0.507
32.44,32019.0,35021.5,0.0974,0.0547,146.1,97.3,0.507
32.46,32212.8,35397.0,1.0923,0.9791,146.1,97.3,0.507
32.48,32276.3,35711.2,1.4182,1.7527,146.1,97.3,0.507
32.5,32380.2,35789.1,1.9516,1.9444,146.1,97.3,0.507
32.52,32303.6,35640.3,1.5586,1.5781,146.1,97.3,0.507
32.54,32235.0,35451.2,1.2062,1.1125,146.1,97.3,0.507
32.56,32178.9,35266.7,0.9185,0.6581,146.1,97.3,0.507
32.58,32058.4,35184.7,0.2999,0.4563,146.1,97.3,0.507
32.6,32067.8,34982.9,0.3481,-0.0404,146.1,97.3,0.507
32.62,31984.7,35067.1,-0.0785,0.1667,146.1,97.3,0.507
32.64,31932.8,34981.9,-0.3448,-0.0428,146.1,97.3,0.507
32.66,32033.5,34829.7,0.172,-0.4176,146.1,97.3,0.507
32.68,31872.6,34790.1,-0.654,-0.5151,146.1,97.3,0.507
32.7,31829.9,34785.2,-0.8732,-0.5273,146.1,97.3,0.507
32.72,31882.5,34783.9,-0.6032,-0.5305,146.1,97.3,0.507
32.74,31817.4,34624.3,-0.9372,-0.9233,146.1,97.3,0.507
32.76,31828.7,34518.6,-0.8792,-1.1837,146.1,97.3,0.507
32.78,31838.5,34476.4,-0.829,-1.2876,146.1,97.3,0.507
32.8,31677.1,34405.1,-1.6573,-1.463,146.1,97.3,0.507
32.82,31884.2,34506.1,-0.5943,-1.2144,146.1,97.3,0.507
32.84,31825.8,34898.5,-0.8939,-0.2483,146.1,97.3,0.507
32.86,32162.4,35282.6,0.8335,0.6973,146.1,97.3,0.507
32.88,32235.1,35574.1,1.2065,1.415,146.1,97.3,0.507
32.9,32351.7,35763.4,1.8049,1.8812,146.1,97.3,0.507
32.92,32358.8,35780.0,1.8416,1.9219,146.1,97.3,0.507
32.94,32193.7,35564.1,0.9944,1.3904,146.1,97.3,0.507
32.96,32111.9,35330.4,0.5743,0.815,146.1,97.3,0.507
32.98,32130.0,35167.7,0.6674,0.4144,146.1,97.3,0.507
33.0,32086.7,35140.8,0.445,0.3482,146.1,97.3,0.507
33.02,32005.5,35040.2,0.0284,0.1006,146.1,97.3,0.507
33.04,31963.2,35024.5,-0.1889,0.062,146.1,97.3,0.507
33.06,31937.9,34944.7,-0.3188,-0.1346,146.1,97.3,0.507
33.08,31917.5,34694.5,-0.4236,-0.7506,146.1,97.3,0.507
33.1,31783.2,34617.7,-1.1127,-0.9397,146.1,97.3,0.507
33.12,31889.6,34696.5,-0.5668,-0.7457,146.1,97.3,0.507
33.14,31798.3,34662.8,-1.035,-0.8286,146.1,97.3,0.507
33.16,31794.0,34667.8,-1.0575,-0.8163,146.1,97.3,0.507
33.18,31715.4,34490.6,-1.4609,-1.2527,146.1,97.3,0.507
33.2,31755.2,34514.0,-1.2564,-1.1949,146.1,97.3,0.507
33.22,31706.1,34497.2,-1.5085,-1.2363,146.1,97.3,0.507
33.24,31791.3,34719.2,-1.0712,-0.6897,146.1,97.3,0.507
33.26,31988.9,35025.9,-0.0568,0.0653,146.1,97.3,0.507
33.28,32156.5,35387.0,0.8033,0.9544,146.1,97.3,0.507
33.3,32322.5,35697.3,1.6555,1.7184,146.1,97.3,0.507
33.32,32380.5,35781.7,1.953,1.9261,146.1,97.3,0.507
33.34,32226.5,35669.9,1.1627,1.6509,146.1,97.3,0.507
33.36,32220.2,35442.8,1.1302,1.0917,146.1,97.3,0.507
33.38,32184.3,35345.2,0.946,0.8516,146.1,97.3,0.507
33.4,32042.6,35153.5,0.2187,0.3796,146.1,97.3,0.507
33.42,32094.4,34995.7,0.4848,-0.009,146.1,97.3,0.507
33.44,32013.5,35081.7,0.0691,0.2028,146.1,97.3,0.507
33.46,31978.1,34906.9,-0.1123,-0.2276,146.1,97.3,0.507
33.48,31886.2,34891.4,-0.5842,-0.2658,146.1,97.3,0.507
33.5,31859.8,34768.6,-0.7195,-0.5681,146.1,97.3,0.507
33.52,31834.9,34716.0,-0.8474,-0.6975,146.1,97.3,0.507
33.54,31947.6,34701.1,-0.2687,-0.7344,146.1,97.3,0.507
33.56,31789.7,34558.3,-1.0792,-1.0858,146.1,97.3,0.507
33.58,31821.3,34601.4,-0.9172,-0.9797,146.1,97.3,0.507
33.6,31751.4,34542.8,-1.2759,-1.1241,146.1,97.3,0.507
33.62,31749.7,34454.4,-1.2846,-1.3417,146.1,97.3,0.507
33.64,31854.6,34555.3,-0.7464,-1.0932,146.1,97.3,0.507
33.66,31970.0,34842.7,-0.1541,-0.3857,146.1,97.3,0.507
33.68,32065.0,35090.8,0.3334,0.2251,146.1,97.3,0.507
33.7,32338.5,35489.7,1.7374,1.2072,146.1,97.3,0.507
33.72,32282.6,35842.5,1.4505,2.0759,146.1,97.3,0.507
33.74,32390.1,35745.4,2.0021,1.8369,146.1,97.3,0.507
33.76,32270.4,35677.7,1.3877,1.6701,146.1,97.3,0.507
33.78,32109.4,35421.1,0.5613,1.0383,146.1,97.3,0.507
33.8,32140.8,35269.3,0.7228,0.6647,146.1,97.3,0.507
33.82,31995.5,35076.3,-0.0231,0.1896,146.1,97.3,0.507
33.84,32025.4,35111.4,0.1306,0.2758,146.1,97.3,0.507
33.86,31990.3,35026.4,-0.0499,0.0665,146.1,97.3,0.507
33.88,31974.4,34814.7,-0.1316,-0.4546,146.1,97.3,0.507
33.9,31978.0,34735.6,-0.1126,-0.6493,146.1,97.3,0.507
33.92,31834.7,34700.7,-0.8483,-0.7354,146.1,97.3,0.507
33.94,31849.6,34747.3,-0.7721,-0.6207,146.1,97.3,0.507
33.96,31878.8,34644.1,-0.6218,-0.8747,146.1,97.3,0.507
33.98,31822.6,34706.3,-0.9104,-0.7216,146.1,97.3,0.507
34.0,31721.1,34522.9,-1.4317,-1.1729,146.1,97.3,0.507
34.02,31735.8,34431.7,-1.3558,-1.3975,146.1,97.3,0.507
34.04,31680.7,34500.9,-1.6389,-1.2271,146.1,97.3,0.507
34.06,31826.2,34624.9,-0.8922,-0.9218,146.1,97.3,0.507
34.08,31917.3,35038.8,-0.4243,0.097,146.1,97.3,0.507
34.1,32187.6,35366.4,0.963,0.9038,146.1,97.3,0.507
34.12,32265.6,35629.5,1.3631,1.5515,146.1,97.3,0.507
34.14,32270.9,35757.8,1.3907,1.8672,146.1,97.3,0.507
34.16,32290.0,35727.2,1.4887,1.7921,146.1,97.3,0.507
34.18,32189.1,35468.3,0.9705,1.1546,146.1,97.3,0.507
34.2,32123.6,35243.3,0.6347,0.6006,146.1,97.3,0.507
34.22,32107.1,35182.6,0.5499,0.4512,146.1,97.3,0.507
34.24,32155.6,35089.6,0.7988,0.2222,146.1,97.3,0.507
34.26,31989.9,34972.8,-0.0516,-0.0654,146.1,97.3,0.507
34.28,31959.4,34971.7,-0.2083,-0.0681,146.1,97.3,0.507
34.3,31879.1,34869.6,-0.6203,-0.3195,146.1,97.3,0.507
34.32,31867.4,34739.3,-0.6804,-0.6402,146.1,97.3,0.507
34.34,31893.7,34653.4,-0.5454,-0.8518,146.1,97.3,0.507
34.36,31831.5,34599.9,-0.8648,-0.9834,146.1,97.3,0.507
34.38,31907.7,34648.4,-0.4737,-0.8641,146.1,97.3,0.507
34.4,31890.0,34548.5,-0.5648,-1.1099,146.1,97.3,0.507
34.42,31761.4,34488.1,-1.2247,-1.2588,146.1,97.3,0.507
34.44,31676.4,34409.7,-1.661,-1.4516,146.1,97.3,0.507
34.46,31768.7,34578.8,-1.1869,-1.0354,146.1,97.3,0.507
34.48,31860.2,34811.7,-0.7174,-0.4619,146.1,97.3,0.507
34.5,32120.7,35126.6,0.6195,0.3134,146.1,97.3,0.507
34.52,32174.2,35546.0,0.8941,1.3458,146.1,97.3,0.507
34.54,32303.3,35734.4,1.5569,1.8097,146.1,97.3,0.507
34.56,32289.4,35731.1,1.4855,1.8016,146.1,97.3,0.507
34.58,32319.2,35533.3,1.6384,1.3146,146.1,97.3,0.507
34.6,32160.8,35275.8,0.8256,0.6806,146.1,97.3,0.507
34.62,32054.8,35169.7,0.2815,0.4194,146.1,97.3,0.507
34.64,32118.8,35097.9,0.6096,0.2426,146.1,97.3,0.507
34.66,32110.6,35018.2,0.5678,0.0463,146.1,97.3,0.507
34.68,31999.1,35052.9,-0.0044,0.1319,146.1,97.3,0.507
34.7,31977.7,34876.8,-0.1143,-0.3017,146.1,97.3,0.507
34.72,31908.6,34735.7,-0.4692,-0.6492,146.1,97.3,0.507
34.74,31908.3,34758.6,-0.4704,-0.5928,146.1,97.3,0.507
34.76,31841.9,34695.0,-0.8115,-0.7493,146.1,97.3,0.507
34.78,31738.6,34655.1,-1.3418,-0.8475,146.1,97.3,0.507
34.8,31890.4,34691.4,-0.5626,-0.7581,146.1,97.3,0.507
34.82,31786.8,34578.7,-1.0943,-1.0357,146.1,97.3,0.507
34.84,31814.4,34585.0,-0.9527,-1.0202,146.1,97.3,0.507
34.86,31692.0,34482.6,-1.581,-1.2722,146.1,97.3,0.507
34.88,31773.2,34608.2,-1.1641,-0.9629,146.1,97.3,0.507
34.9,31943.7,34864.3,-0.2891,-0.3324,146.1,97.3,0.507
34.92,32139.0,35344.6,0.7134,0.85,146.1,97.3,0.507
34.94,32239.7,35572.4,1.2304,1.4109,146.1,97.3,0.507
34.96,32364.8,35756.4,1.8723,1.864,146.1,97.3,0.507
34.98,32341.9,35685.7,1.7548,1.6897,146.1,97.3,0.507
35.0,32185.1,35463.4,0.9503,1.1426,146.1,97.3,0.507
35.02,32138.9,35313.1,0.7131,0.7726,146.1,97.3,0.507
35.04,31992.5,35267.1,-0.0383,0.6591,146.1,97.3,0.507
35.06,32015.5,35120.3,0.0795,0.2979,146.1,97.3,0.507
35.08,32046.3,35046.5,0.2379,0.1161,146.1,97.3,0.507
35.1,32058.0,34978.2,0.2977,-0.052,146.1,97.3,0.507
35.12,31930.0,34800.2,-0.3594,-0.4904,146.1,97.3,0.507
35.14,31824.4,34823.7,-0.9013,-0.4325,146.1,97.3,0.507
35.16,31869.1,34779.7,-0.6719,-0.5408,146.1,97.3,0.507
35.18,31808.4,34609.6,-0.9834,-0.9595,146.1,97.3,0.507
35.2,31809.8,34677.9,-0.9763,-0.7914,146.1,97.3,0.507
35.22,31808.6,34664.6,-0.9826,-0.8242,146.1,97.3,0.507
35.24,31820.7,34480.9,-0.9203,-1.2764,146.1,97.3,0.507
35.26,31808.3,34429.7,-0.9838,-1.4025,146.1,97.3,0.507
35.28,31818.3,34509.2,-0.9325,-1.2068,146.1,97.3,0.507
35.3,31841.0,34649.8,-0.8161,-0.8607,146.1,97.3,0.507
35.32,32111.9,35044.5,0.5744,0.1111,146.1,97.3,0.507
35.34,32240.6,35498.3,1.2347,1.2285,146.1,97.3,0.507
35.36,32325.7,35710.4,1.672,1.7507,146.1,97.3,0.507
35.38,32341.8,35734.4,1.7542,1.8096,146.1,97.3,0.507
35.4,32338.9,35576.6,1.7393,1.4213,146.1,97.3,0.507
35.42,32100.2,35380.5,0.5143,0.9384,146.1,97.3,0.507
35.44,32051.5,35234.4,0.2644,0.5787,146.1,97.3,0.507
35.46,32028.5,35138.8,0.1464,0.3434,146.1,97.3,0.507
35.48,32002.7,35129.2,0.0139,0.3197,146.1,97.3,0.507
35.5,31941.7,35014.3,-0.2991,0.0368,146.1,97.3,0.507
35.52,31918.6,34842.6,-0.418,-0.3859,146.1,97.3,0.507
35.54,31940.2,34870.2,-0.3068,-0.3181,146.1,97.3,0.507
35.56,31859.8,34731.7,-0.7197,-0.659,146.1,97.3,0.507
35.58,31924.7,34705.4,-0.3867,-0.7236,146.1,97.3,0.507
35.6,31868.0,34655.2,-0.6774,-0.8472,146.1,97.3,0.507
35.62,31829.1,34646.7,-0.8773,-0.8683,146.1,97.3,0.507
35.64,31889.0,34574.3,-0.5697,-1.0464,146.1,97.3,0.507
35.66,31782.7,34474.6,-1.1152,-1.292,146.1,97.3,0.507
35.68,31778.5,34368.1,-1.1369,-1.5542,146.1,97.3,0.507
35.7,31735.0,34605.2,-1.3601,-0.9703,146.1,97.3,0.507
35.72,31958.2,34972.1,-0.2147,-0.0671,146.1,97.3,0.507
35.74,32066.4,35313.3,0.3407,0.773,146.1,97.3,0.507
35.76,32243.2,35543.5,1.2484,1.3397,146.1,97.3,0.507
35.78,32328.8,35715.5,1.6876,1.7633,146.1,97.3,0.507
35.8,32313.4,35666.6,1.6087,1.6427,146.1,97.3,0.507
35.82,32210.1,35466.5,1.0784,1.1502,146.1,97.3,0.507
35.84,32116.2,35325.6,0.5965,0.8033,146.1,97.3,0.507
35.86,32054.1,35170.1,0.2776,0.4203,146.1,97.3,0.507
35.88,32032.6,35097.5,0.1673,0.2417,146.1,97.3,0.507
35.9,32006.5,35068.7,0.0334,0.1707,146.1,97.3,0.507
35.92,32014.7,34935.9,0.0753,-0.1563,146.1,97.3,0.507
35.94,31918.2,34864.2,-0.4197,-0.3328,146.1,97.3,0.507
35.96,31899.5,34820.0,-0.5156,-0.4417,146.1,97.3,0.507
35.98,31953.3,34667.7,-0.2395,-0.8166,146.1,97.3,0.507
36.0,31798.7,34731.1,-1.0332,-0.6603,146.1,97.3,0.507
36.02,31718.3,34679.3,-1.4457,-0.7879,146.1,97.3,0.507
36.04,31861.5,34584.0,-0.7109,-1.0226,146.1,97.3,0.507
36.06,31745.1,34515.7,-1.3082,-1.1907,146.1,97.3,0.507
36.08,31804.2,34498.9,-1.0048,-1.232,146.1,97.3,0.507
36.1,31747.5,34525.3,-1.2961,-1.167,146.1,97.3,0.507
36.12,31793.6,34772.9,-1.0592,-0.5576,146.1,97.3,0.507
36.14,32096.4,35168.1,0.4947,0.4155,146.1,97.3,0.507
36.16,32251.0,35434.5,1.2885,1.0714,146.1,97.3,0.507
36.18,32250.1,35769.0,1.2835,1.8948,146.1,97.3,0.507
36.2,32322.4,35770.5,1.6549,1.8986,146.1,97.3,0.507
36.22,32234.3,35728.2,1.2024,1.7943,146.1,97.3,0.507
36.24,32213.8,35396.9,1.0972,0.9789,146.1,97.3,0.507
36.26,32022.4,35172.4,0.1152,0.4259,146.1,97.3,0.507
36.28,31991.5,35093.8,-0.0434,0.2325,146.1,97.3,0.507
36.3,32061.5,35076.2,0.3159,0.1891,146.1,97.3,0.507
36.32,32044.7,34946.6,0.2295,-0.1299,146.1,97.3,0.507
36.34,31968.0,34891.1,-0.1642,-0.2666,146.1,97.3,0.507
36.36,31947.7,34874.5,-0.2685,-0.3073,146.1,97.3,0.507
36.38,31827.1,34691.3,-0.8872,-0.7585,146.1,97.3,0.507
36.4,31792.9,34712.5,-1.0629,-0.7063,146.1,97.3,0.507
36.42,31871.3,34610.8,-0.6603,-0.9565,146.1,97.3,0.507
36.44,31753.9,34694.6,-1.2633,-0.7504,146.1,97.3,0.507
36.46,31810.5,34542.7,-0.9726,-1.1243,146.1,97.3,0.507
36.48,31689.1,34555.3,-1.5956,-1.0933,146.1,97.3,0.507
36.5,31746.7,34409.1,-1.2998,-1.4533,146.1,97.3,0.507
36.52,31836.5,34580.7,-0.839,-1.0308,146.1,97.3,0.507
36.54,31996.0,34901.2,-0.0205,-0.2415,146.1,97.3,0.507
36.56,32055.1,35285.2,0.283,0.7038,146.1,97.3,0.507
36.58,32247.8,35502.9,1.2718,1.2398,146.1,97.3,0.507
36.6,32367.5,35756.8,1.8863,1.8649,146.1,97.3,0.507
36.62,32327.6,35719.3,1.6817,1.7726,146.1,97.3,0.507
36.64,32203.6,35514.3,1.0452,1.2679,146.1,97.3,0.507
36.66,32104.5,35272.6,0.5366,0.6728,146.1,97.3,0.507
36.68,32135.3,35200.0,0.6945,0.4941,146.1,97.3,0.507
36.7,32083.6,35120.3,0.4289,0.2978,146.1,97.3,0.507
36.72,31996.1,34968.4,-0.0199,-0.0762,146.1,97.3,0.507
36.74,31925.8,34952.7,-0.3807,-0.115,146.1,97.3,0.507
36.76,31965.6,34923.3,-0.1764,-0.1871,146.1,97.3,0.507
36.78,31852.1,34821.3,-0.7589,-0.4383,146.1,97.3,0.507
36.8,31789.3,34587.6,-1.0813,-1.0138,146.1,97.3,0.507
36.82,31928.3,34644.1,-0.368,-0.8745,146.1,97.3,0.507
36.84,31786.1,34668.5,-1.0977,-0.8146,146.1,97.3,0.507
36.86,31860.9,34524.4,-0.714,-1.1693,146.1,97.3,0.507
36.88,31837.3,34545.1,-0.8348,-1.1185,146.1,97.3,0.507
36.9,31789.3,34461.3,-1.0813,-1.3248,146.1,97.3,0.507
36.92,31883.0,34533.1,-0.6004,-1.1479,146.1,97.3,0.507
36.94,31917.0,34736.5,-0.4258,-0.6471,146.1,97.3,0.507
36.96,32037.5,35049.5,0.1928,0.1235,146.1,97.3,0.507
36.98,32261.8,35455.2,1.3437,1.1223,146.1,97.3,0.507
37.0,32300.0,35704.2,1.5401,1.7354,146.1,97.3,0.507
37.02,32382.9,35778.3,1.9654,1.9178,146.1,97.3,0.507
37.04,32325.7,35627.2,1.672,1.5458,146.1,97.3,0.507
37.06,32192.3,35409.6,0.9873,1.01,146.1,97.3,0.507
37.08,32139.4,35189.2,0.7153,0.4673,146.1,97.3,0.507
37.1,32112.0,35142.4,0.575,0.3522,146.1,97.3,0.507
37.12,32053.8,35109.6,0.2761,0.2716,146.1,97.3,0.507
37.14,32037.6,35104.0,0.1929,0.2576,146.1,97.3,0.507
37.16,31989.3,34950.6,-0.0551,-0.1199,146.1,97.3,0.507
37.18,31891.9,34774.5,-0.5546,-0.5535,146.1,97.3,0.507
37.2,31847.6,34805.7,-0.782,-0.4768,146.1,97.3,0.507
37.22,31893.8,34692.5,-0.5452,-0.7555,146.1,97.3,0.507
37.24,31810.7,34722.8,-0.9716,-0.6808,146.1,97.3,0.507
37.26,31812.2,34627.3,-0.9636,-0.9161,146.1,97.3,0.507
37.28,31829.0,34566.6,-0.8779,-1.0655,146.1,97.3,0.507
37.3,31772.5,34504.1,-1.1675,-1.2193,146.1,97.3,0.507
37.32,31742.3,34352.4,-1.3226,-1.5928,146.1,97.3,0.507
37.34,31730.3,34664.3,-1.3841,-0.8248,146.1,97.3,0.507
37.36,32005.7,34873.3,0.0292,-0.3104,146.1,97.3,0.507
37.38,32114.2,35131.2,0.5864,0.3246,146.1,97.3,0.507
37.4,32299.2,35595.9,1.5359,1.4688,146.1,97.3,0.507
37.42,32365.7,35802.6,1.8769,1.9777,146.1,97.3,0.507
37.44,32426.6,35700.3,2.1897,1.7258,146.1,97.3,0.507
37.46,32234.3,35473.8,1.2027,1.168,146.1,97.3,0.507
37.48,32279.9,35342.4,1.4365,0.8446,146.1,97.3,0.507
37.5,32055.3,35200.8,0.2837,0.496,146.1,97.3,0.507
37.52,32061.5,35106.4,0.3156,0.2635,146.1,97.3,0.507
37.54,31993.7,35099.8,-0.0321,0.2474,146.1,97.3,0.507
37.56,32032.6,34971.9,0.1674,-0.0677,146.1,97.3,0.507
37.58,32079.3,34914.5,0.4071,-0.209,146.1,97.3,0.507
37.6,31875.7,34816.5,-0.6381,-0.4502,146.1,97.3,0.507
37.62,31905.4,34775.7,-0.4853,-0.5506,146.1,97.3,0.507
37.64,31813.4,34661.6,-0.9575,-0.8316,146.1,97.3,0.507
37.66,31817.2,34588.6,-0.9382,-1.0112,146.1,97.3,0.507
37.68,31913.1,34518.3,-0.4461,-1.1843,146.1,97.3,0.507
37.7,31755.8,34497.8,-1.2535,-1.2349,146.1,97.3,0.507
37.72,31726.5,34448.2,-1.4039,-1.3569,146.1,97.3,0.507
37.74,31810.3,34474.9,-0.9735,-1.2912,146.1,97.3,0.507
37.76,31938.1,34688.5,-0.3176,-0.7653,146.1,97.3,0.507
37.78,32025.4,35034.6,0.1303,0.0869,146.1,97.3,0.507
37.8,32238.6,35403.4,1.2246,0.9949,146.1,97.3,0.507
37.82,32318.3,35652.1,1.6335,1.607,146.1,97.3,0.507
37.84,32304.2,35754.4,1.5613,1.8589,146.1,97.3,0.507
37.86,32313.7,35678.5,1.6102,1.6722,146.1,97.3,0.507
37.88,32286.3,35506.4,1.4696,1.2483,146.1,97.3,0.507
37.9,32207.1,35359.1,1.0629,0.8858,146.1,97.3,0.507
37.92,32040.7,35155.9,0.2087,0.3854,146.1,97.3,0.507
37.94,32029.3,35041.4,0.1504,0.1036,146.1,97.3,0.507
37.96,31950.2,35031.0,-0.2557,0.0779,146.1,97.3,0.507
37.98,31966.2,34849.9,-0.1735,-0.3679,146.1,97.3,0.507
38.0,31935.5,34879.2,-0.3308,-0.2958,146.1,97.3,0.507
38.02,31858.6,34762.2,-0.7256,-0.584,146.1,97.3,0.507
38.04,31820.9,34710.9,-0.9194,-0.7101,146.1,97.3,0.507
38.06,31880.5,34627.5,-0.6132,-0.9156,146.1,97.3,0.507
38.08,31809.1,34651.2,-0.9798,-0.8571,146.1,97.3,0.507
38.1,31820.6,34600.1,-0.9207,-0.9829,146.1,97.3,0.507
38.12,31748.4,34441.5,-1.2911,-1.3733,146.1,97.3,0.507
38.14,31732.1,34445.0,-1.3752,-1.3648,146.1,97.3,0.507
38.16,31835.7,34563.3,-0.8433,-1.0735,146.1,97.3,0.507
38.18,31990.6,34947.6,-0.048,-0.1275,146.1,97.3,0.507
38.2,32189.6,35267.0,0.9733,0.659,146.1,97.3,0.507
38.22,32223.6,35482.3,1.1477,1.1889,146.1,97.3,0.507
38.24,32336.2,35711.3,1.7254,1.7528,146.1,97.3,0.507
38.26,32326.8,35714.0,1.6773,1.7596,146.1,97.3,0.507
38.28,32156.3,35563.7,0.8022,1.3894,146.1,97.3,0.507
38.3,32197.0,35398.6,1.0113,0.983,146.1,97.3,0.507
38.32,32051.7,35201.6,0.2653,0.4979,146.1,97.3,0.507
38.34,32031.9,35129.5,0.1636,0.3204,146.1,97.3,0.507
38.36,32041.9,35070.5,0.215,0.1751,146.1,97.3,0.507
38.38,31958.2,35102.9,-0.2147,0.255,146.1,97.3,0.507
38.4,31920.3,34874.0,-0.4088,-0.3087,146.1,97.3,0.507
38.42,31960.6,34839.9,-0.202,-0.3925,146.1,97.3,0.507
38.44,31978.7,34766.8,-0.1093,-0.5726,146.1,97.3,0.507
38.46,31821.1,34614.6,-0.9181,-0.9474,146.1,97.3,0.507
38.48,31822.3,34671.0,-0.9121,-0.8083,146.1,97.3,0.507
38.5,31799.5,34558.9,-1.0289,-1.0844,146.1,97.3,0.507
38.52,31817.8,34473.2,-0.935,-1.2953,146.1,97.3,0.507
38.54,31683.3,34516.7,-1.6252,-1.1883,146.1,97.3,0.507
38.56,31766.6,34436.8,-1.1978,-1.385,146.1,97.3,0.507
38.58,31875.5,34717.0,-0.6388,-0.6952,146.1,97.3,0.507
38.6,32056.1,34985.1,0.288,-0.0351,146.1,97.3,0.507
38.62,32088.6,35412.5,0.4546,1.0173,146.1,97.3,0.507
38.64,32239.3,35711.7,1.2285,1.7539,146.1,97.3,0.507
38.66,32322.0,35756.7,1.6526,1.8646,146.1,97.3,0.507
38.68,32348.0,35654.7,1.7863,1.6134,146.1,97.3,0.507
38.7,32207.4,35461.4,1.0646,1.1376,146.1,97.3,0.507
38.72,32103.7,35351.3,0.5325,0.8665,146.1,97.3,0.507
38.74,32029.6,35140.0,0.1517,0.3463,146.1,97.3,0.507
38.76,32035.1,35221.6,0.1801,0.5471,146.1,97.3,0.507
38.78,31957.0,35064.5,-0.2207,0.1603,146.1,97.3,0.507
38.8,31946.2,34958.4,-0.2762,-0.1008,146.1,97.3,0.507
38.82,31917.1,34830.7,-0.4252,-0.4152,146.1,97.3,0.507
38.84,31898.8,34755.1,-0.5193,-0.6012,146.1,97.3,0.507
38.86,31932.0,34701.9,-0.3491,-0.7324,146.1,97.3,0.507
38.88,31745.1,34682.1,-1.3081,-0.7811,146.1,97.3,0.507
38.9,31842.5,34640.0,-0.8084,-0.8847,146.1,97.3,0.507
38.92,31820.4,34573.9,-0.9217,-1.0475,146.1,97.3,0.507
38.94,31703.1,34454.9,-1.5236,-1.3404,146.1,97.3,0.507
38.96,31737.4,34413.3,-1.3476,-1.4429,146.1,97.3,0.507
38.98,31844.0,34713.0,-0.8006,-0.7051,146.1,97.3,0.507
39.0,31976.2,34796.6,-0.1222,-0.4991,146.1,97.3,0.507
39.02,32120.7,35189.6,0.6193,0.4683,146.1,97.3,0.507
39.04,32247.3,35632.9,1.2695,1.5597,146.1,97.3,0.507
39.06,32386.0,35746.6,1.9813,1.8396,146.1,97.3,0.507
39.08,32301.4,35731.9,1.5471,1.8035,146.1,97.3,0.507
39.1,32264.6,35468.1,1.358,1.154,146.1,97.3,0.507
39.12,32080.1,35376.1,0.4111,0.9275,146.1,97.3,0.507
39.14,32131.3,35203.7,0.674,0.5032,146.1,97.3,0.507
39.16,32097.5,35176.7,0.5005,0.4366,146.1,97.3,0.507
39.18,31979.1,35062.4,-0.1071,0.1552,146.1,97.3,0.507
39.2,31954.5,35065.5,-0.2333,0.1629,146.1,97.3,0.507
39.22,31987.7,34888.3,-0.0633,-0.2734,146.1,97.3,0.507
39.24,31752.3,34756.0,-1.2714,-0.599,146.1,97.3,0.507
39.26,31949.8,34716.5,-0.2574,-0.6963,146.1,97.3,0.507
39.28,31874.7,34667.6,-0.6431,-0.8168,146.1,97.3,0.507
39.3,31814.0,34635.8,-0.9547,-0.8949,146.1,97.3,0.507
39.32,31900.2,34598.0,-0.5124,-0.9881,146.1,97.3,0.507
39.34,31759.9,34617.5,-1.2324,-0.9401,146.1,97.3,0.507
39.36,31794.7,34461.0,-1.0538,-1.3254,146.1,97.3,0.507
39.38,31797.1,34466.3,-1.0414,-1.3125,146.1,97.3,0.507
39.4,31846.8,34685.0,-0.7861,-0.7739,146.1,97.3,0.507
39.42,31991.9,35050.6,-0.0417,0.1262,146.1,97.3,0.507
39.44,32317.2,35382.4,1.6283,0.943,146.1,97.3,0.507
39.46,32319.3,35532.0,1.6389,1.3115,146.1,97.3,0.507
39.48,32368.8,35668.9,1.8929,1.6484,146.1,97.3,0.507
39.5,32294.2,35597.5,1.5099,1.4726,146.1,97.3,0.507
39.52,32314.7,35438.7,1.6154,1.0817,146.1,97.3,0.507
39.54,32191.6,35319.1,0.9832,0.7873,146.1,97.3,0.507
39.56,32030.4,35109.0,0.1559,0.27,146.1,97.3,0.507
39.58,32054.7,35025.3,0.2807,0.0638,146.1,97.3,0.507
39.6,31918.2,35004.0,-0.4198,0.0115,146.1,97.3,0.507
39.62,31942.6,35001.5,-0.2944,0.0053,146.1,97.3,0.507
39.64,32009.8,34762.9,0.0504,-0.5822,146.1,97.3,0.507
39.66,31786.0,34767.4,-1.0983,-0.5712,146.1,97.3,0.507
39.68,31805.2,34716.5,-0.9999,-0.6963,146.1,97.3,0.507
39.7,31860.3,34675.4,-0.7168,-0.7975,146.1,97.3,0.507
39.72,31822.8,34604.8,-0.9095,-0.9714,146.1,97.3,0.507
39.74,31776.9,34543.0,-1.1448,-1.1236,146.1,97.3,0.507
39.76,31725.7,34455.4,-1.4079,-1.3393,146.1,97.3,0.507
39.78,31741.5,34462.5,-1.3268,-1.3218,146.1,97.3,0.507
39.8,31793.0,34540.8,-1.0624,-1.1288,146.1,97.3,0.507
39.82,31852.1,34842.7,-0.7588,-0.3857,146.1,97.3,0.507
39.84,32069.5,35139.7,0.357,0.3456,146.1,97.3,0.507
39.86,32155.2,35644.4,0.7967,1.5882,146.1,97.3,0.507
39.88,32325.2,35805.4,1.6692,1.9846,146.1,97.3,0.507
39.9,32427.6,35704.3,2.1947,1.7356,146.1,97.3,0.507
39.92,32388.6,35468.0,1.9944,1.1539,146.1,97.3,0.507
39.94,32176.1,35416.5,0.9037,1.027,146.1,97.3,0.507
39.96,32163.6,35211.9,0.8397,0.5233,146.1,97.3,0.507
39.98,32136.4,35090.4,0.7003,0.2242,146.1,97.3,0.507
40.0,32076.5,34994.2,0.3925,-0.0126,146.1,97.3,0.507
40.02,31964.8,34979.8,-0.1805,-0.048,146.1,97.3,0.507
40.04,31949.9,34957.4,-0.2573,-0.1033,146.1,97.3,0.507
40.06,31897.8,34746.9,-0.5244,-0.6215,146.1,97.3,0.507
40.08,31822.3,34759.0,-0.9119,-0.5917,146.1,97.3,0.507
40.1,31837.4,34661.2,-0.8347,-0.8324,146.1,97.3,0.507
40.12,31754.6,34596.8,-1.2595,-0.9911,146.1,97.3,0.507
40.14,31790.3,34665.1,-1.0763,-0.8228,146.1,97.3,0.507
40.16,31795.5,34598.0,-1.0496,-0.988,146.1,97.3,0.507
40.18,31783.6,34445.4,-1.1107,-1.3637,146.1,97.3,0.507
40.2,31758.3,34382.5,-1.2406,-1.5186,146.1,97.3,0.507
40.22,31865.3,34667.9,-0.6915,-0.816,146.1,97.3,0.507
40.24,31996.8,35011.5,-0.0164,0.03,146.1,97.3,0.507
40.26,32218.0,35380.8,1.119,0.9392,146.1,97.3,0.507
40.28,32289.6,35643.8,1.4865,1.5865,146.1,97.3,0.507
40.3,32322.8,35805.1,1.657,1.9838,146.1,97.3,0.507
40.32,32309.2,35724.6,1.5868,1.7855,146.1,97.3,0.507
40.34,32250.8,35410.5,1.2875,1.0122,146.1,97.3,0.507
40.36,32159.5,35218.8,0.8188,0.5403,146.1,97.3,0.507
40.38,32084.5,35087.5,0.4337,0.217,146.1,97.3,0.507
40.4,32001.7,35054.6,0.0086,0.1359,146.1,97.3,0.507
40.42,31902.4,35059.2,-0.5007,0.1474,146.1,97.3,0.507
40.44,31906.0,34901.9,-0.4822,-0.24,146.1,97.3,0.507
40.46,31920.9,34825.9,-0.4059,-0.4271,146.1,97.3,0.507
40.48,31870.3,34770.5,-0.6656,-0.5635,146.1,97.3,0.507
40.5,31957.9,34642.3,-0.216,-0.8792,146.1,97.3,0.507
40.52,31929.0,34653.8,-0.3646,-0.8506,146.1,97.3,0.507
40.54,31824.6,34689.8,-0.9004,-0.7621,146.1,97.3,0.507
40.56,31856.8,34611.3,-0.7351,-0.9554,146.1,97.3,0.507
40.58,31832.1,34526.1,-0.8615,-1.1651,146.1,97.3,0.507
40.6,31747.3,34466.5,-1.2971,-1.3118,146.1,97.3,0.507
40.62,31767.3,34568.4,-1.1942,-1.061,146.1,97.3,0.507
40.64,31910.1,34802.1,-0.4613,-0.4857,146.1,97.3,0.507
40.66,32043.9,35147.3,0.2253,0.3643,146.1,97.3,0.507
40.68,32218.2,35515.1,1.1201,1.2697,146.1,97.3,0.507
40.7,32348.8,35735.2,1.7905,1.8117,146.1,97.3,0.507
40.72,32257.4,35734.0,1.3209,1.8087,146.1,97.3,0.507
40.74,32237.0,35537.4,1.2165,1.3248,146.1,97.3,0.507
40.76,32224.0,35407.9,1.1499,1.0059,146.1,97.3,0.507
40.78,32057.5,35230.9,0.2949,0.5701,146.1,97.3,0.507
40.8,32063.0,35074.7,0.3233,0.1854,146.1,97.3,0.507
40.82,31995.0,35075.0,-0.0257,0.1862,146.1,97.3,0.507
40.84,32078.8,34940.0,0.4045,-0.1462,146.1,97.3,0.507
40.86,31865.0,34928.6,-0.6928,-0.1742,146.1,97.3,0.507
40.88,31750.5,34852.8,-1.2805,-0.3609,146.1,97.3,0.507
40.9,31893.5,34646.9,-0.5468,-0.8678,146.1,97.3,0.507
40.92,31811.3,34712.2,-0.9687,-0.707,146.1,97.3,0.507
40.94,31848.4,34668.9,-0.7783,-0.8136,146.1,97.3,0.507
40.96,31783.9,34647.7,-1.109,-0.8657,146.1,97.3,0.507
40.98,31709.0,34526.4,-1.4934,-1.1644,146.1,97.3,0.507
41.0,31665.6,34440.3,-1.7164,-1.3763,146.1,97.3,0.507
41.02,31744.3,34458.8,-1.3121,-1.3308,146.1,97.3,0.507
41.04,31857.5,34638.6,-0.7313,-0.8883,146.1,97.3,0.507
41.06,31959.0,34985.7,-0.2102,-0.0337,146.1,97.3,0.507
41.08,32242.6,35225.4,1.245,0.5566,146.1,97.3,0.507
41.1,32355.0,35562.6,1.8219,1.3869,146.1,97.3,0.507
41.12,32382.9,35746.4,1.9655,1.8393,146.1,97.3,0.507
41.14,32289.8,35658.5,1.4872,1.623,146.1,97.3,0.507
41.16,32142.2,35483.9,0.7297,1.1929,146.1,97.3,0.507
41.18,32072.0,35266.6,0.3696,0.6579,146.1,97.3,0.507
41.2,32131.7,35224.6,0.6761,0.5545,146.1,97.3,0.507
41.22,32011.8,35204.3,0.0605,0.5046,146.1,97.3,0.507
41.24,32015.7,35075.5,0.0807,0.1875,146.1,97.3,0.507
41.26,32002.4,35020.0,0.0126,0.0508,146.1,97.3,0.507
41.28,31927.4,34828.9,-0.3724,-0.4196,146.1,97.3,0.507
41.3,31972.6,34777.5,-0.1407,-0.5461,146.1,97.3,0.507
41.32,31898.8,34644.4,-0.5196,-0.874,146.1,97.3,0.507
41.34,31815.8,34709.7,-0.9451,-0.7132,146.1,97.3,0.507
41.36,31895.6,34622.7,-0.5358,-0.9274,146.1,97.3,0.507
41.38,31912.4,34619.0,-0.4494,-0.9365,146.1,97.3,0.507
41.4,31834.6,34487.0,-0.8488,-1.2614,146.1,97.3,0.507
41.42,31822.0,34391.4,-0.9137,-1.4968,146.1,97.3,0.507
41.44,31822.0,34574.0,-0.9136,-1.0471,146.1,97.3,0.507
41.46,31847.2,34752.7,-0.7842,-0.6073,146.1,97.3,0.507
41.48,32049.2,35194.1,0.2525,0.4796,146.1,97.3,0.507
41.5,32268.2,35519.3,1.3767,1.2802,146.1,97.3,0.507
41.52,32359.5,35731.9,1.845,1.8035,146.1,97.3,0.507
41.54,32321.3,35784.6,1.649,1.9334,146.1,97.3,0.507
41.56,32197.1,35617.7,1.0118,1.5223,146.1,97.3,0.507
41.58,32211.7,35425.2,1.0866,1.0486,146.1,97.3,0.507
41.6,32115.3,35166.0,0.5916,0.4102,146.1,97.3,0.507
41.62,32141.3,35136.4,0.7253,0.3373,146.1,97.3,0.507
41.64,32115.2,35082.1,0.5914,0.2036,146.1,97.3,0.507
41.66,32040.1,34988.5,0.2059,-0.0267,146.1,97.3,0.507
41.68,32024.1,35003.1,0.124,0.0093,146.1,97.3,0.507
41.7,31940.8,34805.0,-0.3036,-0.4785,146.1,97.3,0.507
41.72,31852.8,34665.6,-0.7555,-0.8217,146.1,97.3,0.507
41.74,31796.5,34679.5,-1.0446,-0.7876,146.1,97.3,0.507
41.76,31878.1,34655.5,-0.6256,-0.8467,146.1,97.3,0.507
41.78,31776.4,34582.2,-1.1476,-1.0269,146.1,97.3,0.507
41.8,31834.5,34483.2,-0.8492,-1.2708,146.1,97.3,0.507
41.82,31722.5,34457.1,-1.4242,-1.3349,146.1,97.3,0.507
41.84,31675.2,34470.2,-1.6668,-1.3027,146.1,97.3,0.507
41.86,31864.9,34515.5,-0.6935,-1.1912,146.1,97.3,0.507
41.88,31945.3,34908.5,-0.2805,-0.2236,146.1,97.3,0.507
41.9,32154.7,35275.0,0.7941,0.6786,146.1,97.3,0.507
41.92,32318.9,35572.0,1.6368,1.4099,146.1,97.3,0.507
41.94,32207.7,35785.1,1.0663,1.9345,146.1,97.3,0.507
41.96,32268.2,35686.6,1.3766,1.6921,146.1,97.3,0.507
41.98,32217.6,35470.8,1.117,1.1607,146.1,97.3,0.507
42.0,32104.0,35368.5,0.534,0.9089,146.1,97.3,0.507
42.02,31990.1,35188.2,-0.0508,0.465,146.1,97.3,0.507
42.04,31943.5,35109.0,-0.2897,0.2699,146.1,97.3,0.507
42.06,31996.7,35003.8,-0.017,0.011,146.1,97.3,0.507
42.08,31969.5,35002.9,-0.1567,0.0087,146.1,97.3,0.507
42.1,32043.8,34826.2,0.2249,-0.4264,146.1,97.3,0.507
42.12,31914.8,34744.1,-0.4371,-0.6285,146.1,97.3,0.507
42.14,31735.6,34643.8,-1.3572,-0.8754,146.1,97.3,0.507
42.16,31853.1,34732.8,-0.7541,-0.6562,146.1,97.3,0.507
42.18,31831.1,34648.0,-0.8667,-0.865,146.1,97.3,0.507
42.2,31774.0,34635.8,-1.1601,-0.8951,146.1,97.3,0.507
42.22,31911.9,34474.0,-0.452,-1.2935,146.1,97.3,0.507
42.24,31719.7,34425.3,-1.4386,-1.4132,146.1,97.3,0.507
42.26,31822.5,34495.4,-0.9111,-1.2407,146.1,97.3,0.507
42.28,31853.5,34682.6,-0.752,-0.7798,146.1,97.3,0.507
42.3,32172.7,35229.8,0.8862,0.5673,146.1,97.3,0.507
42.32,32194.9,35476.7,1.0005,1.1752,146.1,97.3,0.507
42.34,32282.5,35710.7,1.4499,1.7515,146.1,97.3,0.507
42.36,32428.3,35748.6,2.1985,1.8446,146.1,97.3,0.507
42.38,32313.0,35666.7,1.6065,1.6429,146.1,97.3,0.507
42.4,32200.2,35395.4,1.0275,0.975,146.1,97.3,0.507
42.42,32158.3,35208.7,0.8123,0.5154,146.1,97.3,0.507
42.44,32029.9,35159.9,0.1536,0.3954,146.1,97.3,0.507
42.46,32023.6,35117.7,0.1212,0.2913,146.1,97.3,0.507
42.48,32017.8,35039.4,0.0915,0.0985,146.1,97.3,0.507
42.5,31952.1,35004.2,-0.246,0.0118,146.1,97.3,0.507
42.52,31877.6,34810.3,-0.6284,-0.4654,146.1,97.3,0.507
42.54,31903.1,34747.0,-0.4973,-0.6214,146.1,97.3,0.507
42.56,31844.0,34729.2,-0.8006,-0.6651,146.1,97.3,0.507
42.58,31841.7,34651.2,-0.8123,-0.8573,146.1,97.3,0.507
42.6,31810.2,34497.3,-0.9742,-1.2359,146.1,97.3,0.507
42.62,31879.1,34577.9,-0.6205,-1.0376,146.1,97.3,0.507
42.64,31744.7,34434.9,-1.3104,-1.3897,146.1,97.3,0.507
42.66,31789.8,34465.4,-1.0788,-1.3146,146.1,97.3,0.507
42.68,31750.8,34651.2,-1.2788,-0.8571,146.1,97.3,0.507
42.7,31973.1,34917.5,-0.1381,-0.2015,146.1,97.3,0.507
42.72,32084.7,35260.2,0.4349,0.6422,146.1,97.3,0.507
42.74,32329.8,35570.7,1.693,1.4066,146.1,97.3,0.507
42.76,32411.7,35653.2,2.113,1.6098,146.1,97.3,0.507
42.78,32330.4,35708.6,1.6961,1.7462,146.1,97.3,0.507
42.8,32237.7,35530.6,1.22,1.3079,146.1,97.3,0.507
42.82,32143.9,35386.2,0.7386,0.9525,146.1,97.3,0.507
42.84,32145.3,35196.0,0.7459,0.4842,146.1,97.3,0.507
42.86,32094.7,35205.7,0.4861,0.5079,146.1,97.3,0.507
42.88,32009.3,35077.8,0.0477,0.1931,146.1,97.3,0.507
42.9,32002.3,34926.4,0.012,-0.1797,146.1,97.3,0.507
42.92,31873.4,34817.1,-0.6499,-0.4487,146.1,97.3,0.507
42.94,31842.4,34648.6,-0.8087,-0.8636,146.1,97.3,0.507
42.96,31896.1,34600.9,-0.5332,-0.981,146.1,97.3,0.507
42.98,31736.2,34603.1,-1.3541,-0.9756,146.1,97.3,0.507
43.0,31857.8,34683.4,-0.7297,-0.7779,146.1,97.3,0.507
43.02,31815.0,34648.7,-0.9493,-0.8633,146.1,97.3,0.507
43.04,31819.2,34582.6,-0.928,-1.0262,146.1,97.3,0.507
43.06,31728.2,34433.0,-1.3951,-1.3944,146.1,97.3,0.507
43.08,31746.7,34466.6,-1.2998,-1.3116,146.1,97.3,0.507
43.1,31834.8,34714.9,-0.848,-0.7003,146.1,97.3,0.507
43.12,31980.6,35091.9,-0.0993,0.2279,146.1,97.3,0.507
43.14,32199.5,35416.0,1.024,1.0257,146.1,97.3,0.507
43.16,32335.1,35681.0,1.7201,1.6783,146.1,97.3,0.507
43.18,32395.0,35758.6,2.0274,1.8694,146.1,97.3,0.507
43.2,32316.4,35622.7,1.6238,1.5348,146.1,97.3,0.507
43.22,32149.7,35374.5,0.7682,0.9235,146.1,97.3,0.507
43.24,32145.6,35271.3,0.7475,0.6697,146.1,97.3,0.507
43.26,32069.5,35139.5,0.3567,0.3449,146.1,97.3,0.507
43.28,32084.0,35046.3,0.4313,0.1156,146.1,97.3,0.507
43.3,32068.8,34949.7,0.3533,-0.1223,146.1,97.3,0.507
43.32,32044.8,34994.4,0.2299,-0.0121,146.1,97.3,0.507
43.34,31937.9,34800.8,-0.3187,-0.4888,146.1,97.3,0.507
43.36,31888.4,34807.7,-0.5726,-0.4719,146.1,97.3,0.507
43.38,31849.8,34754.4,-0.7711,-0.6031,146.1,97.3,0.507
43.4,31877.7,34657.0,-0.6276,-0.8428,146.1,97.3,0.507
43.42,31861.0,34642.2,-0.7134,-0.8793,146.1,97.3,0.507
43.44,31804.0,34522.1,-1.0057,-1.175,146.1,97.3,0.507
43.46,31794.2,34424.2,-1.0564,-1.416,146.1,97.3,0.507
43.48,31763.0,34466.3,-1.2164,-1.3123,146.1,97.3,0.507
43.5,31795.4,34640.8,-1.0503,-0.8828,146.1,97.3,0.507
43.52,31886.8,34872.6,-0.581,-0.312,146.1,97.3,0.507
43.54,31979.4,35231.5,-0.1057,0.5716,146.1,97.3,0.507
43.56,32273.1,35636.6,1.4019,1.5689,146.1,97.3,0.507
43.58,32446.2,35838.4,2.2902,2.0657,146.1,97.3,0.507
43.6,32371.2,35693.9,1.9055,1.71,146.1,97.3,0.507
43.62,32302.3,35584.1,1.5515,1.4397,146.1,97.3,0.507
43.64,32287.6,35281.2,1.476,0.694,146.1,97.3,0.507
43.66,32106.9,35158.6,0.5489,0.3921,146.1,97.3,0.507
43.68,32049.3,35087.2,0.2529,0.2162,146.1,97.3,0.507
43.7,32096.6,35060.4,0.4957,0.1504,146.1,97.3,0.507
43.72,31954.1,34998.1,-0.2357,-0.0031,146.1,97.3,0.507
43.74,31952.0,34919.1,-0.2465,-0.1976,146.1,97.3,0.507
43.76,31969.4,34832.8,-0.1571,-0.41,146.1,97.3,0.507
43.78,31876.6,34634.6,-0.6331,-0.8979,146.1,97.3,0.507
43.8,31862.8,34646.8,-0.7043,-0.8681,146.1,97.3,0.507
43.82,31780.1,34677.8,-1.1284,-0.7916,146.1,97.3,0.507
43.84,31871.9,34570.8,-0.6576,-1.0551,146.1,97.3,0.507
43.86,31792.7,34535.2,-1.0638,-1.1427,146.1,97.3,0.507
43.88,31810.7,34472.7,-0.9715,-1.2966,146.1,97.3,0.507
43.9,31796.3,34439.4,-1.0456,-1.3787,146.1,97.3,0.507
43.92,31817.0,34629.8,-0.9391,-0.9098,146.1,97.3,0.507
43.94,31999.0,35143.9,-0.0049,0.3558,146.1,97.3,0.507
43.96,32215.7,35381.6,1.1073,0.9412,146.1,97.3,0.507
43.98,32227.8,35695.0,1.1693,1.7128,146.1,97.3,0.507
44.0,32417.1,35738.5,2.1408,1.8199,146.1,97.3,0.507
44.02,32326.1,35671.9,1.6736,1.6558,146.1,97.3,0.507
44.04,32149.2,35473.2,0.7659,1.1666,146.1,97.3,0.507
44.06,32115.8,35262.0,0.5945,0.6466,146.1,97.3,0.507
44.08,32139.8,35151.0,0.7174,0.3734,146.1,97.3,0.507
44.1,32073.5,35211.5,0.3773,0.5223,146.1,97.3,0.507
44.12,32080.4,35050.5,0.4126,0.126,146.1,97.3,0.507
44.14,32027.4,34923.2,0.1408,-0.1875,146.1,97.3,0.507
44.16,31906.9,34921.0,-0.4779,-0.1928,146.1,97.3,0.507
44.18,31915.9,34783.4,-0.4318,-0.5318,146.1,97.3,0.507
44.2,31839.6,34704.5,-0.8233,-0.7259,146.1,97.3,0.507
44.22,31899.8,34693.3,-0.5145,-0.7535,146.1,97.3,0.507
44.24,31822.9,34608.6,-0.9088,-0.962,146.1,97.3,0.507
44.26,31896.3,34586.0,-0.5321,-1.0177,146.1,97.3,0.507
44.28,31756.0,34465.1,-1.2523,-1.3153,146.1,97.3,0.507
44.3,31790.7,34348.1,-1.0742,-1.6033,146.1,97.3,0.507
44.32,31869.3,34578.7,-0.6705,-1.0356,146.1,97.3,0.507
44.34,31863.1,34820.0,-0.7027,-0.4416,146.1,97.3,0.507
44.36,32030.0,35235.2,0.1539,0.5806,146.1,97.3,0.507
44.38,32296.9,35592.9,1.524,1.4614,146.1,97.3,0.507
44.4,32385.9,35761.5,1.9809,1.8764,146.1,97.3,0.507
44.42,32435.9,35672.6,2.2373,1.6575,146.1,97.3,0.507
44.44,32245.9,35565.4,1.262,1.3936,146.1,97.3,0.507
44.46,32214.5,35316.1,1.1011,0.78,146.1,97.3,0.507
44.48,32066.7,35225.2,0.3425,0.556,146.1,97.3,0.507
44.5,31996.1,35127.9,-0.02,0.3166,146.1,97.3,0.507
44.52,32026.6,35138.2,0.1364,0.3419,146.1,97.3,0.507
44.54,31976.3,34991.2,-0.1218,-0.0201,146.1,97.3,0.507
44.56,31903.6,34942.7,-0.4948,-0.1393,146.1,97.3,0.507
44.58,31811.5,34823.3,-0.9674,-0.4333,146.1,97.3,0.507
44.6,31940.3,34830.8,-0.3062,-0.4149,146.1,97.3,0.507
44.62,31754.8,34681.7,-1.2584,-0.782,146.1,97.3,0.507
44.64,31869.0,34632.9,-0.6723,-0.9022,146.1,97.3,0.507
44.66,31917.2,34613.0,-0.4251,-0.9511,146.1,97.3,0.507
44.68,31695.9,34539.4,-1.5607,-1.1324,146.1,97.3,0.507
44.7,31698.5,34517.1,-1.5474,-1.1872,146.1,97.3,0.507
44.72,31717.5,34496.9,-1.4502,-1.237,146.1,97.3,0.507
44.74,31812.4,34692.7,-0.9631,-0.7549,146.1,97.3,0.507
44.76,32063.4,35026.4,0.3255,0.0666,146.1,97.3,0.507
44.78,32202.7,35356.2,1.0404,0.8786,146.1,97.3,0.507
44.8,32289.2,35710.4,1.4846,1.7505,146.1,97.3,0.507
44.82,32351.5,35724.7,1.804,1.7859,146.1,97.3,0.507
44.84,32233.3,35672.6,1.1973,1.6577,146.1,97.3,0.507
44.86,32172.7,35486.6,0.8865,1.1995,146.1,97.3,0.507
