timestamp,raw_red,raw_ir,filtered_red,filtered_ir,heart_rate,spo2,ac_dc_ratio
0.0,32174.7,35194.2,0.8663,0.4779,148.0,96.9,0.523
0.02,32232.1,35544.2,1.1532,1.3385,148.0,96.9,0.523
0.04,32348.1,35805.4,1.7324,1.981,148.0,96.9,0.523
0.06,32266.6,35729.6,1.3251,1.7944,148.0,96.9,0.523
0.08,32329.1,35507.4,1.6376,1.2481,148.0,96.9,0.523
0.1,32173.4,35324.2,0.8595,0.7974,148.0,96.9,0.523
0.12,32248.6,35205.0,1.2353,0.5045,148.0,96.9,0.523
0.14,32025.1,35038.2,0.1191,0.0942,148.0,96.9,0.523
0.16,32045.5,35170.9,0.221,0.4204,148.0,96.9,0.523
0.18,32011.4,35046.2,0.0506,0.1139,148.0,96.9,0.523
0.2,32000.2,34976.0,-0.0053,-0.0588,148.0,96.9,0.523
0.22,31922.9,34775.7,-0.3913,-0.5514,148.0,96.9,0.523
0.24,31901.0,34688.9,-0.501,-0.7649,148.0,96.9,0.523
0.26,31854.9,34721.4,-0.7313,-0.685,148.0,96.9,0.523
0.28,31828.1,34620.2,-0.865,-0.9339,148.0,96.9,0.523
0.3,31810.3,34592.9,-0.9538,-1.001,148.0,96.9,0.523
0.32,31742.0,34551.3,-1.2951,-1.1032,148.0,96.9,0.523
0.34,31710.2,34393.0,-1.4539,-1.4924,148.0,96.9,0.523
0.36,31737.5,34509.0,-1.3175,-1.2073,148.0,96.9,0.523
0.38,31879.6,34695.9,-0.6081,-0.7477,148.0,96.9,0.523
0.4,32037.9,34967.3,0.183,-0.0802,148.0,96.9,0.523
0.42,32155.0,35403.9,0.768,0.9934,148.0,96.9,0.523
0.44,32380.0,35746.7,1.8917,1.8366,148.0,96.9,0.523
0.46,32287.3,35759.5,1.4289,1.8681,148.0,96.9,0.523
0.48,32292.2,35684.2,1.4533,1.6827,148.0,96.9,0.523
0.5,32246.7,35449.6,1.2261,1.1058,148.0,96.9,0.523
0.52,32250.2,35257.3,1.2434,0.633,148.0,96.9,0.523
0.54,32060.8,35210.4,0.2974,0.5177,148.0,96.9,0.523
0.56,32031.9,35075.5,0.1528,0.1858,148.0,96.9,0.523
0.58,31954.6,35063.8,-0.2331,0.157,148.0,96.9,0.523
0.6,31989.4,34945.7,-0.0594,-0.1334,148.0,96.9,0.523
0.62,31932.3,34828.3,-0.3448,-0.422,148.0,96.9,0.523
0.64,31853.6,34713.3,-0.7379,-0.7049,148.0,96.9,0.523
0.66,31972.4,34738.0,-0.1445,-0.6441,148.0,96.9,0.523
0.68,31841.8,34748.7,-0.7965,-0.6179,148.0,96.9,0.523
0.7,31872.7,34544.6,-0.6423,-1.1196,148.0,96.9,0.523
0.72,31765.4,34629.8,-1.1783,-0.9101,148.0,96.9,0.523
0.74,31734.1,34498.6,-1.3348,-1.2329,148.0,96.9,0.523
0.76,31774.1,34493.2,-1.1347,-1.2461,148.0,96.9,0.523
0.78,31805.7,34642.5,-0.977,-0.8789,148.0,96.9,0.523
0.8,31911.4,34977.4,-0.4489,-0.0554,148.0,96.9,0.523
0.82,32179.6,35321.3,0.8906,0.7905,148.0,96.9,0.523
0.84,32288.7,35624.4,1.4359,1.5357,148.0,96.9,0.523
0.86,32386.4,35766.5,1.9237,1.8851,148.0,96.9,0.523
0.88,32345.5,35694.7,1.7193,1.7086,148.0,96.9,0.523
0.9,32257.9,35506.7,1.2819,1.2462,148.0,96.9,0.523
0.92,32109.6,35263.8,0.5411,0.6489,148.0,96.9,0.523
0.94,32082.6,35184.6,0.4063,0.4541,148.0,96.9,0.523
0.96,31993.6,35098.1,-0.0385,0.2415,148.0,96.9,0.523
0.98,32101.1,35004.5,0.4988,0.0112,148.0,96.9,0.523
1.0,31891.5,34882.7,-0.5484,-0.2883,148.0,96.9,0.523
1.02,32033.1,34881.7,0.1588,-0.2908,148.0,96.9,0.523
1.04,31849.6,34686.7,-0.7575,-0.7703,148.0,96.9,0.523
1.06,31788.6,34689.4,-1.0623,-0.7637,148.0,96.9,0.523
1.08,31855.6,34685.7,-0.7276,-0.7726,148.0,96.9,0.523
1.1,31832.2,34710.1,-0.8445,-0.7126,148.0,96.9,0.523
1.12,31761.8,34628.7,-1.1963,-0.9128,148.0,96.9,0.523
1.14,31762.0,34469.0,-1.1954,-1.3057,148.0,96.9,0.523
1.16,31726.2,34467.8,-1.3739,-1.3085,148.0,96.9,0.523
1.18,31760.4,34600.3,-1.2033,-0.9828,148.0,96.9,0.523
1.2,31885.7,34801.1,-0.5774,-0.4888,148.0,96.9,0.523
1.22,32150.9,35317.2,0.7474,0.7802,148.0,96.9,0.523
1.24,32282.3,35539.1,1.404,1.3259,148.0,96.9,0.523
1.26,32256.3,35806.3,1.2739,1.9831,148.0,96.9,0.523
1.28,32405.4,35762.1,2.0184,1.8743,148.0,96.9,0.523
1.3,32293.3,35528.7,1.4588,1.3005,148.0,96.9,0.523
1.32,32119.4,35347.1,0.5901,0.8539,148.0,96.9,0.523
1.34,32109.1,35117.3,0.5386,0.2887,148.0,96.9,0.523
1.36,32055.3,35046.5,0.2699,0.1146,148.0,96.9,0.523
1.38,32044.8,35031.5,0.2175,0.0778,148.0,96.9,0.523
1.4,31968.7,35001.5,-0.1627,0.004,148.0,96.9,0.523
1.42,32008.4,34868.4,0.0354,-0.3234,148.0,96.9,0.523
1.44,31795.8,34766.2,-1.0267,-0.5746,148.0,96.9,0.523
1.46,31859.9,34665.1,-0.7065,-0.8234,148.0,96.9,0.523
1.48,31880.2,34698.1,-0.605,-0.7422,148.0,96.9,0.523
1.5,31797.0,34660.9,-1.0203,-0.8337,148.0,96.9,0.523
1.52,31851.1,34595.6,-0.7501,-0.9943,148.0,96.9,0.523
1.54,31706.9,34506.6,-1.4707,-1.2132,148.0,96.9,0.523
1.56,31793.2,34454.5,-1.0394,-1.3412,148.0,96.9,0.523
1.58,31744.8,34575.1,-1.2811,-1.0447,148.0,96.9,0.523
1.6,31844.9,34760.2,-0.7812,-0.5895,148.0,96.9,0.523
1.62,32104.4,35067.5,0.5149,0.1661,148.0,96.9,0.523
1.64,32264.4,35537.8,1.3142,1.3228,148.0,96.9,0.523
1.66,32369.8,35767.9,1.8408,1.8888,148.0,96.9,0.523
1.68,32280.9,35700.0,1.3969,1.7216,148.0,96.9,0.523
1.7,32232.5,35535.8,1.155,1.318,148.0,96.9,0.523
1.72,32346.1,35522.3,1.7223,1.2848,148.0,96.9,0.523
1.74,32160.0,35303.9,0.7929,0.7476,148.0,96.9,0.523
1.76,32070.2,35147.4,0.3444,0.3626,148.0,96.9,0.523
1.78,31948.6,35060.4,-0.2632,0.1487,148.0,96.9,0.523
1.8,31995.9,35036.8,-0.0267,0.0907,148.0,96.9,0.523
1.82,31990.9,34854.1,-0.0517,-0.3586,148.0,96.9,0.523
1.84,31879.6,34713.5,-0.6079,-0.7044,148.0,96.9,0.523
1.86,31780.1,34688.4,-1.1051,-0.7661,148.0,96.9,0.523
1.88,31905.0,34709.2,-0.4808,-0.7149,148.0,96.9,0.523
1.9,31782.3,34700.5,-1.0937,-0.7362,148.0,96.9,0.523
1.92,31780.2,34537.2,-1.1043,-1.1379,148.0,96.9,0.523
1.94,31758.6,34438.1,-1.2122,-1.3816,148.0,96.9,0.523
1.96,31710.1,34517.3,-1.4546,-1.1867,148.0,96.9,0.523
1.98,31752.4,34473.9,-1.2434,-1.2935,148.0,96.9,0.523
2.0,31903.0,34723.5,-0.4912,-0.6798,148.0,96.9,0.523
2.02,31950.4,35016.6,-0.2544,0.0411,148.0,96.9,0.523
2.04,32188.8,35445.9,0.9367,1.0967,148.0,96.9,0.523
2.06,32352.0,35743.1,1.7518,1.8276,148.0,96.9,0.523
2.08,32387.0,35709.4,1.9266,1.7448,148.0,96.9,0.523
2.1,32331.1,35686.3,1.6475,1.6879,148.0,96.9,0.523
2.12,32249.5,35455.6,1.2399,1.1207,148.0,96.9,0.523
2.14,32119.1,35175.6,0.5884,0.432,148.0,96.9,0.523
2.16,32110.7,35119.1,0.5464,0.2931,148.0,96.9,0.523
2.18,32079.0,35104.9,0.3882,0.2582,148.0,96.9,0.523
2.2,32060.5,35049.6,0.2958,0.1221,148.0,96.9,0.523
2.22,31952.5,34936.9,-0.2439,-0.1549,148.0,96.9,0.523
2.24,31941.5,34796.8,-0.2987,-0.4996,148.0,96.9,0.523
2.26,31907.7,34763.2,-0.4676,-0.5821,148.0,96.9,0.523
2.28,31871.1,34692.7,-0.6505,-0.7556,148.0,96.9,0.523
2.3,31882.2,34792.7,-0.595,-0.5095,148.0,96.9,0.523
2.32,31803.0,34631.8,-0.9907,-0.9052,148.0,96.9,0.523
2.34,31717.1,34419.1,-1.4196,-1.4283,148.0,96.9,0.523
2.36,31749.1,34467.5,-1.2598,-1.3092,148.0,96.9,0.523
2.38,31687.7,34401.8,-1.5665,-1.4709,148.0,96.9,0.523
2.4,31839.5,34559.1,-0.8081,-1.0842,148.0,96.9,0.523
2.42,31945.7,34936.5,-0.2778,-0.1559,148.0,96.9,0.523
2.44,32190.0,35309.9,0.9426,0.7624,148.0,96.9,0.523
2.46,32368.2,35701.1,1.8327,1.7243,148.0,96.9,0.523
2.48,32342.5,35688.9,1.7046,1.6944,148.0,96.9,0.523
2.5,32322.1,35721.5,1.6024,1.7745,148.0,96.9,0.523
2.52,32291.0,35470.1,1.4474,1.1563,148.0,96.9,0.523
2.54,32203.1,35267.1,1.008,0.6571,148.0,96.9,0.523
2.56,32059.7,35064.3,0.2918,0.1584,148.0,96.9,0.523
2.58,32134.3,35067.5,0.6645,0.1662,148.0,96.9,0.523
2.6,32015.8,35107.6,0.0723,0.2648,148.0,96.9,0.523
2.62,31937.3,34982.2,-0.3194,-0.0436,148.0,96.9,0.523
2.64,32025.0,34857.2,0.1186,-0.351,148.0,96.9,0.523
2.66,31932.5,34828.4,-0.3436,-0.4218,148.0,96.9,0.523
2.68,31802.3,34656.5,-0.9941,-0.8445,148.0,96.9,0.523
2.7,31861.5,34653.6,-0.6982,-0.8516,148.0,96.9,0.523
2.72,31792.1,34649.3,-1.045,-0.8623,148.0,96.9,0.523
2.74,31843.0,34552.6,-0.7907,-1.0999,148.0,96.9,0.523
2.76,31751.2,34479.6,-1.2494,-1.2795,148.0,96.9,0.523
2.78,31683.2,34450.5,-1.5888,-1.3512,148.0,96.9,0.523
2.8,31747.4,34564.9,-1.2681,-1.0699,148.0,96.9,0.523
2.82,31886.4,34876.5,-0.5739,-0.3035,148.0,96.9,0.523
2.84,32051.0,35298.9,0.2484,0.7353,148.0,96.9,0.523
2.86,32256.4,35519.2,1.2744,1.2771,148.0,96.9,0.523
2.88,32387.9,35768.2,1.9312,1.8893,148.0,96.9,0.523
2.9,32382.1,35764.4,1.9022,1.88,148.0,96.9,0.523
2.92,32250.0,35584.3,1.2422,1.4372,148.0,96.9,0.523
2.94,32077.7,35332.9,0.3815,0.8188,148.0,96.9,0.523
2.96,32143.2,35151.5,0.7089,0.3728,148.0,96.9,0.523
2.98,32072.3,35077.6,0.3546,0.1911,148.0,96.9,0.523
3.0,32055.1,35116.7,0.269,0.2871,148.0,96.9,0.523
3.02,31898.7,35029.4,-0.5124,0.0726,148.0,96.9,0.523
3.04,31902.4,34873.9,-0.494,-0.3099,148.0,96.9,0.523
3.06,31950.3,34782.0,-0.2545,-0.5359,148.0,96.9,0.523
3.08,31894.3,34718.4,-0.5343,-0.6923,148.0,96.9,0.523
3.1,31864.7,34691.1,-0.6822,-0.7595,148.0,96.9,0.523
3.12,31871.7,34613.9,-0.6474,-0.9492,148.0,96.9,0.523
3.14,31820.4,34616.9,-0.9034,-0.9419,148.0,96.9,0.523
3.16,31857.6,34530.0,-0.718,-1.1557,148.0,96.9,0.523
3.18,31770.5,34325.3,-1.153,-1.659,148.0,96.9,0.523
3.2,31740.7,34518.7,-1.3019,-1.1834,148.0,96.9,0.523
3.22,31903.6,34731.1,-0.4882,-0.6612,148.0,96.9,0.523
3.24,32057.5,35030.5,0.281,0.0752,148.0,96.9,0.523
3.26,32251.1,35486.9,1.2477,1.1977,148.0,96.9,0.523
3.28,32292.9,35707.4,1.4566,1.7398,148.0,96.9,0.523
3.3,32406.9,35751.2,2.026,1.8476,148.0,96.9,0.523
3.32,32306.0,35532.5,1.5221,1.3096,148.0,96.9,0.523
3.34,32124.2,35450.6,0.6142,1.1083,148.0,96.9,0.523
3.36,32151.8,35262.3,0.7521,0.6453,148.0,96.9,0.523
3.38,32078.7,35200.4,0.3865,0.4929,148.0,96.9,0.523
3.4,31921.2,35058.3,-0.3999,0.1436,148.0,96.9,0.523
3.42,31970.7,34995.7,-0.1529,-0.0105,148.0,96.9,0.523
3.44,32040.9,34981.0,0.1981,-0.0465,148.0,96.9,0.523
3.46,31812.6,34770.2,-0.9427,-0.5649,148.0,96.9,0.523
3.48,31888.0,34772.6,-0.5661,-0.559,148.0,96.9,0.523
3.5,31848.3,34640.4,-0.7641,-0.884,148.0,96.9,0.523
3.52,31725.0,34676.3,-1.3799,-0.7959,148.0,96.9,0.523
3.54,31776.2,34708.8,-1.1245,-0.7159,148.0,96.9,0.523
3.56,31795.4,34599.8,-1.0283,-0.9838,148.0,96.9,0.523
3.58,31768.0,34467.7,-1.1651,-1.3088,148.0,96.9,0.523
3.6,31688.3,34473.8,-1.5633,-1.2939,148.0,96.9,0.523
3.62,31891.9,34735.3,-0.5464,-0.6507,148.0,96.9,0.523
3.64,32007.9,34980.4,0.0329,-0.048,148.0,96.9,0.523
3.66,32170.3,35363.6,0.8442,0.8944,148.0,96.9,0.523
3.68,32414.0,35580.2,2.0614,1.427,148.0,96.9,0.523
3.7,32356.5,35716.5,1.7746,1.7622,148.0,96.9,0.523
3.72,32267.0,35601.3,1.3273,1.479,148.0,96.9,0.523
3.74,32119.0,35463.1,0.5878,1.139,148.0,96.9,0.523
3.76,32158.2,35260.4,0.784,0.6405,148.0,96.9,0.523
3.78,32101.5,35180.1,0.5006,0.443,148.0,96.9,0.523
3.8,32025.1,35030.2,0.119,0.0746,148.0,96.9,0.523
3.82,32010.2,34962.5,0.0448,-0.0921,148.0,96.9,0.523
3.84,31965.7,34862.7,-0.1775,-0.3375,148.0,96.9,0.523
3.86,31971.0,34840.9,-0.1512,-0.3911,148.0,96.9,0.523
3.88,31869.0,34721.6,-0.661,-0.6844,148.0,96.9,0.523
3.9,31807.3,34622.9,-0.969,-0.9272,148.0,96.9,0.523
3.92,31864.6,34681.5,-0.6826,-0.7831,148.0,96.9,0.523
3.94,31855.4,34646.0,-0.729,-0.8704,148.0,96.9,0.523
3.96,31652.4,34633.7,-1.7427,-0.9005,148.0,96.9,0.523
3.98,31760.9,34484.8,-1.2007,-1.2667,148.0,96.9,0.523
4.0,31726.6,34509.1,-1.3719,-1.207,148.0,96.9,0.523
4.02,31817.0,34478.1,-0.9205,-1.2832,148.0,96.9,0.523
4.04,31922.7,34825.6,-0.3927,-0.4287,148.0,96.9,0.523
4.06,32068.4,35334.9,0.3353,0.8238,148.0,96.9,0.523
4.08,32331.7,35566.0,1.6506,1.3921,148.0,96.9,0.523
4.1,32348.7,35747.6,1.7354,1.8387,148.0,96.9,0.523
4.12,32369.6,35659.4,1.84,1.6217,148.0,96.9,0.523
4.14,32273.6,35536.2,1.3605,1.3188,148.0,96.9,0.523
4.16,32175.1,35293.0,0.8681,0.7207,148.0,96.9,0.523
4.18,32062.5,35139.3,0.3059,0.3428,148.0,96.9,0.523
4.2,32036.1,35171.9,0.1739,0.4231,148.0,96.9,0.523
4.22,31940.6,35081.1,-0.3031,0.1997,148.0,96.9,0.523
4.24,32034.6,34992.5,0.1665,-0.0183,148.0,96.9,0.523
4.26,31867.9,34893.5,-0.6663,-0.2617,148.0,96.9,0.523
4.28,31904.5,34786.1,-0.4836,-0.5258,148.0,96.9,0.523
4.3,31971.8,34658.3,-0.1473,-0.8401,148.0,96.9,0.523
4.32,31883.7,34643.1,-0.5874,-0.8774,148.0,96.9,0.523
4.34,31875.5,34616.0,-0.6284,-0.9442,148.0,96.9,0.523
4.36,31853.3,34550.0,-0.7393,-1.1065,148.0,96.9,0.523
4.38,31778.4,34473.7,-1.1132,-1.294,148.0,96.9,0.523
4.4,31691.4,34448.7,-1.5478,-1.3555,148.0,96.9,0.523
4.42,31824.6,34544.8,-0.8824,-1.1192,148.0,96.9,0.523
4.44,31857.1,34737.8,-0.7205,-0.6445,148.0,96.9,0.523
4.46,32125.1,35131.9,0.6185,0.3247,148.0,96.9,0.523
4.48,32305.8,35594.6,1.5209,1.4626,148.0,96.9,0.523
4.5,32288.3,35781.8,1.4338,1.9228,148.0,96.9,0.523
4.52,32443.0,35717.3,2.2065,1.7643,148.0,96.9,0.523
4.54,32388.5,35551.7,1.934,1.3569,148.0,96.9,0.523
4.56,32136.7,35390.7,0.6763,0.9611,148.0,96.9,0.523
4.58,32102.8,35268.1,0.507,0.6596,148.0,96.9,0.523
4.6,31983.1,35207.5,-0.0911,0.5105,148.0,96.9,0.523
4.62,31998.1,35055.6,-0.0161,0.1371,148.0,96.9,0.523
4.64,31989.1,34978.1,-0.0607,-0.0537,148.0,96.9,0.523
4.66,31932.1,34888.1,-0.3458,-0.2749,148.0,96.9,0.523
4.68,31998.8,34805.2,-0.0125,-0.4789,148.0,96.9,0.523
4.7,31905.2,34732.9,-0.4798,-0.6567,148.0,96.9,0.523
4.72,31836.1,34703.4,-0.8249,-0.7292,148.0,96.9,0.523
4.74,31826.9,34603.0,-0.8709,-0.9761,148.0,96.9,0.523
4.76,31866.6,34470.7,-0.673,-1.3013,148.0,96.9,0.523
4.78,31783.6,34543.4,-1.0874,-1.1228,148.0,96.9,0.523
4.8,31664.4,34497.6,-1.6831,-1.2354,148.0,96.9,0.523
4.82,31798.2,34492.6,-1.0144,-1.2476,148.0,96.9,0.523
4.84,31816.3,34754.7,-0.9239,-0.6029,148.0,96.9,0.523
4.86,32071.0,35125.2,0.3483,0.3082,148.0,96.9,0.523
4.88,32328.7,35440.4,1.6353,1.0834,148.0,96.9,0.523
4.9,32309.3,35742.6,1.5384,1.8265,148.0,96.9,0.523
4.92,32296.9,35810.5,1.4765,1.9935,148.0,96.9,0.523
4.94,32375.1,35602.2,1.8672,1.4812,148.0,96.9,0.523
4.96,32250.7,35435.4,1.2458,1.071,148.0,96.9,0.523
4.98,32107.2,35232.5,0.529,0.572,148.0,96.9,0.523
5.0,32114.6,35184.5,0.5659,0.4539,148.0,96.9,0.523
5.02,32008.1,35109.2,0.0338,0.2687,148.0,96.9,0.523
5.04,32009.7,34980.3,0.0422,-0.0482,148.0,96.9,0.523
5.06,31947.1,34861.8,-0.2705,-0.3397,148.0,96.9,0.523
5.08,31953.4,34816.4,-0.239,-0.4513,148.0,96.9,0.523
5.1,31921.1,34732.8,-0.4006,-0.6568,148.0,96.9,0.523
5.12,31912.8,34696.7,-0.4418,-0.7457,148.0,96.9,0.523
5.14,31874.4,34645.5,-0.6337,-0.8717,148.0,96.9,0.523
5.16,31844.2,34601.0,-0.7845,-0.9811,148.0,96.9,0.523
5.18,31796.3,34569.9,-1.0242,-1.0574,148.0,96.9,0.523
5.2,31755.8,34536.2,-1.2262,-1.1404,148.0,96.9,0.523
5.22,31719.0,34450.6,-1.4103,-1.3508,148.0,96.9,0.523
5.24,31909.1,34610.7,-0.4605,-0.9571,148.0,96.9,0.523
5.26,31979.4,34998.3,-0.1094,-0.004,148.0,96.9,0.523
5.28,32105.6,35340.8,0.5209,0.8382,148.0,96.9,0.523
5.3,32339.4,35680.7,1.6888,1.6741,148.0,96.9,0.523
5.32,32420.0,35815.2,2.0918,2.005,148.0,96.9,0.523
5.34,32435.2,35621.4,2.1674,1.5283,148.0,96.9,0.523
5.36,32255.0,35503.3,1.2676,1.238,148.0,96.9,0.523
5.38,32236.0,35244.1,1.1724,0.6005,148.0,96.9,0.523
5.4,32078.4,35126.2,0.3854,0.3105,148.0,96.9,0.523
5.42,32062.2,35089.3,0.304,0.2199,148.0,96.9,0.523
5.44,31997.7,35036.9,-0.0179,0.091,148.0,96.9,0.523
5.46,31965.5,34923.8,-0.1789,-0.1871,148.0,96.9,0.523
5.48,31860.6,34820.0,-0.7029,-0.4424,148.0,96.9,0.523
5.5,31914.3,34772.2,-0.4347,-0.5599,148.0,96.9,0.523
5.52,31826.9,34666.9,-0.871,-0.8189,148.0,96.9,0.523
5.54,31825.1,34676.7,-0.8799,-0.7948,148.0,96.9,0.523
5.56,31800.2,34616.7,-1.0043,-0.9424,148.0,96.9,0.523
5.58,31787.6,34507.1,-1.0674,-1.2118,148.0,96.9,0.523
5.6,31726.6,34506.4,-1.372,-1.2136,148.0,96.9,0.523
5.62,31658.3,34478.9,-1.7131,-1.2812,148.0,96.9,0.523
5.64,31867.0,34668.0,-0.6706,-0.8163,148.0,96.9,0.523
5.66,31984.0,34869.5,-0.0863,-0.3206,148.0,96.9,0.523
5.68,32114.3,35225.0,0.5647,0.5534,148.0,96.9,0.523
5.7,32284.5,35541.6,1.4149,1.3321,148.0,96.9,0.523
5.72,32441.4,35825.0,2.1984,2.0292,148.0,96.9,0.523
5.74,32344.1,35583.2,1.7127,1.4344,148.0,96.9,0.523
5.76,32274.8,35530.2,1.3664,1.3041,148.0,96.9,0.523
5.78,32180.2,35315.3,0.8939,0.7756,148.0,96.9,0.523
5.8,32031.9,35137.3,0.153,0.3378,148.0,96.9,0.523
5.82,32083.5,35098.2,0.4105,0.2418,148.0,96.9,0.523
5.84,32076.3,34991.2,0.3746,-0.0215,148.0,96.9,0.523
5.86,31968.9,34916.1,-0.1619,-0.2062,148.0,96.9,0.523
5.88,32007.6,34890.9,0.0316,-0.268,148.0,96.9,0.523
5.9,31911.5,34866.4,-0.4487,-0.3283,148.0,96.9,0.523
5.92,31843.1,34693.8,-0.7902,-0.7528,148.0,96.9,0.523
5.94,31813.9,34587.7,-0.9358,-1.0137,148.0,96.9,0.523
5.96,31803.6,34613.3,-0.9873,-0.9508,148.0,96.9,0.523
5.98,31736.7,34570.7,-1.3217,-1.0556,148.0,96.9,0.523
6.0,31765.3,34461.2,-1.1786,-1.3247,148.0,96.9,0.523
6.02,31717.1,34455.1,-1.4198,-1.3399,148.0,96.9,0.523
6.04,31834.9,34534.6,-0.8313,-1.1443,148.0,96.9,0.523
6.06,31919.8,34778.9,-0.4068,-0.5434,148.0,96.9,0.523
6.08,32091.8,35144.0,0.4519,0.3544,148.0,96.9,0.523
6.1,32120.7,35559.9,0.5967,1.3771,148.0,96.9,0.523
6.12,32338.7,35764.9,1.6855,1.8812,148.0,96.9,0.523
6.14,32439.0,35756.5,2.1867,1.8607,148.0,96.9,0.523
6.16,32290.1,35562.5,1.4428,1.3835,148.0,96.9,0.523
6.18,32206.0,35336.0,1.0228,0.8265,148.0,96.9,0.523
6.2,32093.9,35251.8,0.4627,0.6195,148.0,96.9,0.523
6.22,32058.3,35117.3,0.285,0.2887,148.0,96.9,0.523
6.24,32063.8,35141.2,0.312,0.3475,148.0,96.9,0.523
6.26,32097.0,34950.4,0.4783,-0.1218,148.0,96.9,0.523
6.28,31904.7,34841.9,-0.4826,-0.3885,148.0,96.9,0.523
6.3,31829.5,34777.4,-0.8579,-0.5472,148.0,96.9,0.523
6.32,31940.1,34764.7,-0.3055,-0.5783,148.0,96.9,0.523
6.34,31798.5,34656.3,-1.0127,-0.8451,148.0,96.9,0.523
6.36,31836.8,34650.0,-0.8215,-0.8605,148.0,96.9,0.523
6.38,31794.1,34571.4,-1.0349,-1.0538,148.0,96.9,0.523
6.4,31745.1,34513.0,-1.2799,-1.1973,148.0,96.9,0.523
6.42,31669.5,34359.2,-1.6575,-1.5758,148.0,96.9,0.523
6.44,31738.7,34446.3,-1.3115,-1.3613,148.0,96.9,0.523
6.46,31852.3,34745.8,-0.7443,-0.6248,148.0,96.9,0.523
6.48,32060.7,35038.4,0.2968,0.0947,148.0,96.9,0.523
6.5,32216.7,35462.3,1.0762,1.1371,148.0,96.9,0.523
6.52,32346.7,35707.5,1.7254,1.7401,148.0,96.9,0.523
6.54,32308.9,35748.5,1.5365,1.841,148.0,96.9,0.523
6.56,32243.4,35584.9,1.2092,1.4387,148.0,96.9,0.523
6.58,32190.9,35357.6,0.9474,0.8797,148.0,96.9,0.523
6.6,32194.2,35181.8,0.9635,0.4474,148.0,96.9,0.523
6.62,32064.0,35261.3,0.3135,0.6427,148.0,96.9,0.523
6.64,32026.6,35151.4,0.1266,0.3725,148.0,96.9,0.523
6.66,32009.2,35015.7,0.0394,0.0387,148.0,96.9,0.523
6.68,31913.7,34873.7,-0.4374,-0.3104,148.0,96.9,0.523
6.7,31923.4,34740.7,-0.3891,-0.6375,148.0,96.9,0.523
6.72,31852.0,34714.1,-0.746,-0.7029,148.0,96.9,0.523
6.74,31797.1,34641.4,-1.0197,-0.8815,148.0,96.9,0.523
6.76,31798.3,34668.3,-1.0141,-0.8155,148.0,96.9,0.523
6.78,31819.5,34543.1,-0.9081,-1.1233,148.0,96.9,0.523
6.8,31783.6,34546.0,-1.0873,-1.1164,148.0,96.9,0.523
6.82,31821.7,34401.7,-0.897,-1.471,148.0,96.9,0.523
6.84,31694.7,34513.8,-1.5316,-1.1955,148.0,96.9,0.523
6.86,31845.4,34716.5,-0.7786,-0.6971,148.0,96.9,0.523
6.88,31936.7,34983.9,-0.3227,-0.0394,148.0,96.9,0.523
6.9,32134.7,35308.9,0.6666,0.7599,148.0,96.9,0.523
6.92,32264.2,35709.6,1.3135,1.7452,148.0,96.9,0.523
6.94,32359.0,35846.5,1.7868,2.0819,148.0,96.9,0.523
6.96,32266.7,35641.4,1.3259,1.5776,148.0,96.9,0.523
6.98,32195.8,35403.7,0.9715,0.9931,148.0,96.9,0.523
7.0,32101.7,35298.9,0.5014,0.7352,148.0,96.9,0.523
7.02,32080.9,35231.0,0.3976,0.5684,148.0,96.9,0.523
7.04,32069.6,35113.3,0.3411,0.2788,148.0,96.9,0.523
7.06,32075.6,35160.5,0.3713,0.395,148.0,96.9,0.523
7.08,32028.5,35013.4,0.1361,0.0332,148.0,96.9,0.523
7.1,31989.6,34826.1,-0.0584,-0.4275,148.0,96.9,0.523
7.12,31862.0,34813.9,-0.6958,-0.4574,148.0,96.9,0.523
7.14,31876.6,34635.3,-0.6227,-0.8967,148.0,96.9,0.523
7.16,31862.9,34710.9,-0.6914,-0.7107,148.0,96.9,0.523
7.18,31796.8,34545.3,-1.0213,-1.1181,148.0,96.9,0.523
7.2,31754.2,34595.3,-1.2342,-0.9951,148.0,96.9,0.523
7.22,31761.8,34441.2,-1.1961,-1.374,148.0,96.9,0.523
7.24,31719.7,34345.4,-1.4067,-1.6096,148.0,96.9,0.523
7.26,31856.1,34660.4,-0.7254,-0.8349,148.0,96.9,0.523
7.28,31963.7,34873.8,-0.1879,-0.3102,148.0,96.9,0.523
7.3,32067.5,35261.7,0.3307,0.6439,148.0,96.9,0.523
7.32,32168.6,35564.2,0.8358,1.3878,148.0,96.9,0.523
7.34,32359.1,35718.1,1.7874,1.7661,148.0,96.9,0.523
7.36,32424.3,35658.4,2.1128,1.6195,148.0,96.9,0.523
7.38,32304.3,35526.9,1.5134,1.2959,148.0,96.9,0.523
7.4,32162.3,35277.0,0.8044,0.6814,148.0,96.9,0.523
7.42,31996.0,35212.4,-0.0266,0.5226,148.0,96.9,0.523
7.44,32053.5,35127.8,0.2607,0.3145,148.0,96.9,0.523
7.46,31946.0,35097.2,-0.2761,0.2393,148.0,96.9,0.523
7.48,31976.8,34927.5,-0.1223,-0.1781,148.0,96.9,0.523
7.5,31908.6,34869.8,-0.463,-0.32,148.0,96.9,0.523
7.52,31909.7,34793.4,-0.4573,-0.5078,148.0,96.9,0.523
7.54,31865.0,34700.1,-0.6806,-0.7373,148.0,96.9,0.523
7.56,31890.7,34676.0,-0.5525,-0.7965,148.0,96.9,0.523
7.58,31774.0,34618.2,-1.1354,-0.9386,148.0,96.9,0.523
7.6,31818.0,34633.2,-0.9157,-0.9018,148.0,96.9,0.523
7.62,31737.5,34531.2,-1.3176,-1.1528,148.0,96.9,0.523
7.64,31604.0,34439.6,-1.9844,-1.378,148.0,96.9,0.523
7.66,31700.6,34547.9,-1.5021,-1.1116,148.0,96.9,0.523
7.68,31885.3,34796.2,-0.5795,-0.501,148.0,96.9,0.523
7.7,32066.6,35124.3,0.3265,0.3058,148.0,96.9,0.523
7.72,32243.0,35554.8,1.2076,1.3646,148.0,96.9,0.523
7.74,32301.7,35773.2,1.5007,1.9016,148.0,96.9,0.523
7.76,32420.7,35651.0,2.095,1.6013,148.0,96.9,0.523
7.78,32267.8,35635.4,1.3315,1.5628,148.0,96.9,0.523
7.8,32175.1,35357.8,0.8681,0.8802,148.0,96.9,0.523
7.82,31938.0,35217.2,-0.3159,0.5345,148.0,96.9,0.523
7.84,31996.0,35012.6,-0.0265,0.0312,148.0,96.9,0.523
7.86,32052.4,35107.1,0.2553,0.2635,148.0,96.9,0.523
7.88,31947.5,35001.1,-0.2686,0.0029,148.0,96.9,0.523
7.9,31977.1,34852.6,-0.1209,-0.3623,148.0,96.9,0.523
7.92,31940.4,34808.9,-0.304,-0.4697,148.0,96.9,0.523
7.94,31820.3,34675.7,-0.9043,-0.7973,148.0,96.9,0.523
7.96,31879.5,34688.3,-0.6085,-0.7664,148.0,96.9,0.523
7.98,31810.4,34593.8,-0.9538,-0.9987,148.0,96.9,0.523
8.0,31802.5,34618.9,-0.9932,-0.9371,148.0,96.9,0.523
8.02,31860.0,34531.6,-0.7056,-1.1517,148.0,96.9,0.523
8.04,31718.7,34524.8,-1.4117,-1.1685,148.0,96.9,0.523
8.06,31681.1,34537.0,-1.5993,-1.1384,148.0,96.9,0.523
8.08,31847.0,34706.8,-0.7708,-0.7208,148.0,96.9,0.523
8.1,31951.5,34988.4,-0.2487,-0.0283,148.0,96.9,0.523
8.12,32141.2,35462.9,0.6991,1.1387,148.0,96.9,0.523
8.14,32311.2,35653.5,1.5481,1.6074,148.0,96.9,0.523
8.16,32342.2,35798.1,1.7031,1.9629,148.0,96.9,0.523
8.18,32256.4,35598.9,1.2745,1.4731,148.0,96.9,0.523
8.2,32235.7,35434.0,1.1711,1.0676,148.0,96.9,0.523
8.22,32152.6,35260.9,0.7557,0.6417,148.0,96.9,0.523
8.24,32052.5,35157.4,0.2557,0.3873,148.0,96.9,0.523
8.26,32094.0,35077.6,0.4631,0.1909,148.0,96.9,0.523
8.28,32041.3,34918.5,0.1999,-0.2002,148.0,96.9,0.523
8.3,31985.8,34921.9,-0.0776,-0.1917,148.0,96.9,0.523
8.32,31863.1,34841.7,-0.6905,-0.3891,148.0,96.9,0.523
8.34,31893.2,34731.4,-0.54,-0.6604,148.0,96.9,0.523
8.36,31825.4,34739.3,-0.8785,-0.6408,148.0,96.9,0.523
8.38,31824.4,34662.7,-0.8837,-0.8292,148.0,96.9,0.523
8.4,31809.4,34624.9,-0.9584,-0.9223,148.0,96.9,0.523
8.42,31755.8,34559.7,-1.2264,-1.0825,148.0,96.9,0.523
8.44,31729.8,34423.8,-1.3563,-1.4168,148.0,96.9,0.523
8.46,31758.2,34440.3,-1.2142,-1.3762,148.0,96.9,0.523
8.48,31831.6,34683.9,-0.8476,-0.7772,148.0,96.9,0.523
8.5,31885.7,34971.2,-0.5773,-0.0707,148.0,96.9,0.523
8.52,32191.5,35231.4,0.9502,0.5693,148.0,96.9,0.523
8.54,32350.4,35502.9,1.7441,1.237,148.0,96.9,0.523
8.56,32398.4,35745.3,1.9836,1.8332,148.0,96.9,0.523
8.58,32311.1,35615.3,1.5476,1.5133,148.0,96.9,0.523
8.6,32275.7,35533.9,1.3705,1.3133,148.0,96.9,0.523
8.62,32105.2,35344.9,0.519,0.8483,148.0,96.9,0.523
8.64,32175.6,35103.5,0.8705,0.2548,148.0,96.9,0.523
8.66,32054.1,35079.2,0.2639,0.1951,148.0,96.9,0.523
8.68,31979.0,35118.4,-0.1113,0.2915,148.0,96.9,0.523
8.7,32044.5,35055.1,0.2159,0.1358,148.0,96.9,0.523
8.72,31841.1,34899.3,-0.8004,-0.2475,148.0,96.9,0.523
8.74,31882.2,34776.9,-0.5947,-0.5484,148.0,96.9,0.523
8.76,31810.4,34689.3,-0.9533,-0.7638,148.0,96.9,0.523
8.78,31851.9,34575.4,-0.7464,-1.0441,148.0,96.9,0.523
8.8,31749.0,34663.4,-1.2601,-0.8275,148.0,96.9,0.523
8.82,31874.9,34586.4,-0.6315,-1.017,148.0,96.9,0.523
8.84,31688.1,34487.5,-1.5646,-1.2602,148.0,96.9,0.523
8.86,31779.7,34397.4,-1.1071,-1.4817,148.0,96.9,0.523
8.88,31814.2,34553.9,-0.9344,-1.0969,148.0,96.9,0.523
8.9,31980.7,34785.0,-0.1027,-0.5285,148.0,96.9,0.523
8.92,32066.9,35272.8,0.328,0.6711,148.0,96.9,0.523
8.94,32225.8,35537.6,1.1215,1.3223,148.0,96.9,0.523
8.96,32416.3,35694.7,2.0733,1.7085,148.0,96.9,0.523
8.98,32331.2,35704.5,1.648,1.7326,148.0,96.9,0.523
9.0,32282.0,35554.4,1.4023,1.3636,148.0,96.9,0.523
9.02,32166.3,35310.4,0.8242,0.7636,148.0,96.9,0.523
9.04,32130.5,35158.1,0.6452,0.389,148.0,96.9,0.523
9.06,32049.2,35104.2,0.2394,0.2566,148.0,96.9,0.523
9.08,32026.5,35071.7,0.1259,0.1766,148.0,96.9,0.523
9.1,32022.3,35030.0,0.105,0.0741,148.0,96.9,0.523
9.12,31938.2,34870.3,-0.315,-0.3186,148.0,96.9,0.523
9.14,31847.1,34758.0,-0.7704,-0.5948,148.0,96.9,0.523
9.16,31883.8,34717.3,-0.5867,-0.695,148.0,96.9,0.523
9.18,31865.8,34635.6,-0.6768,-0.8958,148.0,96.9,0.523
9.2,31812.6,34672.2,-0.9425,-0.806,148.0,96.9,0.523
9.22,31864.9,34571.0,-0.6811,-1.0547,148.0,96.9,0.523
9.24,31782.1,34494.9,-1.0948,-1.2419,148.0,96.9,0.523
9.26,31707.8,34470.4,-1.4661,-1.3022,148.0,96.9,0.523
9.28,31733.3,34423.3,-1.3384,-1.4181,148.0,96.9,0.523
9.3,31845.3,34716.2,-0.7792,-0.6978,148.0,96.9,0.523
9.32,32071.0,35147.8,0.3484,0.3638,148.0,96.9,0.523
9.34,32242.7,35444.7,1.206,1.0939,148.0,96.9,0.523
9.36,32294.2,35697.6,1.463,1.7157,148.0,96.9,0.523
9.38,32319.5,35743.8,1.5897,1.8293,148.0,96.9,0.523
9.4,32302.6,35591.8,1.5052,1.4557,148.0,96.9,0.523
9.42,32167.7,35411.9,0.8314,1.0131,148.0,96.9,0.523
9.44,32071.5,35283.4,0.3508,0.6971,148.0,96.9,0.523
9.46,32115.8,35194.0,0.572,0.4773,148.0,96.9,0.523
9.48,32012.2,35035.4,0.0543,0.0873,148.0,96.9,0.523
9.5,32000.9,35020.9,-0.0021,0.0515,148.0,96.9,0.523
9.52,32019.3,34878.3,0.09,-0.2989,148.0,96.9,0.523
9.54,31953.8,34787.0,-0.2374,-0.5236,148.0,96.9,0.523
9.56,31925.3,34724.4,-0.3794,-0.6775,148.0,96.9,0.523
9.58,31802.2,34613.8,-0.9945,-0.9495,148.0,96.9,0.523
9.6,31761.6,34652.0,-1.1974,-0.8556,148.0,96.9,0.523
9.62,31752.8,34606.5,-1.241,-0.9676,148.0,96.9,0.523
9.64,31864.2,34528.4,-0.6847,-1.1596,148.0,96.9,0.523
9.66,31756.1,34516.4,-1.2247,-1.1892,148.0,96.9,0.523
9.68,31715.7,34454.6,-1.4265,-1.3409,148.0,96.9,0.523
9.7,31822.0,34677.3,-0.8957,-0.7932,148.0,96.9,0.523
9.72,31994.0,35067.7,-0.0363,0.1668,148.0,96.9,0.523
9.74,32140.8,35465.5,0.6968,1.1449,148.0,96.9,0.523
9.76,32382.3,35657.4,1.9032,1.6168,148.0,96.9,0.523
9.78,32370.9,35682.9,1.8463,1.6796,148.0,96.9,0.523
9.8,32332.8,35658.4,1.6559,1.6195,148.0,96.9,0.523
9.82,32230.9,35481.4,1.1469,1.184,148.0,96.9,0.523
9.84,32125.7,35300.1,0.6215,0.7383,148.0,96.9,0.523
9.86,32080.6,35141.2,0.3961,0.3475,148.0,96.9,0.523
9.88,32079.0,35080.8,0.3884,0.1988,148.0,96.9,0.523
9.9,32038.7,35057.3,0.1867,0.1412,148.0,96.9,0.523
9.92,31949.6,34957.3,-0.2581,-0.1047,148.0,96.9,0.523
9.94,31979.6,34797.7,-0.1084,-0.4973,148.0,96.9,0.523
9.96,31852.9,34729.7,-0.7412,-0.6645,148.0,96.9,0.523
9.98,31830.5,34633.4,-0.853,-0.9013,148.0,96.9,0.523
10.0,31886.6,34696.0,-0.5729,-0.7475,148.0,96.9,0.523
10.02,31756.3,34626.6,-1.2238,-0.9181,148.0,96.9,0.523
10.04,31772.0,34525.3,-1.1454,-1.1673,148.0,96.9,0.523
10.06,31684.9,34508.0,-1.5803,-1.2097,148.0,96.9,0.523
10.08,31726.9,34493.9,-1.3708,-1.2443,148.0,96.9,0.523
10.1,31803.2,34550.7,-0.9894,-1.1048,148.0,96.9,0.523
10.12,31992.8,34920.1,-0.0424,-0.1962,148.0,96.9,0.523
10.14,32163.4,35336.7,0.8098,0.8283,148.0,96.9,0.523
10.16,32372.0,35558.7,1.8519,1.3741,148.0,96.9,0.523
10.18,32334.6,35730.5,1.6649,1.7967,148.0,96.9,0.523
10.2,32319.8,35660.1,1.5912,1.6235,148.0,96.9,0.523
10.22,32305.4,35556.7,1.5192,1.3693,148.0,96.9,0.523
10.24,32109.3,35331.3,0.5394,0.815,148.0,96.9,0.523
10.26,32129.6,35138.8,0.6408,0.3415,148.0,96.9,0.523
10.28,31996.2,35105.3,-0.0255,0.2593,148.0,96.9,0.523
10.3,31924.9,35056.8,-0.3817,0.14,148.0,96.9,0.523
10.32,31978.0,34869.9,-0.1166,-0.3197,148.0,96.9,0.523
10.34,31888.1,34749.1,-0.5652,-0.6168,148.0,96.9,0.523
10.36,31852.1,34786.2,-0.7453,-0.5256,148.0,96.9,0.523
10.38,31801.4,34672.8,-0.9983,-0.8045,148.0,96.9,0.523
10.4,31828.9,34654.5,-0.8611,-0.8494,148.0,96.9,0.523
10.42,31746.0,34594.3,-1.2752,-0.9975,148.0,96.9,0.523
10.44,31737.5,34578.6,-1.3177,-1.0361,148.0,96.9,0.523
10.46,31718.7,34507.5,-1.4118,-1.211,148.0,96.9,0.523
10.48,31772.9,34359.4,-1.1409,-1.5751,148.0,96.9,0.523
10.5,31739.5,34639.4,-1.3078,-0.8865,148.0,96.9,0.523
10.52,32027.7,34857.0,0.1318,-0.3515,148.0,96.9,0.523
10.54,32100.5,35208.0,0.4958,0.5118,148.0,96.9,0.523
10.56,32317.9,35594.2,1.5817,1.4614,148.0,96.9,0.523
10.58,32375.2,35703.4,1.8678,1.7299,148.0,96.9,0.523
10.6,32388.6,35786.6,1.9348,1.9346,148.0,96.9,0.523
10.62,32376.1,35589.5,1.8723,1.4498,148.0,96.9,0.523
10.64,32098.8,35411.6,0.4873,1.0123,148.0,96.9,0.523
10.66,32158.3,35221.3,0.7845,0.5444,148.0,96.9,0.523
10.68,32143.3,35060.0,0.7096,0.1479,148.0,96.9,0.523
10.7,32002.2,35044.4,0.0048,0.1094,148.0,96.9,0.523
10.72,31933.4,35041.7,-0.3389,0.1028,148.0,96.9,0.523
10.74,32079.4,34847.3,0.39,-0.3752,148.0,96.9,0.523
10.76,31824.6,34671.2,-0.8824,-0.8083,148.0,96.9,0.523
10.78,31784.3,34680.6,-1.0837,-0.7853,148.0,96.9,0.523
10.8,31858.4,34689.0,-0.7136,-0.7647,148.0,96.9,0.523
10.82,31853.5,34683.4,-0.7384,-0.7783,148.0,96.9,0.523
10.84,31800.4,34652.1,-1.0034,-0.8552,148.0,96.9,0.523
10.86,31835.5,34501.7,-0.8283,-1.2252,148.0,96.9,0.523
10.88,31754.8,34478.3,-1.2315,-1.2828,148.0,96.9,0.523
10.9,31749.2,34514.4,-1.2592,-1.1939,148.0,96.9,0.523
10.92,31914.5,34743.5,-0.4333,-0.6307,148.0,96.9,0.523
10.94,32072.7,35008.7,0.3568,0.0216,148.0,96.9,0.523
10.96,32121.8,35529.6,0.6018,1.3026,148.0,96.9,0.523
10.98,32247.5,35756.7,1.2297,1.8612,148.0,96.9,0.523
11.0,32374.3,35759.3,1.8635,1.8676,148.0,96.9,0.523
11.02,32338.3,35580.1,1.6833,1.4267,148.0,96.9,0.523
11.04,32115.7,35374.7,0.5715,0.9217,148.0,96.9,0.523
11.06,32182.8,35244.0,0.9065,0.6003,148.0,96.9,0.523
11.08,32156.1,35235.5,0.7734,0.5792,148.0,96.9,0.523
11.1,32039.5,35006.5,0.1909,0.0161,148.0,96.9,0.523
11.12,32065.8,35070.1,0.3221,0.1726,148.0,96.9,0.523
11.14,31954.9,34948.5,-0.2315,-0.1265,148.0,96.9,0.523
11.16,31851.7,34871.3,-0.7472,-0.3163,148.0,96.9,0.523
11.18,31928.4,34729.3,-0.3639,-0.6654,148.0,96.9,0.523
11.2,31874.6,34726.6,-0.633,-0.6722,148.0,96.9,0.523
11.22,31923.4,34671.2,-0.3889,-0.8082,148.0,96.9,0.523
11.24,31782.8,34598.1,-1.0916,-0.9883,148.0,96.9,0.523
11.26,31780.3,34504.3,-1.1037,-1.2187,148.0,96.9,0.523
11.28,31721.9,34519.9,-1.3954,-1.1804,148.0,96.9,0.523
11.3,31752.5,34461.0,-1.2426,-1.3252,148.0,96.9,0.523
11.32,31884.2,34646.9,-0.5847,-0.8681,148.0,96.9,0.523
11.34,32038.6,34939.9,0.1865,-0.1475,148.0,96.9,0.523
11.36,32184.9,35408.3,0.917,1.0043,148.0,96.9,0.523
11.38,32282.1,35745.6,1.4026,1.8337,148.0,96.9,0.523
11.4,32386.2,35802.9,1.9227,1.9747,148.0,96.9,0.523
11.42,32327.2,35625.8,1.628,1.5391,148.0,96.9,0.523
11.44,32286.6,35379.6,1.4254,0.9337,148.0,96.9,0.523
11.46,32085.9,35290.7,0.4228,0.7152,148.0,96.9,0.523
11.48,32148.5,35170.1,0.7352,0.4185,148.0,96.9,0.523
11.5,31974.9,35135.3,-0.132,0.333,148.0,96.9,0.523
11.52,31975.3,35067.5,-0.1299,0.1662,148.0,96.9,0.523
11.54,31900.6,34923.8,-0.5032,-0.1873,148.0,96.9,0.523
11.56,31983.2,34861.9,-0.0905,-0.3395,148.0,96.9,0.523
11.58,31767.4,34823.5,-1.1685,-0.4338,148.0,96.9,0.523
11.6,31815.2,34704.9,-0.9294,-0.7255,148.0,96.9,0.523
11.62,31839.1,34671.9,-0.8102,-0.8066,148.0,96.9,0.523
11.64,31818.3,34710.7,-0.9139,-0.7112,148.0,96.9,0.523
11.66,31870.7,34627.9,-0.6522,-0.9147,148.0,96.9,0.523
11.68,31714.3,34503.4,-1.4337,-1.221,148.0,96.9,0.523
11.7,31668.8,34459.9,-1.6608,-1.328,148.0,96.9,0.523
11.72,31845.0,34574.2,-0.7809,-1.0469,148.0,96.9,0.523
11.74,31861.9,34852.0,-0.6962,-0.3637,148.0,96.9,0.523
11.76,32102.0,35324.6,0.5029,0.7985,148.0,96.9,0.523
11.78,32197.4,35491.2,0.9799,1.2082,148.0,96.9,0.523
11.8,32418.4,35774.3,2.0834,1.9045,148.0,96.9,0.523
11.82,32322.8,35660.6,1.6059,1.6247,148.0,96.9,0.523
11.84,32265.4,35620.4,1.3194,1.526,148.0,96.9,0.523
11.86,32119.6,35403.0,0.5912,0.9913,148.0,96.9,0.523
11.88,32077.9,35149.9,0.3826,0.3688,148.0,96.9,0.523
11.9,32084.5,35179.1,0.4158,0.4406,148.0,96.9,0.523
11.92,32111.0,35092.4,0.5481,0.2275,148.0,96.9,0.523
11.94,32026.4,34977.8,0.1253,-0.0544,148.0,96.9,0.523
11.96,32000.7,34928.0,-0.0028,-0.1768,148.0,96.9,0.523
11.98,31829.7,34716.8,-0.8569,-0.6962,148.0,96.9,0.523
12.0,31814.6,34680.7,-0.9324,-0.7851,148.0,96.9,0.523
12.02,31859.5,34641.1,-0.7083,-0.8823,148.0,96.9,0.523
12.04,31847.7,34637.8,-0.767,-0.8906,148.0,96.9,0.523
12.06,31925.9,34536.0,-0.3765,-1.1408,148.0,96.9,0.523
12.08,31687.9,34529.9,-1.5657,-1.1559,148.0,96.9,0.523
12.1,31750.1,34378.3,-1.2548,-1.5286,148.0,96.9,0.523
12.12,31776.3,34567.3,-1.124,-1.064,148.0,96.9,0.523
12.14,31898.5,34834.9,-0.5133,-0.4058,148.0,96.9,0.523
12.16,31992.5,35142.5,-0.0437,0.3505,148.0,96.9,0.523
12.18,32232.2,35509.6,1.1536,1.2534,148.0,96.9,0.523
12.2,32354.8,35725.4,1.7661,1.7842,148.0,96.9,0.523
12.22,32263.1,35744.4,1.3078,1.8308,148.0,96.9,0.523
12.24,32259.7,35638.5,1.2907,1.5703,148.0,96.9,0.523
12.26,32120.3,35316.8,0.5945,0.7794,148.0,96.9,0.523
12.28,32080.5,35209.4,0.3958,0.5152,148.0,96.9,0.523
12.3,31965.5,35141.6,-0.1788,0.3484,148.0,96.9,0.523
12.32,31996.1,35012.8,-0.0259,0.0318,148.0,96.9,0.523
12.34,32051.0,35032.4,0.2485,0.08,148.0,96.9,0.523
12.36,31929.5,34926.4,-0.3586,-0.1808,148.0,96.9,0.523
12.38,31975.4,34749.9,-0.1294,-0.6149,148.0,96.9,0.523
12.4,31969.8,34754.6,-0.1575,-0.6033,148.0,96.9,0.523
12.42,31804.0,34750.3,-0.9855,-0.6139,148.0,96.9,0.523
12.44,31903.8,34724.8,-0.4869,-0.6767,148.0,96.9,0.523
12.46,31854.3,34566.0,-0.7344,-1.0672,148.0,96.9,0.523
12.48,31781.6,34505.6,-1.0975,-1.2156,148.0,96.9,0.523
12.5,31682.8,34398.8,-1.5907,-1.4784,148.0,96.9,0.523
12.52,31790.9,34551.6,-1.0508,-1.1024,148.0,96.9,0.523
12.54,31825.8,34651.0,-0.8766,-0.8582,148.0,96.9,0.523
12.56,31988.3,35023.0,-0.0649,0.0569,148.0,96.9,0.523
12.58,32243.1,35502.7,1.2077,1.2364,148.0,96.9,0.523
12.6,32399.9,35717.5,1.9911,1.7646,148.0,96.9,0.523
12.62,32327.4,35802.1,1.6291,1.9726,148.0,96.9,0.523
12.64,32275.9,35605.1,1.3717,1.4882,148.0,96.9,0.523
12.66,32138.1,35431.3,0.6834,1.0609,148.0,96.9,0.523
12.68,32078.7,35313.2,0.3866,0.7703,148.0,96.9,0.523
12.7,32059.8,35121.6,0.2924,0.2993,148.0,96.9,0.523
12.72,31980.2,35106.2,-0.1052,0.2615,148.0,96.9,0.523
12.74,31966.2,35004.2,-0.1754,0.0107,148.0,96.9,0.523
12.76,31916.7,35010.6,-0.4227,0.0262,148.0,96.9,0.523
12.78,31854.5,34897.8,-0.7331,-0.251,148.0,96.9,0.523
12.8,31889.3,34585.3,-0.5594,-1.0197,148.0,96.9,0.523
12.82,31872.1,34657.8,-0.6452,-0.8414,148.0,96.9,0.523
12.84,31781.1,34570.6,-1.0999,-1.0558,148.0,96.9,0.523
12.86,31891.5,34599.3,-0.5484,-0.9852,148.0,96.9,0.523
12.88,31737.6,34513.2,-1.3174,-1.1969,148.0,96.9,0.523
12.9,31795.3,34522.4,-1.0291,-1.1743,148.0,96.9,0.523
12.92,31749.6,34502.7,-1.2574,-1.2227,148.0,96.9,0.523
12.94,31772.3,34568.5,-1.1441,-1.0609,148.0,96.9,0.523
12.96,31974.8,34958.9,-0.1324,-0.1008,148.0,96.9,0.523
12.98,32106.3,35394.3,0.5247,0.9699,148.0,96.9,0.523
13.0,32290.9,35722.1,1.4465,1.7761,148.0,96.9,0.523
13.02,32378.3,35706.8,1.8831,1.7384,148.0,96.9,0.523
13.04,32379.2,35681.6,1.8877,1.6764,148.0,96.9,0.523
13.06,32230.8,35488.0,1.1465,1.2003,148.0,96.9,0.523
13.08,32185.5,35347.1,0.9204,0.8539,148.0,96.9,0.523
13.1,32100.0,35194.7,0.4932,0.479,148.0,96.9,0.523
13.12,32057.4,35065.3,0.2802,0.1609,148.0,96.9,0.523
13.14,32051.9,35024.4,0.2529,0.0602,148.0,96.9,0.523
13.16,32064.4,35003.3,0.3151,0.0082,148.0,96.9,0.523
13.18,31951.9,34820.3,-0.2467,-0.4418,148.0,96.9,0.523
13.2,31959.5,34829.9,-0.2088,-0.4181,148.0,96.9,0.523
13.22,31766.0,34645.2,-1.1752,-0.8723,148.0,96.9,0.523
13.24,31875.8,34585.5,-0.6267,-1.0192,148.0,96.9,0.523
13.26,31849.3,34532.7,-0.7591,-1.1491,148.0,96.9,0.523
13.28,31874.5,34603.0,-0.6331,-0.9761,148.0,96.9,0.523
13.3,31694.9,34567.2,-1.5306,-1.0642,148.0,96.9,0.523
13.32,31742.2,34328.3,-1.2944,-1.6516,148.0,96.9,0.523
13.34,31844.3,34559.7,-0.7843,-1.0826,148.0,96.9,0.523
13.36,31881.6,34895.0,-0.5981,-0.2579,148.0,96.9,0.523
13.38,32141.7,35218.3,0.7016,0.5371,148.0,96.9,0.523
13.4,32313.4,35550.1,1.5593,1.353,148.0,96.9,0.523
13.42,32359.1,35754.5,1.7872,1.8557,148.0,96.9,0.523
13.44,32363.6,35665.2,1.8096,1.6361,148.0,96.9,0.523
13.46,32240.1,35564.6,1.1927,1.3886,148.0,96.9,0.523
13.48,32179.7,35416.1,0.891,1.0235,148.0,96.9,0.523
13.5,32079.0,35196.6,0.3883,0.4837,148.0,96.9,0.523
13.52,32088.1,35167.8,0.4336,0.4128,148.0,96.9,0.523
13.54,31916.2,35143.4,-0.425,0.3529,148.0,96.9,0.523
13.56,31990.2,34895.6,-0.0551,-0.2565,148.0,96.9,0.523
13.58,31897.8,34863.3,-0.5167,-0.336,148.0,96.9,0.523
13.6,31848.1,34806.1,-0.7653,-0.4765,148.0,96.9,0.523
13.62,31847.6,34719.2,-0.7676,-0.6903,148.0,96.9,0.523
13.64,31811.9,34568.8,-0.946,-1.0601,148.0,96.9,0.523
13.66,31904.0,34631.2,-0.4859,-0.9067,148.0,96.9,0.523
13.68,31773.3,34580.6,-1.1389,-1.0312,148.0,96.9,0.523
13.7,31725.8,34509.9,-1.3763,-1.205,148.0,96.9,0.523
13.72,31774.5,34369.3,-1.1327,-1.5508,148.0,96.9,0.523
13.74,31719.7,34505.9,-1.4065,-1.215,148.0,96.9,0.523
13.76,31933.7,34808.3,-0.3377,-0.4712,148.0,96.9,0.523
13.78,32019.0,35096.4,0.0887,0.2372,148.0,96.9,0.523
13.8,32257.3,35472.9,1.2788,1.1632,148.0,96.9,0.523
13.82,32396.0,35757.7,1.9718,1.8635,148.0,96.9,0.523
13.84,32384.0,35698.1,1.9118,1.717,148.0,96.9,0.523
13.86,32265.9,35611.9,1.3216,1.505,148.0,96.9,0.523
13.88,32184.4,35367.1,0.9145,0.9031,148.0,96.9,0.523
13.9,32112.7,35160.1,0.5566,0.3939,148.0,96.9,0.523
13.92,32002.6,35164.1,0.0066,0.4038,148.0,96.9,0.523
13.94,31968.0,35062.4,-0.1661,0.1537,148.0,96.9,0.523
13.96,31999.5,34921.4,-0.009,-0.193,148.0,96.9,0.523
13.98,32000.2,34946.5,-0.0055,-0.1312,148.0,96.9,0.523
14.0,31832.6,34749.2,-0.8427,-0.6165,148.0,96.9,0.523
14.02,31895.7,34688.8,-0.5276,-0.7651,148.0,96.9,0.523
14.04,31706.1,34556.2,-1.4745,-1.0912,148.0,96.9,0.523
14.06,31828.5,34636.9,-0.863,-0.8927,148.0,96.9,0.523
14.08,31953.8,34707.1,-0.2373,-0.72,148.0,96.9,0.523
14.1,31808.9,34485.7,-0.9608,-1.2645,148.0,96.9,0.523
14.12,31757.9,34399.9,-1.2158,-1.4757,148.0,96.9,0.523
14.14,31830.8,34563.6,-0.8517,-1.073,148.0,96.9,0.523
14.16,31857.4,34696.9,-0.7187,-0.745,148.0,96.9,0.523
14.18,31959.9,35078.3,-0.2069,0.1928,148.0,96.9,0.523
14.2,32223.1,35415.9,1.1079,1.023,148.0,96.9,0.523
14.22,32351.1,35773.0,1.7474,1.9012,148.0,96.9,0.523
14.24,32366.9,35676.5,1.8265,1.6639,148.0,96.9,0.523
14.26,32298.9,35666.1,1.4869,1.6384,148.0,96.9,0.523
14.28,32283.8,35457.7,1.4114,1.1258,148.0,96.9,0.523
14.3,32157.9,35227.2,0.7822,0.559,148.0,96.9,0.523
14.32,32022.9,35183.3,0.1082,0.451,148.0,96.9,0.523
14.34,32063.7,35062.1,0.3117,0.1528,148.0,96.9,0.523
14.36,32008.3,35014.5,0.0352,0.0359,148.0,96.9,0.523
14.38,32019.0,34923.1,0.0887,-0.1888,148.0,96.9,0.523
14.4,31877.2,34817.2,-0.62,-0.4493,148.0,96.9,0.523
14.42,31889.6,34716.0,-0.5579,-0.6982,148.0,96.9,0.523
14.44,31896.7,34606.2,-0.5222,-0.9682,148.0,96.9,0.523
14.46,31766.2,34760.4,-1.1741,-0.589,148.0,96.9,0.523
14.48,31786.4,34727.3,-1.0736,-0.6704,148.0,96.9,0.523
14.5,31738.3,34575.4,-1.3136,-1.044,148.0,96.9,0.523
14.52,31731.6,34462.3,-1.3469,-1.3221,148.0,96.9,0.523
14.54,31723.8,34432.2,-1.3863,-1.3962,148.0,96.9,0.523
14.56,31841.3,34550.1,-0.7992,-1.1062,148.0,96.9,0.523
14.58,31947.2,34897.0,-0.2703,-0.2532,148.0,96.9,0.523
14.6,32164.0,35417.5,0.8129,1.027,148.0,96.9,0.523
14.62,32340.7,35651.8,1.6955,1.6031,148.0,96.9,0.523
14.64,32348.1,35821.6,1.7322,2.0208,148.0,96.9,0.523
14.66,32330.1,35711.3,1.6427,1.7495,148.0,96.9,0.523
14.68,32214.6,35539.1,1.0657,1.3259,148.0,96.9,0.523
14.7,32116.3,35251.0,0.5746,0.6176,148.0,96.9,0.523
14.72,32135.2,35120.8,0.6689,0.2972,148.0,96.9,0.523
14.74,32121.3,35126.8,0.5995,0.3122,148.0,96.9,0.523
14.76,32050.7,35020.0,0.2467,0.0495,148.0,96.9,0.523
14.78,31961.6,34988.1,-0.1981,-0.0291,148.0,96.9,0.523
14.8,31890.4,34779.8,-0.5541,-0.5414,148.0,96.9,0.523
14.82,31860.2,34820.6,-0.7049,-0.4409,148.0,96.9,0.523
14.84,31795.0,34663.8,-1.0304,-0.8266,148.0,96.9,0.523
14.86,31887.5,34600.2,-0.5683,-0.983,148.0,96.9,0.523
14.88,31895.3,34656.3,-0.5294,-0.845,148.0,96.9,0.523
14.9,31710.1,34555.9,-1.4545,-1.0919,148.0,96.9,0.523
14.92,31740.8,34509.5,-1.3012,-1.206,148.0,96.9,0.523
14.94,31748.9,34413.5,-1.2607,-1.4421,148.0,96.9,0.523
14.96,31866.3,34566.3,-0.6743,-1.0662,148.0,96.9,0.523
14.98,31850.7,34800.7,-0.7522,-0.4899,148.0,96.9,0.523
15.0,32093.1,35184.0,0.4585,0.4528,148.0,96.9,0.523
15.02,32238.6,35601.6,1.1856,1.4798,148.0,96.9,0.523
15.04,32374.4,35767.5,1.8637,1.8877,148.0,96.9,0.523
15.06,32230.4,35873.3,1.1443,2.1477,148.0,96.9,0.523
15.08,32169.8,35528.9,0.8417,1.301,148.0,96.9,0.523
15.1,32147.4,35331.9,0.73,0.8164,148.0,96.9,0.523
15.12,32096.4,35185.6,0.4753,0.4566,148.0,96.9,0.523
15.14,32089.5,35127.3,0.4406,0.3134,148.0,96.9,0.523
15.16,32015.0,35136.5,0.0683,0.3358,148.0,96.9,0.523
15.18,32039.5,34998.9,0.191,-0.0024,148.0,96.9,0.523
15.2,31916.3,34910.5,-0.4246,-0.22,148.0,96.9,0.523
15.22,31933.0,34784.7,-0.3409,-0.5292,148.0,96.9,0.523
15.24,31804.8,34684.5,-0.9814,-0.7756,148.0,96.9,0.523
15.26,31854.2,34694.2,-0.7345,-0.7519,148.0,96.9,0.523
15.28,31824.4,34767.7,-0.8838,-0.571,148.0,96.9,0.523
15.3,31788.9,34659.8,-1.0607,-0.8365,148.0,96.9,0.523
15.32,31755.5,34500.4,-1.2277,-1.2284,148.0,96.9,0.523
15.34,31693.0,34461.6,-1.5402,-1.3239,148.0,96.9,0.523
15.36,31819.6,34606.9,-0.9075,-0.9665,148.0,96.9,0.523
15.38,31901.6,34712.2,-0.4981,-0.7075,148.0,96.9,0.523
15.4,32083.0,35075.4,0.4082,0.1856,148.0,96.9,0.523
15.42,32210.4,35383.8,1.0446,0.9441,148.0,96.9,0.523
15.44,32379.4,35741.2,1.8886,1.8231,148.0,96.9,0.523
15.46,32362.0,35702.2,1.8017,1.727,148.0,96.9,0.523
15.48,32274.5,35665.6,1.3645,1.6371,148.0,96.9,0.523
15.5,32152.3,35477.5,0.7544,1.1745,148.0,96.9,0.523
15.52,32003.2,35137.7,0.0097,0.3387,148.0,96.9,0.523
15.54,32063.9,35173.1,0.3127,0.426,148.0,96.9,0.523
15.56,31992.7,35048.1,-0.043,0.1186,148.0,96.9,0.523
15.58,32022.5,35021.1,0.1061,0.0522,148.0,96.9,0.523
15.6,31845.4,34890.8,-0.7786,-0.2683,148.0,96.9,0.523
15.62,31924.4,34838.6,-0.384,-0.3967,148.0,96.9,0.523
15.64,31770.7,34690.6,-1.152,-0.7607,148.0,96.9,0.523
15.66,31843.6,34646.4,-0.7876,-0.8694,148.0,96.9,0.523
15.68,31769.7,34615.7,-1.1567,-0.9448,148.0,96.9,0.523
15.7,31883.9,34667.5,-0.5864,-0.8176,148.0,96.9,0.523
15.72,31796.8,34594.8,-1.0213,-0.9963,148.0,96.9,0.523
15.74,31760.9,34412.7,-1.2006,-1.4441,148.0,96.9,0.523
15.76,31853.3,34447.8,-0.7393,-1.3578,148.0,96.9,0.523
15.78,31815.6,34632.8,-0.9275,-0.9028,148.0,96.9,0.523
15.8,31998.5,35058.3,-0.0138,0.1437,148.0,96.9,0.523
15.82,32081.4,35389.9,0.4002,0.959,148.0,96.9,0.523
15.84,32265.6,35621.4,1.3202,1.5283,148.0,96.9,0.523
15.86,32335.0,35716.1,1.6672,1.7613,148.0,96.9,0.523
15.88,32342.3,35690.8,1.7034,1.699,148.0,96.9,0.523
15.9,32251.5,35425.5,1.2499,1.0466,148.0,96.9,0.523
15.92,32196.3,35311.8,0.9743,0.767,148.0,96.9,0.523
15.94,32046.1,35110.0,0.2238,0.2706,148.0,96.9,0.523
15.96,32029.3,35185.4,0.14,0.4561,148.0,96.9,0.523
15.98,32084.0,35076.6,0.4131,0.1885,148.0,96.9,0.523
16.0,31935.8,34844.0,-0.3271,-0.3834,148.0,96.9,0.523
16.02,31892.5,34847.2,-0.5436,-0.3755,148.0,96.9,0.523
16.04,31908.8,34719.9,-0.4622,-0.6886,148.0,96.9,0.523
16.06,31897.0,34640.3,-0.5209,-0.8842,148.0,96.9,0.523
16.08,31788.8,34689.4,-1.0612,-0.7636,148.0,96.9,0.523
16.1,31736.2,34709.9,-1.3242,-0.7133,148.0,96.9,0.523
16.12,31811.4,34589.1,-0.9488,-1.0104,148.0,96.9,0.523
16.14,31689.0,34446.6,-1.5599,-1.3606,148.0,96.9,0.523
16.16,31721.5,34474.8,-1.3975,-1.2913,148.0,96.9,0.523
16.18,31804.0,34624.4,-0.9854,-0.9234,148.0,96.9,0.523
16.2,31966.7,34901.2,-0.173,-0.2429,148.0,96.9,0.523
16.22,32194.2,35274.7,0.9638,0.6758,148.0,96.9,0.523
16.24,32212.7,35594.0,1.0559,1.4611,148.0,96.9,0.523
16.26,32329.3,35772.0,1.6384,1.8988,148.0,96.9,0.523
16.28,32226.8,35749.2,1.1265,1.8428,148.0,96.9,0.523
16.3,32288.3,35540.5,1.4335,1.3293,148.0,96.9,0.523
16.32,32108.8,35195.8,0.5371,0.4817,148.0,96.9,0.523
16.34,32053.7,35115.7,0.262,0.2846,148.0,96.9,0.523
16.36,32069.7,35129.7,0.3415,0.3192,148.0,96.9,0.523
16.38,32031.1,34978.3,0.1491,-0.0531,148.0,96.9,0.523
16.4,32057.6,34910.6,0.2814,-0.2197,148.0,96.9,0.523
16.42,31964.7,34846.9,-0.1826,-0.3763,148.0,96.9,0.523
16.44,31897.4,34730.3,-0.5187,-0.6631,148.0,96.9,0.523
16.46,31901.0,34651.2,-0.5011,-0.8576,148.0,96.9,0.523
16.48,31812.6,34569.4,-0.9426,-1.0587,148.0,96.9,0.523
16.5,31886.5,34646.3,-0.5736,-0.8696,148.0,96.9,0.523
16.52,31847.3,34597.7,-0.7691,-0.9892,148.0,96.9,0.523
16.54,31706.3,34467.0,-1.4735,-1.3106,148.0,96.9,0.523
16.56,31722.6,34545.3,-1.3923,-1.1179,148.0,96.9,0.523
16.58,31689.4,34481.1,-1.5579,-1.2759,148.0,96.9,0.523
16.6,32008.8,34823.7,0.0376,-0.4334,148.0,96.9,0.523
16.62,32066.7,35205.1,0.3266,0.5046,148.0,96.9,0.523
16.64,32205.1,35503.7,1.0181,1.2389,148.0,96.9,0.523
16.66,32246.5,35766.1,1.2251,1.8842,148.0,96.9,0.523
16.68,32347.2,35686.2,1.7278,1.6877,148.0,96.9,0.523
16.7,32246.8,35524.0,1.2265,1.2888,148.0,96.9,0.523
16.72,32224.2,35393.8,1.1137,0.9687,148.0,96.9,0.523
16.74,32014.9,35182.0,0.0679,0.4477,148.0,96.9,0.523
16.76,32138.5,35125.9,0.6853,0.3098,148.0,96.9,0.523
16.78,32088.3,34997.7,0.4348,-0.0054,148.0,96.9,0.523
16.8,32018.4,34978.5,0.0855,-0.0527,148.0,96.9,0.523
16.82,31984.0,34919.6,-0.0864,-0.1976,148.0,96.9,0.523
16.84,31930.7,34755.2,-0.3526,-0.6018,148.0,96.9,0.523
16.86,31907.7,34750.3,-0.4675,-0.6138,148.0,96.9,0.523
16.88,31944.2,34657.2,-0.2851,-0.8427,148.0,96.9,0.523
16.9,31839.4,34673.3,-0.8086,-0.8031,148.0,96.9,0.523
16.92,31874.0,34646.3,-0.6357,-0.8697,148.0,96.9,0.523
16.94,31776.4,34495.2,-1.1233,-1.2412,148.0,96.9,0.523
16.96,31658.9,34544.3,-1.7104,-1.1205,148.0,96.9,0.523
16.98,31726.6,34495.8,-1.3722,-1.2398,148.0,96.9,0.523
17.0,31829.9,34805.4,-0.8562,-0.4783,148.0,96.9,0.523
17.02,32100.5,35034.3,0.4953,0.0847,148.0,96.9,0.523
17.04,32185.3,35432.5,0.919,1.0637,148.0,96.9,0.523
17.06,32413.9,35620.6,2.0611,1.5264,148.0,96.9,0.523
17.08,32349.5,35866.3,1.7394,2.1306,148.0,96.9,0.523
17.1,32279.8,35560.5,1.3912,1.3785,148.0,96.9,0.523
17.12,32256.0,35501.9,1.2726,1.2346,148.0,96.9,0.523
17.14,32163.0,35242.4,0.8078,0.5964,148.0,96.9,0.523
17.16,32091.1,35142.1,0.4489,0.3497,148.0,96.9,0.523
17.18,32054.7,35086.3,0.2669,0.2125,148.0,96.9,0.523
17.2,32002.8,35052.0,0.0078,0.1281,148.0,96.9,0.523
17.22,31960.7,34951.8,-0.2025,-0.1183,148.0,96.9,0.523
17.24,31870.9,34683.7,-0.6513,-0.7777,148.0,96.9,0.523
17.26,31817.1,34748.9,-0.9201,-0.6172,148.0,96.9,0.523
17.28,31882.6,34622.0,-0.5931,-0.9294,148.0,96.9,0.523
17.3,31777.1,34636.8,-1.1196,-0.893,148.0,96.9,0.523
17.32,31920.4,34646.4,-0.4043,-0.8693,148.0,96.9,0.523
17.34,31806.4,34573.3,-0.9733,-1.0492,148.0,96.9,0.523
17.36,31716.3,34450.6,-1.4235,-1.3508,148.0,96.9,0.523
17.38,31748.7,34490.7,-1.2619,-1.2522,148.0,96.9,0.523
17.4,31854.3,34719.1,-0.7341,-0.6907,148.0,96.9,0.523
17.42,31971.5,34994.6,-0.1487,-0.0131,148.0,96.9,0.523
17.44,32197.2,35366.2,0.9784,0.9009,148.0,96.9,0.523
17.46,32342.6,35707.1,1.7051,1.7391,148.0,96.9,0.523
17.48,32303.1,35692.8,1.5078,1.704,148.0,96.9,0.523
17.5,32265.0,35630.3,1.3172,1.5503,148.0,96.9,0.523
17.52,32354.4,35480.3,1.7637,1.1814,148.0,96.9,0.523
17.54,32177.8,35330.1,0.8816,0.8121,148.0,96.9,0.523
17.56,32102.0,35139.4,0.5029,0.3431,148.0,96.9,0.523
17.58,31961.6,35130.8,-0.1982,0.3219,148.0,96.9,0.523
17.6,31958.8,35080.4,-0.2121,0.1979,148.0,96.9,0.523
17.62,32040.2,34983.6,0.1943,-0.0402,148.0,96.9,0.523
17.64,31880.1,34798.4,-0.6052,-0.4956,148.0,96.9,0.523
17.66,31897.9,34757.0,-0.5164,-0.5973,148.0,96.9,0.523
17.68,31858.1,34689.0,-0.7151,-0.7647,148.0,96.9,0.523
17.7,31756.9,34631.6,-1.2207,-0.9058,148.0,96.9,0.523
17.72,31852.9,34699.5,-0.7413,-0.7389,148.0,96.9,0.523
17.74,31826.8,34546.1,-0.8718,-1.1159,148.0,96.9,0.523
17.76,31703.6,34519.7,-1.487,-1.1808,148.0,96.9,0.523
17.78,31746.5,34437.0,-1.2728,-1.3842,148.0,96.9,0.523
17.8,31851.3,34599.9,-0.7491,-0.9836,148.0,96.9,0.523
17.82,31933.5,34903.8,-0.3384,-0.2365,148.0,96.9,0.523
17.84,32171.1,35299.8,0.848,0.7376,148.0,96.9,0.523
17.86,32213.2,35537.1,1.0584,1.3212,148.0,96.9,0.523
17.88,32418.8,35749.0,2.0854,1.8422,148.0,96.9,0.523
17.9,32262.3,35689.1,1.3038,1.6949,148.0,96.9,0.523
17.92,32313.8,35519.1,1.5611,1.2768,148.0,96.9,0.523
17.94,32129.0,35299.6,0.638,0.7369,148.0,96.9,0.523
17.96,32101.7,35121.4,0.5015,0.2987,148.0,96.9,0.523
17.98,32099.5,35032.9,0.4905,0.0811,148.0,96.9,0.523
18.0,31974.7,35092.3,-0.133,0.2273,148.0,96.9,0.523
18.02,32013.4,35065.9,0.0607,0.1622,148.0,96.9,0.523
18.04,31906.0,34911.7,-0.476,-0.217,148.0,96.9,0.523
18.06,31878.5,34753.3,-0.6135,-0.6065,148.0,96.9,0.523
18.08,31842.9,34719.5,-0.7912,-0.6895,148.0,96.9,0.523
18.1,31765.5,34657.9,-1.1779,-0.8411,148.0,96.9,0.523
18.12,31846.6,34766.3,-0.7725,-0.5746,148.0,96.9,0.523
18.14,31868.9,34591.0,-0.6611,-1.0056,148.0,96.9,0.523
18.16,31724.3,34515.7,-1.3837,-1.1907,148.0,96.9,0.523
18.18,31711.8,34483.9,-1.4459,-1.269,148.0,96.9,0.523
18.2,31882.7,34497.2,-0.5926,-1.2362,148.0,96.9,0.523
18.22,31870.9,34871.7,-0.6512,-0.3152,148.0,96.9,0.523
18.24,32026.2,35168.5,0.1246,0.4147,148.0,96.9,0.523
18.26,32344.8,35456.2,1.7159,1.1221,148.0,96.9,0.523
18.28,32297.0,35738.2,1.4773,1.8155,148.0,96.9,0.523
18.3,32386.5,35632.1,1.9243,1.5547,148.0,96.9,0.523
18.32,32272.8,35531.9,1.3562,1.3083,148.0,96.9,0.523
18.34,32177.1,35397.7,0.8781,0.9782,148.0,96.9,0.523
18.36,32073.7,35143.8,0.3619,0.3539,148.0,96.9,0.523
18.38,31981.3,35195.0,-0.0996,0.4799,148.0,96.9,0.523
18.4,32123.3,35094.5,0.6094,0.2325,148.0,96.9,0.523
18.42,31989.2,34960.7,-0.0602,-0.0963,148.0,96.9,0.523
18.44,32002.0,34837.5,0.0036,-0.3993,148.0,96.9,0.523
18.46,31884.1,34804.0,-0.5852,-0.4818,148.0,96.9,0.523
18.48,31838.9,34738.9,-0.8112,-0.6419,148.0,96.9,0.523
18.5,31946.5,34635.7,-0.2737,-0.8958,148.0,96.9,0.523
18.52,31874.9,34680.0,-0.6314,-0.7868,148.0,96.9,0.523
18.54,31810.1,34621.1,-0.9552,-0.9316,148.0,96.9,0.523
18.56,31848.9,34447.7,-0.7614,-1.358,148.0,96.9,0.523
18.58,31708.9,34491.6,-1.4604,-1.2502,148.0,96.9,0.523
18.6,31746.5,34392.1,-1.2726,-1.4948,148.0,96.9,0.523
18.62,31878.4,34693.7,-0.614,-0.753,148.0,96.9,0.523
18.64,32014.1,35023.7,0.0641,0.0585,148.0,96.9,0.523
18.66,32209.9,35345.6,1.0422,0.85,148.0,96.9,0.523
18.68,32278.7,35774.0,1.3857,1.9036,148.0,96.9,0.523
18.7,32357.7,35688.5,1.7802,1.6933,148.0,96.9,0.523
18.72,32237.5,35610.5,1.1802,1.5015,148.0,96.9,0.523
18.74,32219.3,35387.2,1.0892,0.9524,148.0,96.9,0.523
18.76,32140.9,35238.5,0.6974,0.5868,148.0,96.9,0.523
18.78,32181.8,35220.6,0.9018,0.5428,148.0,96.9,0.523
18.8,32113.9,34988.3,0.5623,-0.0286,148.0,96.9,0.523
18.82,32045.7,35080.6,0.2219,0.1983,148.0,96.9,0.523
18.84,31957.3,34974.4,-0.2198,-0.0629,148.0,96.9,0.523
18.86,31917.7,34807.1,-0.4174,-0.4741,148.0,96.9,0.523
18.88,31882.9,34663.1,-0.5912,-0.8282,148.0,96.9,0.523
18.9,31871.6,34731.0,-0.648,-0.6613,148.0,96.9,0.523
18.92,31800.0,34663.2,-1.0057,-0.828,148.0,96.9,0.523
18.94,31834.8,34573.3,-0.8318,-1.0492,148.0,96.9,0.523
18.96,31785.2,34579.6,-1.0796,-1.0336,148.0,96.9,0.523
18.98,31686.7,34478.8,-1.5716,-1.2816,148.0,96.9,0.523
19.0,31724.2,34455.5,-1.384,-1.3389,148.0,96.9,0.523
19.02,31815.5,34640.3,-0.928,-0.8844,148.0,96.9,0.523
19.04,31841.0,34894.4,-0.8009,-0.2594,148.0,96.9,0.523
19.06,32165.2,35421.7,0.8185,1.0373,148.0,96.9,0.523
19.08,32310.0,35610.7,1.5419,1.5022,148.0,96.9,0.523
19.1,32446.3,35620.0,2.2228,1.525,148.0,96.9,0.523
19.12,32332.3,35684.9,1.6533,1.6844,148.0,96.9,0.523
19.14,32257.5,35476.8,1.2796,1.1727,148.0,96.9,0.523
19.16,32153.6,35278.3,0.761,0.6846,148.0,96.9,0.523
19.18,32181.9,35258.2,0.9023,0.6351,148.0,96.9,0.523
19.2,32025.4,35115.1,0.1205,0.2833,148.0,96.9,0.523
19.22,32040.4,34967.5,0.1954,-0.0798,148.0,96.9,0.523
19.24,32019.1,34950.5,0.089,-0.1214,148.0,96.9,0.523
19.26,31872.4,34842.5,-0.6441,-0.3872,148.0,96.9,0.523
19.28,31873.5,34749.6,-0.6382,-0.6155,148.0,96.9,0.523
19.3,31838.0,34694.9,-0.8157,-0.7501,148.0,96.9,0.523
19.32,31887.2,34710.8,-0.5701,-0.7111,148.0,96.9,0.523
19.34,31841.4,34621.1,-0.7985,-0.9316,148.0,96.9,0.523
19.36,31689.3,34546.4,-1.5587,-1.1152,148.0,96.9,0.523
19.38,31761.8,34495.1,-1.1964,-1.2414,148.0,96.9,0.523
19.4,31730.7,34420.1,-1.3519,-1.426,148.0,96.9,0.523
19.42,31738.1,34537.9,-1.3148,-1.1362,148.0,96.9,0.523
19.44,31893.9,34874.2,-0.5365,-0.3092,148.0,96.9,0.523
19.46,32016.0,35306.7,0.0737,0.7544,148.0,96.9,0.523
19.48,32351.0,35554.8,1.7468,1.3646,148.0,96.9,0.523
19.5,32481.7,35777.8,2.3998,1.9129,148.0,96.9,0.523
19.52,32455.9,35688.5,2.2708,1.6934,148.0,96.9,0.523
19.54,32182.8,35574.4,0.9068,1.4128,148.0,96.9,0.523
19.56,32080.1,35404.5,0.3935,0.995,148.0,96.9,0.523
19.58,32084.7,35244.8,0.4165,0.6021,148.0,96.9,0.523
19.6,32097.0,35106.9,0.4779,0.2632,148.0,96.9,0.523
19.62,32049.0,35095.0,0.2386,0.2337,148.0,96.9,0.523
19.64,31999.0,34962.4,-0.0113,-0.0921,148.0,96.9,0.523
19.66,31941.1,34807.1,-0.3007,-0.4743,148.0,96.9,0.523
19.68,31916.3,34756.1,-0.4246,-0.5995,148.0,96.9,0.523
19.7,31826.4,34640.4,-0.8734,-0.8841,148.0,96.9,0.523
19.72,31847.3,34674.4,-0.7692,-0.8005,148.0,96.9,0.523
19.74,31873.2,34619.5,-0.6398,-0.9355,148.0,96.9,0.523
19.76,31893.4,34649.7,-0.5391,-0.8612,148.0,96.9,0.523
19.78,31846.5,34488.2,-0.7733,-1.2584,148.0,96.9,0.523
19.8,31815.8,34429.2,-0.9263,-1.4035,148.0,96.9,0.523
19.82,31835.2,34485.6,-0.8297,-1.2649,148.0,96.9,0.523
19.84,31897.2,34769.8,-0.52,-0.566,148.0,96.9,0.523
19.86,32094.3,35130.2,0.4646,0.3204,148.0,96.9,0.523
19.88,32268.1,35488.3,1.3326,1.201,148.0,96.9,0.523
19.9,32367.4,35768.8,1.8286,1.8908,148.0,96.9,0.523
19.92,32358.4,35826.4,1.784,2.0326,148.0,96.9,0.523
19.94,32252.7,35643.3,1.2557,1.5822,148.0,96.9,0.523
19.96,32087.0,35327.6,0.428,0.8059,148.0,96.9,0.523
19.98,32146.1,35214.8,0.7233,0.5284,148.0,96.9,0.523
20.0,32035.8,35099.6,0.1722,0.2452,148.0,96.9,0.523
20.02,32033.8,35103.7,0.1622,0.2553,148.0,96.9,0.523
20.04,31986.1,35038.3,-0.076,0.0944,148.0,96.9,0.523
20.06,31995.2,34879.4,-0.0305,-0.2965,148.0,96.9,0.523
20.08,31892.1,34744.3,-0.5455,-0.6286,148.0,96.9,0.523
20.1,31832.9,34635.2,-0.8411,-0.8968,148.0,96.9,0.523
20.12,31808.4,34657.5,-0.9637,-0.842,148.0,96.9,0.523
20.14,31909.3,34678.1,-0.4597,-0.7915,148.0,96.9,0.523
20.16,31803.2,34592.0,-0.9897,-1.0031,148.0,96.9,0.523
20.18,31830.5,34574.8,-0.8533,-1.0455,148.0,96.9,0.523
20.2,31732.7,34530.7,-1.3415,-1.1538,148.0,96.9,0.523
20.22,31880.6,34443.2,-0.6027,-1.369,148.0,96.9,0.523
20.24,31784.3,34652.3,-1.0838,-0.8548,148.0,96.9,0.523
20.26,31995.1,35013.9,-0.0308,0.0343,148.0,96.9,0.523
20.28,32272.0,35432.7,1.3522,1.0644,148.0,96.9,0.523
20.3,32343.2,35559.0,1.7077,1.375,148.0,96.9,0.523
20.32,32416.8,35758.3,2.0754,1.865,148.0,96.9,0.523
20.34,32299.8,35672.0,1.4912,1.6528,148.0,96.9,0.523
20.36,32178.9,35454.9,0.8875,1.119,148.0,96.9,0.523
20.38,32124.8,35253.9,0.6172,0.6247,148.0,96.9,0.523
20.4,32105.3,35157.2,0.5198,0.3869,148.0,96.9,0.523
20.42,32017.4,35107.2,0.0804,0.2639,148.0,96.9,0.523
20.44,32063.9,35044.6,0.3126,0.11,148.0,96.9,0.523
20.46,31962.0,34909.2,-0.1962,-0.2231,148.0,96.9,0.523
20.48,31891.5,34781.3,-0.5483,-0.5377,148.0,96.9,0.523
20.5,31869.2,34736.2,-0.6596,-0.6485,148.0,96.9,0.523
20.52,31743.2,34625.7,-1.2893,-0.9201,148.0,96.9,0.523
20.54,31915.4,34690.7,-0.429,-0.7604,148.0,96.9,0.523
20.56,31739.7,34654.8,-1.3066,-0.8487,148.0,96.9,0.523
20.58,31799.9,34497.1,-1.0058,-1.2364,148.0,96.9,0.523
20.6,31799.3,34399.1,-1.0089,-1.4775,148.0,96.9,0.523
20.62,31726.8,34527.8,-1.3714,-1.161,148.0,96.9,0.523
20.64,31821.5,34642.5,-0.8981,-0.8789,148.0,96.9,0.523
20.66,31935.8,34957.1,-0.3271,-0.1052,148.0,96.9,0.523
20.68,32120.0,35259.5,0.5931,0.6385,148.0,96.9,0.523
20.7,32343.6,35590.6,1.7098,1.4527,148.0,96.9,0.523
20.72,32364.8,35703.9,1.8157,1.7312,148.0,96.9,0.523
20.74,32381.8,35634.8,1.9007,1.5614,148.0,96.9,0.523
20.76,32257.6,35590.8,1.2805,1.4532,148.0,96.9,0.523
20.78,32168.1,35407.3,0.8333,1.0018,148.0,96.9,0.523
20.8,32106.5,35109.7,0.5256,0.2701,148.0,96.9,0.523
20.82,32092.1,35041.5,0.4538,0.1024,148.0,96.9,0.523
20.84,32132.9,35098.8,0.6573,0.2432,148.0,96.9,0.523
20.86,31922.3,34954.2,-0.3946,-0.1123,148.0,96.9,0.523
20.88,31893.0,34833.9,-0.5409,-0.4082,148.0,96.9,0.523
20.9,31983.8,34760.7,-0.0875,-0.5882,148.0,96.9,0.523
20.92,31821.1,34686.6,-0.9,-0.7706,148.0,96.9,0.523
20.94,31806.8,34721.6,-0.9717,-0.6844,148.0,96.9,0.523
20.96,31873.2,34684.9,-0.6398,-0.7746,148.0,96.9,0.523
20.98,31909.3,34633.5,-0.4596,-0.901,148.0,96.9,0.523
21.0,31750.6,34480.2,-1.252,-1.2781,148.0,96.9,0.523
21.02,31825.3,34474.9,-0.8791,-1.2911,148.0,96.9,0.523
21.04,31795.4,34545.5,-1.0284,-1.1176,148.0,96.9,0.523
21.06,31839.0,34757.9,-0.8109,-0.5951,148.0,96.9,0.523
21.08,32100.3,35211.5,0.4948,0.5205,148.0,96.9,0.523
21.1,32245.6,35570.8,1.2204,1.404,148.0,96.9,0.523
21.12,32378.7,35764.4,1.8855,1.8801,148.0,96.9,0.523
21.14,32342.8,35690.3,1.7058,1.6979,148.0,96.9,0.523
21.16,32253.5,35643.5,1.26,1.5827,148.0,96.9,0.523
21.18,32122.6,35294.5,0.6058,0.7245,148.0,96.9,0.523
21.2,32175.1,35159.2,0.8683,0.3917,148.0,96.9,0.523
21.22,32057.6,35195.0,0.2811,0.4798,148.0,96.9,0.523
21.24,31996.9,35068.4,-0.0219,0.1683,148.0,96.9,0.523
21.26,31965.6,35075.8,-0.1785,0.1867,148.0,96.9,0.523
21.28,32039.9,34851.0,0.1929,-0.3661,148.0,96.9,0.523
21.3,31993.3,34719.3,-0.0401,-0.6901,148.0,96.9,0.523
21.32,31790.1,34700.3,-1.0548,-0.7368,148.0,96.9,0.523
21.34,31833.4,34610.9,-0.8387,-0.9567,148.0,96.9,0.523
21.36,31794.8,34652.4,-1.0317,-0.8545,148.0,96.9,0.523
21.38,31798.7,34536.5,-1.0119,-1.1395,148.0,96.9,0.523
21.4,31789.1,34450.2,-1.0597,-1.3519,148.0,96.9,0.523
21.42,31750.0,34472.6,-1.255,-1.2968,148.0,96.9,0.523
21.44,31769.9,34635.2,-1.1557,-0.8969,148.0,96.9,0.523
21.46,31907.0,34786.3,-0.4708,-0.5253,148.0,96.9,0.523
21.48,32108.0,35227.5,0.5333,0.5597,148.0,96.9,0.523
21.5,32161.3,35483.3,0.7994,1.1888,148.0,96.9,0.523
21.52,32226.0,35686.8,1.1223,1.6892,148.0,96.9,0.523
21.54,32376.0,35908.0,1.872,2.2331,148.0,96.9,0.523
21.56,32232.5,35601.0,1.1551,1.4782,148.0,96.9,0.523
21.58,32122.1,35281.7,0.6035,0.6931,148.0,96.9,0.523
21.6,32058.5,35176.2,0.286,0.4336,148.0,96.9,0.523
21.62,32115.2,35128.3,0.5692,0.3158,148.0,96.9,0.523
21.64,32112.8,35047.0,0.5571,0.1158,148.0,96.9,0.523
21.66,32041.9,35097.0,0.2029,0.2389,148.0,96.9,0.523
21.68,32011.8,34891.9,0.0527,-0.2657,148.0,96.9,0.523
21.7,31971.8,34914.1,-0.1473,-0.2111,148.0,96.9,0.523
21.72,31951.3,34711.3,-0.2497,-0.7099,148.0,96.9,0.523
21.74,31898.9,34598.5,-0.5112,-0.9872,148.0,96.9,0.523
21.76,31869.5,34640.3,-0.6584,-0.8842,148.0,96.9,0.523
21.78,31836.1,34563.3,-0.8252,-1.0736,148.0,96.9,0.523
21.8,31826.5,34527.5,-0.873,-1.1618,148.0,96.9,0.523
21.82,31718.3,34535.7,-1.4138,-1.1415,148.0,96.9,0.523
21.84,31661.1,34540.1,-1.6991,-1.1307,148.0,96.9,0.523
21.86,31822.9,34735.2,-0.8913,-0.651,148.0,96.9,0.523
21.88,31996.3,35012.0,-0.0251,0.0297,148.0,96.9,0.523
21.9,32180.1,35379.5,0.8933,0.9335,148.0,96.9,0.523
21.92,32302.4,35643.3,1.5043,1.5823,148.0,96.9,0.523
21.94,32335.6,35749.3,1.6698,1.8429,148.0,96.9,0.523
21.96,32334.8,35655.5,1.6662,1.6123,148.0,96.9,0.523
21.98,32187.9,35455.2,0.932,1.1197,148.0,96.9,0.523
22.0,32228.6,35250.7,1.1356,0.6168,148.0,96.9,0.523
22.02,31964.6,35153.2,-0.183,0.377,148.0,96.9,0.523
22.04,32034.0,35060.9,0.1635,0.1499,148.0,96.9,0.523
22.06,31982.3,35095.7,-0.0948,0.2357,148.0,96.9,0.523
22.08,32013.7,34910.7,0.0618,-0.2194,148.0,96.9,0.523
22.1,31992.9,34888.7,-0.0418,-0.2734,148.0,96.9,0.523
22.12,31812.0,34768.7,-0.9455,-0.5685,148.0,96.9,0.523
22.14,31841.7,34698.2,-0.7971,-0.7418,148.0,96.9,0.523
22.16,31861.6,34686.9,-0.6977,-0.7698,148.0,96.9,0.523
22.18,31866.5,34633.7,-0.6731,-0.9005,148.0,96.9,0.523
22.2,31820.8,34557.6,-0.9016,-1.0878,148.0,96.9,0.523
22.22,31739.7,34474.3,-1.3067,-1.2927,148.0,96.9,0.523
22.24,31703.5,34513.0,-1.4873,-1.1974,148.0,96.9,0.523
22.26,31820.2,34576.6,-0.9047,-1.0411,148.0,96.9,0.523
22.28,31959.5,34996.0,-0.2088,-0.0095,148.0,96.9,0.523
22.3,32032.3,35272.8,0.1548,0.6712,148.0,96.9,0.523
22.32,32269.9,35661.3,1.3417,1.6265,148.0,96.9,0.523
22.34,32291.4,35766.3,1.4491,1.8848,148.0,96.9,0.523
22.36,32287.8,35703.1,1.431,1.7293,148.0,96.9,0.523
22.38,32292.4,35481.0,1.4541,1.1832,148.0,96.9,0.523
22.4,32236.3,35314.9,1.174,0.7747,148.0,96.9,0.523
22.42,32073.1,35209.2,0.3589,0.5147,148.0,96.9,0.523
22.44,31992.1,35116.3,-0.0461,0.2862,148.0,96.9,0.523
22.46,32094.6,34990.0,0.466,-0.0244,148.0,96.9,0.523
22.48,32011.8,34922.2,0.0527,-0.1911,148.0,96.9,0.523
22.5,31960.9,34827.1,-0.2017,-0.4251,148.0,96.9,0.523
22.52,31851.3,34833.7,-0.7493,-0.4088,148.0,96.9,0.523
22.54,31866.5,34641.6,-0.6733,-0.8811,148.0,96.9,0.523
22.56,31664.6,34702.1,-1.6817,-0.7324,148.0,96.9,0.523
22.58,31868.6,34536.3,-0.6629,-1.14,148.0,96.9,0.523
22.6,31810.1,34666.6,-0.9552,-0.8196,148.0,96.9,0.523
22.62,31818.6,34554.2,-0.9127,-1.0961,148.0,96.9,0.523
22.64,31695.0,34421.3,-1.53,-1.423,148.0,96.9,0.523
22.66,31848.4,34471.6,-0.7635,-1.2992,148.0,96.9,0.523
22.68,31850.2,34714.4,-0.7548,-0.7022,148.0,96.9,0.523
22.7,32021.1,35175.9,0.099,0.4327,148.0,96.9,0.523
22.72,32214.9,35506.2,1.0671,1.245,148.0,96.9,0.523
22.74,32406.1,35778.5,2.0219,1.9148,148.0,96.9,0.523
22.76,32289.1,35703.9,1.4375,1.7312,148.0,96.9,0.523
22.78,32210.2,35491.4,1.0435,1.2086,148.0,96.9,0.523
22.8,32112.5,35321.1,0.5558,0.79,148.0,96.9,0.523
22.82,32056.1,35176.7,0.2738,0.4348,148.0,96.9,0.523
22.84,32151.4,35129.5,0.7497,0.3188,148.0,96.9,0.523
22.86,32047.2,35017.1,0.2295,0.0422,148.0,96.9,0.523
22.88,32034.9,34992.9,0.1677,-0.0172,148.0,96.9,0.523
22.9,32035.4,34856.7,0.1703,-0.3522,148.0,96.9,0.523
22.92,31818.0,34793.7,-0.9153,-0.5072,148.0,96.9,0.523
22.94,31840.1,34709.3,-0.805,-0.7146,148.0,96.9,0.523
22.96,31803.4,34704.4,-0.9887,-0.7268,148.0,96.9,0.523
22.98,31761.5,34665.1,-1.1977,-0.8233,148.0,96.9,0.523
23.0,31818.1,34687.5,-0.915,-0.7683,148.0,96.9,0.523
23.02,31747.1,34501.8,-1.2698,-1.2249,148.0,96.9,0.523
23.04,31720.8,34485.3,-1.401,-1.2656,148.0,96.9,0.523
23.06,31714.9,34435.6,-1.4304,-1.3877,148.0,96.9,0.523
23.08,31903.4,34664.2,-0.489,-0.8257,148.0,96.9,0.523
23.1,32038.5,35012.0,0.186,0.0296,148.0,96.9,0.523
23.12,32174.3,35409.2,0.864,1.0066,148.0,96.9,0.523
23.14,32325.2,35664.5,1.6182,1.6344,148.0,96.9,0.523
23.16,32418.8,35757.5,2.0858,1.8631,148.0,96.9,0.523
23.18,32276.0,35583.4,1.3722,1.435,148.0,96.9,0.523
23.2,32148.8,35457.9,0.7369,1.1262,148.0,96.9,0.523
23.22,32073.2,35237.2,0.3592,0.5836,148.0,96.9,0.523
23.24,32007.1,35164.7,0.0293,0.4052,148.0,96.9,0.523
23.26,32035.5,35097.4,0.171,0.2398,148.0,96.9,0.523
23.28,31972.1,35076.1,-0.1459,0.1874,148.0,96.9,0.523
23.3,31965.2,34861.9,-0.1801,-0.3395,148.0,96.9,0.523
23.32,31945.0,34798.6,-0.2813,-0.495,148.0,96.9,0.523
23.34,31883.5,34793.2,-0.5882,-0.5084,148.0,96.9,0.523
23.36,31854.4,34779.9,-0.7337,-0.5412,148.0,96.9,0.523
23.38,31876.1,34743.0,-0.6255,-0.6317,148.0,96.9,0.523
23.4,31769.2,34648.6,-1.1595,-0.8639,148.0,96.9,0.523
23.42,31722.3,34506.9,-1.3938,-1.2125,148.0,96.9,0.523
23.44,31725.6,34517.1,-1.3771,-1.1873,148.0,96.9,0.523
23.46,31752.7,34479.9,-1.2417,-1.2788,148.0,96.9,0.523
23.48,31917.7,34624.7,-0.4177,-0.9227,148.0,96.9,0.523
23.5,32007.4,34889.4,0.0304,-0.2719,148.0,96.9,0.523
23.52,32216.1,35404.2,1.0729,0.9943,148.0,96.9,0.523
23.54,32274.1,35608.2,1.3627,1.4958,148.0,96.9,0.523
23.56,32332.4,35770.0,1.6538,1.8938,148.0,96.9,0.523
23.58,32430.8,35714.5,2.1456,1.7574,148.0,96.9,0.523
23.6,32255.6,35544.0,1.2706,1.338,148.0,96.9,0.523
23.62,32185.5,35284.0,0.9201,0.6986,148.0,96.9,0.523
23.64,31988.6,35117.1,-0.0636,0.2882,148.0,96.9,0.523
23.66,32052.2,35153.3,0.2545,0.3771,148.0,96.9,0.523
23.68,32006.1,35059.6,0.0239,0.1468,148.0,96.9,0.523
23.7,31951.2,34979.7,-0.2501,-0.0498,148.0,96.9,0.523
23.72,32004.1,34804.0,0.0139,-0.4818,148.0,96.9,0.523
23.74,31833.5,34760.1,-0.8382,-0.5897,148.0,96.9,0.523
23.76,31834.7,34642.9,-0.8324,-0.8778,148.0,96.9,0.523
23.78,31875.5,34708.5,-0.6281,-0.7167,148.0,96.9,0.523
23.8,31826.3,34582.5,-0.8742,-1.0265,148.0,96.9,0.523
23.82,31783.0,34542.7,-1.0905,-1.1243,148.0,96.9,0.523
23.84,31819.0,34509.1,-0.9107,-1.2069,148.0,96.9,0.523
23.86,31737.1,34420.5,-1.3196,-1.4249,148.0,96.9,0.523
23.88,31861.7,34648.4,-0.6973,-0.8645,148.0,96.9,0.523
23.9,31923.5,34848.2,-0.3885,-0.3731,148.0,96.9,0.523
23.92,32063.9,35217.4,0.3129,0.5349,148.0,96.9,0.523
23.94,32250.6,35617.1,1.2454,1.5178,148.0,96.9,0.523
23.96,32412.9,35825.7,2.0561,2.0308,148.0,96.9,0.523
23.98,32412.3,35661.1,2.0532,1.626,148.0,96.9,0.523
24.0,32314.7,35479.2,1.5656,1.1787,148.0,96.9,0.523
24.02,32207.7,35304.8,1.0313,0.7498,148.0,96.9,0.523
24.04,32119.7,35142.8,0.5915,0.3514,148.0,96.9,0.523
24.06,32052.0,35112.1,0.2535,0.2758,148.0,96.9,0.523
24.08,32050.6,35062.2,0.2463,0.1531,148.0,96.9,0.523
24.1,31949.7,34999.7,-0.2579,-0.0006,148.0,96.9,0.523
24.12,31943.4,34916.1,-0.2893,-0.206,148.0,96.9,0.523
24.14,31889.0,34767.0,-0.561,-0.5727,148.0,96.9,0.523
24.16,31897.7,34682.1,-0.5172,-0.7816,148.0,96.9,0.523
24.18,31846.9,34630.2,-0.7712,-0.9093,148.0,96.9,0.523
24.2,31854.7,34677.2,-0.7325,-0.7935,148.0,96.9,0.523
24.22,31878.9,34594.9,-0.6113,-0.9959,148.0,96.9,0.523
24.24,31690.6,34506.3,-1.5519,-1.2139,148.0,96.9,0.523
24.26,31733.5,34412.6,-1.3377,-1.4443,148.0,96.9,0.523
24.28,31783.1,34481.6,-1.0897,-1.2746,148.0,96.9,0.523
24.3,31864.3,34735.8,-0.6841,-0.6494,148.0,96.9,0.523
24.32,32062.1,35176.0,0.3036,0.433,148.0,96.9,0.523
24.34,32296.2,35537.2,1.473,1.3214,148.0,96.9,0.523
24.36,32324.5,35741.4,1.6147,1.8235,148.0,96.9,0.523
24.38,32399.0,35782.1,1.9869,1.9235,148.0,96.9,0.523
24.4,32263.2,35434.6,1.3085,1.069,148.0,96.9,0.523
24.42,32168.2,35390.9,0.8339,0.9615,148.0,96.9,0.523
24.44,32092.5,35219.7,0.4556,0.5405,148.0,96.9,0.523
24.46,32132.3,35144.3,0.6542,0.3552,148.0,96.9,0.523
24.48,32054.4,35125.8,0.2653,0.3095,148.0,96.9,0.523
24.5,31977.2,34961.5,-0.1201,-0.0945,148.0,96.9,0.523
24.52,31898.7,34928.0,-0.5126,-0.1767,148.0,96.9,0.523
24.54,31870.7,34848.3,-0.6521,-0.3728,148.0,96.9,0.523
24.56,31851.0,34720.3,-0.7507,-0.6876,148.0,96.9,0.523
24.58,31824.3,34626.7,-0.8839,-0.9178,148.0,96.9,0.523
24.6,31920.5,34730.6,-0.4033,-0.6624,148.0,96.9,0.523
24.62,31788.4,34671.4,-1.0634,-0.8079,148.0,96.9,0.523
24.64,31717.5,34475.5,-1.4175,-1.2897,148.0,96.9,0.523
24.66,31707.2,34494.7,-1.4689,-1.2425,148.0,96.9,0.523
24.68,31687.7,34466.9,-1.5662,-1.3108,148.0,96.9,0.523
24.7,31861.3,34760.4,-0.6991,-0.5891,148.0,96.9,0.523
24.72,32030.4,35004.2,0.1453,0.0106,148.0,96.9,0.523
24.74,32181.3,35547.9,0.899,1.3477,148.0,96.9,0.523
24.76,32339.3,35597.5,1.6885,1.4696,148.0,96.9,0.523
24.78,32346.6,35630.7,1.7251,1.5513,148.0,96.9,0.523
24.8,32322.6,35589.9,1.6052,1.4509,148.0,96.9,0.523
24.82,32284.8,35347.4,1.416,0.8546,148.0,96.9,0.523
24.84,32177.5,35220.1,0.88,0.5416,148.0,96.9,0.523
24.86,32070.6,35179.9,0.3464,0.4426,148.0,96.9,0.523
24.88,32022.0,35135.7,0.1035,0.334,148.0,96.9,0.523
24.9,32061.2,34931.5,0.299,-0.1682,148.0,96.9,0.523
24.92,31964.1,34884.2,-0.186,-0.2845,148.0,96.9,0.523
24.94,31832.0,34717.4,-0.8456,-0.6948,148.0,96.9,0.523
24.96,31948.5,34701.9,-0.2637,-0.7328,148.0,96.9,0.523
24.98,31883.6,34633.2,-0.5881,-0.9018,148.0,96.9,0.523
25.0,31706.5,34690.5,-1.4728,-0.7608,148.0,96.9,0.523
25.02,31864.7,34665.6,-0.6823,-0.8221,148.0,96.9,0.523
25.04,31827.1,34521.2,-0.8703,-1.1773,148.0,96.9,0.523
25.06,31721.3,34477.5,-1.3988,-1.2847,148.0,96.9,0.523
25.08,31769.9,34371.6,-1.1557,-1.5453,148.0,96.9,0.523
25.1,31815.6,34628.2,-0.9277,-0.914,148.0,96.9,0.523
25.12,31973.8,35041.6,-0.1374,0.1026,148.0,96.9,0.523
25.14,32145.5,35382.5,0.7201,0.9409,148.0,96.9,0.523
25.16,32227.8,35660.8,1.1317,1.6252,148.0,96.9,0.523
25.18,32395.0,35682.9,1.9668,1.6797,148.0,96.9,0.523
25.2,32349.1,35679.6,1.7372,1.6716,148.0,96.9,0.523
25.22,32302.6,35367.7,1.5054,0.9045,148.0,96.9,0.523
25.24,32150.0,35303.1,0.743,0.7457,148.0,96.9,0.523
25.26,32037.0,35134.3,0.1786,0.3306,148.0,96.9,0.523
25.28,32080.9,35014.5,0.3978,0.0359,148.0,96.9,0.523
25.3,32060.8,35133.1,0.2974,0.3275,148.0,96.9,0.523
25.32,32082.1,34950.2,0.4038,-0.1222,148.0,96.9,0.523
25.34,31946.1,34869.5,-0.2759,-0.3207,148.0,96.9,0.523
25.36,31972.0,34682.8,-0.1461,-0.7799,148.0,96.9,0.523
25.38,31860.0,34705.1,-0.7056,-0.725,148.0,96.9,0.523
25.4,31800.0,34670.8,-1.0056,-0.8094,148.0,96.9,0.523
25.42,31816.8,34657.8,-0.9214,-0.8413,148.0,96.9,0.523
25.44,31764.3,34530.8,-1.1839,-1.1535,148.0,96.9,0.523
25.46,31810.2,34499.7,-0.9543,-1.2301,148.0,96.9,0.523
25.48,31705.9,34476.1,-1.4757,-1.2881,148.0,96.9,0.523
25.5,31788.9,34552.8,-1.0609,-1.0996,148.0,96.9,0.523
25.52,31797.4,34828.5,-1.0185,-0.4216,148.0,96.9,0.523
25.54,32098.7,35244.9,0.4864,0.6026,148.0,96.9,0.523
25.56,32204.2,35536.7,1.0134,1.3201,148.0,96.9,0.523
25.58,32325.9,35715.1,1.6215,1.7587,148.0,96.9,0.523
25.6,32424.4,35716.4,2.1136,1.7621,148.0,96.9,0.523
25.62,32306.9,35560.1,1.5267,1.3776,148.0,96.9,0.523
25.64,32206.9,35344.2,1.0272,0.8467,148.0,96.9,0.523
25.66,32155.7,35136.4,0.7713,0.3356,148.0,96.9,0.523
25.68,32000.5,35101.2,-0.0038,0.249,148.0,96.9,0.523
25.7,32089.4,35106.1,0.4401,0.2611,148.0,96.9,0.523
25.72,31991.6,35019.5,-0.0483,0.0483,148.0,96.9,0.523
25.74,32017.2,34869.4,0.0797,-0.321,148.0,96.9,0.523
25.76,31928.5,34725.0,-0.3635,-0.6761,148.0,96.9,0.523
25.78,31870.2,34691.1,-0.6546,-0.7594,148.0,96.9,0.523
25.8,31835.8,34631.9,-0.8267,-0.905,148.0,96.9,0.523
25.82,31818.4,34623.1,-0.9136,-0.9268,148.0,96.9,0.523
25.84,31747.0,34686.4,-1.2704,-0.7711,148.0,96.9,0.523
25.86,31879.5,34553.5,-0.6085,-1.0979,148.0,96.9,0.523
25.88,31740.0,34388.6,-1.3054,-1.5032,148.0,96.9,0.523
25.9,31771.6,34460.8,-1.1471,-1.3257,148.0,96.9,0.523
25.92,31827.0,34684.2,-0.8706,-0.7764,148.0,96.9,0.523
25.94,32049.4,35068.3,0.2406,0.1682,148.0,96.9,0.523
25.96,32154.1,35486.1,0.7635,1.1957,148.0,96.9,0.523
25.98,32313.1,35705.4,1.5576,1.7349,148.0,96.9,0.523
26.0,32286.0,35673.0,1.4225,1.6553,148.0,96.9,0.523
26.02,32223.0,35511.7,1.1075,1.2586,148.0,96.9,0.523
26.04,32176.2,35410.6,0.8737,1.0099,148.0,96.9,0.523
26.06,32148.2,35318.8,0.7338,0.7841,148.0,96.9,0.523
26.08,32143.1,35220.0,0.7083,0.5412,148.0,96.9,0.523
26.1,31977.0,35063.1,-0.1211,0.1555,148.0,96.9,0.523
26.12,32107.2,34940.8,0.5289,-0.1454,148.0,96.9,0.523
26.14,31969.3,34994.3,-0.16,-0.0137,148.0,96.9,0.523
26.16,31845.0,34791.8,-0.7806,-0.5118,148.0,96.9,0.523
26.18,31868.7,34768.2,-0.6622,-0.5698,148.0,96.9,0.523
26.2,31798.1,34637.0,-1.0149,-0.8925,148.0,96.9,0.523
26.22,31835.3,34762.7,-0.8294,-0.5833,148.0,96.9,0.523
26.24,31687.2,34598.5,-1.5689,-0.9871,148.0,96.9,0.523
26.26,31700.0,34520.7,-1.5052,-1.1784,148.0,96.9,0.523
26.28,31744.4,34509.6,-1.2831,-1.2057,148.0,96.9,0.523
26.3,31814.8,34461.0,-0.9318,-1.3253,148.0,96.9,0.523
26.32,31805.3,34758.8,-0.9792,-0.593,148.0,96.9,0.523
26.34,32003.2,34977.3,0.0097,-0.0555,148.0,96.9,0.523
26.36,32198.8,35428.5,0.9866,1.0539,148.0,96.9,0.523
26.38,32322.0,35604.1,1.602,1.4858,148.0,96.9,0.523
26.4,32322.6,35715.6,1.605,1.7599,148.0,96.9,0.523
26.42,32350.5,35618.4,1.7442,1.5211,148.0,96.9,0.523
26.44,32174.3,35444.6,0.8642,1.0936,148.0,96.9,0.523
26.46,32169.1,35370.7,0.8384,0.9118,148.0,96.9,0.523
26.48,32052.7,35157.5,0.2569,0.3875,148.0,96.9,0.523
26.5,32016.6,35066.1,0.0764,0.1629,148.0,96.9,0.523
26.52,32100.5,34975.5,0.4954,-0.0601,148.0,96.9,0.523
26.54,31954.6,34939.3,-0.2333,-0.149,148.0,96.9,0.523
26.56,31952.1,34795.4,-0.2459,-0.503,148.0,96.9,0.523
26.58,31816.7,34655.1,-0.922,-0.848,148.0,96.9,0.523
26.6,31850.3,34688.5,-0.7544,-0.7658,148.0,96.9,0.523
26.62,31852.5,34628.8,-0.7433,-0.9127,148.0,96.9,0.523
26.64,31760.7,34621.3,-1.2018,-0.931,148.0,96.9,0.523
26.66,31794.9,34566.6,-1.0311,-1.0656,148.0,96.9,0.523
26.68,31752.2,34581.0,-1.2443,-1.0302,148.0,96.9,0.523
26.7,31744.3,34380.9,-1.2835,-1.5223,148.0,96.9,0.523
26.72,31742.4,34525.1,-1.2931,-1.1675,148.0,96.9,0.523
26.74,31977.9,34922.6,-0.1169,-0.19,148.0,96.9,0.523
26.76,32127.2,35329.4,0.6288,0.8103,148.0,96.9,0.523
26.78,32310.0,35561.8,1.5423,1.3818,148.0,96.9,0.523
26.8,32410.1,35740.1,2.042,1.8203,148.0,96.9,0.523
26.82,32287.2,35603.9,1.4284,1.4854,148.0,96.9,0.523
26.84,32193.2,35499.3,0.9588,1.228,148.0,96.9,0.523
26.86,32193.1,35314.8,0.9582,0.7744,148.0,96.9,0.523
26.88,32099.9,35206.2,0.4926,0.5074,148.0,96.9,0.523
26.9,32080.0,35084.6,0.3931,0.2082,148.0,96.9,0.523
26.92,32060.4,35086.5,0.2955,0.2129,148.0,96.9,0.523
26.94,31957.3,34982.3,-0.2197,-0.0432,148.0,96.9,0.523
26.96,31915.4,34866.1,-0.429,-0.3291,148.0,96.9,0.523
26.98,31814.2,34785.4,-0.9346,-0.5276,148.0,96.9,0.523
27.0,31854.6,34683.8,-0.7329,-0.7775,148.0,96.9,0.523
27.02,31794.9,34725.0,-1.0308,-0.6761,148.0,96.9,0.523
27.04,31856.5,34604.1,-0.723,-0.9735,148.0,96.9,0.523
27.06,31936.7,34541.2,-0.3228,-1.1281,148.0,96.9,0.523
27.08,31755.7,34481.2,-1.2269,-1.2756,148.0,96.9,0.523
27.1,31720.4,34378.7,-1.4029,-1.5277,148.0,96.9,0.523
27.12,31803.1,34552.3,-0.9898,-1.1009,148.0,96.9,0.523
27.14,31995.7,34777.8,-0.028,-0.5463,148.0,96.9,0.523
27.16,32150.3,35259.7,0.7444,0.6389,148.0,96.9,0.523
27.18,32198.3,35576.4,0.984,1.4176,148.0,96.9,0.523
27.2,32325.3,35758.1,1.6184,1.8647,148.0,96.9,0.523
27.22,32255.1,35704.0,1.2679,1.7315,148.0,96.9,0.523
27.24,32265.3,35611.7,1.3189,1.5045,148.0,96.9,0.523
27.26,32193.0,35364.3,0.9578,0.8961,148.0,96.9,0.523
27.28,32013.2,35193.2,0.0593,0.4753,148.0,96.9,0.523
27.3,32069.4,35135.2,0.3402,0.3328,148.0,96.9,0.523
27.32,31958.2,35033.7,-0.2153,0.0831,148.0,96.9,0.523
27.34,31982.0,34936.4,-0.0964,-0.1561,148.0,96.9,0.523
27.36,31923.1,34955.7,-0.3905,-0.1088,148.0,96.9,0.523
27.38,31953.9,34792.7,-0.2366,-0.5096,148.0,96.9,0.523
27.4,31891.8,34762.4,-0.5467,-0.5841,148.0,96.9,0.523
27.42,31846.5,34613.2,-0.7733,-0.9511,148.0,96.9,0.523
27.44,31831.8,34700.6,-0.8468,-0.7361,148.0,96.9,0.523
27.46,31765.8,34622.5,-1.1765,-0.9281,148.0,96.9,0.523
27.48,31709.9,34459.0,-1.4556,-1.3303,148.0,96.9,0.523
27.5,31697.1,34436.5,-1.5196,-1.3856,148.0,96.9,0.523
27.52,31687.3,34469.0,-1.5687,-1.3057,148.0,96.9,0.523
27.54,31822.8,34797.5,-0.8918,-0.4978,148.0,96.9,0.523
27.56,31990.1,35130.7,-0.0561,0.3216,148.0,96.9,0.523
27.58,32291.1,35570.9,1.4478,1.4041,148.0,96.9,0.523
27.6,32338.6,35718.4,1.6848,1.7668,148.0,96.9,0.523
27.62,32346.3,35766.5,1.7235,1.8851,148.0,96.9,0.523
27.64,32383.2,35576.1,1.9077,1.4171,148.0,96.9,0.523
27.66,32233.6,35351.6,1.1603,0.865,148.0,96.9,0.523
27.68,32087.2,35251.1,0.4291,0.6176,148.0,96.9,0.523
27.7,32105.1,35222.6,0.5185,0.5476,148.0,96.9,0.523
27.72,32086.9,35067.0,0.4277,0.1649,148.0,96.9,0.523
27.74,32016.3,35085.8,0.0748,0.2111,148.0,96.9,0.523
27.76,31963.7,34924.9,-0.1877,-0.1845,148.0,96.9,0.523
27.78,31841.6,34863.7,-0.7979,-0.335,148.0,96.9,0.523
27.8,31753.4,34727.4,-1.2382,-0.6701,148.0,96.9,0.523
27.82,31764.0,34713.7,-1.1854,-0.7037,148.0,96.9,0.523
27.84,31746.2,34763.2,-1.2741,-0.5822,148.0,96.9,0.523
27.86,31907.1,34621.9,-0.4703,-0.9296,148.0,96.9,0.523
27.88,31824.5,34577.5,-0.8831,-1.0387,148.0,96.9,0.523
27.9,31768.1,34544.5,-1.1647,-1.12,148.0,96.9,0.523
27.92,31776.1,34471.3,-1.1246,-1.2999,148.0,96.9,0.523
27.94,31852.0,34653.0,-0.7457,-0.853,148.0,96.9,0.523
27.96,31937.9,35022.2,-0.3165,0.0549,148.0,96.9,0.523
27.98,32187.0,35381.8,0.9276,0.9391,148.0,96.9,0.523
28.0,32281.2,35685.3,1.3983,1.6855,148.0,96.9,0.523
28.02,32269.7,35751.0,1.3409,1.8471,148.0,96.9,0.523
28.04,32314.2,35692.3,1.5628,1.7026,148.0,96.9,0.523
28.06,32201.5,35489.0,1.0002,1.2028,148.0,96.9,0.523
28.08,32134.1,35282.3,0.6633,0.6945,148.0,96.9,0.523
28.1,31991.8,35139.9,-0.0472,0.3442,148.0,96.9,0.523
28.12,32050.3,35065.5,0.2448,0.1613,148.0,96.9,0.523
28.14,32062.6,35078.2,0.3061,0.1926,148.0,96.9,0.523
28.16,32055.4,34870.4,0.2705,-0.3186,148.0,96.9,0.523
28.18,31841.9,34869.0,-0.7961,-0.3219,148.0,96.9,0.523
28.2,31892.7,34790.2,-0.5422,-0.5157,148.0,96.9,0.523
28.22,31818.9,34690.4,-0.911,-0.7612,148.0,96.9,0.523
28.24,31853.9,34695.6,-0.736,-0.7484,148.0,96.9,0.523
28.26,31772.3,34652.4,-1.1439,-0.8546,148.0,96.9,0.523
28.28,31782.1,34575.9,-1.0951,-1.0428,148.0,96.9,0.523
28.3,31699.6,34495.4,-1.5069,-1.2408,148.0,96.9,0.523
28.32,31766.9,34433.8,-1.1708,-1.3922,148.0,96.9,0.523
28.34,31676.9,34569.4,-1.6204,-1.0588,148.0,96.9,0.523
28.36,31964.4,34911.3,-0.1843,-0.2179,148.0,96.9,0.523
28.38,32162.8,35293.6,0.8067,0.7223,148.0,96.9,0.523
28.4,32362.8,35592.5,1.8057,1.4574,148.0,96.9,0.523
28.42,32235.6,35798.2,1.1703,1.9631,148.0,96.9,0.523
28.44,32351.1,35734.0,1.7475,1.8052,148.0,96.9,0.523
28.46,32160.2,35564.1,0.7939,1.3874,148.0,96.9,0.523
28.48,32170.4,35236.6,0.8446,0.5821,148.0,96.9,0.523
28.5,32098.6,35138.8,0.4859,0.3416,148.0,96.9,0.523
28.52,32105.5,35042.9,0.5204,0.1057,148.0,96.9,0.523
28.54,32141.4,35115.8,0.6997,0.2849,148.0,96.9,0.523
28.56,31979.3,35004.3,-0.1099,0.0107,148.0,96.9,0.523
28.58,31932.7,34917.4,-0.3426,-0.203,148.0,96.9,0.523
28.6,31948.2,34811.6,-0.2651,-0.463,148.0,96.9,0.523
28.62,31848.9,34696.4,-0.7614,-0.7463,148.0,96.9,0.523
28.64,31864.0,34632.6,-0.6858,-0.9033,148.0,96.9,0.523
28.66,31867.5,34609.6,-0.6682,-0.9598,148.0,96.9,0.523
28.68,31796.2,34568.2,-1.0245,-1.0617,148.0,96.9,0.523
28.7,31795.1,34469.0,-1.0298,-1.3057,148.0,96.9,0.523
28.72,31718.5,34432.6,-1.4127,-1.3951,148.0,96.9,0.523
28.74,31883.3,34532.5,-0.5895,-1.1496,148.0,96.9,0.523
28.76,31957.8,34810.2,-0.2174,-0.4666,148.0,96.9,0.523
28.78,32078.9,35201.9,0.3879,0.4966,148.0,96.9,0.523
28.8,32265.6,35484.9,1.3205,1.1926,148.0,96.9,0.523
28.82,32279.8,35787.6,1.3914,1.9371,148.0,96.9,0.523
28.84,32357.8,35711.1,1.7809,1.7491,148.0,96.9,0.523
28.86,32200.4,35563.7,0.9944,1.3864,148.0,96.9,0.523
28.88,32187.7,35461.7,0.931,1.1355,148.0,96.9,0.523
28.9,32117.3,35127.4,0.5797,0.3135,148.0,96.9,0.523
28.92,32050.5,35096.9,0.2456,0.2386,148.0,96.9,0.523
28.94,31999.0,35071.4,-0.0114,0.1758,148.0,96.9,0.523
28.96,32049.2,35092.5,0.2392,0.2277,148.0,96.9,0.523
28.98,31876.8,34967.1,-0.6216,-0.0806,148.0,96.9,0.523
29.0,31905.0,34848.7,-0.4808,-0.3718,148.0,96.9,0.523
29.02,31816.6,34620.7,-0.9226,-0.9325,148.0,96.9,0.523
29.04,31828.8,34703.8,-0.8615,-0.7282,148.0,96.9,0.523
29.06,31877.4,34622.3,-0.6189,-0.9285,148.0,96.9,0.523
29.08,31744.7,34683.1,-1.2816,-0.7791,148.0,96.9,0.523
29.1,31744.9,34551.1,-1.281,-1.1037,148.0,96.9,0.523
29.12,31761.7,34384.8,-1.1969,-1.5126,148.0,96.9,0.523
29.14,31703.1,34447.2,-1.4897,-1.3592,148.0,96.9,0.523
29.16,31894.5,34676.1,-0.5335,-0.7964,148.0,96.9,0.523
29.18,32009.6,35129.5,0.0414,0.3187,148.0,96.9,0.523
29.2,32186.6,35454.5,0.9257,1.1179,148.0,96.9,0.523
29.22,32354.4,35678.4,1.764,1.6685,148.0,96.9,0.523
29.24,32410.7,35786.0,2.0454,1.9333,148.0,96.9,0.523
29.26,32246.2,35596.8,1.2233,1.468,148.0,96.9,0.523
29.28,32222.1,35354.9,1.1029,0.873,148.0,96.9,0.523
29.3,32091.7,35299.6,0.4517,0.737,148.0,96.9,0.523
29.32,31990.8,35142.9,-0.0526,0.3518,148.0,96.9,0.523
29.34,32010.8,35078.9,0.0477,0.1943,148.0,96.9,0.523
29.36,31967.9,35062.7,-0.167,0.1543,148.0,96.9,0.523
29.38,32015.1,34701.2,0.0692,-0.7347,148.0,96.9,0.523
29.4,31926.8,34769.6,-0.3719,-0.5663,148.0,96.9,0.523
29.42,31810.4,34670.5,-0.9534,-0.81,148.0,96.9,0.523
29.44,31850.9,34734.2,-0.7514,-0.6534,148.0,96.9,0.523
29.46,31806.0,34610.6,-0.9755,-0.9573,148.0,96.9,0.523
29.48,31840.8,34748.0,-0.8018,-0.6195,148.0,96.9,0.523
29.5,31873.6,34571.8,-0.638,-1.0529,148.0,96.9,0.523
29.52,31759.6,34454.1,-1.2073,-1.3422,148.0,96.9,0.523
29.54,31722.0,34559.7,-1.3953,-1.0826,148.0,96.9,0.523
29.56,31808.3,34626.8,-0.9641,-0.9176,148.0,96.9,0.523
29.58,32026.4,34924.6,0.1253,-0.1851,148.0,96.9,0.523
29.6,32219.4,35364.3,1.0895,0.8961,148.0,96.9,0.523
29.62,32406.5,35596.2,2.0241,1.4664,148.0,96.9,0.523
29.64,32336.0,35798.4,1.6718,1.9637,148.0,96.9,0.523
29.66,32263.0,35761.1,1.3073,1.8719,148.0,96.9,0.523
29.68,32280.7,35503.6,1.396,1.2388,148.0,96.9,0.523
29.7,32023.6,35267.2,0.1115,0.6574,148.0,96.9,0.523
29.72,32077.9,35211.7,0.3825,0.5207,148.0,96.9,0.523
29.74,32010.5,35108.2,0.046,0.2662,148.0,96.9,0.523
29.76,32045.2,34984.1,0.2195,-0.0388,148.0,96.9,0.523
29.78,31932.5,34925.3,-0.3435,-0.1835,148.0,96.9,0.523
29.8,32001.8,34922.9,0.0024,-0.1893,148.0,96.9,0.523
29.82,31791.7,34730.7,-1.0468,-0.662,148.0,96.9,0.523
29.84,31844.8,34694.6,-0.7816,-0.7509,148.0,96.9,0.523
29.86,31902.6,34681.3,-0.493,-0.7836,148.0,96.9,0.523
29.88,31783.2,34699.2,-1.0894,-0.7396,148.0,96.9,0.523
29.9,31841.9,34515.0,-0.7959,-1.1924,148.0,96.9,0.523
29.92,31727.2,34465.8,-1.3691,-1.3136,148.0,96.9,0.523
29.94,31694.1,34489.0,-1.5346,-1.2564,148.0,96.9,0.523
29.96,31749.1,34676.9,-1.2595,-0.7943,148.0,96.9,0.523
29.98,31862.4,34904.7,-0.6939,-0.2342,148.0,96.9,0.523
30.0,32104.0,35312.0,0.5131,0.7676,148.0,96.9,0.523
30.02,32285.7,35627.7,1.4208,1.5438,148.0,96.9,0.523
30.04,32345.9,35795.7,1.7213,1.957,148.0,96.9,0.523
30.06,32310.1,35654.5,1.5428,1.6098,148.0,96.9,0.523
30.08,32263.5,35599.4,1.3099,1.4743,148.0,96.9,0.523
30.1,32110.5,35306.3,0.5453,0.7534,148.0,96.9,0.523
30.12,32058.1,35158.9,0.2837,0.391,148.0,96.9,0.523
30.14,32041.7,35124.4,0.202,0.306,148.0,96.9,0.523
30.16,32081.4,35125.9,0.4,0.3098,148.0,96.9,0.523
30.18,31967.0,34953.7,-0.1711,-0.1136,148.0,96.9,0.523
30.2,31925.8,34872.4,-0.3771,-0.3136,148.0,96.9,0.523
30.22,31914.8,34904.0,-0.4322,-0.2359,148.0,96.9,0.523
30.24,31781.6,34669.9,-1.0976,-0.8115,148.0,96.9,0.523
30.26,31953.8,34717.7,-0.2374,-0.694,148.0,96.9,0.523
30.28,31697.1,34603.4,-1.5195,-0.975,148.0,96.9,0.523
30.3,31847.2,34524.4,-0.7696,-1.1695,148.0,96.9,0.523
30.32,31760.2,34509.0,-1.2043,-1.2073,148.0,96.9,0.523
30.34,31719.7,34461.4,-1.4066,-1.3242,148.0,96.9,0.523
30.36,31792.5,34557.2,-1.0429,-1.0888,148.0,96.9,0.523
30.38,31931.2,34801.0,-0.3499,-0.4892,148.0,96.9,0.523
30.4,32126.5,35207.6,0.6253,0.5108,148.0,96.9,0.523
30.42,32213.5,35536.2,1.0602,1.3187,148.0,96.9,0.523
30.44,32476.1,35785.7,2.372,1.9323,148.0,96.9,0.523
30.46,32335.1,35725.4,1.6677,1.7842,148.0,96.9,0.523
30.48,32343.9,35563.3,1.7116,1.3855,148.0,96.9,0.523
30.5,32126.2,35434.1,0.624,1.0677,148.0,96.9,0.523
30.52,32086.2,35199.9,0.4239,0.4918,148.0,96.9,0.523
30.54,32047.7,35159.4,0.2318,0.3921,148.0,96.9,0.523
30.56,32012.7,35158.9,0.0572,0.3911,148.0,96.9,0.523
30.58,32006.1,34960.7,0.0242,-0.0965,148.0,96.9,0.523
30.6,31957.1,34888.9,-0.2209,-0.2729,148.0,96.9,0.523
30.62,31768.9,34772.0,-1.1607,-0.5606,148.0,96.9,0.523
30.64,31845.5,34712.5,-0.7783,-0.7068,148.0,96.9,0.523
30.66,31856.5,34661.7,-0.7235,-0.8317,148.0,96.9,0.523
30.68,31805.9,34662.4,-0.9761,-0.8301,148.0,96.9,0.523
30.7,31796.8,34612.7,-1.0215,-0.9523,148.0,96.9,0.523
30.72,31740.6,34595.2,-1.3022,-0.9953,148.0,96.9,0.523
30.74,31766.7,34460.8,-1.172,-1.3257,148.0,96.9,0.523
30.76,31616.7,34407.1,-1.9213,-1.458,148.0,96.9,0.523
30.78,31795.1,34770.8,-1.0298,-0.5633,148.0,96.9,0.523
30.8,31943.9,35080.2,-0.2868,0.1975,148.0,96.9,0.523
30.82,32121.2,35439.6,0.5991,1.0813,148.0,96.9,0.523
30.84,32291.1,35706.2,1.4478,1.7369,148.0,96.9,0.523
30.86,32369.9,35866.8,1.8415,2.132,148.0,96.9,0.523
30.88,32332.1,35694.0,1.6524,1.7069,148.0,96.9,0.523
30.9,32237.8,35428.4,1.1812,1.0537,148.0,96.9,0.523
30.92,32055.7,35250.3,0.272,0.6158,148.0,96.9,0.523
30.94,32072.1,35156.1,0.3539,0.384,148.0,96.9,0.523
30.96,32044.2,35052.7,0.2145,0.1299,148.0,96.9,0.523
30.98,32054.5,35078.2,0.2658,0.1927,148.0,96.9,0.523
31.0,32009.7,34940.1,0.0418,-0.1471,148.0,96.9,0.523
31.02,32012.1,34766.2,0.054,-0.5747,148.0,96.9,0.523
31.04,31878.5,34685.2,-0.6134,-0.7741,148.0,96.9,0.523
31.06,31866.5,34714.7,-0.6733,-0.7014,148.0,96.9,0.523
31.08,31789.1,34709.2,-1.0601,-0.715,148.0,96.9,0.523
31.1,31893.9,34536.3,-0.5367,-1.1402,148.0,96.9,0.523
31.12,31814.8,34580.3,-0.9316,-1.0319,148.0,96.9,0.523
31.14,31725.3,34583.9,-1.3788,-1.0231,148.0,96.9,0.523
31.16,31712.0,34432.3,-1.4451,-1.3957,148.0,96.9,0.523
31.18,31799.4,34614.7,-1.0082,-0.9472,148.0,96.9,0.523
31.2,31998.4,34942.6,-0.0145,-0.1408,148.0,96.9,0.523
31.22,32181.3,35326.0,0.8994,0.802,148.0,96.9,0.523
31.24,32211.0,35615.1,1.0476,1.5129,148.0,96.9,0.523
31.26,32327.7,35781.1,1.6304,1.9212,148.0,96.9,0.523
31.28,32203.5,35590.8,1.0102,1.4532,148.0,96.9,0.523
31.3,32331.2,35482.9,1.648,1.1878,148.0,96.9,0.523
31.32,32200.7,35317.3,0.9962,0.7806,148.0,96.9,0.523
31.34,32102.5,35180.8,0.5055,0.4449,148.0,96.9,0.523
31.36,32045.9,35130.5,0.2231,0.3212,148.0,96.9,0.523
31.38,31984.9,35109.3,-0.082,0.269,148.0,96.9,0.523
31.4,32060.6,34852.5,0.2962,-0.3626,148.0,96.9,0.523
31.42,31923.9,34885.6,-0.3866,-0.2811,148.0,96.9,0.523
31.44,31975.9,34782.8,-0.1268,-0.5338,148.0,96.9,0.523
31.46,31898.5,34695.8,-0.5137,-0.7478,148.0,96.9,0.523
31.48,31715.1,34625.1,-1.4294,-0.9218,148.0,96.9,0.523
31.5,31754.7,34707.7,-1.2317,-0.7185,148.0,96.9,0.523
31.52,31845.2,34518.4,-0.7799,-1.1842,148.0,96.9,0.523
31.54,31808.7,34608.6,-0.9621,-0.9622,148.0,96.9,0.523
31.56,31687.6,34490.0,-1.567,-1.2539,148.0,96.9,0.523
31.58,31796.9,34536.9,-1.0212,-1.1385,148.0,96.9,0.523
31.6,31981.2,34867.7,-0.1002,-0.3253,148.0,96.9,0.523
31.62,32115.6,35213.5,0.5711,0.5252,148.0,96.9,0.523
31.64,32256.7,35585.4,1.2758,1.4398,148.0,96.9,0.523
31.66,32368.1,35762.2,1.8322,1.8746,148.0,96.9,0.523
31.68,32373.7,35768.8,1.8601,1.8909,148.0,96.9,0.523
31.7,32324.9,35478.5,1.6166,1.1771,148.0,96.9,0.523
31.72,32103.7,35347.3,0.5118,0.8543,148.0,96.9,0.523
31.74,32119.1,35188.0,0.5888,0.4625,148.0,96.9,0.523
31.76,32077.7,35076.9,0.3817,0.1894,148.0,96.9,0.523
31.78,32068.3,35083.3,0.3348,0.2051,148.0,96.9,0.523
31.8,32073.1,34970.8,0.3585,-0.0717,148.0,96.9,0.523
31.82,31918.6,34895.9,-0.4129,-0.2558,148.0,96.9,0.523
31.84,31890.5,34757.5,-0.5534,-0.596,148.0,96.9,0.523
31.86,31830.5,34704.2,-0.8533,-0.7271,148.0,96.9,0.523
31.88,31854.0,34693.4,-0.7356,-0.7536,148.0,96.9,0.523
31.9,31887.3,34572.2,-0.5692,-1.0517,148.0,96.9,0.523
31.92,31862.2,34585.9,-0.6946,-1.0181,148.0,96.9,0.523
31.94,31768.7,34489.2,-1.1617,-1.256,148.0,96.9,0.523
31.96,31652.7,34481.6,-1.7412,-1.2746,148.0,96.9,0.523
31.98,31707.1,34434.2,-1.4696,-1.3912,148.0,96.9,0.523
32.0,31836.3,34759.4,-0.824,-0.5914,148.0,96.9,0.523
32.02,32078.2,35146.8,0.3844,0.3613,148.0,96.9,0.523
32.04,32259.9,35500.9,1.2918,1.2319,148.0,96.9,0.523
32.06,32311.8,35730.4,1.5511,1.7965,148.0,96.9,0.523
32.08,32290.5,35710.3,1.4449,1.747,148.0,96.9,0.523
32.1,32223.1,35583.3,1.108,1.4348,148.0,96.9,0.523
32.12,32218.9,35359.1,1.0871,0.8832,148.0,96.9,0.523
32.14,32073.7,35322.9,0.3619,0.7943,148.0,96.9,0.523
32.16,32026.5,35140.0,0.1259,0.3445,148.0,96.9,0.523
32.18,32029.7,34981.4,0.142,-0.0456,148.0,96.9,0.523
32.2,32015.5,35016.8,0.0708,0.0416,148.0,96.9,0.523
32.22,31912.3,34886.8,-0.4444,-0.2782,148.0,96.9,0.523
32.24,31900.7,34768.9,-0.5023,-0.5682,148.0,96.9,0.523
32.26,31867.5,34665.8,-0.6686,-0.8216,148.0,96.9,0.523
32.28,31829.1,34698.6,-0.86,-0.741,148.0,96.9,0.523
32.3,31797.8,34599.9,-1.0165,-0.9837,148.0,96.9,0.523
32.32,31862.3,34613.1,-0.6945,-0.9512,148.0,96.9,0.523
32.34,31836.6,34495.4,-0.8229,-1.2406,148.0,96.9,0.523
32.36,31715.8,34435.9,-1.4262,-1.387,148.0,96.9,0.523
32.38,31829.8,34391.2,-0.8565,-1.4969,148.0,96.9,0.523
32.4,31864.9,34698.1,-0.6812,-0.7422,148.0,96.9,0.523
32.42,31943.5,34971.6,-0.2889,-0.0697,148.0,96.9,0.523
32.44,32262.1,35379.2,1.3028,0.9326,148.0,96.9,0.523
32.46,32304.8,35670.6,1.516,1.6494,148.0,96.9,0.523
32.48,32340.2,35761.7,1.6928,1.8735,148.0,96.9,0.523
32.5,32270.2,35559.0,1.3433,1.3749,148.0,96.9,0.523
32.52,32148.0,35423.5,0.733,1.0417,148.0,96.9,0.523
32.54,32161.8,35266.7,0.802,0.656,148.0,96.9,0.523
32.56,32188.3,35146.4,0.9343,0.3602,148.0,96.9,0.523
32.58,32048.4,35187.3,0.2353,0.4608,148.0,96.9,0.523
32.6,32013.4,35053.6,0.0603,0.1321,148.0,96.9,0.523
32.62,31966.7,34917.2,-0.1727,-0.2035,148.0,96.9,0.523
32.64,31898.8,34885.8,-0.5122,-0.2805,148.0,96.9,0.523
32.66,31841.4,34789.0,-0.7985,-0.5187,148.0,96.9,0.523
32.68,31820.3,34635.1,-0.9043,-0.8972,148.0,96.9,0.523
32.7,31883.7,34775.3,-0.5872,-0.5523,148.0,96.9,0.523
32.72,31823.7,34668.5,-0.8872,-0.8149,148.0,96.9,0.523
32.74,31920.7,34520.4,-0.4027,-1.1791,148.0,96.9,0.523
32.76,31803.5,34523.7,-0.9879,-1.171,148.0,96.9,0.523
32.78,31726.4,34454.9,-1.373,-1.3402,148.0,96.9,0.523
32.8,31855.1,34597.0,-0.7305,-0.9909,148.0,96.9,0.523
32.82,31945.1,34925.0,-0.2805,-0.1841,148.0,96.9,0.523
32.84,32204.1,35281.2,1.0132,0.6918,148.0,96.9,0.523
32.86,32332.8,35569.4,1.6561,1.4006,148.0,96.9,0.523
32.88,32401.5,35758.8,1.9994,1.8662,148.0,96.9,0.523
32.9,32267.6,35814.5,1.3303,2.0033,148.0,96.9,0.523
32.92,32264.3,35578.4,1.3136,1.4227,148.0,96.9,0.523
32.94,32144.0,35352.9,0.713,0.8682,148.0,96.9,0.523
32.96,32069.1,35255.0,0.3388,0.6273,148.0,96.9,0.523
32.98,32045.0,35148.6,0.2184,0.3656,148.0,96.9,0.523
33.0,32081.7,35018.0,0.4015,0.0445,148.0,96.9,0.523
33.02,32023.5,34929.6,0.1107,-0.1729,148.0,96.9,0.523
33.04,31924.6,34818.9,-0.3833,-0.4451,148.0,96.9,0.523
33.06,31852.5,34706.9,-0.7431,-0.7205,148.0,96.9,0.523
33.08,31795.4,34683.9,-1.0285,-0.7771,148.0,96.9,0.523
33.1,31944.0,34649.4,-0.2864,-0.8621,148.0,96.9,0.523
33.12,31833.3,34559.9,-0.8393,-1.0822,148.0,96.9,0.523
33.14,31828.0,34484.3,-0.8656,-1.268,148.0,96.9,0.523
33.16,31834.8,34411.1,-0.8319,-1.4479,148.0,96.9,0.523
33.18,31763.2,34413.6,-1.1893,-1.442,148.0,96.9,0.523
33.2,31736.4,34441.6,-1.3231,-1.373,148.0,96.9,0.523
33.22,31871.2,34824.4,-0.6498,-0.4316,148.0,96.9,0.523
33.24,32054.3,35170.9,0.265,0.4204,148.0,96.9,0.523
33.26,32262.2,35493.1,1.3031,1.2128,148.0,96.9,0.523
33.28,32346.2,35722.7,1.723,1.7776,148.0,96.9,0.523
33.3,32314.4,35733.7,1.5639,1.8045,148.0,96.9,0.523
33.32,32208.1,35569.9,1.0331,1.4016,148.0,96.9,0.523
33.34,32151.0,35353.8,0.7477,0.8703,148.0,96.9,0.523
33.36,32086.4,35118.5,0.4249,0.2915,148.0,96.9,0.523
33.38,32028.6,35105.0,0.1363,0.2585,148.0,96.9,0.523
33.4,32009.7,35119.3,0.0421,0.2937,148.0,96.9,0.523
33.42,32108.7,34956.2,0.5367,-0.1075,148.0,96.9,0.523
33.44,31954.1,34867.9,-0.2355,-0.3245,148.0,96.9,0.523
33.46,31811.0,34763.0,-0.9506,-0.5827,148.0,96.9,0.523
33.48,31854.8,34725.4,-0.7316,-0.675,148.0,96.9,0.523
33.5,31873.9,34612.7,-0.6365,-0.9522,148.0,96.9,0.523
33.52,31763.8,34654.8,-1.1864,-0.8486,148.0,96.9,0.523
33.54,31769.3,34535.4,-1.159,-1.1423,148.0,96.9,0.523
33.56,31757.2,34525.2,-1.2194,-1.1674,148.0,96.9,0.523
33.58,31753.1,34455.0,-1.2396,-1.3401,148.0,96.9,0.523
33.6,31724.2,34501.6,-1.384,-1.2255,148.0,96.9,0.523
33.62,31836.8,34744.3,-0.8218,-0.6285,148.0,96.9,0.523
33.64,32151.2,35129.3,0.7488,0.3181,148.0,96.9,0.523
33.66,32198.3,35490.1,0.9843,1.2056,148.0,96.9,0.523
33.68,32357.8,35726.6,1.7808,1.7871,148.0,96.9,0.523
33.7,32336.1,35812.7,1.6724,1.9989,148.0,96.9,0.523
33.72,32374.5,35591.6,1.8643,1.455,148.0,96.9,0.523
33.74,32094.2,35400.8,0.4639,0.9858,148.0,96.9,0.523
33.76,32094.6,35274.5,0.4662,0.6754,148.0,96.9,0.523
33.78,32007.0,35068.6,0.0287,0.1689,148.0,96.9,0.523
33.8,31981.0,35058.0,-0.1014,0.143,148.0,96.9,0.523
33.82,31992.2,35008.3,-0.0456,0.0207,148.0,96.9,0.523
33.84,31942.9,34903.8,-0.2916,-0.2364,148.0,96.9,0.523
33.86,31905.4,34843.7,-0.4791,-0.3842,148.0,96.9,0.523
33.88,31926.6,34757.0,-0.3733,-0.5973,148.0,96.9,0.523
33.9,31859.3,34711.3,-0.7092,-0.7098,148.0,96.9,0.523
33.92,31747.6,34773.2,-1.2672,-0.5576,148.0,96.9,0.523
33.94,31876.9,34564.1,-0.6216,-1.0718,148.0,96.9,0.523
33.96,31896.2,34560.5,-0.5247,-1.0807,148.0,96.9,0.523
33.98,31697.6,34386.1,-1.517,-1.5095,148.0,96.9,0.523
34.0,31772.8,34579.6,-1.1411,-1.0335,148.0,96.9,0.523
34.02,31835.3,34675.6,-0.8292,-0.7976,148.0,96.9,0.523
34.04,31967.4,35138.3,-0.1695,0.3403,148.0,96.9,0.523
34.06,32167.2,35288.6,0.8287,0.71,148.0,96.9,0.523
34.08,32354.2,35672.3,1.763,1.6536,148.0,96.9,0.523
34.1,32426.1,35698.0,2.1219,1.7167,148.0,96.9,0.523
34.12,32292.8,35543.0,1.4563,1.3355,148.0,96.9,0.523
34.14,32223.4,35422.4,1.1098,1.039,148.0,96.9,0.523
34.16,32108.1,35220.3,0.5337,0.542,148.0,96.9,0.523
34.18,31994.3,35157.4,-0.0349,0.3874,148.0,96.9,0.523
34.2,32077.7,35026.0,0.3817,0.0641,148.0,96.9,0.523
34.22,32014.3,35024.1,0.0651,0.0595,148.0,96.9,0.523
34.24,31986.7,34993.9,-0.0726,-0.0147,148.0,96.9,0.523
34.26,31915.3,34874.5,-0.4295,-0.3084,148.0,96.9,0.523
34.28,31796.3,34731.2,-1.0241,-0.6609,148.0,96.9,0.523
34.3,31770.2,34625.7,-1.1544,-0.9203,148.0,96.9,0.523
34.32,31837.6,34700.9,-0.8176,-0.7354,148.0,96.9,0.523
34.34,31843.3,34616.7,-0.7892,-0.9423,148.0,96.9,0.523
34.36,31809.6,34509.9,-0.9575,-1.2051,148.0,96.9,0.523
34.38,31889.1,34445.4,-0.5606,-1.3635,148.0,96.9,0.523
34.4,31715.1,34466.3,-1.4297,-1.3123,148.0,96.9,0.523
34.42,31800.4,34532.8,-1.0035,-1.1486,148.0,96.9,0.523
34.44,31888.1,34900.5,-0.5653,-0.2444,148.0,96.9,0.523
34.46,32123.5,35258.4,0.6106,0.6356,148.0,96.9,0.523
34.48,32258.9,35509.2,1.287,1.2524,148.0,96.9,0.523
34.5,32387.2,35858.9,1.9276,2.1124,148.0,96.9,0.523
34.52,32302.9,35615.0,1.5067,1.5127,148.0,96.9,0.523
34.54,32119.7,35486.8,0.5915,1.1973,148.0,96.9,0.523
34.56,32128.2,35288.7,0.6342,0.7103,148.0,96.9,0.523
34.58,32134.8,35264.4,0.6667,0.6503,148.0,96.9,0.523
34.6,32100.8,35032.0,0.4971,0.0788,148.0,96.9,0.523
34.62,31971.8,35021.8,-0.1475,0.0537,148.0,96.9,0.523
34.64,32070.0,35074.6,0.3434,0.1836,148.0,96.9,0.523
34.66,32021.6,34998.1,0.1015,-0.0044,148.0,96.9,0.523
34.68,31943.9,34777.2,-0.2865,-0.5477,148.0,96.9,0.523
34.7,31805.0,34759.8,-0.9805,-0.5906,148.0,96.9,0.523
34.72,31801.0,34657.2,-1.0005,-0.8429,148.0,96.9,0.523
34.74,31706.1,34574.9,-1.4746,-1.0452,148.0,96.9,0.523
34.76,31748.9,34639.2,-1.2609,-0.887,148.0,96.9,0.523
34.78,31784.7,34505.1,-1.0819,-1.2169,148.0,96.9,0.523
34.8,31717.7,34408.6,-1.4164,-1.4542,148.0,96.9,0.523
34.82,31799.3,34541.8,-1.0088,-1.1265,148.0,96.9,0.523
34.84,31905.6,34827.4,-0.4779,-0.4241,148.0,96.9,0.523
34.86,32024.9,35238.8,0.1178,0.5875,148.0,96.9,0.523
34.88,32225.8,35566.4,1.1213,1.3931,148.0,96.9,0.523
34.9,32358.0,35769.4,1.7821,1.8923,148.0,96.9,0.523
34.92,32329.1,35744.9,1.6374,1.832,148.0,96.9,0.523
34.94,32285.5,35654.0,1.4199,1.6086,148.0,96.9,0.523
34.96,32265.5,35403.0,1.3197,0.9913,148.0,96.9,0.523
34.98,32108.3,35185.8,0.5346,0.4572,148.0,96.9,0.523
35.0,32135.2,35190.8,0.6689,0.4694,148.0,96.9,0.523
35.02,31991.9,35026.8,-0.0469,0.066,148.0,96.9,0.523
35.04,31979.2,34993.3,-0.1103,-0.0163,148.0,96.9,0.523
35.06,31973.7,34944.3,-0.138,-0.1368,148.0,96.9,0.523
35.08,31918.2,34783.8,-0.4148,-0.5314,148.0,96.9,0.523
35.1,31828.3,34803.2,-0.8639,-0.4839,148.0,96.9,0.523
35.12,31806.1,34690.8,-0.9748,-0.7601,148.0,96.9,0.523
35.14,31896.3,34684.1,-0.5245,-0.7767,148.0,96.9,0.523
35.16,31803.8,34672.5,-0.9864,-0.8051,148.0,96.9,0.523
35.18,31833.1,34469.2,-0.8401,-1.3051,148.0,96.9,0.523
35.2,31814.1,34369.3,-0.9351,-1.5507,148.0,96.9,0.523
35.22,31723.0,34436.6,-1.3903,-1.3853,148.0,96.9,0.523
35.24,31843.2,34715.6,-0.7896,-0.6991,148.0,96.9,0.523
35.26,32005.0,35024.1,0.0187,0.0594,148.0,96.9,0.523
35.28,32132.3,35461.8,0.6545,1.1359,148.0,96.9,0.523
35.3,32312.6,35699.8,1.5552,1.7213,148.0,96.9,0.523
35.32,32375.5,35765.2,1.8695,1.882,148.0,96.9,0.523
35.34,32348.1,35528.3,1.7325,1.2993,148.0,96.9,0.523
35.36,32113.8,35381.5,0.5622,0.9384,148.0,96.9,0.523
35.38,32194.6,35230.9,0.9659,0.5681,148.0,96.9,0.523
35.4,31995.8,35077.1,-0.0273,0.1898,148.0,96.9,0.523
35.42,32048.6,35068.4,0.2364,0.1685,148.0,96.9,0.523
35.44,32093.7,34944.8,0.4615,-0.1356,148.0,96.9,0.523
35.46,31978.2,34874.1,-0.1153,-0.3094,148.0,96.9,0.523
35.48,31887.2,34839.0,-0.5698,-0.3957,148.0,96.9,0.523
35.5,31852.9,34647.3,-0.7413,-0.8672,148.0,96.9,0.523
35.52,31825.6,34736.5,-0.8775,-0.6478,148.0,96.9,0.523
35.54,31814.2,34590.0,-0.9345,-1.008,148.0,96.9,0.523
35.56,31798.8,34526.2,-1.0115,-1.165,148.0,96.9,0.523
35.58,31744.1,34497.3,-1.2847,-1.2361,148.0,96.9,0.523
35.6,31796.7,34474.1,-1.022,-1.2932,148.0,96.9,0.523
35.62,31730.9,34479.5,-1.3504,-1.2798,148.0,96.9,0.523
35.64,31733.0,34690.2,-1.3401,-0.7616,148.0,96.9,0.523
35.66,31906.3,34977.8,-0.4747,-0.0543,148.0,96.9,0.523
35.68,32162.0,35397.8,0.8029,0.9786,148.0,96.9,0.523
35.7,32358.7,35635.7,1.7854,1.5635,148.0,96.9,0.523
35.72,32307.3,35766.7,1.5284,1.8856,148.0,96.9,0.523
35.74,32311.4,35642.9,1.549,1.5811,148.0,96.9,0.523
35.76,32217.6,35507.6,1.0807,1.2485,148.0,96.9,0.523
35.78,32166.7,35289.8,0.8265,0.7128,148.0,96.9,0.523
35.8,32081.0,35206.7,0.3984,0.5084,148.0,96.9,0.523
35.82,32003.6,35091.9,0.0115,0.2262,148.0,96.9,0.523
35.84,32064.9,34951.3,0.3179,-0.1195,148.0,96.9,0.523
35.86,31908.1,34978.5,-0.4655,-0.0527,148.0,96.9,0.523
35.88,32002.3,34899.4,0.0051,-0.2473,148.0,96.9,0.523
35.9,31847.3,34715.3,-0.7691,-0.6998,148.0,96.9,0.523
35.92,31831.1,34699.3,-0.85,-0.7393,148.0,96.9,0.523
35.94,31921.4,34687.6,-0.3992,-0.768,148.0,96.9,0.523
35.96,31911.2,34624.0,-0.4498,-0.9245,148.0,96.9,0.523
35.98,31770.3,34534.2,-1.1538,-1.1453,148.0,96.9,0.523
36.0,31708.9,34504.3,-1.4605,-1.2187,148.0,96.9,0.523
36.02,31739.7,34363.9,-1.3067,-1.5641,148.0,96.9,0.523
36.04,31811.5,34539.6,-0.9481,-1.1321,148.0,96.9,0.523
36.06,31884.0,34816.9,-0.5857,-0.45,148.0,96.9,0.523
36.08,32118.2,35306.2,0.5839,0.7531,148.0,96.9,0.523
36.1,32190.2,35652.6,0.9435,1.605,148.0,96.9,0.523
36.12,32316.1,35786.1,1.5726,1.9335,148.0,96.9,0.523
36.14,32372.4,35781.3,1.854,1.9217,148.0,96.9,0.523
36.16,32217.0,35538.7,1.0778,1.325,148.0,96.9,0.523
36.18,32165.2,35315.7,0.819,0.7765,148.0,96.9,0.523
36.2,32054.1,35213.8,0.2639,0.526,148.0,96.9,0.523
36.22,32086.8,35102.4,0.4272,0.252,148.0,96.9,0.523
36.24,32109.9,35014.4,0.5426,0.0356,148.0,96.9,0.523
36.26,32000.5,35086.8,-0.004,0.2137,148.0,96.9,0.523
36.28,31971.8,34889.6,-0.1472,-0.2712,148.0,96.9,0.523
36.3,31939.3,34711.0,-0.3098,-0.7106,148.0,96.9,0.523
36.32,31870.2,34655.2,-0.6547,-0.8477,148.0,96.9,0.523
36.34,31836.4,34727.1,-0.8236,-0.6708,148.0,96.9,0.523
36.36,31894.8,34678.9,-0.5317,-0.7895,148.0,96.9,0.523
36.38,31861.6,34568.1,-0.6977,-1.062,148.0,96.9,0.523
36.4,31718.9,34546.3,-1.4105,-1.1154,148.0,96.9,0.523
36.42,31762.9,34432.1,-1.1908,-1.3964,148.0,96.9,0.523
36.44,31774.4,34483.1,-1.1334,-1.271,148.0,96.9,0.523
36.46,31798.9,34713.9,-1.0109,-0.7034,148.0,96.9,0.523
36.48,32116.6,35074.5,0.5762,0.1835,148.0,96.9,0.523
36.5,32219.8,35624.8,1.0917,1.5366,148.0,96.9,0.523
36.52,32386.1,35784.3,1.9222,1.929,148.0,96.9,0.523
36.54,32350.7,35808.0,1.7456,1.9872,148.0,96.9,0.523
36.56,32188.8,35544.0,0.9368,1.3381,148.0,96.9,0.523
36.58,32116.8,35460.1,0.5771,1.1317,148.0,96.9,0.523
36.6,32092.3,35204.6,0.4548,0.5033,148.0,96.9,0.523
36.62,32042.3,35030.0,0.2049,0.074,148.0,96.9,0.523
36.64,32117.2,35042.8,0.5791,0.1054,148.0,96.9,0.523
36.66,32038.2,34951.4,0.1844,-0.1192,148.0,96.9,0.523
36.68,31908.4,34911.5,-0.4638,-0.2175,148.0,96.9,0.523
36.7,31848.2,34789.1,-0.7646,-0.5184,148.0,96.9,0.523
36.72,31852.8,34654.5,-0.7416,-0.8495,148.0,96.9,0.523
36.74,31871.8,34749.0,-0.6466,-0.6172,148.0,96.9,0.523
36.76,31829.6,34690.4,-0.8577,-0.7612,148.0,96.9,0.523
36.78,31850.5,34654.1,-0.7532,-0.8504,148.0,96.9,0.523
36.8,31678.2,34544.8,-1.6137,-1.1192,148.0,96.9,0.523
36.82,31780.4,34468.3,-1.1036,-1.3074,148.0,96.9,0.523
36.84,31776.6,34513.8,-1.1224,-1.1954,148.0,96.9,0.523
36.86,31879.5,34736.9,-0.6081,-0.6469,148.0,96.9,0.523
36.88,31891.6,35009.7,-0.5478,0.0242,148.0,96.9,0.523
36.9,32234.9,35446.7,1.1669,1.0988,148.0,96.9,0.523
36.92,32320.1,35708.2,1.5924,1.7418,148.0,96.9,0.523
36.94,32366.3,35735.4,1.8232,1.8088,148.0,96.9,0.523
36.96,32319.5,35622.3,1.5896,1.5307,148.0,96.9,0.523
36.98,32192.5,35406.0,0.9553,0.9987,148.0,96.9,0.523
37.0,32038.6,35290.5,0.1865,0.7147,148.0,96.9,0.523
37.02,32073.5,35083.9,0.3607,0.2066,148.0,96.9,0.523
37.04,32135.1,35098.7,0.6687,0.2429,148.0,96.9,0.523
37.06,32012.6,34962.0,0.0566,-0.0931,148.0,96.9,0.523
37.08,31989.6,34886.8,-0.0584,-0.2781,148.0,96.9,0.523
37.1,31939.6,34766.2,-0.308,-0.5746,148.0,96.9,0.523
37.12,31848.2,34649.2,-0.7649,-0.8626,148.0,96.9,0.523
37.14,31805.0,34702.1,-0.9807,-0.7324,148.0,96.9,0.523
37.16,31894.4,34685.5,-0.5338,-0.7731,148.0,96.9,0.523
37.18,31773.3,34660.0,-1.1389,-0.836,148.0,96.9,0.523
37.2,31842.6,34509.5,-0.7927,-1.2061,148.0,96.9,0.523
37.22,31884.2,34512.4,-0.5848,-1.1988,148.0,96.9,0.523
37.24,31750.1,34438.8,-1.2546,-1.3798,148.0,96.9,0.523
37.26,31898.1,34651.5,-0.5155,-0.8567,148.0,96.9,0.523
37.28,32006.4,34965.1,0.0253,-0.0856,148.0,96.9,0.523
37.3,32148.8,35270.3,0.7368,0.6648,148.0,96.9,0.523
37.32,32273.7,35540.5,1.3605,1.3295,148.0,96.9,0.523
37.34,32383.1,35774.9,1.9072,1.9059,148.0,96.9,0.523
37.36,32367.1,35754.8,1.8272,1.8563,148.0,96.9,0.523
37.38,32297.1,35462.0,1.4778,1.1365,148.0,96.9,0.523
37.4,32153.1,35256.3,0.7584,0.6305,148.0,96.9,0.523
37.42,32038.1,35221.9,0.184,0.5458,148.0,96.9,0.523
37.44,32067.8,35026.2,0.3323,0.0647,148.0,96.9,0.523
37.46,31991.9,35070.9,-0.0471,0.1747,148.0,96.9,0.523
37.48,31973.9,35031.4,-0.1368,0.0775,148.0,96.9,0.523
37.5,31868.4,34803.8,-0.6639,-0.4824,148.0,96.9,0.523
37.52,31811.2,34767.0,-0.9494,-0.5728,148.0,96.9,0.523
37.54,31863.3,34580.8,-0.6893,-1.0308,148.0,96.9,0.523
37.56,31846.0,34632.9,-0.7758,-0.9025,148.0,96.9,0.523
37.58,31843.9,34584.9,-0.7862,-1.0206,148.0,96.9,0.523
37.6,31809.8,34594.1,-0.9564,-0.9981,148.0,96.9,0.523
37.62,31659.9,34394.0,-1.7054,-1.49,148.0,96.9,0.523
37.64,31784.3,34425.5,-1.0839,-1.4126,148.0,96.9,0.523
37.66,31706.8,34572.0,-1.4713,-1.0524,148.0,96.9,0.523
37.68,31836.3,34853.3,-0.8243,-0.3606,148.0,96.9,0.523
37.7,32211.2,35211.7,1.0484,0.5209,148.0,96.9,0.523
37.72,32283.9,35575.1,1.4118,1.4144,148.0,96.9,0.523
37.74,32384.8,35696.6,1.9159,1.7133,148.0,96.9,0.523
37.76,32350.6,35767.6,1.7448,1.8878,148.0,96.9,0.523
37.78,32287.5,35574.5,1.4298,1.4132,148.0,96.9,0.523
37.8,32037.6,35400.7,0.1816,0.9856,148.0,96.9,0.523
37.82,31955.9,35326.9,-0.2265,0.8042,148.0,96.9,0.523
37.84,32062.9,35066.3,0.3077,0.1634,148.0,96.9,0.523
37.86,32070.8,35051.0,0.347,0.1256,148.0,96.9,0.523
37.88,31968.4,34957.2,-0.1643,-0.1051,148.0,96.9,0.523
37.9,31982.3,34871.2,-0.0947,-0.3165,148.0,96.9,0.523
37.92,31899.5,34726.4,-0.5084,-0.6727,148.0,96.9,0.523
37.94,31908.8,34730.2,-0.462,-0.6633,148.0,96.9,0.523
37.96,31886.9,34709.5,-0.5712,-0.7141,148.0,96.9,0.523
37.98,31831.2,34682.8,-0.8497,-0.78,148.0,96.9,0.523
38.0,31829.8,34516.4,-0.8567,-1.1891,148.0,96.9,0.523
38.02,31789.3,34546.8,-1.0589,-1.1143,148.0,96.9,0.523
38.04,31711.0,34475.1,-1.4502,-1.2907,148.0,96.9,0.523
38.06,31774.8,34580.3,-1.1314,-1.0319,148.0,96.9,0.523
38.08,31921.8,34704.9,-0.3971,-0.7256,148.0,96.9,0.523
38.1,32099.7,35040.0,0.4917,0.0987,148.0,96.9,0.523
38.12,32292.9,35486.4,1.4568,1.1964,148.0,96.9,0.523
38.14,32445.4,35658.5,2.2184,1.6197,148.0,96.9,0.523
38.16,32423.7,35783.4,2.1102,1.9268,148.0,96.9,0.523
38.18,32281.7,35600.0,1.4006,1.4758,148.0,96.9,0.523
38.2,32241.6,35503.9,1.2003,1.2394,148.0,96.9,0.523
38.22,32170.9,35264.9,0.8473,0.6518,148.0,96.9,0.523
38.24,32098.2,35139.1,0.4841,0.3423,148.0,96.9,0.523
38.26,32044.4,35166.5,0.2152,0.4097,148.0,96.9,0.523
38.28,31966.3,34971.2,-0.1749,-0.0705,148.0,96.9,0.523
38.3,31997.0,35007.1,-0.0215,0.0176,148.0,96.9,0.523
38.32,31940.1,34774.6,-0.3054,-0.5542,148.0,96.9,0.523
38.34,31805.1,34754.1,-0.9801,-0.6046,148.0,96.9,0.523
38.36,31878.3,34693.0,-0.6141,-0.7548,148.0,96.9,0.523
38.38,31849.3,34661.5,-0.7593,-0.8321,148.0,96.9,0.523
38.4,31812.9,34666.6,-0.9412,-0.8196,148.0,96.9,0.523
38.42,31752.1,34522.6,-1.2446,-1.1738,148.0,96.9,0.523
38.44,31723.4,34534.8,-1.3882,-1.1438,148.0,96.9,0.523
38.46,31709.9,34487.8,-1.4555,-1.2594,148.0,96.9,0.523
38.48,31711.3,34708.1,-1.4488,-0.7177,148.0,96.9,0.523
38.5,31972.0,35060.8,-0.1462,0.1498,148.0,96.9,0.523
38.52,32118.1,35398.2,0.5835,0.9795,148.0,96.9,0.523
38.54,32259.7,35682.9,1.2909,1.6796,148.0,96.9,0.523
38.56,32266.2,35758.6,1.3235,1.8659,148.0,96.9,0.523
38.58,32284.0,35650.6,1.412,1.6002,148.0,96.9,0.523
38.6,32212.8,35394.0,1.0563,0.9691,148.0,96.9,0.523
38.62,32159.2,35243.2,0.7887,0.5983,148.0,96.9,0.523
38.64,32027.6,35232.4,0.1314,0.5717,148.0,96.9,0.523
38.66,32109.2,35127.6,0.5392,0.314,148.0,96.9,0.523
38.68,32080.7,34960.6,0.3964,-0.0966,148.0,96.9,0.523
38.7,31941.7,34913.3,-0.2975,-0.213,148.0,96.9,0.523
38.72,32000.2,34861.7,-0.0055,-0.3399,148.0,96.9,0.523
38.74,31881.5,34753.5,-0.5982,-0.6059,148.0,96.9,0.523
38.76,31907.9,34662.1,-0.4665,-0.8308,148.0,96.9,0.523
38.78,31761.1,34642.9,-1.1997,-0.8779,148.0,96.9,0.523
38.8,31796.2,34632.5,-1.0244,-0.9034,148.0,96.9,0.523
38.82,31810.5,34610.4,-0.953,-0.9579,148.0,96.9,0.523
38.84,31747.6,34467.9,-1.2675,-1.3082,148.0,96.9,0.523
38.86,31779.7,34515.8,-1.107,-1.1906,148.0,96.9,0.523
38.88,31811.9,34597.4,-0.9461,-0.9899,148.0,96.9,0.523
38.9,31938.9,34836.2,-0.3119,-0.4025,148.0,96.9,0.523
38.92,32111.8,35301.1,0.5522,0.7407,148.0,96.9,0.523
38.94,32269.0,35597.9,1.3374,1.4706,148.0,96.9,0.523
38.96,32306.9,35803.2,1.5266,1.9755,148.0,96.9,0.523
38.98,32285.1,35627.4,1.4177,1.5431,148.0,96.9,0.523
39.0,32134.5,35519.4,0.6655,1.2776,148.0,96.9,0.523
39.02,32160.4,35283.7,0.7946,0.6979,148.0,96.9,0.523
39.04,32025.3,35220.4,0.1199,0.5423,148.0,96.9,0.523
39.06,32050.5,35142.8,0.246,0.3515,148.0,96.9,0.523
39.08,32081.6,35043.6,0.4013,0.1074,148.0,96.9,0.523
39.1,31853.3,35000.9,-0.7394,0.0025,148.0,96.9,0.523
39.12,31974.9,34897.5,-0.1319,-0.2518,148.0,96.9,0.523
39.14,31893.8,34827.1,-0.5368,-0.4249,148.0,96.9,0.523
39.16,31853.7,34728.2,-0.737,-0.6682,148.0,96.9,0.523
39.18,31866.9,34681.0,-0.6714,-0.7843,148.0,96.9,0.523
39.2,31805.8,34604.7,-0.9763,-0.972,148.0,96.9,0.523
39.22,31749.8,34571.4,-1.2561,-1.0539,148.0,96.9,0.523
39.24,31733.1,34507.7,-1.3396,-1.2103,148.0,96.9,0.523
39.26,31806.4,34482.6,-0.9736,-1.2722,148.0,96.9,0.523
39.28,31847.6,34498.7,-0.7675,-1.2326,148.0,96.9,0.523
39.3,31938.4,34841.3,-0.314,-0.3901,148.0,96.9,0.523
39.32,31975.1,35230.6,-0.1307,0.5672,148.0,96.9,0.523
39.34,32293.2,35564.9,1.4582,1.3894,148.0,96.9,0.523
39.36,32396.3,35724.9,1.973,1.7828,148.0,96.9,0.523
39.38,32421.6,35720.0,2.0995,1.7707,148.0,96.9,0.523
39.4,32310.7,35559.1,1.5457,1.3752,148.0,96.9,0.523
39.42,32152.8,35273.7,0.7567,0.6733,148.0,96.9,0.523
39.44,32031.9,35182.9,0.1531,0.4501,148.0,96.9,0.523
39.46,32031.7,35131.9,0.1518,0.3245,148.0,96.9,0.523
39.48,31988.1,35024.5,-0.0658,0.0606,148.0,96.9,0.523
39.5,31981.7,34998.5,-0.0978,-0.0036,148.0,96.9,0.523
39.52,32031.5,34847.2,0.1508,-0.3755,148.0,96.9,0.523
39.54,31943.7,34786.5,-0.2877,-0.5247,148.0,96.9,0.523
39.56,31712.0,34701.1,-1.4451,-0.7348,148.0,96.9,0.523
39.58,31816.9,34589.6,-0.921,-1.009,148.0,96.9,0.523
39.6,31849.4,34583.2,-0.7589,-1.0249,148.0,96.9,0.523
39.62,31907.4,34633.9,-0.4692,-0.9002,148.0,96.9,0.523
39.64,31739.8,34506.8,-1.3064,-1.2126,148.0,96.9,0.523
39.66,31761.8,34382.1,-1.1963,-1.5194,148.0,96.9,0.523
39.68,31814.6,34531.8,-0.9324,-1.1511,148.0,96.9,0.523
39.7,31857.5,34756.9,-0.7181,-0.5977,148.0,96.9,0.523
39.72,32143.0,35012.2,0.7079,0.0303,148.0,96.9,0.523
39.74,32209.5,35471.8,1.0399,1.1604,148.0,96.9,0.523
39.76,32391.2,35686.4,1.9475,1.6882,148.0,96.9,0.523
39.78,32286.3,35771.2,1.4237,1.8968,148.0,96.9,0.523
39.8,32337.8,35615.5,1.6809,1.5138,148.0,96.9,0.523
39.82,32146.1,35404.3,0.7233,0.9944,148.0,96.9,0.523
39.84,32165.9,35260.0,0.8221,0.6395,148.0,96.9,0.523
39.86,32015.6,35164.9,0.0714,0.4058,148.0,96.9,0.523
39.88,32118.7,35130.1,0.5867,0.3202,148.0,96.9,0.523
39.9,32010.3,34999.9,0.0451,0.0,148.0,96.9,0.523
39.92,31941.2,34946.5,-0.3,-0.1314,148.0,96.9,0.523
39.94,31916.9,34859.4,-0.4213,-0.3456,148.0,96.9,0.523
39.96,31995.7,34766.6,-0.0279,-0.5737,148.0,96.9,0.523
39.98,31841.4,34638.1,-0.7989,-0.8899,148.0,96.9,0.523
40.0,31864.4,34642.6,-0.6836,-0.8788,148.0,96.9,0.523
40.02,31838.9,34635.4,-0.811,-0.8963,148.0,96.9,0.523
40.04,31805.4,34591.8,-0.9787,-1.0035,148.0,96.9,0.523
40.06,31693.7,34370.7,-1.5366,-1.5473,148.0,96.9,0.523
40.08,31832.6,34541.0,-0.8429,-1.1284,148.0,96.9,0.523
40.1,31844.8,34692.8,-0.7818,-0.7552,148.0,96.9,0.523
40.12,31919.7,34960.3,-0.4074,-0.0975,148.0,96.9,0.523
40.14,32201.7,35305.3,1.0012,0.7509,148.0,96.9,0.523
40.16,32349.6,35623.0,1.7399,1.5324,148.0,96.9,0.523
40.18,32281.1,35649.3,1.3978,1.5971,148.0,96.9,0.523
40.2,32263.3,35655.1,1.3086,1.6112,148.0,96.9,0.523
40.22,32186.2,35518.5,0.9239,1.2754,148.0,96.9,0.523
40.24,32166.3,35283.1,0.8241,0.6964,148.0,96.9,0.523
40.26,32047.4,35212.7,0.2304,0.5233,148.0,96.9,0.523
40.28,31959.5,35115.6,-0.2087,0.2844,148.0,96.9,0.523
40.3,32021.6,35048.2,0.1017,0.1187,148.0,96.9,0.523
40.32,31950.2,34915.1,-0.2553,-0.2086,148.0,96.9,0.523
40.34,31948.9,34901.9,-0.2618,-0.2409,148.0,96.9,0.523
40.36,31864.3,34738.3,-0.6845,-0.6434,148.0,96.9,0.523
40.38,31833.6,34584.0,-0.8374,-1.0227,148.0,96.9,0.523
40.4,31809.9,34672.7,-0.956,-0.8046,148.0,96.9,0.523
40.42,31915.2,34610.3,-0.4298,-0.9581,148.0,96.9,0.523
40.44,31768.8,34639.7,-1.1612,-0.8859,148.0,96.9,0.523
40.46,31776.5,34386.7,-1.1229,-1.508,148.0,96.9,0.523
40.48,31703.2,34393.9,-1.4891,-1.4902,148.0,96.9,0.523
40.5,31735.0,34670.7,-1.3299,-0.8096,148.0,96.9,0.523
40.52,31940.0,34848.1,-0.3061,-0.3734,148.0,96.9,0.523
40.54,32159.6,35225.4,0.7909,0.5545,148.0,96.9,0.523
40.56,32260.6,35578.2,1.2954,1.4222,148.0,96.9,0.523
40.58,32466.8,35675.5,2.3254,1.6614,148.0,96.9,0.523
40.6,32314.5,35696.6,1.5648,1.7133,148.0,96.9,0.523
40.62,32206.4,35473.3,1.0246,1.1643,148.0,96.9,0.523
40.64,32131.5,35308.1,0.6507,0.758,148.0,96.9,0.523
40.66,32027.1,35192.0,0.1289,0.4724,148.0,96.9,0.523
40.68,32048.5,35157.0,0.2358,0.3862,148.0,96.9,0.523
40.7,32097.6,35088.9,0.4811,0.2188,148.0,96.9,0.523
40.72,32059.5,34928.4,0.2908,-0.1758,148.0,96.9,0.523
40.74,31993.8,34793.2,-0.0375,-0.5084,148.0,96.9,0.523
40.76,31868.1,34768.3,-0.6654,-0.5696,148.0,96.9,0.523
40.78,31861.5,34646.7,-0.6985,-0.8687,148.0,96.9,0.523
40.8,31833.5,34710.7,-0.8381,-0.7113,148.0,96.9,0.523
40.82,31864.9,34627.5,-0.6813,-0.9159,148.0,96.9,0.523
40.84,31840.0,34616.9,-0.8055,-0.942,148.0,96.9,0.523
40.86,31731.7,34514.0,-1.3467,-1.195,148.0,96.9,0.523
40.88,31725.7,34408.4,-1.3766,-1.4545,148.0,96.9,0.523
40.9,31715.4,34551.4,-1.4282,-1.1029,148.0,96.9,0.523
40.92,31936.6,34856.7,-0.3229,-0.3521,148.0,96.9,0.523
40.94,32095.3,35191.4,0.4696,0.4709,148.0,96.9,0.523
40.96,32301.1,35453.1,1.4979,1.1146,148.0,96.9,0.523
40.98,32359.2,35727.5,1.7878,1.7893,148.0,96.9,0.523
41.0,32272.5,35710.6,1.3547,1.7477,148.0,96.9,0.523
41.02,32210.0,35513.3,1.0424,1.2625,148.0,96.9,0.523
41.04,32201.4,35347.8,0.9998,0.8555,148.0,96.9,0.523
41.06,32096.2,35184.7,0.4742,0.4544,148.0,96.9,0.523
41.08,32060.6,35120.0,0.2965,0.2954,148.0,96.9,0.523
41.1,32065.4,35118.4,0.3204,0.2914,148.0,96.9,0.523
41.12,32028.3,35023.7,0.1351,0.0586,148.0,96.9,0.523
41.14,31843.3,34883.0,-0.7889,-0.2874,148.0,96.9,0.523
41.16,31954.4,34756.4,-0.234,-0.5989,148.0,96.9,0.523
41.18,31937.0,34698.5,-0.3209,-0.7413,148.0,96.9,0.523
41.2,31920.8,34660.6,-0.4022,-0.8345,148.0,96.9,0.523
41.22,31846.2,34655.7,-0.7747,-0.8465,148.0,96.9,0.523
41.24,31728.1,34603.0,-1.3645,-0.9762,148.0,96.9,0.523
41.26,31730.4,34536.3,-1.3529,-1.1402,148.0,96.9,0.523
41.28,31751.3,34401.9,-1.2487,-1.4707,148.0,96.9,0.523
41.3,31764.4,34472.6,-1.1832,-1.2968,148.0,96.9,0.523
41.32,31792.0,34709.0,-1.0456,-0.7154,148.0,96.9,0.523
41.34,32030.4,35035.9,0.1454,0.0885,148.0,96.9,0.523
41.36,32183.8,35385.8,0.9116,0.9489,148.0,96.9,0.523
41.38,32372.3,35576.5,1.8532,1.4179,148.0,96.9,0.523
41.4,32353.3,35768.6,1.7584,1.8902,148.0,96.9,0.523
41.42,32326.3,35650.3,1.6234,1.5994,148.0,96.9,0.523
41.44,32240.2,35510.6,1.1932,1.256,148.0,96.9,0.523
41.46,32139.4,35264.1,0.6899,0.6496,148.0,96.9,0.523
41.48,32018.0,35029.0,0.0834,0.0717,148.0,96.9,0.523
41.5,31932.4,35126.1,-0.344,0.3104,148.0,96.9,0.523
41.52,32006.9,34992.5,0.0281,-0.0182,148.0,96.9,0.523
41.54,31986.5,35010.8,-0.0738,0.0268,148.0,96.9,0.523
41.56,31898.8,34835.2,-0.512,-0.4051,148.0,96.9,0.523
41.58,31897.5,34699.0,-0.5183,-0.74,148.0,96.9,0.523
41.6,31817.9,34663.1,-0.9159,-0.8283,148.0,96.9,0.523
41.62,31841.1,34556.3,-0.8001,-1.0909,148.0,96.9,0.523
41.64,31792.5,34619.1,-1.0428,-0.9364,148.0,96.9,0.523
41.66,31852.9,34561.6,-0.7414,-1.0779,148.0,96.9,0.523
41.68,31640.5,34441.0,-1.8024,-1.3746,148.0,96.9,0.523
41.7,31683.5,34408.0,-1.5875,-1.4555,148.0,96.9,0.523
41.72,31763.2,34636.4,-1.1891,-0.8939,148.0,96.9,0.523
41.74,32025.5,34916.9,0.121,-0.204,148.0,96.9,0.523
41.76,32125.9,35318.4,0.6223,0.7832,148.0,96.9,0.523
41.78,32304.9,35661.7,1.5165,1.6276,148.0,96.9,0.523
41.8,32321.0,35662.7,1.5969,1.63,148.0,96.9,0.523
41.82,32327.4,35717.1,1.6288,1.7637,148.0,96.9,0.523
41.84,32236.4,35483.3,1.1745,1.1887,148.0,96.9,0.523
41.86,32071.7,35251.8,0.3518,0.6195,148.0,96.9,0.523
41.88,32042.6,35173.2,0.2061,0.4261,148.0,96.9,0.523
41.9,32078.9,35047.9,0.3877,0.118,148.0,96.9,0.523
41.92,31959.2,35079.1,-0.2104,0.1947,148.0,96.9,0.523
41.94,31936.7,34979.3,-0.3228,-0.0506,148.0,96.9,0.523
41.96,31970.8,34825.9,-0.1523,-0.4279,148.0,96.9,0.523
41.98,31852.8,34830.8,-0.742,-0.4159,148.0,96.9,0.523
42.0,31847.8,34670.7,-0.7667,-0.8097,148.0,96.9,0.523
42.02,31844.4,34583.3,-0.7839,-1.0245,148.0,96.9,0.523
42.04,31802.2,34595.6,-0.9946,-0.9943,148.0,96.9,0.523
42.06,31857.0,34638.4,-0.7209,-0.8891,148.0,96.9,0.523
42.08,31699.5,34466.2,-1.5076,-1.3125,148.0,96.9,0.523
42.1,31833.3,34394.9,-0.8394,-1.4879,148.0,96.9,0.523
42.12,31793.0,34605.9,-1.0406,-0.969,148.0,96.9,0.523
42.14,32013.6,34875.9,0.0617,-0.305,148.0,96.9,0.523
42.16,32119.1,35235.1,0.5887,0.5783,148.0,96.9,0.523
42.18,32255.8,35536.6,1.2712,1.3199,148.0,96.9,0.523
42.2,32324.2,35737.5,1.6132,1.8139,148.0,96.9,0.523
42.22,32334.0,35741.1,1.6619,1.8227,148.0,96.9,0.523
42.24,32279.8,35625.7,1.391,1.5389,148.0,96.9,0.523
42.26,32218.1,35434.0,1.083,1.0675,148.0,96.9,0.523
42.28,32008.1,35242.9,0.0339,0.5975,148.0,96.9,0.523
42.3,32089.5,35100.2,0.4406,0.2466,148.0,96.9,0.523
42.32,32089.1,35057.3,0.4388,0.141,148.0,96.9,0.523
42.34,31884.4,35004.3,-0.5837,0.0108,148.0,96.9,0.523
42.36,31922.0,34888.3,-0.3962,-0.2746,148.0,96.9,0.523
42.38,31862.5,34719.5,-0.6931,-0.6895,148.0,96.9,0.523
42.4,31851.9,34694.0,-0.746,-0.7524,148.0,96.9,0.523
42.42,31804.5,34691.8,-0.9829,-0.7578,148.0,96.9,0.523
42.44,31835.9,34609.6,-0.8263,-0.9598,148.0,96.9,0.523
42.46,31802.5,34630.9,-0.9931,-0.9075,148.0,96.9,0.523
42.48,31796.5,34485.5,-1.0231,-1.2651,148.0,96.9,0.523
42.5,31738.0,34457.2,-1.3154,-1.3346,148.0,96.9,0.523
42.52,31823.1,34578.6,-0.8903,-1.0362,148.0,96.9,0.523
42.54,31891.2,34780.2,-0.5498,-0.5402,148.0,96.9,0.523
42.56,32059.3,35106.1,0.2898,0.2612,148.0,96.9,0.523
42.58,32250.0,35620.0,1.2423,1.525,148.0,96.9,0.523
42.6,32321.1,35761.4,1.5976,1.8726,148.0,96.9,0.523
42.62,32344.7,35779.5,1.7156,1.9172,148.0,96.9,0.523
42.64,32321.6,35640.3,1.6,1.5748,148.0,96.9,0.523
42.66,32098.4,35386.2,0.4853,0.9499,148.0,96.9,0.523
42.68,32211.2,35234.0,1.0483,0.5756,148.0,96.9,0.523
42.7,32062.2,35061.9,0.3043,0.1524,148.0,96.9,0.523
42.72,32049.6,35042.3,0.2415,0.1043,148.0,96.9,0.523
42.74,31975.7,35027.8,-0.1279,0.0687,148.0,96.9,0.523
42.76,31984.8,34888.6,-0.0824,-0.2738,148.0,96.9,0.523
42.78,31784.6,34837.5,-1.0824,-0.3993,148.0,96.9,0.523
42.8,31842.9,34707.8,-0.7909,-0.7183,148.0,96.9,0.523
42.82,31865.3,34605.5,-0.6792,-0.9699,148.0,96.9,0.523
42.84,31889.5,34578.5,-0.5583,-1.0362,148.0,96.9,0.523
42.86,31675.9,34618.8,-1.6252,-0.9372,148.0,96.9,0.523
42.88,31741.3,34419.5,-1.2987,-1.4274,148.0,96.9,0.523
42.9,31815.9,34465.9,-0.9262,-1.3133,148.0,96.9,0.523
42.92,31741.9,34453.2,-1.2958,-1.3445,148.0,96.9,0.523
42.94,31891.2,34691.4,-0.5499,-0.7588,148.0,96.9,0.523
42.96,32013.3,34932.3,0.06,-0.1664,148.0,96.9,0.523
42.98,32217.6,35467.9,1.0806,1.151,148.0,96.9,0.523
43.0,32369.7,35638.8,1.8404,1.5711,148.0,96.9,0.523
43.02,32241.8,35855.1,1.2015,2.1032,148.0,96.9,0.523
43.04,32328.5,35670.6,1.6347,1.6494,148.0,96.9,0.523
43.06,32277.8,35415.7,1.3814,1.0226,148.0,96.9,0.523
43.08,32133.1,35192.4,0.6584,0.4733,148.0,96.9,0.523
43.1,32121.9,35202.4,0.6025,0.498,148.0,96.9,0.523
43.12,32179.7,35074.3,0.8913,0.1829,148.0,96.9,0.523
43.14,32006.0,34991.9,0.0236,-0.0197,148.0,96.9,0.523
43.16,32008.8,34957.0,0.0375,-0.1055,148.0,96.9,0.523
43.18,31882.8,34811.4,-0.592,-0.4635,148.0,96.9,0.523
43.2,31831.4,34756.0,-0.8487,-0.5998,148.0,96.9,0.523
43.22,31868.9,34666.4,-0.6613,-0.8202,148.0,96.9,0.523
43.24,31855.4,34717.5,-0.7286,-0.6944,148.0,96.9,0.523
43.26,31844.4,34658.6,-0.7836,-0.8394,148.0,96.9,0.523
43.28,31834.4,34537.5,-0.8335,-1.1372,148.0,96.9,0.523
43.3,31747.6,34428.4,-1.267,-1.4056,148.0,96.9,0.523
43.32,31724.1,34415.9,-1.3845,-1.4363,148.0,96.9,0.523
43.34,31817.4,34637.1,-0.9187,-0.8921,148.0,96.9,0.523
43.36,31974.1,34975.8,-0.1358,-0.0593,148.0,96.9,0.523
43.38,32177.5,35369.0,0.8804,0.9077,148.0,96.9,0.523
43.4,32253.9,35653.2,1.262,1.6065,148.0,96.9,0.523
43.42,32372.3,35749.8,1.8534,1.8442,148.0,96.9,0.523
43.44,32270.8,35619.8,1.3464,1.5245,148.0,96.9,0.523
43.46,32283.8,35547.6,1.4112,1.3468,148.0,96.9,0.523
43.48,32082.4,35306.2,0.4052,0.7533,148.0,96.9,0.523
43.5,32072.4,35133.3,0.3553,0.328,148.0,96.9,0.523
43.52,32029.6,35142.9,0.1413,0.3516,148.0,96.9,0.523
43.54,32044.1,35055.2,0.2139,0.1359,148.0,96.9,0.523
43.56,31978.2,34873.7,-0.1154,-0.3105,148.0,96.9,0.523
43.58,31917.4,34856.2,-0.4192,-0.3535,148.0,96.9,0.523
43.6,31863.6,34759.2,-0.6876,-0.5919,148.0,96.9,0.523
43.62,31816.6,34719.9,-0.9226,-0.6887,148.0,96.9,0.523
43.64,31784.5,34630.2,-1.083,-0.9091,148.0,96.9,0.523
43.66,31901.0,34678.8,-0.5012,-0.7898,148.0,96.9,0.523
43.68,31751.3,34527.6,-1.2487,-1.1615,148.0,96.9,0.523
43.7,31737.5,34520.5,-1.3178,-1.1789,148.0,96.9,0.523
43.72,31692.9,34529.3,-1.5406,-1.1573,148.0,96.9,0.523
43.74,31732.2,34578.0,-1.3443,-1.0375,148.0,96.9,0.523
43.76,31891.5,34654.3,-0.5486,-0.8499,148.0,96.9,0.523
43.78,32121.4,35277.7,0.5999,0.683,148.0,96.9,0.523
43.8,32327.5,35523.9,1.6297,1.2885,148.0,96.9,0.523
43.82,32319.5,35758.2,1.5894,1.8649,148.0,96.9,0.523
43.84,32340.8,35667.3,1.6959,1.6413,148.0,96.9,0.523
43.86,32304.7,35567.7,1.5157,1.3964,148.0,96.9,0.523
43.88,32164.4,35329.8,0.815,0.8112,148.0,96.9,0.523
43.9,32176.3,35217.9,0.8744,0.5361,148.0,96.9,0.523
43.92,32197.5,35158.2,0.9803,0.3892,148.0,96.9,0.523
43.94,32047.4,35042.0,0.2302,0.1036,148.0,96.9,0.523
43.96,31939.8,34976.2,-0.3074,-0.0584,148.0,96.9,0.523
43.98,32014.0,34849.7,0.0634,-0.3694,148.0,96.9,0.523
44.0,31816.7,34791.8,-0.9221,-0.5118,148.0,96.9,0.523
44.02,31851.4,34783.3,-0.7488,-0.5327,148.0,96.9,0.523
44.04,31783.1,34703.1,-1.09,-0.7299,148.0,96.9,0.523
44.06,31851.4,34675.4,-0.7486,-0.7979,148.0,96.9,0.523
44.08,31866.7,34629.3,-0.6721,-0.9113,148.0,96.9,0.523
44.1,31731.5,34522.5,-1.3474,-1.1741,148.0,96.9,0.523
44.12,31712.5,34418.3,-1.4426,-1.4303,148.0,96.9,0.523
44.14,31698.6,34523.4,-1.5119,-1.1718,148.0,96.9,0.523
44.16,31836.6,34715.8,-0.8229,-0.6986,148.0,96.9,0.523
44.18,32018.2,35091.7,0.0844,0.2256,148.0,96.9,0.523
44.2,32232.9,35498.2,1.157,1.2254,148.0,96.9,0.523
44.22,32336.9,35605.5,1.6763,1.4893,148.0,96.9,0.523
44.24,32312.2,35735.9,1.5532,1.81,148.0,96.9,0.523
44.26,32415.5,35577.6,2.0693,1.4208,148.0,96.9,0.523
44.28,32254.4,35423.3,1.2644,1.0411,148.0,96.9,0.523
44.3,32077.0,35236.8,0.3783,0.5826,148.0,96.9,0.523
44.32,31963.8,35189.0,-0.1875,0.4649,148.0,96.9,0.523
44.34,32024.0,35088.2,0.1133,0.2171,148.0,96.9,0.523
44.36,32002.6,34994.6,0.0063,-0.013,148.0,96.9,0.523
44.38,31962.8,34886.8,-0.1922,-0.2783,148.0,96.9,0.523
44.4,31949.0,34854.0,-0.2611,-0.3588,148.0,96.9,0.523
44.42,31897.6,34693.6,-0.5181,-0.7533,148.0,96.9,0.523
44.44,31801.9,34671.4,-0.9959,-0.8079,148.0,96.9,0.523
44.46,31890.5,34649.3,-0.5534,-0.8621,148.0,96.9,0.523
44.48,31714.5,34623.9,-1.4324,-0.9247,148.0,96.9,0.523
44.5,31778.5,34503.7,-1.1128,-1.2203,148.0,96.9,0.523
44.52,31670.3,34429.2,-1.6531,-1.4036,148.0,96.9,0.523
44.54,31711.4,34477.2,-1.4483,-1.2855,148.0,96.9,0.523
44.56,31768.5,34625.0,-1.1626,-0.922,148.0,96.9,0.523
44.58,32069.3,34927.1,0.3397,-0.1791,148.0,96.9,0.523
44.6,32245.7,35384.0,1.2208,0.9446,148.0,96.9,0.523
44.62,32337.7,35721.3,1.6807,1.7741,148.0,96.9,0.523
44.64,32351.7,35713.8,1.7504,1.7555,148.0,96.9,0.523
44.66,32234.1,35663.4,1.1631,1.6317,148.0,96.9,0.523
44.68,32213.8,35484.6,1.0614,1.1918,148.0,96.9,0.523
44.7,32158.4,35224.9,0.7846,0.5533,148.0,96.9,0.523
44.72,32050.6,35150.1,0.2463,0.3694,148.0,96.9,0.523
44.74,32022.1,35144.8,0.104,0.3562,148.0,96.9,0.523
44.76,32052.8,35014.6,0.2575,0.0361,148.0,96.9,0.523
44.78,31919.4,35029.1,-0.4092,0.0717,148.0,96.9,0.523
44.8,31872.3,34909.4,-0.6444,-0.2227,148.0,96.9,0.523
44.82,31867.0,34696.7,-0.6708,-0.7457,148.0,96.9,0.523
44.84,31822.2,34688.7,-0.8945,-0.7653,148.0,96.9,0.523
