timestamp,raw_red,raw_ir,filtered_red,filtered_ir,heart_rate,spo2,ac_dc_ratio
0.0,32093.6,35197.3,0.1266,0.2296,143.7,97.3,0.507
0.02,32273.9,35494.4,0.383,0.5948,143.7,97.3,0.507
0.04,32365.6,35749.1,0.5133,0.9079,143.7,97.3,0.507
0.06,32354.4,35717.4,0.4975,0.8689,143.7,97.3,0.507
0.08,32250.3,35628.7,0.3495,0.7599,143.7,97.3,0.507
0.1,32201.1,35490.2,0.2796,0.5897,143.7,97.3,0.507
0.12,32124.0,35314.4,0.17,0.3736,143.7,97.3,0.507
0.14,32029.7,35080.9,0.0359,0.0865,143.7,97.3,0.507
0.16,32037.1,35111.7,0.0464,0.1245,143.7,97.3,0.507
0.18,32048.6,34996.2,0.0627,-0.0175,143.7,97.3,0.507
0.2,32006.9,34986.0,0.0034,-0.0301,143.7,97.3,0.507
0.22,31815.7,34799.4,-0.2684,-0.2595,143.7,97.3,0.507
0.24,31860.6,34628.9,-0.2046,-0.469,143.7,97.3,0.507
0.26,31822.6,34712.8,-0.2586,-0.3659,143.7,97.3,0.507
0.28,31797.2,34627.6,-0.2947,-0.4707,143.7,97.3,0.507
0.3,31788.4,34614.3,-0.3071,-0.487,143.7,97.3,0.507
0.32,31737.1,34612.6,-0.3802,-0.4891,143.7,97.3,0.507
0.34,31790.0,34520.2,-0.3049,-0.6026,143.7,97.3,0.507
0.36,31757.2,34446.7,-0.3515,-0.693,143.7,97.3,0.507
0.38,31710.4,34507.4,-0.4181,-0.6184,143.7,97.3,0.507
0.4,31982.7,34831.1,-0.0309,-0.2205,143.7,97.3,0.507
0.42,32079.2,35205.5,0.1062,0.2397,143.7,97.3,0.507
0.44,32153.2,35551.4,0.2114,0.6649,143.7,97.3,0.507
0.46,32323.0,35754.6,0.4529,0.9147,143.7,97.3,0.507
0.48,32302.5,35723.5,0.4237,0.8764,143.7,97.3,0.507
0.5,32256.7,35638.6,0.3585,0.772,143.7,97.3,0.507
0.52,32248.4,35448.7,0.3468,0.5386,143.7,97.3,0.507
0.54,32168.3,35268.9,0.2329,0.3177,143.7,97.3,0.507
0.56,32086.1,35211.1,0.116,0.2466,143.7,97.3,0.507
0.58,32029.0,34980.0,0.0348,-0.0375,143.7,97.3,0.507
0.6,31960.1,35026.1,-0.063,0.0192,143.7,97.3,0.507
0.62,31839.8,34996.0,-0.2341,-0.0178,143.7,97.3,0.507
0.64,31976.3,34694.0,-0.0401,-0.389,143.7,97.3,0.507
0.66,31875.3,34708.2,-0.1836,-0.3715,143.7,97.3,0.507
0.68,31890.5,34660.8,-0.1621,-0.4298,143.7,97.3,0.507
0.7,31821.0,34618.0,-0.2608,-0.4824,143.7,97.3,0.507
0.72,31850.2,34634.0,-0.2193,-0.4628,143.7,97.3,0.507
0.74,31811.1,34624.5,-0.2749,-0.4745,143.7,97.3,0.507
0.76,31705.0,34378.5,-0.4258,-0.7768,143.7,97.3,0.507
0.78,31814.5,34500.7,-0.2701,-0.6266,143.7,97.3,0.507
0.8,31854.2,34602.3,-0.2136,-0.5017,143.7,97.3,0.507
0.82,31935.3,34881.4,-0.0983,-0.1587,143.7,97.3,0.507
0.84,32257.6,35289.0,0.3598,0.3423,143.7,97.3,0.507
0.86,32256.2,35513.2,0.3578,0.618,143.7,97.3,0.507
0.88,32351.8,35740.5,0.4938,0.8974,143.7,97.3,0.507
0.9,32428.0,35671.7,0.6021,0.8128,143.7,97.3,0.507
0.92,32289.8,35523.2,0.4056,0.6302,143.7,97.3,0.507
0.94,32119.4,35353.6,0.1633,0.4217,143.7,97.3,0.507
0.96,32092.3,35185.2,0.1249,0.2148,143.7,97.3,0.507
0.98,32040.5,35189.8,0.0512,0.2204,143.7,97.3,0.507
1.0,32060.4,34986.3,0.0795,-0.0297,143.7,97.3,0.507
1.02,31989.4,35117.0,-0.0215,0.1309,143.7,97.3,0.507
1.04,31983.7,34924.8,-0.0296,-0.1053,143.7,97.3,0.507
1.06,31915.4,34715.5,-0.1266,-0.3625,143.7,97.3,0.507
1.08,31849.9,34697.5,-0.2198,-0.3847,143.7,97.3,0.507
1.1,31862.6,34688.0,-0.2017,-0.3963,143.7,97.3,0.507
1.12,31792.2,34706.1,-0.3017,-0.3742,143.7,97.3,0.507
1.14,31805.5,34607.6,-0.2828,-0.4953,143.7,97.3,0.507
1.16,31796.4,34527.1,-0.2958,-0.5942,143.7,97.3,0.507
1.18,31798.4,34550.4,-0.293,-0.5655,143.7,97.3,0.507
1.2,31737.1,34440.6,-0.3802,-0.7005,143.7,97.3,0.507
1.22,31780.9,34637.1,-0.3179,-0.4589,143.7,97.3,0.507
1.24,31925.5,34892.2,-0.1122,-0.1454,143.7,97.3,0.507
1.26,32010.9,35385.8,0.0091,0.4614,143.7,97.3,0.507
1.28,32252.2,35595.0,0.3522,0.7184,143.7,97.3,0.507
1.3,32337.8,35819.3,0.4738,0.9942,143.7,97.3,0.507
1.32,32342.3,35770.7,0.4803,0.9345,143.7,97.3,0.507
1.34,32192.9,35467.9,0.2679,0.5622,143.7,97.3,0.507
1.36,32170.7,35348.8,0.2363,0.4159,143.7,97.3,0.507
1.38,32185.9,35264.4,0.2579,0.3122,143.7,97.3,0.507
1.4,32013.2,35053.2,0.0125,0.0525,143.7,97.3,0.507
1.42,32097.8,35048.8,0.1327,0.0471,143.7,97.3,0.507
1.44,31989.2,34947.5,-0.0218,-0.0774,143.7,97.3,0.507
1.46,31927.0,34933.6,-0.1102,-0.0945,143.7,97.3,0.507
1.48,31923.9,34820.9,-0.1146,-0.233,143.7,97.3,0.507
1.5,31850.4,34747.6,-0.219,-0.3232,143.7,97.3,0.507
1.52,31860.8,34619.5,-0.2042,-0.4806,143.7,97.3,0.507
1.54,31843.8,34651.2,-0.2284,-0.4416,143.7,97.3,0.507
1.56,31804.5,34692.8,-0.2842,-0.3904,143.7,97.3,0.507
1.58,31819.0,34477.4,-0.2637,-0.6553,143.7,97.3,0.507
1.6,31747.3,34368.3,-0.3655,-0.7893,143.7,97.3,0.507
1.62,31801.0,34472.6,-0.2893,-0.6612,143.7,97.3,0.507
1.64,31836.6,34649.0,-0.2387,-0.4443,143.7,97.3,0.507
1.66,31966.0,35026.3,-0.0547,0.0194,143.7,97.3,0.507
1.68,32158.7,35449.9,0.2192,0.5401,143.7,97.3,0.507
1.7,32375.9,35675.2,0.5281,0.8171,143.7,97.3,0.507
1.72,32313.7,35755.9,0.4397,0.9162,143.7,97.3,0.507
1.74,32361.9,35766.0,0.5081,0.9286,143.7,97.3,0.507
1.76,32201.5,35561.8,0.28,0.6776,143.7,97.3,0.507
1.78,32095.6,35331.6,0.1295,0.3947,143.7,97.3,0.507
1.8,32033.5,35243.6,0.0413,0.2865,143.7,97.3,0.507
1.82,32092.7,35179.5,0.1254,0.2077,143.7,97.3,0.507
1.84,32003.2,35068.5,-0.0018,0.0713,143.7,97.3,0.507
1.86,32054.4,34956.8,0.071,-0.066,143.7,97.3,0.507
1.88,31986.9,34882.2,-0.0251,-0.1577,143.7,97.3,0.507
1.9,31865.8,34757.5,-0.1971,-0.311,143.7,97.3,0.507
1.92,31787.6,34666.2,-0.3084,-0.4231,143.7,97.3,0.507
1.94,31792.6,34652.2,-0.3013,-0.4404,143.7,97.3,0.507
1.96,31850.7,34729.3,-0.2186,-0.3456,143.7,97.3,0.507
1.98,31745.5,34640.6,-0.3681,-0.4547,143.7,97.3,0.507
2.0,31803.8,34549.3,-0.2852,-0.5669,143.7,97.3,0.507
2.02,31760.8,34429.6,-0.3464,-0.7141,143.7,97.3,0.507
2.04,31803.2,34475.2,-0.2861,-0.658,143.7,97.3,0.507
2.06,31873.3,34677.3,-0.1865,-0.4095,143.7,97.3,0.507
2.08,31973.3,34972.5,-0.0443,-0.0467,143.7,97.3,0.507
2.1,32188.0,35322.6,0.2609,0.3837,143.7,97.3,0.507
2.12,32215.3,35659.1,0.2997,0.7972,143.7,97.3,0.507
2.14,32412.9,35730.3,0.5807,0.8848,143.7,97.3,0.507
2.16,32343.2,35558.5,0.4816,0.6736,143.7,97.3,0.507
2.18,32187.9,35424.9,0.2607,0.5094,143.7,97.3,0.507
2.2,32184.0,35257.9,0.2553,0.3041,143.7,97.3,0.507
2.22,32127.5,35187.2,0.1749,0.2172,143.7,97.3,0.507
2.24,32018.0,35198.7,0.0192,0.2314,143.7,97.3,0.507
2.26,31991.7,35081.8,-0.0182,0.0877,143.7,97.3,0.507
2.28,31956.1,34992.3,-0.0688,-0.0223,143.7,97.3,0.507
2.3,31949.8,34902.1,-0.0777,-0.1333,143.7,97.3,0.507
2.32,31866.3,34678.7,-0.1965,-0.4078,143.7,97.3,0.507
2.34,31820.5,34755.0,-0.2616,-0.314,143.7,97.3,0.507
2.36,31873.4,34778.3,-0.1863,-0.2854,143.7,97.3,0.507
2.38,31816.3,34578.4,-0.2676,-0.5311,143.7,97.3,0.507
2.4,31756.6,34653.0,-0.3524,-0.4394,143.7,97.3,0.507
2.42,31767.6,34509.7,-0.3367,-0.6155,143.7,97.3,0.507
2.44,31690.8,34526.6,-0.4459,-0.5947,143.7,97.3,0.507
2.46,31781.0,34501.3,-0.3177,-0.6259,143.7,97.3,0.507
2.48,31948.7,34675.7,-0.0793,-0.4115,143.7,97.3,0.507
2.5,31999.8,35067.5,-0.0066,0.0701,143.7,97.3,0.507
2.52,32280.8,35426.9,0.3929,0.5118,143.7,97.3,0.507
2.54,32330.3,35577.4,0.4632,0.6968,143.7,97.3,0.507
2.56,32347.3,35650.5,0.4874,0.7867,143.7,97.3,0.507
2.58,32364.9,35617.6,0.5123,0.7462,143.7,97.3,0.507
2.6,32252.8,35396.5,0.353,0.4745,143.7,97.3,0.507
2.62,32117.4,35340.3,0.1606,0.4054,143.7,97.3,0.507
2.64,32072.6,35087.4,0.0968,0.0946,143.7,97.3,0.507
2.66,31993.4,35135.5,-0.0158,0.1537,143.7,97.3,0.507
2.68,32028.6,35016.2,0.0343,0.007,143.7,97.3,0.507
2.7,31982.4,34883.6,-0.0315,-0.156,143.7,97.3,0.507
2.72,31948.5,34817.9,-0.0796,-0.2367,143.7,97.3,0.507
2.74,31900.9,34764.5,-0.1472,-0.3024,143.7,97.3,0.507
2.76,31788.6,34672.5,-0.3069,-0.4155,143.7,97.3,0.507
2.78,31846.3,34611.7,-0.2249,-0.4901,143.7,97.3,0.507
2.8,31741.7,34659.9,-0.3736,-0.4309,143.7,97.3,0.507
2.82,31797.6,34600.6,-0.294,-0.5038,143.7,97.3,0.507
2.84,31773.5,34572.3,-0.3284,-0.5386,143.7,97.3,0.507
2.86,31638.7,34473.8,-0.5199,-0.6597,143.7,97.3,0.507
2.88,31739.2,34531.5,-0.3771,-0.5887,143.7,97.3,0.507
2.9,31866.0,34754.1,-0.1968,-0.3152,143.7,97.3,0.507
2.92,32091.8,35055.1,0.1241,0.0548,143.7,97.3,0.507
2.94,32257.0,35440.3,0.359,0.5283,143.7,97.3,0.507
2.96,32385.1,35669.6,0.5412,0.8101,143.7,97.3,0.507
2.98,32444.3,35773.3,0.6252,0.9376,143.7,97.3,0.507
3.0,32315.8,35706.2,0.4427,0.8551,143.7,97.3,0.507
3.02,32203.5,35342.8,0.283,0.4085,143.7,97.3,0.507
3.04,32072.3,35266.4,0.0964,0.3145,143.7,97.3,0.507
3.06,32016.5,35132.9,0.017,0.1505,143.7,97.3,0.507
3.08,32052.6,34995.4,0.0684,-0.0185,143.7,97.3,0.507
3.1,32039.5,35015.1,0.0498,0.0057,143.7,97.3,0.507
3.12,32006.2,34884.4,0.0024,-0.155,143.7,97.3,0.507
3.14,31959.5,34917.2,-0.0639,-0.1147,143.7,97.3,0.507
3.16,31856.1,34795.7,-0.2109,-0.2639,143.7,97.3,0.507
3.18,31801.1,34692.8,-0.2891,-0.3905,143.7,97.3,0.507
3.2,31989.1,34576.2,-0.0218,-0.5338,143.7,97.3,0.507
3.22,31869.2,34751.7,-0.1923,-0.3181,143.7,97.3,0.507
3.24,31821.7,34540.5,-0.2599,-0.5777,143.7,97.3,0.507
3.26,31785.1,34573.5,-0.3119,-0.5371,143.7,97.3,0.507
3.28,31837.9,34496.9,-0.2368,-0.6313,143.7,97.3,0.507
3.3,31824.6,34528.3,-0.2557,-0.5927,143.7,97.3,0.507
3.32,31951.0,34766.1,-0.076,-0.3004,143.7,97.3,0.507
3.34,32082.0,35147.1,0.1102,0.1679,143.7,97.3,0.507
3.36,32184.5,35476.0,0.2559,0.5722,143.7,97.3,0.507
3.38,32221.2,35627.8,0.3081,0.7588,143.7,97.3,0.507
3.4,32318.0,35747.2,0.4457,0.9056,143.7,97.3,0.507
3.42,32311.6,35715.7,0.4367,0.8668,143.7,97.3,0.507
3.44,32148.3,35438.2,0.2044,0.5258,143.7,97.3,0.507
3.46,32155.0,35166.8,0.214,0.1921,143.7,97.3,0.507
3.48,32012.7,35142.2,0.0116,0.1619,143.7,97.3,0.507
3.5,31912.4,35035.4,-0.1309,0.0306,143.7,97.3,0.507
3.52,31986.1,35062.5,-0.0261,0.0639,143.7,97.3,0.507
3.54,31932.0,34944.6,-0.1031,-0.081,143.7,97.3,0.507
3.56,31976.4,34836.7,-0.0399,-0.2136,143.7,97.3,0.507
3.58,31890.3,34716.6,-0.1623,-0.3612,143.7,97.3,0.507
3.6,31911.7,34705.3,-0.1319,-0.3751,143.7,97.3,0.507
3.62,32008.6,34644.6,0.0059,-0.4497,143.7,97.3,0.507
3.64,31828.7,34609.2,-0.2498,-0.4933,143.7,97.3,0.507
3.66,31902.3,34607.2,-0.1452,-0.4957,143.7,97.3,0.507
3.68,31796.4,34400.9,-0.2959,-0.7493,143.7,97.3,0.507
3.7,31755.1,34473.8,-0.3545,-0.6597,143.7,97.3,0.507
3.72,31840.8,34530.5,-0.2327,-0.5899,143.7,97.3,0.507
3.74,31896.5,34798.9,-0.1535,-0.2601,143.7,97.3,0.507
3.76,32165.9,35126.0,0.2294,0.142,143.7,97.3,0.507
3.78,32273.5,35637.9,0.3825,0.7711,143.7,97.3,0.507
3.8,32251.1,35735.4,0.3506,0.8911,143.7,97.3,0.507
3.82,32290.9,35815.1,0.4071,0.989,143.7,97.3,0.507
3.84,32336.9,35473.1,0.4726,0.5687,143.7,97.3,0.507
3.86,32124.7,35418.9,0.1709,0.502,143.7,97.3,0.507
3.88,32090.3,35231.3,0.122,0.2715,143.7,97.3,0.507
3.9,31993.5,35151.5,-0.0156,0.1734,143.7,97.3,0.507
3.92,32024.4,35149.3,0.0283,0.1707,143.7,97.3,0.507
3.94,32038.3,35021.5,0.0481,0.0135,143.7,97.3,0.507
3.96,32038.6,34931.8,0.0485,-0.0967,143.7,97.3,0.507
3.98,31949.3,34794.6,-0.0785,-0.2654,143.7,97.3,0.507
4.0,31812.0,34784.7,-0.2736,-0.2775,143.7,97.3,0.507
4.02,31822.5,34670.6,-0.2587,-0.4177,143.7,97.3,0.507
4.04,31843.6,34745.0,-0.2287,-0.3264,143.7,97.3,0.507
4.06,31753.4,34675.2,-0.3569,-0.4121,143.7,97.3,0.507
4.08,31778.6,34596.8,-0.3212,-0.5085,143.7,97.3,0.507
4.1,31777.7,34483.9,-0.3225,-0.6472,143.7,97.3,0.507
4.12,31749.3,34384.4,-0.3628,-0.7696,143.7,97.3,0.507
4.14,31744.2,34575.8,-0.37,-0.5343,143.7,97.3,0.507
4.16,31893.4,34916.6,-0.158,-0.1154,143.7,97.3,0.507
4.18,32141.0,35196.0,0.1941,0.228,143.7,97.3,0.507
4.2,32209.4,35496.1,0.2913,0.5969,143.7,97.3,0.507
4.22,32316.5,35794.2,0.4436,0.9633,143.7,97.3,0.507
4.24,32415.4,35729.1,0.5842,0.8833,143.7,97.3,0.507
4.26,32276.5,35587.7,0.3868,0.7095,143.7,97.3,0.507
4.28,32177.9,35313.3,0.2465,0.3722,143.7,97.3,0.507
4.3,32063.3,35254.5,0.0837,0.3,143.7,97.3,0.507
4.32,32122.8,35221.2,0.1682,0.2591,143.7,97.3,0.507
4.34,32063.0,35142.5,0.0831,0.1623,143.7,97.3,0.507
4.36,32058.6,35011.2,0.0769,0.0008,143.7,97.3,0.507
4.38,31946.2,34946.7,-0.0828,-0.0784,143.7,97.3,0.507
4.4,31948.6,34759.6,-0.0794,-0.3084,143.7,97.3,0.507
4.42,31923.7,34658.0,-0.1149,-0.4332,143.7,97.3,0.507
4.44,31874.5,34781.6,-0.1848,-0.2813,143.7,97.3,0.507
4.46,31825.8,34626.2,-0.254,-0.4723,143.7,97.3,0.507
4.48,31897.4,34755.1,-0.1522,-0.3139,143.7,97.3,0.507
4.5,31862.6,34678.6,-0.2017,-0.408,143.7,97.3,0.507
4.52,31747.5,34445.8,-0.3654,-0.6941,143.7,97.3,0.507
4.54,31757.7,34412.2,-0.3508,-0.7354,143.7,97.3,0.507
4.56,31785.2,34640.2,-0.3118,-0.4551,143.7,97.3,0.507
4.58,31940.6,34881.1,-0.0908,-0.159,143.7,97.3,0.507
4.6,32171.2,35396.7,0.2371,0.4748,143.7,97.3,0.507
4.62,32276.6,35590.6,0.3869,0.7131,143.7,97.3,0.507
4.64,32271.9,35779.3,0.3802,0.945,143.7,97.3,0.507
4.66,32311.7,35678.7,0.4368,0.8214,143.7,97.3,0.507
4.68,32266.2,35591.9,0.3721,0.7147,143.7,97.3,0.507
4.7,32208.6,35298.9,0.2902,0.3545,143.7,97.3,0.507
4.72,32079.3,35252.5,0.1064,0.2974,143.7,97.3,0.507
4.74,32017.5,35258.5,0.0185,0.3049,143.7,97.3,0.507
4.76,32077.2,35088.8,0.1034,0.0963,143.7,97.3,0.507
4.78,31917.5,35023.5,-0.1237,0.016,143.7,97.3,0.507
4.8,32015.7,34813.8,0.016,-0.2417,143.7,97.3,0.507
4.82,31912.5,34877.0,-0.1308,-0.164,143.7,97.3,0.507
4.84,31926.2,34661.2,-0.1112,-0.4293,143.7,97.3,0.507
4.86,31900.3,34645.3,-0.1481,-0.4488,143.7,97.3,0.507
4.88,31879.4,34663.4,-0.1778,-0.4266,143.7,97.3,0.507
4.9,31903.0,34646.8,-0.1443,-0.447,143.7,97.3,0.507
4.92,31811.9,34505.3,-0.2738,-0.621,143.7,97.3,0.507
4.94,31811.6,34411.3,-0.2742,-0.7365,143.7,97.3,0.507
4.96,31737.6,34441.4,-0.3794,-0.6994,143.7,97.3,0.507
4.98,31802.1,34710.2,-0.2877,-0.3691,143.7,97.3,0.507
5.0,32028.5,34880.8,0.0342,-0.1593,143.7,97.3,0.507
5.02,32166.2,35229.2,0.2299,0.2689,143.7,97.3,0.507
5.04,32313.5,35658.9,0.4394,0.797,143.7,97.3,0.507
5.06,32317.1,35824.1,0.4445,1.0,143.7,97.3,0.507
5.08,32317.4,35639.3,0.4449,0.7729,143.7,97.3,0.507
5.1,32302.6,35554.3,0.4238,0.6685,143.7,97.3,0.507
5.12,32223.1,35260.9,0.3108,0.3077,143.7,97.3,0.507
5.14,32060.5,35212.3,0.0796,0.2481,143.7,97.3,0.507
5.16,32059.4,35149.1,0.078,0.1704,143.7,97.3,0.507
5.18,32093.4,35104.6,0.1265,0.1157,143.7,97.3,0.507
5.2,31943.4,35003.1,-0.0869,-0.0091,143.7,97.3,0.507
5.22,31926.0,34841.4,-0.1116,-0.2078,143.7,97.3,0.507
5.24,31925.4,34740.2,-0.1125,-0.3323,143.7,97.3,0.507
5.26,31868.6,34785.8,-0.1932,-0.2762,143.7,97.3,0.507
5.28,31853.6,34646.4,-0.2145,-0.4476,143.7,97.3,0.507
5.3,31799.4,34590.6,-0.2916,-0.5161,143.7,97.3,0.507
5.32,31777.9,34643.2,-0.3221,-0.4515,143.7,97.3,0.507
5.34,31820.1,34444.8,-0.2621,-0.6953,143.7,97.3,0.507
5.36,31720.4,34448.3,-0.4038,-0.691,143.7,97.3,0.507
5.38,31758.0,34449.8,-0.3504,-0.6891,143.7,97.3,0.507
5.4,31903.7,34581.6,-0.1433,-0.5271,143.7,97.3,0.507
5.42,32056.6,34971.9,0.0741,-0.0475,143.7,97.3,0.507
5.44,32188.4,35269.8,0.2615,0.3188,143.7,97.3,0.507
5.46,32284.0,35665.1,0.3974,0.8047,143.7,97.3,0.507
5.48,32404.8,35666.0,0.5691,0.8057,143.7,97.3,0.507
5.5,32361.7,35713.8,0.5078,0.8645,143.7,97.3,0.507
5.52,32141.6,35556.5,0.195,0.6712,143.7,97.3,0.507
5.54,32231.8,35294.9,0.3232,0.3496,143.7,97.3,0.507
5.56,32062.6,35229.3,0.0826,0.269,143.7,97.3,0.507
5.58,32029.6,35103.2,0.0357,0.1139,143.7,97.3,0.507
5.6,31869.6,35004.9,-0.1918,-0.0068,143.7,97.3,0.507
5.62,31995.2,34937.2,-0.0132,-0.0901,143.7,97.3,0.507
5.64,31902.4,34863.5,-0.1451,-0.1807,143.7,97.3,0.507
5.66,31883.4,34866.5,-0.1722,-0.177,143.7,97.3,0.507
5.68,31816.0,34751.5,-0.2679,-0.3183,143.7,97.3,0.507
5.7,31891.2,34691.5,-0.1611,-0.3921,143.7,97.3,0.507
5.72,31777.2,34681.3,-0.3231,-0.4046,143.7,97.3,0.507
5.74,31807.4,34590.8,-0.2802,-0.5159,143.7,97.3,0.507
5.76,31772.0,34455.8,-0.3305,-0.6817,143.7,97.3,0.507
5.78,31743.7,34442.9,-0.3708,-0.6976,143.7,97.3,0.507
5.8,31823.3,34574.2,-0.2575,-0.5362,143.7,97.3,0.507
5.82,31869.0,34667.9,-0.1925,-0.421,143.7,97.3,0.507
5.84,32025.9,35014.0,0.0305,0.0043,143.7,97.3,0.507
5.86,32227.4,35341.1,0.317,0.4064,143.7,97.3,0.507
5.88,32320.3,35688.1,0.449,0.8329,143.7,97.3,0.507
5.9,32363.8,35801.5,0.5109,0.9722,143.7,97.3,0.507
5.92,32288.6,35737.0,0.4039,0.8931,143.7,97.3,0.507
5.94,32160.7,35517.9,0.2221,0.6237,143.7,97.3,0.507
5.96,32178.2,35287.4,0.247,0.3403,143.7,97.3,0.507
5.98,32018.8,35163.4,0.0203,0.1879,143.7,97.3,0.507
6.0,32102.3,35169.1,0.1391,0.1949,143.7,97.3,0.507
6.02,32000.7,35066.7,-0.0054,0.0691,143.7,97.3,0.507
6.04,31912.8,34956.2,-0.1303,-0.0668,143.7,97.3,0.507
6.06,31926.2,34929.8,-0.1112,-0.0991,143.7,97.3,0.507
6.08,31773.3,34769.7,-0.3287,-0.296,143.7,97.3,0.507
6.1,31773.1,34790.4,-0.3289,-0.2705,143.7,97.3,0.507
6.12,31958.5,34717.5,-0.0654,-0.3601,143.7,97.3,0.507
6.14,31847.1,34673.2,-0.2238,-0.4145,143.7,97.3,0.507
6.16,31832.1,34520.1,-0.245,-0.6028,143.7,97.3,0.507
6.18,31747.5,34498.6,-0.3653,-0.6292,143.7,97.3,0.507
6.2,31743.9,34494.6,-0.3704,-0.6341,143.7,97.3,0.507
6.22,31796.5,34562.4,-0.2957,-0.5507,143.7,97.3,0.507
6.24,31800.2,34620.8,-0.2905,-0.479,143.7,97.3,0.507
6.26,32005.3,35069.5,0.0011,0.0725,143.7,97.3,0.507
6.28,32144.0,35390.3,0.1983,0.4669,143.7,97.3,0.507
6.3,32320.9,35682.9,0.4498,0.8266,143.7,97.3,0.507
6.32,32369.8,35711.1,0.5193,0.8612,143.7,97.3,0.507
6.34,32283.6,35628.0,0.3969,0.759,143.7,97.3,0.507
6.36,32160.0,35426.8,0.2211,0.5117,143.7,97.3,0.507
6.38,32120.2,35248.9,0.1645,0.2931,143.7,97.3,0.507
6.4,32026.4,35177.9,0.0311,0.2058,143.7,97.3,0.507
6.42,32012.8,35183.4,0.0119,0.2126,143.7,97.3,0.507
6.44,31999.3,35012.4,-0.0074,0.0023,143.7,97.3,0.507
6.46,32077.4,34967.4,0.1037,-0.053,143.7,97.3,0.507
6.48,31888.4,34837.9,-0.165,-0.2122,143.7,97.3,0.507
6.5,31869.1,34709.9,-0.1925,-0.3695,143.7,97.3,0.507
6.52,31860.0,34721.3,-0.2054,-0.3554,143.7,97.3,0.507
6.54,31818.9,34728.9,-0.2639,-0.3461,143.7,97.3,0.507
6.56,31739.0,34651.4,-0.3775,-0.4413,143.7,97.3,0.507
6.58,31749.7,34599.9,-0.3623,-0.5047,143.7,97.3,0.507
6.6,31767.6,34531.7,-0.3368,-0.5885,143.7,97.3,0.507
6.62,31692.6,34399.6,-0.4433,-0.7509,143.7,97.3,0.507
6.64,31655.7,34516.3,-0.4958,-0.6074,143.7,97.3,0.507
6.66,31910.9,34623.9,-0.133,-0.4752,143.7,97.3,0.507
6.68,31995.4,35074.3,-0.0129,0.0784,143.7,97.3,0.507
6.7,32227.9,35425.9,0.3177,0.5107,143.7,97.3,0.507
6.72,32316.4,35708.2,0.4435,0.8576,143.7,97.3,0.507
6.74,32380.5,35768.7,0.5346,0.932,143.7,97.3,0.507
6.76,32314.3,35634.2,0.4404,0.7667,143.7,97.3,0.507
6.78,32242.8,35351.5,0.3388,0.4192,143.7,97.3,0.507
6.8,32179.7,35275.1,0.2491,0.3253,143.7,97.3,0.507
6.82,32056.4,35114.1,0.0738,0.1273,143.7,97.3,0.507
6.84,32031.5,34935.5,0.0385,-0.0922,143.7,97.3,0.507
6.86,31988.0,35058.2,-0.0235,0.0586,143.7,97.3,0.507
6.88,31945.0,34895.6,-0.0846,-0.1412,143.7,97.3,0.507
6.9,31914.8,34848.0,-0.1275,-0.1997,143.7,97.3,0.507
6.92,31912.9,34696.5,-0.1301,-0.3859,143.7,97.3,0.507
6.94,31817.4,34716.2,-0.2659,-0.3618,143.7,97.3,0.507
6.96,31822.3,34646.6,-0.259,-0.4473,143.7,97.3,0.507
6.98,31808.6,34616.7,-0.2784,-0.484,143.7,97.3,0.507
7.0,31772.5,34551.1,-0.3298,-0.5646,143.7,97.3,0.507
7.02,31770.9,34514.8,-0.3321,-0.6093,143.7,97.3,0.507
7.04,31728.1,34514.8,-0.3929,-0.6093,143.7,97.3,0.507
7.06,31851.5,34521.9,-0.2174,-0.6005,143.7,97.3,0.507
7.08,31906.8,34853.6,-0.1389,-0.1928,143.7,97.3,0.507
7.1,32060.4,35143.0,0.0795,0.1629,143.7,97.3,0.507
7.12,32162.9,35586.3,0.2252,0.7078,143.7,97.3,0.507
7.14,32334.0,35720.4,0.4685,0.8727,143.7,97.3,0.507
7.16,32289.9,35860.3,0.4058,1.0445,143.7,97.3,0.507
7.18,32313.4,35624.7,0.4392,0.755,143.7,97.3,0.507
7.2,32231.2,35445.7,0.3224,0.5349,143.7,97.3,0.507
7.22,32116.7,35131.3,0.1595,0.1485,143.7,97.3,0.507
7.24,32077.5,35130.3,0.1038,0.1473,143.7,97.3,0.507
7.26,32105.8,35075.9,0.144,0.0805,143.7,97.3,0.507
7.28,32030.4,35060.1,0.0369,0.061,143.7,97.3,0.507
7.3,32007.3,34883.1,0.0039,-0.1566,143.7,97.3,0.507
7.32,31874.8,34859.4,-0.1844,-0.1857,143.7,97.3,0.507
7.34,31918.8,34731.6,-0.1219,-0.3428,143.7,97.3,0.507
7.36,31919.5,34652.5,-0.1208,-0.4401,143.7,97.3,0.507
7.38,31902.7,34655.6,-0.1447,-0.4362,143.7,97.3,0.507
7.4,31816.3,34695.3,-0.2676,-0.3874,143.7,97.3,0.507
7.42,31780.4,34577.9,-0.3185,-0.5317,143.7,97.3,0.507
7.44,31813.8,34472.8,-0.2711,-0.6609,143.7,97.3,0.507
7.46,31712.5,34469.2,-0.4151,-0.6654,143.7,97.3,0.507
7.48,31859.2,34551.8,-0.2066,-0.5638,143.7,97.3,0.507
7.5,31847.6,34780.3,-0.223,-0.283,143.7,97.3,0.507
7.52,32002.8,35123.3,-0.0024,0.1387,143.7,97.3,0.507
7.54,32348.6,35513.2,0.4892,0.6179,143.7,97.3,0.507
7.56,32211.1,35740.1,0.2938,0.8968,143.7,97.3,0.507
7.58,32334.6,35673.4,0.4693,0.8149,143.7,97.3,0.507
7.6,32293.8,35557.0,0.4113,0.6718,143.7,97.3,0.507
7.62,32204.4,35320.8,0.2842,0.3814,143.7,97.3,0.507
7.64,32118.9,35158.9,0.1627,0.1825,143.7,97.3,0.507
7.66,32037.7,35162.7,0.0472,0.1871,143.7,97.3,0.507
7.68,32031.6,35090.9,0.0386,0.0989,143.7,97.3,0.507
7.7,32006.5,35011.6,0.0028,0.0014,143.7,97.3,0.507
7.72,31945.7,34875.6,-0.0836,-0.1658,143.7,97.3,0.507
7.74,31947.3,34769.0,-0.0813,-0.2968,143.7,97.3,0.507
7.76,31842.7,34678.8,-0.23,-0.4077,143.7,97.3,0.507
7.78,31818.1,34671.2,-0.265,-0.4171,143.7,97.3,0.507
7.8,31812.6,34639.5,-0.2728,-0.456,143.7,97.3,0.507
7.82,31767.1,34637.0,-0.3375,-0.459,143.7,97.3,0.507
7.84,31804.1,34636.0,-0.2849,-0.4603,143.7,97.3,0.507
7.86,31744.4,34418.7,-0.3698,-0.7274,143.7,97.3,0.507
7.88,31788.4,34471.5,-0.3071,-0.6625,143.7,97.3,0.507
7.9,31866.9,34562.7,-0.1956,-0.5504,143.7,97.3,0.507
7.92,31930.9,34904.7,-0.1047,-0.1301,143.7,97.3,0.507
7.94,32065.6,35283.7,0.0869,0.3358,143.7,97.3,0.507
7.96,32206.4,35581.8,0.287,0.7023,143.7,97.3,0.507
7.98,32342.2,35763.5,0.4801,0.9256,143.7,97.3,0.507
8.0,32285.7,35775.5,0.3997,0.9403,143.7,97.3,0.507
8.02,32256.8,35559.3,0.3587,0.6746,143.7,97.3,0.507
8.04,32083.4,35314.4,0.1122,0.3736,143.7,97.3,0.507
8.06,32103.3,35286.0,0.1404,0.3387,143.7,97.3,0.507
8.08,32042.8,35119.8,0.0544,0.1344,143.7,97.3,0.507
8.1,31987.2,35086.4,-0.0246,0.0933,143.7,97.3,0.507
8.12,32051.4,34967.9,0.0668,-0.0524,143.7,97.3,0.507
8.14,31886.4,34872.3,-0.1679,-0.1699,143.7,97.3,0.507
8.16,31854.6,34817.8,-0.2131,-0.2368,143.7,97.3,0.507
8.18,31845.1,34685.3,-0.2266,-0.3997,143.7,97.3,0.507
8.2,31855.1,34619.7,-0.2124,-0.4804,143.7,97.3,0.507
8.22,31866.1,34748.9,-0.1967,-0.3215,143.7,97.3,0.507
8.24,31738.7,34618.1,-0.3778,-0.4823,143.7,97.3,0.507
8.26,31799.5,34550.2,-0.2915,-0.5658,143.7,97.3,0.507
8.28,31735.6,34537.2,-0.3822,-0.5817,143.7,97.3,0.507
8.3,31729.0,34515.4,-0.3916,-0.6086,143.7,97.3,0.507
8.32,31789.4,34603.8,-0.3058,-0.4998,143.7,97.3,0.507
8.34,32036.2,34868.9,0.0451,-0.174,143.7,97.3,0.507
8.36,32006.4,35276.0,0.0028,0.3263,143.7,97.3,0.507
8.38,32295.4,35626.0,0.4135,0.7566,143.7,97.3,0.507
8.4,32363.3,35635.6,0.5101,0.7684,143.7,97.3,0.507
8.42,32376.7,35654.8,0.5292,0.7919,143.7,97.3,0.507
8.44,32228.0,35563.2,0.3178,0.6794,143.7,97.3,0.507
8.46,32202.4,35312.6,0.2814,0.3713,143.7,97.3,0.507
8.48,32117.7,35229.7,0.161,0.2694,143.7,97.3,0.507
8.5,32133.3,35061.1,0.1831,0.0622,143.7,97.3,0.507
8.52,31939.9,35089.4,-0.0918,0.097,143.7,97.3,0.507
8.54,31988.1,35084.6,-0.0233,0.0911,143.7,97.3,0.507
8.56,31973.1,34784.7,-0.0446,-0.2776,143.7,97.3,0.507
8.58,31762.7,34844.5,-0.3437,-0.204,143.7,97.3,0.507
8.6,31776.7,34629.1,-0.3239,-0.4688,143.7,97.3,0.507
8.62,31874.1,34624.8,-0.1853,-0.474,143.7,97.3,0.507
8.64,31809.7,34587.9,-0.2768,-0.5194,143.7,97.3,0.507
8.66,31878.3,34698.9,-0.1794,-0.383,143.7,97.3,0.507
8.68,31822.5,34457.4,-0.2587,-0.6798,143.7,97.3,0.507
8.7,31815.2,34500.2,-0.2691,-0.6272,143.7,97.3,0.507
8.72,31669.7,34539.0,-0.4759,-0.5796,143.7,97.3,0.507
8.74,31761.4,34661.3,-0.3456,-0.4292,143.7,97.3,0.507
8.76,31913.1,34926.0,-0.1299,-0.1038,143.7,97.3,0.507
8.78,32112.9,35366.3,0.1541,0.4374,143.7,97.3,0.507
8.8,32245.3,35662.3,0.3424,0.8011,143.7,97.3,0.507
8.82,32351.0,35782.1,0.4926,0.9484,143.7,97.3,0.507
8.84,32415.9,35705.6,0.5849,0.8544,143.7,97.3,0.507
8.86,32250.0,35441.9,0.349,0.5303,143.7,97.3,0.507
8.88,32106.3,35313.8,0.1447,0.3729,143.7,97.3,0.507
8.9,32066.0,35248.4,0.0874,0.2924,143.7,97.3,0.507
8.92,32114.0,35160.9,0.1557,0.1849,143.7,97.3,0.507
8.94,32027.6,34994.8,0.0328,-0.0193,143.7,97.3,0.507
8.96,31975.2,34970.4,-0.0417,-0.0493,143.7,97.3,0.507
8.98,31993.1,34917.5,-0.0162,-0.1142,143.7,97.3,0.507
9.0,31991.4,34754.2,-0.0186,-0.315,143.7,97.3,0.507
9.02,31863.7,34655.7,-0.2001,-0.436,143.7,97.3,0.507
9.04,31881.1,34616.1,-0.1754,-0.4848,143.7,97.3,0.507
9.06,31772.0,34616.6,-0.3305,-0.4842,143.7,97.3,0.507
9.08,31908.9,34558.3,-0.1359,-0.5558,143.7,97.3,0.507
9.1,31790.4,34571.2,-0.3043,-0.54,143.7,97.3,0.507
9.12,31819.3,34502.2,-0.2632,-0.6248,143.7,97.3,0.507
9.14,31825.9,34466.2,-0.2539,-0.6691,143.7,97.3,0.507
9.16,31821.6,34636.8,-0.26,-0.4594,143.7,97.3,0.507
9.18,32084.2,34980.8,0.1134,-0.0365,143.7,97.3,0.507
9.2,32165.0,35373.7,0.2282,0.4464,143.7,97.3,0.507
9.22,32351.2,35689.7,0.4929,0.8348,143.7,97.3,0.507
9.24,32382.7,35830.7,0.5377,1.0082,143.7,97.3,0.507
9.26,32302.1,35570.4,0.4231,0.6882,143.7,97.3,0.507
9.28,32178.0,35495.8,0.2467,0.5965,143.7,97.3,0.507
9.3,32143.2,35332.5,0.1972,0.3958,143.7,97.3,0.507
9.32,32111.0,35232.2,0.1515,0.2725,143.7,97.3,0.507
9.34,32101.9,35086.0,0.1385,0.0928,143.7,97.3,0.507
9.36,31950.8,35045.1,-0.0763,0.0426,143.7,97.3,0.507
9.38,32062.1,34961.7,0.0819,-0.06,143.7,97.3,0.507
9.4,31948.7,34886.8,-0.0793,-0.152,143.7,97.3,0.507
9.42,31849.1,34662.5,-0.221,-0.4277,143.7,97.3,0.507
9.44,31809.3,34718.0,-0.2775,-0.3595,143.7,97.3,0.507
9.46,31822.9,34687.1,-0.2582,-0.3975,143.7,97.3,0.507
9.48,31861.7,34730.3,-0.203,-0.3443,143.7,97.3,0.507
9.5,31849.0,34489.2,-0.221,-0.6408,143.7,97.3,0.507
9.52,31784.8,34466.0,-0.3123,-0.6692,143.7,97.3,0.507
9.54,31644.2,34465.6,-0.5122,-0.6698,143.7,97.3,0.507
9.56,31790.6,34468.8,-0.304,-0.6659,143.7,97.3,0.507
9.58,31943.7,34733.0,-0.0865,-0.3411,143.7,97.3,0.507
9.6,31974.6,35055.2,-0.0425,0.055,143.7,97.3,0.507
9.62,32198.6,35452.9,0.276,0.5438,143.7,97.3,0.507
9.64,32397.2,35661.0,0.5583,0.7995,143.7,97.3,0.507
9.66,32364.3,35668.1,0.5116,0.8083,143.7,97.3,0.507
9.68,32387.5,35662.6,0.5446,0.8016,143.7,97.3,0.507
9.7,32258.4,35371.6,0.361,0.4438,143.7,97.3,0.507
9.72,32118.4,35233.1,0.1619,0.2736,143.7,97.3,0.507
9.74,32123.9,35165.3,0.1698,0.1903,143.7,97.3,0.507
9.76,32013.6,35138.7,0.013,0.1576,143.7,97.3,0.507
9.78,32062.6,35026.8,0.0826,0.0201,143.7,97.3,0.507
9.8,32054.8,34959.1,0.0716,-0.0632,143.7,97.3,0.507
9.82,31965.7,34835.6,-0.0551,-0.215,143.7,97.3,0.507
9.84,31888.3,34751.1,-0.1651,-0.3188,143.7,97.3,0.507
9.86,31847.3,34740.9,-0.2235,-0.3313,143.7,97.3,0.507
9.88,31864.9,34659.1,-0.1984,-0.4319,143.7,97.3,0.507
9.9,31787.1,34682.3,-0.309,-0.4034,143.7,97.3,0.507
9.92,31785.5,34507.4,-0.3113,-0.6184,143.7,97.3,0.507
9.94,31816.0,34533.4,-0.268,-0.5864,143.7,97.3,0.507
9.96,31743.6,34362.5,-0.3709,-0.7964,143.7,97.3,0.507
9.98,31794.5,34533.5,-0.2985,-0.5862,143.7,97.3,0.507
10.0,31887.2,34718.4,-0.1667,-0.3591,143.7,97.3,0.507
10.02,32087.4,35083.1,0.1178,0.0893,143.7,97.3,0.507
10.04,32228.3,35439.3,0.3181,0.5271,143.7,97.3,0.507
10.06,32242.9,35663.4,0.339,0.8026,143.7,97.3,0.507
10.08,32386.1,35767.9,0.5425,0.9309,143.7,97.3,0.507
10.1,32274.2,35638.5,0.3835,0.7719,143.7,97.3,0.507
10.12,32220.5,35383.0,0.3071,0.4579,143.7,97.3,0.507
10.14,32118.0,35234.0,0.1614,0.2747,143.7,97.3,0.507
10.16,32160.4,35157.7,0.2216,0.181,143.7,97.3,0.507
10.18,32042.5,35028.3,0.0541,0.0219,143.7,97.3,0.507
10.2,31965.7,35047.4,-0.0552,0.0454,143.7,97.3,0.507
10.22,32012.9,34914.9,0.012,-0.1175,143.7,97.3,0.507
10.24,31895.5,34915.7,-0.1549,-0.1165,143.7,97.3,0.507
10.26,31802.1,34722.8,-0.2877,-0.3536,143.7,97.3,0.507
10.28,31846.7,34743.9,-0.2243,-0.3277,143.7,97.3,0.507
10.3,31805.5,34713.0,-0.2828,-0.3656,143.7,97.3,0.507
10.32,31822.1,34557.8,-0.2593,-0.5564,143.7,97.3,0.507
10.34,31808.8,34563.7,-0.2782,-0.5492,143.7,97.3,0.507
10.36,31784.7,34542.5,-0.3124,-0.5753,143.7,97.3,0.507
10.38,31817.8,34388.8,-0.2654,-0.7642,143.7,97.3,0.507
10.4,31777.8,34580.7,-0.3223,-0.5282,143.7,97.3,0.507
10.42,31985.3,34699.0,-0.0273,-0.3828,143.7,97.3,0.507
10.44,32059.5,35064.8,0.0782,0.0668,143.7,97.3,0.507
10.46,32216.3,35543.1,0.3012,0.6547,143.7,97.3,0.507
10.48,32410.0,35677.0,0.5764,0.8192,143.7,97.3,0.507
10.5,32348.0,35716.8,0.4884,0.8682,143.7,97.3,0.507
10.52,32340.1,35700.7,0.4772,0.8484,143.7,97.3,0.507
10.54,32196.4,35411.5,0.2729,0.4929,143.7,97.3,0.507
10.56,32052.5,35263.9,0.0683,0.3114,143.7,97.3,0.507
10.58,31977.5,35153.8,-0.0383,0.1762,143.7,97.3,0.507
10.6,32028.9,35209.3,0.0348,0.2444,143.7,97.3,0.507
10.62,32000.5,35093.4,-0.0057,0.1019,143.7,97.3,0.507
10.64,31954.8,34935.7,-0.0706,-0.0919,143.7,97.3,0.507
10.66,31934.5,34752.8,-0.0995,-0.3167,143.7,97.3,0.507
10.68,31925.5,34763.4,-0.1123,-0.3037,143.7,97.3,0.507
10.7,31825.1,34734.0,-0.255,-0.3398,143.7,97.3,0.507
10.72,31858.3,34686.2,-0.2079,-0.3986,143.7,97.3,0.507
10.74,31809.6,34674.8,-0.277,-0.4127,143.7,97.3,0.507
10.76,31834.5,34501.6,-0.2417,-0.6255,143.7,97.3,0.507
10.78,31692.5,34572.7,-0.4435,-0.5381,143.7,97.3,0.507
10.8,31725.0,34430.8,-0.3973,-0.7125,143.7,97.3,0.507
10.82,31702.1,34573.1,-0.4299,-0.5377,143.7,97.3,0.507
10.84,31991.4,34892.1,-0.0186,-0.1456,143.7,97.3,0.507
10.86,32133.3,35153.2,0.1831,0.1755,143.7,97.3,0.507
10.88,32208.1,35548.7,0.2895,0.6615,143.7,97.3,0.507
10.9,32328.7,35744.0,0.4609,0.9017,143.7,97.3,0.507
10.92,32357.7,35735.3,0.5022,0.8909,143.7,97.3,0.507
10.94,32299.4,35599.9,0.4193,0.7245,143.7,97.3,0.507
10.96,32173.9,35380.9,0.2409,0.4553,143.7,97.3,0.507
10.98,32074.4,35305.9,0.0994,0.3631,143.7,97.3,0.507
11.0,32065.8,35161.8,0.0871,0.1859,143.7,97.3,0.507
11.02,32051.4,35011.1,0.0667,0.0008,143.7,97.3,0.507
11.04,32017.9,35019.4,0.0191,0.0109,143.7,97.3,0.507
11.06,31945.9,34888.8,-0.0833,-0.1496,143.7,97.3,0.507
11.08,31840.1,34779.3,-0.2337,-0.2842,143.7,97.3,0.507
11.1,31962.2,34655.9,-0.0601,-0.4359,143.7,97.3,0.507
11.12,31862.5,34747.1,-0.2018,-0.3237,143.7,97.3,0.507
11.14,31924.3,34597.7,-0.114,-0.5074,143.7,97.3,0.507
11.16,31808.5,34738.7,-0.2786,-0.3341,143.7,97.3,0.507
11.18,31800.6,34595.3,-0.2898,-0.5103,143.7,97.3,0.507
11.2,31811.3,34547.6,-0.2746,-0.5689,143.7,97.3,0.507
11.22,31730.2,34407.9,-0.39,-0.7407,143.7,97.3,0.507
11.24,31911.7,34557.0,-0.1319,-0.5574,143.7,97.3,0.507
11.26,32004.4,34877.3,-0.0001,-0.1638,143.7,97.3,0.507
11.28,32118.3,35207.2,0.1618,0.2418,143.7,97.3,0.507
11.3,32240.7,35514.1,0.3358,0.619,143.7,97.3,0.507
11.32,32343.1,35726.1,0.4813,0.8796,143.7,97.3,0.507
11.34,32362.1,35782.6,0.5084,0.949,143.7,97.3,0.507
11.36,32255.0,35562.1,0.3562,0.678,143.7,97.3,0.507
11.38,32172.7,35432.2,0.2392,0.5184,143.7,97.3,0.507
11.4,32116.4,35222.8,0.1592,0.2609,143.7,97.3,0.507
11.42,32023.3,35138.4,0.0268,0.1572,143.7,97.3,0.507
11.44,32199.2,35042.8,0.2769,0.0397,143.7,97.3,0.507
11.46,31956.0,35016.1,-0.0689,0.0069,143.7,97.3,0.507
11.48,31886.7,34908.1,-0.1674,-0.1258,143.7,97.3,0.507
11.5,31943.6,34669.9,-0.0866,-0.4186,143.7,97.3,0.507
11.52,31936.6,34768.4,-0.0965,-0.2975,143.7,97.3,0.507
11.54,31855.4,34710.6,-0.212,-0.3686,143.7,97.3,0.507
11.56,31802.5,34700.2,-0.2871,-0.3814,143.7,97.3,0.507
11.58,31752.5,34593.8,-0.3583,-0.5122,143.7,97.3,0.507
11.6,31796.4,34429.9,-0.2958,-0.7136,143.7,97.3,0.507
11.62,31777.5,34564.1,-0.3227,-0.5486,143.7,97.3,0.507
11.64,31808.7,34460.2,-0.2784,-0.6764,143.7,97.3,0.507
11.66,31795.2,34589.9,-0.2976,-0.5169,143.7,97.3,0.507
11.68,31945.7,34888.7,-0.0836,-0.1496,143.7,97.3,0.507
11.7,32092.0,35191.4,0.1245,0.2224,143.7,97.3,0.507
11.72,32285.7,35614.3,0.3998,0.7422,143.7,97.3,0.507
11.74,32331.0,35761.0,0.4642,0.9225,143.7,97.3,0.507
11.76,32259.2,35773.2,0.3621,0.9376,143.7,97.3,0.507
11.78,32272.9,35545.0,0.3816,0.6571,143.7,97.3,0.507
11.8,32177.2,35332.7,0.2456,0.3961,143.7,97.3,0.507
11.82,31985.0,35055.7,-0.0277,0.0556,143.7,97.3,0.507
11.84,32002.1,35148.5,-0.0033,0.1696,143.7,97.3,0.507
11.86,32107.7,35043.3,0.1468,0.0403,143.7,97.3,0.507
11.88,31962.4,34994.0,-0.0599,-0.0202,143.7,97.3,0.507
11.9,31989.9,34931.4,-0.0207,-0.0972,143.7,97.3,0.507
11.92,31864.0,34843.2,-0.1997,-0.2056,143.7,97.3,0.507
11.94,31790.0,34791.3,-0.305,-0.2694,143.7,97.3,0.507
11.96,31890.4,34627.5,-0.1622,-0.4708,143.7,97.3,0.507
11.98,31838.0,34750.7,-0.2367,-0.3193,143.7,97.3,0.507
12.0,31834.0,34698.1,-0.2423,-0.384,143.7,97.3,0.507
12.02,31768.3,34621.3,-0.3357,-0.4783,143.7,97.3,0.507
12.04,31678.5,34438.0,-0.4634,-0.7036,143.7,97.3,0.507
12.06,31817.1,34569.9,-0.2663,-0.5415,143.7,97.3,0.507
12.08,31755.1,34714.0,-0.3545,-0.3644,143.7,97.3,0.507
12.1,32004.1,34941.1,-0.0005,-0.0853,143.7,97.3,0.507
12.12,32099.5,35244.5,0.135,0.2876,143.7,97.3,0.507
12.14,32276.5,35667.9,0.3867,0.8081,143.7,97.3,0.507
12.16,32345.4,35830.7,0.4847,1.0082,143.7,97.3,0.507
12.18,32275.8,35805.7,0.3858,0.9775,143.7,97.3,0.507
12.2,32300.5,35530.5,0.4209,0.6392,143.7,97.3,0.507
12.22,32170.4,35344.7,0.2359,0.4108,143.7,97.3,0.507
12.24,32078.6,35311.2,0.1053,0.3697,143.7,97.3,0.507
12.26,32047.1,35073.5,0.0607,0.0775,143.7,97.3,0.507
12.28,32023.0,35083.9,0.0263,0.0903,143.7,97.3,0.507
12.3,32050.6,34991.0,0.0656,-0.0239,143.7,97.3,0.507
12.32,32028.4,34943.5,0.034,-0.0824,143.7,97.3,0.507
12.34,31918.4,34742.6,-0.1224,-0.3293,143.7,97.3,0.507
12.36,31814.7,34708.8,-0.2698,-0.3708,143.7,97.3,0.507
12.38,31872.6,34679.9,-0.1875,-0.4063,143.7,97.3,0.507
12.4,31871.4,34631.2,-0.1892,-0.4662,143.7,97.3,0.507
12.42,31792.7,34678.4,-0.301,-0.4082,143.7,97.3,0.507
12.44,31694.7,34467.4,-0.4404,-0.6675,143.7,97.3,0.507
12.46,31722.8,34374.0,-0.4005,-0.7824,143.7,97.3,0.507
12.48,31734.6,34467.0,-0.3837,-0.668,143.7,97.3,0.507
12.5,31923.1,34704.2,-0.1156,-0.3765,143.7,97.3,0.507
12.52,31924.9,34986.3,-0.1132,-0.0297,143.7,97.3,0.507
12.54,32234.3,35324.0,0.3268,0.3854,143.7,97.3,0.507
12.56,32286.6,35655.6,0.4011,0.7929,143.7,97.3,0.507
12.58,32373.6,35797.6,0.5247,0.9675,143.7,97.3,0.507
12.6,32281.3,35697.8,0.3935,0.8448,143.7,97.3,0.507
12.62,32153.8,35513.6,0.2122,0.6184,143.7,97.3,0.507
12.64,32089.6,35295.5,0.1211,0.3503,143.7,97.3,0.507
12.66,32100.6,35168.4,0.1366,0.1941,143.7,97.3,0.507
12.68,32134.5,35097.2,0.1849,0.1066,143.7,97.3,0.507
12.7,31991.9,35062.1,-0.0179,0.0635,143.7,97.3,0.507
12.72,31971.6,35013.5,-0.0468,0.0038,143.7,97.3,0.507
12.74,32002.0,34863.0,-0.0035,-0.1812,143.7,97.3,0.507
12.76,31962.7,34731.2,-0.0594,-0.3433,143.7,97.3,0.507
12.78,31941.8,34732.2,-0.0891,-0.3421,143.7,97.3,0.507
12.8,31877.5,34713.9,-0.1806,-0.3645,143.7,97.3,0.507
12.82,31823.5,34680.7,-0.2573,-0.4054,143.7,97.3,0.507
12.84,31897.1,34479.3,-0.1526,-0.6529,143.7,97.3,0.507
12.86,31822.0,34516.1,-0.2594,-0.6076,143.7,97.3,0.507
12.88,31821.9,34449.8,-0.2596,-0.6891,143.7,97.3,0.507
12.9,31771.6,34502.6,-0.3311,-0.6243,143.7,97.3,0.507
12.92,31837.8,34623.2,-0.2369,-0.4761,143.7,97.3,0.507
12.94,32025.1,35060.3,0.0293,0.0612,143.7,97.3,0.507
12.96,32094.1,35439.3,0.1275,0.5271,143.7,97.3,0.507
12.98,32363.7,35577.9,0.5107,0.6974,143.7,97.3,0.507
13.0,32360.9,35810.1,0.5068,0.9829,143.7,97.3,0.507
13.02,32299.9,35680.2,0.42,0.8232,143.7,97.3,0.507
13.04,32276.2,35450.9,0.3864,0.5413,143.7,97.3,0.507
13.06,32124.0,35269.7,0.17,0.3187,143.7,97.3,0.507
13.08,32089.0,35161.1,0.1202,0.1851,143.7,97.3,0.507
13.1,32050.2,35146.5,0.065,0.1671,143.7,97.3,0.507
13.12,32043.2,35078.4,0.055,0.0834,143.7,97.3,0.507
13.14,31951.4,34963.9,-0.0754,-0.0573,143.7,97.3,0.507
13.16,31897.7,34976.8,-0.1518,-0.0414,143.7,97.3,0.507
13.18,31841.2,34783.4,-0.2321,-0.2792,143.7,97.3,0.507
13.2,31903.3,34663.1,-0.1438,-0.427,143.7,97.3,0.507
13.22,31801.8,34612.7,-0.2882,-0.489,143.7,97.3,0.507
13.24,31778.3,34528.4,-0.3215,-0.5926,143.7,97.3,0.507
13.26,31733.3,34624.3,-0.3855,-0.4747,143.7,97.3,0.507
13.28,31877.9,34496.9,-0.1799,-0.6313,143.7,97.3,0.507
13.3,31762.2,34358.2,-0.3445,-0.8018,143.7,97.3,0.507
13.32,31776.6,34533.2,-0.3239,-0.5866,143.7,97.3,0.507
13.34,31857.0,34772.4,-0.2096,-0.2926,143.7,97.3,0.507
13.36,31996.5,35054.6,-0.0113,0.0542,143.7,97.3,0.507
13.38,32284.2,35405.2,0.3977,0.4851,143.7,97.3,0.507
13.4,32374.4,35701.4,0.526,0.8492,143.7,97.3,0.507
13.42,32356.4,35660.2,0.5003,0.7986,143.7,97.3,0.507
13.44,32406.3,35694.5,0.5712,0.8408,143.7,97.3,0.507
13.46,32209.7,35433.9,0.2918,0.5204,143.7,97.3,0.507
13.48,32151.1,35286.9,0.2085,0.3398,143.7,97.3,0.507
13.5,32168.4,35108.4,0.233,0.1204,143.7,97.3,0.507
13.52,32022.4,35074.0,0.0254,0.0781,143.7,97.3,0.507
13.54,31942.9,35067.5,-0.0875,0.0701,143.7,97.3,0.507
13.56,31973.6,35025.0,-0.0439,0.0179,143.7,97.3,0.507
13.58,31928.6,34859.0,-0.1079,-0.1862,143.7,97.3,0.507
13.6,31839.9,34692.6,-0.2339,-0.3907,143.7,97.3,0.507
13.62,31723.3,34715.5,-0.3997,-0.3626,143.7,97.3,0.507
13.64,31826.8,34785.3,-0.2527,-0.2768,143.7,97.3,0.507
13.66,31827.6,34664.8,-0.2515,-0.4249,143.7,97.3,0.507
13.68,31803.8,34628.4,-0.2853,-0.4697,143.7,97.3,0.507
13.7,31813.4,34490.0,-0.2717,-0.6397,143.7,97.3,0.507
13.72,31753.3,34448.9,-0.3571,-0.6903,143.7,97.3,0.507
13.74,31812.4,34604.9,-0.2731,-0.4985,143.7,97.3,0.507
13.76,31921.1,34655.8,-0.1185,-0.436,143.7,97.3,0.507
13.78,31959.9,35127.0,-0.0634,0.1432,143.7,97.3,0.507
13.8,32247.1,35480.4,0.3449,0.5776,143.7,97.3,0.507
13.82,32354.7,35666.4,0.4979,0.8062,143.7,97.3,0.507
13.84,32360.6,35725.3,0.5064,0.8787,143.7,97.3,0.507
13.86,32307.3,35662.5,0.4306,0.8014,143.7,97.3,0.507
13.88,32278.8,35518.3,0.3899,0.6242,143.7,97.3,0.507
13.9,32128.5,35204.3,0.1763,0.2383,143.7,97.3,0.507
13.92,32016.3,35154.0,0.0167,0.1764,143.7,97.3,0.507
13.94,32081.9,35051.2,0.1101,0.05,143.7,97.3,0.507
13.96,32007.9,35082.1,0.0049,0.088,143.7,97.3,0.507
13.98,32002.0,34869.0,-0.0035,-0.174,143.7,97.3,0.507
14.0,31896.3,34872.3,-0.1538,-0.1698,143.7,97.3,0.507
14.02,31805.1,34706.9,-0.2834,-0.3732,143.7,97.3,0.507
14.04,31884.3,34742.6,-0.1708,-0.3292,143.7,97.3,0.507
14.06,31830.9,34607.4,-0.2467,-0.4954,143.7,97.3,0.507
14.08,31759.8,34627.5,-0.3479,-0.4708,143.7,97.3,0.507
14.1,31779.9,34533.4,-0.3193,-0.5864,143.7,97.3,0.507
14.12,31775.2,34467.3,-0.326,-0.6676,143.7,97.3,0.507
14.14,31780.8,34411.1,-0.318,-0.7367,143.7,97.3,0.507
14.16,31807.6,34582.4,-0.2799,-0.5262,143.7,97.3,0.507
14.18,31811.2,34785.3,-0.2748,-0.2768,143.7,97.3,0.507
14.2,32100.8,35134.9,0.1369,0.1529,143.7,97.3,0.507
14.22,32266.4,35407.5,0.3724,0.488,143.7,97.3,0.507
14.24,32380.4,35723.6,0.5344,0.8766,143.7,97.3,0.507
14.26,32281.2,35696.1,0.3933,0.8428,143.7,97.3,0.507
14.28,32237.6,35569.2,0.3314,0.6868,143.7,97.3,0.507
14.3,32163.6,35298.3,0.2262,0.3538,143.7,97.3,0.507
14.32,32075.8,35169.2,0.1013,0.195,143.7,97.3,0.507
14.34,32048.2,35077.3,0.0622,0.0821,143.7,97.3,0.507
14.36,32016.1,35092.3,0.0165,0.1005,143.7,97.3,0.507
14.38,32124.0,35052.3,0.1699,0.0514,143.7,97.3,0.507
14.4,31935.7,34903.6,-0.0978,-0.1313,143.7,97.3,0.507
14.42,31963.7,34925.4,-0.0579,-0.1046,143.7,97.3,0.507
14.44,31823.7,34759.2,-0.257,-0.3088,143.7,97.3,0.507
14.46,31941.2,34726.4,-0.0899,-0.3492,143.7,97.3,0.507
14.48,31831.4,34719.8,-0.2461,-0.3573,143.7,97.3,0.507
14.5,31756.2,34634.0,-0.3529,-0.4628,143.7,97.3,0.507
14.52,31876.6,34589.5,-0.1817,-0.5175,143.7,97.3,0.507
14.54,31771.5,34445.5,-0.3313,-0.6945,143.7,97.3,0.507
14.56,31756.3,34542.1,-0.3528,-0.5757,143.7,97.3,0.507
14.58,31764.4,34545.7,-0.3413,-0.5712,143.7,97.3,0.507
14.6,31917.1,34785.1,-0.1242,-0.277,143.7,97.3,0.507
14.62,32117.9,35216.5,0.1613,0.2533,143.7,97.3,0.507
14.64,32226.0,35500.7,0.315,0.6025,143.7,97.3,0.507
14.66,32401.4,35674.9,0.5643,0.8167,143.7,97.3,0.507
14.68,32388.6,35805.9,0.5461,0.9776,143.7,97.3,0.507
14.7,32296.2,35550.1,0.4148,0.6633,143.7,97.3,0.507
14.72,32153.9,35421.3,0.2125,0.505,143.7,97.3,0.507
14.74,32092.3,35196.4,0.1248,0.2285,143.7,97.3,0.507
14.76,32085.4,35138.5,0.1151,0.1573,143.7,97.3,0.507
14.78,32054.2,34999.0,0.0706,-0.0141,143.7,97.3,0.507
14.8,31988.8,35007.9,-0.0223,-0.0031,143.7,97.3,0.507
14.82,31891.8,34993.0,-0.1601,-0.0215,143.7,97.3,0.507
14.84,31925.2,34858.0,-0.1127,-0.1874,143.7,97.3,0.507
14.86,31891.8,34731.0,-0.1602,-0.3435,143.7,97.3,0.507
14.88,31853.3,34710.1,-0.2149,-0.3692,143.7,97.3,0.507
14.9,31938.5,34685.1,-0.0938,-0.4,143.7,97.3,0.507
14.92,31879.8,34656.4,-0.1773,-0.4352,143.7,97.3,0.507
14.94,31794.5,34597.8,-0.2986,-0.5072,143.7,97.3,0.507
14.96,31720.0,34383.8,-0.4045,-0.7703,143.7,97.3,0.507
14.98,31816.2,34514.7,-0.2677,-0.6094,143.7,97.3,0.507
15.0,31761.6,34594.9,-0.3452,-0.5108,143.7,97.3,0.507
15.02,31985.7,34871.1,-0.0268,-0.1713,143.7,97.3,0.507
15.04,32021.1,35171.6,0.0236,0.198,143.7,97.3,0.507
15.06,32215.5,35603.6,0.3,0.729,143.7,97.3,0.507
15.08,32321.7,35789.8,0.4509,0.9579,143.7,97.3,0.507
15.1,32314.2,35703.8,0.4403,0.8522,143.7,97.3,0.507
15.12,32342.2,35610.3,0.4801,0.7372,143.7,97.3,0.507
15.14,32168.4,35371.6,0.2331,0.4438,143.7,97.3,0.507
15.16,32126.7,35201.1,0.1738,0.2343,143.7,97.3,0.507
15.18,31993.6,35033.1,-0.0155,0.0278,143.7,97.3,0.507
15.2,32063.4,35032.4,0.0838,0.0269,143.7,97.3,0.507
15.22,31888.7,34981.9,-0.1646,-0.0352,143.7,97.3,0.507
15.24,31864.3,34949.5,-0.1992,-0.075,143.7,97.3,0.507
15.26,31868.0,34780.3,-0.194,-0.2829,143.7,97.3,0.507
15.28,31893.0,34709.0,-0.1585,-0.3705,143.7,97.3,0.507
15.3,31998.2,34704.1,-0.009,-0.3766,143.7,97.3,0.507
15.32,31911.4,34711.9,-0.1324,-0.367,143.7,97.3,0.507
15.34,31826.0,34591.9,-0.2538,-0.5145,143.7,97.3,0.507
15.36,31841.2,34599.8,-0.2321,-0.5048,143.7,97.3,0.507
15.38,31700.2,34509.5,-0.4326,-0.6158,143.7,97.3,0.507
15.4,31699.5,34553.0,-0.4336,-0.5624,143.7,97.3,0.507
15.42,31833.5,34633.3,-0.2431,-0.4637,143.7,97.3,0.507
15.44,31957.2,34895.3,-0.0672,-0.1416,143.7,97.3,0.507
15.46,32183.0,35135.4,0.2538,0.1535,143.7,97.3,0.507
15.48,32210.9,35612.0,0.2935,0.7394,143.7,97.3,0.507
15.5,32417.5,35705.6,0.5872,0.8544,143.7,97.3,0.507
15.52,32278.4,35723.9,0.3895,0.8769,143.7,97.3,0.507
15.54,32227.6,35485.1,0.3171,0.5834,143.7,97.3,0.507
15.56,32078.1,35336.6,0.1047,0.4009,143.7,97.3,0.507
15.58,32131.0,35196.6,0.1798,0.2287,143.7,97.3,0.507
15.6,32082.3,35096.7,0.1107,0.106,143.7,97.3,0.507
15.62,31962.8,35000.0,-0.0593,-0.0129,143.7,97.3,0.507
15.64,32040.0,35073.7,0.0506,0.0777,143.7,97.3,0.507
15.66,31967.8,34854.0,-0.0521,-0.1923,143.7,97.3,0.507
15.68,31884.3,34812.1,-0.1709,-0.2438,143.7,97.3,0.507
15.7,31883.1,34684.9,-0.1726,-0.4002,143.7,97.3,0.507
15.72,31739.6,34670.6,-0.3765,-0.4178,143.7,97.3,0.507
15.74,31841.1,34760.8,-0.2323,-0.3069,143.7,97.3,0.507
15.76,31930.2,34640.6,-0.1056,-0.4547,143.7,97.3,0.507
15.78,31824.2,34485.4,-0.2563,-0.6455,143.7,97.3,0.507
15.8,31828.9,34565.3,-0.2496,-0.5472,143.7,97.3,0.507
15.82,31850.3,34483.1,-0.2192,-0.6483,143.7,97.3,0.507
15.84,31889.9,34701.0,-0.163,-0.3803,143.7,97.3,0.507
15.86,32014.9,34932.0,0.0148,-0.0965,143.7,97.3,0.507
15.88,32173.6,35327.4,0.2404,0.3895,143.7,97.3,0.507
15.9,32370.7,35562.4,0.5206,0.6784,143.7,97.3,0.507
15.92,32339.7,35829.6,0.4766,1.0069,143.7,97.3,0.507
15.94,32369.1,35619.2,0.5184,0.7482,143.7,97.3,0.507
15.96,32192.5,35438.0,0.2673,0.5255,143.7,97.3,0.507
15.98,32139.3,35309.3,0.1917,0.3673,143.7,97.3,0.507
16.0,32051.8,35229.2,0.0673,0.2689,143.7,97.3,0.507
16.02,32093.1,35169.6,0.1259,0.1956,143.7,97.3,0.507
16.04,32027.7,35088.2,0.033,0.0955,143.7,97.3,0.507
16.06,32016.6,35099.2,0.0172,0.109,143.7,97.3,0.507
16.08,31876.8,34883.5,-0.1815,-0.1561,143.7,97.3,0.507
16.1,31898.8,34746.0,-0.1503,-0.325,143.7,97.3,0.507
16.12,31871.7,34690.6,-0.1888,-0.3931,143.7,97.3,0.507
16.14,31864.7,34580.2,-0.1987,-0.5289,143.7,97.3,0.507
16.16,31822.1,34615.8,-0.2592,-0.4851,143.7,97.3,0.507
16.18,31854.1,34623.4,-0.2138,-0.4757,143.7,97.3,0.507
16.2,31781.3,34480.1,-0.3173,-0.652,143.7,97.3,0.507
16.22,31764.1,34499.0,-0.3418,-0.6287,143.7,97.3,0.507
16.24,31829.4,34550.7,-0.2489,-0.5652,143.7,97.3,0.507
16.26,31803.9,34665.0,-0.2852,-0.4247,143.7,97.3,0.507
16.28,31982.9,35041.9,-0.0306,0.0386,143.7,97.3,0.507
16.3,32220.4,35417.1,0.307,0.4998,143.7,97.3,0.507
16.32,32332.4,35717.5,0.4663,0.869,143.7,97.3,0.507
16.34,32410.0,35751.7,0.5765,0.9111,143.7,97.3,0.507
16.36,32337.9,35698.2,0.474,0.8454,143.7,97.3,0.507
16.38,32317.1,35327.4,0.4444,0.3896,143.7,97.3,0.507
16.4,32174.0,35326.8,0.241,0.3888,143.7,97.3,0.507
16.42,32041.0,35103.4,0.0519,0.1142,143.7,97.3,0.507
16.44,32032.6,35094.0,0.04,0.1027,143.7,97.3,0.507
16.46,32067.0,35009.3,0.0889,-0.0014,143.7,97.3,0.507
16.48,31959.8,34938.1,-0.0635,-0.089,143.7,97.3,0.507
16.5,31860.9,34858.2,-0.2041,-0.1872,143.7,97.3,0.507
16.52,31941.7,34686.6,-0.0892,-0.3981,143.7,97.3,0.507
16.54,31883.1,34813.7,-0.1726,-0.2418,143.7,97.3,0.507
16.56,31860.8,34712.4,-0.2042,-0.3664,143.7,97.3,0.507
16.58,31763.3,34633.6,-0.3428,-0.4632,143.7,97.3,0.507
16.6,31759.5,34716.5,-0.3483,-0.3613,143.7,97.3,0.507
16.62,31778.3,34559.6,-0.3216,-0.5542,143.7,97.3,0.507
16.64,31843.2,34429.1,-0.2293,-0.7146,143.7,97.3,0.507
16.66,31786.6,34421.5,-0.3098,-0.724,143.7,97.3,0.507
16.68,31909.7,34743.6,-0.1347,-0.3281,143.7,97.3,0.507
16.7,31956.3,35059.6,-0.0685,0.0604,143.7,97.3,0.507
16.72,32260.0,35367.7,0.3632,0.4391,143.7,97.3,0.507
16.74,32263.0,35669.8,0.3675,0.8104,143.7,97.3,0.507
16.76,32341.3,35840.3,0.4789,1.02,143.7,97.3,0.507
16.78,32287.0,35734.2,0.4017,0.8896,143.7,97.3,0.507
16.8,32160.7,35368.5,0.222,0.44,143.7,97.3,0.507
16.82,32122.9,35275.3,0.1684,0.3255,143.7,97.3,0.507
16.84,32112.2,35126.8,0.1532,0.143,143.7,97.3,0.507
16.86,31982.7,35044.8,-0.031,0.0422,143.7,97.3,0.507
16.88,32036.6,35070.7,0.0457,0.074,143.7,97.3,0.507
16.9,31972.3,34937.4,-0.0458,-0.0899,143.7,97.3,0.507
16.92,31882.4,34976.9,-0.1736,-0.0413,143.7,97.3,0.507
16.94,31884.5,34737.3,-0.1706,-0.3358,143.7,97.3,0.507
16.96,31856.2,34638.9,-0.2108,-0.4567,143.7,97.3,0.507
16.98,31812.4,34719.4,-0.273,-0.3578,143.7,97.3,0.507
17.0,31847.0,34588.7,-0.2239,-0.5184,143.7,97.3,0.507
17.02,31827.3,34673.1,-0.2518,-0.4147,143.7,97.3,0.507
17.04,31842.2,34463.4,-0.2307,-0.6724,143.7,97.3,0.507
17.06,31762.5,34587.0,-0.344,-0.5205,143.7,97.3,0.507
17.08,31710.5,34554.2,-0.418,-0.5608,143.7,97.3,0.507
17.1,31883.1,34774.1,-0.1725,-0.2905,143.7,97.3,0.507
17.12,32092.0,35077.5,0.1244,0.0824,143.7,97.3,0.507
17.14,32221.7,35512.8,0.3088,0.6174,143.7,97.3,0.507
17.16,32303.7,35745.6,0.4254,0.9036,143.7,97.3,0.507
17.18,32324.6,35719.2,0.4551,0.8711,143.7,97.3,0.507
17.2,32229.5,35555.3,0.3199,0.6696,143.7,97.3,0.507
17.22,32222.5,35500.8,0.31,0.6027,143.7,97.3,0.507
17.24,32175.3,35371.0,0.2429,0.4431,143.7,97.3,0.507
17.26,32150.6,35138.1,0.2077,0.1569,143.7,97.3,0.507
17.28,31986.0,35060.3,-0.0263,0.0613,143.7,97.3,0.507
17.3,32040.4,35076.0,0.051,0.0806,143.7,97.3,0.507
17.32,32012.7,34927.9,0.0116,-0.1015,143.7,97.3,0.507
17.34,31966.1,34893.6,-0.0546,-0.1437,143.7,97.3,0.507
17.36,31900.1,34737.3,-0.1485,-0.3358,143.7,97.3,0.507
17.38,31822.7,34746.8,-0.2584,-0.3241,143.7,97.3,0.507
17.4,31919.2,34728.9,-0.1212,-0.3461,143.7,97.3,0.507
17.42,31846.2,34662.5,-0.225,-0.4277,143.7,97.3,0.507
17.44,31899.4,34480.5,-0.1494,-0.6514,143.7,97.3,0.507
17.46,31751.4,34513.3,-0.3598,-0.6111,143.7,97.3,0.507
17.48,31706.0,34490.1,-0.4244,-0.6396,143.7,97.3,0.507
17.5,31763.0,34468.1,-0.3433,-0.6666,143.7,97.3,0.507
17.52,31945.8,34722.4,-0.0834,-0.3542,143.7,97.3,0.507
17.54,32155.7,35149.9,0.2149,0.1714,143.7,97.3,0.507
17.56,32262.6,35519.7,0.3669,0.6259,143.7,97.3,0.507
17.58,32374.8,35682.8,0.5265,0.8264,143.7,97.3,0.507
17.6,32328.9,35751.4,0.4613,0.9107,143.7,97.3,0.507
17.62,32312.7,35543.0,0.4382,0.6545,143.7,97.3,0.507
17.64,32179.7,35465.1,0.2491,0.5588,143.7,97.3,0.507
17.66,32091.5,35314.4,0.1237,0.3735,143.7,97.3,0.507
17.68,32088.7,35055.5,0.1197,0.0553,143.7,97.3,0.507
17.7,32017.3,35023.1,0.0183,0.0155,143.7,97.3,0.507
17.72,31984.4,35032.6,-0.0286,0.0272,143.7,97.3,0.507
17.74,31929.2,34961.7,-0.107,-0.0599,143.7,97.3,0.507
17.76,31936.8,34799.9,-0.0962,-0.2588,143.7,97.3,0.507
17.78,31845.4,34739.7,-0.2261,-0.3328,143.7,97.3,0.507
17.8,31884.9,34615.4,-0.1699,-0.4857,143.7,97.3,0.507
17.82,31887.2,34534.4,-0.1668,-0.5852,143.7,97.3,0.507
17.84,31809.8,34563.0,-0.2768,-0.55,143.7,97.3,0.507
17.86,31744.5,34592.6,-0.3696,-0.5137,143.7,97.3,0.507
17.88,31753.8,34429.8,-0.3563,-0.7137,143.7,97.3,0.507
17.9,31730.2,34564.9,-0.39,-0.5477,143.7,97.3,0.507
17.92,31802.6,34544.2,-0.2871,-0.5731,143.7,97.3,0.507
17.94,31876.2,34740.9,-0.1823,-0.3314,143.7,97.3,0.507
17.96,32033.0,35095.9,0.0406,0.105,143.7,97.3,0.507
17.98,32305.4,35574.4,0.4278,0.6932,143.7,97.3,0.507
18.0,32329.9,35641.3,0.4627,0.7754,143.7,97.3,0.507
18.02,32249.7,35734.5,0.3487,0.8899,143.7,97.3,0.507
18.04,32193.1,35551.0,0.2682,0.6644,143.7,97.3,0.507
18.06,32099.1,35326.0,0.1346,0.3879,143.7,97.3,0.507
18.08,32127.5,35082.9,0.1749,0.0891,143.7,97.3,0.507
18.1,32025.0,35150.1,0.0292,0.1717,143.7,97.3,0.507
18.12,32017.8,35146.8,0.0189,0.1675,143.7,97.3,0.507
18.14,31955.2,35010.2,-0.0701,-0.0003,143.7,97.3,0.507
18.16,31979.7,34843.4,-0.0353,-0.2053,143.7,97.3,0.507
18.18,31963.9,34863.6,-0.0576,-0.1805,143.7,97.3,0.507
18.2,31811.0,34762.1,-0.2751,-0.3053,143.7,97.3,0.507
18.22,31801.0,34730.1,-0.2893,-0.3446,143.7,97.3,0.507
18.24,31853.5,34629.8,-0.2147,-0.4679,143.7,97.3,0.507
18.26,31855.1,34729.2,-0.2123,-0.3457,143.7,97.3,0.507
18.28,31811.7,34526.9,-0.2741,-0.5944,143.7,97.3,0.507
18.3,31657.0,34491.8,-0.494,-0.6376,143.7,97.3,0.507
18.32,31799.6,34467.7,-0.2912,-0.6672,143.7,97.3,0.507
18.34,31744.0,34512.4,-0.3702,-0.6122,143.7,97.3,0.507
18.36,32012.9,34832.3,0.012,-0.219,143.7,97.3,0.507
18.38,32086.9,35216.5,0.1171,0.2532,143.7,97.3,0.507
18.4,32210.3,35532.8,0.2927,0.642,143.7,97.3,0.507
18.42,32392.1,35788.8,0.5511,0.9567,143.7,97.3,0.507
18.44,32426.1,35761.6,0.5994,0.9232,143.7,97.3,0.507
18.46,32306.4,35591.8,0.4293,0.7146,143.7,97.3,0.507
18.48,32115.6,35479.1,0.158,0.576,143.7,97.3,0.507
18.5,32076.3,35202.8,0.1021,0.2363,143.7,97.3,0.507
18.52,32137.8,35052.7,0.1895,0.0518,143.7,97.3,0.507
18.54,32081.2,35056.3,0.1091,0.0563,143.7,97.3,0.507
18.56,32019.4,34982.1,0.0213,-0.0349,143.7,97.3,0.507
18.58,31995.7,34979.4,-0.0125,-0.0382,143.7,97.3,0.507
18.6,31879.3,34806.8,-0.1779,-0.2504,143.7,97.3,0.507
18.62,31855.5,34771.5,-0.2118,-0.2938,143.7,97.3,0.507
18.64,31870.1,34613.3,-0.1911,-0.4882,143.7,97.3,0.507
18.66,31876.7,34624.5,-0.1816,-0.4745,143.7,97.3,0.507
18.68,31932.0,34597.7,-0.103,-0.5073,143.7,97.3,0.507
18.7,31734.5,34483.8,-0.3838,-0.6474,143.7,97.3,0.507
18.72,31889.9,34403.5,-0.1628,-0.746,143.7,97.3,0.507
18.74,31680.5,34471.6,-0.4605,-0.6624,143.7,97.3,0.507
18.76,31749.3,34582.8,-0.3628,-0.5257,143.7,97.3,0.507
18.78,31946.6,34894.8,-0.0822,-0.1422,143.7,97.3,0.507
18.8,32139.1,35226.1,0.1913,0.265,143.7,97.3,0.507
18.82,32266.9,35575.1,0.3731,0.694,143.7,97.3,0.507
18.84,32388.3,35858.8,0.5456,1.0428,143.7,97.3,0.507
18.86,32259.5,35749.9,0.3625,0.9089,143.7,97.3,0.507
18.88,32187.8,35526.7,0.2606,0.6345,143.7,97.3,0.507
18.9,32134.5,35314.5,0.1849,0.3737,143.7,97.3,0.507
18.92,32121.4,35178.9,0.1663,0.207,143.7,97.3,0.507
18.94,32101.2,35119.3,0.1375,0.1338,143.7,97.3,0.507
18.96,32008.4,35127.1,0.0055,0.1433,143.7,97.3,0.507
18.98,31972.5,34967.5,-0.0455,-0.0528,143.7,97.3,0.507
19.0,31961.2,34920.3,-0.0616,-0.1108,143.7,97.3,0.507
19.02,31840.0,34862.3,-0.2338,-0.1821,143.7,97.3,0.507
19.04,31828.0,34734.8,-0.2509,-0.3388,143.7,97.3,0.507
19.06,31932.5,34642.3,-0.1024,-0.4525,143.7,97.3,0.507
19.08,31808.3,34741.2,-0.2788,-0.331,143.7,97.3,0.507
19.1,31813.7,34592.7,-0.2712,-0.5135,143.7,97.3,0.507
19.12,31875.1,34509.4,-0.1839,-0.616,143.7,97.3,0.507
19.14,31844.3,34457.2,-0.2277,-0.6801,143.7,97.3,0.507
19.16,31776.9,34472.0,-0.3235,-0.6618,143.7,97.3,0.507
19.18,31863.9,34633.0,-0.1999,-0.464,143.7,97.3,0.507
19.2,31996.1,34920.6,-0.0119,-0.1104,143.7,97.3,0.507
19.22,32166.4,35253.1,0.2302,0.2983,143.7,97.3,0.507
19.24,32243.9,35573.3,0.3404,0.6918,143.7,97.3,0.507
19.26,32352.7,35764.4,0.495,0.9267,143.7,97.3,0.507
19.28,32354.2,35736.7,0.4972,0.8926,143.7,97.3,0.507
19.3,32319.2,35548.1,0.4474,0.6608,143.7,97.3,0.507
19.32,32129.6,35310.7,0.1778,0.369,143.7,97.3,0.507
19.34,32114.3,35153.1,0.1561,0.1753,143.7,97.3,0.507
19.36,32066.6,35147.0,0.0883,0.1678,143.7,97.3,0.507
19.38,31981.5,35011.0,-0.0327,0.0007,143.7,97.3,0.507
19.4,31898.6,35050.7,-0.1505,0.0494,143.7,97.3,0.507
19.42,31871.1,34928.8,-0.1896,-0.1004,143.7,97.3,0.507
19.44,31929.1,34725.8,-0.1072,-0.35,143.7,97.3,0.507
19.46,31921.1,34716.7,-0.1185,-0.3611,143.7,97.3,0.507
19.48,31836.4,34683.7,-0.2389,-0.4017,143.7,97.3,0.507
19.5,31767.2,34663.1,-0.3373,-0.427,143.7,97.3,0.507
19.52,31795.4,34612.4,-0.2972,-0.4893,143.7,97.3,0.507
19.54,31752.0,34534.7,-0.3589,-0.5848,143.7,97.3,0.507
19.56,31722.8,34485.1,-0.4005,-0.6458,143.7,97.3,0.507
19.58,31769.5,34400.2,-0.334,-0.7502,143.7,97.3,0.507
19.6,31876.0,34745.2,-0.1827,-0.3261,143.7,97.3,0.507
19.62,31968.4,34923.6,-0.0513,-0.1068,143.7,97.3,0.507
19.64,32220.1,35314.4,0.3066,0.3735,143.7,97.3,0.507
19.66,32363.0,35672.8,0.5097,0.8141,143.7,97.3,0.507
19.68,32447.6,35731.6,0.6299,0.8864,143.7,97.3,0.507
19.7,32281.9,35643.2,0.3944,0.7778,143.7,97.3,0.507
19.72,32294.5,35580.9,0.4123,0.7011,143.7,97.3,0.507
19.74,32137.2,35321.7,0.1887,0.3825,143.7,97.3,0.507
19.76,32096.7,35109.8,0.1311,0.1221,143.7,97.3,0.507
19.78,32110.5,35072.0,0.1508,0.0757,143.7,97.3,0.507
19.8,32018.5,35051.3,0.0199,0.0502,143.7,97.3,0.507
19.82,31934.4,35007.4,-0.0996,-0.0038,143.7,97.3,0.507
19.84,31952.9,34827.2,-0.0733,-0.2253,143.7,97.3,0.507
19.86,31874.8,34838.1,-0.1844,-0.2119,143.7,97.3,0.507
19.88,31865.5,34700.5,-0.1975,-0.381,143.7,97.3,0.507
19.9,31905.9,34760.6,-0.1402,-0.3072,143.7,97.3,0.507
19.92,31843.3,34592.8,-0.2291,-0.5134,143.7,97.3,0.507
19.94,31846.6,34641.9,-0.2244,-0.453,143.7,97.3,0.507
19.96,31709.4,34488.3,-0.4196,-0.6418,143.7,97.3,0.507
19.98,31706.3,34442.1,-0.424,-0.6986,143.7,97.3,0.507
20.0,31763.1,34506.7,-0.3431,-0.6192,143.7,97.3,0.507
20.02,31830.1,34704.4,-0.2479,-0.3762,143.7,97.3,0.507
20.04,32039.5,35071.9,0.0498,0.0755,143.7,97.3,0.507
20.06,32225.0,35367.1,0.3135,0.4384,143.7,97.3,0.507
20.08,32331.7,35740.3,0.4653,0.897,143.7,97.3,0.507
20.1,32383.3,35834.7,0.5386,1.0131,143.7,97.3,0.507
20.12,32324.5,35715.9,0.4549,0.8671,143.7,97.3,0.507
20.14,32154.9,35426.8,0.2139,0.5117,143.7,97.3,0.507
20.16,32135.7,35261.6,0.1865,0.3086,143.7,97.3,0.507
20.18,32122.6,35167.1,0.1679,0.1924,143.7,97.3,0.507
20.2,32107.7,35057.4,0.1467,0.0576,143.7,97.3,0.507
20.22,31980.4,35092.1,-0.0343,0.1003,143.7,97.3,0.507
20.24,31946.2,34888.0,-0.0828,-0.1506,143.7,97.3,0.507
20.26,31998.4,34894.0,-0.0086,-0.1431,143.7,97.3,0.507
20.28,31845.6,34758.3,-0.2259,-0.31,143.7,97.3,0.507
20.3,31796.8,34678.2,-0.2953,-0.4084,143.7,97.3,0.507
20.32,31727.2,34652.9,-0.3942,-0.4395,143.7,97.3,0.507
20.34,31811.8,34705.5,-0.2739,-0.3749,143.7,97.3,0.507
20.36,31805.1,34515.1,-0.2834,-0.6089,143.7,97.3,0.507
20.38,31766.7,34546.2,-0.338,-0.5707,143.7,97.3,0.507
20.4,31750.5,34471.8,-0.361,-0.6621,143.7,97.3,0.507
20.42,31816.6,34543.0,-0.2671,-0.5746,143.7,97.3,0.507
20.44,31885.9,34683.1,-0.1685,-0.4024,143.7,97.3,0.507
20.46,32029.1,35077.6,0.0351,0.0825,143.7,97.3,0.507
20.48,32201.6,35407.0,0.2802,0.4874,143.7,97.3,0.507
20.5,32301.3,35704.9,0.4219,0.8535,143.7,97.3,0.507
20.52,32273.9,35645.8,0.383,0.7809,143.7,97.3,0.507
20.54,32243.4,35641.7,0.3397,0.7758,143.7,97.3,0.507
20.56,32145.5,35568.3,0.2005,0.6856,143.7,97.3,0.507
20.58,32135.3,35266.8,0.1859,0.3151,143.7,97.3,0.507
20.6,31984.2,35149.8,-0.0288,0.1712,143.7,97.3,0.507
20.62,32000.9,35137.0,-0.005,0.1555,143.7,97.3,0.507
20.64,32053.3,35104.4,0.0694,0.1154,143.7,97.3,0.507
20.66,31914.3,34999.3,-0.1283,-0.0138,143.7,97.3,0.507
20.68,32056.1,34926.6,0.0734,-0.1032,143.7,97.3,0.507
20.7,31793.5,34788.0,-0.3,-0.2734,143.7,97.3,0.507
20.72,31911.1,34728.2,-0.1328,-0.3469,143.7,97.3,0.507
20.74,31857.4,34700.1,-0.2091,-0.3815,143.7,97.3,0.507
20.76,31839.4,34620.9,-0.2346,-0.4789,143.7,97.3,0.507
20.78,31783.9,34635.9,-0.3136,-0.4604,143.7,97.3,0.507
20.8,31738.4,34435.4,-0.3783,-0.7068,143.7,97.3,0.507
20.82,31698.2,34389.2,-0.4354,-0.7636,143.7,97.3,0.507
20.84,31722.8,34477.8,-0.4005,-0.6547,143.7,97.3,0.507
20.86,31882.4,34775.0,-0.1735,-0.2895,143.7,97.3,0.507
20.88,32063.2,35072.4,0.0835,0.0761,143.7,97.3,0.507
20.9,32228.3,35442.8,0.3181,0.5314,143.7,97.3,0.507
20.92,32248.8,35798.7,0.3473,0.9688,143.7,97.3,0.507
20.94,32361.7,35737.3,0.5078,0.8934,143.7,97.3,0.507
20.96,32313.2,35677.0,0.4388,0.8192,143.7,97.3,0.507
20.98,32284.6,35523.1,0.3983,0.6301,143.7,97.3,0.507
21.0,32142.0,35169.0,0.1955,0.1949,143.7,97.3,0.507
21.02,32131.2,35185.7,0.1801,0.2154,143.7,97.3,0.507
21.04,31973.5,35079.5,-0.044,0.0848,143.7,97.3,0.507
21.06,31985.1,35023.6,-0.0276,0.0161,143.7,97.3,0.507
21.08,32036.3,34862.6,0.0452,-0.1817,143.7,97.3,0.507
21.1,31969.1,34877.0,-0.0504,-0.164,143.7,97.3,0.507
21.12,31865.8,34742.4,-0.1972,-0.3295,143.7,97.3,0.507
21.14,31783.1,34752.4,-0.3148,-0.3172,143.7,97.3,0.507
21.16,31776.5,34749.9,-0.3241,-0.3203,143.7,97.3,0.507
21.18,31844.5,34628.5,-0.2275,-0.4695,143.7,97.3,0.507
21.2,31808.7,34616.5,-0.2783,-0.4842,143.7,97.3,0.507
21.22,31858.8,34570.3,-0.2071,-0.541,143.7,97.3,0.507
21.24,31737.1,34536.4,-0.3801,-0.5828,143.7,97.3,0.507
21.26,31794.5,34485.0,-0.2985,-0.6458,143.7,97.3,0.507
21.28,31936.6,34795.2,-0.0966,-0.2646,143.7,97.3,0.507
21.3,32054.6,35306.2,0.0713,0.3635,143.7,97.3,0.507
21.32,32187.7,35523.1,0.2605,0.6301,143.7,97.3,0.507
21.34,32346.5,35752.4,0.4863,0.9119,143.7,97.3,0.507
21.36,32468.9,35806.8,0.6603,0.9788,143.7,97.3,0.507
21.38,32293.4,35568.6,0.4107,0.6861,143.7,97.3,0.507
21.4,32198.2,35390.5,0.2754,0.4671,143.7,97.3,0.507
21.42,32175.9,35238.6,0.2436,0.2804,143.7,97.3,0.507
21.44,31993.2,35101.4,-0.016,0.1118,143.7,97.3,0.507
21.46,32020.0,35139.4,0.0221,0.1584,143.7,97.3,0.507
21.48,32039.0,35005.5,0.0491,-0.0061,143.7,97.3,0.507
21.5,31886.5,34860.0,-0.1677,-0.185,143.7,97.3,0.507
21.52,31905.8,34741.7,-0.1403,-0.3304,143.7,97.3,0.507
21.54,31898.6,34669.9,-0.1505,-0.4186,143.7,97.3,0.507
21.56,31857.5,34774.6,-0.2089,-0.2899,143.7,97.3,0.507
21.58,31824.8,34630.6,-0.2555,-0.467,143.7,97.3,0.507
21.6,31905.0,34630.7,-0.1414,-0.4668,143.7,97.3,0.507
21.62,31789.9,34579.8,-0.3051,-0.5294,143.7,97.3,0.507
21.64,31753.1,34416.5,-0.3573,-0.7301,143.7,97.3,0.507
21.66,31798.9,34473.0,-0.2922,-0.6607,143.7,97.3,0.507
21.68,31816.3,34622.3,-0.2675,-0.4771,143.7,97.3,0.507
21.7,31959.4,34847.5,-0.0641,-0.2004,143.7,97.3,0.507
21.72,32062.2,35229.1,0.0821,0.2687,143.7,97.3,0.507
21.74,32272.2,35588.2,0.3806,0.7101,143.7,97.3,0.507
21.76,32375.1,35687.2,0.5269,0.8318,143.7,97.3,0.507
21.78,32378.0,35724.8,0.531,0.878,143.7,97.3,0.507
21.8,32306.6,35616.5,0.4295,0.7449,143.7,97.3,0.507
21.82,32146.2,35347.5,0.2014,0.4143,143.7,97.3,0.507
21.84,32163.8,35327.1,0.2265,0.3891,143.7,97.3,0.507
21.86,32000.2,35143.0,-0.006,0.1629,143.7,97.3,0.507
21.88,32053.7,35091.6,0.07,0.0997,143.7,97.3,0.507
21.9,31965.1,35000.2,-0.056,-0.0126,143.7,97.3,0.507
21.92,32007.7,34920.0,0.0045,-0.1113,143.7,97.3,0.507
21.94,31916.9,34731.1,-0.1245,-0.3435,143.7,97.3,0.507
21.96,31845.8,34646.7,-0.2256,-0.4472,143.7,97.3,0.507
21.98,31748.6,34708.1,-0.3638,-0.3716,143.7,97.3,0.507
22.0,31898.7,34627.1,-0.1504,-0.4713,143.7,97.3,0.507
22.02,31750.4,34618.9,-0.3612,-0.4814,143.7,97.3,0.507
22.04,31739.6,34489.1,-0.3766,-0.6409,143.7,97.3,0.507
22.06,31759.9,34511.4,-0.3477,-0.6135,143.7,97.3,0.507
22.08,31739.6,34532.3,-0.3765,-0.5877,143.7,97.3,0.507
22.1,31755.0,34592.8,-0.3546,-0.5134,143.7,97.3,0.507
22.12,31898.6,34873.2,-0.1505,-0.1688,143.7,97.3,0.507
22.14,32185.7,35103.1,0.2576,0.1139,143.7,97.3,0.507
22.16,32245.0,35604.6,0.342,0.7303,143.7,97.3,0.507
22.18,32351.6,35818.4,0.4935,0.993,143.7,97.3,0.507
22.2,32272.5,35670.5,0.3811,0.8113,143.7,97.3,0.507
22.22,32321.1,35523.4,0.4501,0.6305,143.7,97.3,0.507
22.24,32104.6,35329.4,0.1424,0.392,143.7,97.3,0.507
22.26,32098.4,35187.0,0.1335,0.2169,143.7,97.3,0.507
22.28,32099.4,35211.6,0.135,0.2471,143.7,97.3,0.507
22.3,32006.5,35106.8,0.0029,0.1184,143.7,97.3,0.507
22.32,32049.4,35028.4,0.0638,0.022,143.7,97.3,0.507
22.34,31943.7,34915.2,-0.0864,-0.1171,143.7,97.3,0.507
22.36,31934.3,34745.3,-0.0997,-0.3259,143.7,97.3,0.507
22.38,31902.2,34657.6,-0.1454,-0.4337,143.7,97.3,0.507
22.4,31877.8,34694.4,-0.1801,-0.3885,143.7,97.3,0.507
22.42,31800.4,34752.2,-0.2901,-0.3175,143.7,97.3,0.507
22.44,31812.0,34604.0,-0.2737,-0.4996,143.7,97.3,0.507
22.46,31760.1,34499.4,-0.3474,-0.6282,143.7,97.3,0.507
22.48,31762.6,34547.6,-0.3439,-0.5689,143.7,97.3,0.507
22.5,31808.5,34445.1,-0.2786,-0.695,143.7,97.3,0.507
22.52,31890.7,34622.1,-0.1618,-0.4774,143.7,97.3,0.507
22.54,31936.2,34939.3,-0.097,-0.0875,143.7,97.3,0.507
22.56,32097.0,35279.2,0.1315,0.3303,143.7,97.3,0.507
22.58,32291.5,35611.2,0.408,0.7384,143.7,97.3,0.507
22.6,32396.2,35761.0,0.5568,0.9226,143.7,97.3,0.507
22.62,32330.7,35737.9,0.4638,0.8941,143.7,97.3,0.507
22.64,32226.6,35557.0,0.3158,0.6718,143.7,97.3,0.507
22.66,32052.8,35212.8,0.0687,0.2487,143.7,97.3,0.507
22.68,32032.4,35145.3,0.0397,0.1657,143.7,97.3,0.507
22.7,32098.4,35054.6,0.1336,0.0543,143.7,97.3,0.507
22.72,31972.2,34995.5,-0.0459,-0.0185,143.7,97.3,0.507
22.74,31931.3,34999.6,-0.1041,-0.0134,143.7,97.3,0.507
22.76,32025.8,34788.4,0.0303,-0.273,143.7,97.3,0.507
22.78,31930.1,34851.7,-0.1057,-0.1952,143.7,97.3,0.507
22.8,31821.3,34784.0,-0.2604,-0.2783,143.7,97.3,0.507
22.82,31795.6,34699.9,-0.297,-0.3818,143.7,97.3,0.507
22.84,31867.7,34684.0,-0.1945,-0.4013,143.7,97.3,0.507
22.86,31842.0,34602.0,-0.231,-0.5021,143.7,97.3,0.507
22.88,31783.4,34499.7,-0.3143,-0.6278,143.7,97.3,0.507
22.9,31732.1,34455.7,-0.3872,-0.6819,143.7,97.3,0.507
22.92,31734.3,34479.3,-0.3842,-0.6529,143.7,97.3,0.507
22.94,31850.4,34607.2,-0.219,-0.4957,143.7,97.3,0.507
22.96,31942.0,34907.7,-0.0888,-0.1263,143.7,97.3,0.507
22.98,32142.1,35411.9,0.1956,0.4935,143.7,97.3,0.507
23.0,32353.9,35504.2,0.4968,0.6069,143.7,97.3,0.507
23.02,32254.0,35893.0,0.3547,1.0847,143.7,97.3,0.507
23.04,32215.7,35661.3,0.3002,0.8,143.7,97.3,0.507
23.06,32204.6,35480.3,0.2846,0.5775,143.7,97.3,0.507
23.08,32117.3,35313.0,0.1603,0.3718,143.7,97.3,0.507
23.1,32079.3,35236.0,0.1064,0.2772,143.7,97.3,0.507
23.12,32138.9,35136.0,0.191,0.1543,143.7,97.3,0.507
23.14,32001.8,35092.7,-0.0038,0.101,143.7,97.3,0.507
23.16,31989.8,35002.7,-0.0208,-0.0096,143.7,97.3,0.507
23.18,31978.3,34865.2,-0.0372,-0.1785,143.7,97.3,0.507
23.2,31944.2,34784.4,-0.0857,-0.2779,143.7,97.3,0.507
23.22,31898.6,34732.7,-0.1505,-0.3414,143.7,97.3,0.507
23.24,31782.5,34827.1,-0.3156,-0.2254,143.7,97.3,0.507
23.26,31870.8,34657.7,-0.1901,-0.4337,143.7,97.3,0.507
23.28,31783.6,34710.6,-0.314,-0.3686,143.7,97.3,0.507
23.3,31786.8,34578.7,-0.3095,-0.5307,143.7,97.3,0.507
23.32,31765.8,34631.0,-0.3393,-0.4664,143.7,97.3,0.507
23.34,31652.7,34439.5,-0.5001,-0.7019,143.7,97.3,0.507
23.36,31856.8,34733.2,-0.21,-0.3409,143.7,97.3,0.507
23.38,31963.0,35068.0,-0.059,0.0707,143.7,97.3,0.507
23.4,32155.8,35405.4,0.2151,0.4854,143.7,97.3,0.507
23.42,32242.3,35644.0,0.338,0.7787,143.7,97.3,0.507
23.44,32352.6,35767.5,0.4948,0.9305,143.7,97.3,0.507
23.46,32286.7,35642.4,0.4012,0.7768,143.7,97.3,0.507
23.48,32337.2,35483.7,0.4729,0.5817,143.7,97.3,0.507
23.5,32115.9,35262.5,0.1584,0.3098,143.7,97.3,0.507
23.52,32160.5,35169.0,0.2218,0.1948,143.7,97.3,0.507
23.54,32004.9,35038.0,0.0005,0.0338,143.7,97.3,0.507
23.56,32050.7,35122.8,0.0657,0.1381,143.7,97.3,0.507
23.58,31958.0,34986.9,-0.0661,-0.029,143.7,97.3,0.507
23.6,31979.7,34792.7,-0.0353,-0.2677,143.7,97.3,0.507
23.62,31937.0,34839.8,-0.0959,-0.2098,143.7,97.3,0.507
23.64,31881.1,34741.7,-0.1753,-0.3304,143.7,97.3,0.507
23.66,31908.7,34699.9,-0.1361,-0.3818,143.7,97.3,0.507
23.68,31804.4,34670.9,-0.2844,-0.4173,143.7,97.3,0.507
23.7,31830.4,34611.0,-0.2475,-0.4911,143.7,97.3,0.507
23.72,31818.2,34574.1,-0.2648,-0.5363,143.7,97.3,0.507
23.74,31761.1,34414.2,-0.346,-0.733,143.7,97.3,0.507
23.76,31764.2,34500.7,-0.3415,-0.6266,143.7,97.3,0.507
23.78,31824.7,34625.8,-0.2555,-0.4729,143.7,97.3,0.507
23.8,32042.9,34997.1,0.0546,-0.0165,143.7,97.3,0.507
23.82,32140.6,35455.2,0.1935,0.5467,143.7,97.3,0.507
23.84,32320.2,35751.8,0.4488,0.9112,143.7,97.3,0.507
23.86,32414.9,35767.8,0.5835,0.9309,143.7,97.3,0.507
23.88,32223.3,35593.3,0.3111,0.7164,143.7,97.3,0.507
23.9,32214.5,35498.2,0.2986,0.5995,143.7,97.3,0.507
23.92,32138.0,35266.9,0.1898,0.3152,143.7,97.3,0.507
23.94,32151.3,35109.6,0.2088,0.1218,143.7,97.3,0.507
23.96,32055.1,34999.6,0.0719,-0.0134,143.7,97.3,0.507
23.98,32063.9,35044.8,0.0845,0.0421,143.7,97.3,0.507
24.0,31959.5,35021.4,-0.0639,0.0134,143.7,97.3,0.507
24.02,31853.3,34801.5,-0.2149,-0.2568,143.7,97.3,0.507
24.04,31810.1,34729.3,-0.2764,-0.3456,143.7,97.3,0.507
24.06,31880.4,34691.2,-0.1764,-0.3924,143.7,97.3,0.507
24.08,31865.4,34714.5,-0.1977,-0.3638,143.7,97.3,0.507
24.1,31880.1,34671.4,-0.1768,-0.4168,143.7,97.3,0.507
24.12,31916.6,34602.4,-0.1249,-0.5016,143.7,97.3,0.507
24.14,31838.4,34476.4,-0.236,-0.6564,143.7,97.3,0.507
24.16,31741.0,34484.1,-0.3746,-0.6471,143.7,97.3,0.507
24.18,31748.8,34466.0,-0.3635,-0.6693,143.7,97.3,0.507
24.2,31910.8,34829.1,-0.1331,-0.223,143.7,97.3,0.507
24.22,32065.7,35159.3,0.087,0.1829,143.7,97.3,0.507
24.24,32204.4,35419.8,0.2842,0.5031,143.7,97.3,0.507
24.26,32287.8,35660.9,0.4028,0.7994,143.7,97.3,0.507
24.28,32491.4,35812.0,0.6923,0.9852,143.7,97.3,0.507
24.3,32371.3,35638.3,0.5215,0.7717,143.7,97.3,0.507
24.32,32168.4,35490.6,0.2331,0.5902,143.7,97.3,0.507
24.34,32147.8,35221.7,0.2037,0.2596,143.7,97.3,0.507
24.36,32088.2,35226.9,0.119,0.266,143.7,97.3,0.507
24.38,32154.2,35109.7,0.2128,0.1219,143.7,97.3,0.507
24.4,32042.8,35111.4,0.0545,0.124,143.7,97.3,0.507
24.42,31977.1,34940.3,-0.039,-0.0862,143.7,97.3,0.507
24.44,31977.5,34822.4,-0.0384,-0.2312,143.7,97.3,0.507
24.46,31797.9,34747.8,-0.2937,-0.3229,143.7,97.3,0.507
24.48,31915.5,34636.4,-0.1264,-0.4598,143.7,97.3,0.507
24.5,31769.6,34602.6,-0.334,-0.5013,143.7,97.3,0.507
24.52,31895.4,34581.8,-0.1551,-0.5269,143.7,97.3,0.507
24.54,31694.7,34665.2,-0.4404,-0.4244,143.7,97.3,0.507
24.56,31768.0,34543.5,-0.3361,-0.574,143.7,97.3,0.507
24.58,31738.7,34392.0,-0.3779,-0.7602,143.7,97.3,0.507
24.6,31786.7,34355.5,-0.3096,-0.805,143.7,97.3,0.507
24.62,31948.1,34662.2,-0.0802,-0.4281,143.7,97.3,0.507
24.64,32069.4,35043.9,0.0924,0.0411,143.7,97.3,0.507
24.66,32282.2,35425.2,0.3949,0.5098,143.7,97.3,0.507
24.68,32262.6,35685.3,0.3669,0.8295,143.7,97.3,0.507
24.7,32245.8,35751.9,0.343,0.9113,143.7,97.3,0.507
24.72,32244.7,35617.3,0.3416,0.7459,143.7,97.3,0.507
24.74,32240.5,35427.8,0.3355,0.5129,143.7,97.3,0.507
24.76,32121.5,35281.5,0.1664,0.3332,143.7,97.3,0.507
24.78,32143.3,35078.7,0.1974,0.0839,143.7,97.3,0.507
24.8,32006.5,35104.5,0.0029,0.1156,143.7,97.3,0.507
24.82,32011.0,35050.9,0.0092,0.0497,143.7,97.3,0.507
24.84,31992.7,34972.3,-0.0167,-0.0469,143.7,97.3,0.507
24.86,31790.1,34833.7,-0.3048,-0.2173,143.7,97.3,0.507
24.88,31890.0,34752.2,-0.1627,-0.3175,143.7,97.3,0.507
24.9,31842.3,34763.4,-0.2306,-0.3038,143.7,97.3,0.507
24.92,31794.2,34802.1,-0.299,-0.2562,143.7,97.3,0.507
24.94,31885.6,34750.0,-0.169,-0.3202,143.7,97.3,0.507
24.96,31768.1,34606.0,-0.3361,-0.4972,143.7,97.3,0.507
24.98,31756.4,34515.8,-0.3527,-0.608,143.7,97.3,0.507
25.0,31782.7,34402.0,-0.3153,-0.7479,143.7,97.3,0.507
25.02,31845.6,34594.7,-0.2259,-0.5111,143.7,97.3,0.507
25.04,31934.2,34865.3,-0.0999,-0.1785,143.7,97.3,0.507
25.06,32122.8,35182.8,0.1682,0.2118,143.7,97.3,0.507
25.08,32197.6,35533.3,0.2745,0.6427,143.7,97.3,0.507
25.1,32385.9,35764.8,0.5422,0.9272,143.7,97.3,0.507
25.12,32384.4,35780.7,0.5402,0.9468,143.7,97.3,0.507
25.14,32362.1,35604.7,0.5085,0.7303,143.7,97.3,0.507
25.16,32169.4,35386.6,0.2344,0.4623,143.7,97.3,0.507
25.18,32134.1,35268.5,0.1842,0.3172,143.7,97.3,0.507
25.2,32041.9,35070.8,0.0532,0.0741,143.7,97.3,0.507
25.22,32098.3,34951.8,0.1334,-0.0721,143.7,97.3,0.507
25.24,31909.4,35022.3,-0.1351,0.0145,143.7,97.3,0.507
25.26,31971.6,34803.9,-0.0468,-0.2539,143.7,97.3,0.507
25.28,31806.2,34811.7,-0.2819,-0.2443,143.7,97.3,0.507
25.3,31815.4,34819.5,-0.2689,-0.2347,143.7,97.3,0.507
25.32,31881.7,34727.4,-0.1745,-0.3479,143.7,97.3,0.507
25.34,31818.3,34634.2,-0.2646,-0.4625,143.7,97.3,0.507
25.36,31821.5,34611.5,-0.2601,-0.4904,143.7,97.3,0.507
25.38,31868.3,34588.3,-0.1936,-0.5189,143.7,97.3,0.507
25.4,31678.6,34519.1,-0.4633,-0.6039,143.7,97.3,0.507
25.42,31729.0,34526.5,-0.3916,-0.5948,143.7,97.3,0.507
25.44,31768.2,34634.6,-0.3358,-0.462,143.7,97.3,0.507
25.46,32016.6,34902.2,0.0173,-0.1331,143.7,97.3,0.507
25.48,32024.5,35169.9,0.0285,0.196,143.7,97.3,0.507
25.5,32326.0,35588.2,0.4571,0.7101,143.7,97.3,0.507
25.52,32298.9,35796.5,0.4185,0.9661,143.7,97.3,0.507
25.54,32299.3,35702.8,0.4191,0.8509,143.7,97.3,0.507
25.56,32232.5,35491.8,0.3241,0.5916,143.7,97.3,0.507
25.58,32143.5,35366.0,0.1977,0.437,143.7,97.3,0.507
25.6,32062.3,35249.8,0.0822,0.2942,143.7,97.3,0.507
25.62,32120.3,35138.6,0.1647,0.1575,143.7,97.3,0.507
25.64,32033.2,35114.4,0.0408,0.1278,143.7,97.3,0.507
25.66,32095.2,35032.7,0.129,0.0273,143.7,97.3,0.507
25.68,31921.1,34862.9,-0.1185,-0.1814,143.7,97.3,0.507
25.7,31951.2,34804.3,-0.0758,-0.2534,143.7,97.3,0.507
25.72,31969.0,34749.9,-0.0504,-0.3203,143.7,97.3,0.507
25.74,31832.6,34679.9,-0.2444,-0.4063,143.7,97.3,0.507
25.76,31733.1,34660.9,-0.3858,-0.4297,143.7,97.3,0.507
25.78,31863.0,34635.7,-0.2011,-0.4606,143.7,97.3,0.507
25.8,31682.1,34608.0,-0.4584,-0.4947,143.7,97.3,0.507
25.82,31718.9,34476.4,-0.4059,-0.6564,143.7,97.3,0.507
25.84,31758.2,34402.6,-0.3501,-0.7472,143.7,97.3,0.507
25.86,31848.5,34551.0,-0.2217,-0.5648,143.7,97.3,0.507
25.88,31953.3,34895.3,-0.0728,-0.1416,143.7,97.3,0.507
25.9,32166.7,35160.3,0.2306,0.1841,143.7,97.3,0.507
25.92,32234.8,35619.1,0.3274,0.7481,143.7,97.3,0.507
25.94,32228.5,35783.4,0.3184,0.95,143.7,97.3,0.507
25.96,32307.7,35761.2,0.4311,0.9227,143.7,97.3,0.507
25.98,32242.7,35520.7,0.3387,0.6272,143.7,97.3,0.507
26.0,32141.1,35395.8,0.1942,0.4736,143.7,97.3,0.507
26.02,32059.6,35128.5,0.0784,0.1451,143.7,97.3,0.507
26.04,32072.1,35093.8,0.0961,0.1024,143.7,97.3,0.507
26.06,32053.0,35067.8,0.069,0.0704,143.7,97.3,0.507
26.08,32043.7,34998.1,0.0558,-0.0152,143.7,97.3,0.507
26.1,31923.0,34911.8,-0.1159,-0.1213,143.7,97.3,0.507
26.12,31836.0,34773.4,-0.2396,-0.2915,143.7,97.3,0.507
26.14,31881.7,34742.3,-0.1746,-0.3296,143.7,97.3,0.507
26.16,31863.0,34643.8,-0.2011,-0.4507,143.7,97.3,0.507
26.18,31889.3,34611.6,-0.1637,-0.4902,143.7,97.3,0.507
26.2,31772.7,34581.6,-0.3294,-0.5272,143.7,97.3,0.507
26.22,31802.0,34577.1,-0.2879,-0.5327,143.7,97.3,0.507
26.24,31819.7,34484.3,-0.2626,-0.6467,143.7,97.3,0.507
26.26,31794.0,34551.3,-0.2992,-0.5644,143.7,97.3,0.507
26.28,31892.7,34534.4,-0.1588,-0.5851,143.7,97.3,0.507
26.3,31857.5,34944.7,-0.209,-0.0809,143.7,97.3,0.507
26.32,32177.7,35361.5,0.2463,0.4315,143.7,97.3,0.507
26.34,32311.6,35598.7,0.4366,0.723,143.7,97.3,0.507
26.36,32341.3,35738.2,0.4788,0.8945,143.7,97.3,0.507
26.38,32364.5,35653.7,0.5118,0.7906,143.7,97.3,0.507
26.4,32212.7,35507.8,0.2961,0.6112,143.7,97.3,0.507
26.42,32187.1,35280.9,0.2596,0.3324,143.7,97.3,0.507
26.44,32050.1,35265.6,0.0648,0.3136,143.7,97.3,0.507
26.46,32065.5,35080.5,0.0868,0.086,143.7,97.3,0.507
26.48,31884.0,35067.1,-0.1712,0.0696,143.7,97.3,0.507
26.5,31983.4,34926.2,-0.0299,-0.1035,143.7,97.3,0.507
26.52,31912.1,34963.1,-0.1313,-0.0583,143.7,97.3,0.507
26.54,31935.9,34829.9,-0.0975,-0.222,143.7,97.3,0.507
26.56,31889.6,34776.4,-0.1633,-0.2877,143.7,97.3,0.507
26.58,31813.1,34753.5,-0.2721,-0.3159,143.7,97.3,0.507
26.6,31788.0,34637.5,-0.3078,-0.4585,143.7,97.3,0.507
26.62,31771.3,34578.2,-0.3315,-0.5314,143.7,97.3,0.507
26.64,31803.5,34517.7,-0.2858,-0.6057,143.7,97.3,0.507
26.66,31771.7,34499.4,-0.3309,-0.6282,143.7,97.3,0.507
26.68,31810.4,34538.8,-0.2759,-0.5798,143.7,97.3,0.507
26.7,31866.4,34673.9,-0.1964,-0.4137,143.7,97.3,0.507
26.72,31968.2,34884.6,-0.0516,-0.1548,143.7,97.3,0.507
26.74,32257.1,35273.6,0.3592,0.3235,143.7,97.3,0.507
26.76,32270.9,35632.3,0.3788,0.7644,143.7,97.3,0.507
26.78,32386.8,35771.4,0.5435,0.9353,143.7,97.3,0.507
26.8,32180.8,35646.7,0.2507,0.7821,143.7,97.3,0.507
26.82,32255.1,35425.9,0.3563,0.5106,143.7,97.3,0.507
26.84,32161.5,35301.6,0.2233,0.3578,143.7,97.3,0.507
26.86,32065.6,35220.7,0.0869,0.2584,143.7,97.3,0.507
26.88,32029.6,35175.8,0.0358,0.2032,143.7,97.3,0.507
26.9,32049.1,35058.0,0.0635,0.0584,143.7,97.3,0.507
26.92,32008.0,34975.9,0.0049,-0.0426,143.7,97.3,0.507
26.94,32032.7,34886.1,0.0401,-0.1529,143.7,97.3,0.507
26.96,31931.4,34644.4,-0.104,-0.45,143.7,97.3,0.507
26.98,31808.6,34737.7,-0.2785,-0.3353,143.7,97.3,0.507
27.0,31860.8,34708.7,-0.2042,-0.3709,143.7,97.3,0.507
27.02,31764.1,34641.1,-0.3418,-0.454,143.7,97.3,0.507
27.04,31790.8,34720.3,-0.3038,-0.3567,143.7,97.3,0.507
27.06,31668.1,34571.1,-0.4782,-0.54,143.7,97.3,0.507
27.08,31744.4,34466.6,-0.3698,-0.6685,143.7,97.3,0.507
27.1,31777.7,34529.8,-0.3224,-0.5908,143.7,97.3,0.507
27.12,31786.3,34740.6,-0.3102,-0.3318,143.7,97.3,0.507
27.14,31933.5,35050.2,-0.1009,0.0489,143.7,97.3,0.507
27.16,32231.4,35385.1,0.3226,0.4604,143.7,97.3,0.507
27.18,32227.4,35585.3,0.317,0.7065,143.7,97.3,0.507
27.2,32335.6,35798.4,0.4707,0.9685,143.7,97.3,0.507
27.22,32275.2,35711.9,0.3849,0.8621,143.7,97.3,0.507
27.24,32258.5,35412.1,0.3611,0.4937,143.7,97.3,0.507
27.26,32121.4,35275.6,0.1662,0.3259,143.7,97.3,0.507
27.28,32077.7,35102.0,0.1042,0.1125,143.7,97.3,0.507
27.3,32041.8,35148.2,0.053,0.1693,143.7,97.3,0.507
27.32,31963.9,35030.9,-0.0577,0.0251,143.7,97.3,0.507
27.34,32015.0,35021.4,0.015,0.0134,143.7,97.3,0.507
27.36,31880.5,34839.1,-0.1763,-0.2107,143.7,97.3,0.507
27.38,31797.4,34703.5,-0.2944,-0.3774,143.7,97.3,0.507
27.4,31892.1,34715.7,-0.1598,-0.3624,143.7,97.3,0.507
27.42,31810.2,34616.1,-0.2763,-0.4848,143.7,97.3,0.507
27.44,31863.6,34598.8,-0.2003,-0.506,143.7,97.3,0.507
27.46,31878.7,34609.1,-0.1788,-0.4934,143.7,97.3,0.507
27.48,31802.4,34532.7,-0.2873,-0.5873,143.7,97.3,0.507
27.5,31726.2,34453.6,-0.3956,-0.6845,143.7,97.3,0.507
27.52,31822.3,34486.3,-0.259,-0.6442,143.7,97.3,0.507
27.54,31806.3,34781.3,-0.2817,-0.2817,143.7,97.3,0.507
27.56,32105.9,35061.3,0.1443,0.0624,143.7,97.3,0.507
27.58,32183.7,35356.4,0.2548,0.4252,143.7,97.3,0.507
27.6,32232.6,35652.5,0.3243,0.7892,143.7,97.3,0.507
27.62,32325.3,35745.2,0.4561,0.9031,143.7,97.3,0.507
27.64,32260.0,35590.5,0.3633,0.7129,143.7,97.3,0.507
27.66,32215.4,35492.7,0.2999,0.5927,143.7,97.3,0.507
27.68,32081.7,35282.6,0.1098,0.3345,143.7,97.3,0.507
27.7,32139.2,35234.5,0.1915,0.2754,143.7,97.3,0.507
27.72,31965.9,35070.2,-0.0548,0.0734,143.7,97.3,0.507
27.74,32076.8,35088.3,0.1028,0.0957,143.7,97.3,0.507
27.76,31927.3,34949.9,-0.1098,-0.0745,143.7,97.3,0.507
27.78,31925.0,34882.7,-0.113,-0.1571,143.7,97.3,0.507
27.8,31965.1,34733.5,-0.0559,-0.3405,143.7,97.3,0.507
27.82,31821.6,34620.3,-0.2599,-0.4796,143.7,97.3,0.507
27.84,31849.7,34698.9,-0.22,-0.383,143.7,97.3,0.507
27.86,31828.6,34632.7,-0.2501,-0.4644,143.7,97.3,0.507
27.88,31858.5,34537.2,-0.2076,-0.5817,143.7,97.3,0.507
27.9,31796.1,34439.4,-0.2962,-0.7019,143.7,97.3,0.507
27.92,31730.1,34475.4,-0.3901,-0.6578,143.7,97.3,0.507
27.94,31762.6,34467.5,-0.3439,-0.6674,143.7,97.3,0.507
27.96,31915.4,34714.1,-0.1266,-0.3644,143.7,97.3,0.507
27.98,31933.7,35160.7,-0.1006,0.1846,143.7,97.3,0.507
28.0,32150.9,35512.7,0.2082,0.6173,143.7,97.3,0.507
28.02,32262.6,35715.9,0.3669,0.8671,143.7,97.3,0.507
28.04,32340.7,35744.5,0.478,0.9022,143.7,97.3,0.507
28.06,32232.5,35548.5,0.3241,0.6613,143.7,97.3,0.507
28.08,32169.9,35477.3,0.2352,0.5738,143.7,97.3,0.507
28.1,32065.4,35177.1,0.0866,0.2048,143.7,97.3,0.507
28.12,32118.5,35149.8,0.1621,0.1712,143.7,97.3,0.507
28.14,32093.9,35124.8,0.1271,0.1406,143.7,97.3,0.507
28.16,32049.1,34984.5,0.0634,-0.0319,143.7,97.3,0.507
28.18,31986.0,34962.3,-0.0263,-0.0592,143.7,97.3,0.507
28.2,31897.1,34850.7,-0.1527,-0.1964,143.7,97.3,0.507
28.22,31969.7,34756.8,-0.0494,-0.3118,143.7,97.3,0.507
28.24,31851.7,34629.0,-0.2172,-0.4689,143.7,97.3,0.507
28.26,31853.7,34651.4,-0.2144,-0.4414,143.7,97.3,0.507
28.28,31885.6,34638.4,-0.169,-0.4574,143.7,97.3,0.507
28.3,31767.7,34584.3,-0.3366,-0.5238,143.7,97.3,0.507
28.32,31717.2,34499.5,-0.4085,-0.6281,143.7,97.3,0.507
28.34,31690.0,34477.9,-0.4471,-0.6547,143.7,97.3,0.507
28.36,31722.5,34577.3,-0.4009,-0.5325,143.7,97.3,0.507
28.38,31871.6,34835.5,-0.1889,-0.2151,143.7,97.3,0.507
28.4,31958.5,35154.2,-0.0653,0.1767,143.7,97.3,0.507
28.42,32210.4,35495.8,0.2928,0.5965,143.7,97.3,0.507
28.44,32363.0,35746.2,0.5097,0.9043,143.7,97.3,0.507
28.46,32345.8,35733.5,0.4853,0.8888,143.7,97.3,0.507
28.48,32138.6,35589.5,0.1907,0.7117,143.7,97.3,0.507
28.5,32218.9,35380.1,0.3048,0.4544,143.7,97.3,0.507
28.52,32125.9,35227.2,0.1726,0.2664,143.7,97.3,0.507
28.54,32013.5,35147.8,0.0128,0.1688,143.7,97.3,0.507
28.56,31998.3,35009.3,-0.0088,-0.0014,143.7,97.3,0.507
28.58,32041.9,35048.9,0.0531,0.0472,143.7,97.3,0.507
28.6,31993.4,34930.2,-0.0158,-0.0986,143.7,97.3,0.507
28.62,31846.3,34850.9,-0.2248,-0.1962,143.7,97.3,0.507
28.64,31825.5,34718.5,-0.2544,-0.3588,143.7,97.3,0.507
28.66,31880.5,34672.2,-0.1763,-0.4158,143.7,97.3,0.507
28.68,31778.8,34640.5,-0.3208,-0.4548,143.7,97.3,0.507
28.7,31819.9,34572.1,-0.2623,-0.5388,143.7,97.3,0.507
28.72,31779.5,34607.4,-0.3198,-0.4954,143.7,97.3,0.507
28.74,31810.9,34572.1,-0.2752,-0.5388,143.7,97.3,0.507
28.76,31745.6,34405.0,-0.3681,-0.7442,143.7,97.3,0.507
28.78,31754.6,34461.9,-0.3553,-0.6743,143.7,97.3,0.507
28.8,31905.4,34899.2,-0.1408,-0.1368,143.7,97.3,0.507
28.82,32112.4,35240.3,0.1534,0.2824,143.7,97.3,0.507
28.84,32180.8,35518.5,0.2507,0.6244,143.7,97.3,0.507
28.86,32333.9,35797.8,0.4683,0.9678,143.7,97.3,0.507
28.88,32330.7,35782.2,0.4638,0.9485,143.7,97.3,0.507
28.9,32252.5,35550.0,0.3526,0.6632,143.7,97.3,0.507
28.92,32107.3,35384.9,0.1462,0.4602,143.7,97.3,0.507
28.94,32064.8,35197.2,0.0857,0.2295,143.7,97.3,0.507
28.96,32112.4,35106.4,0.1534,0.1179,143.7,97.3,0.507
28.98,32112.2,35014.2,0.1531,0.0046,143.7,97.3,0.507
29.0,32112.3,34920.0,0.1532,-0.1113,143.7,97.3,0.507
29.02,31914.0,34864.6,-0.1286,-0.1794,143.7,97.3,0.507
29.04,31810.7,34819.6,-0.2755,-0.2346,143.7,97.3,0.507
29.06,31836.7,34687.4,-0.2385,-0.3971,143.7,97.3,0.507
29.08,31782.1,34704.5,-0.3162,-0.3761,143.7,97.3,0.507
29.1,31828.4,34630.6,-0.2503,-0.467,143.7,97.3,0.507
29.12,31822.3,34692.9,-0.2589,-0.3903,143.7,97.3,0.507
29.14,31777.5,34469.2,-0.3227,-0.6654,143.7,97.3,0.507
29.16,31777.2,34445.5,-0.3231,-0.6945,143.7,97.3,0.507
29.18,31742.9,34525.1,-0.3718,-0.5966,143.7,97.3,0.507
29.2,31862.9,34561.2,-0.2013,-0.5523,143.7,97.3,0.507
29.22,31953.5,34949.6,-0.0725,-0.0748,143.7,97.3,0.507
29.24,32174.7,35087.7,0.242,0.0949,143.7,97.3,0.507
29.26,32256.9,35643.2,0.3589,0.7777,143.7,97.3,0.507
29.28,32336.8,35641.3,0.4725,0.7754,143.7,97.3,0.507
29.3,32327.6,35704.5,0.4594,0.8531,143.7,97.3,0.507
29.32,32242.5,35653.9,0.3384,0.7908,143.7,97.3,0.507
29.34,32204.0,35320.4,0.2837,0.381,143.7,97.3,0.507
29.36,32211.5,35218.0,0.2943,0.2551,143.7,97.3,0.507
29.38,32100.3,35147.9,0.1363,0.1689,143.7,97.3,0.507
29.4,32019.8,35047.6,0.0218,0.0457,143.7,97.3,0.507
29.42,32035.7,34928.9,0.0445,-0.1002,143.7,97.3,0.507
29.44,31870.2,34855.3,-0.1909,-0.1908,143.7,97.3,0.507
29.46,31950.9,34745.4,-0.0762,-0.3258,143.7,97.3,0.507
29.48,31856.2,34804.2,-0.2107,-0.2536,143.7,97.3,0.507
29.5,31847.5,34728.6,-0.2232,-0.3465,143.7,97.3,0.507
29.52,31883.6,34722.7,-0.1719,-0.3537,143.7,97.3,0.507
29.54,31726.0,34615.6,-0.3958,-0.4854,143.7,97.3,0.507
29.56,31823.3,34519.3,-0.2575,-0.6038,143.7,97.3,0.507
29.58,31686.5,34549.8,-0.452,-0.5662,143.7,97.3,0.507
29.6,31770.0,34472.2,-0.3334,-0.6616,143.7,97.3,0.507
29.62,31851.6,34626.8,-0.2173,-0.4715,143.7,97.3,0.507
29.64,31948.6,34957.0,-0.0794,-0.0657,143.7,97.3,0.507
29.66,32139.7,35265.6,0.1923,0.3135,143.7,97.3,0.507
29.68,32218.6,35622.0,0.3045,0.7516,143.7,97.3,0.507
29.7,32356.0,35753.0,0.4997,0.9127,143.7,97.3,0.507
29.72,32279.6,35779.5,0.3911,0.9452,143.7,97.3,0.507
29.74,32162.1,35563.8,0.224,0.6801,143.7,97.3,0.507
29.76,32222.1,35382.1,0.3093,0.4567,143.7,97.3,0.507
29.78,32133.2,35232.3,0.183,0.2726,143.7,97.3,0.507
29.8,32076.2,35151.9,0.102,0.1738,143.7,97.3,0.507
29.82,32037.2,35059.5,0.0466,0.0603,143.7,97.3,0.507
29.84,32004.8,35003.2,0.0005,-0.0089,143.7,97.3,0.507
29.86,31936.6,34827.7,-0.0965,-0.2247,143.7,97.3,0.507
29.88,31885.8,34881.5,-0.1688,-0.1585,143.7,97.3,0.507
29.9,31867.3,34704.6,-0.195,-0.3759,143.7,97.3,0.507
29.92,31834.7,34714.0,-0.2413,-0.3644,143.7,97.3,0.507
29.94,31851.4,34598.5,-0.2176,-0.5064,143.7,97.3,0.507
29.96,31893.9,34576.5,-0.1572,-0.5335,143.7,97.3,0.507
29.98,31778.3,34506.9,-0.3215,-0.619,143.7,97.3,0.507
30.0,31547.8,36152.2,-0.6492,1.4033,143.7,97.3,0.507
30.02,35377.9,31657.9,4.7959,-4.1209,143.7,97.3,0.507
30.04,30465.4,32706.1,-2.188,-2.8324,143.7,97.3,0.507
30.06,30953.2,32805.2,-1.4946,-2.7107,143.7,97.3,0.507
30.08,35985.1,36437.8,5.6591,1.7544,143.7,97.3,0.507
30.1,31208.7,38240.8,-1.1313,3.9706,143.7,97.3,0.507
30.12,35465.8,35381.9,4.9207,0.4565,143.7,97.3,0.507
30.14,34192.1,37590.3,3.11,3.171,143.7,97.3,0.507
30.16,31532.7,37225.3,-0.6707,2.7224,143.7,97.3,0.507
30.18,32794.3,35379.4,1.1228,0.4535,143.7,97.3,0.507
30.2,29728.7,34255.1,-3.2354,-0.9285,143.7,97.3,0.507
30.22,32216.6,33683.8,0.3015,-1.6308,143.7,97.3,0.507
30.24,31136.4,37516.1,-1.2341,3.0798,143.7,97.3,0.507
30.26,33791.4,32195.7,2.5404,-3.4598,143.7,97.3,0.507
30.28,34565.1,31534.4,3.6403,-4.2727,143.7,97.3,0.507
30.3,34875.9,36344.4,4.0822,1.6396,143.7,97.3,0.507
30.32,33704.6,33465.8,2.417,-1.8986,143.7,97.3,0.507
30.34,30291.5,39731.1,-2.4352,5.8024,143.7,97.3,0.507
30.36,30943.9,35053.8,-1.5078,0.0532,143.7,97.3,0.507
30.38,30937.6,34960.9,-1.5167,-0.0609,143.7,97.3,0.507
30.4,34276.7,35776.6,3.2303,0.9417,143.7,97.3,0.507
30.42,32869.1,35517.5,1.2292,0.6232,143.7,97.3,0.507
30.44,31315.5,37558.6,-0.9794,3.1321,143.7,97.3,0.507
30.46,30489.0,33167.4,-2.1545,-2.2654,143.7,97.3,0.507
30.48,31486.3,34078.3,-0.7366,-1.1457,143.7,97.3,0.507
30.5,30645.2,36088.1,-1.9324,1.3246,143.7,97.3,0.507
30.52,32616.8,35003.8,0.8705,-0.0082,143.7,97.3,0.507
30.54,34354.2,32178.2,3.3404,-3.4813,143.7,97.3,0.507
30.56,30691.3,39177.1,-1.8669,5.1214,143.7,97.3,0.507
30.58,33173.4,36303.7,1.6618,1.5896,143.7,97.3,0.507
30.6,31749.4,31590.5,-0.3626,-4.2037,143.7,97.3,0.507
30.62,33398.5,34493.7,1.9818,-0.6352,143.7,97.3,0.507
30.64,31454.4,35459.1,-0.782,0.5515,143.7,97.3,0.507
30.66,33129.7,36848.3,1.5996,2.259,143.7,97.3,0.507
30.68,32222.3,33863.3,0.3097,-1.4101,143.7,97.3,0.507
30.7,28005.0,33407.6,-5.6858,-1.9702,143.7,97.3,0.507
30.72,35535.5,32709.8,5.0198,-2.8279,143.7,97.3,0.507
30.74,29234.5,33800.3,-3.9379,-1.4875,143.7,97.3,0.507
30.76,30720.1,36107.5,-1.8259,1.3484,143.7,97.3,0.507
30.78,32270.4,34944.5,0.378,-0.0811,143.7,97.3,0.507
30.8,31283.7,36463.6,-1.0248,1.7861,143.7,97.3,0.507
30.82,34655.2,35104.4,3.7684,0.1154,143.7,97.3,0.507
30.84,30519.0,33425.8,-2.1118,-1.9479,143.7,97.3,0.507
30.86,33326.2,31860.1,1.879,-3.8723,143.7,97.3,0.507
30.88,31630.6,38054.9,-0.5315,3.7421,143.7,97.3,0.507
30.9,32091.7,34834.7,0.124,-0.216,143.7,97.3,0.507
30.92,32150.4,33086.3,0.2074,-2.3651,143.7,97.3,0.507
30.94,29357.0,35330.4,-3.7638,0.3932,143.7,97.3,0.507
30.96,30777.3,37852.8,-1.7446,3.4937,143.7,97.3,0.507
30.98,31218.5,34654.7,-1.1174,-0.4373,143.7,97.3,0.507
31.0,30396.4,37369.8,-2.2862,2.8999,143.7,97.3,0.507
31.02,31642.7,32761.6,-0.5143,-2.7643,143.7,97.3,0.507
31.04,33173.4,33448.5,1.6618,-1.9199,143.7,97.3,0.507
31.06,31035.5,33552.9,-1.3775,-1.7917,143.7,97.3,0.507
31.08,35460.4,37768.0,4.9131,3.3894,143.7,97.3,0.507
31.1,33272.0,37437.3,1.802,2.9829,143.7,97.3,0.507
31.12,28576.7,33778.0,-4.8731,-1.515,143.7,97.3,0.507
31.14,30247.8,30956.4,-2.4974,-4.9831,143.7,97.3,0.507
31.16,32477.1,36601.3,0.6719,1.9554,143.7,97.3,0.507
31.18,30870.1,30882.7,-1.6127,-5.0737,143.7,97.3,0.507
31.2,29216.4,36916.8,-3.9637,2.3431,143.7,97.3,0.507
31.22,32157.4,29995.9,0.2173,-6.1638,143.7,97.3,0.507
31.24,31883.9,33191.8,-0.1715,-2.2354,143.7,97.3,0.507
31.26,31447.2,31110.0,-0.7922,-4.7944,143.7,97.3,0.507
31.28,33070.8,34930.4,1.516,-0.0984,143.7,97.3,0.507
31.3,33080.0,36319.5,1.5291,1.609,143.7,97.3,0.507
31.32,35115.4,34720.2,4.4226,-0.3568,143.7,97.3,0.507
31.34,31364.2,33479.7,-0.9103,-1.8816,143.7,97.3,0.507
31.36,33726.2,38153.9,2.4478,3.8638,143.7,97.3,0.507
31.38,32578.5,35395.4,0.816,0.4731,143.7,97.3,0.507
31.4,32329.6,36594.1,0.4622,1.9465,143.7,97.3,0.507
31.42,30075.5,39613.1,-2.7423,5.6573,143.7,97.3,0.507
31.44,32029.9,34825.2,0.0362,-0.2278,143.7,97.3,0.507
31.46,33013.5,34365.6,1.4344,-0.7926,143.7,97.3,0.507
31.48,31906.8,36567.8,-0.1389,1.9142,143.7,97.3,0.507
31.5,31553.1,35763.1,-0.6418,0.9251,143.7,97.3,0.507
31.52,33703.9,32282.0,2.4159,-3.3537,143.7,97.3,0.507
31.54,35796.6,34344.1,5.3911,-0.8191,143.7,97.3,0.507
31.56,31775.9,37647.8,-0.325,3.2417,143.7,97.3,0.507
31.58,29113.7,36875.8,-4.1096,2.2928,143.7,97.3,0.507
31.6,32559.5,35402.6,0.7891,0.482,143.7,97.3,0.507
31.62,35098.9,33261.4,4.3992,-2.1499,143.7,97.3,0.507
31.64,34832.0,30393.9,4.0198,-5.6745,143.7,97.3,0.507
31.66,29023.4,35403.2,-4.238,0.4827,143.7,97.3,0.507
31.68,31429.5,33695.2,-0.8174,-1.6167,143.7,97.3,0.507
31.7,32633.9,34547.5,0.8948,-0.5691,143.7,97.3,0.507
31.72,30189.5,33892.8,-2.5802,-1.3738,143.7,97.3,0.507
31.74,29877.7,35580.7,-3.0235,0.7009,143.7,97.3,0.507
31.76,31417.0,35825.4,-0.8352,1.0017,143.7,97.3,0.507
31.78,32750.1,37419.1,1.06,2.9605,143.7,97.3,0.507
31.8,32229.1,33727.2,0.3193,-1.5774,143.7,97.3,0.507
31.82,33357.1,36622.2,1.9229,1.981,143.7,97.3,0.507
31.84,31218.0,31980.6,-1.1181,-3.7242,143.7,97.3,0.507
31.86,32999.1,33708.6,1.414,-1.6002,143.7,97.3,0.507
31.88,33347.4,37134.7,1.9092,2.611,143.7,97.3,0.507
31.9,29676.5,36776.6,-3.3096,2.1709,143.7,97.3,0.507
31.92,34179.9,35283.1,3.0926,0.3351,143.7,97.3,0.507
31.94,36655.9,35708.7,6.6126,0.8583,143.7,97.3,0.507
31.96,31397.6,34839.1,-0.8628,-0.2107,143.7,97.3,0.507
31.98,31161.9,35086.5,-1.1979,0.0935,143.7,97.3,0.507
32.0,35747.0,35014.2,5.3205,0.0046,143.7,97.3,0.507
32.02,31557.3,34674.3,-0.6358,-0.4132,143.7,97.3,0.507
32.04,34003.7,34822.3,2.8422,-0.2313,143.7,97.3,0.507
32.06,32921.2,38038.0,1.3033,3.7213,143.7,97.3,0.507
32.08,30340.8,32034.9,-2.3652,-3.6574,143.7,97.3,0.507
32.1,35765.6,35049.2,5.347,0.0476,143.7,97.3,0.507
32.12,33336.3,37254.0,1.8934,2.7577,143.7,97.3,0.507
32.14,34680.4,34607.1,3.8043,-0.4958,143.7,97.3,0.507
32.16,30778.3,35593.8,-1.7431,0.717,143.7,97.3,0.507
32.18,30253.8,36614.5,-2.4889,1.9716,143.7,97.3,0.507
32.2,33688.9,38401.0,2.3947,4.1675,143.7,97.3,0.507
32.22,32002.6,35567.8,-0.0027,0.685,143.7,97.3,0.507
32.24,31777.0,33837.3,-0.3233,-1.442,143.7,97.3,0.507
32.26,35470.8,35947.4,4.9278,1.1516,143.7,97.3,0.507
32.28,32992.2,33251.9,1.4042,-2.1616,143.7,97.3,0.507
32.3,31229.0,35529.7,-1.1025,0.6383,143.7,97.3,0.507
32.32,29893.3,37209.6,-3.0014,2.7031,143.7,97.3,0.507
32.34,33262.3,32650.6,1.7882,-2.9007,143.7,97.3,0.507
32.36,30164.5,32885.5,-2.6158,-2.612,143.7,97.3,0.507
32.38,30664.0,34643.3,-1.9057,-0.4513,143.7,97.3,0.507
32.4,32623.1,35199.3,0.8795,0.2321,143.7,97.3,0.507
32.42,33451.6,36162.0,2.0573,1.4154,143.7,97.3,0.507
32.44,30881.0,34797.3,-1.5972,-0.2621,143.7,97.3,0.507
32.46,27816.4,35222.6,-5.954,0.2608,143.7,97.3,0.507
32.48,29039.5,34977.3,-4.2151,-0.0408,143.7,97.3,0.507
32.5,32110.9,34909.9,0.1513,-0.1237,143.7,97.3,0.507
32.52,30565.5,35251.0,-2.0458,0.2957,143.7,97.3,0.507
32.54,29573.3,33437.8,-3.4563,-1.9331,143.7,97.3,0.507
32.56,31116.3,38437.2,-1.2627,4.212,143.7,97.3,0.507
32.58,33200.4,35055.3,1.7002,0.055,143.7,97.3,0.507
32.6,34161.1,35420.1,3.0659,0.5034,143.7,97.3,0.507
32.62,32283.9,32799.9,0.3973,-2.7172,143.7,97.3,0.507
32.64,33372.6,34015.4,1.945,-1.2231,143.7,97.3,0.507
32.66,31383.1,35671.0,-0.8833,0.8119,143.7,97.3,0.507
32.68,31233.7,34656.5,-1.0958,-0.4351,143.7,97.3,0.507
32.7,32596.0,36522.8,0.841,1.8589,143.7,97.3,0.507
32.72,32265.6,34536.7,0.3713,-0.5823,143.7,97.3,0.507
32.74,34841.8,38295.2,4.0338,4.0374,143.7,97.3,0.507
32.76,28501.2,34071.5,-4.9805,-1.1542,143.7,97.3,0.507
32.78,29659.3,36259.1,-3.334,1.5347,143.7,97.3,0.507
32.8,32032.1,35357.7,0.0392,0.4268,143.7,97.3,0.507
32.82,32551.8,33195.1,0.778,-2.2314,143.7,97.3,0.507
32.84,33229.7,30042.1,1.7419,-6.1069,143.7,97.3,0.507
32.86,33468.1,34596.3,2.0808,-0.5091,143.7,97.3,0.507
32.88,31107.7,34979.4,-1.2749,-0.0382,143.7,97.3,0.507
32.9,31646.9,36748.8,-0.5084,2.1366,143.7,97.3,0.507
32.92,35158.0,34511.3,4.4833,-0.6136,143.7,97.3,0.507
32.94,31609.3,31406.5,-0.5618,-4.4299,143.7,97.3,0.507
32.96,35893.7,34246.1,5.5292,-0.9396,143.7,97.3,0.507
32.98,32033.6,35300.8,0.0414,0.3568,143.7,97.3,0.507
33.0,35393.1,33559.6,4.8174,-1.7833,143.7,97.3,0.507
33.02,32657.5,33927.0,0.9283,-1.3317,143.7,97.3,0.507
33.04,35588.3,36553.0,5.095,1.896,143.7,97.3,0.507
33.06,32695.5,38537.1,0.9824,4.3348,143.7,97.3,0.507
33.08,31632.9,33764.6,-0.5282,-1.5314,143.7,97.3,0.507
33.1,30931.5,38495.9,-1.5254,4.2841,143.7,97.3,0.507
33.12,33714.5,33421.7,2.431,-1.9529,143.7,97.3,0.507
33.14,33669.9,35234.5,2.3677,0.2753,143.7,97.3,0.507
33.16,29210.5,38765.0,-3.972,4.6149,143.7,97.3,0.507
33.18,31994.9,37113.0,-0.0137,2.5843,143.7,97.3,0.507
33.2,30356.3,33648.1,-2.3431,-1.6746,143.7,97.3,0.507
33.22,27169.6,33732.6,-6.8735,-1.5707,143.7,97.3,0.507
33.24,33121.9,32725.4,1.5887,-2.8087,143.7,97.3,0.507
33.26,30857.4,32918.1,-1.6307,-2.5719,143.7,97.3,0.507
33.28,27516.1,32152.5,-6.3809,-3.5129,143.7,97.3,0.507
33.3,32546.5,36645.0,0.7705,2.0091,143.7,97.3,0.507
33.32,30718.3,36714.8,-1.8286,2.0949,143.7,97.3,0.507
33.34,29066.6,38010.7,-4.1766,3.6877,143.7,97.3,0.507
33.36,30119.7,31664.0,-2.6794,-4.1133,143.7,97.3,0.507
33.38,29698.7,37728.2,-3.278,3.3405,143.7,97.3,0.507
33.4,29700.0,35793.5,-3.2762,0.9625,143.7,97.3,0.507
33.42,31918.4,34096.2,-0.1223,-1.1238,143.7,97.3,0.507
33.44,33877.3,36093.8,2.6625,1.3315,143.7,97.3,0.507
33.46,32061.1,37143.7,0.0805,2.6221,143.7,97.3,0.507
33.48,33373.1,34889.2,1.9457,-0.1491,143.7,97.3,0.507
33.5,29658.1,38365.8,-3.3357,4.1242,143.7,97.3,0.507
33.52,34495.6,36757.8,3.5415,2.1478,143.7,97.3,0.507
33.54,33093.3,36049.3,1.548,1.2769,143.7,97.3,0.507
33.56,32968.1,35276.1,1.3699,0.3265,143.7,97.3,0.507
33.58,31692.3,32567.8,-0.4438,-3.0025,143.7,97.3,0.507
33.6,31514.3,36704.4,-0.6968,2.082,143.7,97.3,0.507
33.62,30828.7,32829.0,-1.6715,-2.6814,143.7,97.3,0.507
33.64,34754.6,33808.6,3.9097,-1.4773,143.7,97.3,0.507
33.66,32430.2,32194.3,0.6053,-3.4615,143.7,97.3,0.507
33.68,30042.0,36209.9,-2.79,1.4743,143.7,97.3,0.507
33.7,34390.1,36523.5,3.3915,1.8597,143.7,97.3,0.507
33.72,31645.5,33593.1,-0.5103,-1.7422,143.7,97.3,0.507
33.74,30509.3,34518.1,-2.1256,-0.6053,143.7,97.3,0.507
33.76,32055.0,32652.1,0.0718,-2.8989,143.7,97.3,0.507
33.78,35963.8,33888.7,5.6288,-1.3789,143.7,97.3,0.507
33.8,35184.0,35689.6,4.5202,0.8347,143.7,97.3,0.507
33.82,31977.6,32851.7,-0.0382,-2.6535,143.7,97.3,0.507
33.84,31352.8,33336.8,-0.9265,-2.0572,143.7,97.3,0.507
33.86,29160.6,38203.7,-4.043,3.925,143.7,97.3,0.507
33.88,32138.5,32105.0,0.1906,-3.5713,143.7,97.3,0.507
33.9,35132.8,37081.4,4.4473,2.5455,143.7,97.3,0.507
33.92,32911.1,35775.9,1.2889,0.9408,143.7,97.3,0.507
33.94,31809.4,34255.4,-0.2773,-0.9281,143.7,97.3,0.507
33.96,37540.4,33964.9,7.8702,-1.2852,143.7,97.3,0.507
33.98,29543.1,35246.2,-3.4992,0.2897,143.7,97.3,0.507
34.0,33445.1,35527.6,2.0481,0.6356,143.7,97.3,0.507
34.02,31817.7,39056.4,-0.2655,4.9731,143.7,97.3,0.507
34.04,30873.3,36175.3,-1.6082,1.4318,143.7,97.3,0.507
34.06,29753.1,33511.0,-3.2007,-1.8431,143.7,97.3,0.507
34.08,34810.3,35239.7,3.9889,0.2817,143.7,97.3,0.507
34.1,29238.8,32792.3,-3.9318,-2.7265,143.7,97.3,0.507
34.12,34361.5,36000.1,3.3509,1.2164,143.7,97.3,0.507
34.14,35788.3,40366.0,5.3793,6.5829,143.7,97.3,0.507
34.16,30300.6,35658.3,-2.4223,0.7963,143.7,97.3,0.507
34.18,30135.4,33865.6,-2.6572,-1.4072,143.7,97.3,0.507
34.2,32470.1,33233.6,0.662,-2.184,143.7,97.3,0.507
34.22,30794.6,34656.1,-1.72,-0.4356,143.7,97.3,0.507
34.24,31207.1,35608.5,-1.1337,0.7351,143.7,97.3,0.507
34.26,32943.4,35123.2,1.3348,0.1386,143.7,97.3,0.507
34.28,32899.0,37963.4,1.2718,3.6296,143.7,97.3,0.507
34.3,34431.7,35603.7,3.4507,0.7292,143.7,97.3,0.507
34.32,31802.1,35729.4,-0.2877,0.8837,143.7,97.3,0.507
34.34,33734.0,34983.8,2.4588,-0.0328,143.7,97.3,0.507
34.36,33473.4,36157.7,2.0883,1.4101,143.7,97.3,0.507
34.38,29230.1,34672.9,-3.9442,-0.4149,143.7,97.3,0.507
34.4,31714.8,35719.1,-0.4118,0.871,143.7,97.3,0.507
34.42,33173.1,39705.8,1.6613,5.7713,143.7,97.3,0.507
34.44,30745.8,35583.5,-1.7895,0.7043,143.7,97.3,0.507
34.46,33324.8,33367.6,1.877,-2.0193,143.7,97.3,0.507
34.48,33529.0,34581.0,2.1674,-0.5279,143.7,97.3,0.507
34.5,31727.1,35164.8,-0.3944,0.1897,143.7,97.3,0.507
34.52,30218.4,39779.6,-2.5391,5.8621,143.7,97.3,0.507
34.54,30377.3,37268.7,-2.3133,2.7757,143.7,97.3,0.507
34.56,31649.2,35718.6,-0.505,0.8704,143.7,97.3,0.507
34.58,31787.7,33119.4,-0.3081,-2.3245,143.7,97.3,0.507
34.6,35280.3,35558.5,4.6571,0.6736,143.7,97.3,0.507
34.62,29331.1,34051.3,-3.8007,-1.179,143.7,97.3,0.507
34.64,27380.6,32743.1,-6.5736,-2.787,143.7,97.3,0.507
34.66,31788.0,35305.8,-0.3078,0.363,143.7,97.3,0.507
34.68,31746.4,38136.6,-0.3669,3.8425,143.7,97.3,0.507
34.7,30935.6,36855.1,-1.5196,2.2673,143.7,97.3,0.507
34.72,34806.0,36491.3,3.9828,1.8202,143.7,97.3,0.507
34.74,33374.4,39334.7,1.9476,5.3151,143.7,97.3,0.507
34.76,29653.8,34938.4,-3.3419,-0.0886,143.7,97.3,0.507
34.78,31429.3,35987.6,-0.8178,1.201,143.7,97.3,0.507
34.8,30482.6,32645.9,-2.1635,-2.9065,143.7,97.3,0.507
34.82,29811.4,33130.9,-3.1178,-2.3103,143.7,97.3,0.507
34.84,29052.0,35038.6,-4.1974,0.0346,143.7,97.3,0.507
34.86,32797.0,30987.8,1.1266,-4.9445,143.7,97.3,0.507
34.88,29915.5,35348.7,-2.9698,0.4158,143.7,97.3,0.507
34.9,30653.4,33162.2,-1.9208,-2.2718,143.7,97.3,0.507
34.92,33864.1,35337.7,2.6438,0.4022,143.7,97.3,0.507
34.94,30101.8,35786.1,-2.7049,0.9534,143.7,97.3,0.507
34.96,31057.8,34182.5,-1.3458,-1.0177,143.7,97.3,0.507
34.98,27595.8,38086.6,-6.2676,3.781,143.7,97.3,0.507
35.0,32202.2,29776.2,0.281,-6.4338,143.7,97.3,0.507
35.02,33970.2,36356.2,2.7946,1.6541,143.7,97.3,0.507
35.04,32620.4,34146.8,0.8757,-1.0616,143.7,97.3,0.507
35.06,30496.7,34837.5,-2.1435,-0.2126,143.7,97.3,0.507
35.08,34170.8,34517.7,3.0797,-0.6057,143.7,97.3,0.507
35.1,31697.7,39880.5,-0.4362,5.986,143.7,97.3,0.507
35.12,31661.2,36402.4,-0.488,1.7109,143.7,97.3,0.507
35.14,35542.4,32462.3,5.0297,-3.1322,143.7,97.3,0.507
35.16,33253.4,34242.2,1.7756,-0.9444,143.7,97.3,0.507
35.18,34027.7,36764.5,2.8763,2.156,143.7,97.3,0.507
35.2,31807.0,32252.1,-0.2807,-3.3905,143.7,97.3,0.507
35.22,32594.8,35037.2,0.8393,0.0328,143.7,97.3,0.507
35.24,30026.3,30989.4,-2.8122,-4.9425,143.7,97.3,0.507
35.26,34774.8,35451.6,3.9385,0.5422,143.7,97.3,0.507
35.28,32731.5,35739.9,1.0335,0.8966,143.7,97.3,0.507
35.3,32298.3,35999.1,0.4177,1.2152,143.7,97.3,0.507
35.32,31071.6,33327.8,-1.3263,-2.0683,143.7,97.3,0.507
35.34,31243.2,39200.8,-1.0822,5.1506,143.7,97.3,0.507
35.36,31465.1,35130.5,-0.7668,0.1476,143.7,97.3,0.507
35.38,33273.2,34517.5,1.8036,-0.606,143.7,97.3,0.507
35.4,30111.4,34645.1,-2.6913,-0.4491,143.7,97.3,0.507
35.42,32901.2,34516.3,1.2748,-0.6074,143.7,97.3,0.507
35.44,32963.8,35678.6,1.3638,0.8212,143.7,97.3,0.507
35.46,29755.8,33502.1,-3.1968,-1.8541,143.7,97.3,0.507
35.48,35671.1,34879.6,5.2127,-0.1609,143.7,97.3,0.507
35.5,29139.7,31838.0,-4.0727,-3.8995,143.7,97.3,0.507
35.52,36467.9,36627.5,6.3454,1.9876,143.7,97.3,0.507
35.54,32236.2,36483.1,0.3294,1.8101,143.7,97.3,0.507
35.56,35555.3,36960.8,5.0481,2.3973,143.7,97.3,0.507
35.58,30436.2,34040.2,-2.2295,-1.1927,143.7,97.3,0.507
35.6,35545.3,38767.8,5.0339,4.6183,143.7,97.3,0.507
35.62,33726.2,33466.5,2.4477,-1.8978,143.7,97.3,0.507
35.64,32061.7,36098.1,0.0813,1.3368,143.7,97.3,0.507
35.66,32579.0,32279.9,0.8168,-3.3563,143.7,97.3,0.507
35.68,33931.0,34978.3,2.7389,-0.0396,143.7,97.3,0.507
35.7,32309.5,32555.1,0.4336,-3.0181,143.7,97.3,0.507
35.72,31528.6,34875.2,-0.6765,-0.1663,143.7,97.3,0.507
35.74,32237.4,34681.6,0.3311,-0.4043,143.7,97.3,0.507
35.76,30725.9,35393.0,-1.8176,0.4702,143.7,97.3,0.507
35.78,34353.3,35902.8,3.3392,1.0968,143.7,97.3,0.507
35.8,31215.1,33097.0,-1.1223,-2.352,143.7,97.3,0.507
35.82,32035.4,37956.9,0.044,3.6216,143.7,97.3,0.507
35.84,33023.5,31130.0,1.4487,-4.7698,143.7,97.3,0.507
35.86,31763.6,34708.8,-0.3424,-0.3709,143.7,97.3,0.507
35.88,31326.0,34276.9,-0.9646,-0.9017,143.7,97.3,0.507
35.9,30463.2,32803.8,-2.1912,-2.7124,143.7,97.3,0.507
35.92,30437.8,35790.4,-2.2273,0.9587,143.7,97.3,0.507
35.94,32607.9,37122.2,0.8579,2.5956,143.7,97.3,0.507
35.96,29932.3,33878.3,-2.9459,-1.3916,143.7,97.3,0.507
35.98,31987.8,33082.2,-0.0237,-2.3701,143.7,97.3,0.507
36.0,32616.2,35014.4,0.8697,0.0048,143.7,97.3,0.507
36.02,33857.3,31551.3,2.634,-4.2519,143.7,97.3,0.507
36.04,32019.5,35631.9,0.0214,0.7638,143.7,97.3,0.507
36.06,32914.7,33445.7,1.294,-1.9234,143.7,97.3,0.507
36.08,29655.1,32965.9,-3.34,-2.5131,143.7,97.3,0.507
36.1,31953.9,36781.6,-0.0719,2.177,143.7,97.3,0.507
36.12,33666.7,33179.2,2.3631,-2.251,143.7,97.3,0.507
36.14,29611.1,33825.7,-3.4025,-1.4563,143.7,97.3,0.507
36.16,33033.7,35994.6,1.4633,1.2096,143.7,97.3,0.507
36.18,33986.6,33659.7,2.8179,-1.6603,143.7,97.3,0.507
36.2,34060.1,35778.3,2.9224,0.9438,143.7,97.3,0.507
36.22,28911.7,34666.2,-4.3968,-0.4232,143.7,97.3,0.507
36.24,29821.9,31796.1,-3.1029,-3.951,143.7,97.3,0.507
36.26,29267.5,39423.8,-3.891,5.4247,143.7,97.3,0.507
36.28,29483.8,36028.7,-3.5836,1.2515,143.7,97.3,0.507
36.3,29411.6,34409.8,-3.6862,-0.7383,143.7,97.3,0.507
36.32,34527.6,35757.7,3.587,0.9185,143.7,97.3,0.507
36.34,27726.0,35830.3,-6.0826,1.0077,143.7,97.3,0.507
36.36,29287.6,34935.7,-3.8624,-0.0919,143.7,97.3,0.507
36.38,31548.2,36161.8,-0.6486,1.4152,143.7,97.3,0.507
36.4,36359.6,37020.6,6.1915,2.4707,143.7,97.3,0.507
36.42,33701.8,33993.4,2.413,-1.2502,143.7,97.3,0.507
36.44,33035.4,35185.8,1.4656,0.2154,143.7,97.3,0.507
36.46,33538.4,33692.0,2.1807,-1.6207,143.7,97.3,0.507
36.48,30978.3,31988.6,-1.4589,-3.7144,143.7,97.3,0.507
36.5,33185.7,32598.9,1.6793,-2.9642,143.7,97.3,0.507
36.52,31623.7,36937.4,-0.5413,2.3685,143.7,97.3,0.507
36.54,32288.5,35403.3,0.4037,0.4828,143.7,97.3,0.507
36.56,29394.0,35783.6,-3.7112,0.9502,143.7,97.3,0.507
36.58,29776.6,36700.0,-3.1673,2.0767,143.7,97.3,0.507
36.6,27157.7,34583.6,-6.8904,-0.5247,143.7,97.3,0.507
36.62,32696.0,37568.6,0.9831,3.1443,143.7,97.3,0.507
36.64,29632.1,37991.6,-3.3727,3.6643,143.7,97.3,0.507
36.66,32298.1,35415.3,0.4175,0.4976,143.7,97.3,0.507
36.68,33151.7,30299.0,1.631,-5.7912,143.7,97.3,0.507
36.7,28848.4,34398.3,-4.4868,-0.7524,143.7,97.3,0.507
36.72,32899.2,32414.4,1.272,-3.191,143.7,97.3,0.507
36.74,32903.9,37240.7,1.2787,2.7413,143.7,97.3,0.507
36.76,33561.1,36962.5,2.213,2.3993,143.7,97.3,0.507
36.78,29652.9,35884.3,-3.3431,1.0741,143.7,97.3,0.507
36.8,32683.2,32554.8,0.9649,-3.0184,143.7,97.3,0.507
36.82,32317.1,31735.1,0.4445,-4.026,143.7,97.3,0.507
36.84,32979.8,35636.1,1.3865,0.7689,143.7,97.3,0.507
36.86,30527.8,35777.1,-2.0994,0.9423,143.7,97.3,0.507
36.88,31166.6,35824.0,-1.1912,1.0,143.7,97.3,0.507
36.9,34472.0,30640.8,3.5079,-5.3711,143.7,97.3,0.507
36.92,28721.0,36404.3,-4.6679,1.7132,143.7,97.3,0.507
36.94,32618.0,32274.9,0.8723,-3.3625,143.7,97.3,0.507
36.96,34973.1,34101.3,4.2204,-1.1175,143.7,97.3,0.507
36.98,33167.9,33397.1,1.654,-1.9831,143.7,97.3,0.507
37.0,34502.2,37039.9,3.5508,2.4945,143.7,97.3,0.507
37.02,31384.5,34474.0,-0.8814,-0.6595,143.7,97.3,0.507
37.04,30790.8,33324.0,-1.7254,-2.0729,143.7,97.3,0.507
37.06,32325.2,33789.8,0.4559,-1.5004,143.7,97.3,0.507
37.08,34076.5,33770.3,2.9456,-1.5244,143.7,97.3,0.507
37.1,31025.9,34029.9,-1.3912,-1.2053,143.7,97.3,0.507
37.12,35137.7,36194.0,4.4543,1.4547,143.7,97.3,0.507
37.14,32215.4,34093.1,0.2999,-1.1276,143.7,97.3,0.507
37.16,29526.2,33959.4,-3.5233,-1.292,143.7,97.3,0.507
37.18,29201.8,37106.1,-3.9844,2.5759,143.7,97.3,0.507
37.2,28641.2,34168.8,-4.7814,-1.0346,143.7,97.3,0.507
37.22,32169.8,35980.1,0.235,1.1918,143.7,97.3,0.507
37.24,33702.9,37853.9,2.4146,3.4951,143.7,97.3,0.507
37.26,33211.0,37143.2,1.7153,2.6214,143.7,97.3,0.507
37.28,33305.9,34203.1,1.8501,-0.9924,143.7,97.3,0.507
37.3,33004.3,34493.7,1.4215,-0.6352,143.7,97.3,0.507
37.32,28740.4,37619.2,-4.6403,3.2066,143.7,97.3,0.507
37.34,37207.9,36230.1,7.3975,1.4991,143.7,97.3,0.507
37.36,31477.2,32348.0,-0.7495,-3.2726,143.7,97.3,0.507
37.38,29794.7,36196.7,-3.1415,1.458,143.7,97.3,0.507
37.4,34000.6,33685.3,2.8378,-1.6289,143.7,97.3,0.507
37.42,31168.8,36277.8,-1.188,1.5577,143.7,97.3,0.507
37.44,28642.6,36445.2,-4.7795,1.7635,143.7,97.3,0.507
37.46,33232.8,32372.6,1.7462,-3.2424,143.7,97.3,0.507
37.48,33619.7,35514.4,2.2963,0.6194,143.7,97.3,0.507
37.5,32572.8,34822.9,0.808,-0.2305,143.7,97.3,0.507
37.52,34039.2,33971.9,2.8926,-1.2765,143.7,97.3,0.507
37.54,33408.5,39028.9,1.9961,4.9393,143.7,97.3,0.507
37.56,32921.4,37278.4,1.3035,2.7876,143.7,97.3,0.507
37.58,35414.4,35059.2,4.8477,0.0599,143.7,97.3,0.507
37.6,34108.4,35797.9,2.991,0.9679,143.7,97.3,0.507
37.62,34590.4,35146.4,3.6763,0.1671,143.7,97.3,0.507
37.64,31780.1,33256.0,-0.319,-2.1565,143.7,97.3,0.507
37.66,32521.8,33241.7,0.7354,-2.1741,143.7,97.3,0.507
37.68,31785.4,33592.0,-0.3114,-1.7436,143.7,97.3,0.507
37.7,31929.7,35678.0,-0.1064,0.8205,143.7,97.3,0.507
37.72,32559.6,32647.7,0.7892,-2.9043,143.7,97.3,0.507
37.74,30772.1,34124.8,-1.752,-1.0886,143.7,97.3,0.507
37.76,29870.8,33492.6,-3.0333,-1.8658,143.7,97.3,0.507
37.78,34277.5,34029.1,3.2315,-1.2062,143.7,97.3,0.507
37.8,31487.7,37159.4,-0.7346,2.6414,143.7,97.3,0.507
37.82,30337.8,38384.5,-2.3695,4.1472,143.7,97.3,0.507
37.84,31623.5,30104.5,-0.5415,-6.0303,143.7,97.3,0.507
37.86,29943.9,33757.2,-2.9295,-1.5405,143.7,97.3,0.507
37.88,30091.6,34870.6,-2.7195,-0.172,143.7,97.3,0.507
37.9,32665.5,33729.2,0.9397,-1.5749,143.7,97.3,0.507
37.92,33826.1,35465.5,2.5897,0.5593,143.7,97.3,0.507
37.94,31759.9,38167.7,-0.3477,3.8808,143.7,97.3,0.507
37.96,33818.1,34704.1,2.5783,-0.3766,143.7,97.3,0.507
37.98,33146.2,34610.4,1.6231,-0.4917,143.7,97.3,0.507
38.0,33987.2,38709.6,2.8187,4.5468,143.7,97.3,0.507
38.02,31416.0,36562.8,-0.8366,1.908,143.7,97.3,0.507
38.04,35067.8,33638.6,4.355,-1.6863,143.7,97.3,0.507
38.06,31545.9,37640.0,-0.6519,3.2321,143.7,97.3,0.507
38.08,35083.1,34652.6,4.3768,-0.4399,143.7,97.3,0.507
38.1,28233.5,35304.6,-5.3611,0.3616,143.7,97.3,0.507
38.12,32110.6,32795.6,0.1509,-2.7225,143.7,97.3,0.507
38.14,29533.1,35967.7,-3.5134,1.1766,143.7,97.3,0.507
38.16,31534.4,38059.9,-0.6683,3.7482,143.7,97.3,0.507
38.18,32311.3,36791.1,0.4361,2.1886,143.7,97.3,0.507
38.2,32710.1,34778.5,1.0032,-0.2851,143.7,97.3,0.507
38.22,35306.2,34410.4,4.6939,-0.7376,143.7,97.3,0.507
38.24,34453.4,36176.3,3.4815,1.4329,143.7,97.3,0.507
38.26,32348.5,34007.2,0.4891,-1.2332,143.7,97.3,0.507
38.28,29089.9,37891.4,-4.1435,3.5412,143.7,97.3,0.507
38.3,32154.0,36132.2,0.2125,1.3788,143.7,97.3,0.507
38.32,34168.9,35437.1,3.077,0.5244,143.7,97.3,0.507
38.34,31493.4,34124.4,-0.7265,-1.0892,143.7,97.3,0.507
38.36,32311.6,34376.2,0.4366,-0.7796,143.7,97.3,0.507
38.38,32489.5,35640.2,0.6895,0.774,143.7,97.3,0.507
38.4,32358.0,36195.3,0.5026,1.4564,143.7,97.3,0.507
38.42,33369.6,34086.3,1.9408,-1.1359,143.7,97.3,0.507
38.44,34049.5,35209.9,2.9073,0.2451,143.7,97.3,0.507
38.46,33638.4,38778.6,2.3229,4.6317,143.7,97.3,0.507
38.48,33554.4,34808.2,2.2035,-0.2487,143.7,97.3,0.507
38.5,30991.6,36831.9,-1.4399,2.2389,143.7,97.3,0.507
38.52,31995.3,37129.3,-0.0131,2.6044,143.7,97.3,0.507
38.54,32958.7,37762.0,1.3566,3.382,143.7,97.3,0.507
38.56,33468.5,34405.2,2.0814,-0.7439,143.7,97.3,0.507
38.58,30461.7,36370.8,-2.1933,1.6721,143.7,97.3,0.507
38.6,30814.5,40325.4,-1.6917,6.5329,143.7,97.3,0.507
38.62,31931.4,37187.4,-0.1039,2.6758,143.7,97.3,0.507
38.64,33716.1,32813.8,2.4333,-2.7001,143.7,97.3,0.507
38.66,31478.6,36601.5,-0.7476,1.9557,143.7,97.3,0.507
38.68,28311.2,33488.6,-5.2505,-1.8706,143.7,97.3,0.507
38.7,30444.1,37110.6,-2.2183,2.5814,143.7,97.3,0.507
38.72,31258.7,37753.2,-1.0602,3.3713,143.7,97.3,0.507
38.74,34935.2,36064.7,4.1664,1.2957,143.7,97.3,0.507
38.76,31425.5,32895.8,-0.8231,-2.5993,143.7,97.3,0.507
38.78,28237.0,34576.5,-5.3561,-0.5335,143.7,97.3,0.507
38.8,31942.5,36250.2,-0.0881,1.5239,143.7,97.3,0.507
38.82,33621.9,32183.2,2.2995,-3.4751,143.7,97.3,0.507
38.84,31352.9,32874.3,-0.9264,-2.6257,143.7,97.3,0.507
38.86,32450.9,31954.7,0.6347,-3.7561,143.7,97.3,0.507
38.88,31547.0,35915.7,-0.6504,1.1126,143.7,97.3,0.507
38.9,34692.5,37028.2,3.8215,2.4801,143.7,97.3,0.507
38.92,34101.1,32966.7,2.9807,-2.5121,143.7,97.3,0.507
38.94,34312.5,37939.4,3.2813,3.6001,143.7,97.3,0.507
38.96,34645.7,37270.8,3.7549,2.7783,143.7,97.3,0.507
38.98,32258.6,37924.2,0.3613,3.5814,143.7,97.3,0.507
39.0,31924.9,33709.2,-0.1131,-1.5995,143.7,97.3,0.507
39.02,35805.8,30353.8,5.4041,-5.7238,143.7,97.3,0.507
39.04,30430.5,37630.8,-2.2376,3.2209,143.7,97.3,0.507
39.06,34553.9,33720.9,3.6244,-1.5851,143.7,97.3,0.507
39.08,33431.0,34300.4,2.0281,-0.8728,143.7,97.3,0.507
39.1,29926.2,29377.0,-2.9545,-6.9245,143.7,97.3,0.507
39.12,33622.6,34770.5,2.3004,-0.295,143.7,97.3,0.507
39.14,26639.9,34410.6,-7.6266,-0.7373,143.7,97.3,0.507
39.16,32937.3,35017.6,1.3262,0.0087,143.7,97.3,0.507
39.18,29653.2,34831.2,-3.3427,-0.2203,143.7,97.3,0.507
39.2,34459.4,35592.9,3.49,0.7158,143.7,97.3,0.507
39.22,30469.3,37016.9,-2.1825,2.4662,143.7,97.3,0.507
39.24,33240.1,34454.9,1.7566,-0.6829,143.7,97.3,0.507
39.26,30585.6,33339.3,-2.0171,-2.0541,143.7,97.3,0.507
39.28,33586.6,35071.7,2.2493,0.0752,143.7,97.3,0.507
39.3,34982.6,39014.5,4.2338,4.9216,143.7,97.3,0.507
39.32,32292.2,33621.2,0.409,-1.7076,143.7,97.3,0.507
39.34,30774.3,35891.7,-1.7489,1.0831,143.7,97.3,0.507
39.36,30576.6,35841.2,-2.0299,1.0211,143.7,97.3,0.507
39.38,30932.0,35335.6,-1.5246,0.3996,143.7,97.3,0.507
39.4,31308.2,35788.4,-0.9899,0.9562,143.7,97.3,0.507
39.42,30626.1,35921.9,-1.9596,1.1203,143.7,97.3,0.507
39.44,29172.7,35360.1,-4.0258,0.4297,143.7,97.3,0.507
39.46,33430.5,37295.4,2.0273,2.8085,143.7,97.3,0.507
39.48,32266.3,33655.9,0.3722,-1.6651,143.7,97.3,0.507
39.5,31479.3,33504.0,-0.7467,-1.8517,143.7,97.3,0.507
39.52,32125.3,33630.4,0.1717,-1.6964,143.7,97.3,0.507
39.54,30843.9,32625.9,-1.65,-2.931,143.7,97.3,0.507
39.56,35956.8,35750.9,5.6188,0.9101,143.7,97.3,0.507
39.58,28717.0,33265.7,-4.6736,-2.1446,143.7,97.3,0.507
39.6,31890.6,34210.0,-0.1619,-0.9839,143.7,97.3,0.507
39.62,35143.1,35046.5,4.4621,0.0443,143.7,97.3,0.507
39.64,33069.3,33677.9,1.5138,-1.638,143.7,97.3,0.507
39.66,29564.4,35403.4,-3.4689,0.483,143.7,97.3,0.507
39.68,33063.4,36620.7,1.5055,1.9793,143.7,97.3,0.507
39.7,30025.2,33701.0,-2.8138,-1.6096,143.7,97.3,0.507
39.72,33669.2,37734.3,2.3666,3.3481,143.7,97.3,0.507
39.74,34302.8,36595.5,3.2674,1.9482,143.7,97.3,0.507
39.76,33290.6,34398.6,1.8285,-0.7521,143.7,97.3,0.507
39.78,30340.4,38429.0,-2.3657,4.2019,143.7,97.3,0.507
39.8,32165.6,36111.6,0.229,1.3535,143.7,97.3,0.507
39.82,35763.1,38594.6,5.3434,4.4054,143.7,97.3,0.507
39.84,32707.8,33130.8,0.9999,-2.3104,143.7,97.3,0.507
39.86,34506.7,36731.5,3.5573,2.1155,143.7,97.3,0.507
39.88,32141.1,36416.9,0.1942,1.7287,143.7,97.3,0.507
39.9,30293.1,34292.7,-2.433,-0.8823,143.7,97.3,0.507
39.92,32693.7,37931.1,0.9799,3.5899,143.7,97.3,0.507
39.94,33490.5,30989.9,2.1126,-4.942,143.7,97.3,0.507
39.96,31902.7,34580.4,-0.1448,-0.5286,143.7,97.3,0.507
39.98,31461.3,31554.1,-0.7722,-4.2484,143.7,97.3,0.507
40.0,29989.4,36032.9,-2.8647,1.2567,143.7,97.3,0.507
40.02,33661.9,33803.8,2.3563,-1.4831,143.7,97.3,0.507
40.04,33288.1,36476.8,1.8248,1.8023,143.7,97.3,0.507
40.06,32258.3,36756.5,0.3608,2.1462,143.7,97.3,0.507
40.08,33981.1,36779.2,2.8101,2.174,143.7,97.3,0.507
40.1,35142.8,35975.7,4.4616,1.1864,143.7,97.3,0.507
40.12,30695.4,36809.9,-1.8611,2.2118,143.7,97.3,0.507
40.14,32062.5,36099.6,0.0825,1.3387,143.7,97.3,0.507
40.16,32390.8,34194.6,0.5493,-1.0028,143.7,97.3,0.507
40.18,34584.9,34346.1,3.6685,-0.8166,143.7,97.3,0.507
40.2,33453.6,37979.0,2.0602,3.6488,143.7,97.3,0.507
40.22,33481.0,36641.8,2.099,2.0051,143.7,97.3,0.507
40.24,27964.0,34452.9,-5.7442,-0.6854,143.7,97.3,0.507
40.26,31165.2,38898.9,-1.1932,4.7795,143.7,97.3,0.507
40.28,30690.5,35847.6,-1.868,1.029,143.7,97.3,0.507
40.3,32789.4,35491.1,1.116,0.5908,143.7,97.3,0.507
40.32,32736.8,34339.6,1.0411,-0.8246,143.7,97.3,0.507
40.34,31020.7,35951.2,-1.3987,1.1562,143.7,97.3,0.507
40.36,31500.0,40050.9,-0.7171,6.1955,143.7,97.3,0.507
40.38,32150.6,36588.9,0.2077,1.9402,143.7,97.3,0.507
40.4,32621.3,36809.4,0.8769,2.2111,143.7,97.3,0.507
40.42,29388.7,37326.0,-3.7188,2.8461,143.7,97.3,0.507
40.44,33129.5,33445.5,1.5993,-1.9236,143.7,97.3,0.507
40.46,34928.3,31429.6,4.1567,-4.4014,143.7,97.3,0.507
40.48,30032.9,39364.3,-2.8029,5.3515,143.7,97.3,0.507
40.5,32575.9,34213.6,0.8124,-0.9795,143.7,97.3,0.507
40.52,32035.9,34604.0,0.0447,-0.4997,143.7,97.3,0.507
40.54,30066.2,38893.9,-2.7556,4.7734,143.7,97.3,0.507
40.56,30977.1,35559.7,-1.4606,0.6751,143.7,97.3,0.507
40.58,32651.4,37534.6,0.9197,3.1025,143.7,97.3,0.507
40.6,34488.8,37327.1,3.5319,2.8475,143.7,97.3,0.507
40.62,33440.0,36632.4,2.0409,1.9936,143.7,97.3,0.507
40.64,32155.7,33171.8,0.215,-2.2601,143.7,97.3,0.507
40.66,33436.6,33525.3,2.036,-1.8255,143.7,97.3,0.507
40.68,33435.7,33893.7,2.0346,-1.3727,143.7,97.3,0.507
40.7,31117.3,33440.0,-1.2612,-1.9304,143.7,97.3,0.507
40.72,31861.2,33067.5,-0.2037,-2.3882,143.7,97.3,0.507
40.74,31571.8,31012.7,-0.6152,-4.9139,143.7,97.3,0.507
40.76,30643.4,36558.1,-1.935,1.9023,143.7,97.3,0.507
40.78,31943.6,32919.4,-0.0866,-2.5703,143.7,97.3,0.507
40.8,30453.8,32846.6,-2.2045,-2.6598,143.7,97.3,0.507
40.82,37947.3,33410.0,8.4486,-1.9672,143.7,97.3,0.507
40.84,31407.4,34105.0,-0.8489,-1.113,143.7,97.3,0.507
40.86,32387.6,34970.8,0.5447,-0.0488,143.7,97.3,0.507
40.88,32152.4,35266.9,0.2104,0.3152,143.7,97.3,0.507
40.9,32228.9,34784.9,0.3191,-0.2772,143.7,97.3,0.507
40.92,30010.0,31517.0,-2.8354,-4.2941,143.7,97.3,0.507
40.94,29492.1,36453.5,-3.5717,1.7737,143.7,97.3,0.507
40.96,30551.1,31993.2,-2.0661,-3.7088,143.7,97.3,0.507
40.98,31074.1,40453.2,-1.3227,6.6899,143.7,97.3,0.507
41.0,32042.6,36920.9,0.0541,2.3482,143.7,97.3,0.507
41.02,32676.5,34223.2,0.9554,-0.9677,143.7,97.3,0.507
41.04,34051.7,35896.2,2.9105,1.0887,143.7,97.3,0.507
41.06,28006.9,34967.9,-5.6831,-0.0523,143.7,97.3,0.507
41.08,33265.5,34327.9,1.7928,-0.839,143.7,97.3,0.507
41.1,35065.4,32388.4,4.3516,-3.2229,143.7,97.3,0.507
41.12,30968.9,33453.7,-1.4723,-1.9136,143.7,97.3,0.507
41.14,33917.2,37996.0,2.7192,3.6697,143.7,97.3,0.507
41.16,31183.0,35132.3,-1.1679,0.1497,143.7,97.3,0.507
41.18,31200.8,30800.8,-1.1426,-5.1744,143.7,97.3,0.507
41.2,33336.0,35225.0,1.8929,0.2637,143.7,97.3,0.507
41.22,30608.5,39731.8,-1.9847,5.8033,143.7,97.3,0.507
41.24,32915.3,34732.3,1.2948,-0.3419,143.7,97.3,0.507
41.26,31108.5,31714.8,-1.2738,-4.0509,143.7,97.3,0.507
41.28,33633.4,38460.6,2.3157,4.2407,143.7,97.3,0.507
41.3,31199.9,32864.0,-1.1439,-2.6384,143.7,97.3,0.507
41.32,30156.0,31860.8,-2.6278,-3.8715,143.7,97.3,0.507
41.34,33327.0,34052.6,1.8802,-1.1774,143.7,97.3,0.507
41.36,32288.3,36822.3,0.4034,2.2271,143.7,97.3,0.507
41.38,33713.4,32076.1,2.4295,-3.6068,143.7,97.3,0.507
41.4,32129.0,34791.0,0.177,-0.2697,143.7,97.3,0.507
41.42,32361.8,37499.4,0.508,3.0593,143.7,97.3,0.507
41.44,33632.5,34826.7,2.3144,-0.2259,143.7,97.3,0.507
41.46,36427.8,37503.1,6.2885,3.0638,143.7,97.3,0.507
41.48,32904.1,36963.3,1.2789,2.4003,143.7,97.3,0.507
41.5,33409.6,37489.4,1.9976,3.0469,143.7,97.3,0.507
41.52,30950.8,32384.2,-1.498,-3.2281,143.7,97.3,0.507
41.54,28586.4,32569.5,-4.8594,-3.0004,143.7,97.3,0.507
41.56,31444.7,39457.2,-0.7959,5.4657,143.7,97.3,0.507
41.58,31664.2,34455.4,-0.4838,-0.6823,143.7,97.3,0.507
41.6,33082.2,30106.1,1.5322,-6.0283,143.7,97.3,0.507
41.62,33135.7,34183.9,1.6082,-1.016,143.7,97.3,0.507
41.64,33479.4,32855.2,2.0968,-2.6492,143.7,97.3,0.507
41.66,28233.2,36230.5,-5.3614,1.4995,143.7,97.3,0.507
41.68,30795.4,36492.8,-1.7189,1.822,143.7,97.3,0.507
41.7,30872.3,33510.2,-1.6095,-1.844,143.7,97.3,0.507
41.72,30105.8,32729.5,-2.6993,-2.8037,143.7,97.3,0.507
41.74,31408.6,30805.6,-0.8471,-5.1685,143.7,97.3,0.507
41.76,28210.1,35970.5,-5.3942,1.18,143.7,97.3,0.507
41.78,30484.9,37494.7,-2.1603,3.0535,143.7,97.3,0.507
41.8,31263.5,38407.9,-1.0534,4.176,143.7,97.3,0.507
41.82,33104.7,33549.0,1.5641,-1.7964,143.7,97.3,0.507
41.84,35200.2,34711.9,4.5432,-0.367,143.7,97.3,0.507
41.86,32617.2,33540.8,0.8711,-1.8065,143.7,97.3,0.507
41.88,35413.7,37022.0,4.8467,2.4725,143.7,97.3,0.507
41.9,31443.9,35762.7,-0.7969,0.9245,143.7,97.3,0.507
41.92,30902.9,34743.3,-1.5661,-0.3284,143.7,97.3,0.507
41.94,33073.6,39489.2,1.5199,5.5051,143.7,97.3,0.507
41.96,32616.1,31024.8,0.8695,-4.8991,143.7,97.3,0.507
41.98,30218.8,36172.2,-2.5386,1.4279,143.7,97.3,0.507
42.0,27251.2,33267.3,-6.7575,-2.1427,143.7,97.3,0.507
42.02,30239.2,33479.0,-2.5096,-1.8824,143.7,97.3,0.507
42.04,31202.3,34801.5,-1.1404,-0.2569,143.7,97.3,0.507
42.06,31205.7,32912.6,-1.1356,-2.5786,143.7,97.3,0.507
42.08,33348.0,36395.7,1.91,1.7027,143.7,97.3,0.507
42.1,31432.2,36994.6,-0.8136,2.4388,143.7,97.3,0.507
42.12,32531.9,32642.9,0.7498,-2.9101,143.7,97.3,0.507
42.14,30810.7,29834.7,-1.6971,-6.3619,143.7,97.3,0.507
42.16,34298.0,34911.6,3.2606,-0.1215,143.7,97.3,0.507
42.18,28700.5,31034.9,-4.6971,-4.8866,143.7,97.3,0.507
42.2,35640.1,39023.6,5.1686,4.9328,143.7,97.3,0.507
42.22,34150.8,36334.2,3.0513,1.627,143.7,97.3,0.507
42.24,32530.2,37026.9,0.7475,2.4785,143.7,97.3,0.507
42.26,30598.9,35011.6,-1.9982,0.0014,143.7,97.3,0.507
42.28,30610.8,36158.3,-1.9814,1.4108,143.7,97.3,0.507
42.3,32257.2,35485.2,0.3592,0.5835,143.7,97.3,0.507
42.32,31044.8,33175.5,-1.3644,-2.2555,143.7,97.3,0.507
42.34,31602.5,35410.3,-0.5714,0.4915,143.7,97.3,0.507
42.36,27003.3,35188.3,-7.1099,0.2186,143.7,97.3,0.507
42.38,32665.5,30333.2,0.9398,-5.7491,143.7,97.3,0.507
42.4,31214.8,37516.3,-1.1226,3.08,143.7,97.3,0.507
42.42,33341.1,34744.0,1.9003,-0.3275,143.7,97.3,0.507
42.44,29645.0,31387.4,-3.3543,-4.4534,143.7,97.3,0.507
42.46,31432.4,36453.5,-0.8132,1.7737,143.7,97.3,0.507
42.48,32817.4,31530.4,1.1557,-4.2776,143.7,97.3,0.507
42.5,33183.2,32538.8,1.6757,-3.0381,143.7,97.3,0.507
42.52,30949.0,35635.6,-1.5005,0.7684,143.7,97.3,0.507
42.54,29633.9,32040.3,-3.3702,-3.6508,143.7,97.3,0.507
42.56,32743.4,31828.9,1.0505,-3.9107,143.7,97.3,0.507
42.58,30454.5,35718.0,-2.2035,0.8696,143.7,97.3,0.507
42.6,33658.1,37763.7,2.3509,3.3841,143.7,97.3,0.507
42.62,31086.9,38061.0,-1.3045,3.7496,143.7,97.3,0.507
42.64,36911.2,34646.8,6.9757,-0.4471,143.7,97.3,0.507
42.66,32612.0,41027.5,0.8637,7.3959,143.7,97.3,0.507
42.68,33276.4,36183.2,1.8082,1.4415,143.7,97.3,0.507
42.7,30833.4,38867.7,-1.6648,4.7412,143.7,97.3,0.507
42.72,34306.8,35275.8,3.2732,0.3261,143.7,97.3,0.507
42.74,33833.0,30592.1,2.5995,-5.4309,143.7,97.3,0.507
42.76,32803.0,33894.0,1.1352,-1.3723,143.7,97.3,0.507
42.78,33904.3,33896.7,2.7009,-1.369,143.7,97.3,0.507
42.8,29995.3,35964.0,-2.8563,1.1721,143.7,97.3,0.507
42.82,30977.6,35283.6,-1.4598,0.3357,143.7,97.3,0.507
42.84,33981.8,37139.1,2.8111,2.6164,143.7,97.3,0.507
42.86,33288.5,35144.9,1.8254,0.1652,143.7,97.3,0.507
42.88,30382.2,35686.8,-2.3063,0.8313,143.7,97.3,0.507
42.9,32165.3,35752.1,0.2286,0.9116,143.7,97.3,0.507
42.92,30090.2,35369.2,-2.7214,0.441,143.7,97.3,0.507
42.94,33944.4,32559.3,2.758,-3.0129,143.7,97.3,0.507
42.96,33979.7,35401.5,2.808,0.4807,143.7,97.3,0.507
42.98,29258.9,32947.2,-3.9032,-2.5361,143.7,97.3,0.507
43.0,32417.2,34201.8,0.5868,-0.994,143.7,97.3,0.507
43.02,30986.4,38652.5,-1.4473,4.4767,143.7,97.3,0.507
43.04,30455.2,36999.9,-2.2025,2.4454,143.7,97.3,0.507
43.06,31448.9,35080.3,-0.7899,0.0858,143.7,97.3,0.507
43.08,33581.2,37071.0,2.2415,2.5327,143.7,97.3,0.507
43.1,29446.9,34693.6,-3.636,-0.3896,143.7,97.3,0.507
43.12,30738.2,36867.2,-1.8002,2.2822,143.7,97.3,0.507
43.14,31516.9,33678.4,-0.6932,-1.6374,143.7,97.3,0.507
43.16,34120.4,33469.8,3.0081,-1.8938,143.7,97.3,0.507
43.18,29528.2,36752.5,-3.5204,2.1412,143.7,97.3,0.507
43.2,30815.4,34128.6,-1.6905,-1.0839,143.7,97.3,0.507
43.22,30098.6,30328.3,-2.7095,-5.7552,143.7,97.3,0.507
43.24,27575.4,33965.4,-6.2966,-1.2846,143.7,97.3,0.507
43.26,31963.2,34332.0,-0.0587,-0.8339,143.7,97.3,0.507
43.28,36027.7,35123.7,5.7196,0.1391,143.7,97.3,0.507
43.3,29266.4,33092.0,-3.8926,-2.3581,143.7,97.3,0.507
43.32,31815.8,36130.0,-0.2682,1.3761,143.7,97.3,0.507
43.34,28145.1,31159.8,-5.4867,-4.7331,143.7,97.3,0.507
43.36,27807.2,34275.6,-5.9671,-0.9033,143.7,97.3,0.507
43.38,30738.4,35562.5,-1.8,0.6785,143.7,97.3,0.507
43.4,30566.0,33906.7,-2.045,-1.3568,143.7,97.3,0.507
43.42,31277.8,32649.7,-1.0331,-2.9018,143.7,97.3,0.507
43.44,30208.2,36921.4,-2.5537,2.3489,143.7,97.3,0.507
43.46,31577.9,33747.8,-0.6064,-1.552,143.7,97.3,0.507
43.48,33756.1,34305.8,2.4902,-0.8661,143.7,97.3,0.507
43.5,31519.8,38462.5,-0.6891,4.2431,143.7,97.3,0.507
43.52,29467.8,34153.0,-3.6063,-1.0539,143.7,97.3,0.507
43.54,35164.4,35312.5,4.4923,0.3713,143.7,97.3,0.507
43.56,34429.8,34156.9,3.4479,-1.0492,143.7,97.3,0.507
43.58,30627.4,36208.5,-1.9577,1.4726,143.7,97.3,0.507
43.6,31899.5,34877.7,-0.1493,-0.1632,143.7,97.3,0.507
43.62,30082.2,35476.3,-2.7328,0.5726,143.7,97.3,0.507
43.64,28861.5,36832.7,-4.4683,2.2398,143.7,97.3,0.507
43.66,33650.7,34289.8,2.3404,-0.8859,143.7,97.3,0.507
43.68,28940.1,33986.3,-4.3565,-1.2589,143.7,97.3,0.507
43.7,29494.2,34230.2,-3.5688,-0.9591,143.7,97.3,0.507
43.72,36402.9,32071.0,6.253,-3.6131,143.7,97.3,0.507
43.74,32491.9,37336.2,0.693,2.8586,143.7,97.3,0.507
43.76,29823.8,34898.5,-3.1001,-0.1376,143.7,97.3,0.507
43.78,27408.1,34216.9,-6.5344,-0.9755,143.7,97.3,0.507
43.8,33134.1,35747.1,1.606,0.9054,143.7,97.3,0.507
43.82,32426.6,32851.0,0.6002,-2.6543,143.7,97.3,0.507
43.84,30712.2,38925.5,-1.8372,4.8122,143.7,97.3,0.507
43.86,33842.1,35927.4,2.6124,1.1271,143.7,97.3,0.507
43.88,33731.4,36479.6,2.455,1.8058,143.7,97.3,0.507
43.9,32507.8,35089.4,0.7156,0.0969,143.7,97.3,0.507
43.92,32821.5,32164.6,1.1615,-3.498,143.7,97.3,0.507
43.94,30726.3,34493.4,-1.8171,-0.6355,143.7,97.3,0.507
43.96,35364.3,36616.1,4.7765,1.9736,143.7,97.3,0.507
43.98,34326.4,34349.2,3.3009,-0.8128,143.7,97.3,0.507
44.0,31083.3,36273.3,-1.3097,1.5522,143.7,97.3,0.507
44.02,33027.1,35911.4,1.4538,1.1074,143.7,97.3,0.507
44.04,29612.2,34964.4,-3.4009,-0.0566,143.7,97.3,0.507
44.06,33497.0,35619.6,2.1219,0.7488,143.7,97.3,0.507
44.08,30873.6,32413.3,-1.6077,-3.1924,143.7,97.3,0.507
44.1,32295.4,35434.3,0.4136,0.521,143.7,97.3,0.507
44.12,28209.1,37130.2,-5.3957,2.6054,143.7,97.3,0.507
44.14,31750.0,36735.2,-0.3618,2.1199,143.7,97.3,0.507
44.16,30386.5,34322.3,-2.3002,-0.8459,143.7,97.3,0.507
44.18,26810.5,32049.7,-7.384,-3.6393,143.7,97.3,0.507
44.2,31187.1,33561.2,-1.162,-1.7814,143.7,97.3,0.507
44.22,32176.1,35520.3,0.2439,0.6266,143.7,97.3,0.507
44.24,29904.5,37341.0,-2.9854,2.8646,143.7,97.3,0.507
44.26,33612.3,34112.0,2.2858,-1.1044,143.7,97.3,0.507
44.28,31918.6,36689.1,-0.1221,2.0633,143.7,97.3,0.507
44.3,31991.1,37885.1,-0.019,3.5334,143.7,97.3,0.507
44.32,33215.4,36921.2,1.7215,2.3486,143.7,97.3,0.507
44.34,32288.8,34899.7,0.4042,-0.1362,143.7,97.3,0.507
44.36,31437.0,36634.9,-0.8067,1.9967,143.7,97.3,0.507
44.38,35011.8,35157.7,4.2754,0.1809,143.7,97.3,0.507
44.4,32003.7,36394.4,-0.0012,1.7011,143.7,97.3,0.507
44.42,32408.6,37110.3,0.5745,2.581,143.7,97.3,0.507
44.44,31578.2,33768.4,-0.606,-1.5267,143.7,97.3,0.507
44.46,34220.5,34997.2,3.1504,-0.0163,143.7,97.3,0.507
44.48,30932.1,33955.7,-1.5246,-1.2965,143.7,97.3,0.507
44.5,31457.6,33417.5,-0.7775,-1.958,143.7,97.3,0.507
44.52,34810.1,35750.1,3.9886,0.9092,143.7,97.3,0.507
44.54,31247.1,35435.7,-1.0768,0.5226,143.7,97.3,0.507
44.56,30474.9,35098.9,-2.1745,0.1087,143.7,97.3,0.507
44.58,32705.0,31813.9,0.9958,-3.9291,143.7,97.3,0.507
44.6,31868.0,36433.6,-0.194,1.7492,143.7,97.3,0.507
44.62,31097.0,33868.5,-1.2902,-1.4037,143.7,97.3,0.507
44.64,32568.9,34573.2,0.8025,-0.5374,143.7,97.3,0.507
44.66,36893.4,34090.9,6.9503,-1.1303,143.7,97.3,0.507
44.68,29382.2,36010.9,-3.7279,1.2297,143.7,97.3,0.507
44.7,31969.0,37852.8,-0.0505,3.4936,143.7,97.3,0.507
44.72,31133.8,38589.7,-1.2379,4.3994,143.7,97.3,0.507
44.74,29087.2,38468.0,-4.1474,4.2499,143.7,97.3,0.507
44.76,33657.5,33732.7,2.35,-1.5706,143.7,97.3,0.507
44.78,31710.5,35798.8,-0.4179,0.969,143.7,97.3,0.507
44.8,32861.7,35528.0,1.2187,0.6361,143.7,97.3,0.507
44.82,32643.3,37121.1,0.9082,2.5943,143.7,97.3,0.507
44.84,30529.6,36310.9,-2.0968,1.5985,143.7,97.3,0.507
44.86,28362.1,32685.5,-5.1782,-2.8578,143.7,97.3,0.507
