timestamp,raw_red,raw_ir,filtered_red,filtered_ir,heart_rate,spo2,ac_dc_ratio
0.0,32115.8,35131.0,0.166,0.1364,145.0,98.0,0.48
0.02,32172.0,35528.8,0.2429,0.6083,145.0,98.0,0.48
0.04,32346.8,35718.5,0.4818,0.8333,145.0,98.0,0.48
0.06,32311.7,35758.0,0.4338,0.8801,145.0,98.0,0.48
0.08,32302.7,35661.2,0.4215,0.7654,145.0,98.0,0.48
0.1,32061.2,35288.1,0.0914,0.3228,145.0,98.0,0.48
0.12,32110.2,35236.1,0.1583,0.261,145.0,98.0,0.48
0.14,32097.3,35079.9,0.1407,0.0757,145.0,98.0,0.48
0.16,31960.1,35064.4,-0.0469,0.0574,145.0,98.0,0.48
0.18,32142.3,35040.9,0.2023,0.0295,145.0,98.0,0.48
0.2,31922.7,34905.5,-0.098,-0.1311,145.0,98.0,0.48
0.22,31945.5,34791.9,-0.0669,-0.2659,145.0,98.0,0.48
0.24,31828.1,34715.1,-0.2274,-0.3571,145.0,98.0,0.48
0.26,31835.7,34672.8,-0.217,-0.4072,145.0,98.0,0.48
0.28,31746.7,34750.7,-0.3386,-0.3147,145.0,98.0,0.48
0.3,31813.2,34603.8,-0.2477,-0.489,145.0,98.0,0.48
0.32,31881.5,34538.5,-0.1544,-0.5665,145.0,98.0,0.48
0.34,31755.4,34525.3,-0.3267,-0.5822,145.0,98.0,0.48
0.36,31744.7,34449.3,-0.3414,-0.6723,145.0,98.0,0.48
0.38,31767.3,34597.3,-0.3105,-0.4968,145.0,98.0,0.48
0.4,31906.1,34886.7,-0.1207,-0.1535,145.0,98.0,0.48
0.42,32095.6,35238.5,0.1385,0.2639,145.0,98.0,0.48
0.44,32259.6,35643.2,0.3626,0.7439,145.0,98.0,0.48
0.46,32391.5,35763.6,0.5429,0.8868,145.0,98.0,0.48
0.48,32351.4,35712.2,0.4881,0.8258,145.0,98.0,0.48
0.5,32343.2,35487.4,0.4769,0.5591,145.0,98.0,0.48
0.52,32196.2,35338.5,0.276,0.3825,145.0,98.0,0.48
0.54,32016.8,35228.2,0.0307,0.2517,145.0,98.0,0.48
0.56,32060.1,35234.9,0.0899,0.2597,145.0,98.0,0.48
0.58,32005.0,35066.1,0.0145,0.0594,145.0,98.0,0.48
0.6,32006.2,34964.1,0.0162,-0.0616,145.0,98.0,0.48
0.62,31886.3,34846.2,-0.1478,-0.2014,145.0,98.0,0.48
0.64,31958.0,34820.5,-0.0497,-0.232,145.0,98.0,0.48
0.66,31880.6,34746.8,-0.1555,-0.3194,145.0,98.0,0.48
0.68,31895.8,34611.8,-0.1347,-0.4795,145.0,98.0,0.48
0.7,31844.0,34606.7,-0.2056,-0.4856,145.0,98.0,0.48
0.72,31874.3,34686.8,-0.1641,-0.3906,145.0,98.0,0.48
0.74,31727.1,34565.2,-0.3654,-0.5348,145.0,98.0,0.48
0.76,31702.2,34477.5,-0.3995,-0.6388,145.0,98.0,0.48
0.78,31743.5,34543.1,-0.343,-0.561,145.0,98.0,0.48
0.8,31832.3,34520.5,-0.2216,-0.5878,145.0,98.0,0.48
0.82,31922.9,35028.2,-0.0977,0.0144,145.0,98.0,0.48
0.84,32156.8,35369.9,0.2221,0.4197,145.0,98.0,0.48
0.86,32278.6,35734.3,0.3887,0.8521,145.0,98.0,0.48
0.88,32300.4,35769.9,0.4184,0.8943,145.0,98.0,0.48
0.9,32371.1,35672.6,0.5151,0.7788,145.0,98.0,0.48
0.92,32308.1,35532.1,0.429,0.6122,145.0,98.0,0.48
0.94,32195.5,35203.8,0.275,0.2227,145.0,98.0,0.48
0.96,32052.5,35154.9,0.0795,0.1647,145.0,98.0,0.48
0.98,32080.1,35074.8,0.1172,0.0697,145.0,98.0,0.48
1.0,31950.1,34968.2,-0.0606,-0.0567,145.0,98.0,0.48
1.02,32012.9,34958.4,0.0254,-0.0684,145.0,98.0,0.48
1.04,31897.3,34736.5,-0.1327,-0.3316,145.0,98.0,0.48
1.06,31835.1,34841.8,-0.2177,-0.2067,145.0,98.0,0.48
1.08,31827.4,34690.0,-0.2283,-0.3867,145.0,98.0,0.48
1.1,31869.7,34697.2,-0.1705,-0.3782,145.0,98.0,0.48
1.12,31877.9,34557.0,-0.1593,-0.5446,145.0,98.0,0.48
1.14,31907.9,34502.7,-0.1182,-0.6089,145.0,98.0,0.48
1.16,31738.5,34496.0,-0.3499,-0.617,145.0,98.0,0.48
1.18,31707.2,34529.9,-0.3926,-0.5767,145.0,98.0,0.48
1.2,31660.1,34510.3,-0.457,-0.5999,145.0,98.0,0.48
1.22,31803.7,34757.6,-0.2606,-0.3066,145.0,98.0,0.48
1.24,32062.8,35083.7,0.0936,0.0803,145.0,98.0,0.48
1.26,32200.8,35457.7,0.2822,0.5239,145.0,98.0,0.48
1.28,32287.4,35709.2,0.4007,0.8222,145.0,98.0,0.48
1.3,32348.7,35719.0,0.4845,0.834,145.0,98.0,0.48
1.32,32273.2,35610.6,0.3812,0.7053,145.0,98.0,0.48
1.34,32248.4,35450.4,0.3473,0.5153,145.0,98.0,0.48
1.36,32122.4,35126.2,0.1751,0.1307,145.0,98.0,0.48
1.38,32027.8,35219.8,0.0457,0.2417,145.0,98.0,0.48
1.4,32001.7,35067.5,0.01,0.0611,145.0,98.0,0.48
1.42,32102.3,34957.2,0.1476,-0.0698,145.0,98.0,0.48
1.44,31971.1,34921.5,-0.0319,-0.1122,145.0,98.0,0.48
1.46,31863.0,34829.2,-0.1796,-0.2216,145.0,98.0,0.48
1.48,31854.3,34773.6,-0.1916,-0.2876,145.0,98.0,0.48
1.5,31814.1,34641.2,-0.2465,-0.4447,145.0,98.0,0.48
1.52,31817.5,34667.7,-0.2419,-0.4133,145.0,98.0,0.48
1.54,31831.8,34623.1,-0.2223,-0.4662,145.0,98.0,0.48
1.56,31714.1,34497.7,-0.3832,-0.615,145.0,98.0,0.48
1.58,31742.7,34503.5,-0.344,-0.6081,145.0,98.0,0.48
1.6,31782.0,34461.4,-0.2903,-0.658,145.0,98.0,0.48
1.62,31792.1,34585.9,-0.2766,-0.5103,145.0,98.0,0.48
1.64,31938.7,35037.2,-0.0761,0.0251,145.0,98.0,0.48
1.66,32066.2,35209.6,0.0982,0.2296,145.0,98.0,0.48
1.68,32198.1,35691.1,0.2786,0.8008,145.0,98.0,0.48
1.7,32344.4,35759.7,0.4786,0.8822,145.0,98.0,0.48
1.72,32292.7,35748.2,0.4079,0.8685,145.0,98.0,0.48
1.74,32256.6,35609.5,0.3585,0.704,145.0,98.0,0.48
1.76,32068.1,35358.6,0.1007,0.4064,145.0,98.0,0.48
1.78,32069.7,35142.2,0.103,0.1497,145.0,98.0,0.48
1.8,32079.6,35203.5,0.1165,0.2223,145.0,98.0,0.48
1.82,31990.3,35101.2,-0.0056,0.101,145.0,98.0,0.48
1.84,31941.4,35000.0,-0.0724,-0.019,145.0,98.0,0.48
1.86,31944.6,34896.6,-0.068,-0.1417,145.0,98.0,0.48
1.88,31795.7,34719.1,-0.2716,-0.3522,145.0,98.0,0.48
1.9,31851.5,34684.2,-0.1953,-0.3937,145.0,98.0,0.48
1.92,31828.7,34744.2,-0.2265,-0.3226,145.0,98.0,0.48
1.94,31816.2,34696.7,-0.2436,-0.3788,145.0,98.0,0.48
1.96,31809.8,34567.7,-0.2523,-0.5319,145.0,98.0,0.48
1.98,31739.7,34549.4,-0.3482,-0.5536,145.0,98.0,0.48
2.0,31700.4,34371.4,-0.402,-0.7647,145.0,98.0,0.48
2.02,31814.8,34440.4,-0.2455,-0.6829,145.0,98.0,0.48
2.04,31846.2,34601.9,-0.2026,-0.4913,145.0,98.0,0.48
2.06,32107.0,34991.9,0.154,-0.0286,145.0,98.0,0.48
2.08,32195.6,35461.2,0.2752,0.528,145.0,98.0,0.48
2.1,32244.4,35656.6,0.3418,0.7598,145.0,98.0,0.48
2.12,32238.0,35747.2,0.3331,0.8673,145.0,98.0,0.48
2.14,32256.7,35586.8,0.3587,0.6771,145.0,98.0,0.48
2.16,32176.4,35483.9,0.2489,0.5551,145.0,98.0,0.48
2.18,32051.5,35289.9,0.078,0.3248,145.0,98.0,0.48
2.2,32075.7,35228.9,0.1112,0.2526,145.0,98.0,0.48
2.22,32011.2,35124.9,0.0231,0.1291,145.0,98.0,0.48
2.24,32004.7,35128.4,0.0141,0.1332,145.0,98.0,0.48
2.26,31946.0,35018.3,-0.0662,0.0027,145.0,98.0,0.48
2.28,32009.4,34819.4,0.0205,-0.2333,145.0,98.0,0.48
2.3,31894.0,34695.8,-0.1372,-0.3799,145.0,98.0,0.48
2.32,31832.7,34732.2,-0.221,-0.3368,145.0,98.0,0.48
2.34,31794.6,34610.4,-0.2731,-0.4812,145.0,98.0,0.48
2.36,31808.3,34602.2,-0.2544,-0.4909,145.0,98.0,0.48
2.38,31909.0,34555.6,-0.1168,-0.5462,145.0,98.0,0.48
2.4,31850.9,34542.7,-0.1962,-0.5616,145.0,98.0,0.48
2.42,31678.8,34471.6,-0.4315,-0.6459,145.0,98.0,0.48
2.44,31793.4,34518.5,-0.2748,-0.5902,145.0,98.0,0.48
2.46,31924.0,34803.1,-0.0962,-0.2526,145.0,98.0,0.48
2.48,32025.5,35100.1,0.0425,0.0998,145.0,98.0,0.48
2.5,32175.9,35464.6,0.2482,0.5321,145.0,98.0,0.48
2.52,32309.9,35781.4,0.4314,0.9079,145.0,98.0,0.48
2.54,32360.8,35685.4,0.501,0.7941,145.0,98.0,0.48
2.56,32304.1,35574.1,0.4235,0.662,145.0,98.0,0.48
2.58,32145.3,35409.0,0.2064,0.4661,145.0,98.0,0.48
2.6,32063.7,35207.3,0.0948,0.2268,145.0,98.0,0.48
2.62,32072.3,35160.0,0.1066,0.1707,145.0,98.0,0.48
2.64,31902.5,35101.5,-0.1257,0.1013,145.0,98.0,0.48
2.66,31957.0,35103.9,-0.0511,0.1042,145.0,98.0,0.48
2.68,32041.6,34937.3,0.0646,-0.0934,145.0,98.0,0.48
2.7,31893.9,34836.2,-0.1374,-0.2133,145.0,98.0,0.48
2.72,31940.9,34662.1,-0.0731,-0.4199,145.0,98.0,0.48
2.74,31912.7,34648.5,-0.1117,-0.436,145.0,98.0,0.48
2.76,31894.0,34717.7,-0.1372,-0.3539,145.0,98.0,0.48
2.78,31896.8,34599.1,-0.1334,-0.4946,145.0,98.0,0.48
2.8,31812.1,34518.8,-0.2492,-0.5899,145.0,98.0,0.48
2.82,31772.5,34547.3,-0.3034,-0.5561,145.0,98.0,0.48
2.84,31800.3,34314.7,-0.2654,-0.8319,145.0,98.0,0.48
2.86,31809.9,34585.6,-0.2522,-0.5106,145.0,98.0,0.48
2.88,31888.8,34918.1,-0.1444,-0.1162,145.0,98.0,0.48
2.9,32124.5,35298.6,0.1779,0.3352,145.0,98.0,0.48
2.92,32247.9,35586.5,0.3467,0.6768,145.0,98.0,0.48
2.94,32393.0,35671.8,0.545,0.7779,145.0,98.0,0.48
2.96,32301.5,35734.6,0.4199,0.8524,145.0,98.0,0.48
2.98,32268.0,35558.7,0.3741,0.6437,145.0,98.0,0.48
3.0,32170.9,35395.6,0.2413,0.4503,145.0,98.0,0.48
3.02,32035.4,35148.3,0.0561,0.1569,145.0,98.0,0.48
3.04,32085.6,35140.5,0.1248,0.1476,145.0,98.0,0.48
3.06,32102.5,35082.2,0.1479,0.0785,145.0,98.0,0.48
3.08,31968.4,35042.3,-0.0355,0.0311,145.0,98.0,0.48
3.1,31880.1,34796.9,-0.1562,-0.26,145.0,98.0,0.48
3.12,31962.2,34792.7,-0.044,-0.265,145.0,98.0,0.48
3.14,31817.6,34738.3,-0.2417,-0.3295,145.0,98.0,0.48
3.16,31897.5,34730.9,-0.1325,-0.3383,145.0,98.0,0.48
3.18,31853.3,34735.5,-0.1929,-0.3328,145.0,98.0,0.48
3.2,31807.5,34612.0,-0.2554,-0.4794,145.0,98.0,0.48
3.22,31822.1,34626.9,-0.2355,-0.4616,145.0,98.0,0.48
3.24,31724.8,34460.2,-0.3686,-0.6594,145.0,98.0,0.48
3.26,31703.3,34496.4,-0.3979,-0.6165,145.0,98.0,0.48
3.28,31802.4,34673.3,-0.2624,-0.4066,145.0,98.0,0.48
3.3,31971.6,34951.0,-0.0312,-0.0772,145.0,98.0,0.48
3.32,32138.0,35355.5,0.1963,0.4027,145.0,98.0,0.48
3.34,32216.9,35671.2,0.3042,0.7772,145.0,98.0,0.48
3.36,32317.1,35783.0,0.4412,0.9098,145.0,98.0,0.48
3.38,32329.0,35688.0,0.4575,0.7971,145.0,98.0,0.48
3.4,32256.8,35545.6,0.3588,0.6282,145.0,98.0,0.48
3.42,32117.7,35328.3,0.1686,0.3704,145.0,98.0,0.48
3.44,31993.7,35178.8,-0.001,0.193,145.0,98.0,0.48
3.46,31980.2,35110.3,-0.0194,0.1118,145.0,98.0,0.48
3.48,32070.8,35083.3,0.1044,0.0798,145.0,98.0,0.48
3.5,31952.5,34970.7,-0.0573,-0.0538,145.0,98.0,0.48
3.52,31901.8,34828.7,-0.1266,-0.2222,145.0,98.0,0.48
3.54,31921.5,34660.5,-0.0997,-0.4218,145.0,98.0,0.48
3.56,31781.3,34712.8,-0.2914,-0.3597,145.0,98.0,0.48
3.58,31870.7,34770.8,-0.1691,-0.2909,145.0,98.0,0.48
3.6,31917.5,34597.6,-0.1051,-0.4964,145.0,98.0,0.48
3.62,31881.6,34596.3,-0.1542,-0.4979,145.0,98.0,0.48
3.64,31746.7,34513.2,-0.3387,-0.5966,145.0,98.0,0.48
3.66,31826.4,34455.8,-0.2296,-0.6646,145.0,98.0,0.48
3.68,31768.8,34459.6,-0.3084,-0.6601,145.0,98.0,0.48
3.7,31707.1,34836.1,-0.3927,-0.2135,145.0,98.0,0.48
3.72,32045.0,35120.2,0.0693,0.1235,145.0,98.0,0.48
3.74,32237.5,35456.7,0.3324,0.5228,145.0,98.0,0.48
3.76,32236.7,35685.8,0.3313,0.7945,145.0,98.0,0.48
3.78,32350.1,35769.0,0.4864,0.8932,145.0,98.0,0.48
3.8,32248.8,35610.6,0.3479,0.7053,145.0,98.0,0.48
3.82,32185.2,35446.9,0.2609,0.5112,145.0,98.0,0.48
3.84,32169.7,35294.2,0.2397,0.3299,145.0,98.0,0.48
3.86,31940.1,35243.6,-0.0742,0.2699,145.0,98.0,0.48
3.88,31959.1,35004.6,-0.0482,-0.0136,145.0,98.0,0.48
3.9,32072.4,35044.9,0.1067,0.0343,145.0,98.0,0.48
3.92,31966.9,34918.2,-0.0376,-0.116,145.0,98.0,0.48
3.94,31914.1,34810.1,-0.1098,-0.2443,145.0,98.0,0.48
3.96,31893.3,34816.7,-0.1382,-0.2365,145.0,98.0,0.48
3.98,31900.1,34668.2,-0.1289,-0.4127,145.0,98.0,0.48
4.0,31863.1,34613.9,-0.1795,-0.4771,145.0,98.0,0.48
4.02,31849.1,34567.8,-0.1986,-0.5317,145.0,98.0,0.48
4.04,31846.9,34552.6,-0.2016,-0.5497,145.0,98.0,0.48
4.06,31783.5,34414.1,-0.2883,-0.7141,145.0,98.0,0.48
4.08,31725.2,34471.6,-0.368,-0.6459,145.0,98.0,0.48
4.1,31792.3,34588.8,-0.2763,-0.5068,145.0,98.0,0.48
4.12,32075.7,34830.1,0.1112,-0.2206,145.0,98.0,0.48
4.14,32197.0,35209.3,0.277,0.2293,145.0,98.0,0.48
4.16,32228.6,35561.8,0.3202,0.6474,145.0,98.0,0.48
4.18,32275.0,35678.6,0.3837,0.7859,145.0,98.0,0.48
4.2,32285.1,35644.2,0.3975,0.7451,145.0,98.0,0.48
4.22,32287.0,35541.1,0.4001,0.6229,145.0,98.0,0.48
4.24,32144.8,35353.3,0.2057,0.4001,145.0,98.0,0.48
4.26,32059.8,35219.6,0.0895,0.2414,145.0,98.0,0.48
4.28,32110.8,35109.0,0.1592,0.1103,145.0,98.0,0.48
4.3,32099.6,35046.3,0.1439,0.0359,145.0,98.0,0.48
4.32,31987.2,35007.4,-0.0098,-0.0102,145.0,98.0,0.48
4.34,31922.0,34918.7,-0.0989,-0.1155,145.0,98.0,0.48
4.36,31876.8,34775.3,-0.1607,-0.2856,145.0,98.0,0.48
4.38,31975.5,34761.4,-0.0259,-0.3021,145.0,98.0,0.48
4.4,31811.0,34809.7,-0.2507,-0.2448,145.0,98.0,0.48
4.42,31881.3,34604.4,-0.1547,-0.4883,145.0,98.0,0.48
4.44,31761.0,34648.9,-0.319,-0.4355,145.0,98.0,0.48
4.46,31866.2,34525.6,-0.1752,-0.5818,145.0,98.0,0.48
4.48,31774.3,34504.8,-0.3009,-0.6064,145.0,98.0,0.48
4.5,31756.6,34483.9,-0.3252,-0.6313,145.0,98.0,0.48
4.52,31860.7,34677.3,-0.1827,-0.4018,145.0,98.0,0.48
4.54,32004.9,34934.2,0.0144,-0.0971,145.0,98.0,0.48
4.56,32222.7,35310.1,0.3121,0.3488,145.0,98.0,0.48
4.58,32266.4,35687.8,0.3719,0.7969,145.0,98.0,0.48
4.6,32359.7,35731.2,0.4995,0.8484,145.0,98.0,0.48
4.62,32376.2,35649.5,0.5221,0.7515,145.0,98.0,0.48
4.64,32253.6,35446.0,0.3544,0.51,145.0,98.0,0.48
4.66,32127.9,35179.4,0.1825,0.1937,145.0,98.0,0.48
4.68,32114.4,35153.7,0.1641,0.1633,145.0,98.0,0.48
4.7,32071.3,34961.9,0.1052,-0.0643,145.0,98.0,0.48
4.72,32032.3,35068.4,0.0518,0.0621,145.0,98.0,0.48
4.74,31974.3,35032.3,-0.0274,0.0192,145.0,98.0,0.48
4.76,31954.5,34896.6,-0.0545,-0.1417,145.0,98.0,0.48
4.78,31863.5,34710.3,-0.179,-0.3627,145.0,98.0,0.48
4.8,31812.1,34718.8,-0.2492,-0.3526,145.0,98.0,0.48
4.82,31917.1,34725.4,-0.1057,-0.3448,145.0,98.0,0.48
4.84,31854.2,34685.1,-0.1917,-0.3926,145.0,98.0,0.48
4.86,31857.9,34579.7,-0.1866,-0.5176,145.0,98.0,0.48
4.88,31748.6,34396.4,-0.3361,-0.7351,145.0,98.0,0.48
4.9,31717.8,34448.6,-0.3782,-0.6732,145.0,98.0,0.48
4.92,31789.1,34567.7,-0.2807,-0.5319,145.0,98.0,0.48
4.94,31911.7,34741.3,-0.113,-0.3259,145.0,98.0,0.48
4.96,32070.7,35132.5,0.1043,0.1382,145.0,98.0,0.48
4.98,32146.0,35517.4,0.2073,0.5947,145.0,98.0,0.48
5.0,32242.4,35718.7,0.3391,0.8336,145.0,98.0,0.48
5.02,32302.9,35848.2,0.4219,0.9872,145.0,98.0,0.48
5.04,32305.4,35678.5,0.4252,0.7858,145.0,98.0,0.48
5.06,32121.3,35438.9,0.1735,0.5016,145.0,98.0,0.48
5.08,32135.1,35190.6,0.1924,0.2071,145.0,98.0,0.48
5.1,32147.9,35030.8,0.2099,0.0175,145.0,98.0,0.48
5.12,32091.0,35012.9,0.1321,-0.0038,145.0,98.0,0.48
5.14,32007.4,35036.5,0.0178,0.0242,145.0,98.0,0.48
5.16,31894.0,34825.0,-0.1373,-0.2266,145.0,98.0,0.48
5.18,32010.3,34784.5,0.0218,-0.2747,145.0,98.0,0.48
5.2,31888.0,34662.0,-0.1454,-0.42,145.0,98.0,0.48
5.22,31878.6,34676.4,-0.1583,-0.403,145.0,98.0,0.48
5.24,31747.9,34721.1,-0.337,-0.3499,145.0,98.0,0.48
5.26,31886.5,34589.7,-0.1476,-0.5058,145.0,98.0,0.48
5.28,31813.9,34666.1,-0.2468,-0.4152,145.0,98.0,0.48
5.3,31802.1,34443.3,-0.263,-0.6795,145.0,98.0,0.48
5.32,31650.8,34438.0,-0.4698,-0.6857,145.0,98.0,0.48
5.34,31810.9,34586.7,-0.2509,-0.5093,145.0,98.0,0.48
5.36,31895.5,34853.2,-0.1352,-0.1931,145.0,98.0,0.48
5.38,32165.5,35322.6,0.234,0.3637,145.0,98.0,0.48
5.4,32177.2,35619.5,0.25,0.7158,145.0,98.0,0.48
5.42,32265.2,35666.7,0.3703,0.7718,145.0,98.0,0.48
5.44,32283.1,35809.0,0.3947,0.9407,145.0,98.0,0.48
5.46,32293.5,35560.3,0.409,0.6457,145.0,98.0,0.48
5.48,32070.5,35313.9,0.1041,0.3533,145.0,98.0,0.48
5.5,32045.6,35157.4,0.07,0.1677,145.0,98.0,0.48
5.52,32111.8,35038.0,0.1605,0.026,145.0,98.0,0.48
5.54,32026.8,35097.1,0.0444,0.0962,145.0,98.0,0.48
5.56,32054.4,34945.3,0.082,-0.0839,145.0,98.0,0.48
5.58,31984.1,34885.2,-0.0141,-0.1552,145.0,98.0,0.48
5.6,31857.6,34883.8,-0.187,-0.1569,145.0,98.0,0.48
5.62,31912.7,34722.1,-0.1116,-0.3487,145.0,98.0,0.48
5.64,31895.6,34685.6,-0.1351,-0.392,145.0,98.0,0.48
5.66,31891.2,34685.0,-0.1411,-0.3927,145.0,98.0,0.48
5.68,31732.1,34582.4,-0.3586,-0.5144,145.0,98.0,0.48
5.7,31848.8,34539.8,-0.1991,-0.5649,145.0,98.0,0.48
5.72,31639.4,34480.3,-0.4853,-0.6356,145.0,98.0,0.48
5.74,31702.3,34477.4,-0.3993,-0.639,145.0,98.0,0.48
5.76,31813.7,34605.7,-0.247,-0.4868,145.0,98.0,0.48
5.78,31949.9,34991.0,-0.0607,-0.0297,145.0,98.0,0.48
5.8,32166.3,35350.3,0.235,0.3965,145.0,98.0,0.48
5.82,32273.8,35682.2,0.3821,0.7903,145.0,98.0,0.48
5.84,32245.1,35805.9,0.3429,0.937,145.0,98.0,0.48
5.86,32165.5,35696.4,0.234,0.8071,145.0,98.0,0.48
5.88,32266.3,35504.4,0.3718,0.5793,145.0,98.0,0.48
5.9,32160.6,35346.6,0.2272,0.3921,145.0,98.0,0.48
5.92,32026.4,35243.5,0.0438,0.2699,145.0,98.0,0.48
5.94,32110.6,35014.2,0.1589,-0.0022,145.0,98.0,0.48
5.96,32051.6,34968.1,0.0782,-0.0568,145.0,98.0,0.48
5.98,31959.7,34966.8,-0.0474,-0.0584,145.0,98.0,0.48
6.0,31865.6,34837.8,-0.1761,-0.2115,145.0,98.0,0.48
6.02,31801.8,34770.8,-0.2632,-0.2909,145.0,98.0,0.48
6.04,31803.0,34678.3,-0.2616,-0.4006,145.0,98.0,0.48
6.06,31862.2,34634.8,-0.1807,-0.4523,145.0,98.0,0.48
6.08,31851.3,34619.3,-0.1956,-0.4706,145.0,98.0,0.48
6.1,31833.0,34533.7,-0.2206,-0.5723,145.0,98.0,0.48
6.12,31867.6,34519.8,-0.1734,-0.5887,145.0,98.0,0.48
6.14,31771.8,34452.5,-0.3043,-0.6686,145.0,98.0,0.48
6.16,31911.5,34468.0,-0.1132,-0.6502,145.0,98.0,0.48
6.18,31958.1,34749.3,-0.0496,-0.3164,145.0,98.0,0.48
6.2,32011.1,35075.8,0.0229,0.0709,145.0,98.0,0.48
6.22,32204.9,35401.8,0.2879,0.4577,145.0,98.0,0.48
6.24,32216.7,35739.0,0.3039,0.8576,145.0,98.0,0.48
6.26,32297.3,35737.4,0.4142,0.8557,145.0,98.0,0.48
6.28,32258.5,35583.8,0.3611,0.6735,145.0,98.0,0.48
6.3,32107.4,35430.8,0.1546,0.4921,145.0,98.0,0.48
6.32,32200.9,35297.8,0.2824,0.3343,145.0,98.0,0.48
6.34,32005.9,35229.3,0.0157,0.253,145.0,98.0,0.48
6.36,32013.2,35071.9,0.0257,0.0662,145.0,98.0,0.48
6.38,32007.3,35076.3,0.0176,0.0715,145.0,98.0,0.48
6.4,31985.1,34910.4,-0.0127,-0.1253,145.0,98.0,0.48
6.42,31941.3,34886.7,-0.0726,-0.1535,145.0,98.0,0.48
6.44,31926.9,34791.0,-0.0923,-0.267,145.0,98.0,0.48
6.46,31893.7,34699.4,-0.1376,-0.3756,145.0,98.0,0.48
6.48,31821.3,34588.1,-0.2367,-0.5077,145.0,98.0,0.48
6.5,31926.4,34635.6,-0.093,-0.4513,145.0,98.0,0.48
6.52,31853.1,34615.6,-0.1931,-0.475,145.0,98.0,0.48
6.54,31741.7,34481.7,-0.3455,-0.6339,145.0,98.0,0.48
6.56,31804.2,34460.9,-0.2601,-0.6585,145.0,98.0,0.48
6.58,31726.2,34533.3,-0.3667,-0.5727,145.0,98.0,0.48
6.6,31904.9,34835.1,-0.1224,-0.2147,145.0,98.0,0.48
6.62,32094.0,35079.6,0.1362,0.0754,145.0,98.0,0.48
6.64,32192.9,35522.1,0.2714,0.6003,145.0,98.0,0.48
6.66,32304.2,35791.3,0.4236,0.9196,145.0,98.0,0.48
6.68,32259.0,35740.0,0.3618,0.8588,145.0,98.0,0.48
6.7,32398.8,35633.9,0.5529,0.7329,145.0,98.0,0.48
6.72,32184.0,35396.8,0.2592,0.4517,145.0,98.0,0.48
6.74,32074.4,35155.1,0.1093,0.165,145.0,98.0,0.48
6.76,32121.9,35075.3,0.1743,0.0703,145.0,98.0,0.48
6.78,32111.8,35078.8,0.1605,0.0745,145.0,98.0,0.48
6.8,32024.9,35056.6,0.0417,0.0481,145.0,98.0,0.48
6.82,31881.9,34951.6,-0.1538,-0.0765,145.0,98.0,0.48
6.84,31903.2,34777.7,-0.1246,-0.2828,145.0,98.0,0.48
6.86,31803.8,34703.8,-0.2606,-0.3704,145.0,98.0,0.48
6.88,31869.9,34649.7,-0.1701,-0.4346,145.0,98.0,0.48
6.9,31872.1,34616.6,-0.1671,-0.4738,145.0,98.0,0.48
6.92,31764.7,34671.8,-0.314,-0.4083,145.0,98.0,0.48
6.94,31782.8,34523.9,-0.2893,-0.5838,145.0,98.0,0.48
6.96,31756.8,34475.1,-0.3248,-0.6417,145.0,98.0,0.48
6.98,31806.4,34449.5,-0.257,-0.6721,145.0,98.0,0.48
7.0,31816.9,34606.7,-0.2426,-0.4856,145.0,98.0,0.48
7.02,31898.5,34889.9,-0.1311,-0.1497,145.0,98.0,0.48
7.04,32147.9,35298.5,0.2099,0.335,145.0,98.0,0.48
7.06,32314.3,35573.0,0.4375,0.6608,145.0,98.0,0.48
7.08,32336.2,35742.8,0.4674,0.8622,145.0,98.0,0.48
7.1,32342.1,35770.4,0.4754,0.8948,145.0,98.0,0.48
7.12,32209.7,35377.2,0.2944,0.4284,145.0,98.0,0.48
7.14,32129.4,35354.0,0.1847,0.4009,145.0,98.0,0.48
7.16,32096.7,35201.7,0.1399,0.2202,145.0,98.0,0.48
7.18,32040.8,35109.4,0.0635,0.1107,145.0,98.0,0.48
7.2,32019.2,35082.2,0.034,0.0784,145.0,98.0,0.48
7.22,31927.8,34952.6,-0.091,-0.0752,145.0,98.0,0.48
7.24,32013.4,34888.0,0.026,-0.1519,145.0,98.0,0.48
7.26,31868.8,34748.6,-0.1717,-0.3172,145.0,98.0,0.48
7.28,31873.5,34673.9,-0.1653,-0.4059,145.0,98.0,0.48
7.3,31892.2,34668.0,-0.1397,-0.4128,145.0,98.0,0.48
7.32,31902.2,34736.1,-0.126,-0.3321,145.0,98.0,0.48
7.34,31768.2,34744.1,-0.3092,-0.3226,145.0,98.0,0.48
7.36,31807.0,34603.2,-0.2561,-0.4897,145.0,98.0,0.48
7.38,31789.3,34412.8,-0.2804,-0.7157,145.0,98.0,0.48
7.4,31754.8,34496.5,-0.3275,-0.6164,145.0,98.0,0.48
7.42,31864.6,34814.6,-0.1774,-0.2389,145.0,98.0,0.48
7.44,32075.6,35113.0,0.1111,0.115,145.0,98.0,0.48
7.46,32075.7,35424.8,0.1113,0.4848,145.0,98.0,0.48
7.48,32337.3,35726.1,0.4688,0.8423,145.0,98.0,0.48
7.5,32361.7,35762.7,0.5022,0.8858,145.0,98.0,0.48
7.52,32217.3,35714.2,0.3047,0.8282,145.0,98.0,0.48
7.54,32168.1,35455.2,0.2375,0.5209,145.0,98.0,0.48
7.56,32048.2,35150.0,0.0737,0.1588,145.0,98.0,0.48
7.58,32136.4,35067.3,0.1942,0.0608,145.0,98.0,0.48
7.6,32047.6,35048.1,0.0727,0.038,145.0,98.0,0.48
7.62,31936.0,35045.7,-0.0798,0.0352,145.0,98.0,0.48
7.64,31907.5,35010.0,-0.1187,-0.0072,145.0,98.0,0.48
7.66,31916.0,34837.4,-0.1072,-0.2119,145.0,98.0,0.48
7.68,31884.1,34690.2,-0.1508,-0.3866,145.0,98.0,0.48
7.7,31867.4,34700.2,-0.1736,-0.3747,145.0,98.0,0.48
7.72,31824.0,34624.9,-0.2329,-0.464,145.0,98.0,0.48
7.74,31905.5,34624.6,-0.1216,-0.4644,145.0,98.0,0.48
7.76,31764.4,34548.4,-0.3145,-0.5547,145.0,98.0,0.48
7.78,31824.4,34381.0,-0.2324,-0.7533,145.0,98.0,0.48
7.8,31753.1,34470.4,-0.3299,-0.6473,145.0,98.0,0.48
7.82,31784.5,34561.6,-0.287,-0.5391,145.0,98.0,0.48
7.84,31847.9,34851.9,-0.2003,-0.1947,145.0,98.0,0.48
7.86,32129.1,35135.8,0.1841,0.1421,145.0,98.0,0.48
7.88,32259.1,35494.9,0.3619,0.5681,145.0,98.0,0.48
7.9,32366.3,35792.1,0.5085,0.9206,145.0,98.0,0.48
7.92,32343.9,35623.7,0.4779,0.7209,145.0,98.0,0.48
7.94,32140.8,35516.4,0.2002,0.5936,145.0,98.0,0.48
7.96,32089.9,35435.0,0.1307,0.497,145.0,98.0,0.48
7.98,32101.0,35248.3,0.1457,0.2755,145.0,98.0,0.48
8.0,32043.6,35178.1,0.0673,0.1923,145.0,98.0,0.48
8.02,32041.4,35075.2,0.0643,0.0702,145.0,98.0,0.48
8.04,32013.6,35055.8,0.0263,0.0471,145.0,98.0,0.48
8.06,31908.1,34937.6,-0.118,-0.0931,145.0,98.0,0.48
8.08,31900.2,34795.4,-0.1288,-0.2618,145.0,98.0,0.48
8.1,31860.8,34715.1,-0.1826,-0.3571,145.0,98.0,0.48
8.12,31920.8,34666.1,-0.1006,-0.4152,145.0,98.0,0.48
8.14,31912.4,34661.9,-0.112,-0.4201,145.0,98.0,0.48
8.16,31840.6,34580.2,-0.2103,-0.517,145.0,98.0,0.48
8.18,31775.8,34595.9,-0.2989,-0.4984,145.0,98.0,0.48
8.2,31760.4,34424.6,-0.32,-0.7016,145.0,98.0,0.48
8.22,31709.8,34423.6,-0.3891,-0.7028,145.0,98.0,0.48
8.24,31880.5,34544.3,-0.1558,-0.5597,145.0,98.0,0.48
8.26,31948.4,34828.1,-0.0629,-0.223,145.0,98.0,0.48
8.28,32074.8,35291.2,0.1099,0.3264,145.0,98.0,0.48
8.3,32286.3,35630.0,0.3992,0.7284,145.0,98.0,0.48
8.32,32441.9,35768.5,0.6119,0.8926,145.0,98.0,0.48
8.34,32397.1,35739.5,0.5506,0.8582,145.0,98.0,0.48
8.36,32279.0,35535.3,0.3892,0.616,145.0,98.0,0.48
8.38,32125.8,35369.4,0.1796,0.4191,145.0,98.0,0.48
8.4,32044.7,35176.2,0.0688,0.19,145.0,98.0,0.48
8.42,32051.4,35143.2,0.0779,0.1509,145.0,98.0,0.48
8.44,32074.1,35061.8,0.1091,0.0543,145.0,98.0,0.48
8.46,31920.3,34982.8,-0.1013,-0.0394,145.0,98.0,0.48
8.48,31952.5,34951.9,-0.0572,-0.0761,145.0,98.0,0.48
8.5,31899.0,34776.4,-0.1304,-0.2843,145.0,98.0,0.48
8.52,31910.0,34615.2,-0.1154,-0.4755,145.0,98.0,0.48
8.54,31814.5,34611.6,-0.246,-0.4798,145.0,98.0,0.48
8.56,31744.0,34675.7,-0.3423,-0.4037,145.0,98.0,0.48
8.58,31886.4,34521.6,-0.1477,-0.5865,145.0,98.0,0.48
8.6,31747.6,34468.5,-0.3374,-0.6495,145.0,98.0,0.48
8.62,31741.2,34453.6,-0.3461,-0.6672,145.0,98.0,0.48
8.64,31827.0,34488.7,-0.2288,-0.6256,145.0,98.0,0.48
8.66,31818.7,34638.0,-0.2402,-0.4485,145.0,98.0,0.48
8.68,31929.7,35021.1,-0.0884,0.0059,145.0,98.0,0.48
8.7,32148.7,35462.4,0.2109,0.5295,145.0,98.0,0.48
8.72,32208.7,35634.6,0.293,0.7337,145.0,98.0,0.48
8.74,32276.2,35811.7,0.3853,0.9438,145.0,98.0,0.48
8.76,32273.0,35698.6,0.381,0.8097,145.0,98.0,0.48
8.78,32177.1,35418.3,0.2498,0.4771,145.0,98.0,0.48
8.8,32156.8,35304.9,0.2221,0.3426,145.0,98.0,0.48
8.82,32068.2,35235.9,0.101,0.2608,145.0,98.0,0.48
8.84,32072.2,35068.3,0.1065,0.0619,145.0,98.0,0.48
8.86,31956.0,35049.0,-0.0524,0.0391,145.0,98.0,0.48
8.88,31932.5,35004.7,-0.0846,-0.0134,145.0,98.0,0.48
8.9,31908.5,34885.7,-0.1175,-0.1547,145.0,98.0,0.48
8.92,31825.1,34774.0,-0.2315,-0.2871,145.0,98.0,0.48
8.94,31940.8,34633.7,-0.0732,-0.4535,145.0,98.0,0.48
8.96,31777.1,34712.2,-0.2971,-0.3604,145.0,98.0,0.48
8.98,31906.0,34596.3,-0.1208,-0.4979,145.0,98.0,0.48
9.0,31838.4,34568.8,-0.2133,-0.5305,145.0,98.0,0.48
9.02,31838.3,34446.6,-0.2134,-0.6755,145.0,98.0,0.48
9.04,31785.5,34405.7,-0.2856,-0.724,145.0,98.0,0.48
9.06,31767.5,34534.3,-0.3102,-0.5715,145.0,98.0,0.48
9.08,31905.2,34824.9,-0.1219,-0.2268,145.0,98.0,0.48
9.1,32089.8,35088.7,0.1305,0.0862,145.0,98.0,0.48
9.12,32176.9,35463.7,0.2496,0.531,145.0,98.0,0.48
9.14,32415.5,35706.6,0.5757,0.8192,145.0,98.0,0.48
9.16,32365.2,35700.4,0.5071,0.8118,145.0,98.0,0.48
9.18,32258.3,35553.6,0.3608,0.6377,145.0,98.0,0.48
9.2,32086.6,35406.2,0.1262,0.4629,145.0,98.0,0.48
9.22,32109.6,35230.3,0.1575,0.2542,145.0,98.0,0.48
9.24,32080.0,35145.5,0.1171,0.1536,145.0,98.0,0.48
9.26,32097.7,35087.8,0.1412,0.0851,145.0,98.0,0.48
9.28,31996.8,35081.5,0.0033,0.0776,145.0,98.0,0.48
9.3,32029.9,34997.0,0.0486,-0.0226,145.0,98.0,0.48
9.32,31876.3,34767.7,-0.1615,-0.2946,145.0,98.0,0.48
9.34,31886.6,34736.0,-0.1474,-0.3322,145.0,98.0,0.48
9.36,31913.1,34756.8,-0.1111,-0.3076,145.0,98.0,0.48
9.38,31926.3,34540.9,-0.093,-0.5637,145.0,98.0,0.48
9.4,31822.5,34804.1,-0.235,-0.2514,145.0,98.0,0.48
9.42,31829.9,34506.8,-0.2249,-0.6041,145.0,98.0,0.48
9.44,31796.4,34409.0,-0.2706,-0.7202,145.0,98.0,0.48
9.46,31729.5,34416.9,-0.3622,-0.7107,145.0,98.0,0.48
9.48,31820.9,34543.4,-0.2372,-0.5607,145.0,98.0,0.48
9.5,31900.9,34983.5,-0.1279,-0.0386,145.0,98.0,0.48
9.52,32061.9,35275.3,0.0923,0.3076,145.0,98.0,0.48
9.54,32283.9,35561.5,0.3958,0.647,145.0,98.0,0.48
9.56,32314.7,35745.7,0.438,0.8656,145.0,98.0,0.48
9.58,32310.7,35744.0,0.4325,0.8636,145.0,98.0,0.48
9.6,32345.8,35608.2,0.4805,0.7025,145.0,98.0,0.48
9.62,32156.0,35393.8,0.2209,0.4481,145.0,98.0,0.48
9.64,31947.1,35120.4,-0.0646,0.1238,145.0,98.0,0.48
9.66,32090.3,35002.2,0.1312,-0.0164,145.0,98.0,0.48
9.68,31966.6,35128.3,-0.0379,0.1331,145.0,98.0,0.48
9.7,31960.4,34991.0,-0.0464,-0.0297,145.0,98.0,0.48
9.72,31952.5,34855.3,-0.0573,-0.1907,145.0,98.0,0.48
9.74,31926.5,34775.6,-0.0928,-0.2852,145.0,98.0,0.48
9.76,31774.9,34672.0,-0.3,-0.4081,145.0,98.0,0.48
9.78,31830.6,34688.7,-0.2239,-0.3884,145.0,98.0,0.48
9.8,31966.7,34691.5,-0.0379,-0.3851,145.0,98.0,0.48
9.82,31738.3,34532.4,-0.3501,-0.5737,145.0,98.0,0.48
9.84,31783.5,34509.6,-0.2883,-0.6009,145.0,98.0,0.48
9.86,31758.0,34419.1,-0.3232,-0.7081,145.0,98.0,0.48
9.88,31678.8,34432.3,-0.4315,-0.6925,145.0,98.0,0.48
9.9,31854.5,34687.5,-0.1913,-0.3897,145.0,98.0,0.48
9.92,31950.6,34902.5,-0.0598,-0.1347,145.0,98.0,0.48
9.94,32167.9,35363.1,0.2373,0.4117,145.0,98.0,0.48
9.96,32272.5,35669.1,0.3803,0.7747,145.0,98.0,0.48
9.98,32330.0,35753.5,0.4589,0.8748,145.0,98.0,0.48
10.0,32243.4,35688.1,0.3404,0.7972,145.0,98.0,0.48
10.02,32167.2,35500.7,0.2362,0.5749,145.0,98.0,0.48
10.04,32163.2,35305.3,0.2309,0.3431,145.0,98.0,0.48
10.06,32019.1,35218.8,0.0339,0.2406,145.0,98.0,0.48
10.08,32071.5,35108.2,0.1054,0.1093,145.0,98.0,0.48
10.1,31966.2,35019.3,-0.0386,0.0038,145.0,98.0,0.48
10.12,31987.3,34979.0,-0.0097,-0.044,145.0,98.0,0.48
10.14,31922.2,34848.4,-0.0986,-0.1989,145.0,98.0,0.48
10.16,31900.6,34683.9,-0.1282,-0.394,145.0,98.0,0.48
10.18,31843.3,34608.1,-0.2065,-0.484,145.0,98.0,0.48
10.2,31839.8,34629.6,-0.2114,-0.4584,145.0,98.0,0.48
10.22,31917.0,34551.7,-0.1058,-0.5508,145.0,98.0,0.48
10.24,31898.6,34517.8,-0.1309,-0.591,145.0,98.0,0.48
10.26,31752.6,34410.6,-0.3305,-0.7183,145.0,98.0,0.48
10.28,31784.7,34433.0,-0.2866,-0.6917,145.0,98.0,0.48
10.3,31814.9,34559.9,-0.2454,-0.5411,145.0,98.0,0.48
10.32,31907.7,34684.3,-0.1185,-0.3936,145.0,98.0,0.48
10.34,32076.5,35125.0,0.1123,0.1293,145.0,98.0,0.48
10.36,32212.7,35519.8,0.2985,0.5976,145.0,98.0,0.48
10.38,32290.7,35642.4,0.4052,0.7431,145.0,98.0,0.48
10.4,32342.1,35700.3,0.4754,0.8117,145.0,98.0,0.48
10.42,32258.1,35706.8,0.3606,0.8194,145.0,98.0,0.48
10.44,32125.4,35425.8,0.1792,0.4861,145.0,98.0,0.48
10.46,32047.8,35196.9,0.0731,0.2145,145.0,98.0,0.48
10.48,32076.6,35147.9,0.1124,0.1564,145.0,98.0,0.48
10.5,32099.8,35137.8,0.1442,0.1444,145.0,98.0,0.48
10.52,32011.8,34992.0,0.0239,-0.0285,145.0,98.0,0.48
10.54,31952.0,34901.2,-0.058,-0.1362,145.0,98.0,0.48
10.56,31853.5,34786.0,-0.1926,-0.273,145.0,98.0,0.48
10.58,31858.4,34698.0,-0.1858,-0.3773,145.0,98.0,0.48
10.6,31808.1,34636.2,-0.2547,-0.4506,145.0,98.0,0.48
10.62,31840.1,34715.0,-0.2109,-0.3571,145.0,98.0,0.48
10.64,31819.1,34560.8,-0.2396,-0.5401,145.0,98.0,0.48
10.66,31784.7,34564.0,-0.2866,-0.5363,145.0,98.0,0.48
10.68,31817.3,34487.9,-0.2421,-0.6265,145.0,98.0,0.48
10.7,31761.0,34384.1,-0.319,-0.7497,145.0,98.0,0.48
10.72,31761.1,34518.7,-0.3189,-0.5901,145.0,98.0,0.48
10.74,31922.5,34777.2,-0.0983,-0.2834,145.0,98.0,0.48
10.76,32163.5,35203.0,0.2312,0.2218,145.0,98.0,0.48
10.78,32323.3,35531.8,0.4497,0.6118,145.0,98.0,0.48
10.8,32187.6,35703.7,0.2643,0.8158,145.0,98.0,0.48
10.82,32339.6,35672.9,0.472,0.7792,145.0,98.0,0.48
10.84,32298.8,35562.3,0.4162,0.648,145.0,98.0,0.48
10.86,32206.3,35437.7,0.2897,0.5002,145.0,98.0,0.48
10.88,32115.4,35178.6,0.1654,0.1929,145.0,98.0,0.48
10.9,32088.3,35175.8,0.1285,0.1895,145.0,98.0,0.48
10.92,31959.1,35077.8,-0.0483,0.0732,145.0,98.0,0.48
10.94,31973.0,34967.1,-0.0292,-0.058,145.0,98.0,0.48
10.96,31984.9,34921.5,-0.0129,-0.1122,145.0,98.0,0.48
10.98,31850.3,34778.4,-0.197,-0.2819,145.0,98.0,0.48
11.0,31759.9,34627.2,-0.3205,-0.4612,145.0,98.0,0.48
11.02,31952.0,34645.2,-0.058,-0.4399,145.0,98.0,0.48
11.04,31805.0,34650.1,-0.2589,-0.4341,145.0,98.0,0.48
11.06,31860.8,34756.1,-0.1826,-0.3084,145.0,98.0,0.48
11.08,31794.9,34574.0,-0.2728,-0.5244,145.0,98.0,0.48
11.1,31734.8,34477.5,-0.3549,-0.6389,145.0,98.0,0.48
11.12,31718.2,34417.3,-0.3776,-0.7103,145.0,98.0,0.48
11.14,31935.3,34574.6,-0.0808,-0.5237,145.0,98.0,0.48
11.16,31941.0,34915.5,-0.0729,-0.1193,145.0,98.0,0.48
11.18,32175.1,35331.9,0.2471,0.3747,145.0,98.0,0.48
11.2,32281.9,35682.1,0.3932,0.7901,145.0,98.0,0.48
11.22,32340.0,35814.5,0.4726,0.9472,145.0,98.0,0.48
11.24,32305.3,35671.6,0.4251,0.7776,145.0,98.0,0.48
11.26,32123.1,35448.5,0.176,0.513,145.0,98.0,0.48
11.28,32200.1,35229.4,0.2813,0.2531,145.0,98.0,0.48
11.3,32005.4,35189.4,0.015,0.2057,145.0,98.0,0.48
11.32,32041.1,35052.7,0.0639,0.0435,145.0,98.0,0.48
11.34,31975.9,35072.4,-0.0253,0.0669,145.0,98.0,0.48
11.36,32029.9,34992.8,0.0486,-0.0276,145.0,98.0,0.48
11.38,31949.6,34805.4,-0.0612,-0.2499,145.0,98.0,0.48
11.4,31886.4,34744.5,-0.1476,-0.3221,145.0,98.0,0.48
11.42,31908.5,34650.3,-0.1174,-0.4339,145.0,98.0,0.48
11.44,31783.7,34789.5,-0.288,-0.2688,145.0,98.0,0.48
11.46,31783.1,34676.7,-0.2889,-0.4026,145.0,98.0,0.48
11.48,31863.6,34558.0,-0.1788,-0.5434,145.0,98.0,0.48
11.5,31846.6,34535.5,-0.2021,-0.5701,145.0,98.0,0.48
11.52,31777.3,34373.3,-0.2968,-0.7625,145.0,98.0,0.48
11.54,31784.1,34490.7,-0.2874,-0.6232,145.0,98.0,0.48
11.56,31823.2,34760.2,-0.2341,-0.3035,145.0,98.0,0.48
11.58,32013.2,35073.3,0.0258,0.0679,145.0,98.0,0.48
11.6,32160.1,35438.1,0.2266,0.5006,145.0,98.0,0.48
11.62,32316.8,35662.1,0.4408,0.7664,145.0,98.0,0.48
11.64,32288.6,35649.5,0.4023,0.7514,145.0,98.0,0.48
11.66,32296.9,35543.5,0.4137,0.6257,145.0,98.0,0.48
11.68,32185.0,35461.1,0.2606,0.528,145.0,98.0,0.48
11.7,32116.7,35231.1,0.1673,0.2551,145.0,98.0,0.48
11.72,32013.4,35179.5,0.026,0.1939,145.0,98.0,0.48
11.74,31925.8,35060.1,-0.0938,0.0523,145.0,98.0,0.48
11.76,32007.9,35052.4,0.0185,0.0431,145.0,98.0,0.48
11.78,31905.2,34984.6,-0.1219,-0.0373,145.0,98.0,0.48
11.8,31874.5,34878.1,-0.1638,-0.1637,145.0,98.0,0.48
11.82,31960.8,34825.3,-0.0458,-0.2263,145.0,98.0,0.48
11.84,31775.9,34586.6,-0.2987,-0.5094,145.0,98.0,0.48
11.86,31814.1,34637.0,-0.2465,-0.4496,145.0,98.0,0.48
11.88,31866.6,34643.9,-0.1748,-0.4415,145.0,98.0,0.48
11.9,31730.0,34530.8,-0.3615,-0.5756,145.0,98.0,0.48
11.92,31745.7,34483.3,-0.34,-0.632,145.0,98.0,0.48
11.94,31715.0,34401.3,-0.382,-0.7292,145.0,98.0,0.48
11.96,31847.5,34571.3,-0.2008,-0.5277,145.0,98.0,0.48
11.98,31925.0,34810.6,-0.0949,-0.2437,145.0,98.0,0.48
12.0,32086.3,35233.5,0.1257,0.258,145.0,98.0,0.48
12.02,32234.6,35469.5,0.3284,0.5379,145.0,98.0,0.48
12.04,32324.4,35705.9,0.4513,0.8184,145.0,98.0,0.48
12.06,32400.2,35748.8,0.5549,0.8693,145.0,98.0,0.48
12.08,32155.0,35528.6,0.2196,0.608,145.0,98.0,0.48
12.1,32223.6,35416.6,0.3134,0.4751,145.0,98.0,0.48
12.12,32097.7,35200.9,0.1413,0.2193,145.0,98.0,0.48
12.14,31993.6,35196.6,-0.0011,0.2142,145.0,98.0,0.48
12.16,32024.4,35046.2,0.0411,0.0357,145.0,98.0,0.48
12.18,32010.4,34997.3,0.0219,-0.0222,145.0,98.0,0.48
12.2,31871.6,34907.3,-0.1679,-0.129,145.0,98.0,0.48
12.22,31845.9,34814.6,-0.203,-0.239,145.0,98.0,0.48
12.24,31899.7,34770.3,-0.1294,-0.2916,145.0,98.0,0.48
12.26,31811.1,34656.6,-0.2506,-0.4264,145.0,98.0,0.48
12.28,31806.0,34616.4,-0.2575,-0.4741,145.0,98.0,0.48
12.3,31810.3,34540.6,-0.2517,-0.564,145.0,98.0,0.48
12.32,31807.2,34630.7,-0.2558,-0.4571,145.0,98.0,0.48
12.34,31810.7,34404.2,-0.2511,-0.7259,145.0,98.0,0.48
12.36,31797.0,34507.6,-0.2698,-0.6032,145.0,98.0,0.48
12.38,31794.9,34671.7,-0.2728,-0.4085,145.0,98.0,0.48
12.4,31957.6,34910.7,-0.0503,-0.125,145.0,98.0,0.48
12.42,32079.7,35322.9,0.1166,0.364,145.0,98.0,0.48
12.44,32384.1,35523.0,0.5328,0.6014,145.0,98.0,0.48
12.46,32390.1,35725.1,0.5411,0.8411,145.0,98.0,0.48
12.48,32338.5,35693.9,0.4705,0.8042,145.0,98.0,0.48
12.5,32202.0,35496.5,0.2838,0.5699,145.0,98.0,0.48
12.52,32048.8,35356.9,0.0744,0.4044,145.0,98.0,0.48
12.54,32161.9,35139.0,0.229,0.1458,145.0,98.0,0.48
12.56,31928.1,35182.7,-0.0907,0.1977,145.0,98.0,0.48
12.58,32084.3,35078.3,0.1229,0.0739,145.0,98.0,0.48
12.6,31888.6,34963.0,-0.1446,-0.063,145.0,98.0,0.48
12.62,31901.8,34807.0,-0.1265,-0.248,145.0,98.0,0.48
12.64,31904.4,34736.9,-0.1231,-0.3311,145.0,98.0,0.48
12.66,31879.8,34631.3,-0.1566,-0.4564,145.0,98.0,0.48
12.68,31889.2,34671.1,-0.1438,-0.4092,145.0,98.0,0.48
12.7,31868.9,34668.4,-0.1715,-0.4124,145.0,98.0,0.48
12.72,31794.0,34633.4,-0.274,-0.4539,145.0,98.0,0.48
12.74,31749.7,34498.9,-0.3345,-0.6134,145.0,98.0,0.48
12.76,31721.6,34563.7,-0.373,-0.5366,145.0,98.0,0.48
12.78,31853.3,34484.2,-0.1928,-0.631,145.0,98.0,0.48
12.8,31820.5,34770.1,-0.2377,-0.2918,145.0,98.0,0.48
12.82,32050.5,35057.8,0.0768,0.0495,145.0,98.0,0.48
12.84,32147.5,35430.1,0.2093,0.4912,145.0,98.0,0.48
12.86,32324.5,35677.4,0.4513,0.7845,145.0,98.0,0.48
12.88,32327.0,35811.4,0.4547,0.9436,145.0,98.0,0.48
12.9,32244.2,35619.6,0.3416,0.716,145.0,98.0,0.48
12.92,32163.6,35431.4,0.2314,0.4928,145.0,98.0,0.48
12.94,32083.6,35192.0,0.122,0.2087,145.0,98.0,0.48
12.96,32117.9,35163.2,0.1689,0.1745,145.0,98.0,0.48
12.98,32079.2,35137.1,0.116,0.1436,145.0,98.0,0.48
13.0,32076.9,35004.5,0.1128,-0.0137,145.0,98.0,0.48
13.02,31947.9,34908.2,-0.0636,-0.128,145.0,98.0,0.48
13.04,32010.5,34881.1,0.022,-0.1601,145.0,98.0,0.48
13.06,31802.4,34714.6,-0.2624,-0.3576,145.0,98.0,0.48
13.08,31850.4,34751.5,-0.1968,-0.3138,145.0,98.0,0.48
13.1,31914.1,34708.8,-0.1098,-0.3645,145.0,98.0,0.48
13.12,31897.7,34657.4,-0.1322,-0.4254,145.0,98.0,0.48
13.14,31834.8,34553.9,-0.2182,-0.5483,145.0,98.0,0.48
13.16,31886.0,34562.4,-0.1482,-0.5382,145.0,98.0,0.48
13.18,31677.5,34387.2,-0.4332,-0.746,145.0,98.0,0.48
13.2,31798.3,34638.1,-0.2681,-0.4484,145.0,98.0,0.48
13.22,31927.0,34800.6,-0.0921,-0.2556,145.0,98.0,0.48
13.24,32066.5,35232.7,0.0986,0.257,145.0,98.0,0.48
13.26,32249.9,35553.4,0.3494,0.6374,145.0,98.0,0.48
13.28,32382.2,35756.3,0.5303,0.8782,145.0,98.0,0.48
13.3,32338.8,35753.7,0.4709,0.875,145.0,98.0,0.48
13.32,32235.7,35635.3,0.33,0.7346,145.0,98.0,0.48
13.34,32101.9,35440.8,0.147,0.5039,145.0,98.0,0.48
13.36,32108.8,35288.9,0.1564,0.3236,145.0,98.0,0.48
13.38,31950.3,35082.5,-0.0603,0.0789,145.0,98.0,0.48
13.4,32023.1,35117.7,0.0393,0.1205,145.0,98.0,0.48
13.42,31920.0,35026.1,-0.1017,0.0119,145.0,98.0,0.48
13.44,32039.1,34951.6,0.0612,-0.0764,145.0,98.0,0.48
13.46,31944.3,34772.3,-0.0685,-0.2892,145.0,98.0,0.48
13.48,31781.5,34742.0,-0.291,-0.325,145.0,98.0,0.48
13.5,31828.9,34670.6,-0.2262,-0.4098,145.0,98.0,0.48
13.52,31900.6,34702.8,-0.1282,-0.3716,145.0,98.0,0.48
13.54,31828.0,34706.4,-0.2275,-0.3674,145.0,98.0,0.48
13.56,31820.0,34530.3,-0.2384,-0.5762,145.0,98.0,0.48
13.58,31878.5,34516.5,-0.1585,-0.5927,145.0,98.0,0.48
13.6,31776.1,34495.8,-0.2984,-0.6172,145.0,98.0,0.48
13.62,31911.7,34527.5,-0.1131,-0.5796,145.0,98.0,0.48
13.64,32013.1,34973.7,0.0256,-0.0503,145.0,98.0,0.48
13.66,32079.9,35305.0,0.1169,0.3428,145.0,98.0,0.48
13.68,32262.3,35569.4,0.3663,0.6564,145.0,98.0,0.48
13.7,32327.0,35805.2,0.4548,0.9361,145.0,98.0,0.48
13.72,32341.7,35641.0,0.4749,0.7413,145.0,98.0,0.48
13.74,32107.8,35540.8,0.1551,0.6225,145.0,98.0,0.48
13.76,32069.4,35344.5,0.1025,0.3896,145.0,98.0,0.48
13.78,32050.4,35179.0,0.0766,0.1933,145.0,98.0,0.48
13.8,32056.7,35129.8,0.0852,0.1349,145.0,98.0,0.48
13.82,32081.0,35067.0,0.1184,0.0605,145.0,98.0,0.48
13.84,31954.1,34947.3,-0.0551,-0.0815,145.0,98.0,0.48
13.86,31876.7,34886.6,-0.161,-0.1535,145.0,98.0,0.48
13.88,31910.9,34788.4,-0.1141,-0.2701,145.0,98.0,0.48
13.9,31850.4,34693.6,-0.1969,-0.3825,145.0,98.0,0.48
13.92,31915.8,34695.7,-0.1074,-0.38,145.0,98.0,0.48
13.94,31866.2,34671.5,-0.1753,-0.4087,145.0,98.0,0.48
13.96,31814.0,34559.3,-0.2466,-0.5418,145.0,98.0,0.48
13.98,31774.7,34517.1,-0.3003,-0.5919,145.0,98.0,0.48
14.0,31846.8,34507.6,-0.2017,-0.6032,145.0,98.0,0.48
14.02,31745.3,34434.7,-0.3406,-0.6896,145.0,98.0,0.48
14.04,31927.4,34618.1,-0.0916,-0.4721,145.0,98.0,0.48
14.06,31931.0,35001.7,-0.0866,-0.0171,145.0,98.0,0.48
14.08,32216.2,35359.2,0.3033,0.407,145.0,98.0,0.48
14.1,32403.0,35693.4,0.5587,0.8035,145.0,98.0,0.48
14.12,32369.7,35867.9,0.5132,1.0105,145.0,98.0,0.48
14.14,32269.9,35750.0,0.3767,0.8707,145.0,98.0,0.48
14.16,32237.8,35494.1,0.3328,0.5671,145.0,98.0,0.48
14.18,32074.6,35295.7,0.1098,0.3318,145.0,98.0,0.48
14.2,32087.2,35165.8,0.127,0.1776,145.0,98.0,0.48
14.22,32135.8,35094.6,0.1933,0.0932,145.0,98.0,0.48
14.24,32019.6,34966.9,0.0345,-0.0583,145.0,98.0,0.48
14.26,31901.3,35025.3,-0.1273,0.0109,145.0,98.0,0.48
14.28,31953.1,34919.6,-0.0565,-0.1144,145.0,98.0,0.48
14.3,31784.8,34772.9,-0.2865,-0.2884,145.0,98.0,0.48
14.32,31822.4,34770.2,-0.2351,-0.2916,145.0,98.0,0.48
14.34,31827.6,34743.4,-0.228,-0.3234,145.0,98.0,0.48
14.36,31847.3,34595.0,-0.201,-0.4995,145.0,98.0,0.48
14.38,31785.6,34468.6,-0.2854,-0.6494,145.0,98.0,0.48
14.4,31815.4,34496.6,-0.2447,-0.6162,145.0,98.0,0.48
14.42,31694.6,34394.9,-0.4099,-0.7368,145.0,98.0,0.48
14.44,31752.3,34528.5,-0.331,-0.5784,145.0,98.0,0.48
14.46,31923.6,34745.5,-0.0967,-0.321,145.0,98.0,0.48
14.48,32138.9,35101.2,0.1976,0.101,145.0,98.0,0.48
14.5,32334.3,35430.8,0.4648,0.492,145.0,98.0,0.48
14.52,32334.3,35776.7,0.4647,0.9023,145.0,98.0,0.48
14.54,32326.1,35787.8,0.4535,0.9155,145.0,98.0,0.48
14.56,32291.5,35611.0,0.4063,0.7057,145.0,98.0,0.48
14.58,32080.5,35377.0,0.1177,0.4281,145.0,98.0,0.48
14.6,32179.6,35203.8,0.2532,0.2227,145.0,98.0,0.48
14.62,32053.9,35123.8,0.0813,0.1278,145.0,98.0,0.48
14.64,32027.3,35204.9,0.0449,0.224,145.0,98.0,0.48
14.66,32049.8,35042.7,0.0758,0.0316,145.0,98.0,0.48
14.68,32014.5,34896.2,0.0275,-0.1421,145.0,98.0,0.48
14.7,31985.2,34719.0,-0.0126,-0.3524,145.0,98.0,0.48
14.72,31908.0,34748.2,-0.1181,-0.3177,145.0,98.0,0.48
14.74,31849.3,34689.7,-0.1984,-0.3872,145.0,98.0,0.48
14.76,31879.1,34675.9,-0.1576,-0.4036,145.0,98.0,0.48
14.78,31873.9,34611.5,-0.1647,-0.4799,145.0,98.0,0.48
14.8,31866.4,34572.4,-0.1749,-0.5262,145.0,98.0,0.48
14.82,31803.9,34519.0,-0.2604,-0.5896,145.0,98.0,0.48
14.84,31841.1,34503.6,-0.2096,-0.6079,145.0,98.0,0.48
14.86,31919.5,34605.8,-0.1024,-0.4867,145.0,98.0,0.48
14.88,31978.7,34937.5,-0.0215,-0.0932,145.0,98.0,0.48
14.9,32162.3,35296.8,0.2296,0.333,145.0,98.0,0.48
14.92,32216.0,35568.7,0.303,0.6555,145.0,98.0,0.48
14.94,32384.0,35790.8,0.5328,0.919,145.0,98.0,0.48
14.96,32352.8,35662.6,0.49,0.767,145.0,98.0,0.48
14.98,32230.1,35514.6,0.3223,0.5914,145.0,98.0,0.48
15.0,32105.0,35306.1,0.1512,0.3441,145.0,98.0,0.48
15.02,32100.6,35126.4,0.1453,0.1309,145.0,98.0,0.48
15.04,32017.5,35127.3,0.0317,0.1319,145.0,98.0,0.48
15.06,31948.8,34981.6,-0.0623,-0.0409,145.0,98.0,0.48
15.08,31907.4,34952.7,-0.119,-0.0751,145.0,98.0,0.48
15.1,31954.3,34897.3,-0.0548,-0.1408,145.0,98.0,0.48
15.12,31865.6,34831.0,-0.176,-0.2196,145.0,98.0,0.48
15.14,31787.6,34658.3,-0.2827,-0.4244,145.0,98.0,0.48
15.16,31854.6,34685.4,-0.1911,-0.3922,145.0,98.0,0.48
15.18,31841.2,34599.3,-0.2094,-0.4943,145.0,98.0,0.48
15.2,31832.5,34604.2,-0.2214,-0.4886,145.0,98.0,0.48
15.22,31767.6,34541.1,-0.3101,-0.5634,145.0,98.0,0.48
15.24,31755.0,34455.6,-0.3273,-0.6648,145.0,98.0,0.48
15.26,31765.1,34405.1,-0.3135,-0.7248,145.0,98.0,0.48
15.28,31907.5,34585.1,-0.1187,-0.5113,145.0,98.0,0.48
15.3,32045.9,35029.4,0.0704,0.0158,145.0,98.0,0.48
15.32,32204.6,35411.4,0.2875,0.4689,145.0,98.0,0.48
15.34,32271.5,35648.1,0.379,0.7498,145.0,98.0,0.48
15.36,32487.9,35815.0,0.6748,0.9478,145.0,98.0,0.48
15.38,32347.0,35742.1,0.4822,0.8614,145.0,98.0,0.48
15.4,32206.4,35473.5,0.2899,0.5427,145.0,98.0,0.48
15.42,32127.1,35292.4,0.1815,0.3278,145.0,98.0,0.48
15.44,32064.8,35172.4,0.0963,0.1854,145.0,98.0,0.48
15.46,32009.0,35055.0,0.02,0.0462,145.0,98.0,0.48
15.48,32061.5,35052.2,0.0918,0.0429,145.0,98.0,0.48
15.5,31971.6,34946.5,-0.0312,-0.0825,145.0,98.0,0.48
15.52,31932.7,34898.6,-0.0844,-0.1394,145.0,98.0,0.48
15.54,31844.2,34755.9,-0.2053,-0.3086,145.0,98.0,0.48
15.56,31789.7,34724.9,-0.2799,-0.3454,145.0,98.0,0.48
15.58,31819.3,34748.6,-0.2394,-0.3173,145.0,98.0,0.48
15.6,31805.1,34600.6,-0.2588,-0.4928,145.0,98.0,0.48
15.62,31830.0,34533.4,-0.2247,-0.5725,145.0,98.0,0.48
15.64,31798.9,34546.7,-0.2673,-0.5568,145.0,98.0,0.48
15.66,31681.4,34481.3,-0.4279,-0.6344,145.0,98.0,0.48
15.68,31777.0,34482.8,-0.2972,-0.6326,145.0,98.0,0.48
15.7,31897.7,34864.3,-0.1322,-0.18,145.0,98.0,0.48
15.72,32038.9,35093.4,0.0609,0.0918,145.0,98.0,0.48
15.74,32170.6,35427.7,0.241,0.4883,145.0,98.0,0.48
15.76,32323.3,35719.8,0.4498,0.8349,145.0,98.0,0.48
15.78,32391.3,35797.7,0.5427,0.9273,145.0,98.0,0.48
15.8,32234.5,35665.6,0.3283,0.7706,145.0,98.0,0.48
15.82,32119.2,35451.1,0.1707,0.5161,145.0,98.0,0.48
15.84,32048.3,35214.2,0.0738,0.2351,145.0,98.0,0.48
15.86,31984.8,35062.6,-0.0131,0.0552,145.0,98.0,0.48
15.88,31939.3,35062.3,-0.0753,0.0549,145.0,98.0,0.48
15.9,32036.9,35029.5,0.0582,0.016,145.0,98.0,0.48
15.92,31974.5,34907.1,-0.0272,-0.1292,145.0,98.0,0.48
15.94,31901.3,34840.1,-0.1273,-0.2087,145.0,98.0,0.48
15.96,31872.7,34790.3,-0.1664,-0.2678,145.0,98.0,0.48
15.98,31849.7,34676.3,-0.1977,-0.403,145.0,98.0,0.48
16.0,31823.7,34633.4,-0.2334,-0.4539,145.0,98.0,0.48
16.02,31809.9,34648.0,-0.2523,-0.4366,145.0,98.0,0.48
16.04,31815.8,34513.8,-0.2441,-0.5959,145.0,98.0,0.48
16.06,31697.2,34436.8,-0.4063,-0.6872,145.0,98.0,0.48
16.08,31814.1,34474.4,-0.2465,-0.6425,145.0,98.0,0.48
16.1,31857.2,34635.3,-0.1875,-0.4517,145.0,98.0,0.48
16.12,31898.1,34854.5,-0.1316,-0.1916,145.0,98.0,0.48
16.14,32149.4,35169.0,0.2119,0.1815,145.0,98.0,0.48
16.16,32242.5,35553.7,0.3392,0.6378,145.0,98.0,0.48
16.18,32312.0,35792.8,0.4343,0.9215,145.0,98.0,0.48
16.2,32247.1,35743.9,0.3456,0.8635,145.0,98.0,0.48
16.22,32202.5,35476.3,0.2845,0.546,145.0,98.0,0.48
16.24,32139.3,35376.6,0.1981,0.4277,145.0,98.0,0.48
16.26,32105.1,35233.9,0.1514,0.2584,145.0,98.0,0.48
16.28,32083.5,35053.9,0.1219,0.0449,145.0,98.0,0.48
16.3,32043.1,35037.6,0.0666,0.0255,145.0,98.0,0.48
16.32,31906.9,35008.1,-0.1195,-0.0095,145.0,98.0,0.48
16.34,32069.9,34955.2,0.1032,-0.0722,145.0,98.0,0.48
16.36,31930.3,34768.5,-0.0876,-0.2937,145.0,98.0,0.48
16.38,31895.1,34668.9,-0.1357,-0.4118,145.0,98.0,0.48
16.4,31849.9,34608.1,-0.1975,-0.4839,145.0,98.0,0.48
16.42,31857.8,34667.8,-0.1867,-0.4131,145.0,98.0,0.48
16.44,31809.7,34705.3,-0.2525,-0.3686,145.0,98.0,0.48
16.46,31736.7,34598.9,-0.3523,-0.4949,145.0,98.0,0.48
16.48,31751.7,34378.7,-0.3318,-0.756,145.0,98.0,0.48
16.5,31752.9,34506.5,-0.3301,-0.6044,145.0,98.0,0.48
16.52,31797.4,34617.0,-0.2694,-0.4734,145.0,98.0,0.48
16.54,31958.1,35014.9,-0.0496,-0.0014,145.0,98.0,0.48
16.56,32108.9,35363.3,0.1566,0.4119,145.0,98.0,0.48
16.58,32252.0,35579.7,0.3522,0.6687,145.0,98.0,0.48
16.6,32291.1,35881.9,0.4057,1.0271,145.0,98.0,0.48
16.62,32308.7,35639.4,0.4298,0.7394,145.0,98.0,0.48
16.64,32218.1,35467.5,0.306,0.5356,145.0,98.0,0.48
16.66,32145.4,35303.2,0.2065,0.3407,145.0,98.0,0.48
16.68,32184.5,35162.6,0.2599,0.1739,145.0,98.0,0.48
16.7,31884.0,35044.7,-0.151,0.0339,145.0,98.0,0.48
16.72,31993.5,34998.9,-0.0011,-0.0204,145.0,98.0,0.48
16.74,31950.4,35020.3,-0.0601,0.0051,145.0,98.0,0.48
16.76,31971.8,34871.0,-0.0309,-0.172,145.0,98.0,0.48
16.78,31917.1,34767.3,-0.1057,-0.2951,145.0,98.0,0.48
16.8,31840.5,34712.2,-0.2104,-0.3604,145.0,98.0,0.48
16.82,31781.4,34711.7,-0.2912,-0.361,145.0,98.0,0.48
16.84,31920.2,34672.4,-0.1014,-0.4077,145.0,98.0,0.48
16.86,31824.2,34652.3,-0.2326,-0.4315,145.0,98.0,0.48
16.88,31768.9,34528.1,-0.3082,-0.5788,145.0,98.0,0.48
16.9,31722.7,34390.0,-0.3714,-0.7426,145.0,98.0,0.48
16.92,31782.9,34482.6,-0.2891,-0.6328,145.0,98.0,0.48
16.94,31939.3,34704.1,-0.0753,-0.3701,145.0,98.0,0.48
16.96,32011.0,35033.6,0.0227,0.0209,145.0,98.0,0.48
16.98,32160.4,35440.7,0.2269,0.5037,145.0,98.0,0.48
17.0,32373.7,35684.1,0.5186,0.7925,145.0,98.0,0.48
17.02,32312.1,35833.0,0.4344,0.9691,145.0,98.0,0.48
17.04,32262.2,35677.0,0.3662,0.7841,145.0,98.0,0.48
17.06,32166.7,35514.7,0.2356,0.5916,145.0,98.0,0.48
17.08,32080.2,35242.8,0.1173,0.2689,145.0,98.0,0.48
17.1,32059.4,35231.7,0.089,0.2558,145.0,98.0,0.48
17.12,32054.0,35105.0,0.0815,0.1055,145.0,98.0,0.48
17.14,32046.4,34984.8,0.0712,-0.037,145.0,98.0,0.48
17.16,31951.6,34807.5,-0.0584,-0.2474,145.0,98.0,0.48
17.18,31974.7,34753.6,-0.0269,-0.3114,145.0,98.0,0.48
17.2,31881.3,34725.6,-0.1545,-0.3445,145.0,98.0,0.48
17.22,31877.8,34687.1,-0.1594,-0.3902,145.0,98.0,0.48
17.24,31760.1,34679.5,-0.3203,-0.3993,145.0,98.0,0.48
17.26,31786.6,34560.7,-0.2841,-0.5402,145.0,98.0,0.48
17.28,31835.9,34507.9,-0.2167,-0.6028,145.0,98.0,0.48
17.3,31787.0,34491.9,-0.2836,-0.6218,145.0,98.0,0.48
17.32,31717.6,34422.5,-0.3784,-0.7041,145.0,98.0,0.48
17.34,31828.4,34550.6,-0.2269,-0.5522,145.0,98.0,0.48
17.36,31900.3,34829.8,-0.1286,-0.221,145.0,98.0,0.48
17.38,32115.7,35315.5,0.1659,0.3552,145.0,98.0,0.48
17.4,32239.2,35611.8,0.3348,0.7068,145.0,98.0,0.48
17.42,32336.6,35713.8,0.4679,0.8278,145.0,98.0,0.48
17.44,32349.1,35754.6,0.485,0.8762,145.0,98.0,0.48
17.46,32281.4,35572.9,0.3924,0.6606,145.0,98.0,0.48
17.48,32127.0,35304.8,0.1813,0.3425,145.0,98.0,0.48
17.5,32116.0,35211.4,0.1662,0.2318,145.0,98.0,0.48
17.52,32088.9,35095.0,0.1293,0.0936,145.0,98.0,0.48
17.54,32081.9,35128.2,0.1196,0.1331,145.0,98.0,0.48
17.56,31995.0,34917.1,0.0009,-0.1173,145.0,98.0,0.48
17.58,31965.1,34927.8,-0.0401,-0.1047,145.0,98.0,0.48
17.6,31846.0,34786.0,-0.2028,-0.2729,145.0,98.0,0.48
17.62,31821.0,34678.6,-0.2371,-0.4004,145.0,98.0,0.48
17.64,31809.1,34683.9,-0.2534,-0.3941,145.0,98.0,0.48
17.66,31888.4,34593.3,-0.1448,-0.5015,145.0,98.0,0.48
17.68,31810.3,34614.1,-0.2517,-0.4769,145.0,98.0,0.48
17.7,31820.7,34484.8,-0.2375,-0.6303,145.0,98.0,0.48
17.72,31714.6,34418.7,-0.3825,-0.7087,145.0,98.0,0.48
17.74,31767.2,34440.9,-0.3106,-0.6822,145.0,98.0,0.48
17.76,31774.8,34681.7,-0.3002,-0.3966,145.0,98.0,0.48
17.78,31959.4,34990.9,-0.0479,-0.0299,145.0,98.0,0.48
17.8,32185.2,35314.0,0.2609,0.3535,145.0,98.0,0.48
17.82,32271.6,35624.2,0.3791,0.7215,145.0,98.0,0.48
17.84,32275.1,35770.0,0.3838,0.8944,145.0,98.0,0.48
17.86,32348.2,35675.4,0.4838,0.7822,145.0,98.0,0.48
17.88,32074.4,35522.3,0.1095,0.6005,145.0,98.0,0.48
17.9,32153.2,35253.1,0.2172,0.2813,145.0,98.0,0.48
17.92,32119.6,35180.9,0.1713,0.1955,145.0,98.0,0.48
17.94,32025.7,35143.2,0.0428,0.1509,145.0,98.0,0.48
17.96,32085.7,34958.8,0.1249,-0.0679,145.0,98.0,0.48
17.98,31948.5,35006.9,-0.0627,-0.0109,145.0,98.0,0.48
18.0,32036.0,34820.5,0.0569,-0.232,145.0,98.0,0.48
18.02,31876.0,34716.9,-0.1618,-0.3548,145.0,98.0,0.48
18.04,31869.8,34691.3,-0.1704,-0.3853,145.0,98.0,0.48
18.06,31830.9,34572.6,-0.2235,-0.5261,145.0,98.0,0.48
18.08,31943.5,34615.1,-0.0695,-0.4757,145.0,98.0,0.48
18.1,31803.2,34595.9,-0.2614,-0.4985,145.0,98.0,0.48
18.12,31821.5,34561.5,-0.2364,-0.5392,145.0,98.0,0.48
18.14,31775.1,34411.9,-0.2999,-0.7167,145.0,98.0,0.48
18.16,31760.3,34500.5,-0.32,-0.6116,145.0,98.0,0.48
18.18,31873.7,34802.7,-0.1649,-0.2531,145.0,98.0,0.48
18.2,32029.1,35123.4,0.0474,0.1274,145.0,98.0,0.48
18.22,32188.8,35465.4,0.2658,0.533,145.0,98.0,0.48
18.24,32275.7,35707.7,0.3846,0.8205,145.0,98.0,0.48
18.26,32357.0,35695.6,0.4958,0.8062,145.0,98.0,0.48
18.28,32338.7,35586.6,0.4707,0.6768,145.0,98.0,0.48
18.3,32126.5,35418.5,0.1806,0.4774,145.0,98.0,0.48
18.32,32147.6,35237.1,0.2095,0.2622,145.0,98.0,0.48
18.34,32039.8,35211.1,0.0621,0.2314,145.0,98.0,0.48
18.36,31999.8,35120.1,0.0074,0.1234,145.0,98.0,0.48
18.38,32019.6,35079.9,0.0345,0.0758,145.0,98.0,0.48
18.4,31912.5,34886.0,-0.112,-0.1543,145.0,98.0,0.48
18.42,31850.3,34909.0,-0.197,-0.127,145.0,98.0,0.48
18.44,31912.6,34809.3,-0.1119,-0.2452,145.0,98.0,0.48
18.46,31811.5,34614.0,-0.25,-0.477,145.0,98.0,0.48
18.48,31791.0,34678.0,-0.2781,-0.401,145.0,98.0,0.48
18.5,31806.8,34610.2,-0.2564,-0.4815,145.0,98.0,0.48
18.52,31786.7,34656.6,-0.2839,-0.4265,145.0,98.0,0.48
18.54,31842.6,34573.4,-0.2075,-0.5251,145.0,98.0,0.48
18.56,31822.5,34500.2,-0.235,-0.6119,145.0,98.0,0.48
18.58,31842.3,34487.7,-0.2079,-0.6268,145.0,98.0,0.48
18.6,31887.7,34813.4,-0.1459,-0.2404,145.0,98.0,0.48
18.62,32084.3,35237.6,0.1229,0.2628,145.0,98.0,0.48
18.64,32158.2,35448.8,0.224,0.5134,145.0,98.0,0.48
18.66,32322.1,35775.1,0.448,0.9004,145.0,98.0,0.48
18.68,32323.0,35764.8,0.4493,0.8882,145.0,98.0,0.48
18.7,32295.8,35515.8,0.4121,0.5928,145.0,98.0,0.48
18.72,32141.5,35367.9,0.2012,0.4174,145.0,98.0,0.48
18.74,32129.7,35134.7,0.185,0.1408,145.0,98.0,0.48
18.76,32062.3,35108.2,0.0929,0.1093,145.0,98.0,0.48
18.78,32020.3,35036.5,0.0355,0.0243,145.0,98.0,0.48
18.8,32014.3,34998.1,0.0273,-0.0213,145.0,98.0,0.48
18.82,31952.9,34903.9,-0.0567,-0.133,145.0,98.0,0.48
18.84,31874.5,34760.5,-0.1639,-0.3032,145.0,98.0,0.48
18.86,31895.3,34696.9,-0.1354,-0.3786,145.0,98.0,0.48
18.88,31830.1,34598.2,-0.2246,-0.4957,145.0,98.0,0.48
18.9,31891.7,34582.5,-0.1403,-0.5143,145.0,98.0,0.48
18.92,31861.9,34663.8,-0.1811,-0.4179,145.0,98.0,0.48
18.94,31755.6,34503.5,-0.3265,-0.608,145.0,98.0,0.48
18.96,31806.6,34470.4,-0.2567,-0.6473,145.0,98.0,0.48
18.98,31747.2,34537.5,-0.338,-0.5677,145.0,98.0,0.48
19.0,31906.5,34594.6,-0.1201,-0.5,145.0,98.0,0.48
19.02,31910.1,34878.6,-0.1153,-0.163,145.0,98.0,0.48
19.04,32152.5,35310.5,0.2161,0.3493,145.0,98.0,0.48
19.06,32340.8,35638.9,0.4736,0.7389,145.0,98.0,0.48
19.08,32322.3,35787.5,0.4484,0.9151,145.0,98.0,0.48
19.1,32248.7,35636.8,0.3477,0.7364,145.0,98.0,0.48
19.12,32249.0,35433.2,0.3481,0.4948,145.0,98.0,0.48
19.14,32213.9,35261.7,0.3002,0.2914,145.0,98.0,0.48
19.16,31970.1,35208.9,-0.0331,0.2288,145.0,98.0,0.48
19.18,32011.3,35160.1,0.0231,0.1709,145.0,98.0,0.48
19.2,32021.0,35065.9,0.0363,0.0591,145.0,98.0,0.48
19.22,32011.2,35029.3,0.023,0.0157,145.0,98.0,0.48
19.24,31905.7,34795.9,-0.1213,-0.2612,145.0,98.0,0.48
19.26,31971.3,34750.2,-0.0316,-0.3154,145.0,98.0,0.48
19.28,31772.0,34684.4,-0.304,-0.3934,145.0,98.0,0.48
19.3,31857.7,34685.8,-0.1868,-0.3918,145.0,98.0,0.48
19.32,31786.4,34608.8,-0.2844,-0.4831,145.0,98.0,0.48
19.34,31805.5,34533.8,-0.2582,-0.5721,145.0,98.0,0.48
19.36,31737.1,34490.3,-0.3518,-0.6237,145.0,98.0,0.48
19.38,31817.4,34452.7,-0.2419,-0.6683,145.0,98.0,0.48
19.4,31694.9,34452.6,-0.4095,-0.6684,145.0,98.0,0.48
19.42,31855.9,34695.4,-0.1893,-0.3804,145.0,98.0,0.48
19.44,31948.5,35040.8,-0.0627,0.0294,145.0,98.0,0.48
19.46,32208.0,35392.4,0.2921,0.4464,145.0,98.0,0.48
19.48,32351.9,35754.7,0.4889,0.8763,145.0,98.0,0.48
19.5,32296.3,35758.1,0.4129,0.8803,145.0,98.0,0.48
19.52,32257.5,35730.3,0.3597,0.8473,145.0,98.0,0.48
19.54,32091.1,35442.9,0.1323,0.5064,145.0,98.0,0.48
19.56,32136.8,35274.1,0.1947,0.3061,145.0,98.0,0.48
19.58,32118.1,35116.8,0.1692,0.1195,145.0,98.0,0.48
19.6,32059.3,35006.9,0.0887,-0.0108,145.0,98.0,0.48
19.62,32057.3,35059.7,0.086,0.0518,145.0,98.0,0.48
19.64,32051.9,34935.0,0.0786,-0.0961,145.0,98.0,0.48
19.66,31852.2,34873.5,-0.1944,-0.1691,145.0,98.0,0.48
19.68,31919.3,34777.2,-0.1026,-0.2833,145.0,98.0,0.48
19.7,31819.2,34654.7,-0.2395,-0.4286,145.0,98.0,0.48
19.72,31808.9,34608.0,-0.2536,-0.4841,145.0,98.0,0.48
19.74,31874.7,34681.4,-0.1636,-0.397,145.0,98.0,0.48
19.76,31789.7,34583.8,-0.2799,-0.5128,145.0,98.0,0.48
19.78,31894.9,34506.6,-0.1361,-0.6044,145.0,98.0,0.48
19.8,31702.7,34479.1,-0.3988,-0.637,145.0,98.0,0.48
19.82,31797.0,34593.3,-0.2698,-0.5015,145.0,98.0,0.48
19.84,31903.8,34891.9,-0.1238,-0.1472,145.0,98.0,0.48
19.86,32126.2,35190.5,0.1802,0.2069,145.0,98.0,0.48
19.88,32246.3,35558.3,0.3445,0.6433,145.0,98.0,0.48
19.9,32384.4,35769.9,0.5333,0.8942,145.0,98.0,0.48
19.92,32326.7,35685.5,0.4543,0.7942,145.0,98.0,0.48
19.94,32276.5,35637.7,0.3858,0.7375,145.0,98.0,0.48
19.96,32145.1,35403.0,0.206,0.4591,145.0,98.0,0.48
19.98,32087.2,35176.0,0.127,0.1898,145.0,98.0,0.48
20.0,32045.8,35206.8,0.0703,0.2263,145.0,98.0,0.48
20.02,32096.9,35040.2,0.1401,0.0286,145.0,98.0,0.48
20.04,31957.6,34989.6,-0.0503,-0.0314,145.0,98.0,0.48
20.06,31979.9,34992.9,-0.0198,-0.0275,145.0,98.0,0.48
20.08,31917.3,34782.0,-0.1054,-0.2776,145.0,98.0,0.48
20.1,31895.3,34682.9,-0.1354,-0.3952,145.0,98.0,0.48
20.12,31949.4,34615.3,-0.0614,-0.4754,145.0,98.0,0.48
20.14,31842.3,34652.3,-0.208,-0.4316,145.0,98.0,0.48
20.16,31890.7,34597.6,-0.1418,-0.4965,145.0,98.0,0.48
20.18,31819.7,34443.3,-0.2388,-0.6794,145.0,98.0,0.48
20.2,31781.2,34494.4,-0.2914,-0.6188,145.0,98.0,0.48
20.22,31768.2,34464.3,-0.3092,-0.6545,145.0,98.0,0.48
20.24,31799.6,34618.8,-0.2663,-0.4712,145.0,98.0,0.48
20.26,31848.6,34913.5,-0.1993,-0.1217,145.0,98.0,0.48
20.28,32156.6,35329.2,0.2218,0.3714,145.0,98.0,0.48
20.3,32302.0,35558.9,0.4206,0.644,145.0,98.0,0.48
20.32,32312.0,35758.6,0.4343,0.8808,145.0,98.0,0.48
20.34,32194.5,35798.0,0.2737,0.9276,145.0,98.0,0.48
20.36,32274.1,35516.5,0.3824,0.5936,145.0,98.0,0.48
20.38,32069.5,35291.8,0.1026,0.3271,145.0,98.0,0.48
20.4,32029.2,35236.0,0.0476,0.2609,145.0,98.0,0.48
20.42,32023.8,35119.8,0.0402,0.1231,145.0,98.0,0.48
20.44,32052.8,35086.3,0.0799,0.0833,145.0,98.0,0.48
20.46,32053.1,34929.6,0.0803,-0.1025,145.0,98.0,0.48
20.48,31885.8,34829.1,-0.1484,-0.2218,145.0,98.0,0.48
20.5,31916.9,34821.5,-0.106,-0.2307,145.0,98.0,0.48
20.52,31849.0,34686.3,-0.1987,-0.3911,145.0,98.0,0.48
20.54,31866.9,34604.2,-0.1742,-0.4885,145.0,98.0,0.48
20.56,31795.0,34755.8,-0.2726,-0.3088,145.0,98.0,0.48
20.58,31801.3,34697.7,-0.264,-0.3777,145.0,98.0,0.48
20.6,31786.6,34526.9,-0.2841,-0.5803,145.0,98.0,0.48
20.62,31724.0,34429.7,-0.3697,-0.6956,145.0,98.0,0.48
20.64,31760.0,34524.2,-0.3205,-0.5835,145.0,98.0,0.48
20.66,31844.8,34737.1,-0.2045,-0.3309,145.0,98.0,0.48
20.68,32062.3,35044.6,0.0928,0.0338,145.0,98.0,0.48
20.7,32082.5,35394.7,0.1205,0.4492,145.0,98.0,0.48
20.72,32269.0,35680.1,0.3755,0.7877,145.0,98.0,0.48
20.74,32302.3,35786.9,0.421,0.9145,145.0,98.0,0.48
20.76,32188.5,35609.6,0.2655,0.7042,145.0,98.0,0.48
20.78,32226.1,35408.3,0.3168,0.4653,145.0,98.0,0.48
20.8,32158.1,35177.2,0.2238,0.1912,145.0,98.0,0.48
20.82,32054.8,35142.2,0.0826,0.1497,145.0,98.0,0.48
20.84,32049.8,35145.2,0.0758,0.1532,145.0,98.0,0.48
20.86,31998.5,35065.9,0.0056,0.0592,145.0,98.0,0.48
20.88,31937.6,34944.7,-0.0776,-0.0847,145.0,98.0,0.48
20.9,31999.9,34866.5,0.0075,-0.1775,145.0,98.0,0.48
20.92,31880.3,34690.5,-0.156,-0.3862,145.0,98.0,0.48
20.94,31901.6,34621.4,-0.1268,-0.4682,145.0,98.0,0.48
20.96,31909.3,34712.7,-0.1163,-0.3598,145.0,98.0,0.48
20.98,31857.9,34673.0,-0.1866,-0.4069,145.0,98.0,0.48
21.0,31795.0,34570.8,-0.2726,-0.5282,145.0,98.0,0.48
21.02,31707.3,34570.8,-0.3925,-0.5282,145.0,98.0,0.48
21.04,31768.6,34388.6,-0.3087,-0.7444,145.0,98.0,0.48
21.06,31763.9,34541.2,-0.3151,-0.5633,145.0,98.0,0.48
21.08,31941.5,34773.2,-0.0723,-0.2881,145.0,98.0,0.48
21.1,32019.5,35224.3,0.0344,0.2471,145.0,98.0,0.48
21.12,32199.3,35513.9,0.2802,0.5906,145.0,98.0,0.48
21.14,32271.8,35691.5,0.3793,0.8013,145.0,98.0,0.48
21.16,32358.7,35794.8,0.4981,0.9239,145.0,98.0,0.48
21.18,32293.8,35622.7,0.4094,0.7197,145.0,98.0,0.48
21.2,32186.6,35425.2,0.2628,0.4854,145.0,98.0,0.48
21.22,32040.9,35146.8,0.0636,0.1551,145.0,98.0,0.48
21.24,32022.6,35156.0,0.0386,0.1661,145.0,98.0,0.48
21.26,32071.2,35049.1,0.105,0.0392,145.0,98.0,0.48
21.28,32037.2,35008.4,0.0585,-0.0091,145.0,98.0,0.48
21.3,31965.7,34955.9,-0.0392,-0.0714,145.0,98.0,0.48
21.32,31975.6,34839.9,-0.0256,-0.2089,145.0,98.0,0.48
21.34,31947.0,34738.4,-0.0648,-0.3294,145.0,98.0,0.48
21.36,31904.0,34618.4,-0.1235,-0.4717,145.0,98.0,0.48
21.38,31814.1,34649.3,-0.2465,-0.4351,145.0,98.0,0.48
21.4,31766.6,34611.2,-0.3114,-0.4803,145.0,98.0,0.48
21.42,31849.5,34684.8,-0.1981,-0.393,145.0,98.0,0.48
21.44,31780.5,34540.2,-0.2924,-0.5645,145.0,98.0,0.48
21.46,31812.1,34336.6,-0.2493,-0.806,145.0,98.0,0.48
21.48,31860.3,34616.9,-0.1834,-0.4735,145.0,98.0,0.48
21.5,31990.1,34949.1,-0.0059,-0.0794,145.0,98.0,0.48
21.52,32108.5,35201.1,0.156,0.2195,145.0,98.0,0.48
21.54,32286.9,35650.9,0.4,0.7531,145.0,98.0,0.48
21.56,32400.9,35737.3,0.5558,0.8557,145.0,98.0,0.48
21.58,32358.0,35698.1,0.4972,0.8091,145.0,98.0,0.48
21.6,32111.4,35515.1,0.1601,0.592,145.0,98.0,0.48
21.62,32131.6,35429.5,0.1877,0.4904,145.0,98.0,0.48
21.64,32012.4,35204.1,0.0247,0.2231,145.0,98.0,0.48
21.66,32034.4,35149.5,0.0548,0.1583,145.0,98.0,0.48
21.68,31990.0,35099.5,-0.006,0.0989,145.0,98.0,0.48
21.7,32015.8,34953.5,0.0293,-0.0742,145.0,98.0,0.48
21.72,31933.9,34878.0,-0.0826,-0.1638,145.0,98.0,0.48
21.74,31921.8,34798.3,-0.0992,-0.2583,145.0,98.0,0.48
21.76,31836.7,34697.7,-0.2156,-0.3777,145.0,98.0,0.48
21.78,31791.0,34620.3,-0.278,-0.4695,145.0,98.0,0.48
21.8,31898.0,34760.8,-0.1318,-0.3028,145.0,98.0,0.48
21.82,31777.0,34610.7,-0.2972,-0.4808,145.0,98.0,0.48
21.84,31724.8,34505.2,-0.3686,-0.606,145.0,98.0,0.48
21.86,31803.6,34440.4,-0.2609,-0.6829,145.0,98.0,0.48
21.88,31772.6,34526.1,-0.3032,-0.5812,145.0,98.0,0.48
21.9,31890.6,34686.6,-0.1419,-0.3908,145.0,98.0,0.48
21.92,31965.4,35003.1,-0.0397,-0.0154,145.0,98.0,0.48
21.94,32181.4,35358.0,0.2557,0.4056,145.0,98.0,0.48
21.96,32341.3,35726.8,0.4743,0.8432,145.0,98.0,0.48
21.98,32323.1,35772.6,0.4494,0.8975,145.0,98.0,0.48
22.0,32302.9,35710.5,0.4219,0.8238,145.0,98.0,0.48
22.02,32216.9,35526.5,0.3042,0.6056,145.0,98.0,0.48
22.04,32090.3,35190.1,0.1312,0.2064,145.0,98.0,0.48
22.06,32056.7,35149.1,0.0852,0.1578,145.0,98.0,0.48
22.08,32021.0,35124.5,0.0364,0.1286,145.0,98.0,0.48
22.1,32006.3,35007.6,0.0163,-0.01,145.0,98.0,0.48
22.12,32008.4,34951.0,0.0192,-0.0772,145.0,98.0,0.48
22.14,31909.7,34866.0,-0.1157,-0.178,145.0,98.0,0.48
22.16,31937.7,34793.8,-0.0774,-0.2636,145.0,98.0,0.48
22.18,31917.0,34692.8,-0.1058,-0.3835,145.0,98.0,0.48
22.2,31919.5,34697.9,-0.1023,-0.3774,145.0,98.0,0.48
22.22,31884.8,34706.4,-0.1499,-0.3673,145.0,98.0,0.48
22.24,31818.1,34551.1,-0.241,-0.5515,145.0,98.0,0.48
22.26,31717.5,34509.9,-0.3785,-0.6005,145.0,98.0,0.48
22.28,31744.5,34462.3,-0.3416,-0.6569,145.0,98.0,0.48
22.3,31824.6,34490.3,-0.2321,-0.6237,145.0,98.0,0.48
22.32,31963.7,34761.3,-0.042,-0.3022,145.0,98.0,0.48
22.34,31992.7,35130.1,-0.0023,0.1353,145.0,98.0,0.48
22.36,32196.7,35491.8,0.2767,0.5644,145.0,98.0,0.48
22.38,32263.7,35675.1,0.3683,0.7818,145.0,98.0,0.48
22.4,32362.6,35791.4,0.5034,0.9198,145.0,98.0,0.48
22.42,32281.6,35677.0,0.3927,0.7841,145.0,98.0,0.48
22.44,32138.7,35354.4,0.1973,0.4014,145.0,98.0,0.48
22.46,32128.8,35173.7,0.1838,0.1871,145.0,98.0,0.48
22.48,31964.0,35137.5,-0.0415,0.144,145.0,98.0,0.48
22.5,32129.4,35061.7,0.1847,0.0542,145.0,98.0,0.48
22.52,32044.4,35078.2,0.0685,0.0738,145.0,98.0,0.48
22.54,31987.1,34929.6,-0.01,-0.1025,145.0,98.0,0.48
22.56,31898.5,34774.4,-0.131,-0.2866,145.0,98.0,0.48
22.58,31865.9,34772.1,-0.1756,-0.2894,145.0,98.0,0.48
22.6,31922.2,34646.2,-0.0987,-0.4388,145.0,98.0,0.48
22.62,31853.6,34641.0,-0.1925,-0.4449,145.0,98.0,0.48
22.64,31841.3,34690.3,-0.2093,-0.3864,145.0,98.0,0.48
22.66,31767.9,34593.7,-0.3096,-0.501,145.0,98.0,0.48
22.68,31686.9,34563.3,-0.4204,-0.5371,145.0,98.0,0.48
22.7,31800.5,34447.1,-0.2651,-0.675,145.0,98.0,0.48
22.72,31818.2,34539.9,-0.2408,-0.5648,145.0,98.0,0.48
22.74,31848.8,34842.7,-0.199,-0.2057,145.0,98.0,0.48
22.76,32082.7,35250.7,0.1207,0.2784,145.0,98.0,0.48
22.78,32336.4,35601.1,0.4676,0.694,145.0,98.0,0.48
22.8,32302.7,35823.6,0.4216,0.958,145.0,98.0,0.48
22.82,32274.4,35687.4,0.3829,0.7965,145.0,98.0,0.48
22.84,32259.8,35486.3,0.3629,0.5578,145.0,98.0,0.48
22.86,32133.0,35297.3,0.1895,0.3336,145.0,98.0,0.48
22.88,32082.9,35238.7,0.1211,0.2641,145.0,98.0,0.48
22.9,32041.1,35089.3,0.0638,0.0869,145.0,98.0,0.48
22.92,32052.3,34966.8,0.0791,-0.0585,145.0,98.0,0.48
22.94,32019.5,35004.6,0.0344,-0.0136,145.0,98.0,0.48
22.96,31959.8,34929.2,-0.0473,-0.103,145.0,98.0,0.48
22.98,31930.4,34736.9,-0.0875,-0.3311,145.0,98.0,0.48
23.0,31879.7,34701.2,-0.1568,-0.3736,145.0,98.0,0.48
23.02,31876.5,34630.4,-0.1612,-0.4575,145.0,98.0,0.48
23.04,31791.1,34754.8,-0.2779,-0.3099,145.0,98.0,0.48
23.06,31895.4,34660.3,-0.1354,-0.4221,145.0,98.0,0.48
23.08,31819.7,34485.2,-0.2388,-0.6297,145.0,98.0,0.48
23.1,31824.5,34428.3,-0.2323,-0.6973,145.0,98.0,0.48
23.12,31833.0,34489.1,-0.2207,-0.6251,145.0,98.0,0.48
23.14,31850.4,34665.2,-0.1969,-0.4163,145.0,98.0,0.48
23.16,32005.0,34946.0,0.0145,-0.0831,145.0,98.0,0.48
23.18,32154.1,35398.2,0.2184,0.4534,145.0,98.0,0.48
23.2,32300.6,35646.3,0.4187,0.7477,145.0,98.0,0.48
23.22,32267.0,35671.0,0.3727,0.777,145.0,98.0,0.48
23.24,32244.2,35602.2,0.3416,0.6953,145.0,98.0,0.48
23.26,32127.6,35524.7,0.1822,0.6034,145.0,98.0,0.48
23.28,32089.7,35187.8,0.1303,0.2037,145.0,98.0,0.48
23.3,32139.3,35275.5,0.1981,0.3078,145.0,98.0,0.48
23.32,32039.9,35123.3,0.0622,0.1272,145.0,98.0,0.48
23.34,32066.9,35014.5,0.0991,-0.0018,145.0,98.0,0.48
23.36,31957.9,34973.2,-0.0499,-0.0508,145.0,98.0,0.48
23.38,32020.7,34829.1,0.0361,-0.2218,145.0,98.0,0.48
23.4,31822.7,34739.1,-0.2347,-0.3286,145.0,98.0,0.48
23.42,31910.8,34724.2,-0.1143,-0.3462,145.0,98.0,0.48
23.44,31879.6,34643.6,-0.157,-0.4419,145.0,98.0,0.48
23.46,31865.6,34709.2,-0.1761,-0.364,145.0,98.0,0.48
23.48,31829.8,34525.8,-0.225,-0.5816,145.0,98.0,0.48
23.5,31809.2,34516.8,-0.2532,-0.5923,145.0,98.0,0.48
23.52,31782.7,34394.8,-0.2894,-0.737,145.0,98.0,0.48
23.54,31871.4,34470.7,-0.1682,-0.647,145.0,98.0,0.48
23.56,31833.9,34816.6,-0.2194,-0.2366,145.0,98.0,0.48
23.58,31927.4,35005.3,-0.0915,-0.0128,145.0,98.0,0.48
23.6,32287.4,35394.9,0.4007,0.4494,145.0,98.0,0.48
23.62,32248.9,35712.8,0.348,0.8265,145.0,98.0,0.48
23.64,32261.6,35739.5,0.3654,0.8582,145.0,98.0,0.48
23.66,32295.2,35561.7,0.4113,0.6473,145.0,98.0,0.48
23.68,32246.0,35390.0,0.3441,0.4436,145.0,98.0,0.48
23.7,32076.8,35231.2,0.1126,0.2552,145.0,98.0,0.48
23.72,32012.0,35109.4,0.0242,0.1107,145.0,98.0,0.48
23.74,31941.3,35100.6,-0.0726,0.1004,145.0,98.0,0.48
23.76,31991.8,35008.9,-0.0035,-0.0085,145.0,98.0,0.48
23.78,31957.1,34924.3,-0.051,-0.1089,145.0,98.0,0.48
23.8,31911.8,34857.2,-0.1129,-0.1885,145.0,98.0,0.48
23.82,31871.2,34676.1,-0.1685,-0.4033,145.0,98.0,0.48
23.84,31909.8,34654.0,-0.1157,-0.4295,145.0,98.0,0.48
23.86,31811.0,34754.4,-0.2507,-0.3103,145.0,98.0,0.48
23.88,31802.7,34645.4,-0.2621,-0.4397,145.0,98.0,0.48
23.9,31851.0,34632.2,-0.196,-0.4553,145.0,98.0,0.48
23.92,31890.0,34525.0,-0.1427,-0.5826,145.0,98.0,0.48
23.94,31691.6,34482.0,-0.4139,-0.6336,145.0,98.0,0.48
23.96,31873.5,34497.2,-0.1652,-0.6155,145.0,98.0,0.48
23.98,31977.2,34804.9,-0.0235,-0.2505,145.0,98.0,0.48
24.0,32051.8,35293.4,0.0785,0.3291,145.0,98.0,0.48
24.02,32356.0,35572.3,0.4944,0.6599,145.0,98.0,0.48
24.04,32354.0,35707.4,0.4917,0.8202,145.0,98.0,0.48
24.06,32332.0,35704.9,0.4617,0.8171,145.0,98.0,0.48
24.08,32218.1,35557.8,0.3058,0.6426,145.0,98.0,0.48
24.1,32247.4,35455.9,0.346,0.5218,145.0,98.0,0.48
24.12,32083.0,35203.0,0.1212,0.2218,145.0,98.0,0.48
24.14,31945.4,35009.6,-0.0669,-0.0076,145.0,98.0,0.48
24.16,32014.8,35093.6,0.0279,0.092,145.0,98.0,0.48
24.18,32020.1,35076.8,0.0351,0.072,145.0,98.0,0.48
24.2,31983.7,34827.9,-0.0147,-0.2232,145.0,98.0,0.48
24.22,31924.4,34797.6,-0.0956,-0.2592,145.0,98.0,0.48
24.24,31917.8,34696.7,-0.1046,-0.3789,145.0,98.0,0.48
24.26,31925.3,34681.2,-0.0945,-0.3972,145.0,98.0,0.48
24.28,31768.8,34728.6,-0.3084,-0.341,145.0,98.0,0.48
24.3,31804.2,34673.4,-0.2601,-0.4065,145.0,98.0,0.48
24.32,31783.7,34540.3,-0.2881,-0.5644,145.0,98.0,0.48
24.34,31758.8,34471.7,-0.322,-0.6458,145.0,98.0,0.48
24.36,31732.7,34467.1,-0.3578,-0.6512,145.0,98.0,0.48
24.38,31857.7,34611.6,-0.1869,-0.4797,145.0,98.0,0.48
24.4,32050.1,35027.6,0.0762,0.0137,145.0,98.0,0.48
24.42,32166.7,35334.0,0.2357,0.3772,145.0,98.0,0.48
24.44,32423.4,35666.4,0.5866,0.7715,145.0,98.0,0.48
24.46,32307.9,35831.5,0.4286,0.9674,145.0,98.0,0.48
24.48,32234.9,35678.6,0.3288,0.786,145.0,98.0,0.48
24.5,32286.8,35537.2,0.3998,0.6182,145.0,98.0,0.48
24.52,32105.7,35278.3,0.1522,0.3111,145.0,98.0,0.48
24.54,31990.3,35121.7,-0.0056,0.1253,145.0,98.0,0.48
24.56,32026.6,35120.4,0.0441,0.1237,145.0,98.0,0.48
24.58,31970.9,35143.7,-0.0321,0.1514,145.0,98.0,0.48
24.6,31991.8,34971.1,-0.0036,-0.0533,145.0,98.0,0.48
24.62,31882.5,34923.7,-0.1529,-0.1095,145.0,98.0,0.48
24.64,31912.5,34621.9,-0.112,-0.4676,145.0,98.0,0.48
24.66,31909.7,34714.9,-0.1158,-0.3572,145.0,98.0,0.48
24.68,31885.5,34662.2,-0.1489,-0.4198,145.0,98.0,0.48
24.7,31863.3,34706.3,-0.1793,-0.3674,145.0,98.0,0.48
24.72,31840.7,34498.6,-0.2101,-0.6138,145.0,98.0,0.48
24.74,31834.7,34534.1,-0.2183,-0.5718,145.0,98.0,0.48
24.76,31756.8,34514.1,-0.3248,-0.5954,145.0,98.0,0.48
24.78,31830.6,34461.1,-0.224,-0.6583,145.0,98.0,0.48
24.8,31868.1,34744.5,-0.1726,-0.3222,145.0,98.0,0.48
24.82,32049.6,35139.7,0.0755,0.1467,145.0,98.0,0.48
24.84,32167.1,35485.6,0.2362,0.557,145.0,98.0,0.48
24.86,32330.9,35694.2,0.4601,0.8045,145.0,98.0,0.48
24.88,32401.7,35785.0,0.5569,0.9121,145.0,98.0,0.48
24.9,32301.9,35515.6,0.4205,0.5926,145.0,98.0,0.48
24.92,32174.5,35409.8,0.2462,0.4671,145.0,98.0,0.48
24.94,32143.4,35341.5,0.2038,0.3861,145.0,98.0,0.48
24.96,32132.6,35078.3,0.1889,0.0739,145.0,98.0,0.48
24.98,32011.8,35030.1,0.0239,0.0166,145.0,98.0,0.48
25.0,31898.5,35048.8,-0.1311,0.0388,145.0,98.0,0.48
25.02,32029.6,35000.0,0.0482,-0.0191,145.0,98.0,0.48
25.04,31905.3,34796.9,-0.1218,-0.26,145.0,98.0,0.48
25.06,31905.7,34697.5,-0.1212,-0.3779,145.0,98.0,0.48
25.08,31885.9,34651.6,-0.1483,-0.4323,145.0,98.0,0.48
25.1,31864.6,34668.8,-0.1774,-0.4119,145.0,98.0,0.48
25.12,31864.7,34668.5,-0.1772,-0.4123,145.0,98.0,0.48
25.14,31754.5,34561.5,-0.3279,-0.5392,145.0,98.0,0.48
25.16,31754.9,34515.3,-0.3274,-0.594,145.0,98.0,0.48
25.18,31658.7,34438.4,-0.4589,-0.6853,145.0,98.0,0.48
25.2,31812.6,34638.7,-0.2486,-0.4476,145.0,98.0,0.48
25.22,31942.8,34830.6,-0.0705,-0.22,145.0,98.0,0.48
25.24,32169.6,35223.4,0.2396,0.246,145.0,98.0,0.48
25.26,32246.8,35587.4,0.3451,0.6778,145.0,98.0,0.48
25.28,32233.1,35762.2,0.3264,0.8852,145.0,98.0,0.48
25.3,32325.2,35730.4,0.4523,0.8474,145.0,98.0,0.48
25.32,32177.9,35511.7,0.2509,0.588,145.0,98.0,0.48
25.34,32135.6,35405.6,0.1931,0.4621,145.0,98.0,0.48
25.36,32058.2,35230.6,0.0873,0.2545,145.0,98.0,0.48
25.38,32021.5,35132.3,0.0371,0.1379,145.0,98.0,0.48
25.4,31929.5,35069.6,-0.0887,0.0636,145.0,98.0,0.48
25.42,31859.5,34964.0,-0.1843,-0.0618,145.0,98.0,0.48
25.44,31919.2,34850.6,-0.1028,-0.1962,145.0,98.0,0.48
25.46,31971.0,34748.5,-0.032,-0.3174,145.0,98.0,0.48
25.48,31891.6,34583.0,-0.1405,-0.5137,145.0,98.0,0.48
25.5,31871.5,34647.2,-0.168,-0.4376,145.0,98.0,0.48
25.52,31856.6,34605.3,-0.1884,-0.4873,145.0,98.0,0.48
25.54,31834.4,34609.3,-0.2187,-0.4826,145.0,98.0,0.48
25.56,31732.0,34538.6,-0.3588,-0.5664,145.0,98.0,0.48
25.58,31771.0,34429.2,-0.3055,-0.6962,145.0,98.0,0.48
25.6,31781.5,34524.1,-0.2911,-0.5836,145.0,98.0,0.48
25.62,31785.8,34643.8,-0.2851,-0.4415,145.0,98.0,0.48
25.64,31989.7,34842.4,-0.0064,-0.206,145.0,98.0,0.48
25.66,32111.6,35286.5,0.1603,0.3209,145.0,98.0,0.48
25.68,32336.5,35708.2,0.4678,0.8211,145.0,98.0,0.48
25.7,32346.4,35805.6,0.4812,0.9366,145.0,98.0,0.48
25.72,32357.5,35643.3,0.4965,0.7441,145.0,98.0,0.48
25.74,32255.2,35500.7,0.3567,0.5749,145.0,98.0,0.48
25.76,32151.4,35371.8,0.2147,0.422,145.0,98.0,0.48
25.78,32018.5,35141.2,0.033,0.1485,145.0,98.0,0.48
25.8,32002.2,35149.5,0.0107,0.1583,145.0,98.0,0.48
25.82,32058.1,35107.8,0.0871,0.1088,145.0,98.0,0.48
25.84,32037.6,35053.6,0.0591,0.0445,145.0,98.0,0.48
25.86,31958.4,34786.0,-0.0491,-0.2729,145.0,98.0,0.48
25.88,31941.8,34740.7,-0.0719,-0.3267,145.0,98.0,0.48
25.9,31902.2,34661.9,-0.1261,-0.4201,145.0,98.0,0.48
25.92,31813.8,34702.1,-0.2469,-0.3724,145.0,98.0,0.48
25.94,31871.2,34594.2,-0.1684,-0.5005,145.0,98.0,0.48
25.96,31773.6,34590.9,-0.3019,-0.5044,145.0,98.0,0.48
25.98,31755.0,34481.1,-0.3272,-0.6346,145.0,98.0,0.48
26.0,31796.9,34487.6,-0.2699,-0.6269,145.0,98.0,0.48
26.02,31763.4,34477.6,-0.3158,-0.6388,145.0,98.0,0.48
26.04,31824.4,34706.9,-0.2324,-0.3668,145.0,98.0,0.48
26.06,32027.5,35039.1,0.0453,0.0273,145.0,98.0,0.48
26.08,32198.4,35399.7,0.2789,0.4551,145.0,98.0,0.48
26.1,32407.1,35771.4,0.5642,0.8961,145.0,98.0,0.48
26.12,32338.0,35769.6,0.4699,0.8939,145.0,98.0,0.48
26.14,32342.2,35668.2,0.4756,0.7736,145.0,98.0,0.48
26.16,32235.7,35416.6,0.3299,0.4752,145.0,98.0,0.48
26.18,32133.8,35224.7,0.1907,0.2475,145.0,98.0,0.48
26.2,31983.8,35165.7,-0.0144,0.1775,145.0,98.0,0.48
26.22,32044.9,35126.1,0.0691,0.1305,145.0,98.0,0.48
26.24,32006.1,35048.9,0.016,0.039,145.0,98.0,0.48
26.26,32047.0,34967.1,0.0719,-0.0581,145.0,98.0,0.48
26.28,31939.0,34818.6,-0.0757,-0.2342,145.0,98.0,0.48
26.3,31829.3,34847.6,-0.2257,-0.1998,145.0,98.0,0.48
26.32,31898.4,34692.8,-0.1312,-0.3835,145.0,98.0,0.48
26.34,31857.6,34651.1,-0.187,-0.433,145.0,98.0,0.48
26.36,31880.9,34602.6,-0.1551,-0.4905,145.0,98.0,0.48
26.38,31765.2,34539.5,-0.3133,-0.5653,145.0,98.0,0.48
26.4,31806.9,34566.0,-0.2563,-0.5339,145.0,98.0,0.48
26.42,31739.6,34450.7,-0.3484,-0.6706,145.0,98.0,0.48
26.44,31774.9,34541.4,-0.3,-0.563,145.0,98.0,0.48
26.46,31884.4,34806.4,-0.1504,-0.2488,145.0,98.0,0.48
26.48,31949.2,35171.8,-0.0618,0.1847,145.0,98.0,0.48
26.5,32299.1,35488.0,0.4167,0.5598,145.0,98.0,0.48
26.52,32313.4,35704.6,0.4361,0.8168,145.0,98.0,0.48
26.54,32286.8,35760.5,0.3998,0.8831,145.0,98.0,0.48
26.56,32353.8,35622.1,0.4914,0.719,145.0,98.0,0.48
26.58,32217.9,35452.6,0.3056,0.5178,145.0,98.0,0.48
26.6,32103.6,35231.5,0.1494,0.2555,145.0,98.0,0.48
26.62,31962.7,35097.7,-0.0432,0.0969,145.0,98.0,0.48
26.64,32017.0,35101.1,0.0309,0.1009,145.0,98.0,0.48
26.66,31958.8,35034.0,-0.0487,0.0213,145.0,98.0,0.48
26.68,32020.1,34944.3,0.0352,-0.0851,145.0,98.0,0.48
26.7,31906.3,34782.8,-0.1204,-0.2767,145.0,98.0,0.48
26.72,31914.0,34650.0,-0.11,-0.4343,145.0,98.0,0.48
26.74,31879.6,34746.6,-0.1569,-0.3197,145.0,98.0,0.48
26.76,31881.7,34639.2,-0.1541,-0.4471,145.0,98.0,0.48
26.78,31895.7,34661.2,-0.1348,-0.4209,145.0,98.0,0.48
26.8,31813.9,34547.0,-0.2467,-0.5565,145.0,98.0,0.48
26.82,31723.4,34420.4,-0.3705,-0.7066,145.0,98.0,0.48
26.84,31795.1,34518.0,-0.2725,-0.5908,145.0,98.0,0.48
26.86,31867.3,34590.2,-0.1738,-0.5052,145.0,98.0,0.48
26.88,32011.5,34905.3,0.0234,-0.1314,145.0,98.0,0.48
26.9,32218.9,35331.9,0.3069,0.3747,145.0,98.0,0.48
26.92,32310.1,35608.3,0.4317,0.7026,145.0,98.0,0.48
26.94,32293.7,35765.7,0.4092,0.8893,145.0,98.0,0.48
26.96,32286.1,35574.1,0.3989,0.662,145.0,98.0,0.48
26.98,32273.3,35431.6,0.3814,0.493,145.0,98.0,0.48
27.0,32144.1,35332.0,0.2048,0.3748,145.0,98.0,0.48
27.02,32121.6,35227.9,0.1739,0.2513,145.0,98.0,0.48
27.04,31992.7,35114.3,-0.0023,0.1166,145.0,98.0,0.48
27.06,32066.5,35024.6,0.0986,0.0102,145.0,98.0,0.48
27.08,32085.8,35048.6,0.125,0.0386,145.0,98.0,0.48
27.1,31885.3,34875.9,-0.1491,-0.1663,145.0,98.0,0.48
27.12,31889.3,34806.0,-0.1436,-0.2492,145.0,98.0,0.48
27.14,31838.9,34627.5,-0.2125,-0.4609,145.0,98.0,0.48
27.16,31834.7,34594.1,-0.2183,-0.5006,145.0,98.0,0.48
27.18,31914.0,34705.4,-0.1098,-0.3685,145.0,98.0,0.48
27.2,31773.2,34599.0,-0.3023,-0.4947,145.0,98.0,0.48
27.22,31717.6,34536.3,-0.3784,-0.5691,145.0,98.0,0.48
27.24,31705.0,34486.8,-0.3957,-0.6278,145.0,98.0,0.48
27.26,31834.4,34495.4,-0.2187,-0.6177,145.0,98.0,0.48
27.28,31874.5,34644.6,-0.1639,-0.4407,145.0,98.0,0.48
27.3,32065.8,35075.5,0.0976,0.0705,145.0,98.0,0.48
27.32,32173.6,35514.3,0.245,0.591,145.0,98.0,0.48
27.34,32374.9,35729.4,0.5203,0.8463,145.0,98.0,0.48
27.36,32325.9,35793.7,0.4533,0.9225,145.0,98.0,0.48
27.38,32360.4,35572.3,0.5004,0.6599,145.0,98.0,0.48
27.4,32262.6,35538.4,0.3667,0.6197,145.0,98.0,0.48
27.42,32089.7,35266.8,0.1304,0.2975,145.0,98.0,0.48
27.44,32070.7,35120.5,0.1044,0.1239,145.0,98.0,0.48
27.46,32079.8,35148.6,0.1168,0.1573,145.0,98.0,0.48
27.48,32039.9,34958.9,0.0622,-0.0678,145.0,98.0,0.48
27.5,31888.9,34885.7,-0.1442,-0.1546,145.0,98.0,0.48
27.52,31822.4,34859.8,-0.2351,-0.1854,145.0,98.0,0.48
27.54,31858.1,34726.5,-0.1864,-0.3435,145.0,98.0,0.48
27.56,31944.7,34690.3,-0.068,-0.3864,145.0,98.0,0.48
27.58,31885.0,34665.0,-0.1496,-0.4165,145.0,98.0,0.48
27.6,31828.4,34637.3,-0.2269,-0.4493,145.0,98.0,0.48
27.62,31810.6,34658.9,-0.2513,-0.4237,145.0,98.0,0.48
27.64,31771.4,34574.3,-0.3049,-0.5241,145.0,98.0,0.48
27.66,31764.2,34429.9,-0.3147,-0.6953,145.0,98.0,0.48
27.68,31852.4,34623.0,-0.1941,-0.4663,145.0,98.0,0.48
27.7,32018.6,34659.1,0.0331,-0.4235,145.0,98.0,0.48
27.72,32007.3,35126.2,0.0177,0.1306,145.0,98.0,0.48
27.74,32198.6,35532.9,0.2792,0.6131,145.0,98.0,0.48
27.76,32292.8,35690.3,0.408,0.7998,145.0,98.0,0.48
27.78,32320.5,35717.7,0.4459,0.8324,145.0,98.0,0.48
27.8,32270.1,35614.3,0.3769,0.7097,145.0,98.0,0.48
27.82,32159.3,35414.1,0.2255,0.4721,145.0,98.0,0.48
27.84,32092.2,35137.2,0.1338,0.1437,145.0,98.0,0.48
27.86,31989.6,35148.3,-0.0066,0.1568,145.0,98.0,0.48
27.88,32013.3,35069.4,0.0259,0.0633,145.0,98.0,0.48
27.9,32011.5,35000.3,0.0234,-0.0187,145.0,98.0,0.48
27.92,32019.8,34898.4,0.0348,-0.1396,145.0,98.0,0.48
27.94,31962.1,34781.4,-0.0442,-0.2784,145.0,98.0,0.48
27.96,31868.4,34687.0,-0.1722,-0.3904,145.0,98.0,0.48
27.98,31860.4,34635.8,-0.1832,-0.4511,145.0,98.0,0.48
28.0,31851.2,34725.3,-0.1958,-0.3449,145.0,98.0,0.48
28.02,31906.8,34611.0,-0.1197,-0.4806,145.0,98.0,0.48
28.04,31716.2,34605.5,-0.3803,-0.487,145.0,98.0,0.48
28.06,31643.8,34537.9,-0.4793,-0.5672,145.0,98.0,0.48
28.08,31683.7,34488.3,-0.4247,-0.6261,145.0,98.0,0.48
28.1,31896.4,34654.6,-0.1339,-0.4288,145.0,98.0,0.48
28.12,31937.3,34837.5,-0.0781,-0.2119,145.0,98.0,0.48
28.14,32184.8,35327.5,0.2604,0.3694,145.0,98.0,0.48
28.16,32233.3,35601.8,0.3267,0.6949,145.0,98.0,0.48
28.18,32296.5,35764.0,0.4131,0.8873,145.0,98.0,0.48
28.2,32318.2,35757.9,0.4427,0.8801,145.0,98.0,0.48
28.22,32200.0,35521.3,0.2812,0.5994,145.0,98.0,0.48
28.24,32137.7,35283.8,0.196,0.3176,145.0,98.0,0.48
28.26,31990.4,35133.2,-0.0055,0.139,145.0,98.0,0.48
28.28,32105.2,35121.3,0.1515,0.1249,145.0,98.0,0.48
28.3,31954.1,35048.1,-0.055,0.038,145.0,98.0,0.48
28.32,31950.9,34990.7,-0.0594,-0.0301,145.0,98.0,0.48
28.34,31889.9,34908.0,-0.1429,-0.1281,145.0,98.0,0.48
28.36,31879.9,34759.9,-0.1565,-0.3039,145.0,98.0,0.48
28.38,31882.9,34724.7,-0.1524,-0.3456,145.0,98.0,0.48
28.4,31821.6,34654.8,-0.2362,-0.4285,145.0,98.0,0.48
28.42,31783.1,34702.3,-0.2888,-0.3722,145.0,98.0,0.48
28.44,31828.1,34607.9,-0.2273,-0.4841,145.0,98.0,0.48
28.46,31770.4,34504.5,-0.3062,-0.6069,145.0,98.0,0.48
28.48,31759.1,34532.3,-0.3217,-0.5738,145.0,98.0,0.48
28.5,31797.3,34462.1,-0.2695,-0.6572,145.0,98.0,0.48
28.52,31903.1,34785.3,-0.1248,-0.2738,145.0,98.0,0.48
28.54,32053.9,35068.6,0.0815,0.0623,145.0,98.0,0.48
28.56,32244.0,35362.8,0.3412,0.4113,145.0,98.0,0.48
28.58,32342.3,35648.2,0.4757,0.7499,145.0,98.0,0.48
28.6,32225.4,35741.3,0.3159,0.8604,145.0,98.0,0.48
28.62,32229.6,35707.5,0.3216,0.8202,145.0,98.0,0.48
28.64,32167.4,35438.4,0.2366,0.501,145.0,98.0,0.48
28.66,32126.1,35237.2,0.18,0.2624,145.0,98.0,0.48
28.68,32154.4,35196.5,0.2188,0.2141,145.0,98.0,0.48
28.7,32095.4,35084.9,0.1382,0.0817,145.0,98.0,0.48
28.72,31963.1,35099.7,-0.0427,0.0992,145.0,98.0,0.48
28.74,32009.2,34903.8,0.0203,-0.1331,145.0,98.0,0.48
28.76,31941.5,34887.1,-0.0723,-0.153,145.0,98.0,0.48
28.78,31761.9,34673.3,-0.3179,-0.4066,145.0,98.0,0.48
28.8,31865.6,34603.6,-0.176,-0.4893,145.0,98.0,0.48
28.82,31832.3,34655.9,-0.2215,-0.4272,145.0,98.0,0.48
28.84,31829.2,34562.4,-0.2258,-0.5381,145.0,98.0,0.48
28.86,31787.0,34585.0,-0.2835,-0.5114,145.0,98.0,0.48
28.88,31689.2,34556.3,-0.4173,-0.5453,145.0,98.0,0.48
28.9,31747.4,34431.2,-0.3377,-0.6937,145.0,98.0,0.48
28.92,31778.2,34529.3,-0.2956,-0.5774,145.0,98.0,0.48
28.94,32000.9,34856.8,0.009,-0.1889,145.0,98.0,0.48
28.96,32062.8,35167.0,0.0935,0.1791,145.0,98.0,0.48
28.98,32165.0,35555.5,0.2332,0.6399,145.0,98.0,0.48
29.0,32281.2,35793.6,0.3922,0.9224,145.0,98.0,0.48
29.02,32312.7,35705.5,0.4353,0.8179,145.0,98.0,0.48
29.04,32368.4,35687.4,0.5114,0.7964,145.0,98.0,0.48
29.06,32212.6,35424.5,0.2983,0.4845,145.0,98.0,0.48
29.08,32129.5,35163.8,0.1847,0.1753,145.0,98.0,0.48
29.1,32019.4,35239.2,0.0342,0.2647,145.0,98.0,0.48
29.12,31995.8,35063.7,0.002,0.0565,145.0,98.0,0.48
29.14,32016.7,35033.1,0.0306,0.0203,145.0,98.0,0.48
29.16,31932.0,34945.0,-0.0852,-0.0843,145.0,98.0,0.48
29.18,31846.1,34820.1,-0.2027,-0.2325,145.0,98.0,0.48
29.2,31862.0,34773.4,-0.1809,-0.2878,145.0,98.0,0.48
29.22,31852.1,34630.3,-0.1945,-0.4576,145.0,98.0,0.48
29.24,31932.1,34648.7,-0.0851,-0.4357,145.0,98.0,0.48
29.26,31859.7,34670.4,-0.1841,-0.41,145.0,98.0,0.48
29.28,31770.4,34481.3,-0.3062,-0.6343,145.0,98.0,0.48
29.3,31806.7,34365.2,-0.2566,-0.7721,145.0,98.0,0.48
29.32,31744.4,34496.5,-0.3417,-0.6163,145.0,98.0,0.48
29.34,31838.5,34658.9,-0.2132,-0.4236,145.0,98.0,0.48
29.36,32014.4,34890.8,0.0273,-0.1485,145.0,98.0,0.48
29.38,32114.1,35196.7,0.1637,0.2143,145.0,98.0,0.48
29.4,32269.7,35579.2,0.3765,0.6681,145.0,98.0,0.48
29.42,32303.9,35728.8,0.4232,0.8455,145.0,98.0,0.48
29.44,32250.4,35627.6,0.35,0.7255,145.0,98.0,0.48
29.46,32225.7,35463.7,0.3163,0.5311,145.0,98.0,0.48
29.48,32132.9,35314.7,0.1894,0.3543,145.0,98.0,0.48
29.5,32006.0,35187.0,0.0159,0.2028,145.0,98.0,0.48
29.52,32120.0,35011.6,0.1718,-0.0053,145.0,98.0,0.48
29.54,32014.8,35011.6,0.028,-0.0052,145.0,98.0,0.48
29.56,32028.2,34993.5,0.0463,-0.0267,145.0,98.0,0.48
29.58,31867.6,34892.2,-0.1733,-0.147,145.0,98.0,0.48
29.6,31915.8,34835.7,-0.1074,-0.214,145.0,98.0,0.48
29.62,31852.4,34789.5,-0.194,-0.2688,145.0,98.0,0.48
29.64,31864.7,34645.7,-0.1774,-0.4393,145.0,98.0,0.48
29.66,31853.1,34676.0,-0.1932,-0.4034,145.0,98.0,0.48
29.68,31866.0,34612.4,-0.1755,-0.4788,145.0,98.0,0.48
29.7,31782.8,34591.8,-0.2893,-0.5033,145.0,98.0,0.48
29.72,31828.3,34511.7,-0.227,-0.5983,145.0,98.0,0.48
29.74,31806.6,34508.2,-0.2567,-0.6024,145.0,98.0,0.48
29.76,31930.2,34688.7,-0.0878,-0.3883,145.0,98.0,0.48
29.78,31983.7,34962.8,-0.0146,-0.0632,145.0,98.0,0.48
29.8,32062.4,35379.4,0.093,0.431,145.0,98.0,0.48
29.82,32362.5,35657.5,0.5033,0.7609,145.0,98.0,0.48
29.84,32373.9,35773.0,0.5189,0.898,145.0,98.0,0.48
29.86,32315.8,35613.1,0.4395,0.7083,145.0,98.0,0.48
29.88,32135.2,35449.7,0.1925,0.5144,145.0,98.0,0.48
29.9,32100.6,35235.0,0.1452,0.2597,145.0,98.0,0.48
29.92,32009.7,35111.4,0.021,0.1131,145.0,98.0,0.48
29.94,32023.3,35065.4,0.0395,0.0585,145.0,98.0,0.48
29.96,32083.4,35068.2,0.1217,0.0618,145.0,98.0,0.48
29.98,31940.6,35005.0,-0.0735,-0.0131,145.0,98.0,0.48
30.0,33251.9,34004.4,1.7194,-1.2002,145.0,98.0,0.48
30.02,30199.8,37461.0,-2.4536,2.9004,145.0,98.0,0.48
30.04,33780.6,34771.8,2.4422,-0.2898,145.0,98.0,0.48
30.06,34053.4,37128.4,2.8151,2.5058,145.0,98.0,0.48
30.08,33398.4,37158.1,1.9196,2.541,145.0,98.0,0.48
30.1,33632.0,30950.4,2.239,-4.823,145.0,98.0,0.48
30.12,32928.6,35115.4,1.2773,0.1179,145.0,98.0,0.48
30.14,31596.8,35623.2,-0.5435,0.7203,145.0,98.0,0.48
30.16,30212.2,33849.1,-2.4367,-1.3843,145.0,98.0,0.48
30.18,30960.2,33907.9,-1.4139,-1.3146,145.0,98.0,0.48
30.2,33337.8,35673.3,1.8367,0.7797,145.0,98.0,0.48
30.22,30452.3,35561.9,-2.1084,0.6476,145.0,98.0,0.48
30.24,33599.0,37897.3,2.194,3.4179,145.0,98.0,0.48
30.26,29238.4,39660.2,-3.7681,5.5093,145.0,98.0,0.48
30.28,31976.9,38121.0,-0.0239,3.6834,145.0,98.0,0.48
30.3,36804.1,31539.3,6.576,-4.1244,145.0,98.0,0.48
30.32,29147.3,37483.5,-3.8926,2.9271,145.0,98.0,0.48
30.34,31645.4,36452.2,-0.4772,1.7036,145.0,98.0,0.48
30.36,32184.4,37067.0,0.2598,2.4331,145.0,98.0,0.48
30.38,30079.7,34529.7,-2.6178,-0.577,145.0,98.0,0.48
30.4,30762.1,30993.4,-1.6849,-4.772,145.0,98.0,0.48
30.42,34144.3,38452.3,2.9395,4.0764,145.0,98.0,0.48
30.44,33372.1,34141.1,1.8837,-1.0379,145.0,98.0,0.48
30.46,32522.8,35401.1,0.7225,0.4568,145.0,98.0,0.48
30.48,32508.0,34925.6,0.7023,-0.1073,145.0,98.0,0.48
30.5,32932.9,32957.2,1.2832,-2.4423,145.0,98.0,0.48
30.52,34674.5,34520.0,3.6643,-0.5885,145.0,98.0,0.48
30.54,34390.1,33641.2,3.2755,-1.6309,145.0,98.0,0.48
30.56,34663.0,33331.3,3.6487,-1.9985,145.0,98.0,0.48
30.58,30145.4,29980.1,-2.528,-5.9741,145.0,98.0,0.48
30.6,34274.3,35929.6,3.1173,1.0837,145.0,98.0,0.48
30.62,31623.2,34811.4,-0.5075,-0.2428,145.0,98.0,0.48
30.64,32450.9,34957.9,0.6241,-0.069,145.0,98.0,0.48
30.66,30959.2,35327.5,-1.4154,0.3695,145.0,98.0,0.48
30.68,30318.4,36027.0,-2.2915,1.1993,145.0,98.0,0.48
30.7,28383.9,33172.0,-4.9364,-2.1876,145.0,98.0,0.48
30.72,32659.8,35761.6,0.9098,0.8844,145.0,98.0,0.48
30.74,33260.3,36810.3,1.7308,2.1285,145.0,98.0,0.48
30.76,30088.1,38381.2,-2.6064,3.992,145.0,98.0,0.48
30.78,31172.7,33452.0,-1.1235,-1.8554,145.0,98.0,0.48
30.8,28551.1,37413.2,-4.7078,2.8437,145.0,98.0,0.48
30.82,31190.5,32993.8,-1.0991,-2.399,145.0,98.0,0.48
30.84,33544.3,36825.8,2.1191,2.1469,145.0,98.0,0.48
30.86,31545.1,33076.3,-0.6143,-2.3011,145.0,98.0,0.48
30.88,28613.9,39303.6,-4.622,5.0863,145.0,98.0,0.48
30.9,31936.4,32845.9,-0.0793,-2.5745,145.0,98.0,0.48
30.92,33356.6,35431.9,1.8625,0.4933,145.0,98.0,0.48
30.94,32257.8,34485.5,0.3602,-0.6294,145.0,98.0,0.48
30.96,33268.0,34050.2,1.7414,-1.1458,145.0,98.0,0.48
30.98,29765.2,32872.4,-3.0478,-2.543,145.0,98.0,0.48
31.0,35194.6,33743.9,4.3754,-1.5091,145.0,98.0,0.48
31.02,34209.2,33124.4,3.0283,-2.2441,145.0,98.0,0.48
31.04,32703.4,37325.9,0.9694,2.7401,145.0,98.0,0.48
31.06,32077.9,37973.9,0.1141,3.5089,145.0,98.0,0.48
31.08,31760.9,34144.6,-0.3192,-1.0337,145.0,98.0,0.48
31.1,28969.6,33081.9,-4.1356,-2.2945,145.0,98.0,0.48
31.12,33661.5,34338.7,2.2794,-0.8035,145.0,98.0,0.48
31.14,31696.9,33862.3,-0.4068,-1.3686,145.0,98.0,0.48
31.16,28768.3,34059.9,-4.4108,-1.1342,145.0,98.0,0.48
31.18,29283.1,33199.7,-3.707,-2.1547,145.0,98.0,0.48
31.2,31574.0,35889.2,-0.5748,1.0358,145.0,98.0,0.48
31.22,32843.8,36097.5,1.1614,1.2829,145.0,98.0,0.48
31.24,33013.4,36928.5,1.3933,2.2687,145.0,98.0,0.48
31.26,33640.7,34579.1,2.251,-0.5183,145.0,98.0,0.48
31.28,34521.4,32518.9,3.455,-2.9624,145.0,98.0,0.48
31.3,29201.8,36126.2,-3.8181,1.317,145.0,98.0,0.48
31.32,33659.2,33583.9,2.2762,-1.6989,145.0,98.0,0.48
31.34,29331.4,35328.8,-3.641,0.371,145.0,98.0,0.48
31.36,33077.9,37537.8,1.4815,2.9915,145.0,98.0,0.48
31.38,36029.7,30951.9,5.5172,-4.8213,145.0,98.0,0.48
31.4,30879.3,30946.4,-1.5246,-4.8278,145.0,98.0,0.48
31.42,36683.8,35753.3,6.4116,0.8746,145.0,98.0,0.48
31.44,32706.8,32968.5,0.974,-2.429,145.0,98.0,0.48
31.46,31513.0,34938.3,-0.6581,-0.0923,145.0,98.0,0.48
31.48,32672.5,37749.9,0.9272,3.2432,145.0,98.0,0.48
31.5,30677.1,37241.2,-1.8011,2.6396,145.0,98.0,0.48
31.52,36100.9,33151.5,5.6147,-2.2119,145.0,98.0,0.48
31.54,31502.1,35532.7,-0.673,0.6129,145.0,98.0,0.48
31.56,31460.1,33259.8,-0.7305,-2.0835,145.0,98.0,0.48
31.58,34157.0,34859.2,2.9569,-0.186,145.0,98.0,0.48
31.6,31029.9,38860.2,-1.3186,4.5602,145.0,98.0,0.48
31.62,31380.3,34930.8,-0.8396,-0.1012,145.0,98.0,0.48
31.64,29753.2,33604.6,-3.0643,-1.6744,145.0,98.0,0.48
31.66,32279.9,37857.2,0.3904,3.3704,145.0,98.0,0.48
31.68,31807.9,32649.5,-0.2549,-2.8074,145.0,98.0,0.48
31.7,35684.9,33189.0,5.0459,-2.1674,145.0,98.0,0.48
31.72,31089.2,36077.8,-1.2376,1.2595,145.0,98.0,0.48
31.74,29955.2,35835.8,-2.788,0.9724,145.0,98.0,0.48
31.76,31959.9,30732.4,-0.0471,-5.0816,145.0,98.0,0.48
31.78,30232.9,36786.3,-2.4084,2.1001,145.0,98.0,0.48
31.8,31800.2,35236.7,-0.2655,0.2618,145.0,98.0,0.48
31.82,31258.6,31388.5,-1.006,-4.3033,145.0,98.0,0.48
31.84,34529.5,32100.5,3.4662,-3.4587,145.0,98.0,0.48
31.86,34174.4,31976.4,2.9806,-3.6059,145.0,98.0,0.48
31.88,32446.7,33204.1,0.6184,-2.1495,145.0,98.0,0.48
31.9,30558.6,39628.0,-1.963,5.4711,145.0,98.0,0.48
31.92,29346.8,35411.1,-3.6198,0.4686,145.0,98.0,0.48
31.94,31541.3,35010.6,-0.6194,-0.0065,145.0,98.0,0.48
31.96,33100.7,37764.4,1.5126,3.2603,145.0,98.0,0.48
31.98,32359.4,35236.0,0.499,0.2609,145.0,98.0,0.48
32.0,31493.7,33849.5,-0.6845,-1.3839,145.0,98.0,0.48
32.02,32137.9,32266.6,0.1962,-3.2616,145.0,98.0,0.48
32.04,30596.5,34064.8,-1.9113,-1.1284,145.0,98.0,0.48
32.06,31219.5,36543.6,-1.0595,1.8121,145.0,98.0,0.48
32.08,31569.5,35358.9,-0.5808,0.4067,145.0,98.0,0.48
32.1,31296.6,35386.9,-0.954,0.44,145.0,98.0,0.48
32.12,31654.8,33651.4,-0.4643,-1.6188,145.0,98.0,0.48
32.14,32734.1,33470.8,1.0114,-1.8332,145.0,98.0,0.48
32.16,28772.8,33093.9,-4.4047,-2.2802,145.0,98.0,0.48
32.18,30895.9,33062.8,-1.5019,-2.3171,145.0,98.0,0.48
32.2,29382.9,38344.0,-3.5705,3.9478,145.0,98.0,0.48
32.22,31410.3,33551.5,-0.7986,-1.7373,145.0,98.0,0.48
32.24,34800.4,36986.0,3.8365,2.3369,145.0,98.0,0.48
32.26,32617.3,37763.9,0.8517,3.2598,145.0,98.0,0.48
32.28,31625.3,36114.1,-0.5046,1.3026,145.0,98.0,0.48
32.3,37664.7,38653.9,7.7527,4.3156,145.0,98.0,0.48
32.32,31243.1,34426.0,-1.0272,-0.7,145.0,98.0,0.48
32.34,34577.4,33907.8,3.5317,-1.3147,145.0,98.0,0.48
32.36,33187.7,37294.2,1.6316,2.7025,145.0,98.0,0.48
32.38,34049.1,35570.9,2.8093,0.6583,145.0,98.0,0.48
32.4,31984.0,37941.6,-0.0142,3.4705,145.0,98.0,0.48
32.42,31171.1,30849.4,-1.1256,-4.9428,145.0,98.0,0.48
32.44,34206.5,35200.5,3.0246,0.2188,145.0,98.0,0.48
32.46,34663.1,34254.1,3.6488,-0.9039,145.0,98.0,0.48
32.48,35101.4,35324.2,4.2481,0.3655,145.0,98.0,0.48
32.5,32224.2,31904.0,0.3142,-3.6918,145.0,98.0,0.48
32.52,31901.2,34732.8,-0.1274,-0.3361,145.0,98.0,0.48
32.54,31237.5,35936.7,-1.0348,1.0922,145.0,98.0,0.48
32.56,33688.0,33951.7,2.3157,-1.2627,145.0,98.0,0.48
32.58,32172.3,37938.6,0.2433,3.467,145.0,98.0,0.48
32.6,30868.5,33852.5,-1.5393,-1.3803,145.0,98.0,0.48
32.62,30068.4,33793.1,-2.6333,-1.4508,145.0,98.0,0.48
32.64,32215.6,38012.9,0.3024,3.5551,145.0,98.0,0.48
32.66,32116.7,38786.8,0.1672,4.4732,145.0,98.0,0.48
32.68,31280.5,34830.6,-0.9761,-0.22,145.0,98.0,0.48
32.7,31969.8,33299.2,-0.0335,-2.0367,145.0,98.0,0.48
32.72,33576.6,36042.1,2.1634,1.2172,145.0,98.0,0.48
32.74,34036.9,36598.9,2.7926,1.8778,145.0,98.0,0.48
32.76,30368.4,36226.9,-2.2232,1.4364,145.0,98.0,0.48
32.78,32388.5,36313.5,0.5389,1.5391,145.0,98.0,0.48
32.8,34609.9,36212.1,3.576,1.4189,145.0,98.0,0.48
32.82,32586.1,36335.1,0.8091,1.5647,145.0,98.0,0.48
32.84,33252.5,34607.4,1.7202,-0.4847,145.0,98.0,0.48
32.86,31551.2,36750.0,-0.6059,2.057,145.0,98.0,0.48
32.88,33913.4,31913.3,2.6237,-3.6807,145.0,98.0,0.48
32.9,30349.2,33739.0,-2.2493,-1.515,145.0,98.0,0.48
32.92,33024.7,34658.8,1.4087,-0.4238,145.0,98.0,0.48
32.94,33546.9,34264.6,2.1226,-0.8914,145.0,98.0,0.48
32.96,31742.4,34936.7,-0.3445,-0.0941,145.0,98.0,0.48
32.98,33248.5,32120.0,1.7147,-3.4356,145.0,98.0,0.48
33.0,31542.8,31609.4,-0.6174,-4.0412,145.0,98.0,0.48
33.02,31927.3,35125.8,-0.0917,0.1302,145.0,98.0,0.48
33.04,30801.1,36375.5,-1.6315,1.6127,145.0,98.0,0.48
33.06,36327.1,32920.1,5.9238,-2.4864,145.0,98.0,0.48
33.08,33953.9,36757.3,2.6792,2.0656,145.0,98.0,0.48
33.1,31396.0,31178.1,-0.8182,-4.553,145.0,98.0,0.48
33.12,31264.6,36045.4,-0.9978,1.221,145.0,98.0,0.48
33.14,33330.8,36475.9,1.8272,1.7318,145.0,98.0,0.48
33.16,31627.9,34499.3,-0.5011,-0.613,145.0,98.0,0.48
33.18,34192.5,36440.7,3.0054,1.69,145.0,98.0,0.48
33.2,34987.4,39704.7,4.0922,5.5621,145.0,98.0,0.48
33.22,31940.9,35502.2,-0.073,0.5767,145.0,98.0,0.48
33.24,32351.8,34858.7,0.4887,-0.1866,145.0,98.0,0.48
33.26,36339.2,35495.7,5.9405,0.569,145.0,98.0,0.48
33.28,30106.4,35294.5,-2.5814,0.3303,145.0,98.0,0.48
33.3,30583.4,36690.9,-1.9292,1.9868,145.0,98.0,0.48
33.32,32124.7,35806.0,0.1781,0.9371,145.0,98.0,0.48
33.34,31306.7,33719.1,-0.9403,-1.5386,145.0,98.0,0.48
33.36,34817.8,34494.4,3.8603,-0.6188,145.0,98.0,0.48
33.38,32628.6,35331.2,0.8671,0.3739,145.0,98.0,0.48
33.4,32782.8,34417.0,1.078,-0.7106,145.0,98.0,0.48
33.42,30387.5,35666.1,-2.1969,0.7711,145.0,98.0,0.48
33.44,33704.7,35717.2,2.3384,0.8318,145.0,98.0,0.48
33.46,32497.4,33013.3,0.6877,-2.3759,145.0,98.0,0.48
33.48,30938.9,34931.9,-1.4431,-0.0998,145.0,98.0,0.48
33.5,30468.3,37436.7,-2.0865,2.8716,145.0,98.0,0.48
33.52,30731.1,35561.7,-1.7272,0.6473,145.0,98.0,0.48
33.54,32651.7,33572.5,0.8987,-1.7125,145.0,98.0,0.48
33.56,34666.6,32554.4,3.6536,-2.9202,145.0,98.0,0.48
33.58,30570.1,37900.4,-1.9474,3.4217,145.0,98.0,0.48
33.6,31606.4,33810.5,-0.5305,-1.4302,145.0,98.0,0.48
33.62,29106.5,36326.0,-3.9484,1.554,145.0,98.0,0.48
33.64,30237.0,34145.0,-2.4028,-1.0334,145.0,98.0,0.48
33.66,31411.0,35738.4,-0.7976,0.8569,145.0,98.0,0.48
33.68,32768.2,37896.1,1.0581,3.4166,145.0,98.0,0.48
33.7,28832.2,36094.5,-4.3235,1.2794,145.0,98.0,0.48
33.72,32828.3,34613.0,1.1402,-0.4781,145.0,98.0,0.48
33.74,30114.4,36004.0,-2.5703,1.172,145.0,98.0,0.48
33.76,35151.0,34602.6,4.3159,-0.4904,145.0,98.0,0.48
33.78,33021.7,30119.2,1.4046,-5.8091,145.0,98.0,0.48
33.8,32360.6,35815.6,0.5007,0.9485,145.0,98.0,0.48
33.82,33910.7,34946.8,2.62,-0.0822,145.0,98.0,0.48
33.84,31553.2,37086.4,-0.6032,2.456,145.0,98.0,0.48
33.86,31348.2,32689.9,-0.8834,-2.7595,145.0,98.0,0.48
33.88,29728.2,32627.5,-3.0984,-2.8335,145.0,98.0,0.48
33.9,31414.2,36265.4,-0.7932,1.482,145.0,98.0,0.48
33.92,32446.9,37884.6,0.6187,3.4029,145.0,98.0,0.48
33.94,32009.9,35643.0,0.0213,0.7437,145.0,98.0,0.48
33.96,34367.0,35198.4,3.2439,0.2163,145.0,98.0,0.48
33.98,35846.4,33352.0,5.2667,-1.974,145.0,98.0,0.48
34.0,33991.9,34184.6,2.7311,-0.9863,145.0,98.0,0.48
34.02,32328.7,37867.3,0.4571,3.3825,145.0,98.0,0.48
34.04,33303.1,36613.2,1.7894,1.8947,145.0,98.0,0.48
34.06,32589.7,32580.7,0.8139,-2.889,145.0,98.0,0.48
34.08,32756.4,34717.5,1.0418,-0.3542,145.0,98.0,0.48
34.1,26862.1,33974.8,-7.017,-1.2352,145.0,98.0,0.48
34.12,29778.0,33412.7,-3.0303,-1.902,145.0,98.0,0.48
34.14,29339.8,34489.0,-3.6295,-0.6253,145.0,98.0,0.48
34.16,31129.3,34122.1,-1.1827,-1.0605,145.0,98.0,0.48
34.18,33056.9,35692.7,1.4528,0.8027,145.0,98.0,0.48
34.2,32627.9,32531.9,0.8661,-2.9469,145.0,98.0,0.48
34.22,33817.8,32166.7,2.4931,-3.3801,145.0,98.0,0.48
34.24,29571.4,35670.7,-3.3128,0.7766,145.0,98.0,0.48
34.26,34893.4,37145.4,3.9637,2.526,145.0,98.0,0.48
34.28,30726.4,33904.6,-1.7336,-1.3185,145.0,98.0,0.48
34.3,30048.7,33553.7,-2.6601,-1.7347,145.0,98.0,0.48
34.32,28788.4,36256.7,-4.3834,1.4718,145.0,98.0,0.48
34.34,30224.4,36178.5,-2.42,1.379,145.0,98.0,0.48
34.36,27073.6,35687.0,-6.728,0.7959,145.0,98.0,0.48
34.38,34369.1,39146.8,3.2468,4.9003,145.0,98.0,0.48
34.4,34875.5,36086.3,3.9392,1.2696,145.0,98.0,0.48
34.42,31939.1,39168.4,-0.0756,4.9259,145.0,98.0,0.48
34.44,33499.3,38246.9,2.0576,3.8327,145.0,98.0,0.48
34.46,28979.3,36171.1,-4.1223,1.3702,145.0,98.0,0.48
34.48,33511.5,34004.6,2.0742,-1.1998,145.0,98.0,0.48
34.5,32452.1,34958.8,0.6258,-0.0679,145.0,98.0,0.48
34.52,30903.6,34163.8,-1.4914,-1.0111,145.0,98.0,0.48
34.54,31856.5,34413.2,-0.1885,-0.7151,145.0,98.0,0.48
34.56,27607.2,36805.1,-5.9984,2.1223,145.0,98.0,0.48
34.58,30679.3,36727.1,-1.798,2.0298,145.0,98.0,0.48
34.6,31739.4,35737.5,-0.3486,0.8558,145.0,98.0,0.48
34.62,32879.7,33006.0,1.2105,-2.3845,145.0,98.0,0.48
34.64,31116.7,36174.4,-1.2,1.3741,145.0,98.0,0.48
34.66,28952.4,36388.4,-4.1591,1.628,145.0,98.0,0.48
34.68,31962.4,30548.5,-0.0438,-5.2998,145.0,98.0,0.48
34.7,32398.8,30904.6,0.5529,-4.8773,145.0,98.0,0.48
34.72,29826.2,34489.4,-2.9645,-0.6248,145.0,98.0,0.48
34.74,30626.1,34223.8,-1.8708,-0.9398,145.0,98.0,0.48
34.76,30936.2,36664.4,-1.4467,1.9554,145.0,98.0,0.48
34.78,32334.4,34688.8,0.4649,-0.3882,145.0,98.0,0.48
34.8,33111.4,32245.1,1.5273,-3.2872,145.0,98.0,0.48
34.82,34504.6,36811.3,3.4321,2.1297,145.0,98.0,0.48
34.84,31667.3,36998.3,-0.4472,2.3515,145.0,98.0,0.48
34.86,33657.3,34087.7,2.2736,-1.1013,145.0,98.0,0.48
34.88,33626.3,37778.0,2.2312,3.2765,145.0,98.0,0.48
34.9,31728.1,36577.2,-0.3641,1.8519,145.0,98.0,0.48
34.92,33815.1,38808.8,2.4894,4.4993,145.0,98.0,0.48
34.94,30168.4,33365.6,-2.4965,-1.958,145.0,98.0,0.48
34.96,30810.8,31234.6,-1.6182,-4.4859,145.0,98.0,0.48
34.98,35541.3,32126.1,4.8495,-3.4283,145.0,98.0,0.48
35.0,31761.4,37758.3,-0.3185,3.2531,145.0,98.0,0.48
35.02,32540.2,34810.9,0.7463,-0.2434,145.0,98.0,0.48
35.04,33711.0,37129.6,2.3471,2.5073,145.0,98.0,0.48
35.06,28058.0,32222.7,-5.382,-3.3137,145.0,98.0,0.48
35.08,32053.7,33198.8,0.0812,-2.1557,145.0,98.0,0.48
35.1,31133.3,33100.9,-1.1772,-2.2719,145.0,98.0,0.48
35.12,26274.7,33415.5,-7.8202,-1.8987,145.0,98.0,0.48
35.14,29969.0,35186.1,-2.7692,0.2017,145.0,98.0,0.48
35.16,32579.2,32105.3,0.7996,-3.453,145.0,98.0,0.48
35.18,29195.2,37043.4,-3.8271,2.405,145.0,98.0,0.48
35.2,34687.6,33689.3,3.6823,-1.5739,145.0,98.0,0.48
35.22,36242.2,33589.4,5.8078,-1.6925,145.0,98.0,0.48
35.24,31394.2,36544.0,-0.8205,1.8126,145.0,98.0,0.48
35.26,32058.4,36162.6,0.0875,1.3602,145.0,98.0,0.48
35.28,35890.3,39452.6,5.3267,5.2631,145.0,98.0,0.48
35.3,31053.7,34934.6,-1.2861,-0.0966,145.0,98.0,0.48
35.32,30205.1,35866.9,-2.4463,1.0093,145.0,98.0,0.48
35.34,33126.6,38174.9,1.548,3.7473,145.0,98.0,0.48
35.36,34778.6,38807.3,3.8068,4.4975,145.0,98.0,0.48
35.38,28866.1,36516.7,-4.2772,1.7802,145.0,98.0,0.48
35.4,33300.1,32618.4,1.7852,-2.8443,145.0,98.0,0.48
35.42,31349.1,32569.4,-0.8823,-2.9024,145.0,98.0,0.48
35.44,29641.9,36443.2,-3.2165,1.693,145.0,98.0,0.48
35.46,32183.9,34211.4,0.2592,-0.9545,145.0,98.0,0.48
35.48,30525.8,35036.6,-2.0079,0.0243,145.0,98.0,0.48
35.5,31044.4,33180.6,-1.2989,-2.1773,145.0,98.0,0.48
35.52,29690.0,32990.6,-3.1506,-2.4028,145.0,98.0,0.48
35.54,30680.7,33977.2,-1.7961,-1.2324,145.0,98.0,0.48
35.56,35860.7,37806.4,5.2862,3.3101,145.0,98.0,0.48
35.58,35881.7,35229.5,5.315,0.2532,145.0,98.0,0.48
35.6,30777.2,35999.8,-1.6642,1.167,145.0,98.0,0.48
35.62,30140.9,35148.0,-2.5342,0.1565,145.0,98.0,0.48
35.64,34727.8,31893.2,3.7372,-3.7046,145.0,98.0,0.48
35.66,34308.2,36036.7,3.1636,1.2108,145.0,98.0,0.48
35.68,28654.3,37288.8,-4.5667,2.6961,145.0,98.0,0.48
35.7,31825.3,38154.9,-0.2312,3.7236,145.0,98.0,0.48
35.72,29089.8,35153.7,-3.9713,0.1633,145.0,98.0,0.48
35.74,31705.9,37116.5,-0.3944,2.4918,145.0,98.0,0.48
35.76,34870.0,34522.8,3.9317,-0.5852,145.0,98.0,0.48
35.78,34746.9,37422.8,3.7633,2.8552,145.0,98.0,0.48
35.8,34833.1,33282.2,3.8812,-2.0568,145.0,98.0,0.48
35.82,32121.2,30991.2,0.1734,-4.7746,145.0,98.0,0.48
35.84,32918.4,33698.0,1.2634,-1.5636,145.0,98.0,0.48
35.86,31805.5,39412.1,-0.2583,5.215,145.0,98.0,0.48
35.88,33125.1,33597.8,1.546,-1.6825,145.0,98.0,0.48
35.9,29952.6,35033.3,-2.7916,0.0204,145.0,98.0,0.48
35.92,33202.0,35453.0,1.6511,0.5183,145.0,98.0,0.48
35.94,32744.6,36466.8,1.0258,1.721,145.0,98.0,0.48
35.96,33288.1,30237.6,1.7688,-5.6686,145.0,98.0,0.48
35.98,31520.5,35843.3,-0.6479,0.9813,145.0,98.0,0.48
36.0,32876.9,37039.2,1.2066,2.4001,145.0,98.0,0.48
36.02,34535.0,34629.7,3.4737,-0.4583,145.0,98.0,0.48
36.04,32712.6,31529.9,0.9821,-4.1355,145.0,98.0,0.48
36.06,31162.3,36370.4,-1.1376,1.6066,145.0,98.0,0.48
36.08,27972.2,32299.6,-5.4993,-3.2225,145.0,98.0,0.48
36.1,28078.7,35447.7,-5.3536,0.5121,145.0,98.0,0.48
36.12,33953.7,34379.4,2.6789,-0.7552,145.0,98.0,0.48
36.14,33422.4,37375.8,1.9525,2.7993,145.0,98.0,0.48
36.16,31036.5,33024.6,-1.3096,-2.3624,145.0,98.0,0.48
36.18,35070.9,34106.3,4.2064,-1.0792,145.0,98.0,0.48
36.2,30342.9,36483.1,-2.258,1.7404,145.0,98.0,0.48
36.22,31315.4,32269.9,-0.9283,-3.2577,145.0,98.0,0.48
36.24,28389.7,38641.1,-4.9284,4.3003,145.0,98.0,0.48
36.26,30787.9,35260.5,-1.6495,0.29,145.0,98.0,0.48
36.28,31265.1,34138.0,-0.9971,-1.0417,145.0,98.0,0.48
36.3,33407.5,34295.7,1.9322,-0.8546,145.0,98.0,0.48
36.32,33950.3,32137.0,2.6743,-3.4154,145.0,98.0,0.48
36.34,31627.1,35518.5,-0.5021,0.596,145.0,98.0,0.48
36.36,30284.5,37966.7,-2.3378,3.5003,145.0,98.0,0.48
36.38,26633.5,37330.3,-7.3296,2.7454,145.0,98.0,0.48
36.4,28749.6,36319.5,-4.4364,1.5463,145.0,98.0,0.48
36.42,30850.7,34884.5,-1.5636,-0.1561,145.0,98.0,0.48
36.44,33738.4,35548.8,2.3846,0.632,145.0,98.0,0.48
36.46,30191.4,33377.9,-2.4652,-1.9433,145.0,98.0,0.48
36.48,32216.3,34602.7,0.3034,-0.4904,145.0,98.0,0.48
36.5,28939.5,32640.8,-4.1767,-2.8177,145.0,98.0,0.48
36.52,34795.8,39133.9,3.8303,4.8849,145.0,98.0,0.48
36.54,30720.5,32263.7,-1.7416,-3.2651,145.0,98.0,0.48
36.56,36970.9,34024.7,6.8041,-1.176,145.0,98.0,0.48
36.58,30792.7,33373.5,-1.643,-1.9485,145.0,98.0,0.48
36.6,31962.8,35340.7,-0.0431,0.3852,145.0,98.0,0.48
36.62,30733.7,35880.7,-1.7236,1.0257,145.0,98.0,0.48
36.64,32605.0,36779.0,0.8348,2.0913,145.0,98.0,0.48
36.66,29006.6,35206.8,-4.085,0.2263,145.0,98.0,0.48
36.68,31982.7,36629.7,-0.016,1.9143,145.0,98.0,0.48
36.7,35172.2,32660.5,4.3448,-2.7943,145.0,98.0,0.48
36.72,32148.1,35151.6,0.2102,0.1608,145.0,98.0,0.48
36.74,31683.0,35532.9,-0.4257,0.6131,145.0,98.0,0.48
36.76,30886.9,35232.6,-1.5142,0.2568,145.0,98.0,0.48
36.78,33133.8,33540.7,1.5578,-1.7502,145.0,98.0,0.48
36.8,32612.1,34859.7,0.8445,-0.1855,145.0,98.0,0.48
36.82,33159.6,31999.5,1.5932,-3.5786,145.0,98.0,0.48
36.84,32311.8,35922.9,0.434,1.0758,145.0,98.0,0.48
36.86,35028.6,36907.4,4.1485,2.2437,145.0,98.0,0.48
36.88,30380.2,39013.7,-2.2069,4.7424,145.0,98.0,0.48
36.9,34542.4,36960.6,3.4837,2.3068,145.0,98.0,0.48
36.92,33901.3,34810.8,2.6073,-0.2435,145.0,98.0,0.48
36.94,33875.5,33167.4,2.5719,-2.1931,145.0,98.0,0.48
36.96,30898.1,34513.5,-1.4989,-0.5962,145.0,98.0,0.48
36.98,35002.8,32664.0,4.1132,-2.7902,145.0,98.0,0.48
37.0,32145.0,40796.7,0.2059,6.8576,145.0,98.0,0.48
37.02,31830.4,34159.2,-0.2243,-1.0165,145.0,98.0,0.48
37.04,31072.6,36076.3,-1.2603,1.2577,145.0,98.0,0.48
37.06,30212.3,41133.9,-2.4365,7.2575,145.0,98.0,0.48
37.08,30518.7,36949.7,-2.0177,2.2938,145.0,98.0,0.48
37.1,31160.6,33422.5,-1.14,-1.8905,145.0,98.0,0.48
37.12,29942.6,32034.7,-2.8053,-3.5367,145.0,98.0,0.48
37.14,32602.0,30200.9,0.8308,-5.7122,145.0,98.0,0.48
37.16,32476.0,35795.2,0.6586,0.9243,145.0,98.0,0.48
37.18,32846.3,34483.3,1.1648,-0.632,145.0,98.0,0.48
37.2,28684.5,33311.4,-4.5253,-2.0222,145.0,98.0,0.48
37.22,30736.7,35830.3,-1.7195,0.9659,145.0,98.0,0.48
37.24,34083.1,36406.2,2.8559,1.6491,145.0,98.0,0.48
37.26,33085.7,35157.8,1.4921,0.1682,145.0,98.0,0.48
37.28,30105.8,35494.2,-2.5821,0.5672,145.0,98.0,0.48
37.3,31037.5,34096.4,-1.3083,-1.091,145.0,98.0,0.48
37.32,33013.0,37034.1,1.3927,2.394,145.0,98.0,0.48
37.34,32747.9,36225.4,1.0303,1.4347,145.0,98.0,0.48
37.36,33198.5,40002.2,1.6463,5.9151,145.0,98.0,0.48
37.38,33413.2,35657.6,1.9399,0.761,145.0,98.0,0.48
37.4,32217.3,37318.8,0.3048,2.7317,145.0,98.0,0.48
37.42,32792.5,35801.0,1.0913,0.9312,145.0,98.0,0.48
37.44,31390.9,36659.3,-0.8251,1.9493,145.0,98.0,0.48
37.46,36023.8,38105.4,5.5093,3.6648,145.0,98.0,0.48
37.48,32546.3,33545.8,0.7546,-1.7441,145.0,98.0,0.48
37.5,30381.5,34631.8,-2.2052,-0.4558,145.0,98.0,0.48
37.52,29147.1,33406.4,-3.8929,-1.9095,145.0,98.0,0.48
37.54,32496.7,36240.4,0.6869,1.4524,145.0,98.0,0.48
37.56,30199.2,32019.2,-2.4545,-3.5552,145.0,98.0,0.48
37.58,32247.2,30766.9,0.3457,-5.0407,145.0,98.0,0.48
37.6,36054.8,34523.9,5.5516,-0.5838,145.0,98.0,0.48
37.62,30328.3,33342.9,-2.2779,-1.9848,145.0,98.0,0.48
37.64,31085.3,33984.3,-1.2429,-1.2239,145.0,98.0,0.48
37.66,29351.0,35291.9,-3.6141,0.3272,145.0,98.0,0.48
37.68,35879.7,36970.5,5.3122,2.3185,145.0,98.0,0.48
37.7,35188.1,39508.4,4.3666,5.3292,145.0,98.0,0.48
37.72,31247.4,35056.8,-1.0214,0.0484,145.0,98.0,0.48
37.74,29470.1,39143.4,-3.4513,4.8962,145.0,98.0,0.48
37.76,31904.2,37942.2,-0.1234,3.4712,145.0,98.0,0.48
37.78,33237.9,37057.1,1.7002,2.4212,145.0,98.0,0.48
37.8,31910.8,33064.1,-0.1142,-2.3155,145.0,98.0,0.48
37.82,31138.7,31513.6,-1.1699,-4.1549,145.0,98.0,0.48
37.84,33066.2,34452.4,1.4655,-0.6686,145.0,98.0,0.48
37.86,30240.2,34549.4,-2.3983,-0.5535,145.0,98.0,0.48
37.88,31434.7,31298.4,-0.7652,-4.4102,145.0,98.0,0.48
37.9,33691.6,36100.8,2.3205,1.2868,145.0,98.0,0.48
37.92,33614.0,33270.8,2.2145,-2.0703,145.0,98.0,0.48
37.94,30918.6,31854.9,-1.4709,-3.75,145.0,98.0,0.48
37.96,33179.9,34868.6,1.621,-0.1749,145.0,98.0,0.48
37.98,30961.7,31839.3,-1.4119,-3.7685,145.0,98.0,0.48
38.0,31838.1,31671.4,-0.2137,-3.9677,145.0,98.0,0.48
38.02,34481.5,34159.6,3.4005,-1.016,145.0,98.0,0.48
38.04,31419.4,33323.6,-0.7862,-2.0077,145.0,98.0,0.48
38.06,30141.5,31597.0,-2.5333,-4.0559,145.0,98.0,0.48
38.08,26941.1,38770.4,-6.9091,4.4538,145.0,98.0,0.48
38.1,35247.3,38369.9,4.4476,3.9787,145.0,98.0,0.48
38.12,31680.5,34373.5,-0.4292,-0.7623,145.0,98.0,0.48
38.14,32171.6,35974.5,0.2423,1.137,145.0,98.0,0.48
38.16,30923.3,34190.6,-1.4644,-0.9792,145.0,98.0,0.48
38.18,33275.5,35976.2,1.7516,1.1391,145.0,98.0,0.48
38.2,33203.9,32910.8,1.6538,-2.4974,145.0,98.0,0.48
38.22,30902.5,34027.1,-1.4929,-1.1732,145.0,98.0,0.48
38.24,34565.8,38637.4,3.5158,4.296,145.0,98.0,0.48
38.26,31950.1,32401.3,-0.0605,-3.1019,145.0,98.0,0.48
38.28,29307.3,38874.4,-3.6739,4.5771,145.0,98.0,0.48
38.3,27971.8,36349.5,-5.4998,1.5819,145.0,98.0,0.48
38.32,27639.5,35867.6,-5.9541,1.0102,145.0,98.0,0.48
38.34,32327.3,36474.2,0.4552,1.7298,145.0,98.0,0.48
38.36,33691.0,38319.2,2.3197,3.9185,145.0,98.0,0.48
38.38,32049.8,32194.2,0.0758,-3.3476,145.0,98.0,0.48
38.4,35608.8,35358.1,4.9417,0.4058,145.0,98.0,0.48
38.42,29127.2,31094.5,-3.9202,-4.6521,145.0,98.0,0.48
38.44,32007.7,33092.1,0.0182,-2.2824,145.0,98.0,0.48
38.46,30144.1,36355.6,-2.5298,1.589,145.0,98.0,0.48
38.48,33259.3,34868.7,1.7295,-0.1749,145.0,98.0,0.48
38.5,32045.2,35188.6,0.0694,0.2047,145.0,98.0,0.48
38.52,33022.3,35696.5,1.4054,0.8072,145.0,98.0,0.48
38.54,30433.4,31760.9,-2.1343,-3.8615,145.0,98.0,0.48
38.56,32738.2,37721.6,1.0169,3.2096,145.0,98.0,0.48
38.58,31679.3,34712.6,-0.4308,-0.36,145.0,98.0,0.48
38.6,30500.2,38056.7,-2.043,3.6071,145.0,98.0,0.48
38.62,32744.0,34019.5,1.0249,-1.1822,145.0,98.0,0.48
38.64,28862.7,34192.1,-4.2818,-0.9775,145.0,98.0,0.48
38.66,30635.1,38617.0,-1.8584,4.2718,145.0,98.0,0.48
38.68,31460.3,35393.5,-0.7302,0.4478,145.0,98.0,0.48
38.7,33782.1,35983.5,2.4442,1.1477,145.0,98.0,0.48
38.72,30735.6,36911.0,-1.721,2.248,145.0,98.0,0.48
38.74,32431.7,31663.9,0.5979,-3.9767,145.0,98.0,0.48
38.76,28951.8,36659.1,-4.1599,1.9491,145.0,98.0,0.48
38.78,30842.5,34968.6,-1.575,-0.0563,145.0,98.0,0.48
38.8,34499.6,37351.5,3.4253,2.7705,145.0,98.0,0.48
38.82,31056.6,33701.9,-1.2821,-1.559,145.0,98.0,0.48
38.84,31704.8,36640.0,-0.3959,1.9264,145.0,98.0,0.48
38.86,29199.5,35091.8,-3.8212,0.0898,145.0,98.0,0.48
38.88,32413.7,36185.8,0.5733,1.3877,145.0,98.0,0.48
38.9,33993.8,37399.2,2.7338,2.8271,145.0,98.0,0.48
38.92,31340.9,35050.9,-0.8935,0.0413,145.0,98.0,0.48
38.94,29414.2,38565.5,-3.5277,4.2107,145.0,98.0,0.48
38.96,30089.2,33957.6,-2.6048,-1.2556,145.0,98.0,0.48
38.98,30188.5,34978.7,-2.4691,-0.0443,145.0,98.0,0.48
39.0,30914.3,33801.5,-1.4768,-1.4408,145.0,98.0,0.48
39.02,35359.8,33855.2,4.6014,-1.3771,145.0,98.0,0.48
39.04,31191.3,34341.0,-1.098,-0.8008,145.0,98.0,0.48
39.06,26990.1,35657.0,-6.842,0.7604,145.0,98.0,0.48
39.08,31446.6,39692.8,-0.7489,5.5479,145.0,98.0,0.48
39.1,33078.7,35925.2,1.4826,1.0785,145.0,98.0,0.48
39.12,27864.1,32451.6,-5.6471,-3.0422,145.0,98.0,0.48
39.14,29021.6,35671.2,-4.0645,0.7772,145.0,98.0,0.48
39.16,31867.1,34168.0,-0.174,-1.006,145.0,98.0,0.48
39.18,34711.4,36469.1,3.7148,1.7238,145.0,98.0,0.48
39.2,34186.8,33826.4,2.9975,-1.4113,145.0,98.0,0.48
39.22,32687.6,39339.9,0.9478,5.1294,145.0,98.0,0.48
39.24,34959.8,34734.9,4.0544,-0.3335,145.0,98.0,0.48
39.26,31696.9,34557.3,-0.4067,-0.5442,145.0,98.0,0.48
39.28,34024.7,33402.8,2.776,-1.9138,145.0,98.0,0.48
39.3,31282.8,38389.3,-0.9729,4.0016,145.0,98.0,0.48
39.32,36239.5,35361.0,5.8041,0.4092,145.0,98.0,0.48
39.34,31462.8,34678.4,-0.7268,-0.4006,145.0,98.0,0.48
39.36,31905.9,35122.2,-0.121,0.1259,145.0,98.0,0.48
39.38,36587.5,36878.9,6.2799,2.2099,145.0,98.0,0.48
39.4,33750.2,37391.5,2.4007,2.818,145.0,98.0,0.48
39.42,35123.9,34944.9,4.2788,-0.0844,145.0,98.0,0.48
39.44,31286.9,34360.4,-0.9673,-0.7778,145.0,98.0,0.48
39.46,32026.1,38034.4,0.0434,3.5806,145.0,98.0,0.48
39.48,31740.9,33132.0,-0.3465,-2.235,145.0,98.0,0.48
39.5,32155.4,33097.0,0.2201,-2.2766,145.0,98.0,0.48
39.52,31070.9,35396.1,-1.2627,0.4508,145.0,98.0,0.48
39.54,31776.7,35614.8,-0.2976,0.7103,145.0,98.0,0.48
39.56,35575.7,34970.9,4.8965,-0.0536,145.0,98.0,0.48
39.58,29171.7,33018.4,-3.8593,-2.3698,145.0,98.0,0.48
39.6,32571.8,36507.9,0.7894,1.7698,145.0,98.0,0.48
39.62,33889.9,33009.6,2.5917,-2.3802,145.0,98.0,0.48
39.64,27846.5,32921.4,-5.6712,-2.4849,145.0,98.0,0.48
39.66,35820.7,34147.2,5.2316,-1.0307,145.0,98.0,0.48
39.68,33908.8,32511.6,2.6174,-2.971,145.0,98.0,0.48
39.7,29635.0,37766.9,-3.2258,3.2633,145.0,98.0,0.48
39.72,29678.5,37423.1,-3.1664,2.8554,145.0,98.0,0.48
39.74,31738.9,36322.5,-0.3492,1.5498,145.0,98.0,0.48
39.76,32736.7,37202.4,1.0149,2.5936,145.0,98.0,0.48
39.78,33302.3,37933.4,1.7883,3.4609,145.0,98.0,0.48
39.8,33786.9,40402.0,2.4508,6.3892,145.0,98.0,0.48
39.82,37065.6,35419.2,6.9336,0.4783,145.0,98.0,0.48
39.84,31410.4,34688.2,-0.7985,-0.389,145.0,98.0,0.48
39.86,35482.3,39046.2,4.7688,4.781,145.0,98.0,0.48
39.88,28686.5,37259.2,-4.5227,2.661,145.0,98.0,0.48
39.9,31122.0,32974.6,-1.1927,-2.4218,145.0,98.0,0.48
39.92,34950.9,32510.4,4.0424,-2.9724,145.0,98.0,0.48
39.94,32489.0,32281.5,0.6763,-3.244,145.0,98.0,0.48
39.96,32668.7,32643.8,0.922,-2.8141,145.0,98.0,0.48
39.98,32273.2,33016.5,0.3812,-2.372,145.0,98.0,0.48
40.0,31113.9,34230.1,-1.2039,-0.9324,145.0,98.0,0.48
40.02,33046.7,33107.1,1.4388,-2.2646,145.0,98.0,0.48
40.04,31561.8,32174.3,-0.5914,-3.3711,145.0,98.0,0.48
40.06,28664.7,33569.5,-4.5525,-1.716,145.0,98.0,0.48
40.08,31598.8,32412.7,-0.5409,-3.0883,145.0,98.0,0.48
40.1,32565.2,32818.3,0.7804,-2.6072,145.0,98.0,0.48
40.12,30441.3,34561.5,-2.1235,-0.5392,145.0,98.0,0.48
40.14,30916.9,36112.0,-1.4732,1.3002,145.0,98.0,0.48
40.16,32821.9,37394.8,1.1314,2.8219,145.0,98.0,0.48
40.18,34025.0,35799.5,2.7764,0.9294,145.0,98.0,0.48
40.2,33103.5,34725.4,1.5164,-0.3448,145.0,98.0,0.48
40.22,33174.6,37559.2,1.6136,3.0169,145.0,98.0,0.48
40.24,30359.1,33570.2,-2.2358,-1.7152,145.0,98.0,0.48
40.26,32113.8,32632.2,0.1633,-2.8279,145.0,98.0,0.48
40.28,32434.1,38751.2,0.6012,4.431,145.0,98.0,0.48
40.3,29581.8,32776.9,-3.2986,-2.6563,145.0,98.0,0.48
40.32,30613.9,35356.8,-1.8874,0.4042,145.0,98.0,0.48
40.34,30595.6,39475.2,-1.9124,5.2899,145.0,98.0,0.48
40.36,30824.7,34064.4,-1.5992,-1.1289,145.0,98.0,0.48
40.38,28332.4,36817.4,-5.0069,2.1369,145.0,98.0,0.48
40.4,27875.8,34002.5,-5.6311,-1.2024,145.0,98.0,0.48
40.42,32109.0,34378.4,0.1567,-0.7565,145.0,98.0,0.48
40.44,26692.4,32817.0,-7.2492,-2.6087,145.0,98.0,0.48
40.46,30753.3,31005.2,-1.6969,-4.758,145.0,98.0,0.48
40.48,36026.9,36713.4,5.5134,2.0136,145.0,98.0,0.48
40.5,31312.0,33673.8,-0.9329,-1.5923,145.0,98.0,0.48
40.52,30841.4,35564.5,-1.5763,0.6506,145.0,98.0,0.48
40.54,31740.2,34360.8,-0.3475,-0.7773,145.0,98.0,0.48
40.56,33399.0,34510.0,1.9205,-0.6003,145.0,98.0,0.48
40.58,32004.1,36240.7,0.0133,1.4528,145.0,98.0,0.48
40.6,31102.0,38700.2,-1.2201,4.3704,145.0,98.0,0.48
40.62,33127.4,36894.6,1.5492,2.2285,145.0,98.0,0.48
40.64,34545.9,33756.1,3.4885,-1.4946,145.0,98.0,0.48
40.66,32964.5,33951.6,1.3263,-1.2627,145.0,98.0,0.48
40.68,34940.9,36588.0,4.0286,1.8648,145.0,98.0,0.48
40.7,32813.3,36225.3,1.1196,1.4346,145.0,98.0,0.48
40.72,30809.6,34835.0,-1.6199,-0.2147,145.0,98.0,0.48
40.74,27829.2,36196.2,-5.6949,1.3999,145.0,98.0,0.48
40.76,32586.5,35284.6,0.8096,0.3186,145.0,98.0,0.48
40.78,33570.6,32681.9,2.1551,-2.769,145.0,98.0,0.48
40.8,33786.5,33053.9,2.4503,-2.3277,145.0,98.0,0.48
40.82,35931.1,35414.7,5.3825,0.4729,145.0,98.0,0.48
40.84,33047.0,33249.5,1.4392,-2.0956,145.0,98.0,0.48
40.86,26925.9,36297.4,-6.9299,1.52,145.0,98.0,0.48
40.88,31662.8,34650.3,-0.4534,-0.4339,145.0,98.0,0.48
40.9,32627.8,29646.8,0.866,-6.3695,145.0,98.0,0.48
40.92,31010.3,37552.0,-1.3455,3.0083,145.0,98.0,0.48
40.94,32570.8,30011.4,0.7882,-5.9369,145.0,98.0,0.48
40.96,32602.9,36789.1,0.8319,2.1034,145.0,98.0,0.48
40.98,30139.2,32491.1,-2.5365,-2.9953,145.0,98.0,0.48
41.0,32733.1,37474.2,1.01,2.9161,145.0,98.0,0.48
41.02,33030.6,37511.1,1.4167,2.9598,145.0,98.0,0.48
41.04,29484.8,36181.7,-3.4312,1.3828,145.0,98.0,0.48
41.06,30054.9,38037.4,-2.6518,3.5842,145.0,98.0,0.48
41.08,29552.3,38140.8,-3.339,3.7069,145.0,98.0,0.48
41.1,33545.3,36993.6,2.1205,2.346,145.0,98.0,0.48
41.12,33057.5,33453.6,1.4535,-1.8535,145.0,98.0,0.48
41.14,32779.8,35916.1,1.0739,1.0678,145.0,98.0,0.48
41.16,32492.9,33934.8,0.6816,-1.2827,145.0,98.0,0.48
41.18,29503.9,32273.6,-3.4051,-3.2534,145.0,98.0,0.48
41.2,31229.2,35224.1,-1.0462,0.2468,145.0,98.0,0.48
41.22,30169.0,33460.3,-2.4957,-1.8455,145.0,98.0,0.48
41.24,33388.1,36922.0,1.9056,2.2611,145.0,98.0,0.48
41.26,35128.7,31973.4,4.2854,-3.6094,145.0,98.0,0.48
41.28,35928.3,33902.1,5.3786,-1.3215,145.0,98.0,0.48
41.3,32983.6,39785.5,1.3525,5.6579,145.0,98.0,0.48
41.32,32289.2,35612.2,0.4031,0.7072,145.0,98.0,0.48
41.34,29590.6,37253.5,-3.2865,2.6542,145.0,98.0,0.48
41.36,29317.8,36863.3,-3.6595,2.1914,145.0,98.0,0.48
41.38,33854.9,32695.5,2.5438,-2.7529,145.0,98.0,0.48
41.4,32396.2,35570.0,0.5494,0.6571,145.0,98.0,0.48
41.42,31657.0,33525.1,-0.4613,-1.7688,145.0,98.0,0.48
41.44,30586.2,37335.4,-1.9254,2.7514,145.0,98.0,0.48
41.46,33179.8,38130.1,1.6207,3.6941,145.0,98.0,0.48
41.48,32099.4,37977.1,0.1436,3.5126,145.0,98.0,0.48
41.5,32832.2,35780.6,1.1455,0.907,145.0,98.0,0.48
41.52,29705.0,34084.2,-3.1301,-1.1054,145.0,98.0,0.48
41.54,30530.7,32499.8,-2.0012,-2.985,145.0,98.0,0.48
41.56,32574.5,34836.5,0.7931,-0.213,145.0,98.0,0.48
41.58,29408.9,35755.5,-3.535,0.8772,145.0,98.0,0.48
41.6,29849.8,33105.0,-2.9322,-2.267,145.0,98.0,0.48
41.62,28177.9,35981.9,-5.218,1.1457,145.0,98.0,0.48
41.64,29955.0,32016.1,-2.7883,-3.5588,145.0,98.0,0.48
41.66,34005.8,37285.4,2.7501,2.692,145.0,98.0,0.48
41.68,31701.6,37330.5,-0.4002,2.7457,145.0,98.0,0.48
41.7,33492.7,34768.3,2.0486,-0.2939,145.0,98.0,0.48
41.72,31975.3,34983.7,-0.0261,-0.0383,145.0,98.0,0.48
41.74,30272.9,32530.0,-2.3537,-2.9491,145.0,98.0,0.48
41.76,29668.4,34578.0,-3.1802,-0.5197,145.0,98.0,0.48
41.78,33745.5,35637.4,2.3943,0.7371,145.0,98.0,0.48
41.8,34028.7,36259.2,2.7814,1.4748,145.0,98.0,0.48
41.82,31214.1,36467.2,-1.0668,1.7214,145.0,98.0,0.48
41.84,34071.2,38695.7,2.8396,4.3651,145.0,98.0,0.48
41.86,33844.8,37557.5,2.53,3.0149,145.0,98.0,0.48
41.88,31043.5,31490.9,-1.3001,-4.1819,145.0,98.0,0.48
41.9,36539.8,33975.1,6.2147,-1.2349,145.0,98.0,0.48
41.92,35125.9,34965.4,4.2816,-0.0601,145.0,98.0,0.48
41.94,34629.2,32388.2,3.6024,-3.1174,145.0,98.0,0.48
41.96,30192.0,31943.0,-2.4643,-3.6455,145.0,98.0,0.48
41.98,32625.6,34951.7,0.863,-0.0763,145.0,98.0,0.48
42.0,29108.2,32956.2,-3.9461,-2.4436,145.0,98.0,0.48
42.02,30687.8,34839.1,-1.7864,-0.2099,145.0,98.0,0.48
42.04,33490.6,36382.2,2.0457,1.6206,145.0,98.0,0.48
42.06,33084.9,36468.8,1.491,1.7234,145.0,98.0,0.48
42.08,30269.9,34171.1,-2.3578,-1.0024,145.0,98.0,0.48
42.1,35310.7,35387.1,4.5342,0.4401,145.0,98.0,0.48
42.12,32214.5,33148.6,0.3009,-2.2153,145.0,98.0,0.48
42.14,31679.5,38378.3,-0.4305,3.9886,145.0,98.0,0.48
42.16,32526.0,40468.4,0.7268,6.4681,145.0,98.0,0.48
42.18,33326.9,32122.5,1.8219,-3.4325,145.0,98.0,0.48
42.2,30029.3,35268.9,-2.6867,0.2999,145.0,98.0,0.48
42.22,29958.5,37094.0,-2.7835,2.465,145.0,98.0,0.48
42.24,30192.4,33076.8,-2.4638,-2.3006,145.0,98.0,0.48
42.26,28721.4,36514.8,-4.475,1.7779,145.0,98.0,0.48
42.28,33453.3,34182.4,1.9947,-0.9889,145.0,98.0,0.48
42.3,29224.7,34159.3,-3.7869,-1.0164,145.0,98.0,0.48
42.32,31304.7,33398.6,-0.9429,-1.9187,145.0,98.0,0.48
42.34,29472.1,37246.3,-3.4486,2.6458,145.0,98.0,0.48
42.36,31154.2,33943.6,-1.1487,-1.2722,145.0,98.0,0.48
42.38,30744.6,34688.4,-1.7087,-0.3887,145.0,98.0,0.48
42.4,32146.3,31713.1,0.2078,-3.9182,145.0,98.0,0.48
42.42,31618.5,33433.6,-0.5139,-1.8773,145.0,98.0,0.48
42.44,34205.7,36193.7,3.0235,1.397,145.0,98.0,0.48
42.46,31453.7,35453.3,-0.7392,0.5187,145.0,98.0,0.48
42.48,32387.6,35925.8,0.5377,1.0792,145.0,98.0,0.48
42.5,30489.8,33273.9,-2.0571,-2.0667,145.0,98.0,0.48
42.52,33561.1,35064.6,2.1422,0.0576,145.0,98.0,0.48
42.54,30645.9,38161.1,-1.8437,3.731,145.0,98.0,0.48
42.56,30229.6,32550.2,-2.4129,-2.9252,145.0,98.0,0.48
42.58,31429.5,35608.1,-0.7723,0.7024,145.0,98.0,0.48
42.6,32332.9,35116.6,0.4628,0.1192,145.0,98.0,0.48
42.62,29052.5,31233.1,-4.0222,-4.4876,145.0,98.0,0.48
42.64,31943.0,35721.7,-0.0702,0.837,145.0,98.0,0.48
42.66,33095.2,38832.1,1.505,4.5269,145.0,98.0,0.48
42.68,27488.8,39324.2,-6.1603,5.1108,145.0,98.0,0.48
42.7,32768.6,34746.0,1.0586,-0.3203,145.0,98.0,0.48
42.72,30288.9,36891.3,-2.3318,2.2245,145.0,98.0,0.48
42.74,32103.6,32219.9,0.1494,-3.317,145.0,98.0,0.48
42.76,28264.6,34495.8,-5.0995,-0.6171,145.0,98.0,0.48
42.78,31431.7,33632.4,-0.7693,-1.6414,145.0,98.0,0.48
42.8,33308.2,35661.1,1.7963,0.7652,145.0,98.0,0.48
42.82,36165.6,35735.6,5.7031,0.8536,145.0,98.0,0.48
42.84,32483.3,32907.4,0.6684,-2.5015,145.0,98.0,0.48
42.86,29491.6,34207.6,-3.4219,-0.959,145.0,98.0,0.48
42.88,32573.9,35069.8,0.7924,0.0638,145.0,98.0,0.48
42.9,32782.1,34895.1,1.077,-0.1435,145.0,98.0,0.48
42.92,29582.4,35193.7,-3.2978,0.2108,145.0,98.0,0.48
42.94,32980.3,33371.1,1.348,-1.9514,145.0,98.0,0.48
42.96,27917.7,36781.7,-5.5738,2.0946,145.0,98.0,0.48
42.98,29860.1,38345.5,-2.9181,3.9497,145.0,98.0,0.48
43.0,32432.5,35522.2,0.599,0.6005,145.0,98.0,0.48
43.02,33488.3,37909.2,2.0426,3.4321,145.0,98.0,0.48
43.04,29368.2,34164.0,-3.5906,-1.0108,145.0,98.0,0.48
43.06,32319.2,36209.9,0.4441,1.4163,145.0,98.0,0.48
43.08,31908.8,37112.5,-0.117,2.487,145.0,98.0,0.48
43.1,36209.3,34972.5,5.7628,-0.0516,145.0,98.0,0.48
43.12,35347.9,30046.2,4.5851,-5.8956,145.0,98.0,0.48
43.14,32775.2,36427.0,1.0675,1.6738,145.0,98.0,0.48
43.16,33407.9,35467.3,1.9327,0.5353,145.0,98.0,0.48
43.18,32339.0,34249.3,0.4713,-0.9096,145.0,98.0,0.48
43.2,31887.0,37509.8,-0.1468,2.9583,145.0,98.0,0.48
43.22,29930.1,35922.4,-2.8224,1.0752,145.0,98.0,0.48
43.24,31530.8,37752.5,-0.6338,3.2462,145.0,98.0,0.48
43.26,37497.5,28435.7,7.5242,-7.8062,145.0,98.0,0.48
43.28,33611.2,38544.7,2.2106,4.186,145.0,98.0,0.48
43.3,34571.8,34524.4,3.524,-0.5833,145.0,98.0,0.48
43.32,31842.6,33782.5,-0.2076,-1.4633,145.0,98.0,0.48
43.34,28502.7,33565.5,-4.774,-1.7207,145.0,98.0,0.48
43.36,34275.9,33538.8,3.1194,-1.7524,145.0,98.0,0.48
43.38,34483.4,37165.0,3.4032,2.5492,145.0,98.0,0.48
43.4,35715.1,31688.2,5.0871,-3.9478,145.0,98.0,0.48
43.42,31432.6,33697.0,-0.768,-1.5648,145.0,98.0,0.48
43.44,30267.0,36661.2,-2.3618,1.9517,145.0,98.0,0.48
43.46,31127.3,34720.2,-1.1855,-0.3509,145.0,98.0,0.48
43.48,27226.0,34321.0,-6.5196,-0.8246,145.0,98.0,0.48
43.5,31843.3,37992.0,-0.2065,3.5304,145.0,98.0,0.48
43.52,32581.1,37367.9,0.8021,2.7899,145.0,98.0,0.48
43.54,33784.9,39705.3,2.4481,5.5628,145.0,98.0,0.48
43.56,35426.9,32791.8,4.6932,-2.6386,145.0,98.0,0.48
43.58,32190.3,33837.9,0.2679,-1.3977,145.0,98.0,0.48
43.6,31875.2,34484.1,-0.1629,-0.631,145.0,98.0,0.48
43.62,31431.1,37168.4,-0.7701,2.5533,145.0,98.0,0.48
43.64,30540.7,37512.0,-1.9876,2.9609,145.0,98.0,0.48
43.66,31199.6,38711.9,-1.0867,4.3843,145.0,98.0,0.48
43.68,30547.3,38461.4,-1.9785,4.0872,145.0,98.0,0.48
43.7,31369.9,31545.0,-0.8538,-4.1176,145.0,98.0,0.48
43.72,31519.0,33536.8,-0.6499,-1.7548,145.0,98.0,0.48
43.74,31596.5,33219.7,-0.544,-2.131,145.0,98.0,0.48
43.76,30702.3,31988.8,-1.7665,-3.5912,145.0,98.0,0.48
43.78,28896.2,37024.6,-4.236,2.3827,145.0,98.0,0.48
43.8,28396.1,36134.5,-4.9197,1.3268,145.0,98.0,0.48
43.82,34225.6,36388.0,3.0507,1.6275,145.0,98.0,0.48
43.84,31053.1,30742.4,-1.2869,-5.0697,145.0,98.0,0.48
43.86,33929.1,34752.6,2.6453,-0.3125,145.0,98.0,0.48
43.88,33317.4,35786.7,1.8089,0.9142,145.0,98.0,0.48
43.9,31458.1,36535.9,-0.7332,1.803,145.0,98.0,0.48
43.92,28278.0,33666.0,-5.0812,-1.6016,145.0,98.0,0.48
43.94,28082.3,32594.2,-5.3488,-2.873,145.0,98.0,0.48
43.96,31752.8,38121.2,-0.3303,3.6836,145.0,98.0,0.48
43.98,28484.2,37229.4,-4.7992,2.6256,145.0,98.0,0.48
44.0,31058.2,32658.1,-1.2799,-2.7972,145.0,98.0,0.48
44.02,30815.3,39055.8,-1.6121,4.7923,145.0,98.0,0.48
44.04,31365.6,34338.1,-0.8597,-0.8043,145.0,98.0,0.48
44.06,30956.0,34717.0,-1.4196,-0.3547,145.0,98.0,0.48
44.08,32155.0,29661.7,0.2197,-6.3518,145.0,98.0,0.48
44.1,30430.1,37255.4,-2.1387,2.6565,145.0,98.0,0.48
44.12,27178.8,32234.4,-6.5841,-3.2998,145.0,98.0,0.48
44.14,32571.5,37618.4,0.7891,3.0871,145.0,98.0,0.48
44.16,28543.5,39236.6,-4.7181,5.0068,145.0,98.0,0.48
44.18,28583.2,34346.6,-4.6639,-0.7941,145.0,98.0,0.48
44.2,32698.8,33542.1,0.9631,-1.7485,145.0,98.0,0.48
44.22,28795.9,34419.5,-4.3731,-0.7076,145.0,98.0,0.48
44.24,33173.5,33735.3,1.6121,-1.5193,145.0,98.0,0.48
44.26,34196.7,35008.2,3.0112,-0.0094,145.0,98.0,0.48
44.28,32199.2,37282.2,0.28,2.6883,145.0,98.0,0.48
44.3,27124.4,37398.2,-6.6584,2.8259,145.0,98.0,0.48
44.32,29814.8,34876.6,-2.9799,-0.1654,145.0,98.0,0.48
44.34,32056.1,36838.7,0.0843,2.1622,145.0,98.0,0.48
44.36,32764.4,36524.7,1.0528,1.7897,145.0,98.0,0.48
44.38,33030.4,35759.0,1.4165,0.8813,145.0,98.0,0.48
44.4,29855.8,37570.1,-2.9239,3.0298,145.0,98.0,0.48
44.42,33541.0,35716.9,2.1146,0.8314,145.0,98.0,0.48
44.44,30383.2,37013.3,-2.2029,2.3693,145.0,98.0,0.48
44.46,33365.1,36130.2,1.8741,1.3217,145.0,98.0,0.48
44.48,32219.1,39121.3,0.3072,4.8701,145.0,98.0,0.48
44.5,34332.8,34188.3,3.1972,-0.9819,145.0,98.0,0.48
44.52,32828.3,34824.3,1.1402,-0.2275,145.0,98.0,0.48
44.54,28937.8,38669.3,-4.1792,4.3338,145.0,98.0,0.48
44.56,31742.5,33970.7,-0.3444,-1.2401,145.0,98.0,0.48
44.58,36285.7,32194.4,5.8672,-3.3473,145.0,98.0,0.48
44.6,31504.2,33940.1,-0.6702,-1.2764,145.0,98.0,0.48
44.62,30344.6,36884.7,-2.2557,2.2168,145.0,98.0,0.48
44.64,28822.2,33355.1,-4.3371,-1.9704,145.0,98.0,0.48
44.66,34534.2,37549.4,3.4725,3.0053,145.0,98.0,0.48
44.68,34033.9,33832.3,2.7885,-1.4042,145.0,98.0,0.48
44.7,33657.9,36281.8,2.2744,1.5016,145.0,98.0,0.48
44.72,33468.7,37540.1,2.0158,2.9942,145.0,98.0,0.48
44.74,34901.4,39649.2,3.9746,5.4963,145.0,98.0,0.48
44.76,31136.5,37529.1,-1.1729,2.9812,145.0,98.0,0.48
44.78,35240.9,34951.8,4.4388,-0.0762,145.0,98.0,0.48
44.8,30814.1,34462.7,-1.6137,-0.6565,145.0,98.0,0.48
44.82,30056.3,32915.3,-2.6498,-2.4921,145.0,98.0,0.48
44.84,33217.9,36261.8,1.6729,1.4778,145.0,98.0,0.48
44.86,32185.3,36627.3,0.2611,1.9114,145.0,98.0,0.48
44.88,31756.7,34654.3,-0.325,-0.4291,145.0,98.0,0.48
44.9,33597.8,32776.0,2.1923,-2.6573,145.0,98.0,0.48
44.92,33278.7,35643.7,1.756,0.7446,145.0,98.0,0.48
44.94,32042.9,36096.7,0.0663,1.282,145.0,98.0,0.48
44.96,31989.6,36821.3,-0.0065,2.1416,145.0,98.0,0.48
44.98,34701.5,35520.1,3.7013,0.598,145.0,98.0,0.48
45.0,31790.5,34611.0,-0.2788,-0.4806,145.0,98.0,0.48
45.02,31783.1,34442.7,-0.2889,-0.6802,145.0,98.0,0.48
45.04,31771.6,34429.7,-0.3046,-0.6956,145.0,98.0,0.48
45.06,31834.9,34538.0,-0.218,-0.5671,145.0,98.0,0.48
45.08,32016.6,34840.9,0.0304,-0.2078,145.0,98.0,0.48
45.1,32147.4,35168.5,0.2093,0.1808,145.0,98.0,0.48
45.12,32213.1,35545.1,0.2991,0.6276,145.0,98.0,0.48
45.14,32272.8,35702.7,0.3807,0.8145,145.0,98.0,0.48
45.16,32203.1,35714.8,0.2854,0.8289,145.0,98.0,0.48
45.18,32209.3,35515.6,0.2938,0.5926,145.0,98.0,0.48
45.2,32230.8,35415.7,0.3233,0.4741,145.0,98.0,0.48
45.22,32049.1,35106.0,0.0749,0.1066,145.0,98.0,0.48
45.24,32108.9,35024.9,0.1566,0.0105,145.0,98.0,0.48
45.26,32047.1,35039.9,0.072,0.0282,145.0,98.0,0.48
45.28,31968.8,34989.7,-0.0349,-0.0313,145.0,98.0,0.48
45.3,32048.6,34820.1,0.0742,-0.2325,145.0,98.0,0.48
45.32,31845.2,34867.3,-0.2039,-0.1765,145.0,98.0,0.48
45.34,31904.5,34700.4,-0.1228,-0.3745,145.0,98.0,0.48
45.36,31765.4,34676.7,-0.313,-0.4026,145.0,98.0,0.48
45.38,31806.6,34632.1,-0.2568,-0.4555,145.0,98.0,0.48
45.4,31833.0,34683.1,-0.2207,-0.395,145.0,98.0,0.48
45.42,31698.9,34513.1,-0.404,-0.5966,145.0,98.0,0.48
45.44,31705.4,34515.7,-0.3951,-0.5936,145.0,98.0,0.48
45.46,31739.9,34457.4,-0.348,-0.6627,145.0,98.0,0.48
45.48,31927.2,34680.6,-0.0918,-0.398,145.0,98.0,0.48
45.5,32072.9,34917.2,0.1074,-0.1173,145.0,98.0,0.48
45.52,32127.2,35383.7,0.1816,0.4362,145.0,98.0,0.48
45.54,32335.7,35667.1,0.4666,0.7723,145.0,98.0,0.48
45.56,32392.0,35720.1,0.5436,0.8352,145.0,98.0,0.48
45.58,32271.3,35650.3,0.3787,0.7524,145.0,98.0,0.48
45.6,32189.5,35455.8,0.2668,0.5216,145.0,98.0,0.48
45.62,32096.8,35268.5,0.1401,0.2995,145.0,98.0,0.48
45.64,32094.3,35142.4,0.1367,0.1499,145.0,98.0,0.48
45.66,32089.1,35097.3,0.1295,0.0964,145.0,98.0,0.48
45.68,32084.8,35129.3,0.1237,0.1344,145.0,98.0,0.48
45.7,32039.5,34910.9,0.0617,-0.1247,145.0,98.0,0.48
45.72,31924.7,34871.2,-0.0952,-0.1718,145.0,98.0,0.48
