timestamp,raw_red,raw_ir,filtered_red,filtered_ir,heart_rate,spo2,ac_dc_ratio
0.0,32031.6,35241.5,0.1319,0.5893,148.4,97.5,0.501
0.02,32167.4,35539.6,0.6962,1.3213,148.4,97.5,0.501
0.04,32391.5,35645.8,1.627,1.5821,148.4,97.5,0.501
0.06,32219.5,35745.1,0.9126,1.8259,148.4,97.5,0.501
0.08,32255.2,35525.9,1.0608,1.2875,148.4,97.5,0.501
0.1,32211.3,35366.7,0.8786,0.8967,148.4,97.5,0.501
0.12,32092.7,35201.9,0.3858,0.4919,148.4,97.5,0.501
0.14,32028.0,35192.4,0.1172,0.4688,148.4,97.5,0.501
0.16,31990.6,35089.3,-0.0381,0.2154,148.4,97.5,0.501
0.18,31964.6,35001.4,-0.1461,-0.0002,148.4,97.5,0.501
0.2,31937.8,34931.7,-0.2576,-0.1715,148.4,97.5,0.501
0.22,31856.2,34767.3,-0.5962,-0.575,148.4,97.5,0.501
0.24,31829.7,34714.3,-0.7065,-0.7054,148.4,97.5,0.501
0.26,31850.2,34668.8,-0.6216,-0.8169,148.4,97.5,0.501
0.28,31800.9,34649.0,-0.8262,-0.8656,148.4,97.5,0.501
0.3,31839.8,34578.5,-0.6644,-1.0388,148.4,97.5,0.501
0.32,31738.4,34555.4,-1.0859,-1.0954,148.4,97.5,0.501
0.34,31629.2,34366.9,-1.5395,-1.5583,148.4,97.5,0.501
0.36,31886.2,34598.4,-0.4717,-0.9898,148.4,97.5,0.501
0.38,31870.4,34644.4,-0.5374,-0.8769,148.4,97.5,0.501
0.4,32125.0,35077.1,0.52,0.1856,148.4,97.5,0.501
0.42,32195.1,35468.3,0.8113,1.1461,148.4,97.5,0.501
0.44,32359.4,35722.3,1.4938,1.7698,148.4,97.5,0.501
0.46,32272.7,35704.9,1.1337,1.7272,148.4,97.5,0.501
0.48,32344.4,35571.8,1.4312,1.4003,148.4,97.5,0.501
0.5,32105.1,35335.1,0.4375,0.8191,148.4,97.5,0.501
0.52,32019.0,35307.8,0.0797,0.7521,148.4,97.5,0.501
0.54,32100.1,35125.0,0.4168,0.3031,148.4,97.5,0.501
0.56,32074.8,35033.9,0.3115,0.0796,148.4,97.5,0.501
0.58,31986.6,35090.3,-0.0548,0.218,148.4,97.5,0.501
0.6,32025.9,34885.1,0.1086,-0.2859,148.4,97.5,0.501
0.62,31852.2,34864.6,-0.6131,-0.3362,148.4,97.5,0.501
0.64,31840.5,34773.1,-0.6617,-0.561,148.4,97.5,0.501
0.66,31930.8,34598.1,-0.2865,-0.9906,148.4,97.5,0.501
0.68,31867.6,34669.1,-0.5491,-0.8162,148.4,97.5,0.501
0.7,31829.0,34729.7,-0.7095,-0.6676,148.4,97.5,0.501
0.72,31700.4,34503.1,-1.2437,-1.2239,148.4,97.5,0.501
0.74,31820.9,34483.5,-0.7429,-1.272,148.4,97.5,0.501
0.76,31780.6,34371.5,-0.9104,-1.5469,148.4,97.5,0.501
0.78,31850.8,34632.0,-0.6188,-0.9074,148.4,97.5,0.501
0.8,32083.1,35023.7,0.3462,0.0543,148.4,97.5,0.501
0.82,32208.7,35397.7,0.8676,0.9729,148.4,97.5,0.501
0.84,32292.8,35678.5,1.2172,1.6623,148.4,97.5,0.501
0.86,32427.7,35794.7,1.7775,1.9477,148.4,97.5,0.501
0.88,32268.9,35682.2,1.1179,1.6713,148.4,97.5,0.501
0.9,32269.2,35508.8,1.119,1.2455,148.4,97.5,0.501
0.92,32143.0,35212.8,0.5948,0.5189,148.4,97.5,0.501
0.94,32076.9,35233.3,0.3204,0.5692,148.4,97.5,0.501
0.96,32058.7,35156.4,0.2446,0.3802,148.4,97.5,0.501
0.98,32046.1,34996.4,0.1922,-0.0125,148.4,97.5,0.501
1.0,31990.9,34920.0,-0.037,-0.2001,148.4,97.5,0.501
1.02,31836.5,34912.0,-0.6782,-0.2197,148.4,97.5,0.501
1.04,31904.8,34760.5,-0.3944,-0.5919,148.4,97.5,0.501
1.06,31838.0,34667.4,-0.6718,-0.8204,148.4,97.5,0.501
1.08,31859.6,34687.2,-0.5824,-0.7717,148.4,97.5,0.501
1.1,31873.1,34672.7,-0.5263,-0.8074,148.4,97.5,0.501
1.12,31821.5,34605.0,-0.7404,-0.9736,148.4,97.5,0.501
1.14,31738.0,34453.0,-1.0873,-1.3469,148.4,97.5,0.501
1.16,31808.7,34440.0,-0.7938,-1.3789,148.4,97.5,0.501
1.18,31762.2,34637.2,-0.9867,-0.8946,148.4,97.5,0.501
1.2,31974.4,34862.2,-0.1056,-0.3422,148.4,97.5,0.501
1.22,32151.0,35369.7,0.628,0.9041,148.4,97.5,0.501
1.24,32276.0,35595.8,1.1472,1.4592,148.4,97.5,0.501
1.26,32357.9,35803.2,1.4877,1.9685,148.4,97.5,0.501
1.28,32374.6,35717.3,1.5567,1.7575,148.4,97.5,0.501
1.3,32262.7,35469.5,1.092,1.1492,148.4,97.5,0.501
1.32,32109.4,35308.7,0.4552,0.7542,148.4,97.5,0.501
1.34,32053.5,35302.9,0.223,0.74,148.4,97.5,0.501
1.36,32106.6,35108.9,0.4435,0.2636,148.4,97.5,0.501
1.38,32084.0,35019.3,0.3498,0.0437,148.4,97.5,0.501
1.4,32048.4,34968.7,0.2021,-0.0806,148.4,97.5,0.501
1.42,31907.3,34807.3,-0.3842,-0.4768,148.4,97.5,0.501
1.44,31978.9,34752.7,-0.0869,-0.6109,148.4,97.5,0.501
1.46,31831.6,34680.5,-0.6986,-0.7882,148.4,97.5,0.501
1.48,31901.5,34674.0,-0.4084,-0.8043,148.4,97.5,0.501
1.5,31752.4,34655.8,-1.0278,-0.849,148.4,97.5,0.501
1.52,31874.8,34539.7,-0.5193,-1.1341,148.4,97.5,0.501
1.54,31886.6,34516.6,-0.4701,-1.1907,148.4,97.5,0.501
1.56,31725.1,34507.4,-1.1409,-1.2133,148.4,97.5,0.501
1.58,31764.5,34526.9,-0.9772,-1.1654,148.4,97.5,0.501
1.6,31918.5,34811.0,-0.3378,-0.4679,148.4,97.5,0.501
1.62,32143.6,35232.1,0.5973,0.5663,148.4,97.5,0.501
1.64,32323.1,35542.6,1.3428,1.3287,148.4,97.5,0.501
1.66,32373.7,35718.3,1.5531,1.7599,148.4,97.5,0.501
1.68,32369.1,35805.9,1.5341,1.9751,148.4,97.5,0.501
1.7,32162.7,35556.1,0.6767,1.3617,148.4,97.5,0.501
1.72,32113.8,35258.1,0.4735,0.63,148.4,97.5,0.501
1.74,32084.0,35213.5,0.3498,0.5206,148.4,97.5,0.501
1.76,32091.2,35036.5,0.3795,0.0859,148.4,97.5,0.501
1.78,31953.9,35066.3,-0.1906,0.159,148.4,97.5,0.501
1.8,31998.3,34945.7,-0.006,-0.1371,148.4,97.5,0.501
1.82,32002.6,34816.6,0.0117,-0.4542,148.4,97.5,0.501
1.84,31897.9,34743.3,-0.4231,-0.6341,148.4,97.5,0.501
1.86,31815.5,34734.8,-0.7655,-0.655,148.4,97.5,0.501
1.88,31916.4,34681.7,-0.3464,-0.7853,148.4,97.5,0.501
1.9,31851.0,34652.9,-0.618,-0.8561,148.4,97.5,0.501
1.92,31793.8,34619.0,-0.8556,-0.9394,148.4,97.5,0.501
1.94,31839.8,34535.0,-0.6645,-1.1457,148.4,97.5,0.501
1.96,31766.0,34506.9,-0.9709,-1.2146,148.4,97.5,0.501
1.98,31821.9,34548.4,-0.7387,-1.1128,148.4,97.5,0.501
2.0,31862.7,34774.8,-0.5694,-0.5568,148.4,97.5,0.501
2.02,32060.6,35105.4,0.2524,0.255,148.4,97.5,0.501
2.04,32194.5,35605.1,0.8086,1.482,148.4,97.5,0.501
2.06,32367.6,35708.7,1.5278,1.7365,148.4,97.5,0.501
2.08,32419.8,35783.7,1.7445,1.9207,148.4,97.5,0.501
2.1,32332.8,35571.5,1.3834,1.3995,148.4,97.5,0.501
2.12,32205.8,35324.9,0.8556,0.7941,148.4,97.5,0.501
2.14,32097.3,35250.6,0.4051,0.6115,148.4,97.5,0.501
2.16,32093.2,35205.9,0.3878,0.5018,148.4,97.5,0.501
2.18,32132.5,35010.6,0.5512,0.0222,148.4,97.5,0.501
2.2,31938.7,34943.1,-0.2539,-0.1435,148.4,97.5,0.501
2.22,31978.1,34825.4,-0.0903,-0.4324,148.4,97.5,0.501
2.24,31946.1,34758.2,-0.223,-0.5976,148.4,97.5,0.501
2.26,31922.0,34751.8,-0.3231,-0.6132,148.4,97.5,0.501
2.28,31909.9,34637.4,-0.3732,-0.894,148.4,97.5,0.501
2.3,31812.0,34614.3,-0.7801,-0.9508,148.4,97.5,0.501
2.32,31848.2,34619.1,-0.6297,-0.939,148.4,97.5,0.501
2.34,31755.7,34597.0,-1.0138,-0.9933,148.4,97.5,0.501
2.36,31743.1,34418.9,-1.0662,-1.4306,148.4,97.5,0.501
2.38,31762.1,34542.0,-0.9871,-1.1284,148.4,97.5,0.501
2.4,31850.6,34759.0,-0.6196,-0.5955,148.4,97.5,0.501
2.42,32025.0,35036.3,0.1048,0.0854,148.4,97.5,0.501
2.44,32196.0,35331.6,0.8151,0.8105,148.4,97.5,0.501
2.46,32372.5,35679.2,1.548,1.6639,148.4,97.5,0.501
2.48,32283.7,35864.3,1.1794,2.1186,148.4,97.5,0.501
2.5,32204.0,35655.7,0.8481,1.6063,148.4,97.5,0.501
2.52,32241.1,35281.0,1.0023,0.6862,148.4,97.5,0.501
2.54,32116.3,35278.5,0.4839,0.6801,148.4,97.5,0.501
2.56,31987.3,35095.4,-0.0517,0.2305,148.4,97.5,0.501
2.58,32090.6,35064.6,0.377,0.1548,148.4,97.5,0.501
2.6,32010.2,35050.6,0.0432,0.1206,148.4,97.5,0.501
2.62,32000.4,34870.7,0.0024,-0.3213,148.4,97.5,0.501
2.64,31892.7,34886.4,-0.4448,-0.2827,148.4,97.5,0.501
2.66,31851.5,34670.1,-0.6158,-0.8137,148.4,97.5,0.501
2.68,31840.1,34664.8,-0.6632,-0.8269,148.4,97.5,0.501
2.7,31932.8,34702.9,-0.2784,-0.7334,148.4,97.5,0.501
2.72,31817.8,34654.1,-0.7561,-0.8531,148.4,97.5,0.501
2.74,31768.5,34532.6,-0.9605,-1.1516,148.4,97.5,0.501
2.76,31777.6,34352.3,-0.9229,-1.5941,148.4,97.5,0.501
2.78,31758.1,34606.4,-1.0039,-0.9703,148.4,97.5,0.501
2.8,31922.3,34653.9,-0.3217,-0.8537,148.4,97.5,0.501
2.82,32034.0,34900.4,0.1421,-0.2482,148.4,97.5,0.501
2.84,32105.3,35404.7,0.4382,0.9899,148.4,97.5,0.501
2.86,32342.6,35652.9,1.4238,1.5995,148.4,97.5,0.501
2.88,32296.1,35709.5,1.2308,1.7384,148.4,97.5,0.501
2.9,32321.2,35701.5,1.3352,1.7187,148.4,97.5,0.501
2.92,32075.3,35458.0,0.3136,1.1208,148.4,97.5,0.501
2.94,32096.0,35211.6,0.3994,0.5158,148.4,97.5,0.501
2.96,32033.9,35212.0,0.1416,0.5169,148.4,97.5,0.501
2.98,31996.2,35046.8,-0.015,0.1112,148.4,97.5,0.501
3.0,31942.8,35025.8,-0.2368,0.0595,148.4,97.5,0.501
3.02,31947.0,34942.3,-0.2194,-0.1454,148.4,97.5,0.501
3.04,31967.0,34833.5,-0.1364,-0.4127,148.4,97.5,0.501
3.06,31809.1,34779.9,-0.792,-0.5443,148.4,97.5,0.501
3.08,31842.8,34716.3,-0.6522,-0.7003,148.4,97.5,0.501
3.1,31934.6,34638.9,-0.2708,-0.8905,148.4,97.5,0.501
3.12,31761.9,34613.9,-0.9882,-0.9519,148.4,97.5,0.501
3.14,31807.1,34628.6,-0.8002,-0.9158,148.4,97.5,0.501
3.16,31744.3,34435.4,-1.0611,-1.3902,148.4,97.5,0.501
3.18,31741.5,34495.9,-1.073,-1.2417,148.4,97.5,0.501
3.2,31873.9,34531.2,-0.5227,-1.155,148.4,97.5,0.501
3.22,31887.7,34963.3,-0.4656,-0.0938,148.4,97.5,0.501
3.24,32111.8,35357.0,0.4653,0.8729,148.4,97.5,0.501
3.26,32301.4,35594.6,1.2527,1.4562,148.4,97.5,0.501
3.28,32256.7,35707.8,1.067,1.7342,148.4,97.5,0.501
3.3,32289.1,35699.0,1.2018,1.7126,148.4,97.5,0.501
3.32,32234.0,35520.3,0.973,1.274,148.4,97.5,0.501
3.34,32232.9,35312.4,0.9684,0.7633,148.4,97.5,0.501
3.36,32007.6,35156.5,0.0323,0.3806,148.4,97.5,0.501
3.38,32131.9,35045.5,0.5489,0.1079,148.4,97.5,0.501
3.4,32147.7,35081.6,0.6142,0.1965,148.4,97.5,0.501
3.42,31991.0,34998.5,-0.0367,-0.0073,148.4,97.5,0.501
3.44,31948.1,34840.3,-0.2148,-0.396,148.4,97.5,0.501
3.46,31866.1,34814.0,-0.5553,-0.4605,148.4,97.5,0.501
3.48,31813.4,34691.8,-0.7742,-0.7606,148.4,97.5,0.501
3.5,31920.0,34602.0,-0.3314,-0.9809,148.4,97.5,0.501
3.52,31770.6,34680.4,-0.9518,-0.7885,148.4,97.5,0.501
3.54,31761.9,34579.0,-0.9882,-1.0375,148.4,97.5,0.501
3.56,31876.3,34490.5,-0.5129,-1.2548,148.4,97.5,0.501
3.58,31687.7,34508.8,-1.2963,-1.21,148.4,97.5,0.501
3.6,31813.4,34574.3,-0.7741,-1.049,148.4,97.5,0.501
3.62,31973.4,34780.9,-0.1096,-0.5416,148.4,97.5,0.501
3.64,32104.3,35285.5,0.434,0.6972,148.4,97.5,0.501
3.66,32206.9,35579.2,0.8604,1.4185,148.4,97.5,0.501
3.68,32276.2,35755.7,1.1483,1.8518,148.4,97.5,0.501
3.7,32380.3,35762.7,1.5805,1.8691,148.4,97.5,0.501
3.72,32176.2,35565.4,0.7326,1.3845,148.4,97.5,0.501
3.74,32144.4,35443.6,0.6008,1.0856,148.4,97.5,0.501
3.76,32043.1,35227.4,0.1801,0.5547,148.4,97.5,0.501
3.78,31994.1,35163.9,-0.0238,0.3986,148.4,97.5,0.501
3.8,31963.5,35090.9,-0.1506,0.2195,148.4,97.5,0.501
3.82,32011.2,35044.5,0.0475,0.1054,148.4,97.5,0.501
3.84,31938.7,34801.4,-0.2538,-0.4914,148.4,97.5,0.501
3.86,31852.3,34834.5,-0.6126,-0.4102,148.4,97.5,0.501
3.88,31903.8,34667.6,-0.3987,-0.8198,148.4,97.5,0.501
3.9,31862.7,34618.0,-0.5695,-0.9417,148.4,97.5,0.501
3.92,31885.2,34682.0,-0.476,-0.7846,148.4,97.5,0.501
3.94,31730.0,34597.7,-1.1208,-0.9915,148.4,97.5,0.501
3.96,31848.0,34524.6,-0.6303,-1.1711,148.4,97.5,0.501
3.98,31651.1,34395.0,-1.4485,-1.4894,148.4,97.5,0.501
4.0,31798.2,34465.8,-0.8374,-1.3155,148.4,97.5,0.501
4.02,31924.7,34771.2,-0.3117,-0.5655,148.4,97.5,0.501
4.04,32095.6,35133.6,0.3978,0.3243,148.4,97.5,0.501
4.06,32286.5,35652.7,1.1908,1.5989,148.4,97.5,0.501
4.08,32299.3,35763.8,1.2439,1.8717,148.4,97.5,0.501
4.1,32418.6,35776.9,1.7398,1.904,148.4,97.5,0.501
4.12,32245.3,35628.6,1.0198,1.5398,148.4,97.5,0.501
4.14,32292.6,35384.1,1.2163,0.9395,148.4,97.5,0.501
4.16,32123.1,35204.3,0.5123,0.4978,148.4,97.5,0.501
4.18,32018.9,35146.2,0.0794,0.3554,148.4,97.5,0.501
4.2,32041.4,35072.9,0.1727,0.1752,148.4,97.5,0.501
4.22,32007.8,34981.4,0.0334,-0.0494,148.4,97.5,0.501
4.24,31985.8,34993.0,-0.0583,-0.021,148.4,97.5,0.501
4.26,31878.4,34758.3,-0.5043,-0.5974,148.4,97.5,0.501
4.28,31871.8,34633.2,-0.5314,-0.9044,148.4,97.5,0.501
4.3,31890.8,34619.9,-0.4529,-0.9371,148.4,97.5,0.501
4.32,31795.9,34734.7,-0.8469,-0.6552,148.4,97.5,0.501
4.34,31747.2,34571.3,-1.049,-1.0565,148.4,97.5,0.501
4.36,31763.9,34574.8,-0.9799,-1.0479,148.4,97.5,0.501
4.38,31665.4,34506.9,-1.3891,-1.2145,148.4,97.5,0.501
4.4,31879.8,34556.4,-0.4982,-1.0929,148.4,97.5,0.501
4.42,31857.5,34720.8,-0.591,-0.6894,148.4,97.5,0.501
4.44,32110.7,35059.5,0.4609,0.1424,148.4,97.5,0.501
4.46,32121.8,35423.3,0.5068,1.0356,148.4,97.5,0.501
4.48,32415.3,35612.7,1.7258,1.5008,148.4,97.5,0.501
4.5,32339.2,35755.4,1.4097,1.8512,148.4,97.5,0.501
4.52,32333.3,35607.5,1.3852,1.488,148.4,97.5,0.501
4.54,32108.7,35533.5,0.4525,1.3063,148.4,97.5,0.501
4.56,32064.8,35249.0,0.2701,0.6076,148.4,97.5,0.501
4.58,32090.2,35172.8,0.3754,0.4207,148.4,97.5,0.501
4.6,32018.3,34992.5,0.0768,-0.0221,148.4,97.5,0.501
4.62,32013.4,35013.7,0.0565,0.0298,148.4,97.5,0.501
4.64,31840.9,35031.5,-0.6602,0.0736,148.4,97.5,0.501
4.66,31898.4,34785.0,-0.4212,-0.5317,148.4,97.5,0.501
4.68,31835.1,34679.8,-0.684,-0.7901,148.4,97.5,0.501
4.7,31727.2,34656.4,-1.1324,-0.8475,148.4,97.5,0.501
4.72,31858.8,34625.4,-0.5855,-0.9236,148.4,97.5,0.501
4.74,31836.5,34622.6,-0.6784,-0.9304,148.4,97.5,0.501
4.76,31803.9,34646.8,-0.8136,-0.871,148.4,97.5,0.501
4.78,31821.5,34518.5,-0.7405,-1.186,148.4,97.5,0.501
4.8,31732.4,34568.6,-1.1108,-1.063,148.4,97.5,0.501
4.82,31767.2,34643.7,-0.9662,-0.8786,148.4,97.5,0.501
4.84,31978.9,35013.1,-0.0866,0.0284,148.4,97.5,0.501
4.86,32169.5,35295.8,0.7049,0.7226,148.4,97.5,0.501
4.88,32262.6,35724.1,1.0915,1.7742,148.4,97.5,0.501
4.9,32408.3,35724.4,1.6967,1.775,148.4,97.5,0.501
4.92,32272.6,35586.0,1.133,1.4352,148.4,97.5,0.501
4.94,32277.6,35523.9,1.1538,1.2826,148.4,97.5,0.501
4.96,32098.5,35314.5,0.41,0.7685,148.4,97.5,0.501
4.98,32050.7,35194.9,0.2114,0.4747,148.4,97.5,0.501
5.0,32032.8,35159.0,0.1372,0.3867,148.4,97.5,0.501
5.02,32022.9,35032.5,0.0958,0.0761,148.4,97.5,0.501
5.04,32033.1,34930.7,0.1382,-0.1738,148.4,97.5,0.501
5.06,31952.1,34896.7,-0.198,-0.2574,148.4,97.5,0.501
5.08,31842.6,34682.7,-0.6529,-0.7828,148.4,97.5,0.501
5.1,31949.1,34600.6,-0.2106,-0.9845,148.4,97.5,0.501
5.12,31859.5,34634.9,-0.5828,-0.9003,148.4,97.5,0.501
5.14,31883.6,34620.8,-0.4826,-0.935,148.4,97.5,0.501
5.16,31751.4,34489.8,-1.0319,-1.2566,148.4,97.5,0.501
5.18,31792.2,34409.6,-0.8621,-1.4536,148.4,97.5,0.501
5.2,31690.4,34498.6,-1.2853,-1.2349,148.4,97.5,0.501
5.22,31869.2,34547.9,-0.5422,-1.1139,148.4,97.5,0.501
5.24,31877.8,34886.7,-0.5069,-0.2819,148.4,97.5,0.501
5.26,32104.7,35233.1,0.4358,0.5686,148.4,97.5,0.501
5.28,32344.4,35516.6,1.4315,1.2649,148.4,97.5,0.501
5.3,32256.0,35769.8,1.064,1.8864,148.4,97.5,0.501
5.32,32322.5,35694.9,1.3405,1.7026,148.4,97.5,0.501
5.34,32193.5,35561.0,0.8044,1.3737,148.4,97.5,0.501
5.36,32061.5,35415.4,0.2562,1.0162,148.4,97.5,0.501
5.38,32098.5,35200.3,0.4101,0.4881,148.4,97.5,0.501
5.4,32084.2,35129.5,0.3506,0.3141,148.4,97.5,0.501
5.42,32038.9,35022.8,0.1623,0.0523,148.4,97.5,0.501
5.44,31963.7,34957.5,-0.1498,-0.1081,148.4,97.5,0.501
5.46,31948.7,34805.2,-0.2121,-0.4822,148.4,97.5,0.501
5.48,31920.3,34813.4,-0.33,-0.4621,148.4,97.5,0.501
5.5,31815.2,34646.0,-0.7669,-0.8731,148.4,97.5,0.501
5.52,31807.9,34631.8,-0.7971,-0.9079,148.4,97.5,0.501
5.54,31811.5,34514.1,-0.7822,-1.1969,148.4,97.5,0.501
5.56,31855.2,34676.6,-0.6006,-0.7978,148.4,97.5,0.501
5.58,31771.1,34547.2,-0.9498,-1.1156,148.4,97.5,0.501
5.6,31672.1,34516.4,-1.3612,-1.1911,148.4,97.5,0.501
5.62,31863.6,34530.8,-0.5657,-1.1559,148.4,97.5,0.501
5.64,31913.2,34836.6,-0.3596,-0.4049,148.4,97.5,0.501
5.66,32036.1,35273.6,0.1509,0.668,148.4,97.5,0.501
5.68,32280.3,35494.7,1.1653,1.2109,148.4,97.5,0.501
5.7,32255.7,35711.1,1.063,1.7424,148.4,97.5,0.501
5.72,32340.2,35787.3,1.4141,1.9294,148.4,97.5,0.501
5.74,32247.9,35631.9,1.0304,1.5479,148.4,97.5,0.501
5.76,32208.1,35323.1,0.8652,0.7895,148.4,97.5,0.501
5.78,32127.7,35246.8,0.5313,0.6024,148.4,97.5,0.501
5.8,32075.1,35126.6,0.313,0.3072,148.4,97.5,0.501
5.82,32102.3,35009.5,0.4259,0.0196,148.4,97.5,0.501
5.84,31962.6,34986.2,-0.1545,-0.0377,148.4,97.5,0.501
5.86,31977.7,34878.1,-0.0916,-0.303,148.4,97.5,0.501
5.88,31908.0,34746.0,-0.3813,-0.6274,148.4,97.5,0.501
5.9,31878.6,34673.7,-0.5035,-0.8051,148.4,97.5,0.501
5.92,31838.1,34692.2,-0.6714,-0.7596,148.4,97.5,0.501
5.94,31787.5,34697.8,-0.8816,-0.7458,148.4,97.5,0.501
5.96,31784.8,34615.3,-0.8928,-0.9484,148.4,97.5,0.501
5.98,31778.5,34437.8,-0.9192,-1.3841,148.4,97.5,0.501
6.0,31755.0,34443.0,-1.0169,-1.3714,148.4,97.5,0.501
6.02,31809.0,34514.1,-0.7923,-1.197,148.4,97.5,0.501
6.04,31896.3,34729.3,-0.4297,-0.6684,148.4,97.5,0.501
6.06,32059.4,35057.4,0.2474,0.1371,148.4,97.5,0.501
6.08,32136.5,35502.3,0.5678,1.2296,148.4,97.5,0.501
6.1,32243.9,35687.4,1.0139,1.6841,148.4,97.5,0.501
6.12,32422.1,35734.7,1.754,1.8003,148.4,97.5,0.501
6.14,32349.4,35650.8,1.452,1.5944,148.4,97.5,0.501
6.16,32195.3,35405.1,0.8121,0.991,148.4,97.5,0.501
6.18,32058.1,35271.5,0.2424,0.663,148.4,97.5,0.501
6.2,32003.8,35076.9,0.0165,0.1852,148.4,97.5,0.501
6.22,31937.5,35070.5,-0.2589,0.1693,148.4,97.5,0.501
6.24,31927.8,35030.9,-0.299,0.0722,148.4,97.5,0.501
6.26,31945.5,34891.9,-0.2256,-0.2691,148.4,97.5,0.501
6.28,31930.9,34797.9,-0.2861,-0.5001,148.4,97.5,0.501
6.3,31835.6,34646.3,-0.6819,-0.8721,148.4,97.5,0.501
6.32,31907.1,34709.6,-0.3848,-0.7168,148.4,97.5,0.501
6.34,31795.8,34690.4,-0.8472,-0.7641,148.4,97.5,0.501
6.36,31769.4,34658.8,-0.9568,-0.8417,148.4,97.5,0.501
6.38,31850.3,34582.9,-0.6207,-1.0279,148.4,97.5,0.501
6.4,31753.3,34512.9,-1.0237,-1.1998,148.4,97.5,0.501
6.42,31809.1,34507.8,-0.792,-1.2123,148.4,97.5,0.501
6.44,31808.5,34663.5,-0.7947,-0.8301,148.4,97.5,0.501
6.46,31999.1,34873.8,-0.0028,-0.3137,148.4,97.5,0.501
6.48,32138.5,35428.1,0.576,1.0475,148.4,97.5,0.501
6.5,32263.8,35639.4,1.0968,1.5663,148.4,97.5,0.501
6.52,32383.0,35793.3,1.5919,1.9443,148.4,97.5,0.501
6.54,32285.5,35665.1,1.1866,1.6293,148.4,97.5,0.501
6.56,32133.5,35507.8,0.5553,1.243,148.4,97.5,0.501
6.58,32088.7,35303.2,0.3691,0.7409,148.4,97.5,0.501
6.6,31974.7,35218.8,-0.1043,0.5336,148.4,97.5,0.501
6.62,31997.0,35095.5,-0.0114,0.2308,148.4,97.5,0.501
6.64,32066.0,35115.3,0.2749,0.2794,148.4,97.5,0.501
6.66,31963.3,34964.2,-0.1516,-0.0918,148.4,97.5,0.501
6.68,31873.9,34917.7,-0.5228,-0.2059,148.4,97.5,0.501
6.7,31907.3,34678.8,-0.3841,-0.7924,148.4,97.5,0.501
6.72,31879.0,34652.9,-0.5019,-0.8559,148.4,97.5,0.501
6.74,31908.8,34635.7,-0.3779,-0.8982,148.4,97.5,0.501
6.76,31800.4,34752.9,-0.8283,-0.6105,148.4,97.5,0.501
6.78,31859.7,34618.1,-0.5818,-0.9414,148.4,97.5,0.501
6.8,31852.0,34493.4,-0.6138,-1.2477,148.4,97.5,0.501
6.82,31750.5,34491.7,-1.0356,-1.2519,148.4,97.5,0.501
6.84,31758.2,34675.2,-1.0035,-0.8013,148.4,97.5,0.501
6.86,31999.8,34938.6,-0.0001,-0.1544,148.4,97.5,0.501
6.88,32228.3,35285.3,0.949,0.6968,148.4,97.5,0.501
6.9,32271.8,35662.2,1.1299,1.6222,148.4,97.5,0.501
6.92,32305.8,35744.1,1.2711,1.8233,148.4,97.5,0.501
6.94,32402.7,35767.3,1.6737,1.8804,148.4,97.5,0.501
6.96,32256.2,35536.1,1.0651,1.3126,148.4,97.5,0.501
6.98,32069.6,35324.2,0.29,0.7923,148.4,97.5,0.501
7.0,32096.2,35175.9,0.4006,0.4281,148.4,97.5,0.501
7.02,32036.4,35064.9,0.1519,0.1555,148.4,97.5,0.501
7.04,32079.4,35035.3,0.3308,0.0828,148.4,97.5,0.501
7.06,31970.8,34994.9,-0.1206,-0.0163,148.4,97.5,0.501
7.08,31935.6,34844.0,-0.2667,-0.3868,148.4,97.5,0.501
7.1,31956.3,34736.7,-0.1806,-0.6503,148.4,97.5,0.501
7.12,31875.5,34766.5,-0.5163,-0.5771,148.4,97.5,0.501
7.14,31901.6,34713.7,-0.408,-0.7067,148.4,97.5,0.501
7.16,31775.7,34534.8,-0.9306,-1.1459,148.4,97.5,0.501
7.18,31667.2,34537.7,-1.3817,-1.1388,148.4,97.5,0.501
7.2,31715.4,34498.9,-1.1812,-1.2343,148.4,97.5,0.501
7.22,31795.8,34493.8,-0.8474,-1.2468,148.4,97.5,0.501
7.24,31787.1,34496.8,-0.8835,-1.2394,148.4,97.5,0.501
7.26,32017.1,34825.3,0.0719,-0.4327,148.4,97.5,0.501
7.28,32101.2,35234.1,0.4214,0.5712,148.4,97.5,0.501
7.3,32206.1,35521.6,0.8568,1.2771,148.4,97.5,0.501
7.32,32365.2,35815.8,1.5178,1.9995,148.4,97.5,0.501
7.34,32292.2,35710.6,1.2144,1.7411,148.4,97.5,0.501
7.36,32281.4,35551.2,1.1696,1.3497,148.4,97.5,0.501
7.38,32151.7,35373.2,0.6309,0.9127,148.4,97.5,0.501
7.4,32118.0,35268.5,0.4911,0.6556,148.4,97.5,0.501
7.42,32048.0,35135.6,0.2003,0.3292,148.4,97.5,0.501
7.44,32077.5,35014.0,0.3226,0.0307,148.4,97.5,0.501
7.46,32013.0,35071.2,0.055,0.1711,148.4,97.5,0.501
7.48,31915.7,34899.2,-0.3493,-0.2514,148.4,97.5,0.501
7.5,32012.9,34787.1,0.0544,-0.5265,148.4,97.5,0.501
7.52,31898.0,34771.7,-0.4229,-0.5643,148.4,97.5,0.501
7.54,31809.8,34666.9,-0.7893,-0.8217,148.4,97.5,0.501
7.56,31793.5,34636.9,-0.8568,-0.8954,148.4,97.5,0.501
7.58,31877.2,34582.6,-0.5093,-1.0288,148.4,97.5,0.501
7.6,31784.6,34519.5,-0.894,-1.1835,148.4,97.5,0.501
7.62,31750.0,34420.9,-1.0377,-1.4258,148.4,97.5,0.501
7.64,31901.3,34609.6,-0.4092,-0.9625,148.4,97.5,0.501
7.66,31906.4,34674.5,-0.3877,-0.803,148.4,97.5,0.501
7.68,32056.1,35159.2,0.234,0.3873,148.4,97.5,0.501
7.7,32251.5,35518.3,1.0457,1.269,148.4,97.5,0.501
7.72,32304.3,35722.1,1.265,1.7694,148.4,97.5,0.501
7.74,32399.2,35751.1,1.6589,1.8406,148.4,97.5,0.501
7.76,32336.5,35541.9,1.3988,1.327,148.4,97.5,0.501
7.78,32200.7,35313.6,0.8346,0.7662,148.4,97.5,0.501
7.8,32122.2,35254.7,0.5086,0.6217,148.4,97.5,0.501
7.82,32014.2,35144.1,0.0597,0.35,148.4,97.5,0.501
7.84,32085.1,34999.3,0.3543,-0.0054,148.4,97.5,0.501
7.86,31984.9,34944.7,-0.0619,-0.1395,148.4,97.5,0.501
7.88,31904.6,34986.4,-0.3955,-0.0372,148.4,97.5,0.501
7.9,31968.2,34772.9,-0.1312,-0.5613,148.4,97.5,0.501
7.92,31834.6,34814.6,-0.6861,-0.4589,148.4,97.5,0.501
7.94,31815.8,34604.7,-0.7641,-0.9744,148.4,97.5,0.501
7.96,31911.2,34751.8,-0.3679,-0.6133,148.4,97.5,0.501
7.98,31760.9,34650.0,-0.9923,-0.8632,148.4,97.5,0.501
8.0,31764.1,34530.3,-0.979,-1.1571,148.4,97.5,0.501
8.02,31757.8,34444.0,-1.005,-1.3691,148.4,97.5,0.501
8.04,31773.4,34548.2,-0.9404,-1.1132,148.4,97.5,0.501
8.06,31853.6,34662.6,-0.6071,-0.8322,148.4,97.5,0.501
8.08,32060.2,34979.8,0.2511,-0.0533,148.4,97.5,0.501
8.1,32244.2,35330.1,1.0153,0.8069,148.4,97.5,0.501
8.12,32328.0,35776.4,1.3631,1.9027,148.4,97.5,0.501
8.14,32265.7,35778.9,1.1045,1.9088,148.4,97.5,0.501
8.16,32267.6,35620.0,1.1125,1.5187,148.4,97.5,0.501
8.18,32262.6,35422.7,1.0917,1.0343,148.4,97.5,0.501
8.2,32124.3,35218.8,0.5173,0.5336,148.4,97.5,0.501
8.22,32159.1,35235.4,0.6619,0.5743,148.4,97.5,0.501
8.24,32049.0,35078.6,0.2044,0.1891,148.4,97.5,0.501
8.26,32009.2,34972.4,0.039,-0.0714,148.4,97.5,0.501
8.28,31972.2,35010.7,-0.1146,0.0226,148.4,97.5,0.501
8.3,31895.3,34865.1,-0.434,-0.3349,148.4,97.5,0.501
8.32,31907.1,34805.0,-0.3848,-0.4826,148.4,97.5,0.501
8.34,31930.9,34650.2,-0.2861,-0.8626,148.4,97.5,0.501
8.36,31869.8,34612.3,-0.5398,-0.9557,148.4,97.5,0.501
8.38,31875.0,34652.6,-0.5183,-0.8567,148.4,97.5,0.501
8.4,31774.8,34559.1,-0.9347,-1.0864,148.4,97.5,0.501
8.42,31760.6,34446.3,-0.9935,-1.3634,148.4,97.5,0.501
8.44,31662.1,34497.7,-1.4026,-1.2372,148.4,97.5,0.501
8.46,31907.6,34627.6,-0.3829,-0.9182,148.4,97.5,0.501
8.48,32035.2,34859.6,0.1469,-0.3485,148.4,97.5,0.501
8.5,32149.1,35265.7,0.62,0.6488,148.4,97.5,0.501
8.52,32310.6,35620.0,1.2908,1.5186,148.4,97.5,0.501
8.54,32333.8,35810.5,1.3874,1.9863,148.4,97.5,0.501
8.56,32330.0,35757.0,1.3715,1.8551,148.4,97.5,0.501
8.58,32251.0,35458.1,1.0433,1.1212,148.4,97.5,0.501
8.6,32048.7,35257.9,0.2031,0.6295,148.4,97.5,0.501
8.62,32064.8,35122.6,0.2701,0.2972,148.4,97.5,0.501
8.64,32021.4,35089.6,0.0899,0.2163,148.4,97.5,0.501
8.66,31974.1,35130.0,-0.1065,0.3155,148.4,97.5,0.501
8.68,31983.2,35003.2,-0.0689,0.0041,148.4,97.5,0.501
8.7,31954.4,34757.5,-0.1886,-0.5991,148.4,97.5,0.501
8.72,31865.7,34783.8,-0.557,-0.5346,148.4,97.5,0.501
8.74,31734.3,34701.1,-1.1028,-0.7378,148.4,97.5,0.501
8.76,31857.1,34622.1,-0.5927,-0.9316,148.4,97.5,0.501
8.78,31833.0,34713.9,-0.6929,-0.7063,148.4,97.5,0.501
8.8,31883.3,34582.3,-0.4839,-1.0294,148.4,97.5,0.501
8.82,31782.2,34553.1,-0.9036,-1.1012,148.4,97.5,0.501
8.84,31701.1,34390.1,-1.2406,-1.5012,148.4,97.5,0.501
8.86,31822.3,34511.6,-0.7372,-1.2029,148.4,97.5,0.501
8.88,31929.0,34899.4,-0.2942,-0.2508,148.4,97.5,0.501
8.9,32158.6,35324.7,0.6595,0.7936,148.4,97.5,0.501
8.92,32312.6,35587.4,1.2993,1.4386,148.4,97.5,0.501
8.94,32255.9,35735.1,1.0637,1.8012,148.4,97.5,0.501
8.96,32351.5,35740.0,1.4608,1.8132,148.4,97.5,0.501
8.98,32203.6,35572.7,0.8465,1.4026,148.4,97.5,0.501
9.0,32070.6,35312.8,0.2941,0.7644,148.4,97.5,0.501
9.02,32146.1,35144.1,0.6079,0.35,148.4,97.5,0.501
9.04,32006.6,35142.4,0.0282,0.346,148.4,97.5,0.501
9.06,32038.0,35045.2,0.1585,0.1072,148.4,97.5,0.501
9.08,32003.4,35015.2,0.0151,0.0335,148.4,97.5,0.501
9.1,31942.3,34855.7,-0.2388,-0.3581,148.4,97.5,0.501
9.12,31822.8,34727.7,-0.7353,-0.6723,148.4,97.5,0.501
9.14,31795.2,34665.9,-0.8499,-0.824,148.4,97.5,0.501
9.16,31828.3,34650.7,-0.7121,-0.8615,148.4,97.5,0.501
9.18,31809.5,34675.8,-0.7904,-0.7999,148.4,97.5,0.501
9.2,31846.2,34564.6,-0.6379,-1.0728,148.4,97.5,0.501
9.22,31856.9,34572.6,-0.5937,-1.0533,148.4,97.5,0.501
9.24,31825.8,34513.8,-0.7229,-1.1976,148.4,97.5,0.501
9.26,31848.0,34482.2,-0.6306,-1.2752,148.4,97.5,0.501
9.28,31853.3,34746.7,-0.6084,-0.6257,148.4,97.5,0.501
9.3,32027.0,35180.5,0.113,0.4396,148.4,97.5,0.501
9.32,32161.1,35573.6,0.6699,1.4047,148.4,97.5,0.501
9.34,32380.0,35747.4,1.5791,1.8315,148.4,97.5,0.501
9.36,32322.0,35780.8,1.3382,1.9134,148.4,97.5,0.501
9.38,32282.3,35622.8,1.1733,1.5255,148.4,97.5,0.501
9.4,32181.6,35407.8,0.7552,0.9976,148.4,97.5,0.501
9.42,32087.9,35217.1,0.3661,0.5294,148.4,97.5,0.501
9.44,32053.6,35113.3,0.2234,0.2745,148.4,97.5,0.501
9.46,32049.3,35076.3,0.2055,0.1836,148.4,97.5,0.501
9.48,32010.1,35051.4,0.0426,0.1226,148.4,97.5,0.501
9.5,32037.7,34863.4,0.1576,-0.3393,148.4,97.5,0.501
9.52,31902.9,34797.0,-0.4024,-0.5021,148.4,97.5,0.501
9.54,31936.8,34680.5,-0.2616,-0.7883,148.4,97.5,0.501
9.56,31827.4,34772.7,-0.716,-0.5618,148.4,97.5,0.501
9.58,31755.3,34665.1,-1.0156,-0.8261,148.4,97.5,0.501
9.6,31823.1,34603.6,-0.7339,-0.977,148.4,97.5,0.501
9.62,31754.3,34531.6,-1.0198,-1.1539,148.4,97.5,0.501
9.64,31708.4,34546.6,-1.2102,-1.1171,148.4,97.5,0.501
9.66,31801.4,34502.3,-0.8239,-1.2259,148.4,97.5,0.501
9.68,31818.1,34609.5,-0.7547,-0.9626,148.4,97.5,0.501
9.7,32076.5,35153.3,0.3185,0.3727,148.4,97.5,0.501
9.72,32297.6,35482.3,1.2368,1.1806,148.4,97.5,0.501
9.74,32236.9,35787.3,0.9847,1.9295,148.4,97.5,0.501
9.76,32346.3,35747.8,1.4393,1.8324,148.4,97.5,0.501
9.78,32282.0,35612.7,1.1723,1.5008,148.4,97.5,0.501
9.8,32166.3,35403.9,0.6916,0.9881,148.4,97.5,0.501
9.82,32086.7,35239.5,0.361,0.5843,148.4,97.5,0.501
9.84,32148.3,35080.9,0.6168,0.1949,148.4,97.5,0.501
9.86,32037.2,35040.5,0.1553,0.0958,148.4,97.5,0.501
9.88,32033.3,35083.8,0.139,0.2019,148.4,97.5,0.501
9.9,32001.4,34919.4,0.0067,-0.2016,148.4,97.5,0.501
9.92,31900.8,34790.9,-0.4113,-0.5171,148.4,97.5,0.501
9.94,31934.4,34808.5,-0.2717,-0.4739,148.4,97.5,0.501
9.96,31831.0,34664.4,-0.7011,-0.8278,148.4,97.5,0.501
9.98,31810.4,34671.4,-0.7865,-0.8107,148.4,97.5,0.501
10.0,31893.1,34585.5,-0.4431,-1.0215,148.4,97.5,0.501
10.02,31798.7,34520.5,-0.8353,-1.1812,148.4,97.5,0.501
10.04,31747.6,34458.5,-1.0474,-1.3335,148.4,97.5,0.501
10.06,31667.0,34457.7,-1.3824,-1.3354,148.4,97.5,0.501
10.08,31809.7,34713.3,-0.7897,-0.7078,148.4,97.5,0.501
10.1,32030.7,34962.4,0.1282,-0.096,148.4,97.5,0.501
10.12,32074.6,35330.0,0.3106,0.8065,148.4,97.5,0.501
10.14,32345.6,35720.9,1.4362,1.7664,148.4,97.5,0.501
10.16,32371.2,35776.7,1.5428,1.9034,148.4,97.5,0.501
10.18,32286.0,35638.4,1.1889,1.564,148.4,97.5,0.501
10.2,32260.5,35492.4,1.0831,1.2054,148.4,97.5,0.501
10.22,32109.2,35339.6,0.4544,0.8301,148.4,97.5,0.501
10.24,31977.5,35119.5,-0.0927,0.2897,148.4,97.5,0.501
10.26,32041.6,35144.4,0.1735,0.3507,148.4,97.5,0.501
10.28,31996.8,34931.7,-0.0125,-0.1715,148.4,97.5,0.501
10.3,31902.2,34982.6,-0.4052,-0.0464,148.4,97.5,0.501
10.32,31795.3,34815.4,-0.8496,-0.4569,148.4,97.5,0.501
10.34,31815.7,34802.3,-0.7647,-0.4891,148.4,97.5,0.501
10.36,31839.5,34669.5,-0.6658,-0.8152,148.4,97.5,0.501
10.38,31834.2,34693.5,-0.6877,-0.7563,148.4,97.5,0.501
10.4,31863.3,34696.7,-0.5671,-0.7484,148.4,97.5,0.501
10.42,31725.8,34513.1,-1.1379,-1.1994,148.4,97.5,0.501
10.44,31793.1,34324.7,-0.8585,-1.662,148.4,97.5,0.501
10.46,31762.4,34370.7,-0.986,-1.5491,148.4,97.5,0.501
10.48,31756.6,34640.7,-1.0099,-0.8861,148.4,97.5,0.501
10.5,32012.2,34976.6,0.0513,-0.0611,148.4,97.5,0.501
10.52,32117.5,35313.7,0.489,0.7666,148.4,97.5,0.501
10.54,32296.4,35685.8,1.2319,1.6802,148.4,97.5,0.501
10.56,32378.9,35714.5,1.5749,1.7506,148.4,97.5,0.501
10.58,32353.8,35670.5,1.4704,1.6427,148.4,97.5,0.501
10.6,32244.6,35512.1,1.0168,1.2536,148.4,97.5,0.501
10.62,32059.9,35329.1,0.2495,0.8043,148.4,97.5,0.501
10.64,32108.5,35208.9,0.4517,0.5092,148.4,97.5,0.501
10.66,31978.8,35133.1,-0.0871,0.323,148.4,97.5,0.501
10.68,31945.5,35079.7,-0.2257,0.1919,148.4,97.5,0.501
10.7,31983.4,34990.2,-0.0681,-0.0278,148.4,97.5,0.501
10.72,31855.2,34816.9,-0.6006,-0.4533,148.4,97.5,0.501
10.74,32077.7,34719.9,0.3235,-0.6915,148.4,97.5,0.501
10.76,31820.2,34761.2,-0.7458,-0.59,148.4,97.5,0.501
10.78,31849.9,34678.2,-0.6226,-0.7939,148.4,97.5,0.501
10.8,31830.7,34643.8,-0.7025,-0.8785,148.4,97.5,0.501
10.82,31718.8,34533.9,-1.1669,-1.1483,148.4,97.5,0.501
10.84,31756.7,34435.5,-1.0099,-1.39,148.4,97.5,0.501
10.86,31721.6,34477.0,-1.1557,-1.288,148.4,97.5,0.501
10.88,31684.0,34526.9,-1.3116,-1.1655,148.4,97.5,0.501
10.9,31899.2,34681.4,-0.418,-0.7862,148.4,97.5,0.501
10.92,32098.9,35259.2,0.4116,0.6327,148.4,97.5,0.501
10.94,32232.2,35620.3,0.9655,1.5194,148.4,97.5,0.501
10.96,32360.7,35708.4,1.499,1.7357,148.4,97.5,0.501
10.98,32302.0,35671.2,1.2551,1.6444,148.4,97.5,0.501
11.0,32340.1,35515.2,1.4137,1.2613,148.4,97.5,0.501
11.02,32095.3,35354.9,0.3966,0.8678,148.4,97.5,0.501
11.04,32158.9,35170.8,0.6607,0.4156,148.4,97.5,0.501
11.06,31937.7,35144.2,-0.2579,0.3504,148.4,97.5,0.501
11.08,32054.5,35141.0,0.2274,0.3425,148.4,97.5,0.501
11.1,31982.9,35041.0,-0.0702,0.097,148.4,97.5,0.501
11.12,32051.9,34853.2,0.2163,-0.3642,148.4,97.5,0.501
11.14,31871.6,34733.5,-0.5323,-0.6582,148.4,97.5,0.501
11.16,31903.3,34707.4,-0.4007,-0.7223,148.4,97.5,0.501
11.18,31960.2,34739.5,-0.1646,-0.6434,148.4,97.5,0.501
11.2,31827.9,34607.6,-0.7139,-0.9672,148.4,97.5,0.501
11.22,31885.7,34641.7,-0.4737,-0.8836,148.4,97.5,0.501
11.24,31770.7,34537.5,-0.9516,-1.1393,148.4,97.5,0.501
11.26,31730.8,34390.8,-1.1173,-1.4997,148.4,97.5,0.501
11.28,31817.1,34503.5,-0.7589,-1.2229,148.4,97.5,0.501
11.3,31809.0,34716.4,-0.7923,-0.7002,148.4,97.5,0.501
11.32,32059.2,35067.4,0.2469,0.1618,148.4,97.5,0.501
11.34,32215.1,35429.3,0.8942,1.0505,148.4,97.5,0.501
11.36,32355.8,35887.9,1.4787,2.1765,148.4,97.5,0.501
11.38,32289.9,35699.1,1.2049,1.7129,148.4,97.5,0.501
11.4,32285.1,35676.6,1.185,1.6576,148.4,97.5,0.501
11.42,32226.2,35343.1,0.9405,0.8387,148.4,97.5,0.501
11.44,32096.1,35160.1,0.3999,0.3893,148.4,97.5,0.501
11.46,32089.6,35138.1,0.3731,0.3353,148.4,97.5,0.501
11.48,32036.7,35130.1,0.1532,0.3158,148.4,97.5,0.501
11.5,31969.7,35023.8,-0.1249,0.0547,148.4,97.5,0.501
11.52,31972.9,34882.3,-0.1119,-0.2927,148.4,97.5,0.501
11.54,31931.4,34712.7,-0.284,-0.7091,148.4,97.5,0.501
11.56,31836.9,34678.3,-0.6764,-0.7936,148.4,97.5,0.501
11.58,31848.4,34661.4,-0.629,-0.8353,148.4,97.5,0.501
11.6,31696.0,34629.8,-1.262,-0.9127,148.4,97.5,0.501
11.62,31920.0,34540.8,-0.3312,-1.1312,148.4,97.5,0.501
11.64,31838.8,34506.6,-0.6688,-1.2154,148.4,97.5,0.501
11.66,31781.1,34435.2,-0.9083,-1.3906,148.4,97.5,0.501
11.68,31793.3,34502.4,-0.8577,-1.2255,148.4,97.5,0.501
11.7,31821.7,34766.8,-0.7396,-0.5763,148.4,97.5,0.501
11.72,31933.3,35000.3,-0.2763,-0.0029,148.4,97.5,0.501
11.74,32145.9,35404.4,0.607,0.9893,148.4,97.5,0.501
11.76,32294.4,35714.9,1.2239,1.7517,148.4,97.5,0.501
11.78,32360.3,35828.1,1.4975,2.0297,148.4,97.5,0.501
11.8,32225.8,35602.3,0.9389,1.4752,148.4,97.5,0.501
11.82,32269.7,35521.3,1.121,1.2763,148.4,97.5,0.501
11.84,32176.1,35247.4,0.7325,0.6037,148.4,97.5,0.501
11.86,32079.8,35156.3,0.3322,0.38,148.4,97.5,0.501
11.88,32090.5,35074.7,0.3767,0.1796,148.4,97.5,0.501
11.9,32162.0,35090.1,0.6737,0.2175,148.4,97.5,0.501
11.92,31929.8,34876.9,-0.2908,-0.3059,148.4,97.5,0.501
11.94,31933.9,34843.7,-0.2735,-0.3875,148.4,97.5,0.501
11.96,31865.2,34717.8,-0.5591,-0.6968,148.4,97.5,0.501
11.98,31875.2,34646.7,-0.5175,-0.8713,148.4,97.5,0.501
12.0,31875.3,34712.7,-0.5171,-0.7092,148.4,97.5,0.501
12.02,31901.1,34574.1,-0.41,-1.0495,148.4,97.5,0.501
12.04,31760.6,34607.0,-0.9934,-0.9686,148.4,97.5,0.501
12.06,31845.6,34455.4,-0.6406,-1.3411,148.4,97.5,0.501
12.08,31770.0,34447.3,-0.9546,-1.3608,148.4,97.5,0.501
12.1,31916.5,34595.8,-0.3461,-0.9963,148.4,97.5,0.501
12.12,31932.7,34982.1,-0.2786,-0.0476,148.4,97.5,0.501
12.14,32283.9,35348.2,1.18,0.8513,148.4,97.5,0.501
12.16,32334.4,35643.4,1.39,1.576,148.4,97.5,0.501
12.18,32354.5,35825.7,1.4734,2.0239,148.4,97.5,0.501
12.2,32335.8,35649.4,1.3955,1.5908,148.4,97.5,0.501
12.22,32214.8,35442.1,0.8933,1.0818,148.4,97.5,0.501
12.24,32221.8,35251.1,0.9224,0.6129,148.4,97.5,0.501
12.26,32110.6,35163.8,0.4603,0.3984,148.4,97.5,0.501
12.28,32089.5,35143.9,0.3728,0.3496,148.4,97.5,0.501
12.3,31988.9,35092.1,-0.0453,0.2223,148.4,97.5,0.501
12.32,31985.3,34885.2,-0.0603,-0.2856,148.4,97.5,0.501
12.34,31947.8,34832.0,-0.2161,-0.4164,148.4,97.5,0.501
12.36,31858.9,34710.4,-0.5852,-0.7149,148.4,97.5,0.501
12.38,31814.5,34613.0,-0.7695,-0.9541,148.4,97.5,0.501
12.4,31930.6,34719.8,-0.2876,-0.6917,148.4,97.5,0.501
12.42,31851.8,34585.6,-0.6149,-1.0212,148.4,97.5,0.501
12.44,31831.0,34575.6,-0.7011,-1.0459,148.4,97.5,0.501
12.46,31660.2,34480.5,-1.4104,-1.2795,148.4,97.5,0.501
12.48,31739.4,34496.6,-1.0815,-1.2399,148.4,97.5,0.501
12.5,31779.5,34621.3,-0.915,-0.9336,148.4,97.5,0.501
12.52,32040.7,34831.4,0.1698,-0.4178,148.4,97.5,0.501
12.54,32157.8,35244.0,0.6565,0.5954,148.4,97.5,0.501
12.56,32308.3,35525.8,1.2816,1.2873,148.4,97.5,0.501
12.58,32330.7,35787.5,1.3745,1.93,148.4,97.5,0.501
12.6,32304.1,35679.0,1.2642,1.6635,148.4,97.5,0.501
12.62,32289.1,35518.3,1.2016,1.2689,148.4,97.5,0.501
12.64,32122.3,35276.0,0.5088,0.6739,148.4,97.5,0.501
12.66,32107.2,35172.9,0.4463,0.4208,148.4,97.5,0.501
12.68,31949.5,35093.8,-0.2088,0.2267,148.4,97.5,0.501
12.7,32060.7,35125.7,0.2532,0.305,148.4,97.5,0.501
12.72,32028.8,35012.1,0.1204,0.0259,148.4,97.5,0.501
12.74,31934.8,34867.1,-0.2701,-0.33,148.4,97.5,0.501
12.76,31964.3,34678.9,-0.1475,-0.7921,148.4,97.5,0.501
12.78,31835.8,34607.0,-0.6812,-0.9689,148.4,97.5,0.501
12.8,31797.0,34697.7,-0.8424,-0.7461,148.4,97.5,0.501
12.82,31795.3,34679.0,-0.8492,-0.7919,148.4,97.5,0.501
12.84,31870.3,34569.4,-0.5378,-1.0611,148.4,97.5,0.501
12.86,31693.4,34546.1,-1.2725,-1.1183,148.4,97.5,0.501
12.88,31783.8,34369.9,-0.8973,-1.5509,148.4,97.5,0.501
12.9,31771.9,34535.6,-0.9468,-1.1441,148.4,97.5,0.501
12.92,31969.1,34732.0,-0.1273,-0.6617,148.4,97.5,0.501
12.94,32072.4,35161.8,0.3016,0.3936,148.4,97.5,0.501
12.96,32278.5,35513.8,1.1576,1.2579,148.4,97.5,0.501
12.98,32312.4,35757.4,1.2986,1.856,148.4,97.5,0.501
13.0,32373.5,35814.1,1.5524,1.9953,148.4,97.5,0.501
13.02,32289.9,35602.2,1.2051,1.4749,148.4,97.5,0.501
13.04,32107.7,35443.4,0.4484,1.0851,148.4,97.5,0.501
13.06,32110.5,35188.0,0.4597,0.4579,148.4,97.5,0.501
13.08,32012.9,35069.9,0.0544,0.1679,148.4,97.5,0.501
13.1,32107.4,35041.1,0.4469,0.0972,148.4,97.5,0.501
13.12,31919.4,35034.6,-0.3338,0.0813,148.4,97.5,0.501
13.14,31882.9,34926.1,-0.4856,-0.1853,148.4,97.5,0.501
13.16,31946.9,34698.5,-0.2198,-0.744,148.4,97.5,0.501
13.18,31828.4,34740.7,-0.7117,-0.6406,148.4,97.5,0.501
13.2,31826.4,34690.9,-0.7203,-0.7628,148.4,97.5,0.501
13.22,31853.2,34540.1,-0.6089,-1.133,148.4,97.5,0.501
13.24,31806.1,34750.8,-0.8045,-0.6157,148.4,97.5,0.501
13.26,31731.9,34490.5,-1.1126,-1.2547,148.4,97.5,0.501
13.28,31748.9,34468.9,-1.0423,-1.3078,148.4,97.5,0.501
13.3,31737.9,34589.3,-1.0877,-1.0122,148.4,97.5,0.501
13.32,31910.9,34744.5,-0.3693,-0.6312,148.4,97.5,0.501
13.34,31990.5,35087.7,-0.0384,0.2116,148.4,97.5,0.501
13.36,32264.2,35427.6,1.0983,1.0462,148.4,97.5,0.501
13.38,32386.1,35644.4,1.6045,1.5786,148.4,97.5,0.501
13.4,32278.0,35695.0,1.1557,1.7028,148.4,97.5,0.501
13.42,32271.0,35633.5,1.1266,1.5519,148.4,97.5,0.501
13.44,32292.3,35368.5,1.2151,0.9011,148.4,97.5,0.501
13.46,32135.1,35197.8,0.5619,0.4819,148.4,97.5,0.501
13.48,31967.0,35136.3,-0.1363,0.331,148.4,97.5,0.501
13.5,32058.7,35079.3,0.2447,0.191,148.4,97.5,0.501
13.52,31988.2,34987.1,-0.0482,-0.0354,148.4,97.5,0.501
13.54,31952.4,34922.3,-0.1969,-0.1946,148.4,97.5,0.501
13.56,31843.1,34831.5,-0.6508,-0.4174,148.4,97.5,0.501
13.58,31841.0,34698.4,-0.6596,-0.7444,148.4,97.5,0.501
13.6,31851.4,34719.4,-0.6165,-0.6927,148.4,97.5,0.501
13.62,31840.7,34681.3,-0.6608,-0.7862,148.4,97.5,0.501
13.64,31852.8,34563.4,-0.6104,-1.0757,148.4,97.5,0.501
13.66,31779.0,34522.5,-0.9171,-1.1762,148.4,97.5,0.501
13.68,31698.0,34544.2,-1.2535,-1.123,148.4,97.5,0.501
13.7,31793.3,34475.5,-0.8576,-1.2917,148.4,97.5,0.501
13.72,31863.3,34683.8,-0.5668,-0.7803,148.4,97.5,0.501
13.74,31994.7,35020.5,-0.0211,0.0465,148.4,97.5,0.501
13.76,32207.4,35448.9,0.8623,1.0986,148.4,97.5,0.501
13.78,32314.7,35662.6,1.3082,1.6233,148.4,97.5,0.501
13.8,32333.8,35753.0,1.3872,1.8452,148.4,97.5,0.501
13.82,32312.5,35663.5,1.2987,1.6256,148.4,97.5,0.501
13.84,32243.3,35402.6,1.0114,0.9847,148.4,97.5,0.501
13.86,32127.5,35239.2,0.5303,0.5837,148.4,97.5,0.501
13.88,32034.2,35187.4,0.143,0.4565,148.4,97.5,0.501
13.9,32034.8,35038.7,0.1454,0.0912,148.4,97.5,0.501
13.92,32005.4,35064.1,0.0235,0.1535,148.4,97.5,0.501
13.94,31938.2,34926.6,-0.256,-0.1839,148.4,97.5,0.501
13.96,31912.4,34748.9,-0.3631,-0.6202,148.4,97.5,0.501
13.98,31879.0,34716.7,-0.5016,-0.6993,148.4,97.5,0.501
14.0,31771.4,34667.8,-0.9486,-0.8195,148.4,97.5,0.501
14.02,31786.2,34623.9,-0.8872,-0.9273,148.4,97.5,0.501
14.04,31923.9,34524.5,-0.3151,-1.1714,148.4,97.5,0.501
14.06,31843.9,34567.4,-0.6477,-1.066,148.4,97.5,0.501
14.08,31835.6,34508.2,-0.6819,-1.2113,148.4,97.5,0.501
14.1,31768.6,34382.8,-0.9603,-1.5192,148.4,97.5,0.501
14.12,31847.0,34603.8,-0.6347,-0.9766,148.4,97.5,0.501
14.14,31984.2,34884.9,-0.0648,-0.2864,148.4,97.5,0.501
14.16,32217.7,35244.3,0.905,0.5961,148.4,97.5,0.501
14.18,32307.7,35666.6,1.2788,1.6332,148.4,97.5,0.501
14.2,32406.3,35765.8,1.6885,1.8766,148.4,97.5,0.501
14.22,32323.7,35588.2,1.3455,1.4405,148.4,97.5,0.501
14.24,32165.8,35630.4,0.6895,1.5443,148.4,97.5,0.501
14.26,32213.9,35386.1,0.8892,0.9443,148.4,97.5,0.501
14.28,32172.1,35238.6,0.7159,0.5822,148.4,97.5,0.501
14.3,32016.8,35075.6,0.0705,0.1818,148.4,97.5,0.501
14.32,32004.8,35028.2,0.0208,0.0654,148.4,97.5,0.501
14.34,31897.1,34961.2,-0.4266,-0.0991,148.4,97.5,0.501
14.36,31966.9,34738.6,-0.1368,-0.6456,148.4,97.5,0.501
14.38,31976.1,34790.3,-0.0983,-0.5187,148.4,97.5,0.501
14.4,31817.3,34668.1,-0.758,-0.8187,148.4,97.5,0.501
14.42,31868.5,34589.5,-0.5453,-1.0117,148.4,97.5,0.501
14.44,31856.3,34627.9,-0.5959,-0.9175,148.4,97.5,0.501
14.46,31771.2,34577.6,-0.9494,-1.041,148.4,97.5,0.501
14.48,31778.9,34519.2,-0.9176,-1.1843,148.4,97.5,0.501
14.5,31763.9,34514.7,-0.9797,-1.1955,148.4,97.5,0.501
14.52,31805.9,34563.2,-0.8053,-1.0763,148.4,97.5,0.501
14.54,31969.8,34838.4,-0.1247,-0.4007,148.4,97.5,0.501
14.56,32022.9,35250.7,0.0958,0.6118,148.4,97.5,0.501
14.58,32190.3,35577.9,0.7914,1.4154,148.4,97.5,0.501
14.6,32381.8,35753.2,1.5869,1.8458,148.4,97.5,0.501
14.62,32274.1,35814.1,1.1396,1.9953,148.4,97.5,0.501
14.64,32245.6,35643.0,1.021,1.5751,148.4,97.5,0.501
14.66,32206.5,35350.1,0.8585,0.856,148.4,97.5,0.501
14.68,32073.0,35196.8,0.3039,0.4794,148.4,97.5,0.501
14.7,32070.1,35100.9,0.2921,0.2439,148.4,97.5,0.501
14.72,32084.1,35093.0,0.3501,0.2246,148.4,97.5,0.501
14.74,32018.3,35031.5,0.077,0.0736,148.4,97.5,0.501
14.76,31918.9,34902.1,-0.336,-0.2441,148.4,97.5,0.501
14.78,31802.7,34859.5,-0.8185,-0.3486,148.4,97.5,0.501
14.8,31825.8,34734.6,-0.7226,-0.6554,148.4,97.5,0.501
14.82,31754.0,34664.1,-1.021,-0.8286,148.4,97.5,0.501
14.84,31818.0,34601.8,-0.755,-0.9816,148.4,97.5,0.501
14.86,31768.7,34563.9,-0.9598,-1.0745,148.4,97.5,0.501
14.88,31777.3,34534.6,-0.9242,-1.1466,148.4,97.5,0.501
14.9,31764.9,34412.5,-0.9756,-1.4463,148.4,97.5,0.501
14.92,31779.6,34568.2,-0.9146,-1.0641,148.4,97.5,0.501
14.94,31850.4,34720.3,-0.6204,-0.6907,148.4,97.5,0.501
14.96,32007.9,35061.0,0.0336,0.146,148.4,97.5,0.501
14.98,32171.9,35497.9,0.715,1.2188,148.4,97.5,0.501
15.0,32351.0,35702.1,1.4589,1.7204,148.4,97.5,0.501
15.02,32286.3,35752.6,1.1901,1.8443,148.4,97.5,0.501
15.04,32242.2,35641.0,1.0067,1.5702,148.4,97.5,0.501
15.06,32171.7,35311.3,0.7139,0.7607,148.4,97.5,0.501
15.08,32199.0,35181.5,0.8276,0.4419,148.4,97.5,0.501
15.1,32157.5,35112.3,0.6551,0.2721,148.4,97.5,0.501
15.12,32109.2,35029.4,0.4543,0.0685,148.4,97.5,0.501
15.14,31947.1,34948.9,-0.2187,-0.1293,148.4,97.5,0.501
15.16,31824.2,34927.3,-0.7292,-0.1823,148.4,97.5,0.501
15.18,31924.4,34740.0,-0.3133,-0.6422,148.4,97.5,0.501
15.2,31869.3,34725.1,-0.5419,-0.6788,148.4,97.5,0.501
15.22,31884.5,34632.4,-0.4789,-0.9064,148.4,97.5,0.501
15.24,31743.2,34673.5,-1.0659,-0.8054,148.4,97.5,0.501
15.26,31870.0,34620.0,-0.5392,-0.9369,148.4,97.5,0.501
15.28,31679.5,34505.4,-1.3305,-1.2183,148.4,97.5,0.501
15.3,31778.9,34536.6,-0.9173,-1.1415,148.4,97.5,0.501
15.32,31806.7,34522.7,-0.8019,-1.1758,148.4,97.5,0.501
15.34,31812.1,34661.5,-0.7796,-0.8348,148.4,97.5,0.501
15.36,32043.9,34975.7,0.1833,-0.0634,148.4,97.5,0.501
15.38,32183.7,35332.8,0.7639,0.8135,148.4,97.5,0.501
15.4,32302.2,35624.8,1.2562,1.5304,148.4,97.5,0.501
15.42,32412.8,35856.0,1.7154,2.0983,148.4,97.5,0.501
15.44,32237.5,35698.0,0.9873,1.7102,148.4,97.5,0.501
15.46,32190.4,35452.2,0.7916,1.1066,148.4,97.5,0.501
15.48,32131.5,35260.9,0.5471,0.637,148.4,97.5,0.501
15.5,32038.5,35085.2,0.1609,0.2054,148.4,97.5,0.501
15.52,32108.3,35062.1,0.4505,0.1488,148.4,97.5,0.501
15.54,32119.6,35008.1,0.4978,0.0162,148.4,97.5,0.501
15.56,31950.8,34840.5,-0.2036,-0.3955,148.4,97.5,0.501
15.58,31901.7,34874.5,-0.4076,-0.3118,148.4,97.5,0.501
15.6,31890.3,34759.8,-0.4548,-0.5936,148.4,97.5,0.501
15.62,31944.6,34702.9,-0.2293,-0.7333,148.4,97.5,0.501
15.64,31824.2,34589.2,-0.7295,-1.0124,148.4,97.5,0.501
15.66,31790.3,34655.6,-0.8701,-0.8494,148.4,97.5,0.501
15.68,31765.4,34584.4,-0.9736,-1.0244,148.4,97.5,0.501
15.7,31764.7,34424.9,-0.9766,-1.416,148.4,97.5,0.501
15.72,31712.7,34500.9,-1.1927,-1.2293,148.4,97.5,0.501
15.74,31774.1,34635.1,-0.9373,-0.8997,148.4,97.5,0.501
15.76,31931.2,34916.1,-0.2849,-0.2098,148.4,97.5,0.501
15.78,32207.1,35367.6,0.861,0.8988,148.4,97.5,0.501
15.8,32309.0,35719.6,1.2844,1.7632,148.4,97.5,0.501
15.82,32420.8,35801.6,1.7487,1.9645,148.4,97.5,0.501
15.84,32266.8,35674.4,1.1089,1.6522,148.4,97.5,0.501
15.86,32269.5,35479.0,1.1203,1.1725,148.4,97.5,0.501
15.88,32120.7,35304.8,0.502,0.7447,148.4,97.5,0.501
15.9,32101.6,35173.9,0.4229,0.4232,148.4,97.5,0.501
15.92,31950.4,35114.8,-0.2051,0.2781,148.4,97.5,0.501
15.94,32164.9,35093.7,0.686,0.2264,148.4,97.5,0.501
15.96,32055.0,34940.6,0.2294,-0.1496,148.4,97.5,0.501
15.98,31949.6,34904.9,-0.2086,-0.2373,148.4,97.5,0.501
16.0,31778.9,34744.2,-0.9173,-0.6318,148.4,97.5,0.501
16.02,31904.5,34668.5,-0.3957,-0.8177,148.4,97.5,0.501
16.04,31713.0,34647.3,-1.1914,-0.8698,148.4,97.5,0.501
16.06,31903.4,34716.7,-0.4005,-0.6994,148.4,97.5,0.501
16.08,31763.5,34606.3,-0.9813,-0.9705,148.4,97.5,0.501
16.1,31699.7,34408.8,-1.2463,-1.4555,148.4,97.5,0.501
16.12,31785.4,34340.3,-0.8906,-1.6236,148.4,97.5,0.501
16.14,31805.9,34534.3,-0.8055,-1.1472,148.4,97.5,0.501
16.16,31927.0,34850.8,-0.3023,-0.3701,148.4,97.5,0.501
16.18,32132.9,35301.1,0.5529,0.7357,148.4,97.5,0.501
16.2,32326.5,35595.9,1.3569,1.4595,148.4,97.5,0.501
16.22,32293.8,35757.5,1.221,1.8562,148.4,97.5,0.501
16.24,32312.4,35744.8,1.2984,1.825,148.4,97.5,0.501
16.26,32244.9,35576.7,1.018,1.4124,148.4,97.5,0.501
16.28,32173.6,35332.5,0.722,0.8127,148.4,97.5,0.501
16.3,32061.8,35140.8,0.2576,0.342,148.4,97.5,0.501
16.32,32119.4,35056.1,0.497,0.1339,148.4,97.5,0.501
16.34,31966.3,35142.3,-0.139,0.3457,148.4,97.5,0.501
16.36,31997.4,34987.7,-0.01,-0.034,148.4,97.5,0.501
16.38,31908.5,34869.3,-0.3791,-0.3248,148.4,97.5,0.501
16.4,31784.2,34777.1,-0.8956,-0.5511,148.4,97.5,0.501
16.42,31890.5,34626.9,-0.4539,-0.9198,148.4,97.5,0.501
16.44,31882.0,34662.3,-0.4894,-0.833,148.4,97.5,0.501
16.46,31865.0,34623.7,-0.56,-0.9277,148.4,97.5,0.501
16.48,31717.1,34634.5,-1.1743,-0.9012,148.4,97.5,0.501
16.5,31818.6,34466.9,-0.7525,-1.3127,148.4,97.5,0.501
16.52,31722.1,34486.5,-1.1535,-1.2646,148.4,97.5,0.501
16.54,31745.2,34558.5,-1.0575,-1.0879,148.4,97.5,0.501
16.56,31957.8,34804.3,-0.1744,-0.4842,148.4,97.5,0.501
16.58,32114.5,35149.5,0.4765,0.3635,148.4,97.5,0.501
16.6,32197.6,35549.7,0.8215,1.3461,148.4,97.5,0.501
16.62,32379.6,35707.1,1.5777,1.7325,148.4,97.5,0.501
16.64,32392.4,35675.6,1.6307,1.6552,148.4,97.5,0.501
16.66,32257.1,35596.1,1.0689,1.46,148.4,97.5,0.501
16.68,32186.8,35425.2,0.7768,1.0404,148.4,97.5,0.501
16.7,32107.3,35247.7,0.4465,0.6046,148.4,97.5,0.501
16.72,32030.0,35078.5,0.1256,0.1889,148.4,97.5,0.501
16.74,32033.7,35110.4,0.1409,0.2673,148.4,97.5,0.501
16.76,32069.2,35114.5,0.2881,0.2775,148.4,97.5,0.501
16.78,31920.9,34942.4,-0.3277,-0.1453,148.4,97.5,0.501
16.8,31875.3,34781.3,-0.5169,-0.5408,148.4,97.5,0.501
16.82,31863.3,34745.5,-0.5669,-0.6286,148.4,97.5,0.501
16.84,31886.9,34651.8,-0.4689,-0.8589,148.4,97.5,0.501
16.86,31796.9,34661.0,-0.8428,-0.8363,148.4,97.5,0.501
16.88,31843.6,34595.7,-0.6486,-0.9965,148.4,97.5,0.501
16.9,31748.0,34538.4,-1.0459,-1.1373,148.4,97.5,0.501
16.92,31719.7,34561.2,-1.1634,-1.0812,148.4,97.5,0.501
16.94,31824.8,34465.4,-0.7267,-1.3164,148.4,97.5,0.501
16.96,31931.5,34714.2,-0.2838,-0.7054,148.4,97.5,0.501
16.98,31995.7,35032.0,-0.0168,0.0749,148.4,97.5,0.501
17.0,32159.9,35407.7,0.665,0.9973,148.4,97.5,0.501
17.02,32252.8,35725.9,1.0508,1.7786,148.4,97.5,0.501
17.04,32323.0,35688.1,1.3423,1.6858,148.4,97.5,0.501
17.06,32282.6,35571.0,1.1748,1.3983,148.4,97.5,0.501
17.08,32125.8,35372.7,0.5232,0.9115,148.4,97.5,0.501
17.1,32065.5,35211.5,0.2729,0.5156,148.4,97.5,0.501
17.12,31946.1,35150.6,-0.2232,0.366,148.4,97.5,0.501
17.14,32049.1,35084.8,0.2047,0.2045,148.4,97.5,0.501
17.16,32060.7,35026.1,0.2531,0.0604,148.4,97.5,0.501
17.18,31994.7,34978.7,-0.0212,-0.0561,148.4,97.5,0.501
17.2,31942.7,34731.4,-0.237,-0.6632,148.4,97.5,0.501
17.22,31787.7,34634.9,-0.881,-0.9002,148.4,97.5,0.501
17.24,31870.5,34659.1,-0.5372,-0.8408,148.4,97.5,0.501
17.26,31865.8,34664.7,-0.5567,-0.827,148.4,97.5,0.501
17.28,31762.4,34660.8,-0.9859,-0.8366,148.4,97.5,0.501
17.3,31800.4,34585.0,-0.8281,-1.0228,148.4,97.5,0.501
17.32,31781.2,34477.2,-0.908,-1.2875,148.4,97.5,0.501
17.34,31763.7,34373.8,-0.9806,-1.5413,148.4,97.5,0.501
17.36,31920.3,34747.9,-0.33,-0.6228,148.4,97.5,0.501
17.38,31973.5,34937.1,-0.1091,-0.1581,148.4,97.5,0.501
17.4,32246.7,35368.9,1.0254,0.9021,148.4,97.5,0.501
17.42,32277.1,35631.0,1.152,1.5457,148.4,97.5,0.501
17.44,32378.0,35720.5,1.5708,1.7655,148.4,97.5,0.501
17.46,32287.1,35700.3,1.1933,1.7159,148.4,97.5,0.501
17.48,32173.8,35540.1,0.7226,1.3226,148.4,97.5,0.501
17.5,32126.2,35179.6,0.5252,0.4372,148.4,97.5,0.501
17.52,32087.2,35116.8,0.3631,0.283,148.4,97.5,0.501
17.54,31999.1,35149.7,-0.0029,0.3637,148.4,97.5,0.501
17.56,31973.0,35048.2,-0.1112,0.1146,148.4,97.5,0.501
17.58,31917.6,34994.7,-0.3412,-0.0168,148.4,97.5,0.501
17.6,31895.8,34885.6,-0.4321,-0.2846,148.4,97.5,0.501
17.62,31890.6,34733.8,-0.4536,-0.6575,148.4,97.5,0.501
17.64,31784.4,34674.8,-0.8947,-0.8024,148.4,97.5,0.501
17.66,31858.8,34702.4,-0.5854,-0.7344,148.4,97.5,0.501
17.68,31899.5,34678.1,-0.4166,-0.7941,148.4,97.5,0.501
17.7,31861.0,34579.4,-0.5765,-1.0365,148.4,97.5,0.501
17.72,31686.9,34407.7,-1.2998,-1.4581,148.4,97.5,0.501
17.74,31809.6,34503.4,-0.7898,-1.2232,148.4,97.5,0.501
17.76,31948.7,34629.4,-0.2122,-0.9138,148.4,97.5,0.501
17.78,31921.0,34947.5,-0.3274,-0.1328,148.4,97.5,0.501
17.8,32114.7,35245.8,0.4773,0.5999,148.4,97.5,0.501
17.82,32304.5,35634.7,1.2656,1.5547,148.4,97.5,0.501
17.84,32326.4,35779.0,1.3564,1.9091,148.4,97.5,0.501
17.86,32413.9,35569.2,1.7201,1.3938,148.4,97.5,0.501
17.88,32274.8,35642.8,1.1423,1.5747,148.4,97.5,0.501
17.9,32127.3,35405.3,0.5296,0.9916,148.4,97.5,0.501
17.92,32010.7,35098.5,0.0452,0.2381,148.4,97.5,0.501
17.94,32065.8,35103.3,0.2744,0.25,148.4,97.5,0.501
17.96,32077.7,34992.3,0.3238,-0.0227,148.4,97.5,0.501
17.98,32024.9,34868.7,0.1041,-0.3261,148.4,97.5,0.501
18.0,31846.6,34871.5,-0.6363,-0.3194,148.4,97.5,0.501
18.02,31915.0,34825.4,-0.3522,-0.4326,148.4,97.5,0.501
18.04,31856.1,34620.2,-0.5966,-0.9363,148.4,97.5,0.501
18.06,31880.6,34671.1,-0.4951,-0.8115,148.4,97.5,0.501
18.08,31918.4,34734.4,-0.338,-0.656,148.4,97.5,0.501
18.1,31852.2,34651.9,-0.6132,-0.8585,148.4,97.5,0.501
18.12,31811.8,34515.7,-0.7809,-1.193,148.4,97.5,0.501
18.14,31618.1,34463.2,-1.5853,-1.322,148.4,97.5,0.501
18.16,31842.9,34493.6,-0.6518,-1.2472,148.4,97.5,0.501
18.18,31982.1,35000.3,-0.0736,-0.003,148.4,97.5,0.501
18.2,32028.0,35210.1,0.1173,0.5122,148.4,97.5,0.501
18.22,32188.7,35566.1,0.7845,1.3864,148.4,97.5,0.501
18.24,32280.2,35786.9,1.1646,1.9286,148.4,97.5,0.501
18.26,32332.7,35706.3,1.3826,1.7306,148.4,97.5,0.501
18.28,32261.5,35470.7,1.0872,1.1522,148.4,97.5,0.501
18.3,32203.5,35340.8,0.846,0.8332,148.4,97.5,0.501
18.32,32029.6,35210.5,0.1239,0.5132,148.4,97.5,0.501
18.34,32049.6,35092.3,0.207,0.2229,148.4,97.5,0.501
18.36,32009.6,35088.4,0.0408,0.2133,148.4,97.5,0.501
18.38,32022.5,35006.7,0.0945,0.0126,148.4,97.5,0.501
18.4,31870.4,34811.4,-0.5375,-0.4669,148.4,97.5,0.501
18.42,31830.8,34717.1,-0.7021,-0.6985,148.4,97.5,0.501
18.44,31869.8,34688.4,-0.54,-0.7689,148.4,97.5,0.501
18.46,31801.9,34663.8,-0.8221,-0.8292,148.4,97.5,0.501
18.48,31859.3,34688.5,-0.5835,-0.7686,148.4,97.5,0.501
18.5,31791.4,34606.8,-0.8655,-0.9691,148.4,97.5,0.501
18.52,31855.0,34551.7,-0.6015,-1.1046,148.4,97.5,0.501
18.54,31789.7,34476.6,-0.8728,-1.289,148.4,97.5,0.501
18.56,31704.5,34582.1,-1.2266,-1.03,148.4,97.5,0.501
18.58,31820.0,34773.6,-0.7467,-0.5596,148.4,97.5,0.501
18.6,32011.7,35202.0,0.0496,0.4923,148.4,97.5,0.501
18.62,32232.0,35483.2,0.9647,1.1828,148.4,97.5,0.501
18.64,32343.1,35699.7,1.426,1.7143,148.4,97.5,0.501
18.66,32325.6,35690.7,1.3532,1.6924,148.4,97.5,0.501
18.68,32273.0,35569.0,1.1347,1.3934,148.4,97.5,0.501
18.7,32150.7,35366.5,0.6268,0.8962,148.4,97.5,0.501
18.72,32128.7,35122.5,0.5355,0.2969,148.4,97.5,0.501
18.74,32140.1,35065.8,0.583,0.1578,148.4,97.5,0.501
18.76,32056.4,35027.1,0.2352,0.0628,148.4,97.5,0.501
18.78,31982.0,34966.2,-0.074,-0.0867,148.4,97.5,0.501
18.8,31947.3,34898.9,-0.2182,-0.2519,148.4,97.5,0.501
18.82,31882.8,34726.8,-0.4859,-0.6746,148.4,97.5,0.501
18.84,31912.7,34700.3,-0.3616,-0.7398,148.4,97.5,0.501
18.86,31835.3,34609.6,-0.6833,-0.9624,148.4,97.5,0.501
18.88,31813.9,34631.2,-0.7719,-0.9093,148.4,97.5,0.501
18.9,31765.5,34647.2,-0.9734,-0.8701,148.4,97.5,0.501
18.92,31743.7,34557.5,-1.0637,-1.0903,148.4,97.5,0.501
18.94,31727.6,34465.5,-1.1305,-1.3161,148.4,97.5,0.501
18.96,31738.3,34490.7,-1.0861,-1.2544,148.4,97.5,0.501
18.98,31883.8,34761.7,-0.4819,-0.589,148.4,97.5,0.501
19.0,31906.3,35030.1,-0.3884,0.07,148.4,97.5,0.501
19.02,32167.3,35490.7,0.6958,1.2011,148.4,97.5,0.501
19.04,32330.1,35783.6,1.3721,1.9205,148.4,97.5,0.501
19.06,32358.3,35794.7,1.4892,1.9476,148.4,97.5,0.501
19.08,32304.8,35661.1,1.267,1.6197,148.4,97.5,0.501
19.1,32213.4,35519.0,0.8874,1.2705,148.4,97.5,0.501
19.12,32158.2,35138.7,0.6579,0.3368,148.4,97.5,0.501
19.14,32056.6,35133.5,0.236,0.324,148.4,97.5,0.501
19.16,32055.4,35090.2,0.231,0.2177,148.4,97.5,0.501
19.18,31971.4,35075.5,-0.1179,0.1816,148.4,97.5,0.501
19.2,31944.3,35016.9,-0.2306,0.0377,148.4,97.5,0.501
19.22,31854.4,34874.8,-0.604,-0.3111,148.4,97.5,0.501
19.24,31814.4,34611.0,-0.7699,-0.9588,148.4,97.5,0.501
19.26,31832.2,34692.5,-0.6963,-0.7588,148.4,97.5,0.501
19.28,31749.9,34637.5,-1.0378,-0.894,148.4,97.5,0.501
19.3,31870.1,34634.7,-0.5387,-0.9008,148.4,97.5,0.501
19.32,31784.1,34528.2,-0.896,-1.1623,148.4,97.5,0.501
19.34,31727.0,34435.6,-1.1329,-1.3895,148.4,97.5,0.501
19.36,31854.9,34483.7,-0.6018,-1.2714,148.4,97.5,0.501
19.38,31773.9,34554.7,-0.9381,-1.0973,148.4,97.5,0.501
19.4,32005.5,34989.7,0.0237,-0.029,148.4,97.5,0.501
19.42,32232.3,35294.2,0.9656,0.7187,148.4,97.5,0.501
19.44,32163.5,35581.8,0.6801,1.4248,148.4,97.5,0.501
19.46,32401.6,35798.6,1.669,1.9573,148.4,97.5,0.501
19.48,32359.4,35656.9,1.4935,1.6093,148.4,97.5,0.501
19.5,32267.9,35495.5,1.1135,1.2129,148.4,97.5,0.501
19.52,32174.3,35312.0,0.7249,0.7623,148.4,97.5,0.501
19.54,31990.9,35241.6,-0.0368,0.5895,148.4,97.5,0.501
19.56,32065.5,35108.1,0.273,0.2616,148.4,97.5,0.501
19.58,31927.8,35062.9,-0.2989,0.1506,148.4,97.5,0.501
19.6,31978.3,34944.3,-0.0891,-0.1406,148.4,97.5,0.501
19.62,31897.8,34869.2,-0.4236,-0.325,148.4,97.5,0.501
19.64,31898.8,34740.1,-0.4195,-0.6418,148.4,97.5,0.501
19.66,31760.0,34814.1,-0.9958,-0.4601,148.4,97.5,0.501
19.68,31924.5,34695.3,-0.3128,-0.7519,148.4,97.5,0.501
19.7,31818.8,34698.2,-0.7517,-0.7449,148.4,97.5,0.501
19.72,31754.6,34599.6,-1.0183,-0.9869,148.4,97.5,0.501
19.74,31802.0,34464.1,-0.8215,-1.3197,148.4,97.5,0.501
19.76,31759.8,34496.5,-0.9967,-1.24,148.4,97.5,0.501
19.78,31867.9,34638.4,-0.5479,-0.8917,148.4,97.5,0.501
19.8,31939.8,34934.8,-0.2492,-0.1638,148.4,97.5,0.501
19.82,32136.2,35129.5,0.5667,0.3142,148.4,97.5,0.501
19.84,32207.8,35601.6,0.8638,1.4735,148.4,97.5,0.501
19.86,32382.3,35822.2,1.5889,2.0151,148.4,97.5,0.501
19.88,32346.3,35683.2,1.4393,1.6739,148.4,97.5,0.501
19.9,32313.1,35560.3,1.3013,1.3721,148.4,97.5,0.501
19.92,32190.4,35363.4,0.7917,0.8886,148.4,97.5,0.501
19.94,32125.6,35204.6,0.5228,0.4987,148.4,97.5,0.501
19.96,32012.0,35156.5,0.0507,0.3806,148.4,97.5,0.501
19.98,32045.3,35149.5,0.1892,0.3634,148.4,97.5,0.501
20.0,32011.4,34948.6,0.0484,-0.1299,148.4,97.5,0.501
20.02,31977.6,34832.3,-0.0923,-0.4156,148.4,97.5,0.501
20.04,31948.3,34727.7,-0.2137,-0.6724,148.4,97.5,0.501
20.06,31898.1,34736.9,-0.4225,-0.6498,148.4,97.5,0.501
20.08,31779.0,34708.8,-0.917,-0.7188,148.4,97.5,0.501
20.1,31811.1,34726.0,-0.7839,-0.6767,148.4,97.5,0.501
20.12,31787.7,34584.0,-0.8809,-1.0252,148.4,97.5,0.501
20.14,31809.2,34446.5,-0.7918,-1.3629,148.4,97.5,0.501
20.16,31668.2,34482.5,-1.3771,-1.2745,148.4,97.5,0.501
20.18,31801.9,34582.2,-0.8222,-1.0297,148.4,97.5,0.501
20.2,31941.1,34785.6,-0.2438,-0.5302,148.4,97.5,0.501
20.22,32103.5,35209.8,0.4306,0.5113,148.4,97.5,0.501
20.24,32229.9,35559.4,0.9558,1.3697,148.4,97.5,0.501
20.26,32302.9,35666.5,1.259,1.6327,148.4,97.5,0.501
20.28,32374.2,35716.2,1.5553,1.7549,148.4,97.5,0.501
20.3,32184.0,35520.8,0.7652,1.2751,148.4,97.5,0.501
20.32,32228.0,35380.4,0.9479,0.9304,148.4,97.5,0.501
20.34,32095.4,35221.1,0.397,0.5392,148.4,97.5,0.501
20.36,32106.7,35173.2,0.444,0.4215,148.4,97.5,0.501
20.38,32020.8,35046.1,0.0872,0.1095,148.4,97.5,0.501
20.4,31937.2,35001.5,-0.2599,-0.0,148.4,97.5,0.501
20.42,31938.7,34773.9,-0.2536,-0.559,148.4,97.5,0.501
20.44,31947.6,34794.2,-0.2169,-0.5092,148.4,97.5,0.501
20.46,31859.2,34712.4,-0.5841,-0.7099,148.4,97.5,0.501
20.48,31821.9,34677.7,-0.739,-0.7952,148.4,97.5,0.501
20.5,31901.6,34696.8,-0.408,-0.7483,148.4,97.5,0.501
20.52,31794.2,34697.5,-0.8538,-0.7465,148.4,97.5,0.501
20.54,31806.0,34485.1,-0.8051,-1.2681,148.4,97.5,0.501
20.56,31708.3,34495.5,-1.2108,-1.2426,148.4,97.5,0.501
20.58,31779.6,34507.1,-0.9147,-1.214,148.4,97.5,0.501
20.6,31856.0,34694.5,-0.5973,-0.7538,148.4,97.5,0.501
20.62,32139.6,35089.9,0.5806,0.2171,148.4,97.5,0.501
20.64,32174.4,35428.3,0.7253,1.0479,148.4,97.5,0.501
20.66,32282.6,35726.4,1.1745,1.78,148.4,97.5,0.501
20.68,32251.7,35781.2,1.0462,1.9144,148.4,97.5,0.501
20.7,32271.4,35602.9,1.1281,1.4767,148.4,97.5,0.501
20.72,32264.5,35380.3,1.0995,0.9301,148.4,97.5,0.501
20.74,32072.3,35324.8,0.3012,0.7937,148.4,97.5,0.501
20.76,32071.3,35070.5,0.297,0.1694,148.4,97.5,0.501
20.78,32002.3,35031.6,0.0102,0.0739,148.4,97.5,0.501
20.8,32047.9,35009.5,0.1999,0.0196,148.4,97.5,0.501
20.82,31905.2,34862.3,-0.393,-0.3419,148.4,97.5,0.501
20.84,31967.0,34821.6,-0.1362,-0.4419,148.4,97.5,0.501
20.86,31834.7,34725.3,-0.6857,-0.6782,148.4,97.5,0.501
20.88,31729.3,34690.8,-1.1236,-0.763,148.4,97.5,0.501
20.9,31870.5,34614.7,-0.537,-0.9499,148.4,97.5,0.501
20.92,31786.8,34693.7,-0.8846,-0.7558,148.4,97.5,0.501
20.94,31792.6,34482.2,-0.8604,-1.2751,148.4,97.5,0.501
20.96,31702.9,34460.5,-1.2332,-1.3284,148.4,97.5,0.501
20.98,31773.9,34487.5,-0.9382,-1.2621,148.4,97.5,0.501
21.0,31813.9,34715.4,-0.772,-0.7027,148.4,97.5,0.501
21.02,31971.3,35009.0,-0.1184,0.0183,148.4,97.5,0.501
21.04,32192.2,35330.2,0.799,0.8071,148.4,97.5,0.501
21.06,32366.7,35641.1,1.5241,1.5704,148.4,97.5,0.501
21.08,32355.3,35699.2,1.4766,1.7132,148.4,97.5,0.501
21.1,32296.7,35677.3,1.2333,1.6594,148.4,97.5,0.501
21.12,32215.1,35454.2,0.8945,1.1115,148.4,97.5,0.501
21.14,32104.9,35193.6,0.4367,0.4717,148.4,97.5,0.501
21.16,32031.9,35128.2,0.1336,0.3111,148.4,97.5,0.501
21.18,32063.7,35041.6,0.2656,0.0985,148.4,97.5,0.501
21.2,32013.1,35136.5,0.0552,0.3315,148.4,97.5,0.501
21.22,31997.4,34893.6,-0.0101,-0.2651,148.4,97.5,0.501
21.24,31909.4,34802.8,-0.3754,-0.488,148.4,97.5,0.501
21.26,31823.8,34729.8,-0.7312,-0.6673,148.4,97.5,0.501
21.28,31889.6,34763.0,-0.4576,-0.5858,148.4,97.5,0.501
21.3,31782.2,34670.6,-0.9039,-0.8125,148.4,97.5,0.501
21.32,31765.5,34686.5,-0.9731,-0.7734,148.4,97.5,0.501
21.34,31784.8,34516.9,-0.8928,-1.19,148.4,97.5,0.501
21.36,31716.0,34439.4,-1.1788,-1.3803,148.4,97.5,0.501
21.38,31733.2,34451.2,-1.1072,-1.3513,148.4,97.5,0.501
21.4,31804.5,34630.0,-0.8114,-0.9123,148.4,97.5,0.501
21.42,31951.9,34950.9,-0.1991,-0.1243,148.4,97.5,0.501
21.44,32151.6,35295.2,0.6305,0.7212,148.4,97.5,0.501
21.46,32372.5,35671.0,1.5481,1.6439,148.4,97.5,0.501
21.48,32284.4,35699.4,1.1822,1.7137,148.4,97.5,0.501
21.5,32375.2,35753.8,1.5594,1.8471,148.4,97.5,0.501
21.52,32169.9,35558.0,0.7064,1.3664,148.4,97.5,0.501
21.54,32078.3,35267.0,0.326,0.652,148.4,97.5,0.501
21.56,32079.6,35175.7,0.3317,0.4276,148.4,97.5,0.501
21.58,32014.8,35090.5,0.0622,0.2184,148.4,97.5,0.501
21.6,32055.7,35068.1,0.232,0.1635,148.4,97.5,0.501
21.62,31933.0,35080.3,-0.2772,0.1933,148.4,97.5,0.501
21.64,31878.4,34876.5,-0.504,-0.3071,148.4,97.5,0.501
21.66,31798.1,34760.9,-0.8379,-0.5908,148.4,97.5,0.501
21.68,31842.0,34593.8,-0.6556,-1.0011,148.4,97.5,0.501
21.7,31764.9,34628.4,-0.9755,-0.9163,148.4,97.5,0.501
21.72,31778.6,34658.8,-0.9189,-0.8416,148.4,97.5,0.501
21.74,31775.3,34562.4,-0.9324,-1.0783,148.4,97.5,0.501
21.76,31798.1,34489.4,-0.8376,-1.2575,148.4,97.5,0.501
21.78,31816.1,34436.3,-0.7631,-1.3878,148.4,97.5,0.501
21.8,31774.4,34561.7,-0.936,-1.0799,148.4,97.5,0.501
21.82,31922.3,34878.8,-0.3219,-0.3013,148.4,97.5,0.501
21.84,32166.6,35201.6,0.6927,0.4912,148.4,97.5,0.501
21.86,32277.7,35505.2,1.1543,1.2367,148.4,97.5,0.501
21.88,32336.1,35689.6,1.3967,1.6897,148.4,97.5,0.501
21.9,32328.0,35616.2,1.3633,1.5094,148.4,97.5,0.501
21.92,32295.7,35512.7,1.2293,1.2553,148.4,97.5,0.501
21.94,32119.6,35376.0,0.4975,0.9196,148.4,97.5,0.501
21.96,32145.3,35220.2,0.6045,0.5371,148.4,97.5,0.501
21.98,32072.4,35122.9,0.3017,0.298,148.4,97.5,0.501
22.0,32042.3,35011.7,0.1765,0.0249,148.4,97.5,0.501
22.02,32041.3,34985.3,0.1723,-0.0397,148.4,97.5,0.501
22.04,31866.0,34980.6,-0.5557,-0.0513,148.4,97.5,0.501
22.06,31944.6,34786.5,-0.2293,-0.528,148.4,97.5,0.501
22.08,31846.3,34753.5,-0.6374,-0.609,148.4,97.5,0.501
22.1,31816.7,34684.9,-0.7605,-0.7774,148.4,97.5,0.501
22.12,31858.4,34655.4,-0.5873,-0.8499,148.4,97.5,0.501
22.14,31732.2,34481.1,-1.1115,-1.2778,148.4,97.5,0.501
22.16,31798.8,34562.7,-0.835,-1.0776,148.4,97.5,0.501
22.18,31716.2,34387.6,-1.1779,-1.5076,148.4,97.5,0.501
22.2,31749.6,34568.2,-1.039,-1.064,148.4,97.5,0.501
22.22,31949.2,34711.1,-0.2102,-0.7132,148.4,97.5,0.501
22.24,32158.5,35124.1,0.6592,0.3011,148.4,97.5,0.501
22.26,32211.5,35458.0,0.8795,1.1209,148.4,97.5,0.501
22.28,32370.5,35722.3,1.5397,1.7699,148.4,97.5,0.501
22.3,32364.3,35816.3,1.514,2.0008,148.4,97.5,0.501
22.32,32383.2,35539.2,1.5924,1.3204,148.4,97.5,0.501
22.34,32270.1,35417.3,1.1228,1.0209,148.4,97.5,0.501
22.36,32078.2,35213.7,0.3258,0.521,148.4,97.5,0.501
22.38,32067.6,35039.5,0.2817,0.0932,148.4,97.5,0.501
22.4,32065.8,35042.2,0.2742,0.1,148.4,97.5,0.501
22.42,32026.6,35017.8,0.1113,0.0399,148.4,97.5,0.501
22.44,31848.7,34805.7,-0.6275,-0.4809,148.4,97.5,0.501
22.46,31866.6,34780.9,-0.5531,-0.5417,148.4,97.5,0.501
22.48,31920.7,34623.2,-0.3285,-0.9289,148.4,97.5,0.501
22.5,31884.8,34672.6,-0.4778,-0.8076,148.4,97.5,0.501
22.52,31917.1,34706.4,-0.3434,-0.7247,148.4,97.5,0.501
22.54,31801.4,34618.2,-0.8241,-0.9412,148.4,97.5,0.501
22.56,31691.2,34622.3,-1.2816,-0.9312,148.4,97.5,0.501
22.58,31707.5,34459.1,-1.214,-1.332,148.4,97.5,0.501
22.6,31801.5,34439.4,-0.8235,-1.3803,148.4,97.5,0.501
22.62,31915.3,34788.9,-0.3511,-0.5221,148.4,97.5,0.501
22.64,32124.9,35122.4,0.5196,0.2969,148.4,97.5,0.501
22.66,32190.7,35387.0,0.7929,0.9465,148.4,97.5,0.501
22.68,32353.1,35679.1,1.4674,1.6639,148.4,97.5,0.501
22.7,32372.8,35742.6,1.5495,1.8197,148.4,97.5,0.501
22.72,32227.1,35643.0,0.9444,1.5751,148.4,97.5,0.501
22.74,32146.0,35334.2,0.6075,0.8169,148.4,97.5,0.501
22.76,32058.1,35255.9,0.2423,0.6245,148.4,97.5,0.501
22.78,32082.3,35158.9,0.3429,0.3866,148.4,97.5,0.501
22.8,31952.4,35107.6,-0.197,0.2604,148.4,97.5,0.501
22.82,31939.7,35023.2,-0.2495,0.0533,148.4,97.5,0.501
22.84,31887.6,34957.4,-0.4658,-0.1084,148.4,97.5,0.501
22.86,31865.6,34735.5,-0.5574,-0.6532,148.4,97.5,0.501
22.88,31827.6,34708.8,-0.7152,-0.7187,148.4,97.5,0.501
22.9,31858.8,34623.6,-0.5854,-0.9281,148.4,97.5,0.501
22.92,31854.0,34565.3,-0.6054,-1.0712,148.4,97.5,0.501
22.94,31836.7,34566.9,-0.6775,-1.0672,148.4,97.5,0.501
22.96,31806.1,34526.2,-0.8045,-1.1671,148.4,97.5,0.501
22.98,31718.8,34433.5,-1.1672,-1.3947,148.4,97.5,0.501
23.0,31767.6,34494.5,-0.9645,-1.245,148.4,97.5,0.501
23.02,31781.6,34727.9,-0.9064,-0.6719,148.4,97.5,0.501
23.04,31983.8,35030.9,-0.0665,0.0721,148.4,97.5,0.501
23.06,32194.0,35330.6,0.8069,0.8081,148.4,97.5,0.501
23.08,32365.4,35586.5,1.5188,1.4364,148.4,97.5,0.501
23.1,32387.0,35680.0,1.6082,1.666,148.4,97.5,0.501
23.12,32271.4,35688.3,1.1282,1.6864,148.4,97.5,0.501
23.14,32274.8,35384.0,1.1422,0.9393,148.4,97.5,0.501
23.16,32174.9,35266.4,0.7273,0.6504,148.4,97.5,0.501
23.18,32064.0,35094.8,0.2666,0.2291,148.4,97.5,0.501
23.2,31988.2,35106.5,-0.048,0.2577,148.4,97.5,0.501
23.22,31881.0,34951.6,-0.4935,-0.1227,148.4,97.5,0.501
23.24,32063.1,34962.0,0.2632,-0.0971,148.4,97.5,0.501
23.26,31882.4,34878.0,-0.4875,-0.3033,148.4,97.5,0.501
23.28,31920.3,34798.9,-0.3304,-0.4976,148.4,97.5,0.501
23.3,31931.0,34687.6,-0.2858,-0.7708,148.4,97.5,0.501
23.32,31792.6,34649.2,-0.8605,-0.8651,148.4,97.5,0.501
23.34,31818.3,34649.4,-0.754,-0.8648,148.4,97.5,0.501
23.36,31886.2,34591.7,-0.4719,-1.0064,148.4,97.5,0.501
23.38,31721.0,34353.1,-1.1578,-1.5923,148.4,97.5,0.501
23.4,31823.9,34562.5,-0.7308,-1.078,148.4,97.5,0.501
23.42,31820.4,34556.5,-0.745,-1.0928,148.4,97.5,0.501
23.44,31967.1,34942.6,-0.1356,-0.1448,148.4,97.5,0.501
23.46,32118.0,35262.4,0.491,0.6406,148.4,97.5,0.501
23.48,32285.8,35591.1,1.1881,1.4476,148.4,97.5,0.501
23.5,32375.0,35771.3,1.5587,1.8903,148.4,97.5,0.501
23.52,32296.9,35728.7,1.2343,1.7856,148.4,97.5,0.501
23.54,32258.3,35564.8,1.0739,1.383,148.4,97.5,0.501
23.56,32255.1,35372.0,1.0603,0.9096,148.4,97.5,0.501
23.58,32008.4,35179.2,0.0358,0.4363,148.4,97.5,0.501
23.6,32117.3,35082.3,0.4883,0.1983,148.4,97.5,0.501
23.62,32115.2,35046.3,0.4795,0.1099,148.4,97.5,0.501
23.64,31971.2,35047.9,-0.1187,0.1139,148.4,97.5,0.501
23.66,31878.1,34904.6,-0.5055,-0.2381,148.4,97.5,0.501
23.68,31939.1,34824.9,-0.2521,-0.4338,148.4,97.5,0.501
23.7,31819.6,34762.9,-0.7486,-0.586,148.4,97.5,0.501
23.72,31871.6,34707.6,-0.5324,-0.7217,148.4,97.5,0.501
23.74,31865.7,34641.9,-0.5569,-0.8832,148.4,97.5,0.501
23.76,31808.3,34588.3,-0.7955,-1.0147,148.4,97.5,0.501
23.78,31729.6,34420.4,-1.1221,-1.4269,148.4,97.5,0.501
23.8,31763.5,34377.3,-0.9814,-1.5328,148.4,97.5,0.501
23.82,31806.0,34522.3,-0.8049,-1.1768,148.4,97.5,0.501
23.84,31821.1,34750.1,-0.7424,-0.6173,148.4,97.5,0.501
23.86,32077.5,35152.5,0.3229,0.3706,148.4,97.5,0.501
23.88,32254.8,35547.9,1.0594,1.3416,148.4,97.5,0.501
23.9,32330.8,35751.3,1.3748,1.841,148.4,97.5,0.501
23.92,32322.2,35852.2,1.3394,2.0888,148.4,97.5,0.501
23.94,32201.1,35580.1,0.8362,1.4207,148.4,97.5,0.501
23.96,32161.1,35397.8,0.6699,0.9731,148.4,97.5,0.501
23.98,32091.3,35202.3,0.3803,0.4931,148.4,97.5,0.501
24.0,32028.9,35202.3,0.1207,0.4929,148.4,97.5,0.501
24.02,31936.5,35042.7,-0.263,0.1012,148.4,97.5,0.501
24.04,31943.8,34953.8,-0.2326,-0.1171,148.4,97.5,0.501
24.06,31938.5,34929.4,-0.2544,-0.1771,148.4,97.5,0.501
24.08,31859.9,34824.0,-0.5812,-0.4359,148.4,97.5,0.501
24.1,31897.7,34742.7,-0.4239,-0.6355,148.4,97.5,0.501
24.12,31874.8,34664.8,-0.519,-0.8269,148.4,97.5,0.501
24.14,31830.3,34650.7,-0.7038,-0.8615,148.4,97.5,0.501
24.16,31684.5,34533.7,-1.3098,-1.1486,148.4,97.5,0.501
24.18,31815.9,34585.3,-0.764,-1.0221,148.4,97.5,0.501
24.2,31770.9,34481.3,-0.9509,-1.2773,148.4,97.5,0.501
24.22,31788.3,34499.6,-0.8784,-1.2326,148.4,97.5,0.501
24.24,31824.4,34676.3,-0.7286,-0.7985,148.4,97.5,0.501
24.26,31987.1,35113.3,-0.0526,0.2744,148.4,97.5,0.501
24.28,32172.8,35531.4,0.7185,1.301,148.4,97.5,0.501
24.3,32281.7,35711.7,1.1711,1.7438,148.4,97.5,0.501
24.32,32336.3,35799.4,1.3977,1.9591,148.4,97.5,0.501
24.34,32285.8,35641.4,1.1879,1.5713,148.4,97.5,0.501
24.36,32187.1,35483.8,0.778,1.1842,148.4,97.5,0.501
24.38,32159.9,35263.9,0.6651,0.6442,148.4,97.5,0.501
24.4,32128.8,35165.6,0.5357,0.4029,148.4,97.5,0.501
24.42,32009.4,35113.3,0.04,0.2745,148.4,97.5,0.501
24.44,31981.6,34928.4,-0.0755,-0.1795,148.4,97.5,0.501
24.46,31969.4,34854.8,-0.1261,-0.3604,148.4,97.5,0.501
24.48,31980.8,34827.0,-0.079,-0.4286,148.4,97.5,0.501
24.5,31977.8,34712.0,-0.0912,-0.711,148.4,97.5,0.501
24.52,31892.4,34684.0,-0.446,-0.7798,148.4,97.5,0.501
24.54,31840.3,34669.3,-0.6625,-0.8158,148.4,97.5,0.501
24.56,31812.6,34632.0,-0.7777,-0.9075,148.4,97.5,0.501
24.58,31790.9,34464.4,-0.8679,-1.319,148.4,97.5,0.501
24.6,31754.1,34463.8,-1.0205,-1.3204,148.4,97.5,0.501
24.62,31920.1,34360.7,-0.3311,-1.5736,148.4,97.5,0.501
24.64,31866.0,34651.3,-0.5557,-0.8601,148.4,97.5,0.501
24.66,31952.9,34991.3,-0.195,-0.0251,148.4,97.5,0.501
24.68,32133.8,35359.6,0.5568,0.8792,148.4,97.5,0.501
24.7,32273.0,35679.2,1.1348,1.664,148.4,97.5,0.501
24.72,32241.3,35654.0,1.003,1.6022,148.4,97.5,0.501
24.74,32311.2,35673.6,1.2936,1.6504,148.4,97.5,0.501
24.76,32228.5,35386.6,0.9499,0.9457,148.4,97.5,0.501
24.78,32046.9,35347.5,0.1957,0.8496,148.4,97.5,0.501
24.8,32025.0,35150.3,0.1048,0.3653,148.4,97.5,0.501
24.82,32062.0,35042.0,0.2583,0.0994,148.4,97.5,0.501
24.84,31989.4,35029.4,-0.0432,0.0684,148.4,97.5,0.501
24.86,31881.6,34955.4,-0.4909,-0.1132,148.4,97.5,0.501
24.88,31904.4,34729.0,-0.3963,-0.6693,148.4,97.5,0.501
24.9,31865.1,34643.2,-0.5594,-0.8798,148.4,97.5,0.501
24.92,31840.2,34733.0,-0.6631,-0.6593,148.4,97.5,0.501
24.94,31822.8,34711.6,-0.7351,-0.7119,148.4,97.5,0.501
24.96,31828.1,34554.5,-0.713,-1.0977,148.4,97.5,0.501
24.98,31659.0,34623.9,-1.4156,-0.9273,148.4,97.5,0.501
25.0,31815.4,34473.0,-0.7658,-1.2978,148.4,97.5,0.501
25.02,31783.2,34445.5,-0.8997,-1.3653,148.4,97.5,0.501
25.04,31869.7,34615.0,-0.5402,-0.9492,148.4,97.5,0.501
25.06,31947.5,34892.1,-0.2172,-0.2687,148.4,97.5,0.501
25.08,32202.5,35337.1,0.8419,0.824,148.4,97.5,0.501
25.1,32327.1,35648.9,1.3596,1.5896,148.4,97.5,0.501
25.12,32266.2,35777.7,1.1067,1.9058,148.4,97.5,0.501
25.14,32228.1,35650.6,0.9484,1.5939,148.4,97.5,0.501
25.16,32238.1,35440.5,0.99,1.0779,148.4,97.5,0.501
25.18,32135.4,35314.3,0.5634,0.7679,148.4,97.5,0.501
25.2,32121.4,35166.9,0.5053,0.4062,148.4,97.5,0.501
25.22,32049.1,35075.0,0.2048,0.1805,148.4,97.5,0.501
25.24,32034.8,34992.6,0.1456,-0.022,148.4,97.5,0.501
25.26,32024.7,34918.0,0.1033,-0.2051,148.4,97.5,0.501
25.28,31906.7,34892.8,-0.3869,-0.2671,148.4,97.5,0.501
25.3,31920.7,34639.1,-0.3285,-0.89,148.4,97.5,0.501
25.32,31864.4,34665.5,-0.5624,-0.8252,148.4,97.5,0.501
25.34,31854.3,34708.3,-0.6043,-0.7199,148.4,97.5,0.501
25.36,31832.7,34658.5,-0.6939,-0.8424,148.4,97.5,0.501
25.38,31799.1,34555.9,-0.8335,-1.0942,148.4,97.5,0.501
25.4,31718.5,34521.4,-1.1682,-1.1791,148.4,97.5,0.501
25.42,31750.9,34422.7,-1.0337,-1.4212,148.4,97.5,0.501
25.44,31784.1,34464.5,-0.8958,-1.3186,148.4,97.5,0.501
25.46,31880.6,34857.4,-0.4952,-0.3538,148.4,97.5,0.501
25.48,32178.5,35296.4,0.7422,0.724,148.4,97.5,0.501
25.5,32280.5,35626.3,1.1661,1.5342,148.4,97.5,0.501
25.52,32355.6,35799.4,1.4779,1.9593,148.4,97.5,0.501
25.54,32365.3,35714.8,1.518,1.7515,148.4,97.5,0.501
25.56,32230.3,35615.0,0.9575,1.5064,148.4,97.5,0.501
25.58,32095.1,35297.0,0.3958,0.7256,148.4,97.5,0.501
25.6,32072.7,35133.1,0.3029,0.3231,148.4,97.5,0.501
25.62,32046.6,35096.9,0.1946,0.2342,148.4,97.5,0.501
25.64,32061.8,35109.5,0.2577,0.2652,148.4,97.5,0.501
25.66,32012.0,34955.7,0.0505,-0.1125,148.4,97.5,0.501
25.68,31900.6,34831.9,-0.412,-0.4166,148.4,97.5,0.501
25.7,31886.1,34707.9,-0.4723,-0.7211,148.4,97.5,0.501
25.72,31843.8,34575.2,-0.6479,-1.0468,148.4,97.5,0.501
25.74,31817.4,34744.0,-0.7574,-0.6325,148.4,97.5,0.501
25.76,31744.3,34676.8,-1.0613,-0.7973,148.4,97.5,0.501
25.78,31783.8,34576.0,-0.8971,-1.0449,148.4,97.5,0.501
25.8,31779.0,34499.7,-0.9169,-1.2323,148.4,97.5,0.501
25.82,31696.3,34409.6,-1.2605,-1.4536,148.4,97.5,0.501
25.84,31814.2,34532.2,-0.771,-1.1524,148.4,97.5,0.501
25.86,31884.0,34780.5,-0.481,-0.5427,148.4,97.5,0.501
25.88,32073.3,35110.3,0.3053,0.267,148.4,97.5,0.501
25.9,32241.1,35476.6,1.0025,1.1664,148.4,97.5,0.501
25.92,32177.1,35763.7,0.7365,1.8714,148.4,97.5,0.501
25.94,32196.0,35749.1,0.8149,1.8357,148.4,97.5,0.501
25.96,32350.9,35602.3,1.4585,1.4751,148.4,97.5,0.501
25.98,32166.9,35303.6,0.6942,0.7417,148.4,97.5,0.501
26.0,32096.2,35215.7,0.4006,0.5259,148.4,97.5,0.501
26.02,32138.4,35145.8,0.5756,0.3542,148.4,97.5,0.501
26.04,31984.2,35101.1,-0.0648,0.2445,148.4,97.5,0.501
26.06,32043.4,34966.1,0.1812,-0.087,148.4,97.5,0.501
26.08,31943.0,34982.7,-0.2357,-0.0461,148.4,97.5,0.501
26.1,31798.6,34750.9,-0.8359,-0.6154,148.4,97.5,0.501
26.12,31808.4,34695.5,-0.7951,-0.7514,148.4,97.5,0.501
26.14,31876.0,34654.5,-0.5142,-0.8522,148.4,97.5,0.501
26.16,31896.5,34715.0,-0.429,-0.7035,148.4,97.5,0.501
26.18,31757.3,34602.5,-1.0072,-0.9797,148.4,97.5,0.501
26.2,31721.9,34610.4,-1.1543,-0.9604,148.4,97.5,0.501
26.22,31859.5,34501.5,-0.5828,-1.2278,148.4,97.5,0.501
26.24,31841.6,34432.3,-0.6572,-1.3977,148.4,97.5,0.501
26.26,31843.9,34623.4,-0.6476,-0.9286,148.4,97.5,0.501
26.28,32005.3,35077.4,0.0228,0.1864,148.4,97.5,0.501
26.3,32249.3,35479.1,1.0362,1.1726,148.4,97.5,0.501
26.32,32323.6,35720.4,1.3451,1.7652,148.4,97.5,0.501
26.34,32397.3,35644.4,1.651,1.5785,148.4,97.5,0.501
26.36,32216.9,35598.8,0.9019,1.4667,148.4,97.5,0.501
26.38,32176.7,35370.4,0.7349,0.9058,148.4,97.5,0.501
26.4,32088.3,35316.7,0.3676,0.774,148.4,97.5,0.501
26.42,32054.3,35141.4,0.2265,0.3434,148.4,97.5,0.501
26.44,32052.8,35062.0,0.22,0.1486,148.4,97.5,0.501
26.46,31980.9,34966.0,-0.0783,-0.0871,148.4,97.5,0.501
26.48,31914.8,34984.7,-0.3528,-0.0414,148.4,97.5,0.501
26.5,31992.1,34797.9,-0.0318,-0.5001,148.4,97.5,0.501
26.52,31862.4,34756.3,-0.5707,-0.6021,148.4,97.5,0.501
26.54,31902.4,34605.6,-0.4047,-0.9722,148.4,97.5,0.501
26.56,31827.1,34624.8,-0.7174,-0.9251,148.4,97.5,0.501
26.58,31789.4,34598.4,-0.8738,-0.9898,148.4,97.5,0.501
26.6,31753.9,34528.7,-1.0212,-1.1611,148.4,97.5,0.501
26.62,31793.1,34522.4,-0.8585,-1.1766,148.4,97.5,0.501
26.64,31791.2,34486.3,-0.8664,-1.2651,148.4,97.5,0.501
26.66,31806.0,34679.3,-0.8048,-0.7913,148.4,97.5,0.501
26.68,32000.2,34981.0,0.0017,-0.0504,148.4,97.5,0.501
26.7,32116.5,35317.6,0.4846,0.776,148.4,97.5,0.501
26.72,32300.2,35763.8,1.2477,1.8719,148.4,97.5,0.501
26.74,32318.6,35809.1,1.3243,1.983,148.4,97.5,0.501
26.76,32254.0,35560.0,1.0561,1.3714,148.4,97.5,0.501
26.78,32252.3,35546.4,1.0487,1.3381,148.4,97.5,0.501
26.8,32164.3,35272.6,0.6833,0.6656,148.4,97.5,0.501
26.82,32063.7,35138.4,0.2656,0.3362,148.4,97.5,0.501
26.84,32082.6,35132.6,0.344,0.3218,148.4,97.5,0.501
26.86,31984.9,35093.1,-0.0619,0.2249,148.4,97.5,0.501
26.88,31875.0,34978.0,-0.5185,-0.0578,148.4,97.5,0.501
26.9,31937.7,34782.9,-0.258,-0.5369,148.4,97.5,0.501
26.92,31907.4,34734.0,-0.3838,-0.6569,148.4,97.5,0.501
26.94,31779.5,34674.2,-0.9152,-0.8037,148.4,97.5,0.501
26.96,31761.4,34618.2,-0.9904,-0.9414,148.4,97.5,0.501
26.98,31926.6,34708.0,-0.304,-0.7207,148.4,97.5,0.501
27.0,31751.2,34555.5,-1.0324,-1.0953,148.4,97.5,0.501
27.02,31773.4,34462.0,-0.9405,-1.3247,148.4,97.5,0.501
27.04,31805.2,34418.7,-0.8083,-1.4311,148.4,97.5,0.501
27.06,31829.9,34679.0,-0.7055,-0.7921,148.4,97.5,0.501
27.08,31890.5,34887.3,-0.454,-0.2804,148.4,97.5,0.501
27.1,32110.3,35295.5,0.459,0.722,148.4,97.5,0.501
27.12,32312.6,35613.9,1.2995,1.5037,148.4,97.5,0.501
27.14,32268.0,35752.0,1.1139,1.8428,148.4,97.5,0.501
27.16,32360.2,35717.4,1.4971,1.7578,148.4,97.5,0.501
27.18,32225.3,35548.0,0.9368,1.3418,148.4,97.5,0.501
27.2,32027.2,35415.2,0.1138,1.0157,148.4,97.5,0.501
27.22,32059.1,35226.7,0.2463,0.5528,148.4,97.5,0.501
27.24,32070.8,35099.1,0.295,0.2395,148.4,97.5,0.501
27.26,32006.5,35092.6,0.0279,0.2237,148.4,97.5,0.501
27.28,32035.0,35019.0,0.1463,0.0429,148.4,97.5,0.501
27.3,31933.0,34777.8,-0.2773,-0.5494,148.4,97.5,0.501
27.32,31964.8,34714.6,-0.1454,-0.7045,148.4,97.5,0.501
27.34,31764.6,34680.9,-0.9768,-0.7873,148.4,97.5,0.501
27.36,31828.7,34653.5,-0.7108,-0.8546,148.4,97.5,0.501
27.38,31875.3,34631.9,-0.5172,-0.9077,148.4,97.5,0.501
27.4,31805.1,34511.7,-0.8085,-1.2028,148.4,97.5,0.501
27.42,31751.8,34412.5,-1.03,-1.4463,148.4,97.5,0.501
27.44,31871.7,34454.5,-0.532,-1.3433,148.4,97.5,0.501
27.46,31727.5,34575.6,-1.1308,-1.0459,148.4,97.5,0.501
27.48,31845.2,34846.0,-0.6422,-0.3819,148.4,97.5,0.501
27.5,32025.9,35295.5,0.1085,0.7218,148.4,97.5,0.501
27.52,32275.1,35602.8,1.1436,1.4766,148.4,97.5,0.501
27.54,32311.5,35830.9,1.2947,2.0366,148.4,97.5,0.501
27.56,32314.4,35657.4,1.3067,1.6105,148.4,97.5,0.501
27.58,32233.6,35534.2,0.9712,1.308,148.4,97.5,0.501
27.6,32161.5,35328.7,0.6717,0.8034,148.4,97.5,0.501
27.62,32140.7,35233.6,0.5854,0.5698,148.4,97.5,0.501
27.64,32070.3,35210.8,0.2928,0.5138,148.4,97.5,0.501
27.66,31996.8,35069.8,-0.0124,0.1676,148.4,97.5,0.501
27.68,32044.9,35000.6,0.1874,-0.0023,148.4,97.5,0.501
27.7,31857.7,34903.3,-0.5901,-0.2412,148.4,97.5,0.501
27.72,31892.5,34729.2,-0.4458,-0.6688,148.4,97.5,0.501
27.74,31861.1,34710.6,-0.576,-0.7145,148.4,97.5,0.501
27.76,31788.4,34633.7,-0.8779,-0.9032,148.4,97.5,0.501
27.78,31920.9,34594.8,-0.3275,-0.9988,148.4,97.5,0.501
27.8,31754.8,34609.4,-1.0175,-0.9629,148.4,97.5,0.501
27.82,31784.8,34490.0,-0.893,-1.2561,148.4,97.5,0.501
27.84,31800.8,34435.5,-0.8267,-1.3899,148.4,97.5,0.501
27.86,31781.2,34495.9,-0.9081,-1.2415,148.4,97.5,0.501
27.88,31846.4,34756.5,-0.637,-0.6015,148.4,97.5,0.501
27.9,32027.9,35138.8,0.1166,0.337,148.4,97.5,0.501
27.92,32236.9,35485.3,0.9851,1.1879,148.4,97.5,0.501
27.94,32374.0,35743.3,1.5545,1.8214,148.4,97.5,0.501
27.96,32353.3,35724.1,1.4684,1.7744,148.4,97.5,0.501
27.98,32287.0,35585.8,1.193,1.4347,148.4,97.5,0.501
28.0,32232.9,35334.9,0.9684,0.8185,148.4,97.5,0.501
28.02,32068.7,35099.7,0.2861,0.241,148.4,97.5,0.501
28.04,32112.6,35074.7,0.4684,0.1797,148.4,97.5,0.501
28.06,32027.4,35074.3,0.1148,0.1786,148.4,97.5,0.501
28.08,31941.5,35003.7,-0.2419,0.0054,148.4,97.5,0.501
28.1,31992.7,34891.4,-0.0293,-0.2704,148.4,97.5,0.501
28.12,31844.0,34749.6,-0.6471,-0.6186,148.4,97.5,0.501
28.14,31904.9,34733.8,-0.3942,-0.6573,148.4,97.5,0.501
28.16,31802.0,34668.4,-0.8214,-0.8179,148.4,97.5,0.501
28.18,31868.3,34638.4,-0.5463,-0.8916,148.4,97.5,0.501
28.2,31873.9,34582.6,-0.5229,-1.0287,148.4,97.5,0.501
28.22,31786.9,34500.4,-0.8841,-1.2304,148.4,97.5,0.501
28.24,31805.4,34458.3,-0.8074,-1.334,148.4,97.5,0.501
28.26,31729.6,34536.2,-1.1222,-1.1427,148.4,97.5,0.501
28.28,31813.3,34769.9,-0.7744,-0.5689,148.4,97.5,0.501
28.3,31971.3,35105.6,-0.1184,0.2556,148.4,97.5,0.501
28.32,32195.0,35410.4,0.8109,1.0041,148.4,97.5,0.501
28.34,32294.3,35694.2,1.2231,1.7009,148.4,97.5,0.501
28.36,32288.9,35776.5,1.201,1.9029,148.4,97.5,0.501
28.38,32351.3,35540.5,1.46,1.3234,148.4,97.5,0.501
28.4,32200.8,35463.8,0.8348,1.1352,148.4,97.5,0.501
28.42,32095.1,35280.5,0.396,0.685,148.4,97.5,0.501
28.44,32011.5,35143.3,0.0485,0.3482,148.4,97.5,0.501
28.46,32148.3,35068.6,0.6168,0.1647,148.4,97.5,0.501
28.48,32080.9,35061.2,0.3368,0.1466,148.4,97.5,0.501
28.5,32004.7,34930.2,0.0202,-0.175,148.4,97.5,0.501
28.52,31912.2,34746.3,-0.364,-0.6267,148.4,97.5,0.501
28.54,31834.9,34766.5,-0.6848,-0.5772,148.4,97.5,0.501
28.56,31874.1,34654.2,-0.5222,-0.8528,148.4,97.5,0.501
28.58,31924.1,34668.4,-0.3144,-0.8179,148.4,97.5,0.501
28.6,31854.2,34690.4,-0.6049,-0.764,148.4,97.5,0.501
28.62,31794.7,34477.6,-0.8518,-1.2866,148.4,97.5,0.501
28.64,31648.8,34459.9,-1.458,-1.33,148.4,97.5,0.501
28.66,31720.9,34507.8,-1.1585,-1.2125,148.4,97.5,0.501
28.68,31830.8,34516.3,-0.7018,-1.1914,148.4,97.5,0.501
28.7,31999.3,35055.2,-0.0018,0.1319,148.4,97.5,0.501
28.72,32163.4,35259.5,0.6796,0.6335,148.4,97.5,0.501
28.74,32275.0,35754.1,1.1433,1.8479,148.4,97.5,0.501
28.76,32367.2,35781.7,1.5261,1.9158,148.4,97.5,0.501
28.78,32318.2,35742.2,1.3227,1.8187,148.4,97.5,0.501
28.8,32189.1,35581.3,0.7865,1.4237,148.4,97.5,0.501
28.82,32168.3,35256.3,0.7,0.6255,148.4,97.5,0.501
28.84,32106.2,35145.4,0.442,0.3533,148.4,97.5,0.501
28.86,32004.2,35186.1,0.0183,0.4532,148.4,97.5,0.501
28.88,31918.6,35034.1,-0.3372,0.0799,148.4,97.5,0.501
28.9,32058.5,35027.7,0.2437,0.0643,148.4,97.5,0.501
28.92,31988.8,34824.4,-0.0456,-0.4348,148.4,97.5,0.501
28.94,31896.4,34592.9,-0.4293,-1.0033,148.4,97.5,0.501
28.96,31906.4,34695.3,-0.388,-0.7518,148.4,97.5,0.501
28.98,31786.9,34722.5,-0.8841,-0.6852,148.4,97.5,0.501
29.0,31776.4,34708.9,-0.928,-0.7185,148.4,97.5,0.501
29.02,31824.8,34540.4,-0.7266,-1.1322,148.4,97.5,0.501
29.04,31848.8,34531.0,-0.6273,-1.1554,148.4,97.5,0.501
29.06,31734.8,34441.7,-1.1005,-1.3746,148.4,97.5,0.501
29.08,31848.8,34559.9,-0.6271,-1.0844,148.4,97.5,0.501
29.1,32016.7,34837.4,0.0703,-0.403,148.4,97.5,0.501
29.12,32091.0,35240.3,0.3787,0.5863,148.4,97.5,0.501
29.14,32279.8,35590.7,1.1631,1.4466,148.4,97.5,0.501
29.16,32294.4,35814.0,1.2237,1.9951,148.4,97.5,0.501
29.18,32298.2,35761.0,1.2394,1.8649,148.4,97.5,0.501
29.2,32303.6,35572.8,1.262,1.4028,148.4,97.5,0.501
29.22,32097.6,35310.0,0.4062,0.7574,148.4,97.5,0.501
29.24,32024.5,35186.3,0.1027,0.4536,148.4,97.5,0.501
29.26,32054.9,35066.1,0.2291,0.1585,148.4,97.5,0.501
29.28,31976.6,35108.4,-0.0963,0.2624,148.4,97.5,0.501
29.3,31944.7,34971.2,-0.2287,-0.0746,148.4,97.5,0.501
29.32,31982.8,34758.2,-0.0707,-0.5975,148.4,97.5,0.501
29.34,31832.4,34779.7,-0.6952,-0.5446,148.4,97.5,0.501
29.36,31919.4,34683.5,-0.3341,-0.7809,148.4,97.5,0.501
29.38,31954.3,34677.5,-0.189,-0.7956,148.4,97.5,0.501
29.4,31808.7,34634.7,-0.7936,-0.9007,148.4,97.5,0.501
29.42,31840.5,34463.4,-0.6615,-1.3214,148.4,97.5,0.501
29.44,31678.5,34475.9,-1.3347,-1.2906,148.4,97.5,0.501
29.46,31725.0,34423.3,-1.1415,-1.4199,148.4,97.5,0.501
29.48,31714.2,34556.9,-1.1862,-1.0919,148.4,97.5,0.501
29.5,31879.9,34788.8,-0.4982,-0.5222,148.4,97.5,0.501
29.52,32058.2,35105.4,0.2427,0.255,148.4,97.5,0.501
29.54,32182.0,35561.6,0.7568,1.3753,148.4,97.5,0.501
29.56,32325.0,35709.8,1.3506,1.7391,148.4,97.5,0.501
29.58,32353.2,35788.4,1.4681,1.9321,148.4,97.5,0.501
29.6,32269.0,35558.4,1.1182,1.3674,148.4,97.5,0.501
29.62,32175.5,35327.6,0.7298,0.8008,148.4,97.5,0.501
29.64,32040.0,35317.2,0.1672,0.775,148.4,97.5,0.501
29.66,32021.7,35095.6,0.0911,0.231,148.4,97.5,0.501
29.68,32076.8,35053.6,0.3198,0.1278,148.4,97.5,0.501
29.7,32015.2,35095.5,0.0641,0.2307,148.4,97.5,0.501
29.72,31926.9,34882.6,-0.3029,-0.2921,148.4,97.5,0.501
29.74,31957.9,34835.2,-0.1742,-0.4084,148.4,97.5,0.501
29.76,31866.8,34814.2,-0.5522,-0.46,148.4,97.5,0.501
29.78,31822.0,34617.7,-0.7384,-0.9424,148.4,97.5,0.501
29.8,31857.4,34659.0,-0.5913,-0.8411,148.4,97.5,0.501
29.82,31815.5,34667.7,-0.7656,-0.8198,148.4,97.5,0.501
29.84,31759.6,34419.1,-0.9978,-1.4301,148.4,97.5,0.501
29.86,31632.0,34460.6,-1.5278,-1.3283,148.4,97.5,0.501
29.88,31711.8,34523.1,-1.1961,-1.1749,148.4,97.5,0.501
29.9,31875.1,34791.8,-0.5179,-0.515,148.4,97.5,0.501
29.92,32088.0,35101.6,0.3663,0.2456,148.4,97.5,0.501
29.94,32207.9,35506.9,0.8643,1.241,148.4,97.5,0.501
29.96,32320.3,35797.9,1.3315,1.9555,148.4,97.5,0.501
29.98,32357.9,35804.9,1.4873,1.9727,148.4,97.5,0.501
30.0,32254.4,35558.9,1.0574,1.3686,148.4,97.5,0.501
30.02,32257.7,35366.6,1.0712,0.8964,148.4,97.5,0.501
30.04,32122.9,35163.0,0.5115,0.3964,148.4,97.5,0.501
30.06,32067.4,35119.6,0.281,0.2899,148.4,97.5,0.501
30.08,32010.8,34989.7,0.0459,-0.029,148.4,97.5,0.501
30.1,32036.2,35027.4,0.1514,0.0635,148.4,97.5,0.501
30.12,31906.3,34831.5,-0.3884,-0.4175,148.4,97.5,0.501
30.14,31940.9,34890.2,-0.2446,-0.2735,148.4,97.5,0.501
30.16,31857.2,34669.0,-0.5922,-0.8164,148.4,97.5,0.501
30.18,31840.5,34749.6,-0.6617,-0.6187,148.4,97.5,0.501
30.2,31848.7,34609.5,-0.6277,-0.9627,148.4,97.5,0.501
30.22,31786.9,34628.1,-0.8843,-0.917,148.4,97.5,0.501
30.24,31787.5,34542.0,-0.8817,-1.1284,148.4,97.5,0.501
30.26,31788.1,34398.8,-0.8792,-1.4801,148.4,97.5,0.501
30.28,31754.3,34460.2,-1.0197,-1.3291,148.4,97.5,0.501
30.3,31780.1,34639.2,-0.9125,-0.8896,148.4,97.5,0.501
30.32,31951.4,35051.4,-0.2008,0.1224,148.4,97.5,0.501
30.34,32197.8,35317.0,0.8224,0.7748,148.4,97.5,0.501
30.36,32231.4,35712.2,0.962,1.745,148.4,97.5,0.501
30.38,32293.8,35653.4,1.2211,1.6007,148.4,97.5,0.501
30.4,32237.9,35664.7,0.989,1.6283,148.4,97.5,0.501
30.42,32126.1,35497.7,0.5245,1.2184,148.4,97.5,0.501
30.44,32055.2,35204.2,0.23,0.4978,148.4,97.5,0.501
30.46,31974.1,35094.3,-0.1068,0.2279,148.4,97.5,0.501
30.48,32000.7,35051.7,0.0036,0.1232,148.4,97.5,0.501
30.5,31953.6,35043.1,-0.1918,0.1021,148.4,97.5,0.501
30.52,32070.3,34939.6,0.2931,-0.1522,148.4,97.5,0.501
30.54,31872.1,34962.6,-0.5302,-0.0955,148.4,97.5,0.501
30.56,31855.9,34724.6,-0.5977,-0.6801,148.4,97.5,0.501
30.58,31900.7,34725.2,-0.4115,-0.6786,148.4,97.5,0.501
30.6,31779.9,34622.2,-0.9133,-0.9313,148.4,97.5,0.501
30.62,31819.7,34608.2,-0.7479,-0.9657,148.4,97.5,0.501
30.64,31830.3,34505.5,-0.7042,-1.2179,148.4,97.5,0.501
30.66,31750.7,34495.2,-1.0348,-1.2434,148.4,97.5,0.501
30.68,31700.1,34497.3,-1.2447,-1.238,148.4,97.5,0.501
30.7,31826.7,34572.9,-0.719,-1.0525,148.4,97.5,0.501
30.72,32001.2,34942.7,0.0059,-0.1445,148.4,97.5,0.501
30.74,32208.6,35268.2,0.8675,0.6549,148.4,97.5,0.501
30.76,32310.5,35621.3,1.2907,1.5219,148.4,97.5,0.501
30.78,32353.5,35748.0,1.4694,1.8329,148.4,97.5,0.501
30.8,32282.6,35738.6,1.1747,1.8099,148.4,97.5,0.501
30.82,32222.2,35424.2,0.9237,1.0378,148.4,97.5,0.501
30.84,32180.5,35258.6,0.7505,0.6313,148.4,97.5,0.501
30.86,32086.9,35171.9,0.3617,0.4184,148.4,97.5,0.501
30.88,32027.5,35056.2,0.1153,0.1344,148.4,97.5,0.501
30.9,32048.2,35040.2,0.2011,0.0949,148.4,97.5,0.501
30.92,32070.2,35114.3,0.2925,0.2769,148.4,97.5,0.501
30.94,31939.2,34881.3,-0.2516,-0.2953,148.4,97.5,0.501
30.96,31879.2,34708.1,-0.501,-0.7204,148.4,97.5,0.501
30.98,31888.2,34667.4,-0.4635,-0.8205,148.4,97.5,0.501
31.0,31851.9,34654.9,-0.6144,-0.8512,148.4,97.5,0.501
31.02,31841.8,34675.3,-0.6563,-0.801,148.4,97.5,0.501
31.04,31802.3,34613.3,-0.8202,-0.9534,148.4,97.5,0.501
31.06,31777.4,34560.9,-0.9236,-1.0819,148.4,97.5,0.501
31.08,31761.1,34417.4,-0.9913,-1.4342,148.4,97.5,0.501
31.1,31758.5,34489.8,-1.0021,-1.2566,148.4,97.5,0.501
31.12,31890.6,34783.4,-0.4534,-0.5356,148.4,97.5,0.501
31.14,32081.2,35232.2,0.3382,0.5664,148.4,97.5,0.501
31.16,32338.7,35513.5,1.4076,1.2572,148.4,97.5,0.501
31.18,32370.4,35770.6,1.5393,1.8884,148.4,97.5,0.501
31.2,32302.7,35709.4,1.2584,1.7382,148.4,97.5,0.501
31.22,32220.9,35625.6,0.9182,1.5323,148.4,97.5,0.501
31.24,32288.9,35333.4,1.2008,0.8149,148.4,97.5,0.501
31.26,32134.0,35251.1,0.5574,0.6129,148.4,97.5,0.501
31.28,32152.0,35247.2,0.6322,0.6033,148.4,97.5,0.501
31.3,32018.0,35039.5,0.0758,0.0934,148.4,97.5,0.501
31.32,32050.8,34868.3,0.2117,-0.3271,148.4,97.5,0.501
31.34,31900.1,34894.0,-0.4141,-0.2641,148.4,97.5,0.501
31.36,31862.7,34631.8,-0.5693,-0.9079,148.4,97.5,0.501
31.38,31886.6,34695.6,-0.47,-0.7511,148.4,97.5,0.501
31.4,31897.7,34696.9,-0.4241,-0.748,148.4,97.5,0.501
31.42,31785.1,34639.8,-0.8919,-0.8883,148.4,97.5,0.501
31.44,31839.4,34565.4,-0.6663,-1.0709,148.4,97.5,0.501
31.46,31881.5,34469.8,-0.4914,-1.3057,148.4,97.5,0.501
31.48,31715.0,34505.0,-1.1829,-1.2191,148.4,97.5,0.501
31.5,31699.3,34493.6,-1.2479,-1.2472,148.4,97.5,0.501
31.52,31861.5,34699.7,-0.5745,-0.7411,148.4,97.5,0.501
31.54,32119.5,35134.4,0.4974,0.3262,148.4,97.5,0.501
31.56,32288.4,35467.6,1.1988,1.1445,148.4,97.5,0.501
31.58,32377.7,35725.8,1.5696,1.7785,148.4,97.5,0.501
31.6,32326.0,35715.3,1.3549,1.7528,148.4,97.5,0.501
31.62,32289.7,35533.8,1.2042,1.3071,148.4,97.5,0.501
31.64,32134.9,35370.8,0.5612,0.9069,148.4,97.5,0.501
31.66,32085.6,35179.8,0.3566,0.4378,148.4,97.5,0.501
31.68,32034.3,35121.5,0.1435,0.2946,148.4,97.5,0.501
31.7,32083.0,34973.8,0.3457,-0.068,148.4,97.5,0.501
31.72,32117.8,34902.6,0.4903,-0.2429,148.4,97.5,0.501
31.74,31980.3,34946.5,-0.081,-0.135,148.4,97.5,0.501
31.76,31868.5,34788.7,-0.5453,-0.5225,148.4,97.5,0.501
31.78,31963.6,34718.8,-0.1504,-0.6943,148.4,97.5,0.501
31.8,31828.4,34629.2,-0.7118,-0.9142,148.4,97.5,0.501
31.82,31853.8,34670.4,-0.6063,-0.8131,148.4,97.5,0.501
31.84,31863.7,34601.5,-0.5653,-0.9823,148.4,97.5,0.501
31.86,31777.5,34555.7,-0.9232,-1.0947,148.4,97.5,0.501
31.88,31740.4,34390.4,-1.0775,-1.5006,148.4,97.5,0.501
31.9,31744.3,34504.4,-1.0611,-1.2207,148.4,97.5,0.501
31.92,31793.2,34736.8,-0.8583,-0.65,148.4,97.5,0.501
31.94,32023.6,35009.0,0.0988,0.0184,148.4,97.5,0.501
31.96,32255.7,35406.1,1.0629,0.9934,148.4,97.5,0.501
31.98,32303.2,35574.2,1.2604,1.4062,148.4,97.5,0.501
32.0,32282.3,35684.7,1.1733,1.6775,148.4,97.5,0.501
32.02,32266.4,35539.3,1.1073,1.3204,148.4,97.5,0.501
32.04,32215.4,35452.2,0.8957,1.1066,148.4,97.5,0.501
32.06,32103.0,35218.9,0.4285,0.5338,148.4,97.5,0.501
32.08,32077.3,35114.8,0.3219,0.2782,148.4,97.5,0.501
32.1,32023.2,35091.8,0.0971,0.2216,148.4,97.5,0.501
32.12,31966.9,35011.0,-0.1366,0.0234,148.4,97.5,0.501
32.14,32004.2,34904.4,0.0183,-0.2385,148.4,97.5,0.501
32.16,31925.9,34773.3,-0.3068,-0.5604,148.4,97.5,0.501
32.18,31816.7,34758.1,-0.7605,-0.5977,148.4,97.5,0.501
32.2,31858.6,34707.0,-0.5864,-0.7233,148.4,97.5,0.501
32.22,31875.4,34643.0,-0.5168,-0.8804,148.4,97.5,0.501
32.24,31765.7,34594.7,-0.9722,-0.9989,148.4,97.5,0.501
32.26,31801.4,34517.5,-0.824,-1.1885,148.4,97.5,0.501
32.28,31799.5,34455.0,-0.8319,-1.3421,148.4,97.5,0.501
32.3,31806.1,34526.7,-0.8044,-1.1659,148.4,97.5,0.501
32.32,31764.0,34668.7,-0.9795,-0.8174,148.4,97.5,0.501
32.34,31954.6,35004.3,-0.1878,0.0068,148.4,97.5,0.501
32.36,32218.2,35384.7,0.9071,0.9409,148.4,97.5,0.501
32.38,32317.2,35771.6,1.3183,1.8909,148.4,97.5,0.501
32.4,32337.1,35811.5,1.4011,1.989,148.4,97.5,0.501
32.42,32207.3,35629.8,0.8621,1.5428,148.4,97.5,0.501
32.44,32187.3,35398.4,0.779,0.9744,148.4,97.5,0.501
32.46,32126.6,35297.9,0.5267,0.7278,148.4,97.5,0.501
32.48,32094.3,35191.4,0.3925,0.4661,148.4,97.5,0.501
32.5,32051.2,35063.7,0.2135,0.1526,148.4,97.5,0.501
32.52,32034.5,34972.1,0.1442,-0.0722,148.4,97.5,0.501
32.54,31892.4,34954.8,-0.4461,-0.1148,148.4,97.5,0.501
32.56,31899.7,34931.1,-0.4156,-0.1728,148.4,97.5,0.501
32.58,31907.7,34801.2,-0.3827,-0.492,148.4,97.5,0.501
32.6,31911.3,34576.4,-0.3676,-1.044,148.4,97.5,0.501
32.62,31864.8,34595.6,-0.5608,-0.9968,148.4,97.5,0.501
32.64,31801.5,34575.6,-0.8235,-1.0458,148.4,97.5,0.501
32.66,31764.3,34613.9,-0.978,-0.9519,148.4,97.5,0.501
32.68,31688.8,34524.1,-1.2917,-1.1723,148.4,97.5,0.501
32.7,31746.1,34515.3,-1.0537,-1.194,148.4,97.5,0.501
32.72,31771.0,34562.4,-0.9504,-1.0784,148.4,97.5,0.501
32.74,31943.3,34851.0,-0.2347,-0.3697,148.4,97.5,0.501
32.76,32143.2,35240.8,0.5955,0.5875,148.4,97.5,0.501
32.78,32248.9,35505.5,1.0348,1.2376,148.4,97.5,0.501
32.8,32374.3,35718.5,1.5554,1.7606,148.4,97.5,0.501
32.82,32367.6,35794.3,1.5276,1.9466,148.4,97.5,0.501
32.84,32251.1,35578.1,1.0438,1.4158,148.4,97.5,0.501
32.86,32142.0,35386.0,0.5905,0.944,148.4,97.5,0.501
32.88,32138.9,35182.7,0.5779,0.4449,148.4,97.5,0.501
32.9,32079.1,35172.9,0.3295,0.4209,148.4,97.5,0.501
32.92,32008.5,35002.4,0.0362,0.0021,148.4,97.5,0.501
32.94,31947.0,34950.7,-0.2194,-0.1248,148.4,97.5,0.501
32.96,32023.0,34893.2,0.0966,-0.2659,148.4,97.5,0.501
32.98,31851.7,34745.4,-0.6152,-0.6289,148.4,97.5,0.501
33.0,31788.3,34682.2,-0.8785,-0.7841,148.4,97.5,0.501
33.02,31736.4,34815.6,-1.0942,-0.4566,148.4,97.5,0.501
33.04,31800.5,34651.1,-0.8277,-0.8605,148.4,97.5,0.501
33.06,31766.7,34629.5,-0.9681,-0.9136,148.4,97.5,0.501
33.08,31789.8,34485.5,-0.8723,-1.2671,148.4,97.5,0.501
33.1,31831.1,34550.5,-0.7006,-1.1076,148.4,97.5,0.501
33.12,31861.0,34513.5,-0.5763,-1.1984,148.4,97.5,0.501
33.14,31858.9,34822.9,-0.5854,-0.4386,148.4,97.5,0.501
33.16,32119.7,35185.5,0.4979,0.4518,148.4,97.5,0.501
33.18,32222.0,35475.9,0.9228,1.1649,148.4,97.5,0.501
33.2,32322.1,35731.1,1.3388,1.7916,148.4,97.5,0.501
33.22,32296.9,35762.6,1.2341,1.8687,148.4,97.5,0.501
33.24,32228.8,35506.4,0.9511,1.2396,148.4,97.5,0.501
33.26,32103.6,35355.8,0.4311,0.8699,148.4,97.5,0.501
33.28,32045.8,35152.1,0.1911,0.3697,148.4,97.5,0.501
33.3,32044.8,35040.1,0.1871,0.0947,148.4,97.5,0.501
33.32,32039.8,35055.2,0.1664,0.1317,148.4,97.5,0.501
33.34,31947.4,34958.6,-0.2174,-0.1053,148.4,97.5,0.501
33.36,31992.5,34803.1,-0.0303,-0.4872,148.4,97.5,0.501
33.38,31822.2,34761.0,-0.7378,-0.5905,148.4,97.5,0.501
33.4,31886.2,34668.2,-0.4717,-0.8186,148.4,97.5,0.501
33.42,31872.7,34612.6,-0.5281,-0.9551,148.4,97.5,0.501
33.44,31825.1,34672.5,-0.7257,-0.8079,148.4,97.5,0.501
33.46,31885.5,34628.2,-0.4746,-0.9167,148.4,97.5,0.501
33.48,31851.4,34532.0,-0.6164,-1.1529,148.4,97.5,0.501
33.5,31792.4,34570.2,-0.8615,-1.0592,148.4,97.5,0.501
33.52,31774.9,34514.5,-0.9339,-1.1959,148.4,97.5,0.501
33.54,31940.9,34718.6,-0.2444,-0.6948,148.4,97.5,0.501
33.56,32024.6,35144.3,0.103,0.3506,148.4,97.5,0.501
33.58,32200.9,35440.5,0.8354,1.0778,148.4,97.5,0.501
33.6,32286.9,35687.6,1.1927,1.6848,148.4,97.5,0.501
33.62,32269.8,35727.2,1.1215,1.7818,148.4,97.5,0.501
33.64,32302.9,35611.7,1.2591,1.4983,148.4,97.5,0.501
33.66,32182.0,35471.1,0.757,1.153,148.4,97.5,0.501
33.68,32167.3,35220.7,0.6959,0.5381,148.4,97.5,0.501
33.7,32069.8,35135.7,0.2907,0.3295,148.4,97.5,0.501
33.72,32063.8,35138.4,0.2658,0.3361,148.4,97.5,0.501
33.74,31959.2,35000.3,-0.1685,-0.003,148.4,97.5,0.501
33.76,32047.9,34863.3,0.1999,-0.3394,148.4,97.5,0.501
33.78,31940.4,34796.1,-0.2465,-0.5045,148.4,97.5,0.501
33.8,31878.2,34674.5,-0.5051,-0.8029,148.4,97.5,0.501
33.82,31821.2,34614.9,-0.7418,-0.9493,148.4,97.5,0.501
33.84,31815.2,34723.5,-0.7666,-0.6827,148.4,97.5,0.501
33.86,31810.4,34632.3,-0.7867,-0.9066,148.4,97.5,0.501
33.88,31762.0,34521.7,-0.9877,-1.1782,148.4,97.5,0.501
33.9,31703.7,34502.1,-1.2297,-1.2262,148.4,97.5,0.501
33.92,31791.8,34497.9,-0.8639,-1.2366,148.4,97.5,0.501
33.94,31822.0,34646.1,-0.7385,-0.8727,148.4,97.5,0.501
33.96,32060.7,34975.1,0.2529,-0.0649,148.4,97.5,0.501
33.98,32150.7,35313.4,0.6267,0.7659,148.4,97.5,0.501
34.0,32275.2,35725.7,1.1439,1.7783,148.4,97.5,0.501
34.02,32339.8,35900.8,1.4121,2.2082,148.4,97.5,0.501
34.04,32360.0,35726.7,1.4962,1.7805,148.4,97.5,0.501
34.06,32253.7,35450.3,1.0546,1.102,148.4,97.5,0.501
34.08,32100.9,35242.6,0.4199,0.592,148.4,97.5,0.501
34.1,32084.3,35175.2,0.3509,0.4264,148.4,97.5,0.501
34.12,32038.0,35128.1,0.1589,0.3107,148.4,97.5,0.501
34.14,32025.1,34947.6,0.105,-0.1324,148.4,97.5,0.501
34.16,31954.6,34875.7,-0.1877,-0.3091,148.4,97.5,0.501
34.18,32023.0,34736.7,0.0962,-0.6504,148.4,97.5,0.501
34.2,31854.8,34785.2,-0.6021,-0.5313,148.4,97.5,0.501
34.22,31822.1,34772.1,-0.738,-0.5634,148.4,97.5,0.501
34.24,31978.6,34578.5,-0.0882,-1.0387,148.4,97.5,0.501
34.26,31825.7,34619.0,-0.723,-0.9394,148.4,97.5,0.501
34.28,31827.6,34598.5,-0.7152,-0.9896,148.4,97.5,0.501
34.3,31743.1,34518.0,-1.0663,-1.1873,148.4,97.5,0.501
34.32,31772.9,34493.6,-0.9423,-1.2472,148.4,97.5,0.501
34.34,31825.6,34598.8,-0.7237,-0.9889,148.4,97.5,0.501
34.36,31962.9,34953.6,-0.1533,-0.1177,148.4,97.5,0.501
34.38,32133.0,35439.7,0.5531,1.0758,148.4,97.5,0.501
34.4,32312.4,35640.9,1.2986,1.57,148.4,97.5,0.501
34.42,32311.3,35744.3,1.294,1.824,148.4,97.5,0.501
34.44,32230.9,35664.6,0.9598,1.6283,148.4,97.5,0.501
34.46,32146.8,35513.3,0.6104,1.2567,148.4,97.5,0.501
34.48,32074.4,35241.7,0.3099,0.5897,148.4,97.5,0.501
34.5,32078.5,35209.2,0.3269,0.51,148.4,97.5,0.501
34.52,32168.0,35127.9,0.6988,0.3103,148.4,97.5,0.501
34.54,32001.9,35039.0,0.0089,0.0921,148.4,97.5,0.501
34.56,31890.8,34974.0,-0.4526,-0.0677,148.4,97.5,0.501
34.58,31892.7,34845.0,-0.4447,-0.3843,148.4,97.5,0.501
34.6,31932.0,34760.7,-0.2818,-0.5913,148.4,97.5,0.501
34.62,31835.7,34696.0,-0.6815,-0.7501,148.4,97.5,0.501
34.64,31922.1,34616.6,-0.3228,-0.9451,148.4,97.5,0.501
34.66,31947.3,34567.6,-0.218,-1.0654,148.4,97.5,0.501
34.68,31806.1,34541.2,-0.8046,-1.1303,148.4,97.5,0.501
34.7,31751.7,34477.9,-1.0306,-1.2859,148.4,97.5,0.501
34.72,31802.8,34404.6,-0.8184,-1.4657,148.4,97.5,0.501
34.74,31857.9,34546.8,-0.5894,-1.1166,148.4,97.5,0.501
34.76,31924.6,34825.6,-0.3122,-0.4321,148.4,97.5,0.501
34.78,32012.0,35228.9,0.0506,0.5582,148.4,97.5,0.501
34.8,32293.1,35558.7,1.2184,1.368,148.4,97.5,0.501
34.82,32238.0,35784.1,0.9894,1.9216,148.4,97.5,0.501
34.84,32330.0,35753.5,1.3717,1.8465,148.4,97.5,0.501
34.86,32214.0,35552.2,0.8897,1.3523,148.4,97.5,0.501
34.88,32127.1,35423.1,0.5287,1.0351,148.4,97.5,0.501
34.9,32055.8,35221.3,0.2325,0.5396,148.4,97.5,0.501
34.92,31968.2,35184.3,-0.1312,0.4487,148.4,97.5,0.501
34.94,32045.1,35139.6,0.1882,0.3391,148.4,97.5,0.501
34.96,31942.9,35006.3,-0.2362,0.0118,148.4,97.5,0.501
34.98,31941.0,34826.4,-0.2443,-0.4301,148.4,97.5,0.501
35.0,31887.0,34797.6,-0.4684,-0.5007,148.4,97.5,0.501
35.02,31898.7,34627.2,-0.4199,-0.9192,148.4,97.5,0.501
35.04,31782.2,34657.8,-0.9039,-0.8441,148.4,97.5,0.501
35.06,31850.6,34656.8,-0.6195,-0.8466,148.4,97.5,0.501
35.08,31811.9,34635.8,-0.7804,-0.8979,148.4,97.5,0.501
35.1,31814.7,34451.3,-0.769,-1.351,148.4,97.5,0.501
35.12,31849.7,34488.9,-0.6235,-1.2587,148.4,97.5,0.501
35.14,31865.6,34521.1,-0.5575,-1.1796,148.4,97.5,0.501
35.16,31836.1,34716.9,-0.6799,-0.6988,148.4,97.5,0.501
35.18,32122.1,35142.7,0.5082,0.3466,148.4,97.5,0.501
35.2,32153.7,35461.3,0.6394,1.1289,148.4,97.5,0.501
35.22,32341.5,35735.3,1.4192,1.8017,148.4,97.5,0.501
35.24,32369.1,35795.6,1.5341,1.9499,148.4,97.5,0.501
35.26,32346.8,35556.8,1.4414,1.3635,148.4,97.5,0.501
35.28,32130.6,35374.0,0.5433,0.9146,148.4,97.5,0.501
35.3,32090.8,35165.5,0.3779,0.4025,148.4,97.5,0.501
35.32,31983.4,35168.8,-0.0683,0.4107,148.4,97.5,0.501
35.34,31991.0,35086.2,-0.0365,0.208,148.4,97.5,0.501
35.36,32061.6,35052.3,0.2566,0.1246,148.4,97.5,0.501
35.38,31915.9,34897.1,-0.3485,-0.2563,148.4,97.5,0.501
35.4,31948.5,34847.5,-0.2129,-0.3783,148.4,97.5,0.501
35.42,31947.2,34741.5,-0.2186,-0.6385,148.4,97.5,0.501
35.44,31872.2,34663.3,-0.5298,-0.8306,148.4,97.5,0.501
35.46,31840.9,34571.3,-0.6601,-1.0563,148.4,97.5,0.501
35.48,31826.7,34662.8,-0.719,-0.8317,148.4,97.5,0.501
35.5,31731.9,34559.8,-1.1128,-1.0846,148.4,97.5,0.501
35.52,31797.1,34538.3,-0.8418,-1.1374,148.4,97.5,0.501
35.54,31671.5,34467.8,-1.3638,-1.3106,148.4,97.5,0.501
35.56,31818.0,34729.9,-0.7551,-0.6669,148.4,97.5,0.501
35.58,32117.7,35150.7,0.4897,0.3663,148.4,97.5,0.501
35.6,32317.2,35460.9,1.3185,1.1279,148.4,97.5,0.501
35.62,32276.6,35742.4,1.1497,1.8192,148.4,97.5,0.501
35.64,32337.0,35707.4,1.4006,1.7332,148.4,97.5,0.501
35.66,32206.7,35545.6,0.8595,1.3359,148.4,97.5,0.501
35.68,32255.5,35337.7,1.0621,0.8255,148.4,97.5,0.501
35.7,32106.0,35123.2,0.4412,0.2988,148.4,97.5,0.501
35.72,32002.6,35182.5,0.0117,0.4444,148.4,97.5,0.501
35.74,32104.9,35071.4,0.4368,0.1716,148.4,97.5,0.501
35.76,31999.4,35076.6,-0.0016,0.1844,148.4,97.5,0.501
35.78,32002.4,34867.9,0.0107,-0.3282,148.4,97.5,0.501
35.8,31898.0,34797.6,-0.4226,-0.5008,148.4,97.5,0.501
35.82,31921.0,34818.5,-0.3271,-0.4495,148.4,97.5,0.501
35.84,31841.8,34676.7,-0.6561,-0.7976,148.4,97.5,0.501
35.86,31833.4,34725.2,-0.691,-0.6786,148.4,97.5,0.501
35.88,31755.8,34621.6,-1.0134,-0.9329,148.4,97.5,0.501
35.9,31808.0,34531.4,-0.7965,-1.1543,148.4,97.5,0.501
35.92,31820.1,34475.7,-0.7465,-1.2912,148.4,97.5,0.501
35.94,31721.2,34527.3,-1.1571,-1.1644,148.4,97.5,0.501
35.96,31796.6,34672.7,-0.8441,-0.8074,148.4,97.5,0.501
35.98,31840.8,34975.4,-0.6605,-0.0642,148.4,97.5,0.501
36.0,32162.4,35410.9,0.6756,1.0051,148.4,97.5,0.501
36.02,32347.4,35719.4,1.4437,1.7629,148.4,97.5,0.501
36.04,32356.0,35739.6,1.4794,1.8124,148.4,97.5,0.501
36.06,32407.3,35743.5,1.6928,1.8219,148.4,97.5,0.501
36.08,32204.5,35480.4,0.8504,1.176,148.4,97.5,0.501
36.1,32089.2,35348.1,0.3715,0.8511,148.4,97.5,0.501
36.12,32011.9,35086.3,0.0503,0.2081,148.4,97.5,0.501
36.14,32090.4,35064.9,0.3766,0.1556,148.4,97.5,0.501
36.16,31999.3,35037.7,-0.0021,0.0889,148.4,97.5,0.501
36.18,31939.0,35007.2,-0.2523,0.014,148.4,97.5,0.501
36.2,31929.4,34870.7,-0.2925,-0.3213,148.4,97.5,0.501
36.22,31924.0,34814.5,-0.3148,-0.4594,148.4,97.5,0.501
36.24,31770.5,34755.4,-0.9524,-0.6043,148.4,97.5,0.501
36.26,31787.4,34643.7,-0.882,-0.8787,148.4,97.5,0.501
36.28,31781.1,34657.6,-0.9084,-0.8445,148.4,97.5,0.501
36.3,31641.4,34570.3,-1.4887,-1.0588,148.4,97.5,0.501
36.32,31788.1,34425.8,-0.8792,-1.4136,148.4,97.5,0.501
36.34,31720.1,34463.7,-1.1617,-1.3205,148.4,97.5,0.501
36.36,31766.1,34651.2,-0.9708,-0.8603,148.4,97.5,0.501
36.38,31949.6,34900.3,-0.2085,-0.2487,148.4,97.5,0.501
36.4,32102.7,35313.0,0.4276,0.7647,148.4,97.5,0.501
36.42,32245.1,35589.2,1.0188,1.4431,148.4,97.5,0.501
36.44,32299.4,35709.9,1.2446,1.7393,148.4,97.5,0.501
36.46,32320.9,35702.1,1.3336,1.7204,148.4,97.5,0.501
36.48,32268.1,35552.1,1.1146,1.3518,148.4,97.5,0.501
36.5,32110.0,35396.9,0.4578,0.9709,148.4,97.5,0.501
36.52,32087.2,35133.5,0.363,0.324,148.4,97.5,0.501
36.54,32020.0,35148.7,0.084,0.3613,148.4,97.5,0.501
36.56,32080.7,35013.9,0.3359,0.0304,148.4,97.5,0.501
36.58,32037.6,35022.4,0.157,0.0512,148.4,97.5,0.501
36.6,31924.1,34900.6,-0.3145,-0.2479,148.4,97.5,0.501
36.62,31836.5,34653.1,-0.6782,-0.8556,148.4,97.5,0.501
36.64,31938.8,34744.5,-0.2532,-0.6311,148.4,97.5,0.501
36.66,31886.8,34583.8,-0.4694,-1.0257,148.4,97.5,0.501
36.68,31857.3,34631.8,-0.5918,-0.9079,148.4,97.5,0.501
36.7,31909.7,34567.0,-0.3743,-1.067,148.4,97.5,0.501
36.72,31710.2,34456.3,-1.2029,-1.3389,148.4,97.5,0.501
36.74,31778.8,34433.5,-0.9178,-1.3949,148.4,97.5,0.501
36.76,31689.4,34504.2,-1.2893,-1.2212,148.4,97.5,0.501
36.78,31923.6,34785.4,-0.3165,-0.5306,148.4,97.5,0.501
36.8,32131.7,35202.1,0.5479,0.4926,148.4,97.5,0.501
36.82,32229.0,35671.3,0.9522,1.6446,148.4,97.5,0.501
36.84,32288.4,35732.6,1.1988,1.7951,148.4,97.5,0.501
36.86,32389.5,35568.5,1.6187,1.3922,148.4,97.5,0.501
36.88,32234.7,35551.2,0.9756,1.3498,148.4,97.5,0.501
36.9,32210.0,35358.8,0.8732,0.8773,148.4,97.5,0.501
36.92,32050.2,35101.1,0.2094,0.2446,148.4,97.5,0.501
36.94,31996.7,35180.7,-0.0129,0.4399,148.4,97.5,0.501
36.96,32113.6,35097.8,0.4727,0.2363,148.4,97.5,0.501
36.98,31908.5,34954.9,-0.3793,-0.1144,148.4,97.5,0.501
37.0,31842.4,34851.4,-0.6538,-0.3687,148.4,97.5,0.501
37.02,31958.3,34754.3,-0.1724,-0.6069,148.4,97.5,0.501
37.04,31904.4,34756.9,-0.3963,-0.6008,148.4,97.5,0.501
37.06,31856.0,34639.1,-0.5973,-0.8899,148.4,97.5,0.501
37.08,31805.8,34609.1,-0.8057,-0.9635,148.4,97.5,0.501
37.1,31808.3,34608.8,-0.7953,-0.9645,148.4,97.5,0.501
37.12,31843.5,34516.1,-0.6491,-1.1918,148.4,97.5,0.501
37.14,31773.0,34413.6,-0.9419,-1.4437,148.4,97.5,0.501
37.16,31832.3,34478.8,-0.6956,-1.2836,148.4,97.5,0.501
37.18,31797.0,34756.9,-0.8423,-0.6007,148.4,97.5,0.501
37.2,32032.7,35103.8,0.1369,0.2511,148.4,97.5,0.501
37.22,32281.1,35545.9,1.1685,1.3368,148.4,97.5,0.501
37.24,32265.7,35758.7,1.1047,1.8591,148.4,97.5,0.501
37.26,32330.4,35743.3,1.3731,1.8214,148.4,97.5,0.501
37.28,32217.2,35660.8,0.9029,1.6189,148.4,97.5,0.501
37.3,32115.5,35408.7,0.4808,0.9998,148.4,97.5,0.501
37.32,32091.1,35234.1,0.3792,0.571,148.4,97.5,0.501
37.34,32056.5,35120.2,0.2357,0.2915,148.4,97.5,0.501
37.36,31991.6,35080.4,-0.0339,0.1937,148.4,97.5,0.501
37.38,32009.5,34980.1,0.0402,-0.0526,148.4,97.5,0.501
37.4,32017.8,34988.2,0.0749,-0.0327,148.4,97.5,0.501
37.42,31839.1,34795.8,-0.6674,-0.5052,148.4,97.5,0.501
37.44,31952.3,34792.5,-0.1975,-0.5132,148.4,97.5,0.501
37.46,31941.6,34642.4,-0.2416,-0.8818,148.4,97.5,0.501
37.48,31923.2,34572.7,-0.318,-1.0531,148.4,97.5,0.501
37.5,31816.3,34683.0,-0.7624,-0.7821,148.4,97.5,0.501
37.52,31761.1,34499.5,-0.9914,-1.2327,148.4,97.5,0.501
37.54,31782.1,34456.7,-0.9044,-1.3379,148.4,97.5,0.501
37.56,31778.9,34431.3,-0.9176,-1.4002,148.4,97.5,0.501
37.58,31796.9,34708.9,-0.8426,-0.7185,148.4,97.5,0.501
37.6,32031.1,34995.3,0.13,-0.0152,148.4,97.5,0.501
37.62,32170.9,35333.7,0.7106,0.8156,148.4,97.5,0.501
37.64,32270.4,35631.9,1.1242,1.5478,148.4,97.5,0.501
37.66,32355.5,35827.4,1.4773,2.0279,148.4,97.5,0.501
37.68,32317.1,35623.3,1.3181,1.5268,148.4,97.5,0.501
37.7,32234.6,35452.6,0.9751,1.1076,148.4,97.5,0.501
37.72,31972.6,35185.4,-0.1129,0.4516,148.4,97.5,0.501
37.74,32111.2,35077.7,0.4626,0.1871,148.4,97.5,0.501
37.76,32046.6,35034.1,0.1944,0.08,148.4,97.5,0.501
37.78,31981.6,34960.2,-0.0755,-0.1014,148.4,97.5,0.501
37.8,31925.9,34950.4,-0.307,-0.1255,148.4,97.5,0.501
37.82,31921.8,34814.2,-0.324,-0.46,148.4,97.5,0.501
37.84,31816.9,34628.6,-0.7598,-0.9158,148.4,97.5,0.501
37.86,31817.3,34641.5,-0.758,-0.8842,148.4,97.5,0.501
37.88,31790.0,34658.1,-0.8713,-0.8432,148.4,97.5,0.501
37.9,31862.6,34620.6,-0.5698,-0.9353,148.4,97.5,0.501
37.92,31843.1,34561.5,-0.6507,-1.0805,148.4,97.5,0.501
37.94,31775.2,34439.5,-0.933,-1.38,148.4,97.5,0.501
37.96,31751.0,34530.5,-1.0335,-1.1567,148.4,97.5,0.501
37.98,31892.7,34587.2,-0.4449,-1.0173,148.4,97.5,0.501
38.0,31968.8,34831.2,-0.1286,-0.4182,148.4,97.5,0.501
38.02,32200.2,35200.2,0.8323,0.4878,148.4,97.5,0.501
38.04,32274.7,35679.2,1.142,1.6641,148.4,97.5,0.501
38.06,32417.7,35748.1,1.736,1.8333,148.4,97.5,0.501
38.08,32367.2,35697.4,1.5259,1.7087,148.4,97.5,0.501
38.1,32208.3,35575.1,0.8659,1.4085,148.4,97.5,0.501
38.12,32185.3,35244.3,0.7706,0.5963,148.4,97.5,0.501
38.14,32065.6,35200.8,0.2732,0.4893,148.4,97.5,0.501
38.16,31981.3,35170.2,-0.077,0.4142,148.4,97.5,0.501
38.18,32049.1,35082.9,0.2047,0.1998,148.4,97.5,0.501
38.2,32005.5,34900.6,0.0236,-0.2479,148.4,97.5,0.501
38.22,31983.4,34932.9,-0.0683,-0.1685,148.4,97.5,0.501
38.24,31797.8,34777.8,-0.839,-0.5494,148.4,97.5,0.501
38.26,31850.1,34703.3,-0.6216,-0.7323,148.4,97.5,0.501
38.28,31858.2,34643.7,-0.5882,-0.8786,148.4,97.5,0.501
38.3,31866.2,34531.1,-0.5548,-1.1551,148.4,97.5,0.501
38.32,31727.5,34510.4,-1.1311,-1.2059,148.4,97.5,0.501
38.34,31755.7,34502.2,-1.0141,-1.2262,148.4,97.5,0.501
38.36,31800.0,34526.2,-0.8298,-1.1671,148.4,97.5,0.501
38.38,31782.8,34595.7,-0.9011,-0.9964,148.4,97.5,0.501
38.4,31908.4,34875.1,-0.3795,-0.3105,148.4,97.5,0.501
38.42,32132.3,35200.0,0.5502,0.4874,148.4,97.5,0.501
38.44,32325.9,35571.3,1.3545,1.3991,148.4,97.5,0.501
38.46,32343.3,35744.1,1.4267,1.8234,148.4,97.5,0.501
38.48,32275.3,35695.9,1.1445,1.7049,148.4,97.5,0.501
38.5,32232.0,35615.4,0.9645,1.5074,148.4,97.5,0.501
38.52,32180.2,35398.8,0.7492,0.9755,148.4,97.5,0.501
38.54,32029.9,35087.9,0.1251,0.2122,148.4,97.5,0.501
38.56,32028.9,35014.3,0.1208,0.0314,148.4,97.5,0.501
38.58,32000.8,35087.5,0.0041,0.2111,148.4,97.5,0.501
38.6,31980.1,34874.9,-0.082,-0.3109,148.4,97.5,0.501
38.62,31926.4,34858.2,-0.3049,-0.3519,148.4,97.5,0.501
38.64,31943.8,34785.6,-0.2324,-0.5302,148.4,97.5,0.501
38.66,31790.7,34693.4,-0.8685,-0.7566,148.4,97.5,0.501
38.68,31944.3,34646.2,-0.2305,-0.8725,148.4,97.5,0.501
38.7,31864.3,34648.9,-0.5628,-0.8658,148.4,97.5,0.501
38.72,31848.0,34620.2,-0.6305,-0.9365,148.4,97.5,0.501
38.74,31790.3,34499.4,-0.8702,-1.233,148.4,97.5,0.501
38.76,31824.3,34375.1,-0.7291,-1.5382,148.4,97.5,0.501
38.78,31748.5,34523.9,-1.0438,-1.1727,148.4,97.5,0.501
38.8,31844.4,34665.6,-0.6456,-0.825,148.4,97.5,0.501
38.82,32070.2,35191.1,0.2925,0.4655,148.4,97.5,0.501
38.84,32276.4,35480.4,1.1488,1.1759,148.4,97.5,0.501
38.86,32356.4,35701.5,1.4813,1.7188,148.4,97.5,0.501
38.88,32230.3,35786.8,0.9575,1.9282,148.4,97.5,0.501
38.9,32253.3,35598.1,1.0529,1.465,148.4,97.5,0.501
38.92,32221.0,35374.0,0.9189,0.9146,148.4,97.5,0.501
38.94,32076.5,35168.5,0.3187,0.4101,148.4,97.5,0.501
38.96,32057.5,35202.5,0.2398,0.4935,148.4,97.5,0.501
38.98,32022.8,35061.5,0.0957,0.1473,148.4,97.5,0.501
39.0,31942.9,34982.3,-0.2365,-0.0472,148.4,97.5,0.501
39.02,32062.0,34848.0,0.2585,-0.3769,148.4,97.5,0.501
39.04,31835.6,34686.8,-0.6822,-0.7728,148.4,97.5,0.501
39.06,31939.0,34661.0,-0.2524,-0.8363,148.4,97.5,0.501
39.08,31942.6,34636.9,-0.2377,-0.8953,148.4,97.5,0.501
39.1,31794.2,34793.0,-0.854,-0.5121,148.4,97.5,0.501
39.12,31839.9,34620.2,-0.6643,-0.9363,148.4,97.5,0.501
39.14,31824.4,34537.7,-0.7284,-1.1388,148.4,97.5,0.501
39.16,31726.1,34465.1,-1.137,-1.3171,148.4,97.5,0.501
39.18,31610.5,34532.3,-1.6169,-1.1523,148.4,97.5,0.501
39.2,31976.4,34696.9,-0.0971,-0.7481,148.4,97.5,0.501
39.22,32015.5,35020.9,0.0653,0.0476,148.4,97.5,0.501
39.24,32179.5,35412.2,0.7462,1.0085,148.4,97.5,0.501
39.26,32283.1,35695.3,1.1766,1.7035,148.4,97.5,0.501
39.28,32287.7,35823.8,1.1957,2.0191,148.4,97.5,0.501
39.3,32352.8,35649.9,1.4662,1.592,148.4,97.5,0.501
39.32,32163.5,35412.0,0.6799,1.0079,148.4,97.5,0.501
39.34,32112.2,35264.0,0.4668,0.6446,148.4,97.5,0.501
39.36,32053.8,35129.3,0.2244,0.3138,148.4,97.5,0.501
39.38,32014.3,35068.6,0.0603,0.1647,148.4,97.5,0.501
39.4,31995.6,35061.8,-0.0175,0.148,148.4,97.5,0.501
39.42,31908.1,34890.1,-0.3807,-0.2737,148.4,97.5,0.501
39.44,31922.4,34778.2,-0.3213,-0.5483,148.4,97.5,0.501
39.46,31906.0,34770.3,-0.3896,-0.5679,148.4,97.5,0.501
39.48,31889.8,34679.0,-0.457,-0.792,148.4,97.5,0.501
39.5,31898.7,34688.3,-0.42,-0.7691,148.4,97.5,0.501
39.52,31854.5,34593.0,-0.6035,-1.0031,148.4,97.5,0.501
39.54,31787.1,34587.5,-0.8833,-1.0167,148.4,97.5,0.501
39.56,31719.3,34441.2,-1.1653,-1.3759,148.4,97.5,0.501
39.58,31724.1,34500.2,-1.1453,-1.2311,148.4,97.5,0.501
39.6,31826.6,34662.1,-0.7192,-0.8336,148.4,97.5,0.501
39.62,32053.3,35015.0,0.2224,0.0331,148.4,97.5,0.501
39.64,32197.5,35333.5,0.8211,0.8151,148.4,97.5,0.501
39.66,32332.4,35606.8,1.3814,1.4863,148.4,97.5,0.501
39.68,32455.8,35823.1,1.8943,2.0174,148.4,97.5,0.501
39.7,32358.5,35576.2,1.49,1.4111,148.4,97.5,0.501
39.72,32238.5,35505.3,0.9917,1.237,148.4,97.5,0.501
39.74,32174.8,35218.0,0.7269,0.5315,148.4,97.5,0.501
39.76,31964.2,35181.8,-0.1477,0.4426,148.4,97.5,0.501
39.78,32020.1,35177.6,0.0844,0.4323,148.4,97.5,0.501
39.8,32027.3,35080.0,0.1145,0.1927,148.4,97.5,0.501
39.82,31958.6,34946.4,-0.1712,-0.1353,148.4,97.5,0.501
39.84,31854.5,34839.7,-0.6036,-0.3975,148.4,97.5,0.501
39.86,31820.1,34667.6,-0.7463,-0.8199,148.4,97.5,0.501
39.88,31882.2,34658.2,-0.4886,-0.843,148.4,97.5,0.501
39.9,31745.0,34612.7,-1.0584,-0.9547,148.4,97.5,0.501
39.92,31843.8,34586.7,-0.648,-1.0186,148.4,97.5,0.501
39.94,31885.3,34631.0,-0.4757,-0.9098,148.4,97.5,0.501
39.96,31745.0,34501.5,-1.0584,-1.2277,148.4,97.5,0.501
39.98,31697.4,34481.4,-1.2559,-1.2771,148.4,97.5,0.501
40.0,31799.1,34710.6,-0.8335,-0.7144,148.4,97.5,0.501
40.02,31948.4,34879.6,-0.2133,-0.2993,148.4,97.5,0.501
40.04,32137.6,35300.1,0.5725,0.7332,148.3,97.5,0.502
40.06,32236.0,35502.9,0.981,1.2311,148.3,97.4,0.502
40.08,32391.8,35897.9,1.6283,2.2011,148.3,97.4,0.503
40.1,32191.4,35694.6,0.796,1.7019,148.3,97.4,0.503
40.12,32240.5,35477.7,0.9997,1.1692,148.3,97.4,0.504
40.14,32102.2,35322.7,0.4252,0.7887,148.2,97.4,0.504
40.16,32048.5,35132.0,0.2022,0.3203,148.2,97.4,0.505
40.18,31957.2,35116.4,-0.1769,0.2821,148.2,97.4,0.505
40.2,31988.4,35120.0,-0.0474,0.2909,148.2,97.4,0.506
40.22,31964.8,34981.8,-0.1452,-0.0484,148.2,97.3,0.506
40.24,31896.0,34859.3,-0.4309,-0.3492,148.1,97.3,0.507
40.26,31926.6,34710.6,-0.304,-0.7144,148.1,97.3,0.507
40.28,31873.4,34757.1,-0.5248,-0.6002,148.1,97.3,0.508
40.3,31804.9,34671.8,-0.8095,-0.8097,148.1,97.3,0.508
40.32,31784.7,34654.7,-0.8933,-0.8516,148.1,97.3,0.509
40.34,31777.4,34546.5,-0.9237,-1.1173,148.0,97.3,0.509
40.36,31703.0,34428.4,-1.2327,-1.4072,148.0,97.3,0.51
40.38,31780.0,34483.2,-0.9129,-1.2729,148.0,97.2,0.51
40.4,31832.1,34570.5,-0.6964,-1.0585,148.0,97.2,0.511
40.42,31881.6,34839.1,-0.491,-0.3989,148.0,97.2,0.511
40.44,32094.0,35158.7,0.3912,0.3859,147.9,97.2,0.512
40.46,32303.3,35511.6,1.2605,1.2524,147.9,97.2,0.512
40.48,32377.6,35783.5,1.5693,1.9202,147.9,97.2,0.513
40.5,32301.2,35703.1,1.2521,1.7226,147.9,97.2,0.513
40.52,32325.3,35614.7,1.3519,1.5056,147.9,97.2,0.514
40.54,32215.8,35363.6,0.8972,0.8891,147.8,97.1,0.514
40.56,32138.2,35186.7,0.575,0.4546,147.8,97.1,0.515
40.58,32075.0,35195.2,0.3125,0.4755,147.8,97.1,0.515
40.6,32072.6,35013.9,0.3024,0.0305,147.8,97.1,0.516
40.62,32039.7,35123.3,0.1659,0.299,147.8,97.1,0.516
40.64,31976.2,34983.5,-0.098,-0.0442,147.7,97.1,0.517
40.66,31808.9,34772.5,-0.7928,-0.5624,147.7,97.1,0.517
40.68,31902.7,34639.0,-0.4031,-0.8903,147.7,97.1,0.518
40.7,31866.2,34591.9,-0.5551,-1.0059,147.7,97.0,0.518
40.72,31880.0,34641.8,-0.4977,-0.8834,147.7,97.0,0.519
40.74,31741.1,34603.2,-1.0745,-0.978,147.6,97.0,0.519
40.76,31853.4,34531.8,-0.608,-1.1533,147.6,97.0,0.52
40.78,31699.2,34453.4,-1.2485,-1.3458,147.6,97.0,0.52
40.8,31705.6,34506.4,-1.2218,-1.2158,147.6,97.0,0.521
40.82,31820.0,34744.8,-0.7469,-0.6304,147.6,97.0,0.521
40.84,32061.7,35049.8,0.2571,0.1185,147.5,97.0,0.522
40.86,32229.8,35336.6,0.9555,0.8228,147.5,96.9,0.522
40.88,32319.6,35700.1,1.3282,1.7153,147.5,96.9,0.523
40.9,32352.9,35748.8,1.4665,1.835,147.5,96.9,0.523
40.92,32405.3,35600.3,1.6845,1.4703,147.5,96.9,0.524
40.94,32241.6,35510.3,1.0044,1.2494,147.4,96.9,0.524
40.96,32214.3,35317.7,0.8912,0.7765,147.4,96.9,0.525
40.98,32060.8,35002.4,0.2533,0.0023,147.4,96.9,0.525
41.0,32035.8,35151.6,0.1494,0.3686,147.4,96.9,0.526
41.02,31990.7,35017.9,-0.0378,0.0403,147.4,96.8,0.526
41.04,31888.2,35007.6,-0.4636,0.015,147.3,96.8,0.527
41.06,31870.8,34812.9,-0.5357,-0.4631,147.3,96.8,0.528
41.08,31887.8,34726.5,-0.4653,-0.6754,147.3,96.8,0.528
41.1,31808.6,34692.7,-0.7943,-0.7584,147.3,96.8,0.529
41.12,31918.6,34658.6,-0.3374,-0.8421,147.3,96.8,0.529
41.14,31843.2,34680.0,-0.6506,-0.7896,147.2,96.8,0.53
41.16,31748.2,34447.2,-1.045,-1.3611,147.2,96.7,0.53
41.18,31650.6,34512.2,-1.4504,-1.2015,147.2,96.7,0.531
41.2,31794.8,34500.3,-0.8513,-1.2307,147.2,96.7,0.531
41.22,31786.2,34633.4,-0.8873,-0.9039,147.2,96.7,0.532
41.24,31996.9,34893.0,-0.0121,-0.2666,147.1,96.7,0.532
41.26,32063.1,35371.6,0.2631,0.9088,147.1,96.7,0.533
41.28,32315.9,35642.5,1.3131,1.5739,147.1,96.7,0.533
41.3,32419.2,35757.9,1.7422,1.8574,147.1,96.7,0.534
41.32,32369.6,35727.1,1.5359,1.7817,147.1,96.6,0.534
41.34,32288.5,35458.2,1.1993,1.1213,147.0,96.6,0.535
41.36,32116.0,35363.1,0.4829,0.8878,147.0,96.6,0.535
41.38,32016.0,35312.0,0.0673,0.7625,147.0,96.6,0.536
41.4,31995.8,35146.8,-0.0164,0.3568,147.0,96.6,0.536
41.42,31998.0,35154.0,-0.0075,0.3745,147.0,96.6,0.537
41.44,32009.4,34954.5,0.04,-0.1155,146.9,96.6,0.537
41.46,31908.3,34860.7,-0.3798,-0.3457,146.9,96.6,0.538
41.48,31928.4,34708.4,-0.2965,-0.7197,146.9,96.5,0.538
41.5,31901.4,34610.8,-0.4089,-0.9594,146.9,96.5,0.539
41.52,31763.8,34669.3,-0.9804,-0.8159,146.9,96.5,0.539
41.54,31844.7,34642.6,-0.6444,-0.8813,146.8,96.5,0.54
41.56,31838.0,34524.4,-0.6721,-1.1716,146.8,96.5,0.54
41.58,31757.1,34540.2,-1.0081,-1.1327,146.8,96.5,0.541
41.6,31791.0,34460.1,-0.8673,-1.3296,146.8,96.5,0.541
41.62,31732.9,34513.4,-1.1086,-1.1986,146.8,96.5,0.542
41.64,31890.0,34841.5,-0.4559,-0.3928,146.7,96.4,0.542
41.66,32084.3,35153.8,0.351,0.3738,146.7,96.4,0.543
41.68,32262.8,35499.6,1.0925,1.223,146.7,96.4,0.543
41.7,32364.6,35749.5,1.5151,1.8366,146.7,96.4,0.544
41.72,32428.4,35735.1,1.7801,1.8014,146.7,96.4,0.544
41.74,32361.5,35743.0,1.5024,1.8206,146.6,96.4,0.545
41.76,32135.0,35399.0,0.5615,0.976,146.6,96.4,0.545
41.78,32128.0,35244.6,0.5326,0.5969,146.6,96.4,0.546
41.8,31974.7,35184.5,-0.1044,0.4492,146.6,96.3,0.546
41.82,32022.4,34976.5,0.0939,-0.0614,146.6,96.3,0.547
41.84,32035.3,35079.3,0.1473,0.1909,146.5,96.3,0.547
41.86,31957.6,34800.2,-0.1752,-0.4943,146.5,96.3,0.548
41.88,31927.6,34785.7,-0.3,-0.5299,146.5,96.3,0.548
41.9,31888.9,34724.1,-0.4607,-0.6811,146.5,96.3,0.549
41.92,31872.8,34671.7,-0.5276,-0.8099,146.5,96.3,0.549
41.94,31770.4,34703.8,-0.9526,-0.7309,146.4,96.3,0.55
41.96,31919.5,34667.8,-0.3336,-0.8194,146.4,96.2,0.55
41.98,31756.5,34603.7,-1.0107,-0.9769,146.4,96.2,0.551
42.0,31797.4,34414.0,-0.8406,-1.4426,146.4,96.2,0.551
42.02,31798.3,34448.0,-0.8369,-1.3593,146.4,96.2,0.552
42.04,31779.9,34652.5,-0.9132,-0.8571,146.3,96.2,0.552
42.06,32093.4,34974.8,0.3887,-0.0656,146.3,96.2,0.553
42.08,32116.6,35365.9,0.485,0.8948,146.3,96.2,0.553
42.1,32381.3,35645.9,1.5847,1.5822,146.3,96.2,0.554
42.12,32372.8,35782.6,1.5492,1.918,146.3,96.1,0.554
42.14,32318.9,35576.3,1.3255,1.4115,146.2,96.1,0.555
42.16,32215.1,35495.9,0.8943,1.214,146.2,96.1,0.556
42.18,32186.0,35376.9,0.7736,0.9216,146.2,96.1,0.556
42.2,32125.7,35185.7,0.5231,0.4523,146.2,96.1,0.557
42.22,32062.2,35099.1,0.259,0.2395,146.2,96.1,0.557
42.24,32066.8,34992.6,0.2785,-0.0219,146.1,96.1,0.558
42.26,31924.9,34985.0,-0.3111,-0.0405,146.1,96.0,0.558
42.28,31914.3,34869.1,-0.3551,-0.3252,146.1,96.0,0.559
42.3,31951.7,34781.7,-0.1996,-0.5397,146.1,96.0,0.559
42.32,31788.6,34641.2,-0.877,-0.8848,146.1,96.0,0.56
42.34,31838.9,34701.8,-0.6684,-0.7359,146.0,96.0,0.56
42.36,31857.9,34737.1,-0.5895,-0.6494,146.0,96.0,0.561
42.38,31762.9,34609.3,-0.9838,-0.9631,146.0,96.0,0.561
42.4,31747.9,34525.6,-1.0461,-1.1686,146.0,96.0,0.562
42.42,31695.6,34415.5,-1.2633,-1.439,146.0,95.9,0.562
42.44,31766.8,34613.3,-0.9677,-0.9534,145.9,95.9,0.563
42.46,31875.1,34828.4,-0.5179,-0.4251,145.9,95.9,0.563
42.48,32070.8,35023.3,0.2949,0.0535,145.9,95.9,0.564
42.5,32180.3,35510.0,0.7498,1.2487,145.9,95.9,0.564
42.52,32320.1,35739.6,1.3303,1.8124,145.9,95.9,0.565
42.54,32411.1,35712.8,1.7085,1.7465,145.8,95.9,0.565
42.56,32279.5,35735.6,1.1618,1.8024,145.8,95.9,0.566
42.58,32221.6,35346.4,0.9211,0.8468,145.8,95.8,0.566
42.6,32128.2,35188.6,0.5335,0.4593,145.8,95.8,0.567
42.62,32092.6,35013.5,0.3857,0.0294,145.8,95.8,0.567
42.64,32044.1,35061.0,0.1842,0.146,145.7,95.8,0.568
42.66,32012.7,35054.9,0.0535,0.131,145.7,95.8,0.568
42.68,32005.9,34974.8,0.0254,-0.0655,145.7,95.8,0.569
42.7,31949.8,34794.4,-0.2076,-0.5085,145.7,95.8,0.569
42.72,31854.4,34682.6,-0.6039,-0.7832,145.7,95.8,0.57
42.74,31802.5,34677.0,-0.8194,-0.7969,145.6,95.7,0.57
42.76,31768.0,34655.1,-0.9628,-0.8505,145.6,95.7,0.571
42.78,31818.7,34584.1,-0.7521,-1.025,145.6,95.7,0.571
42.8,31822.7,34581.4,-0.7355,-1.0316,145.6,95.7,0.572
42.82,31720.3,34477.2,-1.1608,-1.2875,145.6,95.7,0.572
42.84,31780.5,34456.6,-0.9108,-1.3382,145.5,95.7,0.573
42.86,31857.1,34580.9,-0.5928,-1.0329,145.5,95.7,0.573
42.88,32029.0,34895.7,0.1214,-0.2598,145.5,95.7,0.574
42.9,32242.9,35345.3,1.0099,0.844,145.5,95.6,0.574
42.92,32352.2,35627.3,1.4639,1.5367,145.5,95.6,0.575
42.94,32419.0,35718.5,1.7412,1.7604,145.4,95.6,0.575
42.96,32271.3,35673.4,1.1278,1.6497,145.4,95.6,0.576
42.98,32367.8,35497.8,1.5284,1.2186,145.4,95.6,0.576
43.0,32190.1,35408.5,0.7906,0.9993,145.4,95.6,0.577
43.02,32101.8,35063.7,0.4237,0.1528,145.4,95.6,0.577
43.04,31998.6,35147.4,-0.005,0.3582,145.3,95.6,0.578
43.06,32008.3,35084.8,0.0353,0.2045,145.3,95.5,0.578
43.08,31939.9,35003.7,-0.2488,0.0052,145.3,95.5,0.579
43.1,31898.1,34817.5,-0.4225,-0.4518,145.3,95.5,0.579
43.12,31781.7,34726.0,-0.9058,-0.6766,145.3,95.5,0.58
43.14,31826.9,34783.1,-0.718,-0.5362,145.2,95.5,0.58
43.16,31778.9,34667.4,-0.9174,-0.8204,145.2,95.5,0.581
43.18,31829.4,34598.2,-0.7078,-0.9903,145.2,95.5,0.581
43.2,31819.6,34594.8,-0.7485,-0.9987,145.2,95.5,0.582
43.22,31803.6,34531.5,-0.815,-1.1541,145.2,95.4,0.582
43.24,31726.0,34525.5,-1.1371,-1.1689,145.1,95.4,0.583
43.26,31779.8,34486.9,-0.9137,-1.2637,145.1,95.4,0.584
43.28,31866.3,34625.2,-0.5545,-0.9241,145.1,95.4,0.584
43.3,32027.2,35064.4,0.1137,0.1543,145.1,95.4,0.585
43.32,32295.9,35449.7,1.2298,1.1006,145.1,95.4,0.585
43.34,32355.5,35750.3,1.4775,1.8386,145.0,95.4,0.586
43.36,32444.9,35770.0,1.8489,1.8871,145.0,95.3,0.586
43.38,32342.1,35601.7,1.4217,1.4737,145.0,95.3,0.587
43.4,32320.7,35464.4,1.3331,1.1365,145.0,95.3,0.587
43.42,32087.4,35261.6,0.3639,0.6386,145.0,95.3,0.588
43.44,32092.1,35159.5,0.3835,0.388,144.9,95.3,0.588
43.46,32003.3,35194.1,0.0144,0.473,144.9,95.3,0.589
43.48,31949.0,35025.2,-0.2108,0.0581,144.9,95.3,0.589
43.5,31984.3,34992.4,-0.0645,-0.0224,144.9,95.3,0.59
43.52,31930.9,34873.9,-0.2863,-0.3135,144.9,95.2,0.59
43.54,31875.4,34794.0,-0.5166,-0.5095,144.8,95.2,0.591
43.56,31833.1,34779.0,-0.6925,-0.5463,144.8,95.2,0.591
43.58,31956.2,34641.0,-0.1811,-0.8852,144.8,95.2,0.592
43.6,31884.6,34673.9,-0.4784,-0.8044,144.8,95.2,0.592
43.62,31743.5,34482.3,-1.0644,-1.2749,144.8,95.2,0.593
43.64,31706.0,34449.8,-1.2203,-1.3547,144.7,95.2,0.593
43.66,31797.7,34427.7,-0.8393,-1.409,144.7,95.2,0.594
43.68,31756.9,34539.8,-1.0088,-1.1337,144.7,95.1,0.594
43.7,31909.9,34803.8,-0.3735,-0.4856,144.7,95.1,0.595
43.72,32057.8,35163.5,0.2409,0.3978,144.7,95.1,0.595
43.74,32305.7,35559.5,1.2705,1.37,144.6,95.1,0.596
43.76,32413.7,35753.5,1.7193,1.8464,144.6,95.1,0.596
43.78,32343.2,35751.3,1.4262,1.8411,144.6,95.1,0.597
43.8,32378.5,35652.6,1.5732,1.5987,144.6,95.1,0.597
43.82,32239.6,35384.7,0.9963,0.9409,144.6,95.1,0.598
43.84,32110.8,35237.9,0.4612,0.5805,144.5,95.0,0.598
43.86,32166.0,35197.5,0.6904,0.4812,144.5,95.0,0.599
43.88,32065.4,35071.0,0.2725,0.1705,144.5,95.0,0.599
43.9,31971.5,35079.9,-0.1174,0.1926,144.5,95.0,0.6
43.92,31847.7,34990.9,-0.6316,-0.026,144.5,95.0,0.6
43.94,31923.1,34867.4,-0.3186,-0.3293,144.4,95.0,0.601
43.96,31790.3,34631.5,-0.87,-0.9085,144.4,95.0,0.601
43.98,31808.1,34708.4,-0.7961,-0.7197,144.4,95.0,0.602
44.0,31873.2,34635.1,-0.5259,-0.8998,144.4,94.9,0.602
44.02,31796.2,34595.1,-0.8457,-0.998,144.4,94.9,0.603
44.04,31687.6,34473.1,-1.2968,-1.2976,144.3,94.9,0.603
44.06,31816.3,34432.8,-0.762,-1.3964,144.3,94.9,0.604
44.08,31734.4,34419.7,-1.1024,-1.4287,144.3,94.9,0.604
44.1,31697.5,34618.4,-1.2557,-0.9409,144.3,94.9,0.605
44.12,32021.6,34876.3,0.0906,-0.3074,144.3,94.9,0.605
44.14,32098.6,35304.1,0.4104,0.7429,144.2,94.9,0.606
44.16,32281.7,35556.2,1.1709,1.3621,144.2,94.8,0.606
44.18,32429.8,35747.1,1.7861,1.8308,144.2,94.8,0.607
44.2,32431.7,35751.6,1.7941,1.8417,144.2,94.8,0.607
44.22,32337.7,35497.7,1.4034,1.2183,144.2,94.8,0.608
44.24,32150.4,35351.0,0.6256,0.8582,144.1,94.8,0.608
44.26,32082.1,35310.0,0.3418,0.7574,144.1,94.8,0.609
44.28,31968.4,35067.3,-0.1302,0.1614,144.1,94.8,0.609
44.3,32018.7,35090.2,0.0785,0.2177,144.1,94.8,0.61
44.32,32009.9,34937.3,0.0418,-0.1578,144.1,94.7,0.61
44.34,31933.8,34819.9,-0.274,-0.4459,144.0,94.7,0.611
44.36,31834.0,34776.3,-0.6887,-0.5529,144.0,94.7,0.612
44.38,31797.8,34707.4,-0.8389,-0.7222,144.0,94.7,0.612
44.4,31865.0,34677.2,-0.5597,-0.7963,144.0,94.7,0.613
44.42,31883.3,34666.5,-0.484,-0.8226,144.0,94.7,0.613
44.44,31621.6,34678.0,-1.5709,-0.7944,143.9,94.7,0.614
44.46,31730.5,34582.2,-1.1186,-1.0296,143.9,94.6,0.614
44.48,31644.9,34514.7,-1.4739,-1.1954,143.9,94.6,0.615
44.5,31671.4,34458.1,-1.3642,-1.3343,143.9,94.6,0.615
44.52,31695.6,34697.9,-1.2634,-0.7457,143.9,94.6,0.616
44.54,31945.9,34824.1,-0.2239,-0.4356,143.8,94.6,0.616
44.56,32156.1,35354.1,0.6494,0.8657,143.8,94.6,0.617
44.58,32404.7,35543.9,1.682,1.3319,143.8,94.6,0.617
44.6,32493.4,35771.3,2.0503,1.8901,143.8,94.6,0.618
44.62,32372.4,35763.8,1.5478,1.8719,143.8,94.5,0.618
44.64,32293.1,35520.3,1.2185,1.2739,143.7,94.5,0.619
44.66,32187.8,35418.6,0.7807,1.0241,143.7,94.5,0.619
44.68,32108.1,35207.4,0.4497,0.5055,143.7,94.5,0.62
44.7,32110.6,35030.2,0.4601,0.0703,143.7,94.5,0.62
44.72,32081.1,35009.2,0.3376,0.0189,143.7,94.5,0.621
44.74,32003.5,34966.2,0.0155,-0.0867,143.6,94.5,0.621
44.76,31897.5,34954.4,-0.4249,-0.1157,143.6,94.5,0.622
44.78,31893.7,34848.6,-0.4409,-0.3755,143.6,94.4,0.622
44.8,31820.4,34631.0,-0.7453,-0.9098,143.6,94.4,0.623
44.82,31757.6,34734.3,-1.0058,-0.6561,143.6,94.4,0.623
44.84,31836.7,34636.0,-0.6772,-0.8976,143.5,94.4,0.624
44.86,31831.3,34606.3,-0.6998,-0.9706,143.5,94.4,0.624
