timestamp,raw_red,raw_ir,filtered_red,filtered_ir,heart_rate,spo2,ac_dc_ratio
0.0,32057.8,35080.5,1.1867,1.1878,141.0,97.9,0.485
0.02,32242.8,35551.5,1.1985,1.2151,141.0,97.9,0.485
0.04,32294.5,35818.0,1.2017,1.2305,141.0,97.9,0.485
0.06,32264.2,35729.8,1.1998,1.2254,141.0,97.9,0.485
0.08,32223.0,35615.5,1.1972,1.2188,141.0,97.9,0.485
0.1,32120.2,35333.0,1.1907,1.2024,141.0,97.9,0.485
0.12,32166.0,35165.7,1.1936,1.1927,141.0,97.9,0.485
0.14,32145.1,35154.5,1.1923,1.1921,141.0,97.9,0.485
0.16,32057.1,35086.4,1.1867,1.1881,141.0,97.9,0.485
0.18,32006.4,35049.9,1.1835,1.186,141.0,97.9,0.485
0.2,32012.0,34974.4,1.1838,1.1816,141.0,97.9,0.485
0.22,31922.8,34820.6,1.1782,1.1727,141.0,97.9,0.485
0.24,31841.8,34811.7,1.173,1.1722,141.0,97.9,0.485
0.26,31817.9,34708.1,1.1715,1.1662,141.0,97.9,0.485
0.28,31826.1,34593.9,1.172,1.1596,141.0,97.9,0.485
0.3,31869.6,34638.5,1.1748,1.1622,141.0,97.9,0.485
0.32,31679.2,34557.5,1.1627,1.1575,141.0,97.9,0.485
0.34,31796.8,34511.0,1.1702,1.1548,141.0,97.9,0.485
0.36,31696.8,34312.6,1.1638,1.1433,141.0,97.9,0.485
0.38,31788.2,34579.8,1.1696,1.1588,141.0,97.9,0.485
0.4,31810.3,34721.9,1.171,1.167,141.0,97.9,0.485
0.42,31976.2,35037.8,1.1816,1.1853,141.0,97.9,0.485
0.44,32155.5,35406.1,1.1929,1.2067,141.0,97.9,0.485
0.46,32245.6,35663.9,1.1986,1.2216,141.0,97.9,0.485
0.48,32300.3,35698.8,1.2021,1.2236,141.0,97.9,0.485
0.5,32279.9,35629.2,1.2008,1.2196,141.0,97.9,0.485
0.52,32266.4,35514.9,1.2,1.213,141.0,97.9,0.485
0.54,32102.6,35311.0,1.1896,1.2011,141.0,97.9,0.485
0.56,32053.9,35170.2,1.1865,1.193,141.0,97.9,0.485
0.58,32149.8,34974.1,1.1926,1.1816,141.0,97.9,0.485
0.6,32070.0,35015.8,1.1875,1.184,141.0,97.9,0.485
0.62,32024.7,35003.6,1.1846,1.1833,141.0,97.9,0.485
0.64,31925.9,34913.0,1.1784,1.1781,141.0,97.9,0.485
0.66,31836.7,34786.5,1.1727,1.1708,141.0,97.9,0.485
0.68,31829.3,34683.3,1.1722,1.1648,141.0,97.9,0.485
0.7,31925.1,34684.0,1.1783,1.1648,141.0,97.9,0.485
0.72,31834.6,34596.8,1.1726,1.1598,141.0,97.9,0.485
0.74,31877.0,34673.2,1.1753,1.1642,141.0,97.9,0.485
0.76,31926.2,34597.6,1.1784,1.1598,141.0,97.9,0.485
0.78,31720.0,34456.2,1.1653,1.1516,141.0,97.9,0.485
0.8,31779.3,34459.6,1.1691,1.1518,141.0,97.9,0.485
0.82,31926.0,34631.9,1.1784,1.1618,141.0,97.9,0.485
0.84,32031.3,34986.5,1.185,1.1823,141.0,97.9,0.485
0.86,32177.7,35334.3,1.1943,1.2025,141.0,97.9,0.485
0.88,32252.7,35550.4,1.1991,1.215,141.0,97.9,0.485
0.9,32338.6,35734.9,1.2045,1.2257,141.0,97.9,0.485
0.92,32233.4,35754.1,1.1979,1.2268,141.0,97.9,0.485
0.94,32314.0,35552.5,1.203,1.2151,141.0,97.9,0.485
0.96,32072.8,35321.6,1.1877,1.2018,141.0,97.9,0.485
0.98,32119.4,35195.7,1.1906,1.1945,141.0,97.9,0.485
1.0,32102.6,35163.6,1.1896,1.1926,141.0,97.9,0.485
1.02,31996.8,35108.5,1.1829,1.1894,141.0,97.9,0.485
1.04,31958.6,34983.9,1.1804,1.1822,141.0,97.9,0.485
1.06,31928.1,35008.6,1.1785,1.1836,141.0,97.9,0.485
1.08,31847.1,34766.9,1.1734,1.1696,141.0,97.9,0.485
1.1,31870.3,34719.5,1.1748,1.1669,141.0,97.9,0.485
1.12,31854.1,34741.3,1.1738,1.1681,141.0,97.9,0.485
1.14,31936.2,34622.8,1.179,1.1613,141.0,97.9,0.485
1.16,31808.2,34659.1,1.1709,1.1634,141.0,97.9,0.485
1.18,31793.0,34602.8,1.1699,1.1601,141.0,97.9,0.485
1.2,31774.7,34436.3,1.1688,1.1505,141.0,97.9,0.485
1.22,31792.7,34491.4,1.1699,1.1537,141.0,97.9,0.485
1.24,31728.1,34587.7,1.1658,1.1592,141.0,97.9,0.485
1.26,31930.0,34850.2,1.1786,1.1744,141.0,97.9,0.485
1.28,32087.3,35152.8,1.1886,1.192,141.0,97.9,0.485
1.3,32367.9,35585.3,1.2064,1.217,141.0,97.9,0.485
1.32,32344.7,35691.3,1.2049,1.2232,141.0,97.9,0.485
1.34,32320.7,35719.6,1.2034,1.2248,141.0,97.9,0.485
1.36,32238.8,35645.4,1.1982,1.2205,141.0,97.9,0.485
1.38,32272.1,35426.7,1.2003,1.2079,141.0,97.9,0.485
1.4,32080.2,35165.8,1.1882,1.1927,141.0,97.9,0.485
1.42,31921.6,35093.6,1.1781,1.1885,141.0,97.9,0.485
1.44,32008.6,35177.3,1.1836,1.1934,141.0,97.9,0.485
1.46,32062.1,34936.9,1.187,1.1795,141.0,97.9,0.485
1.48,31927.3,34914.5,1.1785,1.1782,141.0,97.9,0.485
1.5,32015.5,34821.1,1.184,1.1728,141.0,97.9,0.485
1.52,31906.2,34758.0,1.1771,1.1691,141.0,97.9,0.485
1.54,31871.8,34662.4,1.1749,1.1636,141.0,97.9,0.485
1.56,31872.0,34639.9,1.175,1.1623,141.0,97.9,0.485
1.58,31810.6,34626.4,1.1711,1.1615,141.0,97.9,0.485
1.6,31813.2,34484.5,1.1712,1.1533,141.0,97.9,0.485
1.62,31736.8,34490.9,1.1664,1.1536,141.0,97.9,0.485
1.64,31799.8,34489.0,1.1704,1.1535,141.0,97.9,0.485
1.66,31855.3,34563.0,1.1739,1.1578,141.0,97.9,0.485
1.68,31812.8,34821.1,1.1712,1.1728,141.0,97.9,0.485
1.7,31928.6,35206.0,1.1785,1.1951,141.0,97.9,0.485
1.72,32262.6,35429.3,1.1997,1.208,141.0,97.9,0.485
1.74,32352.4,35817.2,1.2054,1.2305,141.0,97.9,0.485
1.76,32266.8,35707.9,1.2,1.2241,141.0,97.9,0.485
1.78,32308.8,35628.9,1.2026,1.2196,141.0,97.9,0.485
1.8,32227.5,35437.7,1.1975,1.2085,141.0,97.9,0.485
1.82,32126.5,35235.3,1.1911,1.1968,141.0,97.9,0.485
1.84,32168.0,35128.9,1.1937,1.1906,141.0,97.9,0.485
1.86,32021.1,35096.1,1.1844,1.1887,141.0,97.9,0.485
1.88,32049.6,35057.8,1.1862,1.1865,141.0,97.9,0.485
1.9,31957.7,34940.2,1.1804,1.1797,141.0,97.9,0.485
1.92,31834.3,34886.2,1.1726,1.1765,141.0,97.9,0.485
1.94,31888.9,34867.6,1.176,1.1755,141.0,97.9,0.485
1.96,31980.0,34686.3,1.1818,1.1649,141.0,97.9,0.485
1.98,31786.2,34683.9,1.1695,1.1648,141.0,97.9,0.485
2.0,31798.3,34626.4,1.1703,1.1615,141.0,97.9,0.485
2.02,31738.5,34630.7,1.1665,1.1617,141.0,97.9,0.485
2.04,31769.0,34543.0,1.1684,1.1566,141.0,97.9,0.485
2.06,31802.5,34426.2,1.1706,1.1499,141.0,97.9,0.485
2.08,31719.6,34581.8,1.1653,1.1589,141.0,97.9,0.485
2.1,31923.9,34665.8,1.1782,1.1638,141.0,97.9,0.485
2.12,31998.1,35013.4,1.1829,1.1839,141.0,97.9,0.485
2.14,32258.2,35298.9,1.1994,1.2004,141.0,97.9,0.485
2.16,32309.7,35665.4,1.2027,1.2217,141.0,97.9,0.485
2.18,32329.8,35670.0,1.204,1.2219,141.0,97.9,0.485
2.2,32245.6,35749.3,1.1986,1.2265,141.0,97.9,0.485
2.22,32148.7,35519.4,1.1925,1.2132,141.0,97.9,0.485
2.24,32145.4,35246.3,1.1923,1.1974,141.0,97.9,0.485
2.26,32064.2,35181.1,1.1871,1.1936,141.0,97.9,0.485
2.28,32088.1,35114.0,1.1886,1.1897,141.0,97.9,0.485
2.3,32106.4,35083.6,1.1898,1.188,141.0,97.9,0.485
2.32,32065.6,34995.8,1.1872,1.1829,141.0,97.9,0.485
2.34,31966.2,34955.1,1.1809,1.1805,141.0,97.9,0.485
2.36,31900.4,34709.8,1.1768,1.1663,141.0,97.9,0.485
2.38,31835.2,34769.2,1.1726,1.1698,141.0,97.9,0.485
2.4,31847.0,34678.8,1.1734,1.1645,141.0,97.9,0.485
2.42,31903.9,34600.7,1.177,1.16,141.0,97.9,0.485
2.44,31866.7,34579.5,1.1746,1.1588,141.0,97.9,0.485
2.46,31692.3,34566.2,1.1636,1.158,141.0,97.9,0.485
2.48,31686.7,34594.0,1.1632,1.1596,141.0,97.9,0.485
2.5,31793.7,34468.8,1.17,1.1523,141.0,97.9,0.485
2.52,31938.3,34628.1,1.1792,1.1616,141.0,97.9,0.485
2.54,31986.1,35006.6,1.1822,1.1835,141.0,97.9,0.485
2.56,32089.7,35245.8,1.1888,1.1974,141.0,97.9,0.485
2.58,32249.9,35626.7,1.1989,1.2194,141.0,97.9,0.485
2.6,32333.2,35781.4,1.2042,1.2284,141.0,97.9,0.485
2.62,32353.2,35684.2,1.2055,1.2228,141.0,97.9,0.485
2.64,32194.2,35503.4,1.1954,1.2123,141.0,97.9,0.485
2.66,32121.4,35332.0,1.1908,1.2024,141.0,97.9,0.485
2.68,32056.5,35162.2,1.1866,1.1925,141.0,97.9,0.485
2.7,32006.5,35109.7,1.1835,1.1895,141.0,97.9,0.485
2.72,31951.9,35020.5,1.18,1.1843,141.0,97.9,0.485
2.74,32077.1,34995.0,1.188,1.1828,141.0,97.9,0.485
2.76,31963.6,34898.7,1.1808,1.1773,141.0,97.9,0.485
2.78,31966.8,34805.6,1.181,1.1719,141.0,97.9,0.485
2.8,31874.8,34783.7,1.1751,1.1706,141.0,97.9,0.485
2.82,31856.1,34632.9,1.1739,1.1619,141.0,97.9,0.485
2.84,31903.4,34686.7,1.1769,1.165,141.0,97.9,0.485
2.86,31933.7,34617.6,1.1789,1.161,141.0,97.9,0.485
2.88,31775.3,34521.5,1.1688,1.1554,141.0,97.9,0.485
2.9,31817.3,34529.0,1.1715,1.1558,141.0,97.9,0.485
2.92,31671.9,34444.0,1.1623,1.1509,141.0,97.9,0.485
2.94,31788.3,34553.4,1.1696,1.1572,141.0,97.9,0.485
2.96,31902.5,34830.2,1.1769,1.1733,141.0,97.9,0.485
2.98,32162.5,35226.2,1.1934,1.1962,141.0,97.9,0.485
3.0,32201.3,35538.0,1.1958,1.2143,141.0,97.9,0.485
3.02,32325.0,35665.2,1.2037,1.2217,141.0,97.9,0.485
3.04,32298.2,35807.1,1.202,1.2299,141.0,97.9,0.485
3.06,32198.9,35630.8,1.1957,1.2197,141.0,97.9,0.485
3.08,32149.3,35349.6,1.1925,1.2034,141.0,97.9,0.485
3.1,32057.8,35269.1,1.1867,1.1987,141.0,97.9,0.485
3.12,32143.6,35197.5,1.1922,1.1946,141.0,97.9,0.485
3.14,32042.4,35105.2,1.1858,1.1892,141.0,97.9,0.485
3.16,32039.2,35100.6,1.1856,1.189,141.0,97.9,0.485
3.18,31912.1,34949.6,1.1775,1.1802,141.0,97.9,0.485
3.2,32041.0,34821.7,1.1857,1.1728,141.0,97.9,0.485
3.22,31901.3,34780.0,1.1768,1.1704,141.0,97.9,0.485
3.24,31861.7,34676.4,1.1743,1.1644,141.0,97.9,0.485
3.26,31758.2,34559.4,1.1677,1.1576,141.0,97.9,0.485
3.28,31934.9,34630.6,1.1789,1.1617,141.0,97.9,0.485
3.3,31758.1,34596.8,1.1677,1.1598,141.0,97.9,0.485
3.32,31838.6,34481.1,1.1728,1.1531,141.0,97.9,0.485
3.34,31755.0,34500.5,1.1675,1.1542,141.0,97.9,0.485
3.36,31774.9,34521.7,1.1688,1.1554,141.0,97.9,0.485
3.38,31913.6,34758.9,1.1776,1.1692,141.0,97.9,0.485
3.4,32127.8,34954.8,1.1912,1.1805,141.0,97.9,0.485
3.42,32246.7,35466.4,1.1987,1.2102,141.0,97.9,0.485
3.44,32376.8,35683.8,1.2069,1.2228,141.0,97.9,0.485
3.46,32369.3,35781.0,1.2065,1.2284,141.0,97.9,0.485
3.48,32338.3,35664.0,1.2045,1.2216,141.0,97.9,0.485
3.5,32139.5,35448.0,1.1919,1.2091,141.0,97.9,0.485
3.52,32132.0,35316.5,1.1914,1.2015,141.0,97.9,0.485
3.54,32064.3,35129.2,1.1871,1.1906,141.0,97.9,0.485
3.56,32040.1,35200.9,1.1856,1.1948,141.0,97.9,0.485
3.58,32000.1,35065.6,1.1831,1.1869,141.0,97.9,0.485
3.6,31923.0,35002.4,1.1782,1.1833,141.0,97.9,0.485
3.62,31979.2,34930.7,1.1817,1.1791,141.0,97.9,0.485
3.64,31822.2,34756.2,1.1718,1.169,141.0,97.9,0.485
3.66,31856.7,34645.4,1.174,1.1626,141.0,97.9,0.485
3.68,31859.1,34622.5,1.1741,1.1612,141.0,97.9,0.485
3.7,31840.5,34633.7,1.173,1.1619,141.0,97.9,0.485
3.72,31845.5,34638.6,1.1733,1.1622,141.0,97.9,0.485
3.74,31688.3,34550.4,1.1633,1.1571,141.0,97.9,0.485
3.76,31746.0,34450.2,1.167,1.1513,141.0,97.9,0.485
3.78,31729.2,34490.5,1.1659,1.1536,141.0,97.9,0.485
3.8,31795.1,34688.0,1.1701,1.165,141.0,97.9,0.485
3.82,32046.6,35048.6,1.186,1.1859,141.0,97.9,0.485
3.84,32081.8,35379.1,1.1883,1.2051,141.0,97.9,0.485
3.86,32236.0,35745.5,1.198,1.2263,141.0,97.9,0.485
3.88,32263.2,35702.7,1.1997,1.2238,141.0,97.9,0.485
3.9,32293.4,35715.4,1.2017,1.2246,141.0,97.9,0.485
3.92,32262.1,35554.5,1.1997,1.2153,141.0,97.9,0.485
3.94,32201.8,35340.1,1.1959,1.2028,141.0,97.9,0.485
3.96,32117.0,35169.1,1.1905,1.1929,141.0,97.9,0.485
3.98,31989.8,35111.6,1.1824,1.1896,141.0,97.9,0.485
4.0,32004.9,35098.7,1.1834,1.1888,141.0,97.9,0.485
4.02,32001.9,35010.1,1.1832,1.1837,141.0,97.9,0.485
4.04,31931.8,34913.3,1.1787,1.1781,141.0,97.9,0.485
4.06,31836.8,34805.7,1.1727,1.1719,141.0,97.9,0.485
4.08,31848.9,34704.0,1.1735,1.166,141.0,97.9,0.485
4.1,31904.7,34629.4,1.177,1.1617,141.0,97.9,0.485
4.12,31799.6,34685.6,1.1704,1.1649,141.0,97.9,0.485
4.14,31870.3,34622.9,1.1748,1.1613,141.0,97.9,0.485
4.16,31774.1,34514.2,1.1687,1.155,141.0,97.9,0.485
4.18,31764.3,34461.5,1.1681,1.1519,141.0,97.9,0.485
4.2,31830.7,34525.1,1.1723,1.1556,141.0,97.9,0.485
4.22,31850.9,34668.8,1.1736,1.1639,141.0,97.9,0.485
4.24,31997.5,34854.3,1.1829,1.1747,141.0,97.9,0.485
4.26,32167.7,35247.8,1.1937,1.1975,141.0,97.9,0.485
4.28,32262.6,35532.6,1.1997,1.214,141.0,97.9,0.485
4.3,32322.8,35648.5,1.2035,1.2207,141.0,97.9,0.485
4.32,32422.6,35656.1,1.2099,1.2211,141.0,97.9,0.485
4.34,32240.2,35551.2,1.1983,1.2151,141.0,97.9,0.485
4.36,32167.0,35264.1,1.1937,1.1984,141.0,97.9,0.485
4.38,32043.3,35244.4,1.1858,1.1973,141.0,97.9,0.485
4.4,32085.6,35078.7,1.1885,1.1877,141.0,97.9,0.485
4.42,32012.0,35046.8,1.1838,1.1858,141.0,97.9,0.485
4.44,31972.5,34938.7,1.1813,1.1796,141.0,97.9,0.485
4.46,31980.8,34866.5,1.1819,1.1754,141.0,97.9,0.485
4.48,31970.2,34774.0,1.1812,1.17,141.0,97.9,0.485
4.5,31862.7,34676.7,1.1744,1.1644,141.0,97.9,0.485
4.52,31852.0,34704.3,1.1737,1.166,141.0,97.9,0.485
4.54,31930.2,34678.3,1.1786,1.1645,141.0,97.9,0.485
4.56,31825.5,34595.7,1.172,1.1597,141.0,97.9,0.485
4.58,31794.4,34490.9,1.17,1.1536,141.0,97.9,0.485
4.6,31840.6,34462.0,1.173,1.1519,141.0,97.9,0.485
4.62,31771.7,34475.2,1.1686,1.1527,141.0,97.9,0.485
4.64,31803.6,34511.1,1.1706,1.1548,141.0,97.9,0.485
4.66,31943.5,34823.0,1.1795,1.1729,141.0,97.9,0.485
4.68,32103.9,35181.1,1.1896,1.1936,141.0,97.9,0.485
4.7,32175.2,35478.2,1.1942,1.2108,141.0,97.9,0.485
4.72,32268.8,35810.8,1.2001,1.2301,141.0,97.9,0.485
4.74,32341.4,35794.7,1.2047,1.2292,141.0,97.9,0.485
4.76,32360.3,35690.7,1.2059,1.2232,141.0,97.9,0.485
4.78,32176.6,35449.4,1.1943,1.2092,141.0,97.9,0.485
4.8,32174.0,35137.5,1.1941,1.1911,141.0,97.9,0.485
4.82,32097.5,35204.5,1.1892,1.195,141.0,97.9,0.485
4.84,32023.0,35013.3,1.1845,1.1839,141.0,97.9,0.485
4.86,32002.0,35066.6,1.1832,1.187,141.0,97.9,0.485
4.88,31918.2,34918.9,1.1779,1.1784,141.0,97.9,0.485
4.9,31934.5,34812.7,1.1789,1.1723,141.0,97.9,0.485
4.92,31943.4,34757.9,1.1795,1.1691,141.0,97.9,0.485
4.94,31858.1,34770.3,1.1741,1.1698,141.0,97.9,0.485
4.96,31934.2,34688.1,1.1789,1.165,141.0,97.9,0.485
4.98,31939.1,34708.2,1.1792,1.1662,141.0,97.9,0.485
5.0,31950.8,34492.9,1.18,1.1537,141.0,97.9,0.485
5.02,31737.4,34510.7,1.1664,1.1548,141.0,97.9,0.485
5.04,31748.6,34459.3,1.1671,1.1518,141.0,97.9,0.485
5.06,31794.3,34500.0,1.17,1.1542,141.0,97.9,0.485
5.08,31898.1,34685.6,1.1766,1.1649,141.0,97.9,0.485
5.1,32031.4,34991.1,1.1851,1.1826,141.0,97.9,0.485
5.12,32286.0,35429.6,1.2012,1.208,141.0,97.9,0.485
5.14,32271.3,35781.1,1.2003,1.2284,141.0,97.9,0.485
5.16,32300.1,35788.7,1.2021,1.2288,141.0,97.9,0.485
5.18,32272.0,35669.9,1.2003,1.2219,141.0,97.9,0.485
5.2,32186.5,35401.0,1.1949,1.2064,141.0,97.9,0.485
5.22,32236.8,35250.3,1.1981,1.1976,141.0,97.9,0.485
5.24,32095.8,35158.5,1.1891,1.1923,141.0,97.9,0.485
5.26,32048.9,35014.4,1.1862,1.184,141.0,97.9,0.485
5.28,32025.3,35029.2,1.1847,1.1848,141.0,97.9,0.485
5.3,32022.6,34898.4,1.1845,1.1772,141.0,97.9,0.485
5.32,31953.4,34874.7,1.1801,1.1759,141.0,97.9,0.485
5.34,31900.7,34787.6,1.1768,1.1708,141.0,97.9,0.485
5.36,31801.1,34633.5,1.1705,1.1619,141.0,97.9,0.485
5.38,31844.7,34639.2,1.1732,1.1622,141.0,97.9,0.485
5.4,31849.1,34603.1,1.1735,1.1601,141.0,97.9,0.485
5.42,31816.3,34519.7,1.1714,1.1553,141.0,97.9,0.485
5.44,31687.4,34429.7,1.1633,1.1501,141.0,97.9,0.485
5.46,31784.9,34534.0,1.1694,1.1561,141.0,97.9,0.485
5.48,31712.6,34489.1,1.1649,1.1535,141.0,97.9,0.485
5.5,31759.5,34613.3,1.1678,1.1607,141.0,97.9,0.485
5.52,31941.2,34926.6,1.1793,1.1789,141.0,97.9,0.485
5.54,32214.7,35250.6,1.1967,1.1976,141.0,97.9,0.485
5.56,32318.7,35557.7,1.2033,1.2154,141.0,97.9,0.485
5.58,32296.5,35723.0,1.2019,1.225,141.0,97.9,0.485
5.6,32312.0,35730.2,1.2028,1.2254,141.0,97.9,0.485
5.62,32256.2,35490.4,1.1993,1.2115,141.0,97.9,0.485
5.64,32119.6,35358.3,1.1906,1.2039,141.0,97.9,0.485
5.66,32106.1,35154.4,1.1898,1.1921,141.0,97.9,0.485
5.68,32089.2,35137.5,1.1887,1.1911,141.0,97.9,0.485
5.7,32113.0,35067.0,1.1902,1.187,141.0,97.9,0.485
5.72,31920.2,34920.4,1.178,1.1785,141.0,97.9,0.485
5.74,31947.3,34859.3,1.1797,1.175,141.0,97.9,0.485
5.76,31972.5,34795.7,1.1813,1.1713,141.0,97.9,0.485
5.78,31815.0,34723.1,1.1713,1.1671,141.0,97.9,0.485
5.8,31845.9,34699.5,1.1733,1.1657,141.0,97.9,0.485
5.82,31795.6,34560.9,1.1701,1.1577,141.0,97.9,0.485
5.84,31786.3,34623.1,1.1695,1.1613,141.0,97.9,0.485
5.86,31802.9,34547.0,1.1706,1.1569,141.0,97.9,0.485
5.88,31762.4,34419.2,1.168,1.1495,141.0,97.9,0.485
5.9,31774.0,34441.4,1.1687,1.1508,141.0,97.9,0.485
5.92,31810.1,34525.0,1.171,1.1556,141.0,97.9,0.485
5.94,31956.2,34910.7,1.1803,1.1779,141.0,97.9,0.485
5.96,32044.4,35215.5,1.1859,1.1956,141.0,97.9,0.485
5.98,32260.5,35580.1,1.1996,1.2167,141.0,97.9,0.485
6.0,32347.3,35752.8,1.2051,1.2267,141.0,97.9,0.485
6.02,32277.7,35797.1,1.2007,1.2293,141.0,97.9,0.485
6.04,32295.7,35588.1,1.2018,1.2172,141.0,97.9,0.485
6.06,32210.7,35343.8,1.1964,1.203,141.0,97.9,0.485
6.08,32091.5,35223.8,1.1889,1.1961,141.0,97.9,0.485
6.1,32035.5,35143.4,1.1853,1.1914,141.0,97.9,0.485
6.12,31985.1,35129.7,1.1821,1.1906,141.0,97.9,0.485
6.14,32107.2,34958.8,1.1899,1.1807,141.0,97.9,0.485
6.16,31973.0,34892.6,1.1814,1.1769,141.0,97.9,0.485
6.18,31835.4,34821.8,1.1726,1.1728,141.0,97.9,0.485
6.2,31832.1,34786.1,1.1724,1.1707,141.0,97.9,0.485
6.22,31860.4,34669.2,1.1742,1.164,141.0,97.9,0.485
6.24,31856.4,34576.4,1.174,1.1586,141.0,97.9,0.485
6.26,31779.9,34653.4,1.1691,1.163,141.0,97.9,0.485
6.28,31802.0,34555.3,1.1705,1.1574,141.0,97.9,0.485
6.3,31788.7,34513.8,1.1697,1.1549,141.0,97.9,0.485
6.32,31754.1,34388.8,1.1675,1.1477,141.0,97.9,0.485
6.34,31774.3,34563.4,1.1688,1.1578,141.0,97.9,0.485
6.36,31862.0,34726.9,1.1743,1.1673,141.0,97.9,0.485
6.38,32052.7,35180.9,1.1864,1.1936,141.0,97.9,0.485
6.4,32216.7,35407.7,1.1968,1.2067,141.0,97.9,0.485
6.42,32309.2,35753.9,1.2027,1.2268,141.0,97.9,0.485
6.44,32401.1,35771.8,1.2085,1.2278,141.0,97.9,0.485
6.46,32287.5,35589.5,1.2013,1.2173,141.0,97.9,0.485
6.48,32203.6,35371.9,1.196,1.2047,141.0,97.9,0.485
6.5,32287.8,35234.4,1.2013,1.1967,141.0,97.9,0.485
6.52,32070.3,35129.7,1.1875,1.1906,141.0,97.9,0.485
6.54,32080.4,35099.0,1.1882,1.1889,141.0,97.9,0.485
6.56,32048.5,35032.0,1.1861,1.185,141.0,97.9,0.485
6.58,31967.8,34988.6,1.181,1.1825,141.0,97.9,0.485
6.6,31978.1,34828.6,1.1817,1.1732,141.0,97.9,0.485
6.62,31969.3,34710.9,1.1811,1.1664,141.0,97.9,0.485
6.64,31785.5,34754.6,1.1695,1.1689,141.0,97.9,0.485
6.66,31819.1,34731.7,1.1716,1.1676,141.0,97.9,0.485
6.68,31796.4,34571.8,1.1702,1.1583,141.0,97.9,0.485
6.7,31887.7,34595.5,1.1759,1.1597,141.0,97.9,0.485
6.72,31668.4,34537.4,1.162,1.1563,141.0,97.9,0.485
6.74,31797.7,34422.8,1.1702,1.1497,141.0,97.9,0.485
6.76,31748.2,34497.3,1.1671,1.154,141.0,97.9,0.485
6.78,31875.3,34698.1,1.1752,1.1656,141.0,97.9,0.485
6.8,31997.0,35049.3,1.1829,1.186,141.0,97.9,0.485
6.82,32166.5,35372.8,1.1936,1.2047,141.0,97.9,0.485
6.84,32221.3,35630.6,1.1971,1.2197,141.0,97.9,0.485
6.86,32301.7,35695.2,1.2022,1.2234,141.0,97.9,0.485
6.88,32262.2,35716.3,1.1997,1.2246,141.0,97.9,0.485
6.9,32246.2,35410.7,1.1987,1.2069,141.0,97.9,0.485
6.92,32163.0,35313.1,1.1934,1.2013,141.0,97.9,0.485
6.94,32064.7,35176.2,1.1872,1.1933,141.0,97.9,0.485
6.96,32064.1,35092.4,1.1871,1.1885,141.0,97.9,0.485
6.98,32042.1,35043.6,1.1857,1.1857,141.0,97.9,0.485
7.0,31960.4,34979.3,1.1806,1.1819,141.0,97.9,0.485
7.02,31950.6,34931.2,1.1799,1.1791,141.0,97.9,0.485
7.04,31929.4,34825.6,1.1786,1.173,141.0,97.9,0.485
7.06,31884.7,34696.3,1.1758,1.1655,141.0,97.9,0.485
7.08,31840.8,34647.8,1.173,1.1627,141.0,97.9,0.485
7.1,31785.4,34670.7,1.1695,1.164,141.0,97.9,0.485
7.12,31751.1,34688.7,1.1673,1.1651,141.0,97.9,0.485
7.14,31741.9,34547.7,1.1667,1.1569,141.0,97.9,0.485
7.16,31708.3,34471.2,1.1646,1.1525,141.0,97.9,0.485
7.18,31806.2,34574.9,1.1708,1.1585,141.0,97.9,0.485
7.2,31835.7,34612.3,1.1727,1.1607,141.0,97.9,0.485
7.22,31951.5,34889.2,1.18,1.1767,141.0,97.9,0.485
7.24,32141.7,35202.6,1.192,1.1949,141.0,97.9,0.485
7.26,32288.5,35617.8,1.2013,1.2189,141.0,97.9,0.485
7.28,32361.0,35801.2,1.2059,1.2295,141.0,97.9,0.485
7.3,32302.8,35713.1,1.2023,1.2244,141.0,97.9,0.485
7.32,32204.4,35520.5,1.196,1.2133,141.0,97.9,0.485
7.34,32166.0,35355.8,1.1936,1.2037,141.0,97.9,0.485
7.36,32097.5,35209.2,1.1892,1.1952,141.0,97.9,0.485
7.38,32047.9,35158.9,1.1861,1.1923,141.0,97.9,0.485
7.4,32046.6,35013.0,1.186,1.1839,141.0,97.9,0.485
7.42,32051.4,34993.2,1.1863,1.1827,141.0,97.9,0.485
7.44,31993.2,34866.4,1.1826,1.1754,141.0,97.9,0.485
7.46,31952.0,34747.6,1.18,1.1685,141.0,97.9,0.485
7.48,31886.1,34766.6,1.1758,1.1696,141.0,97.9,0.485
7.5,31757.2,34650.6,1.1677,1.1629,141.0,97.9,0.485
7.52,31892.5,34573.4,1.1763,1.1584,141.0,97.9,0.485
7.54,31819.4,34624.7,1.1716,1.1614,141.0,97.9,0.485
7.56,31675.4,34590.5,1.1625,1.1594,141.0,97.9,0.485
7.58,31791.8,34460.7,1.1699,1.1519,141.0,97.9,0.485
7.6,31761.3,34413.0,1.1679,1.1491,141.0,97.9,0.485
7.62,31819.8,34652.0,1.1716,1.163,141.0,97.9,0.485
7.64,31898.9,34854.0,1.1767,1.1747,141.0,97.9,0.485
7.66,32055.3,35184.5,1.1866,1.1938,141.0,97.9,0.485
7.68,32243.1,35515.4,1.1985,1.213,141.0,97.9,0.485
7.7,32328.0,35814.3,1.2039,1.2303,141.0,97.9,0.485
7.72,32309.1,35736.6,1.2027,1.2258,141.0,97.9,0.485
7.74,32257.4,35488.6,1.1994,1.2114,141.0,97.9,0.485
7.76,32155.6,35331.3,1.1929,1.2023,141.0,97.9,0.485
7.78,32108.7,35351.3,1.19,1.2035,141.0,97.9,0.485
7.8,32028.7,35118.0,1.1849,1.19,141.0,97.9,0.485
7.82,31975.6,35092.3,1.1815,1.1885,141.0,97.9,0.485
7.84,32050.8,34983.9,1.1863,1.1822,141.0,97.9,0.485
7.86,32029.8,34940.4,1.185,1.1797,141.0,97.9,0.485
7.88,31997.4,34713.2,1.1829,1.1665,141.0,97.9,0.485
7.9,31894.2,34794.0,1.1764,1.1712,141.0,97.9,0.485
7.92,31918.1,34662.4,1.1779,1.1636,141.0,97.9,0.485
7.94,31867.0,34679.0,1.1746,1.1645,141.0,97.9,0.485
7.96,31860.7,34692.4,1.1742,1.1653,141.0,97.9,0.485
7.98,31754.7,34663.8,1.1675,1.1636,141.0,97.9,0.485
8.0,31790.5,34537.5,1.1698,1.1563,141.0,97.9,0.485
8.02,31724.3,34433.9,1.1656,1.1503,141.0,97.9,0.485
8.04,31771.3,34570.0,1.1686,1.1582,141.0,97.9,0.485
8.06,31992.0,34777.8,1.1826,1.1703,141.0,97.9,0.485
8.08,32055.1,35074.2,1.1866,1.1874,141.0,97.9,0.485
8.1,32361.6,35568.6,1.206,1.2161,141.0,97.9,0.485
8.12,32361.2,35659.4,1.206,1.2213,141.0,97.9,0.485
8.14,32319.4,35783.3,1.2033,1.2285,141.0,97.9,0.485
8.16,32329.9,35680.1,1.204,1.2225,141.0,97.9,0.485
8.18,32219.3,35476.7,1.197,1.2107,141.0,97.9,0.485
8.2,32152.8,35278.4,1.1928,1.1993,141.0,97.9,0.485
8.22,32009.7,35161.2,1.1837,1.1925,141.0,97.9,0.485
8.24,32097.4,35050.9,1.1892,1.1861,141.0,97.9,0.485
8.26,31952.0,35050.1,1.18,1.186,141.0,97.9,0.485
8.28,31945.7,35107.4,1.1796,1.1893,141.0,97.9,0.485
8.3,31889.8,34878.4,1.1761,1.1761,141.0,97.9,0.485
8.32,31960.9,34759.5,1.1806,1.1692,141.0,97.9,0.485
8.34,31916.0,34729.5,1.1777,1.1674,141.0,97.9,0.485
8.36,31829.4,34687.0,1.1723,1.165,141.0,97.9,0.485
8.38,31880.2,34676.7,1.1755,1.1644,141.0,97.9,0.485
8.4,31777.5,34560.5,1.169,1.1577,141.0,97.9,0.485
8.42,31844.1,34454.1,1.1732,1.1515,141.0,97.9,0.485
8.44,31830.2,34411.2,1.1723,1.149,141.0,97.9,0.485
8.46,31737.2,34415.4,1.1664,1.1492,141.0,97.9,0.485
8.48,31926.0,34620.7,1.1784,1.1611,141.0,97.9,0.485
8.5,31986.6,34965.0,1.1822,1.1811,141.0,97.9,0.485
8.52,32191.4,35307.0,1.1952,1.2009,141.0,97.9,0.485
8.54,32347.6,35690.0,1.2051,1.2231,141.0,97.9,0.485
8.56,32261.9,35801.2,1.1997,1.2296,141.0,97.9,0.485
8.58,32308.6,35651.1,1.2026,1.2209,141.0,97.9,0.485
8.6,32301.6,35410.9,1.2022,1.2069,141.0,97.9,0.485
8.62,32151.3,35309.0,1.1927,1.201,141.0,97.9,0.485
8.64,32222.6,35161.0,1.1972,1.1925,141.0,97.9,0.485
8.66,32044.7,35194.2,1.1859,1.1944,141.0,97.9,0.485
8.68,32008.4,35034.2,1.1836,1.1851,141.0,97.9,0.485
8.7,32028.6,34907.9,1.1849,1.1778,141.0,97.9,0.485
8.72,31959.3,34816.9,1.1805,1.1725,141.0,97.9,0.485
8.74,31922.7,34795.3,1.1782,1.1713,141.0,97.9,0.485
8.76,31787.7,34629.6,1.1696,1.1617,141.0,97.9,0.485
8.78,31929.7,34692.8,1.1786,1.1653,141.0,97.9,0.485
8.8,31830.4,34648.3,1.1723,1.1627,141.0,97.9,0.485
8.82,31808.8,34608.6,1.1709,1.1604,141.0,97.9,0.485
8.84,31792.0,34449.1,1.1699,1.1512,141.0,97.9,0.485
8.86,31778.6,34534.0,1.169,1.1561,141.0,97.9,0.485
8.88,31721.0,34491.9,1.1654,1.1537,141.0,97.9,0.485
8.9,31810.0,34635.2,1.171,1.162,141.0,97.9,0.485
8.92,32002.8,34919.9,1.1832,1.1785,141.0,97.9,0.485
8.94,32207.1,35257.4,1.1962,1.198,141.0,97.9,0.485
8.96,32213.7,35585.1,1.1966,1.217,141.0,97.9,0.485
8.98,32315.2,35738.3,1.203,1.2259,141.0,97.9,0.485
9.0,32335.9,35692.4,1.2044,1.2233,141.0,97.9,0.485
9.02,32333.1,35577.5,1.2042,1.2166,141.0,97.9,0.485
9.04,32222.2,35326.4,1.1972,1.202,141.0,97.9,0.485
9.06,32023.3,35219.6,1.1845,1.1958,141.0,97.9,0.485
9.08,32071.1,35149.9,1.1876,1.1918,141.0,97.9,0.485
9.1,32036.2,35013.2,1.1854,1.1839,141.0,97.9,0.485
9.12,32028.1,35025.7,1.1848,1.1846,141.0,97.9,0.485
9.14,31960.9,34858.6,1.1806,1.1749,141.0,97.9,0.485
9.16,31825.1,34825.6,1.172,1.173,141.0,97.9,0.485
9.18,31866.3,34706.9,1.1746,1.1661,141.0,97.9,0.485
9.2,31819.2,34692.5,1.1716,1.1653,141.0,97.9,0.485
9.22,31825.0,34735.6,1.172,1.1678,141.0,97.9,0.485
9.24,31860.3,34631.4,1.1742,1.1618,141.0,97.9,0.485
9.26,31811.0,34615.0,1.1711,1.1608,141.0,97.9,0.485
9.28,31836.2,34448.5,1.1727,1.1512,141.0,97.9,0.485
9.3,31712.6,34376.4,1.1648,1.147,141.0,97.9,0.485
9.32,31809.6,34560.4,1.171,1.1576,141.0,97.9,0.485
9.34,31901.2,34817.9,1.1768,1.1726,141.0,97.9,0.485
9.36,32085.6,35259.5,1.1885,1.1982,141.0,97.9,0.485
9.38,32228.3,35532.8,1.1975,1.214,141.0,97.9,0.485
9.4,32322.3,35753.0,1.2035,1.2268,141.0,97.9,0.485
9.42,32294.2,35701.0,1.2017,1.2237,141.0,97.9,0.485
9.44,32286.7,35601.8,1.2012,1.218,141.0,97.9,0.485
9.46,32146.3,35490.6,1.1923,1.2116,141.0,97.9,0.485
9.48,32088.5,35232.1,1.1887,1.1966,141.0,97.9,0.485
9.5,32058.5,35055.3,1.1868,1.1863,141.0,97.9,0.485
9.52,32134.5,35036.1,1.1916,1.1852,141.0,97.9,0.485
9.54,31979.6,34987.4,1.1818,1.1824,141.0,97.9,0.485
9.56,31975.9,34948.9,1.1815,1.1802,141.0,97.9,0.485
9.58,31855.5,34833.8,1.1739,1.1735,141.0,97.9,0.485
9.6,31901.2,34711.5,1.1768,1.1664,141.0,97.9,0.485
9.62,31851.6,34624.3,1.1737,1.1614,141.0,97.9,0.485
9.64,31970.7,34582.1,1.1812,1.1589,141.0,97.9,0.485
9.66,31877.8,34646.7,1.1753,1.1626,141.0,97.9,0.485
9.68,31831.1,34544.7,1.1724,1.1567,141.0,97.9,0.485
9.7,31863.2,34434.3,1.1744,1.1503,141.0,97.9,0.485
9.72,31798.3,34444.5,1.1703,1.1509,141.0,97.9,0.485
9.74,31886.7,34522.0,1.1759,1.1554,141.0,97.9,0.485
9.76,31959.0,34681.6,1.1805,1.1647,141.0,97.9,0.485
9.78,32045.6,35135.4,1.186,1.191,141.0,97.9,0.485
9.8,32303.0,35449.7,1.2023,1.2092,141.0,97.9,0.485
9.82,32282.0,35709.2,1.2009,1.2242,141.0,97.9,0.485
9.84,32364.6,35844.2,1.2062,1.232,141.0,97.9,0.485
9.86,32306.3,35682.3,1.2025,1.2227,141.0,97.9,0.485
9.88,32291.3,35427.8,1.2015,1.2079,141.0,97.9,0.485
9.9,32109.2,35199.1,1.19,1.1947,141.0,97.9,0.485
9.92,32077.6,35143.6,1.188,1.1914,141.0,97.9,0.485
9.94,32013.9,35040.3,1.184,1.1855,141.0,97.9,0.485
9.96,32116.8,35101.3,1.1905,1.189,141.0,97.9,0.485
9.98,31983.4,34914.6,1.182,1.1782,141.0,97.9,0.485
10.0,32018.0,34813.8,1.1842,1.1723,141.0,97.9,0.485
10.02,31878.9,34760.7,1.1754,1.1693,141.0,97.9,0.485
10.04,31821.3,34745.2,1.1717,1.1684,141.0,97.9,0.485
10.06,31858.7,34663.4,1.1741,1.1636,141.0,97.9,0.485
10.08,31907.5,34660.1,1.1772,1.1634,141.0,97.9,0.485
10.1,31764.3,34661.4,1.1681,1.1635,141.0,97.9,0.485
10.12,31770.9,34522.0,1.1685,1.1554,141.0,97.9,0.485
10.14,31713.5,34488.1,1.1649,1.1535,141.0,97.9,0.485
10.16,31721.7,34474.8,1.1654,1.1527,141.0,97.9,0.485
10.18,31835.4,34633.0,1.1726,1.1619,141.0,97.9,0.485
10.2,32037.8,35025.1,1.1855,1.1846,141.0,97.9,0.485
10.22,32104.2,35371.9,1.1897,1.2047,141.0,97.9,0.485
10.24,32258.5,35627.3,1.1995,1.2195,141.0,97.9,0.485
10.26,32360.6,35696.7,1.2059,1.2235,141.0,97.9,0.485
10.28,32353.5,35682.0,1.2055,1.2226,141.0,97.9,0.485
10.3,32207.3,35578.2,1.1962,1.2166,141.0,97.9,0.485
10.32,32175.4,35289.4,1.1942,1.1999,141.0,97.9,0.485
10.34,32066.3,35212.6,1.1873,1.1954,141.0,97.9,0.485
10.36,32038.1,35108.3,1.1855,1.1894,141.0,97.9,0.485
10.38,31971.8,35048.5,1.1813,1.1859,141.0,97.9,0.485
10.4,32007.4,34933.5,1.1835,1.1793,141.0,97.9,0.485
10.42,31943.4,34802.4,1.1795,1.1717,141.0,97.9,0.485
10.44,31907.0,34749.2,1.1772,1.1686,141.0,97.9,0.485
10.46,31746.2,34696.4,1.167,1.1655,141.0,97.9,0.485
10.48,31901.3,34674.2,1.1768,1.1642,141.0,97.9,0.485
10.5,31976.2,34667.7,1.1816,1.1639,141.0,97.9,0.485
10.52,31893.7,34538.2,1.1763,1.1564,141.0,97.9,0.485
10.54,31749.4,34572.4,1.1672,1.1583,141.0,97.9,0.485
10.56,31762.4,34495.7,1.168,1.1539,141.0,97.9,0.485
10.58,31791.4,34523.8,1.1698,1.1555,141.0,97.9,0.485
10.6,31806.4,34668.3,1.1708,1.1639,141.0,97.9,0.485
10.62,31896.8,34918.6,1.1765,1.1784,141.0,97.9,0.485
10.64,32026.7,35263.3,1.1848,1.1984,141.0,97.9,0.485
10.66,32271.2,35605.1,1.2003,1.2182,141.0,97.9,0.485
10.68,32417.7,35744.3,1.2095,1.2263,141.0,97.9,0.485
10.7,32353.7,35770.8,1.2055,1.2278,141.0,97.9,0.485
10.72,32189.3,35546.8,1.1951,1.2148,141.0,97.9,0.485
10.74,32151.4,35343.6,1.1927,1.203,141.0,97.9,0.485
10.76,32079.7,35178.2,1.1881,1.1935,141.0,97.9,0.485
10.78,31999.6,35115.7,1.183,1.1898,141.0,97.9,0.485
10.8,32074.2,35092.3,1.1878,1.1885,141.0,97.9,0.485
10.82,32089.3,34900.1,1.1887,1.1773,141.0,97.9,0.485
10.84,31986.9,34879.5,1.1822,1.1761,141.0,97.9,0.485
10.86,31914.6,34866.5,1.1777,1.1754,141.0,97.9,0.485
10.88,31956.8,34693.8,1.1803,1.1654,141.0,97.9,0.485
10.9,31836.8,34673.5,1.1727,1.1642,141.0,97.9,0.485
10.92,31831.7,34638.9,1.1724,1.1622,141.0,97.9,0.485
10.94,31884.5,34651.7,1.1757,1.1629,141.0,97.9,0.485
10.96,31820.5,34538.4,1.1717,1.1564,141.0,97.9,0.485
10.98,31790.1,34544.0,1.1698,1.1567,141.0,97.9,0.485
11.0,31808.4,34362.8,1.1709,1.1462,141.0,97.9,0.485
11.02,31783.3,34650.4,1.1693,1.1629,141.0,97.9,0.485
11.04,31819.7,34826.9,1.1716,1.1731,141.0,97.9,0.485
11.06,32133.3,35175.0,1.1915,1.1933,141.0,97.9,0.485
11.08,32187.2,35390.0,1.1949,1.2057,141.0,97.9,0.485
11.1,32447.2,35750.8,1.2114,1.2266,141.0,97.9,0.485
11.12,32342.6,35781.9,1.2048,1.2284,141.0,97.9,0.485
11.14,32378.4,35646.8,1.207,1.2206,141.0,97.9,0.485
11.16,32208.3,35435.4,1.1963,1.2084,141.0,97.9,0.485
11.18,32145.6,35194.3,1.1923,1.1944,141.0,97.9,0.485
11.2,32039.8,35184.3,1.1856,1.1938,141.0,97.9,0.485
11.22,31993.5,35092.4,1.1827,1.1885,141.0,97.9,0.485
11.24,32052.7,34963.4,1.1864,1.181,141.0,97.9,0.485
11.26,31942.7,34919.5,1.1794,1.1785,141.0,97.9,0.485
11.28,31887.5,34995.3,1.1759,1.1829,141.0,97.9,0.485
11.3,31913.9,34718.4,1.1776,1.1668,141.0,97.9,0.485
11.32,31825.7,34758.4,1.172,1.1691,141.0,97.9,0.485
11.34,31833.4,34650.6,1.1725,1.1629,141.0,97.9,0.485
11.36,31841.8,34687.8,1.173,1.165,141.0,97.9,0.485
11.38,31721.9,34562.5,1.1654,1.1578,141.0,97.9,0.485
11.4,31852.3,34543.2,1.1737,1.1567,141.0,97.9,0.485
11.42,31641.1,34427.8,1.1603,1.15,141.0,97.9,0.485
11.44,31861.1,34574.3,1.1743,1.1585,141.0,97.9,0.485
11.46,31811.5,34620.1,1.1711,1.1611,141.0,97.9,0.485
11.48,32092.4,35104.3,1.1889,1.1892,141.0,97.9,0.485
11.5,32123.7,35452.5,1.1909,1.2093,141.0,97.9,0.485
11.52,32307.5,35624.6,1.2026,1.2193,141.0,97.9,0.485
11.54,32169.0,35700.3,1.1938,1.2237,141.0,97.9,0.485
11.56,32438.7,35658.1,1.2109,1.2213,141.0,97.9,0.485
11.58,32281.6,35481.0,1.2009,1.211,141.0,97.9,0.485
11.6,32115.7,35292.1,1.1904,1.2,141.0,97.9,0.485
11.62,32051.8,35155.7,1.1864,1.1921,141.0,97.9,0.485
11.64,32082.6,35147.2,1.1883,1.1917,141.0,97.9,0.485
11.66,32091.8,35034.1,1.1889,1.1851,141.0,97.9,0.485
11.68,32008.6,34924.7,1.1836,1.1788,141.0,97.9,0.485
11.7,31948.1,34912.4,1.1798,1.178,141.0,97.9,0.485
11.72,32006.6,34743.7,1.1835,1.1683,141.0,97.9,0.485
11.74,31895.7,34705.0,1.1765,1.166,141.0,97.9,0.485
11.76,31826.5,34720.4,1.1721,1.1669,141.0,97.9,0.485
11.78,31754.5,34627.4,1.1675,1.1615,141.0,97.9,0.485
11.8,31821.2,34701.5,1.1717,1.1658,141.0,97.9,0.485
11.82,31790.6,34568.3,1.1698,1.1581,141.0,97.9,0.485
11.84,31775.4,34442.6,1.1688,1.1508,141.0,97.9,0.485
11.86,31737.0,34516.7,1.1664,1.1551,141.0,97.9,0.485
11.88,31850.6,34619.7,1.1736,1.1611,141.0,97.9,0.485
11.9,32065.1,34982.5,1.1872,1.1821,141.0,97.9,0.485
11.92,32144.5,35393.3,1.1922,1.2059,141.0,97.9,0.485
11.94,32239.5,35523.3,1.1982,1.2134,141.0,97.9,0.485
11.96,32391.0,35767.9,1.2079,1.2276,141.0,97.9,0.485
11.98,32316.5,35844.3,1.2031,1.2321,141.0,97.9,0.485
12.0,32261.3,35479.6,1.1996,1.2109,141.0,97.9,0.485
12.02,32161.3,35307.9,1.1933,1.201,141.0,97.9,0.485
12.04,32020.5,35184.3,1.1844,1.1938,141.0,97.9,0.485
12.06,32035.7,35034.0,1.1853,1.1851,141.0,97.9,0.485
12.08,32083.5,35040.4,1.1884,1.1855,141.0,97.9,0.485
12.1,31897.7,34940.3,1.1766,1.1797,141.0,97.9,0.485
12.12,31954.6,34919.3,1.1802,1.1784,141.0,97.9,0.485
12.14,31918.3,34874.0,1.1779,1.1758,141.0,97.9,0.485
12.16,31876.0,34700.0,1.1752,1.1657,141.0,97.9,0.485
12.18,31778.8,34707.4,1.169,1.1662,141.0,97.9,0.485
12.2,31895.5,34686.1,1.1764,1.1649,141.0,97.9,0.485
12.22,31777.5,34759.6,1.169,1.1692,141.0,97.9,0.485
12.24,31698.1,34583.8,1.1639,1.159,141.0,97.9,0.485
12.26,31725.4,34429.9,1.1657,1.1501,141.0,97.9,0.485
12.28,31761.9,34377.1,1.168,1.147,141.0,97.9,0.485
12.3,31759.9,34605.1,1.1678,1.1602,141.0,97.9,0.485
12.32,31951.5,34828.1,1.18,1.1732,141.0,97.9,0.485
12.34,32063.2,35147.0,1.1871,1.1916,141.0,97.9,0.485
12.36,32245.8,35486.4,1.1986,1.2113,141.0,97.9,0.485
12.38,32249.6,35807.6,1.1989,1.2299,141.0,97.9,0.485
12.4,32415.5,35727.8,1.2094,1.2253,141.0,97.9,0.485
12.42,32274.2,35504.3,1.2004,1.2123,141.0,97.9,0.485
12.44,32148.2,35337.0,1.1925,1.2027,141.0,97.9,0.485
12.46,32078.1,35165.4,1.188,1.1927,141.0,97.9,0.485
12.48,32155.9,35133.9,1.1929,1.1909,141.0,97.9,0.485
12.5,32042.6,35122.7,1.1858,1.1902,141.0,97.9,0.485
12.52,31980.9,35043.3,1.1819,1.1856,141.0,97.9,0.485
12.54,32024.5,34947.7,1.1846,1.1801,141.0,97.9,0.485
12.56,31980.8,34815.8,1.1818,1.1725,141.0,97.9,0.485
12.58,31787.1,34777.4,1.1696,1.1702,141.0,97.9,0.485
12.6,31812.4,34725.5,1.1712,1.1672,141.0,97.9,0.485
12.62,31895.3,34650.3,1.1764,1.1629,141.0,97.9,0.485
12.64,31804.2,34681.0,1.1707,1.1646,141.0,97.9,0.485
12.66,31792.8,34659.1,1.1699,1.1634,141.0,97.9,0.485
12.68,31813.9,34442.5,1.1713,1.1508,141.0,97.9,0.485
12.7,31720.0,34415.7,1.1653,1.1493,141.0,97.9,0.485
12.72,31790.5,34489.5,1.1698,1.1535,141.0,97.9,0.485
12.74,31907.0,34733.8,1.1772,1.1677,141.0,97.9,0.485
12.76,32050.8,35121.4,1.1863,1.1902,141.0,97.9,0.485
12.78,32263.3,35500.4,1.1998,1.2121,141.0,97.9,0.485
12.8,32318.6,35716.9,1.2033,1.2247,141.0,97.9,0.485
12.82,32419.0,35767.9,1.2096,1.2276,141.0,97.9,0.485
12.84,32326.9,35705.7,1.2038,1.224,141.0,97.9,0.485
12.86,32098.5,35526.8,1.1893,1.2136,141.0,97.9,0.485
12.88,32079.8,35226.2,1.1881,1.1962,141.0,97.9,0.485
12.9,32087.7,35128.1,1.1886,1.1906,141.0,97.9,0.485
12.92,32057.6,35127.1,1.1867,1.1905,141.0,97.9,0.485
12.94,31997.8,35096.7,1.1829,1.1887,141.0,97.9,0.485
12.96,32017.2,34991.1,1.1842,1.1826,141.0,97.9,0.485
12.98,31927.9,34819.3,1.1785,1.1727,141.0,97.9,0.485
13.0,31857.6,34798.6,1.174,1.1715,141.0,97.9,0.485
13.02,31919.4,34631.1,1.178,1.1617,141.0,97.9,0.485
13.04,31856.7,34693.0,1.174,1.1653,141.0,97.9,0.485
13.06,31853.7,34627.6,1.1738,1.1615,141.0,97.9,0.485
13.08,31834.4,34502.2,1.1726,1.1543,141.0,97.9,0.485
13.1,31631.4,34535.7,1.1597,1.1562,141.0,97.9,0.485
13.12,31752.7,34436.6,1.1674,1.1505,141.0,97.9,0.485
13.14,31750.4,34602.9,1.1672,1.1601,141.0,97.9,0.485
13.16,31776.7,34697.3,1.1689,1.1656,141.0,97.9,0.485
13.18,32010.3,35123.1,1.1837,1.1903,141.0,97.9,0.485
13.2,32246.2,35419.5,1.1987,1.2074,141.0,97.9,0.485
13.22,32346.6,35648.5,1.205,1.2207,141.0,97.9,0.485
13.24,32274.6,35729.4,1.2005,1.2254,141.0,97.9,0.485
13.26,32190.8,35655.3,1.1952,1.2211,141.0,97.9,0.485
13.28,32143.1,35516.1,1.1921,1.213,141.0,97.9,0.485
13.3,32249.3,35316.6,1.1989,1.2015,141.0,97.9,0.485
13.32,32056.9,35174.4,1.1867,1.1932,141.0,97.9,0.485
13.34,32121.5,35053.6,1.1908,1.1862,141.0,97.9,0.485
13.36,32071.5,35186.8,1.1876,1.1939,141.0,97.9,0.485
13.38,32080.1,35055.2,1.1881,1.1863,141.0,97.9,0.485
13.4,31939.9,34866.7,1.1793,1.1754,141.0,97.9,0.485
13.42,31928.5,34758.5,1.1785,1.1691,141.0,97.9,0.485
13.44,31945.7,34636.7,1.1796,1.1621,141.0,97.9,0.485
13.46,31847.8,34725.9,1.1734,1.1672,141.0,97.9,0.485
13.48,31823.5,34631.4,1.1719,1.1618,141.0,97.9,0.485
13.5,31824.9,34614.2,1.172,1.1608,141.0,97.9,0.485
13.52,31767.7,34523.9,1.1683,1.1555,141.0,97.9,0.485
13.54,31748.6,34484.7,1.1671,1.1533,141.0,97.9,0.485
13.56,31685.5,34471.3,1.1631,1.1525,141.0,97.9,0.485
13.58,31827.9,34628.9,1.1722,1.1616,141.0,97.9,0.485
13.6,31994.5,34972.8,1.1827,1.1815,141.0,97.9,0.485
13.62,32158.5,35273.9,1.1931,1.199,141.0,97.9,0.485
13.64,32220.8,35613.4,1.1971,1.2187,141.0,97.9,0.485
13.66,32366.6,35727.0,1.2063,1.2253,141.0,97.9,0.485
13.68,32369.0,35725.0,1.2065,1.2251,141.0,97.9,0.485
13.7,32181.5,35502.6,1.1946,1.2122,141.0,97.9,0.485
13.72,32092.2,35340.9,1.1889,1.2029,141.0,97.9,0.485
13.74,31977.0,35249.0,1.1816,1.1976,141.0,97.9,0.485
13.76,32151.8,35236.9,1.1927,1.1969,141.0,97.9,0.485
13.78,32013.7,35059.6,1.1839,1.1866,141.0,97.9,0.485
13.8,32007.9,35068.1,1.1836,1.1871,141.0,97.9,0.485
13.82,31937.6,34881.4,1.1791,1.1763,141.0,97.9,0.485
13.84,31881.6,34723.4,1.1756,1.1671,141.0,97.9,0.485
13.86,31967.4,34740.2,1.181,1.1681,141.0,97.9,0.485
13.88,31899.5,34607.5,1.1767,1.1604,141.0,97.9,0.485
13.9,31819.5,34645.8,1.1716,1.1626,141.0,97.9,0.485
13.92,31818.5,34660.9,1.1716,1.1635,141.0,97.9,0.485
13.94,31838.0,34499.9,1.1728,1.1541,141.0,97.9,0.485
13.96,31759.2,34483.8,1.1678,1.1532,141.0,97.9,0.485
13.98,31742.9,34444.8,1.1668,1.151,141.0,97.9,0.485
14.0,31788.0,34624.6,1.1696,1.1614,141.0,97.9,0.485
14.02,31876.9,34727.2,1.1753,1.1673,141.0,97.9,0.485
14.04,32113.8,35122.0,1.1903,1.1902,141.0,97.9,0.485
14.06,32238.7,35529.9,1.1982,1.2138,141.0,97.9,0.485
14.08,32331.2,35692.5,1.2041,1.2233,141.0,97.9,0.485
14.1,32316.8,35694.2,1.2031,1.2234,141.0,97.9,0.485
14.12,32291.2,35545.6,1.2015,1.2147,141.0,97.9,0.485
14.14,32148.7,35360.1,1.1925,1.204,141.0,97.9,0.485
14.16,32088.0,35281.7,1.1886,1.1994,141.0,97.9,0.485
14.18,32031.4,35174.7,1.1851,1.1932,141.0,97.9,0.485
14.2,31952.2,35110.4,1.18,1.1895,141.0,97.9,0.485
14.22,32019.9,34940.1,1.1843,1.1797,141.0,97.9,0.485
14.24,32021.2,34935.9,1.1844,1.1794,141.0,97.9,0.485
14.26,31921.0,34818.4,1.1781,1.1726,141.0,97.9,0.485
14.28,31935.8,34759.5,1.179,1.1692,141.0,97.9,0.485
14.3,31803.6,34698.9,1.1706,1.1657,141.0,97.9,0.485
14.32,31860.0,34735.2,1.1742,1.1678,141.0,97.9,0.485
14.34,31813.8,34607.7,1.1713,1.1604,141.0,97.9,0.485
14.36,31885.3,34556.6,1.1758,1.1574,141.0,97.9,0.485
14.38,31738.7,34550.5,1.1665,1.1571,141.0,97.9,0.485
14.4,31726.5,34457.9,1.1657,1.1517,141.0,97.9,0.485
14.42,31728.3,34574.5,1.1658,1.1585,141.0,97.9,0.485
14.44,31915.1,34720.4,1.1777,1.1669,141.0,97.9,0.485
14.46,32025.8,35197.7,1.1847,1.1946,141.0,97.9,0.485
14.48,32165.3,35423.8,1.1935,1.2077,141.0,97.9,0.485
14.5,32179.7,35672.3,1.1945,1.2221,141.0,97.9,0.485
14.52,32302.4,35761.0,1.2022,1.2272,141.0,97.9,0.485
14.54,32264.9,35616.5,1.1999,1.2188,141.0,97.9,0.485
14.56,32144.8,35399.2,1.1922,1.2063,141.0,97.9,0.485
14.58,32127.3,35285.6,1.1911,1.1997,141.0,97.9,0.485
14.6,32137.2,35166.8,1.1918,1.1928,141.0,97.9,0.485
14.62,32019.2,35132.7,1.1843,1.1908,141.0,97.9,0.485
14.64,32029.6,35053.2,1.1849,1.1862,141.0,97.9,0.485
14.66,32001.7,34904.4,1.1832,1.1776,141.0,97.9,0.485
14.68,31912.7,34882.1,1.1775,1.1763,141.0,97.9,0.485
14.7,31919.6,34850.5,1.178,1.1745,141.0,97.9,0.485
14.72,31887.6,34766.5,1.1759,1.1696,141.0,97.9,0.485
14.74,31915.3,34709.1,1.1777,1.1663,141.0,97.9,0.485
14.76,31858.5,34634.2,1.1741,1.1619,141.0,97.9,0.485
14.78,31787.8,34611.5,1.1696,1.1606,141.0,97.9,0.485
14.8,31750.8,34575.5,1.1673,1.1585,141.0,97.9,0.485
14.82,31716.8,34492.2,1.1651,1.1537,141.0,97.9,0.485
14.84,31822.7,34319.0,1.1718,1.1437,141.0,97.9,0.485
14.86,31872.7,34699.4,1.175,1.1657,141.0,97.9,0.485
14.88,31947.7,34974.3,1.1798,1.1816,141.0,97.9,0.485
14.9,32167.4,35321.2,1.1937,1.2017,141.0,97.9,0.485
14.92,32301.4,35613.8,1.2022,1.2187,141.0,97.9,0.485
14.94,32344.2,35830.6,1.2049,1.2313,141.0,97.9,0.485
14.96,32232.4,35630.4,1.1978,1.2197,141.0,97.9,0.485
14.98,32230.2,35632.9,1.1977,1.2198,141.0,97.9,0.485
15.0,32132.9,35271.5,1.1915,1.1989,141.0,97.9,0.485
15.02,32153.6,35225.6,1.1928,1.1962,141.0,97.9,0.485
15.04,32014.0,35145.4,1.184,1.1915,141.0,97.9,0.485
15.06,32097.2,35059.2,1.1892,1.1866,141.0,97.9,0.485
15.08,32064.0,35001.7,1.1871,1.1832,141.0,97.9,0.485
15.1,31995.7,34816.4,1.1828,1.1725,141.0,97.9,0.485
15.12,31903.2,34775.7,1.1769,1.1701,141.0,97.9,0.485
15.14,31837.7,34698.0,1.1728,1.1656,141.0,97.9,0.485
15.16,31816.3,34716.6,1.1714,1.1667,141.0,97.9,0.485
15.18,31829.7,34737.0,1.1723,1.1679,141.0,97.9,0.485
15.2,31849.3,34694.7,1.1735,1.1654,141.0,97.9,0.485
15.22,31797.1,34508.7,1.1702,1.1547,141.0,97.9,0.485
15.24,31709.3,34482.8,1.1646,1.1532,141.0,97.9,0.485
15.26,31777.2,34384.8,1.1689,1.1475,141.0,97.9,0.485
15.28,31935.0,34642.5,1.1789,1.1624,141.0,97.9,0.485
15.3,31976.5,34987.8,1.1816,1.1824,141.0,97.9,0.485
15.32,32089.7,35252.5,1.1888,1.1978,141.0,97.9,0.485
15.34,32225.3,35541.4,1.1973,1.2145,141.0,97.9,0.485
15.36,32335.5,35797.8,1.2043,1.2294,141.0,97.9,0.485
15.38,32303.8,35707.3,1.2023,1.2241,141.0,97.9,0.485
15.4,32275.3,35574.8,1.2005,1.2164,141.0,97.9,0.485
15.42,32135.2,35338.8,1.1916,1.2028,141.0,97.9,0.485
15.44,32146.9,35220.1,1.1924,1.1959,141.0,97.9,0.485
15.46,32054.4,35149.1,1.1865,1.1918,141.0,97.9,0.485
15.48,32068.8,35019.2,1.1874,1.1842,141.0,97.9,0.485
15.5,31943.8,35051.3,1.1795,1.1861,141.0,97.9,0.485
15.52,31898.1,34969.4,1.1766,1.1814,141.0,97.9,0.485
15.54,31898.1,34735.1,1.1766,1.1678,141.0,97.9,0.485
15.56,31908.2,34743.4,1.1773,1.1683,141.0,97.9,0.485
15.58,31814.9,34777.2,1.1713,1.1702,141.0,97.9,0.485
15.6,31832.3,34721.6,1.1724,1.167,141.0,97.9,0.485
15.62,31819.2,34658.2,1.1716,1.1633,141.0,97.9,0.485
15.64,31780.5,34424.6,1.1692,1.1498,141.0,97.9,0.485
15.66,31800.7,34520.9,1.1704,1.1554,141.0,97.9,0.485
15.68,31722.9,34397.9,1.1655,1.1482,141.0,97.9,0.485
15.7,31778.1,34575.5,1.169,1.1585,141.0,97.9,0.485
15.72,31833.3,34731.7,1.1725,1.1676,141.0,97.9,0.485
15.74,31983.7,35098.7,1.182,1.1888,141.0,97.9,0.485
15.76,32218.2,35469.6,1.1969,1.2103,141.0,97.9,0.485
15.78,32390.9,35722.0,1.2078,1.225,141.0,97.9,0.485
15.8,32374.6,35710.7,1.2068,1.2243,141.0,97.9,0.485
15.82,32399.8,35663.1,1.2084,1.2215,141.0,97.9,0.485
15.84,32221.8,35365.6,1.1971,1.2043,141.0,97.9,0.485
15.86,32218.9,35242.7,1.1969,1.1972,141.0,97.9,0.485
15.88,32065.6,35164.5,1.1872,1.1927,141.0,97.9,0.485
15.9,32075.2,35088.9,1.1878,1.1883,141.0,97.9,0.485
15.92,32042.0,35081.1,1.1857,1.1878,141.0,97.9,0.485
15.94,32079.0,34966.7,1.1881,1.1812,141.0,97.9,0.485
15.96,31937.6,34830.1,1.1791,1.1733,141.0,97.9,0.485
15.98,31894.0,34747.2,1.1764,1.1685,141.0,97.9,0.485
16.0,31858.1,34675.7,1.1741,1.1643,141.0,97.9,0.485
16.02,31857.9,34639.5,1.1741,1.1622,141.0,97.9,0.485
16.04,31861.1,34583.5,1.1743,1.159,141.0,97.9,0.485
16.06,31833.1,34579.7,1.1725,1.1588,141.0,97.9,0.485
16.08,31798.2,34548.9,1.1703,1.157,141.0,97.9,0.485
16.1,31825.5,34354.8,1.172,1.1457,141.0,97.9,0.485
16.12,31779.0,34520.3,1.1691,1.1553,141.0,97.9,0.485
16.14,31877.5,34829.0,1.1753,1.1732,141.0,97.9,0.485
16.16,32062.7,35056.0,1.187,1.1864,141.0,97.9,0.485
16.18,32182.1,35407.6,1.1946,1.2067,141.0,97.9,0.485
16.2,32287.2,35722.7,1.2013,1.225,141.0,97.9,0.485
16.22,32340.7,35806.9,1.2047,1.2299,141.0,97.9,0.485
16.24,32357.9,35665.7,1.2057,1.2217,141.0,97.9,0.485
16.26,32205.0,35546.0,1.1961,1.2148,141.0,97.9,0.485
16.28,32148.1,35333.8,1.1925,1.2025,141.0,97.9,0.485
16.3,32138.0,35112.3,1.1918,1.1896,141.0,97.9,0.485
16.32,32183.2,35123.3,1.1947,1.1903,141.0,97.9,0.485
16.34,32026.2,34991.4,1.1847,1.1826,141.0,97.9,0.485
16.36,31991.9,34925.2,1.1826,1.1788,141.0,97.9,0.485
16.38,31950.7,34865.2,1.1799,1.1753,141.0,97.9,0.485
16.4,31958.8,34708.3,1.1805,1.1662,141.0,97.9,0.485
16.42,31882.1,34718.0,1.1756,1.1668,141.0,97.9,0.485
16.44,31848.7,34699.0,1.1735,1.1657,141.0,97.9,0.485
16.46,31845.3,34666.3,1.1733,1.1638,141.0,97.9,0.485
16.48,31826.3,34621.1,1.1721,1.1612,141.0,97.9,0.485
16.5,31813.2,34488.7,1.1712,1.1535,141.0,97.9,0.485
16.52,31867.1,34426.5,1.1746,1.1499,141.0,97.9,0.485
16.54,31786.8,34494.3,1.1696,1.1538,141.0,97.9,0.485
16.56,31818.8,34717.1,1.1716,1.1667,141.0,97.9,0.485
16.58,31970.6,35055.8,1.1812,1.1864,141.0,97.9,0.485
16.6,32207.0,35287.8,1.1962,1.1998,141.0,97.9,0.485
16.62,32244.4,35636.1,1.1986,1.22,141.0,97.9,0.485
16.64,32362.6,35763.0,1.2061,1.2273,141.0,97.9,0.485
16.66,32285.2,35680.7,1.2011,1.2226,141.0,97.9,0.485
16.68,32229.5,35512.9,1.1976,1.2128,141.0,97.9,0.485
16.7,32084.7,35335.5,1.1884,1.2026,141.0,97.9,0.485
16.72,32025.5,35195.9,1.1847,1.1945,141.0,97.9,0.485
16.74,31925.1,35121.9,1.1783,1.1902,141.0,97.9,0.485
16.76,32001.4,34997.8,1.1832,1.183,141.0,97.9,0.485
16.78,32082.9,35040.3,1.1883,1.1855,141.0,97.9,0.485
16.8,31872.4,34920.0,1.175,1.1785,141.0,97.9,0.485
16.82,31927.5,34822.5,1.1785,1.1728,141.0,97.9,0.485
16.84,31789.9,34690.3,1.1697,1.1652,141.0,97.9,0.485
16.86,31881.4,34710.8,1.1755,1.1664,141.0,97.9,0.485
16.88,31857.3,34664.8,1.174,1.1637,141.0,97.9,0.485
16.9,31811.4,34655.2,1.1711,1.1631,141.0,97.9,0.485
16.92,31861.6,34519.6,1.1743,1.1553,141.0,97.9,0.485
16.94,31904.7,34475.5,1.177,1.1527,141.0,97.9,0.485
16.96,31789.6,34465.0,1.1697,1.1521,141.0,97.9,0.485
16.98,31834.4,34588.9,1.1726,1.1593,141.0,97.9,0.485
17.0,31921.6,34839.9,1.1781,1.1738,141.0,97.9,0.485
17.02,32168.0,35223.6,1.1937,1.1961,141.0,97.9,0.485
17.04,32113.5,35588.8,1.1903,1.2172,141.0,97.9,0.485
17.06,32284.8,35722.2,1.2011,1.225,141.0,97.9,0.485
17.08,32378.4,35750.4,1.2071,1.2266,141.0,97.9,0.485
17.1,32249.9,35598.6,1.1989,1.2178,141.0,97.9,0.485
17.12,32099.8,35262.5,1.1894,1.1983,141.0,97.9,0.485
17.14,32058.9,35194.1,1.1868,1.1944,141.0,97.9,0.485
17.16,32157.3,35133.2,1.193,1.1908,141.0,97.9,0.485
17.18,32000.8,35013.8,1.1831,1.1839,141.0,97.9,0.485
17.2,31985.1,35101.8,1.1821,1.189,141.0,97.9,0.485
17.22,31956.0,35006.6,1.1803,1.1835,141.0,97.9,0.485
17.24,31989.0,34753.1,1.1824,1.1688,141.0,97.9,0.485
17.26,31820.6,34683.3,1.1717,1.1648,141.0,97.9,0.485
17.28,31829.3,34687.3,1.1722,1.165,141.0,97.9,0.485
17.3,31791.2,34621.0,1.1698,1.1612,141.0,97.9,0.485
17.32,31889.7,34618.5,1.1761,1.161,141.0,97.9,0.485
17.34,31768.6,34587.2,1.1684,1.1592,141.0,97.9,0.485
17.36,31818.4,34484.7,1.1716,1.1533,141.0,97.9,0.485
17.38,31832.3,34431.3,1.1724,1.1502,141.0,97.9,0.485
17.4,31766.2,34513.1,1.1682,1.1549,141.0,97.9,0.485
17.42,31852.3,34751.9,1.1737,1.1687,141.0,97.9,0.485
17.44,32076.7,35077.8,1.1879,1.1876,141.0,97.9,0.485
17.46,32233.7,35477.4,1.1979,1.2108,141.0,97.9,0.485
17.48,32336.5,35715.4,1.2044,1.2246,141.0,97.9,0.485
17.5,32317.5,35754.5,1.2032,1.2268,141.0,97.9,0.485
17.52,32347.1,35607.6,1.2051,1.2183,141.0,97.9,0.485
17.54,32306.5,35410.7,1.2025,1.2069,141.0,97.9,0.485
17.56,32155.8,35311.0,1.1929,1.2011,141.0,97.9,0.485
17.58,32112.8,35159.3,1.1902,1.1924,141.0,97.9,0.485
17.6,32091.0,35108.4,1.1888,1.1894,141.0,97.9,0.485
17.62,31988.2,35006.2,1.1823,1.1835,141.0,97.9,0.485
17.64,31907.0,35010.7,1.1772,1.1837,141.0,97.9,0.485
17.66,31959.6,34827.1,1.1805,1.1731,141.0,97.9,0.485
17.68,31877.7,34680.6,1.1753,1.1646,141.0,97.9,0.485
17.7,31903.2,34581.4,1.1769,1.1589,141.0,97.9,0.485
17.72,31893.9,34661.3,1.1763,1.1635,141.0,97.9,0.485
17.74,31725.5,34660.8,1.1657,1.1635,141.0,97.9,0.485
17.76,31819.8,34590.2,1.1716,1.1594,141.0,97.9,0.485
17.78,31744.9,34502.5,1.1669,1.1543,141.0,97.9,0.485
17.8,31860.9,34402.4,1.1742,1.1485,141.0,97.9,0.485
17.82,31811.1,34415.5,1.1711,1.1493,141.0,97.9,0.485
17.84,31905.6,34706.8,1.1771,1.1661,141.0,97.9,0.485
17.86,32014.6,35052.1,1.184,1.1861,141.0,97.9,0.485
17.88,32105.4,35417.3,1.1897,1.2073,141.0,97.9,0.485
17.9,32252.0,35682.9,1.199,1.2227,141.0,97.9,0.485
17.92,32248.5,35827.4,1.1988,1.2311,141.0,97.9,0.485
17.94,32296.7,35701.7,1.2019,1.2238,141.0,97.9,0.485
17.96,32200.4,35506.1,1.1958,1.2125,141.0,97.9,0.485
17.98,32116.0,35292.8,1.1904,1.2001,141.0,97.9,0.485
18.0,32059.2,35184.4,1.1868,1.1938,141.0,97.9,0.485
18.02,32046.7,35117.7,1.186,1.1899,141.0,97.9,0.485
18.04,31934.3,35029.4,1.1789,1.1848,141.0,97.9,0.485
18.06,31908.2,34918.5,1.1772,1.1784,141.0,97.9,0.485
18.08,31910.6,34950.3,1.1774,1.1802,141.0,97.9,0.485
18.1,31950.2,34749.4,1.1799,1.1686,141.0,97.9,0.485
18.12,31925.6,34644.3,1.1783,1.1625,141.0,97.9,0.485
18.14,31833.3,34792.0,1.1725,1.1711,141.0,97.9,0.485
18.16,31813.2,34653.5,1.1712,1.163,141.0,97.9,0.485
18.18,31796.0,34659.2,1.1701,1.1634,141.0,97.9,0.485
18.2,31802.8,34501.2,1.1706,1.1542,141.0,97.9,0.485
18.22,31764.3,34505.7,1.1681,1.1545,141.0,97.9,0.485
18.24,31800.2,34433.5,1.1704,1.1503,141.0,97.9,0.485
18.26,31900.4,34590.2,1.1768,1.1594,141.0,97.9,0.485
18.28,31983.3,34858.8,1.182,1.1749,141.0,97.9,0.485
18.3,32090.9,35291.1,1.1888,1.2,141.0,97.9,0.485
18.32,32287.4,35608.4,1.2013,1.2184,141.0,97.9,0.485
18.34,32342.5,35752.1,1.2048,1.2267,141.0,97.9,0.485
18.36,32277.1,35778.4,1.2006,1.2282,141.0,97.9,0.485
18.38,32248.7,35533.9,1.1988,1.2141,141.0,97.9,0.485
18.4,32150.2,35377.7,1.1926,1.205,141.0,97.9,0.485
18.42,32143.9,35097.5,1.1922,1.1888,141.0,97.9,0.485
18.44,32046.3,35138.3,1.186,1.1911,141.0,97.9,0.485
18.46,32132.4,35094.1,1.1915,1.1886,141.0,97.9,0.485
18.48,31972.4,35038.9,1.1813,1.1854,141.0,97.9,0.485
18.5,31969.8,34908.1,1.1812,1.1778,141.0,97.9,0.485
18.52,31913.7,34793.3,1.1776,1.1711,141.0,97.9,0.485
18.54,31762.6,34675.0,1.168,1.1643,141.0,97.9,0.485
18.56,31753.0,34626.2,1.1674,1.1615,141.0,97.9,0.485
18.58,31889.1,34738.3,1.176,1.168,141.0,97.9,0.485
18.6,31864.6,34664.5,1.1745,1.1637,141.0,97.9,0.485
18.62,31774.8,34557.2,1.1688,1.1575,141.0,97.9,0.485
18.64,31855.5,34510.4,1.1739,1.1548,141.0,97.9,0.485
18.66,31715.6,34467.3,1.165,1.1523,141.0,97.9,0.485
18.68,31773.6,34554.8,1.1687,1.1573,141.0,97.9,0.485
18.7,31822.0,34697.8,1.1718,1.1656,141.0,97.9,0.485
18.72,32084.0,35116.4,1.1884,1.1899,141.0,97.9,0.485
18.74,32295.6,35531.1,1.2018,1.2139,141.0,97.9,0.485
18.76,32312.1,35775.8,1.2028,1.2281,141.0,97.9,0.485
18.78,32439.5,35729.4,1.2109,1.2254,141.0,97.9,0.485
18.8,32174.3,35649.3,1.1941,1.2207,141.0,97.9,0.485
18.82,32171.6,35422.7,1.1939,1.2076,141.0,97.9,0.485
18.84,32045.3,35148.5,1.1859,1.1917,141.0,97.9,0.485
18.86,32182.7,35037.5,1.1946,1.1853,141.0,97.9,0.485
18.88,32093.8,35071.6,1.189,1.1873,141.0,97.9,0.485
18.9,32054.1,35003.2,1.1865,1.1833,141.0,97.9,0.485
18.92,31924.1,34997.1,1.1783,1.183,141.0,97.9,0.485
18.94,31877.4,34817.9,1.1753,1.1726,141.0,97.9,0.485
18.96,31917.6,34667.4,1.1778,1.1638,141.0,97.9,0.485
18.98,31818.9,34702.0,1.1716,1.1659,141.0,97.9,0.485
19.0,31820.6,34728.2,1.1717,1.1674,141.0,97.9,0.485
19.02,31812.2,34740.1,1.1712,1.1681,141.0,97.9,0.485
19.04,31787.4,34566.6,1.1696,1.158,141.0,97.9,0.485
19.06,31637.1,34524.0,1.1601,1.1555,141.0,97.9,0.485
19.08,31798.3,34552.5,1.1703,1.1572,141.0,97.9,0.485
19.1,31781.3,34657.9,1.1692,1.1633,141.0,97.9,0.485
19.12,31895.6,34744.1,1.1764,1.1683,141.0,97.9,0.485
19.14,32077.6,35123.8,1.188,1.1903,141.0,97.9,0.485
19.16,32260.7,35554.0,1.1996,1.2152,141.0,97.9,0.485
19.18,32303.4,35651.5,1.2023,1.2209,141.0,97.9,0.485
19.2,32339.8,35813.1,1.2046,1.2302,141.0,97.9,0.485
19.22,32260.2,35658.5,1.1996,1.2213,141.0,97.9,0.485
19.24,32155.8,35321.0,1.1929,1.2017,141.0,97.9,0.485
19.26,32074.4,35287.7,1.1878,1.1998,141.0,97.9,0.485
19.28,32080.7,35027.7,1.1882,1.1847,141.0,97.9,0.485
19.3,32057.4,35062.5,1.1867,1.1867,141.0,97.9,0.485
19.32,32083.9,35044.8,1.1884,1.1857,141.0,97.9,0.485
19.34,31941.9,34990.7,1.1794,1.1826,141.0,97.9,0.485
19.36,31955.8,34784.1,1.1803,1.1706,141.0,97.9,0.485
19.38,31946.7,34706.1,1.1797,1.1661,141.0,97.9,0.485
19.4,31888.7,34678.5,1.176,1.1645,141.0,97.9,0.485
19.42,31943.9,34619.2,1.1795,1.1611,141.0,97.9,0.485
19.44,31862.6,34647.8,1.1744,1.1627,141.0,97.9,0.485
19.46,31834.8,34667.8,1.1726,1.1639,141.0,97.9,0.485
19.48,31760.0,34525.6,1.1679,1.1556,141.0,97.9,0.485
19.5,31675.5,34423.3,1.1625,1.1497,141.0,97.9,0.485
19.52,31759.1,34427.8,1.1678,1.15,141.0,97.9,0.485
19.54,31875.2,34606.5,1.1752,1.1603,141.0,97.9,0.485
19.56,31969.9,34967.7,1.1812,1.1813,141.0,97.9,0.485
19.58,32149.5,35492.8,1.1925,1.2117,141.0,97.9,0.485
19.6,32294.6,35657.4,1.2017,1.2212,141.0,97.9,0.485
19.62,32341.7,35850.0,1.2047,1.2324,141.0,97.9,0.485
19.64,32203.2,35611.3,1.1959,1.2185,141.0,97.9,0.485
19.66,32283.3,35543.8,1.201,1.2146,141.0,97.9,0.485
19.68,32191.5,35301.4,1.1952,1.2006,141.0,97.9,0.485
19.7,32037.8,35129.5,1.1855,1.1906,141.0,97.9,0.485
19.72,32003.2,35017.7,1.1833,1.1841,141.0,97.9,0.485
19.74,32006.1,34988.4,1.1835,1.1825,141.0,97.9,0.485
19.76,32043.4,35000.2,1.1858,1.1831,141.0,97.9,0.485
19.78,31926.3,34948.3,1.1784,1.1801,141.0,97.9,0.485
19.8,31904.4,34740.9,1.177,1.1681,141.0,97.9,0.485
19.82,31896.0,34706.8,1.1765,1.1661,141.0,97.9,0.485
19.84,31836.0,34687.3,1.1727,1.165,141.0,97.9,0.485
19.86,31816.3,34699.6,1.1714,1.1657,141.0,97.9,0.485
19.88,31779.8,34609.2,1.1691,1.1605,141.0,97.9,0.485
19.9,31800.0,34520.9,1.1704,1.1554,141.0,97.9,0.485
19.92,31797.0,34507.7,1.1702,1.1546,141.0,97.9,0.485
19.94,31757.7,34502.4,1.1677,1.1543,141.0,97.9,0.485
19.96,31844.9,34683.8,1.1732,1.1648,141.0,97.9,0.485
19.98,32026.7,34895.4,1.1848,1.1771,141.0,97.9,0.485
20.0,32164.8,35323.1,1.1935,1.2018,141.0,97.9,0.485
20.02,32325.9,35664.0,1.2037,1.2216,141.0,97.9,0.485
20.04,32313.1,35719.3,1.2029,1.2248,141.0,97.9,0.485
20.06,32320.4,35690.3,1.2034,1.2231,141.0,97.9,0.485
20.08,32279.3,35612.5,1.2008,1.2186,141.0,97.9,0.485
20.1,32159.4,35450.9,1.1932,1.2093,141.0,97.9,0.485
20.12,32021.4,35153.2,1.1844,1.192,141.0,97.9,0.485
20.14,31986.4,35066.0,1.1822,1.187,141.0,97.9,0.485
20.16,31991.7,35025.0,1.1825,1.1846,141.0,97.9,0.485
20.18,32034.9,34964.6,1.1853,1.1811,141.0,97.9,0.485
20.2,31912.2,34991.0,1.1775,1.1826,141.0,97.9,0.485
20.22,31894.7,34805.0,1.1764,1.1718,141.0,97.9,0.485
20.24,31908.2,34792.4,1.1772,1.1711,141.0,97.9,0.485
20.26,31833.6,34659.4,1.1725,1.1634,141.0,97.9,0.485
20.28,31711.1,34644.2,1.1648,1.1625,141.0,97.9,0.485
20.3,31683.7,34611.1,1.163,1.1606,141.0,97.9,0.485
20.32,31761.5,34636.5,1.168,1.1621,141.0,97.9,0.485
20.34,31856.2,34473.0,1.1739,1.1526,141.0,97.9,0.485
20.36,31732.1,34482.6,1.1661,1.1531,141.0,97.9,0.485
20.38,31772.3,34605.6,1.1686,1.1603,141.0,97.9,0.485
20.4,31879.5,34826.5,1.1754,1.1731,141.0,97.9,0.485
20.42,32068.1,35306.0,1.1874,1.2009,141.0,97.9,0.485
20.44,32253.3,35597.6,1.1991,1.2178,141.0,97.9,0.485
20.46,32359.4,35730.6,1.2058,1.2255,141.0,97.9,0.485
20.48,32404.7,35676.8,1.2087,1.2223,141.0,97.9,0.485
20.5,32249.6,35586.1,1.1989,1.2171,141.0,97.9,0.485
20.52,32213.1,35447.2,1.1966,1.209,141.0,97.9,0.485
20.54,31942.4,35240.3,1.1794,1.197,141.0,97.9,0.485
20.56,32167.9,35110.8,1.1937,1.1895,141.0,97.9,0.485
20.58,32053.5,35055.3,1.1865,1.1863,141.0,97.9,0.485
20.6,31906.7,34981.6,1.1772,1.1821,141.0,97.9,0.485
20.62,31968.4,34994.8,1.1811,1.1828,141.0,97.9,0.485
20.64,31908.9,34812.4,1.1773,1.1723,141.0,97.9,0.485
20.66,31810.2,34708.6,1.171,1.1662,141.0,97.9,0.485
20.68,31872.9,34692.6,1.175,1.1653,141.0,97.9,0.485
20.7,31797.1,34637.7,1.1702,1.1621,141.0,97.9,0.485
20.72,31800.1,34611.2,1.1704,1.1606,141.0,97.9,0.485
20.74,31851.9,34615.6,1.1737,1.1608,141.0,97.9,0.485
20.76,31797.8,34524.2,1.1703,1.1556,141.0,97.9,0.485
20.78,31722.1,34518.4,1.1655,1.1552,141.0,97.9,0.485
20.8,31878.3,34553.5,1.1754,1.1572,141.0,97.9,0.485
20.82,31875.9,34720.4,1.1752,1.1669,141.0,97.9,0.485
20.84,31899.6,35109.8,1.1767,1.1895,141.0,97.9,0.485
20.86,32205.8,35446.8,1.1961,1.209,141.0,97.9,0.485
20.88,32270.4,35754.9,1.2002,1.2269,141.0,97.9,0.485
20.9,32341.6,35689.1,1.2047,1.2231,141.0,97.9,0.485
20.92,32329.3,35653.2,1.2039,1.221,141.0,97.9,0.485
20.94,32177.7,35457.4,1.1943,1.2096,141.0,97.9,0.485
20.96,32184.7,35273.7,1.1948,1.199,141.0,97.9,0.485
20.98,32048.8,35096.1,1.1862,1.1887,141.0,97.9,0.485
21.0,31974.6,35034.8,1.1815,1.1851,141.0,97.9,0.485
21.02,32180.2,34975.0,1.1945,1.1817,141.0,97.9,0.485
21.04,32017.5,34925.3,1.1842,1.1788,141.0,97.9,0.485
21.06,31936.1,34885.8,1.179,1.1765,141.0,97.9,0.485
21.08,31937.9,34731.0,1.1791,1.1675,141.0,97.9,0.485
21.1,31810.0,34700.9,1.171,1.1658,141.0,97.9,0.485
21.12,31809.0,34638.6,1.171,1.1622,141.0,97.9,0.485
21.14,31975.6,34707.8,1.1815,1.1662,141.0,97.9,0.485
21.16,31818.2,34549.6,1.1715,1.157,141.0,97.9,0.485
21.18,31805.6,34538.9,1.1707,1.1564,141.0,97.9,0.485
21.2,31720.2,34427.8,1.1653,1.15,141.0,97.9,0.485
21.22,31813.9,34416.3,1.1713,1.1493,141.0,97.9,0.485
21.24,31844.9,34637.4,1.1732,1.1621,141.0,97.9,0.485
21.26,31999.4,35080.6,1.183,1.1878,141.0,97.9,0.485
21.28,32229.3,35363.7,1.1976,1.2042,141.0,97.9,0.485
21.3,32298.9,35562.5,1.202,1.2157,141.0,97.9,0.485
21.32,32391.0,35794.1,1.2079,1.2291,141.0,97.9,0.485
21.34,32306.9,35707.4,1.2025,1.2241,141.0,97.9,0.485
21.36,32221.0,35547.4,1.1971,1.2148,141.0,97.9,0.485
21.38,32137.1,35251.8,1.1918,1.1977,141.0,97.9,0.485
21.4,32150.4,35233.5,1.1926,1.1967,141.0,97.9,0.485
21.42,32011.4,35081.1,1.1838,1.1878,141.0,97.9,0.485
21.44,32059.4,35045.0,1.1868,1.1857,141.0,97.9,0.485
21.46,31927.7,35018.7,1.1785,1.1842,141.0,97.9,0.485
21.48,31961.5,34810.9,1.1806,1.1722,141.0,97.9,0.485
21.5,31897.2,34711.1,1.1765,1.1664,141.0,97.9,0.485
21.52,31798.0,34723.4,1.1703,1.1671,141.0,97.9,0.485
21.54,31869.4,34789.9,1.1748,1.1709,141.0,97.9,0.485
21.56,31821.4,34647.0,1.1717,1.1627,141.0,97.9,0.485
21.58,31854.1,34601.7,1.1738,1.16,141.0,97.9,0.485
21.6,31822.8,34556.0,1.1718,1.1574,141.0,97.9,0.485
21.62,31717.2,34479.6,1.1651,1.153,141.0,97.9,0.485
21.64,31723.5,34589.1,1.1655,1.1593,141.0,97.9,0.485
21.66,31865.0,34631.8,1.1745,1.1618,141.0,97.9,0.485
21.68,31962.5,34888.1,1.1807,1.1766,141.0,97.9,0.485
21.7,32096.6,35147.0,1.1892,1.1916,141.0,97.9,0.485
21.72,32214.2,35593.5,1.1966,1.2175,141.0,97.9,0.485
21.74,32361.7,35811.8,1.206,1.2302,141.0,97.9,0.485
21.76,32343.5,35743.5,1.2048,1.2262,141.0,97.9,0.485
21.78,32269.4,35580.4,1.2001,1.2168,141.0,97.9,0.485
21.8,32175.8,35378.5,1.1942,1.2051,141.0,97.9,0.485
21.82,32078.3,35318.3,1.188,1.2016,141.0,97.9,0.485
21.84,32026.0,35135.4,1.1847,1.191,141.0,97.9,0.485
21.86,32008.5,35128.1,1.1836,1.1905,141.0,97.9,0.485
21.88,31933.2,35014.9,1.1788,1.184,141.0,97.9,0.485
21.9,31949.4,34921.6,1.1799,1.1786,141.0,97.9,0.485
21.92,31878.7,34830.3,1.1754,1.1733,141.0,97.9,0.485
21.94,31853.1,34719.8,1.1738,1.1669,141.0,97.9,0.485
21.96,31784.3,34774.4,1.1694,1.17,141.0,97.9,0.485
21.98,31934.7,34690.7,1.1789,1.1652,141.0,97.9,0.485
22.0,31751.7,34618.9,1.1673,1.161,141.0,97.9,0.485
22.02,31869.6,34564.0,1.1748,1.1579,141.0,97.9,0.485
22.04,31744.8,34490.9,1.1669,1.1536,141.0,97.9,0.485
22.06,31741.1,34471.2,1.1667,1.1525,141.0,97.9,0.485
22.08,31808.2,34550.3,1.1709,1.1571,141.0,97.9,0.485
22.1,31912.3,34663.2,1.1775,1.1636,141.0,97.9,0.485
22.12,32022.4,35103.0,1.1845,1.1891,141.0,97.9,0.485
22.14,32214.0,35437.7,1.1966,1.2085,141.0,97.9,0.485
22.16,32285.5,35709.4,1.2012,1.2242,141.0,97.9,0.485
22.18,32289.2,35707.7,1.2014,1.2241,141.0,97.9,0.485
22.2,32257.6,35565.9,1.1994,1.2159,141.0,97.9,0.485
22.22,32237.2,35414.8,1.1981,1.2072,141.0,97.9,0.485
22.24,32100.1,35161.1,1.1894,1.1925,141.0,97.9,0.485
22.26,32017.0,35205.5,1.1841,1.195,141.0,97.9,0.485
22.28,31992.9,35069.1,1.1826,1.1871,141.0,97.9,0.485
22.3,32085.6,35093.0,1.1885,1.1885,141.0,97.9,0.485
22.32,31894.7,35035.0,1.1764,1.1852,141.0,97.9,0.485
22.34,31881.0,34854.2,1.1755,1.1747,141.0,97.9,0.485
22.36,31911.1,34791.2,1.1774,1.171,141.0,97.9,0.485
22.38,31802.7,34626.5,1.1706,1.1615,141.0,97.9,0.485
22.4,31802.3,34694.6,1.1705,1.1654,141.0,97.9,0.485
22.42,31867.1,34567.9,1.1746,1.1581,141.0,97.9,0.485
22.44,31834.5,34632.7,1.1726,1.1618,141.0,97.9,0.485
22.46,31763.5,34563.2,1.1681,1.1578,141.0,97.9,0.485
22.48,31674.5,34459.7,1.1624,1.1518,141.0,97.9,0.485
22.5,31835.4,34430.3,1.1726,1.1501,141.0,97.9,0.485
22.52,31869.8,34742.4,1.1748,1.1682,141.0,97.9,0.485
22.54,31945.5,34974.0,1.1796,1.1816,141.0,97.9,0.485
22.56,32221.0,35474.4,1.1971,1.2106,141.0,97.9,0.485
22.58,32382.6,35689.7,1.2073,1.2231,141.0,97.9,0.485
22.6,32324.4,35734.9,1.2036,1.2257,141.0,97.9,0.485
22.62,32324.5,35725.7,1.2036,1.2252,141.0,97.9,0.485
22.64,32211.4,35500.8,1.1965,1.2121,141.0,97.9,0.485
22.66,32160.1,35298.4,1.1932,1.2004,141.0,97.9,0.485
22.68,31979.3,35139.3,1.1818,1.1912,141.0,97.9,0.485
22.7,31949.9,35120.9,1.1799,1.1901,141.0,97.9,0.485
22.72,31969.9,35056.3,1.1812,1.1864,141.0,97.9,0.485
22.74,31991.7,35038.0,1.1825,1.1853,141.0,97.9,0.485
22.76,31999.9,34863.0,1.1831,1.1752,141.0,97.9,0.485
22.78,31865.1,34836.0,1.1745,1.1736,141.0,97.9,0.485
22.8,31970.0,34723.3,1.1812,1.1671,141.0,97.9,0.485
22.82,31890.1,34777.6,1.1761,1.1702,141.0,97.9,0.485
22.84,31803.1,34737.7,1.1706,1.1679,141.0,97.9,0.485
22.86,31845.2,34613.0,1.1733,1.1607,141.0,97.9,0.485
22.88,31759.2,34506.7,1.1678,1.1545,141.0,97.9,0.485
22.9,31813.4,34456.6,1.1712,1.1516,141.0,97.9,0.485
22.92,31791.8,34439.2,1.1699,1.1506,141.0,97.9,0.485
22.94,31829.9,34603.5,1.1723,1.1601,141.0,97.9,0.485
22.96,31919.8,34867.3,1.178,1.1754,141.0,97.9,0.485
22.98,32104.4,35271.8,1.1897,1.1989,141.0,97.9,0.485
23.0,32294.6,35645.2,1.2017,1.2205,141.0,97.9,0.485
23.02,32438.5,35698.5,1.2109,1.2236,141.0,97.9,0.485
23.04,32360.3,35676.5,1.2059,1.2223,141.0,97.9,0.485
23.06,32222.0,35504.5,1.1971,1.2124,141.0,97.9,0.485
23.08,32110.9,35352.7,1.1901,1.2036,141.0,97.9,0.485
23.1,32029.5,35160.2,1.1849,1.1924,141.0,97.9,0.485
23.12,32065.9,35156.2,1.1872,1.1922,141.0,97.9,0.485
23.14,31883.4,35098.0,1.1757,1.1888,141.0,97.9,0.485
23.16,32043.5,34965.7,1.1858,1.1811,141.0,97.9,0.485
23.18,31981.2,34845.9,1.1819,1.1742,141.0,97.9,0.485
23.2,32000.4,34826.2,1.1831,1.1731,141.0,97.9,0.485
23.22,31879.0,34705.4,1.1754,1.1661,141.0,97.9,0.485
23.24,31778.3,34664.5,1.169,1.1637,141.0,97.9,0.485
23.26,31866.4,34666.7,1.1746,1.1638,141.0,97.9,0.485
23.28,31808.5,34694.4,1.1709,1.1654,141.0,97.9,0.485
23.3,31842.0,34547.3,1.1731,1.1569,141.0,97.9,0.485
23.32,31757.1,34424.9,1.1677,1.1498,141.0,97.9,0.485
23.34,31759.9,34480.0,1.1678,1.153,141.0,97.9,0.485
23.36,31816.3,34599.8,1.1714,1.1599,141.0,97.9,0.485
23.38,31909.4,34918.2,1.1773,1.1784,141.0,97.9,0.485
23.4,32069.1,35198.2,1.1874,1.1946,141.0,97.9,0.485
23.42,32252.8,35533.4,1.1991,1.214,141.0,97.9,0.485
23.44,32324.0,35766.9,1.2036,1.2276,141.0,97.9,0.485
23.46,32272.5,35714.1,1.2003,1.2245,141.0,97.9,0.485
23.48,32238.4,35685.4,1.1982,1.2228,141.0,97.9,0.485
23.5,32199.3,35395.2,1.1957,1.206,141.0,97.9,0.485
23.52,32168.7,35197.6,1.1938,1.1946,141.0,97.9,0.485
23.54,32074.6,35160.3,1.1878,1.1924,141.0,97.9,0.485
23.56,32039.3,35041.1,1.1856,1.1855,141.0,97.9,0.485
23.58,32019.0,34939.2,1.1843,1.1796,141.0,97.9,0.485
23.6,31924.3,34871.5,1.1783,1.1757,141.0,97.9,0.485
23.62,31945.9,34752.1,1.1796,1.1688,141.0,97.9,0.485
23.64,31824.0,34742.6,1.1719,1.1682,141.0,97.9,0.485
23.66,31900.6,34673.8,1.1768,1.1642,141.0,97.9,0.485
23.68,31821.7,34706.0,1.1718,1.1661,141.0,97.9,0.485
23.7,31795.6,34693.3,1.1701,1.1654,141.0,97.9,0.485
23.72,31839.7,34554.5,1.1729,1.1573,141.0,97.9,0.485
23.74,31739.9,34467.2,1.1666,1.1523,141.0,97.9,0.485
23.76,31726.0,34509.6,1.1657,1.1547,141.0,97.9,0.485
23.78,31708.2,34554.4,1.1646,1.1573,141.0,97.9,0.485
23.8,31824.4,34797.9,1.1719,1.1714,141.0,97.9,0.485
23.82,32050.7,35067.9,1.1863,1.1871,141.0,97.9,0.485
23.84,32201.0,35373.3,1.1958,1.2048,141.0,97.9,0.485
23.86,32365.1,35663.1,1.2062,1.2215,141.0,97.9,0.485
23.88,32350.6,35796.1,1.2053,1.2293,141.0,97.9,0.485
23.9,32288.2,35632.4,1.2013,1.2198,141.0,97.9,0.485
23.92,32129.9,35371.7,1.1913,1.2047,141.0,97.9,0.485
23.94,32156.1,35209.2,1.193,1.1952,141.0,97.9,0.485
23.96,32082.7,35084.3,1.1883,1.188,141.0,97.9,0.485
23.98,32055.6,35101.8,1.1866,1.189,141.0,97.9,0.485
24.0,32017.7,35060.0,1.1842,1.1866,141.0,97.9,0.485
24.02,32009.4,34950.6,1.1837,1.1803,141.0,97.9,0.485
24.04,31885.6,34847.3,1.1758,1.1743,141.0,97.9,0.485
24.06,31828.8,34732.3,1.1722,1.1676,141.0,97.9,0.485
24.08,31875.6,34728.5,1.1752,1.1674,141.0,97.9,0.485
24.1,31882.5,34655.3,1.1756,1.1631,141.0,97.9,0.485
24.12,31903.3,34676.0,1.1769,1.1643,141.0,97.9,0.485
24.14,31898.4,34606.0,1.1766,1.1603,141.0,97.9,0.485
24.16,31841.8,34582.7,1.173,1.1589,141.0,97.9,0.485
24.18,31825.3,34417.3,1.172,1.1494,141.0,97.9,0.485
24.2,31826.2,34467.7,1.1721,1.1523,141.0,97.9,0.485
24.22,31852.2,34611.7,1.1737,1.1606,141.0,97.9,0.485
24.24,32066.1,35075.9,1.1873,1.1875,141.0,97.9,0.485
24.26,32123.0,35305.4,1.1909,1.2008,141.0,97.9,0.485
24.28,32389.0,35667.9,1.2077,1.2218,141.0,97.9,0.485
24.3,32332.8,35812.3,1.2042,1.2302,141.0,97.9,0.485
24.32,32351.3,35617.6,1.2053,1.2189,141.0,97.9,0.485
24.34,32224.2,35514.7,1.1973,1.213,141.0,97.9,0.485
24.36,32174.4,35286.2,1.1941,1.1997,141.0,97.9,0.485
24.38,32170.1,35179.2,1.1938,1.1935,141.0,97.9,0.485
24.4,31985.2,35075.8,1.1821,1.1875,141.0,97.9,0.485
24.42,31983.2,35165.5,1.182,1.1927,141.0,97.9,0.485
24.44,31971.1,35061.3,1.1812,1.1867,141.0,97.9,0.485
24.46,31883.3,34794.9,1.1757,1.1712,141.0,97.9,0.485
24.48,31873.6,34750.6,1.1751,1.1687,141.0,97.9,0.485
24.5,31922.1,34674.0,1.1781,1.1642,141.0,97.9,0.485
24.52,31776.9,34677.9,1.1689,1.1645,141.0,97.9,0.485
24.54,31878.1,34661.3,1.1753,1.1635,141.0,97.9,0.485
24.56,31837.5,34591.7,1.1728,1.1595,141.0,97.9,0.485
24.58,31771.1,34594.7,1.1686,1.1596,141.0,97.9,0.485
24.6,31738.8,34406.2,1.1665,1.1487,141.0,97.9,0.485
24.62,31743.7,34528.9,1.1668,1.1558,141.0,97.9,0.485
24.64,31856.1,34565.8,1.1739,1.158,141.0,97.9,0.485
24.66,32080.1,34896.1,1.1881,1.1771,141.0,97.9,0.485
24.68,32111.0,35250.3,1.1901,1.1976,141.0,97.9,0.485
24.7,32242.4,35561.1,1.1984,1.2156,141.0,97.9,0.485
24.72,32263.9,35753.1,1.1998,1.2268,141.0,97.9,0.485
24.74,32435.4,35741.4,1.2107,1.2261,141.0,97.9,0.485
24.76,32327.1,35609.5,1.2038,1.2184,141.0,97.9,0.485
24.78,32150.9,35339.4,1.1926,1.2028,141.0,97.9,0.485
24.8,32003.7,35159.4,1.1833,1.1924,141.0,97.9,0.485
24.82,32058.1,35084.5,1.1868,1.188,141.0,97.9,0.485
24.84,31960.9,35100.5,1.1806,1.189,141.0,97.9,0.485
24.86,31948.5,35101.6,1.1798,1.189,141.0,97.9,0.485
24.88,31878.3,34915.2,1.1754,1.1782,141.0,97.9,0.485
24.9,31775.6,34803.6,1.1688,1.1717,141.0,97.9,0.485
24.92,31822.5,34700.7,1.1718,1.1658,141.0,97.9,0.485
24.94,31853.5,34646.9,1.1738,1.1627,141.0,97.9,0.485
24.96,31860.9,34614.5,1.1742,1.1608,141.0,97.9,0.485
24.98,31857.8,34667.2,1.1741,1.1638,141.0,97.9,0.485
25.0,31768.6,34549.2,1.1684,1.157,141.0,97.9,0.485
25.02,31761.0,34443.4,1.1679,1.1509,141.0,97.9,0.485
25.04,31875.5,34485.5,1.1752,1.1533,141.0,97.9,0.485
25.06,31833.6,34553.5,1.1725,1.1573,141.0,97.9,0.485
25.08,31948.8,34876.1,1.1798,1.1759,141.0,97.9,0.485
25.1,32088.8,35161.7,1.1887,1.1925,141.0,97.9,0.485
25.12,32343.1,35521.7,1.2048,1.2134,141.0,97.9,0.485
25.14,32349.0,35695.3,1.2052,1.2234,141.0,97.9,0.485
25.16,32204.8,35762.9,1.196,1.2273,141.0,97.9,0.485
25.18,32207.3,35568.4,1.1962,1.2161,141.0,97.9,0.485
25.2,32148.1,35425.5,1.1925,1.2078,141.0,97.9,0.485
25.22,32064.0,35225.7,1.1871,1.1962,141.0,97.9,0.485
25.24,32167.4,35221.5,1.1937,1.196,141.0,97.9,0.485
25.26,32190.3,35144.8,1.1951,1.1915,141.0,97.9,0.485
25.28,32026.5,35037.8,1.1847,1.1853,141.0,97.9,0.485
25.3,31877.1,34887.7,1.1753,1.1766,141.0,97.9,0.485
25.32,31875.9,34757.1,1.1752,1.1691,141.0,97.9,0.485
25.34,31860.4,34708.5,1.1742,1.1662,141.0,97.9,0.485
25.36,31939.7,34693.3,1.1792,1.1654,141.0,97.9,0.485
25.38,31845.5,34600.9,1.1733,1.16,141.0,97.9,0.485
25.4,31791.6,34616.6,1.1699,1.1609,141.0,97.9,0.485
25.42,31797.9,34586.7,1.1703,1.1592,141.0,97.9,0.485
25.44,31742.5,34521.7,1.1667,1.1554,141.0,97.9,0.485
25.46,31744.2,34470.0,1.1669,1.1524,141.0,97.9,0.485
25.48,31839.5,34525.3,1.1729,1.1556,141.0,97.9,0.485
25.5,31933.8,34672.6,1.1789,1.1642,141.0,97.9,0.485
25.52,32128.5,35034.7,1.1912,1.1851,141.0,97.9,0.485
25.54,32167.5,35378.1,1.1937,1.205,141.0,97.9,0.485
25.56,32326.6,35623.9,1.2038,1.2193,141.0,97.9,0.485
25.58,32298.4,35857.2,1.202,1.2328,141.0,97.9,0.485
25.6,32229.3,35697.4,1.1976,1.2235,141.0,97.9,0.485
25.62,32298.4,35468.2,1.202,1.2103,141.0,97.9,0.485
25.64,32241.1,35321.6,1.1983,1.2018,141.0,97.9,0.485
25.66,32086.8,35137.5,1.1886,1.1911,141.0,97.9,0.485
25.68,32105.3,34993.6,1.1897,1.1828,141.0,97.9,0.485
25.7,32099.2,35080.6,1.1894,1.1878,141.0,97.9,0.485
25.72,32000.4,34917.0,1.1831,1.1783,141.0,97.9,0.485
25.74,31938.3,34845.1,1.1792,1.1741,141.0,97.9,0.485
25.76,31971.8,34814.0,1.1813,1.1723,141.0,97.9,0.485
25.78,31778.0,34711.7,1.169,1.1664,141.0,97.9,0.485
25.8,31837.2,34687.1,1.1728,1.165,141.0,97.9,0.485
25.82,31864.0,34575.9,1.1744,1.1585,141.0,97.9,0.485
25.84,31735.6,34541.5,1.1663,1.1566,141.0,97.9,0.485
25.86,31848.2,34479.6,1.1734,1.153,141.0,97.9,0.485
25.88,31748.6,34441.4,1.1671,1.1508,141.0,97.9,0.485
25.9,31735.1,34504.5,1.1663,1.1544,141.0,97.9,0.485
25.92,31927.3,34610.5,1.1785,1.1606,141.0,97.9,0.485
25.94,31965.0,35064.4,1.1808,1.1869,141.0,97.9,0.485
25.96,32071.4,35358.4,1.1876,1.2039,141.0,97.9,0.485
25.98,32299.0,35536.5,1.202,1.2142,141.0,97.9,0.485
26.0,32278.0,35744.5,1.2007,1.2263,141.0,97.9,0.485
26.02,32326.6,35725.6,1.2038,1.2252,141.0,97.9,0.485
26.04,32239.1,35460.4,1.1982,1.2098,141.0,97.9,0.485
26.06,32121.9,35323.6,1.1908,1.2019,141.0,97.9,0.485
26.08,32124.9,35193.1,1.191,1.1943,141.0,97.9,0.485
26.1,32029.8,35156.9,1.185,1.1922,141.0,97.9,0.485
26.12,31997.6,35016.3,1.1829,1.1841,141.0,97.9,0.485
26.14,32021.3,34892.6,1.1844,1.1769,141.0,97.9,0.485
26.16,31843.9,34904.2,1.1732,1.1776,141.0,97.9,0.485
26.18,31963.4,34787.3,1.1807,1.1708,141.0,97.9,0.485
26.2,31922.4,34728.1,1.1782,1.1674,141.0,97.9,0.485
26.22,31840.0,34684.0,1.1729,1.1648,141.0,97.9,0.485
26.24,31920.0,34605.1,1.178,1.1602,141.0,97.9,0.485
26.26,31811.8,34634.0,1.1711,1.1619,141.0,97.9,0.485
26.28,31765.9,34472.6,1.1682,1.1526,141.0,97.9,0.485
26.3,31750.0,34399.6,1.1672,1.1483,141.0,97.9,0.485
26.32,31802.3,34476.2,1.1705,1.1528,141.0,97.9,0.485
26.34,31830.8,34649.1,1.1723,1.1628,141.0,97.9,0.485
26.36,31998.4,34848.2,1.183,1.1743,141.0,97.9,0.485
26.38,32176.8,35205.5,1.1943,1.195,141.0,97.9,0.485
26.4,32309.2,35630.5,1.2027,1.2197,141.0,97.9,0.485
26.42,32313.0,35739.7,1.2029,1.226,141.0,97.9,0.485
26.44,32322.3,35641.9,1.2035,1.2203,141.0,97.9,0.485
26.46,32210.1,35579.3,1.1964,1.2167,141.0,97.9,0.485
26.48,32201.8,35330.4,1.1959,1.2023,141.0,97.9,0.485
26.5,32098.6,35208.0,1.1893,1.1952,141.0,97.9,0.485
26.52,32119.0,35129.7,1.1906,1.1906,141.0,97.9,0.485
26.54,32023.7,35040.1,1.1846,1.1854,141.0,97.9,0.485
26.56,31990.9,35014.6,1.1825,1.184,141.0,97.9,0.485
26.58,32082.1,34907.3,1.1883,1.1778,141.0,97.9,0.485
26.6,31896.1,34849.1,1.1765,1.1744,141.0,97.9,0.485
26.62,31846.3,34854.4,1.1733,1.1747,141.0,97.9,0.485
26.64,31806.7,34716.8,1.1708,1.1667,141.0,97.9,0.485
26.66,31840.1,34588.2,1.1729,1.1593,141.0,97.9,0.485
26.68,31906.5,34631.1,1.1771,1.1617,141.0,97.9,0.485
26.7,31785.7,34585.5,1.1695,1.1591,141.0,97.9,0.485
26.72,31729.8,34537.2,1.1659,1.1563,141.0,97.9,0.485
26.74,31771.9,34463.6,1.1686,1.152,141.0,97.9,0.485
26.76,31816.3,34626.3,1.1714,1.1615,141.0,97.9,0.485
26.78,31798.0,34858.2,1.1703,1.1749,141.0,97.9,0.485
26.8,32065.0,35181.8,1.1872,1.1937,141.0,97.9,0.485
26.82,32188.3,35517.0,1.195,1.2131,141.0,97.9,0.485
26.84,32190.1,35689.0,1.1951,1.2231,141.0,97.9,0.485
26.86,32403.6,35747.2,1.2086,1.2264,141.0,97.9,0.485
26.88,32266.4,35523.5,1.2,1.2135,141.0,97.9,0.485
26.9,32204.5,35454.7,1.196,1.2095,141.0,97.9,0.485
26.92,32175.2,35237.9,1.1942,1.1969,141.0,97.9,0.485
26.94,32077.8,35068.1,1.188,1.1871,141.0,97.9,0.485
26.96,32029.9,35043.2,1.185,1.1856,141.0,97.9,0.485
26.98,32009.9,34964.4,1.1837,1.1811,141.0,97.9,0.485
27.0,32039.9,35012.6,1.1856,1.1839,141.0,97.9,0.485
27.02,31909.6,34789.3,1.1773,1.1709,141.0,97.9,0.485
27.04,31852.2,34769.7,1.1737,1.1698,141.0,97.9,0.485
27.06,31903.3,34731.8,1.1769,1.1676,141.0,97.9,0.485
27.08,31880.4,34686.1,1.1755,1.1649,141.0,97.9,0.485
27.1,31872.2,34609.8,1.175,1.1605,141.0,97.9,0.485
27.12,31795.5,34573.4,1.1701,1.1584,141.0,97.9,0.485
27.14,31732.8,34436.6,1.1661,1.1505,141.0,97.9,0.485
27.16,31703.9,34314.1,1.1643,1.1434,141.0,97.9,0.485
27.18,31835.8,34503.2,1.1727,1.1543,141.0,97.9,0.485
27.2,31969.9,34741.8,1.1812,1.1682,141.0,97.9,0.485
27.22,32101.5,35114.6,1.1895,1.1898,141.0,97.9,0.485
27.24,32278.4,35446.1,1.2007,1.209,141.0,97.9,0.485
27.26,32286.9,35652.0,1.2012,1.2209,141.0,97.9,0.485
27.28,32297.7,35752.2,1.2019,1.2267,141.0,97.9,0.485
27.3,32241.4,35573.8,1.1984,1.2164,141.0,97.9,0.485
27.32,32213.1,35422.9,1.1966,1.2076,141.0,97.9,0.485
27.34,32133.5,35341.9,1.1915,1.2029,141.0,97.9,0.485
27.36,32082.4,35187.2,1.1883,1.194,141.0,97.9,0.485
27.38,32012.8,35212.3,1.1839,1.1954,141.0,97.9,0.485
27.4,32002.5,35029.9,1.1832,1.1849,141.0,97.9,0.485
27.42,32008.8,34960.4,1.1836,1.1808,141.0,97.9,0.485
27.44,31928.3,34908.5,1.1785,1.1778,141.0,97.9,0.485
27.46,31841.1,34780.6,1.173,1.1704,141.0,97.9,0.485
27.48,31814.9,34762.7,1.1713,1.1694,141.0,97.9,0.485
27.5,31732.3,34636.2,1.1661,1.162,141.0,97.9,0.485
27.52,31781.9,34707.2,1.1692,1.1662,141.0,97.9,0.485
27.54,31796.7,34583.2,1.1702,1.159,141.0,97.9,0.485
27.56,31846.9,34508.8,1.1734,1.1547,141.0,97.9,0.485
27.58,31808.5,34367.8,1.1709,1.1465,141.0,97.9,0.485
27.6,31717.8,34506.9,1.1652,1.1546,141.0,97.9,0.485
27.62,31752.9,34709.0,1.1674,1.1663,141.0,97.9,0.485
27.64,31949.7,34947.3,1.1799,1.1801,141.0,97.9,0.485
27.66,32204.3,35326.5,1.196,1.202,141.0,97.9,0.485
27.68,32258.6,35629.6,1.1995,1.2196,141.0,97.9,0.485
27.7,32348.8,35778.9,1.2052,1.2283,141.0,97.9,0.485
27.72,32321.1,35799.8,1.2034,1.2295,141.0,97.9,0.485
27.74,32189.8,35532.5,1.1951,1.214,141.0,97.9,0.485
27.76,32190.7,35299.4,1.1952,1.2005,141.0,97.9,0.485
27.78,32151.5,35258.6,1.1927,1.1981,141.0,97.9,0.485
27.8,32027.9,35177.7,1.1848,1.1934,141.0,97.9,0.485
27.82,32010.8,35057.8,1.1837,1.1865,141.0,97.9,0.485
27.84,32008.3,35045.3,1.1836,1.1857,141.0,97.9,0.485
27.86,31967.6,34885.4,1.181,1.1765,141.0,97.9,0.485
27.88,31943.0,34824.4,1.1795,1.1729,141.0,97.9,0.485
27.9,31892.2,34735.5,1.1762,1.1678,141.0,97.9,0.485
27.92,31935.5,34628.3,1.179,1.1616,141.0,97.9,0.485
27.94,31821.9,34687.8,1.1718,1.165,141.0,97.9,0.485
27.96,31770.1,34548.0,1.1685,1.1569,141.0,97.9,0.485
27.98,31769.4,34550.3,1.1685,1.1571,141.0,97.9,0.485
28.0,31712.7,34430.9,1.1649,1.1501,141.0,97.9,0.485
28.02,31753.2,34523.3,1.1674,1.1555,141.0,97.9,0.485
28.04,31831.6,34565.1,1.1724,1.1579,141.0,97.9,0.485
28.06,32001.3,34874.3,1.1831,1.1758,141.0,97.9,0.485
28.08,32160.2,35228.2,1.1932,1.1963,141.0,97.9,0.485
28.1,32257.8,35632.0,1.1994,1.2197,141.0,97.9,0.485
28.12,32349.9,35738.0,1.2052,1.2259,141.0,97.9,0.485
28.14,32369.9,35762.0,1.2065,1.2273,141.0,97.9,0.485
28.16,32262.6,35545.1,1.1997,1.2147,141.0,97.9,0.485
28.18,32058.1,35416.6,1.1867,1.2073,141.0,97.9,0.485
28.2,32166.5,35259.3,1.1936,1.1982,141.0,97.9,0.485
28.22,32140.2,35103.0,1.192,1.1891,141.0,97.9,0.485
28.24,32078.5,35044.4,1.188,1.1857,141.0,97.9,0.485
28.26,31962.0,34966.9,1.1807,1.1812,141.0,97.9,0.485
28.28,31884.6,34938.2,1.1758,1.1795,141.0,97.9,0.485
28.3,31961.0,34780.6,1.1806,1.1704,141.0,97.9,0.485
28.32,31861.6,34767.0,1.1743,1.1696,141.0,97.9,0.485
28.34,31874.8,34697.9,1.1751,1.1656,141.0,97.9,0.485
28.36,31807.7,34623.3,1.1709,1.1613,141.0,97.9,0.485
28.38,31776.1,34607.5,1.1689,1.1604,141.0,97.9,0.485
28.4,31746.7,34640.5,1.167,1.1623,141.0,97.9,0.485
28.42,31694.9,34458.4,1.1637,1.1517,141.0,97.9,0.485
28.44,31802.4,34533.6,1.1705,1.1561,141.0,97.9,0.485
28.46,31671.1,34522.7,1.1622,1.1555,141.0,97.9,0.485
28.48,31892.8,34736.1,1.1763,1.1678,141.0,97.9,0.485
28.5,32072.1,35082.5,1.1876,1.1879,141.0,97.9,0.485
28.52,32204.4,35451.7,1.196,1.2093,141.0,97.9,0.485
28.54,32257.9,35710.6,1.1994,1.2243,141.0,97.9,0.485
28.56,32311.5,35722.1,1.2028,1.225,141.0,97.9,0.485
28.58,32360.5,35549.1,1.2059,1.2149,141.0,97.9,0.485
28.6,32171.3,35414.0,1.1939,1.2071,141.0,97.9,0.485
28.62,32122.4,35208.9,1.1908,1.1952,141.0,97.9,0.485
28.64,32081.1,35193.9,1.1882,1.1944,141.0,97.9,0.485
28.66,32005.7,35117.2,1.1834,1.1899,141.0,97.9,0.485
28.68,31965.9,35004.5,1.1809,1.1834,141.0,97.9,0.485
28.7,31923.1,34961.1,1.1782,1.1809,141.0,97.9,0.485
28.72,31914.9,34921.4,1.1777,1.1786,141.0,97.9,0.485
28.74,31843.8,34755.4,1.1732,1.1689,141.0,97.9,0.485
28.76,31882.0,34597.3,1.1756,1.1598,141.0,97.9,0.485
28.78,31907.3,34662.8,1.1772,1.1636,141.0,97.9,0.485
28.8,31831.2,34611.6,1.1724,1.1606,141.0,97.9,0.485
28.82,31940.2,34552.0,1.1793,1.1572,141.0,97.9,0.485
28.84,31799.5,34434.6,1.1704,1.1504,141.0,97.9,0.485
28.86,31756.5,34442.4,1.1676,1.1508,141.0,97.9,0.485
28.88,31746.1,34517.6,1.167,1.1552,141.0,97.9,0.485
28.9,31900.2,34676.8,1.1767,1.1644,141.0,97.9,0.485
28.92,32012.0,35047.1,1.1838,1.1859,141.0,97.9,0.485
28.94,32224.4,35392.0,1.1973,1.2058,141.0,97.9,0.485
28.96,32249.1,35602.0,1.1989,1.218,141.0,97.9,0.485
28.98,32318.6,35849.3,1.2033,1.2323,141.0,97.9,0.485
29.0,32281.4,35700.6,1.2009,1.2237,141.0,97.9,0.485
29.02,32220.8,35557.5,1.1971,1.2154,141.0,97.9,0.485
29.04,32106.4,35244.4,1.1898,1.1973,141.0,97.9,0.485
29.06,32026.6,35109.0,1.1848,1.1894,141.0,97.9,0.485
29.08,32045.8,35093.3,1.186,1.1885,141.0,97.9,0.485
29.1,32084.5,35054.9,1.1884,1.1863,141.0,97.9,0.485
29.12,32039.5,35005.6,1.1856,1.1835,141.0,97.9,0.485
29.14,31868.5,34901.6,1.1747,1.1774,141.0,97.9,0.485
29.16,31913.8,34725.3,1.1776,1.1672,141.0,97.9,0.485
29.18,31881.8,34663.4,1.1756,1.1636,141.0,97.9,0.485
29.2,31787.4,34680.9,1.1696,1.1646,141.0,97.9,0.485
29.22,31885.6,34663.9,1.1758,1.1636,141.0,97.9,0.485
29.24,31809.0,34625.7,1.171,1.1614,141.0,97.9,0.485
29.26,31726.2,34559.0,1.1657,1.1576,141.0,97.9,0.485
29.28,31775.4,34518.6,1.1688,1.1552,141.0,97.9,0.485
29.3,31702.1,34526.4,1.1642,1.1557,141.0,97.9,0.485
29.32,31820.1,34688.0,1.1717,1.165,141.0,97.9,0.485
29.34,32004.2,34922.9,1.1833,1.1787,141.0,97.9,0.485
29.36,32170.3,35290.7,1.1939,1.2,141.0,97.9,0.485
29.38,32235.6,35640.9,1.198,1.2203,141.0,97.9,0.485
29.4,32389.6,35666.5,1.2078,1.2217,141.0,97.9,0.485
29.42,32386.2,35656.4,1.2075,1.2212,141.0,97.9,0.485
29.44,32205.0,35579.5,1.1961,1.2167,141.0,97.9,0.485
29.46,32210.3,35309.0,1.1964,1.201,141.0,97.9,0.485
29.48,32071.0,35177.7,1.1876,1.1934,141.0,97.9,0.485
29.5,32028.2,35147.7,1.1849,1.1917,141.0,97.9,0.485
29.52,32033.5,35089.2,1.1852,1.1883,141.0,97.9,0.485
29.54,32020.1,34997.2,1.1843,1.183,141.0,97.9,0.485
29.56,32026.9,34919.6,1.1848,1.1785,141.0,97.9,0.485
29.58,31934.7,34784.2,1.1789,1.1706,141.0,97.9,0.485
29.6,31877.1,34733.7,1.1753,1.1677,141.0,97.9,0.485
29.62,31856.8,34644.3,1.174,1.1625,141.0,97.9,0.485
29.64,31794.3,34616.0,1.17,1.1609,141.0,97.9,0.485
29.66,31865.3,34533.7,1.1745,1.1561,141.0,97.9,0.485
29.68,31714.2,34619.6,1.165,1.1611,141.0,97.9,0.485
29.7,31754.4,34506.1,1.1675,1.1545,141.0,97.9,0.485
29.72,31754.8,34434.9,1.1675,1.1504,141.0,97.9,0.485
29.74,31787.1,34588.6,1.1696,1.1593,141.0,97.9,0.485
29.76,31908.3,34858.4,1.1773,1.1749,141.0,97.9,0.485
29.78,32170.2,35256.2,1.1939,1.198,141.0,97.9,0.485
29.8,32337.6,35449.2,1.2045,1.2092,141.0,97.9,0.485
29.82,32354.6,35745.4,1.2055,1.2263,141.0,97.9,0.485
29.84,32307.8,35822.4,1.2026,1.2308,141.0,97.9,0.485
29.86,32282.8,35577.5,1.201,1.2166,141.0,97.9,0.485
29.88,32139.4,35438.3,1.1919,1.2085,141.0,97.9,0.485
29.9,32098.0,35205.6,1.1893,1.195,141.0,97.9,0.485
29.92,31991.0,35206.5,1.1825,1.1951,141.0,97.9,0.485
29.94,31973.1,35029.2,1.1814,1.1848,141.0,97.9,0.485
29.96,31992.2,35004.6,1.1826,1.1834,141.0,97.9,0.485
29.98,31962.6,35030.7,1.1807,1.1849,141.0,97.9,0.485
30.0,31902.5,34854.1,1.1769,1.1747,141.0,97.9,0.485
30.02,31881.3,34806.3,1.1755,1.1719,141.0,97.9,0.485
30.04,31902.8,34596.0,1.1769,1.1597,141.0,97.9,0.485
30.06,31806.6,34624.9,1.1708,1.1614,141.0,97.9,0.485
30.08,31872.1,34687.9,1.175,1.165,141.0,97.9,0.485
30.1,31858.8,34623.2,1.1741,1.1613,141.0,97.9,0.485
30.12,31743.5,34448.8,1.1668,1.1512,141.0,97.9,0.485
30.14,31712.7,34428.2,1.1649,1.15,141.0,97.9,0.485
30.16,31779.7,34491.0,1.1691,1.1536,141.0,97.9,0.485
30.18,31909.9,34770.8,1.1774,1.1698,141.0,97.9,0.485
30.2,32000.0,35108.2,1.1831,1.1894,141.0,97.9,0.485
30.22,32257.3,35523.1,1.1994,1.2134,141.0,97.9,0.485
30.24,32304.5,35721.3,1.2024,1.2249,141.0,97.9,0.485
30.26,32331.1,35760.2,1.2041,1.2272,141.0,97.9,0.485
30.28,32240.3,35602.2,1.1983,1.218,141.0,97.9,0.485
30.3,32218.0,35492.9,1.1969,1.2117,141.0,97.9,0.485
30.32,32179.7,35302.5,1.1945,1.2007,141.0,97.9,0.485
30.34,32032.1,35133.3,1.1851,1.1908,141.0,97.9,0.485
30.36,32103.7,35010.1,1.1896,1.1837,141.0,97.9,0.485
30.38,32029.4,35018.9,1.1849,1.1842,141.0,97.9,0.485
30.4,31949.3,34998.6,1.1798,1.183,141.0,97.9,0.485
30.42,31875.2,34819.1,1.1752,1.1726,141.0,97.9,0.485
30.44,31974.4,34692.4,1.1814,1.1653,141.0,97.9,0.485
30.46,31835.2,34618.1,1.1726,1.161,141.0,97.9,0.485
30.48,31868.9,34602.1,1.1748,1.1601,141.0,97.9,0.485
30.5,31899.2,34598.9,1.1767,1.1599,141.0,97.9,0.485
30.52,31832.3,34609.3,1.1724,1.1605,141.0,97.9,0.485
30.54,31863.2,34516.7,1.1744,1.1551,141.0,97.9,0.485
30.56,31663.7,34473.2,1.1617,1.1526,141.0,97.9,0.485
30.58,31754.3,34475.1,1.1675,1.1527,141.0,97.9,0.485
30.6,31907.7,34601.3,1.1772,1.16,141.0,97.9,0.485
30.62,32046.7,34973.5,1.186,1.1816,141.0,97.9,0.485
30.64,32117.6,35401.4,1.1905,1.2064,141.0,97.9,0.485
30.66,32340.6,35649.5,1.2047,1.2208,141.0,97.9,0.485
30.68,32316.5,35848.9,1.2031,1.2323,141.0,97.9,0.485
30.7,32275.4,35718.0,1.2005,1.2247,141.0,97.9,0.485
30.72,32184.0,35484.0,1.1947,1.2112,141.0,97.9,0.485
30.74,32127.4,35407.2,1.1911,1.2067,141.0,97.9,0.485
30.76,32198.6,35169.5,1.1957,1.1929,141.0,97.9,0.485
30.78,32021.5,35184.4,1.1844,1.1938,141.0,97.9,0.485
30.8,32032.9,35075.2,1.1852,1.1875,141.0,97.9,0.485
30.82,31941.4,35062.5,1.1794,1.1867,141.0,97.9,0.485
30.84,31918.1,34820.2,1.1779,1.1727,141.0,97.9,0.485
30.86,31971.8,34777.2,1.1813,1.1702,141.0,97.9,0.485
30.88,31873.5,34643.1,1.175,1.1624,141.0,97.9,0.485
30.9,31854.3,34614.6,1.1738,1.1608,141.0,97.9,0.485
30.92,31800.0,34669.0,1.1704,1.1639,141.0,97.9,0.485
30.94,31850.3,34638.4,1.1736,1.1622,141.0,97.9,0.485
30.96,31796.1,34610.7,1.1701,1.1606,141.0,97.9,0.485
30.98,31769.5,34436.2,1.1685,1.1505,141.0,97.9,0.485
31.0,31736.2,34535.8,1.1663,1.1562,141.0,97.9,0.485
31.02,31908.9,34586.0,1.1773,1.1591,141.0,97.9,0.485
31.04,31956.9,34855.6,1.1803,1.1748,141.0,97.9,0.485
31.06,32112.6,35261.0,1.1902,1.1982,141.0,97.9,0.485
31.08,32209.5,35566.3,1.1963,1.2159,141.0,97.9,0.485
31.1,32268.5,35868.6,1.2001,1.2335,141.0,97.9,0.485
31.12,32242.9,35749.1,1.1985,1.2265,141.0,97.9,0.485
31.14,32197.2,35573.0,1.1956,1.2163,141.0,97.9,0.485
31.16,32159.1,35373.0,1.1931,1.2047,141.0,97.9,0.485
31.18,32103.6,35237.7,1.1896,1.1969,141.0,97.9,0.485
31.2,32050.8,35087.3,1.1863,1.1882,141.0,97.9,0.485
31.22,32063.1,35077.8,1.1871,1.1876,141.0,97.9,0.485
31.24,32009.9,35029.2,1.1837,1.1848,141.0,97.9,0.485
31.26,31985.4,34874.0,1.1821,1.1758,141.0,97.9,0.485
31.28,31949.9,34735.3,1.1799,1.1678,141.0,97.9,0.485
31.3,31943.6,34807.5,1.1795,1.172,141.0,97.9,0.485
31.32,31808.8,34546.3,1.1709,1.1568,141.0,97.9,0.485
31.34,31805.8,34654.9,1.1708,1.1631,141.0,97.9,0.485
31.36,31894.2,34572.8,1.1764,1.1584,141.0,97.9,0.485
31.38,31737.7,34532.1,1.1664,1.156,141.0,97.9,0.485
31.4,31767.4,34517.0,1.1683,1.1551,141.0,97.9,0.485
31.42,31718.0,34509.0,1.1652,1.1547,141.0,97.9,0.485
31.44,31753.1,34557.6,1.1674,1.1575,141.0,97.9,0.485
31.46,31951.1,34846.3,1.18,1.1742,141.0,97.9,0.485
31.48,31995.7,35149.9,1.1828,1.1918,141.0,97.9,0.485
31.5,32165.3,35552.8,1.1935,1.2152,141.0,97.9,0.485
31.52,32267.3,35710.9,1.2,1.2243,141.0,97.9,0.485
31.54,32337.2,35791.2,1.2044,1.229,141.0,97.9,0.485
31.56,32272.6,35564.7,1.2003,1.2158,141.0,97.9,0.485
31.58,32116.6,35372.8,1.1905,1.2047,141.0,97.9,0.485
31.6,32138.9,35234.2,1.1919,1.1967,141.0,97.9,0.485
31.62,32100.8,35181.2,1.1895,1.1936,141.0,97.9,0.485
31.64,31983.7,35158.3,1.182,1.1923,141.0,97.9,0.485
31.66,31997.4,35059.4,1.1829,1.1866,141.0,97.9,0.485
31.68,32012.4,34986.0,1.1838,1.1823,141.0,97.9,0.485
31.7,31977.6,34902.8,1.1816,1.1775,141.0,97.9,0.485
31.72,31840.0,34760.5,1.1729,1.1692,141.0,97.9,0.485
31.74,31876.0,34624.4,1.1752,1.1614,141.0,97.9,0.485
31.76,31797.6,34719.2,1.1702,1.1669,141.0,97.9,0.485
31.78,31915.9,34698.1,1.1777,1.1656,141.0,97.9,0.485
31.8,31898.0,34506.3,1.1766,1.1545,141.0,97.9,0.485
31.82,31753.4,34526.6,1.1674,1.1557,141.0,97.9,0.485
31.84,31716.4,34476.9,1.1651,1.1528,141.0,97.9,0.485
31.86,31799.9,34478.2,1.1704,1.1529,141.0,97.9,0.485
31.88,31887.1,34722.4,1.1759,1.167,141.0,97.9,0.485
31.9,31999.1,35016.2,1.183,1.1841,141.0,97.9,0.485
31.92,32155.4,35483.7,1.1929,1.2112,141.0,97.9,0.485
31.94,32360.8,35672.0,1.2059,1.2221,141.0,97.9,0.485
31.96,32338.3,35723.9,1.2045,1.2251,141.0,97.9,0.485
31.98,32315.7,35724.8,1.2031,1.2251,141.0,97.9,0.485
32.0,32233.7,35454.3,1.1979,1.2095,141.0,97.9,0.485
32.02,32142.5,35164.0,1.1921,1.1926,141.0,97.9,0.485
32.04,32145.2,35195.2,1.1923,1.1944,141.0,97.9,0.485
32.06,32053.3,35089.5,1.1864,1.1883,141.0,97.9,0.485
32.08,32083.4,35155.5,1.1884,1.1921,141.0,97.9,0.485
32.1,31963.9,34985.1,1.1808,1.1823,141.0,97.9,0.485
32.12,31912.0,34915.3,1.1775,1.1782,141.0,97.9,0.485
32.14,31883.3,34778.9,1.1757,1.1703,141.0,97.9,0.485
32.16,31877.4,34670.3,1.1753,1.164,141.0,97.9,0.485
32.18,31875.1,34656.1,1.1751,1.1632,141.0,97.9,0.485
32.2,31804.1,34681.8,1.1707,1.1647,141.0,97.9,0.485
32.22,31828.2,34596.6,1.1722,1.1597,141.0,97.9,0.485
32.24,31804.7,34445.6,1.1707,1.151,141.0,97.9,0.485
32.26,31731.3,34426.4,1.166,1.1499,141.0,97.9,0.485
32.28,31750.1,34467.9,1.1672,1.1523,141.0,97.9,0.485
32.3,31916.0,34634.0,1.1777,1.1619,141.0,97.9,0.485
32.32,31998.1,35062.1,1.1829,1.1867,141.0,97.9,0.485
32.34,32110.7,35383.2,1.1901,1.2053,141.0,97.9,0.485
32.36,32250.2,35603.8,1.1989,1.2181,141.0,97.9,0.485
32.38,32270.6,35828.9,1.2002,1.2312,141.0,97.9,0.485
32.4,32265.7,35777.3,1.1999,1.2282,141.0,97.9,0.485
32.42,32279.6,35422.3,1.2008,1.2076,141.0,97.9,0.485
32.44,32076.4,35362.6,1.1879,1.2041,141.0,97.9,0.485
32.46,32038.6,35161.1,1.1855,1.1925,141.0,97.9,0.485
32.48,32083.1,35179.5,1.1883,1.1935,141.0,97.9,0.485
32.5,31967.9,35146.0,1.181,1.1916,141.0,97.9,0.485
32.52,32003.8,34926.8,1.1833,1.1789,141.0,97.9,0.485
32.54,31932.3,34957.5,1.1788,1.1807,141.0,97.9,0.485
32.56,31894.1,34812.9,1.1764,1.1723,141.0,97.9,0.485
32.58,31904.7,34665.3,1.177,1.1637,141.0,97.9,0.485
32.6,31852.6,34735.1,1.1737,1.1678,141.0,97.9,0.485
32.62,31981.9,34634.1,1.1819,1.1619,141.0,97.9,0.485
32.64,31871.7,34623.5,1.1749,1.1613,141.0,97.9,0.485
32.66,31731.8,34457.2,1.1661,1.1517,141.0,97.9,0.485
32.68,31883.6,34465.0,1.1757,1.1521,141.0,97.9,0.485
32.7,31757.6,34543.2,1.1677,1.1567,141.0,97.9,0.485
32.72,31900.3,34677.5,1.1767,1.1644,141.0,97.9,0.485
32.74,31925.5,34845.5,1.1783,1.1742,141.0,97.9,0.485
32.76,32127.2,35279.3,1.1911,1.1993,141.0,97.9,0.485
32.78,32284.9,35606.9,1.2011,1.2183,141.0,97.9,0.485
32.8,32307.8,35796.8,1.2026,1.2293,141.0,97.9,0.485
32.82,32316.1,35712.3,1.2031,1.2244,141.0,97.9,0.485
32.84,32256.0,35468.1,1.1993,1.2102,141.0,97.9,0.485
32.86,32226.3,35337.4,1.1974,1.2027,141.0,97.9,0.485
32.88,32078.6,35334.7,1.1881,1.2025,141.0,97.9,0.485
32.9,32111.1,35153.2,1.1901,1.192,141.0,97.9,0.485
32.92,32025.3,35093.2,1.1847,1.1885,141.0,97.9,0.485
32.94,32036.2,34982.5,1.1854,1.1821,141.0,97.9,0.485
32.96,31937.6,34946.9,1.1791,1.18,141.0,97.9,0.485
32.98,31843.4,34807.5,1.1731,1.172,141.0,97.9,0.485
33.0,31844.4,34675.6,1.1732,1.1643,141.0,97.9,0.485
33.02,31851.4,34794.4,1.1736,1.1712,141.0,97.9,0.485
33.04,31834.4,34637.6,1.1726,1.1621,141.0,97.9,0.485
33.06,31848.8,34695.9,1.1735,1.1655,141.0,97.9,0.485
33.08,31855.5,34578.3,1.1739,1.1587,141.0,97.9,0.485
33.1,31803.4,34551.6,1.1706,1.1571,141.0,97.9,0.485
33.12,31788.0,34516.9,1.1696,1.1551,141.0,97.9,0.485
33.14,31818.3,34556.2,1.1715,1.1574,141.0,97.9,0.485
33.16,31937.1,34772.4,1.1791,1.1699,141.0,97.9,0.485
33.18,31978.7,35180.0,1.1817,1.1936,141.0,97.9,0.485
33.2,32137.2,35632.0,1.1918,1.2197,141.0,97.9,0.485
33.22,32355.4,35706.1,1.2056,1.224,141.0,97.9,0.485
33.24,32316.3,35696.7,1.2031,1.2235,141.0,97.9,0.485
33.26,32285.2,35628.6,1.2011,1.2196,141.0,97.9,0.485
33.28,32106.5,35403.8,1.1898,1.2065,141.0,97.9,0.485
33.3,32076.2,35249.3,1.1879,1.1976,141.0,97.9,0.485
33.32,32094.5,35206.0,1.1891,1.1951,141.0,97.9,0.485
33.34,31985.7,35147.1,1.1822,1.1916,141.0,97.9,0.485
33.36,31995.1,35125.7,1.1828,1.1904,141.0,97.9,0.485
33.38,32058.0,34932.3,1.1867,1.1792,141.0,97.9,0.485
33.4,31949.8,34810.1,1.1799,1.1721,141.0,97.9,0.485
33.42,31917.2,34761.0,1.1778,1.1693,141.0,97.9,0.485
33.44,31918.4,34616.4,1.1779,1.1609,141.0,97.9,0.485
33.46,31911.5,34690.8,1.1775,1.1652,141.0,97.9,0.485
33.48,31833.8,34638.8,1.1725,1.1622,141.0,97.9,0.485
33.5,31869.5,34582.6,1.1748,1.1589,141.0,97.9,0.485
33.52,31713.2,34458.3,1.1649,1.1517,141.0,97.9,0.485
33.54,31795.9,34489.6,1.1701,1.1535,141.0,97.9,0.485
33.56,31786.4,34542.2,1.1695,1.1566,141.0,97.9,0.485
33.58,31906.8,34668.7,1.1772,1.1639,141.0,97.9,0.485
33.6,32015.8,35020.7,1.1841,1.1843,141.0,97.9,0.485
33.62,32265.6,35354.1,1.1999,1.2036,141.0,97.9,0.485
33.64,32255.7,35739.6,1.1993,1.226,141.0,97.9,0.485
33.66,32283.2,35839.2,1.201,1.2318,141.0,97.9,0.485
33.68,32348.4,35663.2,1.2051,1.2216,141.0,97.9,0.485
33.7,32232.6,35560.3,1.1978,1.2156,141.0,97.9,0.485
33.72,32184.7,35247.5,1.1948,1.1975,141.0,97.9,0.485
33.74,32066.2,35274.2,1.1873,1.199,141.0,97.9,0.485
33.76,32131.5,35069.5,1.1914,1.1872,141.0,97.9,0.485
33.78,31996.8,35107.5,1.1829,1.1894,141.0,97.9,0.485
33.8,31970.3,35009.3,1.1812,1.1837,141.0,97.9,0.485
33.82,31974.8,34923.6,1.1815,1.1787,141.0,97.9,0.485
33.84,31822.7,34768.9,1.1718,1.1697,141.0,97.9,0.485
33.86,31930.3,34666.9,1.1786,1.1638,141.0,97.9,0.485
33.88,31899.4,34618.1,1.1767,1.161,141.0,97.9,0.485
33.9,31794.0,34747.2,1.17,1.1685,141.0,97.9,0.485
33.92,31783.1,34618.1,1.1693,1.161,141.0,97.9,0.485
33.94,31756.2,34409.9,1.1676,1.1489,141.0,97.9,0.485
33.96,31764.4,34447.2,1.1681,1.1511,141.0,97.9,0.485
33.98,31751.0,34508.1,1.1673,1.1546,141.0,97.9,0.485
34.0,31834.3,34659.1,1.1726,1.1634,141.0,97.9,0.485
34.02,31991.3,34937.4,1.1825,1.1795,141.0,97.9,0.485
34.04,32180.0,35229.2,1.1945,1.1964,141.0,97.9,0.485
34.06,32280.6,35633.2,1.2008,1.2198,141.0,97.9,0.485
34.08,32280.8,35795.0,1.2009,1.2292,141.0,97.9,0.485
34.1,32337.2,35679.0,1.2044,1.2225,141.0,97.9,0.485
34.12,32342.6,35557.0,1.2048,1.2154,141.0,97.9,0.485
34.14,32106.4,35307.7,1.1898,1.201,141.0,97.9,0.485
34.16,32124.6,35191.1,1.191,1.1942,141.0,97.9,0.485
34.18,32064.1,35144.0,1.1871,1.1915,141.0,97.9,0.485
34.2,32073.1,35157.2,1.1877,1.1922,141.0,97.9,0.485
34.22,31978.7,35023.3,1.1817,1.1845,141.0,97.9,0.485
34.24,31863.2,34919.0,1.1744,1.1784,141.0,97.9,0.485
34.26,31914.2,34822.7,1.1776,1.1729,141.0,97.9,0.485
34.28,31806.1,34790.3,1.1708,1.171,141.0,97.9,0.485
34.3,31903.1,34686.3,1.1769,1.1649,141.0,97.9,0.485
34.32,31884.9,34707.9,1.1758,1.1662,141.0,97.9,0.485
34.34,31790.5,34563.9,1.1698,1.1579,141.0,97.9,0.485
34.36,31779.8,34508.8,1.1691,1.1547,141.0,97.9,0.485
34.38,31723.1,34507.2,1.1655,1.1546,141.0,97.9,0.485
34.4,31786.2,34534.8,1.1695,1.1562,141.0,97.9,0.485
34.42,31786.1,34562.2,1.1695,1.1578,141.0,97.9,0.485
34.44,31985.5,34813.7,1.1821,1.1723,141.0,97.9,0.485
34.46,32151.3,35192.1,1.1927,1.1943,141.0,97.9,0.485
34.48,32221.2,35588.3,1.1971,1.2172,141.0,97.9,0.485
34.5,32350.3,35756.8,1.2053,1.227,141.0,97.9,0.485
34.52,32312.7,35778.5,1.2029,1.2282,141.0,97.9,0.485
34.54,32259.6,35597.7,1.1995,1.2178,141.0,97.9,0.485
34.56,32212.4,35314.7,1.1965,1.2014,141.0,97.9,0.485
34.58,32092.3,35291.6,1.1889,1.2,141.0,97.9,0.485
34.6,32129.0,35197.3,1.1912,1.1946,141.0,97.9,0.485
34.62,31981.1,35061.9,1.1819,1.1867,141.0,97.9,0.485
34.64,31980.9,35065.6,1.1819,1.1869,141.0,97.9,0.485
34.66,31920.2,34975.3,1.178,1.1817,141.0,97.9,0.485
34.68,31932.8,34785.2,1.1788,1.1707,141.0,97.9,0.485
34.7,31834.2,34679.5,1.1726,1.1646,141.0,97.9,0.485
34.72,31843.7,34682.4,1.1732,1.1647,141.0,97.9,0.485
34.74,31831.2,34657.6,1.1724,1.1633,141.0,97.9,0.485
34.76,31885.6,34638.6,1.1758,1.1622,141.0,97.9,0.485
34.78,31802.8,34619.1,1.1706,1.1611,141.0,97.9,0.485
34.8,31778.7,34460.2,1.169,1.1518,141.0,97.9,0.485
34.82,31696.4,34449.0,1.1638,1.1512,141.0,97.9,0.485
34.84,31751.3,34449.7,1.1673,1.1512,141.0,97.9,0.485
34.86,31862.4,34731.6,1.1743,1.1676,141.0,97.9,0.485
34.88,32062.7,35169.2,1.187,1.1929,141.0,97.9,0.485
34.9,32253.5,35470.0,1.1991,1.2104,141.0,97.9,0.485
34.92,32279.5,35762.5,1.2008,1.2273,141.0,97.9,0.485
34.94,32334.4,35690.5,1.2043,1.2231,141.0,97.9,0.485
34.96,32254.5,35582.7,1.1992,1.2169,141.0,97.9,0.485
34.98,32261.1,35415.6,1.1996,1.2072,141.0,97.9,0.485
35.0,32140.5,35269.3,1.192,1.1987,141.0,97.9,0.485
35.02,32030.2,35127.7,1.185,1.1905,141.0,97.9,0.485
35.04,32008.5,35130.0,1.1836,1.1907,141.0,97.9,0.485
35.06,32055.8,34965.8,1.1866,1.1811,141.0,97.9,0.485
35.08,31955.4,34969.1,1.1802,1.1813,141.0,97.9,0.485
35.1,32003.1,34774.0,1.1833,1.17,141.0,97.9,0.485
35.12,31983.1,34807.3,1.182,1.172,141.0,97.9,0.485
35.14,31871.9,34734.5,1.1749,1.1677,141.0,97.9,0.485
35.16,31864.6,34692.6,1.1745,1.1653,141.0,97.9,0.485
35.18,31857.2,34653.5,1.174,1.163,141.0,97.9,0.485
35.2,31849.5,34675.0,1.1735,1.1643,141.0,97.9,0.485
35.22,31758.9,34523.3,1.1678,1.1555,141.0,97.9,0.485
35.24,31727.2,34403.9,1.1658,1.1486,141.0,97.9,0.485
35.26,31780.6,34480.1,1.1692,1.153,141.0,97.9,0.485
35.28,31913.7,34787.6,1.1776,1.1708,141.0,97.9,0.485
35.3,32045.1,35005.0,1.1859,1.1834,141.0,97.9,0.485
35.32,32176.8,35396.1,1.1943,1.2061,141.0,97.9,0.485
35.34,32291.1,35593.7,1.2015,1.2175,141.0,97.9,0.485
35.36,32313.8,35788.6,1.203,1.2288,141.0,97.9,0.485
35.38,32370.4,35715.7,1.2065,1.2246,141.0,97.9,0.485
35.4,32144.4,35475.3,1.1922,1.2107,141.0,97.9,0.485
35.42,32127.2,35257.2,1.1911,1.198,141.0,97.9,0.485
35.44,32127.8,35164.8,1.1912,1.1927,141.0,97.9,0.485
35.46,32153.5,35160.1,1.1928,1.1924,141.0,97.9,0.485
35.48,31963.4,34960.8,1.1807,1.1809,141.0,97.9,0.485
35.5,32060.6,35024.0,1.1869,1.1845,141.0,97.9,0.485
35.52,31910.3,34838.9,1.1774,1.1738,141.0,97.9,0.485
35.54,31917.5,34752.3,1.1778,1.1688,141.0,97.9,0.485
35.56,31935.8,34746.3,1.179,1.1684,141.0,97.9,0.485
35.58,31819.9,34708.4,1.1717,1.1662,141.0,97.9,0.485
35.6,31802.4,34651.3,1.1705,1.1629,141.0,97.9,0.485
35.62,31827.3,34544.9,1.1721,1.1568,141.0,97.9,0.485
35.64,31769.5,34521.2,1.1685,1.1554,141.0,97.9,0.485
35.66,31701.4,34489.8,1.1641,1.1536,141.0,97.9,0.485
35.68,31824.0,34530.3,1.1719,1.1559,141.0,97.9,0.485
35.7,31740.2,34655.4,1.1666,1.1632,141.0,97.9,0.485
35.72,31986.8,34892.3,1.1822,1.1769,141.0,97.9,0.485
35.74,32085.1,35268.1,1.1885,1.1987,141.0,97.9,0.485
35.76,32326.5,35643.8,1.2038,1.2204,141.0,97.9,0.485
35.78,32394.5,35692.1,1.2081,1.2232,141.0,97.9,0.485
35.8,32376.3,35690.1,1.2069,1.2231,141.0,97.9,0.485
35.82,32288.2,35595.7,1.2013,1.2176,141.0,97.9,0.485
35.84,32039.8,35307.5,1.1856,1.2009,141.0,97.9,0.485
35.86,32053.8,35197.7,1.1865,1.1946,141.0,97.9,0.485
35.88,32032.0,35174.9,1.1851,1.1933,141.0,97.9,0.485
35.9,32066.6,35102.7,1.1873,1.1891,141.0,97.9,0.485
35.92,31992.9,35039.5,1.1826,1.1854,141.0,97.9,0.485
35.94,31951.2,34852.6,1.18,1.1746,141.0,97.9,0.485
35.96,31942.6,34841.9,1.1794,1.174,141.0,97.9,0.485
35.98,31871.4,34775.3,1.1749,1.1701,141.0,97.9,0.485
36.0,31977.0,34634.3,1.1816,1.1619,141.0,97.9,0.485
36.02,31896.7,34691.7,1.1765,1.1653,141.0,97.9,0.485
36.04,31780.9,34604.9,1.1692,1.1602,141.0,97.9,0.485
36.06,31797.2,34517.4,1.1702,1.1552,141.0,97.9,0.485
36.08,31845.4,34592.8,1.1733,1.1595,141.0,97.9,0.485
36.1,31754.3,34576.8,1.1675,1.1586,141.0,97.9,0.485
36.12,31845.7,34586.0,1.1733,1.1591,141.0,97.9,0.485
36.14,32021.9,34734.6,1.1845,1.1677,141.0,97.9,0.485
36.16,32058.5,35155.7,1.1868,1.1921,141.0,97.9,0.485
36.18,32317.4,35476.1,1.2032,1.2107,141.0,97.9,0.485
36.2,32389.6,35829.1,1.2078,1.2312,141.0,97.9,0.485
36.22,32299.9,35678.1,1.2021,1.2224,141.0,97.9,0.485
36.24,32264.0,35575.0,1.1998,1.2164,141.0,97.9,0.485
36.26,32159.1,35451.6,1.1931,1.2093,141.0,97.9,0.485
36.28,32110.3,35327.5,1.1901,1.2021,141.0,97.9,0.485
36.3,32116.3,35178.3,1.1904,1.1935,141.0,97.9,0.485
36.32,31991.6,35132.8,1.1825,1.1908,141.0,97.9,0.485
36.34,31953.2,35038.2,1.1801,1.1853,141.0,97.9,0.485
36.36,32048.0,34977.5,1.1861,1.1818,141.0,97.9,0.485
36.38,31952.8,34835.3,1.1801,1.1736,141.0,97.9,0.485
36.4,31860.7,34749.0,1.1742,1.1686,141.0,97.9,0.485
36.42,31871.2,34580.9,1.1749,1.1588,141.0,97.9,0.485
36.44,31832.2,34626.1,1.1724,1.1615,141.0,97.9,0.485
36.46,31800.7,34626.1,1.1704,1.1615,141.0,97.9,0.485
36.48,31713.5,34445.1,1.1649,1.151,141.0,97.9,0.485
36.5,31789.6,34393.3,1.1697,1.148,141.0,97.9,0.485
36.52,31712.1,34457.0,1.1648,1.1517,141.0,97.9,0.485
36.54,31816.6,34479.4,1.1714,1.153,141.0,97.9,0.485
36.56,31714.5,34704.7,1.165,1.166,141.0,97.9,0.485
36.58,32121.3,35066.0,1.1908,1.1869,141.0,97.9,0.485
36.6,32261.0,35497.9,1.1996,1.212,141.0,97.9,0.485
36.62,32316.5,35709.6,1.2031,1.2242,141.0,97.9,0.485
36.64,32366.6,35772.8,1.2063,1.2279,141.0,97.9,0.485
36.66,32299.8,35710.4,1.2021,1.2243,141.0,97.9,0.485
36.68,32289.1,35463.0,1.2014,1.21,141.0,97.9,0.485
36.7,32162.2,35277.8,1.1933,1.1992,141.0,97.9,0.485
36.72,32110.1,35193.7,1.19,1.1943,141.0,97.9,0.485
36.74,32022.1,35110.6,1.1845,1.1895,141.0,97.9,0.485
36.76,32118.2,34994.8,1.1906,1.1828,141.0,97.9,0.485
36.78,31918.2,34900.9,1.1779,1.1774,141.0,97.9,0.485
36.8,31960.7,34805.8,1.1806,1.1719,141.0,97.9,0.485
36.82,31897.4,34745.1,1.1766,1.1684,141.0,97.9,0.485
36.84,31878.6,34673.0,1.1754,1.1642,141.0,97.9,0.485
36.86,31811.2,34684.6,1.1711,1.1648,141.0,97.9,0.485
36.88,31765.8,34695.3,1.1682,1.1655,141.0,97.9,0.485
36.9,31892.8,34533.2,1.1763,1.1561,141.0,97.9,0.485
36.92,31839.3,34549.7,1.1729,1.157,141.0,97.9,0.485
36.94,31735.8,34404.9,1.1663,1.1486,141.0,97.9,0.485
36.96,31775.3,34499.4,1.1688,1.1541,141.0,97.9,0.485
36.98,31841.5,34721.5,1.173,1.167,141.0,97.9,0.485
37.0,31992.4,34942.1,1.1826,1.1798,141.0,97.9,0.485
37.02,32091.0,35362.7,1.1888,1.2041,141.0,97.9,0.485
37.04,32273.1,35748.0,1.2004,1.2265,141.0,97.9,0.485
37.06,32334.7,35826.5,1.2043,1.231,141.0,97.9,0.485
37.08,32262.2,35701.5,1.1997,1.2238,141.0,97.9,0.485
37.1,32273.8,35565.7,1.2004,1.2159,141.0,97.9,0.485
37.12,32200.4,35281.0,1.1958,1.1994,141.0,97.9,0.485
37.14,32082.1,35163.6,1.1883,1.1926,141.0,97.9,0.485
37.16,32076.2,35128.4,1.1879,1.1906,141.0,97.9,0.485
37.18,32091.8,35150.2,1.1889,1.1918,141.0,97.9,0.485
37.2,32044.3,34992.8,1.1859,1.1827,141.0,97.9,0.485
37.22,31964.3,34833.9,1.1808,1.1735,141.0,97.9,0.485
37.24,31935.0,34863.7,1.1789,1.1752,141.0,97.9,0.485
37.26,31877.7,34709.0,1.1753,1.1663,141.0,97.9,0.485
37.28,31751.9,34646.1,1.1673,1.1626,141.0,97.9,0.485
37.3,31797.5,34632.4,1.1702,1.1618,141.0,97.9,0.485
37.32,31892.7,34624.0,1.1763,1.1613,141.0,97.9,0.485
37.34,31756.8,34506.6,1.1677,1.1545,141.0,97.9,0.485
37.36,31828.3,34515.1,1.1722,1.155,141.0,97.9,0.485
37.38,31864.6,34484.4,1.1745,1.1532,141.0,97.9,0.485
37.4,31758.8,34605.0,1.1678,1.1602,141.0,97.9,0.485
37.42,31982.5,34957.3,1.182,1.1807,141.0,97.9,0.485
37.44,32133.4,35188.6,1.1915,1.1941,141.0,97.9,0.485
37.46,32149.2,35608.2,1.1925,1.2184,141.0,97.9,0.485
37.48,32305.3,35748.3,1.2024,1.2265,141.0,97.9,0.485
37.5,32309.2,35703.8,1.2027,1.2239,141.0,97.9,0.485
37.52,32297.0,35491.6,1.2019,1.2116,141.0,97.9,0.485
37.54,32193.0,35417.6,1.1953,1.2073,141.0,97.9,0.485
37.56,32104.4,35221.8,1.1897,1.196,141.0,97.9,0.485
37.58,32048.5,35073.0,1.1861,1.1874,141.0,97.9,0.485
37.6,31989.4,35122.7,1.1824,1.1902,141.0,97.9,0.485
37.62,31876.7,35023.8,1.1753,1.1845,141.0,97.9,0.485
37.64,31939.3,34954.9,1.1792,1.1805,141.0,97.9,0.485
37.66,31981.4,34767.2,1.1819,1.1696,141.0,97.9,0.485
37.68,31851.8,34750.8,1.1737,1.1687,141.0,97.9,0.485
37.7,31808.5,34658.8,1.1709,1.1634,141.0,97.9,0.485
37.72,31849.7,34676.2,1.1735,1.1644,141.0,97.9,0.485
37.74,31970.6,34663.8,1.1812,1.1636,141.0,97.9,0.485
37.76,31722.4,34589.5,1.1655,1.1593,141.0,97.9,0.485
37.78,31742.5,34308.5,1.1667,1.1431,141.0,97.9,0.485
37.8,31763.6,34412.7,1.1681,1.1491,141.0,97.9,0.485
37.82,31878.1,34510.1,1.1753,1.1547,141.0,97.9,0.485
37.84,31916.8,34748.4,1.1778,1.1685,141.0,97.9,0.485
37.86,32088.4,35200.2,1.1887,1.1947,141.0,97.9,0.485
37.88,32285.3,35508.9,1.2012,1.2126,141.0,97.9,0.485
37.9,32280.6,35767.6,1.2009,1.2276,141.0,97.9,0.485
37.92,32320.5,35863.9,1.2034,1.2332,141.0,97.9,0.485
37.94,32354.1,35652.6,1.2055,1.2209,141.0,97.9,0.485
37.96,32211.7,35424.4,1.1965,1.2077,141.0,97.9,0.485
37.98,32093.0,35317.1,1.189,1.2015,141.0,97.9,0.485
38.0,32121.3,35083.6,1.1908,1.188,141.0,97.9,0.485
38.02,32007.6,35138.4,1.1836,1.1911,141.0,97.9,0.485
38.04,31997.6,35056.8,1.1829,1.1864,141.0,97.9,0.485
38.06,31900.7,34918.2,1.1768,1.1784,141.0,97.9,0.485
38.08,31971.1,34892.5,1.1812,1.1769,141.0,97.9,0.485
38.1,31902.5,34782.9,1.1769,1.1705,141.0,97.9,0.485
38.12,31864.3,34719.6,1.1745,1.1669,141.0,97.9,0.485
38.14,31862.8,34574.1,1.1744,1.1584,141.0,97.9,0.485
38.16,31957.6,34593.9,1.1804,1.1596,141.0,97.9,0.485
38.18,31760.6,34487.3,1.1679,1.1534,141.0,97.9,0.485
38.2,31720.4,34484.3,1.1653,1.1532,141.0,97.9,0.485
38.22,31783.3,34366.0,1.1693,1.1464,141.0,97.9,0.485
38.24,31759.8,34509.3,1.1678,1.1547,141.0,97.9,0.485
38.26,31859.6,34799.9,1.1742,1.1715,141.0,97.9,0.485
38.28,31973.7,35077.6,1.1814,1.1876,141.0,97.9,0.485
38.3,32131.8,35420.9,1.1914,1.2075,141.0,97.9,0.485
38.32,32248.5,35664.8,1.1988,1.2217,141.0,97.9,0.485
38.34,32274.8,35703.1,1.2005,1.2239,141.0,97.9,0.485
38.36,32287.8,35620.3,1.2013,1.2191,141.0,97.9,0.485
38.38,32202.3,35430.9,1.1959,1.2081,141.0,97.9,0.485
38.4,32091.9,35201.7,1.1889,1.1948,141.0,97.9,0.485
38.42,32104.7,35131.2,1.1897,1.1907,141.0,97.9,0.485
38.44,32100.4,35046.9,1.1894,1.1858,141.0,97.9,0.485
38.46,32037.1,34960.7,1.1854,1.1808,141.0,97.9,0.485
38.48,32004.0,35127.8,1.1833,1.1905,141.0,97.9,0.485
38.5,31915.6,34885.8,1.1777,1.1765,141.0,97.9,0.485
38.52,31873.6,34760.4,1.1751,1.1692,141.0,97.9,0.485
38.54,31961.1,34665.7,1.1806,1.1638,141.0,97.9,0.485
38.56,31727.0,34679.0,1.1658,1.1645,141.0,97.9,0.485
38.58,31814.1,34761.2,1.1713,1.1693,141.0,97.9,0.485
38.6,31877.1,34615.6,1.1753,1.1608,141.0,97.9,0.485
38.62,31824.3,34468.6,1.1719,1.1523,141.0,97.9,0.485
38.64,31808.7,34451.8,1.1709,1.1514,141.0,97.9,0.485
38.66,31761.7,34601.9,1.168,1.1601,141.0,97.9,0.485
38.68,31871.2,34563.1,1.1749,1.1578,141.0,97.9,0.485
38.7,31975.5,34992.6,1.1815,1.1827,141.0,97.9,0.485
38.72,32089.5,35277.4,1.1887,1.1992,141.0,97.9,0.485
38.74,32299.3,35622.2,1.202,1.2192,141.0,97.9,0.485
38.76,32364.2,35719.1,1.2062,1.2248,141.0,97.9,0.485
38.78,32266.0,35784.2,1.1999,1.2286,141.0,97.9,0.485
38.8,32179.9,35579.2,1.1945,1.2167,141.0,97.9,0.485
38.82,32136.8,35389.1,1.1917,1.2057,141.0,97.9,0.485
38.84,32164.2,35242.2,1.1935,1.1972,141.0,97.9,0.485
38.86,32021.2,35167.2,1.1844,1.1928,141.0,97.9,0.485
38.88,32007.0,35070.2,1.1835,1.1872,141.0,97.9,0.485
38.9,31949.7,34935.6,1.1799,1.1794,141.0,97.9,0.485
38.92,32014.6,34948.2,1.184,1.1801,141.0,97.9,0.485
38.94,31977.3,34824.5,1.1816,1.173,141.0,97.9,0.485
38.96,31879.0,34714.1,1.1754,1.1666,141.0,97.9,0.485
38.98,31861.4,34679.1,1.1743,1.1645,141.0,97.9,0.485
39.0,31922.8,34659.6,1.1782,1.1634,141.0,97.9,0.485
39.02,31817.8,34631.7,1.1715,1.1618,141.0,97.9,0.485
39.04,31745.2,34578.4,1.1669,1.1587,141.0,97.9,0.485
39.06,31757.7,34369.2,1.1677,1.1466,141.0,97.9,0.485
39.08,31738.0,34469.4,1.1665,1.1524,141.0,97.9,0.485
39.1,31768.9,34641.0,1.1684,1.1623,141.0,97.9,0.485
39.12,32004.3,34779.9,1.1833,1.1704,141.0,97.9,0.485
39.14,32045.1,35192.6,1.1859,1.1943,141.0,97.9,0.485
39.16,32314.7,35377.8,1.203,1.205,141.0,97.9,0.485
39.18,32305.1,35733.5,1.2024,1.2256,141.0,97.9,0.485
39.2,32279.3,35734.3,1.2008,1.2257,141.0,97.9,0.485
39.22,32256.2,35626.1,1.1993,1.2194,141.0,97.9,0.485
39.24,32128.1,35370.8,1.1912,1.2046,141.0,97.9,0.485
39.26,32137.4,35173.9,1.1918,1.1932,141.0,97.9,0.485
39.28,32023.2,35169.7,1.1845,1.193,141.0,97.9,0.485
39.3,32012.2,35095.9,1.1838,1.1887,141.0,97.9,0.485
39.32,32034.7,35154.3,1.1853,1.1921,141.0,97.9,0.485
39.34,32004.1,34952.5,1.1833,1.1804,141.0,97.9,0.485
39.36,31801.9,34808.9,1.1705,1.1721,141.0,97.9,0.485
39.38,31992.6,34786.3,1.1826,1.1707,141.0,97.9,0.485
39.4,31836.5,34685.7,1.1727,1.1649,141.0,97.9,0.485
39.42,31917.4,34639.1,1.1778,1.1622,141.0,97.9,0.485
39.44,31830.5,34658.9,1.1723,1.1634,141.0,97.9,0.485
39.46,31737.7,34564.2,1.1664,1.1579,141.0,97.9,0.485
39.48,31797.8,34487.9,1.1703,1.1535,141.0,97.9,0.485
39.5,31749.6,34431.3,1.1672,1.1502,141.0,97.9,0.485
39.52,31871.2,34593.9,1.1749,1.1596,141.0,97.9,0.485
39.54,31927.8,34790.2,1.1785,1.171,141.0,97.9,0.485
39.56,32096.3,35144.1,1.1892,1.1915,141.0,97.9,0.485
39.58,32262.0,35484.2,1.1997,1.2112,141.0,97.9,0.485
39.6,32343.7,35725.2,1.2049,1.2251,141.0,97.9,0.485
39.62,32340.0,35754.2,1.2046,1.2268,141.0,97.9,0.485
39.64,32258.0,35619.3,1.1994,1.219,141.0,97.9,0.485
39.66,32168.2,35468.6,1.1937,1.2103,141.0,97.9,0.485
39.68,32130.5,35274.9,1.1913,1.1991,141.0,97.9,0.485
39.7,32076.4,35040.0,1.1879,1.1854,141.0,97.9,0.485
39.72,32112.9,35147.7,1.1902,1.1917,141.0,97.9,0.485
39.74,31972.8,35045.6,1.1813,1.1858,141.0,97.9,0.485
39.76,31853.1,34946.3,1.1738,1.18,141.0,97.9,0.485
39.78,31917.0,34821.7,1.1778,1.1728,141.0,97.9,0.485
39.8,31918.6,34754.0,1.1779,1.1689,141.0,97.9,0.485
39.82,31873.6,34651.1,1.1751,1.1629,141.0,97.9,0.485
39.84,31842.1,34626.3,1.1731,1.1615,141.0,97.9,0.485
39.86,31875.3,34600.9,1.1752,1.16,141.0,97.9,0.485
39.88,31827.4,34556.6,1.1721,1.1574,141.0,97.9,0.485
39.9,31813.3,34519.6,1.1712,1.1553,141.0,97.9,0.485
39.92,31693.5,34331.3,1.1636,1.1444,141.0,97.9,0.485
39.94,31772.1,34456.9,1.1686,1.1517,141.0,97.9,0.485
39.96,31835.7,34623.4,1.1727,1.1613,141.0,97.9,0.485
39.98,32115.9,35042.4,1.1904,1.1856,141.0,97.9,0.485
40.0,32042.1,35393.3,1.1857,1.2059,141.0,97.9,0.485
40.02,32290.4,35643.8,1.2015,1.2204,141.0,97.9,0.485
40.04,32315.1,35678.7,1.203,1.2225,141.0,97.9,0.485
40.06,32256.6,35712.9,1.1993,1.2244,141.0,97.9,0.485
40.08,32204.6,35468.0,1.196,1.2102,141.0,97.9,0.485
40.1,32156.5,35324.1,1.193,1.2019,141.0,97.9,0.485
40.12,32125.7,35131.0,1.191,1.1907,141.0,97.9,0.485
40.14,32090.4,35163.0,1.1888,1.1926,141.0,97.9,0.485
40.16,32062.3,34955.0,1.187,1.1805,141.0,97.9,0.485
40.18,32085.3,34961.8,1.1885,1.1809,141.0,97.9,0.485
40.2,31874.2,34954.5,1.1751,1.1805,141.0,97.9,0.485
40.22,31909.4,34736.6,1.1773,1.1679,141.0,97.9,0.485
40.24,31889.5,34760.8,1.1761,1.1693,141.0,97.9,0.485
40.26,31946.5,34652.9,1.1797,1.163,141.0,97.9,0.485
40.28,31975.3,34619.7,1.1815,1.1611,141.0,97.9,0.485
40.3,31796.9,34566.9,1.1702,1.158,141.0,97.9,0.485
40.32,31761.4,34602.7,1.1679,1.1601,141.0,97.9,0.485
40.34,31839.1,34503.7,1.1729,1.1544,141.0,97.9,0.485
40.36,31724.9,34554.9,1.1656,1.1573,141.0,97.9,0.485
40.38,31828.5,34715.9,1.1722,1.1667,141.0,97.9,0.485
40.4,31979.6,34920.2,1.1818,1.1785,141.0,97.9,0.485
40.42,32124.2,35428.0,1.1909,1.2079,141.0,97.9,0.485
40.44,32288.1,35642.0,1.2013,1.2203,141.0,97.9,0.485
40.46,32375.3,35735.0,1.2069,1.2257,141.0,97.9,0.485
40.48,32330.9,35773.1,1.204,1.2279,141.0,97.9,0.485
40.5,32268.4,35589.8,1.2001,1.2173,141.0,97.9,0.485
40.52,32150.4,35383.2,1.1926,1.2053,141.0,97.9,0.485
40.54,32141.8,35165.4,1.1921,1.1927,141.0,97.9,0.485
40.56,31980.9,35052.5,1.1819,1.1862,141.0,97.9,0.485
40.58,32032.3,35150.4,1.1851,1.1918,141.0,97.9,0.485
40.6,32000.7,35059.1,1.1831,1.1866,141.0,97.9,0.485
40.62,31916.5,34879.4,1.1778,1.1761,141.0,97.9,0.485
40.64,31879.3,34937.0,1.1754,1.1795,141.0,97.9,0.485
40.66,31879.1,34756.9,1.1754,1.169,141.0,97.9,0.485
40.68,31892.4,34603.2,1.1762,1.1601,141.0,97.9,0.485
40.7,31880.0,34702.5,1.1755,1.1659,141.0,97.9,0.485
40.72,31829.9,34629.8,1.1723,1.1617,141.0,97.9,0.485
40.74,31793.1,34552.0,1.17,1.1572,141.0,97.9,0.485
40.76,31731.1,34451.4,1.166,1.1513,141.0,97.9,0.485
40.78,31726.9,34436.4,1.1658,1.1505,141.0,97.9,0.485
40.8,31809.4,34593.0,1.171,1.1595,141.0,97.9,0.485
40.82,31975.2,34878.7,1.1815,1.1761,141.0,97.9,0.485
40.84,32211.3,35243.3,1.1965,1.1972,141.0,97.9,0.485
40.86,32193.2,35508.4,1.1953,1.2126,141.0,97.9,0.485
40.88,32283.5,35757.9,1.201,1.227,141.0,97.9,0.485
40.9,32301.2,35758.7,1.2022,1.2271,141.0,97.9,0.485
40.92,32218.1,35583.3,1.1969,1.2169,141.0,97.9,0.485
40.94,32164.8,35322.8,1.1935,1.2018,141.0,97.9,0.485
40.96,32114.3,35279.8,1.1903,1.1993,141.0,97.9,0.485
40.98,32077.8,35163.2,1.188,1.1926,141.0,97.9,0.485
41.0,32046.1,35009.1,1.186,1.1837,141.0,97.9,0.485
41.02,31893.9,35054.3,1.1763,1.1863,141.0,97.9,0.485
41.04,31895.1,34927.6,1.1764,1.1789,141.0,97.9,0.485
41.06,31909.3,34720.5,1.1773,1.1669,141.0,97.9,0.485
41.08,31909.0,34748.2,1.1773,1.1685,141.0,97.9,0.485
41.1,31852.6,34689.7,1.1737,1.1651,141.0,97.9,0.485
41.12,31791.9,34628.1,1.1699,1.1616,141.0,97.9,0.485
41.14,31815.6,34724.7,1.1714,1.1672,141.0,97.9,0.485
41.16,31865.4,34558.8,1.1745,1.1576,141.0,97.9,0.485
41.18,31747.5,34469.1,1.1671,1.1524,141.0,97.9,0.485
41.2,31768.9,34427.4,1.1684,1.1499,141.0,97.9,0.485
41.22,31815.1,34520.5,1.1713,1.1553,141.0,97.9,0.485
41.24,31941.7,34677.8,1.1794,1.1645,141.0,97.9,0.485
41.26,32005.9,35146.4,1.1834,1.1916,141.0,97.9,0.485
41.28,32318.7,35493.2,1.2033,1.2117,141.0,97.9,0.485
41.3,32304.2,35735.6,1.2023,1.2258,141.0,97.9,0.485
41.32,32334.5,35781.2,1.2043,1.2284,141.0,97.9,0.485
41.34,32314.0,35729.7,1.203,1.2254,141.0,97.9,0.485
41.36,32227.9,35427.9,1.1975,1.2079,141.0,97.9,0.485
41.38,32234.4,35223.4,1.1979,1.1961,141.0,97.9,0.485
41.4,32096.1,35167.2,1.1892,1.1928,141.0,97.9,0.485
41.42,32054.2,35082.9,1.1865,1.1879,141.0,97.9,0.485
41.44,32066.8,35064.9,1.1873,1.1869,141.0,97.9,0.485
41.46,31970.6,34961.6,1.1812,1.1809,141.0,97.9,0.485
41.48,31940.8,34862.0,1.1793,1.1751,141.0,97.9,0.485
41.5,31868.5,34735.0,1.1747,1.1678,141.0,97.9,0.485
41.52,31821.3,34752.6,1.1717,1.1688,141.0,97.9,0.485
41.54,31819.4,34660.8,1.1716,1.1635,141.0,97.9,0.485
41.56,31792.7,34664.6,1.1699,1.1637,141.0,97.9,0.485
41.58,31822.5,34584.1,1.1718,1.159,141.0,97.9,0.485
41.6,31817.4,34476.6,1.1715,1.1528,141.0,97.9,0.485
41.62,31737.5,34510.2,1.1664,1.1547,141.0,97.9,0.485
41.64,31847.1,34537.2,1.1734,1.1563,141.0,97.9,0.485
41.66,31810.1,34657.0,1.171,1.1632,141.0,97.9,0.485
41.68,32006.7,35027.3,1.1835,1.1847,141.0,97.9,0.485
41.7,32219.4,35296.4,1.197,1.2003,141.0,97.9,0.485
41.72,32284.8,35655.6,1.2011,1.2211,141.0,97.9,0.485
41.74,32352.7,35891.3,1.2054,1.2348,141.0,97.9,0.485
41.76,32385.4,35617.2,1.2075,1.2189,141.0,97.9,0.485
41.78,32167.2,35458.2,1.1937,1.2097,141.0,97.9,0.485
41.8,32135.5,35258.9,1.1917,1.1981,141.0,97.9,0.485
41.82,32117.2,35136.3,1.1905,1.191,141.0,97.9,0.485
41.84,32031.3,35028.7,1.185,1.1848,141.0,97.9,0.485
41.86,32017.8,35060.3,1.1842,1.1866,141.0,97.9,0.485
41.88,32011.1,34903.8,1.1838,1.1776,141.0,97.9,0.485
41.9,31891.1,34916.9,1.1762,1.1783,141.0,97.9,0.485
41.92,31973.3,34723.4,1.1814,1.1671,141.0,97.9,0.485
41.94,31914.1,34667.8,1.1776,1.1639,141.0,97.9,0.485
41.96,31841.6,34674.7,1.173,1.1643,141.0,97.9,0.485
41.98,31802.1,34600.6,1.1705,1.16,141.0,97.9,0.485
42.0,31833.4,34640.5,1.1725,1.1623,141.0,97.9,0.485
42.02,31807.2,34512.2,1.1708,1.1549,141.0,97.9,0.485
42.04,31766.8,34351.9,1.1683,1.1456,141.0,97.9,0.485
42.06,31811.7,34449.3,1.1711,1.1512,141.0,97.9,0.485
42.08,31845.5,34605.6,1.1733,1.1603,141.0,97.9,0.485
42.1,31894.7,34916.8,1.1764,1.1783,141.0,97.9,0.485
42.12,32036.5,35297.1,1.1854,1.2003,141.0,97.9,0.485
42.14,32278.2,35545.4,1.2007,1.2147,141.0,97.9,0.485
42.16,32256.3,35793.5,1.1993,1.2291,141.0,97.9,0.485
42.18,32374.6,35758.5,1.2068,1.2271,141.0,97.9,0.485
42.2,32255.9,35548.2,1.1993,1.2149,141.0,97.9,0.485
42.22,32170.1,35380.8,1.1939,1.2052,141.0,97.9,0.485
42.24,32204.5,35274.0,1.196,1.199,141.0,97.9,0.485
42.26,32053.9,35099.0,1.1865,1.1889,141.0,97.9,0.485
42.28,32054.9,35099.4,1.1865,1.1889,141.0,97.9,0.485
42.3,32028.2,34978.5,1.1849,1.1819,141.0,97.9,0.485
42.32,32073.1,34931.2,1.1877,1.1791,141.0,97.9,0.485
42.34,31961.9,34899.9,1.1807,1.1773,141.0,97.9,0.485
42.36,31889.8,34648.3,1.1761,1.1627,141.0,97.9,0.485
42.38,31911.0,34616.6,1.1774,1.1609,141.0,97.9,0.485
42.4,31839.7,34645.5,1.1729,1.1626,141.0,97.9,0.485
42.42,31890.1,34543.9,1.1761,1.1567,141.0,97.9,0.485
42.44,31789.5,34644.5,1.1697,1.1625,141.0,97.9,0.485
42.46,31823.0,34467.6,1.1718,1.1523,141.0,97.9,0.485
42.48,31740.0,34353.2,1.1666,1.1456,141.0,97.9,0.485
42.5,31836.3,34601.6,1.1727,1.16,141.0,97.9,0.485
42.52,31990.9,34809.5,1.1825,1.1721,141.0,97.9,0.485
42.54,32103.4,35124.4,1.1896,1.1903,141.0,97.9,0.485
42.56,32255.3,35514.6,1.1992,1.2129,141.0,97.9,0.485
42.58,32339.2,35727.8,1.2046,1.2253,141.0,97.9,0.485
42.6,32433.6,35691.9,1.2105,1.2232,141.0,97.9,0.485
42.62,32234.4,35596.3,1.1979,1.2177,141.0,97.9,0.485
42.64,32070.0,35364.4,1.1875,1.2042,141.0,97.9,0.485
42.66,32090.8,35263.1,1.1888,1.1984,141.0,97.9,0.485
42.68,32016.3,35166.9,1.1841,1.1928,141.0,97.9,0.485
42.7,31934.8,35061.7,1.1789,1.1867,141.0,97.9,0.485
42.72,32064.6,35067.4,1.1872,1.187,141.0,97.9,0.485
42.74,31933.4,34945.0,1.1788,1.1799,141.0,97.9,0.485
42.76,31921.6,34740.3,1.1781,1.1681,141.0,97.9,0.485
42.78,31891.9,34639.5,1.1762,1.1622,141.0,97.9,0.485
42.8,31830.5,34561.5,1.1723,1.1577,141.0,97.9,0.485
42.82,31856.1,34585.2,1.1739,1.1591,141.0,97.9,0.485
42.84,31809.1,34526.6,1.171,1.1557,141.0,97.9,0.485
42.86,31853.2,34540.8,1.1738,1.1565,141.0,97.9,0.485
42.88,31778.3,34575.6,1.169,1.1585,141.0,97.9,0.485
42.9,31733.2,34553.3,1.1662,1.1572,141.0,97.9,0.485
42.92,31865.2,34511.3,1.1745,1.1548,141.0,97.9,0.485
42.94,31849.8,34708.5,1.1735,1.1662,141.0,97.9,0.485
42.96,32006.7,35058.2,1.1835,1.1865,141.0,97.9,0.485
42.98,32157.9,35366.3,1.1931,1.2044,141.0,97.9,0.485
43.0,32282.8,35794.1,1.201,1.2291,141.0,97.9,0.485
43.02,32379.0,35710.5,1.2071,1.2243,141.0,97.9,0.485
43.04,32318.4,35586.9,1.2032,1.2171,141.0,97.9,0.485
43.06,32259.7,35406.7,1.1995,1.2067,141.0,97.9,0.485
43.08,32177.2,35204.7,1.1943,1.195,141.0,97.9,0.485
43.1,32038.2,35222.6,1.1855,1.196,141.0,97.9,0.485
43.12,32015.0,35116.3,1.184,1.1899,141.0,97.9,0.485
43.14,32161.4,35057.3,1.1933,1.1864,141.0,97.9,0.485
43.16,31947.6,35043.1,1.1797,1.1856,141.0,97.9,0.485
43.18,31949.4,34913.4,1.1799,1.1781,141.0,97.9,0.485
43.2,31935.4,34788.3,1.179,1.1709,141.0,97.9,0.485
43.22,31834.7,34704.4,1.1726,1.166,141.0,97.9,0.485
43.24,31786.2,34682.8,1.1695,1.1647,141.0,97.9,0.485
43.26,31891.9,34646.8,1.1762,1.1627,141.0,97.9,0.485
43.28,31837.8,34624.6,1.1728,1.1614,141.0,97.9,0.485
43.3,31827.4,34499.0,1.1721,1.1541,141.0,97.9,0.485
43.32,31704.5,34427.1,1.1643,1.1499,141.0,97.9,0.485
43.34,31831.2,34529.9,1.1724,1.1559,141.0,97.9,0.485
43.36,31864.4,34685.1,1.1745,1.1649,141.0,97.9,0.485
43.38,31930.4,35054.8,1.1787,1.1863,141.0,97.9,0.485
43.4,32160.5,35315.9,1.1932,1.2014,141.0,97.9,0.485
43.42,32252.8,35702.4,1.1991,1.2238,141.0,97.9,0.485
43.44,32373.9,35781.9,1.2068,1.2284,141.0,97.9,0.485
43.46,32233.8,35689.2,1.1979,1.2231,141.0,97.9,0.485
43.48,32244.5,35529.5,1.1986,1.2138,141.0,97.9,0.485
43.5,32138.7,35349.1,1.1919,1.2034,141.0,97.9,0.485
43.52,32123.6,35193.3,1.1909,1.1943,141.0,97.9,0.485
43.54,32069.4,35073.6,1.1875,1.1874,141.0,97.9,0.485
43.56,32042.7,35029.3,1.1858,1.1848,141.0,97.9,0.485
43.58,32054.5,35028.7,1.1865,1.1848,141.0,97.9,0.485
43.6,31952.2,34849.5,1.18,1.1744,141.0,97.9,0.485
43.62,31901.4,34752.8,1.1768,1.1688,141.0,97.9,0.485
43.64,31800.7,34701.9,1.1704,1.1659,141.0,97.9,0.485
43.66,31918.1,34575.2,1.1779,1.1585,141.0,97.9,0.485
43.68,31876.0,34553.1,1.1752,1.1572,141.0,97.9,0.485
43.7,31851.8,34509.0,1.1737,1.1547,141.0,97.9,0.485
43.72,31776.1,34577.6,1.1689,1.1586,141.0,97.9,0.485
43.74,31730.1,34443.0,1.166,1.1508,141.0,97.9,0.485
43.76,31823.8,34487.0,1.1719,1.1534,141.0,97.9,0.485
43.78,31836.4,34593.6,1.1727,1.1596,141.0,97.9,0.485
43.8,31977.5,34917.5,1.1816,1.1783,141.0,97.9,0.485
43.82,32083.2,35302.8,1.1883,1.2007,141.0,97.9,0.485
43.84,32237.3,35456.2,1.1981,1.2096,141.0,97.9,0.485
43.86,32323.8,35759.0,1.2036,1.2271,141.0,97.9,0.485
43.88,32389.8,35781.1,1.2078,1.2284,141.0,97.9,0.485
43.9,32266.0,35530.8,1.1999,1.2139,141.0,97.9,0.485
43.92,32118.3,35281.5,1.1906,1.1994,141.0,97.9,0.485
43.94,32168.8,35199.9,1.1938,1.1947,141.0,97.9,0.485
43.96,31932.2,35175.3,1.1788,1.1933,141.0,97.9,0.485
43.98,31991.7,35044.8,1.1825,1.1857,141.0,97.9,0.485
44.0,31992.4,34969.8,1.1826,1.1814,141.0,97.9,0.485
44.02,32046.8,34955.1,1.186,1.1805,141.0,97.9,0.485
44.04,31932.1,34849.1,1.1788,1.1744,141.0,97.9,0.485
44.06,31814.0,34749.0,1.1713,1.1686,141.0,97.9,0.485
44.08,31942.1,34711.0,1.1794,1.1664,141.0,97.9,0.485
44.1,31783.5,34722.3,1.1693,1.167,141.0,97.9,0.485
44.12,31846.9,34617.2,1.1734,1.1609,141.0,97.9,0.485
44.14,31851.6,34539.2,1.1737,1.1564,141.0,97.9,0.485
44.16,31737.3,34493.9,1.1664,1.1538,141.0,97.9,0.485
44.18,31750.6,34486.2,1.1673,1.1533,141.0,97.9,0.485
44.2,31806.3,34480.0,1.1708,1.153,141.0,97.9,0.485
44.22,31945.7,34793.3,1.1796,1.1711,141.0,97.9,0.485
44.24,32155.7,35197.7,1.1929,1.1946,141.0,97.9,0.485
44.26,32304.6,35523.3,1.2024,1.2134,141.0,97.9,0.485
44.28,32360.6,35667.0,1.2059,1.2218,141.0,97.9,0.485
44.3,32348.6,35770.5,1.2052,1.2278,141.0,97.9,0.485
44.32,32391.0,35593.5,1.2078,1.2175,141.0,97.9,0.485
44.34,32184.9,35379.7,1.1948,1.2051,141.0,97.9,0.485
44.36,32204.2,35317.1,1.196,1.2015,141.0,97.9,0.485
44.38,32156.5,35276.8,1.193,1.1992,141.0,97.9,0.485
44.4,31987.9,35195.6,1.1823,1.1945,141.0,97.9,0.485
44.42,32085.6,34891.4,1.1885,1.1768,141.0,97.9,0.485
44.44,32084.2,34956.0,1.1884,1.1806,141.0,97.9,0.485
44.46,31934.7,34771.2,1.1789,1.1699,141.0,97.9,0.485
44.48,31853.9,34661.8,1.1738,1.1635,141.0,97.9,0.485
44.5,31969.7,34757.6,1.1811,1.1691,141.0,97.9,0.485
44.52,31880.6,34618.0,1.1755,1.161,141.0,97.9,0.485
44.54,31889.8,34674.0,1.1761,1.1642,141.0,97.9,0.485
44.56,31690.7,34605.0,1.1635,1.1602,141.0,97.9,0.485
44.58,31737.7,34502.8,1.1664,1.1543,141.0,97.9,0.485
44.6,31745.5,34388.0,1.1669,1.1477,141.0,97.9,0.485
44.62,31800.1,34614.5,1.1704,1.1608,141.0,97.9,0.485
44.64,31887.1,34686.8,1.1759,1.165,141.0,97.9,0.485
44.66,32068.0,35035.1,1.1874,1.1852,141.0,97.9,0.485
44.68,32222.9,35472.0,1.1972,1.2105,141.0,97.9,0.485
44.7,32316.6,35779.1,1.2031,1.2283,141.0,97.9,0.485
44.72,32264.2,35748.9,1.1998,1.2265,141.0,97.9,0.485
44.74,32306.6,35601.9,1.2025,1.218,141.0,97.9,0.485
44.76,32277.8,35499.6,1.2007,1.2121,141.0,97.9,0.485
44.78,32096.2,35309.3,1.1892,1.201,141.0,97.9,0.485
44.8,32083.6,35202.9,1.1884,1.1949,141.0,97.9,0.485
44.82,31997.1,35071.2,1.1829,1.1873,141.0,97.9,0.485
44.84,32095.7,34974.5,1.1891,1.1816,141.0,97.9,0.485
44.86,32063.4,34929.9,1.1871,1.1791,141.0,97.9,0.485
44.88,31960.0,34887.7,1.1805,1.1766,141.0,97.9,0.485
44.9,31891.2,34707.4,1.1762,1.1662,141.0,97.9,0.485
44.92,31869.5,34676.5,1.1748,1.1644,141.0,97.9,0.485
44.94,31888.7,34650.9,1.176,1.1629,141.0,97.9,0.485
44.96,31805.0,34680.9,1.1707,1.1646,141.0,97.9,0.485
44.98,31879.0,34605.5,1.1754,1.1603,141.0,97.9,0.485
45.0,31749.2,34503.7,1.1672,1.1544,141.0,97.9,0.485
45.02,31754.3,34380.1,1.1675,1.1472,141.0,97.9,0.485
45.04,31761.4,34558.5,1.1679,1.1575,141.0,97.9,0.485
45.06,31826.9,34584.6,1.1721,1.1591,141.0,97.9,0.485
45.08,31961.3,35013.5,1.1806,1.1839,141.0,97.9,0.485
45.1,32122.2,35413.1,1.1908,1.2071,141.0,97.9,0.485
45.12,32288.8,35580.1,1.2014,1.2167,141.0,97.9,0.485
45.14,32343.4,35839.5,1.2048,1.2318,141.0,97.9,0.485
45.16,32347.1,35711.5,1.2051,1.2244,141.0,97.9,0.485
45.18,32333.8,35535.4,1.2042,1.2142,141.0,97.9,0.485
45.2,32109.3,35331.6,1.19,1.2023,141.0,97.9,0.485
45.22,32131.5,35126.8,1.1914,1.1905,141.0,97.9,0.485
45.24,32025.3,35203.3,1.1847,1.1949,141.0,97.9,0.485
45.26,32029.7,35061.2,1.1849,1.1867,141.0,97.9,0.485
45.28,31931.6,35044.5,1.1787,1.1857,141.0,97.9,0.485
45.3,31872.8,34972.3,1.175,1.1815,141.0,97.9,0.485
45.32,31950.1,34795.1,1.1799,1.1713,141.0,97.9,0.485
45.34,31872.7,34627.8,1.175,1.1616,141.0,97.9,0.485
45.36,31873.0,34668.8,1.175,1.1639,141.0,97.9,0.485
45.38,31900.8,34660.9,1.1768,1.1635,141.0,97.9,0.485
45.4,31890.8,34648.0,1.1761,1.1627,141.0,97.9,0.485
45.42,31930.5,34512.7,1.1787,1.1549,141.0,97.9,0.485
45.44,31820.2,34573.6,1.1717,1.1584,141.0,97.9,0.485
45.46,31790.5,34466.9,1.1698,1.1522,141.0,97.9,0.485
45.48,31763.2,34539.9,1.1681,1.1565,141.0,97.9,0.485
45.5,31860.2,34914.6,1.1742,1.1782,141.0,97.9,0.485
45.52,32120.2,35252.3,1.1907,1.1977,141.0,97.9,0.485
45.54,32232.0,35559.2,1.1978,1.2155,141.0,97.9,0.485
45.56,32352.6,35712.9,1.2054,1.2244,141.0,97.9,0.485
45.58,32296.9,35766.7,1.2019,1.2276,141.0,97.9,0.485
45.6,32299.5,35502.1,1.2021,1.2122,141.0,97.9,0.485
45.62,32236.1,35278.7,1.198,1.1993,141.0,97.9,0.485
45.64,32162.9,35155.2,1.1934,1.1921,141.0,97.9,0.485
45.66,32065.8,35181.0,1.1872,1.1936,141.0,97.9,0.485
45.68,31983.5,35084.2,1.182,1.188,141.0,97.9,0.485
45.7,32060.7,35003.0,1.1869,1.1833,141.0,97.9,0.485
45.72,31953.1,34913.5,1.1801,1.1781,141.0,97.9,0.485
45.74,31813.2,34766.7,1.1712,1.1696,141.0,97.9,0.485
45.76,31820.7,34780.8,1.1717,1.1704,141.0,97.9,0.485
