timestamp,raw_red,raw_ir,filtered_red,filtered_ir,heart_rate,spo2,ac_dc_ratio
0.0,31975.4,35041.7,-0.4212,0.5021,144.7,97.0,0.519
0.02,32030.5,35137.4,0.5173,1.6571,144.7,97.0,0.519
0.04,32048.0,35174.3,0.8145,2.1026,144.7,97.0,0.519
0.06,32107.3,35028.5,1.8252,0.3425,144.7,97.0,0.519
0.08,32045.9,35200.0,0.7789,2.413,144.7,97.0,0.519
0.1,31983.0,34937.7,-0.2929,-0.7541,144.7,97.0,0.519
0.12,32028.0,35018.9,0.474,0.2267,144.7,97.0,0.519
0.14,31905.9,35023.3,-1.6057,0.28,144.7,97.0,0.519
0.16,32059.6,35035.2,1.0125,0.4233,144.7,97.0,0.519
0.18,32101.5,34963.5,1.7271,-0.4421,144.7,97.0,0.519
0.2,31971.3,34960.4,-0.491,-0.4805,144.7,97.0,0.519
0.22,32013.6,35023.9,0.2282,0.2869,144.7,97.0,0.519
0.24,31954.1,34943.9,-0.784,-0.6794,144.7,97.0,0.519
0.26,31930.2,35003.0,-1.1924,0.0339,144.7,97.0,0.519
0.28,31911.3,34936.2,-1.5141,-0.772,144.7,97.0,0.519
0.3,31953.7,35018.7,-0.7914,0.2237,144.7,97.0,0.519
0.32,32025.1,34912.3,0.4245,-1.0607,144.7,97.0,0.519
0.34,32012.3,34870.7,0.2062,-1.5626,144.7,97.0,0.519
0.36,32001.1,34977.2,0.0168,-0.2777,144.7,97.0,0.519
0.38,32018.2,34946.4,0.3082,-0.649,144.7,97.0,0.519
0.4,31918.5,34911.0,-1.3914,-1.0763,144.7,97.0,0.519
0.42,32002.8,35034.9,0.0442,0.419,144.7,97.0,0.519
0.44,31993.8,35116.2,-0.1078,1.4012,144.7,97.0,0.519
0.46,32024.6,35069.2,0.4165,0.834,144.7,97.0,0.519
0.48,32116.4,35152.9,1.9802,1.8442,144.7,97.0,0.519
0.5,32038.3,35078.9,0.6493,0.9505,144.7,97.0,0.519
0.52,32061.0,35114.1,1.036,1.3755,144.7,97.0,0.519
0.54,32061.9,35050.1,1.0513,0.6034,144.7,97.0,0.519
0.56,32008.8,35052.5,0.1476,0.6325,144.7,97.0,0.519
0.58,31992.8,35012.4,-0.1258,0.1479,144.7,97.0,0.519
0.6,32031.4,34947.1,0.5326,-0.6409,144.7,97.0,0.519
0.62,31987.5,35014.0,-0.2156,0.1674,144.7,97.0,0.519
0.64,31972.6,34938.9,-0.4696,-0.739,144.7,97.0,0.519
0.66,31897.1,34878.7,-1.7563,-1.4659,144.7,97.0,0.519
0.68,31926.9,35021.1,-1.2484,0.2534,144.7,97.0,0.519
0.7,31922.9,35063.7,-1.3171,0.7676,144.7,97.0,0.519
0.72,31991.2,34993.3,-0.1527,-0.0831,144.7,97.0,0.519
0.74,31919.0,34831.8,-1.3835,-2.0324,144.7,97.0,0.519
0.76,31910.3,34794.0,-1.532,-2.4888,144.7,97.0,0.519
0.78,31933.9,34849.7,-1.1297,-1.8159,144.7,97.0,0.519
0.8,31888.6,34951.9,-1.9018,-0.5822,144.7,97.0,0.519
0.82,31902.9,34990.9,-1.6579,-0.1123,144.7,97.0,0.519
0.84,32027.2,35081.5,0.46,0.9817,144.7,97.0,0.519
0.86,32023.0,35096.1,0.3895,1.1578,144.7,97.0,0.519
0.88,32012.9,35178.4,0.2164,2.152,144.7,97.0,0.519
0.9,32018.4,35168.1,0.3104,2.0279,144.7,97.0,0.519
0.92,32023.2,35150.7,0.3925,1.817,144.7,97.0,0.519
0.94,31955.2,35043.5,-0.7666,0.5234,144.7,97.0,0.519
0.96,31998.3,35040.2,-0.0314,0.483,144.7,97.0,0.519
0.98,32083.9,35042.8,1.4262,0.5148,144.7,97.0,0.519
1.0,31931.1,35032.5,-1.1772,0.39,144.7,97.0,0.519
1.02,32053.6,35051.6,0.9109,0.6217,144.7,97.0,0.519
1.04,32019.7,34988.3,0.3321,-0.1426,144.7,97.0,0.519
1.06,31990.2,35023.1,-0.1696,0.2773,144.7,97.0,0.519
1.08,31872.8,34924.0,-2.1706,-0.9199,144.7,97.0,0.519
1.1,31931.8,35021.1,-1.1643,0.2528,144.7,97.0,0.519
1.12,31979.2,34928.4,-0.3569,-0.8659,144.7,97.0,0.519
1.14,31953.1,34951.2,-0.8027,-0.5904,144.7,97.0,0.519
1.16,31965.6,34893.1,-0.5884,-1.2927,144.7,97.0,0.519
1.18,31928.2,34853.7,-1.2268,-1.7685,144.7,97.0,0.519
1.2,31984.3,34804.4,-0.27,-2.364,144.7,97.0,0.519
1.22,31925.0,34998.9,-1.2808,-0.0151,144.7,97.0,0.519
1.24,32086.3,35042.8,1.4685,0.5152,144.7,97.0,0.519
1.26,32014.6,35071.4,0.2459,0.8599,144.7,97.0,0.519
1.28,32148.5,34998.4,2.5275,-0.0214,144.7,97.0,0.519
1.3,32073.8,35080.0,1.255,0.9644,144.7,97.0,0.519
1.32,32066.5,35090.3,1.1302,1.0878,144.7,97.0,0.519
1.34,32038.3,35169.2,0.6494,2.041,144.7,97.0,0.519
1.36,32012.2,35024.0,0.2047,0.2877,144.7,97.0,0.519
1.38,31998.8,34975.7,-0.0228,-0.2951,144.7,97.0,0.519
1.4,32001.4,34997.6,0.0217,-0.0311,144.7,97.0,0.519
1.42,32017.9,34983.7,0.3025,-0.1991,144.7,97.0,0.519
1.44,32017.0,34968.3,0.2865,-0.3847,144.7,97.0,0.519
1.46,31985.2,35001.9,-0.2547,0.0216,144.7,97.0,0.519
1.48,31957.1,34921.5,-0.734,-0.9491,144.7,97.0,0.519
1.5,31942.6,34970.1,-0.9805,-0.3624,144.7,97.0,0.519
1.52,31963.4,34989.9,-0.6271,-0.1234,144.7,97.0,0.519
1.54,31941.7,34992.2,-0.9963,-0.0966,144.7,97.0,0.519
1.56,31947.3,34890.2,-0.9005,-1.3274,144.7,97.0,0.519
1.58,32011.2,34897.0,0.1879,-1.2456,144.7,97.0,0.519
1.6,32024.4,34912.1,0.4129,-1.0637,144.7,97.0,0.519
1.62,31960.9,34866.7,-0.6682,-1.6115,144.7,97.0,0.519
1.64,31996.6,34969.4,-0.06,-0.3707,144.7,97.0,0.519
1.66,32105.4,35067.8,1.7929,0.8163,144.7,97.0,0.519
1.68,31987.8,35058.8,-0.2105,0.7079,144.7,97.0,0.519
1.7,32086.1,35120.3,1.4651,1.4508,144.7,97.0,0.519
1.72,32130.0,35076.4,2.2118,0.9211,144.7,97.0,0.519
1.74,32116.4,35156.4,1.9807,1.886,144.7,97.0,0.519
1.76,32041.6,35072.4,0.7056,0.8718,144.7,97.0,0.519
1.78,32047.6,35044.4,0.8091,0.5344,144.7,97.0,0.519
1.8,32008.3,34951.6,0.1393,-0.5867,144.7,97.0,0.519
1.82,32018.1,35069.4,0.3057,0.8364,144.7,97.0,0.519
1.84,32069.6,34999.9,1.1829,-0.0031,144.7,97.0,0.519
1.86,32063.8,35009.5,1.0846,0.1124,144.7,97.0,0.519
1.88,31983.8,35072.9,-0.2795,0.8785,144.7,97.0,0.519
1.9,31954.3,34962.2,-0.7816,-0.4581,144.7,97.0,0.519
1.92,32008.7,34968.7,0.1459,-0.38,144.7,97.0,0.519
1.94,32106.4,34994.3,1.8105,-0.0706,144.7,97.0,0.519
1.96,31942.8,35025.1,-0.9769,0.3017,144.7,97.0,0.519
1.98,31963.0,34944.1,-0.633,-0.6765,144.7,97.0,0.519
2.0,31975.7,34851.3,-0.4161,-1.7972,144.7,97.0,0.519
2.02,31940.5,34942.5,-1.0161,-0.6957,144.7,97.0,0.519
2.04,32066.2,34996.6,1.1256,-0.0429,144.7,97.0,0.519
2.06,31989.9,34955.4,-0.1744,-0.5397,144.7,97.0,0.519
2.08,32043.6,35067.4,0.7397,0.8117,144.7,97.0,0.519
2.1,31993.8,35117.3,-0.1085,1.4144,144.7,97.0,0.519
2.12,31994.7,35134.7,-0.0922,1.6243,144.7,97.0,0.519
2.14,31987.7,35102.0,-0.2128,1.2299,144.7,97.0,0.519
2.16,32082.2,35088.7,1.3986,1.0694,144.7,97.0,0.519
2.18,32122.9,35010.3,2.0912,0.1219,144.7,97.0,0.519
2.2,32007.5,34984.1,0.1255,-0.1939,144.7,97.0,0.519
2.22,32032.6,34988.8,0.5534,-0.1368,144.7,97.0,0.519
2.24,31974.0,35010.4,-0.4458,0.1237,144.7,97.0,0.519
2.26,31987.3,35050.2,-0.2198,0.6042,144.7,97.0,0.519
2.28,32100.9,34951.1,1.7159,-0.5921,144.7,97.0,0.519
2.3,32031.0,35029.6,0.5249,0.3558,144.7,97.0,0.519
2.32,32008.7,34996.0,0.1461,-0.0504,144.7,97.0,0.519
2.34,31991.5,34927.7,-0.1468,-0.8748,144.7,97.0,0.519
2.36,32036.3,35033.8,0.6164,0.4058,144.7,97.0,0.519
2.38,31955.1,34911.8,-0.7684,-1.0668,144.7,97.0,0.519
2.4,32006.8,34924.6,0.1129,-0.9128,144.7,97.0,0.519
2.42,31971.4,34924.6,-0.4907,-0.9117,144.7,97.0,0.519
2.44,31889.4,34870.0,-1.8881,-1.5712,144.7,97.0,0.519
2.46,31905.6,34927.7,-1.6121,-0.8743,144.7,97.0,0.519
2.48,31973.9,34993.2,-0.4474,-0.0836,144.7,97.0,0.519
2.5,31914.5,35074.4,-1.4593,0.8958,144.7,97.0,0.519
2.52,32084.8,35192.6,1.442,2.3232,144.7,97.0,0.519
2.54,32046.5,35055.9,0.7894,0.6729,144.7,97.0,0.519
2.56,32005.5,35094.4,0.0909,1.1384,144.7,97.0,0.519
2.58,31973.8,35014.3,-0.449,0.1705,144.7,97.0,0.519
2.6,31930.1,35065.0,-1.1946,0.7832,144.7,97.0,0.519
2.62,32058.1,34995.8,0.9877,-0.0528,144.7,97.0,0.519
2.64,32074.6,34976.0,1.2678,-0.2922,144.7,97.0,0.519
2.66,31998.6,35115.8,-0.0263,1.3956,144.7,97.0,0.519
2.68,31939.4,34970.7,-1.036,-0.3555,144.7,97.0,0.519
2.7,31921.5,35012.7,-1.3398,0.1517,144.7,97.0,0.519
2.72,31963.4,34934.3,-0.6258,-0.795,144.7,97.0,0.519
2.74,31960.4,34898.3,-0.6771,-1.2292,144.7,97.0,0.519
2.76,31881.4,34962.6,-2.0235,-0.4537,144.7,97.0,0.519
2.78,31992.2,34887.2,-0.1363,-1.3635,144.7,97.0,0.519
2.8,32044.1,34899.8,0.7496,-1.2111,144.7,97.0,0.519
2.82,31967.2,34888.2,-0.562,-1.3514,144.7,97.0,0.519
2.84,31944.1,34931.6,-0.9551,-0.8277,144.7,97.0,0.519
2.86,32029.2,34856.4,0.4948,-1.7352,144.7,97.0,0.519
2.88,31969.8,35045.7,-0.5165,0.5503,144.7,97.0,0.519
2.9,32016.0,35010.2,0.2697,0.1212,144.7,97.0,0.519
2.92,32015.1,35048.7,0.2538,0.5857,144.7,97.0,0.519
2.94,31934.7,35148.1,-1.1162,1.7859,144.7,97.0,0.519
2.96,31990.6,35066.0,-0.163,0.7944,144.7,97.0,0.519
2.98,31982.7,35088.5,-0.2977,1.0668,144.7,97.0,0.519
3.0,32087.5,35101.8,1.4892,1.2275,144.7,97.0,0.519
3.02,32040.4,35022.5,0.6864,0.2697,144.7,97.0,0.519
3.04,31904.9,35006.4,-1.6229,0.075,144.7,97.0,0.519
3.06,32068.8,35044.5,1.17,0.535,144.7,97.0,0.519
3.08,31953.9,35017.8,-0.7885,0.2126,144.7,97.0,0.519
3.1,31925.9,34973.5,-1.2659,-0.3223,144.7,97.0,0.519
3.12,32011.5,34837.1,0.1931,-1.9691,144.7,97.0,0.519
3.14,31872.3,34964.5,-2.1792,-0.4303,144.7,97.0,0.519
3.16,31972.5,35022.5,-0.4708,0.2692,144.7,97.0,0.519
3.18,32021.2,34861.2,0.3589,-1.6781,144.7,97.0,0.519
3.2,32062.5,35023.2,1.062,0.2777,144.7,97.0,0.519
3.22,31914.1,34854.9,-1.4659,-1.7533,144.7,97.0,0.519
3.24,31916.3,34913.2,-1.4284,-1.0502,144.7,97.0,0.519
3.26,31934.7,34882.2,-1.1155,-1.4236,144.7,97.0,0.519
3.28,31937.1,34920.3,-1.0745,-0.964,144.7,97.0,0.519
3.3,32145.3,34901.7,2.4724,-1.1888,144.7,97.0,0.519
3.32,32038.4,35037.2,0.6521,0.4473,144.7,97.0,0.519
3.34,31995.2,35122.3,-0.0843,1.4745,144.7,97.0,0.519
3.36,31969.3,35016.5,-0.5264,0.1979,144.7,97.0,0.519
3.38,32067.9,35220.6,1.154,2.6618,144.7,97.0,0.519
3.4,32065.5,35117.9,1.1134,1.4221,144.7,97.0,0.519
3.42,32143.4,35041.8,2.4403,0.5029,144.7,97.0,0.519
3.44,31964.6,35017.6,-0.6051,0.2112,144.7,97.0,0.519
3.46,32090.5,34965.7,1.5392,-0.416,144.7,97.0,0.519
3.48,32037.2,34938.6,0.6304,-0.7427,144.7,97.0,0.519
3.5,31934.5,35086.2,-1.1192,1.0383,144.7,97.0,0.519
3.52,31937.4,34976.2,-1.0693,-0.2895,144.7,97.0,0.519
3.54,31933.7,34995.1,-1.1322,-0.061,144.7,97.0,0.519
3.56,31942.8,35019.3,-0.9772,0.2308,144.7,97.0,0.519
3.58,31877.1,35003.9,-2.0977,0.0454,144.7,97.0,0.519
3.6,31971.5,34916.0,-0.4882,-1.0163,144.7,97.0,0.519
3.62,32063.0,34912.2,1.0704,-1.0617,144.7,97.0,0.519
3.64,32000.7,35010.8,0.009,0.1282,144.7,97.0,0.519
3.66,31942.0,34937.9,-0.9908,-0.7519,144.7,97.0,0.519
3.68,31971.4,34836.5,-0.4897,-1.9761,144.7,97.0,0.519
3.7,31957.8,34979.1,-0.7211,-0.2543,144.7,97.0,0.519
3.72,32036.3,35030.5,0.6166,0.3659,144.7,97.0,0.519
3.74,32081.4,35064.6,1.384,0.7787,144.7,97.0,0.519
3.76,31995.9,35141.2,-0.0724,1.7023,144.7,97.0,0.519
3.78,32033.5,35139.5,0.5686,1.6827,144.7,97.0,0.519
3.8,32043.1,35073.3,0.7314,0.8832,144.7,97.0,0.519
3.82,31901.5,35143.8,-1.6816,1.7341,144.7,97.0,0.519
3.84,32008.6,35122.8,0.144,1.4804,144.7,97.0,0.519
3.86,32074.2,34974.3,1.2611,-0.312,144.7,97.0,0.519
3.88,32036.1,34927.1,0.6126,-0.8819,144.7,97.0,0.519
3.9,31984.2,35001.8,-0.2715,0.0194,144.7,97.0,0.519
3.92,31981.7,35017.9,-0.3153,0.2143,144.7,97.0,0.519
3.94,32056.1,34957.3,0.9524,-0.5178,144.7,97.0,0.519
3.96,31984.6,34940.1,-0.2645,-0.725,144.7,97.0,0.519
3.98,31997.2,34910.4,-0.0502,-1.0833,144.7,97.0,0.519
4.0,31952.4,34934.6,-0.8146,-0.792,144.7,97.0,0.519
4.02,32042.0,34933.5,0.7128,-0.8049,144.7,97.0,0.519
4.04,31977.5,35042.9,-0.3855,0.5166,144.7,97.0,0.519
4.06,31991.2,34875.5,-0.1522,-1.5045,144.7,97.0,0.519
4.08,31968.8,34826.5,-0.534,-2.0961,144.7,97.0,0.519
4.1,31964.5,34976.3,-0.6072,-0.2876,144.7,97.0,0.519
4.12,31896.8,34927.6,-1.7604,-0.876,144.7,97.0,0.519
4.14,32019.6,34899.7,0.3319,-1.2124,144.7,97.0,0.519
4.16,31977.6,35031.7,-0.3844,0.3809,144.7,97.0,0.519
4.18,32108.4,35154.6,1.8441,1.8643,144.7,97.0,0.519
4.2,32005.3,35108.9,0.0878,1.3126,144.7,97.0,0.519
4.22,32002.7,35115.9,0.0432,1.397,144.7,97.0,0.519
4.24,32011.4,35030.7,0.1908,0.3683,144.7,97.0,0.519
4.26,32030.0,34980.6,0.5081,-0.2366,144.7,97.0,0.519
4.28,32016.3,34978.1,0.2748,-0.2666,144.7,97.0,0.519
4.3,32095.9,35017.8,1.631,0.2133,144.7,97.0,0.519
4.32,31960.6,35091.6,-0.6745,1.1036,144.7,97.0,0.519
4.34,31942.6,34952.9,-0.9816,-0.5711,144.7,97.0,0.519
4.36,32000.9,34992.7,0.0126,-0.0896,144.7,97.0,0.519
4.38,31993.6,35010.8,-0.1114,0.1281,144.7,97.0,0.519
4.4,32011.5,34964.9,0.1926,-0.4251,144.7,97.0,0.519
4.42,31985.5,34989.0,-0.2493,-0.1348,144.7,97.0,0.519
4.44,31937.4,34998.3,-1.0687,-0.0221,144.7,97.0,0.519
4.46,31869.9,35025.6,-2.2202,0.3076,144.7,97.0,0.519
4.48,31937.8,34934.3,-1.0619,-0.7956,144.7,97.0,0.519
4.5,31910.1,34905.0,-1.5354,-1.1483,144.7,97.0,0.519
4.52,31876.3,34983.2,-2.1107,-0.2042,144.7,97.0,0.519
4.54,31970.4,35001.4,-0.5067,0.0151,144.7,97.0,0.519
4.56,32027.4,35076.3,0.4639,0.9189,144.7,97.0,0.519
4.58,32073.9,35155.5,1.2559,1.8756,144.7,97.0,0.519
4.6,32020.2,35139.1,0.3413,1.6771,144.7,97.0,0.519
4.62,32115.0,35135.6,1.9564,1.635,144.7,97.0,0.519
4.64,31952.6,35052.3,-0.811,0.6297,144.7,97.0,0.519
4.66,32079.1,35039.5,1.3448,0.4747,144.7,97.0,0.519
4.68,32049.0,35023.6,0.8315,0.2832,144.7,97.0,0.519
4.7,31918.0,35151.8,-1.4004,1.8313,144.7,97.0,0.519
4.72,31990.0,35023.0,-0.1728,0.2754,144.7,97.0,0.519
4.74,31970.7,34950.8,-0.5022,-0.5963,144.7,97.0,0.519
4.76,32000.0,34898.2,-0.0019,-1.2313,144.7,97.0,0.519
4.78,31881.6,35061.9,-2.0201,0.7453,144.7,97.0,0.519
4.8,31920.6,35031.1,-1.3562,0.3734,144.7,97.0,0.519
4.82,32053.0,35041.6,0.901,0.5005,144.7,97.0,0.519
4.84,31963.2,34908.9,-0.6299,-1.1017,144.7,97.0,0.519
4.86,31952.1,34885.2,-0.8195,-1.3882,144.7,97.0,0.519
4.88,31930.5,34900.6,-1.1878,-1.2023,144.7,97.0,0.519
4.9,31948.3,34926.8,-0.8834,-0.8859,144.7,97.0,0.519
4.92,31962.9,35055.4,-0.6344,0.6666,144.7,97.0,0.519
4.94,31982.5,34893.8,-0.3015,-1.2844,144.7,97.0,0.519
4.96,31961.7,34945.0,-0.655,-0.666,144.7,97.0,0.519
4.98,32004.0,35111.5,0.0662,1.3441,144.7,97.0,0.519
5.0,32114.1,35079.3,1.9411,0.9559,144.7,97.0,0.519
5.02,32088.6,35157.2,1.5076,1.896,144.7,97.0,0.519
5.04,32009.3,35091.1,0.1563,1.0983,144.7,97.0,0.519
5.06,31971.8,35096.5,-0.4827,1.1629,144.7,97.0,0.519
5.08,32086.4,35151.5,1.4689,1.8277,144.7,97.0,0.519
5.1,31996.3,34932.3,-0.066,-0.8187,144.7,97.0,0.519
5.12,31978.2,35039.0,-0.3744,0.4685,144.7,97.0,0.519
5.14,32063.0,35028.2,1.0716,0.3388,144.7,97.0,0.519
5.16,32091.4,35019.7,1.5546,0.2361,144.7,97.0,0.519
5.18,31970.9,34993.9,-0.4993,-0.0756,144.7,97.0,0.519
5.2,32001.9,35050.5,0.0299,0.6083,144.7,97.0,0.519
5.22,31951.7,34903.4,-0.8251,-1.1677,144.7,97.0,0.519
5.24,32021.4,34870.1,0.3622,-1.5702,144.7,97.0,0.519
5.26,31989.0,34900.6,-0.1906,-1.2016,144.7,97.0,0.519
5.28,31906.6,34940.0,-1.5946,-0.7264,144.7,97.0,0.519
5.3,31886.2,34989.3,-1.9419,-0.1313,144.7,97.0,0.519
5.32,31929.0,34910.2,-1.2123,-1.0859,144.7,97.0,0.519
5.34,31940.6,34942.7,-1.0158,-0.6934,144.7,97.0,0.519
5.36,31970.4,34866.3,-0.507,-1.6165,144.7,97.0,0.519
5.38,32016.0,35005.4,0.2694,0.0632,144.7,97.0,0.519
5.4,32045.7,35143.7,0.7763,1.7335,144.7,97.0,0.519
5.42,32087.8,35112.9,1.4943,1.3611,144.7,97.0,0.519
5.44,32076.9,35132.4,1.3074,1.5963,144.7,97.0,0.519
5.46,32060.2,35193.1,1.0236,2.3298,144.7,97.0,0.519
5.48,32058.0,35150.6,0.9853,1.8166,144.7,97.0,0.519
5.5,31978.0,35170.1,-0.3776,2.0517,144.7,97.0,0.519
5.52,31980.3,35038.7,-0.3377,0.4655,144.7,97.0,0.519
5.54,32048.1,34977.2,0.8169,-0.2771,144.7,97.0,0.519
5.56,32049.1,35011.5,0.8338,0.1369,144.7,97.0,0.519
5.58,31969.4,35038.3,-0.524,0.46,144.7,97.0,0.519
5.6,32036.2,34986.0,0.6148,-0.1707,144.7,97.0,0.519
5.62,31932.7,34995.4,-1.1488,-0.0576,144.7,97.0,0.519
5.64,31974.1,34992.2,-0.4447,-0.0955,144.7,97.0,0.519
5.66,31905.9,35036.1,-1.6058,0.4342,144.7,97.0,0.519
5.68,31963.7,34846.9,-0.6217,-1.8505,144.7,97.0,0.519
5.7,31921.7,34992.1,-1.3377,-0.0968,144.7,97.0,0.519
5.72,31981.1,34801.3,-0.3248,-2.4006,144.7,97.0,0.519
5.74,31924.4,34940.6,-1.2902,-0.7186,144.7,97.0,0.519
5.76,31960.9,34982.0,-0.6694,-0.2196,144.7,97.0,0.519
5.78,32016.3,34953.9,0.2742,-0.5579,144.7,97.0,0.519
5.8,32049.4,35069.9,0.8396,0.8423,144.7,97.0,0.519
5.82,32024.4,35006.2,0.4137,0.0727,144.7,97.0,0.519
5.84,32080.3,35119.3,1.3656,1.439,144.7,97.0,0.519
5.86,32020.6,35212.9,0.3482,2.568,144.7,97.0,0.519
5.88,32045.1,35023.1,0.7658,0.2769,144.7,97.0,0.519
5.9,32028.1,35002.1,0.4756,0.0236,144.7,97.0,0.519
5.92,32077.3,35056.8,1.3147,0.6842,144.7,97.0,0.519
5.94,31955.7,35058.1,-0.7569,0.6991,144.7,97.0,0.519
5.96,31970.4,34992.9,-0.5071,-0.0874,144.7,97.0,0.519
5.98,32052.5,34954.7,0.8918,-0.5491,144.7,97.0,0.519
6.0,32012.5,35005.3,0.2105,0.0624,144.7,97.0,0.519
6.02,31958.1,35122.6,-0.7172,1.4777,144.7,97.0,0.519
6.04,32000.6,34968.3,0.0067,-0.385,144.7,97.0,0.519
6.06,32004.1,35029.3,0.0668,0.3522,144.7,97.0,0.519
6.08,31897.1,34889.0,-1.7555,-1.342,144.7,97.0,0.519
6.1,32038.6,34872.1,0.6552,-1.546,144.7,97.0,0.519
6.12,32015.4,34929.8,0.2605,-0.849,144.7,97.0,0.519
6.14,32049.8,34914.2,0.8467,-1.038,144.7,97.0,0.519
6.16,31980.6,34931.6,-0.3339,-0.8282,144.7,97.0,0.519
6.18,31981.0,34944.4,-0.3266,-0.6731,144.7,97.0,0.519
6.2,32080.5,34904.9,1.3685,-1.1499,144.7,97.0,0.519
6.22,31959.1,34999.2,-0.7004,-0.0112,144.7,97.0,0.519
6.24,31994.9,35068.9,-0.0895,0.8305,144.7,97.0,0.519
6.26,32090.1,35155.6,1.5329,1.877,144.7,97.0,0.519
6.28,32002.2,35133.9,0.0346,1.6146,144.7,97.0,0.519
6.3,31962.1,35023.9,-0.6482,0.2861,144.7,97.0,0.519
6.32,31921.2,35071.3,-1.3459,0.8592,144.7,97.0,0.519
6.34,31978.8,35024.1,-0.3631,0.2894,144.7,97.0,0.519
6.36,31967.6,34945.3,-0.5554,-0.6622,144.7,97.0,0.519
6.38,31950.0,35028.4,-0.8544,0.3408,144.7,97.0,0.519
6.4,32033.4,35007.8,0.5658,0.0921,144.7,97.0,0.519
6.42,31969.9,35008.9,-0.5152,0.1061,144.7,97.0,0.519
6.44,31940.4,34921.1,-1.0189,-0.9546,144.7,97.0,0.519
6.46,31991.0,34935.5,-0.1563,-0.7806,144.7,97.0,0.519
6.48,31919.7,34914.2,-1.3713,-1.0375,144.7,97.0,0.519
6.5,31977.9,34803.7,-0.3785,-2.3715,144.7,97.0,0.519
6.52,31990.4,34967.9,-0.1658,-0.3891,144.7,97.0,0.519
6.54,31936.9,34943.3,-1.0781,-0.687,144.7,97.0,0.519
6.56,32015.5,34962.5,0.2607,-0.4548,144.7,97.0,0.519
6.58,32005.0,34968.7,0.0829,-0.3793,144.7,97.0,0.519
6.6,31988.5,34997.2,-0.1995,-0.0358,144.7,97.0,0.519
6.62,31962.1,34977.3,-0.6491,-0.2761,144.7,97.0,0.519
6.64,31946.1,35080.5,-0.9214,0.9702,144.7,97.0,0.519
6.66,32105.9,35134.9,1.8019,1.6273,144.7,97.0,0.519
6.68,32063.9,35118.2,1.0866,1.4247,144.7,97.0,0.519
6.7,31969.9,35065.7,-0.5151,0.7919,144.7,97.0,0.519
6.72,32001.6,35037.1,0.0239,0.4456,144.7,97.0,0.519
6.74,31910.7,35008.2,-1.5248,0.0973,144.7,97.0,0.519
6.76,32003.8,35048.3,0.0615,0.5812,144.7,97.0,0.519
6.78,32008.3,34974.8,0.1383,-0.306,144.7,97.0,0.519
6.8,31960.7,35052.9,-0.6729,0.6369,144.7,97.0,0.519
6.82,32098.6,34914.9,1.6768,-1.0288,144.7,97.0,0.519
6.84,32022.4,34969.9,0.3785,-0.3651,144.7,97.0,0.519
6.86,31926.0,34906.5,-1.2645,-1.1303,144.7,97.0,0.519
6.88,31962.4,34971.6,-0.6439,-0.3451,144.7,97.0,0.519
6.9,31963.8,35008.0,-0.6197,0.0949,144.7,97.0,0.519
6.92,31947.0,34995.6,-0.9054,-0.0553,144.7,97.0,0.519
6.94,31869.3,34944.8,-2.2292,-0.6685,144.7,97.0,0.519
6.96,31925.2,34892.8,-1.2768,-1.2959,144.7,97.0,0.519
6.98,31998.1,34967.2,-0.0352,-0.3973,144.7,97.0,0.519
7.0,31910.2,34908.5,-1.5332,-1.1066,144.7,97.0,0.519
7.02,31979.8,35006.1,-0.3478,0.0723,144.7,97.0,0.519
7.04,31995.0,35094.6,-0.0886,1.1407,144.7,97.0,0.519
7.06,32039.8,35115.3,0.6754,1.3901,144.7,97.0,0.519
7.08,32104.7,35144.2,1.7817,1.7392,144.7,97.0,0.519
7.1,32055.2,35161.5,0.9371,1.9482,144.7,97.0,0.519
7.12,32078.1,35025.0,1.3274,0.2994,144.7,97.0,0.519
7.14,32018.6,34973.9,0.3148,-0.3172,144.7,97.0,0.519
7.16,32003.3,35089.5,0.0539,1.0782,144.7,97.0,0.519
7.18,32023.0,35031.7,0.3887,0.3807,144.7,97.0,0.519
7.2,31983.5,35071.9,-0.2845,0.8662,144.7,97.0,0.519
7.22,32023.3,34997.3,0.3938,-0.0349,144.7,97.0,0.519
7.24,32059.0,35064.6,1.0029,0.7785,144.7,97.0,0.519
7.26,32055.2,34916.5,0.9378,-1.0104,144.7,97.0,0.519
7.28,32003.1,34859.6,0.0497,-1.6967,144.7,97.0,0.519
7.3,32018.7,34931.7,0.3151,-0.8269,144.7,97.0,0.519
7.32,31923.4,35037.5,-1.3081,0.451,144.7,97.0,0.519
7.34,32041.7,34841.5,0.7077,-1.9153,144.7,97.0,0.519
7.36,31945.5,34940.8,-0.9317,-0.7171,144.7,97.0,0.519
7.38,31876.2,34863.1,-2.1127,-1.6545,144.7,97.0,0.519
7.4,31969.1,35000.8,-0.53,0.0072,144.7,97.0,0.519
7.42,31932.8,34857.0,-1.1483,-1.7284,144.7,97.0,0.519
7.44,31966.1,34981.1,-0.58,-0.23,144.7,97.0,0.519
7.46,31928.1,34957.2,-1.2278,-0.518,144.7,97.0,0.519
7.48,31957.4,35022.6,-0.7279,0.2708,144.7,97.0,0.519
7.5,32046.9,35077.8,0.7958,0.9369,144.7,97.0,0.519
7.52,31990.0,35089.0,-0.173,1.0731,144.7,97.0,0.519
7.54,31919.1,35085.9,-1.3812,1.0357,144.7,97.0,0.519
7.56,32053.3,35020.7,0.9063,0.2478,144.7,97.0,0.519
7.58,32016.2,35041.3,0.2729,0.4972,144.7,97.0,0.519
7.6,32090.4,35061.0,1.5376,0.7346,144.7,97.0,0.519
7.62,32036.9,35006.1,0.6262,0.0717,144.7,97.0,0.519
7.64,31983.8,35040.2,-0.278,0.4833,144.7,97.0,0.519
7.66,31955.2,35062.6,-0.7666,0.7536,144.7,97.0,0.519
7.68,32024.2,34975.2,0.4104,-0.3016,144.7,97.0,0.519
7.7,31977.3,34976.1,-0.3897,-0.2904,144.7,97.0,0.519
7.72,31907.2,34935.2,-1.5847,-0.7838,144.7,97.0,0.519
7.74,31863.7,34975.3,-2.3256,-0.3006,144.7,97.0,0.519
7.76,31912.1,34967.2,-1.5007,-0.3984,144.7,97.0,0.519
7.78,31934.8,34967.3,-1.1135,-0.3963,144.7,97.0,0.519
7.8,32011.2,34970.3,0.1876,-0.3601,144.7,97.0,0.519
7.82,31996.8,34917.0,-0.0571,-1.004,144.7,97.0,0.519
7.84,31890.9,34852.9,-1.8615,-1.7774,144.7,97.0,0.519
7.86,31839.6,34943.7,-2.7366,-0.6819,144.7,97.0,0.519
7.88,32008.3,35025.3,0.1391,0.3034,144.7,97.0,0.519
7.9,31959.3,35083.0,-0.6956,0.9999,144.7,97.0,0.519
7.92,32069.6,35076.7,1.1826,0.9244,144.7,97.0,0.519
7.94,32131.9,35112.7,2.2456,1.3584,144.7,97.0,0.519
7.96,31917.2,35143.7,-1.4134,1.733,144.7,97.0,0.519
7.98,32049.2,35117.2,0.8353,1.4131,144.7,97.0,0.519
8.0,32113.7,35055.8,1.9348,0.6713,144.7,97.0,0.519
8.02,32051.4,35096.1,0.8736,1.158,144.7,97.0,0.519
8.04,32050.8,34963.4,0.8624,-0.4437,144.7,97.0,0.519
8.06,31911.8,35078.3,-1.5059,0.9432,144.7,97.0,0.519
8.08,31910.2,34998.0,-1.5324,-0.0258,144.7,97.0,0.519
8.1,32027.3,35032.7,0.4633,0.3928,144.7,97.0,0.519
8.12,32012.5,34990.9,0.21,-0.1118,144.7,97.0,0.519
8.14,32007.2,34898.8,0.1194,-1.2242,144.7,97.0,0.519
8.16,31957.4,34953.5,-0.7282,-0.563,144.7,97.0,0.519
8.18,31953.7,34908.8,-0.7921,-1.1024,144.7,97.0,0.519
8.2,32012.8,34933.0,0.2158,-0.811,144.7,97.0,0.519
8.22,31924.0,34890.3,-1.2976,-1.3264,144.7,97.0,0.519
8.24,31906.2,34920.7,-1.6004,-0.9597,144.7,97.0,0.519
8.26,31998.7,34869.6,-0.025,-1.5765,144.7,97.0,0.519
8.28,31988.8,34963.9,-0.1944,-0.4372,144.7,97.0,0.519
8.3,31977.7,34998.0,-0.3825,-0.0264,144.7,97.0,0.519
8.32,32075.6,35129.7,1.285,1.5641,144.7,97.0,0.519
8.34,32128.0,35172.7,2.1791,2.0836,144.7,97.0,0.519
8.36,32090.9,35151.4,1.5455,1.8266,144.7,97.0,0.519
8.38,31990.7,35100.2,-0.1614,1.2081,144.7,97.0,0.519
8.4,32110.1,35090.8,1.8726,1.0946,144.7,97.0,0.519
8.42,31935.7,35037.9,-1.099,0.4562,144.7,97.0,0.519
8.44,32046.3,35132.7,0.7856,1.6008,144.7,97.0,0.519
8.46,32036.8,34973.8,0.6246,-0.3179,144.7,97.0,0.519
8.48,32016.7,35041.4,0.2815,0.4976,144.7,97.0,0.519
8.5,31969.5,35035.8,-0.5219,0.4299,144.7,97.0,0.519
8.52,32070.2,34902.9,1.1943,-1.174,144.7,97.0,0.519
8.54,31977.0,34962.6,-0.3951,-0.4539,144.7,97.0,0.519
8.56,31848.0,34933.7,-2.5928,-0.8021,144.7,97.0,0.519
8.58,31974.3,34898.1,-0.4413,-1.2316,144.7,97.0,0.519
8.6,31921.7,34963.0,-1.3368,-0.4488,144.7,97.0,0.519
8.62,31975.5,34895.9,-0.4195,-1.2591,144.7,97.0,0.519
8.64,32022.6,34957.0,0.3824,-0.5213,144.7,97.0,0.519
8.66,31972.3,34926.2,-0.4744,-0.893,144.7,97.0,0.519
8.68,31953.2,34993.3,-0.7997,-0.0828,144.7,97.0,0.519
8.7,32096.1,34924.7,1.6357,-0.9105,144.7,97.0,0.519
8.72,32024.0,35026.8,0.407,0.322,144.7,97.0,0.519
8.74,32061.7,35013.3,1.0493,0.1591,144.7,97.0,0.519
8.76,32054.1,35089.5,0.9189,1.0793,144.7,97.0,0.519
8.78,31944.9,35077.0,-0.9408,0.9282,144.7,97.0,0.519
8.8,32022.2,35075.9,0.3753,0.9146,144.7,97.0,0.519
8.82,31940.6,35126.3,-1.0149,1.5224,144.7,97.0,0.519
8.84,32038.3,35022.2,0.6501,0.2662,144.7,97.0,0.519
8.86,32077.1,35036.1,1.3107,0.4339,144.7,97.0,0.519
8.88,31949.3,34985.3,-0.8658,-0.1798,144.7,97.0,0.519
8.9,31978.8,35040.5,-0.3645,0.4873,144.7,97.0,0.519
8.92,32032.2,34984.5,0.5462,-0.1894,144.7,97.0,0.519
8.94,31973.2,35067.5,-0.4602,0.8128,144.7,97.0,0.519
8.96,32022.6,34852.4,0.3823,-1.7835,144.7,97.0,0.519
8.98,32057.4,34847.3,0.9754,-1.8452,144.7,97.0,0.519
9.0,31939.5,34882.7,-1.033,-1.4177,144.7,97.0,0.519
9.02,31986.8,34977.0,-0.227,-0.2801,144.7,97.0,0.519
9.04,31951.3,34807.0,-0.8329,-2.3323,144.7,97.0,0.519
9.06,31951.9,34935.0,-0.8227,-0.786,144.7,97.0,0.519
9.08,31929.5,34947.7,-1.2034,-0.6336,144.7,97.0,0.519
9.1,31977.9,34957.8,-0.3789,-0.5118,144.7,97.0,0.519
9.12,32006.8,35062.1,0.1129,0.7477,144.7,97.0,0.519
9.14,32044.8,35029.1,0.7615,0.3498,144.7,97.0,0.519
9.16,32032.5,35097.9,0.5512,1.1802,144.7,97.0,0.519
9.18,32121.0,35148.8,2.0589,1.7943,144.7,97.0,0.519
9.2,31988.9,35094.9,-0.1923,1.1437,144.7,97.0,0.519
9.22,32094.1,35057.4,1.6013,0.691,144.7,97.0,0.519
9.24,32031.6,35044.2,0.5357,0.5318,144.7,97.0,0.519
9.26,32001.1,35080.6,0.0154,0.9716,144.7,97.0,0.519
9.28,32043.8,35052.8,0.7428,0.636,144.7,97.0,0.519
9.3,32029.4,35100.6,0.4978,1.2122,144.7,97.0,0.519
9.32,32039.4,35029.8,0.6688,0.3575,144.7,97.0,0.519
9.34,32020.2,34987.8,0.3411,-0.1495,144.7,97.0,0.519
9.36,32003.1,35003.1,0.0495,0.0359,144.7,97.0,0.519
9.38,31997.7,34998.4,-0.0427,-0.0206,144.7,97.0,0.519
9.4,31930.5,34844.9,-1.1867,-1.8746,144.7,97.0,0.519
9.42,32004.1,34960.9,0.0672,-0.4734,144.7,97.0,0.519
9.44,31921.1,34944.6,-1.3478,-0.6704,144.7,97.0,0.519
9.46,31940.9,34871.4,-1.0092,-1.5544,144.7,97.0,0.519
9.48,31951.6,34917.3,-0.8273,-1.0008,144.7,97.0,0.519
9.5,31990.1,34956.2,-0.1722,-0.5303,144.7,97.0,0.519
9.52,32042.6,35010.6,0.723,0.1258,144.7,97.0,0.519
9.54,32007.3,35124.0,0.1212,1.4955,144.7,97.0,0.519
9.56,32106.5,35163.8,1.8125,1.9752,144.7,97.0,0.519
9.58,32115.1,35094.6,1.9584,1.1408,144.7,97.0,0.519
9.6,32040.1,35203.6,0.6811,2.456,144.7,97.0,0.519
9.62,32015.6,35075.0,0.2632,0.903,144.7,97.0,0.519
9.64,32019.6,35017.2,0.3317,0.2062,144.7,97.0,0.519
9.66,32068.8,35014.5,1.1701,0.1736,144.7,97.0,0.519
9.68,31991.2,34966.3,-0.1522,-0.4086,144.7,97.0,0.519
9.7,32026.4,35030.3,0.4467,0.364,144.7,97.0,0.519
9.72,32019.5,34968.6,0.3303,-0.3805,144.7,97.0,0.519
9.74,31992.7,34981.3,-0.1263,-0.2277,144.7,97.0,0.519
9.76,31874.7,34984.4,-2.137,-0.1907,144.7,97.0,0.519
9.78,31898.1,34942.6,-1.7396,-0.6949,144.7,97.0,0.519
9.8,31945.9,34916.7,-0.9248,-1.0073,144.7,97.0,0.519
9.82,32038.4,34905.4,0.6518,-1.1435,144.7,97.0,0.519
9.84,31990.3,34920.7,-0.1674,-0.9596,144.7,97.0,0.519
9.86,32047.4,34873.4,0.8055,-1.5307,144.7,97.0,0.519
9.88,31959.6,34910.2,-0.6909,-1.086,144.7,97.0,0.519
9.9,31980.9,34908.4,-0.3283,-1.1079,144.7,97.0,0.519
9.92,32010.4,34917.3,0.1748,-1.0004,144.7,97.0,0.519
9.94,31983.9,35066.2,-0.277,0.7978,144.7,97.0,0.519
9.96,32062.6,35046.3,1.0647,0.5565,144.7,97.0,0.519
9.98,32077.2,35102.8,1.3121,1.2388,144.7,97.0,0.519
10.0,32009.2,35084.6,0.1543,1.0195,144.7,97.0,0.519
10.02,32099.5,35090.2,1.6923,1.0871,144.7,97.0,0.519
10.04,31991.9,35054.7,-0.1408,0.6583,144.7,97.0,0.519
10.06,31931.3,35138.2,-1.1741,1.6663,144.7,97.0,0.519
10.08,32010.6,35061.3,0.1778,0.7387,144.7,97.0,0.519
10.1,31936.9,35051.4,-1.0775,0.6192,144.7,97.0,0.519
10.12,32004.9,35025.0,0.0808,0.3004,144.7,97.0,0.519
10.14,31917.7,35072.2,-1.4043,0.8694,144.7,97.0,0.519
10.16,31999.8,34975.6,-0.0068,-0.296,144.7,97.0,0.519
10.18,31979.4,34969.1,-0.3542,-0.3754,144.7,97.0,0.519
10.2,31965.5,34978.0,-0.5907,-0.2678,144.7,97.0,0.519
10.22,31917.7,34965.5,-1.4056,-0.418,144.7,97.0,0.519
10.24,31903.2,34935.1,-1.6521,-0.7853,144.7,97.0,0.519
10.26,31920.1,34975.7,-1.3645,-0.2955,144.7,97.0,0.519
10.28,32055.8,34941.8,0.9479,-0.704,144.7,97.0,0.519
10.3,31944.9,34946.4,-0.9413,-0.6493,144.7,97.0,0.519
10.32,32010.2,35015.1,0.1709,0.1808,144.7,97.0,0.519
10.34,31948.1,34906.5,-0.8869,-1.1309,144.7,97.0,0.519
10.36,31992.8,35037.0,-0.1257,0.4453,144.7,97.0,0.519
10.38,31981.1,35066.3,-0.3249,0.7981,144.7,97.0,0.519
10.4,32023.6,35134.1,0.3998,1.6177,144.7,97.0,0.519
10.42,32175.8,35143.9,2.9933,1.735,144.7,97.0,0.519
10.44,31975.5,35078.3,-0.4196,0.9434,144.7,97.0,0.519
10.46,32016.3,35038.5,0.2754,0.4635,144.7,97.0,0.519
10.48,32059.9,35028.6,1.0178,0.3429,144.7,97.0,0.519
10.5,32021.2,35043.5,0.3594,0.5229,144.7,97.0,0.519
10.52,32046.7,34979.9,0.7928,-0.2448,144.7,97.0,0.519
10.54,32049.4,34987.0,0.8385,-0.1591,144.7,97.0,0.519
10.56,32022.5,35025.3,0.3804,0.303,144.7,97.0,0.519
10.58,31969.9,34956.4,-0.515,-0.5286,144.7,97.0,0.519
10.6,31930.8,34954.7,-1.1821,-0.5486,144.7,97.0,0.519
10.62,32038.2,34933.2,0.6489,-0.8079,144.7,97.0,0.519
10.64,31900.6,34962.8,-1.6972,-0.4512,144.7,97.0,0.519
10.66,31953.1,34951.3,-0.8022,-0.5901,144.7,97.0,0.519
10.68,32060.5,34876.3,1.0282,-1.4952,144.7,97.0,0.519
10.7,32027.3,34870.7,0.4619,-1.5628,144.7,97.0,0.519
10.72,31931.7,35001.0,-1.1667,0.0108,144.7,97.0,0.519
10.74,31878.5,34899.5,-2.0729,-1.215,144.7,97.0,0.519
10.76,31982.6,34896.6,-0.2985,-1.2506,144.7,97.0,0.519
10.78,31967.3,34939.8,-0.5596,-0.7284,144.7,97.0,0.519
10.8,32025.1,35184.8,0.4244,2.2293,144.7,97.0,0.519
10.82,32115.0,35134.0,1.9571,1.6159,144.7,97.0,0.519
10.84,32057.0,35173.1,0.9682,2.088,144.7,97.0,0.519
10.86,31983.8,35041.2,-0.2783,0.4956,144.7,97.0,0.519
10.88,32083.5,35064.3,1.4204,0.7746,144.7,97.0,0.519
10.9,32041.3,35102.5,0.7015,1.2351,144.7,97.0,0.519
10.92,31988.8,35010.4,-0.1929,0.1235,144.7,97.0,0.519
10.94,32008.4,35099.6,0.1403,1.2004,144.7,97.0,0.519
10.96,31954.4,35079.3,-0.78,0.9552,144.7,97.0,0.519
10.98,31950.6,34957.5,-0.8445,-0.5148,144.7,97.0,0.519
11.0,31999.1,34946.3,-0.0181,-0.6506,144.7,97.0,0.519
11.02,32034.9,34959.8,0.5916,-0.4871,144.7,97.0,0.519
11.04,31997.7,34932.4,-0.0423,-0.818,144.7,97.0,0.519
11.06,31959.8,34939.7,-0.6885,-0.7293,144.7,97.0,0.519
11.08,31988.6,34940.1,-0.197,-0.7251,144.7,97.0,0.519
11.1,31923.1,34932.7,-1.3135,-0.8138,144.7,97.0,0.519
11.12,31992.4,34929.0,-0.1324,-0.8594,144.7,97.0,0.519
11.14,31997.2,34972.9,-0.0512,-0.3293,144.7,97.0,0.519
11.16,32045.9,34875.6,0.7795,-1.5039,144.7,97.0,0.519
11.18,32037.2,35014.4,0.6311,0.1715,144.7,97.0,0.519
11.2,31997.1,34998.0,-0.0525,-0.0257,144.7,97.0,0.519
11.22,32044.7,35036.8,0.7583,0.442,144.7,97.0,0.519
11.24,32024.5,35044.7,0.4151,0.5382,144.7,97.0,0.519
11.26,32123.2,35089.8,2.0972,1.0824,144.7,97.0,0.519
11.28,32009.8,35084.3,0.1646,1.016,144.7,97.0,0.519
11.3,32004.4,35064.8,0.0716,0.7803,144.7,97.0,0.519
11.32,31998.3,35029.7,-0.0311,0.3564,144.7,97.0,0.519
11.34,31945.1,34966.4,-0.9391,-0.4076,144.7,97.0,0.519
11.36,31981.5,35027.9,-0.318,0.3344,144.7,97.0,0.519
11.38,31978.9,35070.0,-0.3627,0.8431,144.7,97.0,0.519
11.4,31937.4,34996.8,-1.0689,-0.0406,144.7,97.0,0.519
11.42,31968.4,34932.7,-0.5419,-0.8138,144.7,97.0,0.519
11.44,32040.6,34900.7,0.6895,-1.2005,144.7,97.0,0.519
11.46,31935.8,34917.9,-1.0974,-0.9928,144.7,97.0,0.519
11.48,31958.1,34915.1,-0.7171,-1.0272,144.7,97.0,0.519
11.5,31954.3,34933.6,-0.781,-0.8034,144.7,97.0,0.519
11.52,32052.3,34984.6,0.8884,-0.1883,144.7,97.0,0.519
11.54,31950.8,34953.8,-0.8408,-0.5596,144.7,97.0,0.519
11.56,31886.5,35007.2,-1.9365,0.0854,144.7,97.0,0.519
11.58,32053.5,34999.3,0.9097,-0.0104,144.7,97.0,0.519
11.6,31965.8,35125.2,-0.5851,1.5094,144.7,97.0,0.519
11.62,32077.1,35050.2,1.3108,0.6047,144.7,97.0,0.519
11.64,32012.7,35151.0,0.2134,1.821,144.7,97.0,0.519
11.66,32021.9,35125.6,0.3704,1.514,144.7,97.0,0.519
11.68,32091.0,35076.5,1.5488,0.9222,144.7,97.0,0.519
11.7,32060.9,35132.4,1.0349,1.5967,144.7,97.0,0.519
11.72,32013.9,35000.8,0.2343,0.0076,144.7,97.0,0.519
11.74,31998.4,34994.0,-0.0302,-0.0745,144.7,97.0,0.519
11.76,31929.0,35019.5,-1.2125,0.2336,144.7,97.0,0.519
11.78,32177.4,34996.2,3.0196,-0.0479,144.7,97.0,0.519
11.8,31993.2,35008.1,-0.1193,0.0957,144.7,97.0,0.519
11.82,31949.8,34971.8,-0.8583,-0.3419,144.7,97.0,0.519
11.84,31953.7,34923.6,-0.791,-0.9241,144.7,97.0,0.519
11.86,32068.1,35037.7,1.1579,0.4538,144.7,97.0,0.519
11.88,32006.3,34941.5,0.1046,-0.7084,144.7,97.0,0.519
11.9,31966.0,34931.5,-0.5816,-0.8293,144.7,97.0,0.519
11.92,31983.1,34959.2,-0.2913,-0.4944,144.7,97.0,0.519
11.94,32053.1,34838.2,0.9013,-1.9556,144.7,97.0,0.519
11.96,31952.9,34857.6,-0.8047,-1.7212,144.7,97.0,0.519
11.98,31915.9,34918.5,-1.435,-0.9858,144.7,97.0,0.519
12.0,32065.3,35009.1,1.1101,0.1074,144.7,97.0,0.519
12.02,31939.1,34990.5,-1.0398,-0.1164,144.7,97.0,0.519
12.04,32120.6,35054.9,2.0517,0.6607,144.7,97.0,0.519
12.06,31962.5,35136.5,-0.6413,1.6457,144.7,97.0,0.519
12.08,32104.6,35132.6,1.7794,1.5993,144.7,97.0,0.519
12.1,32016.6,35127.4,0.2809,1.5358,144.7,97.0,0.519
12.12,32015.6,35115.0,0.2633,1.3863,144.7,97.0,0.519
12.14,32015.6,34992.1,0.2631,-0.0977,144.7,97.0,0.519
12.16,31976.7,34993.8,-0.4002,-0.0764,144.7,97.0,0.519
12.18,31895.2,34984.9,-1.7893,-0.1846,144.7,97.0,0.519
12.2,31992.5,35017.3,-0.1299,0.2068,144.7,97.0,0.519
12.22,32052.3,35006.6,0.8879,0.0777,144.7,97.0,0.519
12.24,32079.3,34973.0,1.3494,-0.3281,144.7,97.0,0.519
12.26,32034.1,35035.3,0.5777,0.4247,144.7,97.0,0.519
12.28,31967.2,35010.1,-0.5609,0.1195,144.7,97.0,0.519
12.3,32001.8,34936.9,0.0276,-0.7639,144.7,97.0,0.519
12.32,31939.0,34907.3,-1.0428,-1.1209,144.7,97.0,0.519
12.34,32026.9,34945.9,0.4555,-0.6552,144.7,97.0,0.519
12.36,31945.6,34943.5,-0.929,-0.6834,144.7,97.0,0.519
12.38,32049.5,34830.4,0.8415,-2.0494,144.7,97.0,0.519
12.4,31973.3,34933.2,-0.458,-0.8083,144.7,97.0,0.519
12.42,32016.9,35062.6,0.2856,0.754,144.7,97.0,0.519
12.44,31971.5,35001.1,-0.488,0.0112,144.7,97.0,0.519
12.46,32086.9,35220.9,1.4777,2.6648,144.7,97.0,0.519
12.48,32040.2,35124.5,0.6826,1.5008,144.7,97.0,0.519
12.5,32028.8,35228.8,0.4881,2.7608,144.7,97.0,0.519
12.52,32022.0,34999.0,0.3722,-0.0142,144.7,97.0,0.519
12.54,32054.2,35063.6,0.9209,0.7656,144.7,97.0,0.519
12.56,32069.3,35025.1,1.178,0.3006,144.7,97.0,0.519
12.58,31983.8,34961.9,-0.2785,-0.4623,144.7,97.0,0.519
12.6,31967.1,35001.4,-0.5628,0.0147,144.7,97.0,0.519
12.62,31980.7,35013.6,-0.3307,0.1622,144.7,97.0,0.519
12.64,31978.0,35033.5,-0.3784,0.4024,144.7,97.0,0.519
12.66,32032.2,34949.0,0.5465,-0.6176,144.7,97.0,0.519
12.68,32038.5,35017.5,0.6526,0.2096,144.7,97.0,0.519
12.7,31875.5,34974.4,-2.124,-0.3108,144.7,97.0,0.519
12.72,32013.5,34974.3,0.2279,-0.3117,144.7,97.0,0.519
12.74,31969.4,34903.8,-0.5244,-1.1627,144.7,97.0,0.519
12.76,32001.0,34958.2,0.015,-0.5064,144.7,97.0,0.519
12.78,31870.3,34930.2,-2.2124,-0.8441,144.7,97.0,0.519
12.8,31981.4,34910.7,-0.3195,-1.0801,144.7,97.0,0.519
12.82,32028.3,34929.9,0.4787,-0.8484,144.7,97.0,0.519
12.84,31935.7,34952.4,-1.0985,-0.5766,144.7,97.0,0.519
12.86,32005.8,35046.5,0.0955,0.559,144.7,97.0,0.519
12.88,32034.3,35067.8,0.5822,0.8167,144.7,97.0,0.519
12.9,32024.5,35069.0,0.4148,0.831,144.7,97.0,0.519
12.92,32052.1,35090.1,0.8853,1.0857,144.7,97.0,0.519
12.94,32010.5,35071.5,0.1764,0.8611,144.7,97.0,0.519
12.96,32011.5,35070.7,0.1928,0.8521,144.7,97.0,0.519
12.98,32015.5,34963.6,0.262,-0.441,144.7,97.0,0.519
13.0,31986.6,35053.8,-0.2309,0.6472,144.7,97.0,0.519
13.02,31983.6,34934.1,-0.2818,-0.797,144.7,97.0,0.519
13.04,32063.7,35006.6,1.082,0.0777,144.7,97.0,0.519
13.06,31977.5,34972.7,-0.3866,-0.332,144.7,97.0,0.519
13.08,31948.3,35014.5,-0.8831,0.1734,144.7,97.0,0.519
13.1,31991.0,34992.0,-0.1559,-0.0988,144.7,97.0,0.519
13.12,32004.9,34933.0,0.0804,-0.8109,144.7,97.0,0.519
13.14,31916.5,34983.9,-1.4249,-0.1963,144.7,97.0,0.519
13.16,31954.8,34971.8,-0.7728,-0.3426,144.7,97.0,0.519
13.18,31987.9,34938.7,-0.2088,-0.7423,144.7,97.0,0.519
13.2,31934.9,34861.0,-1.1116,-1.68,144.7,97.0,0.519
13.22,31982.5,34896.9,-0.3002,-1.2463,144.7,97.0,0.519
13.24,32098.2,34944.2,1.6702,-0.676,144.7,97.0,0.519
13.26,32008.9,35002.0,0.1497,0.0225,144.7,97.0,0.519
13.28,32103.3,35065.0,1.757,0.7832,144.7,97.0,0.519
13.3,32155.9,35229.5,2.6537,2.7685,144.7,97.0,0.519
13.32,32002.3,35101.4,0.0371,1.2221,144.7,97.0,0.519
13.34,32056.8,35144.4,0.9659,1.7415,144.7,97.0,0.519
13.36,31921.9,35117.4,-1.3341,1.4157,144.7,97.0,0.519
13.38,31995.2,34982.0,-0.0848,-0.2195,144.7,97.0,0.519
13.4,31950.1,34992.1,-0.853,-0.0971,144.7,97.0,0.519
13.42,32080.2,35003.2,1.3644,0.0365,144.7,97.0,0.519
13.44,31956.4,34957.3,-0.7448,-0.5173,144.7,97.0,0.519
13.46,31942.2,34936.4,-0.9871,-0.7697,144.7,97.0,0.519
13.48,31972.2,34909.1,-0.4765,-1.0995,144.7,97.0,0.519
13.5,32060.5,34902.7,1.0283,-1.1765,144.7,97.0,0.519
13.52,31870.6,34947.5,-2.2079,-0.6362,144.7,97.0,0.519
13.54,31842.0,35006.7,-2.6944,0.079,144.7,97.0,0.519
13.56,32079.6,34880.0,1.3536,-1.4509,144.7,97.0,0.519
13.58,31964.4,35029.4,-0.6099,0.3537,144.7,97.0,0.519
13.6,32026.6,34837.7,0.4512,-1.9612,144.7,97.0,0.519
13.62,31989.9,34948.7,-0.1743,-0.6212,144.7,97.0,0.519
13.64,31886.3,34908.0,-1.9402,-1.1125,144.7,97.0,0.519
13.66,32045.3,34978.7,0.7686,-0.2591,144.7,97.0,0.519
13.68,32003.2,35099.0,0.0521,1.1934,144.7,97.0,0.519
13.7,32050.9,35135.7,0.8651,1.636,144.7,97.0,0.519
13.72,32017.0,35065.7,0.2871,0.7915,144.7,97.0,0.519
13.74,32123.9,35168.0,2.1079,2.0266,144.7,97.0,0.519
13.76,32013.7,35129.6,0.2309,1.5633,144.7,97.0,0.519
13.78,31987.3,35063.9,-0.2199,0.7695,144.7,97.0,0.519
13.8,32086.1,35071.2,1.4637,0.8571,144.7,97.0,0.519
13.82,31972.4,34876.6,-0.4722,-1.492,144.7,97.0,0.519
13.84,32015.7,35071.6,0.2647,0.863,144.7,97.0,0.519
13.86,31988.6,35000.0,-0.197,-0.0024,144.7,97.0,0.519
13.88,31954.0,34994.3,-0.7862,-0.0705,144.7,97.0,0.519
13.9,31924.8,35081.7,-1.2838,0.9848,144.7,97.0,0.519
13.92,31944.2,34959.8,-0.953,-0.4867,144.7,97.0,0.519
13.94,31951.6,34936.4,-0.8278,-0.7697,144.7,97.0,0.519
13.96,31984.2,34970.2,-0.2719,-0.3618,144.7,97.0,0.519
13.98,31946.3,34938.1,-0.917,-0.7486,144.7,97.0,0.519
14.0,31953.3,34999.0,-0.799,-0.0141,144.7,97.0,0.519
14.02,32037.8,34851.1,0.6408,-1.7999,144.7,97.0,0.519
14.04,31905.0,34801.3,-1.6223,-2.4009,144.7,97.0,0.519
14.06,32037.0,34914.9,0.6276,-1.029,144.7,97.0,0.519
14.08,31923.2,35035.8,-1.3121,0.4303,144.7,97.0,0.519
14.1,31948.8,35031.2,-0.8749,0.3745,144.7,97.0,0.519
14.12,32050.9,35077.6,0.864,0.9352,144.7,97.0,0.519
14.14,31990.4,35123.0,-0.1667,1.4834,144.7,97.0,0.519
14.16,32146.7,35185.7,2.4973,2.2401,144.7,97.0,0.519
14.18,31949.1,35095.0,-0.8699,1.145,144.7,97.0,0.519
14.2,32065.7,35084.7,1.1173,1.0213,144.7,97.0,0.519
14.22,32014.6,35038.5,0.2456,0.4634,144.7,97.0,0.519
14.24,31976.1,34960.9,-0.4098,-0.474,144.7,97.0,0.519
14.26,31970.4,34967.5,-0.507,-0.3939,144.7,97.0,0.519
14.28,31990.1,35020.2,-0.1713,0.2415,144.7,97.0,0.519
14.3,32032.1,35039.7,0.544,0.477,144.7,97.0,0.519
14.32,31969.6,34970.0,-0.52,-0.3637,144.7,97.0,0.519
14.34,31936.3,34957.9,-1.0882,-0.5101,144.7,97.0,0.519
14.36,31977.5,34917.3,-0.3864,-1.0006,144.7,97.0,0.519
14.38,31966.1,34919.0,-0.581,-0.98,144.7,97.0,0.519
14.4,31938.9,34845.9,-1.0436,-1.8625,144.7,97.0,0.519
14.42,32003.9,34961.6,0.0637,-0.465,144.7,97.0,0.519
14.44,32009.2,34837.3,0.1543,-1.966,144.7,97.0,0.519
14.46,32015.9,34968.6,0.2678,-0.3806,144.7,97.0,0.519
14.48,31955.7,34980.3,-0.7568,-0.2399,144.7,97.0,0.519
14.5,32006.5,34948.0,0.108,-0.6294,144.7,97.0,0.519
14.52,32053.8,35008.4,0.9138,0.1001,144.7,97.0,0.519
14.54,32046.8,35127.5,0.7954,1.5375,144.7,97.0,0.519
14.56,32028.4,35125.9,0.481,1.5177,144.7,97.0,0.519
14.58,31981.8,35093.4,-0.3123,1.1258,144.7,97.0,0.519
14.6,31969.0,35072.7,-0.5314,0.8764,144.7,97.0,0.519
14.62,32073.4,35022.3,1.2481,0.2673,144.7,97.0,0.519
14.64,31956.4,35013.4,-0.7457,0.1597,144.7,97.0,0.519
14.66,32020.6,34975.6,0.349,-0.2966,144.7,97.0,0.519
14.68,31993.4,35026.0,-0.1156,0.3117,144.7,97.0,0.519
14.7,32051.0,35033.8,0.8661,0.4063,144.7,97.0,0.519
14.72,32032.7,34996.0,0.5549,-0.0505,144.7,97.0,0.519
14.74,31938.4,34941.6,-1.053,-0.7067,144.7,97.0,0.519
14.76,31967.7,34934.8,-0.5533,-0.7892,144.7,97.0,0.519
14.78,31913.5,34913.2,-1.4768,-1.0504,144.7,97.0,0.519
14.8,31951.7,34979.0,-0.8266,-0.2553,144.7,97.0,0.519
14.82,32012.5,34876.6,0.2103,-1.4913,144.7,97.0,0.519
14.84,31920.7,34866.6,-1.3537,-1.612,144.7,97.0,0.519
14.86,32003.3,34940.1,0.0535,-0.7255,144.7,97.0,0.519
14.88,31913.9,34916.8,-1.4697,-1.0058,144.7,97.0,0.519
14.9,32018.0,34867.7,0.3045,-1.5991,144.7,97.0,0.519
14.92,31958.3,34975.9,-0.7131,-0.2927,144.7,97.0,0.519
14.94,32053.3,35022.7,0.9051,0.2722,144.7,97.0,0.519
14.96,31971.2,35089.3,-0.4934,1.0757,144.7,97.0,0.519
14.98,32097.1,35118.4,1.6511,1.4275,144.7,97.0,0.519
15.0,32040.4,35160.2,0.6859,1.9323,144.7,97.0,0.519
15.02,32014.3,34988.3,0.2418,-0.1431,144.7,97.0,0.519
15.04,31997.9,35046.4,-0.0388,0.5586,144.7,97.0,0.519
15.06,31916.9,35034.2,-1.4181,0.4107,144.7,97.0,0.519
15.08,31983.6,34995.9,-0.2822,-0.0508,144.7,97.0,0.519
15.1,31918.7,34993.4,-1.3888,-0.0816,144.7,97.0,0.519
15.12,31912.2,34982.6,-1.4982,-0.2122,144.7,97.0,0.519
15.14,32067.1,34938.4,1.1415,-0.7454,144.7,97.0,0.519
15.16,31881.2,34833.1,-2.0273,-2.0169,144.7,97.0,0.519
15.18,31935.2,34955.6,-1.1072,-0.5383,144.7,97.0,0.519
15.2,31995.8,34859.2,-0.0736,-1.7021,144.7,97.0,0.519
15.22,31930.5,34909.6,-1.187,-1.0936,144.7,97.0,0.519
15.24,31892.5,35050.1,-1.8353,0.603,144.7,97.0,0.519
15.26,31916.8,34869.6,-1.421,-1.5763,144.7,97.0,0.519
15.28,31878.4,34924.9,-2.0749,-0.9085,144.7,97.0,0.519
15.3,31923.1,34976.7,-1.3124,-0.283,144.7,97.0,0.519
15.32,32012.5,35014.2,0.2108,0.1691,144.7,97.0,0.519
15.34,32106.0,35040.7,1.8032,0.4892,144.7,97.0,0.519
15.36,31987.6,35077.0,-0.2142,0.9277,144.7,97.0,0.519
15.38,31968.2,35145.1,-0.545,1.7496,144.7,97.0,0.519
15.4,32106.8,34984.7,1.8164,-0.1866,144.7,97.0,0.519
15.42,32067.0,34986.8,1.1392,-0.1611,144.7,97.0,0.519
15.44,32023.5,35046.1,0.3971,0.5553,144.7,97.0,0.519
15.46,32009.5,34994.0,0.1596,-0.0742,144.7,97.0,0.519
15.48,31992.9,35004.5,-0.123,0.0521,144.7,97.0,0.519
15.5,31946.0,34893.1,-0.9224,-1.2924,144.7,97.0,0.519
15.52,31996.3,34991.9,-0.0656,-0.0995,144.7,97.0,0.519
15.54,31942.0,34947.0,-0.9911,-0.6416,144.7,97.0,0.519
15.56,31995.0,34957.2,-0.0878,-0.5182,144.7,97.0,0.519
15.58,31991.9,34848.0,-0.1405,-1.8374,144.7,97.0,0.519
15.6,32009.7,35000.3,0.1633,0.002,144.7,97.0,0.519
15.62,31972.8,34921.5,-0.4662,-0.9501,144.7,97.0,0.519
15.64,32011.4,35002.5,0.1911,0.0277,144.7,97.0,0.519
15.66,31977.3,34933.1,-0.3893,-0.8101,144.7,97.0,0.519
15.68,31978.7,34938.0,-0.3654,-0.7498,144.7,97.0,0.519
15.7,31931.3,34904.1,-1.1736,-1.1601,144.7,97.0,0.519
15.72,32006.8,34892.5,0.1128,-1.2993,144.7,97.0,0.519
15.74,31965.5,34908.5,-0.5904,-1.1062,144.7,97.0,0.519
15.76,31996.2,35065.3,-0.0675,0.786,144.7,97.0,0.519
15.78,32087.9,35139.2,1.4955,1.6784,144.7,97.0,0.519
15.8,32087.2,35169.2,1.484,2.0414,144.7,97.0,0.519
15.82,32100.0,35132.7,1.7009,1.6001,144.7,97.0,0.519
15.84,32024.7,34989.7,0.4173,-0.1257,144.7,97.0,0.519
15.86,31988.3,35098.6,-0.2013,1.1891,144.7,97.0,0.519
15.88,31946.6,35114.0,-0.9132,1.3739,144.7,97.0,0.519
15.9,31934.1,35019.5,-1.1259,0.2339,144.7,97.0,0.519
15.92,31947.7,35028.2,-0.8932,0.3387,144.7,97.0,0.519
15.94,32031.5,34939.5,0.5343,-0.7328,144.7,97.0,0.519
15.96,31969.6,34937.3,-0.5213,-0.7583,144.7,97.0,0.519
15.98,31882.5,34984.1,-2.0046,-0.1937,144.7,97.0,0.519
16.0,31856.6,34889.5,-2.4463,-1.3355,144.7,97.0,0.519
16.02,32039.3,34970.2,0.6668,-0.3613,144.7,97.0,0.519
16.04,31990.9,34884.8,-0.1576,-1.3931,144.7,97.0,0.519
16.06,32014.5,34917.3,0.2439,-1.0001,144.7,97.0,0.519
16.08,32019.5,34926.7,0.33,-0.8865,144.7,97.0,0.519
16.1,31981.5,34899.7,-0.318,-1.2128,144.7,97.0,0.519
16.12,31949.6,34899.1,-0.8615,-1.2202,144.7,97.0,0.519
16.14,31904.7,34954.1,-1.6272,-0.5559,144.7,97.0,0.519
16.16,32006.9,34971.4,0.1141,-0.3471,144.7,97.0,0.519
16.18,32115.6,35056.5,1.9672,0.6803,144.7,97.0,0.519
16.2,32126.9,35090.6,2.159,1.0919,144.7,97.0,0.519
16.22,32038.5,35100.7,0.6534,1.2135,144.7,97.0,0.519
16.24,31993.8,35091.3,-0.1091,1.1002,144.7,97.0,0.519
16.26,32073.9,35121.5,1.2562,1.4648,144.7,97.0,0.519
16.28,31964.4,34922.9,-0.6088,-0.9327,144.7,97.0,0.519
16.3,31951.9,35077.9,-0.8228,0.9389,144.7,97.0,0.519
16.32,32004.2,35019.0,0.0682,0.2278,144.7,97.0,0.519
16.34,31999.4,35002.1,-0.0135,0.024,144.7,97.0,0.519
16.36,32000.1,35058.8,-0.0018,0.7081,144.7,97.0,0.519
16.38,31933.5,35015.4,-1.1353,0.1836,144.7,97.0,0.519
16.4,31980.8,34908.1,-0.3307,-1.111,144.7,97.0,0.519
16.42,32036.8,34925.1,0.6236,-0.9058,144.7,97.0,0.519
16.44,31938.9,34903.2,-1.0437,-1.1702,144.7,97.0,0.519
16.46,31984.2,34981.7,-0.2719,-0.2232,144.7,97.0,0.519
16.48,32048.0,34919.2,0.8151,-0.9776,144.7,97.0,0.519
16.5,31902.7,34812.7,-1.661,-2.2627,144.7,97.0,0.519
16.52,31851.5,34905.4,-2.5333,-1.1441,144.7,97.0,0.519
16.54,31879.0,34949.6,-2.0642,-0.6098,144.7,97.0,0.519
16.56,31933.3,35046.4,-1.1389,0.5582,144.7,97.0,0.519
16.58,31986.9,35094.6,-0.2262,1.1402,144.7,97.0,0.519
16.6,32085.6,35132.9,1.4553,1.6024,144.7,97.0,0.519
16.62,32097.8,35059.2,1.6639,0.7131,144.7,97.0,0.519
16.64,32095.3,35225.2,1.621,2.7171,144.7,97.0,0.519
16.66,31999.3,35082.5,-0.0149,0.9936,144.7,97.0,0.519
16.68,31986.5,35082.0,-0.2326,0.9879,144.7,97.0,0.519
16.7,31970.4,35075.3,-0.5076,0.9078,144.7,97.0,0.519
16.72,32060.5,34840.9,1.0278,-1.9232,144.7,97.0,0.519
16.74,32024.1,35007.8,0.4078,0.0926,144.7,97.0,0.519
16.76,32092.8,35064.1,1.5788,0.7723,144.7,97.0,0.519
16.78,31941.0,34984.7,-1.0082,-0.1865,144.7,97.0,0.519
16.8,32000.1,34932.1,-0.0011,-0.8211,144.7,97.0,0.519
16.82,31999.9,34909.7,-0.0044,-1.0918,144.7,97.0,0.519
16.84,31962.7,34980.1,-0.6389,-0.2417,144.7,97.0,0.519
16.86,32016.3,34974.0,0.2751,-0.3152,144.7,97.0,0.519
16.88,31963.4,34942.2,-0.6272,-0.6992,144.7,97.0,0.519
16.9,32043.2,34844.3,0.7337,-1.8816,144.7,97.0,0.519
16.92,31859.0,34865.3,-2.4061,-1.6286,144.7,97.0,0.519
16.94,31948.5,34977.1,-0.8808,-0.2784,144.7,97.0,0.519
16.96,31984.7,34998.6,-0.2643,-0.0191,144.7,97.0,0.519
16.98,31958.8,34972.0,-0.7055,-0.3396,144.7,97.0,0.519
17.0,32090.2,35000.4,1.5349,0.0034,144.7,97.0,0.519
17.02,32031.5,34977.0,0.5348,-0.2798,144.7,97.0,0.519
17.04,31986.9,35149.8,-0.2254,1.8061,144.7,97.0,0.519
17.06,32020.5,35141.9,0.3475,1.7116,144.7,97.0,0.519
17.08,32015.8,35116.2,0.2661,1.4008,144.7,97.0,0.519
17.1,31992.3,35044.8,-0.1336,0.5392,144.7,97.0,0.519
17.12,32025.4,34947.9,0.4298,-0.6305,144.7,97.0,0.519
17.14,32030.3,35045.0,0.5132,0.5417,144.7,97.0,0.519
17.16,32104.7,34955.8,1.7812,-0.5353,144.7,97.0,0.519
17.18,32069.5,35000.0,1.1809,-0.0021,144.7,97.0,0.519
17.2,32000.7,34946.2,0.0088,-0.6518,144.7,97.0,0.519
17.22,32043.2,34992.2,0.733,-0.0963,144.7,97.0,0.519
17.24,31955.8,34897.9,-0.7553,-1.2349,144.7,97.0,0.519
17.26,31961.7,34975.3,-0.6549,-0.3003,144.7,97.0,0.519
17.28,31967.7,34978.6,-0.5531,-0.2607,144.7,97.0,0.519
17.3,31967.8,34844.8,-0.5513,-1.8758,144.7,97.0,0.519
17.32,32011.3,34878.3,0.1893,-1.4716,144.7,97.0,0.519
17.34,31928.1,34930.6,-1.2279,-0.8397,144.7,97.0,0.519
17.36,31939.7,34883.6,-1.0302,-1.4071,144.7,97.0,0.519
17.38,32053.6,34938.9,0.9107,-0.7396,144.7,97.0,0.519
17.4,31982.4,35060.5,-0.3025,0.7289,144.7,97.0,0.519
17.42,32006.7,35053.0,0.1113,0.6376,144.7,97.0,0.519
17.44,32062.3,35180.7,1.059,2.1803,144.7,97.0,0.519
17.46,32065.3,35178.3,1.1099,2.1512,144.7,97.0,0.519
17.48,31980.5,35232.8,-0.3352,2.809,144.7,97.0,0.519
17.5,31996.9,35088.2,-0.0563,1.0629,144.7,97.0,0.519
17.52,31994.8,35083.2,-0.092,1.0023,144.7,97.0,0.519
17.54,32015.9,35076.8,0.2686,0.9256,144.7,97.0,0.519
17.56,32026.5,34970.0,0.448,-0.3637,144.7,97.0,0.519
17.58,31965.3,34999.5,-0.5942,-0.0083,144.7,97.0,0.519
17.6,32037.2,34906.8,0.6306,-1.1266,144.7,97.0,0.519
17.62,31978.5,34977.8,-0.3693,-0.2694,144.7,97.0,0.519
17.64,32017.7,34955.3,0.2985,-0.5418,144.7,97.0,0.519
17.66,32006.4,34916.8,0.1069,-1.006,144.7,97.0,0.519
17.68,31919.2,34950.1,-1.3798,-0.6042,144.7,97.0,0.519
17.7,31899.1,34879.6,-1.7225,-1.4558,144.7,97.0,0.519
17.72,31912.7,34971.8,-1.491,-0.3418,144.7,97.0,0.519
17.74,31955.0,34918.1,-0.7703,-0.991,144.7,97.0,0.519
17.76,31920.6,34933.8,-1.3552,-0.8005,144.7,97.0,0.519
17.78,31981.1,34826.8,-0.3246,-2.0925,144.7,97.0,0.519
17.8,32021.2,35011.9,0.3586,0.1423,144.7,97.0,0.519
17.82,32001.9,35036.1,0.0301,0.4345,144.7,97.0,0.519
17.84,31993.8,35088.0,-0.1075,1.0602,144.7,97.0,0.519
17.86,32153.5,35126.3,2.6132,1.5233,144.7,97.0,0.519
17.88,32060.5,35136.3,1.0285,1.6438,144.7,97.0,0.519
17.9,32052.3,35129.7,0.888,1.5639,144.7,97.0,0.519
17.92,32051.7,35054.9,0.8781,0.6608,144.7,97.0,0.519
17.94,32032.3,35132.9,0.5473,1.6025,144.7,97.0,0.519
17.96,32117.0,35052.7,1.9905,0.6343,144.7,97.0,0.519
17.98,32012.3,35129.0,0.2077,1.5553,144.7,97.0,0.519
18.0,31973.0,34994.1,-0.4632,-0.0731,144.7,97.0,0.519
18.02,31925.3,34991.9,-1.2749,-0.0997,144.7,97.0,0.519
18.04,31988.8,34849.1,-0.1928,-1.8234,144.7,97.0,0.519
18.06,31956.7,35015.7,-0.7406,0.1872,144.7,97.0,0.519
18.08,32035.6,34903.5,0.6033,-1.167,144.7,97.0,0.519
18.1,31980.7,34985.0,-0.3323,-0.1835,144.7,97.0,0.519
18.12,31934.5,35040.5,-1.1196,0.487,144.7,97.0,0.519
18.14,31986.9,34911.9,-0.2254,-1.066,144.7,97.0,0.519
18.16,31990.4,34951.8,-0.1663,-0.5833,144.7,97.0,0.519
18.18,31884.9,34904.7,-1.9645,-1.1529,144.7,97.0,0.519
18.2,31953.4,34890.4,-0.7972,-1.3255,144.7,97.0,0.519
18.22,31992.8,34926.2,-0.1262,-0.8923,144.7,97.0,0.519
18.24,32046.5,34957.3,0.7902,-0.5178,144.7,97.0,0.519
18.26,31934.2,35064.8,-1.1237,0.781,144.7,97.0,0.519
18.28,32042.6,35134.4,0.7233,1.6211,144.7,97.0,0.519
18.3,32088.3,35152.8,1.5012,1.8426,144.7,97.0,0.519
18.32,32006.0,35042.3,0.0994,0.5084,144.7,97.0,0.519
18.34,32082.4,35007.9,1.4011,0.0933,144.7,97.0,0.519
18.36,31950.7,35009.8,-0.8432,0.1163,144.7,97.0,0.519
18.38,32024.2,35062.8,0.409,0.7562,144.7,97.0,0.519
18.4,32020.4,35042.6,0.3449,0.5125,144.7,97.0,0.519
18.42,32076.4,34909.9,1.2985,-1.0897,144.7,97.0,0.519
18.44,31991.0,35019.7,-0.1562,0.2355,144.7,97.0,0.519
18.46,31975.7,34936.1,-0.4173,-0.773,144.7,97.0,0.519
18.48,32003.7,34946.5,0.0604,-0.6477,144.7,97.0,0.519
18.5,31948.1,34989.2,-0.8877,-0.1324,144.7,97.0,0.519
18.52,31971.7,34989.1,-0.4852,-0.1331,144.7,97.0,0.519
18.54,31900.1,35035.5,-1.7052,0.4273,144.7,97.0,0.519
18.56,31993.3,34956.0,-0.1168,-0.5326,144.7,97.0,0.519
18.58,31941.3,34841.3,-1.0027,-1.9174,144.7,97.0,0.519
18.6,31962.3,34926.7,-0.6447,-0.8874,144.7,97.0,0.519
18.62,31938.6,35046.9,-1.0495,0.5641,144.7,97.0,0.519
18.64,31925.3,35015.2,-1.276,0.1815,144.7,97.0,0.519
18.66,32017.9,35045.5,0.3015,0.5475,144.7,97.0,0.519
18.68,32046.9,34991.5,0.7963,-0.1045,144.7,97.0,0.519
18.7,32010.3,35131.6,0.1721,1.5876,144.7,97.0,0.519
18.72,32000.1,35136.7,-0.0017,1.6485,144.7,97.0,0.519
18.74,32124.2,35041.3,2.1139,0.4972,144.7,97.0,0.519
18.76,32008.2,35016.2,0.1366,0.1932,144.7,97.0,0.519
18.78,32034.2,34976.6,0.5793,-0.2846,144.7,97.0,0.519
18.8,32009.4,35072.4,0.1574,0.8721,144.7,97.0,0.519
18.82,32035.9,34999.4,0.6083,-0.0094,144.7,97.0,0.519
18.84,31975.3,34927.2,-0.4241,-0.8812,144.7,97.0,0.519
18.86,31961.4,34977.5,-0.6606,-0.273,144.7,97.0,0.519
18.88,31991.3,34979.7,-0.1513,-0.2475,144.7,97.0,0.519
18.9,31956.0,35022.8,-0.7531,0.2736,144.7,97.0,0.519
18.92,31880.8,34976.8,-2.0331,-0.2825,144.7,97.0,0.519
18.94,31935.4,34884.2,-1.104,-1.4001,144.7,97.0,0.519
18.96,31915.6,34976.6,-1.4416,-0.285,144.7,97.0,0.519
18.98,31990.5,34964.2,-0.164,-0.4336,144.7,97.0,0.519
19.0,32014.3,34992.0,0.2415,-0.0988,144.7,97.0,0.519
19.02,31944.9,35043.7,-0.9423,0.5255,144.7,97.0,0.519
19.04,31960.9,34895.6,-0.6686,-1.2622,144.7,97.0,0.519
19.06,32112.9,35019.5,1.9207,0.2341,144.7,97.0,0.519
19.08,31970.5,35006.2,-0.5059,0.0728,144.7,97.0,0.519
19.1,31943.9,35094.6,-0.9591,1.1406,144.7,97.0,0.519
19.12,32057.0,35199.6,0.969,2.4083,144.7,97.0,0.519
19.14,32090.3,35107.9,1.5367,1.3013,144.7,97.0,0.519
19.16,32060.4,35212.0,1.0263,2.5573,144.7,97.0,0.519
19.18,32037.0,35024.8,0.627,0.2975,144.7,97.0,0.519
19.2,32075.6,35103.6,1.2848,1.2485,144.7,97.0,0.519
19.22,32020.0,35024.8,0.3375,0.2977,144.7,97.0,0.519
19.24,32018.7,35082.0,0.3152,0.9887,144.7,97.0,0.519
19.26,32081.7,35002.4,1.3895,0.0272,144.7,97.0,0.519
19.28,31986.3,34934.8,-0.237,-0.7892,144.7,97.0,0.519
19.3,32052.6,34954.6,0.8933,-0.5498,144.7,97.0,0.519
19.32,31930.6,34989.9,-1.1856,-0.1241,144.7,97.0,0.519
19.34,31961.2,34953.1,-0.6639,-0.5683,144.7,97.0,0.519
19.36,31923.9,35044.1,-1.3,0.5309,144.7,97.0,0.519
19.38,31927.1,34874.3,-1.2444,-1.5192,144.7,97.0,0.519
19.4,31993.6,34925.5,-0.1113,-0.9016,144.7,97.0,0.519
19.42,31931.6,34884.5,-1.1686,-1.3959,144.7,97.0,0.519
19.44,32009.5,34898.9,0.1585,-1.2226,144.7,97.0,0.519
19.46,32041.2,34956.3,0.6991,-0.5295,144.7,97.0,0.519
19.48,32003.0,34990.0,0.0477,-0.1231,144.7,97.0,0.519
19.5,32055.9,35103.2,0.9493,1.2439,144.7,97.0,0.519
19.52,32151.0,35139.5,2.5705,1.6829,144.7,97.0,0.519
19.54,32030.3,35174.8,0.513,2.1083,144.7,97.0,0.519
19.56,32055.9,34989.1,0.9493,-0.1333,144.7,97.0,0.519
19.58,32047.6,35082.9,0.8088,0.9989,144.7,97.0,0.519
19.6,32078.5,34991.6,1.3351,-0.1033,144.7,97.0,0.519
19.62,31992.4,34938.3,-0.1328,-0.7468,144.7,97.0,0.519
19.64,32009.6,34972.2,0.1608,-0.3369,144.7,97.0,0.519
19.66,31971.1,34991.2,-0.495,-0.1083,144.7,97.0,0.519
19.68,32005.4,35091.1,0.0887,1.0977,144.7,97.0,0.519
19.7,32042.1,34968.8,0.7152,-0.3787,144.7,97.0,0.519
19.72,31916.4,34917.0,-1.4271,-1.0044,144.7,97.0,0.519
19.74,31865.2,34923.1,-2.2995,-0.9306,144.7,97.0,0.519
19.76,31941.6,34943.1,-0.9983,-0.6891,144.7,97.0,0.519
19.78,31950.1,34911.9,-0.8533,-1.0652,144.7,97.0,0.519
19.8,31869.0,34934.5,-2.2357,-0.7924,144.7,97.0,0.519
19.82,31953.2,34902.2,-0.8001,-1.183,144.7,97.0,0.519
19.84,32011.2,34897.2,0.1882,-1.243,144.7,97.0,0.519
19.86,31988.6,34909.8,-0.1975,-1.0903,144.7,97.0,0.519
19.88,32078.3,35005.7,1.3318,0.0669,144.7,97.0,0.519
19.9,31983.1,35028.1,-0.2905,0.3371,144.7,97.0,0.519
19.92,31985.0,35063.5,-0.2591,0.7648,144.7,97.0,0.519
19.94,32062.0,35115.1,1.0534,1.3872,144.7,97.0,0.519
19.96,32111.2,35156.5,1.892,1.8874,144.7,97.0,0.519
19.98,32073.9,35104.3,1.2564,1.2572,144.7,97.0,0.519
20.0,32094.6,35098.7,1.61,1.1898,144.7,97.0,0.519
20.02,31993.0,35010.2,-0.1212,0.1209,144.7,97.0,0.519
20.04,32039.6,35091.4,0.6727,1.1014,144.7,97.0,0.519
20.06,31964.8,35066.6,-0.6026,0.8018,144.7,97.0,0.519
20.08,31972.2,35020.7,-0.4763,0.2485,144.7,97.0,0.519
20.1,31958.4,35072.0,-0.7116,0.8678,144.7,97.0,0.519
20.12,32028.1,34901.2,0.476,-1.1941,144.7,97.0,0.519
20.14,32059.6,34970.7,1.0128,-0.3557,144.7,97.0,0.519
20.16,32003.9,35048.4,0.0634,0.582,144.7,97.0,0.519
20.18,31920.9,34967.2,-1.3513,-0.3983,144.7,97.0,0.519
20.2,31946.7,34937.0,-0.9106,-0.763,144.7,97.0,0.519
20.22,31906.8,34938.7,-1.5913,-0.7419,144.7,97.0,0.519
20.24,31863.6,34922.3,-2.3263,-0.94,144.7,97.0,0.519
20.26,31944.9,34946.8,-0.9424,-0.6437,144.7,97.0,0.519
20.28,32018.6,34905.4,0.3145,-1.1438,144.7,97.0,0.519
20.3,32005.5,34967.2,0.0907,-0.398,144.7,97.0,0.519
20.32,32068.8,35058.2,1.1702,0.7003,144.7,97.0,0.519
20.34,31961.3,35092.7,-0.6621,1.1178,144.7,97.0,0.519
20.36,32143.6,35122.4,2.4439,1.476,144.7,97.0,0.519
20.38,32048.2,35101.0,0.8182,1.2174,144.7,97.0,0.519
20.4,32047.2,35081.9,0.8018,0.9872,144.7,97.0,0.519
20.42,32122.4,35003.5,2.0838,0.0398,144.7,97.0,0.519
20.44,32026.0,35052.3,0.4404,0.6291,144.7,97.0,0.519
20.46,31932.1,35028.7,-1.1602,0.3445,144.7,97.0,0.519
20.48,32038.3,35048.5,0.6498,0.5833,144.7,97.0,0.519
20.5,32000.6,35044.1,0.0078,0.5301,144.7,97.0,0.519
20.52,32042.4,34996.9,0.7196,-0.0388,144.7,97.0,0.519
20.54,32030.9,34919.3,0.5243,-0.9756,144.7,97.0,0.519
20.56,31902.7,34783.7,-1.6603,-2.6132,144.7,97.0,0.519
20.58,31958.6,35048.7,-0.709,0.5858,144.7,97.0,0.519
20.6,31882.3,34897.1,-2.0075,-1.2438,144.7,97.0,0.519
20.62,31894.3,34898.5,-1.8042,-1.2272,144.7,97.0,0.519
20.64,31963.7,34925.7,-0.6205,-0.8985,144.7,97.0,0.519
20.66,31921.5,34892.3,-1.3408,-1.3022,144.7,97.0,0.519
20.68,31988.4,34937.7,-0.2008,-0.7537,144.7,97.0,0.519
20.7,31921.2,34957.5,-1.3454,-0.5147,144.7,97.0,0.519
20.72,31954.5,34959.0,-0.7778,-0.497,144.7,97.0,0.519
20.74,31994.3,35074.0,-0.0998,0.892,144.7,97.0,0.519
20.76,32034.2,35091.8,0.5797,1.1062,144.7,97.0,0.519
20.78,32045.2,35131.8,0.7676,1.5899,144.7,97.0,0.519
20.8,32014.8,35156.6,0.2495,1.8891,144.7,97.0,0.519
20.82,32050.5,34996.4,0.8573,-0.0454,144.7,97.0,0.519
20.84,32017.2,34980.4,0.2903,-0.2389,144.7,97.0,0.519
20.86,31969.1,35011.3,-0.5285,0.1349,144.7,97.0,0.519
20.88,32006.5,34997.6,0.1078,-0.031,144.7,97.0,0.519
20.9,31989.1,35039.7,-0.1891,0.4772,144.7,97.0,0.519
20.92,31986.9,35025.4,-0.2266,0.3052,144.7,97.0,0.519
20.94,32015.2,34980.7,0.2562,-0.2344,144.7,97.0,0.519
20.96,31984.3,34956.8,-0.2702,-0.5233,144.7,97.0,0.519
20.98,31887.6,34902.8,-1.9184,-1.1757,144.7,97.0,0.519
21.0,31987.3,34832.9,-0.2194,-2.0192,144.7,97.0,0.519
21.02,31982.6,35003.8,-0.2984,0.0441,144.7,97.0,0.519
21.04,31980.0,34869.6,-0.344,-1.5762,144.7,97.0,0.519
21.06,31880.5,34927.8,-2.0382,-0.8732,144.7,97.0,0.519
21.08,31966.0,34965.2,-0.5823,-0.4215,144.7,97.0,0.519
21.1,31983.6,34930.5,-0.2814,-0.8409,144.7,97.0,0.519
21.12,31929.2,35051.5,-1.2097,0.6194,144.7,97.0,0.519
21.14,32004.2,34977.6,0.0686,-0.2723,144.7,97.0,0.519
21.16,32016.9,35058.9,0.285,0.7098,144.7,97.0,0.519
21.18,32031.5,35124.5,0.5333,1.5012,144.7,97.0,0.519
21.2,32099.9,35205.3,1.6997,2.4764,144.7,97.0,0.519
21.22,32048.3,35076.8,0.8212,0.9253,144.7,97.0,0.519
21.24,32052.8,35131.3,0.8968,1.5837,144.7,97.0,0.519
21.26,32042.6,35084.8,0.7237,1.0223,144.7,97.0,0.519
21.28,32056.1,34920.0,0.953,-0.9681,144.7,97.0,0.519
21.3,32039.3,34951.2,0.6673,-0.5914,144.7,97.0,0.519
21.32,31932.3,34972.2,-1.1572,-0.3379,144.7,97.0,0.519
21.34,32023.7,34984.9,0.4012,-0.1841,144.7,97.0,0.519
21.36,32079.6,34931.5,1.3538,-0.8292,144.7,97.0,0.519
21.38,32033.3,34952.4,0.5649,-0.5764,144.7,97.0,0.519
21.4,31944.5,34846.6,-0.949,-1.8535,144.7,97.0,0.519
21.42,31907.7,34895.1,-1.5751,-1.2685,144.7,97.0,0.519
21.44,32009.7,34952.0,0.162,-0.5819,144.7,97.0,0.519
21.46,31951.3,34956.8,-0.8333,-0.5238,144.7,97.0,0.519
21.48,32000.1,34856.8,-0.0014,-1.7304,144.7,97.0,0.519
21.5,32077.5,34957.6,1.3185,-0.5134,144.7,97.0,0.519
21.52,31829.8,34926.8,-2.9031,-0.8857,144.7,97.0,0.519
21.54,32023.8,34955.2,0.4029,-0.5431,144.7,97.0,0.519
21.56,32053.6,34985.3,0.9104,-0.1799,144.7,97.0,0.519
21.58,32060.4,35140.1,1.0257,1.6902,144.7,97.0,0.519
21.6,32144.1,35103.8,2.4527,1.2511,144.7,97.0,0.519
21.62,32032.7,35129.2,0.5552,1.5578,144.7,97.0,0.519
21.64,32074.7,34993.1,1.27,-0.0847,144.7,97.0,0.519
21.66,32060.9,34982.3,1.035,-0.2156,144.7,97.0,0.519
21.68,31897.5,35074.7,-1.7485,0.9005,144.7,97.0,0.519
21.7,31917.8,35069.5,-1.4041,0.8374,144.7,97.0,0.519
21.72,31998.5,35080.9,-0.0279,0.9754,144.7,97.0,0.519
21.74,32053.8,34999.2,0.9146,-0.0111,144.7,97.0,0.519
21.76,31994.3,34976.0,-0.0992,-0.2916,144.7,97.0,0.519
21.78,32019.0,34944.4,0.3204,-0.6729,144.7,97.0,0.519
21.8,31913.5,35017.5,-1.4773,0.2099,144.7,97.0,0.519
21.82,31958.2,34892.2,-0.7156,-1.303,144.7,97.0,0.519
21.84,32001.7,34911.7,0.0269,-1.0675,144.7,97.0,0.519
21.86,31967.7,34887.2,-0.5532,-1.3634,144.7,97.0,0.519
21.88,31931.9,34829.9,-1.1635,-2.056,144.7,97.0,0.519
21.9,32003.3,35076.7,0.0539,0.9239,144.7,97.0,0.519
21.92,31993.4,34963.2,-0.1144,-0.4457,144.7,97.0,0.519
21.94,32047.7,34868.7,0.8094,-1.5866,144.7,97.0,0.519
21.96,32039.0,35128.5,0.662,1.5497,144.7,97.0,0.519
21.98,32036.4,35081.1,0.617,0.9777,144.7,97.0,0.519
22.0,32019.6,35071.2,0.3314,0.8579,144.7,97.0,0.519
22.02,32050.9,35089.6,0.864,1.0799,144.7,97.0,0.519
22.04,32043.7,35077.4,0.7421,0.9324,144.7,97.0,0.519
22.06,32039.4,35009.0,0.6687,0.1067,144.7,97.0,0.519
22.08,32059.1,35078.7,1.0046,0.9481,144.7,97.0,0.519
22.1,32071.2,34957.2,1.2101,-0.5186,144.7,97.0,0.519
22.12,32007.1,35034.3,0.1189,0.4123,144.7,97.0,0.519
22.14,32071.3,35016.7,1.2117,0.1996,144.7,97.0,0.519
22.16,32057.6,34976.5,0.9788,-0.2859,144.7,97.0,0.519
22.18,31963.5,35038.2,-0.6254,0.4593,144.7,97.0,0.519
22.2,32010.2,35039.9,0.1719,0.4797,144.7,97.0,0.519
22.22,32009.7,34949.4,0.1619,-0.6126,144.7,97.0,0.519
22.24,32027.3,34990.7,0.4617,-0.1147,144.7,97.0,0.519
22.26,31987.1,35004.2,-0.2232,0.0491,144.7,97.0,0.519
22.28,31959.2,34913.3,-0.6977,-1.0482,144.7,97.0,0.519
22.3,31933.6,34904.2,-1.1338,-1.1586,144.7,97.0,0.519
22.32,31992.7,34907.8,-0.1264,-1.1153,144.7,97.0,0.519
22.34,32024.9,34906.2,0.4218,-1.1346,144.7,97.0,0.519
22.36,31974.1,34952.0,-0.4435,-0.5819,144.7,97.0,0.519
22.38,32077.1,34962.6,1.3108,-0.4537,144.7,97.0,0.519
22.4,32131.4,35056.4,2.2363,0.6785,144.7,97.0,0.519
22.42,32041.2,35046.2,0.6999,0.5561,144.7,97.0,0.519
22.44,32001.1,35029.6,0.0159,0.3555,144.7,97.0,0.519
22.46,32030.3,35115.1,0.5136,1.3872,144.7,97.0,0.519
22.48,32078.7,35156.4,1.3376,1.8864,144.7,97.0,0.519
22.5,32069.2,35043.6,1.1756,0.5248,144.7,97.0,0.519
22.52,32022.8,34944.9,0.3861,-0.6667,144.7,97.0,0.519
22.54,32099.4,34993.0,1.6903,-0.0861,144.7,97.0,0.519
22.56,32014.0,35019.0,0.2352,0.2281,144.7,97.0,0.519
22.58,32032.1,35054.5,0.5448,0.6563,144.7,97.0,0.519
22.6,31969.6,34857.4,-0.5208,-1.7232,144.7,97.0,0.519
22.62,31973.3,35038.8,-0.4571,0.4671,144.7,97.0,0.519
22.64,31972.1,34933.5,-0.4787,-0.8051,144.7,97.0,0.519
22.66,32041.4,34934.5,0.7034,-0.7927,144.7,97.0,0.519
22.68,31921.3,34918.5,-1.3439,-0.9858,144.7,97.0,0.519
22.7,32007.6,34902.9,0.1275,-1.1744,144.7,97.0,0.519
22.72,31901.8,34864.2,-1.6769,-1.6418,144.7,97.0,0.519
22.74,32017.8,34918.3,0.3012,-0.9883,144.7,97.0,0.519
22.76,31952.2,34904.4,-0.8177,-1.1555,144.7,97.0,0.519
22.78,31937.3,34870.2,-1.0709,-1.5692,144.7,97.0,0.519
22.8,32042.4,34940.9,0.7194,-0.7157,144.7,97.0,0.519
22.82,32059.5,35114.3,1.011,1.3781,144.7,97.0,0.519
22.84,32024.1,35176.1,0.4086,2.1236,144.7,97.0,0.519
22.86,32052.4,35135.8,0.8898,1.6383,144.7,97.0,0.519
22.88,32034.4,35011.0,0.5831,0.1311,144.7,97.0,0.519
22.9,32040.2,35048.1,0.6831,0.5794,144.7,97.0,0.519
22.92,32062.2,34940.5,1.0579,-0.7203,144.7,97.0,0.519
22.94,31966.6,34962.8,-0.5714,-0.4511,144.7,97.0,0.519
22.96,32050.0,35036.2,0.8499,0.4352,144.7,97.0,0.519
22.98,32015.4,34980.1,0.2597,-0.2423,144.7,97.0,0.519
23.0,32017.0,34983.4,0.2869,-0.2026,144.7,97.0,0.519
23.02,31937.2,34902.9,-1.0726,-1.1739,144.7,97.0,0.519
23.04,32037.4,34965.7,0.6344,-0.4164,144.7,97.0,0.519
23.06,31975.8,34894.0,-0.4145,-1.2822,144.7,97.0,0.519
23.08,31913.6,34782.5,-1.4756,-2.6274,144.7,97.0,0.519
23.1,32061.4,34975.4,1.0443,-0.2988,144.7,97.0,0.519
23.12,31907.3,34902.8,-1.5818,-1.1756,144.7,97.0,0.519
23.14,32033.4,34911.7,0.5656,-1.0676,144.7,97.0,0.519
23.16,31997.9,34907.3,-0.0381,-1.121,144.7,97.0,0.519
23.18,32006.7,34844.0,0.1113,-1.8847,144.7,97.0,0.519
23.2,31997.2,35032.9,-0.0496,0.3949,144.7,97.0,0.519
23.22,32040.7,35131.0,0.6912,1.5793,144.7,97.0,0.519
23.24,32011.4,35113.9,0.1908,1.3729,144.7,97.0,0.519
23.26,32034.9,35131.6,0.5914,1.5873,144.7,97.0,0.519
23.28,31995.6,35091.3,-0.077,1.1009,144.7,97.0,0.519
23.3,32006.6,35121.0,0.1097,1.4587,144.7,97.0,0.519
23.32,32049.4,35060.6,0.8398,0.7302,144.7,97.0,0.519
23.34,31960.9,34980.3,-0.6686,-0.2397,144.7,97.0,0.519
23.36,32071.5,35101.8,1.216,1.2277,144.7,97.0,0.519
23.38,32039.9,34975.2,0.678,-0.3011,144.7,97.0,0.519
23.4,31914.1,34960.4,-1.4673,-0.4796,144.7,97.0,0.519
23.42,31957.9,34910.0,-0.7203,-1.0889,144.7,97.0,0.519
23.44,31974.3,34946.1,-0.4405,-0.652,144.7,97.0,0.519
23.46,31957.3,35042.4,-0.73,0.5099,144.7,97.0,0.519
23.48,32003.7,34960.2,0.06,-0.4823,144.7,97.0,0.519
23.5,31914.0,34981.2,-1.4685,-0.2287,144.7,97.0,0.519
23.52,32018.6,35007.8,0.3135,0.0922,144.7,97.0,0.519
23.54,31995.5,34928.2,-0.0788,-0.8691,144.7,97.0,0.519
23.56,31848.9,34909.4,-2.5783,-1.0959,144.7,97.0,0.519
23.58,31862.7,34949.5,-2.3431,-0.6114,144.7,97.0,0.519
23.6,31972.2,34834.7,-0.4773,-1.9979,144.7,97.0,0.519
23.62,32097.9,34927.9,1.666,-0.8725,144.7,97.0,0.519
23.64,31991.6,35009.2,-0.1452,0.1093,144.7,97.0,0.519
23.66,32017.5,35156.7,0.2947,1.8903,144.7,97.0,0.519
23.68,32046.2,35168.8,0.7842,2.0365,144.7,97.0,0.519
23.7,32045.9,35159.3,0.7795,1.9208,144.7,97.0,0.519
23.72,32129.5,35081.9,2.2046,0.9871,144.7,97.0,0.519
23.74,32070.6,35060.1,1.1998,0.7243,144.7,97.0,0.519
23.76,32035.5,34915.4,0.6017,-1.0236,144.7,97.0,0.519
23.78,32045.9,34971.3,0.7791,-0.3484,144.7,97.0,0.519
23.8,31983.4,34872.2,-0.2852,-1.5447,144.7,97.0,0.519
23.82,31929.2,34982.3,-1.2091,-0.2151,144.7,97.0,0.519
23.84,32003.0,34958.4,0.0487,-0.5042,144.7,97.0,0.519
23.86,31941.3,35027.3,-1.0023,0.328,144.7,97.0,0.519
23.88,31968.6,34941.2,-0.5377,-0.7113,144.7,97.0,0.519
23.9,31989.0,34842.9,-0.19,-1.8983,144.7,97.0,0.519
23.92,31946.7,34917.4,-0.9117,-0.9992,144.7,97.0,0.519
23.94,31981.1,34953.6,-0.3255,-0.5623,144.7,97.0,0.519
23.96,31998.3,34880.3,-0.0322,-1.4471,144.7,97.0,0.519
23.98,31982.9,34903.9,-0.2948,-1.1621,144.7,97.0,0.519
24.0,31994.0,34916.5,-0.1056,-1.0098,144.7,97.0,0.519
24.02,32005.2,34912.5,0.0858,-1.0586,144.7,97.0,0.519
24.04,31996.9,35001.0,-0.0552,0.0096,144.7,97.0,0.519
24.06,32081.4,35115.9,1.3844,1.3978,144.7,97.0,0.519
24.08,32089.7,35133.0,1.5264,1.6038,144.7,97.0,0.519
24.1,31977.8,35074.6,-0.3807,0.8989,144.7,97.0,0.519
24.12,31985.1,35104.1,-0.2563,1.2549,144.7,97.0,0.519
24.14,32038.0,35172.5,0.644,2.0809,144.7,97.0,0.519
24.16,32095.0,34984.1,1.6168,-0.1942,144.7,97.0,0.519
24.18,31957.5,35065.5,-0.7269,0.7892,144.7,97.0,0.519
24.2,32063.5,35047.3,1.0801,0.5695,144.7,97.0,0.519
24.22,32061.4,35045.2,1.0439,0.5442,144.7,97.0,0.519
24.24,31935.4,34940.4,-1.1034,-0.721,144.7,97.0,0.519
24.26,31994.3,35055.2,-0.1006,0.6645,144.7,97.0,0.519
24.28,32012.5,35013.4,0.2105,0.1604,144.7,97.0,0.519
24.3,31899.5,34998.8,-1.7147,-0.0158,144.7,97.0,0.519
24.32,31937.8,35010.8,-1.0629,0.1282,144.7,97.0,0.519
24.34,31930.5,34881.7,-1.1875,-1.4303,144.7,97.0,0.519
24.36,31901.6,34922.3,-1.6792,-0.94,144.7,97.0,0.519
24.38,31992.4,34884.9,-0.1327,-1.3915,144.7,97.0,0.519
24.4,31918.1,34859.4,-1.3982,-1.6996,144.7,97.0,0.519
24.42,31981.5,34907.3,-0.3172,-1.1211,144.7,97.0,0.519
24.44,32051.6,34957.0,0.877,-0.5216,144.7,97.0,0.519
24.46,32006.5,35020.0,0.1081,0.2401,144.7,97.0,0.519
24.48,32120.5,35182.3,2.0505,2.1988,144.7,97.0,0.519
24.5,32049.4,35108.3,0.8387,1.3054,144.7,97.0,0.519
24.52,32048.7,35045.2,0.8275,0.544,144.7,97.0,0.519
24.54,31991.2,35101.8,-0.1534,1.2277,144.7,97.0,0.519
24.56,31979.4,34989.9,-0.3535,-0.1242,144.7,97.0,0.519
24.58,32036.3,35061.4,0.6152,0.7396,144.7,97.0,0.519
24.6,31934.4,34963.0,-1.1211,-0.4485,144.7,97.0,0.519
24.62,32018.9,35036.9,0.3187,0.4435,144.7,97.0,0.519
24.64,31942.4,34973.3,-0.9845,-0.3238,144.7,97.0,0.519
24.66,32052.1,34954.5,0.8854,-0.5508,144.7,97.0,0.519
24.68,32034.7,34907.8,0.589,-1.1145,144.7,97.0,0.519
24.7,31884.0,34951.6,-1.9789,-0.5862,144.7,97.0,0.519
24.72,31933.8,34936.3,-1.1305,-0.7709,144.7,97.0,0.519
24.74,31931.8,34899.8,-1.1645,-1.2119,144.7,97.0,0.519
24.76,31962.1,34908.7,-0.6489,-1.104,144.7,97.0,0.519
24.78,31968.3,34932.2,-0.5432,-0.8204,144.7,97.0,0.519
24.8,31860.4,34980.1,-2.3819,-0.2418,144.7,97.0,0.519
24.82,31988.3,34970.1,-0.2016,-0.3631,144.7,97.0,0.519
24.84,32032.6,34950.7,0.5523,-0.5965,144.7,97.0,0.519
24.86,32026.7,34928.8,0.4528,-0.861,144.7,97.0,0.519
24.88,32042.7,35016.2,0.7245,0.1941,144.7,97.0,0.519
24.9,32110.5,35041.3,1.8798,0.4967,144.7,97.0,0.519
24.92,32066.1,35144.1,1.1234,1.738,144.7,97.0,0.519
24.94,31979.0,35056.7,-0.3611,0.6826,144.7,97.0,0.519
24.96,32119.6,35020.2,2.0348,0.2414,144.7,97.0,0.519
24.98,31985.5,35081.0,-0.2501,0.9755,144.7,97.0,0.519
25.0,32009.6,34940.3,0.1613,-0.7227,144.7,97.0,0.519
25.02,32050.0,35037.1,0.8496,0.4466,144.7,97.0,0.519
25.04,31995.3,35036.3,-0.0825,0.4368,144.7,97.0,0.519
25.06,32009.0,34951.5,0.1513,-0.588,144.7,97.0,0.519
25.08,31934.6,34988.0,-1.1169,-0.1464,144.7,97.0,0.519
25.1,32000.4,34875.9,0.0038,-1.5006,144.7,97.0,0.519
25.12,31872.4,34903.6,-2.1768,-1.1663,144.7,97.0,0.519
25.14,31901.5,34990.6,-1.6807,-0.1152,144.7,97.0,0.519
25.16,32057.0,34924.2,0.9685,-0.9164,144.7,97.0,0.519
25.18,32058.4,34928.3,0.992,-0.8677,144.7,97.0,0.519
25.2,31975.0,34930.5,-0.4279,-0.8407,144.7,97.0,0.519
25.22,31983.8,34997.7,-0.2782,-0.0295,144.7,97.0,0.519
25.24,31954.1,34915.5,-0.7853,-1.0216,144.7,97.0,0.519
25.26,31966.0,34929.7,-0.5823,-0.8509,144.7,97.0,0.519
25.28,32021.0,34942.5,0.3548,-0.6962,144.7,97.0,0.519
25.3,31965.2,35059.4,-0.5965,0.7158,144.7,97.0,0.519
25.32,32107.0,35063.8,1.8206,0.7687,144.7,97.0,0.519
25.34,32104.0,35185.1,1.7698,2.2331,144.7,97.0,0.519
25.36,32068.1,35156.1,1.1572,1.8832,144.7,97.0,0.519
25.38,31974.7,35032.8,-0.433,0.3941,144.7,97.0,0.519
25.4,32069.1,35085.8,1.1753,1.0343,144.7,97.0,0.519
25.42,31934.3,35137.5,-1.1226,1.6578,144.7,97.0,0.519
25.44,31949.1,35085.0,-0.8695,1.0246,144.7,97.0,0.519
25.46,32016.6,35046.8,0.2803,0.5628,144.7,97.0,0.519
25.48,32095.7,35032.5,1.6278,0.3909,144.7,97.0,0.519
25.5,31963.9,35070.1,-0.6179,0.8449,144.7,97.0,0.519
25.52,31970.3,34921.5,-0.5094,-0.9496,144.7,97.0,0.519
25.54,32031.7,34990.1,0.5378,-0.1214,144.7,97.0,0.519
25.56,31983.1,34982.3,-0.2911,-0.2159,144.7,97.0,0.519
25.58,31972.9,34989.6,-0.4643,-0.1279,144.7,97.0,0.519
25.6,31900.1,34975.1,-1.7057,-0.303,144.7,97.0,0.519
25.62,31960.0,34906.8,-0.6836,-1.1271,144.7,97.0,0.519
25.64,31901.5,34838.4,-1.6807,-1.9534,144.7,97.0,0.519
25.66,31966.0,35004.5,-0.5826,0.0528,144.7,97.0,0.519
25.68,32022.5,34880.4,0.3806,-1.4459,144.7,97.0,0.519
25.7,32072.3,35127.9,1.2285,1.5428,144.7,97.0,0.519
25.72,32025.9,35123.2,0.4379,1.486,144.7,97.0,0.519
25.74,32063.3,35175.9,1.0765,2.1221,144.7,97.0,0.519
25.76,32058.3,35211.8,0.9905,2.5548,144.7,97.0,0.519
25.78,32044.2,35118.2,0.7497,1.4256,144.7,97.0,0.519
25.8,32134.6,35121.6,2.2914,1.4659,144.7,97.0,0.519
25.82,32021.5,35093.6,0.363,1.1286,144.7,97.0,0.519
25.84,32024.9,35008.2,0.4208,0.0973,144.7,97.0,0.519
25.86,31969.2,34935.9,-0.5281,-0.7761,144.7,97.0,0.519
25.88,32064.7,35104.3,1.0995,1.2568,144.7,97.0,0.519
25.9,31930.2,34976.8,-1.1917,-0.2825,144.7,97.0,0.519
25.92,31977.0,34950.7,-0.3954,-0.5974,144.7,97.0,0.519
25.94,32026.1,34906.9,0.4427,-1.1262,144.7,97.0,0.519
25.96,32027.3,34909.6,0.4623,-1.0932,144.7,97.0,0.519
25.98,31996.3,34992.9,-0.0657,-0.0876,144.7,97.0,0.519
26.0,31936.4,35008.1,-1.0872,0.0965,144.7,97.0,0.519
26.02,31877.5,34949.2,-2.0905,-0.6148,144.7,97.0,0.519
26.04,31925.7,34904.1,-1.2694,-1.1598,144.7,97.0,0.519
26.06,31941.4,34849.0,-1.002,-1.8255,144.7,97.0,0.519
26.08,31943.5,34877.7,-0.9657,-1.479,144.7,97.0,0.519
26.1,32070.9,34989.0,1.2062,-0.1342,144.7,97.0,0.519
26.12,32066.9,35067.7,1.1369,0.8157,144.7,97.0,0.519
26.14,32129.4,35053.5,2.2029,0.6443,144.7,97.0,0.519
26.16,32126.5,35105.0,2.1524,1.2654,144.7,97.0,0.519
26.18,32062.0,35088.5,1.0537,1.0665,144.7,97.0,0.519
26.2,31942.9,35075.3,-0.9762,0.9074,144.7,97.0,0.519
26.22,32067.1,35019.0,1.1415,0.2272,144.7,97.0,0.519
26.24,31994.8,35037.3,-0.0919,0.4488,144.7,97.0,0.519
26.26,31975.6,35015.1,-0.4184,0.18,144.7,97.0,0.519
26.28,32039.5,34925.4,0.6706,-0.9023,144.7,97.0,0.519
26.3,31984.9,34975.1,-0.2606,-0.302,144.7,97.0,0.519
26.32,31966.2,34956.4,-0.5787,-0.5277,144.7,97.0,0.519
26.34,31994.6,35005.2,-0.0953,0.0608,144.7,97.0,0.519
26.36,31972.5,34931.9,-0.4707,-0.8235,144.7,97.0,0.519
26.38,32039.8,34990.4,0.6759,-0.1177,144.7,97.0,0.519
26.4,31961.2,34859.2,-0.6633,-1.7017,144.7,97.0,0.519
26.42,31990.9,34968.6,-0.1575,-0.3812,144.7,97.0,0.519
26.44,32064.9,34909.6,1.1032,-1.0936,144.7,97.0,0.519
26.46,31904.4,34907.2,-1.6312,-1.1217,144.7,97.0,0.519
26.48,31938.3,34969.1,-1.0539,-0.3744,144.7,97.0,0.519
26.5,31895.5,34928.2,-1.7839,-0.8693,144.7,97.0,0.519
26.52,31934.0,34981.3,-1.1268,-0.2274,144.7,97.0,0.519
26.54,32006.8,35056.9,0.113,0.6853,144.7,97.0,0.519
26.56,32004.0,35137.3,0.0661,1.6556,144.7,97.0,0.519
26.58,32114.3,35130.2,1.9452,1.57,144.7,97.0,0.519
26.6,32069.1,34961.4,1.1753,-0.4684,144.7,97.0,0.519
26.62,32007.8,35076.0,0.1305,0.9163,144.7,97.0,0.519
26.64,32051.4,35053.7,0.8726,0.6464,144.7,97.0,0.519
26.66,32104.0,35041.8,1.7695,0.5026,144.7,97.0,0.519
26.68,32009.8,34949.6,0.1643,-0.6104,144.7,97.0,0.519
26.7,32061.2,34999.3,1.0396,-0.0109,144.7,97.0,0.519
26.72,32100.4,35031.7,1.709,0.3814,144.7,97.0,0.519
26.74,32037.1,34988.8,0.6291,-0.137,144.7,97.0,0.519
26.76,31999.9,34876.1,-0.0052,-1.4979,144.7,97.0,0.519
26.78,31858.9,34956.1,-2.4072,-0.5322,144.7,97.0,0.519
26.8,32070.6,35019.7,1.2008,0.2366,144.7,97.0,0.519
26.82,31980.1,34982.0,-0.3422,-0.2193,144.7,97.0,0.519
26.84,31938.9,34927.3,-1.0436,-0.8796,144.7,97.0,0.519
26.86,32023.7,34982.8,0.4009,-0.2092,144.7,97.0,0.519
26.88,31927.9,34908.1,-1.2312,-1.1115,144.7,97.0,0.519
26.9,32014.8,35014.5,0.2501,0.1738,144.7,97.0,0.519
26.92,32026.4,34910.4,0.4475,-1.0841,144.7,97.0,0.519
26.94,32062.1,35078.5,1.0552,0.9457,144.7,97.0,0.519
26.96,31927.6,35117.8,-1.2369,1.4205,144.7,97.0,0.519
26.98,32060.7,35253.2,1.0324,3.0549,144.7,97.0,0.519
27.0,32115.6,35028.1,1.9674,0.338,144.7,97.0,0.519
27.02,32050.1,35069.1,0.8508,0.8326,144.7,97.0,0.519
27.04,32069.4,34987.8,1.1806,-0.1491,144.7,97.0,0.519
27.06,32033.7,35106.1,0.5712,1.2785,144.7,97.0,0.519
27.08,32041.3,35038.8,0.701,0.4665,144.7,97.0,0.519
27.1,31907.9,35100.0,-1.5717,1.2052,144.7,97.0,0.519
27.12,31973.1,34991.5,-0.4611,-0.1042,144.7,97.0,0.519
27.14,31946.4,34965.7,-0.9169,-0.4164,144.7,97.0,0.519
27.16,32069.4,35003.2,1.1794,0.0372,144.7,97.0,0.519
27.18,32086.2,35023.3,1.4667,0.28,144.7,97.0,0.519
27.2,32018.9,34926.8,0.3196,-0.8856,144.7,97.0,0.519
27.22,31988.2,34982.4,-0.2037,-0.2138,144.7,97.0,0.519
27.24,31926.6,34933.4,-1.2533,-0.806,144.7,97.0,0.519
27.26,31978.5,34947.3,-0.3688,-0.6383,144.7,97.0,0.519
27.28,31934.0,34921.7,-1.1267,-0.9477,144.7,97.0,0.519
27.3,31963.3,34895.5,-0.6276,-1.2631,144.7,97.0,0.519
27.32,32006.2,34899.2,0.1033,-1.219,144.7,97.0,0.519
27.34,31929.1,35021.1,-1.2114,0.2533,144.7,97.0,0.519
27.36,32069.6,35098.5,1.1835,1.1876,144.7,97.0,0.519
27.38,32103.0,35093.5,1.7522,1.1271,144.7,97.0,0.519
27.4,31999.5,35141.6,-0.0116,1.7077,144.7,97.0,0.519
27.42,32024.8,35054.5,0.4203,0.6558,144.7,97.0,0.519
27.44,31980.0,35021.9,-0.3444,0.263,144.7,97.0,0.519
27.46,32016.3,34991.3,0.2759,-0.1066,144.7,97.0,0.519
27.48,32034.7,35049.8,0.5892,0.5988,144.7,97.0,0.519
27.5,32046.8,35002.8,0.7949,0.0317,144.7,97.0,0.519
27.52,32023.8,35079.4,0.403,0.9572,144.7,97.0,0.519
27.54,31934.7,34980.7,-1.1156,-0.2347,144.7,97.0,0.519
27.56,32023.3,34962.7,0.394,-0.4519,144.7,97.0,0.519
27.58,32045.1,34922.5,0.7662,-0.9373,144.7,97.0,0.519
27.6,32005.4,35019.2,0.0893,0.2297,144.7,97.0,0.519
27.62,31948.9,34963.5,-0.8726,-0.4422,144.7,97.0,0.519
27.64,31933.8,34988.1,-1.13,-0.146,144.7,97.0,0.519
27.66,31982.8,34979.0,-0.2961,-0.256,144.7,97.0,0.519
27.68,31905.2,34930.0,-1.6178,-0.8473,144.7,97.0,0.519
27.7,31971.7,34890.8,-0.4858,-1.3207,144.7,97.0,0.519
27.72,31940.7,34935.8,-1.0126,-0.7775,144.7,97.0,0.519
27.74,31978.2,34941.7,-0.3745,-0.706,144.7,97.0,0.519
27.76,31976.9,34984.8,-0.3963,-0.1859,144.7,97.0,0.519
27.78,31992.1,35070.9,-0.138,0.8539,144.7,97.0,0.519
27.8,32003.9,35080.4,0.0641,0.9688,144.7,97.0,0.519
27.82,32153.7,35154.7,2.6167,1.8655,144.7,97.0,0.519
27.84,32080.8,35130.7,1.3745,1.5757,144.7,97.0,0.519
27.86,32070.3,35046.9,1.1956,0.5646,144.7,97.0,0.519
27.88,31986.0,35063.2,-0.241,0.7616,144.7,97.0,0.519
27.9,32016.6,35061.8,0.2805,0.7445,144.7,97.0,0.519
27.92,31969.3,35013.9,-0.5259,0.1663,144.7,97.0,0.519
27.94,32005.4,34991.0,0.0885,-0.1106,144.7,97.0,0.519
27.96,31926.6,34977.4,-1.2536,-0.2752,144.7,97.0,0.519
27.98,32002.6,34978.8,0.0417,-0.2584,144.7,97.0,0.519
28.0,31929.8,35042.7,-1.1985,0.5134,144.7,97.0,0.519
28.02,31934.3,35001.2,-1.1231,0.0129,144.7,97.0,0.519
28.04,31990.8,34888.0,-0.1588,-1.354,144.7,97.0,0.519
28.06,31993.3,34890.8,-0.1165,-1.3203,144.7,97.0,0.519
28.08,31972.9,34864.8,-0.4646,-1.6342,144.7,97.0,0.519
28.1,32009.2,34884.9,0.1541,-1.3915,144.7,97.0,0.519
28.12,32009.3,34974.8,0.1553,-0.3066,144.7,97.0,0.519
28.14,31917.3,34834.0,-1.4117,-2.0062,144.7,97.0,0.519
28.16,31993.1,35016.3,-0.1198,0.1953,144.7,97.0,0.519
28.18,31944.9,35014.7,-0.9411,0.176,144.7,97.0,0.519
28.2,32127.2,35063.1,2.1652,0.7603,144.7,97.0,0.519
28.22,32082.8,35145.0,1.4083,1.7489,144.7,97.0,0.519
28.24,32102.2,35153.9,1.7394,1.8566,144.7,97.0,0.519
28.26,31993.2,35156.5,-0.119,1.8875,144.7,97.0,0.519
28.28,32031.2,35042.2,0.5284,0.5079,144.7,97.0,0.519
28.3,32053.6,35126.1,0.9103,1.521,144.7,97.0,0.519
28.32,31991.7,35062.4,-0.1443,0.751,144.7,97.0,0.519
28.34,31987.0,35037.4,-0.2239,0.4497,144.7,97.0,0.519
28.36,31968.3,35011.2,-0.5421,0.1337,144.7,97.0,0.519
28.38,32010.3,34997.1,0.1729,-0.0365,144.7,97.0,0.519
28.4,31885.0,34936.6,-1.9616,-0.7671,144.7,97.0,0.519
28.42,32035.8,34968.7,0.6071,-0.3802,144.7,97.0,0.519
28.44,31948.0,34888.9,-0.8883,-1.3427,144.7,97.0,0.519
28.46,31869.9,34970.3,-2.2202,-0.3607,144.7,97.0,0.519
28.48,31982.8,34907.4,-0.2959,-1.1204,144.7,97.0,0.519
28.5,31963.2,34912.4,-0.6304,-1.0592,144.7,97.0,0.519
28.52,32117.6,34959.5,2.0016,-0.4911,144.7,97.0,0.519
28.54,31949.6,34942.0,-0.8612,-0.7018,144.7,97.0,0.519
28.56,31991.3,34959.5,-0.1506,-0.4903,144.7,97.0,0.519
28.58,31958.1,34986.4,-0.7171,-0.1661,144.7,97.0,0.519
28.6,32011.8,35044.7,0.1988,0.5372,144.7,97.0,0.519
28.62,31985.4,35067.0,-0.2513,0.807,144.7,97.0,0.519
28.64,32029.7,35094.9,0.5038,1.1434,144.7,97.0,0.519
28.66,32105.8,35130.3,1.8009,1.5718,144.7,97.0,0.519
28.68,32060.7,35141.7,1.0321,1.7088,144.7,97.0,0.519
28.7,32008.7,35090.2,0.1448,1.0876,144.7,97.0,0.519
28.72,32003.2,35033.9,0.0525,0.4073,144.7,97.0,0.519
28.74,32014.0,35023.5,0.2357,0.2819,144.7,97.0,0.519
28.76,31990.0,35013.8,-0.1728,0.1652,144.7,97.0,0.519
28.78,32047.6,35030.4,0.8089,0.3648,144.7,97.0,0.519
28.8,31891.5,35093.4,-1.8512,1.1252,144.7,97.0,0.519
28.82,31923.8,34951.3,-1.3011,-0.5899,144.7,97.0,0.519
28.84,31997.7,34996.4,-0.0413,-0.0449,144.7,97.0,0.519
28.86,31967.0,35006.2,-0.5649,0.0728,144.7,97.0,0.519
28.88,31997.1,34957.1,-0.0518,-0.5195,144.7,97.0,0.519
28.9,32043.1,34864.8,0.7312,-1.634,144.7,97.0,0.519
28.92,31919.4,34943.9,-1.3761,-0.6787,144.7,97.0,0.519
28.94,31976.8,34900.1,-0.3978,-1.2079,144.7,97.0,0.519
28.96,31944.0,34889.3,-0.9564,-1.3385,144.7,97.0,0.519
28.98,31943.3,34864.4,-0.9688,-1.6391,144.7,97.0,0.519
29.0,31961.0,35010.9,-0.6667,0.1296,144.7,97.0,0.519
29.02,31940.0,35075.2,-1.0254,0.9066,144.7,97.0,0.519
29.04,31946.3,35124.2,-0.9174,1.4981,144.7,97.0,0.519
29.06,31950.4,35078.3,-0.8473,0.943,144.7,97.0,0.519
29.08,32036.4,35170.6,0.6183,2.0572,144.7,97.0,0.519
29.1,32092.6,35104.0,1.575,1.2539,144.7,97.0,0.519
29.12,32043.3,35061.8,0.735,0.7439,144.7,97.0,0.519
29.14,32061.5,34968.9,1.046,-0.3771,144.7,97.0,0.519
29.16,31952.6,34981.1,-0.8097,-0.2305,144.7,97.0,0.519
29.18,32014.4,34935.3,0.2421,-0.7831,144.7,97.0,0.519
29.2,31961.4,34988.7,-0.6606,-0.1387,144.7,97.0,0.519
29.22,32007.1,35065.6,0.1186,0.7903,144.7,97.0,0.519
29.24,32011.4,34958.5,0.1914,-0.5024,144.7,97.0,0.519
29.26,31897.4,34944.4,-1.751,-0.6735,144.7,97.0,0.519
29.28,32016.3,34939.1,0.275,-0.7371,144.7,97.0,0.519
29.3,31977.1,34950.7,-0.3931,-0.5965,144.7,97.0,0.519
29.32,31930.2,34977.6,-1.1925,-0.2726,144.7,97.0,0.519
29.34,32087.1,34959.3,1.4821,-0.4936,144.7,97.0,0.519
29.36,31957.1,34967.6,-0.7334,-0.3933,144.7,97.0,0.519
29.38,31923.6,35022.5,-1.3042,0.2693,144.7,97.0,0.519
29.4,32003.1,34927.2,0.0498,-0.8812,144.7,97.0,0.519
29.42,31912.2,34927.6,-1.4981,-0.8765,144.7,97.0,0.519
29.44,32085.1,35014.5,1.4476,0.1731,144.7,97.0,0.519
29.46,32083.4,35164.6,1.418,1.9851,144.7,97.0,0.519
29.48,32071.8,35154.5,1.2201,1.8633,144.7,97.0,0.519
29.5,32116.2,35189.6,1.9768,2.2869,144.7,97.0,0.519
29.52,31972.2,35136.5,-0.4769,1.6457,144.7,97.0,0.519
29.54,32002.6,35085.8,0.0419,1.0336,144.7,97.0,0.519
29.56,32004.2,34982.7,0.069,-0.211,144.7,97.0,0.519
29.58,32022.4,35028.7,0.3797,0.3448,144.7,97.0,0.519
29.6,31995.1,35067.7,-0.0864,0.8159,144.7,97.0,0.519
29.62,31999.5,34953.5,-0.0108,-0.5627,144.7,97.0,0.519
29.64,31965.3,35030.4,-0.5945,0.3655,144.7,97.0,0.519
29.66,31873.0,35019.7,-2.1667,0.2355,144.7,97.0,0.519
29.68,31987.1,34981.1,-0.2221,-0.23,144.7,97.0,0.519
29.7,31996.1,34913.3,-0.0689,-1.0481,144.7,97.0,0.519
29.72,31948.8,34958.5,-0.8751,-0.5033,144.7,97.0,0.519
29.74,32041.3,34887.5,0.7014,-1.3606,144.7,97.0,0.519
29.76,31941.7,34946.7,-0.9954,-0.6459,144.7,97.0,0.519
29.78,31939.5,34881.2,-1.0345,-1.436,144.7,97.0,0.519
29.8,31946.1,34871.5,-0.9206,-1.5536,144.7,97.0,0.519
29.82,31997.1,34927.3,-0.0519,-0.8791,144.7,97.0,0.519
29.84,32007.1,35000.9,0.1191,0.0093,144.7,97.0,0.519
29.86,32087.9,35071.5,1.4947,0.8617,144.7,97.0,0.519
29.88,32194.9,35064.4,3.3177,0.7759,144.7,97.0,0.519
29.9,32035.9,35100.7,0.6093,1.2141,144.7,97.0,0.519
29.92,32042.4,35162.0,0.72,1.9542,144.7,97.0,0.519
29.94,32035.4,35043.3,0.6001,0.5214,144.7,97.0,0.519
29.96,32050.4,35055.5,0.8554,0.6683,144.7,97.0,0.519
29.98,31973.0,35084.8,-0.4625,1.0214,144.7,97.0,0.519
30.0,32025.1,35054.2,0.4243,0.653,144.7,97.0,0.519
30.02,31986.8,34966.9,-0.2277,-0.4014,144.7,97.0,0.519
30.04,32027.8,35002.5,0.4712,0.0288,144.7,97.0,0.519
30.06,32078.2,34932.4,1.3299,-0.8177,144.7,97.0,0.519
30.08,32068.7,34961.5,1.1674,-0.4661,144.7,97.0,0.519
30.1,32007.6,35025.4,0.1274,0.3044,144.7,97.0,0.519
30.12,31968.3,34833.6,-0.5429,-2.011,144.7,97.0,0.519
30.14,31975.2,34905.8,-0.4248,-1.1395,144.7,97.0,0.519
30.16,31963.4,34902.9,-0.6267,-1.1742,144.7,97.0,0.519
30.18,32039.2,34967.8,0.6645,-0.3909,144.7,97.0,0.519
30.2,31981.7,34973.4,-0.3137,-0.3234,144.7,97.0,0.519
30.22,31907.6,34936.4,-1.5766,-0.7696,144.7,97.0,0.519
30.24,32018.3,34923.5,0.31,-0.9257,144.7,97.0,0.519
30.26,32013.4,35075.8,0.2249,0.9129,144.7,97.0,0.519
30.28,32048.8,35131.1,0.8281,1.5814,144.7,97.0,0.519
30.3,31986.6,35169.2,-0.2315,2.0413,144.7,97.0,0.519
30.32,32032.2,35032.4,0.5463,0.3888,144.7,97.0,0.519
30.34,32047.4,35113.0,0.8054,1.3629,144.7,97.0,0.519
30.36,32019.1,35106.0,0.323,1.2782,144.7,97.0,0.519
30.38,32029.0,35013.3,0.4915,0.1589,144.7,97.0,0.519
30.4,31976.1,35007.6,-0.4105,0.0893,144.7,97.0,0.519
30.42,32036.2,35084.1,0.6147,1.013,144.7,97.0,0.519
30.44,32038.5,35051.4,0.6533,0.6185,144.7,97.0,0.519
30.46,31979.4,35056.2,-0.3531,0.6771,144.7,97.0,0.519
30.48,31932.6,34985.2,-1.1509,-0.1806,144.7,97.0,0.519
30.5,32059.4,34932.7,1.0098,-0.8141,144.7,97.0,0.519
30.52,31983.1,34949.2,-0.2912,-0.6155,144.7,97.0,0.519
30.54,31867.1,34946.1,-2.2669,-0.6531,144.7,97.0,0.519
30.56,31952.5,34921.5,-0.8127,-0.9499,144.7,97.0,0.519
30.58,32009.5,34898.1,0.1589,-1.2326,144.7,97.0,0.519
30.6,31994.6,34881.2,-0.0955,-1.4361,144.7,97.0,0.519
30.62,31889.1,34949.7,-1.8926,-0.6095,144.7,97.0,0.519
30.64,32019.0,34925.2,0.3217,-0.9054,144.7,97.0,0.519
30.66,31993.6,35000.3,-0.112,0.0014,144.7,97.0,0.519
30.68,32000.0,35021.8,-0.0033,0.2615,144.7,97.0,0.519
30.7,32083.0,35013.3,1.4109,0.1586,144.7,97.0,0.519
30.72,32148.6,35122.9,2.5291,1.4819,144.7,97.0,0.519
30.74,31921.1,35118.0,-1.3469,1.4225,144.7,97.0,0.519
30.76,32048.5,35119.6,0.8238,1.4426,144.7,97.0,0.519
30.78,31984.6,35035.3,-0.2659,0.4241,144.7,97.0,0.519
30.8,32041.7,34951.6,0.7083,-0.5862,144.7,97.0,0.519
30.82,32072.4,35031.0,1.2311,0.3719,144.7,97.0,0.519
30.84,31985.6,35010.8,-0.2486,0.128,144.7,97.0,0.519
30.86,31944.1,34957.5,-0.9549,-0.515,144.7,97.0,0.519
30.88,31887.8,34967.7,-1.9151,-0.3916,144.7,97.0,0.519
30.9,31914.2,34934.7,-1.4655,-0.7897,144.7,97.0,0.519
30.92,32015.5,34886.8,0.2621,-1.3691,144.7,97.0,0.519
30.94,31954.2,35026.9,-0.7835,0.3228,144.7,97.0,0.519
30.96,32032.9,35005.0,0.5574,0.0591,144.7,97.0,0.519
30.98,31946.9,34941.1,-0.9069,-0.7125,144.7,97.0,0.519
31.0,32015.1,35004.3,0.2544,0.0498,144.7,97.0,0.519
31.02,32010.3,35019.5,0.1733,0.2337,144.7,97.0,0.519
31.04,32009.5,34875.2,0.1588,-1.509,144.7,97.0,0.519
31.06,32008.2,34906.5,0.1373,-1.1313,144.7,97.0,0.519
31.08,32024.2,35030.2,0.4092,0.3622,144.7,97.0,0.519
31.1,32050.7,34994.7,0.8614,-0.0653,144.7,97.0,0.519
31.12,32048.6,35101.6,0.8252,1.2246,144.7,97.0,0.519
31.14,32039.2,35162.6,0.6658,1.9614,144.7,97.0,0.519
31.16,32070.6,35150.7,1.201,1.8181,144.7,97.0,0.519
31.18,31934.3,35107.9,-1.1225,1.3007,144.7,97.0,0.519
31.2,31997.5,35050.7,-0.0447,0.6099,144.7,97.0,0.519
31.22,31970.9,34940.3,-0.4989,-0.7229,144.7,97.0,0.519
31.24,32002.2,35103.2,0.0349,1.2441,144.7,97.0,0.519
31.26,31969.2,35091.6,-0.5269,1.1037,144.7,97.0,0.519
31.28,32022.0,35005.6,0.3726,0.0654,144.7,97.0,0.519
31.3,31928.4,34898.8,-1.2232,-1.2235,144.7,97.0,0.519
31.32,31876.8,35005.3,-2.102,0.0619,144.7,97.0,0.519
31.34,31968.5,34908.9,-0.5402,-1.1022,144.7,97.0,0.519
31.36,31978.9,34818.6,-0.3625,-2.1917,144.7,97.0,0.519
31.38,32056.8,34870.9,0.9647,-1.5605,144.7,97.0,0.519
31.4,31961.9,34898.7,-0.6524,-1.2248,144.7,97.0,0.519
31.42,31880.7,34858.9,-2.0356,-1.7049,144.7,97.0,0.519
31.44,31844.9,34916.0,-2.6457,-1.0165,144.7,97.0,0.519
31.46,31940.0,34911.3,-1.0249,-1.0728,144.7,97.0,0.519
31.48,32047.6,34932.9,0.8079,-0.8118,144.7,97.0,0.519
31.5,31972.2,35091.2,-0.4758,1.0991,144.7,97.0,0.519
31.52,31997.4,35121.9,-0.0477,1.4704,144.7,97.0,0.519
31.54,32020.4,35132.3,0.3452,1.595,144.7,97.0,0.519
31.56,32059.9,35055.9,1.0175,0.6726,144.7,97.0,0.519
31.58,32112.1,35084.5,1.9078,1.0179,144.7,97.0,0.519
31.6,32042.8,34990.9,0.7271,-0.1123,144.7,97.0,0.519
31.62,31932.0,35073.9,-1.1612,0.8908,144.7,97.0,0.519
31.64,32025.4,35027.2,0.4308,0.3261,144.7,97.0,0.519
31.66,32056.9,34991.2,0.9676,-0.1078,144.7,97.0,0.519
31.68,32067.6,34988.1,1.1499,-0.1457,144.7,97.0,0.519
31.7,31986.9,34947.2,-0.2253,-0.6391,144.7,97.0,0.519
31.72,32014.6,35012.5,0.2469,0.1491,144.7,97.0,0.519
31.74,31966.7,34938.8,-0.5709,-0.7413,144.7,97.0,0.519
31.76,31910.2,34897.5,-1.5322,-1.2394,144.7,97.0,0.519
31.78,32015.7,34998.0,0.2644,-0.0254,144.7,97.0,0.519
31.8,31932.7,35010.7,-1.1489,0.1269,144.7,97.0,0.519
31.82,31984.0,34986.9,-0.2754,-0.1594,144.7,97.0,0.519
31.84,32001.4,35001.0,0.0203,0.0099,144.7,97.0,0.519
31.86,31944.4,34877.9,-0.951,-1.4759,144.7,97.0,0.519
31.88,31959.0,34986.6,-0.7013,-0.1638,144.7,97.0,0.519
31.9,31966.3,35001.2,-0.5778,0.0125,144.7,97.0,0.519
31.92,31984.6,35016.1,-0.2647,0.1924,144.7,97.0,0.519
31.94,31997.4,35054.8,-0.0473,0.6602,144.7,97.0,0.519
31.96,32020.8,35041.6,0.352,0.4998,144.7,97.0,0.519
31.98,32164.1,35109.9,2.7935,1.3245,144.7,97.0,0.519
32.0,31987.9,35033.6,-0.2086,0.4037,144.7,97.0,0.519
32.02,31945.3,35044.7,-0.9347,0.5375,144.7,97.0,0.519
32.04,32054.1,34943.9,0.9186,-0.6797,144.7,97.0,0.519
32.06,31993.9,35024.7,-0.1074,0.2966,144.7,97.0,0.519
32.08,31948.0,35099.1,-0.8893,1.1945,144.7,97.0,0.519
32.1,31993.1,35078.6,-0.1207,0.9475,144.7,97.0,0.519
32.12,32003.2,34970.8,0.0517,-0.3546,144.7,97.0,0.519
32.14,31961.9,34995.5,-0.6528,-0.0559,144.7,97.0,0.519
32.16,31916.7,34949.9,-1.4217,-0.6068,144.7,97.0,0.519
32.18,32059.0,34877.4,1.0027,-1.4822,144.7,97.0,0.519
32.2,32015.1,34939.7,0.2539,-0.7303,144.7,97.0,0.519
32.22,31945.1,34903.1,-0.9375,-1.1718,144.7,97.0,0.519
32.24,32022.6,34812.0,0.3828,-2.271,144.7,97.0,0.519
32.26,31946.6,34951.1,-0.9119,-0.5923,144.7,97.0,0.519
32.28,31894.1,34904.6,-1.8076,-1.1537,144.7,97.0,0.519
32.3,31982.1,34979.8,-0.3069,-0.2453,144.7,97.0,0.519
32.32,31977.6,34986.2,-0.3853,-0.1681,144.7,97.0,0.519
32.34,32015.8,35085.9,0.2667,1.0347,144.7,97.0,0.519
32.36,32155.6,35053.1,2.648,0.6388,144.7,97.0,0.519
32.38,32088.5,35101.1,1.5051,1.2186,144.7,97.0,0.519
32.4,32067.9,35126.9,1.155,1.5305,144.7,97.0,0.519
32.42,32004.1,35075.4,0.0668,0.9084,144.7,97.0,0.519
32.44,32026.7,35006.3,0.4529,0.0738,144.7,97.0,0.519
32.46,31950.8,35037.8,-0.8415,0.4545,144.7,97.0,0.519
32.48,31934.8,35047.9,-1.114,0.576,144.7,97.0,0.519
32.5,32006.1,35004.1,0.1006,0.0481,144.7,97.0,0.519
32.52,31978.3,35000.0,-0.3732,-0.002,144.7,97.0,0.519
32.54,31999.4,35005.9,-0.0122,0.0691,144.7,97.0,0.519
32.56,31931.2,34921.6,-1.1758,-0.9479,144.7,97.0,0.519
32.58,31920.3,34954.6,-1.3606,-0.5498,144.7,97.0,0.519
32.6,32029.9,34968.6,0.5068,-0.3809,144.7,97.0,0.519
32.62,32023.7,34908.9,0.4019,-1.1015,144.7,97.0,0.519
32.64,31954.9,34916.9,-0.7704,-1.0047,144.7,97.0,0.519
32.66,32014.7,34913.4,0.2479,-1.0475,144.7,97.0,0.519
32.68,31993.4,34931.6,-0.1147,-0.8273,144.7,97.0,0.519
32.7,31968.9,34935.7,-0.5329,-0.7776,144.7,97.0,0.519
32.72,31942.0,34943.3,-0.9903,-0.6861,144.7,97.0,0.519
32.74,32010.7,34978.3,0.1789,-0.2635,144.7,97.0,0.519
32.76,32051.8,35087.0,0.8805,1.0487,144.7,97.0,0.519
32.78,32043.3,35168.9,0.7345,2.0377,144.7,97.0,0.519
32.8,32083.3,35203.1,1.4169,2.4508,144.7,97.0,0.519
32.82,32074.3,35202.8,1.2638,2.4469,144.7,97.0,0.519
32.84,32055.1,35081.9,0.9359,0.9864,144.7,97.0,0.519
32.86,32052.5,35015.9,0.8914,0.1903,144.7,97.0,0.519
32.88,32076.8,35027.5,1.3057,0.3302,144.7,97.0,0.519
32.9,32029.2,35024.2,0.4956,0.29,144.7,97.0,0.519
32.92,32025.6,35026.1,0.434,0.3134,144.7,97.0,0.519
32.94,32120.5,34987.6,2.0503,-0.1515,144.7,97.0,0.519
32.96,31971.9,34930.6,-0.4819,-0.8395,144.7,97.0,0.519
32.98,31980.6,34956.0,-0.3333,-0.5328,144.7,97.0,0.519
33.0,31911.9,34851.1,-1.5033,-1.7998,144.7,97.0,0.519
33.02,31972.5,35002.8,-0.4714,0.0319,144.7,97.0,0.519
33.04,31940.6,34933.6,-1.0148,-0.8034,144.7,97.0,0.519
33.06,31971.0,34982.0,-0.4969,-0.2196,144.7,97.0,0.519
33.08,31988.4,34926.6,-0.2007,-0.8885,144.7,97.0,0.519
33.1,31864.0,34977.9,-2.3195,-0.2686,144.7,97.0,0.519
33.12,31924.4,34821.2,-1.2912,-2.1605,144.7,97.0,0.519
33.14,31932.3,35023.8,-1.1567,0.2854,144.7,97.0,0.519
33.16,32059.7,35072.3,1.0142,0.8714,144.7,97.0,0.519
33.18,32008.8,35068.0,0.1465,0.8186,144.7,97.0,0.519
33.2,32075.5,35134.7,1.2834,1.6247,144.7,97.0,0.519
33.22,32085.2,35089.0,1.4494,1.073,144.7,97.0,0.519
33.24,32084.4,35093.6,1.436,1.1276,144.7,97.0,0.519
33.26,32025.7,35091.6,0.4344,1.1038,144.7,97.0,0.519
33.28,31918.4,35018.3,-1.3932,0.2189,144.7,97.0,0.519
33.3,32087.6,34993.4,1.4897,-0.0819,144.7,97.0,0.519
33.32,31992.8,34972.3,-0.1257,-0.3361,144.7,97.0,0.519
33.34,32072.1,35099.5,1.2254,1.1999,144.7,97.0,0.519
33.36,32013.4,34959.1,0.2265,-0.4953,144.7,97.0,0.519
33.38,32040.1,34952.8,0.6803,-0.5716,144.7,97.0,0.519
33.4,31950.5,34965.8,-0.8459,-0.4148,144.7,97.0,0.519
33.42,32044.0,34951.5,0.747,-0.5879,144.7,97.0,0.519
33.44,31956.0,34986.9,-0.7531,-0.1599,144.7,97.0,0.519
33.46,31989.6,34889.9,-0.1802,-1.3314,144.7,97.0,0.519
33.48,31939.7,34856.7,-1.031,-1.7323,144.7,97.0,0.519
33.5,31964.0,34912.9,-0.6162,-1.0539,144.7,97.0,0.519
33.52,32010.3,34854.4,0.1725,-1.7595,144.7,97.0,0.519
33.54,31947.3,34931.9,-0.9007,-0.8237,144.7,97.0,0.519
33.56,31932.3,35062.2,-1.1561,0.7487,144.7,97.0,0.519
33.58,32051.3,35137.3,0.8718,1.6564,144.7,97.0,0.519
33.6,32024.5,35122.8,0.4151,1.4803,144.7,97.0,0.519
33.62,32033.2,35180.0,0.5625,2.1716,144.7,97.0,0.519
33.64,32022.4,35121.6,0.3782,1.4663,144.7,97.0,0.519
33.66,32108.3,35061.6,1.8426,0.7423,144.7,97.0,0.519
33.68,32029.6,35054.8,0.5012,0.6599,144.7,97.0,0.519
33.7,32054.3,35032.6,0.9227,0.3911,144.7,97.0,0.519
33.72,31959.9,35024.9,-0.6858,0.2989,144.7,97.0,0.519
33.74,32021.7,35004.1,0.3676,0.048,144.7,97.0,0.519
33.76,31951.1,34931.6,-0.8354,-0.8273,144.7,97.0,0.519
33.78,31940.5,35022.6,-1.017,0.2712,144.7,97.0,0.519
33.8,31948.2,34970.1,-0.8855,-0.3622,144.7,97.0,0.519
33.82,32022.1,34995.4,0.3739,-0.0572,144.7,97.0,0.519
33.84,32061.0,34982.3,1.0364,-0.2157,144.7,97.0,0.519
33.86,31918.9,34980.8,-1.3846,-0.2333,144.7,97.0,0.519
33.88,31835.1,35057.6,-2.8132,0.694,144.7,97.0,0.519
33.9,32001.9,34837.3,0.029,-1.9664,144.7,97.0,0.519
33.92,31971.5,34865.6,-0.4886,-1.624,144.7,97.0,0.519
33.94,31989.5,34878.3,-0.1817,-1.4711,144.7,97.0,0.519
33.96,31986.9,34937.0,-0.2264,-0.7623,144.7,97.0,0.519
33.98,32011.2,35009.0,0.188,0.1063,144.7,97.0,0.519
34.0,31902.5,35025.6,-1.6647,0.3076,144.7,97.0,0.519
34.02,32062.3,35116.8,1.059,1.4081,144.7,97.0,0.519
34.04,32037.9,35227.9,0.6426,2.7492,144.7,97.0,0.519
34.06,32037.8,35193.2,0.6414,2.3312,144.7,97.0,0.519
34.08,32138.9,35068.2,2.3645,0.8215,144.7,97.0,0.519
34.1,32094.8,35063.4,1.6135,0.7639,144.7,97.0,0.519
34.12,32062.8,35004.8,1.0675,0.0564,144.7,97.0,0.519
34.14,32040.4,35034.6,0.6856,0.4156,144.7,97.0,0.519
34.16,32004.1,35045.3,0.0665,0.5455,144.7,97.0,0.519
34.18,31988.9,34951.0,-0.1921,-0.5939,144.7,97.0,0.519
34.2,31903.7,34932.0,-1.6439,-0.823,144.7,97.0,0.519
34.22,32002.0,34973.1,0.0309,-0.3269,144.7,97.0,0.519
34.24,31882.8,34886.7,-2.0006,-1.3696,144.7,97.0,0.519
34.26,31979.4,35002.5,-0.3543,0.0284,144.7,97.0,0.519
34.28,32005.8,34860.2,0.0955,-1.69,144.7,97.0,0.519
34.3,31920.5,34878.4,-1.3575,-1.4697,144.7,97.0,0.519
34.32,31913.4,34877.1,-1.4781,-1.4851,144.7,97.0,0.519
34.34,31916.5,34917.1,-1.4248,-1.0033,144.7,97.0,0.519
34.36,32083.8,34940.1,1.4246,-0.725,144.7,97.0,0.519
34.38,31977.5,34905.0,-0.3856,-1.1493,144.7,97.0,0.519
34.4,31980.2,34938.3,-0.3402,-0.7472,144.7,97.0,0.519
34.42,32027.6,35048.7,0.4672,0.5862,144.7,97.0,0.519
34.44,31971.3,35111.8,-0.4917,1.348,144.7,97.0,0.519
34.46,32031.2,35047.5,0.5288,0.5712,144.7,97.0,0.519
34.48,32006.4,35054.7,0.1066,0.658,144.7,97.0,0.519
34.5,32122.0,35050.6,2.0766,0.6088,144.7,97.0,0.519
34.52,32034.0,35059.4,0.577,0.7155,144.7,97.0,0.519
34.54,31984.2,35014.3,-0.2726,0.1713,144.7,97.0,0.519
34.56,32004.0,35098.8,0.0647,1.191,144.7,97.0,0.519
34.58,31984.8,35005.2,-0.2626,0.0615,144.7,97.0,0.519
34.6,31962.4,35073.0,-0.6427,0.8789,144.7,97.0,0.519
34.62,32029.7,34932.6,0.504,-0.8158,144.7,97.0,0.519
34.64,31941.6,34980.9,-0.9974,-0.2321,144.7,97.0,0.519
34.66,31955.1,34958.0,-0.7675,-0.5091,144.7,97.0,0.519
34.68,31905.5,34977.5,-1.6129,-0.2735,144.7,97.0,0.519
34.7,31986.3,34926.3,-0.2358,-0.8922,144.7,97.0,0.519
34.72,31979.6,34921.6,-0.3501,-0.9488,144.7,97.0,0.519
34.74,31913.6,34949.4,-1.4751,-0.6127,144.7,97.0,0.519
34.76,31953.6,34836.7,-0.7927,-1.9737,144.7,97.0,0.519
34.78,31976.2,34831.8,-0.4086,-2.0327,144.7,97.0,0.519
34.8,32036.5,34925.8,0.6192,-0.8974,144.7,97.0,0.519
34.82,31927.7,35042.5,-1.234,0.5118,144.7,97.0,0.519
34.84,31977.0,35122.1,-0.3948,1.4726,144.7,97.0,0.519
34.86,31928.7,35073.7,-1.2181,0.8885,144.7,97.0,0.519
34.88,32066.1,35091.1,1.124,1.0983,144.7,97.0,0.519
34.9,31946.3,35107.1,-0.9169,1.2911,144.7,97.0,0.519
34.92,32086.3,35050.8,1.4679,0.6116,144.7,97.0,0.519
34.94,31970.8,35062.5,-0.5008,0.7523,144.7,97.0,0.519
34.96,32116.0,35010.2,1.9746,0.1214,144.7,97.0,0.519
34.98,32061.1,35070.4,1.0379,0.8484,144.7,97.0,0.519
35.0,32005.2,35013.6,0.0864,0.1619,144.7,97.0,0.519
35.02,32028.9,34995.3,0.4893,-0.058,144.7,97.0,0.519
35.04,31925.9,34982.9,-1.2647,-0.208,144.7,97.0,0.519
35.06,31998.1,34924.1,-0.0354,-0.9188,144.7,97.0,0.519
35.08,32052.0,34893.5,0.8838,-1.2882,144.7,97.0,0.519
35.1,31953.7,34998.4,-0.7915,-0.0209,144.7,97.0,0.519
35.12,31995.8,34969.4,-0.0751,-0.3719,144.7,97.0,0.519
35.14,31962.4,35025.9,-0.6431,0.3106,144.7,97.0,0.519
35.16,31891.1,34977.9,-1.858,-0.2692,144.7,97.0,0.519
35.18,31961.8,34972.0,-0.6532,-0.3399,144.7,97.0,0.519
35.2,31947.5,34855.6,-0.8965,-1.7448,144.7,97.0,0.519
35.22,31987.0,35027.9,-0.2237,0.3355,144.7,97.0,0.519
35.24,32085.5,34969.2,1.4541,-0.3733,144.7,97.0,0.519
35.26,32085.7,35095.1,1.4568,1.1469,144.7,97.0,0.519
35.28,32053.0,35101.7,0.8998,1.2264,144.7,97.0,0.519
35.3,32057.5,35063.5,0.9779,0.7648,144.7,97.0,0.519
35.32,32033.7,35029.2,0.5717,0.3507,144.7,97.0,0.519
35.34,32009.8,35076.0,0.1645,0.9163,144.7,97.0,0.519
35.36,31967.0,35072.6,-0.565,0.8743,144.7,97.0,0.519
35.38,32073.4,35064.7,1.2483,0.7796,144.7,97.0,0.519
35.4,31941.3,35035.0,-1.0033,0.4202,144.7,97.0,0.519
35.42,31995.7,34909.8,-0.0754,-1.091,144.7,97.0,0.519
35.44,31979.5,34991.3,-0.3527,-0.1075,144.7,97.0,0.519
35.46,32025.6,35082.9,0.4333,0.9985,144.7,97.0,0.519
35.48,32015.8,34998.0,0.2659,-0.026,144.7,97.0,0.519
35.5,31952.1,35092.8,-0.8184,1.1188,144.7,97.0,0.519
35.52,31914.2,34861.8,-1.4644,-1.6709,144.7,97.0,0.519
35.54,31933.1,34963.2,-1.1426,-0.4466,144.7,97.0,0.519
35.56,31855.7,34990.2,-2.4614,-0.1198,144.7,97.0,0.519
35.58,31956.2,34881.0,-0.7485,-1.4391,144.7,97.0,0.519
35.6,31984.6,34891.0,-0.2651,-1.3182,144.7,97.0,0.519
35.62,31962.4,34924.8,-0.6439,-0.9102,144.7,97.0,0.519
35.64,31914.6,35035.0,-1.4588,0.421,144.7,97.0,0.519
35.66,32017.4,35074.0,0.2931,0.8914,144.7,97.0,0.519
35.68,31950.2,35143.3,-0.8517,1.728,144.7,97.0,0.519
35.7,32028.7,35141.1,0.4868,1.7014,144.7,97.0,0.519
35.72,32046.6,35151.6,0.792,1.8283,144.7,97.0,0.519
35.74,32013.6,35047.2,0.2293,0.5676,144.7,97.0,0.519
35.76,31974.1,35064.7,-0.4445,0.7788,144.7,97.0,0.519
35.78,32057.6,34984.4,0.9793,-0.1907,144.7,97.0,0.519
35.8,32019.0,34985.3,0.3217,-0.1793,144.7,97.0,0.519
35.82,32023.2,35072.8,0.3922,0.8767,144.7,97.0,0.519
35.84,31980.0,34941.9,-0.3435,-0.7038,144.7,97.0,0.519
35.86,32005.5,35003.4,0.091,0.0395,144.7,97.0,0.519
35.88,32020.8,34994.8,0.3511,-0.0643,144.7,97.0,0.519
35.9,32101.7,34941.1,1.7311,-0.7129,144.7,97.0,0.519
35.92,32042.8,34975.4,0.7265,-0.2983,144.7,97.0,0.519
35.94,31912.7,34969.9,-1.4902,-0.3647,144.7,97.0,0.519
35.96,31926.1,34937.9,-1.2617,-0.7518,144.7,97.0,0.519
35.98,31964.8,34949.7,-0.603,-0.6091,144.7,97.0,0.519
36.0,31968.1,34928.5,-0.5459,-0.8657,144.7,97.0,0.519
36.02,31934.9,34878.2,-1.1122,-1.4729,144.7,97.0,0.519
36.04,31961.0,34937.8,-0.6666,-0.7528,144.7,97.0,0.519
36.06,32027.8,35072.1,0.4717,0.8683,144.7,97.0,0.519
36.08,31994.8,35075.2,-0.0905,0.9063,144.7,97.0,0.519
36.1,32069.1,35187.6,1.1756,2.2627,144.7,97.0,0.519
36.12,32002.7,35065.3,0.0438,0.787,144.7,97.0,0.519
36.14,32142.6,35126.9,2.4277,1.5301,144.7,97.0,0.519
36.16,32067.0,35105.5,1.139,1.2713,144.7,97.0,0.519
36.18,32071.4,34888.1,1.2138,-1.3533,144.7,97.0,0.519
36.2,32078.5,34986.0,1.3347,-0.1714,144.7,97.0,0.519
36.22,32004.6,34978.4,0.0763,-0.263,144.7,97.0,0.519
36.24,31947.4,35066.4,-0.8985,0.7997,144.7,97.0,0.519
36.26,31985.4,35039.3,-0.251,0.4724,144.7,97.0,0.519
36.28,31953.0,35017.0,-0.8032,0.2032,144.7,97.0,0.519
36.3,31977.8,34993.8,-0.3811,-0.0773,144.7,97.0,0.519
36.32,32015.9,34934.7,0.2679,-0.7897,144.7,97.0,0.519
36.34,32050.8,34908.7,0.8637,-1.1043,144.7,97.0,0.519
36.36,31949.9,34984.1,-0.8563,-0.1934,144.7,97.0,0.519
36.38,31963.5,34933.5,-0.6243,-0.8049,144.7,97.0,0.519
36.4,31976.6,34949.7,-0.4011,-0.6092,144.7,97.0,0.519
36.42,31962.0,34855.4,-0.6495,-1.7482,144.7,97.0,0.519
36.44,31893.9,34823.0,-1.8114,-2.1386,144.7,97.0,0.519
36.46,31914.3,34900.4,-1.4637,-1.2047,144.7,97.0,0.519
36.48,31944.9,35030.1,-0.9408,0.3614,144.7,97.0,0.519
36.5,32072.3,35117.7,1.229,1.4188,144.7,97.0,0.519
36.52,32034.0,35073.4,0.5773,0.8842,144.7,97.0,0.519
36.54,31967.8,35093.1,-0.5521,1.122,144.7,97.0,0.519
36.56,32045.0,34982.2,0.7648,-0.2164,144.7,97.0,0.519
36.58,32018.9,35010.0,0.3192,0.1193,144.7,97.0,0.519
36.6,32013.2,34984.6,0.2226,-0.1879,144.7,97.0,0.519
36.62,32069.6,35065.7,1.1841,0.7919,144.7,97.0,0.519
36.64,31999.7,35024.8,-0.0071,0.2977,144.7,97.0,0.519
36.66,32028.0,35012.4,0.4738,0.1477,144.7,97.0,0.519
36.68,32021.1,35031.1,0.356,0.3737,144.7,97.0,0.519
36.7,31998.0,35000.5,-0.0361,0.0036,144.7,97.0,0.519
36.72,32028.9,34962.9,0.4889,-0.4497,144.7,97.0,0.519
36.74,31944.2,34960.6,-0.9532,-0.4774,144.7,97.0,0.519
36.76,31953.9,34997.5,-0.7879,-0.0317,144.7,97.0,0.519
36.78,31970.2,34900.4,-0.5102,-1.2046,144.7,97.0,0.519
36.8,32032.0,34986.5,0.5427,-0.1647,144.7,97.0,0.519
36.82,31987.8,34878.8,-0.2102,-1.4655,144.7,97.0,0.519
36.84,31949.8,34914.8,-0.8583,-1.0304,144.7,97.0,0.519
36.86,31971.5,34920.8,-0.4883,-0.9577,144.7,97.0,0.519
36.88,32098.6,35050.3,1.6777,0.6052,144.7,97.0,0.519
36.9,31984.1,34990.7,-0.2736,-0.1136,144.7,97.0,0.519
36.92,31990.4,35043.6,-0.1663,0.5242,144.7,97.0,0.519
36.94,32040.9,35188.7,0.6944,2.2769,144.7,97.0,0.519
36.96,31955.0,35088.5,-0.7689,1.0662,144.7,97.0,0.519
36.98,32055.2,35084.3,0.9376,1.0155,144.7,97.0,0.519
37.0,32106.4,35130.4,1.8108,1.5726,144.7,97.0,0.519
37.02,32063.9,35034.1,1.0863,0.4103,144.7,97.0,0.519
37.04,32044.1,35060.4,0.7482,0.7273,144.7,97.0,0.519
37.06,32020.7,35061.5,0.3493,0.7411,144.7,97.0,0.519
37.08,32035.4,35009.1,0.6009,0.1076,144.7,97.0,0.519
37.1,31973.4,34932.4,-0.4556,-0.8176,144.7,97.0,0.519
37.12,31948.4,35017.9,-0.8818,0.2142,144.7,97.0,0.519
37.14,32016.0,34957.2,0.2705,-0.518,144.7,97.0,0.519
37.16,31924.2,34928.9,-1.2944,-0.8608,144.7,97.0,0.519
37.18,31939.0,34952.5,-1.0415,-0.5752,144.7,97.0,0.519
37.2,31988.5,34979.2,-0.1983,-0.2535,144.7,97.0,0.519
37.22,31943.8,34920.0,-0.9598,-0.9676,144.7,97.0,0.519
37.24,31976.0,34914.4,-0.4108,-1.0354,144.7,97.0,0.519
37.26,32032.3,34893.9,0.5472,-1.2831,144.7,97.0,0.519
37.28,32085.7,34881.8,1.4576,-1.4292,144.7,97.0,0.519
37.3,32010.0,35100.3,0.1684,1.2095,144.7,97.0,0.519
37.32,32014.6,35052.4,0.2458,0.6303,144.7,97.0,0.519
37.34,32036.8,35141.8,0.6246,1.7107,144.7,97.0,0.519
37.36,32079.0,35103.5,1.3441,1.2472,144.7,97.0,0.519
37.38,32048.7,35105.4,0.8269,1.2706,144.7,97.0,0.519
37.4,32117.2,35127.3,1.9949,1.5351,144.7,97.0,0.519
37.42,32082.3,35035.8,1.3993,0.4309,144.7,97.0,0.519
37.44,32026.5,35055.4,0.4483,0.6665,144.7,97.0,0.519
37.46,32098.9,35006.2,1.6832,0.0727,144.7,97.0,0.519
37.48,31976.0,34995.1,-0.4116,-0.0608,144.7,97.0,0.519
37.5,31952.9,35027.5,-0.8049,0.3297,144.7,97.0,0.519
37.52,31929.7,35020.4,-1.2001,0.2442,144.7,97.0,0.519
37.54,31976.9,34985.7,-0.3968,-0.1747,144.7,97.0,0.519
37.56,31958.0,34991.7,-0.7183,-0.1019,144.7,97.0,0.519
37.58,31965.5,35063.6,-0.5909,0.7657,144.7,97.0,0.519
37.6,31916.4,34886.8,-1.4273,-1.369,144.7,97.0,0.519
37.62,31952.6,34973.5,-0.8102,-0.3221,144.7,97.0,0.519
37.64,32022.7,34892.1,0.3838,-1.3047,144.7,97.0,0.519
37.66,31887.5,34945.2,-1.9198,-0.6639,144.7,97.0,0.519
37.68,31974.7,34915.8,-0.4346,-1.0189,144.7,97.0,0.519
37.7,31939.4,34881.4,-1.0359,-1.4335,144.7,97.0,0.519
37.72,31976.9,35001.8,-0.3964,0.0197,144.7,97.0,0.519
37.74,32048.2,35123.4,0.8189,1.4875,144.7,97.0,0.519
37.76,32075.3,35156.3,1.2798,1.8847,144.7,97.0,0.519
37.78,32149.1,35149.9,2.5383,1.8083,144.7,97.0,0.519
37.8,32077.7,35098.3,1.3218,1.1848,144.7,97.0,0.519
37.82,31948.0,35056.5,-0.8893,0.6807,144.7,97.0,0.519
37.84,32017.4,34982.2,0.294,-0.2169,144.7,97.0,0.519
37.86,32064.8,35030.9,1.1017,0.3714,144.7,97.0,0.519
37.88,32053.4,35035.8,0.9073,0.4307,144.7,97.0,0.519
37.9,32025.9,34985.2,0.4379,-0.1808,144.7,97.0,0.519
37.92,31971.6,34965.9,-0.4863,-0.4135,144.7,97.0,0.519
37.94,31923.6,34975.8,-1.305,-0.2942,144.7,97.0,0.519
37.96,31877.3,34885.0,-2.0936,-1.3908,144.7,97.0,0.519
37.98,32038.9,35065.0,0.6597,0.783,144.7,97.0,0.519
38.0,31952.3,34915.2,-0.8155,-1.0252,144.7,97.0,0.519
38.02,31931.4,34855.5,-1.1719,-1.7469,144.7,97.0,0.519
38.04,31933.2,34881.8,-1.1411,-1.4286,144.7,97.0,0.519
38.06,32019.7,34991.5,0.3324,-0.1049,144.7,97.0,0.519
38.08,32036.3,34850.6,0.615,-1.8059,144.7,97.0,0.519
38.1,31916.9,34887.8,-1.4189,-1.3568,144.7,97.0,0.519
38.12,32090.9,34933.4,1.5464,-0.8059,144.7,97.0,0.519
38.14,32012.4,34926.5,0.209,-0.8898,144.7,97.0,0.519
38.16,32040.1,35098.3,0.6803,1.1855,144.7,97.0,0.519
38.18,32076.1,35132.3,1.2938,1.5957,144.7,97.0,0.519
38.2,32048.7,35053.9,0.8275,0.6487,144.7,97.0,0.519
38.22,32090.4,35096.1,1.5382,1.1588,144.7,97.0,0.519
38.24,32002.2,35098.4,0.0354,1.186,144.7,97.0,0.519
38.26,31986.3,35011.6,-0.2366,0.1384,144.7,97.0,0.519
38.28,31970.6,34998.7,-0.5041,-0.0172,144.7,97.0,0.519
38.3,32060.9,34951.0,1.0344,-0.5932,144.7,97.0,0.519
38.32,31930.0,35024.4,-1.1954,0.2931,144.7,97.0,0.519
38.34,31993.0,34928.4,-0.1219,-0.8665,144.7,97.0,0.519
38.36,31958.8,34946.9,-0.7051,-0.6424,144.7,97.0,0.519
38.38,32027.1,35043.9,0.4596,0.5285,144.7,97.0,0.519
38.4,32020.9,34915.2,0.3537,-1.0254,144.7,97.0,0.519
38.42,31962.4,34950.3,-0.6433,-0.6023,144.7,97.0,0.519
38.44,31959.0,34880.4,-0.7006,-1.4455,144.7,97.0,0.519
38.46,31953.3,34914.4,-0.7989,-1.0351,144.7,97.0,0.519
38.48,31989.8,34908.4,-0.1766,-1.108,144.7,97.0,0.519
38.5,31856.6,34921.1,-2.4469,-0.9545,144.7,97.0,0.519
38.52,31990.3,34862.9,-0.1673,-1.6574,144.7,97.0,0.519
38.54,31959.9,35041.9,-0.6868,0.5043,144.7,97.0,0.519
38.56,31975.0,34984.1,-0.4288,-0.1933,144.7,97.0,0.519
38.58,32035.2,35077.9,0.5973,0.9383,144.7,97.0,0.519
38.6,32130.2,35111.9,2.2159,1.3487,144.7,97.0,0.519
38.62,31976.5,35118.0,-0.4024,1.4226,144.7,97.0,0.519
38.64,32064.8,35089.6,1.1013,1.08,144.7,97.0,0.519
38.66,32037.5,35024.7,0.636,0.2968,144.7,97.0,0.519
38.68,32005.2,35021.9,0.0855,0.2629,144.7,97.0,0.519
38.7,31974.4,35005.3,-0.4381,0.0627,144.7,97.0,0.519
38.72,31890.7,35047.8,-1.8655,0.5757,144.7,97.0,0.519
38.74,32035.0,34995.1,0.5938,-0.0605,144.7,97.0,0.519
38.76,32066.4,34973.4,1.1296,-0.3226,144.7,97.0,0.519
38.78,31998.6,34959.9,-0.0261,-0.4855,144.7,97.0,0.519
38.8,31881.2,34962.8,-2.0275,-0.4515,144.7,97.0,0.519
38.82,32060.8,34974.9,1.0335,-0.3051,144.7,97.0,0.519
38.84,31949.7,34968.3,-0.86,-0.3844,144.7,97.0,0.519
38.86,31866.0,34968.9,-2.2863,-0.3776,144.7,97.0,0.519
38.88,31964.4,34969.4,-0.6098,-0.3716,144.7,97.0,0.519
38.9,31994.7,34905.2,-0.0926,-1.146,144.7,97.0,0.519
38.92,31907.0,34921.8,-1.5873,-0.946,144.7,97.0,0.519
38.94,32008.1,35010.2,0.1353,0.1215,144.7,97.0,0.519
38.96,32034.7,35054.4,0.5877,0.6548,144.7,97.0,0.519
38.98,32064.9,35077.5,1.1037,0.9341,144.7,97.0,0.519
39.0,32039.0,35195.6,0.6613,2.3593,144.7,97.0,0.519
39.02,32118.7,35148.4,2.0206,1.7899,144.7,97.0,0.519
39.04,31980.4,35045.3,-0.3361,0.5451,144.7,97.0,0.519
39.06,32045.5,35004.3,0.7732,0.0504,144.7,97.0,0.519
39.08,31940.7,35036.6,-1.014,0.4402,144.7,97.0,0.519
39.1,32097.1,35008.3,1.6513,0.0978,144.7,97.0,0.519
39.12,31968.1,35044.1,-0.5463,0.5311,144.7,97.0,0.519
39.14,31967.0,35050.0,-0.5654,0.6022,144.7,97.0,0.519
39.16,31968.3,35058.4,-0.5427,0.7031,144.7,97.0,0.519
39.18,31944.7,35029.9,-0.945,0.3597,144.7,97.0,0.519
39.2,32014.4,35010.7,0.2418,0.1276,144.7,97.0,0.519
39.22,32024.6,34883.9,0.4166,-1.4036,144.7,97.0,0.519
39.24,31935.7,35008.4,-1.0988,0.0993,144.7,97.0,0.519
39.26,31916.7,34981.3,-1.4223,-0.228,144.7,97.0,0.519
39.28,31994.2,34899.1,-0.1023,-1.2195,144.7,97.0,0.519
39.3,31972.9,34930.4,-0.4641,-0.8422,144.7,97.0,0.519
39.32,31952.3,34969.9,-0.8153,-0.3655,144.7,97.0,0.519
39.34,31965.6,34931.2,-0.5885,-0.8329,144.7,97.0,0.519
39.36,32008.8,35020.5,0.1473,0.2458,144.7,97.0,0.519
39.38,32051.9,34995.4,0.8816,-0.058,144.7,97.0,0.519
39.4,31996.8,35002.8,-0.0581,0.0322,144.7,97.0,0.519
39.42,32080.3,35213.3,1.3649,2.5728,144.7,97.0,0.519
39.44,31977.2,35172.1,-0.3913,2.076,144.7,97.0,0.519
39.46,32034.7,35183.6,0.5888,2.2142,144.7,97.0,0.519
39.48,32148.7,35128.4,2.5315,1.5489,144.7,97.0,0.519
39.5,32067.6,34959.4,1.1491,-0.4925,144.7,97.0,0.519
39.52,32089.5,35035.7,1.5221,0.4294,144.7,97.0,0.519
39.54,32097.1,35016.2,1.6513,0.1939,144.7,97.0,0.519
39.56,31996.2,35046.7,-0.0683,0.5622,144.7,97.0,0.519
39.58,31940.0,35023.6,-1.0244,0.2831,144.7,97.0,0.519
39.6,31995.0,34973.3,-0.0872,-0.3238,144.7,97.0,0.519
39.62,31939.9,34910.1,-1.0266,-1.087,144.7,97.0,0.519
39.64,32041.7,34970.4,0.7072,-0.3587,144.7,97.0,0.519
39.66,32008.8,34869.6,0.1477,-1.5766,144.7,97.0,0.519
39.68,31960.5,34918.4,-0.6755,-0.9871,144.7,97.0,0.519
39.7,31961.2,34912.9,-0.6643,-1.0532,144.7,97.0,0.519
39.72,32007.3,34912.8,0.1215,-1.0546,144.7,97.0,0.519
39.74,31879.0,34867.2,-2.0647,-1.6057,144.7,97.0,0.519
39.76,31988.7,34956.7,-0.1952,-0.5251,144.7,97.0,0.519
39.78,32013.0,34984.0,0.219,-0.1953,144.7,97.0,0.519
39.8,32043.7,35029.5,0.7423,0.3541,144.7,97.0,0.519
39.82,32060.8,35043.8,1.0335,0.5273,144.7,97.0,0.519
39.84,32044.0,35143.7,0.7468,1.7328,144.7,97.0,0.519
39.86,32091.5,35019.3,1.556,0.2307,144.7,97.0,0.519
39.88,31987.5,35116.5,-0.2154,1.405,144.7,97.0,0.519
39.9,32009.9,35062.1,0.1663,0.7481,144.7,97.0,0.519
39.92,32006.2,34989.8,0.1026,-0.1252,144.7,97.0,0.519
39.94,32041.9,35025.1,0.7106,0.3013,144.7,97.0,0.519
39.96,31963.6,34976.8,-0.6224,-0.2814,144.7,97.0,0.519
39.98,32000.4,35080.3,0.0041,0.9682,144.7,97.0,0.519
40.0,32047.3,34992.2,0.8028,-0.0958,144.7,97.0,0.519
40.02,32078.6,34902.4,1.3372,-1.1799,144.7,97.0,0.519
40.04,31896.1,35055.2,-1.7727,0.6648,144.7,97.0,0.519
40.06,31918.6,34926.9,-1.3897,-0.8843,144.7,97.0,0.519
40.08,31964.2,34900.2,-0.6129,-1.2067,144.7,97.0,0.519
40.1,31972.9,34974.7,-0.4652,-0.3077,144.7,97.0,0.519
40.12,31961.4,34885.3,-0.6601,-1.3867,144.7,97.0,0.519
40.14,31874.5,34831.4,-2.141,-2.0368,144.7,97.0,0.519
40.16,31948.5,34922.3,-0.8803,-0.9405,144.7,97.0,0.519
40.18,31988.5,34932.0,-0.1979,-0.8234,144.7,97.0,0.519
40.2,32008.3,34976.0,0.1383,-0.292,144.7,97.0,0.519
40.22,32020.1,35067.3,0.3404,0.8112,144.7,97.0,0.519
40.24,32066.8,35117.4,1.1353,1.4156,144.7,97.0,0.519
40.26,32095.4,35197.9,1.6225,2.3872,144.7,97.0,0.519
40.28,32084.3,35073.6,1.433,0.8864,144.7,97.0,0.519
40.3,31956.2,35113.1,-0.7483,1.3634,144.7,97.0,0.519
40.32,32056.0,35021.6,0.951,0.2586,144.7,97.0,0.519
40.34,32039.6,35045.0,0.6724,0.5415,144.7,97.0,0.519
40.36,32011.4,34993.7,0.1921,-0.0785,144.7,97.0,0.519
40.38,31962.3,34890.1,-0.6456,-1.3286,144.7,97.0,0.519
40.4,32001.7,35029.7,0.0259,0.3567,144.7,97.0,0.519
40.42,32005.2,34958.8,0.0858,-0.499,144.7,97.0,0.519
40.44,31954.9,35063.2,-0.772,0.7613,144.7,97.0,0.519
40.46,31951.7,34986.3,-0.8264,-0.167,144.7,97.0,0.519
40.48,31971.2,34952.8,-0.4942,-0.5719,144.7,97.0,0.519
40.5,31887.0,34967.1,-1.9275,-0.3995,144.7,97.0,0.519
40.52,31990.1,34874.1,-0.1715,-1.5217,144.7,97.0,0.519
40.54,31979.9,34895.1,-0.3456,-1.2683,144.7,97.0,0.519
40.56,31958.5,34912.3,-0.709,-1.0603,144.7,97.0,0.519
40.58,31947.2,34966.6,-0.9022,-0.4051,144.7,97.0,0.519
40.6,31942.1,34937.6,-0.9891,-0.7553,144.7,97.0,0.519
40.62,31965.5,35044.6,-0.5899,0.5363,144.7,97.0,0.519
40.64,32005.4,35081.6,0.0885,0.9836,144.7,97.0,0.519
40.66,32073.1,35133.0,1.2426,1.6043,144.7,97.0,0.519
40.68,32106.4,35112.5,1.8103,1.3562,144.7,97.0,0.519
40.7,32133.9,35182.7,2.2785,2.2035,144.7,97.0,0.519
40.72,31980.1,35174.6,-0.3414,2.1064,144.7,97.0,0.519
40.74,32036.9,35078.8,0.6254,0.9494,144.7,97.0,0.519
40.76,32023.0,34998.9,0.3884,-0.0154,144.7,97.0,0.519
40.78,32011.3,35007.6,0.1901,0.09,144.7,97.0,0.519
40.8,31974.4,34985.2,-0.4392,-0.1805,144.7,97.0,0.519
40.82,31930.9,34913.5,-1.1807,-1.0458,144.7,97.0,0.519
40.84,32004.8,34990.1,0.0797,-0.1214,144.7,97.0,0.519
40.86,31975.1,35018.1,-0.427,0.2162,144.7,97.0,0.519
40.88,31985.9,34990.7,-0.2423,-0.1139,144.7,97.0,0.519
40.9,31985.3,34976.6,-0.2524,-0.2847,144.7,97.0,0.519
40.92,32004.9,34909.0,0.0802,-1.1011,144.7,97.0,0.519
40.94,32004.2,34944.2,0.0687,-0.6759,144.7,97.0,0.519
40.96,31923.9,34961.1,-1.3,-0.4712,144.7,97.0,0.519
40.98,32008.6,34864.5,0.1436,-1.6381,144.7,97.0,0.519
41.0,32043.0,35005.8,0.7295,0.0684,144.7,97.0,0.519
41.02,31932.2,34924.6,-1.1576,-0.9125,144.7,97.0,0.519
41.04,31987.0,35091.8,-0.2241,1.1067,144.7,97.0,0.519
41.06,32070.7,35094.2,1.2019,1.1355,144.7,97.0,0.519
41.08,32080.3,35151.9,1.3665,1.8318,144.7,97.0,0.519
41.1,32102.2,35010.7,1.7385,0.1274,144.7,97.0,0.519
41.12,32014.7,35079.4,0.2478,0.9571,144.7,97.0,0.519
41.14,32078.4,35050.6,1.3334,0.6092,144.7,97.0,0.519
41.16,31930.8,35043.2,-1.1824,0.5198,144.7,97.0,0.519
41.18,32053.2,34995.8,0.9047,-0.053,144.7,97.0,0.519
41.2,31961.5,34978.3,-0.659,-0.2639,144.7,97.0,0.519
41.22,31965.9,34985.6,-0.5843,-0.1751,144.7,97.0,0.519
41.24,31944.2,35106.3,-0.953,1.2816,144.7,97.0,0.519
41.26,32046.9,34924.9,0.7964,-0.9082,144.7,97.0,0.519
41.28,31895.6,35026.7,-1.7816,0.3207,144.7,97.0,0.519
41.3,31956.6,34962.3,-0.7429,-0.4565,144.7,97.0,0.519
41.32,31959.7,34947.6,-0.6898,-0.635,144.7,97.0,0.519
41.34,32019.5,34957.5,0.3298,-0.5144,144.7,97.0,0.519
41.36,31910.0,34905.9,-1.5357,-1.1373,144.7,97.0,0.519
41.38,32009.6,34914.5,0.1617,-1.0343,144.7,97.0,0.519
41.4,31953.0,34835.6,-0.8031,-1.9871,144.7,97.0,0.519
41.42,31927.8,34975.1,-1.2325,-0.3029,144.7,97.0,0.519
41.44,31925.7,34996.1,-1.2683,-0.0486,144.7,97.0,0.519
41.46,32019.1,35032.2,0.3224,0.3871,144.7,97.0,0.519
41.48,32050.0,35131.4,0.85,1.584,144.7,97.0,0.519
41.5,32021.5,35126.0,0.3629,1.5191,144.7,97.0,0.519
41.52,32193.5,35071.5,3.2954,0.8609,144.7,97.0,0.519
41.54,32013.8,35052.8,0.232,0.6358,144.7,97.0,0.519
41.56,32026.5,35046.8,0.4486,0.563,144.7,97.0,0.519
41.58,31924.0,34962.7,-1.2981,-0.4518,144.7,97.0,0.519
41.6,32067.6,35062.6,1.1497,0.754,144.7,97.0,0.519
41.62,31979.1,35074.9,-0.3584,0.9026,144.7,97.0,0.519
41.64,32034.1,35078.7,0.5777,0.9486,144.7,97.0,0.519
41.66,32091.5,34999.5,1.5557,-0.0084,144.7,97.0,0.519
41.68,31916.1,34944.0,-1.4327,-0.6775,144.7,97.0,0.519
41.7,31977.4,34997.7,-0.388,-0.0296,144.7,97.0,0.519
41.72,31948.1,34902.4,-0.8871,-1.1802,144.7,97.0,0.519
41.74,31974.3,34949.3,-0.4399,-0.6139,144.7,97.0,0.519
41.76,31919.6,34952.4,-1.3723,-0.5764,144.7,97.0,0.519
41.78,31967.2,34968.8,-0.5621,-0.3786,144.7,97.0,0.519
41.8,31981.8,34887.9,-0.3128,-1.3547,144.7,97.0,0.519
41.82,31981.6,34880.5,-0.3162,-1.4443,144.7,97.0,0.519
41.84,32004.2,34910.1,0.0696,-1.0867,144.7,97.0,0.519
41.86,32020.8,35083.6,0.3522,1.0071,144.7,97.0,0.519
41.88,32002.5,35139.7,0.0395,1.6846,144.7,97.0,0.519
41.9,32109.4,35077.5,1.861,0.9333,144.7,97.0,0.519
41.92,32059.4,35197.7,1.0092,2.3848,144.7,97.0,0.519
41.94,32011.2,35107.4,0.1877,1.2946,144.7,97.0,0.519
41.96,32035.2,35080.4,0.5975,0.9683,144.7,97.0,0.519
41.98,32021.8,35044.7,0.3688,0.5381,144.7,97.0,0.519
42.0,32026.9,34976.1,0.456,-0.2898,144.7,97.0,0.519
42.02,32075.0,34926.8,1.2746,-0.8856,144.7,97.0,0.519
42.04,31938.6,34976.2,-1.0491,-0.2893,144.7,97.0,0.519
42.06,31983.5,34971.4,-0.2831,-0.3468,144.7,97.0,0.519
42.08,32066.1,34980.4,1.1229,-0.2391,144.7,97.0,0.519
42.1,32048.7,34902.4,0.8266,-1.1805,144.7,97.0,0.519
42.12,31913.1,34921.7,-1.483,-0.9474,144.7,97.0,0.519
42.14,31994.8,34899.8,-0.0917,-1.2112,144.7,97.0,0.519
42.16,31854.3,35005.6,-2.486,0.0658,144.7,97.0,0.519
42.18,32022.2,34895.4,0.3764,-1.265,144.7,97.0,0.519
42.2,32011.2,34913.7,0.188,-1.0439,144.7,97.0,0.519
42.22,32044.0,34884.2,0.7465,-1.3996,144.7,97.0,0.519
42.24,32015.3,34941.3,0.2578,-0.7105,144.7,97.0,0.519
42.26,31953.5,35000.1,-0.7958,-0.0001,144.7,97.0,0.519
42.28,31978.6,34959.3,-0.367,-0.493,144.7,97.0,0.519
42.3,32037.2,35043.0,0.6313,0.5168,144.7,97.0,0.519
42.32,32003.0,35130.0,0.0481,1.5675,144.7,97.0,0.519
42.34,31959.5,35101.1,-0.6924,1.2183,144.7,97.0,0.519
42.36,32072.1,35063.0,1.2263,0.7587,144.7,97.0,0.519
42.38,32071.6,35012.5,1.2166,0.1494,144.7,97.0,0.519
42.4,32059.2,35095.6,1.0054,1.1525,144.7,97.0,0.519
42.42,32064.0,35088.8,1.0878,1.0706,144.7,97.0,0.519
42.44,31890.3,35083.4,-1.8728,1.0055,144.7,97.0,0.519
42.46,32090.4,35011.0,1.5373,0.131,144.7,97.0,0.519
42.48,31882.9,34980.6,-1.9981,-0.2365,144.7,97.0,0.519
42.5,32006.3,35073.5,0.1051,0.886,144.7,97.0,0.519
42.52,31973.8,34923.0,-0.4498,-0.9318,144.7,97.0,0.519
42.54,32028.9,34997.5,0.4903,-0.0322,144.7,97.0,0.519
42.56,31951.4,34906.8,-0.8317,-1.1269,144.7,97.0,0.519
42.58,31948.4,34965.9,-0.8818,-0.4132,144.7,97.0,0.519
42.6,31840.1,34987.3,-2.7269,-0.1556,144.7,97.0,0.519
42.62,31902.0,35021.1,-1.6725,0.2532,144.7,97.0,0.519
42.64,31979.8,34870.6,-0.3461,-1.5646,144.7,97.0,0.519
42.66,31972.5,34924.2,-0.4715,-0.9166,144.7,97.0,0.519
42.68,31923.9,34950.5,-1.2992,-0.6001,144.7,97.0,0.519
42.7,31966.9,35004.7,-0.566,0.0554,144.7,97.0,0.519
42.72,32024.9,35122.4,0.4209,1.4757,144.7,97.0,0.519
42.74,32028.6,35194.4,0.4839,2.3451,144.7,97.0,0.519
42.76,32030.5,35110.3,0.5163,1.3294,144.7,97.0,0.519
42.78,32086.7,35062.4,1.4752,0.7519,144.7,97.0,0.519
42.8,32068.8,35059.9,1.1695,0.721,144.7,97.0,0.519
42.82,31971.1,35052.4,-0.4955,0.6304,144.7,97.0,0.519
42.84,32019.8,34966.4,0.3341,-0.4079,144.7,97.0,0.519
42.86,32007.6,34962.5,0.1261,-0.4543,144.7,97.0,0.519
42.88,31957.2,34946.9,-0.7328,-0.6431,144.7,97.0,0.519
42.9,32022.8,35013.6,0.3867,0.1625,144.7,97.0,0.519
42.92,32113.7,34908.7,1.9347,-1.1041,144.7,97.0,0.519
42.94,31917.1,34825.5,-1.4161,-2.1085,144.7,97.0,0.519
42.96,31904.8,35004.1,-1.6247,0.048,144.7,97.0,0.519
42.98,32012.0,34913.0,0.2022,-1.0521,144.7,97.0,0.519
43.0,31975.2,34974.4,-0.4249,-0.3112,144.7,97.0,0.519
43.02,31988.3,34941.9,-0.2021,-0.7032,144.7,97.0,0.519
43.04,31837.1,34923.9,-2.7791,-0.9202,144.7,97.0,0.519
43.06,31919.5,34912.1,-1.3746,-1.0628,144.7,97.0,0.519
43.08,31918.4,34949.0,-1.3937,-0.6173,144.7,97.0,0.519
43.1,31986.7,34982.3,-0.2301,-0.2152,144.7,97.0,0.519
43.12,32004.2,35049.8,0.0694,0.5995,144.7,97.0,0.519
43.14,32015.9,35070.8,0.268,0.8526,144.7,97.0,0.519
43.16,32129.9,35119.2,2.2106,1.437,144.7,97.0,0.519
43.18,32095.9,35108.2,1.6314,1.3042,144.7,97.0,0.519
43.2,32000.1,35056.4,-0.0006,0.6787,144.7,97.0,0.519
43.22,32067.3,34958.7,1.1446,-0.5,144.7,97.0,0.519
43.24,31898.8,35010.0,-1.7278,0.1186,144.7,97.0,0.519
43.26,32070.2,35032.4,1.1943,0.3896,144.7,97.0,0.519
43.28,32033.4,34996.4,0.5667,-0.0453,144.7,97.0,0.519
43.3,32036.6,35016.5,0.6206,0.1977,144.7,97.0,0.519
43.32,31981.0,34910.5,-0.326,-1.0827,144.7,97.0,0.519
43.34,31984.5,34924.6,-0.2664,-0.9116,144.7,97.0,0.519
43.36,31974.0,34981.8,-0.4452,-0.2213,144.7,97.0,0.519
43.38,32044.6,34998.7,0.758,-0.0179,144.7,97.0,0.519
43.4,31972.4,34960.7,-0.4736,-0.4763,144.7,97.0,0.519
43.42,31927.4,34968.0,-1.2393,-0.3886,144.7,97.0,0.519
43.44,31941.1,34986.1,-1.0066,-0.17,144.7,97.0,0.519
43.46,31965.8,34852.5,-0.5854,-1.7829,144.7,97.0,0.519
43.48,31974.3,34932.9,-0.4408,-0.8123,144.7,97.0,0.519
43.5,31986.7,34938.9,-0.2298,-0.74,144.7,97.0,0.519
43.52,31988.6,34968.3,-0.1965,-0.3846,144.7,97.0,0.519
43.54,32062.0,35076.2,1.053,0.9184,144.7,97.0,0.519
43.56,32032.6,35216.2,0.5536,2.6089,144.7,97.0,0.519
43.58,32020.0,35137.6,0.3379,1.6588,144.7,97.0,0.519
43.6,32037.9,35126.3,0.6438,1.5235,144.7,97.0,0.519
43.62,31986.4,34961.9,-0.2339,-0.4619,144.7,97.0,0.519
43.64,32064.3,34985.5,1.0923,-0.1774,144.7,97.0,0.519
43.66,32051.8,35026.8,0.88,0.3221,144.7,97.0,0.519
43.68,31986.7,34990.7,-0.2293,-0.1144,144.7,97.0,0.519
43.7,32029.4,34984.8,0.4991,-0.1852,144.7,97.0,0.519
43.72,32013.3,35120.1,0.2236,1.448,144.7,97.0,0.519
43.74,31922.6,35013.2,-1.322,0.157,144.7,97.0,0.519
43.76,31972.5,34968.6,-0.4708,-0.3813,144.7,97.0,0.519
43.78,32006.0,34881.8,0.0994,-1.4289,144.7,97.0,0.519
43.8,32046.6,34875.9,0.791,-1.5,144.7,97.0,0.519
43.82,31964.5,34973.4,-0.6084,-0.3229,144.7,97.0,0.519
43.84,32015.2,34948.4,0.2559,-0.6252,144.7,97.0,0.519
43.86,31981.6,34937.2,-0.3154,-0.7605,144.7,97.0,0.519
43.88,31985.8,35004.2,-0.2442,0.049,144.7,97.0,0.519
43.9,31949.9,34839.0,-0.8569,-1.9451,144.7,97.0,0.519
43.92,32025.6,34895.0,0.4327,-1.27,144.7,97.0,0.519
43.94,32058.0,35107.8,0.9865,1.2992,144.7,97.0,0.519
43.96,32027.1,35100.7,0.4599,1.2145,144.7,97.0,0.519
43.98,31983.0,35126.1,-0.2921,1.5208,144.7,97.0,0.519
44.0,32112.9,35188.3,1.9204,2.2719,144.7,97.0,0.519
44.02,32066.8,35160.0,1.1352,1.9297,144.7,97.0,0.519
44.04,32093.7,35085.0,1.5931,1.0239,144.7,97.0,0.519
44.06,32086.8,34964.6,1.4764,-0.4296,144.7,97.0,0.519
44.08,31949.9,34996.2,-0.8561,-0.0477,144.7,97.0,0.519
44.1,32018.1,35030.4,0.3061,0.3652,144.7,97.0,0.519
44.12,32006.5,34997.3,0.1085,-0.0343,144.7,97.0,0.519
44.14,31995.5,35087.3,-0.0787,1.052,144.7,97.0,0.519
44.16,31992.3,34930.4,-0.1331,-0.8417,144.7,97.0,0.519
44.18,31935.4,34934.6,-1.1036,-0.7917,144.7,97.0,0.519
44.2,32073.5,35005.9,1.25,0.0699,144.7,97.0,0.519
44.22,31932.9,34968.2,-1.1462,-0.3856,144.7,97.0,0.519
44.24,31944.5,35008.7,-0.948,0.1028,144.7,97.0,0.519
44.26,31986.4,34958.8,-0.2337,-0.4998,144.7,97.0,0.519
44.28,31928.4,34971.5,-1.2236,-0.3458,144.7,97.0,0.519
44.3,31911.9,34908.3,-1.5039,-1.109,144.7,97.0,0.519
44.32,31873.6,34832.7,-2.1571,-2.0217,144.7,97.0,0.519
44.34,31979.8,34889.6,-0.3477,-1.3353,144.7,97.0,0.519
44.36,32022.6,35060.2,0.3819,0.7248,144.7,97.0,0.519
44.38,32088.2,35163.8,1.5004,1.9752,144.7,97.0,0.519
44.4,31990.8,35092.8,-0.1591,1.1183,144.7,97.0,0.519
44.42,32003.1,35101.6,0.0506,1.2243,144.7,97.0,0.519
44.44,32050.4,35077.4,0.8566,0.9321,144.7,97.0,0.519
44.46,31980.3,35097.9,-0.3386,1.1806,144.7,97.0,0.519
44.48,32118.8,35017.6,2.0222,0.2105,144.7,97.0,0.519
44.5,32047.4,34991.6,0.8042,-0.1033,144.7,97.0,0.519
44.52,32027.3,34901.4,0.4622,-1.1917,144.7,97.0,0.519
44.54,32040.5,34959.3,0.6881,-0.4928,144.7,97.0,0.519
44.56,31982.6,34984.7,-0.2989,-0.1861,144.7,97.0,0.519
44.58,32024.5,34894.6,0.4155,-1.2746,144.7,97.0,0.519
44.6,31972.1,35063.8,-0.4789,0.7684,144.7,97.0,0.519
44.62,32013.7,34902.2,0.2313,-1.1825,144.7,97.0,0.519
44.64,31922.3,34979.2,-1.3263,-0.253,144.7,97.0,0.519
44.66,31990.4,34911.9,-0.1664,-1.0657,144.7,97.0,0.519
44.68,31994.8,34868.1,-0.0918,-1.5941,144.7,97.0,0.519
44.7,31966.8,35022.1,-0.5682,0.265,144.7,97.0,0.519
44.72,31952.9,34920.9,-0.8045,-0.9572,144.7,97.0,0.519
44.74,31923.3,34866.9,-1.31,-1.6087,144.7,97.0,0.519
44.76,32027.2,34894.6,0.4608,-1.2742,144.7,97.0,0.519
44.78,31930.0,35088.9,-1.196,1.0711,144.7,97.0,0.519
44.8,32051.3,35066.1,0.871,0.7967,144.7,97.0,0.519
44.82,32159.7,34986.8,2.7191,-0.1612,144.7,97.0,0.519
44.84,31998.6,35052.0,-0.0266,0.6256,144.7,97.0,0.519
44.86,32054.0,35060.3,0.9167,0.7263,144.7,97.0,0.519
44.88,32065.3,35100.0,1.1093,1.205,144.7,97.0,0.519
