timestamp,raw_red,raw_ir,filtered_red,filtered_ir,heart_rate,spo2,ac_dc_ratio
0.0,32070.0,35169.9,0.3902,0.416,135.2,98.2,0.472
0.02,32131.2,35536.5,0.7289,1.3175,135.2,98.2,0.472
0.04,32264.0,35660.4,1.4635,1.622,135.2,98.2,0.472
0.06,32241.9,35823.0,1.3415,2.0219,135.2,98.2,0.472
0.08,32291.9,35661.2,1.6178,1.6239,135.2,98.2,0.472
0.1,32203.1,35491.4,1.1268,1.2064,135.2,98.2,0.472
0.12,32108.1,35351.8,0.6013,0.8633,135.2,98.2,0.472
0.14,32085.3,35042.2,0.4751,0.102,135.2,98.2,0.472
0.16,31914.1,35062.0,-0.4723,0.1507,135.2,98.2,0.472
0.18,32034.0,35068.3,0.1913,0.166,135.2,98.2,0.472
0.2,32000.3,35072.1,0.0049,0.1755,135.2,98.2,0.472
0.22,31918.1,34904.2,-0.45,-0.2374,135.2,98.2,0.472
0.24,31951.6,34744.2,-0.2649,-0.6308,135.2,98.2,0.472
0.26,31819.8,34719.6,-0.9938,-0.6912,135.2,98.2,0.472
0.28,31868.1,34649.2,-0.7266,-0.8645,135.2,98.2,0.472
0.3,31824.9,34600.0,-0.9654,-0.9854,135.2,98.2,0.472
0.32,31870.6,34618.8,-0.7129,-0.9392,135.2,98.2,0.472
0.34,31733.7,34604.8,-1.4702,-0.9736,135.2,98.2,0.472
0.36,31684.5,34483.2,-1.7421,-1.2727,135.2,98.2,0.472
0.38,31825.2,34469.4,-0.9641,-1.3066,135.2,98.2,0.472
0.4,31777.9,34501.7,-1.2254,-1.2271,135.2,98.2,0.472
0.42,31910.0,34784.5,-0.495,-0.5318,135.2,98.2,0.472
0.44,32180.1,35152.1,0.9996,0.3721,135.2,98.2,0.472
0.46,32182.1,35473.3,1.0106,1.1619,135.2,98.2,0.472
0.48,32314.7,35679.9,1.7441,1.6701,135.2,98.2,0.472
0.5,32330.3,35704.0,1.8303,1.7292,135.2,98.2,0.472
0.52,32269.2,35711.1,1.4925,1.7468,135.2,98.2,0.472
0.54,32240.1,35552.8,1.3313,1.3575,135.2,98.2,0.472
0.56,32150.3,35308.6,0.8348,0.7571,135.2,98.2,0.472
0.58,32000.7,35177.6,0.0067,0.4349,135.2,98.2,0.472
0.6,32034.8,35089.2,0.1958,0.2175,135.2,98.2,0.472
0.62,32034.1,35083.0,0.1917,0.2022,135.2,98.2,0.472
0.64,32022.9,34948.6,0.1297,-0.1282,135.2,98.2,0.472
0.66,32020.0,34905.6,0.114,-0.2339,135.2,98.2,0.472
0.68,32012.5,34823.0,0.0721,-0.437,135.2,98.2,0.472
0.7,31915.8,34696.8,-0.4628,-0.7473,135.2,98.2,0.472
0.72,31888.9,34663.2,-0.6114,-0.8301,135.2,98.2,0.472
0.74,31817.4,34686.6,-1.0073,-0.7724,135.2,98.2,0.472
0.76,31821.9,34681.5,-0.9822,-0.7849,135.2,98.2,0.472
0.78,31822.3,34655.0,-0.9798,-0.8501,135.2,98.2,0.472
0.8,31767.3,34507.6,-1.2845,-1.2125,135.2,98.2,0.472
0.82,31694.5,34368.6,-1.6868,-1.5544,135.2,98.2,0.472
0.84,31810.6,34554.1,-1.0448,-1.0982,135.2,98.2,0.472
0.86,31857.3,34663.4,-0.7865,-0.8294,135.2,98.2,0.472
0.88,32088.3,34962.3,0.4918,-0.0946,135.2,98.2,0.472
0.9,32184.8,35360.7,1.0252,0.8851,135.2,98.2,0.472
0.92,32236.5,35592.2,1.3114,1.4543,135.2,98.2,0.472
0.94,32368.6,35630.4,2.0421,1.5483,135.2,98.2,0.472
0.96,32318.3,35721.2,1.7638,1.7716,135.2,98.2,0.472
0.98,32294.3,35454.3,1.6314,1.1154,135.2,98.2,0.472
1.0,32187.1,35303.9,1.0384,0.7456,135.2,98.2,0.472
1.02,32172.9,35196.5,0.9595,0.4813,135.2,98.2,0.472
1.04,31970.8,35044.1,-0.1583,0.1067,135.2,98.2,0.472
1.06,32073.2,35083.2,0.408,0.2027,135.2,98.2,0.472
1.08,31948.1,35111.5,-0.2842,0.2723,135.2,98.2,0.472
1.1,31991.6,34909.9,-0.0435,-0.2233,135.2,98.2,0.472
1.12,31912.0,34766.3,-0.4839,-0.5764,135.2,98.2,0.472
1.14,31889.7,34760.3,-0.6074,-0.5912,135.2,98.2,0.472
1.16,31816.6,34762.0,-1.0114,-0.5871,135.2,98.2,0.472
1.18,31856.5,34650.9,-0.7909,-0.8602,135.2,98.2,0.472
1.2,31889.9,34648.1,-0.606,-0.8671,135.2,98.2,0.472
1.22,31865.1,34568.0,-0.743,-1.0641,135.2,98.2,0.472
1.24,31759.7,34555.5,-1.3262,-1.0947,135.2,98.2,0.472
1.26,31710.2,34467.3,-1.6004,-1.3118,135.2,98.2,0.472
1.28,31781.7,34526.1,-1.2044,-1.1673,135.2,98.2,0.472
1.3,31789.5,34706.5,-1.1613,-0.7235,135.2,98.2,0.472
1.32,32001.1,34882.0,0.0091,-0.292,135.2,98.2,0.472
1.34,32119.8,35355.7,0.6658,0.8728,135.2,98.2,0.472
1.36,32249.0,35678.6,1.3805,1.6669,135.2,98.2,0.472
1.38,32313.0,35780.6,1.7347,1.9176,135.2,98.2,0.472
1.4,32321.9,35753.1,1.784,1.85,135.2,98.2,0.472
1.42,32194.7,35525.4,1.0805,1.2901,135.2,98.2,0.472
1.44,32126.1,35397.5,0.7007,0.9757,135.2,98.2,0.472
1.46,32022.4,35251.0,0.1271,0.6154,135.2,98.2,0.472
1.48,32094.9,35109.1,0.5279,0.2663,135.2,98.2,0.472
1.5,32003.6,35153.5,0.0231,0.3757,135.2,98.2,0.472
1.52,32028.2,35066.6,0.1593,0.1619,135.2,98.2,0.472
1.54,31896.4,34961.8,-0.5701,-0.0958,135.2,98.2,0.472
1.56,31972.2,34754.4,-0.1508,-0.6057,135.2,98.2,0.472
1.58,31887.9,34779.6,-0.6173,-0.5437,135.2,98.2,0.472
1.6,31857.1,34713.6,-0.7873,-0.7061,135.2,98.2,0.472
1.62,31942.1,34782.7,-0.3173,-0.5362,135.2,98.2,0.472
1.64,31865.0,34680.1,-0.7438,-0.7886,135.2,98.2,0.472
1.66,31808.4,34596.9,-1.0568,-0.993,135.2,98.2,0.472
1.68,31800.2,34492.5,-1.1022,-1.2497,135.2,98.2,0.472
1.7,31800.6,34440.2,-1.1002,-1.3783,135.2,98.2,0.472
1.72,31799.5,34443.2,-1.1059,-1.3709,135.2,98.2,0.472
1.74,31897.9,34574.9,-0.5618,-1.0471,135.2,98.2,0.472
1.76,31877.9,34830.0,-0.6723,-0.42,135.2,98.2,0.472
1.78,32162.9,35250.5,0.9045,0.6141,135.2,98.2,0.472
1.8,32267.3,35613.4,1.4819,1.5064,135.2,98.2,0.472
1.82,32279.2,35722.1,1.5477,1.7738,135.2,98.2,0.472
1.84,32306.7,35728.3,1.6999,1.7891,135.2,98.2,0.472
1.86,32376.7,35536.5,2.0871,1.3173,135.2,98.2,0.472
1.88,32206.1,35419.5,1.1432,1.0296,135.2,98.2,0.472
1.9,32102.2,35254.6,0.5686,0.6241,135.2,98.2,0.472
1.92,32031.3,35075.1,0.1761,0.1828,135.2,98.2,0.472
1.94,32146.5,35120.3,0.8134,0.2939,135.2,98.2,0.472
1.96,32013.8,35025.4,0.0793,0.0606,135.2,98.2,0.472
1.98,31880.4,34949.8,-0.6583,-0.1253,135.2,98.2,0.472
2.0,31985.8,34847.6,-0.0754,-0.3766,135.2,98.2,0.472
2.02,31971.2,34747.2,-0.1564,-0.6234,135.2,98.2,0.472
2.04,31779.3,34603.1,-1.2177,-0.9778,135.2,98.2,0.472
2.06,31862.6,34730.3,-0.7568,-0.665,135.2,98.2,0.472
2.08,31808.9,34657.1,-1.0539,-0.8451,135.2,98.2,0.472
2.1,31823.3,34758.5,-0.9742,-0.5957,135.2,98.2,0.472
2.12,31853.9,34566.8,-0.8051,-1.067,135.2,98.2,0.472
2.14,31781.3,34459.4,-1.2071,-1.3312,135.2,98.2,0.472
2.16,31760.7,34427.6,-1.3208,-1.4093,135.2,98.2,0.472
2.18,31867.6,34566.9,-0.7293,-1.0668,135.2,98.2,0.472
2.2,31981.7,34853.4,-0.0981,-0.3624,135.2,98.2,0.472
2.22,32123.7,35170.2,0.6874,0.4166,135.2,98.2,0.472
2.24,32168.5,35504.4,0.9351,1.2385,135.2,98.2,0.472
2.26,32326.8,35745.3,1.811,1.8309,135.2,98.2,0.472
2.28,32336.7,35840.4,1.8657,2.0646,135.2,98.2,0.472
2.3,32272.7,35649.7,1.5119,1.5956,135.2,98.2,0.472
2.32,32183.0,35491.3,1.0156,1.2063,135.2,98.2,0.472
2.34,32170.6,35288.3,0.9469,0.7071,135.2,98.2,0.472
2.36,32082.2,35087.5,0.458,0.2133,135.2,98.2,0.472
2.38,31987.0,35114.6,-0.0687,0.2798,135.2,98.2,0.472
2.4,32125.6,35002.6,0.6982,0.0046,135.2,98.2,0.472
2.42,32006.6,35026.4,0.0398,0.0631,135.2,98.2,0.472
2.44,31944.9,34904.4,-0.302,-0.2368,135.2,98.2,0.472
2.46,31947.3,34931.5,-0.2882,-0.1702,135.2,98.2,0.472
2.48,31823.9,34750.5,-0.9713,-0.6152,135.2,98.2,0.472
2.5,31918.3,34719.3,-0.4487,-0.692,135.2,98.2,0.472
2.52,31758.5,34771.8,-1.3331,-0.563,135.2,98.2,0.472
2.54,31865.1,34637.1,-0.7429,-0.8943,135.2,98.2,0.472
2.56,31734.0,34586.1,-1.4687,-1.0196,135.2,98.2,0.472
2.58,31728.6,34420.5,-1.4984,-1.4269,135.2,98.2,0.472
2.6,31775.0,34515.3,-1.2415,-1.1937,135.2,98.2,0.472
2.62,31885.9,34464.4,-0.6284,-1.3188,135.2,98.2,0.472
2.64,31808.6,34765.5,-1.056,-0.5785,135.2,98.2,0.472
2.66,31987.2,35067.5,-0.068,0.1642,135.2,98.2,0.472
2.68,32089.7,35349.8,0.4991,0.8584,135.2,98.2,0.472
2.7,32266.0,35696.3,1.4744,1.7105,135.2,98.2,0.472
2.72,32331.3,35732.7,1.836,1.7997,135.2,98.2,0.472
2.74,32281.0,35689.0,1.5578,1.6923,135.2,98.2,0.472
2.76,32244.9,35437.5,1.358,1.0739,135.2,98.2,0.472
2.78,32095.2,35278.5,0.5296,0.683,135.2,98.2,0.472
2.8,32071.5,35177.1,0.3985,0.4335,135.2,98.2,0.472
2.82,32043.4,35179.8,0.2433,0.4402,135.2,98.2,0.472
2.84,31999.3,35086.6,-0.0011,0.211,135.2,98.2,0.472
2.86,32024.1,35008.8,0.1363,0.0198,135.2,98.2,0.472
2.88,31957.0,34860.0,-0.2346,-0.3461,135.2,98.2,0.472
2.9,31898.3,34843.9,-0.5598,-0.3856,135.2,98.2,0.472
2.92,31938.9,34695.6,-0.3352,-0.7503,135.2,98.2,0.472
2.94,31808.2,34752.7,-1.0578,-0.61,135.2,98.2,0.472
2.96,31924.2,34682.1,-0.416,-0.7836,135.2,98.2,0.472
2.98,31858.4,34666.4,-0.7803,-0.8221,135.2,98.2,0.472
3.0,31872.9,34675.1,-0.7002,-0.8007,135.2,98.2,0.472
3.02,31732.7,34478.5,-1.4759,-1.2842,135.2,98.2,0.472
3.04,31787.2,34429.0,-1.1743,-1.4058,135.2,98.2,0.472
3.06,31757.6,34485.9,-1.338,-1.266,135.2,98.2,0.472
3.08,31783.1,34614.1,-1.1968,-0.9507,135.2,98.2,0.472
3.1,32041.0,34959.9,0.2297,-0.1005,135.2,98.2,0.472
3.12,32119.8,35296.2,0.6659,0.7265,135.2,98.2,0.472
3.14,32308.9,35650.7,1.7119,1.5982,135.2,98.2,0.472
3.16,32339.6,35734.1,1.8815,1.8034,135.2,98.2,0.472
3.18,32287.5,35823.1,1.5936,2.022,135.2,98.2,0.472
3.2,32325.9,35531.7,1.8061,1.3056,135.2,98.2,0.472
3.22,32086.9,35327.1,0.4836,0.8024,135.2,98.2,0.472
3.24,32146.0,35243.0,0.8106,0.5956,135.2,98.2,0.472
3.26,31983.3,35108.4,-0.0895,0.2647,135.2,98.2,0.472
3.28,31962.6,35031.7,-0.2036,0.0761,135.2,98.2,0.472
3.3,32029.7,35080.6,0.1675,0.1964,135.2,98.2,0.472
3.32,32008.9,34949.2,0.0522,-0.1267,135.2,98.2,0.472
3.34,31899.2,34813.9,-0.5547,-0.4594,135.2,98.2,0.472
3.36,31962.0,34727.9,-0.2073,-0.6709,135.2,98.2,0.472
3.38,31797.4,34609.6,-1.1177,-0.9618,135.2,98.2,0.472
3.4,31855.9,34636.7,-0.7942,-0.8951,135.2,98.2,0.472
3.42,31802.9,34663.0,-1.0873,-0.8304,135.2,98.2,0.472
3.44,31847.0,34470.7,-0.8435,-1.3032,135.2,98.2,0.472
3.46,31835.4,34563.5,-0.9075,-1.0752,135.2,98.2,0.472
3.48,31783.3,34452.7,-1.1958,-1.3475,135.2,98.2,0.472
3.5,31861.5,34479.3,-0.7631,-1.2821,135.2,98.2,0.472
3.52,31909.7,34622.9,-0.4964,-0.9291,135.2,98.2,0.472
3.54,32013.3,35009.3,0.0764,0.0211,135.2,98.2,0.472
3.56,32215.9,35311.6,1.1975,0.7645,135.2,98.2,0.472
3.58,32267.9,35633.6,1.4853,1.5561,135.2,98.2,0.472
3.6,32360.3,35786.0,1.9965,1.9308,135.2,98.2,0.472
3.62,32276.4,35799.5,1.5323,1.9642,135.2,98.2,0.472
3.64,32177.3,35571.5,0.9841,1.4034,135.2,98.2,0.472
3.66,32096.8,35314.8,0.5385,0.7722,135.2,98.2,0.472
3.68,32079.0,35260.1,0.4399,0.6376,135.2,98.2,0.472
3.7,32092.2,35113.8,0.5132,0.2781,135.2,98.2,0.472
3.72,32132.0,35032.4,0.7331,0.078,135.2,98.2,0.472
3.74,32008.5,34996.3,0.0501,-0.0109,135.2,98.2,0.472
3.76,31937.7,34956.6,-0.3418,-0.1085,135.2,98.2,0.472
3.78,31822.3,34898.4,-0.9802,-0.2518,135.2,98.2,0.472
3.8,31801.2,34738.0,-1.0965,-0.6461,135.2,98.2,0.472
3.82,31814.8,34756.0,-1.0216,-0.6017,135.2,98.2,0.472
3.84,31847.8,34722.9,-0.8388,-0.6833,135.2,98.2,0.472
3.86,31859.5,34582.4,-0.7741,-1.0286,135.2,98.2,0.472
3.88,31876.6,34638.9,-0.6797,-0.8898,135.2,98.2,0.472
3.9,31781.9,34551.0,-1.2033,-1.1059,135.2,98.2,0.472
3.92,31822.8,34471.4,-0.9772,-1.3015,135.2,98.2,0.472
3.94,31766.3,34511.8,-1.29,-1.2023,135.2,98.2,0.472
3.96,31763.4,34665.3,-1.3058,-0.8248,135.2,98.2,0.472
3.98,31955.1,34921.3,-0.2451,-0.1953,135.2,98.2,0.472
4.0,32060.6,35221.5,0.3381,0.5429,135.2,98.2,0.472
4.02,32282.9,35562.5,1.5681,1.3813,135.2,98.2,0.472
4.04,32230.1,35776.6,1.2762,1.9079,135.2,98.2,0.472
4.06,32249.6,35724.8,1.3841,1.7805,135.2,98.2,0.472
4.08,32281.9,35705.8,1.5626,1.7337,135.2,98.2,0.472
4.1,32218.5,35503.7,1.2117,1.2367,135.2,98.2,0.472
4.12,32141.5,35256.0,0.786,0.6277,135.2,98.2,0.472
4.14,31975.8,35130.8,-0.131,0.3198,135.2,98.2,0.472
4.16,32056.4,35153.8,0.3152,0.3763,135.2,98.2,0.472
4.18,32082.1,35105.3,0.4573,0.2571,135.2,98.2,0.472
4.2,32001.8,34944.2,0.0131,-0.1389,135.2,98.2,0.472
4.22,31858.0,34836.4,-0.7826,-0.404,135.2,98.2,0.472
4.24,31891.0,34782.1,-0.6002,-0.5375,135.2,98.2,0.472
4.26,31891.0,34700.1,-0.5998,-0.7393,135.2,98.2,0.472
4.28,31875.7,34585.7,-0.6846,-1.0206,135.2,98.2,0.472
4.3,31871.0,34679.9,-0.7107,-0.7891,135.2,98.2,0.472
4.32,31852.6,34628.7,-0.8126,-0.9149,135.2,98.2,0.472
4.34,31856.9,34576.9,-0.7886,-1.0421,135.2,98.2,0.472
4.36,31834.6,34423.7,-0.9119,-1.419,135.2,98.2,0.472
4.38,31744.9,34453.9,-1.4083,-1.3448,135.2,98.2,0.472
4.4,31835.2,34548.2,-0.9085,-1.1129,135.2,98.2,0.472
4.42,31880.2,34833.4,-0.6599,-0.4115,135.2,98.2,0.472
4.44,32090.1,35174.8,0.5015,0.4279,135.2,98.2,0.472
4.46,32269.8,35550.9,1.4954,1.3527,135.2,98.2,0.472
4.48,32295.3,35668.9,1.637,1.643,135.2,98.2,0.472
4.5,32325.3,35763.1,1.8029,1.8747,135.2,98.2,0.472
4.52,32263.6,35598.3,1.4616,1.4693,135.2,98.2,0.472
4.54,32169.9,35505.1,0.9431,1.2401,135.2,98.2,0.472
4.56,32131.5,35191.7,0.7305,0.4697,135.2,98.2,0.472
4.58,32069.0,35096.9,0.3848,0.2365,135.2,98.2,0.472
4.6,32020.8,35116.9,0.1183,0.2857,135.2,98.2,0.472
4.62,31941.6,35074.0,-0.3199,0.1802,135.2,98.2,0.472
4.64,31893.4,34981.0,-0.5864,-0.0487,135.2,98.2,0.472
4.66,31953.5,34999.6,-0.2544,-0.0027,135.2,98.2,0.472
4.68,31863.0,34801.5,-0.7546,-0.4898,135.2,98.2,0.472
4.7,31876.4,34722.3,-0.6809,-0.6847,135.2,98.2,0.472
4.72,31859.4,34667.0,-0.7746,-0.8207,135.2,98.2,0.472
4.74,31816.9,34695.6,-1.0098,-0.7504,135.2,98.2,0.472
4.76,31787.2,34586.3,-1.1739,-1.0191,135.2,98.2,0.472
4.78,31813.6,34512.9,-1.0279,-1.1995,135.2,98.2,0.472
4.8,31823.2,34466.6,-0.9749,-1.3135,135.2,98.2,0.472
4.82,31691.2,34464.2,-1.7055,-1.3194,135.2,98.2,0.472
4.84,31829.7,34438.2,-0.9393,-1.3834,135.2,98.2,0.472
4.86,31814.7,34767.5,-1.0223,-0.5736,135.2,98.2,0.472
4.88,32036.0,35090.2,0.2021,0.2199,135.2,98.2,0.472
4.9,32207.6,35411.4,1.1517,1.0099,135.2,98.2,0.472
4.92,32198.7,35654.5,1.1021,1.6076,135.2,98.2,0.472
4.94,32366.4,35821.0,2.0301,2.0169,135.2,98.2,0.472
4.96,32249.8,35730.9,1.385,1.7954,135.2,98.2,0.472
4.98,32249.1,35521.1,1.381,1.2794,135.2,98.2,0.472
5.0,32130.1,35319.4,0.7228,0.7836,135.2,98.2,0.472
5.02,32098.1,35229.5,0.546,0.5626,135.2,98.2,0.472
5.04,32086.7,35050.4,0.4829,0.1221,135.2,98.2,0.472
5.06,32051.4,35157.6,0.2873,0.3857,135.2,98.2,0.472
5.08,32046.9,34977.4,0.2623,-0.0574,135.2,98.2,0.472
5.1,31965.4,34912.2,-0.1882,-0.2178,135.2,98.2,0.472
5.12,31912.5,34783.2,-0.4811,-0.535,135.2,98.2,0.472
5.14,31930.1,34728.1,-0.3835,-0.6705,135.2,98.2,0.472
5.16,31873.5,34714.0,-0.6967,-0.7051,135.2,98.2,0.472
5.18,31818.0,34711.3,-1.0037,-0.7117,135.2,98.2,0.472
5.2,31951.5,34659.1,-0.2655,-0.84,135.2,98.2,0.472
5.22,31772.6,34553.0,-1.255,-1.1009,135.2,98.2,0.472
5.24,31820.4,34558.2,-0.9904,-1.0882,135.2,98.2,0.472
5.26,31735.7,34441.8,-1.4588,-1.3744,135.2,98.2,0.472
5.28,31747.5,34470.5,-1.3936,-1.3038,135.2,98.2,0.472
5.3,31808.2,34633.4,-1.0578,-0.9032,135.2,98.2,0.472
5.32,31993.5,35032.5,-0.0326,0.078,135.2,98.2,0.472
5.34,32155.2,35411.0,0.8615,1.0088,135.2,98.2,0.472
5.36,32372.5,35628.5,2.0639,1.5436,135.2,98.2,0.472
5.38,32290.2,35680.1,1.6084,1.6706,135.2,98.2,0.472
5.4,32220.7,35695.9,1.224,1.7095,135.2,98.2,0.472
5.42,32272.4,35525.6,1.5102,1.2906,135.2,98.2,0.472
5.44,32126.6,35344.5,0.7037,0.8454,135.2,98.2,0.472
5.46,32096.8,35247.7,0.5386,0.6074,135.2,98.2,0.472
5.48,32050.6,35109.9,0.2827,0.2683,135.2,98.2,0.472
5.5,31969.4,35027.6,-0.1662,0.0661,135.2,98.2,0.472
5.52,32078.2,35006.8,0.4356,0.0149,135.2,98.2,0.472
5.54,31918.3,34943.9,-0.4488,-0.1397,135.2,98.2,0.472
5.56,31900.1,34846.7,-0.5498,-0.3788,135.2,98.2,0.472
5.58,31812.2,34745.0,-1.0361,-0.6289,135.2,98.2,0.472
5.6,31862.1,34846.8,-0.7599,-0.3785,135.2,98.2,0.472
5.62,31923.6,34635.6,-0.4194,-0.8978,135.2,98.2,0.472
5.64,31817.5,34655.0,-1.0067,-0.8502,135.2,98.2,0.472
5.66,31750.5,34601.0,-1.3773,-0.983,135.2,98.2,0.472
5.68,31794.2,34518.8,-1.1352,-1.185,135.2,98.2,0.472
5.7,31747.9,34441.4,-1.3915,-1.3755,135.2,98.2,0.472
5.72,31809.1,34485.3,-1.0529,-1.2674,135.2,98.2,0.472
5.74,31789.4,34712.1,-1.1621,-0.7097,135.2,98.2,0.472
5.76,32032.8,34978.8,0.1848,-0.0541,135.2,98.2,0.472
5.78,32172.5,35379.4,0.9572,0.9312,135.2,98.2,0.472
5.8,32304.0,35643.1,1.6849,1.5794,135.2,98.2,0.472
5.82,32343.7,35757.8,1.9043,1.8614,135.2,98.2,0.472
5.84,32338.0,35772.3,1.873,1.8971,135.2,98.2,0.472
5.86,32266.5,35585.4,1.4777,1.4377,135.2,98.2,0.472
5.88,32195.8,35358.8,1.0863,0.8805,135.2,98.2,0.472
5.9,32192.2,35213.5,1.0666,0.5232,135.2,98.2,0.472
5.92,32134.1,35035.2,0.745,0.0848,135.2,98.2,0.472
5.94,32069.4,35109.4,0.387,0.2671,135.2,98.2,0.472
5.96,31972.4,35085.0,-0.1495,0.2072,135.2,98.2,0.472
5.98,31868.4,34983.5,-0.7249,-0.0424,135.2,98.2,0.472
6.0,31932.0,34855.7,-0.3729,-0.3567,135.2,98.2,0.472
6.02,31865.9,34788.1,-0.7389,-0.5228,135.2,98.2,0.472
6.04,31825.6,34643.0,-0.9615,-0.8798,135.2,98.2,0.472
6.06,31931.3,34695.1,-0.3768,-0.7515,135.2,98.2,0.472
6.08,31896.8,34645.2,-0.5678,-0.8743,135.2,98.2,0.472
6.1,31752.0,34651.4,-1.3689,-0.859,135.2,98.2,0.472
6.12,31834.3,34599.3,-0.9133,-0.9871,135.2,98.2,0.472
6.14,31761.3,34413.4,-1.3173,-1.4442,135.2,98.2,0.472
6.16,31755.6,34402.3,-1.3488,-1.4715,135.2,98.2,0.472
6.18,31851.5,34557.1,-0.8186,-1.0909,135.2,98.2,0.472
6.2,31883.4,34888.8,-0.6417,-0.2753,135.2,98.2,0.472
6.22,32130.9,35341.0,0.7272,0.8367,135.2,98.2,0.472
6.24,32233.7,35524.4,1.2962,1.2876,135.2,98.2,0.472
6.26,32320.7,35716.4,1.777,1.7598,135.2,98.2,0.472
6.28,32294.9,35774.8,1.6344,1.9034,135.2,98.2,0.472
6.3,32216.2,35642.6,1.1989,1.5782,135.2,98.2,0.472
6.32,32150.5,35431.4,0.8356,1.0589,135.2,98.2,0.472
6.34,32096.3,35209.5,0.536,0.5132,135.2,98.2,0.472
6.36,32066.8,35158.9,0.3728,0.3889,135.2,98.2,0.472
6.38,32083.8,35193.3,0.4669,0.4734,135.2,98.2,0.472
6.4,31990.2,34978.9,-0.0513,-0.0537,135.2,98.2,0.472
6.42,32011.5,34917.9,0.0666,-0.2038,135.2,98.2,0.472
6.44,31960.7,34944.8,-0.2146,-0.1377,135.2,98.2,0.472
6.46,31906.2,34698.3,-0.5156,-0.7437,135.2,98.2,0.472
6.48,31893.0,34749.2,-0.5887,-0.6185,135.2,98.2,0.472
6.5,31810.2,34795.6,-1.0468,-0.5045,135.2,98.2,0.472
6.52,31799.4,34692.1,-1.1064,-0.7589,135.2,98.2,0.472
6.54,31956.3,34634.2,-0.2388,-0.9012,135.2,98.2,0.472
6.56,31796.7,34560.8,-1.1215,-1.0819,135.2,98.2,0.472
6.58,31740.3,34442.4,-1.4336,-1.3729,135.2,98.2,0.472
6.6,31761.3,34552.1,-1.3172,-1.1033,135.2,98.2,0.472
6.62,31837.2,34584.2,-0.8974,-1.0243,135.2,98.2,0.472
6.64,31974.0,34825.4,-0.1408,-0.4311,135.2,98.2,0.472
6.66,32129.9,35112.6,0.722,0.275,135.2,98.2,0.472
6.68,32206.2,35527.9,1.1438,1.2962,135.2,98.2,0.472
6.7,32285.2,35787.2,1.5809,1.9339,135.2,98.2,0.472
6.72,32244.6,35797.7,1.3562,1.9596,135.2,98.2,0.472
6.74,32231.3,35563.5,1.2824,1.3838,135.2,98.2,0.472
6.76,32165.3,35450.2,0.9175,1.1051,135.2,98.2,0.472
6.78,32188.6,35254.7,1.0465,0.6245,135.2,98.2,0.472
6.8,32085.9,35128.5,0.4782,0.3143,135.2,98.2,0.472
6.82,32048.7,35103.8,0.2725,0.2534,135.2,98.2,0.472
6.84,32042.3,35079.8,0.2373,0.1943,135.2,98.2,0.472
6.86,32046.0,34959.9,0.2574,-0.1003,135.2,98.2,0.472
6.88,31945.9,34959.6,-0.2959,-0.1013,135.2,98.2,0.472
6.9,31875.5,34802.5,-0.6856,-0.4874,135.2,98.2,0.472
6.92,31844.5,34637.2,-0.8571,-0.8938,135.2,98.2,0.472
6.94,31798.6,34636.2,-1.1113,-0.8963,135.2,98.2,0.472
6.96,31794.0,34631.8,-1.1366,-0.9073,135.2,98.2,0.472
6.98,31797.4,34661.8,-1.1179,-0.8335,135.2,98.2,0.472
7.0,31791.2,34610.6,-1.152,-0.9595,135.2,98.2,0.472
7.02,31779.6,34469.4,-1.216,-1.3066,135.2,98.2,0.472
7.04,31783.9,34495.1,-1.1922,-1.2434,135.2,98.2,0.472
7.06,31730.6,34508.7,-1.4872,-1.2098,135.2,98.2,0.472
7.08,31916.7,34786.7,-0.458,-0.5263,135.2,98.2,0.472
7.1,32011.3,35093.1,0.0655,0.2271,135.2,98.2,0.472
7.12,32045.5,35453.3,0.2546,1.1127,135.2,98.2,0.472
7.14,32272.3,35708.4,1.5098,1.7401,135.2,98.2,0.472
7.16,32300.4,35778.7,1.665,1.913,135.2,98.2,0.472
7.18,32317.6,35591.3,1.7599,1.4523,135.2,98.2,0.472
7.2,32231.1,35485.6,1.2818,1.1921,135.2,98.2,0.472
7.22,32101.3,35323.4,0.5636,0.7935,135.2,98.2,0.472
7.24,31968.3,35085.5,-0.1723,0.2084,135.2,98.2,0.472
7.26,32017.1,35170.7,0.0976,0.4179,135.2,98.2,0.472
7.28,32044.1,35074.3,0.2471,0.181,135.2,98.2,0.472
7.3,31992.2,34987.7,-0.04,-0.032,135.2,98.2,0.472
7.32,31857.9,34829.5,-0.7832,-0.421,135.2,98.2,0.472
7.34,31874.5,34783.5,-0.691,-0.5343,135.2,98.2,0.472
7.36,31882.7,34729.1,-0.6458,-0.6679,135.2,98.2,0.472
7.38,31706.9,34684.5,-1.6185,-0.7775,135.2,98.2,0.472
7.4,31912.6,34776.2,-0.4805,-0.5521,135.2,98.2,0.472
7.42,31793.2,34685.1,-1.1408,-0.7761,135.2,98.2,0.472
7.44,31804.3,34566.0,-1.0797,-1.0691,135.2,98.2,0.472
7.46,31762.4,34491.6,-1.3113,-1.252,135.2,98.2,0.472
7.48,31744.1,34462.0,-1.4124,-1.3246,135.2,98.2,0.472
7.5,31795.6,34499.6,-1.1278,-1.2323,135.2,98.2,0.472
7.52,31997.2,34778.4,-0.0122,-0.5467,135.2,98.2,0.472
7.54,31957.0,35107.5,-0.235,0.2626,135.2,98.2,0.472
7.56,32181.5,35349.1,1.007,0.8565,135.2,98.2,0.472
7.58,32300.1,35679.3,1.6635,1.6684,135.2,98.2,0.472
7.6,32336.5,35757.4,1.8645,1.8605,135.2,98.2,0.472
7.62,32399.9,35754.4,2.2153,1.8533,135.2,98.2,0.472
7.64,32230.0,35491.0,1.2754,1.2054,135.2,98.2,0.472
7.66,32210.8,35339.7,1.1691,0.8334,135.2,98.2,0.472
7.68,32030.0,35289.2,0.1692,0.7092,135.2,98.2,0.472
7.7,31985.7,35065.2,-0.0758,0.1585,135.2,98.2,0.472
7.72,32051.0,35048.2,0.2854,0.1167,135.2,98.2,0.472
7.74,31998.4,34942.1,-0.006,-0.1441,135.2,98.2,0.472
7.76,31998.7,34888.8,-0.0043,-0.2752,135.2,98.2,0.472
7.78,31874.9,34849.3,-0.6887,-0.3724,135.2,98.2,0.472
7.8,31816.0,34787.5,-1.0148,-0.5243,135.2,98.2,0.472
7.82,31886.0,34699.4,-0.6275,-0.7409,135.2,98.2,0.472
7.84,31902.2,34668.5,-0.5381,-0.8169,135.2,98.2,0.472
7.86,31964.5,34632.6,-0.1934,-0.9053,135.2,98.2,0.472
7.88,31858.9,34619.7,-0.7774,-0.9369,135.2,98.2,0.472
7.9,31845.8,34446.9,-0.8498,-1.3619,135.2,98.2,0.472
7.92,31823.5,34468.0,-0.9732,-1.3099,135.2,98.2,0.472
7.94,31872.0,34486.5,-0.7052,-1.2645,135.2,98.2,0.472
7.96,31796.0,34712.4,-1.1255,-0.709,135.2,98.2,0.472
7.98,31981.5,35014.5,-0.0992,0.0338,135.2,98.2,0.472
8.0,32085.4,35327.3,0.4756,0.8029,135.2,98.2,0.472
8.02,32228.5,35715.5,1.267,1.7575,135.2,98.2,0.472
8.04,32401.3,35803.6,2.2233,1.9743,135.2,98.2,0.472
8.06,32328.7,35730.2,1.8216,1.7936,135.2,98.2,0.472
8.08,32277.0,35551.0,1.5357,1.3531,135.2,98.2,0.472
8.1,32159.0,35335.9,0.8828,0.8241,135.2,98.2,0.472
8.12,32030.1,35226.4,0.1696,0.5549,135.2,98.2,0.472
8.14,32086.3,35143.2,0.4807,0.3504,135.2,98.2,0.472
8.16,32073.4,35032.2,0.4092,0.0772,135.2,98.2,0.472
8.18,32058.5,35110.0,0.3269,0.2687,135.2,98.2,0.472
8.2,32004.9,34830.2,0.03,-0.4194,135.2,98.2,0.472
8.22,31919.8,34784.1,-0.4409,-0.5328,135.2,98.2,0.472
8.24,31759.7,34787.4,-1.3262,-0.5245,135.2,98.2,0.472
8.26,31940.4,34702.0,-0.3267,-0.7346,135.2,98.2,0.472
8.28,31874.6,34624.4,-0.6908,-0.9254,135.2,98.2,0.472
8.3,31833.9,34683.9,-0.9161,-0.7792,135.2,98.2,0.472
8.32,31811.1,34585.4,-1.0417,-1.0214,135.2,98.2,0.472
8.34,31802.8,34447.6,-1.0879,-1.3602,135.2,98.2,0.472
8.36,31738.9,34410.3,-1.4416,-1.4518,135.2,98.2,0.472
8.38,31710.6,34449.9,-1.5977,-1.3545,135.2,98.2,0.472
8.4,31818.1,34642.3,-1.003,-0.8815,135.2,98.2,0.472
8.42,31985.0,34837.4,-0.0797,-0.4016,135.2,98.2,0.472
8.44,32156.5,35269.5,0.869,0.6608,135.2,98.2,0.472
8.46,32255.1,35627.8,1.4143,1.5418,135.2,98.2,0.472
8.48,32291.5,35738.6,1.6159,1.8145,135.2,98.2,0.472
8.5,32262.7,35794.3,1.4564,1.9513,135.2,98.2,0.472
8.52,32231.9,35535.7,1.286,1.3154,135.2,98.2,0.472
8.54,32246.9,35456.7,1.369,1.1212,135.2,98.2,0.472
8.56,32101.4,35327.6,0.564,0.8037,135.2,98.2,0.472
8.58,32092.6,35193.2,0.5153,0.4732,135.2,98.2,0.472
8.6,32033.6,35078.8,0.1891,0.1919,135.2,98.2,0.472
8.62,31962.7,35035.0,-0.2031,0.0842,135.2,98.2,0.472
8.64,31910.2,34989.5,-0.4936,-0.0276,135.2,98.2,0.472
8.66,31900.9,34846.8,-0.5449,-0.3786,135.2,98.2,0.472
8.68,31843.0,34700.9,-0.8656,-0.7372,135.2,98.2,0.472
8.7,31809.4,34701.4,-1.0514,-0.7362,135.2,98.2,0.472
8.72,31904.6,34612.4,-0.5246,-0.9549,135.2,98.2,0.472
8.74,31833.7,34564.6,-0.9171,-1.0725,135.2,98.2,0.472
8.76,31841.2,34620.8,-0.8753,-0.9342,135.2,98.2,0.472
8.78,31836.2,34604.7,-0.9029,-0.9739,135.2,98.2,0.472
8.8,31857.0,34411.3,-0.7878,-1.4494,135.2,98.2,0.472
8.82,31765.9,34421.7,-1.2919,-1.4239,135.2,98.2,0.472
8.84,31831.8,34727.4,-0.9273,-0.6721,135.2,98.2,0.472
8.86,32010.1,34840.0,0.0589,-0.3952,135.2,98.2,0.472
8.88,32177.5,35241.0,0.9849,0.5907,135.2,98.2,0.472
8.9,32226.7,35491.2,1.2571,1.206,135.2,98.2,0.472
8.92,32245.7,35737.3,1.3623,1.8112,135.2,98.2,0.472
8.94,32323.2,35738.2,1.7911,1.8133,135.2,98.2,0.472
8.96,32297.0,35558.0,1.6463,1.3704,135.2,98.2,0.472
8.98,32180.9,35523.4,1.0039,1.2853,135.2,98.2,0.472
9.0,32109.0,35318.6,0.6062,0.7815,135.2,98.2,0.472
9.02,32061.8,35145.9,0.3451,0.357,135.2,98.2,0.472
9.04,32092.3,35081.2,0.5135,0.1979,135.2,98.2,0.472
9.06,31912.4,35082.0,-0.4815,0.1998,135.2,98.2,0.472
9.08,32085.3,35008.9,0.4751,0.0201,135.2,98.2,0.472
9.1,32020.9,34826.5,0.1188,-0.4285,135.2,98.2,0.472
9.12,31947.3,34701.1,-0.2887,-0.7368,135.2,98.2,0.472
9.14,31919.4,34637.9,-0.443,-0.8923,135.2,98.2,0.472
9.16,31871.4,34721.9,-0.7084,-0.6856,135.2,98.2,0.472
9.18,31800.1,34616.7,-1.1026,-0.9444,135.2,98.2,0.472
9.2,31838.4,34628.5,-0.8907,-0.9152,135.2,98.2,0.472
9.22,31789.9,34458.4,-1.1595,-1.3335,135.2,98.2,0.472
9.24,31729.6,34477.2,-1.4929,-1.2873,135.2,98.2,0.472
9.26,31710.0,34475.1,-1.6015,-1.2925,135.2,98.2,0.472
9.28,31916.7,34565.0,-0.4579,-1.0715,135.2,98.2,0.472
9.3,31854.6,34832.0,-0.8012,-0.4149,135.2,98.2,0.472
9.32,32058.7,35067.5,0.3281,0.1642,135.2,98.2,0.472
9.34,32208.4,35477.8,1.1559,1.1731,135.2,98.2,0.472
9.36,32236.3,35722.6,1.3105,1.775,135.2,98.2,0.472
9.38,32326.1,35669.2,1.8074,1.6437,135.2,98.2,0.472
9.4,32287.6,35714.5,1.5939,1.7552,135.2,98.2,0.472
9.42,32161.4,35435.9,0.8961,1.0701,135.2,98.2,0.472
9.44,32148.8,35285.9,0.8265,0.7011,135.2,98.2,0.472
9.46,32020.1,35212.9,0.1143,0.5217,135.2,98.2,0.472
9.48,32039.3,35125.8,0.2205,0.3074,135.2,98.2,0.472
9.5,31959.8,35089.2,-0.2192,0.2176,135.2,98.2,0.472
9.52,32029.1,34970.3,0.1642,-0.0749,135.2,98.2,0.472
9.54,31973.4,34922.4,-0.1441,-0.1926,135.2,98.2,0.472
9.56,31950.9,34814.8,-0.2686,-0.4572,135.2,98.2,0.472
9.58,31879.1,34672.3,-0.6659,-0.8077,135.2,98.2,0.472
9.6,31845.0,34665.4,-0.8545,-0.8246,135.2,98.2,0.472
9.62,31876.3,34706.7,-0.6814,-0.7231,135.2,98.2,0.472
9.64,31866.2,34602.7,-0.7372,-0.9788,135.2,98.2,0.472
9.66,31847.7,34594.0,-0.8393,-1.0001,135.2,98.2,0.472
9.68,31778.7,34460.3,-1.2211,-1.329,135.2,98.2,0.472
9.7,31762.7,34513.6,-1.3095,-1.1978,135.2,98.2,0.472
9.72,31802.0,34473.7,-1.0921,-1.296,135.2,98.2,0.472
9.74,31949.9,34692.1,-0.2742,-0.7588,135.2,98.2,0.472
9.76,31995.4,35141.2,-0.0223,0.3453,135.2,98.2,0.472
9.78,32232.1,35362.2,1.2873,0.8887,135.2,98.2,0.472
9.8,32275.9,35688.7,1.5297,1.6917,135.2,98.2,0.472
9.82,32435.4,35790.9,2.4119,1.9429,135.2,98.2,0.472
9.84,32276.5,35723.2,1.5325,1.7765,135.2,98.2,0.472
9.86,32231.7,35452.0,1.2849,1.1096,135.2,98.2,0.472
9.88,32222.7,35310.9,1.2352,0.7626,135.2,98.2,0.472
9.9,32045.5,35184.2,0.2546,0.4511,135.2,98.2,0.472
9.92,32047.8,35061.5,0.2677,0.1493,135.2,98.2,0.472
9.94,31977.8,35046.4,-0.12,0.1124,135.2,98.2,0.472
9.96,31976.9,35017.6,-0.1245,0.0414,135.2,98.2,0.472
9.98,32038.3,34968.2,0.2148,-0.0801,135.2,98.2,0.472
10.0,31959.9,34936.6,-0.2187,-0.1578,135.2,98.2,0.472
10.02,31994.9,34665.8,-0.025,-0.8236,135.2,98.2,0.472
10.04,31942.6,34771.4,-0.3143,-0.5639,135.2,98.2,0.472
10.06,31866.3,34649.2,-0.7368,-0.8645,135.2,98.2,0.472
10.08,31913.7,34614.9,-0.4746,-0.9487,135.2,98.2,0.472
10.1,31856.6,34521.4,-0.79,-1.1786,135.2,98.2,0.472
10.12,31774.7,34512.6,-1.2431,-1.2004,135.2,98.2,0.472
10.14,31839.5,34484.9,-0.8851,-1.2685,135.2,98.2,0.472
10.16,31856.5,34574.2,-0.7907,-1.0489,135.2,98.2,0.472
10.18,31797.2,34723.5,-1.1188,-0.6817,135.2,98.2,0.472
10.2,32019.9,34905.4,0.1134,-0.2346,135.2,98.2,0.472
10.22,32166.1,35328.4,0.9222,0.8057,135.2,98.2,0.472
10.24,32286.7,35690.3,1.5891,1.6955,135.2,98.2,0.472
10.26,32330.1,35803.9,1.829,1.975,135.2,98.2,0.472
10.28,32261.4,35725.8,1.449,1.783,135.2,98.2,0.472
10.3,32259.3,35409.8,1.4373,1.0059,135.2,98.2,0.472
10.32,32186.8,35325.5,1.0363,0.7986,135.2,98.2,0.472
10.34,32041.9,35202.4,0.2352,0.4959,135.2,98.2,0.472
10.36,31978.6,35131.5,-0.1151,0.3215,135.2,98.2,0.472
10.38,32026.6,35137.3,0.1505,0.3357,135.2,98.2,0.472
10.4,32076.7,35008.2,0.4274,0.0183,135.2,98.2,0.472
10.42,31978.9,34974.7,-0.1135,-0.0639,135.2,98.2,0.472
10.44,31897.5,34895.5,-0.5639,-0.2588,135.2,98.2,0.472
10.46,31858.4,34659.8,-0.7803,-0.8384,135.2,98.2,0.472
10.48,31883.9,34697.6,-0.639,-0.7454,135.2,98.2,0.472
10.5,31823.2,34702.8,-0.9751,-0.7327,135.2,98.2,0.472
10.52,31935.1,34663.4,-0.3562,-0.8294,135.2,98.2,0.472
10.54,31896.3,34543.1,-0.5704,-1.1253,135.2,98.2,0.472
10.56,31816.5,34513.6,-1.012,-1.1978,135.2,98.2,0.472
10.58,31751.8,34444.8,-1.3702,-1.3671,135.2,98.2,0.472
10.6,31857.2,34385.6,-0.7871,-1.5127,135.2,98.2,0.472
10.62,31798.7,34677.2,-1.1103,-0.7956,135.2,98.2,0.472
10.64,31976.3,34984.1,-0.1279,-0.041,135.2,98.2,0.472
10.66,32113.8,35321.3,0.6328,0.7883,135.2,98.2,0.472
10.68,32196.1,35558.4,1.0878,1.3712,135.2,98.2,0.472
10.7,32262.8,35804.4,1.4571,1.9761,135.2,98.2,0.472
10.72,32317.2,35694.6,1.7579,1.7061,135.2,98.2,0.472
10.74,32257.1,35577.1,1.4256,1.4172,135.2,98.2,0.472
10.76,32152.3,35408.1,0.8458,1.0017,135.2,98.2,0.472
10.78,32128.1,35246.6,0.7116,0.6046,135.2,98.2,0.472
10.8,32036.5,35132.1,0.2051,0.3229,135.2,98.2,0.472
10.82,32010.8,35038.1,0.0627,0.092,135.2,98.2,0.472
10.84,31986.3,35079.9,-0.0728,0.1947,135.2,98.2,0.472
10.86,31850.1,34918.7,-0.8265,-0.2019,135.2,98.2,0.472
10.88,31927.4,34820.8,-0.3983,-0.4424,135.2,98.2,0.472
10.9,31870.7,34682.3,-0.712,-0.7829,135.2,98.2,0.472
10.92,31851.0,34818.0,-0.8211,-0.4494,135.2,98.2,0.472
10.94,31845.6,34687.1,-0.851,-0.7713,135.2,98.2,0.472
10.96,31891.3,34674.5,-0.5983,-0.8023,135.2,98.2,0.472
10.98,31804.2,34658.7,-1.0802,-0.8411,135.2,98.2,0.472
11.0,31856.2,34576.8,-0.7923,-1.0425,135.2,98.2,0.472
11.02,31833.9,34510.0,-0.9159,-1.2067,135.2,98.2,0.472
11.04,31753.1,34464.1,-1.3627,-1.3197,135.2,98.2,0.472
11.06,31905.1,34605.0,-0.5219,-0.9731,135.2,98.2,0.472
11.08,31829.5,34889.5,-0.9401,-0.2737,135.2,98.2,0.472
11.1,32010.1,35138.6,0.0591,0.3389,135.2,98.2,0.472
11.12,32196.1,35580.9,1.088,1.4267,135.2,98.2,0.472
11.14,32296.3,35748.0,1.6425,1.8375,135.2,98.2,0.472
11.16,32270.1,35785.0,1.4972,1.9284,135.2,98.2,0.472
11.18,32300.1,35623.8,1.6635,1.5321,135.2,98.2,0.472
11.2,32155.0,35486.1,0.8606,1.1934,135.2,98.2,0.472
11.22,32092.7,35301.8,0.5159,0.7403,135.2,98.2,0.472
11.24,32032.2,35124.2,0.181,0.3036,135.2,98.2,0.472
11.26,32034.1,35148.5,0.1916,0.3634,135.2,98.2,0.472
11.28,32027.8,35071.8,0.1568,0.1748,135.2,98.2,0.472
11.3,31960.1,34927.8,-0.2174,-0.1793,135.2,98.2,0.472
11.32,31989.7,34870.6,-0.0536,-0.3201,135.2,98.2,0.472
11.34,31908.1,34694.4,-0.5056,-0.7533,135.2,98.2,0.472
11.36,31922.4,34707.2,-0.426,-0.7217,135.2,98.2,0.472
11.38,31877.0,34651.7,-0.6772,-0.8583,135.2,98.2,0.472
11.4,31903.6,34618.3,-0.5305,-0.9403,135.2,98.2,0.472
11.42,31892.3,34564.5,-0.5926,-1.0726,135.2,98.2,0.472
11.44,31845.7,34546.6,-0.8504,-1.1167,135.2,98.2,0.472
11.46,31734.8,34511.7,-1.4641,-1.2025,135.2,98.2,0.472
11.48,31741.3,34485.2,-1.4281,-1.2676,135.2,98.2,0.472
11.5,31729.2,34623.9,-1.4951,-0.9267,135.2,98.2,0.472
11.52,31827.4,34757.0,-0.952,-0.5994,135.2,98.2,0.472
11.54,32073.2,35105.2,0.4079,0.2567,135.2,98.2,0.472
11.56,32147.3,35428.7,0.8181,1.0524,135.2,98.2,0.472
11.58,32346.1,35657.4,1.9178,1.6146,135.2,98.2,0.472
11.6,32345.7,35739.5,1.9155,1.8165,135.2,98.2,0.472
11.62,32289.4,35671.4,1.6039,1.6492,135.2,98.2,0.472
11.64,32180.3,35510.1,1.0008,1.2526,135.2,98.2,0.472
11.66,32053.7,35274.7,0.3002,0.6736,135.2,98.2,0.472
11.68,32086.1,35186.4,0.4794,0.4564,135.2,98.2,0.472
11.7,32053.7,35120.3,0.3002,0.294,135.2,98.2,0.472
11.72,32043.7,35070.1,0.2447,0.1705,135.2,98.2,0.472
11.74,32024.6,34935.7,0.1391,-0.1599,135.2,98.2,0.472
11.76,31973.7,34898.6,-0.1422,-0.2511,135.2,98.2,0.472
11.78,31832.3,34720.6,-0.9247,-0.6889,135.2,98.2,0.472
11.8,31935.0,34686.4,-0.3563,-0.773,135.2,98.2,0.472
11.82,31921.7,34709.0,-0.4303,-0.7175,135.2,98.2,0.472
11.84,31832.0,34727.8,-0.9263,-0.6712,135.2,98.2,0.472
11.86,31934.4,34623.9,-0.3597,-0.9266,135.2,98.2,0.472
11.88,31782.2,34585.1,-1.202,-1.022,135.2,98.2,0.472
11.9,31820.0,34467.8,-0.9927,-1.3105,135.2,98.2,0.472
11.92,31738.8,34501.3,-1.4421,-1.2282,135.2,98.2,0.472
11.94,31777.2,34501.2,-1.2297,-1.2282,135.2,98.2,0.472
11.96,31839.0,34755.5,-0.8878,-0.603,135.2,98.2,0.472
11.98,32114.5,35092.3,0.6363,0.2251,135.2,98.2,0.472
12.0,32152.2,35404.9,0.8451,0.9938,135.2,98.2,0.472
12.02,32277.5,35643.1,1.538,1.5796,135.2,98.2,0.472
12.04,32316.4,35743.0,1.7536,1.8251,135.2,98.2,0.472
12.06,32287.5,35669.2,1.5938,1.6436,135.2,98.2,0.472
12.08,32176.6,35454.2,0.9798,1.1151,135.2,98.2,0.472
12.1,32124.1,35355.2,0.6894,0.8716,135.2,98.2,0.472
12.12,32101.1,35245.7,0.5625,0.6024,135.2,98.2,0.472
12.14,32032.2,35066.0,0.1811,0.1605,135.2,98.2,0.472
12.16,32031.7,35048.9,0.1784,0.1185,135.2,98.2,0.472
12.18,31981.6,34990.1,-0.0989,-0.0261,135.2,98.2,0.472
12.2,31911.0,34964.1,-0.4892,-0.0901,135.2,98.2,0.472
12.22,31946.5,34745.7,-0.2929,-0.6271,135.2,98.2,0.472
12.24,31927.9,34775.4,-0.3955,-0.5541,135.2,98.2,0.472
12.26,31912.8,34618.9,-0.4795,-0.9389,135.2,98.2,0.472
12.28,31756.4,34750.7,-1.3445,-0.6148,135.2,98.2,0.472
12.3,31823.4,34584.0,-0.9739,-1.0247,135.2,98.2,0.472
12.32,31807.9,34518.6,-1.0598,-1.1857,135.2,98.2,0.472
12.34,31842.5,34585.0,-0.868,-1.0223,135.2,98.2,0.472
12.36,31775.2,34485.7,-1.2404,-1.2665,135.2,98.2,0.472
12.38,31843.0,34534.1,-0.8652,-1.1474,135.2,98.2,0.472
12.4,31865.1,34701.7,-0.7431,-0.7353,135.2,98.2,0.472
12.42,31975.9,35020.9,-0.1301,0.0495,135.2,98.2,0.472
12.44,32213.3,35371.3,1.1833,0.9113,135.2,98.2,0.472
12.46,32323.2,35609.9,1.7913,1.4979,135.2,98.2,0.472
12.48,32268.5,35765.1,1.4886,1.8796,135.2,98.2,0.472
12.5,32331.2,35739.6,1.8354,1.8167,135.2,98.2,0.472
12.52,32166.5,35583.8,0.9244,1.4337,135.2,98.2,0.472
12.54,32155.0,35325.1,0.8605,0.7976,135.2,98.2,0.472
12.56,32075.4,35216.1,0.4204,0.5296,135.2,98.2,0.472
12.58,32019.5,35085.9,0.111,0.2094,135.2,98.2,0.472
12.6,31987.7,35005.0,-0.0651,0.0106,135.2,98.2,0.472
12.62,32076.0,35017.1,0.4237,0.0402,135.2,98.2,0.472
12.64,32034.0,34904.7,0.1911,-0.2363,135.2,98.2,0.472
12.66,31887.7,34821.7,-0.618,-0.4404,135.2,98.2,0.472
12.68,31807.0,34795.3,-1.0648,-0.5053,135.2,98.2,0.472
12.7,31869.8,34621.9,-0.7174,-0.9316,135.2,98.2,0.472
12.72,31878.6,34692.5,-0.6683,-0.758,135.2,98.2,0.472
12.74,31902.9,34509.5,-0.5341,-1.2081,135.2,98.2,0.472
12.76,31866.2,34626.9,-0.7373,-0.9193,135.2,98.2,0.472
12.78,31833.1,34520.6,-0.9204,-1.1807,135.2,98.2,0.472
12.8,31652.8,34461.0,-1.9179,-1.3271,135.2,98.2,0.472
12.82,31839.7,34480.2,-0.8837,-1.2801,135.2,98.2,0.472
12.84,31809.9,34717.0,-1.0485,-0.6976,135.2,98.2,0.472
12.86,31947.3,35026.0,-0.2887,0.062,135.2,98.2,0.472
12.88,32109.2,35229.9,0.6071,0.5636,135.2,98.2,0.472
12.9,32229.2,35694.9,1.2711,1.7069,135.2,98.2,0.472
12.92,32399.2,35719.7,2.2118,1.7678,135.2,98.2,0.472
12.94,32302.8,35714.1,1.6784,1.754,135.2,98.2,0.472
12.96,32239.1,35585.4,1.3257,1.4376,135.2,98.2,0.472
12.98,32108.7,35371.2,0.6047,0.9109,135.2,98.2,0.472
13.0,32070.6,35204.5,0.3934,0.5011,135.2,98.2,0.472
13.02,32145.3,35197.9,0.8068,0.4847,135.2,98.2,0.472
13.04,32053.9,35096.8,0.301,0.2361,135.2,98.2,0.472
13.06,32000.4,35053.5,0.0051,0.1297,135.2,98.2,0.472
13.08,31874.6,35062.7,-0.6905,0.1525,135.2,98.2,0.472
13.1,31934.0,34900.4,-0.3618,-0.2467,135.2,98.2,0.472
13.12,31875.9,34773.9,-0.6836,-0.5577,135.2,98.2,0.472
13.14,31854.6,34662.2,-0.8012,-0.8325,135.2,98.2,0.472
13.16,31807.4,34678.6,-1.0623,-0.7921,135.2,98.2,0.472
13.18,31865.5,34681.8,-0.7407,-0.7843,135.2,98.2,0.472
13.2,31834.4,34535.0,-0.9133,-1.1453,135.2,98.2,0.472
13.22,31812.0,34581.0,-1.0372,-1.0322,135.2,98.2,0.472
13.24,31866.0,34547.7,-0.7382,-1.1139,135.2,98.2,0.472
13.26,31813.5,34460.3,-1.0285,-1.3289,135.2,98.2,0.472
13.28,31845.3,34595.7,-0.8528,-0.9959,135.2,98.2,0.472
13.3,31899.3,34830.4,-0.554,-0.4188,135.2,98.2,0.472
13.32,32098.3,35194.3,0.5468,0.4758,135.2,98.2,0.472
13.34,32276.0,35654.4,1.5298,1.6072,135.2,98.2,0.472
13.36,32301.2,35724.9,1.6696,1.7808,135.2,98.2,0.472
13.38,32314.7,35779.7,1.7442,1.9155,135.2,98.2,0.472
13.4,32300.0,35644.1,1.6629,1.5819,135.2,98.2,0.472
13.42,32292.1,35418.0,1.6191,1.0259,135.2,98.2,0.472
13.44,32110.4,35243.8,0.6138,0.5976,135.2,98.2,0.472
13.46,32109.1,35246.1,0.6066,0.6034,135.2,98.2,0.472
13.48,31994.1,35147.3,-0.0294,0.3604,135.2,98.2,0.472
13.5,31976.2,35049.3,-0.1287,0.1195,135.2,98.2,0.472
13.52,31877.7,35006.1,-0.6735,0.0132,135.2,98.2,0.472
13.54,32019.4,34860.3,0.1102,-0.3453,135.2,98.2,0.472
13.56,31835.4,34707.3,-0.9073,-0.7216,135.2,98.2,0.472
13.58,31867.4,34608.8,-0.7307,-0.9637,135.2,98.2,0.472
13.6,31858.3,34697.0,-0.7806,-0.7468,135.2,98.2,0.472
13.62,31807.0,34645.0,-1.0647,-0.8748,135.2,98.2,0.472
13.64,31815.3,34595.4,-1.0187,-0.9967,135.2,98.2,0.472
13.66,31756.7,34513.9,-1.343,-1.197,135.2,98.2,0.472
13.68,31752.8,34424.2,-1.3645,-1.4178,135.2,98.2,0.472
13.7,31883.0,34430.0,-0.6444,-1.4034,135.2,98.2,0.472
13.72,31864.0,34560.7,-0.7494,-1.0821,135.2,98.2,0.472
13.74,31895.6,34781.3,-0.5743,-0.5395,135.2,98.2,0.472
13.76,32073.3,35148.0,0.4089,0.3621,135.2,98.2,0.472
13.78,32221.9,35553.4,1.2306,1.3589,135.2,98.2,0.472
13.8,32325.9,35713.4,1.8059,1.7524,135.2,98.2,0.472
13.82,32294.1,35727.3,1.63,1.7866,135.2,98.2,0.472
13.84,32256.3,35612.6,1.4211,1.5045,135.2,98.2,0.472
13.86,32247.1,35464.5,1.3699,1.1402,135.2,98.2,0.472
13.88,32172.1,35253.2,0.9554,0.6208,135.2,98.2,0.472
13.9,32139.2,35185.4,0.773,0.454,135.2,98.2,0.472
13.92,32058.2,35116.6,0.325,0.2849,135.2,98.2,0.472
13.94,32010.2,34982.3,0.0595,-0.0454,135.2,98.2,0.472
13.96,31946.1,34938.8,-0.2953,-0.1523,135.2,98.2,0.472
13.98,31955.6,34835.9,-0.2427,-0.4054,135.2,98.2,0.472
14.0,32008.9,34766.0,0.0525,-0.5771,135.2,98.2,0.472
14.02,31841.0,34629.9,-0.8764,-0.9118,135.2,98.2,0.472
14.04,31886.3,34668.0,-0.6261,-0.8183,135.2,98.2,0.472
14.06,31868.3,34695.5,-0.7257,-0.7505,135.2,98.2,0.472
14.08,31881.3,34607.6,-0.6538,-0.9668,135.2,98.2,0.472
14.1,31815.3,34494.9,-1.0185,-1.244,135.2,98.2,0.472
14.12,31772.0,34493.1,-1.2584,-1.2482,135.2,98.2,0.472
14.14,31739.8,34427.0,-1.4362,-1.4108,135.2,98.2,0.472
14.16,31845.6,34542.4,-0.8511,-1.1271,135.2,98.2,0.472
14.18,31844.7,34646.2,-0.856,-0.8719,135.2,98.2,0.472
14.2,32052.1,35076.4,0.291,0.1859,135.2,98.2,0.472
14.22,32194.7,35420.6,1.08,1.0325,135.2,98.2,0.472
14.24,32316.1,35722.6,1.7519,1.7751,135.2,98.2,0.472
14.26,32312.5,35737.3,1.7316,1.8111,135.2,98.2,0.472
14.28,32338.4,35650.0,1.8754,1.5965,135.2,98.2,0.472
14.3,32223.3,35420.0,1.2382,1.0309,135.2,98.2,0.472
14.32,32131.1,35314.9,0.7281,0.7726,135.2,98.2,0.472
14.34,32056.7,35113.7,0.3168,0.2777,135.2,98.2,0.472
14.36,32061.1,35081.4,0.3413,0.1983,135.2,98.2,0.472
14.38,32002.0,35065.9,0.0142,0.1603,135.2,98.2,0.472
14.4,31989.4,34941.6,-0.0557,-0.1454,135.2,98.2,0.472
14.42,31931.4,34943.0,-0.3765,-0.142,135.2,98.2,0.472
14.44,31904.7,34832.0,-0.5244,-0.415,135.2,98.2,0.472
14.46,31923.2,34733.0,-0.4217,-0.6585,135.2,98.2,0.472
14.48,31896.9,34672.1,-0.5675,-0.8082,135.2,98.2,0.472
14.5,31888.4,34627.3,-0.6143,-0.9182,135.2,98.2,0.472
14.52,31788.6,34544.9,-1.1666,-1.1208,135.2,98.2,0.472
14.54,31836.5,34548.4,-0.9012,-1.1123,135.2,98.2,0.472
14.56,31741.9,34416.0,-1.4247,-1.4378,135.2,98.2,0.472
14.58,31726.3,34379.8,-1.511,-1.5268,135.2,98.2,0.472
14.6,31800.9,34476.1,-1.0983,-1.29,135.2,98.2,0.472
14.62,31890.3,34716.2,-0.6039,-0.6997,135.2,98.2,0.472
14.64,31994.3,35022.2,-0.0283,0.0527,135.2,98.2,0.472
14.66,32108.1,35355.4,0.6013,0.872,135.2,98.2,0.472
14.68,32336.5,35644.0,1.8649,1.5817,135.2,98.2,0.472
14.7,32367.1,35660.3,2.0341,1.6219,135.2,98.2,0.472
14.72,32277.9,35637.2,1.5407,1.5649,135.2,98.2,0.472
14.74,32241.7,35559.1,1.3402,1.3729,135.2,98.2,0.472
14.76,32135.8,35256.7,0.7545,0.6294,135.2,98.2,0.472
14.78,32201.3,35172.0,1.1165,0.4212,135.2,98.2,0.472
14.8,32038.3,35147.7,0.2147,0.3612,135.2,98.2,0.472
14.82,31962.5,35024.3,-0.2043,0.058,135.2,98.2,0.472
14.84,32080.3,35008.0,0.4475,0.0179,135.2,98.2,0.472
14.86,31932.0,34994.4,-0.3731,-0.0156,135.2,98.2,0.472
14.88,31867.3,34762.2,-0.731,-0.5866,135.2,98.2,0.472
14.9,32004.8,34715.3,0.0295,-0.702,135.2,98.2,0.472
14.92,31864.3,34684.3,-0.7476,-0.7781,135.2,98.2,0.472
14.94,31834.9,34672.1,-0.9104,-0.808,135.2,98.2,0.472
14.96,31894.1,34679.4,-0.583,-0.7903,135.2,98.2,0.472
14.98,31759.1,34630.7,-1.3294,-0.91,135.2,98.2,0.472
15.0,31817.2,34570.5,-1.0083,-1.0579,135.2,98.2,0.472
15.02,31803.8,34480.6,-1.0822,-1.2791,135.2,98.2,0.472
15.04,31690.7,34494.2,-1.7083,-1.2456,135.2,98.2,0.472
15.06,31794.2,34659.7,-1.1357,-0.8387,135.2,98.2,0.472
15.08,32046.8,34906.1,0.262,-0.2328,135.2,98.2,0.472
15.1,32169.5,35312.6,0.9406,0.767,135.2,98.2,0.472
15.12,32136.9,35608.3,0.7603,1.4939,135.2,98.2,0.472
15.14,32373.1,35744.4,2.0672,1.8287,135.2,98.2,0.472
15.16,32330.8,35744.7,1.8329,1.8292,135.2,98.2,0.472
15.18,32257.2,35603.3,1.426,1.4816,135.2,98.2,0.472
15.2,32208.3,35360.5,1.1556,0.8845,135.2,98.2,0.472
15.22,32014.5,35196.0,0.0833,0.4802,135.2,98.2,0.472
15.24,32071.7,35082.1,0.3995,0.2001,135.2,98.2,0.472
15.26,31979.1,35127.5,-0.1123,0.3117,135.2,98.2,0.472
15.28,32058.8,35060.5,0.3285,0.1469,135.2,98.2,0.472
15.3,32009.2,34944.8,0.0538,-0.1376,135.2,98.2,0.472
15.32,31871.1,34822.5,-0.7101,-0.4382,135.2,98.2,0.472
15.34,31881.1,34694.3,-0.6545,-0.7535,135.2,98.2,0.472
15.36,31843.8,34685.8,-0.8612,-0.7745,135.2,98.2,0.472
15.38,31797.8,34684.2,-1.1154,-0.7784,135.2,98.2,0.472
15.4,31869.5,34672.7,-0.7189,-0.8066,135.2,98.2,0.472
15.42,31851.5,34660.4,-0.8186,-0.8369,135.2,98.2,0.472
15.44,31767.6,34608.0,-1.2827,-0.9657,135.2,98.2,0.472
15.46,31682.3,34521.0,-1.7546,-1.1797,135.2,98.2,0.472
15.48,31816.8,34429.4,-1.0103,-1.4049,135.2,98.2,0.472
15.5,31893.7,34714.4,-0.585,-0.704,135.2,98.2,0.472
15.52,31934.7,34880.7,-0.3581,-0.2951,135.2,98.2,0.472
15.54,32155.8,35356.8,0.8649,0.8756,135.2,98.2,0.472
15.56,32192.4,35540.7,1.0673,1.3278,135.2,98.2,0.472
15.58,32259.1,35778.1,1.4363,1.9114,135.2,98.2,0.472
15.6,32398.1,35799.6,2.2053,1.9642,135.2,98.2,0.472
15.62,32262.1,35643.8,1.453,1.5812,135.2,98.2,0.472
15.64,32223.0,35348.2,1.2365,0.8543,135.2,98.2,0.472
15.66,32123.4,35197.5,0.6855,0.4837,135.2,98.2,0.472
15.68,32132.1,35101.0,0.7341,0.2464,135.2,98.2,0.472
15.7,31997.9,35002.5,-0.0086,0.0043,135.2,98.2,0.472
15.72,31941.9,35057.1,-0.3185,0.1385,135.2,98.2,0.472
15.74,32024.9,35008.1,0.1406,0.018,135.2,98.2,0.472
15.76,31941.5,34881.4,-0.3203,-0.2934,135.2,98.2,0.472
15.78,31913.1,34732.2,-0.4776,-0.6603,135.2,98.2,0.472
15.8,31885.4,34641.2,-0.6306,-0.884,135.2,98.2,0.472
15.82,31714.5,34575.8,-1.5761,-1.045,135.2,98.2,0.472
15.84,31834.6,34639.7,-0.9121,-0.8877,135.2,98.2,0.472
15.86,31807.1,34679.7,-1.0643,-0.7895,135.2,98.2,0.472
15.88,31815.3,34615.4,-1.0189,-0.9476,135.2,98.2,0.472
15.9,31753.9,34466.5,-1.3586,-1.3138,135.2,98.2,0.472
15.92,31728.2,34456.7,-1.5007,-1.3378,135.2,98.2,0.472
15.94,31837.2,34644.2,-0.8976,-0.8767,135.2,98.2,0.472
15.96,31999.3,34839.3,-0.0008,-0.3971,135.2,98.2,0.472
15.98,32077.2,35225.4,0.4299,0.5524,135.2,98.2,0.472
16.0,32171.7,35573.4,0.9528,1.4081,135.2,98.2,0.472
16.02,32311.3,35733.4,1.7252,1.8014,135.2,98.2,0.472
16.04,32387.0,35841.4,2.144,2.0671,135.2,98.2,0.472
16.06,32202.5,35654.0,1.1235,1.6063,135.2,98.2,0.472
16.08,32182.5,35441.9,1.0127,1.0849,135.2,98.2,0.472
16.1,32068.2,35322.9,0.3805,0.7923,135.2,98.2,0.472
16.12,31920.2,35141.8,-0.4387,0.3468,135.2,98.2,0.472
16.14,32054.1,35166.1,0.3021,0.4067,135.2,98.2,0.472
16.16,31952.5,35051.4,-0.2596,0.1245,135.2,98.2,0.472
16.18,32073.1,34991.6,0.4075,-0.0224,135.2,98.2,0.472
16.2,31926.0,34899.9,-0.4066,-0.248,135.2,98.2,0.472
16.22,31854.0,34753.2,-0.8047,-0.6086,135.2,98.2,0.472
16.24,31884.9,34751.2,-0.6336,-0.6137,135.2,98.2,0.472
16.26,31884.6,34756.6,-0.6351,-0.6003,135.2,98.2,0.472
16.28,31876.0,34669.5,-0.6831,-0.8145,135.2,98.2,0.472
16.3,31827.0,34662.8,-0.9539,-0.831,135.2,98.2,0.472
16.32,31715.3,34495.6,-1.572,-1.242,135.2,98.2,0.472
16.34,31771.1,34398.0,-1.263,-1.4822,135.2,98.2,0.472
16.36,31815.3,34452.8,-1.019,-1.3474,135.2,98.2,0.472
16.38,31758.2,34395.6,-1.3346,-1.4881,135.2,98.2,0.472
16.4,31979.1,34811.3,-0.1125,-0.4658,135.2,98.2,0.472
16.42,32082.5,35086.0,0.4594,0.2096,135.2,98.2,0.472
16.44,32172.3,35379.3,0.9561,0.9307,135.2,98.2,0.472
16.46,32401.3,35714.6,2.2231,1.7554,135.2,98.2,0.472
16.48,32341.2,35684.6,1.8905,1.6817,135.2,98.2,0.472
16.5,32266.4,35691.1,1.4771,1.6976,135.2,98.2,0.472
16.52,32198.0,35575.7,1.0986,1.4138,135.2,98.2,0.472
16.54,32143.9,35276.0,0.7991,0.6768,135.2,98.2,0.472
16.56,32159.7,35225.5,0.8865,0.5527,135.2,98.2,0.472
16.58,32105.1,35069.4,0.5842,0.1687,135.2,98.2,0.472
16.6,32027.7,35017.8,0.1562,0.042,135.2,98.2,0.472
16.62,31979.3,34935.6,-0.1113,-0.1601,135.2,98.2,0.472
16.64,31968.9,34873.6,-0.169,-0.3127,135.2,98.2,0.472
16.66,31842.1,34750.9,-0.8706,-0.6144,135.2,98.2,0.472
16.68,31993.1,34739.0,-0.035,-0.6437,135.2,98.2,0.472
16.7,31820.3,34612.7,-0.991,-0.9541,135.2,98.2,0.472
16.72,31898.8,34681.7,-0.5565,-0.7846,135.2,98.2,0.472
16.74,31871.8,34577.1,-0.7064,-1.0418,135.2,98.2,0.472
16.76,31919.6,34529.1,-0.4416,-1.1597,135.2,98.2,0.472
16.78,31811.9,34508.9,-1.0374,-1.2093,135.2,98.2,0.472
16.8,31683.5,34513.5,-1.7478,-1.198,135.2,98.2,0.472
16.82,31761.5,34527.1,-1.3165,-1.1647,135.2,98.2,0.472
16.84,31904.2,34813.4,-0.527,-0.4608,135.2,98.2,0.472
16.86,32043.3,35060.6,0.2424,0.1472,135.2,98.2,0.472
16.88,32169.8,35303.5,0.9425,0.7445,135.2,98.2,0.472
16.9,32302.4,35549.5,1.6761,1.3494,135.2,98.2,0.472
16.92,32368.4,35702.2,2.0411,1.7247,135.2,98.2,0.472
16.94,32250.1,35703.1,1.3869,1.7271,135.2,98.2,0.472
16.96,32275.1,35455.2,1.5251,1.1174,135.2,98.2,0.472
16.98,32041.2,35296.8,0.2313,0.728,135.2,98.2,0.472
17.0,32076.7,35176.0,0.4276,0.4309,135.2,98.2,0.472
17.02,32053.9,35171.3,0.3013,0.4193,135.2,98.2,0.472
17.04,31986.1,35124.6,-0.0738,0.3046,135.2,98.2,0.472
17.06,31995.2,35011.7,-0.0234,0.0268,135.2,98.2,0.472
17.08,31984.7,34790.2,-0.0814,-0.5176,135.2,98.2,0.472
17.1,31997.1,34855.2,-0.0131,-0.3579,135.2,98.2,0.472
17.12,31907.5,34681.3,-0.5085,-0.7856,135.2,98.2,0.472
17.14,31854.1,34661.1,-0.8038,-0.8351,135.2,98.2,0.472
17.16,31835.7,34763.4,-0.9056,-0.5835,135.2,98.2,0.472
17.18,31834.6,34716.9,-0.9122,-0.6979,135.2,98.2,0.472
17.2,31839.8,34606.2,-0.883,-0.9701,135.2,98.2,0.472
17.22,31772.9,34571.7,-1.2534,-1.0549,135.2,98.2,0.472
17.24,31752.3,34415.5,-1.3674,-1.439,135.2,98.2,0.472
17.26,31660.6,34533.8,-1.8744,-1.1482,135.2,98.2,0.472
17.28,31862.4,34697.4,-0.758,-0.7459,135.2,98.2,0.472
17.3,32003.8,34939.0,0.0243,-0.1517,135.2,98.2,0.472
17.32,32062.4,35301.9,0.3484,0.7406,135.2,98.2,0.472
17.34,32298.7,35632.2,1.6554,1.5527,135.2,98.2,0.472
17.36,32285.6,35748.3,1.5833,1.8382,135.2,98.2,0.472
17.38,32300.2,35690.4,1.6639,1.6958,135.2,98.2,0.472
17.4,32199.4,35585.8,1.1062,1.4386,135.2,98.2,0.472
17.42,32194.5,35418.8,1.0789,1.0279,135.2,98.2,0.472
17.44,32029.4,35218.3,0.1659,0.5349,135.2,98.2,0.472
17.46,32116.4,35191.6,0.6469,0.4694,135.2,98.2,0.472
17.48,31966.8,35141.6,-0.1807,0.3463,135.2,98.2,0.472
17.5,31985.0,35033.9,-0.0798,0.0815,135.2,98.2,0.472
17.52,32007.4,34838.2,0.0441,-0.3997,135.2,98.2,0.472
17.54,31930.7,34820.5,-0.3805,-0.4433,135.2,98.2,0.472
17.56,31816.7,34794.0,-1.011,-0.5083,135.2,98.2,0.472
17.58,31802.1,34702.0,-1.0919,-0.7345,135.2,98.2,0.472
17.6,31789.5,34638.5,-1.1613,-0.8908,135.2,98.2,0.472
17.62,31913.7,34606.1,-0.4742,-0.9705,135.2,98.2,0.472
17.64,31876.0,34645.8,-0.6827,-0.8727,135.2,98.2,0.472
17.66,31740.8,34503.7,-1.4309,-1.2222,135.2,98.2,0.472
17.68,31737.2,34426.3,-1.4508,-1.4126,135.2,98.2,0.472
17.7,31753.2,34500.0,-1.3625,-1.2313,135.2,98.2,0.472
17.72,31849.6,34592.9,-0.8291,-1.0028,135.2,98.2,0.472
17.74,31976.6,34882.9,-0.1265,-0.2897,135.2,98.2,0.472
17.76,32099.9,35237.2,0.5558,0.5815,135.2,98.2,0.472
17.78,32239.4,35530.1,1.3278,1.3018,135.2,98.2,0.472
17.8,32297.8,35761.2,1.6507,1.87,135.2,98.2,0.472
17.82,32249.0,35725.6,1.3804,1.7825,135.2,98.2,0.472
17.84,32253.0,35559.1,1.4027,1.3731,135.2,98.2,0.472
17.86,32223.6,35391.7,1.2401,0.9614,135.2,98.2,0.472
17.88,32111.5,35268.5,0.6202,0.6583,135.2,98.2,0.472
17.9,32068.4,35166.9,0.3815,0.4087,135.2,98.2,0.472
17.92,32052.7,35037.2,0.2949,0.0896,135.2,98.2,0.472
17.94,32002.7,35099.4,0.0178,0.2425,135.2,98.2,0.472
17.96,31985.0,34985.3,-0.0799,-0.0379,135.2,98.2,0.472
17.98,31920.4,34885.1,-0.4371,-0.2844,135.2,98.2,0.472
18.0,31954.2,34699.1,-0.2503,-0.7416,135.2,98.2,0.472
18.02,31886.4,34670.7,-0.6253,-0.8115,135.2,98.2,0.472
18.04,31884.8,34692.1,-0.6343,-0.759,135.2,98.2,0.472
18.06,31824.6,34698.8,-0.9672,-0.7424,135.2,98.2,0.472
18.08,31827.6,34550.6,-0.9508,-1.107,135.2,98.2,0.472
18.1,31821.1,34517.5,-0.9864,-1.1883,135.2,98.2,0.472
18.12,31774.6,34472.1,-1.244,-1.2999,135.2,98.2,0.472
18.14,31781.6,34485.5,-1.2053,-1.267,135.2,98.2,0.472
18.16,31846.7,34594.5,-0.8447,-0.9989,135.2,98.2,0.472
18.18,31961.2,34825.0,-0.2116,-0.4321,135.2,98.2,0.472
18.2,32101.2,35145.9,0.5627,0.357,135.2,98.2,0.472
18.22,32228.3,35509.4,1.266,1.2508,135.2,98.2,0.472
18.24,32336.2,35671.8,1.8629,1.6502,135.2,98.2,0.472
18.26,32359.1,35719.2,1.9898,1.7666,135.2,98.2,0.472
18.28,32244.1,35639.3,1.3534,1.5703,135.2,98.2,0.472
18.3,32177.9,35425.8,0.9873,1.0451,135.2,98.2,0.472
18.32,32072.7,35282.0,0.4052,0.6915,135.2,98.2,0.472
18.34,31999.0,35217.9,-0.0026,0.5339,135.2,98.2,0.472
18.36,32042.5,35107.3,0.2384,0.2621,135.2,98.2,0.472
18.38,32026.8,35134.1,0.1516,0.328,135.2,98.2,0.472
18.4,32041.3,34987.9,0.2313,-0.0316,135.2,98.2,0.472
18.42,31893.3,34895.0,-0.5874,-0.2601,135.2,98.2,0.472
18.44,31864.5,34917.8,-0.7463,-0.2038,135.2,98.2,0.472
18.46,31808.2,34732.5,-1.0581,-0.6595,135.2,98.2,0.472
18.48,31880.4,34627.0,-0.6587,-0.919,135.2,98.2,0.472
18.5,31872.2,34671.8,-0.7039,-0.8088,135.2,98.2,0.472
18.52,31872.1,34659.1,-0.7046,-0.8401,135.2,98.2,0.472
18.54,31829.1,34615.5,-0.9425,-0.9473,135.2,98.2,0.472
18.56,31739.7,34507.1,-1.4368,-1.2138,135.2,98.2,0.472
18.58,31833.9,34437.6,-0.9157,-1.3847,135.2,98.2,0.472
18.6,31753.4,34517.5,-1.3614,-1.1884,135.2,98.2,0.472
18.62,31886.9,34748.8,-0.6226,-0.6196,135.2,98.2,0.472
18.64,32084.2,35115.7,0.4691,0.2826,135.2,98.2,0.472
18.66,32284.3,35609.4,1.576,1.4967,135.2,98.2,0.472
18.68,32302.7,35691.3,1.6776,1.6981,135.2,98.2,0.472
18.7,32366.8,35746.7,2.0323,1.8343,135.2,98.2,0.472
18.72,32396.9,35669.0,2.1985,1.6432,135.2,98.2,0.472
18.74,32307.8,35471.2,1.7056,1.1569,135.2,98.2,0.472
18.76,32175.4,35360.2,0.9735,0.884,135.2,98.2,0.472
18.78,32150.1,35210.8,0.8336,0.5164,135.2,98.2,0.472
18.8,32058.8,35074.5,0.3286,0.1813,135.2,98.2,0.472
18.82,32032.1,35021.4,0.1806,0.0509,135.2,98.2,0.472
18.84,32010.4,35047.5,0.0609,0.115,135.2,98.2,0.472
18.86,32002.6,34844.4,0.0176,-0.3845,135.2,98.2,0.472
18.88,31923.5,34771.6,-0.4204,-0.5635,135.2,98.2,0.472
18.9,31875.0,34723.3,-0.6886,-0.6822,135.2,98.2,0.472
18.92,31868.1,34679.5,-0.7268,-0.7899,135.2,98.2,0.472
18.94,31777.3,34584.5,-1.2289,-1.0235,135.2,98.2,0.472
18.96,31870.2,34588.1,-0.7149,-1.0148,135.2,98.2,0.472
18.98,31757.3,34613.5,-1.3395,-0.9523,135.2,98.2,0.472
19.0,31642.0,34447.0,-1.9777,-1.3617,135.2,98.2,0.472
19.02,31762.5,34425.3,-1.3111,-1.415,135.2,98.2,0.472
19.04,31745.7,34644.9,-1.4037,-0.875,135.2,98.2,0.472
19.06,31845.7,34772.8,-0.8507,-0.5606,135.2,98.2,0.472
19.08,32033.6,35093.6,0.1891,0.2282,135.2,98.2,0.472
19.1,32048.3,35423.9,0.27,1.0404,135.2,98.2,0.472
19.12,32370.2,35614.4,2.0512,1.509,135.2,98.2,0.472
19.14,32291.4,35676.8,1.6154,1.6623,135.2,98.2,0.472
19.16,32254.4,35705.1,1.4107,1.7321,135.2,98.2,0.472
19.18,32189.9,35456.9,1.0534,1.1217,135.2,98.2,0.472
19.2,32162.4,35347.5,0.9015,0.8527,135.2,98.2,0.472
19.22,32114.4,35226.8,0.636,0.5558,135.2,98.2,0.472
19.24,31959.1,35029.5,-0.2233,0.0706,135.2,98.2,0.472
19.26,32018.1,34963.0,0.1031,-0.0927,135.2,98.2,0.472
19.28,31995.8,35002.4,-0.0201,0.004,135.2,98.2,0.472
19.3,31920.9,34830.8,-0.4348,-0.4178,135.2,98.2,0.472
19.32,31994.8,34781.1,-0.0255,-0.5401,135.2,98.2,0.472
19.34,31853.0,34606.9,-0.8102,-0.9684,135.2,98.2,0.472
19.36,31791.5,34631.7,-1.1503,-0.9075,135.2,98.2,0.472
19.38,31732.6,34675.0,-1.4761,-0.8011,135.2,98.2,0.472
19.4,31807.3,34683.9,-1.0629,-0.7791,135.2,98.2,0.472
19.42,31861.7,34627.9,-0.7618,-0.9167,135.2,98.2,0.472
19.44,31884.6,34484.3,-0.6356,-1.2698,135.2,98.2,0.472
19.46,31751.0,34404.2,-1.3745,-1.4669,135.2,98.2,0.472
19.48,31727.0,34410.1,-1.5069,-1.4525,135.2,98.2,0.472
19.5,31873.9,34664.6,-0.6947,-0.8266,135.2,98.2,0.472
19.52,31975.8,35001.5,-0.1306,0.0019,135.2,98.2,0.472
19.54,32168.4,35410.0,0.9349,1.0063,135.2,98.2,0.472
19.56,32257.2,35689.0,1.4261,1.6923,135.2,98.2,0.472
19.58,32289.0,35784.1,1.6018,1.9263,135.2,98.2,0.472
19.6,32401.7,35739.0,2.2256,1.8154,135.2,98.2,0.472
19.62,32287.2,35633.5,1.5919,1.556,135.2,98.2,0.472
19.64,32203.5,35332.7,1.1288,0.8162,135.2,98.2,0.472
19.66,32117.7,35231.4,0.6541,0.5671,135.2,98.2,0.472
19.68,32097.0,35073.6,0.5397,0.1792,135.2,98.2,0.472
19.7,32002.8,35097.9,0.0188,0.2389,135.2,98.2,0.472
19.72,32017.7,35064.0,0.1009,0.1554,135.2,98.2,0.472
19.74,32004.5,34963.2,0.0282,-0.0923,135.2,98.2,0.472
19.76,31926.3,34818.0,-0.4048,-0.4493,135.2,98.2,0.472
19.78,31784.3,34667.6,-1.19,-0.8191,135.2,98.2,0.472
19.8,31877.8,34607.0,-0.6729,-0.9682,135.2,98.2,0.472
19.82,31830.8,34637.0,-0.933,-0.8945,135.2,98.2,0.472
19.84,31866.6,34656.9,-0.7349,-0.8456,135.2,98.2,0.472
19.86,31845.6,34528.4,-0.851,-1.1614,135.2,98.2,0.472
19.88,31848.9,34568.4,-0.8329,-1.0632,135.2,98.2,0.472
19.9,31776.2,34459.7,-1.235,-1.3304,135.2,98.2,0.472
19.92,31820.9,34554.5,-0.9876,-1.0972,135.2,98.2,0.472
19.94,31796.5,34646.5,-1.1225,-0.8712,135.2,98.2,0.472
19.96,31929.4,34958.3,-0.3873,-0.1044,135.2,98.2,0.472
19.98,32082.6,35291.1,0.4602,0.714,135.2,98.2,0.472
20.0,32220.5,35621.1,1.2229,1.5254,135.2,98.2,0.472
20.02,32307.1,35760.6,1.702,1.8685,135.2,98.2,0.472
20.04,32345.8,35711.1,1.9159,1.7466,135.2,98.2,0.472
20.06,32248.9,35550.2,1.3801,1.3512,135.2,98.2,0.472
20.08,32111.8,35416.0,0.6215,1.021,135.2,98.2,0.472
20.1,32181.4,35274.6,1.0066,0.6733,135.2,98.2,0.472
20.12,31997.7,35158.3,-0.0096,0.3874,135.2,98.2,0.472
20.14,31990.5,35003.4,-0.0493,0.0066,135.2,98.2,0.472
20.16,32066.1,35017.0,0.3686,0.0399,135.2,98.2,0.472
20.18,31953.6,34903.8,-0.2539,-0.2385,135.2,98.2,0.472
20.2,31933.7,34895.1,-0.3635,-0.2599,135.2,98.2,0.472
20.22,31940.1,34701.6,-0.3281,-0.7355,135.2,98.2,0.472
20.24,31839.2,34698.6,-0.8866,-0.743,135.2,98.2,0.472
20.26,31817.3,34659.6,-1.0077,-0.8389,135.2,98.2,0.472
20.28,31855.9,34597.1,-0.7941,-0.9925,135.2,98.2,0.472
20.3,31801.2,34606.7,-1.0967,-0.9689,135.2,98.2,0.472
20.32,31772.3,34606.3,-1.2566,-0.97,135.2,98.2,0.472
20.34,31862.7,34452.6,-0.7562,-1.3479,135.2,98.2,0.472
20.36,31791.1,34469.0,-1.1524,-1.3074,135.2,98.2,0.472
20.38,31684.7,34608.2,-1.7412,-0.9653,135.2,98.2,0.472
20.4,31881.8,34791.8,-0.6508,-0.5137,135.2,98.2,0.472
20.42,32047.5,35223.9,0.2659,0.5487,135.2,98.2,0.472
20.44,32255.2,35597.5,1.4148,1.4673,135.2,98.2,0.472
20.46,32372.9,35711.0,2.0661,1.7465,135.2,98.2,0.472
20.48,32403.2,35802.3,2.2334,1.9711,135.2,98.2,0.472
20.5,32253.3,35541.9,1.4047,1.3306,135.2,98.2,0.472
20.52,32164.6,35399.2,0.9138,0.9799,135.2,98.2,0.472
20.54,32168.8,35264.9,0.9369,0.6496,135.2,98.2,0.472
20.56,32058.1,35159.3,0.3246,0.3899,135.2,98.2,0.472
20.58,32051.2,35049.3,0.2863,0.1194,135.2,98.2,0.472
20.6,32014.8,35053.6,0.0847,0.13,135.2,98.2,0.472
20.62,31893.4,35052.6,-0.5867,0.1275,135.2,98.2,0.472
20.64,31940.3,34792.0,-0.3272,-0.5133,135.2,98.2,0.472
20.66,31914.4,34736.6,-0.4706,-0.6494,135.2,98.2,0.472
20.68,31821.5,34684.6,-0.9843,-0.7774,135.2,98.2,0.472
20.7,31965.1,34553.0,-0.1902,-1.101,135.2,98.2,0.472
20.72,31842.5,34598.2,-0.8685,-0.9898,135.2,98.2,0.472
20.74,31826.6,34656.5,-0.956,-0.8465,135.2,98.2,0.472
20.76,31873.3,34605.2,-0.6981,-0.9725,135.2,98.2,0.472
20.78,31739.3,34447.2,-1.439,-1.3612,135.2,98.2,0.472
20.8,31688.9,34461.2,-1.7182,-1.3268,135.2,98.2,0.472
20.82,31824.0,34590.6,-0.9703,-1.0086,135.2,98.2,0.472
20.84,31894.2,34827.6,-0.582,-0.4257,135.2,98.2,0.472
20.86,32084.8,35186.6,0.472,0.4571,135.2,98.2,0.472
20.88,32272.2,35540.2,1.509,1.3266,135.2,98.2,0.472
20.9,32253.9,35698.1,1.4075,1.7147,135.2,98.2,0.472
20.92,32299.5,35772.2,1.66,1.8969,135.2,98.2,0.472
20.94,32262.2,35592.8,1.4536,1.4557,135.2,98.2,0.472
20.96,32273.0,35497.3,1.5134,1.221,135.2,98.2,0.472
20.98,32073.6,35290.6,0.4104,0.7127,135.2,98.2,0.472
21.0,32167.7,35228.1,0.9309,0.559,135.2,98.2,0.472
21.02,32114.9,35062.1,0.6388,0.1508,135.2,98.2,0.472
21.04,32007.0,35075.1,0.0417,0.1828,135.2,98.2,0.472
21.06,31926.5,34938.3,-0.4037,-0.1537,135.2,98.2,0.472
21.08,31942.8,34929.2,-0.3132,-0.1758,135.2,98.2,0.472
21.1,31862.0,34806.7,-0.7605,-0.4771,135.2,98.2,0.472
21.12,31878.3,34749.8,-0.6702,-0.6172,135.2,98.2,0.472
21.14,31761.7,34792.5,-1.3153,-0.5121,135.2,98.2,0.472
21.16,31825.2,34650.5,-0.9639,-0.8612,135.2,98.2,0.472
21.18,31824.1,34618.6,-0.9703,-0.9396,135.2,98.2,0.472
21.2,31835.7,34670.2,-0.9058,-0.8128,135.2,98.2,0.472
21.22,31775.1,34485.7,-1.2408,-1.2664,135.2,98.2,0.472
21.24,31781.3,34482.4,-1.2067,-1.2747,135.2,98.2,0.472
21.26,31837.2,34494.6,-0.8976,-1.2446,135.2,98.2,0.472
21.28,31905.1,34800.4,-0.5219,-0.4927,135.2,98.2,0.472
21.3,32021.0,34975.4,0.1195,-0.0622,135.2,98.2,0.472
21.32,32152.1,35414.0,0.8447,1.0162,135.2,98.2,0.472
21.34,32280.6,35732.4,1.5555,1.799,135.2,98.2,0.472
21.36,32333.4,35802.4,1.8477,1.9713,135.2,98.2,0.472
21.38,32307.1,35659.1,1.702,1.6189,135.2,98.2,0.472
21.4,32144.1,35474.7,0.8,1.1655,135.2,98.2,0.472
21.42,32124.9,35328.6,0.6939,0.8063,135.2,98.2,0.472
21.44,32112.4,35248.9,0.6247,0.6103,135.2,98.2,0.472
21.46,32127.6,35137.7,0.709,0.3368,135.2,98.2,0.472
21.48,32015.2,35142.1,0.0871,0.3476,135.2,98.2,0.472
21.5,32053.0,34983.6,0.2962,-0.0423,135.2,98.2,0.472
21.52,31954.3,34889.0,-0.2498,-0.2747,135.2,98.2,0.472
21.54,31889.2,34884.0,-0.6098,-0.2872,135.2,98.2,0.472
21.56,31807.3,34641.2,-1.0632,-0.8842,135.2,98.2,0.472
21.58,31870.5,34725.9,-0.7134,-0.6758,135.2,98.2,0.472
21.6,31838.2,34720.8,-0.8919,-0.6885,135.2,98.2,0.472
21.62,31880.0,34712.9,-0.6606,-0.7077,135.2,98.2,0.472
21.64,31838.5,34472.7,-0.8903,-1.2985,135.2,98.2,0.472
21.66,31793.2,34486.5,-1.141,-1.2646,135.2,98.2,0.472
21.68,31840.6,34474.9,-0.8785,-1.2929,135.2,98.2,0.472
21.7,31686.6,34479.1,-1.731,-1.2826,135.2,98.2,0.472
21.72,31908.5,34676.2,-0.5032,-0.7981,135.2,98.2,0.472
21.74,32044.0,35047.3,0.2463,0.1144,135.2,98.2,0.472
21.76,32219.0,35388.2,1.2147,0.9527,135.2,98.2,0.472
21.78,32281.4,35651.5,1.56,1.6001,135.2,98.2,0.472
21.8,32339.0,35785.5,1.8787,1.9297,135.2,98.2,0.472
21.82,32299.6,35663.7,1.6605,1.6302,135.2,98.2,0.472
21.84,32250.9,35506.9,1.391,1.2446,135.2,98.2,0.472
21.86,32175.7,35338.7,0.9753,0.831,135.2,98.2,0.472
21.88,32087.6,35171.5,0.4878,0.42,135.2,98.2,0.472
21.9,32133.1,35108.3,0.7394,0.2645,135.2,98.2,0.472
21.92,32001.5,35015.5,0.0114,0.0363,135.2,98.2,0.472
21.94,31947.2,34961.9,-0.2891,-0.0954,135.2,98.2,0.472
21.96,31990.3,34961.6,-0.0505,-0.0962,135.2,98.2,0.472
21.98,31815.3,34843.7,-1.0187,-0.3861,135.2,98.2,0.472
22.0,31850.1,34764.7,-0.8262,-0.5804,135.2,98.2,0.472
22.02,31835.1,34684.9,-0.9093,-0.7766,135.2,98.2,0.472
22.04,31785.6,34719.8,-1.1833,-0.6909,135.2,98.2,0.472
22.06,31853.9,34668.3,-0.8052,-0.8174,135.2,98.2,0.472
22.08,31813.1,34708.4,-1.0308,-0.7189,135.2,98.2,0.472
22.1,31778.2,34517.2,-1.2241,-1.189,135.2,98.2,0.472
22.12,31709.2,34427.0,-1.6057,-1.4108,135.2,98.2,0.472
22.14,31689.6,34500.1,-1.7142,-1.231,135.2,98.2,0.472
22.16,31804.3,34650.0,-1.0793,-0.8624,135.2,98.2,0.472
22.18,31925.5,35000.4,-0.4091,-0.0009,135.2,98.2,0.472
22.2,32084.1,35318.1,0.4684,0.7803,135.2,98.2,0.472
22.22,32206.7,35637.4,1.1463,1.5654,135.2,98.2,0.472
22.24,32364.7,35772.2,2.0206,1.897,135.2,98.2,0.472
22.26,32386.2,35800.4,2.1395,1.9663,135.2,98.2,0.472
22.28,32146.3,35597.5,0.8123,1.4675,135.2,98.2,0.472
22.3,32098.8,35325.2,0.5498,0.7978,135.2,98.2,0.472
22.32,32084.8,35270.7,0.4721,0.6639,135.2,98.2,0.472
22.34,32019.3,35230.4,0.11,0.5647,135.2,98.2,0.472
22.36,32047.6,35168.0,0.2663,0.4113,135.2,98.2,0.472
22.38,32040.8,35005.9,0.2286,0.0127,135.2,98.2,0.472
22.4,32129.5,34966.4,0.7193,-0.0845,135.2,98.2,0.472
22.42,31950.2,34873.7,-0.2725,-0.3124,135.2,98.2,0.472
22.44,31859.4,34810.0,-0.775,-0.469,135.2,98.2,0.472
22.46,31782.6,34746.4,-1.1995,-0.6254,135.2,98.2,0.472
22.48,31869.0,34644.6,-0.7214,-0.8757,135.2,98.2,0.472
22.5,31845.1,34586.1,-0.8537,-1.0197,135.2,98.2,0.472
22.52,31819.9,34575.1,-0.9935,-1.0466,135.2,98.2,0.472
22.54,31749.6,34603.8,-1.382,-0.9761,135.2,98.2,0.472
22.56,31831.9,34468.8,-0.9268,-1.308,135.2,98.2,0.472
22.58,31834.9,34488.0,-0.91,-1.2608,135.2,98.2,0.472
22.6,31804.9,34463.9,-1.0764,-1.32,135.2,98.2,0.472
22.62,31921.9,34788.8,-0.4292,-0.5212,135.2,98.2,0.472
22.64,32049.9,35239.4,0.2793,0.5868,135.2,98.2,0.472
22.66,32302.0,35600.3,1.6736,1.4742,135.2,98.2,0.472
22.68,32298.7,35775.5,1.6553,1.9051,135.2,98.2,0.472
22.7,32358.8,35630.7,1.9879,1.5491,135.2,98.2,0.472
22.72,32244.7,35634.9,1.357,1.5594,135.2,98.2,0.472
22.74,32132.6,35402.9,0.7364,0.9888,135.2,98.2,0.472
22.76,32061.7,35268.0,0.3442,0.6571,135.2,98.2,0.472
22.78,32133.0,35115.7,0.7391,0.2827,135.2,98.2,0.472
22.8,32082.8,35032.5,0.4612,0.078,135.2,98.2,0.472
22.82,31922.3,35045.6,-0.4267,0.1104,135.2,98.2,0.472
22.84,32059.6,34938.3,0.3326,-0.1537,135.2,98.2,0.472
22.86,31866.1,34934.5,-0.7375,-0.1628,135.2,98.2,0.472
22.88,31868.3,34796.9,-0.7254,-0.5013,135.2,98.2,0.472
22.9,31826.1,34664.9,-0.9592,-0.8258,135.2,98.2,0.472
22.92,31885.7,34610.0,-0.629,-0.9608,135.2,98.2,0.472
22.94,31810.5,34646.1,-1.0454,-0.8719,135.2,98.2,0.472
22.96,31894.3,34648.9,-0.5817,-0.8652,135.2,98.2,0.472
22.98,31799.1,34559.0,-1.1086,-1.0862,135.2,98.2,0.472
23.0,31749.5,34374.6,-1.3825,-1.5397,135.2,98.2,0.472
23.02,31799.3,34476.3,-1.1074,-1.2895,135.2,98.2,0.472
23.04,31789.7,34549.6,-1.1604,-1.1093,135.2,98.2,0.472
23.06,31864.8,34805.0,-0.7448,-0.4813,135.2,98.2,0.472
23.08,32058.4,35074.8,0.3261,0.1821,135.2,98.2,0.472
23.1,32283.1,35477.3,1.5691,1.1718,135.2,98.2,0.472
23.12,32317.7,35730.2,1.7605,1.7936,135.2,98.2,0.472
23.14,32345.3,35706.1,1.9131,1.7344,135.2,98.2,0.472
23.16,32306.7,35714.0,1.6999,1.7539,135.2,98.2,0.472
23.18,32207.2,35450.4,1.1494,1.1056,135.2,98.2,0.472
23.2,32086.0,35281.3,0.4791,0.6899,135.2,98.2,0.472
23.22,32066.0,35140.7,0.3682,0.3441,135.2,98.2,0.472
23.24,32084.5,35066.4,0.4706,0.1615,135.2,98.2,0.472
23.26,32047.3,35028.3,0.2647,0.0677,135.2,98.2,0.472
23.28,31996.3,34957.3,-0.0173,-0.1069,135.2,98.2,0.472
23.3,32011.9,34966.2,0.0687,-0.085,135.2,98.2,0.472
23.32,31923.7,34655.0,-0.4191,-0.8502,135.2,98.2,0.472
23.34,31868.2,34732.1,-0.726,-0.6605,135.2,98.2,0.472
23.36,32015.9,34738.8,0.0912,-0.6441,135.2,98.2,0.472
23.38,31904.3,34640.0,-0.5261,-0.887,135.2,98.2,0.472
23.4,31837.7,34588.9,-0.8949,-1.0127,135.2,98.2,0.472
23.42,31819.5,34635.9,-0.9953,-0.8971,135.2,98.2,0.472
23.44,31873.4,34628.3,-0.6971,-0.9157,135.2,98.2,0.472
23.46,31879.1,34378.3,-0.6659,-1.5305,135.2,98.2,0.472
23.48,31808.2,34454.3,-1.0578,-1.3437,135.2,98.2,0.472
23.5,32000.9,34836.8,0.008,-0.4032,135.2,98.2,0.472
23.52,32073.6,35101.3,0.4101,0.2473,135.2,98.2,0.472
23.54,32101.6,35440.5,0.565,1.0814,135.2,98.2,0.472
23.56,32329.7,35710.8,1.8272,1.7459,135.2,98.2,0.472
23.58,32278.9,35802.3,1.5459,1.9709,135.2,98.2,0.472
23.6,32243.3,35673.0,1.3492,1.6531,135.2,98.2,0.472
23.62,32303.6,35509.6,1.6826,1.2513,135.2,98.2,0.472
23.64,32097.9,35227.8,0.5447,0.5584,135.2,98.2,0.472
23.66,32078.6,35115.5,0.4381,0.2821,135.2,98.2,0.472
23.68,32059.8,35184.4,0.3339,0.4516,135.2,98.2,0.472
23.7,31982.1,35087.5,-0.0961,0.2134,135.2,98.2,0.472
23.72,31976.7,35006.2,-0.126,0.0134,135.2,98.2,0.472
23.74,31870.9,34829.2,-0.7109,-0.4217,135.2,98.2,0.472
23.76,31929.3,34873.7,-0.3878,-0.3124,135.2,98.2,0.472
23.78,31893.5,34625.5,-0.5862,-0.9228,135.2,98.2,0.472
23.8,31852.6,34680.2,-0.8122,-0.7881,135.2,98.2,0.472
23.82,31822.2,34636.8,-0.9808,-0.8949,135.2,98.2,0.472
23.84,31934.7,34632.0,-0.3583,-0.9067,135.2,98.2,0.472
23.86,31744.4,34554.6,-1.4109,-1.0971,135.2,98.2,0.472
23.88,31807.9,34506.1,-1.0596,-1.2162,135.2,98.2,0.472
23.9,31816.3,34503.0,-1.0131,-1.2239,135.2,98.2,0.472
23.92,31777.2,34531.0,-1.2297,-1.1552,135.2,98.2,0.472
23.94,31878.1,34696.0,-0.6711,-0.7494,135.2,98.2,0.472
23.96,32018.8,35030.6,0.107,0.0734,135.2,98.2,0.472
23.98,32183.0,35426.2,1.0153,1.0462,135.2,98.2,0.472
24.0,32338.4,35577.1,1.8752,1.4172,135.2,98.2,0.472
24.02,32304.4,35805.3,1.6869,1.9784,135.2,98.2,0.472
24.04,32249.4,35628.5,1.3826,1.5436,135.2,98.2,0.472
24.06,32170.3,35542.2,0.9454,1.3314,135.2,98.2,0.472
24.08,32104.4,35375.2,0.5804,0.9207,135.2,98.2,0.472
24.1,31950.1,35129.9,-0.2728,0.3177,135.2,98.2,0.472
24.12,32109.4,35108.4,0.6082,0.2647,135.2,98.2,0.472
24.14,32029.7,35098.1,0.1677,0.2394,135.2,98.2,0.472
24.16,31876.4,35034.5,-0.6807,0.083,135.2,98.2,0.472
24.18,31889.9,34975.3,-0.6062,-0.0625,135.2,98.2,0.472
24.2,32051.7,34836.0,0.289,-0.4051,135.2,98.2,0.472
24.22,31876.7,34827.7,-0.6792,-0.4254,135.2,98.2,0.472
24.24,31895.3,34765.5,-0.5762,-0.5784,135.2,98.2,0.472
24.26,31948.8,34653.0,-0.2804,-0.8551,135.2,98.2,0.472
24.28,31841.3,34754.4,-0.8748,-0.6058,135.2,98.2,0.472
24.3,31888.2,34570.0,-0.6155,-1.0593,135.2,98.2,0.472
24.32,31789.6,34507.2,-1.1608,-1.2135,135.2,98.2,0.472
24.34,31735.5,34469.1,-1.46,-1.3073,135.2,98.2,0.472
24.36,31809.7,34474.2,-1.0496,-1.2947,135.2,98.2,0.472
24.38,31913.1,34599.5,-0.4774,-0.9867,135.2,98.2,0.472
24.4,31957.1,34980.5,-0.2342,-0.0499,135.2,98.2,0.472
24.42,32132.2,35349.0,0.7344,0.8565,135.2,98.2,0.472
24.44,32273.3,35566.0,1.5152,1.3899,135.2,98.2,0.472
24.46,32271.3,35819.9,1.5042,2.0144,135.2,98.2,0.472
24.48,32268.3,35606.8,1.4876,1.4903,135.2,98.2,0.472
24.5,32225.2,35607.9,1.2487,1.4929,135.2,98.2,0.472
24.52,32279.0,35409.8,1.5465,1.0058,135.2,98.2,0.472
24.54,32051.8,35202.9,0.2896,0.4972,135.2,98.2,0.472
24.56,32109.8,35129.0,0.6105,0.3153,135.2,98.2,0.472
24.58,32026.2,35114.0,0.148,0.2786,135.2,98.2,0.472
24.6,31989.7,35056.3,-0.0537,0.1367,135.2,98.2,0.472
24.62,31973.2,34942.9,-0.1453,-0.1422,135.2,98.2,0.472
24.64,31901.7,34835.6,-0.5407,-0.406,135.2,98.2,0.472
24.66,31837.1,34715.6,-0.898,-0.7011,135.2,98.2,0.472
24.68,31945.6,34559.4,-0.2977,-1.0852,135.2,98.2,0.472
24.7,31887.2,34612.5,-0.6211,-0.9546,135.2,98.2,0.472
24.72,31913.6,34760.1,-0.4747,-0.5917,135.2,98.2,0.472
24.74,31812.2,34537.4,-1.0361,-1.1393,135.2,98.2,0.472
24.76,31776.0,34553.8,-1.2362,-1.0991,135.2,98.2,0.472
24.78,31802.5,34459.8,-1.0894,-1.3302,135.2,98.2,0.472
24.8,31670.1,34464.9,-1.822,-1.3177,135.2,98.2,0.472
24.82,31793.7,34666.6,-1.1381,-0.8216,135.2,98.2,0.472
24.84,32014.4,34840.3,0.0829,-0.3945,135.2,98.2,0.472
24.86,32149.4,35380.6,0.8298,0.9341,135.2,98.2,0.472
24.88,32244.0,35542.5,1.353,1.3321,135.2,98.2,0.472
24.9,32350.5,35733.5,1.9422,1.8017,135.2,98.2,0.472
24.92,32376.0,35761.7,2.0831,1.8711,135.2,98.2,0.472
24.94,32329.2,35687.4,1.8245,1.6885,135.2,98.2,0.472
24.96,32192.0,35457.4,1.0652,1.1228,135.2,98.2,0.472
24.98,32102.3,35314.3,0.5691,0.771,135.2,98.2,0.472
25.0,32080.9,35186.6,0.4507,0.4569,135.2,98.2,0.472
25.02,32106.1,35041.2,0.5902,0.0995,135.2,98.2,0.472
25.04,32034.8,35024.8,0.1955,0.0592,135.2,98.2,0.472
25.06,32014.5,34945.6,0.0833,-0.1355,135.2,98.2,0.472
25.08,31938.2,34874.5,-0.3387,-0.3105,135.2,98.2,0.472
25.1,31874.3,34720.7,-0.6924,-0.6886,135.2,98.2,0.472
25.12,32002.2,34752.6,0.0155,-0.6103,135.2,98.2,0.472
25.14,31870.3,34572.8,-0.7145,-1.0524,135.2,98.2,0.472
25.16,31927.0,34655.3,-0.401,-0.8494,135.2,98.2,0.472
25.18,31784.3,34646.8,-1.1902,-0.8704,135.2,98.2,0.472
25.2,31771.7,34505.1,-1.2598,-1.2188,135.2,98.2,0.472
25.22,31787.1,34415.1,-1.1745,-1.44,135.2,98.2,0.472
25.24,31838.1,34451.1,-0.8927,-1.3515,135.2,98.2,0.472
25.26,31816.5,34649.7,-1.0119,-0.8631,135.2,98.2,0.472
25.28,31902.3,34747.1,-0.5377,-0.6236,135.2,98.2,0.472
25.3,32187.1,35170.9,1.0384,0.4183,135.2,98.2,0.472
25.32,32293.1,35534.7,1.6244,1.3129,135.2,98.2,0.472
25.34,32342.9,35707.5,1.9002,1.7379,135.2,98.2,0.472
25.36,32295.4,35701.0,1.6372,1.7219,135.2,98.2,0.472
25.38,32213.7,35635.6,1.1851,1.561,135.2,98.2,0.472
25.4,32177.1,35536.9,0.9826,1.3185,135.2,98.2,0.472
25.42,32039.3,35215.5,0.2203,0.528,135.2,98.2,0.472
25.44,32022.5,35129.4,0.1274,0.3162,135.2,98.2,0.472
25.46,32110.5,35127.2,0.6142,0.311,135.2,98.2,0.472
25.48,32039.1,35019.2,0.2196,0.0453,135.2,98.2,0.472
25.5,32070.1,35063.5,0.3909,0.1544,135.2,98.2,0.472
25.52,31989.2,34898.2,-0.0565,-0.2522,135.2,98.2,0.472
25.54,31918.9,34769.6,-0.4456,-0.5685,135.2,98.2,0.472
25.56,31882.2,34767.7,-0.6483,-0.573,135.2,98.2,0.472
25.58,31804.7,34626.5,-1.0772,-0.9202,135.2,98.2,0.472
25.6,31888.0,34670.4,-0.6166,-0.8124,135.2,98.2,0.472
25.62,31773.4,34549.2,-1.2504,-1.1104,135.2,98.2,0.472
25.64,31798.4,34525.3,-1.1121,-1.1692,135.2,98.2,0.472
25.66,31749.6,34563.2,-1.382,-1.0758,135.2,98.2,0.472
25.68,31834.4,34408.2,-0.9131,-1.4572,135.2,98.2,0.472
25.7,31804.5,34624.5,-1.0787,-0.9251,135.2,98.2,0.472
25.72,31889.2,34832.8,-0.61,-0.4131,135.2,98.2,0.472
25.74,32030.0,35079.1,0.1691,0.1927,135.2,98.2,0.472
25.76,32101.6,35440.9,0.5649,1.0822,135.2,98.2,0.472
25.78,32331.9,35738.9,1.839,1.8151,135.2,98.2,0.472
25.8,32309.1,35738.1,1.7128,1.8131,135.2,98.2,0.472
25.82,32350.0,35579.9,1.9395,1.4242,135.2,98.2,0.472
25.84,32208.5,35526.8,1.1566,1.2936,135.2,98.2,0.472
25.86,32130.4,35237.5,0.7245,0.5822,135.2,98.2,0.472
25.88,32136.0,35205.2,0.7555,0.5027,135.2,98.2,0.472
25.9,31924.7,35176.0,-0.4134,0.431,135.2,98.2,0.472
25.92,32015.0,34952.0,0.0863,-0.1199,135.2,98.2,0.472
25.94,32082.7,35036.7,0.4608,0.0884,135.2,98.2,0.472
25.96,31907.5,34932.9,-0.5086,-0.1669,135.2,98.2,0.472
25.98,31986.1,34729.4,-0.0737,-0.6673,135.2,98.2,0.472
26.0,31880.1,34718.0,-0.66,-0.6951,135.2,98.2,0.472
26.02,31835.0,34774.0,-0.9096,-0.5575,135.2,98.2,0.472
26.04,31945.9,34622.6,-0.2962,-0.9297,135.2,98.2,0.472
26.06,31840.2,34668.4,-0.881,-0.8173,135.2,98.2,0.472
26.08,31784.5,34528.0,-1.1892,-1.1624,135.2,98.2,0.472
26.1,31794.0,34534.1,-1.1365,-1.1475,135.2,98.2,0.472
26.12,31813.5,34462.1,-1.0287,-1.3245,135.2,98.2,0.472
26.14,31855.1,34431.8,-0.7985,-1.3989,135.2,98.2,0.472
26.16,31964.7,34660.9,-0.192,-0.8356,135.2,98.2,0.472
26.18,31979.2,34995.2,-0.1119,-0.0136,135.2,98.2,0.472
26.2,32225.7,35371.3,1.2516,0.9111,135.2,98.2,0.472
26.22,32385.6,35615.9,2.1364,1.5126,135.2,98.2,0.472
26.24,32300.5,35827.4,1.6658,2.0328,135.2,98.2,0.472
26.26,32238.1,35742.5,1.3205,1.8239,135.2,98.2,0.472
26.28,32273.4,35559.3,1.5156,1.3734,135.2,98.2,0.472
26.3,32077.3,35275.2,0.4309,0.6748,135.2,98.2,0.472
26.32,32061.0,35213.5,0.3407,0.5231,135.2,98.2,0.472
26.34,31986.0,35057.8,-0.0745,0.1403,135.2,98.2,0.472
26.36,32027.6,35180.4,0.1559,0.4418,135.2,98.2,0.472
26.38,32029.4,35031.3,0.1657,0.0752,135.2,98.2,0.472
26.4,31974.4,34964.1,-0.1387,-0.0901,135.2,98.2,0.472
26.42,31889.3,34848.6,-0.6096,-0.3741,135.2,98.2,0.472
26.44,31859.1,34819.5,-0.7763,-0.4457,135.2,98.2,0.472
26.46,31874.9,34600.2,-0.6891,-0.985,135.2,98.2,0.472
26.48,31766.4,34697.3,-1.289,-0.7462,135.2,98.2,0.472
26.5,31877.7,34713.5,-0.6736,-0.7064,135.2,98.2,0.472
26.52,31925.0,34654.5,-0.4119,-0.8513,135.2,98.2,0.472
26.54,31909.1,34512.8,-0.4996,-1.1999,135.2,98.2,0.472
26.56,31705.1,34509.3,-1.6284,-1.2084,135.2,98.2,0.472
26.58,31685.2,34412.0,-1.7382,-1.4477,135.2,98.2,0.472
26.6,31938.7,34673.7,-0.3361,-0.8042,135.2,98.2,0.472
26.62,32084.2,34968.0,0.469,-0.0805,135.2,98.2,0.472
26.64,32104.9,35334.9,0.5836,0.8216,135.2,98.2,0.472
26.66,32296.7,35583.7,1.6445,1.4336,135.2,98.2,0.472
26.68,32364.7,35737.9,2.0207,1.8127,135.2,98.2,0.472
26.7,32359.4,35656.3,1.9912,1.612,135.2,98.2,0.472
26.72,32255.5,35584.0,1.4168,1.4343,135.2,98.2,0.472
26.74,32139.2,35339.3,0.7732,0.8325,135.2,98.2,0.472
26.76,32075.8,35242.4,0.4223,0.5941,135.2,98.2,0.472
26.78,32146.2,35189.3,0.8118,0.4637,135.2,98.2,0.472
26.8,32016.4,35012.1,0.0938,0.028,135.2,98.2,0.472
26.82,31950.3,35016.4,-0.2721,0.0386,135.2,98.2,0.472
26.84,31995.4,34946.4,-0.0222,-0.1336,135.2,98.2,0.472
26.86,31903.4,34864.5,-0.5313,-0.335,135.2,98.2,0.472
26.88,31818.2,34720.4,-1.0029,-0.6893,135.2,98.2,0.472
26.9,31879.4,34695.8,-0.6639,-0.7499,135.2,98.2,0.472
26.92,31893.9,34662.0,-0.5841,-0.8329,135.2,98.2,0.472
26.94,31843.7,34624.6,-0.8618,-0.9248,135.2,98.2,0.472
26.96,31754.6,34568.5,-1.3543,-1.0628,135.2,98.2,0.472
26.98,31722.7,34479.2,-1.5309,-1.2825,135.2,98.2,0.472
27.0,31713.5,34516.8,-1.5817,-1.1899,135.2,98.2,0.472
27.02,31805.3,34539.8,-1.0742,-1.1335,135.2,98.2,0.472
27.04,31890.1,34629.6,-0.6049,-0.9125,135.2,98.2,0.472
27.06,31926.0,34900.3,-0.4063,-0.247,135.2,98.2,0.472
27.08,32145.6,35344.7,0.8088,0.8459,135.2,98.2,0.472
27.1,32201.2,35615.7,1.1161,1.5122,135.2,98.2,0.472
27.12,32266.5,35705.8,1.4775,1.7337,135.2,98.2,0.472
27.14,32347.1,35819.7,1.9234,2.0137,135.2,98.2,0.472
27.16,32212.2,35602.6,1.1769,1.48,135.2,98.2,0.472
27.18,32235.1,35305.0,1.3034,0.7483,135.2,98.2,0.472
27.2,32044.4,35332.2,0.2487,0.8151,135.2,98.2,0.472
27.22,32045.5,35203.4,0.2547,0.4984,135.2,98.2,0.472
27.24,32053.4,34993.4,0.2984,-0.018,135.2,98.2,0.472
27.26,31966.2,34970.0,-0.184,-0.0755,135.2,98.2,0.472
27.28,31927.2,35024.6,-0.3994,0.0587,135.2,98.2,0.472
27.3,31811.3,34827.4,-1.041,-0.4262,135.2,98.2,0.472
27.32,31958.0,34763.6,-0.2294,-0.5831,135.2,98.2,0.472
27.34,31847.7,34667.1,-0.8396,-0.8203,135.2,98.2,0.472
27.36,31804.8,34663.9,-1.0767,-0.8284,135.2,98.2,0.472
27.38,31878.4,34707.7,-0.6696,-0.7206,135.2,98.2,0.472
27.4,31819.4,34639.0,-0.9961,-0.8896,135.2,98.2,0.472
27.42,31837.8,34621.4,-0.8941,-0.9327,135.2,98.2,0.472
27.44,31724.6,34433.9,-1.5202,-1.3938,135.2,98.2,0.472
27.46,31713.0,34524.5,-1.5847,-1.1711,135.2,98.2,0.472
27.48,31735.1,34667.8,-1.4625,-0.8187,135.2,98.2,0.472
27.5,31920.2,34908.4,-0.4382,-0.2272,135.2,98.2,0.472
27.52,32069.6,35244.7,0.3884,0.5999,135.2,98.2,0.472
27.54,32256.2,35441.2,1.4203,1.0831,135.2,98.2,0.472
27.56,32331.8,35607.6,1.8388,1.4922,135.2,98.2,0.472
27.58,32279.2,35829.7,1.5475,2.0383,135.2,98.2,0.472
27.6,32267.3,35735.5,1.4816,1.8066,135.2,98.2,0.472
27.62,32243.8,35528.9,1.3517,1.2987,135.2,98.2,0.472
27.64,32111.6,35234.7,0.6204,0.5754,135.2,98.2,0.472
27.66,31932.4,35148.1,-0.3707,0.3623,135.2,98.2,0.472
27.68,32062.2,35070.2,0.3473,0.1708,135.2,98.2,0.472
27.7,32039.7,35068.9,0.2226,0.1676,135.2,98.2,0.472
27.72,32064.5,35021.0,0.36,0.0499,135.2,98.2,0.472
27.74,31896.6,34862.0,-0.5691,-0.3413,135.2,98.2,0.472
27.76,31911.3,34776.0,-0.4875,-0.5527,135.2,98.2,0.472
27.78,31855.2,34639.6,-0.7981,-0.8881,135.2,98.2,0.472
27.8,31855.2,34709.2,-0.7982,-0.7168,135.2,98.2,0.472
27.82,31773.2,34585.0,-1.2514,-1.0223,135.2,98.2,0.472
27.84,31807.7,34603.0,-1.0605,-0.9779,135.2,98.2,0.472
27.86,31841.5,34511.4,-0.8739,-1.2033,135.2,98.2,0.472
27.88,31753.5,34500.2,-1.3604,-1.2308,135.2,98.2,0.472
27.9,31766.2,34407.2,-1.2903,-1.4595,135.2,98.2,0.472
27.92,31891.9,34577.5,-0.5947,-1.0407,135.2,98.2,0.472
27.94,31934.3,34782.0,-0.3605,-0.5379,135.2,98.2,0.472
27.96,32039.9,35184.0,0.2238,0.4506,135.2,98.2,0.472
27.98,32206.3,35435.8,1.1445,1.0697,135.2,98.2,0.472
28.0,32318.4,35709.5,1.7643,1.7428,135.2,98.2,0.472
28.02,32339.0,35816.3,1.8783,2.0054,135.2,98.2,0.472
28.04,32290.0,35614.7,1.6072,1.5097,135.2,98.2,0.472
28.06,32201.9,35473.7,1.1201,1.1631,135.2,98.2,0.472
28.08,32131.8,35350.5,0.7322,0.8601,135.2,98.2,0.472
28.1,32079.1,35167.5,0.4408,0.4101,135.2,98.2,0.472
28.12,32041.9,35053.0,0.2347,0.1284,135.2,98.2,0.472
28.14,32016.8,35021.2,0.0963,0.0504,135.2,98.2,0.472
28.16,31977.1,34954.2,-0.1234,-0.1145,135.2,98.2,0.472
28.18,31900.7,34932.4,-0.5461,-0.168,135.2,98.2,0.472
28.2,31886.0,34905.2,-0.6277,-0.235,135.2,98.2,0.472
28.22,31882.9,34663.2,-0.6446,-0.8301,135.2,98.2,0.472
28.24,31809.5,34605.3,-1.0509,-0.9723,135.2,98.2,0.472
28.26,31868.0,34724.4,-0.727,-0.6795,135.2,98.2,0.472
28.28,31839.0,34671.4,-0.8875,-0.8097,135.2,98.2,0.472
28.3,31801.9,34581.9,-1.0926,-1.0298,135.2,98.2,0.472
28.32,31692.8,34466.4,-1.6965,-1.314,135.2,98.2,0.472
28.34,31702.7,34466.5,-1.6418,-1.3136,135.2,98.2,0.472
28.36,31823.4,34617.4,-0.9738,-0.9427,135.2,98.2,0.472
28.38,31810.4,34780.7,-1.0459,-0.5411,135.2,98.2,0.472
28.4,32067.2,35081.1,0.3751,0.1975,135.2,98.2,0.472
28.42,32206.5,35352.1,1.1457,0.864,135.2,98.2,0.472
28.44,32324.4,35736.3,1.7977,1.8086,135.2,98.2,0.472
28.46,32335.7,35828.0,1.8605,2.0341,135.2,98.2,0.472
28.48,32323.1,35663.9,1.7904,1.6307,135.2,98.2,0.472
28.5,32206.3,35605.0,1.1444,1.4858,135.2,98.2,0.472
28.52,32115.7,35295.5,0.6434,0.7249,135.2,98.2,0.472
28.54,32106.5,35229.0,0.5923,0.5613,135.2,98.2,0.472
28.56,31992.2,35061.6,-0.04,0.1496,135.2,98.2,0.472
28.58,31938.5,35140.8,-0.3371,0.3444,135.2,98.2,0.472
28.6,31992.6,35044.2,-0.0376,0.1068,135.2,98.2,0.472
28.62,31990.5,34884.8,-0.0494,-0.2852,135.2,98.2,0.472
28.64,31865.5,34813.8,-0.7407,-0.4596,135.2,98.2,0.472
28.66,31888.9,34712.3,-0.6115,-0.7093,135.2,98.2,0.472
28.68,31861.2,34671.1,-0.7648,-0.8106,135.2,98.2,0.472
28.7,31860.6,34644.7,-0.7679,-0.8756,135.2,98.2,0.472
28.72,31874.6,34609.0,-0.6907,-0.9634,135.2,98.2,0.472
28.74,31837.6,34599.1,-0.8954,-0.9877,135.2,98.2,0.472
28.76,31820.0,34481.3,-0.9927,-1.2774,135.2,98.2,0.472
28.78,31821.2,34418.9,-0.9863,-1.4307,135.2,98.2,0.472
28.8,31756.7,34502.9,-1.3426,-1.2241,135.2,98.2,0.472
28.82,31804.3,34697.7,-1.0793,-0.7451,135.2,98.2,0.472
28.84,31952.2,34951.7,-0.2616,-0.1205,135.2,98.2,0.472
28.86,32130.0,35417.6,0.7223,1.0251,135.2,98.2,0.472
28.88,32372.5,35719.6,2.0636,1.7676,135.2,98.2,0.472
28.9,32265.0,35733.8,1.469,1.8024,135.2,98.2,0.472
28.92,32372.9,35749.0,2.0659,1.8398,135.2,98.2,0.472
28.94,32223.5,35608.0,1.2394,1.4932,135.2,98.2,0.472
28.96,32131.9,35341.6,0.7327,0.8383,135.2,98.2,0.472
28.98,32041.8,35268.9,0.2342,0.6593,135.2,98.2,0.472
29.0,32046.5,35041.4,0.2603,0.1,135.2,98.2,0.472
29.02,32043.3,35165.9,0.2424,0.4062,135.2,98.2,0.472
29.04,31951.9,35005.0,-0.2629,0.0104,135.2,98.2,0.472
29.06,31954.9,34999.6,-0.2464,-0.0028,135.2,98.2,0.472
29.08,31847.9,34789.5,-0.8382,-0.5196,135.2,98.2,0.472
29.1,31861.0,34764.5,-0.766,-0.5809,135.2,98.2,0.472
29.12,31880.6,34706.7,-0.6574,-0.7231,135.2,98.2,0.472
29.14,31861.7,34654.5,-0.7618,-0.8514,135.2,98.2,0.472
29.16,31811.4,34642.1,-1.0403,-0.882,135.2,98.2,0.472
29.18,31878.0,34595.8,-0.6717,-0.9957,135.2,98.2,0.472
29.2,31817.0,34564.6,-1.0092,-1.0726,135.2,98.2,0.472
29.22,31803.1,34406.3,-1.0862,-1.4616,135.2,98.2,0.472
29.24,31766.4,34468.2,-1.2893,-1.3095,135.2,98.2,0.472
29.26,31863.1,34638.2,-0.754,-0.8914,135.2,98.2,0.472
29.28,32011.6,34929.0,0.0671,-0.1765,135.2,98.2,0.472
29.3,32050.8,35331.2,0.2843,0.8125,135.2,98.2,0.472
29.32,32217.5,35635.8,1.2065,1.5614,135.2,98.2,0.472
29.34,32330.3,35800.5,1.8304,1.9666,135.2,98.2,0.472
29.36,32267.2,35766.7,1.4812,1.8835,135.2,98.2,0.472
29.38,32235.6,35545.3,1.3062,1.339,135.2,98.2,0.472
29.4,32264.3,35429.4,1.4654,1.0541,135.2,98.2,0.472
29.42,32093.4,35303.9,0.52,0.7455,135.2,98.2,0.472
29.44,32043.3,35126.7,0.2425,0.3098,135.2,98.2,0.472
29.46,32002.8,35066.5,0.0185,0.1616,135.2,98.2,0.472
29.48,31977.2,35007.0,-0.1233,0.0154,135.2,98.2,0.472
29.5,31949.5,34955.8,-0.2765,-0.1106,135.2,98.2,0.472
29.52,31901.1,34885.8,-0.5441,-0.2827,135.2,98.2,0.472
29.54,31892.3,34688.1,-0.5929,-0.7687,135.2,98.2,0.472
29.56,31795.0,34661.2,-1.1312,-0.8349,135.2,98.2,0.472
29.58,31901.7,34610.5,-0.5407,-0.9597,135.2,98.2,0.472
29.6,31791.4,34639.3,-1.1512,-0.8888,135.2,98.2,0.472
29.62,31734.0,34639.6,-1.4685,-0.888,135.2,98.2,0.472
29.64,31926.2,34575.0,-0.4054,-1.047,135.2,98.2,0.472
29.66,31692.6,34370.0,-1.6976,-1.5511,135.2,98.2,0.472
29.68,31790.0,34492.3,-1.1587,-1.2502,135.2,98.2,0.472
29.7,31833.4,34630.7,-0.9184,-0.9098,135.2,98.2,0.472
29.72,31898.5,34925.5,-0.5582,-0.1849,135.2,98.2,0.472
29.74,32091.5,35255.6,0.509,0.6266,135.2,98.2,0.472
29.76,32179.5,35502.0,0.9959,1.2326,135.2,98.2,0.472
29.78,32296.9,35776.7,1.6456,1.9081,135.2,98.2,0.472
29.8,32295.2,35747.3,1.636,1.8358,135.2,98.2,0.472
29.82,32208.6,35640.0,1.1573,1.5719,135.2,98.2,0.472
29.84,32255.4,35396.1,1.4161,0.9721,135.2,98.2,0.472
29.86,32101.4,35248.6,0.5639,0.6096,135.2,98.2,0.472
29.88,32016.9,35103.3,0.0965,0.2522,135.2,98.2,0.472
29.9,32025.4,35100.4,0.1436,0.2449,135.2,98.2,0.472
29.92,32054.5,35128.8,0.3047,0.3149,135.2,98.2,0.472
29.94,31947.3,34965.1,-0.2887,-0.0878,135.2,98.2,0.472
29.96,31930.9,34873.8,-0.3791,-0.3122,135.2,98.2,0.472
29.98,31874.5,34725.9,-0.6911,-0.6757,135.2,98.2,0.472
30.0,31843.8,34770.6,-0.861,-0.5659,135.2,98.2,0.472
30.02,31878.5,34713.9,-0.6692,-0.7054,135.2,98.2,0.472
30.04,31850.6,34606.9,-0.8232,-0.9684,135.2,98.2,0.472
30.06,31845.0,34654.7,-0.8547,-0.8509,135.2,98.2,0.472
30.08,31925.3,34675.1,-0.4102,-0.8008,135.2,98.2,0.472
30.1,31743.3,34437.8,-1.4168,-1.3842,135.2,98.2,0.472
30.12,31773.8,34402.2,-1.2485,-1.4717,135.2,98.2,0.472
30.14,31802.2,34558.8,-1.091,-1.0868,135.2,98.2,0.472
30.16,31936.7,34783.9,-0.3473,-0.5331,135.2,98.2,0.472
30.18,32105.9,35090.4,0.5888,0.2204,135.2,98.2,0.472
30.2,32247.7,35496.9,1.3734,1.22,135.2,98.2,0.472
30.22,32267.9,35716.7,1.4853,1.7604,135.2,98.2,0.472
30.24,32418.4,35821.3,2.3179,2.0178,135.2,98.2,0.472
30.26,32375.0,35736.9,2.0776,1.8102,135.2,98.2,0.472
30.28,32198.1,35457.1,1.0991,1.1221,135.2,98.2,0.472
30.3,32150.3,35296.1,0.8346,0.7264,135.2,98.2,0.472
30.32,32104.2,35156.2,0.5797,0.3823,135.2,98.2,0.472
30.34,32022.4,35144.7,0.1273,0.354,135.2,98.2,0.472
30.36,32047.6,35072.6,0.2663,0.1768,135.2,98.2,0.472
30.38,31929.9,35038.7,-0.3848,0.0933,135.2,98.2,0.472
30.4,31969.8,34894.7,-0.164,-0.2609,135.2,98.2,0.472
30.42,31926.3,34736.8,-0.4046,-0.6491,135.2,98.2,0.472
30.44,31887.1,34794.6,-0.6214,-0.5069,135.2,98.2,0.472
30.46,31825.5,34596.6,-0.9621,-0.9939,135.2,98.2,0.472
30.48,31888.8,34692.8,-0.6123,-0.7572,135.2,98.2,0.472
30.5,31893.2,34587.5,-0.5879,-1.0162,135.2,98.2,0.472
30.52,31787.4,34660.2,-1.1732,-0.8373,135.2,98.2,0.472
30.54,31809.7,34558.1,-1.0495,-1.0884,135.2,98.2,0.472
30.56,31718.2,34401.8,-1.5557,-1.4727,135.2,98.2,0.472
30.58,31862.4,34553.2,-0.7583,-1.1006,135.2,98.2,0.472
30.6,31919.5,34869.0,-0.4423,-0.3241,135.2,98.2,0.472
30.62,32028.0,34995.8,0.1578,-0.0122,135.2,98.2,0.472
30.64,32155.6,35430.8,0.8637,1.0575,135.2,98.2,0.472
30.66,32258.0,35801.4,1.4301,1.9687,135.2,98.2,0.472
30.68,32320.5,35746.5,1.7761,1.8337,135.2,98.2,0.472
30.7,32340.5,35666.7,1.8869,1.6375,135.2,98.2,0.472
30.72,32160.4,35511.0,0.8904,1.2546,135.2,98.2,0.472
30.74,32067.9,35316.7,0.3788,0.777,135.2,98.2,0.472
30.76,32078.1,35168.0,0.4351,0.4113,135.2,98.2,0.472
30.78,32134.3,35084.6,0.7458,0.2061,135.2,98.2,0.472
30.8,32060.7,35144.0,0.339,0.3524,135.2,98.2,0.472
30.82,31930.4,34958.1,-0.3818,-0.1049,135.2,98.2,0.472
30.84,31919.2,34947.5,-0.4437,-0.131,135.2,98.2,0.472
30.86,31945.1,34838.2,-0.3009,-0.3997,135.2,98.2,0.472
30.88,31919.3,34649.6,-0.4434,-0.8635,135.2,98.2,0.472
30.9,31937.0,34725.7,-0.3457,-0.6763,135.2,98.2,0.472
30.92,31854.6,34745.6,-0.8011,-0.6275,135.2,98.2,0.472
30.94,31874.5,34674.5,-0.6911,-0.8022,135.2,98.2,0.472
30.96,31840.6,34686.1,-0.879,-0.7736,135.2,98.2,0.472
30.98,31822.8,34557.2,-0.9772,-1.0905,135.2,98.2,0.472
31.0,31772.8,34465.9,-1.2536,-1.3152,135.2,98.2,0.472
31.02,31693.5,34461.1,-1.6928,-1.3269,135.2,98.2,0.472
31.04,31812.2,34748.5,-1.036,-0.6204,135.2,98.2,0.472
31.06,31991.0,35079.6,-0.0469,0.1939,135.2,98.2,0.472
31.08,32178.8,35316.1,0.992,0.7755,135.2,98.2,0.472
31.1,32294.6,35708.5,1.633,1.7403,135.2,98.2,0.472
31.12,32378.7,35733.2,2.0983,1.801,135.2,98.2,0.472
31.14,32326.4,35740.3,1.809,1.8185,135.2,98.2,0.472
31.16,32231.8,35550.4,1.2852,1.3516,135.2,98.2,0.472
31.18,32122.3,35410.9,0.6794,1.0085,135.2,98.2,0.472
31.2,32047.0,35237.6,0.2629,0.5823,135.2,98.2,0.472
31.22,32021.9,35104.0,0.1243,0.254,135.2,98.2,0.472
31.24,32003.6,35034.7,0.023,0.0834,135.2,98.2,0.472
31.26,32034.0,35065.0,0.1909,0.1579,135.2,98.2,0.472
31.28,31961.9,34954.1,-0.2078,-0.1148,135.2,98.2,0.472
31.3,31863.7,34865.1,-0.7509,-0.3335,135.2,98.2,0.472
31.32,31845.9,34597.6,-0.8492,-0.9914,135.2,98.2,0.472
31.34,31925.8,34785.1,-0.4073,-0.5302,135.2,98.2,0.472
31.36,31963.9,34670.8,-0.1969,-0.8113,135.2,98.2,0.472
31.38,31851.6,34615.6,-0.8179,-0.947,135.2,98.2,0.472
31.4,31896.6,34710.2,-0.5691,-0.7144,135.2,98.2,0.472
31.42,31808.6,34559.7,-1.0559,-1.0844,135.2,98.2,0.472
31.44,31754.6,34468.9,-1.3543,-1.3077,135.2,98.2,0.472
31.46,31812.5,34416.5,-1.0344,-1.4366,135.2,98.2,0.472
31.48,31784.5,34657.3,-1.1889,-0.8444,135.2,98.2,0.472
31.5,31971.2,34937.3,-0.1563,-0.1559,135.2,98.2,0.472
31.52,32216.9,35288.1,1.2029,0.7065,135.2,98.2,0.472
31.54,32285.2,35543.2,1.581,1.3338,135.2,98.2,0.472
31.56,32243.1,35822.7,1.3479,2.0212,135.2,98.2,0.472
31.58,32275.5,35747.8,1.527,1.837,135.2,98.2,0.472
31.6,32160.7,35497.6,0.892,1.2216,135.2,98.2,0.472
31.62,32120.6,35394.0,0.6704,0.967,135.2,98.2,0.472
31.64,32049.6,35170.3,0.2776,0.417,135.2,98.2,0.472
31.66,32035.9,35139.6,0.2016,0.3413,135.2,98.2,0.472
31.68,32027.6,35154.5,0.1558,0.378,135.2,98.2,0.472
31.7,32009.8,35038.3,0.0574,0.0924,135.2,98.2,0.472
31.72,31949.5,35046.2,-0.2761,0.1117,135.2,98.2,0.472
31.74,32121.3,34913.1,0.674,-0.2156,135.2,98.2,0.472
31.76,31868.1,34801.2,-0.7268,-0.4907,135.2,98.2,0.472
31.78,31877.3,34722.8,-0.6755,-0.6833,135.2,98.2,0.472
31.8,31900.2,34605.2,-0.5491,-0.9727,135.2,98.2,0.472
31.82,31864.7,34664.6,-0.7454,-0.8265,135.2,98.2,0.472
31.84,31764.1,34604.2,-1.3019,-0.9752,135.2,98.2,0.472
31.86,31912.6,34581.2,-0.4803,-1.0316,135.2,98.2,0.472
31.88,31745.6,34420.9,-1.4043,-1.4258,135.2,98.2,0.472
31.9,31758.9,34489.0,-1.331,-1.2584,135.2,98.2,0.472
31.92,31831.6,34616.5,-0.9285,-0.9449,135.2,98.2,0.472
31.94,31920.2,34797.5,-0.4387,-0.4999,135.2,98.2,0.472
31.96,32047.4,35292.3,0.2652,0.7169,135.2,98.2,0.472
31.98,32225.8,35487.5,1.2521,1.197,135.2,98.2,0.472
32.0,32251.2,35758.5,1.3928,1.8632,135.2,98.2,0.472
32.02,32351.1,35783.2,1.9452,1.9241,135.2,98.2,0.472
32.04,32235.6,35577.3,1.3064,1.4178,135.2,98.2,0.472
32.06,32219.7,35364.2,1.2187,0.8938,135.2,98.2,0.472
32.08,32182.6,35211.4,1.0134,0.518,135.2,98.2,0.472
32.1,32128.5,35142.9,0.7137,0.3496,135.2,98.2,0.472
32.12,32013.7,35121.6,0.079,0.2972,135.2,98.2,0.472
32.14,32035.3,35017.8,0.1982,0.0418,135.2,98.2,0.472
32.16,31911.0,35047.9,-0.4892,0.116,135.2,98.2,0.472
32.18,31921.7,34903.9,-0.4303,-0.2382,135.2,98.2,0.472
32.2,31897.3,34701.2,-0.5652,-0.7365,135.2,98.2,0.472
32.22,31898.4,34705.0,-0.5592,-0.7272,135.2,98.2,0.472
32.24,31847.6,34734.3,-0.8401,-0.6553,135.2,98.2,0.472
32.26,31815.4,34700.4,-1.018,-0.7385,135.2,98.2,0.472
32.28,31829.7,34580.0,-0.939,-1.0345,135.2,98.2,0.472
32.3,31776.0,34585.8,-1.2359,-1.0202,135.2,98.2,0.472
32.32,31821.4,34447.7,-0.985,-1.3598,135.2,98.2,0.472
32.34,31772.2,34424.6,-1.2571,-1.4168,135.2,98.2,0.472
32.36,31819.8,34642.1,-0.994,-0.8819,135.2,98.2,0.472
32.38,31854.8,34869.7,-0.8001,-0.3223,135.2,98.2,0.472
32.4,32066.6,35150.3,0.3717,0.3678,135.2,98.2,0.472
32.42,32273.2,35426.4,1.5146,1.0465,135.2,98.2,0.472
32.44,32228.8,35721.8,1.269,1.773,135.2,98.2,0.472
32.46,32331.6,35836.8,1.8374,2.0557,135.2,98.2,0.472
32.48,32225.5,35596.6,1.2505,1.4652,135.2,98.2,0.472
32.5,32137.9,35486.0,0.7661,1.1932,135.2,98.2,0.472
32.52,32079.7,35293.7,0.4441,0.7203,135.2,98.2,0.472
32.54,32115.9,35129.5,0.6443,0.3167,135.2,98.2,0.472
32.56,32093.6,35167.3,0.5211,0.4096,135.2,98.2,0.472
32.58,32139.8,35037.9,0.7766,0.0914,135.2,98.2,0.472
32.6,31975.9,35087.7,-0.1303,0.2137,135.2,98.2,0.472
32.62,31969.7,34834.1,-0.1648,-0.4097,135.2,98.2,0.472
32.64,31969.5,34767.5,-0.1657,-0.5735,135.2,98.2,0.472
32.66,31845.4,34681.6,-0.8521,-0.7847,135.2,98.2,0.472
32.68,31909.7,34651.6,-0.4963,-0.8587,135.2,98.2,0.472
32.7,31845.7,34711.5,-0.8505,-0.7113,135.2,98.2,0.472
32.72,31863.0,34637.2,-0.7549,-0.894,135.2,98.2,0.472
32.74,31805.3,34511.9,-1.074,-1.2021,135.2,98.2,0.472
32.76,31833.5,34550.7,-0.9182,-1.1066,135.2,98.2,0.472
32.78,31735.6,34480.0,-1.4598,-1.2805,135.2,98.2,0.472
32.8,31834.1,34546.8,-0.9148,-1.1161,135.2,98.2,0.472
32.82,32019.0,34720.7,0.1084,-0.6886,135.2,98.2,0.472
32.84,32004.9,35182.1,0.0302,0.446,135.2,98.2,0.472
32.86,32189.3,35408.9,1.0503,1.0037,135.2,98.2,0.472
32.88,32299.7,35643.8,1.6613,1.5813,135.2,98.2,0.472
32.9,32314.9,35761.1,1.7452,1.8696,135.2,98.2,0.472
32.92,32248.5,35582.8,1.3778,1.4313,135.2,98.2,0.472
32.94,32155.0,35480.2,0.8603,1.1789,135.2,98.2,0.472
32.96,32184.5,35193.2,1.0235,0.4732,135.2,98.2,0.472
32.98,32011.3,35195.9,0.0654,0.4798,135.2,98.2,0.472
33.0,32132.9,35069.6,0.7385,0.1694,135.2,98.2,0.472
33.02,32112.4,35114.2,0.6247,0.2789,135.2,98.2,0.472
33.04,31978.0,34990.5,-0.1185,-0.0253,135.2,98.2,0.472
33.06,32024.8,34918.2,0.14,-0.203,135.2,98.2,0.472
33.08,31932.2,34773.5,-0.3721,-0.5588,135.2,98.2,0.472
33.1,31845.7,34820.3,-0.8503,-0.4438,135.2,98.2,0.472
33.12,31932.5,34583.3,-0.3702,-1.0265,135.2,98.2,0.472
33.14,31865.1,34731.0,-0.7434,-0.6632,135.2,98.2,0.472
33.16,31741.3,34608.5,-1.4282,-0.9644,135.2,98.2,0.472
33.18,31868.0,34587.6,-0.7272,-1.016,135.2,98.2,0.472
33.2,31757.9,34520.6,-1.336,-1.1806,135.2,98.2,0.472
33.22,31774.9,34424.7,-1.2424,-1.4166,135.2,98.2,0.472
33.24,31713.7,34483.4,-1.5805,-1.2721,135.2,98.2,0.472
33.26,31928.2,34644.3,-0.394,-0.8764,135.2,98.2,0.472
33.28,31975.6,35017.8,-0.1318,0.042,135.2,98.2,0.472
33.3,32151.8,35545.0,0.843,1.3384,135.2,98.2,0.472
33.32,32337.0,35613.2,1.8677,1.5061,135.2,98.2,0.472
33.34,32330.9,35708.0,1.8335,1.7392,135.2,98.2,0.472
33.36,32373.7,35649.9,2.0707,1.5961,135.2,98.2,0.472
33.38,32328.5,35580.0,1.8206,1.4242,135.2,98.2,0.472
33.4,32156.1,35327.7,0.8665,0.8039,135.2,98.2,0.472
33.42,32114.3,35199.1,0.6356,0.4878,135.2,98.2,0.472
33.44,31987.1,35135.3,-0.0682,0.3309,135.2,98.2,0.472
33.46,31986.9,35128.2,-0.0695,0.3135,135.2,98.2,0.472
33.48,32021.2,34995.3,0.1205,-0.0134,135.2,98.2,0.472
33.5,31885.3,34967.7,-0.6315,-0.0813,135.2,98.2,0.472
33.52,31896.8,34824.0,-0.5679,-0.4345,135.2,98.2,0.472
33.54,31840.0,34726.3,-0.882,-0.6749,135.2,98.2,0.472
33.56,31811.0,34718.2,-1.0427,-0.6947,135.2,98.2,0.472
33.58,31842.8,34671.0,-0.8665,-0.8109,135.2,98.2,0.472
33.6,31823.6,34724.0,-0.9727,-0.6804,135.2,98.2,0.472
33.62,31767.5,34643.5,-1.2829,-0.8785,135.2,98.2,0.472
33.64,31823.6,34498.6,-0.973,-1.2347,135.2,98.2,0.472
33.66,31807.1,34409.6,-1.0642,-1.4537,135.2,98.2,0.472
33.68,31757.4,34525.7,-1.3393,-1.1681,135.2,98.2,0.472
33.7,31882.6,34705.5,-0.6462,-0.726,135.2,98.2,0.472
33.72,31941.3,34934.7,-0.3219,-0.1624,135.2,98.2,0.472
33.74,32151.2,35295.7,0.8395,0.7253,135.2,98.2,0.472
33.76,32229.3,35604.3,1.2715,1.484,135.2,98.2,0.472
33.78,32438.9,35801.7,2.4314,1.9694,135.2,98.2,0.472
33.8,32268.4,35716.7,1.4881,1.7605,135.2,98.2,0.472
33.82,32139.7,35648.3,0.7757,1.5924,135.2,98.2,0.472
33.84,32211.9,35321.5,1.1751,0.7888,135.2,98.2,0.472
33.86,32082.0,35258.7,0.4569,0.6344,135.2,98.2,0.472
33.88,32115.6,35112.2,0.6428,0.2741,135.2,98.2,0.472
33.9,32002.6,35063.7,0.0176,0.1547,135.2,98.2,0.472
33.92,32014.2,35041.6,0.0816,0.1004,135.2,98.2,0.472
33.94,31993.5,34849.5,-0.0331,-0.3718,135.2,98.2,0.472
33.96,31972.4,34889.9,-0.1494,-0.2726,135.2,98.2,0.472
33.98,31974.4,34747.7,-0.1383,-0.6222,135.2,98.2,0.472
34.0,31845.2,34736.5,-0.8533,-0.6498,135.2,98.2,0.472
34.02,31806.6,34672.3,-1.0667,-0.8076,135.2,98.2,0.472
34.04,31929.2,34603.8,-0.3886,-0.976,135.2,98.2,0.472
34.06,31829.9,34640.3,-0.9377,-0.8864,135.2,98.2,0.472
34.08,31860.0,34512.2,-0.7714,-1.2014,135.2,98.2,0.472
34.1,31741.3,34450.0,-1.4282,-1.3543,135.2,98.2,0.472
34.12,31873.1,34465.8,-0.699,-1.3154,135.2,98.2,0.472
34.14,31879.3,34694.0,-0.6649,-0.7543,135.2,98.2,0.472
34.16,31955.6,34938.1,-0.2427,-0.1539,135.2,98.2,0.472
34.18,32162.2,35148.9,0.9003,0.3642,135.2,98.2,0.472
34.2,32251.3,35603.8,1.3933,1.483,135.2,98.2,0.472
34.22,32393.2,35752.1,2.1782,1.8476,135.2,98.2,0.472
34.24,32297.1,35733.9,1.6469,1.8029,135.2,98.2,0.472
34.26,32377.5,35640.0,2.0914,1.572,135.2,98.2,0.472
34.28,32245.3,35531.0,1.3599,1.3038,135.2,98.2,0.472
34.3,32068.7,35225.9,0.3834,0.5536,135.2,98.2,0.472
34.32,32008.7,35173.4,0.0513,0.4245,135.2,98.2,0.472
34.34,32013.9,35046.2,0.0801,0.1118,135.2,98.2,0.472
34.36,32065.7,35011.6,0.3666,0.0266,135.2,98.2,0.472
34.38,31935.0,34999.4,-0.3566,-0.0032,135.2,98.2,0.472
34.4,32069.9,34883.7,0.3896,-0.2877,135.2,98.2,0.472
34.42,31950.9,34793.6,-0.2684,-0.5093,135.2,98.2,0.472
34.44,31899.8,34693.2,-0.5512,-0.7562,135.2,98.2,0.472
34.46,31843.4,34700.0,-0.8633,-0.7395,135.2,98.2,0.472
34.48,31852.9,34631.4,-0.8107,-0.9083,135.2,98.2,0.472
34.5,31836.3,34627.1,-0.9023,-0.9187,135.2,98.2,0.472
34.52,31782.9,34543.1,-1.198,-1.1253,135.2,98.2,0.472
34.54,31731.0,34370.7,-1.4852,-1.5494,135.2,98.2,0.472
34.56,31617.6,34485.1,-2.1126,-1.2678,135.2,98.2,0.472
34.58,31775.3,34577.0,-1.2402,-1.0419,135.2,98.2,0.472
34.6,31915.8,34806.1,-0.4627,-0.4785,135.2,98.2,0.472
34.62,31974.9,35151.6,-0.1359,0.371,135.2,98.2,0.472
34.64,32205.8,35630.3,1.1413,1.548,135.2,98.2,0.472
34.66,32181.0,35697.6,1.0047,1.7135,135.2,98.2,0.472
34.68,32411.3,35759.7,2.2784,1.8663,135.2,98.2,0.472
34.7,32306.0,35622.4,1.6957,1.5285,135.2,98.2,0.472
34.72,32214.1,35430.2,1.1875,1.056,135.2,98.2,0.472
34.74,32089.9,35238.6,0.5006,0.5849,135.2,98.2,0.472
34.76,32118.9,35096.2,0.661,0.2347,135.2,98.2,0.472
34.78,32013.1,35143.6,0.0756,0.3513,135.2,98.2,0.472
34.8,31997.1,35095.8,-0.0128,0.2338,135.2,98.2,0.472
34.82,31966.4,35061.4,-0.1828,0.1492,135.2,98.2,0.472
34.84,31950.4,34827.1,-0.2711,-0.4271,135.2,98.2,0.472
34.86,31920.2,34823.2,-0.4381,-0.4365,135.2,98.2,0.472
34.88,31776.0,34676.0,-1.2362,-0.7985,135.2,98.2,0.472
34.9,31947.7,34718.2,-0.2865,-0.6948,135.2,98.2,0.472
34.92,31813.6,34783.7,-1.0279,-0.5337,135.2,98.2,0.472
34.94,31833.5,34585.8,-0.9179,-1.0204,135.2,98.2,0.472
34.96,31863.9,34570.8,-0.7497,-1.0572,135.2,98.2,0.472
34.98,31808.4,34556.9,-1.0569,-1.0914,135.2,98.2,0.472
35.0,31697.2,34425.6,-1.6722,-1.4141,135.2,98.2,0.472
35.02,31864.0,34510.0,-0.7493,-1.2067,135.2,98.2,0.472
35.04,31879.3,34765.7,-0.6647,-0.578,135.2,98.2,0.472
35.06,32104.2,35141.2,0.5796,0.3454,135.2,98.2,0.472
35.08,32278.1,35421.0,1.5418,1.0333,135.2,98.2,0.472
35.1,32313.0,35657.6,1.7346,1.6151,135.2,98.2,0.472
35.12,32355.9,35638.8,1.9721,1.569,135.2,98.2,0.472
35.14,32267.6,35659.1,1.4834,1.6188,135.2,98.2,0.472
35.16,32243.4,35490.7,1.3497,1.2047,135.2,98.2,0.472
35.18,32136.2,35327.7,0.7568,0.8039,135.2,98.2,0.472
35.2,32107.3,35200.4,0.5967,0.491,135.2,98.2,0.472
35.22,32046.0,35122.0,0.2573,0.2982,135.2,98.2,0.472
35.24,32013.0,35053.7,0.0752,0.1303,135.2,98.2,0.472
35.26,32010.5,34908.7,0.0614,-0.2263,135.2,98.2,0.472
35.28,31955.5,34825.4,-0.2431,-0.4312,135.2,98.2,0.472
35.3,31836.0,34713.5,-0.9042,-0.7062,135.2,98.2,0.472
35.32,31840.5,34691.5,-0.8791,-0.7603,135.2,98.2,0.472
35.34,31938.4,34622.1,-0.3377,-0.9311,135.2,98.2,0.472
35.36,31873.3,34695.1,-0.6978,-0.7515,135.2,98.2,0.472
35.38,31786.6,34520.1,-1.1773,-1.1818,135.2,98.2,0.472
35.4,31785.5,34602.9,-1.1833,-0.9783,135.2,98.2,0.472
35.42,31801.3,34439.5,-1.0964,-1.3802,135.2,98.2,0.472
35.44,31788.0,34344.3,-1.1695,-1.6142,135.2,98.2,0.472
35.46,31744.2,34492.2,-1.4119,-1.2505,135.2,98.2,0.472
35.48,31990.0,34741.9,-0.0524,-0.6366,135.2,98.2,0.472
35.5,32051.0,35028.8,0.285,0.069,135.2,98.2,0.472
35.52,32218.6,35459.7,1.2125,1.1285,135.2,98.2,0.472
35.54,32211.8,35636.7,1.1746,1.5638,135.2,98.2,0.472
35.56,32218.2,35835.0,1.2105,2.0514,135.2,98.2,0.472
35.58,32218.9,35741.7,1.2139,1.822,135.2,98.2,0.472
35.6,32314.0,35610.2,1.7403,1.4987,135.2,98.2,0.472
35.62,32085.6,35353.7,0.4764,0.8679,135.2,98.2,0.472
35.64,32097.0,35252.9,0.5398,0.62,135.2,98.2,0.472
35.66,32036.3,35201.1,0.204,0.4926,135.2,98.2,0.472
35.68,32021.5,35078.5,0.1221,0.1913,135.2,98.2,0.472
35.7,31958.3,35006.6,-0.2279,0.0143,135.2,98.2,0.472
35.72,31966.1,34917.4,-0.1842,-0.205,135.2,98.2,0.472
35.74,31922.9,34859.5,-0.4237,-0.3472,135.2,98.2,0.472
35.76,31910.9,34660.3,-0.4899,-0.8371,135.2,98.2,0.472
35.78,31832.2,34647.8,-0.9251,-0.8679,135.2,98.2,0.472
35.8,31787.4,34715.1,-1.1729,-0.7025,135.2,98.2,0.472
35.82,31776.7,34617.1,-1.232,-0.9433,135.2,98.2,0.472
35.84,31798.2,34524.8,-1.1134,-1.1702,135.2,98.2,0.472
35.86,31711.4,34504.6,-1.5936,-1.2201,135.2,98.2,0.472
35.88,31770.2,34391.1,-1.2682,-1.4992,135.2,98.2,0.472
35.9,31724.7,34525.8,-1.5198,-1.1679,135.2,98.2,0.472
35.92,31875.9,34661.4,-0.6837,-0.8343,135.2,98.2,0.472
35.94,32060.2,35018.2,0.3363,0.043,135.2,98.2,0.472
35.96,32162.6,35289.1,0.9026,0.7089,135.2,98.2,0.472
35.98,32275.3,35560.5,1.526,1.3764,135.2,98.2,0.472
36.0,32466.8,35712.3,2.5854,1.7498,135.2,98.2,0.472
36.02,32376.7,35680.8,2.0868,1.6721,135.2,98.2,0.472
36.04,32226.2,35563.4,1.2544,1.3835,135.2,98.2,0.472
36.06,32154.6,35363.2,0.8581,0.8913,135.2,98.2,0.472
36.08,32152.2,35268.6,0.8452,0.6586,135.2,98.2,0.472
36.1,32028.2,35252.2,0.1592,0.6183,135.2,98.2,0.472
36.12,32003.2,34974.2,0.0205,-0.0652,135.2,98.2,0.472
36.14,32009.7,35134.6,0.057,0.3292,135.2,98.2,0.472
36.16,31988.8,34904.8,-0.0588,-0.236,135.2,98.2,0.472
36.18,31981.4,34832.2,-0.1,-0.4144,135.2,98.2,0.472
36.2,31947.8,34782.3,-0.2854,-0.5371,135.2,98.2,0.472
36.22,31897.4,34622.1,-0.5643,-0.9311,135.2,98.2,0.472
36.24,31783.9,34667.5,-1.1922,-0.8195,135.2,98.2,0.472
36.26,31787.8,34622.0,-1.1707,-0.9314,135.2,98.2,0.472
36.28,31791.9,34652.0,-1.148,-0.8576,135.2,98.2,0.472
36.3,31748.0,34585.4,-1.3911,-1.0212,135.2,98.2,0.472
36.32,31774.8,34537.3,-1.243,-1.1396,135.2,98.2,0.472
36.34,31746.6,34438.0,-1.3988,-1.3837,135.2,98.2,0.472
36.36,31851.7,34711.4,-0.8173,-0.7115,135.2,98.2,0.472
36.38,31930.4,34839.0,-0.3821,-0.3977,135.2,98.2,0.472
36.4,32153.2,35090.3,0.8503,0.2202,135.2,98.2,0.472
36.42,32293.7,35635.2,1.6276,1.5601,135.2,98.2,0.472
36.44,32351.8,35789.5,1.9495,1.9396,135.2,98.2,0.472
36.46,32379.0,35657.8,2.0999,1.6156,135.2,98.2,0.472
36.48,32321.4,35579.7,1.7814,1.4237,135.2,98.2,0.472
36.5,32182.8,35462.5,1.0142,1.1354,135.2,98.2,0.472
36.52,32183.5,35249.3,1.0181,0.6112,135.2,98.2,0.472
36.54,32060.2,35208.4,0.3359,0.5105,135.2,98.2,0.472
36.56,32066.2,35045.7,0.3691,0.1104,135.2,98.2,0.472
36.58,32004.9,35037.9,0.0301,0.0914,135.2,98.2,0.472
36.6,31960.8,34919.2,-0.2136,-0.2004,135.2,98.2,0.472
36.62,31935.6,34872.2,-0.3533,-0.316,135.2,98.2,0.472
36.64,31845.0,34746.6,-0.8543,-0.625,135.2,98.2,0.472
36.66,31782.6,34664.7,-1.1998,-0.8263,135.2,98.2,0.472
36.68,31814.3,34650.5,-1.024,-0.8612,135.2,98.2,0.472
36.7,31851.1,34653.1,-0.8207,-0.8548,135.2,98.2,0.472
36.72,31852.0,34661.6,-0.8159,-0.834,135.2,98.2,0.472
36.74,31871.3,34495.0,-0.7088,-1.2435,135.2,98.2,0.472
36.76,31800.4,34566.5,-1.1012,-1.0677,135.2,98.2,0.472
36.78,31801.6,34475.3,-1.0945,-1.292,135.2,98.2,0.472
36.8,31822.1,34662.5,-0.9812,-0.8318,135.2,98.2,0.472
36.82,31993.7,34802.7,-0.0316,-0.4869,135.2,98.2,0.472
36.84,31962.3,35272.0,-0.2056,0.6671,135.2,98.2,0.472
36.86,32128.8,35413.1,0.7159,1.0139,135.2,98.2,0.472
36.88,32329.7,35712.5,1.8268,1.7501,135.2,98.2,0.472
36.9,32296.9,35676.4,1.6455,1.6615,135.2,98.2,0.472
36.92,32279.6,35642.5,1.5496,1.578,135.2,98.2,0.472
36.94,32094.9,35519.0,0.528,1.2745,135.2,98.2,0.472
36.96,32055.3,35306.6,0.3093,0.7522,135.2,98.2,0.472
36.98,32065.4,35119.7,0.365,0.2924,135.2,98.2,0.472
37.0,32075.5,35148.0,0.421,0.3622,135.2,98.2,0.472
37.02,32045.5,35098.5,0.2549,0.2404,135.2,98.2,0.472
37.04,31973.8,34976.7,-0.1418,-0.059,135.2,98.2,0.472
37.06,31961.7,34888.7,-0.2086,-0.2754,135.2,98.2,0.472
37.08,31980.4,34761.8,-0.1056,-0.5875,135.2,98.2,0.472
37.1,31879.2,34735.9,-0.6652,-0.6512,135.2,98.2,0.472
37.12,31865.2,34620.7,-0.7427,-0.9345,135.2,98.2,0.472
37.14,31787.9,34603.4,-1.1703,-0.977,135.2,98.2,0.472
37.16,31810.6,34675.5,-1.0447,-0.7998,135.2,98.2,0.472
37.18,31801.4,34539.3,-1.0955,-1.1347,135.2,98.2,0.472
37.2,31816.4,34371.8,-1.0124,-1.5465,135.2,98.2,0.472
37.22,31823.7,34547.0,-0.9723,-1.1156,135.2,98.2,0.472
37.24,31742.6,34495.0,-1.4209,-1.2436,135.2,98.2,0.472
37.26,31799.1,34745.8,-1.1082,-0.6269,135.2,98.2,0.472
37.28,31916.6,35171.5,-0.4585,0.42,135.2,98.2,0.472
37.3,32149.4,35430.6,0.8296,1.0571,135.2,98.2,0.472
37.32,32340.9,35743.8,1.8891,1.8272,135.2,98.2,0.472
37.34,32300.0,35697.9,1.6629,1.7143,135.2,98.2,0.472
37.36,32269.7,35639.5,1.495,1.5708,135.2,98.2,0.472
37.38,32199.2,35535.2,1.1049,1.3141,135.2,98.2,0.472
37.4,32184.2,35269.2,1.0221,0.66,135.2,98.2,0.472
37.42,31999.6,35196.1,0.0007,0.4805,135.2,98.2,0.472
37.44,32015.8,35044.8,0.0905,0.1083,135.2,98.2,0.472
37.46,32063.8,35045.7,0.3562,0.1105,135.2,98.2,0.472
37.48,31989.8,35027.7,-0.0533,0.0664,135.2,98.2,0.472
37.5,32076.1,34931.9,0.4243,-0.1693,135.2,98.2,0.472
37.52,31952.8,34752.0,-0.2578,-0.6117,135.2,98.2,0.472
37.54,31899.4,34626.5,-0.5533,-0.9203,135.2,98.2,0.472
37.56,31832.1,34720.3,-0.926,-0.6897,135.2,98.2,0.472
37.58,31896.9,34697.0,-0.5672,-0.7468,135.2,98.2,0.472
37.6,31872.7,34670.7,-0.7009,-0.8115,135.2,98.2,0.472
37.62,31824.2,34552.1,-0.9697,-1.1032,135.2,98.2,0.472
37.64,31738.7,34415.6,-1.4425,-1.4388,135.2,98.2,0.472
37.66,31694.0,34385.4,-1.6896,-1.5131,135.2,98.2,0.472
37.68,31703.0,34475.6,-1.6398,-1.2914,135.2,98.2,0.472
37.7,31843.3,34773.2,-0.8638,-0.5596,135.2,98.2,0.472
37.72,32097.1,35061.5,0.5402,0.1493,135.2,98.2,0.472
37.74,32236.1,35340.6,1.3093,0.8356,135.2,98.2,0.472
37.76,32345.1,35709.5,1.9123,1.7428,135.2,98.2,0.472
37.78,32400.2,35805.8,2.217,1.9797,135.2,98.2,0.472
37.8,32325.3,35654.8,1.8025,1.6083,135.2,98.2,0.472
37.82,32189.1,35500.9,1.0491,1.2298,135.2,98.2,0.472
37.84,32082.2,35380.8,0.458,0.9345,135.2,98.2,0.472
37.86,32191.8,35269.8,1.0643,0.6617,135.2,98.2,0.472
37.88,31986.6,35035.0,-0.0713,0.0841,135.2,98.2,0.472
37.9,32058.5,35017.5,0.3268,0.0412,135.2,98.2,0.472
37.92,32002.9,35021.5,0.0189,0.051,135.2,98.2,0.472
37.94,31974.6,34949.1,-0.1376,-0.1271,135.2,98.2,0.472
37.96,31872.6,34887.1,-0.7016,-0.2795,135.2,98.2,0.472
37.98,31939.8,34758.0,-0.33,-0.5968,135.2,98.2,0.472
38.0,31851.6,34701.0,-0.8179,-0.7369,135.2,98.2,0.472
38.02,31774.6,34679.5,-1.2436,-0.7898,135.2,98.2,0.472
38.04,31867.8,34556.9,-0.7284,-1.0915,135.2,98.2,0.472
38.06,31793.0,34647.6,-1.1418,-0.8683,135.2,98.2,0.472
38.08,31762.1,34512.7,-1.3133,-1.2,135.2,98.2,0.472
38.1,31702.2,34377.2,-1.6446,-1.5332,135.2,98.2,0.472
38.12,31811.9,34458.0,-1.0373,-1.3345,135.2,98.2,0.472
38.14,31781.9,34678.6,-1.2033,-0.7922,135.2,98.2,0.472
38.16,31992.3,34942.2,-0.0393,-0.1439,135.2,98.2,0.472
38.18,32167.9,35282.3,0.9322,0.6922,135.2,98.2,0.472
38.2,32299.2,35641.3,1.6583,1.5752,135.2,98.2,0.472
38.22,32371.1,35746.5,2.0559,1.8338,135.2,98.2,0.472
38.24,32325.8,35640.0,1.8057,1.5718,135.2,98.2,0.472
38.26,32279.1,35553.6,1.5469,1.3595,135.2,98.2,0.472
38.28,32150.0,35284.5,0.833,0.6977,135.2,98.2,0.472
38.3,32169.9,35255.4,0.943,0.6261,135.2,98.2,0.472
38.32,32074.5,35141.6,0.4152,0.3463,135.2,98.2,0.472
38.34,32011.2,35068.3,0.0651,0.1661,135.2,98.2,0.472
38.36,31951.7,35006.8,-0.2642,0.0148,135.2,98.2,0.472
38.38,31899.3,34884.3,-0.5538,-0.2863,135.2,98.2,0.472
38.4,31916.7,34868.3,-0.4575,-0.3258,135.2,98.2,0.472
38.42,31915.1,34784.3,-0.4666,-0.5321,135.2,98.2,0.472
38.44,31877.4,34620.5,-0.6749,-0.9349,135.2,98.2,0.472
38.46,31905.6,34617.1,-0.5189,-0.9434,135.2,98.2,0.472
38.48,31791.0,34688.4,-1.1532,-0.7681,135.2,98.2,0.472
38.5,31782.9,34612.6,-1.1977,-0.9545,135.2,98.2,0.472
38.52,31789.3,34510.8,-1.1626,-1.2049,135.2,98.2,0.472
38.54,31711.2,34573.4,-1.5948,-1.0509,135.2,98.2,0.472
38.56,31888.0,34515.6,-0.6165,-1.193,135.2,98.2,0.472
38.58,31797.5,34621.5,-1.1174,-0.9327,135.2,98.2,0.472
38.6,32097.9,34875.1,0.5448,-0.309,135.2,98.2,0.472
38.62,32116.4,35246.6,0.6469,0.6046,135.2,98.2,0.472
38.64,32183.7,35533.4,1.0192,1.3098,135.2,98.2,0.472
38.66,32280.3,35731.7,1.5537,1.7975,135.2,98.2,0.472
38.68,32390.1,35688.1,2.1613,1.6902,135.2,98.2,0.472
38.7,32277.4,35578.7,1.5379,1.4211,135.2,98.2,0.472
38.72,32154.7,35442.0,0.8587,1.0851,135.2,98.2,0.472
38.74,32028.8,35150.9,0.1623,0.3693,135.2,98.2,0.472
38.76,32030.6,35158.2,0.1726,0.3871,135.2,98.2,0.472
38.78,32052.5,35066.8,0.2933,0.1623,135.2,98.2,0.472
38.8,31887.8,35060.9,-0.6176,0.1479,135.2,98.2,0.472
38.82,32004.5,35055.5,0.0278,0.1347,135.2,98.2,0.472
38.84,31965.1,34858.2,-0.1902,-0.3506,135.2,98.2,0.472
38.86,31836.5,34679.5,-0.9015,-0.7899,135.2,98.2,0.472
38.88,31782.9,34696.7,-1.198,-0.7476,135.2,98.2,0.472
38.9,31902.5,34628.0,-0.5364,-0.9167,135.2,98.2,0.472
38.92,31915.9,34623.1,-0.4621,-0.9285,135.2,98.2,0.472
38.94,31814.2,34711.3,-1.0249,-0.7118,135.2,98.2,0.472
38.96,31804.8,34489.2,-1.0769,-1.2578,135.2,98.2,0.472
38.98,31831.5,34513.6,-0.9291,-1.1979,135.2,98.2,0.472
39.0,31809.8,34450.5,-1.0492,-1.353,135.2,98.2,0.472
39.02,31798.9,34564.3,-1.1094,-1.0731,135.2,98.2,0.472
39.04,31936.0,34825.6,-0.3509,-0.4308,135.2,98.2,0.472
39.06,32031.9,35272.2,0.1798,0.6674,135.2,98.2,0.472
39.08,32144.6,35625.2,0.8029,1.5356,135.2,98.2,0.472
39.1,32278.1,35719.6,1.5416,1.7675,135.2,98.2,0.472
39.12,32285.1,35746.4,1.5805,1.8336,135.2,98.2,0.472
39.14,32185.4,35588.8,1.0285,1.446,135.2,98.2,0.472
39.16,32149.8,35385.1,0.8316,0.9451,135.2,98.2,0.472
39.18,32057.4,35296.8,0.3208,0.728,135.2,98.2,0.472
39.2,31955.6,35113.2,-0.2427,0.2766,135.2,98.2,0.472
39.22,31991.5,35072.1,-0.0439,0.1754,135.2,98.2,0.472
39.24,31985.5,35112.6,-0.0769,0.275,135.2,98.2,0.472
39.26,32042.2,34975.5,0.2363,-0.062,135.2,98.2,0.472
39.28,31996.1,34859.1,-0.0183,-0.3483,135.2,98.2,0.472
39.3,31939.2,34780.1,-0.3331,-0.5426,135.2,98.2,0.472
39.32,31830.6,34647.2,-0.9343,-0.8693,135.2,98.2,0.472
39.34,31932.9,34708.7,-0.3681,-0.718,135.2,98.2,0.472
39.36,31897.5,34679.6,-0.564,-0.7898,135.2,98.2,0.472
39.38,31955.4,34627.1,-0.2435,-0.9187,135.2,98.2,0.472
39.4,31866.3,34495.3,-0.7363,-1.243,135.2,98.2,0.472
39.42,31826.1,34465.5,-0.9589,-1.3161,135.2,98.2,0.472
39.44,31764.4,34458.4,-1.3002,-1.3336,135.2,98.2,0.472
39.46,31834.3,34504.6,-0.9137,-1.2199,135.2,98.2,0.472
39.48,31866.6,34746.5,-0.7347,-0.6252,135.2,98.2,0.472
39.5,32088.5,35145.9,0.4928,0.3569,135.2,98.2,0.472
39.52,32159.4,35509.0,0.8848,1.2497,135.2,98.2,0.472
39.54,32341.8,35747.4,1.8938,1.8359,135.2,98.2,0.472
39.56,32354.6,35711.6,1.9648,1.748,135.2,98.2,0.472
39.58,32255.9,35688.0,1.4185,1.69,135.2,98.2,0.472
39.6,32217.9,35543.0,1.2086,1.3334,135.2,98.2,0.472
39.62,32131.2,35221.1,0.729,0.5417,135.2,98.2,0.472
39.64,31988.8,35181.3,-0.059,0.444,135.2,98.2,0.472
39.66,32106.5,35142.2,0.5925,0.3479,135.2,98.2,0.472
39.68,32017.8,35050.8,0.1017,0.1231,135.2,98.2,0.472
39.7,31986.5,35033.1,-0.0717,0.0796,135.2,98.2,0.472
39.72,31873.9,34794.8,-0.6946,-0.5064,135.2,98.2,0.472
39.74,31975.5,34785.0,-0.1327,-0.5305,135.2,98.2,0.472
39.76,31909.9,34721.0,-0.4956,-0.6878,135.2,98.2,0.472
39.78,31941.9,34723.5,-0.3183,-0.6816,135.2,98.2,0.472
39.8,31853.3,34664.2,-0.8087,-0.8275,135.2,98.2,0.472
39.82,31793.1,34676.3,-1.1415,-0.7979,135.2,98.2,0.472
39.84,31857.3,34528.1,-0.7865,-1.1623,135.2,98.2,0.472
39.86,31768.3,34612.8,-1.2789,-0.9539,135.2,98.2,0.472
39.88,31694.9,34432.8,-1.6846,-1.3966,135.2,98.2,0.472
39.9,31854.3,34476.8,-0.803,-1.2884,135.2,98.2,0.472
39.92,31958.2,34768.9,-0.2281,-0.57,135.2,98.2,0.472
39.94,31962.3,35095.2,-0.2053,0.2322,135.2,98.2,0.472
39.96,32138.6,35408.6,0.7698,1.003,135.2,98.2,0.472
39.98,32202.2,35628.5,1.1217,1.5435,135.2,98.2,0.472
40.0,32332.1,35845.2,1.8404,2.0765,135.2,98.2,0.472
40.02,32346.6,35672.7,1.9208,1.6524,135.2,98.2,0.472
40.04,32198.7,35439.6,1.1022,1.0792,135.2,98.2,0.472
40.06,32131.9,35234.0,0.7326,0.5737,135.2,98.2,0.472
40.08,32076.3,35215.7,0.4252,0.5284,135.2,98.2,0.472
40.1,32067.3,35167.3,0.3754,0.4095,135.2,98.2,0.472
40.12,32034.4,35133.7,0.1935,0.327,135.2,98.2,0.472
40.14,32059.2,34962.1,0.3306,-0.095,135.2,98.2,0.472
40.16,31985.1,34831.3,-0.0794,-0.4167,135.2,98.2,0.472
40.18,31840.7,34806.2,-0.8784,-0.4783,135.2,98.2,0.472
40.2,31757.2,34693.3,-1.34,-0.7561,135.2,98.2,0.472
40.22,31896.5,34646.3,-0.5694,-0.8716,135.2,98.2,0.472
40.24,31823.0,34667.7,-0.976,-0.819,135.2,98.2,0.472
40.26,31839.6,34536.4,-0.8844,-1.1419,135.2,98.2,0.472
40.28,31806.1,34557.3,-1.0694,-1.0903,135.2,98.2,0.472
40.3,31828.8,34498.9,-0.9441,-1.234,135.2,98.2,0.472
40.32,31742.9,34404.5,-1.4193,-1.4661,135.2,98.2,0.472
40.34,31671.5,34481.6,-1.814,-1.2766,135.2,98.2,0.472
40.36,31826.5,34655.6,-0.9566,-0.8487,135.2,98.2,0.472
40.38,32095.9,34910.1,0.5334,-0.223,135.2,98.2,0.472
40.4,32139.5,35362.1,0.7749,0.8884,135.2,98.2,0.472
40.42,32286.5,35711.1,1.5879,1.7466,135.2,98.2,0.472
40.44,32309.4,35810.1,1.7145,1.9901,135.2,98.2,0.472
40.46,32221.4,35758.9,1.2282,1.8644,135.2,98.2,0.472
40.48,32258.2,35533.3,1.4314,1.3094,135.2,98.2,0.472
40.5,32184.7,35364.3,1.0247,0.894,135.2,98.2,0.472
40.52,32065.7,35216.9,0.3666,0.5316,135.2,98.2,0.472
40.54,31969.5,35138.2,-0.1659,0.3381,135.2,98.2,0.472
40.56,31999.4,35136.8,-0.0002,0.3346,135.2,98.2,0.472
40.58,32082.8,35059.1,0.461,0.1436,135.2,98.2,0.472
40.6,31981.1,34974.9,-0.1014,-0.0635,135.2,98.2,0.472
40.62,31892.5,34890.2,-0.5914,-0.2718,135.2,98.2,0.472
40.64,31909.2,34705.9,-0.4992,-0.7251,135.2,98.2,0.472
40.66,31850.7,34746.6,-0.8228,-0.6249,135.2,98.2,0.472
40.68,31903.1,34713.8,-0.5333,-0.7055,135.2,98.2,0.472
40.7,31832.8,34687.7,-0.922,-0.7698,135.2,98.2,0.472
40.72,31837.8,34605.6,-0.8944,-0.9717,135.2,98.2,0.472
40.74,31749.4,34609.9,-1.3831,-0.9612,135.2,98.2,0.472
40.76,31840.3,34365.9,-0.8807,-1.5611,135.2,98.2,0.472
40.78,31673.9,34466.7,-1.8011,-1.3131,135.2,98.2,0.472
40.8,31850.7,34693.8,-0.8231,-0.7547,135.2,98.2,0.472
40.82,31980.6,34842.9,-0.1044,-0.3883,135.2,98.2,0.472
40.84,32111.0,35295.1,0.617,0.7239,135.2,98.2,0.472
40.86,32173.5,35602.4,0.9631,1.4796,135.2,98.2,0.472
40.88,32449.3,35695.8,2.4888,1.709,135.2,98.2,0.472
40.9,32382.7,35744.5,2.1203,1.8289,135.2,98.2,0.472
40.92,32284.9,35660.1,1.5793,1.6214,135.2,98.2,0.472
40.94,32142.3,35311.3,0.7901,0.7636,135.2,98.2,0.472
40.96,32128.6,35253.2,0.7146,0.6208,135.2,98.2,0.472
40.98,32147.5,35150.3,0.8192,0.3676,135.2,98.2,0.472
41.0,32151.8,35098.3,0.8427,0.2399,135.2,98.2,0.472
41.02,31956.2,35053.4,-0.2393,0.1296,135.2,98.2,0.472
41.04,31948.6,34927.6,-0.2811,-0.1799,135.2,98.2,0.472
41.06,31964.1,34816.3,-0.1955,-0.4536,135.2,98.2,0.472
41.08,31908.6,34699.5,-0.5024,-0.7407,135.2,98.2,0.472
41.1,31825.6,34706.5,-0.9619,-0.7235,135.2,98.2,0.472
41.12,31901.8,34552.5,-0.5401,-1.1023,135.2,98.2,0.472
41.14,31862.8,34643.1,-0.7561,-0.8794,135.2,98.2,0.472
41.16,31828.6,34663.9,-0.9454,-0.8282,135.2,98.2,0.472
41.18,31807.4,34536.4,-1.0625,-1.1419,135.2,98.2,0.472
41.2,31779.0,34493.0,-1.2194,-1.2486,135.2,98.2,0.472
41.22,31767.4,34414.4,-1.2838,-1.4417,135.2,98.2,0.472
41.24,31864.6,34603.2,-0.7457,-0.9776,135.2,98.2,0.472
41.26,31969.6,34824.1,-0.1649,-0.4345,135.2,98.2,0.472
41.28,31998.6,35167.9,-0.0049,0.4111,135.2,98.2,0.472
41.3,32330.1,35615.8,1.8292,1.5125,135.2,98.2,0.472
41.32,32267.4,35752.2,1.4825,1.8477,135.2,98.2,0.472
41.34,32371.5,35725.2,2.058,1.7813,135.2,98.2,0.472
41.36,32283.6,35665.2,1.5721,1.6337,135.2,98.2,0.472
41.38,32186.1,35433.9,1.0327,1.0652,135.2,98.2,0.472
41.4,32114.5,35260.5,0.6367,0.6388,135.2,98.2,0.472
41.42,32137.6,35191.4,0.7642,0.4689,135.2,98.2,0.472
41.44,31990.5,35122.5,-0.0494,0.2995,135.2,98.2,0.472
41.46,31996.4,35084.0,-0.0167,0.2046,135.2,98.2,0.472
41.48,32049.9,35107.1,0.2789,0.2616,135.2,98.2,0.472
41.5,31966.7,34862.9,-0.181,-0.3389,135.2,98.2,0.472
41.52,31908.0,34781.6,-0.5059,-0.5388,135.2,98.2,0.472
41.54,31930.2,34730.2,-0.3829,-0.6652,135.2,98.2,0.472
41.56,31830.5,34612.6,-0.9347,-0.9545,135.2,98.2,0.472
41.58,31851.0,34587.5,-0.8212,-1.0162,135.2,98.2,0.472
41.6,31846.6,34682.0,-0.8457,-0.7837,135.2,98.2,0.472
41.62,31769.5,34608.8,-1.2721,-0.9638,135.2,98.2,0.472
41.64,31822.0,34536.0,-0.9814,-1.1429,135.2,98.2,0.472
41.66,31804.7,34491.8,-1.0773,-1.2515,135.2,98.2,0.472
41.68,31847.3,34581.1,-0.8417,-1.0319,135.2,98.2,0.472
41.7,31877.1,34764.4,-0.6767,-0.5812,135.2,98.2,0.472
41.72,32179.9,35054.9,0.9982,0.1332,135.2,98.2,0.472
41.74,32179.6,35454.5,0.9968,1.1158,135.2,98.2,0.472
41.76,32263.7,35675.2,1.4622,1.6586,135.2,98.2,0.472
41.78,32203.6,35815.8,1.1295,2.0041,135.2,98.2,0.472
41.8,32356.9,35706.1,1.9774,1.7343,135.2,98.2,0.472
41.82,32148.6,35482.4,0.8252,1.1843,135.2,98.2,0.472
41.84,32114.2,35223.3,0.6346,0.5473,135.2,98.2,0.472
41.86,31999.1,35140.0,-0.0018,0.3425,135.2,98.2,0.472
41.88,32010.6,35126.7,0.0615,0.3097,135.2,98.2,0.472
41.9,31848.9,35036.8,-0.833,0.0887,135.2,98.2,0.472
41.92,32040.9,35099.8,0.2294,0.2437,135.2,98.2,0.472
41.94,31989.2,34950.8,-0.0566,-0.1228,135.2,98.2,0.472
41.96,31978.0,34797.2,-0.1186,-0.5006,135.2,98.2,0.472
41.98,31913.7,34662.2,-0.4745,-0.8325,135.2,98.2,0.472
42.0,31880.1,34645.7,-0.6601,-0.873,135.2,98.2,0.472
42.02,31845.8,34687.1,-0.8497,-0.7713,135.2,98.2,0.472
42.04,31860.1,34601.8,-0.7709,-0.981,135.2,98.2,0.472
42.06,31743.5,34678.9,-1.4159,-0.7914,135.2,98.2,0.472
42.08,31742.4,34495.5,-1.422,-1.2424,135.2,98.2,0.472
42.1,31693.0,34474.0,-1.6953,-1.2951,135.2,98.2,0.472
42.12,31679.1,34611.4,-1.7724,-0.9575,135.2,98.2,0.472
42.14,31910.7,34809.2,-0.4908,-0.471,135.2,98.2,0.472
42.16,32036.2,35030.6,0.2035,0.0735,135.2,98.2,0.472
42.18,32197.2,35443.0,1.0938,1.0876,135.2,98.2,0.472
42.2,32313.8,35631.3,1.7393,1.5506,135.2,98.2,0.472
42.22,32296.8,35754.7,1.6448,1.8538,135.2,98.2,0.472
42.24,32249.1,35679.0,1.3814,1.6678,135.2,98.2,0.472
42.26,32212.8,35552.0,1.1806,1.3555,135.2,98.2,0.472
42.28,32011.5,35339.2,0.0666,0.8322,135.2,98.2,0.472
42.3,32110.3,35146.7,0.6131,0.359,135.2,98.2,0.472
42.32,32137.1,35082.1,0.7613,0.2001,135.2,98.2,0.472
42.34,32070.7,35008.3,0.394,0.0185,135.2,98.2,0.472
42.36,32043.5,35065.4,0.2438,0.159,135.2,98.2,0.472
42.38,31951.0,35000.3,-0.268,-0.001,135.2,98.2,0.472
42.4,31949.6,34827.6,-0.2759,-0.4258,135.2,98.2,0.472
42.42,31957.8,34745.1,-0.2306,-0.6285,135.2,98.2,0.472
42.44,31856.6,34704.6,-0.79,-0.7283,135.2,98.2,0.472
42.46,31836.3,34641.6,-0.9024,-0.8832,135.2,98.2,0.472
42.48,31813.8,34615.6,-1.027,-0.9471,135.2,98.2,0.472
42.5,31813.7,34613.3,-1.0278,-0.9527,135.2,98.2,0.472
42.52,31776.7,34553.2,-1.2323,-1.1004,135.2,98.2,0.472
42.54,31750.5,34441.5,-1.3774,-1.3751,135.2,98.2,0.472
42.56,31858.5,34479.1,-0.7799,-1.2826,135.2,98.2,0.472
42.58,31864.1,34753.8,-0.7488,-0.6072,135.2,98.2,0.472
42.6,32108.9,34987.0,0.6056,-0.0337,135.2,98.2,0.472
42.62,32165.0,35391.2,0.916,0.9602,135.2,98.2,0.472
42.64,32265.1,35555.9,1.4695,1.3651,135.2,98.2,0.472
42.66,32278.9,35819.0,1.5461,2.0121,135.2,98.2,0.472
42.68,32358.1,35653.2,1.9839,1.6042,135.2,98.2,0.472
42.7,32242.0,35513.0,1.3417,1.2595,135.2,98.2,0.472
42.72,32150.3,35452.6,0.8344,1.1111,135.2,98.2,0.472
42.74,32024.0,35267.3,0.1358,0.6555,135.2,98.2,0.472
42.76,32058.1,35060.9,0.3246,0.1479,135.2,98.2,0.472
42.78,32090.2,34989.8,0.5022,-0.0268,135.2,98.2,0.472
42.8,32007.5,35073.1,0.0446,0.178,135.2,98.2,0.472
42.82,32019.9,34884.8,0.1134,-0.2852,135.2,98.2,0.472
42.84,31883.2,34815.4,-0.6432,-0.4558,135.2,98.2,0.472
42.86,31831.7,34765.7,-0.9282,-0.5779,135.2,98.2,0.472
42.88,31856.2,34597.4,-0.7922,-0.9918,135.2,98.2,0.472
42.9,31819.3,34677.2,-0.9966,-0.7955,135.2,98.2,0.472
42.92,31807.1,34622.4,-1.0643,-0.9303,135.2,98.2,0.472
42.94,31834.8,34620.5,-0.9108,-0.9349,135.2,98.2,0.472
42.96,31816.0,34431.7,-1.0147,-1.3991,135.2,98.2,0.472
42.98,31824.5,34450.3,-0.9679,-1.3535,135.2,98.2,0.472
43.0,31711.8,34423.4,-1.5912,-1.4196,135.2,98.2,0.472
43.02,31903.7,34660.2,-0.5294,-0.8374,135.2,98.2,0.472
43.04,31884.7,35004.8,-0.6348,0.0099,135.2,98.2,0.472
43.06,32164.7,35386.3,0.914,0.948,135.2,98.2,0.472
43.08,32277.2,35691.0,1.5367,1.6974,135.2,98.2,0.472
43.1,32209.5,35707.7,1.1619,1.7383,135.2,98.2,0.472
43.12,32336.6,35730.6,1.865,1.7948,135.2,98.2,0.472
43.14,32235.1,35631.4,1.3037,1.5508,135.2,98.2,0.472
43.16,32239.8,35369.0,1.3298,0.9055,135.2,98.2,0.472
43.18,32096.3,35230.1,0.5356,0.564,135.2,98.2,0.472
43.2,32032.5,35145.4,0.1828,0.3556,135.2,98.2,0.472
43.22,32051.2,35005.8,0.2865,0.0125,135.2,98.2,0.472
43.24,31998.8,35016.7,-0.0034,0.0393,135.2,98.2,0.472
43.26,31891.5,34990.9,-0.5972,-0.0241,135.2,98.2,0.472
43.28,31941.7,34881.9,-0.3195,-0.2922,135.2,98.2,0.472
43.3,31864.6,34741.6,-0.7462,-0.6372,135.2,98.2,0.472
43.32,31940.1,34693.5,-0.3281,-0.7555,135.2,98.2,0.472
43.34,31915.6,34666.8,-0.4641,-0.8211,135.2,98.2,0.472
43.36,31849.0,34699.4,-0.8324,-0.7411,135.2,98.2,0.472
43.38,31858.3,34607.9,-0.781,-0.9659,135.2,98.2,0.472
43.4,31839.2,34599.8,-0.8864,-0.986,135.2,98.2,0.472
43.42,31710.1,34405.0,-1.6006,-1.465,135.2,98.2,0.472
43.44,31812.5,34581.2,-1.0342,-1.0318,135.2,98.2,0.472
43.46,31802.0,34659.0,-1.0923,-0.8404,135.2,98.2,0.472
43.48,31984.9,34918.7,-0.0802,-0.2019,135.2,98.2,0.472
43.5,32085.7,35201.7,0.4772,0.4941,135.2,98.2,0.472
43.52,32335.8,35514.3,1.8611,1.2628,135.2,98.2,0.472
43.54,32289.2,35706.1,1.6032,1.7344,135.2,98.2,0.472
43.56,32439.1,35779.0,2.4321,1.9138,135.2,98.2,0.472
43.58,32315.1,35578.8,1.7465,1.4214,135.2,98.2,0.472
43.6,32169.0,35390.3,0.9383,0.9579,135.2,98.2,0.472
43.62,32036.9,35288.3,0.2072,0.707,135.2,98.2,0.472
43.64,32042.5,35135.1,0.238,0.3304,135.2,98.2,0.472
43.66,32037.4,35132.5,0.2099,0.324,135.2,98.2,0.472
43.68,31990.7,35043.2,-0.0484,0.1044,135.2,98.2,0.472
43.7,32005.5,34959.6,0.0337,-0.1011,135.2,98.2,0.472
43.72,31955.6,34855.3,-0.2426,-0.3576,135.2,98.2,0.472
43.74,31969.8,34731.0,-0.1639,-0.6634,135.2,98.2,0.472
43.76,31889.0,34657.3,-0.6112,-0.8445,135.2,98.2,0.472
43.78,31873.0,34649.9,-0.6997,-0.8628,135.2,98.2,0.472
43.8,31774.0,34579.8,-1.2473,-1.0351,135.2,98.2,0.472
43.82,31819.0,34553.5,-0.9985,-1.0998,135.2,98.2,0.472
43.84,31890.1,34577.8,-0.6047,-1.0401,135.2,98.2,0.472
43.86,31906.4,34406.5,-0.515,-1.4612,135.2,98.2,0.472
43.88,31696.4,34333.8,-1.6767,-1.64,135.2,98.2,0.472
43.9,31768.6,34574.8,-1.2768,-1.0475,135.2,98.2,0.472
43.92,31902.1,34930.6,-0.5384,-0.1725,135.2,98.2,0.472
43.94,32048.9,35178.3,0.2738,0.4365,135.2,98.2,0.472
43.96,32166.1,35452.3,0.9222,1.1102,135.2,98.2,0.472
43.98,32192.2,35709.9,1.0666,1.7438,135.2,98.2,0.472
44.0,32426.1,35698.7,2.3606,1.7162,135.2,98.2,0.472
44.02,32231.9,35634.4,1.2859,1.558,135.2,98.2,0.472
44.04,32162.0,35470.9,0.8993,1.1562,135.2,98.2,0.472
44.06,32139.3,35262.0,0.7736,0.6423,135.2,98.2,0.472
44.08,32063.9,35189.9,0.3568,0.4651,135.2,98.2,0.472
44.1,32106.8,35160.6,0.594,0.393,135.2,98.2,0.472
44.12,32034.3,34957.3,0.1931,-0.1068,135.2,98.2,0.472
44.14,32027.1,35017.9,0.1532,0.0421,135.2,98.2,0.472
44.16,31965.8,34915.6,-0.1859,-0.2094,135.2,98.2,0.472
44.18,31855.1,34819.8,-0.7985,-0.445,135.2,98.2,0.472
44.2,31847.6,34646.4,-0.8401,-0.8713,135.2,98.2,0.472
44.22,31973.4,34667.4,-0.1443,-0.8197,135.2,98.2,0.472
44.24,31828.3,34680.1,-0.9469,-0.7884,135.2,98.2,0.472
44.26,31941.0,34599.3,-0.3232,-0.9872,135.2,98.2,0.472
44.28,31813.5,34558.5,-1.0286,-1.0874,135.2,98.2,0.472
44.3,31733.0,34408.5,-1.4741,-1.4564,135.2,98.2,0.472
44.32,31802.4,34520.8,-1.0903,-1.1802,135.2,98.2,0.472
44.34,31846.7,34559.1,-0.8451,-1.0861,135.2,98.2,0.472
44.36,31937.8,34747.3,-0.3412,-0.6233,135.2,98.2,0.472
44.38,32089.4,35176.1,0.4977,0.4313,135.2,98.2,0.472
44.4,32138.8,35436.2,0.7707,1.0708,135.2,98.2,0.472
44.42,32164.8,35672.6,0.9149,1.652,135.2,98.2,0.472
44.44,32346.1,35801.5,1.918,1.9691,135.2,98.2,0.472
44.46,32340.2,35625.7,1.8851,1.5367,135.2,98.2,0.472
44.48,32336.0,35514.6,1.8621,1.2635,135.2,98.2,0.472
44.5,32131.8,35350.9,0.7324,0.8609,135.2,98.2,0.472
44.52,32066.2,35235.6,0.3694,0.5776,135.2,98.2,0.472
44.54,32018.5,35136.4,0.1055,0.3336,135.2,98.2,0.472
44.56,32024.3,35146.2,0.1372,0.3577,135.2,98.2,0.472
44.58,32035.5,35004.4,0.1994,0.0091,135.2,98.2,0.472
44.6,31915.3,34945.2,-0.4654,-0.1366,135.2,98.2,0.472
44.62,31822.6,34825.5,-0.9781,-0.4309,135.2,98.2,0.472
44.64,31908.2,34666.6,-0.5047,-0.8217,135.2,98.2,0.472
44.66,31954.4,34707.0,-0.2494,-0.7222,135.2,98.2,0.472
44.68,31867.7,34666.0,-0.7288,-0.8232,135.2,98.2,0.472
44.7,31733.4,34649.3,-1.4716,-0.8642,135.2,98.2,0.472
44.72,31801.5,34633.1,-1.0952,-0.904,135.2,98.2,0.472
44.74,31708.5,34481.0,-1.6097,-1.278,135.2,98.2,0.472
44.76,31754.3,34440.0,-1.3563,-1.3787,135.2,98.2,0.472
44.78,31818.2,34519.5,-1.0027,-1.1834,135.2,98.2,0.472
44.8,31862.8,34684.7,-0.7561,-0.7771,135.2,98.2,0.472
44.82,31922.5,35068.5,-0.4257,0.1665,135.2,98.2,0.472
44.84,32185.6,35313.1,1.0297,0.7681,135.2,98.2,0.472
44.86,32252.0,35683.5,1.3971,1.6789,135.2,98.2,0.472
