timestamp,raw_red,raw_ir,filtered_red,filtered_ir,heart_rate,spo2,ac_dc_ratio
0.0,32124.9,35210.0,1.191,1.1952,143.7,97.8,0.487
0.02,32153.7,35526.7,1.1929,1.2135,143.7,97.8,0.487
0.04,32362.4,35796.2,1.2061,1.2291,143.7,97.8,0.487
0.06,32312.9,35657.0,1.203,1.2211,143.7,97.8,0.487
0.08,32313.3,35661.7,1.203,1.2213,143.7,97.8,0.487
0.1,32233.3,35386.3,1.1979,1.2054,143.7,97.8,0.487
0.12,32102.3,35233.1,1.1896,1.1965,143.7,97.8,0.487
0.14,32066.4,35151.3,1.1873,1.1918,143.7,97.8,0.487
0.16,31975.9,35102.3,1.1816,1.1889,143.7,97.8,0.487
0.18,31997.1,35068.0,1.1829,1.1869,143.7,97.8,0.487
0.2,31974.4,34883.1,1.1815,1.1762,143.7,97.8,0.487
0.22,31914.4,34765.7,1.1777,1.1694,143.7,97.8,0.487
0.24,31904.3,34756.4,1.1771,1.1689,143.7,97.8,0.487
0.26,31819.3,34736.4,1.1717,1.1677,143.7,97.8,0.487
0.28,31878.4,34620.6,1.1754,1.161,143.7,97.8,0.487
0.3,31903.5,34594.6,1.177,1.1595,143.7,97.8,0.487
0.32,31786.3,34543.9,1.1696,1.1566,143.7,97.8,0.487
0.34,31934.8,34525.3,1.179,1.1555,143.7,97.8,0.487
0.36,31778.9,34457.3,1.1691,1.1515,143.7,97.8,0.487
0.38,31835.6,34551.1,1.1727,1.157,143.7,97.8,0.487
0.4,31972.2,34853.8,1.1814,1.1745,143.7,97.8,0.487
0.42,32136.5,35243.1,1.1918,1.1971,143.7,97.8,0.487
0.44,32329.6,35599.3,1.204,1.2177,143.7,97.8,0.487
0.46,32302.1,35745.7,1.2023,1.2262,143.7,97.8,0.487
0.48,32351.6,35809.5,1.2054,1.2299,143.7,97.8,0.487
0.5,32249.0,35583.6,1.1989,1.2168,143.7,97.8,0.487
0.52,32081.7,35344.5,1.1883,1.203,143.7,97.8,0.487
0.54,32102.9,35229.6,1.1896,1.1963,143.7,97.8,0.487
0.56,31970.1,35102.9,1.1812,1.189,143.7,97.8,0.487
0.58,32015.1,35168.9,1.1841,1.1928,143.7,97.8,0.487
0.6,32038.0,35060.2,1.1855,1.1865,143.7,97.8,0.487
0.62,31926.2,34916.4,1.1784,1.1782,143.7,97.8,0.487
0.64,31979.6,34780.0,1.1818,1.1702,143.7,97.8,0.487
0.66,31987.5,34789.9,1.1823,1.1708,143.7,97.8,0.487
0.68,31931.1,34726.3,1.1788,1.1671,143.7,97.8,0.487
0.7,31801.3,34582.0,1.1705,1.1588,143.7,97.8,0.487
0.72,31842.0,34691.6,1.1731,1.1651,143.7,97.8,0.487
0.74,31775.7,34528.0,1.1689,1.1556,143.7,97.8,0.487
0.76,31692.8,34384.1,1.1636,1.1473,143.7,97.8,0.487
0.78,31707.6,34426.7,1.1646,1.1498,143.7,97.8,0.487
0.8,31816.1,34611.4,1.1715,1.1605,143.7,97.8,0.487
0.82,31980.5,34948.7,1.1819,1.18,143.7,97.8,0.487
0.84,32174.7,35184.7,1.1942,1.1937,143.7,97.8,0.487
0.86,32257.1,35672.7,1.1994,1.222,143.7,97.8,0.487
0.88,32329.1,35788.2,1.204,1.2287,143.7,97.8,0.487
0.9,32249.3,35616.7,1.1989,1.2187,143.7,97.8,0.487
0.92,32265.4,35464.1,1.1999,1.2099,143.7,97.8,0.487
0.94,32190.1,35346.4,1.1952,1.2031,143.7,97.8,0.487
0.96,32124.1,35214.9,1.191,1.1954,143.7,97.8,0.487
0.98,32025.5,35183.1,1.1847,1.1936,143.7,97.8,0.487
1.0,32073.0,35050.3,1.1877,1.1859,143.7,97.8,0.487
1.02,31997.1,35001.5,1.1829,1.1831,143.7,97.8,0.487
1.04,31888.0,34834.2,1.176,1.1734,143.7,97.8,0.487
1.06,31896.5,34870.3,1.1766,1.1755,143.7,97.8,0.487
1.08,31966.0,34675.8,1.181,1.1642,143.7,97.8,0.487
1.1,31825.6,34734.4,1.1721,1.1676,143.7,97.8,0.487
1.12,31811.5,34608.4,1.1712,1.1603,143.7,97.8,0.487
1.14,31797.5,34663.6,1.1703,1.1635,143.7,97.8,0.487
1.16,31790.7,34631.3,1.1699,1.1616,143.7,97.8,0.487
1.18,31725.4,34480.5,1.1657,1.1529,143.7,97.8,0.487
1.2,31737.8,34451.6,1.1665,1.1512,143.7,97.8,0.487
1.22,31845.9,34599.1,1.1734,1.1598,143.7,97.8,0.487
1.24,32025.2,34857.4,1.1847,1.1747,143.7,97.8,0.487
1.26,32088.3,35210.9,1.1887,1.1952,143.7,97.8,0.487
1.28,32315.4,35641.8,1.2031,1.2202,143.7,97.8,0.487
1.3,32344.0,35653.4,1.2049,1.2209,143.7,97.8,0.487
1.32,32292.6,35746.6,1.2017,1.2263,143.7,97.8,0.487
1.34,32268.6,35484.0,1.2002,1.211,143.7,97.8,0.487
1.36,32187.6,35340.8,1.195,1.2027,143.7,97.8,0.487
1.38,32098.5,35110.1,1.1894,1.1894,143.7,97.8,0.487
1.4,31996.1,35042.4,1.1829,1.1855,143.7,97.8,0.487
1.42,32108.9,35056.9,1.19,1.1863,143.7,97.8,0.487
1.44,31871.2,35008.1,1.175,1.1835,143.7,97.8,0.487
1.46,31901.0,34817.7,1.1768,1.1724,143.7,97.8,0.487
1.48,31882.5,34789.8,1.1757,1.1708,143.7,97.8,0.487
1.5,31895.8,34743.0,1.1765,1.1681,143.7,97.8,0.487
1.52,31817.4,34652.0,1.1716,1.1628,143.7,97.8,0.487
1.54,31883.7,34634.1,1.1758,1.1618,143.7,97.8,0.487
1.56,31721.8,34734.2,1.1655,1.1676,143.7,97.8,0.487
1.58,31784.3,34543.4,1.1694,1.1565,143.7,97.8,0.487
1.6,31827.6,34481.2,1.1722,1.1529,143.7,97.8,0.487
1.62,31742.1,34454.9,1.1668,1.1514,143.7,97.8,0.487
1.64,31835.0,34650.6,1.1727,1.1627,143.7,97.8,0.487
1.66,32019.4,34989.7,1.1844,1.1824,143.7,97.8,0.487
1.68,32191.9,35328.6,1.1953,1.202,143.7,97.8,0.487
1.7,32358.4,35701.1,1.2058,1.2236,143.7,97.8,0.487
1.72,32284.9,35765.9,1.2012,1.2274,143.7,97.8,0.487
1.74,32255.1,35691.8,1.1993,1.2231,143.7,97.8,0.487
1.76,32223.1,35467.1,1.1973,1.2101,143.7,97.8,0.487
1.78,32086.6,35291.6,1.1886,1.1999,143.7,97.8,0.487
1.8,32075.5,35151.1,1.1879,1.1917,143.7,97.8,0.487
1.82,32026.9,35052.1,1.1848,1.186,143.7,97.8,0.487
1.84,32090.7,35041.3,1.1889,1.1854,143.7,97.8,0.487
1.86,31924.1,35026.0,1.1783,1.1845,143.7,97.8,0.487
1.88,31974.1,34879.3,1.1815,1.176,143.7,97.8,0.487
1.9,31865.0,34747.9,1.1746,1.1684,143.7,97.8,0.487
1.92,31797.2,34632.8,1.1703,1.1617,143.7,97.8,0.487
1.94,31826.2,34635.3,1.1721,1.1619,143.7,97.8,0.487
1.96,31889.0,34710.0,1.1761,1.1662,143.7,97.8,0.487
1.98,31861.0,34585.5,1.1743,1.159,143.7,97.8,0.487
2.0,31687.2,34468.8,1.1633,1.1522,143.7,97.8,0.487
2.02,31788.9,34463.5,1.1697,1.1519,143.7,97.8,0.487
2.04,31771.6,34500.7,1.1686,1.1541,143.7,97.8,0.487
2.06,31856.6,34653.0,1.174,1.1629,143.7,97.8,0.487
2.08,32008.0,35112.8,1.1836,1.1895,143.7,97.8,0.487
2.1,32154.7,35411.9,1.1929,1.2069,143.7,97.8,0.487
2.12,32340.2,35622.7,1.2047,1.2191,143.7,97.8,0.487
2.14,32471.7,35670.9,1.213,1.2219,143.7,97.8,0.487
2.16,32334.7,35704.2,1.2043,1.2238,143.7,97.8,0.487
2.18,32235.3,35520.3,1.198,1.2131,143.7,97.8,0.487
2.2,32175.3,35229.8,1.1942,1.1963,143.7,97.8,0.487
2.22,32048.6,35278.0,1.1862,1.1991,143.7,97.8,0.487
2.24,32096.5,35047.0,1.1892,1.1857,143.7,97.8,0.487
2.26,32053.4,35094.9,1.1865,1.1885,143.7,97.8,0.487
2.28,32061.6,35073.5,1.187,1.1873,143.7,97.8,0.487
2.3,32037.3,34862.3,1.1855,1.175,143.7,97.8,0.487
2.32,31835.0,34693.1,1.1727,1.1652,143.7,97.8,0.487
2.34,31865.3,34640.4,1.1746,1.1622,143.7,97.8,0.487
2.36,31862.8,34799.0,1.1744,1.1713,143.7,97.8,0.487
2.38,31841.0,34583.7,1.173,1.1589,143.7,97.8,0.487
2.4,31834.5,34608.5,1.1726,1.1603,143.7,97.8,0.487
2.42,31837.2,34590.9,1.1728,1.1593,143.7,97.8,0.487
2.44,31814.5,34417.8,1.1714,1.1493,143.7,97.8,0.487
2.46,31856.2,34584.2,1.174,1.1589,143.7,97.8,0.487
2.48,31880.5,34732.7,1.1755,1.1675,143.7,97.8,0.487
2.5,31960.2,35186.7,1.1806,1.1938,143.7,97.8,0.487
2.52,32192.4,35428.8,1.1953,1.2078,143.7,97.8,0.487
2.54,32337.2,35694.5,1.2045,1.2232,143.7,97.8,0.487
2.56,32362.1,35795.8,1.2061,1.2291,143.7,97.8,0.487
2.58,32232.6,35658.8,1.1979,1.2212,143.7,97.8,0.487
2.6,32236.6,35473.1,1.1981,1.2104,143.7,97.8,0.487
2.62,32088.2,35293.1,1.1887,1.2,143.7,97.8,0.487
2.64,32056.5,35244.4,1.1867,1.1972,143.7,97.8,0.487
2.66,32099.9,35103.2,1.1895,1.189,143.7,97.8,0.487
2.68,32040.5,35044.8,1.1857,1.1856,143.7,97.8,0.487
2.7,31948.4,34916.3,1.1799,1.1781,143.7,97.8,0.487
2.72,31871.0,34788.6,1.1749,1.1707,143.7,97.8,0.487
2.74,31954.4,34728.4,1.1802,1.1673,143.7,97.8,0.487
2.76,31795.6,34691.2,1.1702,1.1651,143.7,97.8,0.487
2.78,31826.4,34667.6,1.1721,1.1637,143.7,97.8,0.487
2.8,31797.3,34631.6,1.1703,1.1617,143.7,97.8,0.487
2.82,31789.2,34588.5,1.1698,1.1592,143.7,97.8,0.487
2.84,31771.5,34528.1,1.1686,1.1557,143.7,97.8,0.487
2.86,31719.3,34354.2,1.1653,1.1456,143.7,97.8,0.487
2.88,31760.2,34433.1,1.1679,1.1502,143.7,97.8,0.487
2.9,31881.4,34757.3,1.1756,1.1689,143.7,97.8,0.487
2.92,32050.4,35224.7,1.1863,1.196,143.7,97.8,0.487
2.94,32242.1,35440.9,1.1985,1.2085,143.7,97.8,0.487
2.96,32291.5,35761.8,1.2016,1.2271,143.7,97.8,0.487
2.98,32287.6,35794.6,1.2014,1.229,143.7,97.8,0.487
3.0,32250.4,35638.1,1.199,1.22,143.7,97.8,0.487
3.02,32140.2,35412.9,1.192,1.2069,143.7,97.8,0.487
3.04,32216.2,35270.0,1.1968,1.1986,143.7,97.8,0.487
3.06,32018.1,35134.7,1.1843,1.1908,143.7,97.8,0.487
3.08,32096.9,35039.9,1.1893,1.1853,143.7,97.8,0.487
3.1,32070.1,34960.5,1.1876,1.1807,143.7,97.8,0.487
3.12,31979.9,34940.0,1.1818,1.1795,143.7,97.8,0.487
3.14,31974.8,34873.8,1.1815,1.1757,143.7,97.8,0.487
3.16,31847.4,34754.5,1.1735,1.1688,143.7,97.8,0.487
3.18,31781.8,34540.4,1.1693,1.1564,143.7,97.8,0.487
3.2,31877.3,34678.8,1.1753,1.1644,143.7,97.8,0.487
3.22,31837.2,34647.9,1.1728,1.1626,143.7,97.8,0.487
3.24,31867.6,34594.6,1.1747,1.1595,143.7,97.8,0.487
3.26,31865.4,34429.9,1.1746,1.15,143.7,97.8,0.487
3.28,31667.3,34422.4,1.162,1.1495,143.7,97.8,0.487
3.3,31826.6,34488.1,1.1721,1.1533,143.7,97.8,0.487
3.32,31864.0,34911.5,1.1745,1.1779,143.7,97.8,0.487
3.34,32168.5,35159.9,1.1938,1.1923,143.7,97.8,0.487
3.36,32177.2,35540.6,1.1944,1.2143,143.7,97.8,0.487
3.38,32337.6,35782.3,1.2045,1.2283,143.7,97.8,0.487
3.4,32342.9,35798.0,1.2049,1.2292,143.7,97.8,0.487
3.42,32283.2,35524.3,1.2011,1.2134,143.7,97.8,0.487
3.44,32216.6,35411.9,1.1969,1.2069,143.7,97.8,0.487
3.46,32172.3,35216.5,1.194,1.1955,143.7,97.8,0.487
3.48,32034.4,35110.2,1.1853,1.1894,143.7,97.8,0.487
3.5,32065.4,35152.6,1.1873,1.1918,143.7,97.8,0.487
3.52,31966.3,35068.0,1.181,1.1869,143.7,97.8,0.487
3.54,31991.7,34934.3,1.1826,1.1792,143.7,97.8,0.487
3.56,31883.1,34727.1,1.1757,1.1672,143.7,97.8,0.487
3.58,31877.1,34713.3,1.1753,1.1664,143.7,97.8,0.487
3.6,31935.6,34626.0,1.179,1.1613,143.7,97.8,0.487
3.62,31923.9,34610.3,1.1783,1.1604,143.7,97.8,0.487
3.64,31891.9,34571.9,1.1763,1.1582,143.7,97.8,0.487
3.66,31750.4,34638.0,1.1673,1.162,143.7,97.8,0.487
3.68,31777.2,34547.2,1.169,1.1568,143.7,97.8,0.487
3.7,31843.7,34383.3,1.1732,1.1473,143.7,97.8,0.487
3.72,31832.2,34638.9,1.1725,1.1621,143.7,97.8,0.487
3.74,31874.9,34837.9,1.1752,1.1736,143.7,97.8,0.487
3.76,32165.6,35186.5,1.1936,1.1938,143.7,97.8,0.487
3.78,32268.4,35606.0,1.2001,1.2181,143.7,97.8,0.487
3.8,32316.0,35742.9,1.2032,1.226,143.7,97.8,0.487
3.82,32378.2,35739.7,1.2071,1.2259,143.7,97.8,0.487
3.84,32264.9,35597.1,1.1999,1.2176,143.7,97.8,0.487
3.86,32196.4,35352.8,1.1956,1.2034,143.7,97.8,0.487
3.88,32071.5,35262.0,1.1877,1.1982,143.7,97.8,0.487
3.9,32055.9,35135.8,1.1867,1.1909,143.7,97.8,0.487
3.92,32077.5,35073.8,1.188,1.1873,143.7,97.8,0.487
3.94,31972.4,35040.8,1.1814,1.1854,143.7,97.8,0.487
3.96,31887.0,34873.4,1.176,1.1757,143.7,97.8,0.487
3.98,31802.1,34832.8,1.1706,1.1733,143.7,97.8,0.487
4.0,31823.8,34662.7,1.172,1.1634,143.7,97.8,0.487
4.02,31895.2,34618.7,1.1765,1.1609,143.7,97.8,0.487
4.04,31875.5,34633.8,1.1752,1.1618,143.7,97.8,0.487
4.06,31854.1,34692.0,1.1739,1.1651,143.7,97.8,0.487
4.08,31782.6,34456.1,1.1693,1.1515,143.7,97.8,0.487
4.1,31776.5,34485.3,1.169,1.1532,143.7,97.8,0.487
4.12,31833.0,34407.1,1.1725,1.1486,143.7,97.8,0.487
4.14,31838.3,34560.4,1.1729,1.1575,143.7,97.8,0.487
4.16,31887.3,34857.4,1.176,1.1747,143.7,97.8,0.487
4.18,32155.4,35258.9,1.193,1.198,143.7,97.8,0.487
4.2,32344.7,35642.9,1.205,1.2203,143.7,97.8,0.487
4.22,32255.6,35735.4,1.1993,1.2256,143.7,97.8,0.487
4.24,32331.9,35757.5,1.2042,1.2269,143.7,97.8,0.487
4.26,32196.4,35544.8,1.1956,1.2146,143.7,97.8,0.487
4.28,32124.2,35409.0,1.191,1.2067,143.7,97.8,0.487
4.3,32062.3,35165.4,1.1871,1.1926,143.7,97.8,0.487
4.32,32091.8,35112.0,1.1889,1.1895,143.7,97.8,0.487
4.34,32025.4,35091.4,1.1847,1.1883,143.7,97.8,0.487
4.36,32104.5,34957.7,1.1897,1.1805,143.7,97.8,0.487
4.38,31986.7,34928.3,1.1823,1.1788,143.7,97.8,0.487
4.4,31926.3,34836.6,1.1784,1.1735,143.7,97.8,0.487
4.42,31944.8,34696.8,1.1796,1.1654,143.7,97.8,0.487
4.44,31877.0,34731.3,1.1753,1.1674,143.7,97.8,0.487
4.46,31845.3,34691.5,1.1733,1.1651,143.7,97.8,0.487
4.48,31769.4,34676.6,1.1685,1.1643,143.7,97.8,0.487
4.5,31888.1,34506.0,1.176,1.1544,143.7,97.8,0.487
4.52,31749.2,34476.9,1.1672,1.1527,143.7,97.8,0.487
4.54,31846.2,34446.1,1.1734,1.1509,143.7,97.8,0.487
4.56,31849.1,34713.4,1.1736,1.1664,143.7,97.8,0.487
4.58,31977.5,34986.6,1.1817,1.1822,143.7,97.8,0.487
4.6,32116.2,35323.5,1.1905,1.2017,143.7,97.8,0.487
4.62,32220.5,35622.6,1.1971,1.2191,143.7,97.8,0.487
4.64,32364.3,35735.9,1.2062,1.2256,143.7,97.8,0.487
4.66,32401.6,35749.8,1.2086,1.2264,143.7,97.8,0.487
4.68,32208.6,35516.7,1.1963,1.2129,143.7,97.8,0.487
4.7,32187.4,35305.8,1.195,1.2007,143.7,97.8,0.487
4.72,32150.5,35149.5,1.1927,1.1917,143.7,97.8,0.487
4.74,32149.2,35039.1,1.1926,1.1853,143.7,97.8,0.487
4.76,32031.5,35105.9,1.1851,1.1891,143.7,97.8,0.487
4.78,32003.7,35002.7,1.1834,1.1832,143.7,97.8,0.487
4.8,32052.3,34901.4,1.1864,1.1773,143.7,97.8,0.487
4.82,31890.2,34741.7,1.1762,1.168,143.7,97.8,0.487
4.84,31838.4,34676.4,1.1729,1.1642,143.7,97.8,0.487
4.86,31844.3,34691.1,1.1733,1.1651,143.7,97.8,0.487
4.88,31837.0,34668.0,1.1728,1.1638,143.7,97.8,0.487
4.9,31817.6,34694.9,1.1716,1.1653,143.7,97.8,0.487
4.92,31820.0,34527.3,1.1717,1.1556,143.7,97.8,0.487
4.94,31832.8,34492.3,1.1725,1.1536,143.7,97.8,0.487
4.96,31757.5,34464.0,1.1678,1.1519,143.7,97.8,0.487
4.98,31733.6,34691.6,1.1662,1.1651,143.7,97.8,0.487
5.0,32024.1,34947.6,1.1847,1.18,143.7,97.8,0.487
5.02,32155.4,35265.6,1.193,1.1984,143.7,97.8,0.487
5.04,32251.2,35683.6,1.199,1.2226,143.7,97.8,0.487
5.06,32359.7,35728.7,1.2059,1.2252,143.7,97.8,0.487
5.08,32268.6,35608.2,1.2001,1.2182,143.7,97.8,0.487
5.1,32215.2,35469.3,1.1968,1.2102,143.7,97.8,0.487
5.12,32051.9,35403.6,1.1864,1.2064,143.7,97.8,0.487
5.14,32010.7,35133.4,1.1838,1.1907,143.7,97.8,0.487
5.16,32003.2,35114.4,1.1833,1.1896,143.7,97.8,0.487
5.18,31985.9,35001.2,1.1822,1.1831,143.7,97.8,0.487
5.2,31958.4,34942.7,1.1805,1.1797,143.7,97.8,0.487
5.22,31853.7,35010.7,1.1738,1.1836,143.7,97.8,0.487
5.24,31889.9,34718.4,1.1761,1.1667,143.7,97.8,0.487
5.26,31784.6,34710.6,1.1695,1.1662,143.7,97.8,0.487
5.28,31875.0,34712.2,1.1752,1.1663,143.7,97.8,0.487
5.3,31839.3,34667.3,1.1729,1.1637,143.7,97.8,0.487
5.32,31751.3,34594.3,1.1674,1.1595,143.7,97.8,0.487
5.34,31936.0,34465.8,1.1791,1.152,143.7,97.8,0.487
5.36,31780.4,34418.9,1.1692,1.1493,143.7,97.8,0.487
5.38,31768.9,34530.1,1.1685,1.1558,143.7,97.8,0.487
5.4,31837.4,34723.4,1.1728,1.167,143.7,97.8,0.487
5.42,31893.4,34990.7,1.1764,1.1825,143.7,97.8,0.487
5.44,32204.7,35405.6,1.1961,1.2065,143.7,97.8,0.487
5.46,32228.3,35725.8,1.1976,1.2251,143.7,97.8,0.487
5.48,32329.8,35713.8,1.204,1.2244,143.7,97.8,0.487
5.5,32276.2,35620.1,1.2006,1.2189,143.7,97.8,0.487
5.52,32292.2,35438.8,1.2016,1.2084,143.7,97.8,0.487
5.54,32122.2,35397.9,1.1909,1.2061,143.7,97.8,0.487
5.56,32073.2,35143.0,1.1878,1.1913,143.7,97.8,0.487
5.58,32086.4,35084.9,1.1886,1.1879,143.7,97.8,0.487
5.6,32055.3,35115.8,1.1866,1.1897,143.7,97.8,0.487
5.62,31996.1,34963.3,1.1829,1.1809,143.7,97.8,0.487
5.64,31870.7,34859.1,1.1749,1.1748,143.7,97.8,0.487
5.66,31883.0,34660.3,1.1757,1.1633,143.7,97.8,0.487
5.68,31809.0,34709.0,1.171,1.1661,143.7,97.8,0.487
5.7,31782.6,34607.1,1.1693,1.1602,143.7,97.8,0.487
5.72,31829.8,34625.5,1.1723,1.1613,143.7,97.8,0.487
5.74,31797.0,34655.1,1.1703,1.163,143.7,97.8,0.487
5.76,31814.7,34508.2,1.1714,1.1545,143.7,97.8,0.487
5.78,31868.9,34527.9,1.1748,1.1556,143.7,97.8,0.487
5.8,31758.0,34642.4,1.1678,1.1623,143.7,97.8,0.487
5.82,31902.2,34739.1,1.1769,1.1679,143.7,97.8,0.487
5.84,32042.5,35079.8,1.1858,1.1876,143.7,97.8,0.487
5.86,32172.1,35397.3,1.194,1.206,143.7,97.8,0.487
5.88,32316.3,35650.6,1.2032,1.2207,143.7,97.8,0.487
5.9,32380.9,35849.2,1.2073,1.2322,143.7,97.8,0.487
5.92,32255.3,35620.3,1.1993,1.2189,143.7,97.8,0.487
5.94,32235.6,35346.0,1.1981,1.203,143.7,97.8,0.487
5.96,32116.4,35248.1,1.1905,1.1974,143.7,97.8,0.487
5.98,32108.2,35117.2,1.19,1.1898,143.7,97.8,0.487
6.0,32049.5,35101.9,1.1863,1.1889,143.7,97.8,0.487
6.02,32011.8,35029.4,1.1839,1.1847,143.7,97.8,0.487
6.04,31982.2,34938.4,1.182,1.1794,143.7,97.8,0.487
6.06,31950.4,34779.4,1.18,1.1702,143.7,97.8,0.487
6.08,31851.7,34764.3,1.1737,1.1693,143.7,97.8,0.487
6.1,31846.5,34621.5,1.1734,1.1611,143.7,97.8,0.487
6.12,31864.2,34597.1,1.1745,1.1597,143.7,97.8,0.487
6.14,31841.2,34667.1,1.1731,1.1637,143.7,97.8,0.487
6.16,31827.7,34561.8,1.1722,1.1576,143.7,97.8,0.487
6.18,31741.2,34485.0,1.1667,1.1532,143.7,97.8,0.487
6.2,31721.4,34526.8,1.1655,1.1556,143.7,97.8,0.487
6.22,31854.2,34504.1,1.1739,1.1543,143.7,97.8,0.487
6.24,31973.0,34570.8,1.1814,1.1581,143.7,97.8,0.487
6.26,32009.4,35122.7,1.1837,1.1901,143.7,97.8,0.487
6.28,32213.6,35514.2,1.1967,1.2128,143.7,97.8,0.487
6.3,32320.7,35716.5,1.2034,1.2245,143.7,97.8,0.487
6.32,32303.2,35733.6,1.2023,1.2255,143.7,97.8,0.487
6.34,32276.6,35658.1,1.2007,1.2211,143.7,97.8,0.487
6.36,32140.9,35426.0,1.1921,1.2077,143.7,97.8,0.487
6.38,32112.1,35163.3,1.1902,1.1925,143.7,97.8,0.487
6.4,32088.0,35165.6,1.1887,1.1926,143.7,97.8,0.487
6.42,32012.5,35087.3,1.1839,1.1881,143.7,97.8,0.487
6.44,32092.6,34992.9,1.189,1.1826,143.7,97.8,0.487
6.46,31993.5,34862.8,1.1827,1.175,143.7,97.8,0.487
6.48,31960.5,34794.0,1.1806,1.1711,143.7,97.8,0.487
6.5,31900.7,34631.4,1.1768,1.1616,143.7,97.8,0.487
6.52,31835.5,34641.9,1.1727,1.1622,143.7,97.8,0.487
6.54,31797.0,34724.3,1.1703,1.167,143.7,97.8,0.487
6.56,31808.3,34676.1,1.171,1.1642,143.7,97.8,0.487
6.58,31820.2,34555.8,1.1717,1.1573,143.7,97.8,0.487
6.6,31843.0,34432.5,1.1732,1.1501,143.7,97.8,0.487
6.62,31717.1,34429.6,1.1652,1.1499,143.7,97.8,0.487
6.64,31865.5,34600.3,1.1746,1.1598,143.7,97.8,0.487
6.66,31904.0,34835.5,1.177,1.1735,143.7,97.8,0.487
6.68,32087.7,35208.1,1.1887,1.1951,143.7,97.8,0.487
6.7,32190.2,35537.3,1.1952,1.2141,143.7,97.8,0.487
6.72,32305.0,35820.4,1.2025,1.2305,143.7,97.8,0.487
6.74,32480.7,35644.1,1.2136,1.2203,143.7,97.8,0.487
6.76,32291.3,35614.5,1.2016,1.2186,143.7,97.8,0.487
6.78,32196.4,35361.2,1.1956,1.2039,143.7,97.8,0.487
6.8,32153.2,35194.4,1.1928,1.1943,143.7,97.8,0.487
6.82,32024.0,35131.3,1.1846,1.1906,143.7,97.8,0.487
6.84,32002.8,35069.3,1.1833,1.187,143.7,97.8,0.487
6.86,32065.4,34944.9,1.1873,1.1798,143.7,97.8,0.487
6.88,31900.9,34859.0,1.1768,1.1748,143.7,97.8,0.487
6.9,31910.4,34793.6,1.1774,1.171,143.7,97.8,0.487
6.92,31897.0,34737.0,1.1766,1.1678,143.7,97.8,0.487
6.94,31834.0,34683.4,1.1726,1.1647,143.7,97.8,0.487
6.96,31833.5,34762.7,1.1726,1.1692,143.7,97.8,0.487
6.98,31901.4,34734.4,1.1769,1.1676,143.7,97.8,0.487
7.0,31759.0,34596.9,1.1678,1.1596,143.7,97.8,0.487
7.02,31749.7,34425.3,1.1673,1.1497,143.7,97.8,0.487
7.04,31740.9,34486.5,1.1667,1.1532,143.7,97.8,0.487
7.06,31929.6,34600.8,1.1787,1.1599,143.7,97.8,0.487
7.08,31980.5,34879.2,1.1819,1.176,143.7,97.8,0.487
7.1,32057.0,35108.1,1.1867,1.1893,143.7,97.8,0.487
7.12,32176.2,35453.8,1.1943,1.2093,143.7,97.8,0.487
7.14,32342.1,35785.6,1.2048,1.2285,143.7,97.8,0.487
7.16,32264.2,35685.9,1.1999,1.2227,143.7,97.8,0.487
7.18,32204.6,35483.9,1.1961,1.211,143.7,97.8,0.487
7.2,32100.2,35388.9,1.1895,1.2055,143.7,97.8,0.487
7.22,32056.2,35207.3,1.1867,1.195,143.7,97.8,0.487
7.24,32027.9,35116.3,1.1849,1.1897,143.7,97.8,0.487
7.26,32078.8,35088.3,1.1881,1.1881,143.7,97.8,0.487
7.28,31963.0,35008.7,1.1808,1.1835,143.7,97.8,0.487
7.3,31917.7,34964.5,1.1779,1.1809,143.7,97.8,0.487
7.32,31963.1,34688.4,1.1808,1.1649,143.7,97.8,0.487
7.34,31843.9,34630.8,1.1732,1.1616,143.7,97.8,0.487
7.36,31967.9,34708.9,1.1811,1.1661,143.7,97.8,0.487
7.38,31809.0,34666.4,1.171,1.1637,143.7,97.8,0.487
7.4,31851.3,34682.2,1.1737,1.1646,143.7,97.8,0.487
7.42,31869.0,34502.6,1.1748,1.1542,143.7,97.8,0.487
7.44,31835.0,34403.0,1.1727,1.1484,143.7,97.8,0.487
7.46,31612.0,34498.5,1.1585,1.1539,143.7,97.8,0.487
7.48,31803.7,34674.8,1.1707,1.1642,143.7,97.8,0.487
7.5,31984.3,34969.5,1.1821,1.1812,143.7,97.8,0.487
7.52,32218.9,35289.6,1.197,1.1998,143.7,97.8,0.487
7.54,32259.9,35715.6,1.1996,1.2245,143.7,97.8,0.487
7.56,32306.0,35711.0,1.2025,1.2242,143.7,97.8,0.487
7.58,32311.1,35713.1,1.2028,1.2243,143.7,97.8,0.487
7.6,32317.2,35564.6,1.2032,1.2157,143.7,97.8,0.487
7.62,32224.4,35280.1,1.1973,1.1992,143.7,97.8,0.487
7.64,32059.0,35195.5,1.1869,1.1943,143.7,97.8,0.487
7.66,32083.2,35060.4,1.1884,1.1865,143.7,97.8,0.487
7.68,32062.7,34979.7,1.1871,1.1818,143.7,97.8,0.487
7.7,31985.2,35131.5,1.1822,1.1906,143.7,97.8,0.487
7.72,31981.6,34889.8,1.182,1.1766,143.7,97.8,0.487
7.74,31879.4,34873.1,1.1755,1.1756,143.7,97.8,0.487
7.76,31801.7,34820.5,1.1706,1.1726,143.7,97.8,0.487
7.78,31782.7,34701.3,1.1694,1.1657,143.7,97.8,0.487
7.8,31801.3,34647.4,1.1705,1.1626,143.7,97.8,0.487
7.82,31808.2,34567.7,1.171,1.1579,143.7,97.8,0.487
7.84,31778.6,34530.5,1.1691,1.1558,143.7,97.8,0.487
7.86,31842.3,34380.9,1.1731,1.1471,143.7,97.8,0.487
7.88,31841.6,34456.4,1.1731,1.1515,143.7,97.8,0.487
7.9,31922.9,34600.6,1.1782,1.1599,143.7,97.8,0.487
7.92,31982.6,34932.2,1.182,1.1791,143.7,97.8,0.487
7.94,32220.2,35482.0,1.1971,1.2109,143.7,97.8,0.487
7.96,32287.5,35616.1,1.2013,1.2187,143.7,97.8,0.487
7.98,32390.3,35653.0,1.2079,1.2208,143.7,97.8,0.487
8.0,32252.6,35766.2,1.1991,1.2274,143.7,97.8,0.487
8.02,32247.7,35511.9,1.1988,1.2127,143.7,97.8,0.487
8.04,32182.8,35303.8,1.1947,1.2006,143.7,97.8,0.487
8.06,32003.7,35084.2,1.1834,1.1879,143.7,97.8,0.487
8.08,32035.1,35150.1,1.1854,1.1917,143.7,97.8,0.487
8.1,32063.4,35014.0,1.1871,1.1838,143.7,97.8,0.487
8.12,31998.3,34960.2,1.183,1.1807,143.7,97.8,0.487
8.14,31904.3,34967.2,1.1771,1.1811,143.7,97.8,0.487
8.16,31974.1,34808.0,1.1815,1.1719,143.7,97.8,0.487
8.18,31807.6,34708.4,1.1709,1.1661,143.7,97.8,0.487
8.2,31925.0,34693.2,1.1784,1.1652,143.7,97.8,0.487
8.22,31915.0,34624.1,1.1777,1.1612,143.7,97.8,0.487
8.24,31815.1,34641.4,1.1714,1.1622,143.7,97.8,0.487
8.26,31807.3,34494.3,1.1709,1.1537,143.7,97.8,0.487
8.28,31784.3,34432.6,1.1695,1.1501,143.7,97.8,0.487
8.3,31880.4,34487.4,1.1755,1.1533,143.7,97.8,0.487
8.32,31721.1,34693.0,1.1654,1.1652,143.7,97.8,0.487
8.34,31947.2,34978.3,1.1798,1.1817,143.7,97.8,0.487
8.36,32165.8,35391.4,1.1936,1.2057,143.7,97.8,0.487
8.38,32298.7,35665.7,1.2021,1.2216,143.7,97.8,0.487
8.4,32425.9,35764.6,1.2101,1.2273,143.7,97.8,0.487
8.42,32296.2,35728.9,1.2019,1.2252,143.7,97.8,0.487
8.44,32255.9,35525.0,1.1993,1.2134,143.7,97.8,0.487
8.46,32170.9,35221.3,1.194,1.1958,143.7,97.8,0.487
8.48,32162.4,35113.9,1.1934,1.1896,143.7,97.8,0.487
8.5,32102.2,35204.6,1.1896,1.1949,143.7,97.8,0.487
8.52,32024.4,35047.9,1.1847,1.1858,143.7,97.8,0.487
8.54,32067.9,34993.1,1.1874,1.1826,143.7,97.8,0.487
8.56,31928.9,34879.1,1.1786,1.176,143.7,97.8,0.487
8.58,31867.0,34711.1,1.1747,1.1663,143.7,97.8,0.487
8.6,31905.2,34701.8,1.1771,1.1657,143.7,97.8,0.487
8.62,31911.9,34733.8,1.1775,1.1676,143.7,97.8,0.487
8.64,31773.4,34677.4,1.1688,1.1643,143.7,97.8,0.487
8.66,31785.1,34581.7,1.1695,1.1588,143.7,97.8,0.487
8.68,31799.0,34500.8,1.1704,1.1541,143.7,97.8,0.487
8.7,31777.2,34557.3,1.169,1.1573,143.7,97.8,0.487
8.72,31814.5,34551.5,1.1714,1.157,143.7,97.8,0.487
8.74,31845.7,34780.7,1.1733,1.1703,143.7,97.8,0.487
8.76,32044.5,35100.7,1.1859,1.1888,143.7,97.8,0.487
8.78,32200.0,35488.9,1.1958,1.2113,143.7,97.8,0.487
8.8,32311.9,35725.6,1.2029,1.225,143.7,97.8,0.487
8.82,32383.7,35758.8,1.2074,1.227,143.7,97.8,0.487
8.84,32270.8,35593.8,1.2003,1.2174,143.7,97.8,0.487
8.86,32186.1,35546.2,1.1949,1.2146,143.7,97.8,0.487
8.88,32171.0,35274.1,1.194,1.1989,143.7,97.8,0.487
8.9,32089.8,35106.3,1.1888,1.1892,143.7,97.8,0.487
8.92,32038.3,35146.7,1.1855,1.1915,143.7,97.8,0.487
8.94,31981.0,35004.0,1.1819,1.1832,143.7,97.8,0.487
8.96,32056.6,34977.4,1.1867,1.1817,143.7,97.8,0.487
8.98,31894.7,34823.9,1.1765,1.1728,143.7,97.8,0.487
9.0,31899.8,34665.2,1.1768,1.1636,143.7,97.8,0.487
9.02,31880.4,34702.5,1.1755,1.1658,143.7,97.8,0.487
9.04,31868.9,34651.3,1.1748,1.1628,143.7,97.8,0.487
9.06,31811.1,34623.6,1.1712,1.1612,143.7,97.8,0.487
9.08,31836.6,34542.9,1.1728,1.1565,143.7,97.8,0.487
9.1,31787.5,34513.8,1.1697,1.1548,143.7,97.8,0.487
9.12,31755.0,34555.9,1.1676,1.1573,143.7,97.8,0.487
9.14,31731.3,34544.1,1.1661,1.1566,143.7,97.8,0.487
9.16,31946.6,34796.1,1.1797,1.1712,143.7,97.8,0.487
9.18,32038.2,35072.7,1.1855,1.1872,143.7,97.8,0.487
9.2,32198.0,35433.7,1.1957,1.2081,143.7,97.8,0.487
9.22,32318.8,35791.0,1.2033,1.2288,143.7,97.8,0.487
9.24,32335.4,35681.1,1.2044,1.2225,143.7,97.8,0.487
9.26,32349.7,35625.2,1.2053,1.2192,143.7,97.8,0.487
9.28,32250.2,35426.3,1.199,1.2077,143.7,97.8,0.487
9.3,32222.9,35348.4,1.1973,1.2032,143.7,97.8,0.487
9.32,32052.0,35187.6,1.1864,1.1939,143.7,97.8,0.487
9.34,31999.3,35079.6,1.1831,1.1876,143.7,97.8,0.487
9.36,31946.0,34952.2,1.1797,1.1802,143.7,97.8,0.487
9.38,31909.6,34999.3,1.1774,1.183,143.7,97.8,0.487
9.4,31999.6,34840.5,1.1831,1.1738,143.7,97.8,0.487
9.42,31898.0,34761.0,1.1767,1.1691,143.7,97.8,0.487
9.44,31806.3,34691.4,1.1708,1.1651,143.7,97.8,0.487
9.46,31822.6,34645.3,1.1719,1.1624,143.7,97.8,0.487
9.48,31826.1,34543.1,1.1721,1.1565,143.7,97.8,0.487
9.5,31874.0,34678.7,1.1751,1.1644,143.7,97.8,0.487
9.52,31718.7,34501.4,1.1653,1.1541,143.7,97.8,0.487
9.54,31794.8,34423.0,1.1701,1.1496,143.7,97.8,0.487
9.56,31751.1,34518.9,1.1673,1.1551,143.7,97.8,0.487
9.58,31854.9,34695.9,1.1739,1.1654,143.7,97.8,0.487
9.6,32124.5,35146.7,1.191,1.1915,143.7,97.8,0.487
9.62,32231.5,35537.0,1.1978,1.2141,143.7,97.8,0.487
9.64,32267.8,35731.4,1.2001,1.2254,143.7,97.8,0.487
9.66,32267.5,35655.2,1.2001,1.221,143.7,97.8,0.487
9.68,32188.2,35741.1,1.195,1.2259,143.7,97.8,0.487
9.7,32155.6,35421.6,1.193,1.2074,143.7,97.8,0.487
9.72,32157.2,35235.8,1.1931,1.1967,143.7,97.8,0.487
9.74,32040.6,35087.3,1.1857,1.1881,143.7,97.8,0.487
9.76,32031.0,35041.0,1.1851,1.1854,143.7,97.8,0.487
9.78,32109.6,34977.5,1.1901,1.1817,143.7,97.8,0.487
9.8,31974.3,34922.5,1.1815,1.1785,143.7,97.8,0.487
9.82,31921.1,34917.8,1.1781,1.1782,143.7,97.8,0.487
9.84,31797.3,34757.1,1.1703,1.1689,143.7,97.8,0.487
9.86,31867.9,34767.5,1.1747,1.1695,143.7,97.8,0.487
9.88,31881.5,34670.8,1.1756,1.1639,143.7,97.8,0.487
9.9,31900.8,34629.0,1.1768,1.1615,143.7,97.8,0.487
9.92,31752.3,34604.1,1.1674,1.1601,143.7,97.8,0.487
9.94,31834.7,34457.7,1.1726,1.1516,143.7,97.8,0.487
9.96,31698.2,34500.3,1.164,1.154,143.7,97.8,0.487
9.98,31864.3,34515.2,1.1745,1.1549,143.7,97.8,0.487
10.0,31907.0,34930.1,1.1772,1.1789,143.7,97.8,0.487
10.02,32101.6,35152.1,1.1896,1.1918,143.7,97.8,0.487
10.04,32223.1,35620.5,1.1973,1.219,143.7,97.8,0.487
10.06,32297.9,35611.6,1.202,1.2184,143.7,97.8,0.487
10.08,32335.3,35698.5,1.2044,1.2235,143.7,97.8,0.487
10.1,32337.6,35539.1,1.2045,1.2142,143.7,97.8,0.487
10.12,32156.9,35337.6,1.1931,1.2026,143.7,97.8,0.487
10.14,32094.4,35277.3,1.1891,1.1991,143.7,97.8,0.487
10.16,32004.9,35172.7,1.1834,1.193,143.7,97.8,0.487
10.18,32017.4,35084.0,1.1842,1.1879,143.7,97.8,0.487
10.2,32009.9,35065.9,1.1838,1.1868,143.7,97.8,0.487
10.22,31968.8,34994.5,1.1811,1.1827,143.7,97.8,0.487
10.24,31914.0,34797.0,1.1777,1.1712,143.7,97.8,0.487
10.26,31929.0,34737.2,1.1786,1.1678,143.7,97.8,0.487
10.28,31883.9,34693.3,1.1758,1.1652,143.7,97.8,0.487
10.3,31830.6,34698.1,1.1724,1.1655,143.7,97.8,0.487
10.32,31775.2,34709.5,1.1689,1.1662,143.7,97.8,0.487
10.34,31859.8,34656.0,1.1742,1.1631,143.7,97.8,0.487
10.36,31771.2,34524.6,1.1686,1.1554,143.7,97.8,0.487
10.38,31806.8,34496.4,1.1709,1.1538,143.7,97.8,0.487
10.4,31823.8,34670.0,1.172,1.1639,143.7,97.8,0.487
10.42,31893.8,34936.7,1.1764,1.1793,143.7,97.8,0.487
10.44,32056.2,35274.2,1.1867,1.1989,143.7,97.8,0.487
10.46,32261.0,35517.8,1.1997,1.213,143.7,97.8,0.487
10.48,32361.7,35826.3,1.2061,1.2309,143.7,97.8,0.487
10.5,32210.5,35660.2,1.1965,1.2213,143.7,97.8,0.487
10.52,32231.1,35554.2,1.1978,1.2151,143.7,97.8,0.487
10.54,32131.6,35372.5,1.1915,1.2046,143.7,97.8,0.487
10.56,32146.0,35136.6,1.1924,1.1909,143.7,97.8,0.487
10.58,32018.7,35095.6,1.1843,1.1885,143.7,97.8,0.487
10.6,31920.4,35166.0,1.1781,1.1926,143.7,97.8,0.487
10.62,31969.4,35055.2,1.1812,1.1862,143.7,97.8,0.487
10.64,31978.6,34914.7,1.1818,1.1781,143.7,97.8,0.487
10.66,31918.3,34731.1,1.1779,1.1674,143.7,97.8,0.487
10.68,31801.8,34747.8,1.1706,1.1684,143.7,97.8,0.487
10.7,31829.0,34668.4,1.1723,1.1638,143.7,97.8,0.487
10.72,31844.3,34615.6,1.1733,1.1607,143.7,97.8,0.487
10.74,31805.9,34650.6,1.1708,1.1627,143.7,97.8,0.487
10.76,31826.5,34613.5,1.1721,1.1606,143.7,97.8,0.487
10.78,31705.0,34430.8,1.1644,1.15,143.7,97.8,0.487
10.8,31689.7,34438.6,1.1635,1.1505,143.7,97.8,0.487
10.82,31845.5,34633.8,1.1733,1.1618,143.7,97.8,0.487
10.84,31878.9,34947.7,1.1754,1.18,143.7,97.8,0.487
10.86,32183.1,35333.0,1.1947,1.2023,143.7,97.8,0.487
10.88,32335.0,35648.9,1.2044,1.2206,143.7,97.8,0.487
10.9,32322.3,35696.9,1.2036,1.2234,143.7,97.8,0.487
10.92,32335.4,35565.0,1.2044,1.2157,143.7,97.8,0.487
10.94,32226.1,35554.6,1.1975,1.2151,143.7,97.8,0.487
10.96,32075.2,35385.3,1.1879,1.2053,143.7,97.8,0.487
10.98,32141.7,35255.2,1.1921,1.1978,143.7,97.8,0.487
11.0,32021.1,35097.5,1.1845,1.1886,143.7,97.8,0.487
11.02,31997.4,35018.1,1.183,1.184,143.7,97.8,0.487
11.04,32021.9,34954.6,1.1845,1.1804,143.7,97.8,0.487
11.06,31942.9,34888.2,1.1795,1.1765,143.7,97.8,0.487
11.08,32025.2,34899.2,1.1847,1.1772,143.7,97.8,0.487
11.1,31887.8,34678.6,1.176,1.1644,143.7,97.8,0.487
11.12,31898.6,34734.3,1.1767,1.1676,143.7,97.8,0.487
11.14,31806.9,34632.1,1.1709,1.1617,143.7,97.8,0.487
11.16,31809.1,34623.1,1.171,1.1612,143.7,97.8,0.487
11.18,31716.7,34641.2,1.1652,1.1622,143.7,97.8,0.487
11.2,31772.5,34487.5,1.1687,1.1533,143.7,97.8,0.487
11.22,31750.3,34448.4,1.1673,1.151,143.7,97.8,0.487
11.24,31847.7,34617.3,1.1735,1.1608,143.7,97.8,0.487
11.26,31988.9,34962.2,1.1824,1.1808,143.7,97.8,0.487
11.28,32124.9,35419.9,1.191,1.2073,143.7,97.8,0.487
11.3,32265.5,35653.3,1.1999,1.2209,143.7,97.8,0.487
11.32,32376.2,35755.9,1.207,1.2268,143.7,97.8,0.487
11.34,32360.6,35741.5,1.206,1.226,143.7,97.8,0.487
11.36,32258.9,35498.7,1.1995,1.2119,143.7,97.8,0.487
11.38,32208.6,35313.6,1.1963,1.2012,143.7,97.8,0.487
11.4,32141.7,35154.9,1.1921,1.192,143.7,97.8,0.487
11.42,32055.9,35104.1,1.1867,1.189,143.7,97.8,0.487
11.44,32027.1,35082.1,1.1848,1.1878,143.7,97.8,0.487
11.46,32060.1,34971.7,1.1869,1.1814,143.7,97.8,0.487
11.48,32029.3,34822.0,1.185,1.1727,143.7,97.8,0.487
11.5,31863.4,34825.0,1.1745,1.1729,143.7,97.8,0.487
11.52,31807.3,34781.5,1.1709,1.1703,143.7,97.8,0.487
11.54,31775.2,34678.6,1.1689,1.1644,143.7,97.8,0.487
11.56,31917.2,34740.2,1.1779,1.1679,143.7,97.8,0.487
11.58,31836.8,34575.1,1.1728,1.1584,143.7,97.8,0.487
11.6,31768.3,34562.8,1.1684,1.1577,143.7,97.8,0.487
11.62,31798.2,34462.1,1.1703,1.1518,143.7,97.8,0.487
11.64,31778.6,34499.1,1.1691,1.154,143.7,97.8,0.487
11.66,31825.2,34733.1,1.172,1.1675,143.7,97.8,0.487
11.68,32079.6,35021.8,1.1882,1.1843,143.7,97.8,0.487
11.7,32115.9,35374.0,1.1905,1.2047,143.7,97.8,0.487
11.72,32243.6,35550.6,1.1986,1.2149,143.7,97.8,0.487
11.74,32311.4,35834.1,1.2029,1.2313,143.7,97.8,0.487
11.76,32248.7,35643.8,1.1989,1.2203,143.7,97.8,0.487
11.78,32158.1,35483.9,1.1931,1.211,143.7,97.8,0.487
11.8,32073.7,35285.9,1.1878,1.1996,143.7,97.8,0.487
11.82,32059.9,35066.6,1.1869,1.1869,143.7,97.8,0.487
11.84,32077.6,35118.2,1.188,1.1898,143.7,97.8,0.487
11.86,32013.7,35026.4,1.184,1.1845,143.7,97.8,0.487
11.88,31975.6,34936.9,1.1816,1.1793,143.7,97.8,0.487
11.9,31917.7,34958.4,1.1779,1.1806,143.7,97.8,0.487
11.92,31922.2,34736.3,1.1782,1.1677,143.7,97.8,0.487
11.94,31885.2,34708.7,1.1758,1.1661,143.7,97.8,0.487
11.96,31886.1,34640.2,1.1759,1.1621,143.7,97.8,0.487
11.98,31763.5,34624.9,1.1681,1.1613,143.7,97.8,0.487
12.0,31809.4,34750.6,1.171,1.1685,143.7,97.8,0.487
12.02,31772.8,34535.1,1.1687,1.1561,143.7,97.8,0.487
12.04,31696.9,34451.6,1.1639,1.1512,143.7,97.8,0.487
12.06,31814.4,34579.9,1.1714,1.1587,143.7,97.8,0.487
12.08,31867.1,34700.8,1.1747,1.1657,143.7,97.8,0.487
12.1,32105.5,35118.8,1.1898,1.1899,143.7,97.8,0.487
12.12,32185.9,35456.4,1.1949,1.2094,143.7,97.8,0.487
12.14,32305.0,35662.6,1.2025,1.2214,143.7,97.8,0.487
12.16,32376.0,35623.2,1.207,1.2191,143.7,97.8,0.487
12.18,32264.0,35688.8,1.1999,1.2229,143.7,97.8,0.487
12.2,32232.9,35393.2,1.1979,1.2058,143.7,97.8,0.487
12.22,32057.3,35285.2,1.1868,1.1995,143.7,97.8,0.487
12.24,32112.7,35189.9,1.1903,1.194,143.7,97.8,0.487
12.26,32058.2,35081.2,1.1868,1.1877,143.7,97.8,0.487
12.28,31952.0,35013.9,1.1801,1.1838,143.7,97.8,0.487
12.3,32009.8,34926.5,1.1837,1.1787,143.7,97.8,0.487
12.32,31881.1,34878.4,1.1756,1.1759,143.7,97.8,0.487
12.34,32009.1,34636.5,1.1837,1.1619,143.7,97.8,0.487
12.36,31832.0,34758.0,1.1725,1.169,143.7,97.8,0.487
12.38,31859.4,34722.1,1.1742,1.1669,143.7,97.8,0.487
12.4,31812.4,34655.2,1.1712,1.163,143.7,97.8,0.487
12.42,31845.9,34636.8,1.1734,1.1619,143.7,97.8,0.487
12.44,31798.2,34592.1,1.1703,1.1594,143.7,97.8,0.487
12.46,31725.6,34505.1,1.1657,1.1543,143.7,97.8,0.487
12.48,31710.0,34614.0,1.1647,1.1606,143.7,97.8,0.487
12.5,31820.9,34810.9,1.1718,1.172,143.7,97.8,0.487
12.52,32032.1,35104.9,1.1852,1.1891,143.7,97.8,0.487
12.54,32249.1,35423.5,1.1989,1.2075,143.7,97.8,0.487
12.56,32319.2,35755.9,1.2034,1.2268,143.7,97.8,0.487
12.58,32343.7,35738.2,1.2049,1.2258,143.7,97.8,0.487
12.6,32297.6,35599.3,1.202,1.2177,143.7,97.8,0.487
12.62,32223.4,35431.3,1.1973,1.208,143.7,97.8,0.487
12.64,32077.0,35244.6,1.188,1.1972,143.7,97.8,0.487
12.66,32138.2,35154.4,1.1919,1.1919,143.7,97.8,0.487
12.68,32009.9,35133.5,1.1837,1.1907,143.7,97.8,0.487
12.7,31932.6,35018.9,1.1788,1.1841,143.7,97.8,0.487
12.72,32006.9,34936.5,1.1836,1.1793,143.7,97.8,0.487
12.74,31873.3,34802.7,1.1751,1.1716,143.7,97.8,0.487
12.76,31872.0,34753.3,1.175,1.1687,143.7,97.8,0.487
12.78,31833.9,34654.4,1.1726,1.163,143.7,97.8,0.487
12.8,31829.1,34662.3,1.1723,1.1634,143.7,97.8,0.487
12.82,31859.4,34672.5,1.1742,1.164,143.7,97.8,0.487
12.84,31736.9,34669.1,1.1664,1.1638,143.7,97.8,0.487
12.86,31776.3,34490.4,1.1689,1.1535,143.7,97.8,0.487
12.88,31738.1,34426.7,1.1665,1.1498,143.7,97.8,0.487
12.9,31823.6,34471.1,1.1719,1.1524,143.7,97.8,0.487
12.92,31926.8,34795.8,1.1785,1.1712,143.7,97.8,0.487
12.94,32049.9,35153.9,1.1863,1.1919,143.7,97.8,0.487
12.96,32245.0,35461.0,1.1987,1.2097,143.7,97.8,0.487
12.98,32297.9,35702.5,1.202,1.2237,143.7,97.8,0.487
13.0,32304.3,35795.5,1.2024,1.2291,143.7,97.8,0.487
13.02,32232.6,35470.1,1.1979,1.2102,143.7,97.8,0.487
13.04,32137.8,35380.2,1.1919,1.205,143.7,97.8,0.487
13.06,32188.9,35178.1,1.1951,1.1933,143.7,97.8,0.487
13.08,32055.3,35169.7,1.1866,1.1928,143.7,97.8,0.487
13.1,32078.9,35116.8,1.1881,1.1898,143.7,97.8,0.487
13.12,31949.2,35016.9,1.1799,1.184,143.7,97.8,0.487
13.14,31871.5,34933.8,1.175,1.1792,143.7,97.8,0.487
13.16,31940.8,34820.8,1.1794,1.1726,143.7,97.8,0.487
13.18,31820.8,34692.6,1.1718,1.1652,143.7,97.8,0.487
13.2,31728.4,34627.2,1.1659,1.1614,143.7,97.8,0.487
13.22,31847.7,34706.5,1.1735,1.166,143.7,97.8,0.487
13.24,31776.4,34654.1,1.1689,1.163,143.7,97.8,0.487
13.26,31776.1,34628.5,1.1689,1.1615,143.7,97.8,0.487
13.28,31749.5,34521.8,1.1672,1.1553,143.7,97.8,0.487
13.3,31760.9,34467.0,1.168,1.1521,143.7,97.8,0.487
13.32,31870.4,34561.4,1.1749,1.1576,143.7,97.8,0.487
13.34,31890.5,34815.4,1.1762,1.1723,143.7,97.8,0.487
13.36,32083.9,35233.6,1.1884,1.1965,143.7,97.8,0.487
13.38,32315.4,35528.8,1.2031,1.2136,143.7,97.8,0.487
13.4,32382.1,35755.3,1.2073,1.2268,143.7,97.8,0.487
13.42,32335.2,35756.2,1.2044,1.2268,143.7,97.8,0.487
13.44,32230.9,35647.2,1.1978,1.2205,143.7,97.8,0.487
13.46,32203.7,35419.6,1.196,1.2073,143.7,97.8,0.487
13.48,32106.2,35283.6,1.1899,1.1994,143.7,97.8,0.487
13.5,32051.3,35078.1,1.1864,1.1875,143.7,97.8,0.487
13.52,32025.8,34966.8,1.1848,1.1811,143.7,97.8,0.487
13.54,31907.0,35082.2,1.1772,1.1878,143.7,97.8,0.487
13.56,32040.5,34891.4,1.1857,1.1767,143.7,97.8,0.487
13.58,31916.8,34809.6,1.1779,1.172,143.7,97.8,0.487
13.6,31899.9,34756.7,1.1768,1.1689,143.7,97.8,0.487
13.62,31802.3,34631.1,1.1706,1.1616,143.7,97.8,0.487
13.64,31831.9,34631.4,1.1725,1.1616,143.7,97.8,0.487
13.66,31915.3,34682.7,1.1778,1.1646,143.7,97.8,0.487
13.68,31797.2,34592.9,1.1703,1.1594,143.7,97.8,0.487
13.7,31688.3,34428.7,1.1634,1.1499,143.7,97.8,0.487
13.72,31714.5,34462.0,1.165,1.1518,143.7,97.8,0.487
13.74,31846.5,34571.7,1.1734,1.1582,143.7,97.8,0.487
13.76,31910.4,34805.2,1.1774,1.1717,143.7,97.8,0.487
13.78,32085.6,35166.9,1.1885,1.1927,143.7,97.8,0.487
13.8,32152.6,35574.9,1.1928,1.2163,143.7,97.8,0.487
13.82,32354.0,35723.5,1.2056,1.2249,143.7,97.8,0.487
13.84,32390.2,35736.1,1.2079,1.2256,143.7,97.8,0.487
13.86,32168.2,35499.1,1.1938,1.2119,143.7,97.8,0.487
13.88,32074.6,35352.9,1.1879,1.2034,143.7,97.8,0.487
13.9,32061.3,35201.3,1.187,1.1947,143.7,97.8,0.487
13.92,32039.6,35057.6,1.1856,1.1863,143.7,97.8,0.487
13.94,32101.0,35091.5,1.1895,1.1883,143.7,97.8,0.487
13.96,32029.7,34928.7,1.185,1.1789,143.7,97.8,0.487
13.98,31885.0,34829.5,1.1758,1.1731,143.7,97.8,0.487
14.0,31882.7,34833.6,1.1757,1.1734,143.7,97.8,0.487
14.02,31895.1,34673.0,1.1765,1.1641,143.7,97.8,0.487
14.04,31826.5,34622.9,1.1721,1.1611,143.7,97.8,0.487
14.06,31830.1,34607.9,1.1724,1.1603,143.7,97.8,0.487
14.08,31888.6,34674.5,1.1761,1.1641,143.7,97.8,0.487
14.1,31711.3,34610.2,1.1648,1.1604,143.7,97.8,0.487
14.12,31813.7,34457.7,1.1713,1.1516,143.7,97.8,0.487
14.14,31728.2,34536.0,1.1659,1.1561,143.7,97.8,0.487
14.16,31868.5,34688.3,1.1748,1.1649,143.7,97.8,0.487
14.18,32009.7,34860.4,1.1837,1.1749,143.7,97.8,0.487
14.2,32119.0,35362.6,1.1907,1.204,143.7,97.8,0.487
14.22,32276.4,35690.0,1.2006,1.223,143.7,97.8,0.487
14.24,32295.7,35825.5,1.2019,1.2308,143.7,97.8,0.487
14.26,32305.0,35726.1,1.2025,1.2251,143.7,97.8,0.487
14.28,32170.4,35387.0,1.1939,1.2054,143.7,97.8,0.487
14.3,32109.7,35292.3,1.1901,1.1999,143.7,97.8,0.487
14.32,32048.0,35185.6,1.1862,1.1938,143.7,97.8,0.487
14.34,32051.2,35112.1,1.1864,1.1895,143.7,97.8,0.487
14.36,31994.6,35038.1,1.1828,1.1852,143.7,97.8,0.487
14.38,32004.3,35019.7,1.1834,1.1841,143.7,97.8,0.487
14.4,31950.5,34918.2,1.18,1.1783,143.7,97.8,0.487
14.42,31843.9,34811.7,1.1732,1.1721,143.7,97.8,0.487
14.44,31913.7,34696.6,1.1777,1.1654,143.7,97.8,0.487
14.46,31842.1,34670.4,1.1731,1.1639,143.7,97.8,0.487
14.48,31911.0,34575.4,1.1775,1.1584,143.7,97.8,0.487
14.5,31755.4,34640.1,1.1676,1.1621,143.7,97.8,0.487
14.52,31826.1,34508.0,1.1721,1.1545,143.7,97.8,0.487
14.54,31773.1,34550.0,1.1687,1.1569,143.7,97.8,0.487
14.56,31732.6,34477.1,1.1662,1.1527,143.7,97.8,0.487
14.58,31839.6,34709.3,1.173,1.1662,143.7,97.8,0.487
14.6,31968.9,35038.0,1.1812,1.1852,143.7,97.8,0.487
14.62,32088.6,35320.8,1.1887,1.2016,143.7,97.8,0.487
14.64,32246.3,35608.3,1.1987,1.2182,143.7,97.8,0.487
14.66,32350.3,35763.5,1.2053,1.2272,143.7,97.8,0.487
14.68,32338.2,35575.9,1.2046,1.2164,143.7,97.8,0.487
14.7,32115.9,35458.7,1.1905,1.2096,143.7,97.8,0.487
14.72,32129.2,35320.4,1.1913,1.2016,143.7,97.8,0.487
14.74,32096.0,35164.5,1.1892,1.1925,143.7,97.8,0.487
14.76,32045.7,35067.3,1.186,1.1869,143.7,97.8,0.487
14.78,31982.6,35089.0,1.182,1.1882,143.7,97.8,0.487
14.8,32112.7,35049.7,1.1903,1.1859,143.7,97.8,0.487
14.82,31987.7,34850.0,1.1823,1.1743,143.7,97.8,0.487
14.84,31944.3,34743.4,1.1796,1.1681,143.7,97.8,0.487
14.86,31935.4,34759.9,1.179,1.1691,143.7,97.8,0.487
14.88,31812.6,34669.7,1.1712,1.1639,143.7,97.8,0.487
14.9,31771.5,34645.8,1.1686,1.1625,143.7,97.8,0.487
14.92,31821.9,34520.6,1.1718,1.1552,143.7,97.8,0.487
14.94,31760.0,34439.7,1.1679,1.1505,143.7,97.8,0.487
14.96,31819.2,34460.9,1.1717,1.1518,143.7,97.8,0.487
14.98,31767.1,34468.8,1.1684,1.1522,143.7,97.8,0.487
15.0,31774.8,34734.2,1.1689,1.1676,143.7,97.8,0.487
15.02,32014.5,35069.4,1.184,1.187,143.7,97.8,0.487
15.04,32175.1,35370.9,1.1942,1.2045,143.7,97.8,0.487
15.06,32218.1,35650.9,1.1969,1.2207,143.7,97.8,0.487
15.08,32363.1,35761.8,1.2061,1.2271,143.7,97.8,0.487
15.1,32314.3,35792.9,1.203,1.2289,143.7,97.8,0.487
15.12,32242.6,35403.7,1.1985,1.2064,143.7,97.8,0.487
15.14,32083.4,35194.9,1.1884,1.1943,143.7,97.8,0.487
15.16,31998.0,35159.8,1.183,1.1923,143.7,97.8,0.487
15.18,31986.6,35034.7,1.1823,1.185,143.7,97.8,0.487
15.2,32001.4,34960.9,1.1832,1.1807,143.7,97.8,0.487
15.22,31971.4,35006.1,1.1813,1.1834,143.7,97.8,0.487
15.24,31960.3,34862.0,1.1806,1.175,143.7,97.8,0.487
15.26,31868.7,34806.8,1.1748,1.1718,143.7,97.8,0.487
15.28,31888.9,34623.9,1.1761,1.1612,143.7,97.8,0.487
15.3,31768.2,34654.4,1.1684,1.163,143.7,97.8,0.487
15.32,31867.6,34551.1,1.1747,1.157,143.7,97.8,0.487
15.34,31837.9,34576.8,1.1728,1.1585,143.7,97.8,0.487
15.36,31730.5,34497.0,1.166,1.1539,143.7,97.8,0.487
15.38,31765.5,34494.6,1.1683,1.1537,143.7,97.8,0.487
15.4,31742.2,34536.1,1.1668,1.1561,143.7,97.8,0.487
15.42,31790.9,34685.0,1.1699,1.1647,143.7,97.8,0.487
15.44,32040.3,35129.7,1.1857,1.1905,143.7,97.8,0.487
15.46,32143.6,35454.5,1.1922,1.2093,143.7,97.8,0.487
15.48,32356.4,35712.1,1.2057,1.2243,143.7,97.8,0.487
15.5,32391.2,35778.4,1.2079,1.2281,143.7,97.8,0.487
15.52,32337.5,35746.7,1.2045,1.2263,143.7,97.8,0.487
15.54,32189.9,35454.6,1.1952,1.2093,143.7,97.8,0.487
15.56,32119.8,35221.4,1.1907,1.1958,143.7,97.8,0.487
15.58,32147.8,35141.0,1.1925,1.1912,143.7,97.8,0.487
15.6,32071.7,35118.6,1.1877,1.1899,143.7,97.8,0.487
15.62,31991.2,35000.9,1.1826,1.183,143.7,97.8,0.487
15.64,31966.6,34966.7,1.181,1.1811,143.7,97.8,0.487
15.66,31996.4,34764.2,1.1829,1.1693,143.7,97.8,0.487
15.68,31929.3,34733.6,1.1786,1.1676,143.7,97.8,0.487
15.7,31904.7,34690.9,1.1771,1.1651,143.7,97.8,0.487
15.72,31833.8,34750.8,1.1726,1.1686,143.7,97.8,0.487
15.74,31771.4,34575.8,1.1686,1.1584,143.7,97.8,0.487
15.76,31804.5,34665.0,1.1707,1.1636,143.7,97.8,0.487
15.78,31805.9,34486.1,1.1708,1.1532,143.7,97.8,0.487
15.8,31788.5,34528.2,1.1697,1.1557,143.7,97.8,0.487
15.82,31815.2,34584.7,1.1714,1.1589,143.7,97.8,0.487
15.84,31952.7,34808.7,1.1801,1.1719,143.7,97.8,0.487
15.86,32005.9,35125.7,1.1835,1.1903,143.7,97.8,0.487
15.88,32256.6,35554.6,1.1994,1.2151,143.7,97.8,0.487
15.9,32323.6,35788.9,1.2036,1.2287,143.7,97.8,0.487
15.92,32425.5,35667.2,1.2101,1.2217,143.7,97.8,0.487
15.94,32287.8,35610.1,1.2014,1.2184,143.7,97.8,0.487
15.96,32223.9,35496.7,1.1973,1.2118,143.7,97.8,0.487
15.98,32184.8,35145.1,1.1948,1.1914,143.7,97.8,0.487
16.0,32049.8,35144.8,1.1863,1.1914,143.7,97.8,0.487
16.02,31977.4,35044.9,1.1817,1.1856,143.7,97.8,0.487
16.04,32011.0,35079.8,1.1838,1.1876,143.7,97.8,0.487
16.06,31937.4,34880.3,1.1792,1.1761,143.7,97.8,0.487
16.08,31941.7,34821.4,1.1794,1.1727,143.7,97.8,0.487
16.1,31805.4,34756.8,1.1708,1.1689,143.7,97.8,0.487
16.12,31892.6,34737.0,1.1763,1.1678,143.7,97.8,0.487
16.14,31887.6,34730.1,1.176,1.1674,143.7,97.8,0.487
16.16,31845.3,34603.2,1.1733,1.16,143.7,97.8,0.487
16.18,31860.0,34555.1,1.1742,1.1572,143.7,97.8,0.487
16.2,31949.7,34423.8,1.1799,1.1496,143.7,97.8,0.487
16.22,31746.2,34502.3,1.167,1.1542,143.7,97.8,0.487
16.24,31849.3,34544.7,1.1736,1.1566,143.7,97.8,0.487
16.26,31983.4,34807.5,1.1821,1.1718,143.7,97.8,0.487
16.28,32099.7,35230.8,1.1894,1.1964,143.7,97.8,0.487
16.3,32277.2,35544.1,1.2007,1.2145,143.7,97.8,0.487
16.32,32255.1,35760.8,1.1993,1.2271,143.7,97.8,0.487
16.34,32294.1,35776.5,1.2018,1.228,143.7,97.8,0.487
16.36,32276.9,35682.8,1.2007,1.2226,143.7,97.8,0.487
16.38,32119.2,35332.2,1.1907,1.2022,143.7,97.8,0.487
16.4,32116.1,35181.9,1.1905,1.1935,143.7,97.8,0.487
16.42,32037.2,35131.9,1.1855,1.1906,143.7,97.8,0.487
16.44,32040.7,35231.4,1.1857,1.1964,143.7,97.8,0.487
16.46,31965.5,35148.1,1.1809,1.1916,143.7,97.8,0.487
16.48,32058.5,34885.0,1.1868,1.1763,143.7,97.8,0.487
16.5,31876.1,34864.0,1.1753,1.1751,143.7,97.8,0.487
16.52,31791.2,34690.3,1.1699,1.165,143.7,97.8,0.487
16.54,31923.8,34655.6,1.1783,1.163,143.7,97.8,0.487
16.56,31897.3,34599.4,1.1766,1.1598,143.7,97.8,0.487
16.58,31902.6,34699.3,1.1769,1.1656,143.7,97.8,0.487
16.6,31922.6,34531.6,1.1782,1.1559,143.7,97.8,0.487
16.62,31831.2,34506.6,1.1724,1.1544,143.7,97.8,0.487
16.64,31747.4,34418.5,1.1671,1.1493,143.7,97.8,0.487
16.66,31781.5,34519.0,1.1693,1.1551,143.7,97.8,0.487
16.68,31888.3,34785.5,1.176,1.1706,143.7,97.8,0.487
16.7,32037.9,35220.5,1.1855,1.1958,143.7,97.8,0.487
16.72,32221.0,35581.9,1.1971,1.2167,143.7,97.8,0.487
16.74,32353.4,35730.2,1.2055,1.2253,143.7,97.8,0.487
16.76,32340.5,35763.8,1.2047,1.2273,143.7,97.8,0.487
16.78,32273.9,35559.8,1.2005,1.2154,143.7,97.8,0.487
16.8,32199.1,35412.4,1.1957,1.2069,143.7,97.8,0.487
16.82,32036.4,35165.4,1.1854,1.1926,143.7,97.8,0.487
16.84,32084.1,35096.7,1.1885,1.1886,143.7,97.8,0.487
16.86,32092.6,35032.0,1.189,1.1848,143.7,97.8,0.487
16.88,32052.7,35059.8,1.1865,1.1865,143.7,97.8,0.487
16.9,31863.8,34850.8,1.1745,1.1744,143.7,97.8,0.487
16.92,31932.0,34758.2,1.1788,1.169,143.7,97.8,0.487
16.94,31872.6,34695.7,1.175,1.1654,143.7,97.8,0.487
16.96,31878.7,34678.5,1.1754,1.1644,143.7,97.8,0.487
16.98,31870.9,34604.2,1.1749,1.1601,143.7,97.8,0.487
17.0,31939.7,34622.0,1.1793,1.1611,143.7,97.8,0.487
17.02,31860.6,34490.7,1.1743,1.1535,143.7,97.8,0.487
17.04,31747.6,34432.9,1.1671,1.1501,143.7,97.8,0.487
17.06,31754.4,34464.7,1.1676,1.152,143.7,97.8,0.487
17.08,31842.4,34616.1,1.1731,1.1608,143.7,97.8,0.487
17.1,31951.0,34935.1,1.18,1.1792,143.7,97.8,0.487
17.12,32150.9,35316.2,1.1927,1.2013,143.7,97.8,0.487
17.14,32263.2,35623.1,1.1998,1.2191,143.7,97.8,0.487
17.16,32297.8,35684.0,1.202,1.2226,143.7,97.8,0.487
17.18,32363.8,35752.1,1.2062,1.2266,143.7,97.8,0.487
17.2,32349.8,35544.9,1.2053,1.2146,143.7,97.8,0.487
17.22,32191.0,35349.7,1.1952,1.2033,143.7,97.8,0.487
17.24,32113.4,35150.0,1.1903,1.1917,143.7,97.8,0.487
17.26,32047.2,35153.0,1.1861,1.1919,143.7,97.8,0.487
17.28,32038.4,35135.2,1.1856,1.1908,143.7,97.8,0.487
17.3,32068.2,34987.7,1.1874,1.1823,143.7,97.8,0.487
17.32,31950.2,34849.8,1.18,1.1743,143.7,97.8,0.487
17.34,31883.6,34759.8,1.1757,1.1691,143.7,97.8,0.487
17.36,31863.8,34809.6,1.1745,1.172,143.7,97.8,0.487
17.38,31831.3,34692.3,1.1724,1.1652,143.7,97.8,0.487
17.4,31766.2,34640.9,1.1683,1.1622,143.7,97.8,0.487
17.42,31772.3,34643.2,1.1687,1.1623,143.7,97.8,0.487
17.44,31853.0,34531.4,1.1738,1.1558,143.7,97.8,0.487
17.46,31809.1,34441.0,1.171,1.1506,143.7,97.8,0.487
17.48,31748.3,34465.2,1.1672,1.152,143.7,97.8,0.487
17.5,31857.1,34605.5,1.1741,1.1601,143.7,97.8,0.487
17.52,32033.9,34955.3,1.1853,1.1804,143.7,97.8,0.487
17.54,32170.7,35285.4,1.1939,1.1995,143.7,97.8,0.487
17.56,32366.7,35565.5,1.2064,1.2158,143.7,97.8,0.487
17.58,32309.1,35813.1,1.2027,1.2301,143.7,97.8,0.487
17.6,32394.6,35674.5,1.2081,1.2221,143.7,97.8,0.487
17.62,32268.6,35473.1,1.2001,1.2104,143.7,97.8,0.487
17.64,32059.8,35353.0,1.1869,1.2035,143.7,97.8,0.487
17.66,32142.5,35126.8,1.1922,1.1903,143.7,97.8,0.487
17.68,32005.3,35124.6,1.1835,1.1902,143.7,97.8,0.487
17.7,32089.7,35100.5,1.1888,1.1888,143.7,97.8,0.487
17.72,32005.4,35036.0,1.1835,1.1851,143.7,97.8,0.487
17.74,31937.9,34858.6,1.1792,1.1748,143.7,97.8,0.487
17.76,31912.4,34752.3,1.1776,1.1686,143.7,97.8,0.487
17.78,31848.2,34685.7,1.1735,1.1648,143.7,97.8,0.487
17.8,31834.5,34614.2,1.1726,1.1606,143.7,97.8,0.487
17.82,31888.8,34640.3,1.1761,1.1622,143.7,97.8,0.487
17.84,31727.8,34616.3,1.1659,1.1608,143.7,97.8,0.487
17.86,31813.7,34493.9,1.1713,1.1537,143.7,97.8,0.487
17.88,31826.1,34422.4,1.1721,1.1495,143.7,97.8,0.487
17.9,31745.7,34509.7,1.167,1.1546,143.7,97.8,0.487
17.92,31882.9,34637.5,1.1757,1.162,143.7,97.8,0.487
17.94,32002.0,34992.1,1.1833,1.1825,143.7,97.8,0.487
17.96,32099.3,35384.7,1.1894,1.2053,143.7,97.8,0.487
17.98,32251.1,35648.9,1.199,1.2206,143.7,97.8,0.487
18.0,32332.1,35762.4,1.2042,1.2272,143.7,97.8,0.487
18.02,32295.1,35679.0,1.2018,1.2223,143.7,97.8,0.487
18.04,32215.9,35469.9,1.1968,1.2102,143.7,97.8,0.487
18.06,32073.6,35298.0,1.1878,1.2003,143.7,97.8,0.487
18.08,32151.0,35153.0,1.1927,1.1919,143.7,97.8,0.487
18.1,31998.8,34988.7,1.183,1.1823,143.7,97.8,0.487
18.12,32022.0,35141.0,1.1845,1.1912,143.7,97.8,0.487
18.14,31913.9,35049.7,1.1777,1.1859,143.7,97.8,0.487
18.16,32018.8,34786.5,1.1843,1.1706,143.7,97.8,0.487
18.18,31862.0,34822.9,1.1744,1.1727,143.7,97.8,0.487
18.2,31851.2,34734.4,1.1737,1.1676,143.7,97.8,0.487
18.22,31888.4,34727.3,1.1761,1.1672,143.7,97.8,0.487
18.24,31831.9,34649.4,1.1725,1.1627,143.7,97.8,0.487
18.26,31834.7,34555.0,1.1726,1.1572,143.7,97.8,0.487
18.28,31801.9,34566.1,1.1706,1.1579,143.7,97.8,0.487
18.3,31812.2,34357.1,1.1712,1.1457,143.7,97.8,0.487
18.32,31734.2,34494.3,1.1663,1.1537,143.7,97.8,0.487
18.34,31920.5,34712.8,1.1781,1.1664,143.7,97.8,0.487
18.36,31964.3,35048.9,1.1809,1.1858,143.7,97.8,0.487
18.38,32238.9,35383.0,1.1983,1.2052,143.7,97.8,0.487
18.4,32337.6,35622.1,1.2045,1.219,143.7,97.8,0.487
18.42,32370.2,35651.5,1.2066,1.2207,143.7,97.8,0.487
18.44,32268.0,35756.3,1.2001,1.2268,143.7,97.8,0.487
18.46,32210.9,35519.3,1.1965,1.2131,143.7,97.8,0.487
18.48,32110.6,35396.6,1.1901,1.206,143.7,97.8,0.487
18.5,32022.1,35146.4,1.1845,1.1915,143.7,97.8,0.487
18.52,32064.2,35123.5,1.1872,1.1902,143.7,97.8,0.487
18.54,31971.7,35047.5,1.1813,1.1858,143.7,97.8,0.487
18.56,31982.0,34953.0,1.182,1.1803,143.7,97.8,0.487
18.58,31956.9,34869.5,1.1804,1.1754,143.7,97.8,0.487
18.6,31897.7,34717.2,1.1766,1.1666,143.7,97.8,0.487
18.62,31867.4,34825.4,1.1747,1.1729,143.7,97.8,0.487
18.64,31889.0,34669.6,1.1761,1.1639,143.7,97.8,0.487
18.66,31877.2,34622.0,1.1753,1.1611,143.7,97.8,0.487
18.68,31760.8,34587.9,1.168,1.1591,143.7,97.8,0.487
18.7,31734.3,34485.5,1.1663,1.1532,143.7,97.8,0.487
18.72,31729.5,34453.0,1.166,1.1513,143.7,97.8,0.487
18.74,31797.3,34604.6,1.1703,1.1601,143.7,97.8,0.487
18.76,31943.4,34752.1,1.1795,1.1686,143.7,97.8,0.487
18.78,32178.7,35111.6,1.1944,1.1895,143.7,97.8,0.487
18.8,32217.4,35474.3,1.1969,1.2105,143.7,97.8,0.487
18.82,32258.0,35716.1,1.1995,1.2245,143.7,97.8,0.487
18.84,32390.0,35748.2,1.2078,1.2264,143.7,97.8,0.487
18.86,32281.0,35662.0,1.2009,1.2214,143.7,97.8,0.487
18.88,32256.8,35382.7,1.1994,1.2052,143.7,97.8,0.487
18.9,32112.7,35205.5,1.1903,1.1949,143.7,97.8,0.487
18.92,32027.5,35062.6,1.1849,1.1866,143.7,97.8,0.487
18.94,32081.4,35183.2,1.1883,1.1936,143.7,97.8,0.487
18.96,31966.8,35064.3,1.181,1.1867,143.7,97.8,0.487
18.98,31994.8,34960.5,1.1828,1.1807,143.7,97.8,0.487
19.0,31876.9,34780.3,1.1753,1.1703,143.7,97.8,0.487
19.02,32042.1,34687.7,1.1858,1.1649,143.7,97.8,0.487
19.04,31829.3,34702.4,1.1723,1.1658,143.7,97.8,0.487
19.06,31808.3,34604.0,1.171,1.16,143.7,97.8,0.487
19.08,31825.1,34710.6,1.172,1.1662,143.7,97.8,0.487
19.1,31874.7,34554.9,1.1752,1.1572,143.7,97.8,0.487
19.12,31813.8,34469.7,1.1713,1.1523,143.7,97.8,0.487
19.14,31712.3,34467.1,1.1649,1.1521,143.7,97.8,0.487
19.16,31776.6,34582.6,1.169,1.1588,143.7,97.8,0.487
19.18,31807.3,34697.2,1.1709,1.1655,143.7,97.8,0.487
19.2,32077.8,35157.4,1.1881,1.1921,143.7,97.8,0.487
19.22,32217.9,35482.6,1.1969,1.211,143.7,97.8,0.487
19.24,32277.8,35714.0,1.2007,1.2244,143.7,97.8,0.487
19.26,32389.7,35759.7,1.2078,1.227,143.7,97.8,0.487
19.28,32251.3,35609.9,1.199,1.2183,143.7,97.8,0.487
19.3,32153.0,35400.3,1.1928,1.2062,143.7,97.8,0.487
19.32,32065.8,35295.7,1.1873,1.2001,143.7,97.8,0.487
19.34,32082.3,35144.1,1.1883,1.1913,143.7,97.8,0.487
19.36,32053.7,35089.4,1.1865,1.1882,143.7,97.8,0.487
19.38,32049.3,35026.5,1.1862,1.1845,143.7,97.8,0.487
19.4,31979.5,34974.4,1.1818,1.1815,143.7,97.8,0.487
19.42,31861.3,34823.7,1.1743,1.1728,143.7,97.8,0.487
19.44,31970.8,34740.2,1.1813,1.1679,143.7,97.8,0.487
19.46,31855.1,34663.0,1.1739,1.1635,143.7,97.8,0.487
19.48,31929.6,34688.8,1.1787,1.165,143.7,97.8,0.487
19.5,31848.6,34671.0,1.1735,1.1639,143.7,97.8,0.487
19.52,31874.0,34589.5,1.1751,1.1592,143.7,97.8,0.487
19.54,31789.0,34439.1,1.1697,1.1505,143.7,97.8,0.487
19.56,31725.0,34462.0,1.1657,1.1518,143.7,97.8,0.487
19.58,31782.8,34516.7,1.1694,1.155,143.7,97.8,0.487
19.6,31890.1,34800.0,1.1762,1.1714,143.7,97.8,0.487
19.62,32049.6,35156.0,1.1863,1.192,143.7,97.8,0.487
19.64,32224.9,35468.1,1.1974,1.2101,143.7,97.8,0.487
19.66,32389.8,35719.3,1.2078,1.2247,143.7,97.8,0.487
19.68,32360.7,35803.4,1.206,1.2296,143.7,97.8,0.487
19.7,32263.6,35595.7,1.1998,1.2175,143.7,97.8,0.487
19.72,32140.5,35371.1,1.192,1.2045,143.7,97.8,0.487
19.74,32068.6,35258.9,1.1875,1.198,143.7,97.8,0.487
19.76,32001.2,35172.8,1.1832,1.193,143.7,97.8,0.487
19.78,32072.6,35079.8,1.1877,1.1876,143.7,97.8,0.487
19.8,31913.9,35006.3,1.1777,1.1834,143.7,97.8,0.487
19.82,31989.3,34988.7,1.1824,1.1823,143.7,97.8,0.487
19.84,31891.3,34816.0,1.1762,1.1723,143.7,97.8,0.487
19.86,31809.1,34694.8,1.171,1.1653,143.7,97.8,0.487
19.88,31965.6,34661.6,1.1809,1.1634,143.7,97.8,0.487
19.9,31850.9,34713.9,1.1737,1.1664,143.7,97.8,0.487
19.92,31838.2,34700.6,1.1729,1.1656,143.7,97.8,0.487
19.94,31772.1,34537.3,1.1687,1.1562,143.7,97.8,0.487
19.96,31852.7,34441.1,1.1738,1.1506,143.7,97.8,0.487
19.98,31782.9,34416.3,1.1694,1.1492,143.7,97.8,0.487
20.0,31773.2,34550.6,1.1687,1.157,143.7,97.8,0.487
20.02,31845.6,34853.4,1.1733,1.1745,143.7,97.8,0.487
20.04,32131.0,35184.1,1.1914,1.1937,143.7,97.8,0.487
20.06,32234.4,35686.0,1.198,1.2227,143.7,97.8,0.487
20.08,32339.6,35768.1,1.2046,1.2275,143.7,97.8,0.487
20.1,32315.7,35691.2,1.2031,1.223,143.7,97.8,0.487
20.12,32289.5,35650.2,1.2015,1.2207,143.7,97.8,0.487
20.14,32180.9,35319.6,1.1946,1.2015,143.7,97.8,0.487
20.16,32116.5,35124.3,1.1905,1.1902,143.7,97.8,0.487
20.18,32072.0,35101.8,1.1877,1.1889,143.7,97.8,0.487
20.2,31941.9,35085.1,1.1794,1.1879,143.7,97.8,0.487
20.22,32009.5,35006.9,1.1837,1.1834,143.7,97.8,0.487
20.24,31826.2,34926.7,1.1721,1.1788,143.7,97.8,0.487
20.26,31852.1,34767.0,1.1738,1.1695,143.7,97.8,0.487
20.28,31734.2,34767.4,1.1663,1.1695,143.7,97.8,0.487
20.3,31846.9,34799.6,1.1734,1.1714,143.7,97.8,0.487
20.32,31836.9,34696.8,1.1728,1.1654,143.7,97.8,0.487
20.34,31775.9,34582.0,1.1689,1.1588,143.7,97.8,0.487
20.36,31802.2,34503.5,1.1706,1.1542,143.7,97.8,0.487
20.38,31806.7,34351.3,1.1709,1.1454,143.7,97.8,0.487
20.4,31793.5,34406.4,1.17,1.1486,143.7,97.8,0.487
20.42,31798.6,34728.2,1.1704,1.1672,143.7,97.8,0.487
20.44,31937.7,34953.6,1.1792,1.1803,143.7,97.8,0.487
20.46,32164.2,35304.4,1.1935,1.2006,143.7,97.8,0.487
20.48,32256.7,35612.7,1.1994,1.2185,143.7,97.8,0.487
20.5,32316.3,35767.3,1.2032,1.2275,143.7,97.8,0.487
20.52,32357.2,35670.2,1.2058,1.2218,143.7,97.8,0.487
20.54,32232.0,35601.2,1.1978,1.2178,143.7,97.8,0.487
20.56,32146.7,35264.2,1.1924,1.1983,143.7,97.8,0.487
20.58,32093.8,35165.4,1.1891,1.1926,143.7,97.8,0.487
20.6,32027.5,35083.0,1.1849,1.1878,143.7,97.8,0.487
20.62,32093.1,34990.7,1.189,1.1825,143.7,97.8,0.487
20.64,31970.2,34965.2,1.1812,1.181,143.7,97.8,0.487
20.66,31991.3,34888.3,1.1826,1.1765,143.7,97.8,0.487
20.68,31902.1,34750.7,1.1769,1.1686,143.7,97.8,0.487
20.7,31902.4,34605.2,1.1769,1.1601,143.7,97.8,0.487
20.72,31836.9,34686.4,1.1728,1.1648,143.7,97.8,0.487
20.74,31834.5,34606.1,1.1726,1.1602,143.7,97.8,0.487
20.76,31834.8,34636.2,1.1727,1.1619,143.7,97.8,0.487
20.78,31821.9,34466.1,1.1718,1.1521,143.7,97.8,0.487
20.8,31788.0,34448.7,1.1697,1.1511,143.7,97.8,0.487
20.82,31757.6,34535.4,1.1678,1.1561,143.7,97.8,0.487
20.84,31812.3,34693.8,1.1712,1.1653,143.7,97.8,0.487
20.86,31995.3,35011.3,1.1828,1.1837,143.7,97.8,0.487
20.88,32124.9,35305.4,1.191,1.2007,143.7,97.8,0.487
20.9,32305.6,35594.5,1.2025,1.2174,143.7,97.8,0.487
20.92,32329.4,35793.7,1.204,1.229,143.7,97.8,0.487
20.94,32276.0,35693.7,1.2006,1.2232,143.7,97.8,0.487
20.96,32142.3,35588.6,1.1921,1.2171,143.7,97.8,0.487
20.98,32178.9,35348.9,1.1945,1.2032,143.7,97.8,0.487
21.0,32169.9,35173.9,1.1939,1.1931,143.7,97.8,0.487
21.02,31991.3,35066.5,1.1826,1.1869,143.7,97.8,0.487
21.04,32050.4,35106.0,1.1863,1.1891,143.7,97.8,0.487
21.06,32070.1,34947.1,1.1876,1.1799,143.7,97.8,0.487
21.08,31927.3,34907.2,1.1785,1.1776,143.7,97.8,0.487
21.1,31985.2,34739.1,1.1822,1.1679,143.7,97.8,0.487
21.12,31845.1,34745.4,1.1733,1.1682,143.7,97.8,0.487
21.14,31781.1,34688.6,1.1692,1.165,143.7,97.8,0.487
21.16,31883.2,34629.0,1.1757,1.1615,143.7,97.8,0.487
21.18,31908.6,34663.0,1.1773,1.1635,143.7,97.8,0.487
21.2,31805.9,34479.5,1.1708,1.1528,143.7,97.8,0.487
21.22,31771.6,34554.6,1.1686,1.1572,143.7,97.8,0.487
21.24,31775.2,34510.0,1.1689,1.1546,143.7,97.8,0.487
21.26,31841.2,34707.0,1.1731,1.166,143.7,97.8,0.487
21.28,32025.7,34991.4,1.1848,1.1825,143.7,97.8,0.487
21.3,32170.4,35357.4,1.1939,1.2037,143.7,97.8,0.487
21.32,32328.7,35683.4,1.204,1.2226,143.7,97.8,0.487
21.34,32430.2,35793.0,1.2104,1.2289,143.7,97.8,0.487
21.36,32278.2,35730.0,1.2008,1.2253,143.7,97.8,0.487
21.38,32198.0,35501.3,1.1957,1.212,143.7,97.8,0.487
21.4,32140.5,35347.9,1.192,1.2032,143.7,97.8,0.487
21.42,32050.2,35203.7,1.1863,1.1948,143.7,97.8,0.487
21.44,31965.0,35190.0,1.1809,1.194,143.7,97.8,0.487
21.46,31935.7,35085.8,1.179,1.188,143.7,97.8,0.487
21.48,31909.2,34949.7,1.1774,1.1801,143.7,97.8,0.487
21.5,31959.1,34872.7,1.1805,1.1756,143.7,97.8,0.487
21.52,31905.3,34864.2,1.1771,1.1751,143.7,97.8,0.487
21.54,31790.7,34626.3,1.1699,1.1613,143.7,97.8,0.487
21.56,31876.8,34776.7,1.1753,1.1701,143.7,97.8,0.487
21.58,31861.5,34745.1,1.1743,1.1682,143.7,97.8,0.487
21.6,31794.1,34567.2,1.1701,1.1579,143.7,97.8,0.487
21.62,31813.5,34541.2,1.1713,1.1564,143.7,97.8,0.487
21.64,31779.8,34396.4,1.1692,1.148,143.7,97.8,0.487
21.66,31725.7,34456.3,1.1657,1.1515,143.7,97.8,0.487
21.68,31911.2,34798.0,1.1775,1.1713,143.7,97.8,0.487
21.7,32055.5,35128.9,1.1866,1.1905,143.7,97.8,0.487
21.72,32156.6,35415.8,1.193,1.2071,143.7,97.8,0.487
21.74,32287.3,35682.5,1.2013,1.2225,143.7,97.8,0.487
21.76,32392.3,35742.5,1.208,1.226,143.7,97.8,0.487
21.78,32341.8,35581.0,1.2048,1.2167,143.7,97.8,0.487
21.8,32194.5,35425.2,1.1954,1.2076,143.7,97.8,0.487
21.82,32035.3,35166.2,1.1854,1.1926,143.7,97.8,0.487
21.84,31953.7,35116.6,1.1802,1.1898,143.7,97.8,0.487
21.86,32075.4,35165.0,1.1879,1.1926,143.7,97.8,0.487
21.88,31923.6,35032.8,1.1783,1.1849,143.7,97.8,0.487
21.9,31979.2,34976.9,1.1818,1.1817,143.7,97.8,0.487
21.92,31962.5,34852.0,1.1807,1.1744,143.7,97.8,0.487
21.94,31934.9,34721.9,1.179,1.1669,143.7,97.8,0.487
21.96,31839.4,34640.6,1.1729,1.1622,143.7,97.8,0.487
21.98,31930.2,34652.3,1.1787,1.1628,143.7,97.8,0.487
22.0,31831.1,34655.5,1.1724,1.163,143.7,97.8,0.487
22.02,31773.1,34572.0,1.1687,1.1582,143.7,97.8,0.487
22.04,31791.8,34425.8,1.1699,1.1497,143.7,97.8,0.487
22.06,31774.3,34472.9,1.1688,1.1525,143.7,97.8,0.487
22.08,31736.3,34541.1,1.1664,1.1564,143.7,97.8,0.487
22.1,31879.5,34645.0,1.1755,1.1624,143.7,97.8,0.487
22.12,31973.6,35122.8,1.1814,1.1901,143.7,97.8,0.487
22.14,32202.2,35453.6,1.1959,1.2093,143.7,97.8,0.487
22.16,32353.9,35778.4,1.2056,1.2281,143.7,97.8,0.487
22.18,32318.9,35751.7,1.2033,1.2266,143.7,97.8,0.487
22.2,32276.0,35704.9,1.2006,1.2238,143.7,97.8,0.487
22.22,32166.8,35440.7,1.1937,1.2085,143.7,97.8,0.487
22.24,32048.3,35237.4,1.1862,1.1968,143.7,97.8,0.487
22.26,32071.5,35224.2,1.1877,1.196,143.7,97.8,0.487
22.28,32068.4,35129.8,1.1875,1.1905,143.7,97.8,0.487
22.3,32131.6,34929.7,1.1915,1.1789,143.7,97.8,0.487
22.32,31979.0,34939.6,1.1818,1.1795,143.7,97.8,0.487
22.34,31903.2,34882.6,1.177,1.1762,143.7,97.8,0.487
22.36,31820.9,34750.5,1.1718,1.1685,143.7,97.8,0.487
22.38,31781.7,34701.4,1.1693,1.1657,143.7,97.8,0.487
22.4,31808.2,34640.5,1.171,1.1622,143.7,97.8,0.487
22.42,31856.4,34698.8,1.174,1.1655,143.7,97.8,0.487
22.44,31763.9,34530.7,1.1682,1.1558,143.7,97.8,0.487
22.46,31819.8,34579.0,1.1717,1.1586,143.7,97.8,0.487
22.48,31776.8,34400.2,1.169,1.1482,143.7,97.8,0.487
22.5,31761.5,34596.2,1.168,1.1596,143.7,97.8,0.487
22.52,31963.0,34898.4,1.1808,1.1771,143.7,97.8,0.487
22.54,32083.2,35174.5,1.1884,1.1931,143.7,97.8,0.487
22.56,32197.0,35532.3,1.1956,1.2138,143.7,97.8,0.487
22.58,32398.0,35793.4,1.2084,1.229,143.7,97.8,0.487
22.6,32223.8,35762.4,1.1973,1.2272,143.7,97.8,0.487
22.62,32257.1,35588.6,1.1994,1.2171,143.7,97.8,0.487
22.64,32187.1,35275.5,1.195,1.199,143.7,97.8,0.487
22.66,32075.1,35194.7,1.1879,1.1943,143.7,97.8,0.487
22.68,32073.4,35061.4,1.1878,1.1866,143.7,97.8,0.487
22.7,31957.1,35100.6,1.1804,1.1888,143.7,97.8,0.487
22.72,31886.7,35011.3,1.1759,1.1837,143.7,97.8,0.487
22.74,31962.7,34890.1,1.1808,1.1766,143.7,97.8,0.487
22.76,31911.1,34772.3,1.1775,1.1698,143.7,97.8,0.487
22.78,31909.4,34654.9,1.1774,1.163,143.7,97.8,0.487
22.8,31833.7,34679.0,1.1726,1.1644,143.7,97.8,0.487
22.82,31831.1,34594.9,1.1724,1.1595,143.7,97.8,0.487
22.84,31804.7,34609.1,1.1707,1.1603,143.7,97.8,0.487
22.86,31732.1,34550.4,1.1661,1.1569,143.7,97.8,0.487
22.88,31661.3,34464.8,1.1617,1.152,143.7,97.8,0.487
22.9,31715.5,34466.1,1.1651,1.1521,143.7,97.8,0.487
22.92,31781.3,34611.5,1.1693,1.1605,143.7,97.8,0.487
22.94,31971.0,34817.7,1.1813,1.1724,143.7,97.8,0.487
22.96,32080.4,35261.5,1.1882,1.1981,143.7,97.8,0.487
22.98,32252.7,35495.4,1.1991,1.2117,143.7,97.8,0.487
23.0,32317.9,35750.7,1.2033,1.2265,143.7,97.8,0.487
23.02,32313.0,35800.0,1.203,1.2294,143.7,97.8,0.487
23.04,32261.7,35605.4,1.1997,1.2181,143.7,97.8,0.487
23.06,32174.3,35384.9,1.1942,1.2053,143.7,97.8,0.487
23.08,32160.0,35248.3,1.1933,1.1974,143.7,97.8,0.487
23.1,32098.4,35099.7,1.1894,1.1888,143.7,97.8,0.487
23.12,32001.5,35146.8,1.1832,1.1915,143.7,97.8,0.487
23.14,32019.2,35089.7,1.1843,1.1882,143.7,97.8,0.487
23.16,31955.1,34988.4,1.1803,1.1823,143.7,97.8,0.487
23.18,31962.0,34794.7,1.1807,1.1711,143.7,97.8,0.487
23.2,31861.7,34712.5,1.1744,1.1663,143.7,97.8,0.487
23.22,31881.9,34760.3,1.1756,1.1691,143.7,97.8,0.487
23.24,31925.6,34659.8,1.1784,1.1633,143.7,97.8,0.487
23.26,31802.9,34653.3,1.1706,1.1629,143.7,97.8,0.487
23.28,31822.4,34618.4,1.1719,1.1609,143.7,97.8,0.487
23.3,31820.8,34452.8,1.1718,1.1513,143.7,97.8,0.487
23.32,31753.7,34526.1,1.1675,1.1555,143.7,97.8,0.487
23.34,31853.4,34604.8,1.1738,1.1601,143.7,97.8,0.487
23.36,31936.9,34893.7,1.1791,1.1768,143.7,97.8,0.487
23.38,32167.9,35183.5,1.1938,1.1936,143.7,97.8,0.487
23.4,32191.4,35661.1,1.1953,1.2213,143.7,97.8,0.487
23.42,32359.0,35781.0,1.2059,1.2283,143.7,97.8,0.487
23.44,32265.3,35819.9,1.1999,1.2305,143.7,97.8,0.487
23.46,32124.8,35645.8,1.191,1.2204,143.7,97.8,0.487
23.48,32151.3,35374.3,1.1927,1.2047,143.7,97.8,0.487
23.5,31971.3,35220.8,1.1813,1.1958,143.7,97.8,0.487
23.52,32130.4,35033.8,1.1914,1.185,143.7,97.8,0.487
23.54,32097.8,35115.1,1.1893,1.1897,143.7,97.8,0.487
23.56,31996.6,35065.8,1.1829,1.1868,143.7,97.8,0.487
23.58,31973.7,34865.1,1.1815,1.1752,143.7,97.8,0.487
23.6,31930.0,34694.7,1.1787,1.1653,143.7,97.8,0.487
23.62,31980.7,34663.7,1.1819,1.1635,143.7,97.8,0.487
23.64,31854.7,34678.1,1.1739,1.1643,143.7,97.8,0.487
23.66,31824.7,34671.4,1.172,1.164,143.7,97.8,0.487
23.68,31797.6,34588.2,1.1703,1.1591,143.7,97.8,0.487
23.7,31741.0,34491.2,1.1667,1.1535,143.7,97.8,0.487
23.72,31683.3,34409.4,1.163,1.1488,143.7,97.8,0.487
23.74,31790.2,34437.0,1.1698,1.1504,143.7,97.8,0.487
23.76,31871.9,34643.6,1.175,1.1623,143.7,97.8,0.487
23.78,31952.2,34817.4,1.1801,1.1724,143.7,97.8,0.487
23.8,32155.0,35318.7,1.1929,1.2015,143.7,97.8,0.487
23.82,32251.3,35623.5,1.1991,1.2191,143.7,97.8,0.487
23.84,32350.4,35707.8,1.2053,1.224,143.7,97.8,0.487
23.86,32309.6,35674.9,1.2027,1.2221,143.7,97.8,0.487
23.88,32198.7,35548.9,1.1957,1.2148,143.7,97.8,0.487
23.9,32060.6,35278.3,1.187,1.1991,143.7,97.8,0.487
23.92,31979.3,35187.7,1.1818,1.1939,143.7,97.8,0.487
23.94,32094.0,35163.2,1.1891,1.1925,143.7,97.8,0.487
23.96,31998.2,35085.5,1.183,1.1879,143.7,97.8,0.487
23.98,31974.5,35004.3,1.1815,1.1832,143.7,97.8,0.487
24.0,31948.0,34927.1,1.1798,1.1788,143.7,97.8,0.487
24.02,31930.5,34900.5,1.1787,1.1772,143.7,97.8,0.487
24.04,31941.1,34600.2,1.1794,1.1598,143.7,97.8,0.487
24.06,31823.3,34635.6,1.1719,1.1619,143.7,97.8,0.487
24.08,31791.0,34635.6,1.1699,1.1619,143.7,97.8,0.487
24.1,31871.3,34595.6,1.175,1.1596,143.7,97.8,0.487
24.12,31737.8,34485.2,1.1665,1.1532,143.7,97.8,0.487
24.14,31818.4,34477.7,1.1716,1.1527,143.7,97.8,0.487
24.16,31778.9,34490.9,1.1691,1.1535,143.7,97.8,0.487
24.18,31832.6,34650.5,1.1725,1.1627,143.7,97.8,0.487
24.2,32014.7,35038.3,1.1841,1.1852,143.7,97.8,0.487
24.22,32163.5,35332.9,1.1935,1.2023,143.7,97.8,0.487
24.24,32275.3,35650.3,1.2006,1.2207,143.7,97.8,0.487
24.26,32321.6,35835.6,1.2035,1.2314,143.7,97.8,0.487
24.28,32370.7,35722.2,1.2066,1.2248,143.7,97.8,0.487
24.3,32225.0,35505.5,1.1974,1.2123,143.7,97.8,0.487
24.32,32103.7,35260.7,1.1897,1.1981,143.7,97.8,0.487
24.34,32137.4,35175.3,1.1918,1.1932,143.7,97.8,0.487
24.36,32120.6,35104.5,1.1908,1.1891,143.7,97.8,0.487
24.38,31912.5,35014.1,1.1776,1.1838,143.7,97.8,0.487
24.4,32053.4,34946.1,1.1865,1.1799,143.7,97.8,0.487
24.42,31933.6,34878.8,1.1789,1.176,143.7,97.8,0.487
24.44,31879.4,34698.7,1.1755,1.1655,143.7,97.8,0.487
24.46,31812.2,34776.3,1.1712,1.17,143.7,97.8,0.487
24.48,31858.6,34605.6,1.1742,1.1601,143.7,97.8,0.487
24.5,31855.9,34597.8,1.174,1.1597,143.7,97.8,0.487
24.52,31789.3,34601.4,1.1698,1.1599,143.7,97.8,0.487
24.54,31845.3,34548.2,1.1733,1.1568,143.7,97.8,0.487
24.56,31876.8,34596.0,1.1753,1.1596,143.7,97.8,0.487
24.58,31766.4,34537.6,1.1683,1.1562,143.7,97.8,0.487
24.6,31811.8,34763.3,1.1712,1.1693,143.7,97.8,0.487
24.62,32000.8,35055.9,1.1832,1.1862,143.7,97.8,0.487
24.64,32118.0,35500.6,1.1906,1.212,143.7,97.8,0.487
24.66,32195.1,35668.0,1.1955,1.2217,143.7,97.8,0.487
24.68,32232.1,35785.4,1.1978,1.2285,143.7,97.8,0.487
24.7,32273.9,35596.6,1.2005,1.2176,143.7,97.8,0.487
24.72,32232.0,35511.6,1.1978,1.2126,143.7,97.8,0.487
24.74,32077.7,35339.2,1.188,1.2027,143.7,97.8,0.487
24.76,31971.8,35185.8,1.1813,1.1938,143.7,97.8,0.487
24.78,32020.6,35078.6,1.1844,1.1876,143.7,97.8,0.487
24.8,32055.7,35062.0,1.1867,1.1866,143.7,97.8,0.487
24.82,31936.7,34863.1,1.1791,1.1751,143.7,97.8,0.487
24.84,31927.8,34904.4,1.1785,1.1775,143.7,97.8,0.487
24.86,31907.9,34751.9,1.1773,1.1686,143.7,97.8,0.487
24.88,31877.6,34732.5,1.1754,1.1675,143.7,97.8,0.487
24.9,31897.5,34616.6,1.1766,1.1608,143.7,97.8,0.487
24.92,31807.0,34650.4,1.1709,1.1627,143.7,97.8,0.487
24.94,31787.5,34599.4,1.1697,1.1598,143.7,97.8,0.487
24.96,31756.1,34511.4,1.1677,1.1547,143.7,97.8,0.487
24.98,31852.4,34495.0,1.1738,1.1537,143.7,97.8,0.487
25.0,31778.3,34434.0,1.1691,1.1502,143.7,97.8,0.487
25.02,31873.8,34768.5,1.1751,1.1696,143.7,97.8,0.487
25.04,32022.8,35110.7,1.1846,1.1894,143.7,97.8,0.487
25.06,32237.8,35385.7,1.1982,1.2053,143.7,97.8,0.487
25.08,32266.4,35733.6,1.2,1.2255,143.7,97.8,0.487
25.1,32403.2,35801.6,1.2087,1.2294,143.7,97.8,0.487
25.12,32286.2,35630.2,1.2013,1.2195,143.7,97.8,0.487
25.14,32181.5,35478.1,1.1946,1.2107,143.7,97.8,0.487
25.16,32111.9,35240.0,1.1902,1.1969,143.7,97.8,0.487
25.18,32041.5,35120.4,1.1858,1.19,143.7,97.8,0.487
25.2,32017.5,35041.6,1.1842,1.1854,143.7,97.8,0.487
25.22,31999.4,35005.7,1.1831,1.1833,143.7,97.8,0.487
25.24,31908.7,34979.1,1.1773,1.1818,143.7,97.8,0.487
25.26,31859.8,34860.9,1.1742,1.1749,143.7,97.8,0.487
25.28,31865.7,34685.9,1.1746,1.1648,143.7,97.8,0.487
25.3,31850.9,34664.1,1.1737,1.1635,143.7,97.8,0.487
25.32,31841.2,34645.7,1.1731,1.1625,143.7,97.8,0.487
25.34,31877.5,34546.7,1.1754,1.1567,143.7,97.8,0.487
25.36,31822.0,34607.3,1.1718,1.1602,143.7,97.8,0.487
25.38,31797.3,34519.8,1.1703,1.1552,143.7,97.8,0.487
25.4,31739.5,34446.5,1.1666,1.1509,143.7,97.8,0.487
25.42,31874.6,34527.3,1.1752,1.1556,143.7,97.8,0.487
25.44,31985.3,34765.6,1.1822,1.1694,143.7,97.8,0.487
25.46,31991.7,35163.1,1.1826,1.1924,143.7,97.8,0.487
25.48,32188.7,35501.8,1.1951,1.2121,143.7,97.8,0.487
25.5,32345.0,35726.2,1.205,1.2251,143.7,97.8,0.487
25.52,32347.6,35680.5,1.2052,1.2224,143.7,97.8,0.487
25.54,32221.0,35635.0,1.1971,1.2198,143.7,97.8,0.487
25.56,32097.9,35437.0,1.1893,1.2083,143.7,97.8,0.487
25.58,32106.4,35364.7,1.1899,1.2041,143.7,97.8,0.487
25.6,32069.3,35146.8,1.1875,1.1915,143.7,97.8,0.487
25.62,32003.4,35093.8,1.1833,1.1884,143.7,97.8,0.487
25.64,32029.0,35030.5,1.185,1.1848,143.7,97.8,0.487
25.66,32004.7,34949.0,1.1834,1.18,143.7,97.8,0.487
25.68,31891.9,34877.8,1.1763,1.1759,143.7,97.8,0.487
25.7,31912.3,34821.9,1.1776,1.1727,143.7,97.8,0.487
25.72,31783.5,34625.2,1.1694,1.1613,143.7,97.8,0.487
25.74,31811.7,34561.5,1.1712,1.1576,143.7,97.8,0.487
25.76,31807.5,34652.3,1.1709,1.1629,143.7,97.8,0.487
25.78,31801.1,34614.6,1.1705,1.1607,143.7,97.8,0.487
25.8,31828.8,34419.9,1.1723,1.1494,143.7,97.8,0.487
25.82,31830.2,34506.5,1.1724,1.1544,143.7,97.8,0.487
25.84,31756.9,34615.3,1.1677,1.1607,143.7,97.8,0.487
25.86,31870.5,34808.3,1.1749,1.1719,143.7,97.8,0.487
25.88,31991.9,35184.0,1.1826,1.1937,143.7,97.8,0.487
25.9,32317.7,35499.5,1.2033,1.2119,143.7,97.8,0.487
25.92,32351.5,35650.7,1.2054,1.2207,143.7,97.8,0.487
25.94,32337.6,35830.6,1.2045,1.2311,143.7,97.8,0.487
25.96,32180.3,35540.8,1.1945,1.2143,143.7,97.8,0.487
25.98,32190.6,35384.8,1.1952,1.2053,143.7,97.8,0.487
26.0,32103.4,35310.6,1.1897,1.201,143.7,97.8,0.487
26.02,32004.8,35116.0,1.1834,1.1897,143.7,97.8,0.487
26.04,31942.7,35011.7,1.1795,1.1837,143.7,97.8,0.487
26.06,31983.6,34993.5,1.1821,1.1826,143.7,97.8,0.487
26.08,31988.5,34900.7,1.1824,1.1772,143.7,97.8,0.487
26.1,31986.8,34693.5,1.1823,1.1652,143.7,97.8,0.487
26.12,31899.3,34764.3,1.1767,1.1693,143.7,97.8,0.487
26.14,31803.3,34668.5,1.1707,1.1638,143.7,97.8,0.487
26.16,31843.6,34708.1,1.1732,1.1661,143.7,97.8,0.487
26.18,31892.8,34659.0,1.1763,1.1632,143.7,97.8,0.487
26.2,31840.0,34640.1,1.173,1.1621,143.7,97.8,0.487
26.22,31755.1,34499.8,1.1676,1.154,143.7,97.8,0.487
26.24,31795.5,34400.6,1.1702,1.1483,143.7,97.8,0.487
26.26,31939.8,34574.6,1.1793,1.1583,143.7,97.8,0.487
26.28,31963.3,34788.8,1.1808,1.1708,143.7,97.8,0.487
26.3,32099.3,35217.1,1.1894,1.1956,143.7,97.8,0.487
26.32,32282.2,35631.3,1.201,1.2196,143.7,97.8,0.487
26.34,32318.3,35691.5,1.2033,1.2231,143.7,97.8,0.487
26.36,32347.4,35692.5,1.2051,1.2231,143.7,97.8,0.487
26.38,32196.2,35488.2,1.1956,1.2113,143.7,97.8,0.487
26.4,32118.1,35298.3,1.1906,1.2003,143.7,97.8,0.487
26.42,32110.3,35199.9,1.1901,1.1946,143.7,97.8,0.487
26.44,32038.5,35123.6,1.1856,1.1902,143.7,97.8,0.487
26.46,32036.1,35088.2,1.1854,1.1881,143.7,97.8,0.487
26.48,31980.6,35104.3,1.1819,1.189,143.7,97.8,0.487
26.5,31944.4,34846.3,1.1796,1.1741,143.7,97.8,0.487
26.52,31957.3,34823.1,1.1804,1.1727,143.7,97.8,0.487
26.54,31876.1,34749.4,1.1753,1.1685,143.7,97.8,0.487
26.56,31911.3,34611.8,1.1775,1.1605,143.7,97.8,0.487
26.58,31806.2,34604.7,1.1708,1.1601,143.7,97.8,0.487
26.6,31847.3,34548.0,1.1734,1.1568,143.7,97.8,0.487
26.62,31769.0,34582.9,1.1685,1.1588,143.7,97.8,0.487
26.64,31771.2,34444.2,1.1686,1.1508,143.7,97.8,0.487
26.66,31745.7,34558.0,1.167,1.1574,143.7,97.8,0.487
26.68,31751.9,34613.1,1.1674,1.1606,143.7,97.8,0.487
26.7,31908.1,34906.9,1.1773,1.1776,143.7,97.8,0.487
26.72,32117.4,35282.0,1.1906,1.1993,143.7,97.8,0.487
26.74,32296.7,35534.4,1.2019,1.214,143.7,97.8,0.487
26.76,32336.9,35808.8,1.2045,1.2299,143.7,97.8,0.487
26.78,32321.0,35741.8,1.2035,1.226,143.7,97.8,0.487
26.8,32163.0,35502.8,1.1935,1.2121,143.7,97.8,0.487
26.82,32177.9,35347.9,1.1944,1.2032,143.7,97.8,0.487
26.84,32188.5,35135.6,1.1951,1.1909,143.7,97.8,0.487
26.86,32086.8,35093.1,1.1886,1.1884,143.7,97.8,0.487
26.88,32036.8,35040.9,1.1855,1.1854,143.7,97.8,0.487
26.9,32022.4,34935.1,1.1845,1.1792,143.7,97.8,0.487
26.92,31935.5,34863.6,1.179,1.1751,143.7,97.8,0.487
26.94,31802.0,34762.2,1.1706,1.1692,143.7,97.8,0.487
26.96,31818.4,34627.4,1.1716,1.1614,143.7,97.8,0.487
26.98,31839.2,34692.3,1.1729,1.1652,143.7,97.8,0.487
27.0,31888.2,34649.5,1.176,1.1627,143.7,97.8,0.487
27.02,31835.6,34672.4,1.1727,1.164,143.7,97.8,0.487
27.04,31861.8,34580.0,1.1744,1.1587,143.7,97.8,0.487
27.06,31770.8,34466.6,1.1686,1.1521,143.7,97.8,0.487
27.08,31753.0,34440.4,1.1675,1.1506,143.7,97.8,0.487
27.1,31813.0,34559.3,1.1713,1.1575,143.7,97.8,0.487
27.12,31973.8,34909.6,1.1815,1.1778,143.7,97.8,0.487
27.14,32153.4,35292.0,1.1928,1.1999,143.7,97.8,0.487
27.16,32298.8,35647.5,1.2021,1.2205,143.7,97.8,0.487
27.18,32355.1,35742.3,1.2056,1.226,143.7,97.8,0.487
27.2,32354.4,35640.1,1.2056,1.2201,143.7,97.8,0.487
27.22,32193.3,35547.9,1.1954,1.2147,143.7,97.8,0.487
27.24,32092.9,35295.4,1.189,1.2001,143.7,97.8,0.487
27.26,32095.8,35231.7,1.1892,1.1964,143.7,97.8,0.487
27.28,32036.2,35046.4,1.1854,1.1857,143.7,97.8,0.487
27.3,32142.4,35122.8,1.1921,1.1901,143.7,97.8,0.487
27.32,32005.1,34947.3,1.1834,1.1799,143.7,97.8,0.487
27.34,32005.6,34884.4,1.1835,1.1763,143.7,97.8,0.487
27.36,31856.2,34791.8,1.174,1.1709,143.7,97.8,0.487
27.38,31844.3,34638.5,1.1733,1.1621,143.7,97.8,0.487
27.4,31743.8,34589.2,1.1669,1.1592,143.7,97.8,0.487
27.42,31962.6,34703.5,1.1808,1.1658,143.7,97.8,0.487
27.44,31824.2,34662.5,1.172,1.1634,143.7,97.8,0.487
27.46,31869.8,34500.3,1.1749,1.154,143.7,97.8,0.487
27.48,31690.2,34404.0,1.1635,1.1485,143.7,97.8,0.487
27.5,31774.7,34488.7,1.1688,1.1534,143.7,97.8,0.487
27.52,31896.2,34709.0,1.1765,1.1661,143.7,97.8,0.487
27.54,32052.9,35009.4,1.1865,1.1835,143.7,97.8,0.487
27.56,32163.6,35289.5,1.1935,1.1998,143.7,97.8,0.487
27.58,32270.4,35638.0,1.2003,1.22,143.7,97.8,0.487
27.6,32378.7,35747.0,1.2071,1.2263,143.7,97.8,0.487
27.62,32261.2,35593.1,1.1997,1.2174,143.7,97.8,0.487
27.64,32266.5,35482.7,1.2,1.211,143.7,97.8,0.487
27.66,32113.9,35316.8,1.1903,1.2014,143.7,97.8,0.487
27.68,32097.1,35115.0,1.1893,1.1897,143.7,97.8,0.487
27.7,31951.9,35018.1,1.1801,1.184,143.7,97.8,0.487
27.72,32043.8,35135.1,1.1859,1.1908,143.7,97.8,0.487
27.74,31974.0,35006.7,1.1815,1.1834,143.7,97.8,0.487
27.76,31958.1,34827.7,1.1805,1.173,143.7,97.8,0.487
27.78,31871.5,34791.4,1.175,1.1709,143.7,97.8,0.487
27.8,31908.1,34700.4,1.1773,1.1656,143.7,97.8,0.487
27.82,31904.8,34683.3,1.1771,1.1646,143.7,97.8,0.487
27.84,31905.4,34662.0,1.1771,1.1634,143.7,97.8,0.487
27.86,31774.4,34719.2,1.1688,1.1667,143.7,97.8,0.487
27.88,31808.4,34595.5,1.171,1.1596,143.7,97.8,0.487
27.9,31767.5,34389.4,1.1684,1.1476,143.7,97.8,0.487
27.92,31737.9,34511.8,1.1665,1.1547,143.7,97.8,0.487
27.94,31844.1,34718.8,1.1732,1.1667,143.7,97.8,0.487
27.96,32058.9,34956.2,1.1869,1.1805,143.7,97.8,0.487
27.98,32171.6,35400.8,1.194,1.2062,143.7,97.8,0.487
28.0,32362.7,35691.8,1.2061,1.2231,143.7,97.8,0.487
28.02,32267.2,35809.3,1.2001,1.2299,143.7,97.8,0.487
28.04,32341.7,35712.8,1.2048,1.2243,143.7,97.8,0.487
28.06,32238.6,35457.1,1.1982,1.2095,143.7,97.8,0.487
28.08,32081.4,35311.0,1.1883,1.201,143.7,97.8,0.487
28.1,32074.7,35142.1,1.1879,1.1912,143.7,97.8,0.487
28.12,32094.2,35112.3,1.1891,1.1895,143.7,97.8,0.487
28.14,32026.3,35086.2,1.1848,1.188,143.7,97.8,0.487
28.16,32046.1,34950.6,1.186,1.1801,143.7,97.8,0.487
28.18,31876.0,34865.8,1.1753,1.1752,143.7,97.8,0.487
28.2,31893.2,34711.9,1.1764,1.1663,143.7,97.8,0.487
28.22,31836.4,34687.5,1.1728,1.1649,143.7,97.8,0.487
28.24,31886.2,34585.1,1.1759,1.159,143.7,97.8,0.487
28.26,31883.6,34689.3,1.1757,1.165,143.7,97.8,0.487
28.28,31807.8,34609.5,1.1709,1.1604,143.7,97.8,0.487
28.3,31682.3,34550.0,1.163,1.1569,143.7,97.8,0.487
28.32,31725.0,34405.7,1.1657,1.1486,143.7,97.8,0.487
28.34,31854.4,34454.2,1.1739,1.1514,143.7,97.8,0.487
28.36,31846.0,34682.5,1.1734,1.1646,143.7,97.8,0.487
28.38,31998.6,35195.3,1.183,1.1943,143.7,97.8,0.487
28.4,32246.7,35536.0,1.1988,1.2141,143.7,97.8,0.487
28.42,32396.7,35673.6,1.2083,1.222,143.7,97.8,0.487
28.44,32173.1,35751.4,1.1941,1.2265,143.7,97.8,0.487
28.46,32237.4,35676.8,1.1982,1.2222,143.7,97.8,0.487
28.48,32243.7,35464.1,1.1986,1.2099,143.7,97.8,0.487
28.5,32091.1,35200.5,1.1889,1.1946,143.7,97.8,0.487
28.52,32145.9,35046.2,1.1924,1.1857,143.7,97.8,0.487
28.54,31989.2,35072.4,1.1824,1.1872,143.7,97.8,0.487
28.56,32052.6,35065.3,1.1865,1.1868,143.7,97.8,0.487
28.58,32006.0,35010.9,1.1835,1.1836,143.7,97.8,0.487
28.6,31984.3,34782.1,1.1821,1.1704,143.7,97.8,0.487
28.62,31941.6,34725.4,1.1794,1.1671,143.7,97.8,0.487
28.64,31895.5,34621.2,1.1765,1.1611,143.7,97.8,0.487
28.66,31812.9,34642.0,1.1713,1.1623,143.7,97.8,0.487
28.68,31787.7,34663.0,1.1697,1.1635,143.7,97.8,0.487
28.7,31798.8,34540.7,1.1704,1.1564,143.7,97.8,0.487
28.72,31777.2,34546.8,1.169,1.1567,143.7,97.8,0.487
28.74,31785.8,34412.4,1.1695,1.1489,143.7,97.8,0.487
28.76,31810.3,34552.1,1.1711,1.157,143.7,97.8,0.487
28.78,31876.2,34758.5,1.1753,1.169,143.7,97.8,0.487
28.8,32053.3,35179.1,1.1865,1.1934,143.7,97.8,0.487
28.82,32215.5,35447.1,1.1968,1.2089,143.7,97.8,0.487
28.84,32360.8,35775.6,1.206,1.2279,143.7,97.8,0.487
28.86,32384.0,35738.2,1.2075,1.2258,143.7,97.8,0.487
28.88,32261.0,35720.1,1.1997,1.2247,143.7,97.8,0.487
28.9,32203.1,35435.6,1.196,1.2082,143.7,97.8,0.487
28.92,32114.7,35224.2,1.1904,1.196,143.7,97.8,0.487
28.94,32086.7,35193.6,1.1886,1.1942,143.7,97.8,0.487
28.96,32061.9,35095.7,1.187,1.1885,143.7,97.8,0.487
28.98,32017.1,35108.2,1.1842,1.1893,143.7,97.8,0.487
29.0,31998.7,34887.3,1.183,1.1765,143.7,97.8,0.487
29.02,31931.4,34796.3,1.1788,1.1712,143.7,97.8,0.487
29.04,31750.8,34827.0,1.1673,1.173,143.7,97.8,0.487
29.06,31886.9,34644.6,1.176,1.1624,143.7,97.8,0.487
29.08,31816.0,34709.8,1.1715,1.1662,143.7,97.8,0.487
29.1,31740.4,34636.2,1.1667,1.1619,143.7,97.8,0.487
29.12,31707.8,34559.0,1.1646,1.1574,143.7,97.8,0.487
29.14,31800.6,34546.6,1.1705,1.1567,143.7,97.8,0.487
29.16,31822.6,34476.0,1.1719,1.1526,143.7,97.8,0.487
29.18,31799.9,34562.8,1.1704,1.1577,143.7,97.8,0.487
29.2,32038.3,34780.1,1.1855,1.1703,143.7,97.8,0.487
29.22,32024.0,35091.6,1.1846,1.1883,143.7,97.8,0.487
29.24,32377.3,35549.0,1.207,1.2148,143.7,97.8,0.487
29.26,32322.7,35787.5,1.2036,1.2286,143.7,97.8,0.487
29.28,32343.0,35755.4,1.2049,1.2268,143.7,97.8,0.487
29.3,32338.0,35507.4,1.2045,1.2124,143.7,97.8,0.487
29.32,32118.3,35437.3,1.1906,1.2083,143.7,97.8,0.487
29.34,32150.2,35275.7,1.1926,1.199,143.7,97.8,0.487
29.36,32082.5,35125.7,1.1884,1.1903,143.7,97.8,0.487
29.38,32068.2,35072.7,1.1874,1.1872,143.7,97.8,0.487
29.4,31982.4,35052.8,1.182,1.1861,143.7,97.8,0.487
29.42,31964.0,34859.2,1.1808,1.1748,143.7,97.8,0.487
29.44,31898.4,34893.6,1.1767,1.1768,143.7,97.8,0.487
29.46,31909.6,34717.2,1.1774,1.1666,143.7,97.8,0.487
29.48,31798.6,34685.5,1.1704,1.1648,143.7,97.8,0.487
29.5,31854.9,34691.4,1.1739,1.1651,143.7,97.8,0.487
29.52,31873.6,34594.8,1.1751,1.1595,143.7,97.8,0.487
29.54,31805.7,34585.2,1.1708,1.159,143.7,97.8,0.487
29.56,31844.4,34458.0,1.1733,1.1516,143.7,97.8,0.487
29.58,31769.6,34523.3,1.1685,1.1554,143.7,97.8,0.487
29.6,31873.9,34629.0,1.1751,1.1615,143.7,97.8,0.487
29.62,31881.5,34823.5,1.1756,1.1728,143.7,97.8,0.487
29.64,32143.0,35199.4,1.1922,1.1946,143.7,97.8,0.487
29.66,32284.0,35548.8,1.2011,1.2148,143.7,97.8,0.487
29.68,32375.6,35689.7,1.2069,1.223,143.7,97.8,0.487
29.7,32356.3,35867.0,1.2057,1.2332,143.7,97.8,0.487
29.72,32326.6,35521.8,1.2038,1.2132,143.7,97.8,0.487
29.74,32226.5,35389.9,1.1975,1.2056,143.7,97.8,0.487
29.76,32014.4,35163.9,1.184,1.1925,143.7,97.8,0.487
29.78,32028.4,34968.3,1.1849,1.1812,143.7,97.8,0.487
29.8,32107.1,35050.6,1.1899,1.1859,143.7,97.8,0.487
29.82,32042.3,35059.5,1.1858,1.1864,143.7,97.8,0.487
29.84,31851.6,34909.5,1.1737,1.1778,143.7,97.8,0.487
29.86,31900.1,34810.6,1.1768,1.172,143.7,97.8,0.487
29.88,31796.1,34715.7,1.1702,1.1665,143.7,97.8,0.487
29.9,31810.8,34693.4,1.1711,1.1652,143.7,97.8,0.487
29.92,31811.8,34695.2,1.1712,1.1653,143.7,97.8,0.487
29.94,31910.8,34593.9,1.1775,1.1595,143.7,97.8,0.487
29.96,31784.9,34557.3,1.1695,1.1573,143.7,97.8,0.487
29.98,31684.0,34486.6,1.1631,1.1533,143.7,97.8,0.487
30.0,31827.2,34363.7,1.1722,1.1461,143.7,97.8,0.487
30.02,31821.2,34624.4,1.1718,1.1612,143.7,97.8,0.487
30.04,31931.8,34846.0,1.1788,1.1741,143.7,97.8,0.487
30.06,32147.5,35291.5,1.1925,1.1999,143.7,97.8,0.487
30.08,32150.2,35616.4,1.1926,1.2187,143.7,97.8,0.487
30.1,32371.5,35658.3,1.2067,1.2211,143.7,97.8,0.487
30.12,32250.7,35737.5,1.199,1.2257,143.7,97.8,0.487
30.14,32184.2,35488.7,1.1948,1.2113,143.7,97.8,0.487
30.16,32081.2,35312.1,1.1883,1.2011,143.7,97.8,0.487
30.18,32119.8,35221.4,1.1907,1.1958,143.7,97.8,0.487
30.2,32070.5,35127.5,1.1876,1.1904,143.7,97.8,0.487
30.22,31983.8,35034.0,1.1821,1.185,143.7,97.8,0.487
30.24,31987.4,34951.6,1.1823,1.1802,143.7,97.8,0.487
30.26,32004.8,34806.7,1.1834,1.1718,143.7,97.8,0.487
30.28,31889.3,34831.3,1.1761,1.1732,143.7,97.8,0.487
30.3,31856.2,34670.8,1.174,1.1639,143.7,97.8,0.487
30.32,31844.3,34509.2,1.1733,1.1546,143.7,97.8,0.487
30.34,31858.4,34569.9,1.1741,1.1581,143.7,97.8,0.487
30.36,31820.9,34603.0,1.1718,1.16,143.7,97.8,0.487
30.38,31745.2,34481.6,1.167,1.153,143.7,97.8,0.487
30.4,31756.5,34421.2,1.1677,1.1495,143.7,97.8,0.487
30.42,31785.8,34450.1,1.1695,1.1511,143.7,97.8,0.487
30.44,31798.3,34647.1,1.1703,1.1625,143.7,97.8,0.487
30.46,31952.1,34953.0,1.1801,1.1803,143.7,97.8,0.487
30.48,32069.0,35325.6,1.1875,1.2019,143.7,97.8,0.487
30.5,32280.0,35606.3,1.2009,1.2181,143.7,97.8,0.487
30.52,32402.8,35792.2,1.2087,1.2289,143.7,97.8,0.487
30.54,32331.2,35715.8,1.2041,1.2245,143.7,97.8,0.487
30.56,32274.6,35464.0,1.2005,1.2099,143.7,97.8,0.487
30.58,32068.4,35399.8,1.1875,1.2062,143.7,97.8,0.487
30.6,32130.0,35251.8,1.1914,1.1976,143.7,97.8,0.487
30.62,32060.0,35119.2,1.1869,1.1899,143.7,97.8,0.487
30.64,32028.0,35078.5,1.1849,1.1875,143.7,97.8,0.487
30.66,31980.6,34988.3,1.1819,1.1823,143.7,97.8,0.487
30.68,31936.7,34927.8,1.1791,1.1788,143.7,97.8,0.487
30.7,31914.5,34707.2,1.1777,1.166,143.7,97.8,0.487
30.72,31861.7,34688.0,1.1744,1.1649,143.7,97.8,0.487
30.74,31885.1,34764.9,1.1758,1.1694,143.7,97.8,0.487
30.76,31957.8,34604.8,1.1805,1.1601,143.7,97.8,0.487
30.78,31764.3,34574.2,1.1682,1.1583,143.7,97.8,0.487
30.8,31805.0,34544.5,1.1708,1.1566,143.7,97.8,0.487
30.82,31737.8,34450.5,1.1665,1.1512,143.7,97.8,0.487
30.84,31750.4,34509.1,1.1673,1.1546,143.7,97.8,0.487
30.86,31863.2,34593.0,1.1745,1.1594,143.7,97.8,0.487
30.88,32064.6,35025.8,1.1872,1.1845,143.7,97.8,0.487
30.9,32166.2,35362.4,1.1937,1.204,143.7,97.8,0.487
30.92,32334.7,35588.2,1.2043,1.2171,143.7,97.8,0.487
30.94,32361.5,35776.1,1.206,1.228,143.7,97.8,0.487
30.96,32333.4,35739.7,1.2043,1.2259,143.7,97.8,0.487
30.98,32141.6,35584.7,1.1921,1.2169,143.7,97.8,0.487
31.0,32169.3,35274.0,1.1939,1.1989,143.7,97.8,0.487
31.02,32022.6,35155.6,1.1846,1.192,143.7,97.8,0.487
31.04,32025.0,35066.3,1.1847,1.1868,143.7,97.8,0.487
31.06,32024.8,35001.6,1.1847,1.1831,143.7,97.8,0.487
31.08,31956.8,34907.2,1.1804,1.1776,143.7,97.8,0.487
31.1,31842.1,34933.6,1.1731,1.1791,143.7,97.8,0.487
31.12,31813.9,34818.6,1.1713,1.1725,143.7,97.8,0.487
31.14,31776.1,34738.1,1.1689,1.1678,143.7,97.8,0.487
31.16,31805.2,34583.7,1.1708,1.1589,143.7,97.8,0.487
31.18,31906.4,34654.4,1.1772,1.163,143.7,97.8,0.487
31.2,31803.0,34498.2,1.1706,1.1539,143.7,97.8,0.487
31.22,31803.4,34494.8,1.1707,1.1537,143.7,97.8,0.487
31.24,31720.1,34418.4,1.1654,1.1493,143.7,97.8,0.487
31.26,31652.1,34482.7,1.1611,1.153,143.7,97.8,0.487
31.28,31821.9,34601.8,1.1718,1.1599,143.7,97.8,0.487
31.3,32007.6,35027.1,1.1836,1.1846,143.7,97.8,0.487
31.32,32212.4,35342.6,1.1966,1.2029,143.7,97.8,0.487
31.34,32292.8,35810.1,1.2017,1.2299,143.7,97.8,0.487
31.36,32305.2,35702.3,1.2025,1.2237,143.7,97.8,0.487
31.38,32380.1,35670.3,1.2072,1.2218,143.7,97.8,0.487
31.4,32209.3,35407.6,1.1964,1.2066,143.7,97.8,0.487
31.42,32192.2,35241.1,1.1953,1.197,143.7,97.8,0.487
31.44,31975.1,35160.8,1.1815,1.1923,143.7,97.8,0.487
31.46,31933.0,35060.8,1.1789,1.1865,143.7,97.8,0.487
31.48,32017.2,35060.5,1.1842,1.1865,143.7,97.8,0.487
31.5,32122.4,34993.9,1.1909,1.1826,143.7,97.8,0.487
31.52,31860.9,34790.8,1.1743,1.1709,143.7,97.8,0.487
31.54,31950.8,34804.8,1.18,1.1717,143.7,97.8,0.487
31.56,31916.8,34639.4,1.1779,1.1621,143.7,97.8,0.487
31.58,31870.9,34711.9,1.1749,1.1663,143.7,97.8,0.487
31.6,31831.7,34600.9,1.1725,1.1599,143.7,97.8,0.487
31.62,31867.6,34514.6,1.1747,1.1549,143.7,97.8,0.487
31.64,31756.7,34531.6,1.1677,1.1559,143.7,97.8,0.487
31.66,31814.9,34498.3,1.1714,1.1539,143.7,97.8,0.487
31.68,31816.5,34608.6,1.1715,1.1603,143.7,97.8,0.487
31.7,31829.3,34724.0,1.1723,1.167,143.7,97.8,0.487
31.72,32038.9,35034.2,1.1856,1.185,143.7,97.8,0.487
31.74,32176.1,35480.5,1.1943,1.2108,143.7,97.8,0.487
31.76,32274.1,35702.9,1.2005,1.2237,143.7,97.8,0.487
31.78,32347.7,35748.4,1.2052,1.2264,143.7,97.8,0.487
31.8,32352.1,35645.1,1.2054,1.2204,143.7,97.8,0.487
31.82,32191.4,35505.0,1.1953,1.2123,143.7,97.8,0.487
31.84,32153.3,35398.7,1.1928,1.2061,143.7,97.8,0.487
31.86,32079.2,35126.2,1.1881,1.1903,143.7,97.8,0.487
31.88,32064.4,35030.6,1.1872,1.1848,143.7,97.8,0.487
31.9,31916.6,34965.1,1.1778,1.181,143.7,97.8,0.487
31.92,31948.8,34871.2,1.1799,1.1755,143.7,97.8,0.487
31.94,31897.9,34741.6,1.1767,1.168,143.7,97.8,0.487
31.96,31868.7,34780.3,1.1748,1.1703,143.7,97.8,0.487
31.98,31780.2,34703.3,1.1692,1.1658,143.7,97.8,0.487
32.0,31824.0,34608.3,1.172,1.1603,143.7,97.8,0.487
32.02,31753.7,34621.8,1.1675,1.1611,143.7,97.8,0.487
32.04,31800.4,34596.9,1.1705,1.1596,143.7,97.8,0.487
32.06,31769.8,34457.9,1.1685,1.1516,143.7,97.8,0.487
32.08,31802.1,34488.7,1.1706,1.1534,143.7,97.8,0.487
32.1,31757.4,34472.0,1.1677,1.1524,143.7,97.8,0.487
32.12,31880.1,34780.2,1.1755,1.1703,143.7,97.8,0.487
32.14,32099.9,35124.5,1.1895,1.1902,143.7,97.8,0.487
32.16,32240.9,35509.3,1.1984,1.2125,143.7,97.8,0.487
32.18,32412.7,35696.8,1.2093,1.2234,143.7,97.8,0.487
32.2,32320.1,35707.7,1.2034,1.224,143.7,97.8,0.487
32.22,32235.8,35621.3,1.1981,1.219,143.7,97.8,0.487
32.24,32198.3,35497.9,1.1957,1.2118,143.7,97.8,0.487
32.26,32092.0,35246.4,1.189,1.1973,143.7,97.8,0.487
32.28,32085.7,35159.0,1.1886,1.1922,143.7,97.8,0.487
32.3,32092.7,35047.9,1.189,1.1858,143.7,97.8,0.487
32.32,31935.5,35099.2,1.179,1.1887,143.7,97.8,0.487
32.34,31949.7,34935.4,1.1799,1.1793,143.7,97.8,0.487
32.36,31924.9,34808.2,1.1784,1.1719,143.7,97.8,0.487
32.38,31910.0,34695.5,1.1774,1.1654,143.7,97.8,0.487
32.4,31949.2,34616.6,1.1799,1.1608,143.7,97.8,0.487
32.42,31837.0,34712.4,1.1728,1.1663,143.7,97.8,0.487
32.44,31713.7,34671.8,1.165,1.164,143.7,97.8,0.487
32.46,31751.8,34611.6,1.1674,1.1605,143.7,97.8,0.487
32.48,31729.8,34446.5,1.166,1.1509,143.7,97.8,0.487
32.5,31807.8,34503.0,1.1709,1.1542,143.7,97.8,0.487
32.52,31801.4,34583.7,1.1705,1.1589,143.7,97.8,0.487
32.54,31889.0,34815.2,1.1761,1.1723,143.7,97.8,0.487
32.56,32080.0,35133.2,1.1882,1.1907,143.7,97.8,0.487
32.58,32275.2,35428.5,1.2006,1.2078,143.7,97.8,0.487
32.6,32297.4,35844.3,1.202,1.2319,143.7,97.8,0.487
32.62,32320.4,35637.0,1.2034,1.2199,143.7,97.8,0.487
32.64,32267.8,35613.9,1.2001,1.2186,143.7,97.8,0.487
32.66,32186.1,35355.2,1.1949,1.2036,143.7,97.8,0.487
32.68,32101.6,35238.4,1.1896,1.1968,143.7,97.8,0.487
32.7,31998.0,35073.4,1.183,1.1873,143.7,97.8,0.487
32.72,32095.1,35072.7,1.1892,1.1872,143.7,97.8,0.487
32.74,31963.0,35045.1,1.1808,1.1856,143.7,97.8,0.487
32.76,31964.4,34977.0,1.1809,1.1817,143.7,97.8,0.487
32.78,31975.7,34846.8,1.1816,1.1741,143.7,97.8,0.487
32.8,31855.3,34687.0,1.1739,1.1649,143.7,97.8,0.487
32.82,31825.9,34603.7,1.1721,1.16,143.7,97.8,0.487
32.84,31801.9,34695.5,1.1706,1.1654,143.7,97.8,0.487
32.86,31875.0,34667.9,1.1752,1.1638,143.7,97.8,0.487
32.88,31855.3,34555.0,1.174,1.1572,143.7,97.8,0.487
32.9,31705.3,34500.2,1.1644,1.154,143.7,97.8,0.487
32.92,31817.9,34458.6,1.1716,1.1516,143.7,97.8,0.487
32.94,31783.2,34608.5,1.1694,1.1603,143.7,97.8,0.487
32.96,31983.3,34877.8,1.1821,1.1759,143.7,97.8,0.487
32.98,32166.5,35266.3,1.1937,1.1984,143.7,97.8,0.487
33.0,32323.6,35574.5,1.2036,1.2163,143.7,97.8,0.487
33.02,32280.1,35711.4,1.2009,1.2242,143.7,97.8,0.487
33.04,32324.9,35727.2,1.2037,1.2251,143.7,97.8,0.487
33.06,32265.6,35572.1,1.2,1.2161,143.7,97.8,0.487
33.08,32171.8,35351.9,1.194,1.2034,143.7,97.8,0.487
33.1,32077.1,35106.8,1.188,1.1892,143.7,97.8,0.487
33.12,32019.1,35143.2,1.1843,1.1913,143.7,97.8,0.487
33.14,31980.6,35069.1,1.1819,1.187,143.7,97.8,0.487
33.16,31983.9,35081.0,1.1821,1.1877,143.7,97.8,0.487
33.18,31951.4,34895.3,1.18,1.1769,143.7,97.8,0.487
33.2,31882.7,34720.7,1.1757,1.1668,143.7,97.8,0.487
33.22,31906.6,34736.3,1.1772,1.1677,143.7,97.8,0.487
33.24,31792.8,34665.2,1.17,1.1636,143.7,97.8,0.487
33.26,31799.9,34668.7,1.1704,1.1638,143.7,97.8,0.487
33.28,31802.2,34622.2,1.1706,1.1611,143.7,97.8,0.487
33.3,31835.1,34510.3,1.1727,1.1546,143.7,97.8,0.487
33.32,31760.7,34505.4,1.168,1.1543,143.7,97.8,0.487
33.34,31780.5,34449.9,1.1692,1.1511,143.7,97.8,0.487
33.36,31804.8,34577.3,1.1707,1.1585,143.7,97.8,0.487
33.38,32007.5,34865.4,1.1836,1.1752,143.7,97.8,0.487
33.4,32133.0,35305.8,1.1916,1.2007,143.7,97.8,0.487
33.42,32224.5,35580.2,1.1974,1.2166,143.7,97.8,0.487
33.44,32310.4,35777.9,1.2028,1.2281,143.7,97.8,0.487
33.46,32296.1,35740.0,1.2019,1.2259,143.7,97.8,0.487
33.48,32195.5,35506.0,1.1955,1.2123,143.7,97.8,0.487
33.5,32129.7,35327.9,1.1913,1.202,143.7,97.8,0.487
33.52,32133.2,35199.7,1.1916,1.1946,143.7,97.8,0.487
33.54,32069.1,35107.8,1.1875,1.1892,143.7,97.8,0.487
33.56,32014.4,35086.5,1.184,1.188,143.7,97.8,0.487
33.58,32006.1,35057.6,1.1835,1.1863,143.7,97.8,0.487
33.6,32027.9,34878.5,1.1849,1.176,143.7,97.8,0.487
33.62,31917.8,34817.9,1.1779,1.1724,143.7,97.8,0.487
33.64,31852.5,34621.7,1.1738,1.1611,143.7,97.8,0.487
33.66,31712.3,34675.6,1.1649,1.1642,143.7,97.8,0.487
33.68,31751.7,34620.5,1.1674,1.161,143.7,97.8,0.487
33.7,31845.4,34679.7,1.1733,1.1644,143.7,97.8,0.487
33.72,31834.5,34533.3,1.1726,1.156,143.7,97.8,0.487
33.74,31728.0,34526.7,1.1659,1.1556,143.7,97.8,0.487
33.76,31821.1,34524.0,1.1718,1.1554,143.7,97.8,0.487
33.78,31872.1,34716.2,1.175,1.1666,143.7,97.8,0.487
33.8,31955.9,34905.2,1.1803,1.1775,143.7,97.8,0.487
33.82,32135.2,35363.2,1.1917,1.204,143.7,97.8,0.487
33.84,32230.7,35676.4,1.1977,1.2222,143.7,97.8,0.487
33.86,32382.2,35804.2,1.2073,1.2296,143.7,97.8,0.487
33.88,32294.9,35689.1,1.2018,1.2229,143.7,97.8,0.487
33.9,32163.4,35604.8,1.1935,1.218,143.7,97.8,0.487
33.92,32135.2,35253.7,1.1917,1.1977,143.7,97.8,0.487
33.94,32146.8,35181.1,1.1924,1.1935,143.7,97.8,0.487
33.96,31970.6,35104.6,1.1813,1.1891,143.7,97.8,0.487
33.98,32044.4,35097.9,1.1859,1.1887,143.7,97.8,0.487
34.0,32012.6,35016.9,1.1839,1.184,143.7,97.8,0.487
34.02,31949.1,34877.9,1.1799,1.1759,143.7,97.8,0.487
34.04,31951.8,34789.0,1.1801,1.1708,143.7,97.8,0.487
34.06,31764.6,34658.3,1.1682,1.1632,143.7,97.8,0.487
34.08,31839.6,34613.5,1.173,1.1606,143.7,97.8,0.487
34.1,31854.7,34683.7,1.1739,1.1647,143.7,97.8,0.487
34.12,31756.4,34652.5,1.1677,1.1629,143.7,97.8,0.487
34.14,31706.4,34476.7,1.1645,1.1527,143.7,97.8,0.487
34.16,31808.8,34458.8,1.171,1.1516,143.7,97.8,0.487
34.18,31742.4,34449.2,1.1668,1.1511,143.7,97.8,0.487
34.2,31843.2,34651.0,1.1732,1.1628,143.7,97.8,0.487
34.22,32049.5,35083.7,1.1863,1.1878,143.7,97.8,0.487
34.24,32222.1,35430.0,1.1972,1.2079,143.7,97.8,0.487
34.26,32325.1,35670.9,1.2037,1.2219,143.7,97.8,0.487
34.28,32360.0,35768.1,1.2059,1.2275,143.7,97.8,0.487
34.3,32225.7,35675.5,1.1974,1.2221,143.7,97.8,0.487
34.32,32211.2,35518.8,1.1965,1.2131,143.7,97.8,0.487
34.34,32108.0,35277.5,1.19,1.1991,143.7,97.8,0.487
34.36,32010.5,35259.2,1.1838,1.198,143.7,97.8,0.487
34.38,31969.7,35138.7,1.1812,1.191,143.7,97.8,0.487
34.4,32032.9,35120.9,1.1852,1.19,143.7,97.8,0.487
34.42,31947.0,35061.4,1.1798,1.1866,143.7,97.8,0.487
34.44,31944.6,34848.0,1.1796,1.1742,143.7,97.8,0.487
34.46,31922.6,34703.4,1.1782,1.1658,143.7,97.8,0.487
34.48,31842.7,34690.3,1.1732,1.1651,143.7,97.8,0.487
34.5,31751.3,34662.6,1.1674,1.1634,143.7,97.8,0.487
34.52,31830.3,34652.9,1.1724,1.1629,143.7,97.8,0.487
34.54,31796.4,34534.6,1.1702,1.156,143.7,97.8,0.487
34.56,31877.2,34487.2,1.1753,1.1533,143.7,97.8,0.487
34.58,31771.0,34497.4,1.1686,1.1539,143.7,97.8,0.487
34.6,31821.6,34451.9,1.1718,1.1512,143.7,97.8,0.487
34.62,31932.5,34635.7,1.1788,1.1619,143.7,97.8,0.487
34.64,32041.6,35032.1,1.1858,1.1849,143.7,97.8,0.487
34.66,32125.8,35435.6,1.1911,1.2082,143.7,97.8,0.487
34.68,32267.4,35728.5,1.2001,1.2252,143.7,97.8,0.487
34.7,32307.5,35719.0,1.2026,1.2247,143.7,97.8,0.487
34.72,32337.7,35629.3,1.2045,1.2195,143.7,97.8,0.487
34.74,32179.4,35561.0,1.1945,1.2155,143.7,97.8,0.487
34.76,32099.1,35273.4,1.1894,1.1988,143.7,97.8,0.487
34.78,32085.8,35147.3,1.1886,1.1915,143.7,97.8,0.487
34.8,32069.3,35038.7,1.1875,1.1852,143.7,97.8,0.487
34.82,32028.3,35111.0,1.1849,1.1894,143.7,97.8,0.487
34.84,32023.2,34901.7,1.1846,1.1773,143.7,97.8,0.487
34.86,31912.1,34819.9,1.1775,1.1726,143.7,97.8,0.487
34.88,31942.4,34718.2,1.1795,1.1667,143.7,97.8,0.487
34.9,31857.2,34751.7,1.1741,1.1686,143.7,97.8,0.487
34.92,31811.4,34722.8,1.1712,1.1669,143.7,97.8,0.487
34.94,31775.0,34656.8,1.1689,1.1631,143.7,97.8,0.487
34.96,31804.6,34704.1,1.1707,1.1659,143.7,97.8,0.487
34.98,31773.4,34473.9,1.1688,1.1525,143.7,97.8,0.487
35.0,31720.9,34433.0,1.1654,1.1501,143.7,97.8,0.487
35.02,31810.8,34480.5,1.1711,1.1529,143.7,97.8,0.487
35.04,31937.5,34736.2,1.1792,1.1677,143.7,97.8,0.487
35.06,32130.3,35142.6,1.1914,1.1913,143.7,97.8,0.487
35.08,32174.2,35474.9,1.1942,1.2105,143.7,97.8,0.487
35.1,32339.3,35597.6,1.2046,1.2176,143.7,97.8,0.487
35.12,32457.5,35796.5,1.2121,1.2291,143.7,97.8,0.487
35.14,32263.9,35511.5,1.1998,1.2126,143.7,97.8,0.487
35.16,32241.1,35437.2,1.1984,1.2083,143.7,97.8,0.487
35.18,32107.5,35164.7,1.1899,1.1925,143.7,97.8,0.487
35.2,32047.1,35006.9,1.1861,1.1834,143.7,97.8,0.487
35.22,31989.8,35178.4,1.1825,1.1933,143.7,97.8,0.487
35.24,32033.2,34941.4,1.1852,1.1796,143.7,97.8,0.487
35.26,31986.5,34923.0,1.1823,1.1785,143.7,97.8,0.487
35.28,31923.3,34782.1,1.1783,1.1704,143.7,97.8,0.487
35.3,31885.4,34698.2,1.1759,1.1655,143.7,97.8,0.487
35.32,31905.2,34692.4,1.1771,1.1652,143.7,97.8,0.487
35.34,31866.4,34705.8,1.1747,1.166,143.7,97.8,0.487
35.36,31841.9,34694.7,1.1731,1.1653,143.7,97.8,0.487
35.38,31762.7,34652.1,1.1681,1.1628,143.7,97.8,0.487
35.4,31827.0,34501.9,1.1722,1.1541,143.7,97.8,0.487
35.42,31731.8,34456.8,1.1661,1.1515,143.7,97.8,0.487
35.44,31810.2,34439.1,1.1711,1.1505,143.7,97.8,0.487
35.46,31948.4,34757.9,1.1799,1.169,143.7,97.8,0.487
35.48,32092.1,35279.2,1.189,1.1992,143.7,97.8,0.487
35.5,32284.8,35465.2,1.2012,1.21,143.7,97.8,0.487
35.52,32315.8,35752.5,1.2031,1.2266,143.7,97.8,0.487
35.54,32295.9,35838.4,1.2019,1.2316,143.7,97.8,0.487
35.56,32363.4,35535.5,1.2062,1.214,143.7,97.8,0.487
35.58,32154.4,35380.3,1.1929,1.205,143.7,97.8,0.487
35.6,32081.7,35225.1,1.1883,1.196,143.7,97.8,0.487
35.62,31995.8,35116.2,1.1829,1.1897,143.7,97.8,0.487
35.64,32037.2,34991.0,1.1855,1.1825,143.7,97.8,0.487
35.66,32003.9,34884.0,1.1834,1.1763,143.7,97.8,0.487
35.68,31953.3,34916.7,1.1802,1.1782,143.7,97.8,0.487
35.7,31842.8,34848.5,1.1732,1.1742,143.7,97.8,0.487
35.72,31870.0,34627.6,1.1749,1.1614,143.7,97.8,0.487
35.74,31907.2,34660.7,1.1772,1.1633,143.7,97.8,0.487
35.76,31855.8,34742.9,1.174,1.1681,143.7,97.8,0.487
35.78,31777.7,34713.1,1.169,1.1664,143.7,97.8,0.487
35.8,31810.8,34756.9,1.1711,1.1689,143.7,97.8,0.487
35.82,31806.6,34455.8,1.1709,1.1515,143.7,97.8,0.487
35.84,31683.0,34436.7,1.163,1.1504,143.7,97.8,0.487
35.86,31868.9,34608.0,1.1748,1.1603,143.7,97.8,0.487
35.88,32031.6,34809.4,1.1851,1.172,143.7,97.8,0.487
35.9,32050.1,35179.3,1.1863,1.1934,143.7,97.8,0.487
35.92,32255.6,35546.8,1.1993,1.2147,143.7,97.8,0.487
35.94,32339.6,35738.2,1.2047,1.2258,143.7,97.8,0.487
35.96,32258.3,35679.9,1.1995,1.2224,143.7,97.8,0.487
35.98,32258.4,35511.4,1.1995,1.2126,143.7,97.8,0.487
36.0,32220.1,35382.3,1.1971,1.2051,143.7,97.8,0.487
36.02,32098.1,35214.8,1.1893,1.1954,143.7,97.8,0.487
36.04,32054.6,35094.2,1.1866,1.1885,143.7,97.8,0.487
36.06,32026.9,35054.6,1.1848,1.1862,143.7,97.8,0.487
36.08,32067.2,35038.2,1.1874,1.1852,143.7,97.8,0.487
36.1,32094.9,34928.3,1.1891,1.1788,143.7,97.8,0.487
36.12,31846.9,34817.7,1.1734,1.1724,143.7,97.8,0.487
36.14,31911.9,34761.0,1.1775,1.1691,143.7,97.8,0.487
36.16,31897.5,34590.7,1.1766,1.1593,143.7,97.8,0.487
36.18,31863.6,34739.2,1.1745,1.1679,143.7,97.8,0.487
36.2,31802.4,34612.0,1.1706,1.1605,143.7,97.8,0.487
36.22,31859.4,34536.0,1.1742,1.1561,143.7,97.8,0.487
36.24,31776.2,34444.6,1.1689,1.1508,143.7,97.8,0.487
36.26,31821.7,34427.8,1.1718,1.1498,143.7,97.8,0.487
36.28,31823.1,34628.8,1.1719,1.1615,143.7,97.8,0.487
36.3,31934.2,34935.8,1.179,1.1793,143.7,97.8,0.487
36.32,32050.4,35314.2,1.1863,1.2012,143.7,97.8,0.487
36.34,32301.1,35542.5,1.2022,1.2144,143.7,97.8,0.487
36.36,32404.9,35795.5,1.2088,1.2291,143.7,97.8,0.487
36.38,32291.8,35758.0,1.2016,1.2269,143.7,97.8,0.487
36.4,32215.7,35511.3,1.1968,1.2126,143.7,97.8,0.487
36.42,32203.8,35309.8,1.196,1.2009,143.7,97.8,0.487
36.44,32086.4,35146.3,1.1886,1.1915,143.7,97.8,0.487
36.46,32093.8,35212.0,1.1891,1.1953,143.7,97.8,0.487
36.48,32033.5,35050.1,1.1852,1.1859,143.7,97.8,0.487
36.5,31949.0,34966.3,1.1799,1.181,143.7,97.8,0.487
36.52,32064.8,34927.2,1.1872,1.1788,143.7,97.8,0.487
36.54,31857.8,34706.7,1.1741,1.166,143.7,97.8,0.487
36.56,31827.2,34669.9,1.1722,1.1639,143.7,97.8,0.487
36.58,31791.8,34676.8,1.1699,1.1643,143.7,97.8,0.487
36.6,31899.1,34644.2,1.1767,1.1624,143.7,97.8,0.487
36.62,31847.6,34661.1,1.1735,1.1634,143.7,97.8,0.487
36.64,31698.9,34473.3,1.164,1.1525,143.7,97.8,0.487
36.66,31745.7,34499.0,1.167,1.154,143.7,97.8,0.487
36.68,31746.5,34462.5,1.1671,1.1518,143.7,97.8,0.487
36.7,31830.0,34680.1,1.1723,1.1645,143.7,97.8,0.487
36.72,32023.8,34883.4,1.1846,1.1762,143.7,97.8,0.487
36.74,32143.8,35389.8,1.1922,1.2056,143.7,97.8,0.487
36.76,32334.7,35671.7,1.2043,1.2219,143.7,97.8,0.487
36.78,32283.6,35753.9,1.2011,1.2267,143.7,97.8,0.487
36.8,32311.5,35728.7,1.2029,1.2252,143.7,97.8,0.487
36.82,32296.2,35598.1,1.2019,1.2177,143.7,97.8,0.487
36.84,32209.6,35400.7,1.1964,1.2062,143.7,97.8,0.487
36.86,32158.5,35178.9,1.1932,1.1934,143.7,97.8,0.487
36.88,32065.0,35095.7,1.1872,1.1885,143.7,97.8,0.487
36.9,32001.5,35087.2,1.1832,1.1881,143.7,97.8,0.487
36.92,31992.3,34923.8,1.1826,1.1786,143.7,97.8,0.487
36.94,31932.2,34856.1,1.1788,1.1747,143.7,97.8,0.487
36.96,31957.2,34758.5,1.1804,1.169,143.7,97.8,0.487
36.98,31920.7,34651.6,1.1781,1.1628,143.7,97.8,0.487
37.0,31845.6,34645.2,1.1733,1.1624,143.7,97.8,0.487
37.02,31867.3,34627.8,1.1747,1.1614,143.7,97.8,0.487
37.04,31666.1,34583.6,1.162,1.1589,143.7,97.8,0.487
37.06,31800.4,34482.8,1.1705,1.153,143.7,97.8,0.487
37.08,31696.7,34488.8,1.1639,1.1534,143.7,97.8,0.487
37.1,31796.7,34484.6,1.1702,1.1531,143.7,97.8,0.487
37.12,31831.1,34609.4,1.1724,1.1604,143.7,97.8,0.487
37.14,32016.9,34914.0,1.1842,1.178,143.7,97.8,0.487
37.16,32132.0,35330.9,1.1915,1.2022,143.7,97.8,0.487
37.18,32180.9,35703.6,1.1946,1.2238,143.7,97.8,0.487
37.2,32361.1,35776.9,1.206,1.228,143.7,97.8,0.487
37.22,32257.5,35736.3,1.1994,1.2257,143.7,97.8,0.487
37.24,32209.8,35525.2,1.1964,1.2134,143.7,97.8,0.487
37.26,32106.1,35312.7,1.1898,1.2011,143.7,97.8,0.487
37.28,32031.2,35128.3,1.1851,1.1904,143.7,97.8,0.487
37.3,32015.3,35082.1,1.1841,1.1878,143.7,97.8,0.487
37.32,32099.7,35098.6,1.1894,1.1887,143.7,97.8,0.487
37.34,32025.1,34933.3,1.1847,1.1791,143.7,97.8,0.487
37.36,31936.5,34854.7,1.1791,1.1746,143.7,97.8,0.487
37.38,32011.3,34747.7,1.1838,1.1684,143.7,97.8,0.487
37.4,31894.3,34598.3,1.1764,1.1597,143.7,97.8,0.487
37.42,31914.3,34709.3,1.1777,1.1662,143.7,97.8,0.487
37.44,31865.1,34739.6,1.1746,1.1679,143.7,97.8,0.487
37.46,31783.4,34659.3,1.1694,1.1633,143.7,97.8,0.487
37.48,31753.8,34573.1,1.1675,1.1583,143.7,97.8,0.487
37.5,31802.6,34439.5,1.1706,1.1505,143.7,97.8,0.487
37.52,31837.9,34477.4,1.1728,1.1527,143.7,97.8,0.487
37.54,31865.9,34629.3,1.1746,1.1615,143.7,97.8,0.487
37.56,31996.3,35120.7,1.1829,1.19,143.7,97.8,0.487
37.58,32174.5,35362.8,1.1942,1.204,143.7,97.8,0.487
37.6,32235.3,35648.2,1.198,1.2206,143.7,97.8,0.487
37.62,32358.1,35753.9,1.2058,1.2267,143.7,97.8,0.487
37.64,32320.3,35684.5,1.2034,1.2227,143.7,97.8,0.487
37.66,32148.8,35419.0,1.1926,1.2073,143.7,97.8,0.487
37.68,32169.7,35281.7,1.1939,1.1993,143.7,97.8,0.487
37.7,32081.7,35129.2,1.1883,1.1905,143.7,97.8,0.487
37.72,32029.7,35018.0,1.185,1.184,143.7,97.8,0.487
37.74,32076.3,35002.2,1.188,1.1831,143.7,97.8,0.487
37.76,32024.2,34986.7,1.1847,1.1822,143.7,97.8,0.487
37.78,32067.4,34875.9,1.1874,1.1758,143.7,97.8,0.487
37.8,31828.5,34734.0,1.1723,1.1676,143.7,97.8,0.487
37.82,31840.6,34678.9,1.173,1.1644,143.7,97.8,0.487
37.84,31869.8,34824.3,1.1749,1.1728,143.7,97.8,0.487
37.86,31819.2,34762.8,1.1717,1.1693,143.7,97.8,0.487
37.88,31845.0,34607.1,1.1733,1.1602,143.7,97.8,0.487
37.9,31762.2,34506.5,1.1681,1.1544,143.7,97.8,0.487
37.92,31764.8,34452.1,1.1682,1.1512,143.7,97.8,0.487
37.94,31823.6,34511.8,1.1719,1.1547,143.7,97.8,0.487
37.96,31877.2,34708.0,1.1753,1.1661,143.7,97.8,0.487
37.98,31982.5,35133.2,1.182,1.1907,143.7,97.8,0.487
38.0,32207.7,35369.8,1.1963,1.2044,143.7,97.8,0.487
38.02,32326.5,35637.0,1.2038,1.2199,143.7,97.8,0.487
38.04,32342.1,35817.6,1.2048,1.2304,143.7,97.8,0.487
38.06,32321.9,35558.6,1.2035,1.2154,143.7,97.8,0.487
38.08,32132.4,35460.7,1.1915,1.2097,143.7,97.8,0.487
38.1,32160.5,35362.7,1.1933,1.204,143.7,97.8,0.487
38.12,32091.6,35086.7,1.1889,1.188,143.7,97.8,0.487
38.14,31963.1,35061.7,1.1808,1.1866,143.7,97.8,0.487
38.16,32127.4,35024.9,1.1912,1.1844,143.7,97.8,0.487
38.18,32061.6,35075.6,1.187,1.1874,143.7,97.8,0.487
38.2,31811.1,34847.4,1.1711,1.1742,143.7,97.8,0.487
38.22,31874.3,34780.5,1.1752,1.1703,143.7,97.8,0.487
38.24,31847.3,34708.8,1.1734,1.1661,143.7,97.8,0.487
38.26,31838.3,34615.5,1.1729,1.1607,143.7,97.8,0.487
38.28,31776.1,34604.2,1.1689,1.1601,143.7,97.8,0.487
38.3,31826.1,34546.9,1.1721,1.1567,143.7,97.8,0.487
38.32,31726.3,34513.6,1.1658,1.1548,143.7,97.8,0.487
38.34,31770.3,34562.6,1.1686,1.1577,143.7,97.8,0.487
38.36,31780.8,34625.6,1.1692,1.1613,143.7,97.8,0.487
38.38,31830.4,34733.8,1.1724,1.1676,143.7,97.8,0.487
38.4,32011.9,35006.2,1.1839,1.1834,143.7,97.8,0.487
38.42,32164.4,35498.9,1.1935,1.2119,143.7,97.8,0.487
38.44,32315.3,35815.7,1.2031,1.2303,143.7,97.8,0.487
38.46,32299.9,35731.9,1.2021,1.2254,143.7,97.8,0.487
38.48,32299.0,35593.9,1.2021,1.2174,143.7,97.8,0.487
38.5,32118.3,35466.7,1.1906,1.21,143.7,97.8,0.487
38.52,32228.8,35182.8,1.1976,1.1936,143.7,97.8,0.487
38.54,32077.2,35125.8,1.188,1.1903,143.7,97.8,0.487
38.56,31980.0,35035.1,1.1819,1.185,143.7,97.8,0.487
38.58,31963.9,35072.7,1.1808,1.1872,143.7,97.8,0.487
38.6,31959.3,35017.7,1.1805,1.184,143.7,97.8,0.487
38.62,31841.3,34866.0,1.1731,1.1752,143.7,97.8,0.487
38.64,31939.8,34690.7,1.1793,1.1651,143.7,97.8,0.487
38.66,31764.4,34572.3,1.1682,1.1582,143.7,97.8,0.487
38.68,31826.5,34610.6,1.1721,1.1604,143.7,97.8,0.487
38.7,31815.5,34534.7,1.1714,1.156,143.7,97.8,0.487
38.72,31735.5,34544.8,1.1664,1.1566,143.7,97.8,0.487
38.74,31796.5,34504.9,1.1702,1.1543,143.7,97.8,0.487
38.76,31706.1,34494.5,1.1645,1.1537,143.7,97.8,0.487
38.78,31717.0,34578.6,1.1652,1.1586,143.7,97.8,0.487
38.8,31861.2,34830.9,1.1743,1.1732,143.7,97.8,0.487
38.82,32199.9,35140.9,1.1958,1.1912,143.7,97.8,0.487
38.84,32247.3,35465.3,1.1988,1.21,143.7,97.8,0.487
38.86,32219.4,35710.0,1.197,1.2241,143.7,97.8,0.487
38.88,32325.8,35700.4,1.2038,1.2236,143.7,97.8,0.487
38.9,32284.2,35558.1,1.2011,1.2153,143.7,97.8,0.487
38.92,32185.4,35396.3,1.1949,1.206,143.7,97.8,0.487
38.94,32076.0,35237.7,1.1879,1.1968,143.7,97.8,0.487
38.96,32033.3,35207.8,1.1852,1.195,143.7,97.8,0.487
38.98,31995.4,35206.7,1.1828,1.195,143.7,97.8,0.487
39.0,32039.2,35130.9,1.1856,1.1906,143.7,97.8,0.487
39.02,31937.9,35003.6,1.1792,1.1832,143.7,97.8,0.487
39.04,31933.0,34822.5,1.1789,1.1727,143.7,97.8,0.487
39.06,31887.9,34666.3,1.176,1.1637,143.7,97.8,0.487
39.08,31765.7,34707.4,1.1683,1.166,143.7,97.8,0.487
39.1,31893.2,34667.8,1.1764,1.1637,143.7,97.8,0.487
39.12,31837.2,34580.0,1.1728,1.1587,143.7,97.8,0.487
39.14,31762.5,34551.8,1.1681,1.157,143.7,97.8,0.487
39.16,31770.7,34385.2,1.1686,1.1474,143.7,97.8,0.487
39.18,31809.6,34426.1,1.1711,1.1497,143.7,97.8,0.487
39.2,31800.5,34583.8,1.1705,1.1589,143.7,97.8,0.487
39.22,31905.7,34899.1,1.1771,1.1772,143.7,97.8,0.487
39.24,32059.8,35314.2,1.1869,1.2012,143.7,97.8,0.487
39.26,32249.7,35483.2,1.1989,1.211,143.7,97.8,0.487
39.28,32379.7,35843.9,1.2072,1.2319,143.7,97.8,0.487
39.3,32339.8,35682.9,1.2047,1.2226,143.7,97.8,0.487
39.32,32310.6,35595.1,1.2028,1.2175,143.7,97.8,0.487
39.34,32220.8,35436.0,1.1971,1.2083,143.7,97.8,0.487
39.36,32034.3,35181.4,1.1853,1.1935,143.7,97.8,0.487
39.38,31993.8,35069.3,1.1827,1.187,143.7,97.8,0.487
39.4,32121.9,35093.2,1.1909,1.1884,143.7,97.8,0.487
39.42,32045.2,34935.3,1.186,1.1792,143.7,97.8,0.487
39.44,31955.1,34986.1,1.1803,1.1822,143.7,97.8,0.487
39.46,31935.6,34781.6,1.179,1.1703,143.7,97.8,0.487
39.48,31942.9,34593.6,1.1795,1.1594,143.7,97.8,0.487
39.5,31933.2,34670.7,1.1789,1.1639,143.7,97.8,0.487
39.52,31862.9,34660.7,1.1744,1.1633,143.7,97.8,0.487
39.54,31838.1,34573.1,1.1729,1.1583,143.7,97.8,0.487
39.56,31796.8,34545.4,1.1702,1.1567,143.7,97.8,0.487
39.58,31745.7,34423.6,1.167,1.1496,143.7,97.8,0.487
39.6,31828.3,34469.9,1.1722,1.1523,143.7,97.8,0.487
39.62,31844.5,34659.9,1.1733,1.1633,143.7,97.8,0.487
39.64,31902.0,34927.2,1.1769,1.1788,143.7,97.8,0.487
39.66,32098.4,35292.8,1.1894,1.2,143.7,97.8,0.487
39.68,32247.9,35620.6,1.1988,1.219,143.7,97.8,0.487
39.7,32403.0,35738.8,1.2087,1.2258,143.7,97.8,0.487
39.72,32371.9,35737.8,1.2067,1.2257,143.7,97.8,0.487
39.74,32235.7,35550.4,1.1981,1.2149,143.7,97.8,0.487
39.76,32232.8,35213.5,1.1979,1.1954,143.7,97.8,0.487
39.78,32127.5,35178.5,1.1912,1.1933,143.7,97.8,0.487
39.8,32136.9,35139.1,1.1918,1.1911,143.7,97.8,0.487
39.82,32063.3,35105.4,1.1871,1.1891,143.7,97.8,0.487
39.84,32031.3,35043.7,1.1851,1.1855,143.7,97.8,0.487
39.86,31865.2,34931.7,1.1746,1.179,143.7,97.8,0.487
39.88,31832.3,34773.6,1.1725,1.1699,143.7,97.8,0.487
39.9,31836.6,34802.3,1.1728,1.1715,143.7,97.8,0.487
39.92,31829.0,34665.3,1.1723,1.1636,143.7,97.8,0.487
39.94,31912.2,34690.1,1.1776,1.165,143.7,97.8,0.487
39.96,31830.5,34539.3,1.1724,1.1563,143.7,97.8,0.487
39.98,31796.1,34597.3,1.1702,1.1597,143.7,97.8,0.487
40.0,31808.0,34504.1,1.171,1.1543,143.7,97.8,0.487
40.02,31746.7,34462.0,1.1671,1.1518,143.7,97.8,0.487
40.04,31764.4,34590.7,1.1682,1.1593,143.7,97.8,0.487
40.06,31986.1,35025.1,1.1822,1.1845,143.7,97.8,0.487
40.08,32093.2,35283.2,1.189,1.1994,143.7,97.8,0.487
40.1,32227.2,35597.3,1.1975,1.2176,143.7,97.8,0.487
40.12,32323.5,35654.6,1.2036,1.2209,143.7,97.8,0.487
40.14,32317.8,35768.0,1.2033,1.2275,143.7,97.8,0.487
40.16,32215.6,35507.9,1.1968,1.2124,143.7,97.8,0.487
40.18,32179.3,35255.5,1.1945,1.1978,143.7,97.8,0.487
40.2,32119.6,35154.4,1.1907,1.1919,143.7,97.8,0.487
40.22,32055.4,35122.7,1.1866,1.1901,143.7,97.8,0.487
40.24,32102.9,35019.5,1.1896,1.1841,143.7,97.8,0.487
40.26,31991.6,35000.1,1.1826,1.183,143.7,97.8,0.487
40.28,31975.7,34794.1,1.1816,1.1711,143.7,97.8,0.487
40.3,31926.8,34762.8,1.1785,1.1693,143.7,97.8,0.487
40.32,31882.0,34782.1,1.1756,1.1704,143.7,97.8,0.487
40.34,31883.1,34609.3,1.1757,1.1604,143.7,97.8,0.487
40.36,31893.7,34634.7,1.1764,1.1618,143.7,97.8,0.487
40.38,31877.3,34554.2,1.1753,1.1572,143.7,97.8,0.487
40.4,31732.4,34450.4,1.1662,1.1511,143.7,97.8,0.487
40.42,31835.1,34419.3,1.1727,1.1493,143.7,97.8,0.487
40.44,31784.6,34502.0,1.1695,1.1541,143.7,97.8,0.487
40.46,31977.3,34715.7,1.1817,1.1665,143.7,97.8,0.487
40.48,31979.4,34984.6,1.1818,1.1821,143.7,97.8,0.487
40.5,32157.4,35387.1,1.1931,1.2054,143.7,97.8,0.487
40.52,32335.1,35668.3,1.2044,1.2217,143.7,97.8,0.487
40.54,32341.7,35803.5,1.2048,1.2296,143.7,97.8,0.487
40.56,32422.8,35665.4,1.2099,1.2216,143.7,97.8,0.487
40.58,32341.6,35517.2,1.2048,1.213,143.7,97.8,0.487
40.6,32112.6,35355.6,1.1903,1.2036,143.7,97.8,0.487
40.62,32090.0,35263.9,1.1888,1.1983,143.7,97.8,0.487
40.64,31947.3,35048.6,1.1798,1.1858,143.7,97.8,0.487
40.66,32079.1,34992.8,1.1881,1.1826,143.7,97.8,0.487
40.68,31986.7,34950.9,1.1823,1.1801,143.7,97.8,0.487
40.7,31962.5,34906.2,1.1807,1.1776,143.7,97.8,0.487
40.72,31922.8,34654.7,1.1782,1.163,143.7,97.8,0.487
40.74,31837.8,34731.6,1.1728,1.1674,143.7,97.8,0.487
40.76,31827.5,34692.0,1.1722,1.1652,143.7,97.8,0.487
40.78,31885.0,34688.9,1.1758,1.165,143.7,97.8,0.487
40.8,31853.2,34643.0,1.1738,1.1623,143.7,97.8,0.487
40.82,31741.1,34505.0,1.1667,1.1543,143.7,97.8,0.487
40.84,31704.8,34332.0,1.1644,1.1443,143.7,97.8,0.487
40.86,31910.3,34581.5,1.1774,1.1587,143.7,97.8,0.487
40.88,31856.4,34715.1,1.174,1.1665,143.7,97.8,0.487
40.9,32084.3,35061.0,1.1885,1.1865,143.7,97.8,0.487
40.92,32208.2,35426.3,1.1963,1.2077,143.7,97.8,0.487
40.94,32369.4,35787.2,1.2065,1.2286,143.7,97.8,0.487
40.96,32326.5,35802.2,1.2038,1.2295,143.7,97.8,0.487
40.98,32305.0,35730.6,1.2025,1.2253,143.7,97.8,0.487
41.0,32276.5,35516.2,1.2006,1.2129,143.7,97.8,0.487
41.02,32184.2,35283.1,1.1948,1.1994,143.7,97.8,0.487
41.04,32018.5,35074.8,1.1843,1.1873,143.7,97.8,0.487
41.06,32048.3,35167.5,1.1862,1.1927,143.7,97.8,0.487
41.08,32000.1,34938.8,1.1831,1.1794,143.7,97.8,0.487
41.1,31917.1,35058.8,1.1779,1.1864,143.7,97.8,0.487
41.12,31842.7,34894.4,1.1732,1.1769,143.7,97.8,0.487
41.14,31873.5,34747.1,1.1751,1.1683,143.7,97.8,0.487
41.16,31844.6,34601.3,1.1733,1.1599,143.7,97.8,0.487
41.18,31788.1,34628.1,1.1697,1.1614,143.7,97.8,0.487
41.2,31830.2,34603.2,1.1724,1.16,143.7,97.8,0.487
41.22,31799.3,34564.4,1.1704,1.1578,143.7,97.8,0.487
41.24,31893.6,34495.8,1.1764,1.1538,143.7,97.8,0.487
41.26,31833.9,34347.8,1.1726,1.1452,143.7,97.8,0.487
41.28,31743.1,34531.0,1.1668,1.1558,143.7,97.8,0.487
41.3,31837.4,34724.8,1.1728,1.1671,143.7,97.8,0.487
41.32,32087.1,35026.8,1.1886,1.1845,143.7,97.8,0.487
41.34,32222.2,35389.2,1.1972,1.2055,143.7,97.8,0.487
41.36,32376.3,35660.0,1.207,1.2212,143.7,97.8,0.487
41.38,32408.2,35785.4,1.209,1.2285,143.7,97.8,0.487
41.4,32210.4,35662.4,1.1965,1.2214,143.7,97.8,0.487
41.42,32141.7,35424.4,1.1921,1.2076,143.7,97.8,0.487
41.44,32120.3,35204.3,1.1907,1.1948,143.7,97.8,0.487
41.46,32126.8,35145.0,1.1912,1.1914,143.7,97.8,0.487
41.48,31949.0,35084.3,1.1799,1.1879,143.7,97.8,0.487
41.5,32067.4,34952.9,1.1874,1.1803,143.7,97.8,0.487
41.52,31945.0,34943.3,1.1796,1.1797,143.7,97.8,0.487
41.54,31926.4,34896.9,1.1785,1.177,143.7,97.8,0.487
41.56,31927.5,34806.0,1.1785,1.1718,143.7,97.8,0.487
41.58,31847.6,34750.5,1.1735,1.1685,143.7,97.8,0.487
41.6,31763.3,34668.4,1.1681,1.1638,143.7,97.8,0.487
41.62,31737.6,34657.6,1.1665,1.1632,143.7,97.8,0.487
41.64,31735.7,34604.1,1.1664,1.1601,143.7,97.8,0.487
41.66,31754.1,34476.5,1.1675,1.1527,143.7,97.8,0.487
41.68,31830.7,34471.4,1.1724,1.1524,143.7,97.8,0.487
41.7,31726.5,34548.9,1.1658,1.1569,143.7,97.8,0.487
41.72,31971.1,34797.2,1.1813,1.1712,143.7,97.8,0.487
41.74,32041.0,35092.2,1.1857,1.1883,143.7,97.8,0.487
41.76,32289.2,35459.5,1.2015,1.2096,143.7,97.8,0.487
41.78,32190.8,35673.3,1.1952,1.222,143.7,97.8,0.487
41.8,32361.7,35769.2,1.206,1.2276,143.7,97.8,0.487
41.82,32235.9,35597.1,1.1981,1.2176,143.7,97.8,0.487
41.84,32228.2,35385.6,1.1976,1.2053,143.7,97.8,0.487
41.86,32093.3,35222.8,1.189,1.1959,143.7,97.8,0.487
41.88,32042.4,35139.6,1.1858,1.1911,143.7,97.8,0.487
41.9,31960.8,35127.4,1.1806,1.1904,143.7,97.8,0.487
41.92,32010.1,35122.2,1.1838,1.1901,143.7,97.8,0.487
41.94,31987.8,34927.5,1.1823,1.1788,143.7,97.8,0.487
41.96,31901.1,34826.2,1.1769,1.1729,143.7,97.8,0.487
41.98,31809.4,34782.1,1.171,1.1704,143.7,97.8,0.487
42.0,32022.0,34686.7,1.1845,1.1648,143.7,97.8,0.487
42.02,31881.1,34706.1,1.1756,1.166,143.7,97.8,0.487
42.04,31833.2,34499.1,1.1725,1.154,143.7,97.8,0.487
42.06,31844.5,34538.5,1.1733,1.1563,143.7,97.8,0.487
42.08,31702.9,34513.3,1.1643,1.1548,143.7,97.8,0.487
42.1,31676.5,34401.7,1.1626,1.1483,143.7,97.8,0.487
42.12,31833.5,34579.5,1.1726,1.1586,143.7,97.8,0.487
42.14,31909.5,34808.5,1.1774,1.1719,143.7,97.8,0.487
42.16,32134.7,35152.7,1.1917,1.1918,143.7,97.8,0.487
42.18,32257.0,35472.0,1.1994,1.2103,143.7,97.8,0.487
42.2,32346.4,35729.7,1.2051,1.2253,143.7,97.8,0.487
42.22,32353.4,35799.1,1.2055,1.2293,143.7,97.8,0.487
42.24,32322.9,35593.4,1.2036,1.2174,143.7,97.8,0.487
42.26,32134.9,35352.7,1.1917,1.2034,143.7,97.8,0.487
42.28,32084.3,35142.6,1.1885,1.1913,143.7,97.8,0.487
42.3,32101.9,35193.9,1.1896,1.1942,143.7,97.8,0.487
42.32,32087.6,35093.4,1.1887,1.1884,143.7,97.8,0.487
42.34,32028.3,35073.6,1.1849,1.1873,143.7,97.8,0.487
42.36,32016.7,34924.1,1.1842,1.1786,143.7,97.8,0.487
42.38,31921.7,34853.1,1.1782,1.1745,143.7,97.8,0.487
42.4,31794.0,34745.2,1.1701,1.1682,143.7,97.8,0.487
42.42,31865.0,34687.6,1.1746,1.1649,143.7,97.8,0.487
42.44,31781.6,34613.4,1.1693,1.1606,143.7,97.8,0.487
42.46,31794.4,34638.2,1.1701,1.162,143.7,97.8,0.487
42.48,31870.5,34567.6,1.1749,1.1579,143.7,97.8,0.487
42.5,31814.6,34419.8,1.1714,1.1494,143.7,97.8,0.487
42.52,31712.8,34453.9,1.1649,1.1514,143.7,97.8,0.487
42.54,31817.6,34602.9,1.1716,1.16,143.7,97.8,0.487
42.56,31930.2,34982.4,1.1787,1.182,143.7,97.8,0.487
42.58,32084.4,35221.4,1.1885,1.1958,143.7,97.8,0.487
42.6,32314.3,35587.8,1.203,1.2171,143.7,97.8,0.487
42.62,32346.1,35735.8,1.2051,1.2256,143.7,97.8,0.487
42.64,32385.0,35811.6,1.2075,1.23,143.7,97.8,0.487
42.66,32261.2,35633.4,1.1997,1.2197,143.7,97.8,0.487
42.68,32188.8,35379.5,1.1951,1.205,143.7,97.8,0.487
42.7,32068.0,35199.6,1.1874,1.1946,143.7,97.8,0.487
42.72,32088.7,35136.0,1.1887,1.1909,143.7,97.8,0.487
42.74,32114.3,35180.3,1.1904,1.1934,143.7,97.8,0.487
42.76,31932.4,35004.0,1.1788,1.1832,143.7,97.8,0.487
42.78,31911.8,34916.3,1.1775,1.1781,143.7,97.8,0.487
42.8,31931.6,34816.1,1.1788,1.1723,143.7,97.8,0.487
42.82,31869.4,34779.0,1.1748,1.1702,143.7,97.8,0.487
42.84,31953.0,34630.3,1.1801,1.1616,143.7,97.8,0.487
42.86,31843.0,34652.5,1.1732,1.1629,143.7,97.8,0.487
42.88,31845.0,34693.7,1.1733,1.1652,143.7,97.8,0.487
42.9,31730.6,34587.2,1.166,1.1591,143.7,97.8,0.487
42.92,31748.9,34558.7,1.1672,1.1574,143.7,97.8,0.487
42.94,31770.6,34474.3,1.1686,1.1525,143.7,97.8,0.487
42.96,31823.5,34610.3,1.1719,1.1604,143.7,97.8,0.487
42.98,31893.5,34858.7,1.1764,1.1748,143.7,97.8,0.487
43.0,32056.5,35375.4,1.1867,1.2047,143.7,97.8,0.487
43.02,32261.7,35560.0,1.1997,1.2154,143.7,97.8,0.487
43.04,32325.6,35775.0,1.2038,1.2279,143.7,97.8,0.487
43.06,32384.4,35668.4,1.2075,1.2217,143.7,97.8,0.487
43.08,32251.1,35610.7,1.199,1.2184,143.7,97.8,0.487
43.1,32224.4,35275.7,1.1973,1.199,143.7,97.8,0.487
43.12,32163.4,35224.5,1.1935,1.196,143.7,97.8,0.487
43.14,31990.2,35080.8,1.1825,1.1877,143.7,97.8,0.487
43.16,32047.9,35075.3,1.1862,1.1874,143.7,97.8,0.487
43.18,32040.3,34986.4,1.1857,1.1822,143.7,97.8,0.487
43.2,32031.8,34854.2,1.1851,1.1745,143.7,97.8,0.487
43.22,31834.5,34694.6,1.1726,1.1653,143.7,97.8,0.487
43.24,31862.5,34709.1,1.1744,1.1661,143.7,97.8,0.487
43.26,31875.8,34676.4,1.1753,1.1642,143.7,97.8,0.487
43.28,31871.9,34699.0,1.175,1.1656,143.7,97.8,0.487
43.3,31808.9,34572.8,1.171,1.1582,143.7,97.8,0.487
43.32,31839.1,34478.9,1.1729,1.1528,143.7,97.8,0.487
43.34,31782.7,34431.1,1.1694,1.15,143.7,97.8,0.487
43.36,31818.4,34509.6,1.1716,1.1546,143.7,97.8,0.487
43.38,31945.5,34571.8,1.1797,1.1582,143.7,97.8,0.487
43.4,32052.7,34931.3,1.1865,1.179,143.7,97.8,0.487
43.42,32267.1,35279.2,1.2,1.1992,143.7,97.8,0.487
43.44,32345.8,35700.0,1.205,1.2236,143.7,97.8,0.487
43.46,32415.9,35749.7,1.2095,1.2264,143.7,97.8,0.487
43.48,32386.0,35716.9,1.2076,1.2245,143.7,97.8,0.487
43.5,32198.8,35477.9,1.1957,1.2107,143.7,97.8,0.487
43.52,32111.4,35331.0,1.1902,1.2022,143.7,97.8,0.487
43.54,32054.0,35235.8,1.1865,1.1967,143.7,97.8,0.487
43.56,32079.8,35175.1,1.1882,1.1931,143.7,97.8,0.487
43.58,32052.5,35115.2,1.1864,1.1897,143.7,97.8,0.487
43.6,31967.7,34969.0,1.1811,1.1812,143.7,97.8,0.487
43.62,31946.3,34912.6,1.1797,1.1779,143.7,97.8,0.487
43.64,31868.6,34750.5,1.1748,1.1685,143.7,97.8,0.487
43.66,31754.9,34659.4,1.1676,1.1633,143.7,97.8,0.487
43.68,31850.7,34620.6,1.1737,1.161,143.7,97.8,0.487
43.7,31806.0,34616.2,1.1708,1.1608,143.7,97.8,0.487
43.72,31817.6,34638.3,1.1716,1.162,143.7,97.8,0.487
43.74,31809.0,34581.0,1.171,1.1587,143.7,97.8,0.487
43.76,31692.8,34433.5,1.1637,1.1502,143.7,97.8,0.487
43.78,31757.2,34523.0,1.1677,1.1554,143.7,97.8,0.487
43.8,31915.4,34661.3,1.1778,1.1634,143.7,97.8,0.487
43.82,31995.3,35022.1,1.1828,1.1843,143.7,97.8,0.487
43.84,32197.0,35442.2,1.1956,1.2086,143.7,97.8,0.487
43.86,32274.3,35696.2,1.2005,1.2233,143.7,97.8,0.487
43.88,32362.0,35863.8,1.2061,1.233,143.7,97.8,0.487
43.9,32367.3,35601.3,1.2064,1.2178,143.7,97.8,0.487
43.92,32224.0,35455.1,1.1973,1.2094,143.7,97.8,0.487
43.94,32149.4,35308.4,1.1926,1.2009,143.7,97.8,0.487
43.96,32074.8,35126.2,1.1879,1.1903,143.7,97.8,0.487
43.98,32054.7,35092.0,1.1866,1.1883,143.7,97.8,0.487
44.0,32084.4,35029.3,1.1885,1.1847,143.7,97.8,0.487
44.02,31976.7,34879.9,1.1816,1.176,143.7,97.8,0.487
44.04,31957.4,34814.3,1.1804,1.1722,143.7,97.8,0.487
44.06,31880.4,34806.3,1.1755,1.1718,143.7,97.8,0.487
44.08,31832.9,34754.4,1.1725,1.1688,143.7,97.8,0.487
44.1,31881.9,34701.8,1.1756,1.1657,143.7,97.8,0.487
44.12,31854.5,34636.6,1.1739,1.1619,143.7,97.8,0.487
44.14,31840.6,34618.4,1.173,1.1609,143.7,97.8,0.487
44.16,31795.5,34545.3,1.1702,1.1567,143.7,97.8,0.487
44.18,31713.9,34471.3,1.165,1.1524,143.7,97.8,0.487
44.2,31790.2,34637.4,1.1698,1.162,143.7,97.8,0.487
44.22,31797.8,34798.8,1.1703,1.1713,143.7,97.8,0.487
44.24,32068.2,35017.6,1.1874,1.184,143.7,97.8,0.487
44.26,32215.6,35377.2,1.1968,1.2049,143.7,97.8,0.487
44.28,32297.2,35668.2,1.202,1.2217,143.7,97.8,0.487
44.3,32360.9,35811.5,1.206,1.23,143.7,97.8,0.487
44.32,32306.5,35688.8,1.2025,1.2229,143.7,97.8,0.487
44.34,32254.5,35522.8,1.1993,1.2133,143.7,97.8,0.487
44.36,32127.2,35202.1,1.1912,1.1947,143.7,97.8,0.487
44.38,32067.8,35113.5,1.1874,1.1896,143.7,97.8,0.487
44.4,31945.9,35166.3,1.1797,1.1926,143.7,97.8,0.487
44.42,32042.2,35097.4,1.1858,1.1886,143.7,97.8,0.487
44.44,31990.2,35019.4,1.1825,1.1841,143.7,97.8,0.487
44.46,31927.0,34890.9,1.1785,1.1767,143.7,97.8,0.487
44.48,31825.5,34761.0,1.1721,1.1691,143.7,97.8,0.487
44.5,31934.8,34715.4,1.179,1.1665,143.7,97.8,0.487
44.52,31816.9,34661.7,1.1715,1.1634,143.7,97.8,0.487
44.54,31831.5,34596.5,1.1724,1.1596,143.7,97.8,0.487
44.56,31832.3,34574.7,1.1725,1.1584,143.7,97.8,0.487
44.58,31786.2,34520.2,1.1696,1.1552,143.7,97.8,0.487
44.6,31783.8,34494.9,1.1694,1.1537,143.7,97.8,0.487
44.62,31754.4,34512.7,1.1676,1.1548,143.7,97.8,0.487
44.64,31822.2,34765.5,1.1719,1.1694,143.7,97.8,0.487
44.66,32039.2,35105.8,1.1856,1.1891,143.7,97.8,0.487
44.68,32269.0,35497.7,1.2002,1.2118,143.7,97.8,0.487
44.7,32386.0,35734.6,1.2076,1.2256,143.7,97.8,0.487
44.72,32310.3,35699.2,1.2028,1.2235,143.7,97.8,0.487
44.74,32220.5,35632.4,1.1971,1.2196,143.7,97.8,0.487
44.76,32240.5,35477.2,1.1984,1.2106,143.7,97.8,0.487
44.78,32096.3,35211.6,1.1892,1.1953,143.7,97.8,0.487
44.8,32047.5,35117.0,1.1861,1.1898,143.7,97.8,0.487
44.82,32051.6,35047.3,1.1864,1.1857,143.7,97.8,0.487
44.84,32048.6,34994.8,1.1862,1.1827,143.7,97.8,0.487
44.86,31925.3,34979.3,1.1784,1.1818,143.7,97.8,0.487
44.88,31936.9,34878.9,1.1791,1.176,143.7,97.8,0.487
44.9,31873.9,34794.7,1.1751,1.1711,143.7,97.8,0.487
44.92,31856.1,34758.6,1.174,1.169,143.7,97.8,0.487
44.94,31817.5,34648.0,1.1716,1.1626,143.7,97.8,0.487
44.96,31865.6,34606.7,1.1746,1.1602,143.7,97.8,0.487
44.98,31778.2,34572.2,1.1691,1.1582,143.7,97.8,0.487
45.0,31752.9,34487.3,1.1675,1.1533,143.7,97.8,0.487
45.02,31781.3,34431.6,1.1693,1.1501,143.7,97.8,0.487
45.04,31801.9,34495.3,1.1706,1.1538,143.7,97.8,0.487
45.06,31978.7,34792.3,1.1818,1.171,143.7,97.8,0.487
45.08,32001.2,35199.2,1.1832,1.1945,143.7,97.8,0.487
45.1,32324.7,35505.6,1.2037,1.2123,143.7,97.8,0.487
45.12,32337.2,35755.2,1.2045,1.2268,143.7,97.8,0.487
45.14,32421.7,35770.7,1.2098,1.2277,143.7,97.8,0.487
45.16,32171.8,35674.2,1.194,1.2221,143.7,97.8,0.487
45.18,32194.3,35352.1,1.1954,1.2034,143.7,97.8,0.487
45.2,32090.5,35233.3,1.1889,1.1965,143.7,97.8,0.487
45.22,32025.8,35221.8,1.1848,1.1958,143.7,97.8,0.487
45.24,32004.5,35083.0,1.1834,1.1878,143.7,97.8,0.487
45.26,32042.7,35036.3,1.1858,1.1851,143.7,97.8,0.487
45.28,31865.4,34929.0,1.1746,1.1789,143.7,97.8,0.487
45.3,31923.0,34797.6,1.1782,1.1713,143.7,97.8,0.487
45.32,31925.8,34744.5,1.1784,1.1682,143.7,97.8,0.487
45.34,31825.3,34613.7,1.1721,1.1606,143.7,97.8,0.487
45.36,31806.5,34695.2,1.1709,1.1653,143.7,97.8,0.487
45.38,31865.1,34595.5,1.1746,1.1596,143.7,97.8,0.487
45.4,31851.8,34513.9,1.1737,1.1548,143.7,97.8,0.487
45.42,31806.1,34388.6,1.1708,1.1476,143.7,97.8,0.487
45.44,31851.1,34512.4,1.1737,1.1547,143.7,97.8,0.487
45.46,31784.8,34629.8,1.1695,1.1615,143.7,97.8,0.487
45.48,31968.4,34799.2,1.1811,1.1714,143.7,97.8,0.487
45.5,32110.4,35161.3,1.1901,1.1923,143.7,97.8,0.487
45.52,32231.4,35557.3,1.1978,1.2153,143.7,97.8,0.487
45.54,32330.7,35855.8,1.2041,1.2326,143.7,97.8,0.487
45.56,32397.7,35743.7,1.2083,1.2261,143.7,97.8,0.487
45.58,32208.5,35583.7,1.1963,1.2168,143.7,97.8,0.487
45.6,32158.6,35384.7,1.1932,1.2053,143.7,97.8,0.487
45.62,32168.7,35211.4,1.1938,1.1952,143.7,97.8,0.487
45.64,31941.5,35075.6,1.1794,1.1874,143.7,97.8,0.487
45.66,31970.7,35032.2,1.1813,1.1849,143.7,97.8,0.487
45.68,32032.9,34990.1,1.1852,1.1824,143.7,97.8,0.487
45.7,31922.0,34881.8,1.1782,1.1761,143.7,97.8,0.487
45.72,32006.2,34786.7,1.1835,1.1706,143.7,97.8,0.487
45.74,31839.9,34740.5,1.173,1.168,143.7,97.8,0.487
45.76,31904.5,34670.8,1.1771,1.1639,143.7,97.8,0.487
45.78,31855.0,34672.8,1.1739,1.164,143.7,97.8,0.487
