timestamp,raw_red,raw_ir,filtered_red,filtered_ir,heart_rate,spo2,ac_dc_ratio
0.0,32094.1,35023.4,1.6333,0.2702,147.4,98.5,0.461
0.02,31986.0,35154.3,-0.2486,1.8269,147.4,98.5,0.461
0.04,32099.0,35131.7,1.7177,1.5583,147.4,98.5,0.461
0.06,32108.4,35130.4,1.8824,1.5428,147.4,98.5,0.461
0.08,31936.6,35114.1,-1.109,1.349,147.4,98.5,0.461
0.1,32016.7,35137.6,0.2854,1.6287,147.4,98.5,0.461
0.12,32031.9,35016.5,0.55,0.1877,147.4,98.5,0.461
0.14,32035.3,35051.2,0.6096,0.5999,147.4,98.5,0.461
0.16,31901.2,35026.2,-1.7269,0.3026,147.4,98.5,0.461
0.18,32034.8,34953.2,0.5997,-0.5655,147.4,98.5,0.461
0.2,31976.8,34922.4,-0.4093,-0.9317,147.4,98.5,0.461
0.22,32040.2,34965.3,0.6953,-0.4217,147.4,98.5,0.461
0.24,31920.1,34960.0,-1.3965,-0.4847,147.4,98.5,0.461
0.26,31957.9,34868.9,-0.7384,-1.5687,147.4,98.5,0.461
0.28,31916.8,34921.6,-1.4545,-0.9416,147.4,98.5,0.461
0.3,32041.4,34854.4,0.7161,-1.7414,147.4,98.5,0.461
0.32,31951.3,34896.4,-0.8542,-1.2417,147.4,98.5,0.461
0.34,32004.9,34947.3,0.0793,-0.6359,147.4,98.5,0.461
0.36,31988.4,34918.2,-0.2069,-0.9825,147.4,98.5,0.461
0.38,32040.5,34987.5,0.699,-0.1576,147.4,98.5,0.461
0.4,32023.2,34982.7,0.398,-0.215,147.4,98.5,0.461
0.42,32102.5,35128.9,1.7802,1.5251,147.4,98.5,0.461
0.44,31950.0,35104.2,-0.8761,1.2315,147.4,98.5,0.461
0.46,32039.7,35105.7,0.6859,1.2493,147.4,98.5,0.461
0.48,31979.6,35080.6,-0.3605,0.9509,147.4,98.5,0.461
0.5,32037.6,35085.1,0.65,1.0037,147.4,98.5,0.461
0.52,31964.2,35101.3,-0.6282,1.197,147.4,98.5,0.461
0.54,32144.6,34960.6,2.5125,-0.478,147.4,98.5,0.461
0.56,31981.3,35045.9,-0.3313,0.537,147.4,98.5,0.461
0.58,31987.1,35002.3,-0.2301,0.0186,147.4,98.5,0.461
0.6,31916.9,35038.5,-1.4524,0.4488,147.4,98.5,0.461
0.62,32048.3,34908.3,0.8355,-1.0997,147.4,98.5,0.461
0.64,32016.6,34889.7,0.2834,-1.3207,147.4,98.5,0.461
0.66,31959.4,34900.7,-0.7123,-1.1904,147.4,98.5,0.461
0.68,31861.9,34967.0,-2.4109,-0.4011,147.4,98.5,0.461
0.7,32076.3,34951.3,1.3234,-0.5884,147.4,98.5,0.461
0.72,31938.9,34928.5,-1.07,-0.8595,147.4,98.5,0.461
0.74,31954.6,34893.8,-0.7954,-1.273,147.4,98.5,0.461
0.76,31946.1,34869.1,-0.9444,-1.5659,147.4,98.5,0.461
0.78,31950.5,35019.1,-0.868,0.218,147.4,98.5,0.461
0.8,32032.3,34991.4,0.5569,-0.111,147.4,98.5,0.461
0.82,31994.5,35072.4,-0.102,0.8525,147.4,98.5,0.461
0.84,32040.6,35085.7,0.7011,1.0106,147.4,98.5,0.461
0.86,32066.4,35172.6,1.1506,2.045,147.4,98.5,0.461
0.88,32022.8,35130.8,0.3909,1.5475,147.4,98.5,0.461
0.9,32078.2,34953.7,1.357,-0.5594,147.4,98.5,0.461
0.92,32075.6,35070.5,1.3107,0.8301,147.4,98.5,0.461
0.94,32041.9,35084.0,0.7241,0.991,147.4,98.5,0.461
0.96,31973.1,35038.1,-0.474,0.4449,147.4,98.5,0.461
0.98,32079.5,35058.1,1.3786,0.6829,147.4,98.5,0.461
1.0,32020.8,34960.9,0.3565,-0.4736,147.4,98.5,0.461
1.02,31996.5,35013.3,-0.0669,0.15,147.4,98.5,0.461
1.04,32014.5,34925.5,0.2473,-0.8954,147.4,98.5,0.461
1.06,31975.8,34918.2,-0.4265,-0.9824,147.4,98.5,0.461
1.08,31920.2,34943.1,-1.3956,-0.6862,147.4,98.5,0.461
1.1,31919.4,34924.1,-1.4084,-0.9115,147.4,98.5,0.461
1.12,32054.1,34975.9,0.9359,-0.2952,147.4,98.5,0.461
1.14,31911.3,34873.4,-1.5496,-1.5152,147.4,98.5,0.461
1.16,32015.4,34958.4,0.2623,-0.5038,147.4,98.5,0.461
1.18,31981.9,34950.8,-0.3209,-0.5937,147.4,98.5,0.461
1.2,31887.0,35012.3,-1.9729,0.1372,147.4,98.5,0.461
1.22,31996.4,35089.4,-0.0689,1.0545,147.4,98.5,0.461
1.24,32184.7,35099.5,3.2115,1.1751,147.4,98.5,0.461
1.26,32026.4,35089.4,0.4543,1.0551,147.4,98.5,0.461
1.28,31992.6,35096.5,-0.135,1.1391,147.4,98.5,0.461
1.3,32073.7,35123.9,1.2773,1.4661,147.4,98.5,0.461
1.32,31920.9,35074.1,-1.3833,0.8727,147.4,98.5,0.461
1.34,32050.8,34983.3,0.8792,-0.2076,147.4,98.5,0.461
1.36,32045.6,34953.5,0.7884,-0.5617,147.4,98.5,0.461
1.38,32086.4,35053.8,1.4988,0.6314,147.4,98.5,0.461
1.4,31986.8,34997.4,-0.2352,-0.0403,147.4,98.5,0.461
1.42,31931.4,34933.3,-1.2007,-0.803,147.4,98.5,0.461
1.44,32016.8,34960.4,0.2877,-0.48,147.4,98.5,0.461
1.46,32006.5,34927.3,0.1077,-0.8734,147.4,98.5,0.461
1.48,32061.6,34915.4,1.0669,-1.0155,147.4,98.5,0.461
1.5,32007.0,34911.8,0.1168,-1.0582,147.4,98.5,0.461
1.52,31978.3,34945.7,-0.384,-0.6553,147.4,98.5,0.461
1.54,31967.1,34844.4,-0.579,-1.8608,147.4,98.5,0.461
1.56,31986.6,34855.2,-0.2382,-1.7321,147.4,98.5,0.461
1.58,31949.8,34920.6,-0.879,-0.9531,147.4,98.5,0.461
1.6,31966.6,34928.3,-0.5871,-0.8616,147.4,98.5,0.461
1.62,31934.9,34983.3,-1.14,-0.2081,147.4,98.5,0.461
1.64,32024.6,35193.3,0.4231,2.2914,147.4,98.5,0.461
1.66,32031.0,35132.2,0.535,1.5642,147.4,98.5,0.461
1.68,31981.2,35186.3,-0.3334,2.2086,147.4,98.5,0.461
1.7,32089.2,35084.0,1.5472,0.9905,147.4,98.5,0.461
1.72,32078.4,35096.8,1.3599,1.1437,147.4,98.5,0.461
1.74,32015.2,35121.6,0.26,1.4384,147.4,98.5,0.461
1.76,32002.0,35000.7,0.0289,-0.0002,147.4,98.5,0.461
1.78,32071.7,35096.4,1.2425,1.1379,147.4,98.5,0.461
1.8,31986.6,34966.9,-0.2384,-0.4023,147.4,98.5,0.461
1.82,31982.1,34940.4,-0.3179,-0.7179,147.4,98.5,0.461
1.84,32064.0,35056.6,1.1085,0.6653,147.4,98.5,0.461
1.86,31932.3,34910.6,-1.1849,-1.0726,147.4,98.5,0.461
1.88,31906.6,34922.7,-1.6323,-0.9292,147.4,98.5,0.461
1.9,32000.5,34953.0,0.0023,-0.5684,147.4,98.5,0.461
1.92,31967.8,34933.5,-0.566,-0.7997,147.4,98.5,0.461
1.94,31964.0,34946.6,-0.6331,-0.6437,147.4,98.5,0.461
1.96,31936.6,34899.7,-1.1091,-1.2019,147.4,98.5,0.461
1.98,31975.8,34949.0,-0.4265,-0.6151,147.4,98.5,0.461
2.0,31976.1,35014.1,-0.421,0.1591,147.4,98.5,0.461
2.02,31999.9,34907.4,-0.008,-1.1113,147.4,98.5,0.461
2.04,32037.2,35081.7,0.6418,0.9636,147.4,98.5,0.461
2.06,31980.6,35149.8,-0.3438,1.7732,147.4,98.5,0.461
2.08,32065.2,35177.3,1.1303,2.1014,147.4,98.5,0.461
2.1,31992.9,35093.5,-0.1295,1.1042,147.4,98.5,0.461
2.12,32051.9,35047.6,0.8981,0.5572,147.4,98.5,0.461
2.14,31966.1,35055.7,-0.5966,0.6546,147.4,98.5,0.461
2.16,32027.2,35019.8,0.4684,0.2264,147.4,98.5,0.461
2.18,32017.1,34966.3,0.2918,-0.4103,147.4,98.5,0.461
2.2,32129.4,35109.6,2.248,1.295,147.4,98.5,0.461
2.22,31933.2,35028.9,-1.1697,0.3357,147.4,98.5,0.461
2.24,31922.3,35049.5,-1.359,0.5804,147.4,98.5,0.461
2.26,32068.4,35005.8,1.1864,0.06,147.4,98.5,0.461
2.28,31883.1,34972.8,-2.0405,-0.332,147.4,98.5,0.461
2.3,31961.0,34858.2,-0.6839,-1.6958,147.4,98.5,0.461
2.32,32027.1,34900.5,0.4657,-1.193,147.4,98.5,0.461
2.34,31976.1,34953.7,-0.4221,-0.56,147.4,98.5,0.461
2.36,31945.3,34968.0,-0.9581,-0.3894,147.4,98.5,0.461
2.38,31887.4,34873.4,-1.9665,-1.5152,147.4,98.5,0.461
2.4,31955.3,34851.7,-0.7832,-1.773,147.4,98.5,0.461
2.42,31994.6,34958.0,-0.0996,-0.5081,147.4,98.5,0.461
2.44,32083.8,34935.0,1.4544,-0.7827,147.4,98.5,0.461
2.46,32019.5,35010.3,0.3342,0.1138,147.4,98.5,0.461
2.48,32049.3,35129.9,0.8529,1.5374,147.4,98.5,0.461
2.5,32046.3,35160.1,0.8005,1.8965,147.4,98.5,0.461
2.52,32095.8,35156.1,1.6625,1.8482,147.4,98.5,0.461
2.54,32035.9,35081.8,0.6201,0.9651,147.4,98.5,0.461
2.56,32051.0,35080.6,0.8835,0.9498,147.4,98.5,0.461
2.58,32020.1,34988.3,0.3444,-0.1477,147.4,98.5,0.461
2.6,32047.3,34972.7,0.8186,-0.3333,147.4,98.5,0.461
2.62,31949.3,35037.8,-0.8879,0.4407,147.4,98.5,0.461
2.64,32029.4,35024.2,0.5058,0.2795,147.4,98.5,0.461
2.66,32025.5,35006.8,0.4381,0.0722,147.4,98.5,0.461
2.68,31986.0,34896.8,-0.2498,-1.2365,147.4,98.5,0.461
2.7,31967.0,34890.2,-0.5803,-1.3153,147.4,98.5,0.461
2.72,32037.1,34944.5,0.6406,-0.6687,147.4,98.5,0.461
2.74,31970.7,34960.4,-0.515,-0.4801,147.4,98.5,0.461
2.76,31940.5,34983.3,-1.0414,-0.2071,147.4,98.5,0.461
2.78,31876.2,34921.2,-2.161,-0.9459,147.4,98.5,0.461
2.8,32008.9,34933.8,0.1488,-0.797,147.4,98.5,0.461
2.82,31918.8,34868.2,-1.4195,-1.5774,147.4,98.5,0.461
2.84,32050.6,35003.9,0.8756,0.0379,147.4,98.5,0.461
2.86,31950.2,35052.1,-0.8727,0.6111,147.4,98.5,0.461
2.88,32134.8,35068.1,2.3422,0.8013,147.4,98.5,0.461
2.9,32006.6,35128.0,0.1096,1.5149,147.4,98.5,0.461
2.92,32096.6,35132.3,1.6759,1.5653,147.4,98.5,0.461
2.94,32037.1,35140.3,0.6402,1.6611,147.4,98.5,0.461
2.96,32024.2,35090.4,0.4162,1.0668,147.4,98.5,0.461
2.98,31960.0,34950.1,-0.7028,-0.6021,147.4,98.5,0.461
3.0,32043.4,34982.0,0.7495,-0.2227,147.4,98.5,0.461
3.02,31995.2,35022.7,-0.0884,0.261,147.4,98.5,0.461
3.04,32077.0,34965.8,1.3362,-0.4162,147.4,98.5,0.461
3.06,32038.9,34974.7,0.6721,-0.3099,147.4,98.5,0.461
3.08,32041.4,34902.1,0.7158,-1.174,147.4,98.5,0.461
3.1,31956.2,34911.4,-0.7686,-1.063,147.4,98.5,0.461
3.12,31997.2,35016.4,-0.0545,0.1858,147.4,98.5,0.461
3.14,32014.8,34870.8,0.2528,-1.5458,147.4,98.5,0.461
3.16,31996.4,34940.4,-0.0678,-0.718,147.4,98.5,0.461
3.18,31977.9,34993.3,-0.3908,-0.0884,147.4,98.5,0.461
3.2,32018.0,34964.5,0.3074,-0.4312,147.4,98.5,0.461
3.22,31895.6,34915.6,-1.8242,-1.0134,147.4,98.5,0.461
3.24,32063.0,34913.5,1.0915,-1.0384,147.4,98.5,0.461
3.26,32026.2,35098.8,0.4511,1.167,147.4,98.5,0.461
3.28,32106.6,35118.9,1.8509,1.4061,147.4,98.5,0.461
3.3,32136.1,35041.7,2.3646,0.4871,147.4,98.5,0.461
3.32,32133.1,35195.9,2.3127,2.3226,147.4,98.5,0.461
3.34,31993.9,35144.4,-0.1117,1.7092,147.4,98.5,0.461
3.36,31979.6,35039.9,-0.3603,0.4657,147.4,98.5,0.461
3.38,32013.1,35031.6,0.2234,0.3669,147.4,98.5,0.461
3.4,31964.0,35061.3,-0.6329,0.7202,147.4,98.5,0.461
3.42,32062.3,34960.0,1.0794,-0.4851,147.4,98.5,0.461
3.44,32117.1,34974.8,2.0335,-0.3087,147.4,98.5,0.461
3.46,32004.1,35020.2,0.0666,0.2313,147.4,98.5,0.461
3.48,32009.7,34866.6,0.1627,-1.5959,147.4,98.5,0.461
3.5,32014.7,34994.4,0.2509,-0.0757,147.4,98.5,0.461
3.52,32058.0,34970.5,1.0049,-0.3602,147.4,98.5,0.461
3.54,32010.8,34917.3,0.1833,-0.9924,147.4,98.5,0.461
3.56,31943.1,34993.6,-0.9964,-0.0846,147.4,98.5,0.461
3.58,31947.8,34941.4,-0.9153,-0.7057,147.4,98.5,0.461
3.6,31892.6,34888.2,-1.8758,-1.3396,147.4,98.5,0.461
3.62,32002.3,34844.8,0.0348,-1.8551,147.4,98.5,0.461
3.64,32022.0,34900.8,0.3778,-1.1893,147.4,98.5,0.461
3.66,31973.1,35007.6,-0.4733,0.0812,147.4,98.5,0.461
3.68,32032.1,35012.4,0.5531,0.1386,147.4,98.5,0.461
3.7,32061.4,35155.3,1.0633,1.8397,147.4,98.5,0.461
3.72,32034.4,35074.3,0.5928,0.876,147.4,98.5,0.461
3.74,31978.0,35111.5,-0.3884,1.3186,147.4,98.5,0.461
3.76,32056.0,35030.2,0.9698,0.3511,147.4,98.5,0.461
3.78,32022.3,34956.7,0.3825,-0.5241,147.4,98.5,0.461
3.8,31980.5,35003.5,-0.3453,0.0334,147.4,98.5,0.461
3.82,31903.4,34916.1,-1.6872,-1.0074,147.4,98.5,0.461
3.84,32004.5,35036.9,0.0727,0.4298,147.4,98.5,0.461
3.86,31951.5,34985.3,-0.8507,-0.1839,147.4,98.5,0.461
3.88,31955.5,34986.2,-0.7808,-0.1734,147.4,98.5,0.461
3.9,32019.7,35007.1,0.3384,0.0762,147.4,98.5,0.461
3.92,32036.3,34931.6,0.6274,-0.823,147.4,98.5,0.461
3.94,31973.5,35013.5,-0.4677,0.1514,147.4,98.5,0.461
3.96,32059.8,34891.9,1.0364,-1.2954,147.4,98.5,0.461
3.98,31997.7,34993.2,-0.0448,-0.0896,147.4,98.5,0.461
4.0,31925.0,34897.5,-1.3121,-1.2281,147.4,98.5,0.461
4.02,31949.6,34922.2,-0.8827,-0.9343,147.4,98.5,0.461
4.04,32027.7,34950.6,0.4775,-0.5971,147.4,98.5,0.461
4.06,32004.5,35127.2,0.0726,1.5048,147.4,98.5,0.461
4.08,32054.7,35060.5,0.9469,0.7117,147.4,98.5,0.461
4.1,32017.1,35056.1,0.2931,0.6585,147.4,98.5,0.461
4.12,32044.5,35086.4,0.7698,1.0191,147.4,98.5,0.461
4.14,32088.5,35007.3,1.5353,0.0783,147.4,98.5,0.461
4.16,32001.3,35105.4,0.0171,1.2459,147.4,98.5,0.461
4.18,31984.3,35126.5,-0.2787,1.4963,147.4,98.5,0.461
4.2,32020.8,35065.5,0.3566,0.7703,147.4,98.5,0.461
4.22,32057.0,35010.1,0.988,0.1111,147.4,98.5,0.461
4.24,32082.6,35055.1,1.4325,0.6463,147.4,98.5,0.461
4.26,32085.6,35040.4,1.4853,0.4714,147.4,98.5,0.461
4.28,31898.2,35039.8,-1.7791,0.4654,147.4,98.5,0.461
4.3,31908.6,35031.3,-1.5975,0.3641,147.4,98.5,0.461
4.32,31957.4,34941.7,-0.7477,-0.7031,147.4,98.5,0.461
4.34,31909.5,34903.2,-1.5822,-1.1608,147.4,98.5,0.461
4.36,31950.3,34912.0,-0.871,-1.0563,147.4,98.5,0.461
4.38,32030.4,34899.6,0.5241,-1.2041,147.4,98.5,0.461
4.4,31961.5,34910.4,-0.676,-1.075,147.4,98.5,0.461
4.42,32048.0,34921.7,0.8307,-0.9405,147.4,98.5,0.461
4.44,32107.0,34852.9,1.858,-1.7592,147.4,98.5,0.461
4.46,32110.4,34979.0,1.9166,-0.2586,147.4,98.5,0.461
4.48,32044.5,35082.5,0.7702,0.9729,147.4,98.5,0.461
4.5,32040.8,35059.2,0.7055,0.6955,147.4,98.5,0.461
4.52,32017.9,35063.2,0.3062,0.7436,147.4,98.5,0.461
4.54,32075.4,35084.1,1.3077,0.9922,147.4,98.5,0.461
4.56,32025.3,34957.2,0.4344,-0.5179,147.4,98.5,0.461
4.58,31937.0,35044.2,-1.1022,0.5171,147.4,98.5,0.461
4.6,32107.1,35063.5,1.8604,0.7463,147.4,98.5,0.461
4.62,32011.9,34998.6,0.2016,-0.0255,147.4,98.5,0.461
4.64,31973.8,35007.9,-0.4614,0.0856,147.4,98.5,0.461
4.66,32014.5,34939.2,0.2469,-0.7324,147.4,98.5,0.461
4.68,32060.9,34996.3,1.0552,-0.0528,147.4,98.5,0.461
4.7,31877.2,35007.6,-2.1442,0.0818,147.4,98.5,0.461
4.72,31991.8,34901.0,-0.1491,-1.1871,147.4,98.5,0.461
4.74,32113.0,34978.6,1.9623,-0.2634,147.4,98.5,0.461
4.76,31938.0,34891.1,-1.0849,-1.3051,147.4,98.5,0.461
4.78,31812.2,34974.0,-3.2759,-0.3182,147.4,98.5,0.461
4.8,31874.6,34856.6,-2.1888,-1.7154,147.4,98.5,0.461
4.82,31997.0,34923.1,-0.0574,-0.9236,147.4,98.5,0.461
4.84,32000.7,34918.0,0.0066,-0.985,147.4,98.5,0.461
4.86,31963.2,34973.4,-0.646,-0.3251,147.4,98.5,0.461
4.88,32030.5,35011.0,0.5262,0.1223,147.4,98.5,0.461
4.9,32084.8,35080.4,1.4718,0.948,147.4,98.5,0.461
4.92,32051.8,35090.1,0.8961,1.0629,147.4,98.5,0.461
4.94,32039.4,35095.7,0.6805,1.1297,147.4,98.5,0.461
4.96,32081.3,35178.1,1.4106,2.1104,147.4,98.5,0.461
4.98,31993.3,35130.8,-0.1225,1.5481,147.4,98.5,0.461
5.0,32068.0,35178.0,1.1792,2.1097,147.4,98.5,0.461
5.02,31965.5,35045.2,-0.6066,0.5288,147.4,98.5,0.461
5.04,32028.6,34921.3,0.4929,-0.9452,147.4,98.5,0.461
5.06,31930.7,35026.7,-1.2117,0.3086,147.4,98.5,0.461
5.08,31993.0,35031.0,-0.1277,0.3601,147.4,98.5,0.461
5.1,31929.5,34957.2,-1.2332,-0.518,147.4,98.5,0.461
5.12,31938.2,35068.5,-1.0826,0.8058,147.4,98.5,0.461
5.14,31972.3,35042.4,-0.4882,0.4955,147.4,98.5,0.461
5.16,31966.2,34959.9,-0.5945,-0.4865,147.4,98.5,0.461
5.18,31913.5,34955.7,-1.5115,-0.5355,147.4,98.5,0.461
5.2,31906.9,34993.0,-1.6274,-0.0916,147.4,98.5,0.461
5.22,31948.0,34893.3,-0.9106,-1.2779,147.4,98.5,0.461
5.24,31897.3,34950.6,-1.7948,-0.5972,147.4,98.5,0.461
5.26,32016.9,34974.0,0.2887,-0.3179,147.4,98.5,0.461
5.28,31954.3,35011.9,-0.802,0.1333,147.4,98.5,0.461
5.3,32151.2,35097.2,2.6275,1.1478,147.4,98.5,0.461
5.32,31956.8,35154.7,-0.7574,1.8325,147.4,98.5,0.461
5.34,31999.7,35093.2,-0.0105,1.1005,147.4,98.5,0.461
5.36,32086.3,35125.2,1.4972,1.4816,147.4,98.5,0.461
5.38,32009.5,35054.3,0.1591,0.6377,147.4,98.5,0.461
5.4,31997.4,35061.9,-0.0506,0.7276,147.4,98.5,0.461
5.42,31984.3,35058.4,-0.2798,0.6866,147.4,98.5,0.461
5.44,31945.5,34995.0,-0.9539,-0.0681,147.4,98.5,0.461
5.46,31959.4,35029.6,-0.7134,0.343,147.4,98.5,0.461
5.48,32012.5,34955.9,0.2118,-0.534,147.4,98.5,0.461
5.5,31969.3,34966.1,-0.5402,-0.4123,147.4,98.5,0.461
5.52,32087.8,34931.9,1.5227,-0.8195,147.4,98.5,0.461
5.54,32025.6,34927.5,0.4399,-0.8716,147.4,98.5,0.461
5.56,31998.3,34879.1,-0.036,-1.4475,147.4,98.5,0.461
5.58,32004.3,34979.9,0.0696,-0.2476,147.4,98.5,0.461
5.6,31882.1,34891.0,-2.0587,-1.3053,147.4,98.5,0.461
5.62,31926.1,34950.0,-1.2922,-0.6041,147.4,98.5,0.461
5.64,31941.7,34888.1,-1.0215,-1.3405,147.4,98.5,0.461
5.66,32025.8,35007.6,0.4434,0.0814,147.4,98.5,0.461
5.68,32011.4,34975.3,0.1923,-0.3031,147.4,98.5,0.461
5.7,31951.0,35062.2,-0.8586,0.7309,147.4,98.5,0.461
5.72,32025.9,35073.4,0.4457,0.8643,147.4,98.5,0.461
5.74,32012.1,35118.7,0.2059,1.4033,147.4,98.5,0.461
5.76,32152.3,35027.0,2.6473,0.3122,147.4,98.5,0.461
5.78,32004.9,35063.7,0.0804,0.7494,147.4,98.5,0.461
5.8,31928.9,35070.7,-1.2444,0.8323,147.4,98.5,0.461
5.82,32074.7,35089.2,1.2957,1.0529,147.4,98.5,0.461
5.84,32021.2,35080.4,0.3632,0.9481,147.4,98.5,0.461
5.86,31900.5,35055.1,-1.7379,0.6474,147.4,98.5,0.461
5.88,32078.8,35024.6,1.3668,0.284,147.4,98.5,0.461
5.9,31918.4,34922.0,-1.4274,-0.9366,147.4,98.5,0.461
5.92,31973.3,35004.9,-0.4708,0.0495,147.4,98.5,0.461
5.94,31935.0,35006.1,-1.1368,0.0641,147.4,98.5,0.461
5.96,31983.6,34994.7,-0.2911,-0.0718,147.4,98.5,0.461
5.98,32050.7,35011.6,0.8775,0.1298,147.4,98.5,0.461
6.0,32011.6,35002.3,0.1959,0.0184,147.4,98.5,0.461
6.02,31943.0,34898.9,-0.9975,-1.2122,147.4,98.5,0.461
6.04,31884.8,34933.1,-2.0125,-0.8046,147.4,98.5,0.461
6.06,32061.0,34902.9,1.0563,-1.1643,147.4,98.5,0.461
6.08,32035.1,35090.0,0.6062,1.0618,147.4,98.5,0.461
6.1,32040.5,35066.0,0.6996,0.7761,147.4,98.5,0.461
6.12,32029.8,35069.9,0.5137,0.8224,147.4,98.5,0.461
6.14,32040.7,35112.0,0.7029,1.3243,147.4,98.5,0.461
6.16,32066.0,35116.0,1.1445,1.3719,147.4,98.5,0.461
6.18,32032.8,35131.5,0.5652,1.5556,147.4,98.5,0.461
6.2,32087.9,35041.7,1.526,0.4877,147.4,98.5,0.461
6.22,31947.4,35046.2,-0.922,0.5404,147.4,98.5,0.461
6.24,31944.5,35015.4,-0.9714,0.1745,147.4,98.5,0.461
6.26,32018.2,35032.3,0.3106,0.3759,147.4,98.5,0.461
6.28,32010.7,35050.6,0.1807,0.5938,147.4,98.5,0.461
6.3,31963.7,34987.8,-0.6378,-0.1538,147.4,98.5,0.461
6.32,32073.9,34980.8,1.2807,-0.2367,147.4,98.5,0.461
6.34,32006.4,34944.1,0.106,-0.6741,147.4,98.5,0.461
6.36,32006.8,34866.6,0.1133,-1.596,147.4,98.5,0.461
6.38,31970.5,35005.4,-0.519,0.0552,147.4,98.5,0.461
6.4,32016.1,34888.3,0.2747,-1.3375,147.4,98.5,0.461
6.42,31977.3,34994.6,-0.4008,-0.0733,147.4,98.5,0.461
6.44,31876.2,34902.5,-2.1619,-1.1693,147.4,98.5,0.461
6.46,31899.0,34834.3,-1.7644,-1.9809,147.4,98.5,0.461
6.48,31998.3,34915.0,-0.0344,-1.0199,147.4,98.5,0.461
6.5,32004.2,35006.4,0.0668,0.067,147.4,98.5,0.461
6.52,32007.9,35035.7,0.1318,0.416,147.4,98.5,0.461
6.54,32035.6,35189.4,0.6137,2.2456,147.4,98.5,0.461
6.56,32032.7,35146.7,0.5646,1.7369,147.4,98.5,0.461
6.58,32068.5,35064.3,1.1872,0.7564,147.4,98.5,0.461
6.6,32068.4,35195.7,1.1853,2.3203,147.4,98.5,0.461
6.62,32015.0,35091.6,0.2552,1.0813,147.4,98.5,0.461
6.64,31992.8,35041.6,-0.1314,0.4864,147.4,98.5,0.461
6.66,32070.5,35081.1,1.2224,0.9567,147.4,98.5,0.461
6.68,31960.0,34932.4,-0.7028,-0.8128,147.4,98.5,0.461
6.7,31988.7,34966.8,-0.2029,-0.4044,147.4,98.5,0.461
6.72,31989.6,35004.4,-0.1866,0.0434,147.4,98.5,0.461
6.74,31940.5,34885.7,-1.0423,-1.3691,147.4,98.5,0.461
6.76,31984.9,34932.5,-0.2691,-0.8126,147.4,98.5,0.461
6.78,32032.9,34963.7,0.5678,-0.441,147.4,98.5,0.461
6.8,31942.2,34877.5,-1.0113,-1.4664,147.4,98.5,0.461
6.82,31991.9,34888.2,-0.1474,-1.3394,147.4,98.5,0.461
6.84,32018.3,34880.8,0.3127,-1.4276,147.4,98.5,0.461
6.86,31969.2,34879.4,-0.5422,-1.4435,147.4,98.5,0.461
6.88,31946.9,34884.1,-0.9309,-1.3885,147.4,98.5,0.461
6.9,32010.9,35104.4,0.1849,1.2336,147.4,98.5,0.461
6.92,32029.6,35000.5,0.5095,-0.0025,147.4,98.5,0.461
6.94,32069.0,35039.5,1.1961,0.4611,147.4,98.5,0.461
6.96,32096.0,35158.8,1.6667,1.8811,147.4,98.5,0.461
6.98,32132.7,35139.5,2.3055,1.6512,147.4,98.5,0.461
7.0,32063.7,35111.3,1.104,1.3162,147.4,98.5,0.461
7.02,31949.5,35053.3,-0.8843,0.6252,147.4,98.5,0.461
7.04,32001.5,35022.1,0.0211,0.2539,147.4,98.5,0.461
7.06,32036.4,34984.8,0.6287,-0.1898,147.4,98.5,0.461
7.08,32002.4,34993.2,0.0367,-0.0895,147.4,98.5,0.461
7.1,31988.8,34995.2,-0.2008,-0.066,147.4,98.5,0.461
7.12,32030.0,34941.1,0.5172,-0.7091,147.4,98.5,0.461
7.14,31885.3,34896.2,-2.0024,-1.2437,147.4,98.5,0.461
7.16,31944.5,34947.7,-0.9713,-0.6306,147.4,98.5,0.461
7.18,31992.6,34976.2,-0.1351,-0.2924,147.4,98.5,0.461
7.2,32052.0,34975.0,0.8997,-0.3058,147.4,98.5,0.461
7.22,31916.6,34894.3,-1.4573,-1.2671,147.4,98.5,0.461
7.24,31920.2,34961.9,-1.3955,-0.4625,147.4,98.5,0.461
7.26,31902.4,34976.8,-1.7058,-0.2848,147.4,98.5,0.461
7.28,31965.8,35011.0,-0.6018,0.1224,147.4,98.5,0.461
7.3,31995.0,34997.3,-0.0929,-0.0409,147.4,98.5,0.461
7.32,31973.4,35071.2,-0.4681,0.8385,147.4,98.5,0.461
7.34,32110.8,35090.8,1.9246,1.0714,147.4,98.5,0.461
7.36,32021.5,35082.7,0.3695,0.975,147.4,98.5,0.461
7.38,32013.1,35119.8,0.2224,1.4163,147.4,98.5,0.461
7.4,32075.4,35110.8,1.3083,1.3092,147.4,98.5,0.461
7.42,32034.9,35063.5,0.6022,0.7474,147.4,98.5,0.461
7.44,31987.3,35065.3,-0.2259,0.7677,147.4,98.5,0.461
7.46,31969.3,35032.5,-0.5394,0.3783,147.4,98.5,0.461
7.48,32043.2,34949.4,0.7463,-0.6109,147.4,98.5,0.461
7.5,31956.8,34931.7,-0.7582,-0.8215,147.4,98.5,0.461
7.52,32038.6,35003.7,0.6675,0.035,147.4,98.5,0.461
7.54,32053.7,35004.8,0.929,0.0485,147.4,98.5,0.461
7.56,31968.2,34965.5,-0.5586,-0.4191,147.4,98.5,0.461
7.58,32026.1,34857.4,0.4489,-1.7054,147.4,98.5,0.461
7.6,31936.2,34910.0,-1.1171,-1.0803,147.4,98.5,0.461
7.62,31945.1,34853.7,-0.9622,-1.7501,147.4,98.5,0.461
7.64,31954.9,34995.0,-0.7908,-0.0685,147.4,98.5,0.461
7.66,32011.3,34916.8,0.1911,-0.9984,147.4,98.5,0.461
7.68,32005.7,34952.6,0.0934,-0.5733,147.4,98.5,0.461
7.7,32032.0,34948.3,0.5522,-0.6244,147.4,98.5,0.461
7.72,31952.5,34999.2,-0.8328,-0.0182,147.4,98.5,0.461
7.74,32012.9,35119.6,0.2183,1.414,147.4,98.5,0.461
7.76,31989.7,35194.6,-0.1846,2.3073,147.4,98.5,0.461
7.78,32021.5,35052.4,0.3696,0.6143,147.4,98.5,0.461
7.8,32073.5,35111.5,1.2752,1.3183,147.4,98.5,0.461
7.82,32079.7,35102.1,1.383,1.206,147.4,98.5,0.461
7.84,31975.6,35062.7,-0.4312,0.7378,147.4,98.5,0.461
7.86,32017.8,35077.0,0.305,0.9078,147.4,98.5,0.461
7.88,32123.4,34968.2,2.1432,-0.3868,147.4,98.5,0.461
7.9,32024.8,35074.3,0.4272,0.8759,147.4,98.5,0.461
7.92,32024.7,34978.7,0.4255,-0.2617,147.4,98.5,0.461
7.94,31993.5,35013.7,-0.1187,0.154,147.4,98.5,0.461
7.96,32060.1,34920.6,1.0409,-0.9539,147.4,98.5,0.461
7.98,31999.9,34944.2,-0.0076,-0.6731,147.4,98.5,0.461
8.0,32000.6,34935.8,0.0041,-0.7723,147.4,98.5,0.461
8.02,31958.7,34948.7,-0.7256,-0.6197,147.4,98.5,0.461
8.04,31908.7,34865.2,-1.5952,-1.613,147.4,98.5,0.461
8.06,31895.7,34873.7,-1.8215,-1.5119,147.4,98.5,0.461
8.08,32082.1,34957.0,1.4237,-0.5199,147.4,98.5,0.461
8.1,31981.3,34936.2,-0.3315,-0.7678,147.4,98.5,0.461
8.12,31975.1,35019.6,-0.4397,0.2244,147.4,98.5,0.461
8.14,32008.9,35041.8,0.15,0.489,147.4,98.5,0.461
8.16,32046.3,34967.8,0.8006,-0.3917,147.4,98.5,0.461
8.18,32051.4,35125.4,0.8895,1.4836,147.4,98.5,0.461
8.2,31994.0,35065.9,-0.1093,0.7755,147.4,98.5,0.461
8.22,32078.8,35081.2,1.3664,0.9569,147.4,98.5,0.461
8.24,31965.0,35107.6,-0.6153,1.2721,147.4,98.5,0.461
8.26,31933.4,35062.9,-1.1649,0.7396,147.4,98.5,0.461
8.28,32043.7,35028.6,0.7562,0.3321,147.4,98.5,0.461
8.3,32020.7,35094.4,0.3557,1.1151,147.4,98.5,0.461
8.32,31964.5,34935.8,-0.6236,-0.7727,147.4,98.5,0.461
8.34,31977.9,34963.0,-0.391,-0.4489,147.4,98.5,0.461
8.36,31970.3,35050.7,-0.523,0.594,147.4,98.5,0.461
8.38,31880.6,34989.3,-2.0851,-0.136,147.4,98.5,0.461
8.4,31995.3,34946.9,-0.0872,-0.6408,147.4,98.5,0.461
8.42,32051.9,34942.4,0.8982,-0.694,147.4,98.5,0.461
8.44,31967.4,34953.1,-0.5737,-0.5673,147.4,98.5,0.461
8.46,31978.8,34899.2,-0.3751,-1.2086,147.4,98.5,0.461
8.48,31933.9,34976.9,-1.1569,-0.284,147.4,98.5,0.461
8.5,32052.2,34902.1,0.9033,-1.1741,147.4,98.5,0.461
8.52,31936.5,34947.8,-1.1116,-0.63,147.4,98.5,0.461
8.54,31987.4,34969.2,-0.2247,-0.3758,147.4,98.5,0.461
8.56,32111.4,35028.4,1.9352,0.3295,147.4,98.5,0.461
8.58,32020.2,35136.8,0.3469,1.6196,147.4,98.5,0.461
8.6,32122.0,35188.7,2.1186,2.2365,147.4,98.5,0.461
8.62,32002.2,35080.7,0.0324,0.9517,147.4,98.5,0.461
8.64,32080.8,35126.3,1.402,1.4944,147.4,98.5,0.461
8.66,32062.9,34960.9,1.0892,-0.4745,147.4,98.5,0.461
8.68,31933.4,34929.8,-1.165,-0.8446,147.4,98.5,0.461
8.7,31993.3,34992.1,-0.123,-0.1026,147.4,98.5,0.461
8.72,31999.2,35016.5,-0.0195,0.1877,147.4,98.5,0.461
8.74,32134.3,35004.0,2.3332,0.0389,147.4,98.5,0.461
8.76,31908.7,34961.4,-1.5951,-0.4684,147.4,98.5,0.461
8.78,31966.3,35038.5,-0.5922,0.4499,147.4,98.5,0.461
8.8,32009.2,34972.9,0.1541,-0.3318,147.4,98.5,0.461
8.82,31989.3,34984.0,-0.1919,-0.1994,147.4,98.5,0.461
8.84,31944.7,34988.7,-0.9685,-0.1431,147.4,98.5,0.461
8.86,32029.0,34956.5,0.4996,-0.5261,147.4,98.5,0.461
8.88,31915.1,34917.2,-1.4837,-0.9938,147.4,98.5,0.461
8.9,31991.6,34989.5,-0.1519,-0.1333,147.4,98.5,0.461
8.92,32031.9,34816.9,0.5506,-2.1882,147.4,98.5,0.461
8.94,32030.2,34956.2,0.5201,-0.5303,147.4,98.5,0.461
8.96,32041.1,35018.1,0.7105,0.2072,147.4,98.5,0.461
8.98,32145.0,35104.2,2.5204,1.2311,147.4,98.5,0.461
9.0,32117.9,35068.9,2.0484,0.8112,147.4,98.5,0.461
9.02,32118.7,35122.4,2.0611,1.4478,147.4,98.5,0.461
9.04,31995.2,35045.3,-0.0887,0.5306,147.4,98.5,0.461
9.06,32052.4,34965.1,0.9071,-0.4244,147.4,98.5,0.461
9.08,32005.8,35066.7,0.0959,0.785,147.4,98.5,0.461
9.1,32079.9,35008.2,1.3868,0.0891,147.4,98.5,0.461
9.12,31929.6,35119.4,-1.2308,1.4124,147.4,98.5,0.461
9.14,32029.9,34945.0,0.5156,-0.6636,147.4,98.5,0.461
9.16,32024.1,35040.7,0.4144,0.4754,147.4,98.5,0.461
9.18,31989.9,34960.1,-0.1811,-0.4832,147.4,98.5,0.461
9.2,31983.3,35044.5,-0.296,0.5213,147.4,98.5,0.461
9.22,32076.2,34946.9,1.3221,-0.6407,147.4,98.5,0.461
9.24,31929.2,35017.0,-1.2377,0.1934,147.4,98.5,0.461
9.26,32003.7,34974.7,0.0586,-0.3093,147.4,98.5,0.461
9.28,31979.8,34888.9,-0.3573,-1.3309,147.4,98.5,0.461
9.3,31924.1,34888.0,-1.3278,-1.3416,147.4,98.5,0.461
9.32,31987.4,34902.7,-0.2257,-1.1672,147.4,98.5,0.461
9.34,31911.7,34859.6,-1.5432,-1.6799,147.4,98.5,0.461
9.36,32106.9,35134.4,1.8568,1.5902,147.4,98.5,0.461
9.38,32030.8,35090.8,0.5309,1.0716,147.4,98.5,0.461
9.4,32058.3,35117.0,1.0096,1.3832,147.4,98.5,0.461
9.42,32013.7,35166.3,0.2325,1.9705,147.4,98.5,0.461
9.44,32041.9,35192.9,0.7244,2.2862,147.4,98.5,0.461
9.46,32083.5,35070.7,1.449,0.8321,147.4,98.5,0.461
9.48,32000.9,34995.4,0.0105,-0.0636,147.4,98.5,0.461
9.5,32051.0,35049.7,0.8827,0.5832,147.4,98.5,0.461
9.52,32061.9,35011.2,1.0716,0.125,147.4,98.5,0.461
9.54,32044.4,34975.0,0.7685,-0.3062,147.4,98.5,0.461
9.56,32089.6,34974.6,1.5548,-0.3109,147.4,98.5,0.461
9.58,31998.5,35023.8,-0.0309,0.2742,147.4,98.5,0.461
9.6,31961.6,34971.0,-0.6746,-0.3542,147.4,98.5,0.461
9.62,31875.7,34928.8,-2.1708,-0.8555,147.4,98.5,0.461
9.64,31962.8,35022.7,-0.6534,0.2614,147.4,98.5,0.461
9.66,31925.9,34884.5,-1.2959,-1.3834,147.4,98.5,0.461
9.68,31912.6,34935.9,-1.5275,-0.7714,147.4,98.5,0.461
9.7,31885.5,34941.1,-2.0004,-0.7093,147.4,98.5,0.461
9.72,31920.3,34810.0,-1.3938,-2.2692,147.4,98.5,0.461
9.74,32009.1,34943.0,0.1533,-0.6866,147.4,98.5,0.461
9.76,32017.5,34978.0,0.2984,-0.2704,147.4,98.5,0.461
9.78,32028.9,35126.7,0.4984,1.4994,147.4,98.5,0.461
9.8,32099.3,35025.7,1.724,0.2974,147.4,98.5,0.461
9.82,31974.9,35131.4,-0.4426,1.5553,147.4,98.5,0.461
9.84,31979.8,35159.3,-0.3572,1.8873,147.4,98.5,0.461
9.86,32096.0,35024.7,1.6663,0.2853,147.4,98.5,0.461
9.88,32010.2,35042.5,0.1727,0.4974,147.4,98.5,0.461
9.9,32084.5,35027.8,1.4655,0.3221,147.4,98.5,0.461
9.92,31984.7,35029.6,-0.2724,0.3436,147.4,98.5,0.461
9.94,32002.6,35019.3,0.0397,0.2209,147.4,98.5,0.461
9.96,32004.1,35089.2,0.0651,1.0527,147.4,98.5,0.461
9.98,32039.5,35052.5,0.6822,0.6154,147.4,98.5,0.461
10.0,32058.9,34920.0,1.0198,-0.9607,147.4,98.5,0.461
10.02,31997.5,34960.9,-0.0493,-0.4745,147.4,98.5,0.461
10.04,32075.1,34921.6,1.3026,-0.9417,147.4,98.5,0.461
10.06,31890.5,34993.7,-1.9131,-0.0841,147.4,98.5,0.461
10.08,31968.1,34958.2,-0.5615,-0.5062,147.4,98.5,0.461
10.1,31894.4,34877.4,-1.8449,-1.4678,147.4,98.5,0.461
10.12,31926.9,34984.9,-1.2791,-0.1882,147.4,98.5,0.461
10.14,32001.2,34974.4,0.0149,-0.3137,147.4,98.5,0.461
10.16,31963.5,35002.1,-0.6419,0.0158,147.4,98.5,0.461
10.18,32030.1,35050.5,0.5183,0.5917,147.4,98.5,0.461
10.2,32048.0,35166.6,0.8306,1.9732,147.4,98.5,0.461
10.22,32019.7,35038.2,0.3378,0.4456,147.4,98.5,0.461
10.24,32047.6,35128.9,0.8238,1.5255,147.4,98.5,0.461
10.26,32067.6,35132.2,1.1723,1.5645,147.4,98.5,0.461
10.28,32046.4,35090.1,0.8027,1.0634,147.4,98.5,0.461
10.3,31964.5,35002.0,-0.6236,0.0154,147.4,98.5,0.461
10.32,32100.3,35040.1,1.7404,0.4681,147.4,98.5,0.461
10.34,31995.3,35043.0,-0.0869,0.5032,147.4,98.5,0.461
10.36,32016.9,34964.1,0.289,-0.4363,147.4,98.5,0.461
10.38,31965.3,35041.6,-0.61,0.4865,147.4,98.5,0.461
10.4,31994.4,34998.2,-0.1031,-0.0302,147.4,98.5,0.461
10.42,31928.3,34968.9,-1.2535,-0.3792,147.4,98.5,0.461
10.44,32015.4,34961.3,0.2629,-0.4692,147.4,98.5,0.461
10.46,31980.4,34878.5,-0.3467,-1.4546,147.4,98.5,0.461
10.48,31987.9,34967.4,-0.2158,-0.3965,147.4,98.5,0.461
10.5,31955.5,34883.2,-0.7807,-1.3983,147.4,98.5,0.461
10.52,31957.6,34886.9,-0.7435,-1.3542,147.4,98.5,0.461
10.54,31975.8,34845.9,-0.4265,-1.8431,147.4,98.5,0.461
10.56,31971.5,35020.3,-0.5024,0.2326,147.4,98.5,0.461
10.58,32024.2,34946.5,0.4161,-0.6456,147.4,98.5,0.461
10.6,31995.0,35100.2,-0.0922,1.1838,147.4,98.5,0.461
10.62,32116.1,35175.2,2.0164,2.0761,147.4,98.5,0.461
10.64,32020.7,35131.1,0.3544,1.5514,147.4,98.5,0.461
10.66,32095.9,35029.8,1.6645,0.3459,147.4,98.5,0.461
10.68,31952.9,35046.2,-0.8256,0.5412,147.4,98.5,0.461
10.7,31888.3,35027.3,-1.9501,0.3164,147.4,98.5,0.461
10.72,31962.2,35060.7,-0.6634,0.7141,147.4,98.5,0.461
10.74,31979.4,34993.0,-0.3647,-0.0925,147.4,98.5,0.461
10.76,31955.2,34983.6,-0.7861,-0.2038,147.4,98.5,0.461
10.78,31921.2,34849.7,-1.378,-1.797,147.4,98.5,0.461
10.8,32095.4,35005.1,1.6553,0.052,147.4,98.5,0.461
10.82,31975.8,34921.8,-0.427,-0.9399,147.4,98.5,0.461
10.84,31898.5,34931.7,-1.7725,-0.8209,147.4,98.5,0.461
10.86,31948.2,34935.4,-0.9082,-0.7771,147.4,98.5,0.461
10.88,31932.9,34949.9,-1.1736,-0.6055,147.4,98.5,0.461
10.9,31885.4,34907.3,-2.0018,-1.1118,147.4,98.5,0.461
10.92,31951.0,34820.5,-0.8593,-2.1448,147.4,98.5,0.461
10.94,31916.0,34895.1,-1.469,-1.2571,147.4,98.5,0.461
10.96,31935.3,34946.1,-1.1325,-0.6505,147.4,98.5,0.461
10.98,31958.7,35074.3,-0.7255,0.8758,147.4,98.5,0.461
11.0,32017.9,34945.5,0.3058,-0.6569,147.4,98.5,0.461
11.02,31998.0,35023.5,-0.0405,0.2703,147.4,98.5,0.461
11.04,32115.4,35123.7,2.0039,1.463,147.4,98.5,0.461
11.06,32048.7,35147.4,0.8425,1.7447,147.4,98.5,0.461
11.08,32079.1,34981.9,1.3716,-0.2237,147.4,98.5,0.461
11.1,31999.8,34984.7,-0.0094,-0.1908,147.4,98.5,0.461
11.12,31985.8,34938.4,-0.2533,-0.7416,147.4,98.5,0.461
11.14,32090.3,35069.8,1.5664,0.8222,147.4,98.5,0.461
11.16,32066.8,34961.8,1.1574,-0.4634,147.4,98.5,0.461
11.18,31973.3,35023.1,-0.4701,0.2655,147.4,98.5,0.461
11.2,32050.6,35006.8,0.8748,0.0717,147.4,98.5,0.461
11.22,32010.3,34991.6,0.1745,-0.1092,147.4,98.5,0.461
11.24,32002.9,34971.1,0.0451,-0.3526,147.4,98.5,0.461
11.26,31991.9,34919.0,-0.1464,-0.9724,147.4,98.5,0.461
11.28,31903.6,34859.9,-1.684,-1.6763,147.4,98.5,0.461
11.3,31989.2,34892.0,-0.1943,-1.2943,147.4,98.5,0.461
11.32,31997.6,34928.2,-0.0471,-0.8629,147.4,98.5,0.461
11.34,31995.3,34935.3,-0.0881,-0.7792,147.4,98.5,0.461
11.36,31877.1,34862.8,-2.1454,-1.6417,147.4,98.5,0.461
11.38,31908.9,34957.7,-1.5921,-0.5118,147.4,98.5,0.461
11.4,31953.5,35108.4,-0.816,1.281,147.4,98.5,0.461
11.42,32022.9,35045.8,0.3936,0.5367,147.4,98.5,0.461
11.44,32079.5,35036.4,1.3799,0.4249,147.4,98.5,0.461
11.46,32004.1,35149.1,0.0654,1.7659,147.4,98.5,0.461
11.48,31979.4,35066.0,-0.3646,0.7769,147.4,98.5,0.461
11.5,32062.8,35041.8,1.0879,0.4882,147.4,98.5,0.461
11.52,31967.4,35085.9,-0.5732,1.0135,147.4,98.5,0.461
11.54,32033.9,35105.9,0.5845,1.2512,147.4,98.5,0.461
11.56,31997.0,35007.9,-0.0571,0.0851,147.4,98.5,0.461
11.58,32028.3,34972.5,0.4868,-0.3362,147.4,98.5,0.461
11.6,32024.3,34910.0,0.4179,-1.0795,147.4,98.5,0.461
11.62,32008.2,34917.0,0.1373,-0.9962,147.4,98.5,0.461
11.64,31995.0,34983.5,-0.0926,-0.2057,147.4,98.5,0.461
11.66,31909.9,34945.8,-1.5744,-0.6536,147.4,98.5,0.461
11.68,32008.9,34914.1,0.1499,-1.0306,147.4,98.5,0.461
11.7,31937.1,34951.5,-1.1007,-0.5856,147.4,98.5,0.461
11.72,31910.9,34872.1,-1.5564,-1.5312,147.4,98.5,0.461
11.74,31922.2,34838.3,-1.36,-1.9329,147.4,98.5,0.461
11.76,31996.9,34921.0,-0.0601,-0.9493,147.4,98.5,0.461
11.78,32134.0,34948.6,2.3273,-0.6205,147.4,98.5,0.461
11.8,31895.5,35038.2,-1.8252,0.4459,147.4,98.5,0.461
11.82,32058.9,35085.6,1.0208,1.0095,147.4,98.5,0.461
11.84,32021.2,35037.2,0.3633,0.4335,147.4,98.5,0.461
11.86,32109.9,35130.8,1.909,1.5475,147.4,98.5,0.461
11.88,32063.6,35073.0,1.1028,0.8593,147.4,98.5,0.461
11.9,31976.1,35071.5,-0.4224,0.8423,147.4,98.5,0.461
11.92,31999.0,35048.2,-0.0231,0.5642,147.4,98.5,0.461
11.94,31945.9,35023.3,-0.9484,0.2688,147.4,98.5,0.461
11.96,32058.6,35045.0,1.0154,0.5268,147.4,98.5,0.461
11.98,31994.9,34996.7,-0.0949,-0.048,147.4,98.5,0.461
12.0,31934.5,35042.7,-1.1458,0.4993,147.4,98.5,0.461
12.02,32050.0,34968.6,0.8653,-0.3822,147.4,98.5,0.461
12.04,31980.8,34966.2,-0.3398,-0.4111,147.4,98.5,0.461
12.06,32032.4,34939.3,0.5594,-0.7307,147.4,98.5,0.461
12.08,32062.7,34954.3,1.0864,-0.5524,147.4,98.5,0.461
12.1,31937.2,34874.7,-1.0998,-1.4993,147.4,98.5,0.461
12.12,31934.1,34868.4,-1.1526,-1.5743,147.4,98.5,0.461
12.14,32026.3,34859.2,0.4526,-1.6847,147.4,98.5,0.461
12.16,31913.0,34968.0,-1.52,-0.3894,147.4,98.5,0.461
12.18,31970.8,35071.5,-0.5135,0.842,147.4,98.5,0.461
12.2,31929.8,35029.6,-1.2284,0.3437,147.4,98.5,0.461
12.22,32039.6,34971.1,0.6834,-0.3531,147.4,98.5,0.461
12.24,32005.3,35105.3,0.0864,1.2446,147.4,98.5,0.461
12.26,32016.2,35124.1,0.2774,1.4681,147.4,98.5,0.461
12.28,32039.6,35117.1,0.685,1.3849,147.4,98.5,0.461
12.3,32032.8,35120.2,0.5649,1.4216,147.4,98.5,0.461
12.32,31995.6,35064.2,-0.0816,0.7552,147.4,98.5,0.461
12.34,32006.4,35055.0,0.1055,0.6455,147.4,98.5,0.461
12.36,31994.8,35080.7,-0.0958,0.9513,147.4,98.5,0.461
12.38,31971.7,34976.7,-0.4982,-0.2856,147.4,98.5,0.461
12.4,32013.5,34966.3,0.2298,-0.4092,147.4,98.5,0.461
12.42,31963.7,35042.4,-0.6382,0.4958,147.4,98.5,0.461
12.44,32022.7,34961.3,0.3903,-0.469,147.4,98.5,0.461
12.46,31983.8,34954.3,-0.2868,-0.5527,147.4,98.5,0.461
12.48,31993.7,34956.1,-0.115,-0.5313,147.4,98.5,0.461
12.5,31887.8,34972.6,-1.96,-0.3346,147.4,98.5,0.461
12.52,31943.9,34976.4,-0.9827,-0.2896,147.4,98.5,0.461
12.54,32084.8,34905.9,1.4717,-1.1285,147.4,98.5,0.461
12.56,31979.5,34957.3,-0.3634,-0.5173,147.4,98.5,0.461
12.58,32006.6,34993.3,0.1096,-0.0885,147.4,98.5,0.461
12.6,31995.8,34958.1,-0.0782,-0.5077,147.4,98.5,0.461
12.62,32001.2,35105.0,0.0152,1.2409,147.4,98.5,0.461
12.64,32045.7,35049.4,0.791,0.5786,147.4,98.5,0.461
12.66,31985.0,35119.4,-0.2672,1.4117,147.4,98.5,0.461
12.68,32079.6,35185.4,1.381,2.1971,147.4,98.5,0.461
12.7,31931.9,35118.0,-1.1912,1.395,147.4,98.5,0.461
12.72,32109.1,35074.4,1.8937,0.877,147.4,98.5,0.461
12.74,31916.1,35076.0,-1.4663,0.8961,147.4,98.5,0.461
12.76,31979.3,34989.9,-0.3653,-0.129,147.4,98.5,0.461
12.78,32056.4,35016.5,0.9769,0.1873,147.4,98.5,0.461
12.8,32064.0,35060.0,1.1088,0.7047,147.4,98.5,0.461
12.82,31958.2,35010.4,-0.7336,0.115,147.4,98.5,0.461
12.84,32139.4,34927.9,2.4219,-0.8665,147.4,98.5,0.461
12.86,32005.2,34936.4,0.0849,-0.7654,147.4,98.5,0.461
12.88,31906.5,34951.2,-1.6333,-0.5891,147.4,98.5,0.461
12.9,32008.6,34955.7,0.1444,-0.5354,147.4,98.5,0.461
12.92,31988.7,34969.8,-0.202,-0.3676,147.4,98.5,0.461
12.94,31965.4,34885.0,-0.6075,-1.3778,147.4,98.5,0.461
12.96,31922.8,34881.7,-1.3502,-1.4163,147.4,98.5,0.461
12.98,32032.0,34918.9,0.5509,-0.9733,147.4,98.5,0.461
13.0,31978.9,34923.7,-0.3735,-0.9167,147.4,98.5,0.461
13.02,32022.1,34950.5,0.3798,-0.5983,147.4,98.5,0.461
13.04,32029.5,35082.3,0.509,0.9702,147.4,98.5,0.461
13.06,32095.4,35178.7,1.6567,2.1174,147.4,98.5,0.461
13.08,32074.0,35107.1,1.2824,1.2654,147.4,98.5,0.461
13.1,32104.1,35112.9,1.8068,1.3345,147.4,98.5,0.461
13.12,31996.3,35058.7,-0.0705,0.6899,147.4,98.5,0.461
13.14,31976.9,35027.9,-0.4071,0.3231,147.4,98.5,0.461
13.16,31941.5,35026.6,-1.0246,0.3075,147.4,98.5,0.461
13.18,32088.5,35015.4,1.5361,0.1747,147.4,98.5,0.461
13.2,32083.2,34982.8,1.4438,-0.2129,147.4,98.5,0.461
13.22,31911.8,34991.2,-1.5416,-0.1129,147.4,98.5,0.461
13.24,32019.7,34986.1,0.3378,-0.1742,147.4,98.5,0.461
13.26,32051.2,34837.5,0.8853,-1.9428,147.4,98.5,0.461
13.28,31987.9,34951.5,-0.2166,-0.5857,147.4,98.5,0.461
13.3,32030.3,34951.7,0.5223,-0.5831,147.4,98.5,0.461
13.32,32002.8,34859.0,0.0427,-1.6868,147.4,98.5,0.461
13.34,31941.1,34957.6,-1.0314,-0.5135,147.4,98.5,0.461
13.36,31936.3,34896.4,-1.1148,-1.2419,147.4,98.5,0.461
13.38,32055.6,34878.7,0.9621,-1.4524,147.4,98.5,0.461
13.4,31934.0,34909.2,-1.1547,-1.0896,147.4,98.5,0.461
13.42,32007.2,34966.9,0.1195,-0.4025,147.4,98.5,0.461
13.44,32011.1,35062.2,0.1879,0.7315,147.4,98.5,0.461
13.46,32025.4,35166.5,0.4365,1.9725,147.4,98.5,0.461
13.48,32093.4,35152.6,1.6211,1.8073,147.4,98.5,0.461
13.5,31981.8,35082.0,-0.3231,0.9674,147.4,98.5,0.461
13.52,32036.8,35118.9,0.6348,1.4059,147.4,98.5,0.461
13.54,31975.7,35046.9,-0.4281,0.5498,147.4,98.5,0.461
13.56,31990.2,34997.6,-0.1769,-0.0372,147.4,98.5,0.461
13.58,31861.2,34974.5,-2.4235,-0.3123,147.4,98.5,0.461
13.6,32016.0,35089.8,0.2737,1.0594,147.4,98.5,0.461
13.62,31961.7,34947.1,-0.6727,-0.6378,147.4,98.5,0.461
13.64,32036.3,34936.6,0.6274,-0.7634,147.4,98.5,0.461
13.66,32041.1,35035.9,0.7106,0.418,147.4,98.5,0.461
13.68,31946.8,34935.6,-0.9319,-0.7746,147.4,98.5,0.461
13.7,32026.5,34874.5,0.4561,-1.5019,147.4,98.5,0.461
13.72,31958.4,34942.4,-0.7297,-0.6942,147.4,98.5,0.461
13.74,31922.6,35006.2,-1.3543,0.0647,147.4,98.5,0.461
13.76,32020.7,34976.0,0.3544,-0.2948,147.4,98.5,0.461
13.78,31902.8,34917.7,-1.6978,-0.9878,147.4,98.5,0.461
13.8,32019.5,34925.1,0.3348,-0.9001,147.4,98.5,0.461
13.82,31896.8,34934.9,-1.8023,-0.7841,147.4,98.5,0.461
13.84,32037.2,34975.9,0.6431,-0.2953,147.4,98.5,0.461
13.86,31943.1,35149.5,-0.9965,1.77,147.4,98.5,0.461
13.88,31958.1,35100.3,-0.736,1.185,147.4,98.5,0.461
13.9,31985.9,35166.2,-0.2506,1.9686,147.4,98.5,0.461
13.92,32048.6,35062.1,0.8415,0.7305,147.4,98.5,0.461
13.94,31981.4,35094.4,-0.3294,1.1145,147.4,98.5,0.461
13.96,32047.7,35078.5,0.825,0.9252,147.4,98.5,0.461
13.98,32025.2,35053.3,0.4325,0.6256,147.4,98.5,0.461
14.0,32011.6,35050.4,0.1959,0.5905,147.4,98.5,0.461
14.02,32007.4,35009.6,0.1228,0.1051,147.4,98.5,0.461
14.04,31951.9,34992.2,-0.8438,-0.1018,147.4,98.5,0.461
14.06,31974.0,34901.7,-0.4586,-1.1785,147.4,98.5,0.461
14.08,31949.1,34880.2,-0.8927,-1.4349,147.4,98.5,0.461
14.1,31930.6,34952.3,-1.2149,-0.577,147.4,98.5,0.461
14.12,31948.0,34937.6,-0.9108,-0.7511,147.4,98.5,0.461
14.14,32000.6,34915.3,0.0044,-1.0166,147.4,98.5,0.461
14.16,32001.8,34943.5,0.0257,-0.6806,147.4,98.5,0.461
14.18,31930.1,34892.6,-1.222,-1.2873,147.4,98.5,0.461
14.2,32012.6,34975.8,0.2144,-0.2972,147.4,98.5,0.461
14.22,31976.5,34955.5,-0.4143,-0.5384,147.4,98.5,0.461
14.24,31953.7,35011.8,-0.8115,0.1321,147.4,98.5,0.461
14.26,31984.9,35088.5,-0.2677,1.0439,147.4,98.5,0.461
14.28,32122.7,35150.2,2.1306,1.7784,147.4,98.5,0.461
14.3,32023.3,35027.4,0.3999,0.317,147.4,98.5,0.461
14.32,32039.5,35074.8,0.6827,0.8808,147.4,98.5,0.461
14.34,31946.3,35018.9,-0.9404,0.216,147.4,98.5,0.461
14.36,32009.1,35069.9,0.1536,0.8236,147.4,98.5,0.461
14.38,32066.6,34990.5,1.1541,-0.1215,147.4,98.5,0.461
14.4,32097.6,35024.8,1.6939,0.2862,147.4,98.5,0.461
14.42,31989.5,34913.1,-0.1877,-1.0432,147.4,98.5,0.461
14.44,31956.6,35013.0,-0.7606,0.1454,147.4,98.5,0.461
14.46,32006.7,34958.1,0.1108,-0.5078,147.4,98.5,0.461
14.48,31981.4,35010.0,-0.3291,0.1108,147.4,98.5,0.461
14.5,31923.4,35026.7,-1.339,0.309,147.4,98.5,0.461
14.52,31987.2,34976.6,-0.2285,-0.2867,147.4,98.5,0.461
14.54,32034.5,35014.6,0.596,0.1651,147.4,98.5,0.461
14.56,31951.0,34945.7,-0.8586,-0.6553,147.4,98.5,0.461
14.58,31965.4,34912.8,-0.6079,-1.047,147.4,98.5,0.461
14.6,32014.5,34945.3,0.247,-0.6594,147.4,98.5,0.461
14.62,31927.9,34910.6,-1.262,-1.073,147.4,98.5,0.461
14.64,31891.8,34899.6,-1.89,-1.2038,147.4,98.5,0.461
14.66,32044.3,34973.0,0.7667,-0.3298,147.4,98.5,0.461
14.68,31984.2,35108.3,-0.2805,1.2799,147.4,98.5,0.461
14.7,32000.1,35097.7,-0.0044,1.1533,147.4,98.5,0.461
14.72,32060.3,35008.9,1.0453,0.097,147.4,98.5,0.461
14.74,32079.5,35089.5,1.3784,1.0559,147.4,98.5,0.461
14.76,32049.1,35001.5,0.8503,0.0092,147.4,98.5,0.461
14.78,31940.8,35042.7,-1.0371,0.4992,147.4,98.5,0.461
14.8,31989.9,35028.2,-0.181,0.3271,147.4,98.5,0.461
14.82,31990.7,35030.3,-0.1675,0.352,147.4,98.5,0.461
14.84,32020.5,34959.8,0.3511,-0.4867,147.4,98.5,0.461
14.86,32009.8,35000.9,0.1643,0.002,147.4,98.5,0.461
14.88,31944.1,35015.7,-0.9784,0.1777,147.4,98.5,0.461
14.9,31959.5,34955.1,-0.7102,-0.5436,147.4,98.5,0.461
14.92,31951.7,34858.7,-0.8475,-1.6899,147.4,98.5,0.461
14.94,31971.5,34970.2,-0.5011,-0.3633,147.4,98.5,0.461
14.96,31993.9,34929.8,-0.1122,-0.8445,147.4,98.5,0.461
14.98,31943.5,34932.9,-0.9902,-0.8072,147.4,98.5,0.461
15.0,32024.4,34973.5,0.4197,-0.3245,147.4,98.5,0.461
15.02,31909.0,34921.8,-1.5911,-0.9399,147.4,98.5,0.461
15.04,32096.5,34961.1,1.6755,-0.4716,147.4,98.5,0.461
15.06,32062.4,35062.0,1.0806,0.7289,147.4,98.5,0.461
15.08,32085.4,35119.4,1.4825,1.412,147.4,98.5,0.461
15.1,32001.8,35186.8,0.0257,2.2142,147.4,98.5,0.461
15.12,32057.4,35108.1,0.9944,1.2773,147.4,98.5,0.461
15.14,32035.5,35038.0,0.613,0.4428,147.4,98.5,0.461
15.16,31987.3,35175.3,-0.2268,2.0778,147.4,98.5,0.461
15.18,31980.6,34978.9,-0.3428,-0.2603,147.4,98.5,0.461
15.2,31990.0,35046.3,-0.1798,0.5421,147.4,98.5,0.461
15.22,31972.2,35028.8,-0.4889,0.3337,147.4,98.5,0.461
15.24,32042.0,35064.3,0.7266,0.7559,147.4,98.5,0.461
15.26,32057.2,34978.5,0.9902,-0.2647,147.4,98.5,0.461
15.28,31956.3,34979.7,-0.7665,-0.2504,147.4,98.5,0.461
15.3,32009.9,34958.4,0.1666,-0.5039,147.4,98.5,0.461
15.32,32138.5,35060.3,2.4061,0.7085,147.4,98.5,0.461
15.34,32006.9,34944.6,0.1148,-0.6681,147.4,98.5,0.461
15.36,31957.6,34896.5,-0.7432,-1.2406,147.4,98.5,0.461
15.38,31971.8,34817.5,-0.4963,-2.1807,147.4,98.5,0.461
15.4,32091.6,34810.3,1.5893,-2.2667,147.4,98.5,0.461
15.42,31900.6,34935.0,-1.7361,-0.7824,147.4,98.5,0.461
15.44,32040.7,34973.8,0.7034,-0.3208,147.4,98.5,0.461
15.46,32038.7,34964.7,0.6681,-0.4293,147.4,98.5,0.461
15.48,32052.1,35056.9,0.9023,0.668,147.4,98.5,0.461
15.5,32049.6,35057.6,0.8577,0.677,147.4,98.5,0.461
15.52,32007.3,35062.5,0.1213,0.7348,147.4,98.5,0.461
15.54,32070.9,35208.4,1.23,2.4712,147.4,98.5,0.461
15.56,32065.4,35141.5,1.1332,1.675,147.4,98.5,0.461
15.58,31963.5,34966.0,-0.6408,-0.4133,147.4,98.5,0.461
15.6,32004.1,34999.1,0.0665,-0.0194,147.4,98.5,0.461
15.62,32084.8,34983.5,1.4718,-0.2055,147.4,98.5,0.461
15.64,32058.8,34939.8,1.0189,-0.7252,147.4,98.5,0.461
15.66,32085.7,34984.7,1.4876,-0.1907,147.4,98.5,0.461
15.68,31943.9,34957.2,-0.9829,-0.5186,147.4,98.5,0.461
15.7,32067.0,35049.2,1.162,0.5768,147.4,98.5,0.461
15.72,31991.9,35069.3,-0.147,0.8153,147.4,98.5,0.461
15.74,32025.4,34898.2,0.4373,-1.2204,147.4,98.5,0.461
15.76,31976.5,34947.1,-0.4152,-0.6387,147.4,98.5,0.461
15.78,31974.6,34769.5,-0.4485,-2.7521,147.4,98.5,0.461
15.8,31957.1,34864.8,-0.7519,-1.6175,147.4,98.5,0.461
15.82,31963.9,34929.0,-0.6336,-0.8537,147.4,98.5,0.461
15.84,31814.9,34953.7,-3.229,-0.5603,147.4,98.5,0.461
15.86,32017.7,34918.5,0.3019,-0.9784,147.4,98.5,0.461
15.88,31974.9,34959.4,-0.4429,-0.492,147.4,98.5,0.461
15.9,31952.8,35123.0,-0.8274,1.4548,147.4,98.5,0.461
15.92,32049.0,35096.7,0.8477,1.142,147.4,98.5,0.461
15.94,32041.0,35169.6,0.7086,2.0095,147.4,98.5,0.461
15.96,32077.5,35088.3,1.344,1.0418,147.4,98.5,0.461
15.98,32014.8,35095.4,0.2521,1.1265,147.4,98.5,0.461
16.0,32057.6,35016.1,0.9979,0.1829,147.4,98.5,0.461
16.02,32099.0,35003.4,1.7181,0.0313,147.4,98.5,0.461
16.04,32003.2,35102.3,0.0502,1.2084,147.4,98.5,0.461
16.06,32137.9,35015.4,2.3967,0.1739,147.4,98.5,0.461
16.08,31914.7,34874.4,-1.4903,-1.5028,147.4,98.5,0.461
16.1,32000.3,35026.6,0.0004,0.3072,147.4,98.5,0.461
16.12,31924.9,34994.2,-1.3134,-0.0783,147.4,98.5,0.461
16.14,31977.6,34953.0,-0.3953,-0.5686,147.4,98.5,0.461
16.16,32014.4,34930.6,0.2453,-0.8346,147.4,98.5,0.461
16.18,32062.0,34956.8,1.0743,-0.5224,147.4,98.5,0.461
16.2,31990.3,34952.0,-0.1744,-0.5796,147.4,98.5,0.461
16.22,31856.6,34916.7,-2.5033,-0.9999,147.4,98.5,0.461
16.24,31994.6,34936.0,-0.0995,-0.7704,147.4,98.5,0.461
16.26,31966.4,34988.1,-0.5906,-0.151,147.4,98.5,0.461
16.28,31989.3,35000.4,-0.192,-0.0037,147.4,98.5,0.461
16.3,32038.9,35151.2,0.6723,1.7906,147.4,98.5,0.461
16.32,31982.9,35073.0,-0.3028,0.8598,147.4,98.5,0.461
16.34,32135.7,35068.6,2.3579,0.8076,147.4,98.5,0.461
16.36,32020.6,35135.1,0.3533,1.5985,147.4,98.5,0.461
16.38,32008.7,35075.5,0.1456,0.8894,147.4,98.5,0.461
16.4,31959.0,34971.5,-0.7202,-0.3478,147.4,98.5,0.461
16.42,32004.1,35151.7,0.0659,1.7966,147.4,98.5,0.461
16.44,32046.1,35022.7,0.7973,0.2608,147.4,98.5,0.461
16.46,31989.4,35024.4,-0.1905,0.2818,147.4,98.5,0.461
16.48,31943.1,34927.8,-0.9966,-0.8678,147.4,98.5,0.461
16.5,31988.5,34952.3,-0.2052,-0.5762,147.4,98.5,0.461
16.52,31985.4,34858.9,-0.2605,-1.688,147.4,98.5,0.461
16.54,32083.2,35015.4,1.4434,0.174,147.4,98.5,0.461
16.56,31971.0,34962.4,-0.5108,-0.4564,147.4,98.5,0.461
16.58,31977.8,34925.3,-0.3923,-0.8981,147.4,98.5,0.461
16.6,31978.9,34982.6,-0.3731,-0.2158,147.4,98.5,0.461
16.62,31920.7,34859.1,-1.3859,-1.686,147.4,98.5,0.461
16.64,32028.1,34898.5,0.4843,-1.216,147.4,98.5,0.461
16.66,31877.4,34908.8,-2.1412,-1.094,147.4,98.5,0.461
16.68,32123.9,35001.7,2.1518,0.0117,147.4,98.5,0.461
16.7,31944.3,35048.4,-0.975,0.5669,147.4,98.5,0.461
16.72,32020.7,35167.4,0.3548,1.983,147.4,98.5,0.461
16.74,32101.3,35120.4,1.7585,1.4237,147.4,98.5,0.461
16.76,32077.8,35072.3,1.3497,0.8521,147.4,98.5,0.461
16.78,32153.5,35110.0,2.6671,1.2998,147.4,98.5,0.461
16.8,32079.7,35034.4,1.3833,0.4002,147.4,98.5,0.461
16.82,31944.1,34958.9,-0.979,-0.4974,147.4,98.5,0.461
16.84,32012.3,34966.9,0.2085,-0.4032,147.4,98.5,0.461
16.86,31993.5,34988.0,-0.1194,-0.1518,147.4,98.5,0.461
16.88,32066.5,34917.0,1.1534,-0.996,147.4,98.5,0.461
16.9,31985.7,34984.6,-0.2547,-0.1918,147.4,98.5,0.461
16.92,32000.2,34927.3,-0.0022,-0.8741,147.4,98.5,0.461
16.94,31837.8,34911.7,-2.8301,-1.059,147.4,98.5,0.461
16.96,32047.5,34955.6,0.8213,-0.5373,147.4,98.5,0.461
16.98,31955.6,34970.5,-0.7782,-0.3596,147.4,98.5,0.461
17.0,31953.4,35008.4,-0.8171,0.0909,147.4,98.5,0.461
17.02,31950.8,34930.2,-0.8617,-0.8392,147.4,98.5,0.461
17.04,31952.7,34922.2,-0.8291,-0.9347,147.4,98.5,0.461
17.06,31961.2,34979.4,-0.6811,-0.2533,147.4,98.5,0.461
17.08,32033.9,34975.8,0.5842,-0.2972,147.4,98.5,0.461
17.1,31952.5,35040.3,-0.8329,0.4709,147.4,98.5,0.461
17.12,32019.1,35097.0,0.3277,1.1455,147.4,98.5,0.461
17.14,31951.6,35215.6,-0.8484,2.5573,147.4,98.5,0.461
17.16,31990.0,35105.7,-0.1805,1.2486,147.4,98.5,0.461
17.18,31937.1,35068.2,-1.1004,0.8029,147.4,98.5,0.461
17.2,32027.7,35123.1,0.4773,1.4558,147.4,98.5,0.461
17.22,32025.6,35005.8,0.4407,0.0607,147.4,98.5,0.461
17.24,31947.2,35031.0,-0.9253,0.3603,147.4,98.5,0.461
17.26,31994.9,34993.8,-0.0945,-0.0822,147.4,98.5,0.461
17.28,32021.7,34935.9,0.3719,-0.7715,147.4,98.5,0.461
17.3,31989.1,34884.2,-0.1948,-1.3866,147.4,98.5,0.461
17.32,32083.1,34946.8,1.4409,-0.6421,147.4,98.5,0.461
17.34,32011.9,34968.2,0.2025,-0.387,147.4,98.5,0.461
17.36,32096.0,35011.2,1.6665,0.125,147.4,98.5,0.461
17.38,32068.8,35007.0,1.1927,0.0746,147.4,98.5,0.461
17.4,32081.9,34937.6,1.4205,-0.7509,147.4,98.5,0.461
17.42,31957.6,34970.0,-0.7441,-0.3658,147.4,98.5,0.461
17.44,31927.1,34953.7,-1.2752,-0.5595,147.4,98.5,0.461
17.46,31977.3,34912.6,-0.4016,-1.0494,147.4,98.5,0.461
17.48,32003.1,34944.8,0.0477,-0.6655,147.4,98.5,0.461
17.5,31974.9,35008.3,-0.4429,0.0899,147.4,98.5,0.461
17.52,32049.0,35088.1,0.8471,1.0399,147.4,98.5,0.461
17.54,32084.5,35063.9,1.4653,0.7521,147.4,98.5,0.461
17.56,31995.2,35127.2,-0.0894,1.5045,147.4,98.5,0.461
17.58,31970.4,35100.2,-0.5205,1.1836,147.4,98.5,0.461
17.6,32037.2,35064.5,0.6418,0.7588,147.4,98.5,0.461
17.62,32024.7,35054.2,0.4239,0.6357,147.4,98.5,0.461
17.64,32054.4,34999.6,0.9413,-0.0138,147.4,98.5,0.461
17.66,32026.8,35038.8,0.4605,0.4535,147.4,98.5,0.461
17.68,32170.2,35055.1,2.9592,0.6474,147.4,98.5,0.461
17.7,32011.9,35078.0,0.201,0.9196,147.4,98.5,0.461
17.72,32033.3,34958.3,0.5749,-0.5049,147.4,98.5,0.461
17.74,31989.5,34988.5,-0.1878,-0.1451,147.4,98.5,0.461
17.76,31934.6,34919.1,-1.1451,-0.9715,147.4,98.5,0.461
17.78,32018.9,34950.3,0.3232,-0.6005,147.4,98.5,0.461
17.8,31896.9,34852.5,-1.8011,-1.7643,147.4,98.5,0.461
17.82,31940.8,34883.3,-1.0372,-1.3975,147.4,98.5,0.461
17.84,31928.3,34894.6,-1.2537,-1.263,147.4,98.5,0.461
17.86,31980.4,34931.5,-0.3464,-0.8244,147.4,98.5,0.461
17.88,32005.2,34884.9,0.0845,-1.3781,147.4,98.5,0.461
17.9,32027.9,34992.4,0.4798,-0.0994,147.4,98.5,0.461
17.92,31913.7,35039.6,-1.5091,0.4629,147.4,98.5,0.461
17.94,32049.9,35169.3,0.8643,2.0061,147.4,98.5,0.461
17.96,31976.9,35057.2,-0.4077,0.6723,147.4,98.5,0.461
17.98,32062.9,35094.7,1.0897,1.1176,147.4,98.5,0.461
18.0,32090.7,35131.1,1.5734,1.5507,147.4,98.5,0.461
18.02,31969.0,34976.2,-0.5459,-0.2919,147.4,98.5,0.461
18.04,31960.7,35065.4,-0.6907,0.77,147.4,98.5,0.461
18.06,32043.4,35040.1,0.7495,0.4679,147.4,98.5,0.461
18.08,32065.4,34992.7,1.134,-0.0957,147.4,98.5,0.461
18.1,31997.2,35035.3,-0.054,0.4118,147.4,98.5,0.461
18.12,31999.6,34898.2,-0.0132,-1.2199,147.4,98.5,0.461
18.14,32021.3,35042.6,0.3654,0.4984,147.4,98.5,0.461
18.16,32004.3,35032.2,0.069,0.3744,147.4,98.5,0.461
18.18,31973.5,34948.9,-0.467,-0.6168,147.4,98.5,0.461
18.2,31967.3,35006.0,-0.5747,0.0621,147.4,98.5,0.461
18.22,32045.1,34971.9,0.7795,-0.343,147.4,98.5,0.461
18.24,31900.6,34891.0,-1.7359,-1.3054,147.4,98.5,0.461
18.26,31950.7,34887.5,-0.8638,-1.3479,147.4,98.5,0.461
18.28,31977.3,34893.1,-0.4002,-1.2806,147.4,98.5,0.461
18.3,31959.9,34997.0,-0.7031,-0.0444,147.4,98.5,0.461
18.32,32034.8,35084.1,0.6002,0.9917,147.4,98.5,0.461
18.34,32115.5,35050.9,2.0054,0.5965,147.4,98.5,0.461
18.36,32059.7,35158.7,1.0347,1.8793,147.4,98.5,0.461
18.38,32076.5,35138.8,1.3268,1.6433,147.4,98.5,0.461
18.4,32048.8,35122.4,0.8443,1.4477,147.4,98.5,0.461
18.42,32082.1,35064.1,1.4248,0.7539,147.4,98.5,0.461
18.44,32031.2,35097.7,0.5381,1.1539,147.4,98.5,0.461
18.46,32022.9,35017.3,0.393,0.197,147.4,98.5,0.461
18.48,32055.3,35002.9,0.9583,0.0253,147.4,98.5,0.461
18.5,32051.5,35015.6,0.892,0.1763,147.4,98.5,0.461
18.52,32011.9,34919.1,0.2024,-0.9714,147.4,98.5,0.461
18.54,32001.3,34976.1,0.0178,-0.2929,147.4,98.5,0.461
18.56,32006.7,34875.5,0.1119,-1.4901,147.4,98.5,0.461
18.58,31927.4,34929.0,-1.2703,-0.8531,147.4,98.5,0.461
18.6,31918.5,35054.9,-1.4251,0.6441,147.4,98.5,0.461
18.62,32044.9,34933.2,0.776,-0.8041,147.4,98.5,0.461
18.64,31982.4,34973.5,-0.3112,-0.3239,147.4,98.5,0.461
18.66,31981.0,34871.9,-0.3365,-1.5332,147.4,98.5,0.461
18.68,31889.0,34958.8,-1.9382,-0.4996,147.4,98.5,0.461
18.7,31957.8,34887.2,-0.7408,-1.3506,147.4,98.5,0.461
18.72,31939.6,34983.5,-1.0581,-0.2053,147.4,98.5,0.461
18.74,32023.4,34964.4,0.4022,-0.4328,147.4,98.5,0.461
18.76,31998.8,35138.3,-0.0263,1.6373,147.4,98.5,0.461
18.78,32082.6,35151.3,1.4338,1.7912,147.4,98.5,0.461
18.8,32036.7,35016.1,0.6334,0.1823,147.4,98.5,0.461
18.82,31973.7,35109.8,-0.463,1.2984,147.4,98.5,0.461
18.84,32077.4,35052.4,1.3429,0.6152,147.4,98.5,0.461
18.86,32020.3,35004.6,0.3474,0.0461,147.4,98.5,0.461
18.88,32036.6,34978.2,0.6315,-0.2677,147.4,98.5,0.461
18.9,31936.9,35006.1,-1.1047,0.0642,147.4,98.5,0.461
18.92,31933.4,34969.8,-1.1661,-0.3678,147.4,98.5,0.461
18.94,31980.2,35001.4,-0.3509,0.0074,147.4,98.5,0.461
18.96,32025.0,35032.9,0.4301,0.3823,147.4,98.5,0.461
18.98,31954.5,34890.3,-0.7982,-1.314,147.4,98.5,0.461
19.0,31989.5,34914.3,-0.1884,-1.0291,147.4,98.5,0.461
19.02,31949.5,34946.1,-0.8854,-0.6506,147.4,98.5,0.461
19.04,31975.7,34875.7,-0.428,-1.4878,147.4,98.5,0.461
19.06,31893.9,34921.3,-1.8526,-0.9451,147.4,98.5,0.461
19.08,31981.4,34931.5,-0.3293,-0.8236,147.4,98.5,0.461
19.1,31938.2,34970.2,-1.0827,-0.3634,147.4,98.5,0.461
19.12,31968.9,35012.4,-0.5465,0.1385,147.4,98.5,0.461
19.14,31931.0,35099.7,-1.2069,1.1779,147.4,98.5,0.461
19.16,32057.1,35058.1,0.989,0.6829,147.4,98.5,0.461
19.18,32094.4,35045.5,1.6379,0.5332,147.4,98.5,0.461
19.2,32082.1,35187.8,1.4241,2.2256,147.4,98.5,0.461
19.22,32008.7,35023.4,0.1463,0.2698,147.4,98.5,0.461
19.24,32131.8,35096.0,2.2898,1.1341,147.4,98.5,0.461
19.26,32093.6,34998.5,1.6251,-0.0261,147.4,98.5,0.461
19.28,32046.1,35042.1,0.7981,0.4922,147.4,98.5,0.461
19.3,31980.2,35022.1,-0.3495,0.2543,147.4,98.5,0.461
19.32,32076.6,34965.5,1.3283,-0.4188,147.4,98.5,0.461
19.34,31967.6,34949.2,-0.5696,-0.6132,147.4,98.5,0.461
19.36,31980.9,35020.6,-0.3379,0.236,147.4,98.5,0.461
19.38,31967.8,34939.0,-0.567,-0.7346,147.4,98.5,0.461
19.4,31950.6,34932.1,-0.8661,-0.817,147.4,98.5,0.461
19.42,32072.1,34904.7,1.2494,-1.143,147.4,98.5,0.461
19.44,31942.3,34924.9,-1.01,-0.9021,147.4,98.5,0.461
19.46,32019.0,34921.6,0.3261,-0.9415,147.4,98.5,0.461
19.48,32077.9,34927.3,1.3506,-0.8745,147.4,98.5,0.461
19.5,31931.3,34958.5,-1.2026,-0.5027,147.4,98.5,0.461
19.52,32002.4,34917.9,0.0366,-0.986,147.4,98.5,0.461
19.54,32038.3,35026.0,0.6618,0.3006,147.4,98.5,0.461
19.56,32012.1,35081.8,0.2056,0.965,147.4,98.5,0.461
19.58,32073.5,35027.1,1.2737,0.3141,147.4,98.5,0.461
19.6,32078.6,35184.6,1.3632,2.1883,147.4,98.5,0.461
19.62,32052.1,35118.8,0.9015,1.4052,147.4,98.5,0.461
19.64,32050.9,35069.1,0.8805,0.8134,147.4,98.5,0.461
19.66,32015.8,35055.3,0.2693,0.6494,147.4,98.5,0.461
19.68,32037.0,34974.1,0.6385,-0.317,147.4,98.5,0.461
19.7,31991.8,35091.8,-0.148,1.0836,147.4,98.5,0.461
19.72,31929.1,34987.9,-1.2404,-0.1524,147.4,98.5,0.461
19.74,32004.9,34999.3,0.0805,-0.0166,147.4,98.5,0.461
19.76,32006.8,35059.8,0.1133,0.7028,147.4,98.5,0.461
19.78,31968.7,34966.8,-0.5502,-0.4039,147.4,98.5,0.461
19.8,31875.8,34978.0,-2.1685,-0.2709,147.4,98.5,0.461
19.82,31968.1,34998.0,-0.5617,-0.0327,147.4,98.5,0.461
19.84,32071.0,34839.2,1.2316,-1.9223,147.4,98.5,0.461
19.86,31982.2,34922.0,-0.3154,-0.937,147.4,98.5,0.461
19.88,31905.8,34930.2,-1.6468,-0.8396,147.4,98.5,0.461
19.9,31930.7,34901.4,-1.2121,-1.1817,147.4,98.5,0.461
19.92,32034.1,34941.7,0.5883,-0.7025,147.4,98.5,0.461
19.94,31993.0,34963.4,-0.1279,-0.4437,147.4,98.5,0.461
19.96,32067.7,35110.7,1.1737,1.3081,147.4,98.5,0.461
19.98,32040.6,35078.9,0.7009,0.93,147.4,98.5,0.461
20.0,32006.7,35116.6,0.1114,1.3786,147.4,98.5,0.461
20.02,32018.3,35134.8,0.3129,1.5949,147.4,98.5,0.461
20.04,31968.9,34995.3,-0.547,-0.065,147.4,98.5,0.461
20.06,32016.1,35022.6,0.2748,0.2598,147.4,98.5,0.461
20.08,32086.1,34961.2,1.4932,-0.4704,147.4,98.5,0.461
20.1,32003.0,35009.2,0.046,0.1011,147.4,98.5,0.461
20.12,31965.7,35037.4,-0.6034,0.4367,147.4,98.5,0.461
20.14,31992.9,34984.3,-0.1291,-0.1956,147.4,98.5,0.461
20.16,31978.4,35003.5,-0.3817,0.0324,147.4,98.5,0.461
20.18,31945.6,34991.3,-0.9537,-0.1119,147.4,98.5,0.461
20.2,32006.2,34924.5,0.1024,-0.9078,147.4,98.5,0.461
20.22,31959.5,34892.1,-0.7112,-1.2933,147.4,98.5,0.461
20.24,31962.8,34966.8,-0.6526,-0.4044,147.4,98.5,0.461
20.26,31869.1,34932.0,-2.2848,-0.8178,147.4,98.5,0.461
20.28,31922.1,34908.1,-1.3625,-1.1025,147.4,98.5,0.461
20.3,31963.6,34861.8,-0.64,-1.6536,147.4,98.5,0.461
20.32,31895.8,34985.0,-1.8205,-0.1877,147.4,98.5,0.461
20.34,31918.4,34995.3,-1.4272,-0.0652,147.4,98.5,0.461
20.36,32053.1,34966.5,0.9184,-0.4074,147.4,98.5,0.461
20.38,32038.9,35041.2,0.6714,0.4811,147.4,98.5,0.461
20.4,32064.3,35169.2,1.1137,2.0047,147.4,98.5,0.461
20.42,32066.4,35154.7,1.15,1.8327,147.4,98.5,0.461
20.44,32047.2,35121.7,0.8161,1.4394,147.4,98.5,0.461
20.46,32024.2,34941.7,0.4152,-0.7024,147.4,98.5,0.461
20.48,32015.6,34989.3,0.2664,-0.1363,147.4,98.5,0.461
20.5,32069.2,35035.8,1.2001,0.4172,147.4,98.5,0.461
20.52,32025.5,34953.1,0.4394,-0.5665,147.4,98.5,0.461
20.54,31979.1,34952.6,-0.3702,-0.5729,147.4,98.5,0.461
20.56,31956.9,35002.7,-0.7568,0.0228,147.4,98.5,0.461
20.58,31980.1,34945.3,-0.3516,-0.6599,147.4,98.5,0.461
20.6,31896.0,34945.4,-1.8167,-0.6581,147.4,98.5,0.461
20.62,32017.5,35020.4,0.299,0.2344,147.4,98.5,0.461
20.64,31988.7,34935.1,-0.2026,-0.7807,147.4,98.5,0.461
20.66,32016.3,34928.5,0.2783,-0.8592,147.4,98.5,0.461
20.68,31986.7,34959.7,-0.2369,-0.488,147.4,98.5,0.461
20.7,31893.4,34959.1,-1.8619,-0.4954,147.4,98.5,0.461
20.72,31937.9,34972.5,-1.0871,-0.3363,147.4,98.5,0.461
20.74,31970.5,34962.7,-0.5191,-0.4527,147.4,98.5,0.461
20.76,31967.3,35059.6,-0.5754,0.6999,147.4,98.5,0.461
20.78,32029.6,35094.2,0.51,1.1121,147.4,98.5,0.461
20.8,32100.6,35169.9,1.747,2.0126,147.4,98.5,0.461
20.82,32014.7,35119.6,0.25,1.4144,147.4,98.5,0.461
20.84,32112.5,35147.7,1.954,1.749,147.4,98.5,0.461
20.86,32063.5,35116.2,1.0999,1.3739,147.4,98.5,0.461
20.88,32014.0,35121.1,0.2387,1.4328,147.4,98.5,0.461
20.9,32005.2,35063.8,0.085,0.751,147.4,98.5,0.461
20.92,32061.5,35021.2,1.0658,0.2438,147.4,98.5,0.461
20.94,31933.9,34986.8,-1.1567,-0.1656,147.4,98.5,0.461
20.96,31994.8,34940.6,-0.0958,-0.7154,147.4,98.5,0.461
20.98,31962.5,35021.6,-0.658,0.248,147.4,98.5,0.461
21.0,31994.7,35006.8,-0.0987,0.072,147.4,98.5,0.461
21.02,31988.5,34974.1,-0.2059,-0.3169,147.4,98.5,0.461
21.04,31894.3,34971.3,-1.8459,-0.3504,147.4,98.5,0.461
21.06,31992.1,34928.7,-0.1431,-0.8567,147.4,98.5,0.461
21.08,32021.3,34929.5,0.3657,-0.8483,147.4,98.5,0.461
21.1,32024.2,34934.2,0.4166,-0.7919,147.4,98.5,0.461
21.12,31871.1,34894.1,-2.2505,-1.269,147.4,98.5,0.461
21.14,31987.0,34889.7,-0.2319,-1.3215,147.4,98.5,0.461
21.16,32009.7,34986.2,0.163,-0.1727,147.4,98.5,0.461
21.18,32020.5,35087.9,0.351,1.0374,147.4,98.5,0.461
21.2,32107.8,35040.6,1.871,0.4749,147.4,98.5,0.461
21.22,32093.3,35167.5,1.6196,1.9848,147.4,98.5,0.461
21.24,32060.1,35097.2,1.0407,1.1482,147.4,98.5,0.461
21.26,32071.4,35163.7,1.2384,1.9397,147.4,98.5,0.461
21.28,32053.1,35079.4,0.9184,0.936,147.4,98.5,0.461
21.3,32130.8,35007.6,2.2732,0.0822,147.4,98.5,0.461
21.32,31998.7,34919.0,-0.0278,-0.9727,147.4,98.5,0.461
21.34,32019.9,34968.4,0.3411,-0.3854,147.4,98.5,0.461
21.36,31989.3,34976.5,-0.1919,-0.2882,147.4,98.5,0.461
21.38,32014.2,34980.6,0.2423,-0.2398,147.4,98.5,0.461
21.4,31852.2,34923.1,-2.5796,-0.9239,147.4,98.5,0.461
21.42,31989.5,34888.2,-0.1889,-1.3387,147.4,98.5,0.461
21.44,31916.2,34982.3,-1.4645,-0.2196,147.4,98.5,0.461
21.46,32023.9,34976.0,0.4111,-0.2949,147.4,98.5,0.461
21.48,31994.6,34989.7,-0.1001,-0.1317,147.4,98.5,0.461
21.5,31928.2,34927.5,-1.2556,-0.8713,147.4,98.5,0.461
21.52,32016.5,34914.1,0.2822,-1.0308,147.4,98.5,0.461
21.54,31969.6,34814.6,-0.5344,-2.2154,147.4,98.5,0.461
21.56,32023.7,34978.1,0.408,-0.2692,147.4,98.5,0.461
21.58,32040.0,34957.3,0.6912,-0.517,147.4,98.5,0.461
21.6,32077.5,35050.5,1.3445,0.5925,147.4,98.5,0.461
21.62,32144.0,35151.6,2.5027,1.7954,147.4,98.5,0.461
21.64,32029.1,35144.9,0.5009,1.7155,147.4,98.5,0.461
21.66,32035.0,35234.1,0.6041,2.7765,147.4,98.5,0.461
21.68,31961.7,35101.4,-0.6722,1.1977,147.4,98.5,0.461
21.7,32013.2,35100.2,0.2246,1.1837,147.4,98.5,0.461
21.72,31891.5,35044.4,-1.8959,0.5198,147.4,98.5,0.461
21.74,32027.0,34977.8,0.4646,-0.2725,147.4,98.5,0.461
21.76,31885.1,35039.6,-2.0058,0.4623,147.4,98.5,0.461
21.78,32047.0,35004.4,0.8126,0.043,147.4,98.5,0.461
21.8,31902.1,34986.0,-1.711,-0.1749,147.4,98.5,0.461
21.82,32005.2,34905.1,0.0854,-1.1383,147.4,98.5,0.461
21.84,31935.2,34931.1,-1.1345,-0.8287,147.4,98.5,0.461
21.86,31995.9,34884.5,-0.077,-1.3832,147.4,98.5,0.461
21.88,32007.5,34960.0,0.1246,-0.4842,147.4,98.5,0.461
21.9,31872.3,34963.6,-2.2303,-0.4416,147.4,98.5,0.461
21.92,31929.2,34876.6,-1.2392,-1.4769,147.4,98.5,0.461
21.94,31926.7,34925.7,-1.2824,-0.8927,147.4,98.5,0.461
21.96,31954.7,34946.0,-0.7951,-0.6512,147.4,98.5,0.461
21.98,31991.8,34937.9,-0.1478,-0.7476,147.4,98.5,0.461
22.0,32060.0,35078.1,1.0401,0.9202,147.4,98.5,0.461
22.02,32016.6,35101.9,0.2837,1.2034,147.4,98.5,0.461
22.04,32016.5,35135.7,0.2827,1.6061,147.4,98.5,0.461
22.06,32059.8,35144.0,1.0358,1.7044,147.4,98.5,0.461
22.08,32026.1,34980.2,0.4488,-0.244,147.4,98.5,0.461
22.1,32022.3,35041.8,0.383,0.4885,147.4,98.5,0.461
22.12,32049.2,35082.0,0.8512,0.9671,147.4,98.5,0.461
22.14,32113.0,35020.6,1.9616,0.2361,147.4,98.5,0.461
22.16,31964.4,35027.9,-0.6252,0.3227,147.4,98.5,0.461
22.18,31961.3,35078.7,-0.6796,0.9282,147.4,98.5,0.461
22.2,32006.9,34926.1,0.1143,-0.8878,147.4,98.5,0.461
22.22,31977.8,34991.1,-0.3917,-0.1145,147.4,98.5,0.461
22.24,32016.3,34917.4,0.2788,-0.9913,147.4,98.5,0.461
22.26,32017.7,34975.0,0.3023,-0.3064,147.4,98.5,0.461
22.28,31930.4,34921.6,-1.2175,-0.9416,147.4,98.5,0.461
22.3,31981.5,34980.0,-0.3274,-0.2462,147.4,98.5,0.461
22.32,31993.8,34879.5,-0.1134,-1.4429,147.4,98.5,0.461
22.34,31848.3,34954.0,-2.6472,-0.5562,147.4,98.5,0.461
22.36,31948.5,34931.8,-0.9024,-0.8209,147.4,98.5,0.461
22.38,31924.1,34941.0,-1.3268,-0.7106,147.4,98.5,0.461
22.4,31925.9,35010.3,-1.2966,0.1139,147.4,98.5,0.461
22.42,32075.2,35105.7,1.3049,1.249,147.4,98.5,0.461
22.44,32071.5,35087.9,1.2405,1.0367,147.4,98.5,0.461
22.46,32052.9,35100.2,0.9155,1.1836,147.4,98.5,0.461
22.48,32081.4,35094.4,1.4123,1.1142,147.4,98.5,0.461
22.5,32135.9,35035.7,2.362,0.4159,147.4,98.5,0.461
22.52,31975.8,35098.9,-0.4278,1.1681,147.4,98.5,0.461
22.54,31954.2,35004.2,-0.8028,0.0413,147.4,98.5,0.461
22.56,31925.9,35045.7,-1.296,0.5351,147.4,98.5,0.461
22.58,32099.0,35049.9,1.7182,0.5849,147.4,98.5,0.461
22.6,32037.4,34935.8,0.645,-0.7722,147.4,98.5,0.461
22.62,31999.9,34877.2,-0.0065,-1.4703,147.4,98.5,0.461
22.64,31939.4,34967.4,-1.0613,-0.3969,147.4,98.5,0.461
22.66,32008.4,34971.4,0.1401,-0.3492,147.4,98.5,0.461
22.68,31947.6,34950.1,-0.9174,-0.6029,147.4,98.5,0.461
22.7,31939.2,34847.5,-1.0645,-1.8236,147.4,98.5,0.461
22.72,31946.1,35016.6,-0.944,0.1883,147.4,98.5,0.461
22.74,31901.2,34889.1,-1.7266,-1.328,147.4,98.5,0.461
22.76,31956.3,34994.9,-0.7665,-0.0689,147.4,98.5,0.461
22.78,31946.3,35004.7,-0.9405,0.0475,147.4,98.5,0.461
22.8,32034.3,35064.8,0.592,0.7622,147.4,98.5,0.461
22.82,32027.5,35061.6,0.4732,0.7237,147.4,98.5,0.461
22.84,32074.7,35178.6,1.2961,2.1164,147.4,98.5,0.461
22.86,32066.4,35064.6,1.1516,0.7594,147.4,98.5,0.461
22.88,31967.6,35050.8,-0.5699,0.5959,147.4,98.5,0.461
22.9,31958.5,34995.4,-0.728,-0.0637,147.4,98.5,0.461
22.92,32038.2,35022.0,0.6597,0.2529,147.4,98.5,0.461
22.94,31932.7,34977.3,-1.177,-0.2784,147.4,98.5,0.461
22.96,31951.8,35084.5,-0.8454,0.9971,147.4,98.5,0.461
22.98,31911.2,35055.1,-1.5524,0.6474,147.4,98.5,0.461
23.0,31986.2,34984.3,-0.2451,-0.1951,147.4,98.5,0.461
23.02,31924.4,34912.3,-1.3214,-1.0522,147.4,98.5,0.461
23.04,32010.3,34968.1,0.1736,-0.3884,147.4,98.5,0.461
23.06,31967.2,34990.1,-0.5769,-0.127,147.4,98.5,0.461
23.08,32071.8,35014.9,1.2455,0.1683,147.4,98.5,0.461
23.1,31982.0,34964.6,-0.3186,-0.4302,147.4,98.5,0.461
23.12,31982.3,34968.3,-0.3132,-0.3861,147.4,98.5,0.461
23.14,31908.8,34948.2,-1.5946,-0.6247,147.4,98.5,0.461
23.16,31988.4,34913.9,-0.2075,-1.0337,147.4,98.5,0.461
23.18,31935.3,34935.3,-1.1321,-0.7787,147.4,98.5,0.461
23.2,31957.8,34950.6,-0.7396,-0.5966,147.4,98.5,0.461
23.22,32123.1,35049.2,2.1389,0.577,147.4,98.5,0.461
23.24,32078.8,35019.1,1.3669,0.218,147.4,98.5,0.461
23.26,32017.7,35078.2,0.3019,0.922,147.4,98.5,0.461
23.28,32014.8,35038.6,0.2526,0.4508,147.4,98.5,0.461
23.3,31971.4,35119.0,-0.503,1.4078,147.4,98.5,0.461
23.32,32017.9,34983.6,0.3062,-0.2043,147.4,98.5,0.461
23.34,32031.2,35048.8,0.5384,0.5722,147.4,98.5,0.461
23.36,32014.2,35054.9,0.2425,0.6447,147.4,98.5,0.461
23.38,31969.7,35116.5,-0.5338,1.3773,147.4,98.5,0.461
23.4,32073.5,35017.1,1.2741,0.1946,147.4,98.5,0.461
23.42,32031.2,34943.7,0.5382,-0.6783,147.4,98.5,0.461
23.44,32055.8,34970.1,0.9671,-0.3651,147.4,98.5,0.461
23.46,32029.3,34909.7,0.5046,-1.0828,147.4,98.5,0.461
23.48,31994.9,34974.2,-0.0945,-0.3164,147.4,98.5,0.461
23.5,31982.6,34913.4,-0.3081,-1.0398,147.4,98.5,0.461
23.52,31993.2,34874.4,-0.1236,-1.5029,147.4,98.5,0.461
23.54,31892.7,34949.4,-1.8749,-0.6106,147.4,98.5,0.461
23.56,31973.5,34861.3,-0.4674,-1.6598,147.4,98.5,0.461
23.58,31998.5,34942.4,-0.0309,-0.6942,147.4,98.5,0.461
23.6,32038.4,34985.7,0.6639,-0.179,147.4,98.5,0.461
23.62,32061.1,35052.0,1.0584,0.6097,147.4,98.5,0.461
23.64,32095.3,35135.3,1.6537,1.6016,147.4,98.5,0.461
23.66,32049.7,35181.5,0.8602,2.1512,147.4,98.5,0.461
23.68,31954.3,35068.7,-0.8007,0.8086,147.4,98.5,0.461
23.7,32027.4,35164.1,0.472,1.9434,147.4,98.5,0.461
23.72,32018.7,35039.6,0.3207,0.4629,147.4,98.5,0.461
23.74,32106.2,35053.9,1.8436,0.6324,147.4,98.5,0.461
23.76,31993.9,34954.9,-0.1121,-0.5452,147.4,98.5,0.461
23.78,31944.9,35005.9,-0.9658,0.0619,147.4,98.5,0.461
23.8,32028.3,35029.7,0.4872,0.3448,147.4,98.5,0.461
23.82,32007.9,34992.2,0.1328,-0.1017,147.4,98.5,0.461
23.84,31987.2,34938.6,-0.2283,-0.7398,147.4,98.5,0.461
23.86,32003.8,34924.5,0.0615,-0.9067,147.4,98.5,0.461
23.88,32036.9,34982.1,0.6363,-0.2224,147.4,98.5,0.461
23.9,31960.0,34950.2,-0.7025,-0.6008,147.4,98.5,0.461
23.92,32092.9,34886.5,1.6121,-1.3592,147.4,98.5,0.461
23.94,31990.9,34828.0,-0.1642,-2.0561,147.4,98.5,0.461
23.96,31941.7,34916.7,-1.0211,-0.9997,147.4,98.5,0.461
23.98,31957.9,34956.1,-0.7393,-0.5308,147.4,98.5,0.461
24.0,31889.3,34960.3,-1.9337,-0.4811,147.4,98.5,0.461
24.02,31962.7,34997.3,-0.6545,-0.0413,147.4,98.5,0.461
24.04,31967.9,35034.7,-0.5639,0.4047,147.4,98.5,0.461
24.06,32037.4,35035.1,0.6458,0.4091,147.4,98.5,0.461
24.08,31982.4,35160.2,-0.3117,1.8972,147.4,98.5,0.461
24.1,32133.9,35093.4,2.3257,1.1025,147.4,98.5,0.461
24.12,32051.9,35110.3,0.899,1.3042,147.4,98.5,0.461
24.14,32055.3,35044.7,0.9579,0.5231,147.4,98.5,0.461
24.16,32039.7,35054.2,0.6855,0.6356,147.4,98.5,0.461
24.18,32075.0,34854.5,1.3009,-1.7397,147.4,98.5,0.461
24.2,32046.3,35058.5,0.8,0.6869,147.4,98.5,0.461
24.22,32009.7,34939.7,0.1631,-0.7258,147.4,98.5,0.461
24.24,31968.5,34891.1,-0.555,-1.305,147.4,98.5,0.461
24.26,31935.3,34910.8,-1.133,-1.0704,147.4,98.5,0.461
24.28,31969.8,34964.5,-0.5307,-0.4318,147.4,98.5,0.461
24.3,32004.0,34971.9,0.0644,-0.3429,147.4,98.5,0.461
24.32,31954.5,34814.1,-0.7987,-2.2214,147.4,98.5,0.461
24.34,31957.6,34832.3,-0.7431,-2.0043,147.4,98.5,0.461
24.36,32009.2,34892.3,0.155,-1.2907,147.4,98.5,0.461
24.38,31968.2,34979.9,-0.5597,-0.2475,147.4,98.5,0.461
24.4,31978.0,34855.9,-0.3888,-1.7238,147.4,98.5,0.461
24.42,31938.0,34917.4,-1.0857,-0.9915,147.4,98.5,0.461
24.44,32065.1,35078.4,1.1281,0.9246,147.4,98.5,0.461
24.46,32024.6,35051.6,0.4228,0.6047,147.4,98.5,0.461
24.48,32097.8,35139.3,1.6982,1.6486,147.4,98.5,0.461
24.5,32107.5,35130.0,1.867,1.5386,147.4,98.5,0.461
24.52,32087.1,35078.1,1.5112,0.9201,147.4,98.5,0.461
24.54,32019.2,35104.3,0.3291,1.2322,147.4,98.5,0.461
24.56,32035.6,34966.6,0.6146,-0.406,147.4,98.5,0.461
24.58,31921.6,34997.7,-1.3702,-0.036,147.4,98.5,0.461
24.6,32001.3,34995.4,0.0176,-0.0636,147.4,98.5,0.461
24.62,31973.8,34978.1,-0.4625,-0.2698,147.4,98.5,0.461
24.64,32032.3,34976.7,0.5575,-0.2857,147.4,98.5,0.461
24.66,31884.0,34940.6,-2.0251,-0.7156,147.4,98.5,0.461
24.68,32010.9,34970.1,0.1837,-0.3642,147.4,98.5,0.461
24.7,31992.4,34933.9,-0.1387,-0.7959,147.4,98.5,0.461
24.72,31994.5,34949.0,-0.1009,-0.6159,147.4,98.5,0.461
24.74,32004.2,34913.9,0.0669,-1.0329,147.4,98.5,0.461
24.76,31987.8,34871.6,-0.2186,-1.5368,147.4,98.5,0.461
24.78,31985.8,34827.1,-0.2525,-2.0661,147.4,98.5,0.461
24.8,31995.4,34987.6,-0.0856,-0.1562,147.4,98.5,0.461
24.82,32018.3,34975.3,0.3127,-0.303,147.4,98.5,0.461
24.84,31952.3,35148.1,-0.8362,1.753,147.4,98.5,0.461
24.86,32061.4,35090.9,1.0645,1.0732,147.4,98.5,0.461
24.88,32008.9,35132.0,0.1503,1.5623,147.4,98.5,0.461
24.9,32032.8,35173.6,0.5649,2.0568,147.4,98.5,0.461
24.92,31994.5,35039.1,-0.1005,0.4559,147.4,98.5,0.461
24.94,31967.2,35066.8,-0.5764,0.7855,147.4,98.5,0.461
24.96,32054.2,35004.9,0.9376,0.0491,147.4,98.5,0.461
24.98,31920.7,34899.7,-1.3869,-1.2027,147.4,98.5,0.461
25.0,32059.9,34998.0,1.0371,-0.0324,147.4,98.5,0.461
25.02,31916.8,35030.0,-1.4541,0.3481,147.4,98.5,0.461
25.04,31971.9,34889.4,-0.4957,-1.3254,147.4,98.5,0.461
25.06,31970.5,34915.7,-0.5192,-1.0117,147.4,98.5,0.461
25.08,31978.7,34900.8,-0.3768,-1.1894,147.4,98.5,0.461
25.1,31945.4,34954.0,-0.9571,-0.556,147.4,98.5,0.461
25.12,32000.9,34975.3,0.0104,-0.3033,147.4,98.5,0.461
25.14,32017.5,34893.7,0.3,-1.2741,147.4,98.5,0.461
25.16,31912.8,34824.2,-1.5241,-2.1012,147.4,98.5,0.461
25.18,31920.4,34957.5,-1.3916,-0.5149,147.4,98.5,0.461
25.2,31905.3,34861.3,-1.6543,-1.6594,147.4,98.5,0.461
25.22,32003.3,34975.7,0.0522,-0.2981,147.4,98.5,0.461
25.24,32076.4,34990.6,1.325,-0.1208,147.4,98.5,0.461
25.26,32004.8,35138.4,0.0775,1.6379,147.4,98.5,0.461
25.28,32039.9,35138.9,0.6887,1.6442,147.4,98.5,0.461
25.3,32078.2,35183.0,1.3556,2.1692,147.4,98.5,0.461
25.32,32121.8,35113.6,2.1155,1.3431,147.4,98.5,0.461
25.34,32004.4,35044.0,0.0706,0.5148,147.4,98.5,0.461
25.36,31934.7,34997.2,-1.1419,-0.0425,147.4,98.5,0.461
25.38,32000.9,35069.5,0.0107,0.8187,147.4,98.5,0.461
25.4,32053.3,35021.1,0.9234,0.2428,147.4,98.5,0.461
25.42,32045.2,34989.2,0.7818,-0.1379,147.4,98.5,0.461
25.44,32013.8,35029.5,0.2348,0.3424,147.4,98.5,0.461
25.46,32032.3,34951.5,0.5563,-0.5855,147.4,98.5,0.461
25.48,32032.1,35070.1,0.5535,0.8254,147.4,98.5,0.461
25.5,32016.0,34890.9,0.2733,-1.3073,147.4,98.5,0.461
25.52,31988.2,34918.5,-0.2106,-0.978,147.4,98.5,0.461
25.54,31984.6,34976.3,-0.273,-0.2906,147.4,98.5,0.461
25.56,31990.3,34923.7,-0.1736,-0.9169,147.4,98.5,0.461
25.58,31958.1,34930.4,-0.7351,-0.8369,147.4,98.5,0.461
25.6,31901.6,34876.5,-1.7195,-1.4785,147.4,98.5,0.461
25.62,31929.9,34973.3,-1.2271,-0.3263,147.4,98.5,0.461
25.64,31939.6,34974.0,-1.0569,-0.3178,147.4,98.5,0.461
25.66,32011.0,35100.5,0.186,1.1875,147.4,98.5,0.461
25.68,32016.6,35112.9,0.2828,1.3349,147.4,98.5,0.461
25.7,32096.2,35140.4,1.6695,1.6621,147.4,98.5,0.461
25.72,32022.6,35130.7,0.3887,1.546,147.4,98.5,0.461
25.74,32100.2,35069.4,1.7391,0.8167,147.4,98.5,0.461
25.76,31980.3,35028.1,-0.348,0.3253,147.4,98.5,0.461
25.78,31968.4,34974.2,-0.555,-0.3162,147.4,98.5,0.461
25.8,31964.2,35033.6,-0.6282,0.3915,147.4,98.5,0.461
25.82,31933.7,34972.0,-1.1606,-0.3419,147.4,98.5,0.461
25.84,32037.3,34961.1,0.6441,-0.4714,147.4,98.5,0.461
25.86,32024.8,34993.3,0.4259,-0.0889,147.4,98.5,0.461
25.88,31974.4,35036.9,-0.4514,0.4306,147.4,98.5,0.461
25.9,31937.4,35011.5,-1.0956,0.1284,147.4,98.5,0.461
25.92,31963.1,34950.9,-0.6488,-0.5928,147.4,98.5,0.461
25.94,32083.8,34857.4,1.4544,-1.7055,147.4,98.5,0.461
25.96,32000.7,34974.2,0.0063,-0.3161,147.4,98.5,0.461
25.98,31965.7,34869.2,-0.6036,-1.5658,147.4,98.5,0.461
26.0,31863.0,34899.4,-2.3908,-1.2055,147.4,98.5,0.461
26.02,32029.8,34917.3,0.5137,-0.993,147.4,98.5,0.461
26.04,31927.9,34956.2,-1.262,-0.5304,147.4,98.5,0.461
26.06,31975.3,35018.0,-0.4348,0.2051,147.4,98.5,0.461
26.08,32052.4,35158.6,0.9077,1.8788,147.4,98.5,0.461
26.1,32041.4,35127.4,0.7153,1.5076,147.4,98.5,0.461
26.12,32006.1,35197.2,0.1016,2.3383,147.4,98.5,0.461
26.14,32065.4,35096.4,1.1337,1.1388,147.4,98.5,0.461
26.16,31957.9,35097.7,-0.7382,1.1544,147.4,98.5,0.461
26.18,31992.9,35058.3,-0.1293,0.6849,147.4,98.5,0.461
26.2,32083.9,35026.6,1.4553,0.3079,147.4,98.5,0.461
26.22,32072.6,34998.4,1.258,-0.0273,147.4,98.5,0.461
26.24,31911.1,34999.4,-1.5531,-0.0157,147.4,98.5,0.461
26.26,32018.3,35030.7,0.3137,0.3567,147.4,98.5,0.461
26.28,31999.0,35013.4,-0.0226,0.1503,147.4,98.5,0.461
26.3,32021.5,34941.4,0.3692,-0.706,147.4,98.5,0.461
26.32,31933.5,34947.1,-1.164,-0.6381,147.4,98.5,0.461
26.34,31967.9,34982.1,-0.5653,-0.2215,147.4,98.5,0.461
26.36,32011.8,34907.5,0.2,-1.1096,147.4,98.5,0.461
26.38,31959.7,34861.2,-0.7066,-1.6603,147.4,98.5,0.461
26.4,31938.5,34894.9,-1.0762,-1.2591,147.4,98.5,0.461
26.42,31955.3,35012.7,-0.784,0.1425,147.4,98.5,0.461
26.44,32090.4,34993.0,1.5692,-0.0915,147.4,98.5,0.461
26.46,32039.5,35011.9,0.682,0.1324,147.4,98.5,0.461
26.48,32082.3,35120.0,1.4278,1.4195,147.4,98.5,0.461
26.5,32065.0,35095.0,1.1258,1.1218,147.4,98.5,0.461
26.52,32097.7,35066.9,1.6966,0.7869,147.4,98.5,0.461
26.54,32039.0,35072.0,0.6737,0.8478,147.4,98.5,0.461
26.56,32067.4,34988.2,1.1687,-0.1494,147.4,98.5,0.461
26.58,32007.6,35056.3,0.1268,0.661,147.4,98.5,0.461
26.6,32069.4,35030.0,1.2025,0.3483,147.4,98.5,0.461
26.62,32020.2,35028.3,0.3457,0.3285,147.4,98.5,0.461
26.64,31949.8,34962.6,-0.8796,-0.4536,147.4,98.5,0.461
26.66,32014.5,35002.2,0.2461,0.0179,147.4,98.5,0.461
26.68,31942.7,34940.6,-1.0031,-0.7158,147.4,98.5,0.461
26.7,31976.2,35001.3,-0.4205,0.0071,147.4,98.5,0.461
26.72,31994.6,34927.8,-0.0997,-0.8679,147.4,98.5,0.461
26.74,31956.5,34878.3,-0.7628,-1.4576,147.4,98.5,0.461
26.76,31914.5,34955.1,-1.4942,-0.5435,147.4,98.5,0.461
26.78,31963.1,34834.2,-0.6489,-1.9813,147.4,98.5,0.461
26.8,32058.1,34881.2,1.0066,-1.4227,147.4,98.5,0.461
26.82,31910.6,34902.8,-1.5623,-1.1649,147.4,98.5,0.461
26.84,31950.7,34898.9,-0.8643,-1.2122,147.4,98.5,0.461
26.86,31917.1,35035.7,-1.4485,0.4155,147.4,98.5,0.461
26.88,32023.3,34987.6,0.4005,-0.1567,147.4,98.5,0.461
26.9,32021.8,35097.0,0.3746,1.1456,147.4,98.5,0.461
26.92,32106.9,35182.0,1.8555,2.1565,147.4,98.5,0.461
26.94,31947.6,35057.3,-0.918,0.6728,147.4,98.5,0.461
26.96,32035.0,35047.1,0.6039,0.5519,147.4,98.5,0.461
26.98,31956.2,34978.3,-0.7677,-0.267,147.4,98.5,0.461
27.0,32021.4,35124.4,0.3672,1.4713,147.4,98.5,0.461
27.02,32020.3,35018.8,0.3475,0.2154,147.4,98.5,0.461
27.04,32075.2,35053.5,1.3034,0.6281,147.4,98.5,0.461
27.06,32026.7,34951.3,0.4599,-0.5879,147.4,98.5,0.461
27.08,31983.3,35027.6,-0.2969,0.3193,147.4,98.5,0.461
27.1,31893.7,34915.9,-1.8565,-1.0097,147.4,98.5,0.461
27.12,31955.5,35033.1,-0.7811,0.3846,147.4,98.5,0.461
27.14,31867.5,34945.8,-2.3136,-0.6538,147.4,98.5,0.461
27.16,31923.8,34881.9,-1.333,-1.4141,147.4,98.5,0.461
27.18,32057.5,34906.2,0.9954,-1.125,147.4,98.5,0.461
27.2,31987.3,34800.9,-0.2265,-2.3786,147.4,98.5,0.461
27.22,32027.8,34895.4,0.4785,-1.2537,147.4,98.5,0.461
27.24,31872.6,34988.1,-2.2236,-0.1502,147.4,98.5,0.461
27.26,31909.4,34918.9,-1.5834,-0.9739,147.4,98.5,0.461
27.28,31974.3,35136.6,-0.4526,1.6173,147.4,98.5,0.461
27.3,32028.7,35013.5,0.4952,0.1515,147.4,98.5,0.461
27.32,32094.5,35195.9,1.6403,2.3221,147.4,98.5,0.461
27.34,32036.9,35112.5,0.6364,1.3297,147.4,98.5,0.461
27.36,32119.6,35118.4,2.0766,1.3996,147.4,98.5,0.461
27.38,31994.2,35088.2,-0.1066,1.0408,147.4,98.5,0.461
27.4,31934.9,35068.1,-1.1399,0.801,147.4,98.5,0.461
27.42,31945.2,34995.8,-0.9592,-0.0582,147.4,98.5,0.461
27.44,32016.9,35058.2,0.2885,0.6834,147.4,98.5,0.461
27.46,32045.9,35049.6,0.7946,0.5819,147.4,98.5,0.461
27.48,32071.8,35055.5,1.2453,0.6517,147.4,98.5,0.461
27.5,31971.0,34969.8,-0.5113,-0.3677,147.4,98.5,0.461
27.52,32061.9,34897.9,1.073,-1.2235,147.4,98.5,0.461
27.54,32063.1,34988.5,1.0933,-0.1451,147.4,98.5,0.461
27.56,31956.3,34950.0,-0.7662,-0.6034,147.4,98.5,0.461
27.58,31954.9,34931.5,-0.7909,-0.8236,147.4,98.5,0.461
27.6,31944.0,34939.5,-0.9808,-0.7288,147.4,98.5,0.461
27.62,31926.6,34985.5,-1.2832,-0.1814,147.4,98.5,0.461
27.64,32003.0,34934.6,0.046,-0.7865,147.4,98.5,0.461
27.66,31958.7,34902.8,-0.7245,-1.1657,147.4,98.5,0.461
27.68,32061.2,35024.8,1.0602,0.2866,147.4,98.5,0.461
27.7,32053.0,35040.2,0.9167,0.4701,147.4,98.5,0.461
27.72,32061.7,35094.2,1.0692,1.1126,147.4,98.5,0.461
27.74,32057.4,35220.6,0.9934,2.6162,147.4,98.5,0.461
27.76,31954.0,35087.6,-0.806,1.0342,147.4,98.5,0.461
27.78,31915.9,35079.5,-1.4705,0.937,147.4,98.5,0.461
27.8,31953.9,35026.6,-0.8091,0.3073,147.4,98.5,0.461
27.82,32051.1,35057.9,0.8839,0.6802,147.4,98.5,0.461
27.84,32014.5,34945.8,0.2477,-0.6541,147.4,98.5,0.461
27.86,32044.4,35044.4,0.767,0.5192,147.4,98.5,0.461
27.88,32056.7,34939.7,0.9821,-0.7264,147.4,98.5,0.461
27.9,31914.5,34974.6,-1.4951,-0.3109,147.4,98.5,0.461
27.92,31945.0,34897.0,-0.9628,-1.2342,147.4,98.5,0.461
27.94,32040.0,34959.9,0.6915,-0.4861,147.4,98.5,0.461
27.96,31937.6,35035.5,-1.0928,0.4137,147.4,98.5,0.461
27.98,31992.6,34945.3,-0.1338,-0.6596,147.4,98.5,0.461
28.0,31990.0,34983.8,-0.1798,-0.2018,147.4,98.5,0.461
28.02,31914.8,34805.6,-1.4885,-2.322,147.4,98.5,0.461
28.04,31884.4,34903.9,-2.0194,-1.1521,147.4,98.5,0.461
28.06,31875.7,34944.6,-2.1695,-0.6681,147.4,98.5,0.461
28.08,31992.1,34945.3,-0.1428,-0.6596,147.4,98.5,0.461
28.1,32006.1,34953.8,0.1005,-0.5589,147.4,98.5,0.461
28.12,32074.9,35139.5,1.2991,1.651,147.4,98.5,0.461
28.14,32043.6,35143.9,0.7545,1.7036,147.4,98.5,0.461
28.16,31987.3,35164.6,-0.2275,1.9504,147.4,98.5,0.461
28.18,31951.2,35036.6,-0.8557,0.4272,147.4,98.5,0.461
28.2,32024.3,35073.0,0.4174,0.8605,147.4,98.5,0.461
28.22,32014.1,35049.9,0.2403,0.5848,147.4,98.5,0.461
28.24,31988.6,35017.9,-0.2047,0.2043,147.4,98.5,0.461
28.26,32091.1,35096.3,1.5814,1.137,147.4,98.5,0.461
28.28,31981.9,35059.6,-0.3202,0.6999,147.4,98.5,0.461
28.3,31978.6,34992.2,-0.3785,-0.1018,147.4,98.5,0.461
28.32,31974.6,34992.0,-0.4485,-0.1044,147.4,98.5,0.461
28.34,31927.8,34957.5,-1.2631,-0.5147,147.4,98.5,0.461
28.36,31938.4,34914.8,-1.0776,-1.0229,147.4,98.5,0.461
28.38,31883.1,34953.1,-2.0414,-0.5664,147.4,98.5,0.461
28.4,31886.3,34911.1,-1.9856,-1.0662,147.4,98.5,0.461
28.42,31905.5,34839.0,-1.6511,-1.9251,147.4,98.5,0.461
28.44,31815.8,34903.8,-3.2126,-1.154,147.4,98.5,0.461
28.46,31929.6,34876.6,-1.2321,-1.4771,147.4,98.5,0.461
28.48,31947.3,34992.0,-0.9241,-0.1046,147.4,98.5,0.461
28.5,31994.6,35020.6,-0.0998,0.2369,147.4,98.5,0.461
28.52,32051.2,35019.9,0.8867,0.2275,147.4,98.5,0.461
28.54,32110.4,35044.4,1.9176,0.5199,147.4,98.5,0.461
28.56,32080.6,35103.2,1.3982,1.2198,147.4,98.5,0.461
28.58,31939.1,35105.3,-1.0662,1.2444,147.4,98.5,0.461
28.6,32050.2,35074.4,0.8686,0.8771,147.4,98.5,0.461
28.62,32024.2,34990.6,0.4167,-0.1209,147.4,98.5,0.461
28.64,32091.7,35026.7,1.5922,0.3093,147.4,98.5,0.461
28.66,32003.8,35066.4,0.0606,0.7817,147.4,98.5,0.461
28.68,32046.3,34923.6,0.8003,-0.9174,147.4,98.5,0.461
28.7,31949.1,34941.1,-0.8918,-0.7093,147.4,98.5,0.461
28.72,31968.8,34932.3,-0.5491,-0.8147,147.4,98.5,0.461
28.74,32054.2,35007.1,0.9379,0.0762,147.4,98.5,0.461
28.76,31904.6,34952.7,-1.6669,-0.5715,147.4,98.5,0.461
28.78,31966.8,34938.9,-0.5843,-0.736,147.4,98.5,0.461
28.8,32002.1,34986.2,0.0308,-0.1734,147.4,98.5,0.461
28.82,31964.3,34942.9,-0.6278,-0.6878,147.4,98.5,0.461
28.84,31977.2,34950.7,-0.4032,-0.5958,147.4,98.5,0.461
28.86,31982.3,34944.3,-0.3139,-0.6713,147.4,98.5,0.461
28.88,31978.2,34950.4,-0.386,-0.5984,147.4,98.5,0.461
28.9,32028.6,35025.8,0.4928,0.2985,147.4,98.5,0.461
28.92,31971.6,35023.6,-0.5006,0.2719,147.4,98.5,0.461
28.94,32091.1,35082.4,1.5814,0.9718,147.4,98.5,0.461
28.96,32074.0,35106.1,1.2841,1.254,147.4,98.5,0.461
28.98,32013.7,35049.5,0.2324,0.5804,147.4,98.5,0.461
29.0,32057.5,35075.1,0.9951,0.8847,147.4,98.5,0.461
29.02,32081.3,34946.9,1.4108,-0.6412,147.4,98.5,0.461
29.04,32089.7,35033.3,1.5564,0.3874,147.4,98.5,0.461
29.06,32043.8,34963.9,0.7575,-0.4386,147.4,98.5,0.461
29.08,32050.0,35072.8,0.8647,0.8571,147.4,98.5,0.461
29.1,32050.8,34963.3,0.8791,-0.4457,147.4,98.5,0.461
29.12,31977.1,35012.2,-0.4038,0.1362,147.4,98.5,0.461
29.14,31967.6,34922.0,-0.5704,-0.9365,147.4,98.5,0.461
29.16,32059.9,34982.1,1.0374,-0.2218,147.4,98.5,0.461
29.18,31996.9,34995.3,-0.0594,-0.0642,147.4,98.5,0.461
29.2,31863.2,34997.5,-2.3886,-0.0382,147.4,98.5,0.461
29.22,31831.7,34883.1,-2.9364,-1.4002,147.4,98.5,0.461
29.24,31956.7,34842.5,-0.7594,-1.8835,147.4,98.5,0.461
29.26,31877.1,34932.9,-2.1466,-0.807,147.4,98.5,0.461
29.28,31956.2,34936.8,-0.7686,-0.7604,147.4,98.5,0.461
29.3,31992.2,34967.0,-0.1408,-0.4012,147.4,98.5,0.461
29.32,32031.7,34989.1,0.5462,-0.1384,147.4,98.5,0.461
29.34,32101.4,35126.1,1.7608,1.4913,147.4,98.5,0.461
29.36,32087.1,35112.1,1.5106,1.3255,147.4,98.5,0.461
29.38,32042.3,35094.5,0.7306,1.1156,147.4,98.5,0.461
29.4,32092.2,35042.3,1.6,0.4943,147.4,98.5,0.461
29.42,31956.6,35044.3,-0.7606,0.5181,147.4,98.5,0.461
29.44,31959.9,35012.3,-0.7044,0.1381,147.4,98.5,0.461
29.46,31970.5,35051.8,-0.5186,0.6073,147.4,98.5,0.461
29.48,31892.7,35044.0,-1.875,0.5152,147.4,98.5,0.461
29.5,31903.8,34944.9,-1.6808,-0.6646,147.4,98.5,0.461
29.52,31992.8,34937.1,-0.1304,-0.7573,147.4,98.5,0.461
29.54,31901.5,34983.5,-1.7217,-0.2054,147.4,98.5,0.461
29.56,32068.4,34989.8,1.1863,-0.1307,147.4,98.5,0.461
29.58,32055.5,35021.8,0.9618,0.2506,147.4,98.5,0.461
29.6,31966.7,34916.7,-0.5856,-1.0,147.4,98.5,0.461
29.62,32021.1,34856.5,0.3619,-1.7166,147.4,98.5,0.461
29.64,31995.8,34980.1,-0.0788,-0.2462,147.4,98.5,0.461
29.66,31912.3,34878.7,-1.5329,-1.4521,147.4,98.5,0.461
29.68,31941.6,34908.2,-1.0231,-1.1011,147.4,98.5,0.461
29.7,31947.3,34958.6,-0.9232,-0.5012,147.4,98.5,0.461
29.72,32059.5,34939.1,1.0307,-0.7339,147.4,98.5,0.461
29.74,31896.2,35121.2,-1.8131,1.4337,147.4,98.5,0.461
29.76,32066.1,35072.9,1.1449,0.8588,147.4,98.5,0.461
29.78,32129.9,35105.4,2.2567,1.2452,147.4,98.5,0.461
29.8,32036.1,35093.9,0.6223,1.1088,147.4,98.5,0.461
29.82,31952.9,35144.6,-0.8257,1.7114,147.4,98.5,0.461
29.84,32077.3,34997.6,1.3408,-0.0368,147.4,98.5,0.461
29.86,31977.1,34996.6,-0.4036,-0.0487,147.4,98.5,0.461
29.88,32016.8,34999.3,0.2878,-0.0173,147.4,98.5,0.461
29.9,31928.2,34980.7,-1.2563,-0.2383,147.4,98.5,0.461
29.92,31956.3,34977.0,-0.7671,-0.2824,147.4,98.5,0.461
29.94,31953.0,34902.7,-0.8239,-1.1672,147.4,98.5,0.461
29.96,31894.1,35041.1,-1.8493,0.4805,147.4,98.5,0.461
29.98,31889.1,34881.8,-1.9372,-1.4152,147.4,98.5,0.461
30.0,32053.9,34935.1,0.9324,-0.7805,147.4,98.5,0.461
30.02,31903.3,34968.7,-1.6903,-0.3816,147.4,98.5,0.461
30.04,31987.2,34914.3,-0.2287,-1.028,147.4,98.5,0.461
30.06,32017.0,34962.7,0.2902,-0.4522,147.4,98.5,0.461
30.08,31943.0,34819.9,-0.9977,-2.1516,147.4,98.5,0.461
30.1,31964.8,34968.0,-0.6192,-0.3897,147.4,98.5,0.461
30.12,31932.5,35008.4,-1.1802,0.0907,147.4,98.5,0.461
30.14,32058.8,35113.5,1.0192,1.3419,147.4,98.5,0.461
30.16,32133.2,35064.2,2.3135,0.7557,147.4,98.5,0.461
30.18,32030.0,35129.9,0.5167,1.5371,147.4,98.5,0.461
30.2,31983.0,35166.5,-0.3023,1.9722,147.4,98.5,0.461
30.22,32057.4,35177.6,0.9935,2.1046,147.4,98.5,0.461
30.24,32104.1,35068.8,1.8075,0.8102,147.4,98.5,0.461
30.26,32024.8,35029.1,0.4258,0.3377,147.4,98.5,0.461
30.28,32028.9,34991.0,0.498,-0.1155,147.4,98.5,0.461
30.3,31919.9,34994.0,-1.4008,-0.0803,147.4,98.5,0.461
30.32,32085.7,35092.6,1.4862,1.093,147.4,98.5,0.461
30.34,32036.1,35016.0,0.6224,0.1813,147.4,98.5,0.461
30.36,31943.0,34925.8,-0.9983,-0.8915,147.4,98.5,0.461
30.38,32022.3,34915.9,0.3829,-1.0093,147.4,98.5,0.461
30.4,31944.5,34991.0,-0.9713,-0.1156,147.4,98.5,0.461
30.42,31964.0,34961.6,-0.6322,-0.466,147.4,98.5,0.461
30.44,31942.3,34978.3,-1.0106,-0.2675,147.4,98.5,0.461
30.46,32034.2,34879.6,0.5892,-1.4419,147.4,98.5,0.461
30.48,31980.1,34875.0,-0.3519,-1.4965,147.4,98.5,0.461
30.5,31852.7,35009.9,-2.5707,0.109,147.4,98.5,0.461
30.52,32051.3,35025.2,0.8881,0.2908,147.4,98.5,0.461
30.54,32022.8,35056.9,0.3912,0.6687,147.4,98.5,0.461
30.56,32056.0,35142.0,0.9698,1.6804,147.4,98.5,0.461
30.58,32081.5,35043.9,1.4132,0.5136,147.4,98.5,0.461
30.6,31993.3,35088.8,-0.122,1.0477,147.4,98.5,0.461
30.62,32044.1,35003.7,0.7625,0.0347,147.4,98.5,0.461
30.64,32010.4,34956.7,0.1759,-0.5239,147.4,98.5,0.461
30.66,32063.3,35024.5,1.097,0.2824,147.4,98.5,0.461
30.68,31913.2,34980.6,-1.5163,-0.2396,147.4,98.5,0.461
30.7,31966.5,34959.8,-0.5894,-0.4874,147.4,98.5,0.461
30.72,32015.2,34941.9,0.26,-0.7006,147.4,98.5,0.461
30.74,31937.5,34949.7,-1.0936,-0.6071,147.4,98.5,0.461
30.76,31951.9,35049.9,-0.8426,0.5845,147.4,98.5,0.461
30.78,32031.5,34976.3,0.5427,-0.2912,147.4,98.5,0.461
30.8,31897.0,35044.8,-1.7994,0.5246,147.4,98.5,0.461
30.82,31947.0,34878.9,-0.9293,-1.4496,147.4,98.5,0.461
30.84,32044.0,34921.5,0.7607,-0.9425,147.4,98.5,0.461
30.86,31998.7,34915.0,-0.0288,-1.0202,147.4,98.5,0.461
30.88,31887.9,34835.0,-1.9582,-1.9721,147.4,98.5,0.461
30.9,31941.5,34846.3,-1.0245,-1.8377,147.4,98.5,0.461
30.92,31986.1,34961.6,-0.2476,-0.4654,147.4,98.5,0.461
30.94,32047.2,34992.3,0.8164,-0.1005,147.4,98.5,0.461
30.96,31985.7,35035.2,-0.2552,0.4102,147.4,98.5,0.461
30.98,32182.7,35150.6,3.1766,1.7839,147.4,98.5,0.461
31.0,32059.9,35130.3,1.038,1.5417,147.4,98.5,0.461
31.02,31932.0,35058.0,-1.1889,0.681,147.4,98.5,0.461
31.04,32063.7,35051.0,1.1034,0.5987,147.4,98.5,0.461
31.06,32035.5,35019.4,0.6123,0.2224,147.4,98.5,0.461
31.08,32023.4,34947.3,0.4021,-0.6356,147.4,98.5,0.461
31.1,32027.3,34998.9,0.4705,-0.0224,147.4,98.5,0.461
31.12,32032.2,35042.7,0.5558,0.4988,147.4,98.5,0.461
31.14,31952.2,34930.9,-0.8378,-0.8308,147.4,98.5,0.461
31.16,31992.8,34993.7,-0.1302,-0.0841,147.4,98.5,0.461
31.18,31929.4,34997.6,-1.235,-0.0368,147.4,98.5,0.461
31.2,31960.7,35043.8,-0.69,0.5125,147.4,98.5,0.461
31.22,31971.6,34935.4,-0.5001,-0.7777,147.4,98.5,0.461
31.24,31998.7,34947.7,-0.0284,-0.6307,147.4,98.5,0.461
31.26,31942.3,34880.7,-1.0109,-1.429,147.4,98.5,0.461
31.28,31978.0,34914.8,-0.3883,-1.0229,147.4,98.5,0.461
31.3,32014.4,34909.4,0.2446,-1.0868,147.4,98.5,0.461
31.32,32042.9,34968.9,0.7418,-0.3791,147.4,98.5,0.461
31.34,32008.5,35045.4,0.1433,0.5316,147.4,98.5,0.461
31.36,32083.4,35161.7,1.4462,1.9149,147.4,98.5,0.461
31.38,32033.4,35052.3,0.5757,0.6137,147.4,98.5,0.461
31.4,31995.1,35132.0,-0.0907,1.5619,147.4,98.5,0.461
31.42,32059.5,35125.0,1.0314,1.4784,147.4,98.5,0.461
31.44,32111.0,35057.7,1.928,0.6782,147.4,98.5,0.461
31.46,32037.7,35023.1,0.6508,0.2666,147.4,98.5,0.461
31.48,32008.3,35100.6,0.1383,1.1887,147.4,98.5,0.461
31.5,31988.1,35072.2,-0.2121,0.85,147.4,98.5,0.461
31.52,31978.0,35036.6,-0.3891,0.4269,147.4,98.5,0.461
31.54,32012.2,35060.9,0.2069,0.7154,147.4,98.5,0.461
31.56,31984.5,35010.7,-0.2762,0.1185,147.4,98.5,0.461
31.58,32031.6,34921.9,0.5445,-0.9379,147.4,98.5,0.461
31.6,31930.4,34889.9,-1.2183,-1.3188,147.4,98.5,0.461
31.62,32028.8,34892.1,0.4956,-1.2933,147.4,98.5,0.461
31.64,31924.3,34971.9,-1.323,-0.3435,147.4,98.5,0.461
31.66,31930.7,34901.8,-1.2116,-1.1768,147.4,98.5,0.461
31.68,31971.3,34898.6,-0.5059,-1.2154,147.4,98.5,0.461
31.7,31973.9,34923.1,-0.4595,-0.9239,147.4,98.5,0.461
31.72,32037.4,34951.1,0.6452,-0.591,147.4,98.5,0.461
31.74,31944.9,34947.7,-0.9653,-0.6306,147.4,98.5,0.461
31.76,32146.8,35038.8,2.5518,0.4534,147.4,98.5,0.461
31.78,32044.1,35172.4,0.7626,2.0427,147.4,98.5,0.461
31.8,32090.5,35216.2,1.57,2.5636,147.4,98.5,0.461
31.82,32082.7,35103.9,1.4349,1.2279,147.4,98.5,0.461
31.84,32028.9,35141.1,0.4978,1.6699,147.4,98.5,0.461
31.86,32028.2,34973.5,0.4863,-0.3239,147.4,98.5,0.461
31.88,31998.1,35125.2,-0.0385,1.4813,147.4,98.5,0.461
31.9,32107.3,34993.4,1.863,-0.0872,147.4,98.5,0.461
31.92,32017.8,35030.4,0.3045,0.3525,147.4,98.5,0.461
31.94,31964.4,34968.1,-0.626,-0.3888,147.4,98.5,0.461
31.96,32005.0,34988.7,0.0814,-0.1436,147.4,98.5,0.461
31.98,31992.2,35013.6,-0.1418,0.1527,147.4,98.5,0.461
32.0,32043.1,34887.9,0.7454,-1.3422,147.4,98.5,0.461
32.02,32093.7,35091.2,1.6269,1.0765,147.4,98.5,0.461
32.04,31957.7,34908.5,-0.7416,-1.0975,147.4,98.5,0.461
32.06,32017.4,34962.6,0.2978,-0.4539,147.4,98.5,0.461
32.08,32056.1,34968.4,0.9716,-0.3845,147.4,98.5,0.461
32.1,32058.7,34943.1,1.0165,-0.686,147.4,98.5,0.461
32.12,31908.4,34931.3,-1.6007,-0.8265,147.4,98.5,0.461
32.14,32051.8,35062.9,0.8974,0.7393,147.4,98.5,0.461
32.16,31998.9,35037.4,-0.0241,0.4368,147.4,98.5,0.461
32.18,32002.5,35136.5,0.0374,1.6161,147.4,98.5,0.461
32.2,32072.6,35137.5,1.2581,1.6273,147.4,98.5,0.461
32.22,31967.1,35199.2,-0.5781,2.3616,147.4,98.5,0.461
32.24,32051.0,35081.6,0.8829,0.9624,147.4,98.5,0.461
32.26,32031.7,35016.4,0.5472,0.1859,147.4,98.5,0.461
32.28,31997.3,35031.9,-0.0524,0.3708,147.4,98.5,0.461
32.3,31971.1,35092.9,-0.509,1.0962,147.4,98.5,0.461
32.32,31975.6,35016.0,-0.4308,0.1815,147.4,98.5,0.461
32.34,32037.8,35025.3,0.6534,0.2919,147.4,98.5,0.461
32.36,31990.5,35009.7,-0.1705,0.107,147.4,98.5,0.461
32.38,31922.1,34851.8,-1.3623,-1.7718,147.4,98.5,0.461
32.4,31964.0,34903.7,-0.6325,-1.1544,147.4,98.5,0.461
32.42,32022.4,34911.3,0.384,-1.0646,147.4,98.5,0.461
32.44,31920.6,35013.5,-1.388,0.1519,147.4,98.5,0.461
32.46,31948.1,34935.8,-0.9092,-0.7723,147.4,98.5,0.461
32.48,31945.8,34957.8,-0.9495,-0.5104,147.4,98.5,0.461
32.5,32002.3,34913.7,0.0337,-1.0354,147.4,98.5,0.461
32.52,31978.7,34917.9,-0.3766,-0.9857,147.4,98.5,0.461
32.54,32001.6,34949.8,0.0225,-0.6066,147.4,98.5,0.461
32.56,31992.9,35004.8,-0.1293,0.0488,147.4,98.5,0.461
32.58,32007.3,35120.3,0.1212,1.4232,147.4,98.5,0.461
32.6,32071.2,35135.3,1.2349,1.6012,147.4,98.5,0.461
32.62,32137.9,35162.9,2.3954,1.9301,147.4,98.5,0.461
32.64,32023.7,35194.6,0.4067,2.3067,147.4,98.5,0.461
32.66,32082.7,35034.4,1.4348,0.4004,147.4,98.5,0.461
32.68,32036.0,35055.8,0.6206,0.6547,147.4,98.5,0.461
32.7,32030.5,35025.5,0.5255,0.2948,147.4,98.5,0.461
32.72,32026.7,34914.7,0.4591,-1.0237,147.4,98.5,0.461
32.74,32065.6,35100.4,1.1373,1.186,147.4,98.5,0.461
32.76,32010.5,35043.5,0.1767,0.5088,147.4,98.5,0.461
32.78,31927.8,34942.4,-1.263,-0.6939,147.4,98.5,0.461
32.8,32040.1,34915.4,0.6929,-1.016,147.4,98.5,0.461
32.82,32020.0,34948.6,0.3435,-0.6201,147.4,98.5,0.461
32.84,31869.4,35007.7,-2.2797,0.0824,147.4,98.5,0.461
32.86,32020.0,34914.1,0.3427,-1.0314,147.4,98.5,0.461
32.88,31968.4,34957.7,-0.5559,-0.5118,147.4,98.5,0.461
32.9,31888.7,34977.6,-1.9441,-0.2751,147.4,98.5,0.461
32.92,32023.4,34820.6,0.4026,-2.1439,147.4,98.5,0.461
32.94,31954.4,34879.9,-0.7989,-1.4382,147.4,98.5,0.461
32.96,31984.4,34973.4,-0.2766,-0.3253,147.4,98.5,0.461
32.98,32020.9,34992.1,0.3577,-0.1027,147.4,98.5,0.461
33.0,32009.7,35069.6,0.1634,0.8191,147.4,98.5,0.461
33.02,32089.4,35076.1,1.5518,0.8964,147.4,98.5,0.461
33.04,32071.5,35139.0,1.2398,1.6458,147.4,98.5,0.461
33.06,32055.7,35110.3,0.9641,1.3043,147.4,98.5,0.461
33.08,32011.1,35097.9,0.1879,1.1557,147.4,98.5,0.461
33.1,32063.8,35040.7,1.1052,0.4756,147.4,98.5,0.461
33.12,31980.8,35070.1,-0.3406,0.8254,147.4,98.5,0.461
33.14,31969.2,35131.2,-0.5412,1.5522,147.4,98.5,0.461
33.16,31966.4,35044.6,-0.5914,0.5215,147.4,98.5,0.461
33.18,31967.4,35075.7,-0.5741,0.8926,147.4,98.5,0.461
33.2,31936.8,35009.0,-1.1064,0.0987,147.4,98.5,0.461
33.22,31990.0,34981.8,-0.179,-0.2257,147.4,98.5,0.461
33.24,31944.6,34926.4,-0.9702,-0.8846,147.4,98.5,0.461
33.26,32034.4,34929.4,0.5932,-0.8484,147.4,98.5,0.461
33.28,31926.8,34949.6,-1.2796,-0.6083,147.4,98.5,0.461
33.3,31896.1,34883.1,-1.8147,-1.3995,147.4,98.5,0.461
33.32,31960.9,34879.8,-0.6861,-1.439,147.4,98.5,0.461
33.34,31952.0,34974.7,-0.8412,-0.3103,147.4,98.5,0.461
33.36,31980.6,34936.0,-0.3436,-0.7698,147.4,98.5,0.461
33.38,32010.9,34990.9,0.1835,-0.1171,147.4,98.5,0.461
33.4,32019.2,35108.3,0.328,1.2802,147.4,98.5,0.461
33.42,32049.2,35129.9,0.852,1.5368,147.4,98.5,0.461
33.44,32031.2,35160.0,0.5373,1.8948,147.4,98.5,0.461
33.46,32002.6,35178.3,0.0398,2.1131,147.4,98.5,0.461
33.48,31923.9,35186.8,-1.3305,2.214,147.4,98.5,0.461
33.5,31994.3,35032.6,-0.105,0.3788,147.4,98.5,0.461
33.52,32084.7,35040.6,1.4693,0.474,147.4,98.5,0.461
33.54,32052.4,35114.3,0.9076,1.3516,147.4,98.5,0.461
33.56,31957.5,34930.3,-0.7452,-0.8387,147.4,98.5,0.461
33.58,31965.8,34995.3,-0.6009,-0.0642,147.4,98.5,0.461
33.6,32086.6,34903.7,1.502,-1.1551,147.4,98.5,0.461
33.62,31931.8,34954.1,-1.1931,-0.5554,147.4,98.5,0.461
33.64,31993.6,35025.4,-0.1172,0.2933,147.4,98.5,0.461
33.66,31973.9,34995.6,-0.4596,-0.0617,147.4,98.5,0.461
33.68,32019.0,34893.2,0.3259,-1.2791,147.4,98.5,0.461
33.7,31890.4,34988.5,-1.9137,-0.1462,147.4,98.5,0.461
33.72,31850.3,34939.2,-2.6132,-0.7319,147.4,98.5,0.461
33.74,32035.6,34906.7,0.6147,-1.1186,147.4,98.5,0.461
33.76,31917.7,34883.9,-1.4383,-1.3903,147.4,98.5,0.461
33.78,31981.0,34988.1,-0.3371,-0.1501,147.4,98.5,0.461
33.8,31972.1,35036.6,-0.4922,0.4269,147.4,98.5,0.461
33.82,32013.8,35210.7,0.2349,2.4986,147.4,98.5,0.461
33.84,32037.9,35075.5,0.6551,0.89,147.4,98.5,0.461
33.86,32035.9,35051.5,0.6198,0.6037,147.4,98.5,0.461
33.88,31983.2,35074.9,-0.2984,0.882,147.4,98.5,0.461
33.9,32018.9,35032.1,0.324,0.3736,147.4,98.5,0.461
33.92,31915.3,35086.7,-1.4804,1.0234,147.4,98.5,0.461
33.94,31975.0,35068.2,-0.4414,0.8023,147.4,98.5,0.461
33.96,32021.6,35022.0,0.3707,0.253,147.4,98.5,0.461
33.98,32019.8,35072.0,0.34,0.8481,147.4,98.5,0.461
34.0,31972.5,35014.1,-0.4837,0.1589,147.4,98.5,0.461
34.02,31979.9,35014.9,-0.3556,0.1683,147.4,98.5,0.461
34.04,31975.8,35030.5,-0.4275,0.354,147.4,98.5,0.461
34.06,31969.3,35003.1,-0.5393,0.0279,147.4,98.5,0.461
34.08,32046.7,34903.2,0.8075,-1.1603,147.4,98.5,0.461
34.1,31988.9,34954.6,-0.1981,-0.5496,147.4,98.5,0.461
34.12,32035.7,34891.6,0.6168,-1.2991,147.4,98.5,0.461
34.14,32002.2,34865.6,0.0336,-1.6079,147.4,98.5,0.461
34.16,32060.8,34822.7,1.0537,-2.1189,147.4,98.5,0.461
34.18,32104.9,34959.7,1.8207,-0.4884,147.4,98.5,0.461
34.2,31976.6,35093.2,-0.4135,1.0997,147.4,98.5,0.461
34.22,32010.7,35093.5,0.1804,1.104,147.4,98.5,0.461
34.24,32020.1,35221.3,0.3453,2.6248,147.4,98.5,0.461
34.26,32133.4,35156.2,2.318,1.8505,147.4,98.5,0.461
34.28,32024.1,35138.3,0.414,1.6366,147.4,98.5,0.461
34.3,32019.3,35060.1,0.3314,0.7062,147.4,98.5,0.461
34.32,32189.2,35040.9,3.2895,0.4782,147.4,98.5,0.461
34.34,32097.9,35005.6,1.7,0.0582,147.4,98.5,0.461
34.36,32145.8,35059.1,2.5345,0.6949,147.4,98.5,0.461
34.38,31982.2,35014.6,-0.3156,0.1647,147.4,98.5,0.461
34.4,31966.5,34917.6,-0.589,-0.9897,147.4,98.5,0.461
34.42,32030.3,34981.4,0.523,-0.2297,147.4,98.5,0.461
34.44,31894.5,35023.9,-1.843,0.2762,147.4,98.5,0.461
34.46,31947.2,34895.2,-0.9248,-1.2564,147.4,98.5,0.461
34.48,31968.1,34941.1,-0.5604,-0.7093,147.4,98.5,0.461
34.5,31989.5,34900.4,-0.189,-1.1945,147.4,98.5,0.461
34.52,31900.9,34942.5,-1.7317,-0.6935,147.4,98.5,0.461
34.54,32049.3,34916.3,0.8524,-1.0044,147.4,98.5,0.461
34.56,32023.2,34954.4,0.3991,-0.5511,147.4,98.5,0.461
34.58,31911.3,34887.8,-1.5503,-1.3438,147.4,98.5,0.461
34.6,32042.0,34833.4,0.7259,-1.9913,147.4,98.5,0.461
34.62,31946.9,35105.8,-0.9303,1.2505,147.4,98.5,0.461
34.64,31988.1,35068.9,-0.2124,0.811,147.4,98.5,0.461
34.66,31984.3,35033.2,-0.2787,0.386,147.4,98.5,0.461
34.68,32018.2,35163.7,0.3118,1.9395,147.4,98.5,0.461
34.7,31996.8,35059.8,-0.061,0.7026,147.4,98.5,0.461
34.72,31985.0,34982.2,-0.2666,-0.2202,147.4,98.5,0.461
34.74,32077.4,35075.8,1.3432,0.8932,147.4,98.5,0.461
34.76,31968.7,35048.7,-0.5498,0.5707,147.4,98.5,0.461
34.78,32010.0,34977.2,0.168,-0.2805,147.4,98.5,0.461
34.8,32053.0,34961.7,0.9175,-0.4649,147.4,98.5,0.461
34.82,32062.1,35053.8,1.0767,0.6315,147.4,98.5,0.461
34.84,31964.4,34990.2,-0.6261,-0.1255,147.4,98.5,0.461
34.86,31928.1,34990.3,-1.2569,-0.1239,147.4,98.5,0.461
34.88,31968.5,34992.7,-0.5541,-0.0961,147.4,98.5,0.461
34.9,31898.7,34977.4,-1.7698,-0.2779,147.4,98.5,0.461
34.92,32039.5,34975.6,0.6818,-0.2992,147.4,98.5,0.461
34.94,32032.5,34906.4,0.5612,-1.1226,147.4,98.5,0.461
34.96,31909.4,34924.1,-1.5831,-0.9122,147.4,98.5,0.461
34.98,32001.1,34979.0,0.0143,-0.2583,147.4,98.5,0.461
35.0,31974.6,34930.6,-0.4483,-0.8349,147.4,98.5,0.461
35.02,32045.2,35087.6,0.7809,1.0331,147.4,98.5,0.461
35.04,32130.6,35125.2,2.2685,1.4814,147.4,98.5,0.461
35.06,32018.4,35009.8,0.3143,0.1076,147.4,98.5,0.461
35.08,32168.5,35115.5,2.9287,1.3654,147.4,98.5,0.461
35.1,31975.3,35021.4,-0.4351,0.2463,147.4,98.5,0.461
35.12,32008.8,35074.4,0.1471,0.8768,147.4,98.5,0.461
35.14,32042.6,35017.8,0.7369,0.2031,147.4,98.5,0.461
35.16,32017.7,35076.0,0.3019,0.8961,147.4,98.5,0.461
35.18,31983.3,35016.1,-0.2964,0.1824,147.4,98.5,0.461
35.2,32040.3,35049.0,0.6963,0.574,147.4,98.5,0.461
35.22,31950.4,34862.9,-0.8693,-1.6397,147.4,98.5,0.461
35.24,31989.1,35004.7,-0.1952,0.0468,147.4,98.5,0.461
35.26,32002.0,35028.7,0.0287,0.3322,147.4,98.5,0.461
35.28,31895.9,34909.0,-1.8179,-1.0913,147.4,98.5,0.461
35.3,32069.8,34942.4,1.2105,-0.6936,147.4,98.5,0.461
35.32,31997.0,34947.3,-0.0581,-0.6355,147.4,98.5,0.461
35.34,32031.7,34935.1,0.5458,-0.7815,147.4,98.5,0.461
35.36,31934.6,34856.2,-1.145,-1.7205,147.4,98.5,0.461
35.38,31947.7,34861.5,-0.9157,-1.6574,147.4,98.5,0.461
35.4,31947.4,35042.9,-0.9223,0.5014,147.4,98.5,0.461
35.42,32058.0,35019.2,1.0041,0.2195,147.4,98.5,0.461
35.44,32010.4,35058.7,0.1756,0.6894,147.4,98.5,0.461
35.46,32094.9,35231.3,1.6472,2.7442,147.4,98.5,0.461
35.48,32024.2,35103.2,0.4153,1.2191,147.4,98.5,0.461
35.5,32105.4,35141.8,1.8294,1.6782,147.4,98.5,0.461
35.52,32059.9,35021.4,1.0384,0.2455,147.4,98.5,0.461
35.54,32053.8,35010.9,0.9316,0.1212,147.4,98.5,0.461
35.56,31921.1,35065.0,-1.3794,0.7647,147.4,98.5,0.461
35.58,32015.0,34970.8,0.2561,-0.3562,147.4,98.5,0.461
35.6,32011.3,34999.6,0.1907,-0.013,147.4,98.5,0.461
35.62,32039.2,34966.3,0.6771,-0.4095,147.4,98.5,0.461
35.64,32009.3,34971.3,0.1567,-0.3505,147.4,98.5,0.461
35.66,32038.4,34977.5,0.6632,-0.2771,147.4,98.5,0.461
35.68,31973.5,34881.4,-0.4675,-1.4202,147.4,98.5,0.461
35.7,31945.1,34949.1,-0.9609,-0.6149,147.4,98.5,0.461
35.72,32036.7,34931.2,0.6336,-0.8275,147.4,98.5,0.461
35.74,31824.5,34918.9,-3.0616,-0.9738,147.4,98.5,0.461
35.76,31968.7,34942.2,-0.5499,-0.6966,147.4,98.5,0.461
35.78,32029.7,34831.2,0.5111,-2.017,147.4,98.5,0.461
35.8,32016.8,34956.5,0.2878,-0.5265,147.4,98.5,0.461
35.82,32019.0,34956.2,0.3261,-0.5295,147.4,98.5,0.461
35.84,32078.0,35000.9,1.3526,0.002,147.4,98.5,0.461
35.86,32006.4,35122.4,0.1052,1.448,147.4,98.5,0.461
35.88,32131.6,35148.0,2.2863,1.752,147.4,98.5,0.461
35.9,31992.3,35044.4,-0.1397,0.5195,147.4,98.5,0.461
35.92,31981.5,35095.9,-0.3283,1.1329,147.4,98.5,0.461
35.94,31997.2,35043.2,-0.0551,0.5058,147.4,98.5,0.461
35.96,31943.4,34945.2,-0.9921,-0.6608,147.4,98.5,0.461
35.98,32022.9,35038.3,0.3928,0.447,147.4,98.5,0.461
36.0,31987.2,34979.3,-0.2279,-0.2557,147.4,98.5,0.461
36.02,32058.2,34983.8,1.008,-0.2011,147.4,98.5,0.461
36.04,31989.2,34972.5,-0.1945,-0.3362,147.4,98.5,0.461
36.06,31981.6,34906.9,-0.3267,-1.1165,147.4,98.5,0.461
36.08,31933.8,34985.1,-1.1583,-0.186,147.4,98.5,0.461
36.1,32015.3,34970.9,0.2609,-0.3554,147.4,98.5,0.461
36.12,32093.1,34919.6,1.6161,-0.9657,147.4,98.5,0.461
36.14,31985.8,34961.8,-0.2533,-0.4628,147.4,98.5,0.461
36.16,31972.6,34845.7,-0.4833,-1.8446,147.4,98.5,0.461
36.18,31966.7,34857.2,-0.5849,-1.7084,147.4,98.5,0.461
36.2,31991.4,34815.4,-0.1545,-2.2053,147.4,98.5,0.461
36.22,31956.6,35121.1,-0.762,1.4324,147.4,98.5,0.461
36.24,32032.7,35084.9,0.5634,1.0014,147.4,98.5,0.461
36.26,32088.2,35109.5,1.5309,1.2937,147.4,98.5,0.461
36.28,32112.5,35114.1,1.9541,1.3496,147.4,98.5,0.461
36.3,32071.6,35116.9,1.2408,1.3826,147.4,98.5,0.461
36.32,32055.7,35211.5,0.9642,2.508,147.4,98.5,0.461
36.34,32011.8,35113.3,0.2004,1.3391,147.4,98.5,0.461
36.36,32108.3,35024.8,1.8799,0.2864,147.4,98.5,0.461
36.38,31941.6,35018.9,-1.0222,0.2162,147.4,98.5,0.461
36.4,31891.2,34951.6,-1.9003,-0.5846,147.4,98.5,0.461
36.42,31984.2,35026.9,-0.2807,0.3114,147.4,98.5,0.461
36.44,31970.7,35026.5,-0.5151,0.3062,147.4,98.5,0.461
36.46,32020.7,34884.7,0.3552,-1.3803,147.4,98.5,0.461
36.48,31969.3,34991.7,-0.5397,-0.1076,147.4,98.5,0.461
36.5,32017.2,34965.3,0.2936,-0.4222,147.4,98.5,0.461
36.52,32045.3,34950.9,0.784,-0.5931,147.4,98.5,0.461
36.54,31953.8,34970.4,-0.8102,-0.3604,147.4,98.5,0.461
36.56,32034.1,34958.9,0.588,-0.498,147.4,98.5,0.461
36.58,31932.2,34901.0,-1.1863,-1.1868,147.4,98.5,0.461
36.6,31988.9,34954.4,-0.1984,-0.5517,147.4,98.5,0.461
36.62,32020.7,34896.1,0.3557,-1.2456,147.4,98.5,0.461
36.64,32144.7,35017.1,2.5149,0.1943,147.4,98.5,0.461
36.66,32054.4,35119.5,0.9421,1.4133,147.4,98.5,0.461
36.68,32039.1,35080.9,0.675,0.9537,147.4,98.5,0.461
36.7,32100.0,35230.5,1.7361,2.7336,147.4,98.5,0.461
36.72,31991.3,35071.8,-0.1577,0.8451,147.4,98.5,0.461
36.74,31975.3,35056.9,-0.4359,0.6678,147.4,98.5,0.461
36.76,31957.5,34986.7,-0.7458,-0.167,147.4,98.5,0.461
36.78,32003.2,34964.0,0.051,-0.4366,147.4,98.5,0.461
36.8,32039.7,35001.5,0.6865,0.0088,147.4,98.5,0.461
36.82,31966.1,34943.0,-0.5963,-0.6869,147.4,98.5,0.461
36.84,32036.0,35106.0,0.6212,1.2525,147.4,98.5,0.461
36.86,31992.8,34829.4,-0.1314,-2.0386,147.4,98.5,0.461
36.88,31999.8,34941.3,-0.0093,-0.7079,147.4,98.5,0.461
36.9,32049.5,34877.7,0.8559,-1.4636,147.4,98.5,0.461
36.92,32074.7,34922.4,1.2949,-0.9317,147.4,98.5,0.461
36.94,32031.7,34902.3,0.5458,-1.1719,147.4,98.5,0.461
36.96,31998.9,34938.6,-0.0242,-0.7398,147.4,98.5,0.461
36.98,31938.9,34859.2,-1.0692,-1.6838,147.4,98.5,0.461
37.0,31814.0,34890.8,-3.2442,-1.3088,147.4,98.5,0.461
37.02,31932.2,34897.3,-1.1865,-1.2314,147.4,98.5,0.461
37.04,31969.0,35048.2,-0.5459,0.5642,147.4,98.5,0.461
37.06,32050.3,35041.8,0.8708,0.4892,147.4,98.5,0.461
37.08,32117.0,35150.1,2.0328,1.7774,147.4,98.5,0.461
37.1,32054.7,35142.6,0.947,1.6877,147.4,98.5,0.461
37.12,31974.7,35134.9,-0.4468,1.5961,147.4,98.5,0.461
37.14,31954.7,35099.6,-0.7952,1.1759,147.4,98.5,0.461
37.16,31955.6,35090.1,-0.7784,1.0632,147.4,98.5,0.461
37.18,31939.2,34991.4,-1.065,-0.1108,147.4,98.5,0.461
37.2,31984.0,34928.6,-0.2844,-0.858,147.4,98.5,0.461
37.22,32112.7,34972.5,1.9576,-0.3355,147.4,98.5,0.461
37.24,31955.0,34926.1,-0.7889,-0.8883,147.4,98.5,0.461
37.26,31937.3,34986.1,-1.0971,-0.1747,147.4,98.5,0.461
37.28,31981.4,34958.6,-0.3299,-0.5013,147.4,98.5,0.461
37.3,31908.6,34932.5,-1.5979,-0.8119,147.4,98.5,0.461
37.32,31984.3,34948.7,-0.2787,-0.6189,147.4,98.5,0.461
37.34,31917.0,34925.3,-1.4509,-0.8972,147.4,98.5,0.461
37.36,31919.9,34862.1,-1.4001,-1.6496,147.4,98.5,0.461
37.38,32011.0,34948.2,0.1856,-0.6248,147.4,98.5,0.461
37.4,31936.3,34905.3,-1.1146,-1.1353,147.4,98.5,0.461
37.42,31955.5,34873.1,-0.7809,-1.5193,147.4,98.5,0.461
37.44,32010.7,35001.2,0.1812,0.0053,147.4,98.5,0.461
37.46,32056.5,35029.2,0.9791,0.3391,147.4,98.5,0.461
37.48,32067.7,34985.6,1.173,-0.1806,147.4,98.5,0.461
37.5,31968.7,35185.6,-0.5504,2.1996,147.4,98.5,0.461
37.52,32017.7,35232.2,0.3019,2.7541,147.4,98.5,0.461
37.54,31997.2,35059.1,-0.0537,0.6943,147.4,98.5,0.461
37.56,31946.9,35048.4,-0.9297,0.5669,147.4,98.5,0.461
37.58,32033.4,35024.3,0.5767,0.2806,147.4,98.5,0.461
37.6,31937.7,35013.6,-1.0902,0.1534,147.4,98.5,0.461
37.62,32007.6,35081.4,0.1264,0.9601,147.4,98.5,0.461
37.64,32055.7,34954.4,0.965,-0.5512,147.4,98.5,0.461
37.66,31983.3,34983.4,-0.2972,-0.2063,147.4,98.5,0.461
37.68,31956.6,34982.9,-0.7606,-0.2124,147.4,98.5,0.461
37.7,31982.8,34909.7,-0.3059,-1.0832,147.4,98.5,0.461
37.72,31942.9,35017.6,-1.0004,0.2009,147.4,98.5,0.461
37.74,31977.5,34941.2,-0.3982,-0.7083,147.4,98.5,0.461
37.76,31983.8,34961.2,-0.2884,-0.4701,147.4,98.5,0.461
37.78,31915.9,34912.4,-1.47,-1.0517,147.4,98.5,0.461
37.8,31947.1,34861.8,-0.9272,-1.653,147.4,98.5,0.461
37.82,31952.2,34931.5,-0.8382,-0.824,147.4,98.5,0.461
37.84,31960.0,34885.1,-0.7015,-1.3761,147.4,98.5,0.461
37.86,32014.2,34976.3,0.2419,-0.2908,147.4,98.5,0.461
37.88,32082.5,35056.2,1.4309,0.6595,147.4,98.5,0.461
37.9,31948.2,35096.4,-0.907,1.1378,147.4,98.5,0.461
37.92,32115.6,35157.6,2.0083,1.8664,147.4,98.5,0.461
37.94,31986.9,35107.5,-0.2345,1.2708,147.4,98.5,0.461
37.96,31978.9,35019.6,-0.3736,0.2246,147.4,98.5,0.461
37.98,32056.0,35031.0,0.9692,0.3602,147.4,98.5,0.461
38.0,32030.5,34985.0,0.5259,-0.1869,147.4,98.5,0.461
38.02,32043.6,35075.4,0.7536,0.8882,147.4,98.5,0.461
38.04,31950.9,35002.3,-0.8608,0.0185,147.4,98.5,0.461
38.06,32029.1,35004.2,0.5016,0.041,147.4,98.5,0.461
38.08,31964.4,34959.3,-0.6263,-0.4927,147.4,98.5,0.461
38.1,31933.6,34922.4,-1.1617,-0.9317,147.4,98.5,0.461
38.12,31976.7,35019.2,-0.411,0.22,147.4,98.5,0.461
38.14,31911.7,34910.4,-1.5434,-1.0753,147.4,98.5,0.461
38.16,31986.3,35027.5,-0.2437,0.318,147.4,98.5,0.461
38.18,31982.7,34983.1,-0.306,-0.2099,147.4,98.5,0.461
38.2,31927.1,34980.3,-1.2749,-0.2433,147.4,98.5,0.461
38.22,31974.6,34918.3,-0.4475,-0.9812,147.4,98.5,0.461
38.24,32019.8,34806.3,0.3386,-2.3139,147.4,98.5,0.461
38.26,31930.7,34964.2,-1.2127,-0.4346,147.4,98.5,0.461
38.28,32093.3,35004.9,1.6193,0.0493,147.4,98.5,0.461
38.3,31945.8,35136.3,-0.9499,1.6127,147.4,98.5,0.461
38.32,32027.3,35076.8,0.4707,0.9049,147.4,98.5,0.461
38.34,32052.8,35168.8,0.9136,1.9995,147.4,98.5,0.461
38.36,32021.4,35078.8,0.3665,0.9286,147.4,98.5,0.461
38.38,32122.7,35024.6,2.132,0.2839,147.4,98.5,0.461
38.4,31924.1,35064.6,-1.328,0.7598,147.4,98.5,0.461
38.42,32034.6,34995.2,0.5965,-0.0659,147.4,98.5,0.461
38.44,31939.1,34960.1,-1.0658,-0.4839,147.4,98.5,0.461
38.46,31982.2,34958.7,-0.3151,-0.5002,147.4,98.5,0.461
38.48,31942.1,34978.0,-1.0131,-0.2704,147.4,98.5,0.461
38.5,31996.7,34991.0,-0.0637,-0.1157,147.4,98.5,0.461
38.52,31940.3,34940.2,-1.0447,-0.7208,147.4,98.5,0.461
38.54,32036.6,34999.0,0.6326,-0.0207,147.4,98.5,0.461
38.56,32004.4,34857.3,0.071,-1.7068,147.4,98.5,0.461
38.58,31911.1,34975.3,-1.5537,-0.3022,147.4,98.5,0.461
38.6,31957.6,35045.0,-0.7442,0.5262,147.4,98.5,0.461
38.62,32001.0,34942.8,0.0124,-0.6894,147.4,98.5,0.461
38.64,31933.9,34838.6,-1.1573,-1.9289,147.4,98.5,0.461
38.66,32031.9,34926.6,0.5493,-0.8816,147.4,98.5,0.461
38.68,32000.9,35001.2,0.0095,0.0055,147.4,98.5,0.461
38.7,32113.1,35095.3,1.9643,1.1252,147.4,98.5,0.461
38.72,32003.5,35157.7,0.0549,1.8676,147.4,98.5,0.461
38.74,32043.2,35159.6,0.7473,1.891,147.4,98.5,0.461
38.76,32092.2,35059.3,1.5997,0.6966,147.4,98.5,0.461
38.78,32054.2,35028.4,0.9378,0.3297,147.4,98.5,0.461
38.8,31943.4,35095.0,-0.9916,1.1214,147.4,98.5,0.461
38.82,32044.3,35040.8,0.7652,0.4768,147.4,98.5,0.461
38.84,31972.2,34982.5,-0.4892,-0.2165,147.4,98.5,0.461
38.86,31969.7,34976.1,-0.5334,-0.2933,147.4,98.5,0.461
38.88,31997.2,34968.9,-0.0548,-0.3784,147.4,98.5,0.461
38.9,31970.4,34896.7,-0.5205,-1.2385,147.4,98.5,0.461
38.92,31955.7,34960.9,-0.7778,-0.4741,147.4,98.5,0.461
38.94,31956.8,34883.2,-0.7576,-1.3991,147.4,98.5,0.461
38.96,32008.3,34909.8,0.139,-1.0823,147.4,98.5,0.461
38.98,31904.6,34967.8,-1.667,-0.3915,147.4,98.5,0.461
39.0,32000.3,34877.7,-0.0003,-1.4641,147.4,98.5,0.461
39.02,31869.3,34829.6,-2.2825,-2.0366,147.4,98.5,0.461
39.04,31984.8,34931.5,-0.2709,-0.824,147.4,98.5,0.461
39.06,32017.1,34948.2,0.2916,-0.6253,147.4,98.5,0.461
39.08,31983.2,35073.3,-0.2984,0.864,147.4,98.5,0.461
39.1,32056.6,35073.3,0.9808,0.8639,147.4,98.5,0.461
39.12,32072.7,35149.0,1.2603,1.7648,147.4,98.5,0.461
39.14,32067.0,35274.9,1.1609,3.263,147.4,98.5,0.461
39.16,32033.7,35113.0,0.5807,1.336,147.4,98.5,0.461
39.18,32052.8,35057.6,0.9141,0.6765,147.4,98.5,0.461
39.2,31932.1,35003.7,-1.1884,0.0353,147.4,98.5,0.461
39.22,31975.8,34998.3,-0.4264,-0.0288,147.4,98.5,0.461
39.24,32004.6,34995.8,0.075,-0.0583,147.4,98.5,0.461
39.26,31993.9,35034.6,-0.1124,0.4031,147.4,98.5,0.461
39.28,31997.4,35020.5,-0.0505,0.2355,147.4,98.5,0.461
39.3,31951.3,34941.7,-0.8534,-0.7025,147.4,98.5,0.461
39.32,31905.3,34891.9,-1.654,-1.2952,147.4,98.5,0.461
39.34,31940.4,34994.9,-1.0438,-0.0693,147.4,98.5,0.461
39.36,31960.1,35015.1,-0.7002,0.1712,147.4,98.5,0.461
39.38,32016.1,34919.4,0.275,-0.968,147.4,98.5,0.461
39.4,31985.2,34942.8,-0.2625,-0.6892,147.4,98.5,0.461
39.42,31999.5,34881.9,-0.0147,-1.4145,147.4,98.5,0.461
39.44,31908.8,34940.6,-1.5941,-0.7159,147.4,98.5,0.461
39.46,32015.7,34917.8,0.2683,-0.9869,147.4,98.5,0.461
39.48,32064.7,34995.4,1.1218,-0.0639,147.4,98.5,0.461
39.5,31989.1,35010.1,-0.1945,0.111,147.4,98.5,0.461
39.52,32014.4,35146.8,0.2453,1.7381,147.4,98.5,0.461
39.54,32107.7,35105.6,1.8704,1.2484,147.4,98.5,0.461
39.56,31995.3,35138.8,-0.0867,1.6424,147.4,98.5,0.461
39.58,31971.1,35136.2,-0.5093,1.6125,147.4,98.5,0.461
39.6,32062.9,35079.4,1.0896,0.9356,147.4,98.5,0.461
39.62,31955.4,34977.1,-0.7825,-0.2817,147.4,98.5,0.461
39.64,32023.2,35015.9,0.3992,0.1808,147.4,98.5,0.461
39.66,32007.0,35044.9,0.1168,0.5261,147.4,98.5,0.461
39.68,32051.8,35003.3,0.8974,0.0302,147.4,98.5,0.461
39.7,31967.7,34914.2,-0.5688,-1.0297,147.4,98.5,0.461
39.72,31878.9,34952.5,-2.1139,-0.5737,147.4,98.5,0.461
39.74,31968.9,34959.2,-0.5479,-0.4945,147.4,98.5,0.461
39.76,31943.2,34848.0,-0.9941,-1.8181,147.4,98.5,0.461
39.78,32023.4,34938.9,0.4021,-0.7357,147.4,98.5,0.461
39.8,32010.3,35005.9,0.1743,0.0615,147.4,98.5,0.461
39.82,31929.9,34979.5,-1.226,-0.2526,147.4,98.5,0.461
39.84,31951.0,34869.4,-0.859,-1.5624,147.4,98.5,0.461
39.86,31864.9,34900.8,-2.3588,-1.1895,147.4,98.5,0.461
39.88,32025.7,35044.9,0.4419,0.5251,147.4,98.5,0.461
39.9,31960.7,35009.9,-0.6906,0.1095,147.4,98.5,0.461
39.92,32019.0,35040.6,0.3262,0.4749,147.4,98.5,0.461
39.94,31998.4,35156.5,-0.0329,1.854,147.4,98.5,0.461
39.96,32052.5,35124.3,0.909,1.4702,147.4,98.5,0.461
39.98,32028.0,35094.9,0.4819,1.1205,147.4,98.5,0.461
40.0,32053.7,34998.5,0.9289,-0.0268,147.4,98.5,0.461
40.02,32081.7,35015.2,1.4168,0.1723,147.4,98.5,0.461
40.04,32003.2,35001.2,0.0501,0.0058,147.4,98.5,0.461
40.06,31910.5,34987.9,-1.5648,-0.1529,147.4,98.5,0.461
40.08,32062.5,34959.8,1.0828,-0.4875,147.4,98.5,0.461
40.1,32021.4,34956.9,0.3673,-0.5221,147.4,98.5,0.461
40.12,31946.4,35001.5,-0.9395,0.0087,147.4,98.5,0.461
40.14,32015.7,35015.2,0.2672,0.1716,147.4,98.5,0.461
40.16,32015.2,34890.5,0.2599,-1.3118,147.4,98.5,0.461
40.18,31994.5,34776.6,-0.1019,-2.6676,147.4,98.5,0.461
40.2,31967.7,34882.9,-0.5688,-1.4021,147.4,98.5,0.461
40.22,31946.2,34941.0,-0.9418,-0.7112,147.4,98.5,0.461
40.24,31949.1,34826.1,-0.8915,-2.0787,147.4,98.5,0.461
40.26,31980.9,34967.6,-0.3377,-0.3946,147.4,98.5,0.461
40.28,31956.2,34892.5,-0.7691,-1.2882,147.4,98.5,0.461
40.3,31985.3,34979.7,-0.2609,-0.2509,147.4,98.5,0.461
40.32,32058.4,35060.6,1.0114,0.7129,147.4,98.5,0.461
40.34,32032.9,35063.3,0.5676,0.7446,147.4,98.5,0.461
40.36,32030.2,35097.7,0.52,1.1544,147.4,98.5,0.461
40.38,31978.1,35225.1,-0.3862,2.6693,147.4,98.5,0.461
40.4,32005.1,35033.9,0.0829,0.395,147.4,98.5,0.461
40.42,32059.8,35078.8,1.0364,0.9291,147.4,98.5,0.461
40.44,31989.1,34938.6,-0.195,-0.7393,147.4,98.5,0.461
40.46,32042.9,34992.7,0.7422,-0.0954,147.4,98.5,0.461
40.48,31934.0,35001.8,-1.1544,0.0122,147.4,98.5,0.461
40.5,32043.1,34973.3,0.7446,-0.3264,147.4,98.5,0.461
40.52,31933.2,34968.6,-1.1684,-0.3823,147.4,98.5,0.461
40.54,32088.7,35019.0,1.5399,0.2168,147.4,98.5,0.461
40.56,31980.5,34927.9,-0.3449,-0.8668,147.4,98.5,0.461
40.58,32026.7,34892.0,0.4599,-1.2941,147.4,98.5,0.461
40.6,31991.3,34958.6,-0.1577,-0.501,147.4,98.5,0.461
40.62,32014.7,34931.4,0.2513,-0.8251,147.4,98.5,0.461
40.64,31991.9,34911.5,-0.1462,-1.0618,147.4,98.5,0.461
40.66,31939.7,34954.3,-1.0556,-0.5525,147.4,98.5,0.461
40.68,31929.1,34942.8,-1.2398,-0.6889,147.4,98.5,0.461
40.7,32080.2,34946.0,1.3917,-0.6519,147.4,98.5,0.461
40.72,31975.6,35065.0,-0.4308,0.7647,147.4,98.5,0.461
40.74,32023.7,35141.4,0.4068,1.6734,147.4,98.5,0.461
40.76,32055.5,35132.2,0.9607,1.5639,147.4,98.5,0.461
40.78,32009.1,35086.7,0.1534,1.0233,147.4,98.5,0.461
40.8,31995.2,35002.2,-0.0899,0.0174,147.4,98.5,0.461
40.82,31978.7,34982.6,-0.3761,-0.2154,147.4,98.5,0.461
40.84,32013.7,35028.9,0.2328,0.3353,147.4,98.5,0.461
40.86,31953.2,35114.5,-0.8202,1.3534,147.4,98.5,0.461
40.88,32020.5,34997.1,0.3515,-0.0436,147.4,98.5,0.461
40.9,31911.9,34990.2,-1.5399,-0.1259,147.4,98.5,0.461
40.92,31936.1,35012.8,-1.119,0.1431,147.4,98.5,0.461
40.94,31893.2,34967.2,-1.8647,-0.3989,147.4,98.5,0.461
40.96,32002.4,34962.9,0.0369,-0.4506,147.4,98.5,0.461
40.98,31903.7,34951.7,-1.6825,-0.5834,147.4,98.5,0.461
41.0,31980.5,34904.5,-0.3445,-1.1456,147.4,98.5,0.461
41.02,31935.6,34948.2,-1.1275,-0.6254,147.4,98.5,0.461
41.04,31908.9,34956.6,-1.5924,-0.5249,147.4,98.5,0.461
41.06,32050.2,34938.1,0.869,-0.7451,147.4,98.5,0.461
41.08,31980.9,34976.6,-0.339,-0.2874,147.4,98.5,0.461
41.1,31898.9,34956.7,-1.767,-0.5243,147.4,98.5,0.461
41.12,32064.4,35046.0,1.1165,0.5387,147.4,98.5,0.461
41.14,32050.4,35122.5,0.8718,1.449,147.4,98.5,0.461
41.16,32108.4,35029.9,1.8831,0.3476,147.4,98.5,0.461
41.18,32146.5,35198.6,2.546,2.3541,147.4,98.5,0.461
41.2,32061.0,35086.1,1.0561,1.0156,147.4,98.5,0.461
41.22,32061.1,35000.0,1.0584,-0.0088,147.4,98.5,0.461
41.24,31962.7,34984.5,-0.656,-0.193,147.4,98.5,0.461
41.26,31981.1,35110.0,-0.3343,1.2998,147.4,98.5,0.461
41.28,32013.1,34991.6,0.223,-0.1082,147.4,98.5,0.461
41.3,31963.0,35054.0,-0.6502,0.6343,147.4,98.5,0.461
41.32,31963.8,35030.2,-0.6367,0.351,147.4,98.5,0.461
41.34,32031.9,34977.7,0.5493,-0.2737,147.4,98.5,0.461
41.36,31953.7,34946.2,-0.8124,-0.6494,147.4,98.5,0.461
41.38,32028.3,35044.2,0.4865,0.5168,147.4,98.5,0.461
41.4,31832.2,34917.0,-2.9283,-0.9969,147.4,98.5,0.461
41.42,32003.1,34871.5,0.0486,-1.538,147.4,98.5,0.461
41.44,31963.6,34889.8,-0.6393,-1.3196,147.4,98.5,0.461
41.46,32043.3,34882.3,0.7478,-1.4094,147.4,98.5,0.461
41.48,32062.8,34863.6,1.0877,-1.6317,147.4,98.5,0.461
41.5,32013.3,35040.4,0.2257,0.4715,147.4,98.5,0.461
41.52,32025.4,35046.7,0.4374,0.547,147.4,98.5,0.461
41.54,32097.8,35067.3,1.6968,0.7917,147.4,98.5,0.461
41.56,32098.8,35136.5,1.7152,1.6155,147.4,98.5,0.461
41.58,32025.6,35078.0,0.4397,0.919,147.4,98.5,0.461
41.6,32061.3,35137.5,1.062,1.6275,147.4,98.5,0.461
41.62,32053.3,35196.6,0.9233,2.3313,147.4,98.5,0.461
41.64,31998.9,35091.0,-0.0241,1.0743,147.4,98.5,0.461
41.66,32019.8,34986.7,0.3389,-0.1672,147.4,98.5,0.461
41.68,31979.2,34955.4,-0.3678,-0.5401,147.4,98.5,0.461
41.7,31944.6,34956.3,-0.9704,-0.5286,147.4,98.5,0.461
41.72,31999.9,34946.9,-0.008,-0.6411,147.4,98.5,0.461
41.74,31965.1,34990.5,-0.6134,-0.1222,147.4,98.5,0.461
41.76,31919.2,34962.6,-1.4134,-0.4542,147.4,98.5,0.461
41.78,32026.8,34903.3,0.462,-1.1599,147.4,98.5,0.461
41.8,31919.1,34980.4,-1.4152,-0.2414,147.4,98.5,0.461
41.82,31908.2,34887.5,-1.6045,-1.347,147.4,98.5,0.461
41.84,32019.5,34901.2,0.334,-1.1847,147.4,98.5,0.461
41.86,31958.9,34854.7,-0.7206,-1.7377,147.4,98.5,0.461
41.88,31891.2,34920.6,-1.8997,-0.9539,147.4,98.5,0.461
41.9,31969.4,34906.7,-0.5388,-1.1194,147.4,98.5,0.461
41.92,31921.6,34985.3,-1.3705,-0.1836,147.4,98.5,0.461
41.94,32054.0,35051.2,0.9357,0.6005,147.4,98.5,0.461
41.96,32118.6,35052.8,2.0606,0.6197,147.4,98.5,0.461
41.98,32098.8,35215.5,1.7155,2.5551,147.4,98.5,0.461
42.0,32063.9,35138.2,1.1072,1.6356,147.4,98.5,0.461
42.02,32015.1,35082.2,0.2569,0.9689,147.4,98.5,0.461
42.04,31923.3,35118.6,-1.3414,1.4027,147.4,98.5,0.461
42.06,31844.5,35068.5,-2.7144,0.806,147.4,98.5,0.461
42.08,31961.2,35032.6,-0.6804,0.3792,147.4,98.5,0.461
42.1,31972.7,35020.0,-0.4815,0.2289,147.4,98.5,0.461
42.12,32071.6,34990.2,1.2419,-0.1255,147.4,98.5,0.461
42.14,32025.2,35013.1,0.4333,0.1472,147.4,98.5,0.461
42.16,32014.1,34993.0,0.2402,-0.0915,147.4,98.5,0.461
42.18,31992.4,34925.5,-0.1381,-0.8953,147.4,98.5,0.461
42.2,32000.0,34965.7,-0.0052,-0.4175,147.4,98.5,0.461
42.22,32034.9,34847.4,0.6024,-1.8246,147.4,98.5,0.461
42.24,32032.3,34930.5,0.557,-0.8352,147.4,98.5,0.461
42.26,31913.2,34928.8,-1.5173,-0.8564,147.4,98.5,0.461
42.28,32030.1,35026.4,0.5192,0.3053,147.4,98.5,0.461
42.3,32015.3,34832.8,0.2618,-1.9984,147.4,98.5,0.461
42.32,31899.5,34986.0,-1.7551,-0.1757,147.4,98.5,0.461
42.34,32057.2,35027.4,0.9899,0.3173,147.4,98.5,0.461
42.36,32019.5,35030.1,0.3335,0.3491,147.4,98.5,0.461
42.38,32046.0,35150.8,0.7963,1.7856,147.4,98.5,0.461
42.4,32127.6,35047.8,2.2166,0.5601,147.4,98.5,0.461
42.42,31989.8,35160.3,-0.1832,1.8982,147.4,98.5,0.461
42.44,32031.9,35116.5,0.5492,1.3779,147.4,98.5,0.461
42.46,31992.8,35054.3,-0.1308,0.6371,147.4,98.5,0.461
42.48,31959.5,34996.5,-0.7102,-0.051,147.4,98.5,0.461
42.5,32047.5,35058.7,0.8213,0.6896,147.4,98.5,0.461
42.52,32009.3,35027.6,0.1557,0.3194,147.4,98.5,0.461
42.54,31908.8,34911.9,-1.5945,-1.0568,147.4,98.5,0.461
42.56,31985.5,34966.8,-0.2589,-0.4038,147.4,98.5,0.461
42.58,31991.0,34938.1,-0.1619,-0.7449,147.4,98.5,0.461
42.6,31968.1,34911.5,-0.5618,-1.0616,147.4,98.5,0.461
42.62,32047.2,34876.9,0.8168,-1.4734,147.4,98.5,0.461
42.64,32046.7,34974.0,0.8076,-0.3187,147.4,98.5,0.461
42.66,31952.5,34867.9,-0.8327,-1.5811,147.4,98.5,0.461
42.68,31898.2,34878.3,-1.7789,-1.4567,147.4,98.5,0.461
42.7,31947.4,34905.1,-0.9213,-1.1386,147.4,98.5,0.461
42.72,31949.2,34925.9,-0.89,-0.8905,147.4,98.5,0.461
42.74,32036.0,34991.1,0.622,-0.1143,147.4,98.5,0.461
42.76,32065.2,34998.1,1.13,-0.0319,147.4,98.5,0.461
42.78,32046.7,35089.8,0.8083,1.0593,147.4,98.5,0.461
42.8,32034.6,35167.8,0.5969,1.9876,147.4,98.5,0.461
42.82,32140.3,35084.3,2.4379,0.9944,147.4,98.5,0.461
42.84,31978.2,35149.0,-0.3858,1.7639,147.4,98.5,0.461
42.86,32003.3,35042.6,0.0528,0.4982,147.4,98.5,0.461
42.88,32014.2,35048.2,0.2423,0.5645,147.4,98.5,0.461
42.9,31978.5,35033.2,-0.3808,0.3861,147.4,98.5,0.461
42.92,31990.3,35052.2,-0.1749,0.612,147.4,98.5,0.461
42.94,32064.6,35064.1,1.1191,0.7544,147.4,98.5,0.461
42.96,31963.2,34885.3,-0.6457,-1.3736,147.4,98.5,0.461
42.98,31938.4,34897.8,-1.0791,-1.2254,147.4,98.5,0.461
43.0,32056.5,34961.2,0.9789,-0.4704,147.4,98.5,0.461
43.02,32034.4,34956.7,0.5939,-0.5236,147.4,98.5,0.461
43.04,32046.4,34934.4,0.8027,-0.7894,147.4,98.5,0.461
43.06,31931.3,34917.4,-1.2017,-0.9915,147.4,98.5,0.461
43.08,31953.9,34922.6,-0.8092,-0.9294,147.4,98.5,0.461
43.1,31936.9,34878.8,-1.1044,-1.4505,147.4,98.5,0.461
43.12,31966.6,34988.6,-0.5874,-0.1448,147.4,98.5,0.461
43.14,32059.4,34956.1,1.0285,-0.531,147.4,98.5,0.461
43.16,31891.5,34978.0,-1.8952,-0.2708,147.4,98.5,0.461
43.18,32045.3,35038.9,0.7828,0.4544,147.4,98.5,0.461
43.2,32053.2,35118.0,0.9218,1.3955,147.4,98.5,0.461
43.22,32054.0,35091.7,0.934,1.0825,147.4,98.5,0.461
43.24,32071.0,35140.2,1.231,1.6594,147.4,98.5,0.461
43.26,32065.7,34964.7,1.1379,-0.4287,147.4,98.5,0.461
43.28,31962.8,34941.4,-0.6539,-0.7056,147.4,98.5,0.461
43.3,32034.3,35062.3,0.5927,0.7328,147.4,98.5,0.461
43.32,32113.7,34972.6,1.9738,-0.3347,147.4,98.5,0.461
43.34,31972.8,35014.2,-0.4797,0.16,147.4,98.5,0.461
43.36,32055.8,34900.2,0.9662,-1.1969,147.4,98.5,0.461
43.38,31921.7,35024.2,-1.3693,0.2794,147.4,98.5,0.461
43.4,32043.3,34964.3,0.7491,-0.4333,147.4,98.5,0.461
43.42,32020.7,34943.1,0.3555,-0.6863,147.4,98.5,0.461
43.44,31935.7,34927.3,-1.1248,-0.8738,147.4,98.5,0.461
43.46,32052.5,34946.0,0.9084,-0.6509,147.4,98.5,0.461
43.48,32024.0,34908.6,0.4122,-1.096,147.4,98.5,0.461
43.5,31975.5,34967.4,-0.4315,-0.3969,147.4,98.5,0.461
43.52,31963.3,34981.9,-0.6443,-0.2236,147.4,98.5,0.461
43.54,31935.2,35036.6,-1.1342,0.4262,147.4,98.5,0.461
43.56,32068.3,34942.2,1.1846,-0.6969,147.4,98.5,0.461
43.58,32073.2,35171.7,1.27,2.034,147.4,98.5,0.461
43.6,32144.0,35106.6,2.5021,1.2601,147.4,98.5,0.461
43.62,32081.8,35082.7,1.4191,0.9757,147.4,98.5,0.461
43.64,32021.2,35085.8,0.3638,1.0125,147.4,98.5,0.461
43.66,31998.5,35029.3,-0.0321,0.3399,147.4,98.5,0.461
43.68,31984.7,35127.8,-0.2721,1.5125,147.4,98.5,0.461
43.7,32003.5,34961.3,0.0552,-0.4699,147.4,98.5,0.461
43.72,32041.1,34993.2,0.7104,-0.0894,147.4,98.5,0.461
43.74,32022.2,35042.4,0.3803,0.4963,147.4,98.5,0.461
43.76,32030.1,34951.6,0.518,-0.5843,147.4,98.5,0.461
43.78,32070.6,34972.4,1.2242,-0.3373,147.4,98.5,0.461
43.8,31931.3,35019.0,-1.2018,0.2171,147.4,98.5,0.461
43.82,31986.6,34966.3,-0.2397,-0.4093,147.4,98.5,0.461
43.84,32060.1,34940.1,1.0403,-0.7211,147.4,98.5,0.461
43.86,32013.4,34962.9,0.227,-0.4499,147.4,98.5,0.461
43.88,32024.1,34989.0,0.4137,-0.1393,147.4,98.5,0.461
43.9,31958.5,34827.7,-0.7283,-2.0594,147.4,98.5,0.461
43.92,31959.3,34865.8,-0.7135,-1.6052,147.4,98.5,0.461
43.94,31977.2,34964.1,-0.4021,-0.4363,147.4,98.5,0.461
43.96,32096.5,34974.5,1.6756,-0.3119,147.4,98.5,0.461
43.98,32097.8,35118.6,1.6972,1.4024,147.4,98.5,0.461
44.0,32102.4,35086.3,1.7785,1.0181,147.4,98.5,0.461
44.02,31969.4,35199.7,-0.5385,2.3676,147.4,98.5,0.461
44.04,32018.9,35174.1,0.324,2.063,147.4,98.5,0.461
44.06,32031.2,35019.5,0.5385,0.2234,147.4,98.5,0.461
44.08,32018.2,34985.8,0.3107,-0.1779,147.4,98.5,0.461
44.1,31937.0,35018.6,-1.1033,0.2129,147.4,98.5,0.461
44.12,32050.3,34957.6,0.8701,-0.5139,147.4,98.5,0.461
44.14,31976.3,35013.7,-0.4189,0.1542,147.4,98.5,0.461
44.16,31924.4,34912.5,-1.3224,-1.0498,147.4,98.5,0.461
44.18,31981.5,34947.5,-0.3277,-0.6341,147.4,98.5,0.461
44.2,32066.7,34889.1,1.1564,-1.3289,147.4,98.5,0.461
44.22,31989.6,34962.2,-0.1865,-0.459,147.4,98.5,0.461
44.24,32030.7,34975.1,0.5289,-0.3056,147.4,98.5,0.461
44.26,32039.1,34899.5,0.6746,-1.2048,147.4,98.5,0.461
44.28,31977.4,34944.8,-0.3991,-0.6659,147.4,98.5,0.461
44.3,31825.2,34885.2,-3.0494,-1.3745,147.4,98.5,0.461
44.32,31947.8,34863.8,-0.9154,-1.6291,147.4,98.5,0.461
44.34,31990.7,34946.5,-0.1669,-0.6451,147.4,98.5,0.461
44.36,32006.2,35058.8,0.103,0.6908,147.4,98.5,0.461
44.38,32026.0,35046.1,0.4466,0.5398,147.4,98.5,0.461
44.4,32011.3,35082.7,0.1915,0.9754,147.4,98.5,0.461
44.42,32062.7,35092.3,1.0867,1.0896,147.4,98.5,0.461
44.44,32126.6,35138.1,2.1998,1.634,147.4,98.5,0.461
44.46,32074.1,35075.1,1.2847,0.885,147.4,98.5,0.461
44.48,32001.2,35101.9,0.0151,1.2043,147.4,98.5,0.461
44.5,31997.1,35015.4,-0.0567,0.1746,147.4,98.5,0.461
44.52,31959.6,34950.6,-0.709,-0.596,147.4,98.5,0.461
44.54,32072.8,35074.4,1.2629,0.8768,147.4,98.5,0.461
44.56,31970.1,35124.5,-0.5265,1.4724,147.4,98.5,0.461
44.58,31942.4,34995.0,-1.0081,-0.0686,147.4,98.5,0.461
44.6,32027.2,35002.3,0.4675,0.0189,147.4,98.5,0.461
44.62,31934.7,34945.6,-1.1432,-0.6564,147.4,98.5,0.461
44.64,31934.7,34944.5,-1.1433,-0.6687,147.4,98.5,0.461
44.66,31856.9,34997.2,-2.497,-0.0425,147.4,98.5,0.461
44.68,31864.8,35004.2,-2.3594,0.0417,147.4,98.5,0.461
44.7,32025.4,34992.6,0.4374,-0.0964,147.4,98.5,0.461
44.72,31949.2,34873.6,-0.8907,-1.513,147.4,98.5,0.461
44.74,32074.9,34886.8,1.2982,-1.3554,147.4,98.5,0.461
44.76,32010.0,34952.1,0.1689,-0.5793,147.4,98.5,0.461
44.78,32039.0,35014.4,0.6742,0.1628,147.4,98.5,0.461
44.8,32017.2,35011.4,0.2948,0.1269,147.4,98.5,0.461
44.82,32093.0,35109.8,1.6143,1.2979,147.4,98.5,0.461
44.84,32044.2,35141.1,0.7648,1.6699,147.4,98.5,0.461
44.86,32001.9,35204.8,0.0283,2.4284,147.4,98.5,0.461
44.88,32124.7,35123.1,2.167,1.4557,147.4,98.5,0.461
44.9,31944.9,35036.4,-0.9651,0.4248,147.4,98.5,0.461
